 $NMID ID='MM_0lb_SNR200_12hz_g60_88.RAW', FMTDAT='(8E13.5)'
 TRAMP=1., VOLUME=1. $END
  3.09793E+05  2.49766E+01  3.38093E+05  2.51784E+05  8.47575E+04  3.38643E+05 -1.32163E+05  2.51576E+05
 -1.91438E+05  8.27352E+04 -1.12529E+05 -3.10574E+04 -4.00091E+02 -5.02268E+04  5.43937E+04 -4.29484E+02
  3.56178E+04  5.22325E+04 -1.59307E+04  7.47851E+04 -6.18309E+04  6.37787E+04 -8.53148E+04  3.23842E+04
 -8.16525E+04 -1.15592E+04 -5.74711E+04 -5.18698E+04 -1.47780E+04 -6.89469E+04  2.81196E+04 -4.58356E+04
  4.20230E+04  2.88009E+03  1.85201E+04  4.77043E+04 -3.51175E+04  4.88429E+04 -6.77348E+04 -9.98274E+02
 -5.35315E+04 -5.76438E+04 -8.00116E+03 -7.79733E+04  3.41356E+04 -5.69374E+04  4.95248E+04 -1.82612E+04
  4.49856E+04  1.05125E+04  3.24120E+04  2.67161E+04  1.55586E+04  3.15012E+04 -5.90004E+03  2.78651E+04
 -2.21620E+04  1.15756E+04 -1.68154E+04 -3.94795E+03  6.62999E+03 -7.67890E+03  2.40588E+04  1.25151E+04
  6.22784E+03  3.67286E+04 -3.33154E+04  3.73542E+04 -6.39677E+04  2.32939E+03 -5.77246E+04 -4.49520E+04
 -1.25048E+04 -6.49927E+04  4.13899E+04 -4.64035E+04  6.09983E+04 -2.16183E+03  3.59164E+04  3.41834E+04
 -4.45077E+03  3.96714E+04 -3.05463E+04  1.85728E+04 -3.33179E+04 -3.75126E+03 -1.98966E+04 -1.10991E+04
 -9.46149E+03 -1.38866E+04 -8.48109E+02 -1.91283E+04  7.30973E+03 -2.37516E+04  1.69524E+04 -1.18915E+04
  1.08955E+04  6.79732E+03 -9.45032E+03  1.23450E+04 -2.34198E+04 -5.79479E+03 -8.19704E+03 -3.69693E+04
  2.50334E+04 -4.65383E+04  5.12774E+04 -2.07054E+04  4.89810E+04  2.04218E+04  1.66348E+04  4.60115E+04
 -1.73018E+04  3.59378E+04 -2.63988E+04  3.32775E+03 -1.08457E+04 -2.82888E+04  2.18765E+04 -3.64517E+04
  4.44645E+04 -1.07426E+04  3.79198E+04  2.38913E+04  1.94227E+04  5.07316E+04 -8.53303E+03  5.41572E+04
 -3.24857E+04  3.63635E+04 -4.58257E+04  9.75879E+03 -4.62540E+04 -1.80496E+04 -2.50302E+04 -3.99632E+04
  7.49477E+03 -4.05585E+04  3.52706E+04 -1.57445E+04  3.06377E+04  1.14164E+04  3.98814E+03  2.00203E+04
 -1.30798E+04  1.00976E+04 -1.00168E+04 -7.70328E+03  6.36387E+03 -1.20677E+04  1.82792E+04  4.51283E+03
  1.35256E+04  2.23993E+04 -6.12517E+03  2.60252E+04 -2.18139E+04  1.36213E+04 -3.11716E+04 -3.38801E+03
 -2.31243E+04 -1.63301E+04 -1.12717E+04 -2.36530E+04  4.64663E+03 -2.51219E+04  1.90636E+04 -2.08246E+04
  3.06541E+04 -1.44002E+04  3.59751E+04  4.79727E+03  2.69328E+04  2.42055E+04  4.51115E+03  4.08016E+04
 -1.88971E+04  3.37845E+04 -2.85476E+04  1.15286E+04 -2.18136E+04 -9.90523E+03 -4.83635E+03 -1.40149E+04
  8.27748E+02 -1.60264E+03 -7.81163E+03  7.38481E+03 -1.74799E+04  5.42373E+03 -1.92504E+04 -1.00781E+04
 -1.16264E+04 -2.13645E+04  7.55913E+03 -2.63329E+04  1.70439E+04 -1.90323E+04  1.93718E+04 -5.88178E+02
  1.32611E+04  1.53908E+04 -1.38156E+03  2.26311E+04 -1.54503E+04  1.10880E+04 -2.28066E+04 -4.44303E+03
 -1.63794E+04 -2.01766E+04 -2.93272E+03 -2.75351E+04  1.17391E+04 -2.08134E+04  2.18824E+04 -1.08898E+04
  2.02364E+04 -3.61972E+02  1.49359E+04  3.92500E+03  8.38558E+03  1.26440E+03  1.12877E+04  1.87596E+02
  2.07670E+04  7.67703E+02  2.26752E+04  1.59797E+04  1.54765E+04  3.52204E+04 -3.50766E+03  3.91215E+04
 -2.37043E+04  3.35643E+04 -3.83952E+04  1.67250E+04 -4.06514E+04 -3.25889E+03 -3.32026E+04 -2.40970E+04
 -1.36179E+04 -3.23392E+04  1.23758E+04 -2.85478E+04  2.64557E+04 -1.39687E+04  2.20054E+04  8.22592E+03
  8.61256E+03  1.62182E+04 -1.12859E+04  1.46598E+04 -1.84804E+04  3.56764E+03 -1.51784E+04 -1.23584E+04
 -1.56056E+02 -1.64419E+04  9.48489E+03 -1.33548E+04  1.23449E+04 -1.41129E+03  2.22215E+03  8.32063E+03
 -8.45788E+03  3.75275E+03 -7.21548E+03 -6.21693E+03 -2.57152E+03 -1.51772E+04  1.07119E+04 -1.76581E+04
  2.08974E+04 -9.48317E+03  2.30893E+04  2.74777E+03  2.09028E+04  1.56120E+04  9.30974E+03  2.52733E+04
 -3.73233E+03  2.68988E+04 -1.81896E+04  1.68743E+04 -1.94153E+04  3.38379E+03 -1.28203E+04 -5.54362E+03
 -5.73996E+03 -6.01992E+03  3.06999E+01  7.51958E+02 -3.35678E+03  2.70297E+03 -6.92100E+03  4.87842E+03
 -1.16857E+04 -4.69016E+02 -1.29192E+04 -1.16100E+04 -5.37490E+03 -1.62375E+04  5.77790E+03 -1.49915E+04
  1.11029E+04 -5.54942E+03  7.37247E+03  3.63339E+03  1.11810E+03  5.46768E+03 -7.70291E+03 -6.07305E+02
 -6.14919E+03 -9.79029E+03 -2.86920E+02 -1.43578E+04  8.34156E+03 -1.43765E+04  1.79247E+04 -8.42485E+03
  2.05700E+04  1.69759E+03  1.40600E+04  1.31641E+04  2.62093E+03  1.61246E+04 -8.47434E+03  1.24419E+04
 -1.16858E+04  4.35965E+03 -6.72445E+03 -3.05418E+03  3.41088E+03 -3.35188E+03  7.53141E+03  5.41798E+02
  7.74433E+03  6.91557E+03  2.01441E+03  1.22162E+04 -8.92064E+03  1.03735E+04 -1.26115E+04  2.01110E+03
 -8.68265E+03 -6.88746E+03 -8.40361E+02 -1.03978E+04  7.61753E+03 -5.82103E+03  6.63813E+03  3.05130E+03
  2.04503E+03  9.00873E+03 -8.25505E+03  9.95297E+03 -1.05612E+04  5.68996E+03 -1.14785E+04 -3.92187E+03
 -6.15319E+03 -1.34816E+04  3.98270E+03 -1.44978E+04  1.29810E+04 -9.38209E+03  1.39073E+04  2.60530E+03
  7.77437E+03  9.40390E+03 -1.28321E+03  1.42196E+04 -9.18682E+03  7.28991E+03 -1.03769E+04 -5.66957E+02
 -8.74880E+03 -8.95990E+03 -1.23795E+03 -1.02901E+04  4.98451E+03 -8.05883E+03  5.70151E+03 -2.65843E+03
  5.67205E+03  2.39095E+03 -1.41274E+02  1.35216E+03 -2.31154E+02 -2.79933E+03  2.77046E+03 -5.46879E+03
  9.10283E+03 -4.26751E+03  1.39165E+04  1.56389E+03  1.27719E+04  8.94156E+03  7.13994E+03  1.52200E+04
 -4.23519E+03  1.95921E+04 -1.59919E+04  1.46824E+04 -2.06534E+04  3.83518E+03 -1.79360E+04 -7.85458E+03
 -7.81692E+03 -1.36012E+04 -6.47243E+02 -1.22351E+04  4.88003E+03 -7.23388E+03  3.97330E+03 -5.04257E+03
  4.15981E+03 -3.21459E+03  4.84385E+03 -4.91931E+03  4.14442E+03 -4.48378E+03  5.74750E+03 -1.15849E+03
  8.35118E+03  2.74961E+03  4.08184E+03  7.79302E+03 -2.70189E+03  8.82354E+03 -9.00110E+03  6.85602E+03
 -1.29539E+04 -2.31111E+03 -7.30017E+03 -7.67204E+03 -1.08107E+03 -1.28570E+04  7.15256E+03 -1.29497E+04
  1.24089E+04 -8.10226E+03  1.63355E+04  1.80983E+03  9.92231E+03  1.03179E+04  8.11917E+02  1.42877E+04
 -6.22039E+03  1.12121E+04 -7.03595E+03  4.94809E+03 -4.58464E+03 -1.10634E+03 -3.77837E+03 -2.69897E+03
  2.01205E+02 -3.85532E+02 -9.61370E+02  3.72456E+03 -4.02790E+03  1.85473E+03 -8.13646E+03 -4.54550E+02
 -4.97278E+03 -8.39975E+03 -8.00719E+01 -1.06109E+04  6.47260E+03 -1.08708E+04  1.18381E+04 -3.01073E+03
  1.11422E+04  6.24318E+03  5.33700E+03  9.99714E+03 -3.79744E+03  1.03845E+04 -7.89983E+03  7.32211E+03
 -1.03623E+04  6.01639E+02 -9.46929E+03 -6.32112E+03 -1.32042E+03 -8.95377E+03  3.64725E+03 -6.70604E+03
  7.00175E+03 -1.76719E+03  4.95014E+03  8.01384E+02  2.87098E+03  2.73362E+03  1.62731E+03  1.50083E+03
  2.80289E+03  4.05011E+02  2.29538E+03  2.17697E+03  2.93767E+03  4.29371E+03  1.67747E+03  7.67535E+03
 -3.02942E+03  8.06560E+03 -6.77974E+03  8.27091E+03 -9.63792E+03  3.07604E+03 -1.30258E+04 -4.11461E+03
 -5.43357E+03 -9.82155E+03  1.29667E+03 -1.21534E+04  6.75155E+03 -6.50646E+03  8.43062E+03 -2.52064E+03
  7.28314E+03  3.27273E+03  2.05078E+03  6.73097E+03 -2.83797E+03  3.68930E+03 -2.82290E+03 -1.42262E+03
 -2.51427E+03 -4.05947E+03  3.14699E+03 -5.99386E+03  4.53341E+03 -3.51467E+03  4.29273E+03  1.11900E+03
  3.35291E+03  1.85803E+03  1.31180E+03  2.04633E+03 -1.66222E+03  1.75269E+03  1.62082E+03 -1.40721E+02
  1.52298E+02  5.91295E+02  3.49312E+03  1.67747E+03  1.48663E+03  5.00264E+03 -1.09761E+03  8.30916E+03
 -3.62762E+03  5.64828E+03 -6.79651E+03  4.13263E+02 -6.93340E+03 -3.13844E+03 -1.59819E+03 -4.72490E+03
 -2.50876E+02 -3.07153E+03  3.65061E+03 -1.86409E+03  3.39997E+03  2.89832E+03 -1.62266E+03  3.35143E+03
 -3.43340E+03  2.04699E+03 -5.00409E+03 -2.44333E+03 -1.73626E+03 -5.63454E+03 -2.83290E+02 -4.40165E+03
  3.52317E+03 -3.94870E+03  2.99900E+03 -1.62876E+02  3.11481E+03  7.46337E+02 -1.74563E+02  3.69850E+03
 -8.30922E+02  1.19546E+03 -1.99893E+03 -1.36106E+03  8.51441E+02 -5.22705E+03  4.45299E+03 -2.97828E+03
  7.69780E+03  5.64525E+02  7.40139E+03  4.11563E+03  3.40009E+03  7.16000E+03 -1.57918E+03  6.12765E+03
 -4.23632E+03  3.48071E+03 -5.39727E+03 -1.94535E+02 -2.52475E+03 -4.89581E+03  1.73595E+03 -3.47494E+03
  4.00719E+03 -2.81134E+03  4.05369E+03  3.47683E+03  1.49014E+03  5.21615E+03  5.61607E+02  3.59842E+03
 -2.33005E+03  2.34334E+03 -1.44178E+03  1.20663E+03 -2.39261E+02  1.15620E+02 -7.94094E+02  2.30881E+03
 -2.30896E+03  4.60943E+03 -3.81988E+03  2.02758E+03 -5.84516E+03 -1.02563E+03 -8.11988E+03 -3.82984E+03
 -4.81714E+03 -8.16337E+03  1.53431E+03 -9.72281E+03  6.69526E+03 -7.01605E+03  8.78280E+03 -3.65013E+03
  7.55855E+03  2.22286E+03  4.08687E+03  5.02846E+03 -1.65355E+02  8.97204E+03 -2.52750E+03  5.30094E+03
 -3.21801E+03  2.18472E+03 -1.30622E+03 -1.35385E+03 -3.20893E+02 -1.65353E+03 -1.90246E+03  1.36087E+03
 -1.74577E+03  2.83103E+02  8.72644E+02  3.06120E+02 -3.53489E+02 -1.66914E+03  1.03345E+03 -3.27175E+03
  2.31016E+03 -2.32333E+03  3.17375E+03 -7.67649E+01  2.59418E+03  2.79332E+03  1.19209E+03  6.94123E+03
 -4.91217E+03  6.81090E+03 -7.24540E+03  5.05645E+03 -8.30420E+03 -1.85523E+03 -5.70430E+03 -5.08505E+03
 -2.89391E+03 -6.40700E+03  2.02668E+03 -5.51214E+03  3.28304E+03 -3.00678E+03  4.57191E+03 -1.06131E+03
  2.54295E+03  1.43508E+03 -7.27942E+02  2.12554E+03 -1.80612E+03 -7.93018E+02  1.29845E+03 -2.02210E+03
  2.66491E+03 -4.42578E+02  2.67599E+03 -9.44865E+01  7.16967E+02  2.32159E+03  3.37701E+02  4.00897E+03
 -4.04985E+03  2.83140E+03 -5.27050E+03  4.10209E+02 -3.33058E+03 -2.78017E+03 -4.15618E+02 -5.55751E+03
  3.31121E+03 -5.25902E+03  5.22834E+03 -2.08390E+02  3.07570E+03  9.33618E+02  2.02905E+03  3.91942E+03
  8.09121E+02  3.49091E+03 -1.03892E+03  4.34124E+03 -1.82592E+03  2.74694E+03 -2.73985E+03  1.81139E+02
 -2.25812E+03 -1.03273E+03 -1.32148E+03  2.62193E+02 -1.73731E+03  9.16113E+02 -2.26371E+03 -1.18770E+03
 -2.98065E+03 -1.70849E+03 -1.33377E+03 -3.03761E+03  3.08591E+03 -3.88774E+03  4.73359E+03 -4.84162E+02
  3.70500E+03  1.62613E+03  2.89782E+03  3.14694E+03  3.70562E+02  3.34935E+03 -2.20237E+03  3.53472E+03
