 $NMID ID='MM_0lb_SNR200_8hz_g50_57.RAW', FMTDAT='(8E13.5)'
 TRAMP=1., VOLUME=1. $END
  3.11514E+05 -3.63573E+02  3.37382E+05  2.50481E+05  8.39777E+04  3.37777E+05 -1.34177E+05  2.52069E+05
 -1.91653E+05  8.25047E+04 -1.13986E+05 -3.27648E+04  2.51169E+02 -5.01988E+04  5.34650E+04 -8.81333E+02
  3.59572E+04  5.25186E+04 -1.52571E+04  7.61915E+04 -6.32294E+04  6.24378E+04 -8.68832E+04  3.36398E+04
 -8.33549E+04 -1.18695E+04 -5.76291E+04 -5.37877E+04 -1.64118E+04 -6.98480E+04  2.97851E+04 -4.67032E+04
  4.21205E+04  4.08419E+03  1.77761E+04  4.85736E+04 -3.61574E+04  4.71992E+04 -6.92832E+04 -8.22450E+02
 -5.46064E+04 -5.90464E+04 -6.94621E+03 -7.87663E+04  3.37520E+04 -5.88325E+04  5.01029E+04 -1.67316E+04
  4.40495E+04  1.16530E+04  3.22039E+04  2.55180E+04  1.56155E+04  3.10055E+04 -7.41721E+03  2.89338E+04
 -2.39639E+04  1.30562E+04 -1.77907E+04 -5.08300E+03  7.16492E+03 -8.23338E+03  2.34702E+04  1.45220E+04
  6.42769E+03  3.80236E+04 -3.37739E+04  3.75967E+04 -6.53323E+04  2.04306E+03 -5.85247E+04 -4.43016E+04
 -1.27404E+04 -6.77246E+04  4.28353E+04 -4.85177E+04  6.10097E+04 -1.51977E+03  3.71970E+04  3.54691E+04
 -4.33410E+03  4.05027E+04 -3.21653E+04  1.84242E+04 -3.45478E+04 -2.94129E+03 -1.78321E+04 -1.24372E+04
 -1.05556E+04 -1.62273E+04 -2.55712E+03 -1.99164E+04  8.87608E+03 -2.50058E+04  1.70263E+04 -1.18257E+04
  1.03980E+04  6.06427E+03 -1.14172E+04  1.04127E+04 -2.42384E+04 -6.95104E+03 -8.49228E+03 -3.91486E+04
  2.50346E+04 -4.84240E+04  5.45328E+04 -2.12590E+04  4.93549E+04  2.16281E+04  1.87786E+04  4.88523E+04
 -1.52900E+04  3.63635E+04 -2.88988E+04  2.92587E+03 -1.10928E+04 -2.90292E+04  2.06307E+04 -3.73049E+04
  4.46721E+04 -1.27144E+04  4.21306E+04  2.42522E+04  2.09854E+04  5.17641E+04 -7.96606E+03  5.60521E+04
 -3.55260E+04  4.11206E+04 -4.87516E+04  1.18710E+04 -4.82047E+04 -1.97459E+04 -2.59965E+04 -4.20570E+04
  6.92772E+03 -4.38022E+04  3.55157E+04 -1.91022E+04  3.30265E+04  9.53612E+03  5.21748E+03  2.10119E+04
 -1.39989E+04  9.53092E+03 -1.11508E+04 -8.25876E+03  5.33490E+03 -1.11170E+04  1.96236E+04  6.76368E+03
  1.50135E+04  2.31085E+04 -4.47765E+03  2.81204E+04 -2.51381E+04  1.61381E+04 -3.40507E+04 -2.71904E+03
 -2.68178E+04 -2.03181E+04 -1.35523E+04 -2.65684E+04  5.56455E+03 -2.71750E+04  2.09069E+04 -2.46175E+04
  3.31954E+04 -1.38190E+04  3.76243E+04  5.32016E+03  2.82341E+04  2.63073E+04  6.15058E+03  4.28234E+04
 -2.15485E+04  3.46551E+04 -3.11079E+04  1.14697E+04 -2.11179E+04 -1.09865E+04 -3.88217E+03 -1.21240E+04
  2.31234E+01 -3.64280E+02 -7.70504E+03  8.29347E+03 -2.00218E+04  4.89427E+03 -2.09422E+04 -1.26945E+04
 -9.26419E+03 -2.34331E+04  6.07863E+03 -2.92221E+04  1.80542E+04 -1.95553E+04  2.47932E+04 -2.05443E+03
  1.39345E+04  1.64899E+04  3.32168E+01  2.35261E+04 -1.68878E+04  1.40399E+04 -2.46285E+04 -3.94128E+03
 -1.70835E+04 -2.23776E+04 -1.47196E+03 -2.95866E+04  1.47406E+04 -2.45021E+04  2.45872E+04 -1.25120E+04
  2.42453E+04  4.83347E+02  1.67342E+04  7.09744E+03  8.21196E+03  7.19877E+02  1.33800E+04 -3.22699E+03
  2.17085E+04  2.93444E+03  2.70860E+04  1.68180E+04  1.90898E+04  3.74436E+04 -2.04166E+03  4.59892E+04
 -2.75520E+04  3.86496E+04 -4.61285E+04  1.95227E+04 -4.72355E+04 -2.83135E+03 -3.90322E+04 -2.68790E+04
 -1.38462E+04 -3.92770E+04  1.52733E+04 -3.34974E+04  3.01638E+04 -1.57378E+04  2.50330E+04  8.95313E+03
  7.91738E+03  1.97284E+04 -1.31629E+04  1.58951E+04 -2.19390E+04  8.97711E+02 -1.46731E+04 -1.38286E+04
  9.67442E+02 -2.26790E+04  1.17019E+04 -1.35652E+04  1.47606E+04 -2.12004E+03  4.16895E+03  8.72180E+03
 -7.61363E+03  4.59981E+03 -7.49557E+03 -7.07790E+03 -1.26819E+03 -1.86676E+04  1.30526E+04 -2.05370E+04
  2.37307E+04 -1.24155E+04  2.73383E+04  3.80371E+03  2.34565E+04  2.05172E+04  1.26774E+04  3.28448E+04
 -6.42629E+03  3.27039E+04 -2.05822E+04  2.05883E+04 -2.33341E+04  4.23984E+03 -1.79154E+04 -6.42999E+03
 -6.50181E+03 -8.02332E+03 -9.82310E+02  1.37439E+03 -3.79014E+03  4.31714E+03 -7.47579E+03  6.81375E+03
 -1.35947E+04 -1.00817E+03 -1.53158E+04 -1.32118E+04 -6.39936E+03 -2.19749E+04  6.14495E+03 -1.47403E+04
  1.35420E+04 -5.34611E+03  8.91985E+03  2.25269E+03  1.79887E+03  7.32874E+03 -8.86566E+03  5.62222E+02
 -1.02247E+04 -1.07151E+04 -1.26402E+03 -1.53158E+04  9.03005E+03 -1.59400E+04  2.08096E+04 -9.63197E+03
  2.53290E+04  4.33020E+03  1.88409E+04  1.59565E+04  3.40176E+03  1.99751E+04 -1.03019E+04  1.58476E+04
 -1.45062E+04  5.45636E+03 -7.58226E+03 -3.47313E+03  2.18841E+03 -5.47956E+03  7.59243E+03 -7.52127E+01
  8.51379E+03  8.92244E+03  2.14740E+03  1.42108E+04 -9.25170E+03  1.30547E+04 -1.64726E+04  2.38242E+03
 -9.85942E+03 -9.51148E+03  7.05917E+02 -1.50482E+04  8.80053E+03 -6.88766E+03  9.93285E+03  3.35912E+03
  1.37086E+03  1.20817E+04 -9.83595E+03  1.28782E+04 -1.53159E+04  6.64302E+03 -1.46264E+04 -5.96621E+03
 -8.86285E+03 -1.92029E+04  4.50952E+03 -2.06265E+04  1.52831E+04 -1.02418E+04  1.90394E+04  1.53985E+03
  1.07393E+04  1.37078E+04 -2.21843E+03  1.83809E+04 -1.16333E+04  1.06695E+04 -1.56191E+04 -3.56608E+03
 -1.43661E+04 -1.10665E+04 -2.29310E+03 -1.20464E+04  6.58447E+03 -1.19567E+04  9.31483E+03 -3.72800E+03
  6.04285E+03  2.62545E+03 -8.25158E+02  8.61785E+02 -1.28757E+03 -3.23355E+03  3.17645E+03 -6.73425E+03
  1.36395E+04 -5.98252E+03  1.81496E+04  1.73762E+03  1.77789E+04  1.22241E+04  1.09378E+04  2.45204E+04
 -4.96638E+03  2.72232E+04 -2.21577E+04  1.88669E+04 -2.84930E+04  2.61163E+03 -2.36818E+04 -1.05611E+04
 -1.28200E+04 -1.95849E+04 -1.02716E+03 -1.74356E+04  5.75488E+03 -9.17537E+03  6.57456E+03 -6.02382E+03
  3.93865E+03 -4.17499E+03  4.63920E+03 -3.15566E+03  6.57618E+03 -4.32351E+03  9.14304E+03 -6.53223E+02
  1.14559E+04  1.93215E+03  6.90242E+03  1.04146E+04 -2.60982E+03  1.31234E+04 -1.29735E+04  1.00068E+04
 -1.60350E+04 -9.29400E+02 -1.08233E+04 -1.15296E+04 -1.12864E+03 -1.68026E+04  8.55361E+03 -1.79190E+04
  1.72688E+04 -8.35260E+03  2.23945E+04  3.92700E+03  1.43777E+04  1.59740E+04  2.85193E+03  2.17267E+04
 -8.84799E+03  1.69396E+04 -1.11783E+04  2.77680E+03 -7.51058E+03 -9.18163E+02 -2.51185E+03 -4.23134E+03
 -1.34402E+03  4.75342E+02 -3.74122E+03  3.07022E+03 -6.95996E+03  2.65462E+03 -9.98548E+03 -2.44863E+03
 -7.93346E+03 -1.16816E+04 -6.55587E+02 -1.51969E+04  1.07393E+04 -1.37186E+04  1.66679E+04 -5.73766E+03
  1.69744E+04  7.68871E+03  7.00010E+03  1.57177E+04 -2.96381E+03  1.68614E+04 -1.26889E+04  1.20972E+04
 -1.58549E+04 -8.96549E+02 -1.23319E+04 -1.06775E+04 -7.60956E+02 -1.15517E+04  7.90425E+03 -1.03426E+04
  1.12469E+04 -2.46365E+03  8.95330E+03  3.24601E+03  8.16764E+02  5.29718E+03  2.73053E+03  1.68378E+03
  3.19103E+03  6.74645E+02  4.79454E+03  3.28362E+03  5.65079E+03  5.37502E+03  5.38096E+03  9.58372E+03
 -1.77803E+03  1.47766E+04 -1.11358E+04  1.41813E+04 -1.60692E+04  5.10397E+03 -1.85016E+04 -8.20151E+03
 -8.56231E+03 -1.79855E+04  1.63346E+03 -1.83542E+04  9.94642E+03 -1.26045E+04  1.30316E+04 -2.62794E+03
  9.39336E+03  5.76388E+03  2.70403E+03  1.07797E+04 -5.55026E+03  5.71763E+03 -5.84232E+03 -3.90089E+02
 -3.60797E+03 -7.35204E+03  2.99156E+03 -7.73734E+03  7.91256E+03 -3.77697E+03  6.70632E+03  1.07543E+01
  4.25754E+03  3.04886E+03  4.69382E+02  3.20383E+03 -1.19185E+02  1.92286E+03  2.84506E+03  6.61434E+02
  3.37763E+03  2.30559E+02  7.38446E+03  3.51111E+03  3.79354E+03  7.95146E+03 -1.29720E+03  1.21030E+04
 -6.60407E+03  7.80234E+03 -1.20897E+04  2.25790E+03 -8.20255E+03 -4.84229E+03 -4.36460E+03 -7.43494E+03
  2.46509E+03 -6.43447E+03  3.17686E+03 -2.98562E+03  4.68416E+03  2.96128E+03 -2.00053E+03  5.25630E+03
 -8.92098E+03  3.15563E+03 -7.63048E+03 -4.48439E+03 -3.67515E+03 -1.01133E+04  1.60598E+03 -9.74159E+03
  5.50487E+03 -5.12392E+03  6.36662E+03 -4.56700E+02  6.08600E+03  2.82561E+03  2.40166E+03  5.38262E+03
 -5.03931E+03  9.94213E+02 -4.41968E+03 -2.71798E+03  2.31277E+03 -7.78669E+03  7.91462E+03 -4.88267E+03
  1.29761E+04  1.29637E+03  1.23455E+04  6.55466E+03  3.01038E+03  1.20475E+04 -2.49400E+03  1.09364E+04
 -9.58446E+03  6.32852E+03 -9.73834E+03 -2.06617E+03 -7.25564E+03 -8.47083E+03  1.01729E+03 -7.35315E+03
  8.20960E+03 -3.74625E+03  4.48654E+03  3.07848E+03  1.22371E+03  6.61125E+03 -9.13717E+02  5.48238E+03
 -4.91009E+03  5.43077E+03 -3.46828E+03  5.07722E+02  1.03151E+02  4.57699E+02 -3.32918E+03  3.98771E+03
 -2.78246E+03  2.64232E+03 -7.45983E+03  4.06610E+03 -1.09903E+04 -2.38545E+02 -1.22755E+04 -6.03196E+03
 -6.78493E+03 -1.53947E+04  3.01666E+03 -1.62358E+04  1.27844E+04 -1.52757E+04  1.65756E+04 -5.01034E+03
  1.48970E+04  2.94835E+03  8.38296E+03  1.02220E+04  2.06083E+03  1.39223E+04 -2.95483E+03  1.01299E+04
 -7.71497E+03  4.32476E+03 -5.70100E+03  1.99429E+02 -2.40684E+03 -5.31988E+02 -2.33116E+02 -1.21729E+02
 -1.13549E+03  6.70483E+02 -1.58013E+03 -5.88794E+02 -2.14331E+03 -3.26036E+03  6.33666E+02 -2.89908E+03
  6.35238E+03 -4.37732E+03  6.29142E+03 -1.52003E+03  8.16888E+03  7.29768E+03  8.98539E+02  1.32652E+04
 -5.25700E+03  1.37067E+04 -1.39852E+04  7.77734E+03 -1.54698E+04 -7.25470E+02 -1.27463E+04 -8.39657E+03
 -4.98487E+03 -1.37354E+04  3.81134E+03 -1.25823E+04  8.07154E+03 -7.83937E+03  7.85438E+03  1.53684E+03
  4.79192E+03  5.48164E+03 -1.77002E+03  2.36643E+03 -2.68188E+03  6.32938E+02  1.16139E+03 -3.02814E+03
  4.47813E+03 -1.88373E+03  6.02581E+03  1.24583E+03  4.30048E+03  5.45989E+03  2.25235E+03  7.88458E+03
 -5.08531E+03  4.36468E+03 -9.05068E+03  1.43404E+03 -7.87281E+03 -7.76817E+03 -3.28111E+03 -1.14046E+04
  7.12657E+03 -8.62277E+03  9.93751E+03 -3.99167E+03  1.05737E+04  2.37937E+03  6.23779E+03  7.47186E+03
  1.40016E+03  9.02441E+03 -3.65784E+03  6.12745E+03 -6.75800E+03  3.16837E+03 -4.99113E+03  5.33219E+02
 -3.12214E+03 -9.19312E+02 -2.54582E+03  8.49299E+02 -4.17802E+03  1.80354E+02 -7.79047E+03 -1.77921E+03
 -8.12134E+03 -2.93887E+03 -1.41006E+03 -7.73895E+03  4.65581E+03 -1.11688E+04  6.39016E+03 -5.35007E+03
  8.41105E+03  1.97919E+03  4.69474E+03  6.85417E+03 -1.08800E+03  8.84446E+03 -5.47617E+03  5.21649E+03
