 $NMID ID='MM_0lb_SNR200_16hz_g50_55.RAW', FMTDAT='(8E13.5)'
 TRAMP=1., VOLUME=1. $END
  3.09944E+05 -5.09546E+01  3.37619E+05  2.50488E+05  8.29534E+04  3.37174E+05 -1.32891E+05  2.49778E+05
 -1.90699E+05  8.14308E+04 -1.11796E+05 -3.25129E+04  6.88305E+02 -5.01929E+04  5.35046E+04 -7.99842E+02
  3.39276E+04  5.25644E+04 -1.63996E+04  7.55637E+04 -6.04875E+04  6.32889E+04 -8.39699E+04  3.17882E+04
 -7.97255E+04 -1.06503E+04 -5.71091E+04 -5.15409E+04 -1.48628E+04 -6.90211E+04  2.70804E+04 -4.59416E+04
  4.05225E+04  3.88705E+03  1.53331E+04  4.78533E+04 -3.48389E+04  4.74862E+04 -6.68025E+04 -3.55123E+02
 -5.22916E+04 -5.65972E+04 -5.78251E+03 -7.67798E+04  3.29305E+04 -5.48135E+04  4.79879E+04 -1.83321E+04
  4.24115E+04  1.17280E+04  3.08812E+04  2.46212E+04  1.50388E+04  2.82380E+04 -4.84409E+03  2.67663E+04
 -2.15619E+04  1.34402E+04 -1.86022E+04 -3.34346E+03  4.90088E+03 -8.54199E+03  2.16402E+04  1.20445E+04
  7.77530E+03  3.43508E+04 -3.21689E+04  3.47928E+04 -6.16814E+04  2.86517E+03 -5.57519E+04 -4.29838E+04
 -1.15595E+04 -6.27715E+04  3.91469E+04 -4.45209E+04  5.72620E+04 -3.58361E+03  3.33155E+04  3.19189E+04
 -7.14491E+03  3.55875E+04 -2.81536E+04  1.55352E+04 -2.96334E+04 -4.52174E+03 -1.56580E+04 -1.09798E+04
 -8.23176E+03 -1.12186E+04 -1.96345E+02 -1.78493E+04  6.94439E+03 -2.38112E+04  1.42300E+04 -1.47917E+04
  1.20630E+04  5.24296E+03 -8.10188E+03  1.31864E+04 -2.10363E+04 -3.06149E+03 -9.15360E+03 -3.24724E+04
  2.34632E+04 -4.31939E+04  4.62243E+04 -1.92720E+04  4.42932E+04  1.86044E+04  1.47128E+04  4.34070E+04
 -1.70990E+04  3.27041E+04 -2.43258E+04  2.02423E+03 -8.08980E+03 -2.72257E+04  2.07667E+04 -3.34682E+04
  4.04359E+04 -7.85486E+03  3.33506E+04  2.39362E+04  1.68391E+04  4.53195E+04 -8.23775E+03  4.83286E+04
 -3.04827E+04  3.21521E+04 -4.04906E+04  9.08153E+03 -3.99544E+04 -1.68102E+04 -2.37369E+04 -3.71191E+04
  7.02593E+03 -3.65357E+04  3.07315E+04 -1.40173E+04  2.81087E+04  1.02949E+04  4.63435E+03  1.86973E+04
 -1.35711E+04  7.67947E+03 -1.12758E+04 -7.21530E+03  6.42450E+03 -1.20356E+04  1.88589E+04  6.43666E+03
  1.39461E+04  2.22468E+04 -5.66874E+03  2.42239E+04 -2.29464E+04  1.07302E+04 -2.70971E+04 -4.89716E+03
 -1.95496E+04 -1.70898E+04 -7.49809E+03 -1.87122E+04  4.31025E+03 -1.78626E+04  1.39810E+04 -1.65236E+04
  2.37981E+04 -1.23304E+04  2.99074E+04  1.81131E+03  2.24717E+04  1.78279E+04  5.17864E+03  3.47251E+04
 -1.71361E+04  2.91690E+04 -2.62806E+04  1.03353E+04 -2.09740E+04 -1.04655E+04 -4.48619E+03 -1.30090E+04
  2.19164E+03 -2.91074E+03 -4.56765E+03  6.45079E+03 -1.47769E+04  5.06740E+03 -1.51935E+04 -5.81623E+03
 -9.23104E+03 -1.83975E+04  5.06496E+03 -2.06669E+04  1.29747E+04 -1.55215E+04  1.58102E+04 -1.28436E+03
  1.00463E+04  1.30485E+04 -9.16571E+02  1.75967E+04 -1.21193E+04  8.88453E+03 -1.61739E+04 -3.07030E+03
 -1.44921E+04 -1.65062E+04 -1.90074E+03 -2.18687E+04  8.96434E+03 -1.69439E+04  1.78488E+04 -8.58293E+03
  1.71625E+04  5.66073E+02  1.13789E+04  4.90158E+03  6.31930E+03  1.41410E+03  8.71649E+03 -1.33775E+03
  1.65515E+04  1.97236E+03  1.75202E+04  1.37984E+04  1.07750E+04  2.85787E+04 -1.82528E+03  2.96348E+04
 -1.80768E+04  2.48903E+04 -2.78656E+04  1.19432E+04 -3.00030E+04 -1.98886E+03 -2.53774E+04 -1.67404E+04
 -1.12635E+04 -2.42375E+04  8.38689E+03 -2.22474E+04  1.93934E+04 -1.24152E+04  1.85547E+04  2.81320E+03
  6.94022E+03  1.36449E+04 -8.58105E+03  1.13861E+04 -1.35621E+04  3.00485E+03 -1.11904E+04 -9.56799E+03
 -1.80820E+03 -1.45611E+04  6.25245E+03 -1.04907E+04  9.29182E+03 -1.30313E+03  2.05902E+03  5.64823E+03
 -6.13933E+03  2.92907E+03 -5.62403E+03 -5.15409E+03  2.61794E+02 -1.17826E+04  1.01074E+04 -1.22830E+04
  1.39693E+04 -7.46230E+03  1.46543E+04  1.69967E+03  1.28242E+04  9.47309E+03  5.96068E+03  1.82247E+04
 -2.85075E+03  1.96571E+04 -1.13656E+04  1.21594E+04 -1.40298E+04  2.94004E+03 -9.41967E+03 -3.45516E+03
 -5.74169E+03 -3.84408E+03 -1.62354E+03  2.04456E+03 -2.12717E+03  3.68884E+03 -4.14169E+03  3.73265E+03
 -8.79293E+03 -2.49132E+02 -9.83210E+03 -8.03558E+03 -4.31890E+03 -1.35893E+04  5.12761E+03 -9.73656E+03
  7.58584E+03 -3.32470E+03  6.07707E+03  2.65634E+03  1.23590E+02  2.53284E+03 -3.46216E+03 -7.67768E+02
 -3.73344E+03 -5.88693E+03 -1.01620E+03 -8.55263E+03  5.43776E+03 -9.37780E+03  1.23649E+04 -5.50945E+03
  1.43708E+04  1.39679E+03  1.04538E+04  7.31758E+03  2.41363E+03  1.02221E+04 -6.50021E+03  1.06439E+04
 -7.71651E+03  2.31826E+03 -2.75133E+03 -1.47358E+03  1.58767E+03 -2.95736E+03  7.45186E+03 -7.76926E+02
  3.94991E+03  4.21127E+03  9.10698E+02  6.87359E+03 -6.33040E+03  7.19252E+03 -9.54111E+03  1.81205E+03
 -5.17574E+03 -5.01862E+03  1.05929E+02 -7.57975E+03  4.30466E+03 -5.08519E+03  4.87860E+03  1.42124E+03
  8.18571E+02  5.10778E+03 -5.95738E+03  5.36524E+03 -6.64108E+03  2.30797E+03 -7.23944E+03 -1.96393E+03
 -3.99596E+03 -8.28802E+03  2.22091E+03 -8.97063E+03  8.12254E+03 -6.80364E+03  9.53373E+03  1.28123E+03
  6.51292E+03  6.96967E+03 -1.81905E+02  1.01594E+04 -7.11168E+03  4.78345E+03 -5.97256E+03 -1.21349E+03
 -6.87040E+03 -6.90769E+03 -1.24755E+03 -6.69052E+03  2.47404E+03 -6.46491E+03  2.90499E+03 -3.22051E+03
  3.86337E+03  2.77751E+02  3.02879E+02  3.11230E+02  2.76731E+02 -4.38820E+02  5.30566E+02 -3.90907E+03
  3.96848E+03 -1.96943E+03  7.09662E+03  1.07673E+03  8.24087E+03  4.66470E+03  5.68094E+03  9.74073E+03
 -2.23792E+03  1.09300E+04 -9.85281E+03  9.53036E+03 -1.21971E+04  1.34049E+03 -1.08592E+04 -4.06623E+03
 -4.64759E+03 -9.31712E+03 -1.97331E+03 -6.41733E+03  3.52560E+03 -2.80926E+03  3.14517E+03 -2.77955E+03
  2.67952E+03 -1.97719E+03  2.79620E+03 -2.79132E+03  3.85004E+03 -2.47285E+03  4.34244E+03 -6.02757E+02
  6.97140E+03  1.63333E+02  1.73724E+03  3.64926E+03 -2.53832E+03  5.13408E+03 -5.79671E+03  3.85118E+03
 -6.55457E+03 -1.27578E+03 -2.30003E+03 -3.50872E+03  3.18420E+02 -6.96648E+03  3.94037E+03 -7.64292E+03
  7.30723E+03 -4.57101E+03  7.76833E+03  1.01617E+03  5.10732E+03  6.27960E+03  1.33541E+03  7.55511E+03
 -3.31834E+03  7.33735E+03 -4.42847E+03  2.14202E+03 -2.88913E+03 -1.93573E+03 -8.59778E+02 -9.09682E+02
 -1.11612E+03 -7.93771E+02  5.39873E+01  3.25646E+03 -2.07388E+03  1.26948E+03 -4.78258E+03 -1.24045E+02
 -2.38459E+03 -5.73110E+03  2.61106E+02 -5.91811E+03  3.76662E+03 -4.98417E+03  5.69997E+03 -1.91094E+03
  5.86097E+03  3.91783E+03  2.45910E+03  5.04546E+03 -1.36039E+03  6.23902E+03 -3.91570E+03  3.50304E+03
 -5.75730E+03  8.41229E+02 -4.81776E+03 -4.03710E+03  1.37460E+02 -3.55193E+03  2.80346E+03 -2.88579E+03
  3.77032E+03 -2.21929E+03  2.94832E+03  6.49025E+02  1.49011E+03  1.92441E+03  1.28407E+03  6.73805E+02
  1.99412E+03  5.39055E+02  1.24340E+03  1.33244E+03  1.61272E+03  2.65692E+03  2.51865E+03  2.34216E+03
 -1.38177E+03  5.16761E+03 -4.25534E+03  5.09736E+03 -5.40074E+03  1.37992E+03 -5.89387E+03 -1.14507E+03
 -2.94526E+03 -4.43383E+03  6.90040E+02 -6.94414E+03  2.49466E+03 -4.30244E+03  3.47376E+03 -1.70073E+03
  3.30239E+03  1.62096E+03  5.20179E+01  3.20616E+03 -2.18586E+03  1.96268E+03 -1.93967E+03 -6.63263E+02
 -1.23432E+03 -1.21642E+03  2.15288E+03 -2.45005E+03  2.40884E+03 -1.57236E+03  1.80389E+03  1.06846E+03
  1.41443E+03  1.57062E+03  1.05067E+03  3.78879E+02 -1.30250E+02  1.00866E+03  1.13647E+03 -7.86038E+02
  6.04368E+02  8.14102E+01  3.34879E+03  1.65743E+03  4.37773E+02  3.72961E+03 -7.12367E+02  3.90435E+03
 -2.06457E+03  2.18638E+03 -3.17262E+03  5.17011E+02 -3.15219E+03 -1.68419E+03 -5.56903E+02 -2.09740E+03
  1.13331E+03 -2.08400E+03  1.58923E+03 -5.79469E+02  1.36197E+03  1.39754E+03 -5.44082E+02  1.68866E+03
 -3.38262E+03  1.27448E+03 -1.90499E+03 -1.54182E+03 -2.04503E+03 -3.50943E+03  1.48191E+02 -1.76466E+03
  6.18845E+02 -1.28178E+03  1.89128E+03  6.53825E+02  2.60429E+03  1.73152E+02  4.07212E+02  1.81857E+03
 -7.73370E+02 -2.42462E+02 -5.41703E+02 -2.85165E+02  3.86924E+02 -2.51601E+03  2.86644E+03 -2.81398E+03
  1.72952E+03 -3.08313E+02  4.21235E+03  1.35158E+03  2.22851E+03  3.36637E+03 -2.14657E+03  2.08243E+03
 -1.90611E+03  1.98208E+03 -2.33378E+03 -1.28159E+03 -1.55548E+03 -1.62190E+03  5.61877E+02 -2.08702E+03
  2.70318E+03 -1.49361E+03  2.09386E+03  1.11408E+03  3.57619E+02  1.23597E+03 -2.01723E+02  1.47176E+03
 -1.50180E+03  4.70304E+02 -1.63750E+03 -5.24280E+02 -2.69547E+02  1.14698E+02 -9.00555E+02 -9.55921E+02
 -1.58956E+03  1.31611E+03 -2.79857E+03 -7.10975E+01 -2.27539E+03  1.81992E+02 -3.97247E+03 -2.40193E+03
 -2.85493E+01 -3.64690E+03  8.25378E+02 -4.81664E+03  2.39520E+03 -2.74958E+03  3.98447E+03 -8.87997E+02
  4.46703E+03  2.84494E+02  1.87005E+03  1.53848E+03 -8.31854E+02  3.25418E+03 -1.71064E+03  1.21917E+03
 -4.68575E+02  2.02552E+03 -1.09725E+03 -1.04569E+03  3.34830E+02 -4.66889E+02 -1.20617E+02 -8.60577E+02
 -1.58341E+03 -3.98930E+02 -8.11511E+02  4.58531E+02  5.92167E+02 -6.76941E+02 -1.45286E+03 -2.21050E+03
  1.54809E+03 -1.47264E+03  1.23111E+03  1.87737E+02  1.38205E+03  7.10706E+02  1.78360E+02  1.96468E+03
 -5.20416E+02  4.10983E+03 -2.70446E+03  3.17649E+03 -3.43874E+03 -3.95064E+02 -1.34873E+03 -8.80023E+02
 -2.13766E+03 -2.50584E+03  2.91748E+02 -1.46666E+03  2.38390E+03 -4.49367E+02  1.40899E+03  2.55380E+02
  1.51852E+03  1.05919E+03  3.65421E+02  1.24861E+03 -3.40333E+02  6.32274E+02  7.53744E+01 -2.71334E+02
  5.74179E+02 -3.06433E+02 -1.21004E+02 -2.44461E+00 -1.38720E+02  4.81971E+02 -6.24610E+02  1.48512E+03
 -7.83595E+02  1.20758E+03 -3.68982E+02 -9.83425E+02 -1.61690E+03 -4.97968E+02  4.76610E+02 -1.90455E+03
  2.67704E+02 -1.94822E+03  8.96176E+02  3.58318E+02  1.35862E+03 -2.80585E+02  8.74635E+02  1.30790E+03
  4.67936E+02  1.21517E+03  3.78634E+02  9.80193E+01 -1.43832E+03  1.25165E+02 -1.26770E+03 -2.53042E+02
  1.38378E+03 -1.13215E+03  2.26780E+02  1.37384E+02 -1.78155E+03  3.16432E+02 -1.48509E+03 -7.78577E+02
 -1.14684E+03  7.17433E+02 -3.67683E+02 -1.01230E+03  6.33092E+02 -2.16626E+03  9.18871E+02 -5.70732E+02
  1.63129E+03  8.18581E+01  1.12416E+03  5.85809E+02 -2.33471E+02  2.29249E+03 -7.68236E+02  1.66393E+03
