 $NMID ID='MM_0lb_SNR200_18hz_g55_90.RAW', FMTDAT='(8E13.5)'
 TRAMP=1., VOLUME=1. $END
  3.09743E+05  1.08198E+03  3.37103E+05  2.50492E+05  8.44247E+04  3.38220E+05 -1.32288E+05  2.50796E+05
 -1.90492E+05  8.24894E+04 -1.10921E+05 -3.22360E+04  6.84199E+02 -5.04763E+04  5.39237E+04  3.18125E+02
  3.50715E+04  5.27788E+04 -1.78149E+04  7.47965E+04 -6.12895E+04  6.25243E+04 -8.28763E+04  3.14879E+04
 -8.10336E+04 -1.16419E+04 -5.71102E+04 -5.02932E+04 -1.51467E+04 -6.94462E+04  2.70393E+04 -4.57820E+04
  3.94002E+04  4.06439E+03  1.57166E+04  4.81866E+04 -3.46389E+04  4.70782E+04 -6.61424E+04 -1.08698E+03
 -5.28496E+04 -5.65164E+04 -6.57604E+03 -7.55162E+04  3.39658E+04 -5.42326E+04  4.67352E+04 -1.60558E+04
  4.25454E+04  1.05690E+04  2.96959E+04  2.61828E+04  1.57436E+04  2.79730E+04 -5.44218E+03  2.61799E+04
 -2.13851E+04  1.24856E+04 -1.85726E+04 -4.19102E+03  5.27677E+03 -7.06887E+03  2.15613E+04  1.08980E+04
  7.38788E+03  3.38409E+04 -3.18302E+04  3.57252E+04 -6.26958E+04  1.86311E+03 -5.64923E+04 -4.20679E+04
 -1.17370E+04 -6.14514E+04  3.89338E+04 -4.36590E+04  5.69147E+04 -1.86013E+03  3.30244E+04  3.17342E+04
 -6.62388E+03  3.27147E+04 -2.87628E+04  1.50131E+04 -2.78650E+04 -4.55036E+03 -1.50350E+04 -1.04853E+04
 -7.72588E+03 -1.27900E+04 -1.39277E+03 -1.75530E+04  7.93126E+03 -2.47295E+04  1.42846E+04 -1.39782E+04
  1.28185E+04  4.48915E+03 -6.89853E+03  1.40051E+04 -1.95543E+04 -2.28002E+03 -8.41073E+03 -3.22408E+04
  2.20222E+04 -4.26462E+04  4.64053E+04 -1.89689E+04  4.33015E+04  1.79491E+04  1.48396E+04  4.26423E+04
 -1.51938E+04  3.23892E+04 -2.36049E+04  8.71055E+02 -8.18624E+03 -2.73881E+04  1.99615E+04 -3.23364E+04
  3.99427E+04 -8.31877E+03  3.30250E+04  2.31432E+04  1.63135E+04  4.46692E+04 -7.92441E+03  4.69313E+04
 -2.89873E+04  3.09155E+04 -3.92852E+04  9.31672E+03 -4.02597E+04 -1.47837E+04 -2.28242E+04 -3.62178E+04
  7.07535E+03 -3.43963E+04  3.02781E+04 -1.26877E+04  2.73153E+04  1.09582E+04  3.44860E+03  1.88958E+04
 -1.38404E+04  8.08645E+03 -1.14382E+04 -7.06212E+03  6.05453E+03 -1.19205E+04  1.69328E+04  6.31891E+03
  1.31570E+04  2.11602E+04 -6.14588E+03  2.40131E+04 -2.21512E+04  1.03527E+04 -2.55556E+04 -5.18876E+03
 -1.87059E+04 -1.74005E+04 -6.81350E+03 -1.86508E+04  2.71988E+03 -1.68159E+04  1.47814E+04 -1.49946E+04
  2.39142E+04 -1.28536E+04  2.92548E+04  2.97079E+03  2.28141E+04  1.78614E+04  3.83721E+03  3.39331E+04
 -1.68701E+04  2.81384E+04 -2.60078E+04  1.07520E+04 -2.04244E+04 -1.04004E+04 -4.48392E+03 -1.45072E+04
  2.36718E+03 -4.10411E+03 -3.18194E+03  6.39108E+03 -1.44317E+04  5.74501E+03 -1.40403E+04 -4.73370E+03
 -9.32844E+03 -1.64029E+04  4.31654E+03 -2.03054E+04  1.31478E+04 -1.36618E+04  1.54603E+04 -2.42780E+03
  1.08323E+04  1.06281E+04  3.06984E+02  1.57450E+04 -1.05754E+04  1.03956E+04 -1.64874E+04 -3.86925E+03
 -1.21622E+04 -1.52121E+04 -2.34434E+03 -2.06871E+04  8.83088E+03 -1.63925E+04  1.76588E+04 -7.74661E+03
  1.65075E+04  2.27096E+02  1.15304E+04  5.49634E+03  5.84720E+03 -2.47306E+01  7.45552E+03 -2.04356E+03
  1.48569E+04  2.13784E+03  1.62179E+04  1.25369E+04  1.05037E+04  2.65939E+04 -3.66526E+03  2.79416E+04
 -1.72327E+04  2.14934E+04 -2.68330E+04  1.16087E+04 -2.72510E+04 -2.17319E+03 -2.32295E+04 -1.74293E+04
 -1.03649E+04 -2.21385E+04  7.17329E+03 -2.09899E+04  1.73694E+04 -1.09899E+04  1.72140E+04  4.73985E+03
  7.96497E+03  1.18943E+04 -7.43572E+03  1.08962E+04 -1.36055E+04  1.45780E+03 -1.10597E+04 -7.31637E+03
  3.29386E+02 -1.39866E+04  7.62734E+03 -1.08984E+04  9.32560E+03 -1.65661E+03  1.44210E+03  5.53907E+03
 -6.37891E+03  1.65521E+03 -4.55982E+03 -5.40102E+03  2.90340E+02 -1.18260E+04  8.40242E+03 -1.08805E+04
  1.31599E+04 -5.54026E+03  1.29641E+04  1.86368E+03  1.11498E+04  1.00710E+04  6.57529E+03  1.57640E+04
 -2.36380E+03  1.65730E+04 -1.17562E+04  1.08354E+04 -1.28831E+04  2.90619E+03 -9.22921E+03 -2.55463E+03
 -4.15973E+03 -3.29419E+03 -1.36050E+03  1.20567E+03 -2.05651E+03  2.88824E+03 -3.07896E+03  3.69097E+03
 -9.00442E+03 -1.24219E+03 -9.17077E+03 -8.28296E+03 -4.36033E+03 -1.22335E+04  3.42931E+03 -9.67411E+03
  8.48647E+03 -4.04151E+03  5.40973E+03  4.00261E+03  1.01980E+03  3.96433E+03 -3.68365E+03  5.19376E+02
 -3.72909E+03 -5.80258E+03 -6.17150E+02 -7.96305E+03  4.78058E+03 -8.84022E+03  1.00028E+04 -4.88908E+03
  1.19506E+04  9.76234E+02  1.05366E+04  6.37238E+03  2.32866E+03  9.28018E+03 -6.19193E+03  9.97944E+03
 -7.94225E+03  2.81426E+03 -4.29877E+03 -5.75228E+02  1.98789E+03 -2.21965E+03  4.88184E+03 -6.61095E+02
  4.21003E+03  2.94422E+03  1.28115E+03  6.33474E+03 -5.71890E+03  6.09877E+03 -8.23970E+03  1.10587E+03
 -5.38800E+03 -2.54537E+03 -1.08022E+01 -7.50086E+03  5.64398E+03 -4.64273E+03  3.24917E+03  2.53583E+02
  1.37843E+03  3.96872E+03 -3.65273E+03  5.81272E+03 -5.77030E+03  2.75078E+03 -4.71932E+03 -2.45512E+03
 -3.00794E+03 -5.01362E+03  1.26798E+03 -7.31182E+03  7.91671E+03 -5.13817E+03  7.30912E+03  6.49568E+02
  4.04172E+03  4.67190E+03  1.80748E+01  7.04071E+03 -5.45390E+03  4.45676E+03 -5.49291E+03 -1.41723E+03
 -6.11125E+03 -5.99839E+03 -1.18822E+03 -4.97629E+03  4.25051E+03 -5.08856E+03  3.58044E+03 -3.28093E+03
  3.89841E+03 -4.96032E+02  6.47948E+01  5.51903E+02  1.14976E+03 -1.57965E+03  1.87680E+02 -9.59204E+02
  4.95795E+03 -1.22320E+03  5.33194E+03  4.54382E+02  5.37035E+03  3.87753E+03  5.52470E+03  8.82893E+03
 -5.74105E+02  9.30700E+03 -8.14785E+03  7.01384E+03 -1.08359E+04  4.80483E+02 -9.03158E+03 -3.62862E+03
 -4.35704E+03 -7.06161E+03 -8.32217E+02 -5.86964E+03  2.65732E+03 -2.74407E+03  2.01678E+03 -2.52733E+03
  1.90862E+03 -1.41362E+03  1.75060E+03 -3.37215E+03  3.42838E+03 -1.84323E+03  4.25561E+03  1.06033E+00
  5.48850E+03  1.94426E+03  1.66267E+03  3.70119E+03 -1.88502E+03  2.89982E+03 -3.53603E+03  2.16798E+03
 -5.51049E+03 -2.00810E+03 -2.63179E+03 -4.86896E+03  1.78003E+02 -5.31493E+03  3.04698E+03 -4.40489E+03
  5.58955E+03 -3.85118E+03  6.28260E+03  1.05937E+03  5.62576E+03  4.14288E+03  1.02084E+03  6.92177E+03
 -2.32788E+03  6.28154E+03 -4.31162E+03  1.67409E+03 -1.98501E+03 -1.92914E+03 -8.60075E+01 -3.59017E+02
 -8.42433E+02  4.83292E+02 -3.90858E+02  2.39780E+03 -2.02075E+03  2.92949E+02 -4.14286E+03 -7.48489E+02
 -2.40017E+03 -3.66086E+03  8.99918E+02 -4.55532E+03  2.26571E+03 -4.02662E+03  4.80887E+03 -1.42331E+03
  4.76310E+03  1.83316E+03  1.84707E+03  4.19101E+03 -3.39283E+01  5.84093E+03 -3.38610E+03  2.45343E+03
 -3.82378E+03  2.25588E+02 -3.85993E+03 -2.19524E+03  3.52611E+02 -2.75449E+03  1.31322E+03 -3.16701E+03
  2.54691E+03 -2.33694E+03  1.32803E+03  1.55939E+03 -3.94251E+02  2.34988E+03  1.35750E+03  6.33120E+02
  2.59504E+03  1.08319E+03  2.32160E+03  1.82659E+03  2.01680E+03  2.30298E+03  1.85691E+03  1.87772E+03
 -8.57706E+02  3.72988E+03 -2.88967E+03  3.57507E+03 -3.56546E+03  1.85711E+03 -4.41393E+03 -8.18885E+02
 -1.63620E+03 -3.72617E+03  3.71221E+02 -4.88061E+03  2.31950E+03 -3.02108E+03  2.79586E+03 -4.68576E+02
  3.23041E+03  1.81902E+03 -8.25377E+02  3.29299E+03 -3.70147E+02  1.74473E+03 -1.47054E+03 -6.49635E+02
  4.81498E+02 -1.71911E+03  9.16100E+02 -5.96677E+02  1.94846E+03 -1.39549E+03  1.43403E+03  6.01530E+02
  1.08842E+03 -2.18752E+02  8.59888E+02  4.09221E+02 -5.93316E+02  1.39821E+03  1.17452E+03 -4.68586E+02
  1.46744E+02 -4.99609E+02  2.56122E+03  4.65128E+02  6.27370E+02  3.38002E+03 -7.10014E+02  2.44803E+03
 -1.31149E+03  1.51329E+03 -2.99128E+03 -5.86797E+02 -3.04478E+03 -1.61824E+03  5.57486E+02 -7.20318E+02
 -5.03328E+02 -6.64019E+02  4.31651E+02 -6.06629E+02  6.44814E+02 -3.11397E+02 -9.47811E+02  1.82676E+03
 -1.41465E+03  1.23975E+03 -6.37203E+02 -1.47801E+03 -1.27169E+03 -2.62818E+03 -6.99741E+02 -1.47205E+03
  5.29658E+02 -3.73312E+02  3.19280E+02  5.77160E+02  2.16418E+03  4.91550E+02  4.74202E+02  1.52842E+03
 -2.76113E+02  7.98918E+02 -1.42508E+03 -1.09995E+03 -5.81786E+02 -2.23877E+03  1.42955E+03 -1.82529E+03
  1.60046E+03  7.15469E+01  3.50551E+03 -3.37101E+01  7.17421E+02  1.04608E+03 -5.07174E+02  1.27606E+03
 -2.65017E+02 -6.69735E+02 -1.84851E+03 -2.92328E+02  6.30619E+01 -2.04408E+03  5.13790E+02 -9.43597E+02
  5.40151E+02 -1.48553E+03  1.14507E+03  2.25905E+03  9.97204E+02  2.00503E+03  2.22706E+02  7.04993E+02
 -2.13024E+01  1.63499E+03 -1.13274E+01  5.13518E+02  9.26633E+01  3.56420E+02 -1.04690E+03  1.57900E+03
 -1.16462E+03  8.50025E+02 -2.68833E+03  5.72935E+02 -2.21863E+03  2.09937E+02 -1.80398E+03 -1.18752E+03
 -1.32193E+03 -1.94200E+03 -1.67073E+02 -3.33589E+03  6.67223E+02 -2.06500E+03  2.81504E+03 -3.77300E+02
  2.29718E+03 -1.70112E+02  1.14455E+03  2.32980E+03  2.92100E+02  1.69753E+03 -1.39985E+03 -2.28883E+02
 -1.34875E+03 -3.95560E+02 -1.91457E+03 -6.06445E+02 -2.10309E+02 -6.80395E+01 -8.35579E+02  1.40471E+03
 -4.12673E+02 -7.25173E+01  1.00642E+02 -1.13566E+03  4.65284E+02 -6.42656E+02 -1.01034E+03 -6.61221E+02
  1.64486E+03 -9.41344E+02  1.07714E+03  9.79077E+01  1.54348E+03  1.53955E+03  1.92263E+01  1.02145E+03
 -1.31573E+03  2.71072E+03 -1.34349E+03  1.73465E+03 -2.15475E+03 -3.79055E+02 -1.86397E+03 -1.39650E+03
 -8.55996E+02  2.30012E+01 -1.27782E+02 -1.19713E+03  8.86922E+02 -1.13455E+03  1.17314E+03 -4.49115E+02
  1.55652E+03 -5.02116E+02 -9.36705E+02  1.01032E+02 -5.39901E+02 -1.23153E+03 -9.19614E+02 -9.75144E+01
  4.20364E+02  8.49095E+02 -3.55850E+01  7.96887E+02 -2.67673E+02  1.18111E+03  1.13570E+03 -6.35366E+02
 -5.19320E+02  1.27134E+03 -1.04218E+03 -3.24589E+02 -1.15376E+03  5.45156E+02  5.55223E+02 -1.60564E+03
 -4.20350E+02 -9.43642E+02 -3.22008E+02 -7.69663E+02  4.63119E+02 -5.47312E+02  1.69030E+03  6.85037E+02
  7.20371E+02  1.57039E+03 -7.18889E+02  1.42999E+03 -1.40824E+03  1.13891E+03 -7.07234E+02 -1.14777E+02
  1.06072E+02  2.27658E+02 -4.99796E+02 -2.26783E+02 -1.11165E+03 -3.96315E+02 -6.12720E+01 -4.86311E+02
 -1.29767E+03  3.52540E+02 -1.45418E+02 -5.59518E+02  9.11495E+02 -1.53299E+03  1.65733E+03 -4.00395E+02
  1.22757E+03  3.51891E+02  8.06843E+02 -7.30781E+01 -8.43843E+02  9.44965E+02 -1.51482E+02  1.03747E+03
