 $NMID ID='MM_0lb_SNR200_18hz_g55_4.RAW', FMTDAT='(8E13.5)'
 TRAMP=1., VOLUME=1. $END
  3.10491E+05 -1.60794E+02  3.37518E+05  2.50041E+05  8.39703E+04  3.38184E+05 -1.31576E+05  2.51374E+05
 -1.89868E+05  8.34738E+04 -1.10864E+05 -3.14665E+04  1.69578E+03 -5.07120E+04  5.38480E+04  1.74926E+02
  3.48812E+04  5.22689E+04 -1.61050E+04  7.49826E+04 -6.17106E+04  6.30514E+04 -8.42693E+04  3.07542E+04
 -8.09604E+04 -1.11669E+04 -5.74099E+04 -5.01977E+04 -1.48357E+04 -6.91516E+04  2.74121E+04 -4.59339E+04
  3.88200E+04  4.01212E+03  1.60811E+04  4.83783E+04 -3.52531E+04  4.58210E+04 -6.54142E+04 -1.04561E+03
 -5.17701E+04 -5.68360E+04 -6.99845E+03 -7.64580E+04  3.40912E+04 -5.42058E+04  4.57488E+04 -1.68644E+04
  4.18823E+04  1.24062E+04  3.00062E+04  2.50346E+04  1.66066E+04  2.85561E+04 -6.36962E+03  2.74052E+04
 -2.12890E+04  1.20483E+04 -1.88681E+04 -3.50503E+03  4.20536E+03 -6.89253E+03  2.21066E+04  1.15571E+04
  7.66136E+03  3.36544E+04 -3.12327E+04  3.52496E+04 -6.12038E+04  1.88002E+03 -5.73741E+04 -4.11807E+04
 -1.26210E+04 -6.12519E+04  3.86345E+04 -4.54242E+04  5.54135E+04 -2.98639E+03  3.31116E+04  3.03367E+04
 -6.66917E+03  3.51159E+04 -2.97810E+04  1.46111E+04 -2.87680E+04 -4.61291E+03 -1.49248E+04 -1.13999E+04
 -7.44599E+03 -1.24783E+04 -6.52777E+02 -1.76205E+04  7.29634E+03 -2.23904E+04  1.54323E+04 -1.42547E+04
  1.06463E+04  4.22751E+03 -5.92722E+03  1.31313E+04 -2.10737E+04 -3.98970E+03 -9.05044E+03 -3.16135E+04
  2.10945E+04 -4.13327E+04  4.49138E+04 -1.97983E+04  4.36872E+04  1.86137E+04  1.51227E+04  4.21261E+04
 -1.52231E+04  3.19978E+04 -2.48732E+04  1.57608E+03 -8.70152E+03 -2.64534E+04  2.07545E+04 -3.17492E+04
  3.96189E+04 -8.14069E+03  3.18047E+04  2.26431E+04  1.55238E+04  4.42677E+04 -7.17301E+03  4.77590E+04
 -3.01136E+04  3.22399E+04 -3.95176E+04  8.37616E+03 -3.93769E+04 -1.59324E+04 -2.21563E+04 -3.51999E+04
  6.43732E+03 -3.53009E+04  2.97929E+04 -1.30562E+04  2.89046E+04  1.01154E+04  2.20094E+03  1.79710E+04
 -1.28170E+04  7.01204E+03 -1.06987E+04 -6.69521E+03  5.93189E+03 -1.12642E+04  1.78357E+04  5.14245E+03
  1.22813E+04  2.10432E+04 -6.35792E+03  2.45494E+04 -2.03089E+04  1.04930E+04 -2.61691E+04 -6.85032E+03
 -1.82732E+04 -1.77583E+04 -6.52950E+03 -1.93889E+04  5.24287E+03 -1.65586E+04  1.36578E+04 -1.58171E+04
  2.35627E+04 -1.23216E+04  2.98038E+04  2.88680E+03  2.11411E+04  1.88693E+04  3.66848E+03  3.40145E+04
 -1.68289E+04  2.84424E+04 -2.56762E+04  9.13910E+03 -2.08869E+04 -1.03500E+04 -4.10050E+03 -1.46192E+04
  1.65265E+03 -3.88887E+03 -4.20696E+03  5.85354E+03 -1.39707E+04  4.82809E+03 -1.35551E+04 -5.54630E+03
 -8.90809E+03 -1.70070E+04  5.28262E+03 -2.05670E+04  1.37931E+04 -1.48391E+04  1.56746E+04 -1.03985E+03
  9.78200E+03  1.30942E+04 -7.82661E+02  1.61774E+04 -1.16147E+04  8.57073E+03 -1.69712E+04 -3.47308E+03
 -1.11720E+04 -1.42370E+04 -1.34894E+03 -2.01837E+04  8.39716E+03 -1.62256E+04  1.80141E+04 -8.63841E+03
  1.48500E+04  5.10750E+02  1.15560E+04  3.33187E+03  6.94320E+03  9.03714E+02  8.27749E+03 -1.11072E+03
  1.56363E+04  2.69917E+03  1.62728E+04  1.40871E+04  9.66246E+03  2.70095E+04 -2.62262E+03  2.89346E+04
 -1.67146E+04  2.17500E+04 -2.63298E+04  1.00688E+04 -2.89746E+04 -5.31728E+02 -2.35456E+04 -1.51509E+04
 -1.00413E+04 -2.29295E+04  7.69444E+03 -2.22734E+04  1.77223E+04 -1.05771E+04  1.59590E+04  3.76151E+03
  6.35347E+03  1.18043E+04 -7.59207E+03  1.17810E+04 -1.48071E+04  1.86406E+03 -1.10122E+04 -7.54265E+03
  5.72019E+02 -1.37294E+04  5.96064E+03 -9.46701E+03  7.62622E+03 -5.45648E+02  9.17866E+02  4.90695E+03
 -5.44560E+03  1.71764E+03 -4.20842E+03 -5.09487E+03 -4.22277E+02 -1.12511E+04  8.10692E+03 -1.19472E+04
  1.28561E+04 -4.87510E+03  1.32826E+04  3.22376E+03  1.13353E+04  9.64534E+03  5.00796E+03  1.43010E+04
 -8.82225E+02  1.73248E+04 -1.06191E+04  1.01524E+04 -1.18608E+04  4.03372E+03 -1.02267E+04 -2.45723E+03
 -5.12658E+03 -3.42723E+03 -4.84341E+02  1.08626E+03 -1.76564E+03  1.27717E+03 -4.48639E+03  2.93599E+03
 -7.82301E+03  4.47588E+02 -9.37876E+03 -6.62827E+03 -3.07620E+03 -1.24185E+04  3.28933E+03 -9.02081E+03
  7.13426E+03 -3.89269E+03  4.88069E+03  2.48134E+03  1.03058E+03  3.94885E+03 -4.23841E+03  4.22000E+02
 -4.16167E+03 -6.44494E+03 -9.15224E+02 -6.87429E+03  4.22082E+03 -8.11125E+03  1.12528E+04 -4.74536E+03
  1.28844E+04  1.22131E+03  9.68883E+03  6.94642E+03  2.17953E+03  8.90224E+03 -6.45677E+03  8.19833E+03
 -8.53952E+03  2.41490E+03 -3.16568E+03 -1.91112E+03  1.22879E+03 -2.35361E+03  5.52539E+03 -9.12950E+02
  4.49292E+03  2.89161E+03  1.66455E+03  5.95391E+03 -4.63619E+03  6.69145E+03 -8.16467E+03  1.68127E+03
 -6.08964E+03 -4.69106E+03 -9.76569E+02 -7.24595E+03  3.70071E+03 -3.63014E+03  4.76662E+03  1.57138E+03
  1.19372E+02  3.74596E+03 -4.66782E+03  5.07929E+03 -4.91293E+03  3.48309E+03 -4.80884E+03 -1.68807E+03
 -3.71547E+03 -6.41894E+03  5.78674E+02 -7.55492E+03  6.12380E+03 -5.38753E+03  8.40379E+03  1.02149E+03
  4.51750E+03  5.50899E+03 -1.02509E+01  7.02842E+03 -4.32750E+03  3.85155E+03 -5.74193E+03 -1.43377E+02
 -5.90063E+03 -6.37524E+03 -7.41170E+02 -6.05922E+03  2.97425E+03 -5.88255E+03  4.00044E+03 -2.82326E+03
  2.43602E+03 -3.06434E+02  1.19263E+03  1.06623E+03  1.23798E+03 -1.27848E+03  3.18118E+02 -3.47301E+03
  5.45411E+03 -1.45527E+03  6.24311E+03  8.70114E+02  5.86407E+03  3.23361E+03  5.60239E+03  8.47213E+03
 -1.30928E+03  8.49979E+03 -8.41477E+03  7.33593E+03 -1.12533E+04  7.03340E+02 -8.24412E+03 -3.12609E+03
 -4.93923E+03 -6.50463E+03 -7.41764E+02 -5.96483E+03  2.16149E+03 -2.61197E+03  2.62214E+03 -2.62521E+03
  1.60940E+03 -1.22478E+03  3.15145E+03 -2.71851E+03  3.80253E+03 -1.77378E+03  3.32441E+03 -6.10487E+02
  4.25575E+03  5.33449E+02  5.14537E+02  1.86419E+03 -1.31796E+03  2.21178E+03 -4.51287E+03  2.97563E+03
 -5.83947E+03 -1.21558E+03 -2.72555E+03 -5.12613E+03  9.75265E+02 -5.77294E+03  3.99878E+03 -7.29564E+03
  4.60808E+03 -2.94704E+03  6.52587E+03 -6.98349E+02  4.80424E+03  5.00606E+03  7.18637E+02  7.10140E+03
 -3.00960E+03  6.75930E+03 -3.23670E+03  2.20620E+03 -1.54904E+03 -1.43115E+03  1.71985E+01  7.23446E+02
 -4.82161E+02  1.59127E+02 -1.12406E+01  1.57916E+03 -2.73229E+03  1.61975E+03 -4.73188E+03 -7.32976E+02
 -6.36447E+02 -4.40329E+03  1.69266E+03 -4.99503E+03  3.47716E+03 -4.50107E+03  4.16832E+03 -1.88882E+03
  3.90841E+03  2.18164E+03  1.55075E+03  3.67581E+03 -1.12865E+03  6.25561E+03 -2.44742E+03  3.76931E+03
 -4.50613E+03  1.25676E+03 -4.16065E+03 -2.90478E+03 -1.32071E+03 -3.44902E+03  1.75295E+03 -2.21163E+03
  1.85274E+03 -2.02984E+03  2.06581E+03  1.63636E+03  4.87169E+02  1.56167E+03  1.09699E+03  1.32457E+03
  8.46398E+02  2.42067E+02  6.00285E+02  1.10675E+03  1.37512E+03  2.20727E+03  8.91739E+02  1.63430E+03
 -1.35676E+03  3.06850E+03 -2.36400E+03  4.64131E+03 -3.31214E+03  1.66557E+03 -5.41885E+03 -1.80370E+02
 -4.09506E+02 -3.59163E+03  1.27220E+03 -5.38529E+03  1.09796E+03 -2.06146E+03  4.27951E+03 -6.70487E+02
  3.85687E+03  8.39038E+02  2.54615E+02  2.80783E+03 -4.41557E+00  1.40396E+03 -1.05421E+03 -1.40128E+03
 -4.91403E+02 -1.89657E+03  1.63327E+03 -2.39349E+03  1.95923E+03 -7.17210E+02  1.15814E+03 -1.85487E+01
  1.43278E+03  3.31257E+02  1.57848E+03 -1.01423E+02 -7.03525E+01  1.15382E+03  1.48112E+03 -1.03471E+03
 -1.19836E+03 -3.54958E+02  2.10868E+03  8.81945E+02 -1.47442E+02  2.29265E+03 -2.24172E+02  3.55057E+03
 -1.77064E+03  1.29545E+03 -1.89975E+03  9.00362E+01 -1.97812E+03 -5.67789E+02 -1.52305E+03 -2.08848E+03
  5.78499E+02 -4.39537E+02  1.40822E+03 -1.60725E+03  1.52964E+03  1.33821E+03 -1.41618E+03  1.05660E+03
 -1.27523E+03  1.52804E+03 -7.31282E+02 -6.83457E+02 -1.02482E+03 -2.08682E+03  1.98001E+02 -1.68695E+02
  7.62363E+02  1.10141E+02  1.02773E+03  1.20115E+03  1.59165E+03  1.58145E+03  3.61080E+02  1.34701E+03
 -8.19265E+02 -9.00312E+02 -1.18105E+03  1.71864E+02 -6.81897E+01 -1.55503E+02  1.97220E+03 -7.48720E+02
  1.01690E+03  9.21367E+02  2.82071E+03  1.96845E+03  1.94515E+02  2.38461E+03 -1.54816E+02  2.88213E+03
 -1.02239E+03  4.66561E+02 -1.55416E+03 -8.51729E+02 -8.00863E+02 -7.20838E+02 -5.61533E+02  2.46056E+02
  2.03573E+03 -1.22212E+03  1.09242E+03  7.44084E+02  1.80091E+02  1.38189E+03  1.75328E+02  6.56494E+02
 -3.15725E+02  6.35619E+02 -9.78421E+01  8.15050E+02 -7.39409E+02  8.63268E+02 -1.19663E+03  4.00485E+02
 -6.32816E+02  1.31224E+03 -1.04055E+03  8.48096E+02 -1.80748E+03  1.75884E+02 -3.00670E+03 -9.79279E+02
 -8.43200E+02 -3.06797E+03  1.18127E+03 -2.47859E+03  3.20265E+02 -4.08607E+03  3.39973E+03 -1.85989E+03
  3.41466E+03 -5.71388E+02  2.19121E+03  8.16209E+02  1.07313E+02  2.22919E+03  3.98664E+01  2.47252E+03
 -1.23977E+03  1.06989E+03 -2.39270E+02 -1.86601E+02 -5.26144E+02 -6.85406E+02 -1.25294E+03 -5.39359E+02
 -1.82322E+03 -5.70980E+02 -9.85950E+02  2.40309E+02 -3.63101E+01 -4.52246E+02 -1.42493E+03 -1.82095E+03
  7.37312E+02 -1.05012E+03  6.89531E+01  5.72442E+02  6.30918E+02  1.07628E+03  8.87389E+01  2.23649E+03
 -3.93435E+02  1.88336E+03 -1.29902E+03  1.01782E+03 -3.68188E+03  2.21758E+02 -1.52846E+03 -1.44918E+03
 -6.92555E+02 -9.98400E+02  1.06249E+03 -2.43379E+03  7.95082E+02 -1.55532E+03  5.56794E+02  9.94116E+02
  7.70454E+02  3.48202E+02 -1.53544E+02 -1.17224E+02 -3.43096E+02  4.24508E+02  2.92668E+02 -8.93164E+01
 -1.87202E+02 -7.13260E+02 -4.18963E+02  9.13721E+02  1.77809E+03  5.25407E+02  9.94756E+02  2.53100E+02
  6.15746E+02  2.54698E+02  1.49857E+02 -3.88767E+02 -3.13210E+02 -5.49731E+02  4.77916E+02 -2.60525E+03
  1.03423E+03 -4.79076E+02  1.38911E+03 -1.57073E+02  1.15552E+03 -3.89269E+02  8.31021E+02 -3.72381E+02
 -5.11190E+02  6.84838E+02 -1.24135E+02  1.52784E+03  3.59196E+01  1.15489E+03 -4.28046E+02  2.88640E+02
 -3.93581E+02  2.07071E+02 -4.54297E+02  4.92448E+02 -8.49359E+02 -9.23801E+01 -1.11360E+03 -2.85443E+02
 -1.28909E+03  7.80203E+02  4.15422E+01 -8.20950E+02  1.06086E+03 -3.23121E+02  6.01289E+02  8.34381E+01
  2.37406E+03  3.63165E+01 -3.98214E+02  9.54664E+02  4.86234E+02  3.68795E+02 -8.45640E+02  2.05913E+03
