 $NMID ID='MM_0lb_SNR200_17hz_g50_78.RAW', FMTDAT='(8E13.5)'
 TRAMP=1., VOLUME=1. $END
  3.10074E+05  1.39404E+03  3.36954E+05  2.50115E+05  8.53823E+04  3.38363E+05 -1.31786E+05  2.50465E+05
 -1.89250E+05  8.21031E+04 -1.10710E+05 -3.43409E+04  6.62626E+01 -5.02292E+04  5.35872E+04 -2.14757E+00
  3.66360E+04  5.34307E+04 -1.70813E+04  7.56001E+04 -5.87462E+04  6.35551E+04 -8.38087E+04  3.11669E+04
 -8.00479E+04 -1.12308E+04 -5.65584E+04 -5.01701E+04 -1.39580E+04 -6.92714E+04  2.64559E+04 -4.55557E+04
  4.03522E+04  3.84657E+03  1.63692E+04  4.75648E+04 -3.36071E+04  4.68441E+04 -6.66126E+04 -6.51718E+02
 -5.21768E+04 -5.71840E+04 -6.56584E+03 -7.61268E+04  3.29107E+04 -5.38020E+04  4.62849E+04 -1.73375E+04
  4.29645E+04  1.05792E+04  3.07598E+04  2.52784E+04  1.53368E+04  2.81332E+04 -6.89372E+03  2.72467E+04
 -2.32147E+04  1.18924E+04 -1.92114E+04 -4.54177E+03  4.09981E+03 -8.71035E+03  2.13343E+04  1.17587E+04
  8.24340E+03  3.35300E+04 -3.15546E+04  3.43633E+04 -6.03213E+04  2.02995E+03 -5.63020E+04 -4.18378E+04
 -1.28776E+04 -6.19945E+04  3.84362E+04 -4.35918E+04  5.80917E+04 -3.27847E+03  3.21234E+04  3.10769E+04
 -5.82515E+03  3.55945E+04 -2.81368E+04  1.51214E+04 -2.88029E+04 -4.86114E+03 -1.54038E+04 -1.06853E+04
 -7.68951E+03 -1.14232E+04 -1.07945E+03 -1.65888E+04  6.40319E+03 -2.28360E+04  1.40390E+04 -1.23770E+04
  1.24915E+04  5.05072E+03 -6.55638E+03  1.33259E+04 -1.99574E+04 -2.92610E+03 -7.33230E+03 -3.11769E+04
  2.12130E+04 -4.16541E+04  4.52533E+04 -1.88800E+04  4.28964E+04  2.03183E+04  1.43375E+04  4.26603E+04
 -1.57170E+04  3.26492E+04 -2.53438E+04  1.91168E+03 -9.38546E+03 -2.77275E+04  2.12287E+04 -3.25652E+04
  3.94391E+04 -8.29217E+03  3.31534E+04  2.33115E+04  1.72658E+04  4.47320E+04 -7.40283E+03  4.76607E+04
 -3.01295E+04  3.29984E+04 -3.91546E+04  9.76436E+03 -3.89035E+04 -1.54783E+04 -2.20718E+04 -3.51802E+04
  7.44017E+03 -3.56058E+04  3.02366E+04 -1.44720E+04  2.83303E+04  1.04536E+04  3.48674E+03  1.82530E+04
 -1.33773E+04  8.23305E+03 -9.88160E+03 -6.23150E+03  6.51655E+03 -9.96994E+03  1.73669E+04  6.83128E+03
  1.27138E+04  2.17405E+04 -5.54794E+03  2.38730E+04 -2.15818E+04  1.01150E+04 -2.67409E+04 -5.63998E+03
 -1.90589E+04 -1.70011E+04 -7.22527E+03 -1.78725E+04  3.26752E+03 -1.69162E+04  1.30597E+04 -1.57496E+04
  2.21953E+04 -1.20550E+04  2.96079E+04  2.19809E+03  2.29903E+04  1.67365E+04  3.72360E+03  3.45878E+04
 -1.64360E+04  2.84492E+04 -2.60931E+04  1.05618E+04 -2.00341E+04 -1.07831E+04 -4.10428E+03 -1.49937E+04
  2.03223E+03 -3.11559E+03 -3.53028E+03  5.82102E+03 -1.51917E+04  5.89048E+03 -1.42551E+04 -5.81969E+03
 -9.55608E+03 -1.68170E+04  4.13273E+03 -2.01777E+04  1.32548E+04 -1.34461E+04  1.51138E+04 -1.55010E+03
  1.03283E+04  1.15537E+04 -1.92661E+03  1.70607E+04 -1.12849E+04  1.06099E+04 -1.82352E+04 -3.54145E+03
 -1.33549E+04 -1.62563E+04 -1.43033E+03 -1.99837E+04  9.96881E+03 -1.64835E+04  1.67428E+04 -8.46416E+03
  1.59997E+04  1.20971E+03  1.14811E+04  4.22110E+03  6.35819E+03  2.38441E+03  7.46236E+03 -2.35351E+03
  1.56382E+04  3.36611E+03  1.73762E+04  1.31253E+04  1.02385E+04  2.64031E+04 -2.59146E+03  2.96697E+04
 -1.81373E+04  2.27734E+04 -2.64257E+04  1.16302E+04 -2.74799E+04 -1.77928E+03 -2.31357E+04 -1.67558E+04
 -1.04176E+04 -2.32075E+04  7.17455E+03 -2.12816E+04  1.81345E+04 -1.16673E+04  1.69180E+04  4.43692E+03
  6.14918E+03  1.32631E+04 -8.50954E+03  1.09168E+04 -1.40978E+04  3.08258E+03 -1.15784E+04 -9.30079E+03
 -2.33547E+02 -1.32256E+04  6.72418E+03 -1.03680E+04  9.43130E+03 -2.20743E+02  1.70941E+03  4.84481E+03
 -6.06835E+03  1.82252E+03 -4.31410E+03 -4.29102E+03 -1.18916E+03 -1.07367E+04  9.67875E+03 -1.11846E+04
  1.35091E+04 -4.90868E+03  1.30296E+04  3.36829E+03  1.24758E+04  1.05557E+04  5.51660E+03  1.67028E+04
 -2.78131E+03  1.81078E+04 -1.12729E+04  1.13220E+04 -1.27796E+04  3.28673E+03 -8.82025E+03 -3.76910E+03
 -4.21878E+03 -3.01334E+03 -2.21673E+03  1.65127E+03 -3.31147E+03  3.02529E+03 -3.30700E+03  3.96584E+03
 -9.53053E+03 -6.66131E+02 -9.67188E+03 -7.84972E+03 -3.30246E+03 -1.15306E+04  3.74560E+03 -8.99930E+03
  7.84892E+03 -4.94017E+03  5.38489E+03  2.92494E+03  8.45160E+02  4.61188E+03 -4.66135E+03  6.30634E+02
 -3.45227E+03 -5.85457E+03 -5.92710E+02 -7.84005E+03  5.70855E+03 -9.34142E+03  1.22692E+04 -4.24978E+03
  1.40607E+04  1.13966E+03  9.72871E+03  8.32224E+03  2.13539E+03  1.00181E+04 -4.95442E+03  9.22986E+03
 -6.69583E+03  2.50258E+03 -4.25379E+03 -2.71397E+03  4.12402E+02 -1.89681E+03  5.30911E+03 -9.58665E+02
  5.33562E+03  2.89048E+03  1.98990E+03  7.06929E+03 -5.08482E+03  7.99989E+03 -8.27169E+03  2.49206E+03
 -5.49059E+03 -3.63031E+03 -7.56693E+01 -7.60338E+03  3.68415E+03 -3.50025E+03  4.12822E+03  1.44454E+03
  4.32218E+02  4.78708E+03 -5.30915E+03  6.23350E+03 -6.01335E+03  3.42296E+03 -6.31829E+03 -1.15113E+03
 -3.12460E+03 -6.83067E+03  8.35907E+02 -8.99104E+03  6.54754E+03 -4.72171E+03  8.83482E+03  7.67092E+02
  5.09356E+03  7.46458E+03 -5.68966E+02  8.04294E+03 -5.31328E+03  5.69742E+03 -5.14887E+03  3.91514E+02
 -5.98715E+03 -5.62478E+03 -1.31483E+03 -6.56989E+03  4.30800E+03 -5.49565E+03  3.98521E+03 -2.52649E+03
  2.84183E+03 -6.75526E+02  8.85835E+02  1.24669E+03  4.99339E+02 -5.62034E+02 -1.17598E+02 -3.60742E+03
  4.64109E+03 -1.70482E+03  6.02649E+03  6.89405E+02  7.34533E+03  4.26892E+03  5.33200E+03  7.85683E+03
 -1.85102E+03  1.06214E+04 -8.40500E+03  8.11140E+03 -1.16149E+04  1.90617E+03 -9.77902E+03 -3.15521E+03
 -5.22044E+03 -7.83984E+03 -2.83046E+02 -6.45175E+03  2.97359E+03 -2.72603E+03  1.90221E+03 -2.58328E+03
  1.21389E+03 -2.06339E+03  3.62929E+03 -2.37591E+03  3.80430E+03 -2.82092E+03  4.27865E+03  1.31390E+02
  5.36981E+03  1.77197E+03  1.15330E+03  3.76276E+03 -2.36025E+03  5.17254E+03 -4.84832E+03  4.17839E+03
 -6.28606E+03 -1.17385E+03 -2.92032E+03 -4.69223E+03 -5.63765E+00 -5.83972E+03  4.62310E+03 -6.03877E+03
  6.72642E+03 -3.70745E+03  9.12028E+03  6.13362E+02  6.25103E+03  5.01885E+03  1.45417E+03  6.64009E+03
 -1.76220E+03  6.07558E+03 -3.36244E+03  1.38771E+03 -2.32582E+03 -1.02122E+03 -1.14943E+03 -1.06411E+03
 -1.17712E+03  2.52760E+02 -7.60358E+02  1.48391E+03 -2.38078E+03  8.98136E+02 -5.01627E+03  4.74657E+02
 -1.92379E+03 -4.67467E+03  1.05131E+03 -6.00909E+03  3.68861E+03 -5.55786E+03  4.75050E+03 -8.12264E+02
  5.47447E+03  3.07187E+03  1.83983E+03  4.51241E+03 -1.49687E+03  5.35588E+03 -2.89781E+03  3.54101E+03
 -3.92135E+03  1.21475E+03 -3.47522E+03 -3.24079E+03  6.48025E+01 -4.60235E+03  1.63267E+03 -2.89221E+03
  4.37321E+03 -7.29315E+02  1.88059E+03  1.70706E+02  9.76607E+02  2.69635E+03  7.34045E+02  1.04523E+03
  2.55597E+03  9.47019E+02  1.49668E+03  5.57958E+02  1.52052E+03  2.02234E+03  1.99561E+03  3.58262E+03
 -1.28073E+03  3.16376E+03 -3.71061E+03  4.86179E+03 -4.36437E+03  1.85015E+03 -5.26835E+03 -9.60360E+02
 -1.77702E+03 -3.50388E+03  2.20047E+02 -4.87180E+03  1.86701E+03 -3.76501E+03  4.71643E+03 -1.08439E+03
  3.55109E+03  2.57773E+03  6.20258E+02  3.74517E+03 -9.83331E+02  1.60549E+03 -1.38898E+03  2.06727E+02
 -1.48992E+03 -2.73811E+03  2.44265E+03 -1.34332E+03  1.11482E+03 -4.99989E+02  2.32024E+03 -3.47500E+02
  1.08284E+03  1.66519E+02  1.32647E+03  5.18543E+02  7.71203E+01  4.58387E+02  2.34090E+03  4.46570E+02
 -8.55964E+02 -2.51868E+02  1.56043E+03 -6.22389E+01  7.78456E+02  2.80307E+03  5.27891E+02  3.09356E+03
 -1.74289E+03 -3.52131E+01 -2.70941E+03  1.78559E+03 -3.54685E+03 -7.67337E+02 -4.77847E+02 -1.00017E+03
  9.50704E+02 -1.26606E+03  5.49004E+02 -3.54239E+02 -2.01063E+02  1.71325E+03 -1.08402E+02  1.85381E+03
 -1.95958E+03  6.74639E+02 -9.62625E+02 -1.50213E+03 -1.72717E+02 -3.90067E+02  3.26972E+02 -1.89864E+03
  1.41320E+03 -1.20110E+03  6.18787E+02  1.57293E+02  2.19809E+03 -3.51738E+02  6.52419E+02  1.29001E+03
 -9.00512E+02  9.70601E+02 -1.19287E+03 -1.45706E+03  4.43873E+02 -1.46542E+03  2.40396E+03 -4.87735E+02
  9.69606E+02  7.02293E+02  3.35531E+03  1.00645E+03  2.24420E+03  2.85545E+03 -1.86050E+02  1.89434E+03
 -1.89628E+03  2.44788E+02 -2.10999E+03  3.32300E+02 -3.93949E+02 -3.44643E+02 -1.58592E+01 -9.58483E+02
  2.24194E+03 -6.44535E+02  1.35452E+03  1.13943E+03 -9.34177E+02  1.29157E+03 -2.96398E+02  5.62560E+02
 -1.58984E+03  1.12226E+03 -1.52579E+03  8.78367E+02  1.11970E+01  8.60140E+02 -1.12656E+03  1.02629E+03
 -6.12430E+02  6.33539E+02 -2.09903E+03 -4.68254E+02 -2.11755E+03 -1.32282E+01 -2.98927E+03 -2.30410E+03
 -2.16105E+03 -2.72355E+03  2.76933E+02 -4.75965E+03  2.24939E+03 -3.70841E+03  4.33275E+03 -9.63035E+02
  2.78404E+03 -1.00323E+03  2.27664E+03  1.97692E+03 -1.96135E+02  2.65936E+03 -1.33009E+03  8.06938E+02
 -1.20440E+03  1.26757E+03 -1.31015E+03  9.11396E+01 -5.43547E+02  1.43718E+03 -3.06799E+02 -7.66228E+02
 -1.62108E+03  6.08899E+01 -1.08219E+03 -6.05279E+02  6.31858E+02  3.87725E+02 -2.13809E+02 -1.30500E+02
  1.81845E+03 -1.61618E+03  7.40240E+02 -4.10831E+02  2.53886E+03  1.05390E+03  3.98808E+02  3.33657E+03
 -7.04048E+02  3.05101E+03 -1.67408E+03  2.52540E+03 -2.38403E+03 -7.69146E+02 -2.29829E+03 -2.92527E+03
 -1.71342E+03 -1.79978E+03  1.38134E+03 -2.69356E+03  1.72665E+03 -4.67808E+02  4.80889E+02  1.33474E+02
  1.49367E+03  9.04626E+02 -1.26342E+01  5.12064E+02 -1.08823E+02  3.69959E+02 -9.43466E+02 -1.67051E+03
  5.91535E+02 -7.02427E+02  9.52127E+00  1.64729E+03  5.20363E+02 -4.46248E+02  1.49458E+03  6.62938E+02
 -1.64797E+03  6.44311E+02 -1.12177E+03  4.46253E+02 -1.00533E+02  3.56809E+02 -8.01563E+02  3.11571E+02
  1.85953E+02 -1.58751E+03  1.38145E+03 -6.97067E+02  1.06929E+03 -7.24296E+02 -3.09002E+02  1.54625E+03
 -2.96642E+02  6.07790E+02  4.78952E+01  7.01109E+02 -1.49682E+03  7.90100E+02 -1.57727E+03  1.69926E+02
 -3.93438E+02  4.79484E+02 -7.54109E+02  9.35430E+02 -5.14826E+02  1.07710E+03 -1.79887E+03  7.16588E+01
 -2.41517E+03 -1.15770E+02  1.65733E+02 -3.08926E+02  7.88320E+02 -3.11712E+03  1.86210E+02  1.65548E+02
  1.37652E+03  6.98730E+01 -1.36713E+03  5.53118E+02 -4.23419E+02  1.35606E+03  3.52898E+02  9.96592E+02
