 $NMID ID='MM_0lb_SNR200_8hz_g40_86.RAW', FMTDAT='(8E13.5)'
 TRAMP=1., VOLUME=1. $END
  3.10718E+05  6.28039E+02  3.38103E+05  2.50630E+05  8.52261E+04  3.38776E+05 -1.34228E+05  2.51100E+05
 -1.90622E+05  8.54062E+04 -1.10822E+05 -3.26978E+04  1.56569E+02 -4.94048E+04  5.47011E+04  3.08955E+02
  3.56458E+04  5.23878E+04 -1.62607E+04  7.55524E+04 -5.98409E+04  6.52608E+04 -8.58585E+04  3.17680E+04
 -8.17465E+04 -1.17006E+04 -5.94861E+04 -5.25866E+04 -1.39190E+04 -7.04721E+04  2.85505E+04 -4.73500E+04
  4.11922E+04  3.07615E+03  1.77048E+04  4.82393E+04 -3.43762E+04  4.78982E+04 -6.88865E+04 -5.11977E+02
 -5.55355E+04 -5.88909E+04 -8.48343E+03 -8.00816E+04  3.39566E+04 -5.60280E+04  4.92231E+04 -1.98415E+04
  4.58787E+04  1.18934E+04  3.20022E+04  2.67190E+04  1.51031E+04  3.12056E+04 -6.55743E+03  2.81478E+04
 -2.21487E+04  1.22012E+04 -1.83614E+04 -6.50887E+03  5.95103E+03 -7.57106E+03  2.54999E+04  1.32645E+04
  7.12379E+03  3.79872E+04 -3.30707E+04  3.60091E+04 -6.56989E+04  1.66042E+03 -6.01164E+04 -4.42943E+04
 -1.19758E+04 -6.60221E+04  4.19499E+04 -4.89859E+04  6.14570E+04 -4.48591E+03  3.62359E+04  3.36899E+04
 -3.57433E+03  3.99244E+04 -3.32419E+04  2.02840E+04 -3.46170E+04 -3.95702E+03 -1.93722E+04 -1.10114E+04
 -1.00331E+04 -1.46300E+04 -8.80722E+02 -1.87378E+04  7.06454E+03 -2.32204E+04  1.59165E+04 -1.30156E+04
  9.22253E+03  5.50447E+03 -1.09122E+04  1.36518E+04 -2.32313E+04 -6.46029E+03 -9.85804E+03 -3.82912E+04
  2.59199E+04 -4.73031E+04  5.17443E+04 -2.19561E+04  4.85797E+04  2.13160E+04  1.87176E+04  4.81758E+04
 -1.54367E+04  3.56207E+04 -2.81286E+04  1.11617E+03 -1.19218E+04 -2.99854E+04  2.21055E+04 -3.66638E+04
  4.49298E+04 -1.08105E+04  4.11461E+04  2.37205E+04  2.06079E+04  4.99295E+04 -8.70304E+03  5.71476E+04
 -3.44903E+04  3.92993E+04 -4.88382E+04  1.04493E+04 -4.68901E+04 -1.87325E+04 -2.77579E+04 -4.25874E+04
  7.83403E+03 -4.10751E+04  3.47013E+04 -1.82954E+04  3.17563E+04  1.07819E+04  5.21668E+03  2.17196E+04
 -1.44850E+04  9.77823E+03 -1.17480E+04 -8.08520E+03  5.55415E+03 -1.23414E+04  2.02128E+04  5.23292E+03
  1.57889E+04  2.21801E+04 -4.86771E+03  2.83305E+04 -2.44583E+04  1.39373E+04 -3.21332E+04 -1.55107E+03
 -2.50131E+04 -1.89641E+04 -1.22944E+04 -2.61933E+04  4.77451E+03 -2.58935E+04  2.09499E+04 -2.28734E+04
  3.24707E+04 -1.31031E+04  3.91130E+04  2.61455E+03  2.66610E+04  2.39561E+04  5.19997E+03  4.17367E+04
 -2.01620E+04  3.33663E+04 -2.96388E+04  1.08505E+04 -2.16397E+04 -9.25301E+03 -3.64771E+03 -1.24028E+04
  7.39542E+02 -2.00048E+03 -9.38913E+03  9.31485E+03 -1.85369E+04  5.86591E+03 -2.08600E+04 -8.19738E+03
 -1.19587E+04 -2.33315E+04  5.57076E+03 -2.91834E+04  1.92163E+04 -1.97603E+04  2.34651E+04 -1.12112E+03
  1.22313E+04  1.51605E+04 -2.03841E+03  2.15706E+04 -1.46452E+04  1.36774E+04 -2.33093E+04 -4.76839E+03
 -1.93764E+04 -2.13482E+04 -3.56330E+03 -2.85883E+04  1.30299E+04 -2.34298E+04  2.45806E+04 -1.14809E+04
  2.23153E+04 -1.72909E+03  1.63457E+04  4.90930E+03  8.36108E+03  1.14755E+03  1.27950E+04 -3.28087E+03
  2.36925E+04  2.39311E+03  2.51077E+04  1.87572E+04  1.72497E+04  3.81242E+04 -3.01945E+03  4.49480E+04
 -2.54431E+04  3.74955E+04 -4.22463E+04  1.92893E+04 -4.44653E+04 -4.19100E+03 -3.57641E+04 -2.61596E+04
 -1.43075E+04 -3.76156E+04  1.42678E+04 -3.27127E+04  2.87249E+04 -1.61043E+04  2.47791E+04  7.30146E+03
  9.96689E+03  1.92767E+04 -1.04599E+04  1.67377E+04 -2.06993E+04  2.99520E+03 -1.42656E+04 -1.34136E+04
 -2.71613E+03 -2.10547E+04  9.80396E+03 -1.44567E+04  1.27113E+04 -7.04944E+01  2.62752E+03  7.67892E+03
 -9.11942E+03  3.42448E+03 -1.03915E+04 -7.19914E+03 -2.59122E+03 -1.92490E+04  1.08516E+04 -2.03804E+04
  2.34230E+04 -1.17787E+04  2.88499E+04  3.60144E+03  2.26374E+04  1.80241E+04  1.10551E+04  2.99679E+04
 -6.49707E+03  3.14908E+04 -2.07481E+04  1.89216E+04 -2.22561E+04  3.64235E+03 -1.72546E+04 -6.45980E+03
 -8.28023E+03 -6.99123E+03 -3.30707E+02 -2.17343E+01 -3.28261E+03  3.13178E+03 -7.47649E+03  5.95113E+03
 -1.42647E+04 -1.47140E+03 -1.52525E+04 -1.16509E+04 -6.55406E+03 -1.80820E+04  5.34650E+03 -1.90844E+04
  1.18613E+04 -6.87140E+03  9.46654E+03  5.03958E+03 -1.26005E+03  6.98278E+03 -7.78875E+03 -8.37018E-01
 -8.13579E+03 -1.16502E+04  3.00426E+02 -1.63266E+04  8.98498E+03 -1.55068E+04  2.04189E+04 -8.56959E+03
  2.43369E+04  2.61609E+03  1.82355E+04  1.39698E+04  2.94291E+03  1.86717E+04 -1.07663E+04  1.59521E+04
 -1.45891E+04  4.73707E+03 -6.28580E+03 -3.44393E+03  1.70369E+03 -4.56384E+03  8.60518E+03 -1.45069E+03
  6.38512E+03  7.73230E+03  1.25256E+03  1.32366E+04 -7.91787E+03  1.19098E+04 -1.69243E+04  2.61278E+03
 -1.03523E+04 -1.06826E+04 -1.39282E+02 -1.27164E+04  9.84849E+03 -6.20048E+03  1.13611E+04  4.44546E+03
  3.05046E+03  1.07388E+04 -8.06993E+03  1.19668E+04 -1.46638E+04  4.82904E+03 -1.65638E+04 -5.50924E+03
 -7.72122E+03 -1.82211E+04  3.30351E+03 -1.85340E+04  1.69933E+04 -1.04120E+04  1.69707E+04  4.03663E+03
  1.01633E+04  1.26103E+04 -5.39766E+02  1.80573E+04 -1.31054E+04  9.11450E+03 -1.21428E+04 -1.62528E+03
 -1.01066E+04 -1.16057E+04 -3.49054E+03 -1.19895E+04  4.70994E+03 -9.64904E+03  8.67486E+03 -4.48762E+03
  4.09839E+03  2.11334E+03 -2.36561E+02  4.03105E+03 -1.73296E+03 -3.53063E+03  3.99784E+03 -8.41552E+03
  1.30184E+04 -3.68735E+03  1.62377E+04  1.67155E+03  1.55120E+04  1.14485E+04  1.02777E+04  2.23304E+04
 -4.78270E+03  2.49254E+04 -2.15116E+04  1.63467E+04 -2.64290E+04  2.08305E+03 -2.06280E+04 -1.09948E+04
 -8.34806E+03 -1.90281E+04  5.01521E+02 -1.67854E+04  6.39222E+03 -7.54313E+03  6.94273E+03 -4.89698E+03
  4.58491E+03 -3.03863E+03  4.19836E+03 -4.11984E+03  8.38110E+03 -5.55978E+03  8.42876E+03 -1.82651E+03
  1.02177E+04  1.33883E+03  5.91604E+03  1.07479E+04 -2.56419E+03  1.02446E+04 -1.17140E+04  1.05402E+04
 -1.51438E+04 -1.03016E+03 -9.81172E+03 -1.09727E+04 -5.08885E+02 -1.73253E+04  8.06615E+03 -1.75110E+04
  1.71167E+04 -1.18514E+04  1.98741E+04  2.93103E+03  1.29437E+04  1.47394E+04  2.52141E+03  1.75021E+04
 -7.76682E+03  1.51081E+04 -1.05565E+04  5.55918E+03 -6.83924E+03 -1.37368E+03 -3.35831E+03 -1.11137E+03
 -8.95784E+02  6.43350E+02 -1.15725E+03  2.89376E+03 -6.06857E+03  1.72852E+03 -1.09052E+04 -2.37336E+03
 -7.87410E+03 -8.75440E+03  4.91146E+02 -1.46041E+04  1.00528E+04 -1.55054E+04  1.44253E+04 -5.38825E+03
  1.50722E+04  7.72579E+03  4.77066E+03  1.43481E+04 -3.61495E+03  1.59429E+04 -1.19033E+04  9.97226E+03
 -1.63729E+04  9.21362E+02 -1.13010E+04 -8.06792E+03 -7.12080E+02 -1.47155E+04  6.47820E+03 -8.27125E+03
  9.42506E+03 -2.78140E+03  5.66714E+03  2.14933E+03  1.51520E+03  4.44737E+03  1.97155E+03  2.44064E+03
  2.14809E+03  1.19808E+03  4.06326E+03  2.58971E+03  4.20372E+03  7.10913E+03  4.61658E+03  8.75689E+03
 -3.72199E+03  1.37349E+04 -1.09564E+04  1.11801E+04 -1.64926E+04  5.24391E+03 -1.74690E+04 -7.76220E+03
 -6.62647E+03 -1.42218E+04  1.98208E+03 -1.77320E+04  1.03610E+04 -1.18924E+04  1.36657E+04 -2.55049E+03
  1.08821E+04  7.13847E+03  2.81090E+03  9.44062E+03 -4.67593E+03  5.97693E+03 -8.11153E+03 -3.09364E+02
 -2.75524E+03 -8.93964E+03  4.92127E+03 -8.49757E+03  7.00127E+03 -3.39966E+03  6.71985E+03  5.53859E+01
  3.19473E+03  4.24720E+03  8.72082E+02  3.87027E+03 -7.09156E+02  8.68824E+02  1.77811E+03 -1.22259E+02
  1.54976E+03 -2.63984E+02  6.92088E+03  3.15585E+03  3.76451E+03  9.73793E+03 -4.08168E+02  1.14116E+04
 -6.57080E+03  8.29012E+03 -8.45769E+03  3.43865E+03 -1.05966E+04 -4.06672E+03 -3.78792E+03 -6.06567E+03
  6.38271E+02 -4.76729E+03  2.38290E+03 -3.67484E+03  1.98945E+03  4.56850E+03 -6.60089E+02  4.43425E+03
 -6.92432E+03  4.76144E+03 -8.60327E+03 -3.78580E+03 -4.32594E+03 -8.66366E+03  2.11901E+03 -9.07795E+03
  5.07569E+03 -7.57749E+03  7.84498E+03  6.12774E+02  5.30050E+03  3.27155E+03  7.44682E+01  4.12854E+03
 -4.02499E+03  1.74340E+03 -3.24569E+03 -5.28515E+03  1.59127E+03 -5.98375E+03  7.45922E+03 -5.35546E+03
  1.03274E+04  6.39031E+02  1.09786E+04  7.49195E+03  3.15661E+03  9.79918E+03 -4.11533E+03  1.14359E+04
 -9.47565E+03  4.03251E+03 -1.02964E+04 -3.88754E+03 -5.40360E+03 -6.54897E+03  1.09491E+03 -5.27694E+03
  6.28222E+03 -3.77496E+03  6.73201E+03  2.58922E+03  3.29667E+03  5.78256E+03 -1.58026E+03  3.35291E+03
 -5.87782E+02  2.61272E+03 -4.06253E+03  7.52507E+02 -1.55072E+03 -2.03030E+02 -1.79826E+03  1.86973E+03
 -2.01867E+03  4.76864E+03 -7.09974E+03  4.11606E+03 -1.10754E+04  9.47931E+02 -1.13912E+04 -7.18891E+03
 -7.01688E+03 -1.49636E+04  1.96361E+03 -1.56821E+04  1.19235E+04 -1.33469E+04  1.61767E+04 -3.40176E+03
  1.60021E+04  4.03675E+03  1.01169E+04  1.16283E+04  1.18153E+03  1.12874E+04 -4.97329E+03  9.05816E+03
 -7.12716E+03  3.51884E+03 -4.56871E+03 -3.49904E+02 -2.54328E+03 -1.36011E+03 -3.40328E+02  1.19697E+03
 -2.99350E+03  3.21646E+03 -1.67287E+03 -1.28494E+03 -1.41620E+03 -1.83813E+03 -8.28013E+02 -5.50672E+03
  4.74594E+03 -3.52807E+03  7.42452E+03 -6.92971E+02  9.70936E+03  6.17491E+03  2.27995E+03  1.03707E+04
 -7.10298E+03  1.44172E+04 -1.12260E+04  8.28439E+03 -1.46548E+04  2.90944E+02 -9.46995E+03 -6.86082E+03
 -5.51293E+03 -1.17015E+04  4.08607E+03 -1.24286E+04  8.70439E+03 -6.25261E+03  7.22254E+03 -3.28468E+02
  4.45125E+03  2.78711E+03 -1.02720E+03  4.03754E+03 -3.12467E+03  9.48131E+02 -2.05130E+02 -3.55767E+03
  3.64202E+03 -2.43006E+03  5.22201E+03  1.07703E+03  3.60631E+03  3.76425E+03  3.80145E+02  7.31544E+03
 -4.80475E+03  5.59653E+03 -8.67288E+03  1.53154E+03 -7.06334E+03 -7.04183E+03 -1.65134E+03 -1.05624E+04
  4.61698E+03 -7.78955E+03  8.86193E+03 -2.82342E+03  1.03156E+04  3.48976E+03  5.62652E+03  9.26859E+03
  1.25487E+03  7.84632E+03 -3.22708E+03  5.71831E+03 -5.46580E+03  4.40046E+03 -3.35355E+03  2.84614E+02
 -1.15307E+03  9.08766E+02 -2.17043E+03  1.58578E+03 -3.84267E+03  2.10165E+03 -7.14211E+03 -1.21215E+03
 -6.08340E+03 -4.69334E+03 -3.11310E+03 -7.26210E+03  3.33622E+03 -6.48637E+03  6.84893E+03 -4.74008E+03
  8.64577E+03  1.52717E+03  4.58871E+03  4.81428E+03 -9.27832E+02  6.72708E+03 -6.99106E+03  5.40460E+03
