 $NMID ID='MM_0lb_SNR200_12hz_g60_73.RAW', FMTDAT='(8E13.5)'
 TRAMP=1., VOLUME=1. $END
  3.10044E+05  1.32860E+03  3.37447E+05  2.49661E+05  8.65554E+04  3.38190E+05 -1.31607E+05  2.52419E+05
 -1.90920E+05  8.26420E+04 -1.12940E+05 -3.36884E+04  7.68859E+02 -4.98775E+04  5.37518E+04  2.99670E+02
  3.45131E+04  5.24697E+04 -1.79118E+04  7.55866E+04 -6.24473E+04  6.34556E+04 -8.48187E+04  3.14194E+04
 -8.16362E+04 -1.12997E+04 -5.74201E+04 -5.27510E+04 -1.55925E+04 -7.21887E+04  2.86373E+04 -4.67447E+04
  3.98417E+04  3.11436E+03  1.66901E+04  4.85935E+04 -3.39018E+04  4.84299E+04 -6.74937E+04  4.60875E+02
 -5.55187E+04 -5.70333E+04 -7.70690E+03 -8.06201E+04  3.44923E+04 -5.53575E+04  4.90253E+04 -1.74842E+04
  4.47813E+04  1.14940E+04  3.33641E+04  2.57676E+04  1.68657E+04  2.92439E+04 -5.80768E+03  2.70720E+04
 -2.33880E+04  1.32608E+04 -1.83258E+04 -6.11643E+03  6.12475E+03 -7.80254E+03  2.50348E+04  1.52160E+04
  7.07571E+03  3.71840E+04 -3.34417E+04  3.62274E+04 -6.47573E+04  2.18180E+03 -5.78972E+04 -4.48101E+04
 -1.25904E+04 -6.61000E+04  4.04899E+04 -4.58377E+04  6.06059E+04 -2.53542E+03  3.70256E+04  3.43569E+04
 -5.91012E+03  3.87411E+04 -3.14066E+04  1.76841E+04 -3.25584E+04 -3.61048E+03 -1.83788E+04 -1.04420E+04
 -7.30795E+03 -1.41295E+04 -1.38122E+03 -1.69040E+04  7.47534E+03 -2.36495E+04  1.61285E+04 -1.14167E+04
  1.09647E+04  6.27086E+03 -1.03389E+04  1.42217E+04 -2.30866E+04 -6.64954E+03 -1.00483E+04 -3.46483E+04
  2.51638E+04 -4.45198E+04  5.04673E+04 -2.01046E+04  4.66027E+04  2.03807E+04  1.70663E+04  4.71559E+04
 -1.53739E+04  3.60248E+04 -2.77565E+04  3.17060E+03 -1.02611E+04 -2.81100E+04  2.08741E+04 -3.52203E+04
  4.42101E+04 -9.38776E+03  3.87150E+04  2.28330E+04  2.13485E+04  4.93725E+04 -7.12653E+03  5.35434E+04
 -3.50395E+04  3.49808E+04 -4.71699E+04  1.03659E+04 -4.52483E+04 -1.77246E+04 -2.68484E+04 -4.13499E+04
  8.30992E+03 -4.14231E+04  3.30715E+04 -1.74306E+04  3.16277E+04  1.19265E+04  5.62404E+03  1.96388E+04
 -1.36922E+04  9.36884E+03 -1.15612E+04 -6.89947E+03  5.31437E+03 -1.04278E+04  1.76447E+04  6.46619E+03
  1.39424E+04  2.26548E+04 -4.31778E+03  2.63349E+04 -2.37746E+04  1.41315E+04 -2.94048E+04 -2.01488E+03
 -2.30145E+04 -1.83429E+04 -1.07888E+04 -2.36147E+04  5.43522E+03 -2.40975E+04  1.86187E+04 -2.14806E+04
  2.87524E+04 -1.40619E+04  3.62239E+04  3.43782E+03  2.56721E+04  2.26668E+04  5.10670E+03  3.85904E+04
 -2.00612E+04  3.28295E+04 -3.04039E+04  1.18864E+04 -2.29920E+04 -9.94562E+03 -4.92572E+03 -1.34424E+04
  1.26881E+03 -9.91318E+02 -5.38287E+03  8.22101E+03 -1.70779E+04  4.42353E+03 -1.94442E+04 -7.70106E+03
 -1.10091E+04 -2.11461E+04  5.68150E+03 -2.67446E+04  1.80955E+04 -1.77343E+04  2.06787E+04 -3.26489E+03
  1.22399E+04  1.43257E+04 -2.67862E+03  2.14286E+04 -1.60703E+04  1.19799E+04 -2.16894E+04 -4.71479E+03
 -1.63163E+04 -2.01163E+04 -2.81033E+03 -2.60514E+04  1.07939E+04 -1.95921E+04  2.13824E+04 -1.07145E+04
  2.02350E+04 -1.19495E+02  1.34909E+04  5.03848E+03  8.66677E+03  1.24894E+03  1.04561E+04 -2.58239E+03
  2.00652E+04  2.73829E+03  2.32672E+04  1.84912E+04  1.58900E+04  3.45766E+04 -3.16248E+03  3.96584E+04
 -2.24768E+04  3.25949E+04 -3.76219E+04  1.68150E+04 -3.98109E+04 -3.51851E+03 -3.32007E+04 -2.23256E+04
 -1.41103E+04 -3.32966E+04  1.15227E+04 -3.10878E+04  2.71230E+04 -1.23640E+04  2.26068E+04  7.44661E+03
  7.97985E+03  1.78049E+04 -1.20303E+04  1.37978E+04 -1.88835E+04  2.14152E+03 -1.55312E+04 -1.15974E+04
 -4.98519E+02 -1.77133E+04  9.14171E+03 -1.17174E+04  1.16682E+04 -2.06605E+03  2.72536E+03  8.12365E+03
 -7.70581E+03  3.39847E+03 -8.36572E+03 -5.90799E+03 -2.14845E+03 -1.53397E+04  1.16192E+04 -1.71551E+04
  2.02475E+04 -9.85639E+03  2.26811E+04  2.12255E+03  1.98855E+04  1.63172E+04  9.24093E+03  2.76950E+04
 -4.23682E+03  2.75056E+04 -1.98126E+04  1.62446E+04 -1.95925E+04  3.55102E+03 -1.41918E+04 -6.39679E+03
 -5.70528E+03 -7.01622E+03 -5.40846E+02  7.45592E+02 -2.80679E+03  2.44912E+03 -5.67912E+03  5.59820E+03
 -1.29139E+04 -9.25589E+02 -1.27744E+04 -1.08915E+04 -5.47790E+03 -1.81067E+04  4.87227E+03 -1.35780E+04
  1.23237E+04 -7.03970E+03  7.21290E+03  3.21862E+03 -4.28729E+02  5.13953E+03 -5.71679E+03  6.93158E+02
 -7.19737E+03 -8.42408E+03 -2.72136E+03 -1.44608E+04  7.85912E+03 -1.36774E+04  1.80755E+04 -7.64763E+03
  2.16364E+04  3.20520E+03  1.47848E+04  1.20734E+04  3.27954E+03  1.55729E+04 -7.38642E+03  1.39457E+04
 -1.22393E+04  4.28583E+03 -5.47250E+03 -2.46611E+03  2.88640E+03 -2.78506E+03  6.02074E+03  1.77502E+03
  6.24951E+03  6.10618E+03  2.62291E+03  1.18341E+04 -7.40168E+03  1.05781E+04 -1.20234E+04  2.79248E+03
 -1.02731E+04 -6.45804E+03 -1.84086E+01 -1.12805E+04  9.15314E+03 -4.50185E+03  7.89724E+03  2.98328E+03
  2.48301E+03  7.78530E+03 -5.44210E+03  9.32371E+03 -1.08077E+04  5.69772E+03 -1.06080E+04 -4.24947E+03
 -5.72867E+03 -1.26920E+04  2.99848E+03 -1.47293E+04  1.22196E+04 -8.34247E+03  1.39662E+04  2.27218E+03
  8.44568E+03  1.13767E+04 -2.70310E+02  1.32669E+04 -1.01173E+04  6.47363E+03 -9.70285E+03 -7.08686E+02
 -8.62633E+03 -8.68541E+03 -1.98347E+03 -1.05828E+04  5.30666E+03 -8.87853E+03  6.55444E+03 -3.37056E+03
  4.09477E+03  2.32126E+03 -4.84557E+02  1.34563E+03 -9.13428E+02 -1.92185E+03  1.85420E+03 -6.22248E+03
  9.49267E+03 -2.24159E+03  1.27414E+04  1.06986E+03  1.18000E+04  7.54606E+03  9.28582E+03  1.65012E+04
 -3.67672E+03  1.90345E+04 -1.52565E+04  1.55269E+04 -2.20345E+04  2.27843E+03 -1.65366E+04 -6.10547E+03
 -7.67199E+03 -1.49510E+04 -3.68854E+02 -1.07840E+04  4.48276E+03 -6.39813E+03  4.56303E+03 -4.69615E+03
  3.51116E+03 -3.30164E+03  3.59022E+03 -3.28182E+03  5.50550E+03 -3.40366E+03  6.58284E+03 -7.54641E+02
  8.20937E+03  4.84179E+02  4.57596E+03  6.52346E+03 -2.54522E+03  8.73659E+03 -9.15669E+03  7.50616E+03
 -1.12482E+04 -2.43740E+03 -8.94942E+03 -7.35823E+03 -6.54480E+02 -1.32900E+04  7.00011E+03 -1.30296E+04
  1.29215E+04 -8.19709E+03  1.56548E+04  8.66575E+02  9.61562E+03  1.15273E+04  1.03967E+03  1.31535E+04
 -5.21849E+03  1.14249E+04 -7.80272E+03  5.41309E+03 -5.58648E+03 -1.79503E+03 -1.79639E+03 -5.58813E+02
 -7.49557E+01  3.20883E+02 -2.46133E+03  2.14065E+03 -3.95164E+03  1.94620E+03 -8.84689E+03 -1.86591E+03
 -5.43417E+03 -7.45579E+03  3.04612E+02 -1.10012E+04  6.96165E+03 -1.14090E+04  1.16983E+04 -3.36649E+03
  1.16026E+04  3.51512E+03  5.93849E+03  1.04058E+04 -1.98532E+03  1.18913E+04 -8.05633E+03  7.69758E+03
 -9.69368E+03  4.07520E+02 -7.54652E+03 -6.89373E+03  5.21460E+02 -9.82869E+03  5.06712E+03 -7.56576E+03
  6.92371E+03 -2.40085E+03  4.60665E+03  1.62055E+03  1.52303E+03  3.84704E+03 -3.35007E+02  1.59256E+03
  2.09878E+03  1.46238E+03  3.01067E+03  2.66303E+03  4.48882E+03  5.20917E+03  3.95360E+03  6.23917E+03
 -1.70925E+03  8.73287E+03 -7.90008E+03  8.56933E+03 -1.15167E+04  2.13448E+03 -1.11587E+04 -3.44330E+03
 -6.79133E+03 -1.16201E+04  1.66142E+03 -1.18602E+04  6.50678E+03 -7.62667E+03  1.03291E+04 -2.03988E+03
  6.72292E+03  4.72662E+03  1.85852E+03  5.50806E+03 -1.44079E+03  3.36199E+03 -5.24576E+03 -8.11730E+01
 -1.05504E+03 -4.24123E+03  2.92386E+03 -5.49029E+03  4.93383E+03 -2.25285E+03  3.13175E+03  1.24276E+03
  2.39440E+03  2.32485E+03  1.95313E+03  3.56433E+02 -4.79897E+02  7.31513E+02  1.44139E+03 -1.10515E+03
  1.64476E+03 -3.27804E+02  5.43858E+03  1.61470E+03  2.45896E+03  6.18134E+03 -2.84208E+03  8.68653E+03
 -4.25256E+03  3.92328E+03 -6.09809E+03  2.47129E+03 -5.87345E+03 -1.49538E+03 -3.20284E+03 -4.02505E+03
  4.27347E+02 -5.04756E+03  1.66385E+03 -1.68661E+03  2.69895E+03  2.67477E+03 -1.78968E+03  3.42326E+03
 -3.59490E+03  1.37000E+03 -5.25217E+03 -3.19163E+03 -2.64017E+03 -6.40116E+03  6.65649E+02 -6.23292E+03
  2.31227E+03 -2.13437E+03  3.40405E+03 -9.19349E+02  4.55412E+03  2.85326E+03  7.98224E+02  2.20355E+03
 -1.94198E+03  9.16154E+02 -1.99559E+03  1.65769E+02  1.27680E+03 -3.80345E+03  4.49128E+03 -3.42219E+03
  7.09200E+03  1.07439E+03  8.36563E+03  5.79903E+03  3.27540E+03  7.26426E+03 -2.64127E+03  6.33579E+03
 -5.22358E+03  3.25501E+03 -5.78027E+03  6.58621E+02 -3.94096E+03 -4.02718E+03  4.72747E+02 -2.48115E+03
  5.67456E+03 -2.08720E+03  4.18121E+03  2.84457E+03  1.23397E+03  5.37515E+03  5.02139E+02  3.01612E+03
 -1.56933E+03  1.91112E+03 -7.27021E+02  6.23764E+01 -5.26579E+02  9.12258E+02 -1.50841E+03  1.92743E+03
 -2.24236E+03  3.24011E+03 -5.07996E+03  2.16990E+03 -8.93347E+03  5.42561E+02 -7.71930E+03 -2.74642E+03
 -3.15898E+03 -7.64845E+03  1.92567E+03 -9.14590E+03  7.08417E+03 -7.46933E+03  1.04019E+04 -2.13468E+03
  9.11328E+03  4.47572E+02  5.96776E+03  5.54611E+03  2.36466E+02  6.27679E+03 -2.70544E+03  6.26583E+03
 -3.63823E+03  5.31652E+02 -1.51063E+03 -7.55668E+02 -9.22358E+02 -1.06905E+03 -9.46564E+02  1.03808E+03
 -6.26853E+02  8.87643E+02 -2.74568E+03  6.55845E+00 -1.03214E+03 -1.55840E+03  2.62741E+02 -3.67808E+03
  3.45675E+03 -2.14074E+03  3.74034E+03 -1.21991E+02  3.53291E+03  4.38847E+03 -1.34746E+03  6.55939E+03
 -2.06850E+03  7.28208E+03 -6.67590E+03  3.06179E+03 -8.22824E+03 -3.90678E+02 -5.47084E+03 -5.19324E+03
 -1.76552E+03 -6.05310E+03  2.20202E+03 -6.29012E+03  4.98360E+03 -2.86135E+03  3.98400E+03  5.94918E+02
  1.33156E+03  1.71606E+03 -8.91475E+01  2.94600E+03 -3.76193E+02 -1.37972E+02 -6.67793E+02 -1.72567E+03
  1.35256E+03 -2.91482E+02  3.40584E+03  2.17411E+03  9.49169E+02  2.55419E+03  2.34821E+02  4.20088E+03
 -2.26965E+03  2.69779E+03 -4.49343E+03  3.22789E+02 -3.13909E+03 -2.74187E+03 -5.50193E+02 -5.76787E+03
  2.75526E+03 -4.40722E+03  4.74013E+03 -1.43229E+03  4.79072E+03  7.03138E+02  1.74950E+03  4.05678E+03
  6.46720E+02  2.79291E+03 -9.62789E+02  3.00574E+03 -2.87894E+03  1.67087E+03 -2.30302E+03 -4.47962E+02
 -5.81296E+02 -8.48499E+02 -2.84573E+03  6.89100E+02 -2.34414E+03  4.88165E+02 -3.19142E+03 -1.27347E+03
 -3.20992E+03 -1.86539E+03 -2.88337E+03 -3.18800E+03  2.29383E+03 -6.71705E+03  3.77264E+03 -2.01826E+03
  4.34256E+03  4.12869E+02  1.46103E+03  1.84883E+03  7.85548E+02  3.74577E+03 -3.03576E+03  3.54464E+03
