 $NMID ID='MM_0lb_SNR200_7hz_g50_68.RAW', FMTDAT='(8E13.5)'
 TRAMP=1., VOLUME=1. $END
  3.08943E+05  9.76679E+01  3.38052E+05  2.50849E+05  8.55569E+04  3.37956E+05 -1.33701E+05  2.52559E+05
 -1.92044E+05  8.41475E+04 -1.11475E+05 -3.21372E+04 -5.16120E+02 -5.06758E+04  5.36689E+04 -1.49835E+03
  3.48141E+04  5.35123E+04 -1.48943E+04  7.78784E+04 -6.16771E+04  6.54239E+04 -8.44100E+04  3.13902E+04
 -8.38528E+04 -1.28588E+04 -6.00051E+04 -5.30775E+04 -1.54845E+04 -7.12465E+04  2.81153E+04 -4.98657E+04
  4.10199E+04  3.54499E+03  1.71660E+04  4.73042E+04 -3.39693E+04  4.89443E+04 -6.91181E+04  6.29219E+02
 -5.52766E+04 -5.85117E+04 -8.25534E+03 -7.98849E+04  3.39881E+04 -5.68822E+04  5.01579E+04 -1.94032E+04
  4.65139E+04  1.17908E+04  3.26237E+04  2.66847E+04  1.71647E+04  3.30190E+04 -5.48022E+03  2.74252E+04
 -2.37259E+04  1.08892E+04 -1.71848E+04 -4.11037E+03  7.67703E+03 -6.00243E+03  2.47361E+04  1.39648E+04
  6.18326E+03  3.89902E+04 -3.57850E+04  3.65074E+04 -6.57102E+04  2.40566E+03 -5.92635E+04 -4.57464E+04
 -1.33148E+04 -6.55788E+04  4.34409E+04 -4.82747E+04  6.15782E+04 -1.99737E+03  3.70933E+04  3.42889E+04
 -6.75116E+03  4.01302E+04 -3.36486E+04  2.13934E+04 -3.52408E+04 -4.45460E+03 -2.05272E+04 -1.42688E+04
 -9.26291E+03 -1.48676E+04 -1.40990E+03 -1.86900E+04  8.41146E+03 -2.41993E+04  1.49246E+04 -1.29566E+04
  9.84417E+03  6.93190E+03 -1.13183E+04  1.30485E+04 -2.47263E+04 -6.76719E+03 -7.29451E+03 -3.73188E+04
  2.60750E+04 -4.65615E+04  5.50064E+04 -2.22394E+04  4.81557E+04  2.06423E+04  1.83790E+04  4.94037E+04
 -1.71522E+04  3.83493E+04 -2.70620E+04  5.23754E+03 -1.34382E+04 -3.11001E+04  2.30508E+04 -3.93703E+04
  4.76906E+04 -1.15697E+04  4.27583E+04  2.64048E+04  2.43504E+04  5.29892E+04 -7.86992E+03  5.81563E+04
 -3.73796E+04  4.09108E+04 -5.04095E+04  1.28948E+04 -4.92506E+04 -2.02740E+04 -2.63648E+04 -4.33626E+04
  8.39197E+03 -4.36516E+04  3.60368E+04 -1.68125E+04  3.30419E+04  1.02806E+04  4.80745E+03  2.21313E+04
 -1.23452E+04  9.94540E+03 -1.08467E+04 -6.66965E+03  5.51872E+03 -1.02339E+04  1.90183E+04  6.45985E+03
  1.52355E+04  2.39269E+04 -3.30725E+03  2.89989E+04 -2.29283E+04  1.67527E+04 -3.35740E+04 -2.78609E+03
 -2.80137E+04 -1.86251E+04 -1.23246E+04 -2.68695E+04  6.23853E+03 -2.71481E+04  2.23342E+04 -2.46832E+04
  3.35380E+04 -1.59270E+04  3.99155E+04  7.19478E+03  2.86945E+04  2.73681E+04  5.11357E+03  4.13420E+04
 -2.11269E+04  3.26792E+04 -3.08312E+04  1.08964E+04 -2.11280E+04 -1.01727E+04 -4.95495E+03 -1.30024E+04
  8.94152E+02 -1.69551E+03 -9.43409E+03  9.17658E+03 -2.37527E+04  3.70998E+03 -2.10907E+04 -1.07125E+04
 -1.38735E+04 -2.57019E+04  8.39405E+03 -2.97660E+04  2.05316E+04 -2.31473E+04  2.32686E+04 -3.15327E+03
  1.48261E+04  1.69995E+04 -2.86243E+03  2.56119E+04 -1.74711E+04  1.41625E+04 -2.61021E+04 -3.75380E+03
 -1.91693E+04 -2.20701E+04 -1.48620E+03 -3.01201E+04  1.31147E+04 -2.60019E+04  2.43492E+04 -1.39479E+04
  2.41389E+04 -9.39033E+02  1.61553E+04  5.94306E+03  9.23474E+03  3.56350E+03  1.43831E+04 -3.07723E+03
  2.42662E+04  3.52017E+03  2.87119E+04  1.92590E+04  1.87430E+04  4.09491E+04 -3.14005E+03  4.75140E+04
 -2.89035E+04  4.01927E+04 -4.52177E+04  1.99362E+04 -5.20141E+04 -3.57323E+03 -4.11950E+04 -2.92150E+04
 -1.61654E+04 -4.16076E+04  1.46210E+04 -3.41073E+04  3.12074E+04 -1.86404E+04  2.64681E+04  9.63743E+03
  8.81063E+03  1.95098E+04 -1.26757E+04  1.80484E+04 -1.99020E+04  3.92926E+03 -1.63074E+04 -1.34850E+04
 -2.81497E+02 -1.96740E+04  1.13814E+04 -1.43612E+04  1.49167E+04 -3.29359E-01  2.79827E+03  1.07132E+04
 -9.75277E+03  4.17992E+03 -8.56436E+03 -8.36778E+03 -3.35170E+03 -1.89506E+04  1.30551E+04 -2.25847E+04
  2.51662E+04 -1.33086E+04  2.95435E+04  4.57277E+03  2.65203E+04  2.04569E+04  1.27885E+04  3.33613E+04
 -7.80256E+03  3.51847E+04 -2.30794E+04  2.20478E+04 -2.51615E+04  4.39132E+03 -1.85643E+04 -8.64595E+03
 -6.26571E+03 -8.64686E+03  2.15286E+03  8.01639E+02 -2.55256E+03  2.58734E+03 -7.54748E+03  4.88130E+03
 -1.65914E+04 -1.61511E+03 -1.69160E+04 -1.26807E+04 -7.93112E+03 -2.06049E+04  6.21981E+03 -1.76477E+04
  1.49077E+04 -7.49158E+03  1.00543E+04  5.03818E+03 -7.47886E+02  6.65189E+03 -8.68169E+03  6.69536E+02
 -8.97597E+03 -1.07415E+04 -2.29550E+03 -1.92754E+04  9.02374E+03 -1.86428E+04  2.07281E+04 -8.99310E+03
  2.70266E+04  2.41049E+03  1.90406E+04  1.68374E+04  3.72896E+03  2.26594E+04 -1.04198E+04  1.89161E+04
 -1.44031E+04  4.59820E+03 -7.58930E+03 -2.35672E+03  3.12288E+03 -6.43477E+03  1.05043E+04 -3.13923E+03
  7.87262E+03  7.48841E+03  1.16215E+03  1.28374E+04 -1.08710E+04  1.46456E+04 -1.73019E+04  2.96478E+03
 -1.17582E+04 -9.66178E+03 -3.52615E+02 -1.54097E+04  9.85322E+03 -7.40281E+03  1.14003E+04  3.73967E+03
  2.90358E+03  1.20724E+04 -9.91774E+03  1.43735E+04 -1.65522E+04  5.34976E+03 -1.82211E+04 -6.81698E+03
 -1.12889E+04 -1.73936E+04  4.94893E+03 -2.11542E+04  1.92223E+04 -1.43982E+04  2.06915E+04  1.45638E+03
  1.13001E+04  1.66642E+04  9.85109E+02  1.81903E+04 -1.24557E+04  9.98676E+03 -1.54110E+04 -4.83739E+02
 -1.13227E+04 -1.26701E+04 -1.14707E+03 -1.35965E+04  8.05445E+03 -9.95963E+03  9.08111E+03 -5.66570E+03
  5.73860E+03  3.49165E+03 -1.30518E+03  2.35642E+03 -6.10641E+02 -3.18718E+03  2.64111E+03 -9.97655E+03
  1.40886E+04 -6.04193E+03  1.87447E+04  1.84275E+03  1.90272E+04  1.36200E+04  1.27843E+04  2.47985E+04
 -7.12651E+03  2.83899E+04 -2.26040E+04  2.11140E+04 -3.14676E+04  3.38669E+03 -2.58388E+04 -1.19772E+04
 -1.13741E+04 -2.17038E+04 -6.16934E+02 -1.72524E+04  6.81197E+03 -9.30190E+03  6.27665E+03 -6.71638E+03
  5.28224E+03 -3.82789E+03  4.63058E+03 -4.49153E+03  4.21590E+03 -6.07631E+03  9.53513E+03 -2.93816E+03
  1.44683E+04  2.44842E+03  6.56425E+03  1.04421E+04 -2.80060E+03  1.36886E+04 -1.35693E+04  1.04269E+04
 -1.78128E+04 -1.42836E+03 -1.23368E+04 -1.38789E+04 -2.34463E+03 -1.90675E+04  1.12367E+04 -1.93954E+04
  2.15871E+04 -1.07299E+04  2.26423E+04  5.56782E+03  1.59888E+04  1.84013E+04  2.71764E+03  2.17416E+04
 -8.87934E+03  1.50721E+04 -9.59662E+03  4.43885E+03 -1.05532E+04 -5.55749E+02 -4.03466E+03 -2.36434E+03
 -1.16828E+03  2.90582E+02 -4.48952E+03  5.09586E+03 -9.64106E+03  3.45282E+03 -1.19888E+04 -5.28819E+00
 -7.56939E+03 -1.20721E+04  6.04058E+02 -1.77096E+04  1.06475E+04 -1.59460E+04  1.90371E+04 -6.05164E+03
  1.87942E+04  8.74271E+03  8.60285E+03  1.75907E+04 -3.97948E+03  1.97315E+04 -1.34957E+04  1.19273E+04
 -1.83169E+04 -7.29990E+02 -1.26619E+04 -1.06892E+04 -1.65121E+03 -1.55779E+04  8.84339E+03 -1.08803E+04
  1.04796E+04 -4.35065E+03  8.15902E+03  3.14359E+03  2.35710E+03  2.83498E+03 -7.38497E+01  4.28889E+03
  8.48853E+02  3.23004E+02  4.21196E+03  3.80137E+03  5.01276E+03  4.29333E+03  2.45384E+03  1.01441E+04
 -4.46815E+03  1.58497E+04 -1.22620E+04  1.55177E+04 -2.09482E+04  4.49080E+03 -2.12291E+04 -9.22037E+03
 -9.96645E+03 -1.95452E+04  1.97548E+03 -2.18993E+04  1.35789E+04 -1.39959E+04  1.62921E+04 -5.21408E+03
  1.36223E+04  7.98408E+03  2.40623E+03  1.16163E+04 -5.57845E+03  6.99657E+03 -1.01563E+04 -1.00078E+03
 -3.54045E+03 -1.04680E+04  4.76373E+03 -8.41527E+03  9.14785E+03 -4.29558E+03  8.10564E+03  2.13728E+03
  5.21429E+03  4.34039E+03  1.54761E+03  4.55340E+03 -2.17864E+03  2.14448E+03  1.16098E+02 -9.68826E+02
  3.97009E+03 -2.55845E+02  8.21199E+03  1.81274E+03  4.89848E+03  8.71769E+03 -8.12963E+02  1.40632E+04
 -1.05760E+04  8.78222E+03 -1.39576E+04  1.33090E+03 -1.20951E+04 -3.46804E+03 -5.22324E+03 -8.13789E+03
  2.65021E+03 -6.62022E+03  3.91126E+03 -3.82564E+03  4.34037E+03  3.42538E+03 -2.23649E+03  6.42579E+03
 -7.24354E+03  3.99583E+03 -9.96945E+03 -6.19134E+03 -4.73481E+03 -9.92939E+03  2.11810E+03 -1.29383E+04
  8.56795E+03 -6.73580E+03  8.03797E+03 -1.61470E+03  6.04811E+03  2.50391E+03  2.85901E+02  5.17988E+03
 -4.54702E+03  1.88050E+03 -5.25773E+03 -2.59593E+03  2.33920E+03 -9.21820E+03  1.04934E+04 -8.72532E+03
  1.47886E+04 -3.04079E+02  1.20644E+04  8.05618E+03  5.11011E+03  1.59908E+04 -5.97073E+03  1.20070E+04
 -1.17509E+04  5.34988E+03 -1.31380E+04 -2.44825E+03 -6.14922E+03 -9.24055E+03 -6.94341E+02 -8.38350E+03
  8.40496E+03 -6.55203E+03  6.23463E+03  3.13906E+03  3.40191E+03  6.29124E+03 -2.79505E+03  5.97602E+03
 -4.13092E+03  6.72251E+03 -5.32127E+03  3.69033E+03 -4.01721E+02  3.78377E+02 -3.46099E+03  8.77316E+02
 -3.80955E+03  6.16385E+03 -1.11825E+04  5.99386E+03 -1.20288E+04 -3.61344E+02 -1.60574E+04 -1.13579E+04
 -7.90287E+03 -1.76280E+04  1.26552E+03 -2.11820E+04  1.44856E+04 -1.48374E+04  1.91692E+04 -7.46463E+03
  1.76466E+04  4.00434E+03  1.18747E+04  1.26325E+04  2.26586E+03  1.37760E+04 -5.25428E+03  9.70391E+03
 -7.67744E+03  4.46266E+03 -4.78750E+03 -8.81492E+02 -7.33036E+02 -5.70335E+02  8.94321E+01 -1.40572E+03
 -7.20682E+02  1.64395E+02 -2.59472E+03 -1.92585E+03 -3.38504E+03 -2.86935E+03 -3.43318E+02 -5.14025E+03
  4.77722E+03 -7.41325E+03  8.94221E+03 -1.55583E+03  1.02466E+04  8.74108E+03  4.58151E+03  1.43889E+04
 -7.45931E+03  1.63528E+04 -1.52058E+04  7.55542E+03 -1.82260E+04 -2.31695E+03 -1.38757E+04 -1.11420E+04
 -6.97599E+03 -1.48129E+04  4.45829E+03 -1.35389E+04  9.80949E+03 -7.60063E+03  1.04577E+04  9.09621E+02
  5.68889E+03  4.51315E+03 -7.66752E+02  5.24335E+03 -3.62328E+03 -1.49344E+03  8.89352E+01 -2.77512E+03
  5.76554E+03 -2.76063E+03  5.75802E+03  1.32404E+03  4.83073E+03  6.12166E+03  4.70590E+02  9.58315E+03
 -5.30467E+03  5.53512E+03 -1.06431E+04  4.90413E+02 -8.12346E+03 -5.37086E+03 -2.96750E+02 -1.16308E+04
  5.93631E+03 -1.08534E+04  1.19872E+04 -1.83753E+03  1.20819E+04  3.06489E+03  6.38813E+03  1.03159E+04
  1.71775E+02  1.02251E+04 -4.91493E+03  8.11466E+03 -6.50934E+03  3.48811E+03 -6.39010E+03  4.80935E+02
 -1.73729E+03  1.35131E+03 -2.48918E+03  1.02092E+03 -6.40898E+03  9.86723E+01 -7.03947E+03 -5.57880E+02
 -6.45095E+03 -5.00246E+03 -3.86290E+03 -1.06124E+04  5.26581E+03 -1.12401E+04  8.43818E+03 -4.53392E+03
  9.86525E+03  6.94374E+02  6.51154E+03  8.21855E+03 -3.78301E+02  8.82002E+03 -6.73140E+03  6.66810E+03
