 $NMID ID='MM_0lb_SNR200_12hz_g50_10.RAW', FMTDAT='(8E13.5)'
 TRAMP=1., VOLUME=1. $END
  3.09129E+05  9.05141E+02  3.38309E+05  2.50423E+05  8.49682E+04  3.37738E+05 -1.33267E+05  2.51196E+05
 -1.90509E+05  8.35047E+04 -1.12746E+05 -3.27387E+04  8.36128E+02 -5.04567E+04  5.31918E+04  9.47262E+02
  3.48413E+04  5.37010E+04 -1.45459E+04  7.55902E+04 -5.93402E+04  6.46085E+04 -8.35850E+04  3.23724E+04
 -8.13193E+04 -1.14053E+04 -5.82450E+04 -5.18908E+04 -1.68562E+04 -7.09831E+04  2.71135E+04 -4.55222E+04
  3.91217E+04  2.96745E+03  1.62272E+04  4.80829E+04 -3.54172E+04  4.63869E+04 -6.64464E+04  1.22387E+01
 -5.41341E+04 -5.82077E+04 -7.16180E+03 -7.72156E+04  3.51799E+04 -5.47086E+04  4.78660E+04 -1.81164E+04
  4.37992E+04  1.01831E+04  3.16710E+04  2.73350E+04  1.52278E+04  2.96829E+04 -4.75373E+03  2.74538E+04
 -2.37880E+04  1.18900E+04 -1.77637E+04 -5.32015E+03  6.14271E+03 -8.73801E+03  2.21294E+04  1.22583E+04
  7.04190E+03  3.57499E+04 -3.32419E+04  3.53280E+04 -6.33315E+04  2.08188E+03 -5.76868E+04 -4.31692E+04
 -1.26497E+04 -6.44390E+04  4.09457E+04 -4.60258E+04  5.85024E+04 -2.23156E+03  3.56069E+04  3.21123E+04
 -6.62012E+03  3.79245E+04 -3.06781E+04  1.70783E+04 -2.98888E+04 -5.17754E+03 -1.67308E+04 -1.23195E+04
 -9.19779E+03 -1.44714E+04 -1.48370E+03 -1.93967E+04  7.03765E+03 -2.52533E+04  1.70035E+04 -1.25716E+04
  1.05483E+04  5.07523E+03 -9.55685E+03  1.38714E+04 -2.27403E+04 -6.19271E+03 -8.22524E+03 -3.52428E+04
  2.54787E+04 -4.49870E+04  4.98773E+04 -2.04206E+04  4.67559E+04  2.03436E+04  1.57792E+04  4.58362E+04
 -1.52039E+04  3.44711E+04 -2.63917E+04  2.29404E+03 -8.88935E+03 -2.82794E+04  2.02219E+04 -3.54819E+04
  4.28329E+04 -9.22225E+03  3.70115E+04  2.38397E+04  1.94169E+04  4.96008E+04 -8.61870E+03  5.25518E+04
 -3.33843E+04  3.63333E+04 -4.35496E+04  9.68271E+03 -4.54284E+04 -1.68152E+04 -2.36117E+04 -4.00387E+04
  6.00328E+03 -3.87875E+04  3.32794E+04 -1.71067E+04  3.06911E+04  1.04349E+04  4.77110E+03  1.91454E+04
 -1.41478E+04  9.54379E+03 -1.18692E+04 -8.35649E+03  6.05165E+03 -1.08106E+04  1.83192E+04  5.61834E+03
  1.34940E+04  2.28774E+04 -5.72775E+03  2.50571E+04 -2.18604E+04  1.16685E+04 -2.89241E+04 -4.29301E+03
 -2.18600E+04 -1.78167E+04 -1.06518E+04 -2.08574E+04  4.50471E+03 -2.11449E+04  1.83998E+04 -2.00819E+04
  2.83805E+04 -1.24841E+04  3.51853E+04  3.57008E+03  2.46201E+04  2.20002E+04  4.43729E+03  3.84091E+04
 -1.87518E+04  3.18941E+04 -2.81795E+04  1.11054E+04 -2.13940E+04 -1.11453E+04 -3.78001E+03 -1.35730E+04
  9.63098E+02 -1.75752E+03 -6.95523E+03  7.74090E+03 -1.84730E+04  5.18683E+03 -1.77800E+04 -8.34914E+03
 -8.24950E+03 -2.19124E+04  5.41480E+03 -2.49759E+04  1.78896E+04 -1.70901E+04  1.96204E+04 -2.06312E+03
  1.17003E+04  1.48206E+04 -1.25703E+03  2.19891E+04 -1.51866E+04  1.21941E+04 -2.17060E+04 -5.46483E+03
 -1.53061E+04 -1.76862E+04 -1.80558E+03 -2.52740E+04  1.08356E+04 -2.06756E+04  2.16875E+04 -1.01452E+04
  1.95432E+04  2.67831E+02  1.26281E+04  3.99367E+03  8.33855E+03  1.99395E+03  1.06605E+04 -1.90637E+03
  2.04242E+04  3.89600E+03  2.22357E+04  1.61965E+04  1.46005E+04  3.40015E+04 -3.94939E+03  3.97995E+04
 -2.07236E+04  3.16419E+04 -3.52267E+04  1.55581E+04 -3.69830E+04 -2.92961E+03 -3.06709E+04 -2.26691E+04
 -1.28234E+04 -3.09083E+04  1.00664E+04 -2.74991E+04  2.45137E+04 -1.40835E+04  2.12134E+04  6.05463E+03
  7.79923E+03  1.65004E+04 -9.51622E+03  1.40497E+04 -1.78756E+04  1.49277E+03 -1.35945E+04 -1.18314E+04
  8.75210E+02 -1.55716E+04  8.91557E+03 -1.25097E+04  1.26299E+04 -5.23052E+02  3.44077E+03  6.86540E+03
 -7.67247E+03  3.83892E+03 -7.33751E+03 -5.54848E+03 -8.41097E+02 -1.62376E+04  9.71389E+03 -1.60593E+04
  1.84794E+04 -1.09806E+04  2.12457E+04  9.86874E+02  1.80750E+04  1.59788E+04  9.03749E+03  2.45125E+04
 -3.64463E+03  2.55506E+04 -1.63143E+04  1.57687E+04 -1.90012E+04  4.03650E+03 -1.26690E+04 -4.63427E+03
 -4.56938E+03 -4.86433E+03 -5.08536E+02  1.03268E+03 -2.85543E+03  1.94570E+03 -6.14138E+03  5.12858E+03
 -1.25934E+04  6.68286E+02 -1.28061E+04 -1.07813E+04 -4.21469E+03 -1.66359E+04  4.31249E+03 -1.39555E+04
  1.19232E+04 -4.25417E+03  7.93777E+03  3.56809E+03  3.44400E+02  5.47932E+03 -5.54589E+03 -1.17936E+02
 -5.67672E+03 -8.16437E+03 -2.06784E+03 -1.20771E+04  5.06944E+03 -1.28683E+04  1.65118E+04 -5.27963E+03
  1.94874E+04  2.72694E+03  1.47923E+04  1.05938E+04  4.30532E+03  1.50039E+04 -8.12227E+03  1.30723E+04
 -9.92780E+03  3.32044E+03 -5.79713E+03 -2.14372E+03  6.80556E+02 -4.20281E+03  6.58582E+03 -8.81256E+02
  5.78885E+03  5.19205E+03  1.77612E+02  1.06753E+04 -6.58413E+03  9.66961E+03 -1.37714E+04  2.54967E+03
 -9.44033E+03 -5.86964E+03  1.90495E+02 -1.07046E+04  7.37382E+03 -5.98826E+03  7.66518E+03  3.30466E+03
  9.08828E+02  7.68792E+03 -7.92466E+03  9.73691E+03 -1.01399E+04  5.24865E+03 -9.95982E+03 -3.46447E+03
 -5.52088E+03 -1.28156E+04  3.23160E+03 -1.37085E+04  1.24356E+04 -8.12853E+03  1.25315E+04  1.80081E+03
  6.47946E+03  8.71530E+03 -8.42570E+02  1.31974E+04 -8.83107E+03  7.48637E+03 -9.96520E+03  6.19501E+02
 -8.82424E+03 -7.62504E+03 -1.37436E+03 -9.45964E+03  4.97586E+03 -6.89233E+03  5.74409E+03 -2.30042E+03
  3.25860E+03  3.96641E+02 -7.26161E+02  2.73596E+03 -6.22585E+02 -1.53938E+03  1.94377E+03 -3.53049E+03
  7.52852E+03 -3.58238E+03  1.24072E+04  2.51397E+03  1.23639E+04  8.12846E+03  7.65566E+03  1.73783E+04
 -3.55093E+03  1.73447E+04 -1.43099E+04  1.38772E+04 -1.81525E+04  2.19779E+03 -1.60436E+04 -6.52015E+03
 -8.44599E+03 -1.26417E+04  7.95947E+02 -1.01075E+04  4.69965E+03 -6.18190E+03  4.81887E+03 -3.96273E+03
  1.77233E+03 -2.47844E+03  3.85946E+03 -3.80933E+03  5.45906E+03 -1.65456E+03  5.82159E+03 -9.76459E+02
  7.40105E+03  1.05160E+03  3.90610E+03  6.25826E+03 -2.14591E+03  8.25209E+03 -7.85778E+03  5.74238E+03
 -1.23272E+04 -1.01885E+03 -6.36943E+03 -6.52384E+03 -2.37560E+02 -1.08312E+04  6.31361E+03 -1.12035E+04
  1.23595E+04 -5.87035E+03  1.38485E+04  1.87129E+03  9.18861E+03  9.40456E+03  1.46512E+03  1.44601E+04
 -4.84624E+03  1.12612E+04 -7.21331E+03  4.11207E+03 -4.10281E+03 -1.09891E+03 -3.22424E+03 -1.54779E+03
 -1.70685E+03  4.16886E+02 -2.00811E+03  2.28164E+03 -4.86171E+03  8.08479E+02 -6.68551E+03 -7.60778E+02
 -3.74603E+03 -7.24261E+03  3.83676E+02 -1.00856E+04  6.56690E+03 -1.00794E+04  1.13069E+04 -3.99011E+03
  1.03459E+04  4.12548E+03  3.72374E+03  9.55163E+03 -1.98482E+03  9.80119E+03 -7.54261E+03  5.49241E+03
 -9.49715E+03  3.32478E+02 -8.69528E+03 -6.94235E+03  3.73677E+01 -9.74525E+03  5.29636E+03 -6.55950E+03
  5.42125E+03 -1.24994E+03  4.42547E+03  9.04483E+02  2.38100E+03  3.73698E+03  1.22589E+03  3.07085E+02
  2.28024E+03  8.42497E+02  2.79022E+03  2.58014E+02  2.46676E+03  2.79828E+03  4.22868E+03  5.49544E+03
 -1.28726E+03  7.60265E+03 -5.47218E+03  8.64510E+03 -9.96322E+03  1.93231E+03 -1.04720E+04 -4.38591E+03
 -5.60885E+03 -1.02463E+04  1.06456E+03 -1.12566E+04  6.35817E+03 -7.72371E+03  9.69063E+03 -9.53628E+02
  6.03464E+03  4.01687E+03  1.62916E+03  6.65172E+03 -1.86562E+03  4.03026E+03 -2.57447E+03 -5.54008E+02
 -1.06981E+03 -4.24677E+03  2.23292E+03 -5.22821E+03  3.77520E+03 -3.32684E+03  4.38503E+03  8.04571E+02
  2.65013E+03  1.69927E+03  1.73228E+03  1.82578E+03 -5.16817E+02  1.53040E+03  2.48382E+03  1.65559E+03
  1.12093E+03 -8.73876E+02  3.49285E+03  4.69226E+02  1.64228E+03  5.60802E+03 -6.24047E+02  7.83899E+03
 -4.46203E+03  4.41401E+03 -5.90479E+03  2.06117E+03 -6.51332E+03 -2.67018E+03 -1.58204E+03 -3.58826E+03
  1.65957E+03 -4.38771E+03  3.62660E+03 -2.09775E+03  2.82062E+03  2.16843E+03 -1.71003E+03  3.95816E+03
 -4.03156E+03  1.97651E+03 -5.27432E+03 -3.26227E+03 -3.52065E+03 -6.76603E+03  2.21397E+02 -4.96939E+03
  2.31726E+03 -3.03135E+03  4.83514E+03  3.28153E+02  5.17165E+03  8.77030E+02  1.82194E+03  2.72558E+03
 -1.83170E+03  1.06533E+03 -2.08235E+03 -2.25901E+03  7.83622E+02 -3.22995E+03  5.20435E+03 -2.62463E+03
  5.97960E+03  8.13393E+02  5.98160E+03  2.62525E+03  5.04000E+02  6.79016E+03 -2.41296E+03  6.21866E+03
 -6.76728E+03  3.35283E+03 -4.26568E+03 -1.08400E+03 -2.89678E+03 -3.43636E+03  8.14995E+02 -3.07839E+03
  4.17495E+03 -2.87395E+03  4.09881E+03  1.01398E+03  1.72434E+03  4.04005E+03  4.90482E+02  3.38093E+03
 -2.66809E+03  1.67553E+03 -1.62001E+03  4.16292E+02 -1.12573E+03 -2.12326E+02 -1.35174E+03  1.02678E+03
 -2.64704E+03  1.18073E+03 -3.88514E+03  2.50745E+03 -6.08281E+03  6.08358E+01 -6.72958E+03 -5.28688E+03
 -4.22207E+03 -7.24179E+03  1.86279E+03 -7.97844E+03  5.26134E+03 -7.52010E+03  7.49970E+03 -3.83387E+03
  8.26282E+03  1.47078E+03  5.32157E+03  5.90081E+03  8.16304E+00  6.68859E+03 -2.03702E+03  5.24990E+03
 -3.00874E+03  2.37573E+03 -1.98681E+03 -6.64049E+02 -5.61878E+02 -1.27350E+03 -5.01888E+02 -3.97337E+02
 -1.00651E+03 -4.75897E+02 -2.17655E+03 -2.98299E+02 -7.99288E+02 -2.03943E+03  4.74161E+02 -1.89039E+03
  2.58246E+03 -1.46116E+03  3.12135E+03 -6.95191E+02  3.95889E+03  2.21778E+03  4.13946E+02  5.27375E+03
 -3.34650E+03  7.19434E+03 -6.42750E+03  3.47845E+03 -6.28456E+03 -6.26292E+02 -5.29403E+03 -4.80997E+03
 -2.84346E+03 -5.91634E+03  1.83461E+03 -4.93751E+03  2.78071E+03 -3.65042E+03  3.11165E+03 -9.86848E+01
  2.62285E+03  1.91145E+03  7.13233E+02  2.73657E+03 -1.37983E+03 -6.95881E+02  2.12847E+02 -1.37486E+03
  1.21616E+03 -9.61130E+02  1.98920E+03  1.63443E+02  1.36146E+03  2.15831E+03  1.20319E+02  2.64158E+03
 -2.66490E+03  2.17046E+03 -4.08326E+03  7.76977E+02 -3.12535E+03 -1.79934E+03  1.60993E+02 -6.34354E+03
  3.12304E+03 -3.92856E+03  3.52308E+03 -3.83048E+01  4.40943E+03 -5.37005E+02  1.73661E+03  3.52749E+03
  2.47543E+03  4.48690E+03 -6.93778E+02  4.56773E+03 -2.31343E+03  1.65570E+03 -1.21894E+03  1.43902E+03
 -1.14474E+03 -1.25416E+01  2.11353E+02 -2.40119E+02 -2.11404E+03  4.18256E+02 -2.40949E+03 -6.47286E+02
 -2.20087E+03 -1.28847E+03 -3.69050E+02 -3.23980E+03  3.42007E+03 -4.58069E+03  2.06948E+03 -2.60994E+03
  3.33008E+03  8.65203E+02  1.65825E+03  2.73480E+03 -1.31746E+02  2.60732E+03 -1.77370E+03  1.19699E+03
