 $NMID ID='MM_0lb_SNR200_14hz_g40_6.RAW', FMTDAT='(8E13.5)'
 TRAMP=1., VOLUME=1. $END
  3.09732E+05  3.22967E+02  3.38376E+05  2.51316E+05  8.42764E+04  3.37265E+05 -1.32142E+05  2.50863E+05
 -1.90753E+05  8.29031E+04 -1.10982E+05 -3.22834E+04  5.36082E+02 -5.05661E+04  5.36345E+04 -4.38351E+02
  3.61285E+04  5.27890E+04 -1.73360E+04  7.57119E+04 -6.03449E+04  6.32458E+04 -8.26791E+04  3.16075E+04
 -8.10973E+04 -1.26203E+04 -5.60311E+04 -5.10312E+04 -1.49018E+04 -7.02507E+04  2.81646E+04 -4.59371E+04
  4.02976E+04  4.21840E+03  1.53603E+04  4.67752E+04 -3.50484E+04  4.72998E+04 -6.64307E+04 -1.28724E+03
 -5.34099E+04 -5.63268E+04 -7.35864E+03 -7.69410E+04  3.46093E+04 -5.44884E+04  4.68725E+04 -1.72267E+04
  4.38217E+04  1.28504E+04  3.04017E+04  2.54072E+04  1.53571E+04  2.92568E+04 -4.55331E+03  2.69671E+04
 -2.13618E+04  1.25460E+04 -1.78284E+04 -4.76623E+03  4.54223E+03 -7.53440E+03  2.10353E+04  1.15692E+04
  7.53736E+03  3.46205E+04 -3.11172E+04  3.43941E+04 -6.28834E+04  2.70703E+03 -5.63389E+04 -4.27329E+04
 -1.18152E+04 -6.23151E+04  3.94422E+04 -4.49401E+04  5.63426E+04 -2.69136E+03  3.34805E+04  3.08097E+04
 -6.61229E+03  3.52018E+04 -2.75732E+04  1.40607E+04 -3.00819E+04 -4.46119E+03 -1.64677E+04 -1.03204E+04
 -7.83618E+03 -1.21216E+04 -5.15936E+01 -1.79657E+04  7.21350E+03 -2.24382E+04  1.55748E+04 -1.37990E+04
  1.10635E+04  4.89366E+03 -7.67079E+03  1.39591E+04 -1.94963E+04 -3.66383E+03 -7.87225E+03 -3.21389E+04
  2.13212E+04 -4.21737E+04  4.80460E+04 -1.92114E+04  4.43834E+04  1.93014E+04  1.53325E+04  4.32424E+04
 -1.59589E+04  3.29217E+04 -2.40450E+04  1.25864E+03 -9.38030E+03 -2.67017E+04  2.12588E+04 -3.37944E+04
  4.14183E+04 -7.02680E+03  3.52881E+04  2.31992E+04  1.70889E+04  4.58363E+04 -7.92660E+03  5.05090E+04
 -3.07664E+04  3.30160E+04 -3.99199E+04  1.00444E+04 -4.14744E+04 -1.66088E+04 -2.27610E+04 -3.72224E+04
  7.52342E+03 -3.64498E+04  3.09491E+04 -1.57029E+04  2.89408E+04  1.00805E+04  4.49117E+03  1.82567E+04
 -1.31466E+04  7.58592E+03 -1.11365E+04 -7.24285E+03  5.84878E+03 -1.00588E+04  1.90003E+04  6.01854E+03
  1.30574E+04  2.20521E+04 -6.41371E+03  2.48713E+04 -2.09901E+04  9.72698E+03 -2.74843E+04 -5.71846E+03
 -1.85584E+04 -1.74760E+04 -7.35230E+03 -1.99489E+04  5.00242E+03 -1.84786E+04  1.52040E+04 -1.77291E+04
  2.47003E+04 -1.31230E+04  3.11367E+04  2.72866E+03  2.45715E+04  1.92231E+04  4.69930E+03  3.52170E+04
 -1.69928E+04  2.91893E+04 -2.82255E+04  1.19309E+04 -2.04973E+04 -1.08384E+04 -4.13403E+03 -1.43513E+04
  1.35019E+03 -4.39442E+03 -4.82314E+03  5.84208E+03 -1.66913E+04  5.00709E+03 -1.46174E+04 -5.56116E+03
 -9.68604E+03 -1.70335E+04  5.24752E+03 -2.25914E+04  1.58571E+04 -1.58499E+04  1.73133E+04 -1.16102E+03
  1.10767E+04  1.23829E+04  6.84922E+01  1.80388E+04 -1.15749E+04  1.03313E+04 -1.87596E+04 -4.24865E+03
 -1.44540E+04 -1.59318E+04 -1.95640E+03 -2.24933E+04  9.95596E+03 -1.74930E+04  1.90892E+04 -9.10216E+03
  1.82229E+04  6.20120E+02  1.23185E+04  5.19868E+03  7.04054E+03 -4.95589E+01  9.35436E+03 -2.35541E+03
  1.61460E+04  2.50180E+03  1.75503E+04  1.34257E+04  1.19654E+04  2.98068E+04 -3.61863E+03  3.19244E+04
 -1.82345E+04  2.64892E+04 -3.17683E+04  1.22801E+04 -3.07101E+04 -2.46422E+03 -2.51226E+04 -1.91215E+04
 -1.11212E+04 -2.59946E+04  9.55468E+03 -2.41176E+04  1.99945E+04 -1.26156E+04  1.79610E+04  5.82766E+03
  7.53257E+03  1.31559E+04 -8.34201E+03  1.22962E+04 -1.53371E+04  2.67038E+03 -1.20689E+04 -1.04553E+04
  5.29810E+02 -1.49726E+04  7.16210E+03 -9.67318E+03  8.74948E+03 -2.49566E+03  2.41946E+03  6.32750E+03
 -6.16048E+03  2.33271E+03 -5.09451E+03 -7.18223E+03  4.32645E+02 -1.26337E+04  9.93070E+03 -1.35946E+04
  1.42915E+04 -7.57779E+03  1.63428E+04  2.48956E+03  1.45022E+04  1.31235E+04  6.87770E+03  1.89663E+04
 -3.24757E+03  2.16320E+04 -1.28616E+04  1.35060E+04 -1.51900E+04  2.38334E+03 -1.03160E+04 -3.13600E+03
 -4.93839E+03 -4.75568E+03 -9.55705E+02  8.50107E+02 -2.14097E+03  3.18238E+03 -6.09079E+03  4.79414E+03
 -8.79620E+03 -2.02836E+03 -9.61031E+03 -7.40765E+03 -5.31705E+03 -1.42971E+04  4.32960E+03 -1.13573E+04
  9.58123E+03 -5.55479E+03  5.04813E+03  2.45766E+03  3.96507E+02  4.36182E+03 -4.62687E+03  5.76906E+01
 -4.72724E+03 -6.69293E+03 -5.01616E+02 -1.06159E+04  7.04236E+03 -9.93194E+03  1.23949E+04 -6.47794E+03
  1.50648E+04  9.47789E+02  1.08834E+04  8.07658E+03  2.81014E+03  1.30043E+04 -7.12123E+03  1.04257E+04
 -8.21286E+03  3.90476E+03 -5.11662E+03 -2.69430E+03  2.65041E+03 -1.89581E+03  5.36190E+03 -7.15304E+02
  4.54852E+03  5.52992E+03 -1.75013E+02  8.36772E+03 -5.67052E+03  8.80243E+03 -1.14186E+04  1.74384E+03
 -6.03108E+03 -5.35354E+03  4.15829E+02 -8.81436E+03  5.97827E+03 -3.41736E+03  5.54877E+03  3.34977E+03
  1.68924E+03  6.49531E+03 -3.96927E+03  7.61753E+03 -6.90866E+03  4.19636E+03 -7.55024E+03 -3.56064E+02
 -4.73977E+03 -1.05505E+04  2.03160E+03 -1.11724E+04  8.67587E+03 -7.21988E+03  9.15879E+03  1.12849E+03
  6.22726E+03  8.03784E+03  1.84394E+02  9.53800E+03 -7.93590E+03  5.77010E+03 -7.90601E+03 -6.05754E+02
 -7.72478E+03 -8.32720E+03 -1.86588E+03 -6.80993E+03  3.28074E+03 -6.13290E+03  4.75346E+03 -2.97937E+03
  3.47661E+03  2.12212E+03 -7.48812E+02  2.27961E+03  8.80602E+02 -7.41959E+02  1.69794E+03 -2.89534E+03
  6.54516E+03 -9.40841E+02  8.40244E+03  1.01897E+03  8.67566E+03  5.87754E+03  6.41086E+03  1.19133E+04
 -2.24844E+03  1.31122E+04 -1.06518E+04  8.53014E+03 -1.44601E+04  2.36744E+03 -1.34661E+04 -5.37036E+03
 -5.38554E+03 -9.54294E+03 -3.28042E+02 -9.06884E+03  2.08033E+03 -3.17204E+03  2.74228E+03 -2.52201E+03
  1.29785E+03 -2.36579E+03  2.53959E+03 -2.02783E+03  3.90080E+03 -1.82090E+03  4.73815E+03  5.63056E+02
  5.96593E+03  2.62631E+02  2.47837E+03  6.03077E+03 -1.31663E+03  5.92782E+03 -6.37461E+03  5.50396E+03
 -7.88881E+03 -2.31678E+03 -4.17343E+03 -5.53483E+03  1.98951E+02 -7.74250E+03  4.99825E+03 -9.45828E+03
  8.75998E+03 -4.67457E+03  1.15329E+04  3.67964E+02  6.69805E+03  6.86867E+03  8.64620E+02  1.03604E+04
 -4.05873E+03  8.73515E+03 -5.01881E+03  2.49844E+03 -3.52727E+03 -1.78832E+03 -1.52283E+03 -1.10158E+03
 -1.38416E+03  1.13492E+03 -8.88995E+02  1.73995E+03 -3.77420E+03  2.20781E+03 -5.94399E+03 -2.74218E+02
 -4.41813E+03 -6.15221E+03  6.91345E+02 -8.67028E+03  4.91466E+03 -8.53821E+03  6.77104E+03 -2.30254E+03
  6.47245E+03  3.73304E+03  3.47187E+03  6.32966E+03 -1.11327E+03  7.73537E+03 -4.13222E+03  5.10312E+03
 -6.64426E+03  1.40846E+03 -6.25006E+03 -4.63887E+03 -1.22100E+03 -5.91025E+03  2.65896E+03 -4.14200E+03
  4.68837E+03 -1.80620E+03  2.96235E+03  6.09105E+02  1.12377E+03  2.25621E+03  6.76156E+02  1.10392E+03
  2.04913E+03 -5.32613E+02  3.42146E+03  1.83367E+03  3.15072E+03  4.49633E+03  2.03916E+03  1.96727E+03
 -5.40652E+02  6.33511E+03 -5.06267E+03  5.91256E+03 -7.17125E+03  1.97220E+03 -7.95236E+03 -1.01618E+03
 -4.38275E+03 -5.68467E+03  1.25146E+03 -8.23290E+03  3.13351E+03 -4.85791E+03  5.52124E+03 -1.93762E+03
  4.71084E+03  3.04063E+03  1.14479E+03  3.73035E+03 -1.48446E+03  3.02999E+03 -2.13777E+03 -8.84751E+02
 -8.93227E+02 -2.49192E+03  9.71672E+02 -3.65369E+03  2.98405E+03 -3.51460E+02  3.27472E+03  8.74361E+02
  1.90691E+03  9.13299E+02  1.47141E+02 -7.97533E+02 -2.85184E+02  1.19123E+03  1.99922E+03 -9.50175E+02
  9.36900E+02  2.37489E+02  1.88489E+03  5.08999E+02  3.23820E+01  3.67439E+03 -2.94169E+01  5.04869E+03
 -4.12409E+03  3.49105E+03 -4.27499E+03  1.64534E+03 -4.13053E+03 -1.33322E+03 -1.06057E+03 -2.89198E+03
  5.37754E+02 -3.16933E+03  1.29780E+03 -2.27791E+03  1.53147E+03  1.83476E+03 -7.02408E+02  2.23968E+03
 -3.43957E+03  9.53380E+02 -2.98138E+03 -1.54795E+03 -1.91454E+03 -4.59629E+03 -3.41219E+02 -3.62866E+03
  2.19253E+03 -2.07201E+03  2.30227E+03  3.34231E+02  2.45365E+03  2.24073E+02  1.54119E+03  1.83857E+03
 -1.06698E+03 -3.13890E+02 -1.41039E+03 -1.66525E+03 -1.89364E+02 -2.80018E+03  3.30177E+03 -2.22988E+03
  2.86752E+03 -8.62052E+02  4.65355E+03  2.03022E+03  3.24864E+03  4.24286E+03 -7.96036E+02  3.82546E+03
 -2.57272E+03  6.16810E+02 -3.61546E+03 -8.41934E+02 -1.67676E+03 -3.52491E+03  5.25860E+02 -1.91948E+03
  2.00082E+03 -1.32050E+03  2.51640E+03  8.29279E+02 -7.64205E+02  2.62181E+03 -8.59021E+01  2.35000E+03
 -2.04959E+02  1.98492E+03 -3.46604E+02 -5.43128E+02  9.81474E+01  1.21847E+03 -1.14734E+03  7.55853E+02
 -1.18742E+03  8.25416E+02 -3.10967E+03  1.81566E+03 -4.10454E+03  3.55831E+02 -4.96567E+03 -2.56992E+03
 -2.99714E+03 -4.97936E+03  7.34127E+02 -6.34248E+03  3.54458E+03 -5.69042E+03  6.31849E+03 -2.09105E+03
  6.45738E+03  6.64215E+02  3.07836E+03  3.01651E+03  6.89911E+02  3.68470E+03 -1.30358E+03  3.59698E+03
 -9.96264E+02 -5.88295E+01 -2.32079E+03 -1.26022E+03  3.39477E+02  1.97415E+03 -7.89787E+02 -4.95962E+02
 -1.20946E+03  1.52272E+03 -5.67391E+02  2.85758E+02  8.19696E+02 -1.06410E+03  1.91727E+02 -2.12939E+03
  1.18134E+03 -1.67338E+03  2.47932E+03  1.31767E+02  3.04315E+03  3.11580E+03  6.02344E+02  3.58313E+03
 -1.04995E+03  4.81396E+03 -4.84746E+03  2.68714E+03 -5.69662E+03 -6.16993E+02 -3.58447E+03 -2.61978E+03
 -1.50500E+03 -4.14737E+03  9.59242E+01 -3.56127E+03  1.68815E+03 -1.62708E+03  1.96206E+03 -6.90186E+02
  1.23046E+03  6.49060E+02  2.10734E+02  1.02144E+03 -8.47305E+00  6.42586E+02 -5.98357E+02 -7.85214E+01
  6.66116E+02 -1.13704E+03  6.12540E+02  7.28937E+02  1.12008E+03  1.26626E+03 -2.17534E+01  1.67059E+03
 -1.22482E+03  1.27247E+03 -1.79556E+03  1.34027E+02 -2.86551E+03 -8.04996E+02 -9.06472E+02 -3.54076E+03
  1.19851E+03 -2.02301E+03  3.19906E+03 -1.43462E+03  2.36174E+03 -1.21537E+02  1.69061E+03  1.42315E+03
 -5.59061E+01  2.60803E+03 -1.68728E+03  1.76461E+03 -1.41108E+03  1.27251E+03 -1.14181E+03  6.38779E+02
 -5.85332E+02 -8.31292E+02 -1.22416E+03  9.39805E+02 -8.44985E+02  3.15587E+02 -1.59341E+03  4.25444E+02
 -1.23271E+03  2.23288E+02  9.91963E-01 -1.15163E+03  3.55156E+02 -2.22379E+03  2.88447E+03 -1.28690E+03
  2.30861E+03  1.24064E+03  9.85245E+01  1.72782E+03 -2.86375E+02  1.87596E+03 -4.08808E+02  1.32791E+03
