 $NMID ID='MM_0lb_SNR200_7hz_g40_55.RAW', FMTDAT='(8E13.5)'
 TRAMP=1., VOLUME=1. $END
  3.09423E+05 -7.29439E+02  3.41701E+05  2.49808E+05  8.28951E+04  3.38727E+05 -1.31460E+05  2.52554E+05
 -1.91403E+05  8.46063E+04 -1.11844E+05 -3.39403E+04  2.74783E+03 -5.02055E+04  5.27340E+04  1.38682E+02
  3.67830E+04  5.25178E+04 -1.61746E+04  7.63319E+04 -5.94803E+04  6.46152E+04 -8.62738E+04  3.23635E+04
 -8.12511E+04 -1.23730E+04 -5.72549E+04 -5.36194E+04 -1.52830E+04 -6.96940E+04  2.73069E+04 -4.62045E+04
  4.18774E+04  4.97853E+03  1.76330E+04  4.93348E+04 -3.41982E+04  4.78213E+04 -6.91665E+04 -5.23800E+02
 -5.55162E+04 -5.84149E+04 -6.65886E+03 -7.97883E+04  3.47992E+04 -5.60224E+04  5.07019E+04 -1.83746E+04
  4.66531E+04  1.13207E+04  3.35553E+04  2.69712E+04  1.78410E+04  3.21066E+04 -5.59330E+03  2.91245E+04
 -2.21619E+04  1.22803E+04 -1.75256E+04 -6.79329E+03  8.68434E+03 -7.96084E+03  2.48956E+04  1.33337E+04
  7.58797E+03  3.74677E+04 -3.37997E+04  3.73712E+04 -6.53874E+04  2.26933E+03 -5.95807E+04 -4.52400E+04
 -1.12304E+04 -6.53196E+04  4.13053E+04 -4.65369E+04  6.16763E+04 -1.89215E+03  3.62039E+04  3.43292E+04
 -5.01669E+03  3.91506E+04 -3.17212E+04  1.85593E+04 -3.21744E+04 -2.58080E+03 -1.88635E+04 -1.17779E+04
 -9.60927E+03 -1.55690E+04 -1.72836E+03 -2.01424E+04  6.92296E+03 -2.39376E+04  1.61473E+04 -1.31384E+04
  1.10486E+04  6.30932E+03 -1.02004E+04  1.28846E+04 -2.40835E+04 -6.33193E+03 -8.48496E+03 -3.84506E+04
  2.62475E+04 -4.85473E+04  5.02716E+04 -2.06818E+04  5.03656E+04  2.07792E+04  1.75520E+04  4.74862E+04
 -1.56106E+04  3.74926E+04 -2.91035E+04  2.41627E+03 -1.27437E+04 -3.06170E+04  2.14859E+04 -3.73052E+04
  4.58044E+04 -1.01873E+04  4.35176E+04  2.51019E+04  2.06592E+04  5.21276E+04 -8.89567E+03  5.57994E+04
 -3.67570E+04  4.00808E+04 -4.82853E+04  1.27782E+04 -4.93350E+04 -1.87381E+04 -2.77579E+04 -4.29957E+04
  9.39318E+03 -4.27107E+04  3.55959E+04 -1.70321E+04  3.16993E+04  1.11603E+04  5.32405E+03  2.17658E+04
 -1.48325E+04  9.12104E+03 -1.18434E+04 -8.69430E+03  6.02755E+03 -1.28020E+04  1.87114E+04  6.55737E+03
  1.60652E+04  2.32767E+04 -4.68277E+03  2.74707E+04 -2.37032E+04  1.43366E+04 -3.15185E+04 -4.04457E+03
 -2.71506E+04 -1.92225E+04 -1.38423E+04 -2.56155E+04  3.82708E+03 -2.80475E+04  2.13284E+04 -2.33635E+04
  3.19776E+04 -1.42996E+04  3.67368E+04  5.66216E+03  2.87185E+04  2.70161E+04  5.16376E+03  4.39163E+04
 -2.05736E+04  3.26544E+04 -3.14668E+04  1.32114E+04 -2.22480E+04 -9.10961E+03 -6.13635E+03 -1.20229E+04
 -9.72134E+02  3.29596E+01 -8.32783E+03  7.08188E+03 -2.34775E+04  5.78783E+03 -2.18309E+04 -1.16458E+04
 -1.23234E+04 -2.41178E+04  6.50921E+03 -3.10567E+04  2.09084E+04 -1.97342E+04  2.27196E+04 -2.35063E+03
  1.59817E+04  1.67072E+04 -1.35469E+03  2.42094E+04 -1.71226E+04  1.58221E+04 -2.41214E+04 -5.09089E+03
 -1.88041E+04 -2.21088E+04 -3.76549E+03 -2.87934E+04  1.24861E+04 -2.34091E+04  2.52585E+04 -1.15489E+04
  2.32721E+04 -2.96305E+02  1.69664E+04  4.65660E+03  9.81770E+03  2.32294E+03  1.28875E+04 -2.65195E+03
  2.48093E+04  3.89795E+03  2.67865E+04  1.81933E+04  1.83108E+04  3.86410E+04 -3.87761E+03  4.62756E+04
 -2.75444E+04  4.07824E+04 -4.55933E+04  2.21984E+04 -4.41425E+04 -4.18988E+03 -3.93444E+04 -2.81285E+04
 -1.58210E+04 -4.05557E+04  1.34258E+04 -3.68834E+04  2.99319E+04 -1.43981E+04  2.60780E+04  9.56338E+03
  9.64393E+03  1.93518E+04 -1.11608E+04  1.67863E+04 -2.19167E+04  2.53456E+03 -1.72342E+04 -1.48952E+04
  6.00639E+02 -2.10084E+04  9.95504E+03 -1.49699E+04  1.57134E+04  3.15180E+02  2.76885E+03  8.03505E+03
 -1.04663E+04  3.67339E+03 -9.22088E+03 -6.50842E+03 -2.11091E+03 -1.91359E+04  1.21032E+04 -2.20354E+04
  2.51186E+04 -1.35457E+04  2.88525E+04  4.08236E+03  2.62254E+04  1.98470E+04  1.16578E+04  3.12883E+04
 -7.56386E+03  3.32474E+04 -1.95425E+04  2.10969E+04 -2.53451E+04  5.01078E+03 -1.76357E+04 -6.49886E+03
 -5.26488E+03 -9.01510E+03 -7.53280E+01  6.68172E+02 -4.52884E+03  2.33157E+03 -8.72131E+03  6.31631E+03
 -1.48510E+04 -1.04670E+03 -1.56873E+04 -1.17135E+04 -8.47292E+03 -2.24397E+04  8.12023E+03 -1.77549E+04
  1.32238E+04 -7.51018E+03  1.08668E+04  4.13388E+03  6.31002E+01  4.77780E+03 -9.65239E+03 -1.73492E+03
 -8.62360E+03 -1.26844E+04 -1.59708E+03 -1.69941E+04  8.76005E+03 -1.82466E+04  2.31840E+04 -1.04184E+04
  2.54692E+04  2.50966E+03  1.96828E+04  1.47935E+04  1.64205E+03  2.27389E+04 -1.12263E+04  1.63128E+04
 -1.41968E+04  5.59237E+03 -7.09794E+03 -4.61677E+03  1.88414E+03 -5.95769E+03  7.88835E+03 -5.42270E+02
  6.99371E+03  7.36950E+03  5.35253E+02  1.39075E+04 -1.09274E+04  1.40131E+04 -1.66434E+04  2.25301E+03
 -1.29172E+04 -8.09765E+03  1.72711E+03 -1.58426E+04  9.55760E+03 -6.81585E+03  1.00524E+04  4.26342E+03
  1.50529E+03  1.18388E+04 -8.90575E+03  1.29535E+04 -1.51990E+04  5.64431E+03 -1.61339E+04 -5.37710E+03
 -1.07096E+04 -1.72463E+04  4.77326E+03 -2.10113E+04  1.87818E+04 -1.14325E+04  1.75518E+04  3.37754E+03
  1.03072E+04  1.58325E+04 -1.47910E+03  1.83388E+04 -1.13436E+04  9.53354E+03 -1.48805E+04 -2.11223E+03
 -1.10608E+04 -1.15948E+04 -2.60835E+03 -1.35024E+04  6.07719E+03 -1.18745E+04  1.02885E+04 -3.52122E+03
  6.40671E+03  1.48387E+03 -1.68697E+03  2.49056E+03 -1.85590E+03 -4.95275E+03  3.07045E+03 -8.12826E+03
  1.20387E+04 -6.20151E+03  1.79159E+04  3.44303E+03  1.85529E+04  1.23524E+04  1.18160E+04  2.51665E+04
 -5.10305E+03  2.81467E+04 -2.18623E+04  1.99568E+04 -2.90136E+04  4.02228E+03 -2.31378E+04 -1.18337E+04
 -9.86409E+03 -1.91559E+04 -2.54519E+03 -1.77021E+04  7.43826E+03 -9.26366E+03  4.49273E+03 -7.11327E+03
  4.83904E+03 -2.67306E+03  4.67762E+03 -5.01056E+03  6.41452E+03 -3.15627E+03  9.72471E+03 -3.25138E+03
  1.29012E+04  4.13706E+03  5.36843E+03  1.29599E+04 -3.46547E+03  1.29291E+04 -1.36183E+04  1.08674E+04
 -1.69876E+04  1.96537E+02 -1.15591E+04 -1.29699E+04 -3.38764E+03 -1.85402E+04  1.04500E+04 -1.82373E+04
  1.94659E+04 -1.07346E+04  2.47763E+04  2.81474E+03  1.57194E+04  1.60977E+04  4.02247E+03  2.34546E+04
 -8.89147E+03  1.60473E+04 -1.32531E+04  4.69068E+03 -9.62291E+03 -3.35748E+03 -2.50189E+03 -3.29418E+03
 -1.43310E+03  4.48652E+02 -2.93235E+03  1.49600E+03 -7.67169E+03  1.96681E+03 -1.20018E+04 -2.46800E+03
 -9.39793E+03 -1.12518E+04 -8.17150E+02 -1.61233E+04  1.01020E+04 -1.53538E+04  1.65650E+04 -4.39915E+03
  1.72285E+04  8.58623E+03  8.48472E+03  1.50015E+04 -1.68998E+03  1.82081E+04 -1.31659E+04  1.10808E+04
 -1.63002E+04 -4.21889E+02 -1.17521E+04 -1.07459E+04 -1.33371E+03 -1.61693E+04  7.77633E+03 -1.16512E+04
  1.14297E+04 -4.35136E+03  6.75071E+03  4.25491E+03  2.79713E+03  5.15403E+03  2.26474E+03  3.41126E+03
  4.59486E+03  1.70169E+03  3.55439E+03  2.26171E+03  6.01086E+03  5.11828E+03  4.53732E+03  9.93673E+03
 -3.23336E+03  1.37034E+04 -1.14492E+04  1.51560E+04 -1.77963E+04  3.32072E+03 -1.90044E+04 -8.52088E+03
 -9.88978E+03 -1.83613E+04  2.52035E+03 -1.96654E+04  9.72720E+03 -1.25053E+04  1.56014E+04 -2.05598E+03
  1.01078E+04  6.93090E+03  2.95775E+03  1.10615E+04 -5.14571E+03  7.78179E+03 -5.97353E+03 -2.45771E+03
 -2.53993E+03 -6.14877E+03  2.81841E+03 -8.19602E+03  7.27191E+03 -3.15237E+03  6.07046E+03  9.52307E+02
  3.59700E+03  4.30064E+03  2.64289E+03  2.22407E+03 -7.17423E+02  2.86780E+03  1.84387E+03 -7.51052E+02
  2.30614E+03 -8.83756E+02  7.48432E+03  4.44822E+03  4.23934E+03  7.91128E+03 -1.15683E+03  1.54475E+04
 -8.84667E+03  7.29607E+03 -1.27693E+04  3.33144E+03 -1.21156E+04 -5.66668E+03 -5.31979E+03 -7.56665E+03
  1.51993E+03 -7.45278E+03  4.03425E+03 -4.78495E+03  5.46407E+03  3.83261E+03 -1.11451E+02  5.49174E+03
 -9.06407E+03  4.75478E+03 -1.11054E+04 -4.16533E+03 -3.82009E+03 -1.25830E+04 -5.04941E+02 -1.15129E+04
  5.65469E+03 -6.10825E+03  8.67442E+03  5.01733E+00  5.71236E+03  2.87177E+03  8.87347E+01  4.75435E+03
 -5.39685E+03 -3.83221E+02 -3.66905E+03 -3.84029E+03  5.34609E+02 -8.28818E+03  7.51006E+03 -5.42501E+03
  1.16245E+04  7.17486E+02  1.18100E+04  7.59557E+03  3.52264E+03  1.23834E+04 -3.63834E+03  1.19275E+04
 -1.04244E+04  3.54074E+03 -1.06619E+04 -2.66718E+03 -5.67361E+03 -9.17507E+03  2.32589E+03 -8.56611E+03
  8.29477E+03 -4.34970E+03  6.94246E+03  4.83607E+03  1.82344E+03  8.42897E+03 -1.83508E+03  5.25471E+03
 -4.32374E+03  4.53136E+03 -3.92562E+03  2.20672E+03 -1.52826E+03  5.72045E+02 -2.10014E+02  1.14525E+03
 -3.02248E+03  3.29739E+03 -7.36670E+03  4.20272E+03 -1.33315E+04  2.33315E+03 -1.31821E+04 -8.62005E+03
 -9.98953E+03 -1.75596E+04  2.77162E+03 -1.86985E+04  1.27073E+04 -1.49693E+04  1.91202E+04 -4.29471E+03
  1.73791E+04  3.25264E+03  1.11276E+04  1.35334E+04  2.57464E+03  1.39589E+04 -6.25605E+03  1.23118E+04
 -7.85980E+03  5.76392E+03 -5.59313E+03 -2.59659E+03 -3.22580E+03 -3.08141E+03 -1.52501E+03  1.02383E+03
 -2.34933E+03  1.44393E+03 -3.45153E+03 -8.21776E+02 -2.50267E+03 -5.07673E+03  1.58657E+03 -6.46330E+03
  5.74682E+03 -4.83634E+03  8.41864E+03  5.67982E+02  1.07996E+04  7.16675E+03  1.44639E+03  1.20379E+04
 -4.75358E+03  1.42973E+04 -1.64178E+04  1.11575E+04 -1.63123E+04 -3.35984E+03 -1.44883E+04 -1.00666E+04
 -6.18792E+03 -1.46413E+04  4.57003E+03 -1.36288E+04  9.32364E+03 -8.00319E+03  8.29595E+03 -1.53254E+02
  4.15947E+03  4.50137E+03 -1.89014E+03  3.25784E+03 -2.46285E+03 -1.43742E+03  1.41044E+02 -2.24932E+03
  6.21672E+03 -2.96653E+03  5.53774E+03  3.49738E+03  5.38924E+03  6.20754E+03 -5.41727E+02  9.69187E+03
 -5.09034E+03  5.96637E+03 -8.02020E+03  9.50892E+02 -8.19279E+03 -6.40731E+03 -4.70685E+01 -1.06692E+04
  6.57792E+03 -1.04611E+04  1.06758E+04 -4.43242E+03  1.03598E+04  3.47102E+03  5.27836E+03  8.70570E+03
  4.39208E+02  9.96669E+03 -4.17100E+03  8.61718E+03 -6.19370E+03  3.34802E+03 -3.43771E+03 -1.15291E+03
 -3.15890E+03 -6.48578E+02 -3.24218E+03  1.48614E+03 -5.85862E+03  2.30237E+03 -7.84009E+03 -1.59289E+03
 -6.97425E+03 -6.33583E+03 -2.93649E+03 -9.37224E+03  5.62495E+03 -1.09958E+04  8.13953E+03 -5.41707E+03
  1.03244E+04  1.83331E+03  3.27143E+03  5.65094E+03  2.78030E+02  9.31500E+03 -9.27544E+03  5.87913E+03
