 $NMID ID='MM_0lb_SNR200_11hz_g60_9.RAW', FMTDAT='(8E13.5)'
 TRAMP=1., VOLUME=1. $END
  3.10485E+05  1.02547E+03  3.38314E+05  2.49808E+05  8.51600E+04  3.37507E+05 -1.32997E+05  2.52263E+05
 -1.91295E+05  8.38217E+04 -1.12452E+05 -3.10257E+04  7.55983E+02 -5.13618E+04  5.46095E+04  7.22770E+02
  3.51287E+04  5.16169E+04 -1.67552E+04  7.62508E+04 -6.04747E+04  6.39801E+04 -8.56832E+04  3.26454E+04
 -8.21720E+04 -1.15089E+04 -5.80867E+04 -5.34492E+04 -1.57164E+04 -7.08299E+04  2.89810E+04 -4.70556E+04
  4.23854E+04  3.17279E+03  1.66466E+04  4.86640E+04 -3.52817E+04  4.76671E+04 -6.81084E+04  5.62383E+02
 -5.56478E+04 -5.72346E+04 -7.80516E+03 -7.86950E+04  3.36704E+04 -5.62242E+04  5.09082E+04 -1.79897E+04
  4.36942E+04  1.13016E+04  3.31941E+04  2.68159E+04  1.52065E+04  3.12642E+04 -6.04138E+03  2.73558E+04
 -2.31507E+04  1.14747E+04 -1.90870E+04 -5.10951E+03  7.10584E+03 -7.93745E+03  2.40964E+04  1.24490E+04
  7.40959E+03  3.76830E+04 -3.45340E+04  3.63468E+04 -6.56053E+04  1.52264E+03 -5.76710E+04 -4.37558E+04
 -1.28194E+04 -6.47582E+04  4.25630E+04 -4.73898E+04  6.13934E+04 -2.44431E+03  3.64433E+04  3.45052E+04
 -7.42856E+03  3.94375E+04 -3.14523E+04  1.85034E+04 -3.26691E+04 -3.20246E+03 -1.90441E+04 -1.15940E+04
 -9.21202E+03 -1.52274E+04 -1.29971E+03 -1.88834E+04  7.89117E+03 -2.40740E+04  1.64790E+04 -1.24801E+04
  1.04404E+04  6.47278E+03 -1.03227E+04  1.19724E+04 -2.14345E+04 -6.41122E+03 -8.94916E+03 -3.75609E+04
  2.48190E+04 -4.61009E+04  5.18534E+04 -1.92808E+04  4.95665E+04  2.18981E+04  1.76648E+04  4.90426E+04
 -1.66138E+04  3.56627E+04 -2.72879E+04  3.32053E+03 -1.15979E+04 -3.04481E+04  2.11257E+04 -3.82666E+04
  4.49939E+04 -9.91642E+03  4.01631E+04  2.44835E+04  2.16701E+04  5.07499E+04 -8.14092E+03  5.54038E+04
 -3.49911E+04  3.69162E+04 -4.89572E+04  1.10839E+04 -4.58924E+04 -1.83114E+04 -2.57900E+04 -4.13187E+04
  7.63550E+03 -4.24587E+04  3.39035E+04 -1.68882E+04  3.31787E+04  9.34008E+03  5.63014E+03  2.14054E+04
 -1.46694E+04  9.36664E+03 -1.12030E+04 -7.78385E+03  5.54443E+03 -1.01779E+04  1.83989E+04  6.21056E+03
  1.38294E+04  2.22828E+04 -5.37531E+03  2.75016E+04 -2.38023E+04  1.30211E+04 -3.06480E+04 -2.64143E+03
 -2.39865E+04 -1.92406E+04 -1.15805E+04 -2.34566E+04  3.80989E+03 -2.42455E+04  2.01879E+04 -2.30697E+04
  3.20881E+04 -1.51181E+04  3.60322E+04  5.88128E+03  2.71116E+04  2.41352E+04  6.73250E+03  4.15191E+04
 -1.83426E+04  3.28403E+04 -3.13109E+04  1.09628E+04 -2.23795E+04 -1.05779E+04 -4.05818E+03 -1.41540E+04
  4.88093E+02 -1.73721E+03 -6.73398E+03  8.38702E+03 -1.91717E+04  4.83862E+03 -1.99305E+04 -9.37920E+03
 -1.12462E+04 -2.22546E+04  4.91161E+03 -2.67239E+04  1.79413E+04 -1.91486E+04  2.23230E+04 -2.28067E+03
  1.42128E+04  1.42259E+04 -1.35372E+03  2.21928E+04 -1.47960E+04  1.41147E+04 -2.24629E+04 -4.23613E+03
 -1.66168E+04 -1.94102E+04 -2.25877E+03 -2.54655E+04  1.22284E+04 -2.15034E+04  2.15551E+04 -9.76238E+03
  1.98293E+04 -1.46927E+03  1.47952E+04  3.92631E+03  9.91934E+03  2.78462E+02  1.10516E+04 -1.58986E+03
  2.12806E+04  2.65709E+03  2.37997E+04  1.71823E+04  1.51865E+04  3.51685E+04 -3.68782E+03  4.39647E+04
 -2.41850E+04  3.49314E+04 -4.05642E+04  1.79269E+04 -4.20755E+04 -2.18670E+03 -3.42109E+04 -2.59294E+04
 -1.35989E+04 -3.54680E+04  1.16299E+04 -3.11210E+04  2.84083E+04 -1.44921E+04  2.21114E+04  7.67832E+03
  9.00709E+03  1.73832E+04 -1.17678E+04  1.55442E+04 -1.90963E+04  2.80353E+03 -1.45569E+04 -1.27048E+04
 -2.44338E+02 -1.88539E+04  1.02286E+04 -1.27241E+04  1.23772E+04 -4.33754E+02  3.81277E+03  8.94977E+03
 -8.85958E+03  4.80824E+03 -9.56658E+03 -7.67756E+03 -1.36888E+03 -1.57737E+04  1.21654E+04 -1.78547E+04
  2.15113E+04 -1.07696E+04  2.40969E+04  3.04976E+03  2.42350E+04  1.83175E+04  9.39972E+03  2.64511E+04
 -6.01227E+03  2.90187E+04 -1.87917E+04  1.72320E+04 -2.13110E+04  2.17149E+03 -1.34061E+04 -6.02531E+03
 -5.64820E+03 -5.20922E+03 -1.87525E+03  1.08187E+03 -2.67087E+03  2.07549E+03 -6.37092E+03  3.44448E+03
 -1.30105E+04 -3.16767E+02 -1.51027E+04 -9.37443E+03 -6.41541E+03 -1.93773E+04  6.30834E+03 -1.37529E+04
  1.33660E+04 -6.00255E+03  7.79586E+03  3.33576E+03 -1.61759E+03  6.21900E+03 -9.35675E+03 -9.64700E+02
 -7.23634E+03 -1.05183E+04 -1.59487E+03 -1.33345E+04  6.57952E+03 -1.57836E+04  1.79123E+04 -7.64213E+03
  2.28689E+04  1.07599E+03  1.61234E+04  1.34417E+04  3.19258E+03  1.87039E+04 -8.61495E+03  1.51419E+04
 -1.33944E+04  4.11964E+03 -6.56926E+03 -2.82010E+03  4.20069E+02 -2.06877E+03  6.93986E+03 -2.03433E+03
  6.97335E+03  7.19450E+03  1.00882E+03  1.20584E+04 -8.06433E+03  1.14080E+04 -1.53549E+04  4.00243E+03
 -9.24223E+03 -6.37556E+03 -6.28974E+02 -1.29275E+04  8.41246E+03 -6.72056E+03  8.69124E+03  2.20195E+03
  2.62861E+03  8.53637E+03 -7.20488E+03  1.04683E+04 -1.30462E+04  4.81750E+03 -1.30557E+04 -4.15731E+03
 -7.01876E+03 -1.40465E+04  4.18363E+03 -1.73450E+04  1.45408E+04 -9.72360E+03  1.42555E+04  2.60999E+03
  8.85862E+03  1.13241E+04 -1.23038E+03  1.38344E+04 -9.55997E+03  9.17456E+03 -1.13349E+04 -2.16773E+03
 -8.51331E+03 -9.44319E+03 -1.16712E+03 -1.27685E+04  6.22594E+03 -9.00188E+03  5.81283E+03 -2.99220E+03
  5.47854E+03  2.40253E+03  2.58677E+02  2.40661E+03 -5.43053E+02 -3.21913E+03  1.61257E+03 -6.83239E+03
  1.02176E+04 -3.83653E+03  1.23434E+04  2.96292E+03  1.44626E+04  1.02504E+04  1.02377E+04  1.92531E+04
 -3.91571E+03  2.19738E+04 -1.75940E+04  1.60213E+04 -2.06909E+04  3.07392E+03 -1.87913E+04 -8.78630E+03
 -9.21481E+03 -1.53962E+04 -4.42255E+02 -1.41088E+04  5.33325E+03 -7.51672E+03  4.06610E+03 -5.14751E+03
  3.33534E+03 -3.66969E+03  4.51128E+03 -3.67029E+03  6.41823E+03 -5.10837E+03  5.88959E+03  2.63493E+02
  8.71122E+03  8.89095E+02  4.90270E+03  9.81966E+03 -2.62531E+03  1.03550E+04 -9.86737E+03  6.78936E+03
 -1.14433E+04 -1.17504E+03 -9.55175E+03 -8.91640E+03 -2.94033E+02 -1.35810E+04  8.98280E+03 -1.30292E+04
  1.52544E+04 -8.45386E+03  1.77302E+04  4.88336E+03  1.25768E+04  1.13185E+04  1.37205E+03  1.58666E+04
 -7.22128E+03  1.22632E+04 -8.78756E+03  6.63719E+03 -6.99621E+03 -1.48416E+03 -2.48671E+03 -2.45319E+03
 -9.70852E+02 -7.88522E+02 -2.55163E+03  3.69279E+03 -5.58258E+03  2.56074E+03 -8.32925E+03 -4.42111E+02
 -5.49029E+03 -8.61709E+03  5.72541E+01 -1.21170E+04  7.79111E+03 -1.38055E+04  1.09952E+04 -3.82502E+03
  1.11686E+04  6.45245E+03  6.54519E+03  1.20079E+04 -2.28910E+03  1.29280E+04 -9.12083E+03  8.80507E+03
 -1.23737E+04 -9.83600E+02 -9.33312E+03 -7.48500E+03 -1.71421E+03 -1.15286E+04  4.83591E+03 -8.75910E+03
  6.28707E+03 -3.17030E+03  5.31388E+03  2.04443E+03  2.19634E+03  3.05033E+03  1.08316E+03  1.70149E+03
  2.55062E+03 -7.47452E+01  3.67058E+03  1.36345E+03  2.75029E+03  4.59175E+03  3.36099E+03  7.28102E+03
 -3.99732E+03  1.05242E+04 -7.88482E+03  1.03730E+04 -1.24100E+04  2.08190E+03 -1.28080E+04 -5.74901E+03
 -5.88713E+03 -1.29318E+04  1.41843E+03 -1.42250E+04  8.51817E+03 -8.88548E+03  1.04339E+04 -1.88071E+03
  6.96423E+03  5.90256E+03  2.19013E+03  8.41266E+03 -3.66513E+03  6.33424E+03 -6.05603E+03 -1.01447E+03
 -1.41242E+03 -6.34099E+03  3.87816E+03 -6.29282E+03  4.21209E+03 -1.56580E+03  5.11531E+03  2.08626E+03
  3.00629E+03  2.60541E+03  1.37281E+03  1.82163E+03 -4.57402E+02  1.78260E+03  1.82277E+03 -3.41051E+02
  2.53737E+03  2.49653E+02  5.57283E+03  3.04877E+03  2.18950E+03  5.13981E+03 -1.54681E+03  9.53119E+03
 -5.95261E+03  5.96718E+03 -7.24519E+03  1.12771E+02 -7.20932E+03 -2.14045E+03 -3.30978E+03 -4.16590E+03
  1.49617E+03 -4.96424E+03  2.59010E+03 -2.18351E+03  3.58063E+03  1.34481E+03  3.36524E+02  4.25829E+03
 -5.43164E+03  2.19113E+03 -5.65188E+03 -2.49566E+03 -2.84441E+03 -6.54959E+03  1.24811E+03 -6.00715E+03
  3.25708E+03 -4.51822E+03  5.18470E+03  1.08728E+03  4.24155E+03  2.05435E+03  1.07813E+03  3.77929E+03
 -3.62236E+03  1.89146E+03 -4.00035E+03 -1.72934E+03  3.60788E+02 -5.60105E+03  5.64051E+03 -4.30207E+03
  7.29391E+03 -7.85266E+02  8.18505E+03  4.54866E+03  1.72553E+03  7.85495E+03 -3.57274E+03  7.28153E+03
 -6.34214E+03  3.30845E+03 -5.14214E+03 -1.70095E+03 -5.07499E+03 -5.09308E+03  1.61393E+03 -5.26372E+03
  3.92997E+03 -1.91555E+03  4.16806E+03  1.47212E+03  2.04676E+02  4.67307E+03  1.01510E+03  2.42423E+03
 -2.71199E+03  2.59836E+03 -6.47422E+02  2.18816E+03 -1.13180E+03 -6.41007E+01 -1.28335E+03  3.05292E+03
 -2.01953E+03  3.98577E+03 -5.30656E+03  2.32440E+03 -7.48834E+03 -2.38151E+02 -7.91787E+03 -5.50589E+03
 -3.57403E+03 -1.17572E+04  2.57204E+03 -1.18627E+04  6.99967E+03 -1.02630E+04  1.13149E+04 -3.67789E+03
  1.12396E+04  2.74104E+03  4.92907E+03  7.02230E+03  7.77755E+02  1.01371E+04 -2.57084E+03  5.02176E+03
 -4.33271E+03  3.21508E+03 -2.87412E+03  8.40361E+02 -6.30580E+02  4.67036E+02 -8.80976E+02 -1.40565E+03
 -1.12082E+03 -3.45231E+02 -2.77720E+03 -1.23681E+03 -1.24113E+03 -2.06840E+03 -1.24593E+03 -3.63314E+03
  3.50406E+03 -2.56547E+03  5.14092E+03 -9.49746E+02  6.23011E+03  2.98450E+03  2.12067E+03  7.27054E+03
 -3.16694E+03  8.77560E+03 -7.48817E+03  5.38381E+03 -1.03847E+04 -8.03721E+02 -5.51061E+03 -5.16243E+03
 -3.60985E+03 -8.21308E+03  2.12472E+03 -6.86016E+03  6.07395E+03 -3.15623E+03  6.09014E+03 -1.76965E+02
  3.50924E+03  2.19805E+03  2.88077E+02  2.72812E+03 -1.72184E+03 -6.65796E+02 -1.45920E+03 -2.37402E+03
  1.89214E+03 -7.68463E+02  2.60002E+03  2.13355E+01  4.60145E+02  3.46757E+03  8.78223E+02  4.22919E+03
 -4.39931E+03  3.23487E+03 -5.26435E+03  1.94869E+02 -5.45505E+03 -3.95882E+03  7.90606E+02 -5.34435E+03
  4.37808E+03 -5.50395E+03  5.63719E+03 -1.57544E+03  5.89336E+03  1.50154E+03  2.62898E+03  5.76686E+03
  2.58649E+02  5.39255E+03 -1.92883E+03  5.19902E+03 -1.32855E+03  2.49101E+03 -2.99428E+03 -5.75983E+01
 -1.46457E+03 -1.28218E+03  8.03337E+01  4.51817E+02 -1.99525E+03  1.49485E+03 -4.17422E+03 -7.78283E+01
 -3.76125E+03 -1.84230E+03 -8.92632E+02 -4.62914E+03  3.81942E+03 -6.48032E+03  3.00551E+03 -1.95606E+03
  4.63631E+03  5.45310E+02  4.07882E+03  3.65418E+03 -2.36024E+02  4.57112E+03 -3.17688E+03  3.09964E+03
