 $NMID ID='MM_0lb_SNR200_16hz_g60_4.RAW', FMTDAT='(8E13.5)'
 TRAMP=1., VOLUME=1. $END
  3.08388E+05  4.98387E+02  3.37479E+05  2.50252E+05  8.43207E+04  3.37754E+05 -1.32905E+05  2.51093E+05
 -1.90435E+05  8.34666E+04 -1.11602E+05 -3.16392E+04  3.83710E+02 -5.04594E+04  5.42754E+04 -4.98741E+02
  3.62556E+04  5.33205E+04 -1.68546E+04  7.48626E+04 -6.16904E+04  6.34267E+04 -8.38659E+04  3.27048E+04
 -8.23270E+04 -1.12703E+04 -5.65355E+04 -5.23832E+04 -1.43364E+04 -7.04579E+04  2.74331E+04 -4.69209E+04
  4.09773E+04  2.94550E+03  1.57138E+04  4.82285E+04 -3.38811E+04  4.74533E+04 -6.81013E+04  2.30704E+02
 -5.29759E+04 -5.66425E+04 -7.67189E+03 -7.73234E+04  3.28991E+04 -5.58532E+04  4.72213E+04 -1.74173E+04
  4.32486E+04  1.03717E+04  3.14521E+04  2.64999E+04  1.61859E+04  2.88518E+04 -5.35638E+03  2.62770E+04
 -2.15947E+04  1.24465E+04 -1.99209E+04 -4.78943E+03  5.14911E+03 -7.98951E+03  2.18609E+04  1.20752E+04
  7.39333E+03  3.61262E+04 -3.11393E+04  3.54904E+04 -6.27940E+04  1.16986E+03 -5.78195E+04 -4.20242E+04
 -1.23592E+04 -6.45403E+04  3.98297E+04 -4.66850E+04  5.85477E+04 -1.89402E+03  3.52656E+04  3.25130E+04
 -7.76561E+03  3.72906E+04 -2.95353E+04  1.40025E+04 -2.99871E+04 -4.62857E+03 -1.70294E+04 -9.68661E+03
 -8.07676E+03 -1.27428E+04 -4.26981E+02 -1.79371E+04  7.38287E+03 -2.34241E+04  1.52663E+04 -1.29621E+04
  1.12425E+04  4.84691E+03 -9.58021E+03  1.34548E+04 -2.01083E+04 -5.31907E+03 -8.79232E+03 -3.28563E+04
  2.28136E+04 -4.36509E+04  4.84385E+04 -1.86201E+04  4.52074E+04  1.99933E+04  1.53552E+04  4.51488E+04
 -1.59733E+04  3.29326E+04 -2.57876E+04  1.30200E+03 -8.99236E+03 -2.92524E+04  2.08813E+04 -3.36442E+04
  4.09641E+04 -9.19676E+03  3.64327E+04  2.42596E+04  1.73966E+04  4.59719E+04 -6.82068E+03  4.98826E+04
 -3.18920E+04  3.39326E+04 -4.13382E+04  9.13828E+03 -4.21721E+04 -1.68900E+04 -2.17836E+04 -3.67186E+04
  8.18531E+03 -3.80076E+04  3.12763E+04 -1.37860E+04  3.00324E+04  1.13686E+04  3.44904E+03  1.95658E+04
 -1.51589E+04  6.71257E+03 -1.00460E+04 -7.26779E+03  5.34895E+03 -1.13827E+04  1.86905E+04  7.05698E+03
  1.35107E+04  2.13702E+04 -4.94299E+03  2.60790E+04 -2.29452E+04  1.03959E+04 -2.74299E+04 -5.21157E+03
 -2.07642E+04 -1.64111E+04 -8.12498E+03 -1.99537E+04  3.72519E+03 -2.01835E+04  1.51138E+04 -1.69547E+04
  2.57570E+04 -1.28149E+04  3.14114E+04  3.15552E+03  2.30961E+04  1.98950E+04  4.14489E+03  3.58450E+04
 -1.83961E+04  3.04070E+04 -2.69328E+04  1.00960E+04 -2.09081E+04 -9.47095E+03 -4.06159E+03 -1.38501E+04
  2.81809E+03 -2.81782E+03 -4.63859E+03  5.74497E+03 -1.72772E+04  5.15421E+03 -1.61307E+04 -6.20143E+03
 -9.58038E+03 -1.87488E+04  4.48755E+03 -2.24701E+04  1.54387E+04 -1.74347E+04  1.86186E+04 -1.43774E+03
  1.05390E+04  1.29961E+04 -1.93642E+03  1.85956E+04 -1.30277E+04  1.13255E+04 -1.97015E+04 -3.53786E+03
 -1.42563E+04 -1.82326E+04 -8.23461E+02 -2.42874E+04  1.03266E+04 -1.75251E+04  1.91426E+04 -9.48110E+03
  1.79791E+04  1.64440E+02  1.21235E+04  3.41647E+03  7.08963E+03  7.65375E+02  9.45374E+03 -4.28501E+02
  1.61265E+04  3.53442E+03  1.85410E+04  1.52388E+04  1.17640E+04  2.99519E+04 -4.28248E+03  3.22925E+04
 -2.03567E+04  2.75414E+04 -3.05987E+04  1.36523E+04 -3.11563E+04 -3.36087E+03 -2.65539E+04 -1.81318E+04
 -1.17624E+04 -2.64468E+04  8.26059E+03 -2.41574E+04  2.00434E+04 -1.31647E+04  1.87762E+04  5.88070E+03
  6.88140E+03  1.41634E+04 -8.79927E+03  1.30527E+04 -1.60995E+04  1.27522E+03 -1.17268E+04 -9.43158E+03
  3.83957E+02 -1.39654E+04  7.90302E+03 -1.21100E+04  1.05152E+04 -1.59219E+03  1.97027E+03  6.29983E+03
 -6.88224E+03  1.43427E+03 -5.06050E+03 -5.27658E+03  2.16822E+02 -1.40915E+04  9.17577E+03 -1.33298E+04
  1.52761E+04 -7.04745E+03  1.59656E+04  1.43659E+03  1.42209E+04  1.30901E+04  7.03861E+03  1.91640E+04
 -3.36877E+03  2.11235E+04 -1.41627E+04  1.40779E+04 -1.46018E+04  2.79739E+03 -1.10833E+04 -4.05486E+03
 -6.11305E+03 -4.13730E+03  8.98455E+01  7.59548E+02 -1.18069E+03  2.54202E+03 -4.56015E+03  5.20326E+03
 -9.87268E+03 -1.26936E+03 -1.12692E+04 -9.35237E+03 -5.63411E+03 -1.31410E+04  5.10144E+03 -1.16999E+04
  7.56944E+03 -4.53048E+03  6.84628E+03  3.28300E+03  8.40054E+02  4.15838E+03 -5.29442E+03 -6.71392E+02
 -4.78668E+03 -6.86855E+03 -5.64105E+02 -9.90791E+03  5.87798E+03 -1.03111E+04  1.35487E+04 -5.28943E+03
  1.45129E+04  1.33520E+03  1.14640E+04  8.51040E+03  1.42688E+03  1.22090E+04 -6.55661E+03  1.03191E+04
 -9.11931E+03  2.67075E+03 -3.89990E+03 -2.41927E+03  2.34701E+02 -2.81702E+03  5.22944E+03 -1.35665E+03
  4.74272E+03  3.72624E+03  1.85130E+03  7.28901E+03 -5.73256E+03  8.14191E+03 -9.34907E+03  1.91326E+03
 -5.85717E+03 -4.36942E+03  3.91344E+02 -8.54139E+03  5.42518E+03 -5.21990E+03  5.06708E+03  3.26429E+02
  1.92724E+03  5.13250E+03 -5.89002E+03  6.87817E+03 -6.90928E+03  5.06249E+03 -6.17882E+03 -3.03392E+03
 -3.66579E+03 -9.20014E+03  7.97371E+02 -9.92521E+03  8.59758E+03 -5.83042E+03  9.20617E+03  1.57183E+03
  6.86421E+03  7.24100E+03  5.01630E+00  8.85899E+03 -6.83144E+03  5.57127E+03 -8.30271E+03 -1.28295E+03
 -7.26514E+03 -7.04590E+03 -1.35054E+03 -6.72265E+03  2.88919E+03 -6.50798E+03  4.76024E+03 -3.35101E+03
  3.69323E+03  4.74924E+02 -1.21531E+03  1.03495E+03 -2.95120E+02 -5.97202E+02  2.07064E+03 -4.38122E+03
  6.22256E+03 -1.33620E+03  7.10631E+03  4.36507E+02  7.10064E+03  5.98850E+03  5.93475E+03  1.10875E+04
 -1.07930E+03  1.16329E+04 -1.15801E+04  8.21713E+03 -1.38447E+04  7.82610E+02 -1.14010E+04 -4.42975E+03
 -6.59575E+03 -8.28291E+03  7.53802E+00 -9.35274E+03  3.83121E+03 -3.69978E+03  1.67727E+03 -2.72094E+03
  1.54616E+03 -8.07261E+02  1.85248E+03 -2.46551E+03  5.58197E+03 -2.87751E+03  5.45385E+03  7.14444E+02
  6.68193E+03  1.42546E+03  2.23799E+03  4.91105E+03 -1.86891E+03  3.96626E+03 -5.84709E+03  5.04620E+03
 -5.80775E+03  5.82184E+01 -3.40435E+03 -5.07987E+03  3.10241E+02 -6.71287E+03  3.77772E+03 -8.38386E+03
  7.68976E+03 -3.47709E+03  9.91753E+03  1.45300E+03  6.69943E+03  7.48089E+03  8.90267E+02  8.71098E+03
 -3.79944E+03  7.08866E+03 -4.25403E+03  3.06504E+03 -2.24241E+03  1.26498E+02 -2.13152E+03 -4.75988E+02
 -4.57381E+02 -4.27066E+02 -1.44168E+03  1.97727E+03 -2.95290E+03  1.05880E+03 -5.99633E+03 -1.35432E+03
 -2.84322E+03 -5.46059E+03  1.55277E+02 -7.64800E+03  4.83857E+03 -5.32410E+03  5.32489E+03 -1.24438E+03
  6.55020E+03  2.58814E+03  2.11579E+03  4.39429E+03 -3.48967E+02  7.02186E+03 -4.25284E+03  5.24471E+03
 -5.98684E+03 -5.86008E+02 -6.06536E+03 -4.25896E+03 -1.20729E+03 -5.65289E+03  2.54120E+03 -4.49525E+03
  2.58871E+03 -1.51423E+03  2.66970E+03  1.49142E+02  2.34482E+03  1.50097E+03  1.88311E+03  1.33769E+02
  1.70099E+03  1.09550E+03  1.37751E+03  3.97850E+02  4.89943E+02  1.74725E+03  2.47280E+03  3.35531E+03
 -2.19910E+03  4.44649E+03 -3.79460E+03  5.54004E+03 -6.16979E+03  1.30267E+03 -5.89428E+03 -1.08139E+03
 -2.14895E+03 -5.27161E+03  4.25584E+02 -7.23467E+03  3.29641E+03 -3.58727E+03  4.81949E+03 -5.53460E+02
  4.96700E+03  1.87899E+03 -3.23546E+02  3.79177E+03 -2.83714E+03  3.35940E+03 -2.87786E+02 -5.10751E+01
 -2.60522E+02 -2.14957E+03  2.21180E+03 -2.35768E+03  2.00535E+03 -1.20529E+03  2.61438E+03  2.32391E+02
  1.24131E+03  1.29505E+03  5.11715E+01  2.64679E+02  8.84317E+02  1.33533E+03  8.45285E+02 -1.18832E+03
  3.54012E+02 -5.82210E+01  3.28032E+03  1.48216E+03  1.43174E+03  4.59403E+03 -6.90148E+02  4.65071E+03
 -2.52777E+03  1.23867E+02 -2.99075E+03  1.25154E+03 -3.89920E+03  3.67431E+02 -1.02162E+03 -2.39573E+03
  3.77092E+02 -1.80644E+03  2.05715E+03 -2.73799E+02  1.14204E+03  1.39585E+03 -8.82078E+02  1.02831E+03
 -2.36607E+03  1.78525E+03 -1.11187E+03 -2.07114E+03 -8.25517E+02 -3.57524E+03  5.05449E+02 -2.18932E+03
  6.30368E+02 -1.99724E+03  1.82317E+03 -3.80493E+00  1.11645E+03  1.75809E+03  9.16551E+02  2.76894E+02
 -1.59134E+03  2.88968E+02 -1.65899E+03  5.96650E+02  1.47277E+03 -1.76255E+03  2.51840E+03 -1.23997E+03
  1.80009E+03  7.45461E+02  3.48328E+03  1.74703E+03  6.26446E+02  3.47245E+03 -6.06223E+01  2.23481E+03
 -2.52760E+03  4.48480E+02 -3.35770E+03 -1.23038E+03 -1.83700E+03 -1.61532E+03  1.36314E+03 -1.47554E+03
  2.23205E+03 -6.80534E+02  6.44374E+02  1.73380E+03  5.28887E+02  2.23182E+03 -2.84453E+02  1.81458E+03
 -1.68109E+03  1.59564E+03 -1.40536E+03  7.16692E+02  5.14595E+02  1.28893E+03 -1.85951E+03  1.59301E+02
 -6.22344E+02  1.45676E+03 -2.52842E+03  1.29011E+03 -1.91344E+03  1.12450E+03 -3.33225E+03 -3.25172E+03
 -1.57641E+03 -3.99734E+03  5.80962E+02 -4.13810E+03  2.30854E+03 -3.84142E+03  3.31480E+03 -1.32753E+03
  3.97615E+03  1.29640E+03  2.68711E+03  2.63338E+03 -1.02581E+03  2.22197E+03 -1.07036E+03  3.16836E+03
 -4.70358E+02  4.30712E+02 -5.80464E+02 -1.89876E+02 -2.04617E+02 -1.09649E+03 -1.47064E+02  6.46532E+02
  4.84871E+02 -1.93746E+02 -8.29306E+02 -2.01015E+02 -4.04502E+02 -8.20760E+02 -2.63300E+02 -1.89302E+03
  1.99411E+03 -1.24995E+03  1.44216E+03  7.34683E+02  1.28703E+03  1.63563E+03 -1.00117E+03  2.22481E+03
 -2.24623E+03  3.78382E+03 -3.51816E+03  1.83499E+03 -3.50555E+03  1.07612E+02 -1.80718E+03 -1.80738E+03
 -1.32233E+03 -2.02178E+03  8.11757E+02 -1.94229E+03  9.10381E+02 -1.11513E+03  1.66558E+03  2.05939E+02
  1.57612E+03  3.04089E+02 -4.62644E+02  6.59574E+02 -5.37301E+02 -5.79429E+02 -8.92921E+02 -1.01710E+03
 -6.32366E+02  6.43938E+02  6.87417E+02  1.24798E+02  1.86538E+02  7.88000E+02  2.32545E+02  9.28530E+02
 -1.44142E+03  9.87645E+02 -4.96813E+02 -4.48156E+02 -1.58290E+03 -2.03793E+02  2.14124E+02 -1.94780E+03
  4.95782E+02 -2.43459E+03  3.57796E+02 -2.34639E+01  1.22304E+03 -3.00480E+02  1.91703E+03  1.51164E+03
  4.74867E+02  7.39476E+02  1.00669E+03  1.43931E+03  8.52609E+02  3.72307E+02 -8.73547E+02 -1.10225E+02
 -2.47174E+02  6.33267E+02  8.06780E+02  6.60083E+02 -2.20906E+03  5.85467E+02 -2.12032E+03  2.98224E+02
  8.04690E+01 -1.39128E+02 -9.35953E+02 -1.71235E+03  7.69238E+02 -1.89486E+03 -2.84142E+02  3.88073E+02
  2.08050E+02 -1.01209E+03  1.40250E+03  9.03785E+02  4.51912E+02 -5.64712E+02  3.94127E+02  1.27128E+03
