 $NMID ID='MM_0lb_SNR200_15hz_g60_16.RAW', FMTDAT='(8E13.5)'
 TRAMP=1., VOLUME=1. $END
  3.10417E+05 -8.80182E+01  3.37350E+05  2.52019E+05  8.41241E+04  3.38827E+05 -1.32334E+05  2.51744E+05
 -1.90183E+05  8.36381E+04 -1.13161E+05 -3.29293E+04 -8.12370E+02 -4.93868E+04  5.32880E+04  8.73408E+02
  3.45540E+04  5.27127E+04 -1.68222E+04  7.52405E+04 -5.93518E+04  6.30628E+04 -8.50215E+04  3.09858E+04
 -8.16720E+04 -1.10918E+04 -5.62033E+04 -5.11092E+04 -1.49936E+04 -6.98016E+04  2.76051E+04 -4.70974E+04
  3.97781E+04  3.20602E+03  1.59481E+04  4.76156E+04 -3.39323E+04  4.71666E+04 -6.67834E+04 -7.18966E+02
 -5.45905E+04 -5.68648E+04 -7.09145E+03 -7.77050E+04  3.34843E+04 -5.63300E+04  4.85033E+04 -1.71664E+04
  4.35935E+04  1.28424E+04  3.28839E+04  2.68668E+04  1.51395E+04  2.95574E+04 -4.68024E+03  2.81532E+04
 -2.17791E+04  1.27046E+04 -1.87751E+04 -4.73430E+03  4.98890E+03 -7.41950E+03  2.18368E+04  1.19951E+04
  7.13231E+03  3.55968E+04 -3.15040E+04  3.64334E+04 -6.36362E+04  1.89032E+03 -5.77581E+04 -4.34839E+04
 -1.24259E+04 -6.36604E+04  4.09854E+04 -4.61833E+04  5.80907E+04 -3.82814E+03  3.53078E+04  3.32884E+04
 -5.91114E+03  3.72297E+04 -2.97704E+04  1.74416E+04 -3.10381E+04 -5.55590E+03 -1.76457E+04 -1.14046E+04
 -7.70351E+03 -1.38254E+04  5.14182E+02 -1.73678E+04  8.41329E+03 -2.32715E+04  1.58970E+04 -1.45826E+04
  1.16716E+04  5.57464E+03 -8.94827E+03  1.27167E+04 -2.15943E+04 -4.59165E+03 -8.57257E+03 -3.41607E+04
  2.37450E+04 -4.43822E+04  4.73353E+04 -1.94411E+04  4.62032E+04  2.05645E+04  1.54259E+04  4.39300E+04
 -1.58611E+04  3.45583E+04 -2.64311E+04  3.30229E+03 -1.02400E+04 -2.76340E+04  2.24425E+04 -3.47963E+04
  4.21065E+04 -8.53079E+03  3.52104E+04  2.38912E+04  1.82500E+04  4.80254E+04 -8.75420E+03  5.13115E+04
 -3.22619E+04  3.50241E+04 -4.36220E+04  1.02915E+04 -4.44285E+04 -1.68099E+04 -2.26872E+04 -3.88462E+04
  7.41056E+03 -3.84968E+04  3.21376E+04 -1.55414E+04  2.99375E+04  1.21848E+04  3.67133E+03  1.92289E+04
 -1.26088E+04  7.79820E+03 -1.08491E+04 -8.49600E+03  5.63604E+03 -1.03338E+04  1.78537E+04  5.19345E+03
  1.30342E+04  2.20289E+04 -5.89745E+03  2.49146E+04 -2.31677E+04  1.27516E+04 -2.82422E+04 -4.52436E+03
 -2.10057E+04 -1.74490E+04 -9.53809E+03 -2.14693E+04  4.17777E+03 -2.01366E+04  1.61463E+04 -1.85297E+04
  2.65476E+04 -1.42059E+04  3.24645E+04  3.37055E+03  2.48968E+04  2.09866E+04  4.87202E+03  3.67898E+04
 -1.77370E+04  3.08966E+04 -2.78587E+04  9.72673E+03 -2.20595E+04 -9.39709E+03 -4.79267E+03 -1.36880E+04
  3.22942E+03 -3.33000E+03 -5.15737E+03  7.16636E+03 -1.67476E+04  4.60104E+03 -1.64772E+04 -6.79523E+03
 -1.02355E+04 -1.95439E+04  5.47259E+03 -2.41440E+04  1.64745E+04 -1.77173E+04  1.82180E+04 -1.81044E+03
  1.19812E+04  1.32531E+04 -1.83351E+03  1.87193E+04 -1.29550E+04  1.11996E+04 -2.00871E+04 -4.18167E+03
 -1.56765E+04 -1.81298E+04 -2.81446E+03 -2.47450E+04  1.03320E+04 -1.90331E+04  2.02644E+04 -1.02457E+04
  1.79375E+04  2.28053E+01  1.30415E+04  3.69649E+03  6.64215E+03 -5.86579E+01  1.04693E+04 -7.65472E+02
  1.79277E+04  3.11971E+03  2.04762E+04  1.46380E+04  1.23534E+04  3.09223E+04 -2.21204E+03  3.52126E+04
 -2.00296E+04  2.83114E+04 -3.31308E+04  1.36165E+04 -3.39569E+04 -5.70097E+02 -3.04159E+04 -1.94152E+04
 -1.20714E+04 -2.82400E+04  1.03319E+04 -2.51788E+04  2.29093E+04 -1.23044E+04  1.80579E+04  6.09203E+03
  6.60644E+03  1.41530E+04 -9.76039E+03  1.20683E+04 -1.74226E+04  2.80262E+03 -1.24732E+04 -1.02309E+04
  2.38706E+02 -1.61418E+04  8.30772E+03 -1.19530E+04  1.06932E+04 -1.25914E+03  3.07083E+03  7.39213E+03
 -6.89595E+03  2.70742E+03 -6.68343E+03 -5.88550E+03 -1.10955E+03 -1.43347E+04  9.68029E+03 -1.36362E+04
  1.81075E+04 -6.81552E+03  1.79679E+04  3.27881E+03  1.54930E+04  1.28513E+04  6.83914E+03  2.22063E+04
 -3.47362E+03  2.34383E+04 -1.53921E+04  1.42253E+04 -1.63902E+04  3.63873E+03 -1.08412E+04 -3.20047E+03
 -5.28841E+03 -6.02158E+03  4.50437E+01  3.34447E+03 -2.44822E+03  2.63289E+03 -5.46396E+03  5.64945E+03
 -1.02326E+04  1.36503E+02 -1.21727E+04 -9.27559E+03 -5.16163E+03 -1.46180E+04  3.61050E+03 -1.13387E+04
  9.70747E+03 -5.80112E+03  7.38787E+03  3.58105E+03  1.91311E+03  3.42061E+03 -5.57937E+03  2.00909E+02
 -5.33709E+03 -8.19421E+03 -1.05088E+03 -1.01630E+04  4.84171E+03 -1.17488E+04  1.35490E+04 -6.20482E+03
  1.66285E+04  9.04775E+02  1.22530E+04  9.17143E+03  2.69576E+03  1.24086E+04 -7.02084E+03  1.12582E+04
 -1.04088E+04  4.32915E+03 -5.20693E+03 -1.91379E+03  1.56415E+03 -2.42653E+03  6.43468E+03 -2.10784E+03
  5.34279E+03  3.71721E+03  1.27663E+03  9.43018E+03 -4.85510E+03  8.68430E+03 -1.13326E+04  1.19376E+03
 -7.70186E+03 -5.72987E+03  4.26353E+02 -9.21544E+03  6.72200E+03 -4.45022E+03  5.88906E+03  1.13024E+03
  9.56368E+01  5.60936E+03 -4.91002E+03  7.79676E+03 -8.37002E+03  3.36186E+03 -7.55744E+03 -3.06871E+03
 -3.66119E+03 -9.65010E+03  3.11018E+03 -1.25547E+04  9.73119E+03 -5.91171E+03  1.05634E+04  2.18534E+03
  8.59241E+03  8.10720E+03  1.16028E+02  1.02891E+04 -7.35717E+03  4.72452E+03 -8.31765E+03 -2.09707E+03
 -6.37039E+03 -6.15307E+03 -8.00046E+02 -8.20820E+03  4.17038E+03 -5.99706E+03  4.45046E+03 -2.85763E+03
  5.24220E+03 -7.32118E+02 -5.12531E+02  1.54959E+03  9.08918E+01 -9.47541E+02  9.11698E+02 -3.84486E+03
  6.94687E+03 -1.63393E+03  9.30564E+03  1.65008E+03  9.46136E+03  5.80392E+03  6.51741E+03  1.14033E+04
 -2.85439E+03  1.40933E+04 -1.35279E+04  1.08475E+04 -1.64143E+04  2.34402E+03 -1.26718E+04 -4.16604E+03
 -6.89849E+03 -1.01305E+04  5.07257E+02 -8.56170E+03  2.68277E+03 -3.74923E+03  2.40619E+03 -3.84079E+03
  2.08651E+03 -2.75609E+03  3.20924E+03 -2.33401E+03  4.46426E+03 -2.24028E+03  5.08007E+03  4.57885E+02
  5.65503E+03  1.30322E+03  1.91841E+03  5.36871E+03 -1.35821E+03  7.14671E+03 -6.59245E+03  6.04932E+03
 -8.69024E+03 -1.29905E+03 -4.05339E+03 -5.83464E+03 -3.50138E+02 -8.26043E+03  6.49700E+03 -8.59946E+03
  9.24585E+03 -4.91582E+03  1.20165E+04  6.21846E+02  7.98171E+03  6.26708E+03  2.10878E+03  1.07928E+04
 -2.79032E+03  8.92187E+03 -5.73000E+03  2.51602E+03 -4.20176E+03 -8.96090E+02 -1.70421E+03 -1.30277E+03
 -5.24760E+02 -5.26019E+02 -2.06938E+03  1.95041E+03 -4.63058E+03  8.76440E+02 -7.41709E+03 -1.06736E+03
 -4.21593E+03 -5.97887E+03 -5.82941E+02 -6.62906E+03  5.59678E+03 -6.59309E+03  8.34998E+03 -3.63224E+03
  6.69349E+03  5.31004E+03  3.05069E+03  6.28708E+03 -4.48911E+02  7.82440E+03 -5.48011E+03  5.83740E+03
 -6.18386E+03  9.95565E+02 -5.87096E+03 -3.97311E+03  8.52464E+01 -7.13668E+03  2.19100E+03 -5.30045E+03
  4.54454E+03 -2.10755E+03  3.33946E+03  1.63119E+03  1.75727E+02  2.38364E+03  1.25487E+03  1.13372E+03
  1.79073E+03  1.60779E+02  2.13980E+03  1.46223E+03  1.82114E+03  3.05460E+03  3.12169E+03  3.41464E+03
 -1.75667E+03  5.57221E+03 -4.21862E+03  6.30984E+03 -5.87954E+03  2.08101E+03 -8.19928E+03 -2.71565E+03
 -2.81166E+03 -6.62972E+03 -2.51653E+02 -7.64757E+03  3.73915E+03 -5.15520E+03  5.84081E+03 -1.14740E+03
  5.52968E+03  3.64896E+03  3.19622E+02  3.58785E+03  8.50631E+01  1.96921E+03 -3.22866E+03  1.62073E+02
 -1.68335E+03 -1.74548E+03  1.74751E+03 -2.04981E+03  2.68818E+03 -1.47706E+03  2.80536E+03  5.81238E+02
  9.34919E+02  1.52883E+03  8.96516E+02  7.03118E+02  7.15046E+02  1.13911E+03  8.12820E+02  2.81780E+01
  1.74177E+01 -4.45818E+02  3.40880E+03  8.77827E+02  2.61728E+02  4.33150E+03 -4.38515E+02  4.35034E+03
 -3.16563E+03  1.75647E+03 -4.62921E+03  1.49530E+03 -3.97582E+03 -2.00938E+02 -6.99648E+02 -1.88826E+03
  9.28905E+02 -2.05332E+03  2.23055E+03 -2.20749E+03  1.33614E+03  1.94306E+03 -1.37433E+03  1.89163E+03
 -2.94707E+03  1.73314E+03 -2.48500E+03 -3.07733E+03 -2.91824E+03 -4.97465E+03  2.50452E+02 -3.74094E+03
  1.59820E+03 -1.69150E+03  2.09960E+03 -2.66854E+02  2.51966E+03  4.21642E+02  4.54727E+02  1.16873E+03
 -1.24592E+03 -7.27906E+02 -1.01992E+03 -1.78917E+03  1.66233E+03 -2.05082E+03  2.65734E+03 -1.84062E+03
  3.99516E+03  5.70386E+02  5.19567E+03  6.91551E+02  2.87429E+03  3.47226E+03 -1.18577E+03  4.15383E+03
 -3.65001E+03  6.37427E+02 -3.51598E+03 -9.74166E+02 -2.45694E+03 -2.79061E+03  1.24550E+03 -1.47322E+03
  2.69347E+03 -1.65204E+03  2.29939E+03  1.72080E+03  4.49401E+02  2.40384E+03 -1.06697E+03  2.02391E+03
 -8.54050E+01  9.19999E+02  3.52477E+02  1.65515E+03  7.08608E+01  8.68639E+01 -1.61040E+03  1.00801E+03
 -6.92869E+02  1.38750E+03 -1.89709E+03  2.97028E+03 -3.96465E+03 -3.58322E+02 -3.44661E+03 -1.70591E+03
 -2.01962E+03 -4.57959E+03  3.23593E+01 -5.33329E+03  2.84368E+03 -4.49087E+03  5.78236E+03 -1.70550E+03
  5.58526E+03  2.09765E+01  3.03485E+03  4.08660E+03 -1.35394E+03  2.81146E+03 -1.12906E+03  3.25377E+03
 -2.90060E+03  1.45653E+03 -2.96724E+02 -3.71520E+02 -1.29492E+03  5.41258E+02 -1.11567E+03 -7.68399E+01
 -1.76632E+03 -4.52361E+01  4.13103E+02  3.60731E+02  2.15962E+02 -8.32968E+02 -3.27244E+02 -1.62922E+03
  1.96409E+03 -1.12040E+03  2.92439E+03  8.03401E+02  1.51396E+03  2.03391E+03 -3.76466E+02  3.99980E+03
 -1.98821E+03  4.05952E+03 -5.03318E+03  2.71504E+03 -4.19415E+03  4.60419E+01 -3.46461E+03 -2.06967E+03
 -1.94657E+03 -4.09951E+03  1.81002E+03 -3.41032E+03  2.34407E+03 -2.45086E+03  2.51603E+03  4.65919E+02
  2.31722E+03  7.57384E+02  9.88933E+02  1.43383E+03 -3.08079E+02  2.42229E+02  9.25321E+01 -1.34710E+03
  1.71200E+03  5.32755E+02  1.44417E+02  8.21982E+02 -1.62222E+01  1.81705E+03 -3.33946E+02  1.25795E+03
  3.72080E+01  1.14951E+03 -1.33330E+03 -4.73814E+02 -1.46041E+03 -5.75459E+02 -9.13896E+02 -3.13084E+03
  1.20639E+03 -2.78316E+03  1.82657E+03 -4.76104E+02  1.89662E+03  3.70430E+02  2.47564E+02  6.87042E+02
 -1.38344E+02  8.55944E+02  2.48313E+02  8.64264E+02 -1.17845E+03  1.15773E+03 -1.25163E+03 -1.87936E+02
  1.04765E+03  2.48847E+02 -1.73365E+03 -1.65820E+03 -1.26498E+03 -8.65123E+02 -8.02989E+02 -9.19252E+01
 -2.59166E+03 -1.00112E+03 -1.03191E+03 -1.69849E+03  2.36749E+03 -2.88297E+03  1.69731E+03 -1.23674E+03
  2.38371E+03  2.89026E+02  1.80352E+03 -4.03942E+02  1.40161E+02  2.74549E+02 -7.47171E+02  9.02646E+02
