 $NMID ID='MM_0lb_SNR200_11hz_g60_43.RAW', FMTDAT='(8E13.5)'
 TRAMP=1., VOLUME=1. $END
  3.08655E+05  1.34568E+03  3.36622E+05  2.50949E+05  8.62925E+04  3.39818E+05 -1.32035E+05  2.52080E+05
 -1.90014E+05  8.44328E+04 -1.11455E+05 -3.31333E+04  6.55882E+02 -5.00620E+04  5.51354E+04 -1.86802E+02
  3.65948E+04  5.15182E+04 -1.67983E+04  7.51910E+04 -6.13225E+04  6.43187E+04 -8.38558E+04  3.32403E+04
 -8.36489E+04 -1.07043E+04 -5.72682E+04 -5.41472E+04 -1.52975E+04 -7.13326E+04  2.93185E+04 -4.65083E+04
  4.20353E+04  6.15136E+03  1.64124E+04  4.88933E+04 -3.48303E+04  4.83808E+04 -6.77583E+04 -7.24981E+02
 -5.52511E+04 -5.73782E+04 -7.37952E+03 -7.97814E+04  3.54867E+04 -5.73191E+04  5.02230E+04 -1.67517E+04
  4.56679E+04  1.05513E+04  3.29403E+04  2.62720E+04  1.69610E+04  3.01163E+04 -6.37066E+03  2.83640E+04
 -2.28070E+04  1.10316E+04 -1.79397E+04 -6.84162E+03  7.30935E+03 -7.69016E+03  2.42049E+04  1.45730E+04
  6.89192E+03  3.81385E+04 -3.39518E+04  3.78691E+04 -6.60234E+04  9.15853E+02 -5.87990E+04 -4.43330E+04
 -1.26721E+04 -6.56133E+04  4.25538E+04 -4.79364E+04  6.05718E+04 -3.67847E+03  3.58566E+04  3.39918E+04
 -5.99750E+03  3.67800E+04 -3.20399E+04  1.86133E+04 -3.36739E+04 -2.70825E+03 -1.83728E+04 -1.18530E+04
 -9.07465E+03 -1.44759E+04 -1.63738E+02 -2.13026E+04  7.61587E+03 -2.38117E+04  1.63971E+04 -1.18367E+04
  1.03938E+04  7.20023E+03 -8.80441E+03  1.25670E+04 -2.18695E+04 -6.75334E+03 -1.05478E+04 -3.68533E+04
  2.47553E+04 -4.67132E+04  5.14694E+04 -2.16728E+04  4.92806E+04  2.17802E+04  1.69500E+04  4.57186E+04
 -1.76847E+04  3.71343E+04 -2.63780E+04  2.98268E+03 -1.05698E+04 -2.86715E+04  2.22479E+04 -3.63970E+04
  4.42506E+04 -1.01357E+04  4.02793E+04  2.51208E+04  2.07413E+04  4.95207E+04 -8.47416E+03  5.57080E+04
 -3.48586E+04  3.88397E+04 -4.78843E+04  1.00646E+04 -4.79988E+04 -1.81151E+04 -2.59181E+04 -4.05292E+04
  7.79639E+03 -4.22994E+04  3.52033E+04 -1.76716E+04  3.09113E+04  1.15995E+04  5.49698E+03  2.07273E+04
 -1.40835E+04  1.03418E+04 -1.08463E+04 -8.01635E+03  4.69380E+03 -1.17774E+04  1.84011E+04  5.04647E+03
  1.34972E+04  2.29776E+04 -5.16129E+03  2.60339E+04 -2.34780E+04  1.31714E+04 -3.02567E+04 -2.11449E+03
 -2.44512E+04 -1.85999E+04 -1.16619E+04 -2.36791E+04  4.70024E+03 -2.52685E+04  1.75140E+04 -2.20383E+04
  3.30042E+04 -1.35192E+04  3.76062E+04  3.93469E+03  2.54971E+04  2.38584E+04  3.96976E+03  4.09221E+04
 -1.80403E+04  3.33590E+04 -3.16142E+04  1.14846E+04 -2.14467E+04 -1.02029E+04 -4.90574E+03 -1.36444E+04
  1.45189E+03 -4.74337E+02 -7.22327E+03  7.44101E+03 -1.97063E+04  3.94119E+03 -1.88020E+04 -8.50129E+03
 -1.15352E+04 -2.31447E+04  3.84303E+03 -2.65687E+04  1.86239E+04 -2.07013E+04  2.30442E+04 -2.57514E+03
  1.54078E+04  1.60392E+04 -8.43264E+02  2.35991E+04 -1.60347E+04  1.33041E+04 -2.27305E+04 -6.31439E+03
 -1.75763E+04 -2.00307E+04 -2.78933E+03 -2.77303E+04  1.23455E+04 -2.37785E+04  2.14332E+04 -1.17830E+04
  2.12782E+04 -1.67243E+03  1.59667E+04  4.13791E+03  7.91732E+03  1.36518E+02  1.20917E+04 -1.75395E+03
  1.97315E+04  2.11690E+03  2.48162E+04  1.74887E+04  1.61969E+04  3.63156E+04 -3.22460E+03  4.27472E+04
 -2.42682E+04  3.42476E+04 -4.03667E+04  1.89175E+04 -4.30134E+04 -3.91958E+03 -3.36557E+04 -2.52064E+04
 -1.36876E+04 -3.57083E+04  1.18600E+04 -3.05879E+04  2.67853E+04 -1.41810E+04  2.35008E+04  6.64257E+03
  9.40060E+03  1.85183E+04 -1.02023E+04  1.55589E+04 -1.96769E+04  2.23741E+03 -1.50668E+04 -1.29290E+04
 -4.36329E+02 -2.00988E+04  1.06210E+04 -1.41787E+04  1.27862E+04 -1.67943E+03  3.04200E+03  9.11784E+03
 -8.24036E+03  4.09071E+03 -7.73881E+03 -6.09675E+03 -4.99075E+02 -1.51432E+04  1.07411E+04 -1.79841E+04
  2.20510E+04 -1.14546E+04  2.56094E+04  4.10898E+03  2.02660E+04  1.67780E+04  1.00146E+04  2.71453E+04
 -4.95636E+03  2.97823E+04 -1.85777E+04  1.79939E+04 -2.19364E+04  4.68372E+03 -1.59806E+04 -6.50146E+03
 -7.44746E+03 -5.81133E+03  4.50517E+02  7.99221E+01 -3.18222E+03  3.68513E+03 -7.27975E+03  4.71580E+03
 -1.17344E+04 -7.63719E+02 -1.38512E+04 -1.05549E+04 -6.01890E+03 -1.76487E+04  6.07827E+03 -1.39780E+04
  1.23644E+04 -5.34765E+03  1.02323E+04  3.86054E+03 -1.92034E+02  5.06845E+03 -7.73572E+03  5.36369E+02
 -7.42859E+03 -9.58079E+03 -2.29159E+03 -1.36011E+04  8.54053E+03 -1.54283E+04  1.86374E+04 -8.22186E+03
  2.05323E+04  2.85648E+03  1.57961E+04  1.30635E+04  2.28978E+03  1.69346E+04 -8.38193E+03  1.34994E+04
 -1.18309E+04  3.62038E+03 -5.45093E+03 -3.84995E+03  2.08762E+03 -5.14384E+03  7.30416E+03 -1.42856E+03
  6.73096E+03  7.80269E+03  1.93973E+03  1.12929E+04 -7.18266E+03  1.19419E+04 -1.53677E+04 -1.31038E+02
 -9.66867E+03 -6.61020E+03 -3.43748E+02 -1.24066E+04  7.89365E+03 -5.89258E+03  9.87537E+03  3.15168E+03
  3.14719E+03  8.72418E+03 -6.95660E+03  1.07425E+04 -1.32000E+04  6.03868E+03 -1.20855E+04 -3.83916E+03
 -7.21227E+03 -1.56282E+04  3.62416E+03 -1.72045E+04  1.29672E+04 -9.71536E+03  1.53700E+04  1.64699E+03
  8.26774E+03  1.07523E+04 -2.10030E+03  1.54386E+04 -1.01288E+04  8.69273E+03 -1.18152E+04 -1.36866E+03
 -1.04681E+04 -1.01528E+04 -8.25433E+02 -1.13778E+04  4.46559E+03 -8.04165E+03  7.73557E+03 -3.43273E+03
  6.29116E+03  8.73334E+02 -1.02240E+03  1.83094E+03 -9.61512E+02 -2.88283E+03  3.46134E+03 -6.63437E+03
  9.95827E+03 -4.53670E+03  1.44915E+04  1.42471E+03  1.26231E+04  1.03937E+04  9.21815E+03  1.88669E+04
 -5.63184E+03  2.13406E+04 -1.83539E+04  1.52221E+04 -2.40399E+04  4.44662E+03 -1.80839E+04 -7.63825E+03
 -1.00546E+04 -1.46363E+04 -6.17361E+02 -1.28076E+04  4.44205E+03 -8.16119E+03  3.81897E+03 -4.67895E+03
  2.81169E+03 -1.45243E+03  4.12340E+03 -3.57163E+03  5.09440E+03 -3.62844E+03  6.66545E+03 -2.62850E+03
  9.63490E+03  2.62916E+03  5.03098E+03  9.09067E+03 -4.45846E+02  1.00577E+04 -8.86771E+03  7.47695E+03
 -1.32286E+04 -1.04519E+03 -8.69099E+03 -9.87990E+03 -1.88510E+03 -1.40859E+04  7.89496E+03 -1.38139E+04
  1.43637E+04 -8.19116E+03  1.65045E+04  1.75712E+03  9.37566E+03  1.18532E+04  4.44493E+02  1.62693E+04
 -6.48502E+03  1.28501E+04 -9.62131E+03  4.01590E+03 -6.44455E+03 -2.40380E+03 -3.67815E+03 -1.46246E+03
 -9.46007E+01 -1.49012E+03 -2.39291E+03  2.44370E+03 -5.47024E+03  2.99041E+03 -9.33715E+03 -2.88890E+03
 -4.31710E+03 -8.68864E+03  4.41379E+01 -1.31211E+04  8.02523E+03 -1.15066E+04  1.27989E+04 -3.09190E+03
  1.24381E+04  5.21105E+03  6.43761E+03  1.08034E+04 -1.18289E+03  1.29549E+04 -9.55859E+03  8.28239E+03
 -1.06450E+04  2.65731E+02 -9.25211E+03 -7.80758E+03 -1.13873E+03 -1.14833E+04  6.11946E+03 -7.14664E+03
  7.48481E+03 -8.88687E+02  5.03428E+03  8.66978E+02  3.86817E+02  3.46493E+03  2.14334E+03  2.00157E+03
  2.47757E+03  1.16344E+03  3.68584E+03  1.70483E+03  3.14524E+03  5.43862E+03  3.81248E+03  6.23395E+03
 -3.52762E+03  9.89197E+03 -8.37173E+03  9.82611E+03 -1.13682E+04  3.86433E+03 -1.41033E+04 -4.66050E+03
 -5.78491E+03 -1.32099E+04  2.25559E+03 -1.36103E+04  7.50040E+03 -8.45868E+03  9.62929E+03 -1.85994E+03
  7.58295E+03  6.79641E+03  2.11567E+03  6.60561E+03 -5.17828E+03  4.05720E+03 -3.28228E+03  8.42843E+01
 -2.70190E+03 -5.15218E+03  2.41544E+03 -6.06992E+03  4.06493E+03 -1.81932E+03  5.54200E+03  1.13039E+03
  2.75139E+03  2.40655E+03  1.39870E+03  2.26710E+03 -1.61876E+03  1.04574E+03  2.50215E+03 -9.26825E+01
  1.79317E+03 -5.53997E+02  5.18597E+03  2.91700E+03  2.97560E+03  7.68060E+03 -1.23360E+03  9.74041E+03
 -5.47833E+03  5.94641E+03 -6.83505E+03  1.12273E+03 -7.97910E+03 -2.59505E+03 -3.95838E+03 -5.08327E+03
  1.44808E+03 -7.55082E+03  1.79922E+03 -2.69104E+03  1.50996E+03  1.72249E+03 -3.80794E+02  4.41023E+03
 -5.77143E+03  1.29337E+03 -5.30542E+03 -4.10364E+03 -2.24221E+03 -6.50940E+03  1.09625E+03 -6.69086E+03
  3.80619E+03 -2.79345E+03  5.44443E+03 -4.04303E+01  4.64856E+03  2.54687E+03  3.11114E+02  2.98513E+03
 -1.66731E+03  2.84460E+02 -4.30973E+03 -3.37536E+03  9.86027E+02 -5.84527E+03  7.05970E+03 -5.10615E+03
  6.95049E+03 -4.10317E+02  7.35710E+03  5.91086E+03  1.75921E+03  7.87466E+03 -2.96741E+03  6.44770E+03
 -6.68309E+03  4.25296E+03 -5.88715E+03 -2.18026E+02 -2.86959E+03 -4.89065E+03  4.76155E+02 -4.68206E+03
  4.67532E+03 -2.71694E+03  3.32514E+03  2.68057E+03  1.36648E+03  2.32727E+03 -6.79185E+02  4.74792E+03
 -1.90821E+03  2.13463E+03  1.88671E+01  1.42286E+03 -1.82130E+03  1.58254E+03 -1.64365E+03  1.63339E+03
 -1.62459E+03  3.82500E+03 -4.99032E+03  2.53774E+03 -6.30269E+03  1.85343E+02 -9.08758E+03 -3.91907E+03
 -3.82667E+03 -1.08866E+04  2.73475E+03 -1.18550E+04  6.90802E+03 -8.50707E+03  1.16177E+04 -4.66522E+03
  1.08141E+04  2.66387E+03  7.15573E+03  7.97153E+03  8.44466E+02  8.89322E+03 -2.77607E+03  6.05099E+03
 -5.34024E+03  1.69143E+03 -2.39730E+03 -2.51840E+02 -1.75002E+03 -1.52990E+03  4.64254E+01  8.26631E+02
 -1.99023E+03  1.15087E+03 -1.26767E+03  1.97096E+03 -2.38702E+03 -1.32146E+03  1.72163E+02 -3.13535E+03
  4.13057E+03 -3.39316E+03  6.24067E+03  2.41069E+02  6.48756E+03  1.92172E+03  1.00889E+03  8.02213E+03
 -4.05951E+03  1.03443E+04 -8.13008E+03  5.44223E+03 -9.00891E+03 -5.94508E+02 -7.01824E+03 -4.72498E+03
 -2.63912E+03 -9.25459E+03  2.18272E+03 -7.89179E+03  4.66134E+03 -3.55796E+03  5.68800E+03 -2.92071E+02
  2.67169E+03  3.15797E+03  1.04618E+03  2.00718E+03 -7.06050E+02  7.62759E+02  2.44027E+02 -2.75513E+03
  1.47717E+03 -6.87574E+02  2.13362E+03  9.69507E+02  2.34191E+03  3.01100E+03  1.98024E+02  5.27059E+03
 -4.35175E+03  3.21483E+03 -5.59119E+03  2.74567E+03 -4.15356E+03 -2.62847E+03 -1.28717E+03 -4.56662E+03
  4.36049E+03 -5.74219E+03  5.58463E+03 -1.87708E+03  5.88372E+03 -4.66752E+02  2.51044E+03  3.99229E+03
 -5.38258E+02  3.92347E+03 -1.91116E+03  4.47427E+03 -1.97902E+03  2.56318E+03 -3.77784E+03  1.13947E+03
 -1.55786E+03  5.65983E+02 -8.65618E+02  8.48526E+02 -3.77122E+03  1.17582E+03 -3.73215E+03 -9.21944E+02
 -2.76963E+03 -2.31670E+03 -2.03821E+03 -5.17010E+03  2.28727E+03 -6.02183E+03  4.03876E+03 -3.35246E+03
  4.48703E+03  5.97203E+02  2.68892E+03  3.12702E+03 -8.61995E+02  4.03119E+03 -4.06644E+03  2.56639E+03
