 $NMID ID='MM_0lb_SNR200_11hz_g45_45.RAW', FMTDAT='(8E13.5)'
 TRAMP=1., VOLUME=1. $END
  3.09258E+05 -2.62934E+02  3.37692E+05  2.50822E+05  8.45215E+04  3.37269E+05 -1.32074E+05  2.51093E+05
 -1.90242E+05  8.22190E+04 -1.12830E+05 -3.15277E+04  7.23731E+02 -5.03382E+04  5.31330E+04 -4.18130E+02
  3.51256E+04  5.23428E+04 -1.78536E+04  7.64520E+04 -6.10704E+04  6.47763E+04 -8.62034E+04  3.19236E+04
 -8.23902E+04 -1.04344E+04 -5.72011E+04 -5.25191E+04 -1.51148E+04 -7.01906E+04  2.96854E+04 -4.71596E+04
  4.07247E+04  4.49447E+03  1.58856E+04  4.77980E+04 -3.41431E+04  5.03287E+04 -6.68690E+04 -3.94106E+02
 -5.48588E+04 -5.69184E+04 -5.95438E+03 -7.76550E+04  3.45811E+04 -5.48555E+04  4.83667E+04 -1.80910E+04
  4.46673E+04  1.11166E+04  3.21483E+04  2.51357E+04  1.56892E+04  2.91298E+04 -5.85435E+03  2.69431E+04
 -2.24820E+04  1.25379E+04 -1.80120E+04 -5.04282E+03  7.26947E+03 -7.09453E+03  2.34906E+04  1.27848E+04
  6.00184E+03  3.50275E+04 -3.31965E+04  3.64778E+04 -6.36602E+04  2.12841E+03 -5.84589E+04 -4.39417E+04
 -1.14910E+04 -6.34093E+04  4.07142E+04 -4.64047E+04  6.02294E+04 -2.80330E+03  3.56714E+04  3.21165E+04
 -5.54012E+03  3.81252E+04 -3.02347E+04  1.81032E+04 -3.20837E+04 -4.49747E+03 -1.66922E+04 -1.18011E+04
 -9.49941E+03 -1.35872E+04 -1.61961E+02 -1.91767E+04  5.84273E+03 -2.21822E+04  1.57525E+04 -1.17909E+04
  1.16172E+04  6.34914E+03 -1.01328E+04  1.39790E+04 -2.28777E+04 -7.86523E+03 -7.94969E+03 -3.47251E+04
  2.36769E+04 -4.43072E+04  5.06153E+04 -2.01134E+04  4.68519E+04  2.01263E+04  1.73650E+04  4.55872E+04
 -1.73838E+04  3.56964E+04 -2.65888E+04  1.02262E+03 -1.01995E+04 -2.99046E+04  2.23728E+04 -3.44340E+04
  4.37094E+04 -1.03315E+04  3.86130E+04  2.37455E+04  2.05630E+04  4.75705E+04 -7.62237E+03  5.30606E+04
 -3.38621E+04  3.49135E+04 -4.44829E+04  1.07751E+04 -4.39395E+04 -1.79505E+04 -2.43209E+04 -4.08282E+04
  7.28417E+03 -3.98500E+04  3.33773E+04 -1.63522E+04  3.10075E+04  1.12405E+04  5.38480E+03  1.92874E+04
 -1.38175E+04  8.24549E+03 -1.11012E+04 -8.88537E+03  6.49773E+03 -1.24001E+04  1.85226E+04  5.95710E+03
  1.62869E+04  2.28388E+04 -5.68049E+03  2.61781E+04 -2.43978E+04  1.29416E+04 -2.93397E+04 -4.06777E+03
 -2.27852E+04 -1.87216E+04 -9.76406E+03 -2.08772E+04  4.30476E+03 -2.22202E+04  1.62561E+04 -2.09473E+04
  2.96869E+04 -1.29854E+04  3.43924E+04  4.92542E+03  2.54268E+04  2.32059E+04  4.05995E+03  3.90270E+04
 -1.91563E+04  3.35230E+04 -2.78957E+04  9.87556E+03 -2.23725E+04 -9.92780E+03 -4.76285E+03 -1.32896E+04
 -1.16577E+03 -2.74533E+03 -5.70065E+03  8.00398E+03 -1.74445E+04  5.39667E+03 -1.78429E+04 -8.51849E+03
 -1.09668E+04 -2.07750E+04  5.37638E+03 -2.53954E+04  1.70528E+04 -1.88694E+04  1.94552E+04 -1.94966E+03
  1.27420E+04  1.42846E+04 -1.68367E+03  2.15199E+04 -1.50548E+04  1.23082E+04 -2.09763E+04 -4.06682E+03
 -1.58252E+04 -1.86687E+04 -7.24296E+02 -2.53172E+04  1.31440E+04 -2.07831E+04  2.11224E+04 -1.13200E+04
  1.93538E+04  7.11698E+01  1.48382E+04  3.68685E+03  6.21126E+03  1.36775E+03  1.11149E+04 -1.25740E+03
  1.80148E+04  2.98941E+03  2.30546E+04  1.73907E+04  1.36596E+04  3.41618E+04 -1.60619E+03  3.95571E+04
 -2.26018E+04  3.24323E+04 -3.58985E+04  1.55974E+04 -3.95776E+04 -3.06655E+03 -3.25555E+04 -2.24214E+04
 -1.34597E+04 -3.26252E+04  1.05254E+04 -2.92441E+04  2.52658E+04 -1.37040E+04  2.14547E+04  6.21632E+03
  9.23915E+03  1.63751E+04 -1.06791E+04  1.46097E+04 -1.70233E+04  1.47189E+03 -1.45466E+04 -1.28722E+04
 -1.78690E+03 -1.62034E+04  8.59002E+03 -1.24619E+04  1.18195E+04 -1.40966E+03  2.03834E+03  6.72838E+03
 -7.53115E+03  4.19462E+03 -8.27567E+03 -5.57684E+03 -7.80288E+02 -1.44439E+04  1.11624E+04 -1.73910E+04
  1.97310E+04 -8.72056E+03  2.19921E+04  3.59638E+03  1.91015E+04  1.70371E+04  8.45851E+03  2.38844E+04
 -2.76815E+03  2.80987E+04 -1.73567E+04  1.75669E+04 -1.85772E+04  3.64125E+03 -1.18888E+04 -4.18082E+03
 -4.26186E+03 -6.12300E+03 -3.95258E+02  6.23514E+02 -2.97467E+03  1.49995E+03 -7.48100E+03  6.79580E+03
 -1.27266E+04 -4.54459E+02 -1.28644E+04 -1.15798E+04 -5.81343E+03 -1.65461E+04  5.52794E+03 -1.42890E+04
  9.19778E+03 -4.86245E+03  7.43827E+03  4.00045E+03  1.04888E+03  4.83831E+03 -6.23197E+03  4.84683E+02
 -6.70467E+03 -8.11798E+03  1.06527E+02 -1.23186E+04  7.07550E+03 -1.37034E+04  1.68924E+04 -7.72762E+03
  1.93240E+04  1.32656E+03  1.49336E+04  1.18609E+04  2.80010E+03  1.62618E+04 -7.93951E+03  1.29972E+04
 -9.80810E+03  3.75466E+03 -5.05969E+03 -2.62515E+03  2.29686E+03 -3.50940E+03  7.35728E+03 -2.48848E+03
  7.42355E+03  6.70836E+03  7.94991E+02  1.05477E+04 -6.22824E+03  9.64044E+03 -1.27015E+04  3.43392E+03
 -8.71073E+03 -7.19369E+03  2.13736E+02 -1.17482E+04  7.64905E+03 -4.63891E+03  7.81970E+03  2.44056E+03
  8.15377E+02  6.76183E+03 -7.06245E+03  9.10745E+03 -1.07611E+04  3.86568E+03 -1.18952E+04 -3.25249E+03
 -7.33302E+03 -1.20533E+04  2.77246E+03 -1.39626E+04  1.12459E+04 -8.02416E+03  1.41124E+04  2.55943E+03
  7.39328E+03  1.06371E+04 -1.67157E+03  1.23924E+04 -9.30072E+03  7.03530E+03 -1.00631E+04 -4.33742E+02
 -9.16355E+03 -8.34647E+03 -2.01494E+03 -9.84994E+03  6.42634E+03 -9.27571E+03  5.34223E+03 -3.68967E+03
  4.77383E+03  5.22062E+02 -1.82083E+02  6.44775E+02  4.72749E+02 -1.90199E+03  1.64740E+03 -5.71230E+03
  1.03346E+04 -3.26111E+03  1.29769E+04  8.68747E+02  1.29586E+04  9.39972E+03  8.62687E+03  1.61040E+04
 -4.45150E+03  1.88331E+04 -1.57274E+04  1.45707E+04 -2.27956E+04  1.22292E+03 -1.67016E+04 -6.81735E+03
 -7.76581E+03 -1.34084E+04 -4.31495E+02 -1.08808E+04  4.65705E+03 -6.54507E+03  4.11125E+03 -3.40832E+03
  3.05859E+03 -3.84162E+03  3.87339E+03 -2.19792E+03  5.10687E+03 -4.51374E+03  6.38129E+03 -7.55615E+02
  8.23986E+03  3.52264E+03  4.24992E+03  6.60625E+03 -2.03987E+03  7.94945E+03 -9.35307E+03  7.57059E+03
 -1.09404E+04 -1.08102E+03 -7.05311E+03 -8.40129E+03 -1.02121E+03 -1.20865E+04  7.82971E+03 -1.33250E+04
  1.16431E+04 -6.15742E+03  1.48219E+04  2.71925E+03  9.17045E+03  1.04854E+04  7.72051E+02  1.50870E+04
 -6.35934E+03  1.14336E+04 -7.20771E+03  4.78131E+03 -4.81464E+03 -2.45799E+03 -3.28888E+03 -2.35038E+03
 -7.77766E+02  1.63683E+03 -2.26578E+03  2.24528E+03 -5.51544E+03  3.39503E+03 -7.40331E+03 -5.67840E+02
 -5.32347E+03 -7.74901E+03 -1.03959E+03 -1.22650E+04  6.43435E+03 -1.11653E+04  1.08191E+04 -3.86877E+03
  1.01075E+04  5.35809E+03  5.27508E+03  1.02381E+04 -2.76621E+03  1.03747E+04 -8.17094E+03  6.22665E+03
 -1.03651E+04  1.91422E+01 -7.19820E+03 -7.07571E+03 -2.07126E+02 -9.56527E+03  4.31866E+03 -8.03043E+03
  7.57030E+03 -2.68642E+03  4.50330E+03  6.79273E+02  1.00219E+03  5.49934E+03  1.39401E+03  1.67632E+03
  2.86264E+03  1.49787E+03  2.93517E+03  2.56529E+03  4.48475E+03  4.42667E+03  2.85204E+03  5.40452E+03
 -2.82385E+03  8.03217E+03 -8.33535E+03  9.61503E+03 -1.29449E+04  2.36171E+03 -1.10900E+04 -5.05807E+03
 -3.10454E+03 -1.09817E+04  2.47621E+03 -1.25502E+04  5.11133E+03 -7.33936E+03  9.87097E+03 -2.71650E+03
  8.02774E+03  4.57785E+03  7.12186E+02  6.35280E+03 -3.91679E+03  4.28061E+03 -5.80660E+03  1.49005E+02
 -2.45362E+03 -3.00715E+03  3.35720E+03 -3.83169E+03  4.34571E+03 -1.44225E+03  3.32679E+03  6.57674E+02
  3.95042E+03  2.49318E+03  9.06127E+02  2.08449E+03  1.05209E+03  1.14674E+03  5.76228E+02 -4.93577E+02
  2.61970E+03 -1.34987E+03  4.87732E+03  1.91475E+03  3.25876E+03  5.57210E+03 -6.24502E+02  9.56805E+03
 -5.07636E+03  4.20507E+03 -6.21708E+03  6.56889E+02 -5.85182E+03 -1.44055E+03 -2.27289E+03 -4.02309E+03
  7.09712E+01 -3.92432E+03  4.13011E+03 -2.61548E+03  1.37851E+03  2.49043E+03 -8.74644E+02  3.72287E+03
 -4.51295E+03  1.65277E+03 -4.02702E+03 -3.51616E+03 -2.56694E+03 -6.25984E+03  6.87306E+02 -6.19111E+03
  2.94346E+03 -2.94757E+03  3.00295E+03 -6.80241E+02  5.60970E+03  1.57426E+03 -1.40448E+03  3.64026E+03
 -2.10294E+03  1.26780E+03 -1.69014E+03 -1.91210E+03 -1.71027E+02 -5.47204E+03  5.94380E+03 -2.62090E+03
  5.61113E+03 -1.32612E+02  8.26237E+03  5.30608E+03  1.90013E+03  7.39473E+03 -2.40355E+03  7.56288E+03
 -5.91959E+03  3.41246E+03 -5.35650E+03 -2.87977E+03 -3.15782E+03 -5.09390E+03  2.81823E+03 -4.23211E+03
  3.88025E+03 -1.83499E+03  4.19380E+03  1.19451E+03  1.21164E+03  2.60494E+03 -1.77215E+03  2.21006E+03
 -2.46059E+03  2.41993E+03 -2.47591E+03  8.99233E+01 -1.35078E+03 -4.20904E+02 -2.29125E+03  1.24580E+03
 -1.94484E+03  3.41083E+03 -4.65409E+03  2.80718E+03 -7.41054E+03  6.99934E+02 -7.53325E+03 -4.17806E+03
 -4.93277E+03 -8.29632E+03  1.00883E+03 -1.06201E+04  6.88896E+03 -8.31622E+03  1.04501E+04 -3.22974E+03
  1.08384E+04  1.40896E+02  6.01033E+03  5.31770E+03  9.95219E+02  7.31026E+03 -2.20755E+03  4.64343E+03
 -4.15284E+03  3.08007E+03 -1.72115E+03 -5.74811E+02 -4.22354E+02 -7.76010E+02 -7.53860E+02 -6.17037E+02
 -2.18711E+02 -3.44167E+02 -2.24919E+03 -3.94985E+01  1.12225E+03 -2.05961E+03 -1.76406E+03 -3.15853E+03
  4.14700E+03 -2.56996E+03  3.96664E+03  1.92364E+03  4.76455E+03  4.05127E+03  1.27247E+03  6.59048E+03
 -3.37250E+03  7.01336E+03 -5.77439E+03  5.10892E+03 -8.87792E+03 -6.22154E+02 -6.90993E+03 -6.20321E+03
 -2.95831E+03 -5.76954E+03  2.09439E+03 -7.82536E+03  4.11332E+03 -4.81955E+03  5.39789E+03 -1.83732E+02
  2.74618E+03  2.47314E+03  2.13982E+02  2.41631E+03 -2.14494E+03  2.71305E+02 -4.41398E+02 -1.73566E+03
  2.22842E+03 -5.74228E+02  2.27390E+03  1.53434E+03  7.44561E+02  2.36781E+03 -5.91313E+02  3.14171E+03
 -3.14121E+03  2.63480E+03 -4.09447E+03  6.58724E+02 -3.67039E+03 -4.31630E+03 -1.18787E+03 -6.93854E+03
  3.10819E+03 -4.66874E+03  6.56519E+03 -1.28004E+02  5.59136E+03  1.28376E+03  3.44536E+03  4.98091E+03
  1.23297E+03  4.41748E+03 -2.91671E+03  2.27326E+03 -3.87990E+03  2.33632E+03 -2.46278E+03  2.63381E+02
 -1.47427E+03  1.98041E+02 -1.29246E+03  1.86084E+03 -2.76447E+03  3.76773E+02 -3.11220E+03 -7.85581E+02
 -2.44871E+03 -1.42443E+03 -2.33637E+03 -4.78018E+03  2.37488E+03 -4.18125E+03  4.02616E+03 -2.23169E+03
  6.50404E+03  1.85749E+03  1.14872E+03  2.04415E+03 -6.31746E+02  4.95824E+03 -4.31156E+03  2.57044E+03
