 $NMID ID='MM_0lb_SNR200_12hz_g40_57.RAW', FMTDAT='(8E13.5)'
 TRAMP=1., VOLUME=1. $END
  3.09439E+05  1.15075E+02  3.37638E+05  2.49731E+05  8.50858E+04  3.38087E+05 -1.32047E+05  2.51245E+05
 -1.90622E+05  8.28315E+04 -1.12487E+05 -3.36912E+04  1.25473E+02 -5.01697E+04  5.24850E+04 -8.10896E+01
  3.46110E+04  5.27887E+04 -1.66826E+04  7.50938E+04 -6.15345E+04  6.39107E+04 -8.48827E+04  3.22326E+04
 -8.10990E+04 -1.26318E+04 -5.72785E+04 -5.06811E+04 -1.49974E+04 -7.11020E+04  2.60655E+04 -4.66861E+04
  4.04447E+04  3.84537E+03  1.65018E+04  4.77844E+04 -3.44439E+04  4.77538E+04 -6.69309E+04 -9.90889E+02
 -5.35397E+04 -5.77738E+04 -6.09435E+03 -7.73814E+04  3.40040E+04 -5.57769E+04  4.85391E+04 -1.72490E+04
  4.36890E+04  1.05323E+04  3.27477E+04  2.60676E+04  1.59789E+04  2.97352E+04 -5.20896E+03  2.76795E+04
 -2.28986E+04  1.26247E+04 -1.98689E+04 -4.72283E+03  5.19126E+03 -6.91946E+03  2.35794E+04  1.35547E+04
  6.84818E+03  3.55539E+04 -3.28141E+04  3.61472E+04 -6.50823E+04  2.51021E+03 -5.88874E+04 -4.31479E+04
 -1.33247E+04 -6.46249E+04  3.88627E+04 -4.58406E+04  6.06218E+04 -1.60429E+03  3.37927E+04  3.07664E+04
 -6.84574E+03  3.62039E+04 -2.94923E+04  1.69306E+04 -3.22892E+04 -3.94778E+03 -1.83611E+04 -1.26878E+04
 -7.69527E+03 -1.29896E+04 -1.98681E+02 -1.85512E+04  7.98444E+03 -2.32630E+04  1.45763E+04 -1.31691E+04
  1.12821E+04  5.37327E+03 -9.54545E+03  1.35202E+04 -2.09367E+04 -5.50052E+03 -8.97425E+03 -3.53103E+04
  2.30074E+04 -4.38615E+04  4.87933E+04 -1.99863E+04  4.43942E+04  1.96241E+04  1.51130E+04  4.42625E+04
 -1.67407E+04  3.33782E+04 -2.56865E+04  1.42036E+03 -9.49819E+03 -2.71482E+04  2.15956E+04 -3.39073E+04
  4.29682E+04 -1.04099E+04  3.72891E+04  2.35202E+04  1.77098E+04  4.63832E+04 -7.44097E+03  5.04526E+04
 -3.32339E+04  3.37071E+04 -4.35203E+04  1.02082E+04 -4.35424E+04 -1.68483E+04 -2.35956E+04 -3.86841E+04
  6.77183E+03 -3.85000E+04  3.21299E+04 -1.46909E+04  2.90720E+04  1.09613E+04  4.14813E+03  1.94336E+04
 -1.40198E+04  9.01481E+03 -9.62414E+03 -8.32950E+03  5.77682E+03 -1.09969E+04  1.81242E+04  5.57661E+03
  1.43695E+04  2.28371E+04 -6.07738E+03  2.47372E+04 -2.21127E+04  1.33761E+04 -2.89775E+04 -4.85416E+03
 -2.49216E+04 -1.64056E+04 -9.75853E+03 -2.00117E+04  3.69088E+03 -2.07122E+04  1.60080E+04 -1.90625E+04
  2.64766E+04 -1.35237E+04  3.32181E+04  3.92269E+03  2.43134E+04  2.19215E+04  4.99615E+03  3.74655E+04
 -1.78707E+04  3.08694E+04 -2.88798E+04  1.12881E+04 -2.10510E+04 -1.14041E+04 -4.52822E+03 -1.32416E+04
  7.55456E+02 -2.07956E+03 -4.37802E+03  6.16737E+03 -1.59598E+04  5.02769E+03 -1.78834E+04 -7.62132E+03
 -1.00743E+04 -2.05085E+04  6.56320E+03 -2.40054E+04  1.65015E+04 -1.57231E+04  1.90601E+04 -3.27467E+03
  1.16277E+04  1.36821E+04 -1.02411E+03  1.92837E+04 -1.36416E+04  9.97748E+03 -1.97269E+04 -5.37217E+03
 -1.47792E+04 -1.70957E+04 -2.27513E+03 -2.34586E+04  1.25936E+04 -2.04261E+04  2.01303E+04 -1.07317E+04
  1.85868E+04  3.14409E+01  1.28426E+04  5.65936E+03  6.83099E+03  2.33922E+03  1.09488E+04 -2.13291E+03
  1.82891E+04  1.92586E+03  2.10166E+04  1.58182E+04  1.28729E+04  3.20328E+04 -2.73552E+03  3.56282E+04
 -2.26153E+04  2.97356E+04 -3.42120E+04  1.41149E+04 -3.46612E+04 -2.54625E+03 -2.98177E+04 -2.07793E+04
 -1.18948E+04 -2.84424E+04  1.04878E+04 -2.48946E+04  2.25122E+04 -1.14739E+04  1.95882E+04  6.26910E+03
  7.93128E+03  1.45789E+04 -9.71071E+03  1.30037E+04 -1.68176E+04  2.65236E+03 -1.29193E+04 -1.10400E+04
  1.34212E+00 -1.57437E+04  9.15382E+03 -1.34243E+04  1.00407E+04 -1.11940E+03  3.87749E+03  7.92044E+03
 -6.48931E+03  3.62259E+03 -7.04067E+03 -6.41396E+03  3.82048E+02 -1.36846E+04  8.83662E+03 -1.45032E+04
  1.78289E+04 -8.24070E+03  1.99510E+04  3.00499E+03  1.72958E+04  1.47507E+04  7.92848E+03  2.23642E+04
 -3.95179E+03  2.45699E+04 -1.51069E+04  1.48251E+04 -1.77333E+04  3.07600E+03 -1.20391E+04 -4.66726E+03
 -4.74379E+03 -4.68965E+03 -8.21524E+02  3.16395E+02 -1.83891E+03  2.44877E+03 -5.14568E+03  3.46341E+03
 -1.12289E+04 -3.65201E+02 -1.30032E+04 -8.99316E+03 -5.91843E+03 -1.68547E+04  5.93092E+03 -1.21537E+04
  1.11772E+04 -4.46115E+03  6.34412E+03  2.80857E+03 -3.44173E+01  4.26926E+03 -5.13294E+03 -3.26486E+02
 -5.95826E+03 -6.33964E+03 -1.58871E+03 -1.11936E+04  6.35316E+03 -1.21021E+04  1.57274E+04 -7.18307E+03
  1.81493E+04  2.01408E+03  1.28172E+04  1.08742E+04  2.53200E+03  1.42804E+04 -7.11075E+03  1.20861E+04
 -9.24489E+03  2.69224E+03 -6.30089E+03 -2.02325E+03  2.54905E+03 -2.95631E+03  6.05897E+03 -1.45470E+03
  5.74907E+03  4.69749E+03  1.99482E+03  9.75914E+03 -7.78065E+03  9.67588E+03 -1.17326E+04  2.88631E+03
 -7.44395E+03 -6.63465E+03 -1.83979E+02 -1.06229E+04  6.92186E+03 -5.95036E+03  5.84573E+03  2.21988E+03
  1.18712E+03  7.01034E+03 -5.68191E+03  7.78651E+03 -9.93578E+03  3.82483E+03 -9.18426E+03 -2.12262E+03
 -5.56902E+03 -1.15659E+04  3.68364E+03 -1.27582E+04  1.05876E+04 -6.78343E+03  1.21227E+04  2.92262E+03
  7.42472E+03  8.17289E+03 -8.26475E+02  1.16453E+04 -7.49141E+03  5.98791E+03 -9.25294E+03 -1.63081E+03
 -8.49709E+03 -7.96971E+03 -1.50873E+03 -1.02932E+04  3.77017E+03 -6.78812E+03  5.92087E+03 -3.13382E+03
  4.85431E+03  7.02370E+02 -6.79447E+02  9.24363E+02 -1.30548E+03 -1.29237E+03  7.28041E+02 -4.51882E+03
  6.91459E+03 -2.93528E+03  9.92636E+03 -1.26765E+03  1.14258E+04  7.83169E+03  8.70128E+03  1.34640E+04
 -2.87415E+03  1.76498E+04 -1.30105E+04  1.29593E+04 -1.81385E+04  5.56222E+02 -1.35232E+04 -5.54730E+03
 -7.95747E+03 -1.25505E+04  8.83604E+00 -9.30253E+03  4.14807E+03 -6.44445E+03  3.12278E+03 -4.25555E+03
  2.41170E+03 -1.94589E+03  2.53081E+03 -2.96415E+03  4.35246E+03 -2.89795E+03  6.31102E+03  1.31220E+02
  7.77744E+03  2.43776E+03  2.98595E+03  8.27307E+03 -2.07520E+03  7.34073E+03 -9.27572E+03  5.77796E+03
 -8.96224E+03 -1.51682E+03 -5.82237E+03 -7.89730E+03  1.12039E+02 -1.13124E+04  6.74557E+03 -1.03883E+04
  1.26594E+04 -6.00931E+03  1.30818E+04  2.28791E+03  1.00859E+04  1.03808E+04  1.54770E+03  1.28757E+04
 -5.14478E+03  1.10658E+04 -6.27949E+03  2.80457E+03 -4.70558E+03 -1.15994E+03 -1.84313E+03 -1.99933E+03
 -2.18474E+03 -1.76548E+02 -1.75129E+03  2.39468E+03 -3.81597E+03  1.99696E+03 -7.56871E+03 -8.60671E+02
 -3.09458E+03 -6.85785E+03 -2.20097E+02 -9.61788E+03  6.43077E+03 -8.84105E+03  7.62200E+03 -3.35924E+03
  8.91567E+03  4.93417E+03  4.68378E+03  8.35173E+03 -8.10697E+02  1.01067E+04 -7.32460E+03  4.84074E+03
 -8.70099E+03  1.64780E+02 -7.27255E+03 -4.60035E+03  1.39853E+02 -9.11507E+03  4.37613E+03 -6.35485E+03
  5.08612E+03 -2.38930E+03  4.76321E+03  1.80658E+03  1.50809E+03  4.11348E+03  1.67951E+03  9.24252E+02
  2.69152E+03  3.54481E+02  9.06807E+02  1.87754E+03  1.53312E+03  3.66061E+03  3.34887E+03  5.70123E+03
 -1.22039E+03  7.61608E+03 -6.02657E+03  7.60174E+03 -8.12375E+03  1.91373E+03 -1.03820E+04 -4.23584E+03
 -5.03752E+03 -8.51688E+03  1.39567E+03 -1.10342E+04  4.02374E+03 -7.01538E+03  8.10096E+03 -1.16121E+03
  5.48054E+03  4.31920E+03  1.12025E+03  6.50675E+03 -2.68655E+03  2.93576E+03 -2.56759E+03 -3.34466E+02
 -2.32874E+03 -4.31957E+03  3.17221E+03 -4.18637E+03  3.92662E+03 -1.08759E+03  4.30628E+03 -2.16369E+02
  1.34476E+03  7.76266E+02  1.30207E+03  2.02776E+03 -1.70126E+03  2.00960E+03  3.24247E+02 -7.15635E+02
  1.28486E+03 -6.44579E+02  3.84109E+03  1.90285E+03  1.17190E+03  4.62163E+03 -1.33415E+03  6.47178E+03
 -3.84224E+03  4.05972E+03 -5.71421E+03  8.54508E+02 -5.09968E+03 -1.84061E+03 -1.79675E+03 -3.91303E+03
  1.11763E+03 -1.95113E+03  2.58583E+03 -1.05905E+03  3.26370E+03  2.16880E+03 -1.17752E+03  2.83937E+03
 -2.58384E+03  2.39828E+03 -5.07906E+03 -1.47724E+03 -1.87817E+03 -5.94474E+03 -5.50766E+02 -4.77120E+03
  2.75362E+03 -1.64989E+03  4.21370E+03 -7.25494E+01  3.55345E+03  5.29884E+02  1.34426E+03  3.13160E+03
 -1.29441E+03  9.52070E+02 -2.84289E+03 -1.48296E+03  5.92250E+01 -3.71802E+03  4.00938E+03 -2.32300E+03
  4.63572E+03  1.31034E+03  4.51719E+03  3.52398E+03  1.18129E+03  5.09695E+03 -1.94730E+03  5.00174E+03
 -3.80805E+03  2.02039E+03 -4.30337E+03 -1.42565E+02 -2.20225E+03 -3.95191E+03  1.09874E+03 -3.24219E+03
  2.30935E+03 -2.59346E+03  4.29993E+03  1.45442E+03  1.60796E+03  3.55620E+03 -1.37328E+03  3.20119E+03
 -2.71573E+03  2.41086E+03 -1.16127E+03  1.18130E+02  2.20643E+02  8.39136E+02 -1.27940E+03  1.47159E+03
 -1.54700E+03  2.28670E+03 -3.97931E+03  1.39319E+03 -6.58880E+03 -2.47169E+02 -5.72966E+03 -4.43305E+03
 -4.10690E+03 -8.48530E+03  1.37953E+03 -8.12133E+03  5.07935E+03 -7.43728E+03  8.57419E+03 -4.01702E+03
  7.37017E+03  8.31264E+02  4.14895E+03  4.37172E+03 -4.29625E+02  4.63203E+03 -2.79835E+03  4.45708E+03
 -2.60098E+03  2.61137E+03 -2.10882E+03  9.82450E+01 -5.58802E+02  7.21765E+02  9.20117E+02  2.48238E+02
 -1.82427E+03  2.15277E+02 -8.74039E+02  2.20975E+02 -6.16543E+02 -2.22583E+03  5.59789E+02 -2.99482E+03
  2.99948E+03 -2.76010E+03  3.32577E+03  5.10887E+01  4.06965E+03  3.46130E+03  3.93150E+02  5.02428E+03
 -2.30965E+03  7.23205E+03 -5.33610E+03  4.58636E+03 -6.70177E+03 -9.85894E+02 -4.54674E+03 -5.34936E+03
 -2.84654E+03 -5.84801E+03  1.49255E+03 -4.27701E+03  3.11653E+03 -3.70470E+03  3.06346E+03 -3.41336E+02
  1.75034E+03  1.80480E+03 -1.55613E+02  1.21769E+03 -1.47941E+03  2.43259E+02  4.09427E+02 -1.80541E+03
  2.96774E+03  8.10511E+02  1.47621E+03  7.51030E+02  1.77769E+03  2.17080E+03  3.29596E+02  3.14033E+03
 -3.42240E+03  1.36966E+03 -4.08191E+03  3.87876E+01 -3.30391E+03 -3.55198E+03  1.43363E+02 -3.61442E+03
  3.96237E+03 -3.35048E+03  3.76423E+03  1.63311E+02  3.75681E+03  4.23027E+02  2.65823E+03  2.58024E+03
  7.41145E+02  3.35251E+03 -8.09457E+02  2.70268E+03 -1.34476E+03  2.45048E+03 -2.12413E+03 -1.47506E+02
  3.73619E+02  8.43129E+02 -1.19096E+03  1.69837E+03 -3.02180E+03  6.49649E+01 -3.52710E+03 -1.85392E+02
 -3.84762E+03 -1.68533E+03  4.56075E+02 -5.05686E+03  2.28431E+03 -4.23164E+03  3.52552E+03 -2.85259E+03
  4.34391E+03  8.38600E+02  1.68815E+03  2.24705E+03 -1.25109E+02  3.68813E+03 -3.04349E+03  2.77873E+03
