 $NMID ID='MM_0lb_SNR200_18hz_g60_63.RAW', FMTDAT='(8E13.5)'
 TRAMP=1., VOLUME=1. $END
  3.10116E+05  1.32683E+03  3.37191E+05  2.49756E+05  8.48116E+04  3.37423E+05 -1.33055E+05  2.51508E+05
 -1.89678E+05  8.33635E+04 -1.11057E+05 -3.33964E+04  3.98499E+02 -5.14978E+04  5.37085E+04  2.90819E+02
  3.45185E+04  5.33384E+04 -1.76229E+04  7.57854E+04 -6.04030E+04  6.40048E+04 -8.31523E+04  3.16250E+04
 -8.08793E+04 -1.18582E+04 -5.75444E+04 -5.05565E+04 -1.59160E+04 -6.88554E+04  2.74861E+04 -4.56464E+04
  3.97663E+04  3.54939E+03  1.56063E+04  4.63979E+04 -3.35602E+04  4.70986E+04 -6.67910E+04 -7.75529E+02
 -5.37581E+04 -5.57412E+04 -6.04831E+03 -7.58091E+04  3.51263E+04 -5.38277E+04  4.80201E+04 -1.82564E+04
  4.25100E+04  1.03362E+04  3.15834E+04  2.47970E+04  1.57269E+04  2.89735E+04 -4.70669E+03  2.83591E+04
 -2.19411E+04  1.27661E+04 -1.79780E+04 -4.21380E+03  5.62108E+03 -7.39229E+03  2.29838E+04  1.19798E+04
  7.63777E+03  3.54887E+04 -3.16073E+04  3.53743E+04 -6.18708E+04  3.13618E+03 -5.62675E+04 -4.23387E+04
 -1.28174E+04 -6.32040E+04  3.91675E+04 -4.59273E+04  5.69693E+04 -2.76684E+03  3.41245E+04  3.15272E+04
 -5.81522E+03  3.43174E+04 -2.86758E+04  1.53680E+04 -2.97193E+04 -4.04741E+03 -1.61526E+04 -1.05783E+04
 -8.89195E+03 -1.34665E+04 -7.47425E+02 -1.82118E+04  6.98081E+03 -2.37840E+04  1.58420E+04 -1.43070E+04
  1.13444E+04  4.81535E+03 -8.12390E+03  1.17725E+04 -2.02051E+04 -3.35320E+03 -8.88567E+03 -3.20043E+04
  2.15438E+04 -4.31259E+04  4.62456E+04 -2.05942E+04  4.46462E+04  1.90732E+04  1.45243E+04  4.34961E+04
 -1.58208E+04  3.21442E+04 -2.38861E+04  1.01747E+03 -8.91578E+03 -2.63613E+04  2.20473E+04 -3.35473E+04
  4.07302E+04 -8.21824E+03  3.36554E+04  2.34010E+04  1.68895E+04  4.46175E+04 -7.16393E+03  4.78364E+04
 -3.00963E+04  3.32747E+04 -3.91787E+04  8.44298E+03 -4.11271E+04 -1.63666E+04 -2.27780E+04 -3.78672E+04
  7.25619E+03 -3.53561E+04  3.00761E+04 -1.36776E+04  2.88697E+04  1.23527E+04  2.75363E+03  1.94497E+04
 -1.35500E+04  7.48815E+03 -1.03107E+04 -7.55839E+03  6.28185E+03 -1.03078E+04  1.94740E+04  5.73739E+03
  1.32028E+04  2.16188E+04 -7.33349E+03  2.39212E+04 -2.19116E+04  1.09594E+04 -2.65627E+04 -4.98811E+03
 -1.88441E+04 -1.62725E+04 -6.52216E+03 -1.83507E+04  4.68093E+03 -1.79782E+04  1.39561E+04 -1.63499E+04
  2.41736E+04 -1.10191E+04  3.02387E+04  2.02422E+03  2.25281E+04  1.75424E+04  4.52397E+03  3.51978E+04
 -1.72155E+04  2.99721E+04 -2.59798E+04  1.01267E+04 -1.97849E+04 -1.03601E+04 -4.10344E+03 -1.36925E+04
  2.03075E+03 -5.20742E+03 -4.04362E+03  5.55400E+03 -1.46341E+04  5.24540E+03 -1.44623E+04 -5.85413E+03
 -9.29941E+03 -1.77782E+04  4.33757E+03 -2.09660E+04  1.29340E+04 -1.54573E+04  1.57900E+04 -1.72105E+03
  1.07640E+04  1.20448E+04 -2.68663E+02  1.75356E+04 -1.14543E+04  9.40940E+03 -1.69713E+04 -3.83564E+03
 -1.29224E+04 -1.49938E+04 -1.80810E+03 -2.03701E+04  1.05145E+04 -1.74114E+04  1.71199E+04 -8.30558E+03
  1.68174E+04  7.36107E+02  1.30114E+04  5.39510E+03  5.69979E+03  2.61683E+02  9.35988E+03  3.36623E+02
  1.54721E+04  1.98741E+03  1.66775E+04  1.34614E+04  1.11565E+04  2.78663E+04 -1.45376E+03  3.04085E+04
 -1.71543E+04  2.35425E+04 -2.79358E+04  1.24674E+04 -2.85032E+04 -1.10119E+03 -2.48029E+04 -1.67935E+04
 -8.84698E+03 -2.42536E+04  7.23451E+03 -2.07797E+04  1.83950E+04 -1.20143E+04  1.71810E+04  4.30765E+03
  7.21840E+03  1.34814E+04 -7.06746E+03  1.19867E+04 -1.52267E+04  3.47044E+03 -1.23124E+04 -7.69062E+03
 -7.25365E+02 -1.41954E+04  6.56292E+03 -1.02715E+04  8.95332E+03 -9.53965E+02  1.70127E+03  4.86255E+03
 -5.88039E+03  1.90828E+03 -4.74781E+03 -4.66531E+03  4.36272E+02 -1.27695E+04  9.20816E+03 -1.16314E+04
  1.52051E+04 -5.73569E+03  1.41200E+04  2.04918E+03  1.34641E+04  1.08980E+04  4.76931E+03  1.65939E+04
 -1.95595E+03  1.93422E+04 -1.09368E+04  1.13286E+04 -1.28318E+04  3.66052E+03 -9.73231E+03 -2.24831E+03
 -4.96540E+03 -3.91200E+03 -6.66851E+02  2.94204E+03 -1.71907E+03  1.87576E+03 -4.38551E+03  4.47517E+03
 -8.63837E+03 -1.56586E+02 -8.54079E+03 -6.99543E+03 -4.21292E+03 -1.20213E+04  3.51701E+03 -9.06561E+03
  6.70739E+03 -4.81934E+03  5.61865E+03  2.23553E+03  1.38566E+03  4.03647E+03 -5.31728E+03 -4.04161E+02
 -3.48474E+03 -5.66188E+03 -4.38448E+01 -8.95879E+03  4.39946E+03 -9.28289E+03  1.01570E+04 -5.04560E+03
  1.35878E+04  5.73018E+02  9.54785E+03  7.00150E+03  1.74922E+03  9.34823E+03 -5.36833E+03  9.50185E+03
 -6.92347E+03  3.98266E+03 -4.67828E+03 -1.45705E+03  7.23952E+02 -2.33027E+03  4.32640E+03 -1.51895E+03
  4.16431E+03  3.52827E+03  1.32540E+03  6.97806E+03 -4.63891E+03  8.31575E+03 -8.15894E+03  1.36500E+03
 -5.60018E+03 -4.13215E+03  1.19251E+02 -6.77187E+03  3.77087E+03 -4.61427E+03  3.19222E+03  1.17530E+03
  1.06835E+03  3.99843E+03 -4.34150E+03  6.46279E+03 -6.08291E+03  3.30872E+03 -4.28484E+03 -3.36617E+02
 -2.80134E+03 -6.47938E+03  1.83801E+03 -7.86414E+03  7.50610E+03 -4.46250E+03  8.20542E+03  7.02059E+02
  4.86670E+03  6.74735E+03  8.57826E+02  9.88060E+03 -6.39216E+03  5.65787E+03 -5.33468E+03 -5.61010E+01
 -6.50169E+03 -4.23847E+03 -1.22167E+03 -5.57582E+03  1.96345E+03 -4.54564E+03  3.35772E+03 -3.26253E+03
  3.31334E+03  1.70956E+03  1.45741E+03  2.49770E+03  8.76328E+02 -8.91515E+01  1.62449E+02 -2.96160E+03
  4.93507E+03 -1.91360E+02  7.21737E+03  8.28546E+02  6.19292E+03  3.78969E+03  6.54887E+03  7.04958E+03
 -2.38418E+03  1.02735E+04 -7.90076E+03  6.73069E+03 -1.16888E+04  1.79266E+03 -9.20759E+03 -3.45187E+03
 -4.53541E+03 -7.28317E+03 -7.46736E+02 -5.16980E+03  1.33570E+03 -2.91307E+03  1.88693E+03 -2.27911E+03
  1.53856E+03 -9.80949E+02  2.22291E+03 -1.92692E+03  3.46350E+03 -1.91936E+03  4.04327E+03  1.39392E+03
  3.83758E+03  1.53146E+03  2.86816E+03  4.07568E+03 -1.85050E+03  3.70084E+03 -4.58284E+03  3.69818E+03
 -5.66004E+03 -1.90749E+03 -1.68870E+03 -3.85699E+03 -6.58996E+02 -6.44159E+03  2.43834E+03 -5.02824E+03
  5.17339E+03 -2.31858E+03  8.90474E+03  1.25704E+00  6.14544E+03  4.56704E+03  1.93812E+03  5.79195E+03
 -2.37425E+03  6.40045E+03 -4.16593E+03  8.41210E+02 -3.37705E+03 -1.32983E+03 -8.33731E+02 -2.23536E+02
 -2.26230E+02  9.14459E+02 -1.39549E+03  2.74535E+03 -2.17963E+03  2.19990E+03 -5.49159E+03  4.60852E+02
 -2.30715E+03 -4.76406E+03  8.33346E+02 -4.50373E+03  3.09108E+03 -5.12912E+03  4.30184E+03 -7.82638E+02
  5.29276E+03  1.45486E+03  2.74976E+03  3.55261E+03 -3.66701E+02  4.86695E+03 -3.20824E+03  2.85179E+03
 -3.97947E+03 -2.86610E+02 -3.70596E+03 -2.05021E+03 -9.36664E+02 -4.12386E+03  1.80291E+03 -2.39538E+03
  2.78027E+03 -7.97641E+02  2.56821E+03  3.96856E+02  5.46086E+02  2.41909E+03 -2.42721E+02  1.15780E+03
  2.63707E+03  2.91153E+01  2.05517E+03  2.16507E+03  2.20160E+03  2.64883E+03  1.78047E+03  3.16924E+03
 -1.32776E+03  1.83882E+03 -2.25294E+03  4.70518E+03 -2.84613E+03  1.06854E+03 -5.45679E+03 -1.24437E+03
 -2.29922E+03 -4.92445E+03  2.29976E+03 -5.09916E+03  2.19576E+03 -2.29841E+03  3.92372E+03 -2.04248E+03
  1.90525E+03  1.72429E+03  5.76412E+02  2.34707E+03 -5.18469E+02  9.73261E+02 -1.94326E+03 -1.43682E+03
 -4.48563E+02 -1.49852E+03  3.87613E+02 -2.00010E+03  1.31973E+03 -9.63424E+02  2.25903E+03 -2.37377E+02
  9.68271E+02  6.41140E+02 -1.49222E+02  5.37151E+02  2.89116E+02  5.39862E+02  1.19400E+03  1.12490E+02
 -5.29327E+02  2.89624E+02  2.58179E+03  3.48560E+02  2.05763E+02  2.54055E+03 -2.62503E+02  2.65715E+03
 -2.17984E+03  1.37665E+03 -1.76954E+03 -6.42719E+02 -3.35969E+03 -5.17728E+02  1.46658E+03 -1.47676E+03
  3.80414E+02 -1.47430E+03  7.01820E+02 -1.26012E+03  1.48524E+03  9.75389E+02 -4.48356E+02  2.16857E+03
 -1.87529E+03  6.31286E+02 -7.93365E+02 -1.97616E+03 -1.51196E+03 -2.36094E+03  6.27782E+02 -2.17522E+03
  1.37245E+03 -1.07518E+03  9.87673E+02 -3.99725E+02  1.78061E+03  1.55839E+02  5.43337E+02  1.58131E+03
 -4.80789E+02  3.38030E+02 -8.09999E+02 -6.45521E+02  1.89843E+03 -1.97567E+03  7.78147E+02 -1.91292E+03
  1.38443E+03  4.14284E+02  2.09709E+03  1.66840E+03  1.49059E+03  8.32929E+02  1.33904E+02  2.71330E+03
 -8.82010E+02  8.50430E+02 -2.68133E+03 -9.68312E+02 -1.92467E+02 -1.47475E+03  3.11196E+02 -6.77161E+02
  1.53181E+02 -5.17550E+02  5.56536E+02  8.00436E+02  1.72663E+02  1.27530E+03  1.05276E+03  2.44469E+01
 -8.64877E+02  4.30398E+02 -2.50947E+02 -2.87401E+02 -9.05339E+01 -9.17313E+02 -2.28762E+02  1.05423E+03
  7.01047E+01 -1.63654E+00 -4.92889E+02  1.04331E+03 -1.36600E+03 -4.26854E+02 -3.35746E+03 -5.10330E+02
 -1.19749E+03 -2.83797E+03 -4.89730E+02 -3.40478E+03  4.09295E+02 -2.84628E+03  2.84596E+03 -8.81654E+02
  2.27837E+03 -2.16634E+02  1.73154E+03  1.78039E+03 -1.56674E+03  1.25210E+03 -6.12372E+02  1.53167E+03
 -9.16102E+02 -9.92221E+02  6.33186E+02  7.36657E+02  3.96183E+02  3.93037E+02 -1.93344E+03 -2.69805E+02
 -1.34750E+03  7.31219E+01 -4.45322E+02 -2.10911E+02 -1.62054E+02  5.29392E+02 -9.46737E+02 -1.82441E+03
  1.61983E+03 -1.14900E+02 -4.32683E+01 -3.22540E+02  9.11671E+02  8.72899E+02 -1.85678E+02  1.07750E+03
 -6.99467E+01  2.74886E+03 -1.61214E+03  1.95048E+03 -1.57238E+03 -2.23726E+02 -2.45424E+03 -1.46771E+03
 -1.42678E+03 -1.08378E+03  6.79198E+02 -4.90510E+02  4.81088E+01  6.98395E+01 -3.52660E+02  3.75038E+02
  7.17319E+01  3.49737E+02  4.95304E+01 -1.05889E+02  4.91274E+02 -1.03503E+02  3.01775E+02  4.59553E+02
  9.11610E+02 -9.68837E+01 -3.34009E+02  1.33582E+03 -2.87972E+02 -6.68762E+02  1.50881E+03 -1.30257E+03
 -6.80027E+02  9.68962E+02 -2.29827E+02  5.77351E+02 -6.44052E+02 -4.79891E+02  1.05631E+03 -2.82085E+02
  6.38966E+02 -6.72541E+02  1.55314E+01  1.60506E+03  4.92558E+02 -2.20364E+02  2.10022E+02  1.44053E+03
  1.09483E+03 -5.76268E+02 -1.90999E+02 -9.19926E+01 -5.23689E+02  2.25762E+02 -9.00230E+02  4.03947E+02
  1.93005E+03 -5.60458E+01 -2.59899E+02 -2.05924E+02 -3.53904E+02  6.52225E+02 -9.93999E+02  1.00220E+03
 -1.45919E+03  8.83347E+02 -6.65741E+02 -1.03035E+03  1.44109E+03 -1.80286E+03  8.80618E+02 -2.97551E+02
  9.27002E+02  9.41517E+02 -2.86787E+02  2.49911E+02 -9.75215E+02  3.97620E+02  7.00074E+02  1.81288E+03
