 $NMID ID='MM_0lb_SNR200_13hz_g45_37.RAW', FMTDAT='(8E13.5)'
 TRAMP=1., VOLUME=1. $END
  3.10222E+05 -6.52234E+02  3.37920E+05  2.50141E+05  8.46747E+04  3.38717E+05 -1.32046E+05  2.51330E+05
 -1.90845E+05  8.28113E+04 -1.11950E+05 -3.35437E+04 -6.62227E+02 -5.11411E+04  5.27138E+04 -1.03564E+03
  3.45352E+04  5.21363E+04 -1.52158E+04  7.50105E+04 -6.07706E+04  6.45377E+04 -8.40257E+04  3.27446E+04
 -8.11053E+04 -1.16363E+04 -5.82728E+04 -5.16044E+04 -1.51851E+04 -7.04280E+04  2.79728E+04 -4.48276E+04
  4.10396E+04  4.46122E+03  1.56054E+04  4.76868E+04 -3.42664E+04  4.67024E+04 -6.85047E+04 -7.59359E+02
 -5.34248E+04 -5.87209E+04 -7.47599E+03 -7.77380E+04  3.42507E+04 -5.58151E+04  4.88676E+04 -1.75150E+04
  4.41529E+04  1.05630E+04  3.09654E+04  2.64541E+04  1.59356E+04  2.97018E+04 -4.69579E+03  2.78575E+04
 -2.10942E+04  1.14573E+04 -1.79515E+04 -6.00005E+03  5.11195E+03 -7.75954E+03  2.10141E+04  1.16033E+04
  7.61579E+03  3.63165E+04 -3.25424E+04  3.59598E+04 -6.26543E+04  1.99947E+03 -5.74237E+04 -4.31115E+04
 -1.30152E+04 -6.37201E+04  4.12048E+04 -4.56641E+04  5.94227E+04 -3.10903E+03  3.43192E+04  3.21665E+04
 -6.81523E+03  3.75843E+04 -2.99903E+04  1.68784E+04 -3.07439E+04 -4.61126E+03 -1.70782E+04 -1.06292E+04
 -7.46330E+03 -1.38256E+04 -9.55919E+02 -2.02017E+04  6.79375E+03 -2.28738E+04  1.57578E+04 -1.25974E+04
  1.16124E+04  5.31595E+03 -7.59363E+03  1.23040E+04 -2.19960E+04 -4.26118E+03 -8.45385E+03 -3.48832E+04
  2.21260E+04 -4.38452E+04  4.73245E+04 -1.95774E+04  4.52388E+04  1.90274E+04  1.59581E+04  4.36649E+04
 -1.56821E+04  3.45191E+04 -2.49767E+04  1.53286E+03 -1.00594E+04 -2.73915E+04  2.07572E+04 -3.31975E+04
  4.16175E+04 -1.03637E+04  3.65430E+04  2.46285E+04  1.87208E+04  4.59295E+04 -8.51412E+03  5.07169E+04
 -3.24300E+04  3.47539E+04 -4.18385E+04  1.00088E+04 -4.28915E+04 -1.57867E+04 -2.41181E+04 -3.82891E+04
  8.67698E+03 -3.76566E+04  3.27051E+04 -1.58028E+04  2.96580E+04  1.13166E+04  3.34071E+03  1.95629E+04
 -1.34886E+04  8.07890E+03 -1.00240E+04 -6.33371E+03  5.56511E+03 -1.06465E+04  1.78295E+04  6.49848E+03
  1.37966E+04  2.18567E+04 -5.98742E+03  2.71217E+04 -2.37421E+04  1.16208E+04 -2.76757E+04 -5.13707E+03
 -2.08219E+04 -1.77863E+04 -7.85381E+03 -2.13591E+04  4.76177E+03 -2.03663E+04  1.51930E+04 -1.84397E+04
  2.73155E+04 -1.24977E+04  3.32753E+04  1.24249E+03  2.42294E+04  2.00844E+04  5.16207E+03  3.68904E+04
 -1.75071E+04  2.96927E+04 -2.73718E+04  1.13986E+04 -2.03605E+04 -1.13615E+04 -5.84305E+03 -1.45056E+04
  1.16924E+03 -2.77010E+03 -4.76218E+03  7.52359E+03 -1.61751E+04  5.22442E+03 -1.72751E+04 -7.62186E+03
 -8.81308E+03 -1.92202E+04  3.75475E+03 -2.26533E+04  1.46792E+04 -1.55675E+04  1.79667E+04 -1.67824E+03
  1.09168E+04  1.30209E+04 -2.23341E+03  1.86370E+04 -1.33821E+04  1.08867E+04 -1.94901E+04 -4.94545E+03
 -1.41871E+04 -1.76954E+04 -1.27201E+03 -2.44098E+04  9.91625E+03 -1.99936E+04  2.01872E+04 -9.47687E+03
  1.91049E+04 -3.26480E+02  1.46095E+04  4.85287E+03  6.76456E+03  1.36278E+03  1.01952E+04 -1.88924E+03
  1.66408E+04  2.89038E+03  2.02353E+04  1.39687E+04  1.31962E+04  3.12995E+04 -2.76259E+03  3.56984E+04
 -2.02440E+04  2.88511E+04 -3.45349E+04  1.40677E+04 -3.52574E+04 -3.37520E+03 -2.79357E+04 -2.02733E+04
 -1.18920E+04 -2.94353E+04  9.67358E+03 -2.43669E+04  2.14307E+04 -1.28023E+04  1.95212E+04  6.22459E+03
  7.38007E+03  1.53863E+04 -9.98246E+03  1.25900E+04 -1.63208E+04  2.56039E+03 -1.31575E+04 -1.03154E+04
  1.05455E+03 -1.43793E+04  7.48502E+03 -1.34550E+04  1.00693E+04 -1.44532E+03  3.02941E+03  6.50180E+03
 -6.62162E+03  1.78945E+03 -6.71674E+03 -5.79874E+03 -2.01273E+03 -1.37852E+04  9.33748E+03 -1.50916E+04
  1.69029E+04 -7.09637E+03  1.77264E+04  2.34877E+03  1.63795E+04  1.44634E+04  8.02551E+03  2.03598E+04
 -4.44761E+03  2.17592E+04 -1.52118E+04  1.42176E+04 -1.66893E+04  2.25073E+03 -1.30244E+04 -4.01586E+03
 -4.22011E+03 -5.74707E+03 -1.66774E+03  3.09132E+01 -1.97014E+03  2.92243E+03 -5.89941E+03  4.96026E+03
 -1.05549E+04 -4.65828E+02 -1.13776E+04 -9.28924E+03 -3.94467E+03 -1.55596E+04  4.01299E+03 -1.21030E+04
  1.05072E+04 -5.89439E+03  6.88241E+03  2.83435E+03 -6.43789E+02  5.60804E+03 -5.50910E+03 -9.17216E+02
 -5.85611E+03 -7.53638E+03 -3.32977E+02 -1.11912E+04  5.63711E+03 -1.13524E+04  1.40046E+04 -6.13843E+03
  1.72210E+04  6.34173E+02  1.23223E+04  1.00972E+04  3.01362E+03  1.34320E+04 -7.07205E+03  1.13213E+04
 -9.39560E+03  2.56450E+03 -5.49474E+03 -2.83352E+03  1.39299E+03 -3.03122E+03  5.56312E+03  2.64455E+02
  6.00959E+03  6.62144E+03  8.89485E+02  1.00971E+04 -6.89006E+03  9.20679E+03 -1.10933E+04  1.48676E+03
 -7.18730E+03 -4.71994E+03  8.25310E+02 -1.07014E+04  5.29420E+03 -5.35780E+03  6.77155E+03  1.60933E+03
  1.21670E+03  6.48466E+03 -6.49081E+03  7.46907E+03 -8.98711E+03  4.74512E+03 -9.01688E+03 -4.01424E+03
 -5.14776E+03 -1.01842E+04  1.54572E+03 -1.25690E+04  1.08833E+04 -8.30341E+03  1.12253E+04  2.02067E+03
  6.11552E+03  7.84442E+03 -5.17635E+02  1.06264E+04 -9.37489E+03  4.86401E+03 -8.41198E+03 -3.11176E+02
 -7.70856E+03 -7.21653E+03 -1.71432E+03 -6.85055E+03  5.21126E+03 -6.69500E+03  4.97566E+03 -3.55336E+03
  2.75613E+03  1.87189E+03 -9.15378E+02  2.37356E+03  2.01686E+02 -7.09991E+02 -1.16308E+01 -5.69812E+03
  5.18052E+03 -2.50715E+03  9.80054E+03  5.27109E+02  1.13728E+04  7.08302E+03  8.07356E+03  1.38159E+04
 -2.83598E+03  1.43428E+04 -1.24421E+04  1.03875E+04 -1.59960E+04  2.61501E+03 -1.37203E+04 -5.10899E+03
 -7.84556E+03 -1.20570E+04 -6.01590E+02 -9.62347E+03  2.67673E+03 -5.84722E+03  2.06573E+03 -3.80397E+03
  3.54666E+03 -1.35041E+03  2.59235E+03 -2.95063E+03  4.60216E+03 -3.24785E+03  5.77974E+03  4.57635E+02
  7.72838E+03  1.56866E+03  2.62922E+03  6.54781E+03 -1.34227E+03  6.03658E+03 -8.15875E+03  6.39047E+03
 -9.92301E+03 -1.89378E+03 -5.47065E+03 -7.74874E+03  1.32303E+03 -9.08414E+03  5.94572E+03 -1.00155E+04
  9.87767E+03 -4.32407E+03  1.20171E+04  2.61271E+03  8.54847E+03  9.62726E+03  1.89965E+03  1.11534E+04
 -4.46742E+03  9.94518E+03 -6.19836E+03  4.57439E+03 -4.33136E+03 -1.71913E+03 -2.35826E+03 -6.10406E+02
 -1.62034E+03  1.34414E+03 -1.55636E+03  4.26128E+03 -4.27276E+03  1.81960E+03 -7.39716E+03 -5.08973E+02
 -5.57537E+03 -5.74616E+03  1.09924E+03 -9.18858E+03  5.67197E+03 -6.51380E+03  8.47970E+03 -1.65225E+03
  8.62375E+03  4.12562E+03  3.39171E+03  6.32945E+03 -1.90977E+03  8.75227E+03 -5.79278E+03  6.33032E+03
 -6.83595E+03  4.62821E+02 -5.76543E+03 -5.12435E+03  4.50636E+02 -7.84586E+03  4.01816E+03 -4.99210E+03
  5.41617E+03 -2.41650E+03  4.40043E+03  5.53421E+02  1.25520E+03  2.26925E+03  1.57331E+03  5.91326E+02
  1.95608E+03  1.31005E+03  2.76465E+03  1.46251E+03  2.39602E+03  2.94856E+03  1.73406E+03  3.99062E+03
 -1.83087E+03  4.95568E+03 -5.98657E+03  7.20212E+03 -7.80167E+03  2.81651E+03 -9.58857E+03 -2.47725E+03
 -3.48818E+03 -8.94362E+03  1.73820E+03 -1.01139E+04  4.23449E+03 -5.50746E+03  6.64889E+03 -1.59350E+03
  6.03513E+03  2.87996E+03 -3.27817E+02  4.49472E+03 -1.83842E+03  3.40770E+03 -3.84370E+03 -8.12536E+02
 -1.47884E+03 -2.41458E+03  3.09861E+03 -2.91450E+03  3.13000E+03 -2.19339E+03  2.84081E+03 -3.02518E+02
  2.41715E+03  1.27418E+03  1.01996E+03  1.25584E+03 -8.58550E+02  1.92947E+03  9.86537E+02 -1.28079E+03
  1.25372E+03  4.89763E+02  4.20098E+03  2.14615E+03  9.74003E+02  5.00833E+03 -1.27856E+03  5.60332E+03
 -3.92523E+03  2.97183E+03 -4.68061E+03  1.17857E+03 -3.27578E+03 -2.64170E+03 -1.98978E+03 -3.30751E+03
  2.32749E+03 -2.75834E+03  2.00515E+03 -1.63562E+03  1.61515E+03  2.48212E+03 -2.38484E+03  3.38291E+03
 -2.14362E+03  2.69680E+03 -4.72096E+03 -2.58689E+03 -2.75165E+03 -5.17539E+03  7.04024E+02 -5.13153E+03
  3.30314E+03 -2.17133E+03  2.59554E+03  1.36397E+01  1.89993E+03  1.33328E+03  1.31062E+03  1.85197E+03
 -1.18338E+03  1.21540E+03 -1.78564E+03 -1.49177E+03  4.51566E+02 -2.18779E+03  3.59741E+03 -3.16647E+03
  3.91132E+03  7.83466E+02  6.30083E+03  4.23738E+03  2.64377E+03  5.56245E+03 -3.72871E+02  4.27277E+03
 -4.58515E+03  2.10028E+03 -4.23153E+03 -1.40694E+03 -3.54700E+03 -4.52567E+03  3.54644E+02 -2.89509E+03
  3.01788E+03 -1.87701E+03  2.37955E+03 -4.67338E+02  8.27555E+02  4.25340E+03  5.55742E+02  2.11745E+03
 -1.95273E+03  2.03204E+03 -1.47747E+03 -1.17908E+02 -1.34292E+02  1.31019E+03 -1.94573E+03  1.09187E+03
 -1.55726E+03  3.46918E+03 -4.55862E+03  2.74269E+03 -5.97740E+03 -2.66758E+02 -5.90189E+03 -2.29568E+03
 -2.27266E+03 -5.57833E+03  1.19966E+03 -7.32582E+03  4.30524E+03 -5.11836E+03  6.87125E+03 -1.85811E+03
  6.96958E+03  1.49587E+03  3.35935E+03  4.74476E+03 -5.16150E+02  4.66532E+03 -1.75811E+03  3.11532E+03
 -3.44996E+03  2.52516E+03 -1.48858E+03 -6.71974E+02 -6.69655E+02 -1.11210E+03 -4.83522E+02 -1.94441E+02
 -7.66238E+02  3.36042E+01  3.79350E+02  1.67892E+02 -9.75564E+02 -1.27649E+03  3.92954E+02 -2.88431E+03
  1.77140E+03 -2.03196E+03  3.41444E+03  4.58309E+02  2.06559E+03  1.78951E+03  9.79209E+02  4.74118E+03
 -3.42864E+03  5.69435E+03 -5.33490E+03  2.12539E+03 -5.26269E+03 -9.03387E+02 -3.84369E+03 -4.66417E+03
 -1.68349E+03 -4.23128E+03  1.09102E+03 -3.81807E+03  3.07486E+03 -2.06025E+03  2.39125E+03 -4.22615E+02
  2.09432E+03  1.48296E+03  6.71739E+01  1.32872E+03 -2.32330E+03 -3.61606E+02 -6.89175E+02 -8.52944E+02
  9.13225E+02 -3.53457E+02  2.53378E+03  1.92605E+01 -1.56127E+02  1.48698E+03  6.55987E+02  2.50862E+03
 -2.71964E+03  1.81154E+03 -2.31261E+03  2.27358E+02 -2.11486E+03 -2.37931E+03  1.58015E+03 -1.69941E+03
  1.59166E+03 -2.08101E+03  2.12978E+03 -7.96793E+02  3.21797E+03 -5.05116E+01  2.33006E+03  3.51077E+03
 -6.53889E+02  2.29711E+03 -2.29360E+03  2.40034E+03 -2.56889E+03  3.06794E+03 -1.47340E+03  2.13835E+01
 -8.10920E+02 -1.52919E+03 -1.50673E+03  4.03465E+02 -1.69334E+03  7.87913E+02 -1.62039E+03 -1.25394E+03
 -1.95279E+03  6.94293E+02 -1.72239E+03 -2.66982E+03  2.69100E+03 -4.62696E+03  2.79971E+03 -9.18137E+02
  2.47471E+03  1.28114E+03  1.19088E+03  2.39534E+03 -7.01305E+02  3.21431E+03 -1.62621E+03  1.96414E+03
