 $NMID ID='MM_0lb_SNR200_15hz_g40_69.RAW', FMTDAT='(8E13.5)'
 TRAMP=1., VOLUME=1. $END
  3.10108E+05  3.66313E+02  3.37262E+05  2.49775E+05  8.52567E+04  3.37928E+05 -1.32732E+05  2.50603E+05
 -1.90453E+05  8.25907E+04 -1.10506E+05 -3.30792E+04  3.86708E+02 -5.14892E+04  5.42791E+04 -3.14652E+02
  3.52400E+04  5.32209E+04 -1.78251E+04  7.58081E+04 -5.98597E+04  6.34051E+04 -8.32099E+04  3.24796E+04
 -8.04788E+04 -1.01276E+04 -5.68986E+04 -5.13056E+04 -1.52440E+04 -6.95604E+04  2.79588E+04 -4.64067E+04
  3.91714E+04  3.61064E+03  1.59674E+04  4.76542E+04 -3.30963E+04  4.65031E+04 -6.63419E+04 -5.90588E+02
 -5.13249E+04 -5.75313E+04 -6.96040E+03 -7.60077E+04  3.50103E+04 -5.35388E+04  4.60039E+04 -1.68515E+04
  4.24751E+04  1.17085E+04  3.11926E+04  2.47666E+04  1.62183E+04  2.97628E+04 -4.94898E+03  2.62402E+04
 -2.11452E+04  1.24241E+04 -1.96745E+04 -3.45108E+03  5.35374E+03 -6.99662E+03  2.22864E+04  1.17381E+04
  7.29786E+03  3.50731E+04 -3.12928E+04  3.45797E+04 -6.29186E+04  2.40575E+03 -5.67536E+04 -4.38437E+04
 -1.23467E+04 -6.15768E+04  3.97691E+04 -4.33766E+04  5.77464E+04 -2.77668E+03  3.40330E+04  3.11704E+04
 -6.11762E+03  3.40072E+04 -2.97684E+04  1.50661E+04 -2.91472E+04 -4.37843E+03 -1.55505E+04 -1.10108E+04
 -7.98757E+03 -1.34917E+04 -9.43838E+02 -1.68158E+04  6.39619E+03 -2.19705E+04  1.59359E+04 -1.41439E+04
  1.11386E+04  5.44668E+03 -7.98697E+03  1.29458E+04 -1.99932E+04 -3.16471E+03 -8.61353E+03 -3.10291E+04
  2.21128E+04 -4.22412E+04  4.51049E+04 -1.89367E+04  4.29870E+04  1.96918E+04  1.60276E+04  4.41480E+04
 -1.63406E+04  3.23655E+04 -2.40533E+04  2.15837E+03 -8.29038E+03 -2.72624E+04  2.04686E+04 -3.31931E+04
  3.93444E+04 -8.44792E+03  3.25587E+04  2.34111E+04  1.68092E+04  4.34121E+04 -7.77637E+03  4.79526E+04
 -3.01802E+04  3.02455E+04 -3.99310E+04  9.44173E+03 -4.20762E+04 -1.71748E+04 -2.15355E+04 -3.63589E+04
  7.11333E+03 -3.54158E+04  3.06687E+04 -1.25747E+04  2.87121E+04  1.01690E+04  3.90672E+03  1.82688E+04
 -1.24768E+04  8.05132E+03 -9.66667E+03 -7.52137E+03  5.37824E+03 -1.02553E+04  1.68722E+04  6.07168E+03
  1.29271E+04  2.21026E+04 -6.60450E+03  2.53847E+04 -2.33133E+04  9.96386E+03 -2.68814E+04 -4.96964E+03
 -1.91571E+04 -1.62356E+04 -6.11875E+03 -1.87236E+04  3.57897E+03 -1.72267E+04  1.40119E+04 -1.60551E+04
  2.28911E+04 -1.18090E+04  2.99610E+04  1.99443E+03  2.31157E+04  1.96831E+04  2.94740E+03  3.44179E+04
 -1.71655E+04  2.88820E+04 -2.63430E+04  9.84331E+03 -2.05051E+04 -1.04705E+04 -4.31533E+03 -1.41072E+04
  2.65178E+03 -2.10923E+03 -4.15580E+03  6.11998E+03 -1.42548E+04  4.87101E+03 -1.46263E+04 -6.92012E+03
 -9.21305E+03 -1.78285E+04  4.86798E+03 -2.15669E+04  1.32960E+04 -1.58395E+04  1.68639E+04 -1.95927E+03
  1.06916E+04  1.13415E+04 -1.16185E+03  1.76961E+04 -1.22247E+04  1.00113E+04 -1.81120E+04 -3.76303E+03
 -1.22927E+04 -1.48851E+04 -3.13232E+03 -2.04954E+04  8.89273E+03 -1.68481E+04  1.81053E+04 -8.07506E+03
  1.60050E+04  1.01073E+03  1.20286E+04  5.44852E+03  6.42069E+03  8.59002E+02  8.54743E+03 -2.02864E+03
  1.56242E+04  3.71920E+03  1.81955E+04  1.45128E+04  1.11095E+04  2.85745E+04 -3.32300E+03  3.08668E+04
 -1.85709E+04  2.44946E+04 -2.88410E+04  1.29315E+04 -3.00757E+04 -2.17810E+03 -2.48013E+04 -1.73738E+04
 -1.14825E+04 -2.33319E+04  7.28104E+03 -2.09310E+04  1.89732E+04 -1.23272E+04  1.77075E+04  5.60388E+03
  7.32259E+03  1.34437E+04 -8.01317E+03  1.10323E+04 -1.44331E+04  2.50517E+03 -1.15742E+04 -8.52432E+03
 -4.34693E+02 -1.34111E+04  6.02369E+03 -1.21259E+04  9.10528E+03 -6.65665E+02  2.59321E+03  6.22930E+03
 -6.72697E+03  2.64123E+03 -5.09258E+03 -5.40922E+03  3.58017E+00 -1.10855E+04  8.80212E+03 -1.20571E+04
  1.56901E+04 -7.19241E+03  1.54097E+04  2.86410E+03  1.29984E+04  1.16700E+04  8.28798E+03  1.76584E+04
 -2.61460E+03  1.93797E+04 -1.27425E+04  1.26535E+04 -1.42979E+04  3.88203E+03 -1.14691E+04 -2.93360E+03
 -4.67233E+03 -4.17885E+03 -8.49505E+02  9.00442E+02 -3.25180E+03  2.49602E+03 -4.98188E+03  3.62432E+03
 -9.96616E+03 -4.31796E+02 -1.00299E+04 -8.04694E+03 -2.98218E+03 -1.31794E+04  4.84378E+03 -1.01819E+04
  8.49344E+03 -4.64488E+03  5.68943E+03  2.79063E+03  1.18484E+03  3.14859E+03 -3.33214E+03 -3.11505E+02
 -4.76970E+03 -6.42706E+03 -4.67822E+02 -9.04849E+03  4.01881E+03 -8.88890E+03  1.22144E+04 -5.55108E+03
  1.32021E+04  6.38049E+02  1.16630E+04  7.15382E+03  1.83260E+03  1.10033E+04 -6.53616E+03  9.10248E+03
 -8.48171E+03  2.17319E+03 -4.55342E+03 -2.20126E+03  6.46744E+02 -3.32009E+03  5.88469E+03 -1.06329E+03
  4.63992E+03  3.04112E+03  1.85307E+03  9.44576E+03 -6.04161E+03  8.50645E+03 -9.36584E+03  1.40083E+03
 -5.76151E+03 -4.65735E+03  1.13408E+03 -7.75963E+03  4.58704E+03 -4.42343E+03  5.83010E+03  3.15439E+03
  2.93435E+03  4.64996E+03 -4.84592E+03  7.86307E+03 -8.10252E+03  2.72077E+03 -6.07217E+03 -2.09071E+03
 -4.33664E+03 -8.20579E+03  1.18952E+03 -9.54141E+03  9.21426E+03 -5.96054E+03  8.85118E+03  1.17501E+03
  5.87841E+03  6.53051E+03 -1.98070E+01  9.49668E+03 -7.17340E+03  5.44759E+03 -6.28440E+03 -1.46877E+03
 -6.72971E+03 -6.55866E+03 -1.20338E+03 -6.32885E+03  2.46349E+03 -5.64397E+03  3.87712E+03 -3.31228E+03
  2.91956E+03  1.32450E+03 -6.87056E+02  7.29934E+02 -1.05335E+03 -5.83381E+02  7.06297E+02 -2.72165E+03
  4.75163E+03 -1.36192E+03  6.97253E+03  6.15959E+02  7.04946E+03  4.65021E+03  6.19526E+03  1.05499E+04
 -2.38841E+03  1.20946E+04 -1.10256E+04  1.00110E+04 -1.39398E+04  1.37337E+03 -1.05942E+04 -2.78897E+03
 -4.24428E+03 -8.41157E+03 -1.09810E+03 -7.30463E+03  2.77737E+03 -3.29636E+03  1.50531E+03 -2.81900E+03
  1.71092E+03 -1.45590E+03  2.33454E+03 -3.30093E+03  3.22646E+03 -1.86861E+03  3.48499E+03  1.55698E+03
  6.29066E+03  1.46661E+03  1.73351E+03  4.04268E+03 -1.08932E+03  4.18788E+03 -5.19591E+03  4.12163E+03
 -8.03353E+03 -1.18035E+03 -3.81431E+03 -4.54657E+03 -7.88878E+02 -7.29284E+03  4.81020E+03 -8.55744E+03
  7.66001E+03 -4.95133E+03  9.13646E+03  1.67081E+02  6.72331E+03  6.29223E+03  1.26282E+03  8.14957E+03
 -3.43822E+03  7.63249E+03 -4.57194E+03  1.20178E+03 -2.70317E+03 -1.35790E+03 -1.03125E+01 -1.35570E+03
 -1.13049E+03 -8.08502E+02 -3.03888E+02  2.41581E+03 -1.54005E+03  4.07095E+02 -4.80638E+03 -1.02003E+03
 -2.52507E+03 -4.88442E+03  2.17529E+02 -5.59531E+03  4.42318E+03 -6.55170E+03  7.65520E+03 -1.41231E+03
  6.61904E+03  4.32192E+03  3.54412E+03  5.22756E+03 -1.04231E+03  7.10496E+03 -5.05816E+03  4.23705E+03
 -5.20443E+03  1.48818E+03 -4.38149E+03 -3.70720E+03 -4.75951E+02 -4.01272E+03  3.02838E+03 -3.91076E+03
  4.02962E+03 -1.44120E+03  2.45265E+03  1.77596E+03  1.64173E+03  2.05897E+03  5.98889E+02  7.25410E+02
  1.91199E+03  1.51990E+01  1.14403E+03  2.03131E+03  1.62294E+03  1.45801E+03  2.39782E+03  3.28232E+03
 -1.42974E+03  4.80148E+03 -3.51556E+03  5.74803E+03 -5.13342E+03  1.11404E+03 -7.12236E+03 -1.05556E+03
 -4.18023E+03 -4.96997E+03  1.24754E+03 -6.51268E+03  4.22837E+03 -4.85303E+03  4.82163E+03 -5.67740E+02
  2.71886E+03  2.78008E+03  6.72888E+02  3.28755E+03 -1.54373E+03  1.71945E+03 -1.94443E+03  4.53816E+02
 -1.65824E+03 -2.77193E+03  5.07209E+02 -1.45373E+03  3.17383E+03 -1.57829E+03  7.00038E+02  1.18818E+03
  1.79655E+03  1.25493E+03  9.64745E+02  5.82538E+02 -5.88249E+02  6.89170E+02  7.52129E+02  2.28818E+02
 -3.16755E+01 -8.99168E+02  2.25728E+03  1.17423E+03  3.14733E+02  3.04076E+03 -1.82108E+03  4.05383E+03
 -2.52246E+03  1.84274E+03 -3.88310E+03  1.13842E+03 -3.94608E+03 -1.60853E+03 -4.60386E+02 -1.97570E+03
  1.21079E+03 -2.03968E+03  1.86316E+03 -8.65667E+02  1.87776E+03  9.17434E+02 -4.19075E+02  1.43682E+03
 -2.52343E+03  1.14538E+03 -6.30619E+02 -2.88571E+03 -6.45540E+02 -2.03015E+03  2.59592E+02 -2.74981E+03
  1.28357E+03 -1.71388E+03  3.40391E+03 -7.68854E+02  2.48978E+03 -2.66384E+02  7.31450E+02  1.57754E+03
 -8.84499E+02 -4.62386E+02 -1.28982E+03 -2.82169E+02  1.01758E+03 -1.83755E+03  3.46253E+03 -2.44759E+03
  2.27876E+03  2.38974E+02  3.59800E+03  9.29626E+02  1.50014E+03  3.08692E+03 -1.66264E+03  2.75455E+03
 -2.71363E+03  1.81947E+03 -3.07600E+03  3.61503E+02 -3.03202E+03 -2.90560E+03  1.16627E+03 -1.70255E+03
  2.37216E+03  8.89165E+02  1.28109E+03  7.94163E+02  8.62980E+02  2.08027E+03  1.51890E+02  2.41915E+03
 -1.08755E+03  2.18007E+03 -4.53460E+02  6.21190E+02 -1.25674E+03 -4.21301E+02 -1.26860E+03 -6.60021E+02
 -1.68038E+03  1.51498E+03 -2.43806E+03 -1.64276E+02 -4.03367E+03  6.29679E+02 -4.30733E+03 -2.62272E+03
 -2.87223E+03 -4.65479E+03  1.02380E+03 -4.02283E+03  2.19885E+03 -5.42853E+03  4.87751E+03 -1.15145E+03
  4.31888E+03  4.84760E+01  2.54833E+03  4.33346E+03 -4.34507E+02  2.87213E+03 -8.10950E+02  2.88244E+03
 -2.20086E+03  4.68478E+02 -1.07628E+03 -8.66310E+02 -6.95592E+02 -3.75948E+02 -6.80421E+02 -3.96658E+02
 -1.65205E+03 -4.64302E+02 -5.72113E+02 -5.24430E+02  2.98906E+02 -1.24704E+03 -5.31171E+02 -1.54087E+03
  2.11209E+03 -2.32256E+03  1.71679E+03  5.87324E+02  2.86672E+03  1.83910E+03 -1.15652E+03  2.75245E+03
 -1.61880E+03  4.24329E+03 -3.89456E+03  1.95048E+03 -4.63671E+03  3.78826E+02 -3.31089E+03 -2.36068E+03
 -2.20591E+03 -3.16582E+03 -4.13990E+02 -2.19024E+03  1.63566E+03 -8.07034E+02  1.50484E+03  4.28472E+02
  1.02348E+03  1.73984E+03 -8.99831E+01  4.72225E+02  6.28202E+00 -3.73283E+01  9.61445E+02 -9.72383E+01
  6.92015E+02  5.67015E+02  8.99456E+02  1.41867E+03  1.12574E+03  2.88018E+02 -3.04793E+02  1.65984E+03
 -2.15644E+03  7.27658E+02 -1.88376E+03  8.68967E+02 -1.96465E+03 -5.31036E+02 -3.15327E+02 -2.67767E+03
  1.03242E+03 -1.33736E+03  2.13706E+03  7.35926E+02  2.94520E+03  4.56596E+02  1.80294E+03  2.33343E+03
  1.65465E+03  1.29505E+03 -3.28591E+02  1.18747E+03 -4.17271E+02  9.21220E+02 -1.33756E+03  1.57059E+02
 -5.80862E+02 -1.07578E+03 -4.56275E+02  1.12341E+03 -1.40997E+03  4.80576E+02 -1.55036E+03 -1.11497E+03
 -1.90823E+03 -2.87077E+02  1.26240E+02 -2.40538E+03  1.32151E+03 -2.38269E+03  1.59359E+03 -3.49215E+02
  2.49620E+03  7.45745E+01  5.82630E+02  1.76655E+03 -2.19379E+02  2.46852E+03 -9.20710E+02  1.07075E+03
