 $NMID ID='MM_0lb_SNR200_14hz_g40_65.RAW', FMTDAT='(8E13.5)'
 TRAMP=1., VOLUME=1. $END
  3.09931E+05 -4.56355E+02  3.38415E+05  2.51085E+05  8.46048E+04  3.38052E+05 -1.31878E+05  2.49597E+05
 -1.90868E+05  8.32319E+04 -1.10721E+05 -3.32350E+04  1.41354E+03 -5.07314E+04  5.29621E+04 -1.21077E+03
  3.58664E+04  5.31330E+04 -1.65533E+04  7.38130E+04 -5.97357E+04  6.32677E+04 -8.45708E+04  3.31474E+04
 -7.95768E+04 -1.10982E+04 -5.59770E+04 -5.08989E+04 -1.52626E+04 -6.80018E+04  2.81003E+04 -4.63316E+04
  3.97704E+04  3.99693E+03  1.57526E+04  4.72173E+04 -3.46462E+04  4.76104E+04 -6.63640E+04  1.03331E+03
 -5.28622E+04 -5.66196E+04 -7.83106E+03 -7.72003E+04  3.46778E+04 -5.49480E+04  4.92759E+04 -1.69617E+04
  4.17059E+04  1.16811E+04  3.07406E+04  2.54740E+04  1.64685E+04  2.95154E+04 -5.19668E+03  2.71748E+04
 -2.16035E+04  1.21621E+04 -1.97760E+04 -5.52931E+03  5.04704E+03 -7.85622E+03  2.19403E+04  1.07159E+04
  7.95934E+03  3.42301E+04 -3.18099E+04  3.57203E+04 -6.14008E+04  2.04416E+03 -5.68347E+04 -4.22902E+04
 -1.23817E+04 -6.21774E+04  3.96518E+04 -4.56658E+04  5.60350E+04 -1.49308E+03  3.33724E+04  3.19585E+04
 -5.97872E+03  3.47750E+04 -2.93396E+04  1.42306E+04 -3.02521E+04 -4.83823E+03 -1.58643E+04 -1.04228E+04
 -8.12562E+03 -1.22166E+04 -1.15226E+03 -1.78987E+04  6.66659E+03 -2.26098E+04  1.59870E+04 -1.39646E+04
  1.16913E+04  4.65836E+03 -8.63609E+03  1.33027E+04 -1.94626E+04 -4.77323E+03 -7.45770E+03 -3.33041E+04
  2.13285E+04 -4.19481E+04  4.72053E+04 -1.87792E+04  4.35509E+04  1.93685E+04  1.37577E+04  4.37879E+04
 -1.60969E+04  3.19902E+04 -2.57349E+04 -2.15817E+02 -8.27688E+03 -2.70522E+04  2.20616E+04 -3.40209E+04
  4.09816E+04 -9.17184E+03  3.39337E+04  2.37294E+04  1.84492E+04  4.51478E+04 -8.75285E+03  4.83283E+04
 -3.07386E+04  3.35222E+04 -4.15746E+04  8.83143E+03 -4.10793E+04 -1.63436E+04 -2.35236E+04 -3.60290E+04
  6.66597E+03 -3.67525E+04  3.07803E+04 -1.33491E+04  2.78306E+04  1.13812E+04  3.39458E+03  1.81001E+04
 -1.31479E+04  7.33612E+03 -1.09351E+04 -7.17398E+03  6.19308E+03 -1.11098E+04  1.74334E+04  6.36860E+03
  1.27303E+04  2.04273E+04 -6.36696E+03  2.48610E+04 -2.24509E+04  1.04432E+04 -2.64766E+04 -4.39862E+03
 -2.01624E+04 -1.70395E+04 -7.82505E+03 -2.04995E+04  3.76643E+03 -1.84940E+04  1.51142E+04 -1.79738E+04
  2.47700E+04 -1.33975E+04  3.21256E+04  2.50213E+03  2.18101E+04  2.05095E+04  4.14465E+03  3.64004E+04
 -1.67292E+04  2.87129E+04 -2.75521E+04  1.09548E+04 -2.05480E+04 -1.12330E+04 -4.80182E+03 -1.39558E+04
  2.61683E+03 -3.83997E+03 -3.76302E+03  6.43380E+03 -1.50958E+04  4.10986E+03 -1.51193E+04 -6.82709E+03
 -1.03545E+04 -1.84753E+04  4.62210E+03 -2.20287E+04  1.42662E+04 -1.57916E+04  1.76405E+04 -6.71701E+02
  1.03278E+04  1.27915E+04 -4.79587E+02  1.84113E+04 -1.29914E+04  1.01735E+04 -1.88315E+04 -5.08626E+03
 -1.33875E+04 -1.63285E+04 -2.16148E+03 -2.22768E+04  9.23025E+03 -1.86162E+04  1.84150E+04 -9.08094E+03
  1.63404E+04  1.08456E+03  1.18624E+04  4.41154E+03  5.82157E+03  9.41615E+02  9.58308E+03 -8.45800E+02
  1.80367E+04  2.50408E+03  1.80612E+04  1.44679E+04  1.33997E+04  2.83234E+04 -3.38994E+03  3.26425E+04
 -1.92247E+04  2.54529E+04 -3.10282E+04  1.20426E+04 -3.25015E+04 -2.90856E+03 -2.69952E+04 -1.90327E+04
 -1.10666E+04 -2.52327E+04  9.19700E+03 -2.38128E+04  2.11927E+04 -1.28959E+04  1.85773E+04  5.39020E+03
  8.33566E+03  1.58080E+04 -8.32369E+03  1.15690E+04 -1.60479E+04  4.60181E+03 -1.23737E+04 -1.00671E+04
  2.52551E+02 -1.51799E+04  6.80952E+03 -1.09433E+04  1.01161E+04 -2.17001E+03  2.89709E+03  7.36960E+03
 -6.21811E+03  3.88776E+03 -4.97126E+03 -5.69810E+03 -3.68599E+02 -1.34396E+04  8.97562E+03 -1.33029E+04
  1.59927E+04 -7.01827E+03  1.69985E+04  1.91886E+03  1.55330E+04  1.21953E+04  6.44643E+03  1.95801E+04
 -3.04055E+03  2.14466E+04 -1.33857E+04  1.41199E+04 -1.59690E+04  2.82082E+03 -1.19213E+04 -3.87926E+03
 -6.63401E+03 -4.52163E+03  5.59093E+02  4.22695E+02 -2.55411E+03  2.62236E+03 -5.07528E+03  4.85386E+03
 -1.03900E+04 -1.16075E+02 -1.07439E+04 -7.85721E+03 -4.58951E+03 -1.38675E+04  4.73863E+03 -1.14708E+04
  8.95858E+03 -3.60029E+03  7.35278E+03  3.25890E+03  1.10828E+03  3.55293E+03 -4.02718E+03  2.53343E+02
 -3.89992E+03 -7.72493E+03 -9.78254E+02 -9.66373E+03  6.40271E+03 -1.20529E+04  1.23461E+04 -4.99587E+03
  1.67254E+04  9.39859E+02  1.16132E+04  8.43802E+03  9.80448E+02  1.16333E+04 -6.21567E+03  1.12358E+04
 -8.39203E+03  3.17086E+03 -3.49558E+03 -2.04117E+03  2.51974E+03 -3.11528E+03  4.73232E+03 -1.25017E+03
  4.90468E+03  5.02095E+03  2.34136E+03  8.75440E+03 -6.57726E+03  8.06341E+03 -1.10006E+04  2.35686E+03
 -6.74279E+03 -4.21459E+03  7.55041E+02 -1.03241E+04  5.16963E+03 -4.21096E+03  6.84453E+03  1.80756E+03
  1.66830E+03  4.63107E+03 -6.46376E+03  6.27392E+03 -7.44847E+03  3.95568E+03 -6.65899E+03 -1.73378E+03
 -4.18023E+03 -9.64778E+03  1.61090E+03 -1.07681E+04  8.57685E+03 -6.35444E+03  1.00471E+04  1.90905E+03
  6.49443E+03  8.36254E+03 -6.05228E+02  8.57214E+03 -7.82505E+03  6.25474E+03 -7.24814E+03 -2.39922E+03
 -7.30295E+03 -7.04595E+03 -1.14743E+03 -6.67058E+03  4.07712E+03 -6.19540E+03  4.36986E+03 -2.79910E+03
  2.60824E+03  2.22427E+03  5.92847E+02  2.59414E+03  4.10816E+02 -2.27076E+03  1.04537E+03 -3.79261E+03
  4.95452E+03 -1.70743E+03  8.74695E+03  1.38865E+03  8.93388E+03  5.19912E+03  7.54022E+03  1.09519E+04
 -1.93382E+03  1.32794E+04 -1.20475E+04  9.47483E+03 -1.42350E+04  1.93212E+03 -1.25170E+04 -5.08490E+03
 -5.72373E+03 -1.01848E+04 -4.88288E+02 -6.88438E+03  3.11731E+03 -3.71910E+03  3.73057E+03 -1.69828E+03
  2.97831E+03 -6.02184E+02  2.63457E+03 -2.83374E+03  3.23663E+03 -1.55246E+03  5.86634E+03 -7.38155E+02
  7.21355E+03  4.01025E+02  3.55546E+03  5.17384E+03 -2.02030E+03  4.56043E+03 -6.15047E+03  4.04833E+03
 -7.02223E+03 -2.94500E+02 -3.52640E+03 -4.15273E+03  1.41429E+02 -8.54445E+03  4.60364E+03 -1.03683E+04
  8.54376E+03 -5.57718E+03  1.04858E+04  1.58819E+03  8.34545E+03  7.55297E+03  1.20255E+03  8.44228E+03
 -4.83349E+03  8.21673E+03 -5.50368E+03  4.41195E+03 -4.93077E+03 -1.51373E+03 -2.58987E+03 -6.49115E+02
 -7.63948E+02 -8.92434E+01 -1.73745E+03  2.69025E+03 -4.18812E+03  7.19071E+02 -5.03281E+03 -1.38546E+03
 -3.44269E+03 -5.89104E+03  3.57807E+02 -8.85329E+03  4.19454E+03 -6.76263E+03  6.85916E+03 -1.48101E+03
  7.38166E+03  3.43413E+03  2.64985E+03  5.41132E+03 -1.00121E+03  8.09609E+03 -4.71826E+03  5.52573E+03
 -6.44628E+03  1.75444E+03 -5.18657E+03 -4.16125E+03 -7.59337E+02 -5.43666E+03  3.35982E+03 -4.90393E+03
  6.14823E+03 -1.41338E+03  2.16957E+03  2.20251E+03  8.15705E+02  1.09973E+03  8.94889E+01  1.88308E+03
  1.78210E+03  1.06053E+03  3.24769E+03  2.14617E+03  1.77277E+03  2.45736E+03  1.60677E+03  3.53916E+03
 -5.17520E+02  7.01099E+03 -5.06720E+03  6.55168E+03 -7.24008E+03  1.74144E+03 -8.32281E+03 -2.79468E+03
 -2.95638E+03 -6.84231E+03  1.01984E+03 -8.10258E+03  4.10347E+03 -4.97724E+03  5.37688E+03 -2.45425E+03
  5.21946E+03  2.89380E+03  3.09628E+02  4.71248E+03 -1.39875E+03  1.81864E+03 -2.88063E+03  5.14005E+02
 -1.94357E+03 -2.54547E+03  2.63690E+03 -3.31596E+03  2.53656E+03 -2.49556E+03  2.10454E+03  6.31142E+02
  1.36348E+03  4.33057E+01  6.87600E+02  6.92364E+02 -1.24330E+02  9.54722E+02  2.05954E+03  7.88213E+01
  1.38619E+03 -5.29955E+02  2.02024E+03  6.32671E+02  1.32440E+03  5.39513E+03 -3.75317E+01  4.18400E+03
 -3.62615E+03  3.15236E+03 -4.32934E+03  1.41540E+03 -4.05432E+03 -2.11544E+03 -1.02254E+03 -3.62754E+03
  9.42099E+02 -3.58224E+03  1.72648E+03 -6.38915E+02  3.58207E+02  2.66732E+03 -2.04915E+03  2.56154E+03
 -1.36626E+03  1.45703E+03 -1.40734E+03 -2.12467E+03 -1.67262E+03 -3.49447E+03  2.22401E+03 -2.39131E+03
  5.88759E+02 -2.10625E+03  2.48046E+03 -2.05947E+03  2.11335E+03  4.35230E+02 -3.65273E+02  2.02054E+03
 -2.00501E+03  4.17630E+02 -1.51089E+03 -1.19153E+03  5.30377E+02 -2.85393E+03  2.46912E+03 -1.66330E+03
  4.34517E+03  8.35031E+02  3.98300E+03  3.43051E+03  8.88221E+02  3.88437E+03 -2.47366E+02  4.82451E+03
 -3.00914E+03  3.52557E+02 -3.19534E+03  2.31913E+01 -1.64145E+03 -1.49488E+03  8.64307E+02 -1.13611E+03
  2.80352E+03 -1.17024E+03  2.59731E+03  2.00212E+03  3.75331E+01  2.25464E+03 -5.64033E+02  2.32002E+03
  1.78805E+02  1.96116E+03 -1.24208E+03  3.25569E+02 -1.47742E+02  1.63950E+03 -3.61449E+02  9.48686E+01
 -1.47543E+03  1.30543E+03 -2.76496E+03  3.81945E+02 -4.25641E+03  3.40531E+02 -4.06363E+03 -2.44947E+03
 -2.53210E+03 -5.54821E+03  1.66507E+03 -7.34930E+03  2.62752E+03 -5.32584E+03  6.81444E+03 -2.24801E+03
  5.09808E+03  3.85177E+02  2.53475E+03  3.92586E+03 -7.46444E+02  3.98588E+03 -1.32876E+03  3.63609E+03
 -1.90355E+03  1.79237E+03 -1.82464E+03 -5.49234E+02 -1.19856E+03  1.16124E+03 -1.06496E+03  9.64952E+02
 -2.11894E+03 -2.79904E+02 -1.66989E+03 -8.01107E+01  1.41639E+01 -4.77419E+02  1.37318E+02 -2.25661E+03
  2.52830E+03 -1.25177E+03  2.89212E+03  3.04285E+02  3.54219E+03  2.08425E+03 -1.00711E+03  4.04286E+03
 -2.33773E+03  5.82984E+03 -4.70596E+03  3.91370E+03 -5.02106E+03  8.09585E+02 -3.55800E+03 -2.95052E+03
 -5.68722E+02 -4.41741E+03  7.44283E+02 -3.15087E+03  1.23614E+03 -1.96575E+03  2.41467E+03  1.21688E+03
  2.22029E+03  1.15702E+03  1.05946E+02 -7.45551E+02 -3.95588E+02 -1.34444E+03  6.50523E+01 -7.01719E+02
  7.94079E+02 -4.91327E+02  2.23110E+03  1.17057E+03  1.41347E+03  8.10981E+02  7.24746E+02  2.10633E+03
 -5.16108E+02  9.87221E+02 -1.76351E+03 -2.58392E+01 -2.74620E+03 -1.85258E+03  1.30252E+03 -3.00622E+03
  2.72776E+03 -2.58443E+03  1.67606E+03 -1.19428E+03  5.07002E+02 -2.71345E+02  1.89393E+03  2.62583E+03
 -4.66508E+02  3.49065E+03 -1.48604E+03  1.63825E+03 -1.07729E+03  1.18923E+03 -7.69970E+02  9.43703E+02
 -3.18677E+02  1.01301E+02 -5.37773E+02  7.67562E+02 -1.15999E+03 -9.41006E+01 -2.36946E+03 -1.27227E+03
 -2.06932E+03 -9.64960E+02 -1.19009E+03 -2.81861E+03  2.45821E+03 -2.53391E+03  1.50862E+03 -1.05351E+03
  2.40938E+03 -3.76297E+02  7.70132E+01  1.84925E+03  1.78261E+02  2.71023E+03 -2.24739E+03  1.91167E+03
