 $NMID ID='MM_0lb_SNR200_16hz_g40_2.RAW', FMTDAT='(8E13.5)'
 TRAMP=1., VOLUME=1. $END
  3.10591E+05 -7.53134E+02  3.37384E+05  2.50431E+05  8.47700E+04  3.37806E+05 -1.31469E+05  2.50831E+05
 -1.89711E+05  8.27852E+04 -1.10983E+05 -3.33752E+04  1.97187E+03 -5.04692E+04  5.38138E+04 -4.98763E+02
  3.50776E+04  5.08525E+04 -1.70010E+04  7.61875E+04 -5.97152E+04  6.26969E+04 -8.30992E+04  3.11337E+04
 -8.06355E+04 -1.08039E+04 -5.61691E+04 -5.13306E+04 -1.49581E+04 -6.97496E+04  2.66629E+04 -4.48879E+04
  3.92302E+04  3.67308E+03  1.50962E+04  4.74318E+04 -3.46114E+04  4.74122E+04 -6.55122E+04 -7.41853E+01
 -5.31187E+04 -5.64933E+04 -7.04241E+03 -7.50179E+04  3.36370E+04 -5.36359E+04  4.70605E+04 -1.69118E+04
  4.16423E+04  1.03146E+04  3.21267E+04  2.49953E+04  1.57634E+04  2.90832E+04 -4.79173E+03  2.70097E+04
 -2.15960E+04  1.21887E+04 -1.92447E+04 -4.81542E+03  5.17432E+03 -8.11852E+03  2.09204E+04  1.22209E+04
  8.08837E+03  3.51021E+04 -3.20328E+04  3.39539E+04 -6.08854E+04  1.52019E+03 -5.56172E+04 -4.16651E+04
 -1.18909E+04 -6.24151E+04  3.83308E+04 -4.46458E+04  5.65894E+04 -2.01365E+03  3.26517E+04  3.10142E+04
 -6.92380E+03  3.34009E+04 -2.97529E+04  1.42046E+04 -2.87962E+04 -6.03438E+03 -1.49166E+04 -9.15067E+03
 -7.24286E+03 -1.14277E+04 -2.15446E+02 -1.67081E+04  7.73179E+03 -2.28853E+04  1.54957E+04 -1.38673E+04
  1.09072E+04  3.62550E+03 -6.25191E+03  1.29938E+04 -1.88920E+04 -3.99117E+03 -8.86577E+03 -3.15896E+04
  2.10614E+04 -4.19778E+04  4.59175E+04 -1.88481E+04  4.30415E+04  1.89995E+04  1.45073E+04  4.20991E+04
 -1.57937E+04  3.28060E+04 -2.44329E+04  2.54912E+03 -9.26022E+03 -2.70070E+04  2.06749E+04 -3.18253E+04
  3.94596E+04 -7.21358E+03  3.29819E+04  2.24691E+04  1.72352E+04  4.41603E+04 -8.78057E+03  4.72210E+04
 -2.91643E+04  3.11477E+04 -3.77721E+04  8.37585E+03 -4.04223E+04 -1.64580E+04 -2.16394E+04 -3.57679E+04
  6.24583E+03 -3.54829E+04  3.08255E+04 -1.41149E+04  2.73036E+04  1.09029E+04  3.35704E+03  1.80840E+04
 -1.23811E+04  9.08994E+03 -9.82606E+03 -7.98559E+03  5.65674E+03 -1.01434E+04  1.69249E+04  6.70838E+03
  1.18281E+04  2.10020E+04 -7.26248E+03  2.37087E+04 -2.10816E+04  9.06014E+03 -2.55849E+04 -7.15570E+03
 -1.82629E+04 -1.67681E+04 -6.96035E+03 -1.77174E+04  3.77257E+03 -1.60143E+04  1.36501E+04 -1.50893E+04
  2.32252E+04 -1.17952E+04  2.86426E+04  1.70687E+03  2.24963E+04  1.79738E+04  3.10075E+03  3.40159E+04
 -1.67573E+04  2.96325E+04 -2.63804E+04  9.46913E+03 -2.04408E+04 -1.00439E+04 -4.64526E+03 -1.31299E+04
  2.59550E+03 -3.08464E+03 -2.76105E+03  3.97490E+03 -1.38606E+04  5.35072E+03 -1.38777E+04 -5.76218E+03
 -9.57175E+03 -1.68773E+04  4.01330E+03 -2.00588E+04  1.36370E+04 -1.57708E+04  1.49772E+04 -1.82735E+03
  1.05567E+04  1.09323E+04  4.89033E+01  1.67490E+04 -1.22648E+04  9.49458E+03 -1.61939E+04 -3.87758E+03
 -1.17588E+04 -1.50203E+04 -1.54155E+03 -1.97835E+04  8.68877E+03 -1.59729E+04  1.82322E+04 -7.75373E+03
  1.54593E+04  8.01936E+01  1.11179E+04  4.82872E+03  5.53832E+03  1.24066E+03  8.13359E+03 -1.50579E+03
  1.47690E+04  3.15747E+03  1.51015E+04  1.44178E+04  1.09602E+04  2.66244E+04 -3.35606E+03  2.87475E+04
 -1.74617E+04  2.33055E+04 -2.68246E+04  9.72554E+03 -2.88900E+04 -1.50349E+03 -2.32453E+04 -1.60851E+04
 -9.91982E+03 -2.31809E+04  7.86340E+03 -2.12100E+04  1.90217E+04 -1.16741E+04  1.67342E+04  5.37381E+03
  6.61655E+03  1.25171E+04 -7.26338E+03  1.13684E+04 -1.42133E+04  2.34217E+03 -1.14410E+04 -8.90454E+03
  2.96995E+02 -1.21943E+04  6.36605E+03 -9.39304E+03  8.29117E+03 -6.40749E+02  2.42866E+03  5.62232E+03
 -6.09077E+03  2.68705E+03 -4.56090E+03 -4.48168E+03  1.32068E+02 -1.04504E+04  8.12720E+03 -1.09042E+04
  1.38689E+04 -5.62425E+03  1.44348E+04  2.80512E+03  1.21546E+04  1.19713E+04  5.72414E+03  1.58695E+04
 -3.57958E+03  1.84606E+04 -1.20011E+04  1.18965E+04 -1.24303E+04  2.59133E+03 -8.25722E+03 -2.68791E+03
 -5.11104E+03 -4.11128E+03 -1.34593E+03  7.12576E+02 -2.18478E+03  2.59946E+03 -4.83520E+03  3.03511E+03
 -9.31384E+03 -4.67085E+02 -8.40946E+03 -7.04646E+03 -3.65592E+03 -1.34469E+04  3.94449E+03 -8.21337E+03
  8.72535E+03 -4.61090E+03  6.49026E+03  3.11727E+03  6.72650E+02  3.18454E+03 -5.40169E+03  1.50465E+02
 -4.36261E+03 -6.33174E+03 -1.03571E+03 -7.88868E+03  3.91620E+03 -8.68751E+03  1.09352E+04 -5.76338E+03
  1.43030E+04  5.42154E+02  1.10323E+04  7.46951E+03  1.17899E+03  9.68156E+03 -6.06950E+03  7.81420E+03
 -7.00593E+03  2.88120E+03 -3.49296E+03 -1.00233E+03  1.01995E+03 -2.79220E+03  5.28191E+03 -6.39724E+02
  3.26390E+03  4.40766E+03  1.87415E+03  7.05604E+03 -4.85824E+03  6.22304E+03 -8.88516E+03  8.60293E+02
 -6.38776E+03 -2.80901E+03 -1.06800E+02 -7.80704E+03  3.63916E+03 -3.54545E+03  3.39464E+03  1.41892E+03
 -6.29617E+01  3.57964E+03 -4.70912E+03  5.23161E+03 -6.25143E+03  1.98787E+03 -5.85756E+03 -1.23939E+03
 -3.46612E+03 -7.00373E+03  1.07196E+03 -8.06273E+03  7.38396E+03 -4.94211E+03  7.77731E+03  1.96060E+03
  7.14619E+03  6.93862E+03  1.55985E+02  7.94037E+03 -5.60473E+03  4.04095E+03 -7.06167E+03 -6.47844E+02
 -8.21641E+03 -5.59288E+03 -2.36054E+03 -5.67580E+03  2.62987E+03 -5.15043E+03  2.34510E+03 -2.23152E+03
  2.95298E+03  3.46335E+02  1.87940E+02  1.46787E+03  1.99059E+02 -1.14334E+03  5.78271E+02 -2.83696E+03
  4.82941E+03 -1.09642E+03  7.60213E+03  2.24972E+02  6.98936E+03  4.80875E+03  5.96238E+03  9.30269E+03
 -1.60891E+03  9.87431E+03 -8.74513E+03  8.51337E+03 -1.22556E+04  1.15657E+03 -9.69655E+03 -3.81572E+03
 -4.64164E+03 -7.48451E+03  5.30222E+01 -6.57858E+03  2.21260E+03 -2.83736E+03  1.40066E+03 -2.64358E+03
  1.48996E+03 -7.75231E+02  2.98088E+03 -3.15624E+03  3.71224E+03 -9.92510E+02  4.61113E+03  2.15494E+02
  6.11390E+03  1.95055E+03  1.35502E+03  4.61413E+03 -1.15546E+03  3.82364E+03 -4.88803E+03  3.35840E+03
 -6.39611E+03 -1.55530E+03 -3.19440E+03 -5.03227E+03  5.06946E+02 -6.78675E+03  3.34273E+03 -7.31207E+03
  7.15197E+03 -4.33220E+03  8.06241E+03  1.80826E+02  7.18195E+03  6.18927E+03  1.88373E+03  8.52074E+03
 -2.88682E+03  6.66145E+03 -3.55025E+03  1.49145E+03 -2.55511E+03 -1.78854E+03 -8.64897E+02 -1.60230E+03
 -3.15406E+02  5.44177E+02 -1.10083E+03  3.44099E+03 -2.86050E+03  1.56258E+03 -5.58284E+03 -7.99942E+02
 -2.35297E+03 -5.22609E+03  1.79766E+03 -7.31119E+03  1.98500E+03 -5.71986E+03  6.41272E+03 -1.05801E+02
  5.77115E+03  3.78512E+03  3.51023E+03  4.89292E+03 -1.30110E+03  5.82295E+03 -3.71737E+03  5.23101E+03
 -4.07843E+03  2.45811E+02 -3.52331E+03 -3.68363E+03 -2.98312E+02 -4.57918E+03  2.31109E+03 -3.66934E+03
  3.64993E+03 -1.45608E+03  3.44357E+03  8.69835E+02  6.75790E+02  2.46908E+03  1.35529E+03  1.92035E+03
  2.19886E+03  1.30144E+03  8.21139E+02  1.45223E+03  1.93805E+03  1.69122E+03  8.70490E+02  2.84721E+03
 -8.28282E+02  3.65154E+03 -3.10170E+03  5.47510E+03 -4.78176E+03  4.88140E+02 -4.97428E+03 -1.63385E+03
 -2.41242E+03 -4.70368E+03 -5.99250E+01 -6.41331E+03  2.88045E+03 -3.52693E+03  4.27463E+03 -1.82809E+03
  2.03073E+03  2.48840E+03 -1.40233E+02  2.50062E+03 -5.33061E+02  7.53754E+02 -1.37501E+03 -1.08859E+03
 -1.10890E+03 -2.70051E+03  2.25089E+03 -2.44843E+03  2.02013E+03 -1.79858E+03  2.97691E+03  6.49764E+02
  1.01832E+03  3.79259E+02  9.80300E+02 -3.09513E+02 -6.00201E+02  1.05862E+03  8.10952E+02 -8.66384E+02
  3.03744E+02 -1.32178E+02  2.25945E+03  8.38539E+02  1.31512E+03  2.49539E+03 -2.44900E+02  5.02586E+03
 -1.99553E+03  1.78685E+03 -2.80370E+03  4.62464E+02 -1.27515E+03 -1.81144E+03 -4.47435E+02 -2.95984E+03
 -4.48435E+02 -1.47045E+03  2.35788E+03 -7.05034E+02  1.60520E+03  1.75643E+03 -1.86693E+03  1.31916E+03
 -1.91809E+03  7.18582E+02 -1.63083E+03 -1.85812E+03 -3.03772E+02 -2.49732E+03 -2.85241E+02 -3.02104E+03
  8.56594E+02 -9.91661E+02  2.74152E+03  1.12689E+03  1.70953E+03 -2.43490E+02  1.53281E+03  1.40356E+03
 -2.14925E+02 -3.10525E+02 -7.36514E+02 -1.32612E+03 -7.83701E+02 -2.46288E+02  2.72704E+03 -1.59620E+03
  1.77337E+03  5.19075E+01  3.17224E+03  9.46205E+02  1.90458E+03  2.35807E+03 -6.64157E+02  3.17073E+03
 -2.41048E+03 -3.48574E+02 -3.08704E+03 -1.08688E+03 -9.66361E+02 -1.89954E+03  3.35595E+02 -2.83588E+03
  2.40847E+03 -2.15706E+02  1.59564E+03  7.63570E+02  3.91590E+02  2.38271E+03 -8.92916E+02  2.00704E+03
 -2.13341E+03  1.79394E+03 -1.16244E+03  1.00513E+03  4.67661E+02  1.18521E+02 -1.15997E+03  1.06461E+02
 -1.09395E+03  1.52806E+03 -2.73178E+03  2.36933E+03 -2.52405E+03  7.08772E+02 -3.11404E+03 -2.36236E+03
 -1.44338E+03 -3.77186E+03  7.28918E+02 -3.40677E+03  2.06605E+03 -3.51665E+03  3.99502E+03 -1.45930E+03
  3.36488E+03  2.36898E+02  2.03091E+03  3.70974E+03 -3.16359E+02  2.20115E+03 -1.59952E+03  2.82250E+03
 -9.97638E+02  6.63609E+02 -5.73169E+02 -5.29251E+02 -3.77548E+02 -3.53181E+02 -8.72770E+01 -1.11062E+03
 -1.46932E+03 -2.53600E+01 -1.18695E+03 -2.20871E+01  7.59825E+01 -9.82635E+02  2.58536E+02 -2.29278E+03
  1.30881E+03 -6.49262E+02  6.62262E+02 -1.58406E+03  1.12834E+03  1.36559E+03 -1.01062E+03  2.33571E+03
 -5.11762E+02  3.40280E+03 -2.10095E+03  2.58727E+03 -3.56784E+03 -3.31353E+02 -2.50898E+03 -1.44007E+03
 -4.96094E+02 -3.05977E+03  1.12316E+02 -1.89556E+03  1.19872E+03 -2.12718E+03  3.91491E+02  1.12681E+02
  6.49114E+02  5.94541E+02  9.26439E+01  3.59165E+02 -1.37648E+03 -8.39524E+02 -8.05926E+02 -1.17065E+03
  5.90439E+02  9.28970E+02  8.76650E+02 -2.91091E+02  5.45863E+02  1.59494E+03  9.86338E+02  9.07712E+02
 -3.46270E+02  1.48763E+03 -1.75241E+03  1.45928E+03 -1.26422E+03 -7.68860E+02  1.05149E+02 -2.08217E+03
  1.68457E+03 -1.48639E+03  1.41590E+03 -1.07389E+03  1.73048E+03 -3.48354E+02  3.59579E+02  1.31378E+03
  1.89451E+03  1.20729E+03 -5.47575E+02  6.70195E+02 -1.96923E+03  1.71096E+03 -6.38179E+02  1.80718E+02
 -3.58588E+02 -5.66374E+02 -9.29898E+02  1.02837E+02 -1.21024E+02 -2.34147E+02 -1.37249E+03 -4.73719E+02
 -8.25011E+02  1.62886E+02  8.25604E+02 -1.45824E+03  7.83514E+02 -2.50594E+03  1.18344E+03 -6.79027E+02
  1.60723E+02  6.64837E+02  9.24840E+02  6.91517E+02  6.97601E+02  6.98333E+02 -8.58068E+02  8.20123E+02
