 $NMID ID='MM_0lb_SNR200_12hz_g40_87.RAW', FMTDAT='(8E13.5)'
 TRAMP=1., VOLUME=1. $END
  3.09262E+05  7.35325E+02  3.38218E+05  2.50017E+05  8.54350E+04  3.38134E+05 -1.32038E+05  2.51995E+05
 -1.91572E+05  8.32097E+04 -1.10412E+05 -3.19873E+04 -6.92548E+01 -5.08474E+04  5.38970E+04 -7.12295E+02
  3.69112E+04  5.24278E+04 -1.68676E+04  7.61036E+04 -6.06163E+04  6.40555E+04 -8.30717E+04  3.18525E+04
 -7.99499E+04 -1.13036E+04 -5.67450E+04 -5.00723E+04 -1.56544E+04 -7.11710E+04  2.81043E+04 -4.65209E+04
  4.08788E+04  3.34887E+03  1.70120E+04  4.88945E+04 -3.53216E+04  4.79779E+04 -6.76949E+04 -1.26151E+02
 -5.39983E+04 -5.60474E+04 -5.34060E+03 -7.71239E+04  3.26590E+04 -5.58147E+04  4.85609E+04 -1.73854E+04
  4.37442E+04  1.04921E+04  3.11653E+04  2.61438E+04  1.58262E+04  2.96676E+04 -5.54314E+03  2.80053E+04
 -2.21361E+04  1.31623E+04 -1.87914E+04 -5.60036E+03  4.20626E+03 -7.10656E+03  2.27699E+04  1.26823E+04
  8.39168E+03  3.51601E+04 -3.39502E+04  3.46079E+04 -6.41502E+04  2.12985E+03 -5.70856E+04 -4.37723E+04
 -1.21606E+04 -6.50022E+04  3.97887E+04 -4.64809E+04  5.82986E+04 -3.04559E+03  3.45591E+04  3.29818E+04
 -6.56922E+03  3.77067E+04 -2.92915E+04  1.69424E+04 -3.14007E+04 -5.24587E+03 -1.69055E+04 -1.03007E+04
 -8.72301E+03 -1.38612E+04 -1.04751E+03 -1.78642E+04  7.24848E+03 -2.23728E+04  1.53716E+04 -1.29884E+04
  1.12621E+04  5.87133E+03 -8.27276E+03  1.32425E+04 -2.19914E+04 -4.66657E+03 -7.14825E+03 -3.45594E+04
  2.29000E+04 -4.42355E+04  4.91911E+04 -2.00439E+04  4.55922E+04  1.92838E+04  1.63794E+04  4.50724E+04
 -1.60484E+04  3.39838E+04 -2.57150E+04  2.07473E+03 -9.64049E+03 -2.64357E+04  2.04631E+04 -3.46267E+04
  4.01054E+04 -8.04658E+03  3.61005E+04  2.41196E+04  1.87835E+04  4.72442E+04 -8.55821E+03  5.11613E+04
 -3.14546E+04  3.57938E+04 -4.37698E+04  1.03797E+04 -4.31846E+04 -1.79662E+04 -2.41185E+04 -3.83036E+04
  7.88988E+03 -3.94753E+04  3.14292E+04 -1.40385E+04  2.94163E+04  1.19654E+04  3.86707E+03  1.87231E+04
 -1.43297E+04  9.13304E+03 -1.10821E+04 -6.78784E+03  6.41562E+03 -9.47777E+03  1.79812E+04  5.20970E+03
  1.44005E+04  2.17308E+04 -5.84319E+03  2.53463E+04 -2.16344E+04  1.22086E+04 -2.74404E+04 -3.68205E+03
 -2.21623E+04 -1.76305E+04 -8.84909E+03 -2.05995E+04  4.59516E+03 -1.95607E+04  1.68538E+04 -1.86408E+04
  2.74008E+04 -1.30405E+04  3.31955E+04  3.57388E+03  2.51791E+04  2.03217E+04  3.73104E+03  3.70135E+04
 -1.75703E+04  3.25486E+04 -2.88062E+04  1.06738E+04 -2.17367E+04 -9.46848E+03 -5.09422E+03 -1.24445E+04
  1.34166E+03 -2.51894E+03 -5.69612E+03  6.05900E+03 -1.69238E+04  3.80196E+03 -1.64185E+04 -8.36582E+03
 -1.05886E+04 -1.99593E+04  4.45911E+03 -2.42590E+04  1.57142E+04 -1.68060E+04  1.86388E+04 -1.82991E+03
  1.13464E+04  1.38876E+04 -2.09778E+03  2.01346E+04 -1.25271E+04  1.15257E+04 -2.05757E+04 -3.36411E+03
 -1.45206E+04 -1.81526E+04 -1.65432E+03 -2.39079E+04  1.05006E+04 -1.91106E+04  2.14315E+04 -8.71456E+03
  2.08322E+04 -5.38608E+02  1.35446E+04  3.63863E+03  7.25014E+03  1.84199E+03  1.02637E+04 -8.85896E+02
  1.79478E+04  3.32756E+03  2.14104E+04  1.54513E+04  1.45020E+04  3.21064E+04 -2.96707E+03  3.58299E+04
 -2.20681E+04  2.89774E+04 -3.44407E+04  1.36462E+04 -3.56240E+04 -3.28169E+03 -2.95686E+04 -2.05390E+04
 -1.18365E+04 -3.05162E+04  1.09066E+04 -2.73812E+04  2.29167E+04 -1.21703E+04  2.10687E+04  5.24880E+03
  7.67880E+03  1.39413E+04 -9.83975E+03  1.24116E+04 -1.68379E+04  2.95421E+03 -1.28365E+04 -1.03076E+04
 -1.00855E+03 -1.59072E+04  8.70529E+03 -1.13440E+04  1.10866E+04 -1.86006E+03  2.59044E+03  8.13477E+03
 -6.92374E+03  3.06846E+03 -7.11896E+03 -6.01236E+03 -2.67731E+02 -1.44985E+04  1.16310E+04 -1.44243E+04
  1.86196E+04 -9.13302E+03  1.91959E+04  3.83382E+03  1.78806E+04  1.44534E+04  7.88412E+03  2.20754E+04
 -2.64600E+03  2.42055E+04 -1.42096E+04  1.40542E+04 -1.71661E+04  1.91600E+03 -1.22813E+04 -3.90188E+03
 -4.87819E+03 -4.84017E+03 -1.08444E+03  8.34878E+02 -3.36359E+03  2.22996E+03 -6.20834E+03  3.57571E+03
 -1.02364E+04  3.81284E+02 -1.09615E+04 -9.06740E+03 -5.38981E+03 -1.57149E+04  3.56753E+03 -1.24779E+04
  9.68500E+03 -6.05680E+03  7.77813E+03  3.29905E+03 -2.48564E+02  5.76896E+03 -6.04330E+03 -3.12740E+01
 -5.14754E+03 -7.60565E+03 -7.94192E+02 -1.12360E+04  6.11240E+03 -1.19532E+04  1.66818E+04 -5.67101E+03
  1.86252E+04  1.61642E+03  1.50450E+04  9.88275E+03  3.15844E+03  1.39536E+04 -6.94625E+03  1.12139E+04
 -1.00519E+04  3.23289E+03 -3.44109E+03 -2.62146E+03  2.61766E+03 -3.87358E+03  6.56959E+03 -9.55124E+01
  5.86013E+03  5.47798E+03  3.05018E+02  8.90788E+03 -6.74371E+03  8.10275E+03 -1.18798E+04  2.53711E+03
 -7.99976E+03 -5.73564E+03 -9.16631E+02 -1.12203E+04  6.05361E+03 -4.31397E+03  5.19842E+03  1.89788E+03
  1.26628E+03  6.55763E+03 -6.37239E+03  8.71778E+03 -9.16885E+03  3.76830E+03 -9.16839E+03 -3.03241E+03
 -4.99198E+03 -1.06597E+04  2.13157E+03 -1.24695E+04  1.18725E+04 -6.92110E+03  1.12507E+04  2.14703E+03
  7.57265E+03  1.06691E+04 -1.34477E+03  1.25557E+04 -8.86264E+03  6.37295E+03 -9.47904E+03 -1.64575E+03
 -9.38255E+03 -9.02490E+03 -1.93651E+02 -8.71246E+03  4.38877E+03 -6.82718E+03  5.83035E+03 -3.01318E+03
  5.00467E+03  9.62422E+02 -3.83259E+02  1.62162E+03  1.91150E+03 -1.42968E+03  1.91741E+03 -4.18416E+03
  8.16392E+03 -2.79205E+03  1.20174E+04  6.40001E+02  1.23515E+04  7.77090E+03  7.91270E+03  1.42622E+04
 -2.81470E+03  1.65361E+04 -1.40085E+04  1.33802E+04 -1.69544E+04  3.24723E+03 -1.52589E+04 -4.87938E+03
 -8.44487E+03 -1.18197E+04 -5.12034E+02 -9.22148E+03  3.16553E+03 -6.20188E+03  2.80358E+03 -4.64884E+03
  2.31380E+03 -2.28147E+03  2.50420E+03 -2.18116E+03  4.79766E+03 -2.36789E+03  5.60560E+03 -2.34132E+02
  8.24921E+03  2.67234E+03  3.38254E+03  7.19167E+03 -2.23946E+03  7.41868E+03 -6.88035E+03  4.84296E+03
 -1.01344E+04 -1.29402E+03 -5.49272E+03 -7.50595E+03 -1.14356E+03 -1.06920E+04  7.39024E+03 -1.09088E+04
  1.26090E+04 -6.30324E+03  1.43501E+04  2.64038E+03  9.96627E+03  8.67623E+03  9.18764E+02  1.17179E+04
 -4.73752E+03  1.02062E+04 -6.83986E+03  2.95778E+03 -5.72375E+03 -1.46350E+03 -1.37418E+03 -1.54395E+03
 -1.09351E+03  2.93956E+01 -8.27340E+02  2.01717E+03 -4.14413E+03  2.57333E+03 -6.64092E+03 -7.04588E+02
 -4.74847E+03 -6.92632E+03  2.93829E+01 -9.86106E+03  6.27122E+03 -8.39988E+03  8.62984E+03 -1.94136E+03
  9.17975E+03  5.82551E+03  2.55806E+03  8.68576E+03 -6.59967E+02  1.01549E+04 -6.70389E+03  6.34076E+03
 -9.24920E+03  1.03439E+03 -6.80369E+03 -5.40411E+03 -8.81626E+02 -7.07898E+03  4.99495E+03 -6.09610E+03
  6.65022E+03 -1.80841E+03  4.57429E+03  1.88007E+03  1.47635E+03  3.40567E+03  1.28223E+03  1.24533E+03
  3.49145E+03  1.06925E+03  1.87983E+03  1.65362E+03  4.17384E+03  4.43597E+03  8.53684E+02  3.57220E+03
 -1.02975E+03  6.82269E+03 -5.70865E+03  7.96113E+03 -1.00141E+04  1.75485E+03 -9.12836E+03 -3.23615E+03
 -4.04591E+03 -8.04397E+03  1.29211E+03 -1.01159E+04  6.55337E+03 -6.07013E+03  7.84082E+03 -2.30035E+03
  5.98756E+03  2.56529E+03  2.36642E+03  5.61490E+03 -2.31816E+03  3.54217E+03 -3.26832E+03  3.04819E+01
 -6.31481E+02 -3.67986E+03  1.11259E+03 -3.56824E+03  3.23956E+03 -6.03281E+02  2.98298E+03  1.13986E+03
  4.02043E+03  1.84793E+03  1.08300E+03  5.79784E+02 -8.03254E+02  8.34597E+02  1.45634E+03  7.55064E+01
  2.14990E+03 -3.54440E+02  4.30826E+03  1.79610E+03  8.63997E+02  4.59851E+03 -7.60123E+02  7.22245E+03
 -4.48343E+03  4.17112E+03 -6.23100E+03 -2.86561E+02 -6.87489E+03 -1.25244E+03 -1.69886E+03 -4.04170E+03
  6.48549E+02 -3.09506E+03  3.69095E+03 -8.24672E+02  2.41761E+03  9.33953E+02 -8.55365E+02  2.74817E+03
 -3.76438E+03  2.00953E+03 -3.82072E+03 -2.35216E+03 -2.05045E+03 -5.50071E+03  5.86763E+02 -4.42465E+03
  3.48709E+03 -1.92158E+03  3.72796E+03 -1.16090E+03  2.74970E+03  1.73661E+02  1.47410E+03  3.57557E+03
 -1.03962E+03  1.28046E+03 -2.31859E+03 -1.13012E+03  3.04881E+02 -3.84422E+03  4.54300E+03 -4.01266E+03
  5.67942E+03  1.60987E+03  7.10430E+03  3.95665E+03  1.86622E+03  6.29338E+03 -1.78283E+03  4.75896E+03
 -4.45571E+03  4.17317E+03 -4.61958E+03 -1.46394E+02 -3.06580E+03 -3.08708E+03  1.02153E+03 -3.62247E+03
  1.85349E+03 -1.06632E+03  3.48229E+03  1.97703E+02  8.56111E+02  4.60531E+03 -1.20179E+03  4.01435E+03
 -1.77260E+03  2.75909E+03 -1.12505E+03  4.64466E+02 -2.91770E+02  1.16320E+03 -6.46426E+02  8.59874E+02
 -1.57278E+03  1.67364E+03 -4.84811E+03  1.91751E+03 -6.54175E+03 -1.25539E+03 -5.47258E+03 -2.55293E+03
 -1.99621E+03 -7.82385E+03  7.30239E+02 -9.30888E+03  4.14787E+03 -7.69367E+03  7.68861E+03 -3.45430E+03
  7.95483E+03  2.12610E+03  5.04778E+03  5.12856E+03  9.93619E+01  7.07510E+03 -2.50464E+03  3.33598E+03
 -3.93531E+03  1.74038E+02 -2.20727E+03 -1.11273E+03 -1.55560E+03 -3.44425E+02 -5.26769E+02 -3.57026E+02
 -2.61039E+03  2.26956E+02 -7.05881E+02 -1.08983E+03 -8.60222E+02 -8.83790E+02  1.06808E+03 -2.34084E+03
  1.67658E+03 -1.02185E+03  3.16309E+03  2.41051E+02  3.30918E+03  2.51486E+03  1.65184E+03  5.04543E+03
 -3.15827E+03  7.21094E+03 -5.78100E+03  3.20359E+03 -6.81542E+03  2.29108E+02 -4.35317E+03 -2.89605E+03
 -2.14408E+03 -8.05079E+03  1.60978E+03 -5.29984E+03  1.93504E+03 -2.65026E+03  4.07518E+03  1.20681E+03
  1.97271E+03  2.09063E+03 -3.85599E+02  2.77964E+03 -5.15180E+02  5.28554E+02  2.27249E+02 -1.25371E+03
  8.65439E+02 -1.80224E+03  1.94686E+03  1.52680E+03  1.29165E+03  3.10309E+03 -1.96641E+02  2.36910E+03
 -3.60872E+03  2.43017E+03 -3.35134E+03 -3.30176E+02 -3.07302E+03 -2.12949E+03  1.44568E+02 -4.56181E+03
  6.47089E+02 -3.29968E+03  4.23737E+03 -1.70818E+03  4.45044E+03  1.32582E+03  2.17379E+03  3.28171E+03
  6.26690E+02  3.37200E+03 -1.21853E+03  3.84100E+03 -2.29864E+03  1.93308E+03 -2.09176E+03 -8.33609E+02
 -9.62682E+02 -1.18299E+02 -1.78863E+03  2.14466E+02 -1.97859E+03  2.46772E+02 -2.69572E+03  3.99608E+02
 -2.17046E+03 -1.06899E+03 -5.00769E+01 -3.16390E+03  2.03256E+03 -4.88938E+03  4.54373E+03 -1.78050E+03
  3.37292E+03  5.00179E+02  1.79035E+03  1.24481E+03 -4.26044E+02  4.24481E+03 -1.77525E+03  3.01259E+03
