 $NMID ID='MM_0lb_SNR200_19hz_g45_43.RAW', FMTDAT='(8E13.5)'
 TRAMP=1., VOLUME=1. $END
  3.09750E+05  6.40066E+01  3.36591E+05  2.50315E+05  8.41870E+04  3.37692E+05 -1.31774E+05  2.49431E+05
 -1.90099E+05  8.24882E+04 -1.10910E+05 -3.27222E+04  1.63186E+03 -5.02197E+04  5.29376E+04 -7.68948E+01
  3.55695E+04  5.31952E+04 -1.72697E+04  7.60484E+04 -6.03446E+04  6.36147E+04 -8.43101E+04  3.12534E+04
 -8.05191E+04 -1.24806E+04 -5.64312E+04 -5.00392E+04 -1.49238E+04 -6.86272E+04  2.69140E+04 -4.43116E+04
  3.89310E+04  3.92023E+03  1.63906E+04  4.65055E+04 -3.33007E+04  4.63085E+04 -6.59097E+04 -7.90634E+02
 -5.16039E+04 -5.52115E+04 -6.04406E+03 -7.47598E+04  3.32143E+04 -5.29317E+04  4.62244E+04 -1.60665E+04
  4.08379E+04  1.05001E+04  3.11648E+04  2.45136E+04  1.53834E+04  2.88610E+04 -4.73286E+03  2.59397E+04
 -2.23875E+04  1.30806E+04 -1.90821E+04 -3.64274E+03  4.12782E+03 -8.73853E+03  2.02107E+04  1.00881E+04
  7.57123E+03  3.31902E+04 -3.03351E+04  3.38763E+04 -6.05824E+04  2.96022E+03 -5.49364E+04 -4.16877E+04
 -1.21069E+04 -6.06627E+04  3.77577E+04 -4.31343E+04  5.47020E+04 -2.33239E+03  3.27744E+04  2.99541E+04
 -5.56636E+03  3.32077E+04 -2.76218E+04  1.27489E+04 -2.74225E+04 -5.09158E+03 -1.30881E+04 -1.00123E+04
 -6.78368E+03 -1.08259E+04 -3.73873E+02 -1.59174E+04  6.89174E+03 -2.31309E+04  1.43069E+04 -1.27320E+04
  1.16646E+04  5.13228E+03 -5.54532E+03  1.30195E+04 -1.99153E+04 -1.37970E+03 -6.67484E+03 -2.96620E+04
  2.05315E+04 -4.11304E+04  4.36894E+04 -1.75541E+04  4.15308E+04  1.73058E+04  1.32671E+04  4.08343E+04
 -1.53121E+04  3.06141E+04 -2.21762E+04  1.72281E+03 -7.30674E+03 -2.54893E+04  2.04173E+04 -3.01992E+04
  3.78803E+04 -6.12991E+03  3.02968E+04  2.28160E+04  1.55014E+04  4.22355E+04 -7.21700E+03  4.35477E+04
 -2.82810E+04  2.89698E+04 -3.63199E+04  7.28591E+03 -3.78428E+04 -1.53736E+04 -2.10890E+04 -3.35028E+04
  8.51962E+03 -3.40535E+04  2.87204E+04 -1.11862E+04  2.76179E+04  1.10169E+04  3.11465E+03  1.86715E+04
 -1.27896E+04  7.16738E+03 -9.68568E+03 -7.95641E+03  5.71707E+03 -9.81920E+03  1.71468E+04  5.65332E+03
  1.19616E+04  2.17430E+04 -6.77370E+03  2.38732E+04 -2.15707E+04  9.05812E+03 -2.51501E+04 -6.33110E+03
 -1.62482E+04 -1.70392E+04 -5.15758E+03 -1.48111E+04  3.34339E+03 -1.47621E+04  1.15863E+04 -1.36232E+04
  2.03381E+04 -1.20785E+04  2.68755E+04  1.48629E+03  2.05684E+04  1.58689E+04  4.41226E+03  3.18651E+04
 -1.66845E+04  2.70544E+04 -2.46840E+04  9.55047E+03 -1.88883E+04 -9.58748E+03 -4.92636E+03 -1.31784E+04
  3.67074E+03 -5.28821E+03 -2.73437E+03  4.68919E+03 -1.22881E+04  4.27628E+03 -1.25040E+04 -4.14337E+03
 -8.18567E+03 -1.52090E+04  4.71055E+03 -1.91779E+04  1.21839E+04 -1.44486E+04  1.34426E+04 -2.14088E+03
  8.85667E+03  1.03971E+04 -9.49772E+02  1.44910E+04 -9.14564E+03  8.71631E+03 -1.52576E+04 -1.54742E+03
 -1.17390E+04 -1.31854E+04 -1.96364E+03 -1.86477E+04  8.64112E+03 -1.57707E+04  1.54719E+04 -6.28605E+03
  1.47825E+04  9.90634E+02  1.04418E+04  2.71850E+03  4.15855E+03  3.37304E+02  6.86057E+03 -1.22650E+03
  1.27951E+04  2.38543E+03  1.31663E+04  1.23727E+04  8.36954E+03  2.40537E+04 -3.53852E+03  2.53320E+04
 -1.47664E+04  1.94434E+04 -2.34757E+04  9.38509E+03 -2.42637E+04 -1.57492E+03 -1.93523E+04 -1.38620E+04
 -1.07574E+04 -1.89303E+04  6.75992E+03 -1.76380E+04  1.62917E+04 -1.09273E+04  1.56297E+04  4.04745E+03
  6.70470E+03  1.01986E+04 -5.95811E+03  1.03420E+04 -1.26941E+04  3.53773E+03 -1.00036E+04 -8.42499E+03
 -4.77548E+02 -1.14612E+04  6.15763E+03 -1.06462E+04  6.38059E+03 -1.12654E+03  2.65281E+03  4.76229E+03
 -5.36117E+03  1.17959E+03 -2.38447E+03 -5.54905E+03  5.97833E+02 -1.00097E+04  8.41203E+03 -8.72134E+03
  1.10719E+04 -4.02226E+03  1.16917E+04  3.27299E+03  1.03163E+04  8.69473E+03  4.30759E+03  1.35651E+04
 -1.63231E+03  1.51718E+04 -8.80045E+03  1.01536E+04 -1.06146E+04  3.04119E+03 -7.22379E+03 -1.07399E+03
 -5.00748E+03 -3.58391E+03 -3.71640E+02  1.81077E+03 -2.67854E+03  1.57573E+03 -3.92165E+03  2.77015E+03
 -6.96438E+03 -4.45546E+02 -8.19283E+03 -6.52697E+03 -4.24721E+03 -1.09749E+04  3.35299E+03 -9.03671E+03
  7.13779E+03 -4.03365E+03  5.47607E+03  1.35934E+03  7.19368E+02  2.28431E+03 -3.28140E+03 -7.01946E+02
 -2.70237E+03 -4.99280E+03 -3.63792E+02 -6.54823E+03  3.33058E+03 -7.78091E+03  9.69100E+03 -4.61494E+03
  1.06399E+04  4.97008E+02  8.40713E+03  5.82168E+03  1.82596E+03  8.11741E+03 -4.62896E+03  7.93712E+03
 -6.73444E+03  2.99786E+03 -3.16988E+03 -7.72781E+02  7.63743E+02 -2.20652E+03  4.16183E+03 -8.37195E+02
  4.52207E+03  2.58242E+03  1.08040E+03  5.86542E+03 -4.15052E+03  5.71170E+03 -7.23118E+03  1.67619E+03
 -4.12567E+03 -2.41281E+03  8.21401E+02 -6.57682E+03  3.62084E+03 -3.15826E+03  3.46113E+03  1.52999E+03
  5.98790E+02  3.06247E+03 -3.79457E+03  4.11230E+03 -5.32001E+03  2.09319E+03 -3.02331E+03 -1.42320E+03
 -2.57723E+03 -5.33245E+03  1.33436E+03 -6.72561E+03  5.14044E+03 -5.32993E+03  5.81551E+03  1.18725E+03
  3.93584E+03  4.71367E+03 -5.05714E+02  7.44026E+03 -4.37184E+03  3.93922E+03 -5.21601E+03 -1.51029E+01
 -5.52151E+03 -4.07845E+03 -1.86907E+03 -4.89486E+03  2.67076E+03 -4.24568E+03  3.32449E+03 -2.50214E+03
  2.75677E+03  4.26191E+02 -9.18000E+02  1.30379E+03  9.90904E+02 -7.46031E+01  1.65321E+02 -9.99781E+02
  3.69940E+03 -4.55520E+02  5.93283E+03  9.38623E+02  6.77599E+03  2.71154E+03  5.30741E+03  5.85977E+03
 -8.62669E+02  8.36260E+03 -7.28108E+03  4.57523E+03 -9.47664E+03  1.47912E+03 -6.61492E+03 -2.51718E+03
 -3.13073E+03 -5.19724E+03 -1.56619E+03 -4.83013E+03  1.70460E+03 -2.83425E+03  1.55440E+03 -1.46146E+03
  4.91495E+02 -1.63348E+03  2.63705E+03 -2.79000E+03  3.15238E+03 -2.60029E+03  3.40530E+03  1.69061E+03
  4.99483E+03  1.32847E+03  1.84528E+03  3.01747E+03 -1.48297E+03  1.81592E+03 -3.68546E+03  3.00798E+03
 -4.60038E+03 -7.87840E+02 -1.75059E+03 -2.03692E+03 -5.28935E+01 -2.85924E+03  2.81808E+03 -4.89481E+03
  5.41641E+03 -3.55899E+03  5.49278E+03  3.29695E+02  4.04651E+03  4.37177E+03  1.39868E+03  4.98906E+03
 -2.05077E+03  5.03429E+03 -2.87874E+03  1.55438E+03 -2.01000E+03  1.25697E+02 -6.18939E+02 -3.70813E+02
  5.54433E+02  9.79368E+01 -6.44550E+02  2.10223E+03 -2.66089E+03  7.87177E+02 -3.60861E+03 -2.53633E+01
 -1.92828E+03 -4.56034E+03  2.20342E+02 -3.77122E+03  2.24651E+03 -5.05978E+03  3.30848E+03 -8.45187E+02
  3.42614E+03  2.44065E+03  1.07199E+03  3.65394E+03 -8.27015E+02  3.40658E+03 -1.81885E+03  1.67129E+03
 -3.88079E+03  2.47909E+02 -3.95975E+03 -2.35571E+03 -8.96798E+02 -1.82504E+03  8.39520E+02 -3.04190E+03
  1.86116E+03 -7.45155E+02  8.18266E+02 -3.18325E+02  1.25069E+03  2.98580E+02  1.38446E+03 -2.28833E+02
  1.67922E+03  1.03544E+03  1.19258E+03  2.65858E+02  1.16556E+03  1.61920E+03  9.92893E+00  2.11315E+03
 -7.22708E+02  2.62874E+03 -2.22152E+03  4.01884E+03 -1.96056E+03  1.69719E+03 -3.24740E+03  4.99644E+02
 -7.96058E+02 -2.98313E+03  4.52795E+02 -3.66199E+03  1.55858E+03 -2.08897E+03  2.59652E+03 -1.72923E+03
  2.83862E+03  1.96276E+03 -4.89691E+02  2.18736E+03 -3.79420E+02  1.03950E+03 -6.27941E+02 -5.95911E+02
 -4.64389E+02 -1.27525E+03  6.87096E+02 -1.25866E+03  1.19115E+03 -5.40574E+02  1.06140E+03  1.08519E+03
  5.17925E+02 -9.65163E+02  7.43120E+01 -3.38478E+02 -1.46497E+01  1.21426E+03  9.36092E+02 -2.69618E+02
 -6.88521E+02  8.56287E+02  9.75821E+02 -5.56222E+02 -4.11491E+02  1.59437E+03 -4.51412E+02  2.84452E+03
 -1.65530E+03  8.82346E+01 -1.03904E+03  4.82387E+02 -1.38100E+03 -4.11132E+02 -2.56478E+01 -4.94576E+02
  1.46043E+03 -4.36757E+02 -4.57326E+02 -9.59423E+02  9.99781E+02  1.59439E+03 -3.37944E+02  9.50617E+02
 -2.10179E+03  5.57104E+01 -7.15376E+02 -9.69005E+02 -1.39900E+03 -1.49279E+03 -2.53440E+02 -8.95496E+02
  3.30408E+02  2.84427E+02  5.21770E+02 -5.50030E+01  2.07765E+03 -9.63974E+02  5.93568E+02  6.68812E+02
 -1.10346E+03 -1.22881E+02 -1.33090E+02  4.87151E+01  6.55037E+02  1.71319E+02  1.59065E+03 -1.22474E+03
  1.65256E+03 -6.24355E+01  2.70879E+03  2.04342E+02  6.09898E+02  1.45758E+03  3.26970E+02  7.39603E+02
 -1.70103E+03  1.83583E+02 -1.63251E+03 -3.82705E+02 -4.17041E+02 -1.18257E+03  2.06651E+01 -5.98122E+02
  9.16847E+02 -9.01340E+02  4.26362E+02  6.96780E+02 -5.67325E+02  1.72250E+03  5.89078E+02 -5.71685E+01
 -5.56158E+02  6.49210E+02  4.24002E+01  6.70144E+02 -1.52493E+02  4.69026E+02 -2.86861E+02  2.11475E+02
 -6.90260E+02  1.25501E+03 -1.66549E+03  5.95256E+02 -2.11411E+03  5.75683E+02 -1.57892E+03 -6.88131E+02
 -1.29035E+03 -2.74611E+03  1.34776E+01 -2.06767E+03  7.86097E+02 -1.22800E+03  3.37656E+03 -2.67062E+02
  2.41626E+03 -5.16067E+02  1.35650E+03  5.22129E+02  3.51641E+02  9.71208E+02 -3.80067E+02  1.35501E+03
 -4.87079E+02  3.68575E+02 -8.58071E+02 -1.73447E+03 -5.46228E+01  7.88329E+02  4.11819E+00 -3.29173E+02
 -3.10264E+02 -7.76275E+02 -7.05333E+02 -7.28335E+02 -3.94149E+02 -4.37025E+02  1.04079E+03 -3.20081E+02
  1.30541E+03 -2.30130E+02  1.17215E+02  1.75505E+02  1.33641E+03  5.78538E+02 -1.96414E+02  6.37447E+02
  1.19398E+02  2.21562E+03 -1.02552E+03  7.73828E+02 -1.70207E+03  6.94158E+02 -1.15926E+03 -1.59404E+03
 -1.09856E+03  5.86051E+01  2.64244E+01 -8.50584E+02  3.44300E+02 -5.98589E+02  2.63681E+02  5.77512E+02
  1.17568E+03  3.94636E+02 -2.46199E+02  7.99557E+02 -8.33262E+02  1.96177E+02  6.68848E+02  2.49107E+02
  1.38578E+02 -8.25094E+02  3.37085E+02  1.02496E+03 -2.26209E+02  7.13723E+01  7.05733E+02  5.96009E+02
 -1.24205E+01  6.91127E+02 -4.00752E+02 -3.80005E+02 -1.38829E+03 -2.84589E+02 -2.50730E+02 -1.54534E+03
 -1.28809E+01 -8.30027E+02  8.16267E+02  1.06962E+03  8.63492E+01 -9.01594E+02  8.99064E+02  1.93411E+02
  9.11281E+02  1.22664E+03 -1.23743E+02  4.92548E+02 -1.37268E+02  3.61955E+02 -4.02541E+02 -7.08996E+02
  1.72829E+01 -5.00563E+02 -7.17096E+02 -6.35038E+01 -8.89628E+02  6.17218E+02 -1.04751E+03  1.31408E+02
 -1.77455E+03  1.43534E+03  4.06276E+02 -6.95417E+02  6.13185E+02 -1.26483E+03  7.97156E+02 -4.52329E+02
 -3.20310E+02  8.34615E+02 -6.84410E+02  7.03796E+02  2.52474E+02  7.99683E+02  9.79182E+00  1.10409E+03
