 $NMID ID='MM_0lb_SNR200_14hz_g60_7.RAW', FMTDAT='(8E13.5)'
 TRAMP=1., VOLUME=1. $END
  3.10328E+05  9.03569E+02  3.37491E+05  2.50462E+05  8.51000E+04  3.38047E+05 -1.32876E+05  2.52026E+05
 -1.89790E+05  8.43213E+04 -1.12627E+05 -3.25263E+04  6.61058E+02 -5.00041E+04  5.43223E+04 -1.71445E+03
  3.49584E+04  5.39353E+04 -1.67279E+04  7.62002E+04 -5.92470E+04  6.27520E+04 -8.51596E+04  3.28195E+04
 -8.14117E+04 -1.24675E+04 -5.83096E+04 -5.15325E+04 -1.50701E+04 -7.09488E+04  2.82911E+04 -4.71971E+04
  4.01534E+04  4.59155E+03  1.65100E+04  4.85029E+04 -3.42023E+04  4.85437E+04 -6.72397E+04  4.81898E+01
 -5.31409E+04 -5.69048E+04 -6.05714E+03 -7.80384E+04  3.48202E+04 -5.47119E+04  4.96323E+04 -1.78225E+04
  4.35960E+04  1.22175E+04  3.26215E+04  2.71615E+04  1.59879E+04  2.87155E+04 -4.75120E+03  2.84791E+04
 -2.29470E+04  1.19076E+04 -1.90607E+04 -5.53894E+03  6.19656E+03 -7.07889E+03  2.31428E+04  1.32541E+04
  6.28847E+03  3.58854E+04 -3.33668E+04  3.63167E+04 -6.43797E+04  1.99603E+03 -5.85066E+04 -4.26469E+04
 -1.31143E+04 -6.48954E+04  4.04493E+04 -4.71091E+04  5.86545E+04 -3.11153E+03  3.56960E+04  3.34625E+04
 -5.36792E+03  3.70415E+04 -3.03665E+04  1.58285E+04 -3.27856E+04 -2.68233E+03 -1.86331E+04 -1.10361E+04
 -8.84358E+03 -1.33075E+04  6.64735E+01 -2.02030E+04  6.82174E+03 -2.27907E+04  1.49812E+04 -1.27900E+04
  1.03326E+04  5.93638E+03 -9.21684E+03  1.33932E+04 -2.08888E+04 -5.44106E+03 -8.29498E+03 -3.54696E+04
  2.28667E+04 -4.46338E+04  4.90910E+04 -1.99257E+04  4.63182E+04  1.90102E+04  1.64440E+04  4.69196E+04
 -1.53190E+04  3.45443E+04 -2.48698E+04  1.10230E+03 -1.02084E+04 -2.76937E+04  2.08775E+04 -3.47273E+04
  4.18451E+04 -9.60285E+03  3.76892E+04  2.41012E+04  1.88037E+04  4.75672E+04 -8.26957E+03  5.25075E+04
 -3.28804E+04  3.56721E+04 -4.35219E+04  1.00378E+04 -4.27217E+04 -1.74788E+04 -2.30025E+04 -3.87911E+04
  8.93500E+03 -3.96432E+04  3.17173E+04 -1.52579E+04  3.10675E+04  1.02210E+04  4.32683E+03  1.97286E+04
 -1.33138E+04  8.77167E+03 -9.95633E+03 -6.56402E+03  5.32328E+03 -1.02570E+04  1.76323E+04  5.47323E+03
  1.28971E+04  2.17487E+04 -6.40741E+03  2.42124E+04 -2.28925E+04  1.22828E+04 -2.86405E+04 -4.49123E+03
 -2.22120E+04 -1.86024E+04 -8.40739E+03 -2.12270E+04  3.75814E+03 -2.15503E+04  1.68767E+04 -1.83904E+04
  2.75914E+04 -1.29697E+04  3.37843E+04  3.37304E+03  2.52623E+04  2.22844E+04  5.14035E+03  3.77950E+04
 -1.86441E+04  3.13292E+04 -2.83179E+04  1.00891E+04 -2.17683E+04 -9.39910E+03 -4.85485E+03 -1.30780E+04
  1.77644E+03 -3.09121E+03 -6.52842E+03  6.88471E+03 -1.78533E+04  3.97077E+03 -1.77576E+04 -6.87820E+03
 -8.78915E+03 -1.93948E+04  6.62471E+03 -2.39637E+04  1.57543E+04 -1.76689E+04  1.96994E+04 -2.29563E+03
  1.21259E+04  1.43234E+04 -2.46103E+03  2.02212E+04 -1.38819E+04  1.15351E+04 -2.08912E+04 -3.99929E+03
 -1.41251E+04 -1.78652E+04 -1.27455E+03 -2.46006E+04  1.02162E+04 -2.00627E+04  2.09963E+04 -9.91056E+03
  2.04816E+04 -5.47091E+02  1.37846E+04  5.54910E+03  6.13744E+03  2.36625E+03  1.00847E+04 -1.64334E+03
  2.01273E+04  2.59829E+03  2.20273E+04  1.53201E+04  1.34664E+04  3.18325E+04 -3.34578E+03  3.66569E+04
 -2.03267E+04  2.92710E+04 -3.38092E+04  1.48880E+04 -3.50744E+04 -2.17591E+03 -2.89408E+04 -2.15425E+04
 -1.19467E+04 -2.98998E+04  1.00380E+04 -2.65272E+04  2.27126E+04 -1.32331E+04  2.12684E+04  6.06388E+03
  7.64490E+03  1.53187E+04 -9.06074E+03  1.32488E+04 -1.72737E+04  2.48030E+03 -1.47095E+04 -9.90118E+03
 -5.54829E+02 -1.66696E+04  9.10095E+03 -1.25261E+04  1.06989E+04 -6.71877E+02  2.06512E+03  6.28008E+03
 -6.84594E+03  2.08937E+03 -7.17959E+03 -5.82236E+03 -1.87352E+03 -1.33696E+04  1.09931E+04 -1.65405E+04
  1.94969E+04 -9.08679E+03  1.92506E+04  3.88682E+03  1.67872E+04  1.34737E+04  7.43358E+03  2.19616E+04
 -4.17122E+03  2.33762E+04 -1.56422E+04  1.40755E+04 -1.73551E+04  3.34110E+03 -1.26475E+04 -3.70302E+03
 -5.42407E+03 -5.61825E+03 -3.73860E+02  1.67456E+03 -2.49038E+03  2.19489E+03 -5.87434E+03  3.05959E+03
 -1.19644E+04 -7.25992E+02 -1.16694E+04 -1.00548E+04 -3.88875E+03 -1.54248E+04  5.56443E+03 -1.08604E+04
  1.14752E+04 -6.24442E+03  7.65631E+03  4.76217E+03  2.10749E+02  5.64495E+03 -5.97294E+03  1.04362E+03
 -3.34556E+03 -8.18099E+03 -1.43872E+03 -1.21424E+04  6.27175E+03 -1.19788E+04  1.36354E+04 -6.43375E+03
  1.94157E+04  1.31846E+03  1.39070E+04  1.07080E+04  3.19816E+03  1.37509E+04 -6.98073E+03  1.28497E+04
 -9.95757E+03  3.67290E+03 -3.70280E+03 -2.36635E+03  1.60833E+03 -4.15746E+03  6.16078E+03 -1.80388E+03
  7.05602E+03  5.75600E+03  8.54708E+02  1.04072E+04 -7.19490E+03  9.15283E+03 -1.09389E+04  2.85490E+03
 -7.15355E+03 -6.16991E+03  3.26902E+02 -1.03069E+04  7.16333E+03 -5.10853E+03  6.75538E+03  1.32273E+03
  1.14478E+03  7.93493E+03 -6.06533E+03  8.47209E+03 -9.14422E+03  4.47645E+03 -9.75926E+03 -2.31306E+03
 -5.28752E+03 -1.07427E+04  2.79852E+03 -1.15808E+04  1.01989E+04 -7.40204E+03  1.15976E+04  1.97246E+03
  5.75742E+03  7.97319E+03 -6.94594E+01  1.10393E+04 -7.85151E+03  4.63970E+03 -8.61773E+03 -6.32922E+02
 -9.74138E+03 -6.99885E+03 -1.37239E+03 -7.54353E+03  4.79058E+03 -8.40097E+03  4.72906E+03 -3.15269E+03
  5.39322E+03  6.15372E+01 -8.76414E+02  1.87893E+03 -4.18999E+01 -1.09628E+03  1.42109E+03 -4.64479E+03
  7.97844E+03 -3.24484E+03  1.05173E+04  6.96729E+02  9.40254E+03  7.04287E+03  7.53330E+03  1.35670E+04
 -3.63162E+03  1.50070E+04 -1.19806E+04  1.18059E+04 -1.68167E+04  2.43473E+03 -1.33718E+04 -3.96227E+03
 -7.35496E+03 -1.26753E+04  5.70625E+02 -9.73047E+03  3.34253E+03 -5.38096E+03  2.24083E+03 -3.21124E+03
  2.90297E+03 -2.07094E+03  3.42047E+03 -3.55640E+03  5.22649E+03 -2.05954E+03  6.48350E+03 -9.69865E+02
  8.26508E+03  1.41559E+03  3.18122E+03  6.38101E+03 -2.15412E+03  6.08093E+03 -6.88961E+03  6.85303E+03
 -9.39094E+03 -1.10861E+03 -5.44605E+03 -6.61137E+03  6.99676E+01 -1.01437E+04  5.51539E+03 -9.64881E+03
  1.13005E+04 -7.17918E+03  1.28252E+04  1.52408E+03  8.52602E+03  9.05332E+03  1.33918E+03  1.07085E+04
 -4.29441E+03  1.05639E+04 -6.20491E+03  2.97778E+03 -4.44905E+03 -1.70728E+03 -2.24713E+03 -1.00936E+03
 -1.38102E+03 -2.92785E+02 -1.08468E+03  3.97819E+03 -4.07050E+03  7.54228E+02 -6.16090E+03 -2.74314E+02
 -3.18664E+03 -6.73332E+03 -6.95120E+02 -8.96653E+03  6.51192E+03 -8.21344E+03  8.73268E+03 -1.69392E+03
  8.24180E+03  5.69893E+03  4.96299E+03  8.83734E+03 -1.96928E+03  9.02043E+03 -6.51972E+03  5.65365E+03
 -6.90174E+03  4.51913E+02 -6.04598E+03 -4.98660E+03 -4.32194E+02 -6.22918E+03  4.30723E+03 -5.62860E+03
  5.77430E+03 -2.28684E+03  2.57693E+03  2.47535E+03  3.24836E+02  2.20754E+03  5.19718E+02  1.70250E+03
  2.47126E+03  1.04317E+03  9.93980E+02  1.16619E+03  2.43842E+03  2.82294E+03  1.73874E+03  4.51873E+03
 -1.94195E+03  6.55936E+03 -4.30789E+03  6.25188E+03 -7.45562E+03  1.98412E+03 -9.41697E+03 -7.69136E+02
 -4.59699E+03 -9.58983E+03  1.51904E+03 -9.32230E+03  3.39871E+03 -5.03678E+03  6.15142E+03 -1.55179E+03
  4.49732E+03  3.18133E+03  4.48766E+02  4.88741E+03 -1.73116E+03  2.01825E+03 -4.20159E+03 -1.05272E+02
 -1.25115E+03 -3.00078E+03  2.14511E+03 -4.79837E+03  3.48879E+03 -1.79302E+03  4.44560E+03  2.33817E+03
  1.32217E+03  1.75829E+03  1.21787E+03  8.79679E+02 -8.27399E+02 -9.19878E+01  1.50447E+03  5.26893E+02
  2.23347E+03 -1.03249E+03  4.34631E+03  4.75405E+02  9.43405E+02  3.78515E+03 -1.56564E+03  5.92735E+03
 -5.25483E+03  3.07512E+03 -4.18726E+03  7.30994E+02 -4.82758E+03 -1.63537E+03 -2.64211E+03 -3.01078E+03
  9.87312E+02 -3.28393E+03  1.88240E+03 -1.80022E+03  1.83056E+03  1.89760E+03 -1.22909E+03  3.23808E+03
 -3.58991E+03  3.97632E+02 -4.13864E+03 -1.83885E+03 -1.90326E+03 -5.53232E+03  7.64078E+02 -4.39339E+03
  1.20539E+03 -2.03387E+03  3.25213E+03  1.04302E+03  3.32557E+03  1.29203E+03 -5.44000E+02  3.42983E+03
 -8.17837E+02  8.06161E+02 -2.75589E+03 -1.35652E+03  3.00165E+02 -2.80868E+03  3.22186E+03 -2.99691E+03
  3.31330E+03  8.80874E+02  6.23468E+03  2.85146E+03  1.95173E+03  4.81542E+03 -2.35351E+03  4.86433E+03
 -3.13748E+03  2.37667E+03 -3.89462E+03  7.10893E+01 -1.31659E+03 -3.24296E+03  7.18561E+02 -2.58758E+03
  3.18894E+03 -2.69917E+03  2.23472E+03  9.59125E+02  5.33456E+02  1.96636E+03  4.60831E+02  1.94710E+03
 -1.42018E+03  2.22410E+03 -2.27147E+03 -2.03765E+02  1.11248E+02  4.64686E+02 -1.67979E+03 -1.58388E+02
 -1.64963E+03  1.19886E+03 -4.18127E+03  1.63048E+03 -4.81613E+03  8.54041E+02 -4.46047E+03 -2.74322E+03
 -2.72564E+03 -6.49085E+03  1.94029E+03 -5.19664E+03  3.39632E+03 -4.96482E+03  7.01761E+03 -2.50107E+03
  7.48523E+03  1.18362E+03  3.71780E+03  2.66591E+03 -8.40062E+02  3.99268E+03 -5.30706E+02  4.06808E+03
 -3.21610E+03  1.33691E+03 -8.37290E+02 -7.80362E+02 -1.06624E+03 -9.77292E+02 -5.55432E+01 -5.87613E+02
 -1.52386E+02  1.30128E+03 -1.84718E+03  4.12449E+02 -4.24995E+02 -2.10397E+03  2.84496E+01 -2.13479E+03
  1.67823E+03 -3.40488E+03  1.55061E+03 -1.18731E+02  4.29062E+03  1.70170E+03 -9.64910E+02  3.30337E+03
 -2.22864E+03  5.80878E+03 -5.99504E+03  3.83462E+03 -3.96892E+03  5.63464E+02 -3.28326E+03 -3.78594E+03
 -1.44903E+03 -3.84521E+03  1.09037E+03 -3.56009E+03  3.10912E+03 -1.25799E+03  2.49059E+03  1.06950E+03
  6.57970E+02  2.75414E+02 -5.95589E+02  1.87485E+03 -1.98166E+03 -4.73718E+02 -1.18459E+02 -1.09600E+03
  1.60656E+03  1.60874E+02  5.02727E+02  7.63465E+02  4.93056E+02  1.61230E+03  1.33117E+03  2.12472E+03
 -8.37943E+02  2.16859E+03 -3.62545E+03  2.94729E+02 -2.02332E+03 -2.12247E+03  2.80012E+02 -2.15014E+03
  1.86090E+03 -2.24927E+03  2.63983E+03 -2.35692E+03  3.34682E+03  6.73589E+02  3.03746E+03  2.12131E+03
 -7.62024E+02  2.65191E+03 -1.19896E+03  1.72701E+03 -9.92909E+02  1.26232E+03 -1.12792E+03  6.96147E+02
 -8.30951E+02  8.94177E+02 -1.23054E+03 -5.70448E+02 -3.20138E+02  1.89950E+03 -4.28888E+02  9.87486E+01
 -1.87155E+03  9.64372E+00 -7.34043E+02 -1.77861E+03  7.86618E+02 -2.73673E+03  2.79419E+03 -3.63617E+02
  2.49664E+03 -2.65339E+02  6.43994E+02  1.40102E+03 -4.64503E+02  1.42895E+03 -7.09525E+02  2.59063E+03
