 $NMID ID='MM_0lb_SNR200_20hz_g50_8.RAW', FMTDAT='(8E13.5)'
 TRAMP=1., VOLUME=1. $END
  3.10154E+05  5.16417E+02  3.37376E+05  2.49930E+05  8.36719E+04  3.37517E+05 -1.32479E+05  2.50017E+05
 -1.90173E+05  8.21294E+04 -1.10808E+05 -3.32117E+04  1.93068E+03 -4.97926E+04  5.48786E+04 -8.72455E+01
  3.57348E+04  5.26664E+04 -1.72546E+04  7.48514E+04 -6.05381E+04  6.20802E+04 -8.31614E+04  3.09850E+04
 -7.84363E+04 -1.12495E+04 -5.64785E+04 -5.02880E+04 -1.49264E+04 -6.81638E+04  2.56633E+04 -4.45969E+04
  3.84792E+04  3.87542E+03  1.58099E+04  4.78165E+04 -3.33446E+04  4.61220E+04 -6.44545E+04 -1.61099E+03
 -5.20189E+04 -5.53915E+04 -6.24324E+03 -7.57288E+04  3.38653E+04 -5.24292E+04  4.57391E+04 -1.72884E+04
  4.11028E+04  1.16828E+04  3.13729E+04  2.43614E+04  1.53183E+04  2.78561E+04 -4.44245E+03  2.67437E+04
 -2.15076E+04  1.20188E+04 -1.88305E+04 -3.06734E+03  3.87369E+03 -6.91596E+03  1.98509E+04  1.01705E+04
  7.74243E+03  3.32141E+04 -2.97261E+04  3.40889E+04 -6.08455E+04  1.49480E+03 -5.46272E+04 -4.00338E+04
 -1.24950E+04 -6.00410E+04  3.76047E+04 -4.27278E+04  5.58460E+04 -1.04774E+03  3.15454E+04  3.01943E+04
 -6.23152E+03  3.25829E+04 -2.87644E+04  1.41811E+04 -2.74323E+04 -4.79469E+03 -1.51694E+04 -9.96130E+03
 -7.69863E+03 -1.17223E+04 -1.54882E+03 -1.47722E+04  5.90010E+03 -2.30933E+04  1.51974E+04 -1.39846E+04
  1.33641E+04  4.54713E+03 -7.13740E+03  1.35502E+04 -1.93702E+04 -3.45216E+03 -6.94341E+03 -2.97017E+04
  2.06895E+04 -4.03853E+04  4.36952E+04 -1.77228E+04  4.16818E+04  1.81702E+04  1.48688E+04  4.12652E+04
 -1.55014E+04  3.14798E+04 -2.35249E+04  9.06080E+02 -8.20000E+03 -2.56867E+04  2.12600E+04 -3.05950E+04
  3.82932E+04 -7.27475E+03  3.09680E+04  2.24832E+04  1.40175E+04  4.20758E+04 -7.66125E+03  4.48220E+04
 -2.79060E+04  2.87318E+04 -3.61341E+04  8.57503E+03 -3.63086E+04 -1.44671E+04 -2.09528E+04 -3.44113E+04
  6.35338E+03 -3.40850E+04  2.89890E+04 -1.20507E+04  2.47843E+04  1.14014E+04  1.59341E+03  1.69460E+04
 -1.26394E+04  7.26330E+03 -7.83105E+03 -8.22945E+03  5.79734E+03 -9.98995E+03  1.68722E+04  6.22053E+03
  1.13157E+04  2.14579E+04 -7.35399E+03  2.27719E+04 -2.10989E+04  8.76927E+03 -2.35557E+04 -6.55221E+03
 -1.64721E+04 -1.64812E+04 -5.53245E+03 -1.59154E+04  4.28717E+03 -1.45160E+04  1.10225E+04 -1.36396E+04
  2.03375E+04 -1.21048E+04  2.72932E+04  1.00488E+03  2.14730E+04  1.63248E+04  3.26688E+03  3.12756E+04
 -1.58371E+04  2.62999E+04 -2.57096E+04  9.58614E+03 -1.89122E+04 -1.02977E+04 -3.91508E+03 -1.43654E+04
  2.49973E+03 -4.23399E+03 -1.53868E+03  5.10283E+03 -1.26150E+04  4.86253E+03 -1.33811E+04 -3.12293E+03
 -8.75570E+03 -1.44197E+04  5.38014E+03 -1.82030E+04  1.14980E+04 -1.28985E+04  1.44087E+04 -1.65152E+03
  8.95838E+03  1.07950E+04 -2.75789E+02  1.53617E+04 -9.79123E+03  8.09783E+03 -1.52015E+04 -3.94327E+03
 -1.08500E+04 -1.38935E+04 -1.82587E+03 -1.84584E+04  8.56947E+03 -1.51567E+04  1.56330E+04 -6.23182E+03
  1.38301E+04  1.17232E+03  9.69070E+03  4.10668E+03  4.63072E+03  5.36526E+01  6.78665E+03 -1.01048E+03
  1.29117E+04  2.94974E+03  1.37719E+04  1.19916E+04  7.91626E+03  2.29335E+04 -3.26951E+03  2.46991E+04
 -1.32585E+04  1.81070E+04 -2.26586E+04  9.16206E+03 -2.42317E+04 -1.49632E+03 -2.01601E+04 -1.25411E+04
 -1.00467E+04 -1.77309E+04  6.13237E+03 -1.70595E+04  1.57303E+04 -1.14368E+04  1.42977E+04  3.21439E+03
  6.02087E+03  1.13919E+04 -6.32567E+03  9.46507E+03 -1.28528E+04  1.94037E+03 -9.57503E+03 -7.54010E+03
 -1.64747E+02 -1.20885E+04  5.74088E+03 -8.35747E+03  6.65906E+03 -1.26237E+03  1.77331E+03  4.19423E+03
 -4.65495E+03  1.36138E+03 -2.90774E+03 -3.93294E+03  3.55239E+02 -9.00740E+03  7.61060E+03 -9.47878E+03
  1.13752E+04 -4.97599E+03  1.12840E+04  3.35256E+03  8.81841E+03  9.59050E+03  4.05586E+03  1.29548E+04
 -1.94616E+02  1.38630E+04 -8.43475E+03  8.63157E+03 -9.28803E+03  2.52107E+03 -8.74027E+03 -1.07715E+03
 -4.14981E+03 -3.57370E+03 -1.42181E+03  8.90401E+02 -1.17623E+03  1.93446E+03 -3.42176E+03  3.04974E+03
 -7.86948E+03  7.38821E+02 -7.92806E+03 -6.70398E+03 -2.83412E+03 -9.54268E+03  3.43518E+03 -7.79042E+03
  7.00298E+03 -2.88428E+03  4.92443E+03  2.03682E+03  6.06241E+02  2.50975E+03 -2.84560E+03  2.15380E+02
 -4.23860E+03 -4.53514E+03 -8.73856E+02 -6.56902E+03  3.04475E+03 -6.58051E+03  7.89561E+03 -3.56187E+03
  1.06220E+04 -2.88052E+02  7.78219E+03  5.05936E+03  1.79553E+03  8.65108E+03 -5.50520E+03  7.91398E+03
 -6.66488E+03  2.75134E+03 -3.69781E+03 -8.97149E+02  6.44074E+02 -1.91359E+03  3.76080E+03 -3.01148E+02
  4.38739E+03  2.61425E+03 -4.25216E+02  6.33602E+03 -3.74565E+03  6.11413E+03 -6.52300E+03  2.27246E+03
 -4.82119E+03 -3.56400E+03  1.85846E+02 -5.91379E+03  2.44122E+03 -2.72143E+03  3.53965E+03 -3.38315E+01
 -9.93672E+01  3.43115E+03 -4.70859E+03  3.82190E+03 -4.69568E+03  2.23154E+03 -4.00093E+03  1.35055E+02
 -2.10048E+03 -5.23787E+03  6.14447E+01 -5.38637E+03  4.52129E+03 -3.69746E+03  5.20118E+03  4.34059E+02
  3.92363E+03  4.58149E+03  4.47674E+02  6.35039E+03 -4.95316E+03  4.37206E+03 -5.09105E+03 -2.81506E+02
 -5.71242E+03 -4.04975E+03 -1.42192E+03 -4.33494E+03  2.14647E+03 -4.42058E+03  2.30670E+03 -2.86317E+03
  2.58561E+03  1.06275E+02  1.12684E+03  8.52307E+02  6.20977E+02 -1.91538E+02  9.76272E+01 -1.99614E+02
  2.50897E+03 -9.44381E+02  4.81062E+03  1.68296E+03  4.74800E+03  3.24460E+03  5.23967E+03  6.03918E+03
 -9.91806E+02  6.78452E+03 -6.88641E+03  5.49803E+03 -9.15872E+03  1.53984E+03 -6.72571E+03 -1.67382E+03
 -2.17020E+03 -6.06886E+03  1.54695E+01 -5.12844E+03  2.15259E+03 -1.61446E+03  1.19051E+03 -2.21449E+03
  1.23201E+03 -1.77452E+03  2.67198E+03 -1.44338E+03  2.14901E+03 -1.05146E+03  3.52060E+03 -6.77859E+01
  3.70161E+03  1.21184E+03  7.22683E+01  3.27145E+03 -9.72677E+02  1.63826E+03 -4.04202E+03  2.41249E+03
 -3.46196E+03 -2.23470E+03 -8.89998E+02 -3.13821E+03  4.83813E+02 -3.70549E+03  1.52722E+03 -3.74385E+03
  3.65244E+03 -2.96058E+03  5.78277E+03 -6.71245E+02  3.68825E+03  3.61154E+03  5.01262E+02  4.88868E+03
 -1.10515E+03  4.09370E+03 -2.84623E+03  7.96358E+02 -1.23417E+03 -7.73823E+02 -8.43672E+02  2.71545E+02
  4.21005E+01  8.44144E+02 -1.35502E+03  1.70631E+03 -2.93474E+03  1.54425E+03 -4.07772E+03 -3.72141E+01
 -1.85686E+03 -3.39159E+03  6.11140E+02 -3.34236E+03  2.17545E+03 -4.45042E+03  3.08537E+03 -6.08906E+02
  3.96818E+03  2.75902E+03  1.62572E+03  1.53086E+03 -9.19618E+02  3.75890E+03 -1.63749E+03  2.76213E+03
 -2.30913E+03  9.18288E+02 -2.44018E+03 -2.71899E+03 -2.51218E+02 -3.34125E+03  6.66772E+02 -1.73434E+03
  2.25631E+03 -9.74812E+02  8.42763E+02  5.71684E+02  4.91020E+02  1.80396E+03  5.76841E+02  7.44056E+02
  1.85236E+03  8.84394E+02  1.10852E+03  2.47612E+03 -3.28056E+01  1.69467E+03  5.47892E+02  1.58424E+03
 -1.92877E+03  1.39151E+03 -1.84686E+03  3.82473E+03 -2.81413E+03  9.77511E+02 -2.69101E+03 -1.01220E+03
 -1.38976E+03 -2.22817E+03 -2.01350E+02 -4.99905E+03  9.30976E+02 -2.09477E+03  2.38598E+03 -1.25388E+03
  2.08592E+03  1.63517E+03  3.59840E+02  1.64278E+03 -7.43450E+02  1.77379E+03 -5.16058E+02  1.19443E+03
 -3.90388E+02 -3.41770E+02  6.00067E+02 -1.11570E+03  1.41823E+03 -1.54068E+03  2.23824E+03  1.19728E+03
 -2.10159E+02 -3.81734E+02  2.50682E+02 -6.28943E+02 -8.87508E+02  1.84919E+03  1.22861E+03 -3.08620E+02
 -2.15441E+01 -1.97362E+02  8.68261E+01  8.00468E+02  1.01459E+03  2.12403E+03  7.81231E+02  2.12916E+03
 -2.10553E+03  4.62958E+02 -1.00133E+03  1.86985E+02 -1.95964E+03  1.42650E+02 -4.99561E+02 -6.42042E+02
  2.34429E+02 -2.80153E+02  2.31582E+03 -6.45246E+02  8.88341E+01  4.40543E+02 -3.89823E+02  6.47051E+02
  1.05536E+02  8.50958E+02 -1.21131E+03 -1.74642E+03 -3.41114E+02 -2.00120E+03 -8.22783E+01 -8.67042E+02
  4.83877E+02 -6.13606E+02 -8.74403E+01 -2.90562E+02  2.44557E+03 -1.32468E+03 -3.35228E+02  4.43349E+02
 -9.12253E+02  2.12454E+02 -1.12032E+03  4.34701E+00  1.21758E+03 -2.30649E+02  1.65772E+03 -1.22450E+03
 -3.79914E+02 -3.11927E+02  8.95195E+02  6.66931E+02  1.15480E+03  1.07670E+03  1.52330E+02  1.09279E+03
 -1.85171E+03 -5.54119E+02  1.29891E+02  1.19611E+02  7.69637E+01 -1.51309E+03  2.39432E+02 -8.24932E+01
  1.61186E+03 -6.60636E+02  7.85010E+02  8.93753E+02 -4.42227E+02  5.41237E+02 -2.52138E+02  1.42632E+03
  1.30138E+02  1.23096E+03 -5.54601E+02  7.33724E+02  4.89460E+02  3.12785E+02 -8.35941E+02  6.86184E+02
 -6.81117E+02  1.28674E+03 -7.79514E+02  4.04503E+02 -2.27275E+03 -1.88782E+02 -1.54484E+03 -1.49668E+03
 -1.50926E+03 -2.62392E+03  9.25863E+01 -2.13265E+03  5.32777E+02 -1.60023E+03  2.70797E+03 -1.08022E+03
  2.71728E+03 -2.10850E+02  6.10589E+02 -4.95887E+02 -1.45672E+03  1.41973E+03 -1.20236E+03 -1.79779E+02
 -2.72729E+02  8.68570E+02  3.44077E+01  3.15549E+02 -3.86316E+02  3.48854E+02 -9.36035E+02 -1.83761E+02
 -1.06650E+03 -4.06747E+02 -1.94841E+03  1.82687E+03  2.63740E+02 -9.90754E+02 -6.83757E+02 -1.43849E+03
  8.41113E+02 -6.64486E+01 -8.53685E+02 -7.80682E+02  1.75187E+02  5.82693E+02 -3.92071E+02  1.87364E+03
 -3.37332E+02  8.02132E+01 -7.62775E+02  1.41976E+03 -8.50394E+02 -6.30580E+01 -6.51503E+02 -2.07246E+03
  5.65819E+02 -1.60663E+03 -1.31429E+02  4.11845E+02 -2.68719E+02 -1.18576E+02  1.38573E+03  2.88082E+02
  1.01762E+02  7.89514E+02  1.03344E+03  5.41954E+01  3.50578E+02 -1.21726E+03  6.06254E+02 -7.93093E+01
  4.59777E+02  8.17447E+02 -1.04396E+03  6.87650E+02 -2.16653E+02 -9.53386E+02  1.27483E+03 -5.74744E+01
 -6.18298E+02  4.79341E+02  1.34533E+02  2.20130E+02 -7.77889E+02  4.96403E+02 -2.67693E+02 -6.59888E+02
  1.35791E+03 -4.27108E+02  6.53789E+02 -2.60634E+02  9.54614E+02 -9.94170E+02  3.07607E+02  2.41263E+03
  4.18835E+02  1.04253E+01  9.85159E+01  3.13967E+02 -5.39895E+02 -3.30661E+01 -5.52619E+02 -4.00765E+02
  3.56955E+02  4.11195E+02 -1.06004E+03  1.32211E+02 -7.57023E+02  1.58712E+02 -6.04723E+01 -5.82189E+02
 -7.43771E+02  1.54493E+02 -6.57568E+02 -4.39660E+02  1.71260E+03 -1.35286E+03  3.60389E+02 -1.29062E+02
  1.94677E+03 -1.07374E+03 -5.82742E+02 -6.31752E+02  2.36790E+02  9.42897E+02 -3.84128E+02  7.24861E+02
