 $NMID ID='MM_0lb_SNR200_15hz_g50_40.RAW', FMTDAT='(8E13.5)'
 TRAMP=1., VOLUME=1. $END
  3.09819E+05 -3.86913E+02  3.36895E+05  2.50778E+05  8.51710E+04  3.37832E+05 -1.32554E+05  2.49692E+05
 -1.90318E+05  8.24532E+04 -1.10543E+05 -3.17048E+04  1.67285E+03 -5.03330E+04  5.37627E+04 -2.05337E+02
  3.49453E+04  5.25672E+04 -1.56173E+04  7.42797E+04 -6.10085E+04  6.33632E+04 -8.35165E+04  3.18969E+04
 -8.01006E+04 -1.15649E+04 -5.91787E+04 -5.16869E+04 -1.37108E+04 -6.86435E+04  2.70247E+04 -4.61681E+04
  4.01995E+04  3.80866E+03  1.66379E+04  4.75909E+04 -3.38249E+04  4.78262E+04 -6.79671E+04  9.21071E+02
 -5.32665E+04 -5.71783E+04 -6.29942E+03 -7.63137E+04  3.35372E+04 -5.38158E+04  4.77495E+04 -1.76517E+04
  4.16354E+04  1.17106E+04  3.13992E+04  2.51249E+04  1.55067E+04  2.83755E+04 -5.59079E+03  2.65325E+04
 -2.13474E+04  1.16199E+04 -1.95162E+04 -4.94614E+03  5.30442E+03 -7.47510E+03  2.14619E+04  1.05154E+04
  8.15268E+03  3.37988E+04 -3.16811E+04  3.56373E+04 -6.24336E+04  2.38321E+03 -5.69472E+04 -4.30241E+04
 -1.20964E+04 -6.29603E+04  4.08764E+04 -4.43699E+04  5.67726E+04 -2.04384E+03  3.28847E+04  3.16888E+04
 -7.38081E+03  3.56225E+04 -3.03460E+04  1.47777E+04 -2.99378E+04 -4.62741E+03 -1.60140E+04 -1.07735E+04
 -7.53582E+03 -1.36842E+04 -6.47461E+01 -1.80152E+04  8.19274E+03 -2.33609E+04  1.43543E+04 -1.35933E+04
  1.20433E+04  3.79245E+03 -6.96402E+03  1.34348E+04 -2.17595E+04 -3.21017E+03 -7.37249E+03 -3.23398E+04
  2.26022E+04 -4.20454E+04  4.67319E+04 -1.88078E+04  4.43181E+04  1.84783E+04  1.65698E+04  4.27932E+04
 -1.63107E+04  3.21569E+04 -2.53839E+04  1.56666E+03 -9.35303E+03 -2.74387E+04  2.02380E+04 -3.25206E+04
  4.12520E+04 -9.22901E+03  3.46499E+04  2.35102E+04  1.78407E+04  4.57716E+04 -7.44743E+03  4.92379E+04
 -3.11723E+04  3.36156E+04 -4.23991E+04  9.09990E+03 -4.09332E+04 -1.67818E+04 -2.32961E+04 -3.78978E+04
  6.92559E+03 -3.65479E+04  3.11842E+04 -1.46567E+04  2.84306E+04  1.02180E+04  3.91619E+03  1.87296E+04
 -1.26606E+04  9.43617E+03 -9.59336E+03 -7.24244E+03  7.07980E+03 -1.25694E+04  1.78653E+04  6.01856E+03
  1.40988E+04  2.17704E+04 -5.69365E+03  2.39093E+04 -2.07225E+04  1.12701E+04 -2.74227E+04 -6.01464E+03
 -2.08553E+04 -1.73257E+04 -6.49313E+03 -1.91604E+04  4.34185E+03 -1.98891E+04  1.58150E+04 -1.72202E+04
  2.57236E+04 -1.29049E+04  3.14994E+04  1.55377E+03  2.32909E+04  1.95168E+04  3.25551E+03  3.56663E+04
 -1.81060E+04  3.03742E+04 -2.72089E+04  1.06611E+04 -1.94091E+04 -1.05121E+04 -3.79512E+03 -1.33250E+04
  1.84089E+03 -3.37124E+03 -4.31194E+03  5.93663E+03 -1.57115E+04  5.31957E+03 -1.55548E+04 -6.79502E+03
 -9.81305E+03 -1.90501E+04  5.41060E+03 -2.19759E+04  1.49178E+04 -1.64808E+04  1.70698E+04 -1.11101E+03
  1.13999E+04  1.22734E+04 -1.72804E+03  1.74296E+04 -1.26119E+04  1.02754E+04 -1.78386E+04 -3.92119E+03
 -1.32017E+04 -1.50783E+04 -9.97555E+02 -2.26189E+04  1.03769E+04 -1.80594E+04  1.74294E+04 -9.06824E+03
  1.75914E+04  9.61233E+02  1.35527E+04  3.22479E+03  7.57725E+03  9.92402E+02  8.94186E+03 -2.64401E+03
  1.74391E+04  2.67517E+03  1.87034E+04  1.54506E+04  1.32972E+04  2.98016E+04 -1.50737E+03  3.25014E+04
 -1.97988E+04  2.56973E+04 -3.02206E+04  1.34503E+04 -3.18709E+04 -2.19528E+03 -2.58289E+04 -1.76838E+04
 -1.12469E+04 -2.58237E+04  8.20659E+03 -2.37370E+04  1.93792E+04 -1.17663E+04  1.81157E+04  5.85951E+03
  6.74022E+03  1.50480E+04 -9.00912E+03  1.21144E+04 -1.53473E+04  3.43011E+03 -1.18437E+04 -1.02376E+04
 -7.17027E+02 -1.49387E+04  7.47390E+03 -1.18448E+04  9.72388E+03 -6.23703E+02  3.25952E+03  5.91239E+03
 -7.43760E+03  2.07860E+03 -5.74814E+03 -5.92540E+03 -4.72975E+02 -1.28683E+04  8.44755E+03 -1.30028E+04
  1.54564E+04 -6.44983E+03  1.71364E+04  2.82702E+03  1.53060E+04  1.25186E+04  6.54876E+03  1.92392E+04
 -3.12262E+03  2.04370E+04 -1.33774E+04  1.20191E+04 -1.58323E+04  2.74363E+03 -1.07175E+04 -2.48693E+03
 -4.35196E+03 -5.01314E+03 -3.43354E+02  2.16135E+03 -1.61091E+03  2.35463E+03 -4.54109E+03  3.82759E+03
 -1.04054E+04  6.04665E+01 -1.13339E+04 -9.03770E+03 -4.56918E+03 -1.59672E+04  5.21435E+03 -1.12697E+04
  9.06227E+03 -4.89721E+03  5.72912E+03  2.69467E+03 -3.05637E+02  4.27424E+03 -5.46622E+03 -4.09172E+02
 -3.86218E+03 -7.01655E+03 -1.14188E+03 -9.11602E+03  4.91778E+03 -1.02767E+04  1.37405E+04 -6.66331E+03
  1.42869E+04  6.61486E+02  1.23429E+04  8.20543E+03  2.96856E+03  1.05242E+04 -5.63087E+03  1.09004E+04
 -8.55082E+03  1.93008E+03 -4.02860E+03 -1.34544E+03  1.48469E+03 -3.85820E+03  6.30383E+03 -6.56423E+02
  5.45116E+03  5.21901E+03  1.00193E+03  8.54384E+03 -5.57188E+03  8.11138E+03 -1.05420E+04  1.99350E+03
 -6.47057E+03 -4.43255E+03  4.26606E+02 -8.93482E+03  5.38456E+03 -2.96682E+03  6.32938E+03  1.12221E+03
  1.32694E+03  4.92324E+03 -4.76727E+03  5.52481E+03 -7.32721E+03  3.21528E+03 -7.42532E+03 -3.00803E+03
 -4.59542E+03 -8.68661E+03  1.71705E+03 -1.02578E+04  8.16475E+03 -6.48818E+03  9.80448E+03  9.37364E+02
  6.93186E+03  7.83245E+03 -8.20040E+02  9.03652E+03 -6.59389E+03  5.29834E+03 -7.52805E+03 -1.48906E+03
 -6.95121E+03 -7.30552E+03 -1.39114E+03 -6.92830E+03  4.98615E+03 -6.01182E+03  3.76444E+03 -3.71041E+03
  3.26029E+03  9.76181E+02 -6.26642E+02  9.04293E+02 -6.35945E+02 -1.64784E+03  1.02622E+03 -3.52362E+03
  6.08460E+03 -6.00395E+02  8.97172E+03  1.44013E+03  7.65370E+03  5.17221E+03  6.78926E+03  1.10072E+04
 -2.56625E+03  1.32755E+04 -1.04069E+04  9.65754E+03 -1.43205E+04  1.58106E+03 -1.09775E+04 -5.25648E+03
 -6.97310E+03 -1.05497E+04  3.08644E+02 -7.97276E+03  2.51632E+03 -3.84424E+03  2.09705E+03 -3.10198E+03
  1.15603E+03 -2.94650E+03  2.81380E+03 -2.26250E+03  4.49780E+03 -2.38056E+03  4.23660E+03 -3.29982E+02
  6.89418E+03  1.49540E+03  1.86505E+03  5.24015E+03 -3.22091E+03  4.60801E+03 -6.44947E+03  5.05185E+03
 -7.99398E+03 -1.26058E+03 -4.29327E+03 -5.74878E+03  5.58171E+02 -7.82778E+03  5.57583E+03 -8.39386E+03
  8.75037E+03 -4.26878E+03  1.10967E+04  2.38935E+02  6.63638E+03  6.44071E+03  1.28820E+03  8.97701E+03
 -3.66423E+03  7.78115E+03 -4.72974E+03  2.11824E+03 -3.21402E+03 -1.53958E+03 -2.43716E+03 -7.99413E+02
 -5.91539E+02  5.81750E+02 -1.40585E+03  2.04474E+03 -3.41455E+03  2.16231E+03 -5.01776E+03  1.05573E+02
 -2.80657E+03 -5.79082E+03  5.09557E+01 -8.04531E+03  3.54882E+03 -6.65623E+03  6.19455E+03 -1.11220E+03
  5.53090E+03  3.29654E+03  2.63552E+03  5.44665E+03 -5.95624E+02  7.05272E+03 -5.25209E+03  5.60054E+03
 -6.39950E+03  6.13696E+02 -5.01409E+03 -4.98348E+03 -4.23467E+02 -5.53421E+03  2.93724E+03 -4.77072E+03
  4.88722E+03 -9.12205E+02  3.16236E+03 -1.53971E+02  1.32276E+03  1.74470E+03  1.04240E+03  1.19750E+03
  2.33466E+03  2.64857E+02  1.16747E+03  1.06787E+03  1.77734E+03  2.19989E+03  1.66352E+03  3.40442E+03
 -3.11837E+03  3.55615E+03 -4.24342E+03  6.81216E+03 -6.86276E+03  1.21765E+03 -8.70800E+03 -3.27104E+03
 -2.62232E+03 -5.88966E+03  1.35206E+03 -8.76741E+03  4.10004E+03 -3.89855E+03  5.08336E+03 -1.44543E+03
  5.37477E+03  2.17341E+03  1.05410E+03  4.87192E+03 -1.81741E+03  1.89718E+03 -2.33349E+03 -3.18998E+02
 -1.87601E+03 -3.30028E+03  1.79966E+03 -2.53443E+03  3.53237E+03 -1.14705E+03  3.71826E+03  1.06881E+03
  1.74136E+03  3.08314E+02  1.31705E+03  5.39525E+02 -8.50130E+02  5.59589E+02  5.95267E+02  1.08344E+03
 -7.79602E+02 -9.47943E+02  1.87453E+03  1.21482E+03  2.43905E+01  3.00523E+03 -1.52834E+03  4.81468E+03
 -3.15163E+03  2.41409E+03 -4.37933E+03  1.78724E+03 -3.52022E+03 -8.20895E+02 -1.50306E+03 -3.25554E+03
  9.02383E+02 -3.24521E+03  1.49885E+03 -2.33017E+03  1.27991E+03  7.74897E+02 -1.70734E+03  2.75459E+03
 -2.39315E+03  1.48138E+03 -2.52775E+03 -2.24415E+03 -2.04628E+03 -4.20513E+03  8.71860E+02 -1.79042E+03
  8.42341E+02 -1.96122E+03  3.09119E+03  3.35496E+02  2.93268E+03  4.07291E+02 -6.25525E+02  1.62569E+03
 -1.28533E+03  1.44768E+03 -2.57357E+03  4.12922E+02 -2.80053E+01 -1.36559E+03  4.11793E+03 -2.40693E+03
  4.28681E+03 -5.95321E+01  4.44449E+03  2.99387E+03  1.65527E+03  3.66114E+03 -1.75352E+03  2.38800E+03
 -2.67811E+03  1.90454E+03 -3.10721E+03 -1.20920E+03 -1.82666E+03 -2.14938E+03 -1.18052E+03 -2.59522E+03
  3.19605E+03 -1.33066E+03  1.29013E+03  2.37232E+03  5.11779E+02  2.79577E+03  4.49196E+02  2.62050E+03
 -5.52764E+02  8.74561E+02 -2.00541E+02  6.80030E+02 -8.46557E+01  9.17276E+02 -2.40415E+02  1.21923E+03
 -9.16086E+02  1.79867E+03 -2.28628E+03  1.93581E+03 -3.15535E+03  2.36808E+02 -4.07421E+03 -2.66534E+03
 -3.43915E+03 -5.07183E+03 -4.12164E+01 -5.83268E+03  2.67981E+03 -3.75938E+03  5.92614E+03 -5.42636E+02
  5.42301E+03  7.09284E+02  2.24484E+03  4.20883E+03  6.63403E+02  3.21106E+03 -6.56051E+02  2.36209E+03
 -3.02365E+03  5.34070E+02 -2.65610E+03 -2.31089E+02  1.13725E+02 -5.42306E+01  7.50604E+01  1.32103E+03
 -1.00798E+03  3.05654E+02 -4.10178E+02  8.60733E+02  1.23547E+03 -2.69164E+02 -2.66096E+02 -1.43437E+03
  2.59943E+03 -1.20690E+02  1.54892E+03 -9.80656E+01  2.67621E+03  2.38752E+03 -7.74040E+02  3.72348E+03
 -4.02695E+02  3.93187E+03 -4.43223E+03  2.95598E+03 -4.24242E+03  1.28106E+02 -2.30472E+03 -2.87955E+03
 -1.04266E+03 -2.56074E+03  1.97753E+03 -2.69768E+03  2.15197E+03 -1.64186E+03  2.14183E+03  8.62761E+02
  1.43740E+03  1.26382E+03 -8.83088E+01 -4.18485E+02  5.66374E+00  6.52041E+02  9.94439E+01 -1.32337E+03
  4.03481E+02  8.47771E+02  8.11706E+02  2.82658E+02  6.87739E+02  1.62519E+03 -6.20617E+02  7.61798E+02
 -2.36135E+03  5.77554E+02 -9.96640E+02  3.42591E+02 -2.80171E+03 -1.15007E+03 -2.21597E+02 -2.38513E+03
  1.74395E+03 -2.09467E+03  9.92889E+02  1.12472E+03  2.55906E+03 -3.39085E+02  5.02591E+02  6.34680E+02
  1.60141E+03  2.10143E+03 -1.28208E+03  1.34509E+03 -1.26560E+03  5.50937E+02 -8.68450E+02  1.91223E+02
 -6.13176E+02  7.99950E+02 -4.89818E+02  7.41540E+02 -1.59508E+03  1.21117E+03 -8.99994E+02  2.60243E+02
 -2.39739E+03 -7.50358E+02 -4.21091E+02 -3.13840E+03  1.76623E+03 -1.32796E+03  7.46724E+02 -1.40001E+03
  2.71592E+03  1.01012E+03  7.18036E+01  1.70336E+03  3.56256E+02  2.59682E+03 -8.24820E+02  1.01665E+03
