 $NMID ID='MM_0lb_SNR200_13hz_g55_17.RAW', FMTDAT='(8E13.5)'
 TRAMP=1., VOLUME=1. $END
  3.09283E+05  7.47090E+02  3.36764E+05  2.51559E+05  8.49291E+04  3.38353E+05 -1.32888E+05  2.51524E+05
 -1.90391E+05  8.31839E+04 -1.11465E+05 -3.30993E+04  1.00705E+03 -5.02870E+04  5.35885E+04 -1.33746E+02
  3.58051E+04  5.26213E+04 -1.69887E+04  7.73757E+04 -6.04382E+04  6.46903E+04 -8.49941E+04  3.05653E+04
 -8.22069E+04 -1.12295E+04 -5.77495E+04 -5.21704E+04 -1.58237E+04 -6.96983E+04  2.59648E+04 -4.73167E+04
  4.10414E+04  2.85205E+03  1.65210E+04  4.80496E+04 -3.46895E+04  4.77066E+04 -6.63913E+04 -6.86407E+02
 -5.35334E+04 -5.67298E+04 -8.27865E+03 -7.77568E+04  3.33530E+04 -5.69114E+04  4.88922E+04 -1.84866E+04
  4.44793E+04  1.18913E+04  3.26205E+04  2.49172E+04  1.65810E+04  2.83772E+04 -6.28003E+03  2.77127E+04
 -2.29533E+04  1.23891E+04 -1.80682E+04 -7.31529E+03  6.21509E+03 -8.01535E+03  2.35631E+04  1.27024E+04
  6.47144E+03  3.55419E+04 -3.29972E+04  3.62094E+04 -6.31874E+04  2.05169E+03 -5.80013E+04 -4.22110E+04
 -1.31055E+04 -6.53774E+04  3.97322E+04 -4.59019E+04  5.94551E+04 -1.77486E+03  3.43041E+04  3.37694E+04
 -5.91079E+03  3.73368E+04 -3.07484E+04  1.67904E+04 -3.24119E+04 -4.50347E+03 -1.68872E+04 -1.13939E+04
 -9.44683E+03 -1.46693E+04 -1.65315E+02 -1.80133E+04  7.86629E+03 -2.39169E+04  1.58682E+04 -1.36091E+04
  1.08662E+04  6.48615E+03 -8.43422E+03  1.29149E+04 -2.22045E+04 -5.85753E+03 -8.05742E+03 -3.56792E+04
  2.25833E+04 -4.50686E+04  5.00362E+04 -2.04466E+04  4.53286E+04  2.05970E+04  1.59536E+04  4.50911E+04
 -1.48577E+04  3.61445E+04 -2.58403E+04  2.03860E+03 -1.00901E+04 -2.79822E+04  2.05147E+04 -3.55490E+04
  4.27951E+04 -1.00387E+04  3.66597E+04  2.43647E+04  1.87345E+04  4.67614E+04 -7.00662E+03  5.31783E+04
 -3.37990E+04  3.64338E+04 -4.43082E+04  9.40197E+03 -4.53515E+04 -1.80689E+04 -2.45036E+04 -3.86142E+04
  6.46445E+03 -4.01963E+04  3.18843E+04 -1.54435E+04  3.08879E+04  1.09256E+04  4.36052E+03  1.93535E+04
 -1.24633E+04  9.07379E+03 -1.04076E+04 -8.88675E+03  5.55806E+03 -1.16505E+04  1.78977E+04  4.95836E+03
  1.34924E+04  2.20059E+04 -5.25782E+03  2.58847E+04 -2.33967E+04  1.32509E+04 -2.89901E+04 -3.57508E+03
 -2.31952E+04 -1.72200E+04 -9.26543E+03 -2.22995E+04  4.31011E+03 -2.19329E+04  1.59528E+04 -1.95037E+04
  2.90269E+04 -1.21141E+04  3.37898E+04  3.86391E+03  2.56449E+04  2.04117E+04  4.25469E+03  3.74876E+04
 -1.77005E+04  3.08337E+04 -2.86017E+04  9.96383E+03 -2.17703E+04 -9.26445E+03 -4.98213E+03 -1.18492E+04
  8.25678E+02 -1.09002E+03 -5.63985E+03  7.11980E+03 -1.68572E+04  5.72334E+03 -1.84400E+04 -7.35114E+03
 -1.12548E+04 -2.03762E+04  6.43987E+03 -2.37881E+04  1.65991E+04 -1.57636E+04  1.98937E+04 -1.34485E+03
  1.27867E+04  1.50519E+04 -8.65246E+02  2.21340E+04 -1.52620E+04  1.21261E+04 -2.01711E+04 -4.97846E+03
 -1.40100E+04 -1.92777E+04 -2.80866E+03 -2.53780E+04  1.04807E+04 -1.98954E+04  2.09805E+04 -1.05939E+04
  1.82946E+04  2.62734E+02  1.22139E+04  3.94512E+03  7.36466E+03  1.48325E+03  9.97009E+03 -2.01499E+03
  1.95408E+04  2.47627E+03  2.05097E+04  1.57183E+04  1.46347E+04  3.23143E+04 -2.87885E+03  3.85448E+04
 -2.08472E+04  3.08243E+04 -3.40192E+04  1.56085E+04 -3.58286E+04 -3.68274E+03 -3.10253E+04 -2.05541E+04
 -1.24367E+04 -2.94606E+04  8.91818E+03 -2.65478E+04  2.35506E+04 -1.35014E+04  2.16869E+04  6.96179E+03
  8.01756E+03  1.72333E+04 -9.24661E+03  1.39777E+04 -1.75015E+04  2.25452E+03 -1.36149E+04 -1.19013E+04
 -7.66484E+02 -1.71052E+04  8.71906E+03 -1.17594E+04  1.08541E+04 -1.88676E+03  3.20738E+03  8.43910E+03
 -7.15193E+03  2.74716E+03 -7.38860E+03 -6.12284E+03 -7.91763E+02 -1.36355E+04  1.08838E+04 -1.60611E+04
  1.87170E+04 -7.76643E+03  2.11659E+04  2.75458E+03  1.79627E+04  1.50124E+04  8.13975E+03  2.22023E+04
 -4.00025E+03  2.39138E+04 -1.74254E+04  1.59266E+04 -1.80648E+04  4.10977E+03 -1.23226E+04 -3.50274E+03
 -5.44522E+03 -5.71485E+03 -2.23926E+03  1.04983E+03 -2.57799E+03  3.00668E+03 -4.69129E+03  4.92938E+03
 -1.19194E+04 -9.76042E+02 -1.27425E+04 -8.03144E+03 -4.92723E+03 -1.53958E+04  5.14340E+03 -1.24239E+04
  1.10032E+04 -4.22026E+03  8.07287E+03  2.97509E+03  7.06240E+02  4.92609E+03 -7.00056E+03 -1.06003E+03
 -5.39931E+03 -7.68923E+03 -1.71034E+03 -1.14243E+04  7.20001E+03 -1.31192E+04  1.50487E+04 -6.10272E+03
  1.72845E+04  1.38360E+03  1.38548E+04  1.08737E+04  2.89732E+03  1.38704E+04 -7.16577E+03  1.23758E+04
 -9.06846E+03  3.52206E+03 -5.97852E+03 -2.67412E+03  1.68467E+03 -2.80665E+03  6.12176E+03 -1.60628E+03
  6.72843E+03  5.44401E+03  1.73868E+03  8.85727E+03 -5.81436E+03  8.74266E+03 -1.33956E+04  2.36588E+03
 -9.43584E+03 -8.42138E+03  1.28557E+03 -1.11123E+04  7.83207E+03 -4.04172E+03  7.66114E+03  3.67361E+03
  1.26065E+03  6.74673E+03 -7.40266E+03  9.22720E+03 -8.96815E+03  2.92717E+03 -1.13169E+04 -2.75470E+03
 -4.95911E+03 -1.23604E+04  2.53244E+03 -1.22643E+04  1.04990E+04 -7.91585E+03  1.35757E+04  3.07762E+03
  7.39107E+03  9.34372E+03 -5.25360E+02  1.12611E+04 -9.07809E+03  7.22746E+03 -8.53008E+03 -1.45345E+03
 -8.34858E+03 -8.06749E+03 -3.04266E+03 -8.39960E+03  5.82748E+03 -6.83198E+03  5.66156E+03 -3.40037E+03
  4.07560E+03  9.38355E+02 -4.04146E+01  1.24276E+03 -9.94162E+02 -2.84625E+03  1.01376E+03 -6.78640E+03
  8.39139E+03 -3.19308E+03  1.22013E+04  4.22620E+02  1.10110E+04  6.31410E+03  8.17287E+03  1.43899E+04
 -3.39092E+03  1.60888E+04 -1.29180E+04  1.37941E+04 -1.93937E+04  3.73527E+03 -1.53869E+04 -5.19227E+03
 -7.47151E+03 -1.22547E+04 -3.47726E+02 -9.71361E+03  3.33627E+03 -5.09123E+03  4.62720E+03 -3.13430E+03
  2.25672E+03 -3.15081E+03  3.44161E+03 -3.86761E+03  4.05135E+03 -2.74364E+03  5.35655E+03 -9.49855E+02
  8.30175E+03  2.12529E+03  4.91122E+03  5.29092E+03 -2.20704E+03  6.62230E+03 -6.52876E+03  6.25780E+03
 -8.79686E+03 -2.13134E+03 -6.73308E+03 -6.21392E+03 -3.72164E+02 -1.03379E+04  6.42651E+03 -1.07169E+04
  1.14022E+04 -6.44813E+03  1.33115E+04  1.67675E+03  8.91916E+03  8.72818E+03  2.18647E+03  1.31143E+04
 -4.69423E+03  1.00352E+04 -7.14805E+03  4.56698E+03 -5.45190E+03 -2.55580E+03 -9.89403E+02 -6.65965E+02
 -2.61745E+03 -1.29319E+01 -1.39096E+03  2.96078E+03 -3.27429E+03  1.49924E+03 -6.94871E+03 -1.75393E+03
 -5.18885E+03 -6.15887E+03  1.37714E+03 -9.53017E+03  5.22161E+03 -7.83189E+03  9.06790E+03 -3.06528E+03
  8.76042E+03  4.56419E+03  3.08275E+03  7.79298E+03 -2.17347E+03  9.29085E+03 -6.52789E+03  5.14714E+03
 -8.20509E+03 -2.24601E+02 -7.68018E+03 -5.00218E+03 -5.29001E+02 -7.30503E+03  3.34495E+03 -6.56266E+03
  5.94295E+03 -2.88750E+03  4.69817E+03  5.29167E+02  1.03764E+03  4.59945E+03  1.71000E+03  3.76159E+02
  1.78866E+03  1.22851E+03  2.75116E+03  1.83226E+03  3.09146E+03  2.88553E+03  3.99316E+03  5.78760E+03
 -2.51294E+03  7.73953E+03 -6.09214E+03  7.98435E+03 -9.22772E+03  2.09758E+03 -1.08516E+04 -4.04839E+03
 -4.03915E+03 -9.15956E+03  1.45010E+03 -1.02061E+04  5.87665E+03 -6.26131E+03  5.84705E+03 -1.37571E+03
  5.41415E+03  3.96248E+03  5.84908E+02  4.73584E+03 -2.40927E+03  3.16969E+03 -3.79062E+03 -2.23486E+03
 -1.17593E+03 -3.98137E+03  3.31838E+03 -2.88069E+03  3.45482E+03 -1.60615E+03  3.30144E+03  9.96126E+02
  1.58940E+03  2.02936E+03  1.69930E+03  3.89289E+02 -1.33117E+03  1.20914E+03  1.69865E+03 -1.30562E+03
  2.67079E+02 -3.00430E+02  4.06509E+03  8.42645E+02  2.09159E+03  5.97813E+03 -6.08816E+02  5.84578E+03
 -4.27163E+03  3.71825E+03 -6.72215E+03  7.05746E+02 -4.97995E+03 -1.49105E+03 -1.09339E+03 -3.40230E+03
  2.66688E+02 -3.34216E+03  2.44349E+03 -1.37446E+03  2.19197E+03  2.68041E+03 -1.09500E+03  4.03113E+03
 -3.22178E+03  7.06223E+02 -4.23515E+03 -2.82589E+03 -2.38178E+03 -5.70441E+03  2.24747E+03 -5.07336E+03
  3.01238E+03 -2.33427E+03  3.65263E+03 -1.49384E+03  3.65007E+03  1.95697E+03 -9.89495E+02  3.61176E+03
 -2.38323E+03  1.63443E+02 -2.52825E+03 -2.03290E+01  8.33457E+02 -2.29715E+03  4.56690E+03 -3.48683E+03
  4.98628E+03  1.94620E+03  6.61503E+03  3.47815E+03  2.91207E+03  6.58227E+03 -1.72472E+03  4.74747E+03
 -3.96416E+03  2.06136E+03 -3.78107E+03 -5.56779E+02 -1.84405E+03 -4.04257E+03  1.34731E+03 -2.47540E+03
  3.95357E+03 -1.49205E+03  2.57230E+03  2.18110E+03 -1.72337E+02  3.58200E+03 -2.06106E+02  1.72318E+03
 -1.32412E+03  1.97194E+03 -7.81581E+02  6.65051E+02 -4.01517E+02  1.70326E+02 -8.84492E+02  1.15667E+03
 -1.86926E+03  1.34417E+03 -3.00236E+03  1.82004E+03 -5.07007E+03 -8.34033E+01 -7.00917E+03 -3.26754E+03
 -4.22578E+03 -6.24950E+03  1.64178E+03 -9.32962E+03  5.08014E+03 -5.49422E+03  8.39815E+03 -1.85985E+03
  6.51976E+03  9.43312E+02  3.67208E+03  6.42531E+03 -3.35914E+02  4.45831E+03 -1.62051E+03  3.32472E+03
 -3.63178E+03  1.52579E+03 -1.52236E+03 -9.99521E+01 -1.10943E+03 -9.84031E+02  8.88392E+02  2.83964E+02
 -1.06706E+03 -4.61163E+02 -1.09252E+03  8.17855E+02 -9.05290E+02 -2.04992E+03  8.30846E+02 -9.65471E+02
  3.69125E+03 -2.92566E+02  1.91497E+03  1.45118E+02  3.67432E+03  2.76938E+03  8.89125E+02  6.06625E+03
 -3.38739E+03  6.73826E+03 -4.05939E+03  3.67953E+03 -4.80181E+03 -1.14725E+02 -5.10145E+03 -3.30230E+03
 -1.51434E+03 -5.40128E+03  1.17179E+03 -4.85214E+03  3.84464E+03 -1.66665E+03  2.65206E+03 -1.25693E+02
  1.25842E+03  1.25224E+03  6.15152E+02  5.53783E+02 -5.77824E+02  5.69457E+02  2.26239E+02  1.60400E+01
  1.42763E+03 -1.56326E+02  1.67739E+03  3.44691E+02  1.55585E+02  1.44528E+03  1.58587E+03  3.64819E+03
 -1.21068E+03  2.95694E+03 -2.91001E+03 -4.49104E+02 -3.30423E+03 -1.25530E+03 -4.55282E+02 -3.82585E+03
  3.60965E+03 -4.79292E+03  2.09888E+03 -1.31939E+03  3.21315E+03  1.01801E+03  7.83282E+02  2.70948E+03
  1.09677E+03  2.60164E+03 -4.01370E+02  2.88043E+03 -3.44176E+03  1.47775E+03 -2.01048E+03  2.64404E+02
 -1.37943E+03 -4.10499E+01 -5.90270E+02  3.92124E+02 -1.59834E+03  2.25398E+02 -2.76610E+03  5.05191E+02
 -1.81476E+03 -2.27275E+02 -2.39900E+02 -2.99141E+03  1.59135E+03 -2.47967E+03  2.49574E+03 -1.51669E+03
  3.86519E+03  6.66659E+02  6.62318E+02  2.64021E+03 -3.73758E+02  2.35268E+03 -1.94799E+03  1.96493E+03
