 $NMID ID='MM_0lb_SNR200_14hz_g40_23.RAW', FMTDAT='(8E13.5)'
 TRAMP=1., VOLUME=1. $END
  3.09377E+05  6.83540E+02  3.38180E+05  2.50859E+05  8.43427E+04  3.38709E+05 -1.32653E+05  2.51139E+05
 -1.89824E+05  8.41877E+04 -1.10175E+05 -3.32329E+04  5.74733E+02 -5.09026E+04  5.50002E+04 -1.13361E+03
  3.50623E+04  5.24602E+04 -1.69849E+04  7.68666E+04 -6.04075E+04  6.21913E+04 -8.31754E+04  3.23531E+04
 -8.06436E+04 -1.08791E+04 -5.53510E+04 -5.13848E+04 -1.56490E+04 -6.88225E+04  2.61436E+04 -4.55131E+04
  3.85993E+04  4.00929E+03  1.61450E+04  4.75797E+04 -3.42823E+04  4.64079E+04 -6.53625E+04  1.18848E+03
 -5.28961E+04 -5.55884E+04 -6.99326E+03 -7.65965E+04  3.37013E+04 -5.51259E+04  4.77370E+04 -1.72089E+04
  4.37066E+04  1.12008E+04  3.14860E+04  2.41310E+04  1.59984E+04  3.00641E+04 -4.70482E+03  2.65311E+04
 -2.23515E+04  1.20274E+04 -1.96634E+04 -3.61616E+03  6.12027E+03 -7.60100E+03  2.21990E+04  1.29238E+04
  8.29741E+03  3.43793E+04 -3.20629E+04  3.56733E+04 -6.27857E+04  2.37868E+03 -5.68243E+04 -4.23428E+04
 -1.15013E+04 -6.30087E+04  3.92758E+04 -4.30807E+04  5.72292E+04 -1.85938E+03  3.54858E+04  3.11778E+04
 -6.66840E+03  3.45434E+04 -2.93530E+04  1.57851E+04 -2.93992E+04 -3.29194E+03 -1.68391E+04 -1.10423E+04
 -8.51023E+03 -1.21031E+04 -2.41448E+02 -1.65032E+04  7.75804E+03 -2.30522E+04  1.59777E+04 -1.47939E+04
  1.15777E+04  5.46325E+03 -8.02703E+03  1.22466E+04 -2.05404E+04 -2.40113E+03 -7.34657E+03 -3.31722E+04
  2.39958E+04 -4.27915E+04  4.69423E+04 -1.92300E+04  4.49096E+04  1.84034E+04  1.55316E+04  4.30392E+04
 -1.54679E+04  3.22700E+04 -2.43406E+04  2.01331E+03 -9.02580E+03 -2.70623E+04  2.12836E+04 -3.34355E+04
  3.95402E+04 -8.11119E+03  3.52102E+04  2.33371E+04  1.59185E+04  4.57238E+04 -7.31095E+03  4.96319E+04
 -3.13916E+04  3.37304E+04 -4.10103E+04  8.59524E+03 -4.01456E+04 -1.70382E+04 -2.22660E+04 -3.70289E+04
  8.62542E+03 -3.81097E+04  3.08750E+04 -1.45426E+04  2.88936E+04  1.04702E+04  4.66771E+03  1.88066E+04
 -1.45014E+04  7.87966E+03 -9.82723E+03 -7.95984E+03  5.21092E+03 -1.11326E+04  1.85896E+04  6.76322E+03
  1.45904E+04  2.30701E+04 -6.18629E+03  2.42198E+04 -2.29563E+04  1.08792E+04 -2.76087E+04 -4.30380E+03
 -1.98470E+04 -1.74270E+04 -7.14114E+03 -2.06081E+04  4.36376E+03 -1.93103E+04  1.54696E+04 -1.85353E+04
  2.47048E+04 -1.22880E+04  3.14256E+04  1.70985E+03  2.31660E+04  2.03020E+04  5.75296E+03  3.62842E+04
 -1.86770E+04  3.10283E+04 -2.69672E+04  1.13612E+04 -2.23856E+04 -1.07300E+04 -3.34159E+03 -1.40348E+04
  3.27563E+03 -2.76940E+03 -5.48416E+03  6.60878E+03 -1.44774E+04  4.92303E+03 -1.43835E+04 -6.52183E+03
 -1.03235E+04 -1.68256E+04  4.84256E+03 -2.24701E+04  1.55711E+04 -1.66547E+04  1.72501E+04 -1.55988E+03
  1.06722E+04  1.23005E+04 -1.29615E+03  1.78104E+04 -1.18840E+04  1.00563E+04 -1.83858E+04 -3.30805E+03
 -1.35860E+04 -1.59102E+04 -2.52606E+02 -2.27386E+04  9.81908E+03 -1.84073E+04  1.85625E+04 -8.66901E+03
  1.75721E+04 -1.31683E+02  1.31567E+04  3.65730E+03  6.27236E+03  1.07144E+03  8.95748E+03 -1.69072E+03
  1.66100E+04  3.53616E+03  1.85673E+04  1.31319E+04  1.18608E+04  2.96922E+04 -3.27147E+03  3.26958E+04
 -1.69812E+04  2.65981E+04 -3.09442E+04  1.24485E+04 -3.18520E+04 -2.34061E+03 -2.70189E+04 -1.78717E+04
 -1.26640E+04 -2.50589E+04  9.08526E+03 -2.33278E+04  2.10468E+04 -1.22806E+04  1.92245E+04  5.38064E+03
  6.60088E+03  1.38494E+04 -8.72391E+03  1.19893E+04 -1.52539E+04  2.83262E+03 -1.18596E+04 -8.99944E+03
  3.99600E+02 -1.43873E+04  7.64706E+03 -1.09276E+04  9.28750E+03 -1.57055E+03  2.48557E+03  6.80867E+03
 -6.27492E+03  2.68310E+03 -4.46470E+03 -5.40602E+03  1.56797E+02 -1.32784E+04  8.49845E+03 -1.45459E+04
  1.53834E+04 -6.47544E+03  1.60639E+04  2.49478E+03  1.50373E+04  1.16519E+04  6.28778E+03  1.78617E+04
 -2.74822E+03  2.04934E+04 -1.39219E+04  1.31582E+04 -1.40166E+04  4.38884E+03 -9.68545E+03 -2.61034E+03
 -4.02840E+03 -4.38537E+03 -3.68817E+02  1.41100E+03 -2.63364E+03  2.90384E+03 -5.35474E+03  5.52626E+03
 -1.00222E+04 -7.41959E+02 -1.03269E+04 -8.03518E+03 -4.14809E+03 -1.47055E+04  5.94747E+03 -1.15778E+04
  9.89901E+03 -5.53656E+03  6.01095E+03  3.27111E+03 -4.99949E+02  4.87344E+03 -5.01330E+03  1.23972E+03
 -4.84131E+03 -5.85332E+03 -1.32977E+02 -9.98225E+03  5.98016E+03 -1.08111E+04  1.31972E+04 -6.41801E+03
  1.45644E+04  2.04614E+03  1.27023E+04  8.54738E+03  1.33144E+03  1.10580E+04 -8.17819E+03  9.30557E+03
 -8.76869E+03  3.26209E+03 -5.41336E+03 -2.65632E+03  1.15454E+03 -2.96685E+03  6.05873E+03 -9.35767E+02
  5.18498E+03  5.03176E+03  8.44334E+02  9.16835E+03 -6.02488E+03  8.79959E+03 -1.08416E+04  1.77007E+03
 -6.61911E+03 -6.40353E+03  8.56042E+01 -8.90304E+03  5.20719E+03 -3.67058E+03  5.13801E+03  1.39160E+03
  1.10593E+03  5.22907E+03 -5.93752E+03  6.01380E+03 -8.23176E+03  2.82758E+03 -7.10555E+03 -2.09202E+03
 -3.97152E+03 -9.28957E+03  1.27965E+03 -1.03737E+04  9.59429E+03 -6.61143E+03  9.59419E+03  1.62249E+03
  4.87373E+03  8.27545E+03 -9.65466E+01  9.61622E+03 -8.81696E+03  5.47884E+03 -8.28666E+03 -3.52712E+02
 -6.76358E+03 -7.29071E+03 -1.07329E+03 -7.23088E+03  4.51862E+03 -6.77595E+03  4.58971E+03 -3.56054E+03
  3.37253E+03  1.03311E+03 -1.45329E+03  1.28757E+02 -7.15783E+02 -1.21186E+03 -9.54280E+02 -3.79284E+03
  7.08542E+03 -1.18748E+03  8.48388E+03  1.02368E+02  9.33806E+03  5.36321E+03  7.13824E+03  1.08763E+04
 -3.08507E+03  1.37360E+04 -1.06938E+04  9.76200E+03 -1.55930E+04  2.02788E+03 -1.21183E+04 -3.19821E+03
 -6.82091E+03 -9.91480E+03 -4.74471E+02 -8.20168E+03  3.19162E+03 -4.06893E+03  2.96521E+03 -2.37769E+03
  1.94441E+03 -1.67779E+03  2.96056E+03 -1.82576E+03  4.04850E+03 -1.94255E+03  5.92271E+03 -6.31284E+02
  6.43867E+03  1.62071E+03  4.23307E+03  6.64927E+03 -1.75947E+03  5.30782E+03 -7.40316E+03  4.49544E+03
 -8.45607E+03 -2.17823E+03 -6.00988E+03 -5.81150E+03  3.81225E+02 -7.78070E+03  4.65943E+03 -8.85247E+03
  8.32098E+03 -5.10249E+03  9.82017E+03  6.56404E+02  8.59393E+03  7.03114E+03  1.01921E+03  9.75310E+03
 -4.27832E+03  7.41154E+03 -5.54224E+03  3.80396E+03 -3.72231E+03 -5.03871E+02 -1.64018E+03 -8.08401E+02
 -6.51265E+02 -4.25765E+02 -1.63928E+03  3.05733E+03 -2.89044E+03  1.15589E+03 -6.01642E+03  1.12875E+02
 -2.85065E+03 -5.88910E+03  3.70564E+02 -8.43669E+03  4.60576E+03 -6.96527E+03  6.86355E+03 -1.74208E+03
  6.28174E+03  4.12206E+03  3.33674E+03  6.76642E+03 -1.82233E+03  8.80364E+03 -5.41866E+03  4.68421E+03
 -6.98349E+03  4.69189E+02 -5.22493E+03 -4.16775E+03 -1.14320E+03 -6.73832E+03  1.75303E+03 -3.80715E+03
  4.84351E+03 -2.90583E+03  2.31089E+03  2.50786E+02  1.60787E+03  2.71824E+03  1.53385E+03  1.76100E+03
  3.48872E+03  8.06613E+02  2.12793E+03  7.06893E+02  3.14394E+03  2.42387E+03  1.66749E+03  4.31228E+03
 -2.83508E+03  5.63055E+03 -4.81366E+03  7.07343E+03 -6.60787E+03  1.87252E+03 -8.18574E+03 -1.62293E+03
 -2.73343E+03 -6.67243E+03  2.00737E+03 -8.73084E+03  3.68894E+03 -4.88460E+03  5.54029E+03 -1.71790E+03
  3.46727E+03  2.94849E+03 -1.63109E+02  5.65872E+03 -9.72875E+02  2.84072E+03 -2.24950E+03  7.08985E+02
 -1.57338E+03 -2.49953E+03  2.25419E+03 -3.26935E+03  1.74062E+03 -2.30499E+03  2.01433E+03  5.96081E+02
  9.49995E+02  1.08741E+03  2.82332E+02  1.60192E+03 -9.36177E+02  1.89461E+02  1.92571E+03 -1.13017E+03
  7.46524E+02 -1.74223E+03  3.49894E+03  6.56291E+02  2.42809E+02  4.50890E+03 -2.58801E+02  5.20102E+03
 -1.50753E+03  3.55173E+03 -4.97216E+03  1.71268E+03 -4.34127E+03 -1.32884E+03 -1.39795E+02 -2.52560E+03
  9.46960E+02 -2.38149E+03  2.07156E+03 -1.55383E+03  2.14390E+03  2.53033E+03 -1.26552E+02  2.32022E+03
 -3.00292E+03  2.78765E+03 -2.60082E+03 -2.51351E+03 -1.83344E+03 -5.47002E+03  3.28384E+02 -3.23148E+03
  1.89519E+03 -2.85850E+03  2.65587E+03 -1.15313E+02  3.58875E+03  2.46163E+02  8.64802E+02  3.25628E+03
 -6.83003E+02  2.16109E+02 -8.54806E+02 -1.34331E+03  6.72230E+02 -2.07533E+03  4.04389E+03 -2.64410E+03
  2.59421E+03  3.96833E+01  5.37062E+03  3.90422E+03  6.89447E+02  2.90442E+03 -4.29858E+01  3.22216E+03
 -3.87731E+03  1.68144E+03 -2.90048E+03  6.75791E+02 -9.77160E+02 -2.86958E+03  5.66790E+02 -1.84059E+03
  3.02015E+03 -1.97499E+03  2.09424E+03  1.14951E+03  1.40775E+03  2.50019E+03 -9.81802E+02  1.97820E+03
 -5.18247E+02  1.35459E+03 -1.01546E+03  6.29564E+02  1.58124E+02 -3.02865E+02 -7.59084E+02  1.73528E+03
 -1.01541E+03  8.54497E+02 -2.99287E+03  7.05327E+02 -4.19246E+03 -1.57148E+02 -3.86862E+03 -1.21627E+03
 -2.32589E+03 -4.98212E+03  1.20438E+03 -5.74052E+03  3.99510E+03 -4.65211E+03  7.58424E+03 -1.56298E+03
  5.75371E+03  6.87564E+02  3.01361E+03  2.63290E+03 -1.41405E+03  3.79214E+03 -2.57999E+03  2.77065E+03
 -2.90190E+03  4.65264E+02 -4.81900E+02 -1.06291E+03 -7.55935E+02 -2.06327E+02 -1.45552E+03 -4.64538E+02
 -1.84668E+03 -5.37857E+02 -1.37430E+03  2.47751E+02 -2.73180E+00 -6.25861E+02 -3.38247E+02 -2.43630E+03
  2.15103E+03 -4.35966E+02  2.45726E+03 -9.76838E+02  3.27991E+03  1.40959E+03 -5.73440E+02  2.98250E+03
 -1.87418E+03  5.90056E+03 -5.00592E+03  2.76606E+03 -4.06314E+03  2.65410E+02 -3.47161E+03 -3.08950E+03
 -1.82823E+03 -4.62962E+03  1.38626E+03 -4.33254E+03  3.07112E+03 -1.96268E+03  2.62516E+03  1.26747E+03
  1.40507E+03  2.18813E+03  2.50065E+02  8.13777E+02 -1.14009E+03  1.04921E+03 -8.54074E+02 -7.09418E+02
  4.22923E+02 -4.97484E+02 -2.08566E+02  1.05952E+03  1.03906E+02  2.01286E+03 -9.52072E+02  1.23080E+03
 -8.82319E+02  1.41549E+03 -1.66035E+03 -5.87796E+02 -2.03763E+03 -2.44845E+03  4.73064E+02 -3.26243E+03
  1.26847E+03 -3.33489E+03  3.46143E+03 -6.36413E+02  2.30082E+03  3.06238E+02  3.16660E+03  1.81879E+03
  7.65294E+02  2.96460E+03 -7.03558E+02  1.55110E+03 -2.43390E+03  1.55245E+03 -1.21559E+03  2.13941E+02
 -6.97584E+02 -2.40512E+02 -4.59021E+02  5.34145E+01 -1.65199E+03  1.25977E+03 -2.21542E+03  5.56297E+01
 -2.78457E+03 -8.94735E+02 -8.85306E+02 -1.94722E+03  1.22445E+03 -2.94291E+03  1.74926E+03 -9.18943E+02
  2.57614E+03  1.84477E+02  1.39535E+03  1.35764E+03  3.93786E+02  2.40233E+03 -8.79001E+02  6.61753E+02
