 $NMID ID='MM_0lb_SNR200_7hz_g55_79.RAW', FMTDAT='(8E13.5)'
 TRAMP=1., VOLUME=1. $END
  3.11106E+05  1.78229E+03  3.37195E+05  2.50674E+05  8.39068E+04  3.38339E+05 -1.32948E+05  2.51408E+05
 -1.92282E+05  8.32432E+04 -1.12665E+05 -3.21074E+04 -5.38704E+02 -5.12895E+04  5.33388E+04 -1.15912E+03
  3.47724E+04  5.09933E+04 -1.79074E+04  7.70428E+04 -6.25861E+04  6.42748E+04 -8.63157E+04  3.33251E+04
 -8.24864E+04 -1.31086E+04 -5.84970E+04 -5.23254E+04 -1.68568E+04 -7.05571E+04  2.81110E+04 -4.64155E+04
  4.39306E+04  4.68895E+03  1.55264E+04  4.73949E+04 -3.49074E+04  4.96487E+04 -6.86631E+04  8.60966E+02
 -5.43176E+04 -5.90733E+04 -6.96157E+03 -8.13056E+04  3.44833E+04 -5.73976E+04  5.12404E+04 -1.91782E+04
  4.72747E+04  1.19972E+04  3.28749E+04  2.69683E+04  1.68302E+04  3.21022E+04 -6.86095E+03  2.79728E+04
 -2.24911E+04  1.28105E+04 -1.76346E+04 -5.72169E+03  7.62153E+03 -6.87415E+03  2.22180E+04  1.49972E+04
  7.96677E+03  3.83585E+04 -3.41360E+04  3.69818E+04 -6.78117E+04  1.17098E+03 -6.15489E+04 -4.70150E+04
 -1.37736E+04 -6.76187E+04  4.21714E+04 -4.79388E+04  6.36292E+04 -1.35022E+03  3.65185E+04  3.74031E+04
 -6.15092E+03  4.13711E+04 -3.23127E+04  2.01556E+04 -3.60138E+04 -2.65233E+03 -2.11905E+04 -1.23593E+04
 -8.18485E+03 -1.66150E+04 -1.57357E+03 -2.14993E+04  8.72564E+03 -2.17360E+04  1.42979E+04 -1.50428E+04
  1.02257E+04  7.77512E+03 -1.19694E+04  1.24920E+04 -2.43408E+04 -6.71481E+03 -8.39361E+03 -3.81210E+04
  2.62599E+04 -4.95686E+04  5.37968E+04 -2.32387E+04  4.89467E+04  2.14082E+04  1.67699E+04  4.83219E+04
 -1.80617E+04  3.83245E+04 -2.87016E+04  1.96041E+03 -1.21054E+04 -2.90964E+04  2.25956E+04 -3.92155E+04
  4.64208E+04 -1.08798E+04  4.25572E+04  2.54830E+04  2.25182E+04  5.35828E+04 -7.22486E+03  5.69136E+04
 -3.64803E+04  3.92317E+04 -5.16653E+04  9.96069E+03 -5.05832E+04 -1.96987E+04 -2.75704E+04 -4.50431E+04
  9.28056E+03 -4.41803E+04  3.57507E+04 -1.97357E+04  3.15282E+04  1.13785E+04  5.43318E+03  2.11664E+04
 -1.54676E+04  1.01509E+04 -1.13542E+04 -7.92032E+03  5.06583E+03 -1.34990E+04  1.89165E+04  4.43004E+03
  1.74594E+04  2.32111E+04 -5.75544E+03  2.65504E+04 -2.40577E+04  1.52347E+04 -3.20230E+04 -2.23378E+03
 -2.67745E+04 -1.86939E+04 -1.37876E+04 -2.75948E+04  4.52832E+03 -2.87508E+04  2.35195E+04 -2.64036E+04
  3.42817E+04 -1.38234E+04  4.08510E+04  5.92999E+03  3.02875E+04  2.61733E+04  2.36341E+03  4.40794E+04
 -1.98095E+04  3.59184E+04 -3.29434E+04  1.26806E+04 -2.50186E+04 -9.66388E+03 -5.43365E+03 -1.10769E+04
  8.99588E+02 -1.54772E+03 -8.78804E+03  9.22902E+03 -2.37851E+04  5.53132E+03 -2.23865E+04 -1.11841E+04
 -1.30170E+04 -2.63014E+04  4.64890E+03 -2.95365E+04  2.11750E+04 -2.03801E+04  2.36540E+04 -2.57383E+03
  1.51818E+04  1.61089E+04 -2.54394E+03  2.63766E+04 -1.95044E+04  1.48974E+04 -2.33791E+04 -5.02100E+03
 -1.86617E+04 -2.27237E+04 -1.74104E+03 -2.92484E+04  1.35780E+04 -2.67603E+04  2.65523E+04 -1.33760E+04
  2.41724E+04  3.10944E+02  1.98755E+04  6.90272E+03  1.23324E+04  2.20042E+03  1.45882E+04 -2.70262E+03
  2.53494E+04  2.63594E+03  2.95944E+04  2.17195E+04  1.89870E+04  4.08678E+04 -3.32209E+03  4.85430E+04
 -2.78747E+04  4.39147E+04 -4.63965E+04  2.20385E+04 -4.97942E+04 -2.91111E+03 -4.00590E+04 -2.89681E+04
 -1.57733E+04 -4.27736E+04  1.42963E+04 -3.53870E+04  3.16077E+04 -1.76485E+04  2.39316E+04  8.86923E+03
  9.91750E+03  1.95684E+04 -1.30767E+04  1.84372E+04 -2.07741E+04  2.56595E+03 -1.58216E+04 -1.33761E+04
  8.64464E+02 -2.05854E+04  1.12942E+04 -1.51125E+04  1.38116E+04 -1.16319E+03  4.16198E+03  8.50323E+03
 -1.41681E+04  5.91954E+03 -1.18880E+04 -9.06365E+03 -2.55020E+03 -1.99014E+04  1.30296E+04 -2.39694E+04
  2.67750E+04 -1.43527E+04  3.12041E+04  3.45698E+03  2.71528E+04  2.10859E+04  1.21518E+04  3.45663E+04
 -6.90535E+03  3.72012E+04 -2.50284E+04  1.98514E+04 -2.55602E+04  4.53176E+03 -1.60881E+04 -7.47146E+03
 -7.22015E+03 -7.52472E+03 -4.50431E+02  1.58985E+03 -1.65013E+03  3.90960E+03 -8.81647E+03  6.78013E+03
 -1.74618E+04 -1.18802E+03 -1.77600E+04 -1.28240E+04 -6.43983E+03 -2.22075E+04  8.93313E+03 -1.87506E+04
  1.50962E+04 -8.32313E+03  1.07307E+04  4.45651E+03 -1.65839E+03  7.05323E+03 -8.61579E+03 -5.23567E+02
 -7.76242E+03 -1.26887E+04 -2.01723E+03 -1.65641E+04  1.07201E+04 -1.72210E+04  2.50292E+04 -1.09962E+04
  2.75724E+04  2.15376E+03  2.01486E+04  1.79151E+04  4.74749E+03  2.28693E+04 -9.84636E+03  1.83681E+04
 -1.52159E+04  5.27634E+03 -7.96730E+03 -3.22458E+03  1.75167E+03 -5.71078E+03  8.76453E+03 -3.68797E+02
  9.67638E+03  9.03774E+03  1.89813E+03  1.51033E+04 -1.25130E+04  1.55876E+04 -1.90447E+04  4.39612E+03
 -1.32096E+04 -1.01402E+04  3.81444E+02 -1.50339E+04  1.05327E+04 -6.71907E+03  1.05288E+04  4.93907E+03
  3.73809E+03  1.16057E+04 -9.30160E+03  1.46633E+04 -1.87806E+04  5.09359E+03 -1.64453E+04 -5.40763E+03
 -9.04953E+03 -1.97650E+04  5.75331E+03 -2.27569E+04  1.94825E+04 -1.36631E+04  2.00012E+04  4.08876E+03
  1.20672E+04  1.42941E+04 -2.10778E+03  1.97446E+04 -1.52798E+04  1.04614E+04 -1.45890E+04 -1.10659E+03
 -1.32510E+04 -1.31651E+04 -3.16261E+03 -1.59780E+04  7.91987E+03 -1.05985E+04  1.04881E+04 -4.41849E+03
  6.95901E+03  2.83674E+03 -1.48475E+03  7.49036E+02 -6.83703E+02 -5.49093E+03  5.17444E+03 -1.16298E+04
  1.26205E+04 -7.70292E+03  2.06942E+04  1.47797E+03  1.83066E+04  1.26532E+04  1.02178E+04  2.51393E+04
 -5.60094E+03  2.87254E+04 -2.50125E+04  2.38490E+04 -3.22997E+04  4.23218E+03 -2.47832E+04 -1.18241E+04
 -1.17772E+04 -2.07029E+04 -1.89739E+03 -1.78343E+04  6.52623E+03 -1.20070E+04  7.26666E+03 -5.38487E+03
  4.57924E+03 -4.84669E+03  4.04362E+03 -4.27606E+03  7.73114E+03 -3.60793E+03  9.77283E+03 -2.85264E+03
  1.27425E+04  2.54355E+03  8.10810E+03  1.29870E+04 -3.30813E+03  1.44031E+04 -1.45577E+04  1.17918E+04
 -1.91490E+04 -6.98982E+02 -1.31484E+04 -1.19320E+04 -1.10700E+03 -2.04455E+04  9.97896E+03 -1.89433E+04
  2.15707E+04 -1.10602E+04  2.59141E+04  3.00003E+03  1.66504E+04  1.75990E+04  1.32663E+03  2.29529E+04
 -1.03314E+04  1.61487E+04 -1.36964E+04  4.75859E+03 -9.34268E+03 -2.02425E+03 -4.34512E+03 -2.92799E+03
 -2.59795E+03  9.12164E+02 -2.13902E+03  2.54128E+03 -6.65160E+03  3.27333E+03 -1.30522E+04 -3.21902E+03
 -1.00423E+04 -1.42989E+04 -1.40655E+03 -1.94667E+04  1.16737E+04 -1.69772E+04  1.82764E+04 -4.87446E+03
  1.84563E+04  8.78469E+03  9.17456E+03  1.67546E+04 -3.57657E+03  1.92733E+04 -1.51990E+04  1.26795E+04
 -1.91927E+04  1.56359E+03 -1.31693E+04 -1.16060E+04 -2.91281E+03 -1.58313E+04  9.54194E+03 -1.16295E+04
  1.22119E+04 -3.07759E+03  7.59061E+03  3.25923E+03  4.56225E+03  4.47772E+03  2.33511E+03  2.04901E+03
  2.57801E+03  1.34948E+03  4.38025E+03  9.40437E+02  5.83591E+03  6.60194E+03  6.30205E+03  1.12750E+04
 -3.14715E+03  1.46166E+04 -1.39201E+04  1.61858E+04 -2.15127E+04  4.48568E+03 -2.05937E+04 -9.49674E+03
 -1.03108E+04 -1.87799E+04  4.00245E+03 -2.21386E+04  1.12886E+04 -1.39044E+04  1.70326E+04 -4.86838E+03
  1.16775E+04  8.45692E+03  1.59884E+03  1.14186E+04 -6.40736E+03  9.40577E+03 -8.14949E+03 -1.07939E+03
 -5.00827E+03 -9.25029E+03  5.66857E+03 -8.65228E+03  8.11153E+03 -4.87161E+03  6.32160E+03  2.42527E+03
  5.49896E+03  5.04556E+03  4.46123E+03  4.95344E+03 -1.80863E+03  2.28865E+03  3.31578E+03 -8.74726E+01
  3.50755E+03 -2.17376E+03  9.81716E+03  3.98099E+03  5.57382E+03  1.02017E+04 -1.18320E+03  1.34403E+04
 -1.04196E+04  1.05914E+04 -1.33098E+04  4.06828E+03 -1.33283E+04 -4.90797E+03 -3.58127E+03 -6.70031E+03
  2.74723E+03 -8.45972E+03  5.92091E+03 -2.69900E+03  3.66089E+03  2.92639E+03 -2.14699E+03  4.55373E+03
 -7.90653E+03  4.43582E+03 -8.16096E+03 -4.25235E+03 -4.47401E+03 -1.01051E+04  1.29850E+03 -1.18453E+04
  6.57595E+03 -6.73345E+03  9.51699E+03  4.39655E+02  7.60281E+03  4.34738E+03  2.10027E+02  5.48617E+03
 -3.56560E+03  3.83931E+03 -6.34992E+03 -5.31398E+03  2.84897E+03 -9.64626E+03  9.60174E+03 -6.33552E+03
  1.44494E+04  1.58684E+03  1.32547E+04  8.15621E+03  4.89457E+03  1.37463E+04 -5.21232E+03  1.21402E+04
 -1.05862E+04  7.18473E+03 -1.03748E+04 -2.34433E+03 -6.78834E+03 -8.54973E+03  1.67451E+03 -9.38697E+03
  9.17685E+03 -4.74480E+03  8.00185E+03  3.72705E+03  2.52037E+03  6.01891E+03 -2.86438E+03  5.27481E+03
 -4.71608E+03  4.88046E+03 -3.09202E+03 -8.76843E+02 -2.28709E+03  1.83775E+03 -2.10463E+03  3.50128E+03
 -2.48106E+03  4.80602E+03 -9.29706E+03  3.10685E+03 -1.43298E+04  1.22781E+03 -1.66197E+04 -9.64601E+03
 -9.05288E+03 -1.99644E+04  3.65871E+03 -2.07495E+04  1.29927E+04 -1.83629E+04  2.00287E+04 -7.75625E+03
  1.92292E+04  4.54285E+03  1.31857E+04  1.40945E+04  2.53578E+03  1.46344E+04 -7.65903E+03  1.04481E+04
 -8.70783E+03  3.34983E+03 -4.29117E+03 -1.73101E+03 -1.45768E+03 -1.35391E+03 -2.23666E+03  8.11115E+02
 -2.13710E+03  8.23619E+02 -3.01039E+03  6.00063E+00 -3.09117E+02 -5.37484E+03 -1.42158E+02 -4.40829E+03
  7.76893E+03 -4.02785E+03  1.03744E+04 -4.24145E+02  9.67789E+03  9.50239E+03  3.88870E+03  1.61169E+04
 -7.25248E+03  2.03991E+04 -1.91813E+04  9.39640E+03 -1.78304E+04  3.52102E+01 -1.24084E+04 -1.27011E+04
 -6.62517E+03 -1.60450E+04  3.37371E+03 -1.55299E+04  1.04632E+04 -7.64227E+03  1.13009E+04  7.97119E+01
  6.09081E+03  2.56709E+03 -7.38550E+02  4.06590E+03 -3.25955E+03 -1.25215E+03  1.36950E+03 -4.18913E+03
  4.68045E+03 -2.01110E+03  7.26633E+03  2.41506E+03  3.76514E+03  4.59087E+03  3.02128E+02  7.97513E+03
 -7.26104E+03  7.11708E+03 -9.41172E+03  3.20268E+02 -9.65655E+03 -8.61433E+03 -2.98815E+03 -1.35158E+04
  7.18822E+03 -1.06644E+04  1.32306E+04 -3.72221E+03  1.16615E+04  3.11700E+03  9.11243E+03  1.11843E+04
  1.13243E+02  1.15604E+04 -4.13900E+03  8.57958E+03 -6.38627E+03  5.33599E+03 -6.42726E+03  2.47436E+03
 -3.97934E+03 -6.07420E+02 -4.07992E+03  1.48118E+03 -6.03049E+03  1.27017E+03 -8.87687E+03 -1.60030E+03
 -7.99097E+03 -5.33212E+03 -2.65520E+03 -1.16126E+04  6.18090E+03 -1.22748E+04  9.07250E+03 -5.64788E+03
  8.45135E+03  2.41979E+03  4.94929E+03  5.67055E+03 -1.61811E+03  9.95001E+03 -7.42650E+03  7.86995E+03
