 $NMID ID='MM_0lb_SNR200_17hz_g40_4.RAW', FMTDAT='(8E13.5)'
 TRAMP=1., VOLUME=1. $END
  3.10784E+05  4.11913E+02  3.37117E+05  2.50422E+05  8.44882E+04  3.37948E+05 -1.31962E+05  2.50305E+05
 -1.90169E+05  8.18177E+04 -1.11627E+05 -3.34405E+04  1.76142E+03 -4.95959E+04  5.47393E+04  5.01059E+02
  3.45154E+04  5.17352E+04 -1.83521E+04  7.55165E+04 -6.09679E+04  6.40725E+04 -8.30482E+04  3.10343E+04
 -7.95221E+04 -9.68880E+03 -5.65671E+04 -4.96376E+04 -1.58018E+04 -6.91071E+04  2.70308E+04 -4.50083E+04
  3.86803E+04  4.42172E+03  1.57718E+04  4.61809E+04 -3.44559E+04  4.60968E+04 -6.51603E+04 -1.23816E+03
 -5.16268E+04 -5.72459E+04 -6.58624E+03 -7.50810E+04  3.26615E+04 -5.30524E+04  4.66598E+04 -1.56997E+04
  4.25476E+04  1.11671E+04  3.15406E+04  2.39395E+04  1.61786E+04  2.86514E+04 -4.98610E+03  2.71941E+04
 -2.19409E+04  1.26979E+04 -1.98022E+04 -4.29922E+03  4.48760E+03 -7.06209E+03  2.19521E+04  1.12043E+04
  6.59251E+03  3.36039E+04 -3.09621E+04  3.31737E+04 -6.07474E+04  2.84445E+03 -5.57487E+04 -4.11600E+04
 -1.29542E+04 -6.01835E+04  3.80951E+04 -4.38252E+04  5.68229E+04 -3.06646E+03  3.17821E+04  3.05300E+04
 -7.17246E+03  3.37782E+04 -2.80917E+04  1.37488E+04 -2.78938E+04 -3.97369E+03 -1.45790E+04 -1.12516E+04
 -7.17865E+03 -1.16727E+04 -9.86491E+02 -1.61485E+04  7.15135E+03 -2.30177E+04  1.46911E+04 -1.43196E+04
  1.20745E+04  4.24905E+03 -7.05177E+03  1.24014E+04 -1.96202E+04 -3.09405E+03 -7.18060E+03 -3.17207E+04
  2.14504E+04 -4.13351E+04  4.48160E+04 -1.88796E+04  4.29690E+04  1.76512E+04  1.34738E+04  4.07469E+04
 -1.49289E+04  3.12181E+04 -2.37239E+04  1.02850E+03 -8.10771E+03 -2.67210E+04  2.02010E+04 -3.20611E+04
  3.84428E+04 -7.16384E+03  3.19939E+04  2.20483E+04  1.63132E+04  4.21119E+04 -7.43857E+03  4.67007E+04
 -2.87838E+04  2.99370E+04 -3.77633E+04  8.40947E+03 -3.96427E+04 -1.51490E+04 -2.18072E+04 -3.40172E+04
  7.49483E+03 -3.48713E+04  2.87992E+04 -1.37830E+04  2.80688E+04  1.07741E+04  2.94697E+03  1.72253E+04
 -1.30793E+04  7.15541E+03 -9.60535E+03 -7.66348E+03  5.64003E+03 -1.02212E+04  1.87780E+04  6.40686E+03
  1.13420E+04  2.12867E+04 -6.65576E+03  2.26012E+04 -2.13016E+04  1.03139E+04 -2.41390E+04 -6.84178E+03
 -1.75360E+04 -1.67974E+04 -5.51071E+03 -1.90596E+04  4.20273E+03 -1.49508E+04  1.28531E+04 -1.37851E+04
  2.21775E+04 -1.10878E+04  2.90228E+04  1.39832E+03  2.15537E+04  1.66035E+04  4.16775E+03  3.19649E+04
 -1.67634E+04  2.78672E+04 -2.63794E+04  1.02812E+04 -1.98246E+04 -1.05927E+04 -3.90041E+03 -1.35250E+04
  2.28347E+03 -4.08168E+03 -2.12487E+03  4.76168E+03 -1.19586E+04  4.62124E+03 -1.36823E+04 -5.10896E+03
 -7.84373E+03 -1.71325E+04  3.75706E+03 -1.89223E+04  1.41900E+04 -1.43984E+04  1.53584E+04 -1.34072E+03
  9.47111E+03  1.11508E+04 -1.06123E+03  1.61521E+04 -1.04802E+04  8.99814E+03 -1.58160E+04 -1.95971E+03
 -1.27982E+04 -1.42423E+04 -4.11306E+02 -2.00605E+04  8.93455E+03 -1.52164E+04  1.73056E+04 -6.50813E+03
  1.60281E+04  2.52645E+02  1.08992E+04  4.40440E+03  5.95444E+03  7.10382E+02  8.74459E+03 -8.41861E+02
  1.36603E+04  2.96428E+03  1.68409E+04  1.28633E+04  9.98873E+03  2.57445E+04 -3.55597E+03  2.76889E+04
 -1.58452E+04  2.03102E+04 -2.44978E+04  1.01325E+04 -2.54802E+04 -2.13650E+03 -2.25857E+04 -1.43949E+04
 -1.00742E+04 -2.19506E+04  6.44220E+03 -2.02399E+04  1.67358E+04 -1.15396E+04  1.65518E+04  3.89238E+03
  5.95739E+03  1.15220E+04 -6.29953E+03  1.02131E+04 -1.40604E+04  2.48703E+03 -1.05870E+04 -8.08400E+03
 -9.55097E+02 -1.26206E+04  8.17154E+03 -9.94151E+03  7.91296E+03 -1.77614E+03  1.11312E+03  5.29100E+03
 -5.15741E+03  1.85957E+03 -4.32431E+03 -5.03689E+03  1.21003E+03 -1.07095E+04  9.05776E+03 -1.04848E+04
  1.43060E+04 -4.18857E+03  1.37431E+04  2.93513E+03  1.08961E+04  8.94908E+03  5.81530E+03  1.40699E+04
 -2.13149E+03  1.70386E+04 -9.97702E+03  1.09453E+04 -1.18941E+04  2.55649E+03 -1.00170E+04 -1.36200E+03
 -4.31555E+03 -2.65968E+03 -5.02327E+02  1.05174E+03 -2.06856E+03  2.44715E+03 -3.69474E+03  3.58666E+03
 -8.69507E+03 -1.07225E+02 -9.06774E+03 -7.81672E+03 -3.25667E+03 -1.26905E+04  4.41210E+03 -8.12864E+03
  6.70491E+03 -3.88913E+03  5.61029E+03  2.68808E+03  7.05529E+02  1.26219E+03 -3.02826E+03  1.18626E+03
 -4.84407E+03 -7.00512E+03 -4.84823E+02 -7.74106E+03  3.17500E+03 -9.51951E+03  1.07555E+04 -4.97931E+03
  1.25306E+04  2.98363E+02  9.12622E+03  6.53100E+03  1.13215E+03  8.64346E+03 -4.51394E+03  8.49651E+03
 -6.84252E+03  3.36145E+03 -3.54203E+03 -1.09688E+03  1.06190E+03 -2.34581E+03  4.97809E+03 -6.56541E+02
  4.85931E+03  4.01103E+03  7.62088E+02  6.73644E+03 -3.58742E+03  7.61760E+03 -7.58331E+03  2.48815E+03
 -5.90432E+03 -2.78356E+03  6.14354E+02 -6.93048E+03  5.17103E+03 -3.20148E+03  3.87869E+03  9.50539E+02
  7.98120E+02  2.32339E+03 -4.88823E+03  5.12159E+03 -4.93102E+03  3.88600E+03 -4.44303E+03 -1.28021E+03
 -3.45765E+03 -7.32070E+03  2.47522E+03 -7.68089E+03  6.00424E+03 -5.52270E+03  6.84812E+03  1.99889E+03
  5.03068E+03  5.56255E+03  5.80125E+02  8.19742E+03 -5.78307E+03  4.24458E+03 -5.01765E+03 -7.47330E+02
 -6.79740E+03 -5.19439E+03 -2.05514E+03 -5.37051E+03  3.96449E+03 -5.57237E+03  3.41911E+03 -3.41757E+03
  3.38556E+03 -3.88712E+02 -5.42520E+02  8.58797E+02  3.78846E+02 -1.55660E+03  6.81345E+02 -2.08099E+03
  3.63562E+03 -3.33492E+02  6.40750E+03  1.45868E+03  6.45526E+03  4.22655E+03  7.24418E+03  7.55075E+03
 -2.01907E+03  1.03751E+04 -8.17678E+03  7.65094E+03 -1.09664E+04  8.60329E+02 -8.08261E+03 -2.50112E+03
 -4.12680E+03 -7.39017E+03 -4.82143E+02 -5.05860E+03  2.89724E+03 -2.04086E+03  3.12857E+03 -2.93271E+03
  2.12247E+03 -1.53031E+03  3.01883E+03 -3.05655E+03  4.50820E+03 -1.61197E+03  3.86331E+03 -1.01395E+03
  5.24452E+03  9.29239E+02  1.96202E+03  4.04076E+03 -1.62783E+03  2.83702E+03 -4.80530E+03  2.91655E+03
 -5.30897E+03 -3.68655E+02 -1.79947E+03 -4.78168E+03  1.99416E+02 -6.20507E+03  3.19505E+03 -5.28604E+03
  5.50288E+03 -4.71311E+03  7.06058E+03  7.39438E+02  6.70653E+03  5.12837E+03  5.85480E+02  7.81830E+03
 -2.60163E+03  6.76474E+03 -5.02796E+03  1.68705E+03 -1.59632E+03 -1.26338E+03 -9.68624E+01  4.52271E+02
  6.03065E+02  1.06525E+03 -6.52261E+02  1.81035E+03 -4.21841E+03  1.79430E+03 -3.91362E+03  1.89726E+02
 -3.42735E+03 -3.81834E+03 -5.05820E+02 -5.02512E+03  3.39726E+03 -3.81097E+03  3.45491E+03 -1.38341E+03
  4.29492E+03  3.41645E+03  2.22815E+03  3.32578E+03 -3.33995E+02  4.98835E+03 -3.07867E+03  3.33330E+03
 -5.31607E+03  5.36776E+02 -4.49073E+03 -2.05846E+03 -9.98567E+02 -4.00932E+03  9.74359E+02 -1.93243E+03
  2.92914E+03 -1.86872E+03  2.39748E+03  2.46707E+02  1.33183E+03  1.01860E+03  1.10579E+03  6.65096E+02
  1.37475E+03  1.64263E+02  9.25715E+02  1.66938E+03  7.60499E+02  3.14565E+03  1.67828E+03  1.86488E+03
 -1.96197E+03  3.23839E+03 -3.63389E+03  4.57490E+03 -4.33081E+03  5.49929E+02 -5.30892E+03 -3.85818E+01
 -2.04264E+03 -3.70663E+03 -6.19212E+02 -5.58956E+03  2.81607E+03 -3.41184E+03  4.32499E+03 -1.38100E+03
  3.59851E+03  1.76465E+03  8.66014E+02  3.17765E+03 -1.39504E+03  2.10638E+03 -1.42095E+03 -9.21712E+02
 -3.43403E+02 -1.78109E+03  1.34113E+03 -9.63209E+02  1.62913E+03 -1.36470E+03  2.31006E+03  5.11041E+02
  5.07983E+02  1.40719E+02  9.07407E+02 -1.13122E+02 -2.29134E+02  3.22894E+02  1.23965E+03 -5.79113E+02
 -1.17966E+02 -8.77656E+02  2.29295E+03  1.18929E+02  9.85173E+02  1.82518E+03 -1.28809E+03  3.07678E+03
 -2.64856E+03  1.31296E+03 -3.06619E+03 -3.97777E+01 -2.04857E+03 -1.30898E+03  1.67302E+01 -1.00433E+03
 -5.47138E+01 -1.24643E+03  6.68745E+02 -1.94405E+02  1.47019E+03  2.92810E+03 -8.89475E+02  6.76990E+02
 -1.61930E+03  1.39203E+03 -1.81918E+03 -1.95893E+03 -1.14879E+03 -2.37598E+03  2.04727E+02 -1.74986E+03
  3.03526E+02 -1.68598E+03  9.02612E+02  2.66777E+02  8.90871E+02  6.36595E+02  1.00503E+02  2.26078E+03
 -5.49899E+02  2.92208E+02 -1.58822E+03  1.34737E+02  1.49086E+03 -1.12945E+03  2.15038E+03 -1.26625E+03
  1.75746E+03  9.58863E+02  2.76962E+03  1.25968E+03  4.98538E+01  1.98028E+03 -1.25389E+03  2.16966E+03
 -2.38299E+03  8.43109E+02 -2.17735E+03  2.05972E+01 -2.17042E+03 -2.00074E+03 -8.74988E+02 -1.25279E+03
  1.13874E+03 -9.00985E+02 -5.31146E+01  8.34824E+02 -1.52577E+02  2.84670E+03 -1.02279E+02  2.27164E+03
 -2.22592E+02  1.66455E+03 -1.55898E+02 -1.17911E+03  1.44089E+02  3.25769E+02 -4.93794E+02  5.96994E+01
  2.29630E+02  1.38447E+03 -2.10682E+03  6.15740E+02 -3.45306E+03  1.82413E+03 -2.94632E+03 -2.31039E+03
 -8.54495E+02 -2.05482E+03  8.63961E+02 -4.31861E+03  9.32001E+02 -2.92490E+03  3.54571E+03 -4.78592E+02
  3.40593E+03 -1.33148E+02  2.46962E+03  1.51730E+03  6.66288E+02  1.83232E+03 -3.21202E+02  1.37167E+03
 -1.02299E+03  1.17268E+03 -5.94322E+02 -2.98149E+02 -2.78269E+02  9.90923E+02 -4.18423E+02  2.00787E+02
 -7.88969E+02 -7.03424E+02 -1.35454E+03 -2.49536E+02  5.99148E+02 -8.21329E+02  1.35265E+02 -6.89078E+02
  2.11853E+03 -3.84109E+02  1.36509E+03 -7.29813E+01  1.13126E+03  1.05781E+03  1.98704E+02  1.54255E+03
 -1.32542E+03  2.41891E+03 -1.50148E+03  2.03714E+03 -2.43607E+03  7.85242E+01 -1.41411E+03 -2.48414E+03
 -4.26802E+02 -1.71057E+03 -9.48688E+01 -9.53910E+02  1.36400E+03 -6.10231E+02 -2.14868E+02 -1.21403E+03
  5.42856E+02  7.75825E+02  4.34353E+02  7.53720E+02 -2.12800E+02  3.46528E+02 -5.95330E+02  1.35810E+02
 -1.09840E+03  7.52550E+02 -7.65332E+01  3.74678E+02 -1.79046E+02  8.98750E+02  4.83552E+02 -1.31248E+03
 -8.54759E+02  5.11309E+02 -8.54799E+02  4.34525E+02 -6.65282E+02 -1.78221E+03  7.82542E+02 -1.63351E+03
 -3.31176E+02 -1.16719E+03  1.17544E+03 -7.34406E+01  5.93398E+02 -8.57714E+02  6.93876E+02  9.23848E+02
 -1.83862E+02  3.82746E+02 -1.85648E+02  6.03621E+02 -1.57186E+03  1.32421E+03  4.04680E+02  4.04730E+02
  1.88110E+02  1.31222E+02 -6.56795E+02  4.95870E+02 -1.67032E+03 -3.94819E+01 -1.42637E+03 -1.70004E+02
 -5.66587E+02  4.54135E+02 -5.33861E+02 -1.25425E+03  1.43169E+03 -1.86116E+03  1.28092E+03 -1.15988E+03
  6.17817E+02 -3.44742E+01 -2.87761E-02  3.71866E+02  4.54042E+02  1.95304E+03 -1.27458E+03  7.40594E+02
