 $NMID ID='MM_0lb_SNR200_16hz_g60_62.RAW', FMTDAT='(8E13.5)'
 TRAMP=1., VOLUME=1. $END
  3.10978E+05  1.12198E+03  3.37553E+05  2.50233E+05  8.55056E+04  3.38282E+05 -1.32914E+05  2.51370E+05
 -1.90793E+05  8.28209E+04 -1.12302E+05 -3.23002E+04  4.43260E+02 -5.08503E+04  5.42734E+04 -4.80376E+02
  3.54916E+04  5.31016E+04 -1.60180E+04  7.55468E+04 -6.10697E+04  6.21707E+04 -8.37962E+04  3.24001E+04
 -8.07449E+04 -1.12445E+04 -5.78230E+04 -5.08646E+04 -1.58167E+04 -7.15798E+04  2.72908E+04 -4.55024E+04
  4.01502E+04  3.67136E+03  1.74290E+04  4.77739E+04 -3.42486E+04  4.77770E+04 -6.74313E+04  1.13272E+03
 -5.31227E+04 -5.71149E+04 -6.21841E+03 -7.75097E+04  3.38912E+04 -5.48717E+04  4.76316E+04 -1.62641E+04
  4.40093E+04  1.14833E+04  3.18375E+04  2.55959E+04  1.52607E+04  2.89665E+04 -5.68625E+03  2.73870E+04
 -2.27891E+04  1.31335E+04 -1.83684E+04 -5.62045E+03  5.48997E+03 -6.97455E+03  2.24512E+04  1.28965E+04
  7.00857E+03  3.46629E+04 -3.20944E+04  3.48849E+04 -6.35097E+04  2.22095E+03 -5.69927E+04 -4.23630E+04
 -1.18037E+04 -6.32254E+04  3.88903E+04 -4.51893E+04  5.81203E+04 -3.08132E+03  3.40761E+04  3.35165E+04
 -5.74832E+03  3.53985E+04 -2.91736E+04  1.58363E+04 -3.00498E+04 -4.81993E+03 -1.72553E+04 -1.05780E+04
 -8.32222E+03 -1.33610E+04 -4.06476E+02 -1.79045E+04  7.36231E+03 -2.34490E+04  1.59687E+04 -1.32779E+04
  1.08982E+04  5.06805E+03 -7.51427E+03  1.36019E+04 -2.16620E+04 -3.68323E+03 -9.14892E+03 -3.44164E+04
  2.19014E+04 -4.41503E+04  4.92261E+04 -1.96976E+04  4.49868E+04  2.08972E+04  1.72069E+04  4.47179E+04
 -1.45868E+04  3.40552E+04 -2.62384E+04  2.31731E+03 -9.12824E+03 -2.91347E+04  2.13095E+04 -3.44878E+04
  4.08047E+04 -9.16412E+03  3.52048E+04  2.34036E+04  1.82657E+04  4.74310E+04 -7.74354E+03  4.98317E+04
 -3.13149E+04  3.37586E+04 -4.31895E+04  8.77269E+03 -4.27560E+04 -1.70847E+04 -2.43841E+04 -3.82815E+04
  7.60249E+03 -3.69493E+04  3.19764E+04 -1.47738E+04  2.90337E+04  1.13080E+04  4.11378E+03  1.90837E+04
 -1.33187E+04  8.46135E+03 -1.02193E+04 -7.79178E+03  5.98755E+03 -1.07125E+04  1.83820E+04  4.81324E+03
  1.30148E+04  2.21355E+04 -6.12998E+03  2.49449E+04 -2.35825E+04  1.13573E+04 -2.76373E+04 -4.73289E+03
 -2.18366E+04 -1.71076E+04 -8.15041E+03 -1.95364E+04  4.86510E+03 -1.88024E+04  1.55297E+04 -1.81726E+04
  2.61654E+04 -1.28370E+04  3.19784E+04  2.64242E+03  2.28668E+04  1.98624E+04  4.34766E+03  3.60959E+04
 -1.71169E+04  3.05430E+04 -2.76360E+04  1.15275E+04 -2.08514E+04 -9.88849E+03 -3.80948E+03 -1.25976E+04
  5.82193E+00 -2.36059E+03 -4.66261E+03  6.20023E+03 -1.47590E+04  4.93579E+03 -1.60096E+04 -7.72031E+03
 -9.31523E+03 -2.02895E+04  5.80106E+03 -2.33161E+04  1.55942E+04 -1.59051E+04  1.72807E+04 -7.08280E+02
  1.17392E+04  1.37701E+04 -9.44277E+02  1.84972E+04 -1.34551E+04  1.10536E+04 -1.84595E+04 -3.93284E+03
 -1.47218E+04 -1.71315E+04 -2.18749E+03 -2.24375E+04  1.03700E+04 -1.85711E+04  1.88936E+04 -9.59587E+03
  1.67677E+04  6.79817E+02  1.19692E+04  4.93730E+03  6.63260E+03  1.05448E+02  9.57613E+03 -1.84021E+02
  1.78566E+04  3.46511E+03  1.97511E+04  1.47892E+04  1.24284E+04  2.89658E+04 -3.03988E+03  3.23144E+04
 -2.06689E+04  2.67986E+04 -3.12649E+04  1.44009E+04 -3.20004E+04 -1.44122E+03 -2.69981E+04 -1.90092E+04
 -1.16577E+04 -2.54986E+04  8.75154E+03 -2.40227E+04  2.13460E+04 -1.33504E+04  1.88427E+04  4.23311E+03
  7.31062E+03  1.32627E+04 -9.23320E+03  1.26009E+04 -1.58173E+04  3.37724E+03 -1.30479E+04 -1.06531E+04
  1.25461E+02 -1.48847E+04  6.92941E+03 -1.12788E+04  1.06741E+04 -2.81343E+03  5.71566E+02  6.57997E+03
 -6.66549E+03  1.79550E+03 -4.82120E+03 -5.13679E+03 -8.73719E+02 -1.29016E+04  9.51255E+03 -1.30286E+04
  1.57612E+04 -6.37559E+03  1.63358E+04  3.18955E+03  1.39174E+04  1.21489E+04  7.62149E+03  1.81570E+04
 -4.51289E+03  2.01989E+04 -1.21004E+04  1.26443E+04 -1.45351E+04  3.11261E+03 -1.20315E+04 -1.84752E+03
 -5.19502E+03 -3.48758E+03 -1.25193E+02  3.33932E+02 -2.72510E+03  1.68600E+03 -4.79746E+03  3.11209E+03
 -8.49729E+03 -6.32827E+02 -1.15176E+04 -8.47416E+03 -4.82778E+03 -1.34886E+04  5.69668E+03 -9.64011E+03
  9.29651E+03 -4.80257E+03  7.36198E+03  2.92502E+03  5.49389E+01  4.06699E+03 -5.51083E+03 -8.61071E+02
 -5.65564E+03 -6.13733E+03 -1.07833E+03 -9.30768E+03  5.76690E+03 -1.06434E+04  1.29550E+04 -5.75914E+03
  1.48446E+04  2.22266E+03  1.13185E+04  7.89748E+03  2.97953E+03  1.23153E+04 -7.54461E+03  9.80846E+03
 -8.29101E+03  3.40101E+03 -4.88956E+03 -1.06514E+03  3.25016E+02 -3.32053E+03  5.43665E+03 -1.10491E+03
  6.14980E+03  4.67589E+03  1.11299E+03  8.20907E+03 -6.42406E+03  6.83111E+03 -1.02757E+04  2.67249E+03
 -6.34064E+03 -4.86471E+03  5.26244E+02 -8.58022E+03  4.35883E+03 -4.29803E+03  4.87688E+03  1.79415E+03
  3.65445E+02  4.49191E+03 -4.98721E+03  7.09527E+03 -7.34087E+03  3.83436E+03 -7.09990E+03 -2.25719E+03
 -3.93990E+03 -8.73769E+03  1.86797E+03 -1.06493E+04  9.44457E+03 -6.57149E+03  9.86990E+03  7.21645E+02
  5.84494E+03  7.62023E+03 -3.70254E+02  1.02228E+04 -6.89408E+03  4.53031E+03 -6.47901E+03 -5.80527E+02
 -7.01345E+03 -7.13360E+03 -9.01802E+02 -7.44163E+03  4.35923E+03 -4.90399E+03  4.07223E+03 -2.33565E+03
  3.92856E+03  9.63688E+02 -1.90834E+02  1.27743E+03  7.23669E+02 -7.74672E+02  1.06402E+03 -3.32072E+03
  5.62772E+03 -1.98018E+03  7.93453E+03  1.34244E+03  7.71200E+03  5.69560E+03  6.21964E+03  1.06655E+04
 -1.75248E+03  1.25089E+04 -1.14503E+04  1.02790E+04 -1.47575E+04  1.88112E+03 -1.06853E+04 -4.36119E+03
 -5.40286E+03 -9.45146E+03 -9.98524E+00 -8.21079E+03  2.79418E+03 -3.56452E+03  4.65565E+03 -3.58726E+03
  1.93781E+03 -1.71722E+03  2.67162E+03 -2.20977E+03  3.14351E+03 -5.24233E+02  3.40746E+03 -4.99420E+02
  6.02442E+03  1.28011E+03  2.30544E+03  4.11861E+03 -1.30562E+03  4.85941E+03 -6.09198E+03  3.54582E+03
 -8.38885E+03 -1.34427E+03 -4.44562E+03 -5.69007E+03  1.26933E+01 -7.30293E+03  4.26456E+03 -8.41898E+03
  6.04073E+03 -4.03442E+03  9.42421E+03  8.33818E+02  7.82386E+03  5.55705E+03  2.12945E+03  8.63967E+03
 -3.88429E+03  8.48426E+03 -5.14262E+03  2.71791E+03 -3.04917E+03 -1.78974E+03 -1.66979E+03 -1.48726E+03
 -1.05604E+02 -8.96439E+02 -9.66756E+02  2.22041E+03 -4.05889E+03  1.03430E+03 -6.05511E+03 -9.53289E+00
 -2.38290E+03 -5.23957E+03  2.85697E+02 -6.97122E+03  4.16452E+03 -6.15062E+03  4.15846E+03 -1.80728E+03
  5.25900E+03  3.28082E+03  2.99187E+03  5.85284E+03 -1.74685E+03  7.42567E+03 -4.62384E+03  4.28067E+03
 -6.15024E+03 -4.91754E+02 -4.69263E+03 -4.82247E+03 -4.86666E+02 -5.30344E+03  2.30335E+03 -4.25753E+03
  4.57482E+03 -1.60095E+03  2.01057E+03  1.41367E+03 -3.33880E+02  1.52403E+03  2.40535E+03  1.38506E+02
  9.34397E+02  9.77771E+02  1.91604E+03  1.79322E+03  1.10892E+03  3.34606E+03  2.03761E+03  2.77362E+03
 -6.80319E+02  5.00051E+03 -3.74642E+03  5.81025E+03 -5.59400E+03  5.31943E+02 -5.79784E+03 -4.21945E+02
 -2.69383E+03 -6.72430E+03  4.06738E+02 -8.78045E+03  3.67411E+03 -4.63048E+03  5.28529E+03 -1.45073E+02
  3.63101E+03  3.05594E+03  1.44511E+03  4.79988E+03 -6.99589E+02  2.40985E+03 -1.15199E+03 -7.38740E+02
 -1.87221E+03 -2.14325E+03  2.11183E+03 -2.31448E+03  1.57271E+03 -7.98401E+02  1.78210E+03 -1.40139E+02
  3.50126E+02  8.65241E+02  5.82131E+02  5.20970E+02  6.23173E+01  5.63020E+02  1.51434E+03  4.31341E+02
  1.24826E+03 -4.32365E+02  3.20949E+03  1.65428E+03  2.04745E+03  2.25824E+03 -1.26325E+03  3.79438E+03
 -3.15290E+03  2.84067E+03 -3.66498E+03 -1.17573E+02 -2.38641E+03 -1.36578E+03 -1.73085E+03 -1.85425E+03
  6.92657E+02 -2.78675E+03  1.63207E+03 -1.44672E+03  1.13480E+03  9.91989E+02 -1.08460E+03  2.64308E+03
 -2.15748E+03  1.85992E+03 -2.60385E+03 -1.93556E+03 -1.74270E+03 -2.99436E+03  1.65815E+02 -3.23424E+03
  2.16650E+03 -1.08973E+03  1.66744E+03  7.22540E+02  2.28202E+03 -3.76700E+02 -5.19531E+02  1.97640E+03
 -1.16843E+03  1.90081E+02 -2.52925E+02 -8.37367E+02  1.38487E+03 -2.03193E+03  3.26145E+03 -1.56436E+03
  1.87156E+03 -4.22209E+02  3.29923E+03  1.24103E+03  5.31741E+02  3.14544E+03 -1.39013E+03  3.33791E+03
 -2.98384E+03  1.60845E+03 -1.40565E+03 -8.73594E+01 -3.77330E+02 -1.04515E+03  2.13461E+02 -1.95098E+03
  1.63347E+03 -8.34635E+02  1.17634E+03  1.70092E+03 -3.20708E+02  2.00811E+03  7.15293E+01  1.30023E+03
 -1.97146E+03  8.69777E+02 -4.40295E+02  7.87194E+02 -5.28741E+02  6.90949E+02 -7.86025E+02  3.81085E+02
 -7.54371E+02  2.10984E+03 -1.79476E+03  6.42064E+02 -2.85848E+03 -1.05532E+02 -3.88136E+03 -2.29094E+03
 -2.59437E+02 -4.05307E+03  7.41143E+02 -5.12649E+03  3.39392E+03 -3.61692E+03  4.38076E+03 -1.99807E+03
  5.77782E+03 -3.03528E+02  1.76797E+03  1.43718E+03 -1.03522E+03  3.04241E+03 -1.17429E+03  3.09002E+03
 -1.54845E+03  8.98712E+02 -6.23558E+02  4.95820E+02 -3.46086E+02  8.80217E+01  2.69925E+01 -2.22840E+02
 -6.22731E+02 -4.54322E+01 -1.43364E+03 -8.07167E+02  6.46331E+02 -4.90302E+02 -9.36186E+01 -1.82548E+03
  2.06245E+03 -1.02895E+03  7.57137E+02  3.59269E+02  3.02780E+03  6.04592E+02 -3.08584E+02  3.43783E+03
 -1.72401E+03  3.85957E+03 -1.56920E+03  1.52971E+03 -2.83722E+03 -8.57592E+01 -1.28382E+03 -2.50031E+03
 -9.00149E+02 -2.28449E+03  8.21392E+02 -1.30111E+03  1.46916E+03  7.77819E+01  5.78084E+02  5.15653E+01
  6.53848E+02  1.45616E+03  3.39007E+01  1.09751E+03 -3.59668E+02 -6.52552E+02 -4.36271E+02 -1.01574E+03
  9.67422E+02  9.30439E+02  1.78664E+03  9.86077E+02  4.48780E+02 -2.16662E+02  2.80455E+02  2.70467E+02
 -1.11777E+03  1.43112E+03 -2.04966E+03  2.94071E+01 -1.57189E+03 -8.20203E+02  1.03679E+03 -1.46842E+03
  2.02488E+03 -7.04480E+02  1.74736E+03  5.75073E+02  1.92642E+03 -1.11153E+03  7.57852E+02  1.55978E+03
 -4.39759E+01 -1.24391E+02 -2.64894E+02  3.93655E+02  1.08542E+03  1.35273E+03 -5.98862E+02  3.95953E+02
 -8.44923E+02  7.85490E+02 -9.95195E+02  6.63480E+02 -9.92264E+02 -1.14084E+03 -2.04142E+03  6.55589E+01
 -1.24833E+03  4.23675E+01 -1.14678E+03 -1.82039E+03  1.16526E+03 -1.40624E+03  1.77354E+03 -1.36953E+03
  1.78490E+03 -8.83653E+01 -9.98119E+02  9.14623E+02 -5.38662E+02  1.19460E+03 -6.18504E+02  2.10052E+03
