 $NMID ID='MM_0lb_SNR200_11hz_g40_41.RAW', FMTDAT='(8E13.5)'
 TRAMP=1., VOLUME=1. $END
  3.08849E+05  4.37330E+02  3.37551E+05  2.51055E+05  8.54211E+04  3.38586E+05 -1.33075E+05  2.50737E+05
 -1.90873E+05  8.29351E+04 -1.11957E+05 -3.18623E+04  1.67218E+02 -5.06305E+04  5.38445E+04 -2.94275E+02
  3.60419E+04  5.17880E+04 -1.64906E+04  7.56003E+04 -6.14341E+04  6.42830E+04 -8.40214E+04  3.29824E+04
 -8.27485E+04 -1.10765E+04 -5.79057E+04 -5.17845E+04 -1.54212E+04 -7.08183E+04  2.70244E+04 -4.61908E+04
  4.04907E+04  4.14775E+03  1.67556E+04  4.70780E+04 -3.40762E+04  4.67230E+04 -6.74796E+04 -8.83651E+01
 -5.40464E+04 -5.85217E+04 -6.01579E+03 -7.72036E+04  3.50586E+04 -5.42347E+04  4.74277E+04 -1.73721E+04
  4.39581E+04  1.03895E+04  3.16049E+04  2.50112E+04  1.77507E+04  2.87354E+04 -5.84357E+03  2.63162E+04
 -2.23523E+04  1.10612E+04 -2.01339E+04 -7.16995E+03  6.17496E+03 -7.33513E+03  2.27214E+04  1.24377E+04
  6.82407E+03  3.70574E+04 -3.36104E+04  3.69528E+04 -6.46602E+04  3.22456E+03 -5.65674E+04 -4.31663E+04
 -1.13836E+04 -6.42598E+04  4.06883E+04 -4.73109E+04  5.97050E+04 -3.57751E+03  3.54972E+04  3.32318E+04
 -5.91111E+03  3.79301E+04 -3.08701E+04  1.60236E+04 -3.31157E+04 -3.78568E+03 -1.91695E+04 -1.27517E+04
 -9.17813E+03 -1.30059E+04 -1.79413E+02 -1.77417E+04  7.44860E+03 -2.37028E+04  1.58985E+04 -1.20850E+04
  1.20865E+04  5.15328E+03 -9.22327E+03  1.33052E+04 -2.22427E+04 -5.39567E+03 -8.74251E+03 -3.64699E+04
  2.29351E+04 -4.55749E+04  4.97814E+04 -2.16685E+04  4.53774E+04  2.12643E+04  1.69190E+04  4.38235E+04
 -1.72219E+04  3.36654E+04 -2.70712E+04  1.94178E+03 -1.18696E+04 -2.86267E+04  2.19210E+04 -3.54019E+04
  4.34846E+04 -1.03964E+04  3.80988E+04  2.32069E+04  1.86002E+04  4.80468E+04 -8.05332E+03  5.26955E+04
 -3.21470E+04  3.58428E+04 -4.39065E+04  1.00294E+04 -4.56969E+04 -1.76930E+04 -2.53529E+04 -3.96767E+04
  6.09396E+03 -3.90761E+04  3.25655E+04 -1.57276E+04  3.02945E+04  1.12044E+04  4.33575E+03  1.87866E+04
 -1.35042E+04  9.44375E+03 -1.07725E+04 -7.65605E+03  6.99687E+03 -1.17037E+04  1.88312E+04  6.87358E+03
  1.51448E+04  2.22915E+04 -4.94516E+03  2.58730E+04 -2.29821E+04  1.38707E+04 -2.98946E+04 -3.08756E+03
 -2.31768E+04 -1.57509E+04 -8.71654E+03 -2.30290E+04  3.65718E+03 -2.15919E+04  1.81768E+04 -1.90789E+04
  2.88966E+04 -1.38670E+04  3.60307E+04  4.01534E+03  2.51919E+04  2.09820E+04  3.39584E+03  3.73875E+04
 -1.83163E+04  3.18251E+04 -2.86831E+04  9.16183E+03 -2.28130E+04 -9.83263E+03 -5.21014E+03 -1.35553E+04
  2.27132E+03 -2.40274E+03 -6.01339E+03  7.77831E+03 -1.71953E+04  5.80943E+03 -1.66690E+04 -7.96487E+03
 -1.17666E+04 -2.08023E+04  5.98032E+03 -2.49710E+04  1.73477E+04 -1.80216E+04  2.08794E+04 -2.18862E+03
  1.23132E+04  1.36580E+04 -1.49111E+03  2.28740E+04 -1.42595E+04  1.35774E+04 -2.13451E+04 -3.71093E+03
 -1.55930E+04 -1.88716E+04 -2.44637E+03 -2.49489E+04  1.14294E+04 -2.03442E+04  2.02474E+04 -9.95906E+03
  1.97127E+04 -7.15658E+02  1.51820E+04  4.99694E+03  6.48460E+03  1.84501E+03  1.10141E+04 -1.34695E+03
  2.07368E+04  2.68518E+03  2.12759E+04  1.68723E+04  1.48641E+04  3.31949E+04 -2.24813E+03  3.85406E+04
 -2.24388E+04  3.17096E+04 -3.51707E+04  1.56414E+04 -3.73457E+04 -3.35680E+03 -3.03886E+04 -2.20200E+04
 -1.39355E+04 -3.18978E+04  1.14836E+04 -2.69379E+04  2.42558E+04 -1.36486E+04  2.10382E+04  5.35663E+03
  7.40498E+03  1.60643E+04 -9.64018E+03  1.30029E+04 -1.76416E+04  2.00549E+03 -1.39930E+04 -1.02314E+04
  9.28430E+02 -1.65988E+04  9.06416E+03 -1.21984E+04  1.16859E+04 -3.44530E+03  3.30944E+03  7.33134E+03
 -7.28695E+03  3.54508E+03 -6.22316E+03 -5.82786E+03 -6.45473E+02 -1.60408E+04  1.03221E+04 -1.63706E+04
  1.96071E+04 -8.36101E+03  2.26674E+04  1.67335E+03  1.85396E+04  1.49736E+04  9.00523E+03  2.56295E+04
 -5.75059E+03  2.56298E+04 -1.81877E+04  1.57725E+04 -1.80899E+04  3.86518E+03 -1.29282E+04 -4.20964E+03
 -7.18686E+03 -5.86980E+03 -1.12937E+03  4.96241E+02 -3.83496E+03  3.73642E+03 -6.89574E+03  4.47437E+03
 -1.24000E+04 -1.09363E+03 -1.31658E+04 -9.15195E+03 -5.02523E+03 -1.61388E+04  5.00007E+03 -1.40663E+04
  1.06089E+04 -5.94848E+03  9.16276E+03  4.54760E+03  2.61279E+02  5.08060E+03 -5.53414E+03 -1.50750E+03
 -5.33311E+03 -7.55794E+03 -5.91088E+02 -1.34666E+04  7.27140E+03 -1.21240E+04  1.48527E+04 -8.08561E+03
  1.85567E+04  2.33533E+03  1.49582E+04  1.18513E+04  2.47529E+03  1.58881E+04 -8.11260E+03  1.26407E+04
 -1.23081E+04  3.45681E+03 -4.61168E+03 -2.40846E+03  2.13903E+03 -3.67375E+03  6.17926E+03 -8.98268E+02
  6.29357E+03  6.91976E+03  1.06546E+03  1.04389E+04 -5.79257E+03  9.27664E+03 -1.27061E+04  2.66183E+03
 -8.78641E+03 -6.91633E+03  6.23754E+02 -1.11268E+04  7.23564E+03 -4.55499E+03  6.96585E+03  2.04847E+03
  2.15355E+03  7.30481E+03 -6.07656E+03  8.99567E+03 -1.02133E+04  5.26959E+03 -1.12154E+04 -4.52108E+03
 -6.21739E+03 -1.30174E+04  2.64223E+03 -1.42167E+04  1.11361E+04 -8.02788E+03  1.27736E+04  1.33093E+03
  7.85829E+03  9.99993E+03 -1.88227E+03  1.33040E+04 -8.24143E+03  8.19903E+03 -1.00856E+04 -7.49367E+02
 -8.92207E+03 -8.46044E+03 -7.78179E+02 -9.79176E+03  5.31811E+03 -8.63766E+03  6.19732E+03 -3.43530E+03
  4.76203E+03  3.15798E+02 -9.13532E+02  1.64749E+03 -1.99081E+03 -2.62226E+03  2.21445E+03 -5.90386E+03
  8.04783E+03 -3.89128E+03  1.22162E+04  4.95368E+02  1.24119E+04  8.60118E+03  8.35180E+03  1.56114E+04
 -3.87072E+03  1.95829E+04 -1.60920E+04  1.42570E+04 -1.91321E+04  3.63669E+03 -1.61224E+04 -7.21939E+03
 -8.17167E+03 -1.38355E+04 -2.28667E+02 -1.16143E+04  3.01249E+03 -5.98508E+03  3.88634E+03 -5.37050E+03
  2.25709E+03 -3.92672E+03  1.94925E+03 -3.66328E+03  6.35131E+03 -2.69746E+03  7.53421E+03 -5.87100E+02
  9.03082E+03  1.51400E+03  2.83618E+03  8.64511E+03 -1.96775E+03  8.35540E+03 -9.41659E+03  5.51714E+03
 -1.18523E+04 -2.28702E+03 -7.68480E+03 -8.17644E+03 -6.89013E+01 -1.28814E+04  6.41020E+03 -1.18664E+04
  1.21291E+04 -7.35315E+03  1.40285E+04  2.16866E+03  9.63051E+03  1.08160E+04  2.57531E+03  1.33603E+04
 -6.74562E+03  1.14175E+04 -8.29566E+03  4.03711E+03 -5.79394E+03 -4.59020E+02 -2.27672E+03 -2.75284E+03
 -6.00549E+02  7.76604E+02 -1.80795E+03  2.10740E+03 -4.72931E+03  3.01289E+03 -9.08050E+03 -8.68806E+02
 -4.78902E+03 -6.53153E+03  7.80362E+02 -1.16738E+04  6.10484E+03 -9.80199E+03  1.17427E+04 -3.08775E+03
  1.06923E+04  5.40396E+03  5.57329E+03  1.14553E+04 -1.15033E+03  1.02780E+04 -6.19724E+03  5.92181E+03
 -1.15925E+04  1.70910E+02 -7.04285E+03 -7.38544E+03 -3.67974E+02 -7.67741E+03  4.95664E+03 -5.14769E+03
  7.47686E+03 -2.05054E+03  5.36958E+03  1.71170E+03  2.33551E+03  2.79190E+03 -7.82138E+01  2.04130E+03
  1.60598E+03  1.04727E+03  3.41869E+03  1.74019E+03  1.72529E+03  4.37421E+03  3.94571E+03  5.59860E+03
 -2.81639E+03  7.12815E+03 -7.07699E+03  8.03169E+03 -1.08321E+04  3.09990E+03 -1.23614E+04 -3.82440E+03
 -5.11128E+03 -1.23900E+04  2.04504E+03 -1.19100E+04  4.97090E+03 -7.83481E+03  9.04936E+03 -1.45248E+03
  7.17229E+03  4.66011E+03  2.28436E+03  6.46822E+03 -3.03127E+03  4.70643E+03 -4.52190E+03 -6.42961E+02
 -2.56023E+03 -4.43040E+03  3.19599E+03 -4.70452E+03  4.71990E+03 -1.95895E+03  4.31644E+03  1.50779E+03
  3.05701E+03  2.00802E+03  2.00777E+03  6.47885E+02  4.55308E+02  1.30349E+03  7.19841E+02  8.02198E+01
  1.93076E+03 -1.10812E+03  4.72787E+03  2.47363E+03  3.63851E+03  5.81774E+03 -1.80152E+03  8.08964E+03
 -5.72161E+03  5.84087E+03 -7.18660E+03  1.74308E+03 -5.33135E+03 -1.78185E+03 -2.80352E+03 -4.97528E+03
 -9.73289E+02 -4.56946E+03  2.92823E+03 -2.94085E+03  2.25057E+03  2.76602E+03 -1.22559E+03  3.77757E+03
 -3.99364E+03  3.69502E+03 -4.10014E+03 -2.12020E+03 -3.14042E+03 -5.64096E+03  2.08930E+03 -6.25370E+03
  2.92158E+03 -3.27905E+03  4.39140E+03  8.15434E+01  3.97603E+03  9.71487E+02  3.87051E+02  2.40242E+03
 -1.95864E+03 -2.15799E+02 -1.92971E+03 -1.74883E+03  1.17607E+03 -3.21960E+03  5.24474E+03 -4.46030E+03
  6.71600E+03  5.69002E+02  7.59810E+03  3.81777E+03  2.28167E+03  7.35948E+03 -2.84841E+03  6.88415E+03
 -6.74418E+03  1.85043E+03 -6.22465E+03 -1.02514E+03 -2.27017E+03 -4.06845E+03  1.16631E+03 -4.39247E+03
  4.48270E+03 -2.82670E+03  3.65892E+03  1.63272E+03  1.86861E+03  3.97588E+03 -9.77582E+02  3.89212E+03
 -1.35865E+03  3.57589E+03 -4.67428E+02  6.37106E+02 -1.61124E+03  7.90197E+02 -8.42722E+02  1.01521E+03
 -2.24813E+03  3.24811E+03 -4.96744E+03  3.38262E+03 -7.86287E+03  8.00834E+02 -6.43719E+03 -3.84635E+03
 -3.46197E+03 -9.14394E+03  1.71760E+03 -9.85096E+03  6.25772E+03 -8.07834E+03  9.80378E+03 -4.12873E+03
  9.29983E+03  1.05781E+03  4.47897E+03  8.56341E+03  5.41770E+02  7.42057E+03 -2.26888E+03  4.85254E+03
 -3.99804E+03  3.21147E+03 -2.30684E+03 -9.24676E+02 -2.79983E+02 -2.63308E+03 -1.17805E+03  1.31412E+03
 -1.48718E+03  9.04336E+02 -2.44562E+03 -2.02484E+02 -2.79668E+02 -1.30813E+03  8.68779E+02 -2.63922E+03
  2.04473E+03 -1.61290E+03  4.54219E+03 -2.51198E+02  4.47925E+03  3.49473E+03  1.71779E+03  6.37295E+03
 -3.16290E+03  7.17987E+03 -6.10512E+03  5.05338E+03 -8.35178E+03 -9.27706E+02 -6.43457E+03 -4.83790E+03
 -3.08569E+03 -6.86269E+03  1.86422E+03 -5.78969E+03  3.59020E+03 -4.42968E+03  3.94784E+03  4.13980E+02
  2.80397E+03  3.00741E+03  4.83703E+02  1.69554E+03 -1.44956E+03 -3.49263E+02  2.95099E+02 -2.86222E+03
  2.00175E+03 -8.52564E+02  3.23204E+03  1.15494E+03  1.38523E+03  3.59929E+03 -9.37814E+02  3.33183E+03
 -3.97129E+03  3.62067E+03 -4.05264E+03 -3.50566E+02 -2.79622E+03 -2.26745E+03 -8.30726E+02 -5.55096E+03
  3.71743E+03 -4.60725E+03  4.10316E+03 -1.38527E+03  4.49519E+03  3.42217E+02  2.86744E+03  3.61912E+03
  1.56128E+03  4.24852E+03 -3.03894E+03  5.47065E+03 -1.27485E+03  1.77642E+03 -2.00336E+03 -2.50310E+02
 -1.08069E+03  7.99937E+02 -7.33200E+02 -1.18047E+03 -1.55955E+03  7.14683E+02 -3.10863E+03 -1.64572E+03
 -3.90098E+03 -1.53281E+03 -8.76290E+02 -3.30172E+03  1.95485E+03 -5.53593E+03  3.70534E+03 -2.54546E+03
  5.21497E+03  8.11468E+02  2.07314E+03  2.76531E+03  1.24352E+03  3.83917E+03 -3.25200E+03  2.91382E+03
