 $NMID ID='MM_0lb_SNR200_18hz_g40_87.RAW', FMTDAT='(8E13.5)'
 TRAMP=1., VOLUME=1. $END
  3.08740E+05  1.16974E+03  3.36159E+05  2.50762E+05  8.37645E+04  3.37326E+05 -1.32070E+05  2.50657E+05
 -1.90321E+05  8.25411E+04 -1.10439E+05 -3.41030E+04  1.83160E+03 -5.05059E+04  5.35509E+04 -5.34035E+02
  3.48737E+04  5.16012E+04 -1.72272E+04  7.52108E+04 -6.03073E+04  6.25038E+04 -8.18220E+04  3.19966E+04
 -7.89569E+04 -1.05041E+04 -5.66443E+04 -4.93257E+04 -1.43995E+04 -6.75849E+04  2.61376E+04 -4.52833E+04
  3.90861E+04  4.12991E+03  1.52084E+04  4.69030E+04 -3.53389E+04  4.62792E+04 -6.48277E+04 -1.01695E+03
 -5.12360E+04 -5.59990E+04 -6.55715E+03 -7.43654E+04  3.32620E+04 -5.19649E+04  4.68099E+04 -1.65590E+04
  4.10658E+04  1.19376E+04  3.04331E+04  2.47128E+04  1.56846E+04  2.89184E+04 -4.57912E+03  2.74968E+04
 -2.11376E+04  1.30820E+04 -1.92606E+04 -3.95073E+03  5.13920E+03 -7.31088E+03  2.08344E+04  1.11737E+04
  8.12191E+03  3.28618E+04 -3.11880E+04  3.30417E+04 -6.05321E+04  3.39653E+03 -5.51123E+04 -4.10526E+04
 -1.32763E+04 -6.13149E+04  3.88078E+04 -4.31900E+04  5.53180E+04 -2.34521E+03  3.22265E+04  3.00787E+04
 -6.93460E+03  3.31824E+04 -2.78751E+04  1.25216E+04 -2.71402E+04 -5.48005E+03 -1.44724E+04 -8.92353E+03
 -7.82431E+03 -1.15769E+04 -7.07665E+02 -1.73173E+04  6.98604E+03 -2.26228E+04  1.41043E+04 -1.46555E+04
  1.28110E+04  3.82050E+03 -5.54459E+03  1.32969E+04 -1.89353E+04 -2.69625E+03 -7.29280E+03 -3.09665E+04
  1.99681E+04 -3.98340E+04  4.30768E+04 -1.98760E+04  4.12231E+04  1.81130E+04  1.31764E+04  4.09464E+04
 -1.45647E+04  3.10886E+04 -2.24955E+04  1.64335E+03 -8.17635E+03 -2.56626E+04  1.97319E+04 -3.16108E+04
  3.76077E+04 -5.62611E+03  3.01956E+04  2.38616E+04  1.47350E+04  4.18506E+04 -8.19269E+03  4.46875E+04
 -2.81786E+04  2.94795E+04 -3.65306E+04  8.34695E+03 -3.79045E+04 -1.42977E+04 -2.13713E+04 -3.29027E+04
  7.50382E+03 -3.29615E+04  2.89715E+04 -1.24805E+04  2.65087E+04  9.46647E+03  3.04178E+03  1.71259E+04
 -1.24826E+04  7.55286E+03 -9.62679E+03 -7.21079E+03  6.10634E+03 -1.08507E+04  1.75307E+04  6.78644E+03
  1.26697E+04  2.17337E+04 -6.49286E+03  2.29728E+04 -2.12813E+04  8.45571E+03 -2.40211E+04 -6.43440E+03
 -1.66680E+04 -1.72423E+04 -5.11318E+03 -1.65237E+04  2.42145E+03 -1.39398E+04  1.15631E+04 -1.43755E+04
  2.06413E+04 -1.15821E+04  2.82153E+04  8.73353E+02  2.07332E+04  1.62917E+04  4.33375E+03  3.23798E+04
 -1.59371E+04  2.68171E+04 -2.64128E+04  9.18176E+03 -1.93661E+04 -1.00606E+04 -3.98375E+03 -1.42342E+04
  2.66449E+03 -3.51347E+03 -2.89164E+03  5.15846E+03 -1.25148E+04  5.20206E+03 -1.32804E+04 -6.28867E+03
 -6.80843E+03 -1.53285E+04  3.36526E+03 -1.84127E+04  1.31910E+04 -1.40385E+04  1.42344E+04 -2.26610E+03
  9.56964E+03  1.12080E+04 -7.22703E+02  1.55313E+04 -9.62604E+03  8.24121E+03 -1.45382E+04 -3.94837E+03
 -1.22493E+04 -1.36731E+04  6.39157E+00 -1.83036E+04  8.51244E+03 -1.50766E+04  1.69831E+04 -6.95744E+03
  1.40921E+04  5.14127E+02  9.97081E+03  3.16907E+03  5.46633E+03  1.09271E+03  8.61578E+03 -1.26402E+03
  1.39210E+04  1.86425E+03  1.50802E+04  1.29567E+04  9.89098E+03  2.50364E+04 -2.75649E+03  2.67612E+04
 -1.53207E+04  1.93525E+04 -2.31001E+04  8.82995E+03 -2.49873E+04 -9.64788E+02 -2.10631E+04 -1.36756E+04
 -9.92933E+03 -2.08017E+04  6.91256E+03 -1.94457E+04  1.58032E+04 -1.12870E+04  1.58160E+04  3.38169E+03
  6.59196E+03  1.14736E+04 -6.99574E+03  1.01858E+04 -1.40211E+04  1.53560E+03 -9.87341E+03 -7.77014E+03
 -8.39877E+02 -1.28028E+04  7.18657E+03 -9.38688E+03  8.71068E+03 -1.76202E+03  8.98280E+02  5.04128E+03
 -5.47323E+03  7.23530E+02 -4.17641E+03 -4.92117E+03 -2.69054E+02 -1.02279E+04  8.66295E+03 -9.75290E+03
  1.34929E+04 -3.30105E+03  1.24857E+04  4.21296E+03  1.07064E+04  1.03318E+04  5.44121E+03  1.41724E+04
 -1.41696E+03  1.54981E+04 -9.10213E+03  9.32346E+03 -1.04049E+04  2.88540E+03 -8.14414E+03 -2.24314E+03
 -4.23524E+03 -3.12750E+03 -2.38032E+02  1.47801E+03 -2.67258E+03  1.81201E+03 -2.07875E+03  2.39805E+03
 -8.08596E+03 -5.10728E+02 -8.78580E+03 -7.75706E+03 -4.67547E+03 -1.20726E+04  3.67432E+03 -8.43845E+03
  6.75345E+03 -3.84203E+03  4.52325E+03  1.89545E+03  2.38083E+03  3.68345E+03 -4.03505E+03 -2.32188E+02
 -4.91822E+03 -4.76566E+03 -1.46497E+03 -7.07037E+03  3.99240E+03 -8.80265E+03  9.76621E+03 -4.31309E+03
  1.14864E+04  6.31524E+02  8.57294E+03  4.95292E+03  1.23751E+03  8.43344E+03 -5.27776E+03  8.34547E+03
 -7.42016E+03  3.51203E+03 -3.35194E+03 -1.58995E+03  8.37852E+02 -2.75622E+03  4.74233E+03 -1.30935E+03
  3.75138E+03  3.43034E+03  1.06391E+03  5.51492E+03 -3.70083E+03  7.26408E+03 -7.56671E+03  1.13693E+03
 -4.64565E+03 -3.06133E+03  1.00479E+03 -6.60985E+03  3.49086E+03 -3.70769E+03  3.37512E+03  4.68100E+02
  7.21729E+02  3.06446E+03 -5.58882E+03  5.04188E+03 -4.90577E+03  2.03861E+03 -4.89915E+03 -1.40618E+03
 -2.80783E+03 -5.34346E+03 -1.54011E+02 -7.05971E+03  6.38641E+03 -4.51447E+03  6.09230E+03  1.20410E+03
  4.07949E+03  5.26917E+03  9.26157E+01  7.32067E+03 -5.54587E+03  4.49465E+03 -4.87471E+03  8.84359E+02
 -4.84618E+03 -4.63688E+03 -1.99526E+03 -5.50254E+03  1.41263E+03 -5.15005E+03  3.20301E+03 -2.49245E+03
  3.39217E+03  7.10000E+02  6.98715E+02  6.34625E+02  9.67516E+02 -2.74441E+02  2.94702E+02 -2.53515E+03
  3.49859E+03 -1.37559E+03  3.92097E+03  4.01093E+02  6.53112E+03  2.64545E+03  5.36226E+03  6.19262E+03
 -1.70506E+03  8.65234E+03 -7.42155E+03  6.33748E+03 -1.02764E+04  8.74691E+01 -7.28795E+03 -3.13789E+03
 -4.67023E+03 -6.76036E+03 -1.03848E+03 -4.29912E+03  1.93110E+03 -2.69349E+03  1.58793E+03 -3.23455E+03
  5.80526E+02 -2.25769E+03  3.58684E+03 -1.37045E+03  3.23723E+03 -1.35442E+03  3.07291E+03 -7.33012E+02
  4.44776E+03  1.44935E+03  1.25543E+03  3.92688E+03 -1.03736E+03  3.66310E+03 -4.94587E+03  1.88513E+03
 -4.85625E+03 -1.57269E+03 -1.90751E+03 -4.39993E+03  3.52496E+02 -4.98187E+03  3.52106E+03 -5.57350E+03
  4.74558E+03 -3.89840E+03  7.30962E+03  2.69804E+02  5.02798E+03  3.85258E+03  2.86675E+03  6.56294E+03
 -3.28005E+03  5.73852E+03 -3.07682E+03  1.61352E+03 -9.33353E+02 -1.26229E+03  5.00751E+02 -1.28885E+03
  3.23070E+02 -5.51256E+02 -1.64203E+03  2.07745E+03 -1.73811E+03  8.64838E+02 -3.46860E+03 -1.32015E+03
 -2.15311E+03 -3.93683E+03  8.49877E+02 -4.66895E+03  2.74157E+03 -5.14041E+03  3.73976E+03 -2.09698E+03
  3.72926E+03  3.47533E+03  2.17246E+03  3.23817E+03 -1.48499E+03  4.94957E+03 -3.17226E+03  2.28696E+03
 -3.59588E+03  3.12263E+01 -3.92818E+03 -2.15601E+03  6.71010E+01 -3.75892E+03  1.52292E+03 -3.97958E+03
  2.93636E+03 -1.89873E+03  1.35664E+03  4.62946E+02  6.92645E+02  1.59166E+03  1.33150E+03 -1.87929E+02
  2.12518E+03  1.05030E+03  4.85058E+02  1.79941E+03  8.61800E+01  1.51141E+03  2.24133E+03  1.53482E+03
 -1.79301E+03  3.06426E+03 -2.47448E+03  3.71665E+03 -3.92345E+03  1.52577E+03 -5.53597E+03 -4.65784E+01
 -1.52925E+03 -3.80574E+03  4.09864E+02 -3.06887E+03  1.70470E+03 -3.26209E+03  3.84774E+03  2.05860E+02
  2.26764E+03  2.84430E+03 -3.86291E+01  1.35565E+03 -7.52744E+02  1.09993E+03 -1.23721E+03  3.64417E+02
  3.51816E+02 -1.21886E+03  1.31039E+03 -2.75156E+03  1.64662E+03 -4.80609E+02  9.32883E+02  5.34387E+02
  1.51459E+03  6.69686E+02  1.46583E+02  6.82397E+02 -2.88590E+02  2.70672E+02  1.53679E+03 -5.20268E+02
 -8.31907E+01  2.89153E+02  2.06083E+03  6.81789E+02 -2.83244E+02  1.71772E+03  6.73723E+01  2.38011E+03
 -1.63666E+03  1.30534E+03 -1.64358E+03 -5.83322E+00 -2.24622E+03 -5.57832E+02 -2.90058E+02 -7.48778E+02
  5.72220E+02 -2.03205E+03  3.72489E+02  1.35403E+02  4.76650E+02  1.35726E+03 -1.19918E+03  6.93229E+02
 -4.40733E+02  9.38413E+02 -1.51120E+03 -8.09473E+02 -1.22986E+03 -1.89465E+03 -7.41638E+02 -2.02219E+03
  1.03812E+03  3.62217E+02  1.42239E+03  1.06196E+03  1.83220E+03 -4.78908E+02  7.45617E+02  7.18537E+02
 -5.04081E+02  8.90416E+02 -1.29368E+03 -4.98548E+02  1.06435E+03 -1.28607E+03  2.34980E+03 -9.31358E+02
  9.97318E+02 -4.34958E+02  2.30904E+03  1.17493E+03  2.10377E+02  9.37036E+02  1.77291E+02  1.75959E+03
 -1.31553E+03 -2.00961E+01 -1.76410E+03 -3.78232E+01 -1.01695E+03 -1.45234E+03 -8.38603E+02 -9.77417E+02
  2.11533E+03 -1.08302E+03  1.16648E+03  1.21413E+02  2.07923E+02  1.40197E+03 -1.31555E+02  5.68849E+02
 -3.53650E+02  8.53535E+02 -1.17247E+03 -3.28747E+02 -9.36563E+02  1.92713E+02 -9.48854E+02 -4.47685E+02
 -1.28723E+03  1.14465E+03 -2.00274E+03  1.08588E+03 -2.37484E+03  4.79973E+02 -2.94683E+03 -1.76807E+03
 -1.01826E+03 -2.98445E+03  8.78881E+02 -2.94824E+03  1.25046E+03 -2.33229E+03  3.08297E+03 -4.58125E+02
  1.95329E+03  1.02527E+02  6.54891E+02  1.76530E+03 -6.21005E+02  1.53114E+03 -8.13148E+02  1.41365E+03
 -1.11745E+03  8.98114E+02  4.04744E+02 -7.57357E+02 -9.56789E+02  6.64798E+01 -4.64289E+02 -4.17122E+02
 -1.03006E+03  4.31933E+02 -2.13048E+03  5.97692E+01  4.75065E+02 -4.84276E+02 -5.28657E+02 -9.72353E+02
  1.20861E+03 -1.50688E+03  4.67073E+02  3.22725E+02  1.54756E+03  8.76937E+02 -6.59094E+02  1.12981E+03
 -9.95083E+02  1.83429E+03 -1.02618E+03  1.14531E+02 -1.44413E+03  1.11423E+02 -2.12667E+03 -2.04477E+03
  2.61134E+02 -1.92704E+03 -2.40949E+02 -2.67626E+03  5.90719E+02 -7.94499E+02  6.66395E+02 -3.53586E+01
  2.94178E+02  2.32114E+02 -1.71278E+02  9.43326E+02 -8.69197E+02 -5.12031E+02 -7.31413E+02 -6.38989E+02
  9.58042E+01  3.31659E+02  6.77727E+02  1.66816E+03  6.57785E+02  1.07275E+03  4.60461E+02  7.10129E+02
  4.48732E+02  1.38880E+03 -7.76439E+02 -1.50799E+02 -1.77845E+03 -1.57776E+03 -1.19513E+02 -1.19984E+03
  5.15025E+02 -1.28457E+03  1.90703E+02  4.89994E+02  1.62114E+03  2.37470E+02  1.18937E+03  6.89725E+02
  1.50193E+02  8.57692E+02 -1.50750E+02  6.68197E+02 -2.17947E+02  6.99719E+02 -1.03986E+03  2.26138E+02
  1.28692E+02 -6.81846E+02 -1.65487E+03  1.20398E+03 -9.57120E+02 -7.14874E+02 -2.91799E+02  1.67972E+02
 -9.53934E+02  2.07677E+02 -8.97115E+02 -3.13014E+02  8.00124E+02 -1.56808E+03  1.30823E+03  6.82687E+02
  1.83629E+03 -4.56920E+02 -2.85994E+00 -3.24680E+02 -1.76320E+01  1.17231E+03 -3.19992E+02  9.77770E+02
