 $NMID ID='MM_0lb_SNR200_13hz_g45_31.RAW', FMTDAT='(8E13.5)'
 TRAMP=1., VOLUME=1. $END
  3.09039E+05  2.69548E+02  3.37944E+05  2.49789E+05  8.51543E+04  3.37207E+05 -1.32833E+05  2.52198E+05
 -1.89631E+05  8.24121E+04 -1.11535E+05 -3.23448E+04  1.68045E+03 -5.05371E+04  5.40233E+04 -9.35213E+02
  3.53734E+04  5.24308E+04 -1.83162E+04  7.52700E+04 -5.99296E+04  6.28769E+04 -8.42306E+04  3.21728E+04
 -8.09735E+04 -1.24287E+04 -5.81484E+04 -5.18942E+04 -1.53186E+04 -7.06412E+04  2.65170E+04 -4.60295E+04
  4.06140E+04  3.16286E+03  1.63047E+04  4.82818E+04 -3.49446E+04  4.79287E+04 -6.68504E+04  4.76153E+02
 -5.26007E+04 -5.69112E+04 -6.96211E+03 -7.61278E+04  3.50479E+04 -5.46943E+04  4.80011E+04 -1.62614E+04
  4.41034E+04  1.18078E+04  3.19399E+04  2.70917E+04  1.61985E+04  2.95533E+04 -4.52297E+03  2.69824E+04
 -2.22881E+04  1.20134E+04 -1.98273E+04 -6.33626E+03  7.12949E+03 -8.15870E+03  2.20963E+04  1.09159E+04
  7.77054E+03  3.53937E+04 -3.16488E+04  3.59171E+04 -6.34671E+04  1.42126E+03 -5.72910E+04 -4.30956E+04
 -1.25487E+04 -6.42997E+04  3.89407E+04 -4.73660E+04  5.84108E+04 -3.50257E+03  3.49706E+04  3.27436E+04
 -5.79711E+03  3.64472E+04 -3.06847E+04  1.68573E+04 -2.99002E+04 -3.85625E+03 -1.55981E+04 -1.19454E+04
 -8.30804E+03 -1.27958E+04  2.88153E+02 -1.69316E+04  7.64499E+03 -2.36687E+04  1.48533E+04 -1.30885E+04
  1.05066E+04  6.57860E+03 -6.46077E+03  1.20398E+04 -2.18500E+04 -4.81252E+03 -8.40834E+03 -3.37608E+04
  2.30482E+04 -4.38858E+04  4.93321E+04 -2.01271E+04  4.48825E+04  1.82896E+04  1.63069E+04  4.38017E+04
 -1.63176E+04  3.39326E+04 -2.57703E+04  2.71944E+03 -9.91428E+03 -2.70397E+04  2.13608E+04 -3.47360E+04
  4.06059E+04 -8.50278E+03  3.64340E+04  2.45446E+04  1.76097E+04  4.64274E+04 -8.21027E+03  4.98854E+04
 -3.21450E+04  3.38385E+04 -4.30064E+04  9.63398E+03 -4.31628E+04 -1.65925E+04 -2.32105E+04 -3.89348E+04
  6.57448E+03 -3.96657E+04  3.13220E+04 -1.43585E+04  2.89966E+04  1.10343E+04  4.28506E+03  1.97484E+04
 -1.27955E+04  7.92445E+03 -9.99258E+03 -7.36356E+03  5.05603E+03 -1.24255E+04  1.93120E+04  5.83404E+03
  1.32159E+04  2.27452E+04 -7.84365E+03  2.56329E+04 -2.37552E+04  1.10850E+04 -2.80605E+04 -4.86290E+03
 -2.08039E+04 -1.78525E+04 -8.65506E+03 -2.04938E+04  3.50282E+03 -2.08683E+04  1.48736E+04 -1.93304E+04
  2.67814E+04 -1.33194E+04  3.24966E+04  3.06332E+03  2.42185E+04  2.08116E+04  4.90362E+03  3.74356E+04
 -1.84968E+04  2.98701E+04 -2.63078E+04  8.73837E+03 -2.13115E+04 -1.02968E+04 -4.30420E+03 -1.34621E+04
  2.30340E+03 -4.38581E+03 -4.22284E+03  6.68119E+03 -1.52911E+04  5.20319E+03 -1.77055E+04 -8.05197E+03
 -1.01994E+04 -2.00756E+04  4.76628E+03 -2.42765E+04  1.48596E+04 -1.78866E+04  1.87941E+04  3.40991E+02
  1.18467E+04  1.33505E+04 -1.65217E+03  1.97895E+04 -1.48344E+04  1.11184E+04 -1.91998E+04 -3.77682E+03
 -1.40735E+04 -1.78351E+04 -2.76963E+03 -2.34385E+04  1.11185E+04 -1.89998E+04  1.84102E+04 -9.07671E+03
  1.82128E+04  5.90298E+02  1.34795E+04  3.97449E+03  6.06216E+03 -3.22282E+02  8.77789E+03 -1.44127E+03
  1.90494E+04  2.78294E+03  2.04164E+04  1.47787E+04  1.27267E+04  3.10723E+04 -3.04362E+03  3.60660E+04
 -2.05153E+04  2.78598E+04 -3.36157E+04  1.44994E+04 -3.40962E+04 -2.45787E+03 -3.06289E+04 -2.04407E+04
 -1.31139E+04 -2.99451E+04  9.86251E+03 -2.60382E+04  2.19854E+04 -1.27133E+04  1.99214E+04  7.20429E+03
  7.55639E+03  1.47357E+04 -9.66299E+03  1.30332E+04 -1.76957E+04  1.98189E+03 -1.25904E+04 -1.02106E+04
 -3.49441E+02 -1.56868E+04  8.31647E+03 -1.12105E+04  9.73909E+03 -6.40010E+02  2.39637E+03  8.09401E+03
 -6.46922E+03  2.76490E+03 -6.75317E+03 -6.31474E+03 -7.84689E+02 -1.47095E+04  1.00645E+04 -1.50378E+04
  1.63284E+04 -8.11270E+03  1.77978E+04  2.70561E+03  1.65332E+04  1.38838E+04  8.16777E+03  2.06118E+04
 -3.25997E+03  2.34872E+04 -1.41796E+04  1.42017E+04 -1.72519E+04  4.87196E+03 -1.04502E+04 -2.77674E+03
 -5.18237E+03 -5.29422E+03 -2.00858E+03  9.28291E+02 -1.08807E+03  3.54153E+03 -6.21629E+03  4.51932E+03
 -1.06202E+04 -7.58518E+02 -1.15338E+04 -9.35915E+03 -4.15227E+03 -1.44658E+04  4.19979E+03 -1.21441E+04
  9.66948E+03 -5.31727E+03  8.15949E+03  3.58854E+03 -2.21110E+02  3.88748E+03 -5.85194E+03 -1.49259E+02
 -5.02956E+03 -6.58998E+03 -1.74710E+03 -1.10071E+04  5.07835E+03 -1.22380E+04  1.31741E+04 -7.19038E+03
  1.76034E+04  8.92147E+02  1.35983E+04  9.41574E+03  2.27826E+03  1.34922E+04 -6.62176E+03  1.13761E+04
 -8.89173E+03  2.67863E+03 -4.83768E+03 -2.13460E+03  2.54443E+03 -3.45370E+03  6.26142E+03 -1.33053E+03
  4.92505E+03  5.03602E+03  1.60160E+03  9.34112E+03 -6.42980E+03  6.75620E+03 -1.13038E+04  2.10060E+03
 -7.22730E+03 -4.96991E+03  3.37609E+02 -8.53762E+03  5.58048E+03 -4.17570E+03  5.92029E+03  1.96811E+03
  1.14665E+03  7.33064E+03 -4.77252E+03  7.57459E+03 -9.76776E+03  2.19324E+03 -8.98395E+03 -3.05443E+03
 -5.45573E+03 -1.03981E+04  2.14619E+03 -1.13963E+04  1.00680E+04 -6.41006E+03  1.09548E+04  1.50496E+03
  7.24241E+03  8.94943E+03 -1.55551E+03  1.14245E+04 -7.40959E+03  7.06536E+03 -9.04158E+03 -2.10844E+03
 -7.66300E+03 -7.14142E+03 -5.30944E+01 -9.90339E+03  4.15207E+03 -6.50366E+03  3.07547E+03 -3.23694E+03
  5.44251E+03  5.11278E+02 -1.23046E+03  2.39763E+03  9.27648E+01 -1.58248E+03 -8.47033E+02 -4.03580E+03
  7.62062E+03 -2.52421E+03  9.21000E+03  1.92523E+03  1.10504E+04  5.56205E+03  7.71185E+03  1.39450E+04
 -2.18321E+03  1.52734E+04 -1.38155E+04  1.15312E+04 -1.74751E+04  3.21318E+03 -1.45820E+04 -5.37028E+03
 -7.57265E+03 -1.05432E+04 -8.49125E+02 -9.07787E+03  3.18675E+03 -7.05562E+03  4.23726E+03 -3.51755E+03
  1.50408E+03 -1.48056E+03  2.87548E+03 -2.96663E+03  3.96127E+03 -2.92623E+03  6.24501E+03 -7.04966E+02
  7.14103E+03  2.30311E+03  3.34414E+03  5.28400E+03 -3.13991E+03  6.12505E+03 -7.09913E+03  4.73137E+03
 -8.43456E+03 -1.72296E+03 -5.30158E+03 -6.16559E+03 -9.13328E+02 -8.66761E+03  6.51967E+03 -9.86773E+03
  1.09440E+04 -5.09741E+03  1.23735E+04  2.36236E+03  8.78513E+03  9.05823E+03  9.03531E+02  1.01114E+04
 -3.96362E+03  8.09748E+03 -6.00528E+03  2.53205E+03 -2.82637E+03 -1.25513E+03 -2.49453E+03  1.58385E+01
 -4.94011E+02  5.92668E+02 -1.50493E+03  2.74072E+03 -4.50981E+03  8.22384E+02 -6.79737E+03 -1.22562E+03
 -3.85590E+03 -5.57531E+03  1.52746E+02 -9.68720E+03  4.85275E+03 -8.47759E+03  8.82420E+03 -1.91414E+03
  8.89895E+03  5.20402E+03  4.14693E+03  8.24709E+03 -1.91531E+03  8.53210E+03 -6.51335E+03  5.02077E+03
 -7.83212E+03 -6.56421E+02 -6.55859E+03 -5.68935E+03 -1.58139E+01 -6.07181E+03  4.46943E+03 -5.60447E+03
  6.99795E+03 -2.60053E+03  2.52868E+03  1.23858E+03  2.61314E+03  3.55763E+03  3.64804E+01  1.94990E+03
  2.48212E+03  6.64538E+02  1.09726E+03  2.88119E+03  2.76081E+03  3.58708E+03  3.48102E+03  4.21260E+03
 -2.72543E+03  6.53593E+03 -5.63777E+03  6.52325E+03 -9.00166E+03  2.30659E+03 -9.18403E+03 -2.52371E+03
 -4.72733E+03 -8.15424E+03  1.31715E+03 -8.76282E+03  4.38612E+03 -6.21602E+03  7.18641E+03  1.96327E+02
  3.92566E+03  3.09589E+03  5.85515E+02  5.84406E+03 -1.84829E+03  3.25923E+03 -4.04275E+03  3.34454E+02
 -3.53819E+02 -3.78166E+03  2.15003E+03 -3.01981E+03  3.21840E+03 -1.82450E+03  4.04580E+03  3.73629E+02
  1.72376E+03  1.85395E+03  1.91576E+03  1.48411E+03 -1.68117E+03 -3.78186E+02  7.33143E+02 -1.51498E+03
  1.49562E+03 -6.96324E+00  3.92112E+03  2.22092E+03  2.82545E+03  5.39204E+03 -1.85690E+03  6.05430E+03
 -2.97404E+03  2.80402E+03 -4.92079E+03  2.42774E+02 -5.01860E+03 -1.91644E+03 -1.10652E+03 -3.09412E+03
 -8.41193E+02 -2.89094E+03  1.99128E+03 -1.36369E+03  1.01274E+03  1.60351E+03 -1.01455E+03  3.04269E+03
 -3.27950E+03  2.26346E+03 -3.84538E+03 -1.65798E+03 -2.87053E+03 -4.08486E+03  1.37798E+03 -4.20629E+03
  2.69362E+03 -2.91667E+03  2.36838E+03  9.61139E+00  2.33854E+03  1.20103E+03 -4.13713E+01  3.02836E+03
 -8.54431E+02 -2.48187E+02 -1.97436E+03 -5.88914E+02  1.82004E+03 -3.24892E+03  3.54266E+03 -2.55947E+03
  5.15281E+03  1.18615E+03  5.73024E+03  3.63116E+03  1.99273E+03  4.90046E+03 -1.92544E+03  4.62751E+03
 -4.07619E+03  2.26099E+03 -4.73029E+03 -6.91085E+01 -2.17315E+03 -3.93134E+03  5.85642E+02 -3.02832E+03
  4.71172E+03 -2.48503E+03  2.50507E+03  1.76364E+02  1.08877E+03  3.12203E+03  2.06572E+02  3.73990E+03
 -5.37207E+02  1.78862E+03 -2.04787E+03  1.08002E+03 -3.91785E+02  1.52650E+03 -1.33949E+03  9.11451E+02
 -1.59060E+03  1.60514E+03 -3.31715E+03  1.92228E+03 -5.17295E+03  5.41432E+02 -6.07347E+03 -2.91452E+03
 -1.78521E+03 -7.06344E+03  1.09005E+03 -8.01745E+03  4.28781E+03 -6.48674E+03  6.31749E+03 -2.21497E+03
  6.66082E+03  8.12352E+02  4.64380E+03  2.53622E+03 -9.37317E+02  5.90429E+03 -2.62149E+03  3.90325E+03
 -2.63015E+03 -2.82751E+01 -1.45957E+03 -2.75127E+02 -4.48739E+02 -3.53806E+02  1.22582E+02 -7.59562E+02
 -8.27696E+02  2.98011E+02 -1.67142E+03 -6.22217E+02 -2.11839E+02 -1.61053E+03  7.72147E+02 -9.57674E+02
  2.43567E+03 -4.11905E+02  2.22722E+03 -8.71278E+01  4.41249E+03  2.92957E+03  6.30909E+02  5.28902E+03
 -2.44351E+03  4.81897E+03 -5.51865E+03  3.88333E+03 -4.36803E+03 -7.38544E+02 -4.58056E+03 -3.84779E+03
 -2.42044E+03 -4.95678E+03  1.36528E+03 -3.92552E+03  1.71596E+03 -2.22117E+03  2.26848E+03 -1.66693E+02
  3.74204E+03 -3.29344E+02 -7.16278E+02  2.52109E+03 -1.17896E+03  4.38828E+02 -7.03489E+02 -9.02558E+02
  1.30692E+03 -7.46036E+01  1.56080E+03  2.26226E+03  7.04344E+02  2.91482E+03  1.16970E+03  1.51961E+03
 -2.56431E+03  1.31553E+03 -2.69848E+03  6.69015E+01 -2.91653E+03 -2.36788E+03 -6.69850E+02 -4.11036E+03
  2.53219E+03 -2.71756E+03  3.58116E+03 -1.41042E+03  4.01135E+03  5.35883E+02  1.17065E+03  3.11912E+03
  1.16799E+03  3.32977E+03 -1.54591E+03  1.86400E+03 -1.03143E+03  4.65774E+02  2.19207E+01 -1.05777E+03
 -2.08699E+03 -5.49362E+02 -1.47736E+03 -7.21151E+02 -2.94729E+03  7.71693E+02 -2.55695E+03 -6.44971E+02
 -4.28469E+03 -1.53543E+02 -9.31789E+02 -4.50001E+03  6.22741E+02 -3.45352E+03  4.07470E+03 -2.12962E+03
  2.79162E+03  1.62703E+03  6.96040E+02  3.05574E+02 -8.76911E+02  2.09162E+03 -1.54040E+03  1.04660E+03
