 $NMID ID='MM_0lb_SNR200_20hz_g55_75.RAW', FMTDAT='(8E13.5)'
 TRAMP=1., VOLUME=1. $END
  3.09453E+05  4.00746E+02  3.37781E+05  2.50847E+05  8.48316E+04  3.37674E+05 -1.32293E+05  2.51333E+05
 -1.90454E+05  8.38789E+04 -1.10742E+05 -3.20549E+04  2.09748E+03 -5.00308E+04  5.22292E+04  4.48799E+02
  3.51203E+04  5.36504E+04 -1.74124E+04  7.45775E+04 -6.11237E+04  6.33381E+04 -8.28478E+04  3.16208E+04
 -8.00084E+04 -1.21170E+04 -5.69260E+04 -5.02659E+04 -1.45202E+04 -6.88141E+04  2.72179E+04 -4.51916E+04
  3.87375E+04  3.68249E+03  1.56362E+04  4.70065E+04 -3.38987E+04  4.70663E+04 -6.57301E+04 -4.45248E+02
 -5.17883E+04 -5.60196E+04 -6.48574E+03 -7.54581E+04  3.42356E+04 -5.32700E+04  4.65540E+04 -1.65658E+04
  4.25889E+04  1.11779E+04  3.00002E+04  2.52575E+04  1.62266E+04  2.89712E+04 -4.37446E+03  2.65603E+04
 -2.25898E+04  1.34634E+04 -1.81556E+04 -5.45714E+03  3.92222E+03 -7.04913E+03  2.11984E+04  1.04851E+04
  6.86065E+03  3.35989E+04 -3.03577E+04  3.56262E+04 -6.13103E+04  2.60423E+03 -5.53502E+04 -4.09790E+04
 -1.25287E+04 -6.05864E+04  3.82085E+04 -4.31519E+04  5.56012E+04 -2.86361E+03  3.26183E+04  3.12649E+04
 -6.34171E+03  3.38387E+04 -2.82763E+04  1.30550E+04 -2.78491E+04 -6.01527E+03 -1.48423E+04 -9.92574E+03
 -7.54627E+03 -1.11784E+04 -1.21419E+03 -1.67233E+04  7.82495E+03 -2.20444E+04  1.48035E+04 -1.42286E+04
  1.25937E+04  3.82788E+03 -6.95166E+03  1.35098E+04 -1.92396E+04 -2.48998E+03 -8.31500E+03 -3.02312E+04
  2.07920E+04 -3.99489E+04  4.46587E+04 -1.92470E+04  4.23968E+04  1.90581E+04  1.49049E+04  4.10291E+04
 -1.53719E+04  3.13210E+04 -2.33931E+04  1.79629E+03 -8.58089E+03 -2.64900E+04  2.00782E+04 -3.11522E+04
  3.88428E+04 -7.70920E+03  3.14903E+04  2.26263E+04  1.60463E+04  4.24910E+04 -7.17913E+03  4.50458E+04
 -2.91861E+04  3.06227E+04 -3.67198E+04  8.29576E+03 -3.82425E+04 -1.59402E+04 -1.97864E+04 -3.55365E+04
  7.61766E+03 -3.41971E+04  2.92415E+04 -1.26590E+04  2.73475E+04  1.09101E+04  3.33536E+03  1.68570E+04
 -1.29212E+04  7.87166E+03 -8.72479E+03 -7.92742E+03  6.30658E+03 -1.01517E+04  1.76173E+04  7.23411E+03
  1.23190E+04  2.17042E+04 -7.18021E+03  2.25712E+04 -2.10163E+04  8.98683E+03 -2.48617E+04 -5.51599E+03
 -1.66090E+04 -1.68245E+04 -6.67193E+03 -1.66462E+04  4.12842E+03 -1.49230E+04  1.26698E+04 -1.32475E+04
  2.07139E+04 -1.15138E+04  2.80601E+04  8.80604E+02  2.04212E+04  1.56165E+04  5.02432E+03  3.19410E+04
 -1.60466E+04  2.71637E+04 -2.55928E+04  8.75279E+03 -1.99286E+04 -1.03429E+04 -4.85532E+03 -1.38190E+04
  2.60019E+03 -4.68381E+03 -2.35962E+03  4.43010E+03 -1.26830E+04  5.78572E+03 -1.30768E+04 -4.71599E+03
 -8.83736E+03 -1.54594E+04  4.63502E+03 -1.93406E+04  1.34619E+04 -1.38009E+04  1.46041E+04 -8.92174E+02
  9.35137E+03  1.03478E+04 -3.73538E+02  1.60449E+04 -9.86857E+03  8.32956E+03 -1.60657E+04 -3.65988E+03
 -1.14196E+04 -1.40625E+04 -1.84412E+03 -1.89469E+04  8.42610E+03 -1.55928E+04  1.60924E+04 -7.02780E+03
  1.32211E+04 -1.70609E+02  1.03099E+04  3.60781E+03  5.82642E+03  9.93020E+02  7.87216E+03 -1.99125E+03
  1.43130E+04  3.06222E+03  1.33957E+04  1.23616E+04  9.41263E+03  2.48578E+04 -3.43105E+03  2.51895E+04
 -1.48595E+04  2.00681E+04 -2.30314E+04  9.01424E+03 -2.43665E+04 -2.31371E+03 -2.08311E+04 -1.40532E+04
 -9.18075E+03 -1.99785E+04  6.12835E+03 -1.85163E+04  1.56929E+04 -1.07256E+04  1.42373E+04  3.47600E+03
  7.20884E+03  1.05059E+04 -6.30549E+03  1.01104E+04 -1.33481E+04  2.80552E+03 -1.03255E+04 -8.92671E+03
  5.46521E+02 -1.09280E+04  5.76840E+03 -9.22124E+03  6.96224E+03 -1.46807E+03  4.95720E+02  5.19919E+03
 -5.13474E+03  8.13844E+02 -3.14111E+03 -3.42970E+03  1.00786E+03 -9.14964E+03  7.99560E+03 -9.80519E+03
  1.13379E+04 -3.88015E+03  1.22669E+04  3.48238E+03  1.01547E+04  9.69891E+03  4.09364E+03  1.29348E+04
 -1.32477E+03  1.59258E+04 -8.94588E+03  9.74427E+03 -9.35571E+03  2.09563E+03 -8.42417E+03 -1.80390E+03
 -5.19651E+03 -3.83768E+03 -6.01853E+02  1.73338E+03 -1.71243E+03  2.65489E+03 -3.39275E+03  2.37994E+03
 -8.49560E+03 -5.56729E+02 -7.94808E+03 -7.74075E+03 -3.81757E+03 -1.06953E+04  3.32006E+03 -8.73377E+03
  6.87506E+03 -3.08748E+03  5.43063E+03  3.01869E+03  1.84229E+02  2.64779E+03 -2.63410E+03 -1.96690E+02
 -3.14178E+03 -4.79579E+03 -5.04064E+02 -5.71597E+03  3.58083E+03 -7.40398E+03  9.31152E+03 -3.86349E+03
  1.13148E+04  2.99508E+02  8.71025E+03  5.97526E+03  1.67542E+03  7.12498E+03 -3.96007E+03  7.47417E+03
 -6.94388E+03  2.24418E+03 -3.69683E+03 -6.91593E+02  1.32333E+03 -1.43945E+03  4.24836E+03 -6.39770E+02
  3.82188E+03  2.98159E+03  8.85647E+02  6.00267E+03 -4.72840E+03  5.74960E+03 -7.58994E+03  7.01467E+02
 -3.91586E+03 -3.44544E+03  2.56242E+02 -5.80450E+03  4.08055E+03 -3.60109E+03  2.22154E+03  9.37713E+02
  1.00310E+03  2.52985E+03 -3.79347E+03  2.59810E+03 -4.16196E+03  1.96797E+03 -3.96183E+03 -1.16486E+03
 -2.94480E+03 -4.83752E+03  5.73388E+02 -6.88962E+03  5.83742E+03 -4.06693E+03  5.24407E+03  1.08425E+03
  4.03670E+03  5.13357E+03  3.03344E+02  6.08762E+03 -5.38048E+03  3.72803E+03 -5.16334E+03 -7.68319E+02
 -5.85352E+03 -4.39306E+03 -2.06735E+03 -4.20889E+03  8.84899E+02 -3.95603E+03  2.72929E+03 -2.75487E+03
  2.95595E+03  4.16961E+02  2.53543E+02  6.67459E+02  8.04333E+02 -3.04209E+02 -3.59148E+02 -1.40002E+03
  3.49324E+03 -3.24399E+02  4.30069E+03  2.08627E+03  4.48859E+03  2.49453E+03  3.93055E+03  6.60702E+03
 -1.12115E+02  6.92091E+03 -6.78567E+03  6.10829E+03 -8.11681E+03  1.07645E+03 -6.70311E+03 -1.92598E+03
 -4.21361E+03 -6.07120E+03 -7.67686E+02 -3.96046E+03  1.97248E+03 -1.70842E+03  1.19541E+03 -1.61755E+03
  7.40245E+02 -1.12660E+03  2.72858E+03 -2.09013E+03  3.74628E+03 -8.85965E+02  3.58869E+03  5.44555E+01
  4.10862E+03  9.03808E+02  1.54479E+03  3.69313E+03 -1.87740E+03  2.34877E+03 -4.05409E+03  1.53929E+03
 -3.99793E+03 -1.68005E+03 -8.31300E+02 -2.13578E+03  7.24393E+02 -4.27559E+03  2.96522E+03 -5.41063E+03
  3.71658E+03 -3.24073E+03  5.42920E+03 -1.56518E+02  3.92776E+03  3.70047E+03  1.19036E+03  5.73526E+03
 -2.09854E+03  5.57477E+03 -2.15706E+03  2.31195E+03 -1.27693E+03 -1.51959E+03 -2.20120E+02 -1.72743E+02
 -4.19911E+02  1.77755E+02 -1.92907E+02  1.63224E+03 -2.46937E+03  6.66838E+01 -3.65017E+03 -1.05308E+03
 -1.54126E+03 -3.10726E+03  2.86938E+02 -3.75965E+03  2.18856E+03 -4.39733E+03  3.45193E+03 -7.75224E+02
  2.99375E+03  1.77099E+03  2.70828E+03  3.29900E+03  3.77184E+02  3.05425E+03 -2.07596E+03  1.79210E+03
 -3.38849E+03  6.30340E+02 -2.75219E+03 -1.95948E+03 -6.49083E+02 -1.68522E+03  6.76479E+02 -3.42542E+03
  1.50934E+03  3.77702E+02  4.60621E+02  6.44451E+01  8.54184E+02  2.14992E+03  7.16570E+02  8.31081E+02
  1.48186E+03  4.17252E+02  8.70422E+02  1.21138E+03  3.92534E+02  1.12607E+03  8.34963E+02  1.96041E+03
 -5.36320E+02  3.13522E+03 -1.27396E+03  3.71005E+03 -2.63759E+03  5.44653E+02 -3.59369E+03  3.53051E+01
 -1.94561E+03 -3.04297E+03  5.61788E+02 -3.58050E+03  2.22687E+03 -1.68489E+03  2.19002E+03 -2.32220E+02
  2.54796E+03  1.46924E+03  1.34289E+03  8.91556E+02 -7.61929E+02  1.90637E+03 -4.57153E+02  4.81163E+01
  2.20033E+02 -1.00594E+03  4.84615E+02 -1.52069E+03  1.25822E+03 -1.03499E+03  8.16103E+02 -5.91694E+02
  9.80372E+02 -3.46405E+02  6.82302E+02  2.92931E+02  7.63150E+02  4.04861E+02  1.24091E+03  4.73979E+02
  5.75213E+02 -8.96392E+01  3.68065E+02  1.60069E+03 -7.58359E+01  1.76897E+03 -4.01981E+02  1.80541E+03
 -5.04065E+02  3.53385E+02 -8.48227E+02 -2.63066E+02 -6.45953E+02 -1.32137E+03 -1.09401E+01 -3.19611E+02
  7.33398E+02 -1.71865E+03  5.95647E+02 -1.03824E+03  1.10965E+03  1.20424E+03 -8.35164E+02  1.10233E+03
 -1.03850E+03  6.09368E+02 -3.86442E+02 -1.21358E+03 -5.72992E+02 -2.56603E+03  2.12388E+02 -1.08336E+03
  5.29462E+02  6.58389E+02  2.50282E+02  3.31292E+02  1.46978E+03  8.49959E+02 -4.56494E+01  1.06184E+03
  2.78196E+01  8.70125E+02 -8.26503E+02 -1.14369E+03  1.02256E+03 -6.01656E+02  2.15111E+03 -1.01310E+03
  1.23839E+02  2.55973E+02  2.27851E+03 -6.30828E+02  1.10511E+03  1.95130E+03 -2.80930E+02  2.61258E+03
 -1.95357E+03 -1.07663E+03 -9.83566E+02  9.17311E+02 -1.51225E+03 -1.27124E+03  9.02319E+02 -1.33915E+03
  1.10741E+03 -8.27149E+02  5.52624E+02  5.96925E+02 -2.19127E+02 -6.88147E+01  7.14647E+02  7.66294E+02
 -3.77908E+02  1.39714E+03 -6.81785E+02  9.12087E+02  2.57056E+02 -3.03735E+01 -7.77899E+02 -2.64611E+02
 -5.71321E+02  1.24494E+03 -1.13792E+03  9.15154E+02 -7.12722E+02  1.78428E+02 -3.22914E+03 -9.44426E+02
 -2.11764E+02 -1.38339E+03 -3.69820E+02 -1.44883E+03  9.19720E+02 -2.95241E+03  1.77262E+03 -8.71890E+02
  1.19291E+03 -7.47304E+02  7.03100E+02  8.12020E+02 -8.11973E+02  9.07947E+02 -3.30407E+02  1.38383E+03
 -3.87251E+02  1.88835E+03 -1.90167E+02 -7.91080E+01 -6.69861E+02  8.90076E+02 -1.34666E+03 -6.61539E+01
 -3.21165E+02 -2.33976E+02 -4.55155E+02 -4.57953E+01  1.51735E+02 -1.07763E+02 -1.29781E+03 -8.33530E+02
  1.76729E+03  3.87517E+02  4.54401E+02  3.23989E+02  4.77100E+02  1.01699E+03 -1.19067E+02 -7.21792E+02
 -1.59127E+03  2.25924E+03 -1.38726E+03  5.20976E+02 -1.58746E+03 -5.67572E+01 -1.71412E+03 -1.28848E+03
 -3.06132E+02 -2.24611E+02 -8.11606E+02 -1.56678E+02  6.21098E+02  3.58086E+02  1.21044E+03 -1.66416E+02
  5.75803E+02  9.60203E+02 -8.36930E+02  5.43944E+02  8.99538E+02  2.12972E+01  1.33191E+02 -6.92797E+02
 -3.37813E+01  1.38223E+03  4.45394E+02  8.42909E+02 -2.65912E+02 -6.05571E+02  1.37395E+03  2.02799E+02
 -2.58576E+02 -6.49534E+02 -7.93619E+02  5.34309E+02 -3.66550E+02 -1.01355E+03 -7.88973E+02 -3.11759E+02
  1.62287E+02 -4.98564E+02  9.78366E+02  1.17140E+03  9.77564E+02 -2.39852E+02  1.57917E+02  1.40753E+03
 -2.43898E+02 -2.98331E+02  3.09619E+02 -1.02822E+02 -5.72341E+02  6.12583E+02 -6.26208E+02  9.00817E+02
 -5.23792E+02 -8.33751E+02 -3.17272E+01 -4.95745E+02 -2.65183E+02  6.74457E+02 -8.95124E+02  8.18173E+01
 -1.62461E+03 -1.23350E+02 -1.24742E+03 -1.36897E+03  1.54367E+01 -2.03189E+03 -3.21814E+02 -2.04701E+02
 -3.46826E+02  2.00102E+02 -1.34453E+03 -1.26053E+02 -8.37250E+02 -5.41598E+02 -3.71048E+02  7.00154E+02
