 $NMID ID='MM_0lb_SNR200_9hz_g60_51.RAW', FMTDAT='(8E13.5)'
 TRAMP=1., VOLUME=1. $END
  3.09401E+05  2.57821E+03  3.38960E+05  2.48877E+05  8.53465E+04  3.38328E+05 -1.32503E+05  2.52082E+05
 -1.91198E+05  8.55896E+04 -1.13175E+05 -3.22834E+04  7.95029E+01 -5.19041E+04  5.38881E+04 -2.99380E+02
  3.56407E+04  5.19886E+04 -1.54808E+04  7.55092E+04 -6.11651E+04  6.63109E+04 -8.48960E+04  3.23534E+04
 -8.40310E+04 -1.13650E+04 -5.81934E+04 -5.16158E+04 -1.57266E+04 -7.23730E+04  2.95226E+04 -4.66688E+04
  4.11309E+04  2.07633E+03  1.70266E+04  4.97342E+04 -3.70332E+04  4.79026E+04 -6.95513E+04 -6.25561E+00
 -5.53751E+04 -5.83112E+04 -7.19376E+03 -7.98423E+04  3.43644E+04 -5.56921E+04  4.96565E+04 -1.85258E+04
  4.65862E+04  1.08189E+04  3.34934E+04  2.58736E+04  1.59088E+04  2.93827E+04 -7.41998E+03  2.58492E+04
 -2.24063E+04  1.07634E+04 -1.82490E+04 -5.79094E+03  6.91420E+03 -7.56770E+03  2.46074E+04  1.43223E+04
  6.65784E+03  3.89849E+04 -3.46699E+04  3.71298E+04 -6.69417E+04  7.81769E+02 -5.79157E+04 -4.46623E+04
 -1.12874E+04 -6.60961E+04  4.15934E+04 -4.79274E+04  6.08171E+04 -3.31730E+03  3.81193E+04  3.45448E+04
 -5.36798E+03  4.05585E+04 -3.31511E+04  2.01513E+04 -3.40907E+04 -3.70734E+03 -2.10493E+04 -1.06231E+04
 -9.89773E+03 -1.65680E+04 -7.29133E+02 -2.14946E+04  1.09964E+04 -2.54762E+04  1.48921E+04 -1.21281E+04
  1.00838E+04  6.65585E+03 -9.86398E+03  1.23902E+04 -2.42229E+04 -6.92914E+03 -9.89759E+03 -3.79572E+04
  2.41232E+04 -4.71793E+04  5.17417E+04 -1.96653E+04  5.08558E+04  2.23537E+04  1.75207E+04  4.80981E+04
 -1.82358E+04  3.76022E+04 -2.94285E+04  2.96217E+03 -1.21475E+04 -2.99075E+04  2.11895E+04 -3.90407E+04
  4.46805E+04 -1.21382E+04  4.19159E+04  2.48961E+04  2.16060E+04  5.26207E+04 -8.57447E+03  5.74684E+04
 -3.69113E+04  3.94684E+04 -5.11941E+04  1.03789E+04 -4.70719E+04 -1.86922E+04 -2.67519E+04 -4.33813E+04
  8.30986E+03 -4.38474E+04  3.49592E+04 -1.76662E+04  3.13938E+04  1.08321E+04  5.00194E+03  2.18751E+04
 -1.46304E+04  9.42113E+03 -9.99450E+03 -7.00923E+03  7.30899E+03 -1.21123E+04  2.19735E+04  4.92086E+03
  1.45819E+04  2.41904E+04 -4.39170E+03  2.73571E+04 -2.18625E+04  1.34502E+04 -3.19051E+04 -9.58780E+02
 -2.66251E+04 -1.94248E+04 -1.32686E+04 -2.54883E+04  4.40754E+03 -2.67471E+04  2.06044E+04 -2.45612E+04
  3.37914E+04 -1.39238E+04  3.92361E+04  3.26025E+03  2.66987E+04  2.53296E+04  4.03021E+03  4.12994E+04
 -1.93493E+04  3.40275E+04 -2.98609E+04  1.20022E+04 -2.24154E+04 -1.13665E+04 -5.52306E+03 -1.15394E+04
  4.99111E+02 -7.51883E+02 -9.71620E+03  8.77960E+03 -1.97371E+04  5.80249E+03 -2.11574E+04 -9.34830E+03
 -1.40385E+04 -2.48125E+04  6.65923E+03 -2.86773E+04  1.96111E+04 -1.93768E+04  2.26896E+04 -1.72922E+03
  1.53323E+04  1.78246E+04  1.31781E+01  2.33067E+04 -1.61515E+04  1.42781E+04 -2.43692E+04 -5.41017E+03
 -1.68919E+04 -2.03920E+04 -1.31253E+03 -2.75177E+04  1.39768E+04 -2.37333E+04  2.35827E+04 -1.06930E+04
  2.20815E+04  3.17456E+02  1.76504E+04  4.14828E+03  9.31143E+03  1.39803E+03  1.34758E+04 -2.69097E+03
  2.28290E+04  3.99581E+03  2.60011E+04  1.99378E+04  1.78085E+04  3.86090E+04 -2.89614E+03  4.67783E+04
 -2.42064E+04  3.88228E+04 -4.33957E+04  1.98801E+04 -4.76005E+04 -4.10029E+03 -3.76785E+04 -2.79361E+04
 -1.48041E+04 -3.79820E+04  1.39313E+04 -3.46982E+04  2.97728E+04 -1.53024E+04  2.51281E+04  9.33673E+03
  7.50739E+03  1.97709E+04 -1.22667E+04  1.63624E+04 -1.97115E+04  3.45487E+03 -1.55181E+04 -1.32222E+04
  2.29507E+02 -1.83012E+04  1.10320E+04 -1.47323E+04  1.48473E+04  1.43929E+02  5.26364E+03  8.65037E+03
 -8.23813E+03  5.55865E+03 -9.89624E+03 -6.10857E+03 -3.46334E+03 -1.89265E+04  1.32265E+04 -1.91529E+04
  2.31230E+04 -1.16911E+04  2.81382E+04  2.64385E+03  2.48236E+04  1.90768E+04  1.21150E+04  2.99899E+04
 -5.56184E+03  3.38731E+04 -2.25984E+04  2.01599E+04 -2.33148E+04  3.64086E+03 -1.60099E+04 -7.84546E+03
 -4.97684E+03 -5.66648E+03 -2.23992E+02 -2.10483E+02 -3.74875E+03  4.58869E+03 -6.25146E+03  6.32305E+03
 -1.46801E+04 -1.39391E+03 -1.64095E+04 -1.16594E+04 -6.13045E+03 -2.10508E+04  7.23080E+03 -1.58553E+04
  1.34326E+04 -7.20335E+03  9.43831E+03  3.80083E+03 -1.00006E+03  6.65330E+03 -8.11570E+03  1.45765E+03
 -9.06664E+03 -1.11180E+04 -2.31273E+03 -1.65123E+04  9.63351E+03 -1.81783E+04  2.08246E+04 -9.48692E+03
  2.53314E+04  2.87370E+03  1.76613E+04  1.64143E+04  3.98711E+03  1.97811E+04 -1.03457E+04  1.62714E+04
 -1.28211E+04  3.89145E+03 -5.48993E+03 -1.85780E+03  2.95948E+03 -4.99080E+03  7.46003E+03 -1.05986E+03
  6.74450E+03  7.32319E+03  1.29584E+03  1.46003E+04 -1.11133E+04  1.27360E+04 -1.66846E+04  1.83663E+03
 -1.19409E+04 -9.19922E+03 -3.39533E+02 -1.39340E+04  8.92458E+03 -7.40628E+03  8.90259E+03  3.63737E+03
  1.70430E+03  1.06159E+04 -8.06665E+03  1.23116E+04 -1.54432E+04  6.36234E+03 -1.58299E+04 -5.71918E+03
 -8.49999E+03 -1.68968E+04  5.24126E+03 -1.98993E+04  1.66565E+04 -1.09984E+04  1.88806E+04  3.22110E+03
  9.59469E+03  1.57959E+04 -1.11468E+03  1.68332E+04 -1.31215E+04  9.41040E+03 -1.32675E+04 -1.92802E+03
 -1.31296E+04 -8.96279E+03 -2.50142E+03 -1.15019E+04  5.16623E+03 -1.11260E+04  8.53017E+03 -3.24624E+03
  5.85812E+03  1.87493E+03  9.76887E+02  1.39804E+03 -1.29134E+02 -3.38426E+03  2.82752E+03 -5.15145E+03
  1.21014E+04 -5.34985E+03  1.92653E+04  1.36839E+03  1.78942E+04  1.10114E+04  1.08441E+04  2.43162E+04
 -4.39460E+03  2.54223E+04 -2.11230E+04  1.84834E+04 -2.78631E+04  2.80744E+03 -2.17869E+04 -9.34584E+03
 -1.13846E+04 -1.85522E+04 -3.59232E+02 -1.65508E+04  5.60412E+03 -9.97955E+03  5.16156E+03 -5.17764E+03
  3.37090E+03 -4.26187E+03  3.72325E+03 -3.27022E+03  6.98580E+03 -4.28931E+03  8.52465E+03 -2.11219E+03
  1.14430E+04  2.16646E+03  7.73037E+03  1.05063E+04 -2.35966E+03  1.33439E+04 -1.18916E+04  1.08099E+04
 -1.65632E+04 -2.60347E+03 -1.04309E+04 -1.17656E+04 -2.19690E+03 -1.70340E+04  8.29990E+03 -1.59770E+04
  1.74794E+04 -9.19117E+03  2.04255E+04  2.07587E+03  1.54118E+04  1.57309E+04  2.57510E+03  1.84363E+04
 -6.75631E+03  1.62778E+04 -1.21986E+04  5.87323E+03 -6.59132E+03 -2.00049E+03 -4.20099E+03 -3.51203E+03
 -8.32239E+02  8.72075E+02 -4.40535E+03  3.67929E+03 -7.47345E+03  3.05282E+03 -1.01005E+04 -8.41302E+02
 -8.13714E+03 -1.14944E+04  1.06990E+03 -1.54513E+04  1.13568E+04 -1.48898E+04  1.50721E+04 -5.65099E+03
  1.67481E+04  6.88146E+03  8.35756E+03  1.46240E+04 -3.84748E+03  1.62693E+04 -1.28734E+04  9.55343E+03
 -1.44408E+04 -1.41455E+03 -1.17404E+04 -1.19260E+04 -8.81977E+02 -1.37767E+04  8.49862E+03 -1.04016E+04
  1.00406E+04 -3.53686E+03  6.45620E+03  1.75191E+03  2.05785E+03  4.93589E+03  2.01341E+03  3.88118E+03
  2.12301E+03  2.09385E+03  3.74250E+03  2.12042E+03  5.38853E+03  6.38028E+03  4.99698E+03  7.77022E+03
 -2.88940E+03  1.23254E+04 -1.26003E+04  1.34531E+04 -1.80777E+04  4.14752E+03 -1.63702E+04 -7.26116E+03
 -7.80656E+03 -1.73958E+04  3.89240E+03 -1.83034E+04  1.09597E+04 -1.21464E+04  1.36177E+04 -1.83867E+03
  7.64487E+03  5.67596E+03  2.80662E+03  8.43517E+03 -3.47669E+03  4.69014E+03 -5.78063E+03 -8.06062E+02
 -3.97099E+03 -8.54292E+03  3.69176E+03 -7.75991E+03  7.96278E+03 -2.80290E+03  6.01954E+03  1.65757E+03
  3.40261E+03  2.28815E+03  1.30981E+03  3.85711E+03 -2.59973E+02  9.80339E+02  2.27430E+03 -2.43631E+03
  1.06621E+03 -7.36360E+02  6.38086E+03  2.93684E+03  4.18731E+03  9.48692E+03 -1.78248E+03  1.24277E+04
 -9.28833E+03  7.60402E+03 -9.77145E+03  1.81592E+03 -9.36950E+03 -2.79205E+03 -1.83105E+03 -7.79866E+03
  1.32214E+03 -7.95895E+03  3.47277E+03 -3.42544E+03  2.96955E+03  3.43797E+03 -2.56980E+03  5.76148E+03
 -8.18347E+03  4.63469E+03 -6.68339E+03 -4.33413E+03 -3.22455E+03 -1.01809E+04 -5.48028E+02 -9.32406E+03
  5.64113E+03 -5.44104E+03  6.27613E+03  8.10720E+02  5.76866E+03  2.53321E+03  1.45213E+03  4.76579E+03
 -3.12064E+03  2.66551E+03 -2.49816E+03 -2.97358E+03  2.72487E+03 -7.22287E+03  9.14209E+03 -6.33304E+03
  1.01899E+04  7.52404E+02  1.18713E+04  7.59844E+03  3.96827E+03  9.34576E+03 -2.52544E+03  9.74497E+03
 -8.78360E+03  3.75529E+03 -8.72350E+03  1.43370E+02 -5.27017E+03 -6.97621E+03  2.96662E+02 -6.18656E+03
  6.67869E+03 -3.43715E+03  5.87600E+03  3.12282E+03  1.88792E+03  6.35987E+03 -1.44233E+03  4.43961E+03
 -3.00073E+03  3.12143E+03 -3.63605E+03  1.61400E+02 -1.10824E+03  9.66810E+02 -1.80213E+03  7.29691E+02
 -3.28628E+03  5.58364E+03 -7.61429E+03  4.11112E+03 -1.07386E+04 -9.83450E+02 -1.07984E+04 -9.03339E+03
 -7.22480E+03 -1.46137E+04  2.41132E+03 -1.67708E+04  1.05608E+04 -1.36803E+04  1.66066E+04 -6.07376E+03
  1.40091E+04  2.94344E+03  8.60618E+03  1.04133E+04  4.29219E+02  1.19431E+04 -3.61818E+03  8.40116E+03
 -6.57615E+03  3.32083E+03 -3.39603E+03 -3.61914E+02 -1.17692E+03 -7.12004E+02  4.33296E+00  1.32951E+03
 -2.02019E+03  1.13754E+03 -2.87541E+03  3.29339E+01 -1.07387E+03 -3.16676E+03  1.18535E+03 -3.79572E+03
  5.01440E+03 -3.73473E+03  6.50704E+03 -1.02402E+03  8.83756E+03  7.10446E+03  2.99871E+03  1.01531E+04
 -5.60156E+03  1.31356E+04 -1.24578E+04  6.88514E+03 -1.39319E+04 -9.98466E+02 -1.04311E+04 -9.34214E+03
 -3.06969E+03 -1.02053E+04  3.54730E+03 -1.13230E+04  4.42459E+03 -6.58914E+03  8.52701E+03  5.61010E+02
  4.62302E+03  4.46086E+03  2.10695E+02  3.34050E+03 -1.44351E+03 -2.75775E+02  1.16075E+03 -3.86304E+03
  4.05847E+03 -1.11262E+03  3.34027E+03  1.64879E+03  2.74797E+03  3.42596E+03 -8.86217E+00  6.49245E+03
 -4.07330E+03  4.92793E+03 -6.56365E+03  2.80984E+02 -6.57541E+03 -6.91014E+03 -1.44374E+03 -9.77307E+03
  4.64240E+03 -8.36649E+03  1.03412E+04 -1.45276E+03  9.45686E+03  2.58132E+03  5.42062E+03  7.84712E+03
  1.24933E+03  7.82349E+03 -2.58611E+03  5.12891E+03 -6.99289E+03  2.69924E+03 -5.84687E+03  4.24991E+02
 -1.71754E+03  6.46577E+01 -2.76555E+03  1.24297E+03 -5.97281E+03  3.09776E+03 -6.88064E+03 -1.54031E+03
 -6.29262E+03 -4.07952E+03 -2.46875E+03 -9.36828E+03  4.01143E+03 -8.45484E+03  6.34891E+03 -3.62196E+03
  6.74960E+03  2.82363E+02  4.21729E+03  3.87227E+03 -6.44642E+02  7.22900E+03 -6.71778E+03  4.37694E+03
