 $NMID ID='MM_0lb_SNR200_13hz_g60_84.RAW', FMTDAT='(8E13.5)'
 TRAMP=1., VOLUME=1. $END
  3.10478E+05  7.17950E+02  3.37313E+05  2.51289E+05  8.58046E+04  3.37845E+05 -1.32501E+05  2.52417E+05
 -1.90613E+05  8.35629E+04 -1.11777E+05 -3.29723E+04  2.09767E+03 -5.00491E+04  5.45875E+04 -1.92705E+03
  3.71925E+04  5.16749E+04 -1.63928E+04  7.51948E+04 -6.23083E+04  6.47380E+04 -8.47309E+04  3.18113E+04
 -8.15116E+04 -1.14681E+04 -5.74439E+04 -5.20667E+04 -1.46867E+04 -6.97124E+04  2.75676E+04 -4.52779E+04
  4.10440E+04  3.99343E+03  1.49760E+04  4.90913E+04 -3.43338E+04  4.79374E+04 -6.75901E+04  3.29302E+02
 -5.42957E+04 -5.89011E+04 -7.45188E+03 -7.72430E+04  3.41329E+04 -5.59104E+04  4.96218E+04 -1.74587E+04
  4.52349E+04  9.72992E+03  3.18171E+04  2.76639E+04  1.54763E+04  2.88409E+04 -5.84975E+03  2.71403E+04
 -2.21433E+04  1.13700E+04 -1.87251E+04 -6.31504E+03  7.15329E+03 -7.29013E+03  2.37930E+04  1.22950E+04
  6.85460E+03  3.71209E+04 -3.31240E+04  3.68579E+04 -6.62238E+04  2.14527E+03 -5.93412E+04 -4.36717E+04
 -1.37750E+04 -6.49731E+04  3.99831E+04 -4.62300E+04  5.92155E+04 -3.27475E+03  3.42460E+04  3.25758E+04
 -4.87785E+03  3.79244E+04 -3.11253E+04  1.78765E+04 -3.03580E+04 -3.77736E+03 -1.88823E+04 -1.21756E+04
 -9.35478E+03 -1.40960E+04 -1.19801E+03 -1.96208E+04  1.01615E+04 -2.33792E+04  1.65960E+04 -1.30313E+04
  1.04747E+04  6.36081E+03 -9.31276E+03  1.19050E+04 -2.29302E+04 -6.06444E+03 -9.03574E+03 -3.46877E+04
  2.40337E+04 -4.45213E+04  4.92261E+04 -2.01960E+04  4.65849E+04  1.97534E+04  1.72766E+04  4.60106E+04
 -1.71765E+04  3.54071E+04 -2.74161E+04  3.63071E+03 -1.01270E+04 -2.93238E+04  2.04232E+04 -3.41543E+04
  4.20473E+04 -1.00368E+04  3.82164E+04  2.42459E+04  1.99717E+04  4.95007E+04 -8.28579E+03  5.41929E+04
 -3.33412E+04  3.60230E+04 -4.47057E+04  1.03510E+04 -4.52352E+04 -1.68729E+04 -2.44582E+04 -4.11894E+04
  6.91660E+03 -3.98007E+04  3.26901E+04 -1.55103E+04  3.09541E+04  1.08117E+04  5.52841E+03  1.92818E+04
 -1.24383E+04  8.58035E+03 -1.04887E+04 -6.52376E+03  5.46775E+03 -1.05931E+04  1.78572E+04  5.03510E+03
  1.48236E+04  2.21395E+04 -5.88179E+03  2.59400E+04 -2.19143E+04  1.30802E+04 -2.90601E+04 -4.16370E+03
 -2.47389E+04 -1.72809E+04 -1.03008E+04 -2.30915E+04  3.38068E+03 -2.35478E+04  1.77358E+04 -2.02713E+04
  2.84291E+04 -1.28234E+04  3.61621E+04  3.07317E+03  2.42807E+04  2.24145E+04  4.72581E+03  3.97570E+04
 -1.90986E+04  3.20242E+04 -3.06162E+04  1.12028E+04 -2.08257E+04 -1.04096E+04 -4.72513E+03 -1.33297E+04
  1.48189E+03 -2.13187E+03 -6.27555E+03  8.43600E+03 -1.84099E+04  4.70159E+03 -1.77948E+04 -8.51038E+03
 -1.16002E+04 -2.11971E+04  6.25198E+03 -2.65290E+04  1.66421E+04 -1.67711E+04  1.98363E+04 -2.97232E+03
  1.24152E+04  1.41836E+04  3.72775E+02  2.24344E+04 -1.47283E+04  1.23615E+04 -2.02375E+04 -4.90109E+03
 -1.54667E+04 -1.97157E+04 -2.57975E+03 -2.57320E+04  1.20065E+04 -2.07304E+04  1.99049E+04 -1.14950E+04
  1.98011E+04 -1.11747E+03  1.44115E+04  4.80956E+03  7.58078E+03  2.54032E+03  1.01871E+04 -1.66390E+03
  1.94242E+04  3.18429E+03  2.22648E+04  1.56555E+04  1.43289E+04  3.40243E+04 -2.86037E+03  3.84527E+04
 -2.19699E+04  3.00651E+04 -3.63273E+04  1.58055E+04 -3.92680E+04 -1.09222E+03 -3.04467E+04 -2.22929E+04
 -1.31445E+04 -3.21845E+04  1.17138E+04 -2.81677E+04  2.41493E+04 -1.23767E+04  2.09442E+04  5.55879E+03
  7.60306E+03  1.58318E+04 -1.00219E+04  1.35702E+04 -1.72787E+04  2.23041E+03 -1.20209E+04 -1.17178E+04
  3.90444E+02 -1.62648E+04  7.99402E+03 -1.32053E+04  1.30051E+04 -1.26132E+03  2.29439E+03  7.86190E+03
 -6.81201E+03  2.68270E+03 -8.73064E+03 -6.00493E+03 -1.22833E+03 -1.47375E+04  1.03768E+04 -1.65583E+04
  1.99436E+04 -7.93710E+03  2.13673E+04  2.03523E+03  1.73619E+04  1.53394E+04  8.22902E+03  2.35719E+04
 -4.01392E+03  2.50825E+04 -1.70711E+04  1.52325E+04 -1.90353E+04  3.23106E+03 -1.23752E+04 -4.52674E+03
 -4.97112E+03 -6.94999E+03 -1.51082E+03 -2.05595E+02 -1.86035E+03  2.50362E+03 -5.33425E+03  5.60136E+03
 -1.15380E+04 -1.44357E+03 -1.24129E+04 -1.02250E+04 -6.84495E+03 -1.78027E+04  5.84546E+03 -1.32956E+04
  1.23316E+04 -6.37392E+03  8.66655E+03  3.86584E+03  1.12585E+03  5.63294E+03 -6.52933E+03 -1.42168E+03
 -5.29497E+03 -8.52312E+03 -9.36450E+02 -1.20826E+04  7.71084E+03 -1.43508E+04  1.62097E+04 -6.68046E+03
  1.90182E+04  1.85160E+03  1.35881E+04  1.07556E+04  2.06121E+03  1.44685E+04 -7.04955E+03  1.39417E+04
 -1.05193E+04  4.33714E+03 -5.25793E+03 -2.99048E+03  2.29712E+03 -2.43033E+03  6.58082E+03 -2.17289E+03
  5.13026E+03  4.15425E+03  1.19882E+03  9.89295E+03 -7.19557E+03  9.79855E+03 -1.31310E+04  2.70409E+03
 -6.95838E+03 -6.79237E+03  1.42989E+03 -1.00779E+04  6.65963E+03 -6.35574E+03  7.59332E+03  1.71214E+03
  1.61452E+03  7.91520E+03 -7.46390E+03  9.66080E+03 -1.01300E+04  3.96646E+03 -9.72940E+03 -3.66273E+03
 -6.44099E+03 -1.16903E+04  1.71002E+03 -1.36377E+04  1.14956E+04 -8.03098E+03  1.28233E+04  2.73845E+03
  7.98089E+03  1.02085E+04 -6.20752E+02  1.24292E+04 -9.12903E+03  6.68983E+03 -9.16617E+03 -5.52022E+02
 -7.96545E+03 -7.05180E+03 -2.19944E+02 -1.14961E+04  4.80960E+03 -7.15026E+03  6.04984E+03 -3.69638E+03
  4.71366E+03  1.48941E+03 -4.55663E+02  1.36909E+03 -1.36279E+03 -1.09405E+03  2.67369E+03 -3.67593E+03
  9.33159E+03 -2.56725E+03  1.14725E+04  3.11645E+02  1.13830E+04  7.07781E+03  7.47645E+03  1.62057E+04
 -3.12831E+03  1.65984E+04 -1.41279E+04  1.24880E+04 -1.83855E+04  1.68751E+03 -1.54137E+04 -6.38424E+03
 -7.82985E+03 -1.22565E+04 -1.62362E+02 -1.06571E+04  5.13071E+03 -5.24815E+03  3.99619E+03 -4.09480E+03
  1.89549E+03 -1.84595E+03  3.25862E+03 -2.74096E+03  4.07341E+03 -3.06791E+03  5.43685E+03 -9.38428E+02
  8.23375E+03  1.05087E+03  4.32217E+03  5.09224E+03 -2.62304E+03  7.95945E+03 -7.88308E+03  5.01038E+03
 -1.21712E+04 -5.61006E+02 -4.89834E+03 -7.23646E+03 -2.85845E+02 -1.11379E+04  6.13148E+03 -1.11972E+04
  1.09345E+04 -6.36853E+03  1.32711E+04  1.39708E+03  9.31793E+03  8.98508E+03  9.17261E+02  1.17398E+04
 -3.72201E+03  1.03063E+04 -6.89283E+03  2.90690E+03 -4.28079E+03 -1.43218E+03 -1.44482E+03 -2.44970E+03
  1.88353E+02 -1.32305E+03 -2.00835E+03  3.22347E+03 -3.84129E+03  1.14983E+03 -5.76863E+03 -2.90967E+02
 -5.37872E+03 -6.54504E+03  2.96845E+02 -1.01988E+04  5.99941E+03 -9.70346E+03  9.85265E+03 -2.02698E+03
  8.69157E+03  4.88017E+03  4.69133E+03  8.43082E+03 -1.45514E+03  8.66720E+03 -6.67789E+03  5.98599E+03
 -8.31545E+03  1.16487E+03 -8.60280E+03 -6.14364E+03 -1.64768E+03 -9.25473E+03  3.36143E+03 -6.07226E+03
  6.80705E+03 -6.51979E+02  4.67567E+03  6.72200E+02  1.47579E+03  1.98275E+03  8.13204E+02  3.07067E+02
  1.20892E+03  1.40394E+03  1.00376E+03  2.36565E+03  3.43341E+03  3.88882E+03  2.48485E+03  5.34482E+03
 -2.13373E+03  7.39750E+03 -6.96236E+03  8.71683E+03 -8.41287E+03  1.37287E+03 -1.12179E+04 -2.89460E+03
 -4.19221E+03 -7.76026E+03  6.39647E+02 -9.51016E+03  5.63668E+03 -5.81121E+03  7.80602E+03 -9.91448E+02
  4.78580E+03  2.46917E+03  1.00242E+03  4.51695E+03 -2.36138E+03  3.01300E+03 -3.09225E+03 -1.02839E+02
 -3.05460E+03 -3.61330E+03  3.10062E+03 -4.22426E+03  3.75887E+03 -1.06449E+03  4.90396E+03  1.07263E+03
  2.16584E+03  1.80670E+03  1.50953E+03  1.18418E+03  2.43829E+02  1.32876E+03  1.44792E+03  1.27852E+02
  7.93652E+02 -6.83971E+02  5.52733E+03  1.95851E+03  1.89529E+03  5.34974E+03 -1.76730E+03  5.46661E+03
 -4.60363E+03  2.76621E+03 -5.81635E+03  3.91931E+02 -5.96066E+03 -2.86330E+03 -2.43608E+03 -3.88286E+03
  1.08099E+03 -3.42227E+03  3.83827E+03 -1.51945E+03  3.09696E+03  2.93723E+03  7.67680E+02  2.71775E+03
 -3.90772E+03  1.99554E+03 -4.08633E+03 -2.78335E+03 -2.03745E+03 -6.32839E+03  1.67589E+03 -4.68738E+03
  2.84435E+03 -2.82344E+03  3.12695E+03  6.47334E+02  2.86381E+03  1.50950E+03 -1.03425E+03  2.16268E+03
 -1.99991E+03 -7.19729E+02 -2.05379E+03 -1.01717E+02  3.04405E+02 -2.81418E+03  4.11987E+03 -2.25436E+03
  6.99646E+03  5.82969E+01  5.18837E+03  3.12680E+03  1.53635E+03  5.62426E+03 -1.90763E+03  5.20635E+03
 -6.09610E+03  1.49354E+03 -4.66262E+03 -6.56961E+02 -3.57537E+03 -4.30007E+03  4.29215E+02 -3.45140E+03
  2.83405E+03 -1.09239E+03  2.20222E+03  1.60518E+03  1.13787E+03  2.55772E+03 -3.96968E+02  3.72888E+03
 -1.23933E+03  1.88265E+03 -4.19034E+02 -9.78527E+01 -1.47663E+03  1.23829E+03 -1.21831E+03  1.41526E+03
 -1.28859E+03  2.32695E+03 -5.05391E+03  1.49179E+03 -5.82799E+03 -7.15388E+02 -5.40623E+03 -2.89169E+03
 -3.79975E+03 -6.18615E+03  1.03453E+03 -9.23205E+03  5.93215E+03 -6.30354E+03  6.71213E+03 -3.08908E+03
  7.01689E+03  1.21101E+03  3.91205E+03  3.72057E+03  1.72359E+02  4.78080E+03 -2.35754E+03  4.48535E+03
 -2.93431E+03  1.60530E+03 -1.06704E+03 -1.45253E+03 -6.06842E+02 -1.05397E+02 -4.19050E+02 -1.19077E+03
 -1.30028E+03  1.87589E+03 -4.78157E+02  5.20635E+02 -1.27469E+03 -1.77586E+03 -2.32365E+02 -2.19740E+03
  2.67308E+03 -1.77313E+03  3.53092E+03 -6.14025E+01  2.92125E+03  3.14588E+03  1.40888E+02  5.06633E+03
 -2.27660E+03  4.40981E+03 -4.05364E+03  3.52103E+03 -5.12387E+03 -6.36961E+02 -4.01645E+03 -3.79182E+03
 -5.74452E+02 -4.44984E+03  1.71856E+03 -4.77802E+03  3.95903E+03 -3.38352E+03  3.37871E+03 -8.98720E+02
  1.71890E+03  6.87721E+02  3.16581E+02  9.96367E+02 -1.78206E+03 -4.60675E+02 -1.08140E+03 -1.51769E+03
  1.33657E+03  1.38898E+02  2.01736E+03  1.48545E+03  3.37270E+01  2.72179E+03  1.39886E+03  2.35366E+03
 -2.77986E+03  2.86796E+03 -3.39070E+03  5.93170E+02 -2.88854E+03 -1.20976E+03 -5.55810E+02 -3.67982E+03
  2.21311E+03 -2.09126E+03  3.68418E+03 -1.52370E+03  3.34684E+03  1.10533E+02  2.39345E+03  2.93317E+03
  1.00742E+03  2.74464E+03 -1.08388E+03  4.02640E+03 -7.22593E+02  1.24829E+03 -1.50120E+03  1.64473E+03
 -1.36270E+03  1.37985E+01 -1.19479E+03 -5.69751E+01 -2.82500E+03  1.52720E+02 -1.55927E+03 -3.92192E+02
 -3.15082E+03 -9.58407E+02 -7.44599E+02 -2.81328E+03  1.92018E+03 -3.04102E+03  2.80049E+03 -5.44915E+02
  2.57927E+03 -8.32361E+02 -6.74539E+02  2.51342E+03  8.47528E+02  2.97600E+03 -2.46846E+03  3.50325E+03
