 $NMID ID='MM_0lb_SNR200_16hz_g45_61.RAW', FMTDAT='(8E13.5)'
 TRAMP=1., VOLUME=1. $END
  3.09667E+05 -1.05571E+03  3.37416E+05  2.50430E+05  8.28638E+04  3.36812E+05 -1.32387E+05  2.50375E+05
 -1.88710E+05  8.31194E+04 -1.10892E+05 -3.22399E+04  1.66005E+03 -5.14044E+04  5.46986E+04  6.64697E+02
  3.53971E+04  5.35323E+04 -1.72433E+04  7.50183E+04 -6.17068E+04  6.28765E+04 -8.28206E+04  3.05751E+04
 -7.95314E+04 -1.09694E+04 -5.63048E+04 -5.00600E+04 -1.44544E+04 -6.82805E+04  2.78936E+04 -4.51188E+04
  3.86442E+04  3.94489E+03  1.59781E+04  4.69710E+04 -3.54609E+04  4.60010E+04 -6.62110E+04 -4.13408E+02
 -5.16917E+04 -5.48521E+04 -6.59467E+03 -7.58298E+04  3.32328E+04 -5.39094E+04  4.67915E+04 -1.62400E+04
  4.28285E+04  1.07680E+04  3.12315E+04  2.52388E+04  1.50106E+04  2.82454E+04 -4.88698E+03  2.75051E+04
 -2.20408E+04  1.25740E+04 -1.93863E+04 -4.08725E+03  6.77309E+03 -7.94160E+03  2.15204E+04  1.17631E+04
  6.87007E+03  3.43275E+04 -3.19018E+04  3.56671E+04 -6.22399E+04  2.52328E+03 -5.60654E+04 -4.11197E+04
 -1.33112E+04 -6.19746E+04  3.79169E+04 -4.37760E+04  5.65198E+04 -1.30252E+03  3.36524E+04  3.06320E+04
 -6.00525E+03  3.43372E+04 -2.99326E+04  1.53562E+04 -2.79364E+04 -5.81904E+03 -1.51119E+04 -1.03998E+04
 -7.12404E+03 -1.12791E+04 -1.44348E+03 -1.70377E+04  6.01393E+03 -2.30589E+04  1.50160E+04 -1.48929E+04
  1.22007E+04  4.51400E+03 -7.40674E+03  1.22241E+04 -2.03287E+04 -3.23351E+03 -8.90945E+03 -3.09875E+04
  2.07377E+04 -4.19791E+04  4.61483E+04 -1.98800E+04  4.28643E+04  1.95647E+04  1.46509E+04  4.21265E+04
 -1.49059E+04  3.24136E+04 -2.35944E+04  2.52359E+03 -7.72673E+03 -2.61721E+04  2.01159E+04 -3.19372E+04
  3.85951E+04 -8.24407E+03  3.37118E+04  2.35089E+04  1.71292E+04  4.43119E+04 -8.47685E+03  4.62165E+04
 -3.00859E+04  3.18725E+04 -4.00733E+04  8.36816E+03 -4.09917E+04 -1.55769E+04 -2.33482E+04 -3.51184E+04
  7.01629E+03 -3.50949E+04  3.03419E+04 -1.29267E+04  2.79393E+04  9.78334E+03  2.65385E+03  1.90588E+04
 -1.34372E+04  8.71185E+03 -9.65788E+03 -7.83948E+03  5.23899E+03 -1.03254E+04  1.74209E+04  6.17752E+03
  1.38842E+04  2.21040E+04 -6.59288E+03  2.39409E+04 -2.21402E+04  9.97009E+03 -2.62092E+04 -5.50992E+03
 -1.82725E+04 -1.67246E+04 -8.13725E+03 -1.80854E+04  3.44615E+03 -1.61362E+04  1.42685E+04 -1.55145E+04
  2.25173E+04 -1.30095E+04  3.02046E+04  2.54660E+03  2.12749E+04  1.81738E+04  4.70910E+03  3.35311E+04
 -1.75163E+04  2.91557E+04 -2.73205E+04  1.10240E+04 -1.97039E+04 -1.08451E+04 -4.11286E+03 -1.31713E+04
  1.75168E+03 -4.13439E+03 -2.89260E+03  5.73356E+03 -1.51076E+04  5.49924E+03 -1.48841E+04 -5.65602E+03
 -9.16556E+03 -1.81486E+04  4.75979E+03 -2.03956E+04  1.28897E+04 -1.48610E+04  1.53918E+04 -5.68354E+02
  1.08172E+04  1.18490E+04 -9.24700E+02  1.73837E+04 -1.17085E+04  9.26218E+03 -1.66217E+04 -3.42614E+03
 -1.23176E+04 -1.46669E+04 -4.01136E+02 -2.20407E+04  9.34611E+03 -1.67977E+04  1.79428E+04 -7.47266E+03
  1.60619E+04  1.65593E+03  1.18563E+04  5.01627E+03  6.73644E+03  7.20196E+02  9.54402E+03 -1.16273E+03
  1.59926E+04  2.79768E+03  1.77610E+04  1.38563E+04  1.12500E+04  2.81330E+04 -3.49167E+03  3.02572E+04
 -1.86069E+04  2.38183E+04 -2.73143E+04  1.16396E+04 -2.83637E+04 -2.43922E+03 -2.32385E+04 -1.54876E+04
 -1.12926E+04 -2.25675E+04  9.81358E+03 -2.24327E+04  1.82253E+04 -1.12523E+04  1.70796E+04  4.06934E+03
  6.78742E+03  1.33539E+04 -8.57633E+03  1.10605E+04 -1.48196E+04  4.08923E+03 -1.18039E+04 -8.79031E+03
 -2.01453E+02 -1.37470E+04  8.35457E+03 -1.05041E+04  8.29818E+03 -1.64881E+03  2.44525E+03  5.39919E+03
 -5.21290E+03  1.22957E+03 -5.31441E+03 -6.06031E+03 -6.82645E+02 -1.15031E+04  9.15257E+03 -1.28680E+04
  1.53523E+04 -6.40620E+03  1.55302E+04  1.83648E+03  1.20198E+04  1.11602E+04  5.83041E+03  1.62146E+04
 -1.84828E+03  1.82038E+04 -1.21959E+04  1.15570E+04 -1.31222E+04  3.73618E+03 -8.83614E+03 -2.25019E+03
 -4.26486E+03 -3.65531E+03 -1.06460E+03  1.77999E+03 -1.83528E+03  2.04412E+03 -4.44606E+03  3.71165E+03
 -8.51102E+03 -6.82203E+02 -9.66342E+03 -7.92230E+03 -4.31449E+03 -1.37792E+04  3.66635E+03 -1.00954E+04
  7.80358E+03 -5.33952E+03  6.91023E+03  2.80087E+03  1.02021E+03  3.74895E+03 -3.69022E+03  8.15012E+01
 -2.63632E+03 -6.52818E+03 -7.38479E+02 -9.57613E+03  4.19211E+03 -1.07192E+04  1.11070E+04 -5.21169E+03
  1.47500E+04  6.62741E+02  9.32285E+03  7.75260E+03  3.39098E+03  1.07449E+04 -5.66987E+03  1.02714E+04
 -8.39941E+03  3.14773E+03 -3.40208E+03 -2.38104E+03  2.16729E+03 -3.17643E+03  4.20433E+03 -1.23594E+03
  5.52589E+03  4.07714E+03  2.14276E+03  7.38018E+03 -5.08411E+03  7.90838E+03 -9.85236E+03  1.95765E+03
 -6.70900E+03 -4.73263E+03 -1.37876E+02 -7.75128E+03  5.00792E+03 -3.77271E+03  5.13144E+03  1.39312E+03
  1.08319E+03  4.05317E+03 -5.42759E+03  6.14811E+03 -6.26044E+03  2.44997E+03 -6.24404E+03 -2.10060E+03
 -2.57117E+03 -7.65732E+03  2.05466E+03 -1.00713E+04  7.49942E+03 -5.86901E+03  7.62483E+03  6.09932E+02
  5.70355E+03  6.79379E+03 -3.67097E+02  8.63984E+03 -5.99211E+03  5.19117E+03 -7.80179E+03 -4.67166E+02
 -5.48342E+03 -5.04648E+03 -1.47237E+03 -6.12742E+03  4.47197E+03 -5.30061E+03  2.66826E+03 -2.74923E+03
  2.99494E+03 -1.51691E+02  1.00322E+03  1.58375E+03 -3.18085E+02 -1.34947E+03  7.27653E+02 -3.35288E+03
  4.97815E+03 -2.08816E+03  6.53131E+03  9.45557E+02  8.19996E+03  4.64850E+03  6.56340E+03  9.35694E+03
 -2.21443E+03  1.22247E+04 -9.25824E+03  7.92418E+03 -1.22963E+04  8.58042E+02 -1.00426E+04 -4.81542E+03
 -4.86710E+03 -8.85134E+03 -6.07389E+02 -7.60956E+03  2.15652E+03 -4.15452E+03  1.31032E+03 -2.57566E+03
  2.01277E+03 -2.90896E+03  1.94943E+03 -2.30062E+03  3.80269E+03 -1.25064E+03  4.15204E+03  1.14384E+02
  5.30072E+03  1.85334E+03  1.50537E+03  4.12205E+03 -1.75261E+03  4.47338E+03 -6.51920E+03  2.84669E+03
 -6.80659E+03 -1.09346E+03 -2.94442E+03 -3.67735E+03  1.10802E+03 -5.55314E+03  3.21111E+03 -7.15326E+03
  6.15697E+03 -4.63688E+03  8.28606E+03 -2.92623E+02  7.21424E+03  4.93166E+03  1.05075E+03  8.29662E+03
 -3.44196E+03  6.62566E+03 -5.50271E+03  2.71217E+03 -1.70893E+03 -1.03733E+03 -1.71367E+03 -9.06226E+02
  8.36958E+02  5.05655E+02 -1.30905E+03  2.15249E+03 -3.09712E+03  2.30283E+03 -4.73399E+03  1.07860E+03
 -2.11192E+03 -5.26881E+03  7.80885E+02 -7.12920E+03  4.19722E+03 -5.56478E+03  5.72223E+03 -1.09050E+03
  6.15902E+03  3.20952E+03  1.83609E+03  4.76524E+03  4.86209E+02  6.41471E+03 -4.87465E+03  3.79689E+03
 -5.06740E+03  1.99423E+02 -3.13376E+03 -3.10670E+03  9.55242E+01 -3.91108E+03  1.95721E+03 -3.74299E+03
  3.83805E+03 -1.18278E+03  2.08172E+03  1.85689E+03  4.36397E+02  1.56602E+03 -1.30493E+02  2.81161E+02
  8.82793E+02  7.52719E+02  1.53703E+03  1.58137E+03  1.27066E+03  3.71530E+03  1.84329E+03  2.60649E+03
 -1.83584E+03  3.26718E+03 -4.04042E+03  5.86271E+03 -5.62081E+03  1.69730E+03 -4.83145E+03 -8.86838E+02
 -2.54573E+03 -5.44142E+03  1.58918E+03 -5.21895E+03  2.35710E+03 -3.29926E+03  4.45499E+03 -5.95588E+02
  3.27058E+03  1.93578E+03 -5.02893E+01  3.72611E+03 -2.00246E+03  2.19896E+03 -1.57124E+03  4.99573E+02
 -6.69985E+02 -2.75433E+03  2.76627E+03 -1.12535E+03  2.04855E+03 -9.80253E+02  3.04707E+03  5.52900E+02
  1.96559E+03  1.70204E+03  1.50172E+03  1.33734E+03  2.21257E+02  1.48427E+03  1.61667E+03  4.60847E+02
  9.42141E+02 -2.30198E+02  2.81204E+03  3.19979E+01  5.36864E+02  3.32840E+03 -6.68536E+02  2.98900E+03
 -3.53098E+03  1.38928E+03 -1.57169E+03  2.92849E+02 -3.37351E+03 -9.08549E+02  1.28465E+03 -1.85129E+03
  7.52796E+02 -2.29237E+03  6.25976E+02 -1.03914E+03  2.51959E+02  1.79726E+02 -4.02642E+02  1.26618E+03
 -1.56024E+03  1.79315E+03 -2.68814E+03 -1.18768E+03 -1.53757E+03 -4.17456E+03  3.46964E+02 -1.76931E+03
  7.75674E+02 -9.97484E+02  1.49375E+03  2.84948E+00  9.94255E+02  5.36055E+02  4.50360E+01  1.66385E+03
 -1.78165E+02 -1.34518E+02 -1.61932E+03 -1.80911E+03  1.48358E+02 -1.68121E+03  3.01478E+03 -1.40732E+03
  1.69686E+03 -4.26500E+02  3.08881E+03  1.91813E+03  1.73738E+03  2.93015E+03 -2.14033E+02  1.68019E+03
 -1.80291E+03  5.47174E+02 -2.00826E+03  9.33388E+02 -9.22785E+02 -2.01850E+03  1.46806E+03 -8.14030E+02
  1.59556E+03 -1.22752E+03  4.51545E+02  9.72835E+02 -3.32852E+02  1.35628E+03 -2.83054E+02  1.68950E+03
 -1.41445E+03  1.50561E+03 -1.20009E+02  4.43636E+02 -1.70358E+02  5.63596E+02 -5.65502E+02  1.28407E+03
 -1.02874E+03  6.36176E+02 -2.19924E+03  2.84055E+02 -2.70083E+03  2.67405E+02 -3.62104E+03 -1.88954E+03
 -1.98925E+03 -3.34512E+03  6.74324E+02 -4.61431E+03  2.31532E+03 -4.37765E+03  6.22474E+03 -1.59891E+03
  3.97854E+03  4.82103E+02  2.18882E+03  1.99643E+03 -1.42773E+02  2.70602E+03 -2.17793E+03  6.32990E+02
 -2.28234E+03  1.66652E+03 -1.08310E+03 -2.49469E+01 -1.11888E+02  3.41534E+02 -1.17251E+03  4.41569E+02
 -1.11117E+03 -6.77160E+01 -9.19189E+02  4.93865E+02  9.03701E+02 -9.50970E+02 -6.64898E+02 -1.23090E+03
  1.24245E+03 -1.35960E+03  1.96739E+03  1.27099E+03  2.20378E+03  1.33932E+03  8.74950E+02  2.28530E+03
 -1.44926E+03  4.42479E+03 -2.33431E+03  2.64365E+03 -3.20850E+03  8.31566E+01 -2.03866E+03 -1.26622E+03
 -9.21089E+02 -3.65080E+03  4.71547E+02 -7.35098E+02  5.08355E+02 -5.37658E+02  5.77162E+02  3.31317E+02
  4.77016E+02  2.39848E+02  1.69845E+03  1.37480E+03  1.90328E+02 -9.78607E+02 -4.13773E+02 -9.68273E+02
  7.42512E+01 -1.33311E+02  6.24657E+02  1.61949E+03  6.39283E+02  1.69854E+02  2.19279E+03  5.74962E+02
 -9.59593E+02  8.64977E+02 -8.13567E+02  3.63373E+02 -2.36878E+03 -9.11353E+02  1.92231E+02 -1.46965E+03
  8.65380E+02 -1.77244E+03  3.66299E+02  5.48061E+02  1.85192E+03  3.83882E+02  1.88573E+03  1.42629E+02
  7.88717E+02  1.51942E+03 -4.72686E+01  9.67152E+02 -1.71915E+03  1.52858E+03 -5.82111E+02  8.99944E+00
 -5.73199E+02 -5.64256E+02 -5.36313E+02  2.23630E+02 -1.15404E+03  9.04813E+02  2.98135E+01  4.94595E+01
 -1.41170E+03  1.17675E+02  1.96794E+02 -2.34395E+03 -1.06178E+03 -2.23732E+03  2.17671E+03 -1.56873E+02
  1.87802E+03  2.12519E+02 -3.38615E+02  1.32588E+03 -5.88213E+02  1.04063E+03 -8.25955E+02  1.06314E+03
