 $NMID ID='MM_0lb_SNR200_7hz_g55_20.RAW', FMTDAT='(8E13.5)'
 TRAMP=1., VOLUME=1. $END
  3.10620E+05  2.30286E+03  3.38067E+05  2.50177E+05  8.42742E+04  3.37988E+05 -1.32253E+05  2.52667E+05
 -1.91990E+05  8.32362E+04 -1.13309E+05 -3.36649E+04  4.53777E+02 -5.09939E+04  5.34419E+04 -1.40488E+02
  3.63772E+04  5.39406E+04 -1.57114E+04  7.69082E+04 -6.30208E+04  6.53282E+04 -8.63363E+04  3.22137E+04
 -8.32340E+04 -1.14858E+04 -5.93152E+04 -5.36442E+04 -1.47706E+04 -7.25390E+04  2.82421E+04 -4.70861E+04
  4.24851E+04  4.09120E+03  1.71637E+04  4.75037E+04 -3.55334E+04  4.63368E+04 -6.75592E+04  1.51855E+03
 -5.60582E+04 -5.86934E+04 -7.60158E+03 -7.81331E+04  3.47684E+04 -5.85210E+04  5.21942E+04 -1.98540E+04
  4.68559E+04  1.19842E+04  3.47127E+04  2.81276E+04  1.62494E+04  3.24022E+04 -6.45576E+03  2.79096E+04
 -2.23448E+04  1.25521E+04 -1.91772E+04 -6.16208E+03  6.79002E+03 -8.15448E+03  2.39983E+04  1.26131E+04
  8.28022E+03  3.76673E+04 -3.60423E+04  3.55816E+04 -6.64361E+04  2.30920E+03 -5.80840E+04 -4.54709E+04
 -1.14955E+04 -6.73687E+04  4.15301E+04 -4.84896E+04  6.23138E+04 -1.75517E+03  3.80516E+04  3.54228E+04
 -6.03673E+03  4.29224E+04 -3.39523E+04  2.19968E+04 -3.45214E+04 -3.46587E+03 -2.28856E+04 -1.17958E+04
 -1.12601E+04 -1.72298E+04 -2.02749E+02 -2.07502E+04  8.68601E+03 -2.34635E+04  1.59280E+04 -1.42071E+04
  1.04992E+04  5.78318E+03 -1.18332E+04  1.16713E+04 -2.21252E+04 -7.97740E+03 -9.08934E+03 -3.91208E+04
  2.57723E+04 -4.88070E+04  5.51079E+04 -2.04474E+04  5.12877E+04  2.08344E+04  1.84166E+04  4.76376E+04
 -1.79656E+04  3.59915E+04 -3.05296E+04  4.36277E+03 -1.05755E+04 -3.02376E+04  2.03286E+04 -3.81796E+04
  4.54707E+04 -1.14595E+04  4.27862E+04  2.48655E+04  2.29043E+04  5.43201E+04 -9.42743E+03  5.97415E+04
 -3.87306E+04  4.21395E+04 -5.06040E+04  1.15138E+04 -4.91089E+04 -1.98511E+04 -2.78982E+04 -4.15405E+04
  8.11043E+03 -4.51800E+04  3.45138E+04 -1.86271E+04  3.29024E+04  1.21912E+04  4.90714E+03  2.23720E+04
 -1.39524E+04  1.01955E+04 -1.15191E+04 -7.97457E+03  7.44673E+03 -1.23895E+04  1.76471E+04  5.54430E+03
  1.51293E+04  2.35415E+04 -5.13988E+03  2.84540E+04 -2.23127E+04  1.58676E+04 -3.24929E+04 -1.41010E+03
 -2.77946E+04 -1.68360E+04 -1.20026E+04 -2.82843E+04  4.28822E+03 -2.88703E+04  2.02654E+04 -2.69250E+04
  3.43023E+04 -1.46349E+04  4.03088E+04  6.45695E+03  2.99103E+04  2.66649E+04  3.07968E+03  4.27470E+04
 -2.17876E+04  3.54041E+04 -3.16535E+04  1.28651E+04 -2.43742E+04 -9.50591E+03 -5.19074E+03 -1.15421E+04
  3.81606E+02 -9.28615E+02 -9.42765E+03  8.08640E+03 -2.28758E+04  4.08914E+03 -2.12983E+04 -1.28564E+04
 -1.49586E+04 -2.65580E+04  7.80282E+03 -3.08113E+04  1.97220E+04 -2.17317E+04  2.37142E+04 -3.05658E+03
  1.51754E+04  1.67993E+04 -4.47787E+02  2.60188E+04 -1.92752E+04  1.69193E+04 -2.74123E+04 -4.92878E+03
 -2.03600E+04 -2.26046E+04 -1.87345E+03 -3.21244E+04  1.51742E+04 -2.54588E+04  2.55177E+04 -1.14042E+04
  2.33371E+04  1.59936E+03  1.74435E+04  7.53123E+03  9.97770E+03  2.81277E+03  1.37309E+04 -1.12283E+03
  2.57957E+04  3.25075E+03  2.86064E+04  2.10835E+04  1.88069E+04  4.17510E+04 -2.30679E+03  4.87767E+04
 -2.84109E+04  4.33531E+04 -4.83297E+04  2.06889E+04 -5.05315E+04 -4.53688E+03 -4.12982E+04 -2.92067E+04
 -1.65273E+04 -4.13532E+04  1.67068E+04 -3.54700E+04  3.07964E+04 -1.70391E+04  2.76040E+04  8.66982E+03
  8.00590E+03  1.95154E+04 -1.14289E+04  1.84410E+04 -2.23025E+04  3.76987E+03 -1.63337E+04 -1.32419E+04
 -1.16161E+03 -2.17258E+04  1.17058E+04 -1.43957E+04  1.29096E+04  5.46172E+02  4.70207E+03  1.07566E+04
 -1.07932E+04  4.73340E+03 -9.89387E+03 -8.79270E+03 -9.51829E+02 -1.96678E+04  1.38132E+04 -2.18334E+04
  2.69915E+04 -1.32940E+04  3.11954E+04  2.44512E+03  2.50684E+04  2.20959E+04  1.35712E+04  3.47921E+04
 -6.10728E+03  3.81678E+04 -2.37725E+04  2.25582E+04 -2.47712E+04  1.94738E+03 -1.72585E+04 -6.71221E+03
 -6.44063E+03 -6.73998E+03  2.78289E+02 -1.44623E+03 -3.75787E+03  5.56506E+03 -8.33246E+03  5.81561E+03
 -1.57849E+04 -2.01513E+03 -1.66259E+04 -1.34028E+04 -5.92698E+03 -2.31677E+04  7.29675E+03 -1.72670E+04
  1.39475E+04 -6.34879E+03  9.14275E+03  6.35523E+03 -9.14737E+02  7.79923E+03 -9.19613E+03 -8.08447E+02
 -7.30367E+03 -1.01268E+04 -7.89742E+02 -1.70512E+04  1.20430E+04 -1.96762E+04  2.28499E+04 -1.21559E+04
  2.71629E+04  2.22670E+03  1.90921E+04  1.79010E+04  3.32547E+03  2.12410E+04 -1.18612E+04  1.76592E+04
 -1.73100E+04  4.32260E+03 -7.96045E+03 -4.15223E+03  2.54032E+03 -4.21179E+03  1.16207E+04 -5.05594E+02
  9.00383E+03  8.11453E+03  1.98412E+03  1.59906E+04 -9.63782E+03  1.53602E+04 -1.86362E+04  3.74962E+03
 -1.17670E+04 -1.11002E+04  9.94075E+02 -1.59898E+04  8.10211E+03 -8.54655E+03  1.36269E+04  4.00590E+03
  2.87241E+03  1.27165E+04 -9.98080E+03  1.44679E+04 -1.68256E+04  5.21465E+03 -1.77707E+04 -4.43097E+03
 -1.10038E+04 -1.97215E+04  4.75196E+03 -2.22529E+04  1.81656E+04 -1.24524E+04  1.97429E+04  3.73211E+03
  1.38439E+04  1.58152E+04 -2.13274E+03  1.87292E+04 -1.39267E+04  1.10878E+04 -1.55101E+04 -2.50319E+03
 -1.41260E+04 -1.25333E+04 -1.36580E+03 -1.33747E+04  8.31703E+03 -1.13761E+04  9.99431E+03 -4.21638E+03
  6.58282E+03  3.66573E+03 -2.48300E+03  2.20532E+03 -1.14866E+03 -3.22535E+03  4.90417E+03 -1.05255E+04
  1.45516E+04 -7.03931E+03  2.20306E+04  1.96748E+03  1.89780E+04  1.38415E+04  1.11892E+04  2.69632E+04
 -6.70293E+03  2.87496E+04 -2.41591E+04  2.29511E+04 -3.03356E+04  3.86263E+03 -2.34344E+04 -1.20953E+04
 -1.33553E+04 -2.07281E+04  2.51554E+02 -1.88307E+04  7.44090E+03 -1.11838E+04  4.88483E+03 -7.37404E+03
  5.78689E+03 -4.07195E+03  5.25257E+03 -6.78559E+03  7.11582E+03 -5.91347E+03  8.86763E+03 -1.58456E+03
  1.14043E+04  4.22295E+03  8.65616E+03  1.19748E+04 -2.48471E+03  1.56041E+04 -1.47353E+04  9.52437E+03
 -1.95681E+04  8.31963E+02 -1.17307E+04 -1.17784E+04 -2.46531E+03 -2.06599E+04  9.97853E+03 -2.06258E+04
  1.97871E+04 -1.21663E+04  2.42118E+04  3.84316E+03  1.71425E+04  1.82526E+04  4.61079E+02  2.41508E+04
 -9.25739E+03  1.66269E+04 -1.29670E+04  5.81207E+03 -1.08133E+04 -2.80453E+03 -4.19584E+03 -2.81351E+03
 -2.75323E+03 -9.36000E+02 -3.79967E+03  3.48976E+03 -6.28916E+03  3.23474E+03 -1.36652E+04 -2.45950E+03
 -8.14138E+03 -1.20560E+04 -4.11286E+02 -2.02335E+04  1.22169E+04 -1.62495E+04  1.89714E+04 -5.60729E+03
  1.98269E+04  9.59464E+03  8.59217E+03  1.73648E+04 -3.71841E+03  2.03336E+04 -1.29851E+04  1.32579E+04
 -1.77393E+04 -1.22823E+03 -1.36169E+04 -1.12881E+04 -5.47187E+02 -1.64543E+04  7.96207E+03 -1.17033E+04
  1.06963E+04 -4.16192E+03  8.11729E+03  4.02209E+03  3.04102E+03  7.80517E+03  2.79285E+03  3.20788E+03
  3.41392E+03  1.15987E+03  4.02263E+03  1.82309E+03  6.05083E+03  6.56752E+03  4.82275E+03  1.04662E+04
 -2.99790E+03  1.50828E+04 -1.43364E+04  1.46337E+04 -1.99577E+04  3.72689E+03 -2.25727E+04 -1.04870E+04
 -9.80564E+03 -2.04276E+04  3.30206E+03 -2.18901E+04  9.53842E+03 -1.60390E+04  1.55732E+04 -4.70909E+03
  1.22535E+04  9.14418E+03  3.03728E+03  1.07262E+04 -8.15285E+03  8.42121E+03 -9.49882E+03 -3.41748E+03
 -4.46226E+03 -8.53769E+03  5.15614E+03 -9.04269E+03  8.76272E+03 -3.34391E+03  6.31629E+03  3.50010E+03
  5.68391E+03  2.84661E+03  1.69671E+03  1.02822E+03  1.84424E+02  2.46983E+03  1.94156E+03 -2.14701E+03
  2.59544E+03 -1.34305E+03  8.10624E+03  3.39398E+03  4.75693E+03  1.08197E+04 -2.38128E+03  1.33286E+04
 -1.07626E+04  9.51021E+03 -1.31014E+04  2.72262E+03 -1.13896E+04 -4.18026E+03 -5.34605E+03 -8.96763E+03
  1.14259E+03 -7.13691E+03  5.21180E+03 -2.83738E+03  5.52305E+03  3.35965E+03 -1.21470E+02  6.25524E+03
 -9.70851E+03  5.01629E+03 -1.18474E+04 -4.35857E+03 -6.30597E+03 -1.14608E+04  1.95125E+03 -1.30674E+04
  8.24239E+03 -7.60703E+03  1.01659E+04 -5.28938E+02  5.70139E+03  2.58376E+03  1.06906E+03  8.02017E+03
 -5.23463E+03  1.71713E+03 -6.54912E+03 -5.21411E+03  1.25999E+03 -9.31105E+03  9.71768E+03 -6.76639E+03
  1.17797E+04  5.37692E+02  1.50476E+04  8.91422E+03  4.43545E+03  1.37662E+04 -6.16712E+03  1.31263E+04
 -1.18155E+04  7.55620E+03 -1.18451E+04 -6.23556E+02 -6.51005E+03 -9.94442E+03  1.68190E+03 -9.09425E+03
  1.00135E+04 -3.92514E+03  6.64313E+03  3.92527E+03  3.22177E+03  8.18196E+03 -2.18443E+03  5.69671E+03
 -3.36967E+03  3.99228E+03 -4.07719E+03  2.62291E+03 -2.83697E+03  1.46472E+03 -1.62567E+03  3.12137E+03
 -2.80485E+03  5.57217E+03 -8.47422E+03  5.25006E+03 -1.44230E+04 -2.67196E+02 -1.52513E+04 -9.70660E+03
 -8.93753E+03 -1.73074E+04  3.98406E+03 -2.19359E+04  1.39626E+04 -1.74472E+04  2.19197E+04 -7.21982E+03
  2.02119E+04  5.03810E+03  1.12594E+04  1.27171E+04  2.42574E+03  1.40751E+04 -5.93413E+03  1.08560E+04
 -8.39825E+03  3.15726E+03 -3.46546E+03 -2.44191E+03 -1.13217E+03 -3.44169E+03 -2.54462E+03 -1.42267E+03
 -4.17878E+03 -4.17645E+02 -2.17740E+03  6.47152E+01 -2.17694E+03 -4.28768E+03  1.67321E+03 -7.66735E+03
  6.72461E+03 -4.39605E+03  1.11750E+04  1.06330E+03  1.01260E+04  7.72911E+03  3.55474E+03  1.66150E+04
 -6.98448E+03  1.65026E+04 -1.64511E+04  9.05747E+03 -1.88152E+04 -6.36744E+02 -1.43601E+04 -1.10442E+04
 -6.16399E+03 -1.54475E+04  4.38396E+03 -1.66371E+04  1.15227E+04 -9.76147E+03  1.03685E+04 -9.82058E+02
  5.84119E+03  4.12798E+03 -3.24108E+02  5.62887E+03 -3.02245E+03 -1.02950E+03 -1.54433E+03 -3.65191E+03
  5.40656E+03 -3.42539E+03  5.14840E+03  1.26421E+03  4.36355E+03  5.73559E+03  4.99988E+01  7.64624E+03
 -7.18992E+03  5.39171E+03 -1.22752E+04 -3.26933E+01 -1.00084E+04 -7.83817E+03 -4.28992E+02 -1.40019E+04
  7.73523E+03 -1.09270E+04  1.25657E+04 -3.15350E+03  1.24157E+04  3.24253E+03  6.89889E+03  1.09730E+04
  2.99855E+03  1.14132E+04 -5.88539E+03  9.96389E+03 -7.42587E+03  4.99681E+03 -5.89942E+03  1.39479E+03
 -3.52064E+03 -9.16895E+02 -1.76072E+03  1.93722E+03 -6.52670E+03  5.58399E+02 -8.33803E+03 -1.11389E+03
 -7.93035E+03 -4.53758E+03 -1.80278E+03 -9.89472E+03  6.66642E+03 -1.04026E+04  9.37678E+03 -4.54323E+03
  1.12618E+04  1.81817E+03  7.71836E+03  8.06046E+03 -1.18849E+03  1.06862E+04 -8.33827E+03  7.88800E+03
