 $NMID ID='MM_0lb_SNR200_11hz_g50_81.RAW', FMTDAT='(8E13.5)'
 TRAMP=1., VOLUME=1. $END
  3.10809E+05 -4.23371E+02  3.38589E+05  2.51383E+05  8.39951E+04  3.38689E+05 -1.31377E+05  2.51771E+05
 -1.91133E+05  8.48138E+04 -1.10707E+05 -3.20278E+04  7.68814E+02 -5.12750E+04  5.40197E+04 -1.30485E+03
  3.62523E+04  5.37064E+04 -1.72810E+04  7.63172E+04 -6.14777E+04  6.44509E+04 -8.42852E+04  3.29147E+04
 -8.22155E+04 -1.06352E+04 -5.62662E+04 -5.22943E+04 -1.42606E+04 -7.03882E+04  2.80119E+04 -4.67862E+04
  4.02305E+04  3.72876E+03  1.62425E+04  4.77270E+04 -3.55426E+04  4.75386E+04 -6.72473E+04 -9.46724E+02
 -5.49745E+04 -5.58747E+04 -7.05646E+03 -7.78156E+04  3.45001E+04 -5.58508E+04  4.91845E+04 -1.88483E+04
  4.43256E+04  1.22224E+04  3.12200E+04  2.72109E+04  1.63217E+04  2.90652E+04 -5.21648E+03  2.57740E+04
 -2.28214E+04  1.13274E+04 -1.79050E+04 -4.88191E+03  6.55590E+03 -9.55862E+03  2.29998E+04  1.24885E+04
  6.72380E+03  3.63690E+04 -3.18824E+04  3.61855E+04 -6.42269E+04  1.71359E+03 -5.80222E+04 -4.54957E+04
 -1.49350E+04 -6.76864E+04  4.05181E+04 -4.65088E+04  6.06103E+04 -3.14828E+03  3.52463E+04  3.30518E+04
 -5.10064E+03  3.92837E+04 -3.02161E+04  1.74621E+04 -3.12158E+04 -4.67187E+03 -1.88515E+04 -1.17370E+04
 -9.72734E+03 -1.50712E+04  2.68747E+02 -1.86197E+04  8.42591E+03 -2.31555E+04  1.61736E+04 -1.29345E+04
  1.03946E+04  6.48542E+03 -9.04809E+03  1.19816E+04 -2.18084E+04 -5.35900E+03 -8.68733E+03 -3.47533E+04
  2.35417E+04 -4.60896E+04  5.12563E+04 -2.13763E+04  4.72533E+04  1.96155E+04  1.70177E+04  4.68947E+04
 -1.62484E+04  3.51840E+04 -2.65749E+04  2.52458E+03 -1.22554E+04 -2.73267E+04  2.07173E+04 -3.53721E+04
  4.38031E+04 -9.80766E+03  3.74563E+04  2.60608E+04  1.91991E+04  5.04780E+04 -8.08765E+03  5.38705E+04
 -3.42573E+04  3.56563E+04 -4.51250E+04  1.24980E+04 -4.67498E+04 -1.80741E+04 -2.54906E+04 -4.14451E+04
  8.14403E+03 -3.88605E+04  3.33611E+04 -1.60889E+04  3.10542E+04  1.21015E+04  6.33721E+03  2.05271E+04
 -1.35494E+04  8.43302E+03 -1.10631E+04 -7.29185E+03  5.37526E+03 -1.12645E+04  1.80399E+04  6.38787E+03
  1.39566E+04  2.22967E+04 -5.39031E+03  2.48157E+04 -2.26001E+04  1.23616E+04 -2.87868E+04 -3.92869E+03
 -2.41297E+04 -1.82464E+04 -1.08358E+04 -2.35405E+04  3.13626E+03 -2.27934E+04  1.81011E+04 -2.01946E+04
  2.91186E+04 -1.32764E+04  3.57235E+04  4.10372E+03  2.49112E+04  2.23288E+04  3.79464E+03  3.90537E+04
 -1.84548E+04  3.35503E+04 -2.97616E+04  1.25512E+04 -2.11733E+04 -1.04569E+04 -4.48457E+03 -1.18080E+04
  1.18216E+02 -2.03043E+03 -7.07337E+03  6.67749E+03 -2.09341E+04  4.98804E+03 -1.87111E+04 -8.36931E+03
 -1.19101E+04 -2.22970E+04  6.58955E+03 -2.59690E+04  1.71239E+04 -1.95588E+04  2.06804E+04 -1.29702E+03
  1.40200E+04  1.42177E+04 -3.10307E+02  2.06594E+04 -1.46366E+04  1.26555E+04 -2.11903E+04 -3.34905E+03
 -1.86579E+04 -1.91466E+04 -3.80638E+03 -2.61372E+04  1.11972E+04 -2.23256E+04  2.12863E+04 -1.18427E+04
  1.91548E+04  2.57695E+02  1.42977E+04  4.41024E+03  8.73261E+03  1.80206E+03  1.12809E+04 -1.80765E+03
  2.09480E+04  3.18010E+03  2.34505E+04  1.81508E+04  1.48094E+04  3.52307E+04 -3.16951E+03  4.12880E+04
 -2.28521E+04  3.15792E+04 -3.83539E+04  1.74160E+04 -4.10167E+04 -2.14391E+03 -3.11148E+04 -2.40977E+04
 -1.35356E+04 -3.37839E+04  1.13706E+04 -2.86168E+04  2.50374E+04 -1.35583E+04  2.32664E+04  7.64271E+03
  7.11528E+03  1.74764E+04 -1.05101E+04  1.33462E+04 -1.80215E+04  2.50068E+03 -1.50802E+04 -1.14066E+04
  4.80795E+02 -1.76957E+04  7.68596E+03 -1.32332E+04  1.20281E+04 -1.21360E+03  2.37111E+03  6.69170E+03
 -7.65735E+03  2.93019E+03 -8.27212E+03 -7.63555E+03 -4.15866E+02 -1.65563E+04  1.17734E+04 -1.77500E+04
  2.10642E+04 -9.13520E+03  2.39690E+04  2.15383E+03  2.01842E+04  1.54700E+04  9.96116E+03  2.58669E+04
 -3.08648E+03  2.73593E+04 -1.64361E+04  1.69718E+04 -2.05672E+04  3.54539E+03 -1.30213E+04 -5.49756E+03
 -6.78500E+03 -6.31861E+03  4.09202E+02  9.31207E+02 -1.69537E+03  2.90524E+03 -7.39982E+03  4.38158E+03
 -1.18798E+04  9.33452E+01 -1.35143E+04 -1.01764E+04 -6.55952E+03 -1.70824E+04  7.04599E+03 -1.33247E+04
  1.17380E+04 -5.12460E+03  8.41790E+03  2.10026E+03  2.28312E+02  6.50844E+03 -5.13471E+03  9.52781E+02
 -7.26569E+03 -9.31639E+03  4.12173E+02 -1.20391E+04  6.80192E+03 -1.41856E+04  1.73574E+04 -6.82111E+03
  1.99428E+04  1.34715E+03  1.51928E+04  1.22219E+04  2.69235E+03  1.67017E+04 -9.37967E+03  1.55094E+04
 -1.08557E+04  3.54644E+03 -5.67422E+03 -2.37282E+03  2.30256E+03 -3.48566E+03  6.73566E+03 -5.71783E+02
  6.20832E+03  6.62309E+03 -6.63924E+02  1.15161E+04 -7.70569E+03  1.04379E+04 -1.36347E+04  1.72744E+03
 -9.41826E+03 -6.98138E+03  1.06948E+03 -1.10540E+04  7.16089E+03 -6.78486E+03  8.35829E+03  2.72874E+03
  9.76973E+02  9.16706E+03 -5.76468E+03  8.28777E+03 -1.05367E+04  3.49287E+03 -1.13896E+04 -3.37538E+03
 -5.65714E+03 -1.34102E+04  2.21786E+03 -1.55040E+04  1.52484E+04 -8.97113E+03  1.36829E+04  8.76620E+02
  9.61566E+03  1.15889E+04 -1.65791E+03  1.40379E+04 -9.69059E+03  8.23795E+03 -1.14019E+04 -1.19244E+03
 -8.92270E+03 -8.69893E+03 -1.77190E+03 -9.95789E+03  4.75749E+03 -8.33382E+03  5.65628E+03 -4.22161E+03
  4.69776E+03  2.63378E+02 -2.20864E+03  2.46203E+03 -5.23399E+02 -2.79026E+03  3.62292E+03 -6.66977E+03
  8.84751E+03 -3.97403E+03  1.37615E+04  1.37784E+03  1.30520E+04  8.97342E+03  8.67018E+03  1.71602E+04
 -3.02981E+03  2.04120E+04 -1.71736E+04  1.39106E+04 -2.14677E+04  3.18994E+03 -1.65353E+04 -8.41807E+03
 -9.94786E+03 -1.43171E+04 -7.52440E+02 -1.17592E+04  3.63987E+03 -7.14906E+03  4.71048E+03 -2.67853E+03
  4.36898E+03 -4.48528E+03  4.68084E+03 -2.86260E+03  4.02777E+03 -3.81041E+03  7.97067E+03 -1.16553E+03
  9.27934E+03  3.10476E+03  3.62314E+03  8.42030E+03 -2.18570E+03  9.28878E+03 -9.33289E+03  5.31778E+03
 -1.28621E+04 -1.24923E+03 -7.35095E+03 -8.38003E+03 -6.62225E+02 -1.25359E+04  7.69644E+03 -1.16765E+04
  1.29501E+04 -8.16055E+03  1.56460E+04  2.28813E+03  1.11275E+04  1.15118E+04  2.62828E+03  1.45659E+04
 -6.65076E+03  1.09679E+04 -8.68165E+03  4.34953E+03 -5.70180E+03 -6.53466E+02 -2.05292E+03 -1.91628E+03
 -3.21210E+03  1.19227E+03 -6.86987E+02  2.89643E+03 -4.16385E+03  1.89838E+03 -7.52502E+03 -4.53765E+02
 -5.75247E+03 -8.53317E+03 -3.85458E+02 -1.10340E+04  7.71957E+03 -1.04504E+04  1.05789E+04 -3.07903E+03
  1.18992E+04  6.08342E+03  4.99521E+03  1.05485E+04 -3.18898E+03  1.09932E+04 -8.75340E+03  7.69185E+03
 -1.19622E+04  4.36967E+02 -9.59953E+03 -8.18970E+03 -2.38096E+03 -1.00413E+04  5.63670E+03 -8.66717E+03
  6.74697E+03 -2.25709E+03  4.41939E+03  2.10580E+03  2.04138E+03  3.31748E+03  1.32326E+03  1.28627E+03
  2.61779E+03  1.64149E+02  2.17161E+03  1.79973E+03  4.89019E+03  3.64952E+03  4.42365E+03  6.98299E+03
 -1.87280E+03  8.41886E+03 -6.28877E+03  9.13710E+03 -1.16985E+04  3.43850E+03 -1.29860E+04 -4.65822E+03
 -5.57406E+03 -1.26697E+04  1.83076E+03 -1.28190E+04  6.27432E+03 -7.65330E+03  9.64014E+03 -1.40415E+03
  8.69071E+03  4.71124E+03  2.28694E+03  6.86893E+03 -3.02796E+03  4.91761E+03 -3.18001E+03 -1.60308E+03
 -2.46736E+03 -5.33707E+03  3.22141E+03 -5.62896E+03  3.31991E+03 -2.68899E+03  4.61462E+03  1.10509E+03
  3.03082E+03  2.22176E+03 -1.61006E+01  1.32877E+03 -5.22442E+01  1.70281E+03  2.21930E+03  1.30556E+02
  1.49992E+03  1.27717E+03  4.27972E+03  1.86611E+03  3.02479E+03  7.07928E+03 -1.40828E+03  8.69820E+03
 -4.98088E+03  5.32682E+03 -6.51684E+03  2.53255E+02 -6.24939E+03 -2.81523E+03 -2.51246E+03 -4.41988E+03
  2.50144E+02 -5.72824E+03  3.49971E+03 -1.77477E+03  2.26063E+03  3.40841E+03 -1.05970E+03  2.64811E+03
 -3.87896E+03  1.58807E+03 -4.91217E+03 -2.48435E+03 -1.83646E+03 -5.57559E+03  1.58643E+03 -6.04574E+03
  2.76881E+03 -3.22369E+03  4.57123E+03  4.16719E+02  5.48578E+03  1.41777E+03  2.55950E+02  3.16153E+03
 -2.59743E+03  7.83467E+02 -1.29636E+03 -2.14557E+03  1.06805E+03 -4.68698E+03  5.85256E+03 -4.14091E+03
  7.19194E+03  9.11994E+02  7.35989E+03  4.18776E+03  1.10367E+03  8.23921E+03 -2.27244E+03  7.89133E+03
 -6.97544E+03  2.51440E+03 -5.78761E+03 -8.91078E+02 -2.89546E+03 -5.13215E+03  1.79079E+03 -3.59926E+03
  4.61797E+03 -3.01234E+03  4.56667E+03  1.67766E+03  1.34398E+02  4.65722E+03 -8.69419E+02  3.42407E+03
 -1.60303E+03  2.31202E+03 -2.20004E+03  1.14438E+03 -2.44994E+02  5.40447E+02 -4.68555E+02  2.74517E+03
 -3.28907E+03  2.37700E+03 -5.81758E+03  2.18784E+03 -8.36754E+03  1.15680E+03 -6.93146E+03 -4.54792E+03
 -2.86926E+03 -9.37453E+03  1.88510E+03 -1.15062E+04  7.86335E+03 -8.73125E+03  1.06229E+04 -2.36710E+03
  1.08518E+04  9.87408E+02  6.47722E+03  7.05916E+03 -3.00683E+02  8.08089E+03 -2.56473E+03  4.07861E+03
 -5.37792E+03  2.18103E+03 -2.00051E+03 -1.43099E+03  5.37277E+02  3.71875E+01 -1.47460E+03 -5.85380E+02
 -1.83053E+03  9.25996E+02 -5.63930E+02  4.36986E+02 -1.31367E+03 -1.84069E+03  3.51528E+00 -2.93608E+03
  3.33911E+03 -1.91922E+03  5.27412E+03  1.27278E+03  4.97726E+03  4.57998E+03  1.52998E+03  7.92427E+03
 -3.90814E+03  8.68404E+03 -6.52802E+03  4.25478E+03 -8.61314E+03  5.65314E+01 -6.25945E+03 -4.49483E+03
 -2.67340E+03 -7.16633E+03  2.07552E+03 -7.18619E+03  4.59007E+03 -3.71526E+03  4.04404E+03  2.97000E+02
  1.84451E+03  2.14295E+03  9.08303E+02  1.77498E+03 -8.13923E+02 -5.12044E+01 -2.10449E+02 -2.93939E+02
  2.94317E+03 -1.17562E+03  2.94725E+03  8.93187E+01  2.72936E+03  2.59962E+03  1.17600E+03  3.46919E+03
 -5.03742E+03  3.36693E+03 -5.80623E+03  7.35746E+02 -3.97253E+03 -2.53421E+03 -2.11897E+03 -7.10869E+03
  3.39795E+03 -4.48992E+03  5.08312E+03 -5.67508E+02  5.07801E+03  2.96145E+03  3.45896E+03  5.19274E+03
  7.32254E+02  4.72979E+03 -2.75397E+03  3.49068E+03 -3.39921E+03  2.14641E+03 -3.70363E+03  1.17871E+03
  1.35802E+02 -1.75538E+03 -1.10722E+03  9.45682E+02 -2.42189E+03  5.41413E+02 -3.70151E+03 -4.65688E+02
 -1.64440E+03 -2.33349E+03 -6.99784E+02 -5.15009E+03  1.84786E+03 -5.49049E+03  6.10153E+03 -2.08726E+03
  4.42492E+03  7.38010E+02  1.40755E+03  2.60316E+03 -1.63017E+03  5.02061E+03 -3.23926E+03  2.19827E+03
