 $NMID ID='MM_0lb_SNR200_17hz_g40_9.RAW', FMTDAT='(8E13.5)'
 TRAMP=1., VOLUME=1. $END
  3.09324E+05 -2.06807E+02  3.36976E+05  2.50404E+05  8.52840E+04  3.37782E+05 -1.31388E+05  2.51581E+05
 -1.88486E+05  8.28528E+04 -1.10264E+05 -3.14883E+04  7.17548E+02 -5.10534E+04  5.32967E+04  6.67742E+02
  3.49557E+04  5.21218E+04 -1.65235E+04  7.53342E+04 -5.97277E+04  6.33790E+04 -8.32879E+04  3.24458E+04
 -8.10024E+04 -1.12535E+04 -5.74368E+04 -5.01328E+04 -1.50853E+04 -6.82565E+04  2.70060E+04 -4.50149E+04
  3.86906E+04  4.01764E+03  1.48251E+04  4.67648E+04 -3.29504E+04  4.50690E+04 -6.43824E+04 -4.11469E+02
 -5.14249E+04 -5.60367E+04 -7.12800E+03 -7.50182E+04  3.35850E+04 -5.37247E+04  4.61928E+04 -1.60832E+04
  4.27786E+04  1.08327E+04  3.19791E+04  2.42202E+04  1.61434E+04  2.84826E+04 -4.66848E+03  2.65405E+04
 -2.12538E+04  1.27574E+04 -1.92678E+04 -4.10152E+03  3.71025E+03 -7.59657E+03  2.20890E+04  1.11977E+04
  8.15197E+03  3.43211E+04 -3.04601E+04  3.36786E+04 -6.13933E+04  3.04948E+03 -5.60209E+04 -4.14910E+04
 -1.22153E+04 -6.11035E+04  3.80281E+04 -4.29163E+04  5.56000E+04 -2.47245E+03  3.29747E+04  3.07972E+04
 -6.50106E+03  3.24352E+04 -2.93357E+04  1.40039E+04 -2.85095E+04 -5.20928E+03 -1.52245E+04 -1.07833E+04
 -7.84287E+03 -1.12389E+04 -8.58057E+02 -1.69033E+04  7.74643E+03 -2.38319E+04  1.45249E+04 -1.39191E+04
  1.24598E+04  3.59241E+03 -5.56603E+03  1.25338E+04 -1.99259E+04 -1.93351E+03 -8.46041E+03 -3.06011E+04
  2.05055E+04 -4.09317E+04  4.49560E+04 -1.93290E+04  4.26496E+04  1.79570E+04  1.43481E+04  4.23803E+04
 -1.58931E+04  3.02345E+04 -2.35192E+04  1.83277E+03 -9.06478E+03 -2.64990E+04  2.13717E+04 -3.20573E+04
  3.92571E+04 -8.27625E+03  3.22997E+04  2.37651E+04  1.51632E+04  4.31634E+04 -7.94716E+03  4.55137E+04
 -2.89567E+04  2.95817E+04 -3.81162E+04  7.53692E+03 -3.94070E+04 -1.47104E+04 -2.15888E+04 -3.56317E+04
  6.63948E+03 -3.42568E+04  2.97366E+04 -1.41276E+04  2.68189E+04  1.06625E+04  3.43657E+03  1.72977E+04
 -1.23851E+04  7.49505E+03 -1.00354E+04 -7.70465E+03  5.16273E+03 -1.15344E+04  1.88140E+04  6.82492E+03
  1.15253E+04  2.04832E+04 -6.63761E+03  2.36670E+04 -2.09967E+04  9.30245E+03 -2.55297E+04 -6.30743E+03
 -1.75982E+04 -1.62403E+04 -5.81645E+03 -1.74181E+04  3.35494E+03 -1.49356E+04  1.22811E+04 -1.60343E+04
  2.07982E+04 -1.15373E+04  2.96323E+04  2.85551E+02  2.08165E+04  1.69744E+04  3.97122E+03  3.25687E+04
 -1.55688E+04  2.78431E+04 -2.63979E+04  9.86686E+03 -1.97573E+04 -9.70163E+03 -3.94565E+03 -1.40436E+04
  2.41514E+03 -3.96396E+03 -3.42850E+03  6.15561E+03 -1.34677E+04  5.15345E+03 -1.33037E+04 -4.54139E+03
 -9.55607E+03 -1.55561E+04  4.11126E+03 -2.02332E+04  1.25389E+04 -1.46653E+04  1.54845E+04 -2.02437E+03
  9.66837E+03  1.19020E+04 -7.64138E+02  1.62277E+04 -1.04500E+04  9.68913E+03 -1.67923E+04 -2.56926E+03
 -1.15177E+04 -1.60119E+04 -2.31693E+03 -1.91374E+04  8.85057E+03 -1.54822E+04  1.66163E+04 -8.17996E+03
  1.46869E+04 -1.04189E+01  1.18023E+04  4.14675E+03  5.37166E+03  2.93979E+02  8.77098E+03 -2.21170E+03
  1.51497E+04  2.62581E+03  1.58543E+04  1.23559E+04  9.73794E+03  2.44750E+04 -2.51617E+03  2.75378E+04
 -1.71221E+04  2.13439E+04 -2.60291E+04  1.01459E+04 -2.65768E+04 -1.52620E+03 -2.30660E+04 -1.50291E+04
 -1.09553E+04 -2.06858E+04  8.20213E+03 -1.94155E+04  1.64229E+04 -1.11667E+04  1.52804E+04  4.22276E+03
  7.10325E+03  1.20361E+04 -7.76191E+03  1.01369E+04 -1.27304E+04  2.22271E+03 -1.02035E+04 -8.69008E+03
 -1.53768E+02 -1.39058E+04  6.56584E+03 -1.00488E+04  7.34445E+03 -5.72220E+01  7.21413E+02  4.59449E+03
 -6.53434E+03  1.55461E+03 -4.92353E+03 -4.54558E+03  5.03470E+02 -1.08953E+04  8.71121E+03 -1.09765E+04
  1.31068E+04 -4.75382E+03  1.23304E+04  3.85499E+03  1.08440E+04  9.91197E+03  5.48500E+03  1.46198E+04
 -2.15535E+03  1.64191E+04 -9.92633E+03  1.04738E+04 -1.19539E+04  1.94836E+03 -8.99639E+03 -1.64482E+03
 -5.17123E+03 -3.69988E+03  1.02665E+02  1.43218E+03 -1.20180E+03  2.49149E+03 -4.73606E+03  3.67237E+03
 -8.84009E+03 -9.90296E+00 -9.18182E+03 -8.22434E+03 -2.98216E+03 -1.19652E+04  3.86366E+03 -9.02672E+03
  7.31811E+03 -4.64051E+03  4.65558E+03  2.37881E+03  7.74349E+02  3.39310E+03 -3.06129E+03 -4.61649E+02
 -4.71370E+03 -5.73600E+03  4.53245E+01 -6.85466E+03  4.74494E+03 -8.79522E+03  1.12461E+04 -4.28760E+03
  1.17631E+04  8.56239E+01  1.04562E+04  6.97073E+03  1.48884E+03  9.07814E+03 -5.39832E+03  9.51067E+03
 -7.22556E+03  3.09866E+03 -3.08886E+03 -1.20019E+03  9.33029E+02 -1.80441E+03  3.39351E+03 -7.37680E+02
  4.53737E+03  3.68182E+03  7.82943E+02  6.16560E+03 -4.56677E+03  6.76068E+03 -7.71278E+03  1.95767E+03
 -5.02270E+03 -3.58551E+03  3.65889E+02 -7.90598E+03  4.18653E+03 -4.14318E+03  4.64336E+03  7.09575E+02
  5.11226E+02  3.29275E+03 -3.42791E+03  6.01297E+03 -5.45442E+03  2.61412E+03 -5.19130E+03 -8.38432E+02
 -3.37501E+03 -6.28809E+03  1.91601E+03 -8.07334E+03  6.37310E+03 -4.92551E+03  6.55735E+03  6.38367E+02
  4.77911E+03  4.92059E+03  3.66692E+02  7.39978E+03 -5.54430E+03  4.34975E+03 -6.28891E+03  3.44532E+02
 -6.02920E+03 -5.64982E+03 -1.13162E+03 -6.83520E+03  2.50827E+03 -5.73917E+03  3.50329E+03 -3.36065E+03
  3.22999E+03  3.94145E+02  3.76572E+02  5.16024E+02  7.26164E+02 -9.16931E+02 -6.56552E+02 -1.72027E+03
  3.54127E+03 -5.43672E+02  5.85138E+03  1.16021E+03  5.42593E+03  3.27609E+03  5.70666E+03  7.27542E+03
 -2.12167E+03  8.91833E+03 -9.17841E+03  8.41767E+03 -1.17284E+04  2.61194E+03 -8.66013E+03 -3.05581E+03
 -5.04476E+03 -6.12436E+03 -1.53239E+03 -6.27441E+03  3.58907E+03 -2.33930E+03  1.85401E+03 -1.24512E+03
  1.06252E+03 -2.20837E+03  1.88802E+03 -2.59327E+03  3.64063E+03 -1.01976E+03  3.08728E+03  9.57294E+02
  5.69855E+03  5.47642E+02  1.49925E+03  4.07663E+03 -1.51833E+03  3.20515E+03 -4.74420E+03  4.39125E+03
 -6.55498E+03 -2.36260E+03 -2.44369E+03 -4.29246E+03 -1.51991E+03 -6.51190E+03  3.41119E+03 -6.58083E+03
  6.34147E+03 -3.41028E+03  7.73358E+03  7.80528E+02  5.60559E+03  4.63771E+03  4.01527E+02  7.15998E+03
 -1.57602E+03  6.42769E+03 -3.36559E+03  3.02968E+03 -2.32669E+03 -1.39004E+03 -4.45599E+02 -8.91569E+01
 -6.05679E+02  1.14822E+03 -7.76779E+02  2.25356E+03 -3.37861E+03  1.87628E+03 -5.90023E+03  1.11627E+02
 -2.01418E+03 -3.55417E+03  2.80075E+02 -4.98340E+03  2.13902E+03 -5.09952E+03  3.67252E+03 -6.70356E+02
  5.16943E+03  2.22668E+03  2.37525E+03  3.81975E+03 -1.25962E+03  5.61940E+03 -3.17030E+03  3.90495E+03
 -4.15480E+03  9.26248E+02 -4.40216E+03 -3.18710E+03 -9.31872E+02 -2.92655E+03  1.94893E+03 -3.37249E+03
  3.77275E+03 -2.69132E+02  2.20105E+03  1.61535E+03  9.34800E+02  2.12005E+03 -8.18901E+02  5.48910E+02
  7.00369E+02  9.09763E+02  1.56497E+03  1.73523E+03  1.46990E+03  1.77858E+03  1.20456E+03  2.12883E+03
 -1.29719E+03  3.53792E+03 -2.45821E+03  4.99607E+03 -4.09855E+03  1.16976E+03 -5.86799E+03 -2.01867E+03
 -2.46157E+03 -4.87811E+03  9.25964E+02 -4.67719E+03  2.44551E+03 -3.19699E+03  4.34663E+03 -1.27446E+03
  3.24083E+03  2.06385E+03  1.75811E+03  3.07320E+03 -8.76348E+02  2.03204E+03 -1.73095E+03 -2.65222E+02
 -1.02733E+03 -2.70270E+03  9.82330E+02 -8.67240E+02  1.41321E+03 -8.55756E+02  2.08072E+03  2.77389E+02
 -5.17072E+01  2.60302E+02  1.55412E+03 -5.40421E+02 -1.54803E+02  1.13823E+03  1.30760E+03 -9.51428E+02
 -7.40926E+02  8.33908E+02  1.42579E+03  2.04547E+02  6.21861E+02  2.55166E+03  2.47049E+01  3.19804E+03
 -2.57600E+03  6.22445E+02 -3.32682E+03 -4.88880E+02 -1.90189E+03 -6.49084E+02  3.21508E+02 -1.00790E+03
 -6.71249E+02 -9.67200E+02  6.65959E+02 -7.86304E+02  1.37319E+03  1.19373E+03 -8.25095E+02  1.18475E+03
 -2.24833E+03  1.47510E+03 -1.53428E+03 -2.19839E+03 -1.65151E+03 -1.94932E+03  7.91895E+02 -2.65162E+03
  7.87710E+02 -1.02623E+02  1.73124E+03 -5.80420E+02  1.06011E+03 -8.60843E+02  8.25780E+02  1.43379E+03
 -1.20120E+03 -8.69031E+01 -1.31143E+03 -5.21998E+02  2.81068E+02 -1.47280E+03  1.52496E+03 -4.11639E+02
  2.24503E+03  4.87271E+00  2.45610E+03  1.11617E+03  3.68834E+02  2.34447E+03  3.25971E+02  2.10423E+03
 -2.18217E+03 -6.02350E+02 -1.57293E+03 -2.74597E+02 -1.76767E+03 -1.51603E+03  1.75745E+02  1.11227E+02
  1.58767E+03 -1.68492E+03  2.18545E+03 -2.85426E+01  3.67479E+02  9.09973E+02 -1.09828E+03  1.26557E+03
  1.25143E+02  2.36248E+03 -6.20173E+02 -1.02872E+02 -2.47236E+02  3.31144E+02 -2.48535E+03  8.57251E+02
 -3.01068E+02  1.55478E+03 -2.63865E+03  1.04385E+03 -2.53207E+03  4.00703E+02 -2.27727E+03 -7.94135E+02
 -1.90374E+03 -3.03118E+03  9.71177E+02 -3.61845E+03  1.16988E+03 -3.15137E+03  2.82307E+03 -1.86907E+03
  2.05057E+03 -2.53354E+02  4.00258E+02  2.65189E+03  8.62582E+02  2.06947E+03 -1.20358E+03  2.48792E+03
 -1.18744E+03  1.15375E+03 -6.78683E+02 -6.12079E+02 -4.20557E+02  3.81422E+02 -1.06566E+03  5.34120E+02
 -1.77562E+03 -8.63343E+01 -1.86422E+03 -9.68563E+02  6.38057E+01 -1.20648E+03  7.07288E+02 -8.18586E+02
  3.03457E+03 -1.09117E+03  7.76308E+02  6.66573E+02  2.10353E+03  1.40331E+03  2.04262E+02  1.18199E+03
 -1.74267E+03  3.54649E+03 -1.37689E+03  1.75709E+03 -2.10035E+03  5.27226E+02 -1.27025E+03 -2.14260E+03
 -2.23471E+03 -2.18040E+03  1.84508E+03 -1.24715E+03  7.11489E+02 -1.55836E+03  6.50781E+02 -1.95387E+02
  1.92696E+03  5.98480E+02  5.34205E+02  1.00845E+03 -2.92267E+02 -3.93323E+02 -3.21368E+02 -4.45768E+02
  6.75214E+02 -1.83102E+02  6.61560E+02 -1.95747E+02  6.36426E+02  1.95362E+03  6.14602E+01  8.73012E+02
 -1.78134E+03  1.25033E+03  9.33660E+01 -7.70347E+02 -1.28209E+03 -1.54713E+03  4.27693E+02 -2.82825E+03
  1.04976E+03 -2.84720E+03  8.29538E+02 -7.62967E+02  2.00494E+03 -1.42577E+03  2.10568E+03  1.91505E+03
 -3.61400E+02  1.66934E+03 -9.97798E+02  2.08041E+03 -3.11952E+02  1.59158E+03 -9.83293E+02 -7.05088E+02
  1.53991E+02 -8.98495E+02  7.22211E+01  2.05864E+02 -1.05973E+03 -5.49467E+02 -4.11262E+02 -1.08420E+03
 -1.45845E+03 -5.88190E+02  1.18321E+03 -1.94956E+03  1.31597E+03 -1.67450E+03  8.11881E+02 -3.81674E+02
  1.27226E+03  9.02160E+02  6.27032E+02 -4.32838E+02  9.68798E+02  1.70727E+03 -5.45142E+02  7.49394E+02
