 $NMID ID='MM_0lb_SNR200_14hz_g45_34.RAW', FMTDAT='(8E13.5)'
 TRAMP=1., VOLUME=1. $END
  3.11416E+05  5.01984E+01  3.37171E+05  2.50337E+05  8.43243E+04  3.38656E+05 -1.32240E+05  2.50553E+05
 -1.91663E+05  8.34781E+04 -1.11236E+05 -3.20779E+04  1.24434E+03 -5.06829E+04  5.37907E+04  4.99591E+01
  3.46765E+04  5.24165E+04 -1.74241E+04  7.67730E+04 -6.06356E+04  6.32824E+04 -8.32974E+04  3.21253E+04
 -7.99155E+04 -1.08365E+04 -5.56058E+04 -5.08346E+04 -1.57314E+04 -7.04431E+04  2.72483E+04 -4.54500E+04
  4.01541E+04  3.69375E+03  1.50265E+04  4.86393E+04 -3.48833E+04  4.57766E+04 -6.65443E+04 -5.79961E+02
 -5.35344E+04 -5.73428E+04 -6.55792E+03 -7.62362E+04  3.29339E+04 -5.45699E+04  4.71230E+04 -1.69352E+04
  4.33927E+04  1.16722E+04  3.16441E+04  2.64572E+04  1.51835E+04  3.00626E+04 -5.44938E+03  2.66636E+04
 -2.16906E+04  1.32118E+04 -1.90174E+04 -5.15079E+03  5.67099E+03 -7.78200E+03  2.24361E+04  1.27411E+04
  7.06513E+03  3.53660E+04 -3.24648E+04  3.53285E+04 -6.19546E+04  1.86197E+03 -5.77715E+04 -4.25314E+04
 -1.20208E+04 -6.14229E+04  3.82770E+04 -4.46745E+04  5.76696E+04 -1.74363E+03  3.47659E+04  3.28530E+04
 -6.33330E+03  3.63531E+04 -2.96662E+04  1.56387E+04 -3.01875E+04 -3.86645E+03 -1.72795E+04 -1.14749E+04
 -8.51904E+03 -1.25111E+04 -9.67774E+02 -1.74845E+04  7.47107E+03 -2.22659E+04  1.54345E+04 -1.35439E+04
  1.28276E+04  5.08360E+03 -7.90790E+03  1.32993E+04 -2.01801E+04 -4.18185E+03 -8.26299E+03 -3.23372E+04
  2.22434E+04 -4.32201E+04  4.76805E+04 -1.91309E+04  4.52131E+04  1.87091E+04  1.63214E+04  4.43991E+04
 -1.65755E+04  3.31763E+04 -2.60256E+04  1.68458E+03 -1.02297E+04 -2.68005E+04  2.06601E+04 -3.36400E+04
  4.13879E+04 -1.02707E+04  3.60057E+04  2.45346E+04  1.86405E+04  4.64980E+04 -7.67146E+03  5.01397E+04
 -3.14475E+04  3.30237E+04 -4.15113E+04  9.71484E+03 -4.27834E+04 -1.48703E+04 -2.29506E+04 -3.70621E+04
  7.05269E+03 -3.70675E+04  3.12268E+04 -1.29843E+04  2.85524E+04  1.06934E+04  4.23170E+03  2.00748E+04
 -1.37025E+04  9.13873E+03 -9.97523E+03 -7.15068E+03  6.14989E+03 -1.06842E+04  1.85721E+04  7.60701E+03
  1.30767E+04  2.26919E+04 -7.02841E+03  2.44770E+04 -2.17732E+04  1.16554E+04 -2.71705E+04 -4.73087E+03
 -2.06732E+04 -1.61572E+04 -7.79468E+03 -2.05832E+04  4.06412E+03 -2.05412E+04  1.59797E+04 -1.78740E+04
  2.52984E+04 -1.32969E+04  3.09623E+04  1.20709E+03  2.30346E+04  1.85687E+04  3.79303E+03  3.60858E+04
 -1.80178E+04  2.98675E+04 -2.76516E+04  9.74487E+03 -1.99432E+04 -1.07738E+04 -4.28554E+03 -1.33158E+04
  2.68754E+03 -1.86063E+03 -3.09032E+03  6.36754E+03 -1.72407E+04  3.44927E+03 -1.63121E+04 -6.46357E+03
 -1.05703E+04 -1.99582E+04  5.74218E+03 -2.12439E+04  1.56071E+04 -1.52736E+04  1.82642E+04 -1.96097E+03
  1.09595E+04  1.19639E+04 -2.00335E+03  1.80210E+04 -1.24222E+04  1.02252E+04 -1.90391E+04 -3.84888E+03
 -1.34587E+04 -1.64859E+04 -1.16975E+03 -2.26137E+04  1.05497E+04 -1.81822E+04  1.91677E+04 -8.76276E+03
  1.74740E+04  5.78116E+02  1.20971E+04  4.55436E+03  7.02725E+03  6.84433E+02  1.02231E+04 -2.04486E+03
  1.68224E+04  3.42043E+03  1.90373E+04  1.48700E+04  1.22962E+04  2.88336E+04 -2.60779E+03  3.31409E+04
 -1.93036E+04  2.57758E+04 -3.25581E+04  1.33760E+04 -3.36571E+04 -3.30753E+03 -2.62975E+04 -1.94248E+04
 -1.16317E+04 -2.67685E+04  9.56763E+03 -2.47506E+04  2.01428E+04 -1.24586E+04  1.87243E+04  5.34692E+03
  8.21901E+03  1.55372E+04 -9.98602E+03  1.23759E+04 -1.56301E+04  2.48093E+03 -1.28108E+04 -1.12952E+04
  1.96581E+02 -1.60880E+04  7.39456E+03 -1.17877E+04  9.89987E+03 -1.32934E+03  3.82739E+03  5.58517E+03
 -6.23707E+03  3.12397E+03 -5.85784E+03 -5.18247E+03 -1.02083E+03 -1.39979E+04  9.21850E+03 -1.53570E+04
  1.58146E+04 -6.68958E+03  1.67789E+04  2.52129E+03  1.52861E+04  1.26316E+04  7.45439E+03  1.99167E+04
 -4.02076E+03  1.97892E+04 -1.28826E+04  1.41005E+04 -1.59222E+04  2.83726E+03 -1.12996E+04 -4.11053E+03
 -5.03716E+03 -6.46377E+03 -3.07741E+02  7.40022E+02 -2.68025E+03  2.62486E+03 -4.55223E+03  4.32635E+03
 -9.43139E+03 -7.81229E+02 -1.09032E+04 -9.60954E+03 -4.55397E+03 -1.36109E+04  4.93501E+03 -1.04979E+04
  1.03386E+04 -5.44757E+03  5.13342E+03  3.05327E+03 -1.78024E+02  4.01363E+03 -4.97650E+03 -7.63547E+02
 -4.89421E+03 -7.10484E+03 -1.54966E+03 -9.34157E+03  6.44132E+03 -1.05074E+04  1.30399E+04 -5.07051E+03
  1.58452E+04  1.79679E+03  1.31839E+04  9.81013E+03  2.25761E+03  1.28044E+04 -7.74820E+03  1.04060E+04
 -8.67258E+03  2.42780E+03 -4.89898E+03 -2.12928E+03  1.22699E+03 -2.38123E+03  5.11360E+03 -1.07044E+03
  4.57916E+03  5.37321E+03  2.38732E+02  9.46271E+03 -5.84361E+03  8.27882E+03 -1.00515E+04  2.54754E+03
 -6.65777E+03 -4.57786E+03  6.22209E+02 -9.31725E+03  6.37982E+03 -3.92181E+03  4.66887E+03  1.24550E+03
  6.21030E+02  5.82409E+03 -6.32655E+03  7.44139E+03 -8.57398E+03  3.72749E+03 -7.93392E+03 -1.71767E+03
 -4.23797E+03 -8.73956E+03  2.94370E+03 -1.13636E+04  9.09057E+03 -7.54124E+03  8.91047E+03  1.71755E+03
  7.39164E+03  8.27388E+03 -6.01291E+02  1.10952E+04 -6.92726E+03  5.30568E+03 -8.12156E+03 -1.77928E+03
 -8.18022E+03 -7.77113E+03 -1.65495E+03 -7.42743E+03  3.57265E+03 -5.45525E+03  4.33616E+03 -2.73896E+03
  2.83571E+03  6.06711E+02 -5.61153E+01  1.94219E+03 -5.31198E+02 -1.04402E+03  1.33407E+03 -3.44382E+03
  6.79429E+03 -1.96178E+03  9.52792E+03  2.30003E+03  7.96478E+03  6.58373E+03  7.26167E+03  1.15476E+04
 -2.42692E+03  1.30235E+04 -1.12259E+04  1.03272E+04 -1.60762E+04  2.42334E+03 -1.18026E+04 -3.28668E+03
 -4.44507E+03 -1.03715E+04 -6.50057E+02 -8.65505E+03  3.36003E+03 -4.21574E+03  3.48989E+03 -3.24791E+03
  3.35602E+03 -1.99731E+03  2.52857E+03 -2.56880E+03  4.09893E+03 -1.99621E+03  5.37095E+03 -3.22301E+02
  5.73331E+03  3.54963E+02  2.36748E+03  6.24690E+03 -1.90930E+03  5.40244E+03 -7.23298E+03  3.88235E+03
 -9.37635E+03 -1.24975E+03 -4.15004E+03 -6.15972E+03  1.05256E+03 -9.13533E+03  5.49851E+03 -9.34099E+03
  9.39882E+03 -4.15369E+03  1.13938E+04  5.87610E+02  7.10231E+03  6.91039E+03  1.90857E+03  1.00836E+04
 -3.32368E+03  8.46266E+03 -5.77330E+03  2.44498E+03 -4.07049E+03 -1.78088E+02 -2.31037E+02 -2.39573E+03
 -1.88313E+03  6.27817E+01 -9.38339E+02  1.89821E+03 -3.70908E+03  1.85162E+03 -6.21596E+03 -1.28605E+03
 -2.57523E+03 -6.47256E+03  6.55832E+02 -8.68365E+03  3.59021E+03 -8.04932E+03  8.08730E+03 -2.85026E+03
  5.89138E+03  3.39745E+03  3.31442E+03  6.54792E+03 -2.67073E+03  7.66838E+03 -4.93725E+03  5.34348E+03
 -6.77501E+03  1.45262E+03 -4.97107E+03 -4.60879E+03 -1.05677E+03 -7.97781E+03  2.72032E+03 -4.30397E+03
  5.66096E+03 -1.48040E+03  3.05640E+03  1.51482E+03  1.31987E+03  2.91228E+03  5.81572E+02  3.58611E+02
  1.72088E+03 -8.99715E+02  3.37373E+03 -3.45190E+02  2.55949E+03  2.96130E+03  1.71001E+03  3.65213E+03
 -8.62799E+02  6.43298E+03 -5.25628E+03  6.52120E+03 -6.43705E+03  5.06127E+02 -7.22653E+03 -2.61303E+03
 -3.40195E+03 -7.34906E+03  2.32569E+03 -9.04090E+03  5.36546E+03 -4.45309E+03  6.45516E+03 -5.38225E+02
  2.89897E+03  3.51474E+03 -2.79291E+01  4.04208E+03 -3.57173E+03  1.97607E+03 -2.56174E+03 -8.83410E+02
 -1.66467E+03 -1.70375E+03  1.99541E+03 -2.50854E+03  2.82108E+03 -1.42089E+03  1.99726E+03  1.33005E+03
  1.88677E+03  1.66787E+03  1.70459E+03  5.62280E+02 -1.93213E+03  8.68684E+02  2.34781E+03 -3.08871E+02
  1.30724E+03 -1.63510E+02  3.11407E+03  1.94912E+03  1.47156E+03  3.31446E+03 -2.39268E+01  4.83500E+03
 -3.04921E+03  2.61854E+03 -2.95072E+03  5.55199E+02 -3.67850E+03 -1.25842E+03 -1.58837E+03 -2.25513E+03
 -4.14870E+02 -2.42980E+03  1.58355E+03 -1.72138E+03  1.67533E+03  1.69249E+03 -5.87656E+02  2.68456E+03
 -3.54584E+03  2.41370E+03 -3.19209E+03 -2.25108E+03 -1.00128E+03 -4.80310E+03  2.18287E+03 -3.49848E+03
  1.09357E+03 -8.44579E+02  4.19326E+03  1.37390E+03  2.80259E+03  7.45938E+02  1.01708E+03  2.37904E+03
 -1.17191E+03  2.62473E+02 -1.66406E+03 -1.10788E+03  5.75802E+02 -3.00205E+03  3.26465E+03 -2.24975E+03
  3.26823E+03 -2.93777E+02  4.17934E+03  1.65831E+03  1.49629E+03  4.73339E+03 -4.87090E+02  4.24534E+03
 -4.02415E+03  1.79187E+03 -3.77446E+03 -3.57893E+02 -1.46251E+03 -2.31889E+03  1.53827E+03 -2.90717E+03
  2.51576E+03 -1.75730E+03  1.97472E+03  1.48202E+03  7.47364E+02  2.31646E+03 -6.53044E+01  3.32024E+03
  9.04741E+01  2.31062E+03 -1.00924E+03 -5.40754E+02 -1.04151E+03  7.37593E+02 -1.51747E+03  1.53202E+03
 -5.35750E+02  2.28236E+03 -3.01436E+03  1.41242E+03 -4.35787E+03  3.49946E+02 -5.22785E+03 -2.53601E+03
 -7.35678E+02 -5.69437E+03  7.56093E+02 -6.11394E+03  3.73927E+03 -4.58682E+03  5.85381E+03 -3.21820E+03
  4.65920E+03  7.44167E+02  3.36463E+03  3.94420E+03  1.37144E+03  3.84927E+03 -1.60027E+03  2.83264E+03
 -1.91732E+03  1.54773E+03 -1.01149E+03 -2.14662E+02 -9.51002E+02 -9.97508E+02 -3.94195E+02  1.20685E+03
 -2.05318E+03 -2.37517E+02 -1.32985E+03  1.44775E+03 -3.06398E+01 -8.68856E+02 -6.44784E+02 -7.56478E+02
  1.44093E+03 -1.72455E+03  2.70460E+03  1.22939E+02  2.80498E+03  2.76697E+03  1.96171E+01  4.65083E+03
 -1.96040E+03  4.77672E+03 -4.02395E+03  1.99246E+03 -3.78051E+03 -9.46120E+02 -3.85467E+03 -3.23787E+03
 -1.78028E+03 -4.08776E+03  1.72378E+03 -3.45419E+03  1.98008E+03 -1.13855E+03  1.99042E+03 -1.16368E+01
  1.27933E+03  1.34974E+03  7.66737E+01  5.32435E+02 -7.01225E+02 -5.13257E+02  3.69205E+02 -5.63163E+02
  1.19173E+03 -3.04090E+02  1.77085E+03  7.05675E+02 -9.47899E+01  9.82837E+02 -8.47618E+02  1.13032E+03
 -1.39383E+03  1.66489E+03 -1.65687E+03  6.27454E+02 -2.43603E+03 -1.63326E+03  6.87058E+02 -3.44272E+03
  1.31837E+03 -9.82636E+02  2.37150E+03 -7.11336E+02  3.15080E+03  7.80304E+02  2.22525E+03  1.95045E+03
  4.65185E+02  2.81175E+03 -1.66646E+03  9.17966E+02 -1.73406E+03  1.29223E+03 -1.97644E+03 -5.16718E+01
 -6.72541E+02 -9.51054E+02  2.51521E+02  3.47694E+02 -6.98717E+02  3.51602E+02 -2.08088E+03 -1.15566E+03
 -8.56854E+02 -9.51587E+02 -1.97823E+03 -2.55234E+03  1.07533E+03 -3.16967E+03  2.94391E+03 -1.66112E+03
  2.09231E+03 -8.94898E+01  1.19641E+03  1.68839E+03 -3.41251E+02  1.47146E+03 -1.97858E+03  6.67359E+02
