 $NMID ID='MM_0lb_SNR200_20hz_g60_57.RAW', FMTDAT='(8E13.5)'
 TRAMP=1., VOLUME=1. $END
  3.10754E+05  1.14489E+03  3.37815E+05  2.51194E+05  8.51395E+04  3.38621E+05 -1.32350E+05  2.50824E+05
 -1.89535E+05  8.31998E+04 -1.11995E+05 -3.23231E+04  2.33865E+03 -4.95850E+04  5.47481E+04 -3.96621E+01
  3.56884E+04  5.24581E+04 -1.62421E+04  7.46089E+04 -6.06256E+04  6.27530E+04 -8.33681E+04  3.14366E+04
 -8.05030E+04 -1.15156E+04 -5.68836E+04 -5.13353E+04 -1.37583E+04 -6.80958E+04  2.70462E+04 -4.53370E+04
  3.87036E+04  3.44849E+03  1.64680E+04  4.75881E+04 -3.38909E+04  4.59199E+04 -6.57497E+04 -2.64661E+02
 -5.22574E+04 -5.66160E+04 -6.76323E+03 -7.57568E+04  3.38071E+04 -5.26837E+04  4.61174E+04 -1.69063E+04
  4.20238E+04  1.10058E+04  3.14802E+04  2.60371E+04  1.56189E+04  2.88621E+04 -4.51115E+03  2.64097E+04
 -2.25012E+04  1.28228E+04 -1.92919E+04 -2.83773E+03  4.15378E+03 -7.67586E+03  2.26661E+04  1.13741E+04
  6.48405E+03  3.42927E+04 -3.02465E+04  3.51800E+04 -6.23695E+04  8.74870E+02 -5.52692E+04 -4.23481E+04
 -1.29419E+04 -6.21219E+04  3.81898E+04 -4.31594E+04  5.55595E+04 -1.77075E+03  3.33321E+04  3.17207E+04
 -6.61469E+03  3.32647E+04 -2.95039E+04  1.50420E+04 -2.90908E+04 -5.25142E+03 -1.59371E+04 -1.06628E+04
 -8.99472E+03 -1.28302E+04 -1.21011E+03 -1.75479E+04  7.07121E+03 -2.13845E+04  1.52919E+04 -1.43329E+04
  1.22758E+04  4.96786E+03 -6.45713E+03  1.26859E+04 -1.93812E+04 -2.26424E+03 -8.04653E+03 -3.09574E+04
  2.11695E+04 -4.12534E+04  4.64195E+04 -1.97841E+04  4.22163E+04  1.85217E+04  1.44247E+04  4.21682E+04
 -1.68989E+04  3.13845E+04 -2.37735E+04  7.62681E+02 -1.05389E+04 -2.69237E+04  2.05011E+04 -3.18363E+04
  3.95097E+04 -8.31366E+03  3.18460E+04  2.28773E+04  1.53678E+04  4.40683E+04 -7.34673E+03  4.67687E+04
 -2.93394E+04  3.18570E+04 -3.86982E+04  8.90600E+03 -3.92792E+04 -1.52756E+04 -2.22128E+04 -3.44960E+04
  7.62762E+03 -3.62878E+04  2.93342E+04 -1.34443E+04  2.78613E+04  1.11142E+04  2.83481E+03  1.73637E+04
 -1.40746E+04  7.06676E+03 -9.82562E+03 -7.58994E+03  5.84956E+03 -9.84570E+03  1.69609E+04  6.06054E+03
  1.31592E+04  2.13457E+04 -5.67433E+03  2.39786E+04 -2.13974E+04  9.26293E+03 -2.57117E+04 -5.91184E+03
 -1.82187E+04 -1.74234E+04 -6.05415E+03 -1.67927E+04  4.11454E+03 -1.54416E+04  1.35811E+04 -1.61028E+04
  2.20772E+04 -1.22429E+04  2.88185E+04  7.78115E+02  2.14610E+04  1.68735E+04  3.85332E+03  3.36532E+04
 -1.58709E+04  2.78414E+04 -2.73345E+04  9.78228E+03 -1.85052E+04 -1.04437E+04 -3.43685E+03 -1.30638E+04
  2.97122E+03 -4.57299E+03 -3.11360E+03  6.59400E+03 -1.35573E+04  5.37572E+03 -1.37168E+04 -4.89922E+03
 -8.73740E+03 -1.58387E+04  4.58299E+03 -1.95489E+04  1.26445E+04 -1.33412E+04  1.61164E+04 -6.22071E+02
  8.71949E+03  1.03481E+04 -1.32151E+03  1.61553E+04 -1.01468E+04  8.61540E+03 -1.52834E+04 -2.29020E+03
 -1.12462E+04 -1.45568E+04 -1.55585E+03 -1.97444E+04  8.38192E+03 -1.58615E+04  1.63637E+04 -7.80979E+03
  1.42095E+04  1.14925E+03  1.12632E+04  4.35042E+03  3.80607E+03  1.44784E+03  7.54955E+03 -1.72600E+03
  1.34556E+04  2.60312E+03  1.55943E+04  1.17086E+04  9.81530E+03  2.42505E+04 -3.41592E+03  2.55301E+04
 -1.65006E+04  2.08275E+04 -2.45102E+04  1.03590E+04 -2.51625E+04 -1.47759E+03 -2.10293E+04 -1.38722E+04
 -1.03939E+04 -2.13105E+04  6.77166E+03 -1.97031E+04  1.68130E+04 -1.04169E+04  1.57601E+04  3.08490E+03
  7.36836E+03  1.22517E+04 -5.78474E+03  1.13099E+04 -1.28631E+04  3.93132E+03 -9.34113E+03 -8.86833E+03
  4.78614E+01 -1.23816E+04  6.77841E+03 -9.38312E+03  8.02449E+03 -1.50521E+03  7.30952E+02  5.06296E+03
 -5.59199E+03  1.72590E+03 -4.54888E+03 -5.18807E+03  6.37425E+02 -1.00041E+04  8.65111E+03 -1.01094E+04
  1.17791E+04 -4.61508E+03  1.24504E+04  2.86958E+03  1.02533E+04  9.83639E+03  4.20867E+03  1.31547E+04
 -1.19685E+03  1.52639E+04 -9.49405E+03  1.07095E+04 -1.14050E+04  3.41071E+03 -8.56070E+03 -1.83459E+03
 -3.60858E+03 -2.86599E+03 -4.77680E+02  1.38720E+03 -1.75035E+03  2.27077E+03 -2.47521E+03  3.76401E+03
 -8.36540E+03 -3.61548E+02 -7.77226E+03 -7.87365E+03 -2.42036E+03 -1.07049E+04  3.53501E+03 -7.80240E+03
  8.17465E+03 -4.10800E+03  4.96715E+03  1.57901E+03  5.34908E+02  3.61488E+03 -3.84925E+03 -6.46589E+02
 -2.75776E+03 -3.72383E+03 -1.27294E+03 -7.02081E+03  2.75815E+03 -8.08691E+03  9.53208E+03 -3.79584E+03
  1.11622E+04  3.24523E+02  7.93963E+03  6.35252E+03  1.49410E+03  8.27511E+03 -5.58567E+03  8.21092E+03
 -7.61935E+03  3.55996E+03 -2.47625E+03 -7.25559E+02  1.83514E+03 -1.34990E+03  3.15580E+03 -4.99085E+02
  3.96200E+03  3.71099E+03  9.67551E+02  6.78452E+03 -4.49826E+03  6.57930E+03 -7.70691E+03  1.39456E+03
 -4.57201E+03 -2.26149E+03  6.38683E+02 -6.06835E+03  2.81059E+03 -3.47288E+03  3.27212E+03  1.21162E+03
 -4.79938E+02  3.72103E+03 -4.18720E+03  4.35544E+03 -5.89800E+03  2.62401E+03 -4.31313E+03 -1.09578E+03
 -3.29328E+03 -5.25200E+03  7.17512E+02 -7.51617E+03  4.54497E+03 -3.58466E+03  5.67630E+03  1.02670E+03
  3.62957E+03  4.56874E+03  4.85582E+02  5.71561E+03 -4.40315E+03  4.02789E+03 -4.53989E+03 -9.86025E+02
 -4.57771E+03 -3.86644E+03 -2.01204E+03 -5.06424E+03  2.14938E+03 -4.96976E+03  2.72351E+03 -4.03849E+03
  3.34174E+03 -4.62884E+02 -4.88133E+02  1.24717E+03  1.84314E+03 -6.57412E+02 -3.60968E+02 -1.00300E+03
  3.96938E+03 -1.76397E+03  4.40554E+03  3.46645E+02  5.48752E+03  1.27450E+03  4.83347E+03  6.22377E+03
 -1.21176E+03  7.43124E+03 -6.42355E+03  5.85783E+03 -9.63666E+03  2.05011E+03 -7.77735E+03 -1.96515E+03
 -4.13269E+03 -4.95566E+03 -4.55635E+02 -3.43259E+03  2.64437E+03 -1.45975E+03  1.63651E+03 -1.33167E+03
  1.39558E+03 -1.85414E+03  2.13548E+03 -2.44303E+03  3.34963E+03 -1.11913E+03  3.88667E+03  3.81203E+02
  4.65230E+03  1.46071E+03  4.79698E+02  2.19198E+03 -2.06054E+03  2.76673E+03 -5.02173E+03  2.36572E+03
 -4.32385E+03  3.63343E+01 -1.79823E+03 -1.84827E+03  6.89533E+02 -3.90396E+03  2.44333E+03 -4.42930E+03
  3.59616E+03 -2.98016E+03  6.01747E+03  1.00079E+03  4.31425E+03  3.41363E+03  9.47242E+02  4.79668E+03
 -2.11012E+03  5.27133E+03 -2.78414E+03  1.79207E+03 -8.80746E+02 -6.56315E+02  1.04978E+02 -8.83513E+02
 -7.36594E+02  1.07251E+03 -1.37014E+03  1.98829E+03 -2.26088E+03  1.55565E+03 -4.08183E+03  9.29105E+01
 -1.08057E+03 -3.79887E+03  1.24387E+03 -3.47947E+03  9.64452E+02 -3.65430E+03  3.64090E+03 -1.11367E+03
  3.48837E+03  2.37421E+03  2.02018E+03  3.50063E+03 -2.05168E+03  3.74236E+03 -1.81005E+03  2.34538E+03
 -2.94848E+03  1.31103E+03 -2.23491E+03 -2.04709E+03  3.89449E+02 -2.94293E+03  1.66558E+03 -2.34406E+03
  2.26934E+03 -9.52093E+02  1.76525E+03  7.51067E+02  7.18534E+02  2.50021E+03  1.05905E+03  5.96168E+02
  1.47060E+03 -1.99312E+02  9.28258E+02  3.48386E+02  2.17820E+03  2.31638E+03  1.58088E+03  1.03098E+03
 -2.09018E+03  2.22928E+03 -2.18887E+03  3.11170E+03 -2.38408E+03  1.24548E+03 -3.69494E+03 -9.63751E+01
 -1.69406E+03 -2.32853E+03  1.27835E+02 -3.29374E+03  2.36409E+03 -2.36604E+03  2.09567E+03 -1.25835E+03
  3.06570E+03  5.61124E+02 -2.58106E+01  5.55862E+02 -1.21840E+00  3.44467E+02 -6.94007E+02  7.21524E+01
 -3.89017E+02 -2.52011E+02  7.83493E+02 -1.09040E+03  1.06253E+03 -3.49318E+02  5.98614E+02  5.27463E+02
  1.02783E+03  5.07588E+02  1.71875E+02 -8.71664E+01  6.72972E+02  6.71788E+02  1.11628E+03  9.85357E+02
  5.41498E+02 -5.39815E+02  1.14262E+03  2.16167E+03  1.02919E+03  8.75440E+02 -1.67513E+03  2.31972E+03
 -2.61697E+03  9.77762E+02 -1.27009E+03 -2.97237E+02 -2.23742E+03 -1.16147E+03 -2.63832E+02 -1.47193E+03
  6.81803E+02 -1.54352E+03  6.43982E+02 -1.40390E+03  6.24853E+02  1.85742E+03 -1.39689E+03  9.63962E+02
 -1.10461E+03  5.71486E+02 -1.04746E+03 -2.23899E+03 -4.49281E+02 -1.86777E+03  4.49676E+02 -2.09343E+03
  2.30201E+02 -2.80149E+02  9.65538E+02  1.95960E+02  6.23471E+02 -8.39829E+01  6.14324E+01  1.12570E+03
  6.02414E+01 -5.60956E+02 -1.19858E+03  5.00427E+02  9.36642E+02 -1.03552E+03  2.14533E+03  1.14459E+02
  9.55968E+02  6.13449E+01  2.14367E+03 -5.59284E+02  1.30134E+03  5.07803E+02  3.11894E+02  9.83061E+02
 -1.22829E+03  1.49919E+02 -1.41608E+03 -2.30376E+02 -4.26835E+02 -2.81011E+02 -1.37347E+03 -7.61187E+02
  1.30781E+03 -1.12778E+03  1.40771E+03  2.76217E+02 -5.61673E+02  8.02479E+02  9.58856E+02 -4.67989E+00
 -3.99793E+02  3.83887E+02 -1.19908E+03  4.34279E+02  7.42675E+01 -6.39955E+02 -5.95893E+02  8.61843E+02
 -1.83102E+02  1.34565E+03 -1.77918E+03  3.90692E+02 -1.72051E+03  2.82052E+02 -1.83935E+03 -9.35812E+02
  3.03144E+02 -1.84555E+03 -7.43588E+02 -1.29664E+03  4.24394E+02 -1.49469E+03  1.67671E+03  6.52871E+02
  1.34590E+03  3.52171E+02  3.76509E+01  5.79448E+02 -1.91920E+03  1.44019E+03  5.29311E+02  1.04905E+03
 -1.22632E+03 -1.77875E+02  2.79378E+02  2.81180E+02 -1.53434E+03  6.01883E+02  6.63374E+02  5.00934E+02
 -1.81751E+03 -6.16332E+02 -5.46852E+02 -3.33493E+02 -2.80432E+01 -1.62337E+03  5.84399E+02 -1.09407E+03
  2.52469E+03 -1.11615E+03 -8.46193E-01  1.31973E+02  1.93733E+02  9.94490E+02  3.96396E+02 -4.27892E+01
 -5.62124E+02  2.56791E+03 -5.34697E+02  6.72995E+02  5.22153E+00 -3.86307E+02 -3.68675E+02 -7.86078E+02
  4.30837E+02 -6.53279E+02 -1.34155E+02 -6.39195E+02 -4.26189E+02  8.09053E+02 -5.39814E+02 -1.99353E+02
 -3.57153E+01  3.44657E+02 -1.56796E+02  4.08104E+02 -4.69405E+02  1.06681E+02  1.97947E+02 -5.78636E+01
  4.60788E+02  3.49047E+02  1.12240E+03  2.92090E+02  1.33151E+02  3.40988E+02  1.16171E+03  9.31339E+02
 -8.06623E+02  5.56884E+02 -4.30964E+02 -2.92958E+02 -6.92140E+01  1.32110E+02 -4.67920E+02 -5.58898E+02
  3.32608E+02 -6.45740E+02 -1.55843E+02  4.98732E+02  7.74374E+02 -7.29100E+02 -3.73607E+01 -6.46527E+02
  1.31116E+03  1.00440E+03  1.77339E+02 -2.25758E+02 -1.14002E+03  7.26790E+02 -8.82319E+02 -5.86851E+02
 -1.93678E+02 -8.34621E+02 -4.76332E+02  1.27871E+03  5.18439E+02 -1.12627E+02 -9.83143E+02 -2.68638E+02
 -9.04779E+02  1.14734E+03  2.30259E+02 -9.66360E+02  5.12965E+02 -1.51984E+03  4.67449E+02  2.33781E+02
  3.19497E+02 -2.42241E+02 -4.56365E+02  5.97424E+02  6.66605E+02  1.02444E+03 -3.16436E+02  1.19631E+02
