 $NMID ID='MM_0lb_SNR200_10hz_g45_95.RAW', FMTDAT='(8E13.5)'
 TRAMP=1., VOLUME=1. $END
  3.09350E+05  7.76225E+02  3.38282E+05  2.50779E+05  8.47008E+04  3.38253E+05 -1.32104E+05  2.51493E+05
 -1.91374E+05  8.26514E+04 -1.11060E+05 -3.34428E+04 -3.10587E+02 -5.10103E+04  5.17483E+04 -1.50372E+03
  3.46614E+04  5.33648E+04 -1.61675E+04  7.40832E+04 -6.07562E+04  6.34742E+04 -8.52879E+04  3.07755E+04
 -8.32127E+04 -1.16773E+04 -5.95767E+04 -5.12460E+04 -1.58647E+04 -7.04105E+04  2.93203E+04 -4.62750E+04
  4.06123E+04  4.16852E+03  1.73580E+04  4.84189E+04 -3.47175E+04  4.73513E+04 -6.74682E+04  6.45156E+02
 -5.46609E+04 -5.73729E+04 -6.50688E+03 -7.68387E+04  3.42559E+04 -5.65831E+04  4.79579E+04 -1.72569E+04
  4.53970E+04  1.08070E+04  3.14476E+04  2.67553E+04  1.71981E+04  2.96998E+04 -5.02642E+03  2.74036E+04
 -2.08785E+04  1.24595E+04 -1.91677E+04 -5.89817E+03  5.83891E+03 -8.56891E+03  2.28939E+04  1.17886E+04
  7.87694E+03  3.80980E+04 -3.26166E+04  3.63070E+04 -6.42300E+04  2.36568E+03 -5.79030E+04 -4.33277E+04
 -1.23205E+04 -6.48034E+04  4.19626E+04 -4.60002E+04  5.97878E+04 -1.26955E+03  3.50137E+04  3.31071E+04
 -6.44797E+03  3.86846E+04 -3.00300E+04  1.75008E+04 -3.27638E+04 -4.26019E+03 -1.86245E+04 -1.23793E+04
 -1.00695E+04 -1.54486E+04 -1.63660E+03 -2.01995E+04  8.01128E+03 -2.43358E+04  1.49981E+04 -1.16268E+04
  1.15430E+04  5.19007E+03 -1.02173E+04  1.37355E+04 -2.45835E+04 -4.86759E+03 -8.76352E+03 -3.51870E+04
  2.46617E+04 -4.57953E+04  5.04105E+04 -2.04581E+04  4.82176E+04  2.01332E+04  1.95191E+04  4.63244E+04
 -1.53653E+04  3.50894E+04 -2.61475E+04  2.56648E+03 -1.09689E+04 -2.89584E+04  2.11633E+04 -3.58608E+04
  4.47892E+04 -8.58855E+03  3.88422E+04  2.54877E+04  2.06244E+04  5.09536E+04 -8.38353E+03  5.51982E+04
 -3.45008E+04  3.65550E+04 -4.66588E+04  9.80462E+03 -4.57055E+04 -1.56449E+04 -2.46222E+04 -4.00575E+04
  7.76486E+03 -4.03188E+04  3.19198E+04 -1.54988E+04  3.07791E+04  1.13143E+04  4.16293E+03  2.09308E+04
 -1.28285E+04  1.06124E+04 -1.00944E+04 -7.81048E+03  5.04201E+03 -1.07220E+04  1.81147E+04  4.63827E+03
  1.36856E+04  2.27360E+04 -3.64672E+03  2.59678E+04 -2.22613E+04  1.29989E+04 -3.03293E+04 -2.63383E+03
 -2.39587E+04 -1.79452E+04 -9.87414E+03 -2.35116E+04  4.28864E+03 -2.32587E+04  1.88837E+04 -2.20034E+04
  2.98597E+04 -1.45339E+04  3.52556E+04  3.99744E+03  2.63988E+04  2.31109E+04  5.69078E+03  3.94265E+04
 -1.94760E+04  3.25613E+04 -2.93283E+04  1.16753E+04 -2.31772E+04 -8.14542E+03 -5.62115E+03 -1.17334E+04
  1.32463E+03 -2.18935E+03 -7.32690E+03  6.38556E+03 -1.84176E+04  4.31686E+03 -1.91535E+04 -7.67013E+03
 -1.13538E+04 -2.34708E+04  6.64023E+03 -2.63432E+04  1.64492E+04 -1.84788E+04  2.12135E+04 -2.87451E+03
  1.36013E+04  1.39691E+04  1.14739E+03  2.20497E+04 -1.56249E+04  1.40291E+04 -2.24229E+04 -5.94674E+03
 -1.68403E+04 -1.88446E+04 -1.62823E+03 -2.58803E+04  1.12790E+04 -2.19251E+04  2.34400E+04 -1.00077E+04
  1.93405E+04 -6.96305E+02  1.44358E+04  4.32778E+03  7.63338E+03  2.66186E+03  1.16432E+04 -1.62151E+03
  1.96266E+04  3.09065E+03  2.48285E+04  1.63514E+04  1.57586E+04  3.52445E+04 -2.35029E+03  4.19750E+04
 -2.40388E+04  3.43123E+04 -3.98300E+04  1.75426E+04 -4.15844E+04 -2.82350E+03 -3.24018E+04 -2.37902E+04
 -1.39209E+04 -3.56991E+04  1.19723E+04 -3.04717E+04  2.62458E+04 -1.53880E+04  2.25926E+04  7.56461E+03
  6.83104E+03  1.60938E+04 -1.13462E+04  1.38423E+04 -1.69304E+04  1.96096E+03 -1.67573E+04 -1.29504E+04
 -5.35106E+02 -1.69089E+04  9.80800E+03 -1.34642E+04  1.39237E+04 -1.72944E+03  3.44689E+03  8.51678E+03
 -8.22973E+03  3.42976E+03 -8.91073E+03 -6.55767E+03 -7.16372E+02 -1.61820E+04  1.00352E+04 -1.86165E+04
  2.23596E+04 -1.03312E+04  2.39041E+04  3.28782E+03  2.01688E+04  1.68866E+04  9.70583E+03  2.59106E+04
 -5.05000E+03  2.94578E+04 -1.90216E+04  1.88741E+04 -1.88807E+04  3.84325E+03 -1.28511E+04 -6.14306E+03
 -5.97036E+03 -6.45397E+03 -1.06278E+03 -4.04857E+02 -2.86079E+03  2.78419E+03 -6.46903E+03  5.72488E+03
 -1.20537E+04  3.88984E+02 -1.34000E+04 -1.04394E+04 -6.53603E+03 -1.76485E+04  4.98471E+03 -1.43794E+04
  1.19683E+04 -5.00444E+03  8.74454E+03  3.87171E+03 -4.31746E+02  4.96276E+03 -6.34225E+03  7.25132E+02
 -5.13608E+03 -8.49344E+03 -1.33971E+03 -1.25120E+04  8.10218E+03 -1.53681E+04  1.58028E+04 -7.32884E+03
  2.25491E+04  1.34854E+03  1.46269E+04  1.30951E+04  3.56797E+03  1.82609E+04 -7.86898E+03  1.49616E+04
 -1.32920E+04  3.88066E+03 -6.38593E+03 -2.82279E+03  1.22624E+03 -2.99015E+03  7.26298E+03 -1.64253E+02
  5.17573E+03  5.97802E+03  2.52206E+03  1.28556E+04 -7.93220E+03  1.11367E+04 -1.36547E+04  2.61722E+03
 -1.06202E+04 -9.32075E+03  2.28369E+02 -1.40401E+04  7.82804E+03 -5.36660E+03  7.50870E+03  3.49093E+03
  2.13039E+03  8.87053E+03 -9.24151E+03  1.10959E+04 -1.33909E+04  4.86372E+03 -1.11670E+04 -5.12337E+03
 -6.36034E+03 -1.42197E+04  2.95874E+03 -1.56282E+04  1.32964E+04 -1.05092E+04  1.47319E+04  2.52266E+03
  1.00073E+04  1.24029E+04 -1.19758E+03  1.43097E+04 -1.01874E+04  1.02350E+04 -1.13309E+04 -2.58346E+01
 -9.09464E+03 -8.34823E+03 -1.05361E+03 -1.24642E+04  6.45394E+03 -8.34987E+03  5.98322E+03 -4.83373E+03
  4.16204E+03  8.54973E+02 -1.51817E+03  2.63479E+03 -2.81195E+02 -3.08357E+03  2.59548E+03 -6.05725E+03
  1.00744E+04 -4.52326E+03  1.39189E+04  2.69036E+03  1.46279E+04  1.14247E+04  8.86038E+03  1.75710E+04
 -6.15245E+03  2.09732E+04 -1.72915E+04  1.53180E+04 -2.37985E+04  3.91330E+03 -1.82234E+04 -7.14893E+03
 -1.04402E+04 -1.53814E+04  3.57252E+02 -1.31797E+04  3.65568E+03 -8.46985E+03  3.32344E+03 -4.68628E+03
  3.50280E+03 -3.43615E+03  3.29633E+03 -4.01307E+03  5.57123E+03 -3.58132E+03  7.32915E+03 -1.93343E+03
  1.03657E+04  1.81952E+03  4.60292E+03  1.01430E+04 -2.72630E+03  1.00640E+04 -1.01155E+04  7.40789E+03
 -1.43844E+04 -1.65745E+03 -7.02187E+03 -9.75533E+03 -3.41219E+02 -1.34819E+04  7.80859E+03 -1.45332E+04
  1.41529E+04 -8.07281E+03  1.65815E+04  2.01837E+03  1.23029E+04  1.16433E+04  1.29360E+03  1.77028E+04
 -6.87975E+03  1.26075E+04 -7.94084E+03  4.98951E+03 -7.64437E+03 -2.38608E+03 -1.65973E+03 -1.22191E+03
 -1.30499E+02  1.92489E+02 -2.41977E+03  2.69115E+03 -5.70283E+03  1.72675E+03 -9.50999E+03 -1.92486E+02
 -5.79436E+03 -9.07729E+03 -4.68702E+02 -1.22527E+04  7.23542E+03 -1.20416E+04  1.28315E+04 -3.73326E+03
  1.29790E+04  5.82790E+03  5.70373E+03  1.15449E+04 -2.16395E+03  1.40535E+04 -9.76778E+03  7.37947E+03
 -1.15975E+04  8.60387E+02 -1.05444E+04 -9.53910E+03 -6.59921E+02 -1.04770E+04  6.94133E+03 -7.11211E+03
  7.68119E+03 -3.00826E+03  6.22321E+03  2.25175E+03  2.18633E+03  3.42084E+03  3.19799E+03  3.08689E+03
  2.08219E+03  9.47475E+02  2.98161E+03  2.44001E+03  3.77309E+03  4.59677E+03  2.50627E+03  6.80647E+03
 -2.19183E+03  9.32586E+03 -9.47694E+03  1.06484E+04 -1.31571E+04  2.10294E+03 -1.43759E+04 -5.66443E+03
 -7.27034E+03 -1.33509E+04  1.52687E+03 -1.48387E+04  8.53803E+03 -9.16586E+03  1.14434E+04 -2.11317E+03
  7.27646E+03  4.44337E+03  1.42556E+03  7.35193E+03 -4.11802E+03  5.05538E+03 -2.84383E+03 -1.48060E+02
 -3.73086E+02 -2.99385E+03  2.05025E+03 -6.07122E+03  4.46396E+03 -3.00519E+03  5.38421E+03  1.17163E+03
  3.25515E+03  3.60301E+03  1.46997E+03  1.69508E+03 -1.18399E+03  1.49484E+03  1.07412E+03  3.73237E+01
  2.09444E+03 -6.41456E+02  5.89434E+03  9.99165E+02  3.03780E+03  6.86199E+03 -3.12075E+02  9.22284E+03
 -5.98592E+03  5.98854E+03 -7.75791E+03  1.63041E+03 -7.62522E+03 -3.86319E+03 -3.91766E+03 -5.42733E+03
  7.65446E+02 -6.25745E+03  2.40579E+03 -2.22360E+03  1.86473E+03  3.58992E+03 -1.91407E+03  3.65306E+03
 -5.63092E+03  3.04237E+03 -6.95330E+03 -3.92795E+03 -3.33574E+03 -7.58298E+03  7.78064E+02 -5.28714E+03
  2.11991E+03 -4.31641E+03  5.92637E+03 -2.22787E+03  4.64115E+03  2.83018E+03  1.78298E+03  3.65040E+03
 -2.03129E+03  9.61762E+02 -2.78307E+03 -3.98742E+03  9.19403E+02 -5.74509E+03  5.63932E+03 -5.13828E+03
  8.20606E+03 -1.08308E+03  8.54096E+03  5.87270E+03  3.18226E+03  8.52523E+03 -3.51710E+03  9.47307E+03
 -7.72616E+03  2.87423E+03 -6.95584E+03  6.44473E+02 -3.56998E+03 -6.46174E+03  1.27074E+03 -4.87851E+03
  5.78298E+03 -2.92737E+03  6.08649E+03  2.79052E+03  1.07789E+03  4.61700E+03 -5.53886E+02  2.29816E+03
 -2.03042E+03  2.60418E+03 -2.30228E+03  5.29143E+02 -1.17852E+03  8.60817E+02 -1.95354E+03  1.75480E+03
 -2.09367E+03  2.19874E+03 -6.38291E+03  2.95153E+03 -7.95057E+03  2.09064E+02 -9.06200E+03 -4.19211E+03
 -5.89645E+03 -1.16251E+04  1.61235E+03 -1.38009E+04  8.69424E+03 -8.79301E+03  1.15226E+04 -2.73669E+03
  1.11146E+04  9.99358E+02  5.38298E+03  6.94622E+03  2.85538E+02  8.00799E+03 -4.06826E+03  6.89515E+03
 -5.33309E+03  2.62799E+03 -3.69398E+03 -8.30646E+02 -8.10934E+02 -1.68549E+03 -7.26403E+02 -1.05215E+02
 -2.14716E+03 -9.46061E+01 -2.36572E+03 -9.33775E+02 -1.66618E+01 -1.54286E+03  4.17223E+02 -3.03017E+03
  4.55453E+03 -1.42288E+03  6.78125E+03 -1.62602E+03  5.40523E+03  5.23539E+03  1.38481E+03  7.59812E+03
 -4.87156E+03  8.95560E+03 -1.06801E+04  4.42255E+03 -1.14819E+04 -2.11251E+03 -7.97393E+03 -5.99464E+03
 -3.09647E+03 -9.13647E+03  2.68539E+03 -6.58491E+03  5.95489E+03 -4.16397E+03  5.15915E+03 -2.36307E+02
  2.77554E+03  2.43408E+03 -1.27149E+02  3.89071E+03 -6.10798E+02 -1.49556E+03 -7.33218E+02 -1.60651E+03
  2.95774E+03 -3.02460E+03  3.16782E+03  1.74237E+03  2.98976E+03  3.80552E+03  1.19285E+03  4.12421E+03
 -4.46701E+03  2.17090E+03 -4.70374E+03 -8.58152E+02 -2.77481E+03 -2.97949E+03 -1.21701E+03 -7.43496E+03
  4.24703E+03 -5.43656E+03  7.38716E+03 -2.28174E+03  7.06141E+03  9.68693E+02  3.45192E+03  5.18036E+03
  8.75051E+02  6.38556E+03 -1.60386E+03  5.16569E+03 -3.74707E+03  2.61423E+03 -2.67343E+03 -8.34635E+02
 -1.11987E+03 -1.14263E+03 -2.95940E+02  1.30513E+03 -2.64937E+03  6.81285E+02 -4.09847E+03 -1.57968E+03
 -3.65143E+03 -3.67252E+03 -1.27042E+03 -5.76292E+03  1.49402E+03 -5.05501E+03  5.14767E+03 -3.44896E+03
  6.82356E+03 -4.20768E+02  3.90583E+03  5.24986E+03 -1.40191E+02  5.95788E+03 -3.14313E+03  3.36397E+03
