 $NMID ID='MM_0lb_SNR200_7hz_g45_28.RAW', FMTDAT='(8E13.5)'
 TRAMP=1., VOLUME=1. $END
  3.09287E+05  1.03764E+03  3.38810E+05  2.50114E+05  8.64329E+04  3.40285E+05 -1.32273E+05  2.53331E+05
 -1.89898E+05  8.43133E+04 -1.13217E+05 -3.43001E+04 -1.50039E+02 -5.26661E+04  5.40360E+04 -1.06646E+03
  3.67302E+04  5.31735E+04 -1.68947E+04  7.72731E+04 -6.03683E+04  6.44218E+04 -8.51157E+04  3.26419E+04
 -8.29336E+04 -1.39681E+04 -5.93785E+04 -5.31280E+04 -1.59704E+04 -7.03633E+04  2.95235E+04 -4.61039E+04
  4.05880E+04  3.04674E+03  1.67372E+04  4.83687E+04 -3.33593E+04  4.99419E+04 -6.84339E+04  6.51888E+02
 -5.54549E+04 -5.88358E+04 -7.30322E+03 -8.23253E+04  3.52452E+04 -5.57207E+04  4.86933E+04 -1.76979E+04
  4.39582E+04  1.20098E+04  3.46845E+04  2.61106E+04  1.71306E+04  3.11944E+04 -6.13773E+03  2.70293E+04
 -2.31663E+04  1.04526E+04 -1.86066E+04 -6.20743E+03  8.85031E+03 -7.48735E+03  2.32678E+04  1.47270E+04
  5.66295E+03  3.65291E+04 -3.41268E+04  3.70997E+04 -6.68393E+04  2.31941E+03 -6.04237E+04 -4.34042E+04
 -1.17662E+04 -6.71926E+04  4.42401E+04 -4.54452E+04  6.37911E+04 -2.37696E+03  3.93722E+04  3.43625E+04
 -6.21142E+03  4.07741E+04 -3.06842E+04  1.93065E+04 -3.29410E+04 -2.90584E+03 -1.86024E+04 -1.22923E+04
 -8.70389E+03 -1.59219E+04 -1.12677E+03 -2.16095E+04  8.34527E+03 -2.28321E+04  1.55817E+04 -1.24034E+04
  1.00332E+04  5.71161E+03 -1.08996E+04  1.26544E+04 -2.51899E+04 -7.83073E+03 -8.47664E+03 -3.95908E+04
  2.40917E+04 -4.61130E+04  5.40029E+04 -1.97124E+04  4.88349E+04  2.09688E+04  1.87798E+04  4.71166E+04
 -1.50446E+04  3.80481E+04 -2.81122E+04  3.20938E+03 -1.20208E+04 -2.97706E+04  2.29480E+04 -3.82180E+04
  4.79049E+04 -1.25670E+04  4.18193E+04  2.42438E+04  2.13828E+04  5.24110E+04 -8.79173E+03  5.99626E+04
 -3.84727E+04  4.02241E+04 -4.89713E+04  1.30593E+04 -4.96167E+04 -1.79056E+04 -2.66454E+04 -4.27541E+04
  8.82346E+03 -4.29422E+04  3.39594E+04 -1.89637E+04  3.28434E+04  1.08577E+04  6.42716E+03  2.01752E+04
 -1.45916E+04  1.06345E+04 -1.29390E+04 -7.25251E+03  5.71264E+03 -9.68344E+03  1.84543E+04  6.12097E+03
  1.43394E+04  2.34563E+04 -6.12031E+03  2.90624E+04 -2.43871E+04  1.36342E+04 -3.36353E+04 -1.51068E+03
 -2.75793E+04 -2.11384E+04 -1.24783E+04 -2.64060E+04  3.48048E+03 -2.78400E+04  2.34028E+04 -2.42646E+04
  3.54843E+04 -1.52885E+04  4.06881E+04  5.82390E+03  2.71814E+04  2.47646E+04  5.68407E+03  4.24055E+04
 -2.07321E+04  3.39952E+04 -3.10005E+04  1.40349E+04 -2.35182E+04 -1.04108E+04 -4.93714E+03 -1.23089E+04
  1.11948E+03 -6.69198E+02 -7.99277E+03  9.27584E+03 -2.21892E+04  4.60207E+03 -2.23939E+04 -1.10811E+04
 -1.24919E+04 -2.44812E+04  7.06181E+03 -2.93580E+04  2.11377E+04 -2.01051E+04  2.34171E+04 -1.74731E+03
  1.62329E+04  1.57211E+04  1.39926E+03  2.27937E+04 -1.94378E+04  1.44410E+04 -2.46378E+04 -5.24825E+03
 -1.76451E+04 -2.34859E+04 -2.72441E+03 -2.88196E+04  1.27784E+04 -2.38766E+04  2.44931E+04 -1.41006E+04
  2.29077E+04  2.62990E+02  1.65817E+04  7.67342E+03  8.43539E+03  1.21350E+03  1.27304E+04 -2.51073E+03
  2.28965E+04  2.58286E+03  2.85798E+04  1.97459E+04  1.87799E+04  3.93414E+04 -3.27745E+02  4.97719E+04
 -2.56456E+04  4.16063E+04 -4.72305E+04  1.99700E+04 -4.81650E+04 -3.82864E+03 -3.99794E+04 -3.02058E+04
 -1.50972E+04 -3.98832E+04  1.39950E+04 -3.50946E+04  2.95837E+04 -1.71140E+04  2.57806E+04  7.82986E+03
  8.37459E+03  2.17583E+04 -1.26648E+04  1.47846E+04 -2.12964E+04  3.14745E+03 -1.68579E+04 -1.40334E+04
  2.61850E+03 -2.19141E+04  1.00086E+04 -1.53978E+04  1.36229E+04  8.51000E+02  4.02024E+03  9.26020E+03
 -9.20107E+03  4.76695E+03 -1.16173E+04 -5.76125E+03 -3.11200E+03 -1.99692E+04  1.30751E+04 -2.14128E+04
  2.48551E+04 -1.31611E+04  3.06156E+04  3.41389E+03  2.51375E+04  1.88370E+04  1.15917E+04  3.23302E+04
 -5.34795E+03  3.51211E+04 -2.53540E+04  2.06552E+04 -2.33344E+04  7.77537E+03 -1.82860E+04 -7.07114E+03
 -8.60112E+03 -7.85555E+03 -2.90171E+03  1.71489E+02 -4.31949E+03  3.18908E+03 -8.63483E+03  6.15389E+03
 -1.61993E+04 -2.85099E+03 -1.76243E+04 -1.22027E+04 -5.79484E+03 -2.15885E+04  7.09444E+03 -1.82161E+04
  1.29617E+04 -8.13677E+03  9.61551E+03  5.47196E+03 -1.17563E+02  6.18715E+03 -8.35824E+03 -5.97975E+02
 -8.86853E+03 -9.39489E+03 -1.82332E+03 -1.77401E+04  9.38240E+03 -2.03545E+04  2.36400E+04 -1.13953E+04
  2.70310E+04  2.75025E+03  1.94479E+04  1.56765E+04  3.21885E+03  2.00610E+04 -1.00095E+04  1.86125E+04
 -1.35778E+04  3.41428E+03 -8.49547E+03 -5.13960E+03  2.60642E+03 -6.23374E+03  9.09622E+03 -2.34183E+02
  9.48678E+03  7.65371E+03  1.01205E+03  1.33230E+04 -9.42542E+03  1.39550E+04 -1.90630E+04  3.24388E+03
 -1.16770E+04 -1.05319E+04  6.81787E+02 -1.46073E+04  1.03228E+04 -6.01996E+03  1.07959E+04  3.35702E+03
  3.79642E+03  1.33092E+04 -1.06094E+04  1.27458E+04 -1.38521E+04  6.39938E+03 -1.75382E+04 -7.32552E+03
 -8.85188E+03 -1.82620E+04  4.09932E+03 -2.15302E+04  1.84844E+04 -1.16022E+04  1.88754E+04  2.11956E+03
  1.37311E+04  1.35187E+04 -1.02722E+03  1.81331E+04 -1.48029E+04  1.04479E+04 -1.51759E+04 -2.32212E+03
 -1.14727E+04 -1.19063E+04 -1.91589E+03 -1.45921E+04  1.03071E+04 -9.00672E+03  1.08085E+04 -3.76335E+03
  5.36315E+03  3.85110E+03 -5.39657E+01  2.86386E+03 -1.87028E+02 -4.30988E+03  3.45065E+03 -8.18003E+03
  1.35996E+04 -5.65319E+03  1.84016E+04  1.57594E+03  1.99161E+04  1.41357E+04  1.21332E+04  2.41621E+04
 -8.11029E+03  2.89352E+04 -2.27632E+04  2.04685E+04 -2.93406E+04  4.18168E+03 -2.50099E+04 -9.67617E+03
 -1.23117E+04 -1.92298E+04 -1.15051E+03 -1.82347E+04  6.40546E+03 -1.15979E+04  7.50734E+03 -7.01105E+03
  3.24285E+03 -1.68951E+03  5.10593E+03 -5.70942E+03  5.89491E+03 -3.84426E+03  9.29760E+03 -1.64909E+03
  1.37770E+04  2.38196E+03  8.56663E+03  1.28892E+04 -1.65653E+03  1.37545E+04 -1.26109E+04  1.16973E+04
 -1.72676E+04 -1.03107E+03 -1.10512E+04 -1.39873E+04 -3.27397E+03 -1.85658E+04  1.15077E+04 -1.85793E+04
  1.93016E+04 -9.21694E+03  2.20779E+04  3.80315E+03  1.69036E+04  1.48806E+04  2.26468E+03  1.96337E+04
 -8.86460E+03  1.71192E+04 -1.19268E+04  5.68993E+03 -8.62297E+03 -2.91002E+03 -3.90772E+03 -2.22345E+03
 -1.66563E+03 -7.61594E+02 -5.10355E+03  1.65060E+03 -6.68018E+03  3.28179E+03 -1.06405E+04 -8.74482E+02
 -9.04929E+03 -1.18865E+04 -1.30830E+03 -1.79013E+04  1.06550E+04 -1.76339E+04  1.88036E+04 -6.02980E+03
  1.63098E+04  8.04093E+03  7.11261E+03  1.76172E+04 -4.45262E+03  1.83637E+04 -1.25824E+04  1.13314E+04
 -1.74972E+04 -5.45595E+02 -1.17341E+04 -8.87316E+03 -1.57992E+03 -1.58871E+04  6.39061E+03 -1.19323E+04
  1.11931E+04 -3.11826E+03  7.41895E+03  4.55155E+03  3.13597E+03  5.78151E+03  4.35079E+02  2.53028E+03
  3.40723E+03  8.87547E+01  3.68301E+03  1.80347E+03  5.73855E+03  5.06564E+03  3.28849E+03  9.29511E+03
 -2.31383E+03  1.47786E+04 -1.34003E+04  1.32951E+04 -1.78262E+04  5.27489E+03 -1.94362E+04 -8.39777E+03
 -1.10289E+04 -1.95135E+04  4.58009E+03 -2.12368E+04  1.07834E+04 -1.15671E+04  1.48126E+04 -5.10044E+03
  1.27632E+04  7.07851E+03  7.08878E+02  8.93998E+03 -5.81940E+03  5.17444E+03 -8.58106E+03  1.70515E+03
 -5.26975E+03 -9.70488E+03  4.07764E+03 -8.22637E+03  7.74247E+03 -4.47555E+03  7.56896E+03  9.16216E+02
  2.93663E+03  4.93137E+03  2.17025E+03  3.15259E+03 -3.48950E+03  3.80362E+03  2.57099E+03 -1.50571E+03
  3.53623E+03 -1.06598E+03  7.50835E+03  5.00445E+03  5.04175E+03  1.02815E+04 -1.86555E+03  1.48800E+04
 -9.98872E+03  7.18135E+03 -1.25453E+04 -1.01558E+03 -1.03532E+04 -4.67164E+03 -5.10858E+03 -8.52350E+03
  9.71163E+02 -7.62672E+03  4.81967E+03 -4.47003E+03  5.15604E+03  4.38027E+03 -3.80701E+03  9.20457E+03
 -8.49847E+03  6.70870E+03 -9.48263E+03 -3.85360E+03 -8.16636E+03 -9.99308E+03 -1.51305E+02 -1.10032E+04
  5.56318E+03 -7.31022E+03  6.91252E+03 -9.89267E+02  6.30559E+03  6.68205E+02  1.51633E+03  6.94672E+03
 -3.92192E+03  2.81967E+03 -3.93472E+03 -3.88260E+03  1.44389E+03 -6.06873E+03  1.13296E+04 -7.22100E+03
  1.20110E+04  1.11381E+03  1.24137E+04  8.48604E+03  2.33403E+03  1.45090E+04 -5.79904E+03  1.06269E+04
 -1.19407E+04  4.29426E+03 -1.16298E+04 -1.55855E+03 -4.46373E+03 -1.02552E+04  2.26313E+03 -7.35233E+03
  6.78023E+03 -2.96336E+03  4.25287E+03  3.45309E+03  3.65978E+03  6.86141E+03 -2.43593E+03  5.45614E+03
 -1.61784E+03  3.98307E+03 -3.89298E+03 -1.04541E+03 -3.79753E+02  4.25877E+02 -3.23210E+03  1.54447E+03
 -3.07432E+03  6.20137E+03 -9.00408E+03  3.05768E+03 -1.43205E+04  2.35109E+03 -1.43240E+04 -8.69870E+03
 -7.50622E+03 -1.70039E+04  1.85139E+03 -2.04188E+04  1.28331E+04 -1.52362E+04  1.86952E+04 -6.23796E+03
  1.87225E+04  3.02285E+03  1.04102E+04  1.14753E+04 -1.20184E+03  1.44470E+04 -6.02352E+03  8.99391E+03
 -7.19070E+03  4.07254E+03 -5.79006E+03 -2.95258E+03 -1.45026E+03 -1.18711E+02 -2.08968E+02 -2.33590E+03
 -1.71714E+03  8.23843E+02 -1.87275E+03  4.26635E+02 -9.83771E+02 -4.21900E+03  1.45797E+03 -5.21615E+03
  6.71185E+03 -6.14406E+03  8.07603E+03  7.92580E+02  8.72560E+03  6.10698E+03  2.12848E+03  1.28522E+04
 -5.84984E+03  1.49039E+04 -1.55936E+04  9.81389E+03 -1.70590E+04 -2.95854E+03 -1.31009E+04 -1.04242E+04
 -6.86164E+03 -1.56305E+04  4.75829E+03 -1.16772E+04  9.20613E+03 -6.68540E+03  9.83598E+03  6.10282E+02
  7.09581E+03  5.66745E+03 -4.17725E+02  4.44210E+03 -4.68819E+03  1.58674E+03 -1.36785E+03 -3.00393E+03
  3.75669E+03 -2.42930E+03  5.61819E+03  2.19737E+03  4.70680E+03  6.24869E+03  6.46548E+02  7.77607E+03
 -6.33035E+03  6.43513E+03 -1.11444E+04  7.47721E+02 -1.02859E+04 -6.42261E+03 -1.54977E+03 -1.11726E+04
  6.15190E+03 -9.55849E+03  1.25783E+04 -2.82900E+03  1.15151E+04  2.14478E+03  3.51070E+03  1.00569E+04
  1.65413E+03  1.06601E+04 -4.29841E+03  8.12115E+03 -5.19536E+03  3.34646E+03 -7.07902E+03 -2.36428E+02
 -1.10572E+03  4.17397E+02 -4.21592E+03  1.47212E+03 -4.31794E+03  1.53317E+03 -6.66461E+03 -1.97830E+03
 -7.37553E+03 -6.02586E+03 -3.00133E+03 -1.12777E+04  2.41768E+03 -1.17526E+04  1.05721E+04 -5.70194E+03
  1.08037E+04  1.05972E+03  5.42522E+03  7.01118E+03  8.30430E+02  1.11220E+04 -7.09359E+03  7.03176E+03
