 $NMID ID='MM_0lb_SNR200_8hz_g60_27.RAW', FMTDAT='(8E13.5)'
 TRAMP=1., VOLUME=1. $END
  3.09673E+05  5.68147E+02  3.39115E+05  2.49572E+05  8.50831E+04  3.40200E+05 -1.31527E+05  2.52490E+05
 -1.90699E+05  8.40824E+04 -1.11966E+05 -3.23424E+04 -1.39590E+03 -4.79461E+04  5.42663E+04 -4.14045E+02
  3.63208E+04  5.38425E+04 -1.66766E+04  7.45834E+04 -6.23624E+04  6.44874E+04 -8.60432E+04  3.33820E+04
 -8.44465E+04 -1.34614E+04 -5.79392E+04 -5.23171E+04 -1.57945E+04 -7.29032E+04  2.88653E+04 -4.75421E+04
  4.24030E+04  2.97130E+03  1.75951E+04  4.85005E+04 -3.61231E+04  4.79668E+04 -6.73819E+04 -1.32875E+03
 -5.62228E+04 -5.87281E+04 -7.88364E+03 -8.07781E+04  3.56427E+04 -5.64679E+04  5.10094E+04 -1.81671E+04
  4.77564E+04  1.18136E+04  3.36043E+04  2.81859E+04  1.46297E+04  3.07985E+04 -5.56977E+03  2.69065E+04
 -2.24268E+04  1.02488E+04 -1.84603E+04 -6.41785E+03  6.37287E+03 -7.19778E+03  2.40752E+04  1.51538E+04
  8.18100E+03  3.66541E+04 -3.33408E+04  3.73727E+04 -6.74277E+04  2.09492E+02 -6.16281E+04 -4.46420E+04
 -1.31570E+04 -6.57698E+04  4.26541E+04 -4.90215E+04  6.14794E+04 -3.75556E+03  3.60964E+04  3.65995E+04
 -6.38068E+03  4.19974E+04 -3.17632E+04  2.03571E+04 -3.16188E+04 -3.41891E+03 -2.17754E+04 -1.23923E+04
 -9.84684E+03 -1.71309E+04  1.33307E+03 -1.93457E+04  9.32293E+03 -2.28136E+04  1.68235E+04 -1.42019E+04
  1.07888E+04  7.50519E+03 -1.20212E+04  1.34785E+04 -2.44507E+04 -8.35330E+03 -8.36058E+03 -3.75296E+04
  2.69654E+04 -4.90589E+04  5.37818E+04 -2.06637E+04  5.07329E+04  2.06675E+04  1.68687E+04  4.85168E+04
 -1.53976E+04  3.84659E+04 -2.98892E+04  2.24480E+03 -1.18116E+04 -3.09088E+04  2.19529E+04 -3.99076E+04
  4.74166E+04 -1.20636E+04  4.33140E+04  2.59958E+04  2.23887E+04  5.40481E+04 -8.70900E+03  6.01034E+04
 -3.68648E+04  3.92600E+04 -5.03700E+04  1.16885E+04 -4.90626E+04 -1.90139E+04 -2.75015E+04 -4.52202E+04
  8.39958E+03 -4.44548E+04  3.55075E+04 -1.75199E+04  3.43123E+04  1.19898E+04  6.93760E+03  2.08869E+04
 -1.41804E+04  1.02888E+04 -1.17019E+04 -7.08821E+03  7.24441E+03 -1.02452E+04  1.97793E+04  7.10573E+03
  1.59554E+04  2.26736E+04 -3.56103E+03  2.72477E+04 -2.38743E+04  1.54863E+04 -3.22037E+04 -2.09822E+03
 -2.67867E+04 -1.90235E+04 -1.23846E+04 -2.71978E+04  3.46926E+03 -2.74142E+04  2.10582E+04 -2.38948E+04
  3.45407E+04 -1.48880E+04  4.01717E+04  5.49652E+03  2.92095E+04  2.52694E+04  4.32968E+03  4.36021E+04
 -2.04498E+04  3.44547E+04 -3.26621E+04  1.00459E+04 -2.37744E+04 -9.15848E+03 -7.34569E+03 -1.23254E+04
  2.26156E+03  2.52776E+02 -8.65772E+03  8.59912E+03 -2.20043E+04  3.72525E+03 -2.18353E+04 -1.06947E+04
 -1.35791E+04 -2.29432E+04  6.23490E+03 -2.97806E+04  2.09608E+04 -2.27466E+04  2.45889E+04 -2.84851E+03
  1.60711E+04  1.71796E+04 -1.87587E+03  2.50713E+04 -1.80052E+04  1.34472E+04 -2.64218E+04 -4.10374E+03
 -1.88811E+04 -2.33104E+04 -3.12783E+03 -2.94102E+04  1.26403E+04 -2.53913E+04  2.49747E+04 -1.33871E+04
  2.37095E+04 -7.74969E+02  1.63507E+04  6.21005E+03  8.45289E+03  3.05445E+03  1.43286E+04 -2.05802E+03
  2.37106E+04  3.76310E+03  2.57422E+04  2.15029E+04  1.96969E+04  4.05381E+04 -3.91457E+03  4.90062E+04
 -2.69660E+04  4.13844E+04 -4.56841E+04  1.99450E+04 -4.91395E+04 -2.39197E+03 -4.03820E+04 -2.94530E+04
 -1.37306E+04 -4.10153E+04  1.58508E+04 -3.61442E+04  3.17284E+04 -1.50878E+04  2.48108E+04  6.52314E+03
  6.52572E+03  1.97031E+04 -1.13325E+04  1.63380E+04 -2.07222E+04  1.52052E+03 -1.79272E+04 -1.56698E+04
  7.01319E+02 -2.02272E+04  1.11290E+04 -1.54556E+04  1.59385E+04 -7.36323E+02  3.78961E+03  9.21908E+03
 -1.01907E+04  4.61872E+03 -1.17538E+04 -8.48415E+03 -1.78417E+03 -2.06543E+04  1.37737E+04 -2.24076E+04
  2.54029E+04 -1.24155E+04  3.18460E+04  2.71701E+03  2.51901E+04  2.19449E+04  1.20865E+04  3.30808E+04
 -6.20085E+03  3.49833E+04 -2.29313E+04  2.16181E+04 -2.57228E+04  3.67660E+03 -1.90419E+04 -5.64866E+03
 -6.40565E+03 -7.91718E+03  1.73796E+03 -7.77068E+02 -2.45407E+03  4.29546E+03 -8.07734E+03  5.96998E+03
 -1.66435E+04 -1.36273E+03 -1.63356E+04 -1.37057E+04 -7.37894E+03 -2.18307E+04  7.53393E+03 -1.68344E+04
  1.55946E+04 -5.94735E+03  8.18528E+03  4.58183E+03 -7.90536E+01  7.48067E+03 -8.90880E+03 -3.33812E+02
 -9.39486E+03 -1.02321E+04 -8.10680E+01 -1.79303E+04  1.00287E+04 -1.97059E+04  2.24834E+04 -1.12270E+04
  2.73810E+04  2.69384E+03  1.90188E+04  1.62880E+04  3.11425E+03  2.26409E+04 -1.00913E+04  1.63262E+04
 -1.37447E+04  5.14886E+03 -8.58461E+03 -4.05027E+03  2.98287E+03 -5.63270E+03  1.06757E+04 -8.87886E+02
  9.20107E+03  7.28697E+03  3.41943E+02  1.43421E+04 -1.16014E+04  1.30841E+04 -1.88487E+04  1.86510E+03
 -1.25676E+04 -1.04148E+04  4.65378E+02 -1.64174E+04  1.14147E+04 -9.56728E+03  1.22948E+04  2.72762E+03
  2.53525E+03  1.23799E+04 -9.87795E+03  1.34268E+04 -1.55474E+04  5.81180E+03 -1.73092E+04 -4.38833E+03
 -8.51814E+03 -2.00132E+04  4.41695E+03 -1.99479E+04  1.94718E+04 -1.22630E+04  1.99324E+04  2.41813E+03
  1.16063E+04  1.45621E+04 -2.41890E+03  1.89413E+04 -1.39339E+04  1.02275E+04 -1.31595E+04  1.51922E+02
 -1.16222E+04 -1.23942E+04  2.24961E+02 -1.29354E+04  7.61492E+03 -1.01522E+04  9.21315E+03 -3.02771E+03
  4.94928E+03  1.88796E+03 -1.09440E+03  3.28346E+03 -3.18247E+03 -4.62489E+03  2.93406E+03 -8.73770E+03
  1.39369E+04 -4.52161E+03  1.95804E+04  2.02819E+03  1.85485E+04  1.19158E+04  1.15420E+04  2.62392E+04
 -4.35938E+03  2.73921E+04 -2.14822E+04  2.06101E+04 -3.10928E+04  4.20150E+03 -2.49801E+04 -1.11747E+04
 -1.12966E+04 -1.86212E+04 -8.56776E+02 -1.53423E+04  4.07652E+03 -9.99556E+03  7.57855E+03 -5.39041E+03
  3.72606E+03 -3.71791E+03  3.79943E+03 -4.70532E+03  6.66434E+03 -4.11453E+03  7.89942E+03 -1.18690E+03
  1.30048E+04  1.78136E+03  1.01568E+04  1.12595E+04 -2.68572E+03  1.48623E+04 -1.27154E+04  1.08456E+04
 -1.65635E+04  4.69897E+02 -1.30318E+04 -1.30796E+04 -3.19076E+03 -2.14311E+04  1.09485E+04 -2.02743E+04
  2.00077E+04 -9.50177E+03  2.40824E+04  4.57979E+03  1.56633E+04  1.66901E+04  1.63027E+03  2.13263E+04
 -9.46601E+03  1.88238E+04 -1.26707E+04  3.82915E+03 -8.99462E+03 -4.74093E+02 -4.08415E+03 -2.37665E+03
 -9.57346E+02  1.21776E+02 -2.53844E+03  2.13602E+03 -7.11286E+03  3.93210E+03 -1.07266E+04 -1.99419E+03
 -7.51752E+03 -1.14904E+04 -4.32272E+02 -1.80752E+04  1.07306E+04 -1.68680E+04  1.96378E+04 -7.11541E+03
  1.68499E+04  8.32415E+03  6.95652E+03  1.72203E+04 -3.44653E+03  1.85871E+04 -1.28264E+04  1.19360E+04
 -1.72447E+04  9.22928E+02 -1.28122E+04 -1.02467E+04 -4.24791E+01 -1.52046E+04  6.68740E+03 -1.13297E+04
  1.28450E+04 -2.23719E+03  5.35324E+03  4.56397E+03  3.79112E+03  5.35048E+03  1.29182E+03  2.94559E+03
  4.76221E+03  1.81177E+03  3.13434E+03  2.99868E+03  2.30216E+03  5.93020E+03  6.36914E+03  1.21592E+04
 -2.85617E+03  1.61296E+04 -1.15654E+04  1.34846E+04 -2.05129E+04  1.80812E+03 -2.08561E+04 -7.52511E+03
 -8.33798E+03 -1.70847E+04  3.17741E+03 -2.02635E+04  1.11405E+04 -1.22097E+04  1.48390E+04 -5.22605E+03
  1.41718E+04  7.39996E+03  1.80392E+03  9.33273E+03 -5.63570E+03  8.42714E+03 -7.82513E+03  4.10742E+02
 -3.82667E+03 -8.80103E+03  4.58875E+03 -8.42961E+03  9.05995E+03 -3.42279E+03  9.09671E+03  1.55288E+03
  3.86477E+03  4.97172E+03  1.14515E+03  3.89045E+03 -9.00419E+02  2.28334E+03  2.95306E+03 -9.74220E+02
  3.30756E+03 -6.35014E+02  7.11089E+03  2.99162E+03  4.83663E+03  9.14538E+03 -1.68715E+03  1.09698E+04
 -8.06301E+03  8.95353E+03 -1.19487E+04  2.49001E+03 -1.11099E+04 -4.85403E+03 -5.12019E+03 -9.63683E+03
  1.42040E+03 -6.83868E+03  4.75740E+03 -4.57397E+03  4.51649E+03  3.64625E+03 -2.06007E+03  7.69605E+03
 -7.56620E+03  3.78807E+03 -9.34767E+03 -5.83360E+03 -4.54657E+03 -1.17908E+04  2.26336E+03 -1.16942E+04
  5.99913E+03 -6.45091E+03  8.27494E+03 -2.05514E+03  4.98068E+03  3.27673E+03  7.16209E+02  5.48081E+03
 -3.21180E+03  1.53969E+03 -3.31162E+03 -4.27277E+03  2.36732E+03 -9.03179E+03  1.11584E+04 -8.40522E+03
  1.28949E+04  1.18648E+03  1.26570E+04  7.87269E+03  3.57278E+03  1.40743E+04 -4.85852E+03  1.30078E+04
 -1.00953E+04  5.56313E+03 -1.03174E+04 -2.29289E+03 -5.70832E+03 -8.28253E+03  9.97763E+02 -6.91147E+03
  8.09731E+03 -2.49968E+03  6.54732E+03  4.87385E+03  3.01470E+03  7.67460E+03 -2.67801E+03  6.68866E+03
 -3.57603E+03  2.49982E+03 -1.88437E+03  8.87351E+02 -1.54024E+03 -8.26174E+02 -2.97397E+02  1.98142E+03
 -4.41185E+03  5.05649E+03 -8.87999E+03  4.88569E+03 -1.40613E+04 -8.26786E+02 -1.37762E+04 -8.60182E+03
 -5.93269E+03 -1.65462E+04  3.41722E+03 -1.93869E+04  1.15858E+04 -1.45058E+04  2.06369E+04 -6.91587E+03
  1.51254E+04  3.12123E+03  1.02089E+04  1.04832E+04  1.67055E+03  1.21461E+04 -6.57264E+03  1.07820E+04
 -5.90230E+03  2.89139E+03 -3.98818E+03 -2.63841E+03 -1.37826E+03 -1.82830E+03 -2.29316E+03  7.39042E+02
 -2.90912E+03 -8.75462E+02 -3.49537E+03 -7.07853E+01 -1.06150E+03 -1.31228E+03 -4.10857E+02 -4.27054E+03
  6.52287E+03 -5.42519E+03  8.62332E+03 -7.45821E+02  8.81990E+03  8.67948E+03  2.88511E+03  1.27690E+04
 -6.36225E+03  1.40003E+04 -1.56646E+04  7.69317E+03 -1.45725E+04 -1.79806E+03 -1.26014E+04 -1.11457E+04
 -5.09941E+03 -1.17664E+04  4.43590E+03 -1.22992E+04  9.91873E+03 -6.39729E+03  1.07706E+04  2.53452E+02
  4.92342E+03  4.84386E+03 -1.19578E+03  3.04250E+03 -3.27359E+03  5.17828E+02 -1.89004E+02 -3.16956E+03
  3.44299E+03 -7.55909E+02  6.32376E+03  7.34668E+02  3.02055E+03  6.26969E+03 -5.26025E+02  6.52398E+03
 -7.30251E+03  6.14087E+03 -1.09371E+04 -9.33652E+01 -7.59538E+03 -5.33401E+03 -2.44650E+03 -1.22052E+04
  6.54446E+03 -1.15257E+04  9.85662E+03 -2.36252E+03  9.69169E+03 -7.74160E+01  8.13739E+03  9.76748E+03
  1.59475E+03  9.18818E+03 -3.44012E+03  8.54089E+03 -5.81366E+03  4.97697E+03 -7.54857E+03  6.74300E+01
 -3.40349E+03 -1.63183E+02 -2.86041E+03  1.36755E+03 -5.43696E+03  2.11144E+03 -8.57684E+03  5.33189E+02
 -6.52164E+03 -5.95080E+03 -1.89884E+03 -1.09231E+04  3.58435E+03 -9.59651E+03  7.28831E+03 -6.18036E+03
  8.14445E+03  7.49097E+02  6.65089E+03  7.31727E+03 -2.55775E+03  9.01431E+03 -7.01511E+03  4.46399E+03
