 $NMID ID='MM_0lb_SNR200_13hz_g40_33.RAW', FMTDAT='(8E13.5)'
 TRAMP=1., VOLUME=1. $END
  3.09606E+05  1.25193E+03  3.39368E+05  2.50274E+05  8.44585E+04  3.37230E+05 -1.32788E+05  2.50243E+05
 -1.91399E+05  8.23137E+04 -1.13162E+05 -3.28164E+04  3.83489E+02 -5.01435E+04  5.55436E+04 -4.02174E+02
  3.44395E+04  5.22268E+04 -1.63008E+04  7.49627E+04 -6.09202E+04  6.21529E+04 -8.35314E+04  3.33814E+04
 -8.07584E+04 -1.16897E+04 -5.68739E+04 -5.14571E+04 -1.61677E+04 -6.83665E+04  2.70998E+04 -4.59629E+04
  3.95874E+04  4.52779E+03  1.73900E+04  4.69496E+04 -3.29980E+04  4.69215E+04 -6.68475E+04 -3.63061E+02
 -5.32523E+04 -5.63751E+04 -6.91088E+03 -7.63756E+04  3.38525E+04 -5.50032E+04  4.79948E+04 -1.79563E+04
  4.32246E+04  1.09638E+04  3.08303E+04  2.53207E+04  1.61922E+04  2.91753E+04 -6.40739E+03  2.83697E+04
 -2.25044E+04  1.18673E+04 -1.83706E+04 -4.95765E+03  6.45867E+03 -8.86260E+03  2.14409E+04  1.29442E+04
  6.79379E+03  3.48068E+04 -3.24094E+04  3.48762E+04 -6.19768E+04  2.32062E+03 -5.73325E+04 -4.24249E+04
 -1.28347E+04 -6.28861E+04  4.05960E+04 -4.50031E+04  5.91188E+04 -1.98060E+03  3.49855E+04  3.18444E+04
 -6.83046E+03  3.53902E+04 -3.09198E+04  1.67392E+04 -2.90138E+04 -4.14503E+03 -1.67324E+04 -1.12126E+04
 -7.90852E+03 -1.25488E+04 -1.52204E+03 -1.88144E+04  6.24655E+03 -2.29350E+04  1.45012E+04 -1.29973E+04
  1.13906E+04  5.67142E+03 -8.97394E+03  1.29960E+04 -2.10489E+04 -3.69329E+03 -6.94522E+03 -3.34298E+04
  2.32282E+04 -4.27765E+04  4.81875E+04 -1.96996E+04  4.49282E+04  2.14044E+04  1.52261E+04  4.38198E+04
 -1.70137E+04  3.38432E+04 -2.51457E+04  2.21126E+03 -9.26814E+03 -2.65943E+04  2.09661E+04 -3.27756E+04
  4.00505E+04 -8.84405E+03  3.69716E+04  2.29810E+04  1.77317E+04  4.63144E+04 -8.41064E+03  5.01342E+04
 -3.06501E+04  3.34833E+04 -4.04001E+04  8.95317E+03 -4.22874E+04 -1.61181E+04 -2.33753E+04 -3.70451E+04
  8.42387E+03 -3.72806E+04  3.18547E+04 -1.50369E+04  3.06504E+04  1.06428E+04  4.95200E+03  1.93080E+04
 -1.41210E+04  7.89577E+03 -1.03014E+04 -7.25568E+03  5.80026E+03 -1.08018E+04  1.90151E+04  6.68236E+03
  1.31952E+04  2.15171E+04 -6.15184E+03  2.44238E+04 -2.18583E+04  1.13768E+04 -2.89520E+04 -3.59499E+03
 -2.03591E+04 -1.74271E+04 -8.15263E+03 -2.01654E+04  5.10774E+03 -1.90554E+04  1.56021E+04 -1.84480E+04
  2.62266E+04 -1.38276E+04  3.19308E+04  3.24115E+03  2.27903E+04  1.97167E+04  4.45631E+03  3.71108E+04
 -1.82152E+04  3.06584E+04 -2.82587E+04  1.11939E+04 -2.06897E+04 -1.03952E+04 -5.70772E+03 -1.30863E+04
  2.01222E+03 -2.49331E+03 -3.87286E+03  7.75705E+03 -1.67183E+04  5.21084E+03 -1.71140E+04 -7.09660E+03
 -1.00083E+04 -1.98193E+04  4.67307E+03 -2.33343E+04  1.51076E+04 -1.72278E+04  1.78997E+04 -1.40997E+03
  1.13884E+04  1.29681E+04 -1.51454E+02  1.95797E+04 -1.32361E+04  1.12061E+04 -1.88759E+04 -4.34940E+03
 -1.33808E+04 -1.73739E+04 -1.60262E+03 -2.35793E+04  1.09018E+04 -1.98613E+04  1.98952E+04 -9.30394E+03
  1.76539E+04  2.18008E+01  1.30958E+04  4.15510E+03  6.62680E+03  1.00032E+03  1.06853E+04 -2.19884E+03
  1.79715E+04  2.47086E+03  1.84767E+04  1.50968E+04  1.28877E+04  3.15825E+04 -1.88904E+03  3.40412E+04
 -1.87023E+04  2.69582E+04 -3.16249E+04  1.32957E+04 -3.33820E+04 -1.11384E+03 -2.71074E+04 -1.87276E+04
 -1.26181E+04 -2.81347E+04  1.00763E+04 -2.54095E+04  2.19586E+04 -1.26378E+04  1.95326E+04  3.91839E+03
  6.83041E+03  1.55358E+04 -8.34675E+03  1.29488E+04 -1.65019E+04  1.81338E+03 -1.37278E+04 -1.04831E+04
 -2.91113E+02 -1.42303E+04  8.22929E+03 -1.18505E+04  1.15017E+04 -1.05179E+03  3.12821E+03  8.23741E+03
 -6.36081E+03  1.03037E+03 -6.43078E+03 -5.74448E+03 -1.16079E+03 -1.37452E+04  9.93026E+03 -1.41992E+04
  1.76890E+04 -8.21110E+03  1.82398E+04  3.32114E+03  1.62018E+04  1.30544E+04  7.46808E+03  2.06409E+04
 -2.74407E+03  2.34207E+04 -1.48830E+04  1.39560E+04 -1.65552E+04  3.93766E+03 -1.28714E+04 -3.92259E+03
 -5.33820E+03 -5.32324E+03 -1.27031E+03  1.02393E+03 -1.73773E+03  2.29327E+03 -5.26225E+03  4.11073E+03
 -1.06194E+04 -5.28710E+01 -1.05155E+04 -8.76030E+03 -4.48980E+03 -1.49318E+04  4.65846E+03 -1.04534E+04
  9.29231E+03 -5.13077E+03  7.08473E+03  3.65413E+03  8.77105E+02  3.92433E+03 -5.45515E+03 -8.85434E+02
 -5.09196E+03 -6.93486E+03 -1.40812E+03 -9.00281E+03  5.48614E+03 -1.24669E+04  1.46314E+04 -6.29155E+03
  1.78488E+04  3.03143E+03  1.16647E+04  1.06863E+04  2.64304E+03  1.49044E+04 -6.74101E+03  1.18302E+04
 -9.46261E+03  4.47157E+03 -4.79973E+03 -2.03207E+03  1.03184E+03 -2.65283E+03  6.38430E+03 -1.32016E+03
  4.23744E+03  5.33555E+03  5.89120E+02  9.92310E+03 -6.66403E+03  8.68131E+03 -1.10289E+04  2.72211E+03
 -7.32366E+03 -6.20194E+03  8.92935E+02 -1.00749E+04  6.49928E+03 -4.93791E+03  5.84759E+03  1.12059E+03
  1.52026E+03  6.09536E+03 -6.41320E+03  7.92430E+03 -9.42469E+03  3.69528E+03 -7.08786E+03 -2.62228E+03
 -6.14262E+03 -9.98394E+03  2.39973E+03 -1.24822E+04  1.00233E+04 -6.58859E+03  1.10638E+04  1.88407E+03
  6.88958E+03  8.51570E+03 -1.08135E+03  1.17590E+04 -7.16921E+03  6.95370E+03 -8.10285E+03 -1.02789E+03
 -8.31578E+03 -7.44986E+03 -1.98915E+03 -7.90785E+03  6.35796E+03 -6.95610E+03  5.42567E+03 -2.27553E+03
  3.18582E+03  1.94043E+03 -1.11399E+03  2.17733E+03  5.17535E+02 -2.54588E+03  2.51412E+03 -4.28312E+03
  7.51113E+03 -3.54648E+03  1.04781E+04  9.28192E+02  8.81997E+03  6.75809E+03  5.78491E+03  1.39219E+04
 -3.61206E+03  1.48039E+04 -1.30666E+04  1.26663E+04 -1.64535E+04  1.07198E+03 -1.30718E+04 -6.15295E+03
 -7.54994E+03 -1.08091E+04 -2.57375E+02 -9.00239E+03  2.73941E+03 -3.92959E+03  2.41018E+03 -3.09958E+03
  2.22714E+03 -3.60250E+03  3.69044E+03 -2.87071E+03  5.99146E+03 -2.19109E+03  4.96093E+03 -7.73542E+02
  7.48961E+03  2.07786E+03  3.34072E+03  6.33559E+03 -1.38385E+03  6.65151E+03 -8.91668E+03  4.56075E+03
 -8.94451E+03 -1.00950E+03 -5.21104E+03 -7.46189E+03 -2.55373E+02 -8.93410E+03  4.89334E+03 -9.00037E+03
  1.08956E+04 -5.60729E+03  1.12126E+04  1.07340E+03  9.03830E+03  6.92082E+03  1.96450E+03  1.16758E+04
 -4.98550E+03  8.59368E+03 -5.39103E+03  2.89118E+03 -4.01056E+03 -5.00421E+02 -2.92734E+03 -1.80971E+03
 -1.20940E+03 -8.11983E+02 -1.88127E+03  2.90645E+03 -3.61498E+03  1.26332E+03 -7.02481E+03 -1.30085E+03
 -2.92544E+03 -6.99583E+03 -3.69102E+02 -8.05129E+03  6.45639E+03 -8.60601E+03  6.91555E+03 -2.04837E+03
  9.19780E+03  4.42715E+03  3.20437E+03  8.37764E+03 -7.51958E+02  8.10088E+03 -6.52216E+03  5.07023E+03
 -7.80771E+03  1.28670E+03 -5.72650E+03 -5.40584E+03 -9.32839E+02 -7.15610E+03  4.59233E+03 -5.60201E+03
  4.66589E+03 -2.03662E+03  3.50426E+03 -6.65168E+01  1.60951E+03  3.38689E+03  1.50060E+03  1.38539E+03
  3.43437E+03  3.26443E+02  3.11040E+03  5.46390E+02  2.17766E+03  3.12021E+03  1.98654E+03  3.87253E+03
 -2.04160E+03  8.03571E+03 -4.93856E+03  7.57615E+03 -6.59913E+03  1.44274E+03 -9.63957E+03 -2.84734E+03
 -3.20055E+03 -7.36599E+03  6.55099E+02 -8.52866E+03  4.53252E+03 -6.15717E+03  5.96076E+03 -2.42838E+03
  6.23867E+03  3.58371E+03  9.87792E+02  4.91835E+03 -1.55850E+03  3.20298E+03 -2.22321E+03 -1.59849E+02
 -3.02134E+03 -2.35028E+03  1.16748E+03 -3.62355E+03  2.29325E+03 -3.58045E+03  2.73267E+03  1.75748E+03
  2.96725E+03  1.69497E+03  8.57478E+02 -3.13660E+02 -1.58449E+02 -2.75121E+02  1.42743E+03  7.98013E+02
  6.52454E+02  5.78146E+02  2.70750E+03  1.40281E+03  6.49371E+02  4.68774E+03 -1.29247E+03  5.15310E+03
 -4.82614E+03  2.24121E+03 -5.69897E+03  8.42205E+02 -4.72845E+03 -1.72712E+03 -1.05524E+03 -3.18587E+03
  1.53593E+03 -1.50329E+03  2.26345E+03 -4.88460E+02  1.64536E+03  2.36183E+03 -7.54816E+02  2.18334E+03
 -2.29914E+03  1.42763E+03 -3.53906E+03 -1.19032E+03 -1.42052E+03 -4.17417E+03  9.10363E+02 -4.10911E+03
  2.32270E+03 -2.31829E+03  2.96118E+03  7.48186E+02  2.64143E+03  5.42672E+02  8.89198E+02  3.44768E+03
  1.55956E+02  5.61028E+02 -1.97971E+03 -6.23962E+02  7.87358E+02 -2.64721E+03  2.65353E+03 -2.74535E+03
  4.67677E+03  1.27640E+03  4.85882E+03  3.12168E+03  2.47565E+03  5.28980E+03 -2.13568E+03  4.41154E+03
 -4.37959E+03  1.98331E+03 -4.10351E+03  4.11110E+02 -2.91824E+03 -3.43124E+03  1.34806E+03 -3.47063E+03
  3.49625E+03 -1.53553E+03  1.77029E+03  1.66725E+03  6.46842E+02  2.26874E+03 -1.69510E+02  1.36341E+03
 -1.65025E+03  1.13036E+03 -1.82065E+03  1.97177E+02  1.37260E+03  1.90154E+03 -3.80153E+02  1.89146E+03
 -1.24429E+03  1.66080E+03 -4.21419E+03  1.83901E+03 -3.73474E+03 -1.03650E+02 -5.68072E+03 -2.99542E+03
 -2.31926E+03 -6.27927E+03  1.89031E+03 -6.89103E+03  4.26917E+03 -5.85668E+03  7.78962E+03 -2.21475E+03
  5.76137E+03  1.79403E+03  4.88607E+03  4.52099E+03 -1.18969E+03  2.44576E+03 -1.49186E+03  4.37261E+03
 -3.90456E+03  1.24004E+03 -1.73395E+03 -4.15946E+02 -8.94763E+02  4.29303E+02  1.72393E+02  5.80025E+02
 -5.92423E+02 -5.29320E+02 -2.33148E+03 -3.41305E+02 -5.09523E+02 -4.08499E+02 -5.74942E+02 -2.21487E+03
  2.23845E+03 -1.24400E+03  3.25106E+03  1.84632E+02  3.69250E+03  3.00404E+03  1.69664E+03  5.26078E+03
 -2.26525E+03  4.29152E+03 -4.54769E+03  2.72744E+03 -6.62767E+03 -8.22102E+02 -3.82035E+03 -2.57712E+03
 -1.96396E+03 -5.12710E+03  1.47498E+03 -4.74079E+03  2.86110E+03 -2.96771E+03  3.72806E+03 -4.05842E+02
  6.32856E+02  1.47507E+03  4.85262E+02  1.49423E+03 -1.58512E+02 -5.11872E+01  5.67356E+02 -1.62554E+03
  1.61717E+03  2.03615E+02  2.01553E+03  1.58279E+01  1.93262E+02  4.13900E+03  1.13581E+03  8.59738E+02
 -1.67908E+03  2.18118E+03 -3.37052E+03  2.02651E+03 -2.28511E+03 -1.67439E+03 -1.03294E+02 -1.96747E+03
  2.92855E+03 -2.23282E+03  3.99520E+03 -2.05122E+03  4.19332E+03  4.03959E+02  2.67214E+03  2.80540E+03
 -8.18769E+02  3.75319E+03 -1.17722E+03  1.77021E+03 -2.85141E+03  9.18584E+02 -1.50809E+03 -8.14880E+02
  6.92376E+02 -9.01425E+02 -1.85234E+03  1.18066E+03 -8.00088E+02 -7.61455E+02 -2.45362E+03 -5.55010E+02
 -1.76005E+03 -2.65786E+03 -7.39380E+02 -3.80485E+03  1.66564E+03 -2.82662E+03  3.20769E+03 -1.53457E+03
  3.36529E+03  5.13527E+02  1.33949E+03  1.37549E+03 -2.43682E+02  3.35221E+03 -3.10654E+03  1.14920E+03
