 $NMID ID='MM_0lb_SNR200_8hz_g40_91.RAW', FMTDAT='(8E13.5)'
 TRAMP=1., VOLUME=1. $END
  3.10221E+05  1.34758E+03  3.38373E+05  2.50448E+05  8.47774E+04  3.38591E+05 -1.32045E+05  2.51508E+05
 -1.91056E+05  8.31745E+04 -1.13881E+05 -3.17608E+04  8.24404E+02 -5.04200E+04  5.37656E+04 -9.86068E+02
  3.56559E+04  5.19235E+04 -1.57084E+04  7.86708E+04 -6.01496E+04  6.34953E+04 -8.63202E+04  3.19911E+04
 -8.13255E+04 -1.31786E+04 -5.89637E+04 -5.27277E+04 -1.52896E+04 -7.23686E+04  2.65253E+04 -4.76618E+04
  4.15879E+04  2.93315E+03  1.83464E+04  4.96998E+04 -3.34728E+04  4.98397E+04 -6.85417E+04 -7.43693E+02
 -5.52866E+04 -5.71428E+04 -6.07699E+03 -7.90733E+04  3.38035E+04 -5.69073E+04  5.08509E+04 -1.75171E+04
  4.30363E+04  1.20150E+04  3.33599E+04  2.76638E+04  1.61883E+04  3.15371E+04 -5.10953E+03  2.71152E+04
 -2.07414E+04  1.13591E+04 -1.77680E+04 -5.12211E+03  6.73711E+03 -7.64405E+03  2.37861E+04  1.43001E+04
  6.35194E+03  3.68952E+04 -3.18834E+04  3.76924E+04 -6.54357E+04  3.04464E+03 -5.85347E+04 -4.57493E+04
 -1.15441E+04 -6.67360E+04  4.11316E+04 -4.69722E+04  6.05321E+04 -3.27755E+03  3.58428E+04  3.75213E+04
 -5.12443E+03  4.13196E+04 -3.09946E+04  1.95660E+04 -3.27610E+04 -2.64633E+03 -1.80685E+04 -1.33617E+04
 -9.57173E+03 -1.66130E+04 -4.34109E+02 -2.06593E+04  7.80604E+03 -2.26555E+04  1.75373E+04 -1.36520E+04
  9.32579E+03  7.07437E+03 -1.05246E+04  1.16595E+04 -2.35386E+04 -6.76196E+03 -1.00136E+04 -3.68765E+04
  2.49721E+04 -4.50193E+04  5.19213E+04 -2.04818E+04  4.78790E+04  2.01781E+04  1.74824E+04  4.68324E+04
 -1.58687E+04  3.63107E+04 -2.67591E+04  2.30357E+03 -1.17060E+04 -3.06797E+04  2.24182E+04 -3.53385E+04
  4.49504E+04 -1.09320E+04  4.11984E+04  2.61386E+04  2.29165E+04  5.04530E+04 -8.72228E+03  5.64172E+04
 -3.71503E+04  3.88270E+04 -4.87158E+04  1.13000E+04 -4.67558E+04 -2.06323E+04 -2.61738E+04 -4.17312E+04
  8.28951E+03 -4.19091E+04  3.49269E+04 -1.74113E+04  3.22449E+04  1.09468E+04  4.76009E+03  2.13765E+04
 -1.25589E+04  1.02250E+04 -1.05465E+04 -7.25873E+03  5.93934E+03 -1.19750E+04  1.87643E+04  5.59104E+03
  1.48363E+04  2.43534E+04 -5.22715E+03  2.84359E+04 -2.29085E+04  1.46231E+04 -3.17685E+04 -2.41094E+03
 -2.63153E+04 -1.72451E+04 -1.13817E+04 -2.57914E+04  5.76754E+03 -2.54202E+04  1.91778E+04 -2.34706E+04
  3.20816E+04 -1.38037E+04  3.79800E+04  4.66417E+03  2.87301E+04  2.48211E+04  3.39066E+03  4.08402E+04
 -1.87768E+04  3.58469E+04 -3.04593E+04  1.24429E+04 -2.35423E+04 -1.16561E+04 -5.14212E+03 -1.21138E+04
  7.47983E+02  1.17059E+03 -8.63751E+03  8.55329E+03 -2.11251E+04  5.98770E+03 -1.85394E+04 -9.59104E+03
 -1.19204E+04 -2.32880E+04  6.10938E+03 -2.81934E+04  1.98736E+04 -1.85504E+04  2.34558E+04 -2.58883E+03
  1.42301E+04  1.71491E+04 -1.80701E+03  2.36329E+04 -1.60263E+04  1.51608E+04 -2.33617E+04 -3.88142E+03
 -1.71504E+04 -1.90023E+04 -2.22473E+03 -2.78279E+04  1.10407E+04 -2.23082E+04  2.49296E+04 -1.20198E+04
  2.20584E+04  3.42099E+02  1.54270E+04  5.04731E+03  1.00437E+04  1.25218E+03  1.18134E+04 -4.32966E+03
  2.25328E+04  2.66622E+03  2.55379E+04  1.96995E+04  1.85898E+04  3.84564E+04 -2.93614E+03  4.57769E+04
 -2.42886E+04  3.83164E+04 -4.20021E+04  1.88874E+04 -4.48274E+04 -3.42226E+03 -3.54670E+04 -2.68480E+04
 -1.57397E+04 -3.76731E+04  1.45172E+04 -3.32015E+04  2.79442E+04 -1.80898E+04  2.46852E+04  9.33896E+03
  8.36295E+03  1.86157E+04 -1.16697E+04  1.68964E+04 -2.06820E+04  1.46307E+03 -1.59931E+04 -1.29673E+04
 -1.98496E+03 -1.84218E+04  9.77687E+03 -1.48091E+04  1.36467E+04 -5.00163E+02  2.64267E+03  9.01619E+03
 -8.26161E+03  6.39881E+03 -9.54994E+03 -6.43095E+03 -2.23037E+03 -1.81621E+04  1.31063E+04 -2.06251E+04
  2.21181E+04 -1.28941E+04  2.72101E+04  3.14958E+03  2.25564E+04  1.83727E+04  9.45372E+03  3.01219E+04
 -6.98441E+03  3.36236E+04 -1.93923E+04  1.98975E+04 -2.28828E+04  4.50704E+03 -1.54245E+04 -6.32686E+03
 -5.57849E+03 -6.63741E+03  5.37433E+02  6.58434E+02 -2.91022E+03  3.08804E+03 -9.17214E+03  4.73689E+03
 -1.46213E+04 -1.42226E+03 -1.53388E+04 -1.39491E+04 -7.12868E+03 -2.06446E+04  6.88215E+03 -1.41032E+04
  1.38527E+04 -6.94191E+03  1.03785E+04  5.39010E+03 -3.84936E+02  4.09685E+03 -7.50315E+03  6.25664E+02
 -8.81794E+03 -1.02827E+04 -2.39329E+02 -1.62489E+04  8.46592E+03 -1.80972E+04  1.81975E+04 -8.47534E+03
  2.48446E+04  2.18241E+03  1.66706E+04  1.36464E+04  3.52905E+03  1.86850E+04 -9.96154E+03  1.71233E+04
 -1.14685E+04  5.32335E+03 -5.94271E+03 -3.56578E+03  8.34569E+02 -4.20060E+03  8.93020E+03  2.95431E+02
  7.60528E+03  6.41056E+03  6.56409E+02  1.25212E+04 -1.03921E+04  1.26427E+04 -1.53371E+04  3.10496E+03
 -1.11088E+04 -9.18147E+03 -3.55718E+02 -1.51586E+04  9.88551E+03 -7.10583E+03  8.82901E+03  2.84332E+03
  2.23554E+03  1.03301E+04 -9.10169E+03  1.25631E+04 -1.39259E+04  5.54029E+03 -1.39615E+04 -5.05087E+03
 -7.79830E+03 -1.54911E+04  5.60488E+03 -1.83975E+04  1.61769E+04 -1.15391E+04  1.77484E+04  3.67783E+03
  1.00406E+04  1.34175E+04 -2.42151E+03  1.68885E+04 -1.23697E+04  7.19141E+03 -1.37782E+04 -2.64925E+03
 -1.21065E+04 -1.05204E+04 -2.95943E+02 -1.22119E+04  6.81059E+03 -9.86180E+03  7.73752E+03 -3.88941E+03
  6.58358E+03  3.29258E+03 -1.39423E+03  2.20663E+03 -1.96248E+03 -3.03723E+03  1.35882E+03 -7.96279E+03
  1.22842E+04 -3.63421E+03  1.62337E+04  2.73037E+03  1.49012E+04  1.23394E+04  9.36023E+03  2.22657E+04
 -6.66621E+03  2.54497E+04 -2.29453E+04  1.75884E+04 -2.61727E+04  4.45848E+03 -2.17655E+04 -9.48234E+03
 -1.01985E+04 -1.82369E+04 -3.48802E+02 -1.61470E+04  5.81114E+03 -8.55241E+03  5.74499E+03 -5.71159E+03
  4.71112E+03 -3.08570E+03  6.09783E+03 -4.05284E+03  5.48482E+03 -3.52623E+03  9.94518E+03 -1.66843E+03
  1.09824E+04  2.54795E+03  5.86420E+03  1.02002E+04 -2.03852E+03  1.10614E+04 -1.23336E+04  9.19071E+03
 -1.48095E+04 -1.48360E+02 -1.05528E+04 -1.17421E+04 -1.73472E+03 -1.67118E+04  9.77321E+03 -1.64398E+04
  1.62770E+04 -1.04175E+04  2.07963E+04  2.67099E+03  1.47213E+04  1.62856E+04  2.01033E+03  1.79951E+04
 -7.74997E+03  1.60340E+04 -9.39618E+03  5.15111E+03 -8.47730E+03 -1.12529E+03 -3.68916E+03 -3.50149E+03
 -6.89733E+02 -1.55206E+01 -3.10560E+03  4.61674E+03 -6.96422E+03  3.46334E+03 -1.31823E+04 -3.18514E+02
 -6.68788E+03 -1.10942E+04  5.61134E+02 -1.41612E+04  8.53045E+03 -1.41244E+04  1.65251E+04 -4.09692E+03
  1.60380E+04  6.17026E+03  9.15175E+03  1.43009E+04 -2.71384E+03  1.58290E+04 -1.00489E+04  9.19701E+03
 -1.49840E+04 -1.11605E+03 -1.00163E+04 -9.78820E+03 -3.04353E+03 -1.20766E+04  5.72149E+03 -1.05573E+04
  1.03201E+04 -3.28320E+03  7.73966E+03  2.19098E+03  1.89279E+03  5.45534E+03  1.19937E+03  1.84635E+03
  3.93886E+03  1.66627E+03  2.79078E+03  3.64950E+03  4.30971E+03  4.66306E+03  4.29751E+03  7.96673E+03
 -4.87556E+03  1.20566E+04 -1.15376E+04  1.31932E+04 -1.72965E+04  4.73833E+03 -1.80393E+04 -6.78590E+03
 -8.01009E+03 -1.59672E+04  2.18724E+03 -1.68867E+04  1.05147E+04 -1.05078E+04  1.29302E+04 -3.77434E+03
  1.12987E+04  6.28158E+03  4.12917E+02  9.64424E+03 -3.79012E+03  5.04374E+03 -7.36005E+03 -1.42684E+03
 -3.88442E+03 -5.51245E+03  3.74270E+03 -6.10059E+03  4.95167E+03 -3.76257E+03  7.79224E+03  9.68801E+02
  3.76143E+03  2.80191E+03  1.63399E+03  3.60760E+03 -5.32700E+02  6.26501E+02  6.02148E+02 -1.62721E+03
  2.28814E+03 -2.30674E+02  6.77998E+03  1.21857E+03  4.32960E+03  8.51688E+03 -2.82863E+03  1.11375E+04
 -8.00336E+03  7.29049E+03 -1.04637E+04  2.64774E+03 -8.33657E+03 -3.53449E+03 -4.34134E+03 -6.30725E+03
  1.60055E+03 -6.35770E+03  5.14726E+03 -3.28462E+03  4.20028E+03  2.02539E+03 -2.28216E+02  7.26466E+03
 -6.46023E+03  2.91537E+03 -7.46280E+03 -4.49167E+03 -4.81188E+03 -1.01744E+04  1.47401E+03 -7.72196E+03
  5.68846E+03 -5.17387E+03  6.45885E+03  2.29121E+02  4.49479E+03  1.58545E+03  1.05817E+03  4.56162E+03
 -1.86741E+03  2.03018E+03 -1.81451E+03 -3.29941E+03  1.55225E+03 -6.59066E+03  6.05961E+03 -6.87176E+03
  9.18429E+03  5.09225E+02  1.10864E+04  6.96654E+03  3.58969E+03  1.07074E+04 -3.90164E+03  1.08059E+04
 -7.58146E+03  4.52510E+03 -1.00251E+04 -1.62872E+03 -4.77995E+03 -5.13686E+03  1.93676E+03 -6.42584E+03
  7.15577E+03 -2.01095E+03  5.65892E+03  1.99891E+03  1.56016E+03  5.19256E+03 -1.40487E+03  6.39258E+03
 -1.79480E+03  2.55890E+03 -5.44445E+02  9.83324E+02 -2.67282E+02  1.73373E+03 -6.40759E+02  1.28363E+03
 -2.15601E+03  3.24194E+03 -7.60422E+03  2.14203E+03 -1.23944E+04  2.68326E+03 -1.20482E+04 -7.48384E+03
 -4.42284E+03 -1.50379E+04  3.20216E+03 -1.67263E+04  1.07113E+04 -1.42846E+04  1.63458E+04 -3.89906E+03
  1.52750E+04  1.65218E+03  9.42162E+03  9.73763E+03  1.55762E+03  1.09546E+04 -4.29100E+03  1.03235E+04
 -7.12916E+03  3.29186E+03 -5.06786E+03  1.32320E+02 -3.28797E+03 -1.04609E+03  5.91784E+02 -6.27788E+02
 -4.03098E+02 -6.80525E+02 -2.38578E+03  4.84704E+02  2.29035E+02 -3.39551E+03  1.35636E+03 -3.81888E+03
  4.88806E+03 -2.41329E+03  7.82620E+03  4.64914E+02  8.27957E+03  7.26290E+03  2.50332E+03  1.06781E+04
 -5.48452E+03  1.47528E+04 -1.21496E+04  7.89272E+03 -1.38544E+04 -1.21904E+03 -1.02888E+04 -8.76787E+03
 -5.52309E+03 -1.23280E+04  3.38243E+03 -1.26447E+04  8.71821E+03 -7.04951E+03  6.13332E+03 -5.79619E+02
  4.89755E+03  4.59702E+03 -1.41820E+03  4.81910E+03 -2.39658E+03 -1.00892E+03  4.37988E+02 -3.82626E+03
  3.32977E+03 -9.53372E+02  4.39042E+03  1.60818E+03  4.11279E+03  6.61219E+03  5.32820E+02  5.51613E+03
 -4.58111E+03  5.53622E+03 -9.21167E+03  8.71178E+02 -7.36347E+03 -7.03972E+03  1.56800E+03 -8.59922E+03
  6.64983E+03 -9.17121E+03  9.04533E+03 -1.95311E+03  8.56270E+03  1.69715E+03  5.54921E+03  9.05961E+03
 -3.63052E+02  9.40385E+03 -3.15194E+03  7.43045E+03 -5.41277E+03  3.80951E+03 -5.98138E+03  3.21267E+02
 -1.99624E+03 -2.15316E+03 -2.38931E+03  1.98890E+03 -2.47466E+03  1.25586E+03 -4.33509E+03 -2.31788E+03
 -6.03797E+03 -4.28187E+03 -2.04242E+03 -7.81055E+03  2.72707E+03 -8.29418E+03  7.91215E+03 -5.77312E+03
  7.26306E+03  1.48231E+03  4.87413E+03  5.67615E+03  1.64448E+02  7.47180E+03 -5.25467E+03  5.46997E+03
