 $NMID ID='MM_0lb_SNR200_15hz_g50_38.RAW', FMTDAT='(8E13.5)'
 TRAMP=1., VOLUME=1. $END
  3.09756E+05  7.69310E+02  3.37720E+05  2.50204E+05  8.43690E+04  3.37877E+05 -1.32548E+05  2.49984E+05
 -1.91463E+05  8.48828E+04 -1.11978E+05 -3.43321E+04 -7.16196E+02 -5.08595E+04  5.45232E+04 -7.03100E+02
  3.68799E+04  5.37751E+04 -1.65874E+04  7.53602E+04 -6.09126E+04  6.39137E+04 -8.45367E+04  3.17687E+04
 -8.10498E+04 -1.14044E+04 -5.71213E+04 -5.03425E+04 -1.40068E+04 -6.94473E+04  2.66130E+04 -4.49855E+04
  4.14108E+04  4.23864E+03  1.52843E+04  4.65680E+04 -3.49807E+04  4.74822E+04 -6.61097E+04 -8.43936E+02
 -5.40509E+04 -5.70487E+04 -6.49578E+03 -7.65669E+04  3.31886E+04 -5.46504E+04  4.80947E+04 -1.79341E+04
  4.41044E+04  1.17845E+04  3.08012E+04  2.54236E+04  1.61731E+04  3.08199E+04 -5.31668E+03  2.65203E+04
 -2.20067E+04  1.22730E+04 -1.76447E+04 -5.02238E+03  5.86096E+03 -7.93743E+03  2.25879E+04  1.19761E+04
  6.53325E+03  3.44939E+04 -3.16776E+04  3.51853E+04 -6.16464E+04  2.31136E+03 -5.75360E+04 -4.14566E+04
 -1.20769E+04 -6.26784E+04  3.96622E+04 -4.50860E+04  5.77480E+04 -2.52169E+03  3.44459E+04  3.31006E+04
 -5.53641E+03  3.62569E+04 -3.04609E+04  1.63055E+04 -3.13695E+04 -4.85041E+03 -1.64769E+04 -1.16453E+04
 -8.01090E+03 -1.09042E+04 -7.22449E+02 -1.66417E+04  7.15077E+03 -2.30820E+04  1.55377E+04 -1.37577E+04
  1.20212E+04  5.96577E+03 -6.72074E+03  1.33176E+04 -2.14515E+04 -4.23823E+03 -8.52325E+03 -3.35327E+04
  2.20342E+04 -4.31837E+04  4.86694E+04 -1.93905E+04  4.38423E+04  1.93193E+04  1.64049E+04  4.34332E+04
 -1.70141E+04  3.35462E+04 -2.52162E+04  2.21180E+03 -9.72156E+03 -2.62620E+04  2.00433E+04 -3.33248E+04
  4.07224E+04 -8.95880E+03  3.45588E+04  2.36851E+04  1.82644E+04  4.59638E+04 -7.45100E+03  5.02194E+04
 -3.16553E+04  3.37685E+04 -4.25048E+04  9.43858E+03 -4.18087E+04 -1.65865E+04 -2.33052E+04 -3.75611E+04
  6.32192E+03 -3.84706E+04  3.15194E+04 -1.53723E+04  2.81411E+04  9.53854E+03  4.18576E+03  1.81248E+04
 -1.28475E+04  8.53971E+03 -1.07226E+04 -8.14473E+03  6.59163E+03 -1.07293E+04  1.78285E+04  5.79515E+03
  1.40809E+04  2.35949E+04 -6.69727E+03  2.47892E+04 -2.15268E+04  1.14580E+04 -2.84628E+04 -5.34556E+03
 -1.97012E+04 -1.73074E+04 -7.91581E+03 -2.02731E+04  2.94984E+03 -1.96700E+04  1.41719E+04 -1.77648E+04
  2.55321E+04 -1.33248E+04  3.10061E+04  2.76035E+03  2.38250E+04  1.93440E+04  3.88293E+03  3.58082E+04
 -1.63696E+04  3.04455E+04 -2.61511E+04  9.58453E+03 -2.16258E+04 -1.12346E+04 -2.87399E+03 -1.37980E+04
  2.48660E+03 -2.52867E+03 -4.14384E+03  4.43818E+03 -1.69488E+04  4.56615E+03 -1.66249E+04 -5.74847E+03
 -9.61843E+03 -1.79691E+04  6.00907E+03 -2.18469E+04  1.37852E+04 -1.50334E+04  1.66311E+04 -3.19819E+03
  1.05945E+04  1.30727E+04 -4.78237E+02  1.88198E+04 -1.19842E+04  1.04386E+04 -1.87514E+04 -3.88749E+03
 -1.34790E+04 -1.54882E+04 -1.35636E+03 -2.27223E+04  1.08669E+04 -1.73535E+04  1.88654E+04 -8.40566E+03
  1.65635E+04 -1.60662E+02  1.19403E+04  4.73669E+03  7.13457E+03  5.86042E+02  9.09003E+03 -4.30197E+02
  1.64626E+04  2.15062E+03  1.90579E+04  1.46355E+04  1.12518E+04  2.84766E+04 -2.79372E+03  3.14636E+04
 -1.89756E+04  2.60484E+04 -2.94341E+04  1.30167E+04 -3.23488E+04 -2.11916E+03 -2.58836E+04 -1.92614E+04
 -1.18335E+04 -2.53998E+04  8.97490E+03 -2.35871E+04  2.10619E+04 -1.25827E+04  1.89489E+04  4.02732E+03
  7.32263E+03  1.39334E+04 -9.27076E+03  1.22332E+04 -1.56729E+04  2.08911E+03 -1.18829E+04 -9.53617E+03
  4.80871E+02 -1.43348E+04  7.01793E+03 -1.03752E+04  8.61486E+03 -9.95022E+02  1.22415E+03  5.76048E+03
 -5.84128E+03  1.83721E+03 -5.00398E+03 -5.49672E+03 -3.28903E+02 -1.26608E+04  9.93233E+03 -1.36476E+04
  1.59387E+04 -6.20420E+03  1.61745E+04  2.83663E+03  1.36382E+04  1.18568E+04  7.65805E+03  1.90150E+04
 -3.81647E+03  2.07192E+04 -1.27895E+04  1.30525E+04 -1.42239E+04  4.07049E+03 -1.02947E+04 -3.30009E+03
 -5.14219E+03 -4.45076E+03 -1.19593E+03  7.40219E+02 -2.24122E+03  2.44717E+03 -5.63505E+03  3.59146E+03
 -9.73149E+03 -1.62645E+03 -9.93453E+03 -9.82833E+03 -3.14713E+03 -1.38945E+04  3.47723E+03 -1.08656E+04
  9.75670E+03 -5.53531E+03  6.69567E+03  3.53182E+03 -1.39511E+02  4.76991E+03 -4.91926E+03 -2.93410E+02
 -5.41718E+03 -7.69633E+03 -1.01397E+03 -9.70734E+03  5.11061E+03 -1.02979E+04  1.26561E+04 -5.24180E+03
  1.50136E+04  1.44889E+03  1.27113E+04  8.84681E+03  1.59937E+03  1.22343E+04 -6.59828E+03  1.08911E+04
 -8.06145E+03  3.17656E+03 -3.95764E+03 -1.78383E+03  2.54626E+03 -2.99028E+03  6.46310E+03 -8.76285E+02
  5.64169E+03  3.64545E+03  9.66065E+02  7.52826E+03 -6.23996E+03  8.99294E+03 -1.04416E+04  3.20189E+02
 -6.14345E+03 -4.55740E+03  3.13112E+02 -8.54310E+03  5.42936E+03 -4.82941E+03  6.22468E+03  1.61345E+03
 -4.83944E+02  4.73506E+03 -4.78616E+03  6.45450E+03 -7.41708E+03  3.66046E+03 -5.97224E+03 -3.04843E+03
 -5.47447E+03 -9.58962E+03  2.09089E+03 -9.95976E+03  8.33335E+03 -6.66043E+03  9.54421E+03  5.36781E+02
  7.06167E+03  7.30231E+03 -9.83148E+02  9.01400E+03 -7.20496E+03  6.15738E+03 -6.32300E+03 -1.02167E+03
 -7.84405E+03 -6.01676E+03 -2.23366E+03 -7.42738E+03  3.55276E+03 -6.21696E+03  4.58673E+03 -3.38038E+03
  3.80515E+03  1.61971E+03 -8.72281E+02  1.54204E+03 -1.54889E+02 -1.37278E+03 -5.88562E+01 -3.78206E+03
  5.03190E+03 -1.78474E+03  8.86935E+03  6.74020E+02  1.00856E+04  4.80451E+03  5.59851E+03  1.09420E+04
 -2.20183E+03  1.33086E+04 -1.12438E+04  9.22596E+03 -1.42050E+04  1.57770E+03 -1.13000E+04 -3.85802E+03
 -6.64645E+03 -9.72940E+03  9.17673E+02 -7.84146E+03  3.30730E+03 -4.54883E+03  1.84670E+03 -2.63200E+03
  2.18938E+03 -1.24955E+03  1.75716E+03 -2.73017E+03  3.86518E+03 -1.60856E+03  4.86708E+03 -5.06060E+02
  6.50205E+03  1.94564E+03  2.12044E+03  4.51125E+03 -2.92949E+03  6.10454E+03 -6.08769E+03  3.97055E+03
 -6.50192E+03 -1.99585E+03 -3.62813E+03 -4.61378E+03 -2.45070E+02 -8.33082E+03  5.83349E+03 -7.50576E+03
  7.78534E+03 -4.89774E+03  9.46907E+03  1.19376E+03  6.93765E+03  6.84396E+03  1.57293E+03  9.75469E+03
 -3.55533E+03  7.77336E+03 -5.34558E+03  2.80274E+03 -2.56877E+03 -1.71847E+03 -1.48310E+03 -1.05572E+03
 -1.12539E+03  6.28469E+02 -3.77197E+02  2.57780E+03 -4.13668E+03  1.52799E+03 -5.98513E+03 -3.65845E+02
 -2.06400E+03 -4.62462E+03  1.88871E+03 -6.49162E+03  3.73576E+03 -6.92760E+03  6.64784E+03 -2.38354E+03
  5.88193E+03  3.98087E+03  3.26493E+03  5.97894E+03 -2.80697E+03  7.55646E+03 -3.89134E+03  3.48966E+03
 -7.43741E+03 -2.78716E+00 -5.53877E+03 -4.52718E+03 -8.89835E+01 -5.86406E+03  2.79550E+03 -4.57506E+03
  4.39813E+03 -3.12827E+03  3.02799E+03  5.33325E+02  2.10337E+02  3.00020E+03  1.97678E+03  4.34797E+02
  2.63207E+03  8.21970E+02  1.72880E+03  1.88164E+03  2.31189E+03  2.61126E+03  1.60528E+03  2.49394E+03
 -1.54016E+03  6.50525E+03 -3.90646E+03  5.91380E+03 -5.35892E+03  1.66532E+03 -6.02940E+03 -1.31362E+03
 -3.17946E+03 -6.86748E+03  1.21034E+03 -7.11660E+03  2.22996E+03 -4.95946E+03  6.11870E+03 -2.30851E+03
  4.44164E+03  2.67100E+03  7.03355E+02  3.59350E+03 -2.18875E+03  3.36442E+03 -2.01833E+03  4.20608E+02
 -5.43925E+02 -2.06641E+03  1.98031E+03 -4.95566E+03  2.70403E+03 -5.25388E+02  2.69486E+03  3.06652E+03
  5.75186E+02  1.12151E+03  1.22823E+03 -1.91037E+02  6.40366E+02  1.69030E+03  1.77700E+03  7.31224E+02
  2.46739E+02  7.10372E+02  4.03288E+03  1.22257E+03 -8.28748E+01  3.17268E+03 -1.12585E+02  3.85585E+03
 -2.81303E+03  2.16761E+03 -3.26473E+03  1.64139E+02 -4.10464E+03 -1.38437E+03 -1.37302E+03 -1.89892E+03
  9.67913E+01 -1.74198E+03  1.20264E+03 -1.02076E+03  1.70238E+03  1.64629E+03 -1.20503E+03  2.24975E+03
 -2.91624E+03  1.15253E+03 -2.22365E+03 -1.86670E+03 -2.90520E+03 -3.99917E+03 -3.87216E+02 -1.32948E+03
  1.91089E+03 -2.26961E+03  1.40571E+03  1.01387E+03  1.61846E+03 -3.85134E+02  1.20518E+03  1.93649E+03
 -1.45128E+03  9.02025E+02 -2.69245E+03  4.79539E+02  8.79185E+02 -2.52178E+03  2.68425E+03 -8.34602E+02
  2.69731E+03  5.24942E+02  4.20514E+03  7.23275E+02  2.07426E+03  3.87061E+03 -1.15425E+03  3.35289E+03
 -3.73684E+03  1.06208E+03 -3.33797E+03 -7.23563E+02 -8.81065E+02 -2.00601E+03  9.05388E+02 -7.06991E+02
  2.51710E+03  1.74283E+01  1.67149E+03  1.91475E+03  4.38049E+02  2.64079E+03  2.42808E+02  2.37660E+03
 -1.16796E+03  1.40927E+03  4.71330E+02  8.78451E+02 -1.97230E+03  5.61939E+02 -3.65686E+02  1.77450E+03
 -6.07103E+02  4.14773E+02 -4.00159E+03  6.87954E+02 -3.06020E+03 -2.83114E+00 -4.36815E+03 -2.26076E+03
 -1.54853E+03 -4.64571E+03  1.52061E+03 -6.20305E+03  3.83128E+03 -4.94166E+03  5.38970E+03 -2.59046E+03
  5.11248E+03 -6.83589E+01  2.63520E+03  3.10584E+03 -2.78677E+02  4.48434E+03 -2.44636E+03  3.09724E+03
 -6.19573E+02  2.51076E+02 -1.02743E+03 -3.64651E+02 -6.45729E+02  1.26025E+03 -5.35718E+02 -3.13250E+02
 -4.68519E+02 -5.95479E+02 -1.02037E+03  2.49702E+02  6.80711E+02 -1.89618E+03 -3.83882E+02 -2.81162E+03
  1.30349E+03 -8.01126E+02  2.07756E+03 -8.25464E+02  1.82436E+03  2.91000E+03  3.16330E+02  3.08397E+03
 -7.07032E+02  4.80843E+03 -4.13335E+03  2.70386E+03 -3.94405E+03 -5.70768E+02 -2.72700E+03 -3.11495E+03
 -1.28076E+03 -4.03642E+03  1.04734E+03 -3.33860E+03  1.42321E+03 -1.71375E+03  3.01919E+03  1.63577E+03
  6.02284E+02  1.39663E+03 -4.43449E+02  6.84381E+02 -1.76738E+03 -5.67239E+02  4.58640E+02 -5.57870E+02
  1.43222E+03 -8.32537E+02 -5.09668E+02  6.70971E+02 -4.69304E+02  2.69273E+02  1.29218E+03  1.68705E+03
 -9.87227E+02  7.14763E+02 -1.83993E+03 -8.78605E+02 -1.94652E+03 -2.17103E+03 -4.56950E+01 -2.39312E+03
  9.25222E+02 -2.71880E+03  1.53173E+03  1.02496E+02  2.68424E+03  4.05389E+02  8.93368E+02  1.59523E+03
 -8.38985E+02  2.16313E+03 -7.99194E+02  2.14029E+03 -1.37692E+03  2.70009E+02 -2.21189E+02 -5.62180E+02
 -3.20524E+02  6.32024E+02 -8.41261E+02  1.32353E+02 -1.27511E+03  7.57973E+02 -1.16287E+03 -6.49794E+02
 -2.80521E+03 -6.37806E+02  7.81658E+02 -1.88885E+03  1.33159E+03 -2.61357E+03  1.84089E+03 -1.61664E+03
  1.70519E+03  1.04879E+03 -2.78421E+02  1.51519E+03 -9.83205E+02  8.80746E+02 -1.37333E+03  2.42716E+03
