 $NMID ID='MM_0lb_SNR200_16hz_g50_60.RAW', FMTDAT='(8E13.5)'
 TRAMP=1., VOLUME=1. $END
  3.09738E+05  4.88353E+02  3.37536E+05  2.51123E+05  8.54183E+04  3.37830E+05 -1.33221E+05  2.51941E+05
 -1.90341E+05  8.27403E+04 -1.10757E+05 -3.32953E+04  1.37646E+03 -4.90616E+04  5.49156E+04 -3.86908E+02
  3.44003E+04  5.33719E+04 -1.76514E+04  7.45580E+04 -6.11808E+04  6.33979E+04 -8.37109E+04  3.10055E+04
 -8.07835E+04 -1.20467E+04 -5.61565E+04 -5.05954E+04 -1.59418E+04 -6.93502E+04  2.67160E+04 -4.47888E+04
  4.00784E+04  3.95640E+03  1.61220E+04  4.80866E+04 -3.30377E+04  4.71127E+04 -6.75831E+04 -1.70217E+02
 -5.19692E+04 -5.54088E+04 -8.19444E+03 -7.64050E+04  3.37384E+04 -5.41309E+04  4.67759E+04 -1.71869E+04
  4.25481E+04  1.06288E+04  3.18829E+04  2.50893E+04  1.60910E+04  2.97174E+04 -4.13056E+03  2.71069E+04
 -2.27634E+04  1.25736E+04 -1.87232E+04 -4.77600E+03  4.13538E+03 -7.44199E+03  2.19577E+04  1.15447E+04
  8.07300E+03  3.38921E+04 -3.17400E+04  3.51627E+04 -6.16762E+04  3.25894E+03 -5.70946E+04 -4.16107E+04
 -1.29824E+04 -6.23684E+04  3.81374E+04 -4.40982E+04  5.79423E+04 -1.38647E+03  3.29973E+04  3.10448E+04
 -5.38866E+03  3.51633E+04 -2.86168E+04  1.45822E+04 -2.98010E+04 -4.78390E+03 -1.54815E+04 -1.00367E+04
 -7.85717E+03 -1.22483E+04 -1.13952E+00 -1.77116E+04  7.22483E+03 -2.36092E+04  1.50620E+04 -1.27731E+04
  1.25978E+04  5.15261E+03 -7.61074E+03  1.23205E+04 -2.00625E+04 -3.20175E+03 -7.68533E+03 -3.34848E+04
  2.13414E+04 -4.21925E+04  4.67344E+04 -1.94686E+04  4.28409E+04  1.99036E+04  1.53656E+04  4.18303E+04
 -1.59625E+04  3.27052E+04 -2.54919E+04  5.93123E+02 -9.41412E+03 -2.72031E+04  2.16241E+04 -3.20806E+04
  3.94794E+04 -9.08890E+03  3.41544E+04  2.25341E+04  1.83007E+04  4.41836E+04 -6.35069E+03  4.91232E+04
 -3.02703E+04  3.16234E+04 -4.04209E+04  9.15148E+03 -4.08468E+04 -1.62058E+04 -2.26716E+04 -3.81144E+04
  7.38535E+03 -3.68423E+04  3.06860E+04 -1.36363E+04  2.80395E+04  1.05700E+04  3.59625E+03  1.85705E+04
 -1.33821E+04  8.33079E+03 -9.37100E+03 -6.73135E+03  6.73454E+03 -1.10606E+04  1.75157E+04  6.35068E+03
  1.27701E+04  2.11066E+04 -4.80316E+03  2.48884E+04 -2.12856E+04  1.02201E+04 -2.65395E+04 -4.51780E+03
 -1.93315E+04 -1.75935E+04 -8.51123E+03 -1.94693E+04  4.32365E+03 -1.82485E+04  1.40218E+04 -1.66682E+04
  2.33053E+04 -1.27592E+04  3.08862E+04  1.97113E+03  2.24604E+04  1.88912E+04  3.90797E+03  3.52120E+04
 -1.74461E+04  2.82755E+04 -2.62197E+04  9.39177E+03 -2.09805E+04 -9.68336E+03 -4.32307E+03 -1.43472E+04
  2.62706E+03 -3.87499E+03 -3.39470E+03  6.50136E+03 -1.42024E+04  5.23143E+03 -1.43883E+04 -7.08724E+03
 -9.97324E+03 -1.77135E+04  4.53726E+03 -2.13895E+04  1.37984E+04 -1.54053E+04  1.60668E+04 -1.39653E+03
  1.04050E+04  1.26478E+04 -1.47775E+03  1.74831E+04 -1.08048E+04  9.74583E+03 -1.74367E+04 -3.53902E+03
 -1.21928E+04 -1.64966E+04 -8.23928E+02 -2.13635E+04  9.98676E+03 -1.66404E+04  1.84815E+04 -9.93158E+03
  1.78980E+04 -2.27091E+02  1.20275E+04  4.02553E+03  6.05224E+03  1.78523E+03  8.72550E+03 -2.34905E+03
  1.60227E+04  2.89403E+03  1.80915E+04  1.43896E+04  1.10800E+04  2.79819E+04 -3.25966E+03  2.99360E+04
 -1.84430E+04  2.48473E+04 -2.86454E+04  1.27737E+04 -3.04052E+04 -1.56034E+03 -2.31251E+04 -1.77288E+04
 -1.11773E+04 -2.47516E+04  9.07085E+03 -2.14245E+04  1.94106E+04 -1.29164E+04  1.84887E+04  4.89009E+03
  6.67509E+03  1.25036E+04 -7.99440E+03  1.21793E+04 -1.54877E+04  2.61735E+03 -1.18163E+04 -9.95366E+03
 -1.39493E+03 -1.53325E+04  7.57203E+03 -1.04320E+04  8.06905E+03 -1.25034E+03  1.28167E+03  5.92432E+03
 -4.99172E+03  1.55676E+03 -4.99716E+03 -3.40277E+03 -9.41842E+02 -1.18970E+04  8.09089E+03 -1.27761E+04
  1.32680E+04 -7.06329E+03  1.42673E+04  1.91024E+03  1.30053E+04  1.05436E+04  6.39685E+03  1.80844E+04
 -2.02860E+03  1.90052E+04 -1.17850E+04  1.23781E+04 -1.31126E+04  3.45325E+03 -1.16906E+04 -2.16625E+03
 -4.28752E+03 -4.72979E+03 -7.86683E+02  1.36880E+03 -2.29774E+03  2.33392E+03 -2.92817E+03  3.05380E+03
 -9.78539E+03 -1.06539E+03 -9.56109E+03 -7.87490E+03 -3.59626E+03 -1.40374E+04  2.93560E+03 -9.54468E+03
  8.20759E+03 -5.28789E+03  6.36310E+03  1.67416E+03 -6.13044E+02  4.06463E+03 -4.47829E+03 -2.60933E+02
 -4.19289E+03 -5.88967E+03  3.09202E+02 -9.70875E+03  5.19882E+03 -9.61739E+03  1.15362E+04 -5.69949E+03
  1.50092E+04  7.76218E+02  9.32275E+03  7.75369E+03  1.67726E+03  1.14887E+04 -6.31861E+03  9.69842E+03
 -8.67533E+03  2.65401E+03 -4.38339E+03 -1.56400E+03  1.39635E+03 -2.56327E+03  4.96825E+03 -7.28316E+02
  2.34748E+03  3.28303E+03  1.04602E+03  7.22979E+03 -4.81394E+03  8.19621E+03 -8.73205E+03  2.52682E+03
 -6.75196E+03 -5.02639E+03  5.44997E+02 -8.84823E+03  5.38769E+03 -3.36372E+03  4.94514E+03  8.14276E+02
  1.71570E+02  4.95704E+03 -5.12725E+03  6.35238E+03 -7.53794E+03  4.24025E+03 -7.61939E+03 -1.68327E+03
 -3.32678E+03 -8.08036E+03  1.02330E+03 -8.92037E+03  7.69450E+03 -5.56418E+03  8.52505E+03  2.47374E+03
  4.32036E+03  6.83584E+03 -7.47851E+02  8.62946E+03 -6.86903E+03  4.60736E+03 -7.79957E+03 -3.48877E+02
 -6.66040E+03 -6.45087E+03 -2.69126E+02 -6.60346E+03  2.74622E+03 -5.24677E+03  3.12330E+03 -2.95998E+03
  3.60497E+03 -4.72085E+02 -6.43582E+02  3.00809E+01  7.48428E+02 -5.40283E+02  1.36481E+03 -3.93376E+03
  5.27165E+03 -2.95615E+03  7.25605E+03  6.95205E+02  6.32957E+03  5.50574E+03  7.42128E+03  1.02598E+04
 -2.18873E+03  1.21260E+04 -9.23732E+03  8.31011E+03 -1.39802E+04  1.26555E+03 -8.91466E+03 -3.37812E+03
 -5.32551E+03 -9.01224E+03 -1.96164E+02 -7.40194E+03  2.01366E+03 -3.06182E+03  1.69317E+03 -2.52984E+03
  1.72389E+03 -2.11035E+03  3.08741E+03 -2.37603E+03  3.26085E+03 -1.57061E+03  4.75534E+03 -7.77801E+02
  4.42363E+03  5.33038E+02  2.23140E+03  4.96520E+03 -2.29323E+03  4.18163E+03 -5.54594E+03  3.73956E+03
 -6.22689E+03 -7.14801E+02 -4.61976E+03 -4.86052E+03 -4.88344E+02 -6.83934E+03  4.34331E+03 -8.33110E+03
  6.27593E+03 -4.46856E+03  7.96203E+03  1.47557E+03  6.62673E+03  5.40688E+03  6.50679E+02  8.20178E+03
 -3.97809E+03  7.56175E+03 -5.33376E+03  2.18247E+03 -2.67453E+03 -1.24295E+03 -2.04263E+03 -6.73607E+02
 -2.11769E+02  1.33103E+03 -6.08287E+02  2.04196E+03 -3.60024E+03  2.14642E+03 -4.32637E+03  3.53361E+02
 -1.79469E+03 -4.62076E+03  1.91772E+02 -6.28416E+03  4.37811E+03 -5.99742E+03  4.39313E+03 -1.92966E+03
  6.37372E+03  4.90935E+03  2.73503E+03  5.22625E+03 -1.36394E+03  6.90661E+03 -4.02551E+03  3.80956E+03
 -4.08209E+03 -5.95760E+01 -5.51469E+03 -3.48925E+03 -3.81142E+02 -3.98430E+03  1.07645E+03 -2.71617E+03
  2.85200E+03 -3.28877E+03  2.73184E+03  3.62874E+02  5.76461E+01  2.61501E+03  3.53581E+02  1.29375E+03
  2.16009E+03  2.92000E+02  1.38888E+03  2.10479E+03  1.34647E+03  2.95156E+03  1.42806E+03  2.07468E+03
 -1.26290E+03  4.50245E+03 -2.70637E+03  4.70313E+03 -3.86007E+03  1.31227E+03 -5.76607E+03 -3.11333E+03
 -3.05282E+03 -4.66244E+03  2.26175E+02 -7.51115E+03  4.14431E+03 -3.36076E+03  4.81930E+03 -1.63987E+03
  4.18542E+03  1.38934E+03  8.89209E+02  5.32194E+03 -6.37245E+02  2.53999E+03 -2.10605E+03 -6.56831E+01
 -1.66796E+03 -3.21851E+03  1.00412E+03 -1.43458E+03  1.68508E+03 -1.32144E+03  1.87218E+03  2.82601E+02
  8.22689E+02  3.96151E+02  1.55893E+03 -3.92369E+01  9.61869E+02  1.52763E+03  4.43162E+02 -1.54584E+03
 -3.13004E+02 -1.69071E+02  1.34562E+03  1.03742E+03  2.88283E+02  3.83172E+03 -1.00705E+03  4.57079E+03
 -2.38120E+03  2.33008E+03 -3.52715E+03 -9.58864E+02 -2.12375E+03 -9.19007E+02 -1.32085E+03 -1.19874E+03
  7.94486E+02 -2.03118E+03  8.36319E+02 -1.71729E+03  1.41073E+03  2.29964E+03 -1.04988E+03  1.90085E+03
 -2.30634E+03  1.85558E+03 -2.78889E+03 -2.72424E+03 -1.53173E+03 -2.16807E+03 -6.36433E+02 -2.51308E+03
  1.51615E+03 -9.26021E+02  1.53172E+03 -4.13827E+02  1.71433E+03  5.33150E+02  8.06859E+02  5.99707E+02
 -3.07356E+02  1.32253E+03 -1.15340E+03 -4.17764E+02  6.84523E+02 -7.18418E+02  2.06816E+03 -1.73566E+03
  1.10897E+03  1.51219E+03  3.68223E+03  2.06447E+03  1.89632E+03  2.64948E+03 -9.07631E+02  2.78259E+03
 -2.30232E+03  1.44949E+03 -3.53183E+03  2.99187E+02 -1.04621E+03 -2.66090E+03 -1.09849E+02 -1.64577E+03
  2.69752E+03  2.58162E+02  1.36378E+03  8.18753E+02  4.05926E+02  1.85649E+03  5.37315E+01  1.85196E+03
 -2.02095E+03  1.58024E+03 -1.82443E+03  3.43354E+02 -1.86382E+02  1.23993E+03 -1.13377E+03  7.55429E+02
 -6.49018E+02  1.46789E+03 -1.31736E+03  9.20544E+02 -2.78243E+03  9.87729E+01 -3.91663E+03 -1.50883E+03
 -8.71953E+02 -3.24548E+03  9.03518E+02 -4.81004E+03  2.35765E+03 -5.08404E+03  5.42175E+03 -9.54844E+02
  3.51334E+03  8.52710E+02  1.95018E+03  3.18336E+03 -4.82738E+02  2.31405E+03  1.15289E+02  1.86773E+03
  1.66353E+02  2.12241E+03 -1.06626E+03  6.58118E+02 -9.85490E+02 -2.14391E+02 -7.21821E+02  6.20058E+02
 -7.94704E+02  4.21484E+02 -1.04276E+03 -1.92798E+02  4.31492E+02 -1.17752E+03  8.52107E+02 -1.43537E+03
  1.89390E+03 -1.40973E+03  5.04210E+02 -6.50892E+02  1.95805E+03  6.10254E+02 -4.30762E+02  1.92356E+03
 -6.53410E+02  3.87843E+03 -3.68149E+03  1.01041E+03 -2.63656E+03 -2.09082E+02 -1.61860E+03 -2.78910E+03
 -1.02339E+03 -2.22893E+03  1.75033E+03 -1.39380E+03  1.98446E+03 -8.67019E+02  1.28107E+03  1.70578E+02
  1.69574E+03  4.31055E+02  2.76538E+02  4.35750E+02 -6.00391E+02 -2.28003E+02  1.15813E+01  3.25801E+02
 -3.84088E+02 -1.98792E+02  7.72570E+02  1.04292E+03  9.96788E+02  7.91433E+02  1.63925E+03  2.71167E+02
 -3.05139E+02  1.94010E+03 -1.44317E+03 -4.58218E+02 -3.58785E+03 -1.06609E+02 -8.66544E+02 -1.17355E+03
  1.20226E+03 -2.10772E+03  8.86044E+02 -5.80555E+02  1.26959E+03 -4.75381E+02  2.21979E+03  2.12420E+03
  1.73382E+00  2.93430E+03  1.23871E+02  6.08533E+02  9.07146E+01  1.21881E+03 -1.95008E+02 -1.03788E+02
  5.48377E+02  3.21431E+01 -1.02647E+03 -1.48901E+02 -6.89208E+02  4.25145E+01 -3.35581E+02 -5.40256E+02
 -2.40724E+03 -8.07181E+01 -1.04662E+03 -1.19530E+03 -2.47721E+02 -2.79474E+03  1.16203E+03 -5.75165E+01
  2.41919E+03  1.39088E+03 -6.84371E+02  1.55577E+03 -7.07348E+02  1.53797E+03  1.99952E+02  1.41305E+03
