 $NMID ID='MM_0lb_SNR200_17hz_g45_47.RAW', FMTDAT='(8E13.5)'
 TRAMP=1., VOLUME=1. $END
  3.08229E+05  2.22675E+02  3.37253E+05  2.49924E+05  8.38610E+04  3.37764E+05 -1.31393E+05  2.50691E+05
 -1.89789E+05  8.27785E+04 -1.11502E+05 -3.24593E+04  1.07054E+03 -5.13752E+04  5.52167E+04  5.64966E+02
  3.45669E+04  5.23306E+04 -1.62280E+04  7.44801E+04 -6.07624E+04  6.29237E+04 -8.33153E+04  3.19243E+04
 -7.94576E+04 -1.05809E+04 -5.60182E+04 -5.03305E+04 -1.48645E+04 -6.91534E+04  2.71135E+04 -4.57415E+04
  4.01765E+04  3.47950E+03  1.58630E+04  4.72951E+04 -3.45461E+04  4.64186E+04 -6.64065E+04 -1.11960E+03
 -5.14222E+04 -5.61325E+04 -7.32715E+03 -7.59742E+04  3.38016E+04 -5.29820E+04  4.68913E+04 -1.63240E+04
  4.20821E+04  1.09240E+04  3.11475E+04  2.49290E+04  1.55077E+04  2.94685E+04 -4.69063E+03  2.62247E+04
 -2.17072E+04  1.21068E+04 -1.84892E+04 -4.32199E+03  5.66081E+03 -6.78385E+03  2.11187E+04  1.09375E+04
  7.48000E+03  3.41064E+04 -3.13275E+04  3.55628E+04 -6.12180E+04  1.44386E+03 -5.56748E+04 -4.13702E+04
 -1.23679E+04 -6.07438E+04  3.86175E+04 -4.35100E+04  5.61388E+04 -2.90782E+03  3.19816E+04  3.12467E+04
 -6.50573E+03  3.35704E+04 -2.92218E+04  1.41634E+04 -2.92582E+04 -5.46269E+03 -1.56367E+04 -1.01224E+04
 -8.00694E+03 -1.24270E+04 -1.26710E+03 -1.74196E+04  8.07709E+03 -2.27151E+04  1.44108E+04 -1.34757E+04
  1.15368E+04  4.82988E+03 -7.72360E+03  1.31977E+04 -1.94988E+04 -3.13825E+03 -7.22799E+03 -3.04642E+04
  2.06115E+04 -4.11351E+04  4.55821E+04 -1.89981E+04  4.26612E+04  1.95588E+04  1.53516E+04  4.30722E+04
 -1.63931E+04  3.12804E+04 -2.39523E+04  1.09546E+03 -8.75940E+03 -2.69522E+04  2.07607E+04 -3.14038E+04
  3.80864E+04 -8.33291E+03  3.23567E+04  2.32781E+04  1.58299E+04  4.30226E+04 -7.25367E+03  4.56766E+04
 -2.90246E+04  3.07867E+04 -3.82332E+04  8.99545E+03 -3.96376E+04 -1.46697E+04 -2.21958E+04 -3.50976E+04
  7.82158E+03 -3.53202E+04  2.96036E+04 -1.18498E+04  2.66863E+04  9.66421E+03  4.65463E+03  1.73202E+04
 -1.39375E+04  8.20712E+03 -8.71546E+03 -7.73987E+03  6.66755E+03 -1.18022E+04  1.77907E+04  7.32563E+03
  1.30554E+04  2.17441E+04 -5.32129E+03  2.38847E+04 -2.19970E+04  9.87924E+03 -2.62132E+04 -5.82756E+03
 -1.71682E+04 -1.54754E+04 -6.27858E+03 -1.77000E+04  4.08753E+03 -1.58914E+04  1.26894E+04 -1.59991E+04
  2.12907E+04 -1.24691E+04  2.89242E+04  1.79258E+03  2.25343E+04  1.84830E+04  4.81404E+03  3.40688E+04
 -1.59640E+04  2.80656E+04 -2.61160E+04  9.25897E+03 -2.07964E+04 -1.03892E+04 -3.63517E+03 -1.29398E+04
  1.55352E+03 -3.85992E+03 -3.14532E+03  5.62966E+03 -1.29993E+04  5.74794E+03 -1.42848E+04 -3.77990E+03
 -1.00208E+04 -1.69117E+04  4.37706E+03 -2.10908E+04  1.32740E+04 -1.47029E+04  1.53818E+04 -2.50443E+03
  9.27390E+03  1.13721E+04 -1.40291E+03  1.58047E+04 -1.08628E+04  8.69788E+03 -1.59239E+04 -2.81140E+03
 -1.24005E+04 -1.50581E+04 -1.70744E+03 -1.97825E+04  9.43662E+03 -1.62779E+04  1.59277E+04 -8.34309E+03
  1.57564E+04  1.84233E+03  1.05832E+04  4.37641E+03  4.62826E+03  3.37838E+02  8.04518E+03 -2.58415E+03
  1.45523E+04  3.21626E+03  1.43839E+04  1.28374E+04  9.58915E+03  2.45870E+04 -2.69742E+03  2.79576E+04
 -1.74194E+04  2.25340E+04 -2.57370E+04  1.12621E+04 -2.71000E+04 -2.29104E+03 -2.30508E+04 -1.60579E+04
 -1.14165E+04 -2.27120E+04  6.59865E+03 -2.07890E+04  1.75846E+04 -1.16482E+04  1.63291E+04  3.20841E+03
  6.74655E+03  1.13204E+04 -7.44015E+03  1.09949E+04 -1.43600E+04  3.17407E+03 -1.06967E+04 -7.51220E+03
  8.20195E+01 -1.42351E+04  5.44411E+03 -1.03951E+04  8.03972E+03 -1.33466E+03  1.66478E+03  5.75716E+03
 -4.99876E+03  2.30724E+03 -3.98717E+03 -4.87666E+03  6.71407E+02 -1.18422E+04  7.87681E+03 -1.12345E+04
  1.41460E+04 -5.22237E+03  1.33087E+04  3.58399E+03  1.05669E+04  1.07854E+04  6.23406E+03  1.49071E+04
 -1.62893E+03  1.68231E+04 -1.01472E+04  1.10234E+04 -1.19673E+04  2.79141E+03 -9.62093E+03 -2.49623E+03
 -4.38918E+03 -4.08347E+03 -1.69671E+03  2.09593E+03 -1.50415E+03  2.38982E+03 -4.26407E+03  3.66703E+03
 -8.88661E+03  1.83777E+02 -9.34476E+03 -7.94952E+03 -3.77865E+03 -1.22764E+04  3.75073E+03 -9.56743E+03
  6.78189E+03 -3.09330E+03  5.81913E+03  2.19609E+03 -4.55595E+02  3.15857E+03 -3.14615E+03  4.45544E+01
 -3.81172E+03 -5.21986E+03 -4.81751E+02 -8.12004E+03  5.13269E+03 -8.17511E+03  1.10376E+04 -3.24267E+03
  1.22838E+04 -2.45630E+02  9.20945E+03  6.99240E+03  2.40861E+03  9.33007E+03 -5.69809E+03  8.85392E+03
 -7.83826E+03  2.82761E+03 -4.44710E+03 -1.06908E+03  1.42156E+03 -2.45994E+03  5.75207E+03 -8.37471E+02
  4.48597E+03  3.88827E+03 -2.78695E+02  6.41051E+03 -4.64673E+03  6.30216E+03 -8.38366E+03  2.32900E+03
 -5.62864E+03 -3.71126E+03 -5.15328E+02 -7.50977E+03  3.77260E+03 -2.60963E+03  2.90131E+03  1.48035E+03
  4.45816E+02  4.28212E+03 -4.50490E+03  5.73441E+03 -5.58589E+03  2.73871E+03 -5.37318E+03 -1.42134E+03
 -3.47014E+03 -8.26448E+03  6.36560E+02 -6.82883E+03  6.56188E+03 -6.12294E+03  6.94166E+03  5.59349E+02
  5.31503E+03  4.69755E+03  3.41692E+00  7.95116E+03 -5.89843E+03  5.13187E+03 -6.02759E+03 -2.04456E+02
 -6.78351E+03 -5.22096E+03 -2.17489E+03 -6.47376E+03  3.76163E+03 -6.43726E+03  3.27690E+03 -3.73395E+03
  2.16380E+03  5.51910E+02 -1.08407E+03  5.95130E+02  1.71857E+02 -1.21369E+03  2.31138E+02 -2.82858E+03
  5.09459E+03 -1.76698E+03  5.27541E+03  3.19948E+02  6.07597E+03  3.26395E+03  4.45258E+03  8.28210E+03
 -9.09822E+02  9.57079E+03 -9.15412E+03  8.10159E+03 -1.14213E+04  2.03534E+03 -9.55785E+03 -3.14052E+03
 -4.82765E+03 -7.38746E+03 -6.90973E+02 -6.22310E+03  1.94029E+03 -2.57716E+03  2.56441E+03 -2.43330E+03
  1.89525E+03 -1.82387E+03  2.37244E+03 -1.83869E+03  4.03342E+03 -1.35112E+03  3.94037E+03  2.30593E+03
  5.86835E+03  8.80097E+02  5.83963E+02  3.58934E+03 -1.32810E+03  4.16203E+03 -5.02320E+03  3.56590E+03
 -5.05998E+03 -6.40836E+02 -2.42362E+03 -3.09603E+03  8.35344E+02 -5.03804E+03  4.71480E+03 -6.40110E+03
  5.45325E+03 -4.80794E+03  7.73871E+03  7.55003E+02  5.09784E+03  4.76887E+03  2.94179E+02  7.09532E+03
 -3.26532E+03  6.84032E+03 -3.99131E+03  2.37162E+03 -2.48146E+03 -1.08212E+03 -1.00894E+03 -1.02074E+03
 -1.33150E+03  7.85485E+02 -1.19447E+03  1.11775E+03 -2.21795E+03  1.68967E+03 -4.67242E+03  6.94921E+01
 -1.72978E+03 -5.19138E+03  7.04550E+02 -4.73892E+03  3.80099E+03 -5.73195E+03  4.81320E+03 -1.84887E+03
  4.80128E+03  3.53560E+03  1.93256E+03  4.49237E+03 -1.83040E+03  5.27951E+03 -3.34400E+03  2.91073E+03
 -5.42801E+03 -1.64163E+02 -3.56711E+03 -3.23363E+03 -8.03933E+02 -4.22248E+03  1.50022E+03 -3.15805E+03
  3.22484E+03 -1.39579E+03  2.16789E+03  1.42521E+03  2.00247E+03  2.62030E+03  5.37370E+02  8.45607E+02
  1.75220E+03 -1.30151E+02  1.87909E+03  1.54149E+03  1.38608E+03  2.89903E+03  1.01131E+03  2.24945E+03
 -2.05271E+03  3.50942E+03 -2.76496E+03  4.36825E+03 -4.67622E+03  1.29172E+03 -6.65687E+03 -1.36260E+02
 -1.94972E+03 -5.61064E+03 -3.83657E+02 -5.64859E+03  2.87294E+03 -3.01056E+03  3.74826E+03  2.27207E+02
  3.58338E+03  1.72579E+03  1.72334E+03  3.69235E+03 -8.07745E+02  1.28864E+03 -3.49124E+02 -7.91717E+02
 -7.58118E+02 -1.94778E+03  1.52960E+03 -5.64456E+02  6.22374E+02 -5.29196E+02  7.55429E+02 -1.10724E+03
  6.44571E+02 -2.43473E+02  9.53287E+02  1.67857E+02 -2.11670E+02 -1.00078E+02  1.78600E+03 -2.16719E+02
  2.33651E+02  4.38722E+02  1.96489E+03  2.10986E+02 -7.45197E+02  3.14082E+03  1.21699E+02  2.86943E+03
 -1.67924E+03  2.75669E+03 -3.56575E+03  9.10138E+02 -2.39516E+03 -1.57387E+03 -1.12370E+03 -1.77353E+03
  1.00349E+03 -1.82341E+03  1.55500E+03  3.34000E+02  3.94600E+02  2.29511E+03 -6.27187E+02  2.07864E+03
 -2.00476E+03  7.18023E+02 -1.86644E+03 -1.91538E+03  1.74837E+02 -3.95708E+03  1.10377E+03 -2.23995E+03
  4.08269E+02 -5.39424E+02  2.07673E+03 -3.38453E+02  1.63752E+03 -4.43601E+01  5.11709E+02  8.85741E+02
 -1.01671E+02  1.62123E+03 -2.19266E+03 -4.82540E+02 -2.46513E+02 -2.32848E+03  1.82513E+03 -2.41853E+02
  1.84194E+03 -6.61523E+02  2.21584E+03  1.24668E+03  1.82380E+03  2.38867E+03 -7.21693E+02  3.52668E+03
 -1.66276E+03  3.82033E+01 -1.08501E+03 -8.61578E+02 -6.24880E+02 -1.21471E+03 -8.79760E+01 -1.56679E+03
  2.06740E+03 -7.92064E+02  1.78863E+03  7.99354E+02 -1.58658E+02  1.44925E+03  4.28055E+02  7.78435E+02
 -1.50131E+02  8.86737E+02 -5.04573E+02  1.14830E+03 -1.18459E-01 -3.38684E+02 -1.03767E+03  1.41822E+03
 -6.83696E+02  3.97216E+02 -2.38295E+03  8.88424E+02 -2.22272E+03  1.36371E+03 -3.23819E+03 -1.22736E+03
 -1.91264E+03 -3.51590E+03  1.19891E+03 -2.73041E+03  1.83481E+03 -2.86864E+03  4.35427E+03 -1.18612E+03
  3.03550E+03  4.37550E+02  1.82869E+03  2.31742E+03 -8.65776E+02  1.78227E+03 -1.73595E+03  2.07513E+03
 -1.12095E+03  1.55836E+03  2.90824E+02 -6.52300E+02 -1.44516E+03 -1.98961E+02 -1.49594E+03 -1.03393E+03
 -6.04823E+02 -9.18595E+02 -7.72633E+02 -1.97152E-01  2.84530E+02 -1.10325E+03  5.37393E+02 -9.11063E+02
  1.87648E+03 -4.23318E+02  5.92519E+02 -2.38105E+02  1.76891E+03  1.33959E+03 -8.79469E+02  1.81169E+03
 -1.37971E+03  2.77964E+03 -1.42955E+03  1.55435E+03 -2.62383E+03 -4.04313E+02 -1.26595E+03 -5.96644E+02
 -2.93708E+02 -2.42890E+03  6.77132E+02 -2.39233E+03 -9.31121E+01 -5.30851E+02  1.40413E+03  2.82193E+02
  5.41930E+02  4.13529E+02  3.86714E+02  1.07048E+03 -1.12619E+02  6.21118E+02  5.69503E+02 -4.81647E+02
 -1.43430E+01  1.10125E+02  1.29020E+03  1.01216E+03 -1.23994E+03  6.49206E+02  1.18102E+03  1.80229E+03
 -1.86716E+02  1.78694E+03 -4.06562E+02 -3.08324E+02 -1.17522E+03 -1.14841E+02  3.71428E+02 -1.71522E+03
  8.85500E+02 -1.11807E+03  3.00199E+02  4.20426E+02  1.89639E+03 -1.33676E+03  5.36591E+02  1.15307E+03
  2.93445E+02  7.46319E+02  1.00215E+03  2.30449E+03 -1.59869E+03  5.69524E+02 -6.73912E+02  6.16475E+02
 -3.98433E+02  4.23742E+02 -4.37951E+02 -2.61840E+02  4.67971E+02 -8.65565E+01 -8.61323E+02 -8.33420E+02
 -1.36252E+03  1.54778E+02 -9.20045E+02 -1.93731E+03 -4.35843E+02 -2.66227E+03  1.34378E+03 -1.98817E+02
 -3.55492E+01  6.97483E+02 -1.46016E+02  7.42834E+02 -8.79089E+02  2.12275E+03 -5.94209E+02  1.35713E+03
