 $NMID ID='MM_0lb_SNR200_14hz_g40_29.RAW', FMTDAT='(8E13.5)'
 TRAMP=1., VOLUME=1. $END
  3.10296E+05  2.16271E+02  3.36593E+05  2.50962E+05  8.47111E+04  3.37610E+05 -1.31997E+05  2.50570E+05
 -1.89321E+05  8.24914E+04 -1.12326E+05 -3.33199E+04 -3.02955E+02 -5.02918E+04  5.33372E+04  3.36561E+02
  3.46637E+04  5.27404E+04 -1.62012E+04  7.53261E+04 -6.12065E+04  6.34919E+04 -8.37952E+04  3.19024E+04
 -8.13960E+04 -1.17034E+04 -5.51663E+04 -5.16032E+04 -1.39453E+04 -6.99175E+04  2.69364E+04 -4.61351E+04
  3.92727E+04  4.19181E+03  1.63762E+04  4.76296E+04 -3.41350E+04  4.77262E+04 -6.70934E+04 -8.57682E+02
 -5.19528E+04 -5.62639E+04 -7.15264E+03 -7.67348E+04  3.30578E+04 -5.50335E+04  4.84122E+04 -1.68527E+04
  4.40668E+04  1.17605E+04  3.14934E+04  2.49940E+04  1.60816E+04  2.92693E+04 -4.59986E+03  2.80253E+04
 -2.18619E+04  1.28975E+04 -1.85041E+04 -4.14991E+03  6.17430E+03 -6.47230E+03  2.25719E+04  1.10344E+04
  6.81894E+03  3.53190E+04 -3.13292E+04  3.58816E+04 -6.18315E+04  3.17211E+03 -5.62842E+04 -4.07290E+04
 -1.25370E+04 -6.25105E+04  3.88811E+04 -4.49608E+04  5.75398E+04 -9.63976E+02  3.30993E+04  3.12046E+04
 -5.69219E+03  3.60077E+04 -3.01125E+04  1.53891E+04 -2.97538E+04 -5.39534E+03 -1.59789E+04 -1.10039E+04
 -7.74859E+03 -1.18791E+04 -1.59669E+03 -1.78997E+04  6.74873E+03 -2.31086E+04  1.53619E+04 -1.35229E+04
  1.16441E+04  4.98125E+03 -7.65319E+03  1.36143E+04 -2.16444E+04 -3.64046E+03 -8.85672E+03 -3.20029E+04
  2.16630E+04 -4.36261E+04  4.66389E+04 -2.08116E+04  4.37545E+04  1.93736E+04  1.47099E+04  4.41663E+04
 -1.59722E+04  3.33926E+04 -2.52963E+04 -4.18311E+02 -1.11142E+04 -2.70953E+04  2.05754E+04 -3.27499E+04
  4.13132E+04 -8.73202E+03  3.36792E+04  2.28455E+04  1.72636E+04  4.42013E+04 -7.25056E+03  4.93025E+04
 -3.15825E+04  3.29170E+04 -4.08572E+04  1.01692E+04 -4.19962E+04 -1.67159E+04 -2.19773E+04 -3.70096E+04
  7.39641E+03 -3.63229E+04  3.02124E+04 -1.41374E+04  2.83878E+04  1.03516E+04  3.62219E+03  1.88918E+04
 -1.43538E+04  7.66831E+03 -1.02688E+04 -7.38835E+03  5.70885E+03 -9.46515E+03  1.75417E+04  6.49728E+03
  1.40628E+04  2.21638E+04 -5.72188E+03  2.50961E+04 -2.20908E+04  1.21280E+04 -2.80063E+04 -3.58115E+03
 -1.95690E+04 -1.61023E+04 -8.33080E+03 -1.90630E+04  4.98199E+03 -1.88193E+04  1.47072E+04 -1.68521E+04
  2.57961E+04 -1.21735E+04  3.26850E+04  2.26567E+03  2.30747E+04  1.88233E+04  4.50296E+03  3.69530E+04
 -1.77947E+04  3.02920E+04 -2.68751E+04  9.70118E+03 -2.06322E+04 -1.00269E+04 -5.50519E+03 -1.22423E+04
  8.55993E+02 -3.84939E+03 -3.80555E+03  6.17850E+03 -1.60804E+04  4.58610E+03 -1.52580E+04 -6.06022E+03
 -9.79604E+03 -1.89765E+04  4.41303E+03 -2.23047E+04  1.49726E+04 -1.62798E+04  1.65035E+04 -1.82519E+03
  1.12122E+04  1.22963E+04  7.34055E+01  1.85905E+04 -1.29647E+04  1.09678E+04 -1.79667E+04 -3.41011E+03
 -1.43073E+04 -1.66729E+04 -2.90787E+02 -2.19446E+04  1.06530E+04 -1.78677E+04  1.71266E+04 -8.85753E+03
  1.64200E+04 -1.48357E+03  1.28404E+04  4.10595E+03  7.22633E+03 -3.26717E+02  9.46473E+03 -6.08973E+02
  1.65473E+04  3.08469E+03  1.81019E+04  1.35318E+04  1.21460E+04  2.86056E+04 -3.60143E+03  3.25837E+04
 -2.02127E+04  2.63274E+04 -3.04580E+04  1.40907E+04 -3.18986E+04 -2.50928E+03 -2.61034E+04 -1.89717E+04
 -1.06488E+04 -2.61739E+04  8.93332E+03 -2.39260E+04  2.01659E+04 -1.24465E+04  1.80469E+04  4.35363E+03
  7.37198E+03  1.36677E+04 -8.67022E+03  1.19953E+04 -1.73171E+04  1.33294E+03 -1.24490E+04 -9.95479E+03
 -1.15290E+03 -1.29928E+04  7.98507E+03 -1.17930E+04  1.07274E+04 -1.93487E+03  2.28924E+03  6.43068E+03
 -5.38681E+03  2.07140E+03 -4.09610E+03 -6.28998E+03  8.95260E+02 -1.27593E+04  9.05981E+03 -1.45252E+04
  1.51264E+04 -7.12821E+03  1.59475E+04  3.10887E+03  1.47896E+04  1.33710E+04  6.70323E+03  1.86123E+04
 -2.24018E+03  2.12859E+04 -1.37567E+04  1.22821E+04 -1.51166E+04  4.97543E+03 -1.06410E+04 -2.78463E+03
 -5.34028E+03 -4.87233E+03 -1.63106E+03  9.29811E+02 -1.65461E+03  1.67008E+03 -6.02885E+03  4.01055E+03
 -1.07208E+04 -1.29202E+03 -1.02624E+04 -8.31116E+03 -5.02210E+03 -1.50128E+04  4.47206E+03 -1.21131E+04
  9.76720E+03 -4.44920E+03  5.82914E+03  3.92877E+03  4.42400E+02  4.79138E+03 -5.30416E+03 -1.16547E+03
 -4.92903E+03 -6.17816E+03  9.80467E+02 -1.08952E+04  5.87932E+03 -1.04836E+04  1.35956E+04 -4.38839E+03
  1.46596E+04  2.28595E+03  1.14918E+04  8.25126E+03  2.75073E+03  1.23769E+04 -6.39605E+03  1.04688E+04
 -8.52226E+03  2.53591E+03 -4.96814E+03 -1.64373E+03  1.83886E+03 -1.50378E+03  4.71728E+03 -1.30989E+03
  5.16890E+03  4.50553E+03  1.48709E+03  7.10826E+03 -6.61358E+03  7.92412E+03 -9.60363E+03  2.30810E+03
 -8.04712E+03 -4.91614E+03 -4.84582E+02 -9.04751E+03  4.26096E+03 -4.43765E+03  4.86304E+03  1.49134E+03
  1.01274E+03  4.94503E+03 -5.27886E+03  5.60537E+03 -7.82349E+03  2.37844E+03 -7.51158E+03 -2.23726E+03
 -4.49781E+03 -9.96098E+03  2.30989E+03 -1.01237E+04  8.83677E+03 -6.17565E+03  9.68842E+03  2.13990E+03
  5.63162E+03  7.72024E+03 -2.85653E+02  8.93082E+03 -8.19739E+03  4.85117E+03 -7.28867E+03 -6.90667E+02
 -7.43720E+03 -6.32922E+03 -2.68126E+03 -7.65274E+03  3.06681E+03 -5.58252E+03  5.32893E+03 -3.92287E+03
  4.10555E+03  1.15853E+03 -7.43568E+02  2.18438E+03  9.37287E+01 -1.57434E+03  1.95368E+03 -4.42582E+03
  7.24749E+03 -1.40675E+03  9.00894E+03 -8.15601E+02  9.70246E+03  5.78164E+03  7.11278E+03  1.03044E+04
 -2.47118E+03  1.34895E+04 -1.12339E+04  1.05312E+04 -1.40098E+04  2.51817E+03 -1.18574E+04 -3.32004E+03
 -5.43618E+03 -1.02919E+04 -1.28447E+02 -8.13254E+03  2.35122E+03 -4.99780E+03  2.91991E+03 -3.00853E+03
  2.80629E+03 -2.50992E+03  2.94532E+03 -2.61187E+03  3.71149E+03 -1.81024E+03  4.79763E+03 -4.98341E+02
  6.63947E+03  2.01864E+03  3.79043E+03  4.39170E+03 -1.84509E+03  5.02914E+03 -6.51885E+03  4.70505E+03
 -8.00894E+03 -1.07539E+03 -4.27911E+03 -5.70405E+03  3.47887E+02 -7.41417E+03  4.21478E+03 -9.00713E+03
  1.08519E+04 -4.92102E+03  1.14495E+04  4.44236E+02  7.73478E+03  8.14938E+03  1.73992E+03  9.24254E+03
 -2.95676E+03  8.71073E+03 -5.48057E+03  3.73628E+03 -3.77522E+03 -5.64847E+02 -6.28639E+02 -1.93920E+03
 -9.71575E+02 -7.59924E+02 -1.80610E+03  2.76452E+03 -3.68262E+03  1.40078E+03 -7.24633E+03 -9.35010E+02
 -3.17364E+03 -5.71828E+03  1.77868E+03 -7.58472E+03  5.11020E+03 -6.31634E+03  6.90023E+03 -1.61755E+03
  7.87049E+03  3.51866E+03  3.17327E+03  7.54532E+03 -8.24211E+02  7.56746E+03 -5.56749E+03  4.57795E+03
 -7.08298E+03  6.23797E+02 -6.19599E+03 -4.22572E+03 -9.74668E+02 -5.69395E+03  3.42596E+03 -4.11763E+03
  4.45001E+03 -3.56598E+03  3.42144E+03  1.36460E+02  1.29980E+03  1.42741E+03  2.52203E+03  8.34211E+02
  2.33197E+03  4.57309E+02  1.59645E+03  2.81411E+03  1.58012E+03  2.49124E+03  2.54319E+03  3.51990E+03
 -1.50956E+03  6.05521E+03 -5.00056E+03  6.17523E+03 -7.09889E+03  2.19305E+03 -7.63561E+03 -3.01594E+03
 -3.10169E+03 -5.95400E+03  2.52521E+03 -8.99777E+03  3.26442E+03 -4.53801E+03  5.95110E+03 -6.86716E+02
  5.91671E+03  3.86663E+03 -2.60844E+02  3.41579E+03 -1.09530E+03  1.47265E+03 -3.19528E+03 -6.66752E+02
 -1.39509E+03 -2.74759E+03  1.70438E+03 -3.66806E+03  3.08716E+03 -5.20403E+02  2.50998E+03 -3.37432E+02
  2.23715E+03  1.06903E+03  1.33647E+03  1.46129E+03 -3.55561E+02  8.23247E+02  2.13742E+03  4.67897E+02
  5.84460E+02  2.53644E+02  4.27345E+03  2.12250E+03  1.93286E+03  4.14230E+03 -9.39641E+02  5.11455E+03
 -4.21162E+03  3.72744E+03 -3.88917E+03  3.69066E+02 -4.14310E+03 -1.29847E+03 -3.48616E+02 -1.99406E+03
  7.91090E+02 -2.10151E+03  2.06873E+03 -2.08376E+03  1.44395E+03  7.47989E+02 -2.06376E+03  2.49482E+03
 -3.95934E+03  7.96367E+02 -2.33602E+03 -1.60143E+03 -2.05389E+03 -2.96308E+03  1.31365E+03 -3.27374E+03
  1.42150E+03 -1.06690E+03  1.64688E+03  7.86773E+01  2.27041E+03  1.07816E+03  1.75856E+03  2.46963E+03
 -1.01603E+03  1.16093E+03 -1.49552E+03 -1.70019E+03  7.74635E+01 -3.25317E+03  2.97159E+03 -1.60579E+03
  4.24229E+03  8.77939E+02  6.43558E+03  1.94871E+03  1.46522E+03  3.27056E+03 -1.53524E+03  5.91096E+03
 -2.64097E+03  1.02929E+03 -2.45201E+03 -1.00082E+03 -1.77208E+03 -2.65536E+03  7.65687E+02 -3.33251E+02
  3.06258E+03 -3.86484E+02  2.36826E+03  1.67311E+03  2.15263E+03  1.06526E+03 -1.04650E+02  1.53220E+03
 -6.59096E+02  2.97486E+03 -1.30677E+03 -3.35673E+02 -3.18259E+02 -2.68345E+02 -8.79007E+02  1.58560E+03
 -2.12099E+03  2.34081E+03 -3.39075E+03  7.23453E+02 -4.55896E+03  1.27971E+02 -4.80931E+03 -3.25832E+03
 -1.89653E+03 -4.19635E+03  1.21793E+03 -6.12225E+03  3.03239E+03 -4.84831E+03  6.42914E+03 -1.55085E+03
  3.67680E+03  9.73436E+02  2.99966E+03  5.00021E+03 -7.04436E+01  4.12669E+03 -8.09900E+02  2.58597E+03
 -1.48073E+03  1.22505E+03 -2.53998E+03 -4.42835E+02 -6.85953E+02  1.15986E+02 -9.53865E+02  2.63922E+02
 -1.07356E+03  1.43487E+02 -1.98211E+03  6.32919E+02 -1.32407E+03 -1.56240E+03 -1.28040E+02 -1.34658E+03
  2.32488E+03 -1.19484E+03  2.83800E+03 -3.28110E+02  3.06004E+03  2.88689E+03 -1.03367E+03  4.07190E+03
 -2.75029E+03  4.96347E+03 -5.82050E+03  2.93155E+03 -4.81159E+03 -5.37373E+02 -2.99045E+03 -2.51322E+03
 -2.26751E+03 -3.87650E+03  1.65902E+03 -4.24462E+03  2.40306E+03 -6.22535E+02  2.29754E+03  4.06510E+02
  1.22151E+03  1.49246E+03 -1.16933E+03  5.49030E+02 -3.16128E+03 -6.37753E+02  7.80597E+00  4.89135E+02
  1.92484E+03 -1.03944E+03  1.99176E+03  2.26249E+03  8.71979E+02  1.35164E+03  4.18797E+02  1.75266E+03
 -1.27103E+03  2.08065E+03 -2.65213E+03  1.83769E+03 -2.74554E+03 -1.76907E+03  2.86274E+02 -2.49439E+03
  7.51166E+02 -2.77388E+03  2.99473E+03 -1.20444E+03  3.03163E+03  3.82340E+02  2.34460E+03  2.94587E+03
  9.97579E+02  3.11058E+03 -7.99737E+02  1.93606E+03 -4.44689E+02  2.68412E+03 -2.01947E+03  7.85240E+02
 -1.71428E+03  7.89109E+02 -2.87940E+02  9.13242E+02 -1.68071E+03  2.21521E+02 -2.66484E+03 -1.07740E+03
 -2.01554E+03 -1.54346E+02 -9.07226E+02 -1.64418E+03  1.56065E+03 -2.87926E+03  1.94401E+03 -1.00495E+03
  1.32860E+03  9.58262E+02 -1.69815E+02  1.17600E+03 -8.47901E+02  1.83126E+03 -2.19572E+03  1.74174E+03
