 $NMID ID='MM_0lb_SNR200_8hz_g55_81.RAW', FMTDAT='(8E13.5)'
 TRAMP=1., VOLUME=1. $END
  3.08442E+05 -6.09298E+02  3.37398E+05  2.50556E+05  8.40805E+04  3.40585E+05 -1.33342E+05  2.52943E+05
 -1.90105E+05  8.21661E+04 -1.13296E+05 -3.10120E+04  1.23001E+02 -5.19253E+04  5.38171E+04 -6.63757E+02
  3.48582E+04  5.37294E+04 -1.72546E+04  7.72963E+04 -6.02395E+04  6.47013E+04 -8.66737E+04  3.24217E+04
 -8.30973E+04 -1.28549E+04 -5.86584E+04 -5.28499E+04 -1.39685E+04 -7.07991E+04  2.68825E+04 -4.63589E+04
  4.24005E+04  3.04419E+03  1.79988E+04  4.75547E+04 -3.48273E+04  4.74621E+04 -6.92209E+04  1.74140E+03
 -5.50123E+04 -5.73758E+04 -7.92811E+03 -7.97748E+04  3.50248E+04 -5.73023E+04  5.12383E+04 -1.87836E+04
  4.70906E+04  1.21066E+04  3.19158E+04  2.69655E+04  1.63842E+04  3.02613E+04 -5.63867E+03  2.95247E+04
 -2.20198E+04  1.08773E+04 -1.69993E+04 -6.62906E+03  8.29575E+03 -7.50716E+03  2.35990E+04  1.37922E+04
  6.25350E+03  3.95663E+04 -3.27058E+04  3.86960E+04 -6.65950E+04  1.33623E+03 -5.86525E+04 -4.46837E+04
 -1.36494E+04 -6.80441E+04  4.34166E+04 -4.78618E+04  6.13885E+04 -1.40159E+03  3.75833E+04  3.49433E+04
 -5.41629E+03  4.01462E+04 -3.11834E+04  2.21005E+04 -3.61504E+04 -3.89071E+03 -2.04363E+04 -1.22655E+04
 -8.60231E+03 -1.57649E+04  7.70867E+02 -1.89119E+04  9.48036E+03 -2.35689E+04  1.57573E+04 -1.29969E+04
  1.03398E+04  6.46719E+03 -1.10069E+04  1.18986E+04 -2.55782E+04 -9.06940E+03 -9.64523E+03 -3.90909E+04
  2.47839E+04 -4.78361E+04  5.28336E+04 -2.07473E+04  4.97413E+04  2.34152E+04  1.75476E+04  4.76464E+04
 -1.78218E+04  3.74654E+04 -2.60807E+04  2.82075E+03 -1.02488E+04 -2.93603E+04  2.14200E+04 -3.91736E+04
  4.41177E+04 -1.16024E+04  4.10154E+04  2.30147E+04  2.07694E+04  5.13676E+04 -9.44743E+03  5.67533E+04
 -3.52189E+04  4.08508E+04 -5.00221E+04  1.09513E+04 -4.89513E+04 -1.83559E+04 -2.70589E+04 -4.25633E+04
  7.40588E+03 -4.35028E+04  3.47117E+04 -1.88176E+04  3.33412E+04  1.02707E+04  5.14228E+03  2.07360E+04
 -1.34579E+04  7.91827E+03 -1.08979E+04 -8.88731E+03  5.26848E+03 -1.06017E+04  1.94973E+04  6.52665E+03
  1.42214E+04  2.27560E+04 -3.91123E+03  2.77393E+04 -2.31664E+04  1.49872E+04 -3.22932E+04 -2.79322E+03
 -2.81330E+04 -1.91677E+04 -1.15818E+04 -2.65331E+04  4.93911E+03 -2.76241E+04  2.10137E+04 -2.28481E+04
  3.33430E+04 -1.60345E+04  4.07169E+04  5.30596E+03  2.68033E+04  2.69449E+04  5.22100E+03  4.30583E+04
 -2.09476E+04  3.47710E+04 -3.11525E+04  1.20592E+04 -2.28219E+04 -1.03401E+04 -4.15575E+03 -1.36921E+04
 -3.14422E+01 -5.39432E+01 -7.86826E+03  8.90052E+03 -2.07739E+04  4.16025E+03 -2.04465E+04 -1.11533E+04
 -1.27358E+04 -2.36458E+04  6.94160E+03 -2.88020E+04  2.01173E+04 -1.98072E+04  2.42755E+04 -3.48790E+03
  1.52343E+04  1.79258E+04 -1.72506E+03  2.53903E+04 -1.76726E+04  1.51730E+04 -2.61953E+04 -4.43654E+03
 -1.82518E+04 -2.09469E+04 -1.59667E+03 -3.07611E+04  1.31651E+04 -2.59519E+04  2.54386E+04 -1.28846E+04
  2.23884E+04 -9.70134E+02  1.76966E+04  6.88505E+03  1.00030E+04  1.47759E+03  1.11855E+04 -2.84663E+03
  2.39701E+04  1.95578E+03  2.80989E+04  2.02762E+04  1.92383E+04  4.09760E+04 -3.06913E+03  4.76367E+04
 -2.74325E+04  4.16952E+04 -4.66577E+04  2.10518E+04 -4.80853E+04 -3.81830E+03 -3.72147E+04 -2.77260E+04
 -1.54185E+04 -4.11987E+04  1.50316E+04 -3.37620E+04  2.97594E+04 -1.58384E+04  2.62368E+04  8.61097E+03
  8.53067E+03  2.00073E+04 -1.34587E+04  1.58050E+04 -2.01454E+04  5.01537E+03 -1.58342E+04 -1.25745E+04
 -7.54793E+01 -2.17206E+04  1.14767E+04 -1.49284E+04  1.60338E+04 -1.01352E+03  5.80378E+03  8.45632E+03
 -8.18311E+03  5.63974E+03 -9.93829E+03 -7.89702E+03 -2.17675E+03 -1.89725E+04  1.26792E+04 -1.86073E+04
  2.40789E+04 -1.46761E+04  2.97955E+04  3.30060E+03  2.55488E+04  2.09336E+04  1.22981E+04  3.04871E+04
 -5.57297E+03  3.34496E+04 -2.33671E+04  2.11919E+04 -2.48950E+04  3.59404E+03 -1.66931E+04 -5.89022E+03
 -6.05478E+03 -8.54792E+03 -6.68507E+02 -1.53879E+03 -2.01867E+03  3.93930E+03 -7.51187E+03  6.42054E+03
 -1.51399E+04 -1.32756E+03 -1.60245E+04 -1.43689E+04 -6.94943E+03 -2.06803E+04  5.52007E+03 -1.63895E+04
  1.51063E+04 -6.84860E+03  9.63612E+03  5.54990E+03  5.82718E+02  7.60689E+03 -9.48707E+03  2.75395E+02
 -9.24669E+03 -1.15065E+04 -2.60183E+03 -1.56334E+04  9.47203E+03 -1.73138E+04  2.16184E+04 -1.02257E+04
  2.48818E+04  1.84014E+03  1.95983E+04  1.65879E+04  4.53741E+03  2.07285E+04 -1.10439E+04  1.53524E+04
 -1.35521E+04  5.24902E+03 -5.38460E+03 -3.43369E+03  1.73790E+03 -4.73397E+03  9.97559E+03 -5.56165E+02
  6.47788E+03  7.96123E+03  9.84620E+02  1.41582E+04 -1.01043E+04  1.36244E+04 -1.75239E+04  3.91724E+03
 -1.20560E+04 -9.58323E+03  2.25883E+01 -1.49545E+04  8.82212E+03 -8.03017E+03  1.26852E+04  4.31122E+03
  1.60666E+03  1.01969E+04 -1.04614E+04  1.19210E+04 -1.59061E+04  5.00063E+03 -1.62092E+04 -6.48882E+03
 -8.62016E+03 -1.80428E+04  4.65192E+03 -2.10564E+04  1.57925E+04 -1.25647E+04  1.95373E+04  3.24753E+03
  9.80810E+03  1.40664E+04 -1.85128E+03  1.72521E+04 -1.25037E+04  9.65862E+03 -1.48445E+04 -2.08181E+03
 -1.10501E+04 -1.13379E+04 -2.70634E+03 -1.31835E+04  7.87972E+03 -1.08719E+04  8.51280E+03 -5.98733E+03
  6.22051E+03  1.88935E+03 -1.17288E+03  1.05534E+03  1.60820E+02 -5.15952E+03  4.08342E+03 -1.05237E+04
  1.28528E+04 -7.42345E+03  1.79560E+04  3.38470E+03  1.83613E+04  1.25486E+04  1.09194E+04  2.37433E+04
 -6.47964E+03  2.93345E+04 -2.27403E+04  2.05066E+04 -2.96387E+04  4.20528E+03 -2.56238E+04 -1.07403E+04
 -9.24149E+03 -1.91133E+04 -1.32410E+03 -1.79140E+04  6.96381E+03 -8.79595E+03  7.11153E+03 -5.62307E+03
  3.42310E+03 -3.05877E+03  5.22616E+03 -4.48738E+03  7.21811E+03 -4.18080E+03  7.77254E+03 -1.35134E+03
  1.27966E+04  2.80264E+03  7.57068E+03  1.26226E+04 -2.02981E+03  1.34612E+04 -1.25124E+04  1.02492E+04
 -1.60784E+04  4.24358E+02 -9.24036E+03 -1.25190E+04 -1.07600E+03 -1.72812E+04  8.80464E+03 -1.96390E+04
  1.84522E+04 -1.16276E+04  2.25181E+04  3.85345E+03  1.46160E+04  1.68348E+04  1.21772E+03  1.96504E+04
 -8.06748E+03  1.70560E+04 -1.17691E+04  6.39550E+03 -8.05632E+03 -1.50509E+03 -3.38747E+03 -3.92884E+03
 -1.79967E+03 -1.13750E+03 -3.31640E+03  4.85634E+03 -8.26806E+03  2.40561E+02 -1.16002E+04 -8.18928E+02
 -7.82798E+03 -1.29558E+04  1.62694E+03 -1.69151E+04  1.04459E+04 -1.65415E+04  1.61347E+04 -5.34847E+03
  1.71727E+04  5.77088E+03  8.02308E+03  1.47726E+04 -1.42199E+03  1.77887E+04 -1.27642E+04  1.16130E+04
 -1.69731E+04 -3.79976E+02 -1.22661E+04 -1.04833E+04  2.85613E+02 -1.41549E+04  9.06882E+03 -1.10896E+04
  8.97579E+03 -3.26745E+03  8.35592E+03  2.19161E+03  1.77728E+03  4.60087E+03 -9.89484E+01  3.07202E+03
  3.62757E+03  3.53029E+02  3.25327E+03 -5.75065E+02  3.13871E+03  4.82267E+03  4.06561E+03  8.35937E+03
 -3.72275E+03  1.51335E+04 -1.15644E+04  1.29221E+04 -1.86413E+04  5.26574E+03 -1.83297E+04 -8.73829E+03
 -8.96450E+03 -1.94121E+04  1.43648E+03 -2.02725E+04  1.16656E+04 -1.16332E+04  1.48734E+04 -3.06796E+03
  1.27790E+04  7.62498E+03  3.79992E+03  1.07732E+04 -5.14237E+03  4.79796E+03 -7.74097E+03 -1.74565E+03
 -1.56848E+03 -6.61719E+03  6.43879E+03 -8.98489E+03  6.57179E+03 -3.35439E+03  7.31970E+03  1.41433E+03
  3.76002E+03  2.95186E+03  2.76244E+03  2.15054E+03 -1.66716E+03  1.60946E+03  4.42960E+02 -2.04290E+03
  2.81298E+03 -1.01715E+03  8.15187E+03  2.47568E+03  3.66202E+03  8.85599E+03 -9.11492E+02  1.22214E+04
 -9.15101E+03  9.44087E+03 -1.32348E+04  4.55470E+03 -1.10355E+04 -3.77510E+03 -3.82340E+03 -7.97371E+03
  1.74187E+03 -6.05503E+03  5.36418E+03 -1.66612E+03  4.57095E+03  3.13217E+03 -2.51078E+03  6.05792E+03
 -8.04731E+03  4.96823E+03 -8.17585E+03 -4.80073E+03 -6.46077E+03 -9.84513E+03  3.11033E+03 -1.01627E+04
  6.20234E+03 -5.84419E+03  8.79495E+03 -1.85164E+03  4.57949E+03  7.32820E+02  3.22800E+02  6.51824E+03
 -2.34845E+03  9.86089E+02 -5.15371E+03 -2.92113E+03  2.41070E+03 -7.79591E+03  1.06746E+04 -6.02634E+03
  1.13999E+04  6.74063E+02  9.25559E+03  7.58093E+03  3.32013E+03  1.29894E+04 -4.00823E+03  1.14900E+04
 -1.13736E+04  5.78360E+03 -1.04836E+04 -1.26322E+03 -5.07370E+03 -7.77394E+03 -4.19431E+02 -8.86895E+03
  7.42813E+03 -3.41069E+03  7.77556E+03  4.51260E+03  3.69600E+03  7.91544E+03 -9.49268E+02  6.35234E+03
 -2.21886E+03  3.80395E+03 -3.57917E+03  8.15961E+02 -1.74921E+02  6.79489E+02 -1.22280E+03  2.31588E+03
 -3.19455E+03  4.23734E+03 -8.11276E+03  5.39498E+03 -1.21348E+04  1.04260E+02 -1.30120E+04 -7.73690E+03
 -6.38781E+03 -1.74799E+04  5.12355E+03 -1.93555E+04  1.36765E+04 -1.32223E+04  1.80327E+04 -6.73343E+03
  1.56647E+04  4.08794E+03  9.01568E+03  1.16081E+04  7.98317E+02  1.33244E+04 -3.86187E+03  8.75451E+03
 -6.20450E+03  5.19131E+03 -5.09093E+03 -7.77396E+02 -1.53186E+03 -1.71972E+03 -5.74953E+02 -4.17486E+02
 -1.92530E+03  1.58026E+03 -2.68347E+03  7.68491E+02 -2.98420E+02 -3.05032E+03  1.86987E+03 -4.08248E+03
  5.30633E+03 -5.50216E+03  5.87400E+03  9.83007E+02  7.34264E+03  7.93152E+03  7.33863E+02  1.48634E+04
 -4.86192E+03  1.50468E+04 -1.43575E+04  8.67936E+03 -1.49970E+04  1.05248E+02 -9.73076E+03 -8.96325E+03
 -5.42508E+03 -1.25424E+04  3.63766E+03 -1.12464E+04  9.57190E+03 -6.88238E+03  8.57424E+03 -1.50533E+03
  5.73673E+03  4.44930E+03 -1.67882E+03  4.79962E+03 -1.01139E+03 -1.30044E+03  5.78652E+01 -1.27227E+03
  3.67970E+03 -3.63574E+03  4.59396E+03  1.18014E+03  3.54797E+03  5.98151E+03  1.20430E+03  8.42011E+03
 -4.84424E+03  6.40345E+03 -1.03276E+04  6.50577E+02 -8.07791E+03 -5.65701E+03 -1.80322E+03 -1.11631E+04
  7.15973E+03 -1.20718E+04  1.07043E+04 -3.99759E+03  9.29242E+03  1.55369E+03  5.30546E+03  9.11904E+03
  8.68835E+02  8.18756E+03 -2.98073E+03  7.41533E+03 -3.38966E+03  3.40945E+03 -4.17697E+03  5.67544E+02
 -3.37837E+03  6.25675E+02 -2.56542E+03  2.15795E+03 -3.28698E+03  2.30382E+03 -7.88471E+03 -2.27352E+03
 -7.44746E+03 -5.19830E+03 -1.62134E+03 -8.61211E+03  2.51148E+03 -1.12638E+04  8.98003E+03 -3.28343E+03
  9.21278E+03  1.65166E+03  1.73932E+03  5.83078E+03 -1.56560E+02  9.69036E+03 -7.28613E+03  4.36859E+03
