 $NMID ID='MM_0lb_SNR200_19hz_g50_10.RAW', FMTDAT='(8E13.5)'
 TRAMP=1., VOLUME=1. $END
  3.09493E+05  2.09639E+02  3.37740E+05  2.51119E+05  8.35067E+04  3.37948E+05 -1.32679E+05  2.51510E+05
 -1.89813E+05  8.30746E+04 -1.10554E+05 -3.36360E+04  1.78288E+03 -5.15746E+04  5.48125E+04  3.15550E+02
  3.60428E+04  5.34284E+04 -1.62570E+04  7.54045E+04 -5.99867E+04  6.16841E+04 -8.35345E+04  3.16403E+04
 -7.88855E+04 -1.06532E+04 -5.58876E+04 -5.05198E+04 -1.47888E+04 -6.80605E+04  2.69916E+04 -4.32197E+04
  4.03848E+04  4.44516E+03  1.53852E+04  4.67829E+04 -3.31880E+04  4.60165E+04 -6.52478E+04 -4.52222E+02
 -5.18740E+04 -5.49936E+04 -6.10500E+03 -7.40020E+04  3.31685E+04 -5.25739E+04  4.66821E+04 -1.64442E+04
  4.18930E+04  1.11439E+04  2.95491E+04  2.49794E+04  1.54427E+04  2.82010E+04 -5.61187E+03  2.76030E+04
 -2.09847E+04  1.28098E+04 -1.92054E+04 -3.56855E+03  3.17667E+03 -7.40315E+03  2.25216E+04  1.12226E+04
  6.80446E+03  3.24131E+04 -3.01752E+04  3.44806E+04 -6.10235E+04  2.22534E+03 -5.53369E+04 -4.17305E+04
 -1.25659E+04 -6.02993E+04  3.74137E+04 -4.30952E+04  5.59771E+04 -1.61641E+03  3.13676E+04  2.89395E+04
 -6.36875E+03  3.41708E+04 -2.91116E+04  1.35767E+04 -2.77401E+04 -6.02605E+03 -1.38543E+04 -1.04204E+04
 -7.54459E+03 -1.11764E+04 -1.94348E+03 -1.65445E+04  6.44724E+03 -2.16913E+04  1.55623E+04 -1.23639E+04
  1.27881E+04  5.50449E+03 -5.56570E+03  1.30213E+04 -1.96795E+04 -3.00984E+03 -8.05045E+03 -3.10789E+04
  2.16649E+04 -4.04242E+04  4.49954E+04 -1.90932E+04  4.21784E+04  1.78812E+04  1.41983E+04  4.10023E+04
 -1.57673E+04  3.10415E+04 -2.42440E+04 -7.15846E+02 -7.93456E+03 -2.67723E+04  2.02896E+04 -3.04231E+04
  3.84983E+04 -5.79548E+03  3.06776E+04  2.25784E+04  1.56337E+04  4.30240E+04 -8.00415E+03  4.59406E+04
 -2.96062E+04  2.86899E+04 -3.80919E+04  8.80372E+03 -3.75450E+04 -1.53453E+04 -2.10242E+04 -3.42772E+04
  6.49897E+03 -3.44261E+04  2.92397E+04 -1.33825E+04  2.66883E+04  1.09666E+04  2.84088E+03  1.75131E+04
 -1.25224E+04  7.21369E+03 -8.13618E+03 -7.05364E+03  6.82069E+03 -1.11391E+04  1.79840E+04  7.73305E+03
  1.21163E+04  2.20010E+04 -5.81584E+03  2.23941E+04 -2.15715E+04  8.92615E+03 -2.49602E+04 -7.29674E+03
 -1.66751E+04 -1.71422E+04 -5.18381E+03 -1.68857E+04  3.95216E+03 -1.35695E+04  1.26296E+04 -1.38838E+04
  2.08640E+04 -1.07358E+04  2.75632E+04  2.29528E+03  2.16344E+04  1.68003E+04  4.99894E+03  3.17242E+04
 -1.66673E+04  2.77555E+04 -2.53895E+04  9.27063E+03 -1.98870E+04 -1.01802E+04 -4.31556E+03 -1.34072E+04
  4.22700E+03 -3.01169E+03 -2.61131E+03  4.93604E+03 -1.32316E+04  5.14034E+03 -1.38081E+04 -4.91478E+03
 -8.48678E+03 -1.42093E+04  4.18672E+03 -1.96355E+04  1.23634E+04 -1.47985E+04  1.61778E+04 -1.07563E+03
  8.55675E+03  1.13476E+04 -1.20699E+03  1.49679E+04 -1.06228E+04  7.53683E+03 -1.49883E+04 -4.04470E+03
 -1.13288E+04 -1.45654E+04 -1.97488E+03 -1.96343E+04  8.54083E+03 -1.49241E+04  1.48353E+04 -6.15741E+03
  1.38716E+04  7.10065E+02  1.11537E+04  4.00184E+03  4.83806E+03 -6.26156E+02  7.60279E+03 -4.36421E+02
  1.41241E+04  2.50879E+03  1.33412E+04  1.15355E+04  8.49565E+03  2.35738E+04 -3.62875E+03  2.62336E+04
 -1.51130E+04  2.02064E+04 -2.55351E+04  9.76195E+03 -2.56868E+04 -2.03282E+03 -2.09649E+04 -1.43792E+04
 -9.88801E+03 -2.02255E+04  5.86938E+03 -1.84917E+04  1.60559E+04 -1.08047E+04  1.54369E+04  3.08996E+03
  5.66833E+03  1.05960E+04 -6.89810E+03  9.66671E+03 -1.32557E+04  3.21536E+03 -1.10840E+04 -8.27934E+03
  7.22296E+00 -1.25991E+04  5.91417E+03 -8.94636E+03  7.17557E+03 -2.33658E+03  2.49259E+03  4.57586E+03
 -5.27336E+03  1.73115E+03 -3.59725E+03 -4.21263E+03  7.99887E+02 -1.02147E+04  7.91496E+03 -9.93723E+03
  1.16359E+04 -4.87984E+03  1.10890E+04  2.57947E+03  9.38934E+03  1.01036E+04  4.55134E+03  1.38027E+04
 -1.77815E+03  1.60356E+04 -8.91090E+03  9.93492E+03 -1.14408E+04  2.96678E+03 -8.15922E+03 -2.32496E+03
 -5.64846E+03 -3.28114E+03 -4.27187E+02  1.81775E+03 -9.87992E+02  1.16166E+03 -3.52637E+03  3.29138E+03
 -7.90109E+03 -8.74775E+02 -8.78249E+03 -6.38159E+03 -2.91331E+03 -1.19108E+04  4.32875E+03 -9.11658E+03
  7.00193E+03 -3.75748E+03  5.99066E+03  2.59567E+03  1.35195E+03  3.81759E+03 -2.71738E+03  1.48907E+02
 -1.51811E+03 -4.64054E+03 -5.77515E+02 -6.70871E+03  3.53574E+03 -7.93099E+03  1.12829E+04 -2.64879E+03
  1.16232E+04  4.55421E+02  8.22739E+03  6.16218E+03  2.06599E+03  9.32780E+03 -5.18926E+03  7.26690E+03
 -6.48834E+03  2.30482E+03 -2.92701E+03 -9.01921E+02  1.40135E+03 -2.08335E+03  4.74662E+03 -2.41124E+03
  3.81724E+03  3.40834E+03  9.91230E+02  6.92605E+03 -4.21268E+03  6.87067E+03 -7.04591E+03  2.73492E+03
 -4.58431E+03 -3.99371E+03  9.73785E+02 -6.29876E+03  3.56675E+03 -3.92460E+03  3.15101E+03  1.01029E+03
  1.40083E+02  3.49468E+03 -5.62518E+03  4.47792E+03 -4.94172E+03  2.26898E+03 -3.94211E+03 -3.44797E+02
 -2.59140E+03 -5.45862E+03  1.57482E+03 -6.58706E+03  5.66804E+03 -4.77918E+03  6.65576E+03  2.25115E+03
  4.98553E+03  6.37073E+03 -8.73345E+01  6.67785E+03 -4.38068E+03  4.08273E+03 -5.15018E+03 -6.71888E+01
 -5.35268E+03 -5.21001E+03 -1.08103E+03 -4.81195E+03  2.48486E+03 -5.27368E+03  3.20010E+03 -2.51391E+03
  2.58492E+03 -6.37565E+02 -8.20839E+02  5.72230E+02  1.05991E+03  7.80418E+02 -7.37449E+02 -1.01045E+03
  4.68632E+03 -1.09642E+03  3.95669E+03  1.02120E+03  4.38113E+03  3.10960E+03  5.64048E+03  7.89101E+03
 -6.18864E+02  8.28505E+03 -7.69425E+03  4.98046E+03 -9.95493E+03  1.13063E+03 -9.03439E+03 -2.52042E+03
 -2.79105E+03 -6.54616E+03  1.93130E+02 -4.83442E+03  1.48668E+03 -1.77406E+03  1.59970E+03 -1.88355E+03
  6.00616E+02 -1.32571E+03  1.71494E+03 -1.76259E+03  3.67356E+03 -1.21766E+03  3.72031E+03  1.68532E+03
  4.35013E+03  1.31502E+03  1.00957E+03  3.88807E+03 -1.65780E+03  3.51430E+03 -4.47554E+03  3.27052E+03
 -4.68789E+03 -1.28974E+03 -6.84617E+02 -3.57964E+03 -9.68477E+01 -6.34557E+03  3.45907E+03 -5.44155E+03
  4.58250E+03 -2.91429E+03  6.33250E+03 -5.76600E+02  4.65586E+03  3.57961E+03  5.34419E+02  5.49307E+03
 -1.56451E+03  5.45832E+03 -2.95413E+03  7.34230E+02 -1.55271E+03 -1.20951E+03 -9.90822E+02 -2.72944E+02
 -1.92808E+02  7.36557E+02 -1.52183E+03  1.86495E+03 -2.76728E+03  1.45194E+03 -2.69653E+03 -2.66892E+02
 -5.00661E+02 -4.44479E+03  1.86349E+03 -4.81152E+03  2.84848E+03 -3.42290E+03  3.23814E+03 -2.17173E+03
  3.96160E+03  1.40343E+03  6.47672E+02  3.58275E+03  1.94461E+02  3.85652E+03 -2.36457E+03  2.58327E+03
 -3.82015E+03  6.90399E+02 -3.44796E+03 -1.57194E+03 -2.13921E+02 -2.97985E+03  1.85637E+03 -2.70753E+03
  2.52675E+03 -1.90777E+03  1.83255E+03  2.22095E+02  1.57386E+02  2.10970E+03  6.71708E+02 -1.39204E+02
  6.73898E+02  8.35937E+02  2.24612E+03  1.62138E+03  1.18533E+03  3.44456E+03  1.42037E+03  1.05114E+03
 -1.05843E+03  3.21825E+03 -3.06876E+03  3.05866E+03 -2.82292E+03  9.55451E+02 -4.13218E+03  4.15987E+01
 -1.32673E+03 -3.29473E+03  7.69782E+02 -4.99266E+03  1.52324E+03 -1.87627E+03  2.45465E+03 -1.24825E+03
  2.92279E+03  7.36693E+02  6.37145E+02  2.00131E+03 -2.19548E+02  7.40729E+02  1.28673E+02 -2.10311E+02
 -1.11633E+03 -1.23351E+03  2.46623E+03 -1.50663E+03  6.07123E+02 -6.78931E+02  1.49523E+03  6.48058E+02
  1.18326E+03  7.50175E+02  3.44283E+01 -3.31968E+01  6.01963E+01  6.66748E+02  1.96502E+03 -3.96048E+02
  1.99423E+02  3.93605E+02  1.63567E+03  1.77507E+03  5.30877E+02  1.51649E+03  2.71925E+02  2.06021E+03
 -1.53631E+03  1.22134E+03 -2.33058E+03 -3.73473E+01  2.91304E+01 -2.72743E+02  4.74946E+02 -1.02309E+03
  8.55500E+01 -1.13900E+03  6.74088E+02  6.12912E+01 -4.18663E+01  4.48782E+02  3.11470E+02  1.15679E+03
 -1.72946E+03  2.42636E+02 -2.23647E+03 -3.17226E+02 -6.58643E+02 -3.08028E+03  8.05821E+01 -1.62319E+03
 -1.32243E+02 -4.20524E+02  8.15883E+02  8.66187E+02  9.45672E+02 -5.84600E+02  7.46943E+02 -9.85192E+02
 -8.26146E+01  1.18027E+03 -7.53257E+02 -1.22666E+01  4.30366E+02  2.06911E+02  1.41564E+03  2.90413E+02
  1.05650E+02 -3.07022E+01  2.38029E+03  1.06677E+03  1.69475E+03  1.52673E+03 -6.24940E+02  1.20096E+03
 -1.36554E+03 -2.03629E+02 -1.56504E+03 -4.10420E+02  3.54365E+01 -8.99796E+02 -3.22434E+02 -9.25327E+02
  8.49010E+02 -4.87902E+02  4.57926E+02  2.88301E+02  1.34431E+02  7.58159E+02  1.01422E+03  1.11000E+03
 -6.85894E+02  3.02950E+02 -9.43516E+02 -5.47981E+02 -8.85108E+02 -1.20004E+02  9.68781E+01  7.09086E+02
 -1.48536E+03  1.32361E+02 -2.24895E+03  4.69731E+02 -1.97472E+03  1.12978E+02 -1.88028E+03 -6.40797E+02
 -1.18687E+03 -8.76678E+02  5.16551E+02 -2.71945E+03  6.50262E+02 -1.56854E+03  1.97147E+03 -8.35072E+02
  1.90309E+03 -2.64341E+02  1.23053E+03  1.67310E+03  8.26152E+02  1.75293E+02 -3.83168E+02  1.24165E+03
 -9.46092E+02  2.38711E+02 -5.86745E+02 -7.26768E+02 -9.39560E+02  8.70222E+02 -1.31455E+03 -3.17198E+02
 -1.01202E+03 -3.29577E+01 -1.40783E+02 -1.13977E+01  9.88559E+02 -4.25995E+02 -1.52324E+03 -1.20344E+03
  2.35142E+03 -6.98033E+02 -8.23030E+02 -2.34847E+02  1.67756E+03  9.95438E+01 -1.29541E+03  1.24511E+03
 -1.36604E+03  2.10369E+03 -7.81840E+02  1.12787E+03 -1.15147E+03  1.26799E+02 -5.00014E+02 -1.47810E+03
 -1.17426E+03 -4.81551E+02 -1.31632E+03 -8.17715E+02  1.20313E+03 -1.10655E+03  1.50795E+02 -3.32165E+02
  6.06594E+02  9.28744E+01  5.92545E+02 -5.76887E+02 -4.54698E+02 -1.04298E+03  4.21430E+02  4.47238E+01
  3.50613E+02  5.99869E+02  1.28424E+02 -4.56032E+01 -3.43903E+02  9.12683E+02  1.70318E+03 -9.88373E+01
 -1.07156E+03 -9.50691E+02 -6.63049E+02  9.03943E+02 -3.48521E+02 -6.49683E+02  9.53513E+02 -1.00199E+03
  5.54745E+02 -1.49873E+03  1.10501E+03 -7.72801E+01  8.11683E+02 -6.46591E+02  7.66944E+02  4.07715E+02
  4.63046E+01  7.68923E+02  9.41536E+00  9.37443E+02  5.76302E+02  3.72543E+02 -4.30051E+02 -5.14792E+02
  6.35320E+02  3.56442E+01 -1.33474E+03  2.52026E+02 -2.15692E+02 -1.43905E+03 -3.43226E+02 -1.11742E+02
 -3.89736E+02 -4.50857E+02  2.81285E+02 -7.15765E+02  1.78541E+02 -1.21009E+03  1.67174E+03  2.18993E+02
  3.44586E+02  3.98069E+02 -1.04923E+03  3.52515E+02 -1.38827E+03  3.61461E+02  2.78573E+02  1.91673E+03
