 $NMID ID='MM_0lb_SNR200_18hz_g40_56.RAW', FMTDAT='(8E13.5)'
 TRAMP=1., VOLUME=1. $END
  3.09509E+05 -7.82386E+02  3.36997E+05  2.50578E+05  8.47419E+04  3.36901E+05 -1.33002E+05  2.51066E+05
 -1.89380E+05  8.29097E+04 -1.11704E+05 -3.23687E+04  1.58921E+03 -5.09363E+04  5.46530E+04  6.49320E+02
  3.45449E+04  5.26763E+04 -1.71252E+04  7.38588E+04 -5.95083E+04  6.36781E+04 -8.29059E+04  3.21857E+04
 -7.90445E+04 -1.15880E+04 -5.54144E+04 -4.98351E+04 -1.53628E+04 -6.72123E+04  2.73294E+04 -4.41713E+04
  3.93350E+04  3.92934E+03  1.53973E+04  4.71339E+04 -3.34035E+04  4.56688E+04 -6.57317E+04  7.60912E+01
 -5.13889E+04 -5.60012E+04 -6.38837E+03 -7.42807E+04  3.35010E+04 -5.43136E+04  4.65925E+04 -1.53815E+04
  4.13287E+04  1.08438E+04  3.02469E+04  2.33487E+04  1.62920E+04  2.75576E+04 -5.68835E+03  2.63535E+04
 -2.14170E+04  1.23067E+04 -1.91652E+04 -4.43782E+03  4.13628E+03 -6.64072E+03  2.08418E+04  1.15082E+04
  7.69592E+03  3.32173E+04 -3.03899E+04  3.43055E+04 -6.14485E+04  2.42956E+03 -5.44170E+04 -4.14991E+04
 -1.27340E+04 -6.22652E+04  3.80447E+04 -4.30320E+04  5.49864E+04 -1.96976E+03  3.18582E+04  2.96851E+04
 -6.39257E+03  3.26202E+04 -2.79473E+04  1.32448E+04 -2.77982E+04 -5.21158E+03 -1.42732E+04 -1.01148E+04
 -7.10071E+03 -1.12555E+04 -8.41180E+02 -1.67159E+04  6.16216E+03 -2.24319E+04  1.52526E+04 -1.43169E+04
  1.10553E+04  4.40818E+03 -6.14403E+03  1.28803E+04 -1.91620E+04 -2.24701E+03 -8.76330E+03 -2.92060E+04
  2.05475E+04 -4.00792E+04  4.44822E+04 -1.92571E+04  4.08249E+04  1.91761E+04  1.33096E+04  4.16720E+04
 -1.52225E+04  3.17239E+04 -2.35352E+04  9.84018E+02 -7.59575E+03 -2.60565E+04  1.97778E+04 -3.06128E+04
  3.77213E+04 -7.40837E+03  3.12991E+04  2.30569E+04  1.47418E+04  4.17754E+04 -7.69140E+03  4.39401E+04
 -2.78818E+04  2.91887E+04 -3.70823E+04  9.00706E+03 -3.81941E+04 -1.46888E+04 -2.05368E+04 -3.40075E+04
  6.70748E+03 -3.35793E+04  2.87760E+04 -1.22593E+04  2.63314E+04  1.07023E+04  2.71688E+03  1.84198E+04
 -1.22515E+04  7.12212E+03 -9.41219E+03 -7.81339E+03  6.06581E+03 -1.03486E+04  1.79765E+04  6.63984E+03
  1.22431E+04  2.26486E+04 -7.53311E+03  2.27702E+04 -2.07491E+04  9.95246E+03 -2.39669E+04 -5.36039E+03
 -1.73926E+04 -1.65502E+04 -5.36866E+03 -1.50657E+04  3.50890E+03 -1.49567E+04  1.19641E+04 -1.50296E+04
  2.17423E+04 -1.13390E+04  2.71135E+04  1.26220E+03  2.01096E+04  1.50296E+04  4.58705E+03  3.20329E+04
 -1.62990E+04  2.73238E+04 -2.49630E+04  8.14430E+03 -1.97394E+04 -9.11153E+03 -4.76413E+03 -1.46607E+04
  2.33732E+03 -5.10589E+03 -3.39753E+03  4.81905E+03 -1.26489E+04  5.09598E+03 -1.28751E+04 -4.73158E+03
 -8.47878E+03 -1.53415E+04  4.82573E+03 -1.93626E+04  1.22968E+04 -1.40323E+04  1.48754E+04 -1.79524E+03
  8.88808E+03  1.06716E+04 -1.25722E+03  1.50746E+04 -9.87799E+03  9.42708E+03 -1.68110E+04 -3.35608E+03
 -1.10109E+04 -1.23305E+04 -3.46552E+02 -1.86397E+04  8.16451E+03 -1.52292E+04  1.48177E+04 -8.16027E+03
  1.42598E+04  6.53873E+02  1.09305E+04  4.38243E+03  5.28229E+03  1.91260E+03  7.49975E+03 -1.43708E+03
  1.28553E+04  2.54706E+03  1.51731E+04  1.23242E+04  7.99994E+03  2.42051E+04 -3.32009E+03  2.73813E+04
 -1.64300E+04  1.96134E+04 -2.38075E+04  9.56842E+03 -2.52083E+04 -1.37482E+03 -2.12151E+04 -1.37363E+04
 -1.03618E+04 -2.00624E+04  5.99711E+03 -1.91269E+04  1.62419E+04 -1.01900E+04  1.58663E+04  3.06548E+03
  6.22696E+03  1.11762E+04 -6.67362E+03  1.08664E+04 -1.30695E+04  2.60349E+03 -1.15792E+04 -6.93631E+03
  2.55507E+02 -1.30701E+04  6.06147E+03 -8.92337E+03  7.84151E+03 -1.45907E+03  8.07091E+02  6.00804E+03
 -6.03968E+03  6.90301E+02 -4.23376E+03 -4.27223E+03  1.72103E+03 -9.98892E+03  8.64159E+03 -9.35733E+03
  1.20995E+04 -4.88907E+03  1.23370E+04  3.06070E+03  1.02437E+04  9.34249E+03  5.12888E+03  1.40364E+04
 -2.53237E+03  1.50193E+04 -9.34323E+03  8.63838E+03 -1.11279E+04  1.88210E+03 -8.61203E+03 -1.42600E+03
 -4.11815E+03 -2.69721E+03 -1.11104E+03  1.91765E+03 -1.99910E+03  2.49856E+03 -4.00625E+03  2.71040E+03
 -8.76457E+03 -1.62362E+03 -9.92174E+03 -6.24583E+03 -4.06273E+03 -1.12567E+04  3.37078E+03 -8.44243E+03
  6.45237E+03 -3.40423E+03  4.62412E+03  1.52597E+03  2.11602E+00  3.78422E+03 -2.95264E+03  1.24268E+02
 -3.72864E+03 -4.99950E+03 -1.36546E+03 -7.66367E+03  3.71961E+03 -7.20491E+03  9.62943E+03 -3.30061E+03
  1.11829E+04 -9.89777E+01  9.04232E+03  5.61351E+03  1.62209E+03  9.22611E+03 -5.64536E+03  7.97592E+03
 -8.36657E+03  3.13082E+03 -3.70617E+03 -1.71730E+03  2.05538E+03 -1.61917E+03  3.84450E+03 -3.53599E+02
  5.02399E+03  3.61906E+03  1.56601E+03  5.81903E+03 -4.43997E+03  5.83150E+03 -7.95192E+03  2.13678E+03
 -4.48098E+03 -3.11919E+03  1.25154E+02 -6.33655E+03  4.70670E+03 -3.66567E+03  3.11661E+03  7.43257E+02
  1.67034E+03  3.24487E+03 -4.24381E+03  3.49827E+03 -4.21679E+03  1.84342E+03 -3.95413E+03 -1.47639E+03
 -3.29630E+03 -5.53482E+03  8.33079E+02 -7.21213E+03  6.41640E+03 -5.65459E+03  7.69924E+03  1.48977E+03
  3.57718E+03  5.18048E+03  8.47972E+02  7.11626E+03 -5.15635E+03  4.01918E+03 -3.59238E+03  1.12295E+02
 -7.28312E+03 -5.36009E+03 -1.60256E+03 -5.42497E+03  3.49110E+03 -4.27301E+03  3.22366E+03 -3.01401E+03
  3.30518E+03  6.84146E+02  3.51077E+02  1.71725E+03  4.08319E+01 -7.21178E+02 -7.43268E+02 -1.64072E+03
  4.41882E+03 -8.07732E+02  5.62679E+03 -2.40552E+02  6.61200E+03  3.65696E+03  5.39985E+03  8.50634E+03
 -1.07362E+03  8.34893E+03 -8.65646E+03  6.34239E+03 -1.12761E+04  1.52954E+03 -7.65920E+03 -2.61021E+03
 -3.79432E+03 -5.98506E+03 -1.46726E+03 -4.78865E+03  1.78216E+03 -2.20863E+03  2.01330E+03 -2.30645E+03
  2.03671E+03 -1.71800E+03  1.31270E+03 -2.35553E+03  3.07262E+03 -1.68361E+03  4.61058E+03  8.97026E+02
  4.23342E+03  1.05083E+03  2.07960E+03  4.12314E+03 -2.01348E+03  2.97743E+03 -3.34352E+03  2.47143E+03
 -5.38757E+03 -8.20220E+02 -1.65568E+03 -3.30247E+03  1.12241E+03 -5.15694E+03  3.73471E+03 -5.17483E+03
  5.63408E+03 -3.80810E+03  6.57195E+03  3.06001E+02  4.62835E+03  5.12719E+03  1.09886E+03  6.26677E+03
 -2.92760E+03  5.28679E+03 -2.87594E+03  1.88522E+03 -1.43793E+03 -1.01639E+03 -4.51895E+02 -1.18876E+03
 -6.02237E+02 -1.10143E+03 -1.60389E+03  2.77248E+03 -3.24962E+03  2.03248E+03 -4.25328E+03 -1.02548E+03
 -2.03094E+03 -4.55513E+03  5.12024E+02 -4.93016E+03  2.97662E+03 -4.29892E+03  3.67671E+03 -1.89860E+03
  4.04442E+03  2.53812E+03  1.60206E+03  4.37869E+03 -1.45924E+02  5.38080E+03 -3.38662E+03  2.59860E+03
 -3.53254E+03  6.37593E+02 -3.26707E+03 -2.92072E+03 -5.65603E+02 -3.36304E+03  1.87566E+03 -2.20945E+03
  2.90190E+03 -1.33198E+03  1.39044E+03  1.20425E+02  9.91311E+01  6.06254E+02  6.75742E+02  6.51966E+02
  2.29729E+03  7.03171E+02  1.04734E+03  2.06906E+02  8.24055E+02  1.73386E+03  1.64236E+03  1.88286E+03
 -1.58675E+03  3.12354E+03 -3.34977E+03  4.57431E+03 -3.57723E+03  1.27352E+03 -4.03756E+03 -3.66665E+02
 -3.20499E+03 -2.40416E+03  9.93948E+02 -4.95027E+03  1.68320E+03 -2.75976E+03  2.62058E+03 -9.06346E+02
  2.49544E+03  1.57049E+03  2.69257E+02  1.39564E+03 -8.00750E+02 -3.78091E+02 -1.47900E+03  2.69347E+02
 -9.82494E+02 -1.09985E+03  8.98534E+02 -2.13363E+03  5.91340E+02 -9.30438E+02  1.93740E+03  5.09970E+02
  6.70352E+02  4.99501E+02  1.74801E+03 -2.64942E+02  5.84014E+02  2.26671E+02  1.61825E+03 -1.52280E+02
  4.35818E+02 -3.35185E+02  1.55104E+03  4.15558E+02  1.25346E+02  2.31392E+03 -8.44646E+01  2.75116E+03
 -2.18441E+03  1.06983E+03 -3.34321E+03  1.17652E+03 -2.94509E+03 -1.59214E+03 -9.35202E+02 -1.86881E+03
  6.20008E+02 -1.15953E+03  1.24839E+03  1.31518E+01  2.42225E+02  1.44173E+03 -5.60751E+02  1.40008E+03
 -9.93342E+02  1.88983E+03 -1.60058E+03 -1.21839E+03 -9.88647E+02 -3.12010E+03  4.60232E+01 -1.24175E+03
  1.25585E+03 -1.07955E+03  1.00259E+03 -1.89345E+02  8.92188E+02 -8.69224E+00  6.38881E+02  7.45612E+02
  1.87195E+02  4.13487E+02 -1.34874E+03 -5.74580E+02  3.23685E+02 -1.27487E+03  1.90252E+03 -1.02525E+03
  1.97473E+03  2.70359E+02  2.98180E+03  5.36208E+02 -2.42532E+02  1.70382E+03 -3.13444E+02  2.71575E+03
 -1.75751E+03  2.70944E+02 -1.49568E+03 -1.31289E+03 -7.78617E+02 -1.73541E+03 -4.51431E+02 -1.18148E+03
  9.18723E+02 -9.52960E+02  1.10447E+03  6.22106E+02 -1.66367E+02  1.74987E+03  4.66808E+02  4.95177E+02
  2.32552E+02  1.43151E+03 -8.75260E+02  7.51874E+02  2.25523E+02 -4.85858E+01 -8.14899E+02 -2.03031E+02
 -2.09502E+02  1.29761E+03 -1.94398E+03  1.75682E+02 -1.12920E+03  3.23703E+02 -2.57503E+03 -1.63499E+03
 -8.81568E+02 -1.63020E+03  8.25209E+02 -3.20350E+03  1.14244E+03 -2.50805E+03  2.54329E+03 -1.87125E+03
  2.28125E+03 -6.60956E+01  6.98509E+02  2.93060E+03 -1.42375E+02  2.33724E+03 -3.02385E+02  1.31086E+03
 -2.98829E+02  1.31136E+03 -9.11515E+02 -8.72685E+02  8.69770E+02  1.00052E+02 -8.80944E+01  3.21398E+02
 -1.06893E+03 -1.50317E+03 -7.25362E+02  8.84540E+02  7.16902E+02 -1.15456E+03 -9.98204E+01 -7.59507E+02
  1.65598E+03 -5.63176E+02 -6.49104E+01  5.54899E+02  2.05403E+03  6.38389E+02 -7.06601E+02  1.22215E+03
 -1.20712E+03  2.15937E+03 -1.39373E+03  2.81468E+03 -2.19702E+03 -5.94862E+02 -6.62884E+02 -2.05759E+03
 -1.84770E+02 -5.41248E+02  6.66289E+01 -1.54130E+03  1.58638E+03 -9.50922E+02  3.80061E+02 -1.63894E+02
  1.15954E+03  2.59251E+02  1.63649E+02  9.88942E+02 -1.76639E+03  1.55354E+02 -6.84663E+02  1.64111E+03
  9.69516E+02  2.23839E+02 -2.63946E+02  1.94731E+03  3.43866E+02  1.34298E+03  1.14946E+03  4.78091E+02
 -4.90963E+02  5.67005E+00 -5.02846E+02  5.24168E+02 -3.70135E+02 -5.65379E+01  4.36949E+02 -1.60496E+03
  5.49511E+02 -7.25529E+02  7.01850E+02  2.92212E+02  2.33908E+02  5.33323E+02  4.41803E+02  6.08253E+02
  5.72513E+02  1.07543E+03 -1.27024E+02 -1.89309E+02  2.10468E+02  2.24014E+03 -8.16449E+02 -4.63422E+02
 -6.64511E+02 -3.46122E+02  7.30894E+01 -5.79516E+01 -4.91014E+02 -7.41654E+01 -8.07401E+02 -1.56801E+02
 -1.19506E+03 -9.25573E+02 -6.50755E+02 -6.73089E+02  1.62202E+03 -1.22136E+03  1.46937E+03  3.52180E+02
  1.28499E+02 -9.16066E+01  1.33076E+02  1.17650E+03 -4.29420E+02  1.31868E+03 -3.42798E+02 -2.50500E+02
