 $NMID ID='MM_0lb_SNR200_10hz_g40_96.RAW', FMTDAT='(8E13.5)'
 TRAMP=1., VOLUME=1. $END
  3.09578E+05  7.00522E+02  3.37389E+05  2.51565E+05  8.40908E+04  3.38379E+05 -1.32168E+05  2.50793E+05
 -1.91293E+05  8.40422E+04 -1.11043E+05 -3.32992E+04 -7.06924E+02 -5.09993E+04  5.42009E+04 -2.37449E+01
  3.56763E+04  5.24086E+04 -1.75149E+04  7.64579E+04 -6.10331E+04  6.36608E+04 -8.30680E+04  3.25760E+04
 -8.24215E+04 -1.09481E+04 -5.77169E+04 -5.21862E+04 -1.53923E+04 -7.01164E+04  2.67663E+04 -4.65700E+04
  4.01254E+04  3.14194E+03  1.73623E+04  4.79687E+04 -3.45191E+04  4.86137E+04 -6.78643E+04 -1.11283E+03
 -5.37132E+04 -5.60523E+04 -6.09598E+03 -7.81087E+04  3.34385E+04 -5.55087E+04  4.86221E+04 -1.60863E+04
  4.49863E+04  1.25755E+04  3.23724E+04  2.58763E+04  1.52689E+04  3.00217E+04 -5.72138E+03  2.73344E+04
 -2.19663E+04  1.21266E+04 -1.80372E+04 -5.94811E+03  8.01391E+03 -6.56415E+03  2.31501E+04  1.46748E+04
  5.86536E+03  3.62930E+04 -3.28822E+04  3.61535E+04 -6.40104E+04  1.25133E+03 -5.84604E+04 -4.40702E+04
 -1.28327E+04 -6.54935E+04  4.08645E+04 -4.69581E+04  6.00205E+04 -3.69150E+03  3.48609E+04  3.38577E+04
 -5.21436E+03  3.57988E+04 -3.02618E+04  1.70817E+04 -3.10749E+04 -4.36349E+03 -1.82217E+04 -1.23892E+04
 -9.32093E+03 -1.45438E+04 -5.02592E+02 -1.90611E+04  8.33452E+03 -2.22326E+04  1.55498E+04 -1.16489E+04
  1.21551E+04  6.66595E+03 -7.97031E+03  1.27932E+04 -2.33410E+04 -6.87771E+03 -9.13207E+03 -3.66835E+04
  2.27638E+04 -4.55739E+04  5.09809E+04 -2.00200E+04  4.68694E+04  2.11544E+04  1.65648E+04  4.57515E+04
 -1.55094E+04  3.35773E+04 -2.58639E+04  6.89639E+02 -1.13579E+04 -2.84217E+04  2.09862E+04 -3.54475E+04
  4.30383E+04 -1.04122E+04  3.87349E+04  2.38769E+04  1.91945E+04  5.01002E+04 -6.17525E+03  5.31307E+04
 -3.48772E+04  3.74896E+04 -4.51173E+04  1.03693E+04 -4.49735E+04 -1.68886E+04 -2.38912E+04 -4.14744E+04
  8.24981E+03 -4.07509E+04  3.14773E+04 -1.65487E+04  3.19609E+04  1.06842E+04  4.84838E+03  1.96500E+04
 -1.47364E+04  9.46222E+03 -1.02325E+04 -6.98459E+03  4.79694E+03 -1.02466E+04  1.93457E+04  4.74977E+03
  1.44837E+04  2.28452E+04 -6.81153E+03  2.65312E+04 -2.17395E+04  1.35283E+04 -3.00383E+04 -2.84030E+03
 -2.29699E+04 -1.84853E+04 -1.09433E+04 -2.23014E+04  4.46315E+03 -2.28366E+04  1.92327E+04 -2.02534E+04
  3.00193E+04 -1.19155E+04  3.56484E+04  4.49809E+03  2.60864E+04  2.26508E+04  5.29122E+03  3.93012E+04
 -1.87545E+04  3.24668E+04 -3.02043E+04  1.11715E+04 -2.16648E+04 -9.85670E+03 -5.23644E+03 -1.37536E+04
  1.29703E+03 -1.13022E+03 -6.80396E+03  6.42151E+03 -1.86121E+04  5.93063E+03 -1.88319E+04 -9.04894E+03
 -1.14302E+04 -2.19391E+04  4.84218E+03 -2.62123E+04  1.92713E+04 -1.78394E+04  2.14861E+04 -1.00680E+03
  1.32029E+04  1.38980E+04 -6.98765E+02  2.14542E+04 -1.63435E+04  1.34509E+04 -2.14941E+04 -5.03199E+03
 -1.64774E+04 -1.87603E+04 -1.61806E+03 -2.55670E+04  1.19477E+04 -2.09051E+04  2.21371E+04 -1.05048E+04
  1.96587E+04 -7.40445E+02  1.33928E+04  4.93029E+03  9.08406E+03  2.02858E+03  1.23796E+04 -2.03732E+03
  2.08244E+04  1.65830E+03  2.26120E+04  1.77531E+04  1.57040E+04  3.44217E+04 -3.52222E+03  4.05846E+04
 -2.28550E+04  3.25700E+04 -3.71907E+04  1.72986E+04 -4.02716E+04 -2.37657E+03 -3.31444E+04 -2.30565E+04
 -1.27358E+04 -3.47066E+04  1.11187E+04 -3.08033E+04  2.47065E+04 -1.41340E+04  2.25459E+04  7.39828E+03
  7.14015E+03  1.63921E+04 -1.00013E+04  1.29239E+04 -1.92616E+04  2.40325E+03 -1.38467E+04 -1.15747E+04
  4.38233E+02 -1.78455E+04  1.02928E+04 -1.41912E+04  1.11204E+04 -1.60343E+03  3.06728E+03  7.15325E+03
 -7.71536E+03  2.86213E+03 -7.86838E+03 -7.17903E+03 -1.57252E+03 -1.63379E+04  9.48282E+03 -1.77924E+04
  2.06573E+04 -9.51344E+03  2.29396E+04  2.51814E+03  2.06962E+04  1.75573E+04  1.00637E+04  2.69001E+04
 -4.90914E+03  2.71831E+04 -1.76824E+04  1.70278E+04 -1.92841E+04  4.09780E+03 -1.58101E+04 -4.91203E+03
 -5.42839E+03 -6.76629E+03 -3.01281E+02 -1.66515E+02 -3.14106E+03  4.07072E+03 -6.93694E+03  6.09662E+03
 -1.27706E+04 -2.07165E+03 -1.37318E+04 -1.17931E+04 -5.20571E+03 -1.67268E+04  6.28859E+03 -1.51448E+04
  1.22516E+04 -6.71051E+03  6.89405E+03  3.84360E+03  2.05295E+02  5.32785E+03 -6.32746E+03 -5.28041E+02
 -8.46636E+03 -9.26668E+03 -1.76922E+03 -1.46251E+04  9.16822E+03 -1.47705E+04  1.80415E+04 -8.03777E+03
  1.99587E+04  2.47401E+03  1.42691E+04  1.30516E+04  3.86738E+03  1.67850E+04 -7.78568E+03  1.37256E+04
 -1.11677E+04  2.17303E+03 -4.51736E+03 -2.72739E+03  2.39320E+03 -4.37291E+03  6.06516E+03 -4.28662E+02
  7.42398E+03  4.86497E+03  4.14134E+02  1.17987E+04 -6.16210E+03  1.03545E+04 -1.47755E+04  3.30379E+03
 -9.89669E+03 -8.24979E+03 -5.76656E+02 -1.27554E+04  8.67515E+03 -7.18347E+03  8.26000E+03  2.76439E+03
  2.89100E+03  8.54227E+03 -6.58537E+03  1.16357E+04 -1.12375E+04  4.10257E+03 -1.16195E+04 -4.44350E+03
 -8.08593E+03 -1.36477E+04  3.54222E+03 -1.54178E+04  1.24661E+04 -9.48039E+03  1.36658E+04  1.09704E+03
  9.67592E+03  1.14014E+04 -2.55120E+03  1.47246E+04 -9.82987E+03  8.07954E+03 -1.04109E+04 -1.67756E+03
 -9.35996E+03 -8.85411E+03 -2.05750E+03 -1.28541E+04  5.97572E+03 -7.85964E+03  6.41921E+03 -4.49138E+03
  4.33781E+03  1.60938E+03 -3.53033E+02  2.08807E+03  2.25564E+02 -3.99315E+03  1.05617E+03 -7.55675E+03
  1.17021E+04 -5.12381E+03  1.38477E+04  1.94073E+03  1.32580E+04  9.52219E+03  8.77351E+03  1.58290E+04
 -4.53133E+03  2.05537E+04 -1.60237E+04  1.43150E+04 -2.39475E+04  3.31993E+03 -1.91455E+04 -7.67675E+03
 -9.36202E+03 -1.42837E+04 -1.58811E+03 -1.17145E+04  2.87291E+03 -7.08778E+03  5.27259E+03 -5.31041E+03
  2.59680E+03 -2.98167E+03  2.66420E+03 -2.67436E+03  5.49911E+03 -2.88271E+03  7.75483E+03 -5.22639E+02
  8.80770E+03  1.35127E+03  4.22889E+03  9.17052E+03 -1.12889E+03  1.01701E+04 -9.95713E+03  6.48171E+03
 -1.31072E+04 -7.69292E+02 -6.01492E+03 -1.00577E+04 -1.69419E+03 -1.25898E+04  7.43022E+03 -1.42679E+04
  1.43419E+04 -7.90449E+03  1.69805E+04  2.12403E+03  1.05921E+04  1.26034E+04  1.87505E+03  1.58286E+04
 -5.97363E+03  1.06622E+04 -9.00256E+03  4.25422E+03 -5.10693E+03 -8.85115E+02 -3.44019E+03 -1.05923E+03
 -1.83923E+03  1.82070E+03 -1.78794E+02  2.91437E+03 -4.96058E+03  4.98255E+02 -9.38564E+03 -2.48472E+03
 -6.69119E+03 -7.11069E+03 -1.66570E+03 -1.23476E+04  8.60672E+03 -1.10909E+04  1.06917E+04 -4.41619E+03
  1.12346E+04  6.31210E+03  5.15446E+03  1.07731E+04 -3.07436E+03  1.30644E+04 -8.12048E+03  7.51784E+03
 -1.13520E+04  8.98259E+02 -8.95080E+03 -8.26023E+03 -5.42476E+02 -9.26929E+03  6.81133E+03 -6.79737E+03
  7.37864E+03 -3.01398E+03  5.00688E+03  1.56480E+03  2.94797E+03  2.65061E+03  5.82891E+02  2.98000E+03
  2.75782E+03  5.07868E+02  3.72669E+03  8.08346E+02  3.95241E+03  5.10710E+03  3.25615E+03  6.80680E+03
 -3.96449E+03  9.78910E+03 -9.70668E+03  1.02026E+04 -1.39812E+04  2.42267E+03 -1.33961E+04 -4.86420E+03
 -5.17607E+03 -1.29665E+04  3.00068E+03 -1.29775E+04  6.80034E+03 -8.62185E+03  1.05848E+04 -2.75728E+03
  7.40565E+03  4.22642E+03  2.49270E+03  7.65826E+03 -4.16487E+03  3.98718E+03 -4.47310E+03 -4.33969E+02
 -2.18523E+03 -5.56592E+03  2.66029E+03 -6.57513E+03  5.52570E+03 -3.93194E+03  5.90598E+03  1.36803E+03
  3.31261E+03  2.61207E+03  1.09547E+03  2.65927E+03 -1.47864E+03  2.02664E+03  2.01065E+03 -2.37273E+02
  2.03745E+03 -1.71978E+02  5.39235E+03  3.65534E+03  2.83296E+03  6.61228E+03  4.54509E+01  9.78232E+03
 -6.98654E+03  6.25159E+03 -8.92654E+03  8.51865E+02 -6.59729E+03 -3.31551E+03 -2.86395E+03 -4.79408E+03
  1.69343E+03 -5.90236E+03  3.42903E+03 -2.65119E+03  1.58607E+03  2.07917E+03 -2.46928E+03  5.36859E+03
 -3.66808E+03  2.30650E+03 -6.52921E+03 -2.78947E+03 -3.37745E+03 -7.28590E+03  2.25838E+03 -4.88476E+03
  3.63407E+03 -3.90712E+03  5.84396E+03 -1.04868E+03  3.11955E+03  7.64820E+02 -1.44745E+03  4.68900E+03
 -3.26450E+03  8.82492E+02 -4.10526E+03 -2.48183E+03  4.20588E+01 -4.86985E+03  5.50035E+03 -4.37513E+03
  8.16653E+03  1.06161E+02  8.72665E+03  5.47904E+03  2.88149E+03  8.00392E+03 -2.73131E+03  7.31826E+03
 -7.10841E+03  4.36498E+03 -7.65830E+03 -3.48515E+02 -4.58462E+03 -5.63707E+03  2.02228E+03 -3.79673E+03
  6.76545E+03 -2.41681E+03  4.33054E+03  1.23032E+03  1.42155E+03  4.48535E+03 -6.23550E+02  4.87070E+03
 -2.82322E+03  1.75437E+03 -1.83210E+03  1.08415E+02 -1.39532E+03  1.49336E+03 -1.38317E+03  6.38240E+02
 -2.14818E+03  3.89370E+03 -3.65803E+03  3.24493E+03 -8.18880E+03  8.74098E+02 -8.73768E+03 -4.63731E+03
 -5.64334E+03 -1.07993E+04  2.53774E+03 -1.26383E+04  8.00340E+03 -1.03843E+04  1.05655E+04 -3.14396E+03
  1.10291E+04  1.52180E+03  6.31078E+03  6.59731E+03  1.48619E+03  7.66331E+03 -3.78470E+03  7.40818E+03
 -4.20627E+03  2.30593E+03 -3.21221E+03 -2.86359E+03 -8.93638E+02 -1.47572E+03  2.62215E+02  2.42284E+03
 -2.74565E+03  2.71743E+03 -3.41536E+03 -3.50374E+02 -1.11495E+03 -2.01864E+03 -3.39969E+02 -3.11057E+03
  4.59030E+03 -3.94089E+03  4.15624E+03  7.17484E+01  5.07955E+03  3.34517E+03  8.38616E+02  7.36756E+03
 -4.41125E+03  1.10234E+04 -8.65254E+03  4.29627E+03 -9.97465E+03 -9.81023E+02 -6.53629E+03 -5.51159E+03
 -1.93864E+03 -8.70767E+03  1.46035E+03 -8.89040E+03  4.80033E+03 -5.12662E+03  4.42760E+03 -5.95245E+02
  3.86060E+03  3.55650E+03 -9.90415E+02  2.69276E+03 -2.23405E+03  5.01741E+02  2.98913E+02 -1.33665E+03
  3.58084E+03 -3.73947E+02  3.21236E+03 -1.56029E+02  2.65893E+03  3.39846E+03 -9.15832E+01  2.78441E+03
 -4.20438E+03  4.63017E+03 -5.94289E+03  2.96820E+03 -4.63728E+03 -4.93981E+03 -4.48382E+02 -6.46279E+03
  2.55908E+03 -5.15379E+03  6.47728E+03 -8.30454E+02  7.66033E+03  1.03475E+03  3.38569E+03  5.67154E+03
  6.95618E+02  4.66214E+03 -2.02600E+03  4.87976E+03 -3.33219E+03  2.67153E+03 -2.30208E+03 -8.13052E+02
 -2.13457E+03  1.38721E+02 -2.89657E+03  1.82670E+03 -2.95213E+03  3.03157E+02 -4.63214E+03 -7.77393E+02
 -7.15855E+03 -2.53388E+03 -7.24604E+02 -5.51886E+03  1.72079E+03 -4.95454E+03  4.04308E+03 -3.71433E+03
  4.93678E+03 -4.00435E+02  3.67127E+03  3.02618E+03  7.81649E+02  5.74022E+03 -5.25981E+03  4.35301E+03
