 $NMID ID='MM_0lb_SNR200_8hz_g60_13.RAW', FMTDAT='(8E13.5)'
 TRAMP=1., VOLUME=1. $END
  3.10391E+05  1.33140E+03  3.38136E+05  2.50900E+05  8.55122E+04  3.37787E+05 -1.33089E+05  2.51998E+05
 -1.91710E+05  8.39530E+04 -1.12722E+05 -3.20336E+04  5.55208E+02 -5.09730E+04  5.24813E+04 -2.22445E+03
  3.66005E+04  5.29015E+04 -1.73833E+04  7.75913E+04 -5.97580E+04  6.54621E+04 -8.63522E+04  3.29803E+04
 -8.40762E+04 -1.18732E+04 -5.82063E+04 -5.47050E+04 -1.47517E+04 -7.36980E+04  3.10865E+04 -4.68480E+04
  4.07663E+04  4.03812E+03  1.70929E+04  4.75028E+04 -3.49962E+04  4.90765E+04 -6.82987E+04 -1.44885E+03
 -5.66704E+04 -5.92434E+04 -6.89332E+03 -7.93328E+04  3.43786E+04 -5.67416E+04  5.16378E+04 -1.79627E+04
  4.60471E+04  1.31833E+04  3.41530E+04  2.93669E+04  1.56178E+04  3.15748E+04 -5.97470E+03  2.91828E+04
 -2.33876E+04  1.12278E+04 -1.69682E+04 -7.35613E+03  8.39159E+03 -7.95733E+03  2.54718E+04  1.42790E+04
  6.17112E+03  3.66346E+04 -3.52652E+04  3.57879E+04 -6.56046E+04  1.24669E+03 -5.87143E+04 -4.47609E+04
 -1.17057E+04 -6.77567E+04  4.29173E+04 -4.89386E+04  6.15593E+04 -4.26456E+03  3.74036E+04  3.71271E+04
 -5.52558E+03  4.03774E+04 -3.39041E+04  2.15511E+04 -3.55023E+04 -3.08275E+03 -2.16355E+04 -1.22661E+04
 -9.41915E+03 -1.64945E+04 -1.91145E+01 -1.96376E+04  1.07941E+04 -2.43454E+04  1.55243E+04 -1.30352E+04
  1.12315E+04  6.82746E+03 -1.18892E+04  1.25845E+04 -2.48612E+04 -9.71310E+03 -9.83991E+03 -3.91796E+04
  2.52579E+04 -4.78593E+04  5.29415E+04 -2.18065E+04  4.91795E+04  1.96716E+04  1.77249E+04  4.87834E+04
 -1.64175E+04  3.86855E+04 -2.99174E+04  2.37609E+03 -1.19715E+04 -3.01293E+04  2.13553E+04 -3.85215E+04
  4.52340E+04 -1.28777E+04  4.18218E+04  2.58577E+04  2.23156E+04  5.40728E+04 -8.90080E+03  5.84909E+04
 -3.69787E+04  3.99525E+04 -4.85161E+04  1.23224E+04 -5.07061E+04 -1.83889E+04 -2.86812E+04 -4.43878E+04
  8.15272E+03 -4.51189E+04  3.56933E+04 -1.90619E+04  3.26173E+04  1.15995E+04  5.29750E+03  2.12753E+04
 -1.61359E+04  1.03914E+04 -1.23178E+04 -8.50126E+03  7.49209E+03 -1.26606E+04  1.82014E+04  6.28389E+03
  1.57102E+04  2.32353E+04 -4.42134E+03  2.70562E+04 -2.36627E+04  1.60758E+04 -3.28962E+04 -6.61150E+02
 -2.73553E+04 -1.99280E+04 -1.39913E+04 -2.56276E+04  5.99503E+03 -2.75498E+04  2.01988E+04 -2.46017E+04
  3.51003E+04 -1.54555E+04  4.01171E+04  4.64292E+03  2.73822E+04  2.66989E+04  3.23150E+03  4.33541E+04
 -2.01444E+04  3.62758E+04 -3.16105E+04  1.12962E+04 -2.39158E+04 -8.82046E+03 -5.71590E+03 -1.34398E+04
 -1.32654E+03 -7.77280E+01 -8.56818E+03  7.88744E+03 -2.15600E+04  3.40202E+03 -2.21745E+04 -1.09548E+04
 -1.13159E+04 -2.49966E+04  8.55129E+03 -3.02984E+04  1.78449E+04 -2.04337E+04  2.49723E+04 -2.32994E+03
  1.51102E+04  1.82339E+04 -2.38289E+03  2.63858E+04 -1.91634E+04  1.47979E+04 -2.46092E+04 -6.50579E+03
 -1.91573E+04 -2.07070E+04 -2.39649E+03 -3.00877E+04  1.34288E+04 -2.58465E+04  2.47020E+04 -1.34381E+04
  2.51053E+04  1.01476E+03  1.87970E+04  5.15878E+03  1.05098E+04  1.58497E+03  1.33778E+04 -1.60793E+03
  2.40895E+04  2.02478E+03  3.01819E+04  1.83052E+04  2.23544E+04  4.21223E+04 -2.74013E+03  4.92722E+04
 -2.62067E+04  4.15719E+04 -4.60203E+04  2.13712E+04 -4.93840E+04 -2.36978E+03 -3.98927E+04 -2.81040E+04
 -1.67879E+04 -4.14196E+04  1.40563E+04 -3.69963E+04  3.15838E+04 -1.54743E+04  2.66241E+04  1.05935E+04
  8.65022E+03  2.15457E+04 -1.33518E+04  1.66510E+04 -2.06537E+04  2.54753E+03 -1.74130E+04 -1.51944E+04
 -8.74347E+02 -2.09663E+04  9.92317E+03 -1.57912E+04  1.49567E+04  4.90011E+02  3.79282E+03  1.11043E+04
 -1.02195E+04  5.34982E+03 -1.10873E+04 -7.62477E+03 -1.58973E+03 -2.19364E+04  1.43212E+04 -2.34101E+04
  2.61951E+04 -1.12783E+04  3.11694E+04  2.03128E+03  2.68015E+04  2.05815E+04  1.17457E+04  3.30912E+04
 -6.19982E+03  3.53301E+04 -2.35179E+04  1.98102E+04 -2.51937E+04  5.00385E+03 -1.73444E+04 -8.01381E+03
 -7.42654E+03 -9.10838E+03 -1.67862E+03  1.83536E+03 -1.97710E+03  4.86081E+03 -7.21189E+03  6.67086E+03
 -1.56333E+04 -1.29167E+03 -1.69811E+04 -1.36305E+04 -6.11656E+03 -2.17146E+04  6.24815E+03 -1.79398E+04
  1.59952E+04 -8.36970E+03  1.00681E+04  6.40327E+03 -1.89831E+03  8.21487E+03 -8.49060E+03  1.07610E+03
 -1.02117E+04 -1.40918E+04 -6.15607E+02 -1.74403E+04  1.15855E+04 -1.92411E+04  2.29459E+04 -1.14155E+04
  2.56962E+04  1.48635E+03  1.93159E+04  1.45351E+04  2.86955E+03  2.24929E+04 -1.20045E+04  1.78799E+04
 -1.42943E+04  5.02451E+03 -4.58212E+03 -3.21228E+03  2.20192E+03 -6.74388E+03  8.72239E+03 -6.70433E+02
  8.84152E+03  8.48591E+03  1.24804E+03  1.38936E+04 -1.19910E+04  1.40776E+04 -1.71746E+04  2.15606E+03
 -9.79287E+03 -1.05700E+04  8.90558E+02 -1.44541E+04  1.03338E+04 -7.80855E+03  9.59745E+03  3.85218E+03
  3.70235E+03  1.06926E+04 -9.64748E+03  1.31023E+04 -1.67562E+04  4.90394E+03 -1.72679E+04 -5.39394E+03
 -9.14049E+03 -1.81181E+04  3.88097E+03 -2.27745E+04  1.70533E+04 -1.37667E+04  2.08253E+04  3.82103E+03
  9.50707E+03  1.48241E+04 -1.88867E+03  1.88390E+04 -1.40347E+04  9.42860E+03 -1.46763E+04 -7.01428E+02
 -1.18573E+04 -1.19396E+04 -2.79250E+03 -1.39298E+04  6.81808E+03 -1.05129E+04  7.91069E+03 -4.98564E+03
  5.27078E+03  1.22008E+03 -1.30597E+03  4.10051E+02 -3.29130E+02 -5.67820E+03  4.63981E+03 -9.27092E+03
  1.40827E+04 -6.55707E+03  1.86763E+04  2.17375E+03  1.71463E+04  1.19606E+04  1.26984E+04  2.44477E+04
 -6.85169E+03  2.89073E+04 -2.35969E+04  2.13295E+04 -2.85505E+04  3.31205E+03 -2.58639E+04 -8.31198E+03
 -1.18496E+04 -2.17195E+04 -1.30374E+03 -1.73636E+04  7.30641E+03 -1.15964E+04  5.94966E+03 -5.40425E+03
  5.02079E+03 -2.22859E+03  4.64650E+03 -3.49779E+03  7.06264E+03 -3.54157E+03  9.08203E+03 -2.25999E+03
  1.05715E+04  2.21307E+03  8.46413E+03  1.17484E+04 -3.10039E+03  1.55286E+04 -1.37119E+04  1.00980E+04
 -1.90131E+04  4.02891E+00 -1.00579E+04 -1.18936E+04  7.63605E+00 -1.91077E+04  9.63234E+03 -1.95006E+04
  2.06306E+04 -9.61431E+03  2.39564E+04  3.80097E+03  1.63662E+04  1.58465E+04  2.98681E+03  2.03858E+04
 -9.75000E+03  1.68430E+04 -1.00055E+04  5.24382E+03 -9.98252E+03 -1.69858E+03 -2.80587E+03 -3.78990E+02
 -2.26021E+03 -1.85044E+02 -1.91575E+03  1.74751E+03 -7.20397E+03  1.98154E+03 -1.12001E+04 -2.06591E+03
 -9.12795E+03 -1.08550E+04  1.05645E+03 -1.75244E+04  1.14433E+04 -1.91261E+04  1.68718E+04 -6.54982E+03
  1.66963E+04  8.35086E+03  9.30384E+03  1.61175E+04 -2.97230E+03  1.68339E+04 -1.30485E+04  1.06852E+04
 -1.77252E+04  2.76844E+02 -1.18296E+04 -1.22981E+04 -1.66674E+03 -1.56417E+04  8.42460E+03 -1.08173E+04
  1.27133E+04 -2.77343E+03  8.42563E+03  2.49513E+03  3.43473E+03  3.34229E+03  1.79512E+03  1.77199E+03
  2.73839E+03  2.63741E+00  4.49940E+03  2.53438E+03  6.58578E+03  6.99521E+03  4.72689E+03  9.27956E+03
 -3.64587E+03  1.54426E+04 -1.30490E+04  1.54914E+04 -1.79683E+04  3.38664E+03 -1.81166E+04 -8.36425E+03
 -1.05902E+04 -1.74641E+04  2.38770E+03 -1.94068E+04  1.03728E+04 -1.38984E+04  1.55238E+04 -3.79155E+03
  1.12426E+04  7.44869E+03  3.11795E+03  1.16135E+04 -5.97733E+03  8.13826E+03 -6.56275E+03 -1.16448E+03
 -4.78305E+03 -7.46810E+03  5.30341E+03 -8.58559E+03  7.63517E+03 -3.18945E+03  7.58895E+03 -3.24174E+02
  3.44571E+03  4.09620E+03  1.10087E+03  3.07404E+03 -1.15710E+03  1.36145E+03  2.51200E+03 -4.60049E+02
  4.54581E+03 -7.83506E+02  7.04713E+03  2.95785E+03  4.42758E+03  1.03342E+04 -1.93278E+03  1.31694E+04
 -1.05829E+04  7.94125E+03 -1.31824E+04  9.80863E+02 -1.00360E+04 -3.46876E+03 -5.07980E+03 -6.59865E+03
  1.36154E+02 -8.43384E+03  6.71894E+03 -1.57374E+03  4.18518E+03  4.57394E+03 -2.03964E+03  6.01760E+03
 -8.46600E+03  2.86370E+03 -9.81581E+03 -3.12704E+03 -4.86170E+03 -1.08030E+04  1.84141E+03 -1.20689E+04
  5.92396E+03 -6.81691E+03  7.59272E+03 -1.29438E+03  4.99847E+03  3.84222E+03  1.17771E+03  4.36576E+03
 -4.13952E+03  1.34929E+03 -6.95932E+03 -3.67782E+03  7.05551E+02 -8.01062E+03  7.65778E+03 -5.42758E+03
  1.26203E+04  2.31024E+03  1.13516E+04  8.63279E+03  4.42091E+03  1.20181E+04 -5.30317E+03  1.23922E+04
 -1.09582E+04  4.76994E+03 -1.16269E+04 -3.00373E+03 -5.31529E+03 -7.93029E+03  4.91415E+02 -8.79771E+03
  8.41458E+03 -2.59888E+03  6.54859E+03  2.03974E+03  1.72667E+03  6.95790E+03  5.00073E+01  4.89721E+03
 -3.21181E+03  3.42130E+03 -3.30337E+03 -1.42180E+02 -1.00330E+03  1.52803E+03 -1.66639E+03  2.06242E+03
 -3.71536E+03  3.73703E+03 -7.60593E+03  4.73876E+03 -1.19280E+04  8.86480E+02 -1.50465E+04 -8.66033E+03
 -7.98464E+03 -1.77170E+04  7.93755E+02 -1.95107E+04  1.26241E+04 -1.45306E+04  1.83763E+04 -5.16398E+03
  1.81877E+04  3.20760E+03  1.01426E+04  1.20825E+04  3.81846E+03  1.27518E+04 -4.89400E+03  1.09884E+04
 -7.67625E+03  3.57342E+03 -4.27902E+03 -2.02388E+03 -2.46640E+03  4.17820E+01  6.42828E+02 -1.05807E+03
 -1.75431E+03 -2.90067E+02 -2.73360E+03 -2.08096E+03 -3.78868E+02 -2.16553E+03  9.29453E+02 -4.63851E+03
  4.98333E+03 -4.52517E+03  1.00147E+04 -1.08549E+03  9.82110E+03  5.42046E+03  2.60342E+03  1.20598E+04
 -6.66674E+03  1.54933E+04 -1.51004E+04  7.98456E+03 -1.70790E+04 -2.79436E+03 -1.23516E+04 -8.89669E+03
 -5.02280E+03 -1.37130E+04  3.77390E+03 -1.33213E+04  8.14247E+03 -7.23489E+03  9.06910E+03  6.39384E+02
  3.78800E+03  5.30286E+03 -6.49682E+02  4.89947E+03 -3.72765E+03  2.20688E+02  7.45133E+02 -3.23954E+03
  3.93289E+03 -2.96146E+03  3.99806E+03  1.24910E+03  4.61258E+03  6.24833E+03  2.03140E+02  5.97001E+03
 -6.09922E+03  5.61036E+03 -1.06390E+04  1.60660E+03 -7.36328E+03 -6.07956E+03 -2.62658E+01 -1.17714E+04
  6.00470E+03 -9.44881E+03  1.10825E+04 -1.85292E+03  9.91206E+03  2.13752E+03  6.39373E+03  7.89734E+03
  2.20459E+03  1.02434E+04 -2.56683E+03  8.66181E+03 -5.45538E+03  3.58475E+03 -4.98199E+03 -1.43659E+03
 -1.53999E+03  1.99415E+02 -2.98651E+03  1.57711E+03 -6.16192E+03  9.10209E+02 -6.57698E+03 -6.35367E+02
 -7.41704E+03 -4.84061E+03 -2.56058E+03 -1.05959E+04  3.33983E+03 -9.32725E+03  7.25452E+03 -6.45406E+03
  8.98655E+03  2.10079E+03  4.84338E+03  6.15244E+03  4.50282E+01  8.22873E+03 -6.39959E+03  5.67644E+03
