 $NMID ID='MM_0lb_SNR200_8hz_g50_38.RAW', FMTDAT='(8E13.5)'
 TRAMP=1., VOLUME=1. $END
  3.08567E+05 -4.59520E+02  3.37519E+05  2.50949E+05  8.60926E+04  3.39096E+05 -1.31645E+05  2.51114E+05
 -1.90494E+05  8.54766E+04 -1.11723E+05 -3.23846E+04  2.07667E+03 -5.02113E+04  5.42236E+04 -6.39277E+02
  3.58098E+04  5.31904E+04 -1.56267E+04  7.69036E+04 -6.10206E+04  6.59188E+04 -8.53940E+04  3.42018E+04
 -8.28477E+04 -1.28963E+04 -5.81302E+04 -5.29301E+04 -1.56855E+04 -7.15352E+04  2.97038E+04 -4.75176E+04
  4.09826E+04  5.05798E+03  1.64363E+04  4.83765E+04 -3.51935E+04  5.00311E+04 -6.91088E+04  1.87598E+03
 -5.56231E+04 -5.82307E+04 -7.61744E+03 -7.97701E+04  3.43728E+04 -5.60568E+04  5.14723E+04 -1.88962E+04
  4.41378E+04  1.16026E+04  3.19824E+04  2.73554E+04  1.56799E+04  3.04992E+04 -5.43036E+03  2.79548E+04
 -2.33178E+04  1.23894E+04 -1.70400E+04 -5.48226E+03  7.31944E+03 -8.17327E+03  2.29575E+04  1.41826E+04
  5.64622E+03  3.81431E+04 -3.37969E+04  3.63136E+04 -6.47196E+04  1.81917E+03 -5.95319E+04 -4.33721E+04
 -1.05205E+04 -6.68959E+04  4.31139E+04 -4.79469E+04  6.33336E+04 -2.63843E+03  3.75551E+04  3.55178E+04
 -6.18296E+03  3.97289E+04 -3.31816E+04  1.83539E+04 -3.50438E+04 -2.46922E+03 -1.93439E+04 -1.12329E+04
 -9.03330E+03 -1.46654E+04  4.24187E+02 -2.02307E+04  9.17455E+03 -2.42055E+04  1.65235E+04 -1.07082E+04
  1.03716E+04  5.82363E+03 -1.19632E+04  1.38441E+04 -2.32461E+04 -7.26755E+03 -8.86682E+03 -3.87767E+04
  2.66918E+04 -4.66655E+04  5.15687E+04 -2.20487E+04  5.05077E+04  2.14254E+04  1.85892E+04  4.78495E+04
 -1.58213E+04  3.70616E+04 -2.73793E+04  2.51499E+03 -1.36818E+04 -2.95419E+04  1.91416E+04 -3.62952E+04
  4.58846E+04 -1.01279E+04  3.94384E+04  2.51890E+04  2.24330E+04  5.20053E+04 -8.47110E+03  5.75766E+04
 -3.56324E+04  4.05598E+04 -4.83557E+04  1.06336E+04 -4.88057E+04 -1.99977E+04 -2.62556E+04 -4.29129E+04
  9.04127E+03 -4.39448E+04  3.56854E+04 -1.67950E+04  3.25107E+04  1.18086E+04  5.77730E+03  2.07973E+04
 -1.32063E+04  9.35391E+03 -1.12658E+04 -7.76169E+03  5.55390E+03 -1.02430E+04  1.91358E+04  5.16867E+03
  1.33831E+04  2.30823E+04 -3.94029E+03  2.73968E+04 -2.52020E+04  1.53864E+04 -3.33060E+04 -2.88071E+03
 -2.52655E+04 -1.88540E+04 -1.24534E+04 -2.41233E+04  5.12564E+03 -2.77677E+04  2.22456E+04 -2.36708E+04
  3.36430E+04 -1.30916E+04  4.09402E+04  4.75993E+03  2.78839E+04  2.57170E+04  4.65291E+03  4.26107E+04
 -1.96605E+04  3.48909E+04 -3.12053E+04  1.26633E+04 -2.27122E+04 -7.52968E+03 -4.68693E+03 -1.44149E+04
  1.78301E+03  1.05748E+03 -8.40206E+03  8.90301E+03 -2.19559E+04  6.48138E+03 -1.89325E+04 -9.78551E+03
 -1.11604E+04 -2.37610E+04  6.59575E+03 -2.93771E+04  2.04164E+04 -2.09885E+04  2.30478E+04 -1.63316E+03
  1.42045E+04  1.80307E+04 -1.30828E+03  2.47893E+04 -1.82708E+04  1.41950E+04 -2.41868E+04 -2.89108E+03
 -1.99152E+04 -2.18026E+04 -3.36440E+03 -2.91986E+04  1.22386E+04 -2.54648E+04  2.54835E+04 -1.31348E+04
  2.30311E+04  2.44772E+02  1.57354E+04  4.68833E+03  8.84774E+03  1.15453E+03  1.30898E+04 -3.33078E+03
  2.34232E+04  4.19001E+03  2.63764E+04  1.81613E+04  1.77006E+04  3.93564E+04 -2.96037E+03  4.70380E+04
 -2.80609E+04  3.94494E+04 -4.43366E+04  1.95013E+04 -4.76007E+04 -3.47233E+03 -3.80842E+04 -2.75141E+04
 -1.44461E+04 -3.93501E+04  1.44536E+04 -3.43907E+04  3.00006E+04 -1.51966E+04  2.67215E+04  9.98810E+03
  8.32288E+03  1.86133E+04 -1.25411E+04  1.68738E+04 -2.03789E+04  1.98269E+03 -1.59886E+04 -1.40216E+04
 -1.82067E+03 -1.95072E+04  1.12601E+04 -1.34800E+04  1.32973E+04 -1.42032E+03  3.94687E+03  9.62814E+03
 -9.90467E+03  5.46352E+03 -1.04380E+04 -7.18356E+03 -1.75720E+03 -2.04783E+04  1.09470E+04 -2.15834E+04
  2.43843E+04 -1.19041E+04  2.76058E+04  5.12231E+03  2.33419E+04  1.96002E+04  1.26461E+04  3.05315E+04
 -5.88011E+03  3.36351E+04 -2.24454E+04  2.15229E+04 -2.45400E+04  4.62071E+03 -1.82731E+04 -7.37707E+03
 -4.45644E+03 -8.40260E+03 -1.73737E+03  9.43560E+02 -3.00696E+03  5.22498E+03 -6.59244E+03  5.12636E+03
 -1.49047E+04  4.74613E+02 -1.68861E+04 -1.26909E+04 -7.17367E+03 -2.10341E+04  6.89423E+03 -1.54470E+04
  1.33647E+04 -6.14571E+03  9.10821E+03  6.35585E+03 -5.01902E+02  7.17242E+03 -7.45980E+03  2.13635E+03
 -7.81376E+03 -1.16781E+04 -5.03111E+02 -1.79801E+04  8.23375E+03 -1.77334E+04  2.02190E+04 -8.90137E+03
  2.45610E+04  3.23443E+03  1.81239E+04  1.52045E+04  3.78448E+03  2.08547E+04 -1.01244E+04  1.70392E+04
 -1.31921E+04  4.84328E+03 -5.88039E+03 -4.35706E+03  1.31666E+03 -5.00914E+03  8.84739E+03 -2.07672E+03
  6.99445E+03  7.39358E+03  7.47360E+02  1.33536E+04 -1.02730E+04  1.23958E+04 -1.63049E+04  3.03725E+03
 -1.23358E+04 -9.34962E+03  6.72939E+02 -1.42734E+04  9.67543E+03 -7.44211E+03  1.06630E+04  3.05458E+03
  2.34937E+03  9.42864E+03 -8.38100E+03  1.21955E+04 -1.54681E+04  5.94433E+03 -1.45978E+04 -4.06827E+03
 -1.02804E+04 -1.97264E+04  3.96654E+03 -1.92382E+04  1.88533E+04 -1.25399E+04  1.88574E+04  3.64885E+03
  1.10870E+04  1.27629E+04 -1.91485E+03  1.84882E+04 -1.23195E+04  9.86089E+03 -1.59371E+04 -1.15631E+03
 -1.00934E+04 -1.02965E+04 -2.86094E+02 -1.14066E+04  6.44868E+03 -1.19344E+04  7.91135E+03 -2.29401E+03
  4.44800E+03  3.38681E+03 -1.18030E+03  1.61480E+03 -2.52159E+02 -3.42054E+03  4.17168E+03 -8.34834E+03
  1.42775E+04 -6.07734E+03  1.81986E+04  3.09149E+03  1.80465E+04  1.13412E+04  1.14453E+04  2.34913E+04
 -5.67541E+03  2.57582E+04 -1.94803E+04  2.13881E+04 -2.69452E+04  4.22450E+03 -2.42420E+04 -9.54084E+03
 -1.15803E+04 -1.82345E+04 -1.02711E+02 -1.57151E+04  7.29002E+03 -9.11721E+03  5.71189E+03 -6.63801E+03
  5.18861E+03 -2.38105E+03  3.90818E+03 -4.05333E+03  5.44668E+03 -4.23076E+03  8.34155E+03 -2.35330E+03
  1.34730E+04  1.80716E+03  7.34711E+03  1.01290E+04 -3.04916E+03  1.29317E+04 -1.22428E+04  8.55934E+03
 -1.61701E+04 -9.14681E+02 -1.08247E+04 -1.24904E+04 -3.00573E+03 -1.84639E+04  8.24116E+03 -1.69856E+04
  1.65635E+04 -7.99539E+03  2.17076E+04  1.90911E+03  1.48129E+04  1.62685E+04  5.92156E+02  1.96467E+04
 -7.52060E+03  1.68148E+04 -1.05685E+04  5.11339E+03 -9.14610E+03 -1.16935E+03 -3.47050E+03 -2.22342E+03
 -6.39962E+02 -1.56704E+02 -1.14247E+03  3.18014E+03 -7.96749E+03  1.00427E+03 -1.09982E+04 -1.90721E+03
 -9.09995E+03 -1.14747E+04 -7.92744E+02 -1.71183E+04  1.10467E+04 -1.46231E+04  1.84453E+04 -4.63085E+03
  1.54342E+04  9.26500E+03  6.88863E+03  1.56054E+04 -2.34046E+03  1.68793E+04 -1.10625E+04  1.15232E+04
 -1.85631E+04  5.02185E+02 -1.17906E+04 -9.95460E+03 -1.48397E+03 -1.39131E+04  8.03101E+03 -1.11971E+04
  1.24467E+04 -1.00004E+03  5.94511E+03  1.96724E+03  2.47863E+03  5.19366E+03  1.71279E+03  2.34678E+03
  2.00203E+03  1.70715E+03  5.16627E+03  1.48458E+03  5.43818E+03  4.35741E+03  3.67123E+03  8.47855E+03
 -3.95841E+03  1.37714E+04 -1.24697E+04  1.40006E+04 -1.80422E+04  2.43909E+03 -1.80345E+04 -8.71289E+03
 -9.85257E+03 -1.51331E+04  2.83537E+03 -1.73267E+04  1.19519E+04 -1.08650E+04  1.37468E+04 -2.68131E+03
  9.34220E+03  6.12114E+03  7.17888E+02  9.20551E+03 -4.95798E+03  6.59504E+03 -7.39236E+03 -2.41771E+03
 -3.87820E+03 -8.52024E+03  3.29423E+03 -8.22077E+03  7.92086E+03 -4.75120E+03  7.42201E+03  1.62046E+03
  3.63445E+03  2.99964E+03  2.64042E+03  2.74641E+03  4.40008E+01  1.54313E+03  1.60507E+03 -4.43474E+02
  4.66685E+03 -1.15261E+03  7.80445E+03  2.50172E+03  5.57926E+03  8.03880E+03 -8.95072E+02  1.14157E+04
 -7.68276E+03  8.96031E+03 -1.08835E+04  2.69495E+03 -1.06601E+04 -3.27878E+03 -4.45972E+03 -7.09177E+03
 -1.94683E+03 -6.95048E+03  5.64058E+03 -3.22006E+03  4.09494E+03  2.51255E+03 -1.06898E+03  6.22074E+03
 -7.16143E+03  2.74060E+03 -8.50095E+03 -5.18289E+03 -4.74096E+03 -8.88610E+03  2.13402E+03 -9.19367E+03
  5.56080E+03 -5.25216E+03  8.57539E+03 -8.74987E+02  7.87115E+03  2.30754E+03  4.02830E+02  5.60250E+03
 -4.05484E+03  1.07027E+03 -5.47275E+03 -2.50956E+03  2.16584E+03 -6.96798E+03  7.75379E+03 -6.97155E+03
  1.23885E+04  1.14004E+02  9.11530E+03  7.66503E+03  2.75139E+03  1.12997E+04 -4.02964E+03  1.02909E+04
 -9.08042E+03  3.36439E+03 -1.19809E+04 -3.36450E+03 -5.11835E+03 -6.87550E+03  6.37023E+02 -6.47294E+03
  6.86849E+03 -3.19313E+03  7.69745E+03  3.37724E+03  3.40531E+03  4.94308E+03  2.03289E+02  4.70558E+03
 -2.80581E+03  3.22236E+03 -3.09659E+03  1.12790E+03 -5.59060E+02  5.73329E+02 -1.45240E+03  1.58710E+03
 -1.85950E+03  3.78276E+03 -7.73543E+03  4.97451E+03 -1.36535E+04  1.31945E+03 -1.44547E+04 -6.28537E+03
 -6.67434E+03 -1.58365E+04  2.98224E+03 -1.86847E+04  1.11491E+04 -1.40581E+04  1.85400E+04 -5.81904E+03
  1.64346E+04  4.48638E+03  1.00290E+04  1.06707E+04  5.08681E+02  1.34499E+04 -5.76282E+03  1.05415E+04
 -6.23929E+03  5.62182E+03 -3.44676E+03 -2.05637E+03 -2.25998E+03 -2.10679E+03 -3.23210E+02  7.81152E+02
 -2.27547E+03  1.12433E+03 -3.32624E+03 -4.71504E+02  6.45378E+02 -2.38312E+03 -1.35218E+03 -5.23010E+03
  4.33409E+03 -3.46494E+03  7.56381E+03 -8.01637E+02  8.01835E+03  7.63941E+03  1.56839E+03  1.21007E+04
 -6.25511E+03  1.47590E+04 -1.29950E+04  8.89436E+03 -1.40016E+04 -4.82193E+02 -1.08393E+04 -9.99349E+03
 -3.84154E+03 -1.07001E+04  3.59036E+03 -1.15460E+04  6.94351E+03 -6.83275E+03  1.01016E+04  9.41489E+02
  3.83005E+03  4.63700E+03  6.37327E+02  3.97774E+03 -3.58244E+03  7.38509E+02 -3.41460E+02 -3.17346E+03
  5.58739E+03 -1.53889E+03  3.89722E+03  3.81942E+03  2.77474E+03  4.24292E+03 -2.06809E+03  7.28440E+03
 -5.32560E+03  5.74937E+03 -8.59320E+03 -1.32818E+03 -7.01121E+03 -5.47846E+03 -1.00744E+03 -1.02306E+04
  5.94986E+03 -9.93840E+03  9.16374E+03 -4.25509E+03  1.06506E+04  2.72573E+03  5.25430E+03  9.76488E+03
  1.50242E+02  9.90787E+03 -2.44862E+03  6.63641E+03 -5.22639E+03  3.71210E+03 -4.17903E+03  9.67224E+02
 -1.16712E+03 -4.44441E+02 -2.01674E+03 -6.48275E+02 -4.19322E+03  1.09976E+03 -7.44226E+03 -2.62786E+03
 -6.56170E+03 -5.71602E+03 -2.24256E+03 -8.34712E+03  2.28832E+03 -8.53512E+03  7.47231E+03 -3.81313E+03
  8.46860E+03 -5.65162E+02  5.71070E+03  6.48097E+03 -2.08714E+03  8.28283E+03 -6.45553E+03  5.92809E+03
