 $NMID ID='MM_0lb_SNR200_7hz_g40_42.RAW', FMTDAT='(8E13.5)'
 TRAMP=1., VOLUME=1. $END
  3.08747E+05 -1.12931E+02  3.36756E+05  2.50519E+05  8.60653E+04  3.37200E+05 -1.31574E+05  2.50975E+05
 -1.90752E+05  8.17754E+04 -1.12903E+05 -3.11800E+04 -2.02162E+03 -5.21234E+04  5.58840E+04 -9.24773E+02
  3.56648E+04  5.21579E+04 -1.73967E+04  7.57663E+04 -6.06109E+04  6.51748E+04 -8.40564E+04  3.15992E+04
 -8.22282E+04 -1.20872E+04 -5.66766E+04 -5.36000E+04 -1.71623E+04 -7.28409E+04  2.84439E+04 -4.71665E+04
  4.02450E+04  1.55213E+03  1.85003E+04  4.91970E+04 -3.46915E+04  4.75257E+04 -6.82943E+04 -7.59774E+02
 -5.37689E+04 -5.78143E+04 -7.39518E+03 -8.03129E+04  3.55630E+04 -5.71532E+04  5.16292E+04 -1.93198E+04
  4.54744E+04  1.26433E+04  3.23569E+04  2.57395E+04  1.62257E+04  3.26334E+04 -5.18895E+03  2.92707E+04
 -2.20221E+04  1.15098E+04 -1.67782E+04 -5.16760E+03  6.90728E+03 -8.16853E+03  2.49379E+04  1.46049E+04
  5.66523E+03  3.81648E+04 -3.44486E+04  3.83905E+04 -6.60373E+04  1.78205E+03 -5.95843E+04 -4.41930E+04
 -1.27491E+04 -6.61599E+04  4.31655E+04 -4.93925E+04  6.29493E+04 -2.03502E+03  3.72522E+04  3.48362E+04
 -3.84289E+03  4.19239E+04 -3.38759E+04  1.77856E+04 -3.33498E+04 -1.66152E+03 -1.98781E+04 -1.35579E+04
 -1.00829E+04 -1.63888E+04  2.28835E+02 -2.16724E+04  9.83930E+03 -2.29979E+04  1.48142E+04 -1.36746E+04
  9.32841E+03  8.25393E+03 -1.07582E+04  1.21758E+04 -2.17562E+04 -7.00211E+03 -9.82398E+03 -3.96805E+04
  2.60773E+04 -4.88875E+04  5.26941E+04 -2.02980E+04  4.84278E+04  2.02857E+04  1.76585E+04  4.93718E+04
 -1.73965E+04  3.65405E+04 -2.83910E+04  3.90351E+03 -1.30722E+04 -3.01396E+04  2.20823E+04 -3.70302E+04
  4.54425E+04 -1.10952E+04  4.22745E+04  2.47459E+04  2.14775E+04  5.41532E+04 -9.61120E+03  5.80356E+04
 -3.67461E+04  3.97175E+04 -4.87105E+04  1.09235E+04 -4.92289E+04 -1.93640E+04 -2.78143E+04 -4.20521E+04
  6.27305E+03 -4.32339E+04  3.43917E+04 -1.86479E+04  3.24416E+04  1.10604E+04  4.81427E+03  2.13293E+04
 -1.44409E+04  1.16426E+04 -1.30455E+04 -6.98413E+03  5.29619E+03 -1.35306E+04  2.02931E+04  3.66516E+03
  1.41638E+04  2.27391E+04 -4.91298E+03  2.73994E+04 -2.32940E+04  1.49965E+04 -3.14240E+04 -1.90510E+03
 -2.56875E+04 -2.01849E+04 -1.47208E+04 -2.60681E+04  4.90652E+03 -2.73281E+04  2.06260E+04 -2.42713E+04
  3.27228E+04 -1.50608E+04  3.83545E+04  3.88207E+03  2.83345E+04  2.50782E+04  3.93842E+03  4.21823E+04
 -2.18352E+04  3.37788E+04 -3.25933E+04  1.11702E+04 -2.20377E+04 -9.60018E+03 -5.18642E+03 -1.25861E+04
  3.16993E+03 -1.57595E+03 -8.37843E+03  9.89592E+03 -2.07216E+04  4.74182E+03 -2.11398E+04 -1.00820E+04
 -1.22668E+04 -2.37583E+04  6.95766E+03 -2.83046E+04  1.91262E+04 -2.02214E+04  2.40858E+04 -4.56373E+03
  1.46995E+04  1.62090E+04  1.31581E+03  2.54682E+04 -1.69329E+04  1.33831E+04 -2.53487E+04 -6.31071E+03
 -1.83496E+04 -2.23547E+04 -3.00524E+03 -3.11464E+04  1.35768E+04 -2.49756E+04  2.47732E+04 -1.33866E+04
  2.26419E+04 -4.42339E+02  1.79266E+04  5.69279E+03  1.02986E+04  1.07418E+03  1.36146E+04 -2.46164E+03
  2.24678E+04  2.96727E+03  2.83682E+04  1.84468E+04  1.91163E+04  4.13069E+04 -4.47095E+03  4.64402E+04
 -2.54768E+04  3.82933E+04 -4.43789E+04  2.14662E+04 -4.79151E+04 -4.08165E+03 -4.03671E+04 -2.74895E+04
 -1.55760E+04 -3.97928E+04  1.22646E+04 -3.56028E+04  3.16333E+04 -1.73575E+04  2.51430E+04  9.41050E+03
  6.81467E+03  1.92305E+04 -1.23556E+04  1.65206E+04 -2.17234E+04  3.31907E+03 -1.62367E+04 -1.32432E+04
 -2.14965E+02 -2.15852E+04  1.30055E+04 -1.41186E+04  1.42642E+04  2.61411E+02  3.30272E+03  8.82162E+03
 -1.11440E+04  3.81483E+03 -1.09543E+04 -7.45688E+03 -2.68978E+02 -2.00116E+04  1.13781E+04 -2.19290E+04
  2.56493E+04 -1.37819E+04  2.70329E+04  4.86439E+03  2.51230E+04  2.31382E+04  1.17321E+04  3.16910E+04
 -5.60895E+03  3.37588E+04 -2.32358E+04  2.32855E+04 -2.37388E+04  2.58752E+03 -1.58165E+04 -7.17478E+03
 -7.66477E+03 -8.13134E+03 -5.85718E+01 -6.45317E+02 -2.22049E+03  4.94978E+03 -7.15214E+03  5.63494E+03
 -1.59959E+04 -9.60641E+02 -1.54893E+04 -1.41155E+04 -6.81476E+03 -1.99131E+04  6.75333E+03 -1.67351E+04
  1.37495E+04 -8.17785E+03  9.91098E+03  5.31534E+03 -1.71888E+03  6.88974E+03 -8.58624E+03  1.53368E+01
 -9.23015E+03 -1.01909E+04  6.40066E+01 -1.71225E+04  9.59187E+03 -1.95625E+04  2.24762E+04 -1.05973E+04
  2.61757E+04  9.47330E+02  1.93726E+04  1.57063E+04  5.18297E+03  2.22681E+04 -9.46159E+03  1.95497E+04
 -1.24463E+04  4.70185E+03 -6.67382E+03 -3.41408E+03  2.99715E+03 -4.48202E+03  8.96126E+03 -9.23697E+02
  7.59280E+03  7.48607E+03  1.87048E+03  1.40057E+04 -9.00011E+03  1.30533E+04 -1.57947E+04  2.60750E+03
 -1.25128E+04 -9.37891E+03 -1.56212E+01 -1.35895E+04  1.11215E+04 -7.17814E+03  1.02895E+04  4.95776E+03
  4.29490E+03  1.02158E+04 -9.66765E+03  1.19914E+04 -1.52976E+04  6.42622E+03 -1.65322E+04 -4.14792E+03
 -1.13322E+04 -1.76446E+04  4.11918E+03 -2.12367E+04  1.86030E+04 -1.15989E+04  1.91472E+04  3.93053E+03
  8.26428E+03  1.67971E+04 -2.83792E+03  1.79642E+04 -1.43929E+04  1.11177E+04 -1.59462E+04 -9.28007E+01
 -1.12736E+04 -1.07364E+04 -2.36232E+03 -1.41325E+04  7.07443E+03 -1.01775E+04  8.97528E+03 -5.51521E+03
  3.01532E+03  2.30277E+03 -3.76721E+03  1.76957E+03 -1.81487E+03 -3.17523E+03  3.11719E+03 -8.46043E+03
  1.32957E+04 -6.15602E+03  1.93979E+04  2.36135E+03  1.97467E+04  1.26126E+04  1.01230E+04  2.40689E+04
 -4.92561E+03  2.85012E+04 -2.09554E+04  2.02278E+04 -2.86717E+04  3.79420E+03 -2.27158E+04 -1.23368E+04
 -1.09414E+04 -2.04575E+04 -5.88433E+02 -1.60150E+04  7.79702E+03 -1.02577E+04  7.18193E+03 -5.11569E+03
  4.24966E+03 -2.86125E+03  4.75178E+03 -6.12188E+03  6.18330E+03 -2.84781E+03  8.88852E+03 -1.97905E+03
  1.12745E+04  4.54322E+03  5.64051E+03  1.23709E+04 -2.72060E+03  1.46907E+04 -1.13236E+04  1.12950E+04
 -1.73939E+04 -3.87393E+02 -1.25646E+04 -1.18285E+04 -6.03821E+02 -2.01404E+04  1.06846E+04 -1.84052E+04
  2.00797E+04 -8.78048E+03  2.14952E+04  3.31701E+03  1.85236E+04  1.64917E+04  3.18972E+03  2.03979E+04
 -8.86397E+03  1.74502E+04 -1.08274E+04  5.50197E+03 -1.02579E+04 -2.89174E+03 -4.65386E+03 -9.10262E+02
 -2.68324E+03 -3.72949E+02 -1.43191E+03  1.91599E+03 -7.64237E+03  3.29116E+03 -1.27136E+04 -2.29742E+03
 -9.20267E+03 -1.18934E+04  3.27681E+02 -1.94258E+04  1.13409E+04 -1.42040E+04  1.76959E+04 -5.13296E+03
  1.82347E+04  6.58673E+03  8.40439E+03  1.56111E+04 -2.96305E+03  1.92615E+04 -1.22983E+04  1.13785E+04
 -1.49555E+04  8.54098E+02 -1.30885E+04 -1.15161E+04 -1.28256E+03 -1.49670E+04  8.34806E+03 -1.10829E+04
  1.21127E+04 -3.83256E+03  8.91449E+03  3.51299E+03  3.23728E+03  5.99562E+03  2.16991E+03  2.03549E+03
  1.78817E+03  1.54423E+03  4.04822E+03  1.03188E+03  6.53950E+03  7.50060E+03  3.02719E+03  9.05253E+03
 -4.12406E+03  1.48904E+04 -1.42472E+04  1.46664E+04 -1.86881E+04  6.06629E+03 -2.01454E+04 -9.78481E+03
 -9.43592E+03 -1.96772E+04  3.12341E+03 -2.08685E+04  1.06852E+04 -1.59802E+04  1.48031E+04 -3.70365E+03
  1.07189E+04  6.14796E+03  3.40039E+03  1.10149E+04 -6.07650E+03  8.19635E+03 -7.25947E+03 -3.25237E+03
 -4.64080E+03 -8.55971E+03  4.94059E+03 -7.12586E+03  7.24932E+03 -4.02045E+03  5.78263E+03  3.36969E+03
  4.08172E+03  4.58464E+03  2.30456E+03  2.74528E+03 -2.19375E+03  1.19599E+03  2.68038E+03 -3.31388E+02
  4.14814E+03 -5.62305E+02  6.94046E+03  2.35694E+03  6.05194E+03  1.15528E+04 -1.85437E+03  1.43374E+04
 -8.05533E+03  1.01504E+04 -1.09423E+04  1.86789E+03 -1.04106E+04 -4.63003E+03 -3.76788E+03 -6.95002E+03
  8.12600E+02 -8.29037E+03  6.90403E+03 -4.07371E+03  6.01852E+03  4.87485E+03 -2.34015E+03  7.43025E+03
 -6.27724E+03  3.78350E+03 -9.41578E+03 -2.57630E+03 -4.36379E+03 -9.48084E+03  2.34325E+02 -1.01971E+04
  5.83522E+03 -8.64210E+03  7.02476E+03 -7.46661E+02  6.42686E+03  3.44736E+03  3.69097E+00  7.20090E+03
 -4.89723E+03  2.99060E+03 -4.76090E+03 -4.30418E+03  3.39120E+03 -9.04590E+03  9.54570E+03 -7.60446E+03
  1.22834E+04  2.34658E+02  1.27363E+04  9.91506E+03  3.52638E+03  1.49043E+04 -4.49493E+03  1.05221E+04
 -1.03183E+04  6.15178E+03 -1.03291E+04 -5.90965E+02 -6.86782E+03 -7.57356E+03  1.21758E+03 -8.46533E+03
  7.40832E+03 -4.03209E+03  8.83863E+03  3.16858E+03  3.08088E+03  5.03223E+03 -1.40003E+03  7.16469E+03
 -2.00492E+03  3.43721E+03 -3.15098E+03  5.38550E+02 -2.37625E+03  1.27097E+03 -2.62288E+03  1.53970E+03
 -2.75514E+03  4.56225E+03 -9.18972E+03  5.42254E+03 -1.16341E+04 -5.98504E+02 -1.47252E+04 -9.59044E+03
 -7.37197E+03 -1.76085E+04  2.97563E+03 -1.91904E+04  1.24521E+04 -1.36433E+04  1.91127E+04 -4.96920E+03
  1.87696E+04  4.22239E+03  1.22476E+04  1.24866E+04  8.47306E+02  1.38910E+04 -6.56933E+03  1.03733E+04
 -8.71516E+03 -1.94953E+02 -7.25910E+03 -1.61211E+03 -1.90798E+03 -1.78299E+03 -4.59622E+02 -2.89311E+03
 -6.76736E+02  2.40862E+03 -3.06561E+03 -5.24275E+02 -1.33633E+03 -3.24568E+03  8.01725E+02 -2.56277E+03
  7.17420E+03 -4.98383E+03  8.28765E+03  1.03323E+03  1.10060E+04  7.45508E+03  2.33574E+03  1.32324E+04
 -7.07966E+03  1.46540E+04 -1.39426E+04  9.08911E+03 -1.79845E+04 -1.46551E+03 -1.24940E+04 -9.92142E+03
 -4.62378E+03 -1.63302E+04  3.45963E+03 -1.47256E+04  9.29814E+03 -7.19343E+03  8.95991E+03  1.57885E+03
  6.13636E+03  3.93058E+03 -2.73915E+02  4.32909E+03 -2.89523E+03 -4.18455E+02 -2.35552E+03 -4.37074E+03
  4.87369E+03 -2.58401E+03  5.56502E+03  3.19148E+03  3.68668E+03  7.96888E+03  1.28009E+02  8.46320E+03
 -7.22008E+03  7.79197E+03 -9.24010E+03  1.51168E+02 -7.13991E+03 -4.93965E+03 -1.67064E+03 -1.24964E+04
  6.28686E+03 -9.85060E+03  1.03624E+04 -3.53685E+03  1.12310E+04  2.84054E+03  6.11603E+03  7.87464E+03
  1.96283E+03  9.93369E+03 -2.05576E+03  7.92241E+03 -5.86335E+03  4.12281E+03 -3.97569E+03 -3.04118E+02
 -6.82405E+02 -1.60634E+03 -2.31120E+03  2.23384E+03 -4.10323E+03  8.21168E+02 -7.48580E+03 -2.68225E+03
 -7.47287E+03 -4.85662E+03 -4.80469E+02 -1.08132E+04  5.20953E+03 -8.45562E+03  8.50229E+03 -4.66786E+03
  1.03921E+04 -3.48588E+02  7.50739E+03  7.69808E+03 -1.91555E+03  9.83219E+03 -8.98032E+03  5.83304E+03
