 $NMID ID='MM_0lb_SNR200_12hz_g55_95.RAW', FMTDAT='(8E13.5)'
 TRAMP=1., VOLUME=1. $END
  3.10358E+05  1.43946E+03  3.37731E+05  2.50629E+05  8.45628E+04  3.37234E+05 -1.32664E+05  2.50962E+05
 -1.89500E+05  8.41332E+04 -1.12054E+05 -3.17947E+04  1.71778E+03 -4.97375E+04  5.31453E+04  2.14202E+02
  3.64106E+04  5.18526E+04 -1.77680E+04  7.55316E+04 -6.16883E+04  6.43354E+04 -8.50572E+04  3.27143E+04
 -8.14728E+04 -1.19782E+04 -5.81098E+04 -5.21603E+04 -1.49228E+04 -7.04108E+04  2.77764E+04 -4.74788E+04
  4.07260E+04  2.64799E+03  1.68009E+04  4.86231E+04 -3.42112E+04  4.65047E+04 -6.69920E+04  9.60699E+01
 -5.46480E+04 -5.73244E+04 -8.48248E+03 -7.93558E+04  3.34609E+04 -5.57058E+04  4.86331E+04 -1.76391E+04
  4.42566E+04  1.12858E+04  3.39879E+04  2.60959E+04  1.68242E+04  3.06854E+04 -4.11802E+03  2.73818E+04
 -2.33301E+04  1.28606E+04 -1.92180E+04 -5.90152E+03  5.95173E+03 -7.71273E+03  2.46182E+04  1.31706E+04
  7.81038E+03  3.72067E+04 -3.41151E+04  3.69237E+04 -6.47779E+04  1.52905E+03 -5.82307E+04 -4.35969E+04
 -1.29838E+04 -6.35501E+04  4.11625E+04 -4.58383E+04  6.06044E+04 -2.55027E+03  3.55503E+04  3.22930E+04
 -6.18105E+03  3.79470E+04 -3.06765E+04  1.63934E+04 -3.21958E+04 -3.11103E+03 -1.79871E+04 -1.15587E+04
 -9.37817E+03 -1.50048E+04 -1.14808E+03 -1.63346E+04  9.45041E+03 -2.39440E+04  1.54796E+04 -1.37882E+04
  1.15054E+04  6.03639E+03 -8.75048E+03  1.29049E+04 -2.32477E+04 -5.36273E+03 -9.01764E+03 -3.70183E+04
  2.40121E+04 -4.55104E+04  4.92258E+04 -2.02784E+04  4.72489E+04  2.17693E+04  1.62850E+04  4.56953E+04
 -1.45270E+04  3.57029E+04 -2.68177E+04  4.62751E+03 -1.17505E+04 -2.83398E+04  2.10599E+04 -3.54433E+04
  4.33308E+04 -9.28637E+03  3.90362E+04  2.33370E+04  1.95666E+04  4.89002E+04 -8.13671E+03  5.39171E+04
 -3.35421E+04  3.65932E+04 -4.52405E+04  1.05831E+04 -4.52757E+04 -1.76632E+04 -2.64856E+04 -3.97147E+04
  8.38661E+03 -4.03202E+04  3.20051E+04 -1.54324E+04  3.16246E+04  1.20776E+04  3.83074E+03  2.00302E+04
 -1.37796E+04  8.74924E+03 -1.10680E+04 -8.62349E+03  5.75314E+03 -1.16539E+04  1.87082E+04  5.57435E+03
  1.40387E+04  2.31799E+04 -4.64796E+03  2.56992E+04 -2.35868E+04  1.32300E+04 -2.94747E+04 -4.70838E+03
 -2.17359E+04 -1.90437E+04 -1.04684E+04 -2.18253E+04  4.96769E+03 -2.27470E+04  1.80372E+04 -2.08192E+04
  2.88206E+04 -1.23947E+04  3.63949E+04  3.73017E+03  2.56332E+04  2.16961E+04  4.76519E+03  3.87402E+04
 -2.02272E+04  3.22337E+04 -2.95845E+04  1.27095E+04 -2.20553E+04 -1.04378E+04 -4.34763E+03 -1.30282E+04
  4.56769E+02 -2.53452E+03 -4.24720E+03  7.49558E+03 -1.86052E+04  4.04807E+03 -1.86634E+04 -7.88412E+03
 -1.16247E+04 -2.15138E+04  5.12308E+03 -2.56240E+04  1.73760E+04 -1.84328E+04  2.20210E+04 -2.28339E+03
  1.33572E+04  1.42252E+04 -1.62460E+03  2.28597E+04 -1.37736E+04  1.13510E+04 -2.14445E+04 -5.02507E+03
 -1.65660E+04 -1.85493E+04 -2.17735E+03 -2.64255E+04  9.40413E+03 -2.13780E+04  2.06760E+04 -1.08790E+04
  2.14417E+04 -4.32197E+01  1.45440E+04  3.65048E+03  8.23094E+03  8.36885E+02  1.08837E+04 -1.87940E+03
  1.94610E+04  3.24002E+03  2.23441E+04  1.59018E+04  1.44897E+04  3.35653E+04 -2.63173E+03  3.83232E+04
 -2.17424E+04  3.13211E+04 -3.79893E+04  1.59176E+04 -3.79818E+04 -2.87569E+03 -3.03037E+04 -2.21563E+04
 -1.26258E+04 -3.18477E+04  1.17322E+04 -2.86554E+04  2.42963E+04 -1.28080E+04  2.17045E+04  5.91271E+03
  8.41057E+03  1.63877E+04 -1.19693E+04  1.29655E+04 -1.84506E+04  1.57943E+03 -1.26564E+04 -1.16194E+04
 -1.66534E+03 -1.62680E+04  9.18918E+03 -1.28330E+04  1.18063E+04 -1.34243E+03  2.53146E+03  6.61836E+03
 -7.44678E+03  3.77825E+03 -8.14874E+03 -5.45421E+03 -5.47070E+02 -1.50439E+04  1.04555E+04 -1.67395E+04
  1.94196E+04 -1.08161E+04  2.07989E+04  2.95838E+03  1.84342E+04  1.55712E+04  9.93353E+03  2.42765E+04
 -5.53137E+03  2.47007E+04 -1.72665E+04  1.70188E+04 -2.01590E+04  4.46230E+03 -1.29709E+04 -4.46642E+03
 -6.13636E+03 -5.62195E+03 -1.66258E+03  1.32998E+03 -3.00170E+03  3.16759E+03 -6.60505E+03  5.90607E+03
 -1.16712E+04  3.28495E+02 -1.31695E+04 -1.09013E+04 -5.62386E+03 -1.75843E+04  5.24200E+03 -1.38473E+04
  1.14921E+04 -5.09741E+03  6.86394E+03  2.11250E+03 -9.07905E+02  5.96387E+03 -6.95528E+03  1.49566E+02
 -6.53908E+03 -8.67528E+03 -1.45984E+03 -1.34243E+04  7.03892E+03 -1.38733E+04  1.68466E+04 -5.40420E+03
  2.09968E+04  1.93457E+03  1.46459E+04  1.24051E+04  3.01932E+03  1.56628E+04 -7.36458E+03  1.26982E+04
 -1.11879E+04  3.32682E+03 -6.80386E+03 -9.10347E+02  1.73611E+03 -3.00636E+03  6.61442E+03 -1.31527E+03
  6.47650E+03  5.77347E+03  7.40959E+02  9.71999E+03 -8.10157E+03  1.05962E+04 -1.31042E+04  1.78522E+03
 -7.82530E+03 -6.34417E+03 -4.81128E+02 -1.15326E+04  7.22282E+03 -4.45629E+03  8.32883E+03  1.39689E+03
  7.05915E+02  8.54720E+03 -5.60198E+03  1.02775E+04 -1.05382E+04  3.98135E+03 -9.94502E+03 -5.09796E+03
 -5.86680E+03 -1.22137E+04  2.90409E+03 -1.59743E+04  1.39159E+04 -8.53964E+03  1.34201E+04  1.54646E+03
  8.54109E+03  1.19972E+04 -1.89549E+03  1.38371E+04 -9.83631E+03  7.96466E+03 -9.67239E+03 -2.26909E+03
 -8.11856E+03 -8.32818E+03 -2.25196E+03 -1.07223E+04  5.38041E+03 -9.47735E+03  4.87997E+03 -2.48442E+03
  5.89497E+03  4.88419E+02  3.03441E+02  1.37541E+03 -1.53283E+03 -2.79992E+03  1.03946E+03 -4.38565E+03
  1.01545E+04 -2.95366E+03  1.10339E+04  1.60168E+03  1.24486E+04  7.82758E+03  8.92345E+03  1.73028E+04
 -4.28160E+03  1.84984E+04 -1.50863E+04  1.35707E+04 -2.02588E+04  3.39637E+03 -1.63046E+04 -7.08736E+03
 -7.75534E+03 -1.35159E+04 -6.99597E+02 -1.12400E+04  5.24015E+03 -6.40698E+03  3.32250E+03 -5.41755E+03
  2.99015E+03 -2.79758E+03  2.40761E+03 -1.91762E+03  5.17179E+03 -3.10392E+03  5.96646E+03 -9.04295E+02
  8.12116E+03  2.16456E+03  3.87818E+03  6.61238E+03 -1.90402E+03  8.46398E+03 -8.96354E+03  4.77446E+03
 -1.20043E+04  9.69808E+01 -7.48107E+03 -7.76627E+03  2.36612E+02 -1.08335E+04  6.45689E+03 -1.10979E+04
  1.11684E+04 -7.13362E+03  1.48200E+04  2.86793E+03  1.04038E+04  1.00852E+04  2.41858E+03  1.38173E+04
 -4.43882E+03  1.17128E+04 -7.19165E+03  3.84225E+03 -4.54720E+03 -1.15348E+03 -1.70999E+03 -2.71778E+03
 -2.09828E+03 -1.50728E+03 -1.37930E+03  3.36841E+03 -6.19323E+03  3.09786E+03 -7.43825E+03 -6.64567E+02
 -4.88428E+03 -8.37727E+03  1.30790E+03 -1.10077E+04  6.92592E+03 -1.06331E+04  1.02642E+04 -2.59559E+03
  1.09293E+04  6.58183E+03  5.05913E+03  8.50983E+03 -2.50895E+03  9.95932E+03 -8.24145E+03  6.92254E+03
 -8.91037E+03  1.52026E+03 -9.47510E+03 -5.91185E+03 -2.70367E+03 -8.54992E+03  4.74079E+03 -6.36756E+03
  7.04305E+03 -2.52058E+03  4.22132E+03  1.50103E+03  2.71597E+03  2.50397E+03  1.05436E+03  1.07582E+03
  2.79894E+03  1.31315E+03  3.35937E+03  2.12203E+03  2.08286E+03  4.01815E+03  3.00656E+03  5.23129E+03
 -1.51247E+03  9.13960E+03 -7.79475E+03  9.33588E+03 -1.07115E+04  2.01077E+03 -1.08144E+04 -3.92037E+03
 -4.46906E+03 -9.86069E+03  2.01186E+03 -1.12339E+04  6.14726E+03 -7.36776E+03  8.42385E+03 -1.29361E+03
  7.43665E+03  4.39324E+03  2.42564E+03  4.84565E+03 -1.99149E+03  3.57699E+03 -4.70122E+03 -2.21295E+03
 -1.40034E+03 -4.52322E+03  4.05610E+03 -6.01193E+03  3.81073E+03 -3.25842E+03  4.06102E+03  1.33777E+03
  2.76851E+03  2.51650E+03  8.46454E+02  2.56561E+03 -4.51617E+02  7.62604E+02  1.21899E+03  2.14740E+02
  1.22766E+03 -1.02894E+03  4.99215E+03  1.34310E+03  2.64670E+03  4.58360E+03 -5.26007E+02  6.99468E+03
 -4.61068E+03  6.00574E+03 -6.78190E+03  6.70303E+02 -6.69408E+03 -2.94634E+03 -6.86501E+02 -2.61277E+03
  9.26377E+02 -2.76956E+03  2.49650E+03 -2.91630E+03  2.94168E+03  2.91203E+03 -1.79843E+03  4.15087E+03
 -3.60203E+03  2.47853E+03 -5.21887E+03 -2.18852E+03 -1.92791E+03 -4.34559E+03  8.28985E+02 -5.60744E+03
  2.96167E+03 -2.47779E+03  4.86748E+03 -1.12513E+03  3.16955E+03  1.81053E+03  4.52364E+02  2.01305E+03
 -1.43741E+03  1.20122E+03 -1.05487E+03 -2.99511E+03  9.20172E+02 -3.76460E+03  4.75440E+03 -3.41106E+03
  4.70027E+03  2.34632E+02  6.34009E+03  4.44667E+03  2.05275E+03  6.77297E+03 -3.10541E+03  6.11108E+03
 -3.83019E+03  1.99279E+03 -6.03746E+03 -1.30541E+03 -3.06063E+03 -3.88881E+03  1.79985E+03 -3.52363E+03
  3.64600E+03 -3.00972E+03  3.86734E+03  1.71697E+03  4.75483E+02  3.94304E+03 -1.61889E+03  1.84981E+03
  1.72898E+02  1.16255E+03  3.34705E+02 -2.95497E+02 -1.43771E+03  1.56890E+03 -2.00804E+03  4.76898E+02
 -2.56286E+03  3.08314E+03 -4.46388E+03  2.64029E+03 -7.04654E+03  3.73046E+01 -8.39678E+03 -3.01086E+03
 -2.70908E+03 -7.97148E+03  2.49894E+03 -8.31611E+03  6.14431E+03 -9.51724E+03  9.03880E+03 -5.17970E+03
  9.35440E+03  1.15068E+03  5.17439E+03  5.97703E+03 -3.97723E+02  6.40509E+03 -2.59273E+03  4.23327E+03
 -3.64020E+03 -1.77169E+02 -2.69097E+03 -2.22408E+03  7.10029E+01 -9.46191E+02 -1.02907E+03 -2.38448E+02
 -1.38793E+03  3.36999E+02 -1.36344E+03 -2.10738E+02  1.26294E+03 -9.67246E+01 -2.86559E+02 -1.96603E+03
  3.25630E+03 -1.91644E+03  3.32163E+03  3.56805E+02  4.19865E+03  4.35382E+03  5.53837E+02  6.24181E+03
 -3.04044E+03  7.88204E+03 -7.32932E+03  4.41475E+03 -6.61088E+03 -3.87328E+02 -4.78493E+03 -5.31255E+03
 -2.87157E+03 -6.63835E+03  1.64743E+03 -5.38086E+03  2.87181E+03 -3.14653E+03  3.37444E+03  1.44205E+03
  2.34384E+03  9.76249E+02  4.00232E+01  1.14699E+03 -1.16337E+03 -1.04348E+03  9.19093E+02 -5.35775E+02
  7.01768E+02 -5.17139E+02  2.93479E+03  1.97464E+03  2.33060E+03  2.26574E+03 -5.16982E+01  3.40763E+03
 -2.56383E+03  2.10991E+03 -4.04595E+03 -4.83039E+01 -4.22142E+03 -4.11110E+03 -5.52831E+02 -4.69620E+03
  2.69524E+03 -4.47894E+03  5.20383E+03 -1.00125E+03  4.83035E+03  1.28258E+03  9.16093E+02  2.13580E+03
  1.08165E+03  3.21267E+03 -1.73415E+03  1.78793E+03 -1.57285E+03  1.56778E+03 -1.27352E+03  5.32584E+02
 -1.19961E+03 -1.32344E+02 -1.11912E+03  1.24877E+03 -2.97628E+03  9.24521E+02 -4.11050E+03 -3.05818E+02
 -1.29885E+03 -1.12505E+03 -1.50081E+03 -3.61501E+03  3.05849E+03 -4.59387E+03  4.15228E+03 -1.55008E+03
  4.22617E+03  1.43869E+03  1.44586E+03  1.84751E+03  2.57463E+02  2.67774E+03 -2.71672E+03  1.95586E+03
