 $NMID ID='MM_0lb_SNR200_9hz_g45_87.RAW', FMTDAT='(8E13.5)'
 TRAMP=1., VOLUME=1. $END
  3.12107E+05 -2.03855E+03  3.38113E+05  2.50972E+05  8.44734E+04  3.37496E+05 -1.32146E+05  2.51374E+05
 -1.90546E+05  8.37017E+04 -1.12494E+05 -3.35669E+04  6.30945E+02 -5.19106E+04  5.52188E+04 -6.63637E+01
  3.44156E+04  5.43045E+04 -1.72812E+04  7.43279E+04 -6.05749E+04  6.42991E+04 -8.55333E+04  3.20292E+04
 -8.14368E+04 -1.09606E+04 -5.74449E+04 -5.09834E+04 -1.57057E+04 -7.21558E+04  2.65796E+04 -4.59285E+04
  4.07355E+04  3.96632E+03  1.54781E+04  4.79104E+04 -3.49284E+04  4.70135E+04 -6.73444E+04 -5.74054E+02
 -5.44759E+04 -5.88303E+04 -8.48731E+03 -7.87504E+04  3.46114E+04 -5.66885E+04  4.90978E+04 -1.90783E+04
  4.44545E+04  1.08138E+04  3.42982E+04  2.70944E+04  1.51577E+04  3.04057E+04 -5.36080E+03  2.67255E+04
 -2.29315E+04  1.30137E+04 -1.82833E+04 -6.91607E+03  8.11761E+03 -6.93785E+03  2.24864E+04  1.40678E+04
  9.22850E+03  3.77658E+04 -3.32069E+04  3.53137E+04 -6.57077E+04  8.41932E+02 -5.89319E+04 -4.44457E+04
 -1.20707E+04 -6.80481E+04  4.03993E+04 -4.75087E+04  6.21998E+04 -4.05135E+03  3.57113E+04  3.41907E+04
 -5.81017E+03  3.97446E+04 -3.20660E+04  1.81098E+04 -3.21105E+04 -3.93099E+03 -1.84255E+04 -1.24246E+04
 -1.01279E+04 -1.57613E+04 -1.27012E+03 -1.96947E+04  8.90772E+03 -2.28887E+04  1.71216E+04 -1.13932E+04
  1.11608E+04  5.73420E+03 -1.13823E+04  1.24036E+04 -2.43415E+04 -6.40550E+03 -9.15030E+03 -3.70165E+04
  2.59066E+04 -4.79261E+04  5.16902E+04 -2.13138E+04  4.79391E+04  1.96368E+04  1.68479E+04  4.66564E+04
 -1.86475E+04  3.55395E+04 -2.76089E+04  3.32519E+03 -9.96653E+03 -2.96994E+04  2.04450E+04 -3.48999E+04
  4.27973E+04 -1.05923E+04  4.05502E+04  2.50008E+04  2.17302E+04  5.19908E+04 -8.98869E+03  5.54334E+04
 -3.50030E+04  3.86713E+04 -4.63798E+04  1.02150E+04 -4.60938E+04 -1.88740E+04 -2.52738E+04 -4.14267E+04
  8.22097E+03 -4.31420E+04  3.44160E+04 -1.60593E+04  3.25668E+04  1.05945E+04  5.10396E+03  2.12192E+04
 -1.36012E+04  9.56733E+03 -9.78284E+03 -7.53637E+03  5.22029E+03 -1.20965E+04  1.86569E+04  5.35499E+03
  1.50641E+04  2.26171E+04 -5.07871E+03  2.63153E+04 -2.19033E+04  1.40640E+04 -3.12983E+04 -3.11942E+03
 -2.54121E+04 -2.08115E+04 -1.14206E+04 -2.46660E+04  4.82257E+03 -2.60958E+04  1.84839E+04 -2.10581E+04
  3.26131E+04 -1.27656E+04  3.62132E+04  5.39477E+03  2.74817E+04  2.50658E+04  3.36933E+03  3.96528E+04
 -1.83671E+04  3.33652E+04 -3.10514E+04  1.27219E+04 -2.14380E+04 -9.99803E+03 -5.17020E+03 -1.23910E+04
 -1.19766E+02 -1.11732E+03 -8.15583E+03  8.67851E+03 -1.90953E+04  5.08137E+03 -2.01263E+04 -9.39070E+03
 -1.21494E+04 -2.17556E+04  5.73943E+03 -2.77230E+04  1.90621E+04 -1.87370E+04  2.21771E+04 -1.31296E+03
  1.41294E+04  1.57857E+04 -1.94277E+03  2.29517E+04 -1.77383E+04  1.30263E+04 -2.38052E+04 -6.13493E+03
 -1.66403E+04 -1.98132E+04 -8.28841E+02 -2.67748E+04  1.08867E+04 -2.29753E+04  2.30222E+04 -1.33845E+04
  2.33057E+04 -1.31567E+03  1.64586E+04  6.55472E+03  7.42994E+03  1.24158E+03  1.25309E+04 -2.12186E+03
  2.12705E+04  3.42819E+03  2.34764E+04  1.71685E+04  1.64804E+04  3.69863E+04 -1.79838E+03  4.42840E+04
 -2.60623E+04  3.73536E+04 -4.06058E+04  1.95315E+04 -4.51895E+04 -2.04189E+03 -3.67694E+04 -2.67111E+04
 -1.31524E+04 -3.58147E+04  1.32458E+04 -3.15719E+04  2.58481E+04 -1.59586E+04  2.42325E+04  8.33902E+03
  9.25192E+03  1.77839E+04 -1.11337E+04  1.41743E+04 -1.90074E+04  1.72117E+03 -1.51142E+04 -1.21394E+04
 -4.95671E+02 -2.01248E+04  9.74812E+03 -1.38694E+04  1.31755E+04 -1.90055E+03  5.28895E+03  8.84483E+03
 -8.26536E+03  3.56061E+03 -9.98870E+03 -5.50592E+03 -1.61133E+03 -1.69162E+04  1.11178E+04 -1.93596E+04
  2.31456E+04 -1.18787E+04  2.48240E+04  2.41177E+03  2.24703E+04  1.68397E+04  1.05974E+04  2.76477E+04
 -5.32097E+03  3.17752E+04 -2.04501E+04  1.81661E+04 -2.28721E+04  4.74469E+03 -1.65021E+04 -6.39689E+03
 -6.67350E+03 -9.62726E+03 -6.24680E+02 -3.25126E+02 -3.27336E+03  5.15097E+03 -7.12579E+03  5.94499E+03
 -1.51891E+04 -9.21419E+02 -1.37649E+04 -1.17350E+04 -5.04614E+03 -2.00284E+04  5.55079E+03 -1.50661E+04
  1.42490E+04 -4.49202E+03  7.92986E+03  4.66740E+03 -7.86535E+02  5.07579E+03 -6.82827E+03 -8.00294E+02
 -7.86874E+03 -1.02722E+04 -6.36967E+02 -1.37771E+04  8.41970E+03 -1.57414E+04  1.87371E+04 -6.74700E+03
  2.18036E+04  2.02858E+03  1.74705E+04  1.47575E+04  4.21964E+03  1.91492E+04 -9.35481E+03  1.44201E+04
 -1.33347E+04  4.86006E+03 -7.15549E+03 -3.03752E+03  3.16701E+03 -4.47177E+03  7.31995E+03 -1.68809E+03
  6.62853E+03  7.31618E+03  9.32435E+02  1.16353E+04 -9.42541E+03  1.22574E+04 -1.31401E+04  2.80641E+03
 -9.61528E+03 -8.87889E+03 -5.47068E+02 -1.41932E+04  8.95917E+03 -7.91281E+03  1.14264E+04  4.91609E+03
  1.82628E+03  8.43085E+03 -7.59112E+03  1.20731E+04 -1.17804E+04  5.88044E+03 -1.29978E+04 -6.13939E+03
 -7.12549E+03 -1.59233E+04  3.01304E+03 -1.80689E+04  1.52271E+04 -1.14590E+04  1.55586E+04  2.31419E+03
  9.94093E+03  1.31425E+04 -2.34061E+03  1.51268E+04 -1.02552E+04  9.27509E+03 -1.36642E+04 -2.19650E+03
 -1.05861E+04 -1.00965E+04 -1.97915E+03 -1.19440E+04  5.50616E+03 -9.66674E+03  8.23433E+03 -2.73399E+03
  3.91698E+03  2.24278E+03 -1.08767E+02  2.17033E+03 -2.08807E+02 -5.00511E+03  1.31686E+03 -6.85363E+03
  1.16850E+04 -4.80295E+03  1.48584E+04  2.77523E+03  1.45818E+04  1.01289E+04  1.00132E+04  2.13689E+04
 -5.49728E+03  2.28812E+04 -2.04634E+04  1.72430E+04 -2.45676E+04  3.74359E+03 -1.93658E+04 -8.10900E+03
 -8.71708E+03 -1.56108E+04 -7.84754E+02 -1.57805E+04  4.94108E+03 -7.62606E+03  5.94583E+03 -5.31074E+03
  3.44201E+03 -2.81737E+03  4.69458E+03 -4.79814E+03  4.92482E+03 -3.29271E+03  8.82734E+03 -2.27845E+03
  9.74338E+03  2.61079E+03  7.01493E+03  8.08207E+03 -9.58874E+02  1.14130E+04 -1.23501E+04  6.84861E+03
 -1.55499E+04 -1.24441E+03 -8.73098E+03 -8.70322E+03 -2.46322E+03 -1.65642E+04  8.79639E+03 -1.58016E+04
  1.43689E+04 -8.02366E+03  1.96286E+04  2.55027E+03  1.41219E+04  1.32683E+04  1.23335E+03  1.46009E+04
 -7.05392E+03  1.35403E+04 -9.52183E+03  4.52197E+03 -6.51384E+03 -3.15782E+03 -3.10344E+03 -2.53260E+03
 -1.90757E+03  1.15833E+02 -1.23746E+03  2.93998E+03 -5.43530E+03  2.41238E+03 -1.10213E+04 -2.11794E+03
 -7.62122E+03 -8.27441E+03  1.43581E+03 -1.39246E+04  1.03200E+04 -1.40715E+04  1.54078E+04 -3.78919E+03
  1.30332E+04  7.57359E+03  7.89900E+03  1.15210E+04 -1.43747E+03  1.43836E+04 -1.03888E+04  9.86685E+03
 -1.39160E+04  7.33019E+02 -1.11421E+04 -7.24850E+03 -1.54126E+02 -1.24601E+04  7.89238E+03 -9.41157E+03
  8.82016E+03 -1.52018E+03  5.48591E+03  3.16302E+03  2.24187E+03  3.92755E+03  1.35314E+03  2.12987E+03
  2.89910E+03  8.94522E+02  3.65952E+03  1.05475E+03  2.83980E+03  4.95264E+03  2.73453E+03  7.68226E+03
 -3.14187E+03  1.18393E+04 -9.35877E+03  1.23088E+04 -1.56414E+04  1.47386E+03 -1.43777E+04 -6.63681E+03
 -7.82065E+03 -1.33257E+04  2.21933E+03 -1.62907E+04  8.38608E+03 -1.13302E+04  1.18129E+04 -2.07100E+03
  8.97134E+03  4.72995E+03  1.62625E+03  7.75886E+03 -2.85898E+03  4.84910E+03 -8.03141E+03 -1.17806E+03
 -1.84640E+03 -6.08612E+03  3.28433E+03 -7.22474E+03  5.71172E+03 -2.71603E+03  6.34406E+03  1.98756E+03
  4.06730E+03  7.43338E+02  7.01757E+02  3.40909E+03 -5.58739E+02  3.26013E+03  1.57822E+03  3.99421E+02
  1.44378E+03 -7.64880E+02  8.58692E+03  2.15006E+03  4.19213E+03  7.93359E+03 -3.08982E+02  9.51645E+03
 -7.27119E+03  6.08854E+03 -8.54208E+03  2.89785E+03 -6.74340E+03 -1.94551E+03 -2.22999E+03 -5.61027E+03
 -3.53429E+02 -6.19407E+03  3.58665E+03 -2.23366E+03  1.28773E+03  2.82023E+03 -1.61865E+03  5.52926E+03
 -7.62147E+03  1.66868E+03 -7.22525E+03 -4.86408E+03 -4.92294E+03 -6.84074E+03  2.64500E+03 -5.83348E+03
  3.14543E+03 -5.32369E+03  5.80989E+03  6.64675E+02  4.88314E+03  2.51577E+03  1.33961E+02  5.67700E+03
 -2.39668E+03 -1.79958E+02 -4.19950E+03 -1.52529E+03  1.51578E+03 -7.18996E+03  7.73137E+03 -5.82725E+03
  9.89519E+03 -2.40429E+02  7.96745E+03  5.73908E+03  4.58110E+03  9.26178E+03 -3.09180E+03  8.60012E+03
 -8.39871E+03  4.37912E+03 -9.32479E+03 -1.02800E+03 -4.75109E+03 -7.30795E+03  6.78136E+02 -6.71278E+03
  7.46195E+03 -3.28151E+03  5.59235E+03  2.29838E+03  1.04656E+03  6.24155E+03 -1.43496E+02  4.95010E+03
 -4.97115E+03  3.22278E+03 -3.32920E+03  9.50947E+02 -2.39853E+02  1.53958E+03 -1.96292E+03  3.64529E+03
 -1.60483E+03  4.20469E+03 -6.14202E+03  4.05261E+03 -9.76369E+03  1.09696E+03 -1.14706E+04 -5.29761E+03
 -5.64152E+03 -1.33211E+04  3.74574E+03 -1.42245E+04  8.52463E+03 -1.02899E+04  1.59871E+04 -5.28935E+03
  1.42044E+04  2.46072E+03  9.00897E+03  9.04970E+03  1.22703E+02  1.02458E+04 -5.05602E+03  7.97895E+03
 -5.17314E+03  2.48383E+03 -3.62426E+03 -5.93791E+02 -3.70547E+02 -6.58406E+02 -1.84036E+02  8.43278E+02
 -9.59586E+02  1.24392E+03 -2.21850E+03 -1.38445E+03  7.70642E+02 -1.32180E+03 -5.95923E+02 -3.09798E+03
  4.83221E+03 -3.20571E+03  7.07175E+03 -1.19462E+03  5.17354E+03  5.57929E+03  3.25774E+03  1.08212E+04
 -5.66213E+03  1.19372E+04 -1.05752E+04  6.72720E+03 -1.17374E+04 -1.55769E+03 -8.68851E+03 -6.29567E+03
 -3.65673E+03 -9.25281E+03  4.27237E+03 -9.24842E+03  5.70667E+03 -3.85354E+03  7.56661E+03  3.08570E+02
  2.88181E+03  1.39837E+03  9.68315E+02  3.70989E+03 -7.32059E+02 -1.95641E+03  4.77537E+02 -2.91246E+03
  3.48056E+03 -1.52815E+03  4.91530E+03  1.93295E+03  2.87549E+03  4.75871E+03 -7.69854E+02  4.97888E+03
 -5.18762E+03  5.40214E+03 -6.45458E+03  1.17713E+03 -9.24754E+03 -4.05267E+03 -1.12523E+03 -7.90383E+03
  4.77663E+03 -5.63563E+03  7.90990E+03 -1.20932E+03  8.95480E+03  2.17872E+03  4.56501E+03  6.43077E+03
  5.31356E+02  7.17679E+03 -2.52717E+03  5.64546E+03 -4.15502E+03  2.39858E+03 -2.97425E+03  8.73990E+02
 -2.29324E+03 -1.89172E+02 -2.44511E+03 -5.11321E+02 -4.49114E+03  1.28421E+03 -5.39213E+03 -1.39008E+03
 -4.80835E+03 -3.16164E+03 -1.57726E+03 -6.52574E+03  3.16149E+03 -6.07294E+03  5.74819E+03 -3.08420E+03
  8.69726E+03  6.38646E+02  3.38536E+03  4.89109E+03  4.63923E+02  7.20240E+03 -6.71331E+03  3.78703E+03
