 $NMID ID='MM_0lb_SNR200_7hz_g55_21.RAW', FMTDAT='(8E13.5)'
 TRAMP=1., VOLUME=1. $END
  3.09650E+05 -7.70746E+01  3.38130E+05  2.49250E+05  8.69076E+04  3.41494E+05 -1.31961E+05  2.53087E+05
 -1.89646E+05  8.47530E+04 -1.12983E+05 -3.30165E+04  1.52514E+03 -4.85726E+04  5.35776E+04 -2.12004E+03
  3.40358E+04  5.32900E+04 -1.54381E+04  7.49800E+04 -6.32857E+04  6.36965E+04 -8.62483E+04  3.17845E+04
 -8.31033E+04 -1.18953E+04 -5.92180E+04 -5.30741E+04 -1.39214E+04 -7.02455E+04  2.77455E+04 -4.80894E+04
  4.21339E+04  4.51015E+03  1.73001E+04  4.84793E+04 -3.59198E+04  4.80704E+04 -6.93559E+04  4.83688E+02
 -5.57617E+04 -5.84974E+04 -5.09524E+03 -7.92231E+04  3.49360E+04 -5.75888E+04  5.10079E+04 -1.98837E+04
  4.45425E+04  1.12274E+04  3.19065E+04  2.66277E+04  1.78839E+04  3.06139E+04 -6.39775E+03  2.82521E+04
 -2.54584E+04  1.01758E+04 -1.81564E+04 -5.26113E+03  8.44324E+03 -6.86251E+03  2.42827E+04  1.37444E+04
  6.75575E+03  3.87851E+04 -3.21435E+04  3.76184E+04 -6.56754E+04  2.60083E+03 -5.95433E+04 -4.39320E+04
 -1.21387E+04 -6.62388E+04  4.29190E+04 -4.96219E+04  6.43034E+04 -2.78533E+03  3.82621E+04  3.55776E+04
 -4.74193E+03  4.01147E+04 -3.26636E+04  2.07841E+04 -3.43536E+04 -1.98538E+03 -2.06370E+04 -1.31976E+04
 -1.00200E+04 -1.61546E+04  2.27250E+02 -2.04339E+04  8.36407E+03 -2.17710E+04  1.60129E+04 -1.13087E+04
  1.11060E+04  6.82429E+03 -1.22688E+04  1.12503E+04 -2.53997E+04 -7.24270E+03 -7.59257E+03 -4.01104E+04
  2.57901E+04 -4.69761E+04  5.28761E+04 -1.90953E+04  5.12287E+04  2.05980E+04  1.87492E+04  4.76847E+04
 -1.72486E+04  3.78882E+04 -2.85092E+04  2.36608E+03 -1.47538E+04 -3.07905E+04  2.16918E+04 -3.80027E+04
  4.60554E+04 -1.22116E+04  4.48596E+04  2.58756E+04  2.20171E+04  5.35741E+04 -7.94412E+03  5.99825E+04
 -3.97431E+04  4.09358E+04 -5.17099E+04  1.38879E+04 -5.07615E+04 -1.92884E+04 -2.70448E+04 -4.39999E+04
  9.08756E+03 -4.37099E+04  3.33031E+04 -1.83316E+04  3.29865E+04  1.14943E+04  6.69615E+03  2.17108E+04
 -1.37168E+04  1.08102E+04 -1.13493E+04 -9.24917E+03  7.41323E+03 -1.14948E+04  1.86486E+04  4.85095E+03
  1.63490E+04  2.32918E+04 -3.46457E+03  2.72469E+04 -2.34994E+04  1.57957E+04 -3.41287E+04 -2.35090E+03
 -2.66451E+04 -1.80439E+04 -1.35845E+04 -2.65542E+04  5.29691E+03 -2.75905E+04  2.15367E+04 -2.68456E+04
  3.38402E+04 -1.40266E+04  3.96210E+04  7.47601E+03  2.85085E+04  2.65490E+04  6.32744E+03  4.18760E+04
 -2.10368E+04  3.56143E+04 -3.03761E+04  1.29905E+04 -2.47232E+04 -1.01548E+04 -6.37101E+03 -1.24842E+04
  4.52656E+02  7.30439E+01 -8.90473E+03  8.60657E+03 -2.23906E+04  5.26087E+03 -2.23802E+04 -9.91404E+03
 -1.25811E+04 -2.74338E+04  6.45682E+03 -3.01620E+04  2.11818E+04 -1.98903E+04  2.55843E+04 -1.77042E+03
  1.52873E+04  1.92577E+04 -1.52589E+03  2.55719E+04 -1.97138E+04  1.44337E+04 -2.65789E+04 -6.07783E+03
 -1.88404E+04 -2.44864E+04 -3.55377E+03 -3.11847E+04  1.39349E+04 -2.45599E+04  2.40693E+04 -1.35028E+04
  2.39841E+04 -1.20926E+03  1.48620E+04  7.67413E+03  1.02582E+04  2.02650E+03  1.20633E+04 -2.31191E+03
  2.42251E+04  3.55892E+03  2.77061E+04  1.80019E+04  2.14536E+04  4.15626E+04 -2.96987E+03  5.02650E+04
 -2.76221E+04  4.27731E+04 -4.83658E+04  2.03488E+04 -5.03511E+04 -3.59757E+03 -4.22688E+04 -2.99105E+04
 -1.69425E+04 -4.22578E+04  1.52733E+04 -3.73885E+04  3.31403E+04 -1.57464E+04  2.71925E+04  1.03662E+04
  7.44840E+03  2.14246E+04 -1.11925E+04  1.72038E+04 -2.28908E+04  2.14295E+03 -1.72051E+04 -1.49137E+04
  3.09576E+02 -2.14738E+04  1.06885E+04 -1.44319E+04  1.44243E+04 -1.57510E+03  4.56153E+03  1.26177E+04
 -1.11936E+04  5.65523E+03 -1.20216E+04 -9.11733E+03 -1.93256E+03 -2.20576E+04  1.26917E+04 -2.23019E+04
  2.65089E+04 -1.38711E+04  3.22548E+04  4.21441E+03  2.53356E+04  2.02017E+04  1.18884E+04  3.42603E+04
 -6.92769E+03  3.56087E+04 -2.38465E+04  2.16784E+04 -2.55835E+04  4.07918E+03 -1.83136E+04 -7.64761E+03
 -6.43123E+03 -7.79980E+03 -1.16050E+03  1.58484E+03 -3.60503E+03  5.62717E+03 -1.00133E+04  7.12189E+03
 -1.67775E+04 -7.09375E+02 -1.74476E+04 -1.35395E+04 -5.39994E+03 -2.06093E+04  8.42869E+03 -1.62605E+04
  1.38254E+04 -6.58861E+03  1.09910E+04  5.39514E+03  2.80495E+02  6.12749E+03 -9.46169E+03 -2.16778E+03
 -8.58856E+03 -1.07979E+04 -1.23925E+03 -1.99045E+04  1.16810E+04 -2.04587E+04  2.32218E+04 -1.20945E+04
  2.75235E+04  5.60905E+02  2.04818E+04  1.64886E+04  4.49073E+03  2.21549E+04 -1.18511E+04  1.71219E+04
 -1.62330E+04  3.34306E+03 -7.72254E+03 -2.90100E+03  2.78601E+03 -5.46453E+03  9.38130E+03 -3.76981E+02
  8.97572E+03  7.00544E+03  1.19970E+03  1.46210E+04 -9.85193E+03  1.38382E+04 -1.89055E+04  4.62849E+03
 -1.32743E+04 -9.00289E+03 -6.16980E+01 -1.60511E+04  1.02110E+04 -1.03615E+04  1.07702E+04  5.60047E+03
  4.23583E+03  1.48462E+04 -1.03093E+04  1.51826E+04 -1.61216E+04  6.70010E+03 -1.66248E+04 -6.62453E+03
 -1.19552E+04 -1.77103E+04  5.25239E+03 -2.16005E+04  1.88597E+04 -1.39136E+04  1.90000E+04  3.20227E+03
  1.19603E+04  1.46650E+04 -1.66508E+03  2.08651E+04 -1.36352E+04  1.13552E+04 -1.54738E+04  1.10105E+03
 -1.20960E+04 -1.27665E+04 -1.46990E+03 -1.64276E+04  6.00218E+03 -1.21634E+04  7.61255E+03 -3.35903E+03
  5.70610E+03  2.72884E+03 -1.75452E+03  2.35820E+03 -2.03454E+03 -4.51648E+03  2.83473E+03 -1.01727E+04
  1.37949E+04 -6.09987E+03  1.95079E+04  3.68407E+03  1.80327E+04  1.36553E+04  1.20246E+04  2.62857E+04
 -7.07388E+03  3.02920E+04 -2.51042E+04  2.22259E+04 -3.23022E+04  5.62534E+03 -2.51443E+04 -1.24205E+04
 -1.29496E+04 -2.32002E+04  9.29206E+02 -1.92376E+04  6.56511E+03 -1.09886E+04  7.27091E+03 -5.96538E+03
  4.86823E+03 -2.68957E+03  4.03202E+03 -3.48643E+03  6.63545E+03 -5.41772E+03  9.51141E+03 -3.72907E+03
  1.22084E+04  2.77884E+03  7.68304E+03  1.19035E+04 -3.19964E+03  1.50947E+04 -1.47307E+04  1.03310E+04
 -1.99232E+04 -2.03565E+03 -1.23834E+04 -1.35347E+04 -1.14470E+03 -2.08170E+04  1.04655E+04 -1.78402E+04
  2.15952E+04 -1.30638E+04  2.48134E+04  2.54725E+03  1.61594E+04  1.67404E+04  2.48601E+03  2.28602E+04
 -8.67116E+03  1.67935E+04 -1.29273E+04  6.60024E+03 -8.46804E+03 -2.01183E+03 -4.61832E+03 -2.26035E+03
 -2.09057E+03 -2.46738E+03 -4.94463E+03  2.95987E+03 -9.23425E+03  3.66815E+03 -1.32974E+04 -2.66733E+03
 -1.02729E+04 -1.22830E+04 -1.19587E+03 -1.82359E+04  1.24185E+04 -1.79609E+04  1.95731E+04 -5.26196E+03
  1.66363E+04  9.64572E+03  8.97830E+03  1.67416E+04 -3.20136E+03  1.98888E+04 -1.42091E+04  1.09436E+04
 -1.97018E+04  1.28109E+02 -1.17503E+04 -1.14111E+04  4.45625E+02 -1.52140E+04  6.90285E+03 -1.28366E+04
  1.45347E+04 -4.38903E+03  7.51539E+03  3.69082E+03  2.81026E+03  4.78238E+03  9.31673E+02  2.66371E+03
  3.56208E+03  2.40087E+03  3.89858E+03  3.54862E+03  6.44135E+03  6.76266E+03  3.85341E+03  1.19470E+04
 -3.69344E+03  1.63126E+04 -1.47534E+04  1.60434E+04 -2.23798E+04  2.74299E+03 -1.87108E+04 -1.13858E+04
 -9.57693E+03 -1.95356E+04  1.72618E+03 -2.23974E+04  1.19480E+04 -1.46659E+04  1.71465E+04 -3.71858E+03
  1.11548E+04  8.50169E+03  2.45928E+03  1.23417E+04 -5.68493E+03  7.05670E+03 -8.46127E+03 -1.34232E+03
 -4.46603E+03 -9.41865E+03  3.37190E+03 -9.38179E+03  8.55133E+03 -3.54418E+03  7.61618E+03  2.69640E+03
  5.74547E+03  4.39987E+03 -1.75516E+02  4.05728E+03 -2.56749E+03  5.87786E+02 -1.93766E+02 -2.67665E+03
  4.61631E+03 -5.65554E+02  8.71600E+03  3.53300E+03  6.13828E+03  1.32121E+04 -2.60742E+03  1.50180E+04
 -9.55812E+03  9.78439E+03 -1.29652E+04  2.61215E+03 -1.20237E+04 -2.32626E+03 -6.47624E+03 -8.44283E+03
  1.39858E+03 -7.45147E+03  5.40958E+03 -3.04506E+03  5.20131E+03  2.46763E+03 -2.05245E+03  7.00591E+03
 -1.05509E+04  3.12949E+03 -9.29131E+03 -4.99804E+03 -6.24931E+03 -1.23817E+04  1.43521E+03 -1.14461E+04
  6.26743E+03 -5.75237E+03  9.98674E+03  3.22862E+02  8.13399E+03  4.74583E+03  1.22172E+03  4.82453E+03
 -4.38864E+03  1.03567E+03 -6.87838E+03 -3.03777E+03  2.05609E+03 -8.35630E+03  1.13750E+04 -9.24367E+03
  1.43125E+04  1.26394E+03  1.56237E+04  9.26645E+03  4.94692E+03  1.45001E+04 -4.42314E+03  1.33417E+04
 -9.48241E+03  6.59056E+03 -1.25080E+04 -2.26491E+03 -5.66409E+03 -9.05338E+03  5.58368E+02 -8.93334E+03
  6.50470E+03 -3.44956E+03  8.50610E+03  4.86440E+03  2.37003E+03  6.87102E+03 -1.23781E+03  6.78842E+03
 -4.28802E+03  5.13094E+03 -3.31618E+03  2.18125E+03 -2.06178E+03  1.99231E+03 -2.82929E+03  4.02278E+03
 -3.81803E+03  4.53187E+03 -1.03283E+04  5.10946E+03 -1.63130E+04  2.57875E+02 -1.60444E+04 -9.46651E+03
 -8.71335E+03 -1.67513E+04  3.25332E+03 -2.27122E+04  1.35269E+04 -1.72019E+04  2.15606E+04 -5.33009E+03
  2.09944E+04  3.96234E+03  1.21859E+04  1.18346E+04  4.83741E+02  1.75251E+04 -7.52157E+03  1.22416E+04
 -7.23549E+03  4.48798E+03 -5.29023E+03 -1.96904E+03 -2.26593E+03 -3.12639E+03 -5.51405E+02  5.54995E+02
 -9.33607E+02  5.56362E+02 -2.49166E+03 -8.65204E+02 -3.05695E+03 -4.80794E+03 -9.09280E+01 -6.03200E+03
  6.85665E+03 -5.52701E+03  9.57302E+03  5.85700E+02  9.80184E+03  9.34400E+03  1.04794E+03  1.56080E+04
 -5.59570E+03  1.68309E+04 -1.69599E+04  1.12765E+04 -1.96021E+04  4.70975E+01 -1.61711E+04 -1.06217E+04
 -6.74855E+03 -1.70009E+04  4.03130E+03 -1.33751E+04  9.37309E+03 -8.23115E+03  1.08788E+04  1.38816E+02
  6.61216E+03  4.84382E+03 -2.21987E+03  4.52550E+03 -3.12548E+03 -2.21533E+02  4.50661E+02 -5.26520E+03
  4.19259E+03 -4.01585E+03  5.30260E+03  1.69760E+03  4.57852E+03  5.80693E+03 -1.46669E+03  1.07618E+04
 -6.43006E+03  6.37133E+03 -1.19963E+04  1.69388E+03 -9.36031E+03 -5.98027E+03 -3.39157E+02 -1.19040E+04
  8.38599E+03 -1.14744E+04  1.29478E+04 -3.34134E+03  1.06758E+04  4.34110E+03  6.32848E+03  1.00414E+04
  5.90611E+02  9.97558E+03 -3.72368E+03  8.96414E+03 -6.32875E+03  4.94791E+03 -5.46409E+03  2.47256E+03
 -2.54583E+03 -5.91510E+02 -2.93103E+03 -3.00963E+02 -4.33267E+03  2.43453E+03 -8.46108E+03 -3.01351E+02
 -8.38059E+03 -6.35100E+03 -2.57507E+03 -1.16622E+04  5.18138E+03 -1.10371E+04  9.36003E+03 -5.80798E+03
  1.03085E+04  1.51575E+03  6.25892E+03  9.22204E+03 -3.40820E+02  1.25629E+04 -8.43654E+03  8.12234E+03
