 $NMID ID='MM_0lb_SNR200_14hz_g40_67.RAW', FMTDAT='(8E13.5)'
 TRAMP=1., VOLUME=1. $END
  3.10590E+05  5.03917E+02  3.36731E+05  2.50279E+05  8.38907E+04  3.38355E+05 -1.31346E+05  2.50543E+05
 -1.90494E+05  8.21559E+04 -1.12093E+05 -3.31912E+04  5.14630E+02 -4.91878E+04  5.36595E+04  2.26212E+02
  3.76978E+04  5.37165E+04 -1.73254E+04  7.52150E+04 -6.03085E+04  6.36235E+04 -8.44060E+04  3.21865E+04
 -8.05545E+04 -1.17559E+04 -5.69919E+04 -5.09041E+04 -1.55581E+04 -6.94284E+04  2.72058E+04 -4.57904E+04
  3.96675E+04  3.31659E+03  1.59864E+04  4.81527E+04 -3.31370E+04  4.68958E+04 -6.70641E+04 -1.30326E+03
 -5.20583E+04 -5.59854E+04 -6.68292E+03 -7.69096E+04  3.36424E+04 -5.49100E+04  4.71751E+04 -1.66977E+04
  4.28793E+04  1.06939E+04  3.19990E+04  2.52532E+04  1.54750E+04  2.79544E+04 -3.83067E+03  2.73944E+04
 -2.15444E+04  1.39803E+04 -1.75607E+04 -4.44123E+03  4.77082E+03 -6.79861E+03  2.23074E+04  1.15052E+04
  7.66031E+03  3.38623E+04 -3.14536E+04  3.53417E+04 -6.13465E+04  2.26377E+03 -5.64899E+04 -4.18033E+04
 -1.29867E+04 -6.23032E+04  3.95474E+04 -4.45700E+04  5.65737E+04 -2.14773E+03  3.33306E+04  3.16963E+04
 -5.66786E+03  3.57037E+04 -2.97887E+04  1.52043E+04 -2.96411E+04 -5.03343E+03 -1.80123E+04 -9.72258E+03
 -6.49919E+03 -1.22516E+04 -1.74732E+03 -1.82943E+04  6.93700E+03 -2.22507E+04  1.45836E+04 -1.19821E+04
  1.22843E+04  5.56114E+03 -6.71119E+03  1.43544E+04 -1.87448E+04 -4.02717E+03 -7.15199E+03 -3.35535E+04
  2.24024E+04 -4.33403E+04  4.68321E+04 -1.84845E+04  4.36505E+04  1.79710E+04  1.41760E+04  4.51176E+04
 -1.62394E+04  3.30075E+04 -2.37354E+04  1.47320E+03 -8.97309E+03 -2.76299E+04  2.10425E+04 -3.44152E+04
  3.92067E+04 -8.45207E+03  3.57645E+04  2.23483E+04  1.70874E+04  4.61861E+04 -8.38861E+03  4.82703E+04
 -2.94810E+04  3.23826E+04 -4.07085E+04  9.79123E+03 -4.09063E+04 -1.61063E+04 -2.29944E+04 -3.86287E+04
  7.42500E+03 -3.79584E+04  3.03292E+04 -1.45024E+04  2.91891E+04  1.20807E+04  3.46442E+03  1.86677E+04
 -1.27911E+04  7.70362E+03 -9.58548E+03 -7.86037E+03  6.44450E+03 -1.04798E+04  1.84374E+04  5.70815E+03
  1.27680E+04  2.18150E+04 -7.17945E+03  2.42240E+04 -2.18162E+04  1.03785E+04 -2.69076E+04 -4.39282E+03
 -2.00556E+04 -1.72591E+04 -8.91411E+03 -2.01448E+04  3.82664E+03 -1.72839E+04  1.56448E+04 -1.73134E+04
  2.50569E+04 -1.28360E+04  3.07067E+04  2.44107E+03  2.27100E+04  1.82571E+04  4.67137E+03  3.57642E+04
 -1.64784E+04  3.00994E+04 -2.67887E+04  1.06579E+04 -2.16311E+04 -9.99842E+03 -4.29730E+03 -1.36741E+04
  2.70678E+03 -4.02282E+03 -4.32079E+03  7.52211E+03 -1.48994E+04  4.97856E+03 -1.59575E+04 -5.79379E+03
 -1.04378E+04 -1.86236E+04  4.94132E+03 -2.39505E+04  1.53042E+04 -1.52536E+04  1.66425E+04 -2.10776E+03
  1.00084E+04  1.18877E+04 -1.31553E+03  1.85101E+04 -1.16251E+04  9.76547E+03 -1.85901E+04 -4.48139E+03
 -1.26826E+04 -1.65517E+04 -1.21310E+03 -2.16582E+04  1.02914E+04 -1.83954E+04  1.96908E+04 -9.08102E+03
  1.58521E+04  3.18994E+02  1.22033E+04  4.78436E+03  5.26471E+03  1.56236E+03  8.51919E+03 -3.62966E+03
  1.74104E+04  2.58254E+03  1.80172E+04  1.42348E+04  1.25689E+04  2.99721E+04 -2.63936E+03  3.20139E+04
 -1.84422E+04  2.62636E+04 -3.08290E+04  1.30410E+04 -3.19305E+04 -2.08024E+03 -2.62693E+04 -1.78377E+04
 -1.10912E+04 -2.56705E+04  9.46133E+03 -2.33877E+04  2.03197E+04 -1.13291E+04  1.90232E+04  5.24225E+03
  7.24722E+03  1.32139E+04 -8.63842E+03  1.11195E+04 -1.58461E+04  2.39488E+03 -1.15976E+04 -1.01793E+04
 -8.88355E+02 -1.49183E+04  7.39014E+03 -1.14928E+04  1.00546E+04 -1.21795E+03  2.11482E+03  4.86608E+03
 -6.08134E+03  1.58414E+03 -5.43048E+03 -6.01281E+03  2.12474E+02 -1.28200E+04  8.33664E+03 -1.31175E+04
  1.59043E+04 -6.17279E+03  1.60002E+04  2.68457E+03  1.39879E+04  1.22265E+04  7.41929E+03  1.86498E+04
 -3.61492E+03  2.00810E+04 -1.28466E+04  1.26242E+04 -1.45447E+04  3.01415E+03 -1.13162E+04 -2.76295E+03
 -4.24682E+03 -4.70528E+03 -5.77626E+02  1.31023E+03 -1.00275E+03  3.19734E+03 -5.55031E+03  4.36223E+03
 -9.37252E+03 -9.01546E+01 -1.09275E+04 -8.56767E+03 -4.85066E+03 -1.45039E+04  4.36093E+03 -1.22790E+04
  1.11897E+04 -6.18106E+03  7.00863E+03  2.95810E+03 -3.18205E+02  3.42964E+03 -4.88696E+03  8.93759E+02
 -5.48587E+03 -6.82140E+03 -3.20812E+02 -9.23149E+03  4.35946E+03 -1.02220E+04  1.23729E+04 -7.16422E+03
  1.51505E+04  6.37459E+01  1.12712E+04  7.59898E+03  1.13921E+03  1.23004E+04 -6.90624E+03  1.00529E+04
 -6.69315E+03  2.55654E+03 -5.14749E+03 -1.13945E+03  7.59598E+02 -3.15145E+03  6.87449E+03 -1.01838E+03
  5.15354E+03  4.99904E+03  1.93141E+01  7.86813E+03 -6.36499E+03  6.82161E+03 -1.03996E+04  1.56101E+03
 -5.99651E+03 -4.78844E+03 -3.83129E+02 -9.18177E+03  5.10813E+03 -5.63214E+03  4.31521E+03  2.26215E+03
  8.39439E+02  6.04710E+03 -4.42215E+03  6.33564E+03 -7.64912E+03  3.70208E+03 -7.27933E+03 -2.30810E+03
 -5.21038E+03 -8.31069E+03  1.19173E+03 -1.17456E+04  9.56714E+03 -6.89007E+03  1.01036E+04  1.82151E+03
  6.97571E+03  8.59537E+03 -3.03267E+02  8.47438E+03 -6.48551E+03  6.28216E+03 -7.58334E+03 -9.83295E+02
 -6.73639E+03 -6.69251E+03 -2.68571E+03 -7.51154E+03  4.11208E+03 -4.77941E+03  3.65852E+03 -3.79906E+03
  4.34915E+03  1.14428E+03 -1.08853E+03  1.84954E+03 -4.16347E+02 -1.06756E+03  1.14629E+03 -3.72105E+03
  6.22565E+03 -1.58672E+03  7.38975E+03  1.91178E+03  1.01311E+04  5.36632E+03  6.62656E+03  1.13899E+04
 -2.82036E+03  1.42560E+04 -1.12599E+04  7.92244E+03 -1.43931E+04  2.34876E+03 -1.18172E+04 -4.48324E+03
 -5.85227E+03 -1.11286E+04 -1.08165E+03 -8.91220E+03  3.27761E+03 -4.87570E+03  3.11119E+03 -4.27905E+03
  1.86279E+03 -6.12764E+02  2.28122E+03 -3.34441E+03  4.86483E+03 -1.59781E+03  5.15899E+03 -1.75563E+03
  6.45612E+03  1.70695E+03  2.31177E+03  5.64545E+03 -1.96064E+03  6.37078E+03 -7.14479E+03  4.73659E+03
 -8.35946E+03 -6.84234E+02 -3.18279E+03 -5.99555E+03 -5.32632E+01 -8.68804E+03  6.44393E+03 -8.03340E+03
  8.25934E+03 -5.14432E+03  1.06559E+04  6.55337E+02  8.62739E+03  7.21498E+03  7.95002E+02  8.54344E+03
 -4.34529E+03  8.94772E+03 -4.99702E+03  2.83708E+03 -3.22597E+03 -1.39092E+03 -2.49056E+03 -6.56757E+02
 -9.29966E+02  6.63956E+02  4.14106E+01  1.64862E+03 -3.30411E+03  2.15541E+03 -6.23208E+03 -1.03523E+03
 -3.98735E+03 -5.88261E+03  1.86202E+02 -6.78731E+03  4.30335E+03 -7.62169E+03  6.77398E+03 -2.30322E+03
  7.79327E+03  3.69462E+03  3.78718E+03  6.24044E+03 -2.48123E+03  7.33133E+03 -5.95266E+03  4.70760E+03
 -8.04806E+03  8.31694E+02 -4.63376E+03 -4.20320E+03  2.66870E+02 -5.35128E+03  3.39165E+03 -4.76596E+03
  4.49033E+03 -5.15098E+02  3.24581E+03  1.46118E+03  1.59457E+03  2.18340E+03  6.64302E+02  1.25419E+03
  1.05841E+03  7.59621E+01  1.12551E+03  1.81393E+03  1.49788E+03  2.84740E+03  2.40781E+03  4.45348E+03
 -1.18415E+03  5.56013E+03 -4.86257E+03  5.93830E+03 -7.62981E+03  2.25866E+03 -6.77583E+03 -1.85308E+03
 -2.88712E+03 -7.52896E+03  1.15213E+03 -8.86389E+03  2.97533E+03 -5.20939E+03  5.35091E+03 -9.59028E+02
  3.91976E+03  2.91722E+03  1.20133E+03  4.17598E+03 -8.13142E+02  1.73101E+03 -1.98757E+03 -4.51766E+02
 -1.78285E+03 -1.71945E+03  2.66080E+03 -3.19678E+03  3.18390E+03 -1.55856E+03  2.99111E+03  4.43125E+02
  5.73227E+02  1.34313E+03  1.17517E+03  9.90950E+02  2.76651E+02  1.46558E+03  2.31102E+03 -2.65369E+02
  1.25525E+03  5.65008E+02  3.09477E+03  1.89915E+03  9.71355E+02  3.35256E+03 -7.34998E+02  4.45966E+03
 -3.88075E+03  1.73468E+03 -4.00440E+03 -1.39512E+02 -3.71680E+03 -8.03722E+02  2.86798E+02 -3.02237E+03
  8.84583E+02 -2.86799E+03  1.82967E+03 -2.44575E+03  1.39152E+03  3.49170E+02 -4.13731E+02  1.26725E+03
 -2.63525E+03  1.98196E+03 -2.67519E+03 -1.72628E+03 -1.80369E+03 -5.67166E+03  1.36256E+03 -3.84831E+03
  6.55491E+01 -1.72064E+03  2.42461E+03  8.93483E+01  3.10950E+03  8.93917E+02  3.94424E+02  1.85541E+03
 -1.76814E+03  1.54400E+03 -1.86779E+03 -8.53849E+01  5.75862E+02 -2.63586E+03  2.98976E+03 -3.04715E+03
  4.74767E+03  9.96163E+02  5.38991E+03  2.12386E+03  1.94928E+03  4.71837E+03  1.95612E+02  4.41592E+03
 -2.99720E+03  1.92399E+03 -2.44975E+03 -4.68285E+02 -1.48037E+03 -3.68420E+03  4.70671E+02 -1.80314E+03
  2.23509E+03 -2.53966E+02  2.99304E+03  8.92216E+02  1.00439E+03  2.24321E+03  7.69262E+02  2.19884E+03
  5.51668E+00  1.00668E+03 -4.03777E+02  2.94116E+02 -5.68321E+02  1.22697E+03 -1.93840E+03  1.53400E+03
 -2.85386E+03  1.36082E+03 -2.15799E+03  1.15706E+03 -4.46268E+03 -7.66937E+01 -4.84195E+03 -2.24970E+03
 -2.09409E+03 -4.63077E+03  1.19558E+03 -6.32189E+03  3.31438E+03 -4.82382E+03  6.40816E+03 -2.55642E+03
  5.33789E+03  1.08709E+03  1.90161E+03  4.68235E+03 -9.51335E+02  3.71045E+03 -1.76717E+03  2.77594E+03
 -1.31409E+03  4.34025E+02 -2.04013E+03 -4.29197E+02 -1.38132E+03  7.87408E+02 -1.66438E+03  3.02838E+02
 -1.27058E+03 -5.53912E+01 -1.67818E+03  3.07864E+02  8.14497E+02 -6.02316E+02 -5.01030E+02 -1.66019E+03
  1.45651E+03 -1.66624E+03  1.32796E+03 -7.07973E+02  3.52640E+03  2.72401E+03  7.69703E+02  4.00487E+03
 -1.90487E+03  3.56638E+03 -3.80029E+03  2.77875E+03 -5.68536E+03  3.98321E+00 -3.57054E+03 -4.09613E+03
 -1.48038E+03 -4.43276E+03  7.90041E+02 -3.21428E+03  2.01744E+03 -1.17081E+03  2.73736E+03 -1.98560E+02
  1.92238E+03  1.06946E+03  6.35066E+02  1.45846E+02 -7.62826E+01  6.77849E+02 -4.84555E+02  4.85682E+02
  1.23066E+03  8.05284E+02  1.36932E+03 -3.03014E+01  4.92159E+02  2.19733E+03  4.99255E+02  9.32768E+02
 -2.79260E+02  1.99833E+03 -1.17529E+03 -1.77730E+03 -2.57500E+03 -2.02533E+03  7.00485E+02 -2.50955E+03
  1.27796E+03 -2.15715E+03  2.89875E+03 -1.27485E+03  4.00023E+03  1.50991E+03  1.36370E+03  1.59978E+03
  3.38888E+01  8.77597E+02 -2.51028E+03  9.20021E+02 -1.33734E+03  1.30412E+03 -1.50086E+03  3.95675E+02
 -1.73293E+03 -5.42989E+02 -6.68594E+02 -2.99930E+02 -1.66010E+03 -3.01779E+02 -1.78550E+03 -3.89387E+02
 -1.85100E+03 -4.99847E+02 -2.49544E+02 -1.58954E+03  6.82911E+02 -2.94376E+03  2.07579E+03 -8.23713E+02
  1.83992E+03  2.10940E+02  6.53980E+02  1.89078E+03  9.06445E+02  2.39874E+03 -1.52187E+03  1.38379E+03
