 $NMID ID='MM_0lb_SNR200_15hz_g45_89.RAW', FMTDAT='(8E13.5)'
 TRAMP=1., VOLUME=1. $END
  3.09553E+05  4.12788E+02  3.37617E+05  2.50932E+05  8.45880E+04  3.37540E+05 -1.32177E+05  2.49866E+05
 -1.89718E+05  8.19332E+04 -1.11693E+05 -3.22993E+04  1.23725E+03 -4.98556E+04  5.37282E+04  3.40122E+02
  3.46646E+04  5.24198E+04 -1.67446E+04  7.54317E+04 -5.99381E+04  6.40706E+04 -8.53792E+04  3.31389E+04
 -8.20905E+04 -1.03865E+04 -5.62123E+04 -5.06012E+04 -1.40336E+04 -6.86849E+04  2.73816E+04 -4.56343E+04
  4.01630E+04  3.51137E+03  1.56007E+04  4.86951E+04 -3.48819E+04  4.75318E+04 -6.57884E+04 -9.96012E+02
 -5.30438E+04 -5.66970E+04 -6.59350E+03 -7.68663E+04  3.36616E+04 -5.35915E+04  4.82635E+04 -1.64350E+04
  4.34812E+04  1.17435E+04  3.20909E+04  2.61314E+04  1.67030E+04  2.98248E+04 -4.75129E+03  2.76356E+04
 -2.22017E+04  1.23767E+04 -1.92386E+04 -4.36130E+03  5.68199E+03 -7.36594E+03  2.21141E+04  1.08797E+04
  7.87064E+03  3.48148E+04 -3.21620E+04  3.62405E+04 -6.24537E+04  1.37024E+03 -5.77896E+04 -4.25096E+04
 -1.27020E+04 -6.23922E+04  3.80463E+04 -4.38633E+04  5.67106E+04 -2.41217E+03  3.30696E+04  3.19820E+04
 -6.02750E+03  3.46871E+04 -2.86354E+04  1.53166E+04 -3.06515E+04 -5.62187E+03 -1.45598E+04 -1.00330E+04
 -7.60525E+03 -1.26020E+04 -1.02548E+03 -1.81249E+04  7.83949E+03 -2.33356E+04  1.54782E+04 -1.36188E+04
  1.16974E+04  5.10034E+03 -8.30106E+03  1.29238E+04 -2.05260E+04 -2.59445E+03 -8.59021E+03 -3.31196E+04
  2.17181E+04 -4.27651E+04  4.63375E+04 -2.03435E+04  4.40410E+04  1.91748E+04  1.44481E+04  4.43979E+04
 -1.53765E+04  3.23350E+04 -2.38307E+04  1.33214E+03 -8.99606E+03 -2.79223E+04  2.06160E+04 -3.39111E+04
  3.88841E+04 -7.59979E+03  3.39652E+04  2.36511E+04  1.70296E+04  4.51026E+04 -8.27484E+03  4.86538E+04
 -3.08934E+04  3.28619E+04 -4.04811E+04  9.11548E+03 -4.11959E+04 -1.57013E+04 -2.21661E+04 -3.54845E+04
  7.42874E+03 -3.58123E+04  3.11250E+04 -1.36931E+04  2.77706E+04  1.15563E+04  4.35922E+03  1.87026E+04
 -1.46489E+04  8.79202E+03 -1.00538E+04 -8.52503E+03  6.13039E+03 -1.05250E+04  1.68989E+04  6.44582E+03
  1.28709E+04  2.07494E+04 -6.12636E+03  2.32275E+04 -2.36479E+04  1.09578E+04 -2.75288E+04 -4.14261E+03
 -1.90448E+04 -1.70728E+04 -6.34448E+03 -1.99683E+04  4.51487E+03 -1.84567E+04  1.41577E+04 -1.72978E+04
  2.28402E+04 -1.16326E+04  3.03107E+04  2.03172E+03  2.29274E+04  1.89131E+04  4.99487E+03  3.57142E+04
 -1.70133E+04  2.92596E+04 -2.74467E+04  1.04066E+04 -2.14505E+04 -1.12364E+04 -4.69406E+03 -1.31515E+04
  2.75546E+03 -3.83400E+03 -4.35583E+03  6.50598E+03 -1.41472E+04  4.99711E+03 -1.52389E+04 -5.66276E+03
 -1.04148E+04 -1.80223E+04  4.91376E+03 -2.13330E+04  1.50339E+04 -1.60077E+04  1.63984E+04 -1.06137E+03
  1.04755E+04  1.28664E+04 -1.15060E+03  1.76586E+04 -1.16835E+04  1.03563E+04 -1.79544E+04 -2.86054E+03
 -1.32051E+04 -1.58726E+04 -1.92739E+03 -2.21996E+04  9.29509E+03 -1.71529E+04  1.80426E+04 -8.70282E+03
  1.47402E+04 -3.26818E+02  1.20282E+04  3.20222E+03  6.60187E+03  1.58266E+03  8.99712E+03 -7.81721E+02
  1.58760E+04  3.37484E+03  1.76821E+04  1.31209E+04  1.08179E+04  2.89949E+04 -3.24936E+03  3.08330E+04
 -1.73152E+04  2.48490E+04 -2.83131E+04  1.24322E+04 -3.17261E+04 -1.70260E+03 -2.48978E+04 -1.71715E+04
 -1.10545E+04 -2.50486E+04  9.45887E+03 -2.22624E+04  2.07946E+04 -1.23076E+04  1.80678E+04  4.29933E+03
  6.44543E+03  1.28889E+04 -8.88891E+03  1.14081E+04 -1.56107E+04  3.15067E+03 -1.08313E+04 -9.54473E+03
  4.81918E+02 -1.38594E+04  8.18313E+03 -1.22631E+04  8.63492E+03 -1.05182E+03  2.32435E+03  6.16570E+03
 -6.67671E+03  2.80603E+03 -6.87047E+03 -6.25689E+03  5.77329E+02 -1.38690E+04  9.26132E+03 -1.23482E+04
  1.54850E+04 -6.39829E+03  1.61058E+04  2.42380E+03  1.32848E+04  1.25132E+04  7.12200E+03  1.75866E+04
 -1.31356E+03  2.13255E+04 -1.20240E+04  1.32637E+04 -1.44473E+04  2.09563E+03 -9.94238E+03 -3.11451E+03
 -6.14394E+03 -3.96067E+03 -2.49119E+03  9.39331E+02 -1.93713E+03  8.92306E+02 -4.68670E+03  3.03426E+03
 -8.97403E+03 -6.88618E+02 -9.46145E+03 -8.76294E+03 -4.81093E+03 -1.41979E+04  4.70621E+03 -9.72217E+03
  8.37773E+03 -4.24469E+03  5.89258E+03  2.41003E+03  1.03124E+01  3.84767E+03 -4.07767E+03  2.69495E+02
 -4.29569E+03 -6.24189E+03 -9.02667E+02 -1.03796E+04  4.68842E+03 -1.00205E+04  1.27280E+04 -5.52066E+03
  1.41053E+04  2.07476E+03  1.05072E+04  9.87075E+03  1.65052E+03  1.14338E+04 -5.41691E+03  1.01516E+04
 -8.36824E+03  3.10140E+03 -4.97204E+03 -1.11831E+03  1.60714E+03 -2.35992E+03  5.20952E+03 -1.67369E+03
  5.34886E+03  4.87953E+03  1.63414E+03  7.28267E+03 -5.58719E+03  6.74805E+03 -1.07571E+04  1.25084E+03
 -5.91705E+03 -5.07652E+03  4.95780E+01 -9.35346E+03  5.14435E+03 -3.39868E+03  5.28194E+03  1.18959E+03
  9.69714E+02  3.94608E+03 -5.06524E+03  7.04227E+03 -7.60898E+03  2.85826E+03 -6.74804E+03 -2.07682E+03
 -3.84472E+03 -7.90230E+03  1.36756E+03 -9.14085E+03  8.19001E+03 -5.69801E+03  8.31074E+03  1.69882E+03
  5.74145E+03  6.63801E+03  4.65736E+01  1.02537E+04 -6.90811E+03  5.51883E+03 -7.35714E+03 -8.94852E+02
 -7.57974E+03 -7.27342E+03 -7.59703E+02 -6.22484E+03  4.07436E+03 -7.29294E+03  3.99367E+03 -3.90994E+03
  3.38386E+03  7.78694E+02  5.78457E+02  2.27285E+03  5.81538E+02 -7.71653E+02 -6.39455E+01 -2.96696E+03
  6.17285E+03 -1.45229E+03  8.62107E+03  2.88909E+02  8.65057E+03  5.10458E+03  6.80966E+03  1.11053E+04
 -2.20697E+03  1.29203E+04 -1.01376E+04  9.36946E+03 -1.57723E+04  2.02015E+03 -1.12629E+04 -4.32254E+03
 -5.06702E+03 -9.92117E+03 -1.26990E+03 -8.26991E+03  2.21898E+03 -3.77726E+03  2.01120E+03 -3.94091E+03
  1.38017E+03 -2.34822E+03  2.39380E+03 -2.33039E+03  4.10699E+03 -2.47104E+03  5.08275E+03 -3.26982E+02
  5.97783E+03  1.80896E+03  2.34090E+03  4.07709E+03 -1.45176E+03  5.25991E+03 -6.20900E+03  3.26249E+03
 -7.01853E+03 -1.14718E+03 -3.72375E+03 -4.72317E+03 -5.69060E+01 -7.70889E+03  4.58719E+03 -8.47911E+03
  8.14703E+03 -5.33048E+03  1.02762E+04  1.01478E+03  8.35421E+03  7.06146E+03  1.50760E+03  8.81985E+03
 -4.06729E+03  7.92384E+03 -5.18109E+03  2.06258E+03 -3.17168E+03 -1.07458E+03 -4.99749E+02 -2.44974E+03
  2.50608E+01  3.47841E+02 -1.41403E+03  2.10650E+03 -2.48750E+03  7.27350E+02 -4.42363E+03 -1.87521E+02
 -2.60616E+03 -4.73020E+03  1.20556E+03 -7.31121E+03  3.53798E+03 -7.21905E+03  7.23582E+03 -3.01611E+03
  6.47279E+03  4.75016E+03  1.95097E+03  5.30128E+03 -2.04076E+03  5.99770E+03 -4.22016E+03  3.53729E+03
 -5.65503E+03  1.50102E+03 -5.57236E+03 -5.28538E+03  2.35127E+02 -5.32661E+03  2.57601E+03 -4.33073E+03
  3.53358E+03 -2.14405E+03  1.72631E+03  1.17615E+03  7.29114E+02  2.45167E+03  1.52058E+03  1.14217E+03
  1.40194E+03 -2.03706E+02  1.49588E+03  1.28225E+03  2.18082E+03  2.26340E+03  1.94650E+03  3.28973E+03
 -1.76791E+03  4.95239E+03 -4.41619E+03  6.22526E+03 -6.90532E+03  5.27116E+02 -5.17378E+03 -1.68786E+03
 -2.77141E+03 -5.74913E+03 -3.93714E+01 -7.73118E+03  2.64889E+03 -4.18790E+03  5.54701E+03 -4.27425E+02
  5.01582E+03  4.22471E+03  6.09589E+02  1.90134E+03 -1.12994E+03  1.62458E+03 -3.13087E+03 -3.01492E+02
 -2.05754E+03 -2.30339E+03  1.33308E+03 -1.75168E+03  2.98765E+03 -1.58071E+03  3.23506E+03  1.26241E+03
  4.96421E+02 -7.92784E-01  7.27098E+02 -2.23785E+02 -8.66849E+02  8.50422E+02  2.56962E+03  4.90647E+02
  5.37111E+02 -2.97955E+02  2.80009E+03  1.21417E+03  2.59447E+02  3.06829E+03 -1.14711E+03  4.34855E+03
 -3.14866E+03  2.54254E+03 -2.88579E+03 -6.44404E+02 -3.64907E+03 -2.12574E+03 -9.13595E+02 -1.80394E+03
  1.16315E+02 -1.12222E+03  1.39243E+03  2.62837E+02  1.60430E+03  2.18747E+03 -1.29788E+03  2.13339E+03
 -2.96776E+03  1.47182E+03 -2.81895E+03 -2.54440E+03 -1.51479E+03 -3.28977E+03  2.67996E+02 -1.49399E+03
  1.04250E+03 -1.18958E+03  7.51832E+02  1.02093E+03  6.86488E+02  1.18510E+03  1.34664E+02  2.28232E+03
 -8.35302E+02  3.06463E+02 -2.56831E+03 -1.42020E+03  1.65484E+03 -1.39755E+03  2.76526E+03 -3.54238E+02
  2.91343E+03  3.14760E+02  4.36234E+03  8.52108E+02  7.22407E+02  3.20022E+03 -4.34012E+02  3.17311E+03
 -2.81700E+03  7.22867E+02 -3.44770E+03 -3.45484E+01 -1.24764E+03 -3.35182E+03 -2.18125E+02 -2.25774E+03
  3.70447E+03 -1.21204E+03  2.86163E+03  2.65545E+03  5.48727E+02  1.06404E+03  7.34087E+01  1.90749E+03
 -3.93008E+02  6.89679E+02 -4.72813E+02  1.64128E+03  5.87438E+02  5.73772E+02 -3.96771E+02  4.77681E+02
 -9.88744E+02  2.34012E+03 -2.74554E+03  1.69624E+03 -3.22740E+03  8.59822E+02 -5.31799E+03 -2.20901E+03
 -8.64078E+02 -3.76799E+03  1.84847E+03 -5.21605E+03  3.04422E+03 -4.96086E+03  4.85344E+03 -6.45295E+02
  3.71432E+03  1.47062E+02  2.05594E+03  2.96801E+03 -2.02957E+02  3.41194E+03 -7.09093E+02  3.40336E+03
 -2.04753E+03  1.49654E+03  9.70877E+02 -9.85516E+02 -1.29282E+02  1.31123E+03 -6.21816E+02 -7.69886E+02
 -9.12837E+02  9.33837E+01 -1.26566E+03  2.26206E+02 -1.17522E+03 -2.35200E+03 -1.29828E+03 -1.01332E+03
  1.34355E+03 -5.52186E+02  1.84434E+03 -4.67118E+02  2.43327E+03  2.14480E+03 -1.44698E+01  2.29346E+03
 -2.17535E+03  5.19762E+03 -3.60406E+03  2.38369E+03 -3.93344E+03 -5.91967E+02 -3.59886E+03 -2.27742E+03
 -1.65224E+03 -2.99214E+03  1.08742E+02 -3.47529E+03  2.02187E+03 -1.16179E+03  2.92894E+03 -2.93280E+02
  5.82999E+02  8.84717E+02 -1.24019E+03  1.58881E+03 -2.08649E+03  1.99716E+02 -1.31893E+02 -2.46193E+02
  1.12878E+03 -8.72452E+02  8.90737E+02  5.87001E+02  4.15459E+02  2.42360E+03 -2.33246E+02  2.23106E+03
 -1.26821E+03  2.14293E+03 -2.11629E+03 -5.21830E+02 -1.27856E+03 -1.00521E+03  7.71236E+02 -9.08728E+02
  1.39180E+03 -2.10056E+03  2.07850E+03  1.18504E+02  2.84253E+03 -3.07920E+02  1.41035E+03  2.17421E+03
 -3.70550E+02  1.51795E+03 -2.74268E+02  1.47087E+03 -2.03806E+03  1.16982E+03 -1.61776E+03 -8.17690E+00
 -1.23902E+03 -1.92669E+02 -5.89111E+02 -3.20359E+02 -8.45012E+02  6.61472E+02 -1.32714E+03 -1.28815E+02
 -2.08311E+03 -1.41536E+03 -4.44200E+02 -1.36245E+03  6.86422E+02 -2.22315E+03  6.05127E+02 -5.80126E+02
  2.01279E+03  2.20463E+02 -5.77957E+02  8.10922E+02 -2.84935E+02  1.92277E+03 -7.99866E+02  1.37769E+03
