 $NMID ID='MM_0lb_SNR200_8hz_g40_42.RAW', FMTDAT='(8E13.5)'
 TRAMP=1., VOLUME=1. $END
  3.09847E+05  1.44516E+03  3.35173E+05  2.50650E+05  8.55943E+04  3.37499E+05 -1.31398E+05  2.51305E+05
 -1.91010E+05  8.31916E+04 -1.12943E+05 -3.31317E+04  1.41681E+02 -5.15453E+04  5.26635E+04 -1.99408E+02
  3.56485E+04  5.31126E+04 -1.63907E+04  7.61380E+04 -6.13712E+04  6.39935E+04 -8.61327E+04  3.13530E+04
 -8.29921E+04 -1.20449E+04 -5.81548E+04 -5.36051E+04 -1.43594E+04 -7.25508E+04  2.84142E+04 -4.60523E+04
  4.24582E+04  4.57776E+03  1.81950E+04  4.86337E+04 -3.51343E+04  4.87828E+04 -6.72939E+04  1.82337E+03
 -5.53409E+04 -5.77228E+04 -7.33000E+03 -7.91780E+04  3.58139E+04 -5.83799E+04  5.07022E+04 -1.72989E+04
  4.52494E+04  1.10479E+04  3.19542E+04  2.54255E+04  1.64791E+04  3.16324E+04 -6.07625E+03  2.78224E+04
 -2.16825E+04  1.06716E+04 -1.72032E+04 -5.84956E+03  5.28991E+03 -7.56611E+03  2.51077E+04  1.19745E+04
  7.35878E+03  3.79257E+04 -3.45204E+04  3.62004E+04 -6.61823E+04  2.89067E+03 -5.82959E+04 -4.45413E+04
 -1.22904E+04 -6.53334E+04  4.19203E+04 -4.76080E+04  6.08857E+04 -2.81578E+03  3.80103E+04  3.39462E+04
 -6.00155E+03  3.93671E+04 -3.34834E+04  1.77338E+04 -3.36238E+04 -3.45975E+03 -1.84292E+04 -1.06049E+04
 -8.27120E+03 -1.62915E+04  2.03283E+02 -1.90249E+04  7.61402E+03 -2.37417E+04  1.44906E+04 -1.04581E+04
  1.07158E+04  5.53402E+03 -1.12108E+04  1.31060E+04 -2.42959E+04 -6.34713E+03 -8.62421E+03 -3.75158E+04
  2.34253E+04 -4.75891E+04  5.17002E+04 -2.11105E+04  4.86789E+04  2.06027E+04  1.67148E+04  4.65391E+04
 -1.51152E+04  3.71417E+04 -2.80302E+04  2.18942E+03 -1.17121E+04 -3.05185E+04  2.16529E+04 -3.66864E+04
  4.31614E+04 -1.14413E+04  4.03384E+04  2.42869E+04  2.12752E+04  5.12765E+04 -1.03406E+04  5.66058E+04
 -3.52726E+04  3.74852E+04 -4.75610E+04  1.03895E+04 -4.83258E+04 -1.87077E+04 -2.91211E+04 -4.10063E+04
  8.31034E+03 -4.20369E+04  3.48688E+04 -1.55125E+04  3.28133E+04  1.41547E+04  4.78886E+03  2.19236E+04
 -1.38739E+04  1.09469E+04 -1.19116E+04 -7.56033E+03  7.86276E+03 -1.36225E+04  1.87409E+04  4.29664E+03
  1.53444E+04  2.18870E+04 -3.81331E+03  2.71521E+04 -2.50733E+04  1.47281E+04 -3.19351E+04 -2.55667E+03
 -2.55776E+04 -1.82557E+04 -1.26306E+04 -2.43476E+04  1.92782E+03 -2.68540E+04  2.06439E+04 -2.27371E+04
  3.32560E+04 -1.40697E+04  3.78220E+04  2.57536E+03  2.63913E+04  2.52868E+04  4.70664E+03  4.07317E+04
 -2.04289E+04  3.58594E+04 -3.19053E+04  1.28664E+04 -2.36937E+04 -1.07864E+04 -3.63067E+03 -1.18392E+04
  8.63384E+02 -1.09926E+03 -7.02145E+03  8.72312E+03 -2.01617E+04  4.32538E+03 -1.98315E+04 -9.95035E+03
 -1.19845E+04 -2.28587E+04  6.30525E+03 -2.76257E+04  1.74273E+04 -1.90876E+04  2.39002E+04 -1.73920E+03
  1.60990E+04  1.62964E+04 -8.92431E+02  2.37124E+04 -1.76080E+04  1.30196E+04 -2.28517E+04 -5.18592E+03
 -1.80609E+04 -2.14764E+04 -2.20322E+03 -2.73230E+04  1.29887E+04 -2.42197E+04  2.44971E+04 -9.95845E+03
  2.22712E+04  8.85783E+02  1.54081E+04  5.40519E+03  8.27724E+03  2.09694E+03  1.18712E+04 -7.40995E+02
  2.25391E+04  1.55458E+03  2.50793E+04  1.75959E+04  1.83144E+04  3.79167E+04 -2.96627E+03  4.43093E+04
 -2.61194E+04  3.76761E+04 -4.21794E+04  2.09895E+04 -4.45356E+04 -3.87079E+03 -3.57972E+04 -2.73732E+04
 -1.41930E+04 -3.89733E+04  1.39789E+04 -3.32017E+04  2.76445E+04 -1.57767E+04  2.46922E+04  8.22592E+03
  9.42218E+03  2.02053E+04 -1.13521E+04  1.64701E+04 -2.02615E+04  2.62451E+03 -1.63573E+04 -1.36039E+04
 -1.97001E+03 -1.93041E+04  1.04627E+04 -1.54954E+04  1.33827E+04 -2.13184E+03  3.95056E+03  8.52782E+03
 -1.08133E+04  4.77569E+03 -9.63274E+03 -7.29820E+03 -1.29053E+03 -1.87458E+04  1.17201E+04 -2.09293E+04
  2.36298E+04 -1.28112E+04  2.69339E+04  3.66742E+03  2.39399E+04  1.90775E+04  1.09804E+04  2.89999E+04
 -4.69475E+03  3.19947E+04 -1.96642E+04  2.03244E+04 -2.41654E+04  4.06317E+03 -1.42102E+04 -4.19103E+03
 -7.04446E+03 -7.71358E+03 -1.46912E+03  1.00507E+03 -3.02399E+03  2.87218E+03 -8.63010E+03  4.72562E+03
 -1.52990E+04 -8.31689E+02 -1.65816E+04 -1.17776E+04 -5.98504E+03 -1.96413E+04  6.66124E+03 -1.61738E+04
  1.40970E+04 -7.88314E+03  9.34323E+03  5.35176E+03 -7.21321E+02  4.96338E+03 -8.40881E+03  8.78258E+02
 -7.36657E+03 -9.93603E+03 -9.32155E+02 -1.72525E+04  7.22185E+03 -1.55749E+04  2.10287E+04 -7.26266E+03
  2.34318E+04  3.53093E+03  1.68414E+04  1.32561E+04  1.27995E+03  1.97288E+04 -1.00327E+04  1.52930E+04
 -1.33302E+04  4.52992E+03 -8.18252E+03 -3.12153E+03  1.18119E+03 -2.76301E+03  8.74392E+03 -2.93133E+03
  6.85010E+03  6.18995E+03  5.85801E+02  1.25468E+04 -7.93059E+03  1.32429E+04 -1.57223E+04  1.48088E+03
 -9.98579E+03 -6.94090E+03 -8.14755E+01 -1.40742E+04  1.03483E+04 -7.73328E+03  9.88554E+03  3.95323E+03
  2.88923E+03  1.04820E+04 -8.16032E+03  1.19619E+04 -1.36765E+04  5.60631E+03 -1.43822E+04 -5.97322E+03
 -7.12104E+03 -1.59546E+04  4.37139E+03 -1.99694E+04  1.67331E+04 -1.22799E+04  1.76381E+04  3.66437E+03
  1.10301E+04  1.25856E+04 -1.14343E+03  1.66992E+04 -1.20319E+04  9.54224E+03 -1.26415E+04 -2.96546E+02
 -1.11609E+04 -1.02281E+04 -7.54461E+02 -1.36103E+04  6.29542E+03 -1.16721E+04  7.79446E+03 -2.82130E+03
  3.84120E+03  3.22609E+03 -6.49349E+02  3.50395E+02 -1.73715E+02 -3.39285E+03  2.24831E+03 -7.83201E+03
  1.32145E+04 -3.74986E+03  1.66866E+04  1.44585E+03  1.63601E+04  1.07372E+04  1.13316E+04  1.99454E+04
 -5.69256E+03  2.51351E+04 -1.94473E+04  1.98807E+04 -2.67828E+04  2.13740E+03 -2.20339E+04 -9.52853E+03
 -1.15852E+04 -1.71692E+04 -1.69166E+02 -1.53981E+04  5.21675E+03 -8.30450E+03  6.71546E+03 -6.29613E+03
  4.72189E+03 -3.86479E+03  5.16011E+03 -3.18900E+03  6.23340E+03 -5.17010E+03  9.29318E+03 -9.27328E+02
  1.13205E+04  3.33653E+03  5.87568E+03  7.60281E+03 -2.31332E+03  1.13513E+04 -1.06854E+04  9.45968E+03
 -1.44723E+04 -1.16904E+02 -9.69974E+03 -1.10673E+04 -1.52317E+03 -1.60428E+04  1.06325E+04 -1.42627E+04
  1.74093E+04 -9.65475E+03  2.13145E+04  4.41432E+03  1.36450E+04  1.41169E+04  2.32077E+03  1.70255E+04
 -7.15468E+03  1.60762E+04 -1.01780E+04  8.96107E+03 -7.72338E+03 -2.17684E+03 -3.29200E+03 -2.66936E+03
 -3.94184E+02 -2.68398E+03 -1.81632E+03  2.93764E+03 -7.69620E+03  1.96856E+03 -1.17788E+04 -1.51025E+03
 -9.95308E+03 -1.14555E+04 -1.72287E+03 -1.73538E+04  9.95175E+03 -1.10638E+04  1.48348E+04 -6.10734E+03
  1.59695E+04  6.02230E+03  6.01776E+03  1.45681E+04 -3.39148E+03  1.64580E+04 -9.88100E+03  8.69306E+03
 -1.56856E+04  9.13423E+02 -9.70003E+03 -9.97036E+03 -9.52130E+02 -1.29709E+04  5.22008E+03 -1.01272E+04
  1.21258E+04 -3.79071E+03  7.33531E+03  2.49968E+03  3.71788E+03  4.63256E+03  9.50107E+02  2.52546E+03
  2.46754E+03  1.01015E+03  4.19066E+03  2.53603E+03  3.28786E+03  4.77773E+03  5.83492E+03  7.35307E+03
 -2.66447E+03  1.38910E+04 -1.08410E+04  1.26244E+04 -1.57175E+04  1.38266E+03 -1.63831E+04 -6.85614E+03
 -7.92133E+03 -1.68971E+04  1.72718E+03 -1.74641E+04  8.85166E+03 -1.21910E+04  1.29039E+04 -3.09857E+03
  1.16353E+04  7.30959E+03  3.69774E+03  7.86672E+03 -3.07080E+03  6.57488E+03 -5.73607E+03  9.24641E+01
 -3.31911E+03 -5.77258E+03  5.14257E+03 -6.75742E+03  8.31672E+03 -3.46110E+03  6.55839E+03  7.95150E+02
  4.49740E+03  3.54280E+03  2.94382E+03  1.07685E+03 -2.55024E+03  2.63562E+03  1.36878E+03 -2.18642E+03
  2.81288E+03 -2.51274E+03  6.13119E+03  8.41353E+02  5.84923E+03  7.83169E+03 -1.97840E+03  1.08613E+04
 -9.21174E+03  6.74529E+03 -1.10980E+04  1.82449E+03 -8.34204E+03 -5.41832E+03 -3.67944E+03 -6.50305E+03
  2.25217E+02 -7.20432E+03  5.32812E+03 -2.27325E+03  3.37119E+03  2.13640E+03 -1.42560E+03  6.90788E+03
 -6.67154E+03  3.13562E+03 -8.80574E+03 -3.77632E+03 -4.72416E+03 -8.89025E+03  1.87513E+03 -8.47722E+03
  6.91915E+03 -7.32653E+03  7.27444E+03  6.21548E+02  5.86637E+03  1.22829E+03  1.59947E+03  3.16116E+03
 -1.67541E+03  6.97366E+02 -3.78361E+03 -3.51345E+03  1.38266E+03 -7.77648E+03  9.09938E+03 -5.73701E+03
  1.10743E+04  9.90878E+02  1.02647E+04  6.56605E+03  2.24504E+03  1.04192E+04 -4.39835E+03  1.00437E+04
 -9.69485E+03  6.04629E+03 -1.01442E+04 -1.08209E+03 -3.73634E+03 -7.74024E+03  1.00430E+03 -6.92335E+03
  7.89516E+03 -2.77037E+03  6.67381E+03  3.43633E+03  1.75599E+03  5.39368E+03 -1.99683E+03  4.45110E+03
 -4.22390E+03  4.68820E+03 -3.57408E+03  8.47727E+02 -2.28446E+03  3.82200E+02  1.43141E+02  2.62724E+03
 -1.94359E+03  5.42555E+03 -7.16705E+03  4.82877E+03 -1.03922E+04 -5.49828E+02 -1.11958E+04 -7.60017E+03
 -6.89219E+03 -1.33321E+04  1.91449E+03 -1.67231E+04  1.08270E+04 -1.26750E+04  1.63322E+04 -4.91635E+03
  1.44454E+04  2.33149E+03  8.84470E+03  1.00291E+04  2.26622E+03  1.04345E+04 -5.58662E+03  8.72362E+03
 -5.80753E+03  2.89511E+03 -4.08132E+03 -1.66717E+03 -3.97959E+02 -8.29133E+02 -1.20759E+02 -2.61887E+02
 -1.34306E+03  1.22559E+03 -3.13267E+03 -7.92624E+02 -3.82637E+02 -1.31315E+03  7.89364E+02 -4.56337E+03
  4.96513E+03 -3.98370E+03  6.63282E+03 -5.38144E+02  8.39111E+03  6.41793E+03  2.91101E+03  1.15156E+04
 -6.06009E+03  1.34374E+04 -1.07978E+04  8.30437E+03 -1.46336E+04  1.71644E+02 -1.16743E+04 -1.01338E+04
 -5.20914E+03 -1.17001E+04  1.54355E+03 -1.14261E+04  7.60209E+03 -5.18008E+03  9.02528E+03 -7.64503E+02
  3.86997E+03  4.22896E+03 -2.10196E+03  1.08953E+03  2.29573E+02 -2.56289E+02 -1.43579E+03 -2.54841E+03
  4.98800E+03 -7.83830E+02  4.06367E+03  8.16250E+02  4.12860E+03  4.36425E+03  1.63590E+02  4.66710E+03
 -4.41787E+03  6.25370E+03 -6.22834E+03 -4.47722E+01 -8.41194E+03 -4.24877E+03 -2.70750E+03 -9.89959E+03
  5.59141E+03 -7.46748E+03  8.33078E+03 -2.96021E+03  9.73027E+03  3.59496E+03  4.27796E+03  7.03670E+03
 -3.85079E+02  7.97818E+03 -2.30351E+03  7.89205E+03 -5.03977E+03  3.68093E+03 -4.78001E+03 -7.61838E+02
 -1.74144E+03 -2.05659E+03 -5.50335E+02  1.09080E+03 -3.38272E+03  1.42106E+03 -7.39382E+03 -1.64339E+03
 -5.66202E+03 -4.54106E+03 -1.67751E+03 -9.42501E+03  2.03946E+03 -8.63256E+03  7.65520E+03 -5.87528E+03
  7.31264E+03  2.57853E+03  4.30820E+03  6.68701E+03 -3.30519E+02  6.41563E+03 -6.91899E+03  2.30775E+03
