 $NMID ID='MM_0lb_SNR200_10hz_g55_78.RAW', FMTDAT='(8E13.5)'
 TRAMP=1., VOLUME=1. $END
  3.11353E+05 -5.27446E+02  3.40370E+05  2.49955E+05  8.53567E+04  3.37666E+05 -1.32632E+05  2.50666E+05
 -1.90286E+05  8.35341E+04 -1.12231E+05 -3.43047E+04  6.11906E+02 -5.09948E+04  5.25482E+04 -1.64210E+03
  3.42760E+04  5.40563E+04 -1.68253E+04  7.73743E+04 -6.23522E+04  6.50157E+04 -8.63267E+04  3.25210E+04
 -8.27687E+04 -1.24485E+04 -5.77178E+04 -5.12831E+04 -1.48190E+04 -7.05347E+04  2.78294E+04 -4.69859E+04
  4.12358E+04  4.77474E+03  1.72489E+04  4.76399E+04 -3.43174E+04  4.70229E+04 -6.92678E+04  5.59913E+02
 -5.58668E+04 -5.84590E+04 -6.11288E+03 -7.85867E+04  3.36341E+04 -5.72852E+04  4.90355E+04 -1.87687E+04
  4.35061E+04  1.27623E+04  3.35816E+04  2.72865E+04  1.63267E+04  3.06028E+04 -4.23864E+03  2.95774E+04
 -2.24916E+04  1.37488E+04 -1.76490E+04 -6.29815E+03  7.72048E+03 -7.93292E+03  2.25925E+04  1.46057E+04
  8.00688E+03  3.82182E+04 -3.55324E+04  3.75416E+04 -6.54503E+04  1.32323E+03 -5.91858E+04 -4.39104E+04
 -1.27769E+04 -6.64683E+04  4.12029E+04 -4.73215E+04  6.18888E+04 -2.15264E+03  3.59473E+04  3.31506E+04
 -6.22840E+03  3.90707E+04 -3.16020E+04  1.73936E+04 -3.23519E+04 -4.55118E+03 -1.82154E+04 -1.19990E+04
 -9.53781E+03 -1.50991E+04  8.29294E+02 -1.96756E+04  7.83181E+03 -2.40376E+04  1.65512E+04 -1.24409E+04
  9.24183E+03  6.27382E+03 -1.11268E+04  1.37010E+04 -2.46505E+04 -5.91307E+03 -7.72052E+03 -3.88088E+04
  2.43941E+04 -4.85472E+04  5.20728E+04 -2.08386E+04  4.90919E+04  1.99962E+04  1.77173E+04  4.56673E+04
 -1.68009E+04  3.63723E+04 -2.83551E+04  8.41276E+02 -1.15789E+04 -3.13706E+04  2.04130E+04 -3.68727E+04
  4.28144E+04 -1.17666E+04  3.93415E+04  2.48009E+04  2.19277E+04  5.15621E+04 -8.36223E+03  5.37813E+04
 -3.53644E+04  3.77078E+04 -4.62743E+04  1.17351E+04 -4.79355E+04 -1.86564E+04 -2.58559E+04 -4.09562E+04
  7.16678E+03 -4.22424E+04  3.40223E+04 -1.69438E+04  3.20278E+04  1.14621E+04  5.45042E+03  2.24293E+04
 -1.36406E+04  9.67622E+03 -1.12917E+04 -7.88537E+03  5.92135E+03 -1.11835E+04  1.82028E+04  3.41637E+03
  1.57604E+04  2.10221E+04 -4.69985E+03  2.46115E+04 -2.35355E+04  1.47135E+04 -3.05042E+04 -3.92864E+03
 -2.52760E+04 -1.73470E+04 -1.04502E+04 -2.50011E+04  3.35472E+03 -2.50369E+04  1.90843E+04 -2.23473E+04
  3.19513E+04 -1.45221E+04  3.74742E+04  4.85543E+03  2.74306E+04  2.38395E+04  4.83540E+03  4.12900E+04
 -1.93614E+04  3.34908E+04 -3.00239E+04  1.29367E+04 -2.33366E+04 -1.00115E+04 -4.49411E+03 -1.21614E+04
  1.70875E+03 -2.04489E+03 -6.23344E+03  8.68730E+03 -2.06360E+04  4.82984E+03 -1.91797E+04 -1.12756E+04
 -1.32375E+04 -2.35132E+04  6.28917E+03 -2.69662E+04  1.84863E+04 -1.97026E+04  2.10003E+04 -2.80155E+03
  1.36194E+04  1.43962E+04  6.37454E+01  2.33344E+04 -1.73004E+04  1.39521E+04 -2.36156E+04 -4.24455E+03
 -1.71531E+04 -2.02262E+04 -2.98063E+03 -2.77591E+04  1.31786E+04 -2.34480E+04  2.16699E+04 -1.12876E+04
  2.09004E+04  3.90437E+01  1.47247E+04  4.23874E+03  8.30008E+03  1.26291E+03  1.16500E+04 -1.91808E+03
  2.06682E+04  2.65436E+03  2.63421E+04  1.84196E+04  1.60939E+04  3.59193E+04 -3.55278E+03  4.32652E+04
 -2.44955E+04  3.61133E+04 -4.07500E+04  1.88471E+04 -4.40655E+04 -2.64333E+03 -3.51763E+04 -2.56286E+04
 -1.52562E+04 -3.71591E+04  1.32546E+04 -3.19568E+04  2.80370E+04 -1.37366E+04  2.45968E+04  8.09908E+03
  8.51004E+03  1.65718E+04 -1.08723E+04  1.52801E+04 -1.98163E+04  2.58858E+03 -1.43674E+04 -1.16875E+04
 -9.71162E+02 -2.03212E+04  1.13282E+04 -1.44641E+04  1.29973E+04 -1.54525E+03  3.25434E+03  8.14702E+03
 -7.68051E+03  3.04725E+03 -9.01140E+03 -7.78300E+03 -2.47946E+03 -1.70553E+04  1.09568E+04 -1.84669E+04
  2.11151E+04 -1.05239E+04  2.52993E+04  3.45776E+03  2.18168E+04  1.81602E+04  1.05956E+04  2.76357E+04
 -4.58119E+03  2.98700E+04 -1.87580E+04  1.83104E+04 -2.09853E+04  5.87734E+03 -1.49014E+04 -6.14633E+03
 -6.08681E+03 -5.71976E+03 -2.84372E+02  5.95426E+02 -3.18637E+03  2.83857E+03 -6.19021E+03  5.84083E+03
 -1.46172E+04 -8.98277E+01 -1.38629E+04 -9.45374E+03 -6.38624E+03 -1.87814E+04  5.95229E+03 -1.53866E+04
  1.33353E+04 -6.29298E+03  8.97548E+03  4.51305E+03 -1.11389E+02  5.63161E+03 -7.15299E+03  2.09434E+02
 -5.73629E+03 -9.95782E+03 -3.23612E+03 -1.57309E+04  9.05820E+03 -1.61671E+04  1.91943E+04 -9.92716E+03
  2.28127E+04  1.27181E+03  1.55925E+04  1.37848E+04  4.43295E+03  1.85205E+04 -9.35908E+03  1.34028E+04
 -1.26436E+04  4.68832E+03 -5.21253E+03 -4.46244E+03  1.74832E+03 -4.46684E+03  8.04572E+03  6.37755E+00
  8.28437E+03  6.29816E+03  2.33670E+03  1.18585E+04 -9.05645E+03  1.32033E+04 -1.55161E+04  4.69087E+03
 -1.20309E+04 -7.44130E+03  1.21915E+03 -1.30064E+04  7.77430E+03 -6.38561E+03  9.08650E+03  3.30702E+03
  2.43605E+03  9.78813E+03 -6.40848E+03  1.08134E+04 -1.24067E+04  4.29751E+03 -1.22735E+04 -4.90935E+03
 -7.85520E+03 -1.47246E+04  3.42572E+03 -1.83362E+04  1.43105E+04 -9.53669E+03  1.44882E+04  2.35579E+03
  1.10946E+04  1.16162E+04 -1.45216E+03  1.37528E+04 -1.28804E+04  7.90805E+03 -1.26848E+04 -8.17564E+02
 -8.51766E+03 -9.26591E+03 -1.13943E+03 -1.31201E+04  4.96486E+03 -8.34559E+03  7.33808E+03 -4.58569E+03
  4.85470E+03  1.66699E+03  3.37534E+02  1.82095E+03 -2.88825E+02 -3.25513E+03  2.48371E+03 -6.57319E+03
  9.79373E+03 -5.40350E+03  1.45504E+04  3.38884E+03  1.51087E+04  1.05693E+04  9.30425E+03  2.00017E+04
 -4.43964E+03  2.32141E+04 -1.94919E+04  1.65598E+04 -2.47056E+04  3.61367E+03 -1.99269E+04 -8.92346E+03
 -1.08602E+04 -1.56781E+04  9.73335E+02 -1.44156E+04  4.37944E+03 -8.28364E+03  5.82902E+03 -5.08965E+03
  3.57137E+03 -4.14234E+03  3.37467E+03 -3.68109E+03  4.47626E+03 -2.91323E+03  8.73433E+03  2.57685E+02
  9.79683E+03  2.70523E+03  6.31865E+03  8.65599E+03 -2.41949E+03  1.00542E+04 -9.27083E+03  9.15457E+03
 -1.30030E+04 -4.00442E+02 -8.46808E+03 -9.08739E+03 -2.54085E+03 -1.38759E+04  8.27652E+03 -1.49341E+04
  1.52808E+04 -7.77309E+03  1.79718E+04  1.23581E+03  1.25662E+04  1.20800E+04  2.53210E+03  1.63430E+04
 -8.03715E+03  1.34154E+04 -9.58677E+03  4.56936E+03 -7.26692E+03 -4.47182E+02 -1.62779E+03 -2.39587E+03
  4.90997E+02  7.86004E+02 -2.28838E+03  1.21948E+03 -5.31430E+03  3.04879E+03 -8.81793E+03 -8.16738E+02
 -7.07652E+03 -9.12598E+03  1.65398E+03 -1.37285E+04  8.27528E+03 -1.28773E+04  1.26769E+04 -2.04468E+03
  1.50850E+04  5.56461E+03  6.40791E+03  1.25411E+04 -2.13664E+03  1.52309E+04 -1.02584E+04  8.37809E+03
 -1.32135E+04  1.05305E+03 -1.04165E+04 -9.12480E+03 -2.60640E+03 -1.13577E+04  6.49879E+03 -8.27704E+03
  9.38864E+03 -2.49562E+03  6.40981E+03  2.41596E+03  1.86009E+03  3.14112E+03  2.11545E+03  1.90717E+03
  2.63018E+03  1.37288E+03  3.75061E+03  9.28169E+02  2.32128E+03  4.37649E+03  4.13810E+03  6.36743E+03
 -3.35466E+03  1.15101E+04 -1.04789E+04  1.00732E+04 -1.31338E+04  1.51648E+03 -1.48216E+04 -6.30589E+03
 -7.97796E+03 -1.30512E+04  2.78834E+03 -1.43842E+04  1.01798E+04 -8.19476E+03  1.17796E+04 -2.60284E+03
  9.17330E+03  4.95669E+03  2.36795E+03  7.88665E+03 -3.98015E+03  4.62723E+03 -4.63925E+03 -3.40819E+02
 -4.06147E+03 -5.34336E+03  2.47359E+03 -6.21837E+03  4.34604E+03 -2.39003E+03  4.99271E+03  9.23291E+02
  3.17902E+03  2.56755E+03  1.68801E+03  2.53646E+03 -3.02848E+01  1.76455E+03  2.35535E+03 -1.81105E+03
  1.97358E+03 -7.12011E+02  6.21978E+03  1.47366E+03  3.58971E+03  7.53699E+03 -2.08561E+03  1.04479E+04
 -6.84059E+03  5.26404E+03 -7.31902E+03  2.25456E+03 -7.42685E+03 -3.29711E+03 -3.47809E+03 -5.54973E+03
  7.85213E+02 -6.26917E+03  3.46642E+03 -2.64461E+03  2.82113E+03  4.39077E+03 -1.47185E+03  4.30828E+03
 -6.67568E+03  2.54603E+03 -7.47112E+03 -1.72059E+03 -3.35181E+03 -7.03233E+03  2.70674E+02 -6.22095E+03
  3.68889E+03 -4.44313E+03  6.36845E+03 -1.05700E+03  2.37989E+03  1.12842E+03  5.45855E+02  3.24646E+03
 -5.24947E+02  1.87970E+03 -3.73503E+03 -2.76559E+03  1.61445E+03 -5.33922E+03  7.15601E+03 -4.32096E+03
  8.95100E+03  7.32083E+02  8.11836E+03  6.09416E+03  2.65393E+03  9.89202E+03 -2.74833E+03  8.90544E+03
 -6.78806E+03  4.83532E+03 -8.52058E+03 -1.06621E+03 -3.17865E+03 -5.44793E+03  1.41319E+03 -6.14222E+03
  6.90755E+03 -1.87043E+03  5.06174E+03  4.67656E+03  1.23320E+03  5.60136E+03 -1.18056E+03  4.69708E+03
 -1.90075E+03  3.54676E+03 -2.63879E+03  4.81980E+02 -6.03806E+02  4.10169E+02 -1.67807E+03  1.15352E+03
 -2.12934E+03  2.44560E+03 -5.75825E+03  4.35669E+03 -9.45709E+03 -4.35821E+02 -1.10837E+04 -7.06192E+03
 -6.84745E+03 -1.26724E+04  2.18577E+03 -1.23355E+04  8.89307E+03 -1.02874E+04  1.29837E+04 -3.75224E+03
  1.32307E+04  2.04029E+03  8.41891E+03  7.51128E+03  3.58636E+01  9.31079E+03 -2.31881E+03  5.96600E+03
 -4.20382E+03  2.68863E+03 -3.20743E+03 -3.00663E+03 -2.67961E+03 -9.24311E+02  1.09680E+03  1.58263E+03
 -3.02698E+03 -2.38289E+02 -2.25112E+03 -8.06597E+02 -1.38724E+02 -2.42125E+03 -6.08697E+02 -2.47095E+03
  4.59785E+03 -3.11446E+03  5.67554E+03  4.13973E+02  6.36753E+03  4.08121E+03  1.82558E+03  8.75464E+03
 -3.43800E+03  1.23129E+04 -9.29077E+03  6.20914E+03 -1.04292E+04  2.36258E+02 -8.72333E+03 -6.87351E+03
 -4.17999E+03 -9.31188E+03  2.64013E+03 -8.02610E+03  5.55895E+03 -4.54727E+03  6.04412E+03 -3.23099E+02
  3.83782E+03  8.58460E+02 -1.17935E+03  3.87998E+03 -1.85755E+03 -1.07566E+03  9.62231E+01 -2.49589E+03
  2.20302E+03 -1.34795E+03  4.53736E+03  8.55792E+02  3.07353E+03  3.44281E+03 -2.28817E+02  3.88440E+03
 -3.73516E+03  5.90036E+03 -7.30326E+03 -6.30064E+02 -5.50765E+03 -2.76845E+03 -1.45446E+03 -9.09811E+03
  3.93394E+03 -7.35937E+03  5.81922E+03 -2.77313E+03  5.93207E+03  1.00842E+03  4.93225E+03  5.88031E+03
  7.04052E+02  8.27799E+03 -1.13322E+03  4.35407E+03 -3.44057E+03  2.73025E+03 -3.17861E+03  1.67502E+03
 -2.17775E+03  2.53021E+02 -1.81171E+03  9.23312E+02 -3.79476E+03  1.36715E+03 -5.32678E+03 -1.22909E+03
 -5.39099E+03 -2.05890E+03 -1.25460E+03 -5.26578E+03  1.82099E+03 -6.01513E+03  6.61704E+03 -1.41501E+03
  7.19018E+03  2.05888E+03  2.86947E+03  4.14835E+03  1.43201E+03  7.41111E+03 -4.59944E+03  4.00655E+03
