 $NMID ID='MM_0lb_SNR200_18hz_g55_20.RAW', FMTDAT='(8E13.5)'
 TRAMP=1., VOLUME=1. $END
  3.10850E+05  1.51777E+02  3.36975E+05  2.50936E+05  8.36799E+04  3.38351E+05 -1.32931E+05  2.49568E+05
 -1.89341E+05  8.26713E+04 -1.11533E+05 -3.35416E+04  3.97777E+02 -5.00790E+04  5.36995E+04 -3.90808E+02
  3.57414E+04  5.25821E+04 -1.72284E+04  7.51951E+04 -6.07131E+04  6.24371E+04 -8.42676E+04  3.24351E+04
 -8.02497E+04 -1.11061E+04 -5.52942E+04 -5.13037E+04 -1.51148E+04 -6.93711E+04  2.74184E+04 -4.51856E+04
  4.02157E+04  3.58527E+03  1.61864E+04  4.67863E+04 -3.37798E+04  4.76781E+04 -6.68078E+04 -8.33608E+02
 -5.28485E+04 -5.58785E+04 -5.27807E+03 -7.63846E+04  3.41325E+04 -5.36058E+04  4.65585E+04 -1.61345E+04
  4.18846E+04  1.18068E+04  3.14600E+04  2.51223E+04  1.60933E+04  2.92960E+04 -4.86022E+03  2.74585E+04
 -2.23146E+04  1.33398E+04 -1.92956E+04 -5.53761E+03  5.36056E+03 -7.22285E+03  2.19056E+04  1.20573E+04
  7.92421E+03  3.50771E+04 -3.13142E+04  3.41375E+04 -6.25241E+04  1.81198E+03 -5.59641E+04 -4.20305E+04
 -1.16257E+04 -6.19884E+04  3.91467E+04 -4.36169E+04  5.65161E+04 -3.51679E+03  3.31992E+04  3.20850E+04
 -6.23024E+03  3.38782E+04 -2.80307E+04  1.46658E+04 -2.82661E+04 -3.35206E+03 -1.54973E+04 -9.95513E+03
 -7.94279E+03 -1.16960E+04 -6.17919E+02 -1.68065E+04  6.92703E+03 -2.24498E+04  1.52810E+04 -1.43532E+04
  1.16088E+04  3.50979E+03 -8.14132E+03  1.28913E+04 -2.00248E+04 -2.38542E+03 -7.84479E+03 -3.19172E+04
  2.15822E+04 -4.25041E+04  4.62418E+04 -1.84332E+04  4.39606E+04  1.83076E+04  1.50068E+04  4.25902E+04
 -1.47806E+04  3.16931E+04 -2.51667E+04  1.01823E+03 -9.43744E+03 -2.55098E+04  1.91331E+04 -3.15693E+04
  3.93056E+04 -7.40027E+03  3.23677E+04  2.32467E+04  1.73202E+04  4.38640E+04 -8.81961E+03  4.69618E+04
 -2.85403E+04  3.14533E+04 -3.89372E+04  9.28803E+03 -3.98957E+04 -1.53137E+04 -2.17490E+04 -3.46186E+04
  6.70196E+03 -3.60335E+04  3.02275E+04 -1.29648E+04  2.75827E+04  1.02751E+04  3.41393E+03  1.78156E+04
 -1.32041E+04  7.66330E+03 -1.01141E+04 -7.80001E+03  6.66803E+03 -9.98414E+03  1.71377E+04  7.28358E+03
  1.36661E+04  2.16444E+04 -6.45052E+03  2.38360E+04 -2.26049E+04  9.84693E+03 -2.68738E+04 -5.82387E+03
 -1.68754E+04 -1.65085E+04 -6.99354E+03 -1.88515E+04  3.88062E+03 -1.64668E+04  1.33495E+04 -1.50945E+04
  2.34060E+04 -1.19220E+04  2.92819E+04  1.07249E+03  2.23617E+04  1.78300E+04  3.48742E+03  3.31297E+04
 -1.69530E+04  2.83606E+04 -2.62311E+04  1.08465E+04 -2.08013E+04 -1.14480E+04 -4.28237E+03 -1.43082E+04
  2.49980E+03 -4.70371E+03 -4.06055E+03  5.26509E+03 -1.46464E+04  4.52942E+03 -1.49784E+04 -5.71404E+03
 -8.80905E+03 -1.72372E+04  4.63316E+03 -2.00759E+04  1.21988E+04 -1.47128E+04  1.66161E+04 -1.23249E+03
  1.01033E+04  1.12279E+04 -1.95207E+03  1.64538E+04 -1.07997E+04  8.11427E+03 -1.59130E+04 -4.17592E+03
 -1.26368E+04 -1.43531E+04 -2.03769E+03 -1.99370E+04  9.08428E+03 -1.78244E+04  1.81034E+04 -8.84721E+03
  1.65493E+04  7.49338E+02  1.11733E+04  4.60755E+03  5.67107E+03 -1.09002E+02  8.41479E+03 -1.24918E+03
  1.39914E+04  2.54955E+03  1.72735E+04  1.43085E+04  9.96626E+03  2.65210E+04 -3.16615E+03  2.87958E+04
 -1.79101E+04  2.26284E+04 -2.77374E+04  1.07819E+04 -2.84544E+04 -1.72706E+03 -2.29712E+04 -1.49348E+04
 -1.11800E+04 -2.21590E+04  7.88874E+03 -1.98138E+04  1.80274E+04 -1.12206E+04  1.68810E+04  3.27761E+03
  6.17424E+03  1.20532E+04 -7.36131E+03  1.06961E+04 -1.35704E+04  3.53231E+03 -1.07314E+04 -8.48882E+03
 -6.91085E+01 -1.41894E+04  6.53548E+03 -1.02772E+04  9.07790E+03 -1.20570E+03  2.32507E+03  4.58141E+03
 -5.36168E+03  1.67959E+03 -4.86099E+03 -5.33560E+03  1.87205E+02 -1.05646E+04  8.46582E+03 -1.14371E+04
  1.45579E+04 -6.39086E+03  1.27070E+04  2.68824E+03  1.19007E+04  1.08576E+04  6.27205E+03  1.57393E+04
 -2.02700E+03  1.80173E+04 -9.88850E+03  1.11229E+04 -1.29979E+04  3.05425E+03 -8.25306E+03 -1.90206E+03
 -5.05477E+03 -3.09931E+03 -7.91221E+02  6.93331E+02 -2.38731E+03  2.70370E+03 -4.89063E+03  3.93331E+03
 -9.92412E+03  1.00030E+01 -8.29842E+03 -6.63851E+03 -3.80294E+03 -1.29434E+04  5.12518E+03 -9.47024E+03
  6.69328E+03 -4.38841E+03  5.83795E+03  2.04886E+03 -4.49441E+01  3.36098E+03 -3.13217E+03 -8.96338E+01
 -3.59018E+03 -5.46691E+03  5.58751E+02 -8.22887E+03  4.54192E+03 -7.48294E+03  1.11952E+04 -3.82503E+03
  1.18695E+04  8.33575E+02  9.91649E+03  6.71880E+03  1.94798E+03  8.57473E+03 -5.23068E+03  7.76735E+03
 -7.61971E+03  3.56767E+03 -3.42139E+03 -2.34914E+03  2.21921E+03 -1.58818E+03  4.01590E+03 -1.09763E+03
  4.89662E+03  3.07065E+03  2.23270E+03  7.34066E+03 -5.00783E+03  7.02098E+03 -8.54838E+03  3.08366E+03
 -5.71825E+03 -3.62654E+03 -3.60857E+02 -7.76886E+03  3.12358E+03 -3.61505E+03  4.75711E+03  1.03066E+03
  5.74370E+02  3.74489E+03 -4.44880E+03  4.10152E+03 -6.00927E+03  2.90090E+03 -5.15564E+03 -1.90146E+03
 -4.90912E+03 -7.07091E+03  1.86114E+03 -8.09604E+03  6.94445E+03 -5.28789E+03  6.74701E+03 -2.51857E+02
  4.34683E+03  6.44437E+03  4.45913E+02  7.25292E+03 -5.01405E+03  4.50708E+03 -4.85553E+03 -8.88239E+01
 -5.53680E+03 -5.23684E+03 -1.36690E+03 -6.04723E+03  3.38735E+03 -4.84207E+03  5.08431E+03 -3.19654E+03
  3.39664E+03  1.26391E+03 -9.55805E+02  1.78404E+03 -5.28673E+02 -1.58908E+03  1.48700E+03 -2.19371E+03
  3.83691E+03 -1.43571E+03  5.40795E+03  7.72647E+02  5.92862E+03  3.12443E+03  5.88252E+03  8.15593E+03
 -1.33208E+03  9.08520E+03 -8.34767E+03  6.32983E+03 -1.10685E+04  1.57262E+03 -7.87654E+03 -2.51920E+03
 -4.07140E+03 -6.47527E+03 -6.92710E+02 -6.19535E+03  2.63234E+03 -3.39522E+03  1.30411E+03 -1.60487E+03
  6.37934E+01 -6.15657E+02  1.84280E+03 -2.44137E+03  3.78775E+03 -1.44514E+03  4.13520E+03 -2.99269E+01
  5.31858E+03  8.13850E+02  2.49964E+03  3.26089E+03 -2.00653E+03  2.21429E+03 -5.25775E+03  2.79181E+03
 -5.53137E+03 -1.05356E+03 -3.02683E+03 -3.04049E+03 -7.46508E+02 -5.67338E+03  3.99189E+03 -6.07800E+03
  5.51084E+03 -3.27077E+03  7.62357E+03  1.05245E+02  5.68836E+03  5.29363E+03  1.45328E+03  5.28776E+03
 -2.16900E+03  6.59956E+03 -3.86565E+03  2.97338E+03 -2.17288E+03 -8.17269E+02 -9.60499E+02 -6.21703E+02
 -5.84362E+02  1.24300E+03 -8.37811E+02  1.69014E+03 -2.29070E+03  1.41365E+03 -5.35387E+03 -8.53188E+01
 -1.91240E+03 -5.04082E+03  1.76437E+03 -4.71986E+03  2.82712E+03 -4.58387E+03  4.38264E+03 -5.89640E+02
  3.97101E+03  2.48039E+03  1.84902E+03  3.28008E+03 -1.75409E+03  4.74107E+03 -2.48725E+03  3.63092E+03
 -4.31003E+03  1.03577E+03 -3.06827E+03 -3.39280E+03  3.37453E+02 -3.29686E+03  4.27686E+02 -2.20995E+03
  2.00089E+03 -2.04627E+03  1.87988E+03  1.73712E+02  1.22439E+02  8.41199E+01  1.06248E+03  3.80945E+02
  1.78599E+03 -6.13350E+01  1.18498E+03  8.99418E+02  3.69905E+02  1.27657E+03  5.84445E+02  1.18340E+03
 -3.31512E+02  2.65818E+03 -3.16842E+03  4.12483E+03 -3.57314E+03  1.31764E+03 -4.48264E+03 -1.12127E+03
 -1.80118E+03 -4.35849E+03  8.91847E+02 -5.85743E+03  1.67841E+03 -2.50252E+03  4.84767E+03 -1.12088E+03
  2.75707E+03  1.59332E+03  9.44096E+01  2.47968E+03 -1.02297E+03  1.24781E+03 -1.42448E+03  4.07699E+02
 -7.23050E+02 -4.60690E+02  7.08780E+02 -1.08782E+03  2.10687E+03 -1.27445E+03  1.91623E+03  1.23350E+03
 -4.84858E+02  8.73486E+02  2.40877E+03  3.14798E+02  1.35894E+02 -1.48404E+02  1.03180E+03 -2.28323E+02
  1.29937E+03  1.10237E+02  2.95187E+03  1.40752E+03 -4.12611E+02  1.81518E+03  9.60845E+01  3.68008E+03
 -1.54210E+03  1.27502E+03 -1.80251E+03  1.24469E+03 -2.80825E+03  1.22416E+03 -2.32544E+02 -1.21172E+03
  3.23042E+02 -1.57385E+03  1.76212E+03 -9.76754E+02 -1.20735E+02  1.22117E+03 -6.26079E+02  1.33474E+02
 -1.66783E+03  1.54027E+03 -6.76962E+02 -1.25340E+03 -2.28812E+03 -1.53827E+03 -6.07279E+01 -5.80591E+02
  3.64663E+02 -1.15855E+03  6.19613E+01  7.63242E+02  1.93204E+03  1.28949E+02  1.03945E+03  1.87001E+03
 -6.53472E+02  2.92908E+02  1.22993E+02 -3.99180E+01 -7.46814E+02 -1.64255E+03  1.68831E+03 -1.29609E+03
  9.34172E+02  9.58155E+02  2.70508E+03 -3.30251E+02  7.02666E+02  1.95881E+03 -1.32076E+03  9.82369E+02
 -1.13812E+03  2.55411E+02 -1.28544E+03  4.11388E+02 -3.64371E+02 -1.59915E+03  5.33958E+02 -7.74259E+02
  2.13301E+03 -1.06786E+02  3.46272E+02  1.13433E+03 -6.84143E+02  4.61049E+02  7.64758E+02  1.55349E+03
  5.14005E+01  1.78914E+03 -6.75041E+02 -2.87821E+01  8.97894E+02  4.42388E+02  7.26134E+02  1.34021E+03
 -1.83713E+02  1.20336E+03 -1.66852E+03  9.66147E+01 -2.56897E+03 -1.69978E+02 -3.38521E+03 -2.06810E+03
 -7.25530E+02 -2.04197E+03  1.10246E+02 -2.14130E+03 -2.32044E+02 -3.53623E+03  3.49349E+03 -1.25341E+03
  2.71445E+03 -7.63976E+02  1.10206E+03  1.50757E+03 -1.03735E+03  1.76710E+03 -3.47379E+02  1.73079E+03
 -7.76057E+02  8.88268E+02 -2.10723E+02  1.40849E+03  6.54535E+02  3.33134E+02 -2.40828E+02  4.27222E+02
 -6.38203E+02 -7.46853E+02 -1.46538E+03 -4.93709E+02  7.06344E+01 -1.50771E+03 -8.32989E+02 -8.38165E+02
  1.52784E+03  6.58705E+02 -4.72166E+02  7.38765E+02  1.04895E+03  6.69068E+02 -8.31166E+01  1.88869E+03
 -1.61258E+03  2.10137E+03 -1.75029E+03  1.00421E+03 -9.40858E+02  3.00207E+01 -1.62954E+03 -1.30561E+03
 -1.09431E+03 -9.56333E+02  1.57342E+02 -3.89151E+02  1.34378E+03  1.89400E+02  2.18950E+03 -2.07362E+02
  9.48185E+02 -2.45321E+02 -5.90385E+02  2.99991E+02 -1.86911E+02 -5.93672E+02  2.91344E+01 -3.91909E+02
  2.97235E+02  5.74918E+02  1.57635E+02  1.66822E+02  2.96375E+02 -8.79211E+01  7.32199E+02  5.41722E+02
 -4.53698E+02 -3.09116E+02 -8.12008E+02 -9.19192E+02 -4.77113E+02  1.79150E+02 -5.60013E+02 -8.67100E+02
  1.18504E+03 -4.56063E+02  7.06623E+02 -3.93870E+02  1.38974E+02 -3.81101E+02  8.57490E+02  8.37540E+02
  8.34101E+02  1.53863E+03 -3.89770E+02 -2.80649E+02 -1.08977E+03  7.38235E+02  2.23953E+01  3.78963E+02
 -1.19443E+02  5.25747E+02 -5.59646E+02  3.30551E+02  1.76454E+02  7.24094E+01 -1.37145E+03 -3.98834E+02
 -8.40662E+02  4.99752E+02 -1.71760E+02 -8.75284E+02  1.13257E+03 -2.14081E+03  1.40766E+03 -6.49510E+02
  3.96800E+02  1.26782E+03 -1.23320E+02  1.35358E+03  2.04342E+02  7.25816E+02 -9.37182E+02  7.83002E+02
