 $NMID ID='MM_0lb_SNR200_16hz_g55_38.RAW', FMTDAT='(8E13.5)'
 TRAMP=1., VOLUME=1. $END
  3.09147E+05 -7.41853E+01  3.37986E+05  2.50184E+05  8.52286E+04  3.36871E+05 -1.32511E+05  2.50618E+05
 -1.91279E+05  8.32026E+04 -1.12048E+05 -3.29694E+04  1.67604E+03 -5.01675E+04  5.27528E+04 -1.18266E+03
  3.53330E+04  5.31767E+04 -1.64109E+04  7.58413E+04 -6.08057E+04  6.29612E+04 -8.39823E+04  3.26796E+04
 -8.03414E+04 -1.10879E+04 -5.73017E+04 -5.21424E+04 -1.35834E+04 -7.00468E+04  2.74417E+04 -4.52028E+04
  3.92768E+04  4.15493E+03  1.50810E+04  4.64727E+04 -3.43736E+04  4.71413E+04 -6.59569E+04 -5.69403E+02
 -5.32246E+04 -5.76007E+04 -8.50061E+03 -7.69070E+04  3.42145E+04 -5.43327E+04  4.80239E+04 -1.68359E+04
  4.21656E+04  1.14743E+04  3.17910E+04  2.50013E+04  1.61073E+04  2.95764E+04 -4.51433E+03  2.69250E+04
 -2.32815E+04  1.21412E+04 -1.86232E+04 -5.91202E+03  6.16336E+03 -6.47695E+03  2.20512E+04  1.22592E+04
  7.76862E+03  3.53320E+04 -3.22766E+04  3.51427E+04 -6.34146E+04  1.58357E+03 -5.68809E+04 -4.31352E+04
 -1.21637E+04 -6.24059E+04  3.92400E+04 -4.43962E+04  5.83345E+04 -1.22497E+03  3.52705E+04  3.19099E+04
 -6.96999E+03  3.45533E+04 -2.98278E+04  1.63782E+04 -3.02639E+04 -5.69003E+03 -1.56464E+04 -9.82456E+03
 -7.86720E+03 -1.31544E+04 -7.89329E+02 -1.85500E+04  6.80364E+03 -2.12868E+04  1.57455E+04 -1.38437E+04
  1.31179E+04  4.83360E+03 -7.35797E+03  1.32787E+04 -2.10663E+04 -2.60320E+03 -8.52878E+03 -3.18587E+04
  2.29169E+04 -4.24620E+04  4.75845E+04 -1.99188E+04  4.42987E+04  1.86215E+04  1.51099E+04  4.34016E+04
 -1.44608E+04  3.36355E+04 -2.44503E+04  1.79504E+03 -1.01915E+04 -2.75812E+04  2.07800E+04 -3.36506E+04
  3.97947E+04 -7.24221E+03  3.44347E+04  2.34934E+04  1.71010E+04  4.49344E+04 -8.59431E+03  4.94547E+04
 -2.99320E+04  3.29077E+04 -4.06931E+04  8.61792E+03 -4.16824E+04 -1.52602E+04 -2.32774E+04 -3.77968E+04
  6.39507E+03 -3.65049E+04  3.14948E+04 -1.40844E+04  2.85601E+04  1.11353E+04  3.24622E+03  1.93860E+04
 -1.26380E+04  6.92781E+03 -1.00585E+04 -7.24312E+03  4.75357E+03 -1.01948E+04  1.78168E+04  5.48458E+03
  1.30392E+04  2.31367E+04 -7.36333E+03  2.51469E+04 -2.17637E+04  1.03190E+04 -2.77846E+04 -4.74265E+03
 -1.98168E+04 -1.68208E+04 -8.52655E+03 -1.92409E+04  4.25802E+03 -1.79634E+04  1.53989E+04 -1.73307E+04
  2.57341E+04 -1.22832E+04  3.17871E+04  2.35007E+03  2.31076E+04  1.84319E+04  4.04128E+03  3.37244E+04
 -1.75762E+04  2.91723E+04 -2.82363E+04  1.09134E+04 -2.07460E+04 -1.05076E+04 -4.19569E+03 -1.29493E+04
  1.64278E+03 -2.71353E+03 -5.29217E+03  6.71630E+03 -1.41493E+04  4.18718E+03 -1.62396E+04 -6.81198E+03
 -8.70889E+03 -1.83997E+04  5.03914E+03 -2.37000E+04  1.38430E+04 -1.55584E+04  1.69296E+04 -1.47262E+03
  1.18012E+04  1.19047E+04 -1.09989E+03  1.77403E+04 -1.12083E+04  1.06543E+04 -1.77687E+04 -4.71035E+03
 -1.35120E+04 -1.48245E+04 -1.36247E+03 -2.16510E+04  1.02373E+04 -1.76045E+04  1.82636E+04 -8.25158E+03
  1.67984E+04  5.59132E+01  1.29341E+04  4.11596E+03  6.37452E+03  3.34803E+02  8.55891E+03 -1.00668E+03
  1.58156E+04  2.94856E+03  1.69249E+04  1.44075E+04  1.04801E+04  2.91496E+04 -3.34326E+03  3.30974E+04
 -1.94300E+04  2.59015E+04 -2.96471E+04  1.31309E+04 -3.12477E+04 -1.51054E+03 -2.57393E+04 -1.87285E+04
 -1.20123E+04 -2.58174E+04  8.50689E+03 -2.27357E+04  2.01786E+04 -1.21791E+04  1.84918E+04  4.94595E+03
  6.81657E+03  1.32203E+04 -9.14103E+03  1.18141E+04 -1.49081E+04  2.21321E+03 -1.16877E+04 -8.87183E+03
  1.32004E+03 -1.57764E+04  8.37093E+03 -1.07795E+04  8.58695E+03 -2.05854E+03  1.70692E+03  6.67082E+03
 -6.65439E+03  2.31939E+03 -4.80358E+03 -5.19523E+03  4.51704E+01 -1.34650E+04  9.19293E+03 -1.21793E+04
  1.40750E+04 -6.86112E+03  1.55073E+04  3.90628E+03  1.34716E+04  1.18645E+04  6.48365E+03  1.85948E+04
 -3.98962E+03  2.05328E+04 -1.17923E+04  1.31967E+04 -1.40795E+04  1.38682E+03 -1.10731E+04 -3.80128E+03
 -5.65985E+03 -4.89268E+03 -3.04662E+02  2.20598E+03 -2.65748E+03  2.41619E+03 -5.26250E+03  3.65494E+03
 -8.48779E+03 -5.03665E+02 -1.07747E+04 -8.78841E+03 -3.64063E+03 -1.36468E+04  4.52177E+03 -1.00612E+04
  7.89842E+03 -5.24049E+03  5.84491E+03  3.31263E+03  2.00780E+02  4.21789E+03 -5.01147E+03  1.03776E+03
 -4.68713E+03 -6.57232E+03 -2.08708E+02 -8.97498E+03  4.59794E+03 -9.20471E+03  1.17600E+04 -5.60757E+03
  1.44607E+04  1.33816E+03  1.10687E+04  7.51076E+03  2.01887E+03  1.11979E+04 -7.04467E+03  1.05352E+04
 -8.08188E+03  2.86474E+03 -3.92405E+03 -2.64007E+03  2.55811E+03 -3.07095E+03  5.82789E+03  4.93603E+01
  3.89178E+03  3.52871E+03  7.18126E+02  6.98600E+03 -5.20781E+03  7.07718E+03 -9.27698E+03  2.26993E+03
 -6.13166E+03 -4.03250E+03 -2.69559E+02 -7.87397E+03  5.03366E+03 -4.96287E+03  5.11198E+03  2.16744E+03
  3.52174E+02  4.07712E+03 -5.07062E+03  6.06568E+03 -5.72415E+03  2.64544E+03 -7.30571E+03 -2.29949E+03
 -4.21419E+03 -8.40936E+03  1.13220E+03 -9.67630E+03  8.09921E+03 -6.59675E+03  8.92931E+03  1.60768E+03
  6.33003E+03  6.58600E+03  7.48223E+02  1.00327E+04 -6.45588E+03  3.74158E+03 -7.68388E+03 -8.14034E+02
 -6.49051E+03 -5.79691E+03 -1.64041E+03 -6.82273E+03  2.89489E+03 -5.78391E+03  4.52679E+03 -3.54952E+03
  3.32013E+03  8.17795E+02  8.78067E+01  2.07160E+03  3.70152E+02 -1.80324E+03  8.94972E+02 -3.37912E+03
  5.52438E+03 -1.84893E+03  8.34009E+03  9.44989E+02  8.95395E+03  5.72558E+03  5.29123E+03  1.10153E+04
 -2.46528E+03  1.15462E+04 -9.55844E+03  9.31865E+03 -1.39334E+04  1.91206E+03 -1.07325E+04 -4.56941E+03
 -5.05696E+03 -8.20068E+03 -8.17696E+02 -7.60381E+03  3.86883E+03 -2.83961E+03  2.38597E+03 -3.10780E+03
  1.13543E+02 -1.13822E+03  1.21005E+03 -3.67635E+03  3.76408E+03 -2.05604E+03  3.87573E+03 -2.68167E+02
  5.80796E+03  1.25718E+03  3.08091E+03  4.39403E+03 -1.98440E+03  3.92216E+03 -5.83290E+03  3.75274E+03
 -7.01301E+03 -1.01648E+03 -3.08478E+03 -4.63083E+03  6.69764E+02 -8.86072E+03  4.25237E+03 -7.70639E+03
  7.35836E+03 -6.04004E+03  1.00946E+04  1.81635E+03  5.31858E+03  7.27227E+03  1.32504E+03  7.94002E+03
 -2.17810E+03  7.62104E+03 -4.27830E+03  2.09222E+03 -2.44946E+03 -5.90692E+02 -1.19432E+03 -6.56928E+02
 -7.35446E+02  1.51958E+03 -1.10016E+03  2.15554E+03 -2.28463E+03  1.28869E+03 -4.58913E+03 -4.30905E+02
 -2.90507E+03 -4.91119E+03  3.93524E+02 -6.09829E+03  4.81665E+03 -6.78000E+03  5.60719E+03 -1.51102E+03
  6.82322E+03  2.54588E+03  3.06453E+03  4.53614E+03 -1.04424E+03  5.07882E+03 -3.64620E+03  3.55430E+03
 -5.83426E+03 -1.88857E+02 -4.63170E+03 -2.81993E+03  1.18298E+01 -4.59489E+03  2.01103E+03 -3.24755E+03
  4.37551E+03 -1.70852E+03  3.61496E+03  1.21709E+03  2.08124E+03  3.08709E+03  1.49315E+03  8.18851E+02
  2.04670E+03  9.17185E+02  1.83697E+03  3.68937E+02  2.42635E+03  3.06256E+03  2.06694E+03  3.33483E+03
 -2.02879E+03  3.85024E+03 -3.87632E+03  4.59896E+03 -4.71866E+03  1.83017E+03 -6.47765E+03 -6.32941E+02
 -3.15140E+03 -5.50855E+03  8.22593E+02 -6.58836E+03  4.52854E+03 -4.78475E+03  4.91913E+03 -1.74957E+03
  3.06229E+03  1.97076E+03  1.00501E+03  1.47677E+03 -1.94759E+03  1.08852E+03 -1.35384E+03 -4.29888E+02
 -9.86865E+02 -2.55875E+03  1.10454E+03 -2.08025E+03  1.65823E+03 -1.11069E+03  3.18733E+03 -1.52579E+02
  1.62469E+03  8.24467E+02  3.85715E+02  1.14835E+03 -9.81764E+01  1.04134E+03  8.02302E+02 -3.16248E+01
  1.48054E+03 -5.77232E+02  2.49403E+03 -2.59212E+02 -2.39875E+02  3.37579E+03  1.48667E+02  3.61991E+03
 -2.16329E+03  9.16540E+02 -2.69377E+03  6.70571E+02 -2.54720E+03 -7.02436E+02 -1.16646E+03 -2.90239E+02
  8.90038E+02 -3.31310E+03  1.48684E+03 -3.73114E+02  1.27656E+03  1.42525E+03  3.40735E+02  2.76667E+03
 -3.03470E+03  7.07297E+02 -1.97432E+03 -1.74941E+03 -1.33398E+03 -3.14608E+03  8.40721E+02 -2.02494E+03
  2.28383E+03  8.98321E+01  2.45342E+03 -6.90529E+01  1.52694E+03  6.36714E+02  1.18990E+02  2.67902E+03
 -2.03702E+03  4.85241E+02 -2.13762E+03 -1.81212E+03  1.27607E+02 -1.45601E+03  3.01046E+03 -9.54782E+02
  2.38684E+03  7.24610E+02  4.30751E+03  1.66453E+03  1.13751E+03  2.60061E+03 -5.25373E+02  4.53631E+03
 -1.82453E+03  1.58514E+03 -7.48367E+02 -1.37639E+03 -1.58923E+03 -1.28441E+03  3.63645E+02 -1.82193E+03
  1.88067E+03 -1.29424E+03  2.68656E+03  5.04014E+02  1.13501E+03  2.11443E+03 -3.32509E+02  8.95149E+02
 -1.11508E+03  4.67586E+02 -7.86865E+02  9.39827E+02 -9.59855E+02  6.02124E+02 -2.35109E+03  1.01677E+03
 -4.07342E+02  2.89129E+03 -3.00479E+03  1.09804E+03 -2.84382E+03  8.19367E+02 -4.02720E+03 -1.87108E+03
 -1.72017E+03 -4.48937E+03 -5.38313E+02 -5.67609E+03  1.78259E+03 -4.77990E+03  5.12329E+03 -4.18007E+02
  5.00028E+03  9.84538E+02  1.10409E+03  3.16954E+03 -4.62736E+02  2.66101E+03 -1.86420E+03  2.34742E+03
 -1.61506E+03  1.71762E+03 -1.94686E+03  9.37505E+02  2.69102E+02  6.49209E+01 -4.02397E+02 -2.75605E+01
 -1.72569E+03  1.01132E+03 -3.94691E+01 -2.26188E+02  1.73525E+02 -5.72584E+02 -3.30978E+02 -1.17715E+03
  1.23256E+03 -1.25275E+03  1.92715E+03 -8.85774E+02  1.12518E+03  1.30303E+02  2.80768E+02  3.01806E+03
 -8.05403E+02  4.12445E+03 -3.52389E+03  1.47836E+03 -3.52665E+03 -1.41057E+00 -3.00720E+03 -1.12184E+03
 -1.00341E+03 -2.43161E+03  1.22297E+03 -2.63180E+03  1.29881E+03 -3.65997E+02  9.68061E+02 -3.80364E+02
  8.08335E+02  1.12808E+03  5.90763E+02  1.44259E+03 -5.97589E+02 -8.08735E+02  3.46098E+02 -1.06294E+03
  9.92468E+02 -1.93989E+03  8.26845E+02  1.37813E+02  4.47216E+02  4.52582E+02 -6.78806E+02  4.33993E+02
  4.20405E+01  1.43281E+03 -1.49438E+03 -2.01466E+02 -1.74874E+03 -3.16996E+02 -8.61079E+01 -2.38952E+03
  1.92027E+03 -6.40709E+02  1.25449E+03  1.07823E+03  1.53095E+03 -5.48363E+02  7.05485E+02  1.35349E+03
 -7.88658E+02  2.25813E+03  4.72131E+01 -2.52504E+01 -9.24810E+02  7.69407E+02 -5.75392E+02  3.02799E+02
 -1.64175E+02 -1.72024E+02 -5.18739E+02  1.48300E+02 -5.45372E+02 -1.15511E+02 -2.04518E+03 -2.14904E+03
 -9.22892E+00 -2.83481E+02 -9.40822E+02  2.56110E+01  1.36600E+03 -2.36172E+03  7.81543E+02  1.57084E+02
  7.33905E+02  7.51730E+02 -3.94183E+02  1.59652E+03 -7.34490E+02  1.44064E+03 -1.09155E+03  9.48302E+02
