 $NMID ID='MM_0lb_SNR200_20hz_g45_54.RAW', FMTDAT='(8E13.5)'
 TRAMP=1., VOLUME=1. $END
  3.09918E+05  1.62135E+03  3.36819E+05  2.50001E+05  8.48157E+04  3.36960E+05 -1.31968E+05  2.50183E+05
 -1.88545E+05  8.15988E+04 -1.09812E+05 -3.27978E+04  1.58254E+03 -5.00338E+04  5.46025E+04 -2.90262E+02
  3.39254E+04  5.19416E+04 -1.70611E+04  7.45512E+04 -6.09170E+04  6.27279E+04 -8.36203E+04  3.17250E+04
 -7.94464E+04 -1.14775E+04 -5.64913E+04 -5.00587E+04 -1.46955E+04 -6.83147E+04  2.65771E+04 -4.41744E+04
  3.83913E+04  3.46886E+03  1.48825E+04  4.74983E+04 -3.36885E+04  4.62499E+04 -6.52067E+04 -3.73958E+02
 -5.20962E+04 -5.49584E+04 -5.84649E+03 -7.44592E+04  3.20208E+04 -5.23382E+04  4.57243E+04 -1.58155E+04
  3.99266E+04  1.16227E+04  3.09765E+04  2.32412E+04  1.63375E+04  2.75308E+04 -3.76990E+03  2.63514E+04
 -2.07271E+04  1.21816E+04 -1.92024E+04 -4.02352E+03  3.46846E+03 -7.29566E+03  2.09109E+04  9.97018E+03
  7.76125E+03  3.17327E+04 -2.93223E+04  3.33902E+04 -5.97732E+04  1.55805E+03 -5.53215E+04 -4.00027E+04
 -1.28055E+04 -6.00100E+04  3.80611E+04 -4.23233E+04  5.38834E+04 -1.87560E+03  3.12206E+04  2.92498E+04
 -7.37492E+03  3.26528E+04 -2.81327E+04  1.25783E+04 -2.70510E+04 -5.03958E+03 -1.37537E+04 -9.45420E+03
 -7.79736E+03 -1.07218E+04 -7.24155E+02 -1.54464E+04  7.34209E+03 -2.24596E+04  1.51845E+04 -1.36424E+04
  1.19453E+04  3.32526E+03 -5.72898E+03  1.25836E+04 -1.87864E+04 -1.99632E+03 -8.04415E+03 -2.97622E+04
  2.02502E+04 -3.89360E+04  4.33708E+04 -1.75606E+04  4.00459E+04  1.81768E+04  1.24568E+04  4.07764E+04
 -1.49473E+04  3.10574E+04 -2.27524E+04  8.39762E+02 -7.74386E+03 -2.52472E+04  2.02727E+04 -3.08644E+04
  3.70789E+04 -6.71243E+03  2.99446E+04  2.17508E+04  1.49905E+04  4.14357E+04 -7.47055E+03  4.35324E+04
 -2.73823E+04  2.86236E+04 -3.49662E+04  7.59405E+03 -3.71571E+04 -1.37198E+04 -1.98500E+04 -3.38977E+04
  6.67444E+03 -3.24004E+04  2.82983E+04 -1.18156E+04  2.58098E+04  1.12782E+04  2.44942E+03  1.74565E+04
 -1.32746E+04  6.52047E+03 -8.20851E+03 -8.35603E+03  6.14944E+03 -8.67009E+03  1.75619E+04  7.15150E+03
  1.19179E+04  2.17578E+04 -7.56918E+03  2.37984E+04 -2.08360E+04  8.32190E+03 -2.40054E+04 -6.46463E+03
 -1.52912E+04 -1.64122E+04 -4.17410E+03 -1.54571E+04  4.16153E+03 -1.37340E+04  1.05190E+04 -1.32454E+04
  1.96208E+04 -1.19700E+04  2.64197E+04  9.13087E+02  2.05151E+04  1.48404E+04  3.44979E+03  3.10885E+04
 -1.60845E+04  2.70614E+04 -2.44520E+04  8.50131E+03 -1.99668E+04 -9.99084E+03 -3.59357E+03 -1.37744E+04
  2.66331E+03 -4.67506E+03 -2.20566E+03  4.86485E+03 -1.24392E+04  5.16102E+03 -1.27054E+04 -4.00128E+03
 -8.02226E+03 -1.29087E+04  3.94833E+03 -1.81058E+04  1.18994E+04 -1.25656E+04  1.41412E+04 -2.48750E+03
  7.82626E+03  1.02759E+04 -2.31737E+03  1.50691E+04 -9.75638E+03  8.17873E+03 -1.56787E+04 -3.02960E+03
 -1.08238E+04 -1.34767E+04 -1.57001E+03 -1.84474E+04  8.31558E+03 -1.49689E+04  1.54324E+04 -6.05037E+03
  1.31551E+04  4.76832E+02  9.77721E+03  4.60590E+03  5.17399E+03  2.75109E+02  7.05052E+03 -1.04323E+03
  1.37870E+04  3.53522E+03  1.33109E+04  1.20673E+04  9.11193E+03  2.27974E+04 -4.17375E+03  2.42746E+04
 -1.40029E+04  1.83907E+04 -2.18070E+04  7.12617E+03 -2.18119E+04 -1.62922E+03 -1.84559E+04 -1.26406E+04
 -1.04341E+04 -1.80612E+04  6.65548E+03 -1.76963E+04  1.48109E+04 -1.00714E+04  1.49447E+04  3.96906E+03
  7.13994E+03  1.06706E+04 -5.88058E+03  9.62600E+03 -1.14921E+04  1.89769E+03 -9.91964E+03 -7.29073E+03
 -9.42538E+02 -1.17526E+04  6.20189E+03 -9.40363E+03  7.31559E+03 -2.53147E+03  9.65679E+02  4.83100E+03
 -5.01792E+03  3.55185E+02 -3.31645E+03 -4.43044E+03  1.13340E+03 -8.63335E+03  7.18961E+03 -8.54618E+03
  1.19185E+04 -4.54370E+03  1.04245E+04  2.83389E+03  8.77977E+03  7.38461E+03  4.88407E+03  1.21346E+04
 -1.63732E+03  1.43984E+04 -7.86502E+03  8.32728E+03 -8.95562E+03  2.24425E+03 -8.44257E+03 -1.99937E+03
 -3.38746E+03 -2.75229E+03 -7.56244E+02  1.76006E+03 -2.56206E+03  2.28852E+03 -3.65909E+03  4.06582E+03
 -7.31079E+03 -1.61411E+03 -7.77267E+03 -6.43434E+03 -3.00648E+03 -1.03749E+04  2.76699E+03 -6.95751E+03
  7.33635E+03 -3.92816E+03  5.50347E+03  1.67578E+03  1.34133E+03  2.94820E+03 -4.19760E+03  7.25775E+02
 -2.97334E+03 -3.63745E+03 -3.65572E+02 -6.36777E+03  3.71916E+03 -6.60274E+03  8.49390E+03 -3.28202E+03
  1.10965E+04  2.38656E+02  7.75136E+03  4.90137E+03  7.14611E+02  6.57826E+03 -4.47044E+03  7.55602E+03
 -6.72479E+03  2.35198E+03 -3.87358E+03 -8.33987E+02  3.04376E+02 -1.79985E+03  3.61161E+03 -4.81533E+02
  3.72402E+03  2.66567E+03  1.14507E+03  5.79278E+03 -3.86371E+03  5.35659E+03 -6.65925E+03  2.00689E+03
 -4.55027E+03 -3.87632E+03  6.23620E+02 -5.53664E+03  2.87289E+03 -2.74775E+03  2.86987E+03  6.24541E+02
  2.92006E+02  1.98448E+03 -3.19767E+03  4.11210E+03 -4.05779E+03  1.83281E+03 -3.76788E+03 -1.45336E+03
 -2.23357E+03 -5.16669E+03  1.20211E+03 -5.83799E+03  5.77883E+03 -4.71442E+03  4.84488E+03  3.30739E+02
  2.08949E+03  4.82399E+03  2.08353E+02  6.55580E+03 -4.98637E+03  3.82586E+03 -4.36593E+03 -1.06440E+03
 -4.80444E+03 -4.88980E+03 -6.72817E+02 -4.35681E+03  1.99544E+03 -3.37229E+03  2.72060E+03 -2.44159E+03
  1.80551E+03 -1.28162E+02  5.81118E+02  6.90316E+02  1.53098E+03 -3.25009E+02 -7.95976E+02 -1.77094E+03
  3.82604E+03 -4.42848E+02  3.79879E+03  5.68106E+02  4.76657E+03  2.42192E+03  3.99778E+03  6.80323E+03
 -7.37116E+02  6.69936E+03 -6.44567E+03  5.47516E+03 -9.78875E+03  1.27890E+03 -5.87695E+03 -1.68110E+03
 -3.31059E+03 -5.19360E+03 -4.53154E+02 -4.25838E+03  1.04994E+03 -8.76118E+02  1.09893E+03 -1.78315E+03
  1.62481E+03 -1.61747E+03  1.90211E+03 -2.22793E+03  3.52033E+03 -1.03153E+03  3.52827E+03  7.42018E+02
  3.36272E+03  4.57450E+02  8.95771E+02  3.48277E+03 -1.16932E+03  3.14807E+03 -2.71503E+03  2.48741E+03
 -3.78903E+03 -4.67284E+02 -7.69178E+02 -2.68420E+03  8.38351E+02 -4.98945E+03  2.81307E+03 -4.15859E+03
  4.37715E+03 -2.55398E+03  5.70156E+03 -7.08134E+01  5.07785E+03  4.55070E+03  5.95904E+02  4.78033E+03
 -1.49906E+03  5.08628E+03 -2.87867E+03  1.79082E+03 -1.04852E+03 -6.80754E+02 -1.13498E+02  3.49932E+02
  2.07353E+02  8.30998E+02 -6.29690E+02  2.08557E+03 -2.80706E+03 -1.62172E+02 -3.48409E+03  4.80266E+02
 -8.92040E+02 -3.19515E+03  8.59554E+02 -2.64187E+03  2.91009E+03 -2.88750E+03  3.05426E+03 -6.72917E+02
  2.84146E+03  2.48324E+03  1.68413E+03  3.19992E+03 -1.09198E+03  3.80165E+03 -2.22032E+03  2.32652E+03
 -1.74736E+03  9.81482E+01 -2.60895E+03 -2.02105E+03  5.57339E+02 -2.15206E+03 -3.24866E+02 -2.23022E+03
  2.83791E+03 -7.56059E+02  1.50323E+03  1.60851E+02 -1.43080E+02  1.60614E+03  1.94213E+02  9.43630E+02
  1.04849E+03  3.44206E+02  1.84121E+02  5.58697E+02  1.41127E+02  1.69259E+03  1.10297E+03  5.17739E+02
 -1.19419E+03  2.25893E+03 -2.01633E+03  2.95022E+03 -2.96236E+03  1.23649E+03 -2.96583E+03 -5.78007E+02
 -1.45797E+03 -3.87051E+03  8.31297E+02 -2.89946E+03  3.23102E+02 -1.63212E+03  2.46503E+03 -9.90934E+02
  2.05195E+03  1.69014E+03 -3.22338E+02  1.86816E+03  5.04085E+02  7.53027E+02 -8.83134E+02 -4.64465E+02
 -1.92953E+02 -1.74942E+03  7.00061E+02 -1.15410E+03  1.14378E+03 -1.64847E+03  6.60464E+02  6.18214E+02
  1.12393E+02  1.41373E+03  1.48940E+02 -1.86290E+03 -5.58658E+02  8.50626E+02  1.18551E+03 -9.85946E+02
 -1.15062E+03  6.38113E+01  1.98445E+03 -3.46489E+02 -4.36214E+01  1.23096E+03 -9.91109E+02  1.86476E+03
 -9.73726E+02  8.39582E+02 -1.91323E+03  6.26796E+02 -1.28185E+03 -2.43138E+02  6.89421E+02 -6.74899E+02
  9.48435E+02 -1.22034E+03 -8.52055E+01 -6.81940E+02  7.14919E+01  4.89603E+02 -4.87916E+02  4.45818E+02
 -1.21941E+03  4.42133E+02 -1.16838E+03 -9.66252E+02 -4.69618E+02 -1.94841E+03  4.72725E+02 -1.38758E+03
  4.84822E+02  5.22448E+02 -5.67516E+02  1.06515E+03  1.24258E+03 -9.08623E+02 -3.25281E+02  8.23462E+02
  1.05083E+02 -2.85623E+02 -3.98618E+02 -2.97394E+02  1.32614E+03 -6.06179E+02  1.57311E+03  4.36470E+02
  1.46716E+03 -1.31926E+01  3.15044E+03  2.65089E+02  1.40256E+03  1.89440E+03 -4.83531E+02  1.35365E+03
 -8.85013E+02  5.74304E+02 -1.53705E+03  2.63615E+02  1.25133E+02 -1.55505E+03  7.88712E+00 -5.80489E+02
  8.10231E+02 -4.67378E+02  4.10675E+02 -9.67405E+02  4.46172E+02  1.88989E+03 -7.60405E+02  1.37878E+03
  1.57779E+02 -1.33374E+02  2.08382E+01  3.36354E+02  4.07064E+02  1.13525E+03 -1.81890E+02 -1.39778E+02
 -1.87516E+02  1.18516E+03 -1.42627E+03  1.23256E+03 -1.38547E+03  1.56148E+02 -1.08813E+03 -4.96961E+02
 -1.77750E+03 -7.03698E+02 -7.53409E+01 -1.96891E+03  8.43880E+02 -1.96335E+03  2.94584E+03 -8.30389E+02
  2.21773E+03 -4.70777E+02  1.49451E+03  8.05804E+02 -5.84787E+02  1.38190E+03 -3.42538E+02  2.68791E+01
 -5.19712E+02  6.46627E+02 -3.06878E+02  1.07841E+02 -3.92344E+02  1.33844E+03 -1.67685E+02  5.87166E+02
 -1.83590E+03 -8.79090E+02 -8.33632E+02 -1.78963E+02  1.76328E+02 -8.03716E+01 -1.37798E+02 -7.79066E+02
  7.64039E+02 -1.13027E+03  6.55336E+02 -4.90925E+02  5.45793E+02  1.51894E+03 -1.68088E+02  2.88254E+02
 -8.51153E+01  1.40031E+03 -2.01128E+03  1.26927E+03 -1.77388E+03 -1.19117E+03 -6.25974E+02 -4.36185E+02
 -1.10367E+03 -3.29759E+02 -8.50166E+02 -3.95378E+01  7.03906E+01 -2.17512E+01  8.82992E+02  2.24825E+02
 -2.60312E+02 -2.97697E+02  7.46552E+02  6.61704E+02 -1.82458E+03 -2.98532E+02  4.22989E+02  7.19843E+02
  1.03608E+03  1.47126E+03 -2.92648E+01  4.60939E+02  3.44617E+02  1.60627E+02 -5.64410E+00  1.03733E+03
 -3.40620E+02  3.31036E+02 -8.26698E+02 -4.59207E+02 -8.48265E+02  5.26943E+02  3.03112E+02 -8.22417E+02
 -2.19532E+02 -8.74138E+02 -1.78133E+02  2.93051E+02  4.43280E+02 -1.23538E+03 -4.65509E+02  1.68243E+03
  7.65553E+02  6.04394E+01  1.89930E+01  5.81896E+01 -2.49611E+01  4.68594E+02  5.97300E+01  1.25313E+03
  3.08693E+02 -6.10769E+02 -1.07055E+03 -4.13168E+01  3.46410E+02 -9.88128E+02 -1.12966E+03  1.12502E+03
 -4.60360E+02 -1.36951E+02 -2.21391E+02 -1.04329E+03  1.81666E+02 -7.69361E+02  4.88163E+02  2.06187E+02
  1.16553E+03 -2.72521E+02 -4.41309E+02 -7.76296E+02 -1.11268E+02 -4.94346E+02  1.27142E+03 -2.75135E+02
