 $NMID ID='MM_0lb_SNR200_16hz_g50_78.RAW', FMTDAT='(8E13.5)'
 TRAMP=1., VOLUME=1. $END
  3.09254E+05  6.62673E+02  3.36824E+05  2.49440E+05  8.39254E+04  3.38182E+05 -1.31572E+05  2.50463E+05
 -1.89555E+05  8.29334E+04 -1.12119E+05 -3.39394E+04  1.55759E+03 -5.07789E+04  5.49096E+04 -6.95140E+02
  3.59966E+04  5.26639E+04 -1.65308E+04  7.56051E+04 -6.01931E+04  6.25791E+04 -8.36562E+04  3.18224E+04
 -7.99248E+04 -1.09450E+04 -5.49349E+04 -5.07687E+04 -1.44747E+04 -6.95602E+04  2.79393E+04 -4.57308E+04
  4.04210E+04  4.64140E+03  1.65508E+04  4.69143E+04 -3.47252E+04  4.66696E+04 -6.60384E+04 -6.25548E+02
 -5.38237E+04 -5.60328E+04 -6.52094E+03 -7.80472E+04  3.44576E+04 -5.36970E+04  4.69634E+04 -1.75384E+04
  4.32104E+04  1.00123E+04  3.14616E+04  2.44273E+04  1.61591E+04  2.85426E+04 -5.37124E+03  2.74563E+04
 -2.07199E+04  1.21925E+04 -1.89646E+04 -5.13472E+03  4.84008E+03 -7.79740E+03  2.16065E+04  1.05428E+04
  7.15127E+03  3.35805E+04 -3.10550E+04  3.51240E+04 -6.26343E+04  1.55189E+03 -5.63205E+04 -4.19015E+04
 -1.29396E+04 -6.32788E+04  3.75871E+04 -4.55681E+04  5.65754E+04 -1.07109E+03  3.39749E+04  3.22137E+04
 -6.11758E+03  3.42602E+04 -3.03062E+04  1.48806E+04 -2.93746E+04 -4.72234E+03 -1.69959E+04 -1.01769E+04
 -8.90890E+03 -1.25060E+04 -1.05444E+03 -1.81573E+04  6.63225E+03 -2.33759E+04  1.61289E+04 -1.28666E+04
  1.18552E+04  4.76524E+03 -7.21136E+03  1.27142E+04 -1.97393E+04 -3.61341E+03 -8.35722E+03 -3.28437E+04
  2.22177E+04 -4.25862E+04  4.52962E+04 -1.98365E+04  4.45079E+04  1.84266E+04  1.46629E+04  4.35728E+04
 -1.43972E+04  3.28869E+04 -2.40764E+04  1.44673E+03 -1.04986E+04 -2.74506E+04  1.91936E+04 -3.35380E+04
  3.93392E+04 -8.79947E+03  3.51552E+04  2.41563E+04  1.65104E+04  4.39235E+04 -9.32338E+03  4.75528E+04
 -2.94218E+04  3.35691E+04 -4.05455E+04  9.78204E+03 -4.14491E+04 -1.55940E+04 -2.32283E+04 -3.72794E+04
  7.83446E+03 -3.63897E+04  3.03488E+04 -1.43864E+04  2.99458E+04  1.11567E+04  2.71956E+03  1.87592E+04
 -1.33865E+04  7.41632E+03 -9.32045E+03 -7.27374E+03  5.76771E+03 -1.17456E+04  1.72500E+04  5.99459E+03
  1.28480E+04  2.15644E+04 -5.62092E+03  2.40919E+04 -2.20020E+04  1.00754E+04 -2.71807E+04 -7.16278E+03
 -1.87041E+04 -1.60542E+04 -7.39836E+03 -1.88635E+04  4.28526E+03 -1.76212E+04  1.34001E+04 -1.73249E+04
  2.45625E+04 -1.24667E+04  3.04589E+04  4.10771E+02  2.27860E+04  1.82680E+04  4.08852E+03  3.49896E+04
 -1.67612E+04  2.90979E+04 -2.68303E+04  1.07380E+04 -1.97020E+04 -1.03010E+04 -5.30257E+03 -1.38794E+04
  1.95924E+03 -2.81142E+03 -4.04505E+03  5.11232E+03 -1.54478E+04  4.66035E+03 -1.58189E+04 -6.33933E+03
 -1.02718E+04 -1.76433E+04  3.86615E+03 -2.22087E+04  1.43500E+04 -1.44507E+04  1.73917E+04 -1.67724E+03
  9.26190E+03  1.18350E+04 -1.18222E+03  1.75420E+04 -1.06597E+04  1.05591E+04 -1.78773E+04 -3.61166E+03
 -1.34666E+04 -1.64385E+04 -2.16595E+03 -2.13144E+04  9.45480E+03 -1.75161E+04  1.72051E+04 -8.67179E+03
  1.58747E+04 -3.75201E+02  1.23952E+04  5.17359E+03  7.46502E+03  4.54585E+02  7.97426E+03 -1.86356E+03
  1.71128E+04  2.35439E+03  1.85800E+04  1.39874E+04  1.06835E+04  2.83730E+04 -2.88452E+03  3.21743E+04
 -1.73550E+04  2.43739E+04 -2.90658E+04  1.23890E+04 -2.96679E+04 -2.81229E+03 -2.52669E+04 -1.71613E+04
 -1.06289E+04 -2.45216E+04  8.60831E+03 -2.20427E+04  1.94622E+04 -1.20158E+04  1.76177E+04  4.80592E+03
  6.63863E+03  1.22549E+04 -7.91465E+03  1.14484E+04 -1.58533E+04  4.22717E+03 -1.16607E+04 -9.23182E+03
 -5.46274E+02 -1.44119E+04  7.20618E+03 -9.95171E+03  9.40596E+03 -2.32607E+03  3.40735E+03  5.93128E+03
 -6.62715E+03  2.93427E+03 -4.82707E+03 -5.37234E+03  1.15986E+03 -1.22772E+04  8.79666E+03 -1.20291E+04
  1.46708E+04 -5.50891E+03  1.51637E+04  2.91954E+03  1.23055E+04  1.12215E+04  6.44941E+03  1.77173E+04
 -2.66379E+03  1.99166E+04 -1.26096E+04  1.24529E+04 -1.41758E+04  3.03142E+03 -9.90000E+03 -1.95948E+03
 -4.94601E+03 -4.90163E+03 -6.50955E+02 -3.48053E+02 -2.76907E+03  2.77137E+03 -4.02749E+03  3.73628E+03
 -9.72282E+03  6.27471E+02 -1.11309E+04 -7.66859E+03 -4.79978E+03 -1.25874E+04  4.52867E+03 -1.01329E+04
  8.60087E+03 -5.56838E+03  4.57782E+03  1.61870E+03  1.12756E+03  4.82871E+03 -4.44219E+03 -5.68764E+02
 -3.60413E+03 -6.16393E+03 -1.10886E+03 -8.38385E+03  4.81860E+03 -1.00904E+04  1.24000E+04 -4.26867E+03
  1.53165E+04  5.34663E+02  1.06322E+04  6.80852E+03  1.31596E+03  1.20065E+04 -6.70361E+03  9.88247E+03
 -8.09296E+03  3.32433E+03 -4.60260E+03 -2.58086E+03  1.61166E+03 -3.53793E+03  5.76716E+03 -9.24502E+02
  4.92715E+03  4.31624E+03  7.58850E+02  7.15040E+03 -5.08739E+03  7.72036E+03 -8.60545E+03  1.77333E+03
 -5.00328E+03 -4.50750E+03  4.37757E+02 -8.76536E+03  3.82278E+03 -5.01682E+03  4.17142E+03  2.20212E+03
  8.65152E+02  5.04660E+03 -3.93115E+03  6.44716E+03 -7.45162E+03  4.21957E+03 -5.83746E+03 -2.23807E+03
 -3.31086E+03 -8.11537E+03  1.83621E+03 -9.48317E+03  8.43877E+03 -5.76900E+03  8.92300E+03  8.98991E+02
  6.13376E+03  7.26103E+03 -8.77113E+02  8.80570E+03 -6.08750E+03  4.75548E+03 -6.12928E+03  2.16398E+02
 -6.59842E+03 -7.23665E+03 -1.61468E+03 -6.79398E+03  3.15390E+03 -7.20078E+03  4.49381E+03 -2.90545E+03
  3.96285E+03  1.16086E+03 -4.26938E+02  1.29268E+03  6.51031E+02 -1.37408E+03  9.22597E+02 -1.88168E+03
  4.45278E+03 -7.76011E+02  7.92821E+03  1.62140E+03  7.17452E+03  5.18056E+03  6.15107E+03  1.09141E+04
 -6.62573E+02  1.23622E+04 -9.64441E+03  8.79714E+03 -1.31266E+04  2.43056E+03 -1.06983E+04 -4.02145E+03
 -5.57319E+03 -8.31959E+03 -6.02747E+02 -6.95877E+03  2.12766E+03 -3.72919E+03  2.46547E+03 -2.07986E+03
  1.16465E+03 -1.15511E+03  2.29875E+03 -3.27122E+03  4.10262E+03 -1.48158E+03  5.08374E+03 -4.93992E+01
  4.78628E+03  2.12380E+03  1.58569E+03  4.99485E+03 -1.15979E+03  3.95051E+03 -6.11158E+03  2.56714E+03
 -5.28846E+03 -7.25690E+02 -3.40314E+03 -4.30916E+03 -9.13312E+01 -6.02125E+03  5.27065E+03 -8.40026E+03
  6.75715E+03 -5.29016E+03  8.25247E+03  9.50461E+02  6.95470E+03  5.07097E+03  2.05879E+02  7.93080E+03
 -3.04788E+03  7.55672E+03 -5.77344E+03  4.01926E+03 -3.33242E+03 -2.05124E+03 -8.59627E+02 -1.54585E+03
 -4.34199E+02  9.27449E+02 -2.25785E+03  2.18698E+03 -2.53221E+03  6.96452E+02 -4.83223E+03 -1.73514E+03
 -2.35685E+03 -5.32878E+03  1.53980E+03 -5.93076E+03  3.61752E+03 -5.86978E+03  4.48678E+03 -1.24509E+03
  6.29394E+03  4.24865E+03  3.87092E+03  4.33161E+03 -3.81550E+02  5.49271E+03 -3.94067E+03  3.15680E+03
 -6.18763E+03  3.41206E+02 -4.76200E+03 -4.07444E+03  4.69088E+02 -4.39719E+03  3.36808E+03 -5.40344E+03
  4.43345E+03 -1.02577E+03  3.08749E+03  1.34003E+03  1.14691E+03  2.27619E+03  2.34107E+03  9.97058E+02
  1.44496E+03 -1.61324E+02  9.55810E+02  6.38053E+02  4.64428E+02  2.96235E+03  1.80496E+03  1.77401E+03
 -1.36320E+03  4.03582E+03 -3.22961E+03  6.16475E+03 -5.74936E+03  1.66306E+03 -6.61120E+03 -1.37552E+03
 -2.27125E+03 -4.77567E+03 -3.44739E+02 -7.03174E+03  2.93328E+03 -4.32387E+03  4.15200E+03 -4.96935E+02
  3.95204E+03  2.55126E+03 -9.98456E+01  4.54296E+03 -1.63221E+03  1.19299E+03 -2.58606E+03 -3.39263E+02
 -1.75297E+03 -3.13336E+03  2.00701E+03 -3.63048E+03  2.48751E+03 -1.77651E+03  2.78722E+03  7.50896E+02
  1.75897E+03  4.08041E+02  1.12527E+03  8.86789E+02 -8.33805E+02  3.66360E+01  2.09917E+03 -3.99021E+02
  4.81045E+02 -5.50987E+02  1.80512E+03  4.59796E+02  3.86985E+02  1.86146E+03 -3.51145E+02  3.73716E+03
 -2.16991E+03  1.35660E+03 -3.91737E+03  1.43436E+02 -2.73665E+03 -1.10370E+03 -1.00474E+03 -2.04405E+03
  3.75154E+02 -1.69427E+03  1.28989E+03 -7.07774E+02  1.45442E+03  5.07458E+02 -1.02042E+03  2.51789E+03
 -3.35081E+03 -2.58507E+02 -2.38964E+03 -1.95981E+03 -1.23195E+03 -2.92704E+03  4.83322E+02 -3.08691E+03
  4.02082E+02 -1.24897E+03  8.14764E+02 -1.10465E+03  2.25564E+03  4.04542E+02  5.77857E+00  1.85987E+03
 -7.04409E+02 -1.38895E+02 -1.72517E+03 -4.93025E+02  1.18344E+03 -2.29408E+03  2.98036E+03 -1.98278E+03
  1.98096E+03  9.28106E+02  2.49180E+03  8.73085E+02  2.48507E+03  1.51280E+03  5.03071E+02  2.62021E+03
 -2.74836E+03  8.66508E+02 -2.00700E+03  1.88752E+02 -9.91242E+02 -1.91570E+03 -5.01667E+01 -7.14423E+02
  2.62590E+03 -1.47949E+03  2.91204E+02  1.57365E+03  1.63922E+03  2.69472E+03 -8.04368E+02  6.74359E+01
  2.09113E+02  1.58170E+03 -2.43777E+01 -1.79298E+02  4.41456E+02  8.82829E+02 -2.55848E+03  1.48566E+03
 -4.39735E+02  1.49388E+03 -2.63914E+03  2.51245E+02 -3.89193E+03  1.30467E+03 -2.82233E+03 -1.44845E+03
 -2.26298E+03 -3.61978E+03  1.01697E+03 -3.55044E+03  2.98332E+03 -2.41802E+03  4.81454E+03 -1.18714E+03
  4.74303E+03  1.33837E+03  1.41586E+03  1.65387E+03 -3.81265E+02  1.95126E+03 -1.32502E+03  2.21369E+03
 -2.27791E+03  1.56349E+03 -1.12779E+02  2.95448E+02 -1.84754E+03  3.60638E+02 -3.54957E+02  2.48178E+02
 -1.89287E+03  1.21093E+03 -3.79607E+02 -1.59825E+03  6.53111E+02 -1.26732E+03 -1.80141E+02 -2.56895E+02
  2.46901E+03 -1.38321E+03  1.34298E+03 -2.23893E+02  2.08413E+03  1.37676E+03 -6.38267E+02  2.52195E+03
 -1.89409E+03  3.46658E+03 -4.05100E+03  1.13992E+03 -2.91351E+03 -6.08600E+02 -6.77266E+02 -2.27312E+03
 -2.01401E+03 -2.05001E+03  4.21110E+02 -9.20677E+02  1.42159E+03 -1.53686E+03  1.09434E+03  1.73422E+02
  8.23110E+02  1.29273E+03  4.82707E+02 -6.25263E+02 -6.14842E+02 -1.21388E+03 -3.39288E+02 -5.98829E+02
  1.40001E+03  8.95274E+02  6.48179E+02  1.32678E+03 -8.63620E+02  4.79261E+02  2.59258E+02  8.20003E+02
 -6.47108E+02  2.44904E+03 -1.54763E+03 -2.41624E+02 -3.83663E+02 -1.43893E+03 -7.31604E+02 -1.77244E+03
  1.43666E+03 -3.08623E+02  1.82178E+03  2.25224E+02  1.19395E+03 -3.52932E+02  3.15843E+02  2.08457E+03
  3.37466E+02  1.91636E+03  4.52647E+02  1.04436E+03 -3.20942E+02  1.06958E+03 -3.19170E+02 -1.09512E+03
 -4.69658E+02 -4.98921E+02 -1.99793E+03  3.34500E+02 -6.16675E+02 -3.92473E+02 -1.23708E+03  4.73849E+02
 -1.71115E+03 -6.68791E+02 -2.52022E+02 -1.40198E+03  9.02665E+02 -1.86142E+03  7.43017E+02 -8.99891E+02
  1.95446E+03  3.71700E+02  6.42867E+02  2.34299E+03 -3.01895E+02  3.04644E+02 -2.47778E+03  1.55670E+03
