 $NMID ID='MM_0lb_SNR200_14hz_g50_42.RAW', FMTDAT='(8E13.5)'
 TRAMP=1., VOLUME=1. $END
  3.09232E+05  9.15901E+02  3.38526E+05  2.51373E+05  8.57690E+04  3.38605E+05 -1.31706E+05  2.52138E+05
 -1.90889E+05  8.38828E+04 -1.11856E+05 -3.18308E+04  1.76951E+03 -5.03863E+04  5.35195E+04  4.36969E+02
  3.54361E+04  5.27920E+04 -1.63815E+04  7.51671E+04 -6.23217E+04  6.41542E+04 -8.25952E+04  3.17673E+04
 -8.21538E+04 -1.14374E+04 -5.72715E+04 -5.17782E+04 -1.32617E+04 -6.96203E+04  2.75281E+04 -4.51412E+04
  3.99527E+04  3.46654E+03  1.61834E+04  4.82758E+04 -3.35806E+04  4.73689E+04 -6.79858E+04 -5.88792E+01
 -5.19394E+04 -5.70054E+04 -5.78309E+03 -7.74748E+04  3.46954E+04 -5.45926E+04  4.75713E+04 -1.72034E+04
  4.34401E+04  1.11498E+04  3.21135E+04  2.69853E+04  1.63185E+04  3.10430E+04 -6.26082E+03  2.75982E+04
 -2.34691E+04  1.13097E+04 -1.98275E+04 -3.67855E+03  5.28795E+03 -7.59121E+03  2.17238E+04  1.25833E+04
  7.58341E+03  3.51533E+04 -3.16537E+04  3.56219E+04 -6.30831E+04  2.27436E+03 -5.61144E+04 -4.34670E+04
 -1.28234E+04 -6.41339E+04  4.13729E+04 -4.48436E+04  5.88258E+04 -3.22212E+03  3.42270E+04  3.28782E+04
 -6.33695E+03  3.55701E+04 -3.00195E+04  1.52441E+04 -3.05927E+04 -5.43690E+03 -1.50998E+04 -1.17461E+04
 -8.34802E+03 -1.38139E+04 -8.30158E+02 -1.87721E+04  7.13274E+03 -2.38165E+04  1.39911E+04 -1.34088E+04
  1.26649E+04  6.16950E+03 -8.47624E+03  1.35531E+04 -2.15653E+04 -4.62272E+03 -8.70751E+03 -3.38966E+04
  2.18451E+04 -4.51839E+04  4.81816E+04 -1.98740E+04  4.52548E+04  1.90621E+04  1.47126E+04  4.48799E+04
 -1.61643E+04  3.34636E+04 -2.54701E+04  2.39953E+03 -1.05175E+04 -2.83469E+04  2.23216E+04 -3.34367E+04
  4.09821E+04 -8.83664E+03  3.59452E+04  2.41819E+04  1.86379E+04  4.66941E+04 -7.65443E+03  5.08486E+04
 -3.16396E+04  3.44488E+04 -4.24174E+04  1.00897E+04 -4.32578E+04 -1.72687E+04 -2.44341E+04 -3.78864E+04
  7.64110E+03 -3.75979E+04  3.19524E+04 -1.36965E+04  2.90836E+04  1.17946E+04  3.97019E+03  2.01843E+04
 -1.44164E+04  8.75259E+03 -9.71211E+03 -8.42046E+03  6.17198E+03 -1.03043E+04  1.75586E+04  6.24988E+03
  1.34937E+04  2.19390E+04 -6.78922E+03  2.44221E+04 -2.20799E+04  1.18814E+04 -2.78782E+04 -3.78942E+03
 -2.12962E+04 -1.80037E+04 -8.64347E+03 -2.01451E+04  3.78118E+03 -1.94659E+04  1.54839E+04 -1.83374E+04
  2.65970E+04 -1.40386E+04  3.28948E+04  2.33973E+03  2.34825E+04  2.12779E+04  5.77318E+03  3.66646E+04
 -1.77603E+04  3.00051E+04 -2.69382E+04  9.21895E+03 -2.16249E+04 -9.60217E+03 -4.52076E+03 -1.29428E+04
  1.59646E+03 -1.94561E+03 -4.64616E+03  7.70785E+03 -1.64911E+04  5.08445E+03 -1.73032E+04 -8.65082E+03
 -1.00857E+04 -1.92439E+04  6.37069E+03 -2.31454E+04  1.48806E+04 -1.58775E+04  1.87264E+04 -1.06511E+03
  1.21016E+04  1.40982E+04 -7.69109E+02  1.88968E+04 -1.43457E+04  1.02376E+04 -2.01978E+04 -3.97630E+03
 -1.47255E+04 -1.73669E+04 -1.48398E+03 -2.32010E+04  1.05416E+04 -1.89252E+04  1.98373E+04 -1.05117E+04
  1.86481E+04  1.81618E+02  1.32719E+04  4.68138E+03  6.45865E+03  8.63173E+02  9.77616E+03 -1.88760E+03
  1.77667E+04  3.18877E+03  2.01456E+04  1.54273E+04  1.24141E+04  2.97359E+04 -3.74445E+03  3.35911E+04
 -2.02645E+04  2.74613E+04 -3.07715E+04  1.49213E+04 -3.34089E+04 -1.77416E+03 -2.76252E+04 -1.79656E+04
 -1.13761E+04 -2.88556E+04  9.45338E+03 -2.41191E+04  2.04529E+04 -1.21577E+04  1.90778E+04  4.82948E+03
  5.79624E+03  1.52052E+04 -9.64511E+03  1.35781E+04 -1.61451E+04  2.81287E+03 -1.30727E+04 -1.01662E+04
  6.87262E+02 -1.56239E+04  7.72258E+03 -1.18676E+04  9.73495E+03 -9.64289E+02  1.80886E+03  6.29840E+03
 -6.85905E+03  1.97959E+03 -5.36278E+03 -5.32575E+03 -2.84824E+02 -1.35497E+04  9.97126E+03 -1.32963E+04
  1.64712E+04 -7.22446E+03  1.79323E+04  2.77841E+03  1.54285E+04  1.45156E+04  8.24955E+03  2.09226E+04
 -3.20217E+03  2.34993E+04 -1.55018E+04  1.47941E+04 -1.58751E+04  3.18514E+03 -1.14350E+04 -3.66962E+03
 -5.55619E+03 -5.75342E+03 -2.30435E+03 -3.16697E+02 -2.51099E+03  2.62568E+03 -6.26229E+03  2.89614E+03
 -1.00993E+04 -2.40288E+02 -1.04671E+04 -9.21111E+03 -4.47536E+03 -1.57907E+04  5.48609E+03 -1.01074E+04
  9.42947E+03 -5.03317E+03  7.14692E+03  3.06122E+03  1.26613E+03  4.76507E+03 -6.72834E+03 -5.14361E+02
 -5.59455E+03 -7.23844E+03 -1.24229E+03 -1.21238E+04  5.77261E+03 -1.16155E+04  1.49451E+04 -7.11315E+03
  1.64545E+04  1.15766E+03  1.24044E+04  9.47220E+03  2.51217E+03  1.34329E+04 -7.38505E+03  1.17432E+04
 -9.47547E+03  2.64573E+03 -4.17416E+03 -2.33674E+03  8.37261E+02 -1.25075E+03  5.54635E+03 -7.37290E+02
  5.18964E+03  4.46925E+03  9.53138E+02  8.96185E+03 -5.35142E+03  8.70780E+03 -1.13032E+04  2.53524E+03
 -6.83676E+03 -5.26516E+03 -1.56928E+02 -9.13857E+03  5.83904E+03 -4.35969E+03  4.28679E+03  6.03892E+02
  1.70399E+03  5.57714E+03 -7.01111E+03  7.77158E+03 -8.14199E+03  3.61472E+03 -9.24526E+03 -2.47407E+03
 -3.66669E+03 -9.64028E+03  2.56900E+03 -1.16738E+04  9.90301E+03 -8.44034E+03  1.18743E+04  1.89000E+03
  5.98747E+03  8.33626E+03 -1.18857E+03  1.10871E+04 -8.35954E+03  6.01214E+03 -8.64102E+03 -9.35125E+02
 -7.12894E+03 -6.35539E+03 -1.75287E+03 -7.77190E+03  3.86640E+03 -7.82012E+03  3.37067E+03 -2.84659E+03
  4.68617E+03  1.44293E+03 -1.01875E+03  8.41788E+02 -3.06796E+02 -3.68616E+01  1.58998E+03 -4.97693E+03
  5.65518E+03 -3.26151E+03  8.67653E+03  9.91759E+02  8.71370E+03  4.30647E+03  6.41960E+03  1.18052E+04
 -3.39423E+03  1.35110E+04 -1.31583E+04  1.05496E+04 -1.59230E+04  1.62869E+03 -1.29949E+04 -5.00907E+03
 -5.93187E+03 -1.07603E+04 -3.96918E+01 -6.58337E+03  3.25824E+03 -4.50780E+03  3.35462E+03 -3.55521E+03
  1.62655E+03 -1.49869E+03  2.80316E+03 -4.14322E+03  3.96010E+03 -1.66095E+03  5.77483E+03 -1.15334E+03
  6.72660E+03  2.21326E+03  2.63826E+03  5.39132E+03 -2.58923E+03  6.14421E+03 -7.53580E+03  3.81956E+03
 -8.88404E+03 -3.42259E+02 -5.57591E+03 -6.53181E+03  4.42172E+02 -9.17122E+03  5.27546E+03 -9.29000E+03
  9.25038E+03 -5.37481E+03  1.14944E+04  1.37034E+03  7.67980E+03  6.38619E+03  1.34604E+03  1.10622E+04
 -4.04073E+03  9.01624E+03 -5.96448E+03  2.03599E+03 -3.58247E+03 -4.14723E+02 -2.05786E+03 -8.58582E+02
 -1.40271E+03  4.03928E+02 -1.66037E+03  1.60054E+03 -3.70555E+03  2.64924E+03 -5.68869E+03 -1.02223E+03
 -3.80097E+03 -6.66594E+03 -6.19598E+02 -9.72483E+03  5.05151E+03 -7.52772E+03  7.65064E+03 -2.78181E+03
  7.33458E+03  3.76698E+03  4.69677E+03  6.66752E+03 -6.34300E+02  8.96504E+03 -4.41050E+03  5.41253E+03
 -8.52582E+03  1.11032E+03 -5.44549E+03 -4.08543E+03 -1.12594E+03 -6.26662E+03  3.11582E+03 -4.61667E+03
  5.74682E+03 -1.01941E+03  4.09706E+03  1.13156E+03  1.28414E+03  2.39337E+03  1.68176E+03  4.62444E+02
  2.39286E+03  8.97233E+02  1.84373E+03  7.43707E+02  3.50366E+03  3.11767E+03  1.41400E+03  3.69586E+03
 -1.76144E+03  6.05819E+03 -4.34298E+03  5.13348E+03 -7.24553E+03  1.71428E+03 -7.99096E+03 -2.56829E+03
 -3.09083E+03 -8.60641E+03  7.72845E+02 -1.00725E+04  3.67223E+03 -6.29808E+03  5.58827E+03 -4.33245E+02
  5.76766E+03  1.71920E+03  1.48630E+03  3.86175E+03 -1.44232E+03  3.75158E+03 -4.46316E+03 -2.54117E+02
 -1.24886E+03 -3.82289E+03  2.79321E+03 -2.67092E+03  3.67328E+03 -1.61194E+03  2.71683E+03  7.93067E+02
  5.28049E+02  1.03230E+03  1.91514E+03  1.45228E+03 -6.82644E+02  1.20646E+03  2.13573E+03 -4.26084E+02
  1.21607E+03 -3.82824E+02  3.00290E+03 -1.63498E+02  2.38180E+03  3.47649E+03 -8.64964E+02  4.52754E+03
 -2.94409E+03  1.88721E+03 -5.14098E+03  1.20979E+03 -4.72348E+03 -9.28764E+02 -1.33724E+03 -3.20324E+03
 -1.40434E+02 -2.32091E+03  2.35721E+03 -1.96113E+03  1.92712E+03  1.65418E+03 -9.07857E+02  3.55709E+03
 -2.82486E+03  2.25477E+03 -3.12870E+03 -1.53776E+03 -3.15296E+02 -4.38460E+03  4.20113E+02 -3.56885E+03
  1.62761E+03 -1.71769E+03  2.33088E+03  2.12578E+02  3.19003E+03  1.98142E+02  1.15895E+03  2.54790E+03
  7.77631E+01  2.94362E+02 -1.40922E+03 -1.99039E+03  1.26346E+03 -2.08220E+03  3.84984E+03 -3.13129E+03
  3.78160E+03  7.26789E+02  5.76683E+03  3.86176E+03  2.09598E+03  5.57881E+03 -1.20047E+03  4.34462E+03
 -4.45019E+03  1.63861E+03 -4.58739E+03  2.92837E+02 -2.07780E+03 -3.59900E+03  4.63710E+02 -2.25516E+03
  3.48257E+03 -1.69097E+03  1.54366E+03  1.78811E+03  1.09089E+03  2.77092E+03 -5.52690E+01  2.58959E+03
 -9.85382E+02  9.10915E+02 -4.31537E+02  7.44447E+02 -1.56123E+02  7.27900E+02  9.58790E+01  4.70722E+02
 -3.02547E+03  1.37476E+03 -3.89760E+03  1.42800E+03 -3.81544E+03 -3.45520E+02 -5.63649E+03 -3.50839E+03
 -2.42067E+03 -6.21407E+03  2.80144E+02 -6.20242E+03  4.01340E+03 -4.52517E+03  5.68736E+03 -1.61849E+03
  5.30676E+03  1.02183E+03  4.25529E+03  4.84089E+03 -5.99674E+02  3.66301E+03 -2.29319E+03  3.71446E+03
 -3.13630E+03  2.03971E+03 -1.51127E+03  7.51724E+02 -1.18103E+03  3.04431E+02  3.75661E+02 -1.43459E+02
 -2.37426E+03  3.22207E+02 -1.11949E+02  4.82314E+02  6.82095E+01 -1.49866E+03 -5.43466E+01 -1.68374E+03
  3.02364E+03 -9.79172E+02  2.11952E+03  7.75596E-01  3.32438E+03  2.38891E+03 -3.81967E+02  3.79908E+03
 -2.62156E+03  4.65937E+03 -4.19860E+03  1.55552E+03 -4.26831E+03 -2.66366E+02 -3.92505E+03 -2.19421E+03
 -6.56240E+02 -4.26150E+03  3.82647E+02 -4.75345E+03  2.84920E+03 -1.04149E+03  2.11904E+03  9.34153E+02
 -4.60490E+01  1.40458E+03  1.15438E+03  1.28674E+03 -5.67040E+02  4.66332E+02  3.05725E+01 -4.61630E+02
  7.31129E+02  4.19982E+02  1.62332E+03  5.06553E+02  1.61842E+02  1.06800E+03 -1.11612E+03  2.20103E+03
 -1.91170E+03  1.67290E+03 -1.21417E+03  8.18314E+02 -3.15687E+03 -1.41643E+03 -3.18582E+02 -3.23268E+03
  1.63879E+03 -1.59179E+03  3.19712E+03 -9.89825E+02  3.05766E+03 -6.06371E+02  1.24649E+03  2.47643E+03
  3.67195E+02  1.76004E+03 -1.25128E+03  2.23202E+03 -2.87733E+03  1.19881E+03 -1.10261E+03 -3.74248E+02
 -1.42684E+03 -1.54996E+02  2.16228E+02  1.22099E+03 -2.22390E+03 -2.93155E+01 -2.02488E+03 -7.89778E+02
 -2.33143E+03 -4.29219E+02  4.87381E+02 -1.65208E+03  1.06888E+03 -2.86089E+03  2.28959E+03 -2.70602E+03
  2.41703E+03  8.41908E+02  1.00152E+03  1.56355E+03 -1.55390E+03  2.30679E+03 -9.05938E+02  2.72023E+03
