 $NMID ID='MM_0lb_SNR200_20hz_g45_66.RAW', FMTDAT='(8E13.5)'
 TRAMP=1., VOLUME=1. $END
  3.09924E+05 -1.56465E+02  3.36573E+05  2.50951E+05  8.51433E+04  3.37658E+05 -1.32318E+05  2.49463E+05
 -1.88174E+05  8.13843E+04 -1.09985E+05 -3.30524E+04  1.20998E+03 -5.02496E+04  5.47472E+04  2.52642E+02
  3.50198E+04  5.27295E+04 -1.66670E+04  7.54947E+04 -6.03037E+04  6.27236E+04 -8.23230E+04  3.25508E+04
 -7.84047E+04 -1.19171E+04 -5.69539E+04 -4.94475E+04 -1.48799E+04 -6.77226E+04  2.60870E+04 -4.41275E+04
  3.91725E+04  3.58007E+03  1.61827E+04  4.67500E+04 -3.39117E+04  4.71078E+04 -6.53529E+04 -7.34495E+02
 -5.10233E+04 -5.47329E+04 -7.36683E+03 -7.46016E+04  3.31642E+04 -5.35047E+04  4.48633E+04 -1.60680E+04
  4.10119E+04  1.09775E+04  2.98981E+04  2.42096E+04  1.54545E+04  2.74152E+04 -3.96820E+03  2.61822E+04
 -2.20031E+04  1.29721E+04 -1.94168E+04 -4.98806E+03  3.51108E+03 -7.20313E+03  2.08631E+04  8.82840E+03
  7.74781E+03  3.27954E+04 -2.89550E+04  3.19436E+04 -6.06454E+04  2.58574E+03 -5.59570E+04 -4.08217E+04
 -1.05498E+04 -5.94442E+04  3.70512E+04 -4.23246E+04  5.42963E+04 -1.88045E+03  3.19321E+04  2.95505E+04
 -7.59547E+03  3.20962E+04 -2.82125E+04  1.36509E+04 -2.81443E+04 -4.60377E+03 -1.50638E+04 -9.37987E+03
 -6.63478E+03 -1.07976E+04 -1.99034E+03 -1.60626E+04  5.86006E+03 -2.24002E+04  1.43599E+04 -1.44706E+04
  1.19200E+04  3.52379E+03 -4.93712E+03  1.31253E+04 -1.76951E+04 -1.99032E+03 -8.00796E+03 -2.87259E+04
  2.03158E+04 -3.92740E+04  4.37679E+04 -1.80372E+04  4.13443E+04  1.90664E+04  1.33828E+04  4.08248E+04
 -1.52917E+04  3.01908E+04 -2.32378E+04  6.91563E+02 -8.17922E+03 -2.64031E+04  2.10733E+04 -3.05199E+04
  3.75569E+04 -7.06676E+03  2.99596E+04  2.11836E+04  1.48613E+04  4.18918E+04 -7.18779E+03  4.40964E+04
 -2.70705E+04  2.79989E+04 -3.58661E+04  7.24514E+03 -3.73305E+04 -1.42681E+04 -2.05972E+04 -3.34589E+04
  7.16884E+03 -3.22631E+04  2.86811E+04 -1.18877E+04  2.57496E+04  1.11679E+04  2.36887E+03  1.70373E+04
 -1.35119E+04  6.96063E+03 -8.75607E+03 -8.35132E+03  7.05610E+03 -9.85762E+03  1.68520E+04  5.83941E+03
  1.11956E+04  2.18565E+04 -6.91347E+03  2.16355E+04 -2.13873E+04  7.71420E+03 -2.45122E+04 -7.06788E+03
 -1.49625E+04 -1.62069E+04 -4.67863E+03 -1.61510E+04  3.22361E+03 -1.33077E+04  1.17090E+04 -1.37431E+04
  1.98465E+04 -1.13257E+04  2.64910E+04 -6.90609E+02  1.97161E+04  1.49778E+04  4.61543E+03  3.16138E+04
 -1.64337E+04  2.60566E+04 -2.52617E+04  9.64450E+03 -1.83020E+04 -1.08875E+04 -4.39917E+03 -1.49255E+04
  2.42124E+03 -4.28853E+03 -2.15092E+03  4.05493E+03 -1.25021E+04  4.55476E+03 -1.29755E+04 -3.66981E+03
 -8.05493E+03 -1.29605E+04  4.91368E+03 -1.84047E+04  1.19464E+04 -1.28433E+04  1.42592E+04 -2.76614E+03
  8.34824E+03  9.72104E+03 -9.26337E+02  1.44510E+04 -9.60681E+03  8.43560E+03 -1.44866E+04 -3.56090E+03
 -1.01581E+04 -1.25100E+04 -1.16196E+02 -1.81855E+04  9.47466E+03 -1.43216E+04  1.50764E+04 -6.66691E+03
  1.37057E+04  2.03324E+03  9.99715E+03  2.86902E+03  5.05342E+03 -5.88417E+02  6.86305E+03 -1.82470E+03
  1.25737E+04  2.91790E+03  1.38807E+04  1.20797E+04  8.12825E+03  2.28243E+04 -3.12117E+03  2.41259E+04
 -1.47744E+04  1.82413E+04 -2.27293E+04  8.53958E+03 -2.26312E+04 -1.21878E+03 -1.96161E+04 -1.30509E+04
 -8.42327E+03 -1.79021E+04  5.90917E+03 -1.65198E+04  1.47248E+04 -1.03911E+04  1.46770E+04  3.31373E+03
  7.37792E+03  9.67782E+03 -5.92342E+03  9.22559E+03 -1.22832E+04  2.37256E+03 -9.60623E+03 -7.35932E+03
  4.83047E+02 -1.00776E+04  4.67670E+03 -9.09180E+03  7.45530E+03 -5.61796E+02  6.56444E+02  4.50884E+03
 -5.20651E+03  5.58186E+02 -3.32081E+03 -3.89237E+03  1.10347E+03 -9.88002E+03  6.85358E+03 -9.45756E+03
  1.07764E+04 -3.53606E+03  8.33139E+03  2.46202E+03  8.95590E+03  7.88586E+03  5.31413E+03  1.26245E+04
 -1.44661E+03  1.32812E+04 -8.39945E+03  8.99067E+03 -1.04855E+04  2.41556E+03 -8.05049E+03 -2.02503E+03
 -3.38016E+03 -2.68256E+03 -3.89088E+02  1.24079E+03 -2.26106E+03  2.41327E+03 -3.90145E+03  3.07441E+03
 -7.26989E+03  2.59620E+01 -7.75024E+03 -6.71428E+03 -3.47832E+03 -1.11518E+04  3.19258E+03 -7.96838E+03
  6.69155E+03 -3.14117E+03  4.79851E+03  1.15737E+03  1.17298E+03  1.77755E+03 -2.98103E+03  7.59780E+02
 -2.76041E+03 -5.38907E+03 -1.85498E+03 -5.33775E+03  3.88132E+03 -7.14775E+03  8.43908E+03 -3.86953E+03
  1.05534E+04  7.23607E+02  7.99916E+03  5.80650E+03  1.44881E+03  7.85552E+03 -3.92533E+03  8.29937E+03
 -6.77671E+03  2.96765E+03 -3.14515E+03 -1.23201E+03  4.65137E+02 -1.68046E+03  3.29676E+03 -1.41752E+03
  2.94604E+03  2.85179E+03  6.83698E+02  5.27361E+03 -3.59988E+03  5.89279E+03 -7.30178E+03  1.53553E+03
 -4.06030E+03 -2.60988E+03  5.36910E+02 -6.93506E+03  2.21139E+03 -1.84636E+03  3.58717E+03  1.20826E+03
  7.51237E+02  2.66627E+03 -3.36588E+03  4.09895E+03 -3.94254E+03  2.39015E+03 -3.49309E+03 -8.94121E+02
 -3.34475E+03 -6.01652E+03  1.81074E+03 -5.81944E+03  4.84648E+03 -3.57646E+03  5.67073E+03  4.09719E+02
  3.43119E+03  4.21025E+03 -4.13211E+01  5.73242E+03 -4.15614E+03  4.13037E+03 -4.16263E+03  6.88675E+01
 -3.89388E+03 -3.91081E+03 -1.82422E+03 -4.40958E+03  1.97982E+03 -3.98422E+03  2.22652E+03 -1.80523E+03
  2.29749E+03 -3.33991E+02 -1.00935E+02  1.57859E+03 -3.79549E+02  6.17164E+02 -5.11355E+02 -1.30394E+03
  3.72416E+03  1.46011E+02  5.37009E+03 -9.79380E+01  4.90855E+03  2.02446E+03  4.50902E+03  5.61369E+03
 -5.89963E+02  6.84762E+03 -6.70914E+03  5.25993E+03 -8.70573E+03  1.10993E+03 -6.12891E+03 -1.51641E+03
 -4.08152E+03 -5.98558E+03 -1.75580E+03 -4.26317E+03  2.17235E+03 -2.34829E+03  8.92766E+02 -1.50296E+03
  9.64113E+02 -8.53927E+02  7.04724E+02 -1.72984E+03  3.62880E+03 -1.25525E+03  3.28905E+03  7.69722E+02
  3.17972E+03  4.76068E+02  1.16034E+03  1.68821E+03 -7.55471E+02  1.89936E+03 -4.87900E+03  1.17280E+03
 -3.74833E+03 -7.43512E+02 -1.32697E+03 -2.74644E+03  6.33146E+01 -3.24753E+03  2.28729E+03 -4.10984E+03
  4.68696E+03 -3.04237E+03  5.54749E+03 -4.14356E+02  4.03260E+03  2.92938E+03  5.11300E+02  5.07065E+03
 -1.31093E+03  5.86222E+03 -2.83997E+03  7.05914E+02 -8.08080E+02 -1.02522E+03 -3.74916E+02 -1.72108E+02
 -6.55870E+02  4.65959E+02  2.30943E+02  1.96970E+03 -1.35110E+03  7.21348E+02 -3.56224E+03  5.14548E+02
 -5.55550E+02 -3.17655E+03  1.44113E+03 -4.43848E+03  2.79037E+03 -4.34336E+03  2.45258E+03 -1.08262E+03
  3.34765E+03  1.64850E+03  1.50227E+03  2.14967E+03 -8.49618E+02  3.24414E+03 -1.24655E+03  1.92259E+03
 -2.87400E+03  3.82663E+02 -2.50014E+03 -1.81678E+03 -7.31006E+02 -1.43626E+03  4.38930E+02 -1.50161E+03
  2.77830E+03 -1.19715E+03  9.21636E+02  7.54388E+02  3.00593E+02  1.76793E+03  1.61333E+03  1.53391E+03
  1.77164E+03  4.44221E+02  3.70611E+02  5.01521E+02  9.05089E+02  1.59801E+03  2.20602E+03  1.82951E+02
 -9.55615E+02  1.62184E+03 -1.79228E+03  4.17452E+03 -1.99543E+03  1.54724E+03 -3.74783E+03 -6.66444E+02
 -1.30111E+03 -1.58525E+03  7.90403E+02 -4.00252E+03  1.34478E+03 -2.94613E+03  2.32866E+03  1.03552E+03
  2.32437E+03  1.87683E+03 -6.48678E+02  2.43715E+03 -2.81500E+02 -2.12002E+01 -1.14869E+03  3.19071E+02
  3.84108E+02 -1.01456E+03  2.93172E+02 -1.35485E+03  1.27117E+03 -3.80302E+02  7.59539E+02  1.18274E+03
  6.35002E+02  1.14582E+03 -5.90065E+01 -1.72264E+03  1.30367E+03  6.83851E+02  1.63678E+03 -5.37742E+02
 -1.38490E+03  6.58241E+02  1.90298E+03  1.62582E+03 -1.10958E+02  1.77089E+03 -1.55873E+03  2.53032E+03
 -3.24160E+01  8.32708E+02 -1.49812E+03 -3.29234E+01 -1.56922E+03 -8.27686E+02  3.84755E+02 -8.87451E+01
 -1.99135E+02 -4.16226E+02  9.06812E+02 -1.02301E+03  1.32756E+03  1.65252E+03 -2.58760E+02  1.46524E+03
 -1.13806E+03  1.63358E+02 -1.50855E+03 -5.21252E+02 -3.97656E+02 -2.05900E+03 -4.70163E+02 -1.58919E+03
 -5.07626E+02 -6.74415E+02  8.81800E+02  5.37218E+02  1.74769E+03 -1.35886E+03 -8.03278E+02  6.07742E+02
  6.37854E+02 -6.60842E+02 -1.55096E+03 -3.99646E+02  1.09292E+03 -6.17131E+01  4.16077E+02 -1.08077E+03
  1.37697E+03  3.11675E+02  2.70497E+03  5.18427E+02  1.78726E+03  1.17260E+03  3.34866E+02  6.91163E+02
 -8.00965E+02  2.26222E+02 -8.59120E+02  1.11018E+01  2.20791E+02 -7.26422E+02  1.08778E+03 -1.72346E+03
  1.80879E+03 -1.48506E+03  1.86748E+02  2.76945E+02  1.77625E+02  1.16799E+03  1.33946E+03  9.52388E+02
 -7.45409E+02  6.92205E+02 -5.81396E+02  9.03852E+02  6.23323E+02 -5.46754E+02 -9.79942E+02  6.74009E+02
 -4.22511E+02  1.56878E+02 -1.09070E+03  7.04473E+02 -1.16818E+03  1.85393E+02 -2.22842E+03 -9.31575E+02
 -1.19725E+03 -2.59599E+03  4.52004E+01 -2.09661E+03  2.11877E+02 -1.35740E+03  1.87796E+03  5.62595E+01
  1.90918E+03 -3.42746E+02  1.30534E+03  6.71427E+02 -1.29977E+02  1.21144E+03 -6.18319E+02  5.31350E+02
 -6.50704E+02  9.12739E+02 -3.06603E+02 -9.42461E+02 -1.53846E+03  6.47608E+02 -1.55054E+02 -1.46292E+02
 -6.22284E+02  7.11970E+02 -9.30921E+02  8.46623E+01  5.05166E+02  2.41561E+02 -1.00312E+03 -3.60248E+02
  2.08553E+02 -8.93777E+02 -1.05315E+03 -3.40585E+02  4.57496E+02  9.73604E+02 -6.00197E+02  7.04294E+02
 -1.33788E+03  2.06338E+03 -8.75496E+02 -9.98475E+01 -2.31189E+03 -8.75352E+02 -7.06765E+01 -3.78620E+02
 -2.13038E+02 -1.26953E+03  1.32244E+02 -1.26988E+03  9.14974E+01 -5.43521E+02  7.67170E+01  2.41076E+02
  2.49497E+02  6.25082E+02  8.84223E+02 -9.08972E+02 -9.98464E+02  4.29939E+02 -3.28288E+01  3.25397E+02
  8.23934E+02  5.76602E+02 -1.58453E+02  1.32927E+03 -1.84862E+03  4.79752E+02  1.43176E+03  8.38663E+01
 -2.71968E+02  1.15290E+03 -2.20297E+01  2.31851E+02 -8.15534E+02  4.59413E+02 -1.62852E+02  2.46290E+02
 -2.28481E+02 -3.34124E+02 -2.85956E+01 -7.44952E+01  1.87038E+02 -6.80807E+02  4.45600E+02  8.80603E+02
  9.52886E+02  3.27674E+02  1.54447E+02  2.53515E+02 -7.00718E+02  1.64010E+03 -1.89400E+02  1.88033E+02
 -1.25901E+01  4.11502E+01  8.92538E+02 -8.15051E+02 -7.95476E+02 -9.72028E+01 -1.79014E+02 -3.82327E+02
  3.28047E+02  2.53507E+02  2.20939E+02 -8.19799E+02  6.26685E+02 -1.37694E+03  6.34624E+02  1.72545E+02
  2.09790E+03  2.32323E+02 -4.10910E+02  4.48474E+02 -7.70711E+02 -4.42335E+02 -8.32755E+01 -2.90630E+02
