 $NMID ID='MM_0lb_SNR200_16hz_g50_52.RAW', FMTDAT='(8E13.5)'
 TRAMP=1., VOLUME=1. $END
  3.08917E+05  1.86205E+02  3.37513E+05  2.50805E+05  8.50406E+04  3.38074E+05 -1.31763E+05  2.49907E+05
 -1.90175E+05  8.19550E+04 -1.11454E+05 -3.26817E+04  1.27597E+03 -5.10534E+04  5.53150E+04 -2.98358E+02
  3.33799E+04  5.32194E+04 -1.65069E+04  7.56111E+04 -6.09001E+04  6.25660E+04 -8.37472E+04  3.23529E+04
 -8.01939E+04 -1.19486E+04 -5.66360E+04 -5.03345E+04 -1.52886E+04 -6.77887E+04  2.78024E+04 -4.63253E+04
  3.99553E+04  3.66392E+03  1.62996E+04  4.75708E+04 -3.48104E+04  4.63261E+04 -6.62330E+04 -7.79676E+01
 -5.27847E+04 -5.68251E+04 -5.88040E+03 -7.52013E+04  3.34771E+04 -5.42610E+04  4.70052E+04 -1.72046E+04
  4.22611E+04  1.18096E+04  3.05993E+04  2.58086E+04  1.53689E+04  2.84461E+04 -5.00320E+03  2.68545E+04
 -2.22393E+04  1.33590E+04 -1.97034E+04 -4.96672E+03  4.64233E+03 -7.52911E+03  2.28065E+04  1.22692E+04
  6.95668E+03  3.38949E+04 -3.32045E+04  3.48788E+04 -6.24060E+04  1.98875E+03 -5.64667E+04 -4.21212E+04
 -1.29825E+04 -6.19025E+04  3.84119E+04 -4.52789E+04  5.61656E+04 -2.33587E+03  3.29932E+04  3.19596E+04
 -7.21400E+03  3.48598E+04 -2.94074E+04  1.56620E+04 -2.81043E+04 -4.09892E+03 -1.53122E+04 -9.76271E+03
 -7.88441E+03 -1.25515E+04 -1.16278E+03 -1.84846E+04  7.09431E+03 -2.26319E+04  1.47084E+04 -1.42526E+04
  1.06151E+04  5.34422E+03 -8.05606E+03  1.39302E+04 -1.99161E+04 -2.91152E+03 -7.89661E+03 -3.14110E+04
  2.25484E+04 -4.28169E+04  4.69508E+04 -1.87119E+04  4.36203E+04  1.93450E+04  1.49338E+04  4.38844E+04
 -1.58987E+04  3.41230E+04 -2.40097E+04  1.34905E+03 -9.40681E+03 -2.74816E+04  2.09887E+04 -3.48630E+04
  3.97198E+04 -8.42116E+03  3.39950E+04  2.34083E+04  1.67965E+04  4.41545E+04 -8.01823E+03  4.79524E+04
 -3.07880E+04  3.25683E+04 -3.96297E+04  8.98221E+03 -4.10813E+04 -1.47482E+04 -2.20117E+04 -3.58166E+04
  8.31530E+03 -3.56278E+04  3.05524E+04 -1.40855E+04  2.84403E+04  1.08605E+04  3.42795E+03  1.82066E+04
 -1.35109E+04  7.48721E+03 -1.06453E+04 -7.45604E+03  5.87386E+03 -9.34964E+03  1.77084E+04  7.58120E+03
  1.27520E+04  2.19037E+04 -6.88510E+03  2.53988E+04 -2.12654E+04  1.07734E+04 -2.58164E+04 -4.93518E+03
 -1.85470E+04 -1.58839E+04 -7.89555E+03 -1.93761E+04  3.82590E+03 -1.63372E+04  1.53415E+04 -1.61827E+04
  2.45634E+04 -1.20132E+04  3.06483E+04  2.18889E+03  2.22762E+04  1.83455E+04  4.55368E+03  3.37242E+04
 -1.78049E+04  2.94679E+04 -2.72890E+04  1.06806E+04 -1.94953E+04 -1.00703E+04 -4.55123E+03 -1.33224E+04
  2.34679E+03 -3.77279E+03 -3.56018E+03  6.24164E+03 -1.31915E+04  4.32522E+03 -1.45015E+04 -5.05574E+03
 -8.55134E+03 -1.83650E+04  4.02008E+03 -2.22584E+04  1.48656E+04 -1.61149E+04  1.68758E+04 -1.29571E+03
  1.00996E+04  1.18944E+04 -1.37026E+03  1.78928E+04 -1.24283E+04  9.80435E+03 -1.70885E+04 -4.25528E+03
 -1.33479E+04 -1.63930E+04 -2.31078E+03 -2.13230E+04  9.24990E+03 -1.68905E+04  1.74349E+04 -7.93177E+03
  1.69127E+04  8.80901E+02  1.06104E+04  3.28665E+03  6.19734E+03  6.78396E+02  7.57854E+03 -1.80056E+03
  1.54596E+04  2.78403E+03  1.76311E+04  1.44633E+04  1.03897E+04  2.78847E+04 -2.59891E+03  3.10718E+04
 -1.72429E+04  2.39068E+04 -2.91429E+04  1.25808E+04 -2.93504E+04 -2.97502E+03 -2.56851E+04 -1.81049E+04
 -1.19071E+04 -2.48569E+04  8.67021E+03 -2.26184E+04  2.00707E+04 -1.11418E+04  1.90833E+04  5.13037E+03
  7.61666E+03  1.32182E+04 -9.42723E+03  1.22931E+04 -1.54100E+04  3.74741E+03 -1.11407E+04 -8.72431E+03
 -4.65128E+02 -1.38502E+04  7.78444E+03 -1.02549E+04  1.03565E+04 -1.17932E+03  2.11203E+03  6.31250E+03
 -6.03286E+03  2.65734E+03 -5.78801E+03 -5.61672E+03 -3.41539E+02 -1.25397E+04  9.80951E+03 -1.29796E+04
  1.45941E+04 -7.21641E+03  1.62497E+04  2.00761E+03  1.38047E+04  1.15227E+04  5.88495E+03  1.87348E+04
 -2.41695E+03  2.00031E+04 -1.21635E+04  1.23785E+04 -1.40775E+04  2.64105E+03 -1.00820E+04 -4.27429E+03
 -4.35974E+03 -5.22397E+03 -1.10731E+03  5.66640E+01 -3.14752E+03  1.67850E+03 -3.93857E+03  4.23358E+03
 -9.48689E+03 -1.29018E+03 -1.01003E+04 -7.96835E+03 -3.52773E+03 -1.42608E+04  4.43736E+03 -1.03188E+04
  7.85604E+03 -3.91355E+03  6.48326E+03  2.25942E+03  1.18667E+01  3.62023E+03 -4.43990E+03 -7.01093E+02
 -3.21349E+03 -5.75057E+03 -5.36773E+02 -8.32247E+03  4.76050E+03 -8.22388E+03  1.14136E+04 -5.17458E+03
  1.47131E+04  1.07088E+03  1.00547E+04  8.02959E+03  2.56694E+03  1.16221E+04 -5.64228E+03  1.11889E+04
 -7.43146E+03  6.60020E+02 -4.02399E+03 -1.41225E+03  7.41149E+02 -1.75222E+03  5.27509E+03 -1.28223E+02
  4.98309E+03  5.52238E+03  2.60972E+02  8.12165E+03 -5.17635E+03  7.73937E+03 -9.93775E+03  1.00370E+03
 -6.90774E+03 -4.13205E+03  6.50368E+02 -8.22015E+03  5.20381E+03 -4.18817E+03  5.86550E+03  1.09341E+03
  1.54627E+02  4.79673E+03 -5.37698E+03  6.01735E+03 -6.41694E+03  1.21608E+03 -6.67583E+03 -2.28463E+03
 -3.29991E+03 -8.04533E+03  1.18418E+03 -9.36998E+03  6.77336E+03 -4.58818E+03  9.46728E+03  1.36501E+03
  6.13767E+03  5.38771E+03 -9.37267E+02  8.61945E+03 -5.78811E+03  4.03176E+03 -6.65632E+03 -9.06317E+02
 -5.75447E+03 -7.02467E+03 -7.11652E+02 -6.60805E+03  2.95794E+03 -6.38712E+03  2.30514E+03 -2.73661E+03
  3.16669E+03  1.15962E+03  6.37351E+02  1.02010E+03 -2.40478E+02 -1.84533E+03  2.23169E+02 -2.85397E+03
  5.59329E+03 -2.32195E+03  6.85176E+03  1.12592E+03  6.98715E+03  5.56513E+03  6.93765E+03  9.38684E+03
 -2.60171E+03  1.17784E+04 -1.07104E+04  8.79878E+03 -1.18047E+04  2.56785E+03 -1.03461E+04 -4.36987E+03
 -6.08616E+03 -8.51548E+03 -1.05406E+03 -7.05357E+03  2.40264E+03 -3.11415E+03  1.60118E+03 -3.02067E+03
  1.86335E+03 -1.63820E+03  2.05051E+03 -2.60912E+03  5.05642E+03 -3.56373E+03  3.80272E+03 -1.30309E+03
  4.97554E+03  6.05071E+02  2.99328E+03  4.72630E+03 -1.66197E+03  4.76416E+03 -5.63511E+03  4.56932E+03
 -6.89368E+03 -1.86421E+03 -3.02679E+03 -4.73908E+03 -6.46403E+02 -6.62962E+03  4.05111E+03 -7.05635E+03
  6.47793E+03 -4.00992E+03  8.77267E+03 -1.91242E+02  6.59272E+03  5.60062E+03  1.21624E+03  8.08509E+03
 -3.18862E+03  7.19948E+03 -4.04204E+03  3.32664E+03 -2.65043E+03 -2.31124E+01 -1.88817E+03 -1.12262E+03
 -1.51413E+03 -1.78686E+02 -1.60302E+03  2.33648E+03 -3.52566E+03  1.45520E+03 -5.24325E+03 -6.46631E+02
 -2.69565E+03 -5.47878E+03 -5.08703E+02 -5.47065E+03  2.98741E+03 -6.14243E+03  5.18246E+03 -1.22411E+03
  5.22177E+03  2.70196E+03  2.70663E+03  6.07762E+03 -1.17299E+03  5.42994E+03 -4.36146E+03  2.31024E+03
 -5.43310E+03  1.15125E+02 -5.06592E+03 -3.02097E+03 -1.25227E+03 -5.67089E+03  3.41238E+03 -3.94534E+03
  3.70542E+03 -1.14560E+03  3.58633E+03  8.03363E+02  6.04000E+01  1.74935E+03  7.28260E+02  7.28949E+02
  1.53875E+03  8.20281E+02  1.89139E+03  1.96484E+03  2.53554E+03  3.13158E+03  9.44858E+02  2.14478E+03
 -1.49641E+03  4.25495E+03 -3.63398E+03  4.58372E+03 -5.62808E+03  1.10831E+03 -6.93604E+03 -1.30014E+03
 -2.28295E+03 -5.58302E+03  2.16082E+03 -5.67929E+03  3.57760E+03 -4.33232E+03  3.86402E+03 -1.86787E+03
  3.21871E+03  2.81819E+03  1.25130E+03  3.18725E+03 -8.81464E+02  3.33772E+03 -2.72055E+03 -9.82721E+02
 -9.39658E+02 -1.29669E+03  8.85190E+02 -3.02384E+03  1.61270E+03 -1.83894E+03  1.16869E+03 -4.31251E+01
  1.64030E+03  8.12450E+02  6.65554E+02  6.03345E+02 -6.96035E+01  1.50382E+03  1.05785E+03  2.15743E+02
 -1.52071E+02 -6.89485E+02  2.11877E+03  9.61708E+02  1.60459E+03  2.40913E+03 -6.22365E+02  4.25997E+03
 -1.58411E+03  1.39961E+03 -2.75088E+03  7.35459E+02 -3.69943E+03 -9.27767E+02 -1.98688E+03 -1.49108E+03
  1.46096E+03 -2.31523E+03 -1.53484E+02 -7.97141E+02 -1.02596E+01  2.21891E+03 -6.19412E+02  1.67515E+03
 -1.40795E+03  7.33031E+02 -1.28297E+03 -1.51913E+03 -8.05545E+02 -3.62437E+03  5.12176E+01 -3.16639E+03
  1.57319E+03 -1.06280E+03  2.98879E+02 -1.00208E+02  1.75497E+03  5.03577E+02  5.58249E+02  2.29828E+03
 -1.31760E+03 -7.29261E+02 -1.42590E+03 -1.34938E+02 -4.20728E+02 -1.79549E+03  3.90020E+03 -1.57019E+03
  3.40479E+03 -2.87951E+02  2.37222E+03  1.69480E+03  1.13719E+03  2.27391E+03 -1.19027E+03  4.74575E+03
 -3.77715E+03 -6.76965E+02 -1.82839E+03  1.04035E+03 -1.00889E+03 -2.01334E+03  1.34459E+03 -8.16943E+02
  2.44015E+03 -4.64570E+02  1.33224E+03  8.31802E+02  1.71256E+03  2.08803E+03 -5.03036E+01  1.09017E+01
 -8.79278E+02  2.35862E+03 -1.24221E+03  6.33001E+02 -1.35242E+03  8.16944E+02 -4.98669E+02  7.30314E+02
 -8.61306E+02  1.76829E+03 -1.83989E+03  3.92092E+02 -1.92710E+03 -1.87852E+02 -3.88872E+03 -1.79853E+03
 -1.84582E+03 -4.29895E+03  2.38590E+03 -4.79247E+03  1.72358E+03 -3.32731E+03  5.06001E+03 -1.08373E+03
  4.11557E+03  2.25589E+02  2.49166E+03  2.39146E+03 -3.37178E+02  3.05224E+03 -1.35130E+03  1.49805E+03
 -1.74216E+03  1.02018E+03 -2.44691E+02 -1.47144E+03 -1.34079E+02  9.28257E+02 -6.11192E+02  5.89229E+02
 -9.21088E+02 -2.22127E+02 -1.85749E+03  7.97387E+02  3.69524E+02 -1.00094E+03 -9.92506E+02 -1.11944E+03
  2.21139E+03  4.38171E+02  8.74548E+02 -7.90625E+01  2.40744E+03  2.08318E+03 -1.17987E+03  2.10921E+03
 -2.41579E+03  3.02926E+03 -2.68841E+03  9.15757E+02 -3.35584E+03 -4.92278E+02 -1.92830E+03 -2.51255E+03
 -2.33943E+03 -3.27845E+03  1.51258E+03 -2.38859E+03  8.72843E+02 -7.56750E+02  1.37943E+03  5.06823E+02
  1.50124E+03  1.22047E+03 -4.70326E+02  9.49671E+02 -5.35553E+01 -1.04907E+03  2.12405E+02 -8.45088E+01
  1.72398E+03 -1.44300E+01 -3.64276E+02 -3.48571E+02 -1.98085E+01 -1.98684E+02 -3.24552E+02  1.00696E+03
 -6.32251E+01  1.72075E+03 -4.09328E+02  1.40800E+03 -1.30265E+03 -5.16744E+02 -1.45313E+03 -1.70401E+03
  1.03693E+03  6.33184E+01  7.16354E+02  9.39241E+01  2.43087E+03 -1.00628E+03  4.99668E+02  2.74006E+03
  1.25015E+02  2.03724E+03  2.89792E+02  8.71123E+02 -1.43852E+03  5.29723E+02 -3.60503E+02 -4.30551E+02
 -8.57589E+02  3.64729E+02 -6.19418E+02 -4.51258E+01 -1.60879E+03  7.56586E+02 -1.81034E+03 -2.88420E+02
 -2.06103E+03  3.49786E+02 -6.83599E+01 -2.24092E+03  1.23608E+03 -2.48404E+03  2.41273E+03 -1.36345E+03
  7.18630E+02 -2.43919E+02 -6.41885E+02  1.09873E+03 -5.33651E+02  1.99647E+03 -5.94069E+02  1.65997E+03
