 $NMID ID='MM_0lb_SNR200_16hz_g55_44.RAW', FMTDAT='(8E13.5)'
 TRAMP=1., VOLUME=1. $END
  3.09557E+05 -3.33271E+02  3.38516E+05  2.51759E+05  8.42802E+04  3.37486E+05 -1.32327E+05  2.51558E+05
 -1.89725E+05  8.31951E+04 -1.10984E+05 -3.33127E+04  1.52702E+03 -4.98458E+04  5.40330E+04 -6.90625E+02
  3.72102E+04  5.33011E+04 -1.68867E+04  7.53094E+04 -6.03132E+04  6.41030E+04 -8.26144E+04  3.24667E+04
 -8.07301E+04 -1.19773E+04 -5.69400E+04 -4.98832E+04 -1.48715E+04 -6.98722E+04  2.67448E+04 -4.49403E+04
  3.94543E+04  3.85384E+03  1.57290E+04  4.74738E+04 -3.35508E+04  4.67731E+04 -6.80302E+04 -5.46929E+02
 -5.29131E+04 -5.67499E+04 -7.69697E+03 -7.68006E+04  3.34329E+04 -5.51079E+04  4.87999E+04 -1.73920E+04
  4.31290E+04  1.16364E+04  3.17750E+04  2.51356E+04  1.57427E+04  2.88607E+04 -5.56731E+03  2.77228E+04
 -2.19310E+04  1.37094E+04 -1.96600E+04 -5.09401E+03  5.25482E+03 -7.38785E+03  2.26127E+04  1.18580E+04
  8.46531E+03  3.55621E+04 -3.17144E+04  3.40178E+04 -6.29637E+04  1.68790E+03 -5.59807E+04 -4.19275E+04
 -1.20743E+04 -6.30424E+04  3.99451E+04 -4.49758E+04  5.67457E+04 -1.98861E+03  3.31456E+04  3.13286E+04
 -6.93645E+03  3.74253E+04 -2.95412E+04  1.62603E+04 -3.04980E+04 -5.97174E+03 -1.63909E+04 -1.16594E+04
 -8.12594E+03 -1.30601E+04 -1.19822E+03 -1.80209E+04  6.61581E+03 -2.23976E+04  1.66418E+04 -1.25936E+04
  1.17476E+04  4.78845E+03 -6.94557E+03  1.26926E+04 -2.13301E+04 -4.08316E+03 -9.35933E+03 -3.27614E+04
  2.20073E+04 -4.24802E+04  4.72578E+04 -2.02463E+04  4.41135E+04  1.85920E+04  1.59872E+04  4.34383E+04
 -1.59456E+04  3.16111E+04 -2.38567E+04  2.24247E+03 -8.69760E+03 -2.76877E+04  2.01174E+04 -3.24268E+04
  4.02809E+04 -9.48120E+03  3.50818E+04  2.34190E+04  1.68370E+04  4.48939E+04 -7.19898E+03  4.97698E+04
 -3.06905E+04  3.28166E+04 -4.06249E+04  9.35756E+03 -4.10305E+04 -1.66442E+04 -2.32166E+04 -3.77108E+04
  6.63981E+03 -3.66825E+04  3.10660E+04 -1.45685E+04  2.81815E+04  1.11971E+04  3.68106E+03  1.84250E+04
 -1.41326E+04  8.20251E+03 -1.01623E+04 -8.40381E+03  6.29353E+03 -1.11590E+04  1.70933E+04  5.28795E+03
  1.40427E+04  2.21804E+04 -5.84823E+03  2.50854E+04 -2.17365E+04  1.02255E+04 -2.82173E+04 -6.66127E+03
 -1.94379E+04 -1.65437E+04 -7.84934E+03 -1.98406E+04  5.89340E+03 -1.78772E+04  1.41084E+04 -1.70270E+04
  2.49385E+04 -1.22671E+04  3.11038E+04  1.86256E+03  2.30719E+04  1.92018E+04  4.08418E+03  3.62788E+04
 -1.78566E+04  2.94876E+04 -2.74248E+04  9.55999E+03 -2.09085E+04 -1.06131E+04 -4.09706E+03 -1.40572E+04
  1.51193E+03 -2.44044E+03 -4.29547E+03  5.59160E+03 -1.44321E+04  5.08758E+03 -1.57413E+04 -6.79427E+03
 -1.02368E+04 -1.84909E+04  6.39871E+03 -2.21884E+04  1.55862E+04 -1.55306E+04  1.68541E+04 -2.02599E+03
  1.05888E+04  1.18385E+04 -1.41901E+03  1.86596E+04 -1.23588E+04  1.04995E+04 -1.65429E+04 -3.16653E+03
 -1.36815E+04 -1.53961E+04 -2.81480E+03 -2.18612E+04  1.03602E+04 -1.76139E+04  1.82196E+04 -9.90293E+03
  1.78027E+04  1.01335E+02  1.15088E+04  5.16348E+03  6.43417E+03  2.60788E+02  9.43651E+03 -1.21584E+03
  1.68685E+04  2.69137E+03  1.82765E+04  1.35644E+04  1.16932E+04  2.81054E+04 -3.14954E+03  3.19097E+04
 -1.73110E+04  2.54045E+04 -2.98077E+04  1.24571E+04 -3.12083E+04 -2.73755E+03 -2.60926E+04 -1.73566E+04
 -1.02659E+04 -2.35450E+04  8.56188E+03 -2.40260E+04  2.01738E+04 -1.17674E+04  1.74767E+04  5.29265E+03
  7.09803E+03  1.26037E+04 -8.03864E+03  1.19025E+04 -1.54204E+04  2.19446E+03 -1.16384E+04 -9.20945E+03
 -8.32780E+02 -1.48002E+04  8.05395E+03 -1.09905E+04  9.12649E+03 -2.11005E+03  2.43411E+03  5.82819E+03
 -7.09907E+03  3.43777E+03 -4.91060E+03 -6.05178E+03 -1.70055E+03 -1.21082E+04  9.02151E+03 -1.32138E+04
  1.53467E+04 -6.82845E+03  1.59320E+04  2.87733E+03  1.35541E+04  1.24022E+04  7.19366E+03  1.85235E+04
 -3.37274E+03  2.14373E+04 -1.22754E+04  1.31395E+04 -1.51175E+04  3.28226E+03 -1.05595E+04 -2.61962E+03
 -6.07215E+03 -3.77630E+03 -1.46379E+03  1.75787E+03 -2.59588E+03  1.61274E+03 -5.20772E+03  4.49811E+03
 -1.12077E+04  2.39708E+02 -1.04268E+04 -6.88143E+03 -4.05672E+03 -1.37377E+04  5.48435E+03 -1.04668E+04
  8.98755E+03 -3.76039E+03  5.44923E+03  2.44436E+03 -4.87491E+02  4.39277E+03 -4.53778E+03 -5.71200E+02
 -4.06406E+03 -6.29203E+03 -2.02211E+03 -1.02793E+04  5.81325E+03 -8.81659E+03  1.30675E+04 -5.78056E+03
  1.46902E+04  1.40954E+03  1.03322E+04  8.12256E+03  2.28975E+03  1.16770E+04 -7.43664E+03  9.56760E+03
 -8.99697E+03  3.39281E+03 -4.07363E+03 -1.50997E+03  1.81468E+03 -2.89007E+03  5.42981E+03 -2.26849E+03
  5.72157E+03  3.77048E+03  7.09704E+02  7.79224E+03 -6.58249E+03  8.16061E+03 -1.02430E+04  1.45654E+03
 -7.60114E+03 -4.66216E+03  1.47507E+02 -8.96593E+03  5.81606E+03 -3.51386E+03  5.47588E+03  1.02426E+03
  1.37188E+03  4.92815E+03 -4.94802E+03  6.63789E+03 -6.67468E+03  2.92770E+03 -7.39452E+03 -1.44353E+03
 -4.71866E+03 -8.59016E+03  1.86964E+03 -9.52843E+03  8.11914E+03 -5.53414E+03  1.06524E+04  1.70664E+03
  6.05065E+03  6.72674E+03 -4.72127E+02  1.07714E+04 -5.91618E+03  5.21263E+03 -7.24536E+03  1.41878E+02
 -7.18546E+03 -6.19184E+03 -1.20841E+03 -6.81609E+03  3.52611E+03 -5.81540E+03  3.97088E+03 -3.25377E+03
  3.69232E+03  1.79388E+03 -6.67812E+02  1.57504E+03 -2.09080E+02 -1.26498E+03  7.09864E+02 -2.79646E+03
  4.53260E+03 -2.11270E+03  7.72239E+03  3.98551E+02  8.31238E+03  4.55149E+03  6.96579E+03  1.05169E+04
 -1.68366E+03  1.12497E+04 -1.02484E+04  8.98069E+03 -1.45382E+04  2.07442E+03 -1.12261E+04 -4.86263E+03
 -6.62879E+03 -8.93137E+03 -5.22931E+02 -7.42564E+03  2.20976E+03 -3.99471E+03  2.35736E+03 -2.71225E+03
  2.70518E+03 -2.78054E+03  2.12012E+03 -1.80594E+03  3.22977E+03 -1.79458E+03  3.83458E+03 -1.92229E+01
  5.69071E+03  1.90884E+03  1.23228E+03  4.46541E+03 -1.18632E+03  3.90651E+03 -6.19688E+03  4.96757E+03
 -7.27388E+03 -1.07996E+03 -3.85356E+03 -5.73443E+03 -5.18781E+02 -7.92009E+03  4.52268E+03 -6.96495E+03
  7.81539E+03 -5.26804E+03  8.09821E+03  1.58703E+03  7.43246E+03  5.31200E+03  7.42826E+02  1.03919E+04
 -3.27348E+03  7.27065E+03 -4.63430E+03  2.60454E+03 -3.85165E+03 -1.02091E+03 -2.53205E+03 -9.61588E+02
  1.65780E+02  1.88511E+01 -1.25673E+03  1.75934E+03 -2.64976E+03 -4.18634E+01 -5.97142E+03 -5.29637E+02
 -3.31436E+03 -5.40357E+03 -7.59046E+00 -7.48114E+03  4.06291E+03 -5.79926E+03  5.13294E+03 -1.83254E+03
  6.34001E+03  3.79141E+03  1.71161E+03  4.97169E+03 -2.29688E+03  6.13682E+03 -3.21997E+03  4.49181E+03
 -6.26410E+03  9.13006E+02 -5.59152E+03 -3.64624E+03  6.08001E+02 -5.39721E+03  2.54027E+03 -3.33374E+03
  5.59777E+03 -1.72508E+03  2.08159E+03  5.23798E+02  7.14530E+02  2.52649E+03  1.91755E+03  1.51732E+03
  1.64005E+03  1.00401E+03  2.50091E+03  9.21043E+02  8.57056E+02  2.70040E+03  1.24762E+03  2.98046E+03
 -1.01751E+03  4.46917E+03 -3.38199E+03  4.43870E+03 -5.09567E+03  8.51747E+02 -6.76822E+03 -1.19826E+03
 -1.79476E+03 -5.77663E+03  1.09802E+03 -6.10022E+03  3.10606E+03 -3.62294E+03  4.76280E+03  2.09430E+02
  3.61020E+03  2.41373E+03  8.36959E+02  3.64091E+03 -8.36451E+02  3.10041E+03 -1.34064E+03  5.07785E+02
 -8.90565E+02 -1.24686E+03  3.09398E+03 -3.75244E+03  2.46478E+03 -1.29372E+03  2.09300E+03 -1.99116E+02
  1.26110E+03  3.84181E+02  1.19545E+03  7.59216E+02 -1.31586E+03  4.75366E+02  1.66019E+03 -3.12168E+02
 -1.35631E+02  1.79222E+01  3.18202E+03  2.77807E+02  5.46131E+02  3.94277E+03  9.88113E+01  4.39066E+03
 -2.95714E+03  4.00019E+03 -3.81695E+03  8.06193E+02 -3.69564E+03 -5.52380E+02  5.87039E+02 -8.54078E+02
  1.03889E+03 -1.63982E+03  1.98814E+03 -2.05053E+03 -2.61632E+02  2.09191E+03 -1.25861E+02  1.52116E+03
 -1.50027E+03  6.96223E+02 -3.29121E+03 -1.32192E+03 -1.66216E+03 -4.33242E+03  3.94290E+01 -2.63536E+03
  9.74680E+02 -2.31216E+03  2.11688E+03 -3.50911E+02  9.98174E+02  3.51000E+02  6.57128E+02  1.25225E+03
 -1.11931E+03  8.41420E+00 -1.00294E+03 -5.77573E+02  6.09019E+02 -1.04039E+03  3.03070E+03 -1.43666E+03
  2.77441E+03 -2.34109E+02  4.34549E+03  1.36742E+03  5.44034E+02  2.23222E+03 -5.85920E+02  3.03572E+03
 -1.95497E+03  1.08225E+03 -3.27787E+03  5.35602E+02 -1.70471E+03 -1.94346E+03  7.35734E+02 -1.32952E+03
  2.31550E+03 -7.95738E+02  3.68826E+02  4.69461E+02  9.76380E+02  1.84388E+03 -2.84286E+02  4.00693E+02
 -1.97187E+03  1.52816E+03 -1.04124E+03 -4.80117E+02  7.01014E+02 -3.88249E+02  6.81151E+00 -3.00538E+02
 -9.82246E+02  8.49351E+02 -3.17491E+03  7.22503E+02 -3.61095E+03  8.77677E+02 -3.17801E+03 -2.40182E+03
 -1.11511E+03 -4.50278E+03  1.31858E+03 -4.47850E+03  1.71880E+03 -3.78109E+03  5.70081E+03 -8.35852E+02
  3.36186E+03  5.39302E+02  1.94791E+03  3.22835E+03 -8.13270E+02  2.74292E+03 -7.74369E+02  1.43643E+03
 -1.67885E+03  1.25102E+03 -5.70477E+02 -3.13392E+02 -1.34580E+03 -1.04210E+03 -9.61698E+02  9.47373E+02
 -1.81112E+03  2.22116E+02 -9.59801E+02 -1.72506E+02 -1.00716E+02 -8.74789E+02 -9.86199E+02 -1.50237E+03
  2.46049E+03 -9.63427E+02  1.41567E+03  3.20053E+02  2.30042E+03  1.10623E+03  1.60654E+02  2.38430E+03
 -2.54542E+03  3.51949E+03 -2.66831E+03  2.02299E+03 -3.05874E+03 -1.20178E+02 -2.95753E+03 -2.76265E+03
 -1.52554E+03 -2.60947E+03 -5.41634E+02 -1.91444E+03  2.06835E+03 -1.11394E+03  3.30360E+02  2.59672E+02
  5.79849E+02  7.54444E+02 -8.88836E+02  2.18851E+02 -6.68038E+00 -5.84267E+02  3.71462E+02 -1.25807E+03
  6.77107E+02  1.30896E+02  7.14009E+02  7.28381E+02  7.78911E+02  6.09795E+02  2.61308E+02  1.39298E+03
 -1.00640E+03  6.76448E+02 -7.95109E+02  8.66778E+01 -1.99501E+03 -3.38354E+02 -7.86601E+02 -2.15871E+03
  1.05287E+03 -1.45422E+03  1.62610E+03 -2.16576E+02  1.66393E+03 -8.48037E+02  7.00605E+02  1.82122E+03
  6.62041E+02  1.03765E+03 -4.60222E+02  7.40655E+02 -2.64553E+02  2.82089E+02 -6.67033E+02 -2.17042E+02
 -1.77683E+02 -3.48894E+02 -3.36079E+02  8.20074E+00 -8.44851E+02 -3.50409E+02 -1.84782E+03  7.87683E+02
 -1.15369E+03 -1.27166E+03  1.73188E+02 -1.07533E+03  5.58430E+02 -2.36610E+03  1.65662E+03 -5.32435E+02
  1.02572E+03  5.55353E+01 -4.27901E+02  1.59535E+03 -1.22099E+03  2.15594E+03 -5.35874E+02 -2.73980E+02
