 $NMID ID='MM_0lb_SNR200_12hz_g60_62.RAW', FMTDAT='(8E13.5)'
 TRAMP=1., VOLUME=1. $END
  3.09736E+05  3.70469E+02  3.38415E+05  2.51689E+05  8.60870E+04  3.36816E+05 -1.33080E+05  2.52094E+05
 -1.91482E+05  8.37986E+04 -1.12809E+05 -3.11067E+04 -2.43258E+02 -5.07071E+04  5.37490E+04  5.94070E+02
  3.57630E+04  5.19569E+04 -1.66688E+04  7.71470E+04 -6.19483E+04  6.45177E+04 -8.51732E+04  3.17662E+04
 -8.22294E+04 -1.06398E+04 -5.81786E+04 -5.32845E+04 -1.56783E+04 -7.21910E+04  2.84551E+04 -4.64386E+04
  4.15476E+04  3.65781E+03  1.60375E+04  4.81782E+04 -3.61960E+04  4.79643E+04 -6.72206E+04 -1.75574E+02
 -5.37744E+04 -5.81305E+04 -6.84658E+03 -7.84297E+04  3.47299E+04 -5.74382E+04  4.91658E+04 -1.79177E+04
  4.44813E+04  1.14486E+04  3.36868E+04  2.73125E+04  1.53795E+04  3.07050E+04 -5.84402E+03  2.78912E+04
 -2.27846E+04  1.21504E+04 -1.76554E+04 -5.96714E+03  5.79722E+03 -6.69384E+03  2.34576E+04  1.29768E+04
  6.32422E+03  3.57358E+04 -3.31782E+04  3.64426E+04 -6.51690E+04  7.99810E+02 -5.76033E+04 -4.34146E+04
 -1.29719E+04 -6.40848E+04  4.04280E+04 -4.66824E+04  5.91054E+04 -2.14218E+03  3.51638E+04  3.41060E+04
 -5.35726E+03  3.81976E+04 -3.09319E+04  1.71779E+04 -3.25600E+04 -3.33799E+03 -1.79328E+04 -1.18974E+04
 -8.34209E+03 -1.36351E+04 -9.88767E+02 -1.98484E+04  8.28858E+03 -2.37643E+04  1.58844E+04 -1.36574E+04
  1.03047E+04  4.94579E+03 -9.38313E+03  1.24494E+04 -2.25356E+04 -6.42827E+03 -9.45148E+03 -3.48410E+04
  2.45168E+04 -4.68083E+04  4.87481E+04 -2.02824E+04  4.77009E+04  2.12424E+04  1.77285E+04  4.58509E+04
 -1.70087E+04  3.46795E+04 -2.70665E+04  3.44778E+03 -1.15358E+04 -2.78483E+04  2.12043E+04 -3.55434E+04
  4.48843E+04 -1.08429E+04  3.94378E+04  2.48366E+04  1.91447E+04  4.95026E+04 -7.74426E+03  5.43293E+04
 -3.34965E+04  3.75518E+04 -4.56306E+04  1.01969E+04 -4.53042E+04 -1.95322E+04 -2.50975E+04 -4.04351E+04
  7.68225E+03 -4.00491E+04  3.37070E+04 -1.68150E+04  2.97839E+04  1.16358E+04  5.01632E+03  2.00277E+04
 -1.39050E+04  8.06623E+03 -1.10108E+04 -7.53824E+03  6.47245E+03 -1.19657E+04  1.88339E+04  4.16537E+03
  1.39987E+04  2.27256E+04 -5.84542E+03  2.71325E+04 -2.29834E+04  1.34203E+04 -3.05145E+04 -2.33663E+03
 -2.42394E+04 -1.87771E+04 -1.02424E+04 -2.37100E+04  5.55816E+03 -2.32652E+04  1.90752E+04 -2.08304E+04
  2.87093E+04 -1.37891E+04  3.56198E+04  4.79613E+03  2.52751E+04  2.28326E+04  3.34346E+03  3.93704E+04
 -1.89282E+04  3.25897E+04 -3.01801E+04  1.13290E+04 -2.19636E+04 -9.59088E+03 -5.34869E+03 -1.28706E+04
  1.47964E+03 -1.61268E+03 -6.65378E+03  7.21061E+03 -1.92664E+04  3.98452E+03 -1.87587E+04 -8.91208E+03
 -1.16439E+04 -2.11048E+04  6.34907E+03 -2.54140E+04  1.74230E+04 -1.80086E+04  2.14554E+04 -2.47252E+03
  1.31703E+04  1.56727E+04 -3.35427E+02  2.28100E+04 -1.38460E+04  1.28723E+04 -2.27291E+04 -4.25278E+03
 -1.52665E+04 -1.93242E+04 -3.62153E+03 -2.54265E+04  1.12761E+04 -2.09726E+04  2.29921E+04 -1.16428E+04
  2.13407E+04 -1.56547E+03  1.55459E+04  6.27018E+03  7.92811E+03  1.47081E+03  1.10180E+04 -2.69114E+03
  1.97635E+04  3.34973E+03  2.17967E+04  1.64008E+04  1.68280E+04  3.53711E+04 -2.87650E+03  4.06951E+04
 -2.31186E+04  3.19373E+04 -3.80751E+04  1.68409E+04 -3.97629E+04 -4.98335E+03 -3.35627E+04 -2.30938E+04
 -1.36707E+04 -3.33556E+04  1.20748E+04 -2.95218E+04  2.50418E+04 -1.30854E+04  2.24853E+04  6.16232E+03
  8.52130E+03  1.68063E+04 -9.91896E+03  1.40338E+04 -1.91556E+04  2.11820E+03 -1.45713E+04 -1.05134E+04
 -1.33901E+02 -1.71246E+04  9.67292E+03 -1.26604E+04  1.23200E+04 -9.27979E+02  3.64276E+03  7.75371E+03
 -7.68171E+03  3.23253E+03 -7.58929E+03 -6.11103E+03 -1.42083E+03 -1.73720E+04  1.11247E+04 -1.92500E+04
  2.04578E+04 -1.07640E+04  2.28531E+04  3.51367E+03  1.96952E+04  1.66585E+04  8.16320E+03  2.62602E+04
 -3.94453E+03  2.76716E+04 -1.90721E+04  1.80873E+04 -2.03494E+04  2.77093E+03 -1.42784E+04 -4.91853E+03
 -5.84469E+03 -5.54196E+03 -4.12111E+02 -4.53247E+02 -3.26587E+03  3.15453E+03 -6.70500E+03  5.69182E+03
 -1.20544E+04 -1.10915E+03 -1.47974E+04 -1.19399E+04 -6.34105E+03 -1.76117E+04  6.63858E+03 -1.36671E+04
  1.21900E+04 -6.16255E+03  9.89387E+03  5.16856E+03 -1.29542E+03  6.27106E+03 -6.38540E+03  6.96264E+02
 -6.49442E+03 -8.84370E+03 -2.19942E+03 -1.26004E+04  7.45423E+03 -1.38855E+04  1.62296E+04 -8.79519E+03
  1.87411E+04  2.02258E+03  1.45544E+04  1.25279E+04  1.26611E+03  1.65960E+04 -9.25437E+03  1.33998E+04
 -1.15035E+04  4.54037E+03 -6.27533E+03 -1.99748E+03  1.77555E+03 -3.84904E+03  6.28793E+03 -2.32146E+02
  6.34832E+03  7.00468E+03  2.59269E+03  1.08600E+04 -8.38912E+03  1.00975E+04 -1.29097E+04  1.08530E+03
 -8.76138E+03 -8.13650E+03 -4.17958E+02 -1.17282E+04  8.26881E+03 -5.68201E+03  6.22948E+03  2.69444E+03
  1.05140E+03  6.61319E+03 -5.99610E+03  8.10767E+03 -1.18952E+04  5.67517E+03 -1.13018E+04 -4.82210E+03
 -5.70832E+03 -1.27682E+04  3.74629E+03 -1.69766E+04  1.21663E+04 -8.62387E+03  1.41822E+04  1.30474E+03
  8.89960E+03  9.37707E+03 -7.95263E+02  1.36969E+04 -1.01936E+04  6.73974E+03 -1.04106E+04 -1.45623E+03
 -9.33807E+03 -8.88972E+03 -2.01250E+03 -9.32366E+03  4.54385E+03 -7.25435E+03  6.41360E+03 -4.50427E+03
  5.39116E+03  9.13983E+02 -5.29591E+02  2.73280E+03  7.93100E+01 -2.40094E+03  1.22986E+03 -5.43608E+03
  8.27262E+03 -3.56120E+03  1.33301E+04  1.64667E+03  1.24956E+04  8.72744E+03  8.37576E+03  1.58012E+04
 -4.17902E+03  1.96422E+04 -1.63033E+04  1.61787E+04 -2.10310E+04  2.32866E+03 -1.68790E+04 -6.30882E+03
 -8.06414E+03 -1.39255E+04 -1.16435E+03 -1.12131E+04  4.87949E+03 -6.97041E+03  2.74383E+03 -6.04510E+03
  2.61246E+03 -2.65805E+03  5.11943E+03 -2.46945E+03  6.35215E+03 -4.55414E+03  6.82451E+03  1.73809E+01
  8.90758E+03  1.36133E+03  5.85840E+03  8.36978E+03 -1.46745E+03  8.25605E+03 -8.64604E+03  6.94598E+03
 -1.26195E+04  2.84794E+02 -6.89122E+03 -9.38190E+03 -1.17297E+03 -1.28855E+04  6.92503E+03 -1.31153E+04
  1.23508E+04 -7.69406E+03  1.60431E+04  1.73837E+03  1.03186E+04  1.15414E+04  1.97439E+03  1.51022E+04
 -7.42445E+03  1.22569E+04 -5.92788E+03  4.03611E+03 -5.10227E+03 -2.44682E+03 -2.69956E+03 -1.35913E+03
 -1.75567E+03 -1.57810E+01 -2.16464E+03  4.18325E+03 -4.01085E+03  1.96357E+03 -8.45252E+03 -1.16901E+03
 -5.94357E+03 -8.82882E+03 -3.88625E+02 -1.15008E+04  7.39363E+03 -1.01494E+04  1.11209E+04 -3.60723E+03
  1.13581E+04  5.21168E+03  3.68430E+03  9.46195E+03 -2.37824E+03  1.18333E+04 -7.94538E+03  7.24693E+03
 -1.03039E+04  8.96185E+02 -7.59362E+03 -6.91667E+03 -4.53515E+02 -8.04161E+03  5.20470E+03 -7.48568E+03
  6.63934E+03 -9.38421E+02  5.71968E+03  3.45594E+03  2.06033E+03  3.42484E+03  1.97284E+03  9.42075E+02
  2.63777E+03  1.67715E+03  2.29545E+03  5.51142E+02  4.46017E+03  3.12246E+03  3.26497E+03  5.48293E+03
 -2.52851E+03  7.48309E+03 -8.06822E+03  8.31139E+03 -1.09562E+04  2.58210E+03 -1.17488E+04 -3.34551E+03
 -5.38580E+03 -9.61259E+03  2.30964E+03 -1.33370E+04  6.71384E+03 -7.59156E+03  8.69818E+03 -1.38123E+03
  6.70639E+03  3.87418E+03  3.15530E+02  5.93606E+03 -3.30450E+03  4.04967E+03 -4.90393E+03  1.11100E+03
 -1.70980E+03 -3.70688E+03  2.27791E+03 -5.99328E+03  4.14295E+03 -2.33795E+03  4.30040E+03  7.66554E+02
  4.30074E+03  2.77398E+03  9.46456E+02  1.83807E+03 -6.40592E+02  1.59848E+03  2.03608E+03 -4.75868E+01
  2.11153E+02 -5.27399E+02  5.52815E+03  1.18567E+03  2.13428E+03  7.03249E+03 -4.27983E+02  7.63008E+03
 -4.83223E+03  3.50938E+03 -7.33428E+03  7.77582E+02 -6.60185E+03 -2.68397E+03 -1.67377E+03 -4.80372E+03
 -3.58103E+01 -5.74111E+03  2.49139E+03 -1.87115E+03  2.18329E+03  3.47842E+03 -3.17851E+03  4.11817E+03
 -5.05216E+03  2.15883E+03 -4.14085E+03 -2.09727E+03 -2.26198E+03 -6.12448E+03  8.88536E+02 -6.26506E+03
  3.76492E+03 -3.33370E+03  4.31918E+03 -1.08905E+02  3.61599E+03  1.43915E+03  9.13411E+02  2.68606E+03
 -1.41095E+03  2.46663E+03 -2.47261E+03 -1.00732E+03  4.79976E+02 -4.79579E+03  6.84076E+03 -4.24067E+03
  5.63682E+03  1.21761E+03  6.51832E+03  5.25409E+03  1.01199E+03  5.39010E+03 -1.26046E+03  6.44933E+03
 -6.67530E+03  2.47092E+03 -6.29477E+03 -1.55722E+03 -2.72033E+03 -5.02505E+03  1.27974E+03 -3.86331E+03
  3.78727E+03 -2.42395E+03  3.88426E+03  2.87113E+03  7.82702E+02  3.51184E+03 -8.21860E+02  4.03531E+03
 -2.11458E+03  2.54056E+03 -1.40070E+03  6.85293E+02  1.31657E+02 -2.78151E+01 -6.99477E+02  1.90630E+03
 -1.72301E+03  1.41653E+03 -4.79511E+03  1.81385E+03 -7.61101E+03 -4.76623E+02 -8.50830E+03 -4.59428E+03
 -2.18067E+03 -8.25236E+03  2.00923E+03 -1.00105E+04  5.22647E+03 -9.26717E+03  9.72945E+03 -3.10499E+03
  8.15003E+03  1.09386E+03  4.95951E+03  5.30907E+03  7.03786E+02  7.13940E+03 -4.46374E+03  4.84069E+03
 -4.25670E+03  9.55716E+02 -2.30782E+03 -1.02782E+03  1.07801E+02  3.76542E+02 -1.41416E+03  1.33219E+03
 -8.94940E+02  1.60221E+02 -1.25317E+03 -2.02678E+02  1.45620E+02 -1.79886E+03 -2.48351E+02 -3.71832E+03
  4.75070E+03 -2.02119E+03  2.73213E+03 -8.48811E+02  4.74320E+03  3.08161E+03  5.44231E+02  6.83471E+03
 -4.07434E+03  6.50020E+03 -8.54707E+03  4.42485E+03 -6.92779E+03  1.23677E+03 -5.12320E+03 -5.53398E+03
 -3.63881E+03 -4.66510E+03  2.88530E+03 -6.53210E+03  4.08860E+03 -2.23333E+03  3.82674E+03 -3.80908E+02
  1.75839E+03  7.56392E+02 -1.88492E+03  3.17632E+03 -1.13623E+03  5.94691E+02 -6.06748E+02 -3.84714E+02
  2.24746E+03  6.62714E+02  2.30255E+03  7.70564E+02  1.88225E+03  2.38279E+03  1.22233E+03  2.58310E+03
 -3.19464E+03  3.47026E+03 -2.43644E+03 -3.21892E+01 -3.57626E+03 -2.85542E+03 -1.54605E+03 -5.75215E+03
  3.93240E+03 -4.59688E+03  3.68026E+03  8.11599E+01  4.90894E+03 -6.89968E+02  2.16098E+03  2.16208E+03
 -4.14292E+01  3.74451E+03 -1.70022E+03  3.89776E+03 -3.15147E+03  2.11200E+03 -1.97198E+03  1.22412E+03
  4.82593E+01 -8.32213E+00 -7.73762E+02  9.21303E+02 -1.91494E+03  1.16800E+03 -2.86425E+03 -5.61403E+02
 -2.39340E+03 -1.00600E+03 -1.41546E+03 -5.32794E+03  1.26356E+02 -5.32495E+03  4.12038E+03 -8.55876E+02
  5.24598E+03 -3.07458E+02  1.93315E+03  7.48184E+02 -9.54679E+02  4.36222E+03 -3.30843E+03  2.13151E+03
