 $NMID ID='MM_0lb_SNR200_13hz_g45_100.RAW', FMTDAT='(8E13.5)'
 TRAMP=1., VOLUME=1. $END
  3.10026E+05 -6.18278E+02  3.37693E+05  2.50829E+05  8.48210E+04  3.38608E+05 -1.32610E+05  2.51463E+05
 -1.89659E+05  8.31535E+04 -1.12813E+05 -3.28738E+04  1.38380E+03 -5.03462E+04  5.32211E+04  9.90990E+02
  3.50626E+04  5.36261E+04 -1.71300E+04  7.59131E+04 -6.06231E+04  6.25379E+04 -8.41955E+04  3.21226E+04
 -8.04280E+04 -1.08910E+04 -5.68294E+04 -5.14168E+04 -1.44676E+04 -6.92958E+04  2.77792E+04 -4.58592E+04
  3.99982E+04  4.85040E+03  1.73801E+04  4.83169E+04 -3.38654E+04  4.71640E+04 -6.58386E+04 -1.32410E+03
 -5.36728E+04 -5.78598E+04 -7.10391E+03 -7.77108E+04  3.35606E+04 -5.57210E+04  4.81297E+04 -1.63108E+04
  4.42088E+04  1.13609E+04  3.31460E+04  2.58222E+04  1.65287E+04  2.97475E+04 -6.62544E+03  2.80175E+04
 -2.36791E+04  1.28555E+04 -1.68027E+04 -4.84117E+03  4.72434E+03 -8.35719E+03  2.21317E+04  1.16806E+04
  6.65521E+03  3.60138E+04 -3.20091E+04  3.56417E+04 -6.34092E+04  2.74775E+03 -5.72139E+04 -4.36453E+04
 -1.20859E+04 -6.31325E+04  4.02546E+04 -4.68422E+04  5.89913E+04 -1.29473E+03  3.54336E+04  3.35373E+04
 -6.45194E+03  3.57934E+04 -2.99403E+04  1.58062E+04 -2.97277E+04 -4.38869E+03 -1.80805E+04 -9.54928E+03
 -8.22071E+03 -1.32446E+04 -1.00756E+03 -1.85673E+04  7.04326E+03 -2.27338E+04  1.46774E+04 -1.24617E+04
  1.09777E+04  6.00264E+03 -9.61575E+03  1.31087E+04 -2.22625E+04 -5.18483E+03 -9.89608E+03 -3.38874E+04
  2.35378E+04 -4.34787E+04  4.82964E+04 -1.91386E+04  4.54415E+04  1.96417E+04  1.49022E+04  4.40991E+04
 -1.50272E+04  3.40844E+04 -2.45863E+04  7.33225E+02 -1.01192E+04 -2.77803E+04  2.21645E+04 -3.45286E+04
  4.08404E+04 -1.01836E+04  3.65653E+04  2.38967E+04  1.96683E+04  4.67999E+04 -7.56280E+03  5.03327E+04
 -3.15450E+04  3.50517E+04 -4.24575E+04  9.81761E+03 -4.27351E+04 -1.57246E+04 -2.25874E+04 -3.94871E+04
  7.78020E+03 -3.71476E+04  3.11329E+04 -1.51073E+04  2.89209E+04  1.07608E+04  4.48023E+03  1.95622E+04
 -1.29463E+04  7.34258E+03 -9.62679E+03 -7.70443E+03  6.90350E+03 -1.13002E+04  1.75820E+04  6.36884E+03
  1.27134E+04  2.18683E+04 -6.57101E+03  2.47640E+04 -2.33828E+04  1.16796E+04 -2.83461E+04 -4.62388E+03
 -2.17486E+04 -1.67133E+04 -9.48470E+03 -2.14653E+04  4.53395E+03 -2.02986E+04  1.67959E+04 -1.84701E+04
  2.66379E+04 -1.42778E+04  3.27790E+04  2.97683E+03  2.29678E+04  2.13032E+04  3.72605E+03  3.69026E+04
 -1.70386E+04  3.14760E+04 -2.79579E+04  1.02248E+04 -2.01846E+04 -1.03242E+04 -5.41559E+03 -1.26321E+04
  1.41442E+03 -3.09872E+03 -4.49229E+03  6.91779E+03 -1.60696E+04  4.32644E+03 -1.57842E+04 -8.02756E+03
 -9.61691E+03 -1.93764E+04  5.60891E+03 -2.27491E+04  1.43819E+04 -1.71404E+04  1.84991E+04  1.92017E+02
  1.17940E+04  1.28454E+04 -1.38200E+03  1.94989E+04 -1.34798E+04  1.16141E+04 -1.98340E+04 -3.65880E+03
 -1.39242E+04 -1.77946E+04 -2.64145E+03 -2.29896E+04  9.61669E+03 -1.86656E+04  2.00843E+04 -1.04346E+04
  1.96663E+04 -5.33439E+02  1.31592E+04  5.21857E+03  7.92041E+03  1.16945E+03  9.38098E+03 -3.04008E+03
  1.78418E+04  2.91678E+03  2.15150E+04  1.52849E+04  1.37258E+04  3.09944E+04 -3.52901E+03  3.45169E+04
 -2.02307E+04  3.01492E+04 -3.42686E+04  1.52014E+04 -3.47744E+04 -1.46991E+03 -2.82527E+04 -2.02423E+04
 -1.27972E+04 -2.84934E+04  9.07659E+03 -2.54262E+04  2.14895E+04 -1.36993E+04  2.03114E+04  6.19590E+03
  7.64069E+03  1.41874E+04 -9.91742E+03  1.27802E+04 -1.66102E+04  2.93624E+03 -1.23980E+04 -9.10900E+03
  3.11759E+02 -1.58643E+04  8.04050E+03 -1.30804E+04  9.26434E+03 -1.81420E+03  3.62094E+03  6.21174E+03
 -6.82790E+03  2.17780E+03 -5.60045E+03 -4.78007E+03 -1.09304E+03 -1.35025E+04  9.03425E+03 -1.45782E+04
  1.61811E+04 -8.46793E+03  1.85243E+04  1.49752E+03  1.71526E+04  1.26462E+04  8.30581E+03  2.07016E+04
 -2.99574E+03  2.46668E+04 -1.52198E+04  1.46257E+04 -1.64806E+04  3.79739E+03 -1.20789E+04 -3.32541E+03
 -5.78385E+03 -4.23370E+03 -3.71609E+02  4.73082E+01 -1.64075E+03  2.10545E+03 -5.09525E+03  4.97197E+03
 -1.05687E+04  4.21700E+02 -1.14878E+04 -9.23181E+03 -4.59316E+03 -1.59314E+04  5.08764E+03 -1.19637E+04
  1.02244E+04 -6.49623E+03  6.25079E+03  3.68300E+03 -2.92110E+02  4.26327E+03 -5.50107E+03 -1.84262E+02
 -4.45993E+03 -7.40350E+03 -2.18390E+03 -1.07953E+04  6.96575E+03 -1.18453E+04  1.48675E+04 -7.25949E+03
  1.75984E+04  2.40299E+03  1.31008E+04  9.98006E+03  2.69402E+03  1.32692E+04 -6.34582E+03  1.10212E+04
 -9.10779E+03  2.55170E+03 -4.88946E+03 -2.24122E+03  1.11788E+03 -3.74639E+03  5.72284E+03 -1.69302E+03
  6.68366E+03  4.05818E+03  2.01756E+02  8.46264E+03 -7.33369E+03  9.94008E+03 -1.09569E+04  2.91407E+03
 -6.80329E+03 -6.61386E+03  4.16650E+02 -1.07444E+04  7.73932E+03 -5.58919E+03  5.49445E+03  2.19293E+03
  2.78019E+03  6.50560E+03 -6.40239E+03  7.98641E+03 -8.26272E+03  4.68796E+03 -8.88300E+03 -3.62680E+03
 -5.51002E+03 -1.03210E+04  3.80730E+03 -1.20154E+04  9.92821E+03 -7.42586E+03  1.08319E+04  1.74756E+03
  8.18173E+03  7.97767E+03 -6.88460E+02  1.17690E+04 -6.97356E+03  7.36987E+03 -8.79805E+03 -2.38870E+02
 -7.76286E+03 -7.18583E+03 -1.45743E+03 -8.79726E+03  4.15453E+03 -7.14206E+03  4.99483E+03 -2.04349E+03
  3.52634E+03  1.46752E+03 -9.39962E+02  2.08351E+03 -5.66754E+02 -1.06589E+03  2.09347E+03 -4.85293E+03
  7.62463E+03 -2.14080E+03  9.55732E+03  1.45238E+03  9.91212E+03  6.89209E+03  7.09664E+03  1.28338E+04
 -2.34147E+03  1.52247E+04 -1.34354E+04  1.25746E+04 -1.72680E+04  2.76247E+03 -1.33297E+04 -5.68746E+03
 -7.62463E+03 -1.11230E+04 -1.71656E+03 -9.70772E+03  3.23208E+03 -6.43416E+03  3.95068E+03 -4.14086E+03
  2.08524E+03 -1.84436E+03  2.96351E+03 -3.85682E+03  4.48538E+03 -1.77483E+03  4.24196E+03  1.64673E+02
  8.36803E+03  8.71036E+02  3.13048E+03  6.18490E+03 -1.85502E+03  6.20160E+03 -7.36746E+03  3.52788E+03
 -1.01150E+04  9.82848E+01 -4.60141E+03 -6.59823E+03  1.83947E+02 -1.02881E+04  6.63769E+03 -8.90299E+03
  8.71242E+03 -5.99673E+03  1.07674E+04  1.19076E+03  8.97173E+03  7.72598E+03  1.58033E+03  1.03520E+04
 -4.67004E+03  9.75753E+03 -5.97645E+03  3.29434E+03 -5.20689E+03 -1.52292E+03 -1.82215E+03 -1.29667E+03
 -1.57893E+02  2.62481E+02 -8.34914E+02  1.40466E+03 -4.08759E+03  1.11206E+03 -6.65010E+03 -1.21300E+03
 -4.36531E+03 -7.65434E+03  1.50456E+03 -7.95502E+03  6.04902E+03 -8.51152E+03  8.58367E+03 -3.19710E+03
  6.92666E+03  3.44150E+03  4.01486E+03  6.75446E+03 -1.13571E+03  1.01668E+04 -5.71846E+03  5.65238E+03
 -8.30627E+03  1.24448E+03 -6.84420E+03 -5.07656E+03  4.60440E+02 -6.56206E+03  3.06076E+03 -3.82217E+03
  5.89406E+03 -2.03311E+03  3.92971E+03  1.54403E+03  1.82865E+03  3.32555E+03  1.96015E+03  1.07959E+03
  3.29111E+03  5.51980E+02  2.18028E+03  1.20962E+03  2.47947E+03  3.25271E+03  1.79949E+03  3.83807E+03
 -2.04979E+03  6.65115E+03 -5.89627E+03  6.36931E+03 -8.16339E+03  1.79951E+03 -9.26549E+03 -2.15368E+03
 -4.51828E+03 -9.36589E+03  1.53838E+03 -9.97094E+03  5.17491E+03 -5.94810E+03  6.90630E+03 -1.50741E+03
  6.06814E+03  2.45788E+03  5.41541E+02  5.67853E+03 -2.32243E+03  3.02581E+03 -2.68360E+03 -1.29249E+02
 -9.49994E+02 -3.05744E+03  3.07514E+03 -4.73192E+03  4.46812E+03 -1.61457E+03  3.53950E+03  1.37532E+03
  2.72188E+03  7.16359E+02  8.16766E+02  1.23263E+03  9.49746E+02  9.42742E+02  1.60575E+03 -5.75434E+02
  1.11181E+03  1.85255E+02  2.33679E+03  1.03118E+03  3.33112E+03  4.00556E+03 -1.69787E+02  6.89523E+03
 -3.17164E+03  3.98231E+03 -5.99041E+03  7.73941E+02 -5.54823E+03 -2.94480E+03 -1.48322E+03 -2.48719E+03
  1.62560E+03 -3.54653E+03  3.24359E+03 -2.13165E+03  1.44631E+03  2.09176E+03 -2.58627E+03  2.83560E+03
 -3.29429E+03  2.65423E+03 -2.88809E+03 -2.24119E+03 -1.87365E+03 -5.36398E+03 -5.29916E+02 -4.79035E+03
  1.55138E+03 -1.81253E+03  1.50580E+03  4.70257E+02  2.72258E+03  7.34882E+02 -1.33834E+02  2.09923E+03
 -1.53329E+03  4.66269E+01 -2.34049E+03 -9.11660E+02  2.23019E+03 -3.58652E+03  4.34937E+03 -2.35956E+03
  6.04479E+03  1.28709E+02  5.74738E+03  2.59908E+03  2.97918E+03  5.13921E+03 -1.05576E+03  6.03022E+03
 -4.61062E+03  1.96797E+03 -4.28550E+03 -1.38277E+03 -1.88128E+03 -3.11827E+03  1.03294E+03 -3.21781E+03
  3.35155E+03 -1.80742E+03  1.17701E+03  1.14538E+03  6.28084E+02  2.97572E+03  5.24051E+02  3.69293E+03
 -1.62443E+03  2.64511E+03 -7.51742E+02  3.86775E+02 -4.68478E+02 -3.45081E+02 -2.04840E+03  1.03637E+03
 -1.95366E+03  2.55516E+03 -2.13172E+03  1.31984E+03 -3.76026E+03 -2.91777E+02 -5.81180E+03 -3.53001E+03
 -2.18568E+03 -5.93688E+03 -1.22821E+01 -7.19911E+03  2.94417E+03 -7.16494E+03  8.20708E+03 -2.32787E+03
  6.71271E+03  1.25509E+03  3.63701E+03  4.29710E+03  4.99430E+02  4.07177E+03 -2.99817E+03  3.34020E+03
 -2.98960E+03  1.39792E+03 -3.36515E+03 -1.74966E+03 -2.60704E+02  4.67652E+02 -8.47923E+02  4.58080E+02
 -8.79269E+02 -4.34405E+02 -1.54603E+03 -1.01765E+03  1.07037E+03 -1.21675E+03  2.42747E+02 -2.70373E+03
  2.77570E+03 -2.29231E+03  4.15140E+03  1.39206E+02  4.36616E+03  2.18464E+03  6.94904E+02  5.95450E+03
 -1.75440E+03  5.15145E+03 -5.40091E+03  2.47029E+03 -5.50141E+03 -1.25733E+03 -4.81226E+03 -2.84801E+03
 -1.78314E+03 -4.34523E+03  1.12248E+03 -2.76548E+03  1.61185E+03 -3.90641E+03  3.34378E+03  1.14858E+03
  2.19047E+03  9.55017E+02 -9.33102E+01  9.35394E+02 -3.21012E+03 -7.45880E+02 -1.81503E+02 -4.15176E+02
  3.31836E+01 -1.17316E+03  8.24648E+02  9.19157E+02  3.51588E+02  2.02013E+03  1.19021E+02  2.14820E+03
 -1.14082E+03  1.66961E+03 -1.99411E+03  4.60035E+01 -3.84786E+03 -1.58150E+03 -1.65488E+02 -3.19872E+03
  1.71987E+03 -2.82216E+03  2.72002E+03 -1.36422E+03  4.51416E+03  6.16701E+02  5.82854E+02  1.19563E+03
  7.26528E+02  3.52246E+03 -1.16252E+03  2.23050E+03 -1.00639E+03  1.84138E+03 -1.23687E+03  3.10140E+02
 -7.58792E+02 -6.13830E+02 -1.25768E+03  6.09512E+02 -1.78745E+03  1.34523E+03 -3.15206E+03  6.67403E+02
 -3.27921E+03 -2.74295E+02 -2.25074E+02 -3.23344E+03  3.11283E+03 -2.89350E+03  2.92908E+03 -8.18725E+02
  3.21275E+03  4.52461E+02  1.12250E+03  2.39496E+03 -9.11497E+02  2.63301E+03 -2.37589E+03  2.02576E+03
