 $NMID ID='MM_0lb_SNR200_17hz_g45_30.RAW', FMTDAT='(8E13.5)'
 TRAMP=1., VOLUME=1. $END
  3.10709E+05  1.13004E+02  3.38402E+05  2.51153E+05  8.45035E+04  3.37052E+05 -1.31319E+05  2.50814E+05
 -1.90179E+05  8.29612E+04 -1.10767E+05 -3.31968E+04  4.05934E+02 -5.04519E+04  5.35723E+04  3.13318E+02
  3.54908E+04  5.28443E+04 -1.73283E+04  7.40270E+04 -6.00806E+04  6.29645E+04 -8.38062E+04  3.22804E+04
 -7.97424E+04 -1.13618E+04 -5.63096E+04 -4.89373E+04 -1.49427E+04 -6.81823E+04  2.53191E+04 -4.43601E+04
  3.92995E+04  3.64504E+03  1.62590E+04  4.69239E+04 -3.47364E+04  4.67242E+04 -6.64803E+04 -1.45543E+02
 -5.26063E+04 -5.62794E+04 -7.39406E+03 -7.53223E+04  3.27271E+04 -5.30261E+04  4.67137E+04 -1.65581E+04
  4.18648E+04  1.15852E+04  3.10899E+04  2.47592E+04  1.68004E+04  2.79917E+04 -3.95276E+03  2.65871E+04
 -2.04326E+04  1.32455E+04 -1.99421E+04 -4.75493E+03  5.05702E+03 -7.01043E+03  2.21419E+04  1.01546E+04
  7.10199E+03  3.41712E+04 -2.95729E+04  3.51719E+04 -6.14468E+04  2.75036E+03 -5.70248E+04 -4.25803E+04
 -1.25867E+04 -6.10048E+04  3.86082E+04 -4.28757E+04  5.55602E+04 -2.25644E+03  3.24746E+04  3.19791E+04
 -6.79715E+03  3.45135E+04 -2.88212E+04  1.33947E+04 -2.92398E+04 -5.28383E+03 -1.56549E+04 -1.06076E+04
 -6.85600E+03 -1.17051E+04 -1.79570E+03 -1.65131E+04  6.73699E+03 -2.22414E+04  1.43949E+04 -1.31243E+04
  1.18658E+04  4.95401E+03 -6.59879E+03  1.39241E+04 -1.86978E+04 -3.34634E+03 -7.69238E+03 -3.13781E+04
  2.11584E+04 -4.06902E+04  4.55553E+04 -1.84087E+04  4.27454E+04  1.89020E+04  1.35314E+04  4.25035E+04
 -1.51525E+04  3.18132E+04 -2.29423E+04  8.02972E+02 -8.32567E+03 -2.66754E+04  2.10164E+04 -3.23377E+04
  3.86663E+04 -7.63132E+03  3.28074E+04  2.36258E+04  1.64120E+04  4.35887E+04 -7.46502E+03  4.56927E+04
 -3.04772E+04  3.10908E+04 -3.90749E+04  8.57479E+03 -3.92274E+04 -1.55973E+04 -2.24570E+04 -3.38748E+04
  7.48718E+03 -3.60254E+04  2.90223E+04 -1.24068E+04  2.66955E+04  1.09192E+04  3.18787E+03  1.86259E+04
 -1.31006E+04  7.70705E+03 -9.93111E+03 -6.78228E+03  6.11228E+03 -1.04544E+04  1.90877E+04  6.57543E+03
  1.28518E+04  2.19452E+04 -6.62424E+03  2.35356E+04 -2.15896E+04  9.19374E+03 -2.56904E+04 -5.32740E+03
 -1.74794E+04 -1.62577E+04 -5.98880E+03 -1.74761E+04  4.45977E+03 -1.65795E+04  1.26912E+04 -1.54583E+04
  2.22878E+04 -1.20183E+04  3.08336E+04  1.54104E+03  2.15506E+04  1.78800E+04  3.54420E+03  3.35085E+04
 -1.71931E+04  2.86932E+04 -2.53716E+04  1.07560E+04 -1.94562E+04 -1.08000E+04 -5.16269E+03 -1.32586E+04
  2.86574E+03 -2.98913E+03 -2.89593E+03  6.46759E+03 -1.46620E+04  4.59918E+03 -1.37827E+04 -6.08172E+03
 -8.18754E+03 -1.62410E+04  5.63057E+03 -2.04975E+04  1.26319E+04 -1.37569E+04  1.60137E+04 -2.14789E+03
  9.77179E+03  1.17137E+04 -2.61261E+02  1.66138E+04 -1.15317E+04  9.12944E+03 -1.68329E+04 -3.58336E+03
 -1.15118E+04 -1.54244E+04 -1.97385E+03 -1.95971E+04  9.31639E+03 -1.70941E+04  1.71143E+04 -7.66576E+03
  1.61293E+04  1.63853E+03  1.11392E+04  4.57888E+03  6.73145E+03  6.53440E+02  8.50247E+03 -1.09462E+03
  1.68772E+04  2.13860E+03  1.59172E+04  1.36016E+04  1.00570E+04  2.58919E+04 -1.66084E+03  2.74376E+04
 -1.57583E+04  2.22364E+04 -2.55230E+04  1.11261E+04 -2.60140E+04 -2.13370E+03 -2.44234E+04 -1.53356E+04
 -1.05440E+04 -2.31528E+04  6.87326E+03 -2.13296E+04  1.81705E+04 -1.15720E+04  1.65761E+04  3.22999E+03
  7.06004E+03  1.23379E+04 -8.33633E+03  9.65616E+03 -1.36589E+04  2.43326E+03 -1.04461E+04 -8.89280E+03
  2.96584E+02 -1.35576E+04  6.74363E+03 -9.51373E+03  9.08959E+03 -9.50805E+02  1.07609E+03  5.98496E+03
 -6.17490E+03  1.70592E+03 -4.25994E+03 -4.37923E+03 -2.08351E+02 -1.11638E+04  8.32434E+03 -1.19685E+04
  1.34358E+04 -5.08897E+03  1.31109E+04  3.40763E+03  1.16991E+04  9.84618E+03  5.87533E+03  1.58652E+04
 -1.99886E+03  1.60427E+04 -1.25391E+04  1.12542E+04 -1.11311E+04  2.74115E+03 -8.33808E+03 -1.91590E+03
 -4.53259E+03 -4.86798E+03 -9.38896E+02  8.15959E+02 -1.58666E+03  2.57870E+03 -4.07734E+03  3.56281E+03
 -7.62208E+03 -1.22477E+03 -8.90719E+03 -7.38425E+03 -3.41734E+03 -1.23789E+04  3.39505E+03 -8.16484E+03
  7.96586E+03 -3.51908E+03  6.51003E+03  2.82718E+03  4.94365E+02  4.23276E+03 -3.90806E+03 -8.87071E+02
 -3.74166E+03 -6.68455E+03 -5.17416E+02 -6.57911E+03  4.47347E+03 -8.82632E+03  1.10008E+04 -4.35645E+03
  1.30795E+04  9.10582E+02  8.32873E+03  6.84212E+03  4.11496E+02  9.56142E+03 -5.87617E+03  9.47532E+03
 -7.24393E+03  2.50619E+03 -4.15176E+03 -1.09304E+03  1.77540E+03 -1.03894E+03  5.15304E+03 -1.66407E+03
  4.30226E+03  4.25102E+03  8.83855E+02  6.23069E+03 -4.74601E+03  6.33982E+03 -8.66953E+03  1.18987E+03
 -5.62718E+03 -3.68974E+03 -6.53298E+02 -7.07768E+03  5.08675E+03 -3.73839E+03  4.23799E+03  6.63767E+02
  1.36332E+02  3.93865E+03 -4.78911E+03  5.67390E+03 -5.04672E+03  1.89651E+03 -6.27852E+03 -2.28681E+03
 -3.33974E+03 -6.26208E+03  2.18439E+03 -8.27768E+03  6.70709E+03 -6.02059E+03  6.79827E+03  2.17163E+03
  4.69113E+03  5.41826E+03 -5.54346E+02  8.04710E+03 -4.83765E+03  4.70551E+03 -4.32577E+03 -5.82208E+02
 -5.72167E+03 -5.77509E+03 -1.65301E+03 -5.72928E+03  3.02626E+03 -5.12666E+03  2.28140E+03 -3.66680E+03
  3.35086E+03 -5.67590E+02 -7.78623E+02  1.45138E+03  5.94387E+02  2.81756E+02 -2.49972E+02 -4.09930E+03
  3.75065E+03 -1.51920E+03  6.35155E+03  8.83225E+02  6.79975E+03  3.02920E+03  5.25903E+03  8.01694E+03
 -1.49681E+03  1.01473E+04 -8.96172E+03  7.95515E+03 -1.08355E+04  1.36496E+03 -9.30619E+03 -4.61672E+03
 -4.47895E+03 -6.43101E+03 -1.08669E+03 -6.10857E+03  3.31986E+03 -2.90677E+03  1.57825E+03 -2.74339E+03
  1.47106E+03 -2.05575E+03  9.94268E+02 -2.06653E+03  4.31159E+03 -1.68215E+03  4.15638E+03 -4.41147E+00
  4.97724E+03  1.23049E+03  1.50040E+03  4.33461E+03 -5.07332E+02  4.18377E+03 -4.49428E+03  3.39891E+03
 -5.84878E+03 -1.21085E+03 -2.56182E+03 -3.91201E+03 -5.15991E+02 -6.74300E+03  4.10422E+03 -6.13097E+03
  5.79689E+03 -3.43534E+03  8.56785E+03  1.04175E+03  6.55623E+03  5.19670E+03  1.20593E+03  7.27080E+03
 -3.07119E+03  6.75867E+03 -3.72558E+03  2.17735E+03 -2.12933E+03 -6.85875E+00 -1.54260E+03 -1.25824E+03
 -6.16579E+02  4.12640E+02 -9.28500E+02  1.24256E+03 -2.71526E+03  3.69946E+02 -4.46385E+03 -1.15033E+03
 -1.80903E+03 -5.50794E+03  3.87124E+02 -5.53988E+03  2.62429E+03 -4.85487E+03  4.58769E+03 -1.60348E+03
  3.65801E+03  2.47404E+03  2.70284E+03  5.30436E+03 -4.07559E+02  5.29691E+03 -3.48071E+03  2.52380E+03
 -4.52522E+03 -2.45164E+02 -4.41795E+03 -3.32934E+03  5.04388E+02 -3.54616E+03  2.66748E+03 -3.04283E+03
  3.13156E+03 -4.40093E+02  2.75350E+03  2.95924E+02  1.41635E+03  3.05543E+03  2.74594E+02  4.51061E+02
  1.59182E+03  5.80994E+02  1.91422E+03  4.73079E+02  6.10750E+02  3.04134E+03  1.00256E+03  1.21891E+03
 -1.75054E+03  2.22018E+03 -3.08193E+03  4.27000E+03 -4.46263E+03  1.53186E+03 -6.62999E+03 -5.62902E+02
 -2.23763E+03 -4.84613E+03 -1.43645E+02 -6.48465E+03  2.59614E+03 -1.99320E+03  3.04688E+03 -1.12887E+03
  1.72130E+03  2.29845E+03  1.15900E+03  2.59504E+03 -1.03309E+03  8.07839E+02 -1.83215E+03 -3.08850E+02
 -1.09535E+02 -1.97661E+03  1.13223E+03 -2.91849E+03  1.43372E+03 -7.05073E+02  1.06568E+03  1.19510E+03
  1.97995E+03 -4.25020E+02  1.41751E+03  1.92781E+02  9.34887E+01  1.24023E+03  6.14175E+02 -9.00748E+02
  8.09964E+02 -1.72559E+02  2.90596E+03  6.80190E+02  1.11511E+03  4.31886E+03 -4.67076E+02  3.97708E+03
 -1.52547E+03  2.20539E+03 -2.30301E+03  8.30452E+02 -2.00122E+03 -6.60677E+02 -6.68768E+02 -1.37250E+03
  1.26590E+03 -2.27565E+03  1.59193E+03  2.62069E+02 -2.48464E+02  2.15591E+03 -1.02830E+03  1.04393E+03
 -2.23465E+03  7.12148E+02 -8.55253E+02 -1.69522E+03 -1.07100E+03 -2.72188E+03  1.38121E+01 -2.83121E+03
  3.88432E+02 -2.66622E+02  6.86018E+02 -5.21953E+02  1.57427E+03  4.66216E+02  1.96685E+02  1.36005E+03
 -3.53335E+02  1.40214E+02 -1.95761E+03 -5.62480E+02 -1.06693E+02 -6.79978E+02  2.22684E+03 -1.06620E+03
  1.67443E+03 -1.63259E+03  2.29102E+03  6.15682E+02  2.07117E+03  2.71017E+03 -1.08618E+03  2.63525E+03
 -1.35976E+03 -1.19291E+02 -1.01099E+03  1.23413E+03 -1.26350E+03 -1.73668E+03  9.13076E+02 -2.21159E+03
  1.42099E+03  1.08181E+03  7.01940E+02  1.72224E+03 -9.27582E+01  1.91565E+03  2.58649E+02  9.76327E+02
 -4.54417E+02  1.00480E+03  3.66691E+02  3.82014E+02 -4.76340E+02  8.74861E+02 -1.17821E+03  3.10660E+02
 -1.46304E+03  9.00827E+02 -2.02907E+03  6.10183E+02 -2.35332E+03 -3.96187E+02 -2.84198E+03 -1.93766E+03
 -1.97282E+03 -2.70450E+03  8.19375E+02 -4.18602E+03  1.34240E+03 -2.67221E+03  3.17920E+03 -1.11670E+03
  3.05347E+03 -9.12682E+02  5.95512E+02  2.62734E+02 -8.45714E+02  3.36151E+03 -6.61588E+02  1.43890E+03
 -2.69631E+03  1.72126E+03 -5.26209E+02 -6.51380E+02 -2.19342E+01  3.35682E+02  8.48103E+01 -2.75546E+02
 -1.00570E+03  4.83169E+02 -1.40162E+03  3.10383E+02  6.63101E+01 -9.25831E+02  7.33536E+01 -1.57704E+03
  1.60134E+03 -1.28792E+03  3.15862E+02  4.95440E+01  2.18724E+03  1.56656E+03 -3.49493E+02  1.48575E+03
 -1.19822E+03  3.84661E+03 -1.77309E+03  1.05572E+03 -1.52150E+03 -3.33303E+02 -9.34381E+02 -1.12534E+03
 -1.44122E+03 -1.48514E+03 -8.53831E+02 -2.98543E+03  1.40299E+03 -1.08005E+03  7.45043E+02 -2.05030E+02
  1.08531E+03  4.33037E+02 -8.72361E+02  1.49552E+03 -4.40219E+02 -1.58880E+00  7.62429E+02 -5.12542E+02
  1.06919E+03 -1.26457E+01  5.26207E+02  8.83035E+02  6.89364E+02  3.65570E+02  2.64491E+02  1.64522E+03
 -1.16876E+03  6.65070E+02 -2.06893E+02  8.69420E+02 -1.36554E+03 -4.82527E+02  4.49363E+02 -1.06358E+03
  5.91568E+02 -4.08243E+02  2.02301E+03  4.02037E+02  1.76186E+03 -7.17067E+02  1.62485E+03  8.65393E+02
  1.47537E+03  1.25760E+03 -4.44337E+02  1.11799E+03 -5.20366E+02  3.33766E+02 -4.55131E+02  1.62748E+02
  3.73680E+02  4.00030E+02 -9.87080E+01  1.49693E+02 -5.15027E+02 -3.94846E+01 -2.39887E+02 -3.81754E+02
 -1.21143E+03 -3.03558E+02  3.27340E+02 -4.42102E+02  1.42204E+03 -1.64853E+03  8.50211E+02 -4.10813E+02
  1.91227E+03  4.78410E+02 -1.47441E+02 -7.38082E+01  5.49946E+02  1.19670E+03 -1.22420E+03  1.60779E+03
