 $NMID ID='MM_0lb_SNR200_18hz_g55_91.RAW', FMTDAT='(8E13.5)'
 TRAMP=1., VOLUME=1. $END
  3.09720E+05  8.32925E+02  3.37552E+05  2.51374E+05  8.41279E+04  3.37287E+05 -1.33319E+05  2.50771E+05
 -1.90235E+05  8.31762E+04 -1.11067E+05 -3.36602E+04  1.21450E+03 -5.02674E+04  5.48414E+04  5.65242E+02
  3.54603E+04  5.29057E+04 -1.74420E+04  7.54598E+04 -5.95358E+04  6.27633E+04 -8.43012E+04  3.15656E+04
 -8.05692E+04 -1.08700E+04 -5.73387E+04 -4.99379E+04 -1.50069E+04 -6.94667E+04  2.74670E+04 -4.45519E+04
  3.91068E+04  3.67207E+03  1.56567E+04  4.78703E+04 -3.36266E+04  4.63245E+04 -6.49889E+04 -3.48341E+02
 -5.30670E+04 -5.57506E+04 -5.74768E+03 -7.64180E+04  3.32765E+04 -5.36487E+04  4.64209E+04 -1.65326E+04
  4.16186E+04  1.13256E+04  3.21976E+04  2.51636E+04  1.61671E+04  2.82304E+04 -4.61712E+03  2.66353E+04
 -2.15380E+04  1.31729E+04 -1.87904E+04 -4.78695E+03  5.17830E+03 -6.71053E+03  2.23418E+04  1.15091E+04
  6.29291E+03  3.57215E+04 -3.11120E+04  3.43000E+04 -6.17786E+04  2.67056E+03 -5.64689E+04 -4.20086E+04
 -1.28975E+04 -6.26497E+04  3.78479E+04 -4.42703E+04  5.76324E+04 -1.41821E+03  3.30691E+04  3.17058E+04
 -6.79951E+03  3.38767E+04 -2.96845E+04  1.47544E+04 -2.92084E+04 -4.40410E+03 -1.46395E+04 -1.07089E+04
 -8.37321E+03 -1.26449E+04  1.49495E+02 -1.83312E+04  7.14918E+03 -2.32753E+04  1.54259E+04 -1.33981E+04
  1.14814E+04  4.85702E+03 -6.15993E+03  1.30185E+04 -1.95315E+04 -2.77160E+03 -8.08061E+03 -3.15066E+04
  2.18535E+04 -4.09780E+04  4.66828E+04 -1.98021E+04  4.32913E+04  1.76192E+04  1.47477E+04  4.29292E+04
 -1.66681E+04  3.25682E+04 -2.51499E+04  6.05051E+02 -8.72363E+03 -2.67584E+04  2.16424E+04 -3.15887E+04
  3.89963E+04 -7.87181E+03  3.39549E+04  2.30914E+04  1.65799E+04  4.39321E+04 -7.81743E+03  4.74115E+04
 -2.85104E+04  3.17207E+04 -3.85247E+04  8.80867E+03 -3.97406E+04 -1.54524E+04 -2.10562E+04 -3.66684E+04
  5.75422E+03 -3.52986E+04  2.99483E+04 -1.25341E+04  2.86211E+04  9.89563E+03  2.47566E+03  1.80782E+04
 -1.26319E+04  8.25548E+03 -9.58515E+03 -6.53613E+03  5.06199E+03 -1.21072E+04  1.71200E+04  5.94512E+03
  1.30331E+04  2.13471E+04 -6.76079E+03  2.40221E+04 -2.17960E+04  1.03535E+04 -2.54904E+04 -5.27438E+03
 -1.84065E+04 -1.70644E+04 -7.16860E+03 -1.82445E+04  3.45446E+03 -1.68322E+04  1.28089E+04 -1.63423E+04
  2.33025E+04 -1.30098E+04  2.92632E+04  2.52641E+03  2.17141E+04  1.71432E+04  4.29944E+03  3.49109E+04
 -1.71374E+04  2.85520E+04 -2.72388E+04  1.07072E+04 -2.04284E+04 -1.15896E+04 -4.93593E+03 -1.42126E+04
  2.20977E+03 -3.27031E+03 -2.61850E+03  6.34729E+03 -1.43899E+04  5.50801E+03 -1.37506E+04 -4.63252E+03
 -9.68292E+03 -1.63076E+04  4.48655E+03 -2.07119E+04  1.36992E+04 -1.45214E+04  1.64910E+04 -2.00009E+03
  9.61530E+03  1.14196E+04 -3.21373E+02  1.74627E+04 -1.07329E+04  9.04367E+03 -1.67342E+04 -4.15896E+03
 -1.19879E+04 -1.43043E+04 -1.62172E+03 -2.07957E+04  9.76571E+03 -1.70044E+04  1.67193E+04 -8.35383E+03
  1.59558E+04  3.60892E+02  9.97580E+03  3.05468E+03  4.91467E+03  1.42458E+03  8.56443E+03 -5.52590E+02
  1.54267E+04  4.05544E+03  1.55378E+04  1.34012E+04  1.06030E+04  2.64232E+04 -2.97091E+03  2.99114E+04
 -1.70943E+04  2.19191E+04 -2.67157E+04  1.09417E+04 -2.77408E+04 -2.38009E+03 -2.31019E+04 -1.44117E+04
 -1.07833E+04 -2.20034E+04  8.27624E+03 -2.18128E+04  1.89752E+04 -1.17771E+04  1.69970E+04  3.48643E+03
  7.28247E+03  1.23032E+04 -7.70721E+03  1.06854E+04 -1.46645E+04  1.23115E+03 -8.77724E+03 -8.59963E+03
 -4.86112E+02 -1.24449E+04  7.32352E+03 -9.73176E+03  9.00199E+03 -1.14819E+03  1.39591E+03  5.61848E+03
 -6.67153E+03  1.60791E+03 -5.09430E+03 -5.60083E+03 -5.61541E+02 -1.13137E+04  8.08835E+03 -1.21026E+04
  1.37737E+04 -5.91427E+03  1.37668E+04  1.99096E+03  1.19456E+04  8.86244E+03  4.75451E+03  1.71725E+04
 -2.82119E+03  1.76808E+04 -1.05851E+04  1.05743E+04 -1.19459E+04  3.21651E+03 -8.62543E+03 -2.32807E+03
 -5.05543E+03 -3.47345E+03 -1.96765E+03  2.31275E+03 -1.73693E+03  1.73426E+03 -4.20975E+03  3.81342E+03
 -7.86518E+03 -1.43008E+03 -1.01407E+04 -7.21569E+03 -4.38536E+03 -1.25941E+04  4.17268E+03 -1.01654E+04
  7.04876E+03 -4.46576E+03  5.68364E+03  2.51462E+03 -1.58150E+02  3.42624E+03 -4.49677E+03 -9.50681E+02
 -4.67538E+03 -4.87045E+03 -6.03744E+02 -8.82656E+03  4.56354E+03 -9.00537E+03  1.08840E+04 -5.47856E+03
  1.28748E+04  6.85069E+02  9.54239E+03  7.18975E+03  1.91087E+03  9.67261E+03 -5.84589E+03  9.39873E+03
 -6.29632E+03  3.21320E+03 -3.91482E+03 -9.70408E+02  1.19603E+03 -1.62829E+03  4.66384E+03 -6.01420E+02
  3.74108E+03  4.48172E+03  1.52510E+03  6.76716E+03 -3.66290E+03  7.60092E+03 -8.02333E+03  2.48679E+03
 -5.22639E+03 -3.32259E+03  5.30837E+02 -7.81682E+03  3.97747E+03 -3.32496E+03  4.27130E+03  2.06009E+03
  4.36758E+02  4.00689E+03 -4.52205E+03  5.31919E+03 -5.36254E+03  2.76216E+03 -5.34784E+03 -1.35841E+03
 -2.37625E+03 -6.63449E+03  1.07513E+03 -8.43045E+03  7.17155E+03 -5.05837E+03  7.86606E+03  2.32445E+03
  4.73052E+03  5.31271E+03  4.84865E+02  8.09695E+03 -5.05101E+03  5.60149E+03 -5.99377E+03  2.07529E+02
 -6.20613E+03 -4.91832E+03  2.04956E+02 -6.06362E+03  2.71474E+03 -3.76394E+03  3.06585E+03 -3.74085E+03
  2.83645E+03  8.51691E+02 -4.69668E+02  4.71166E+02 -2.98087E+02 -7.07057E+02  3.73752E+02 -2.10799E+03
  4.71098E+03 -1.63888E+03  6.15315E+03  6.29845E+02  5.97345E+03  2.94177E+03  4.16796E+03  8.92535E+03
 -1.44086E+03  1.04980E+04 -9.02267E+03  7.07824E+03 -9.97169E+03  9.41826E+02 -8.49486E+03 -3.03713E+03
 -3.63533E+03 -7.35884E+03 -6.21052E+02 -6.36672E+03  2.68890E+03 -2.48082E+03  1.31268E+03 -2.95949E+03
  1.33019E+03 -1.67226E+03  1.64309E+03 -2.83156E+03  4.53411E+03 -1.58663E+03  5.37126E+03  1.00198E+03
  4.36681E+03  9.77305E+02  4.65559E+02  3.30518E+03 -1.64068E+03  3.48693E+03 -4.99837E+03  2.84664E+03
 -4.79682E+03 -6.47293E+02 -1.32134E+03 -3.77440E+03  6.65324E+02 -5.58249E+03  2.61701E+03 -7.03843E+03
  5.05964E+03 -4.05070E+03  7.63201E+03 -5.06024E+02  4.86819E+03  5.48640E+03  7.66907E+02  5.96672E+03
 -2.18809E+03  6.29580E+03 -4.16877E+03  2.31546E+03 -2.18240E+03 -1.75665E+03 -4.39050E+02 -7.86644E+02
 -5.62436E+02  9.66118E+02 -1.22891E+03  1.76208E+03 -1.94771E+03  1.35669E+03 -5.41326E+03 -9.55450E+02
 -2.32587E+03 -4.05146E+03  6.35991E+02 -5.37602E+03  3.09066E+03 -4.37811E+03  4.46638E+03 -1.10814E+03
  3.93478E+03  2.90706E+03  1.12735E+03  3.43406E+03 -1.45438E+03  4.29359E+03 -3.84024E+03  1.78215E+03
 -4.01824E+03 -1.41551E+02 -3.60600E+03 -2.06704E+03  3.51690E+02 -4.25159E+03  2.17301E+03 -3.27740E+03
  2.68025E+03 -1.29960E+03  1.71739E+03  1.02249E+02  6.48271E+02  2.01681E+03  1.89675E+02  1.43580E+03
  1.36296E+03  1.14141E+03  1.17128E+03  1.00944E+03  1.19571E+03  2.85459E+03  3.49979E+03  3.87173E+03
 -1.21767E+03  3.61662E+03 -3.30065E+03  5.14923E+03 -4.04295E+03  2.11043E+03 -4.79764E+03 -6.56097E+01
 -1.08233E+03 -4.17837E+03  2.36062E+02 -4.78552E+03  1.94654E+03 -2.95958E+03  3.69740E+03 -1.17413E+03
  2.69970E+03  1.88859E+03  4.13053E+02  3.50869E+03 -5.97987E+02  1.11608E+03 -6.29688E+02  2.76376E+02
 -1.09790E+03 -1.79837E+03  2.48231E+03 -1.93193E+03  1.18003E+03 -7.41611E+02  3.06300E+03  2.19000E+02
  6.77186E+02  1.07543E+02  2.02297E+03  4.12653E+02 -4.06551E+02  8.39217E+02  1.64636E+03 -7.19728E+02
 -6.05780E+02 -5.67596E+02  2.88275E+03 -1.58916E+02  7.70129E+02  3.05176E+03 -7.25157E+02  2.46862E+03
 -1.75673E+03  9.45432E+02 -2.41408E+03  2.57901E+02 -3.38058E+03 -3.85090E+02 -1.57044E+02 -7.46216E+02
 -3.30274E+02 -1.61412E+03  1.30310E+03 -3.14559E+02  1.41023E+03  1.54051E+03 -6.18942E+02  1.46605E+03
 -1.83758E+03 -4.98208E+01 -1.43537E+03 -1.76338E+03 -1.97656E+03 -2.48239E+03  4.47018E+02 -1.22338E+03
  7.50756E+02 -1.10735E+03  1.01803E+03  4.39496E+02  1.55282E+03 -2.87342E+01 -1.94526E+02  1.56147E+03
 -1.63810E+02  9.27871E+01  3.22095E+01  2.77528E+02  5.23232E+02 -1.29289E+03  2.69764E+03 -1.48774E+03
  2.08391E+03 -1.26488E+03  3.25030E+03  1.12736E+03  6.24055E+02  1.97483E+03  4.79467E+02  2.13538E+03
 -2.51620E+03 -1.55709E+02 -9.36380E+02  1.93615E+02 -1.11447E+03 -2.32530E+03  1.08445E+03 -1.16522E+03
  1.47294E+03  1.01861E+01  2.30032E+02  2.93401E+02  5.38431E+02  3.02104E+03  8.26064E+02  1.46958E+03
  7.44583E+02  2.24013E+03 -6.83078E+01 -2.00581E+02 -3.62610E+02  5.84616E+02 -5.79306E+02  2.68098E+02
 -8.04483E+02  1.96358E+03 -7.29143E+02  8.14157E+01 -1.98260E+03  6.17843E+02 -1.68511E+03 -1.60824E+03
 -1.40733E+03 -2.80095E+03  8.48577E+02 -2.39226E+03  1.53846E+03 -2.71404E+03  3.61068E+03 -1.26514E+03
  2.97440E+03 -8.90992E+01  1.44262E+03  1.98517E+03 -1.19231E+03  1.46097E+03 -5.87642E+02  1.46515E+03
 -1.39227E+03  7.76232E+02 -1.18427E+03  7.82368E+02  1.94189E+01  1.30097E+02  5.72493E+02 -2.05622E+02
 -1.65996E+03  3.70324E+02 -1.08485E+03  2.15362E+02  5.31014E+02 -1.02864E+03 -3.73386E+02 -1.39400E+03
  9.44740E+02 -3.01558E+02  7.63488E+02  1.24639E+03  1.33222E+03  1.01383E+03  9.19002E+01  1.45094E+03
 -1.21648E+03  2.29326E+03 -1.65555E+03  1.31029E+03 -2.35451E+03  3.48098E+02 -1.47455E+03 -1.84506E+03
 -4.89242E+00 -2.23549E+03 -4.79132E+02 -1.69137E+03  1.23350E+03 -1.27270E+03  1.48741E+03 -5.86018E+02
  4.12192E+02  6.18073E+02 -6.71794E+02  1.03346E+03 -1.08042E+03 -4.15233E+02 -1.55719E+03  5.18539E+01
 -8.35774E+02  2.37408E+01 -3.02582E+02  1.53667E+03 -6.31775E+02  1.08633E+03  7.44767E+02  7.21493E+02
  2.60549E+02  5.65563E+02 -1.22722E+03 -1.29519E+02 -1.28067E+03 -3.31146E+02  1.12287E+03 -1.42529E+03
  6.18817E+02 -8.63062E+02  8.35592E+02  2.32794E+02 -5.37881E+02 -1.62306E+03 -4.61329E+02  6.70357E+02
  1.96598E+02  4.13263E+02 -1.03302E+03  1.18101E+03 -1.05426E+03  1.26482E+03  2.38591E+02  2.64705E+02
  5.07720E+02 -1.14580E+02 -1.08801E+03 -1.88724E+02 -6.13901E+01  9.25245E+02 -4.06583E+02 -2.72183E+02
 -2.30604E+02  4.35952E+02 -8.52361E+02 -1.72831E+03  1.78695E+03 -1.17935E+03  1.61509E+03 -2.58487E+02
  1.39115E+03  8.93000E+01 -1.22481E+03 -8.61827E+02 -2.26215E+01  4.09372E+02 -3.21202E+02  1.18625E+03
