 $NMID ID='MM_0lb_SNR200_9hz_g55_57.RAW', FMTDAT='(8E13.5)'
 TRAMP=1., VOLUME=1. $END
  3.08575E+05 -1.57329E+03  3.39461E+05  2.51141E+05  8.53486E+04  3.39604E+05 -1.33794E+05  2.51220E+05
 -1.92207E+05  8.37420E+04 -1.12989E+05 -3.23383E+04 -6.95966E+02 -5.01216E+04  5.40033E+04 -2.03744E+03
  3.50924E+04  5.27415E+04 -1.73756E+04  7.55486E+04 -6.08669E+04  6.52966E+04 -8.46275E+04  3.26277E+04
 -8.28190E+04 -1.24607E+04 -5.81910E+04 -5.15957E+04 -1.64291E+04 -7.05317E+04  2.84447E+04 -4.66153E+04
  4.08689E+04  4.59117E+03  1.44999E+04  4.82603E+04 -3.41029E+04  4.86924E+04 -6.76571E+04  5.89660E+02
 -5.59512E+04 -5.86766E+04 -6.67946E+03 -7.84277E+04  3.57064E+04 -5.67930E+04  4.87239E+04 -1.93266E+04
  4.55677E+04  1.19112E+04  3.47620E+04  2.73030E+04  1.59274E+04  2.97606E+04 -4.67933E+03  2.68701E+04
 -2.40030E+04  1.18423E+04 -1.64737E+04 -8.00972E+03  6.25536E+03 -7.10795E+03  2.37958E+04  1.31624E+04
  5.89205E+03  3.77661E+04 -3.55690E+04  3.54985E+04 -6.53485E+04  1.40200E+03 -5.88112E+04 -4.40461E+04
 -1.39471E+04 -6.58115E+04  4.06727E+04 -4.70358E+04  6.31737E+04 -4.29861E+03  3.72638E+04  3.31997E+04
 -5.82068E+03  3.98513E+04 -3.15928E+04  1.91541E+04 -3.32038E+04 -1.83584E+03 -1.96992E+04 -1.29145E+04
 -8.84842E+03 -1.78548E+04  6.20564E+01 -2.11381E+04  6.96059E+03 -2.41758E+04  1.78394E+04 -1.12324E+04
  9.47297E+03  6.00246E+03 -9.89485E+03  1.20268E+04 -2.41935E+04 -6.59563E+03 -6.86894E+03 -3.85252E+04
  2.56510E+04 -4.69106E+04  5.16570E+04 -1.96618E+04  4.90168E+04  1.99595E+04  1.75148E+04  4.77841E+04
 -1.70227E+04  3.87215E+04 -2.61335E+04  2.42904E+03 -1.15853E+04 -3.06966E+04  2.01651E+04 -3.73329E+04
  4.48358E+04 -1.13597E+04  4.02005E+04  2.64281E+04  2.11669E+04  5.18647E+04 -8.03533E+03  5.78000E+04
 -3.53861E+04  3.86237E+04 -5.00900E+04  1.16029E+04 -4.83638E+04 -1.92059E+04 -2.70551E+04 -4.12225E+04
  8.64145E+03 -4.28092E+04  3.57231E+04 -1.88716E+04  3.36263E+04  1.06951E+04  5.88385E+03  2.06815E+04
 -1.31934E+04  1.12965E+04 -1.13499E+04 -7.22053E+03  5.67858E+03 -1.00143E+04  1.83632E+04  6.55930E+03
  1.61492E+04  2.20772E+04 -6.08889E+03  2.83262E+04 -2.44122E+04  1.47568E+04 -3.25165E+04 -2.60542E+03
 -2.68100E+04 -1.87185E+04 -1.11073E+04 -2.41881E+04  4.25661E+03 -2.56472E+04  2.08116E+04 -2.40774E+04
  3.27398E+04 -1.53010E+04  3.84913E+04  5.05565E+03  2.68743E+04  2.53506E+04  5.01783E+03  4.07573E+04
 -1.99443E+04  3.41700E+04 -3.07336E+04  1.22571E+04 -2.06993E+04 -1.05545E+04 -6.44149E+03 -1.19351E+04
  5.12493E+02 -1.05060E+03 -7.90837E+03  8.08091E+03 -2.11673E+04  4.31860E+03 -1.97027E+04 -9.36793E+03
 -1.37820E+04 -2.27292E+04  8.37588E+03 -2.89401E+04  1.88067E+04 -2.04042E+04  2.28741E+04  4.87438E+02
  1.33840E+04  1.63953E+04 -1.54702E+03  2.26994E+04 -1.75492E+04  1.40711E+04 -2.32846E+04 -5.62256E+03
 -1.54811E+04 -2.15070E+04 -2.32484E+03 -2.75370E+04  1.21441E+04 -2.41898E+04  2.22894E+04 -1.28247E+04
  2.32665E+04  7.81051E+02  1.71856E+04  5.60119E+03  9.42534E+03  1.76336E+03  1.20925E+04 -3.15401E+03
  2.25086E+04  3.71678E+03  2.67547E+04  1.87944E+04  1.77903E+04  3.78835E+04 -2.47262E+03  4.55854E+04
 -2.63699E+04  3.74242E+04 -4.20218E+04  2.10232E+04 -4.47959E+04 -2.58679E+03 -3.67774E+04 -2.61912E+04
 -1.57713E+04 -3.73870E+04  1.40132E+04 -3.20898E+04  2.81510E+04 -1.72265E+04  2.41710E+04  7.16755E+03
  8.58876E+03  1.83316E+04 -1.23670E+04  1.48022E+04 -1.85202E+04  2.15316E+03 -1.46404E+04 -1.46000E+04
 -6.74442E+02 -1.84953E+04  1.06499E+04 -1.40583E+04  1.34898E+04 -1.59030E+03  3.22134E+03  8.90373E+03
 -9.52636E+03  5.03900E+03 -9.39897E+03 -7.00416E+03 -1.69709E+03 -1.91771E+04  1.23459E+04 -1.98844E+04
  2.31504E+04 -1.01249E+04  2.71592E+04  5.28944E+03  2.36973E+04  2.05562E+04  9.77743E+03  3.10804E+04
 -6.08998E+03  3.33899E+04 -2.35641E+04  1.95451E+04 -2.39341E+04  4.08428E+03 -1.59036E+04 -5.97427E+03
 -5.67427E+03 -7.81609E+03 -1.39374E+03  1.00138E+03 -4.83143E+03  2.55828E+03 -7.80989E+03  5.08985E+03
 -1.51332E+04  3.00297E+02 -1.40872E+04 -1.31662E+04 -6.42164E+03 -2.14797E+04  6.80481E+03 -1.54866E+04
  1.33725E+04 -6.15599E+03  1.10224E+04  4.33970E+03 -6.66939E+02  4.60092E+03 -7.38861E+03 -5.00050E+02
 -6.54534E+03 -9.15109E+03 -1.32073E+03 -1.47123E+04  1.01587E+04 -1.70006E+04  2.11915E+04 -8.67083E+03
  2.51330E+04  2.96683E+03  1.68288E+04  1.53040E+04  4.90790E+03  1.81710E+04 -9.16228E+03  1.68273E+04
 -1.25952E+04  3.99156E+03 -7.07997E+03 -4.19481E+03  2.39858E+03 -3.17504E+03  7.93709E+03 -2.18968E+03
  6.79542E+03  6.89714E+03 -1.44013E+02  1.18565E+04 -8.60869E+03  1.26602E+04 -1.75806E+04  4.02604E+03
 -1.15319E+04 -8.55568E+03 -5.38696E+02 -1.51044E+04  7.68206E+03 -7.24579E+03  9.19088E+03  3.98093E+03
  1.37980E+03  9.80507E+03 -8.50720E+03  1.13794E+04 -1.49565E+04  5.12986E+03 -1.43991E+04 -5.14142E+03
 -7.56162E+03 -1.74137E+04  4.93185E+03 -1.93938E+04  1.60021E+04 -1.02673E+04  1.67582E+04  2.80104E+03
  9.31819E+03  1.37948E+04 -1.75037E+03  1.61578E+04 -1.29161E+04  8.54307E+03 -1.23222E+04 -7.49040E+02
 -9.56868E+03 -9.64556E+03 -1.28265E+03 -1.40466E+04  7.04639E+03 -1.08706E+04  7.83287E+03 -3.92728E+03
  6.02924E+03  1.71298E+03 -1.39826E+02  1.90851E+03 -6.47945E+02 -3.57484E+03  2.63262E+03 -7.20639E+03
  1.12713E+04 -6.71417E+03  1.66029E+04  2.91675E+03  1.58854E+04  1.17284E+04  1.19443E+04  2.11976E+04
 -3.92220E+03  2.47260E+04 -1.91544E+04  1.77187E+04 -2.65876E+04  2.53483E+03 -1.98964E+04 -9.52885E+03
 -1.24917E+04 -1.70085E+04  1.00578E+03 -1.46385E+04  5.01655E+03 -6.97935E+03  6.65684E+03 -5.98585E+03
  3.44402E+03 -3.62183E+03  5.48518E+03 -3.98730E+03  6.64477E+03 -3.28034E+03  1.02021E+04 -2.28996E+03
  1.11588E+04  2.66324E+03  6.57251E+03  9.82080E+03 -3.46331E+03  1.22585E+04 -1.01710E+04  9.82423E+03
 -1.53931E+04 -9.19245E+02 -9.84505E+03 -1.12650E+04 -1.86601E+03 -1.68442E+04  1.04519E+04 -1.64065E+04
  1.74516E+04 -1.11745E+04  2.13608E+04  2.21000E+03  1.51757E+04  1.32871E+04  1.19245E+03  1.79301E+04
 -7.12244E+03  1.50580E+04 -9.32470E+03  6.94622E+03 -7.78250E+03 -1.29567E+03 -2.29150E+03 -1.51890E+03
 -1.58448E+03 -7.13728E+02 -3.30692E+03  2.68289E+03 -6.15762E+03  2.30319E+03 -1.16853E+04 -1.14699E+03
 -7.64745E+03 -1.05880E+04  1.59478E+02 -1.60907E+04  9.19602E+03 -1.62550E+04  1.58307E+04 -5.24959E+03
  1.44783E+04  8.21124E+03  6.78927E+03  1.40424E+04 -2.86771E+03  1.78940E+04 -1.12921E+04  1.16914E+04
 -1.47174E+04  3.22374E+02 -1.17907E+04 -1.08728E+04 -1.71568E+03 -1.12062E+04  8.15160E+03 -1.07006E+04
  9.58529E+03 -9.35235E+02  6.32392E+03  2.78248E+03  1.45375E+03  5.37130E+03  8.60274E+02  2.82923E+03
  3.19748E+03  2.04651E+03  2.34598E+03  1.75464E+03  4.07357E+03  6.53382E+03  4.12134E+03  8.46974E+03
 -3.56771E+03  1.20067E+04 -9.07890E+03  1.35110E+04 -1.53643E+04  3.71188E+03 -1.57249E+04 -7.03751E+03
 -7.35548E+03 -1.57017E+04  2.49488E+03 -1.71280E+04  1.01281E+04 -1.11294E+04  1.25992E+04 -3.73304E+03
  1.01258E+04  7.83070E+03  3.27651E+03  8.68448E+03 -3.95082E+03  6.60373E+03 -5.91708E+03 -1.22640E+03
 -2.36106E+03 -7.56706E+03  3.15491E+03 -6.13498E+03  7.50098E+03 -3.95833E+03  7.11313E+03  1.17461E+03
  3.77123E+03  4.58116E+03  2.28865E+03  2.58682E+03 -2.38481E+03  7.75660E+02  3.00382E+03  3.76906E+02
  2.42759E+03 -1.43396E+03  7.04883E+03  4.03596E+03  5.20725E+03  7.36224E+03 -1.27188E+03  1.08122E+04
 -7.75457E+03  6.62318E+03 -9.82313E+03  2.40953E+03 -7.61204E+03 -2.58288E+03 -3.95580E+03 -5.87066E+03
  8.63936E+02 -5.79268E+03  5.23964E+03 -2.98089E+03  2.66613E+03  1.81951E+03 -2.61723E+02  3.44938E+03
 -5.56456E+03  4.13451E+03 -6.36348E+03 -4.24525E+03 -4.57868E+03 -7.10347E+03  2.66241E+03 -8.26103E+03
  6.33863E+03 -5.31556E+03  5.43758E+03  3.07133E+02  6.34687E+03  3.44674E+03  1.41936E+03  4.64084E+03
 -3.18244E+03 -3.65943E+02 -5.43965E+03 -3.45126E+03  3.69003E+03 -5.55600E+03  7.79172E+03 -4.45714E+03
  8.66749E+03  9.43985E+02  8.94430E+03  5.36962E+03  3.58305E+03  1.02761E+04 -4.80451E+03  1.03572E+04
 -8.49880E+03  5.16743E+03 -9.76901E+03 -3.65280E+02 -4.76209E+03 -6.57332E+03  2.39484E+03 -5.14982E+03
  7.07227E+03 -3.27039E+03  4.78081E+03  3.12930E+03  2.77174E+03  5.94671E+03 -2.17795E+03  7.37423E+03
 -2.31781E+03  2.79851E+03 -1.05479E+03  5.04095E+02 -1.43955E+03  1.10970E+03 -1.19658E+03  1.70454E+03
 -2.67540E+03  4.59157E+03 -7.51841E+03  4.36999E+03 -1.03040E+04 -1.26471E+03 -1.14713E+04 -6.40254E+03
 -7.02405E+03 -1.24515E+04  1.91517E+03 -1.68769E+04  8.62870E+03 -1.26233E+04  1.45770E+04 -5.70153E+03
  1.45991E+04  3.80637E+03  8.56517E+03  1.05711E+04  4.90220E+02  1.07647E+04 -5.28066E+03  8.33197E+03
 -6.04333E+03  2.16410E+03 -5.85615E+03 -2.27144E+03 -8.33837E+02 -2.25388E+03 -3.66849E+02 -2.33603E+02
 -4.89423E+03  5.54864E+02 -2.52426E+03  1.23383E+03 -1.07502E+03 -3.07089E+03  9.11941E+02 -4.08272E+03
  4.27876E+03 -2.42052E+03  6.36582E+03 -4.28973E+02  8.33421E+03  8.02705E+03  2.64142E+03  1.14666E+04
 -5.17037E+03  1.39011E+04 -1.05088E+04  7.21148E+03 -1.41504E+04 -1.43275E+03 -9.05688E+03 -8.44248E+03
 -5.00563E+03 -1.02747E+04  1.81196E+03 -1.05312E+04  7.41790E+03 -5.10255E+03  7.66491E+03  1.11175E+03
  3.72268E+03  4.69093E+03 -1.26603E+03  2.93926E+03 -1.75584E+03  2.00720E+02 -3.37118E+02 -2.86700E+03
  3.21181E+03 -1.10430E+03  5.06378E+03  4.79514E+02  4.51065E+03  4.71744E+03  1.23064E+03  7.30725E+03
 -4.70964E+03  5.88182E+03 -6.31846E+03  1.52359E+03 -7.05477E+03 -5.48554E+03 -1.91541E+03 -9.07109E+03
  3.98611E+03 -9.61257E+03  8.58317E+03 -2.64305E+03  8.33639E+03  1.01433E+03  4.92530E+03  7.99183E+03
  1.16105E+03  7.62963E+03 -3.43974E+03  6.91181E+03 -4.71454E+03  4.65863E+03 -4.50169E+03  1.45281E+03
 -4.08809E+03 -4.67688E+02 -2.21427E+03  1.20580E+03 -3.15985E+03  2.53008E+03 -6.29698E+03 -3.57009E+03
 -5.13445E+03 -4.05518E+03 -2.45371E+03 -8.42437E+03  3.88255E+03 -7.11364E+03  8.24406E+03 -4.09813E+03
  8.88153E+03  1.90260E+03  4.10443E+03  3.73200E+03  5.42288E+02  6.84773E+03 -6.36942E+03  4.09987E+03
