 $NMID ID='MM_0lb_SNR200_11hz_g55_88.RAW', FMTDAT='(8E13.5)'
 TRAMP=1., VOLUME=1. $END
  3.10484E+05 -9.40763E+02  3.39359E+05  2.50944E+05  8.53068E+04  3.38458E+05 -1.33133E+05  2.51359E+05
 -1.89984E+05  8.34948E+04 -1.13120E+05 -3.15066E+04  3.37617E+01 -5.09259E+04  5.40842E+04 -5.33456E+02
  3.74819E+04  5.30365E+04 -1.61091E+04  7.63621E+04 -5.98097E+04  6.39667E+04 -8.35975E+04  3.42899E+04
 -8.14384E+04 -1.14642E+04 -5.66912E+04 -5.24641E+04 -1.45311E+04 -7.08585E+04  2.83420E+04 -4.72452E+04
  4.17922E+04  3.37412E+03  1.72493E+04  4.91157E+04 -3.35002E+04  4.69089E+04 -6.79699E+04  2.45635E+02
 -5.50018E+04 -5.90508E+04 -6.53862E+03 -7.74548E+04  3.67847E+04 -5.55287E+04  4.85477E+04 -1.90688E+04
  4.47249E+04  1.05739E+04  3.34026E+04  2.82984E+04  1.58447E+04  2.99242E+04 -4.87685E+03  2.79797E+04
 -2.21435E+04  1.19644E+04 -1.81160E+04 -5.38229E+03  6.81708E+03 -8.23852E+03  2.36261E+04  1.20517E+04
  6.18121E+03  3.64060E+04 -3.36444E+04  3.79440E+04 -6.44081E+04  2.82263E+03 -5.77607E+04 -4.37905E+04
 -1.37191E+04 -6.63858E+04  4.02662E+04 -4.75933E+04  6.10819E+04 -1.46549E+03  3.58262E+04  3.41425E+04
 -5.08606E+03  3.98703E+04 -3.17995E+04  1.79732E+04 -3.29476E+04 -4.90652E+03 -1.84017E+04 -1.27567E+04
 -9.39111E+03 -1.49094E+04 -5.86994E+02 -1.94382E+04  8.27042E+03 -2.26557E+04  1.70614E+04 -1.25367E+04
  1.01267E+04  5.12326E+03 -8.88110E+03  1.40073E+04 -2.36748E+04 -6.14710E+03 -9.11941E+03 -3.69986E+04
  2.46535E+04 -4.50975E+04  5.11199E+04 -2.01878E+04  4.80407E+04  2.07171E+04  1.70274E+04  4.50339E+04
 -1.66750E+04  3.59429E+04 -2.80950E+04  2.02894E+03 -9.82782E+03 -2.89888E+04  2.29595E+04 -3.58873E+04
  4.28245E+04 -1.18615E+04  4.07083E+04  2.50224E+04  2.16196E+04  4.93959E+04 -8.32379E+03  5.45340E+04
 -3.48680E+04  3.91250E+04 -4.51922E+04  1.18895E+04 -4.67461E+04 -1.93544E+04 -2.56598E+04 -3.95620E+04
  7.85792E+03 -4.08376E+04  3.23799E+04 -1.64320E+04  3.12427E+04  1.23810E+04  3.23371E+03  2.11111E+04
 -1.38831E+04  9.15916E+03 -1.04967E+04 -7.67427E+03  6.52599E+03 -1.12363E+04  1.91844E+04  6.01823E+03
  1.51430E+04  2.28917E+04 -4.35238E+03  2.63568E+04 -2.36363E+04  1.37886E+04 -3.00267E+04 -2.48828E+03
 -2.40699E+04 -1.71749E+04 -1.09313E+04 -2.39770E+04  5.30764E+03 -2.16817E+04  1.78098E+04 -2.09176E+04
  3.07344E+04 -1.26319E+04  3.65852E+04  5.38139E+03  2.56883E+04  2.15057E+04  3.10886E+03  4.02711E+04
 -1.86524E+04  3.34383E+04 -3.10066E+04  1.20582E+04 -2.08262E+04 -8.65610E+03 -5.35321E+03 -1.43481E+04
  9.26886E+02 -1.28335E+03 -9.18041E+03  8.99108E+03 -1.97458E+04  5.31290E+03 -1.90890E+04 -9.56555E+03
 -1.18406E+04 -2.32488E+04  7.29513E+03 -2.62625E+04  1.77020E+04 -1.86138E+04  2.17024E+04 -2.25577E+03
  1.45855E+04  1.50049E+04 -2.16721E+03  2.13087E+04 -1.61554E+04  1.24441E+04 -2.16590E+04 -4.30691E+03
 -1.68148E+04 -2.00584E+04 -2.10415E+03 -2.73211E+04  1.18600E+04 -2.22501E+04  2.08533E+04 -1.06997E+04
  1.99868E+04  4.96965E+02  1.49505E+04  5.60249E+03  7.56778E+03  9.62079E+02  1.21414E+04 -2.00019E+03
  2.23916E+04  2.89668E+03  2.31496E+04  1.69425E+04  1.40100E+04  3.60298E+04 -2.47232E+03  4.15763E+04
 -2.25725E+04  3.40708E+04 -4.04889E+04  1.79540E+04 -4.07939E+04 -2.79552E+03 -3.35116E+04 -2.35978E+04
 -1.28780E+04 -3.29625E+04  1.20675E+04 -3.09411E+04  2.70587E+04 -1.48373E+04  2.28155E+04  8.15465E+03
  7.01966E+03  1.66419E+04 -1.01108E+04  1.47319E+04 -2.04009E+04  3.20201E+03 -1.36640E+04 -1.05140E+04
 -4.32091E+02 -1.78842E+04  1.06354E+04 -1.41209E+04  1.21990E+04 -3.28903E+02  3.33353E+03  6.98099E+03
 -8.64991E+03  5.12884E+03 -7.96828E+03 -6.67470E+03 -1.68485E+03 -1.80662E+04  1.15493E+04 -1.89567E+04
  2.23806E+04 -8.92002E+03  2.26581E+04  4.17638E+03  2.04887E+04  1.65238E+04  1.02559E+04  2.58213E+04
 -3.37181E+03  2.64957E+04 -1.84171E+04  1.68943E+04 -2.09187E+04  4.22473E+03 -1.43623E+04 -5.08373E+03
 -6.13812E+03 -6.52327E+03 -2.55495E+01 -8.59453E+02 -2.26157E+03  3.83375E+03 -7.46277E+03  5.42160E+03
 -1.19716E+04 -9.10919E+02 -1.30500E+04 -1.18221E+04 -4.28311E+03 -1.88329E+04  4.75394E+03 -1.49864E+04
  1.11055E+04 -5.78301E+03  8.56537E+03  3.55483E+03 -5.44190E+02  5.81179E+03 -7.82328E+03  1.09038E+03
 -5.87622E+03 -8.63080E+03 -1.25501E+03 -1.28222E+04  7.08601E+03 -1.41742E+04  1.88671E+04 -8.90507E+03
  2.13687E+04  2.85373E+03  1.47609E+04  1.20460E+04  1.20086E+03  1.79112E+04 -8.95381E+03  1.40793E+04
 -1.08384E+04  3.82354E+03 -5.09041E+03 -3.31680E+03  2.69373E+03 -3.74778E+03  7.46517E+03 -1.90551E+03
  6.18880E+03  6.26146E+03  8.23363E+02  1.15383E+04 -7.74164E+03  9.41356E+03 -1.44778E+04  1.53739E+03
 -1.08800E+04 -7.38607E+03  6.21791E+02 -1.16065E+04  8.63448E+03 -6.18566E+03  7.91666E+03  1.42088E+03
  2.07785E+03  8.87718E+03 -7.40631E+03  1.02175E+04 -1.03969E+04  5.11992E+03 -1.11508E+04 -3.68065E+03
 -7.46464E+03 -1.46973E+04  4.03936E+03 -1.64854E+04  1.34019E+04 -9.10555E+03  1.37771E+04  2.39580E+03
  8.96607E+03  1.11416E+04 -1.22807E+03  1.37670E+04 -1.05105E+04  9.02800E+03 -1.22394E+04 -1.90072E+03
 -8.67898E+03 -9.97964E+03 -1.17587E+03 -1.02199E+04  6.26599E+03 -8.13735E+03  5.38230E+03 -4.29622E+03
  5.90972E+03  2.54912E+03 -1.57049E+02  8.98263E+02 -1.49228E+03 -3.52958E+03  9.36088E+02 -5.63839E+03
  1.07469E+04 -5.85681E+03  1.18502E+04  2.45165E+03  1.24641E+04  7.66944E+03  8.65614E+03  1.77667E+04
 -1.87754E+03  2.13909E+04 -1.62335E+04  1.38553E+04 -2.19218E+04  3.44416E+03 -1.79727E+04 -7.22850E+03
 -7.98285E+03 -1.43988E+04  2.00258E+02 -1.34230E+04  5.40371E+03 -6.94243E+03  4.76900E+03 -3.92671E+03
  3.15393E+03 -2.69072E+03  3.62264E+03 -4.61489E+03  2.84165E+03 -1.78618E+03  7.13315E+03 -1.85651E+03
  8.75339E+03  1.71300E+03  5.41753E+03  8.50826E+03 -1.11360E+03  1.00006E+04 -1.03180E+04  8.05865E+03
 -1.15656E+04 -1.51099E+03 -7.08168E+03 -9.39276E+03  6.42128E+01 -1.39729E+04  6.49811E+03 -1.36453E+04
  1.28024E+04 -7.50220E+03  1.65571E+04  1.84765E+03  1.14118E+04  1.26793E+04  2.53398E+03  1.43090E+04
 -5.67745E+03  1.10064E+04 -1.05499E+04  4.01398E+03 -6.50823E+03 -2.58921E+03 -2.43981E+03 -2.82768E+03
 -2.25410E+03 -3.42974E+02 -2.35717E+03  2.73643E+03 -4.72318E+03  1.34427E+03 -8.90758E+03 -6.93871E+02
 -3.65500E+03 -9.21761E+03 -1.26489E+03 -1.17661E+04  7.57155E+03 -1.06196E+04  1.10013E+04 -2.99919E+03
  1.21937E+04  5.91163E+03  4.88730E+03  1.08904E+04 -2.17853E+03  1.29632E+04 -7.97906E+03  7.45945E+03
 -1.15117E+04  5.23166E+02 -7.07670E+03 -7.88923E+03 -1.12879E+03 -1.12340E+04  3.28069E+03 -8.06532E+03
  7.91088E+03 -3.07878E+03  4.47006E+03  1.15010E+03  2.31026E+03  2.59840E+03  1.44852E+03  2.43322E+03
  2.64577E+03  1.46877E+03  3.38185E+03  1.37484E+03  4.89982E+03  4.69667E+03  3.66376E+03  6.60068E+03
 -2.59353E+03  1.11971E+04 -8.10987E+03  9.17234E+03 -1.33420E+04  9.66329E+02 -1.41164E+04 -4.12485E+03
 -6.29524E+03 -1.33227E+04  2.68985E+03 -1.31095E+04  7.03100E+03 -8.75255E+03  9.02439E+03 -1.48349E+03
  7.22751E+03  4.23403E+03  9.67043E+02  5.99040E+03 -3.42618E+03  5.56791E+03 -4.29667E+03 -1.01268E+03
 -2.15192E+03 -5.31850E+03  1.30725E+03 -5.02542E+03  5.95893E+03 -3.37922E+03  4.72702E+03  1.15182E+03
  2.97898E+03  3.66526E+03  1.46131E+03  2.34286E+03 -1.56654E+02  3.44682E+03  2.44629E+03 -1.03437E+03
  1.11039E+03  1.20846E+03  4.12673E+03  9.01261E+02  2.60502E+03  6.99539E+03 -1.46764E+03  1.09283E+04
 -5.97227E+03  5.32936E+03 -9.45115E+03  1.76817E+03 -6.40261E+03 -2.92796E+03 -1.65995E+03 -4.56389E+03
  2.10683E+03 -4.29911E+03  3.78081E+03 -1.46980E+03  3.36438E+03  2.98910E+03 -7.43516E+02  4.03136E+03
 -5.50576E+03  1.31880E+03 -6.74906E+03 -4.18793E+03 -3.09914E+03 -6.59065E+03  1.00025E+03 -6.72579E+03
  3.39838E+03 -2.72795E+03  5.01295E+03  9.36981E+02  3.65058E+03  1.24274E+03  1.89837E+03  2.75079E+03
 -2.34965E+03  8.51130E+02 -3.11391E+03 -2.09177E+03  1.89425E+03 -4.05721E+03  7.12029E+03 -3.32333E+03
  7.00786E+03 -2.21285E+02  7.11658E+03  6.06395E+03  2.30955E+03  7.41706E+03 -1.78876E+03  8.69139E+03
 -6.16800E+03  3.00680E+03 -6.09302E+03 -1.68941E+03 -3.64994E+03 -4.01703E+03  2.10133E+03 -5.07420E+03
  5.01630E+03 -1.54016E+03  4.17528E+03  1.99673E+03  1.55271E+02  3.84887E+03  1.26902E+02  3.76127E+03
 -2.94944E+03  2.71113E+03 -2.56577E+03  1.03135E+03 -1.66865E+03  1.60596E+02 -2.22350E+03  4.82711E+02
 -7.32331E+02  4.15293E+03 -5.63255E+03  1.55316E+03 -6.99697E+03  9.54121E+02 -1.09761E+04 -4.66364E+03
 -4.52473E+03 -9.83767E+03  1.02773E+03 -1.17052E+04  6.92734E+03 -8.03844E+03  1.14150E+04 -3.65377E+03
  1.10482E+04  1.93917E+03  7.39722E+03  7.76304E+03  3.84513E+02  7.50498E+03 -2.94963E+03  6.26231E+03
 -4.68277E+03  1.46059E+03 -2.47649E+03 -7.88939E+02 -1.64333E+03 -9.01413E+02 -7.04293E+02  8.83312E+02
 -1.65176E+03  1.30286E+03 -2.42714E+03  2.50330E+02 -1.79908E+03 -3.08232E+03  8.92474E+02 -3.36542E+03
  3.56757E+03 -2.64778E+03  6.38783E+03 -9.95474E+02  6.65899E+03  2.80679E+03  1.36095E+03  8.04360E+03
 -4.44872E+03  8.69779E+03 -7.42005E+03  4.43177E+03 -7.72991E+03 -7.93934E+02 -7.39287E+03 -6.34166E+03
 -2.22040E+03 -6.62831E+03  2.73946E+03 -7.28799E+03  3.57624E+03 -4.81481E+03  4.18409E+03  5.66958E+02
  2.87494E+03  2.40360E+03 -1.10461E+02  2.19763E+03 -8.16879E+02  8.38215E+02 -6.37186E+02 -1.37242E+03
  1.26742E+03 -8.97498E+02  3.70545E+03  1.03513E+03  2.96424E+03  3.12660E+03 -1.71659E+02  3.87265E+03
 -3.91560E+03  4.21124E+03 -5.38406E+03  8.23445E+02 -4.83153E+03 -3.42854E+03 -5.04641E+02 -7.35630E+03
  4.16903E+03 -4.46896E+03  5.02114E+03 -5.92029E+02  5.47012E+03  1.16259E+02  2.16171E+03  6.15761E+03
  1.57932E+03  5.27227E+03 -1.74646E+03  4.23905E+03 -2.65678E+03  1.04583E+03 -3.14952E+03  1.01788E+03
 -6.36219E+02 -6.64127E+02 -8.98091E+02 -7.91349E+01 -3.37433E+03  2.07472E+03 -4.39497E+03 -1.02720E+03
 -3.82103E+03 -1.03080E+03 -1.34817E+03 -4.97467E+03  1.87042E+03 -4.50024E+03  3.84815E+03 -2.06160E+03
  4.59932E+03  2.03766E+03  2.24799E+03  3.49334E+03 -7.34536E+02  4.69183E+03 -2.58870E+03  2.74059E+03
