 $NMID ID='MM_0lb_SNR200_10hz_g45_71.RAW', FMTDAT='(8E13.5)'
 TRAMP=1., VOLUME=1. $END
  3.09649E+05  4.39450E+02  3.38270E+05  2.50728E+05  8.49862E+04  3.39317E+05 -1.31928E+05  2.51609E+05
 -1.90560E+05  8.25808E+04 -1.11622E+05 -3.27804E+04  1.63400E+03 -5.12594E+04  5.34205E+04  9.73785E+01
  3.44612E+04  5.20261E+04 -1.65633E+04  7.38821E+04 -6.02039E+04  6.44771E+04 -8.35707E+04  3.14303E+04
 -8.06967E+04 -1.27330E+04 -5.69934E+04 -5.22927E+04 -1.55084E+04 -7.04402E+04  2.73942E+04 -4.66202E+04
  3.99021E+04  3.79314E+03  1.63254E+04  4.87594E+04 -3.40650E+04  4.83819E+04 -6.79437E+04 -6.00000E+02
 -5.54983E+04 -5.86739E+04 -6.88863E+03 -7.87409E+04  3.52986E+04 -5.58530E+04  4.89722E+04 -1.84333E+04
  4.50468E+04  1.13940E+04  3.34520E+04  2.59613E+04  1.45262E+04  3.05021E+04 -6.02657E+03  2.87099E+04
 -2.15783E+04  1.24684E+04 -1.85648E+04 -5.06021E+03  7.05284E+03 -7.29615E+03  2.31682E+04  1.41178E+04
  7.56192E+03  3.73751E+04 -3.31431E+04  3.68422E+04 -6.50651E+04  3.41322E+03 -5.86317E+04 -4.29504E+04
 -1.12702E+04 -6.56628E+04  4.17708E+04 -4.58571E+04  5.88822E+04 -2.32577E+03  3.52418E+04  3.41083E+04
 -5.72884E+03  3.92665E+04 -3.13791E+04  1.74819E+04 -3.27417E+04 -4.14736E+03 -1.96842E+04 -1.30756E+04
 -9.19173E+03 -1.58004E+04  1.44037E+03 -1.87289E+04  7.53338E+03 -2.38456E+04  1.51727E+04 -1.15280E+04
  9.55223E+03  6.36844E+03 -7.53035E+03  1.29476E+04 -2.18257E+04 -7.18987E+03 -8.28412E+03 -3.74445E+04
  2.35777E+04 -4.41929E+04  5.09549E+04 -2.03448E+04  4.76618E+04  2.03878E+04  1.74842E+04  4.57476E+04
 -1.58026E+04  3.45838E+04 -2.68762E+04  2.92252E+03 -1.11564E+04 -2.91066E+04  2.18661E+04 -3.58209E+04
  4.35550E+04 -9.88745E+03  3.89228E+04  2.33087E+04  2.00577E+04  4.88075E+04 -9.18473E+03  5.39107E+04
 -3.37620E+04  3.63417E+04 -4.67641E+04  1.13000E+04 -4.79070E+04 -1.78367E+04 -2.50008E+04 -4.01696E+04
  6.97349E+03 -4.10284E+04  3.23920E+04 -1.72458E+04  3.09944E+04  1.17352E+04  6.68499E+03  1.97054E+04
 -1.50265E+04  8.60766E+03 -1.14400E+04 -6.66972E+03  5.94748E+03 -1.15451E+04  1.96816E+04  5.76397E+03
  1.40225E+04  2.23455E+04 -5.86498E+03  2.60119E+04 -2.32884E+04  1.36988E+04 -3.12659E+04 -3.80465E+03
 -2.44134E+04 -1.68810E+04 -1.11796E+04 -2.26194E+04  4.02890E+03 -2.44311E+04  1.92297E+04 -2.21730E+04
  3.07401E+04 -1.34352E+04  3.51014E+04  4.31623E+03  2.48693E+04  2.18087E+04  4.28660E+03  4.12172E+04
 -1.95905E+04  3.32492E+04 -2.94211E+04  1.11754E+04 -2.21181E+04 -8.32643E+03 -5.39361E+03 -1.33266E+04
  1.01940E+03 -6.57214E+02 -7.64174E+03  8.35905E+03 -1.88169E+04  5.70865E+03 -1.96959E+04 -9.00811E+03
 -1.21650E+04 -2.20668E+04  6.03077E+03 -2.61895E+04  1.85998E+04 -1.70497E+04  2.15348E+04 -1.68283E+03
  1.60421E+04  1.53285E+04 -1.32525E+02  2.14229E+04 -1.47545E+04  1.36690E+04 -2.20565E+04 -4.77941E+03
 -1.74928E+04 -1.84571E+04 -2.20039E+03 -2.68490E+04  1.26800E+04 -2.25927E+04  2.35661E+04 -1.21996E+04
  2.10710E+04  4.45536E+02  1.52267E+04  3.81694E+03  7.54378E+03  1.19878E+03  1.14492E+04 -1.36765E+03
  2.01224E+04  2.35783E+03  2.24318E+04  1.68076E+04  1.57449E+04  3.67976E+04 -2.94447E+03  4.10043E+04
 -2.21621E+04  3.44787E+04 -3.92275E+04  1.66447E+04 -3.98914E+04 -2.35910E+03 -3.31360E+04 -2.41699E+04
 -1.31099E+04 -3.41105E+04  1.14152E+04 -2.88522E+04  2.68344E+04 -1.52108E+04  2.17017E+04  8.37762E+03
  7.90469E+03  1.71389E+04 -1.14118E+04  1.46575E+04 -1.83347E+04  2.28679E+03 -1.47215E+04 -1.17968E+04
 -2.08929E+03 -1.80718E+04  9.06400E+03 -1.48177E+04  1.20286E+04 -1.67015E+03  2.88674E+03  7.46982E+03
 -9.21485E+03  3.50407E+03 -7.72560E+03 -5.75725E+03 -1.29526E+03 -1.59439E+04  1.05592E+04 -1.83985E+04
  2.09158E+04 -1.05247E+04  2.45323E+04  3.17867E+03  2.17706E+04  1.57426E+04  9.55527E+03  2.57110E+04
 -5.50920E+03  2.79564E+04 -1.78762E+04  1.80987E+04 -1.97689E+04  3.94329E+03 -1.41318E+04 -5.15982E+03
 -5.14862E+03 -7.82486E+03 -2.66547E+03  2.25500E+03 -2.87777E+03  2.60471E+03 -7.56720E+03  4.01121E+03
 -1.32682E+04 -1.94505E+03 -1.38321E+04 -1.09929E+04 -5.88123E+03 -1.69986E+04  6.52569E+03 -1.52926E+04
  1.07240E+04 -6.71832E+03  6.94126E+03  3.79993E+03  9.40734E+02  5.86515E+03 -7.36649E+03 -1.04738E+03
 -7.15270E+03 -9.10545E+03  1.24020E+02 -1.31620E+04  8.50653E+03 -1.57165E+04  1.81805E+04 -8.74825E+03
  2.13221E+04  1.86299E+03  1.53187E+04  1.17118E+04  4.05321E+03  1.70248E+04 -8.70060E+03  1.45252E+04
 -1.18683E+04  4.74689E+03 -7.41838E+03 -4.04628E+03  1.54829E+03 -4.05866E+03  7.42267E+03 -9.87796E+02
  6.68597E+03  5.94710E+03  9.58509E+02  9.83342E+03 -7.89738E+03  9.72183E+03 -1.37058E+04  1.95820E+03
 -1.07857E+04 -7.08827E+03  9.91386E+02 -1.14922E+04  6.82778E+03 -6.40414E+03  7.44681E+03  4.43075E+03
  2.56861E+03  8.92232E+03 -7.74838E+03  9.67464E+03 -1.09409E+04  5.05047E+03 -1.26018E+04 -4.41848E+03
 -7.91744E+03 -1.15947E+04  4.01828E+03 -1.54362E+04  1.28709E+04 -1.12958E+04  1.55475E+04  2.41498E+03
  8.45055E+03  1.21740E+04 -1.30563E+03  1.33825E+04 -1.14892E+04  8.10824E+03 -1.04788E+04 -2.81876E+03
 -9.00664E+03 -9.97853E+03 -2.50940E+03 -9.64043E+03  7.59237E+03 -8.12445E+03  5.64321E+03 -2.91157E+03
  4.34517E+03  2.30404E+03 -1.18881E+03  1.71994E+03 -1.24135E+03 -1.43229E+03  3.60568E+03 -6.40338E+03
  9.09992E+03 -4.88915E+03  1.40594E+04  1.11163E+03  1.33464E+04  1.09504E+04  9.66019E+03  1.89446E+04
 -3.34085E+03  2.01002E+04 -1.73021E+04  1.53515E+04 -2.37655E+04  2.33884E+03 -1.76324E+04 -7.39789E+03
 -8.61541E+03 -1.53968E+04 -3.96256E+02 -1.26788E+04  4.92436E+03 -6.34721E+03  3.47401E+03 -4.48262E+03
  2.56708E+03 -3.14313E+03  4.20379E+03 -4.41087E+03  6.21872E+03 -3.06020E+03  6.66741E+03 -1.58515E+03
  9.83781E+03  4.76987E+02  3.96660E+03  7.87538E+03 -3.38667E+03  9.38132E+03 -9.36279E+03  6.38719E+03
 -1.20966E+04  2.86065E+02 -8.38265E+03 -8.97290E+03 -1.56041E+03 -1.31145E+04  6.27561E+03 -1.33974E+04
  1.33160E+04 -8.61694E+03  1.65960E+04  2.26820E+03  1.07440E+04  1.19747E+04  9.97770E+02  1.57828E+04
 -4.14147E+03  1.30345E+04 -8.76766E+03  3.33268E+03 -5.36929E+03 -2.26004E+03 -2.87788E+03 -1.43065E+03
 -1.34717E+02  4.17238E+02 -3.56687E+03  2.47802E+03 -5.45520E+03  1.29025E+03 -8.65861E+03 -1.24377E+03
 -4.58665E+03 -7.85953E+03  1.69918E+03 -1.18476E+04  9.06200E+03 -1.31494E+04  1.30610E+04 -3.49858E+03
  1.29038E+04  6.90293E+03  6.99628E+03  1.23319E+04 -2.00591E+03  1.30021E+04 -1.03590E+04  8.77661E+03
 -1.24155E+04  1.32688E+03 -8.87815E+03 -8.21809E+03 -1.98640E+03 -1.01221E+04  5.51214E+03 -7.54105E+03
  7.19437E+03 -1.48168E+03  5.80935E+03  9.38216E+02  2.41491E+03  4.20028E+03  2.34429E+03  1.45471E+02
  2.45573E+03  1.53818E+03  4.43989E+03  1.10345E+03  4.04532E+03  4.66551E+03  1.93511E+03  6.40634E+03
 -3.47050E+03  9.57157E+03 -8.35059E+03  1.02670E+04 -1.25214E+04  2.58793E+03 -1.29557E+04 -6.55303E+03
 -4.95640E+03 -1.28058E+04  1.19798E+03 -1.45552E+04  7.69084E+03 -7.98632E+03  1.06376E+04 -1.89279E+03
  7.20689E+03  5.71783E+03  8.34357E+02  7.39027E+03 -3.84183E+03  4.48582E+03 -5.11585E+03 -3.53573E+02
 -3.71518E+03 -4.80259E+03  2.24581E+03 -5.92452E+03  4.91575E+03 -4.01858E+03  6.04829E+03  1.83033E+03
  3.61375E+03  1.33960E+03  6.85517E+01  2.36370E+03 -4.76135E+02  1.75390E+03  4.22934E+02  1.72021E+02
  1.48187E+03 -9.11182E+01  6.59248E+03  1.74506E+03  2.78450E+03  7.21949E+03 -4.54385E+02  8.09239E+03
 -6.14242E+03  7.42929E+03 -9.81912E+03  1.25455E+03 -7.17743E+03 -3.17709E+03 -2.48205E+03 -5.45341E+03
  2.06540E+03 -5.38001E+03  4.67053E+03 -2.15069E+03  3.86448E+03  2.83417E+03 -1.86997E+03  5.76981E+03
 -4.86308E+03  3.23799E+03 -5.34561E+03 -3.80919E+03 -3.44442E+03 -6.61009E+03 -8.93630E+02 -7.72035E+03
  4.01678E+03 -4.10826E+03  5.11748E+03  9.92143E+01  4.16457E+03  1.64576E+03  4.42577E+02  4.82552E+03
 -2.26423E+03  9.68622E+02 -2.51425E+03 -1.53619E+03  2.87118E+03 -5.90927E+03  6.58289E+03 -4.63704E+03
  7.61881E+03  8.39713E+02  8.33772E+03  5.75042E+03  1.95359E+03  6.99704E+03 -4.65609E+03  7.58984E+03
 -6.37076E+03  3.87633E+03 -6.57765E+03  4.23732E+02 -4.20641E+03 -4.64253E+03  2.13018E+03 -5.15769E+03
  5.27683E+03 -1.44699E+03  5.61748E+03  4.62008E+03  1.51156E+03  5.29206E+03 -1.26586E+03  4.88554E+03
 -2.56189E+03  3.50040E+03 -1.03683E+03  6.21569E+02 -1.35746E+03  7.98869E+02 -2.09596E+03  1.95647E+03
 -8.47231E+02  1.83646E+03 -6.15691E+03  3.43228E+03 -9.71879E+03 -1.68816E+01 -1.07147E+04 -3.85077E+03
 -3.74435E+03 -1.08905E+04  1.97504E+03 -1.12742E+04  7.95260E+03 -1.06826E+04  1.16148E+04 -3.42560E+03
  1.04700E+04  2.45316E+03  7.29546E+03  7.90335E+03  9.50759E+02  7.37878E+03 -2.68133E+03  6.41236E+03
 -5.29077E+03  2.41812E+03 -4.09892E+03 -1.82802E+03 -9.81822E+02 -1.37688E+03  5.87998E+02 -3.32121E+02
 -2.72124E+03  5.39126E+02 -1.01148E+03 -1.22920E+03 -9.94672E+02 -2.93597E+03 -1.15499E+03 -3.11990E+03
  1.89395E+03 -2.26908E+03  4.66697E+03 -2.90390E+02  7.15179E+03  4.45385E+03  1.59486E+03  8.82113E+03
 -4.82055E+03  9.41854E+03 -8.21966E+03  6.62739E+03 -9.12709E+03 -6.31960E+02 -8.34510E+03 -5.00162E+03
 -2.85657E+03 -7.91741E+03  1.69847E+03 -8.71107E+03  5.89868E+03 -5.26700E+03  4.38848E+03  1.97284E+03
  4.32878E+03  2.73937E+03  8.83136E+01  3.15605E+03 -1.04018E+03  2.02170E+02 -2.42669E+02 -2.37200E+03
  2.85509E+03 -9.85242E+02  3.36147E+03  1.83405E+03  2.42391E+03  2.68593E+03 -1.96764E+03  3.19859E+03
 -3.82791E+03  3.92504E+03 -5.13798E+03 -8.77597E+01 -6.03092E+03 -4.43094E+03  7.27803E+02 -6.47073E+03
  3.35723E+03 -6.35957E+03  6.53906E+03 -1.05348E+03  8.26452E+03  1.13435E+03  3.24234E+03  5.31172E+03
 -4.70078E+02  7.24902E+03 -2.57451E+03  4.79837E+03 -3.81150E+03  3.62623E+03 -3.42763E+03  2.04795E+02
 -2.33750E+03 -9.84349E+01 -4.22917E+02  6.95789E+02 -2.44082E+03  3.41895E+01 -3.34178E+03 -1.58336E+03
 -3.18068E+03 -3.36417E+03 -6.81700E+02 -6.20521E+03  1.24917E+03 -6.09522E+03  5.31360E+03 -2.46356E+03
  5.62908E+03  3.51913E+02  3.24853E+03  4.64006E+03 -2.43136E+02  5.20070E+03 -2.46042E+03  3.95527E+03
