 $NMID ID='MM_0lb_SNR200_11hz_g45_74.RAW', FMTDAT='(8E13.5)'
 TRAMP=1., VOLUME=1. $END
  3.10871E+05 -2.96718E+02  3.38266E+05  2.49466E+05  8.45799E+04  3.37554E+05 -1.33047E+05  2.50604E+05
 -1.88998E+05  8.23497E+04 -1.11726E+05 -3.30022E+04  2.97715E+02 -5.13206E+04  5.33002E+04 -3.17104E+02
  3.57640E+04  5.32017E+04 -1.74364E+04  7.58775E+04 -6.16417E+04  6.40454E+04 -8.46301E+04  3.25598E+04
 -8.10050E+04 -1.28387E+04 -5.62694E+04 -5.07382E+04 -1.47488E+04 -7.12847E+04  2.89980E+04 -4.65377E+04
  4.08754E+04  4.41464E+03  1.70886E+04  4.84837E+04 -3.49046E+04  4.80545E+04 -6.61233E+04 -1.64765E+03
 -5.47621E+04 -5.72682E+04 -7.26504E+03 -7.84686E+04  3.39969E+04 -5.58449E+04  4.90412E+04 -1.73163E+04
  4.30156E+04  1.02617E+04  3.30904E+04  2.46739E+04  1.52431E+04  3.00252E+04 -5.67505E+03  2.64814E+04
 -2.35355E+04  1.23092E+04 -1.93092E+04 -5.07955E+03  6.90004E+03 -7.51975E+03  2.33194E+04  1.21848E+04
  6.87639E+03  3.59850E+04 -3.30053E+04  3.63387E+04 -6.48125E+04  1.04802E+03 -5.75461E+04 -4.32468E+04
 -1.22958E+04 -6.46637E+04  4.12144E+04 -4.61643E+04  5.95265E+04 -2.45099E+03  3.48330E+04  3.24611E+04
 -5.30641E+03  3.72045E+04 -3.02550E+04  1.81182E+04 -3.32104E+04 -4.43818E+03 -1.73373E+04 -1.15119E+04
 -9.10643E+03 -1.39379E+04  6.36595E+02 -1.89847E+04  9.00022E+03 -2.34719E+04  1.62076E+04 -1.28192E+04
  1.16233E+04  6.47579E+03 -9.31302E+03  1.26177E+04 -2.32588E+04 -4.94106E+03 -8.21784E+03 -3.64486E+04
  2.39745E+04 -4.33923E+04  4.98608E+04 -2.09456E+04  4.53745E+04  2.10891E+04  1.58805E+04  4.49493E+04
 -1.73998E+04  3.48094E+04 -2.51579E+04  2.20547E+03 -9.83887E+03 -2.72320E+04  2.14081E+04 -3.56536E+04
  4.34408E+04 -1.02103E+04  3.78580E+04  2.45684E+04  2.03363E+04  4.79811E+04 -7.86993E+03  5.38796E+04
 -3.41724E+04  3.59908E+04 -4.50568E+04  1.09948E+04 -4.48466E+04 -1.90246E+04 -2.54730E+04 -4.01152E+04
  7.12111E+03 -4.11328E+04  3.39219E+04 -1.64759E+04  3.24703E+04  1.11913E+04  3.64008E+03  1.96569E+04
 -1.30143E+04  7.81361E+03 -1.15899E+04 -8.45477E+03  6.69605E+03 -1.12832E+04  1.82726E+04  5.61806E+03
  1.43779E+04  2.13490E+04 -5.03597E+03  2.65619E+04 -2.19068E+04  1.40904E+04 -2.87837E+04 -3.74223E+03
 -2.38280E+04 -1.79070E+04 -1.06018E+04 -2.19299E+04  3.36759E+03 -2.42650E+04  1.77065E+04 -2.01091E+04
  2.96426E+04 -1.20934E+04  3.45093E+04  4.90517E+03  2.40032E+04  2.08979E+04  3.86895E+03  3.95333E+04
 -1.77239E+04  3.20129E+04 -2.90677E+04  1.03885E+04 -2.18871E+04 -9.83292E+03 -3.20254E+03 -1.22387E+04
  5.20333E+02 -1.31915E+03 -5.86335E+03  7.55377E+03 -1.83934E+04  4.82768E+03 -1.84445E+04 -8.55601E+03
 -1.11864E+04 -2.08641E+04  4.21462E+03 -2.67501E+04  1.82299E+04 -1.84679E+04  2.00159E+04 -1.84914E+03
  1.32006E+04  1.50033E+04 -7.11925E+02  2.13312E+04 -1.44464E+04  1.09957E+04 -2.27941E+04 -5.06286E+03
 -1.57832E+04 -1.70201E+04 -1.19351E+03 -2.46065E+04  9.73945E+03 -2.10718E+04  2.04995E+04 -1.12746E+04
  1.89245E+04  8.87017E+02  1.39182E+04  4.47016E+03  9.46348E+03  2.18482E+03  9.89450E+03 -2.48178E+03
  1.85319E+04  2.78455E+03  2.20311E+04  1.67773E+04  1.73402E+04  3.49644E+04 -2.00595E+03  3.86596E+04
 -2.06925E+04  3.24060E+04 -3.61764E+04  1.55032E+04 -4.00323E+04 -2.59067E+03 -3.15854E+04 -2.36413E+04
 -1.41128E+04 -3.18589E+04  1.13807E+04 -2.85384E+04  2.47939E+04 -1.33667E+04  2.17985E+04  6.75752E+03
  6.15685E+03  1.61252E+04 -1.12634E+04  1.48072E+04 -1.85888E+04  3.68639E+03 -1.47087E+04 -1.24453E+04
  8.17092E+02 -1.86064E+04  1.06601E+04 -1.30118E+04  1.16329E+04 -2.07277E+03  3.92413E+03  8.47432E+03
 -8.22704E+03  2.54856E+03 -6.45276E+03 -6.85215E+03 -2.25327E+03 -1.53116E+04  1.08957E+04 -1.77756E+04
  2.01488E+04 -9.87635E+03  2.20213E+04  1.68599E+03  1.79918E+04  1.52116E+04  9.49495E+03  2.37745E+04
 -4.51911E+03  2.63014E+04 -1.66682E+04  1.73708E+04 -1.96866E+04  3.57752E+03 -1.43924E+04 -4.42621E+03
 -5.86026E+03 -6.05892E+03 -2.42830E+03  1.63745E+03 -1.52470E+03  3.13229E+03 -5.75214E+03  4.03566E+03
 -1.19431E+04 -7.99599E+02 -1.29951E+04 -1.11565E+04 -5.57384E+03 -1.66827E+04  5.88069E+03 -1.38762E+04
  1.15653E+04 -5.92922E+03  8.09178E+03  3.68668E+03 -1.26629E+03  5.28118E+03 -6.03928E+03 -7.88476E+02
 -5.77370E+03 -9.08356E+03 -3.89448E+02 -1.33136E+04  7.41937E+03 -1.44644E+04  1.66392E+04 -6.53070E+03
  1.99508E+04  2.35245E+03  1.46264E+04  1.14359E+04  2.81857E+03  1.59782E+04 -8.32623E+03  1.34939E+04
 -1.10388E+04  4.29461E+03 -5.90518E+03 -3.69557E+03  1.42390E+03 -3.34981E+03  8.17548E+03 -2.12710E+03
  7.59333E+03  7.04493E+03  8.36276E+02  1.08359E+04 -6.07439E+03  1.08417E+04 -1.29799E+04  3.33175E+03
 -9.91538E+03 -6.81852E+03  4.32211E+02 -1.17371E+04  6.66544E+03 -6.01090E+03  6.82410E+03  2.49619E+03
  1.10847E+03  6.62268E+03 -6.15726E+03  9.60296E+03 -1.15254E+04  3.22596E+03 -1.04255E+04 -3.63079E+03
 -6.15555E+03 -1.29851E+04  4.30845E+03 -1.47506E+04  1.28447E+04 -8.16512E+03  1.37307E+04  2.60148E+03
  7.15233E+03  8.52858E+03 -1.21584E+03  1.22564E+04 -1.01848E+04  8.66499E+03 -1.11535E+04 -1.24060E+03
 -9.31253E+03 -7.96167E+03 -2.46463E+03 -1.02153E+04  5.75654E+03 -8.99864E+03  5.58297E+03 -3.08127E+03
  4.32681E+03  2.55088E+03 -1.74165E+03  2.60639E+03 -1.26536E+03 -3.08593E+03  1.39216E+03 -5.42202E+03
  8.97879E+03 -3.58138E+03  1.16958E+04  1.68418E+03  1.20700E+04  9.11016E+03  9.29003E+03  1.81918E+04
 -3.59509E+03  1.96208E+04 -1.58817E+04  1.32084E+04 -2.04752E+04  2.78812E+03 -1.76362E+04 -5.76375E+03
 -7.60497E+03 -1.32683E+04 -8.14664E+02 -1.08859E+04  3.71450E+03 -6.45928E+03  3.93994E+03 -4.42445E+03
  3.95867E+03 -2.02382E+03  3.90347E+03 -3.62727E+03  5.06474E+03 -3.04141E+03  6.66074E+03 -1.12577E+03
  7.62896E+03  2.07746E+03  4.86334E+03  7.24266E+03 -3.18522E+03  8.30251E+03 -7.98358E+03  7.22195E+03
 -1.17946E+04 -2.05652E+03 -7.12048E+03 -8.76407E+03 -4.52365E+02 -1.26202E+04  6.50861E+03 -1.04511E+04
  1.24243E+04 -7.50699E+03  1.57616E+04  2.23256E+03  1.01958E+04  1.14407E+04  1.74770E+03  1.18033E+04
 -6.18082E+03  1.26355E+04 -8.15832E+03  5.12359E+03 -5.70865E+03 -1.42888E+03 -2.41723E+03 -1.46992E+03
 -2.03210E+03 -1.48475E+02 -2.47947E+03  3.82572E+03 -4.49775E+03  1.21232E+03 -8.35148E+03 -1.39994E+03
 -4.82238E+03 -9.34685E+03  3.55583E+02 -1.07606E+04  8.15492E+03 -1.21703E+04  1.11683E+04 -4.05234E+03
  1.04901E+04  7.37005E+03  5.82460E+03  9.83218E+03 -2.04851E+03  1.19747E+04 -8.59877E+03  6.25841E+03
 -9.37223E+03  1.59775E+03 -8.10810E+03 -5.07614E+03 -1.33220E+03 -8.21309E+03  4.28235E+03 -6.49031E+03
  6.15454E+03 -1.75489E+03  6.05370E+03  1.44018E+03  6.45967E+02  3.00622E+03  1.61113E+03  2.25273E+03
  2.49442E+03  1.27788E+03  2.60163E+03  9.21578E+02  1.97495E+03  4.56916E+03  3.75279E+03  5.26328E+03
 -3.49992E+03  8.02598E+03 -8.83047E+03  9.36604E+03 -1.18326E+04  2.30582E+03 -1.19716E+04 -4.21563E+03
 -5.16209E+03 -1.16080E+04  2.37617E+03 -1.15138E+04  6.34875E+03 -7.39053E+03  9.34619E+03 -1.93819E+03
  6.07971E+03  2.91706E+03  1.71878E+03  6.26784E+03 -3.13566E+03  2.77861E+03 -4.55922E+03 -1.33654E+03
 -2.23052E+03 -4.21721E+03  2.09526E+03 -4.96485E+03  3.96746E+03 -2.91858E+03  3.40431E+03  1.42388E+03
  2.93960E+03  2.13710E+03  7.88673E+02  1.17614E+02 -4.06862E+02  7.25631E+02  1.08653E+03  5.43547E+02
  2.84784E+03  1.90623E+02  3.67908E+03  2.99192E+03  2.07474E+03  6.01721E+03 -1.65680E+03  6.72103E+03
 -3.92364E+03  5.19066E+03 -6.71159E+03  1.24485E+03 -5.93019E+03 -1.97512E+03 -1.37342E+03 -4.37401E+03
  2.15301E+03 -4.30437E+03  3.01026E+03 -1.89530E+03  3.35452E+03  2.86203E+03 -2.23366E+03  3.88201E+03
 -5.12298E+03  2.91566E+03 -5.91269E+03 -2.32074E+03 -2.85681E+03 -6.43457E+03  9.59295E+02 -6.23980E+03
  3.46203E+03 -3.20603E+03  5.55661E+03 -7.29521E+02  4.13910E+03  2.89023E+03  6.78390E+02  2.41124E+03
 -3.28608E+03  1.06227E+03 -3.08190E+03 -1.45289E+03  1.36885E+03 -4.42796E+03  5.69953E+03 -4.84841E+03
  6.71954E+03  6.47855E+02  5.48756E+03  3.45153E+03  2.26093E+03  5.62531E+03 -1.95295E+03  7.46767E+03
 -8.00615E+03  3.32356E+03 -6.31610E+03 -1.51806E+03 -3.07033E+03 -4.73211E+03  1.58332E+03 -4.10834E+03
  4.38466E+03 -1.15614E+03  2.71793E+03  1.33196E+03  1.50742E+03  5.38123E+03  2.09328E+02  3.03005E+03
 -1.15151E+03  3.36634E+03 -2.46403E+03  1.80362E+03 -4.84265E+02  1.33695E+03 -1.75884E+02  8.08352E+02
 -2.80881E+03  1.55945E+03 -4.58129E+03  2.47981E+03 -6.73500E+03  1.00649E+03 -8.37139E+03 -5.26837E+03
 -4.72756E+03 -9.73690E+03  3.29555E+02 -1.02288E+04  6.85967E+03 -7.93905E+03  1.09574E+04 -3.44863E+03
  1.05579E+04  1.34033E+03  6.54801E+03  4.68437E+03  1.10539E+03  7.57721E+03 -2.18134E+03  5.99945E+03
 -4.23171E+03  1.36281E+03 -2.58267E+03 -2.55030E+03 -8.20177E+02  2.23614E+02 -1.22011E+03  5.23462E+02
 -1.45026E+03  1.31690E+03 -7.40748E+02 -7.35359E+02 -1.42711E+03 -1.71616E+03 -4.69179E+02 -1.49118E+03
  3.39550E+03 -3.15802E+03  3.59508E+03 -1.33231E+03  3.51682E+03  3.48478E+03  1.87832E+03  7.17274E+03
 -3.75281E+03  7.98658E+03 -7.76809E+03  5.93026E+03 -8.68676E+03 -1.11660E+03 -6.82834E+03 -5.07885E+03
 -2.28104E+03 -6.88798E+03  1.14888E+03 -6.62117E+03  5.21461E+03 -4.04327E+03  3.83947E+03  9.24131E+02
  3.50017E+03  2.57339E+03  2.72804E+02  1.96347E+03 -2.08925E+03  6.86463E+02  1.07317E+02 -2.94670E+03
  3.32665E+03  1.00298E+03  1.60930E+03  7.79351E+02  1.76424E+03  2.94631E+03 -2.31076E+02  2.89802E+03
 -1.90981E+03  4.08940E+03 -4.35340E+03  1.19827E+03 -3.13995E+03 -3.46836E+03 -1.49004E+03 -5.77666E+03
  2.51369E+03 -3.54789E+03  5.04680E+03 -1.41265E+03  5.21948E+03  8.01314E+02  3.90614E+03  3.47784E+03
  5.01339E+02  3.91683E+03 -2.72808E+03  5.19496E+03 -3.03590E+03  1.22333E+03 -1.85934E+03  1.17737E+03
 -5.28425E+02  3.85709E+01 -9.67304E+02 -4.44926E+02 -2.48395E+03  9.02621E+02 -2.38443E+03 -9.81822E+02
 -3.18925E+03 -3.55845E+03 -7.48672E+02 -3.57298E+03  1.85906E+03 -5.29727E+03  4.59420E+03 -1.51777E+03
  5.18793E+03  1.74567E+03  1.88057E+03  3.01753E+03 -6.85488E+02  5.86698E+03 -3.05872E+03  2.45571E+03
