 $NMID ID='MM_0lb_SNR200_8hz_g50_76.RAW', FMTDAT='(8E13.5)'
 TRAMP=1., VOLUME=1. $END
  3.11375E+05 -1.66163E+03  3.38422E+05  2.50541E+05  8.58047E+04  3.38304E+05 -1.32729E+05  2.51052E+05
 -1.89668E+05  8.44244E+04 -1.13214E+05 -3.16619E+04 -4.22927E+02 -5.01621E+04  5.37842E+04 -1.63462E+03
  3.44110E+04  5.16958E+04 -1.61551E+04  7.51203E+04 -6.18170E+04  6.44559E+04 -8.72441E+04  3.15888E+04
 -8.32648E+04 -1.05965E+04 -5.79168E+04 -5.18130E+04 -1.45394E+04 -7.03624E+04  2.78478E+04 -4.83699E+04
  4.05036E+04  4.80313E+03  1.65186E+04  4.74812E+04 -3.41385E+04  5.00460E+04 -6.84969E+04  4.57930E+02
 -5.58537E+04 -5.66163E+04 -5.46151E+03 -7.76868E+04  3.76182E+04 -5.86667E+04  4.92239E+04 -1.80050E+04
  4.48764E+04  1.14594E+04  3.20744E+04  2.65886E+04  1.63996E+04  3.14051E+04 -6.91541E+03  2.89554E+04
 -2.11029E+04  1.33941E+04 -1.77549E+04 -5.51023E+03  7.41261E+03 -8.34957E+03  2.41567E+04  1.46234E+04
  7.44926E+03  3.70920E+04 -3.48253E+04  3.91501E+04 -6.67241E+04  2.17022E+03 -5.98160E+04 -4.60723E+04
 -1.25843E+04 -6.73934E+04  4.30220E+04 -4.87381E+04  6.17304E+04 -2.49316E+03  3.58335E+04  3.50634E+04
 -4.82712E+03  4.04656E+04 -3.42476E+04  1.97548E+04 -3.41383E+04 -1.81751E+03 -1.84836E+04 -1.28694E+04
 -9.28174E+03 -1.63487E+04 -4.15473E+02 -2.08211E+04  9.15284E+03 -2.26396E+04  1.50029E+04 -1.14233E+04
  1.02573E+04  5.97685E+03 -1.16653E+04  1.28908E+04 -2.49152E+04 -5.56920E+03 -8.33492E+03 -4.02768E+04
  2.55335E+04 -4.72930E+04  5.23321E+04 -2.09016E+04  4.87960E+04  2.23582E+04  1.82703E+04  4.82934E+04
 -1.65256E+04  3.83159E+04 -2.89333E+04  1.41024E+03 -1.17229E+04 -3.09715E+04  2.36730E+04 -3.75135E+04
  4.52844E+04 -1.10163E+04  4.17015E+04  2.32781E+04  2.07452E+04  5.06248E+04 -7.74833E+03  5.77891E+04
 -3.81449E+04  3.61134E+04 -4.90617E+04  1.06480E+04 -4.78972E+04 -1.77670E+04 -2.57696E+04 -4.19678E+04
  8.03583E+03 -4.49033E+04  3.51061E+04 -1.85501E+04  3.19440E+04  1.20045E+04  4.88290E+03  2.11593E+04
 -1.38655E+04  1.09505E+04 -1.14764E+04 -7.79425E+03  5.64642E+03 -1.17139E+04  1.93776E+04  5.41206E+03
  1.56083E+04  2.43912E+04 -6.32660E+03  2.93906E+04 -2.29982E+04  1.44398E+04 -3.22253E+04 -2.60156E+03
 -2.63764E+04 -1.72169E+04 -1.07855E+04 -2.63772E+04  3.81269E+03 -2.44404E+04  2.07443E+04 -2.35379E+04
  3.54446E+04 -1.46017E+04  3.84173E+04  5.12621E+03  2.87538E+04  2.51829E+04  3.56948E+03  4.23322E+04
 -2.06251E+04  3.46064E+04 -3.05389E+04  1.12188E+04 -2.33367E+04 -1.04126E+04 -5.38050E+03 -1.28066E+04
  1.44970E+03 -9.85857E+02 -8.32348E+03  8.65826E+03 -2.16104E+04  6.71069E+03 -2.07636E+04 -9.78591E+03
 -1.26825E+04 -2.61179E+04  4.73292E+03 -3.00887E+04  1.79603E+04 -2.08053E+04  2.47685E+04 -2.68708E+03
  1.54488E+04  1.61778E+04 -9.60299E+02  2.26244E+04 -1.54834E+04  1.27910E+04 -2.49605E+04 -5.48381E+03
 -1.83816E+04 -2.26635E+04 -9.47554E+02 -3.03320E+04  1.41443E+04 -2.47391E+04  2.38990E+04 -1.40027E+04
  2.26282E+04 -1.33298E+03  1.67340E+04  6.60417E+03  9.22263E+03  7.19723E+00  1.19825E+04 -2.93124E+03
  2.34786E+04  1.97172E+03  2.66126E+04  1.98599E+04  1.75286E+04  3.97398E+04 -2.23372E+03  4.53815E+04
 -2.64730E+04  3.76520E+04 -4.59444E+04  2.01196E+04 -4.73052E+04 -4.65081E+03 -3.82067E+04 -2.92104E+04
 -1.36956E+04 -3.90858E+04  1.55379E+04 -3.36980E+04  2.92647E+04 -1.69030E+04  2.58558E+04  8.89896E+03
  8.27057E+03  1.99777E+04 -1.40604E+04  1.84210E+04 -2.06769E+04  2.80408E+03 -1.62986E+04 -1.41356E+04
 -1.31404E+03 -2.11247E+04  1.04643E+04 -1.41481E+04  1.38101E+04 -2.02521E+02  4.04650E+03  9.60659E+03
 -9.81762E+03  4.20532E+03 -1.08716E+04 -8.26229E+03 -1.34425E+03 -1.96596E+04  1.22896E+04 -2.30976E+04
  2.48497E+04 -1.39441E+04  2.83178E+04  2.32623E+03  2.38982E+04  1.93073E+04  1.10344E+04  3.31798E+04
 -6.81572E+03  3.31067E+04 -2.16538E+04  1.92640E+04 -2.44404E+04  4.51857E+03 -1.69861E+04 -6.76733E+03
 -6.67557E+03 -7.25940E+03 -2.28444E+02  4.17097E+02 -3.00674E+03  4.07373E+03 -7.89783E+03  5.38144E+03
 -1.46412E+04 -1.81902E+03 -1.57644E+04 -1.09996E+04 -4.37870E+03 -2.09258E+04  7.62676E+03 -1.77201E+04
  1.40462E+04 -7.26819E+03  9.22089E+03  4.78584E+03 -2.42245E+02  7.99097E+03 -8.07820E+03 -7.66153E+02
 -7.72864E+03 -1.02417E+04 -9.28444E+02 -1.70118E+04  1.10442E+04 -1.74683E+04  2.19844E+04 -9.08925E+03
  2.45485E+04  4.12665E+03  1.76259E+04  1.40900E+04  4.06110E+03  2.00978E+04 -1.10830E+04  1.67891E+04
 -1.39164E+04  4.06359E+03 -6.16981E+03 -4.93177E+03  2.62689E+03 -4.45441E+03  9.86966E+03 -4.01275E+02
  6.74035E+03  7.16539E+03  1.06269E+03  1.42357E+04 -1.04265E+04  1.18044E+04 -1.83544E+04  2.01736E+03
 -1.30366E+04 -7.65957E+03 -3.50893E+02 -1.41342E+04  9.89873E+03 -8.32027E+03  9.72055E+03  2.93431E+03
  2.62873E+03  1.29577E+04 -1.02090E+04  1.32255E+04 -1.49276E+04  4.72715E+03 -1.62486E+04 -6.64468E+03
 -9.12823E+03 -1.81421E+04  2.60974E+03 -2.27810E+04  1.63622E+04 -1.27628E+04  1.91017E+04  2.45252E+03
  9.25050E+03  1.38639E+04 -2.23209E+03  1.76672E+04 -1.25276E+04  9.60014E+03 -1.40928E+04 -1.12909E+03
 -1.15970E+04 -1.12049E+04 -2.34540E+03 -1.40900E+04  6.82434E+03 -1.14738E+04  8.42524E+03 -3.31173E+03
  5.09040E+03  2.32893E+03 -1.50545E+03  1.59517E+03 -9.77811E+02 -3.89597E+03  2.74415E+03 -9.99254E+03
  1.31293E+04 -5.30470E+03  1.78213E+04  3.28079E+03  1.70300E+04  1.22606E+04  1.14664E+04  2.22714E+04
 -5.72178E+03  2.52233E+04 -2.18416E+04  1.89422E+04 -2.77194E+04  3.55907E+03 -2.39375E+04 -1.07362E+04
 -1.11034E+04 -1.76739E+04 -9.91417E+02 -1.52867E+04  4.51667E+03 -8.07806E+03  7.37033E+03 -5.33598E+03
  4.16439E+03 -4.48313E+03  4.09176E+03 -5.19456E+03  5.42541E+03 -3.49870E+03  8.83973E+03 -2.54316E+03
  1.23281E+04  2.35157E+03  7.39661E+03  1.02557E+04 -1.90012E+03  1.34897E+04 -1.14667E+04  9.55004E+03
 -1.67332E+04 -1.64854E+03 -1.02547E+04 -1.02584E+04 -3.10390E+02 -1.89181E+04  7.91712E+03 -1.53493E+04
  1.69333E+04 -9.29103E+03  2.29630E+04  2.36169E+03  1.46625E+04  1.59320E+04  1.78236E+03  1.91935E+04
 -8.14780E+03  1.60270E+04 -1.12663E+04  4.15840E+03 -5.59728E+03 -3.09838E+03 -5.39094E+03 -1.36769E+03
 -1.23630E+03 -9.90703E+02 -2.57516E+03  2.53778E+03 -6.66281E+03  1.16883E+03 -1.24102E+04 -2.96627E+03
 -8.08369E+03 -1.11786E+04 -2.63004E+02 -1.53896E+04  1.12783E+04 -1.54890E+04  1.79068E+04 -5.45776E+03
  1.63576E+04  8.73520E+03  7.14191E+03  1.46425E+04 -2.80660E+03  1.82844E+04 -1.08866E+04  1.02948E+04
 -1.53701E+04  8.41462E+02 -1.28609E+04 -1.02937E+04 -2.71399E+03 -1.49797E+04  6.32680E+03 -9.81747E+03
  9.48079E+03 -1.15582E+03  7.01702E+03  3.86208E+03  3.14925E+03  4.83483E+03  1.44560E+03  2.67893E+03
  3.73857E+03 -2.23440E+02  3.94358E+03  1.51996E+03  5.40752E+03  6.81621E+03  2.39671E+03  6.61892E+03
 -5.00830E+03  1.32599E+04 -1.20727E+04  1.26022E+04 -1.69223E+04  3.63561E+03 -1.83093E+04 -7.11021E+03
 -8.82204E+03 -1.71813E+04  1.64268E+03 -1.93068E+04  1.09462E+04 -1.14113E+04  1.50648E+04 -3.41416E+03
  1.17645E+04  7.89096E+03  2.05684E+03  1.05511E+04 -5.03023E+03  7.65485E+03 -7.14267E+03  6.61177E+02
 -3.78905E+03 -6.25584E+03  5.26457E+03 -8.61383E+03  7.26863E+03 -3.77978E+03  6.26098E+03  1.47568E+03
  4.70674E+03  3.07795E+03  1.02694E+03  4.89082E+03 -3.66292E+02  1.20053E+03  3.52002E+02 -9.88716E+02
  2.63065E+03 -1.83928E+03  7.40008E+03  4.99353E+03  4.64423E+03  8.01007E+03 -6.33124E+02  1.39809E+04
 -8.18349E+03  1.04921E+04 -1.08294E+04  2.81429E+03 -1.12188E+04 -2.30910E+03 -2.85735E+03 -7.20339E+03
  3.03733E+03 -7.28708E+03  4.27232E+03 -2.86256E+03  3.78908E+03  4.18147E+03  4.19004E+02  5.40136E+03
 -8.27973E+03  2.51479E+03 -9.40525E+03 -3.26162E+03 -5.41256E+03 -9.41389E+03  1.71909E+03 -1.02155E+04
  5.67332E+03 -4.75820E+03  7.06312E+03 -1.30901E+03  5.50847E+03  1.30096E+03 -7.90150E+02  4.78845E+03
 -4.06740E+03  2.05737E+03 -5.00234E+03 -4.59761E+03  1.49221E+03 -4.66227E+03  9.50247E+03 -5.39493E+03
  1.12476E+04 -1.50943E+03  1.11600E+04  7.54709E+03  3.77215E+03  1.21888E+04 -4.24262E+03  1.34859E+04
 -8.38100E+03  3.95825E+03 -8.39085E+03 -1.97084E+03 -5.57188E+03 -7.29601E+03  1.37472E+03 -5.61910E+03
  7.28190E+03 -5.68290E+03  6.85962E+03  3.29097E+03  2.90350E+01  6.68044E+03 -1.27696E+03  5.18327E+03
 -2.45474E+03  3.79285E+03 -2.00204E+03  1.36763E+03 -6.66487E+02  5.46470E+02 -2.48299E+03  6.73852E+02
 -3.65687E+03  4.41991E+03 -8.42758E+03  3.57084E+03 -1.19328E+04  1.56034E+03 -1.26575E+04 -8.16943E+03
 -8.29975E+03 -1.50265E+04  3.85863E+03 -1.90590E+04  1.13052E+04 -1.49491E+04  1.87050E+04 -6.06490E+03
  1.56851E+04  5.52745E+03  1.07079E+04  1.22972E+04  1.15361E+03  1.21865E+04 -3.77091E+03  8.68271E+03
 -6.21850E+03  1.69084E+03 -4.58993E+03 -6.56645E+02 -1.38230E+03 -2.73723E+03 -4.89860E+01  1.71599E+02
 -2.50704E+03  9.82306E+01 -2.90099E+03  8.61948E+02 -9.98468E+02 -2.74344E+03  5.44230E+02 -6.21600E+03
  5.97297E+03 -5.70042E+03  7.98417E+03  3.00271E+02  9.93179E+03  8.94780E+03  4.47821E+03  1.38833E+04
 -5.56467E+03  1.45610E+04 -1.38565E+04  9.48949E+03 -1.53611E+04 -1.12492E+03 -1.07434E+04 -1.01423E+04
 -4.98488E+03 -1.12107E+04  4.11754E+03 -1.20917E+04  8.42661E+03 -7.45631E+03  8.84535E+03 -1.56908E+02
  5.78849E+03  2.63023E+03 -1.27290E+03  4.16800E+03 -3.42642E+03  9.15989E+02 -3.74653E+02 -3.69198E+03
  4.12166E+03 -1.21347E+03  5.40384E+03  9.11109E+02  3.81051E+03  6.63501E+03 -8.18328E+02  6.84689E+03
 -4.21231E+03  4.96012E+03 -7.38431E+03  1.25269E+03 -6.89107E+03 -6.41102E+03 -3.04314E+02 -1.18871E+04
  4.86678E+03 -6.94154E+03  1.19830E+04 -1.88951E+03  9.89911E+03  2.43975E+03  4.50861E+03  9.44113E+03
 -2.56105E+02  8.51184E+03 -2.81426E+03  7.03014E+03 -4.92970E+03  4.36609E+03 -4.73276E+03  2.92627E+03
 -4.58486E+03  2.76546E+02 -3.19717E+03  1.23667E+03 -3.25583E+03  6.33649E+02 -7.97008E+03 -2.84694E+03
 -5.40954E+03 -4.68942E+03 -2.06739E+03 -7.64602E+03  2.99018E+03 -8.01956E+03  7.79339E+03 -4.89125E+03
  8.41154E+03  6.58815E+02  6.56246E+03  5.49615E+03 -7.34908E+01  9.31281E+03 -5.47004E+03  7.36879E+03
