 $NMID ID='MM_0lb_SNR200_9hz_g60_44.RAW', FMTDAT='(8E13.5)'
 TRAMP=1., VOLUME=1. $END
  3.07887E+05  1.26933E+03  3.38328E+05  2.51479E+05  8.42052E+04  3.39995E+05 -1.32937E+05  2.51996E+05
 -1.94078E+05  8.38345E+04 -1.13859E+05 -3.22549E+04  5.78174E+02 -4.95481E+04  5.22901E+04 -1.18727E+03
  3.40011E+04  5.30226E+04 -1.71592E+04  7.50810E+04 -6.23045E+04  6.49634E+04 -8.62198E+04  3.06825E+04
 -8.24282E+04 -1.21439E+04 -5.80326E+04 -5.25405E+04 -1.40759E+04 -7.22682E+04  2.81537E+04 -4.68687E+04
  4.18189E+04  4.31668E+03  1.66136E+04  4.90598E+04 -3.46043E+04  4.64191E+04 -6.82343E+04 -1.48926E+03
 -5.49107E+04 -5.83959E+04 -6.52134E+03 -7.87112E+04  3.56150E+04 -5.78172E+04  4.89366E+04 -1.85851E+04
  4.66840E+04  1.41127E+04  3.34129E+04  2.72331E+04  1.62505E+04  3.06595E+04 -5.24195E+03  2.68910E+04
 -2.17389E+04  1.23577E+04 -1.89151E+04 -7.73651E+03  6.15481E+03 -6.37522E+03  2.26961E+04  1.42637E+04
  6.36989E+03  3.82969E+04 -3.29820E+04  3.78381E+04 -6.50000E+04  3.41431E+03 -6.02782E+04 -4.37114E+04
 -1.31727E+04 -6.79645E+04  4.13097E+04 -4.99066E+04  6.33974E+04 -1.03566E+03  3.66925E+04  3.38530E+04
 -6.16347E+03  4.02214E+04 -3.24018E+04  2.23065E+04 -3.59693E+04 -3.47896E+03 -2.16918E+04 -1.24002E+04
 -1.03603E+04 -1.52859E+04 -7.59376E+02 -2.08147E+04  9.02201E+03 -2.24947E+04  1.59668E+04 -1.18987E+04
  9.60008E+03  6.75967E+03 -1.14215E+04  1.26406E+04 -2.31704E+04 -7.48910E+03 -7.68154E+03 -3.91237E+04
  2.66467E+04 -4.70892E+04  5.29874E+04 -2.05966E+04  4.89857E+04  2.20675E+04  1.82074E+04  4.75101E+04
 -1.58767E+04  3.64235E+04 -2.83589E+04  4.22346E+03 -1.13748E+04 -2.94236E+04  2.25509E+04 -3.85036E+04
  4.28478E+04 -1.15213E+04  4.14060E+04  2.73740E+04  2.26275E+04  5.22992E+04 -7.30637E+03  5.75273E+04
 -3.54577E+04  3.97639E+04 -4.84379E+04  1.06992E+04 -4.72229E+04 -1.77246E+04 -2.71220E+04 -4.34519E+04
  8.34261E+03 -4.32202E+04  3.49840E+04 -1.59832E+04  3.24291E+04  1.13133E+04  5.35626E+03  2.29006E+04
 -1.31769E+04  9.91030E+03 -1.03863E+04 -8.32479E+03  6.37473E+03 -1.27695E+04  1.95132E+04  4.55619E+03
  1.55861E+04  2.22686E+04 -5.20337E+03  2.85082E+04 -2.45816E+04  1.54874E+04 -3.25836E+04 -2.65621E+03
 -2.70172E+04 -1.88094E+04 -1.11373E+04 -2.70552E+04  5.20788E+03 -2.71586E+04  2.02558E+04 -2.31547E+04
  3.36114E+04 -1.35044E+04  3.80706E+04  5.34472E+03  2.81687E+04  2.62628E+04  4.21462E+03  4.19971E+04
 -1.91742E+04  3.48035E+04 -3.08853E+04  1.19759E+04 -2.19937E+04 -9.26473E+03 -4.02039E+03 -1.35157E+04
  1.39275E+03 -1.08310E+03 -8.03531E+03  8.30098E+03 -2.10788E+04  3.86263E+03 -1.89027E+04 -1.11700E+04
 -1.29695E+04 -2.55793E+04  7.06402E+03 -2.88309E+04  1.95117E+04 -2.20225E+04  2.22240E+04 -8.66606E+02
  1.48824E+04  1.67466E+04 -2.81404E+03  2.41557E+04 -1.70166E+04  1.35388E+04 -2.55137E+04 -4.76544E+03
 -1.70244E+04 -2.11365E+04 -1.58179E+03 -3.05848E+04  1.30382E+04 -2.45110E+04  2.42823E+04 -1.04738E+04
  2.39547E+04 -5.03532E+02  1.79792E+04  5.41105E+03  9.29001E+03  1.97514E+03  1.34384E+04 -3.13650E+03
  2.26070E+04  2.13953E+03  2.65945E+04  1.83001E+04  1.86382E+04  3.89861E+04 -3.48557E+03  4.64320E+04
 -2.49740E+04  3.79418E+04 -4.52012E+04  1.84220E+04 -4.62118E+04 -3.03102E+03 -3.82174E+04 -2.60136E+04
 -1.52792E+04 -4.00849E+04  1.44713E+04 -3.41265E+04  2.93065E+04 -1.55109E+04  2.60222E+04  9.98713E+03
  8.75268E+03  1.84199E+04 -1.21292E+04  1.63577E+04 -2.17990E+04  1.21282E+03 -1.44273E+04 -1.36349E+04
 -3.15237E+02 -2.06019E+04  1.14732E+04 -1.51957E+04  1.17523E+04 -1.52895E+03  3.90413E+03  8.97289E+03
 -8.96142E+03  4.41111E+03 -1.11745E+04 -5.43562E+03 -2.00351E+03 -2.06020E+04  1.22082E+04 -2.08116E+04
  2.42123E+04 -1.18230E+04  2.67561E+04  3.03232E+03  2.43948E+04  1.90530E+04  9.67010E+03  3.10017E+04
 -5.45617E+03  3.47177E+04 -2.23110E+04  2.00748E+04 -2.40201E+04  5.26253E+03 -1.62796E+04 -6.52828E+03
 -5.98898E+03 -8.11075E+03  3.19327E+02 -6.75612E+02 -1.37612E+03  4.39106E+03 -8.62733E+03  6.10145E+03
 -1.45276E+04  3.53115E+02 -1.52829E+04 -1.20368E+04 -6.03640E+03 -2.11298E+04  6.50994E+03 -1.62250E+04
  1.17609E+04 -8.01113E+03  1.01082E+04  3.65987E+03  3.57080E+02  6.27105E+03 -8.55891E+03  9.88561E+02
 -7.73799E+03 -9.90748E+03 -1.99071E+03 -1.65915E+04  7.98370E+03 -1.71932E+04  2.25100E+04 -1.00178E+04
  2.41142E+04  2.97198E+03  1.72361E+04  1.45497E+04  3.18282E+03  1.99464E+04 -8.76513E+03  1.77346E+04
 -1.25621E+04  4.88886E+03 -6.44195E+03 -2.54759E+03  2.69905E+03 -4.61848E+03  6.98003E+03 -8.22250E+02
  7.98657E+03  5.75455E+03  1.11188E+03  1.16635E+04 -1.00745E+04  1.18260E+04 -1.63227E+04  4.41216E+03
 -1.29768E+04 -8.43396E+03 -2.36964E+02 -1.47702E+04  1.00549E+04 -5.82412E+03  9.26810E+03  3.38700E+03
  3.76460E+03  1.09821E+04 -7.13418E+03  1.13209E+04 -1.38673E+04  6.74888E+03 -1.49059E+04 -4.94459E+03
 -8.13073E+03 -1.63785E+04  4.30757E+03 -1.90807E+04  1.62928E+04 -1.07258E+04  1.87823E+04  3.06526E+03
  1.06376E+04  1.36077E+04 -2.42580E+03  1.60870E+04 -1.28525E+04  9.97763E+03 -1.29815E+04 -6.62800E+02
 -1.07421E+04 -1.13179E+04 -1.75819E+03 -1.06527E+04  5.39852E+03 -1.08443E+04  8.83080E+03 -4.25530E+03
  4.62219E+03  2.73890E+03 -1.28355E+03  3.38717E+03 -9.15904E+02 -4.52004E+03  2.79903E+03 -8.90481E+03
  1.18750E+04 -5.76156E+03  1.72133E+04  7.91428E+02  1.55326E+04  1.28493E+04  8.48852E+03  2.36964E+04
 -4.30739E+03  2.66475E+04 -2.16910E+04  1.91141E+04 -2.87643E+04  2.60896E+03 -2.25284E+04 -9.56727E+03
 -1.02191E+04 -1.82602E+04  1.07978E+02 -1.55428E+04  6.59777E+03 -9.01368E+03  5.84953E+03 -6.25830E+03
  4.36624E+03 -2.20551E+03  4.92149E+03 -5.45986E+03  7.86209E+03 -3.26363E+03  8.48765E+03 -2.74673E+03
  1.29572E+04  1.72492E+03  7.27016E+03  1.07477E+04 -3.31672E+03  1.13334E+04 -1.41742E+04  9.89286E+03
 -1.69283E+04 -1.34099E+02 -7.99012E+03 -1.11751E+04 -1.46507E+03 -1.96251E+04  7.72619E+03 -1.74314E+04
  1.66703E+04 -8.35739E+03  2.14935E+04  2.10044E+03  1.39506E+04  1.51139E+04  3.06478E+03  1.93613E+04
 -8.72069E+03  1.45220E+04 -1.12916E+04  5.50438E+03 -8.51143E+03 -1.65386E+03 -4.18924E+03 -1.40648E+03
 -8.29746E+02 -1.69183E+03 -1.04355E+03  5.59690E+03 -6.96191E+03  3.86797E+03 -1.01015E+04 -1.10075E+03
 -7.43236E+03 -1.08517E+04 -5.92433E+02 -1.47732E+04  9.83335E+03 -1.52845E+04  1.55041E+04 -4.75682E+03
  1.60841E+04  8.50377E+03  7.34478E+03  1.48147E+04 -2.32357E+03  1.72593E+04 -9.84673E+03  9.66417E+03
 -1.54624E+04  5.05462E+02 -1.29389E+04 -9.70399E+03 -2.63969E+02 -1.31684E+04  7.33500E+03 -1.07750E+04
  1.07336E+04 -4.05517E+03  7.17014E+03  4.30935E+03  4.49435E+03  4.63172E+03  2.17321E+03  2.11445E+03
  2.36923E+03  2.88068E+02  4.12294E+03  1.20923E+03  6.55003E+03  4.53103E+03  2.76170E+03  7.47030E+03
 -3.52990E+03  1.22943E+04 -1.17158E+04  1.27902E+04 -1.78054E+04  3.52364E+03 -1.67924E+04 -7.12932E+03
 -8.70394E+03 -1.64415E+04  2.91638E+03 -1.89257E+04  9.43642E+03 -1.29411E+04  1.35919E+04 -3.36272E+03
  1.16852E+04  6.41529E+03  1.09094E+03  8.78272E+03 -5.98319E+03  5.96210E+03 -5.38774E+03  1.44269E+03
 -3.90763E+03 -9.01378E+03  5.98325E+03 -7.16597E+03  7.55196E+03 -3.31776E+03  6.01236E+03  2.00835E+03
  3.73942E+03  2.78673E+03  1.20239E+03  2.92993E+03 -1.23313E+03  3.41317E+03  5.34903E+02 -1.12100E+03
  2.10118E+03 -6.53389E+02  7.69676E+03  2.10383E+03  4.77269E+03  8.71536E+03 -1.52530E+03  1.14959E+04
 -9.07147E+03  9.06006E+03 -1.01555E+04  2.30742E+03 -8.48428E+03 -3.30743E+03 -3.99617E+03 -6.88677E+03
  1.06519E+03 -7.21595E+03  3.66238E+03 -1.67973E+03  3.68227E+03  4.75761E+03 -2.17486E+03  5.52594E+03
 -7.62642E+03  2.62606E+03 -7.71496E+03 -4.34152E+03 -4.71210E+03 -1.03872E+04  2.69156E+03 -9.34113E+03
  4.55735E+03 -7.22588E+03  7.85753E+03  6.59480E+02  7.17653E+03  6.47745E+02  1.10381E+03  5.89516E+03
 -3.88703E+03  1.40865E+03 -3.39182E+03 -3.54458E+03  3.04048E+03 -7.86545E+03  8.41055E+03 -4.53013E+03
  1.09645E+04  1.87848E+03  1.04945E+04  7.36759E+03  2.66565E+03  1.16740E+04 -3.31921E+03  1.08555E+04
 -1.06428E+04  5.15993E+03 -8.17437E+03 -2.35590E+03 -5.82608E+03 -6.61787E+03  2.30932E+03 -7.97258E+03
  6.02019E+03 -3.37557E+03  5.37762E+03  1.74866E+03  1.96206E+03  6.78657E+03 -3.85583E+02  5.81739E+03
 -1.72773E+03  3.26362E+03 -2.21216E+03  2.69512E+03 -1.81360E+03  1.17884E+03 -1.22753E+03  4.36136E+03
 -2.47075E+03  4.61450E+03 -6.13124E+03  3.84634E+03 -1.10730E+04  1.36271E+01 -1.24013E+04 -7.82881E+03
 -5.95774E+03 -1.43277E+04  3.89909E+03 -1.67387E+04  1.12643E+04 -1.43521E+04  1.55399E+04 -5.81067E+03
  1.50751E+04  3.77756E+03  8.24856E+03  9.81380E+03  1.39699E+03  1.23383E+04 -5.37344E+03  7.90428E+03
 -5.83234E+03  3.40086E+03 -6.25382E+03 -7.59750E+01 -1.88208E+03 -3.11442E+02  3.56334E+02 -3.87797E+02
 -2.31715E+03  6.75357E+02 -4.25947E+03 -3.64658E+02 -1.83570E+03 -2.46997E+03 -9.04932E+02 -5.04383E+03
  3.05592E+03 -1.76669E+03  6.16771E+03 -5.96337E+02  7.42225E+03  5.32695E+03  3.12249E+03  1.06538E+04
 -5.07850E+03  1.28401E+04 -1.24400E+04  7.56441E+03 -1.34678E+04 -4.89153E+02 -9.48582E+03 -9.18091E+03
 -6.19230E+03 -1.18899E+04  1.31636E+03 -1.10806E+04  8.56565E+03 -6.82315E+03  7.76726E+03  1.34255E+03
  3.47305E+03  3.84996E+03  8.44377E+01  1.18321E+03 -1.60445E+03 -5.26587E+02 -9.05757E+02 -2.78485E+03
  2.50827E+03 -1.68715E+03  4.82748E+03  2.04018E+03  3.63432E+03  4.93901E+03  7.48094E+02  5.51611E+03
 -3.62668E+03  5.49705E+03 -7.68011E+03 -9.29539E+02 -8.50081E+03 -4.57858E+03 -1.63508E+03 -9.53719E+03
  5.01258E+03 -8.83898E+03  8.75312E+03 -3.53735E+03  9.23242E+03  1.96007E+03  4.97493E+03  7.36052E+03
  4.39402E+02  7.19080E+03 -3.90553E+03  6.15018E+03 -5.00619E+03  2.29379E+03 -4.62395E+03  2.16486E+03
 -1.63643E+03 -1.16498E+02 -1.78216E+03  1.90831E+03 -3.59716E+03  1.09174E+03 -5.62322E+03 -1.37933E+03
 -4.52058E+03 -2.15090E+03 -1.18600E+03 -6.68856E+03  3.63815E+03 -7.89246E+03  5.40194E+03 -4.02743E+03
  8.56988E+03  1.40212E+02  3.27074E+03  5.74845E+03  1.06702E+03  7.05968E+03 -5.95004E+03  4.95493E+03
