 $NMID ID='MM_0lb_SNR200_17hz_g55_69.RAW', FMTDAT='(8E13.5)'
 TRAMP=1., VOLUME=1. $END
  3.09714E+05  2.44693E+02  3.37670E+05  2.50418E+05  8.45139E+04  3.38154E+05 -1.32435E+05  2.49912E+05
 -1.90925E+05  8.36058E+04 -1.12065E+05 -3.36300E+04  1.61804E+03 -5.01474E+04  5.38348E+04 -9.84311E+02
  3.57182E+04  5.32176E+04 -1.61130E+04  7.60271E+04 -5.99927E+04  6.33779E+04 -8.33769E+04  3.21979E+04
 -8.02088E+04 -1.03464E+04 -5.66324E+04 -5.16831E+04 -1.42013E+04 -6.94961E+04  2.62658E+04 -4.65191E+04
  3.88239E+04  3.75454E+03  1.57615E+04  4.62268E+04 -3.37957E+04  4.56648E+04 -6.60733E+04  4.94090E+02
 -5.31563E+04 -5.63889E+04 -7.68686E+03 -7.67844E+04  3.40597E+04 -5.46899E+04  4.61851E+04 -1.68751E+04
  4.23969E+04  1.11577E+04  3.23933E+04  2.45563E+04  1.58922E+04  2.95308E+04 -6.13867E+03  2.78338E+04
 -2.23028E+04  1.20569E+04 -1.98436E+04 -4.70724E+03  4.89828E+03 -7.16881E+03  2.12836E+04  1.21531E+04
  7.80004E+03  3.39913E+04 -3.08749E+04  3.59730E+04 -6.19479E+04  1.56639E+03 -5.50079E+04 -4.08685E+04
 -1.39419E+04 -6.07195E+04  3.85549E+04 -4.42901E+04  5.75427E+04 -1.94890E+03  3.30748E+04  3.05404E+04
 -6.37446E+03  3.54248E+04 -2.93507E+04  1.61890E+04 -2.91388E+04 -4.05862E+03 -1.45845E+04 -1.06963E+04
 -8.16536E+03 -1.18081E+04  1.18154E+02 -1.71196E+04  7.58118E+03 -2.20533E+04  1.47137E+04 -1.30908E+04
  1.23411E+04  4.76100E+03 -7.46376E+03  1.23672E+04 -2.00415E+04 -3.58074E+03 -8.05704E+03 -3.24034E+04
  2.24766E+04 -4.15384E+04  4.59839E+04 -1.86497E+04  4.40671E+04  1.91150E+04  1.53843E+04  4.25147E+04
 -1.55902E+04  3.11477E+04 -2.46038E+04  1.08962E+03 -9.71986E+03 -2.69074E+04  2.09793E+04 -3.21768E+04
  3.89728E+04 -8.64753E+03  3.41815E+04  2.19446E+04  1.70080E+04  4.45815E+04 -7.45766E+03  4.85169E+04
 -2.96650E+04  3.17907E+04 -3.95207E+04  9.38833E+03 -4.23361E+04 -1.56760E+04 -2.24391E+04 -3.59927E+04
  6.92187E+03 -3.88748E+04  3.00189E+04 -1.35363E+04  2.84948E+04  1.04575E+04  3.51761E+03  1.92196E+04
 -1.27754E+04  7.95116E+03 -1.09361E+04 -7.26658E+03  4.71714E+03 -1.12104E+04  1.65372E+04  5.64243E+03
  1.29284E+04  2.13548E+04 -6.20666E+03  2.46324E+04 -2.21653E+04  1.07199E+04 -2.67884E+04 -7.03113E+03
 -1.95687E+04 -1.72082E+04 -8.12030E+03 -1.93757E+04  3.48085E+03 -1.76231E+04  1.54040E+04 -1.61070E+04
  2.51770E+04 -1.20197E+04  3.10578E+04  1.71241E+03  2.20986E+04  1.76249E+04  5.47366E+03  3.49688E+04
 -1.74726E+04  2.85569E+04 -2.58766E+04  9.43896E+03 -1.99114E+04 -8.70740E+03 -4.21170E+03 -1.41261E+04
  2.71386E+03 -4.12719E+03 -4.90531E+03  5.12677E+03 -1.56341E+04  5.02836E+03 -1.63134E+04 -5.80005E+03
 -8.84561E+03 -1.67896E+04  4.21668E+03 -2.11231E+04  1.51352E+04 -1.54557E+04  1.54508E+04 -1.18814E+03
  9.10807E+03  1.09705E+04 -1.69630E+03  1.78438E+04 -1.25500E+04  1.02714E+04 -1.72062E+04 -3.23287E+03
 -1.25391E+04 -1.64033E+04 -1.66160E+03 -2.13745E+04  1.05655E+04 -1.79878E+04  1.93971E+04 -7.73233E+03
  1.61304E+04  4.08181E+02  1.07664E+04  3.88672E+03  6.56727E+03  1.51806E+03  7.88439E+03 -1.65273E+03
  1.52367E+04  2.56461E+03  1.67235E+04  1.51071E+04  9.66668E+03  2.72724E+04 -2.58405E+03  3.13153E+04
 -1.89729E+04  2.26669E+04 -2.92244E+04  1.14570E+04 -2.94883E+04 -2.16279E+03 -2.43850E+04 -1.70383E+04
 -1.06064E+04 -2.44480E+04  7.47932E+03 -2.18389E+04  1.83563E+04 -1.23404E+04  1.72491E+04  4.48627E+03
  7.21491E+03  1.19027E+04 -7.18010E+03  1.06702E+04 -1.39995E+04  3.40495E+03 -1.08236E+04 -1.00129E+04
 -3.05606E+02 -1.27504E+04  6.77945E+03 -1.10174E+04  7.91132E+03 -1.00175E+03  1.21429E+03  5.47094E+03
 -6.03660E+03  2.15267E+03 -4.69332E+03 -4.84477E+03 -2.36710E+02 -1.21421E+04  9.00539E+03 -1.07236E+04
  1.41150E+04 -6.93734E+03  1.35033E+04  2.63109E+03  1.29854E+04  1.13278E+04  5.45430E+03  1.74437E+04
 -2.60805E+03  1.81617E+04 -1.15313E+04  1.15900E+04 -1.19737E+04  4.32145E+03 -1.08949E+04 -2.13043E+03
 -4.38760E+03 -4.51390E+03 -1.33604E+03  6.18276E+02 -2.46895E+03  1.46888E+03 -4.31534E+03  3.70554E+03
 -8.57078E+03  5.86759E+02 -1.00586E+04 -8.10156E+03 -3.23532E+03 -1.18422E+04  4.99776E+03 -1.03845E+04
  9.21234E+03 -4.85504E+03  7.03137E+03  2.56708E+03  9.00784E+02  3.43619E+03 -4.44321E+03 -7.55057E+02
 -4.21455E+03 -5.82643E+03 -3.66706E+02 -8.72852E+03  5.32418E+03 -9.93520E+03  1.20479E+04 -4.17057E+03
  1.44484E+04  5.04517E+02  1.09646E+04  7.77498E+03  1.64311E+03  1.06352E+04 -5.47719E+03  9.62286E+03
 -7.48855E+03  3.08273E+03 -4.43198E+03 -1.99915E+03  5.76314E+02 -1.31395E+03  4.87405E+03 -1.30425E+03
  4.96030E+03  4.51624E+03  1.97056E+03  6.98957E+03 -5.77158E+03  6.91673E+03 -9.37652E+03  1.37636E+03
 -6.37056E+03 -4.41952E+03  1.46408E+03 -8.05922E+03  6.27667E+03 -3.53468E+03  4.21277E+03 -2.54904E+02
  6.23899E+02  5.18159E+03 -4.03248E+03  5.95527E+03 -5.60473E+03  2.15906E+03 -5.45094E+03 -1.87172E+03
 -3.68984E+03 -7.67099E+03  1.85536E+03 -1.05276E+04  8.18990E+03 -5.54910E+03  6.75995E+03  1.58412E+03
  5.43467E+03  6.80784E+03  1.06263E+03  8.47349E+03 -5.33423E+03  4.20422E+03 -6.42876E+03 -1.71525E+03
 -6.56278E+03 -6.49113E+03 -1.07350E+03 -5.81987E+03  4.12038E+03 -5.38845E+03  2.74560E+03 -3.19042E+03
  2.84900E+03  1.11231E+03 -8.14649E+02  1.45672E+03  2.46841E+02 -7.08738E+02  7.39092E+02 -2.46172E+03
  5.06744E+03 -4.55508E+02  5.96073E+03  6.16617E+02  8.12340E+03  4.49456E+03  6.20976E+03  8.51659E+03
 -2.13918E+03  1.09636E+04 -1.12182E+04  8.17907E+03 -1.28263E+04  1.14728E+03 -9.99529E+03 -4.39980E+03
 -5.01789E+03 -8.45485E+03 -2.20066E+03 -5.86356E+03  2.57331E+03 -2.43622E+03  2.10611E+03 -2.21970E+03
  1.95393E+03 -1.92639E+03  2.90931E+03 -1.88095E+03  2.83388E+03 -1.13624E+03  3.77674E+03  1.19249E+03
  4.10447E+03  2.06178E+03  2.11460E+03  4.14899E+03 -2.23262E+03  3.58755E+03 -6.68740E+03  4.16376E+03
 -6.28108E+03 -4.41015E+02 -2.65712E+03 -4.53043E+03  1.00208E+02 -6.63129E+03  3.20448E+03 -7.04392E+03
  6.99631E+03 -3.44253E+03  8.12528E+03  5.02139E+02  5.46695E+03  6.32309E+03  1.96726E+03  7.48108E+03
 -2.42679E+03  6.20751E+03 -4.16908E+03  1.76861E+03 -1.50148E+03 -6.17249E+01 -6.23174E+02  3.36014E+02
 -1.01448E+03  1.28540E+03 -1.74338E+03  2.36115E+03 -3.00748E+03  8.32484E+02 -4.34905E+03 -2.67310E+02
 -1.67333E+03 -5.27080E+03  1.35335E+02 -6.35647E+03  2.36740E+03 -5.03142E+03  4.45119E+03 -2.60214E+03
  4.85465E+03  2.47618E+03  2.52673E+03  4.98844E+03 -2.04367E+03  4.16311E+03 -2.29754E+03  3.66602E+03
 -4.79039E+03  1.67290E+02 -4.41436E+03 -4.26594E+03 -1.10172E+03 -3.13490E+03  1.70517E+03 -4.58008E+03
  4.15528E+03 -1.98287E+03  2.02192E+03  2.77666E+02  8.53959E+02  1.82072E+03  3.75565E+02 -1.16858E+01
  1.55216E+03 -4.38353E+02  8.63740E+02  1.06887E+03  1.55656E+03  1.47163E+03  1.85121E+03  2.08751E+03
 -2.65523E+03  3.82226E+03 -3.63748E+03  4.85015E+03 -3.87461E+03  2.09843E+03 -5.50953E+03 -2.13351E+03
 -2.27116E+03 -5.46226E+03  1.87959E+03 -6.75381E+03  2.16807E+03 -2.91026E+03  4.28960E+03 -9.16439E+02
  3.09757E+03  1.35863E+03  1.81073E+03  2.90179E+03 -1.28292E+03  1.91099E+03 -1.85417E+03 -1.43363E+03
 -7.56855E+02 -2.99237E+03  1.31078E+03 -2.38774E+03  1.53825E+03 -6.00099E+02  2.96732E+03  3.88429E+02
  7.02961E+02  6.83655E+01  1.43197E+03  1.56092E+02  7.22770E+02  9.44593E+02  2.16208E+03 -5.41011E+02
  1.17855E+03 -1.07519E+02  3.95366E+03  1.87447E+03  2.14029E+03  2.70085E+03  4.02354E+02  3.58815E+03
 -2.80682E+03  1.35767E+03 -2.37859E+03  4.14655E+02 -3.01176E+03 -3.91257E+02 -7.21505E+02 -1.69304E+03
  9.04278E+02 -1.22944E+03  5.86902E+02 -3.59993E+02  2.39638E+02  6.79048E+02 -6.45085E+02  2.03727E+03
 -1.23447E+03  1.26277E+03 -2.27695E+03 -2.34982E+03 -1.21663E+03 -3.15077E+03  3.05645E+02 -1.33791E+03
 -2.36797E+02 -1.30607E+03  5.58646E+02  8.13779E+02  2.59706E+03 -7.61246E+01  8.49259E+01  2.17136E+03
 -1.27185E+01 -1.97492E+02 -1.66757E+03 -1.50479E+03  4.90685E+02 -1.40355E+03  1.96055E+03 -2.18043E+03
  2.34106E+03 -9.58002E+02  3.03193E+03  9.73616E+02  1.70540E+03  1.99142E+03 -4.34208E+02  1.81578E+03
 -2.63295E+03  3.61186E+02 -6.56679E+02 -1.00998E+03 -1.78478E+03 -2.83295E+03  1.36483E+03 -1.50517E+03
  1.24886E+03 -1.63882E+03  7.11012E+01  1.51023E+03  7.83212E+02  1.23506E+03 -2.46012E+02  1.43875E+03
 -6.44971E+02  1.48340E+03 -4.28997E+02  9.23920E+02 -3.26720E+02 -4.03582E+02 -4.19621E+02  6.62944E+02
 -7.28671E+02  1.24781E+03 -1.90561E+03  8.88955E+02 -2.24410E+03 -6.76618E+02 -2.06308E+03 -1.95566E+03
 -2.40737E+03 -3.19935E+03  6.22470E+02 -3.95301E+03  1.06707E+03 -3.03449E+03  3.86754E+03 -1.64791E+03
  3.47340E+03  2.08424E+02  3.16182E+02  2.77930E+03 -7.85947E+01  1.82920E+03 -1.39034E+03  2.20643E+03
 -1.08168E+03  1.19315E+03 -7.86632E+02 -3.02554E+02 -3.38811E+02 -8.21771E+02 -7.95324E+02 -5.28167E+02
 -7.06292E+02  1.17657E+02 -1.38245E+03 -5.62160E+01  7.64060E+02 -4.37119E+02 -2.08957E+03 -1.81860E+03
  9.68129E+02  1.09354E+01 -1.25143E+02  8.28053E+02  1.14171E+03  1.06263E+03 -1.40584E+01  2.08970E+03
  3.70240E+02  2.84922E+03 -2.58644E+03  2.93703E+02 -2.81692E+03 -1.82094E+01 -8.07238E+02 -1.16033E+03
 -3.97812E+02 -1.16340E+03  9.97342E+02 -1.72041E+03  4.07968E+02 -1.01793E+02  2.26006E+02  7.33100E+02
  4.83541E+02  3.42736E+01  5.59901E+02  8.58540E+02  5.52154E+02 -6.75450E+02  1.14688E+03  4.42903E+02
  7.22698E+02  4.04579E+02  6.48784E+02  2.92805E+02  6.75154E+02  3.19298E+02 -1.93746E+02  4.10366E+02
 -1.15533E+03  2.08860E+03 -1.01898E+03 -3.63322E+02 -3.45049E+02 -4.99810E+01  3.49387E+02 -1.21818E+03
  1.14530E+03 -1.04871E+02  1.46753E+03 -7.89359E+02  2.58544E+03 -2.83148E+01  8.01290E+02  2.25584E+03
  1.06208E+03 -2.85916E+02 -4.70821E+02  3.46729E+02 -9.85982E+02  7.13841E+02 -5.24290E+02  8.16665E+02
 -1.34835E+03 -1.39452E+03 -9.91569E+01  6.19813E+02 -2.23306E+02 -5.94645E+02 -8.88752E+02  3.28577E+02
 -1.35911E+03  1.58829E+02 -3.18268E+01 -1.16068E+03  9.85021E+02 -2.43632E+03  1.53566E+03 -1.05032E+02
  9.91574E+02 -5.33857E+02 -9.10443E+02  8.71422E+02 -5.61774E+02  1.71565E+03 -1.15423E+03  1.36768E+02
