 $NMID ID='MM_0lb_SNR200_14hz_g50_48.RAW', FMTDAT='(8E13.5)'
 TRAMP=1., VOLUME=1. $END
  3.10062E+05 -1.64886E+02  3.37691E+05  2.51949E+05  8.42075E+04  3.38413E+05 -1.32267E+05  2.51808E+05
 -1.90881E+05  8.33032E+04 -1.11111E+05 -3.33743E+04  8.03351E+02 -4.96706E+04  5.41607E+04 -6.74724E+02
  3.67071E+04  5.33274E+04 -1.60257E+04  7.62430E+04 -5.96554E+04  6.39158E+04 -8.56369E+04  3.17143E+04
 -8.13787E+04 -9.59877E+03 -5.73273E+04 -5.18152E+04 -1.42532E+04 -6.94961E+04  2.61827E+04 -4.65108E+04
  4.00151E+04  4.02097E+03  1.65757E+04  4.81672E+04 -3.39082E+04  4.80208E+04 -6.56578E+04 -3.18049E+02
 -5.32050E+04 -5.67006E+04 -6.63492E+03 -7.66947E+04  3.39188E+04 -5.50572E+04  4.85515E+04 -1.75113E+04
  4.23426E+04  1.17900E+04  3.26942E+04  2.68295E+04  1.50393E+04  2.92107E+04 -4.57675E+03  2.59471E+04
 -2.26143E+04  1.28438E+04 -1.86622E+04 -4.90546E+03  5.12564E+03 -7.92777E+03  2.23389E+04  1.28059E+04
  6.54682E+03  3.50685E+04 -3.27158E+04  3.53472E+04 -6.28830E+04  2.78489E+03 -5.70899E+04 -4.37973E+04
 -1.25319E+04 -6.22824E+04  4.04827E+04 -4.55587E+04  5.91748E+04 -1.64780E+03  3.31041E+04  3.26591E+04
 -6.92335E+03  3.64663E+04 -3.06295E+04  1.65277E+04 -3.01529E+04 -4.89935E+03 -1.79238E+04 -1.12572E+04
 -7.76215E+03 -1.32257E+04 -1.60846E+03 -1.89129E+04  8.06201E+03 -2.33996E+04  1.38391E+04 -1.27694E+04
  1.08399E+04  5.51436E+03 -7.97045E+03  1.28849E+04 -1.95174E+04 -4.32351E+03 -8.22039E+03 -3.43112E+04
  2.40904E+04 -4.42030E+04  4.79529E+04 -2.05779E+04  4.53818E+04  2.06043E+04  1.49220E+04  4.44256E+04
 -1.67667E+04  3.24896E+04 -2.49169E+04  1.59554E+03 -8.59872E+03 -2.83222E+04  2.13066E+04 -3.46144E+04
  4.20628E+04 -9.29858E+03  3.55558E+04  2.40983E+04  1.82625E+04  4.62304E+04 -8.73172E+03  4.94328E+04
 -3.19253E+04  3.35387E+04 -4.08166E+04  8.66500E+03 -4.29146E+04 -1.62103E+04 -2.35056E+04 -3.83431E+04
  6.88736E+03 -3.79745E+04  3.16036E+04 -1.34079E+04  2.91184E+04  1.17996E+04  4.25424E+03  1.96497E+04
 -1.20541E+04  7.37917E+03 -1.08071E+04 -7.91258E+03  5.78473E+03 -1.08939E+04  1.69560E+04  6.41147E+03
  1.39233E+04  2.24915E+04 -5.32755E+03  2.42855E+04 -2.31458E+04  1.18573E+04 -2.84946E+04 -5.68647E+03
 -2.17596E+04 -1.71309E+04 -9.22516E+03 -2.01471E+04  3.34038E+03 -1.99171E+04  1.59716E+04 -1.89430E+04
  2.64562E+04 -1.24143E+04  3.29452E+04  3.23597E+03  2.47980E+04  1.96083E+04  3.09173E+03  3.67755E+04
 -1.68569E+04  3.13029E+04 -2.84636E+04  1.09773E+04 -1.98799E+04 -1.08305E+04 -3.74437E+03 -1.44006E+04
  1.83141E+03 -2.52232E+03 -5.34144E+03  8.17311E+03 -1.57914E+04  5.28549E+03 -1.59738E+04 -6.60447E+03
 -1.11457E+04 -1.94747E+04  5.40231E+03 -2.31357E+04  1.56270E+04 -1.75526E+04  1.77154E+04 -7.90165E+02
  1.22296E+04  1.20027E+04 -1.66736E+03  1.91165E+04 -1.35786E+04  1.16046E+04 -1.93782E+04 -4.86749E+03
 -1.45026E+04 -1.56497E+04 -1.65966E+03 -2.30470E+04  1.09111E+04 -1.84061E+04  1.84614E+04 -9.48049E+03
  1.72707E+04 -7.19960E+02  1.28028E+04  4.72624E+03  6.36902E+03  2.09089E+03  1.00747E+04 -2.54242E+03
  1.71407E+04  2.60419E+03  1.96796E+04  1.40764E+04  1.21122E+04  3.05312E+04 -3.91253E+03  3.38563E+04
 -2.00627E+04  2.75071E+04 -3.19018E+04  1.40679E+04 -3.18661E+04 -2.51902E+03 -2.80553E+04 -2.00667E+04
 -1.29767E+04 -2.85872E+04  1.06895E+04 -2.50263E+04  2.20694E+04 -1.38356E+04  1.85402E+04  5.42152E+03
  7.30159E+03  1.64876E+04 -9.51690E+03  1.29030E+04 -1.69622E+04  3.70548E+03 -1.26799E+04 -1.06955E+04
 -6.59346E+02 -1.50260E+04  7.83899E+03 -1.09540E+04  1.03280E+04 -2.38300E+03  1.86489E+03  6.33365E+03
 -6.86477E+03  2.52517E+03 -6.70734E+03 -6.92812E+03 -4.16176E+02 -1.35090E+04  1.09456E+04 -1.53133E+04
  1.66135E+04 -6.65512E+03  1.79539E+04  2.85512E+03  1.60476E+04  1.26536E+04  7.28876E+03  1.99941E+04
 -2.62348E+03  2.39929E+04 -1.46540E+04  1.56679E+04 -1.72382E+04  3.78802E+03 -1.11592E+04 -4.26909E+03
 -6.11120E+03 -5.38995E+03 -6.06774E+02 -1.89069E+02 -1.77692E+03  3.27821E+03 -4.78799E+03  3.13236E+03
 -1.12295E+04 -6.09119E+02 -1.19137E+04 -8.53512E+03 -4.22595E+03 -1.45303E+04  5.69502E+03 -1.12502E+04
  9.45262E+03 -4.58622E+03  7.28648E+03  2.39520E+03 -1.09666E+03  3.76124E+03 -5.43696E+03  8.12234E+01
 -5.41572E+03 -6.66871E+03 -1.04139E+03 -1.09041E+04  5.43268E+03 -1.02297E+04  1.35251E+04 -5.89709E+03
  1.56735E+04 -2.63125E+02  1.14750E+04  9.40856E+03  1.38647E+03  1.17954E+04 -5.97201E+03  1.06579E+04
 -9.58101E+03  4.06863E+03 -5.43634E+03 -2.52282E+03  1.29678E+03 -2.37442E+03  6.70847E+03  2.76571E+01
  3.88660E+03  5.45001E+03  8.41490E+02  8.10267E+03 -6.28388E+03  7.86282E+03 -1.02260E+04  2.52905E+03
 -6.61832E+03 -5.18786E+03  7.15475E+02 -1.04585E+04  5.27967E+03 -4.46525E+03  6.81044E+03  1.68426E+03
  1.48808E+03  6.39627E+03 -4.88612E+03  7.19360E+03 -8.03692E+03  3.46188E+03 -7.76568E+03 -3.19783E+03
 -6.05487E+03 -9.14182E+03  2.57078E+03 -1.23649E+04  1.01626E+04 -6.26510E+03  1.11713E+04  2.77611E+03
  5.95237E+03  9.21026E+03 -5.74946E+02  1.04578E+04 -8.83347E+03  5.88224E+03 -8.34099E+03 -5.52412E+02
 -7.54353E+03 -8.06318E+03 -1.56867E+03 -8.18780E+03  4.21994E+03 -5.61675E+03  4.69149E+03 -3.03347E+03
  3.09176E+03  7.47203E+02  6.09596E+01  2.66590E+03  5.27574E+02 -2.31507E+03  1.46361E+03 -3.74411E+03
  5.76408E+03 -3.80775E+03  9.64081E+03  1.58748E+03  8.71536E+03  5.16781E+03  6.51389E+03  1.24205E+04
 -2.62365E+03  1.48959E+04 -1.17258E+04  1.00714E+04 -1.50184E+04  1.95703E+03 -1.24471E+04 -3.46799E+03
 -7.72754E+03 -1.06100E+04  2.16405E+02 -8.69185E+03  2.37807E+03 -3.22320E+03  3.70327E+03 -2.35003E+03
  2.05427E+03 -2.98447E+03  2.79853E+03 -3.60630E+03  4.72576E+03 -1.91233E+03  6.03314E+03 -2.52061E+01
  6.68605E+03  1.82089E+03  3.08796E+03  5.45528E+03 -2.15226E+03  6.76440E+03 -8.09322E+03  4.66842E+03
 -9.00893E+03 -2.13004E+02 -6.14747E+03 -5.43468E+03  1.46634E+03 -9.87258E+03  5.60955E+03 -1.00763E+04
  8.41772E+03 -6.06625E+03  1.09664E+04  1.45127E+02  8.39012E+03  8.10003E+03  6.35440E+02  1.01128E+04
 -4.83848E+03  8.94108E+03 -5.36370E+03  3.39963E+03 -4.52667E+03 -4.56140E+02 -9.13336E+02 -2.22966E+03
 -1.10914E+03  9.42432E+02 -1.42224E+03  1.79481E+03 -4.83748E+03  1.79915E+03 -4.69882E+03 -1.11994E+03
 -3.57098E+03 -6.89781E+03  6.43116E+02 -7.25939E+03  6.29663E+03 -7.24559E+03  8.64544E+03 -1.68889E+03
  8.05418E+03  3.31189E+03  4.55687E+03  7.26213E+03 -3.01206E+03  7.89736E+03 -6.14050E+03  3.63113E+03
 -6.92777E+03 -6.86057E+02 -5.99481E+03 -3.88252E+03 -1.15173E+03 -6.72165E+03  1.99922E+03 -4.71265E+03
  4.79669E+03 -2.36919E+03  2.76269E+03  1.51675E+03  1.51730E+03  3.21173E+03  2.78058E+02  5.31566E+02
  2.69708E+03 -6.77848E+02  1.28451E+03  2.01865E+03  2.66280E+03  3.35172E+03  7.74923E+01  2.84091E+03
 -2.17985E+03  6.09815E+03 -3.60609E+03  5.49531E+03 -6.65970E+03  1.49589E+03 -7.73515E+03 -3.13567E+03
 -2.78300E+03 -7.40850E+03  1.26676E+03 -8.66655E+03  4.74449E+03 -5.10166E+03  6.29065E+03 -2.09464E+03
  5.50786E+03  3.12670E+03  1.34543E+03  4.14747E+03 -2.13444E+03  2.88936E+03 -2.03684E+03 -7.47833E+02
 -1.91968E+03 -3.84075E+03  1.91626E+03 -3.63039E+03  2.50809E+03 -2.44474E+03  2.81603E+03  8.46736E+02
  2.26985E+03  1.11412E+03  6.37744E+02 -3.51793E+01 -1.45825E+02  1.42367E+03  9.95237E+02 -3.40975E+02
  1.46819E+03 -7.39742E+02  4.23370E+03  1.82036E+03  6.12219E+02  4.60392E+03  2.49680E+01  5.42088E+03
 -2.69371E+03  3.23096E+03 -3.49108E+03  9.47572E+02 -4.70479E+03 -6.76890E+02 -1.91319E+03 -3.12813E+03
 -7.52362E+01 -2.87787E+03  2.52030E+03 -2.08044E+03  1.82348E+03  7.05164E+02 -1.51857E+03  3.16599E+03
 -4.15574E+03  9.93826E+02 -2.37966E+03 -2.26758E+03 -1.06230E+03 -4.19162E+03 -4.01110E+02 -3.93330E+03
  3.50604E+03 -2.08545E+03  1.70049E+03 -1.77336E+03  1.87861E+03  5.09801E+02  4.45231E+02  1.14485E+03
 -1.47853E+03  1.63230E+03 -2.43728E+03 -6.15490E+02  5.79639E+02 -3.17923E+03  4.19739E+03 -2.76470E+03
  4.36598E+03 -2.85561E+02  4.81446E+03  2.15794E+03  2.07713E+03  3.68455E+03 -1.33410E+03  1.95380E+03
 -2.81387E+03  7.02731E+02 -4.57448E+03 -1.16580E+03 -1.44459E+03 -3.37275E+03  7.41533E+02 -2.26028E+03
  2.70136E+03 -8.12056E+02  2.53825E+03 -2.14453E+02  5.32041E+02  3.29990E+03  6.20827E+02  3.06560E+03
 -6.06393E+02  1.41622E+03 -5.10206E+02  1.08210E+03 -1.83333E+02  6.43924E+02 -2.20673E+03  8.37006E+02
 -1.74792E+03  2.52934E+03 -2.86154E+03  1.74016E+03 -3.05073E+03  3.26300E+02 -4.75776E+03 -2.26137E+03
 -2.17705E+03 -6.50580E+03  3.62255E+02 -6.71051E+03  5.07390E+03 -4.71016E+03  6.90085E+03 -2.78686E+03
  4.40174E+03  1.76736E+03  3.29335E+03  4.22320E+03  9.54893E+02  4.87425E+03 -1.81544E+03  2.75741E+03
 -2.11703E+03  1.73861E+03 -1.36679E+03 -3.34267E+02 -9.04608E+02  1.39789E+02  6.16478E+02 -1.20162E+03
 -1.54299E+03  2.78730E+02 -1.44700E+03 -5.75648E+02  2.70743E+02 -1.14349E+03 -7.26109E+02 -1.17034E+03
  1.20341E+03 -1.81449E+03  2.92081E+03  5.68673E+02  3.51180E+03  1.76064E+03  7.65475E+02  3.06707E+03
 -2.60636E+03  4.54705E+03 -3.14979E+03  2.22135E+03 -4.12218E+03  6.75481E+02 -2.79195E+03 -2.95356E+03
 -2.62095E+03 -3.92333E+03  1.53430E+03 -2.15630E+03  1.86960E+03 -2.15353E+03  1.59525E+03  1.86082E+02
  1.94352E+03  1.83568E+03  5.36862E+02  4.51616E+02  2.47516E+02  1.14711E+03  4.34353E+02 -1.18513E+03
  1.20656E+03 -4.53681E+01  1.12432E+03  4.74241E+02  6.67273E+02  1.21070E+03  4.74885E+02  1.77802E+03
 -1.78376E+03  1.18266E+03 -2.55694E+03  2.11635E+03 -2.46357E+03 -1.22091E+03 -1.91267E+01 -3.79186E+03
  1.73206E+03 -3.06341E+03  1.91657E+03 -1.70385E+03  2.55914E+03  1.78742E+02  1.92029E+03  4.93857E+02
  1.05499E+02  2.38942E+03 -1.45452E+03  1.44847E+03 -2.99433E+03  8.95692E+02 -8.28134E+02  2.16432E+03
 -6.91550E+02 -1.31856E+03 -1.18710E+03  1.32444E+02 -1.68097E+03  1.46447E+02 -2.28326E+03 -3.51794E+02
 -1.76579E+03 -5.49834E+02 -1.16028E+03 -1.92863E+03  1.73388E+03 -2.60067E+03  2.73114E+03 -1.85906E+03
  1.74697E+03 -2.39875E+02  1.17170E+03  1.12858E+03  2.26364E+02  2.02094E+03 -9.02104E+02  1.48715E+03
