 $NMID ID='MM_0lb_SNR200_15hz_g55_10.RAW', FMTDAT='(8E13.5)'
 TRAMP=1., VOLUME=1. $END
  3.11336E+05  3.88811E+02  3.37922E+05  2.50580E+05  8.48545E+04  3.38302E+05 -1.33247E+05  2.50397E+05
 -1.90400E+05  8.33481E+04 -1.11817E+05 -3.27378E+04  9.94455E+02 -5.13122E+04  5.33123E+04 -8.46431E+02
  3.39934E+04  5.32437E+04 -1.75762E+04  7.50456E+04 -6.18279E+04  6.36689E+04 -8.45993E+04  3.27724E+04
 -8.10396E+04 -1.07756E+04 -5.71485E+04 -5.12329E+04 -1.40572E+04 -6.99620E+04  2.72912E+04 -4.58878E+04
  3.92572E+04  4.57837E+03  1.67327E+04  4.74650E+04 -3.44769E+04  4.61764E+04 -6.76157E+04 -2.96332E+01
 -5.31195E+04 -5.53491E+04 -5.88107E+03 -7.65617E+04  3.35474E+04 -5.49859E+04  4.88785E+04 -1.81478E+04
  4.32784E+04  9.64561E+03  3.18081E+04  2.60819E+04  1.57164E+04  2.97961E+04 -4.64776E+03  2.66745E+04
 -2.10977E+04  1.32202E+04 -1.66728E+04 -5.97225E+03  6.40637E+03 -7.20428E+03  2.20929E+04  1.27074E+04
  7.28939E+03  3.63759E+04 -3.22768E+04  3.50596E+04 -6.33042E+04  2.55471E+03 -5.72179E+04 -4.30658E+04
 -1.17992E+04 -6.28788E+04  4.05537E+04 -4.58908E+04  5.81941E+04 -2.18807E+03  3.48445E+04  3.24207E+04
 -5.76133E+03  3.59595E+04 -2.92143E+04  1.59010E+04 -3.11080E+04 -4.78892E+03 -1.62578E+04 -9.58264E+03
 -6.95284E+03 -1.20858E+04 -8.86052E+02 -1.85738E+04  8.81299E+03 -2.19176E+04  1.58317E+04 -1.28451E+04
  1.05608E+04  5.48398E+03 -8.89773E+03  1.26774E+04 -2.16503E+04 -3.90806E+03 -8.41901E+03 -3.42549E+04
  2.23474E+04 -4.34291E+04  4.75761E+04 -1.90662E+04  4.40756E+04  2.05487E+04  1.65050E+04  4.40482E+04
 -1.60892E+04  3.29780E+04 -2.58864E+04  7.25552E+02 -1.02909E+04 -2.75212E+04  2.22268E+04 -3.40288E+04
  4.11370E+04 -7.86068E+03  3.63318E+04  2.30534E+04  1.72387E+04  4.87645E+04 -8.03675E+03  5.03710E+04
 -3.23953E+04  3.40660E+04 -4.24233E+04  9.89237E+03 -4.27440E+04 -1.67692E+04 -2.28290E+04 -3.72379E+04
  7.51036E+03 -3.77336E+04  3.10001E+04 -1.46663E+04  2.99822E+04  9.48655E+03  3.43294E+03  1.90877E+04
 -1.49082E+04  8.97589E+03 -9.91921E+03 -6.99295E+03  5.30093E+03 -1.06033E+04  1.79449E+04  5.33268E+03
  1.37408E+04  2.21236E+04 -5.95144E+03  2.47147E+04 -2.24032E+04  1.10084E+04 -2.81299E+04 -4.52076E+03
 -2.10000E+04 -1.67856E+04 -6.90365E+03 -2.06232E+04  3.70945E+03 -1.95116E+04  1.58039E+04 -1.79372E+04
  2.67508E+04 -1.25209E+04  3.34944E+04  2.21019E+03  2.44144E+04  1.94720E+04  4.92084E+03  3.49667E+04
 -1.67111E+04  2.97729E+04 -2.79960E+04  1.09836E+04 -2.16658E+04 -1.09743E+04 -5.60125E+03 -1.45884E+04
  2.79836E+03 -2.65771E+03 -4.51337E+03  6.34266E+03 -1.59805E+04  4.10439E+03 -1.64491E+04 -7.46067E+03
 -1.01541E+04 -1.82695E+04  5.18446E+03 -2.48552E+04  1.58933E+04 -1.59704E+04  1.75628E+04 -2.15555E+03
  1.14638E+04  1.39738E+04 -1.51297E+03  1.85415E+04 -1.36263E+04  1.13204E+04 -1.91970E+04 -4.73846E+03
 -1.38078E+04 -1.79711E+04 -2.34904E+03 -2.21263E+04  1.00168E+04 -1.85479E+04  1.92813E+04 -8.79829E+03
  1.76495E+04 -9.02781E+01  1.23315E+04  4.08538E+03  5.84100E+03  1.18063E+03  1.04543E+04 -2.09355E+03
  1.82822E+04  2.97808E+03  1.99977E+04  1.65222E+04  1.33364E+04  3.03613E+04 -6.83916E+02  3.46330E+04
 -1.97426E+04  2.73461E+04 -3.22696E+04  1.39028E+04 -3.26544E+04 -1.90055E+03 -2.63305E+04 -1.91306E+04
 -1.24457E+04 -2.66216E+04  9.53111E+03 -2.33739E+04  2.05058E+04 -1.16026E+04  1.81401E+04  4.69372E+03
  6.65030E+03  1.39881E+04 -9.25100E+03  1.27751E+04 -1.52105E+04  1.39829E+03 -1.25840E+04 -9.89917E+03
  9.56426E+01 -1.51993E+04  7.59998E+03 -1.13185E+04  9.72685E+03 -9.23332E+02  2.61886E+03  5.83279E+03
 -6.97006E+03  8.62700E+02 -6.69292E+03 -5.20016E+03 -1.82649E+03 -1.22494E+04  9.83551E+03 -1.41271E+04
  1.60078E+04 -6.43309E+03  1.67112E+04  3.92215E+03  1.55908E+04  1.21937E+04  7.11116E+03  1.96330E+04
 -4.50463E+03  2.12017E+04 -1.44782E+04  1.41616E+04 -1.52871E+04  2.97513E+03 -1.07354E+04 -2.64678E+03
 -5.21079E+03 -5.64415E+03 -2.97076E+02  1.03464E+03 -1.42961E+03  3.00713E+03 -5.19900E+03  4.31882E+03
 -9.72244E+03 -1.23406E+03 -9.95945E+03 -1.00514E+04 -4.07572E+03 -1.46901E+04  4.42912E+03 -1.17069E+04
  1.01099E+04 -4.66715E+03  6.66005E+03  3.16840E+03  1.20485E+03  4.73056E+03 -4.98353E+03 -1.02331E+03
 -3.86937E+03 -6.59268E+03 -3.82495E+02 -1.04769E+04  5.38383E+03 -1.12013E+04  1.14951E+04 -6.85708E+03
  1.59878E+04  1.49125E+03  1.20167E+04  7.75751E+03  1.86118E+03  1.23721E+04 -5.74008E+03  1.08991E+04
 -8.86472E+03  4.59935E+03 -4.36817E+03 -1.39732E+03  4.87067E+02 -3.19524E+03  6.32970E+03 -7.55993E+02
  6.11553E+03  4.75761E+03  7.21882E+02  7.42250E+03 -7.24214E+03  8.08806E+03 -1.02983E+04  1.89624E+03
 -5.62039E+03 -5.68627E+03  1.39407E+03 -9.06409E+03  6.35125E+03 -4.37631E+03  6.22986E+03  3.05369E+03
  8.27958E+02  5.86281E+03 -5.41847E+03  8.06356E+03 -8.19744E+03  4.16430E+03 -7.51666E+03 -2.50535E+03
 -4.92656E+03 -1.04143E+04  3.09355E+03 -9.65606E+03  9.63266E+03 -7.64224E+03  9.20333E+03  2.38914E+03
  7.02761E+03  7.67413E+03  6.20465E+02  9.65497E+03 -6.86520E+03  5.77144E+03 -8.56357E+03  1.02644E+02
 -7.77811E+03 -7.81101E+03 -9.65268E+02 -8.16007E+03  2.80010E+03 -5.43802E+03  5.07226E+03 -2.03189E+03
  3.07454E+03  5.99318E+02 -7.30551E+01  9.33491E+01  2.18919E+02 -1.42733E+03  8.38098E+02 -3.30808E+03
  6.83440E+03 -2.79143E+03  9.19616E+03  7.82484E+02  7.96307E+03  5.45933E+03  6.64942E+03  1.19208E+04
 -2.43465E+03  1.27104E+04 -1.08873E+04  9.96477E+03 -1.50205E+04  3.25634E+03 -1.22319E+04 -5.22944E+03
 -7.06931E+03 -1.14212E+04  1.15076E+03 -8.23768E+03  2.35398E+03 -4.13785E+03  4.01123E+03 -2.52305E+03
  2.31183E+03 -2.03756E+03  2.44453E+03 -3.00453E+03  5.11904E+03 -1.44562E+03  5.58363E+03 -8.90858E+02
  6.29741E+03  5.73059E+02  2.86726E+03  5.31917E+03 -2.02777E+03  6.46223E+03 -6.33324E+03  4.41639E+03
 -7.32426E+03  8.04179E+01 -4.36507E+03 -5.86111E+03  1.47029E+03 -9.32187E+03  4.38447E+03 -8.83997E+03
  9.51835E+03 -4.86089E+03  1.16264E+04  1.04990E+03  7.04353E+03  7.83229E+03  5.79150E+02  9.22273E+03
 -5.47920E+03  8.04864E+03 -4.55128E+03  3.06552E+03 -2.48910E+03 -6.18217E+02 -5.29814E+02 -4.71465E+02
 -9.63875E+02  7.04881E+02 -1.93447E+03  1.31097E+03 -4.06079E+03  2.09321E+03 -5.19752E+03 -5.65700E+02
 -2.58306E+03 -6.03732E+03 -3.25762E+02 -7.31423E+03  4.84572E+03 -8.28947E+03  6.68500E+03 -2.07905E+03
  7.47228E+03  4.18015E+03  3.08018E+03  5.15537E+03 -1.23559E+03  6.25556E+03 -4.96528E+03  5.25932E+03
 -6.51796E+03  3.97313E+01 -5.85448E+03 -4.77826E+03  6.10768E+02 -5.79599E+03  2.56314E+03 -4.42801E+03
  5.28641E+03 -2.14929E+03  3.51357E+03  3.85365E+02  4.30940E+02  3.36215E+03  1.85591E+03 -6.40751E+01
  2.89138E+03  7.13886E+02  1.20044E+03  9.96988E+02  2.05055E+03  3.69202E+03  2.66075E+03  5.24751E+03
 -1.85203E+03  4.83462E+03 -4.87743E+03  5.58746E+03 -6.03584E+03  9.66724E+02 -7.71697E+03 -3.27827E+03
 -3.33033E+03 -8.23904E+03  6.21872E+02 -8.11614E+03  3.70107E+03 -3.89668E+03  4.55885E+03  3.46959E+02
  4.78090E+03  2.50941E+03  7.78792E+02  2.94777E+03 -2.05038E+03  1.75328E+03 -2.36510E+03 -8.85218E+02
 -1.12603E+03 -3.09349E+03  1.47064E+03 -2.60565E+03  3.24711E+03 -1.17552E+03  2.10074E+03 -4.30891E+02
  8.77206E+02  1.74551E+03  9.90883E+02 -2.15446E+02 -1.47066E+03  1.32044E+03  1.30284E+03 -8.19259E+02
  1.89855E+03  2.58531E+02  3.60120E+03  2.75382E+02  1.81463E+03  3.16180E+03  1.31867E+02  4.72159E+03
 -3.82954E+03  2.88253E+03 -4.14382E+03 -1.26271E+03 -3.22387E+03 -1.60994E+03 -5.31901E+02 -1.00570E+03
 -9.75853E+01 -7.83123E+02  1.86528E+02 -9.07524E+02  1.17123E+03  1.41673E+03 -1.61926E+03  3.72534E+03
 -4.05501E+03  1.51124E+03 -2.43104E+03 -5.37668E+02 -2.23072E+03 -3.87295E+03 -3.59637E+02 -4.19276E+03
  1.51091E+03 -1.92043E+03  2.70753E+03 -3.53862E+02  1.61570E+03  1.46953E+02  3.21935E+02  1.61746E+03
 -1.68854E+03  1.51747E+02 -1.28658E+03 -7.48810E+02  6.06893E+02 -2.25375E+03  3.55037E+03 -2.48605E+03
  2.93644E+03  5.54567E+02  4.00783E+03  2.65827E+03  1.39030E+03  2.80155E+03 -1.74424E+03  3.13613E+03
 -2.58491E+03  5.43306E+02 -3.81204E+03 -7.99590E+02 -1.29135E+03 -3.09710E+03 -2.17667E+02 -2.36049E+03
  1.79679E+03 -1.20876E+03  2.32544E+03  1.38688E+03  1.16315E+03  2.23071E+03  2.32915E+02  2.31599E+03
 -1.01918E+03  1.49535E+03 -1.43467E+03  3.93657E+02 -5.18736E+02  6.68894E+02  2.56343E+02  5.16755E+02
 -1.77129E+03  6.53643E+02 -3.40076E+03  9.41237E+02 -4.50253E+03  4.37061E+02 -4.43852E+03 -2.23312E+03
 -1.11848E+03 -4.96656E+03  1.95157E+02 -5.62240E+03  2.62146E+03 -5.82471E+03  4.12086E+03 -2.65858E+03
  3.97402E+03  6.56783E+02  2.21643E+03  2.58027E+03  5.08161E+02  2.55159E+03 -1.09384E+03  2.65613E+03
 -6.52292E+02  6.08274E+02 -3.46510E+02 -6.17417E+02 -2.45674E+01 -1.56167E+03  5.04341E+02  3.81830E+02
 -1.94444E+03 -5.71379E+02 -1.76339E+03 -1.16712E+03  3.60236E+02 -5.82593E+02  4.18064E+02 -1.51381E+03
  5.52857E+02  1.78326E+02  7.99157E+02  6.54442E+02  2.40911E+03  2.50621E+03  1.10048E+02  3.16635E+03
 -1.09072E+03  3.27720E+03 -4.20538E+03  1.42504E+03 -4.23519E+03 -4.04985E+02 -2.96924E+03 -3.38726E+03
 -1.63538E+03 -3.24341E+03  1.51771E+03 -2.19194E+03  1.71569E+03 -4.28917E+02  1.71153E+03  9.71573E+02
  5.22027E+02  1.08467E+03  1.16667E+02  1.79748E+03 -9.05573E+02 -4.35291E+01 -1.88383E+02 -1.70987E+03
  5.27891E+02 -8.09162E+02 -1.96337E+01 -4.18811E+02 -3.33606E+01  1.22160E+03  5.91706E+02  6.82865E+02
 -1.52194E+03  1.69460E+03 -9.05192E+02 -2.52945E+02 -1.54896E+03 -1.87625E+03 -1.23031E+03 -2.71976E+03
  1.27748E+03 -1.41888E+03  1.88320E+03 -6.73650E+02  2.17455E+03 -1.15433E+03  1.05528E+03  1.98861E+03
  1.54519E+03  1.68113E+03 -6.94297E+02  1.31362E+03 -1.90282E+03  2.07861E+03 -2.20059E+03  1.16063E+03
  2.55653E+02  9.58399E+02 -5.65778E+02  2.80493E+02 -1.00677E+03  4.09050E+02 -2.07538E+03  3.67537E+02
 -1.94589E+03 -5.74585E+02 -5.24297E+02 -2.59703E+03  1.17844E+03 -2.02236E+03  1.79250E+03 -1.69943E+03
  9.01838E+02 -4.56535E+02 -9.39679E+02  2.00953E+03 -2.45532E+02  1.48417E+03 -1.87868E+03  6.52448E+02
