 $NMID ID='MM_0lb_SNR200_7hz_g55_58.RAW', FMTDAT='(8E13.5)'
 TRAMP=1., VOLUME=1. $END
  3.09801E+05  7.09818E+02  3.36892E+05  2.49968E+05  8.66204E+04  3.38835E+05 -1.32857E+05  2.51631E+05
 -1.91461E+05  8.56628E+04 -1.14173E+05 -3.26152E+04  6.94617E+01 -5.22560E+04  5.18530E+04 -1.02675E+02
  3.62800E+04  5.10104E+04 -1.55923E+04  7.69286E+04 -6.12150E+04  6.40685E+04 -8.57010E+04  3.16579E+04
 -8.46251E+04 -1.30229E+04 -5.93103E+04 -5.31528E+04 -1.62268E+04 -7.17773E+04  2.79417E+04 -4.61944E+04
  4.03547E+04  3.18589E+03  1.71080E+04  5.00945E+04 -3.68225E+04  4.97509E+04 -6.81445E+04 -7.69792E+02
 -5.58022E+04 -5.76346E+04 -6.71315E+03 -8.07825E+04  3.57277E+04 -5.77355E+04  4.94449E+04 -1.92147E+04
  4.48449E+04  1.32930E+04  3.41110E+04  2.69712E+04  1.55919E+04  3.18756E+04 -4.24903E+03  2.94110E+04
 -2.34578E+04  1.27876E+04 -1.75203E+04 -5.40042E+03  7.27610E+03 -8.33702E+03  2.38978E+04  1.52084E+04
  6.95867E+03  3.94906E+04 -3.67142E+04  3.71236E+04 -6.64683E+04  1.87441E+03 -6.02215E+04 -4.45411E+04
 -1.45455E+04 -6.74101E+04  4.14542E+04 -4.77702E+04  6.34464E+04 -3.14632E+03  3.72823E+04  3.70087E+04
 -5.18020E+03  4.13122E+04 -3.19297E+04  1.79560E+04 -3.43669E+04 -4.76581E+03 -1.96417E+04 -1.22936E+04
 -1.16632E+04 -1.57580E+04 -5.34354E+02 -2.14362E+04  9.35730E+03 -2.37829E+04  1.57312E+04 -1.36151E+04
  9.89898E+03  7.38004E+03 -1.31448E+04  1.24374E+04 -2.44108E+04 -8.52518E+03 -7.94916E+03 -3.82109E+04
  2.57456E+04 -4.90240E+04  5.35453E+04 -2.09448E+04  5.25264E+04  2.06043E+04  1.93301E+04  5.00807E+04
 -1.70069E+04  3.61554E+04 -2.82986E+04  4.16118E+03 -1.25962E+04 -3.13469E+04  2.20474E+04 -3.64584E+04
  4.72547E+04 -1.22928E+04  4.34509E+04  2.46466E+04  2.14351E+04  5.21435E+04 -9.54603E+03  5.97272E+04
 -3.69822E+04  4.03907E+04 -5.08515E+04  1.27068E+04 -5.22916E+04 -1.94744E+04 -2.61049E+04 -4.34353E+04
  8.65711E+03 -4.30433E+04  3.59232E+04 -1.88928E+04  3.42914E+04  9.09334E+03  7.05319E+03  2.28504E+04
 -1.41206E+04  1.00348E+04 -1.07907E+04 -7.12583E+03  5.92069E+03 -1.15232E+04  2.13817E+04  5.86631E+03
  1.50208E+04  2.40792E+04 -4.48385E+03  2.78561E+04 -2.59701E+04  1.43122E+04 -3.31081E+04 -2.51395E+03
 -2.82030E+04 -1.97393E+04 -1.16123E+04 -2.66388E+04  4.68005E+03 -2.99100E+04  2.30902E+04 -2.56021E+04
  3.54638E+04 -1.51884E+04  3.99349E+04  6.63220E+03  2.98445E+04  2.63541E+04  5.05827E+03  4.35788E+04
 -2.09258E+04  3.49995E+04 -3.30589E+04  1.04738E+04 -2.58300E+04 -8.76895E+03 -5.36909E+03 -1.38940E+04
  1.46972E+03 -1.48761E+03 -1.09136E+04  8.53173E+03 -2.42426E+04  5.77704E+03 -2.18567E+04 -8.61750E+03
 -1.24850E+04 -2.42417E+04  5.31956E+03 -2.95016E+04  2.04316E+04 -2.12215E+04  2.36638E+04  8.37755E+00
  1.61889E+04  1.75095E+04 -2.13737E+02  2.66797E+04 -1.85485E+04  1.49103E+04 -2.59138E+04 -6.27915E+03
 -1.81525E+04 -2.46638E+04 -3.38087E+03 -2.99185E+04  1.40231E+04 -2.70032E+04  2.41856E+04 -1.35183E+04
  2.36414E+04 -1.82486E+03  1.92205E+04  5.96384E+03  1.00084E+04  2.35312E+03  1.29586E+04 -1.32356E+03
  2.38009E+04  1.99842E+03  2.98556E+04  2.06954E+04  2.14661E+04  4.28245E+04 -2.34887E+03  4.85778E+04
 -2.66927E+04  4.23121E+04 -4.76656E+04  2.06271E+04 -5.14929E+04 -3.54839E+03 -4.11660E+04 -2.99354E+04
 -1.50085E+04 -4.17272E+04  1.59091E+04 -3.48136E+04  3.13783E+04 -1.67706E+04  2.67392E+04  9.14260E+03
  9.08651E+03  2.02742E+04 -1.23574E+04  1.79443E+04 -2.37247E+04  4.27938E+03 -1.77711E+04 -1.45560E+04
 -1.25540E+03 -2.10332E+04  1.08700E+04 -1.70196E+04  1.28429E+04 -1.33488E+03  5.26689E+03  9.80993E+03
 -1.07263E+04  6.32831E+03 -1.09327E+04 -8.91046E+03 -5.36427E+03 -2.27078E+04  1.36060E+04 -2.37005E+04
  2.60942E+04 -1.20426E+04  3.11200E+04  4.34203E+03  2.85347E+04  2.21357E+04  1.35976E+04  3.37119E+04
 -6.92623E+03  3.63551E+04 -2.51179E+04  2.15675E+04 -2.58571E+04  4.44436E+03 -1.77671E+04 -8.66267E+03
 -8.18008E+03 -7.01494E+03 -3.04770E+03  2.54694E+02 -3.78980E+03  3.76746E+03 -9.52295E+03  5.35330E+03
 -1.40895E+04 -9.72721E+02 -1.81947E+04 -1.30981E+04 -6.63230E+03 -2.08435E+04  7.97203E+03 -1.87608E+04
  1.28018E+04 -9.00914E+03  1.11653E+04  4.32723E+03  4.67513E+02  7.56306E+03 -1.00661E+04  5.47391E+02
 -9.16529E+03 -9.97743E+03 -1.30624E+03 -1.82170E+04  1.01011E+04 -1.92266E+04  2.39485E+04 -1.09061E+04
  2.85378E+04  2.97786E+03  2.12450E+04  1.62018E+04  3.48328E+03  2.23489E+04 -9.55758E+03  1.67146E+04
 -1.42795E+04  6.08151E+03 -9.07199E+03 -3.91146E+03  3.14173E+03 -5.41633E+03  8.21313E+03 -1.54424E+03
  8.17955E+03  7.22425E+03  1.51313E+03  1.55213E+04 -1.23089E+04  1.69003E+04 -1.89126E+04  1.05071E+03
 -1.37513E+04 -8.32607E+03 -1.80617E+03 -1.64404E+04  1.09193E+04 -8.09484E+03  1.05050E+04  4.90466E+03
  1.81249E+03  1.17314E+04 -1.03235E+04  1.47958E+04 -1.56256E+04  6.68517E+03 -1.76583E+04 -7.44666E+03
 -1.09135E+04 -1.82424E+04  4.79684E+03 -2.09163E+04  1.78392E+04 -1.12797E+04  2.04793E+04  4.67001E+03
  1.13899E+04  1.62522E+04 -2.99598E+03  1.93895E+04 -1.35026E+04  1.14334E+04 -1.61061E+04 -6.93314E+02
 -1.43493E+04 -1.53909E+04 -2.91534E+03 -1.64341E+04  7.21997E+03 -1.01197E+04  8.71189E+03 -3.56760E+03
  3.69343E+03  1.16147E+03 -3.79023E+03  2.42382E+03 -9.86289E+02 -5.25105E+03  2.71632E+03 -9.01231E+03
  1.37722E+04 -5.12809E+03  1.97285E+04  1.54601E+03  2.02078E+04  1.26771E+04  1.17734E+04  2.69174E+04
 -5.32315E+03  2.81528E+04 -2.28212E+04  2.32930E+04 -3.23426E+04  5.06468E+03 -2.69209E+04 -1.04024E+04
 -1.37053E+04 -2.15534E+04 -9.04674E+02 -1.77322E+04  6.86479E+03 -9.76426E+03  8.27974E+03 -6.47069E+03
  4.36365E+03 -5.59044E+03  3.18621E+03 -4.75669E+03  7.33087E+03 -5.30722E+03  1.15891E+04 -2.70020E+03
  1.08162E+04  2.74427E+03  7.44732E+03  1.16776E+04 -1.66748E+03  1.44372E+04 -1.46844E+04  1.24906E+04
 -1.82972E+04 -1.58648E+03 -1.28914E+04 -1.40854E+04 -2.48208E+03 -2.17963E+04  1.18211E+04 -2.05201E+04
  2.23511E+04 -9.56640E+03  2.42776E+04  4.64455E+03  1.81038E+04  1.71594E+04  3.69019E+03  2.11721E+04
 -9.06251E+03  1.80618E+04 -1.17473E+04  4.64757E+03 -9.00059E+03 -1.20757E+03 -6.33608E+03 -2.64622E+03
 -4.20888E+03  5.43628E+01 -2.32995E+03  2.84449E+03 -9.15507E+03  3.89698E+03 -1.47917E+04 -4.85037E+02
 -7.73544E+03 -1.22553E+04 -3.15928E+02 -1.87239E+04  1.12976E+04 -1.71783E+04  2.09559E+04 -5.80482E+03
  1.80412E+04  9.44803E+03  8.50155E+03  1.52923E+04 -4.44742E+03  1.86061E+04 -1.36271E+04  1.10099E+04
 -1.93084E+04  5.32047E+02 -1.26863E+04 -1.01652E+04 -2.87183E+03 -1.59913E+04  7.82515E+03 -1.23864E+04
  1.14344E+04 -3.59843E+03  9.53371E+03  4.51030E+03  7.79576E+02  3.15352E+03  1.69244E+03  3.11604E+03
  6.33388E+03  2.73015E+03  5.97532E+03  5.19494E+02  6.11709E+03  6.33566E+03  5.94571E+03  1.10063E+04
 -5.80792E+03  1.41097E+04 -1.47815E+04  1.47766E+04 -2.28838E+04  5.35655E+03 -2.05284E+04 -9.25258E+03
 -7.27656E+03 -1.98078E+04  4.95246E+03 -2.17834E+04  1.04660E+04 -1.61849E+04  1.68824E+04 -3.34550E+03
  1.18236E+04  7.52641E+03  3.29505E+03  9.69453E+03 -6.26305E+03  9.00255E+03 -8.67914E+03 -2.33791E+03
 -4.35400E+03 -8.46328E+03  4.70956E+03 -9.70108E+03  8.37001E+03 -4.29719E+03  8.32885E+03  4.00982E+03
  3.98141E+03  4.85851E+03  3.86147E+03  2.25622E+03 -1.08479E+03  5.09733E+03  2.91628E+03 -7.25266E+02
  3.42258E+03 -7.55778E+02  8.07891E+03  2.55084E+03  4.43886E+03  1.18221E+04 -1.80177E+03  1.42426E+04
 -8.27887E+03  1.00370E+04 -1.52826E+04  4.22317E+03 -1.07901E+04 -3.81574E+03 -3.46989E+03 -7.59581E+03
  7.61140E+01 -7.30042E+03  4.02155E+03 -5.76149E+03  3.69027E+03  3.94302E+03 -1.86018E+03  5.28776E+03
 -1.00070E+04  5.14129E+03 -8.97196E+03 -3.97506E+03 -4.77676E+03 -9.40651E+03  1.68003E+03 -1.04204E+04
  6.49089E+03 -8.15675E+03  7.06964E+03 -3.43492E+03  6.56068E+03  2.57908E+03  1.21750E+03  4.76471E+03
 -4.42299E+03  3.42641E+03 -5.71320E+03 -4.34655E+03  1.89428E+03 -8.38220E+03  1.07638E+04 -7.72108E+03
  1.48701E+04  7.17536E+02  1.22636E+04  1.01889E+04  3.23057E+03  1.41831E+04 -4.64394E+03  1.14408E+04
 -1.07392E+04  6.77188E+03 -1.01799E+04 -2.63145E+03 -9.12191E+03 -1.01622E+04  1.45690E+03 -8.46197E+03
  9.34051E+03 -3.96729E+03  7.69919E+03  4.43733E+03  1.41281E+03  7.96965E+03 -4.65607E+02  8.39134E+03
 -1.86229E+03  3.36112E+03 -3.20293E+03  9.84271E+02 -1.44887E+03  8.85796E+02 -2.91000E+03  2.89330E+03
 -4.65092E+03  5.09987E+03 -1.17435E+04  4.14186E+03 -1.41994E+04  2.64219E+02 -1.75058E+04 -8.54007E+03
 -8.44795E+03 -1.86892E+04  2.86868E+03 -2.26705E+04  1.21398E+04 -1.66468E+04  2.14272E+04 -7.89194E+03
  1.93206E+04  5.73140E+03  1.17449E+04  1.46608E+04 -9.49676E+02  1.21960E+04 -6.98454E+03  1.16411E+04
 -8.32485E+03  5.42935E+03 -5.74040E+03 -6.75487E+02 -1.54280E+03 -9.50604E+02 -7.90864E+02  1.70504E+02
 -2.03198E+03  2.76476E+03 -1.42642E+03 -1.29797E+03 -9.98063E+02 -4.71797E+03  1.88043E+03 -5.16812E+03
  5.35755E+03 -5.82100E+03  1.03971E+04  1.42645E+02  1.10216E+04  7.33402E+03  3.80939E+03  1.58881E+04
 -7.97993E+03  1.66170E+04 -1.73451E+04  1.08320E+04 -1.83344E+04 -1.17767E+03 -1.45865E+04 -1.14482E+04
 -4.87786E+03 -1.55905E+04  2.85197E+03 -1.39342E+04  1.07892E+04 -8.27483E+03  1.00611E+04 -8.09444E+02
  5.03273E+03  4.94844E+03 -8.60937E+02  3.95741E+03 -1.09447E+03 -2.32463E+03  6.09652E+02 -2.08872E+03
  4.45933E+03 -3.15716E+03  6.16790E+03  2.54472E+03  5.24568E+03  6.42057E+03  4.42385E+01  7.21494E+03
 -6.44223E+03  6.97382E+03 -9.59835E+03 -3.30105E+02 -8.98947E+03 -8.32985E+03 -8.76150E+02 -1.44527E+04
  7.51506E+03 -1.12480E+04  1.15142E+04 -1.68970E+03  1.43556E+04  3.53136E+03  8.19466E+03  9.05653E+03
  2.04826E+03  9.73235E+03 -3.66193E+03  8.81488E+03 -7.39627E+03  5.26492E+03 -6.46020E+03 -1.95591E+02
 -1.16830E+03  4.13115E+01 -2.01384E+03  2.73186E+02 -5.51493E+03  3.14539E+03 -9.63438E+03 -9.47027E+01
 -7.07986E+03 -5.51655E+03 -1.63938E+03 -1.05146E+04  3.64489E+03 -1.16764E+04  9.71519E+03 -5.49976E+03
  1.10829E+04  1.93119E+03  3.74373E+03  6.63310E+03 -1.43648E+03  1.11613E+04 -6.52082E+03  6.37118E+03
