 $NMID ID='MM_0lb_SNR200_15hz_g45_84.RAW', FMTDAT='(8E13.5)'
 TRAMP=1., VOLUME=1. $END
  3.09459E+05  6.83823E+02  3.37659E+05  2.50144E+05  8.54328E+04  3.38661E+05 -1.31602E+05  2.51372E+05
 -1.90695E+05  8.29851E+04 -1.11744E+05 -3.24718E+04  1.33464E+03 -4.99375E+04  5.42705E+04  2.95672E+02
  3.62989E+04  5.22960E+04 -1.62981E+04  7.56027E+04 -6.14156E+04  6.30138E+04 -8.37596E+04  3.28366E+04
 -8.11721E+04 -1.15217E+04 -5.63697E+04 -5.04855E+04 -1.42569E+04 -6.91674E+04  2.63030E+04 -4.60950E+04
  3.91541E+04  3.79536E+03  1.61684E+04  4.73587E+04 -3.42838E+04  4.69223E+04 -6.57481E+04 -2.20601E+02
 -5.17924E+04 -5.57915E+04 -6.37244E+03 -7.67637E+04  3.29105E+04 -5.41214E+04  4.72648E+04 -1.66380E+04
  4.34004E+04  1.13472E+04  3.14752E+04  2.54379E+04  1.75798E+04  2.82341E+04 -5.59757E+03  2.82110E+04
 -2.12033E+04  1.34301E+04 -1.86193E+04 -5.33984E+03  5.89440E+03 -7.38504E+03  2.17403E+04  1.13397E+04
  7.03516E+03  3.42385E+04 -3.12686E+04  3.54776E+04 -6.38121E+04  2.12825E+03 -5.58815E+04 -4.27323E+04
 -1.21563E+04 -6.23491E+04  3.84540E+04 -4.56117E+04  5.74754E+04 -2.34501E+03  3.25878E+04  3.14856E+04
 -6.36716E+03  3.56165E+04 -3.04394E+04  1.51727E+04 -2.90669E+04 -4.46830E+03 -1.57075E+04 -1.07597E+04
 -7.92050E+03 -1.24988E+04  9.27512E+01 -1.67777E+04  5.87793E+03 -2.21288E+04  1.49312E+04 -1.42916E+04
  1.16977E+04  4.97735E+03 -7.84205E+03  1.33026E+04 -2.05482E+04 -3.81360E+03 -8.61467E+03 -3.24702E+04
  2.09593E+04 -4.25561E+04  4.74335E+04 -1.96901E+04  4.49096E+04  1.88326E+04  1.48116E+04  4.41041E+04
 -1.66914E+04  3.31573E+04 -2.46208E+04  3.50993E+03 -8.74493E+03 -2.73651E+04  2.05256E+04 -3.14170E+04
  3.98635E+04 -8.20972E+03  3.43349E+04  2.35619E+04  1.70418E+04  4.41968E+04 -8.29210E+03  4.72616E+04
 -3.09602E+04  3.18602E+04 -3.92637E+04  9.62965E+03 -4.22348E+04 -1.72095E+04 -2.29598E+04 -3.60597E+04
  8.03575E+03 -3.79892E+04  3.08617E+04 -1.43273E+04  2.86938E+04  1.12563E+04  3.70161E+03  1.94360E+04
 -1.26109E+04  7.76009E+03 -1.01615E+04 -7.13516E+03  5.92830E+03 -1.01150E+04  1.75078E+04  6.33147E+03
  1.25948E+04  2.18561E+04 -6.27057E+03  2.49868E+04 -2.12345E+04  1.08943E+04 -2.77722E+04 -4.30756E+03
 -1.93515E+04 -1.68447E+04 -7.72467E+03 -1.95174E+04  4.61457E+03 -1.62930E+04  1.46215E+04 -1.68121E+04
  2.40720E+04 -1.18249E+04  3.07293E+04  2.49914E+03  2.37834E+04  1.86875E+04  4.43758E+03  3.54519E+04
 -1.69906E+04  2.90974E+04 -2.65626E+04  1.07396E+04 -2.10402E+04 -1.06910E+04 -4.83516E+03 -1.34491E+04
  2.95785E+03 -2.73915E+03 -4.11026E+03  6.74274E+03 -1.66120E+04  4.35846E+03 -1.66172E+04 -5.51099E+03
 -9.18124E+03 -1.72204E+04  5.58800E+03 -2.17847E+04  1.56568E+04 -1.62699E+04  1.81637E+04 -1.42094E+03
  1.10051E+04  1.27098E+04 -8.76523E+02  1.82718E+04 -1.36441E+04  1.05547E+04 -1.74822E+04 -4.67451E+03
 -1.29698E+04 -1.59421E+04 -2.88372E+03 -2.12055E+04  9.92880E+03 -1.78706E+04  1.83567E+04 -9.26900E+03
  1.62816E+04 -1.36962E+02  1.13905E+04  5.78931E+03  6.59592E+03  1.96100E+03  8.43960E+03 -1.15638E+03
  1.70077E+04  3.30487E+03  1.77041E+04  1.52916E+04  1.07634E+04  2.79954E+04 -1.98795E+03  3.14368E+04
 -1.87209E+04  2.54073E+04 -2.91468E+04  1.14691E+04 -3.03371E+04 -2.28386E+03 -2.49370E+04 -1.75816E+04
 -1.06493E+04 -2.56982E+04  8.38562E+03 -2.38720E+04  2.00159E+04 -1.34393E+04  1.76065E+04  4.49525E+03
  6.16039E+03  1.36284E+04 -8.30266E+03  1.09736E+04 -1.58754E+04  3.06033E+03 -1.11114E+04 -9.20113E+03
 -1.49056E+03 -1.50866E+04  7.87236E+03 -1.11456E+04  9.74396E+03 -2.00107E+03  2.40429E+03  6.94852E+03
 -5.94826E+03  2.91172E+03 -5.42497E+03 -4.33210E+03 -4.69853E+02 -1.26706E+04  1.01739E+04 -1.23126E+04
  1.61718E+04 -5.79030E+03  1.63160E+04  2.96572E+03  1.49882E+04  1.16818E+04  7.19477E+03  1.69186E+04
 -1.65245E+03  1.89865E+04 -1.37312E+04  1.08193E+04 -1.66712E+04  2.34074E+03 -9.91449E+03 -3.68014E+03
 -6.24218E+03 -3.45051E+03 -1.18422E+03  9.49278E+02 -2.51280E+03  2.41979E+03 -5.22042E+03  3.31238E+03
 -9.76519E+03 -5.44548E+02 -1.05977E+04 -7.33362E+03 -4.42404E+03 -1.40228E+04  3.74508E+03 -1.11875E+04
  9.34925E+03 -3.29923E+03  6.81418E+03  1.83783E+03  8.41851E+02  3.85178E+03 -4.88613E+03 -7.94983E+01
 -3.88968E+03 -5.48837E+03 -1.62413E+03 -8.60028E+03  5.84636E+03 -9.55755E+03  1.24885E+04 -5.57492E+03
  1.54152E+04  1.56420E+03  1.16300E+04  8.76679E+03  2.14096E+03  1.09361E+04 -6.64089E+03  1.06040E+04
 -9.83571E+03  2.89595E+03 -5.46875E+03 -1.20453E+03  1.96529E+03 -1.86982E+03  5.63021E+03 -8.21863E+02
  4.02936E+03  4.58088E+03  1.50121E+03  7.57446E+03 -5.21836E+03  8.25668E+03 -9.37206E+03  2.22580E+03
 -5.46947E+03 -5.93052E+03 -4.40528E+02 -8.89938E+03  4.50729E+03 -4.81646E+03  5.18000E+03  1.28741E+03
  6.31659E+02  4.58748E+03 -6.86964E+03  6.89676E+03 -5.97751E+03  2.33499E+03 -5.37298E+03 -2.77425E+03
 -3.59846E+03 -7.37670E+03  2.70638E+03 -9.93889E+03  9.97103E+03 -7.52338E+03  8.88007E+03  1.06682E+03
  6.67459E+03  7.66644E+03 -2.42153E+01  8.95881E+03 -6.97448E+03  6.46278E+03 -7.40534E+03  3.25484E+02
 -7.78662E+03 -7.53450E+03 -9.50921E+02 -7.85108E+03  2.54622E+03 -6.16612E+03  4.50323E+03 -2.54851E+03
  2.24111E+03  1.04332E+03  8.07536E+02  2.30332E+03  5.64597E+02 -1.27893E+02  9.62831E+02 -4.26077E+03
  5.47374E+03 -1.91008E+03  7.09950E+03  3.46036E+02  7.37294E+03  5.03991E+03  7.36261E+03  1.06581E+04
 -2.14651E+03  1.15449E+04 -1.06816E+04  9.80111E+03 -1.44216E+04  1.50098E+03 -1.02260E+04 -5.20104E+03
 -5.10020E+03 -9.90646E+03  5.89296E+02 -7.69889E+03  2.95571E+03 -4.24860E+03  1.80535E+03 -2.20177E+03
  2.70987E+03 -1.55475E+03  2.14828E+03 -3.12663E+03  3.76785E+03 -1.20216E+03  5.00674E+03  2.17737E+02
  5.63585E+03  1.94434E+03  2.86728E+03  4.62619E+03 -2.34564E+03  5.00844E+03 -6.44948E+03  4.27378E+03
 -7.38020E+03 -1.40947E+03 -4.49545E+03 -4.75033E+03 -7.79720E+02 -7.71527E+03  5.25182E+03 -8.16544E+03
  6.89418E+03 -4.66719E+03  9.70901E+03 -2.35344E+02  5.93115E+03  5.51220E+03  2.72842E+03  9.46256E+03
 -2.70142E+03  8.01016E+03 -4.17812E+03  3.75681E+03 -3.32598E+03 -8.48138E+01 -1.01790E+03 -9.58859E+02
 -1.29639E+02  6.99614E+02 -2.47801E+03  2.82577E+03 -2.74386E+03  4.96245E+02 -6.44687E+03  2.07069E+00
 -2.25096E+03 -6.81460E+03  4.27264E+02 -6.90044E+03  3.04075E+03 -6.30469E+03  5.93555E+03 -2.74804E+03
  6.63671E+03  3.71978E+03  2.90835E+03  4.93121E+03 -1.55317E+03  6.42875E+03 -5.30423E+03  3.68535E+03
 -6.08340E+03  5.95747E+02 -4.25585E+03 -4.54657E+03 -1.09503E+03 -6.53938E+03  3.32804E+03 -4.33144E+03
  4.82622E+03 -1.25302E+03  2.35876E+03  1.84817E+03  1.01687E+03  2.53654E+03  1.51083E+03  3.42220E+02
  8.59239E+02  9.73403E+02  1.92821E+03  3.06281E+02  1.06835E+03  3.30913E+03  2.13327E+03  3.56706E+03
 -1.48675E+03  5.04442E+03 -4.28349E+03  6.01113E+03 -6.02466E+03  8.64559E+02 -5.77938E+03 -2.16368E+03
 -2.27907E+03 -6.91119E+03  2.15063E+03 -6.82555E+03  3.85024E+03 -3.35983E+03  5.33028E+03 -1.63799E+03
  5.18728E+03  3.43839E+03  1.18467E+03  3.73074E+03 -1.33935E+03  2.48756E+03 -2.01369E+03 -7.43818E+02
 -2.42192E+02 -1.53858E+03  1.47899E+03 -3.68956E+03  3.22537E+03 -1.51579E+03  3.17475E+03  1.93873E+02
  1.13342E+03  1.31635E+02  9.59124E+02  2.17971E+03 -5.99500E+02  1.55738E+03  1.23506E+03 -7.03708E+02
  1.54412E+03 -7.09730E+02  2.42935E+03  1.75618E+03  1.38999E+03  3.66848E+03 -1.49328E+02  3.71913E+03
 -3.93893E+03  2.96549E+03 -3.97129E+03 -2.54473E+02 -4.53708E+03 -1.65297E+03 -1.34016E+03 -1.13446E+03
  3.44271E+02 -2.10904E+03 -8.36342E+02 -6.93089E+02  9.28676E+02  1.50777E+03 -1.88923E+03  2.07124E+03
 -2.44111E+03  1.94965E+03 -3.04479E+03 -2.21942E+03 -1.42914E+03 -2.81404E+03  1.18595E+03 -3.00279E+03
  1.45096E+03 -1.91231E+03  1.50484E+03 -5.69774E+02  3.36521E+03  5.16600E+02  9.52461E+02  8.95527E+02
 -1.53600E+03  6.11453E+02 -1.87020E+03 -1.52800E+03 -1.26827E+01 -1.53564E+03  1.86496E+03 -1.16798E+03
  3.74435E+03  4.48669E+02  3.34488E+03  2.59702E+03  2.16489E+03  3.12423E+03 -7.89906E+02  3.65286E+03
 -2.86085E+03  1.19410E+03 -2.62117E+03 -1.09605E+03 -9.36356E+02 -2.23632E+03  1.58294E+03 -1.44721E+03
  2.91425E+03 -1.94143E+03  2.01855E+03  4.70108E+02 -2.55940E+02  2.81680E+03  1.22778E+01  1.59445E+03
 -7.60711E+02  1.20375E+03 -1.52189E+03  7.91607E+02 -8.18581E+02 -4.25983E+02 -1.27876E+03  1.08611E+03
 -1.39305E+03  2.24161E+03 -2.19377E+03  1.24275E+03 -4.14594E+03 -2.48679E+02 -4.09437E+03 -1.18439E+03
 -2.30483E+03 -4.03035E+03  1.27385E+03 -5.67212E+03  2.84756E+03 -4.41211E+03  4.88910E+03 -2.51962E+03
  3.67117E+03  1.92370E+03  1.63241E+03  1.68317E+03 -1.36288E+02  2.68527E+03 -1.32601E+03  3.33441E+03
 -3.01654E+03  1.54054E+03 -2.35447E+02 -9.11465E+02 -1.04995E+03 -3.07110E+02 -4.22799E+02 -3.04739E+00
 -1.18478E+03 -1.01596E+03 -6.13724E+02 -1.82454E+02  3.28642E+01 -1.38101E+03  9.87870E+02 -9.49583E+02
  7.66251E+02 -1.29094E+03  1.50427E+03 -6.29719E+02  2.24116E+03  2.74392E+03 -2.45083E+02  3.58891E+03
 -1.49313E+03  4.14116E+03 -3.67730E+03  2.61322E+03 -4.12925E+03 -5.89257E+01 -3.08963E+03 -6.84373E+02
 -2.37793E+03 -3.35804E+03  1.33265E+03 -3.17171E+03  2.03655E+03 -9.51675E+02  2.52585E+03  1.00328E+03
  9.40418E+02  2.51987E+03  2.33052E+01  2.21634E+03 -1.23508E+03  4.17789E+01 -1.71268E+03 -1.86134E+03
  1.13787E+03 -8.71803E+01  7.18397E+02  1.79377E+03  1.84093E+03  1.54685E+03 -5.98990E+01  1.20734E+03
 -8.45235E+02  2.24939E+03 -1.11903E+03  3.04324E+02 -1.62012E+03 -1.02008E+03 -9.92287E+02 -2.76585E+03
  5.33004E+02 -2.82297E+03  2.76617E+03 -1.09559E+02  3.43480E+03 -1.34766E+02  3.98265E+02  1.77260E+03
  9.82989E+02  1.92606E+03  6.30603E+01  1.96022E+03 -4.03710E+02  6.01637E+02  4.70381E+01 -6.41969E+02
 -5.89544E+02  7.23290E+02 -6.98038E+02 -1.02936E+02 -4.73410E+02 -7.43939E+01 -2.17885E+03 -6.78365E+02
 -1.75032E+03 -2.35425E+03  5.12233E+01 -2.73134E+03  1.51556E+03 -3.02371E+03  1.50265E+03 -1.03351E+03
  3.72183E+02 -1.61922E+02  2.03007E+02  5.33421E+02 -3.84421E+01  1.00022E+03 -9.16241E+02  1.90819E+03
