 $NMID ID='MM_0lb_SNR200_13hz_g60_96.RAW', FMTDAT='(8E13.5)'
 TRAMP=1., VOLUME=1. $END
  3.09488E+05  1.91452E+03  3.38148E+05  2.49931E+05  8.45581E+04  3.37692E+05 -1.31917E+05  2.51318E+05
 -1.91237E+05  8.31198E+04 -1.11744E+05 -3.22679E+04  6.71043E+02 -5.14150E+04  5.35619E+04  2.92050E+02
  3.44600E+04  5.26639E+04 -1.67150E+04  7.55476E+04 -6.16570E+04  6.27703E+04 -8.60287E+04  3.23796E+04
 -8.24163E+04 -1.23296E+04 -5.81698E+04 -5.28858E+04 -1.46245E+04 -7.12235E+04  2.73738E+04 -4.57721E+04
  4.01358E+04  4.54742E+03  1.57326E+04  4.73809E+04 -3.52163E+04  4.64595E+04 -6.77424E+04  3.34171E+02
 -5.28948E+04 -5.69944E+04 -7.41150E+03 -7.75166E+04  3.30757E+04 -5.69509E+04  4.99219E+04 -1.86611E+04
  4.39056E+04  1.09812E+04  3.08454E+04  2.66590E+04  1.53561E+04  3.16691E+04 -4.58881E+03  2.87118E+04
 -2.28611E+04  1.26229E+04 -1.85818E+04 -4.96762E+03  5.07357E+03 -6.84735E+03  2.35446E+04  1.28104E+04
  7.09504E+03  3.60007E+04 -3.30491E+04  3.84869E+04 -6.49426E+04  2.30484E+03 -5.76731E+04 -4.31393E+04
 -1.15285E+04 -6.42343E+04  4.04663E+04 -4.67467E+04  5.88169E+04 -2.18361E+03  3.53300E+04  3.32687E+04
 -6.05014E+03  3.85722E+04 -3.07660E+04  1.62792E+04 -3.12070E+04 -4.66049E+03 -1.89151E+04 -1.01399E+04
 -8.49319E+03 -1.58714E+04 -2.74293E+02 -1.84350E+04  7.65013E+03 -2.21652E+04  1.47652E+04 -1.26072E+04
  9.99566E+03  6.10955E+03 -9.65589E+03  1.27921E+04 -2.13285E+04 -6.59518E+03 -9.26431E+03 -3.58428E+04
  2.39053E+04 -4.48120E+04  4.98969E+04 -2.00347E+04  4.63108E+04  2.04170E+04  1.59750E+04  4.63756E+04
 -1.54039E+04  3.58926E+04 -2.69738E+04  1.91471E+03 -1.05469E+04 -2.90500E+04  1.99937E+04 -3.60593E+04
  4.36988E+04 -9.48884E+03  3.74634E+04  2.49790E+04  1.99055E+04  4.98879E+04 -7.49352E+03  5.26526E+04
 -3.45280E+04  3.52273E+04 -4.33894E+04  9.72386E+03 -4.56318E+04 -1.72191E+04 -2.53344E+04 -4.00157E+04
  8.32446E+03 -4.03348E+04  3.37841E+04 -1.66799E+04  3.04633E+04  1.10940E+04  5.26443E+03  2.07113E+04
 -1.48871E+04  9.63581E+03 -1.03852E+04 -8.67926E+03  5.03745E+03 -1.01443E+04  1.77902E+04  6.56530E+03
  1.33381E+04  2.29789E+04 -5.10010E+03  2.64891E+04 -2.26698E+04  1.22946E+04 -2.91368E+04 -2.92590E+03
 -2.45582E+04 -1.82267E+04 -1.00616E+04 -2.22466E+04  3.95271E+03 -2.25845E+04  1.78964E+04 -2.15453E+04
  2.91501E+04 -1.29206E+04  3.60056E+04  3.18553E+03  2.49236E+04  2.29274E+04  4.52468E+03  3.87843E+04
 -1.79581E+04  3.24538E+04 -3.00707E+04  1.06771E+04 -2.20111E+04 -1.03067E+04 -4.70678E+03 -1.26888E+04
  1.33529E+03 -2.17817E+03 -6.58828E+03  7.85901E+03 -1.64023E+04  6.04089E+03 -1.75665E+04 -6.96890E+03
 -1.02012E+04 -2.21806E+04  6.34857E+03 -2.58357E+04  1.72851E+04 -1.81804E+04  1.96263E+04 -1.45577E+03
  1.19879E+04  1.52636E+04 -5.05018E+02  2.05033E+04 -1.38444E+04  1.18335E+04 -2.20027E+04 -4.38354E+03
 -1.66027E+04 -2.01273E+04 -2.03749E+03 -2.58827E+04  1.23827E+04 -2.24209E+04  1.99160E+04 -9.97146E+03
  2.01276E+04 -1.39847E+03  1.55605E+04  6.51771E+03  7.17848E+03  5.37562E+02  1.18351E+04 -2.04158E+03
  1.86573E+04  3.69315E+03  2.24081E+04  1.70552E+04  1.43786E+04  3.31767E+04 -2.35179E+03  3.91592E+04
 -2.41027E+04  3.12361E+04 -3.58758E+04  1.43372E+04 -3.75438E+04 -2.71690E+03 -3.29662E+04 -2.14221E+04
 -1.40777E+04 -3.05188E+04  1.09295E+04 -2.70416E+04  2.42223E+04 -1.45347E+04  2.05738E+04  8.03427E+03
  8.94754E+03  1.52938E+04 -1.02109E+04  1.33402E+04 -1.99394E+04  1.46842E+03 -1.35201E+04 -1.12496E+04
  1.42540E+00 -1.73210E+04  9.50644E+03 -1.23100E+04  1.12764E+04 -1.85244E+03  2.71751E+03  7.17952E+03
 -6.43224E+03  4.25851E+03 -7.52117E+03 -5.71447E+03 -6.77072E+02 -1.61082E+04  1.06632E+04 -1.69294E+04
  1.98173E+04 -8.60859E+03  2.13187E+04  2.25218E+03  1.91046E+04  1.50750E+04  9.06185E+03  2.40270E+04
 -4.09638E+03  2.40921E+04 -1.65515E+04  1.63643E+04 -1.79913E+04  4.30149E+03 -1.54711E+04 -4.59768E+03
 -5.40625E+03 -6.29234E+03 -1.11471E+03  7.27059E+02 -2.10825E+03  1.65359E+03 -6.31069E+03  4.87535E+03
 -1.12158E+04 -1.91427E+03 -1.20904E+04 -1.07094E+04 -4.69585E+03 -1.67600E+04  4.87560E+03 -1.30017E+04
  9.71873E+03 -6.12240E+03  7.98262E+03  3.23922E+03 -2.71017E+02  5.05961E+03 -7.00950E+03  2.51738E+02
 -5.48637E+03 -8.93088E+03 -5.41222E+02 -1.35246E+04  6.67076E+03 -1.26510E+04  1.63668E+04 -6.40946E+03
  2.03406E+04  1.50077E+03  1.40967E+04  1.10283E+04  2.20871E+03  1.56639E+04 -9.25270E+03  1.28010E+04
 -9.82705E+03  4.41300E+03 -6.20432E+03 -3.10357E+03  1.81455E+03 -2.73392E+03  7.38233E+03 -2.63021E+03
  6.41330E+03  5.99616E+03  1.20152E+03  1.00532E+04 -5.55271E+03  9.88201E+03 -1.41232E+04  1.95911E+03
 -9.71011E+03 -5.40266E+03  1.10316E+03 -1.09560E+04  7.37111E+03 -4.89611E+03  6.74697E+03  2.28731E+03
  1.00326E+03  7.10149E+03 -6.93389E+03  9.47098E+03 -1.04154E+04  4.04679E+03 -1.01917E+04 -4.34634E+03
 -4.51524E+03 -1.23129E+04  2.43445E+03 -1.33414E+04  1.11695E+04 -7.86508E+03  1.41704E+04  1.56565E+03
  8.04931E+03  1.01984E+04 -3.31697E+02  1.24027E+04 -1.01379E+04  6.89616E+03 -9.35732E+03 -3.61164E+02
 -8.18980E+03 -8.35934E+03 -2.00804E+03 -9.21236E+03  5.40524E+03 -8.13314E+03  5.55606E+03 -3.67555E+03
  2.81992E+03  2.78817E+02 -9.17297E+02  1.63373E+03  1.56198E+03 -2.44072E+03  1.76750E+03 -5.88945E+03
  8.07043E+03 -4.34812E+03  1.22715E+04  1.88288E+03  1.05195E+04  6.67580E+03  9.00720E+03  1.39719E+04
 -3.76254E+03  1.80310E+04 -1.29252E+04  1.31810E+04 -1.90648E+04  2.39275E+03 -1.43447E+04 -5.35664E+03
 -7.54546E+03 -1.31715E+04 -1.16271E+02 -1.01267E+04  3.76708E+03 -6.23846E+03  4.03733E+03 -3.32429E+03
  2.74607E+03 -1.41412E+03  3.79408E+03 -3.12664E+03  4.47569E+03 -2.12375E+03  6.83415E+03 -7.28269E+02
  6.64618E+03  2.40910E+03  3.68544E+03  6.99227E+03 -2.63191E+03  7.09235E+03 -1.03934E+04  5.77937E+03
 -8.41361E+03 -8.96090E+02 -7.21051E+03 -7.86644E+03  3.85816E+02 -1.10284E+04  5.98955E+03 -1.17776E+04
  1.22133E+04 -7.65979E+03  1.37517E+04  1.06763E+03  9.06108E+03  9.09005E+03  2.72565E+03  1.40863E+04
 -6.04137E+03  9.88387E+03 -6.75632E+03  2.68399E+03 -5.00993E+03 -1.33162E+03 -2.54541E+03 -2.61145E+03
 -1.24641E+03  6.28704E+02 -1.59213E+03  2.22425E+03 -4.45217E+03  1.66469E+03 -7.51460E+03 -1.04303E+03
 -3.78927E+03 -7.63214E+03  1.17404E+02 -1.03142E+04  4.63030E+03 -1.02362E+04  8.76620E+03 -3.56474E+03
  8.96386E+03  3.11189E+03  4.84376E+03  7.09705E+03 -2.46424E+03  8.08290E+03 -6.66944E+03  5.55823E+03
 -9.70223E+03  8.74016E+02 -8.20390E+03 -5.56548E+03 -1.38513E+03 -7.30623E+03  4.28424E+03 -6.70385E+03
  5.50233E+03 -1.77665E+03  3.60771E+03  1.84148E+03  1.88354E+03  2.18567E+03  7.43048E+02  8.68354E+02
  3.39201E+03  6.69789E+02  2.93218E+03  1.17748E+03  2.84629E+03  4.78883E+03  3.17266E+03  5.53726E+03
 -2.77518E+03  7.84118E+03 -6.94469E+03  7.61240E+03 -8.83523E+03  2.17887E+03 -1.02286E+04 -2.74157E+03
 -5.05942E+03 -1.08688E+04  2.29552E+03 -1.11116E+04  4.99376E+03 -5.84099E+03  7.16509E+03 -1.45741E+03
  4.08786E+03  2.70780E+03 -7.51834E+01  5.94738E+03 -1.45058E+03  2.37778E+03 -3.91889E+03 -1.07054E+03
 -1.70494E+03 -4.79137E+03  3.37458E+03 -4.35072E+03  4.34985E+03 -2.87644E+03  4.17685E+03  2.29787E+03
  2.44886E+03  3.12512E+02  3.16169E+02  2.74828E+03 -3.12280E+02 -8.50461E+01  2.45708E+03 -9.23983E+02
  1.64218E+03 -3.78371E+02  3.85283E+03  2.11072E+03  1.37013E+03  5.80935E+03 -7.83408E+02  7.06573E+03
 -4.30412E+03  4.31962E+03 -3.93969E+03  1.75190E+03 -5.01055E+03 -2.93426E+03 -1.31019E+03 -2.24432E+03
  7.67605E+02 -3.70998E+03  2.69809E+03 -2.14756E+03  2.66776E+03  1.44697E+03 -1.10394E+03  4.02098E+03
 -4.27329E+03  1.94891E+03 -4.35043E+03 -4.22658E+03 -1.74863E+03 -5.11978E+03  4.24921E+02 -6.72145E+03
  3.51748E+03 -2.46688E+03  2.67862E+03 -7.86468E+02  2.73941E+03  1.12976E+03  6.39315E+02  2.90245E+03
 -1.38684E+03  5.32608E+02 -2.28400E+03 -1.53909E+03  9.48864E+02 -2.70048E+03  3.98237E+03 -1.72870E+03
  4.58155E+03 -9.62594E+02  3.89728E+03  3.11070E+03  2.45215E+03  4.59075E+03 -1.29828E+03  4.88038E+03
 -3.98299E+03  1.09483E+03 -3.55662E+03 -9.57605E+02 -2.09705E+03 -3.74096E+03  4.65373E+02 -3.64153E+03
  4.06367E+03 -1.09044E+03  1.05724E+03  2.34078E+03  5.51995E+02  2.27397E+03 -2.44240E+02  2.46162E+03
 -2.13227E+03  2.69990E+03 -1.28574E+03  7.82119E+02 -4.16978E+01  1.45394E+03 -1.11426E+03  1.58746E+03
 -2.15328E+03  3.38236E+03 -3.79649E+03  1.27346E+03 -6.32556E+03  9.57704E+02 -6.80805E+03 -3.96250E+03
 -2.36953E+03 -6.79204E+03  3.79222E+02 -7.66784E+03  4.68796E+03 -6.48641E+03  7.25098E+03 -2.06713E+03
  7.21952E+03  1.64751E+03  4.21337E+03  5.52471E+03 -3.36176E+02  5.49289E+03 -1.97685E+03  3.97949E+03
 -2.35403E+03  1.76734E+03 -1.29552E+03 -1.08599E+03  1.13845E+01 -1.30376E+03 -1.39319E+03  3.17304E+02
 -2.05601E+03  4.64957E+02 -1.62345E+03  4.26720E+02  2.95813E+01 -1.94593E+03 -5.44651E+02 -3.23496E+03
  3.03381E+03 -1.46024E+03  3.35992E+03  4.08119E+02  3.68165E+03  2.28740E+03  1.15004E+03  4.13385E+03
 -1.92209E+03  7.04072E+03 -6.41916E+03  4.71781E+03 -6.22764E+03 -1.23156E+03 -5.83770E+03 -4.09259E+03
 -2.83257E+03 -5.28486E+03  1.65747E+03 -4.24346E+03  2.43480E+03 -3.09043E+03  2.45854E+03  2.42576E+02
  2.50774E+03  1.74762E+03  1.17388E+03  1.40839E+03 -5.67913E+02 -1.09855E+02 -7.01792E+02 -2.25417E+03
  7.42310E+02 -1.11399E+03  1.84617E+03  5.47852E+02  7.73198E+02  1.01203E+03  1.28109E+02  1.58082E+03
 -2.71601E+03  1.97189E+03 -3.30775E+03  6.69698E+02 -2.94983E+03 -2.47026E+03 -5.20615E+02 -2.87234E+03
  1.13394E+03 -2.98964E+03  3.28856E+03 -5.66769E+02  4.34737E+03  1.23611E+03  2.30037E+03  2.46542E+03
  1.35005E+03  1.74647E+03 -9.04211E+01  1.81619E+03 -1.97116E+03  1.54506E+03 -5.85974E+02 -2.92765E+02
 -1.44059E+03 -3.49948E+02 -9.09605E+02  1.92218E+03 -2.02792E+03 -4.50141E+02 -2.52317E+03  4.23215E+02
 -3.40120E+03 -1.06803E+02 -1.60960E+03 -3.79073E+03  2.39413E+03 -4.55393E+03  3.52235E+03 -2.06357E+03
  1.89839E+03  1.07542E+03  1.04356E+03  2.66283E+03 -3.76907E+02  3.25126E+03 -2.27097E+03  2.10088E+03
