 $NMID ID='MM_0lb_SNR200_20hz_g45_61.RAW', FMTDAT='(8E13.5)'
 TRAMP=1., VOLUME=1. $END
  3.09358E+05  8.91428E+02  3.37331E+05  2.49708E+05  8.54519E+04  3.37783E+05 -1.32051E+05  2.50686E+05
 -1.88426E+05  8.17094E+04 -1.10509E+05 -3.25657E+04  2.14743E+03 -5.02718E+04  5.31611E+04 -5.82198E+01
  3.39027E+04  5.34645E+04 -1.78790E+04  7.44673E+04 -6.00992E+04  6.21408E+04 -8.26266E+04  3.08332E+04
 -7.87762E+04 -1.08886E+04 -5.55617E+04 -4.94876E+04 -1.43011E+04 -6.79960E+04  2.71089E+04 -4.40049E+04
  3.88379E+04  4.05921E+03  1.61206E+04  4.77500E+04 -3.38167E+04  4.51533E+04 -6.53061E+04 -1.29350E+03
 -5.17811E+04 -5.59072E+04 -5.54082E+03 -7.45821E+04  3.33205E+04 -5.33160E+04  4.59894E+04 -1.53242E+04
  4.07584E+04  1.10911E+04  2.98492E+04  2.32735E+04  1.59696E+04  2.77726E+04 -4.38702E+03  2.69503E+04
 -2.19062E+04  1.26340E+04 -1.99815E+04 -3.72033E+03  3.55074E+03 -7.02026E+03  2.16882E+04  1.06072E+04
  7.60019E+03  3.24801E+04 -3.06823E+04  3.32747E+04 -5.92449E+04  1.97695E+03 -5.45355E+04 -4.13254E+04
 -1.32659E+04 -5.97212E+04  3.73444E+04 -4.32441E+04  5.54215E+04 -1.43987E+03  3.10355E+04  2.96064E+04
 -7.57119E+03  3.15465E+04 -2.70958E+04  1.29590E+04 -2.66462E+04 -6.09851E+03 -1.32960E+04 -1.00069E+04
 -6.73094E+03 -1.16093E+04 -1.43280E+03 -1.56677E+04  5.42571E+03 -2.22515E+04  1.50406E+04 -1.34697E+04
  1.32642E+04  3.07192E+03 -5.37652E+03  1.25661E+04 -1.87105E+04 -1.72319E+03 -6.93969E+03 -3.00967E+04
  1.94551E+04 -3.96797E+04  4.33356E+04 -1.89261E+04  4.00308E+04  1.77257E+04  1.42326E+04  4.07319E+04
 -1.53802E+04  3.01462E+04 -2.19967E+04  1.65583E+03 -6.93233E+03 -2.61451E+04  2.11126E+04 -2.98296E+04
  3.74463E+04 -7.24617E+03  3.05550E+04  2.22408E+04  1.41722E+04  4.10588E+04 -7.59364E+03  4.36049E+04
 -2.75338E+04  2.81159E+04 -3.60269E+04  7.45552E+03 -3.68443E+04 -1.33321E+04 -2.13301E+04 -3.29723E+04
  6.61470E+03 -3.34226E+04  2.88335E+04 -1.25476E+04  2.61548E+04  1.05359E+04  2.08826E+03  1.77529E+04
 -1.33980E+04  6.37753E+03 -9.83064E+03 -8.10776E+03  6.26790E+03 -1.02292E+04  1.58822E+04  6.92651E+03
  1.15663E+04  2.03351E+04 -6.80324E+03  2.23276E+04 -2.22353E+04  7.36901E+03 -2.45910E+04 -6.93524E+03
 -1.54872E+04 -1.64064E+04 -5.22405E+03 -1.51494E+04  4.85202E+03 -1.31363E+04  1.12316E+04 -1.45597E+04
  2.01603E+04 -1.17092E+04  2.63482E+04 -1.35465E+02  2.03566E+04  1.55225E+04  3.13485E+03  3.17606E+04
 -1.56966E+04  2.68766E+04 -2.47942E+04  8.79696E+03 -1.83403E+04 -1.10675E+04 -3.88669E+03 -1.50696E+04
  2.44706E+03 -4.77935E+03 -1.64544E+03  3.75452E+03 -1.20089E+04  5.82843E+03 -1.14893E+04 -4.74414E+03
 -8.12910E+03 -1.48602E+04  4.16218E+03 -1.89232E+04  1.18195E+04 -1.28734E+04  1.41027E+04 -1.35977E+03
  7.46735E+03  1.07189E+04 -1.02176E+03  1.53068E+04 -9.90481E+03  7.90064E+03 -1.51824E+04 -3.01773E+03
 -1.09989E+04 -1.37921E+04 -1.66636E+03 -1.73577E+04  8.90701E+03 -1.43544E+04  1.47565E+04 -6.53953E+03
  1.38265E+04  4.14446E+02  9.08329E+03  3.49392E+03  3.66940E+03  1.88080E+03  7.40215E+03 -9.46170E+02
  1.18667E+04  2.05896E+03  1.30509E+04  1.13086E+04  9.00164E+03  2.34022E+04 -3.70041E+03  2.41657E+04
 -1.52441E+04  1.66888E+04 -2.24290E+04  7.66632E+03 -2.28276E+04 -1.15839E+03 -1.85140E+04 -1.24617E+04
 -9.88899E+03 -1.85182E+04  7.05399E+03 -1.73755E+04  1.47746E+04 -9.78291E+03  1.49644E+04  2.32233E+03
  5.59272E+03  1.02207E+04 -7.05893E+03  9.37425E+03 -1.25661E+04  2.14132E+03 -8.81926E+03 -7.52249E+03
 -6.36716E+01 -1.07866E+04  6.13333E+03 -8.52687E+03  6.87793E+03 -4.08242E+02  1.80127E+03  4.09931E+03
 -6.06299E+03  6.26085E+01 -1.79502E+03 -4.50213E+03  1.14705E+03 -9.62304E+03  7.47229E+03 -7.92230E+03
  1.12210E+04 -4.67668E+03  9.99588E+03  2.93371E+03  8.24279E+03  7.80090E+03  5.16495E+03  1.28189E+04
 -1.82217E+03  1.38231E+04 -8.45257E+03  8.78066E+03 -9.08542E+03  3.05841E+03 -7.99291E+03 -2.22936E+03
 -4.12892E+03 -3.03379E+03 -2.44066E+02  1.17384E+03 -2.53010E+03  1.05153E+03 -3.01648E+03  3.35074E+03
 -7.30524E+03 -6.87544E+02 -8.65562E+03 -5.19119E+03 -2.92196E+03 -1.02028E+04  2.49292E+03 -7.64491E+03
  6.27458E+03 -2.80792E+03  3.67000E+03  1.77732E+03  1.35736E+03  3.27062E+03 -2.36943E+03  5.14650E+02
 -3.05140E+03 -4.95399E+03 -2.88224E+02 -7.10655E+03  2.98181E+03 -7.41143E+03  8.28241E+03 -4.15862E+03
  9.78294E+03  1.64953E+03  8.09347E+03  5.17376E+03  1.64188E+03  7.72751E+03 -4.97821E+03  6.58886E+03
 -5.58958E+03  2.80711E+03 -2.67878E+03 -1.94319E+03  2.31224E+03 -1.05315E+03  4.03783E+03 -1.93785E+03
  3.56030E+03  2.89525E+03  1.19971E+03  5.85313E+03 -3.56570E+03  5.41964E+03 -7.74604E+03  1.43297E+03
 -4.59442E+03 -3.28747E+03  9.80621E+02 -5.29458E+03  2.95513E+03 -2.21034E+03  3.50522E+03  2.40290E+03
  7.11996E+02  2.74511E+03 -3.44803E+03  3.88726E+03 -2.90194E+03  2.12058E+03 -3.54635E+03 -6.26915E+02
 -2.67512E+03 -4.50614E+03  8.19543E+02 -6.61449E+03  4.84306E+03 -4.78642E+03  4.64929E+03  1.44044E+03
  4.38532E+03  4.21836E+03  1.14647E+03  6.97761E+03 -3.49873E+03  3.08485E+03 -5.07098E+03 -7.44614E+02
 -5.59271E+03 -4.41721E+03 -8.91665E+02 -3.86304E+03  2.91636E+03 -4.64100E+03  2.45587E+03 -2.83313E+03
  3.05197E+03 -8.00650E+02  3.37018E+02  1.22729E+03  1.08669E+03 -3.33285E+02 -7.16109E+02 -1.35844E+03
  2.99533E+03  2.15987E+02  3.86882E+03  9.56534E+02  4.32225E+03  3.34107E+03  3.67319E+03  6.17990E+03
 -1.20706E+03  7.49933E+03 -6.86141E+03  7.00459E+03 -8.18785E+03  6.78100E+02 -6.65430E+03 -2.07423E+03
 -4.10087E+03 -6.41864E+03 -4.24691E+02 -4.94024E+03  1.98742E+03 -2.05234E+03  1.55587E+03 -1.25287E+03
  1.53801E+02 -1.46499E+03  1.98237E+03 -2.29073E+03  4.00835E+03 -9.72986E+02  2.95294E+03  3.01184E+02
  4.06508E+03  1.57390E+03  2.40376E+02  3.63547E+03 -5.28006E+02  2.54968E+03 -3.75609E+03  2.14226E+03
 -4.11346E+03 -8.15164E+02 -1.37422E+03 -3.48481E+03  1.13120E+03 -4.00447E+03  2.74239E+03 -3.93574E+03
  4.09904E+03 -3.26494E+03  5.79633E+03  9.44690E+02  4.48082E+03  3.22381E+03  1.63699E+03  4.65260E+03
 -1.74257E+03  4.12471E+03 -1.23404E+03  1.87379E+03 -5.80372E+02 -1.27830E+03 -4.95967E+02 -2.64633E+02
  3.24878E+02  8.58071E+02 -6.34498E+02  3.00457E+03 -3.12092E+03  9.56612E+02 -2.84466E+03 -4.55828E+02
 -5.58139E+02 -2.68602E+03  1.78395E+03 -3.87792E+03  2.42346E+03 -3.82379E+03  2.37475E+03 -4.01449E+02
  2.74790E+03  1.54461E+03  9.77619E+02  1.81859E+03 -4.51590E+02  2.58432E+03 -1.53480E+03  2.24151E+03
 -2.73147E+03  1.20089E+03 -3.08299E+03 -1.48755E+03  2.18039E+02 -2.53791E+03  2.35720E+03 -1.54955E+03
  2.17164E+03 -1.28941E+03  2.52458E+03 -4.84461E+02 -4.45117E+02  7.50197E+02  6.41599E+02 -4.03031E+02
  2.48848E+03  4.36324E+02  1.27173E+03  6.04666E+02 -4.79382E+02  2.49049E+03  2.07614E+03  7.00344E+02
 -2.00787E+03  2.19784E+03 -1.85427E+03  3.49647E+03 -1.98520E+03  1.36477E+03 -3.31260E+03 -4.59431E+02
 -6.74483E+02 -2.55069E+03  2.60679E+02 -5.38149E+03  1.85985E+03 -1.88213E+03  2.75647E+03 -1.43167E+03
  1.57946E+03  1.12948E+03 -1.67143E+02  2.40132E+03 -1.21833E+03  8.75208E+02 -7.55448E+02 -1.06587E+03
 -7.22052E+02 -1.24074E+03  1.03811E+03 -1.21813E+03  7.88070E+02 -6.39256E+02  2.10186E+03 -1.53511E+01
  1.70752E+03  7.78002E+02  5.93379E+02 -1.16628E+03 -4.27481E+02  4.15412E+02  1.21650E+03 -5.57691E+01
  2.54863E+02  3.31176E+00  1.65170E+03 -4.34974E+02  4.24166E+02  1.58612E+03 -3.65343E+02  2.17193E+03
 -8.59563E+02  8.45133E+02 -9.32865E+02  7.59557E+02 -8.23256E+02 -9.38794E+02 -7.87537E+02 -2.00603E+02
 -3.25662E+02 -9.36511E+02  1.66114E+03 -5.60602E+02  4.22022E+02  1.42197E+03 -1.03767E+03 -1.07623E+03
 -1.36428E+03  5.95935E+02 -8.13822E+02 -7.63226E+02 -8.29198E+02 -1.25072E+03  5.19110E+01 -9.93772E+02
  3.02866E+02  1.96428E+01  1.30756E+03 -4.97345E+01  1.03529E+03  4.41495E+02 -4.94854E+02  1.77044E+03
  1.25307E+02 -2.01396E+02 -6.77014E+02  9.95295E+00  1.38465E+03 -8.06198E+02  1.02869E+03 -7.27375E+02
  7.16742E+02  1.46670E+02  2.05498E+03  3.91978E+02  5.39203E+02  6.11532E+02 -3.05477E+02  2.44607E+03
 -1.40511E+03  5.51747E+02 -1.31297E+03  3.70984E+02  1.08823E+02 -3.21771E+02  5.52897E+02 -7.72922E+02
  1.14791E+03 -1.26003E+03  8.25561E+02  1.15648E+03  7.00635E+02  1.19642E+03  5.82965E+02  1.13995E+03
 -3.04035E+02  1.47511E+03  3.34777E+02  3.14891E+02  2.23319E+02 -3.28761E+00 -6.51145E+02  1.01959E+02
 -9.82828E+02  1.69778E+03 -2.60287E+03  1.76388E+03 -8.51866E+02  7.68784E+02 -2.76676E+03 -6.73065E+02
 -1.63159E+03 -2.07818E+03  5.61010E+02 -3.18486E+03 -1.87634E+01 -2.18680E+03  3.70343E+03 -1.22123E+03
  2.00706E+03  4.61044E+02  7.97534E+02  2.45968E+02 -2.83767E+02  1.47121E+03 -3.84513E+02  1.28478E+03
 -5.13149E+02  6.34254E+02  5.75820E+02 -7.45990E+02 -1.51332E+03  1.08663E+03 -2.52027E+02 -1.24586E+02
 -8.39007E+02 -2.73365E+02 -9.91299E+02 -9.82795E+02  3.27046E+02 -6.99286E+02 -1.36781E+03 -5.14127E+02
  1.69450E+03 -8.61389E+02  1.65703E+02  2.79210E+02  1.06922E+03  6.32251E+02 -8.99220E+02  8.43613E+02
 -1.85143E+03  1.63853E+03 -6.84529E+02  1.04123E+03  5.95199E+01  8.98978E+02 -1.22362E+02 -6.47721E+01
 -1.90722E+02 -6.12156E+02 -2.39319E+02 -3.51205E+02  1.06032E+03 -1.51149E+03 -6.45274E+01  4.26587E+02
 -1.97384E+02 -5.34381E+02  2.93330E+01  5.63626E+02 -4.81914E+02 -5.03089E+02 -1.42092E+02 -5.34948E+02
  3.14597E+02  1.92287E+02  1.33678E+02  5.13477E+02  4.88626E+02  4.25290E+02  7.88928E+02 -8.30752E+02
 -5.90285E+02  1.60484E+02 -1.37686E+03  1.09770E+02 -2.34323E+02  4.00249E+02 -5.48299E+02 -1.22441E+03
 -4.09492E+02 -2.99009E+00 -1.16535E+03  3.86696E+02 -2.80102E+02 -4.37074E+02  8.61443E+02  6.87063E+02
  3.56364E+02 -3.42533E+02 -7.38150E+02 -7.17429E+01 -1.18288E+02  4.59133E+02 -6.96657E+01 -1.48881E+02
 -2.84565E+02 -1.23469E+03 -1.87679E+03 -4.42793E+02 -1.29205E+03  9.22366E+02 -1.73478E+03 -9.24144E+02
  1.91532E+02  8.52568E+02 -1.20592E+03 -3.18670E+02  1.28579E+03 -1.31817E+03  3.09389E+02  1.59015E+02
  1.27889E+02  5.84793E+02 -7.16216E+02 -1.41116E+02  4.79547E+02  3.11108E+02 -3.28024E+02  5.88556E+02
