 $NMID ID='MM_0lb_SNR200_17hz_g50_46.RAW', FMTDAT='(8E13.5)'
 TRAMP=1., VOLUME=1. $END
  3.10255E+05 -1.80561E+02  3.37634E+05  2.51860E+05  8.34663E+04  3.36621E+05 -1.32600E+05  2.50399E+05
 -1.90100E+05  8.21102E+04 -1.11751E+05 -3.24124E+04  1.34722E+02 -5.12817E+04  5.38349E+04 -3.39773E+02
  3.48077E+04  5.33295E+04 -1.59546E+04  7.47304E+04 -6.05972E+04  6.45663E+04 -8.36337E+04  3.25459E+04
 -7.91670E+04 -1.10479E+04 -5.74165E+04 -5.13008E+04 -1.51824E+04 -6.97224E+04  2.74041E+04 -4.54109E+04
  3.89463E+04  4.02012E+03  1.62329E+04  4.85399E+04 -3.36546E+04  4.66340E+04 -6.60066E+04 -5.14439E+02
 -5.27613E+04 -5.64423E+04 -6.49621E+03 -7.47478E+04  3.38990E+04 -5.46736E+04  4.68543E+04 -1.77791E+04
  4.25882E+04  1.09140E+04  3.10414E+04  2.47429E+04  1.55090E+04  2.84268E+04 -4.38286E+03  2.61853E+04
 -2.12577E+04  1.24823E+04 -1.88403E+04 -4.40512E+03  4.70675E+03 -7.37213E+03  2.14217E+04  1.14833E+04
  8.37224E+03  3.34235E+04 -3.16624E+04  3.58630E+04 -6.21423E+04  2.98419E+03 -5.64288E+04 -4.18256E+04
 -1.19590E+04 -6.20259E+04  3.84623E+04 -4.41849E+04  5.57624E+04 -3.06975E+03  3.27291E+04  3.22812E+04
 -6.25590E+03  3.43981E+04 -2.93710E+04  1.39142E+04 -2.91505E+04 -5.97896E+03 -1.56140E+04 -1.03294E+04
 -8.26479E+03 -1.38749E+04 -1.13852E+03 -1.59178E+04  7.29672E+03 -2.20866E+04  1.46125E+04 -1.34741E+04
  1.24733E+04  4.73272E+03 -7.36989E+03  1.31636E+04 -2.12804E+04 -4.59067E+03 -9.28977E+03 -3.14988E+04
  2.19500E+04 -4.11744E+04  4.66873E+04 -1.95003E+04  4.34964E+04  1.72534E+04  1.57041E+04  4.23732E+04
 -1.61447E+04  3.16750E+04 -2.44625E+04  1.53057E+03 -8.68676E+03 -2.55476E+04  2.02634E+04 -3.26433E+04
  3.89142E+04 -8.52879E+03  3.47104E+04  2.16171E+04  1.70917E+04  4.36250E+04 -7.37169E+03  4.69455E+04
 -3.08819E+04  3.13973E+04 -4.02114E+04  9.18554E+03 -4.02955E+04 -1.51956E+04 -2.13259E+04 -3.67098E+04
  7.15742E+03 -3.55253E+04  2.92062E+04 -1.39869E+04  2.73552E+04  1.07955E+04  3.59269E+03  1.77980E+04
 -1.31151E+04  7.89133E+03 -8.98898E+03 -7.88263E+03  6.40216E+03 -1.08775E+04  1.74610E+04  4.75312E+03
  1.26368E+04  2.13587E+04 -6.20431E+03  2.34263E+04 -2.21514E+04  9.40443E+03 -2.60640E+04 -4.70377E+03
 -1.88708E+04 -1.78067E+04 -6.81007E+03 -1.86277E+04  4.09202E+03 -1.71337E+04  1.32576E+04 -1.47124E+04
  2.39184E+04 -1.08984E+04  2.99613E+04  1.13898E+03  2.18080E+04  1.87416E+04  3.93841E+03  3.43954E+04
 -1.65567E+04  2.92149E+04 -2.67005E+04  8.93870E+03 -2.04354E+04 -1.12905E+04 -4.13774E+03 -1.34084E+04
  2.40345E+03 -4.44717E+03 -4.94095E+03  5.74203E+03 -1.49014E+04  5.05283E+03 -1.45236E+04 -6.26680E+03
 -9.46917E+03 -1.64936E+04  5.31188E+03 -2.09572E+04  1.48139E+04 -1.50726E+04  1.66299E+04 -1.87034E+03
  9.89998E+03  1.11239E+04 -5.47268E+02  1.60638E+04 -1.14985E+04  1.04368E+04 -1.79913E+04 -3.82934E+03
 -1.28803E+04 -1.65600E+04 -2.69904E+03 -1.96559E+04  1.00307E+04 -1.57498E+04  1.68074E+04 -8.21642E+03
  1.57607E+04  4.64833E+01  1.27971E+04  2.95491E+03  6.09997E+03  1.08117E+03  7.06014E+03  1.13588E+02
  1.61308E+04  1.76657E+03  1.60881E+04  1.37500E+04  1.05034E+04  2.60070E+04 -3.46403E+03  2.97343E+04
 -1.74691E+04  2.25242E+04 -2.66283E+04  1.20124E+04 -2.78640E+04 -2.72774E+03 -2.35062E+04 -1.51071E+04
 -1.00688E+04 -2.38504E+04  8.33215E+03 -2.08839E+04  1.87694E+04 -1.17644E+04  1.65960E+04  4.25448E+03
  5.87965E+03  1.20520E+04 -8.99803E+03  1.06520E+04 -1.43790E+04  2.69198E+03 -1.25077E+04 -9.72647E+03
 -7.26185E+02 -1.26543E+04  6.86078E+03 -1.00070E+04  7.97760E+03 -1.07783E+03  1.05389E+03  5.40689E+03
 -6.37208E+03  9.24671E+02 -3.45985E+03 -4.27405E+03  4.38971E+02 -1.07742E+04  7.68300E+03 -1.10077E+04
  1.45969E+04 -7.10655E+03  1.38776E+04  2.93649E+03  1.22652E+04  1.02421E+04  6.22798E+03  1.63777E+04
 -1.67072E+03  1.82490E+04 -9.53490E+03  1.10430E+04 -1.36437E+04  3.38002E+03 -9.41618E+03 -2.50039E+03
 -4.72110E+03 -3.84807E+03 -5.48225E+02  1.27610E+03 -4.87284E+02  1.89798E+03 -4.44535E+03  3.19781E+03
 -7.65538E+03  5.01353E+01 -9.41818E+03 -7.37946E+03 -2.70987E+03 -1.32537E+04  4.26850E+03 -9.80794E+03
  7.57685E+03 -4.14751E+03  6.54470E+03  1.82748E+03  3.08290E+02  4.11936E+03 -4.55966E+03 -4.81425E+02
 -4.30385E+03 -4.72947E+03 -2.98579E+02 -8.45621E+03  5.48318E+03 -9.15169E+03  1.11655E+04 -4.10258E+03
  1.30274E+04  1.26607E+03  9.64145E+03  6.79505E+03  1.75798E+03  9.71357E+03 -5.23489E+03  9.29443E+03
 -7.18772E+03  2.70133E+03 -2.59604E+03 -1.56171E+02  1.21708E+03 -3.13456E+03  5.18897E+03 -3.69194E+02
  4.96359E+03  2.84576E+03  8.57498E+02  7.07096E+03 -5.36480E+03  9.30529E+03 -9.60661E+03  3.76929E+03
 -5.89965E+03 -4.58433E+03  1.00205E+03 -6.84380E+03  3.21129E+03 -3.78481E+03  3.12723E+03  1.78707E+03
 -2.16554E+02  5.14683E+03 -4.75842E+03  5.02348E+03 -5.68251E+03  2.58879E+03 -5.23846E+03 -7.12824E+02
 -4.13646E+03 -8.44490E+03  1.35636E+03 -8.37081E+03  7.02883E+03 -4.95502E+03  8.29388E+03  1.36698E+03
  4.91815E+03  5.93819E+03  4.07725E+02  7.68959E+03 -6.16991E+03  4.25253E+03 -6.22115E+03 -3.44552E+02
 -6.28686E+03 -6.59511E+03 -5.19314E+02 -6.53014E+03  2.50667E+03 -4.94428E+03  3.22466E+03 -2.28415E+03
  3.03774E+03  1.26781E+03  1.24297E+03  1.81595E+03  5.17721E+02 -5.89578E+02  7.35932E+02 -2.06824E+03
  3.82819E+03 -3.19960E+03  7.19095E+03  1.59444E+03  6.94825E+03  4.18550E+03  6.78628E+03  8.41966E+03
 -2.23784E+03  9.93419E+03 -9.00444E+03  7.73111E+03 -1.14307E+04  1.53748E+03 -9.25269E+03 -4.27601E+03
 -5.11425E+03 -8.21905E+03  3.46515E+02 -5.30911E+03  2.33757E+03 -2.02622E+03  3.64769E+03 -2.81638E+03
  2.49283E+03 -1.59904E+03  2.45597E+03 -3.41466E+03  2.73616E+03 -1.14890E+03  4.37693E+03  1.36471E+03
  5.78328E+03  7.87889E+02  1.05859E+03  4.24499E+03 -1.96127E+03  4.74850E+03 -4.68248E+03  4.36848E+03
 -5.38435E+03  1.34623E+02 -2.77061E+03 -3.50342E+03  1.92970E+02 -7.24793E+03  4.00277E+03 -7.67048E+03
  5.71166E+03 -3.87944E+03  7.56555E+03  7.22791E+02  5.15999E+03  5.07255E+03  1.05993E+03  6.28234E+03
 -2.88722E+03  7.45781E+03 -3.65315E+03  2.17083E+03 -2.68815E+03 -4.14021E+02 -7.26631E+02 -1.10581E+03
  5.66811E+02 -1.68019E+02 -1.32222E+03  2.15566E+03 -3.32106E+03  2.52215E+03 -5.04315E+03 -3.56526E+02
 -1.99133E+03 -4.53813E+03  7.51857E+02 -5.65650E+03  3.22159E+03 -4.85596E+03  3.21439E+03 -1.78435E+03
  4.75972E+03  2.81134E+03  2.55889E+03  5.15219E+03 -8.75567E+01  4.71283E+03 -3.47471E+03  3.67890E+03
 -5.12696E+03  6.17501E+02 -4.46019E+03 -2.68474E+03 -5.79497E+02 -3.85813E+03  2.52618E+03 -3.42724E+03
  3.40949E+03 -2.61496E+03  2.85158E+03  4.97785E+02 -2.30902E+02  4.85761E+02 -1.24608E+03  6.18772E+02
  1.27957E+03  4.67757E+02  1.89994E+03  1.59789E+03  1.78583E+03  2.42849E+03  1.45570E+03  2.86904E+03
 -1.22441E+03  4.55174E+03 -3.33364E+03  4.68213E+03 -3.73665E+03  1.65616E+03 -4.71050E+03 -2.90178E+02
 -2.27282E+03 -4.08932E+03  7.71984E+02 -5.72605E+03  3.69954E+03 -2.74204E+03  3.44197E+03 -1.36234E+03
  1.97960E+03  2.60137E+03  7.68478E+02  2.04454E+03 -1.44521E+03  1.30133E+03 -6.58230E+02 -8.36949E+02
 -6.81518E+02 -1.09596E+03  2.20629E+03 -1.41836E+03  2.96774E+03 -1.04592E+03  2.27900E+03  3.29240E+02
  9.62807E+02 -2.79138E+02  1.58611E+03  5.54765E+02  6.36040E+02  1.46178E+03  1.45416E+02 -7.21657E+02
  1.81732E+02 -5.64430E+02  2.30345E+03  6.97999E+01  9.12126E+02  4.16912E+03  1.65852E+01  3.92855E+03
 -3.15764E+03  1.25080E+03 -3.95508E+03  2.03598E+02 -3.03994E+03 -9.24118E+02 -1.36089E+03 -1.32478E+03
  1.54734E+03 -4.08116E+02  5.88249E+02 -9.07037E+02  1.95163E+03  1.22137E+03 -6.19912E+02  9.24775E+02
 -1.33318E+03  1.16109E+03 -1.06917E+03 -2.75942E+03 -4.63977E+02 -1.83262E+03 -1.07338E+02 -3.21829E+03
  5.50348E+02 -7.00507E+02  4.90207E+02 -4.92827E+02  1.83196E+03  1.50794E+02 -7.77282E+02  1.68141E+03
 -2.41187E+02 -9.14033E+01 -2.30533E+03  1.03347E+02  1.11302E+03 -2.27063E+03  2.10227E+03 -3.62104E+02
  1.85517E+03 -1.20018E+02  2.66609E+03  1.43444E+03  8.75892E+01  1.69352E+03 -9.68093E+02  1.31899E+03
 -1.63412E+03  4.45742E+02 -3.12029E+03 -9.92258E+02 -1.44771E+03 -9.05490E+02  9.79027E+02 -1.31689E+03
  1.75781E+03 -1.33844E+02  9.78949E+02  7.98237E+02 -6.24848E+02  1.25961E+03  5.05680E+02  2.07673E+03
  7.74796E+01  2.18614E+03 -4.78438E+02  2.43269E+02  1.29691E+03  1.11011E+03 -1.97458E+03  1.69362E+02
 -1.42796E+03  1.44178E+03 -2.67988E+03 -2.97446E+02 -3.16313E+03  1.08149E+03 -3.55164E+03 -6.08072E+02
 -1.07387E+03 -2.56404E+03  4.19604E+02 -3.84038E+03  9.08662E+02 -3.52832E+03  3.28389E+03 -1.71061E+03
  2.54256E+03 -4.13895E+02  1.88544E+03  1.41902E+03  6.08804E+01  2.16129E+03 -7.21698E+02  1.32011E+03
 -1.63120E+03  1.20351E+03 -6.41199E+02  6.99983E+02 -1.16263E+03 -2.25369E+02 -1.92466E+03  9.62246E+01
 -1.24119E+03 -6.04397E+02 -9.77376E+02 -7.73253E+02  2.76793E+02 -1.37566E+03 -1.18088E+03 -1.07377E+03
  6.48209E+02  2.17120E+02  1.16741E+03  7.35334E+02  1.88776E+03  1.29892E+03 -1.01832E+03  2.61880E+03
 -6.28841E+02  2.40617E+03 -2.30562E+03  1.47258E+03 -2.47511E+03 -1.06251E+03 -2.89024E+02 -1.73393E+03
 -6.94059E+02 -1.42783E+03 -1.90728E+02 -1.67085E+03  1.47236E+03 -8.35976E+02  6.07838E+02  3.06156E+02
  8.57554E+02  4.03470E+02 -5.82550E+02  1.57620E+03 -1.01519E+03  3.82564E+02 -7.02272E+02 -1.60948E+02
  6.55066E+02  3.27343E+02  7.53922E+02  9.58908E+01  8.44204E+02  8.80560E+01 -5.01596E+02  2.60184E+02
 -1.55670E+03  1.12529E+02 -1.57405E+03  4.89010E+02 -1.70801E+03 -5.91791E+02 -7.46873E+02 -1.41101E+03
  1.02188E+03 -8.33050E+01  5.67635E+02  6.24226E+01  1.12492E+03 -1.15517E+02  8.80930E+02  1.42576E+02
  6.87962E+02  9.67657E+02 -3.35995E+02  8.20892E+01 -1.26219E+03  1.71993E+03 -1.46460E+02  1.38651E+03
  1.77191E+02  6.76989E+02 -4.16064E+02  4.37622E+02 -5.68100E+02  7.30355E+02 -1.74373E+03  3.55212E+02
 -1.89227E+03 -2.08636E+02 -7.51344E+02 -9.66528E+02 -3.94394E+02 -1.76048E+03  1.11424E+03 -9.98403E+02
  1.02869E+03 -7.44137E+02  9.66676E+02 -2.12857E+02 -8.18698E+02  1.27452E+03  4.97403E+02  9.83566E+02
