 $NMID ID='MM_0lb_SNR200_19hz_g45_36.RAW', FMTDAT='(8E13.5)'
 TRAMP=1., VOLUME=1. $END
  3.09583E+05  3.83867E+02  3.37514E+05  2.50199E+05  8.45908E+04  3.37595E+05 -1.31515E+05  2.50197E+05
 -1.89299E+05  8.24095E+04 -1.11315E+05 -3.38423E+04  1.37832E+03 -5.04839E+04  5.44697E+04  2.50452E+02
  3.48492E+04  5.22865E+04 -1.67298E+04  7.50893E+04 -6.00733E+04  6.30770E+04 -8.23057E+04  3.26069E+04
 -7.95549E+04 -1.04140E+04 -5.57399E+04 -4.97814E+04 -1.51897E+04 -6.79579E+04  2.61515E+04 -4.48704E+04
  3.74982E+04  3.55640E+03  1.59084E+04  4.76686E+04 -3.33759E+04  4.47154E+04 -6.51844E+04 -6.73993E+02
 -5.17426E+04 -5.54513E+04 -7.03501E+03 -7.55819E+04  3.33198E+04 -5.31724E+04  4.58884E+04 -1.63477E+04
  4.04047E+04  1.05863E+04  3.05397E+04  2.38470E+04  1.52762E+04  2.87597E+04 -4.80191E+03  2.68384E+04
 -2.17095E+04  1.36402E+04 -2.06795E+04 -4.56209E+03  3.08073E+03 -8.03931E+03  2.12706E+04  1.06928E+04
  6.41975E+03  3.29912E+04 -2.83170E+04  3.25013E+04 -6.08829E+04  1.75155E+03 -5.55436E+04 -3.97408E+04
 -1.30882E+04 -6.15193E+04  3.72069E+04 -4.25846E+04  5.60276E+04 -2.01864E+03  3.22052E+04  3.02150E+04
 -6.60183E+03  3.25532E+04 -2.85691E+04  1.26828E+04 -2.65207E+04 -6.53968E+03 -1.43609E+04 -9.66546E+03
 -7.49803E+03 -1.06890E+04 -1.40521E+03 -1.69767E+04  6.10266E+03 -2.17554E+04  1.55696E+04 -1.44035E+04
  1.22908E+04  3.82608E+03 -5.87167E+03  1.17169E+04 -1.89203E+04 -9.56795E+02 -7.67846E+03 -2.95273E+04
  1.95209E+04 -4.02252E+04  4.43714E+04 -1.85587E+04  4.08338E+04  1.86554E+04  1.45573E+04  4.18371E+04
 -1.53711E+04  3.05234E+04 -2.29703E+04  1.33639E+03 -7.90838E+03 -2.65432E+04  2.03791E+04 -3.04742E+04
  3.73576E+04 -6.03584E+03  3.11323E+04  2.24439E+04  1.52958E+04  4.25578E+04 -7.27866E+03  4.38303E+04
 -2.76349E+04  2.93426E+04 -3.68433E+04  7.81355E+03 -3.75010E+04 -1.52365E+04 -2.13947E+04 -3.46797E+04
  7.09610E+03 -3.42083E+04  2.83591E+04 -1.14477E+04  2.74615E+04  1.00605E+04  3.59886E+03  1.78424E+04
 -1.43452E+04  7.24094E+03 -1.01017E+04 -8.69610E+03  6.47645E+03 -1.02689E+04  1.73271E+04  6.45719E+03
  1.19484E+04  2.04742E+04 -6.23319E+03  2.25239E+04 -2.15483E+04  9.10165E+03 -2.43320E+04 -6.57192E+03
 -1.59492E+04 -1.65372E+04 -6.41187E+03 -1.62100E+04  4.23552E+03 -1.34891E+04  1.29596E+04 -1.34357E+04
  1.98502E+04 -1.06037E+04  2.69281E+04  6.55981E+02  2.11652E+04  1.69110E+04  4.65540E+03  3.28339E+04
 -1.58105E+04  2.75806E+04 -2.58688E+04  9.16196E+03 -1.90702E+04 -9.84004E+03 -3.92521E+03 -1.46379E+04
  3.14273E+03 -4.61971E+03 -2.36941E+03  5.40353E+03 -1.20165E+04  5.57646E+03 -1.27893E+04 -3.71293E+03
 -8.24297E+03 -1.52564E+04  5.44927E+03 -1.93826E+04  1.17999E+04 -1.31943E+04  1.46301E+04 -3.19314E+02
  6.57049E+03  1.07496E+04 -7.49680E+02  1.58766E+04 -9.92578E+03  8.74014E+03 -1.47370E+04 -3.63727E+03
 -1.11911E+04 -1.35177E+04 -1.86166E+03 -1.77629E+04  9.18849E+03 -1.48870E+04  1.54051E+04 -6.93885E+03
  1.46040E+04  6.93092E+02  1.01161E+04  3.57060E+03  4.10868E+03  2.28319E+02  7.57854E+03 -3.57691E+02
  1.26741E+04  3.67586E+03  1.43742E+04  1.29622E+04  8.37230E+03  2.44596E+04 -2.32912E+03  2.63427E+04
 -1.62238E+04  1.85887E+04 -2.32404E+04  1.03262E+04 -2.40822E+04 -1.31166E+03 -2.04785E+04 -1.33809E+04
 -9.80354E+03 -2.02503E+04  7.55492E+03 -1.86072E+04  1.59160E+04 -1.11764E+04  1.42773E+04  3.47753E+03
  6.64634E+03  1.09240E+04 -6.86081E+03  1.11221E+04 -1.28518E+04  2.58566E+03 -9.63108E+03 -7.46253E+03
  7.32855E+01 -1.24844E+04  5.93436E+03 -8.43388E+03  7.52060E+03 -1.38410E+03  2.35106E+01  5.57788E+03
 -5.33992E+03  2.41234E+03 -3.22008E+03 -3.88368E+03  1.57315E+03 -8.83997E+03  7.03992E+03 -9.76507E+03
  1.07083E+04 -4.45518E+03  1.12395E+04  3.54344E+03  9.52797E+03  1.00855E+04  3.94659E+03  1.29987E+04
 -6.68737E+02  1.49246E+04 -8.64988E+03  9.89223E+03 -1.15467E+04  2.76930E+03 -7.75590E+03 -2.40606E+03
 -4.24334E+03 -2.34739E+03 -9.46154E+02  1.66044E+03 -2.36625E+03  1.13436E+03 -3.16512E+03  3.27522E+03
 -7.98421E+03 -4.57839E+02 -9.00007E+03 -6.24015E+03 -3.77275E+03 -1.14913E+04  4.36827E+03 -8.51403E+03
  6.85138E+03 -3.56129E+03  4.85874E+03  1.09460E+03  9.97740E+02  2.01413E+03 -2.94417E+03  3.22096E+01
 -3.18056E+03 -5.40759E+03  4.66533E+02 -7.19340E+03  3.42800E+03 -7.42503E+03  9.87548E+03 -3.13635E+03
  1.07384E+04 -4.39029E+02  8.73819E+03  5.10759E+03  1.92779E+03  9.20157E+03 -4.89833E+03  8.21984E+03
 -6.40261E+03  2.36833E+03 -3.46112E+03 -2.24666E+03  3.97101E+02 -1.90939E+03  4.10903E+03 -1.24171E+03
  3.84791E+03  2.95899E+03  1.37663E+03  6.11576E+03 -3.97598E+03  6.27038E+03 -5.65416E+03  3.05753E+03
 -4.42875E+03 -2.62387E+03  2.22205E+02 -6.03538E+03  3.68009E+03 -2.94421E+03  3.61528E+03  1.01843E+03
 -4.37388E+02  3.95286E+03 -3.11024E+03  5.30713E+03 -4.25764E+03  1.99514E+03 -5.44322E+03 -1.15571E+03
 -2.84889E+03 -4.39030E+03  8.86612E+02 -6.97122E+03  5.39815E+03 -4.29405E+03  6.03946E+03  1.02378E+03
  4.90333E+03  4.94113E+03  7.99525E+02  7.23278E+03 -4.97485E+03  4.47730E+03 -4.64585E+03 -8.26857E+02
 -6.13502E+03 -5.00458E+03 -1.50028E+03 -5.35293E+03  1.58353E+03 -4.55982E+03  2.35657E+03 -3.14640E+03
  3.20973E+03  4.93177E+01  1.10940E+02  7.55607E+02  1.57944E+02 -1.08030E+03 -2.83483E+02 -1.53620E+03
  3.34871E+03 -1.04227E+03  4.65093E+03 -3.60509E+02  4.84170E+03  1.31592E+03  4.82877E+03  5.58290E+03
 -1.12250E+03  8.06224E+03 -7.31178E+03  6.12985E+03 -1.00200E+04  1.68210E+03 -5.80299E+03 -2.19822E+03
 -4.55011E+03 -5.70739E+03 -2.12169E+02 -3.58799E+03  2.28533E+03 -1.80690E+03  1.09766E+03 -2.57870E+03
  1.25360E+03 -6.58615E+02  2.21703E+03 -1.89311E+03  3.53798E+03 -9.70910E+02  3.94362E+03  6.19193E+02
  4.35573E+03  1.81944E+03  3.91988E+02  2.27458E+03 -1.87434E+03  2.66350E+03 -4.43171E+03  1.80449E+03
 -4.99283E+03 -9.31452E+02 -1.87655E+03 -3.56561E+03  1.57076E+03 -4.24217E+03  2.45471E+03 -5.76125E+03
  5.00881E+03 -2.67161E+03  6.58159E+03 -1.90593E+01  4.28714E+03  3.98549E+03  1.27786E+03  4.55360E+03
 -1.64100E+03  5.06578E+03 -3.00586E+03  1.70110E+03 -1.58548E+03 -1.46938E+03  1.00978E+03 -5.14976E+02
 -1.18570E+03  5.25042E+02 -1.40342E+03  2.98787E+03 -3.11389E+03  6.90215E+02 -3.69334E+03 -6.11557E+01
 -6.74201E+02 -4.60060E+03  9.56316E+02 -4.68929E+03  2.15248E+03 -4.06490E+03  3.27171E+03 -1.12896E+03
  5.40722E+03  2.23539E+03  1.82143E+03  2.32978E+03 -1.07770E+03  4.09601E+03 -3.22753E+03  9.64658E+02
 -3.05593E+03  1.35501E+03 -4.14145E+03 -1.61526E+03 -7.31113E+02 -2.22489E+03  4.24429E+02 -1.82588E+03
  1.52404E+03 -8.50023E+02  1.34295E+03  3.94304E+01  1.13234E+03  2.01848E+03  4.10557E+02  4.89729E+02
  2.20166E+03  7.92455E+02  4.58590E+02  7.93363E+02  9.26359E+02  2.12747E+03  1.73139E+03  1.42926E+03
 -4.68158E+02  2.38047E+03 -2.20051E+03  4.74853E+03 -3.75703E+03  2.23171E+03 -3.90195E+03 -6.75895E+02
 -1.56457E+03 -2.81199E+03  4.81665E+02 -5.17693E+03  2.02479E+03 -1.01911E+03  2.95077E+03 -1.21566E+03
  2.43847E+03  1.65186E+03 -1.31848E+01  1.02011E+03 -4.93426E+02  2.00479E+03 -1.26427E+03  6.54097E+02
 -5.18178E+01 -6.96015E+02  8.58816E+02 -7.73978E+02  5.82317E+02 -1.35169E+03  1.98844E+03 -4.47725E+02
  1.93353E+03  6.47609E+02  9.37042E+02 -2.46360E+01  3.36745E+01  9.67568E+02  1.72291E+03  6.27347E+02
  6.58113E+02 -1.83737E+02  1.56192E+03  1.32690E+03  7.49184E+02  2.30996E+03  1.12819E+02  2.65046E+03
 -5.20463E+02  1.33082E+03 -1.69559E+03  1.16994E+02 -2.74289E+03 -9.03898E+02  6.75334E+02 -2.17968E+03
 -9.27770E+00 -1.58484E+03  9.76965E+02 -1.13510E+03  4.65586E+01  1.31241E+03 -6.95494E+02  1.06305E+03
 -1.52704E+03  5.54576E+02 -1.25183E+03 -1.72920E+03 -1.12742E+03 -1.42885E+03  5.46892E+02 -1.34808E+03
  2.79606E+02  2.64769E+02  2.94528E+02 -7.10814E+02  1.02309E+03 -1.02811E+03  7.80683E+02  2.21561E+03
  1.52170E+02 -7.44727E+02 -2.72962E+02  1.78200E+02  8.56434E+02 -2.35155E+01  5.21681E+02 -6.81669E+02
  1.65339E+03  2.73360E+02  3.19177E+03  1.58892E+00  1.17145E+03  1.26637E+03  6.46262E+02  6.85616E+02
 -1.59808E+03  1.15511E+02 -1.84955E+03 -4.93519E+02 -9.44570E+01 -1.98343E+03  2.93695E+02 -8.13680E+02
  1.06163E+03  4.36338E+00  9.18121E+02  1.15114E+03 -1.76380E+02  1.03335E+03  5.64916E+01  1.42385E+03
 -9.30725E+02  1.56960E+03 -6.97454E+01 -1.39408E+02 -9.10338E+01  7.84757E+02 -3.53551E+02  6.70786E+02
 -1.19100E+02  9.48853E+02 -1.65357E+03  5.54412E+01 -2.08629E+03  7.85317E+02 -2.03410E+03 -4.28949E+02
 -9.41706E+02 -2.30381E+03  1.74045E+03 -1.70393E+03 -4.59903E+01 -2.45925E+03  2.02383E+03 -3.98504E+02
  2.29654E+03  1.32776E+02  1.85467E+03  5.90808E+02 -6.95716E+02  1.80042E+03 -9.24725E+02  8.69276E+02
 -8.74366E+02  2.30622E+02 -3.40210E+02 -6.66409E+01 -1.03196E+03  8.40575E+02 -6.02462E+02  5.04678E+02
 -9.58456E+02  6.00879E+02 -2.93940E+03 -2.90873E+02  1.19000E+02 -2.44907E+02 -9.22383E+02 -1.01190E+03
  1.85354E+03 -5.62245E+02 -2.95316E+01  8.78320E+02  1.33354E+03  1.22971E+03  3.29382E+02  1.88003E+03
 -1.10246E+03  2.88505E+03 -2.09880E+03  9.84514E+02 -1.43027E+03 -4.31794E+02 -1.76686E+03 -1.72555E+03
 -1.22417E+03 -1.10621E+03 -5.37455E+02 -2.97258E+02  3.86438E+00 -4.44118E+02  4.30800E+02  9.97141E+02
  1.36912E+03  8.55762E+02 -3.72050E+02  7.29887E+02  1.33282E+02 -1.00008E+03  3.72197E+01  2.78466E+01
  5.41973E+02 -6.87405E+02  3.77003E+02  1.18323E+03  1.09754E+03  7.78945E+01  2.29465E+02 -1.80194E+02
 -1.01086E+03  3.50400E+02 -9.62527E+02  9.22097E+02 -2.82557E+02 -8.48119E+02 -4.38084E+02 -4.86890E+02
  6.22674E+02 -3.28650E+02 -6.45203E+02 -9.34680E+02  8.00383E+02 -6.90269E+01  5.96417E+02 -8.44079E+02
  1.75357E+01 -1.07986E+01 -6.06077E+02  3.18135E+02 -1.63795E+03  1.09730E+02 -4.20778E+02 -5.86793E+02
 -1.72908E+01 -1.33296E+02 -1.18311E+02  8.71463E+02  2.25809E+02  9.40162E+02  8.21555E+01  6.35320E+02
 -1.51246E+03  5.56225E+02 -2.83363E+02 -2.95301E+02  9.92573E+01 -1.04275E+03  4.62200E+02 -4.64172E+02
 -5.33787E+02 -2.90534E+02  5.75565E+02  9.80614E+02 -5.78232E+02  1.01686E+03 -1.86716E+02  8.24582E+02
