 $NMID ID='MM_0lb_SNR200_19hz_g60_87.RAW', FMTDAT='(8E13.5)'
 TRAMP=1., VOLUME=1. $END
  3.10116E+05  1.21821E+03  3.37878E+05  2.49856E+05  8.54232E+04  3.38156E+05 -1.33388E+05  2.50897E+05
 -1.90948E+05  8.30812E+04 -1.11996E+05 -3.26455E+04  1.56726E+03 -5.07356E+04  5.31852E+04 -1.02933E+03
  3.48347E+04  5.37575E+04 -1.69793E+04  7.53939E+04 -6.07056E+04  6.24789E+04 -8.41107E+04  3.15006E+04
 -8.08254E+04 -1.16852E+04 -5.63813E+04 -5.12245E+04 -1.52164E+04 -6.87317E+04  2.70576E+04 -4.49770E+04
  3.89888E+04  4.37259E+03  1.51812E+04  4.78445E+04 -3.48112E+04  4.69624E+04 -6.62007E+04 -1.04368E+03
 -5.21631E+04 -5.60438E+04 -6.62609E+03 -7.57340E+04  3.37081E+04 -5.43854E+04  4.78184E+04 -1.64482E+04
  4.28264E+04  1.24749E+04  3.10153E+04  2.47067E+04  1.52548E+04  2.98705E+04 -4.34740E+03  2.66129E+04
 -2.31956E+04  1.20280E+04 -1.77180E+04 -4.44254E+03  5.18490E+03 -8.87421E+03  2.14493E+04  1.07059E+04
  8.02391E+03  3.46093E+04 -3.26292E+04  3.49810E+04 -6.28468E+04  2.41911E+03 -5.62055E+04 -4.17742E+04
 -1.22806E+04 -6.24717E+04  3.91624E+04 -4.34683E+04  5.68222E+04 -2.31131E+03  3.33774E+04  3.05603E+04
 -5.26292E+03  3.48013E+04 -2.79268E+04  1.46540E+04 -2.94350E+04 -5.06462E+03 -1.59076E+04 -1.13425E+04
 -7.81197E+03 -1.30891E+04 -7.00317E+02 -1.65688E+04  6.67784E+03 -2.33481E+04  1.57975E+04 -1.41409E+04
  1.19434E+04  4.90026E+03 -6.93003E+03  1.21207E+04 -2.12991E+04 -3.81426E+03 -7.76836E+03 -3.23750E+04
  2.13889E+04 -4.17437E+04  4.66750E+04 -1.86111E+04  4.33720E+04  2.00748E+04  1.38959E+04  4.18818E+04
 -1.53211E+04  3.18738E+04 -2.28993E+04  1.87969E+03 -9.34805E+03 -2.69383E+04  2.02805E+04 -3.16282E+04
  3.93246E+04 -8.90122E+03  3.30744E+04  2.36107E+04  1.62751E+04  4.36637E+04 -7.76843E+03  4.72942E+04
 -2.93641E+04  3.04901E+04 -3.92414E+04  9.10358E+03 -3.92789E+04 -1.50095E+04 -2.33992E+04 -3.54687E+04
  6.99679E+03 -3.53931E+04  2.95486E+04 -1.40085E+04  2.72311E+04  1.10162E+04  3.33157E+03  1.87550E+04
 -1.31744E+04  7.82202E+03 -9.03918E+03 -6.46818E+03  5.46582E+03 -1.07484E+04  1.72936E+04  6.42488E+03
  1.26915E+04  2.11959E+04 -6.03984E+03  2.47887E+04 -2.08337E+04  9.96119E+03 -2.53324E+04 -5.01392E+03
 -1.73764E+04 -1.61957E+04 -6.50813E+03 -1.79610E+04  3.02202E+03 -1.62993E+04  1.32368E+04 -1.52368E+04
  2.34027E+04 -1.24346E+04  2.93171E+04  6.03411E+02  2.25460E+04  1.72718E+04  4.25581E+03  3.40485E+04
 -1.75572E+04  2.78534E+04 -2.72167E+04  9.30627E+03 -1.88327E+04 -9.72499E+03 -4.05895E+03 -1.32119E+04
  1.89664E+03 -4.17168E+03 -3.20664E+03  6.75891E+03 -1.49623E+04  5.18530E+03 -1.44867E+04 -5.90648E+03
 -8.60799E+03 -1.57043E+04  5.90541E+03 -2.00145E+04  1.31125E+04 -1.56917E+04  1.51137E+04 -6.11229E+02
  1.01470E+04  1.12924E+04 -8.21998E+02  1.62044E+04 -1.06957E+04  9.22101E+03 -1.49912E+04 -3.32675E+03
 -1.21896E+04 -1.45660E+04 -1.40633E+03 -2.07682E+04  8.54249E+03 -1.55302E+04  1.58728E+04 -7.35782E+03
  1.65965E+04  8.31747E+02  1.00840E+04  3.92702E+03  5.22074E+03  1.57828E+03  8.33184E+03 -1.14933E+03
  1.55420E+04  1.89883E+03  1.66521E+04  1.34363E+04  8.75480E+03  2.67511E+04 -3.29971E+03  2.88628E+04
 -1.68512E+04  2.14059E+04 -2.68485E+04  1.06503E+04 -2.70363E+04 -2.07889E+03 -2.31244E+04 -1.51033E+04
 -1.02978E+04 -2.22053E+04  7.22455E+03 -2.02502E+04  1.80804E+04 -1.19303E+04  1.66675E+04  4.24156E+03
  7.14822E+03  1.21598E+04 -7.99371E+03  1.03945E+04 -1.46737E+04  1.24010E+03 -1.07633E+04 -8.36531E+03
 -3.46622E+02 -1.14027E+04  6.70265E+03 -9.47210E+03  8.07643E+03 -1.45762E+02  1.68588E+03  6.53976E+03
 -5.34407E+03  9.89345E+02 -3.72081E+03 -5.40324E+03  2.79956E+02 -1.00584E+04  8.05173E+03 -1.11369E+04
  1.29233E+04 -3.89323E+03  1.19892E+04  2.46801E+03  1.07423E+04  1.09863E+04  5.96063E+03  1.60746E+04
 -2.39820E+03  1.67496E+04 -1.02232E+04  1.09472E+04 -1.25145E+04  2.36626E+03 -9.20539E+03 -2.75634E+03
 -4.50400E+03 -3.61586E+03 -1.20934E+03  1.55525E+03 -2.19323E+03  1.92614E+03 -4.69936E+03  3.13806E+03
 -8.40764E+03 -9.91115E+02 -8.98047E+03 -8.10679E+03 -3.09784E+03 -1.28689E+04  4.39766E+03 -8.24347E+03
  8.72020E+03 -4.40665E+03  5.66733E+03  1.89439E+03  4.34247E+02  3.52588E+03 -4.01949E+03  1.90113E+02
 -4.14904E+03 -5.31837E+03 -1.62089E+03 -8.36690E+03  4.74040E+03 -8.16549E+03  9.96309E+03 -4.28086E+03
  1.21736E+04  7.30372E+02  8.46671E+03  7.00526E+03  1.19587E+03  8.63316E+03 -5.69308E+03  8.76093E+03
 -7.39156E+03  3.78854E+03 -2.93265E+03 -3.30573E+02  1.05906E+03 -1.39021E+03  5.91264E+03 -8.20808E+01
  3.69096E+03  4.28682E+03  3.12373E+02  7.77308E+03 -4.95908E+03  6.05161E+03 -8.42629E+03  1.54915E+03
 -5.06517E+03 -3.58998E+03 -2.37978E+02 -5.92580E+03  4.22969E+03 -1.71586E+03  2.70074E+03  6.42847E+02
 -2.81394E+02  3.28671E+03 -4.13629E+03  4.96421E+03 -5.06583E+03  2.59010E+03 -5.35604E+03 -1.68650E+03
 -3.10715E+03 -6.83117E+03  9.99640E+02 -7.66532E+03  5.40253E+03 -5.05440E+03  7.77362E+03  1.25702E+03
  4.95090E+03  4.95251E+03  5.05076E+02  7.53428E+03 -5.17964E+03  4.22158E+03 -5.77447E+03 -1.21130E+03
 -4.84985E+03 -6.28447E+03 -4.84135E+02 -5.58599E+03  1.75902E+03 -4.65409E+03  2.60511E+03 -3.14054E+03
  2.83106E+03  5.08486E+01  4.29554E+02  1.40711E+03 -3.13959E+02  8.74492E+02 -7.31746E+02 -2.36067E+03
  3.74002E+03 -1.89670E+03  5.71583E+03  1.17613E+03  4.99027E+03  3.35248E+03  4.08684E+03  8.02090E+03
 -7.82946E+02  8.48350E+03 -8.96616E+03  6.80664E+03 -9.32908E+03  1.02910E+03 -8.26903E+03 -2.52402E+03
 -4.66262E+03 -8.04259E+03  1.23939E+02 -5.41576E+03  2.87398E+03 -2.93273E+03  2.74372E+03 -1.46025E+03
  4.39171E+02 -1.49770E+03  1.92667E+03 -2.41288E+03  3.60839E+03 -1.08165E+03  4.22827E+03  6.48133E+02
  4.04581E+03  1.31976E+03  6.46705E+02  3.01413E+03 -3.03965E+03  1.85964E+03 -4.05351E+03  3.25576E+03
 -4.93844E+03 -8.71310E+02 -2.13315E+03 -2.82854E+03 -3.65288E+01 -5.34251E+03  4.24196E+03 -4.22165E+03
  5.63608E+03 -2.48897E+03  5.87405E+03 -5.30686E+02  5.33751E+03  4.60719E+03  1.22642E+03  5.32779E+03
 -1.86918E+03  4.93840E+03 -3.75783E+03  1.85500E+03 -1.73931E+03 -1.53867E+02 -9.83792E+02 -5.26051E+02
 -4.75309E+02  3.95829E+01 -6.40028E+02  9.71017E+02 -1.84042E+03  8.73293E+02 -4.12633E+03 -7.90884E+02
 -1.13599E+03 -3.95743E+03  2.03890E+03 -5.01705E+03  1.47417E+03 -3.58175E+03  3.32778E+03  3.72912E+01
  4.55040E+03  1.96545E+03  1.51633E+03  2.49024E+03 -9.28399E+01  5.12838E+03 -2.71129E+03  1.82621E+03
 -4.34099E+03  4.75631E+02 -3.47777E+03 -2.58090E+03  2.03094E+02 -3.83929E+03  2.08921E+03 -2.25105E+03
  2.90070E+03 -2.02329E+03  1.11475E+03 -8.90189E+02  3.24227E+02  1.58871E+03  8.89732E+02  3.97908E+02
  1.12456E+03  1.32939E+03  1.81816E+03  8.17512E+02  2.21199E+03  1.36641E+03  2.14575E+03  1.31904E+03
 -1.26919E+03  3.06717E+03 -2.42652E+03  3.96478E+03 -3.51877E+03  6.73702E+02 -4.72700E+03 -1.43473E+03
  3.99097E+02 -2.59331E+03  4.63972E+02 -4.56434E+03  1.33872E+03 -2.90475E+03  2.89371E+03 -7.36323E+02
  9.99992E+02  2.40947E+03  9.27680E+02  3.30951E+03 -8.53701E+02  1.32687E+03 -1.04202E+03 -5.87713E+02
 -5.13865E+02 -1.34932E+03  8.34066E+02 -8.61135E+02  1.62500E+03 -1.41762E+03  1.05008E+03 -4.06793E+02
  7.69813E+02  4.66837E+02  7.38791E+02  4.67893E+02 -5.21686E+02  1.21308E+03  1.51628E+03  9.98017E+01
  2.12190E+02  3.19372E+02  2.30500E+03  1.37465E+02 -3.47999E+02  2.33311E+03 -6.74344E+02  3.58612E+03
 -4.38056E+02  2.11677E+02 -1.82266E+03  7.89864E+02 -3.05056E+03 -1.27166E+03  2.53497E+02 -1.20659E+03
  7.34719E+02 -1.16008E+03  7.90779E+02  3.17445E+02  1.03174E+03  1.29309E+03 -5.49577E+02  1.45212E+03
 -6.90245E+01  1.34219E+02 -4.12676E+02 -1.61130E+03  4.59946E+01 -8.28178E+02  5.06216E+02 -2.27861E+03
  5.59087E+02 -8.96425E+02 -1.47854E+02 -6.54213E+02 -8.92871E+01 -1.04467E+03  4.08403E+02  3.41669E+02
 -4.31580E+02 -1.52223E+03 -7.94318E+02 -8.58048E+01  8.87666E+02 -1.01922E+03  1.26748E+03 -2.19096E+03
  1.10288E+03 -7.40008E+01  2.08502E+03  9.53562E+02  1.30702E+03  1.57041E+03 -7.69648E+02  1.99566E+03
 -1.83688E+03  3.61481E+01 -3.97750E+02 -3.90326E+02 -1.36335E+03 -8.65850E+02  2.35600E+02  9.36410E+02
  6.29127E+02 -8.64961E+01  9.81932E+02  1.23695E+03 -4.53239E+02  1.20813E+03  8.37608E+02  6.42491E+02
 -3.51889E+02  4.42842E+02  2.32205E+01  3.12399E+02 -9.87220E+02  9.84516E+02 -5.98397E+02  5.56656E+02
 -1.23282E+02  6.80356E+02 -1.69333E+03  8.61552E+02 -1.49348E+03 -9.82131E+02 -2.10595E+03 -1.99290E+03
 -8.84770E+02 -1.28148E+03  6.63486E+02 -2.57325E+03  1.10541E+03 -2.16332E+03  1.75840E+03 -1.09359E+03
  1.88637E+03 -1.26585E+02 -4.95221E+02  1.31101E+03 -1.10298E+03  9.91640E+02 -6.97202E+02  1.14885E+03
 -1.29030E+03  1.26416E+03 -8.33333E+02  2.72277E+02 -4.25315E+02 -1.11579E+02 -7.17702E+02  2.53218E+02
 -7.50467E+02 -9.43122E+01 -9.64676E+02 -2.24105E+02 -1.44286E+01 -7.37985E+02  4.95716E+02 -6.08824E+02
  1.29848E+03  1.00660E+02 -3.60887E+02 -3.07009E+02  1.06413E+03  1.40446E+03  6.87344E+02  7.98427E+02
 -3.00292E+02  1.72027E+03 -1.06018E+03  4.68013E+02 -1.75199E+03  1.06437E+02 -1.71856E+03 -2.30146E+03
 -1.49900E+03 -1.20285E+03  5.83761E+02 -2.94152E+02  8.73195E+02  1.67490E+02  2.50920E+02  8.54340E+02
  2.12542E+03 -1.89721E+02  8.30196E+02 -1.98584E+02 -3.57379E+01  2.67053E+02 -4.24049E+02  5.85239E+02
  4.86790E+02 -7.63655E+02  4.75494E+02  8.52902E+02  2.92167E+02  6.79303E+02  1.85397E+03 -5.68643E+02
  1.74454E+02  1.16422E+03 -1.13629E+03  1.06759E+03 -8.44546E+02  1.35270E+02  7.41016E+02 -7.71375E+02
  1.31114E+02 -3.50113E+02  1.22047E+03 -7.78588E+02 -3.62274E+02 -2.60598E+02 -3.86046E+02  3.55798E+02
 -1.95588E+02 -4.67737E+02  3.23734E+02  3.77220E+01 -1.60032E+03  8.98929E+02 -4.94251E+02  7.77688E+01
  9.77203E+01 -3.13251E+02 -5.02855E+02  4.60034E+02  3.86860E+02 -3.22709E+02 -7.99610E+02 -1.16726E+03
 -1.16061E+03  1.40693E+03  8.38051E+02 -7.88351E+02  1.31982E+02 -1.32107E+03 -2.46216E+02 -8.10096E+02
 -6.80796E+02 -4.89605E+01 -3.55282E+02 -5.39732E+02  6.91472E+02  2.79821E+02 -8.43853E+01  5.31540E+02
