 $NMID ID='MM_0lb_SNR200_16hz_g40_81.RAW', FMTDAT='(8E13.5)'
 TRAMP=1., VOLUME=1. $END
  3.09809E+05 -6.05795E+02  3.36849E+05  2.49921E+05  8.40923E+04  3.37874E+05 -1.32382E+05  2.50186E+05
 -1.88256E+05  8.27439E+04 -1.12695E+05 -3.30800E+04  1.44804E+03 -5.03947E+04  5.29405E+04  1.32545E+02
  3.60538E+04  5.35611E+04 -1.73661E+04  7.61520E+04 -6.01127E+04  6.24254E+04 -8.30884E+04  3.04800E+04
 -8.00980E+04 -1.09625E+04 -5.60435E+04 -5.03695E+04 -1.42841E+04 -6.92786E+04  2.77068E+04 -4.37324E+04
  4.01135E+04  3.86161E+03  1.70217E+04  4.72782E+04 -3.33764E+04  4.69523E+04 -6.60742E+04 -3.69958E+02
 -5.15226E+04 -5.70446E+04 -6.22190E+03 -7.49730E+04  3.44926E+04 -5.41398E+04  4.68266E+04 -1.72604E+04
  4.22576E+04  1.11537E+04  3.04994E+04  2.36479E+04  1.58635E+04  2.80359E+04 -5.01627E+03  2.69398E+04
 -2.27214E+04  1.22794E+04 -2.05973E+04 -5.28164E+03  4.28081E+03 -7.61276E+03  2.18688E+04  1.13442E+04
  7.00958E+03  3.35337E+04 -3.08833E+04  3.37217E+04 -6.16198E+04  2.02627E+03 -5.56969E+04 -4.10060E+04
 -1.27676E+04 -6.22163E+04  3.95116E+04 -4.37491E+04  5.67436E+04 -2.02756E+03  3.26156E+04  3.09787E+04
 -6.07605E+03  3.41444E+04 -2.94045E+04  1.42059E+04 -2.85218E+04 -4.70308E+03 -1.54979E+04 -1.01006E+04
 -8.25424E+03 -1.19385E+04  6.24962E+02 -1.81574E+04  6.38462E+03 -2.22448E+04  1.37382E+04 -1.46983E+04
  1.17323E+04  4.49971E+03 -6.52415E+03  1.28366E+04 -1.88141E+04 -3.37455E+03 -8.39465E+03 -3.15035E+04
  2.08392E+04 -4.23142E+04  4.57831E+04 -1.94708E+04  4.37807E+04  1.87595E+04  1.41962E+04  4.18637E+04
 -1.58554E+04  3.16049E+04 -2.36256E+04  1.27051E+03 -8.11715E+03 -2.64287E+04  1.96518E+04 -3.12506E+04
  3.95728E+04 -7.24831E+03  3.25078E+04  2.37464E+04  1.64717E+04  4.24336E+04 -7.36075E+03  4.64571E+04
 -2.86255E+04  3.09674E+04 -3.78767E+04  8.26591E+03 -3.80938E+04 -1.54587E+04 -2.11540E+04 -3.61932E+04
  7.08740E+03 -3.54189E+04  2.95391E+04 -1.30803E+04  2.72931E+04  1.11815E+04  2.86102E+03  1.85072E+04
 -1.29026E+04  7.59826E+03 -8.88105E+03 -8.30811E+03  5.50509E+03 -1.09934E+04  1.82161E+04  7.22994E+03
  1.23639E+04  2.16376E+04 -6.06775E+03  2.31950E+04 -2.26800E+04  1.10766E+04 -2.66554E+04 -5.08762E+03
 -1.71881E+04 -1.70199E+04 -8.11308E+03 -1.81642E+04  3.20103E+03 -1.68504E+04  1.39433E+04 -1.63405E+04
  2.39855E+04 -1.24397E+04  2.97453E+04  9.82656E+02  2.30156E+04  1.75776E+04  4.58971E+03  3.39487E+04
 -1.65816E+04  2.90764E+04 -2.60652E+04  1.03613E+04 -1.98614E+04 -1.02228E+04 -2.83087E+03 -1.32383E+04
  8.55466E+02 -3.46339E+03 -3.46771E+03  7.46344E+03 -1.47504E+04  6.12663E+03 -1.53981E+04 -6.10788E+03
 -9.19622E+03 -1.76590E+04  4.12439E+03 -2.12382E+04  1.49890E+04 -1.38466E+04  1.66497E+04 -2.27978E+03
  9.02503E+03  1.17872E+04 -1.27890E+03  1.73107E+04 -1.23478E+04  9.49354E+03 -1.56515E+04 -2.72327E+03
 -1.24083E+04 -1.52158E+04 -1.36821E+03 -1.96312E+04  8.96570E+03 -1.62131E+04  1.72827E+04 -7.92916E+03
  1.53301E+04  1.14213E+01  1.21647E+04  4.52324E+03  6.04549E+03  5.20328E+02  9.71972E+03 -4.47412E+02
  1.47192E+04  2.03063E+03  1.62054E+04  1.25554E+04  1.05313E+04  2.65786E+04 -2.01260E+03  2.95126E+04
 -1.70879E+04  2.33521E+04 -2.71045E+04  1.19594E+04 -2.79746E+04 -1.96896E+03 -2.35008E+04 -1.73883E+04
 -1.16408E+04 -2.21856E+04  7.21994E+03 -2.13840E+04  1.84291E+04 -1.14733E+04  1.76126E+04  3.72148E+03
  6.54272E+03  1.16248E+04 -8.71002E+03  1.25172E+04 -1.55813E+04  3.97340E+03 -1.08439E+04 -8.81805E+03
 -5.65114E+02 -1.19739E+04  6.59729E+03 -1.06223E+04  7.88514E+03 -1.88070E+03  1.08161E+03  4.99452E+03
 -5.75808E+03  1.65700E+03 -4.09577E+03 -5.12042E+03  1.19398E+03 -1.18430E+04  8.54643E+03 -1.22347E+04
  1.36493E+04 -6.05236E+03  1.42382E+04  2.93149E+03  1.20381E+04  1.03586E+04  6.19075E+03  1.62982E+04
 -2.52699E+03  1.72853E+04 -1.03685E+04  1.30217E+04 -1.27309E+04  3.07762E+03 -9.79868E+03 -3.46095E+03
 -5.40584E+03 -3.80059E+03 -8.79750E+02  2.17021E+03 -2.58894E+03  1.20443E+03 -2.29663E+03  4.32982E+03
 -9.00013E+03 -4.37793E+02 -9.19121E+03 -7.22072E+03 -3.94252E+03 -1.28843E+04  4.09622E+03 -9.46969E+03
  7.39239E+03 -3.87213E+03  6.35578E+03  2.40656E+03  1.86350E+02  3.39060E+03 -3.69898E+03 -1.71715E+02
 -3.55363E+03 -6.49628E+03  3.91738E+02 -8.53216E+03  3.83019E+03 -8.48783E+03  1.10111E+04 -4.40804E+03
  1.38761E+04  2.14235E+03  9.56970E+03  8.22761E+03  1.17276E+03  1.13479E+04 -6.82301E+03  9.30510E+03
 -7.92340E+03  2.90819E+03 -2.78221E+03 -9.24451E+02  2.04077E+03 -2.62488E+03  4.35605E+03 -1.42965E+03
  4.97171E+03  4.71612E+03  2.38163E+03  8.07456E+03 -5.07331E+03  6.72741E+03 -8.51666E+03  1.26808E+03
 -6.15909E+03 -4.71753E+03 -4.34336E+02 -7.86727E+03  5.02775E+03 -3.53042E+03  4.09179E+03  1.39150E+03
  1.95652E+03  3.35224E+03 -5.23832E+03  5.87715E+03 -6.92800E+03  3.01745E+03 -5.84515E+03 -1.63659E+03
 -4.83177E+03 -7.30824E+03  1.45484E+03 -9.05454E+03  7.28853E+03 -6.74482E+03  8.10956E+03  1.79208E+03
  5.70801E+03  6.91328E+03  2.76754E+02  7.26396E+03 -6.34443E+03  5.57072E+03 -7.03294E+03 -7.87082E+01
 -6.23945E+03 -6.98999E+03 -2.33001E+03 -7.07552E+03  3.42597E+03 -5.54779E+03  2.52149E+03 -3.52206E+03
  3.26312E+03  6.23641E+02 -2.54784E+01  3.74137E+02  1.29080E+03 -4.12667E+02  7.32529E+02 -2.01451E+03
  5.12386E+03 -1.33070E+03  7.47491E+03  3.04398E+02  7.00161E+03  5.05653E+03  5.80508E+03  8.85883E+03
 -1.65286E+03  1.18125E+04 -8.54082E+03  8.15384E+03 -1.16779E+04  2.30003E+03 -9.72800E+03 -3.19601E+03
 -6.31143E+03 -9.47815E+03 -6.86030E+02 -6.75982E+03  1.69108E+03 -2.35430E+03  1.17361E+03 -1.99610E+03
  2.21274E+03 -1.67348E+03  3.64262E+03 -2.68900E+03  3.47594E+03 -1.73554E+03  3.97128E+03  9.59884E+01
  3.42654E+03  3.25177E+02  1.83154E+03  3.95072E+03 -1.42204E+03  4.85366E+03 -6.50455E+03  3.69482E+03
 -6.40034E+03 -6.00648E+02 -2.29663E+03 -3.66376E+03 -2.32826E+02 -6.40973E+03  4.26113E+03 -7.62239E+03
  6.99916E+03 -4.23566E+03  7.99410E+03  5.20414E+02  5.78913E+03  4.77304E+03  1.14522E+03  7.72860E+03
 -3.41156E+03  6.63497E+03 -4.93842E+03  1.44963E+03 -2.84731E+03 -2.80066E+03 -1.13088E+03 -7.84579E+02
 -1.86841E+03  8.74532E+02 -1.06032E+03  1.16887E+03 -2.51333E+03  5.77690E+02 -4.56128E+03  1.06134E+02
 -2.02204E+03 -4.00648E+03  1.47626E+03 -5.63393E+03  3.97474E+03 -5.87348E+03  5.55786E+03 -2.35563E+03
  6.80388E+03  4.19129E+03  2.61894E+03  4.88865E+03 -1.41984E+03  5.72220E+03 -3.36299E+03  3.17418E+03
 -5.09399E+03  1.02659E+03 -4.69664E+03 -3.06860E+03  1.24676E+02 -6.08544E+03  2.47202E+03 -3.63906E+03
  2.60434E+03 -2.20432E+03  1.25961E+03  7.29214E+02  9.76416E+02  1.71000E+03  2.57801E+02  7.70909E+02
  6.56039E+02  9.72997E+02  1.20590E+03  4.62766E+02  9.17524E+02  2.82031E+03  1.73736E+03  2.20314E+03
 -1.00604E+03  3.88544E+03 -4.28836E+03  5.66653E+03 -5.22002E+03  1.25889E+03 -5.79679E+03 -1.23654E+03
 -2.46212E+03 -5.95199E+03  1.95502E+03 -6.57454E+03  3.14185E+03 -3.49317E+03  5.14068E+03 -2.10202E+02
  2.94494E+03  3.21876E+03  2.89732E+02  4.45363E+03 -1.04701E+02  2.09628E+03 -2.01545E+03 -4.44909E+02
 -4.29764E+02 -1.81895E+03  1.24118E+03 -9.55964E+02  2.91048E+03 -2.35623E+03  1.54394E+03 -5.05187E+02
  1.18436E+03 -3.95497E+02  9.28238E+02  3.74706E+02 -7.93283E+02  1.52129E+02  1.30909E+03  1.43170E+02
  1.61924E+03 -1.69397E+03  2.51684E+03  5.63748E+02 -1.79602E+02  2.41340E+03 -5.34709E+02  4.73231E+03
 -2.26076E+03  1.32882E+03 -3.32288E+03  1.04678E+03 -2.59914E+03 -1.30851E+03 -1.23064E+03 -2.30994E+03
 -1.82064E+02 -1.86646E+03  2.30433E+03 -9.65594E+02  5.11722E+02  1.74524E+03 -1.76376E+03  2.15575E+03
 -2.94407E+03  1.24572E+03 -1.56283E+03 -1.14395E+03 -1.45243E+03 -2.47526E+03 -6.40611E+01 -2.50503E+03
 -1.14800E+02 -7.74977E+02  1.32391E+03  3.46110E+02  3.03339E+03  1.05616E+03  5.20857E+02  5.10478E+02
 -6.43142E+02  1.48372E+02 -1.92451E+03  4.86180E+01  3.32341E+02 -1.30404E+03  1.45039E+03 -1.58696E+03
  1.04774E+03  1.73765E+02  3.83581E+03  1.50014E+03  2.41525E+03  2.03683E+03 -2.42162E+03  2.66137E+03
 -2.41859E+03 -5.30866E+01 -1.93493E+03  1.06246E+03 -1.13870E+03 -1.66243E+03 -1.53691E+03  8.75809E+01
  4.19722E+03 -7.86439E+02  5.43596E+02  1.36146E+03 -2.92953E+02  3.27675E+03  3.41477E+02  1.79629E+03
 -6.16085E+02  7.47258E+02 -5.96562E+02  3.78384E+02  6.98422E+02  1.23750E+03 -5.37691E+01  4.33875E+02
 -1.28623E+03  8.03901E+02 -2.94510E+03  1.90649E+03 -3.43277E+03 -3.49556E+02 -3.10534E+03 -2.13019E+03
 -1.11947E+03 -3.71003E+03  4.41461E+02 -4.42542E+03  1.48342E+03 -2.71317E+03  4.78573E+03 -2.30734E+03
  3.97694E+03  7.94718E+02  1.81827E+03  2.34856E+03 -9.16853E+02  3.28052E+03 -2.32740E+03  1.81844E+03
 -2.09386E+03  5.10502E+02  2.54049E+02 -8.39374E+02 -1.35652E+03  2.38396E+02 -7.12045E+02 -1.04016E+03
 -1.27675E+03 -2.47752E+01 -7.42519E+02 -8.83673E+02 -2.63590E+02 -1.04250E+03 -6.28465E+02 -1.53632E+03
  2.33890E+03 -9.79320E+02  1.43029E+03  5.76086E+02  2.15218E+03  1.63755E+03 -1.38342E+03  2.69244E+03
 -1.58890E+03  4.34890E+03 -3.53246E+03  2.80595E+03 -3.20288E+03 -9.47906E+02 -2.38359E+03 -3.14141E+03
 -1.26973E+03 -2.89637E+03  1.28231E+03 -2.53711E+03  9.32825E+02 -1.11837E+03 -5.01641E+02  2.85230E+02
  1.53496E+03  7.76517E+02 -5.05850E+02  1.24497E+03 -4.14233E+02 -4.86630E+02 -8.66207E+02  1.39491E+02
  9.57865E+02 -9.03563E+02  1.94861E+02  2.41924E+02  3.72674E+02  1.12456E+03  8.12948E+01  6.59779E+02
 -1.24356E+03  4.66065E+02 -1.16378E+03  4.29393E+02 -1.26706E+03 -4.84154E+02  5.19122E+02 -1.85823E+03
 -2.91103E+02 -1.95352E+03  1.94216E+03 -9.92829E+02  2.14314E+03 -3.86945E+02  1.13799E+03  1.65104E+03
  5.72226E+02  2.56894E+03  4.70414E+02  3.84399E+02 -1.64008E+03  1.88345E+02 -1.46383E+03 -5.32938E+02
  1.88781E+02  4.38191E+02  4.34512E+02 -4.41577E+02 -4.97416E+02  4.84926E+02 -2.69021E+03 -7.61334E+02
 -2.08010E+03 -1.25507E+03 -9.91693E+02 -1.29942E+03  8.28743E+02 -2.33617E+03  2.11936E+03 -1.42557E+03
  1.55491E+03  4.53872E+02  5.06740E+02  8.18069E+02  5.41046E+02  1.65581E+03 -7.63125E+01  1.10335E+03
