 $NMID ID='MM_0lb_SNR200_18hz_g50_91.RAW', FMTDAT='(8E13.5)'
 TRAMP=1., VOLUME=1. $END
  3.09768E+05  3.60754E+02  3.37458E+05  2.50383E+05  8.48151E+04  3.36290E+05 -1.32548E+05  2.50228E+05
 -1.89354E+05  8.29196E+04 -1.10551E+05 -3.19760E+04  7.48291E+02 -5.04528E+04  5.44994E+04  3.51008E+01
  3.50681E+04  5.38339E+04 -1.69865E+04  7.52487E+04 -6.04448E+04  6.41901E+04 -8.31158E+04  3.14046E+04
 -7.97803E+04 -1.15343E+04 -5.66203E+04 -4.96624E+04 -1.46808E+04 -6.74496E+04  2.83685E+04 -4.55264E+04
  4.04681E+04  4.26742E+03  1.56742E+04  4.66549E+04 -3.42709E+04  4.58492E+04 -6.69806E+04  9.67866E+01
 -5.23169E+04 -5.51882E+04 -5.93076E+03 -7.60416E+04  3.29851E+04 -5.35275E+04  4.73581E+04 -1.62990E+04
  4.19976E+04  1.15212E+04  3.04853E+04  2.34077E+04  1.56405E+04  2.89596E+04 -4.85257E+03  2.72591E+04
 -2.19835E+04  1.25913E+04 -1.96628E+04 -4.45827E+03  5.50964E+03 -6.83892E+03  2.07144E+04  9.85798E+03
  6.81393E+03  3.35019E+04 -3.18135E+04  3.47408E+04 -6.24136E+04  2.38304E+03 -5.58028E+04 -4.21065E+04
 -1.32569E+04 -6.15112E+04  3.99368E+04 -4.37439E+04  5.65809E+04 -1.87911E+03  3.27683E+04  3.14556E+04
 -5.68355E+03  3.39028E+04 -2.88221E+04  1.37014E+04 -2.87902E+04 -5.24791E+03 -1.47609E+04 -1.04088E+04
 -7.26613E+03 -1.22288E+04 -1.80580E+03 -1.67028E+04  6.30013E+03 -2.27668E+04  1.48982E+04 -1.38653E+04
  1.24617E+04  4.22345E+03 -7.37381E+03  1.34748E+04 -1.94383E+04 -3.40966E+03 -8.10269E+03 -3.01052E+04
  2.08759E+04 -4.06291E+04  4.56743E+04 -1.95925E+04  4.30058E+04  1.86383E+04  1.49939E+04  4.22717E+04
 -1.53771E+04  3.27140E+04 -2.46313E+04  1.04879E+03 -8.97024E+03 -2.71728E+04  2.03981E+04 -3.14404E+04
  3.81705E+04 -7.71220E+03  3.26139E+04  2.36046E+04  1.62906E+04  4.23916E+04 -8.12770E+03  4.60323E+04
 -2.93385E+04  3.04585E+04 -3.79802E+04  9.22706E+03 -3.97844E+04 -1.54888E+04 -2.21218E+04 -3.44923E+04
  7.14951E+03 -3.36392E+04  2.99744E+04 -1.36401E+04  2.69022E+04  1.02817E+04  3.38862E+03  1.75587E+04
 -1.20831E+04  7.82371E+03 -9.92403E+03 -7.77944E+03  5.63122E+03 -1.03096E+04  1.75227E+04  4.63855E+03
  1.27553E+04  2.15547E+04 -6.47011E+03  2.24915E+04 -2.17946E+04  8.63100E+03 -2.50715E+04 -5.57395E+03
 -1.69384E+04 -1.61747E+04 -6.17546E+03 -1.76751E+04  4.27758E+03 -1.61070E+04  1.33932E+04 -1.63290E+04
  2.11765E+04 -1.21397E+04  2.83292E+04  2.16592E+03  2.24074E+04  1.75429E+04  4.51751E+03  3.25501E+04
 -1.57047E+04  2.82685E+04 -2.73602E+04  1.06681E+04 -2.03413E+04 -1.04100E+04 -4.38028E+03 -1.29338E+04
  1.94536E+03 -3.51867E+03 -3.84889E+03  5.71605E+03 -1.34821E+04  5.34330E+03 -1.37634E+04 -4.91008E+03
 -9.85019E+03 -1.57711E+04  3.95599E+03 -1.97442E+04  1.34431E+04 -1.46551E+04  1.54471E+04 -1.30300E+03
  8.79465E+03  1.05227E+04 -5.19683E+01  1.64233E+04 -1.10081E+04  9.52453E+03 -1.59393E+04 -3.90071E+03
 -1.16460E+04 -1.55233E+04 -1.69395E+03 -2.00586E+04  9.50653E+03 -1.45996E+04  1.66568E+04 -7.53244E+03
  1.50976E+04  7.93820E+02  1.14319E+04  3.67325E+03  4.82978E+03  9.86992E+02  7.88094E+03 -5.41100E+02
  1.46696E+04  2.51919E+03  1.49965E+04  1.35139E+04  9.53935E+03  2.64046E+04 -4.36799E+03  2.91999E+04
 -1.73013E+04  2.06566E+04 -2.53317E+04  1.09178E+04 -2.60460E+04 -1.19811E+03 -2.29357E+04 -1.46371E+04
 -9.41722E+03 -2.15946E+04  6.82758E+03 -1.95358E+04  1.69140E+04 -1.13578E+04  1.45921E+04  3.35120E+03
  7.99395E+03  1.15268E+04 -7.35944E+03  1.11609E+04 -1.38067E+04  1.94856E+03 -1.04822E+04 -7.57548E+03
 -6.02810E+02 -1.23274E+04  7.65195E+03 -1.06704E+04  8.86074E+03 -1.22764E+03  1.58148E+03  6.03822E+03
 -5.12717E+03  2.08003E+03 -3.32988E+03 -4.69765E+03 -3.00688E+01 -1.08793E+04  8.60450E+03 -1.08277E+04
  1.29798E+04 -6.25905E+03  1.26208E+04  4.30650E+03  1.14391E+04  1.02270E+04  6.46148E+03  1.48710E+04
 -1.35366E+03  1.73925E+04 -1.03955E+04  1.12716E+04 -1.13186E+04  2.35661E+03 -9.25671E+03 -1.92131E+03
 -4.48697E+03 -4.79193E+03 -1.08382E+03  1.22052E+03 -2.11058E+03  1.45310E+03 -3.65538E+03  3.58425E+03
 -8.98402E+03 -6.61748E+02 -1.00701E+04 -7.91009E+03 -3.21858E+03 -1.18074E+04  3.80621E+03 -8.57779E+03
  7.77518E+03 -4.23287E+03  6.17748E+03  2.39431E+03  5.66337E+02  4.10880E+03 -2.99272E+03  2.93396E+02
 -3.30363E+03 -5.83534E+03 -3.53020E+02 -6.85676E+03  3.26787E+03 -8.70492E+03  1.07482E+04 -5.79424E+03
  1.18022E+04  9.09032E+02  9.81251E+03  7.53773E+03  1.53293E+03  9.60857E+03 -6.36138E+03  8.23704E+03
 -6.13061E+03  2.26185E+03 -4.08718E+03 -1.35031E+03  1.63717E+03 -1.41800E+03  5.04365E+03 -6.55793E+02
  4.08166E+03  2.57537E+03  1.53394E+03  6.43601E+03 -4.34273E+03  6.87051E+03 -8.60802E+03  2.08065E+03
 -5.05591E+03 -3.80235E+03  3.49767E+02 -9.17759E+03  3.30235E+03 -2.80257E+03  3.79579E+03  7.67766E+02
 -4.18086E+02  3.86367E+03 -3.90619E+03  5.48185E+03 -6.12147E+03  1.92388E+03 -5.25255E+03 -9.29033E+02
 -3.31100E+03 -6.86200E+03  1.35638E+03 -7.32407E+03  6.77395E+03 -4.65782E+03  6.49576E+03  1.32877E+03
  4.52832E+03  5.34010E+03  4.80254E+02  8.46056E+03 -4.91296E+03  3.38120E+03 -5.60581E+03  3.12668E+02
 -5.68122E+03 -4.96852E+03 -1.64494E+03 -4.90261E+03  2.79618E+03 -5.23942E+03  3.04788E+03 -2.50909E+03
  1.84785E+03  2.39039E+02  2.76659E+02  1.31884E+03  2.14376E+02 -7.94140E+02  9.88897E+02 -1.07860E+03
  3.20456E+03 -1.33034E+03  4.97184E+03  1.79143E+02  5.24187E+03  3.06956E+03  4.89730E+03  7.73802E+03
 -1.68954E+03  8.76357E+03 -8.87574E+03  7.38367E+03 -1.13330E+04  2.19867E+01 -9.19219E+03 -2.86734E+03
 -3.46603E+03 -6.69249E+03 -1.23733E+02 -6.19777E+03  2.22622E+03 -2.43888E+03  1.53056E+03 -3.06896E+03
  9.93973E+02 -1.79955E+03  1.79414E+03 -4.43225E+03  3.28615E+03 -1.75938E+03  4.05759E+03  1.85939E+02
  5.63828E+03  1.33187E+03  1.26709E+03  3.92372E+03 -5.84952E+02  3.66201E+03 -4.19871E+03  3.64195E+03
 -4.54888E+03 -1.16360E+03 -2.27934E+03 -2.63629E+03 -3.22140E+02 -5.55976E+03  3.15224E+03 -5.28605E+03
  5.59220E+03 -3.68057E+03  6.73085E+03  6.97035E+00  5.18359E+03  4.43947E+03  2.25193E+02  7.23293E+03
 -2.23357E+03  6.10197E+03 -2.73771E+03  1.80539E+03 -1.59486E+03 -3.06319E+03  1.58042E+02 -1.24849E+03
 -9.38240E+02 -6.29590E+02 -7.07764E+02  2.02238E+03 -3.83705E+03  1.90172E+03 -5.28624E+03 -1.47336E+03
 -1.68074E+03 -4.87809E+03  9.93031E+02 -3.83326E+03  3.05157E+03 -4.93292E+03  4.27119E+03 -1.34074E+03
  4.99215E+03  2.10454E+03  2.84978E+03  4.32590E+03 -1.57700E+02  5.18869E+03 -2.78996E+03  2.87178E+03
 -4.40811E+03  1.25811E+03 -3.97907E+03 -2.80602E+03  8.73276E+02 -3.97631E+03  8.07514E+02 -3.13410E+03
  1.75218E+03 -1.27824E+03  2.61984E+03  8.08513E+01  4.07943E+01  1.32714E+03  5.49889E+02  2.20267E+02
  1.83975E+03  6.24118E+02  1.81715E+03  4.79274E+02  9.32603E+02  2.40479E+03  1.97254E+03  1.60880E+03
 -5.72229E+02  2.36262E+03 -3.71382E+03  4.76952E+03 -2.78388E+03  1.19991E+03 -3.71943E+03 -9.32299E+02
 -2.65606E+03 -4.19588E+03  1.14772E+03 -3.70882E+03  3.08041E+03 -3.46329E+03  2.91191E+03 -1.33976E+03
  2.89918E+03  2.35109E+03  4.44543E+00  1.82370E+03 -1.68383E+03  2.21961E+03 -9.07625E+02 -2.19831E+02
 -6.85042E+02 -1.69515E+03  2.16717E+03 -1.59675E+03  1.51209E+03 -1.27594E+03  7.19009E+02  1.24706E+03
  1.49280E+03  4.56018E+01  1.64296E+03 -4.29027E+02 -2.15799E+02  1.61202E+03  9.43154E+02 -3.37926E+02
  1.19370E+03 -1.30215E+02  1.87652E+03  8.68758E+02 -1.95402E+02  2.52622E+03 -3.91845E+02  2.06934E+03
 -1.99862E+03  7.34702E+02 -2.66083E+03  1.15342E+03 -3.87366E+03 -4.32663E+02 -5.71042E+02 -9.58212E+02
  3.62808E+02 -1.13513E+03  1.61548E+03 -1.69023E+02  5.05872E+02  1.87923E+03 -1.02498E+02  9.96804E+02
 -1.60516E+03  1.99063E+02 -2.03086E+03 -8.70365E+02 -7.86933E+02 -3.41898E+03  1.14008E+03 -1.10614E+03
  7.13164E+02 -1.01780E+03  9.72350E+02  1.03197E+03  1.03797E+03  1.25765E+02 -5.25295E+02  9.53386E+02
 -1.56154E+03 -3.64594E+02 -9.40467E+02 -1.27205E+03  2.57672E+02 -3.04073E+02  3.33502E+03 -7.29147E+02
  1.59969E+03 -5.87776E+02  3.02119E+03  1.23976E+03  3.48677E+02  2.23950E+03  1.06637E+02  2.88883E+03
 -8.89898E+02  4.60404E+02 -9.16408E+02 -6.43079E+02 -8.01403E+02 -1.03876E+03 -2.74612E+02  1.04177E+02
  5.74244E+02 -1.18224E+03  3.00040E+02  3.91984E+02  8.45063E+02  1.06823E+03  4.65392E+02  1.35634E+03
 -3.51437E+02  1.39479E+03 -5.81809E+02 -3.77298E+02  1.10048E+02  5.79022E+02 -1.59854E+03  4.57359E+02
 -1.28549E+03  1.88504E+03 -2.54268E+03  1.07148E+03 -2.37534E+03  2.35776E+02 -1.28936E+03 -6.10861E+02
 -1.63851E+03 -2.88488E+03  2.28712E+02 -4.16407E+03  1.03741E+03 -2.43736E+03  3.73751E+03 -1.11062E+03
  2.40445E+03  2.26752E+02  1.78902E+03  1.32044E+03 -8.69863E+02  8.39056E+02 -9.41894E+02  1.21134E+03
 -1.72825E+03  1.11634E+03 -7.76267E+02 -7.80878E+02 -4.92837E+02  7.61358E+02  3.82655E+02 -4.04324E+02
 -1.03649E+03 -1.03139E+03 -8.63194E+02 -6.31995E+02  9.55940E+02 -5.01415E+02 -1.85725E+01 -9.08814E+01
  1.64527E+03 -8.04617E+02  1.60601E+02 -9.66859E+02  1.46137E+03  9.82138E+02 -4.06986E+02  1.35747E+03
 -1.81542E+03  2.14288E+03 -1.51238E+03  1.29154E+03 -2.55860E+03 -1.31850E+02 -1.24545E+03 -7.55610E+02
 -3.04645E+02 -3.00737E+03  1.19652E+03 -1.55927E+03  1.91184E+02 -7.19383E+02  3.40963E+02  3.28834E+02
  1.33471E+03 -4.19930E+02  3.29246E+02  5.91811E+02 -1.69865E+02  3.93310E+02  6.95224E-01  1.85752E+01
  1.00872E+03  3.55919E+02  3.09142E+02  1.51483E+03  1.28105E+01  5.49266E+02  8.46317E+02  8.24848E+02
 -7.15614E+02  1.31977E+03 -1.26641E+03  7.73066E+02 -1.82316E+02 -3.69076E+02 -4.13394E+02 -2.38380E+01
  7.63970E+02 -9.63776E+02 -6.04225E+02 -5.70425E+02  9.36731E+02  2.98653E+02  8.07849E+02  1.30379E+03
  1.26884E+03  9.68052E+02 -6.54312E+02  9.98201E+02 -7.35581E+00  1.12420E+02 -9.09207E+02  6.93370E+02
 -1.31831E+03 -5.81772E+02 -5.37188E+02  9.61182E+01 -4.19817E+02  2.02313E+02 -4.74326E+02  5.65199E+02
 -9.69539E+02  4.77226E+02 -8.20638E+02 -5.24418E+02  7.51505E+02 -1.51769E+03  5.86647E+02 -4.80743E+01
  1.23132E+03  1.65405E+02 -2.17350E+02 -3.34495E+02  1.05441E+03  3.49118E+02  3.69104E+02  1.76566E+03
