 $NMID ID='MM_0lb_SNR200_20hz_g55_44.RAW', FMTDAT='(8E13.5)'
 TRAMP=1., VOLUME=1. $END
  3.09837E+05  5.17394E+02  3.37567E+05  2.50020E+05  8.40363E+04  3.37520E+05 -1.31933E+05  2.49618E+05
 -1.90263E+05  8.24922E+04 -1.11235E+05 -3.21918E+04  1.28967E+03 -5.03280E+04  5.44958E+04 -2.89541E+02
  3.53728E+04  5.23395E+04 -1.68494E+04  7.48574E+04 -6.10181E+04  6.26201E+04 -8.35625E+04  3.20621E+04
 -8.09024E+04 -1.07340E+04 -5.66531E+04 -5.16004E+04 -1.50807E+04 -6.90879E+04  2.69855E+04 -4.56083E+04
  3.89607E+04  4.61368E+03  1.59808E+04  4.65731E+04 -3.45817E+04  4.63965E+04 -6.57328E+04 -1.20249E+03
 -5.16434E+04 -5.65368E+04 -5.62686E+03 -7.48824E+04  3.33146E+04 -5.37466E+04  4.58537E+04 -1.59799E+04
  4.19969E+04  1.18055E+04  3.01499E+04  2.49304E+04  1.62128E+04  2.87751E+04 -5.13627E+03  2.69049E+04
 -2.21641E+04  1.29373E+04 -1.90163E+04 -3.75104E+03  4.32930E+03 -8.67245E+03  2.14334E+04  1.14828E+04
  7.56544E+03  3.34867E+04 -3.16592E+04  3.37844E+04 -6.05992E+04  1.70291E+03 -5.47212E+04 -4.15730E+04
 -1.17863E+04 -6.15568E+04  3.82365E+04 -4.36873E+04  5.57788E+04 -6.65962E+02  3.21108E+04  3.18468E+04
 -7.13129E+03  3.38603E+04 -2.85764E+04  1.45402E+04 -2.77494E+04 -4.78062E+03 -1.39440E+04 -1.01456E+04
 -7.06983E+03 -1.16658E+04 -4.20349E+02 -1.74202E+04  7.03499E+03 -2.31313E+04  1.56279E+04 -1.42603E+04
  1.23817E+04  3.84190E+03 -6.59869E+03  1.26299E+04 -1.93843E+04 -2.50263E+03 -8.08795E+03 -2.95062E+04
  2.02758E+04 -4.05418E+04  4.48012E+04 -1.85821E+04  4.24829E+04  1.80694E+04  1.41616E+04  4.18857E+04
 -1.56971E+04  3.11092E+04 -2.38315E+04  1.55313E+03 -8.29534E+03 -2.58337E+04  2.12131E+04 -3.11141E+04
  3.86084E+04 -6.35209E+03  3.22452E+04  2.28547E+04  1.54688E+04  4.28512E+04 -7.29025E+03  4.42684E+04
 -2.93732E+04  3.06780E+04 -3.80024E+04  8.64040E+03 -3.78494E+04 -1.49655E+04 -2.00274E+04 -3.43985E+04
  6.52265E+03 -3.41128E+04  2.87802E+04 -1.22741E+04  2.74728E+04  1.14706E+04  3.35491E+03  1.69050E+04
 -1.33825E+04  6.85918E+03 -9.42753E+03 -7.73970E+03  6.35308E+03 -8.65131E+03  1.75295E+04  6.84057E+03
  1.20956E+04  2.09127E+04 -7.19687E+03  2.32908E+04 -2.10794E+04  8.90162E+03 -2.58158E+04 -5.95783E+03
 -1.71627E+04 -1.52643E+04 -5.41847E+03 -1.60911E+04  4.29637E+03 -1.50203E+04  1.27237E+04 -1.41873E+04
  2.22810E+04 -1.12329E+04  2.84475E+04  1.26926E+03  2.10775E+04  1.63578E+04  3.27078E+03  3.22595E+04
 -1.52219E+04  2.71970E+04 -2.54415E+04  9.42561E+03 -1.94372E+04 -9.95855E+03 -3.23346E+03 -1.35296E+04
  2.62927E+03 -5.59737E+03 -2.77904E+03  5.37567E+03 -1.21270E+04  4.45621E+03 -1.29929E+04 -4.98936E+03
 -9.15039E+03 -1.51505E+04  3.86999E+03 -2.00600E+04  1.23314E+04 -1.37723E+04  1.47777E+04 -1.83399E+03
  8.76728E+03  1.09954E+04 -3.55929E+02  1.49592E+04 -1.11857E+04  9.68361E+03 -1.52491E+04 -3.15119E+03
 -1.16141E+04 -1.36689E+04 -1.54883E+03 -1.89173E+04  8.07990E+03 -1.54217E+04  1.62431E+04 -7.48770E+03
  1.46024E+04  9.40984E+02  1.03388E+04  3.39655E+03  5.33148E+03  4.05200E+02  7.55282E+03 -1.60102E+03
  1.31588E+04  2.37701E+03  1.43884E+04  1.30836E+04  8.92468E+03  2.46069E+04 -2.20543E+03  2.55436E+04
 -1.47696E+04  2.02643E+04 -2.29715E+04  9.38076E+03 -2.31231E+04 -1.77331E+03 -2.03313E+04 -1.29633E+04
 -9.99826E+03 -1.95101E+04  7.04779E+03 -1.77037E+04  1.58567E+04 -1.14348E+04  1.48489E+04  3.77665E+03
  7.26853E+03  1.13824E+04 -7.33779E+03  1.03505E+04 -1.27905E+04  3.31706E+03 -1.00814E+04 -6.96566E+03
 -1.58366E+02 -1.27634E+04  5.79903E+03 -9.20401E+03  7.76262E+03 -7.94779E+02  1.05249E+03  5.47426E+03
 -5.73612E+03  7.11419E+02 -3.60317E+03 -5.87701E+03  1.56505E+03 -9.73515E+03  7.39867E+03 -9.65301E+03
  1.17055E+04 -4.18303E+03  1.09488E+04  2.63712E+03  9.22380E+03  9.88371E+03  4.50546E+03  1.31706E+04
 -2.07902E+03  1.37412E+04 -8.26559E+03  9.29548E+03 -1.05085E+04  2.49267E+03 -7.95042E+03 -1.83301E+03
 -4.35596E+03 -3.65124E+03 -1.91745E+03  2.16340E+03 -3.00665E+03  1.96927E+03 -3.72186E+03  3.14806E+03
 -6.45313E+03 -5.93438E+02 -8.11477E+03 -7.45843E+03 -3.25653E+03 -1.11895E+04  3.65877E+03 -7.49530E+03
  6.44796E+03 -3.28606E+03  5.47834E+03  2.22010E+03  5.70887E+02  2.50668E+03 -3.62356E+03 -5.62318E+02
 -2.90318E+03 -5.92354E+03 -6.71402E+02 -7.09450E+03  4.45422E+03 -7.66264E+03  9.04595E+03 -3.82900E+03
  1.09455E+04  6.87025E+02  8.60854E+03  6.19808E+03  2.05283E+03  6.94833E+03 -5.17434E+03  8.97878E+03
 -6.41419E+03  2.86929E+03 -3.34759E+03 -8.30791E+02  1.18074E+03 -1.37402E+03  4.88610E+03 -4.56578E+02
  3.61504E+03  2.67934E+03  1.28863E+03  5.52007E+03 -4.55344E+03  5.36571E+03 -6.89025E+03  2.08134E+03
 -5.09815E+03 -3.05421E+03 -2.84808E+02 -7.45500E+03  4.17356E+03 -2.73216E+03  3.30075E+03  1.00111E+03
  5.18431E+02  3.37813E+03 -3.03522E+03  4.64362E+03 -4.82059E+03  1.93746E+03 -2.84362E+03 -5.00293E+02
 -2.26793E+03 -4.94300E+03  5.62355E+02 -6.35582E+03  4.82731E+03 -4.24199E+03  5.60379E+03  1.11735E+03
  3.84161E+03  4.34487E+03 -6.06602E+02  6.28114E+03 -5.67789E+03  2.81592E+03 -4.71450E+03 -8.99182E+02
 -6.43962E+03 -4.56252E+03 -1.36967E+03 -3.98798E+03  1.47018E+03 -5.47798E+03  2.25118E+03 -3.16825E+03
  2.35798E+03  8.53718E+02 -4.09575E+02  7.51352E+02  7.17299E+02  2.73400E+02 -8.54364E+01 -9.74079E+02
  4.28453E+03 -3.55518E+02  3.99147E+03  7.08664E+02  4.47425E+03  3.57114E+03  5.79934E+03  5.31731E+03
 -1.25999E+03  8.02804E+03 -6.56549E+03  5.77123E+03 -8.67917E+03  1.20187E+03 -6.71610E+03 -1.93074E+03
 -3.49951E+03 -4.59569E+03 -9.11490E+02 -4.17222E+03  5.41726E+02 -1.15835E+03  6.02489E+02 -2.26194E+03
  3.79583E+02 -2.06792E+03  2.42830E+03 -1.42399E+03  3.54326E+03 -4.15134E+02  1.94363E+03  7.03789E+02
  4.56131E+03  8.38306E+02  1.18794E+03  3.34654E+03 -2.07031E+03  1.83211E+03 -3.59861E+03  1.83660E+03
 -4.05158E+03 -8.04492E+02 -9.08652E+02 -3.11710E+03  1.80172E+02 -4.67081E+03  3.50628E+03 -4.68971E+03
  4.34523E+03 -3.18045E+03  6.20258E+03 -1.08708E+02  4.35540E+03  3.97837E+03  1.86594E+03  5.72862E+03
 -2.50062E+03  4.85369E+03 -2.52556E+03  2.00871E+03 -1.29340E+03 -6.87994E+02  5.76315E+02 -3.02303E+02
  2.20687E+02  5.85118E+02  2.41190E+02  1.52799E+03 -1.88717E+03  1.27361E+03 -3.39559E+03  2.58160E+01
 -9.23286E+02 -3.91994E+03  1.58480E+03 -4.55533E+03  1.93323E+03 -4.00534E+03  1.98394E+03 -1.18869E+03
  3.24580E+03  1.93710E+03  7.58501E+02  2.03600E+03 -7.73841E+02  3.81510E+03 -2.41693E+03  2.01726E+03
 -3.75825E+03  8.32522E+01 -3.03425E+03 -1.22793E+03 -6.27201E+01 -2.27613E+03  9.67122E+02 -1.80043E+03
  2.82172E+03 -1.77774E+03  1.08826E+03  6.52863E+02  7.79522E+02  8.84930E+02  1.99460E+03  5.84052E+02
  1.13949E+03  7.36428E+02  8.99347E+02  6.21099E+02  1.28481E+03  1.44424E+03  6.34964E+02  6.93946E+02
 -1.14178E+03  2.60648E+03 -2.98128E+03  3.72612E+03 -2.31328E+03  1.09236E+03 -3.09166E+03  8.39173E+02
 -1.30243E+03 -2.07866E+03  6.35268E+02 -3.24758E+03  1.25121E+03 -1.41028E+03  2.80432E+03 -1.76933E+03
  2.70312E+03  1.01657E+03  1.29086E+03  1.89925E+03  5.15803E+02  1.00327E+03 -9.86031E+02  5.77034E+02
 -6.54071E+02 -1.08681E+03  6.74686E+02  3.47485E+01  1.55157E+03 -1.39928E+03  8.81281E+02  5.13714E+02
  5.25152E+02 -9.78570E+02  6.92273E+02 -9.03904E+02  3.93973E+02  1.49551E+03  1.98174E+03  7.57285E+01
  7.39877E+01  5.05567E+02  1.63965E+03  5.43792E+02 -6.44283E+02  1.20545E+03  7.62224E+02  2.41720E+03
 -1.38677E+03  1.02323E+03 -7.39751E+02 -1.91011E+01 -1.27553E+03 -1.91820E+03 -2.85330E+02  6.00649E+02
  1.05206E+03 -9.74843E+02  8.50788E+02 -7.86283E+02  9.53870E+01  1.28334E+03  1.83121E+02  2.57208E+02
 -1.80861E+03  1.10099E+03 -1.11581E+03 -8.06665E+02 -1.05741E+02 -2.36362E+03  3.14114E+01 -1.62639E+03
  2.40528E+02 -6.54217E+02  9.80193E+02  1.99035E+02  8.75896E+02 -6.28879E+02  3.30048E+02  7.41329E+02
 -5.49592E+02  7.61660E+02 -4.91353E+02 -4.09311E+01  1.77374E+03 -7.47179E+02  5.89372E+02  1.89939E+02
  1.18061E+03  1.77047E+02  3.13172E+03  2.77084E+02  1.36186E+03  1.05129E+03 -5.50761E+02  1.54030E+03
 -1.72110E+03  5.91117E+02 -1.18947E+03 -7.29655E+02 -5.67982E+02 -1.58086E+03 -1.95995E+02  1.92693E+02
  1.05896E+03 -5.36358E+02  2.67400E+02 -1.57763E+02  2.22417E+02  1.71850E+03 -2.45486E+02  1.32309E+03
  4.78822E+02  2.20589E+02 -1.68024E+02  1.02308E+03  1.21605E+03  6.47646E+02 -4.94435E+02 -3.50004E+02
 -2.56953E+02  5.92469E+02 -2.05581E+03  1.48541E+02 -8.05004E+02  2.64249E+02 -2.13663E+03  3.74107E+02
 -2.48674E+02 -2.02375E+03  2.60229E+02 -2.42290E+03 -1.24005E+02 -1.28027E+03  2.06604E+03 -3.59306E+02
  1.33303E+03 -1.28654E+03  2.08184E+02  1.72000E+03 -1.38771E+03  1.91431E+03 -2.85158E+02  3.49208E+02
 -1.10266E+03  9.21505E+02 -1.13150E+03 -6.75613E+02 -1.00697E+03 -7.45008E+02 -7.72124E+02  4.60367E+02
 -1.58752E+03  2.91992E+02 -8.34485E+02 -5.32629E+02  1.27362E+03 -1.99932E+03 -6.15481E+02 -2.44445E+02
  1.09429E+03 -4.77018E+02 -5.71843E+02  5.22979E+01  3.35603E+02  1.98651E+02 -9.72813E+01  6.32843E+02
 -6.36234E+02  2.37511E+03 -1.11806E+03  1.81820E+03 -4.99645E+02 -5.94651E+02 -3.06517E+02 -1.34683E+03
 -6.32810E+02 -5.42663E+02  4.10811E+02 -8.79189E+02  6.15000E+02  6.16489E+02 -5.38975E+02  3.84682E+02
 -2.17785E+02 -9.88810E+02 -1.79698E+02  5.48742E+02 -5.46574E+02 -6.70052E+02  4.87869E+02 -1.02221E+03
  3.96830E+02  7.04356E+02 -1.85602E+02  6.04762E+02 -8.14660E+01 -7.25979E+02 -2.16003E+02 -8.73021E+02
  4.83623E+02  8.95782E+02  2.06671E+02 -4.46813E+02 -2.23267E+02 -7.08723E+02  4.17658E+02 -7.99064E+02
  1.66783E+02  3.84747E+02 -4.54145E+02  2.01450E+02  4.25259E+02 -1.24784E+03 -4.34717E+02  2.67521E+02
  7.47427E+02 -3.18529E+01  6.13693E+02  1.38324E+03 -8.19447E+02  1.19695E+03 -2.10627E+02  9.72502E+02
 -4.23400E+02 -7.79580E+02  7.67785E+01 -4.74465E+01 -2.94533E+02  4.65594E+02 -1.92764E+03 -3.72295E+02
 -5.06578E+02  8.95397E+02 -3.99439E+02 -8.87513E+02  1.29145E+03 -1.28073E+03  1.03311E+02 -4.41114E+02
  7.16542E+02  1.02588E+02  3.30301E+02  2.30145E+02 -1.21981E+02  7.45600E+02 -8.27797E+02  9.85664E+02
