 $NMID ID='MM_0lb_SNR200_14hz_g55_10.RAW', FMTDAT='(8E13.5)'
 TRAMP=1., VOLUME=1. $END
  3.09916E+05  1.67442E+03  3.36559E+05  2.50545E+05  8.48774E+04  3.37414E+05 -1.32330E+05  2.52058E+05
 -1.90884E+05  8.49244E+04 -1.12361E+05 -3.13901E+04  2.48442E+02 -5.11934E+04  5.32313E+04  1.47257E+02
  3.58255E+04  5.33336E+04 -1.68067E+04  7.48148E+04 -6.12853E+04  6.43007E+04 -8.45613E+04  3.13131E+04
 -8.12497E+04 -1.19765E+04 -5.78737E+04 -5.08672E+04 -1.58267E+04 -6.93285E+04  2.73904E+04 -4.54966E+04
  4.10155E+04  4.53476E+03  1.61229E+04  4.96862E+04 -3.57584E+04  4.79360E+04 -6.65720E+04  4.06909E+02
 -5.39434E+04 -5.58972E+04 -6.49423E+03 -7.72174E+04  3.52259E+04 -5.56112E+04  4.92463E+04 -1.60153E+04
  4.36262E+04  1.11835E+04  3.20129E+04  2.56012E+04  1.63416E+04  2.97701E+04 -4.73440E+03  2.79539E+04
 -2.03562E+04  1.26649E+04 -1.73494E+04 -4.83801E+03  4.97901E+03 -8.03005E+03  2.15089E+04  1.20995E+04
  6.45292E+03  3.62325E+04 -3.24740E+04  3.44237E+04 -6.41018E+04  2.35661E+03 -5.69832E+04 -4.28727E+04
 -1.23399E+04 -6.29246E+04  3.92075E+04 -4.52729E+04  5.89375E+04 -2.77099E+03  3.56208E+04  3.16820E+04
 -5.94373E+03  3.72633E+04 -3.14762E+04  1.59519E+04 -3.09690E+04 -5.63533E+03 -1.65942E+04 -1.17939E+04
 -8.96937E+03 -1.40082E+04 -9.51101E+02 -1.77157E+04  8.24134E+03 -2.33147E+04  1.64036E+04 -1.36460E+04
  1.14596E+04  5.28943E+03 -7.66558E+03  1.33728E+04 -2.07668E+04 -4.00771E+03 -7.35520E+03 -3.45849E+04
  2.37118E+04 -4.41333E+04  4.90535E+04 -1.98072E+04  4.57898E+04  1.93680E+04  1.64218E+04  4.59745E+04
 -1.78614E+04  3.40516E+04 -2.59800E+04  2.01249E+03 -9.97080E+03 -2.93835E+04  2.13967E+04 -3.38266E+04
  4.15773E+04 -8.66801E+03  3.65814E+04  2.44373E+04  1.91036E+04  4.73925E+04 -8.55959E+03  5.14808E+04
 -3.35609E+04  3.41220E+04 -4.37667E+04  9.94626E+03 -4.38950E+04 -1.65341E+04 -2.34665E+04 -3.76872E+04
  7.14621E+03 -3.80546E+04  3.23290E+04 -1.56330E+04  2.95448E+04  1.13944E+04  2.90971E+03  2.02837E+04
 -1.32161E+04  8.51029E+03 -9.15747E+03 -8.63196E+03  6.46263E+03 -1.10475E+04  1.76856E+04  6.19409E+03
  1.30881E+04  2.24250E+04 -6.41170E+03  2.53773E+04 -2.33298E+04  1.24300E+04 -2.83875E+04 -5.01515E+03
 -2.15866E+04 -1.74081E+04 -1.02340E+04 -2.06986E+04  3.94297E+03 -1.98273E+04  1.71246E+04 -1.90135E+04
  2.71439E+04 -1.37490E+04  3.24739E+04  2.85843E+03  2.40731E+04  2.11457E+04  5.13242E+03  3.78932E+04
 -1.90452E+04  3.09023E+04 -2.89330E+04  1.12984E+04 -2.06408E+04 -1.04089E+04 -4.12250E+03 -1.44052E+04
  2.69638E+03 -2.18138E+03 -5.12653E+03  7.13685E+03 -1.64215E+04  5.02221E+03 -1.68361E+04 -7.04089E+03
 -1.00003E+04 -1.93756E+04  6.09084E+03 -2.51272E+04  1.67320E+04 -1.58397E+04  1.85612E+04 -2.51788E+03
  1.22161E+04  1.36930E+04 -1.36102E+03  1.99974E+04 -1.45772E+04  1.09687E+04 -1.85904E+04 -4.06307E+03
 -1.44108E+04 -1.77964E+04 -2.45909E+03 -2.46444E+04  1.03125E+04 -1.86227E+04  1.91187E+04 -9.76331E+03
  1.79109E+04  2.46243E+02  1.35962E+04  4.08658E+03  7.86660E+03  1.06350E+03  1.01075E+04 -2.17697E+03
  1.95743E+04  1.98478E+03  2.06045E+04  1.66942E+04  1.32290E+04  3.21189E+04 -2.79759E+03  3.47060E+04
 -1.98196E+04  2.91704E+04 -3.36265E+04  1.34726E+04 -3.50096E+04 -1.66736E+03 -2.83666E+04 -2.06153E+04
 -1.30960E+04 -2.84704E+04  1.01842E+04 -2.66144E+04  2.32998E+04 -1.32455E+04  1.90811E+04  6.07180E+03
  7.82553E+03  1.40353E+04 -9.82796E+03  1.41081E+04 -1.67251E+04  1.44891E+03 -1.40830E+04 -1.05330E+04
 -6.97482E+02 -1.62481E+04  8.10774E+03 -9.77051E+03  1.05920E+04 -1.67964E+03  1.21199E+03  7.22530E+03
 -6.25572E+03  1.69253E+03 -6.55498E+03 -5.94720E+03 -1.08801E+03 -1.35638E+04  9.00353E+03 -1.43407E+04
  1.57831E+04 -7.56869E+03  1.84263E+04  1.84268E+03  1.59578E+04  1.42975E+04  6.19752E+03  2.28813E+04
 -3.12630E+03  2.29554E+04 -1.48457E+04  1.42860E+04 -1.72521E+04  4.54243E+03 -1.19888E+04 -2.54246E+03
 -4.90402E+03 -5.72773E+03 -5.46426E+02  1.14389E+03 -2.68734E+03  1.93674E+03 -6.14867E+03  4.41867E+03
 -1.18439E+04 -4.61825E+02 -1.17334E+04 -1.01454E+04 -4.45134E+03 -1.57042E+04  4.78602E+03 -1.16415E+04
  9.73776E+03 -4.99374E+03  7.83377E+03  3.11751E+03 -6.78219E+01  5.59653E+03 -5.54549E+03 -4.05788E+02
 -5.43739E+03 -8.23296E+03 -5.64239E+02 -1.15979E+04  5.78647E+03 -1.33251E+04  1.40504E+04 -6.51847E+03
  1.69686E+04  4.55594E+02  1.25143E+04  1.06225E+04  2.23098E+03  1.41998E+04 -6.22337E+03  1.15568E+04
 -1.02449E+04  3.19277E+03 -5.75466E+03 -3.56151E+03  1.01728E+03 -2.89564E+03  6.05387E+03 -6.14216E+02
  6.24063E+03  3.09239E+03  1.23624E+03  8.82696E+03 -6.89825E+03  8.85719E+03 -1.22655E+04  2.62979E+03
 -7.05870E+03 -5.65512E+03 -1.59146E+03 -9.98157E+03  4.96964E+03 -5.00013E+03  6.38314E+03  2.85046E+03
  8.99638E+02  6.67408E+03 -6.07598E+03  8.26243E+03 -9.28280E+03  2.35358E+03 -8.35489E+03 -2.50786E+03
 -4.99429E+03 -1.14207E+04  2.18539E+03 -1.04417E+04  1.07160E+04 -8.47411E+03  1.07620E+04  2.15465E+03
  8.18121E+03  9.90991E+03 -2.04359E+02  1.04302E+04 -7.55882E+03  5.32449E+03 -8.81592E+03 -7.50472E+02
 -7.30198E+03 -7.05919E+03 -1.94594E+03 -8.24140E+03  4.40578E+03 -7.00585E+03  4.33348E+03 -3.10089E+03
  4.75660E+03  1.44958E+03 -1.13084E+02  1.96071E+03  1.78433E+02 -1.72625E+02  1.75025E+03 -4.30227E+03
  7.04387E+03 -3.58877E+03  1.08500E+04  3.94350E+02  7.94068E+03  7.03578E+03  7.89317E+03  1.36834E+04
 -2.30413E+03  1.53757E+04 -1.36827E+04  1.10641E+04 -1.53328E+04  1.00207E+03 -1.38002E+04 -5.80729E+03
 -7.62296E+03 -1.03636E+04  3.51674E+02 -9.50855E+03  4.04241E+03 -4.56879E+03  3.74054E+03 -3.34145E+03
  2.48305E+03 -1.58131E+03  2.12206E+03 -3.08288E+03  4.85151E+03 -2.22327E+03  5.41635E+03 -5.68945E+02
  7.20363E+03  1.92144E+03  3.60925E+03  6.26714E+03 -1.86124E+03  6.38020E+03 -6.04798E+03  4.69148E+03
 -8.32876E+03 -1.38949E+03 -5.10023E+03 -7.35930E+03  2.67901E+02 -8.68147E+03  4.94367E+03 -1.00033E+04
  9.81266E+03 -5.06935E+03  1.17954E+04  1.84596E+03  8.13936E+03  8.44850E+03  3.07345E+02  1.10916E+04
 -4.20233E+03  9.14546E+03 -6.34547E+03  2.33909E+03 -3.67881E+03 -7.06152E+02 -1.61276E+03 -1.29956E+02
 -1.77639E+03  1.60598E+03 -1.20834E+03  2.70161E+03 -4.20110E+03  1.51468E+03 -5.24777E+03 -1.20127E+03
 -3.24508E+03 -7.01763E+03  1.11429E+03 -9.19388E+03  4.89785E+03 -8.25938E+03  8.53655E+03 -1.91370E+03
  6.60382E+03  5.11363E+03  4.01957E+03  6.30531E+03 -6.49506E+02  7.87999E+03 -6.00444E+03  4.81845E+03
 -7.95933E+03 -1.75272E+02 -5.85953E+03 -4.86783E+03 -1.36861E+03 -6.38387E+03  2.20159E+03 -4.90485E+03
  5.09672E+03 -2.05075E+03  2.92129E+03  1.01249E+03  2.31262E+03  2.54628E+03  9.41114E+02  1.57266E+03
  1.88029E+03  4.32846E+02  1.06298E+03  1.41639E+03  1.28943E+03  3.13157E+03  3.55498E+03  4.64625E+03
 -2.89709E+03  6.73820E+03 -4.68457E+03  6.60148E+03 -8.46781E+03  2.39215E+03 -8.93414E+03 -2.62293E+03
 -3.68521E+03 -7.86216E+03  1.68513E+03 -9.85560E+03  4.39875E+03 -5.70815E+03  6.38956E+03 -1.65490E+03
  5.01278E+03  3.00354E+03  6.89117E+02  4.33381E+03 -1.12460E+03  2.68715E+03 -3.47695E+03 -1.28277E+03
 -3.14825E+02 -3.22049E+03  2.77368E+03 -2.85429E+03  3.26967E+03 -1.69876E+03  4.19712E+03  1.57840E+03
  1.04358E+03  1.53095E+03  5.58440E+02  3.67955E+02 -9.98482E+01  4.41034E+02  2.50164E+03 -1.25707E+03
  1.00645E+03 -1.05011E+03  3.06966E+03  1.85651E+03  1.18466E+03  4.21021E+03 -1.18279E+03  5.74348E+03
 -3.03754E+03  3.87592E+03 -4.55974E+03  7.28860E+02 -5.02981E+03 -2.58045E+03 -2.90167E+02 -1.76422E+03
 -6.03554E+02 -3.31852E+03  2.00589E+03 -5.86821E+02  2.09912E+03  1.31217E+03 -7.90766E+02  2.20651E+03
 -2.06193E+03  4.43796E+02 -3.64164E+03 -9.81882E+02 -2.51716E+03 -4.40216E+03 -4.80627E+01 -3.71662E+03
  3.20816E+03 -2.97279E+03  2.72533E+03  2.73367E+01  2.67705E+03  1.54152E+03 -8.62897E+02  2.89404E+03
 -9.79276E+02  8.44520E+02 -1.81437E+03 -1.02660E+02  1.41312E+03 -3.26933E+03  3.82982E+03 -2.18751E+03
  5.07955E+03  1.16582E+02  5.69527E+03  3.75953E+03  3.41996E+03  4.45496E+03 -2.01919E+03  5.09637E+03
 -3.48542E+03  8.67757E+02 -3.56040E+03 -5.14113E+02 -2.21045E+03 -4.08778E+03  1.34513E+03 -2.70719E+03
  2.28566E+03 -3.05163E+03  1.32473E+03  8.63358E+02  2.09701E+03  1.76470E+03 -7.04352E+02  2.10066E+03
 -6.69135E+02  4.97396E+02  3.56765E+01 -1.65768E+02 -7.19584E+02  1.07573E+03 -1.34234E+03  1.68553E+03
 -1.87446E+03  1.87827E+03 -2.28848E+03  1.40101E+03 -5.03674E+03 -5.85918E+02 -5.43746E+03 -3.21179E+03
 -1.89706E+03 -5.21736E+03  5.18474E+02 -6.84013E+03  3.72757E+03 -4.87689E+03  4.91539E+03 -1.79809E+03
  3.93321E+03  5.20477E+02  2.77426E+03  2.67994E+03 -5.89341E+01  3.14054E+03 -9.21815E+02  2.08926E+03
 -1.89612E+03  1.26313E+03 -1.44395E+03 -6.16736E+02 -8.47760E+02  5.67563E+02 -9.57022E+01  8.99502E+02
 -1.27841E+03  5.07146E+02 -8.37770E+02 -5.33211E+02 -1.87521E+02 -1.07209E+03  8.03827E+02 -1.24999E+03
  1.33981E+03 -2.61258E+03  1.91414E+03  1.12582E+03  3.14561E+03  1.34830E+03  5.85772E+02  4.12844E+03
 -2.67398E+03  4.43775E+03 -4.15409E+03  3.10724E+03 -5.73869E+03 -1.44278E+03 -3.73446E+03 -4.73625E+03
 -1.14625E+03 -3.14415E+03  8.95035E+02 -4.56888E+03  2.08210E+03 -1.75308E+03  3.04395E+03  1.46158E+02
  1.62023E+03  1.08913E+03  1.98984E+02  1.31143E+03 -4.25325E+02  1.74255E+01  3.01225E+02 -6.29224E+02
  1.36108E+03  1.16283E+02  8.59371E+02  2.95373E+02  7.60060E+02  1.36110E+03  4.86196E+02  2.49285E+03
 -8.88790E+02  2.19844E+03 -3.11696E+03  7.77369E+02 -2.57705E+03 -1.74051E+03  4.82741E+01 -3.25433E+03
  1.32225E+03 -2.42761E+03  2.72142E+03 -2.21174E+03  1.86531E+03  1.56007E+02  1.99243E+03  1.61711E+03
 -6.09374E+02  2.64256E+03  4.39523E+02  1.64625E+03 -2.16654E+03  1.60838E+03 -1.81229E+03 -6.23388E+02
 -4.62209E+02 -9.44830E+01 -1.24400E+03  4.98853E+02 -8.31329E+02  5.61335E+02 -2.47844E+03  1.66762E+02
 -1.73613E+03 -1.08220E+03 -5.95994E+02 -2.12240E+03  2.27192E+03 -3.70376E+03  1.90770E+03 -1.04700E+03
  1.49304E+03  8.81596E+02  6.78214E+02  1.51575E+03 -6.52759E+01  2.66959E+03 -1.50842E+03  1.99961E+03
