 $NMID ID='MM_0lb_SNR200_13hz_g55_24.RAW', FMTDAT='(8E13.5)'
 TRAMP=1., VOLUME=1. $END
  3.10293E+05 -4.30174E+02  3.37765E+05  2.50996E+05  8.44042E+04  3.38155E+05 -1.32088E+05  2.51340E+05
 -1.88578E+05  8.42039E+04 -1.11568E+05 -3.07470E+04  4.33799E+01 -4.92554E+04  5.34863E+04  5.40995E+02
  3.58824E+04  5.25832E+04 -1.65260E+04  7.70956E+04 -6.13882E+04  6.37543E+04 -8.33189E+04  3.25420E+04
 -8.01242E+04 -1.11649E+04 -5.76425E+04 -5.26214E+04 -1.49580E+04 -6.99885E+04  2.71535E+04 -4.55976E+04
  4.03065E+04  3.61032E+03  1.69474E+04  4.83879E+04 -3.48250E+04  4.78779E+04 -6.64538E+04  3.59869E+02
 -5.50172E+04 -5.78733E+04 -6.49954E+03 -7.78729E+04  3.48205E+04 -5.72125E+04  4.78588E+04 -1.80855E+04
  4.32965E+04  1.29137E+04  3.25462E+04  2.70612E+04  1.47330E+04  2.99968E+04 -6.06397E+03  2.81889E+04
 -2.25963E+04  1.19517E+04 -1.78992E+04 -5.34941E+03  7.11433E+03 -7.45406E+03  2.27975E+04  1.32125E+04
  7.09527E+03  3.54414E+04 -3.25471E+04  3.62260E+04 -6.48670E+04  1.77268E+03 -5.80787E+04 -4.34475E+04
 -1.41553E+04 -6.43347E+04  4.06415E+04 -4.55991E+04  5.93853E+04 -2.73426E+03  3.48882E+04  3.08833E+04
 -6.33129E+03  3.78102E+04 -2.90962E+04  1.75785E+04 -3.10143E+04 -4.95969E+03 -1.86251E+04 -1.11512E+04
 -9.36926E+03 -1.37925E+04 -1.22259E+03 -1.96013E+04  8.05443E+03 -2.36328E+04  1.50144E+04 -1.41172E+04
  1.05339E+04  4.53506E+03 -8.79750E+03  1.14691E+04 -2.27045E+04 -5.25814E+03 -8.08385E+03 -3.61149E+04
  2.46563E+04 -4.48908E+04  4.98413E+04 -2.09483E+04  4.53010E+04  2.06909E+04  1.61396E+04  4.46684E+04
 -1.57406E+04  3.43638E+04 -2.55040E+04  2.40781E+03 -1.12615E+04 -2.84509E+04  2.10091E+04 -3.46769E+04
  4.19809E+04 -1.06223E+04  3.72347E+04  2.34033E+04  1.93808E+04  4.81801E+04 -9.07509E+03  5.32529E+04
 -3.29521E+04  3.56486E+04 -4.39961E+04  1.02099E+04 -4.36327E+04 -1.67969E+04 -2.53675E+04 -3.88430E+04
  6.34857E+03 -3.87792E+04  3.14096E+04 -1.52035E+04  2.95613E+04  1.13585E+04  4.74497E+03  1.92306E+04
 -1.44612E+04  7.67746E+03 -9.88216E+03 -7.56170E+03  5.48548E+03 -1.13194E+04  1.76925E+04  5.15516E+03
  1.34241E+04  2.26420E+04 -5.41056E+03  2.51988E+04 -2.31374E+04  1.15785E+04 -3.12335E+04 -3.92080E+03
 -2.28992E+04 -1.83237E+04 -1.00971E+04 -2.14489E+04  2.94388E+03 -2.21114E+04  1.69195E+04 -2.04615E+04
  2.83008E+04 -1.16047E+04  3.33537E+04  3.69971E+03  2.50387E+04  2.13235E+04  3.85752E+03  3.83718E+04
 -1.81375E+04  3.14508E+04 -2.95722E+04  1.17982E+04 -2.08061E+04 -9.68026E+03 -5.49167E+03 -1.41729E+04
  5.87065E+02 -1.21237E+03 -4.93272E+03  6.33538E+03 -1.74367E+04  4.25380E+03 -1.79812E+04 -8.44303E+03
 -1.02517E+04 -2.08622E+04  4.49391E+03 -2.45969E+04  1.51681E+04 -1.87206E+04  1.97006E+04 -1.60423E+03
  1.31974E+04  1.41274E+04 -1.11696E+03  1.98083E+04 -1.46785E+04  1.14943E+04 -1.97605E+04 -4.10164E+03
 -1.38967E+04 -1.90764E+04 -1.56041E+03 -2.55378E+04  1.12843E+04 -2.08147E+04  1.88399E+04 -1.01763E+04
  1.91115E+04  1.32060E+03  1.32151E+04  5.35228E+03  7.61403E+03  1.08391E+03  1.05984E+04 -2.37829E+03
  1.91145E+04  3.04662E+03  2.15391E+04  1.53832E+04  1.44986E+04  3.30816E+04 -2.67272E+03  3.78099E+04
 -2.22680E+04  3.00117E+04 -3.44796E+04  1.43035E+04 -3.56428E+04 -3.21829E+03 -3.04150E+04 -2.07002E+04
 -1.19796E+04 -3.08530E+04  1.12494E+04 -2.78438E+04  2.19979E+04 -1.26692E+04  2.04267E+04  7.01295E+03
  8.64035E+03  1.52276E+04 -9.64036E+03  1.37875E+04 -1.81077E+04  3.00558E+03 -1.35299E+04 -9.55698E+03
 -3.63658E+02 -1.70333E+04  9.05569E+03 -1.23799E+04  1.06561E+04 -3.79644E+02  2.31205E+03  6.86635E+03
 -7.01728E+03  3.55097E+03 -7.00460E+03 -5.68526E+03 -1.91453E+03 -1.44660E+04  8.13775E+03 -1.50095E+04
  1.87227E+04 -8.19280E+03  2.00388E+04  3.18561E+03  1.78152E+04  1.49293E+04  7.50492E+03  2.28714E+04
 -4.34701E+03  2.54354E+04 -1.55116E+04  1.56270E+04 -1.86628E+04  3.76446E+03 -1.15631E+04 -4.66239E+03
 -5.30977E+03 -5.45631E+03 -1.41262E+03  1.16282E+03 -1.65522E+03  2.28653E+03 -5.97477E+03  4.03199E+03
 -1.08446E+04 -1.67468E+03 -1.23534E+04 -1.04959E+04 -5.40366E+03 -1.55867E+04  4.50608E+03 -1.22010E+04
  1.06079E+04 -4.53261E+03  7.50521E+03  2.37788E+03  6.47854E+01  4.19471E+03 -7.56503E+03 -2.89666E+02
 -5.46625E+03 -8.26584E+03 -1.30594E+03 -1.26047E+04  6.48598E+03 -1.36672E+04  1.50192E+04 -6.15092E+03
  1.81871E+04  1.95017E+03  1.37157E+04  9.53676E+03  2.22749E+03  1.45412E+04 -7.93942E+03  1.18799E+04
 -1.00477E+04  3.88308E+03 -5.56414E+03 -2.92669E+03  1.58784E+03 -3.72463E+03  6.48402E+03 -8.68337E+02
  5.35990E+03  5.45004E+03  9.41741E+01  9.29037E+03 -6.68197E+03  8.91705E+03 -1.32760E+04  2.86426E+03
 -7.89261E+03 -4.54400E+03 -1.77886E+02 -1.07372E+04  5.92293E+03 -5.35697E+03  6.26523E+03  3.13530E+03
  1.31712E+03  7.22618E+03 -7.25700E+03  8.39424E+03 -8.30809E+03  3.56637E+03 -9.52346E+03 -2.62692E+03
 -5.60446E+03 -1.11830E+04  2.31421E+03 -1.27620E+04  1.15848E+04 -7.45916E+03  1.12038E+04  2.83484E+03
  7.36371E+03  9.47092E+03 -1.70960E+03  1.20950E+04 -8.46238E+03  6.26089E+03 -1.03702E+04 -9.77868E+02
 -9.48083E+03 -7.86522E+03 -1.99489E+03 -9.15980E+03  5.31126E+03 -5.58701E+03  4.34975E+03 -3.46892E+03
  4.80905E+03  1.26441E+03 -4.66788E+02  1.05487E+03 -2.63827E+02 -1.23625E+03  2.10360E+03 -5.93809E+03
  8.04325E+03 -3.28954E+03  1.08495E+04  1.46363E+03  1.04796E+04  7.10532E+03  8.49112E+03  1.32720E+04
 -2.32945E+03  1.56893E+04 -1.28955E+04  1.47797E+04 -1.79357E+04  2.80546E+03 -1.37105E+04 -5.85025E+03
 -7.36924E+03 -1.21713E+04  6.76673E+02 -1.03435E+04  4.00229E+03 -4.27133E+03  3.76056E+03 -4.16933E+03
  1.53424E+03 -2.56849E+03  5.25538E+03 -2.78432E+03  4.83074E+03 -2.73343E+03  5.22554E+03  3.41669E+02
  7.36177E+03  2.23162E+03  3.58482E+03  7.13344E+03 -2.70498E+03  6.96735E+03 -8.27720E+03  6.36041E+03
 -1.05282E+04 -1.20709E+03 -5.76567E+03 -7.16246E+03 -1.04076E+03 -1.07932E+04  6.24039E+03 -1.11567E+04
  9.90894E+03 -7.66883E+03  1.34074E+04  2.59586E+03  1.04973E+04  8.72480E+03  1.26712E+03  1.11507E+04
 -5.19024E+03  1.01501E+04 -7.51757E+03  3.85245E+03 -4.64752E+03 -1.07544E+03 -7.04398E+02 -6.90285E+02
 -2.27861E+02 -2.13578E+02 -1.27562E+03  1.27576E+03 -4.92589E+03  4.08092E+02 -7.21739E+03  8.03159E+02
 -5.12772E+03 -8.27246E+03  3.98095E+02 -1.03379E+04  6.98755E+03 -9.32802E+03  9.34390E+03 -2.10076E+03
  9.15369E+03  5.09272E+03  4.28056E+03  7.31925E+03 -3.03531E+03  9.13983E+03 -7.39028E+03  6.33994E+03
 -9.50249E+03 -2.12289E+02 -6.99752E+03 -6.17851E+03 -8.44457E+02 -8.42637E+03  3.35849E+03 -7.29540E+03
  7.16397E+03 -2.29043E+03  4.07893E+03  2.13849E+03  3.04218E+01  2.62170E+03  7.33608E+02  1.05009E+03
  2.34952E+03  4.22981E+02  1.87315E+03  1.16672E+03  2.88989E+03  3.05287E+03  4.13350E+03  7.03199E+03
 -2.02603E+03  7.36969E+03 -6.13993E+03  8.59818E+03 -7.89075E+03  1.37009E+03 -9.93503E+03 -3.20394E+03
 -4.81463E+03 -9.24452E+03  1.71503E+03 -1.06537E+04  5.09086E+03 -5.38289E+03  6.55374E+03 -1.20867E+03
  6.03132E+03  4.41707E+03  2.08479E+03  5.13131E+03 -2.22877E+03  3.17586E+03 -3.55832E+03 -8.75067E+02
 -2.07520E+03 -3.17322E+03  1.82418E+03 -3.10885E+03  3.50793E+03 -1.13950E+03  3.64659E+03  1.18329E+02
  1.77123E+03  1.67637E+03  2.02987E+03  1.58744E+03 -1.67774E+03  1.44254E+03  1.86242E+03 -1.20779E+03
  8.82960E+02  3.89746E+02  3.57706E+03  1.15708E+03  1.01770E+03  4.14801E+03 -6.03272E+02  6.60326E+03
 -4.58358E+03  4.24035E+03 -5.28529E+03  2.28358E+03 -3.97177E+03 -6.31913E+01 -2.02146E+03 -1.98139E+03
  9.30014E+02 -3.46432E+03  2.27430E+03 -1.45966E+03  2.13055E+03  3.21808E+03 -9.39429E+02  3.13657E+03
 -3.31058E+03  1.83675E+03 -3.66168E+03 -1.57986E+03 -2.36334E+03 -4.90162E+03  1.61173E+03 -5.83301E+03
  1.64158E+03 -3.12228E+03  2.73850E+03 -1.23848E+02  1.40156E+03  3.69639E+02  2.51581E+02  1.77817E+03
 -2.74907E+03  1.04016E+03 -2.16719E+03 -2.06287E+03  9.21182E+02 -4.15024E+03  2.14102E+03 -2.31955E+03
  4.89632E+03  1.10454E+03  4.34675E+03  4.37762E+03  2.45387E+03  4.73188E+03 -1.81174E+03  4.53321E+03
 -3.95417E+03  1.85396E+03 -4.82317E+03 -3.02640E+02 -2.32049E+03 -2.71386E+03  1.46737E+03 -3.08001E+03
  3.20665E+03 -3.39206E+03  1.43923E+03  4.67425E+02  2.15700E+02  2.28451E+03  3.35923E+02  1.39931E+03
 -1.69691E+03  1.49463E+03 -1.02239E+03 -2.43407E+02  6.88642E+02  6.97449E+02 -9.85662E+02  1.62959E+03
  2.16435E+02  6.04114E+02 -3.28876E+03  2.12136E+03 -4.84861E+03 -1.03864E+03 -5.87997E+03 -4.54631E+03
 -2.99487E+03 -6.69306E+03  1.59519E+03 -7.52018E+03  5.22304E+03 -6.83808E+03  6.18676E+03 -9.80556E+02
  5.94708E+03  4.32498E+02  4.19414E+03  5.33044E+03 -1.38706E+03  5.94247E+03 -1.24460E+03  4.94049E+03
 -3.63236E+03  2.24775E+03 -2.22641E+03  2.12064E+02 -1.36050E+03 -8.29487E+02 -3.43654E+02  5.73078E+02
 -1.16203E+03 -2.12562E+02 -1.51432E+03  4.20828E+02  7.67096E+02 -2.04777E+03  9.74818E+02 -3.66210E+03
  2.93964E+03 -1.36342E+03  2.62789E+03  1.65715E+01  4.30919E+03  3.90584E+03  4.76046E+02  5.35721E+03
 -2.90186E+03  6.63158E+03 -4.97754E+03  2.78040E+03 -6.28674E+03  3.77552E+01 -5.80029E+03 -4.72760E+03
 -1.95370E+03 -6.44363E+03  2.18872E+03 -5.79379E+03  2.07646E+03 -2.67069E+03  2.42336E+03  5.53314E+02
  1.73180E+03  1.63734E+03 -3.39057E+02  9.92859E+02 -6.50358E+02 -6.97055E+01  5.98336E+02 -1.91954E+02
  2.03610E+03 -1.94785E+02  2.29636E+03 -1.09401E+02  2.10572E+03  2.13866E+03  5.93455E+02  2.15317E+03
 -1.34038E+03  1.45503E+03 -3.08962E+03  3.42493E+01 -2.50497E+03 -2.16215E+03 -9.60702E+01 -3.84283E+03
  2.15482E+03 -3.48232E+03  2.95977E+03 -1.16078E+03  3.56214E+03  2.92724E+01  3.18994E+03  2.57061E+03
  6.61230E+02  2.29121E+03 -1.82340E+03  2.71722E+03 -2.42885E+03  1.08978E+03 -1.44073E+03  3.43943E+02
 -1.23730E+02  1.77477E+02 -9.28427E+02  1.53245E+03 -2.67708E+03  1.08345E+02 -1.77896E+03 -1.14465E+03
 -2.92302E+03 -2.30064E+03 -1.43150E+03 -2.30788E+03  1.99557E+03 -5.21759E+03  3.18043E+03 -5.44901E+02
  2.67828E+03  4.05194E+02 -3.85250E+01  1.88729E+03  6.05079E+02  4.10156E+03 -1.57124E+03  2.82328E+03
