 $NMID ID='MM_0lb_SNR200_20hz_g60_80.RAW', FMTDAT='(8E13.5)'
 TRAMP=1., VOLUME=1. $END
  3.10533E+05 -2.91266E+02  3.37614E+05  2.50063E+05  8.46883E+04  3.35929E+05 -1.31968E+05  2.50345E+05
 -1.90048E+05  8.33159E+04 -1.11069E+05 -3.28746E+04  1.21153E+03 -5.04724E+04  5.32320E+04 -2.80413E+02
  3.56755E+04  5.22264E+04 -1.63871E+04  7.58855E+04 -5.95160E+04  6.25600E+04 -8.32990E+04  3.14674E+04
 -8.07832E+04 -1.19899E+04 -5.57960E+04 -5.09017E+04 -1.47009E+04 -6.86694E+04  2.68653E+04 -4.50827E+04
  3.99648E+04  3.86282E+03  1.58740E+04  4.72603E+04 -3.43674E+04  4.66292E+04 -6.50358E+04  2.39358E+02
 -5.32504E+04 -5.58707E+04 -6.46432E+03 -7.49677E+04  3.35775E+04 -5.42481E+04  4.66748E+04 -1.74497E+04
  4.14713E+04  1.04144E+04  3.10630E+04  2.48296E+04  1.50495E+04  2.86202E+04 -4.09210E+03  2.61054E+04
 -2.17352E+04  1.18712E+04 -1.82394E+04 -3.16211E+03  6.11242E+03 -7.52970E+03  2.29535E+04  1.15470E+04
  6.70852E+03  3.36282E+04 -3.15097E+04  3.41774E+04 -6.08919E+04  8.55871E+02 -5.52218E+04 -4.08739E+04
 -1.25132E+04 -6.19708E+04  3.86517E+04 -4.42686E+04  5.55834E+04 -1.70130E+03  3.22368E+04  3.08582E+04
 -5.99404E+03  3.31207E+04 -2.82700E+04  1.44723E+04 -2.90939E+04 -5.97541E+03 -1.50429E+04 -1.04646E+04
 -8.00332E+03 -1.28005E+04 -1.14719E+03 -1.63029E+04  7.67817E+03 -2.33394E+04  1.58293E+04 -1.40729E+04
  1.22484E+04  5.17073E+03 -7.28826E+03  1.31503E+04 -1.92812E+04 -3.11758E+03 -8.12250E+03 -3.11718E+04
  2.08280E+04 -4.08346E+04  4.63755E+04 -1.83709E+04  4.18630E+04  1.88786E+04  1.52699E+04  4.10809E+04
 -1.49388E+04  3.15305E+04 -2.41119E+04  2.31336E+03 -8.62830E+03 -2.70273E+04  2.04187E+04 -3.29272E+04
  3.84581E+04 -6.93244E+03  3.34624E+04  2.36281E+04  1.58816E+04  4.37683E+04 -7.48821E+03  4.63353E+04
 -2.87328E+04  3.09931E+04 -3.90390E+04  8.13386E+03 -3.98159E+04 -1.53847E+04 -2.25883E+04 -3.42814E+04
  8.24276E+03 -3.44692E+04  3.02280E+04 -1.26172E+04  2.84390E+04  1.00796E+04  3.32948E+03  1.82658E+04
 -1.23753E+04  6.26081E+03 -9.58590E+03 -7.90804E+03  6.16702E+03 -9.73801E+03  1.73031E+04  6.68665E+03
  1.20652E+04  2.25036E+04 -7.60813E+03  2.33649E+04 -2.11138E+04  1.04426E+04 -2.60151E+04 -6.31986E+03
 -1.83938E+04 -1.67494E+04 -6.04621E+03 -1.69408E+04  4.02234E+03 -1.52253E+04  1.35591E+04 -1.50765E+04
  2.17981E+04 -1.15239E+04  2.85269E+04  1.56263E+03  2.20998E+04  1.68742E+04  3.10564E+03  3.26479E+04
 -1.60118E+04  2.81308E+04 -2.58109E+04  9.27621E+03 -1.97900E+04 -1.04192E+04 -3.89542E+03 -1.33474E+04
  2.94319E+03 -3.73367E+03 -2.46097E+03  6.41275E+03 -1.34650E+04  5.58942E+03 -1.30841E+04 -5.10335E+03
 -8.57936E+03 -1.60652E+04  4.04115E+03 -2.00221E+04  1.22874E+04 -1.40037E+04  1.38015E+04 -1.75377E+03
  9.02579E+03  1.09541E+04 -1.14899E+03  1.62845E+04 -1.06617E+04  9.53928E+03 -1.59386E+04 -3.07781E+03
 -1.05771E+04 -1.48395E+04 -1.76109E+03 -1.84280E+04  8.22124E+03 -1.54195E+04  1.55247E+04 -6.07537E+03
  1.50500E+04  6.14997E+02  1.01486E+04  3.99679E+03  5.54527E+03  9.90264E+02  7.55272E+03 -1.38667E+03
  1.42295E+04  2.13166E+03  1.54449E+04  1.18829E+04  9.25845E+03  2.47351E+04 -3.47091E+03  2.67165E+04
 -1.53824E+04  1.93534E+04 -2.55854E+04  9.31687E+03 -2.50651E+04 -3.22388E+03 -2.25660E+04 -1.41690E+04
 -1.00660E+04 -1.93363E+04  7.03867E+03 -2.09229E+04  1.70742E+04 -1.03193E+04  1.60857E+04  4.04570E+03
  7.71302E+03  1.19967E+04 -6.91168E+03  1.04374E+04 -1.31950E+04  3.23420E+03 -1.05856E+04 -7.85709E+03
 -7.87283E+02 -1.17841E+04  7.24707E+03 -9.49592E+03  7.80875E+03 -9.06880E+02  1.31135E+03  4.87055E+03
 -5.37580E+03  1.70364E+03 -3.54216E+03 -4.98182E+03  1.28500E+03 -1.05381E+04  7.32974E+03 -1.05114E+04
  1.30879E+04 -5.15576E+03  1.21876E+04  3.13068E+03  1.03856E+04  8.94686E+03  5.04620E+03  1.37762E+04
 -2.30310E+03  1.62000E+04 -9.67316E+03  9.56510E+03 -1.18034E+04  3.37635E+03 -8.89419E+03 -2.16996E+03
 -5.39535E+03 -3.57117E+03 -1.05932E+03  7.28134E+02 -1.15948E+03  2.33501E+03 -3.13474E+03  3.16026E+03
 -7.70118E+03 -1.24910E+03 -8.94110E+03 -8.66104E+03 -4.01788E+03 -1.11799E+04  4.12099E+03 -8.41122E+03
  7.19624E+03 -3.05704E+03  5.72200E+03  1.94763E+03  1.17766E+03  3.28667E+03 -2.78614E+03 -7.67159E+01
 -3.42801E+03 -4.92300E+03 -9.78564E+02 -6.86639E+03  3.73500E+03 -7.55500E+03  1.01575E+04 -3.46577E+03
  1.17943E+04  2.17710E+02  8.95132E+03  6.42980E+03  1.90479E+03  7.88717E+03 -5.36820E+03  9.11419E+03
 -6.85063E+03  3.46247E+03 -4.00147E+03 -1.70201E+03  8.90401E+02 -2.28430E+03  4.52143E+03 -8.43709E+02
  2.98089E+03  3.43066E+03  1.44730E+03  6.73560E+03 -4.57747E+03  5.74725E+03 -7.84690E+03  9.78232E+02
 -5.03652E+03 -3.41034E+03  4.87677E+02 -6.63139E+03  4.13872E+03 -2.33285E+03  3.34868E+03  7.65214E+02
  9.21348E+02  2.68862E+03 -3.00805E+03  5.55272E+03 -5.00973E+03  2.29490E+03 -4.51103E+03 -8.47260E+02
 -2.62085E+03 -6.08827E+03  1.59580E+03 -7.24330E+03  5.16699E+03 -5.90437E+03  6.36296E+03 -2.36989E+02
  5.11838E+03  5.15809E+03  3.26203E+02  6.82101E+03 -4.80611E+03  3.88075E+03 -4.63947E+03  2.80014E+01
 -4.88963E+03 -6.25962E+03 -1.21571E+03 -3.98497E+03  1.96410E+03 -4.04673E+03  2.77228E+03 -2.84664E+03
  3.06263E+03  7.76067E+02 -3.59407E+02  1.22677E+03  6.41418E+02 -1.28267E+03  6.04034E+02 -1.73634E+03
  4.80848E+03 -9.30776E+02  5.01483E+03  8.34262E+02  4.34274E+03  2.77138E+03  5.59103E+03  6.69352E+03
 -9.11761E+02  6.94807E+03 -7.02191E+03  5.40725E+03 -9.74958E+03  1.39410E+03 -6.69543E+03 -2.34040E+03
 -3.50362E+03 -5.83926E+03 -1.82145E+02 -3.90169E+03  2.49503E+03 -8.53025E+02  2.17526E+03 -1.77146E+03
  1.77299E+03 -1.15575E+03  2.12624E+03 -2.70896E+03  3.80507E+03 -1.29541E+03  3.16893E+03  6.60303E+02
  4.38078E+03  1.81792E+03  5.55395E+02  3.31062E+03 -1.00131E+03  2.46317E+03 -4.64805E+03  2.20440E+03
 -4.61397E+03 -2.23954E+03  9.56489E+01 -2.99457E+03  1.14705E+03 -3.96038E+03  3.10003E+03 -4.56813E+03
  3.54499E+03 -3.45247E+03  5.32542E+03 -7.10257E+02  4.48201E+03  4.05764E+03  4.76758E+02  5.01501E+03
 -9.47024E+02  5.85632E+03 -2.88938E+03  1.24494E+03 -1.68265E+03 -7.91350E+02 -5.59908E+02  2.97971E+01
  1.27657E+02 -4.76144E+02 -6.04296E+02  6.11456E+02 -2.16520E+03  1.75180E+03 -3.62139E+03 -3.86844E+02
  9.33041E+01 -4.24521E+03  9.79468E+02 -3.74281E+03  2.78914E+03 -4.26881E+03  2.60675E+03 -1.32823E+03
  3.82128E+03  1.49555E+03  1.29015E+03  2.95958E+03 -4.97816E+02  4.81754E+03 -1.44492E+03  2.28869E+03
 -2.53325E+03  4.46135E+02 -2.03937E+03 -1.28849E+03 -1.33985E+00 -2.42562E+03  1.39065E+03 -2.42830E+03
  1.01741E+03 -1.99572E+03  1.94875E+03  1.74491E+03  1.43178E+02  5.49836E+02  1.79160E+03  7.67433E+02
  1.98608E+03  7.30452E+02  2.07428E+03  9.03974E+02  3.13071E+02  1.70012E+03  1.16616E+03  1.25926E+03
 -2.12370E+03  1.79659E+03 -1.52816E+03  3.81955E+03 -3.39742E+03  1.66653E+03 -3.17512E+03 -2.68662E+02
 -2.62689E+02 -2.47972E+03  1.60277E+02 -2.98140E+03  2.04860E+03 -1.96499E+03  2.55696E+03 -7.36350E+02
  7.82430E+02  1.67173E+03  1.23898E+03  1.82371E+03 -1.77747E+02  1.59542E+03 -3.73638E+02  1.90592E+02
 -6.81425E+02 -1.21394E+03  8.27081E+02 -2.15327E+03  1.57567E+02 -8.42621E+02  1.81300E+03  6.34813E+01
  1.39465E+03  5.29658E+02  4.93484E+02 -2.98990E+02 -5.66186E+02  8.30991E+02  1.27179E+03 -5.57244E+02
 -6.93604E+02  3.28806E+02  1.33122E+03  9.22436E+02  6.77860E+02  2.09972E+03  7.52223E+01  3.05318E+03
 -1.05579E+03  1.11284E+03 -1.75487E+03  1.68620E+03 -2.04552E+03 -1.35456E+03  2.56694E+02 -7.73549E+02
  8.23868E+02  3.18508E+02  4.63747E+02  5.39918E+02  7.89977E+02  1.61181E+03 -1.28638E+02  1.60193E+03
 -4.93149E+02  5.00453E+02 -1.13818E+03 -1.90335E+03 -2.25332E+02 -1.56904E+03  1.79161E+02 -2.02416E+03
 -2.79326E+02 -6.92345E+02  1.34005E+03 -4.86096E+02  1.61231E+03 -4.54797E+02  5.57965E+02  6.88167E+02
  1.18736E+03  8.72031E+02  1.21303E+03 -5.99535E+02  8.77154E+02 -4.37815E+02  2.11510E+03 -1.25076E+03
  4.70666E+02 -3.16585E+02  2.81120E+03  1.15593E+03  4.61959E+02  1.09635E+03 -1.36629E+02  2.38207E+03
  2.12606E+02  1.83381E+02 -1.16243E+03  4.87455E+02 -4.62078E+02 -2.03833E+03  7.93628E+02 -3.10302E+02
  7.17602E+02 -7.12189E+02 -7.29514E+01  5.26141E+02  6.26088E+02  8.29677E+02  6.13986E+02  1.17637E+03
 -2.05359E+03  5.75773E+02 -1.05510E+03 -4.74959E+02 -3.74568E+02 -7.56906E+01 -9.34075E+02  5.47029E+02
 -1.04518E+03 -1.58181E+02 -1.41809E+03 -1.05407E+02 -1.14071E+03  4.44649E+02 -1.80832E+03 -7.87022E+02
  4.04843E+02 -1.48392E+03  1.38039E+03 -3.09496E+03  8.49041E+02 -2.02781E+03  2.29914E+03 -1.12307E+03
  2.42463E+03 -4.09520E+02 -1.55412E+02  1.10630E+03 -1.87356E+03  2.03045E+01 -5.71464E+02 -5.92753E+02
 -1.26961E+03  7.83754E+02 -2.69619E+02  3.30132E+02  2.11452E+02  9.03682E+02 -1.17302E+03 -1.59287E+02
 -1.06891E+03  2.51827E+02 -1.20871E+03  4.99204E+02  2.42869E+02 -1.76850E+02  3.40006E+02  7.59035E+02
  9.56256E+02 -8.99907E+02 -4.63738E+02  1.88742E+02  2.55737E+03  6.21754E+02 -7.91453E+02 -4.18775E+02
 -9.30934E+02  2.06730E+03 -2.52328E+03  1.15391E+03 -1.23001E+03 -1.22465E+03 -7.15259E+02 -5.46468E+02
 -1.00058E+03 -5.45054E+02  1.76654E+02 -7.95874E+02  1.81844E+02  2.32550E+02  1.90425E+01  1.72251E+02
  3.22967E+02  2.08962E+01  1.58938E+02  6.62155E+02  4.51862E+02  5.13785E+02 -1.63720E+02  2.86846E+02
  1.93994E+00 -2.89130E+02  4.87131E+02  2.54637E+02  6.05171E+02  4.93139E+02 -1.95362E+02 -4.05772E+02
  5.51633E+02  5.54506E+02 -5.15294E+02 -7.73741E+01 -1.09367E+03 -6.04559E+02 -2.91335E+02 -5.09039E+02
 -1.17869E+02 -6.58457E+02 -2.30520E+01 -1.79559E+01 -4.63210E+02 -3.91824E+02 -5.67412E+02  1.03480E+03
  6.74661E+01 -1.30590E+02  3.10706E+02 -2.76175E+02  4.49780E+02  1.33270E+03 -1.87624E+01 -8.48825E+02
 -6.08692E+02 -1.66323E+02 -1.06568E+03  5.40992E+02 -1.02896E+03  2.16106E+02 -9.44629E+02  3.73834E+02
 -1.11488E+03  1.20334E+03 -2.63558E+03 -1.28808E+03  6.70070E+02 -1.41663E+03  2.10763E+03  4.22208E+02
  1.45086E+02  1.36947E+03 -3.47836E+02  5.55291E+02  1.29998E+02  1.22433E+03 -6.60098E+02  1.01825E+02
