 $NMID ID='MM_0lb_SNR200_17hz_g60_69.RAW', FMTDAT='(8E13.5)'
 TRAMP=1., VOLUME=1. $END
  3.09286E+05  4.62786E+02  3.38347E+05  2.50569E+05  8.59057E+04  3.38529E+05 -1.32391E+05  2.50822E+05
 -1.90306E+05  8.26421E+04 -1.11783E+05 -3.29437E+04  5.32506E+02 -5.06123E+04  5.28760E+04 -8.00490E+02
  3.50652E+04  5.38294E+04 -1.72015E+04  7.67925E+04 -6.14046E+04  6.33859E+04 -8.46055E+04  3.20565E+04
 -8.12708E+04 -1.04942E+04 -5.74357E+04 -5.06175E+04 -1.52758E+04 -6.91906E+04  2.82933E+04 -4.64085E+04
  4.01512E+04  3.75440E+03  1.54086E+04  4.76710E+04 -3.45372E+04  4.66775E+04 -6.64459E+04  1.43692E+02
 -5.28912E+04 -5.69751E+04 -7.70286E+03 -7.78125E+04  3.35741E+04 -5.39577E+04  4.83292E+04 -1.70857E+04
  4.24844E+04  1.10537E+04  3.20151E+04  2.55270E+04  1.56593E+04  2.88218E+04 -5.20730E+03  2.71663E+04
 -2.28193E+04  1.12573E+04 -1.92905E+04 -4.31925E+03  6.06701E+03 -7.40039E+03  2.22361E+04  1.14006E+04
  7.13164E+03  3.57070E+04 -3.20672E+04  3.49128E+04 -6.36039E+04  2.63108E+03 -5.64790E+04 -4.29427E+04
 -1.27733E+04 -6.22619E+04  4.05476E+04 -4.50755E+04  5.66037E+04 -1.69016E+03  3.37440E+04  3.25441E+04
 -6.00719E+03  3.59457E+04 -2.95805E+04  1.51239E+04 -2.92937E+04 -5.06676E+03 -1.61188E+04 -1.18394E+04
 -8.76453E+03 -1.34409E+04 -1.33086E+03 -1.79918E+04  6.98151E+03 -2.44575E+04  1.51301E+04 -1.35122E+04
  1.10848E+04  5.41187E+03 -7.74886E+03  1.27577E+04 -2.08081E+04 -4.40049E+03 -7.27280E+03 -3.33134E+04
  2.22147E+04 -4.34218E+04  4.65842E+04 -1.97544E+04  4.33543E+04  1.86740E+04  1.48871E+04  4.33334E+04
 -1.52464E+04  3.23605E+04 -2.43080E+04  3.08183E+03 -1.06860E+04 -2.75081E+04  2.03862E+04 -3.30530E+04
  4.02474E+04 -9.51928E+03  3.53079E+04  2.41361E+04  1.75799E+04  4.47332E+04 -8.73025E+03  4.94569E+04
 -3.13180E+04  3.31068E+04 -4.11648E+04  9.38584E+03 -4.06245E+04 -1.60823E+04 -2.24911E+04 -3.63056E+04
  7.20278E+03 -3.74929E+04  2.92400E+04 -1.43732E+04  2.87964E+04  1.12305E+04  4.34977E+03  1.84564E+04
 -1.34092E+04  8.99441E+03 -1.01694E+04 -8.86705E+03  5.72709E+03 -1.13361E+04  1.79673E+04  5.99653E+03
  1.24056E+04  2.23647E+04 -6.83795E+03  2.48789E+04 -2.25297E+04  1.00417E+04 -2.63970E+04 -4.98601E+03
 -1.96130E+04 -1.74619E+04 -7.67234E+03 -1.87869E+04  4.80250E+03 -1.88928E+04  1.53330E+04 -1.59322E+04
  2.38881E+04 -1.28944E+04  3.07997E+04  1.70938E+03  2.37517E+04  1.82638E+04  3.43896E+03  3.57109E+04
 -1.70025E+04  3.00408E+04 -2.71130E+04  1.03402E+04 -1.99353E+04 -1.07037E+04 -5.33841E+03 -1.31637E+04
  2.25549E+03 -3.54809E+03 -3.80955E+03  6.79241E+03 -1.42360E+04  4.68921E+03 -1.68121E+04 -6.61029E+03
 -8.33299E+03 -1.71909E+04  5.14178E+03 -2.13844E+04  1.39289E+04 -1.64160E+04  1.74847E+04 -1.52110E+03
  1.02470E+04  1.25988E+04 -1.43800E+03  1.94978E+04 -1.23283E+04  1.06293E+04 -1.71879E+04 -4.64778E+03
 -1.31252E+04 -1.58211E+04 -2.41253E+03 -2.10304E+04  1.00273E+04 -1.68823E+04  1.90137E+04 -7.95676E+03
  1.66777E+04  1.27867E+03  1.21524E+04  3.75669E+03  6.65239E+03  1.65786E+02  9.85088E+03 -1.96860E+03
  1.59586E+04  1.42490E+03  1.87117E+04  1.44877E+04  1.18957E+04  2.80196E+04 -4.16696E+03  3.10482E+04
 -1.87337E+04  2.54087E+04 -2.85811E+04  1.17483E+04 -3.09528E+04 -1.59310E+03 -2.62439E+04 -1.60520E+04
 -1.16558E+04 -2.39555E+04  8.10444E+03 -2.24111E+04  1.94513E+04 -1.07699E+04  1.85707E+04  4.28493E+03
  6.51067E+03  1.37070E+04 -8.68293E+03  1.25900E+04 -1.48836E+04  2.85668E+03 -1.13657E+04 -8.78538E+03
  2.89594E+02 -1.47439E+04  7.65241E+03 -1.05343E+04  1.00531E+04 -1.90233E+03  1.25379E+03  5.71554E+03
 -7.37360E+03  2.03610E+03 -4.69513E+03 -4.67773E+03 -2.40101E+02 -1.31149E+04  8.46007E+03 -1.12472E+04
  1.53790E+04 -5.49143E+03  1.64108E+04  2.33649E+03  1.46150E+04  1.27909E+04  5.59081E+03  1.79299E+04
 -2.96893E+03  2.00611E+04 -1.19730E+04  1.22699E+04 -1.43284E+04  3.91059E+03 -9.73750E+03 -2.28805E+03
 -4.93545E+03 -4.97563E+03 -8.51545E+02  1.77413E+03 -2.62530E+03  3.09413E+03 -3.47942E+03  4.45482E+03
 -9.37921E+03 -9.57296E+02 -1.01801E+04 -7.85700E+03 -4.35284E+03 -1.34575E+04  4.49200E+03 -1.06698E+04
  9.26829E+03 -4.61286E+03  4.84310E+03  2.73008E+03  6.34408E+02  3.57336E+03 -3.91459E+03  2.13935E+02
 -5.40135E+03 -6.06021E+03 -8.87343E+02 -9.03500E+03  4.47443E+03 -1.03070E+04  1.17117E+04 -4.58076E+03
  1.42170E+04  1.47991E+03  1.02361E+04  7.31966E+03  1.90885E+03  1.06347E+04 -6.86269E+03  1.02542E+04
 -8.83451E+03  2.97994E+03 -4.94825E+03 -3.35593E+03  1.53265E+03 -4.00653E+03  6.09391E+03  3.60266E+02
  5.21654E+03  4.12887E+03  1.07916E+03  7.63194E+03 -4.77250E+03  7.65361E+03 -1.00092E+04  2.32487E+03
 -6.07792E+03 -5.46355E+03  1.12068E+03 -8.65053E+03  4.73271E+03 -3.73400E+03  4.38685E+03  1.39631E+03
  6.10420E+02  5.45958E+03 -4.90118E+03  5.18982E+03 -7.93312E+03  2.13956E+03 -6.40530E+03 -8.50848E+02
 -4.64589E+03 -7.86124E+03  2.02793E+03 -9.07632E+03  7.25379E+03 -5.45205E+03  8.37862E+03  2.35141E+03
  4.72974E+03  7.44149E+03 -2.19220E+02  9.69282E+03 -5.69367E+03  4.29469E+03 -7.30167E+03 -1.08829E+01
 -6.16167E+03 -5.23218E+03 -1.69249E+03 -6.34144E+03  3.80824E+03 -4.97031E+03  3.45623E+03 -2.56118E+03
  3.58008E+03  8.47000E+02  4.75451E+02  2.26641E+03  1.38920E+03 -1.11268E+03  6.42702E+02 -1.74050E+03
  4.33460E+03 -1.98884E+03  7.55126E+03  1.12121E+03  7.38034E+03  4.18102E+03  5.42865E+03  1.04377E+04
 -2.78803E+03  1.12909E+04 -9.92488E+03  8.25483E+03 -1.29896E+04  1.88733E+03 -8.69031E+03 -3.97153E+03
 -5.59277E+03 -7.90083E+03 -6.71160E+02 -6.76692E+03  2.54471E+03 -2.33915E+03  2.07807E+03 -2.16247E+03
  1.70419E+03 -1.19210E+03  2.24694E+03 -2.79915E+03  3.72378E+03 -1.16466E+03  5.00507E+03  5.29019E+02
  6.39394E+03  7.24002E+02  2.50714E+03  3.60995E+03 -9.39686E+02  4.34195E+03 -5.75147E+03  3.36083E+03
 -6.71965E+03 -1.57496E+03 -2.66563E+03 -4.88688E+03 -1.16116E+03 -6.25477E+03  3.78445E+03 -6.95844E+03
  6.28766E+03 -2.82782E+03  8.25317E+03  9.25385E+02  5.32774E+03  6.76214E+03  1.55189E+03  8.01043E+03
 -2.84482E+03  7.74732E+03 -4.65276E+03  2.96607E+03 -3.05479E+03 -1.03729E+03 -1.44714E+02 -1.71623E+03
 -4.97463E+02 -2.73309E+01 -8.92989E+02  9.53226E+02 -3.00374E+03  9.90844E+02 -3.85682E+03 -6.31028E+02
 -2.16867E+03 -4.47277E+03  1.68244E+03 -5.34107E+03  4.02316E+03 -5.38396E+03  5.17389E+03 -2.47723E+03
  5.63910E+03  3.54332E+03  2.04631E+03  4.73978E+03 -8.00382E+02  5.25562E+03 -3.12139E+03  3.61993E+03
 -5.74395E+03  7.18772E+01 -5.22664E+03 -3.91268E+03 -2.51955E+02 -3.88423E+03  1.44530E+03 -2.34415E+03
  4.25356E+03 -1.41324E+03  2.43834E+03  6.69019E+02  9.58523E+01  1.52955E+03  6.07776E+02  5.46650E+02
  8.53355E+02  1.13840E+03  1.27995E+03  8.24603E+02  1.37762E+03  2.98062E+03  2.07524E+03  2.70908E+03
 -2.29455E+03  5.04007E+03 -3.30188E+03  4.34666E+03 -4.95611E+03  1.25699E+03 -5.43205E+03 -6.36075E+02
 -2.20436E+03 -4.69715E+03  8.94332E+02 -6.87978E+03  3.04074E+03 -3.42016E+03  4.91222E+03 -1.85563E+03
  3.82025E+03  2.27680E+03  2.19502E+03  2.55386E+03 -1.06347E+03  2.53697E+03 -1.51103E+03 -1.86988E+01
 -4.60528E+02 -2.11939E+03  1.44676E+03 -1.86960E+03  1.78583E+03 -1.30344E+03  1.33387E+03  7.60005E+02
  1.41738E+03  3.72922E+02  7.81628E+02  9.20235E+02  3.04265E+02  5.86657E+02  9.53819E+02  4.64202E+02
  4.27716E+02 -3.71430E+02  1.70079E+03  4.22909E+02  5.41604E+02  2.85435E+03  7.37299E+02  3.99583E+03
 -3.06925E+03  1.43618E+03 -3.21207E+03  7.17189E+02 -2.85664E+03 -7.47930E+01 -1.16956E+02 -1.24264E+03
  1.34670E+03 -2.27329E+03  1.29578E+03 -2.34387E+03  8.73649E+02  1.02380E+03 -7.24964E+02  1.80254E+03
 -2.20657E+03  1.49193E+03 -9.24211E+02 -1.01243E+03 -1.15120E+03 -2.62710E+03 -8.80791E+02 -2.57513E+03
  1.17690E+03  4.36242E+02  7.31601E+02  7.41741E+02  1.33690E+03  6.49236E+02 -6.20379E+02  1.21119E+03
 -1.17437E+03 -4.99637E+02 -6.62489E+02 -3.66199E+02  2.33603E+02 -1.02783E+03  2.28218E+03 -9.07381E+01
  1.71967E+03  1.08890E+02  3.69757E+03  3.89032E+02  1.52999E+03  2.19572E+03 -1.47754E+03  1.33078E+03
 -2.23899E+03  4.25896E+02 -2.72968E+03 -6.20444E+02 -1.58568E+03 -1.69197E+03  1.22468E+03 -1.14126E+03
  2.87857E+03 -1.54571E+03  6.21860E+02  6.33726E+02  1.37825E+02  1.13295E+03  5.11626E+01  7.39613E+02
 -1.30387E+03  1.97778E+03 -1.49578E+03  9.19249E+02  4.36382E+02 -4.14167E+02 -1.97641E+03  6.49481E+02
 -8.12399E+02  5.44255E+02 -1.12058E+03  1.02613E+03 -2.72309E+03 -2.41824E+02 -1.99109E+03  1.61274E+01
 -1.85812E+03 -2.80991E+03  1.00602E+03 -3.39388E+03  1.81353E+03 -3.93793E+03  3.11795E+03 -2.09781E+03
  3.21734E+03  8.58729E+02  1.35116E+03  2.07817E+03 -4.79216E+01  1.06112E+03 -9.84854E+02  2.16154E+03
 -7.43582E+02  1.19947E+03  4.41583E+02  6.75400E+02 -4.37763E+02  2.55391E+02 -1.03455E+03  4.63551E+01
 -3.18051E+02  5.16652E+02 -1.13439E+03  6.68861E+01  2.10402E+02 -2.28258E+03 -5.74923E+02 -2.35764E+03
  1.16163E+03 -4.75984E+02  1.46250E+03  2.01961E+02  1.64324E+03  1.22859E+03 -3.69937E+02  2.44202E+03
 -1.51561E+03  2.31653E+03 -2.80968E+03  1.84553E+03 -2.35745E+03  1.79208E+02 -2.79379E+03 -6.82609E+02
 -2.24518E+03 -1.44992E+03  8.54509E+02 -1.61488E+03  1.91183E+03 -8.75445E+02  7.62625E+02  4.93630E+02
  6.89436E+02  7.82479E+02 -5.85223E+02  9.50223E+02 -1.00711E+01  2.10300E+02  6.42641E+01 -9.58559E+02
 -3.29187E+02  1.23661E+03  7.58109E+02 -3.47627E+02  4.70472E+02  1.59892E+02 -2.82917E+02 -3.16428E+02
 -1.74685E+03  1.15588E+03  2.27582E+02  6.64523E+01 -9.40180E+02 -1.15038E+03  1.44708E+02 -1.76169E+03
 -6.09683E+02 -9.27179E+02  1.25879E+03  1.89716E+02  1.47671E+03 -9.14786E+02  3.98977E+02  5.73958E+02
  1.38830E+03  2.69601E+02 -1.50641E+03  8.84336E+02 -2.08544E+03  4.85751E+02  7.26242E+01  1.35765E+02
 -9.34111E+02 -2.46631E+02 -2.78108E+02 -7.15676E+02 -4.17359E+02  7.27754E+02  4.66445E+02 -2.41153E+02
 -7.39954E+02  4.64396E+02 -4.74742E+02 -4.45981E+02  1.37243E+03 -9.33241E+02  1.62682E+03 -9.60356E+01
  5.60267E+02 -6.09997E+01 -3.18478E+02  2.28047E+01 -7.42758E+02  2.65089E+02 -1.63184E+02  3.93769E+02
