 $NMID ID='MM_0lb_SNR200_8hz_g45_26.RAW', FMTDAT='(8E13.5)'
 TRAMP=1., VOLUME=1. $END
  3.10084E+05 -1.32545E+03  3.37520E+05  2.51120E+05  8.29404E+04  3.37674E+05 -1.32972E+05  2.50240E+05
 -1.89802E+05  8.40211E+04 -1.12564E+05 -3.18163E+04 -1.22295E+02 -4.87379E+04  5.31173E+04 -1.11779E+03
  3.71063E+04  5.44217E+04 -1.67308E+04  7.51496E+04 -6.05568E+04  6.48087E+04 -8.46637E+04  3.25061E+04
 -8.21061E+04 -1.09012E+04 -5.85075E+04 -5.31249E+04 -1.42690E+04 -7.16240E+04  2.85163E+04 -4.69880E+04
  4.02039E+04  3.16089E+03  1.57486E+04  4.71958E+04 -3.59149E+04  4.93954E+04 -6.95641E+04 -3.05168E+02
 -5.49384E+04 -5.82080E+04 -7.22638E+03 -7.88421E+04  3.42327E+04 -5.69535E+04  5.06855E+04 -1.62200E+04
  4.61872E+04  1.22822E+04  3.19782E+04  2.63020E+04  1.65765E+04  3.24693E+04 -5.68016E+03  2.87644E+04
 -2.20863E+04  1.39650E+04 -1.78155E+04 -7.54643E+03  6.48973E+03 -7.04504E+03  2.44120E+04  1.36787E+04
  6.65492E+03  3.95832E+04 -3.42282E+04  3.70316E+04 -6.53902E+04  8.10317E+02 -5.98809E+04 -4.38169E+04
 -1.22275E+04 -6.56153E+04  4.19660E+04 -4.72331E+04  6.12243E+04 -3.13203E+03  3.74525E+04  3.32124E+04
 -5.64519E+03  3.88206E+04 -3.20918E+04  1.95427E+04 -3.47791E+04 -3.68335E+03 -1.96064E+04 -1.16127E+04
 -9.16473E+03 -1.59983E+04 -5.95024E+02 -2.07221E+04  8.69357E+03 -2.37621E+04  1.51355E+04 -1.34525E+04
  9.90977E+03  8.58592E+03 -1.11344E+04  1.34072E+04 -2.23891E+04 -8.04823E+03 -8.04567E+03 -3.81648E+04
  2.44327E+04 -4.64198E+04  5.12872E+04 -2.17500E+04  4.83160E+04  2.22666E+04  1.68071E+04  4.74291E+04
 -1.64513E+04  3.70579E+04 -2.73046E+04  3.06246E+03 -1.13638E+04 -2.95833E+04  2.22861E+04 -3.60010E+04
  4.46021E+04 -1.09802E+04  4.05247E+04  2.55493E+04  2.10066E+04  5.16163E+04 -6.75613E+03  5.52523E+04
 -3.47313E+04  4.04798E+04 -4.77804E+04  1.16016E+04 -5.06022E+04 -1.85065E+04 -2.64304E+04 -4.48431E+04
  8.07963E+03 -4.33739E+04  3.43492E+04 -1.71322E+04  3.09577E+04  1.08421E+04  6.07522E+03  2.09570E+04
 -1.31441E+04  8.65139E+03 -1.24008E+04 -6.62298E+03  5.82693E+03 -1.24463E+04  1.67933E+04  6.05597E+03
  1.64474E+04  2.24045E+04 -6.43776E+03  2.85161E+04 -2.38227E+04  1.59493E+04 -3.14539E+04 -3.61830E+03
 -2.53817E+04 -1.91401E+04 -1.29312E+04 -2.62604E+04  5.40852E+03 -2.54630E+04  1.94670E+04 -2.38194E+04
  3.54498E+04 -1.48639E+04  3.79061E+04  5.10051E+03  2.71614E+04  2.52013E+04  5.29239E+03  4.13038E+04
 -1.91779E+04  3.41279E+04 -3.11004E+04  1.25084E+04 -2.20746E+04 -8.98798E+03 -5.14979E+03 -1.29274E+04
 -1.00139E+03  8.06391E+01 -7.07983E+03  8.15163E+03 -2.07268E+04  6.01349E+03 -2.08009E+04 -9.95372E+03
 -1.34613E+04 -2.52537E+04  6.89131E+03 -2.86163E+04  1.91679E+04 -2.12819E+04  2.20170E+04 -5.89883E+02
  1.51962E+04  1.59814E+04  3.71331E+02  2.37817E+04 -1.69833E+04  1.44446E+04 -2.46090E+04 -3.88867E+03
 -1.72579E+04 -2.12826E+04 -2.06087E+03 -2.86386E+04  1.26537E+04 -2.36221E+04  2.32306E+04 -1.20676E+04
  2.41772E+04 -3.04519E+03  1.89918E+04  6.10307E+03  9.18958E+03  1.31058E+03  1.30127E+04 -3.52591E+03
  2.27449E+04  3.12248E+03  2.71245E+04  2.01224E+04  1.81381E+04  3.73969E+04 -1.92822E+03  4.54251E+04
 -2.62006E+04  3.74109E+04 -4.37934E+04  1.95513E+04 -4.64286E+04 -2.77044E+03 -3.69517E+04 -2.51955E+04
 -1.37745E+04 -3.76665E+04  1.34598E+04 -3.28821E+04  2.99504E+04 -1.71661E+04  2.49415E+04  6.23299E+03
  7.84773E+03  1.90947E+04 -1.11120E+04  1.55622E+04 -2.18743E+04  5.02432E+02 -1.43359E+04 -1.40970E+04
 -2.92318E+02 -2.07304E+04  1.11890E+04 -1.41463E+04  1.27755E+04 -2.65707E+03  1.39516E+03  9.07189E+03
 -8.07476E+03  4.41427E+03 -9.53836E+03 -7.47507E+03 -1.73750E+03 -1.69243E+04  1.26734E+04 -1.99162E+04
  2.48482E+04 -1.10016E+04  2.64620E+04  3.28453E+03  2.39107E+04  1.98583E+04  1.20508E+04  2.99842E+04
 -5.09860E+03  3.11352E+04 -2.16623E+04  2.09694E+04 -2.26990E+04  3.52759E+03 -1.57023E+04 -5.70532E+03
 -8.10434E+03 -9.40190E+03 -1.66570E+03  5.94015E+02 -4.57781E+03  4.26509E+03 -8.19728E+03  4.62442E+03
 -1.31173E+04 -1.44052E+03 -1.57771E+04 -1.12325E+04 -6.49516E+03 -1.99111E+04  7.17151E+03 -1.91115E+04
  1.32255E+04 -6.13572E+03  8.56843E+03  4.33268E+03  3.71696E+02  7.54683E+03 -8.40194E+03 -7.64303E+02
 -6.70423E+03 -1.02299E+04 -1.93741E+03 -1.70391E+04  9.74249E+03 -1.85036E+04  2.09229E+04 -9.03055E+03
  2.44293E+04  3.70110E+03  1.82393E+04  1.69107E+04  4.25684E+03  1.90618E+04 -9.60047E+03  1.70131E+04
 -1.36827E+04  5.58550E+03 -6.22931E+03 -4.22623E+03  1.52111E+03 -3.66232E+03  8.66867E+03 -1.74355E+03
  8.06732E+03  6.75246E+03  1.90965E+03  1.18410E+04 -8.45258E+03  1.41386E+04 -1.55166E+04  2.69183E+03
 -1.10539E+04 -8.90554E+03  7.19287E+02 -1.32464E+04  9.20091E+03 -5.95391E+03  1.10745E+04  5.58533E+03
  2.83567E+03  9.89876E+03 -6.74695E+03  1.42301E+04 -1.45429E+04  3.82619E+03 -1.33097E+04 -5.46007E+03
 -9.55745E+03 -1.85506E+04  5.46733E+03 -2.02947E+04  1.61303E+04 -1.25339E+04  1.85613E+04  1.87564E+03
  1.00510E+04  1.34342E+04 -1.20178E+03  1.58576E+04 -1.40455E+04  8.74717E+03 -1.48455E+04 -5.85095E+02
 -1.09090E+04 -1.03861E+04 -1.97270E+03 -1.22540E+04  6.51866E+03 -1.05727E+04  6.99841E+03 -3.78890E+03
  6.40426E+03  1.35947E+03 -8.17797E+02  2.43903E+03 -2.76859E+03 -3.36491E+03  2.32249E+03 -9.17387E+03
  1.31721E+04 -4.07853E+03  1.72209E+04  7.26422E+02  1.59717E+04  1.32092E+04  1.06086E+04  2.16581E+04
 -5.21837E+03  2.52324E+04 -2.08823E+04  1.83765E+04 -2.79263E+04  4.92837E+03 -2.14707E+04 -1.04627E+04
 -1.22356E+04 -1.75082E+04  1.54692E+02 -1.63293E+04  3.74499E+03 -9.97647E+03  3.10012E+03 -6.29555E+03
  2.90646E+03 -2.48752E+03  4.81816E+03 -3.88230E+03  7.04800E+03 -4.62174E+03  8.49558E+03 -1.95796E+03
  1.08339E+04  2.14582E+03  4.80859E+03  9.67090E+03 -2.93378E+03  1.32896E+04 -1.14745E+04  1.00499E+04
 -1.63786E+04  3.20247E+02 -1.08453E+04 -1.20079E+04 -1.43939E+03 -1.56224E+04  8.70421E+03 -1.66719E+04
  1.79045E+04 -8.47313E+03  2.16979E+04  2.92456E+03  1.40810E+04  1.40866E+04  1.98114E+03  1.83979E+04
 -8.22790E+03  1.63864E+04 -1.23875E+04  5.46744E+03 -8.38515E+03 -2.06653E+03 -4.35733E+03 -1.66184E+03
 -3.39494E+03 -9.87521E+02 -2.84849E+03  2.52684E+03 -4.47176E+03  2.41068E+03 -1.07865E+04 -7.60783E+02
 -7.32327E+03 -9.27269E+03 -5.98888E+02 -1.51298E+04  1.15586E+04 -1.46145E+04  1.49601E+04 -5.53498E+03
  1.60972E+04  7.80897E+03  8.97890E+03  1.61328E+04 -2.09949E+03  1.68960E+04 -1.36762E+04  9.55462E+03
 -1.39530E+04  1.74606E+03 -1.00910E+04 -1.21599E+04 -1.93590E+03 -1.28062E+04  7.92926E+03 -1.01104E+04
  1.00633E+04 -1.62433E+03  6.67371E+03  2.97777E+03  1.70795E+03  3.99547E+03  4.57151E+02  1.73231E+03
  2.84156E+03  1.16004E+03  3.55190E+03  1.15545E+03  3.80488E+03  5.68057E+03  4.52651E+03  9.92830E+03
 -4.13602E+03  1.25088E+04 -1.35609E+04  1.22146E+04 -1.78922E+04  2.77994E+03 -1.69972E+04 -6.51054E+03
 -7.01006E+03 -1.83562E+04  9.22614E+02 -1.90967E+04  9.67383E+03 -1.13434E+04  1.30961E+04 -2.47200E+03
  9.68707E+03  6.06163E+03  2.65636E+03  9.77989E+03 -3.78817E+03  5.66621E+03 -8.40189E+03 -8.59726E+02
 -2.87361E+03 -8.39541E+03  2.95084E+03 -7.67931E+03  6.87075E+03 -2.13336E+03  6.87424E+03  1.03035E+03
  3.24851E+03  3.28541E+03  4.27592E+03  3.28989E+03  5.02391E+02  2.51883E+03  1.58191E+03  1.20412E+03
  3.55161E+03 -3.56398E+02  7.42317E+03  3.60144E+03  3.76203E+03  8.26107E+03 -2.36826E+03  1.38341E+04
 -8.85561E+03  6.81376E+03 -1.21275E+04  2.38915E+03 -9.96999E+03 -4.23364E+03 -3.85713E+03 -6.45219E+03
  2.21376E+03 -7.54069E+03  3.45280E+03 -3.14235E+03  3.41757E+03  1.62681E+03 -3.81480E+03  5.98970E+03
 -5.37876E+03  3.89394E+03 -7.60573E+03 -6.35415E+03 -4.25514E+03 -1.22954E+04  4.02916E+02 -8.92623E+03
  6.55395E+03 -5.86936E+03  6.71105E+03  6.69740E+02  4.50326E+03  4.32823E+03 -1.99009E+02  5.93211E+03
 -3.45681E+03  1.53535E+03 -5.30205E+03 -3.05741E+03  1.57716E+03 -7.90574E+03  8.52484E+03 -5.31198E+03
  1.12645E+04  7.67275E+02  9.88766E+03  6.68419E+03  2.84682E+03  1.16241E+04 -4.11539E+03  1.01666E+04
 -9.09669E+03  1.96117E+03 -9.10876E+03 -1.92298E+03 -6.43465E+03 -6.08104E+03  2.29781E+03 -6.91280E+03
  7.79518E+03 -2.85128E+03  6.37690E+03  2.59720E+03  1.50609E+03  5.97915E+03 -1.55071E+03  6.01040E+03
 -2.82871E+03  4.58696E+03 -3.32312E+03  2.11631E+03 -8.38194E+02  6.76114E+02 -1.09065E+03  2.58769E+03
 -2.06372E+03  4.65895E+03 -8.43745E+03  4.89140E+03 -1.23381E+04  1.06307E+03 -1.20851E+04 -8.46316E+03
 -7.32872E+03 -1.50698E+04  2.97272E+03 -1.84496E+04  1.04470E+04 -1.29442E+04  1.85886E+04 -3.22210E+03
  1.64412E+04  4.90997E+03  1.00143E+04  1.04424E+04  2.89111E+02  1.24570E+04 -5.18571E+03  8.64938E+03
 -8.70693E+03  9.51298E+02 -2.48271E+03 -2.86935E+03 -4.09070E+02  1.18671E+03  8.71926E+02 -1.53442E+02
 -2.65437E+03  1.97084E+03 -3.10403E+03  1.00843E+02  6.20508E+02 -1.68082E+03  1.45094E+02 -5.24328E+03
  6.21512E+03 -3.63641E+03  8.19874E+03  3.34880E+02  7.72068E+03  5.98598E+03  1.09283E+03  1.33683E+04
 -5.42981E+03  1.38212E+04 -1.33168E+04  9.10939E+03 -1.56858E+04 -3.53507E+02 -1.24194E+04 -9.06430E+03
 -4.80963E+03 -1.11083E+04  4.80750E+03 -1.27282E+04  8.60079E+03 -5.68085E+03  8.69988E+03  2.57648E+02
  3.82717E+03  4.60354E+03  8.98133E+02  3.74074E+03 -1.98422E+03 -1.84924E+03 -6.14490E+02 -2.23987E+03
  4.43038E+03 -2.10943E+03  3.72222E+03  1.64452E+03  3.52509E+03  4.06455E+03  8.55485E+02  5.42758E+03
 -5.84433E+03  5.60590E+03 -8.81298E+03  7.48547E+02 -8.11149E+03 -4.63214E+03 -6.86191E+02 -1.08168E+04
  6.15846E+03 -6.73546E+03  8.10755E+03 -3.67415E+03  9.39241E+03  4.31046E+03  6.54059E+03  8.03753E+03
 -1.25256E+03  7.10818E+03 -3.48507E+03  6.91743E+03 -7.03406E+03  3.61982E+03 -6.43595E+03  1.62703E+02
 -1.56793E+03 -5.44707E+02 -1.94649E+03  1.04551E+03 -4.12631E+03  1.22293E+03 -6.78624E+03 -1.86454E+03
 -6.92599E+03 -3.29800E+03 -2.67410E+02 -8.00632E+03  4.64270E+03 -7.63829E+03  6.50132E+03 -2.87660E+03
  8.42281E+03 -4.37029E+02  3.74391E+03  6.10038E+03 -1.99577E+03  7.84445E+03 -6.46381E+03  6.02296E+03
