 $NMID ID='MM_0lb_SNR200_14hz_g45_73.RAW', FMTDAT='(8E13.5)'
 TRAMP=1., VOLUME=1. $END
  3.09681E+05  1.83534E+03  3.37758E+05  2.50070E+05  8.39117E+04  3.36181E+05 -1.32019E+05  2.51617E+05
 -1.89882E+05  8.28390E+04 -1.12456E+05 -3.23865E+04  1.31384E+03 -5.07159E+04  5.32569E+04 -1.47972E+02
  3.56127E+04  5.32186E+04 -1.71444E+04  7.54506E+04 -6.10092E+04  6.39059E+04 -8.42268E+04  3.21138E+04
 -8.10552E+04 -1.24250E+04 -5.84067E+04 -5.07090E+04 -1.52095E+04 -6.97516E+04  2.74498E+04 -4.41660E+04
  4.05455E+04  4.30308E+03  1.50318E+04  4.78918E+04 -3.47971E+04  4.71664E+04 -6.48792E+04 -2.03761E+02
 -5.24592E+04 -5.67259E+04 -5.78669E+03 -7.78690E+04  3.48281E+04 -5.47708E+04  4.80246E+04 -1.74672E+04
  4.28253E+04  1.28005E+04  3.18529E+04  2.48112E+04  1.61003E+04  2.92262E+04 -5.04997E+03  2.69260E+04
 -2.11848E+04  1.24686E+04 -1.75046E+04 -4.38192E+03  6.45704E+03 -6.82142E+03  2.22891E+04  1.26814E+04
  7.04837E+03  3.46270E+04 -3.19369E+04  3.51495E+04 -6.31530E+04  1.64173E+03 -5.60044E+04 -4.27158E+04
 -1.17877E+04 -6.34214E+04  3.94171E+04 -4.62976E+04  5.69158E+04 -2.79949E+03  3.32657E+04  3.31593E+04
 -5.77044E+03  3.56301E+04 -3.01956E+04  1.69205E+04 -2.99088E+04 -4.32432E+03 -1.71932E+04 -1.11078E+04
 -8.07246E+03 -1.32566E+04  8.94452E+02 -1.88382E+04  5.47476E+03 -2.24019E+04  1.59321E+04 -1.35825E+04
  1.07438E+04  5.99780E+03 -6.51258E+03  1.37532E+04 -2.15386E+04 -3.16514E+03 -8.62340E+03 -3.46373E+04
  2.41028E+04 -4.27266E+04  4.87986E+04 -1.92935E+04  4.54445E+04  1.97742E+04  1.57675E+04  4.33203E+04
 -1.55239E+04  3.17772E+04 -2.49163E+04  1.66865E+03 -1.02347E+04 -2.83461E+04  2.05931E+04 -3.32799E+04
  3.97911E+04 -8.70442E+03  3.59002E+04  2.32603E+04  1.78132E+04  4.68641E+04 -9.19315E+03  4.89229E+04
 -3.10004E+04  3.26997E+04 -4.05162E+04  9.16364E+03 -4.12174E+04 -1.57446E+04 -2.33931E+04 -3.72550E+04
  7.04568E+03 -3.69866E+04  3.17231E+04 -1.43359E+04  2.74713E+04  1.14187E+04  4.12453E+03  1.91012E+04
 -1.35608E+04  7.45048E+03 -9.71289E+03 -6.78407E+03  5.14669E+03 -1.04688E+04  1.78802E+04  6.86527E+03
  1.36660E+04  2.09400E+04 -6.14926E+03  2.47408E+04 -2.15424E+04  1.06129E+04 -2.85360E+04 -5.50867E+03
 -2.03825E+04 -1.70597E+04 -8.24045E+03 -2.01247E+04  4.30371E+03 -1.90058E+04  1.59993E+04 -1.84889E+04
  2.48485E+04 -1.30000E+04  3.25938E+04  2.77708E+03  2.34365E+04  1.90023E+04  3.47100E+03  3.57142E+04
 -1.73074E+04  2.98051E+04 -2.85478E+04  1.07318E+04 -1.91350E+04 -1.04026E+04 -4.19685E+03 -1.24520E+04
  1.33942E+03 -2.70734E+03 -4.06350E+03  6.16751E+03 -1.65511E+04  4.62517E+03 -1.56024E+04 -6.84858E+03
 -1.06753E+04 -1.84791E+04  4.44854E+03 -2.35698E+04  1.46363E+04 -1.66736E+04  1.82431E+04 -6.87137E+02
  1.15560E+04  1.38258E+04 -7.64294E+01  1.80380E+04 -1.26766E+04  1.09021E+04 -1.78976E+04 -4.40928E+03
 -1.44045E+04 -1.77189E+04 -1.03156E+03 -2.20327E+04  1.10946E+04 -1.88608E+04  1.97146E+04 -8.65665E+03
  1.71916E+04  9.57944E+02  1.33739E+04  4.92122E+03  6.28664E+03  9.44792E+02  9.35377E+03 -2.38747E+03
  1.63258E+04  2.58050E+03  1.84280E+04  1.42522E+04  1.33359E+04  3.04957E+04 -3.60297E+03  3.28105E+04
 -1.84565E+04  2.75949E+04 -3.15423E+04  1.31673E+04 -3.28959E+04 -2.71723E+03 -2.63511E+04 -1.81866E+04
 -1.23396E+04 -2.77315E+04  9.75276E+03 -2.51012E+04  2.21677E+04 -1.36744E+04  1.93410E+04  5.50801E+03
  6.45300E+03  1.34486E+04 -9.33405E+03  1.19104E+04 -1.64053E+04  2.32173E+03 -1.34288E+04 -8.61440E+03
 -6.27195E+02 -1.55994E+04  7.43401E+03 -1.13526E+04  9.65445E+03 -1.77679E+03  1.91677E+03  5.38505E+03
 -6.88145E+03  2.28433E+03 -6.03471E+03 -4.86704E+03  3.23163E+02 -1.28907E+04  8.99369E+03 -1.35334E+04
  1.56202E+04 -7.61961E+03  1.76425E+04  1.35274E+03  1.49649E+04  1.28349E+04  7.32339E+03  2.09175E+04
 -2.33459E+03  2.10663E+04 -1.36139E+04  1.31858E+04 -1.67384E+04  4.51352E+03 -1.16937E+04 -2.80582E+03
 -5.72622E+03 -6.09492E+03 -4.12491E+02 -1.15461E+02 -1.91660E+03  2.87824E+03 -5.52344E+03  4.32429E+03
 -1.08562E+04  5.33896E+02 -1.16159E+04 -9.99276E+03 -5.01953E+03 -1.47084E+04  4.18857E+03 -1.17488E+04
  8.61134E+03 -4.69004E+03  7.02151E+03  3.65268E+03 -1.07568E+03  3.49937E+03 -5.93734E+03 -2.43744E+03
 -5.20784E+03 -6.85581E+03 -9.56152E+02 -1.13112E+04  5.89387E+03 -1.11977E+04  1.39823E+04 -4.80652E+03
  1.61413E+04  1.23942E+03  1.20442E+04  1.05359E+04  2.10150E+03  1.31488E+04 -6.81734E+03  1.15624E+04
 -9.23325E+03  3.79155E+03 -5.29068E+03 -1.78508E+03  2.09345E+03 -3.06118E+03  6.80928E+03 -4.01719E+02
  6.87377E+03  4.03831E+03  5.00908E+02  9.12615E+03 -5.66950E+03  8.79655E+03 -1.10240E+04  3.35523E+03
 -7.69848E+03 -5.09144E+03  1.29056E+03 -8.70022E+03  5.23206E+03 -4.50626E+03  4.67565E+03  1.35309E+03
  5.19774E+02  5.23967E+03 -6.35415E+03  8.26648E+03 -9.00527E+03  2.96505E+03 -7.72562E+03 -2.52200E+03
 -4.52293E+03 -9.31369E+03  1.97205E+03 -1.01900E+04  1.04918E+04 -7.55327E+03  1.02357E+04  1.04498E+03
  4.74665E+03  8.69608E+03 -5.49682E+02  9.78180E+03 -6.52404E+03  6.02581E+03 -8.07566E+03 -4.55813E+02
 -7.58549E+03 -6.92448E+03 -9.57979E+02 -7.19527E+03  4.01213E+03 -6.29717E+03  4.39086E+03 -2.74456E+03
  4.10766E+03 -4.96407E+01 -9.48624E+02  2.73308E+03  4.53915E+02 -1.45413E+03  7.36693E+02 -3.07832E+03
  6.19874E+03 -1.47363E+03  9.36841E+03  1.24820E+03  8.97205E+03  6.16506E+03  6.69399E+03  1.23776E+04
 -3.59678E+03  1.33542E+04 -1.16217E+04  1.02933E+04 -1.50388E+04  1.77480E+03 -1.12658E+04 -5.30807E+03
 -5.68735E+03 -1.08905E+04 -4.34675E+02 -8.90013E+03  2.74611E+03 -3.82146E+03  3.08969E+03 -2.67364E+03
  2.79939E+03 -2.84558E+03  3.37760E+03 -2.94524E+03  3.99862E+03 -6.73359E+02  5.76006E+03  2.01056E+02
  6.17004E+03  2.07645E+03  3.03607E+03  6.41205E+03 -6.59524E+02  6.07311E+03 -6.91527E+03  3.68077E+03
 -7.38751E+03 -8.86840E+01 -4.12240E+03 -5.85341E+03 -7.20915E+02 -8.53358E+03  4.56890E+03 -8.53015E+03
  9.79823E+03 -5.44316E+03  1.09983E+04  1.02352E+03  7.55998E+03  8.15494E+03  6.25025E+02  9.89742E+03
 -3.19411E+03  8.61708E+03 -5.65014E+03  2.70522E+03 -3.23908E+03 -9.43502E+02 -2.26066E+03 -3.17231E+01
 -2.03089E+03  2.67152E+02 -2.05448E+03  1.74943E+03 -4.40466E+03  1.35078E+03 -5.74218E+03 -4.77699E+02
 -3.21279E+03 -5.81895E+03  3.92603E+02 -6.88788E+03  5.12487E+03 -7.00152E+03  6.82237E+03 -6.65164E+02
  7.51429E+03  2.92118E+03  4.07714E+03  6.92268E+03 -2.64710E+03  7.65461E+03 -4.33173E+03  5.45395E+03
 -7.78996E+03  6.43562E+02 -5.56800E+03 -3.89386E+03 -7.64934E+01 -6.31609E+03  1.83853E+03 -4.52138E+03
  4.80636E+03 -2.10343E+03  3.78437E+03  1.10415E+03  6.61910E+02  2.38579E+03  2.90624E+02  7.54812E+02
  1.88795E+03  2.35951E+02  2.65812E+03  1.88579E+03  2.65831E+03  4.82488E+03  2.07851E+03  3.89918E+03
 -2.41530E+03  5.76327E+03 -4.88834E+03  5.47377E+03 -6.96453E+03  2.23135E+03 -7.60872E+03 -3.13394E+03
 -3.53371E+03 -7.35593E+03  9.98604E+02 -9.65868E+03  5.61598E+03 -6.10980E+03  5.43346E+03 -1.27556E+03
  3.82428E+03  4.15057E+03  1.86873E+03  4.50789E+03 -8.52184E+02  2.64603E+03 -2.78472E+03 -1.66017E+03
 -1.50532E+03 -2.63909E+03  1.41300E+03 -3.01097E+03  3.50074E+03 -2.45287E+03  3.77765E+03 -3.45045E+02
  3.67029E+03  1.08897E+03  4.71053E+02  2.15107E+02 -8.57603E+02  3.43683E+02  1.79203E+03  5.75353E+02
  2.58752E+03 -9.02887E+02  2.63948E+03  4.09473E+02  1.17792E+03  4.33942E+03 -3.95766E+02  5.07200E+03
 -3.29950E+03  3.61643E+03 -6.05972E+03  1.59376E+03 -4.65106E+03 -8.82314E+02 -9.21647E+02 -2.70321E+03
  6.24889E+02 -2.01594E+03  2.29058E+03 -1.92824E+03  1.48283E+03  1.30072E+03 -1.34800E+03  2.55216E+03
 -3.11882E+03  1.22157E+03 -3.40826E+03 -3.39411E+03 -8.88018E+02 -3.89766E+03 -4.53237E+02 -2.94140E+03
  1.36041E+03 -1.12954E+03  1.64297E+03 -5.84693E+02  1.74608E+03 -5.62488E+02 -2.23612E+02  1.70664E+03
 -9.43672E+02  2.11922E+03 -2.08532E+03 -1.10216E+03  9.52510E+02 -2.14250E+03  3.66642E+03 -3.30553E+03
  2.98189E+03  1.16853E+03  5.56237E+03  2.21258E+03  8.72409E+02  4.88150E+03 -8.20628E+02  6.10003E+03
 -4.28235E+03  1.18243E+03 -3.99928E+03 -3.68520E+02 -2.80271E+03 -2.57996E+03  6.21212E+02 -2.38195E+03
  3.95295E+03 -7.32969E+02  2.04647E+03 -1.37946E+02  7.59844E+02  1.98868E+03 -3.54604E+02  2.13137E+03
 -9.55865E+02  2.50125E+03 -4.31974E+02 -4.89962E+01 -3.60608E+01  7.51833E+02 -1.16578E+03  8.04902E+02
 -3.89477E+02  1.21839E+03 -3.01709E+03  1.15060E+03 -4.08115E+03  3.16196E+02 -5.91561E+03 -3.78819E+03
 -3.86636E+03 -5.47182E+03  7.08745E+02 -5.33588E+03  3.76840E+03 -5.20175E+03  7.05468E+03 -1.70791E+03
  5.11325E+03  7.65755E+02  4.78502E+03  3.84752E+03  6.40167E+02  3.37782E+03 -1.48661E+03  2.99293E+03
 -2.53422E+03  4.56067E+02 -1.78975E+03 -6.86872E+02 -7.04586E+02  1.42444E+02 -6.53854E+02  9.06360E+01
 -1.22498E+03  1.02721E+02 -5.29695E+02  5.18886E+02  5.42314E+02  1.66335E+02  8.94760E+01 -1.39232E+03
  3.20342E+03 -2.13346E+03  2.27931E+03  7.17928E+02  1.96179E+03  3.67856E+03  1.03347E+03  4.20668E+03
 -2.40940E+03  5.71178E+03 -4.62939E+03  2.55121E+03 -5.56217E+03 -9.14637E+01 -3.25651E+03 -2.26403E+03
 -1.57425E+03 -4.81534E+03 -6.77215E+02 -1.78832E+03  2.44100E+03 -1.88571E+03  2.93466E+03  9.73573E+02
  1.41873E+03  2.43574E+03  2.33200E+02 -2.68914E+02 -1.45602E+03 -1.35541E+03  6.10903E+02 -6.78246E+02
  5.82425E+02 -1.59693E+02  2.19328E+03  8.53500E+02  1.54675E+03  1.59229E+03 -1.55734E+02  1.38938E+03
 -1.62764E+03  1.44453E+03 -2.46025E+03  3.08541E+02 -1.82001E+03 -2.17158E+03 -2.74427E+02 -3.77820E+03
  1.92502E+03 -2.63523E+03  2.96747E+03 -1.00424E+03  2.66719E+03  4.61531E+01  2.03565E+03  2.83710E+03
  1.93334E+03  2.63444E+03 -7.47410E+02  1.32302E+03 -7.39781E+02  2.82719E+02 -1.49647E+03  1.01612E+03
 -1.81027E+02 -9.03274E+02 -2.77301E+02  5.54076E+02 -1.14185E+03  6.62972E+02 -2.07212E+03 -1.14870E+03
 -1.66475E+03 -1.95991E+03 -1.68329E+02 -9.36121E+02  2.91843E+03 -2.26766E+03  1.93210E+03 -1.52104E+03
  3.23005E+03  1.39085E+02  7.79834E+01  1.24364E+03 -1.26518E+03  2.27392E+03 -2.61702E+03  1.14446E+03
