 $NMID ID='MM_0lb_SNR200_18hz_g50_76.RAW', FMTDAT='(8E13.5)'
 TRAMP=1., VOLUME=1. $END
  3.09028E+05  6.41163E+02  3.37287E+05  2.50880E+05  8.43475E+04  3.37513E+05 -1.32846E+05  2.51856E+05
 -1.91368E+05  8.33685E+04 -1.11572E+05 -3.19334E+04  1.44884E+03 -5.04552E+04  5.39648E+04 -8.26278E+02
  3.58072E+04  5.32463E+04 -1.75049E+04  7.46672E+04 -5.98306E+04  6.28548E+04 -8.27279E+04  3.11321E+04
 -7.91906E+04 -1.02607E+04 -5.63300E+04 -5.04578E+04 -1.42476E+04 -6.80497E+04  2.75102E+04 -4.45120E+04
  3.91048E+04  4.03191E+03  1.48547E+04  4.79914E+04 -3.46435E+04  4.55234E+04 -6.63109E+04  7.51360E+02
 -5.23770E+04 -5.63999E+04 -6.22056E+03 -7.49741E+04  3.34504E+04 -5.35162E+04  4.68737E+04 -1.82824E+04
  4.20383E+04  1.18951E+04  3.05034E+04  2.62978E+04  1.50952E+04  2.80653E+04 -4.40429E+03  2.64053E+04
 -2.28037E+04  1.26673E+04 -1.85500E+04 -4.14185E+03  5.33464E+03 -6.42480E+03  2.24229E+04  1.06864E+04
  7.42473E+03  3.42135E+04 -3.10260E+04  3.41305E+04 -6.15085E+04  2.82254E+03 -5.61616E+04 -4.09210E+04
 -1.18977E+04 -6.15574E+04  4.04232E+04 -4.36911E+04  5.62082E+04 -1.40573E+03  3.11543E+04  3.16614E+04
 -6.32283E+03  3.48427E+04 -2.95213E+04  1.46945E+04 -2.83132E+04 -5.20601E+03 -1.49697E+04 -1.06031E+04
 -8.04453E+03 -1.16389E+04 -1.46665E+03 -1.67538E+04  7.02488E+03 -2.20279E+04  1.45364E+04 -1.45915E+04
  1.14050E+04  3.99317E+03 -6.19086E+03  1.27041E+04 -2.05362E+04 -2.13602E+03 -7.54475E+03 -3.10415E+04
  2.13304E+04 -4.07021E+04  4.54468E+04 -1.85817E+04  4.31841E+04  1.84653E+04  1.55283E+04  4.11218E+04
 -1.45010E+04  3.12021E+04 -2.41649E+04  2.73866E+02 -8.70605E+03 -2.69944E+04  2.04422E+04 -3.23732E+04
  3.90025E+04 -7.46633E+03  3.25071E+04  2.26098E+04  1.51884E+04  4.34503E+04 -9.03872E+03  4.52105E+04
 -2.95119E+04  3.07073E+04 -3.92852E+04  7.78108E+03 -4.02584E+04 -1.50923E+04 -2.24589E+04 -3.62954E+04
  7.55524E+03 -3.52414E+04  2.98527E+04 -1.26883E+04  2.73088E+04  1.03269E+04  2.79545E+03  1.84421E+04
 -1.35433E+04  7.25322E+03 -9.26080E+03 -7.32221E+03  5.63567E+03 -9.38457E+03  1.74329E+04  6.58045E+03
  1.21487E+04  2.13750E+04 -7.22354E+03  2.37810E+04 -2.07089E+04  9.66115E+03 -2.59035E+04 -5.34855E+03
 -1.75985E+04 -1.69308E+04 -7.38482E+03 -1.81243E+04  4.22821E+03 -1.54005E+04  1.35098E+04 -1.50392E+04
  2.21204E+04 -1.20010E+04  2.99857E+04  2.25652E+03  2.21346E+04  1.71341E+04  4.26142E+03  3.36994E+04
 -1.65704E+04  2.89300E+04 -2.73300E+04  8.67458E+03 -2.11297E+04 -9.11716E+03 -2.81177E+03 -1.37002E+04
  3.00790E+03 -4.53517E+03 -1.29293E+03  5.81076E+03 -1.22389E+04  5.03099E+03 -1.45890E+04 -4.11885E+03
 -8.15676E+03 -1.65004E+04  4.38818E+03 -1.89109E+04  1.27669E+04 -1.46461E+04  1.54411E+04 -1.37540E+03
  9.08651E+03  1.20930E+04 -4.01364E+02  1.57767E+04 -1.06863E+04  1.04194E+04 -1.61235E+04 -3.65270E+03
 -1.19580E+04 -1.47182E+04 -1.48059E+03 -2.00902E+04  8.71266E+03 -1.58562E+04  1.72007E+04 -7.06692E+03
  1.59411E+04  1.77622E+02  1.05750E+04  4.09071E+03  6.70384E+03  8.09055E+02  7.06852E+03 -1.87045E+03
  1.39998E+04  2.99339E+03  1.50421E+04  1.38012E+04  9.62131E+03  2.57149E+04 -3.59852E+03  2.77621E+04
 -1.59295E+04  2.19292E+04 -2.53147E+04  1.00808E+04 -2.72194E+04 -2.65518E+03 -2.20304E+04 -1.50616E+04
 -1.10978E+04 -2.22385E+04  7.67592E+03 -1.90835E+04  1.67594E+04 -1.04313E+04  1.63715E+04  3.24836E+03
  6.05089E+03  1.23766E+04 -7.28670E+03  1.14270E+04 -1.36495E+04  2.75182E+03 -1.00033E+04 -7.73831E+03
 -1.05588E+03 -1.25023E+04  6.33694E+03 -9.61328E+03  7.40019E+03 -1.57199E+03  9.55293E+02  5.97522E+03
 -4.87058E+03  1.23836E+03 -4.13204E+03 -4.16970E+03  1.34703E+03 -1.05973E+04  8.70617E+03 -1.21809E+04
  1.21828E+04 -4.79290E+03  1.27929E+04  2.65463E+03  1.09096E+04  9.93843E+03  4.90022E+03  1.52675E+04
 -1.49539E+03  1.79527E+04 -1.06463E+04  1.20347E+04 -1.16578E+04  3.02612E+03 -7.54780E+03 -2.39262E+03
 -4.35748E+03 -3.00034E+03 -1.12242E+03  2.12355E+03 -1.88895E+03  1.65149E+03 -4.99976E+03  3.58067E+03
 -8.96681E+03 -9.96739E+02 -9.65055E+03 -7.06690E+03 -3.42521E+03 -1.18168E+04  3.11597E+03 -8.75380E+03
  7.18462E+03 -4.71127E+03  5.53739E+03  2.19878E+03  8.86553E+02  2.94042E+03 -4.54743E+03  1.42864E+02
 -3.35469E+03 -5.50078E+03 -1.50048E+03 -7.87654E+03  3.49632E+03 -9.14275E+03  1.03905E+04 -4.99303E+03
  1.21297E+04 -2.22186E+01  9.26674E+03  7.01489E+03  1.40362E+03  1.04494E+04 -5.60998E+03  9.48268E+03
 -7.40587E+03  2.48423E+03 -3.06275E+03 -1.65856E+03  1.26974E+03 -2.10198E+03  4.69826E+03 -1.57641E+03
  5.25458E+03  3.31842E+03  2.65042E+03  6.68583E+03 -5.40480E+03  6.03745E+03 -8.07510E+03  2.45837E+03
 -5.39551E+03 -3.84100E+03  6.20117E+02 -6.67853E+03  5.28143E+03 -3.84189E+03  4.02222E+03  8.37979E+02
 -3.76600E+02  4.05689E+03 -4.17287E+03  5.09415E+03 -5.32859E+03  3.91231E+03 -4.64926E+03 -1.07540E+03
 -3.87005E+03 -6.23805E+03  1.49315E+03 -8.94362E+03  5.86672E+03 -3.89244E+03  6.16327E+03  5.25143E+02
  5.00919E+03  5.52676E+03 -1.02151E+03  7.15251E+03 -6.23982E+03  5.10049E+03 -6.50464E+03  9.34117E+01
 -5.01517E+03 -5.26594E+03 -4.12832E+02 -6.05357E+03  2.30402E+03 -4.82620E+03  3.46356E+03 -2.76018E+03
  2.02198E+03  4.76247E+02 -6.92537E+02  2.30436E+03  8.29480E+02 -4.35411E+02  2.17122E+03 -2.84878E+03
  3.35600E+03 -6.72125E+02  5.27083E+03 -1.10105E+02  5.87027E+03  3.46397E+03  5.21529E+03  5.89618E+03
 -1.22173E+03  9.76941E+03 -8.02552E+03  6.34144E+03 -1.14241E+04 -1.23769E+02 -8.62727E+03 -1.72670E+03
 -4.18265E+03 -6.64040E+03 -7.55386E+02 -5.19896E+03  2.57234E+03 -1.82692E+03  1.37326E+03 -2.58587E+03
  9.14777E+02 -1.42825E+03  2.06534E+03 -3.44407E+03  2.90150E+03 -9.50982E+02  3.86165E+03  3.64902E+02
  5.13371E+03  8.01098E+02  1.02652E+03  4.18426E+03 -1.78598E+03  2.94848E+03 -4.01891E+03  3.13087E+03
 -4.63655E+03 -7.54733E+02 -3.20253E+03 -3.67171E+03 -6.23227E+02 -5.10100E+03  3.67144E+03 -5.09028E+03
  5.66495E+03 -3.53874E+03  7.79011E+03 -1.20553E+02  4.38261E+03  4.61543E+03  1.94074E+03  6.72559E+03
 -1.92520E+03  6.27135E+03 -3.53366E+03  1.46807E+03 -2.42924E+03 -1.88221E+03 -6.73077E+02 -1.16921E+03
 -5.15365E+02  7.80743E+02 -1.72200E+03  2.46684E+03 -2.52902E+03  1.78278E+03 -4.41504E+03 -3.82826E+02
 -1.08371E+03 -4.34831E+03  3.77880E+02 -3.99292E+03  2.91080E+03 -4.60753E+03  4.41755E+03 -1.17106E+03
  4.60738E+03  2.06041E+03  3.22565E+03  3.60024E+03 -1.71304E+03  5.40242E+03 -2.91322E+03  3.29941E+03
 -3.54479E+03  3.77093E+02 -4.53081E+03 -3.10042E+03  1.14505E+03 -3.43868E+03  8.74070E+02 -3.24042E+03
  2.06799E+03 -1.78862E+03  2.45697E+03  8.39246E+02  4.28150E+02  2.56254E+03  1.11174E+03  4.62771E+02
  1.85878E+03  5.95149E+02  2.00614E+03  2.32583E+03  1.09849E+03  1.79420E+03  7.12907E+02  2.55020E+03
 -1.50302E+03  3.92656E+03 -2.90193E+03  4.57992E+03 -3.74900E+03  1.82577E+03 -3.51265E+03 -1.74044E+03
 -1.62017E+03 -3.49867E+03 -4.27961E+02 -5.51574E+03  2.78078E+03 -2.99108E+03  3.72309E+03 -1.23277E+03
  2.26403E+03  1.93858E+03 -3.03307E+00  1.89079E+03 -4.25756E+02  1.76796E+03 -1.18962E+03 -6.74262E+02
 -7.54036E+02 -1.32094E+03  2.36254E+02 -2.30908E+03  1.28435E+03 -1.36963E+03  5.35173E+02  1.34522E+02
  4.50431E+02  1.51836E+03  1.46999E+03  4.16530E+02  4.61347E+02  6.03313E+02  2.52085E+03 -4.25456E+01
  1.29311E+02  5.55895E+01  2.46690E+03  6.10828E+02  1.78154E+02  2.51132E+03 -6.60201E+02  3.83012E+03
 -1.17595E+03  2.13206E+03 -2.58650E+03  1.38251E+01 -1.75658E+03 -9.59281E+02 -3.71288E+02 -1.56017E+03
 -3.00413E+02 -1.46633E+03  1.36217E+03 -6.35380E+02  1.27675E+03  1.74457E+03 -8.36493E+02  1.84588E+03
 -3.66391E+02  1.37471E+03 -2.39752E+03 -1.76939E+03  5.14164E+01 -1.10658E+03  1.40640E+02 -2.25658E+03
  2.48769E+02  1.51234E+02  1.52146E+03  2.86667E+01  1.65939E+03  3.91726E+02  2.67196E+02  2.96886E+02
 -3.50374E+02  3.79955E+02 -8.94008E+02 -7.78599E+02  1.26370E+03 -1.71344E+03  2.80641E+03 -1.86974E+03
  1.99188E+03 -5.29483E+02  3.12634E+03  1.51378E+03  8.09150E+02  2.12524E+03  5.23886E+01  2.99559E+03
 -1.16777E+03  1.84859E+02 -2.11959E+03  2.92331E+02 -2.66094E+03 -1.30784E+03  3.75943E+02 -6.06120E+02
  3.26447E+02 -8.20542E+02  1.05652E+03 -1.39434E+02  1.79411E+03  1.45429E+03  3.61493E+02  1.58247E+03
 -8.28530E+02  1.50830E+03 -1.50319E+02  8.14043E+02 -7.88658E+02 -2.94738E+02 -1.34539E+02 -6.41518E+02
 -8.09334E+02  1.16670E+00 -1.50896E+03  4.09693E+02 -2.77643E+03 -2.16444E+02 -2.09041E+03 -1.68222E+03
 -1.46544E+03 -3.03225E+03  7.02225E+02 -3.32331E+03  1.83174E+03 -2.26223E+03  3.29613E+03 -1.72296E+03
  2.17578E+03 -1.01349E+03  1.75201E+03  1.39869E+03 -9.72223E+02  1.33512E+03 -9.08785E+02  1.41876E+03
 -1.94321E+03  1.17591E+03 -1.15981E+03 -8.08598E+02 -7.09520E+02  6.27442E+02 -9.25832E+02 -4.78627E+02
 -6.98340E+02 -7.66886E+02 -1.24314E+03 -2.75245E+02  3.12430E+02  3.06381E+02 -7.51815E+02  3.54696E+01
  2.12081E+03 -4.09861E+02  4.91913E+02 -3.18066E+02  2.32180E+03  1.35289E+03 -7.71136E+02  1.85148E+03
 -9.79400E+02  2.08117E+03 -1.44761E+03  1.61816E+03 -1.72618E+03 -1.00535E+03 -1.87003E+03 -1.76594E+03
 -6.22737E+01 -2.15031E+03 -2.28666E+02 -3.76905E+02  1.10708E+03 -6.26722E+01  2.07751E+02  9.18632E+02
  1.86256E+02 -4.24710E+02 -2.03882E+02  2.56997E+02  2.72287E+02 -5.08116E+02  2.58219E+02 -4.41102E+02
  1.12342E+03 -1.65295E+02  1.95783E+02 -3.42338E+02  1.02610E+02  5.25346E+02  2.71030E+02 -7.84331E+02
 -9.02406E+02  6.86763E+01  3.27342E+02  1.14580E+03 -3.44056E+02 -1.43785E+03  1.05621E+01 -1.77558E+03
  8.51578E+02  6.45177E+02  2.01141E+02 -6.76147E+00  1.14947E+03 -1.62929E+03  1.35917E+03  3.32077E+02
  7.38414E+02  1.67883E+03  3.59376E+02 -1.39372E+02  3.14960E+02  3.00778E+02  1.69198E+02  5.44400E+02
  2.48640E+02 -3.21985E+00 -5.11426E+02  1.09007E+02 -9.48559E+02 -7.55106E+01 -9.03879E+02  4.14746E+02
 -1.33744E+03 -3.25469E+02 -6.49672E+02 -1.78750E+03  4.13301E+02 -1.09450E+03  4.89605E+02 -1.44082E+03
  1.55174E+03  5.34035E+02 -3.34664E+02  8.87763E+02  1.66998E+02  9.65864E+02 -4.75561E+02  1.32169E+03
