 $NMID ID='MM_0lb_SNR200_12hz_g55_32.RAW', FMTDAT='(8E13.5)'
 TRAMP=1., VOLUME=1. $END
  3.09716E+05  1.83441E+03  3.38137E+05  2.51416E+05  8.51735E+04  3.38106E+05 -1.33042E+05  2.51958E+05
 -1.91223E+05  8.30002E+04 -1.13084E+05 -3.22825E+04 -3.17299E+02 -4.87224E+04  5.43065E+04 -6.90311E+02
  3.60206E+04  5.20136E+04 -1.58239E+04  7.57975E+04 -6.14074E+04  6.19452E+04 -8.44649E+04  3.20358E+04
 -8.24872E+04 -9.68844E+03 -5.62647E+04 -5.13616E+04 -1.53328E+04 -6.94457E+04  2.61251E+04 -4.63869E+04
  3.98529E+04  3.41583E+03  1.55796E+04  4.80733E+04 -3.55926E+04  4.82255E+04 -6.75552E+04 -2.39889E+02
 -5.51214E+04 -5.73035E+04 -8.17587E+03 -7.97973E+04  3.40403E+04 -5.59064E+04  5.00075E+04 -1.76731E+04
  4.52462E+04  1.13721E+04  3.28837E+04  2.70961E+04  1.73150E+04  3.12932E+04 -6.98668E+03  2.79318E+04
 -2.27295E+04  1.23512E+04 -1.79097E+04 -4.85006E+03  5.11928E+03 -8.54267E+03  2.38490E+04  1.16241E+04
  6.08171E+03  3.58851E+04 -3.44988E+04  3.68497E+04 -6.43928E+04  3.13892E+03 -5.74053E+04 -4.38768E+04
 -1.17071E+04 -6.55397E+04  4.19866E+04 -4.65356E+04  5.98957E+04 -2.39319E+03  3.59433E+04  3.35399E+04
 -5.16320E+03  3.74460E+04 -3.11563E+04  1.80908E+04 -3.08610E+04 -4.16091E+03 -1.80831E+04 -1.27462E+04
 -1.06303E+04 -1.42940E+04 -3.81692E+01 -1.97525E+04  7.39905E+03 -2.18116E+04  1.56114E+04 -1.28036E+04
  1.09731E+04  5.97927E+03 -1.00720E+04  1.46431E+04 -2.27502E+04 -6.07673E+03 -7.93997E+03 -3.66897E+04
  2.44642E+04 -4.57624E+04  5.02637E+04 -1.92048E+04  4.65715E+04  1.93029E+04  1.70167E+04  4.67299E+04
 -1.60902E+04  3.55093E+04 -2.71101E+04  1.28899E+03 -1.07500E+04 -2.91525E+04  2.07529E+04 -3.46629E+04
  4.24057E+04 -1.04585E+04  3.69276E+04  2.45737E+04  2.02934E+04  4.84914E+04 -8.90201E+03  5.44497E+04
 -3.24620E+04  3.68678E+04 -4.53901E+04  1.15638E+04 -4.50023E+04 -1.72358E+04 -2.39688E+04 -4.01567E+04
  8.46171E+03 -4.08878E+04  3.13619E+04 -1.62609E+04  3.00059E+04  1.31273E+04  4.80824E+03  1.90150E+04
 -1.38141E+04  8.31359E+03 -1.14468E+04 -7.94194E+03  5.16859E+03 -1.12616E+04  1.95540E+04  6.56104E+03
  1.47131E+04  2.22820E+04 -6.63885E+03  2.59558E+04 -2.39172E+04  1.27315E+04 -2.99248E+04 -3.79984E+03
 -2.38390E+04 -1.84633E+04 -9.58535E+03 -2.32725E+04  4.20213E+03 -2.31515E+04  1.71099E+04 -2.18330E+04
  2.94030E+04 -1.34798E+04  3.37108E+04  4.82186E+03  2.44741E+04  2.24811E+04  5.10035E+03  3.94360E+04
 -1.80113E+04  3.20635E+04 -2.98738E+04  1.02389E+04 -2.17642E+04 -1.14320E+04 -4.26674E+03 -1.32977E+04
  2.29856E+03 -1.62171E+03 -7.69643E+03  6.81645E+03 -1.87312E+04  5.37763E+03 -1.78647E+04 -7.32552E+03
 -1.14842E+04 -2.12571E+04  6.68099E+03 -2.50408E+04  1.63127E+04 -1.76292E+04  2.05015E+04 -2.50598E+03
  1.45749E+04  1.42522E+04 -1.92245E+03  2.09258E+04 -1.42574E+04  1.23863E+04 -2.24710E+04 -4.33435E+03
 -1.59424E+04 -1.83276E+04 -1.61919E+03 -2.56677E+04  1.08799E+04 -2.01368E+04  1.96758E+04 -1.04723E+04
  1.94746E+04 -3.59167E+02  1.36672E+04  4.01968E+03  7.07511E+03  9.73713E+02  9.77932E+03 -2.22057E+03
  2.03241E+04  2.90173E+03  2.29867E+04  1.68521E+04  1.40433E+04  3.41272E+04 -3.83768E+03  3.85673E+04
 -2.34409E+04  3.17572E+04 -3.68567E+04  1.71809E+04 -3.94153E+04 -2.25737E+03 -3.07012E+04 -2.30823E+04
 -1.08857E+04 -3.22394E+04  1.23562E+04 -2.80537E+04  2.42333E+04 -1.38741E+04  2.10058E+04  8.39541E+03
  7.13720E+03  1.70692E+04 -9.00957E+03  1.27744E+04 -1.79740E+04  1.64347E+03 -1.31882E+04 -1.21579E+04
  4.70140E+02 -1.66181E+04  9.64301E+03 -1.43993E+04  1.10132E+04 -2.15699E+03  3.50471E+03  8.71457E+03
 -6.52036E+03  3.05758E+03 -9.26548E+03 -5.55626E+03 -1.23048E+03 -1.60003E+04  1.10850E+04 -1.78870E+04
  2.10498E+04 -9.28822E+03  2.10064E+04  3.99397E+03  1.84262E+04  1.63169E+04  8.87957E+03  2.38217E+04
 -4.05477E+03  2.65735E+04 -1.60689E+04  1.61422E+04 -1.91371E+04  3.45942E+03 -1.35552E+04 -4.51284E+03
 -6.09299E+03 -6.56823E+03 -3.22688E+02 -5.48731E+01 -2.83883E+03  3.33294E+03 -5.39867E+03  4.41725E+03
 -1.07285E+04 -1.53036E+03 -1.23728E+04 -9.05887E+03 -5.51757E+03 -1.71169E+04  6.53077E+03 -1.46983E+04
  1.09587E+04 -6.03552E+03  8.22426E+03  4.14063E+03 -7.64589E+02  5.64978E+03 -6.02156E+03 -1.26193E+03
 -7.13984E+03 -8.06516E+03 -1.08795E+03 -1.22233E+04  6.79833E+03 -1.43495E+04  1.64545E+04 -6.80908E+03
  2.03305E+04  1.40149E+03  1.43024E+04  1.10962E+04  2.14802E+03  1.57760E+04 -8.74092E+03  1.33311E+04
 -1.13424E+04  5.14023E+03 -4.87802E+03 -3.13699E+03  2.44851E+03 -2.93444E+03  7.64042E+03 -1.40930E+02
  5.99117E+03  5.64515E+03  9.82822E+02  1.16343E+04 -8.11582E+03  1.12893E+04 -1.20172E+04  2.21826E+03
 -9.01111E+03 -6.95612E+03  8.94136E+02 -1.19917E+04  7.35120E+03 -4.35939E+03  6.95946E+03  6.71404E+02
  1.42691E+03  9.60802E+03 -6.60449E+03  9.27597E+03 -1.02982E+04  4.71732E+03 -1.15782E+04 -2.92396E+03
 -6.21319E+03 -1.37128E+04  3.10509E+03 -1.42502E+04  1.19948E+04 -8.19534E+03  1.38558E+04  1.64284E+03
  7.62666E+03  1.15279E+04 -1.01423E+02  1.37570E+04 -1.06638E+04  6.75752E+03 -9.16402E+03 -8.37739E+02
 -8.80391E+03 -7.40167E+03 -2.19943E+03 -1.14343E+04  6.21482E+03 -7.65954E+03  6.50765E+03 -2.35153E+03
  4.16207E+03  1.00027E+03 -3.47167E+02  1.49160E+03  4.54004E+02 -2.78485E+03  1.68414E+03 -6.39366E+03
  7.05920E+03 -3.65491E+03  1.19646E+04  1.72860E+03  1.16741E+04  9.19509E+03  7.90475E+03  1.70553E+04
 -2.95353E+03  1.79713E+04 -1.56048E+04  1.40052E+04 -1.96018E+04  2.86893E+03 -1.71721E+04 -6.87245E+03
 -8.81233E+03 -1.36010E+04  3.22038E+02 -1.06521E+04  3.63799E+03 -5.95785E+03  3.17514E+03 -4.04573E+03
  4.01928E+03 -3.44057E+03  3.94029E+03 -3.16147E+03  4.63864E+03 -2.74533E+03  7.64110E+03 -3.52250E+02
  7.82556E+03  1.18528E+03  3.97937E+03  6.67754E+03 -2.04309E+03  7.80368E+03 -8.36267E+03  6.37252E+03
 -9.17376E+03 -1.71293E+03 -6.63699E+03 -8.42957E+03 -1.25979E+03 -1.20756E+04  5.46065E+03 -1.16945E+04
  1.35396E+04 -7.64443E+03  1.57158E+04  1.26432E+03  8.90737E+03  1.02341E+04  2.39907E+03  1.39517E+04
 -5.61872E+03  1.00167E+04 -6.39577E+03  4.83139E+03 -4.99541E+03  5.20622E+01 -1.36910E+03 -2.82669E+03
 -8.09755E+02  1.70808E+02  2.56432E+02  2.11737E+03 -4.69952E+03  7.69861E+02 -8.90437E+03  1.04211E+02
 -4.97936E+03 -6.88037E+03 -4.88841E+02 -1.14843E+04  5.90749E+03 -9.47803E+03  1.30752E+04 -2.89854E+03
  1.07426E+04  5.84342E+03  4.16563E+03  1.05301E+04 -5.18564E+02  1.04150E+04 -9.07259E+03  7.04339E+03
 -1.10471E+04  1.40284E+03 -7.05889E+03 -6.44486E+03 -2.90377E+02 -8.19656E+03  6.33413E+03 -7.48423E+03
  6.42643E+03 -3.38194E+03  5.88092E+03  2.22661E+03  1.31821E+03  3.73005E+03  9.99044E+01  1.58353E+03
  2.02053E+03  1.80051E+03  2.77724E+03  1.51484E+03  2.09469E+03  4.43888E+03  3.79894E+03  5.35368E+03
 -3.18998E+03  7.44650E+03 -7.37748E+03  8.44074E+03 -1.05371E+04  2.11006E+03 -1.18381E+04 -4.40332E+03
 -4.03954E+03 -9.89595E+03  2.64772E+03 -1.18512E+04  7.03700E+03 -7.02398E+03  1.00924E+04 -3.60352E+03
  7.02107E+03  2.84998E+03  1.49704E+03  6.07721E+03 -7.66922E+02  2.66926E+03 -5.27954E+03 -1.32005E+03
 -2.09682E+03 -3.27234E+03  3.26213E+03 -3.44949E+03  5.75629E+03 -2.93534E+03  5.69680E+03  1.06664E+03
  2.50468E+03  1.74003E+03  3.44070E+02  1.32598E+03 -5.94583E+02  1.56410E+03  1.82597E+03  4.51616E+02
  1.96782E+03 -6.61496E+02  4.96032E+03  1.88822E+03  1.78533E+03  6.61048E+03  9.28535E+02  7.89068E+03
 -4.90204E+03  4.71930E+03 -5.97232E+03  1.08438E+03 -5.41253E+03 -3.08812E+03 -1.98572E+03 -3.41007E+03
  1.81571E+03 -3.11782E+03  3.47572E+03 -2.56892E+03  2.80445E+03  2.15789E+03 -7.88736E+02  3.35077E+03
 -3.25387E+03  2.04766E+03 -5.48564E+03 -2.20296E+03 -3.28358E+03 -4.48812E+03  1.69398E+03 -4.72065E+03
  2.62769E+03 -2.22096E+03  4.48926E+03 -9.52823E+02  4.27793E+03  1.67753E+03  7.95336E+02  2.00244E+03
 -1.26239E+03  1.12373E+03 -2.62428E+03 -1.89288E+03  1.53357E+03 -3.60840E+03  3.93174E+03 -3.52221E+03
  6.50513E+03  1.67075E+03  6.66208E+03  3.72131E+03  2.09806E+03  6.14236E+03 -1.83704E+03  4.89445E+03
 -5.70749E+03  2.77762E+03 -6.29439E+03 -5.43778E+01 -1.59524E+03 -4.13587E+03  1.90341E+03 -4.29972E+03
  4.76321E+03 -2.83791E+03  3.12151E+03  1.22212E+03  1.11344E+03  3.90930E+03 -4.97036E+02  3.59852E+03
 -2.56768E+03  1.23982E+03 -1.94735E+03  4.18654E+02 -2.28236E+03  5.84686E+02 -1.75034E+03  1.59226E+03
 -1.27964E+03  2.79115E+03 -5.68952E+03  1.24906E+03 -5.85310E+03 -7.68763E+02 -7.16039E+03 -4.41589E+03
 -3.26197E+03 -8.59138E+03  2.02531E+03 -8.96537E+03  6.17952E+03 -8.56850E+03  8.48409E+03 -2.51176E+03
  7.13811E+03  2.64691E+03  4.85498E+03  6.15810E+03  5.03705E+02  6.87374E+03 -2.71036E+03  3.68570E+03
 -3.76437E+03  2.34800E+03 -1.90662E+03  5.19875E+02 -1.10784E+03  7.51644E+01 -1.29569E+02  1.19935E+03
 -1.91951E+03 -5.78449E+01 -2.65419E+03  5.94150E+02  1.30127E+03 -1.27783E+03  5.10405E+02 -1.74320E+03
  3.32798E+03 -2.43677E+03  4.76087E+03  9.40207E+02  4.88902E+03  3.26094E+03 -3.11260E+02  5.59055E+03
 -3.23791E+03  7.93046E+03 -5.82314E+03  4.89443E+03 -6.25512E+03  6.04267E+02 -5.68066E+03 -4.39031E+03
 -2.61431E+03 -7.17152E+03  2.25615E+03 -5.31069E+03  4.44763E+03 -2.21392E+03  4.01345E+03  1.36916E+03
  1.71399E+03  2.00329E+03 -4.02934E+02  1.09321E+03 -1.68668E+03 -1.00871E+03  2.95355E+02 -5.68507E+02
  1.19400E+03 -2.10942E+03  1.40636E+03  4.76043E+02  1.47390E+03  2.58750E+03  1.66797E+03  3.78312E+03
 -2.48635E+03  3.84144E+03 -4.39108E+03  8.73108E+02 -3.32001E+03 -3.10862E+03  9.60954E+01 -4.08204E+03
  2.87657E+03 -3.45618E+03  3.98711E+03 -1.81123E+03  4.98750E+03  5.01263E+02  2.38750E+03  1.88203E+03
  2.03772E+03  3.78357E+03 -2.09934E+03  3.27020E+03 -2.70025E+03  1.52061E+03 -2.07758E+03  1.62902E+03
 -3.04638E+02 -9.11241E+02 -1.42916E+03  4.55762E+02 -1.81868E+03  1.03066E+03 -3.01202E+03 -8.58321E+02
 -3.38492E+03 -9.78966E+02 -1.07664E+03 -4.15211E+03  1.04746E+03 -5.04724E+03  3.39727E+03 -1.08390E+02
  3.94448E+03  8.57907E+02  8.88114E+02  2.05218E+03 -1.23675E+02  4.38505E+03 -3.09490E+03  2.33867E+03
