 $NMID ID='MM_0lb_SNR200_14hz_g40_24.RAW', FMTDAT='(8E13.5)'
 TRAMP=1., VOLUME=1. $END
  3.09050E+05  6.91862E+02  3.36838E+05  2.51580E+05  8.45527E+04  3.37496E+05 -1.33231E+05  2.50858E+05
 -1.90273E+05  8.32264E+04 -1.12315E+05 -3.30625E+04  5.45612E+02 -4.96874E+04  5.46394E+04 -5.80796E+02
  3.54076E+04  5.12685E+04 -1.77380E+04  7.46573E+04 -6.05846E+04  6.42287E+04 -8.36361E+04  3.13432E+04
 -8.08287E+04 -1.09192E+04 -5.71793E+04 -5.06746E+04 -1.66904E+04 -6.96738E+04  2.77046E+04 -4.51584E+04
  3.93950E+04  3.07042E+03  1.63268E+04  4.83127E+04 -3.42336E+04  4.72007E+04 -6.69725E+04 -4.91322E+02
 -5.31188E+04 -5.55059E+04 -7.68337E+03 -7.71765E+04  3.31190E+04 -5.48565E+04  4.71514E+04 -1.72317E+04
  4.29831E+04  1.11355E+04  3.11768E+04  2.55258E+04  1.61164E+04  2.97624E+04 -5.08965E+03  2.60877E+04
 -2.09786E+04  1.23966E+04 -1.78344E+04 -4.33531E+03  4.79410E+03 -7.07268E+03  2.21222E+04  1.24491E+04
  7.20405E+03  3.50907E+04 -3.09111E+04  3.58650E+04 -6.33608E+04  1.36475E+03 -5.75409E+04 -4.31650E+04
 -1.27670E+04 -6.15006E+04  4.06672E+04 -4.43876E+04  5.77101E+04 -2.51801E+03  3.33044E+04  3.11089E+04
 -6.48855E+03  3.61193E+04 -3.00579E+04  1.48319E+04 -2.90942E+04 -5.00577E+03 -1.53872E+04 -1.08365E+04
 -7.82749E+03 -1.26666E+04 -2.67275E+02 -1.86807E+04  7.50342E+03 -2.18067E+04  1.52281E+04 -1.35533E+04
  1.16005E+04  5.13601E+03 -7.50740E+03  1.23326E+04 -2.06867E+04 -3.80913E+03 -8.17279E+03 -3.29553E+04
  2.20785E+04 -4.29911E+04  4.66053E+04 -1.95674E+04  4.50147E+04  1.92650E+04  1.62352E+04  4.29220E+04
 -1.60623E+04  3.24265E+04 -2.36414E+04  1.69094E+03 -9.22089E+03 -2.73223E+04  1.99950E+04 -3.46736E+04
  4.03111E+04 -9.91416E+03  3.56834E+04  2.38878E+04  1.75131E+04  4.58385E+04 -7.80542E+03  4.92384E+04
 -3.02747E+04  3.30567E+04 -4.05827E+04  9.90609E+03 -4.20602E+04 -1.65572E+04 -2.35370E+04 -3.62561E+04
  7.14499E+03 -3.62794E+04  3.03743E+04 -1.56000E+04  2.98631E+04  1.13763E+04  3.34030E+03  1.89011E+04
 -1.40370E+04  7.55409E+03 -1.03304E+04 -6.86566E+03  4.82585E+03 -1.07034E+04  1.86498E+04  5.74824E+03
  1.36392E+04  2.19119E+04 -6.73238E+03  2.46545E+04 -2.20392E+04  9.42398E+03 -2.60694E+04 -5.52491E+03
 -1.90741E+04 -1.75325E+04 -7.04856E+03 -1.96506E+04  3.87045E+03 -1.87271E+04  1.56137E+04 -1.83923E+04
  2.64191E+04 -1.30277E+04  3.19164E+04  2.37813E+03  2.43123E+04  1.95550E+04  5.69152E+03  3.65898E+04
 -1.68869E+04  3.01725E+04 -2.77176E+04  1.09097E+04 -2.13053E+04 -1.06839E+04 -3.23867E+03 -1.46316E+04
  1.43242E+03 -3.42516E+03 -4.73639E+03  6.71699E+03 -1.60186E+04  5.01846E+03 -1.61100E+04 -7.29759E+03
 -9.28295E+03 -1.80477E+04  4.55456E+03 -2.32661E+04  1.39423E+04 -1.55271E+04  1.77100E+04 -2.49803E+02
  1.09191E+04  1.25155E+04 -1.20974E+03  1.83157E+04 -1.21038E+04  1.00029E+04 -1.78867E+04 -3.90025E+03
 -1.33894E+04 -1.64405E+04 -1.76699E+03 -2.06976E+04  9.63154E+03 -1.81856E+04  1.90522E+04 -8.47451E+03
  1.75777E+04  1.17281E+03  1.24856E+04  4.34677E+03  6.80275E+03  1.94036E+03  9.78108E+03 -1.15180E+03
  1.60226E+04  2.81350E+03  1.86746E+04  1.50198E+04  1.13079E+04  2.87239E+04 -2.96211E+03  3.31943E+04
 -1.99801E+04  2.61440E+04 -2.92730E+04  1.34429E+04 -3.18883E+04 -2.63133E+03 -2.59094E+04 -1.75429E+04
 -1.25396E+04 -2.54559E+04  8.98511E+03 -2.41272E+04  2.01374E+04 -1.18759E+04  1.84251E+04  4.48904E+03
  5.83548E+03  1.33862E+04 -7.94862E+03  1.20288E+04 -1.57293E+04  2.72072E+03 -1.22388E+04 -9.04262E+03
 -5.16440E+02 -1.50856E+04  8.85975E+03 -1.13813E+04  9.36764E+03  1.65277E+02  1.22508E+03  6.02037E+03
 -6.98958E+03  2.72914E+03 -6.08177E+03 -4.23737E+03  5.73333E+02 -1.23894E+04  8.98331E+03 -1.31521E+04
  1.53448E+04 -6.53966E+03  1.72435E+04  2.79421E+03  1.52889E+04  1.27251E+04  6.92345E+03  1.93402E+04
 -3.14689E+03  2.02718E+04 -1.33438E+04  1.29497E+04 -1.54676E+04  3.51179E+03 -9.92565E+03 -4.08629E+03
 -4.60565E+03 -3.95649E+03 -6.06562E+02  1.78132E+03 -2.90290E+03  2.66781E+03 -5.07729E+03  3.45146E+03
 -9.80930E+03  1.54041E+02 -1.21192E+04 -8.62146E+03 -4.45728E+03 -1.44015E+04  3.79253E+03 -1.03890E+04
  8.49713E+03 -4.04116E+03  6.26643E+03  2.09910E+03  6.62574E+02  2.52172E+03 -3.53325E+03 -3.43662E+02
 -5.27960E+03 -6.82332E+03 -1.19806E+03 -1.04861E+04  6.20820E+03 -1.00806E+04  1.29485E+04 -5.56723E+03
  1.47692E+04  1.03087E+03  1.19148E+04  8.55853E+03  7.80068E+02  1.25571E+04 -6.45324E+03  1.03203E+04
 -9.05991E+03  3.72305E+03 -4.20340E+03 -2.13992E+03  2.25685E+03 -3.74289E+03  7.47971E+03 -3.04107E+02
  5.51741E+03  5.06705E+03  9.96489E+02  7.56428E+03 -5.35512E+03  8.04110E+03 -9.49862E+03  2.32358E+03
 -7.51741E+03 -4.47138E+03  3.42938E+02 -8.51015E+03  6.62350E+03 -4.78945E+03  6.26220E+03  1.49946E+03
  7.63023E+02  6.13028E+03 -6.41704E+03  8.20267E+03 -7.94528E+03  2.86985E+03 -8.84108E+03 -2.44863E+03
 -5.36090E+03 -9.01011E+03  1.65150E+03 -1.12087E+04  8.76728E+03 -5.81207E+03  9.76257E+03  1.39529E+03
  5.56846E+03  7.50515E+03 -4.04078E+02  1.07749E+04 -6.46666E+03  5.01168E+03 -7.08285E+03  2.22282E+02
 -6.69349E+03 -6.78170E+03 -1.77895E+03 -8.12459E+03  2.97120E+03 -5.44700E+03  3.37833E+03 -3.16731E+03
  3.54830E+03  5.83044E+01 -1.09173E+03  2.81513E+03  1.58238E+03 -8.52028E+02  9.31452E+02 -4.95867E+03
  5.85160E+03 -1.30695E+03  9.58760E+03  2.65096E+02  7.99967E+03  5.34459E+03  6.07963E+03  1.10049E+04
 -2.72431E+03  1.29267E+04 -1.19887E+04  1.07796E+04 -1.51170E+04  1.97736E+03 -1.17426E+04 -5.05870E+03
 -6.65953E+03 -9.23608E+03  7.76363E+02 -8.08070E+03  3.44345E+03 -3.84688E+03  1.33900E+03 -2.94493E+03
  2.55234E+03 -1.32925E+03  1.34410E+03 -2.60760E+03  3.51762E+03 -2.26785E+03  4.83449E+03 -6.47392E+02
  7.12933E+03  1.50898E+03  2.60687E+03  5.21793E+03 -1.41299E+03  6.25038E+03 -6.34521E+03  4.58564E+03
 -8.06796E+03 -7.04876E+02 -4.82693E+03 -5.59172E+03 -8.41903E+02 -8.42441E+03  4.93798E+03 -8.41791E+03
  8.52590E+03 -4.42961E+03  9.40226E+03  1.80433E+03  7.40336E+03  8.04968E+03  9.98878E+02  1.02303E+04
 -3.08025E+03  8.23966E+03 -5.22347E+03  3.37340E+03 -3.64549E+03 -1.61229E+03 -8.29120E+02 -1.02785E+03
 -1.19073E+03  2.79091E+02 -2.20366E+03  1.83693E+03 -4.31588E+03  1.58310E+03 -5.56551E+03 -4.97759E+02
 -3.74279E+03 -4.96738E+03  5.92215E+01 -7.91805E+03  4.08098E+03 -7.45668E+03  7.37535E+03 -1.51247E+03
  6.84082E+03  3.24069E+03  3.74516E+03  6.08172E+03 -2.00659E+03  6.98313E+03 -5.19670E+03  3.87019E+03
 -6.73616E+03  7.74608E+02 -5.77406E+03 -4.44150E+03 -4.36245E+02 -6.08946E+03  2.58881E+03 -5.10277E+03
  4.71724E+03 -1.33547E+03  3.24049E+03  1.10751E+03  1.37541E+03  1.83120E+03  4.24606E+02  1.10377E+03
  1.33588E+03  1.53537E+02  1.38664E+03  1.20295E+03  2.70932E+03  3.43290E+03  2.20069E+03  4.28034E+03
 -1.57220E+03  5.86657E+03 -4.66172E+03  7.40810E+03 -7.37797E+03  2.27239E+03 -7.24630E+03 -2.12776E+03
 -4.24379E+03 -6.52018E+03  7.90248E+02 -7.79253E+03  4.55690E+03 -4.65675E+03  5.59269E+03 -1.08309E+03
  2.96766E+03  3.23624E+03  1.16196E+03  4.11508E+03 -2.17411E+03  3.34136E+03 -7.78295E+02  4.83479E+02
 -1.14620E+03 -2.90224E+03  1.03474E+03 -3.62277E+03  2.60186E+03 -2.24405E+03  3.30709E+03  1.12398E+03
  1.37346E+03 -1.07879E+02  1.60572E+03  1.00985E+03 -2.89089E+02  1.04557E+03  2.05200E+03 -5.49054E+02
  1.02424E+03 -5.08080E+02  3.44916E+03  2.32095E+03  2.15749E+03  3.94088E+03 -1.82507E+03  5.19246E+03
 -3.92374E+03  2.92825E+03 -4.20337E+03  8.08372E+02 -4.72132E+03 -1.14393E+03 -7.50280E+02 -2.31842E+03
 -5.45034E+02 -1.63283E+03  2.72248E+03 -1.84764E+03  1.18197E+03  1.47594E+03 -6.77616E+02  1.46979E+03
 -3.07714E+03  2.19475E+03 -2.95944E+03 -3.02840E+03 -1.74175E+03 -3.53584E+03 -9.33907E+01 -3.57754E+03
  2.41299E+03 -3.26197E+03  2.51914E+03 -4.14090E+02  2.26395E+03  7.38563E+02 -4.99584E+02  2.99997E+03
 -1.59582E+03  6.65773E+02 -2.49881E+03 -1.09247E+03  1.40383E+03 -1.80515E+03  3.18370E+03 -1.77950E+03
  3.98333E+03  5.05327E+02  5.14743E+03  2.11827E+03  1.02065E+03  3.25649E+03 -1.73976E+03  3.17070E+03
 -2.71329E+03  1.01510E+03 -4.11732E+03  1.23677E+03 -2.28447E+03 -3.21838E+03 -9.73969E+02 -2.97836E+03
  3.43090E+03  2.84540E+02  8.19602E+02  8.67755E+02 -6.70482E+02  2.54505E+03 -7.65579E+02  7.16178E+02
 -6.80324E+02  2.76892E+02 -1.09329E+03  1.15570E+03  2.93922E+02 -4.94706E+02  5.44261E+02  5.17714E+02
 -3.15376E+02  8.92686E+02 -2.27173E+03  1.78931E+03 -3.58196E+03  1.46483E+02 -4.37297E+03 -1.33541E+03
 -2.15118E+03 -4.34560E+03  8.21581E+02 -5.63957E+03  2.76131E+03 -4.93222E+03  4.41420E+03 -1.31865E+03
  5.03656E+03  1.04504E+02  3.61169E+03  3.58708E+03  1.16690E+02  3.86244E+03 -2.21678E+03  2.12574E+03
 -3.10601E+03  1.85869E+03 -1.11785E+03 -6.19711E+02 -3.99596E+02  5.33107E+02 -1.58475E+03  1.05624E+03
 -1.61670E+03 -1.24816E+03 -1.37647E+03 -6.52101E+02 -4.47339E+02 -9.81350E+02 -1.45221E+02 -2.09909E+03
  2.96713E+03 -7.31737E+02  1.08568E+03  2.07861E+01  2.87910E+03  3.07861E+03 -3.09093E+02  3.47235E+03
 -2.46664E+03  5.24299E+03 -4.18058E+03  3.79096E+03 -4.73150E+03 -2.46204E+02 -4.13078E+03 -1.86944E+03
 -1.48454E+03 -4.20407E+03  1.25799E+03 -3.91122E+03  2.65770E+03 -1.35305E+03  2.76035E+03  7.13952E+02
  2.09026E+03  1.20051E+03  7.75887E+02  1.57950E+03 -7.39921E+01  1.51467E+02 -8.31027E+02 -1.77363E+03
  1.53466E+03 -9.97809E+02  1.36013E+03  4.12360E+02  6.21472E+02  7.47818E+02 -9.08237E+02  3.37447E+03
 -3.25082E+03  1.97776E+03 -2.83214E+03 -4.73573E+02 -1.87215E+03 -2.73812E+03  9.75682E+02 -4.13645E+03
  2.20215E+03 -3.27860E+03  2.63863E+03 -2.40956E+03  2.58850E+03  3.55871E+02  4.53264E+02  1.76746E+03
 -1.69532E+01  2.75702E+03 -1.04032E+03  1.59605E+03 -1.30045E+03  4.92559E+02 -2.73415E+03  1.59863E+02
 -7.86983E+02 -1.10849E+03 -5.63465E+01  2.52281E+02 -1.74762E+03 -1.00777E+03 -1.90031E+03  1.20955E+02
 -2.07455E+03 -5.83325E+02 -4.92136E+02 -2.89097E+03  2.31283E+03 -2.13050E+03  2.57999E+03 -1.00297E+03
  2.86976E+03 -9.57798E+01 -7.23769E+02  9.76995E+02  1.58690E+03  2.76678E+03 -1.01790E+03  1.83161E+03
