 $NMID ID='MM_0lb_SNR200_12hz_g60_46.RAW', FMTDAT='(8E13.5)'
 TRAMP=1., VOLUME=1. $END
  3.09948E+05  2.82707E+01  3.38142E+05  2.49568E+05  8.38939E+04  3.37653E+05 -1.32058E+05  2.51575E+05
 -1.90388E+05  8.34769E+04 -1.12999E+05 -3.13063E+04  1.00362E+03 -5.02696E+04  5.36150E+04 -1.18743E+02
  3.59942E+04  5.21354E+04 -1.64885E+04  7.68058E+04 -6.07141E+04  6.57216E+04 -8.58476E+04  3.24001E+04
 -8.26596E+04 -1.16831E+04 -5.78314E+04 -5.16205E+04 -1.49523E+04 -6.97660E+04  2.87318E+04 -4.68775E+04
  3.96649E+04  3.14181E+03  1.71993E+04  4.71657E+04 -3.51387E+04  4.88841E+04 -6.79848E+04 -8.66758E+01
 -5.46041E+04 -5.75717E+04 -7.47601E+03 -7.80380E+04  3.53402E+04 -5.73011E+04  5.05981E+04 -1.66934E+04
  4.55090E+04  1.05282E+04  3.23956E+04  2.61639E+04  1.55345E+04  3.16296E+04 -4.72899E+03  2.84178E+04
 -2.22209E+04  1.21449E+04 -1.63150E+04 -5.21627E+03  7.42296E+03 -7.56983E+03  2.44607E+04  1.25816E+04
  8.03702E+03  3.65630E+04 -3.53385E+04  3.65226E+04 -6.51672E+04  2.59874E+03 -5.78421E+04 -4.38620E+04
 -1.28445E+04 -6.45991E+04  4.20088E+04 -4.73273E+04  6.08473E+04 -2.96117E+03  3.53277E+04  3.39879E+04
 -5.04193E+03  3.78944E+04 -3.20198E+04  1.72412E+04 -3.38799E+04 -4.42859E+03 -1.81782E+04 -1.17644E+04
 -9.28049E+03 -1.52466E+04 -1.16782E+03 -2.02813E+04  7.84530E+03 -2.22323E+04  1.60104E+04 -1.42238E+04
  1.03879E+04  6.45223E+03 -1.11776E+04  1.19972E+04 -2.33356E+04 -5.75702E+03 -6.96616E+03 -3.62402E+04
  2.45970E+04 -4.55761E+04  5.25420E+04 -1.96946E+04  4.75851E+04  2.05424E+04  1.65896E+04  4.64991E+04
 -1.72286E+04  3.36120E+04 -2.78832E+04  2.14946E+03 -1.08688E+04 -2.87980E+04  2.15648E+04 -3.70662E+04
  4.44076E+04 -9.56832E+03  3.95250E+04  2.44362E+04  1.98555E+04  4.90543E+04 -1.01179E+04  5.46509E+04
 -3.34335E+04  3.70143E+04 -4.52108E+04  1.12212E+04 -4.56825E+04 -1.79623E+04 -2.42790E+04 -4.03911E+04
  7.02989E+03 -4.09849E+04  3.39754E+04 -1.63539E+04  3.23154E+04  1.11177E+04  4.53543E+03  1.96108E+04
 -1.42551E+04  1.00690E+04 -1.00531E+04 -7.21304E+03  5.84617E+03 -1.02595E+04  1.92503E+04  5.60338E+03
  1.46743E+04  2.22212E+04 -6.19005E+03  2.68821E+04 -2.33928E+04  1.41658E+04 -3.02108E+04 -3.78326E+03
 -2.39156E+04 -1.73961E+04 -9.84515E+03 -2.26722E+04  5.30727E+03 -2.43405E+04  1.85164E+04 -2.14440E+04
  3.04111E+04 -1.47661E+04  3.70556E+04  4.97577E+03  2.41754E+04  2.22995E+04  3.97479E+03  4.02512E+04
 -1.90468E+04  3.23741E+04 -2.99792E+04  1.22113E+04 -2.21932E+04 -1.18964E+04 -4.95244E+03 -1.26858E+04
  7.29045E+02 -1.93478E+03 -8.15113E+03  7.89785E+03 -1.92633E+04  5.01448E+03 -1.92917E+04 -9.85373E+03
 -1.22945E+04 -2.18012E+04  5.54160E+03 -2.66234E+04  1.78693E+04 -1.92038E+04  2.11864E+04 -8.63229E+02
  1.35871E+04  1.56910E+04 -1.23778E+03  2.18854E+04 -1.53572E+04  1.13251E+04 -2.25170E+04 -4.80769E+03
 -1.48126E+04 -2.08119E+04 -2.96234E+03 -2.65032E+04  1.19654E+04 -2.17587E+04  2.22592E+04 -1.09923E+04
  2.02449E+04  1.42471E+02  1.39967E+04  3.94779E+03  7.27227E+03  1.37672E+03  1.08725E+04 -1.48479E+03
  1.99175E+04  2.11484E+03  2.30904E+04  1.75595E+04  1.56604E+04  3.40475E+04 -2.76176E+03  3.97611E+04
 -2.39182E+04  3.40795E+04 -3.70816E+04  1.73080E+04 -4.12141E+04 -3.63054E+03 -3.25858E+04 -2.30190E+04
 -1.36275E+04 -3.26485E+04  1.10579E+04 -3.02835E+04  2.43899E+04 -1.48642E+04  2.23918E+04  6.85694E+03
  7.30933E+03  1.71882E+04 -1.04744E+04  1.48916E+04 -1.88260E+04  1.89083E+03 -1.30871E+04 -1.25693E+04
 -6.42712E+02 -1.79725E+04  7.77777E+03 -1.26018E+04  1.07960E+04 -1.32360E+02  2.86816E+03  6.97416E+03
 -7.25915E+03  2.35433E+03 -7.24112E+03 -6.28559E+03 -8.19010E+02 -1.70489E+04  1.08400E+04 -1.77849E+04
  2.06644E+04 -9.97769E+03  2.28234E+04  2.67675E+03  1.93420E+04  1.59384E+04  8.06403E+03  2.54205E+04
 -3.67287E+03  2.75432E+04 -1.74617E+04  1.71516E+04 -2.01784E+04  2.75588E+03 -1.35384E+04 -4.12050E+03
 -7.44620E+03 -5.50441E+03 -1.98031E+02  4.53714E+02 -2.29815E+03  1.92315E+03 -6.60203E+03  5.22252E+03
 -1.43316E+04  1.98393E+02 -1.37828E+04 -9.69676E+03 -5.27140E+03 -1.85496E+04  6.66067E+03 -1.37976E+04
  1.23963E+04 -4.90208E+03  8.30700E+03  3.32462E+03 -5.97138E+02  6.04571E+03 -5.48309E+03 -7.74464E+02
 -6.02336E+03 -8.26462E+03 -1.39406E+03 -1.30490E+04  9.23518E+03 -1.46734E+04  1.84495E+04 -6.75685E+03
  2.00583E+04  1.78736E+03  1.54066E+04  1.14000E+04  3.17139E+03  1.76833E+04 -8.51823E+03  1.18477E+04
 -1.15897E+04  3.15630E+03 -6.00560E+03 -3.44517E+03  1.73438E+03 -2.52514E+03  7.32368E+03 -7.06403E+02
  5.01863E+03  6.47053E+03  1.27074E+03  1.20731E+04 -9.12752E+03  1.26294E+04 -1.36569E+04  2.38554E+03
 -8.63859E+03 -7.91389E+03  4.81109E+02 -1.07524E+04  8.59198E+03 -4.92956E+03  9.34244E+03  1.60556E+03
  8.48726E+02  8.52103E+03 -7.49051E+03  1.02323E+04 -1.12282E+04  4.72551E+03 -1.10916E+04 -3.85493E+03
 -7.09398E+03 -1.38838E+04  4.27268E+03 -1.54576E+04  1.28607E+04 -1.01202E+04  1.47370E+04  2.55740E+03
  7.33492E+03  1.00971E+04 -2.27001E+02  1.37216E+04 -9.34804E+03  6.85364E+03 -1.08280E+04 -1.65434E+03
 -8.26230E+03 -9.79738E+03 -1.44376E+03 -1.01082E+04  4.68548E+03 -8.32553E+03  6.05612E+03 -2.79602E+03
  3.22689E+03  1.25861E+03 -2.13527E+03  1.60218E+03 -1.71964E+03 -3.49532E+03  1.43251E+03 -5.11687E+03
  8.47576E+03 -3.51439E+03  1.36489E+04  3.39336E+02  1.31423E+04  9.14614E+03  7.67650E+03  1.70201E+04
 -3.00462E+03  1.97459E+04 -1.54847E+04  1.38113E+04 -2.19500E+04  2.26112E+03 -1.58031E+04 -7.58287E+03
 -6.51490E+03 -1.37613E+04  9.51900E+02 -1.00796E+04  3.03049E+03 -6.29795E+03  4.18159E+03 -4.80406E+03
  2.25552E+03 -1.70863E+03  3.22119E+03 -2.62142E+03  5.06599E+03 -4.91853E+03  6.17107E+03  3.41130E+02
  8.68499E+03  1.77869E+03  5.49671E+03  7.92593E+03 -1.47553E+03  9.41788E+03 -8.93539E+03  5.96292E+03
 -1.34513E+04 -9.71798E+02 -7.19845E+03 -6.91712E+03 -2.01502E+01 -1.15240E+04  6.59826E+03 -1.37148E+04
  1.36817E+04 -7.42939E+03  1.56806E+04  2.76084E+03  1.11357E+04  1.09927E+04  2.02662E+03  1.39975E+04
 -5.25473E+03  1.10970E+04 -7.74245E+03  4.72905E+03 -4.80294E+03 -1.28389E+03 -3.81333E+03 -1.85253E+03
 -7.21158E+02 -7.40781E+02 -2.74683E+03  2.22620E+03 -2.66293E+03  2.59039E+03 -6.70821E+03 -1.21724E+03
 -4.97519E+03 -8.68737E+03  9.20050E+02 -1.02414E+04  9.01805E+03 -1.02037E+04  1.25223E+04 -3.32287E+03
  1.11035E+04  5.03773E+03  4.81677E+03  9.97621E+03 -1.38356E+03  1.00965E+04 -6.71593E+03  8.24485E+03
 -1.06037E+04  6.55000E+02 -6.66589E+03 -5.60022E+03  1.18895E+02 -8.30961E+03  6.20565E+03 -6.65288E+03
  7.28834E+03 -1.53690E+03  4.18820E+03  4.37712E+03  1.58599E+03  3.44838E+03 -3.34187E+02  2.64432E+03
  1.18277E+03  2.77254E+02  2.40833E+03  5.33295E+02  3.54228E+03  5.18318E+03  2.96629E+03  4.76320E+03
 -2.20182E+03  9.06448E+03 -9.27474E+03  8.43074E+03 -1.13016E+04  3.79311E+03 -1.11049E+04 -4.53563E+03
 -6.03195E+03 -9.69342E+03  2.71679E+03 -1.26801E+04  6.01733E+03 -7.23993E+03  8.56209E+03 -2.78532E+03
  6.56859E+03  3.24781E+03  1.69399E+03  6.47163E+03 -1.18469E+03  4.34950E+03 -4.60563E+03 -1.63165E+03
 -2.64094E+03 -6.21901E+03  2.23719E+03 -4.50252E+03  3.07622E+03 -3.24833E+03  3.92719E+03  1.59133E+03
  2.36499E+03  2.32792E+03  8.10252E+02  5.20631E+02 -1.48535E+02  1.64713E+03  1.84097E+03 -6.25553E+02
  8.66190E+02 -3.14962E+02  4.63527E+03  1.26189E+03  2.55683E+03  5.67235E+03 -9.03038E+02  6.68648E+03
 -5.51817E+03  5.40063E+03 -6.04874E+03  7.51962E+02 -6.08891E+03 -1.82155E+03 -1.83089E+03 -4.12762E+03
  6.49582E+02 -5.23677E+03  3.24194E+03 -2.14389E+03  2.12959E+03  2.74705E+03 -1.09269E+03  2.53097E+03
 -3.25792E+03  3.14686E+03 -5.27169E+03 -4.18040E+03 -1.25717E+03 -6.66737E+03  9.68842E+02 -5.05340E+03
  3.74038E+03 -3.02025E+03  3.24756E+03  1.48823E+02  3.98636E+03  3.50160E+03  1.30379E+03  2.13334E+03
 -2.19341E+03  1.39360E+03 -3.13521E+03 -4.94351E+02  3.49918E+02 -2.67691E+03  5.10743E+03 -4.15557E+03
  6.04762E+03 -1.00202E+03  6.68880E+03  3.22094E+03  1.85617E+03  7.79243E+03 -1.86422E+03  6.07513E+03
 -5.40764E+03  3.82588E+03 -7.17789E+03 -1.08065E+03 -3.81547E+03 -4.80253E+03  1.81975E+03 -4.41054E+03
  3.84909E+03 -1.06476E+03  4.57353E+03  1.31803E+03  1.42400E+03  4.48660E+03 -4.99333E+02  2.96669E+03
 -1.50548E+03  1.37134E+03 -8.60362E+02  5.02555E+02  4.00913E+02  1.96564E+03 -5.08922E+02 -6.85923E+02
 -1.79630E+03  2.70586E+03 -5.28329E+03  1.52878E+03 -5.61812E+03  3.29640E+02 -7.30558E+03 -3.97815E+03
 -4.79950E+03 -8.77975E+03  1.29946E+03 -1.08297E+04  5.81734E+03 -6.99086E+03  8.40124E+03 -3.69648E+03
  8.86833E+03  1.74941E+03  5.36924E+03  6.14768E+03  8.42015E+02  7.00021E+03 -3.01626E+03  5.36180E+03
 -3.29635E+03  2.40732E+03 -2.52427E+03  1.10190E+02 -6.68982E+02 -1.08711E+03  7.01923E+02  6.13223E+02
 -9.28131E+02 -4.70830E+02 -3.54028E+03 -6.05393E+02  3.95915E+02 -1.70474E+03 -2.09352E+03 -2.99437E+03
  1.97314E+03 -1.30506E+03  3.69187E+03 -1.66286E+02  4.38201E+03  3.41670E+03  1.33208E+03  6.35500E+03
 -1.46235E+03  6.88159E+03 -7.94824E+03  4.16120E+03 -8.69338E+03 -1.26718E+03 -5.70060E+03 -4.89651E+03
 -3.13192E+03 -5.65145E+03  6.75220E+02 -5.55612E+03  3.68612E+03 -2.56980E+03  4.49962E+03 -2.31838E+02
  1.97863E+03  1.97418E+03  2.56042E+01  7.15585E+02 -1.00855E+03 -3.22509E+02  8.86673E+02 -5.15846E+02
  4.07836E+03 -1.09743E+02  4.50829E+03  1.18127E+03  3.12480E+03  1.14775E+03 -1.24266E+03  1.99939E+03
 -3.23547E+03  1.60469E+03 -4.23485E+03  4.50427E+02 -2.76068E+03 -1.68978E+03 -7.37610E+02 -5.85014E+03
  2.92685E+03 -3.61009E+03  4.10349E+03 -2.10500E+03  4.15900E+03  4.52522E+02  2.44026E+03  2.70450E+03
  7.79662E+02  3.40747E+03 -1.16340E+03  3.81463E+03 -2.27895E+03  7.38574E+02 -4.06356E+03 -3.39033E+02
 -6.53050E+02  1.83889E+02 -6.82910E+02  4.02028E+02 -2.28075E+03  1.21702E+03 -3.20254E+03 -6.75164E+02
 -3.15666E+03 -1.43431E+03 -1.26644E+03 -3.89550E+03  2.63294E+03 -5.13593E+03  4.05136E+03 -1.54942E+03
  4.21174E+03  6.18320E+02  1.97065E+03  1.90103E+03  5.00723E+01  4.45604E+03 -3.44247E+03  3.05422E+03
