 $NMID ID='MM_0lb_SNR200_13hz_g45_3.RAW', FMTDAT='(8E13.5)'
 TRAMP=1., VOLUME=1. $END
  3.11148E+05 -3.76872E+02  3.36673E+05  2.50715E+05  8.38654E+04  3.38152E+05 -1.32920E+05  2.51501E+05
 -1.89451E+05  8.41429E+04 -1.10681E+05 -3.19441E+04  5.16520E+02 -5.05362E+04  5.45687E+04 -2.35266E+02
  3.59182E+04  5.24949E+04 -1.67628E+04  7.52870E+04 -6.18698E+04  6.33196E+04 -8.38884E+04  3.32728E+04
 -8.05043E+04 -1.16555E+04 -5.69880E+04 -5.20963E+04 -1.53796E+04 -6.81024E+04  2.70485E+04 -4.55758E+04
  3.94572E+04  4.36168E+03  1.42962E+04  4.78948E+04 -3.36205E+04  4.61177E+04 -6.63843E+04 -8.27927E+00
 -5.40801E+04 -5.61073E+04 -6.37361E+03 -7.81484E+04  3.38668E+04 -5.58062E+04  4.81554E+04 -1.82529E+04
  4.34846E+04  1.02740E+04  3.17345E+04  2.48390E+04  1.71513E+04  2.96252E+04 -6.26385E+03  2.70371E+04
 -2.19930E+04  1.19665E+04 -1.80163E+04 -4.95290E+03  5.77281E+03 -7.57023E+03  2.32342E+04  1.15626E+04
  7.24879E+03  3.52349E+04 -3.27057E+04  3.53581E+04 -6.38662E+04  3.13687E+03 -5.65473E+04 -4.27817E+04
 -1.24006E+04 -6.31166E+04  4.08330E+04 -4.47258E+04  5.90888E+04 -3.35756E+03  3.46262E+04  3.30893E+04
 -6.38294E+03  3.76672E+04 -3.02273E+04  1.67180E+04 -3.12160E+04 -4.62159E+03 -1.75041E+04 -1.23823E+04
 -1.06135E+04 -1.26010E+04 -6.90843E+02 -1.77334E+04  7.98592E+03 -2.32213E+04  1.57336E+04 -1.29708E+04
  1.20212E+04  5.24287E+03 -7.52672E+03  1.34822E+04 -2.14082E+04 -3.63595E+03 -9.28917E+03 -3.43632E+04
  2.37985E+04 -4.28070E+04  4.70971E+04 -1.87627E+04  4.70046E+04  1.98251E+04  1.54855E+04  4.52676E+04
 -1.65952E+04  3.30135E+04 -2.50252E+04  1.86483E+03 -1.06819E+04 -2.80204E+04  2.17204E+04 -3.28721E+04
  4.18471E+04 -8.90326E+03  3.52946E+04  2.22217E+04  1.84985E+04  4.57568E+04 -8.37423E+03  5.05733E+04
 -3.14567E+04  3.56682E+04 -4.36871E+04  1.04024E+04 -4.34698E+04 -1.68487E+04 -2.27341E+04 -3.80057E+04
  7.38448E+03 -3.75655E+04  3.17080E+04 -1.56463E+04  2.85242E+04  1.03245E+04  4.65067E+03  2.04270E+04
 -1.38490E+04  7.91430E+03 -9.31989E+03 -6.53719E+03  6.77953E+03 -1.08591E+04  1.88098E+04  6.39905E+03
  1.36242E+04  2.21985E+04 -6.06392E+03  2.65107E+04 -2.23700E+04  1.18555E+04 -2.85821E+04 -5.82882E+03
 -2.06571E+04 -1.79795E+04 -7.86016E+03 -2.11666E+04  4.49561E+03 -2.10915E+04  1.73805E+04 -1.94689E+04
  2.53633E+04 -1.22608E+04  3.31699E+04  2.28891E+03  2.36631E+04  2.02307E+04  3.75574E+03  3.72033E+04
 -1.74154E+04  3.06009E+04 -2.98035E+04  1.04837E+04 -2.05434E+04 -9.94679E+03 -4.67131E+03 -1.34967E+04
  2.96991E+03 -3.84386E+03 -5.40911E+03  6.36137E+03 -1.58689E+04  5.88406E+03 -1.75034E+04 -7.70649E+03
 -1.06829E+04 -1.86364E+04  6.21805E+03 -2.42250E+04  1.55618E+04 -1.71008E+04  1.93984E+04 -2.58034E+03
  1.13284E+04  1.27667E+04 -3.81690E+02  1.91037E+04 -1.33681E+04  1.09108E+04 -1.91556E+04 -5.23951E+03
 -1.44006E+04 -1.85117E+04 -2.07912E+03 -2.31256E+04  1.03375E+04 -1.86212E+04  1.99018E+04 -1.00641E+04
  1.72470E+04 -5.92467E+02  1.21812E+04  4.10487E+03  6.50117E+03  9.30077E+02  1.00751E+04 -1.33869E+03
  1.79236E+04  3.93247E+03  1.98539E+04  1.60082E+04  1.33803E+04  3.04919E+04 -4.17007E+03  3.49409E+04
 -2.13268E+04  2.95240E+04 -3.35071E+04  1.46881E+04 -3.40735E+04 -2.07059E+03 -2.95282E+04 -2.04840E+04
 -1.14260E+04 -2.75082E+04  1.00042E+04 -2.53543E+04  2.18502E+04 -1.24947E+04  1.91104E+04  6.04193E+03
  6.46640E+03  1.39932E+04 -8.79897E+03  1.27699E+04 -1.66712E+04  3.16446E+03 -1.33130E+04 -1.09101E+04
  1.45654E+03 -1.64186E+04  9.12314E+03 -1.12236E+04  1.03542E+04 -1.56844E+03  1.65144E+03  5.53763E+03
 -7.20082E+03  3.06087E+03 -4.91978E+03 -5.49133E+03 -1.07856E+03 -1.18535E+04  1.04965E+04 -1.52638E+04
  1.75451E+04 -8.76947E+03  1.79980E+04  2.39326E+03  1.63376E+04  1.37862E+04  8.00129E+03  2.16921E+04
 -3.53256E+03  2.30214E+04 -1.42876E+04  1.44488E+04 -1.77544E+04  3.79336E+03 -1.12143E+04 -3.32550E+03
 -4.67442E+03 -3.69701E+03 -9.22505E+02  2.98425E+02 -2.11832E+03  2.68411E+03 -6.50111E+03  3.62051E+03
 -1.15268E+04 -1.73395E+03 -1.13692E+04 -1.04091E+04 -5.52274E+03 -1.50720E+04  5.27117E+03 -1.22225E+04
  9.89218E+03 -5.02571E+03  7.08175E+03  2.74991E+03  5.90305E+02  3.36296E+03 -5.15277E+03  1.84126E+02
 -6.73872E+03 -8.14198E+03 -1.80623E+03 -1.10823E+04  5.91879E+03 -1.20936E+04  1.33990E+04 -7.61725E+03
  1.71743E+04  1.67535E+03  1.35244E+04  8.76360E+03  1.56447E+03  1.35308E+04 -7.44020E+03  1.08699E+04
 -9.15664E+03  3.74927E+03 -5.69898E+03 -2.10746E+03  9.00799E+02 -3.17516E+03  7.04836E+03 -7.39832E+02
  6.35090E+03  5.42141E+03  1.38959E+03  8.84088E+03 -5.28316E+03  7.88055E+03 -1.19180E+04  2.24068E+03
 -8.65588E+03 -5.92901E+03  4.34691E+02 -1.00754E+04  6.09201E+03 -4.15145E+03  6.55785E+03  2.10849E+03
  8.01343E+02  6.21645E+03 -6.40847E+03  7.75317E+03 -8.10309E+03  3.40556E+03 -7.46644E+03 -3.10907E+03
 -5.03270E+03 -9.30600E+03  4.08101E+03 -1.20056E+04  1.02304E+04 -6.61844E+03  1.11566E+04  1.22608E+03
  8.46077E+03  1.05053E+04  4.44201E+02  1.02252E+04 -8.06466E+03  5.37158E+03 -9.80509E+03 -6.95444E+02
 -8.18677E+03 -7.18439E+03 -1.78837E+03 -8.34140E+03  5.53929E+03 -7.22445E+03  5.55740E+03 -4.79196E+03
  3.91774E+03  4.97693E+02  6.22056E+01  1.23078E+03  1.32166E+00 -1.67991E+03 -4.06627E+01 -3.92861E+03
  6.44163E+03 -1.58608E+03  9.79728E+03  4.50747E+02  9.82069E+03  6.60301E+03  7.42730E+03  1.31851E+04
 -3.74919E+03  1.55398E+04 -1.25745E+04  1.16377E+04 -1.67018E+04  2.62778E+03 -1.29866E+04 -6.54400E+03
 -7.11919E+03 -1.06018E+04 -6.77509E+02 -9.45236E+03  3.62039E+03 -4.49539E+03  5.21680E+03 -5.41156E+03
  2.13879E+03 -4.79300E+02  2.85183E+03 -3.61793E+03  3.32419E+03 -4.89936E+02  5.75883E+03 -1.01136E+03
  6.21798E+03  2.00059E+03  3.85511E+03  5.04198E+03 -1.53299E+03  7.58708E+03 -7.59292E+03  3.82535E+03
 -9.57662E+03 -1.05868E+03 -4.54529E+03 -8.08094E+03  4.22809E+02 -9.46708E+03  6.35819E+03 -1.03475E+04
  9.97715E+03 -4.78236E+03  1.21496E+04  1.37742E+02  8.26154E+03  7.27270E+03  7.19074E+02  1.12173E+04
 -4.06642E+03  1.03380E+04 -6.24113E+03  3.78150E+03 -4.10580E+03 -1.96882E+03 -9.01439E+02 -2.74370E+02
 -9.52579E+02  7.84590E+02 -1.29708E+03  3.19486E+03 -1.88612E+03  1.36230E+03 -7.33594E+03 -1.44404E+03
 -5.30286E+03 -7.15424E+03  8.20450E+02 -8.69144E+03  5.86298E+03 -7.44836E+03  8.26620E+03 -3.34258E+03
  7.77891E+03  4.32642E+03  3.87640E+03  7.40682E+03 -3.15489E+03  9.72129E+03 -5.69268E+03  5.52661E+03
 -6.98622E+03  1.12360E+03 -7.89169E+03 -4.94475E+03 -4.51713E+02 -6.72887E+03  3.81586E+03 -6.46446E+03
  5.14546E+03 -2.69186E+03  2.96011E+03  2.67402E+03  1.93128E+03  4.16372E+03  7.79184E+02  1.20535E+03
  2.33989E+03  9.22839E+02  2.26907E+03  1.02135E+03  6.66206E+02  3.02602E+03  2.60012E+03  3.79675E+03
 -1.81809E+03  6.64312E+03 -6.39841E+03  7.52570E+03 -7.60992E+03  1.39828E+03 -9.24117E+03 -2.68422E+03
 -4.22740E+03 -9.30293E+03  1.20451E+03 -1.00975E+04  4.46229E+03 -5.75516E+03  6.32899E+03 -2.84435E+03
  6.46906E+03  3.09286E+03  2.69636E+03  5.69749E+03 -3.32072E+03  3.26050E+03 -2.18414E+03 -1.33118E+03
 -1.76284E+03 -3.66089E+03  1.45770E+03 -3.11369E+03  1.91467E+03 -1.87219E+03  3.52051E+03  9.70195E+02
  2.61955E+03  3.03175E+03  1.52637E+03  1.02219E+02 -1.03956E+03  9.44615E+02  1.29813E+03 -1.78983E+03
  1.67573E+03 -1.33322E+03  3.94427E+03  1.69484E+03  1.29002E+03  5.29910E+03 -1.78640E+03  6.10339E+03
 -4.73264E+03  3.21847E+03 -5.18153E+03  1.04220E+03 -4.33961E+03 -2.69692E+03 -1.89964E+03 -2.58694E+03
  1.04430E+03 -3.47842E+03  1.60975E+03 -1.92770E+03  1.15809E+03  1.72538E+03 -5.68493E+02  1.80262E+03
 -3.16787E+03  9.21373E+02 -2.78321E+03 -2.82307E+03 -1.36156E+03 -3.32553E+03 -4.76406E+02 -4.44906E+03
  2.93920E+03 -1.79750E+03  2.12331E+03  1.07222E+02  2.39139E+03  9.25061E+02  3.57710E+02  1.80073E+03
 -8.65087E+02 -1.42908E+02 -2.69834E+03 -1.11500E+03  1.21337E+03 -3.77914E+03  4.38741E+03 -3.64407E+03
  6.12894E+03  1.03876E+03  4.34570E+03  3.52923E+03  1.13240E+03  4.84559E+03  4.45012E+01  5.74586E+03
 -3.85548E+03  2.42671E+03 -3.05248E+03  2.73983E+02 -1.84228E+03 -2.58346E+03  2.96992E+02 -2.64682E+03
  3.73201E+03 -1.43467E+03  1.52677E+03  2.23035E+03  1.23116E+03  3.21144E+03 -3.64506E+02  2.74370E+03
 -4.16968E+02  1.18131E+03 -1.07381E+03  1.43484E+03  5.11865E+02 -3.78932E+01 -2.13598E+02  1.12607E+03
 -2.14807E+03  2.41077E+03 -3.34282E+03  2.80820E+02 -4.77610E+03 -1.23184E+02 -6.48684E+03 -3.73324E+03
 -2.88195E+03 -7.26729E+03  1.05112E+03 -8.25748E+03  5.50014E+03 -5.23816E+03  7.05316E+03 -1.22397E+03
  5.31760E+03  1.16975E+03  3.27345E+03  3.41476E+03 -3.45974E+02  5.49229E+03 -1.39657E+03  2.88146E+03
 -2.52727E+03  2.00191E+03 -1.78021E+03  3.94369E+02 -8.67961E+02 -1.03142E+03 -9.01945E+02  1.54910E+02
 -1.92953E+03  4.85542E+02 -1.69052E+03 -6.22510E+02  3.98465E+01 -1.65580E+03  3.58188E+02 -2.37890E+03
  2.74793E+03 -1.57121E+03  3.72405E+03  8.57261E+02  4.57721E+03  3.98808E+03  4.17771E+02  4.85390E+03
 -3.08696E+03  6.98731E+03 -4.97929E+03  3.63847E+03 -4.40047E+03 -1.84697E+03 -2.55143E+03 -3.66786E+03
 -2.80227E+03 -4.56713E+03  1.45484E+03 -4.69954E+03  2.85346E+03 -1.36924E+03  3.23227E+03  3.51166E+02
  2.41799E+03  1.26900E+03  1.02459E+03  2.90574E+03 -3.34016E+02 -3.17601E+02  5.44252E+02  4.91008E+01
  1.26905E+03 -5.77284E+02  1.42485E+03  1.49035E+02 -1.02194E+02  1.37311E+03  7.44297E+02  1.10471E+03
 -1.07236E+03  2.73394E+03 -2.95469E+03 -1.92685E+02 -2.11669E+03 -3.36598E+03 -5.60294E+02 -3.66757E+03
  2.52841E+03 -3.43872E+03  1.86970E+03 -7.65319E+02  2.68952E+03  1.51091E+03  3.46400E+03  1.44650E+03
  1.22610E+03  2.77785E+03 -1.13663E+03  1.81514E+03 -3.15234E+03  8.27438E+02 -1.75840E+03 -5.26007E+02
  6.74866E+01 -2.71427E+02 -3.95963E+02  1.33201E+03 -1.21181E+03 -1.32398E+02 -3.12751E+03 -5.71368E+02
 -1.97772E+03 -6.35891E+02 -1.09856E+03 -3.55943E+03  7.73882E+02 -2.00818E+03  3.66392E+03 -1.09820E+03
  2.92428E+03  3.58778E+02  1.11797E+03  1.49231E+03 -7.52255E+02  3.25678E+03 -2.23331E+03  2.56640E+03
