 $NMID ID='MM_0lb_SNR200_15hz_g55_75.RAW', FMTDAT='(8E13.5)'
 TRAMP=1., VOLUME=1. $END
  3.09770E+05 -9.59731E+02  3.36182E+05  2.51380E+05  8.43649E+04  3.37934E+05 -1.31754E+05  2.51324E+05
 -1.89471E+05  8.34238E+04 -1.11844E+05 -3.29664E+04 -1.06106E+03 -4.98586E+04  5.31334E+04  3.53166E+02
  3.62309E+04  5.17554E+04 -1.58868E+04  7.52990E+04 -6.16709E+04  6.30805E+04 -8.31631E+04  3.12680E+04
 -8.10702E+04 -1.10216E+04 -5.75337E+04 -5.27302E+04 -1.48050E+04 -6.99076E+04  2.60378E+04 -4.66166E+04
  3.94371E+04  3.88240E+03  1.67456E+04  4.82398E+04 -3.32855E+04  4.66023E+04 -6.64073E+04 -8.04657E+02
 -5.32160E+04 -5.70758E+04 -7.10294E+03 -7.77963E+04  3.31392E+04 -5.55388E+04  4.64900E+04 -1.79504E+04
  4.32737E+04  1.09755E+04  3.17104E+04  2.61156E+04  1.52220E+04  2.95606E+04 -5.01327E+03  2.84736E+04
 -2.14386E+04  1.19357E+04 -1.80319E+04 -6.09578E+03  5.27772E+03 -7.69359E+03  2.31111E+04  1.23571E+04
  7.19947E+03  3.60492E+04 -3.28965E+04  3.44447E+04 -6.36678E+04  2.71688E+03 -5.59244E+04 -4.26363E+04
 -1.27457E+04 -6.32526E+04  4.01078E+04 -4.63748E+04  5.81122E+04 -2.63401E+03  3.41771E+04  3.15547E+04
 -5.64283E+03  3.68361E+04 -3.02227E+04  1.61736E+04 -3.02462E+04 -4.66375E+03 -1.67060E+04 -1.02370E+04
 -8.33995E+03 -1.24692E+04 -1.17679E+03 -1.73275E+04  7.05854E+03 -2.27926E+04  1.47268E+04 -1.35164E+04
  1.17724E+04  5.52666E+03 -8.57912E+03  1.20238E+04 -2.06182E+04 -6.24254E+03 -8.15266E+03 -3.35580E+04
  2.41780E+04 -4.32454E+04  4.86276E+04 -1.96699E+04  4.45780E+04  2.04897E+04  1.49493E+04  4.36882E+04
 -1.70324E+04  3.33403E+04 -2.57565E+04  2.47796E+03 -9.64203E+03 -2.76250E+04  2.19139E+04 -3.43826E+04
  4.09764E+04 -1.00719E+04  3.71162E+04  2.37021E+04  1.80804E+04  4.63806E+04 -8.28941E+03  5.01075E+04
 -3.05600E+04  3.47116E+04 -4.14058E+04  9.97777E+03 -4.31465E+04 -1.59804E+04 -2.27681E+04 -3.70802E+04
  7.63689E+03 -3.81487E+04  3.18707E+04 -1.49243E+04  2.80146E+04  1.07660E+04  4.86045E+03  1.97792E+04
 -1.26047E+04  8.06862E+03 -9.67417E+03 -7.57682E+03  6.63939E+03 -1.15577E+04  1.77415E+04  6.41635E+03
  1.29780E+04  2.13306E+04 -6.13108E+03  2.49240E+04 -2.22108E+04  1.12160E+04 -2.94026E+04 -5.30109E+03
 -2.15955E+04 -1.74192E+04 -7.51243E+03 -2.14072E+04  3.39000E+03 -1.87066E+04  1.47764E+04 -1.85986E+04
  2.57381E+04 -1.29530E+04  3.14858E+04  4.35670E+03  2.30131E+04  1.92617E+04  5.06648E+03  3.69443E+04
 -1.74543E+04  2.97004E+04 -2.84550E+04  1.05534E+04 -2.07826E+04 -9.09304E+03 -5.24275E+03 -1.40894E+04
  2.72429E+03 -2.75207E+03 -5.27588E+03  5.94490E+03 -1.62759E+04  5.59768E+03 -1.52656E+04 -6.03937E+03
 -1.05833E+04 -1.80772E+04  6.12391E+03 -2.27616E+04  1.47630E+04 -1.73159E+04  1.82431E+04 -2.09700E+03
  1.06089E+04  1.30813E+04 -7.83632E+02  1.97267E+04 -1.26666E+04  1.08173E+04 -1.89227E+04 -4.45609E+03
 -1.45840E+04 -1.73913E+04 -2.44098E+03 -2.20720E+04  9.80281E+03 -1.90688E+04  1.80870E+04 -9.47644E+03
  1.66183E+04  2.56179E+02  1.30905E+04  3.32702E+03  5.28021E+03  1.69954E+03  9.49629E+03 -2.43327E+03
  1.64312E+04  2.63070E+03  1.89772E+04  1.49667E+04  1.19788E+04  2.98732E+04 -3.41133E+03  3.33040E+04
 -2.08939E+04  2.67831E+04 -3.15915E+04  1.39059E+04 -3.28290E+04 -4.21446E+03 -2.68045E+04 -1.99011E+04
 -1.24238E+04 -2.59668E+04  8.61465E+03 -2.51284E+04  2.11360E+04 -1.35107E+04  2.03488E+04  5.36319E+03
  6.89820E+03  1.29214E+04 -9.18622E+03  1.19437E+04 -1.58776E+04  2.13814E+03 -1.18770E+04 -1.06539E+04
 -1.15134E+03 -1.43240E+04  6.63895E+03 -1.22950E+04  1.02626E+04 -1.54916E+03  2.32335E+03  7.30387E+03
 -6.30626E+03  1.32272E+03 -6.12303E+03 -5.45436E+03 -6.15818E+02 -1.23315E+04  1.00618E+04 -1.32674E+04
  1.78522E+04 -6.89696E+03  1.73567E+04  2.82649E+03  1.34136E+04  1.23800E+04  6.84543E+03  2.04652E+04
 -3.64776E+03  2.21121E+04 -1.29998E+04  1.37754E+04 -1.64245E+04  3.18330E+03 -1.10378E+04 -4.18840E+03
 -5.69511E+03 -5.15352E+03 -6.04765E+02  2.24922E+03 -2.96048E+03  2.17907E+03 -5.20410E+03  3.71540E+03
 -1.07967E+04 -1.46360E+03 -1.13505E+04 -8.71166E+03 -4.19736E+03 -1.48393E+04  4.12686E+03 -1.07768E+04
  8.75819E+03 -4.32315E+03  6.63681E+03  3.47392E+03  1.25256E+03  4.26404E+03 -5.25135E+03 -3.32249E+02
 -5.81848E+03 -6.55111E+03  8.39957E+01 -1.04099E+04  6.57282E+03 -1.01246E+04  1.41985E+04 -6.61298E+03
  1.50737E+04  1.62148E+03  1.19553E+04  9.35245E+03  2.47921E+03  1.23153E+04 -6.87211E+03  1.15835E+04
 -9.18727E+03  4.04057E+03 -4.73136E+03 -2.86063E+03  2.93562E+03 -3.36610E+03  5.63628E+03 -9.99769E+02
  6.45695E+03  3.36003E+03  1.61859E+03  8.59098E+03 -6.68408E+03  8.18322E+03 -9.99162E+03  2.20621E+03
 -7.43244E+03 -5.22935E+03  1.34057E+03 -8.75875E+03  4.62992E+03 -5.28154E+03  4.14429E+03  2.68389E+03
  6.58436E+02  5.10737E+03 -4.63850E+03  6.23609E+03 -7.68363E+03  2.41229E+03 -8.10334E+03 -1.33370E+03
 -5.45576E+03 -8.69212E+03  9.98605E+02 -9.27968E+03  9.00558E+03 -7.84408E+03  9.34462E+03  1.98492E+03
  8.51462E+03  8.39274E+03 -4.72347E+02  1.03272E+04 -6.64735E+03  5.78561E+03 -7.27486E+03 -7.79612E+02
 -7.80888E+03 -6.77993E+03 -4.18516E+02 -7.19609E+03  4.49503E+03 -7.06787E+03  5.58214E+03 -4.88470E+03
  3.48315E+03  2.51053E+02  4.89226E+02  1.80795E+03  5.20089E+02 -2.51013E+03  1.15580E+03 -3.51646E+03
  6.79483E+03 -1.36853E+03  8.43729E+03  6.18873E+02  9.78339E+03  6.47638E+03  7.51927E+03  9.08916E+03
 -2.55770E+03  1.35663E+04 -1.10163E+04  1.06914E+04 -1.35224E+04  1.75395E+03 -1.25104E+04 -4.28640E+03
 -6.25376E+03 -9.94164E+03  4.25547E+02 -8.40701E+03  4.57280E+03 -4.27800E+03  3.44788E+03 -4.14906E+03
  2.64861E+03 -3.07985E+03  3.16424E+03 -1.80287E+03  4.22654E+03 -3.34803E+03  4.81490E+03 -2.03854E+02
  6.23938E+03  1.84942E+03  1.53282E+03  4.32653E+03 -1.72111E+03  4.94492E+03 -7.03701E+03  4.42338E+03
 -8.01281E+03 -1.12785E+03 -4.70588E+03 -5.88360E+03 -3.45773E+02 -8.49242E+03  5.52683E+03 -8.80308E+03
  8.42455E+03 -4.82775E+03  1.07122E+04  5.01157E+02  7.65078E+03  8.01875E+03  1.60983E+03  9.93885E+03
 -4.44332E+03  9.05248E+03 -3.95458E+03  2.47340E+03 -3.41866E+03 -3.59145E+02 -9.93125E+02 -2.35658E+02
 -3.96208E+02 -9.08192E+01 -1.98103E+03  2.38564E+03 -4.14016E+03  2.75681E+03 -5.15492E+03 -5.42123E+02
 -3.29159E+03 -6.45948E+03  2.70473E+02 -8.19674E+03  4.77361E+03 -6.08056E+03  6.57741E+03 -1.26215E+03
  7.19549E+03  3.78797E+03  2.85383E+03  6.27068E+03 -1.80770E+03  7.73273E+03 -3.94761E+03  3.76018E+03
 -7.31957E+03  1.14251E+03 -4.27032E+03 -4.29445E+03 -1.10533E+03 -5.35721E+03  2.95688E+03 -4.39086E+03
  4.55092E+03 -2.16013E+03  3.50488E+03  8.44468E+02  1.22190E+03  2.39608E+03  8.61140E+02  2.39691E+02
  2.11283E+03  1.21642E+03  2.29970E+03  1.40666E+03  1.43270E+03  2.33009E+03  2.21719E+03  3.29572E+03
 -1.48369E+03  4.68966E+03 -5.08803E+03  7.12580E+03 -6.03536E+03  8.99880E+02 -8.18183E+03 -1.83272E+03
 -4.41280E+03 -7.61541E+03  1.73204E+03 -7.73297E+03  2.34734E+03 -4.23571E+03  6.11258E+03 -6.60375E+02
  2.29143E+03  2.38828E+03 -9.43514E+01  4.94536E+03 -1.54942E+03  2.08945E+03 -2.09118E+03  5.14084E+02
 -1.89228E+02 -2.74968E+03  2.75707E+03 -3.52660E+03  2.87178E+03 -1.90190E+03  2.97521E+03 -1.33285E+02
  1.34137E+03  1.87768E+03  1.21885E+03  1.41301E+03 -1.15491E+03 -1.09659E+01  8.92451E+02 -1.09143E+03
 -1.38142E+02  5.10973E+01  2.45177E+03  5.08723E+02  1.82256E+03  3.23483E+03 -8.93350E+02  5.12981E+03
 -3.84739E+03  3.26064E+03 -4.45301E+03  8.20879E+02 -4.04368E+03 -1.38876E+03 -1.58518E+03 -1.60653E+03
  6.07247E+02 -2.50461E+03  3.56080E+03 -1.36014E+03 -4.18926E+02  6.66298E+02 -9.17003E+02  2.48351E+03
 -2.93246E+03  7.66829E+02 -3.42961E+03 -2.61656E+03 -2.88043E+03 -2.93803E+03  1.32506E+03 -3.80434E+03
  1.56367E+03 -1.23122E+03  1.61498E+03 -4.24722E+02  2.83392E+03 -3.16640E+00 -5.58832E+02  2.83089E+03
 -6.22362E+02  8.54071E+01 -2.02870E+03 -1.96912E+02  8.01266E+02 -1.30915E+03  4.23008E+03 -1.11503E+03
  2.47681E+03 -2.77003E+02  3.62652E+03  2.17766E+03  2.20029E+03  2.41038E+03 -1.01533E+03  2.89534E+03
 -2.89406E+03  1.50324E+03 -3.09945E+03 -6.66722E+02 -1.80336E+03 -3.02545E+03  2.41225E+02 -1.22604E+03
  2.50351E+03 -1.60556E+03  8.49248E+02  1.17615E+03  4.16677E+02  2.21473E+03  1.27822E+02  2.11461E+03
 -8.60078E+02  1.26349E+03  3.11519E+02  2.17464E+03 -4.49756E+02  9.59125E+02 -2.64420E+02  2.62144E+02
 -1.31598E+03  1.50435E+03 -3.70718E+03  9.61248E+02 -2.35122E+03 -1.13145E+03 -4.63053E+03 -2.62068E+03
 -2.86627E+03 -3.81393E+03  1.20046E+03 -4.63495E+03  2.71959E+03 -3.77397E+03  5.05039E+03 -1.78903E+03
  5.15573E+03 -3.82257E+01  2.14642E+03  3.30799E+03 -9.03448E+02  3.18533E+03 -1.30629E+03  2.11274E+03
 -2.91693E+03  1.70974E+03 -3.89863E+02 -1.96289E+03 -1.26523E+03 -1.69744E+02 -1.44291E+03  1.95458E+02
 -1.24125E+03  1.52244E+03 -1.23155E+03 -1.67502E+03  4.11522E+02 -2.67673E+02  3.18353E+02 -7.49048E+02
  2.23041E+03 -2.79806E+03  1.74053E+03 -8.57718E+02  2.20105E+03  1.10705E+03 -3.02107E+02  4.09870E+03
 -2.47933E+03  4.36189E+03 -3.72973E+03  2.59843E+03 -4.05751E+03 -3.69182E+02 -3.98710E+03 -2.43462E+03
 -1.26701E+03 -3.06050E+03  1.29659E+03 -3.46076E+03  2.50621E+03 -2.41157E+03  2.05222E+03 -1.23639E+02
  1.23888E+03  1.08531E+03  5.30055E+02  2.08587E+03 -6.86540E+02 -6.45589E+02  8.03522E+02 -9.22896E+02
 -3.15340E+02 -2.23605E+02  2.27729E+03  9.65254E+02  1.37085E+03  1.53058E+03  1.23398E+01  6.44282E+02
 -1.13342E+03  7.21642E+02 -1.24221E+03  9.03036E+02 -2.85316E+03  4.23283E+02 -2.79423E+01 -2.35920E+03
  1.00377E+03 -1.49404E+03  1.32917E+03 -4.57857E+02  2.06931E+03 -4.02629E+02  4.90204E+02  1.97719E+03
  9.46997E+02  1.02291E+03 -1.35445E+03  1.98153E+03 -1.24990E+03  1.39820E+03 -1.34875E+03  3.99390E+02
 -2.69840E+02  6.83832E+02 -5.63142E+02  4.87826E+02 -1.82999E+03  9.23770E+02 -1.82228E+03 -5.54579E+02
 -1.31564E+03 -6.36674E+02 -2.54865E+02 -2.78280E+03  1.42849E+03 -2.06729E+03  2.00933E+03 -1.45570E+03
  2.35308E+03 -2.94410E+02 -9.41060E+02  6.25481E+02 -1.09729E+03  1.49951E+03 -1.36615E+03  1.79159E+03
