 $NMID ID='MM_0lb_SNR200_8hz_g45_97.RAW', FMTDAT='(8E13.5)'
 TRAMP=1., VOLUME=1. $END
  3.09492E+05  5.83798E+02  3.39251E+05  2.50517E+05  8.56154E+04  3.40388E+05 -1.32664E+05  2.51656E+05
 -1.90609E+05  8.44728E+04 -1.11893E+05 -3.33518E+04  8.18067E+02 -5.00825E+04  5.37978E+04 -1.16099E+02
  3.38478E+04  5.28180E+04 -1.62558E+04  7.57745E+04 -6.09366E+04  6.42404E+04 -8.62682E+04  3.43512E+04
 -8.20759E+04 -1.02522E+04 -5.89427E+04 -5.13240E+04 -1.40312E+04 -7.24290E+04  2.79636E+04 -4.75402E+04
  4.16079E+04  3.38463E+03  1.72132E+04  4.88214E+04 -3.42113E+04  4.79921E+04 -6.82200E+04  7.16475E+02
 -5.57436E+04 -5.69323E+04 -6.66751E+03 -7.96602E+04  3.59017E+04 -5.67084E+04  5.07280E+04 -1.81003E+04
  4.67365E+04  1.32102E+04  3.36311E+04  2.62275E+04  1.52757E+04  3.15792E+04 -6.66564E+03  2.60596E+04
 -2.15560E+04  1.22543E+04 -1.83342E+04 -5.77807E+03  6.67656E+03 -7.28352E+03  2.42921E+04  1.32238E+04
  5.50226E+03  3.81116E+04 -3.54879E+04  3.87149E+04 -6.63025E+04  1.88869E+03 -5.97462E+04 -4.38750E+04
 -1.19112E+04 -6.65691E+04  4.13889E+04 -4.64643E+04  6.32223E+04 -7.84904E+02  3.69870E+04  3.34499E+04
 -6.25454E+03  3.92992E+04 -3.11908E+04  1.98289E+04 -3.47099E+04 -2.36045E+03 -2.04471E+04 -1.23594E+04
 -9.07825E+03 -1.42469E+04  6.42946E+02 -1.93086E+04  8.47869E+03 -2.43162E+04  1.64224E+04 -1.10032E+04
  1.13802E+04  6.08723E+03 -1.05171E+04  1.28542E+04 -2.40422E+04 -8.21465E+03 -8.07074E+03 -3.73328E+04
  2.52319E+04 -4.65327E+04  5.09645E+04 -2.21829E+04  4.86279E+04  2.06253E+04  1.83807E+04  4.66657E+04
 -1.58495E+04  3.72674E+04 -2.80131E+04  3.66542E+03 -1.28232E+04 -3.06124E+04  2.05365E+04 -3.65815E+04
  4.60528E+04 -1.08687E+04  4.09431E+04  2.47227E+04  2.10117E+04  5.27865E+04 -7.88614E+03  5.74165E+04
 -3.79351E+04  3.85736E+04 -4.65549E+04  1.25472E+04 -4.83083E+04 -1.97412E+04 -2.69122E+04 -4.26839E+04
  9.22751E+03 -4.22314E+04  3.49609E+04 -1.63106E+04  3.32437E+04  1.12084E+04  3.30153E+03  2.19185E+04
 -1.38765E+04  8.82140E+03 -1.10161E+04 -8.00104E+03  6.81581E+03 -1.09150E+04  1.89622E+04  6.02070E+03
  1.65463E+04  2.23504E+04 -5.89754E+03  2.71826E+04 -2.46356E+04  1.40987E+04 -3.38469E+04 -3.04456E+03
 -2.56271E+04 -2.14117E+04 -1.10719E+04 -2.65877E+04  4.10938E+03 -2.71925E+04  2.10962E+04 -2.38194E+04
  3.28550E+04 -1.54222E+04  3.85703E+04  4.92120E+03  2.89340E+04  2.50909E+04  6.03519E+03  3.99185E+04
 -2.22908E+04  3.57380E+04 -3.26996E+04  1.07565E+04 -2.36576E+04 -1.05219E+04 -4.34409E+03 -1.21934E+04
  1.05829E+03 -8.07467E+02 -7.55047E+03  9.11360E+03 -1.96919E+04  4.25489E+03 -2.04635E+04 -9.74557E+03
 -1.10986E+04 -2.31582E+04  3.95584E+03 -2.84153E+04  2.01537E+04 -2.01482E+04  2.35721E+04  2.12293E+02
  1.42282E+04  1.60255E+04 -1.56405E+03  2.25419E+04 -1.85816E+04  1.43852E+04 -2.30516E+04 -4.10939E+03
 -1.78872E+04 -2.15029E+04 -2.31912E+03 -2.86307E+04  1.26911E+04 -2.35845E+04  2.34790E+04 -1.36845E+04
  2.35061E+04  5.52967E+02  1.45468E+04  6.17431E+03  7.64760E+03  2.58694E+02  1.18464E+04 -3.12083E+02
  2.37202E+04  2.94140E+03  2.56976E+04  1.96066E+04  1.76400E+04  3.92105E+04 -1.68013E+03  4.53025E+04
 -2.55949E+04  3.93101E+04 -4.13220E+04  2.05430E+04 -4.44312E+04 -2.52904E+03 -3.80144E+04 -2.57984E+04
 -1.37020E+04 -3.76176E+04  1.31339E+04 -3.30956E+04  2.95498E+04 -1.58659E+04  2.43108E+04  9.24272E+03
  7.60079E+03  1.95428E+04 -1.17319E+04  1.37827E+04 -1.96143E+04  2.31324E+03 -1.47620E+04 -1.28923E+04
 -1.73597E+03 -1.90937E+04  8.50810E+03 -1.57406E+04  1.40995E+04 -1.94528E+03  4.34573E+03  8.04485E+03
 -8.31587E+03  5.61879E+03 -1.06465E+04 -7.31449E+03 -2.69148E+02 -1.95985E+04  1.35887E+04 -2.07502E+04
  2.31539E+04 -9.95533E+03  2.76538E+04  4.31475E+03  2.39284E+04  2.00340E+04  1.15991E+04  3.05945E+04
 -4.10100E+03  3.27460E+04 -2.12552E+04  2.13291E+04 -2.23152E+04  2.39563E+03 -1.51978E+04 -7.12845E+03
 -6.68693E+03 -6.68245E+03 -1.81050E+03  6.12977E+02 -1.63570E+03  1.80271E+03 -8.16803E+03  5.96048E+03
 -1.27102E+04 -8.94135E+02 -1.61189E+04 -1.37474E+04 -7.64519E+03 -2.00284E+04  6.51554E+03 -1.73358E+04
  1.30954E+04 -7.65733E+03  9.06366E+03  3.78409E+03 -3.51126E+02  6.18783E+03 -9.24213E+03  1.58073E+03
 -8.31752E+03 -1.01326E+04 -1.41279E+03 -1.53613E+04  1.03036E+04 -1.79828E+04  2.05718E+04 -1.13873E+04
  2.54395E+04  3.78106E+03  1.89191E+04  1.54971E+04  3.60225E+03  1.91713E+04 -8.13225E+03  1.58437E+04
 -1.28461E+04  5.90378E+03 -8.66428E+03 -3.83821E+03  2.06213E+03 -3.29851E+03  9.09661E+03 -7.66382E+02
  6.80011E+03  9.54192E+03  4.99226E+02  1.17751E+04 -9.00004E+03  1.27261E+04 -1.39918E+04  3.53147E+03
 -1.08875E+04 -8.22591E+03  7.45878E+02 -1.37411E+04  9.39172E+03 -6.84612E+03  9.37407E+03  4.56631E+03
  2.00442E+03  1.04321E+04 -8.54436E+03  1.17493E+04 -1.40295E+04  6.52613E+03 -1.57932E+04 -6.54581E+03
 -9.14933E+03 -1.59297E+04  3.47671E+03 -1.86232E+04  1.55685E+04 -1.16444E+04  1.77653E+04  1.76668E+03
  1.04056E+04  1.50403E+04 -1.23437E+03  1.65823E+04 -1.13825E+04  8.43756E+03 -1.24445E+04 -1.57994E+03
 -1.15923E+04 -9.56760E+03 -2.54075E+03 -1.33658E+04  6.73506E+03 -8.80174E+03  7.91349E+03 -3.33430E+03
  4.75213E+03  8.81005E+02 -1.34024E+03  1.61140E+03 -8.02669E+01 -1.80677E+03  3.09715E+03 -6.63877E+03
  1.35063E+04 -4.17690E+03  1.62725E+04  9.94494E+02  1.64522E+04  1.10502E+04  1.12239E+04  2.21580E+04
 -5.32563E+03  2.59466E+04 -2.10677E+04  1.77304E+04 -2.77664E+04  4.17538E+03 -2.19549E+04 -8.77114E+03
 -1.02637E+04 -1.77257E+04 -1.18506E+03 -1.64880E+04  6.41325E+03 -1.04766E+04  4.89200E+03 -4.17255E+03
  3.94312E+03 -2.16836E+03  4.27334E+03 -5.30559E+03  6.80436E+03 -3.47098E+03  8.91671E+03 -3.18886E+03
  1.22348E+04  1.30216E+03  6.00170E+03  9.49375E+03 -3.90285E+03  1.36745E+04 -1.24659E+04  1.07539E+04
 -1.41784E+04 -1.64821E+03 -1.08837E+04 -1.27740E+04 -6.56085E+02 -1.66851E+04  1.06546E+04 -1.62100E+04
  1.83386E+04 -1.00537E+04  2.10158E+04  2.87010E+03  1.47489E+04  1.51947E+04  2.89489E+03  2.06283E+04
 -8.75683E+03  1.56850E+04 -1.27658E+04  5.17963E+03 -7.59981E+03 -1.49262E+03 -2.78309E+03 -1.51996E+03
 -1.53827E+03 -1.24664E+03 -2.87119E+03  3.57292E+03 -8.41969E+03  2.18867E+03 -1.19568E+04 -1.19896E+03
 -7.35705E+03 -8.01544E+03 -1.90861E+03 -1.52370E+04  8.26538E+03 -1.65981E+04  1.53309E+04 -4.81655E+03
  1.59064E+04  7.44772E+03  8.24330E+03  1.25783E+04 -1.27399E+03  1.56091E+04 -1.24095E+04  9.24821E+03
 -1.54609E+04  5.88453E+02 -1.20896E+04 -1.03127E+04 -1.18832E+03 -1.36409E+04  7.20958E+03 -1.14452E+04
  1.00916E+04 -1.96841E+03  6.03378E+03  2.94497E+03  2.30698E+03  4.07196E+03  6.40209E+02  2.80000E+03
  3.68655E+03  2.10335E+03  3.95927E+03  1.50233E+03  4.40573E+03  5.63669E+03  4.31041E+03  7.63737E+03
 -2.12265E+03  1.20122E+04 -1.16117E+04  1.49129E+04 -1.82021E+04  3.12504E+03 -1.76150E+04 -8.50349E+03
 -9.28452E+03 -1.60317E+04  2.42910E+03 -1.85571E+04  8.99760E+03 -1.23471E+04  1.54297E+04 -3.19201E+03
  1.07229E+04  7.22318E+03  1.84834E+03  9.47580E+03 -4.98239E+03  7.71929E+03 -6.96143E+03 -3.13703E+02
 -2.32007E+03 -6.80040E+03  3.46723E+03 -8.43394E+03  6.31143E+03 -2.28722E+03  4.59261E+03  1.44729E+03
  3.95549E+03  5.74137E+03  3.25375E+02  2.19795E+03 -3.04782E+03  1.87456E+03  9.24155E+02 -5.79267E+02
  2.72511E+03 -3.12089E+03  6.85925E+03  2.85658E+03  4.25743E+03  8.54407E+03 -1.96646E+03  1.12482E+04
 -8.43584E+03  6.04004E+03 -1.05773E+04  2.21429E+03 -8.78235E+03 -3.44197E+03 -4.23803E+03 -5.45615E+03
  6.30183E+02 -6.15872E+03  3.40870E+03 -3.69459E+03  4.00155E+03  3.83910E+03 -2.37664E+03  6.48456E+03
 -7.32922E+03  2.67227E+03 -9.24629E+03 -4.59762E+03 -5.30350E+03 -9.40871E+03  2.82632E+03 -9.15940E+03
  7.05624E+03 -5.16169E+03  7.25742E+03  2.90072E+02  6.26159E+03  3.18951E+03  8.79923E+02  6.80510E+03
 -3.39787E+03  1.60413E+03 -4.76880E+03 -2.58664E+03  9.12958E+02 -9.45605E+03  8.32321E+03 -6.05206E+03
  1.09733E+04  4.69704E+02  1.13924E+04  8.30170E+03  2.82469E+03  1.09177E+04 -6.28398E+03  1.08322E+04
 -1.09864E+04  3.82817E+03 -1.09306E+04 -1.16623E+03 -4.64790E+03 -6.30911E+03  2.06799E+03 -6.97702E+03
  6.88368E+03 -3.49723E+03  4.14466E+03  2.59056E+03  1.96276E+03  6.31279E+03 -1.05266E+02  4.40734E+03
 -2.00113E+03  2.40737E+03 -3.26486E+03 -1.88852E+02 -2.16351E+03  1.52038E+03 -1.93130E+03  3.30184E+03
 -2.97828E+03  4.14202E+03 -7.70174E+03  3.89240E+03 -1.10933E+04  1.05187E+03 -1.17860E+04 -6.92871E+03
 -5.26378E+03 -1.49067E+04  2.97783E+03 -1.82697E+04  1.18288E+04 -1.46207E+04  1.56391E+04 -4.34213E+03
  1.56182E+04  2.94408E+03  1.02633E+04  1.05812E+04  2.01865E+03  1.21192E+04 -5.18551E+03  8.29532E+03
 -7.07790E+03  1.83568E+03 -4.81117E+03 -1.94421E+03 -1.59295E+03 -1.91643E+03 -1.14731E+03 -3.41672E+02
 -1.88672E+03 -5.12974E+02 -2.38254E+03 -1.11902E+03 -1.35530E+03 -3.14679E+03  4.63174E+02 -4.92103E+03
  5.00046E+03 -5.06072E+03  7.73781E+03  3.26143E+02  7.90117E+03  5.73776E+03  1.13311E+03  1.15631E+04
 -6.48884E+03  1.30898E+04 -1.31039E+04  9.50498E+03 -1.51670E+04 -3.12441E+03 -1.12254E+04 -1.01248E+04
 -4.08066E+03 -1.19975E+04  1.68930E+03 -1.11033E+04  7.29519E+03 -6.87575E+03  8.99278E+03  8.19967E+02
  3.50269E+03  4.43116E+03  6.85878E+01  2.97870E+03 -2.60800E+02 -9.64546E+02  1.53837E+03 -2.44088E+03
  4.26174E+03 -2.11019E+03  5.42111E+03  1.37776E+03  3.09221E+03  5.17719E+03 -1.52918E+03  6.58257E+03
 -5.35408E+03  6.26235E+03 -8.05912E+03  4.06313E+02 -7.90631E+03 -4.58946E+03 -1.33741E+03 -9.07520E+03
  6.32686E+03 -7.82303E+03  8.92107E+03 -7.87629E+02  8.21695E+03  3.50588E+03  5.32894E+03  7.00769E+03
  2.05739E+03  8.02701E+03 -3.19886E+03  7.14329E+03 -6.46217E+03  3.41685E+03 -4.26552E+03 -8.42044E+02
 -3.17117E+03  3.31600E+02 -2.65454E+03  1.04120E+03 -4.68754E+03  9.24803E+02 -6.86373E+03 -9.67762E+02
 -6.16041E+03 -5.26777E+03 -1.92461E+03 -9.28680E+03  5.02534E+03 -7.20651E+03  7.35489E+03 -4.68967E+03
  8.59103E+03  2.86716E+02  3.83400E+03  4.88563E+03  8.49810E+02  7.31861E+03 -6.12174E+03  5.04914E+03
