 $NMID ID='MM_0lb_SNR200_10hz_g40_34.RAW', FMTDAT='(8E13.5)'
 TRAMP=1., VOLUME=1. $END
  3.10346E+05  4.32071E+02  3.38438E+05  2.50185E+05  8.48218E+04  3.39253E+05 -1.32096E+05  2.51756E+05
 -1.90025E+05  8.32054E+04 -1.11295E+05 -3.18475E+04  1.23846E+03 -5.04947E+04  5.43712E+04 -4.60092E+02
  3.76730E+04  5.27520E+04 -1.57361E+04  7.65617E+04 -6.14370E+04  6.49996E+04 -8.39063E+04  3.33944E+04
 -8.13353E+04 -1.26941E+04 -5.83007E+04 -5.09964E+04 -1.43056E+04 -7.07684E+04  2.81168E+04 -4.65662E+04
  4.14155E+04  4.57563E+03  1.63722E+04  4.80664E+04 -3.42202E+04  4.80109E+04 -6.67617E+04  3.84943E+02
 -5.49815E+04 -5.75977E+04 -7.21522E+03 -7.84214E+04  3.48784E+04 -5.56004E+04  4.92080E+04 -1.83506E+04
  4.41971E+04  1.18410E+04  3.26161E+04  2.60608E+04  1.47425E+04  3.06333E+04 -6.34100E+03  2.74232E+04
 -2.31533E+04  1.39369E+04 -1.90115E+04 -6.03658E+03  5.52311E+03 -7.79552E+03  2.29286E+04  1.46358E+04
  6.56642E+03  3.77215E+04 -3.20410E+04  3.73453E+04 -6.33210E+04  2.97627E+03 -5.83316E+04 -4.38825E+04
 -1.22160E+04 -6.47672E+04  4.16605E+04 -4.58803E+04  5.98949E+04 -1.86844E+03  3.44315E+04  3.32975E+04
 -5.03271E+03  3.89711E+04 -3.20563E+04  1.66557E+04 -3.14885E+04 -3.77782E+03 -1.91146E+04 -1.09880E+04
 -6.12948E+03 -1.31541E+04  1.08283E+03 -1.88639E+04  7.63404E+03 -2.20638E+04  1.68192E+04 -1.23776E+04
  1.00168E+04  5.01736E+03 -1.08485E+04  1.38174E+04 -2.43383E+04 -6.18497E+03 -8.59722E+03 -3.64217E+04
  2.55993E+04 -4.60640E+04  5.00739E+04 -1.96933E+04  4.54996E+04  1.89816E+04  1.77238E+04  4.60277E+04
 -1.56161E+04  3.54830E+04 -2.68876E+04  2.10423E+03 -1.08944E+04 -2.94812E+04  2.04695E+04 -3.46851E+04
  4.25510E+04 -1.07029E+04  3.76753E+04  2.35158E+04  2.04311E+04  4.98494E+04 -9.62036E+03  5.41054E+04
 -3.40526E+04  3.51323E+04 -4.45621E+04  1.03948E+04 -4.58093E+04 -1.71377E+04 -2.45140E+04 -3.98469E+04
  6.94280E+03 -4.04291E+04  3.48442E+04 -1.78246E+04  3.02956E+04  1.20781E+04  4.01328E+03  1.81709E+04
 -1.41954E+04  8.65355E+03 -1.09671E+04 -7.99780E+03  6.71385E+03 -1.03250E+04  1.83704E+04  6.36809E+03
  1.55733E+04  2.25351E+04 -6.74429E+03  2.60847E+04 -2.35414E+04  1.23406E+04 -2.92242E+04 -4.19426E+03
 -2.31081E+04 -1.74855E+04 -9.84427E+03 -2.29767E+04  4.21206E+03 -2.37596E+04  1.72618E+04 -2.06524E+04
  3.00832E+04 -1.27033E+04  3.67671E+04  2.84845E+03  2.68945E+04  2.25471E+04  5.16488E+03  3.97412E+04
 -1.87408E+04  3.37094E+04 -2.90645E+04  1.04671E+04 -2.17298E+04 -1.00204E+04 -2.22764E+03 -1.28345E+04
  1.81553E+03 -1.99877E+03 -5.77657E+03  7.61129E+03 -1.80013E+04  5.25802E+03 -1.90649E+04 -9.24445E+03
 -1.07024E+04 -2.15177E+04  5.55542E+03 -2.69312E+04  1.63617E+04 -1.76602E+04  2.14753E+04 -2.32134E+03
  1.22060E+04  1.52867E+04 -2.54747E+03  2.17147E+04 -1.42034E+04  1.16936E+04 -2.11281E+04 -3.91782E+03
 -1.54482E+04 -1.90064E+04 -3.11131E+03 -2.61485E+04  1.17972E+04 -2.24592E+04  2.18515E+04 -1.09070E+04
  2.12449E+04 -2.06521E+01  1.53897E+04  5.00881E+03  7.78951E+03  1.44287E+03  1.26205E+04 -1.43291E+03
  2.02606E+04  2.12175E+03  2.30628E+04  1.72797E+04  1.38907E+04  3.30795E+04 -2.71706E+03  4.00926E+04
 -2.32083E+04  3.29219E+04 -3.82722E+04  1.67887E+04 -4.11672E+04 -2.43948E+03 -3.21165E+04 -2.36050E+04
 -1.41015E+04 -3.47197E+04  1.04370E+04 -3.15673E+04  2.66703E+04 -1.36060E+04  2.19926E+04  5.68635E+03
  7.68843E+03  1.64928E+04 -1.01899E+04  1.34619E+04 -1.92763E+04  1.19627E+03 -1.39890E+04 -1.13244E+04
 -7.69638E+02 -1.75235E+04  1.00616E+04 -1.21870E+04  1.19885E+04 -6.33344E+02  2.33879E+03  8.77666E+03
 -7.38679E+03  3.96034E+03 -7.79393E+03 -5.32358E+03 -2.71779E+03 -1.65254E+04  1.07156E+04 -1.76951E+04
  1.98931E+04 -9.29106E+03  2.34863E+04  2.77625E+03  2.04413E+04  1.73813E+04  8.52748E+03  2.70706E+04
 -3.82914E+03  2.78781E+04 -1.78803E+04  1.75095E+04 -1.99702E+04  3.24551E+03 -1.38957E+04 -5.31440E+03
 -6.03723E+03 -6.08382E+03 -1.15655E+03 -5.63753E+02 -3.66507E+03  2.61233E+03 -6.16483E+03  4.40962E+03
 -1.26641E+04  2.17327E+00 -1.31597E+04 -1.13383E+04 -6.53354E+03 -1.77392E+04  5.68106E+03 -1.22639E+04
  1.21366E+04 -5.95433E+03  7.91142E+03  2.65539E+03 -1.83920E+03  5.38159E+03 -7.39530E+03  1.01581E+03
 -7.05366E+03 -1.00276E+04 -2.21011E+03 -1.35126E+04  5.88724E+03 -1.51654E+04  1.76095E+04 -7.77916E+03
  2.08893E+04  2.00854E+03  1.64078E+04  1.33625E+04  3.60181E+03  1.75616E+04 -8.40360E+03  1.34644E+04
 -1.13365E+04  2.25638E+03 -6.29835E+03 -3.04003E+03  1.45788E+03 -2.73501E+03  7.75997E+03 -5.83523E+01
  7.90337E+03  7.68417E+03  2.15698E+03  1.06322E+04 -7.85973E+03  9.50475E+03 -1.44416E+04  3.22928E+03
 -8.50059E+03 -7.08999E+03 -7.93687E+02 -1.19192E+04  6.74197E+03 -5.96115E+03  7.26324E+03  3.92678E+03
  3.01992E+03  8.18519E+03 -6.26869E+03  9.18858E+03 -1.15115E+04  1.60133E+03 -1.16869E+04 -4.47536E+03
 -7.55336E+03 -1.39630E+04  2.73362E+03 -1.50793E+04  1.25980E+04 -9.93340E+03  1.42268E+04  3.13256E+03
  8.30779E+03  1.25479E+04 -8.08220E+02  1.43587E+04 -1.07578E+04  9.76663E+03 -1.07884E+04 -1.65793E+03
 -1.14135E+04 -8.61989E+03 -9.88042E+02 -9.54209E+03  5.57541E+03 -9.44251E+03  7.52171E+03 -3.60372E+03
  3.11601E+03  2.26917E+03 -2.36158E+03  1.39340E+03 -1.22406E+03 -2.03610E+03  1.79989E+03 -5.42912E+03
  8.42312E+03 -4.80203E+03  1.29215E+04  1.68015E+03  1.23977E+04  9.00550E+03  9.02838E+03  1.66426E+04
 -4.81476E+03  2.09129E+04 -1.64936E+04  1.55434E+04 -2.27746E+04  3.12534E+03 -1.81471E+04 -5.82064E+03
 -8.68009E+03 -1.45896E+04  3.87890E+02 -1.15925E+04  3.32620E+03 -7.33423E+03  4.97869E+03 -4.89694E+03
  3.61876E+03 -2.04804E+03  3.18230E+03 -4.29821E+03  5.93735E+03 -2.74780E+03  6.46582E+03 -1.24882E+03
  9.13124E+03  3.10804E+03  4.43857E+03  7.00114E+03 -8.23035E+02  8.79654E+03 -1.03648E+04  5.73893E+03
 -1.18548E+04 -1.24761E+03 -8.63695E+03 -8.26638E+03 -2.07814E+03 -1.36350E+04  7.99994E+03 -1.19099E+04
  1.53210E+04 -7.15533E+03  1.58163E+04  2.70967E+03  1.24502E+04  1.13426E+04  2.41933E+03  1.58334E+04
 -7.39210E+03  1.26354E+04 -9.39708E+03  3.33387E+03 -5.01314E+03 -6.70114E+02 -3.16703E+03 -2.22000E+03
  9.41471E+02  1.27962E+01 -1.48540E+03  2.36993E+03 -5.10102E+03  2.94115E+03 -9.05701E+03 -1.50925E+03
 -6.99889E+03 -7.57878E+03 -1.95334E+02 -1.25444E+04  6.97197E+03 -1.17428E+04  1.26103E+04 -3.90838E+03
  1.28674E+04  6.45465E+03  5.95234E+03  1.07022E+04 -1.03484E+03  1.32571E+04 -1.01737E+04  7.57713E+03
 -1.14128E+04  1.21233E+03 -9.78912E+03 -6.92061E+03 -6.63806E+02 -8.35646E+03  5.67994E+03 -7.54682E+03
  8.07025E+03 -3.51391E+03  4.96612E+03  2.14540E+03  2.30964E+03  4.83716E+03  1.17885E+03  5.42117E+02
  2.39259E+03  6.71109E+02  1.85559E+03  2.89978E+03  2.58179E+03  3.51692E+03  3.05888E+03  6.81145E+03
 -3.12821E+03  8.70893E+03 -7.95622E+03  8.62834E+03 -1.25811E+04  2.44143E+03 -1.24109E+04 -4.34502E+03
 -6.90025E+03 -1.23125E+04  1.72210E+03 -1.34160E+04  7.75898E+03 -8.59010E+03  9.49478E+03 -2.62015E+03
  8.13517E+03  4.13595E+03  9.40909E+02  7.25223E+03 -2.69944E+03  5.01122E+03 -4.78737E+03 -2.09855E+03
 -5.18035E+02 -5.15029E+03  3.30990E+03 -6.09742E+03  5.03058E+03 -2.01883E+03  4.01439E+03  9.37798E+02
  2.38107E+03  3.13879E+03 -7.26945E+00  2.73164E+03 -7.32021E+02  2.89747E+03  2.09178E+03 -9.56732E+01
  4.47756E+02 -6.03875E+02  6.13424E+03  1.18890E+03  3.07531E+03  6.64583E+03 -1.12704E+03  9.84126E+03
 -6.16231E+03  4.89216E+03 -7.52845E+03  2.13005E+03 -6.38010E+03 -2.94445E+03 -2.08320E+03 -4.18001E+03
  8.10655E+02 -5.31304E+03  3.60290E+03 -4.45739E+03  1.50384E+03  2.59578E+03 -4.79263E+02  4.42860E+03
 -6.27014E+03  8.15772E+02 -5.16661E+03 -3.34243E+03 -2.75519E+03 -5.87032E+03  1.31244E+03 -6.40397E+03
  4.28831E+03 -2.66376E+03  5.92948E+03 -1.97459E+03  2.70303E+03  1.51941E+03  9.17228E+02  3.97886E+03
 -3.39047E+03  8.93675E+02 -3.58332E+03  6.70504E+02  3.18202E+02 -4.76559E+03  6.21258E+03 -4.58907E+03
  6.57092E+03 -1.22227E+03  7.12147E+03  4.79508E+03  2.62656E+03  9.23917E+03 -8.77885E+02  8.03554E+03
 -5.72895E+03  2.68345E+03 -6.76699E+03 -1.32072E+03 -3.56444E+03 -5.61591E+03  5.83100E+02 -4.90563E+03
  5.42304E+03 -1.06011E+03  4.21845E+03  3.14471E+03  7.11062E+02  4.23835E+03 -1.80707E+03  3.48732E+03
 -2.17718E+03  1.56826E+03 -2.19330E+03  1.31036E+02 -9.18405E+01 -8.79871E+00 -1.71352E+03  2.15225E+02
 -2.06415E+03  2.70113E+03 -5.99072E+03  4.23241E+03 -8.83934E+03 -1.65669E+03 -9.29986E+03 -3.81429E+03
 -4.89108E+03 -1.25945E+04  2.33217E+03 -1.18389E+04  7.33873E+03 -9.96192E+03  1.04123E+04 -2.58300E+03
  1.05910E+04  1.17329E+03  5.95335E+03  7.04133E+03  1.58224E+03  8.55845E+03 -2.85405E+03  6.51494E+03
 -3.49338E+03  3.21146E+03 -3.62446E+03  1.20931E+02  5.60727E+02 -1.12643E+03 -1.06779E+03 -2.92008E+02
 -2.26059E+03  6.13115E+02 -1.34776E+03 -3.94431E+02 -8.57595E+01 -9.23922E+02 -7.85038E+01 -3.94730E+03
  4.41030E+03 -3.19658E+03  5.28554E+03 -7.36756E+02  6.71612E+03  3.92465E+03  4.44562E+02  8.25123E+03
 -3.99610E+03  9.44665E+03 -8.60195E+03  4.69585E+03 -9.84830E+03 -2.33355E+03 -7.95019E+03 -5.65366E+03
 -2.76601E+03 -8.62919E+03  1.83279E+03 -8.90928E+03  5.36679E+03 -4.85610E+03  5.90290E+03  1.15182E+03
  3.06088E+03  3.14733E+03 -2.01993E+02  3.53528E+03 -2.47843E+03 -1.03995E+03 -1.89917E+03 -4.70140E+01
  3.13820E+03 -2.06666E+03  4.31352E+03  3.49811E+02  2.95984E+03  3.47907E+03 -5.78239E+01  4.40562E+03
 -3.73653E+03  4.41475E+03 -4.87135E+03 -3.15632E+02 -4.74918E+03 -2.97447E+03 -1.25796E+03 -7.79677E+03
  5.01400E+03 -5.65842E+03  6.47506E+03 -1.17148E+03  6.34555E+03  1.54986E+03  2.56999E+03  5.22991E+03
  1.08919E+03  6.01557E+03 -2.39175E+03  4.00274E+03 -3.22976E+03  2.33715E+03 -2.87443E+03 -2.36617E+02
 -1.63140E+03  9.37578E+02 -1.28731E+03  2.86921E+02 -1.79438E+03  1.69435E+03 -3.64422E+03 -8.24265E+01
 -3.53483E+03 -3.57794E+03 -2.86077E+03 -4.90917E+03  3.24896E+03 -5.07733E+03  5.64870E+03 -2.41860E+03
  4.97290E+03 -1.08285E+03  1.65974E+03  3.66321E+03 -4.97539E+02  6.22900E+03 -4.21355E+03  4.41397E+03
