 $NMID ID='MM_0lb_SNR200_20hz_g40_46.RAW', FMTDAT='(8E13.5)'
 TRAMP=1., VOLUME=1. $END
  3.09245E+05  7.64939E+02  3.37158E+05  2.50722E+05  8.39903E+04  3.36600E+05 -1.32350E+05  2.50536E+05
 -1.89841E+05  8.21323E+04 -1.11306E+05 -3.29617E+04  2.33491E+03 -5.00756E+04  5.37469E+04  1.68759E+02
  3.52004E+04  5.20520E+04 -1.66567E+04  7.50122E+04 -5.92941E+04  6.27314E+04 -8.34137E+04  3.18141E+04
 -7.92663E+04 -1.11492E+04 -5.65741E+04 -4.94806E+04 -1.42707E+04 -6.71043E+04  2.54372E+04 -4.51085E+04
  3.83532E+04  3.89151E+03  1.42618E+04  4.64816E+04 -3.33513E+04  4.50118E+04 -6.35981E+04 -1.48608E+03
 -5.13115E+04 -5.53783E+04 -6.65890E+03 -7.44221E+04  3.25516E+04 -5.20985E+04  4.54327E+04 -1.56438E+04
  4.08961E+04  1.00743E+04  3.02058E+04  2.47088E+04  1.52577E+04  2.81242E+04 -4.06138E+03  2.62555E+04
 -2.06436E+04  1.27785E+04 -1.91333E+04 -4.59931E+03  3.69618E+03 -7.86192E+03  2.10701E+04  9.70362E+03
  7.24323E+03  3.20105E+04 -3.06310E+04  3.43792E+04 -5.94880E+04  2.94875E+03 -5.45488E+04 -4.02936E+04
 -1.23306E+04 -5.92293E+04  3.75376E+04 -4.29982E+04  5.49921E+04 -1.88253E+03  3.12745E+04  2.97245E+04
 -6.81425E+03  3.15739E+04 -2.72703E+04  1.17598E+04 -2.58293E+04 -5.44376E+03 -1.38378E+04 -9.75926E+03
 -6.83754E+03 -9.85284E+03 -8.93189E+02 -1.50755E+04  6.00373E+03 -2.22581E+04  1.54332E+04 -1.44333E+04
  1.24882E+04  4.03638E+03 -4.91048E+03  1.23277E+04 -1.80176E+04 -1.51623E+03 -9.02358E+03 -2.92241E+04
  2.02588E+04 -3.88131E+04  4.24180E+04 -1.85320E+04  4.05477E+04  1.76390E+04  1.38087E+04  4.00225E+04
 -1.53809E+04  2.92665E+04 -2.17343E+04  8.62843E+02 -6.63236E+03 -2.62232E+04  2.01592E+04 -2.91602E+04
  3.65618E+04 -5.83254E+03  2.97290E+04  2.23616E+04  1.46363E+04  3.90245E+04 -7.77687E+03  4.39080E+04
 -2.75727E+04  2.76096E+04 -3.39286E+04  7.24964E+03 -3.79444E+04 -1.47615E+04 -1.94815E+04 -3.23483E+04
  6.40695E+03 -3.21582E+04  2.75920E+04 -1.10182E+04  2.62668E+04  1.17010E+04  2.42432E+03  1.67669E+04
 -1.30288E+04  7.14371E+03 -9.10416E+03 -7.30997E+03  5.73515E+03 -1.02335E+04  1.75709E+04  6.28252E+03
  1.25919E+04  2.13310E+04 -6.63709E+03  2.29287E+04 -2.04237E+04  8.00713E+03 -2.40514E+04 -6.52178E+03
 -1.49811E+04 -1.60109E+04 -4.73375E+03 -1.43353E+04  4.08630E+03 -1.30955E+04  1.21162E+04 -1.34485E+04
  1.82383E+04 -1.20992E+04  2.55369E+04 -1.16042E+02  1.91554E+04  1.50021E+04  4.51607E+03  3.04074E+04
 -1.57449E+04  2.56069E+04 -2.42714E+04  9.07207E+03 -1.95573E+04 -1.03566E+04 -3.28007E+03 -1.40523E+04
  3.22026E+03 -5.14636E+03 -1.64185E+03  4.49625E+03 -1.06550E+04  4.99383E+03 -1.19497E+04 -4.22469E+03
 -7.66634E+03 -1.40632E+04  4.69720E+03 -1.83514E+04  1.16023E+04 -1.20118E+04  1.25653E+04 -9.23134E+02
  8.14762E+03  1.04597E+04 -3.41752E+02  1.47816E+04 -8.99397E+03  6.90644E+03 -1.41036E+04 -3.60034E+03
 -1.03773E+04 -1.29582E+04 -1.82189E+03 -1.76818E+04  7.08884E+03 -1.47429E+04  1.47717E+04 -7.17408E+03
  1.25450E+04  1.09664E+03  9.56512E+03  3.31980E+03  3.69034E+03 -2.36064E+02  7.10042E+03 -3.90050E+02
  1.20106E+04  2.71706E+03  1.27240E+04  1.19303E+04  8.49877E+03  2.23657E+04 -2.89615E+03  2.34626E+04
 -1.49130E+04  1.72024E+04 -2.07628E+04  8.10269E+03 -2.18705E+04 -3.27002E+03 -1.96107E+04 -1.08506E+04
 -9.05981E+03 -1.80262E+04  5.68991E+03 -1.72575E+04  1.57717E+04 -9.61781E+03  1.38698E+04  2.64365E+03
  6.02243E+03  9.66141E+03 -7.26811E+03  9.80651E+03 -1.26957E+04  3.39655E+03 -8.83611E+03 -6.46145E+03
 -6.62167E+02 -1.07641E+04  5.77414E+03 -8.46495E+03  6.61471E+03 -4.53774E+02  1.57111E+03  4.62339E+03
 -4.96708E+03  8.26859E+01 -2.20488E+03 -4.53567E+03  1.39626E+03 -7.97048E+03  7.12380E+03 -7.76402E+03
  1.12137E+04 -3.06302E+03  9.40733E+03  1.67870E+03  8.72738E+03  7.99135E+03  4.45784E+03  1.15344E+04
 -1.03374E+03  1.41814E+04 -8.58278E+03  8.42045E+03 -8.70860E+03  2.33866E+03 -7.04505E+03 -1.97235E+03
 -3.67631E+03 -2.85897E+03 -1.08377E+03  1.62699E+03 -2.34199E+03  2.37035E+03 -1.85748E+03  3.18006E+03
 -6.70052E+03 -2.28098E+02 -8.29723E+03 -6.66858E+03 -3.56652E+03 -1.10570E+04  3.14161E+03 -7.68909E+03
  5.80810E+03 -3.83746E+03  4.21489E+03  2.02943E+03  5.41960E+02  2.55808E+03 -2.31795E+03  4.84384E+02
 -2.68003E+03 -4.44324E+03 -1.78698E+03 -5.52436E+03  2.90551E+03 -5.98836E+03  7.49426E+03 -3.41935E+03
  1.03417E+04  1.20503E+02  7.97676E+03  5.55163E+03  9.47842E+02  7.13884E+03 -3.58191E+03  7.47602E+03
 -5.91524E+03  2.86513E+03 -3.11446E+03 -1.15918E+03  1.14683E+03 -1.66836E+03  4.38782E+03 -4.63616E+02
  4.25095E+03  3.25790E+03  1.67359E+03  5.37846E+03 -4.26555E+03  5.64918E+03 -7.61340E+03  1.07409E+03
 -3.52951E+03 -2.86723E+03  1.16415E+03 -4.60631E+03  3.87098E+03 -3.21424E+03  3.63569E+03  7.71578E+02
 -8.23781E+02  2.00505E+03 -3.76732E+03  4.69083E+03 -3.38973E+03  1.82696E+03 -3.98550E+03 -6.88644E+02
 -1.73583E+03 -4.12145E+03  8.79256E+02 -4.79989E+03  5.19128E+03 -3.95200E+03  5.99000E+03  6.20659E+02
  5.14957E+03  3.79555E+03 -2.55447E+02  5.57735E+03 -4.74732E+03  3.09422E+03 -4.82487E+03 -8.87043E+02
 -4.02924E+03 -4.60532E+03 -1.40316E+03 -4.38866E+03  2.26339E+03 -4.27429E+03  2.15774E+03 -2.74082E+03
  1.61259E+03 -8.37536E+02  2.25300E+02  1.81664E+03  5.81867E+02  7.82962E+02  1.44271E+02 -1.57546E+03
  2.89581E+03 -2.91317E+02  4.66024E+03  2.46297E+02  4.53775E+03  2.59596E+03  4.44306E+03  5.04361E+03
 -1.51827E+03  7.06831E+03 -6.45556E+03  5.37625E+03 -7.80145E+03  5.36345E+02 -6.04434E+03 -2.53809E+03
 -3.93387E+03 -5.98713E+03 -1.96799E+02 -5.38912E+03  2.15750E+03 -9.99007E+02  1.24390E+03 -1.38088E+03
  7.00262E+02 -1.81889E+03  1.41606E+03 -2.43647E+03  3.23810E+03 -1.70738E+03  2.98113E+03  8.85467E+02
  3.23247E+03  7.68544E+02  1.30849E+03  2.57882E+03 -1.39672E+03  1.57953E+03 -3.59212E+03  1.57855E+03
 -4.60473E+03 -1.23294E+02  8.54845E+01 -2.30821E+03  1.49895E+03 -3.40718E+03  1.74541E+03 -3.73064E+03
  3.82306E+03 -2.75881E+03  4.96003E+03 -1.48622E+03  4.38101E+03  2.66107E+03  1.16346E+03  5.35733E+03
 -1.79209E+03  4.81276E+03 -3.47051E+03  2.26094E+03 -1.14473E+03 -1.38617E+03 -2.95624E+02 -3.97494E+02
 -4.61828E+02  1.69312E+02 -5.49514E+02  7.16633E+02 -2.55199E+03  2.41915E+02 -2.95970E+03  1.74714E+02
 -1.11233E+02 -3.22296E+03  1.29428E+03 -3.56020E+03  2.15190E+03 -2.56225E+03  1.75019E+03 -5.67559E+02
  3.82691E+03  2.72864E+03  2.03554E+03  2.92098E+03 -2.55339E+02  2.76442E+03 -1.40886E+03  2.27247E+03
 -3.00619E+03  7.46832E+02 -3.28310E+03 -2.43798E+03 -1.92173E+02 -2.68830E+03  2.25538E+03 -2.56979E+03
  2.65356E+03 -9.69026E+02  1.91077E+03  4.15661E+02 -4.31039E+02  1.88889E+03 -7.51557E+01  4.84210E+02
  1.96810E+03  8.54609E+02  5.83229E+02  1.59725E+03  1.44570E+03  1.83594E+03  1.05790E+03  1.28025E+03
 -1.40216E+03  3.11041E+03 -1.67824E+03  3.19601E+03 -1.91374E+03  1.57883E+03 -3.28275E+03  1.16728E+02
 -7.00609E+02 -3.13966E+03 -1.01783E+01 -3.00893E+03  1.56223E+03 -1.37665E+03  3.17721E+03 -9.36763E+02
  2.45232E+03  1.12776E+03  3.96267E+02  1.55489E+03 -1.84905E+03  1.19749E+03 -4.53385E+02 -4.67176E+01
  9.38447E+01 -1.51687E+03  5.53988E+02 -6.21631E+02 -5.73024E+00 -4.27834E+02  1.15091E+03 -1.62744E+02
  9.75382E+02 -1.16754E+02 -1.34042E+02 -5.41114E+02  7.17327E+01  2.82649E+02  1.61955E+03 -6.50572E+02
 -5.85819E+02 -1.34797E+03  1.02775E+03 -2.75540E+01  1.78642E+02  3.11558E+03 -7.60898E+02  1.91549E+03
 -1.55504E+03 -3.04948E+02 -7.91316E+02 -6.93892E+02 -1.12051E+03 -2.42418E+02  1.02884E+03 -9.08272E+02
  1.02787E+03 -4.53051E+02  1.34971E+03 -6.61103E+02  1.14008E+03  8.64880E+02 -3.21483E+02 -3.68555E+00
 -8.80113E+02  1.43974E+03 -1.36869E+03 -7.97556E+02 -8.99505E+02 -2.27263E+03 -6.50774E+02 -6.23713E+02
 -2.93031E+02 -1.87731E+03  9.66512E+02 -1.56743E+02  6.37064E+02  1.94806E+02  1.40484E+02  1.48715E+03
  2.76374E+02 -7.40348E+01 -1.15504E+03  8.92509E+02 -5.26562E+02  3.82241E+02  1.17454E+03 -1.37275E+03
 -1.76566E+02 -4.30193E+02  2.36639E+03  3.24831E+02  8.04655E+02  1.35036E+03  1.19953E+02  7.39108E+02
 -3.48789E+02  7.14872E+02 -2.01271E+03  2.47010E+02 -1.40291E+03 -4.77124E+02  6.29895E+01 -3.03921E+02
  1.14653E+03 -4.70154E+02  3.94744E+02  1.08834E+03  1.15276E+02  1.79852E+03  1.28715E+03  1.35331E+03
 -6.68191E+02  1.07713E+01 -1.45525E+03 -7.67137E+02 -3.26498E+02 -3.58255E+02  2.11329E+02  3.05430E+02
 -1.59430E+03  1.06972E+03 -1.64617E+03  6.30724E+02 -1.85324E+03 -1.29210E+03 -2.28013E+03 -3.98941E+00
 -7.63777E+02 -3.51354E+02  7.03000E+02 -1.94236E+03  1.13776E+03 -1.69737E+03  2.04635E+03 -1.35573E+03
  1.11584E+03 -2.74341E+02  2.52494E+02  1.44969E+03 -7.09958E+02  1.29997E+03 -3.64060E+02  1.35028E+03
 -8.98336E+02  2.66274E+02 -2.01302E+02  1.04100E+02 -9.26634E+02  7.71454E+02 -6.76495E+02  2.37989E+02
 -1.43719E+03  6.57275E+02 -6.71840E+02  8.40848E+01  1.45319E+03 -4.41187E+02 -7.18197E+02 -1.29523E+03
  1.48217E+03 -1.08777E+03  2.19871E+02 -3.78976E+02  1.32954E+03  8.36424E+02 -1.30095E+03  9.62779E+02
 -1.00082E+03  2.23072E+03 -1.22415E+03 -3.93952E+02 -1.36387E+02  5.25335E+02 -1.23362E+03 -5.85482E+02
 -3.48734E+01 -1.97027E+03  7.23200E+02 -8.50373E+02  1.69134E+02 -5.28924E+02 -9.18325E+02 -1.23572E+03
  2.17377E+03 -7.83567E+01  4.90847E+02 -9.14570E+02 -1.68468E+02  4.00822E+02 -2.37508E+02 -9.52223E+02
  6.75899E+02  6.04304E+01  3.52799E+02  5.71787E+02  7.62786E+01  4.60551E+02  1.25685E+03  5.41324E+02
  4.63204E+01  2.08716E+02 -4.04933E+02  2.98989E+02  6.60100E+01 -7.33775E+02  4.39919E+02 -1.00064E+03
  2.68992E+02 -1.88860E+02  6.03828E+02  1.96356E+02 -2.00690E+01 -2.00034E+03  1.02029E+02  6.75881E+02
 -5.09487E+02  7.00046E+02  8.97484E+02  2.98670E+02 -3.14001E+02  3.20479E+02 -1.42738E+03 -4.76497E+02
  2.96378E+02 -5.66539E+01 -1.43980E+02 -8.85455E+02 -4.85485E+02  6.47555E+02 -7.63198E+02  1.19741E+02
 -8.70117E+02  1.44313E+03 -3.14657E+02 -9.89175E+02 -5.19688E+02 -1.93911E+03  1.23468E+03  1.32656E+02
 -7.84627E+01 -8.97317E+01 -4.99294E+02 -6.01818E+02 -9.96335E+02  5.84131E+02 -9.80965E+00  5.47878E+02
