 $NMID ID='MM_0lb_SNR200_18hz_g60_95.RAW', FMTDAT='(8E13.5)'
 TRAMP=1., VOLUME=1. $END
  3.09250E+05 -2.51563E+01  3.37841E+05  2.50732E+05  8.44912E+04  3.37872E+05 -1.33386E+05  2.49642E+05
 -1.89850E+05  8.37026E+04 -1.11846E+05 -3.27308E+04  1.74632E+03 -5.18574E+04  5.46372E+04 -5.01208E+01
  3.57961E+04  5.31660E+04 -1.71601E+04  7.52714E+04 -5.98969E+04  6.32040E+04 -8.38632E+04  3.20995E+04
 -8.11498E+04 -1.13317E+04 -5.73050E+04 -5.09381E+04 -1.43011E+04 -6.99051E+04  2.72925E+04 -4.61977E+04
  4.06997E+04  4.78733E+03  1.53865E+04  4.74276E+04 -3.45830E+04  4.73939E+04 -6.61098E+04  1.32041E+02
 -5.27934E+04 -5.69175E+04 -6.76331E+03 -7.65500E+04  3.34232E+04 -5.44981E+04  4.78437E+04 -1.63585E+04
  4.23450E+04  1.07351E+04  3.12150E+04  2.38239E+04  1.50602E+04  2.93148E+04 -4.66385E+03  2.63333E+04
 -2.19050E+04  1.29908E+04 -1.77157E+04 -4.65628E+03  5.23841E+03 -7.46405E+03  2.20901E+04  1.25424E+04
  7.72000E+03  3.45566E+04 -3.17841E+04  3.60573E+04 -6.31046E+04  1.91450E+03 -5.57702E+04 -4.30593E+04
 -1.23490E+04 -6.30189E+04  3.93852E+04 -4.56685E+04  5.78629E+04 -1.84680E+03  3.28056E+04  3.12264E+04
 -6.42748E+03  3.62873E+04 -2.98091E+04  1.55955E+04 -2.81019E+04 -4.46215E+03 -1.57230E+04 -1.06890E+04
 -7.92147E+03 -1.15420E+04 -5.55652E+02 -1.88296E+04  7.25540E+03 -2.31179E+04  1.44085E+04 -1.41872E+04
  1.14675E+04  4.55402E+03 -6.43913E+03  1.32879E+04 -2.09332E+04 -3.51158E+03 -9.02926E+03 -3.34921E+04
  2.20628E+04 -4.27396E+04  4.68138E+04 -1.98181E+04  4.43763E+04  1.93269E+04  1.51827E+04  4.17327E+04
 -1.59209E+04  3.28618E+04 -2.45803E+04  4.28166E+01 -9.30655E+03 -2.77800E+04  2.11631E+04 -3.31140E+04
  4.07494E+04 -8.59654E+03  3.34107E+04  2.30310E+04  1.69886E+04  4.49297E+04 -8.27947E+03  4.70800E+04
 -3.00208E+04  3.24734E+04 -4.05534E+04  7.91845E+03 -4.11775E+04 -1.53215E+04 -2.22752E+04 -3.65364E+04
  6.27117E+03 -3.58667E+04  3.04918E+04 -1.35989E+04  2.83256E+04  1.12169E+04  4.17852E+03  1.96691E+04
 -1.47359E+04  8.76305E+03 -1.10578E+04 -6.68451E+03  6.67837E+03 -1.00845E+04  1.85599E+04  7.91349E+03
  1.31409E+04  2.21410E+04 -5.13453E+03  2.36965E+04 -2.19991E+04  1.12926E+04 -2.63165E+04 -6.21278E+03
 -1.81612E+04 -1.65037E+04 -7.52364E+03 -1.91785E+04  4.13187E+03 -1.69251E+04  1.45578E+04 -1.70242E+04
  2.36190E+04 -1.23482E+04  3.05955E+04  2.20644E+03  2.22317E+04  1.87773E+04  4.07998E+03  3.44242E+04
 -1.60602E+04  2.90557E+04 -2.67025E+04  1.04386E+04 -2.05106E+04 -1.05157E+04 -3.42652E+03 -1.24059E+04
  1.43998E+03 -2.45101E+03 -3.79791E+03  6.31940E+03 -1.42001E+04  4.71386E+03 -1.48672E+04 -5.34292E+03
 -1.00403E+04 -1.78196E+04  4.36795E+03 -2.12182E+04  1.38287E+04 -1.58469E+04  1.56959E+04 -1.75902E+03
  1.02282E+04  1.19377E+04 -1.08680E+03  1.85823E+04 -1.11332E+04  9.50743E+03 -1.79510E+04 -2.74267E+03
 -1.26295E+04 -1.57097E+04 -1.59070E+03 -2.07521E+04  1.04183E+04 -1.73029E+04  1.75211E+04 -8.51416E+03
  1.60184E+04  1.13176E+03  1.22446E+04  4.08250E+03  6.88170E+03  7.00817E+02  8.06500E+03 -1.90418E+03
  1.50015E+04  2.99974E+03  1.53845E+04  1.27677E+04  1.11445E+04  2.67534E+04 -3.77114E+03  2.91139E+04
 -1.85054E+04  2.38781E+04 -2.74930E+04  1.19981E+04 -2.98955E+04 -1.45140E+03 -2.48115E+04 -1.59054E+04
 -1.05423E+04 -2.48851E+04  7.75247E+03 -2.07062E+04  1.84843E+04 -1.20189E+04  1.73180E+04  4.02842E+03
  7.62283E+03  1.22273E+04 -8.80971E+03  1.17247E+04 -1.50817E+04  3.47065E+03 -1.12722E+04 -9.35231E+03
 -1.26153E+03 -1.29912E+04  6.89871E+03 -1.03371E+04  9.49982E+03 -1.34749E+03  2.64742E+03  4.80830E+03
 -6.52145E+03  2.32403E+03 -4.73671E+03 -4.96124E+03  7.58232E+02 -1.08634E+04  9.06187E+03 -1.05605E+04
  1.35118E+04 -6.22878E+03  1.49916E+04  3.14832E+03  1.23844E+04  1.10738E+04  6.21272E+03  1.73491E+04
 -2.43520E+03  1.76693E+04 -1.12268E+04  1.20161E+04 -1.34758E+04  2.76098E+03 -9.67407E+03 -2.59587E+03
 -5.67137E+03 -4.09539E+03 -2.08644E+03  1.21566E+03 -1.91682E+03  1.53698E+03 -4.18524E+03  2.48193E+03
 -8.81240E+03 -8.97925E+02 -9.40761E+03 -8.10555E+03 -3.58435E+03 -1.45489E+04  4.39580E+03 -9.56276E+03
  7.52489E+03 -3.61592E+03  5.80623E+03  2.93698E+03  1.24400E+03  2.72403E+03 -4.18744E+03  3.71898E+02
 -4.69722E+03 -5.41584E+03  1.86943E+02 -8.41340E+03  4.21532E+03 -9.16081E+03  1.17562E+04 -5.22014E+03
  1.30990E+04  3.14504E+02  1.05753E+04  6.76952E+03  2.70946E+03  9.48960E+03 -4.76606E+03  9.73888E+03
 -7.47916E+03  2.93011E+03 -3.59401E+03 -2.46924E+03  1.44289E+03 -3.32588E+03  4.93053E+03 -7.38680E+02
  4.70450E+03  3.33542E+03  1.87670E+03  7.35997E+03 -4.36047E+03  7.54497E+03 -9.55136E+03  3.05470E+03
 -6.16813E+03 -3.74800E+03 -3.44689E+02 -7.76184E+03  3.96296E+03 -3.54820E+03  5.56486E+03  1.96474E+03
  1.33949E+03  3.41753E+03 -3.10032E+03  5.17320E+03 -5.98706E+03  3.56414E+03 -5.09838E+03 -1.23184E+03
 -3.16105E+03 -6.28663E+03  1.64765E+03 -7.58053E+03  6.99128E+03 -5.60494E+03  6.89115E+03  1.27601E+03
  5.35888E+03  6.19159E+03 -5.05754E+02  8.32837E+03 -5.36779E+03  4.54356E+03 -5.99973E+03 -1.90058E+02
 -6.51637E+03 -5.26829E+03 -1.27607E+03 -5.91350E+03  2.49137E+03 -5.46615E+03  2.86873E+03 -3.20347E+03
  2.61851E+03  9.65191E+02  9.99641E+02  1.99344E+03  6.18270E+02  2.63651E+02  2.93247E+02 -2.17631E+03
  4.52954E+03 -1.09720E+03  6.93520E+03  6.55672E+02  6.21758E+03  3.43574E+03  5.67159E+03  8.44345E+03
 -2.05470E+03  1.04460E+04 -9.38912E+03  7.93828E+03 -1.11676E+04  1.61985E+03 -8.60817E+03 -3.31381E+03
 -4.47602E+03 -7.77340E+03 -2.34790E+02 -7.60341E+03  1.74575E+03 -3.68110E+03  2.15188E+03 -2.87764E+03
  1.10643E+03 -2.27215E+03  8.97042E+02 -2.33854E+03  2.18960E+03 -9.66520E+02  3.69103E+03 -2.61471E+02
  6.33903E+03  2.02682E+03  1.16769E+03  2.92732E+03 -2.84174E+03  2.86310E+03 -4.78405E+03  3.60659E+03
 -6.17721E+03 -1.45885E+03 -2.07296E+03 -3.56382E+03  5.15424E+02 -5.32856E+03  4.11075E+03 -5.68959E+03
  6.38519E+03 -4.45944E+03  8.30572E+03 -3.74579E+01  5.63126E+03  4.30001E+03  9.34179E+02  6.11275E+03
 -2.38201E+03  5.56508E+03 -4.11921E+03  1.74100E+03 -2.81941E+03 -2.43018E+02 -1.63522E+03 -8.01647E+02
 -8.00580E+02  1.24242E+03 -2.27627E+02  2.73767E+03 -2.39564E+03  1.95517E+03 -3.45162E+03  2.05917E+02
 -2.60647E+03 -4.20246E+03  8.15959E+01 -6.19166E+03  3.32864E+03 -5.33616E+03  4.97899E+03 -1.19523E+03
  4.29594E+03  1.67725E+03  2.21582E+03  4.06477E+03 -5.65814E+02  5.53626E+03 -3.53230E+03  2.82863E+03
 -3.75236E+03 -5.46620E+02 -3.32618E+03 -3.20078E+03 -5.12232E+01 -3.31789E+03  2.53632E+03 -3.62942E+03
  3.99840E+03 -2.15846E+03  1.68283E+03  9.24112E+02  8.52196E+02  3.10584E+03  3.78153E+02  4.09478E+01
  2.49886E+03  1.15563E+03  7.21830E+02  2.41610E+03  9.88950E+02  2.04342E+03  1.84739E+03  2.76654E+03
 -1.99035E+03  3.05938E+03 -3.98256E+03  4.47926E+03 -3.42496E+03  7.02679E+02 -4.87622E+03 -9.59883E+02
 -2.58728E+03 -4.74383E+03  5.11833E+00 -5.75009E+03  2.08402E+03 -2.60856E+03  3.96049E+03 -8.79398E+02
  1.73501E+03  2.47760E+03  1.35745E+03  2.68591E+03 -6.15313E+02  8.84009E+02 -1.66696E+03  2.91978E+02
 -4.63687E+02 -1.20250E+03  2.05368E+03 -2.05990E+03 -4.00515E+02 -2.65064E+03  2.72385E+03  8.23664E+02
  2.10234E+02  9.77252E+02 -1.48148E+02  1.69334E+02 -1.92310E+02 -7.71550E+02  1.87139E+03 -1.82258E+03
  3.85583E+02  1.58403E+01  1.93619E+03  1.19534E+03 -2.71805E+02  1.39645E+03 -1.06581E+03  3.96629E+03
 -2.33619E+03  1.77724E+03 -2.06087E+03  4.85559E+02 -3.51222E+03 -1.61012E+03 -4.38270E+02 -2.28370E+03
 -9.51626E+01 -1.55653E+03  4.86018E+02 -1.26325E+03  6.07441E+02  1.35818E+03 -2.31217E+02  2.11500E+03
 -1.31969E+03  1.25754E+03 -1.28209E+03 -9.40958E+02 -1.42943E+03 -2.53663E+03 -9.93970E+02 -2.03429E+03
  1.86692E+02 -7.91752E+02  1.95853E+03 -4.30721E+02  2.33950E+03 -2.32248E+02  5.12204E+02  1.63936E+03
 -1.34016E+03  7.46320E+01 -7.66333E+02 -1.15434E+03  1.95772E+03 -1.93254E+03  2.06152E+03 -4.03436E+02
  2.39934E+03  6.89442E+02  2.08611E+03  1.31379E+03  1.06859E+03  2.56246E+03 -2.82884E+01  2.45117E+03
 -1.27587E+03  9.39329E+01 -1.80454E+03 -1.24357E+03 -5.27659E+02 -7.51631E+02  1.35650E+03 -9.59308E+02
  2.59096E+03 -9.98239E+02  2.49942E+02  8.06741E+02  1.77150E+02  2.00796E+03  1.13725E+03  1.78614E+02
 -6.17712E+02  1.04154E+03 -2.80070E+02  8.18611E+02 -7.94919E+02  1.23249E+03 -2.65381E+02  2.66488E+02
 -8.17053E+02  1.27475E+01 -9.59361E+02  8.96399E+02 -1.82504E+03 -5.70648E+02 -2.32157E+03  7.57857E+01
 -6.99912E+02 -1.85083E+03  8.74834E+02 -2.93286E+03  2.59022E+03 -3.04070E+03  2.87880E+03 -7.75154E+02
  2.20022E+03 -2.56377E+01  8.28821E+02  1.07554E+03 -6.95765E+02  2.53580E+03 -5.01999E+02  7.80311E+02
 -2.72105E+03  8.66468E+01 -4.36783E+02  2.42706E+02  9.75666E+02  4.69380E+02 -8.65597E+02 -6.96718E+01
 -1.24652E+03 -6.38143E+02 -6.36492E+02  5.08541E+02 -1.54644E+02 -8.50368E+02 -1.40211E+02  1.82085E+02
  1.76060E+03 -2.05397E+03 -2.04482E+01 -3.88024E+02  1.07755E+03  5.14897E+02 -1.52204E+03  2.21095E+03
 -1.76087E+03  1.64780E+03 -9.78008E+02  8.93192E+02 -2.10239E+03 -7.06339E+01 -1.85963E+03 -8.10614E+02
  2.23292E+02 -1.53761E+03 -1.51343E+02 -1.17328E+03  9.68976E-01 -7.36501E+01  1.45091E+03  1.53019E+01
  2.49364E+01  9.67578E+02  2.18502E+02  9.52648E+02 -6.02098E+02  5.53316E+02  3.11365E+02 -5.58022E+01
  7.77395E+02 -2.70881E+02  1.08645E+03  3.35039E+02 -9.09282E+02  1.48279E+03 -3.10297E+02 -2.25734E+02
 -4.44715E+01  4.70610E+02 -4.29456E+01  2.29947E+02 -4.67242E+02 -6.31104E+02 -3.92995E+02 -3.81761E+02
  6.54759E+02 -8.76530E+02  7.49639E+02 -1.65231E+02  1.10859E+03 -1.08310E+03  7.70675E+01  8.19928E+02
  9.69548E+02  7.52116E+02  3.67301E+02  6.84592E+01 -8.33814E+02  3.81346E+02 -1.65260E+03  9.66510E+02
  6.14413E+02 -7.49721E+02 -4.98398E+02 -1.07297E+03 -2.56141E+02 -4.86427E+02 -2.16943E+03 -6.41068E+02
 -1.62155E+03  8.53696E+02 -2.00473E+02 -9.81619E+01 -4.27162E+02 -2.77182E+03  4.89837E+02 -4.47234E+02
  1.15213E+03  4.08486E+02 -7.49500E+02  3.97105E+02  4.11083E+02  8.03284E+02 -1.49347E+02  2.13483E+02
