 $NMID ID='MM_0lb_SNR200_9hz_g45_27.RAW', FMTDAT='(8E13.5)'
 TRAMP=1., VOLUME=1. $END
  3.11035E+05 -6.15750E+02  3.38119E+05  2.51828E+05  8.55070E+04  3.39586E+05 -1.32857E+05  2.51176E+05
 -1.90533E+05  8.38300E+04 -1.11694E+05 -3.22168E+04  5.13460E+02 -5.06712E+04  5.28799E+04 -6.84669E+02
  3.63359E+04  5.38286E+04 -1.60984E+04  7.51525E+04 -6.11181E+04  6.51249E+04 -8.45426E+04  3.20906E+04
 -8.23253E+04 -1.26814E+04 -6.02820E+04 -5.18897E+04 -1.49269E+04 -7.13658E+04  2.83575E+04 -4.62544E+04
  4.06029E+04  5.39474E+03  1.62877E+04  4.82000E+04 -3.51932E+04  4.62015E+04 -6.76291E+04 -2.38637E+03
 -5.56146E+04 -5.73473E+04 -9.12170E+03 -7.89216E+04  3.47270E+04 -5.75192E+04  5.03706E+04 -1.73193E+04
  4.65074E+04  1.16646E+04  3.30186E+04  2.52596E+04  1.53848E+04  2.98311E+04 -6.34012E+03  2.72838E+04
 -2.32998E+04  1.29608E+04 -1.71903E+04 -5.05875E+03  7.91856E+03 -8.07384E+03  2.37999E+04  1.44796E+04
  6.94928E+03  3.70399E+04 -3.48843E+04  3.81196E+04 -6.43690E+04  3.34693E+03 -5.73970E+04 -4.43229E+04
 -1.12771E+04 -6.64264E+04  4.11491E+04 -4.61385E+04  6.03702E+04 -1.93859E+03  3.73718E+04  3.39216E+04
 -5.48821E+03  3.98295E+04 -3.21835E+04  1.83285E+04 -3.36463E+04 -3.43013E+03 -1.84744E+04 -1.13457E+04
 -9.24173E+03 -1.42708E+04 -2.56333E+02 -2.11728E+04  8.58526E+03 -2.23276E+04  1.65137E+04 -1.21756E+04
  1.04109E+04  7.00799E+03 -1.05844E+04  1.36116E+04 -2.17539E+04 -7.17383E+03 -7.84000E+03 -3.57317E+04
  2.40772E+04 -4.61346E+04  5.15675E+04 -2.12340E+04  4.89877E+04  2.12763E+04  1.64504E+04  4.62576E+04
 -1.57237E+04  3.59098E+04 -2.71892E+04  2.43633E+03 -1.32230E+04 -2.92700E+04  2.25451E+04 -3.70507E+04
  4.50089E+04 -1.11779E+04  3.85351E+04  2.41855E+04  2.04792E+04  5.03013E+04 -7.62044E+03  5.48621E+04
 -3.49815E+04  3.79280E+04 -4.75145E+04  1.24801E+04 -4.66601E+04 -1.83820E+04 -2.57069E+04 -4.29836E+04
  8.52637E+03 -4.18752E+04  3.44411E+04 -1.77972E+04  3.05325E+04  1.19108E+04  4.90376E+03  2.10368E+04
 -1.37951E+04  8.19594E+03 -1.18697E+04 -6.60420E+03  6.48163E+03 -1.33217E+04  1.95723E+04  5.16643E+03
  1.39147E+04  2.25662E+04 -5.77787E+03  2.65192E+04 -2.21961E+04  1.38839E+04 -3.12805E+04 -4.81855E+03
 -2.53338E+04 -1.76254E+04 -1.18975E+04 -2.65137E+04  4.45906E+03 -2.45801E+04  1.88256E+04 -2.29295E+04
  3.19211E+04 -1.43196E+04  3.70511E+04  4.84832E+03  2.76760E+04  2.34838E+04  2.60015E+03  4.08337E+04
 -2.09720E+04  3.33583E+04 -2.99671E+04  1.27194E+04 -2.36757E+04 -1.00401E+04 -4.94929E+03 -1.23718E+04
  1.43047E+03 -4.40981E+02 -7.86330E+03  8.31243E+03 -2.11783E+04  4.06767E+03 -1.97574E+04 -9.55383E+03
 -1.27405E+04 -2.36467E+04  6.34576E+03 -2.73243E+04  1.85489E+04 -1.87695E+04  2.32123E+04 -7.87685E+02
  1.44916E+04  1.48800E+04 -4.48221E+02  2.17026E+04 -1.56530E+04  1.37153E+04 -2.12529E+04 -6.17986E+03
 -1.73895E+04 -2.05197E+04 -6.79559E+02 -2.76833E+04  1.31120E+04 -2.44730E+04  2.13319E+04 -1.00411E+04
  2.07025E+04 -1.94018E+03  1.57722E+04  6.15303E+03  9.33346E+03 -3.49958E+02  1.25678E+04 -9.01272E+02
  2.17109E+04  1.65056E+03  2.38760E+04  1.76143E+04  1.78547E+04  3.71627E+04 -1.19457E+03  4.46019E+04
 -2.51065E+04  3.74068E+04 -4.06262E+04  1.92020E+04 -4.40990E+04 -3.52033E+03 -3.58845E+04 -2.58543E+04
 -1.38027E+04 -3.62185E+04  1.37818E+04 -3.20113E+04  2.74414E+04 -1.57949E+04  2.41411E+04  6.44514E+03
  7.09057E+03  1.79624E+04 -1.26092E+04  1.56949E+04 -2.08561E+04  2.70479E+03 -1.53394E+04 -1.22713E+04
  2.45989E+02 -1.92310E+04  1.12809E+04 -1.36743E+04  1.37846E+04  1.41365E+01  4.43498E+03  9.04218E+03
 -8.51926E+03  3.56844E+03 -9.07741E+03 -7.39875E+03 -2.21271E+03 -1.88553E+04  1.16108E+04 -1.92381E+04
  2.14780E+04 -1.07735E+04  2.47745E+04  3.15318E+03  2.27232E+04  1.95424E+04  1.13503E+04  2.87477E+04
 -7.13204E+03  3.03930E+04 -2.08210E+04  1.79893E+04 -2.19353E+04  3.27628E+03 -1.56979E+04 -4.38903E+03
 -6.32182E+03 -6.46442E+03 -3.49776E+02  1.63647E+03 -3.72918E+03  5.42834E+03 -8.43258E+03  6.50402E+03
 -1.44907E+04 -1.02640E+03 -1.36584E+04 -1.19917E+04 -5.95733E+03 -1.91847E+04  6.79370E+03 -1.53966E+04
  1.21854E+04 -6.84827E+03  9.31816E+03  4.05320E+03  7.74046E+02  7.90143E+03 -8.13992E+03  5.19205E+02
 -7.04619E+03 -9.81692E+03 -1.68768E+03 -1.50541E+04  1.10827E+04 -1.57194E+04  1.95692E+04 -8.65361E+03
  2.41821E+04  1.87634E+03  1.69436E+04  1.26767E+04  1.43908E+03  1.91474E+04 -9.72952E+03  1.44919E+04
 -1.35342E+04  4.51058E+03 -5.74344E+03 -2.40400E+03  3.59822E+03 -4.35847E+03  8.20097E+03 -2.23767E+03
  6.83072E+03  7.31688E+03 -1.50851E+03  1.28002E+04 -9.47236E+03  1.19542E+04 -1.47545E+04  3.38593E+03
 -1.02045E+04 -8.80800E+03 -1.29214E+03 -1.23483E+04  9.13763E+03 -7.26152E+03  7.59420E+03  4.63009E+03
  3.80340E+03  1.07889E+04 -7.42474E+03  1.28416E+04 -1.56472E+04  3.77469E+03 -1.42406E+04 -4.14077E+03
 -7.07273E+03 -1.50599E+04  3.34063E+03 -1.73853E+04  1.52008E+04 -1.08994E+04  1.62847E+04  2.29804E+03
  9.57559E+03  1.40947E+04 -1.22748E+03  1.51262E+04 -1.32852E+04  8.33822E+03 -1.20122E+04 -2.89803E+03
 -1.05348E+04 -9.81748E+03 -1.27313E+03 -1.12177E+04  6.01623E+03 -7.46156E+03  7.59128E+03 -3.88286E+03
  4.60753E+03  1.86982E+03 -6.42938E+02  2.97994E+03 -1.81128E+02 -3.23285E+03  2.51921E+03 -6.50015E+03
  1.11333E+04 -5.56291E+03  1.64409E+04  2.07654E+03  1.51494E+04  9.97058E+03  1.02487E+04  2.17444E+04
 -5.34019E+03  2.26645E+04 -1.82748E+04  1.72475E+04 -2.49430E+04  3.27640E+03 -2.13429E+04 -9.09163E+03
 -9.55621E+03 -1.61738E+04 -1.59813E+03 -1.52634E+04  5.03793E+03 -8.50552E+03  5.21242E+03 -5.07965E+03
  5.55383E+03 -2.83612E+03  5.18602E+03 -3.65915E+03  6.18713E+03 -2.99083E+03  8.09848E+03 -2.81874E+02
  1.04435E+04  3.29699E+03  5.02057E+03  9.68904E+03 -2.63222E+03  1.02420E+04 -1.17742E+04  6.77315E+03
 -1.50967E+04 -8.54648E+02 -8.11942E+03 -8.85116E+03 -2.36734E+03 -1.52153E+04  8.97742E+03 -1.62701E+04
  1.74291E+04 -7.61478E+03  1.88058E+04  1.79642E+03  1.27247E+04  1.32617E+04  1.59829E+03  1.60543E+04
 -6.87806E+03  1.33356E+04 -1.15403E+04  4.74234E+03 -6.17584E+03 -7.29724E+02 -2.23898E+03 -1.64000E+03
 -1.31334E+03 -6.12806E+02 -3.87197E+03  2.43545E+03 -6.08720E+03  3.27012E+03 -9.47129E+03  4.46231E+01
 -6.30687E+03 -1.00322E+04 -2.69450E+02 -1.43607E+04  9.97735E+03 -1.40313E+04  1.40228E+04 -3.64288E+03
  1.33381E+04  6.33233E+03  7.56748E+03  1.25999E+04 -2.35988E+03  1.44963E+04 -1.15720E+04  9.20432E+03
 -1.35498E+04  4.45511E+02 -1.07491E+04 -8.63310E+03 -8.89716E+02 -1.19236E+04  7.68933E+03 -7.91462E+03
  9.05617E+03 -1.66249E+03  5.87395E+03  1.77704E+03  1.82417E+01  4.83487E+03  2.29401E+03  1.43883E+03
  1.94630E+03 -7.13833E+02  4.89558E+03  1.13784E+03  5.62353E+03  3.71965E+03  3.85056E+03  8.00678E+03
 -2.61333E+03  1.19066E+04 -1.04194E+04  9.80067E+03 -1.49577E+04  3.81285E+03 -1.50373E+04 -7.18038E+03
 -9.18466E+03 -1.45019E+04  3.19514E+03 -1.72798E+04  9.05008E+03 -9.52723E+03  1.19272E+04 -3.46225E+03
  1.00468E+04  6.34869E+03  1.59342E+03  7.73786E+03 -3.46606E+03  4.73748E+03 -4.83994E+03  3.43836E+02
 -2.33037E+03 -5.69568E+03  4.02310E+03 -5.92607E+03  6.51288E+03 -3.49232E+03  6.03231E+03  6.25241E+02
  4.27564E+03  4.93744E+03  3.01884E+03  1.73357E+03 -1.61333E+03  1.73041E+03 -2.91701E+02 -3.83663E+02
  2.69095E+03 -4.05340E+02  5.33449E+03  2.32976E+03  1.52651E+03  7.71805E+03 -1.98943E+03  1.06851E+04
 -7.58808E+03  6.33926E+03 -1.15804E+04  1.71125E+03 -8.27174E+03 -3.79888E+03 -2.77691E+03 -6.92042E+03
  6.98219E+02 -4.87620E+03  4.12874E+03 -4.04398E+03  2.62188E+03  1.78508E+03 -1.79996E+03  3.40325E+03
 -6.79954E+03  3.95633E+03 -7.21926E+03 -3.25134E+03 -3.32823E+03 -9.20055E+03  1.20835E+03 -8.06355E+03
  5.31862E+03 -5.18308E+03  4.83708E+03 -6.41068E+02  4.77703E+03  2.51804E+03 -1.34293E+03  3.55029E+03
 -3.16512E+03  1.94767E+03 -4.63485E+03 -2.43827E+03  1.24413E+03 -6.19905E+03  7.65709E+03 -5.59070E+03
  9.95605E+03  5.12443E+02  7.48169E+03  6.39941E+03  1.47775E+03  8.37552E+03 -3.63962E+03  1.02398E+04
 -6.03052E+03  3.37675E+03 -9.18050E+03 -2.14944E+03 -5.41702E+03 -7.41669E+03  2.51407E+03 -7.00810E+03
  5.09709E+03 -2.66229E+03  6.50114E+03  3.44425E+03  2.31814E+03  5.17955E+03 -1.02015E+03  5.55995E+03
 -3.04360E+03  2.87122E+03 -3.39786E+03  2.62843E+03 -2.10914E+03  1.28215E+03 -2.00898E+03  1.78711E+03
 -1.66390E+03  3.22217E+03 -6.60567E+03  3.72800E+03 -8.43117E+03  1.07224E+03 -1.19536E+04 -6.66379E+03
 -6.01860E+03 -1.25519E+04  2.86773E+03 -1.58015E+04  8.34721E+03 -1.16806E+04  1.46663E+04 -4.71874E+03
  1.34941E+04  1.41875E+03  7.91113E+03  9.89189E+03  5.10743E+02  9.24784E+03 -4.28216E+03  7.41862E+03
 -5.34175E+03  1.25809E+03 -3.99278E+03 -9.73713E+02 -2.46684E+03 -8.94115E+01 -1.85324E+03  6.48127E+02
 -2.47384E+03  3.08488E+02 -3.40819E+03 -2.50688E+02 -7.43420E+02 -2.23516E+03  5.29449E+01 -3.36142E+03
  4.25791E+03 -2.58831E+03  6.41289E+03  6.40056E+02  6.79975E+03  4.96089E+03  3.34024E+03  9.66944E+03
 -4.27506E+03  1.11193E+04 -1.05866E+04  5.92941E+03 -1.13661E+04 -5.19371E+02 -9.18730E+03 -7.52528E+03
 -4.28736E+03 -1.08874E+04  3.26429E+03 -9.56730E+03  6.19503E+03 -5.08359E+03  5.82628E+03 -1.03797E+02
  3.11930E+03  2.20474E+03 -2.20347E+03  2.13029E+03 -2.60779E+03 -7.82386E+01 -1.01294E+03 -2.88852E+03
  1.21885E+03 -8.51775E+02  3.25908E+03  2.16432E+03  1.82079E+03  3.34300E+03  1.76990E+02  6.55113E+03
 -6.93857E+03  4.71532E+03 -7.06325E+03  7.64661E+02 -6.33943E+03 -5.18383E+03 -1.85221E+03 -8.70266E+03
  5.57014E+03 -7.71861E+03  9.52859E+03 -8.59318E+02  7.97325E+03  1.93924E+03  3.78498E+03  5.14803E+03
 -1.21019E+02  7.79345E+03 -3.65967E+03  4.58228E+03 -3.33307E+03  3.23140E+03 -3.06592E+03 -2.79757E+02
 -1.56636E+03  6.06840E+02 -1.85266E+03  1.27535E+03 -2.48330E+03  1.05749E+03 -7.24270E+03 -4.16282E+02
 -4.29524E+03 -3.68612E+03 -1.96059E+03 -7.91124E+03  2.75247E+03 -7.13284E+03  5.44280E+03 -3.56269E+03
  7.67768E+03  2.01664E+03  4.58467E+03  4.43246E+03 -2.17136E+03  6.86423E+03 -5.20613E+03  3.75800E+03
