 $NMID ID='MM_0lb_SNR200_19hz_g60_6.RAW', FMTDAT='(8E13.5)'
 TRAMP=1., VOLUME=1. $END
  3.09905E+05 -3.76613E+02  3.37054E+05  2.51682E+05  8.46023E+04  3.37883E+05 -1.32511E+05  2.50779E+05
 -1.89950E+05  8.22848E+04 -1.11265E+05 -3.18657E+04  1.11778E+02 -5.01844E+04  5.45515E+04  5.59302E+02
  3.53658E+04  5.29028E+04 -1.72420E+04  7.46957E+04 -6.12934E+04  6.36960E+04 -8.27646E+04  3.21895E+04
 -8.04812E+04 -1.13220E+04 -5.65798E+04 -5.07805E+04 -1.43765E+04 -6.96177E+04  2.61242E+04 -4.63650E+04
  4.05962E+04  5.16862E+03  1.61320E+04  4.80050E+04 -3.53711E+04  4.72968E+04 -6.59804E+04 -8.24079E+02
 -5.30065E+04 -5.57121E+04 -6.28647E+03 -7.60584E+04  3.27467E+04 -5.40748E+04  4.79639E+04 -1.76723E+04
  4.22666E+04  1.08352E+04  3.14376E+04  2.52117E+04  1.58402E+04  2.98172E+04 -4.31663E+03  2.74064E+04
 -2.22144E+04  1.17252E+04 -1.78960E+04 -4.55493E+03  5.43631E+03 -7.67462E+03  2.21899E+04  1.14203E+04
  6.86249E+03  3.41205E+04 -3.03624E+04  3.45327E+04 -6.16070E+04  2.76874E+03 -5.50227E+04 -4.08509E+04
 -1.20014E+04 -6.17633E+04  3.92087E+04 -4.44758E+04  5.68053E+04 -7.73634E+02  3.28857E+04  3.02345E+04
 -6.89544E+03  3.53558E+04 -2.98990E+04  1.45948E+04 -2.93146E+04 -5.31698E+03 -1.47081E+04 -1.09284E+04
 -7.56222E+03 -1.16898E+04 -9.03127E+02 -1.78631E+04  6.61004E+03 -2.27381E+04  1.50063E+04 -1.29875E+04
  1.06630E+04  5.15423E+03 -7.50944E+03  1.31626E+04 -1.83919E+04 -3.43468E+03 -9.29870E+03 -3.27325E+04
  2.10698E+04 -4.14944E+04  4.64736E+04 -1.88081E+04  4.43556E+04  1.76404E+04  1.39965E+04  4.34957E+04
 -1.52560E+04  3.23488E+04 -2.34452E+04  1.56382E+03 -1.00048E+04 -2.63039E+04  2.06319E+04 -3.23429E+04
  3.89008E+04 -8.89677E+03  3.22540E+04  2.37548E+04  1.63047E+04  4.47795E+04 -8.15838E+03  4.67984E+04
 -2.95020E+04  3.14420E+04 -3.87984E+04  8.65739E+03 -4.00960E+04 -1.55435E+04 -2.18889E+04 -3.52212E+04
  7.48722E+03 -3.68024E+04  3.04294E+04 -1.29589E+04  2.72202E+04  1.06320E+04  3.51272E+03  1.82023E+04
 -1.30628E+04  7.17284E+03 -1.05780E+04 -8.04128E+03  4.79386E+03 -1.04280E+04  1.81013E+04  7.27852E+03
  1.27063E+04  2.26428E+04 -5.83017E+03  2.38900E+04 -2.10426E+04  1.09157E+04 -2.68644E+04 -5.85571E+03
 -1.81002E+04 -1.65263E+04 -5.39858E+03 -1.92356E+04  2.28463E+03 -1.60507E+04  1.41731E+04 -1.54525E+04
  2.30985E+04 -1.24091E+04  3.01050E+04  1.46267E+03  2.20919E+04  1.75117E+04  4.21580E+03  3.33410E+04
 -1.70089E+04  2.86242E+04 -2.62554E+04  9.88523E+03 -2.03678E+04 -1.05738E+04 -3.89621E+03 -1.38674E+04
  2.78368E+03 -4.66330E+03 -3.92941E+03  6.56189E+03 -1.46447E+04  6.09819E+03 -1.46217E+04 -4.63334E+03
 -8.91321E+03 -1.52527E+04  4.72152E+03 -2.05176E+04  1.37506E+04 -1.53275E+04  1.43384E+04 -9.93931E+02
  8.18334E+03  1.20637E+04 -7.90005E+02  1.60563E+04 -1.07393E+04  8.33403E+03 -1.61952E+04 -3.99345E+03
 -1.33930E+04 -1.54203E+04 -8.68974E+02 -2.01936E+04  9.52794E+03 -1.67091E+04  1.67171E+04 -8.04794E+03
  1.52925E+04  7.90773E+02  1.02066E+04  3.94482E+03  5.40510E+03  2.88664E+02  7.09306E+03 -6.36202E+02
  1.45808E+04  2.21763E+03  1.50467E+04  1.37204E+04  9.71723E+03  2.61500E+04 -3.02574E+03  2.82747E+04
 -1.77577E+04  2.16843E+04 -2.56865E+04  1.10131E+04 -2.66534E+04 -1.82822E+03 -2.19022E+04 -1.57285E+04
 -1.07235E+04 -2.07754E+04  7.25663E+03 -2.05785E+04  1.74766E+04 -1.08899E+04  1.62957E+04  4.25035E+03
  6.40726E+03  1.16988E+04 -7.12550E+03  1.07641E+04 -1.32451E+04  3.27601E+03 -1.08076E+04 -8.62239E+03
  7.03208E+02 -1.29038E+04  6.39856E+03 -9.13072E+03  8.83260E+03  3.26880E+02  1.99136E+03  4.27418E+03
 -5.07030E+03  1.87925E+03 -3.92312E+03 -4.65928E+03  9.81453E+02 -1.01960E+04  8.89939E+03 -1.10245E+04
  1.33549E+04 -4.50023E+03  1.25620E+04  2.52439E+03  1.18707E+04  1.04965E+04  6.47386E+03  1.47190E+04
 -2.04520E+03  1.64689E+04 -9.88766E+03  1.06880E+04 -1.19158E+04  2.38406E+03 -8.35888E+03 -2.12834E+03
 -4.45400E+03 -3.56872E+03 -5.88639E+02  1.50569E+03 -2.06423E+03  2.86156E+03 -3.60120E+03  4.22152E+03
 -9.11200E+03 -4.56668E+02 -9.22049E+03 -8.40691E+03 -2.84426E+03 -1.20946E+04  3.70035E+03 -9.17536E+03
  7.65668E+03 -5.27272E+03  6.13868E+03  1.39681E+03  5.56179E+02  3.18589E+03 -3.44528E+03  8.36336E+01
 -3.68173E+03 -5.63247E+03 -5.58839E+02 -7.03970E+03  4.23923E+03 -9.57545E+03  1.02329E+04 -4.24041E+03
  1.28432E+04  1.10502E+03  9.09636E+03  6.72748E+03  5.54509E+02  9.71933E+03 -5.76209E+03  8.50388E+03
 -7.02760E+03  3.86502E+03 -3.52422E+03 -1.08832E+03  3.57973E+02 -2.19642E+03  4.71349E+03 -1.33586E+03
  4.46535E+03  3.58606E+03  2.10112E+03  6.83542E+03 -5.07469E+03  5.83328E+03 -7.73584E+03  1.38600E+03
 -4.95502E+03 -4.67825E+03  4.35697E+02 -7.22027E+03  3.76652E+03 -3.03791E+03  4.55455E+03  1.89968E+03
  5.47943E+02  4.23557E+03 -4.29048E+03  5.78204E+03 -4.72691E+03  3.18637E+03 -5.47036E+03 -1.58682E+02
 -2.75479E+03 -6.45083E+03  6.65841E+02 -7.68575E+03  6.07360E+03 -4.72629E+03  7.16722E+03 -3.14086E+02
  4.54719E+03  6.23194E+03  4.82747E+01  6.24667E+03 -4.87066E+03  4.19874E+03 -4.82674E+03  2.10223E+02
 -6.16709E+03 -4.97806E+03 -1.58741E+03 -5.53903E+03  3.59632E+03 -5.49629E+03  2.54235E+03 -2.88757E+03
  2.92525E+03  2.93208E+02 -1.11971E+03  1.07514E+03  3.51549E+02 -6.35236E+02  5.31110E+02 -1.69002E+03
  4.61988E+03 -3.54437E+02  6.52366E+03  7.90072E+02  6.06988E+03  2.96547E+03  6.56669E+03  7.74534E+03
 -1.29988E+03  7.74499E+03 -7.08416E+03  6.81766E+03 -9.58460E+03  1.07951E+03 -8.16253E+03 -2.97777E+03
 -3.79457E+03 -7.33774E+03 -1.18690E+03 -5.38454E+03  2.39508E+03 -2.28629E+03  1.57220E+03 -2.22683E+03
  1.17386E+03 -1.20949E+03  1.91311E+03 -1.66055E+03  3.86991E+03 -1.38604E+03  3.69627E+03 -4.02179E+02
  4.86625E+03  1.90252E+03  7.32672E+02  4.20499E+03 -2.90366E+03  2.96597E+03 -4.76056E+03  3.08059E+03
 -4.83227E+03 -4.50635E+02 -1.48763E+03 -2.81254E+03  7.72166E+02 -4.43453E+03  3.28667E+03 -5.95384E+03
  5.65409E+03 -2.72644E+03  5.89282E+03  2.69491E+02  5.50721E+03  4.71408E+03  1.98553E+03  5.97286E+03
 -3.08848E+03  4.59562E+03 -2.65316E+03  8.43178E+02 -9.72143E+02 -1.04882E+03  1.17634E+03 -6.55420E+02
 -9.65001E+02  9.75937E+02 -1.02477E+03  2.72214E+03 -2.64493E+03  5.02857E+02 -4.77426E+03 -5.82218E+02
 -1.31675E+03 -3.97966E+03  5.34352E+02 -4.31878E+03  2.24120E+03 -4.29515E+03  3.06336E+03 -1.17595E+03
  4.41972E+03  2.05017E+03  2.55905E+03  2.82199E+03 -9.55848E+02  3.49877E+03 -2.25797E+03  2.92805E+03
 -3.96439E+03  1.03161E+03 -3.31772E+03 -3.33581E+03  3.51502E+02 -3.55823E+03  2.11441E+03 -2.23138E+03
  3.22686E+03 -8.57538E+02  2.11938E+03  8.98722E+02  8.30460E+02  7.20538E+01  2.07506E+03  1.33057E+03
  1.15032E+03  4.80527E+02  7.09003E+02  5.26309E+02  1.40153E+03  1.72617E+03  1.60776E+03  1.20418E+03
 -5.65078E+02  2.32500E+03 -2.86516E+03  4.46974E+03 -1.80428E+03  2.22548E+03 -3.86688E+03 -5.12609E+02
 -1.34321E+03 -2.08297E+03  5.99630E+02 -3.81718E+03  2.17968E+03 -2.88743E+03  2.51038E+03 -1.37149E+03
  2.23951E+03  1.77659E+03  4.62213E+02  1.31172E+03 -5.59702E+02  1.64378E+03 -1.68984E+03  9.15363E+01
 -8.09566E+02 -5.69963E+02  5.43705E+02 -1.76618E+03  1.58123E+03 -8.79055E+02  1.41540E+03  4.55399E+01
  1.08922E+03  5.90247E+02  2.49612E+03 -1.00365E+03  6.89611E+02  1.26741E+03  1.29618E+03 -5.43268E+02
  1.37035E+02 -3.70376E+02  1.29448E+03  4.49932E+02  6.45436E+00  2.69860E+03  1.63992E+01  3.53596E+03
 -1.82243E+03  1.03991E+03 -2.98558E+03  5.71087E+02 -1.67549E+03 -7.39631E+02 -7.45998E+02 -1.14997E+03
  1.00542E+01 -1.44866E+03  1.27133E+03 -1.40035E+03  7.63491E+02  9.18964E+02 -8.07515E+02  1.95184E+03
 -2.17607E+03  1.57522E+03 -5.69330E+02 -6.21117E+02 -3.76672E+02 -2.16188E+03  9.19598E+02 -9.43013E+02
  3.45130E+01  2.62722E+02  1.13854E+03  3.96777E+02  2.94482E+03 -1.13311E+02 -3.05924E+02  1.01422E+03
  2.41849E+02  1.21462E+02 -5.44571E+02 -2.84155E+02  1.24520E+03 -2.14423E+02  1.98526E+03 -1.03007E+03
  1.74749E+03 -5.81677E+01  1.86566E+03  5.40868E+02  2.30802E+03  1.85562E+03  7.11524E+02  1.26013E+03
 -2.26019E+03  1.73323E+02 -1.44334E+03 -9.30352E+02 -1.01912E+03 -2.00761E+03 -8.55223E+02 -1.21574E+03
  1.12354E+03 -7.81536E+02  1.08985E+03 -2.07939E+02  6.34443E+02  1.60993E+03  1.21779E+02  5.92447E+02
  2.54209E+02  2.50738E+03 -1.16930E+03  8.20369E+01 -1.34579E+02 -2.28045E+02 -1.43990E+03  5.50533E+02
 -8.32656E+02  1.06162E+03 -2.22888E+03  1.39909E+03 -1.39075E+03  1.97066E+01 -2.72240E+03 -5.79422E+02
 -6.28641E+02 -1.79800E+03  1.98600E+02 -2.10268E+03  4.06042E+02 -1.80504E+03  2.20655E+03 -1.95313E+03
  1.86682E+03  7.39560E+02  1.43461E+03  1.01691E+03 -5.42842E+02  4.62592E+02 -5.80856E+02  6.01535E+02
 -1.34693E+03  1.16983E+03 -4.62818E+02  5.56373E+02 -2.23588E+02  1.41422E+01 -6.46790E+02 -1.40491E+01
 -1.45350E+03 -5.00566E+02 -1.17385E+03 -1.00429E+03  6.99614E+01 -7.78120E+02 -1.29991E+03 -6.43305E+01
  2.40476E+02  4.90771E+02 -8.57140E+02  6.49715E+02  5.21504E+02  1.73813E+03 -1.04984E+03  2.64446E+02
 -1.22142E+02  2.67845E+03 -2.47832E+01  7.02242E+02 -2.18742E+03  8.01625E+02 -4.92965E+02 -1.76366E+03
 -9.85677E+02 -1.09481E+03  4.99340E+02 -1.20694E+03  3.54585E+02 -3.36638E+02  8.46361E+02  4.04188E+02
  8.94143E+02  5.54292E+02 -9.25409E+01 -3.84747E+02  1.27269E+01  9.50775E+02  4.23540E+02 -6.35473E+02
  1.48752E+03  1.53703E+02 -6.45833E+02  7.13101E+02 -1.98757E+02  1.51324E+03  5.60336E+02 -9.90042E+02
 -1.99215E+03  1.31117E+03  4.79723E+01  9.59030E+01  3.22889E+02 -6.62533E+02  1.13665E+03 -9.71287E+02
 -1.38318E+02 -3.94960E+02  2.80287E+02 -2.85166E+02  1.60576E+03 -1.21745E+03  1.71733E+03  2.60175E+02
  1.61217E+03 -2.00361E+02 -1.41243E+03 -2.28713E+02 -2.21878E+02  5.92042E+02 -9.15011E+02 -4.12620E+02
  3.83740E+02  9.68285E+01 -2.79268E+01 -8.07792E+02 -5.32365E+02 -3.95473E+02 -5.73588E+02 -1.32897E+03
 -2.32146E+02  2.55994E+02 -3.58254E+02 -1.26935E+03  1.29100E+03 -5.26420E+02  2.10274E+02  5.35299E+02
  1.22316E+03 -2.81740E+02 -2.02865E+03  5.27944E+02 -8.97434E+01 -3.10078E+02  3.88503E+02  7.87177E+01
