 $NMID ID='MM_0lb_SNR200_7hz_g60_67.RAW', FMTDAT='(8E13.5)'
 TRAMP=1., VOLUME=1. $END
  3.09085E+05  2.26250E+02  3.38000E+05  2.51110E+05  8.56683E+04  3.37996E+05 -1.32979E+05  2.48686E+05
 -1.91325E+05  8.38371E+04 -1.14014E+05 -3.23391E+04 -5.32874E+02 -5.06663E+04  5.18551E+04 -3.66356E+02
  3.59623E+04  5.32839E+04 -1.43980E+04  7.46425E+04 -6.22053E+04  6.26040E+04 -8.63763E+04  3.35649E+04
 -8.38133E+04 -1.09164E+04 -5.90699E+04 -5.30745E+04 -1.47055E+04 -7.27846E+04  2.90082E+04 -4.70339E+04
  4.22340E+04  2.84256E+03  1.78009E+04  4.96976E+04 -3.41128E+04  4.90131E+04 -6.85130E+04 -4.95877E+02
 -5.47476E+04 -5.95506E+04 -8.99709E+03 -8.12591E+04  3.56325E+04 -5.82525E+04  5.02927E+04 -1.73209E+04
  4.70473E+04  1.06467E+04  3.30804E+04  2.80675E+04  1.57809E+04  3.11634E+04 -6.45068E+03  2.97072E+04
 -2.24168E+04  1.12202E+04 -1.90292E+04 -5.92826E+03  8.01265E+03 -5.43155E+03  2.46046E+04  1.33839E+04
  6.47299E+03  3.95771E+04 -3.60349E+04  3.99031E+04 -6.81391E+04  1.76094E+03 -6.03071E+04 -4.61835E+04
 -1.47776E+04 -6.80070E+04  4.19574E+04 -4.92938E+04  6.28133E+04 -2.03019E+03  4.07109E+04  3.39207E+04
 -5.01325E+03  4.08787E+04 -3.18429E+04  2.08806E+04 -3.61237E+04 -3.89676E+03 -1.94036E+04 -1.26820E+04
 -9.61168E+03 -1.58154E+04  1.67894E+02 -1.89601E+04  8.15624E+03 -2.41293E+04  1.73999E+04 -1.32122E+04
  1.17541E+04  6.90407E+03 -1.29035E+04  1.33293E+04 -2.54995E+04 -7.88435E+03 -1.04338E+04 -3.90325E+04
  2.63321E+04 -4.93958E+04  5.40292E+04 -2.16675E+04  4.98576E+04  2.04756E+04  1.91187E+04  4.86833E+04
 -1.69479E+04  3.70142E+04 -2.96633E+04  3.31129E+03 -1.33234E+04 -3.07743E+04  2.12076E+04 -3.86243E+04
  4.51544E+04 -1.38085E+04  4.25342E+04  2.55290E+04  2.38246E+04  5.37068E+04 -9.40759E+03  6.09671E+04
 -3.78045E+04  4.05971E+04 -5.14078E+04  1.06550E+04 -5.31751E+04 -2.02265E+04 -2.83958E+04 -4.46347E+04
  7.80196E+03 -4.43433E+04  3.65684E+04 -1.88919E+04  3.40130E+04  1.13508E+04  3.84707E+03  2.19370E+04
 -1.40839E+04  1.01727E+04 -1.18349E+04 -6.85602E+03  5.26922E+03 -1.14441E+04  1.91803E+04  6.30923E+03
  1.44540E+04  2.22606E+04 -5.79761E+03  2.94462E+04 -2.36462E+04  1.70179E+04 -3.42900E+04 -1.65879E+03
 -2.87071E+04 -1.93210E+04 -1.49263E+04 -2.97365E+04  5.56327E+03 -2.97841E+04  2.30211E+04 -2.59375E+04
  3.44225E+04 -1.48380E+04  4.16435E+04  6.65011E+03  2.80192E+04  2.55558E+04  4.16224E+03  4.40157E+04
 -2.09024E+04  3.65538E+04 -3.08140E+04  1.29144E+04 -2.05021E+04 -1.06814E+04 -7.27158E+03 -1.40007E+04
 -2.49833E+02  4.95680E+02 -9.45169E+03  9.01604E+03 -2.28091E+04  4.34938E+03 -2.22511E+04 -1.07131E+04
 -1.29268E+04 -2.40251E+04  5.63798E+03 -3.11167E+04  2.19093E+04 -2.27544E+04  2.73237E+04 -1.79509E+03
  1.76065E+04  1.81400E+04  1.30443E+02  2.51593E+04 -1.81366E+04  1.46045E+04 -2.76252E+04 -4.85078E+03
 -1.99526E+04 -2.34850E+04 -1.64399E+03 -3.21308E+04  1.39857E+04 -2.59497E+04  2.55525E+04 -1.44996E+04
  2.34095E+04  1.29419E+03  1.79175E+04  4.26855E+03  1.09899E+04  1.77362E+03  1.39860E+04 -2.19674E+03
  2.60968E+04  4.12016E+03  2.94825E+04  1.90987E+04  1.97577E+04  4.27999E+04 -2.93034E+03  5.00393E+04
 -2.92760E+04  4.37313E+04 -4.84470E+04  2.38004E+04 -5.22026E+04 -5.51038E+03 -4.09994E+04 -2.92073E+04
 -1.58616E+04 -4.58743E+04  1.53375E+04 -3.73192E+04  3.07460E+04 -1.55221E+04  2.62693E+04  9.65382E+03
  7.43911E+03  2.10530E+04 -1.31055E+04  1.85274E+04 -2.25242E+04  3.17697E+03 -1.66600E+04 -1.46067E+04
  7.74342E+02 -2.03349E+04  1.30944E+04 -1.68390E+04  1.47917E+04 -1.22769E+03  4.25650E+03  8.81338E+03
 -9.03947E+03  5.33810E+03 -1.16405E+04 -7.95297E+03 -1.73749E+03 -1.98683E+04  1.35635E+04 -2.52477E+04
  2.81305E+04 -1.48413E+04  3.11785E+04  1.73816E+03  2.91065E+04  1.98516E+04  1.32329E+04  3.47456E+04
 -7.79024E+03  3.83471E+04 -2.42912E+04  2.34767E+04 -2.78875E+04  5.34328E+03 -1.58154E+04 -9.53112E+03
 -8.33658E+03 -8.40890E+03 -1.96011E+03  1.01763E+02 -3.12871E+03  2.07318E+03 -8.80788E+03  7.17243E+03
 -1.61601E+04 -1.57619E+03 -1.84372E+04 -1.54322E+04 -8.26876E+03 -1.99959E+04  5.56446E+03 -1.83131E+04
  1.62615E+04 -7.72592E+03  1.13852E+04  4.52236E+03 -4.21977E+02  7.30546E+03 -1.05200E+04 -7.84934E+01
 -9.50345E+03 -1.05592E+04 -5.24496E+02 -2.01978E+04  1.10833E+04 -1.98536E+04  2.31112E+04 -1.01651E+04
  2.75507E+04  3.01073E+03  2.01279E+04  1.67323E+04  4.71379E+03  2.42956E+04 -1.27053E+04  1.94698E+04
 -1.51257E+04  6.16980E+03 -7.09954E+03 -5.95232E+03  2.35989E+03 -5.24514E+03  1.02796E+04 -9.26871E+02
  7.31240E+03  1.04365E+04  5.80154E+02  1.43511E+04 -1.24608E+04  1.52210E+04 -1.76137E+04  4.07312E+03
 -1.51276E+04 -9.48477E+03  1.84946E+03 -1.69018E+04  1.27630E+04 -9.37000E+03  1.35978E+04  4.97022E+03
  2.82033E+03  1.27818E+04 -1.14631E+04  1.50275E+04 -1.78233E+04  5.70170E+03 -1.90147E+04 -6.39529E+03
 -9.60988E+03 -2.02926E+04  5.20081E+03 -2.31771E+04  1.86442E+04 -1.20805E+04  2.15916E+04  4.60064E+03
  1.12576E+04  1.68222E+04 -2.25480E+03  2.07040E+04 -1.46108E+04  1.12100E+04 -1.59700E+04 -2.26709E+03
 -1.11619E+04 -1.27608E+04 -2.40380E+03 -1.66476E+04  5.75679E+03 -1.22258E+04  1.07255E+04 -4.78584E+03
  6.86206E+03  2.71647E+03 -1.51827E+03  2.81154E+03 -1.81594E+03 -3.47029E+03  3.41909E+03 -9.81978E+03
  1.50815E+04 -8.16438E+03  2.04233E+04  1.89295E+03  1.96499E+04  1.41809E+04  1.28838E+04  2.76393E+04
 -6.57906E+03  3.08245E+04 -2.52680E+04  2.41092E+04 -3.36919E+04  3.08260E+03 -2.75043E+04 -1.12652E+04
 -1.42787E+04 -2.35558E+04 -7.26329E+02 -2.12646E+04  7.12004E+03 -1.20529E+04  7.89990E+03 -7.95829E+03
  3.71838E+03 -3.45843E+03  4.30237E+03 -4.15561E+03  7.45063E+03 -4.05676E+03  1.20448E+04 -3.00121E+03
  1.53398E+04  3.21854E+03  7.09650E+03  1.39531E+04 -2.24054E+03  1.60889E+04 -1.51794E+04  1.14220E+04
 -2.20708E+04 -2.17500E+03 -1.05780E+04 -1.43001E+04 -1.74683E+03 -2.03070E+04  1.06909E+04 -2.04236E+04
  2.12912E+04 -9.91268E+03  2.44790E+04  4.27473E+03  1.79824E+04  1.69882E+04  2.54216E+03  2.56147E+04
 -1.07612E+04  1.81898E+04 -1.33529E+04  7.14119E+03 -1.00437E+04 -2.81355E+03 -4.56997E+03 -4.36476E+03
 -4.39899E+02 -6.89887E+02 -1.90715E+03  5.62198E+03 -7.15672E+03  2.49938E+03 -1.34496E+04 -2.33421E+03
 -1.05727E+04 -1.45594E+04 -1.15238E+03 -1.83728E+04  1.33470E+04 -1.88268E+04  2.23893E+04 -6.02202E+03
  2.03311E+04  8.49560E+03  8.99715E+03  1.79418E+04 -2.96390E+03  2.02513E+04 -1.41927E+04  1.32786E+04
 -1.83087E+04  9.85023E+02 -1.32773E+04 -1.24439E+04 -2.26230E+03 -1.72136E+04  7.14957E+03 -1.37491E+04
  1.34469E+04 -4.56450E+03  8.67180E+03  1.75189E+03  3.41683E+03  5.70151E+03  1.97764E+03  1.42728E+03
  2.26238E+03  9.56804E+02  3.36300E+03  2.69740E+03  6.45844E+03  5.76334E+03  7.00133E+03  1.01750E+04
 -3.22971E+03  1.53018E+04 -1.34747E+04  1.66400E+04 -2.16642E+04  1.75868E+03 -1.87680E+04 -1.13854E+04
 -1.17115E+04 -2.12359E+04  4.07159E+03 -2.28872E+04  1.33297E+04 -1.47836E+04  1.62547E+04 -3.10431E+03
  1.24455E+04  6.12573E+03  2.36669E+03  1.21228E+04 -6.87519E+03  8.79712E+03 -8.52440E+03 -2.84856E+03
 -5.84902E+03 -8.52886E+03  6.08912E+03 -9.22555E+03  7.78761E+03 -5.17744E+03  9.16969E+03  2.44327E+03
  7.66788E+03  3.94730E+03  1.46261E+03  4.70409E+03 -7.17291E+02  4.03178E+03 -1.84835E+02  1.54095E+02
  4.64823E+03 -6.42552E+02  7.90062E+03  3.71579E+03  4.77231E+03  1.15157E+04  2.21035E+02  1.47035E+04
 -1.03786E+04  1.12795E+04 -1.57350E+04  1.27810E+03 -1.17038E+04 -6.04635E+03 -4.02653E+03 -8.41209E+03
  1.03038E+03 -8.23932E+03  3.38732E+03 -3.43514E+03  5.10570E+03  3.39657E+03 -4.13605E+02  9.07964E+03
 -9.69468E+03  3.67599E+03 -1.08306E+04 -5.29483E+03 -6.40882E+03 -1.07209E+04  1.79767E+03 -1.37055E+04
  7.91738E+03 -1.03151E+04  7.55549E+03 -1.97483E+03  6.43457E+03  3.05641E+03 -1.82488E+02  5.69757E+03
 -4.82105E+03  9.93860E+02 -5.14825E+03 -3.59545E+03  3.15175E+03 -1.01649E+04  1.11545E+04 -6.00004E+03
  1.39530E+04 -1.14550E+02  1.32578E+04  1.16380E+04  3.06146E+03  1.57353E+04 -4.48015E+03  1.42825E+04
 -1.27584E+04  7.17532E+03 -1.06399E+04 -1.56691E+03 -6.98323E+03 -9.88158E+03  2.93349E+03 -9.65974E+03
  8.43506E+03 -4.18707E+03  7.45052E+03  5.06449E+03  4.15851E+03  7.39112E+03 -1.83286E+03  6.98821E+03
 -3.67849E+03  4.30147E+03 -3.25588E+03  2.74553E+03 -1.24470E+03  3.91145E+01 -1.31501E+03  4.10033E+03
 -4.86999E+03  6.97665E+03 -1.00062E+04  6.01059E+03 -1.24614E+04 -3.28180E+01 -1.69080E+04 -8.56159E+03
 -8.27040E+03 -2.02670E+04  4.06578E+03 -2.21581E+04  1.57662E+04 -1.74640E+04  2.11924E+04 -8.19032E+03
  2.17625E+04  4.67452E+03  1.36472E+04  1.42068E+04  2.15001E+03  1.40412E+04 -6.35997E+03  1.05656E+04
 -8.31498E+03  6.42712E+03 -5.64402E+03 -2.92489E+03 -2.21277E+03 -2.91445E+03 -3.02847E+03 -2.32101E+02
 -2.01211E+03 -4.11531E+02 -5.15918E+03 -7.47851E+02 -1.28093E+03 -6.14415E+03  1.04028E+02 -3.94598E+03
  3.67914E+03 -5.13153E+03  1.18357E+04  3.63783E+02  1.27251E+04  9.63495E+03  4.84515E+03  1.65167E+04
 -7.85075E+03  1.73120E+04 -1.70651E+04  1.08035E+04 -1.87676E+04 -2.44618E+03 -1.67082E+04 -1.21885E+04
 -6.16615E+03 -1.46213E+04  3.51182E+03 -1.62742E+04  1.22564E+04 -8.99736E+03  1.02005E+04  7.37990E+02
  4.81312E+03  5.93282E+03  2.60287E+02  5.22033E+03 -3.70563E+03 -3.67325E+02  4.03669E+02 -7.88029E+03
  5.34981E+03 -2.65812E+03  6.69942E+03  1.68041E+03  4.78308E+03  6.10568E+03 -6.02365E+02  7.83894E+03
 -8.47981E+03  6.40169E+03 -1.09698E+04  6.66351E+02 -9.31495E+03 -1.03951E+04 -2.96903E+03 -1.22141E+04
  8.41322E+03 -1.16042E+04  1.20455E+04 -5.55097E+03  1.48785E+04  3.18720E+03  7.46351E+03  8.59346E+03
  8.25848E+02  1.12501E+04 -3.60511E+03  9.19616E+03 -6.90708E+03  4.63585E+03 -5.81329E+03  1.20031E+03
 -3.16848E+03 -2.58346E+03 -4.44226E+03 -6.79938E+01 -4.81422E+03  1.28758E+03 -8.62929E+03 -8.41962E+02
 -9.55317E+03 -7.48053E+03 -3.19566E+03 -1.14465E+04  5.79082E+03 -1.15416E+04  1.05376E+04 -5.32008E+03
  1.07791E+04  1.78435E+03  6.18799E+03  7.40506E+03 -3.42697E+02  1.24711E+04 -8.78374E+03  6.81552E+03
