 $NMID ID='MM_0lb_SNR200_10hz_g60_94.RAW', FMTDAT='(8E13.5)'
 TRAMP=1., VOLUME=1. $END
  3.11185E+05  1.82548E+02  3.37987E+05  2.50114E+05  8.36360E+04  3.37969E+05 -1.32705E+05  2.52336E+05
 -1.91542E+05  8.25525E+04 -1.12263E+05 -3.23179E+04  5.77449E+02 -4.98534E+04  5.35486E+04 -1.56976E+02
  3.65998E+04  5.12588E+04 -1.65632E+04  7.56430E+04 -5.98805E+04  6.45436E+04 -8.69424E+04  3.27837E+04
 -8.26866E+04 -1.07959E+04 -5.80529E+04 -5.35834E+04 -1.51229E+04 -7.12596E+04  2.81934E+04 -4.71116E+04
  4.08133E+04  4.17773E+03  1.67538E+04  4.87913E+04 -3.49660E+04  4.75102E+04 -6.90015E+04  6.76988E+02
 -5.55451E+04 -5.77213E+04 -7.77413E+03 -7.92878E+04  3.44196E+04 -5.68016E+04  5.00817E+04 -1.83519E+04
  4.37597E+04  1.22774E+04  3.17209E+04  2.66543E+04  1.60890E+04  2.97435E+04 -5.76379E+03  2.72541E+04
 -2.28097E+04  1.23100E+04 -1.78766E+04 -5.64045E+03  7.43364E+03 -6.00893E+03  2.15063E+04  1.46011E+04
  6.01045E+03  3.71010E+04 -3.31223E+04  3.84865E+04 -6.55740E+04  3.96529E+03 -5.89963E+04 -4.58302E+04
 -1.26217E+04 -6.73393E+04  4.18466E+04 -4.74228E+04  6.12005E+04 -2.34235E+03  3.70043E+04  3.51540E+04
 -3.35476E+03  3.96213E+04 -3.03260E+04  1.76573E+04 -3.27358E+04 -2.00794E+03 -1.89441E+04 -1.12052E+04
 -1.05193E+04 -1.64833E+04 -1.17043E+03 -1.93818E+04  8.08072E+03 -2.33669E+04  1.64764E+04 -1.28285E+04
  9.93228E+03  5.98082E+03 -9.10284E+03  1.23682E+04 -2.35301E+04 -7.42371E+03 -8.62542E+03 -3.67636E+04
  2.57923E+04 -4.82962E+04  5.26258E+04 -2.02205E+04  4.87528E+04  1.99521E+04  1.84157E+04  4.75280E+04
 -1.59740E+04  3.57201E+04 -2.67331E+04  2.75644E+03 -1.11167E+04 -2.75281E+04  2.22647E+04 -3.64107E+04
  4.59247E+04 -1.18710E+04  4.12884E+04  2.59652E+04  2.17260E+04  5.14360E+04 -7.65489E+03  5.66081E+04
 -3.48046E+04  3.82906E+04 -4.80007E+04  9.86362E+03 -4.87846E+04 -1.99486E+04 -2.53219E+04 -4.12159E+04
  9.55968E+03 -4.23671E+04  3.34240E+04 -1.81279E+04  3.26015E+04  1.18825E+04  5.00551E+03  2.09906E+04
 -1.58781E+04  9.57275E+03 -1.08346E+04 -7.96123E+03  5.31977E+03 -1.24037E+04  1.84734E+04  5.57485E+03
  1.55824E+04  2.25681E+04 -6.12825E+03  2.73255E+04 -2.43580E+04  1.47860E+04 -3.23987E+04 -2.51897E+03
 -2.60391E+04 -1.91277E+04 -1.10996E+04 -2.39593E+04  2.63755E+03 -2.60976E+04  1.88663E+04 -2.35812E+04
  3.12216E+04 -1.30710E+04  3.86456E+04  5.83129E+03  2.68021E+04  2.45535E+04  5.26840E+03  4.19717E+04
 -1.92933E+04  3.39949E+04 -3.06665E+04  1.28239E+04 -2.34248E+04 -1.14224E+04 -6.88721E+03 -1.25760E+04
  4.29729E+02 -1.98997E+03 -6.36486E+03  8.46673E+03 -1.94760E+04  5.59512E+03 -2.03342E+04 -9.57093E+03
 -1.21907E+04 -2.24137E+04  5.93423E+03 -2.72461E+04  1.94775E+04 -1.98797E+04  2.20432E+04 -2.45735E+03
  1.29540E+04  1.51064E+04 -8.74576E+02  2.34689E+04 -1.63004E+04  1.35608E+04 -2.17435E+04 -3.94191E+03
 -1.61970E+04 -2.16844E+04 -3.70059E+03 -2.88399E+04  1.27287E+04 -2.39318E+04  2.26546E+04 -1.08579E+04
  2.33042E+04 -1.81599E+02  1.44818E+04  6.72800E+03  9.59836E+03  2.20393E+03  1.21045E+04 -1.97020E+03
  2.26746E+04  2.35363E+03  2.58308E+04  1.82821E+04  1.67417E+04  3.81632E+04 -3.08422E+03  4.37225E+04
 -2.48057E+04  3.68581E+04 -4.23532E+04  1.97990E+04 -4.50318E+04 -1.01852E+03 -3.56238E+04 -2.70411E+04
 -1.44113E+04 -3.59907E+04  1.42050E+04 -3.26850E+04  2.65941E+04 -1.48265E+04  2.41070E+04  8.45379E+03
  8.01581E+03  1.80609E+04 -1.27502E+04  1.45130E+04 -1.93182E+04  2.93771E+03 -1.45391E+04 -1.39824E+04
 -9.75991E+02 -2.04319E+04  1.08583E+04 -1.54498E+04  1.39679E+04 -8.52694E+02  3.34890E+03  8.59167E+03
 -8.60269E+03  4.58409E+03 -9.36479E+03 -7.83016E+03 -1.30308E+03 -1.66674E+04  1.37105E+04 -1.91256E+04
  2.24043E+04 -1.23981E+04  2.49631E+04  4.60778E+03  2.20860E+04  1.86376E+04  1.01421E+04  2.89517E+04
 -6.11937E+03  3.16023E+04 -2.15079E+04  1.93220E+04 -2.25837E+04  4.55241E+03 -1.51330E+04 -5.90148E+03
 -5.29317E+03 -7.06290E+03  8.52094E+01  1.88433E+02 -1.50337E+03  2.58318E+03 -8.15687E+03  6.33888E+03
 -1.44609E+04 -4.85163E+02 -1.29246E+04 -1.19907E+04 -6.25858E+03 -1.88408E+04  5.78440E+03 -1.57415E+04
  1.28038E+04 -6.87234E+03  7.79994E+03  3.31678E+03  6.99054E+02  4.96658E+03 -8.85218E+03 -1.10121E+03
 -6.97987E+03 -1.07833E+04 -2.15702E+03 -1.58443E+04  9.06545E+03 -1.59006E+04  2.04036E+04 -9.67346E+03
  2.26382E+04  2.02291E+03  1.75564E+04  1.49842E+04  1.78236E+03  1.95201E+04 -8.70254E+03  1.62497E+04
 -1.37544E+04  5.64327E+03 -5.31662E+03 -3.47900E+03  3.48364E+03 -4.77635E+03  7.38089E+03  1.73090E+02
  7.88825E+03  7.94481E+03  7.89921E+02  1.20673E+04 -8.13989E+03  1.20539E+04 -1.48431E+04  3.93502E+03
 -1.06158E+04 -7.24297E+03 -2.46903E+02 -1.25105E+04  7.86767E+03 -7.79832E+03  1.02985E+04  3.58698E+03
  4.28658E+03  9.28277E+03 -7.62033E+03  1.08800E+04 -1.34867E+04  3.61210E+03 -1.42659E+04 -5.93782E+03
 -8.60666E+03 -1.42497E+04  3.73428E+03 -1.76495E+04  1.60560E+04 -1.04486E+04  1.79158E+04  2.01765E+03
  8.13278E+03  1.25485E+04 -1.37066E+03  1.51986E+04 -1.11628E+04  7.96311E+03 -1.26539E+04 -8.90180E+02
 -1.09524E+04 -1.02525E+04 -2.64928E+03 -1.17882E+04  6.62538E+03 -1.06436E+04  9.15223E+03 -4.71673E+03
  3.97142E+03  3.06295E+03 -5.60660E+02  3.42880E+03  9.73039E+01 -3.73002E+03  2.56816E+03 -7.41303E+03
  1.08933E+04 -5.93736E+03  1.59535E+04  3.17716E+03  1.44685E+04  1.13211E+04  1.04570E+04  2.12908E+04
 -3.31931E+03  2.30742E+04 -2.08469E+04  1.73764E+04 -2.57163E+04  3.03663E+03 -1.93983E+04 -9.01450E+03
 -1.05728E+04 -1.68321E+04  1.02530E+03 -1.38827E+04  4.42119E+03 -7.96130E+03  5.13341E+03 -4.89850E+03
  2.62455E+03 -2.33277E+03  3.72674E+03 -3.30997E+03  6.14947E+03 -3.23718E+03  9.13293E+03 -5.64860E+02
  9.89293E+03  2.26549E+03  5.51924E+03  9.76709E+03 -2.14981E+03  1.07716E+04 -1.18957E+04  9.19671E+03
 -1.22682E+04 -9.47193E+02 -1.03586E+04 -9.64098E+03 -8.06906E+02 -1.38653E+04  8.58726E+03 -1.46179E+04
  1.59529E+04 -9.75143E+03  1.96803E+04  3.04251E+03  1.38083E+04  1.41249E+04  6.96569E+02  1.62012E+04
 -7.20672E+03  1.26422E+04 -1.02715E+04  5.17589E+03 -7.16682E+03 -1.71437E+03 -2.81300E+03 -4.60935E+02
 -1.30624E+02  1.49340E+03 -8.24738E+02  2.78662E+03 -6.07088E+03  2.20005E+03 -9.51763E+03 -2.57016E+03
 -7.89707E+03 -9.53284E+03  3.18299E+01 -1.36996E+04  9.64087E+03 -1.44853E+04  1.52540E+04 -3.77427E+03
  1.32937E+04  4.37456E+03  6.09355E+03  1.25503E+04 -3.34771E+03  1.34005E+04 -1.09279E+04  8.97960E+03
 -1.22474E+04 -5.59455E+02 -1.14485E+04 -9.62303E+03  3.42534E+01 -1.37659E+04  6.43867E+03 -1.00397E+04
  9.69551E+03 -2.70870E+03  6.69373E+03  2.52943E+03  1.96478E+03  5.46228E+03  5.21767E+02  3.06935E+03
  1.59112E+03  1.95558E+03  3.44438E+03  2.07688E+03  3.13372E+03  4.65023E+03  3.45146E+03  6.30992E+03
 -5.28300E+03  1.26022E+04 -9.92796E+03  1.30434E+04 -1.56201E+04  3.09521E+03 -1.41973E+04 -6.34553E+03
 -6.60941E+03 -1.39919E+04  1.86686E+03 -1.55969E+04  7.37689E+03 -9.07412E+03  1.23683E+04 -2.66678E+03
  9.69665E+03  4.89412E+03  1.25573E+03  7.17308E+03 -4.60413E+03  4.57990E+03 -6.87383E+03  5.29714E+02
 -2.39458E+03 -7.44345E+03  2.74196E+03 -6.36253E+03  5.07206E+03 -2.74859E+03  7.39178E+03  8.04364E+02
  3.20096E+03  3.15354E+03  1.63993E+03  2.46015E+03 -1.28796E+03  1.10225E+03  2.08604E+03 -2.49866E+03
  2.22797E+03 -6.49449E+02  6.08374E+03  2.20945E+03  4.13296E+03  8.03489E+03 -4.27962E+02  9.65219E+03
 -5.19973E+03  6.23081E+03 -8.80907E+03  1.73007E+03 -8.97758E+03 -2.95928E+03 -4.05697E+03 -4.82638E+03
 -1.04818E+03 -6.29196E+03  3.44836E+03 -2.21183E+03  3.86045E+03  2.79651E+03 -1.61310E+03  4.16156E+03
 -6.24698E+03  3.00361E+03 -7.37889E+03 -3.89246E+03 -3.87618E+03 -6.90347E+03  8.49152E+02 -8.75895E+03
  5.62434E+03 -2.66699E+03  5.18079E+03 -5.56727E+02  3.71339E+03  2.35404E+03  4.68259E+02  4.73130E+03
 -2.79843E+03  2.06938E+03 -3.29981E+03 -1.76254E+03  9.75695E+02 -7.51869E+03  7.08342E+03 -4.50436E+03
  9.08144E+03  1.12747E+03  9.50746E+03  5.13394E+03  2.50235E+03  9.22789E+03 -4.22441E+03  9.83013E+03
 -7.79808E+03  3.58900E+03 -8.07237E+03 -1.02603E+02 -4.78316E+03 -5.49281E+03  4.36007E+02 -5.98019E+03
  6.10263E+03 -4.89912E+03  5.02862E+03  3.17844E+03  2.89020E+03  4.84270E+03 -7.81658E+02  4.27783E+03
 -1.90180E+03  2.29591E+03 -1.95161E+03  1.25836E+03 -9.46245E+02  1.23654E+03 -3.62412E+03  1.75769E+03
 -2.78677E+03  3.92533E+03 -4.53847E+03  3.23374E+03 -9.00689E+03  9.73140E+01 -9.26257E+03 -5.93599E+03
 -7.48887E+03 -1.20378E+04  1.61308E+03 -1.30555E+04  8.25349E+03 -1.07094E+04  1.28510E+04 -4.07529E+03
  1.10850E+04  3.09852E+03  8.39847E+03  9.55239E+03  8.63650E+02  1.06516E+04 -3.66479E+03  6.96348E+03
 -8.39794E+03  2.07064E+03 -3.23915E+03 -1.25144E+03 -2.28671E+03 -1.93689E+02 -1.86998E+03 -2.65205E+02
 -1.54217E+03  2.94155E+03 -1.72660E+03 -4.32072E+02 -1.45862E+03 -2.66318E+03  2.62501E+02 -3.35877E+03
  4.32677E+03 -3.65625E+03  4.95063E+03 -8.20599E+02  6.81003E+03  5.17880E+03  8.75906E+02  9.37939E+03
 -4.14955E+03  1.09040E+04 -1.08383E+04  7.08412E+03 -9.79722E+03 -2.72522E+03 -8.37385E+03 -6.12514E+03
 -2.84598E+03 -7.88821E+03  2.96645E+03 -7.95685E+03  5.37070E+03 -4.11122E+03  6.27636E+03  3.93690E+02
  3.99738E+03  3.41602E+03 -1.98916E+03  2.60903E+03 -1.40750E+03  7.42384E+01 -1.37822E+02 -2.55785E+03
  2.32533E+03 -1.19058E+02  2.08388E+03  1.74071E+03  2.43977E+03  4.12721E+03  1.08261E+03  3.48777E+03
 -3.98737E+03  2.80740E+03 -7.86772E+03 -8.59732E+02 -5.87903E+03 -4.80717E+03  5.76114E+02 -7.64583E+03
  4.78677E+03 -7.33734E+03  7.20643E+03 -1.58497E+03  6.14900E+03  1.99247E+03  5.13986E+03  6.18240E+03
  1.34402E+03  6.08415E+03 -9.54208E+02  3.90448E+03 -2.86965E+03  3.46712E+03 -4.12005E+03 -4.91418E+02
 -2.77608E+03 -4.97713E+02 -1.31648E+03  7.16793E+02 -3.50871E+03  1.29017E+03 -4.93889E+03 -1.23260E+03
 -5.07715E+03 -3.94413E+03 -3.09251E+03 -6.45760E+03  2.58227E+03 -6.37105E+03  5.32505E+03 -2.95872E+03
  6.56778E+03  1.37154E+02  4.85695E+03  5.18316E+03 -1.68185E+03  5.86110E+03 -4.95838E+03  4.49600E+03
