 $NMID ID='MM_0lb_SNR200_19hz_g40_45.RAW', FMTDAT='(8E13.5)'
 TRAMP=1., VOLUME=1. $END
  3.10710E+05  3.79235E+02  3.37421E+05  2.50272E+05  8.47953E+04  3.37430E+05 -1.32246E+05  2.49568E+05
 -1.89311E+05  8.26319E+04 -1.10136E+05 -3.29493E+04  1.76327E+03 -5.02316E+04  5.40658E+04  1.16771E+03
  3.42963E+04  5.38736E+04 -1.63222E+04  7.41955E+04 -5.96883E+04  6.15984E+04 -8.26160E+04  3.04921E+04
 -7.89038E+04 -1.00237E+04 -5.60429E+04 -4.91843E+04 -1.44795E+04 -6.68464E+04  2.69713E+04 -4.44733E+04
  3.81349E+04  4.32885E+03  1.53877E+04  4.68821E+04 -3.29726E+04  4.45778E+04 -6.43046E+04  1.15076E+02
 -5.20469E+04 -5.44821E+04 -6.41609E+03 -7.46007E+04  3.34418E+04 -5.22324E+04  4.57370E+04 -1.58874E+04
  4.05881E+04  1.09983E+04  3.08269E+04  2.33271E+04  1.48870E+04  2.86146E+04 -4.23708E+03  2.64376E+04
 -2.13480E+04  1.32221E+04 -1.89507E+04 -4.00882E+03  3.22598E+03 -7.46276E+03  2.05049E+04  1.02510E+04
  8.65345E+03  3.31205E+04 -3.04098E+04  3.31465E+04 -6.05197E+04  1.62409E+03 -5.52985E+04 -4.11154E+04
 -1.29325E+04 -6.05579E+04  3.83901E+04 -4.29419E+04  5.48828E+04 -1.75386E+03  3.18600E+04  2.97205E+04
 -7.25704E+03  3.24873E+04 -2.74209E+04  1.23152E+04 -2.74844E+04 -6.03930E+03 -1.39936E+04 -1.03031E+04
 -6.31638E+03 -1.07226E+04 -1.83002E+03 -1.60352E+04  6.41897E+03 -2.23548E+04  1.48038E+04 -1.50833E+04
  1.22376E+04  3.97668E+03 -5.64262E+03  1.39075E+04 -1.99608E+04 -1.98073E+03 -7.48344E+03 -2.92956E+04
  1.97779E+04 -3.96006E+04  4.40768E+04 -1.80007E+04  4.14145E+04  1.77429E+04  1.43534E+04  4.10151E+04
 -1.61750E+04  3.08811E+04 -2.37107E+04  8.73102E+02 -7.38758E+03 -2.58933E+04  2.06692E+04 -2.97585E+04
  3.59660E+04 -6.43523E+03  3.00797E+04  2.16188E+04  1.48086E+04  4.16852E+04 -7.46735E+03  4.37110E+04
 -2.73118E+04  2.78560E+04 -3.64486E+04  8.07900E+03 -3.66516E+04 -1.50108E+04 -1.98430E+04 -3.32845E+04
  7.47558E+03 -3.29348E+04  2.88604E+04 -1.23176E+04  2.60359E+04  1.09038E+04  2.52397E+03  1.69281E+04
 -1.25495E+04  6.94401E+03 -9.78811E+03 -6.99227E+03  5.82097E+03 -9.38975E+03  1.61289E+04  7.17105E+03
  1.19414E+04  2.13889E+04 -5.94636E+03  2.39632E+04 -1.96912E+04  8.84456E+03 -2.38865E+04 -7.00431E+03
 -1.57341E+04 -1.64117E+04 -4.58100E+03 -1.65429E+04  3.87772E+03 -1.36233E+04  1.25186E+04 -1.36472E+04
  1.97606E+04 -1.13980E+04  2.68507E+04  1.99507E+03  1.92483E+04  1.61396E+04  3.90304E+03  3.15514E+04
 -1.64690E+04  2.72611E+04 -2.55363E+04  9.45701E+03 -1.89645E+04 -1.00949E+04 -4.34859E+03 -1.42397E+04
  2.88841E+03 -5.14134E+03 -3.32918E+03  4.45556E+03 -1.18954E+04  5.28431E+03 -1.31126E+04 -3.55340E+03
 -8.48348E+03 -1.45412E+04  4.36165E+03 -1.87020E+04  1.10375E+04 -1.34380E+04  1.36176E+04 -2.59452E+03
  7.29562E+03  8.91004E+03  3.15854E+01  1.49122E+04 -9.87858E+03  8.43969E+03 -1.47781E+04 -3.60342E+03
 -1.12336E+04 -1.36988E+04 -1.15464E+03 -1.83644E+04  7.81536E+03 -1.47753E+04  1.56930E+04 -6.74218E+03
  1.44393E+04  8.53281E+02  1.05648E+04  3.80516E+03  5.30062E+03  3.25745E+02  7.04151E+03 -1.62025E+03
  1.25391E+04  2.39759E+03  1.27762E+04  1.17702E+04  8.02016E+03  2.34362E+04 -4.43618E+03  2.51541E+04
 -1.39267E+04  1.88110E+04 -2.26915E+04  7.94710E+03 -2.30106E+04 -9.45557E+02 -1.99917E+04 -1.34613E+04
 -1.03363E+04 -1.90838E+04  6.37749E+03 -1.77537E+04  1.50744E+04 -1.00338E+04  1.46693E+04  3.43538E+03
  6.86494E+03  1.02740E+04 -6.66954E+03  9.61885E+03 -1.24195E+04  2.99050E+03 -1.10234E+04 -7.33805E+03
  1.62463E+02 -1.28581E+04  5.02190E+03 -9.56000E+03  7.42816E+03 -2.70807E+03  9.40888E+02  4.21385E+03
 -4.79303E+03  1.61058E+03 -3.44690E+03 -4.22032E+03  2.40640E+03 -9.70341E+03  7.16355E+03 -9.66419E+03
  1.02142E+04 -4.23776E+03  9.37364E+03  2.18988E+03  9.79806E+03  9.10971E+03  4.27258E+03  1.29540E+04
 -1.78875E+02  1.51971E+04 -9.01523E+03  9.08240E+03 -1.03723E+04  3.06845E+03 -7.76288E+03 -1.94670E+03
 -4.83637E+03 -3.37280E+03 -2.52581E+02  2.26589E+03 -1.48716E+03  1.82048E+03 -3.81139E+03  3.44554E+03
 -7.22505E+03  1.75006E+02 -7.14394E+03 -6.37262E+03 -2.88772E+03 -1.11269E+04  2.28629E+03 -7.57158E+03
  7.05790E+03 -4.28946E+03  5.43118E+03  2.93929E+03 -2.51432E+02  1.76414E+03 -2.51748E+03 -1.65561E+02
 -3.12236E+03 -5.09600E+03 -1.21040E+03 -6.23542E+03  3.65931E+03 -7.64198E+03  9.64634E+03 -3.99769E+03
  1.20320E+04  1.06053E+03  8.65601E+03  5.11826E+03  1.86056E+03  7.73382E+03 -5.20850E+03  7.04676E+03
 -5.97524E+03  2.40417E+03 -3.33164E+03 -4.39504E+02  1.10049E+03 -1.98006E+03  4.70276E+03 -2.04896E+03
  4.12535E+03  2.93287E+03  2.47422E+03  6.07024E+03 -3.79550E+03  4.76687E+03 -6.66975E+03  1.99111E+03
 -4.48161E+03 -3.05409E+03  6.21787E+01 -5.78154E+03  3.01331E+03 -3.65947E+03  3.42679E+03  6.23255E+02
  3.07664E+02  2.76557E+03 -3.32565E+03  3.68487E+03 -3.78720E+03  3.08841E+03 -3.79664E+03 -1.45458E+03
 -2.85813E+03 -4.92487E+03 -9.94648E+01 -5.47242E+03  5.25823E+03 -3.68179E+03  4.30194E+03  1.48962E+03
  5.50101E+03  4.04384E+03  1.41899E+03  5.86888E+03 -4.67152E+03  3.26140E+03 -5.72744E+03 -8.86057E+01
 -6.51660E+03 -4.93467E+03 -2.27076E+03 -5.34982E+03  2.53595E+03 -4.97720E+03  2.36752E+03 -3.05369E+03
  1.29373E+03  2.69527E+02 -2.89277E+02  1.53760E+03  2.37758E+02 -6.27259E+02 -1.96881E+01 -8.62382E+02
  3.94403E+03 -5.98491E+02  4.31461E+03  2.05682E+02  4.65030E+03  2.09215E+03  4.36505E+03  5.26135E+03
 -1.32635E+03  7.26814E+03 -7.13345E+03  5.58393E+03 -9.49510E+03  5.42511E+02 -7.32767E+03 -2.75570E+03
 -4.19436E+03 -5.72469E+03 -1.27317E+03 -4.52356E+03  2.13364E+03 -1.12906E+03  1.49944E+03 -2.35388E+03
  1.55069E+03 -2.42805E+02  1.77111E+03 -3.01086E+03  2.91886E+03 -7.55210E+02  2.80353E+03  5.95936E+02
  4.41402E+03  7.84434E+02  3.67136E+02  3.88582E+03 -6.24710E+02  2.24053E+03 -4.75615E+03  2.56235E+03
 -4.42676E+03 -1.98916E+03 -1.29163E+03 -3.12210E+03  8.26250E+02 -5.10861E+03  2.89877E+03 -4.24562E+03
  4.73343E+03 -3.57792E+03  6.59728E+03 -5.26693E+01  5.15556E+03  3.96006E+03  1.02187E+03  5.13425E+03
 -2.72488E+03  5.18327E+03 -2.21215E+03  1.90841E+03 -2.57291E+03 -1.45723E+03 -1.42614E+03  2.26626E+01
 -4.54529E+01  8.47043E+02 -1.11396E+03  2.35624E+03 -2.91229E+03  1.16303E+03 -3.68055E+03  3.57989E+01
 -1.13514E+03 -3.73447E+03  1.22884E+03 -4.50581E+03  2.82386E+03 -4.03153E+03  3.35687E+03 -4.13982E+02
  3.52177E+03  2.87688E+03  1.68528E+03  2.84408E+03 -7.82541E+02  3.51427E+03 -2.75123E+03  2.43223E+03
 -3.22448E+03  5.65491E+02 -1.55311E+03 -2.08288E+03  9.98532E+01 -1.99032E+03  1.28116E+03 -2.38411E+03
  1.55535E+03 -8.09698E+02  1.97654E+03  9.52615E+02 -6.08708E+02  2.31764E+03  8.43420E+02  3.27854E+02
  1.45653E+03  1.98671E+01  1.00170E+03  1.09217E+02  6.02462E+02  2.44043E+03  1.48457E+03  2.00434E+03
 -5.27305E+02  2.63843E+03 -2.46548E+03  3.79782E+03 -2.38906E+03  1.38410E+03 -4.63643E+03  2.61164E+02
 -1.39268E+03 -2.51479E+03 -1.37895E+02 -4.37910E+03  1.00263E+03 -2.51860E+03  2.89931E+03 -6.35438E+02
  1.93356E+03  1.24682E+03 -5.54707E+01  2.49506E+03 -1.26944E+03  3.56624E+03 -1.44469E+03 -3.65322E+02
 -8.35951E+02 -6.53901E+02  7.10535E+02 -1.42851E+03  1.48750E+03 -1.15264E+03  1.92724E+03  7.50394E+01
  7.21835E+02  2.84771E+02 -1.00396E+02 -3.55263E+02  9.97391E+01  1.09565E+03  8.19119E+02 -1.08573E+03
 -3.15846E+01 -3.14931E+02  1.74737E+03  3.16494E+02  2.04262E+02  1.82388E+03  3.67638E+02  2.54238E+03
 -1.88243E+03  3.31041E+02 -6.80246E+02  2.96269E+02 -2.40476E+03 -1.57257E+03  1.08598E+02 -1.36578E+03
  1.11529E+03 -2.41097E+03  1.96555E+03 -3.76781E+02  8.49966E+02  1.61303E+03 -6.84127E+02  9.48205E+02
 -1.97268E+03  5.36303E+02 -1.04195E+03 -1.65181E+03 -6.79218E+02 -2.67544E+03 -1.04608E+03 -1.44829E+03
  2.78087E+02 -7.99702E+02  1.06479E+03  8.40803E+02  1.18062E+03 -5.52847E+02  6.66229E+02  7.72155E+02
 -5.76489E+02  8.79369E+02 -1.13621E+03 -8.75478E+01 -1.30875E+02 -2.90264E+02  1.32464E+03 -9.97568E+02
  1.92804E+03  5.99839E+02  2.32181E+03 -2.58096E+02  7.54083E+02  2.09743E+03 -6.13282E+02  1.71352E+03
 -1.46952E+03  1.32261E+03 -1.33488E+03  3.20063E+01 -1.53498E+03 -7.27299E+02 -2.70698E+02 -7.27611E+02
  7.34612E+02  2.63128E+01  1.43141E+03  1.98511E+02 -3.48786E+02 -1.38622E+02  5.99803E+02  6.79629E+02
 -8.06087E+02  7.72161E+02  5.35527E+01 -8.40331E+02 -6.29234E+01  5.21500E+02 -1.15373E+03  8.29035E+02
 -1.21086E+03  4.18519E+02 -1.98407E+03  4.03825E+02 -1.02531E+03  7.71197E+02 -2.03704E+03 -2.40462E+02
 -1.52494E+03 -3.66617E+03  9.54457E+02 -2.71260E+03  1.24799E+03 -1.83182E+03  2.40182E+03  2.77437E+01
  2.56896E+03 -1.27086E+02  1.41563E+03  1.41205E+03 -9.81573E+02  9.58272E+02 -1.17802E+03  1.69035E+03
 -1.74232E+03  7.09440E+02  1.43233E+02 -4.59362E+02  3.16053E+02 -6.86977E+02  4.86100E+02  5.19882E+02
 -2.41002E+03 -1.07338E+03 -6.63851E+02  1.11697E+02 -2.00670E+02 -1.95704E+02  1.56199E+03  6.05401E+01
 -1.39435E+02 -1.10210E+02  2.03258E+02  2.03319E+02  1.29117E+03  1.63779E+03 -1.03405E+03  1.23666E+03
  1.91296E+02  2.52131E+03 -1.65205E+03  1.60592E+03 -2.14091E+03 -5.12981E+02 -2.99695E+02 -1.66466E+03
 -1.30389E+03 -8.51318E+02  2.51293E+02 -1.23776E+03 -4.31378E+02 -4.94405E+02  1.65428E+03  7.97147E+02
  1.65139E+03  7.04237E+02 -3.10659E+02  1.46647E+03  1.12034E+01 -3.17164E+02 -1.47707E+03 -8.29083E+02
 -4.26647E+02  4.25155E+02  3.02782E+02 -2.16589E+01  1.09249E+03  1.57358E+02  3.24510E+02  6.26024E+02
 -6.26629E+02  5.44801E+02 -3.89800E+02  8.88635E+02  4.21918E+02 -3.50732E+02  2.19003E+02 -1.04709E+03
  3.07735E+02 -9.91892E+02  3.92746E+02 -9.31566E+02  7.59675E+02 -9.89777E+02  1.15586E+03 -7.75672E+01
  6.08792E+02  7.22634E+01 -3.98072E+01  9.34256E+02 -2.60126E+01 -3.46646E+02 -9.28201E+02 -2.73922E+02
 -1.31333E+02  3.60246E+02 -2.96538E+02  9.31818E+02 -9.40076E+02  6.93571E+01 -6.10441E+02 -1.13410E+02
 -9.72040E+02 -4.32855E+02 -1.03066E+03 -1.66949E+03  9.41460E+02 -6.97838E+02  1.10935E+03 -3.09658E+02
  9.92619E+02  1.28323E+02 -1.18044E+03  9.27769E+02  1.53642E+02  8.83008E+02 -5.59876E+02  2.70377E+02
