 $NMID ID='MM_0lb_SNR200_10hz_g40_8.RAW', FMTDAT='(8E13.5)'
 TRAMP=1., VOLUME=1. $END
  3.10771E+05  8.99722E+02  3.38034E+05  2.51496E+05  8.45367E+04  3.39468E+05 -1.32402E+05  2.50548E+05
 -1.90673E+05  8.43211E+04 -1.12258E+05 -3.23973E+04  3.89750E+02 -5.10687E+04  5.34854E+04 -5.80949E+02
  3.70848E+04  5.24567E+04 -1.59516E+04  7.56057E+04 -6.05488E+04  6.43175E+04 -8.47348E+04  3.21794E+04
 -8.15765E+04 -1.02160E+04 -5.87603E+04 -5.38175E+04 -1.46613E+04 -7.06614E+04  2.72914E+04 -4.63025E+04
  4.08422E+04  3.84155E+03  1.79776E+04  4.75637E+04 -3.48293E+04  4.67443E+04 -6.76314E+04 -7.86092E+02
 -5.45771E+04 -5.81817E+04 -6.65120E+03 -7.84530E+04  3.34504E+04 -5.56390E+04  4.89634E+04 -1.84071E+04
  4.42830E+04  1.10062E+04  3.29737E+04  2.62375E+04  1.67787E+04  2.90155E+04 -5.19993E+03  2.77354E+04
 -2.22048E+04  1.15200E+04 -1.90871E+04 -5.91805E+03  6.61925E+03 -9.33433E+03  2.14982E+04  1.32991E+04
  7.41483E+03  3.64840E+04 -3.23320E+04  3.78772E+04 -6.49025E+04  2.78703E+03 -5.90925E+04 -4.38448E+04
 -1.22665E+04 -6.43413E+04  3.94578E+04 -4.67729E+04  6.17169E+04 -2.95058E+03  3.64102E+04  3.38015E+04
 -5.01032E+03  3.80970E+04 -3.03991E+04  1.93518E+04 -3.18626E+04 -2.94944E+03 -1.76687E+04 -1.19805E+04
 -8.83677E+03 -1.36463E+04  3.88696E+02 -1.92864E+04  7.28337E+03 -2.23537E+04  1.57477E+04 -1.33178E+04
  1.09172E+04  6.35265E+03 -8.21166E+03  1.35090E+04 -2.19303E+04 -5.27539E+03 -9.12774E+03 -3.70373E+04
  2.43784E+04 -4.65811E+04  4.98026E+04 -2.13018E+04  4.69952E+04  2.01246E+04  1.59722E+04  4.56418E+04
 -1.67238E+04  3.46079E+04 -2.75525E+04  5.85834E+02 -1.10006E+04 -2.75352E+04  2.15418E+04 -3.59017E+04
  4.37993E+04 -9.94849E+03  3.79310E+04  2.51575E+04  2.09678E+04  4.98991E+04 -8.44803E+03  5.35704E+04
 -3.36778E+04  3.75856E+04 -4.36924E+04  9.57174E+03 -4.53558E+04 -1.69119E+04 -2.65571E+04 -3.99162E+04
  6.26076E+03 -4.13244E+04  3.42204E+04 -1.68830E+04  3.10862E+04  1.15805E+04  4.84474E+03  2.04453E+04
 -1.30087E+04  8.10941E+03 -1.00860E+04 -6.99687E+03  4.91704E+03 -1.14589E+04  1.93387E+04  5.13538E+03
  1.52183E+04  2.34709E+04 -5.41883E+03  2.77944E+04 -2.21199E+04  1.29169E+04 -3.14056E+04 -3.06694E+03
 -2.43263E+04 -1.95549E+04 -1.05376E+04 -2.28844E+04  4.90359E+03 -2.47980E+04  1.50525E+04 -2.12417E+04
  2.87143E+04 -1.36597E+04  3.59682E+04  4.41181E+03  2.48024E+04  2.12266E+04  4.60373E+03  3.94278E+04
 -1.93785E+04  3.20588E+04 -3.00890E+04  1.34332E+04 -2.21353E+04 -8.56396E+03 -4.92248E+03 -1.18010E+04
  1.19862E+03 -1.32654E+03 -7.10499E+03  8.46968E+03 -1.82323E+04  5.06670E+03 -1.75169E+04 -8.24863E+03
 -1.02812E+04 -2.11923E+04  5.01810E+03 -2.64958E+04  1.71648E+04 -1.87495E+04  2.04372E+04 -1.70875E+03
  1.40637E+04  1.62119E+04 -7.61822E+02  2.15164E+04 -1.55657E+04  1.17273E+04 -2.11953E+04 -4.39611E+03
 -1.63551E+04 -1.76431E+04 -2.55412E+03 -2.56238E+04  1.07726E+04 -2.14877E+04  2.14937E+04 -1.07610E+04
  2.11080E+04 -6.76073E+02  1.46325E+04  4.67717E+03  9.10074E+03  1.71871E+03  1.00170E+04 -1.63902E+03
  2.05200E+04  3.91633E+03  2.19914E+04  1.81468E+04  1.49458E+04  3.56189E+04 -2.33477E+03  4.09456E+04
 -2.32318E+04  3.38007E+04 -4.00224E+04  1.69741E+04 -4.09406E+04 -3.93489E+03 -3.30050E+04 -2.25325E+04
 -1.34333E+04 -3.42671E+04  1.23517E+04 -2.83508E+04  2.65207E+04 -1.40791E+04  2.14573E+04  7.28461E+03
  6.95355E+03  1.71280E+04 -1.10687E+04  1.49427E+04 -1.84996E+04  2.01710E+03 -1.34700E+04 -1.17298E+04
 -8.05772E+02 -1.82424E+04  9.03197E+03 -1.36191E+04  1.18312E+04 -1.21993E+03  3.50975E+03  8.22820E+03
 -8.14388E+03  3.18210E+03 -9.24242E+03 -6.17136E+03 -6.08930E+02 -1.57989E+04  1.07242E+04 -1.69811E+04
  2.17164E+04 -9.56778E+03  2.22481E+04  2.84443E+03  2.08977E+04  1.71008E+04  1.01136E+04  2.49511E+04
 -5.75026E+03  2.79301E+04 -1.69294E+04  1.94746E+04 -2.10408E+04  3.82393E+03 -1.42122E+04 -5.17283E+03
 -6.60870E+03 -7.22439E+03 -6.32512E+02  7.38357E+02 -2.98065E+03  3.30496E+03 -7.11496E+03  6.64903E+03
 -1.30250E+04  1.04690E+03 -1.36081E+04 -9.73327E+03 -5.28079E+03 -1.74262E+04  5.22664E+03 -1.25358E+04
  1.03597E+04 -7.07756E+03  8.52076E+03  3.72318E+03 -2.54922E+03  4.72358E+03 -6.57393E+03 -3.03985E+02
 -7.85998E+03 -9.73674E+03 -1.34365E+03 -1.27564E+04  7.07332E+03 -1.43645E+04  1.90733E+04 -8.58809E+03
  2.15730E+04  2.36611E+03  1.50351E+04  1.18527E+04  3.11045E+03  1.77894E+04 -9.46783E+03  1.49663E+04
 -1.15725E+04  4.83913E+03 -6.04282E+03 -3.58499E+03  3.43110E+03 -2.60334E+03  6.89182E+03 -9.82125E+02
  7.24447E+03  5.33252E+03  1.89400E+03  1.21184E+04 -8.20577E+03  1.11183E+04 -1.27660E+04  2.31790E+03
 -9.85202E+03 -7.52823E+03  3.40739E+02 -1.30714E+04  8.05105E+03 -6.49366E+03  7.40344E+03  3.09652E+03
  6.82433E+02  9.08625E+03 -6.63854E+03  1.01375E+04 -1.11818E+04  4.54466E+03 -1.32443E+04 -4.90317E+03
 -7.62874E+03 -1.29379E+04  4.36814E+03 -1.63964E+04  1.37622E+04 -8.55883E+03  1.30540E+04  2.99457E+03
  8.07387E+03  9.80337E+03 -6.61566E+02  1.49069E+04 -9.53754E+03  8.06617E+03 -1.15294E+04 -9.24025E+02
 -9.56426E+03 -1.06437E+04 -1.33185E+03 -9.52930E+03  6.02500E+03 -7.91494E+03  6.22843E+03 -2.54502E+03
  4.89119E+03  1.62987E+03 -1.20963E+02  8.64148E+02  9.04266E+02 -3.78641E+03  1.58777E+03 -8.38251E+03
  9.68116E+03 -3.54571E+03  1.47550E+04  2.27477E+03  1.26113E+04  9.40077E+03  1.06910E+04  1.64202E+04
 -4.69641E+03  2.07476E+04 -1.70526E+04  1.44962E+04 -2.26554E+04  3.77560E+03 -1.72192E+04 -7.29128E+03
 -8.82903E+03 -1.35004E+04 -9.52387E+01 -1.32340E+04  4.41859E+03 -6.01155E+03  3.53749E+03 -4.36957E+03
  3.49310E+03 -2.42387E+03  4.25194E+03 -3.18125E+03  4.08556E+03 -3.32510E+03  8.14140E+03 -8.31353E+02
  1.06783E+04  2.48471E+03  5.47156E+03  6.69012E+03 -2.16434E+03  8.88053E+03 -9.27661E+03  8.38278E+03
 -1.25891E+04 -1.86982E+03 -6.39930E+03 -7.35800E+03 -1.50778E+03 -1.21495E+04  8.38474E+03 -1.20571E+04
  1.24155E+04 -6.76512E+03  1.67551E+04  1.50995E+03  1.11538E+04  1.17566E+04  1.56941E+03  1.44915E+04
 -5.77430E+03  1.19191E+04 -7.80775E+03  3.35949E+03 -6.88891E+03 -7.51804E+02 -2.31059E+03 -3.43382E+03
 -4.70801E+02 -8.96436E+02 -3.48101E+03  5.89683E+02 -6.27050E+03  2.35836E+03 -7.64677E+03 -2.61013E+03
 -5.66154E+03 -8.56472E+03 -9.17454E+02 -1.30364E+04  8.38276E+03 -1.08500E+04  1.15937E+04 -4.90617E+03
  1.22277E+04  5.97352E+03  3.93865E+03  1.00727E+04 -2.58913E+03  1.23273E+04 -9.96260E+03  8.43366E+03
 -1.12808E+04 -8.02105E+02 -8.06436E+03 -7.25983E+03 -1.75756E+03 -7.20437E+03  4.77250E+03 -7.18475E+03
  9.16638E+03 -5.39385E+02  5.35450E+03  3.11491E+03  1.54698E+03  2.57893E+03  1.75220E+03  1.66374E+03
  2.39568E+03  9.54590E+02  3.72510E+03  3.78539E+02  2.78902E+03  5.19101E+03  4.69072E+03  6.41707E+03
 -2.90840E+03  1.01724E+04 -9.98112E+03  8.88613E+03 -1.30764E+04  3.20564E+03 -1.30180E+04 -5.11416E+03
 -6.15410E+03 -1.26729E+04  2.01355E+03 -1.34757E+04  7.40637E+03 -8.38624E+03  1.04537E+04 -3.31966E+03
  8.64784E+03  5.04455E+03 -2.53690E+02  8.12513E+03 -4.18798E+03  3.66053E+03 -4.80461E+03  3.39863E+02
 -1.59241E+03 -7.04875E+03  1.65451E+03 -5.08748E+03  3.43370E+03 -2.20435E+03  4.39620E+03  9.23533E+02
  2.30698E+03  2.15281E+03  1.69367E+03  1.47501E+03 -1.97612E+03  2.74220E+03  2.43697E+03 -1.10353E+03
  1.09171E+03 -1.04899E+03  7.22024E+03  1.36686E+03  2.33633E+03  6.70120E+03 -5.87647E+02  9.37595E+03
 -5.96480E+03  6.20540E+03 -7.34041E+03  1.53876E+03 -6.58424E+03 -3.00139E+03 -3.88338E+03 -3.80782E+03
  4.71429E+02 -4.91738E+03  3.94858E+03 -2.62689E+03  2.74217E+03  1.31879E+03 -6.35516E+02  3.56214E+03
 -5.26999E+03  9.70131E+02 -5.08745E+03 -3.71845E+03 -3.83309E+03 -7.53041E+03  1.71159E+03 -7.14648E+03
  3.94371E+03 -2.99968E+03  5.51080E+03 -2.23025E+03  4.12177E+03  2.03616E+03 -1.26333E+03  3.75276E+03
 -3.01869E+03  1.84393E+03 -2.80765E+03 -2.91279E+03  1.94849E+03 -4.54129E+03  6.01019E+03 -4.29547E+03
  7.57552E+03  9.50234E+02  8.58270E+03  5.64825E+03  1.93696E+03  8.58973E+03 -3.99612E+03  6.00163E+03
 -6.70644E+03  3.09174E+03 -7.60321E+03 -2.69000E+02 -2.78228E+03 -5.79439E+03  2.06582E+03 -5.22201E+03
  5.76720E+03 -2.19374E+03  4.97740E+03  1.61687E+03  5.82991E+02  4.94834E+03  4.02337E+02  4.07860E+03
 -2.87513E+03  1.68931E+03 -1.46417E+03 -6.33497E+02  4.02759E+01  1.39484E+03 -1.25706E+02  7.50201E+02
 -4.17390E+03  2.04467E+03 -5.38357E+03  2.91073E+03 -6.42840E+03  5.17263E+02 -8.63332E+03 -4.63181E+03
 -3.52338E+03 -1.04186E+04  1.67467E+03 -1.20060E+04  7.61304E+03 -9.97357E+03  1.19440E+04 -4.00146E+03
  1.17438E+04  1.40880E+03  6.11945E+03  8.14683E+03  7.59630E+02  8.34412E+03 -3.46479E+03  5.34406E+03
 -4.75261E+03  2.03631E+03 -1.83937E+03 -1.18971E+03  3.71990E+01 -3.46211E+02 -4.47907E+02 -2.12799E+03
  7.54771E+01  7.50189E+02 -1.70898E+03 -1.95175E+02 -5.73991E+02 -1.98055E+03 -3.14278E+02 -3.30532E+03
  4.08211E+03 -2.85503E+03  4.02479E+03 -4.82348E+02  5.17182E+03  6.54772E+03 -4.27068E+02  7.87030E+03
 -2.23475E+03  8.63493E+03 -8.38529E+03  4.32566E+03 -8.93902E+03 -6.02687E+02 -7.28791E+03 -6.33215E+03
 -4.08151E+03 -8.39453E+03  7.82671E+02 -7.43510E+03  5.86445E+03 -2.77451E+03  5.59216E+03 -1.31126E+03
  2.83614E+03  2.17123E+03 -1.60811E+03  5.39204E+03 -3.21545E+02  1.41294E+03  4.22973E+02 -2.23352E+03
  3.41106E+03 -1.53164E+03  2.53769E+03  1.62925E+03  2.83558E+03  3.66865E+03  6.49877E+02  3.58580E+03
 -3.23209E+03  3.83856E+03 -6.35613E+03  8.74759E+02 -3.63070E+03 -4.76744E+03 -1.00039E+03 -6.83466E+03
  5.64248E+03 -5.90588E+03  5.64776E+03 -2.11838E+03  5.04580E+03  1.01492E+03  3.21181E+03  5.30354E+03
  8.98687E+02  5.57485E+03 -2.90958E+03  3.89960E+03 -3.60344E+03  2.51408E+03 -3.25139E+03 -2.17585E+02
 -1.82551E+03 -1.16918E+03 -3.40384E+03  1.77987E+03 -3.17537E+03 -1.85959E+02 -5.75563E+03  1.08577E+02
 -3.64792E+03 -4.50307E+03 -8.13050E+02 -5.07461E+03  2.33557E+03 -6.06624E+03  5.34371E+03 -1.51149E+03
  5.02746E+03 -8.46863E+02  2.29738E+03  3.39393E+03 -2.41328E+02  5.22471E+03 -3.46910E+03  2.73238E+03
