 $NMID ID='MM_0lb_SNR200_19hz_g50_64.RAW', FMTDAT='(8E13.5)'
 TRAMP=1., VOLUME=1. $END
  3.09245E+05  7.07349E+02  3.38620E+05  2.50191E+05  8.35269E+04  3.37562E+05 -1.32094E+05  2.50268E+05
 -1.89259E+05  8.23207E+04 -1.11204E+05 -3.30337E+04  1.62200E+03 -5.04560E+04  5.55998E+04  4.26461E+02
  3.58624E+04  5.38174E+04 -1.82081E+04  7.47039E+04 -5.99058E+04  6.27992E+04 -8.35331E+04  3.16912E+04
 -8.02355E+04 -1.16661E+04 -5.57459E+04 -4.97630E+04 -1.48589E+04 -6.83085E+04  2.72895E+04 -4.42939E+04
  3.96918E+04  3.40608E+03  1.56262E+04  4.75538E+04 -3.42253E+04  4.57666E+04 -6.61530E+04  5.93358E+02
 -5.24169E+04 -5.53178E+04 -6.01190E+03 -7.53480E+04  3.33441E+04 -5.37963E+04  4.65604E+04 -1.77111E+04
  4.06575E+04  1.16862E+04  3.13396E+04  2.45315E+04  1.63069E+04  2.88033E+04 -5.28885E+03  2.71040E+04
 -2.17068E+04  1.17427E+04 -2.00667E+04 -4.50572E+03  4.26598E+03 -6.97002E+03  2.14013E+04  1.18339E+04
  7.44046E+03  3.41275E+04 -3.03501E+04  3.47209E+04 -6.15694E+04  3.04293E+03 -5.59191E+04 -4.20109E+04
 -1.25463E+04 -6.06577E+04  3.77622E+04 -4.40804E+04  5.53076E+04 -1.39508E+03  3.21533E+04  3.00151E+04
 -6.92045E+03  3.34193E+04 -2.77959E+04  1.35758E+04 -2.79980E+04 -6.79295E+03 -1.36011E+04 -8.86996E+03
 -8.00885E+03 -1.17466E+04 -7.20227E+02 -1.69859E+04  7.37209E+03 -2.15516E+04  1.51852E+04 -1.43161E+04
  1.15757E+04  3.08668E+03 -5.50998E+03  1.37514E+04 -1.93909E+04 -2.88219E+03 -8.13166E+03 -3.01052E+04
  2.04537E+04 -4.09263E+04  4.47883E+04 -1.93316E+04  4.23217E+04  1.79400E+04  1.51884E+04  4.15186E+04
 -1.58134E+04  3.10878E+04 -2.37050E+04  1.00131E+03 -7.01592E+03 -2.70767E+04  2.06060E+04 -3.08667E+04
  3.72573E+04 -7.22689E+03  3.17970E+04  2.24603E+04  1.56271E+04  4.32103E+04 -7.16632E+03  4.54751E+04
 -2.84823E+04  2.98752E+04 -3.74078E+04  8.39315E+03 -3.85106E+04 -1.43984E+04 -2.13093E+04 -3.45506E+04
  7.31837E+03 -3.44115E+04  2.96181E+04 -1.38697E+04  2.69884E+04  1.09928E+04  2.75997E+03  1.83248E+04
 -1.20762E+04  6.27068E+03 -1.07041E+04 -7.36877E+03  5.58886E+03 -9.58543E+03  1.79335E+04  6.75324E+03
  1.27258E+04  2.01962E+04 -6.33863E+03  2.34197E+04 -2.08284E+04  8.88457E+03 -2.52085E+04 -6.18561E+03
 -1.69087E+04 -1.56003E+04 -5.16384E+03 -1.58991E+04  2.46801E+03 -1.44378E+04  1.31299E+04 -1.44898E+04
  2.16479E+04 -1.22108E+04  2.78963E+04  2.58685E+02  2.16810E+04  1.64877E+04  3.61954E+03  3.16301E+04
 -1.63748E+04  2.76818E+04 -2.64109E+04  9.41969E+03 -1.96783E+04 -1.07960E+04 -3.31634E+03 -1.38636E+04
  2.59554E+03 -4.12954E+03 -2.52045E+03  4.56951E+03 -1.33238E+04  4.47598E+03 -1.43912E+04 -4.22633E+03
 -8.72787E+03 -1.52034E+04  5.79012E+03 -1.90024E+04  1.20667E+04 -1.35658E+04  1.48232E+04 -1.41722E+03
  9.60123E+03  9.96571E+03 -1.06611E+03  1.60346E+04 -9.84018E+03  1.00934E+04 -1.61853E+04 -2.72317E+03
 -1.14772E+04 -1.47517E+04 -2.53387E+03 -1.81379E+04  8.21374E+03 -1.54277E+04  1.55583E+04 -6.06014E+03
  1.34678E+04  9.71938E+01  9.70161E+03  3.68625E+03  6.29674E+03  6.82017E+02  7.13871E+03 -1.81623E+03
  1.45834E+04  3.81138E+03  1.46137E+04  1.29200E+04  8.17211E+03  2.42243E+04 -2.42088E+03  2.66419E+04
 -1.51991E+04  1.93977E+04 -2.45905E+04  9.77746E+03 -2.38502E+04 -1.49402E+03 -2.07757E+04 -1.38194E+04
 -1.07473E+04 -1.96884E+04  7.22244E+03 -2.04281E+04  1.63607E+04 -1.15355E+04  1.53206E+04  3.21331E+03
  7.29063E+03  1.04706E+04 -7.68325E+03  9.84694E+03 -1.31075E+04  2.85834E+03 -9.66251E+03 -8.35296E+03
  3.35907E+02 -1.12035E+04  6.27337E+03 -9.74725E+03  6.95227E+03 -1.82270E+03  1.56296E+03  4.94612E+03
 -5.17476E+03  7.11422E+02 -3.81117E+03 -4.92630E+03  3.75302E+01 -1.01020E+04  8.72873E+03 -9.72139E+03
  1.18924E+04 -4.42183E+03  1.21865E+04  1.57294E+03  8.73845E+03  8.80095E+03  5.05669E+03  1.33880E+04
 -1.22971E+03  1.58031E+04 -8.57282E+03  1.05483E+04 -1.09112E+04  2.77334E+03 -8.06197E+03 -2.53282E+03
 -4.23307E+03 -3.94477E+03 -2.45150E+02  2.71707E+03 -1.92247E+03  1.67842E+03 -3.81477E+03  3.13587E+03
 -8.05824E+03  1.34334E+03 -8.12937E+03 -6.53356E+03 -3.56125E+03 -1.05566E+04  3.09233E+03 -7.69815E+03
  6.48724E+03 -3.77955E+03  5.92417E+03  2.68879E+03  8.43432E+02  2.49598E+03 -2.99523E+03 -1.08774E+02
 -3.72659E+03 -4.44295E+03  1.43794E+03 -7.09282E+03  3.60576E+03 -7.32277E+03  1.04723E+04 -3.67373E+03
  1.09406E+04  1.17766E+03  8.71273E+03  6.21655E+03  2.06480E+03  7.78314E+03 -4.52911E+03  7.37287E+03
 -6.40981E+03  3.26441E+03 -3.49217E+03 -1.03512E+03  1.62225E+03 -1.59977E+03  4.26747E+03  8.09122E+01
  3.25007E+03  3.66446E+03  9.66671E+02  5.96023E+03 -3.12143E+03  6.38648E+03 -7.75217E+03  1.20099E+03
 -4.17807E+03 -3.34905E+03 -4.51544E+02 -7.75386E+03  3.58848E+03 -3.17173E+03  3.42910E+03  8.05293E+02
  2.04352E+02  3.28859E+03 -3.84884E+03  4.95163E+03 -4.66989E+03  2.65533E+03 -3.17863E+03  1.83692E+02
 -3.21498E+03 -5.82352E+03  1.56697E+03 -6.39086E+03  5.14037E+03 -4.99406E+03  5.81739E+03  5.72595E+02
  4.50940E+03  4.96657E+03  7.81845E+02  8.33903E+03 -3.97036E+03  3.82416E+03 -5.11324E+03 -7.86152E+02
 -4.93645E+03 -4.91372E+03 -4.52420E+02 -4.00888E+03  2.65577E+03 -3.94464E+03  3.45507E+03 -3.47840E+03
  2.47548E+03 -4.12727E+02  5.92333E+02  1.40823E+03  1.41535E+03  5.29902E+02 -3.36861E+02 -1.47922E+03
  3.65306E+03 -5.68888E+02  5.66613E+03  1.35583E+03  5.66979E+03  3.48726E+03  5.42917E+03  7.32226E+03
  2.90193E+01  7.72045E+03 -8.29402E+03  5.76499E+03 -9.47351E+03  8.65480E+02 -8.10884E+03 -2.50441E+03
 -4.90970E+03 -7.04457E+03  1.30098E+02 -3.69969E+03  2.67500E+03 -2.39968E+03  1.81563E+03 -2.38051E+03
  7.03792E+02 -1.51649E+03  1.41292E+03 -3.24298E+03  4.24541E+03  2.97517E+01  3.19739E+03  1.94174E+02
  4.06791E+03  3.76143E+02  2.13755E+02  3.31946E+03 -1.80538E+03  2.66779E+03 -3.56483E+03  1.65075E+03
 -4.73866E+03 -1.01406E+03 -2.16202E+03 -3.09107E+03  7.44919E+02 -5.55794E+03  3.25496E+03 -4.77747E+03
  4.13238E+03 -3.51665E+03  6.35474E+03 -4.92297E+02  4.16695E+03  3.50278E+03  1.10826E+03  5.70877E+03
 -1.08067E+03  5.19814E+03 -3.57198E+03  1.41228E+03 -1.57259E+03 -1.52768E+03  3.11644E+02 -5.93901E+02
 -3.37190E+02  5.37188E+02 -2.22108E+02  2.23887E+03 -2.13051E+03  1.21725E+03 -3.56662E+03 -5.99050E+00
 -2.61132E+03 -4.04315E+03  2.97259E+02 -4.41893E+03  1.57510E+03 -3.57789E+03  2.90291E+03 -1.38793E+03
  3.59505E+03  1.63710E+03  1.10609E+03  3.22172E+03 -5.32066E+02  4.77313E+03 -1.32992E+03  2.31276E+03
 -3.05216E+03 -1.29952E+02 -3.65246E+03 -2.63706E+03  5.22667E+02 -2.91368E+03  1.21655E+03 -3.06220E+03
  2.31936E+03 -7.43322E+01  1.75987E+03  1.17396E+03  4.34041E+02  7.63353E+02  7.42236E+02  7.88475E+02
  1.61903E+03  4.84543E+02  1.58135E+03  5.10171E+02  1.66403E+03  1.54225E+03  7.52384E+02  1.45594E+03
 -1.73749E+03  1.47749E+03 -1.72017E+03  4.17053E+03 -3.96342E+03  1.94015E+03 -3.56575E+03 -1.29197E+02
 -1.96900E+03 -3.44720E+03  1.58989E+03 -4.73441E+03  7.65275E+02 -2.30659E+03  1.86126E+03 -1.19325E+03
  2.15126E+03  1.56515E+03 -7.12398E+01  1.49157E+03 -1.97597E+03  3.61594E+02 -1.52837E+03 -1.52592E+02
 -1.41805E+03 -1.37557E+03  1.78247E+03 -1.18031E+03  1.48899E+03 -1.96560E+03  1.03180E+03  2.96570E+02
 -1.85914E+02  1.92625E+02  1.19160E+03 -4.13005E+02 -6.56461E+02  3.63245E+02  8.59199E+02 -6.28879E+02
  1.22307E+03 -9.55620E+01  1.65451E+03  3.44598E+02 -1.46107E+02  1.49666E+03  1.68009E+02  2.61532E+03
 -2.43638E+03  1.19139E+03 -8.07217E+02  7.20822E+02 -3.93871E+03 -8.66159E+02 -8.78539E+01 -8.40013E+02
 -1.49611E+02 -4.84524E+02  6.56516E+02 -1.04860E+03  2.25141E+02  5.02640E+02 -5.23770E+02  7.89126E+02
 -1.51152E+03  3.81805E+02 -8.11045E+02 -1.44188E+03 -6.41449E+02 -1.44172E+03 -4.70325E+02 -2.23039E+03
  2.28004E+02 -7.69551E+02  8.24000E+02 -9.41069E+02 -4.29181E+02  8.58535E+02  2.92157E+02  7.02455E+02
 -6.49514E+02 -9.22369E+02 -1.12631E+03  9.40256E+02  5.59345E+02 -3.97388E+02  1.23303E+03 -2.33681E+02
  1.11054E+03  6.72608E+01  2.24487E+03  1.04765E+03  8.77524E+02  1.79824E+03 -1.37673E+02  8.79547E+02
 -1.97844E+03  1.09613E+03 -9.74652E+02  7.37994E+02 -1.69088E+02 -1.36059E+03 -9.22362E+01 -1.60159E+03
  1.82304E+03 -5.20435E+02  4.15564E+02 -5.29242E+02  2.93029E+02 -2.79320E+02  5.16844E+02  1.39095E+03
 -5.54156E+02  2.08918E+03 -1.99590E+03 -1.24327E+02  4.53383E+02  2.72317E+02 -7.18757E+02  1.09547E+03
 -7.82315E+02  9.18326E+02 -1.68759E+03  1.60283E+02 -1.91355E+03  8.91208E+02 -3.31065E+03  6.09018E+02
 -5.02614E+02 -3.70320E+03  5.51016E+02 -3.21612E+03  8.57605E+02 -2.73062E+03  1.88951E+03 -2.24957E+03
  2.52364E+03  7.66784E+00  1.57325E+03  1.16595E+03 -1.05703E+03  7.54459E+02 -8.87913E+02  1.30505E+03
 -2.42504E+02  2.38989E+02 -3.67229E+02 -1.44637E+03  6.09169E+02  7.86892E+01 -1.63030E+03  4.23765E+02
 -1.74576E+03 -4.73912E+00 -6.75903E+02 -2.84344E+02  6.48854E+02 -4.44550E+02 -2.74889E+02 -6.50278E+02
  7.98652E+02  2.77499E+02 -6.70686E+01  5.01310E+02  1.28902E+03  2.20602E+03  1.96987E+02  1.77053E+03
 -1.56855E+03  2.74564E+03 -8.35969E+02  5.17480E+02 -1.85053E+03 -3.78083E+02 -6.04111E+02 -7.16051E+02
 -1.36127E+03 -1.96903E+03 -1.16427E+03 -1.49211E+03  7.30098E+02  7.36908E+02  4.63908E+02  5.71702E+02
  4.86577E+02  2.20132E+02 -4.26756E+02 -9.04020E+02 -8.00526E+02  1.13309E+02  1.85171E+02 -6.47393E+02
 -1.67709E+02  6.82655E+02  1.36246E+02  1.12283E+03  2.51789E+02  1.84514E+03  8.95490E+02 -4.46428E+02
  4.80727E+02  8.72761E+02 -4.18685E+02  7.05597E+01 -6.01759E+02 -2.68882E+02 -5.96664E+02 -2.09621E+03
  3.30092E+02 -1.15028E+03  1.24438E+03 -1.38269E+02  6.56784E+02 -1.17094E+03 -3.29558E+02  1.20092E+03
 -4.03754E+01  6.54045E+02  6.07637E+02  6.51626E+02 -7.95131E+01  1.99181E+02 -1.06208E+03 -1.73218E+02
  4.72844E+02  5.89031E+02  2.89707E+02  5.01874E+02 -1.46707E+02 -9.19883E+02 -1.26424E+03 -2.81116E+01
 -1.25059E+03 -8.96094E+02 -1.41583E+03  2.59045E+02  1.97660E+03 -9.43373E+02  1.18329E+03 -8.16305E+02
  6.92572E+02  3.11410E+02  2.70015E+02  5.04070E+02 -2.52961E+02  6.52577E+02 -4.35345E+02 -7.52151E+02
