 $NMID ID='MM_0lb_SNR200_20hz_g40_84.RAW', FMTDAT='(8E13.5)'
 TRAMP=1., VOLUME=1. $END
  3.10697E+05  1.36715E+03  3.36810E+05  2.49853E+05  8.51220E+04  3.38064E+05 -1.32374E+05  2.50318E+05
 -1.88845E+05  8.15646E+04 -1.10776E+05 -3.23978E+04  1.85769E+03 -4.99022E+04  5.39111E+04 -7.42887E+02
  3.48547E+04  5.29106E+04 -1.68008E+04  7.37938E+04 -6.06990E+04  6.22203E+04 -8.23744E+04  3.00973E+04
 -7.89010E+04 -1.08270E+04 -5.57472E+04 -5.02218E+04 -1.42920E+04 -6.79925E+04  2.53749E+04 -4.37243E+04
  3.79688E+04  4.13295E+03  1.51590E+04  4.72524E+04 -3.29341E+04  4.56916E+04 -6.45254E+04 -9.23877E+02
 -5.12578E+04 -5.53986E+04 -6.43650E+03 -7.42069E+04  3.23646E+04 -5.21991E+04  4.47556E+04 -1.56792E+04
  4.00865E+04  1.06060E+04  2.95387E+04  2.31196E+04  1.52356E+04  2.76573E+04 -4.45384E+03  2.76105E+04
 -2.09643E+04  1.30568E+04 -1.92487E+04 -3.63529E+03  3.35383E+03 -7.05760E+03  2.07216E+04  1.04869E+04
  7.82650E+03  3.36047E+04 -3.07101E+04  3.43734E+04 -5.98719E+04  2.22420E+03 -5.47049E+04 -4.04024E+04
 -1.19975E+04 -5.95417E+04  3.70751E+04 -4.27581E+04  5.41878E+04 -1.19631E+03  3.14263E+04  2.96241E+04
 -6.06386E+03  3.18615E+04 -2.75980E+04  1.20745E+04 -2.62613E+04 -5.34493E+03 -1.25558E+04 -9.82726E+03
 -6.93369E+03 -9.54404E+03 -5.58151E+02 -1.48542E+04  6.41754E+03 -2.25306E+04  1.51275E+04 -1.42004E+04
  1.30298E+04  3.02236E+03 -4.91897E+03  1.38665E+04 -1.82337E+04 -1.13553E+03 -8.62243E+03 -2.81402E+04
  1.90048E+04 -3.98318E+04  4.17660E+04 -1.83068E+04  4.06536E+04  1.70112E+04  1.27960E+04  3.96821E+04
 -1.47214E+04  2.89101E+04 -2.28476E+04  6.00085E+02 -7.15132E+03 -2.48361E+04  2.05439E+04 -2.99714E+04
  3.64510E+04 -7.30983E+03  2.96574E+04  2.29157E+04  1.39336E+04  4.07834E+04 -8.18412E+03  4.25491E+04
 -2.63132E+04  2.81066E+04 -3.49868E+04  8.36894E+03 -3.58049E+04 -1.37730E+04 -2.04559E+04 -3.20275E+04
  5.69175E+03 -3.18371E+04  2.85888E+04 -1.16327E+04  2.44215E+04  1.08997E+04  4.12082E+03  1.71284E+04
 -1.23280E+04  5.96311E+03 -9.01509E+03 -7.83342E+03  6.46567E+03 -9.90408E+03  1.75485E+04  6.83800E+03
  1.19991E+04  2.15438E+04 -7.38946E+03  2.27507E+04 -2.23109E+04  7.58629E+03 -2.33222E+04 -7.12447E+03
 -1.55047E+04 -1.71919E+04 -4.35949E+03 -1.48586E+04  4.60885E+03 -1.25885E+04  9.46747E+03 -1.30213E+04
  1.89272E+04 -1.07816E+04  2.69806E+04  9.41569E+02  2.00539E+04  1.54839E+04  3.61850E+03  3.03582E+04
 -1.49682E+04  2.73176E+04 -2.37071E+04  8.38257E+03 -1.90490E+04 -1.04105E+04 -3.76453E+03 -1.37931E+04
  3.83219E+03 -5.21456E+03 -2.26252E+03  5.65781E+03 -1.18259E+04  5.91887E+03 -1.27458E+04 -4.42618E+03
 -8.97513E+03 -1.41374E+04  3.52173E+03 -1.88906E+04  1.18479E+04 -1.31762E+04  1.29779E+04 -1.11552E+03
  7.38572E+03  9.45322E+03 -1.43879E+03  1.36295E+04 -8.82137E+03  8.05587E+03 -1.30100E+04 -4.23086E+03
 -1.07366E+04 -1.32957E+04 -2.01596E+03 -1.81497E+04  8.18795E+03 -1.29748E+04  1.42763E+04 -6.22217E+03
  1.30707E+04  2.03442E+03  9.66003E+03  3.72780E+03  4.60107E+03  1.38176E+03  6.76369E+03 -9.98010E+02
  1.27182E+04  1.84906E+03  1.25691E+04  1.15820E+04  7.56181E+03  2.32228E+04 -4.06197E+03  2.44568E+04
 -1.47771E+04  1.67461E+04 -2.31133E+04  7.61406E+03 -2.20832E+04 -2.58017E+03 -1.89103E+04 -1.18207E+04
 -8.83191E+03 -1.77922E+04  5.54717E+03 -1.75550E+04  1.53919E+04 -9.25250E+03  1.50396E+04  3.45584E+03
  5.90765E+03  1.01549E+04 -7.16646E+03  9.22954E+03 -1.35008E+04  2.86935E+03 -8.74751E+03 -7.40747E+03
 -2.48688E+02 -1.12260E+04  5.74563E+03 -9.08069E+03  6.46149E+03 -1.07389E+03  1.36833E+03  4.32178E+03
 -5.27510E+03  8.95102E+02 -2.01441E+03 -5.05428E+03  1.04912E+03 -9.17073E+03  7.40607E+03 -9.18697E+03
  1.03123E+04 -3.91562E+03  9.30599E+03  3.05025E+03  7.93777E+03  7.84658E+03  4.50233E+03  1.24831E+04
 -1.33865E+03  1.39461E+04 -8.36672E+03  9.31953E+03 -9.64950E+03  2.62157E+03 -6.61767E+03 -1.32645E+03
 -5.60563E+03 -2.79704E+03 -7.31430E+02  3.60641E+02 -1.58216E+03  1.68867E+03 -3.08415E+03  3.36932E+03
 -7.15669E+03 -5.37381E+02 -8.84901E+03 -7.16647E+03 -3.32613E+03 -9.44281E+03  3.39126E+03 -7.50915E+03
  5.84715E+03 -3.55646E+03  4.63348E+03  1.49695E+03  1.07685E+03  2.38165E+03 -3.19794E+03  1.06015E+03
 -2.12513E+03 -4.92337E+03  7.69978E+01 -5.59911E+03  3.09438E+03 -6.90691E+03  8.56373E+03 -2.72998E+03
  9.91836E+03 -1.65990E+02  7.87837E+03  4.84180E+03  1.66600E+03  7.05246E+03 -5.34071E+03  7.64700E+03
 -6.54158E+03  2.08944E+03 -3.31311E+03  2.82352E+00  1.79181E+03 -2.34470E+03  4.35630E+03 -1.28111E+03
  3.05960E+03  2.66871E+03  2.07871E+03  5.12759E+03 -4.70893E+03  4.93732E+03 -5.97690E+03  2.13529E+03
 -4.33808E+03 -3.06212E+03 -4.02475E+02 -6.26442E+03  3.53966E+03 -1.58007E+03  3.30093E+03  1.36861E+03
  3.77491E+02  2.49572E+03 -3.40861E+03  4.63821E+03 -3.56405E+03  2.10113E+03 -2.14550E+03 -1.76002E+02
 -2.29591E+03 -4.47804E+03  1.14353E+03 -5.08047E+03  3.67186E+03 -3.07208E+03  5.15937E+03  9.78497E+02
  3.35732E+03  3.96537E+03 -2.15768E+02  5.81665E+03 -4.95883E+03  3.35289E+03 -3.77952E+03 -4.47087E+02
 -5.59069E+03 -4.72093E+03 -1.48510E+03 -3.73605E+03  1.51204E+03 -4.78419E+03  2.27152E+03 -2.78310E+03
  3.48735E+03 -7.75538E+02  8.07054E+02  1.13301E+03  1.17895E+03  1.71635E+02 -6.65533E+01 -1.87977E+03
  3.04978E+03 -3.70518E+02  4.19192E+03  4.45614E+02  3.53043E+03  2.66007E+03  5.03086E+03  5.23206E+03
 -1.14856E+03  5.77362E+03 -6.50702E+03  5.94952E+03 -8.78656E+03  5.05659E+02 -6.38129E+03 -2.23325E+03
 -3.55797E+03 -5.51334E+03 -1.94263E+02 -3.55726E+03  1.20255E+03 -2.08963E+03  1.24278E+03 -2.10097E+03
 -1.72887E+02 -1.51882E+02  1.49245E+03 -1.94117E+03  2.64997E+03 -4.54666E+02  3.68674E+03 -5.11950E+02
  4.40008E+03  3.27404E+02  2.15223E+03  2.17314E+03 -2.20430E+03  2.65915E+03 -3.69436E+03  1.73966E+03
 -3.80467E+03 -1.93382E+03 -1.05547E+03 -3.50470E+03  5.98210E+02 -3.17238E+03  2.44202E+03 -4.50568E+03
  3.77152E+03 -2.11421E+03  5.04922E+03 -1.47764E+02  3.37585E+03  2.62516E+03  1.46890E+03  4.21997E+03
 -8.53062E+02  4.43105E+03 -3.11001E+03  1.76421E+03 -9.81806E+02 -1.67854E+03 -9.70312E+02 -2.15103E+02
 -3.13725E+01  3.94068E+02 -9.77851E+02  1.79444E+03 -2.36348E+03  7.12271E+02 -4.17091E+03 -1.93885E+02
 -5.83885E+02 -3.97894E+03  1.19468E+03 -4.07119E+03  1.63849E+03 -4.05963E+03  2.31122E+03 -1.65138E+03
  2.71438E+03  2.70495E+03  1.23008E+03  2.23103E+03 -1.15350E+03  3.63214E+03 -2.41309E+03  2.33013E+03
 -3.71458E+03  1.77451E+03 -1.74430E+03 -2.64086E+03 -1.26507E+03 -2.16753E+03  9.62749E+02 -1.09341E+03
  2.01011E+03 -7.78841E+02  1.60418E+03  6.38823E+01  5.19894E+02  1.82998E+03  6.14314E+02  8.13578E+02
  1.39175E+03  6.58281E+02  5.52407E+02  1.01467E+02  3.56112E+02  1.43641E+03  1.66765E+03  1.94363E+03
 -4.03861E+02  2.49341E+03 -1.74108E+03  3.77964E+03 -2.50030E+03  3.80429E+02 -2.43818E+03  4.23067E+02
 -3.30216E+02 -2.56861E+03  3.29303E+02 -3.43499E+03  2.33957E+03 -2.25643E+03  1.90989E+03 -1.06688E+03
  7.82901E+02  1.09541E+03  2.47254E+02  1.46660E+03 -1.31907E+03  1.07883E+03 -4.86255E+02 -7.53989E+02
 -8.32407E+02 -1.54945E+03  1.40473E+03 -7.22064E+02  1.76809E+03 -3.56550E+01  8.21947E+02 -1.82031E+02
  1.21090E+03  2.15416E+02  2.51096E+02  2.66057E+02 -1.65679E+02  5.49653E+02  1.75917E+03  1.21302E+03
  4.82308E+02  5.99488E+02  1.02832E+03  7.89726E+02 -1.16470E+02  1.42887E+03  8.16212E+01  2.29962E+03
 -9.65707E+02  1.13669E+03 -9.38478E+02  5.66800E+02 -1.82489E+03 -5.82238E+02  3.27194E+02  6.59481E+02
  8.49474E+02 -1.25848E+03  1.03268E+03 -1.23335E+03  6.85620E+02  6.23042E+02 -1.71951E+02  2.37055E+02
 -8.11912E+01  2.51966E+02 -2.71441E+02 -1.11471E+03 -1.21869E+03 -1.61023E+03  4.25931E+02 -1.42758E+03
 -1.97667E+02 -1.65100E+02  4.74738E+02  2.28838E+02  1.63524E+03 -1.08223E+03  5.67076E+02  1.82899E+03
  3.74831E+02 -6.21027E+02 -9.40917E+02  3.46332E+02  1.00186E+03 -8.03657E+02  1.44405E+03 -1.28913E+03
  1.07228E+03 -4.58142E+02  1.17455E+03  4.48884E+02  1.04787E+03  1.55597E+03  8.41328E+02  1.28183E+03
 -1.19444E+03 -5.04857E+02 -9.15462E+01  1.39602E+02 -1.79728E+03 -6.22141E+02  7.47655E+02  3.27740E+00
  2.58197E+02 -5.72852E+02  2.92075E+02  5.74504E+01  1.37023E+01  8.97468E+02  4.43914E+02  1.12292E+03
 -2.51180E+02  1.64901E+03 -1.50925E+02  5.47304E+02 -1.79927E+02  2.55401E+02 -1.39124E+03  5.14631E+01
 -8.63069E+02  1.09662E+03 -1.76655E+03  5.35189E+01 -1.18281E+03  2.98053E+02 -2.34433E+03 -1.00831E+03
 -4.91127E+02 -6.62659E+02 -6.04329E+02 -2.18987E+03  2.88027E+01 -1.87381E+03  1.08225E+03 -1.92337E+03
  1.67455E+03 -8.99472E+01  1.51490E+03  1.52271E+03 -1.24305E+03  9.33179E+02 -1.22313E+03 -1.02775E+02
 -7.49842E+02  5.46988E+02  1.25449E+02 -6.20833E+02 -1.15410E+03 -5.65218E+01 -4.94687E+02 -3.93795E+02
 -2.90925E+02  7.23330E+01 -1.05764E+03  1.27278E+02  2.97143E+01  3.16206E+02 -1.99493E+02 -2.46409E+02
  6.60164E+02  1.42314E+02 -1.77256E+02 -2.92304E+02  1.04666E+03  3.91745E+02  1.32538E+02  9.76457E+02
 -1.26042E+03  1.58717E+03 -9.10824E+02  1.64283E+03 -2.94034E+02  3.77719E+02 -9.32023E+02 -5.38114E+02
 -7.42658E+02 -1.56178E+03  5.09790E+02 -9.64143E+02  5.13504E+02 -9.17918E+02  1.15775E+03  2.22537E+01
  6.53408E+02  3.33807E+02  2.73108E+02  2.53631E+02 -1.00174E+03  1.52744E+02  9.34805E+02 -1.28996E+02
 -4.59495E+02  4.38856E+02  9.76966E+01  1.12109E+03  3.25886E+01  6.45582E+02  5.06750E+01 -5.38482E+02
 -2.18350E+02  4.19769E+02 -9.91611E+02 -2.57727E+02 -6.95559E+02  2.99513E+02 -9.84903E+01 -5.82385E+02
  5.78008E+02  3.59025E+02  1.16870E+01  2.53679E+02  1.54893E+03 -7.73449E+02  5.36846E+02  1.79335E+03
  1.53463E+02 -3.83554E+02  6.75944E+02 -2.34473E+02  7.67550E+01  4.07782E+02  3.06344E+02 -9.81484E+02
 -1.11265E+02  2.32028E+02  7.85585E+02 -1.68364E+03  1.86886E+02 -5.04944E+02 -4.43712E+02 -1.09715E+02
 -1.72894E+03  1.70005E+03 -2.69175E+02 -7.64190E+02  6.69300E+02 -1.15821E+03  1.18360E+02 -5.90580E+02
  1.14198E+03 -2.21713E+02 -8.04774E+01  3.46149E+02 -1.07054E+03  1.46197E+03  3.83624E+01  5.40383E+02
