 $NMID ID='MM_0lb_SNR200_9hz_g50_39.RAW', FMTDAT='(8E13.5)'
 TRAMP=1., VOLUME=1. $END
  3.09816E+05  6.34174E+02  3.39112E+05  2.50794E+05  8.56732E+04  3.39057E+05 -1.33921E+05  2.51994E+05
 -1.90906E+05  8.28386E+04 -1.13214E+05 -3.13779E+04 -4.47534E+02 -5.04804E+04  5.27052E+04  1.09081E+03
  3.55750E+04  5.09125E+04 -1.67476E+04  7.60218E+04 -6.10723E+04  6.44666E+04 -8.48978E+04  3.16193E+04
 -8.19301E+04 -1.11697E+04 -5.80314E+04 -5.26779E+04 -1.55823E+04 -7.13117E+04  2.70754E+04 -4.69898E+04
  4.16231E+04  4.07250E+03  1.58279E+04  4.89134E+04 -3.36003E+04  4.86688E+04 -6.96785E+04 -9.22380E+02
 -5.50597E+04 -5.73621E+04 -5.42619E+03 -7.79743E+04  3.44958E+04 -5.50297E+04  5.06264E+04 -1.80462E+04
  4.42245E+04  1.07928E+04  3.20337E+04  2.70363E+04  1.79669E+04  3.02481E+04 -5.11208E+03  2.95806E+04
 -2.26026E+04  1.18822E+04 -1.85726E+04 -6.30044E+03  7.27611E+03 -8.28534E+03  2.22056E+04  1.52396E+04
  6.17235E+03  3.77988E+04 -3.35777E+04  3.61509E+04 -6.44837E+04  2.61204E+03 -5.92328E+04 -4.49151E+04
 -1.33386E+04 -6.43757E+04  4.05596E+04 -4.66589E+04  6.23531E+04 -2.95284E+03  3.68333E+04  3.51214E+04
 -6.54493E+03  3.91078E+04 -3.13101E+04  1.88452E+04 -3.32868E+04 -3.24658E+03 -1.94495E+04 -1.30933E+04
 -1.01947E+04 -1.61521E+04 -1.06855E+02 -1.96297E+04  9.20862E+03 -2.25784E+04  1.56187E+04 -1.41389E+04
  1.01102E+04  5.64599E+03 -1.17793E+04  1.31856E+04 -2.40449E+04 -7.40292E+03 -7.23633E+03 -3.76029E+04
  2.36621E+04 -4.79425E+04  5.23316E+04 -2.09543E+04  4.97651E+04  2.10629E+04  1.59824E+04  4.65546E+04
 -1.67455E+04  3.48591E+04 -2.75234E+04  9.79748E+02 -1.20524E+04 -2.84531E+04  2.24047E+04 -3.63134E+04
  4.24603E+04 -9.63188E+03  3.92900E+04  2.43929E+04  2.31824E+04  4.92894E+04 -7.91799E+03  5.54458E+04
 -3.56262E+04  3.70367E+04 -4.75574E+04  1.09470E+04 -4.81108E+04 -1.73544E+04 -2.45031E+04 -4.42086E+04
  8.86199E+03 -4.08286E+04  3.19074E+04 -1.56998E+04  3.23794E+04  1.12445E+04  5.58936E+03  2.17887E+04
 -1.36409E+04  9.28830E+03 -1.00110E+04 -8.14805E+03  6.06650E+03 -1.10393E+04  1.94632E+04  6.30321E+03
  1.48762E+04  2.29615E+04 -3.42235E+03  2.66965E+04 -2.14588E+04  1.38811E+04 -3.19750E+04 -2.30787E+03
 -2.42458E+04 -2.01700E+04 -1.16537E+04 -2.43342E+04  2.92932E+03 -2.64344E+04  1.99026E+04 -2.24227E+04
  3.21191E+04 -1.51197E+04  3.73542E+04  3.74178E+03  2.76504E+04  2.52005E+04  4.56412E+03  4.27792E+04
 -2.03643E+04  3.24034E+04 -3.07429E+04  1.09922E+04 -2.14182E+04 -1.13374E+04 -6.08663E+03 -1.29899E+04
  2.01207E+03 -4.26440E+02 -8.18021E+03  7.82543E+03 -2.04453E+04  5.92331E+03 -2.29655E+04 -1.08054E+04
 -1.28919E+04 -2.14809E+04  6.14156E+03 -2.69143E+04  2.06392E+04 -1.90044E+04  2.30383E+04  1.53806E+02
  1.44573E+04  1.56839E+04 -3.38217E+03  2.30147E+04 -1.73878E+04  1.46644E+04 -2.42300E+04 -3.95073E+03
 -1.64297E+04 -2.10704E+04 -1.84433E+03 -2.81637E+04  1.26288E+04 -2.32372E+04  2.03254E+04 -1.35863E+04
  2.21516E+04 -1.62200E+03  1.55052E+04  5.82491E+03  8.33249E+03  5.93444E+02  1.19863E+04 -1.27875E+03
  2.10708E+04  1.47116E+03  2.37653E+04  1.85117E+04  1.70848E+04  3.78091E+04 -2.50947E+03  4.38032E+04
 -2.40397E+04  3.61573E+04 -4.32616E+04  1.80848E+04 -4.41062E+04 -2.43362E+03 -3.59551E+04 -2.66355E+04
 -1.45488E+04 -3.73824E+04  1.30588E+04 -3.15887E+04  2.76951E+04 -1.60914E+04  2.43498E+04  7.53545E+03
  7.32352E+03  1.78644E+04 -1.24057E+04  1.57023E+04 -2.00805E+04  1.36529E+03 -1.48740E+04 -1.28308E+04
  3.08867E+02 -1.96350E+04  9.56209E+03 -1.44029E+04  1.37262E+04 -1.35803E+03  5.74182E+03  9.59183E+03
 -1.12336E+04  4.38813E+03 -1.18014E+04 -7.35668E+03 -3.09612E+02 -1.80063E+04  1.29305E+04 -2.00018E+04
  2.38240E+04 -1.09966E+04  2.44714E+04  4.06884E+03  2.22599E+04  1.85232E+04  1.25424E+04  2.78944E+04
 -4.85229E+03  3.08119E+04 -2.01037E+04  1.85885E+04 -2.25523E+04  3.60916E+03 -1.45919E+04 -5.67219E+03
 -7.63074E+03 -7.49894E+03  3.51256E+02  5.44584E+02 -2.31346E+03  2.93781E+03 -6.81503E+03  4.91353E+03
 -1.42267E+04 -1.71757E+03 -1.34785E+04 -1.09934E+04 -5.38383E+03 -2.09633E+04  7.21466E+03 -1.53971E+04
  1.34537E+04 -5.59809E+03  9.85684E+03  5.80516E+03 -1.26122E+03  6.44174E+03 -7.24521E+03 -7.88778E+02
 -6.87031E+03 -1.10347E+04 -3.83381E+03 -1.57860E+04  8.69621E+03 -1.66037E+04  2.10317E+04 -8.12426E+03
  2.36054E+04  2.34317E+03  1.64758E+04  1.40218E+04  3.49619E+03  1.86332E+04 -9.83272E+03  1.36702E+04
 -1.23082E+04  3.34648E+03 -7.17564E+03 -4.25709E+03  1.24710E+03 -4.73710E+03  8.76707E+03 -1.62043E+03
  7.82581E+03  6.99597E+03  5.35778E+02  1.30889E+04 -9.39115E+03  1.30177E+04 -1.48706E+04  3.67584E+03
 -1.05929E+04 -9.80874E+03 -7.22373E+02 -1.28144E+04  7.19144E+03 -6.10363E+03  9.49619E+03  2.75557E+03
  2.10033E+03  9.86190E+03 -7.45697E+03  1.21728E+04 -1.44601E+04  5.76703E+03 -1.48404E+04 -6.69916E+03
 -7.80638E+03 -1.44344E+04  1.54522E+03 -1.74501E+04  1.51871E+04 -1.04490E+04  1.54412E+04  2.76837E+03
  1.03944E+04  1.24601E+04 -1.87317E+03  1.66849E+04 -1.30901E+04  8.45726E+03 -1.42800E+04 -1.42716E+03
 -1.08707E+04 -1.17089E+04 -1.13630E+03 -1.06977E+04  5.19747E+03 -1.02091E+04  7.23898E+03 -2.90584E+03
  5.61989E+03  2.78429E+03 -1.17677E+03  2.92356E+03 -3.49298E+02 -4.46363E+03  1.65276E+03 -8.28519E+03
  1.08650E+04 -3.95455E+03  1.58057E+04  1.53604E+03  1.47696E+04  1.08882E+04  1.00093E+04  2.04348E+04
 -4.87101E+03  2.46998E+04 -2.09509E+04  1.90692E+04 -2.60126E+04  3.20614E+03 -2.16242E+04 -1.13785E+04
 -1.06679E+04 -1.76920E+04 -1.60569E+02 -1.59896E+04  5.79233E+03 -7.61183E+03  5.04109E+03 -4.73106E+03
  3.54803E+03 -3.29324E+03  4.27795E+03 -3.09914E+03  6.54449E+03 -2.26780E+03  8.00198E+03 -2.05242E+03
  9.86147E+03  4.14865E+03  4.60148E+03  8.49705E+03  2.43677E+02  1.19714E+04 -1.23473E+04  7.41215E+03
 -1.46580E+04 -1.50543E+03 -1.10034E+04 -1.05669E+04 -2.17000E+03 -1.58136E+04  9.36868E+03 -1.62548E+04
  1.59685E+04 -8.42270E+03  1.87674E+04  2.76272E+03  1.37438E+04  1.44885E+04  1.85818E+02  1.88181E+04
 -5.78935E+03  1.33857E+04 -1.07879E+04  6.39318E+03 -5.32417E+03 -2.45677E+03 -3.17742E+03 -7.98183E+02
 -1.84035E+03  3.82093E+02 -4.98604E+02  4.84401E+03 -5.43524E+03  1.57786E+03 -9.02324E+03 -2.13401E+03
 -9.73020E+03 -9.22423E+03  1.64905E+02 -1.48173E+04  7.75198E+03 -1.38882E+04  1.49476E+04 -4.39770E+03
  1.47470E+04  6.36104E+03  6.12666E+03  1.25904E+04 -2.46729E+03  1.46500E+04 -1.08274E+04  9.26160E+03
 -1.40149E+04  9.51231E+02 -1.02423E+04 -9.47891E+03 -1.22299E+03 -1.33962E+04  6.31232E+03 -7.50774E+03
  1.04975E+04 -1.13708E+03  6.56151E+03  2.80744E+03  2.19889E+03  5.57577E+03  6.35727E+02  2.57666E+03
  2.69331E+03  1.80705E+02  1.31291E+03  3.49991E+03  3.91044E+03  5.84292E+03  3.57075E+03  7.00382E+03
 -1.72656E+03  1.21793E+04 -1.08034E+04  1.18964E+04 -1.65379E+04  6.73063E+02 -1.53833E+04 -7.40329E+03
 -8.48137E+03 -1.54188E+04  3.12616E+03 -1.42258E+04  1.03821E+04 -9.96297E+03  1.31849E+04 -2.72227E+03
  8.83744E+03  3.80746E+03  2.75237E+03  8.61415E+03 -4.80021E+03  5.54476E+03 -6.55855E+03 -5.48739E+02
 -2.45961E+03 -6.72841E+03  4.10029E+03 -6.54882E+03  5.89703E+03 -3.82500E+03  4.06079E+03  2.79610E+03
  2.32948E+03  3.74659E+03  5.19665E+02  1.30444E+03 -6.27525E+02  3.05006E+03  8.71384E+02 -3.55682E+02
  2.56256E+03 -1.51492E+03  7.46113E+03  4.06910E+03  3.86604E+03  7.51025E+03 -2.50925E+02  1.10630E+04
 -7.02767E+03  5.78926E+03 -9.73174E+03  2.76862E+03 -8.44970E+03 -2.65950E+03 -3.67996E+03 -6.95102E+03
 -1.04550E+03 -5.46552E+03  5.06013E+03 -3.10420E+03  3.06636E+03  1.88479E+03 -3.10625E+03  5.72104E+03
 -6.92696E+03  4.64696E+03 -7.09685E+03 -3.91576E+03 -3.11887E+03 -9.63921E+03  1.63674E+03 -9.49390E+03
  4.20054E+03 -4.58730E+03  6.04343E+03  1.97932E+03  4.25360E+03  1.62275E+03 -4.71662E+02  3.90737E+03
 -1.63393E+03  2.00929E+03 -3.47717E+03 -3.50161E+03  1.77276E+03 -5.86665E+03  7.30333E+03 -5.61461E+03
  9.39896E+03  9.62332E+01  1.08055E+04  6.15531E+03  2.43812E+03  1.04456E+04 -3.08228E+03  7.70295E+03
 -8.35980E+03  4.90530E+03 -8.93985E+03 -9.36009E+02 -4.38709E+03 -7.40263E+03  4.11624E+03 -6.02748E+03
  4.43418E+03 -1.92678E+03  5.02381E+03  2.26830E+03  3.11850E+03  5.62398E+03 -1.83845E+03  5.51688E+03
 -2.84651E+03  4.44329E+03 -1.52477E+03  9.01461E+02 -1.16887E+03  3.97749E+02 -1.90514E+03  1.94140E+03
 -2.00190E+03  2.99314E+03 -7.36469E+03  3.66699E+03 -9.95836E+03  2.15840E+03 -1.07964E+04 -7.31204E+03
 -5.95667E+03 -1.32136E+04  3.51485E+03 -1.55625E+04  9.01432E+03 -1.25266E+04  1.56187E+04 -5.20354E+03
  1.30872E+04  4.08626E+03  7.54990E+03  8.93902E+03  9.00617E+02  1.15431E+04 -3.66711E+03  6.81831E+03
 -5.34428E+03  2.59706E+03 -3.15034E+03 -1.04031E+03 -2.00442E+03 -1.34250E+03 -1.55371E+03  3.52301E+02
 -2.10447E+03  8.12283E+02 -3.51912E+03 -3.20112E+02 -4.29120E+02 -3.31695E+03  4.19257E+02 -3.87116E+03
  5.46082E+03 -3.83501E+03  7.66922E+03  2.20198E+02  7.32376E+03  6.42302E+03  2.59725E+03  1.01444E+04
 -5.02958E+03  1.31690E+04 -1.09726E+04  7.72509E+03 -1.37451E+04 -1.22851E+03 -1.16633E+04 -7.02865E+03
 -3.83594E+03 -1.10244E+04  2.96778E+02 -1.03925E+04  6.45778E+03 -4.91686E+03  6.20401E+03  2.17101E+03
  4.77931E+03  2.45680E+03 -3.82916E+02  4.53185E+03 -1.35782E+03 -1.58286E+03 -3.02885E+02 -4.01036E+03
  3.60741E+03 -3.18036E+03  5.76313E+03  2.17863E+03  3.32410E+03  3.84777E+03  1.55109E+03  4.41292E+03
 -5.68543E+03  5.06157E+03 -7.52958E+03  6.40921E+02 -7.43184E+03 -4.70679E+03 -1.88198E+03 -9.42959E+03
  4.90890E+03 -5.76914E+03  8.96453E+03 -2.56966E+03  9.29144E+03  1.61001E+03  4.53822E+03  8.40359E+03
  1.72215E+03  6.39010E+03 -3.57982E+03  6.70098E+03 -4.83475E+03  1.67766E+03 -2.78011E+03 -1.67955E+03
 -1.92690E+03 -1.16223E+03 -3.75129E+03  1.94332E+03 -3.30759E+03  2.00560E+03 -4.92908E+03 -1.31140E+03
 -4.54078E+03 -4.89118E+03 -2.23905E+03 -6.99518E+03  3.96807E+03 -6.86347E+03  7.77018E+03 -2.32024E+03
  8.16077E+03  7.31027E+02  3.29793E+03  4.46052E+03 -9.05588E+02  6.36851E+03 -5.57689E+03  2.90720E+03
