 $NMID ID='MM_0lb_SNR200_13hz_g45_8.RAW', FMTDAT='(8E13.5)'
 TRAMP=1., VOLUME=1. $END
  3.08461E+05 -4.34642E+02  3.36750E+05  2.49409E+05  8.54184E+04  3.38556E+05 -1.32708E+05  2.51114E+05
 -1.90979E+05  8.37128E+04 -1.11248E+05 -3.23343E+04  8.83818E+02 -5.03380E+04  5.37304E+04 -2.49611E+02
  3.55376E+04  5.25033E+04 -1.72841E+04  7.57895E+04 -6.14567E+04  6.54375E+04 -8.35525E+04  3.21786E+04
 -8.10530E+04 -1.12327E+04 -5.77278E+04 -5.17085E+04 -1.31642E+04 -6.85639E+04  2.67350E+04 -4.63757E+04
  4.16459E+04  2.96806E+03  1.70084E+04  4.90892E+04 -3.33912E+04  4.72826E+04 -6.71496E+04 -6.82775E+02
 -5.34790E+04 -5.70223E+04 -7.23595E+03 -7.81742E+04  3.33634E+04 -5.49698E+04  4.80124E+04 -1.81904E+04
  4.40206E+04  1.05659E+04  3.19254E+04  2.55477E+04  1.61653E+04  3.00671E+04 -6.23108E+03  2.72235E+04
 -2.26886E+04  1.16585E+04 -1.87614E+04 -5.12051E+03  6.18778E+03 -5.98528E+03  2.32058E+04  1.25120E+04
  7.89917E+03  3.54892E+04 -3.22764E+04  3.65386E+04 -6.40031E+04  2.30413E+03 -5.81755E+04 -4.24821E+04
 -1.23936E+04 -6.46801E+04  3.97821E+04 -4.56291E+04  5.99405E+04 -1.37750E+03  3.34195E+04  3.36481E+04
 -6.44036E+03  3.62981E+04 -3.14360E+04  1.52929E+04 -3.17940E+04 -2.91259E+03 -1.59997E+04 -1.04216E+04
 -8.96354E+03 -1.26027E+04 -6.76785E+02 -1.76801E+04  6.57303E+03 -2.36965E+04  1.53377E+04 -1.37736E+04
  1.13035E+04  4.92282E+03 -7.92891E+03  1.27587E+04 -2.03040E+04 -4.16946E+03 -9.64187E+03 -3.28003E+04
  2.43655E+04 -4.41584E+04  4.74452E+04 -2.01703E+04  4.53568E+04  1.75577E+04  1.72668E+04  4.57597E+04
 -1.59806E+04  3.35674E+04 -2.71283E+04  2.76871E+03 -8.92031E+03 -2.82807E+04  2.06125E+04 -3.35450E+04
  4.14342E+04 -9.26654E+03  3.48457E+04  2.37845E+04  1.94147E+04  4.62400E+04 -6.33286E+03  5.08438E+04
 -3.22868E+04  3.25876E+04 -4.31627E+04  8.46707E+03 -4.33388E+04 -1.56610E+04 -2.35274E+04 -3.99874E+04
  5.81455E+03 -3.83820E+04  3.12680E+04 -1.61072E+04  2.97951E+04  1.15169E+04  4.41351E+03  1.96091E+04
 -1.25681E+04  8.11422E+03 -1.08069E+04 -5.58070E+03  4.78229E+03 -1.04285E+04  1.77181E+04  6.47296E+03
  1.42386E+04  2.11100E+04 -5.27980E+03  2.44248E+04 -2.15980E+04  1.12755E+04 -2.96141E+04 -5.17681E+03
 -2.10810E+04 -1.75294E+04 -9.05377E+03 -2.18822E+04  4.45254E+03 -2.07142E+04  1.63340E+04 -1.77600E+04
  2.62455E+04 -1.36071E+04  3.23707E+04  2.89730E+03  2.44671E+04  1.91062E+04  5.41136E+03  3.71014E+04
 -1.88081E+04  3.07318E+04 -2.70191E+04  9.72061E+03 -1.97836E+04 -1.05843E+04 -4.75745E+03 -1.40847E+04
  1.38512E+03 -1.98544E+03 -6.01089E+03  7.41828E+03 -1.72037E+04  5.57190E+03 -1.61443E+04 -7.28438E+03
 -9.96927E+03 -1.94697E+04  5.90168E+03 -2.45167E+04  1.59363E+04 -1.76029E+04  1.89313E+04 -9.80935E+02
  1.06144E+04  1.28891E+04 -1.77708E+03  1.97101E+04 -1.43183E+04  1.21626E+04 -1.94049E+04 -4.00385E+03
 -1.47868E+04 -1.69483E+04 -2.14762E+03 -2.34195E+04  1.07483E+04 -2.11163E+04  1.84375E+04 -9.82627E+03
  1.80125E+04 -6.12024E+02  1.39131E+04  3.86500E+03  6.34282E+03  2.20222E+02  1.05068E+04 -2.80689E+03
  1.76676E+04  1.69700E+03  2.00360E+04  1.48836E+04  1.43460E+04  3.08384E+04 -3.44469E+03  3.54542E+04
 -2.03942E+04  2.86537E+04 -3.27612E+04  1.44497E+04 -3.63394E+04 -2.13216E+03 -2.82633E+04 -2.02417E+04
 -1.20614E+04 -2.79543E+04  9.62855E+03 -2.57948E+04  2.17725E+04 -1.31274E+04  1.96720E+04  6.14951E+03
  6.83462E+03  1.47528E+04 -7.73269E+03  1.29672E+04 -1.58580E+04  3.68024E+03 -1.23119E+04 -1.01951E+04
 -4.56819E+02 -1.56070E+04  8.19371E+03 -1.16378E+04  1.13597E+04 -1.68706E+03  2.50306E+03  6.83643E+03
 -7.41108E+03  2.72702E+03 -7.74442E+03 -5.07304E+03 -8.04749E+02 -1.24399E+04  9.81028E+03 -1.48665E+04
  1.65511E+04 -7.70422E+03  1.88412E+04  3.43120E+03  1.60568E+04  1.37321E+04  8.54037E+03  2.35025E+04
 -3.71871E+03  2.30128E+04 -1.37678E+04  1.46906E+04 -1.65495E+04  2.21966E+03 -1.16422E+04 -3.85611E+03
 -4.92024E+03 -5.44197E+03 -2.44499E+03  8.17308E+02 -3.09621E+03  2.08194E+03 -5.60869E+03  3.71412E+03
 -1.12297E+04  3.64331E+02 -1.12856E+04 -9.39866E+03 -5.07912E+03 -1.40319E+04  5.86828E+03 -1.19939E+04
  9.58143E+03 -5.99478E+03  7.74305E+03  3.03860E+03  6.79602E+02  3.90386E+03 -4.98015E+03 -6.29890E+02
 -5.14777E+03 -7.38583E+03 -5.21530E+02 -1.16735E+04  5.68834E+03 -1.19483E+04  1.55943E+04 -6.19940E+03
  1.75875E+04  1.42953E+03  1.10889E+04  9.88333E+03  4.49467E+03  1.30032E+04 -6.52575E+03  1.18702E+04
 -8.67809E+03  3.13119E+03 -5.69998E+03 -3.32052E+03  2.06247E+03 -2.35334E+03  6.89593E+03 -1.16241E+03
  4.08261E+03  4.54473E+03  2.21817E+03  9.10876E+03 -6.43256E+03  9.19930E+03 -1.13438E+04  2.57469E+03
 -7.31649E+03 -5.44935E+03 -4.30784E+02 -9.22546E+03  6.09172E+03 -4.90229E+03  6.58722E+03  1.59353E+03
  1.15865E+03  6.96127E+03 -6.57427E+03  7.57342E+03 -8.23820E+03  3.74745E+03 -7.83257E+03 -3.77641E+03
 -5.54966E+03 -1.09275E+04  3.50654E+03 -1.07814E+04  1.02274E+04 -7.86133E+03  1.04345E+04  2.12534E+03
  6.80821E+03  8.43245E+03 -7.68100E+02  1.07144E+04 -8.16271E+03  7.40967E+03 -7.71418E+03  8.22717E+02
 -7.98437E+03 -8.73574E+03 -5.41898E+02 -7.41648E+03  4.82975E+03 -6.92602E+03  4.63653E+03 -3.29276E+03
  3.38167E+03  6.40090E+02 -7.29398E+02  3.06931E+03  6.51029E+00 -1.39012E+03  1.54971E+03 -5.09155E+03
  7.80605E+03 -2.29690E+03  9.71371E+03  2.12090E+03  9.43275E+03  6.55119E+03  7.34934E+03  1.27319E+04
 -3.83989E+03  1.50561E+04 -1.19016E+04  1.30812E+04 -1.69157E+04  1.84434E+03 -1.50659E+04 -4.94514E+03
 -7.17583E+03 -1.15506E+04 -1.04904E+03 -8.67428E+03  4.27559E+03 -3.65406E+03  3.49430E+03 -2.74107E+03
  2.49642E+03 -2.78487E+03  2.16088E+03 -3.58037E+03  4.43923E+03 -1.56801E+03  4.92804E+03  5.55415E+02
  5.52670E+03  3.25832E+03  2.55186E+03  6.22948E+03 -1.49795E+03  6.70488E+03 -7.14963E+03  6.13924E+03
 -8.42304E+03 -6.68084E+02 -5.77393E+03 -7.34686E+03  8.07798E+01 -1.00104E+04  4.27647E+03 -9.68697E+03
  9.58606E+03 -5.73880E+03  1.32637E+04  1.01037E+03  8.95373E+03  7.94014E+03  8.96181E+02  1.12561E+04
 -4.47660E+03  1.04877E+04 -6.51913E+03  3.67133E+03 -5.25523E+03 -1.31082E+03 -8.38280E+02 -7.50668E+02
 -9.14016E+02  9.33710E+01 -1.31740E+03  2.46106E+03 -3.71760E+03  5.87463E+02 -5.26222E+03 -2.23300E+02
 -3.85277E+03 -5.28870E+03 -9.11834E+01 -8.28455E+03  6.82739E+03 -9.21437E+03  8.17236E+03 -1.65244E+03
  7.93284E+03  5.53869E+03  3.31192E+03  7.69568E+03 -1.91885E+03  8.50412E+03 -5.21995E+03  5.62179E+03
 -8.41458E+03 -6.34966E+02 -6.74262E+03 -4.89464E+03 -4.47003E+02 -6.99481E+03  4.12248E+03 -5.33386E+03
  5.61263E+03 -2.99814E+03  2.88947E+03  2.10868E+03  1.32690E+03  2.00993E+03  6.20471E+02  8.97927E+02
  2.11672E+03  9.61960E+02  2.59478E+03  2.10383E+03  2.86580E+03  5.23070E+03  8.13455E+02  4.72811E+03
 -3.25488E+03  5.88443E+03 -5.65275E+03  8.02823E+03 -7.68255E+03  1.94985E+03 -9.49562E+03 -1.70875E+03
 -3.62787E+03 -9.32104E+03  3.52272E+02 -9.41209E+03  4.09527E+03 -5.38044E+03  7.71407E+03 -5.91771E+02
  6.17461E+03  2.45885E+03  8.18637E+02  4.53362E+03 -2.37215E+03  2.78914E+03 -2.30133E+03 -1.64288E+03
 -1.05711E+03 -3.48181E+03  1.65356E+03 -4.08151E+03  3.25560E+03 -2.60461E+03  3.64628E+03  6.09072E+02
  2.48903E+03  1.04087E+03  2.10058E+02  2.12666E+03  4.72270E+01  1.25729E+03  2.21966E+03  1.04705E+03
  7.93266E+02  3.00754E+02  3.47936E+03  2.82281E+03  9.48016E+02  4.89120E+03 -4.67670E+02  5.76908E+03
 -4.27731E+03  3.28313E+03 -6.05052E+03  4.67091E+02 -4.73217E+03 -1.83134E+03 -1.36584E+03 -2.91548E+03
  1.17345E+03 -4.35149E+03  2.03022E+03 -1.82124E+03  1.89605E+03  1.83944E+03 -1.31074E+03  2.11244E+03
 -2.67319E+03  9.37309E+02 -3.95504E+03 -2.43773E+03 -2.48498E+03 -4.93490E+03  1.69297E+03 -4.76670E+03
  2.09645E+03 -2.01223E+03  2.33868E+03  9.21486E+02  3.46141E+03  4.94150E+02  2.26974E+03  2.46694E+03
 -1.45982E+03  9.63161E+02 -3.38419E+03 -1.68374E+03  2.79861E+02 -3.52877E+03  4.20647E+03 -2.67900E+03
  3.25301E+03  1.12011E+03  6.06534E+03  1.79883E+03  2.91168E+03  4.52500E+03 -3.29369E+03  5.24398E+03
 -4.23643E+03  1.58583E+03 -4.03715E+03 -1.37383E+03 -2.21734E+03 -1.87551E+03  7.78226E+02 -2.15907E+03
  3.02706E+03 -2.36870E+03  2.56574E+03  9.17801E+02  4.45249E+02  3.25507E+03  2.26229E+02  2.44714E+03
 -1.10253E+03  1.95583E+03 -7.66701E+02  1.90385E+02  1.00344E+03  1.78715E+02 -1.25440E+03  9.70853E+02
 -2.46786E+03  2.13336E+03 -3.79016E+03  1.13658E+03 -4.91014E+03  3.39407E+02 -4.70993E+03 -3.60007E+03
 -3.09060E+03 -6.99253E+03  2.52409E+02 -8.09480E+03  3.27467E+03 -6.42600E+03  8.84472E+03 -8.77756E+01
  6.77857E+03  8.10318E+02  3.92296E+03  4.17947E+03 -6.46352E+02  5.52353E+03 -2.70406E+03  4.26539E+03
 -2.72401E+03  1.75301E+03 -6.02190E+02 -3.51221E+02 -1.32968E+03 -5.65523E+02 -1.60117E+03 -1.20515E+03
 -1.57537E+03  8.98025E+02 -1.02637E+03  8.63185E+02 -1.06956E+03 -6.79442E+02 -5.21984E+02 -2.34745E+03
  1.63975E+03 -1.50299E+03  2.76643E+03 -1.60560E+03  3.75370E+03  3.62679E+03  1.25564E+03  6.40938E+03
 -2.45744E+03  5.71316E+03 -4.29245E+03  4.15662E+03 -6.01499E+03 -6.51544E+02 -5.13288E+03 -3.83613E+03
 -1.69314E+03 -4.81659E+03  1.66551E+03 -3.58893E+03  3.10554E+03 -1.80685E+03  3.13346E+03  8.49413E+02
  1.81164E+03  1.32016E+03  5.80817E+02  1.35678E+03 -1.16126E+03  3.23029E+01  2.75584E+02 -2.63083E+03
  1.18311E+03 -1.08502E+03  1.55645E+03  2.99335E+02  1.02708E+03  2.49858E+03  1.99649E+03  2.77667E+03
 -2.00849E+03  2.04512E+03 -3.41168E+03 -5.11943E+02 -3.61217E+03 -2.21285E+03 -8.29491E+02 -4.42810E+03
  1.48550E+03 -2.50764E+03  4.34973E+03 -3.38396E+02  3.73204E+03  1.18184E+02  2.13443E+03  2.63585E+03
  3.19676E+02  2.58067E+03 -1.73704E+03  2.15339E+03 -2.05467E+03  8.58324E+02 -1.88646E+03 -1.83340E+03
  8.48215E+01  3.64028E+01 -5.23631E+02  4.91624E+02  6.85509E+01  8.04507E+02 -2.62219E+03 -9.45518E+02
 -2.51669E+03 -9.67916E+02 -9.50232E+02 -3.13980E+03  1.20128E+03 -3.24861E+03  2.33528E+03 -1.15430E+03
  3.08871E+03 -4.75216E+01  1.38583E+03  1.62640E+03 -2.15764E+01  3.87100E+03 -3.04934E+03  7.88424E+02
