 $NMID ID='MM_0lb_SNR200_11hz_g60_38.RAW', FMTDAT='(8E13.5)'
 TRAMP=1., VOLUME=1. $END
  3.11268E+05  1.05185E+03  3.37772E+05  2.50866E+05  8.47017E+04  3.38546E+05 -1.31134E+05  2.51222E+05
 -1.90402E+05  8.44373E+04 -1.12361E+05 -3.27438E+04 -6.70080E+02 -5.10671E+04  5.45745E+04 -1.72161E+02
  3.73453E+04  5.42494E+04 -1.72138E+04  7.60616E+04 -6.08920E+04  6.38246E+04 -8.53094E+04  3.29430E+04
 -8.12270E+04 -1.25138E+04 -5.85949E+04 -5.29585E+04 -1.52682E+04 -7.11245E+04  2.67014E+04 -4.72633E+04
  4.16521E+04  4.56438E+03  1.67297E+04  4.77615E+04 -3.46597E+04  4.75409E+04 -6.69719E+04 -5.60276E+02
 -5.56528E+04 -5.77378E+04 -6.72709E+03 -8.01500E+04  3.41256E+04 -5.55960E+04  5.01668E+04 -1.71341E+04
  4.57610E+04  1.12599E+04  3.30640E+04  2.73594E+04  1.66201E+04  3.15788E+04 -5.99372E+03  2.88055E+04
 -2.23090E+04  1.08014E+04 -1.91806E+04 -7.05350E+03  7.41799E+03 -7.85533E+03  2.33830E+04  1.56522E+04
  7.28293E+03  3.73541E+04 -3.47921E+04  3.75257E+04 -6.60228E+04  1.95381E+03 -5.84950E+04 -4.41226E+04
 -1.24667E+04 -6.59424E+04  4.14684E+04 -4.73462E+04  5.93254E+04 -4.25501E+03  3.60500E+04  3.37863E+04
 -4.89429E+03  4.03376E+04 -3.22330E+04  1.86939E+04 -3.25167E+04 -3.67904E+03 -1.87919E+04 -1.09057E+04
 -9.16920E+03 -1.48706E+04 -1.65189E+03 -1.80205E+04  7.69540E+03 -2.34604E+04  1.61811E+04 -1.27935E+04
  1.15765E+04  7.13029E+03 -1.03823E+04  1.27756E+04 -2.43690E+04 -4.89468E+03 -8.57246E+03 -3.55670E+04
  2.37941E+04 -4.68050E+04  5.21065E+04 -2.14799E+04  4.90721E+04  1.98849E+04  1.82240E+04  4.88385E+04
 -1.72682E+04  3.59622E+04 -2.86667E+04  2.92770E+03 -1.19178E+04 -3.09006E+04  2.08394E+04 -3.58887E+04
  4.31628E+04 -1.06780E+04  3.90046E+04  2.55542E+04  2.24025E+04  4.98338E+04 -9.19023E+03  5.45647E+04
 -3.49991E+04  3.91035E+04 -4.71676E+04  1.19649E+04 -4.65504E+04 -1.89643E+04 -2.56952E+04 -4.22155E+04
  6.52328E+03 -4.38854E+04  3.31062E+04 -1.61797E+04  3.05388E+04  1.17462E+04  6.50807E+03  1.87135E+04
 -1.36009E+04  9.96459E+03 -1.05876E+04 -6.46063E+03  4.25320E+03 -9.93553E+03  1.98119E+04  5.64129E+03
  1.45225E+04  2.29102E+04 -5.93433E+03  2.71221E+04 -2.25463E+04  1.51254E+04 -3.13388E+04 -3.21337E+03
 -2.44460E+04 -1.71741E+04 -1.08493E+04 -2.42591E+04  4.66214E+03 -2.42888E+04  1.89674E+04 -2.26759E+04
  3.14766E+04 -1.42372E+04  3.76048E+04  5.26240E+03  2.55615E+04  2.33090E+04  4.50521E+03  3.92517E+04
 -1.92584E+04  3.35397E+04 -3.03778E+04  1.04587E+04 -2.30518E+04 -8.58276E+03 -3.48452E+03 -1.25165E+04
  2.55467E+02 -2.45496E+03 -6.65562E+03  1.00288E+04 -1.75416E+04  3.82270E+03 -1.92562E+04 -8.29672E+03
 -1.04524E+04 -2.26876E+04  5.66999E+03 -2.61585E+04  1.96353E+04 -1.98911E+04  2.17135E+04 -8.01158E+02
  1.23338E+04  1.58689E+04 -2.93594E+01  2.27421E+04 -1.72562E+04  1.19969E+04 -2.20231E+04 -5.06868E+03
 -1.48088E+04 -2.07843E+04 -1.75572E+03 -2.86582E+04  1.13367E+04 -2.26867E+04  2.16565E+04 -1.10037E+04
  2.20201E+04 -7.54532E+02  1.60741E+04  4.20156E+03  7.98627E+03  1.89551E+03  1.01834E+04 -2.87503E+03
  2.24295E+04  2.78592E+03  2.39931E+04  1.61938E+04  1.82483E+04  3.55481E+04 -2.47927E+03  4.10596E+04
 -2.39944E+04  3.51264E+04 -3.94209E+04  1.85991E+04 -4.34735E+04 -3.55586E+03 -3.45905E+04 -2.44962E+04
 -1.34225E+04 -3.50557E+04  1.28964E+04 -3.14549E+04  2.70930E+04 -1.52363E+04  2.43148E+04  8.76797E+03
  7.91371E+03  1.76013E+04 -1.15953E+04  1.54581E+04 -1.92634E+04  2.69640E+03 -1.48137E+04 -1.24103E+04
  7.18727E+02 -1.86757E+04  9.56018E+03 -1.41202E+04  1.23140E+04 -1.68213E+03  4.26728E+03  9.12178E+03
 -7.46709E+03  4.44396E+03 -9.38960E+03 -6.85136E+03 -2.18129E+03 -1.69145E+04  1.05177E+04 -1.87947E+04
  2.17888E+04 -1.14995E+04  2.42510E+04  3.57229E+03  2.05445E+04  1.74237E+04  9.54955E+03  2.72438E+04
 -4.92684E+03  2.88178E+04 -1.75639E+04  1.70830E+04 -2.17845E+04  4.82408E+03 -1.48111E+04 -4.86441E+03
 -5.61195E+03 -5.86164E+03  2.40321E+01  4.09347E+02 -2.32501E+03  3.57879E+03 -5.85290E+03  6.01811E+03
 -1.39697E+04 -1.07552E+03 -1.52434E+04 -1.11727E+04 -5.25700E+03 -1.90529E+04  4.47105E+03 -1.56210E+04
  1.23268E+04 -6.27112E+03  7.45437E+03  3.67430E+03 -1.60747E+03  5.73035E+03 -6.96545E+03  1.29505E+03
 -5.89537E+03 -9.10009E+03 -5.82195E+02 -1.37197E+04  8.41455E+03 -1.44789E+04  1.73655E+04 -8.77760E+03
  2.33850E+04  2.45283E+03  1.63996E+04  1.33890E+04  2.26645E+03  1.85689E+04 -8.57502E+03  1.37685E+04
 -1.10006E+04  4.43013E+03 -6.08283E+03 -3.27316E+03  2.48373E+03 -4.69381E+03  7.62652E+03 -2.69217E+03
  7.60429E+03  5.26550E+03  1.81355E+03  1.26934E+04 -9.79471E+03  1.16405E+04 -1.48818E+04  3.45239E+03
 -9.94314E+03 -6.90544E+03  6.48586E+01 -1.23099E+04  7.26488E+03 -5.11972E+03  8.22093E+03  3.02508E+03
  1.28354E+03  6.80696E+03 -8.77238E+03  1.01511E+04 -1.28608E+04  4.70092E+03 -1.32526E+04 -4.46825E+03
 -7.09756E+03 -1.32604E+04  4.28576E+03 -1.78307E+04  1.44214E+04 -9.74679E+03  1.53379E+04  2.50694E+03
  9.37286E+03  1.18724E+04 -1.36579E+03  1.47336E+04 -1.13008E+04  8.11566E+03 -1.23580E+04 -2.33589E+03
 -8.94737E+03 -8.90486E+03 -2.10252E+03 -1.02734E+04  4.69006E+03 -1.05863E+04  6.53096E+03 -2.56150E+03
  4.02166E+03  2.62945E+03  1.33249E+03  2.08709E+03 -7.16125E+02 -2.97271E+03  2.48051E+03 -6.08901E+03
  9.39992E+03 -4.36091E+03  1.37888E+04  2.68881E+03  1.58192E+04  8.75803E+03  8.62412E+03  1.77542E+04
 -3.76722E+03  2.13676E+04 -1.79797E+04  1.56298E+04 -2.29386E+04  2.70134E+03 -1.89725E+04 -8.72264E+03
 -9.91306E+03 -1.52154E+04 -1.80199E+03 -1.28352E+04  5.38347E+03 -7.93029E+03  4.57162E+03 -4.56086E+03
  2.74583E+03 -4.21739E+03  1.76833E+03 -4.39210E+03  5.00229E+03 -2.63317E+03  6.86290E+03 -1.34900E+03
  8.87204E+03  2.31710E+03  6.78439E+03  8.53380E+03 -2.15659E+03  9.15296E+03 -1.05779E+04  7.23355E+03
 -1.27335E+04  1.10427E+03 -9.28525E+03 -9.61474E+03 -2.13855E+03 -1.25227E+04  7.84168E+03 -1.45524E+04
  1.52012E+04 -8.27357E+03  1.66685E+04  2.51367E+03  1.18375E+04  1.26765E+04  5.63853E+02  1.50131E+04
 -7.68587E+03  1.28750E+04 -7.62576E+03  6.69455E+03 -6.79891E+03 -2.09120E+03 -3.19378E+03 -4.03209E+02
 -9.76407E+02 -6.31468E+01 -3.22524E+03  2.44028E+03 -4.49368E+03  2.07673E+03 -9.25203E+03 -1.51763E+03
 -7.01397E+03 -8.58910E+03  6.99133E+02 -1.01011E+04  8.15567E+03 -1.12186E+04  1.24141E+04 -3.58513E+03
  1.14931E+04  5.82765E+03  5.32212E+03  1.14538E+04 -2.37126E+03  1.17776E+04 -9.65389E+03  8.31766E+03
 -1.21888E+04  1.96972E+03 -9.13338E+03 -6.55069E+03 -4.92757E+02 -1.04577E+04  5.17440E+03 -8.79627E+03
  7.94785E+03 -2.61064E+03  4.28814E+03  1.65210E+02  1.32745E+03  3.68844E+03  1.18267E+03  1.73625E+03
  2.23960E+03  1.41873E+03  2.76538E+03  3.21592E+03  2.88015E+03  5.10376E+03  3.95203E+03  7.47886E+03
 -2.97547E+03  1.04731E+04 -8.54143E+03  1.15140E+04 -1.37930E+04  4.08229E+03 -1.36107E+04 -5.13564E+03
 -6.20037E+03 -1.16009E+04  1.28481E+03 -1.43985E+04  7.00140E+03 -8.12905E+03  1.09245E+04 -1.25768E+03
  8.15255E+03  5.06495E+03  2.24783E+03  6.81702E+03 -2.56063E+03  3.26809E+03 -3.50089E+03  3.32814E+02
 -2.21971E+03 -5.72235E+03  2.65689E+03 -5.69128E+03  4.57913E+03 -2.05486E+03  5.34475E+03  1.10521E+03
  1.50607E+03  2.33705E+03  1.58445E+03  9.82342E+02 -9.25761E+02  2.36751E+03  1.07160E+03 -9.76706E+02
  3.26545E+03 -1.61838E+03  6.18903E+03  2.03776E+03  4.84983E+03  5.91883E+03 -2.05373E+03  7.53443E+03
 -5.63801E+03  5.48549E+03 -8.69982E+03  1.59760E+03 -6.17683E+03 -2.43013E+03 -1.67806E+03 -4.45923E+03
  1.66054E+03 -4.58952E+03  3.63626E+03 -2.59854E+03  4.50403E+03  2.30552E+03 -9.43876E+01  4.79663E+03
 -5.81174E+03  7.62400E+02 -4.78317E+03 -2.43616E+03 -3.61096E+03 -5.50945E+03 -5.98158E+02 -8.03551E+03
  3.64807E+03 -4.90935E+03  3.34552E+03  1.08487E+03  5.63276E+03  1.29620E+03 -2.81405E+02  4.79016E+03
 -2.89142E+03  6.47760E+02 -2.78837E+03 -3.28617E+03  2.06472E+03 -4.80225E+03  5.77022E+03 -4.35912E+03
  6.90577E+03  1.07163E+03  7.57685E+03  4.97804E+03  1.61917E+03  9.30496E+03 -4.23584E+03  5.67486E+03
 -5.86982E+03  2.15162E+03 -6.58898E+03 -1.17862E+03 -3.38184E+03 -6.24617E+03  1.73000E+03 -5.61027E+03
  4.97416E+03 -1.59985E+03  3.94747E+03  2.35409E+03  1.17023E+03  5.89927E+03  2.76134E+02  2.16301E+03
 -1.10836E+03  2.18847E+03 -2.79519E+03  8.75441E+02 -5.20959E+02  1.22551E+03 -7.19013E+02  1.36647E+03
 -3.07573E+03  3.97840E+03 -5.74579E+03  4.07085E+03 -6.09403E+03 -3.38090E+02 -7.21943E+03 -4.02426E+03
 -4.98589E+03 -1.16927E+04  1.89049E+03 -1.29391E+04  6.29115E+03 -9.18118E+03  1.22423E+04 -4.48348E+03
  1.00231E+04  2.73493E+03  6.11176E+03  7.82782E+03 -3.32468E+02  8.94140E+03 -4.11283E+03  6.83508E+03
 -4.23212E+03  3.46452E+03 -4.35268E+03 -1.67116E+03 -9.34085E+02 -2.18875E+03 -4.15190E+02  6.72287E+01
 -2.21456E+03  7.64037E+02 -7.88864E+02 -6.51766E+01 -1.42178E+03 -3.07457E+03 -1.25841E+03 -2.06505E+03
  1.80674E+03 -1.94011E+03  4.37000E+03 -5.31529E+02  5.01795E+03  3.58482E+03  1.67481E+03  7.49296E+03
 -3.27799E+03  9.27840E+03 -8.75735E+03  4.36251E+03 -1.05972E+04  1.89265E+02 -6.57716E+03 -6.12171E+03
 -4.19900E+03 -6.53110E+03  2.03550E+03 -8.06592E+03  5.13647E+03 -4.61098E+03  3.85127E+03 -7.51326E+02
  2.76331E+03  3.26634E+03  2.27381E+02  2.60996E+03 -2.26646E+03 -9.07200E+01 -1.44414E+03 -6.81798E+02
  3.37365E+03 -8.17703E+02  4.16894E+03  4.91892E+02  1.89914E+03  2.41540E+03  1.05481E+02  3.25719E+03
 -3.15473E+03  3.30875E+03 -5.14152E+03  8.62470E+02 -5.97643E+03 -2.68388E+03 -1.00359E+02 -7.26737E+03
  4.43357E+03 -5.97429E+03  6.17284E+03 -1.95482E+03  5.31128E+03  1.25134E+03  3.76743E+03  3.53267E+03
  2.53451E+02  4.24942E+03 -1.34764E+03  2.99942E+03 -3.79002E+03  2.35956E+03 -4.64797E+03  6.02675E+02
 -1.66967E+03  5.33329E+01 -2.10771E+03  6.45652E+02 -2.53156E+03  5.24517E+01 -4.02343E+03 -8.88218E+02
 -3.49479E+03 -1.38907E+02 -6.38430E+01 -4.66304E+03  2.30921E+03 -5.13115E+03  4.51942E+03 -2.85139E+03
  5.36962E+03  1.02320E+03  3.05080E+03  3.70221E+03 -5.39261E+02  5.30076E+03 -3.76037E+03  2.96767E+03
