 $NMID ID='MM_0lb_SNR200_15hz_g55_67.RAW', FMTDAT='(8E13.5)'
 TRAMP=1., VOLUME=1. $END
  3.09648E+05  1.13719E+03  3.36683E+05  2.50619E+05  8.48733E+04  3.38196E+05 -1.32371E+05  2.51075E+05
 -1.90971E+05  8.33525E+04 -1.11667E+05 -3.24649E+04  1.00662E+03 -5.07410E+04  5.37397E+04  2.32530E+00
  3.41779E+04  5.32561E+04 -1.60304E+04  7.58679E+04 -6.07520E+04  6.20828E+04 -8.35343E+04  3.16210E+04
 -8.17502E+04 -1.14835E+04 -5.66939E+04 -5.15190E+04 -1.51549E+04 -7.02428E+04  2.72581E+04 -4.48131E+04
  3.99475E+04  3.76261E+03  1.60146E+04  4.72347E+04 -3.38270E+04  4.67296E+04 -6.63865E+04 -9.04011E+02
 -5.35893E+04 -5.65592E+04 -6.80870E+03 -7.69103E+04  3.42362E+04 -5.50369E+04  4.83231E+04 -1.64743E+04
  4.34972E+04  1.03460E+04  3.26565E+04  2.50202E+04  1.51455E+04  2.90330E+04 -4.94395E+03  2.75580E+04
 -2.11978E+04  1.16228E+04 -1.81756E+04 -4.17326E+03  5.37312E+03 -7.07701E+03  2.16951E+04  1.23221E+04
  6.80770E+03  3.61359E+04 -3.23350E+04  3.47249E+04 -6.36419E+04  2.56577E+03 -5.69237E+04 -4.25939E+04
 -1.18931E+04 -6.40207E+04  4.10314E+04 -4.47277E+04  5.80167E+04 -2.99909E+03  3.57204E+04  3.14894E+04
 -5.72243E+03  3.63851E+04 -2.91743E+04  1.65484E+04 -3.07598E+04 -3.30411E+03 -1.68490E+04 -1.01628E+04
 -8.70592E+03 -1.36008E+04 -1.45838E+02 -1.72727E+04  8.15117E+03 -2.33859E+04  1.40513E+04 -1.25747E+04
  1.17859E+04  5.07318E+03 -7.91841E+03  1.30158E+04 -2.19101E+04 -4.71625E+03 -8.20911E+03 -3.42725E+04
  2.35401E+04 -4.37111E+04  4.88450E+04 -2.01416E+04  4.51909E+04  1.92829E+04  1.52962E+04  4.49534E+04
 -1.68192E+04  3.37195E+04 -2.54971E+04  1.64134E+03 -9.57771E+03 -2.75987E+04  2.07982E+04 -3.46910E+04
  4.15938E+04 -9.54238E+03  3.46689E+04  2.28087E+04  1.79092E+04  4.76222E+04 -7.71347E+03  5.12029E+04
 -3.05621E+04  3.36120E+04 -4.18091E+04  9.87176E+03 -4.27163E+04 -1.78168E+04 -2.40331E+04 -3.84580E+04
  7.30288E+03 -3.77965E+04  3.19079E+04 -1.47613E+04  2.93051E+04  1.06278E+04  3.84494E+03  1.83890E+04
 -1.35752E+04  8.22854E+03 -1.01032E+04 -6.93837E+03  6.23674E+03 -1.13692E+04  1.92857E+04  6.04185E+03
  1.27183E+04  2.17169E+04 -6.16245E+03  2.54264E+04 -2.26451E+04  1.21235E+04 -2.82314E+04 -3.92827E+03
 -2.08795E+04 -1.75745E+04 -8.86255E+03 -1.96882E+04  4.37044E+03 -1.89161E+04  1.62168E+04 -1.81247E+04
  2.59941E+04 -1.33325E+04  3.29528E+04  1.88526E+03  2.33320E+04  1.99863E+04  4.89577E+03  3.54118E+04
 -1.73506E+04  2.98040E+04 -2.86364E+04  9.61519E+03 -1.95275E+04 -1.02548E+04 -4.29752E+03 -1.33038E+04
  1.76926E+03 -4.08471E+03 -4.10997E+03  7.12241E+03 -1.59757E+04  4.46066E+03 -1.70354E+04 -7.82437E+03
 -1.02394E+04 -1.89132E+04  4.84627E+03 -2.37431E+04  1.48642E+04 -1.67888E+04  1.84573E+04 -2.13969E+03
  1.09491E+04  1.33912E+04 -1.77095E+03  1.84676E+04 -1.36107E+04  1.05966E+04 -1.81835E+04 -3.71840E+03
 -1.38080E+04 -1.75786E+04 -1.20459E+03 -2.30814E+04  1.11713E+04 -1.72748E+04  2.01173E+04 -1.00944E+04
  1.83334E+04 -6.08017E+02  1.25771E+04  4.07843E+03  6.98563E+03  1.26172E+03  9.32040E+03 -1.60374E+03
  1.69675E+04  2.75649E+03  1.92194E+04  1.46968E+04  1.32454E+04  2.93251E+04 -3.76490E+03  3.29006E+04
 -1.98165E+04  2.84750E+04 -3.14861E+04  1.38055E+04 -3.17725E+04 -3.82896E+03 -2.63116E+04 -1.85760E+04
 -1.11573E+04 -2.64474E+04  9.22273E+03 -2.39961E+04  2.16817E+04 -1.19099E+04  1.85244E+04  4.41795E+03
  5.97780E+03  1.52629E+04 -8.15127E+03  1.14242E+04 -1.58844E+04  1.78377E+03 -1.13534E+04 -8.57133E+03
 -9.82181E+02 -1.47488E+04  8.13451E+03 -1.18999E+04  1.21305E+04 -1.05221E+03  2.85408E+03  6.84451E+03
 -5.68710E+03  2.29800E+03 -6.37917E+03 -5.86640E+03  3.89131E+02 -1.35097E+04  9.24971E+03 -1.40408E+04
  1.57901E+04 -7.95062E+03  1.79427E+04  1.26475E+03  1.40311E+04  1.33867E+04  6.37728E+03  1.95594E+04
 -4.40730E+03  2.16141E+04 -1.48764E+04  1.39286E+04 -1.53858E+04  2.71080E+03 -1.11087E+04 -2.36393E+03
 -5.16313E+03 -5.54993E+03  5.71922E+02  1.05379E+03 -2.54798E+03  2.24588E+03 -4.47132E+03  4.19287E+03
 -1.04102E+04 -1.54214E+03 -1.03093E+04 -9.28459E+03 -5.45531E+03 -1.57115E+04  4.26938E+03 -1.17249E+04
  8.89046E+03 -4.15752E+03  7.37270E+03  3.32398E+03  5.24139E+02  4.16549E+03 -5.41250E+03  1.05280E+03
 -4.98846E+03 -8.60979E+03  4.43060E+02 -1.06430E+04  7.34828E+03 -1.14757E+04  1.29540E+04 -5.36985E+03
  1.52774E+04  1.95310E+03  1.13094E+04  8.63587E+03  2.44886E+03  1.11248E+04 -6.54793E+03  9.57309E+03
 -8.55388E+03  3.10601E+03 -4.35280E+03 -2.02135E+03  2.25585E+03 -3.60045E+03  5.16253E+03 -8.27716E+02
  5.52784E+03  4.36423E+03  2.81235E+03  8.83584E+03 -5.79684E+03  8.19181E+03 -9.49985E+03  2.43001E+03
 -6.48328E+03 -3.90395E+03 -6.11957E+02 -9.08180E+03  4.56102E+03 -5.17917E+03  5.43887E+03  1.72619E+03
  7.70925E+02  4.63901E+03 -5.76172E+03  6.37111E+03 -9.36376E+03  3.56812E+03 -8.39458E+03 -2.14512E+03
 -5.03945E+03 -9.99175E+03  1.86428E+03 -1.19792E+04  9.38429E+03 -7.89119E+03  1.03245E+04  1.56496E+03
  6.40843E+03  8.06040E+03 -1.13011E+03  1.06476E+04 -7.25831E+03  6.69454E+03 -7.65675E+03 -5.71791E+02
 -8.21045E+03 -6.14476E+03 -2.32932E+03 -7.20991E+03  3.79888E+03 -6.45252E+03  5.27400E+03 -2.91852E+03
  3.97372E+03  3.83669E+02 -1.33458E+02  4.36074E+02 -4.47304E+02 -8.82379E+02  3.95434E+02 -3.33035E+03
  5.47597E+03 -2.43777E+03  8.53847E+03  1.06392E+03  8.69299E+03  4.56071E+03  7.67645E+03  1.05046E+04
 -2.76328E+03  1.38796E+04 -1.25257E+04  9.36911E+03 -1.31252E+04  1.83852E+03 -1.19753E+04 -3.90473E+03
 -6.22522E+03 -1.06565E+04 -1.72272E+03 -7.28273E+03  2.86364E+03 -4.47386E+03  1.92953E+03 -3.82060E+03
  2.00468E+03 -1.57805E+03  2.26225E+03 -3.31894E+03  2.61317E+03 -2.28776E+03  4.02474E+03 -1.79605E+01
  5.94224E+03  1.93365E+03  3.53762E+03  5.60726E+03 -1.89408E+03  6.20084E+03 -7.07966E+03  5.04162E+03
 -7.00146E+03  8.20415E+01 -4.98001E+03 -5.37262E+03  2.82601E+02 -8.39508E+03  4.67707E+03 -8.10177E+03
  8.00051E+03 -4.85794E+03  1.13212E+04  7.59901E+02  7.86897E+03  6.67789E+03  2.48852E+03  8.84805E+03
 -3.75123E+03  8.20178E+03 -4.55212E+03  2.06143E+03 -3.08857E+03 -1.08281E+03 -7.85893E+02 -1.26444E+03
 -7.56462E+02 -1.11388E+02 -1.65768E+02  1.19695E+03 -3.14195E+03  1.62080E+03 -6.73493E+03 -1.31020E+02
 -3.28239E+03 -6.11943E+03 -2.50942E+02 -7.42907E+03  4.36247E+03 -6.81238E+03  7.56250E+03 -2.97830E+03
  7.88557E+03  3.49945E+03  3.59071E+03  6.95122E+03 -1.76612E+03  8.07396E+03 -4.87530E+03  5.66346E+03
 -6.15193E+03  2.71994E+02 -5.75228E+03 -4.55365E+03  2.69098E+01 -6.11604E+03  2.94488E+03 -4.54890E+03
  4.72951E+03 -1.49471E+03  3.21076E+03  1.44500E+03  4.55539E+02  2.20142E+03  1.43918E+02  1.92140E+03
  1.24465E+03  9.58011E+02  2.00213E+03  1.38188E+03  2.53031E+03  3.45204E+03  2.57749E+03  3.52028E+03
 -1.99014E+03  5.92826E+03 -4.38550E+03  4.94206E+03 -5.60449E+03  1.89394E+03 -5.92989E+03 -3.10513E+03
 -2.32308E+03 -6.10304E+03  2.25200E+03 -8.20904E+03  3.06531E+03 -4.78878E+03  5.06494E+03 -1.59195E+03
  4.27827E+03  9.95424E+02  2.89702E+02  3.35431E+03 -8.33929E+02  2.37119E+03 -2.02500E+03 -1.53310E+03
 -1.00131E+02 -3.05976E+03  2.27814E+03 -1.66291E+03  2.96127E+03 -1.45132E+03  1.93266E+03  1.27717E+03
  2.44259E+03  4.22216E+02  9.83719E+02  1.86798E+03 -3.21013E+01  1.22342E+03  1.19468E+03 -8.16750E+02
 -3.94139E-01 -6.04836E+01  3.04412E+03  1.40084E+03  3.51180E+02  3.83157E+03 -1.19027E+03  4.55690E+03
 -2.90108E+03  2.60137E+03 -4.74845E+03  1.83263E+03 -3.42720E+03 -5.92924E+02 -1.59528E+03 -1.52110E+03
  1.08088E+03 -2.62470E+03  2.38831E+03 -1.59065E+02  1.60089E+03  3.21797E+03 -2.71258E+02  2.65891E+03
 -3.36452E+03  9.95831E+02 -2.85600E+03 -2.04474E+03 -1.81511E+03 -4.20846E+03 -3.28218E+02 -3.51835E+03
  7.97367E+02 -9.32603E+02  1.65539E+03 -5.28450E+02  2.57588E+03  5.83851E+02  1.37249E+03  2.13011E+03
  4.65053E+01  5.06100E+02 -1.97357E+03 -9.27100E+02  6.31258E+02 -1.26068E+03  3.54645E+03 -2.27957E+03
  4.12516E+03 -4.37408E+00  3.45775E+03  3.20544E+03  2.06322E+03  4.00121E+03 -1.31383E+03  3.18062E+03
 -3.87267E+03  2.05308E+03 -2.66635E+03 -1.78040E+02 -1.21532E+03 -3.60480E+03  4.69979E+02 -1.86325E+03
  2.18659E+03 -4.40527E+02  1.44105E+03  4.67708E+02  1.31024E+03  2.25092E+03  2.84053E+02  2.16534E+03
 -2.65502E+02  2.78109E+03 -8.44935E+02 -3.37689E+02 -3.18953E+02  5.05581E+02 -1.60060E+03  4.91511E+02
 -1.18221E+03  1.23899E+03 -3.87749E+03  7.42350E+02 -3.00403E+03  1.34177E+03 -3.09610E+03 -1.22888E+03
 -8.49072E+02 -4.99002E+03  1.12217E+03 -5.00303E+03  3.41999E+03 -4.57435E+03  6.45918E+03 -1.21855E+03
  4.28046E+03 -9.90821E+01  3.22747E+03  3.84392E+03 -4.79369E+02  5.12304E+03 -2.51048E+03  2.15965E+03
 -1.50253E+03  2.13093E+03 -1.21564E+02 -1.31643E+03 -1.07827E+03  9.30898E+02 -9.06656E+02 -2.59437E+02
 -1.48413E+03 -7.05687E+01 -1.34554E+03 -4.15671E+02  7.85305E+02 -2.93383E+02 -7.40034E+02 -1.92617E+03
  2.14115E+03 -1.03701E+03  9.68759E+02 -1.98134E+02  2.98308E+03  2.28202E+03  5.58394E+02  2.95359E+03
 -3.30717E+03  3.84668E+03 -3.12749E+03  3.40608E+03 -2.88649E+03  4.03708E+02 -3.09553E+03 -1.69734E+03
 -2.27968E+03 -4.10433E+03  1.13284E+03 -3.07955E+03  2.29592E+03 -1.28911E+03  1.53597E+03  9.32053E+01
  1.66670E+03 -2.67096E+02 -9.58750E+01  2.54526E+02 -8.61769E+02  7.61518E+02  6.54581E+02 -1.48056E+03
  1.32302E+03 -1.81490E+02  1.91762E+03 -6.60887E+02 -6.60452E+01  1.82694E+03  2.17339E+02  2.20346E+03
 -1.30264E+03  9.65137E+02 -1.70102E+03 -3.84011E+02 -1.34790E+03 -1.22366E+03 -4.43665E+02 -2.31127E+03
  1.85545E+03 -2.16743E+03  1.96336E+03 -8.13112E+02  2.31213E+03 -7.06174E+02  1.67524E+03  2.50128E+03
  1.13593E+03  1.28029E+03 -2.01268E+02  2.20779E+03 -1.04878E+03  1.39328E+02 -5.70358E+01 -7.43032E+02
 -1.03911E+03  2.67514E+02 -6.32407E+01  3.49279E+02 -1.04280E+02  4.38555E+02 -1.78355E+03 -1.13325E+03
 -8.10305E+02 -1.82092E+03 -9.96084E+02 -1.74925E+03  1.57480E+03 -1.72697E+03  1.80506E+03 -1.08914E+03
  1.49247E+03 -5.64223E+02  1.29606E+03  8.65952E+02  2.17872E+02  1.09239E+03 -9.59251E+02  1.25330E+03
