 $NMID ID='MM_0lb_SNR200_20hz_g50_86.RAW', FMTDAT='(8E13.5)'
 TRAMP=1., VOLUME=1. $END
  3.09651E+05  2.93045E+02  3.37247E+05  2.51240E+05  8.39071E+04  3.37766E+05 -1.31849E+05  2.50175E+05
 -1.89532E+05  8.30945E+04 -1.11942E+05 -3.35477E+04  1.30582E+03 -5.04652E+04  5.41832E+04  4.27342E+02
  3.60503E+04  5.34926E+04 -1.69276E+04  7.48522E+04 -6.12957E+04  6.15213E+04 -8.20511E+04  3.25121E+04
 -7.94661E+04 -1.09061E+04 -5.57710E+04 -4.96394E+04 -1.44311E+04 -6.77619E+04  2.72118E+04 -4.54050E+04
  3.94854E+04  2.85869E+03  1.59041E+04  4.71931E+04 -3.28463E+04  4.54074E+04 -6.47836E+04 -3.26062E+02
 -5.19049E+04 -5.68471E+04 -6.60955E+03 -7.54621E+04  3.30302E+04 -5.33692E+04  4.62226E+04 -1.51891E+04
  4.13182E+04  1.15496E+04  3.18208E+04  2.53114E+04  1.48463E+04  2.75864E+04 -5.21898E+03  2.68203E+04
 -2.25026E+04  1.26357E+04 -1.91087E+04 -3.59143E+03  3.33120E+03 -7.20516E+03  2.04455E+04  1.06584E+04
  7.89714E+03  3.47795E+04 -3.08739E+04  3.31165E+04 -6.04367E+04  2.22961E+03 -5.46172E+04 -4.03654E+04
 -1.16658E+04 -6.04156E+04  3.77888E+04 -4.36588E+04  5.47468E+04 -1.95886E+03  3.24374E+04  2.97293E+04
 -6.46447E+03  3.27921E+04 -2.79784E+04  1.36544E+04 -2.75074E+04 -6.36478E+03 -1.44545E+04 -9.20421E+03
 -7.83359E+03 -1.21084E+04 -1.01583E+03 -1.68577E+04  6.35711E+03 -2.28944E+04  1.48393E+04 -1.32221E+04
  1.21946E+04  4.41536E+03 -6.05139E+03  1.26968E+04 -1.87025E+04 -2.02406E+03 -7.75566E+03 -2.93595E+04
  2.12659E+04 -3.98597E+04  4.33854E+04 -1.94156E+04  4.11767E+04  1.77765E+04  1.38885E+04  4.18223E+04
 -1.50951E+04  3.11768E+04 -2.25152E+04  1.67926E+03 -9.00208E+03 -2.63939E+04  2.00556E+04 -2.98954E+04
  3.85615E+04 -6.31337E+03  3.06030E+04  2.21428E+04  1.44526E+04  4.20497E+04 -7.41185E+03  4.39086E+04
 -2.72513E+04  2.88135E+04 -3.69337E+04  9.30101E+03 -3.71410E+04 -1.53931E+04 -2.09681E+04 -3.32049E+04
  7.23602E+03 -3.36284E+04  2.89757E+04 -1.27753E+04  2.55879E+04  1.07249E+04  2.43363E+03  1.73601E+04
 -1.36239E+04  6.40164E+03 -9.60849E+03 -7.16974E+03  5.90618E+03 -9.96890E+03  1.77477E+04  6.89207E+03
  1.15544E+04  2.12863E+04 -6.41038E+03  2.33236E+04 -2.14634E+04  8.45052E+03 -2.36578E+04 -6.42347E+03
 -1.57682E+04 -1.56736E+04 -5.56700E+03 -1.57172E+04  3.78133E+03 -1.32738E+04  1.13504E+04 -1.37650E+04
  2.07596E+04 -1.08265E+04  2.57646E+04  1.42179E+03  2.08303E+04  1.54886E+04  4.21929E+03  3.16479E+04
 -1.54325E+04  2.67056E+04 -2.51543E+04  8.63237E+03 -2.01324E+04 -1.01041E+04 -3.79466E+03 -1.48100E+04
  3.28287E+03 -4.59280E+03 -2.89361E+03  5.61317E+03 -1.19565E+04  5.32808E+03 -1.21549E+04 -4.27009E+03
 -8.91891E+03 -1.41936E+04  3.94857E+03 -1.86920E+04  1.13163E+04 -1.39175E+04  1.31116E+04 -1.42397E+03
  9.70986E+03  1.05655E+04 -1.18972E+03  1.44771E+04 -9.55817E+03  7.59135E+03 -1.41921E+04 -3.21152E+03
 -1.04496E+04 -1.31245E+04 -1.23425E+03 -1.89121E+04  9.31214E+03 -1.47885E+04  1.55422E+04 -7.18762E+03
  1.39249E+04  4.84491E+02  1.00868E+04  2.89863E+03  4.29584E+03 -3.94194E+02  7.08431E+03 -1.41459E+03
  1.44730E+04  1.30772E+03  1.35169E+04  1.11578E+04  7.75169E+03  2.21564E+04 -3.74818E+03  2.53123E+04
 -1.45168E+04  1.89562E+04 -2.23614E+04  9.89344E+03 -2.26804E+04 -2.57662E+03 -2.03626E+04 -1.32431E+04
 -9.87977E+03 -1.82448E+04  6.52819E+03 -1.81178E+04  1.56353E+04 -1.00176E+04  1.47113E+04  3.71703E+03
  6.45531E+03  1.06244E+04 -7.12874E+03  1.02835E+04 -1.23903E+04  2.31360E+03 -1.03285E+04 -7.95903E+03
 -3.93932E+02 -1.17565E+04  6.10558E+03 -8.61836E+03  8.33171E+03 -2.83179E+03  1.87764E+03  4.81815E+03
 -4.84601E+03  7.07813E+02 -3.57304E+03 -6.22915E+03  1.52717E+03 -9.83783E+03  8.03435E+03 -9.39731E+03
  1.16786E+04 -3.34217E+03  1.02240E+04  2.35792E+03  9.70103E+03  9.19439E+03  4.36848E+03  1.27863E+04
 -1.48447E+03  1.46335E+04 -8.62078E+03  9.30514E+03 -1.05457E+04  3.74867E+03 -8.31081E+03 -2.69043E+03
 -3.87518E+03 -2.35150E+03 -2.65427E+03  2.29775E+03 -1.99231E+03  2.34901E+03 -3.27188E+03  2.53228E+03
 -7.72961E+03  5.21942E+02 -9.24627E+03 -6.95764E+03 -2.97399E+03 -1.06224E+04  2.63263E+03 -8.01740E+03
  6.50472E+03 -3.39884E+03  5.16488E+03  1.72519E+03  1.19019E+03  2.11976E+03 -3.49404E+03  1.16005E+02
 -3.88811E+03 -5.02833E+03 -5.01688E+02 -6.13939E+03  3.29002E+03 -7.75415E+03  9.35655E+03 -2.80516E+03
  1.12623E+04 -9.04414E+02  6.83774E+03  6.41094E+03  8.97809E+02  6.93620E+03 -5.74221E+03  7.27564E+03
 -7.44282E+03  2.13061E+03 -3.20259E+03 -4.06366E+02  9.28511E+02 -5.44916E+02  4.50081E+03 -9.10317E+02
  4.67276E+03  3.51349E+03  4.38197E+02  5.90779E+03 -2.96444E+03  6.14484E+03 -7.21571E+03  7.75079E+02
 -5.73494E+03 -4.05782E+03  6.22889E+02 -6.59691E+03  3.23870E+03 -2.48163E+03  2.54476E+03  5.87779E+02
  1.01026E+03  1.60619E+03 -5.03350E+03  4.34493E+03 -4.71952E+03  1.96295E+03 -4.32859E+03 -6.68904E+02
 -2.12841E+03 -6.36204E+03  7.16340E+02 -6.36376E+03  4.54618E+03 -4.32670E+03  4.85524E+03  9.49311E+02
  3.12552E+03  4.52940E+03  3.73722E+02  7.17464E+03 -4.68333E+03  4.10258E+03 -5.49349E+03 -2.06121E+02
 -5.24118E+03 -4.55955E+03 -1.59548E+03 -4.48845E+03  2.64186E+03 -4.33815E+03  1.62738E+03 -3.22165E+03
  2.75656E+03  6.01019E+01  1.20448E+02  1.58662E+03  1.10433E+03 -1.38377E+03  5.15204E-01 -1.60417E+03
  3.57570E+03 -3.42371E+02  5.10566E+03  8.53705E+01  4.38519E+03  2.16100E+03  5.72166E+03  6.36859E+03
  2.78970E+02  7.97441E+03 -6.19147E+03  5.50061E+03 -8.34268E+03  8.89224E+02 -7.47242E+03 -2.45308E+03
 -3.58379E+03 -6.02580E+03  6.54360E+01 -4.47125E+03  1.52730E+03 -1.13193E+03  7.27319E+02 -1.40532E+03
  6.53025E+01 -1.03590E+03  1.55703E+03 -1.62927E+03  4.22122E+03 -1.42426E+03  3.09065E+03  5.73644E+02
  4.08857E+03  1.36377E+02  1.49000E+03  4.14415E+03 -1.77042E+03  1.35004E+03 -3.86016E+03  7.47346E+02
 -4.76924E+03 -1.56318E+03 -1.33486E+03 -2.58693E+03  1.22043E+03 -5.57660E+03  2.17695E+03 -4.04649E+03
  4.61255E+03 -2.75377E+03  5.19568E+03  6.68529E+02  4.31158E+03  3.64743E+03  7.95404E+02  4.96557E+03
 -2.40129E+03  6.92955E+03 -2.77601E+03  1.25455E+03 -2.05502E+03 -1.15755E+03 -7.20347E+02 -1.99023E+01
 -3.95633E+02 -3.09168E+01 -2.03300E+02  1.71446E+03 -1.77247E+03  1.22607E+03 -2.96097E+03 -5.47186E+02
 -1.23417E+03 -3.83326E+03  1.02128E+03 -3.30022E+03  1.76803E+03 -3.75293E+03  2.83512E+03 -6.75737E+02
  3.68030E+03  1.82256E+03  1.25233E+03  2.01021E+03 -3.10188E+02  3.99855E+03 -2.09568E+03  2.30953E+03
 -3.62772E+03  8.77186E+00 -3.05109E+03 -1.42119E+03 -7.44593E+02 -2.84913E+03  7.55082E+02 -2.56533E+03
  1.23259E+03 -1.40597E+03  1.03787E+03  4.88401E+01  6.98085E+02  9.38720E+02  1.20217E+03  6.43732E+02
  2.20302E+03 -3.33880E+02  6.10511E+02  1.17611E+03  1.41721E+03  1.76940E+03  1.33660E+03  1.65946E+03
 -1.58722E+03  2.44537E+03 -1.68931E+03  3.92216E+03 -2.30100E+03  4.01816E+02 -3.38999E+03  1.15249E+03
 -1.14913E+03 -2.46695E+03 -1.98556E+00 -3.54973E+03  1.21920E+03 -1.79624E+03  1.80139E+03 -4.78601E+02
  1.79716E+03  1.51799E+03  5.13194E+02  1.97319E+03 -8.79432E+02  1.05628E+03 -6.90499E+02 -9.60251E+02
 -4.70423E+02 -4.46629E+02  1.82896E+03 -6.47564E+02  9.61829E+02 -7.39888E+02  1.31533E+03  5.69645E+01
  9.26342E+02  5.31853E+02  4.85802E+02  3.76997E+00 -4.05266E+01  7.45636E+02  1.11597E+03 -1.55763E+02
  8.63895E+02 -1.16274E+02  2.09292E+03  8.21659E+02 -6.64094E+01  2.40953E+03  5.79510E+01  2.14254E+03
 -1.77537E+03 -1.03776E+02 -1.16847E+03  6.50846E+02 -1.51467E+03 -4.42139E+02  6.08682E+01 -5.14338E+02
  4.86744E+02 -3.69428E+02 -8.95238E+01 -1.49594E+03  3.69400E+02  4.61303E+02 -1.40954E+03  2.34056E+03
 -2.52516E+03  1.17039E+03 -1.50194E+03 -4.90786E+02 -1.44002E+03 -1.47783E+03  7.84219E+02 -2.47979E+03
  8.13328E+02  7.02439E+02  3.43859E+02 -4.41533E+02  7.03377E+01 -6.24903E+02  7.05608E+01  1.32761E+03
  4.65074E+02 -4.06166E+02 -6.14857E+02 -1.41347E+02  9.46783E+01 -1.18403E+02  5.98621E+02 -1.34485E+03
  1.13629E+03 -4.10684E+02  2.77990E+03  1.93604E+02  1.21542E+03  1.39260E+03  6.88548E+02  1.22643E+03
 -1.97019E+03 -4.35253E+02 -1.18206E+03 -5.28239E+02 -9.55329E+02 -1.34802E+03 -4.58079E+02 -2.85219E+02
  1.30447E+03  1.31075E+02  1.42556E+03  4.15280E+02  4.51815E+02  4.63691E+02 -4.23211E+01  5.83331E+02
 -1.05858E+03  1.61037E+03 -9.60882E+02  4.91341E+02  5.51467E+01  2.20389E+02 -6.87609E+02 -3.67253E+02
 -7.65506E+02  6.94377E+02 -1.88154E+03 -1.66179E+02 -1.54229E+03  5.89809E+02 -3.09537E+03 -1.89404E+03
 -1.35994E+03 -1.80952E+03 -6.68802E+01 -1.84045E+03  6.46545E+02 -2.31606E+03  1.74951E+03 -7.65484E+02
  2.34099E+03 -8.77129E+02  4.96044E+02  5.52540E+02 -6.48114E+02  1.70176E+03 -1.46438E+03  9.82116E+02
 -3.98502E+01  7.91027E+02  9.62318E+02  1.29469E+02 -8.90564E+02  7.41806E+02 -1.13202E+03  9.40723E+01
 -9.70940E+02  1.94121E+01 -9.68174E+02  1.48359E+03 -2.74222E+02 -4.04105E+02  5.10361E+02  1.01269E+02
 -4.47513E+02 -1.35245E+03  4.08278E+02  1.26823E+01  8.71452E+02  1.24022E+03 -6.02346E+02  1.09746E+03
 -9.18161E+02  1.47483E+03 -1.65344E+03  9.82532E+02 -7.06136E+02 -1.12600E+03 -1.57685E+02 -1.18686E+03
 -1.39772E+03 -1.60134E+03  8.11179E+02 -2.65104E+02 -3.07132E+02 -3.88501E+02  1.37099E+02  2.74430E+02
  5.45018E+02  9.83568E+02  4.48142E+02 -6.80154E+01 -1.10709E+03 -5.52802E+02 -4.11403E+02  7.65727E+01
  6.91226E+02 -3.62580E+02 -1.19034E+03 -1.52790E+02  2.34509E+02  1.09578E+02  9.94449E+02  4.68063E+02
 -3.08854E+02  1.22661E+02  4.00663E+02 -6.22669E+01 -7.32746E+02  2.46965E+02 -2.85560E+02 -1.30549E+03
 -2.15280E+02 -2.06220E+02 -5.93066E+02  4.83369E+01  6.61419E+02 -1.08805E+03  7.60640E+02 -6.86190E+02
  1.15985E+03  5.57198E+02  4.55937E+02  5.94851E+02 -1.08371E+03  6.33935E+02 -5.95964E+02  1.39448E+03
 -6.19350E+02 -1.12467E+03 -7.34217E+02 -2.99632E+02 -9.43844E+02  7.13153E+02 -1.41542E+03 -1.96537E+02
 -8.24231E+02  8.41798E+02 -6.40129E+02 -1.05550E+03  1.39056E+02 -1.80755E+03  9.87383E+02  5.17512E+01
  1.45806E+02  1.98606E+02 -5.03071E+02  3.38640E+02 -5.80988E+02  2.39467E+02 -4.08646E+02 -3.27524E+00
