 $NMID ID='MM_0lb_SNR200_20hz_g45_80.RAW', FMTDAT='(8E13.5)'
 TRAMP=1., VOLUME=1. $END
  3.09655E+05  1.34901E+03  3.36384E+05  2.50109E+05  8.31406E+04  3.37754E+05 -1.33462E+05  2.50226E+05
 -1.90460E+05  8.18784E+04 -1.10830E+05 -3.18217E+04  1.61140E+03 -5.00700E+04  5.26408E+04 -1.71867E+02
  3.49620E+04  5.27433E+04 -1.75211E+04  7.54048E+04 -5.91894E+04  6.32887E+04 -8.20924E+04  3.12396E+04
 -7.89996E+04 -1.11934E+04 -5.55703E+04 -5.03491E+04 -1.53652E+04 -6.78847E+04  2.56479E+04 -4.42873E+04
  3.87531E+04  4.20211E+03  1.52742E+04  4.73955E+04 -3.41404E+04  4.51355E+04 -6.49587E+04 -3.33346E+02
 -5.16854E+04 -5.56222E+04 -5.59919E+03 -7.48324E+04  3.33743E+04 -5.24723E+04  4.58094E+04 -1.64586E+04
  4.16814E+04  1.09863E+04  3.06581E+04  2.49273E+04  1.56686E+04  2.83420E+04 -4.58775E+03  2.61922E+04
 -2.10863E+04  1.29763E+04 -1.98986E+04 -3.72501E+03  3.23850E+03 -7.97786E+03  2.00553E+04  1.10008E+04
  7.50020E+03  3.23529E+04 -3.03851E+04  3.29446E+04 -5.95085E+04  2.47702E+03 -5.40202E+04 -4.09310E+04
 -1.26742E+04 -5.92550E+04  3.74844E+04 -4.27710E+04  5.51230E+04 -1.15085E+03  3.01740E+04  3.10561E+04
 -7.31380E+03  3.13134E+04 -2.72272E+04  1.24156E+04 -2.73414E+04 -7.13549E+03 -1.43180E+04 -1.00408E+04
 -6.46347E+03 -1.04542E+04 -1.84937E+03 -1.59884E+04  6.21251E+03 -2.19980E+04  1.48753E+04 -1.43967E+04
  1.27097E+04  3.88346E+03 -6.46539E+03  1.28543E+04 -1.99729E+04 -6.91044E+02 -7.60983E+03 -3.01836E+04
  2.02056E+04 -3.90664E+04  4.33403E+04 -1.82765E+04  4.07753E+04  1.80425E+04  1.41295E+04  4.07099E+04
 -1.52876E+04  3.05452E+04 -2.31372E+04  1.09065E+03 -6.38698E+03 -2.44958E+04  2.00135E+04 -3.04608E+04
  3.67276E+04 -6.67583E+03  2.94480E+04  2.27028E+04  1.33923E+04  4.14952E+04 -6.30270E+03  4.38192E+04
 -2.75063E+04  2.80000E+04 -3.63132E+04  7.26040E+03 -3.70695E+04 -1.36456E+04 -2.03785E+04 -3.29489E+04
  5.76818E+03 -3.24532E+04  2.79145E+04 -1.21360E+04  2.68974E+04  1.04544E+04  2.43744E+03  1.72402E+04
 -1.28157E+04  7.40547E+03 -8.94176E+03 -8.33876E+03  5.18336E+03 -1.02013E+04  1.71341E+04  7.33463E+03
  1.14590E+04  2.23197E+04 -7.11336E+03  2.28642E+04 -2.11632E+04  8.45819E+03 -2.39171E+04 -7.05463E+03
 -1.48573E+04 -1.62066E+04 -4.14339E+03 -1.63997E+04  3.44139E+03 -1.22561E+04  1.26818E+04 -1.30266E+04
  1.95388E+04 -1.11147E+04  2.64000E+04  1.79402E+02  1.99978E+04  1.58838E+04  4.25382E+03  3.09820E+04
 -1.57150E+04  2.66837E+04 -2.52673E+04  9.58979E+03 -1.90784E+04 -1.07754E+04 -3.94167E+03 -1.44133E+04
  3.04295E+03 -4.58231E+03 -2.86591E+03  4.97586E+03 -1.06961E+04  4.93303E+03 -1.24978E+04 -3.88842E+03
 -8.12639E+03 -1.50794E+04  4.44992E+03 -1.84217E+04  1.17296E+04 -1.22290E+04  1.35979E+04 -1.90060E+03
  8.03980E+03  1.00897E+04 -3.16678E+02  1.37719E+04 -8.87048E+03  9.49390E+03 -1.37388E+04 -2.52891E+03
 -1.11236E+04 -1.29300E+04 -9.26907E+02 -1.83781E+04  8.03461E+03 -1.38060E+04  1.57597E+04 -6.81964E+03
  1.30649E+04  2.15111E+02  9.93181E+03  3.45436E+03  5.05207E+03  9.40521E+02  7.47802E+03 -2.46819E+03
  1.15857E+04  2.64050E+03  1.34554E+04  1.24184E+04  8.23658E+03  2.26995E+04 -2.87945E+03  2.45156E+04
 -1.44577E+04  1.79622E+04 -2.21966E+04  8.51842E+03 -2.29996E+04 -1.87684E+03 -1.87034E+04 -1.29828E+04
 -9.29804E+03 -1.73099E+04  6.20957E+03 -1.76065E+04  1.56830E+04 -1.05996E+04  1.49983E+04  4.24585E+03
  7.53424E+03  1.02152E+04 -6.56985E+03  1.00356E+04 -1.26350E+04  3.22736E+03 -9.71051E+03 -6.64314E+03
 -1.06936E+03 -1.21905E+04  5.39741E+03 -8.63699E+03  5.90619E+03 -1.68630E+03  5.67079E+02  5.50764E+03
 -4.47599E+03  7.79623E+02 -2.23328E+03 -4.22728E+03  1.33433E+03 -8.71797E+03  7.34060E+03 -9.83170E+03
  1.09906E+04 -3.92315E+03  1.03307E+04  2.27888E+03  9.41661E+03  7.66645E+03  4.58794E+03  1.24575E+04
 -1.21717E+03  1.34053E+04 -8.25676E+03  9.67732E+03 -8.65820E+03  2.70527E+03 -7.06320E+03 -1.55030E+03
 -4.50037E+03 -3.17225E+03 -1.02821E+03  9.78240E+02 -1.48344E+03  1.76118E+03 -3.89025E+03  2.73185E+03
 -7.18350E+03  6.55253E+01 -8.05467E+03 -6.78488E+03 -3.05972E+03 -1.03660E+04  2.94918E+03 -7.03705E+03
  6.52323E+03 -3.59804E+03  4.66698E+03  1.77008E+03  1.04308E+03  2.19649E+03 -2.06544E+03  2.27141E+02
 -3.20037E+03 -4.57582E+03 -3.96220E+02 -5.68091E+03  4.58646E+03 -7.74132E+03  9.33055E+03 -3.26587E+03
  1.02794E+04  1.21000E+03  6.65943E+03  5.20667E+03  1.20512E+03  6.84554E+03 -4.27497E+03  7.70071E+03
 -6.43566E+03  3.29216E+03 -2.29357E+03 -1.80514E+03  5.91075E+02 -1.26531E+03  4.12739E+03 -1.95420E+03
  3.99504E+03  3.74440E+03  1.80283E+03  5.56740E+03 -4.75383E+03  5.05578E+03 -5.86505E+03  1.31277E+03
 -3.50994E+03 -1.75739E+03  7.58296E+02 -5.50795E+03  3.88409E+03 -3.49094E+03  2.48398E+03  6.70871E+02
 -2.10284E+02  3.27216E+03 -2.47101E+03  4.16108E+03 -3.62054E+03  1.88276E+03 -3.14537E+03 -4.83308E+02
 -2.36896E+03 -4.87149E+03 -2.73238E+02 -7.06891E+03  4.86033E+03 -3.72103E+03  4.41842E+03  6.96326E+02
  4.24537E+03  4.26229E+03  2.11055E+01  6.34841E+03 -4.62649E+03  3.85130E+03 -4.26241E+03 -8.73259E+02
 -4.28328E+03 -5.01950E+03 -1.65270E+03 -3.70226E+03  2.25183E+03 -4.17776E+03  2.13138E+03 -1.32251E+03
  2.11280E+03  1.00458E+02  2.69859E+02  2.31638E+03  6.02030E+02 -4.82485E+02 -5.86592E+02 -1.18045E+03
  2.46019E+03  2.40929E+00  4.13711E+03  8.93967E+02  4.22564E+03  1.23179E+03  4.82708E+03  6.05133E+03
 -1.00653E+03  7.23642E+03 -5.57439E+03  5.72899E+03 -8.40548E+03  1.71973E+03 -6.54514E+03 -1.97262E+03
 -3.33561E+03 -5.58953E+03 -2.88841E+02 -4.34612E+03  1.85758E+03 -1.48792E+03  2.35933E+03 -1.96265E+03
  1.46790E+03 -6.00003E+02  2.14037E+03 -2.32845E+03  3.62992E+03 -1.61824E+03  2.54686E+03  1.16078E+03
  5.10618E+03  1.98744E+03  6.05709E+02  1.29126E+03 -1.87363E+03  1.44896E+03 -3.53330E+03  1.46549E+03
 -3.96614E+03 -2.12901E+03 -3.92867E+02 -2.78928E+03  7.40673E+02 -4.34318E+03  3.38996E+03 -4.30990E+03
  4.88411E+03 -2.03335E+03  5.31845E+03 -3.21403E+01  2.62273E+03  3.16532E+03  5.56127E+02  5.68227E+03
 -1.89837E+03  3.73584E+03 -2.74507E+03  1.00469E+03 -2.26323E+03 -6.56871E+02 -9.28700E+02 -9.87696E+01
  1.82217E+02  7.63075E+02 -5.39340E+02  8.02676E+02 -2.82646E+03  2.60270E+02 -3.98705E+03 -2.04265E+02
 -6.63051E+02 -3.69602E+03  1.79323E+03 -3.92238E+03  1.96914E+03 -2.68957E+03  3.28957E+03 -1.33047E+03
  3.40893E+03  1.98465E+03  1.14000E+03  3.45699E+03 -1.22913E+03  3.54152E+03 -2.03634E+03  1.83005E+03
 -3.36457E+03  2.45057E+02 -2.64080E+03 -8.00580E+02  1.62908E+02 -3.74943E+03  9.99350E+02 -2.00292E+03
  9.74964E+02 -1.99534E+03  1.09970E+03 -2.63566E+02  6.45029E+02  1.35947E+03  1.48379E+03  1.04491E+03
  1.18889E+03 -1.85011E+02  1.35008E+03  7.25422E+02  2.19696E+02  1.84035E+03  1.66335E+03  9.53386E+02
 -1.48680E+03  2.14635E+03 -1.66723E+03  3.39201E+03 -2.04121E+03  3.67772E+02 -3.13083E+03  3.57113E+02
 -1.34557E+03 -3.31735E+03  1.06868E+03 -3.80479E+03  1.17967E+03 -1.24132E+03  2.92494E+03 -2.37962E+02
  2.74221E+03  3.71714E+02  3.60966E+02  9.97926E+02 -4.31972E+02  1.05026E+03 -7.56086E+02 -9.18715E+02
  1.14709E+02 -1.12427E+03  1.27886E+03 -6.99448E+02  1.52867E+03 -8.03142E+02  1.01165E+03  5.40846E+02
 -2.24103E+02  4.18981E+02  5.30562E+02  4.70251E+02  4.04462E+02  1.42017E+03  1.04396E+03 -1.62459E+02
 -4.27037E+02 -2.44158E+02  1.94874E+03  8.29584E+02 -7.83511E+01  2.06633E+03 -7.48964E+02  2.93127E+03
 -1.82085E+03  3.43923E+02 -2.34898E+03  6.52720E+02 -2.47991E+03  1.22045E+02  1.55733E+02  4.93709E+01
 -2.61799E+02 -2.58464E+02  8.36318E+02 -3.67499E+02  7.41926E+02  2.01853E+03 -3.92720E+01  8.21621E+02
 -1.60733E+03  1.19871E+03  2.83411E+02 -1.14818E+03 -5.11459E+02 -1.16667E+03  6.85847E+01 -1.49612E+03
 -5.26483E+02 -1.63838E+02  1.07266E+03  4.67879E+02  7.53999E+02 -4.71629E+01  1.08220E+03  1.29233E+03
 -7.16274E+02 -4.17298E+02 -1.48621E+03  6.69681E+02  3.57932E+02 -9.66726E+02  1.67496E+03 -1.25409E+03
  1.19916E+03  3.16985E+02  2.77385E+03  8.18413E+02  1.36101E+03  1.06099E+03 -3.93584E+02  1.33540E+03
 -1.40293E+03  6.33015E+02 -6.31811E+02  6.69743E+02 -1.11347E+03 -1.05626E+03  7.69341E+02  5.35234E+02
  2.09072E+03 -7.63039E+02  9.72090E+02  4.28829E+01  9.95447E+02  2.00539E+02 -6.27572E+02  2.10420E+02
  3.52215E+02  1.22116E+03 -3.50835E+02 -3.12913E+02  8.84701E+02  4.68611E+02 -5.18737E+01 -4.21214E+01
 -7.21845E+02  9.28677E+02 -1.65660E+03  1.56423E+03 -2.01568E+03  9.78119E+02 -1.54549E+03 -9.66806E+02
 -8.94279E+02 -1.69075E+03 -1.02636E+02 -2.60805E+03  9.71425E+02 -1.93772E+03  2.67151E+03  2.80682E+02
  1.58579E+03 -1.52154E+03  6.90017E+02  1.38389E+03 -1.32279E+03  1.00635E+03 -4.79360E+02  1.72466E+03
 -1.23705E+03  1.07565E+03 -1.07129E+03 -6.37088E+02 -4.25660E+02  3.61891E+02 -4.48416E+02 -9.39474E+02
 -5.72563E+02 -7.64841E+02 -4.47906E+02 -3.72188E+02  3.90188E+02 -1.23404E+03 -8.96824E+02 -1.74017E+03
  1.29092E+03  3.44728E+02 -3.28265E+02  5.56974E+02  1.04584E+03  7.77743E+02 -2.17281E+02  7.20946E+02
 -1.29298E+03  1.92353E+03 -1.74956E+03  1.14331E+03 -1.39368E+03 -9.91285E+02 -1.44742E+03 -1.56413E+03
 -1.24640E+03 -1.43912E+03  5.21352E+02 -1.25975E+03  3.50007E+02 -9.16976E+01  7.79004E+02 -9.53500E+01
  6.63445E+02  6.19600E+02  9.77018E+01  3.33243E+02 -1.32499E+03  1.56166E+02  4.81095E+02 -1.05936E+01
  7.07086E+02  1.34759E+01  5.68502E+02  6.24647E+02 -8.19606E+02  1.81918E+03 -5.74098E+01  6.80657E+01
 -1.87141E+01  1.78142E+02 -3.88280E+02  1.07099E+01 -8.32063E+02  4.48160E+02  5.66920E+02 -5.69535E+02
  1.32331E+03  4.63593E+02 -8.54765E+02  1.19118E+02  3.45171E+02 -3.88831E+01 -1.07726E+03  3.52521E+02
  1.34136E+03  1.58019E+03 -1.12835E+03 -9.41036E+01 -2.96598E+02  1.44182E+03  6.76152E+02  1.30253E+02
 -1.30138E+01 -1.15516E+02 -6.25163E+02 -9.26141E+02 -1.73412E+03  3.68354E+02  1.22884E+02 -3.16026E+02
 -9.42442E+02  1.78220E+03 -7.66050E+02 -1.38698E+02  8.23512E+02 -1.06936E+03  1.22685E+03 -7.96058E+01
  4.41721E+02 -5.64983E+00 -5.85836E+02 -4.07946E+02  3.11647E+02  3.61622E+02 -7.96568E+02  1.84109E+02
