 $NMID ID='MM_0lb_SNR200_15hz_g60_6.RAW', FMTDAT='(8E13.5)'
 TRAMP=1., VOLUME=1. $END
  3.10044E+05  1.49675E+02  3.37227E+05  2.50651E+05  8.58965E+04  3.37424E+05 -1.32823E+05  2.50229E+05
 -1.90272E+05  8.30173E+04 -1.11507E+05 -3.16280E+04  9.78152E+01 -5.02626E+04  5.34138E+04  1.66514E+03
  3.62832E+04  5.35454E+04 -1.64172E+04  7.54507E+04 -6.06214E+04  6.29946E+04 -8.37587E+04  3.26165E+04
 -8.15995E+04 -1.15800E+04 -5.67735E+04 -5.15337E+04 -1.36933E+04 -7.02334E+04  2.80634E+04 -4.69737E+04
  4.02411E+04  3.32027E+03  1.61676E+04  4.91737E+04 -3.43937E+04  4.70390E+04 -6.64190E+04  1.38483E+03
 -5.27869E+04 -5.67254E+04 -6.38947E+03 -7.68956E+04  3.38452E+04 -5.62997E+04  4.84181E+04 -1.60567E+04
  4.41632E+04  1.10580E+04  3.21586E+04  2.51753E+04  1.71581E+04  2.97223E+04 -5.15815E+03  2.89946E+04
 -2.20749E+04  1.17460E+04 -1.72359E+04 -5.67236E+03  6.02189E+03 -7.44764E+03  2.28662E+04  1.28418E+04
  7.65557E+03  3.51307E+04 -3.14288E+04  3.64036E+04 -6.38656E+04  2.59713E+03 -5.83197E+04 -4.39204E+04
 -1.18113E+04 -6.40849E+04  3.99688E+04 -4.57764E+04  5.95832E+04 -1.84450E+03  3.43795E+04  3.26913E+04
 -7.42814E+03  3.55363E+04 -3.03876E+04  1.68892E+04 -3.09996E+04 -3.47561E+03 -1.66249E+04 -1.04994E+04
 -8.69751E+03 -1.21829E+04  2.05708E+02 -1.72211E+04  8.01572E+03 -2.31462E+04  1.53015E+04 -1.31740E+04
  1.23177E+04  5.83776E+03 -8.94648E+03  1.31649E+04 -2.19286E+04 -5.51928E+03 -9.13584E+03 -3.39736E+04
  2.27970E+04 -4.42879E+04  4.77725E+04 -1.92158E+04  4.67706E+04  2.08957E+04  1.48267E+04  4.48512E+04
 -1.53324E+04  3.41455E+04 -2.44838E+04  2.38183E+03 -9.68178E+03 -2.72765E+04  2.06209E+04 -3.39264E+04
  4.24103E+04 -1.04110E+04  3.69676E+04  2.41653E+04  1.84252E+04  4.68450E+04 -8.05974E+03  5.09623E+04
 -3.22799E+04  3.37778E+04 -4.45800E+04  9.95130E+03 -4.28070E+04 -1.77616E+04 -2.26653E+04 -3.83298E+04
  7.26834E+03 -3.86955E+04  3.15446E+04 -1.53230E+04  2.94197E+04  1.04151E+04  3.42217E+03  1.94505E+04
 -1.44367E+04  8.88711E+03 -1.03406E+04 -6.77895E+03  5.52240E+03 -1.02327E+04  1.82942E+04  6.66392E+03
  1.28258E+04  2.28412E+04 -5.87356E+03  2.57238E+04 -2.32738E+04  1.06977E+04 -2.80272E+04 -4.38952E+03
 -2.22729E+04 -1.76333E+04 -9.15716E+03 -2.04603E+04  4.44116E+03 -2.08265E+04  1.66882E+04 -1.90953E+04
  2.68506E+04 -1.28039E+04  3.26850E+04  3.11302E+03  2.32769E+04  2.04040E+04  4.43395E+03  3.73388E+04
 -1.84766E+04  3.07590E+04 -2.86613E+04  1.12749E+04 -2.00801E+04 -1.00936E+04 -4.22000E+03 -1.38353E+04
  2.24138E+03 -3.38449E+03 -5.06738E+03  6.24019E+03 -1.78152E+04  6.07540E+03 -1.65811E+04 -6.32856E+03
 -1.02951E+04 -1.84923E+04  4.88067E+03 -2.40467E+04  1.54994E+04 -1.62153E+04  1.85382E+04 -2.29653E+03
  1.13490E+04  1.32867E+04 -1.50589E+03  1.96825E+04 -1.31372E+04  1.15957E+04 -1.94831E+04 -3.48152E+03
 -1.48526E+04 -1.71881E+04 -2.76759E+03 -2.38047E+04  1.16442E+04 -1.87795E+04  1.97905E+04 -1.09316E+04
  1.74562E+04 -4.84497E+02  1.25684E+04  4.72302E+03  6.84106E+03  1.81296E+03  1.02098E+04 -1.75474E+03
  1.80250E+04  1.71885E+03  1.97234E+04  1.57524E+04  1.26822E+04  3.01935E+04 -4.09269E+03  3.51286E+04
 -2.01813E+04  2.76604E+04 -3.15183E+04  1.37120E+04 -3.36806E+04 -1.45681E+03 -2.74094E+04 -1.92135E+04
 -1.21549E+04 -2.85800E+04  9.67226E+03 -2.58223E+04  2.15121E+04 -1.24254E+04  1.94012E+04  6.22517E+03
  8.41899E+03  1.41824E+04 -8.84707E+03  1.22264E+04 -1.69614E+04  1.85871E+03 -1.32937E+04 -1.04022E+04
 -1.01779E+03 -1.59828E+04  7.68713E+03 -1.11493E+04  1.00190E+04 -1.16092E+03  2.78004E+03  6.82742E+03
 -7.09707E+03  1.71048E+03 -6.01239E+03 -5.66732E+03 -1.29844E+03 -1.44275E+04  9.58607E+03 -1.47709E+04
  1.78448E+04 -7.16438E+03  1.82454E+04  2.83905E+03  1.48436E+04  1.25652E+04  8.01726E+03  2.02027E+04
 -3.00654E+03  2.31323E+04 -1.40413E+04  1.47150E+04 -1.66930E+04  4.27835E+03 -1.12949E+04 -3.57019E+03
 -5.22944E+03 -4.21145E+03 -6.73828E+02  2.10004E+02 -1.97383E+03  3.78620E+03 -5.71755E+03  4.75214E+03
 -1.07953E+04 -1.41489E+03 -1.17169E+04 -9.81431E+03 -5.36630E+03 -1.50156E+04  3.10692E+03 -1.21101E+04
  9.62140E+03 -5.28962E+03  6.27794E+03  3.01723E+03  1.42828E+01  4.62069E+03 -5.30261E+03  5.12341E+02
 -4.66638E+03 -6.18498E+03  2.96384E+02 -1.12878E+04  6.52613E+03 -1.18389E+04  1.40255E+04 -6.02797E+03
  1.61469E+04  1.76629E+03  1.14014E+04  9.28587E+03  1.85019E+03  1.22137E+04 -8.43487E+03  1.15741E+04
 -1.00742E+04  5.66269E+03 -5.42488E+03 -2.80360E+03  1.90819E+03 -2.41071E+03  6.66995E+03 -1.54786E+03
  5.66732E+03  4.91106E+03 -1.10982E+02  7.79526E+03 -7.75459E+03  8.46697E+03 -1.11099E+04  2.27985E+03
 -7.73263E+03 -5.06536E+03  1.61223E+03 -9.68836E+03  5.98249E+03 -3.78922E+03  5.63030E+03  1.30867E+03
  1.35980E+03  5.98603E+03 -6.00036E+03  7.33477E+03 -8.61350E+03  3.10875E+03 -8.59986E+03 -3.03020E+03
 -4.55314E+03 -9.14554E+03  2.63884E+03 -1.07313E+04  9.74239E+03 -6.02747E+03  1.00818E+04  9.47106E+02
  5.40922E+03  8.92626E+03 -1.10479E+03  1.09002E+04 -7.98713E+03  6.44429E+03 -7.87717E+03 -1.05254E+03
 -7.94345E+03 -6.41872E+03 -1.17191E+03 -7.39405E+03  4.29423E+03 -6.57599E+03  4.19463E+03 -2.45552E+03
  3.45212E+03  1.75392E+02  2.26143E+02  2.11437E+03  5.28358E+02 -1.99406E+03  1.47671E+03 -4.21252E+03
  7.33322E+03 -1.76198E+03  9.30780E+03  5.17229E+01  9.88371E+03  5.63249E+03  6.67062E+03  1.09582E+04
 -2.76759E+03  1.42174E+04 -1.24277E+04  1.09743E+04 -1.55675E+04  3.09776E+03 -1.16991E+04 -5.22044E+03
 -6.69861E+03 -9.29161E+03 -1.05904E+03 -8.59250E+03  2.55815E+03 -5.02909E+03  3.69655E+03 -1.79227E+03
  2.41034E+03 -2.17060E+03  2.19751E+03 -2.72718E+03  3.91948E+03 -1.31840E+03  5.20397E+03 -5.84530E+02
  6.11766E+03  2.61710E+03  2.03066E+03  4.92287E+03 -2.45152E+03  5.25523E+03 -7.17620E+03  4.64058E+03
 -9.52379E+03 -1.67378E+03 -4.89714E+03 -6.13701E+03  5.86161E+02 -8.66437E+03  5.34326E+03 -9.47974E+03
  9.12125E+03 -3.97412E+03  1.03057E+04  2.02092E+03  7.75054E+03  7.26062E+03  1.49577E+03  9.56010E+03
 -3.62055E+03  9.86018E+03 -5.17481E+03  3.70661E+03 -3.98499E+03  8.84708E+01 -1.08162E+03 -9.49064E+02
 -1.82482E+03 -8.63965E+02 -9.03824E+02  2.32412E+03 -3.86242E+03  8.85490E+02 -6.26547E+03 -7.27479E+02
 -2.66105E+03 -6.03853E+03 -5.07795E+01 -7.28481E+03  5.46720E+03 -7.17719E+03  7.72151E+03 -1.58406E+03
  7.01282E+03  3.92326E+03  2.17991E+03  6.12554E+03 -2.23223E+03  8.16087E+03 -4.45492E+03  4.64004E+03
 -6.86969E+03  9.89105E+02 -6.42965E+03 -4.47655E+03 -7.16781E+02 -6.64979E+03  3.75762E+03 -3.89450E+03
  3.58648E+03 -1.93475E+03  2.68669E+03  1.43918E+03  1.77326E+02  1.61421E+03  1.02052E+03  1.23842E+03
  3.00147E+03  3.19316E+02  1.38389E+03 -8.63288E+01  2.09516E+03  2.61677E+03  3.27869E+03  3.36914E+03
 -3.02544E+03  6.76122E+03 -4.14940E+03  7.52943E+03 -6.41362E+03  2.82284E+03 -7.78944E+03 -2.60134E+03
 -3.37440E+03 -7.12587E+03  1.00807E+03 -8.22635E+03  1.49594E+03 -4.31191E+03  5.34046E+03 -1.30842E+03
  4.68113E+03  4.23143E+03  8.52875E+02  3.45939E+03 -1.33076E+03  3.31252E+03 -2.06263E+03 -7.33583E+02
 -4.72690E+02 -1.88157E+03  2.45528E+03 -2.52868E+03  3.21544E+03 -1.67310E+03  1.88290E+03  5.93249E+02
  2.63536E+03  1.58235E+03  1.12383E+03 -5.11860E+02  4.97941E+02  7.57696E+02  2.26170E+03 -3.25541E+02
  1.59289E+03 -1.96506E+03  3.52302E+03 -4.50531E+01  1.53737E+03  2.72901E+03 -2.41167E+02  4.48471E+03
 -3.71418E+03  1.59941E+03 -5.97808E+03 -1.75214E+02 -3.18063E+03 -3.04849E+03 -1.34537E+03 -3.12174E+03
  1.95060E+03 -3.77060E+03  1.28842E+03 -1.51300E+02 -3.61878E+01  2.21019E+03 -1.44092E+02  3.11821E+03
 -2.83884E+03  2.03289E+03 -2.12469E+03 -6.20805E+02 -1.53063E+03 -4.99775E+03  1.48365E+02 -4.29457E+03
  1.97310E+02 -1.13099E+03  3.01957E+03  1.09690E+02  1.37997E+03  1.08952E+03  5.43632E+02  2.58799E+03
 -3.45953E+02  1.05943E+03 -2.24367E+03 -8.08079E+02  1.10265E+03 -2.29907E+03  4.26750E+03 -1.90986E+03
  4.10338E+03 -1.81772E+03  2.82079E+03  2.00683E+03  3.10812E+03  3.65517E+03 -7.47951E+02  3.93716E+03
 -2.63061E+03  1.44015E+03 -3.23602E+03  3.13332E+02 -2.03242E+03 -3.38322E+03  9.96107E+02 -3.18310E+03
  1.75684E+03  8.71675E+02  1.02316E+03  2.17283E+03  6.02378E+02  1.59453E+03  1.25327E+02  2.27293E+03
 -7.04547E+02  2.43417E+03  2.89927E+02  8.44567E+02 -1.10305E+03  1.00640E+03 -8.02188E+02  6.07960E+01
 -1.84600E+03  1.97587E+03 -2.13854E+03  9.15275E+02 -3.58171E+03  8.20917E+02 -4.39696E+03 -2.76771E+03
 -2.46489E+03 -5.50214E+03  2.07565E+03 -5.28180E+03  1.22532E+03 -4.99498E+03  4.92088E+03 -1.19336E+03
  4.38962E+03  3.00749E+02  3.15715E+03  2.60961E+03  2.39389E+02  3.58854E+03 -1.22699E+03  4.18061E+03
 -2.33626E+03  1.12247E+03 -1.02022E+03  4.46966E+02  3.49220E+02  7.20079E+02 -2.53340E+02  1.09299E+03
 -2.51451E+03  2.86581E+02 -1.55465E+03  3.06580E+01  8.53888E+01 -3.41958E+02 -9.97095E+02 -1.48423E+03
  2.67919E+03 -8.44367E+02  2.44875E+03 -7.37102E+02  2.63763E+03  3.98322E+03 -5.45477E+02  3.33084E+03
 -1.83680E+03  5.34044E+03 -3.52774E+03  3.52665E+03 -4.30213E+03 -8.26264E+02 -2.17498E+03 -3.65419E+03
 -1.60168E+03 -4.55189E+03  1.22807E+02 -2.87151E+03  2.25438E+03 -3.14539E+03  1.89890E+03  7.21844E+02
  1.89860E+03  7.80240E+02 -9.94546E+02  1.51090E+03 -7.48167E+02  4.06579E+02 -7.86461E+02  8.26802E+02
  1.15753E+03  6.99242E+02  7.02146E+02 -3.61635E+02 -2.70198E+02  1.15625E+03  1.16925E+03  1.34932E+03
 -1.91073E+03  1.72212E+03 -2.35393E+03  1.17542E+03 -2.67567E+03 -1.61174E+03 -1.46870E+03 -1.95854E+03
  4.72420E+02 -1.87705E+03 -3.56964E+02 -5.68543E+02  2.39845E+03  7.36614E+02  1.79545E+03  2.41378E+03
 -3.20555E+02  2.08722E+03  4.12229E+02  5.74890E+02 -1.02648E+03  1.02870E+03 -5.74957E+02  3.79906E+02
  2.02744E+00 -2.29410E+02  3.91395E+02  1.40679E+03 -1.01872E+03  3.13162E+02 -1.19785E+03 -7.35110E+02
 -7.88268E+02 -1.40037E+03 -3.26386E+01 -2.98349E+03  2.56970E+02 -1.78158E+03  1.82500E+03 -7.68149E+02
  1.97817E+03  5.81944E+02  1.41673E+03  1.65694E+03  7.61227E+02  1.08653E+03 -1.45490E+03  2.06410E+03
