 $NMID ID='MM_0lb_SNR200_11hz_g40_3.RAW', FMTDAT='(8E13.5)'
 TRAMP=1., VOLUME=1. $END
  3.10295E+05 -6.17465E+02  3.36826E+05  2.51202E+05  8.50350E+04  3.37652E+05 -1.31129E+05  2.50843E+05
 -1.91632E+05  8.38069E+04 -1.11916E+05 -3.25759E+04  1.03747E+03 -5.12447E+04  5.37225E+04 -1.88224E+03
  3.67328E+04  5.32539E+04 -1.62605E+04  7.45940E+04 -6.12883E+04  6.38879E+04 -8.38489E+04  3.22907E+04
 -8.11538E+04 -1.29660E+04 -5.70915E+04 -5.12496E+04 -1.55653E+04 -6.91619E+04  2.66278E+04 -4.59383E+04
  4.02753E+04  3.57487E+03  1.64699E+04  4.88997E+04 -3.36385E+04  4.54206E+04 -6.68353E+04  3.16013E+02
 -5.40717E+04 -5.62370E+04 -8.01913E+03 -7.78566E+04  3.42520E+04 -5.55553E+04  4.78041E+04 -1.69205E+04
  4.54144E+04  1.12693E+04  3.25759E+04  2.49417E+04  1.62837E+04  3.06562E+04 -4.71797E+03  2.77709E+04
 -2.30432E+04  1.23506E+04 -1.91272E+04 -4.48230E+03  4.45294E+03 -7.01416E+03  2.21163E+04  1.18349E+04
  6.55614E+03  3.49185E+04 -3.22088E+04  3.57683E+04 -6.41153E+04  1.49349E+03 -5.75942E+04 -4.30827E+04
 -1.27426E+04 -6.38032E+04  4.08642E+04 -4.63435E+04  5.98237E+04 -2.47517E+03  3.39913E+04  3.30879E+04
 -6.07430E+03  3.75775E+04 -3.10653E+04  1.75422E+04 -3.10832E+04 -4.75075E+03 -1.72578E+04 -1.22117E+04
 -9.39086E+03 -1.30905E+04 -1.55673E+03 -1.89905E+04  6.97550E+03 -2.38437E+04  1.56697E+04 -1.26994E+04
  1.02908E+04  5.32394E+03 -8.21521E+03  1.44786E+04 -2.10209E+04 -4.66904E+03 -9.77560E+03 -3.49965E+04
  2.38733E+04 -4.41568E+04  4.94735E+04 -2.03403E+04  4.54466E+04  1.97007E+04  1.57295E+04  4.44073E+04
 -1.59380E+04  3.55019E+04 -2.74589E+04  1.77725E+03 -1.09141E+04 -2.97434E+04  2.14502E+04 -3.49693E+04
  4.23757E+04 -1.05452E+04  3.74801E+04  2.44059E+04  1.89473E+04  4.81023E+04 -8.92839E+03  5.26447E+04
 -3.42189E+04  3.63677E+04 -4.47685E+04  9.90760E+03 -4.35005E+04 -1.65071E+04 -2.49199E+04 -3.83251E+04
  7.45057E+03 -3.91835E+04  3.32504E+04 -1.56806E+04  3.03614E+04  1.11988E+04  4.84483E+03  2.10660E+04
 -1.34063E+04  9.01478E+03 -1.11285E+04 -6.84334E+03  6.40911E+03 -1.14695E+04  1.72999E+04  5.70346E+03
  1.41509E+04  2.31692E+04 -5.77033E+03  2.66140E+04 -2.18959E+04  1.27563E+04 -2.86823E+04 -3.88520E+03
 -2.17109E+04 -1.84815E+04 -9.28355E+03 -2.21771E+04  4.20624E+03 -2.14428E+04  1.79651E+04 -2.01548E+04
  2.87802E+04 -1.31101E+04  3.48515E+04  2.99385E+03  2.53765E+04  2.10921E+04  5.22143E+03  3.82971E+04
 -1.69497E+04  3.16906E+04 -3.00163E+04  1.12821E+04 -2.12713E+04 -1.05658E+04 -3.99641E+03 -1.26082E+04
  2.36453E+03 -2.33128E+03 -6.38781E+03  7.78999E+03 -1.74289E+04  4.63447E+03 -1.99882E+04 -6.67061E+03
 -1.02132E+04 -2.07964E+04  6.06865E+03 -2.50789E+04  1.64855E+04 -1.75293E+04  1.97369E+04 -2.17147E+03
  1.26138E+04  1.40448E+04 -5.35228E+02  2.08749E+04 -1.35392E+04  1.17589E+04 -2.08546E+04 -4.88880E+03
 -1.37443E+04 -1.87754E+04 -1.99963E+03 -2.57111E+04  1.05858E+04 -2.09031E+04  1.96234E+04 -1.09606E+04
  1.89288E+04  9.48476E+02  1.32269E+04  5.27304E+03  6.93023E+03  1.19236E+03  1.07404E+04 -1.31345E+03
  1.91157E+04  2.27305E+03  2.11361E+04  1.66879E+04  1.42776E+04  3.34231E+04 -2.83762E+03  3.81525E+04
 -2.23941E+04  3.06143E+04 -3.49519E+04  1.67040E+04 -3.68881E+04 -2.72295E+03 -3.10755E+04 -2.16543E+04
 -1.32925E+04 -3.12758E+04  1.02688E+04 -2.76572E+04  2.46329E+04 -1.31415E+04  2.17916E+04  7.11166E+03
  6.63194E+03  1.64905E+04 -1.01761E+04  1.29112E+04 -1.70128E+04  2.81737E+03 -1.35709E+04 -1.05104E+04
  1.42616E+02 -1.48752E+04  9.20404E+03 -1.14181E+04  1.18917E+04 -1.65060E+03  3.74903E+03  7.62818E+03
 -8.44475E+03  2.87099E+03 -6.93282E+03 -7.24309E+03 -9.06877E+02 -1.56503E+04  1.21333E+04 -1.59229E+04
  1.81967E+04 -9.74392E+03  2.00596E+04  3.87095E+03  1.82108E+04  1.49033E+04  9.20826E+03  2.44771E+04
 -4.16709E+03  2.66276E+04 -1.86945E+04  1.62879E+04 -1.95403E+04  3.61253E+03 -1.31942E+04 -4.13495E+03
 -6.41057E+03 -5.88086E+03 -1.16898E+03  2.75456E+02 -3.02521E+03  2.84302E+03 -5.53290E+03  5.03944E+03
 -1.20154E+04 -1.32199E+03 -1.23729E+04 -1.05450E+04 -5.26988E+03 -1.74188E+04  5.71810E+03 -1.26126E+04
  1.05268E+04 -5.87454E+03  7.80535E+03  3.97875E+03  1.48885E+03  5.93833E+03 -6.86663E+03  1.33958E+03
 -6.64939E+03 -8.19760E+03 -1.77789E+03 -1.23242E+04  6.76801E+03 -1.31205E+04  1.72335E+04 -7.96519E+03
  1.90953E+04  1.16183E+03  1.41612E+04  1.04903E+04  3.60643E+03  1.56278E+04 -8.64467E+03  1.01940E+04
 -1.19174E+04  3.49923E+03 -6.77792E+03 -1.30088E+03  3.12240E+03 -4.33150E+03  7.78009E+03 -1.04706E+03
  6.05754E+03  5.80190E+03  1.32357E+03  1.12878E+04 -8.09556E+03  1.07153E+04 -1.27419E+04  1.91331E+03
 -8.79794E+03 -6.18412E+03  1.82778E+02 -1.16259E+04  6.94151E+03 -6.93707E+03  7.85417E+03  3.67990E+03
  1.62180E+03  9.40399E+03 -5.94694E+03  9.08753E+03 -1.04532E+04  3.59937E+03 -1.19256E+04 -3.44088E+03
 -7.24526E+03 -1.10032E+04  5.35330E+03 -1.42139E+04  1.10712E+04 -8.21287E+03  1.27858E+04  2.94366E+03
  7.63038E+03  1.09224E+04 -1.38511E+03  1.21755E+04 -8.80452E+03  7.43193E+03 -1.06899E+04 -1.56974E+03
 -7.93745E+03 -8.98669E+03 -1.14003E+03 -9.65476E+03  5.22985E+03 -9.26862E+03  6.64465E+03 -3.00447E+03
  3.88853E+03  2.48233E+03 -1.32718E+03  1.33114E+03 -7.57966E+02 -3.47546E+03  1.74627E+03 -6.06504E+03
  6.70994E+03 -1.95851E+03  1.13705E+04  2.36822E+03  1.30087E+04  7.42226E+03  8.73776E+03  1.60556E+04
 -3.77028E+03  1.85232E+04 -1.52919E+04  1.31607E+04 -2.00833E+04  1.77670E+03 -1.65213E+04 -7.24831E+03
 -7.42082E+03 -1.32515E+04 -1.53557E+03 -1.10698E+04  3.04103E+03 -7.08703E+03  3.43024E+03 -4.24617E+03
  3.09700E+03 -1.85401E+03  4.71695E+03 -3.66361E+03  4.21750E+03 -3.26318E+03  6.27616E+03 -2.07715E+03
  7.67799E+03  1.44534E+03  4.02850E+03  7.20170E+03 -1.31573E+03  8.49481E+03 -6.91574E+03  5.07726E+03
 -1.05484E+04 -6.03674E+02 -5.67228E+03 -7.37670E+03  8.27876E+02 -1.24130E+04  7.50039E+03 -1.07937E+04
  1.29761E+04 -7.65557E+03  1.48281E+04  2.01836E+03  1.04926E+04  9.75426E+03  1.65115E+03  1.37079E+04
 -4.67442E+03  1.08139E+04 -7.48311E+03  1.80426E+03 -5.08233E+03 -7.23877E+02 -2.90444E+03 -1.86279E+03
 -2.79713E+03  3.75250E+02 -1.87635E+03  2.08451E+03 -5.43217E+03  1.46445E+03 -7.71094E+03 -1.31250E+03
 -4.91144E+03 -7.09088E+03  4.03158E+02 -1.11103E+04  8.28163E+03 -9.45979E+03  1.00633E+04 -3.31332E+03
  1.00860E+04  4.22539E+03  5.01125E+03  8.69667E+03 -2.77042E+03  1.10509E+04 -7.56405E+03  6.82972E+03
 -9.05880E+03  1.10051E+03 -9.40393E+03 -6.97955E+03 -5.67842E+02 -9.34863E+03  5.22228E+03 -6.95557E+03
  7.55344E+03 -1.42977E+03  5.69413E+03  1.67160E+03  1.09363E+03  4.28830E+03  1.21582E+03  6.65165E+02
  2.18928E+03 -3.98612E+02  3.09357E+03  1.64265E+03  2.88745E+03  4.29852E+03  3.87870E+03  6.33461E+03
 -3.36855E+03  9.43061E+03 -7.86813E+03  8.22725E+03 -9.07020E+03  2.35842E+03 -1.21205E+04 -4.01625E+03
 -5.51973E+03 -9.05901E+03  1.13199E+03 -1.14514E+04  6.91134E+03 -7.70881E+03  9.15584E+03 -2.28861E+03
  6.38836E+03  4.95748E+03  2.67366E+03  7.43265E+03 -2.20425E+03  3.68978E+03 -3.49681E+03 -1.10447E+02
 -1.39669E+03 -5.29009E+03  2.39619E+03 -5.28876E+03  5.82379E+03 -1.85571E+03  5.76800E+03  7.08350E+02
  2.56648E+03  3.18984E+03  2.12829E+03  8.14628E+02 -2.65192E+02  2.02703E+03  2.07293E+03  5.23868E+02
  1.60713E+03 -1.61689E+03  4.78573E+03  1.28830E+03  2.32718E+03  7.08995E+03  4.51891E+02  8.42631E+03
 -3.90407E+03  6.70966E+03 -7.98598E+03  1.97594E+03 -4.39846E+03 -2.46072E+03 -2.66874E+03 -3.23544E+03
  1.51231E+03 -4.06600E+03  1.66625E+03 -3.52297E+03  2.63007E+03  3.21890E+03 -1.26918E+03  3.09900E+03
 -3.91544E+03  1.38296E+03 -5.35975E+03 -2.38828E+03 -2.14350E+03 -4.83004E+03  7.69418E+02 -5.52041E+03
  4.31037E+03 -2.91206E+03  3.85177E+03 -4.78124E+02  3.86071E+03  8.19361E+02  1.75760E+03  2.52109E+03
 -1.53026E+03  2.11687E+03 -2.93510E+03 -1.41208E+03  1.21765E+03 -3.55628E+03  5.95175E+03 -3.45533E+03
  6.42945E+03  2.29411E+02  6.52658E+03  4.04961E+03  2.33303E+03  7.31314E+03 -4.46859E+03  6.87678E+03
 -5.31447E+03  3.07555E+03 -6.34319E+03 -8.53911E+02 -2.81183E+03 -3.11828E+03  1.13873E+03 -3.73863E+03
  3.69430E+03 -2.03628E+03  3.45456E+03  2.52363E+03  1.01168E+03  3.97743E+03  3.55882E+02  1.59987E+03
 -1.08211E+03  1.02114E+03 -1.50418E+03  1.17997E+03  3.76394E+02  1.08033E+03 -1.99897E+03  1.10750E+02
 -1.64901E+03  4.30919E+03 -5.48119E+03  6.85057E+02 -6.86174E+03 -5.44534E+01 -7.17366E+03 -3.65645E+03
 -4.06481E+03 -1.04724E+04  1.78580E+03 -9.27988E+03  6.62730E+03 -8.69870E+03  9.39350E+03 -3.85758E+03
  8.27622E+03  1.68540E+03  6.71727E+03  7.16493E+03  7.35010E+02  6.78176E+03 -3.87531E+03  4.24210E+03
 -4.61894E+03  1.03019E+03 -2.16234E+03 -1.43313E+02  2.50627E+02 -1.51518E+03  2.28773E+01  1.84729E+01
 -2.50802E+03 -9.49285E+02 -2.24374E+03 -1.25146E+03 -1.77577E+03 -2.25366E+03  1.99379E+02 -3.16801E+03
  4.30754E+03 -1.33267E+03  4.79794E+03  1.27451E+01  3.91650E+03  3.89594E+03  1.45951E+03  6.75791E+03
 -3.41547E+03  7.33052E+03 -7.52624E+03  3.49211E+03 -9.04313E+03 -5.97276E+02 -5.63353E+03 -4.98565E+03
 -3.88225E+03 -6.49227E+03  1.56645E+03 -7.78186E+03  3.03378E+03 -4.06633E+03  4.76829E+03  1.41339E+03
  2.86274E+03  1.37358E+03 -8.55138E+02  2.63243E+03 -1.56323E+03 -9.74228E+01 -9.04028E+02 -1.08973E+03
  2.34236E+03  5.70300E+02  2.46375E+03  6.21491E+02  9.45835E+02  2.60275E+03 -9.67026E+02  3.10093E+03
 -2.14591E+03  3.45575E+03 -4.07578E+03  1.59143E+02 -5.57640E+03 -2.68173E+03  7.61239E+01 -6.17457E+03
  3.71212E+03 -4.81689E+03  4.98408E+03 -7.26629E+02  5.78827E+03  8.33935E+02  4.07138E+03  3.52357E+03
  8.40440E+01  4.76933E+03 -1.83850E+03  4.46589E+03 -2.17111E+03  2.80561E+03 -2.20261E+03  9.36553E+01
 -1.26195E+03  8.74471E+02  6.70622E+02 -1.79617E+01 -1.95294E+03  6.60318E+02 -3.30197E+03 -8.31460E+02
 -4.16713E+03 -1.62780E+03 -2.78480E+03 -3.95748E+03  2.71897E+03 -4.36011E+03  4.06064E+03 -1.19684E+03
  3.40893E+03  3.97590E+02  2.92427E+03  3.38899E+03 -5.44313E+02  4.94293E+03 -4.37070E+03  3.02293E+03
