 $NMID ID='MM_0lb_SNR200_12hz_g45_38.RAW', FMTDAT='(8E13.5)'
 TRAMP=1., VOLUME=1. $END
  3.09593E+05  1.20524E+02  3.37285E+05  2.49381E+05  8.42991E+04  3.37539E+05 -1.32229E+05  2.50737E+05
 -1.89336E+05  8.46231E+04 -1.11462E+05 -3.27243E+04 -1.24671E+02 -5.04641E+04  5.25811E+04 -2.08758E+02
  3.61820E+04  5.20522E+04 -1.52045E+04  7.63927E+04 -6.08780E+04  6.36495E+04 -8.35386E+04  3.19162E+04
 -8.19313E+04 -1.01842E+04 -5.73388E+04 -5.20885E+04 -1.52667E+04 -6.88667E+04  2.67472E+04 -4.67740E+04
  4.12556E+04  3.83928E+03  1.58998E+04  4.83970E+04 -3.44083E+04  4.80876E+04 -6.68628E+04 -9.80732E+02
 -5.42251E+04 -5.56765E+04 -6.01949E+03 -7.79247E+04  3.41359E+04 -5.51503E+04  4.90432E+04 -1.77713E+04
  4.38610E+04  1.22225E+04  3.27680E+04  2.50610E+04  1.69620E+04  2.96402E+04 -6.36594E+03  2.81172E+04
 -2.09792E+04  1.15797E+04 -1.85112E+04 -4.27216E+03  6.25841E+03 -7.23937E+03  2.18099E+04  1.18749E+04
  5.88773E+03  3.62374E+04 -3.36326E+04  3.55243E+04 -6.49001E+04  2.43781E+03 -5.79806E+04 -4.31946E+04
 -1.17707E+04 -6.38464E+04  4.08242E+04 -4.69048E+04  5.74307E+04 -3.15040E+03  3.43836E+04  3.37978E+04
 -4.84641E+03  3.78003E+04 -2.95118E+04  1.61533E+04 -3.01925E+04 -3.76562E+03 -1.83714E+04 -1.06907E+04
 -8.20584E+03 -1.34395E+04 -3.00587E+02 -1.81217E+04  8.03805E+03 -2.22363E+04  1.43429E+04 -1.25008E+04
  1.00483E+04  5.49223E+03 -8.22231E+03  1.35249E+04 -2.14340E+04 -6.06804E+03 -6.60776E+03 -3.45219E+04
  2.39680E+04 -4.51826E+04  4.87429E+04 -1.97146E+04  4.69218E+04  2.10856E+04  1.65038E+04  4.50543E+04
 -1.44363E+04  3.31240E+04 -2.48265E+04  1.73091E+03 -1.10986E+04 -2.91274E+04  2.00402E+04 -3.57792E+04
  4.13066E+04 -9.41405E+03  3.69807E+04  2.52636E+04  1.88056E+04  4.77644E+04 -7.36400E+03  5.21696E+04
 -3.30736E+04  3.47560E+04 -4.41201E+04  1.07503E+04 -4.37557E+04 -1.66385E+04 -2.43224E+04 -4.03338E+04
  8.59499E+03 -3.79685E+04  3.32048E+04 -1.43293E+04  2.97148E+04  1.05526E+04  4.37722E+03  2.10825E+04
 -1.32422E+04  8.75546E+03 -9.93728E+03 -8.15796E+03  6.07488E+03 -1.17495E+04  1.77255E+04  5.87692E+03
  1.43713E+04  2.12622E+04 -4.98962E+03  2.61996E+04 -2.18969E+04  1.25582E+04 -3.01749E+04 -5.07486E+03
 -2.16923E+04 -1.75780E+04 -9.96752E+03 -2.19314E+04  2.89386E+03 -2.11429E+04  1.92908E+04 -1.92781E+04
  2.84479E+04 -1.23565E+04  3.38280E+04  4.26806E+03  2.45994E+04  2.04978E+04  3.95312E+03  3.69496E+04
 -1.83881E+04  3.10701E+04 -2.91804E+04  1.01433E+04 -2.14243E+04 -9.36508E+03 -3.92736E+03 -1.25975E+04
  7.90298E+02 -2.32617E+03 -4.71943E+03  7.27176E+03 -1.82934E+04  6.37783E+03 -1.79861E+04 -7.88094E+03
 -1.09644E+04 -2.21231E+04  4.70814E+03 -2.39165E+04  1.77853E+04 -1.78617E+04  2.00955E+04 -1.46955E+03
  1.20479E+04  1.38014E+04 -1.03904E+03  2.07764E+04 -1.40063E+04  1.18615E+04 -2.11088E+04 -5.13291E+03
 -1.50525E+04 -1.78418E+04 -1.55215E+03 -2.44945E+04  1.27274E+04 -2.03917E+04  1.92594E+04 -9.79458E+03
  1.90365E+04 -9.12173E+02  1.27798E+04  4.57496E+03  7.62172E+03  2.06235E+03  1.13759E+04 -2.20638E+03
  1.93037E+04  3.36591E+03  2.16046E+04  1.57950E+04  1.40989E+04  3.24365E+04 -3.91344E+03  3.81870E+04
 -2.17334E+04  3.09950E+04 -3.39399E+04  1.55762E+04 -3.69648E+04 -2.62487E+03 -2.98546E+04 -2.21837E+04
 -1.25539E+04 -3.17003E+04  9.50994E+03 -2.69775E+04  2.41780E+04 -1.37810E+04  2.04583E+04  5.09806E+03
  7.14253E+03  1.54737E+04 -9.84378E+03  1.35281E+04 -1.87753E+04  1.49090E+03 -1.29841E+04 -1.00420E+04
 -1.26908E+03 -1.57998E+04  9.18340E+03 -1.28644E+04  1.26690E+04 -4.46969E+01  1.99411E+03  7.80405E+03
 -6.97902E+03  3.46125E+03 -7.52949E+03 -5.13507E+03 -7.65606E+02 -1.45049E+04  1.00917E+04 -1.53219E+04
  1.93065E+04 -9.00835E+03  2.02517E+04  3.20091E+03  1.65255E+04  1.41169E+04  8.73089E+03  2.22263E+04
 -4.75589E+03  2.57113E+04 -1.63534E+04  1.44662E+04 -1.81613E+04  3.47832E+03 -1.05242E+04 -5.30441E+03
 -5.62674E+03 -5.29834E+03 -8.07457E+02  1.78248E+02 -2.70805E+03  2.84465E+03 -5.87736E+03  3.57615E+03
 -1.11335E+04 -8.70240E+02 -1.23081E+04 -9.16251E+03 -4.61853E+03 -1.68747E+04  6.51549E+03 -1.17188E+04
  1.05487E+04 -5.01977E+03  7.14891E+03  4.39679E+03  2.03546E+02  5.38463E+03 -7.29845E+03 -4.67209E+02
 -5.02157E+03 -8.39651E+03  2.61781E+02 -1.25073E+04  7.68588E+03 -1.26681E+04  1.67256E+04 -6.81993E+03
  2.00197E+04  1.84320E+03  1.46905E+04  1.04163E+04  3.16335E+03  1.47713E+04 -6.62057E+03  1.22864E+04
 -1.08322E+04  3.31433E+03 -5.32886E+03 -3.33920E+03  1.94217E+03 -3.52461E+03  8.06761E+03 -1.35967E+03
  5.75472E+03  6.50301E+03  1.86557E+03  9.40393E+03 -7.80161E+03  9.48609E+03 -1.28012E+04  2.81592E+03
 -9.00461E+03 -6.85400E+03  1.28816E+03 -1.06860E+04  4.86962E+03 -4.78517E+03  7.73757E+03  3.06397E+03
  1.30636E+03  5.92113E+03 -6.20861E+03  7.82119E+03 -9.57979E+03  3.53712E+03 -9.86583E+03 -3.59130E+03
 -5.97519E+03 -1.26128E+04  2.92673E+03 -1.40589E+04  1.11880E+04 -8.65892E+03  1.10611E+04  2.72810E+03
  7.87572E+03  1.07439E+04  1.10275E+02  1.21107E+04 -9.54254E+03  8.09857E+03 -9.51076E+03 -5.22528E+02
 -8.25836E+03 -6.82207E+03 -1.56604E+03 -8.81776E+03  4.39861E+03 -6.88018E+03  4.83044E+03 -3.64991E+03
  4.76859E+03  7.29726E+02 -1.40103E+03  1.88791E+03 -6.28507E+02 -2.02306E+03  1.12682E+03 -4.53310E+03
  9.90128E+03 -3.28455E+03  1.17083E+04  1.70379E+03  1.23871E+04  8.14443E+03  7.15225E+03  1.56229E+04
 -2.18807E+03  1.83234E+04 -1.39345E+04  1.28003E+04 -1.95567E+04  1.95643E+03 -1.58631E+04 -5.20986E+03
 -8.72403E+03 -1.23479E+04  3.79471E+02 -9.29642E+03  3.96368E+03 -6.19150E+03  2.45537E+03 -3.85966E+03
  2.72616E+03 -2.67548E+03  3.74380E+03 -1.85871E+03  3.95409E+03 -2.02038E+03  5.56877E+03 -1.27360E+03
  8.99996E+03  1.70224E+03  3.78558E+03  7.42126E+03 -2.75275E+03  7.49509E+03 -8.98742E+03  6.03137E+03
 -9.70118E+03 -1.08911E+03 -5.89413E+03 -6.35553E+03 -1.21497E+02 -1.08727E+04  6.41383E+03 -1.08351E+04
  1.15763E+04 -6.08698E+03  1.44217E+04  1.19292E+03  1.00781E+04  8.16628E+03  2.81649E+03  1.28573E+04
 -3.98224E+03  1.00098E+04 -5.51249E+03  3.88514E+03 -5.66115E+03 -1.18949E+03 -1.46044E+03 -9.67111E+02
 -1.20382E+03  1.65038E+03 -1.76937E+03  3.92451E+03 -3.31714E+03  2.77959E+03 -7.58144E+03 -1.58987E+03
 -5.14248E+03 -8.62230E+03  5.01680E+02 -1.04849E+04  5.64968E+03 -9.60278E+03  9.06794E+03 -3.14062E+03
  8.93818E+03  3.97440E+03  5.37864E+03  1.05198E+04 -1.41920E+03  9.83549E+03 -7.51549E+03  7.36178E+03
 -1.00511E+04  1.94617E+01 -7.02570E+03 -5.40841E+03 -1.08758E+03 -7.54190E+03  3.72464E+03 -6.37629E+03
  5.05365E+03 -1.75981E+03  5.24879E+03  7.84053E+02  1.36291E+03  2.60729E+03  1.01681E+03  1.11228E+03
  1.72612E+03  2.21123E+03  2.00021E+03  2.02446E+03  2.74550E+03  4.00270E+03  3.02173E+03  5.33283E+03
 -8.87632E+02  6.95404E+03 -5.81186E+03  8.76275E+03 -1.10654E+04  3.27688E+03 -1.01424E+04 -3.32807E+03
 -4.51630E+03 -9.18157E+03  1.30310E+03 -1.22481E+04  5.02422E+03 -7.28500E+03  8.26813E+03 -2.69819E+03
  7.95611E+03  3.88165E+03  1.10550E+03  4.28010E+03 -1.83788E+03  3.47659E+03 -3.14637E+03 -1.46589E+03
 -2.17035E+03 -3.30991E+03  2.36458E+03 -4.36252E+03  3.00320E+03 -2.89478E+03  2.94138E+03  1.84077E+03
  1.34840E+03  1.28540E+03  8.46804E+02  7.12881E+02 -1.66194E+03  2.20090E+03  2.24366E+03  1.40825E+03
  1.33490E+03 -2.08740E+03  6.05559E+03  1.80456E+03  1.59410E+03  5.24831E+03 -2.30787E+02  7.42182E+03
 -5.08971E+03  3.97630E+03 -5.13699E+03  1.55257E+03 -4.46198E+03 -2.98384E+03 -7.38356E+02 -4.04889E+03
  3.00652E+02 -3.88208E+03  1.66941E+03 -1.30421E+03  1.79915E+03  3.57938E+03 -9.25618E+02  2.46429E+03
 -3.21212E+03  1.52231E+03 -5.09797E+03 -2.94652E+03 -1.90555E+03 -6.12192E+03  7.76469E+02 -5.56734E+03
  2.75332E+03 -3.85346E+03  3.64269E+03  3.27168E+02  2.48665E+03  6.91751E+01  1.09408E+02  3.14729E+03
 -1.12448E+02 -8.99479E+02 -2.14485E+03 -2.69856E+03  1.15826E+03 -3.70568E+03  3.50632E+03 -2.84801E+03
  5.96250E+03  4.30103E+02  5.85756E+03  5.57887E+03  2.23842E+03  5.52059E+03 -2.73063E+03  5.42670E+03
 -5.66869E+03  1.75502E+03 -4.18636E+03 -1.40163E+03 -4.28514E+03 -3.66066E+03  9.00261E+01 -3.91283E+03
  4.24064E+03 -3.83919E+03  2.48536E+03  1.54548E+03  4.14398E+02  4.23534E+03 -5.33667E+02  4.10867E+03
 -1.45270E+03  1.99286E+03 -2.22184E+03  4.27540E+02  4.82281E+01  9.34334E+02 -1.10795E+03  8.13549E+02
 -1.41829E+03  1.38092E+03 -4.27800E+03  2.14226E+03 -4.24555E+03 -1.56138E+02 -7.42131E+03 -3.18995E+03
 -3.63486E+03 -6.62456E+03  1.24426E+03 -9.21486E+03  4.57559E+03 -6.49265E+03  8.48974E+03 -3.38459E+03
  8.05333E+03  6.80303E+02  5.09536E+03  6.50084E+03  8.04743E+02  5.61519E+03 -2.76335E+03  5.42746E+03
 -3.62350E+03  1.32577E+03 -2.41652E+03 -1.92713E+03 -4.08649E+02 -1.12691E+03 -8.24572E+02 -1.38695E+02
 -8.21121E+02  4.09783E+02 -1.18946E+03 -2.41096E+03  4.65692E+02 -7.61670E+02  1.91347E+03 -1.93544E+03
  2.66234E+03 -2.64952E+03  3.17517E+03  1.65479E+02  3.85720E+03  2.68711E+03  1.70069E+03  5.26002E+03
 -3.41673E+03  8.24206E+03 -7.24458E+03  4.59404E+03 -6.32352E+03 -1.22695E+03 -4.85155E+03 -3.82986E+03
 -2.20047E+03 -5.56329E+03  1.20821E+03 -5.62887E+03  3.47154E+03 -3.32444E+03  2.18643E+03  9.66412E+01
  2.20637E+03  3.16373E+03 -7.37439E+02  1.94411E+03 -2.11043E+03  1.91853E+03 -4.02855E+02 -1.46937E+02
  1.75153E+03 -4.18874E+02  2.30752E+03  1.48513E+03  5.28530E+02  1.33479E+03  1.88480E+03  2.56009E+03
 -3.19305E+03  2.01938E+03 -4.31371E+03  3.33067E+02 -3.55764E+03 -4.44186E+02 -4.09528E+02 -4.04745E+03
  2.14391E+03 -4.49448E+03  3.39177E+03  1.64442E+02  4.11574E+03  4.55276E+01  3.19165E+03  2.10632E+03
 -2.11123E+02  3.06515E+03 -5.53570E+02  3.00823E+03 -3.27774E+03  1.40626E+03 -2.61381E+03 -7.75185E+02
 -2.64011E+03 -1.51750E+03 -2.13942E+03  8.38090E+02 -1.66219E+03  4.78869E+02 -2.06070E+03 -1.48341E+03
 -2.14643E+03 -1.60467E+03 -1.37341E+03 -2.70797E+03  3.16804E+03 -6.47463E+03  3.99727E+03 -2.07101E+03
  3.34166E+03  1.03226E+03  5.94078E+02  3.24618E+03 -1.47305E+03  5.87972E+03 -2.24899E+03  2.12069E+03
