 $NMID ID='MM_0lb_SNR200_10hz_g60_54.RAW', FMTDAT='(8E13.5)'
 TRAMP=1., VOLUME=1. $END
  3.09546E+05 -1.45341E+01  3.38683E+05  2.50449E+05  8.54623E+04  3.39648E+05 -1.33741E+05  2.52881E+05
 -1.90739E+05  8.36593E+04 -1.14654E+05 -3.10227E+04  9.04420E+02 -5.13181E+04  5.24832E+04 -1.12149E+03
  3.62521E+04  5.37090E+04 -1.70693E+04  7.68914E+04 -6.20338E+04  6.51248E+04 -8.52229E+04  3.25746E+04
 -8.46531E+04 -1.25693E+04 -5.72196E+04 -5.26533E+04 -1.53605E+04 -7.11575E+04  2.97333E+04 -4.50517E+04
  4.08802E+04  3.47661E+03  1.57598E+04  5.02561E+04 -3.43062E+04  4.73024E+04 -6.89345E+04  9.17160E+02
 -5.45132E+04 -5.58489E+04 -6.62575E+03 -7.92260E+04  3.64035E+04 -5.67831E+04  4.92612E+04 -1.80604E+04
  4.70725E+04  1.12155E+04  3.30839E+04  2.61287E+04  1.51225E+04  3.00124E+04 -4.28474E+03  2.70548E+04
 -2.26487E+04  1.36747E+04 -1.69615E+04 -6.00386E+03  7.50965E+03 -8.26221E+03  2.39036E+04  1.42328E+04
  7.48322E+03  3.57451E+04 -3.26434E+04  3.61389E+04 -6.64149E+04  2.46625E+03 -5.87692E+04 -4.39692E+04
 -1.41138E+04 -6.63144E+04  4.19172E+04 -4.80548E+04  6.13864E+04 -3.12608E+03  3.62695E+04  3.37554E+04
 -5.10848E+03  4.04736E+04 -3.22882E+04  1.95109E+04 -3.37329E+04 -3.68595E+03 -1.85609E+04 -1.12153E+04
 -8.69089E+03 -1.61706E+04 -9.77051E+02 -2.03301E+04  8.17458E+03 -2.31262E+04  1.56696E+04 -1.32243E+04
  1.07719E+04  6.47161E+03 -1.06100E+04  1.29915E+04 -2.35775E+04 -6.70340E+03 -9.32791E+03 -3.66774E+04
  2.59068E+04 -4.62915E+04  5.14517E+04 -2.03249E+04  4.94009E+04  1.93516E+04  1.75291E+04  4.70443E+04
 -1.53859E+04  3.58956E+04 -2.88826E+04  1.92487E+03 -1.12548E+04 -3.01582E+04  2.03182E+04 -3.66001E+04
  4.47233E+04 -1.17605E+04  4.09700E+04  2.51723E+04  2.24093E+04  5.09535E+04 -9.62178E+03  5.64627E+04
 -3.49829E+04  3.67109E+04 -4.85165E+04  1.01369E+04 -4.80903E+04 -1.81940E+04 -2.65547E+04 -4.16894E+04
  8.61976E+03 -4.43669E+04  3.56035E+04 -1.85036E+04  3.24373E+04  1.06602E+04  5.94230E+03  2.13278E+04
 -1.48700E+04  8.58596E+03 -1.17731E+04 -8.59387E+03  6.37837E+03 -1.20711E+04  1.94343E+04  6.10552E+03
  1.52707E+04  2.31366E+04 -4.46255E+03  2.58694E+04 -2.47464E+04  1.42006E+04 -3.03365E+04 -4.05959E+03
 -2.50623E+04 -1.82558E+04 -1.23285E+04 -2.62626E+04  5.60385E+03 -2.61361E+04  1.82593E+04 -2.42464E+04
  3.10951E+04 -1.53515E+04  3.82006E+04  2.51225E+03  2.69400E+04  2.50968E+04  4.42472E+03  4.16232E+04
 -2.06583E+04  3.44454E+04 -2.94835E+04  1.12895E+04 -2.20247E+04 -1.05774E+04 -4.75678E+03 -1.34977E+04
  2.07054E+03 -3.20956E+01 -9.80710E+03  8.88984E+03 -2.19246E+04  4.20855E+03 -1.91926E+04 -9.59317E+03
 -1.16373E+04 -2.37891E+04  7.03296E+03 -2.79917E+04  1.95616E+04 -1.93739E+04  2.32509E+04 -1.33264E+03
  1.52487E+04  1.65900E+04 -2.92877E+02  2.14213E+04 -1.59712E+04  1.40887E+04 -2.45844E+04 -6.20181E+03
 -1.95408E+04 -2.17931E+04 -1.27874E+03 -2.79359E+04  1.53395E+04 -2.47984E+04  2.26713E+04 -1.22605E+04
  2.20701E+04 -5.11902E+02  1.63546E+04  5.94571E+03  5.79227E+03  2.45006E+03  1.16630E+04 -9.88247E+02
  2.32894E+04  2.85834E+03  2.73347E+04  1.82346E+04  1.73416E+04  3.83490E+04 -4.41150E+03  4.50504E+04
 -2.50392E+04  3.67488E+04 -4.27305E+04  1.94977E+04 -4.52996E+04 -3.84620E+03 -3.71334E+04 -2.67268E+04
 -1.70964E+04 -3.67338E+04  1.23131E+04 -3.08772E+04  2.77371E+04 -1.49693E+04  2.55128E+04  7.98507E+03
  8.11898E+03  1.89241E+04 -1.25221E+04  1.74222E+04 -1.85246E+04  3.33088E+03 -1.46607E+04 -1.26881E+04
 -2.02318E+01 -2.03258E+04  1.11240E+04 -1.42215E+04  1.36542E+04 -2.07936E+03  4.00596E+03  8.52568E+03
 -9.13626E+03  4.95522E+03 -9.81154E+03 -8.20715E+03 -2.46492E+03 -1.88953E+04  1.20648E+04 -1.95084E+04
  2.28579E+04 -1.03798E+04  2.67484E+04  4.22628E+03  2.44248E+04  1.77882E+04  1.17007E+04  2.98636E+04
 -4.77089E+03  3.04645E+04 -2.01546E+04  1.97676E+04 -2.32228E+04  3.43889E+03 -1.57967E+04 -8.14607E+03
 -7.28461E+03 -6.74097E+03 -1.76211E+03  1.88212E+02 -1.73914E+03  3.34950E+03 -6.09187E+03  5.70491E+03
 -1.42885E+04 -1.27200E+03 -1.40665E+04 -1.24483E+04 -6.82534E+03 -1.96114E+04  5.36855E+03 -1.53221E+04
  1.34503E+04 -5.94149E+03  8.69698E+03  4.33950E+03 -1.45594E+02  3.59959E+03 -8.65308E+03 -2.50033E+02
 -6.05697E+03 -1.10161E+04 -6.75557E+02 -1.56381E+04  9.39875E+03 -1.85357E+04  1.93635E+04 -9.21426E+03
  2.28406E+04  3.22733E+03  1.80341E+04  1.46833E+04  4.01067E+03  1.79028E+04 -8.36281E+03  1.53696E+04
 -1.23244E+04  3.79210E+03 -6.58813E+03 -1.59379E+03  1.70131E+03 -4.77222E+03  7.73637E+03 -2.98559E+02
  6.41624E+03  6.19521E+03 -4.79457E+01  1.17117E+04 -9.82957E+03  1.10386E+04 -1.56765E+04  3.27919E+03
 -1.11424E+04 -6.24148E+03  8.06691E+02 -1.26575E+04  8.96455E+03 -6.48162E+03  9.26815E+03  2.25116E+03
  2.10214E+03  7.68522E+03 -8.95338E+03  9.98247E+03 -1.20631E+04  3.37649E+03 -1.29228E+04 -4.58822E+03
 -9.41452E+03 -1.43890E+04  3.63970E+03 -1.70349E+04  1.65856E+04 -9.39690E+03  1.63119E+04  2.60975E+03
  1.17856E+04  1.28788E+04 -1.66016E+03  1.59171E+04 -1.12807E+04  9.15417E+03 -1.15642E+04 -1.79151E+03
 -1.14943E+04 -1.16271E+04 -2.36087E+03 -1.30672E+04  6.29523E+03 -9.15188E+03  6.25184E+03 -2.80672E+03
  3.79942E+03  1.19439E+03 -1.62944E+03  1.65313E+03 -1.53960E+03 -3.58672E+03  3.79130E+03 -7.73168E+03
  1.16054E+04 -4.63505E+03  1.72172E+04  3.02048E+03  1.39350E+04  9.42560E+03  1.09044E+04  2.10550E+04
 -5.44932E+03  2.44404E+04 -1.91533E+04  1.72024E+04 -2.52766E+04  3.13221E+03 -2.09947E+04 -9.24441E+03
 -9.80417E+03 -1.62943E+04  2.02761E+02 -1.38988E+04  4.34105E+03 -8.93430E+03  4.99145E+03 -6.15586E+03
  4.59082E+03 -3.97417E+03  3.22305E+03 -4.45723E+03  5.93875E+03 -2.82106E+03  7.12903E+03 -8.04126E+02
  1.24235E+04  1.79651E+03  5.22330E+03  8.19630E+03 -1.99094E+03  1.10994E+04 -1.13398E+04  9.30665E+03
 -1.39276E+04 -2.24706E+02 -8.21479E+03 -1.19042E+04 -6.05982E+02 -1.54419E+04  7.84109E+03 -1.48380E+04
  1.51813E+04 -8.50555E+03  2.01668E+04  2.15787E+03  1.25355E+04  1.42116E+04  1.98365E+03  1.78327E+04
 -6.28983E+03  1.33558E+04 -1.08125E+04  4.78825E+03 -7.83735E+03 -2.58444E+03 -3.12051E+03 -2.12031E+03
 -1.46433E+03  2.08079E+02 -1.55020E+03  2.36467E+03 -6.74272E+03  3.61645E+03 -9.32154E+03 -1.02632E+01
 -6.81781E+03 -1.06552E+04  5.07055E+02 -1.45721E+04  8.24539E+03 -1.19865E+04  1.45723E+04 -5.12389E+03
  1.48044E+04  6.42892E+03  6.91758E+03  1.35579E+04 -2.79914E+03  1.41554E+04 -1.12625E+04  9.12775E+03
 -1.28464E+04 -4.24886E+02 -9.82817E+03 -8.65162E+03 -8.37987E+02 -1.24626E+04  7.06786E+03 -9.36817E+03
  8.12593E+03 -3.05064E+03  6.49302E+03  3.01771E+03  2.82598E+03  4.75813E+03  9.07786E+02  1.19055E+03
  1.97498E+03  1.55835E+03  1.11528E+03  2.36328E+03  4.85323E+03  4.83883E+03  4.71240E+03  6.74241E+03
 -2.59515E+03  1.08432E+04 -1.00141E+04  1.10719E+04 -1.60325E+04  3.74198E+03 -1.50538E+04 -5.71637E+03
 -7.86688E+03 -1.68086E+04  2.23347E+03 -1.55890E+04  9.27915E+03 -1.02413E+04  1.16656E+04 -2.66015E+03
  8.21769E+03  6.48659E+03  7.81901E+02  7.91938E+03 -4.03484E+03  3.72441E+03 -5.61970E+03 -5.18049E+02
 -1.44577E+03 -7.54894E+03  2.63178E+03 -5.25378E+03  6.67993E+03 -3.15968E+03  5.95523E+03  1.05465E+03
  3.26902E+03  1.92529E+03  6.36365E+02  2.69683E+03 -1.97212E+03  1.40125E+03  1.39507E+03 -1.71901E+03
  9.22259E+02 -2.66801E+03  4.70954E+03  1.67381E+03  2.59474E+03  8.02514E+03 -1.27045E+02  1.08187E+04
 -7.62856E+03  5.94610E+03 -9.11213E+03  1.28426E+03 -8.03672E+03 -2.44577E+03 -2.75805E+03 -6.12876E+03
  7.02988E+01 -5.47799E+03  3.31585E+03 -1.08994E+03  2.72754E+03  1.43155E+03 -2.68933E+01  5.23964E+03
 -6.92880E+03  3.00488E+03 -6.04054E+03 -3.32776E+03 -4.84972E+03 -7.18240E+03  1.44032E+03 -7.01522E+03
  5.55599E+03 -6.02660E+03  6.03941E+03  1.08948E+03  4.92801E+03  1.85817E+03 -9.07222E+02  4.85776E+03
 -2.65076E+03  4.65774E+02 -4.36471E+03 -3.83523E+03  2.33000E+03 -5.60566E+03  6.89741E+03 -4.82158E+03
  8.26779E+03  9.36223E+02  9.71334E+03  6.19090E+03  2.90584E+03  1.07995E+04 -2.57901E+03  8.69637E+03
 -6.87248E+03  3.12871E+03 -7.63831E+03 -1.66576E+03 -4.72979E+03 -5.55395E+03 -9.23332E+01 -5.70725E+03
  5.01736E+03 -4.06988E+03  4.17620E+03  4.24106E+03  1.83333E+03  6.86968E+03 -1.10777E+03  2.44040E+03
 -1.70738E+03  3.17065E+03 -2.67293E+03  8.61059E+02  4.48585E+02 -1.14517E+02 -1.53679E+03  3.40880E+03
 -1.86454E+03  4.17383E+03 -4.89346E+03  3.57686E+03 -9.71220E+03  1.13009E+02 -1.02884E+04 -6.09715E+03
 -6.59739E+03 -1.47886E+04  1.64498E+03 -1.37501E+04  9.34428E+03 -9.94755E+03  1.42230E+04 -4.46211E+03
  1.23296E+04  3.54832E+03  7.82135E+03  8.07329E+03  9.38031E+01  7.73764E+03 -3.33040E+03  7.51575E+03
 -6.26194E+03  3.98765E+03 -2.56547E+03 -1.05256E+03 -1.66340E+03 -1.47501E+03  4.81478E+01  2.42819E+02
 -4.41699E+02  1.85252E+03 -9.21838E+02  1.07854E+03 -1.13809E+03 -3.29599E+03  6.48828E+02 -3.75721E+03
  5.52634E+03 -2.70181E+03  4.67219E+03 -8.29712E+02  7.59791E+03  4.66600E+03  9.63116E+02  1.01508E+04
 -3.88918E+03  1.11371E+04 -1.09310E+04  6.12346E+03 -1.24660E+04 -2.37151E+03 -9.70259E+03 -6.00739E+03
 -3.34144E+03 -9.28224E+03  2.86737E+03 -1.01555E+04  6.05124E+03 -5.11178E+03  6.60277E+03  1.05037E+03
  3.27803E+03  3.05637E+03  1.40566E+03  2.30026E+03 -1.58390E+03  2.34902E+02  4.30791E+02 -1.91089E+03
  4.50111E+03 -2.04918E+03  3.49560E+03  1.20214E+03  1.48580E+03  4.46284E+03  2.34219E+02  5.90138E+03
 -4.41017E+03  4.25675E+03 -5.46365E+03  5.46739E+02 -6.24504E+03 -3.79360E+03 -1.79480E+03 -6.09632E+03
  4.86565E+03 -6.90891E+03  5.65140E+03 -2.40943E+03  8.07806E+03  1.41348E+03  4.58115E+03  6.75921E+03
  1.45248E+03  5.97523E+03 -2.63697E+03  5.46606E+03 -2.59875E+03  3.84122E+03 -2.77531E+03 -1.09014E+03
 -2.00839E+03 -1.58345E+02 -1.68234E+03  1.38737E+03 -3.13971E+03  1.22890E+03 -6.10076E+03  3.12570E+02
 -4.47171E+03 -2.44421E+03 -1.07432E+03 -7.70997E+03  3.67419E+03 -7.67630E+03  5.22321E+03 -3.60597E+03
  6.84789E+03 -3.52740E+01  4.10739E+03  3.92077E+03 -2.42679E+02  5.91159E+03 -4.31187E+03  3.75672E+03
