 $NMID ID='MM_0lb_SNR200_12hz_g60_85.RAW', FMTDAT='(8E13.5)'
 TRAMP=1., VOLUME=1. $END
  3.10631E+05  1.19858E+03  3.38748E+05  2.50507E+05  8.44018E+04  3.39332E+05 -1.31483E+05  2.52034E+05
 -1.91399E+05  8.21244E+04 -1.12397E+05 -3.16268E+04  4.93453E+02 -5.13419E+04  5.43486E+04  2.41956E+01
  3.63667E+04  5.26504E+04 -1.77176E+04  7.65799E+04 -5.96546E+04  6.39203E+04 -8.57690E+04  3.19166E+04
 -8.24573E+04 -1.21476E+04 -5.67216E+04 -5.29388E+04 -1.55937E+04 -6.99467E+04  2.73445E+04 -4.54579E+04
  4.09078E+04  4.57804E+03  1.73480E+04  4.84960E+04 -3.46049E+04  4.80248E+04 -6.74932E+04  6.36056E+01
 -5.46554E+04 -5.74128E+04 -7.44671E+03 -7.86215E+04  3.41009E+04 -5.70999E+04  4.98809E+04 -1.90909E+04
  4.49452E+04  1.01362E+04  3.46222E+04  2.76626E+04  1.58395E+04  3.03564E+04 -6.13861E+03  2.84173E+04
 -2.23597E+04  1.21050E+04 -1.72948E+04 -6.14587E+03  8.07694E+03 -7.70718E+03  2.37433E+04  1.32220E+04
  6.96880E+03  3.74031E+04 -3.43944E+04  3.50552E+04 -6.51875E+04  1.30896E+03 -5.75487E+04 -4.50697E+04
 -1.30422E+04 -6.53425E+04  4.15831E+04 -4.71288E+04  5.92773E+04 -3.14470E+03  3.74809E+04  3.32849E+04
 -6.02103E+03  3.80309E+04 -3.09982E+04  1.77455E+04 -3.30823E+04 -2.69492E+03 -1.87509E+04 -1.32555E+04
 -1.07685E+04 -1.35318E+04 -5.79299E+02 -1.92209E+04  8.51172E+03 -2.27913E+04  1.75396E+04 -1.28840E+04
  1.03155E+04  6.96268E+03 -9.59611E+03  1.33189E+04 -2.25815E+04 -4.59373E+03 -8.61281E+03 -3.65058E+04
  2.50830E+04 -4.61489E+04  5.09409E+04 -2.11987E+04  4.82682E+04  2.14062E+04  1.61441E+04  4.84600E+04
 -1.64117E+04  3.58505E+04 -2.50522E+04  3.51007E+03 -1.12602E+04 -2.72771E+04  2.13641E+04 -3.53207E+04
  4.36417E+04 -9.46299E+03  3.87204E+04  2.64418E+04  2.07564E+04  5.03715E+04 -7.64082E+03  5.52975E+04
 -3.40020E+04  3.66374E+04 -4.53277E+04  1.07229E+04 -4.67217E+04 -1.78225E+04 -2.47859E+04 -4.07480E+04
  7.50330E+03 -4.12493E+04  3.38598E+04 -1.77634E+04  3.25600E+04  1.15290E+04  5.40463E+03  2.06964E+04
 -1.32594E+04  9.60578E+03 -1.01479E+04 -8.66348E+03  5.18217E+03 -1.05498E+04  1.76421E+04  6.17533E+03
  1.47471E+04  2.36170E+04 -5.60844E+03  2.53432E+04 -2.34982E+04  1.33187E+04 -3.00631E+04 -2.97861E+03
 -2.29876E+04 -1.86424E+04 -1.11516E+04 -2.36884E+04  3.03069E+03 -2.42379E+04  1.78867E+04 -2.05671E+04
  2.97097E+04 -1.36269E+04  3.54510E+04  4.54909E+03  2.52408E+04  2.30932E+04  3.65287E+03  3.98086E+04
 -1.92831E+04  3.31144E+04 -3.01366E+04  1.17339E+04 -2.18060E+04 -1.02392E+04 -4.84480E+03 -1.43480E+04
  1.26277E+03 -3.66427E+03 -6.89638E+03  7.53683E+03 -2.01541E+04  5.55645E+03 -2.00727E+04 -9.79975E+03
 -1.09666E+04 -2.16398E+04  6.05078E+03 -2.66003E+04  1.72078E+04 -1.86932E+04  2.11436E+04 -3.43117E+03
  1.42680E+04  1.50990E+04  1.26659E+01  2.35067E+04 -1.51060E+04  1.30662E+04 -2.17522E+04 -5.15176E+03
 -1.52050E+04 -1.93724E+04 -1.10281E+03 -2.58082E+04  1.09760E+04 -2.26150E+04  2.26457E+04 -1.12462E+04
  2.09717E+04  9.60224E+01  1.48201E+04  5.92705E+03  8.22933E+03  2.41987E+03  9.35654E+03 -3.76332E+03
  2.01144E+04  3.31064E+03  2.31939E+04  1.71922E+04  1.34249E+04  3.52191E+04 -2.93552E+03  4.16192E+04
 -2.27879E+04  3.42089E+04 -3.59241E+04  1.68019E+04 -4.09914E+04 -2.87705E+03 -3.46285E+04 -2.22985E+04
 -1.38675E+04 -3.35806E+04  1.22333E+04 -2.94756E+04  2.55069E+04 -1.45451E+04  2.25668E+04  6.68598E+03
  6.38342E+03  1.51289E+04 -1.11248E+04  1.45354E+04 -2.00607E+04  2.59045E+03 -1.44632E+04 -1.16330E+04
 -4.69187E+01 -1.73268E+04  8.86226E+03 -1.25180E+04  1.20115E+04 -1.85588E+03  2.00099E+03  8.47448E+03
 -7.30096E+03  4.04884E+03 -7.11024E+03 -5.25580E+03 -2.80274E+03 -1.56672E+04  1.19973E+04 -1.64858E+04
  1.97493E+04 -9.63127E+03  2.24393E+04  2.79947E+03  2.02075E+04  1.62794E+04  9.62057E+03  2.44170E+04
 -3.94256E+03  2.76468E+04 -1.72171E+04  1.67571E+04 -1.80934E+04  3.82443E+03 -1.45172E+04 -4.01365E+03
 -7.00684E+03 -5.84964E+03 -1.84434E+03  1.01215E+03 -2.51570E+03  3.14276E+03 -6.82516E+03  3.87005E+03
 -1.13139E+04 -1.61823E+03 -1.30617E+04 -1.06376E+04 -4.66653E+03 -1.67052E+04  5.02667E+03 -1.36896E+04
  1.05359E+04 -4.93795E+03  8.52206E+03  3.52493E+03 -9.31260E+02  6.38548E+03 -6.02363E+03 -2.49469E+02
 -6.98334E+03 -9.03433E+03 -1.65376E+03 -1.19963E+04  5.65372E+03 -1.40984E+04  1.78612E+04 -6.66288E+03
  2.01216E+04  3.86399E+03  1.52304E+04  1.18604E+04  3.76471E+03  1.69378E+04 -9.51425E+03  1.50191E+04
 -9.40075E+03  3.50792E+03 -3.96053E+03 -3.02230E+03  3.23340E+03 -4.35396E+03  6.81318E+03 -2.80977E+02
  6.94319E+03  6.71968E+03  1.18481E+03  1.03534E+04 -8.55158E+03  1.11844E+04 -1.33710E+04  3.45175E+03
 -9.11259E+03 -6.24114E+03  9.32924E+02 -1.18082E+04  6.74020E+03 -4.79153E+03  8.04848E+03  3.81191E+03
  1.76030E+03  8.62301E+03 -5.57013E+03  9.39986E+03 -1.00877E+04  5.17378E+03 -1.15446E+04 -3.27766E+03
 -7.68566E+03 -1.24107E+04  3.53962E+03 -1.44124E+04  1.21086E+04 -8.25258E+03  1.55163E+04  2.24260E+03
  9.49067E+03  1.14940E+04 -7.63027E+01  1.47551E+04 -1.14900E+04  7.13085E+03 -1.07377E+04 -2.04113E+03
 -7.99758E+03 -7.46653E+03 -5.36102E+02 -1.06036E+04  5.10856E+03 -7.94211E+03  6.79994E+03 -3.21274E+03
  4.39258E+03  1.25002E+03 -1.52855E+03  2.54591E+03 -1.08500E+03 -1.35329E+03  2.14755E+03 -7.02314E+03
  9.60829E+03 -2.12898E+03  1.39570E+04  1.42437E+03  1.23193E+04  7.50830E+03  7.09590E+03  1.62866E+04
 -3.46728E+03  1.88898E+04 -1.56397E+04  1.31422E+04 -2.06622E+04  1.97789E+03 -1.73435E+04 -7.20926E+03
 -7.69355E+03 -1.42553E+04 -2.36100E+02 -1.17205E+04  4.52806E+03 -6.68908E+03  3.51226E+03 -5.07486E+03
  3.22418E+03 -1.91260E+03  3.83546E+03 -4.17648E+03  5.81562E+03 -4.55247E+03  7.96055E+03 -2.36029E+02
  8.86724E+03  1.56919E+03  3.96515E+03  6.30125E+03 -1.19472E+03  8.88716E+03 -8.70866E+03  6.60241E+03
 -1.21005E+04  1.24682E+02 -7.10607E+03 -6.84919E+03 -8.66407E+02 -1.27199E+04  8.43236E+03 -1.27988E+04
  1.24863E+04 -7.84303E+03  1.44075E+04  1.35403E+03  1.09582E+04  9.32244E+03  1.79589E+03  1.39650E+04
 -5.59538E+03  1.20072E+04 -7.77411E+03  5.42827E+03 -6.09806E+03 -2.75457E+03 -1.60746E+03 -8.13929E+02
 -5.20999E+02  1.05767E+03 -6.55185E+02  2.73911E+03 -4.46738E+03  2.50738E+03 -9.50279E+03 -2.01090E+03
 -6.26064E+03 -7.36269E+03  1.06577E+02 -1.24921E+04  6.88650E+03 -8.94120E+03  8.76741E+03 -2.63413E+03
  1.15608E+04  6.65037E+03  5.63171E+03  9.23334E+03 -2.24715E+03  1.09035E+04 -8.73351E+03  7.42061E+03
 -9.79398E+03 -3.38326E+02 -8.29925E+03 -6.03019E+03 -1.16099E+03 -9.37178E+03  4.60455E+03 -6.41966E+03
  7.73794E+03 -2.18265E+03  3.97429E+03  1.04306E+03  8.59606E+02  3.23439E+03  2.65380E+03  1.14117E+03
  2.76377E+03  9.65311E+02  1.91148E+03  1.99770E+03  4.12098E+03  3.86154E+03  2.60573E+03  4.57055E+03
 -3.30500E+03  8.47962E+03 -7.33457E+03  9.61736E+03 -1.07039E+04  3.08915E+03 -1.23967E+04 -5.37888E+03
 -5.88039E+03 -1.20501E+04  3.07664E+03 -1.21997E+04  5.32860E+03 -9.15728E+03  9.09232E+03 -3.44825E+03
  6.67511E+03  3.75591E+03  9.06129E+02  5.87742E+03 -2.57207E+03  5.08543E+03 -3.69970E+03 -1.81592E+03
 -1.56933E+03 -5.43749E+03  3.01647E+03 -5.34157E+03  3.75899E+03 -1.41550E+03  3.93400E+03  1.03134E+03
  1.22893E+03  1.07907E+03  1.02203E+03  2.20037E+03 -8.57696E+02  2.56121E+03  2.57346E+03 -3.33118E+02
  9.24686E+02 -1.00753E+03  4.70477E+03  2.20147E+03  2.37041E+03  6.02432E+03 -8.78491E+02  7.66362E+03
 -4.75526E+03  4.14075E+03 -5.58358E+03  1.83906E+03 -4.60461E+03 -2.87140E+03 -1.90124E+03 -3.87350E+03
  1.01342E+03 -5.71130E+03  3.12831E+03 -1.29520E+03  1.92423E+03  3.36152E+03 -1.54291E+03  2.67563E+03
 -3.76827E+03  1.77154E+03 -5.10454E+03 -2.36050E+03 -4.06934E+03 -5.26483E+03  2.37430E+03 -5.18478E+03
  3.52147E+03 -1.91439E+03  2.81721E+03 -6.33825E+02  3.18988E+03 -6.09372E+01  1.73068E+03  3.86878E+03
 -1.73446E+03  1.58993E+03 -2.74544E+03 -2.94870E+03  2.63150E+02 -3.75130E+03  5.33345E+03 -4.10539E+03
  6.61241E+03  1.24006E+03  5.74517E+03  4.15886E+03  1.71252E+03  6.87309E+03 -1.90960E+03  6.31517E+03
 -5.99319E+03  2.38408E+03 -5.15109E+03 -7.53631E+02 -2.25541E+03 -5.10527E+03 -2.46637E+02 -4.77031E+03
  3.99705E+03 -3.68401E+03  2.67025E+03  2.45039E+03  1.63798E+03  3.81333E+03 -6.00923E+02  2.69845E+03
 -1.22570E+03  2.09330E+03 -9.18150E+02  1.79719E+03 -1.23049E+03  1.75955E+03 -7.94634E+02  1.36620E+03
 -1.23325E+03  1.65762E+03 -4.73862E+03  1.90352E+03 -5.75974E+03  4.91748E+02 -7.15600E+03 -3.90437E+03
 -4.25523E+03 -9.61873E+03  2.92765E+03 -8.48805E+03  6.28273E+03 -7.00386E+03  8.53781E+03 -3.26832E+03
  9.36644E+03  2.37902E+03  4.53509E+03  5.95134E+03  3.57184E+02  6.96825E+03 -3.47538E+03  4.36612E+03
 -3.85302E+03  1.67116E+03 -2.96568E+03  6.72595E+02 -3.94440E+02  7.51146E+00 -2.86719E+02 -1.73119E+02
 -1.70428E+03 -1.28824E+02 -1.89700E+03  1.73412E+02 -7.65856E+01 -1.13329E+03 -1.46938E+03 -3.30862E+03
  2.59255E+03 -2.75495E+03  4.01135E+03  3.23951E+01  3.89576E+03  3.44030E+03  9.48315E+02  7.06786E+03
 -3.31578E+03  7.09319E+03 -6.11220E+03  3.40576E+03 -6.93079E+03 -8.40322E+02 -6.10007E+03 -5.40215E+03
 -3.03602E+03 -6.29203E+03  1.11861E+03 -4.83456E+03  4.05226E+03 -2.67615E+03  3.72121E+03  8.55481E+02
  2.79949E+03  1.68460E+03 -3.04769E+02  3.30027E+03 -1.17116E+03 -7.50034E+02 -5.15479E+02 -1.53339E+03
  1.72350E+03 -8.61367E+02  2.48256E+03  1.11878E+03  1.44506E+03  2.07227E+03 -6.69906E+02  1.14324E+03
 -2.06717E+03  2.63302E+03 -3.25649E+03  7.97404E+02 -3.71929E+03 -3.49478E+03  5.11188E+02 -6.01695E+03
  3.94080E+03 -5.14786E+03  2.85808E+03 -3.36933E+02  4.67097E+03  1.74647E+03  1.15938E+03  3.54493E+03
  1.29112E+03  3.87003E+03 -6.24148E+02  1.34769E+03 -1.60541E+03  1.12752E+03 -1.57532E+03  3.39753E+02
 -6.69950E+02 -1.40508E+03 -2.60280E+03  5.33104E+02 -1.79497E+03  1.25933E+03 -2.40154E+03 -7.68385E+02
 -3.21488E+03 -1.17966E+03  2.61184E+02 -2.73954E+03  1.75175E+03 -3.50681E+03  4.21401E+03 -1.76600E+03
  4.56375E+03  4.75517E+02  1.74434E+03  3.55479E+03  2.09216E+02  4.47521E+03 -2.42478E+03  2.93018E+03
