 $NMID ID='MM_0lb_SNR200_19hz_g40_77.RAW', FMTDAT='(8E13.5)'
 TRAMP=1., VOLUME=1. $END
  3.08650E+05  8.23883E+02  3.37032E+05  2.49864E+05  8.45664E+04  3.37461E+05 -1.32330E+05  2.49394E+05
 -1.90663E+05  8.24112E+04 -1.11182E+05 -3.20289E+04  2.14014E+03 -5.13558E+04  5.37144E+04  6.73743E+02
  3.40886E+04  5.39603E+04 -1.74005E+04  7.47801E+04 -6.05371E+04  6.22820E+04 -8.22274E+04  3.12489E+04
 -8.00953E+04 -1.14101E+04 -5.62667E+04 -4.94974E+04 -1.59724E+04 -6.64325E+04  2.56126E+04 -4.43708E+04
  3.80936E+04  3.64669E+03  1.48835E+04  4.71663E+04 -3.41040E+04  4.57876E+04 -6.55307E+04 -7.93109E+02
 -5.11876E+04 -5.64269E+04 -6.01768E+03 -7.42102E+04  3.34252E+04 -5.30246E+04  4.52319E+04 -1.65988E+04
  4.14862E+04  1.01146E+04  3.13396E+04  2.45131E+04  1.61583E+04  2.80513E+04 -4.22293E+03  2.67359E+04
 -2.16719E+04  1.27327E+04 -1.89282E+04 -3.92452E+03  3.72307E+03 -7.57968E+03  2.10657E+04  1.12075E+04
  6.72576E+03  3.28004E+04 -3.04984E+04  3.36149E+04 -5.94674E+04  1.41377E+03 -5.45876E+04 -4.02178E+04
 -1.20635E+04 -5.88649E+04  3.65175E+04 -4.16836E+04  5.41087E+04 -2.09496E+03  3.12716E+04  2.93029E+04
 -6.66051E+03  3.19604E+04 -2.88441E+04  1.22121E+04 -2.66140E+04 -6.37265E+03 -1.35565E+04 -9.83071E+03
 -5.60081E+03 -1.12171E+04 -2.74442E+02 -1.60552E+04  6.74813E+03 -2.22390E+04  1.50871E+04 -1.38739E+04
  1.11975E+04  3.18506E+03 -4.60676E+03  1.30476E+04 -1.90101E+04 -1.33095E+03 -7.97957E+03 -2.96636E+04
  1.96116E+04 -3.88120E+04  4.49418E+04 -1.78452E+04  4.10684E+04  1.69537E+04  1.37071E+04  4.11204E+04
 -1.48769E+04  2.93521E+04 -2.39596E+04  4.04263E+02 -9.11903E+03 -2.56829E+04  2.09894E+04 -3.06671E+04
  3.72233E+04 -7.01536E+03  3.03036E+04  2.14970E+04  1.53754E+04  4.01743E+04 -8.12468E+03  4.37078E+04
 -2.78207E+04  2.88504E+04 -3.52910E+04  8.06237E+03 -3.68127E+04 -1.47682E+04 -1.95732E+04 -3.32382E+04
  6.97490E+03 -3.28773E+04  2.92015E+04 -1.24752E+04  2.65118E+04  9.98164E+03  3.03451E+03  1.72288E+04
 -1.31812E+04  7.42306E+03 -8.76165E+03 -7.96549E+03  6.81762E+03 -9.94232E+03  1.74178E+04  6.72524E+03
  1.22561E+04  2.09817E+04 -7.33021E+03  2.22859E+04 -2.25701E+04  8.82667E+03 -2.41954E+04 -7.78968E+03
 -1.58361E+04 -1.62808E+04 -5.04258E+03 -1.50914E+04  4.05474E+03 -1.37707E+04  1.15734E+04 -1.38740E+04
  2.04750E+04 -1.01514E+04  2.69556E+04  8.39044E+02  2.01967E+04  1.43571E+04  4.22055E+03  3.24051E+04
 -1.54530E+04  2.68724E+04 -2.59386E+04  1.02152E+04 -1.93598E+04 -1.04005E+04 -3.80548E+03 -1.40609E+04
  2.83860E+03 -4.73404E+03 -2.51056E+03  4.76176E+03 -1.21197E+04  5.76952E+03 -1.32545E+04 -4.56180E+03
 -8.38357E+03 -1.33188E+04  3.78091E+03 -1.91222E+04  1.17322E+04 -1.32627E+04  1.41471E+04 -1.78185E+03
  8.56865E+03  9.87323E+03 -1.43621E+03  1.57675E+04 -9.87640E+03  7.90714E+03 -1.42898E+04 -2.98095E+03
 -1.09582E+04 -1.32915E+04 -7.29945E+02 -1.79552E+04  9.26442E+03 -1.49379E+04  1.51562E+04 -6.49232E+03
  1.37962E+04  1.06251E+03  1.00797E+04  4.24606E+03  6.05024E+03  6.72541E+02  6.98645E+03 -1.90384E+03
  1.27000E+04  2.42952E+03  1.34888E+04  1.17691E+04  8.10363E+03  2.26161E+04 -3.11760E+03  2.48621E+04
 -1.44921E+04  1.77658E+04 -2.28622E+04  8.61023E+03 -2.33531E+04 -1.81724E+03 -2.03861E+04 -1.44456E+04
 -9.40923E+03 -1.80135E+04  6.45429E+03 -1.81857E+04  1.61922E+04 -1.03206E+04  1.49917E+04  3.81074E+03
  6.98525E+03  1.08082E+04 -6.49087E+03  1.01208E+04 -1.33934E+04  2.76580E+03 -9.34185E+03 -7.58147E+03
  1.52305E+02 -1.24307E+04  5.54832E+03 -8.81796E+03  7.11217E+03 -8.34263E+02  1.78711E+03  4.65948E+03
 -5.32985E+03  5.47681E+02 -3.04599E+03 -3.98927E+03  1.61935E+03 -8.90070E+03  7.39880E+03 -8.57475E+03
  1.16553E+04 -3.87543E+03  1.13128E+04  3.70741E+03  1.00864E+04  8.41093E+03  4.89798E+03  1.30158E+04
 -2.26056E+03  1.47836E+04 -7.92693E+03  9.76445E+03 -1.03423E+04  3.82951E+03 -7.78584E+03 -8.68928E+02
 -4.21452E+03 -2.71809E+03 -1.60998E+03  1.32279E+03 -1.53168E+03  1.47833E+03 -4.32637E+03  3.27090E+03
 -7.97743E+03  1.17217E+03 -8.79650E+03 -6.49224E+03 -3.59480E+03 -1.10693E+04  2.93336E+03 -7.91769E+03
  7.46997E+03 -3.36469E+03  4.15429E+03  1.84578E+03  3.20811E+02  3.06463E+03 -3.31802E+03 -3.41469E+02
 -2.95447E+03 -4.84593E+03 -1.01858E+03 -8.10114E+03  3.41826E+03 -5.93791E+03  9.12187E+03 -3.51563E+03
  1.07177E+04  9.86272E+02  8.54202E+03  5.88396E+03  2.25925E+03  7.67096E+03 -4.77505E+03  6.81274E+03
 -5.71333E+03  2.87759E+03 -3.07231E+03 -1.00013E+03  2.60550E+03 -8.52909E+02  3.70649E+03 -9.10732E+02
  3.56340E+03  2.83190E+03  8.04681E+02  5.63993E+03 -4.68668E+03  5.25271E+03 -6.97799E+03  2.92207E+03
 -4.33638E+03 -3.29979E+03 -6.39914E+01 -7.00809E+03  3.61620E+03 -3.53884E+03  2.23476E+03  5.55370E+02
 -8.21149E+02  3.35494E+03 -3.76582E+03  3.99985E+03 -4.51498E+03  3.06271E+03 -3.73355E+03 -2.59862E+02
 -2.37766E+03 -5.22011E+03  8.92823E+02 -5.67536E+03  4.15337E+03 -4.61821E+03  6.19721E+03  1.09610E+03
  4.05368E+03  4.21280E+03  4.48230E+02  6.40938E+03 -4.56545E+03  3.23194E+03 -5.81432E+03 -2.79770E+02
 -4.64542E+03 -4.40622E+03 -6.35306E+02 -4.98459E+03  2.14180E+03 -4.97100E+03  2.66771E+03 -2.77962E+03
  2.46799E+03 -8.09854E+02 -6.09965E+02  1.60929E+03  1.06001E+03 -4.88726E+02 -1.47440E+03 -1.48504E+03
  3.40471E+03 -7.90953E+02  3.50795E+03  1.02244E+03  4.84980E+03  3.25732E+03  4.66996E+03  6.02992E+03
 -1.41691E+03  7.40871E+03 -6.75642E+03  6.47177E+03 -8.97955E+03  1.20509E+03 -7.23423E+03 -1.76871E+03
 -4.22196E+03 -5.99653E+03  1.02580E+01 -4.55487E+03  1.80788E+03 -1.69642E+03  1.68786E+03 -1.66144E+03
  9.45652E+02 -1.81572E+03  2.42214E+03 -3.02516E+03  3.58583E+03 -2.02935E+03  3.30486E+03  6.21952E+02
  4.40133E+03  5.31811E+02  7.52164E+02  2.84767E+03  2.02336E+02  6.35925E+02 -4.36382E+03  2.49415E+03
 -3.67758E+03 -1.54434E+03 -1.22826E+03 -3.60487E+03  8.33129E+02 -3.92153E+03  2.49755E+03 -5.62700E+03
  5.06170E+03 -2.49473E+03  6.82960E+03 -2.66206E+02  5.18886E+03  5.18751E+03  3.26069E+02  4.37222E+03
 -2.21352E+03  5.85996E+03 -3.39660E+03  1.72671E+03 -1.92614E+03 -7.89210E+02 -1.85935E+02 -4.53184E+02
 -4.04832E+02  3.05637E+02 -2.29936E+02  2.56699E+03 -2.45941E+03  2.77649E+02 -5.39276E+03 -2.75079E+02
 -1.58664E+03 -3.13194E+03  1.27108E+03 -5.41034E+03  1.88097E+03 -4.14964E+03  3.76729E+03 -2.00396E+03
  4.21833E+03  1.92849E+03  2.02573E+03  2.50577E+03 -1.62436E+03  4.82536E+03 -8.89872E+02  1.80129E+03
 -2.37392E+03  5.84926E+02 -2.83079E+03 -1.87719E+03  1.27211E+02 -2.68736E+03  1.50253E+03 -2.77570E+03
  2.64174E+03 -1.10364E+03  2.80995E+03 -1.09614E+02  9.04568E+02  7.00652E+02  1.10717E+03  2.07224E+02
  2.79719E+03  5.15273E+02  1.17711E+03  1.24783E+03  1.79977E+03  2.29161E+03  1.92894E+03  1.69726E+03
 -1.02030E+03  2.80980E+03 -2.47241E+03  3.04528E+03 -2.80723E+03  1.22158E+02 -3.78993E+03 -3.09630E+02
 -1.92714E+03 -3.49755E+03  3.02275E+02 -4.09841E+03  1.84215E+03 -3.01174E+03  1.99958E+03 -6.73815E+02
  2.59885E+03  2.18629E+03  4.74266E+02  2.65811E+03 -3.37830E+02  8.92208E+02 -5.83979E+02 -3.55586E+02
 -1.19910E+03 -6.26647E+02  1.21295E+03 -1.27440E+03  1.33050E+03 -9.72005E+02  2.12367E+03  2.28129E+02
  1.15959E+03  2.74244E+02  1.46921E+03 -9.58978E+02 -7.84869E+01 -6.86554E+02  1.12704E+03 -6.67534E+02
  3.09463E+02 -1.11643E+03  1.75401E+03  3.42484E+02  1.09940E+03  2.60493E+03  6.97131E+01  1.93695E+03
 -1.37455E+03  1.32480E+03 -1.42992E+03  3.42164E+02 -2.54195E+03  6.62111E+02 -1.89889E+02 -1.53238E+03
 -9.20494E+02  1.13456E+03  1.06092E+03 -4.03292E+01  4.10730E+02  1.04579E+03 -2.76793E+02  1.07397E+03
 -8.98878E+02  1.53777E+03 -1.46125E+03 -9.87860E+02 -1.24882E+03 -2.01697E+03  1.01175E+03 -2.18413E+03
  5.25700E+02 -4.22140E+02  6.17772E+02 -2.00578E+02  1.14208E+03  6.74229E+02 -3.43375E+02  1.43078E+03
  1.67788E+02 -8.46529E+02 -8.30083E+02 -1.58539E+02  8.57255E+02 -4.53798E+02  1.01974E+03 -8.76494E+02
  9.64404E+02 -6.70616E+02  2.87995E+03 -1.71291E+02  1.53674E+03  2.31826E+03  3.37868E+02  2.19409E+03
  1.14506E+02  4.66188E+02 -9.28474E+02  8.44223E+02 -9.43570E+02 -1.26268E+03  2.30003E+02  2.25333E+02
  8.90367E+02 -6.26593E+02  7.25629E+02  5.24307E+02  4.38738E+02  1.22959E+03 -2.67200E+02  9.07856E+02
 -4.39989E+02  8.40416E+02 -1.21124E+03  1.24865E+03 -2.46487E+02 -4.27223E+01 -7.65252E+02  1.14699E+03
 -3.51616E+02  4.15325E+02 -1.95078E+03 -1.38189E+02 -1.58921E+03 -3.71067E+02 -2.87287E+03 -4.50384E+01
 -1.25784E+03 -1.58549E+03  6.71882E+01 -2.07527E+03  3.09169E+02 -2.28694E+03  2.25228E+03 -7.86001E+02
  2.44027E+03 -6.85144E+02  4.66849E+02  3.96710E+02 -6.88671E+02  1.34767E+03 -2.19973E+02  2.26180E+03
 -1.40278E+03  7.14365E+02  4.23969E+02 -1.87868E+02 -7.38776E+02  6.71321E+02 -7.26273E+02  3.82556E+02
 -1.56461E+02  4.08721E+02 -6.87562E+02  7.51753E+02 -7.82598E+01 -1.34884E+03 -1.96895E+02 -9.33051E+02
  1.55474E+03  4.11909E+02  1.18898E+03  6.21868E+02  9.64566E+02  1.38548E+03 -1.12056E+03  3.76809E+02
 -1.77024E+03  1.56257E+03 -1.23718E+03  1.16290E+03 -1.80108E+03 -2.94061E+01 -3.85002E+02 -7.30563E+02
 -3.68917E+02 -1.94145E+03  1.58384E+03 -1.99640E+03  9.15328E+02 -5.31841E+02  4.44993E+02  1.14762E+01
  1.43239E+03 -3.14480E+02 -6.01469E+02  1.08468E+02 -2.72350E+01 -6.60173E+02 -4.40015E+02  1.47900E+02
  5.52880E+02  4.23147E+01 -4.00649E+02  1.33145E+02 -8.20550E+01 -2.58395E+02  1.86063E+02  5.75950E+02
 -6.66234E+02  1.09806E+03 -2.64308E+02  1.82675E+03 -1.20755E+03 -6.11477E+02  3.57806E+02  9.27853E+01
  1.29370E+03 -4.70139E+02 -6.40524E+02  5.56858E+02  1.06529E+03 -7.81110E+02  3.57093E+02  1.36074E+03
 -1.82951E+02  1.07601E+03 -6.38962E+02  2.62517E+02 -4.95743E+02  7.98494E+01 -1.06579E+03 -4.27494E+02
 -1.10389E+02  4.05265E+02 -1.08301E+03  7.65239E+02 -6.68376E+02  2.89414E+02 -7.61880E+02 -7.33211E+02
 -8.34071E+02  9.90156E+02 -6.98179E+02 -1.38299E+03  7.89115E+02 -1.62049E+03  1.43664E+03  6.46540E+01
  8.62685E+02  3.05761E+01  3.94093E+01 -6.68228E+01 -1.99263E+00  1.03727E+03 -2.41131E+02 -1.01668E+02
