 $NMID ID='MM_0lb_SNR200_17hz_g60_15.RAW', FMTDAT='(8E13.5)'
 TRAMP=1., VOLUME=1. $END
  3.10134E+05  3.06131E+02  3.37900E+05  2.50980E+05  8.53042E+04  3.38106E+05 -1.32769E+05  2.51583E+05
 -1.90940E+05  8.38673E+04 -1.12065E+05 -3.30006E+04  6.71271E+02 -5.03214E+04  5.25923E+04  8.58991E+02
  3.39936E+04  5.36442E+04 -1.57591E+04  7.51873E+04 -6.20810E+04  6.37965E+04 -8.38278E+04  3.24163E+04
 -8.11225E+04 -1.13125E+04 -5.71181E+04 -5.11129E+04 -1.54366E+04 -6.96319E+04  2.72066E+04 -4.73409E+04
  3.98641E+04  3.77906E+03  1.59399E+04  4.67085E+04 -3.54625E+04  4.70153E+04 -6.78921E+04 -7.19445E+02
 -5.29184E+04 -5.59570E+04 -6.09918E+03 -7.73008E+04  3.45567E+04 -5.46471E+04  4.91235E+04 -1.70580E+04
  4.34428E+04  1.07835E+04  3.11604E+04  2.46611E+04  1.63414E+04  2.89361E+04 -4.61780E+03  2.68785E+04
 -2.19174E+04  1.35255E+04 -1.92001E+04 -6.09322E+03  5.48563E+03 -7.18912E+03  2.11917E+04  1.22552E+04
  8.17265E+03  3.55864E+04 -3.23289E+04  3.59396E+04 -6.32834E+04  2.72018E+03 -5.64803E+04 -4.18110E+04
 -1.36708E+04 -6.18172E+04  3.96768E+04 -4.60538E+04  5.85018E+04 -1.10845E+03  3.36241E+04  3.17111E+04
 -6.54512E+03  3.56245E+04 -3.01235E+04  1.49332E+04 -3.00712E+04 -5.38801E+03 -1.60294E+04 -1.14359E+04
 -8.74892E+03 -1.31344E+04 -5.82590E+02 -1.77943E+04  7.32390E+03 -2.18472E+04  1.51585E+04 -1.35216E+04
  1.21000E+04  5.30439E+03 -6.85032E+03  1.32710E+04 -2.01390E+04 -2.53276E+03 -8.99695E+03 -3.39266E+04
  2.31362E+04 -4.38679E+04  4.70240E+04 -1.87964E+04  4.42088E+04  1.95288E+04  1.49018E+04  4.36898E+04
 -1.51290E+04  3.28656E+04 -2.62119E+04  1.52754E+02 -8.09930E+03 -2.80557E+04  2.06155E+04 -3.37014E+04
  4.04199E+04 -8.10407E+03  3.50515E+04  2.47588E+04  1.88351E+04  4.53405E+04 -8.34552E+03  4.96350E+04
 -3.12244E+04  3.29005E+04 -4.09035E+04  9.31671E+03 -4.18994E+04 -1.62843E+04 -2.38241E+04 -3.71849E+04
  7.69825E+03 -3.69861E+04  3.02489E+04 -1.41650E+04  2.79069E+04  1.01705E+04  3.31936E+03  1.82984E+04
 -1.36724E+04  8.05792E+03 -1.03543E+04 -7.72491E+03  5.28480E+03 -1.11320E+04  1.76696E+04  5.97660E+03
  1.32789E+04  2.24159E+04 -6.36111E+03  2.46194E+04 -2.19943E+04  1.13166E+04 -2.74112E+04 -4.61552E+03
 -2.00623E+04 -1.68905E+04 -8.55643E+03 -2.00855E+04  3.84125E+03 -1.92397E+04  1.44113E+04 -1.76827E+04
  2.47134E+04 -1.37932E+04  3.12919E+04  1.51195E+03  2.29121E+04  1.67274E+04  4.62885E+03  3.51537E+04
 -1.61266E+04  3.10621E+04 -2.70276E+04  1.13844E+04 -2.17623E+04 -9.18535E+03 -4.11597E+03 -1.35526E+04
  1.79312E+03 -2.75934E+03 -5.00949E+03  6.67019E+03 -1.51431E+04  5.68546E+03 -1.53973E+04 -6.70449E+03
 -9.74733E+03 -1.87593E+04  5.66939E+03 -2.21516E+04  1.44465E+04 -1.47176E+04  1.73874E+04 -8.93237E+02
  1.08843E+04  1.32422E+04  3.03104E+02  1.79273E+04 -1.20531E+04  1.00023E+04 -1.64414E+04 -3.60690E+03
 -1.40353E+04 -1.61864E+04 -1.72272E+03 -2.15835E+04  8.46126E+03 -1.86032E+04  1.86996E+04 -8.61470E+03
  1.64542E+04  1.08787E+03  1.33485E+04  4.85340E+03  5.73164E+03  9.04884E+02  8.05717E+03 -1.38953E+03
  1.60849E+04  2.12936E+03  1.81710E+04  1.43836E+04  1.19021E+04  2.89266E+04 -3.96843E+03  3.23855E+04
 -1.71785E+04  2.45814E+04 -2.98720E+04  1.18578E+04 -2.95395E+04 -3.10608E+03 -2.47882E+04 -1.86219E+04
 -1.07997E+04 -2.58632E+04  8.35748E+03 -2.29892E+04  1.91277E+04 -1.39064E+04  1.73542E+04  4.46600E+03
  7.03996E+03  1.19639E+04 -8.55915E+03  1.22701E+04 -1.58872E+04  2.42100E+03 -1.26132E+04 -8.69809E+03
  7.04058E+02 -1.56074E+04  6.43962E+03 -1.05611E+04  9.43309E+03 -1.72214E+03  2.23792E+03  6.31089E+03
 -6.61296E+03  2.56214E+03 -5.33932E+03 -4.54701E+03  3.01779E+02 -1.25340E+04  9.10360E+03 -1.18275E+04
  1.45257E+04 -4.88541E+03  1.55119E+04  3.78195E+03  1.29611E+04  1.11529E+04  6.56080E+03  1.79834E+04
 -2.76949E+03  1.96692E+04 -1.11854E+04  1.31216E+04 -1.42104E+04  2.62412E+03 -1.08032E+04 -2.31185E+03
 -5.44227E+03 -3.78581E+03 -1.44567E+03  1.19322E+03 -1.87060E+03  2.83558E+03 -5.38232E+03  3.32805E+03
 -1.07219E+04 -9.10508E+02 -1.03493E+04 -9.04736E+03 -3.60477E+03 -1.37942E+04  4.44315E+03 -9.80227E+03
  7.46593E+03 -5.20871E+03  5.97902E+03  2.37546E+03 -2.39697E+02  4.35721E+03 -4.38421E+03  4.66843E+02
 -3.36157E+03 -6.41900E+03 -7.81800E+02 -9.26071E+03  4.95220E+03 -9.55104E+03  1.06696E+04 -5.77619E+03
  1.40072E+04  1.13645E+03  1.11068E+04  7.91689E+03  1.20390E+03  1.07274E+04 -6.32152E+03  9.52550E+03
 -7.55544E+03  3.51703E+03 -4.94636E+03 -1.16140E+03  1.28572E+03 -2.75298E+03  4.81316E+03 -8.73178E+02
  4.99777E+03  3.99109E+03  5.23281E+02  8.04694E+03 -5.53009E+03  7.79275E+03 -1.00689E+04  2.38314E+03
 -6.78822E+03 -3.69793E+03  2.84781E+02 -8.06194E+03  5.31224E+03 -4.64341E+03  5.17846E+03  1.47272E+03
  4.39007E+02  5.79945E+03 -4.76988E+03  5.49877E+03 -5.37038E+03  2.67560E+03 -5.52654E+03 -2.25602E+03
 -4.17350E+03 -6.96171E+03  2.32119E+03 -8.82466E+03  7.21830E+03 -6.41568E+03  9.20043E+03  1.34982E+03
  5.19938E+03  5.76973E+03 -4.17254E+02  1.00249E+04 -6.44918E+03  5.86316E+03 -7.44286E+03 -9.30861E+02
 -6.24365E+03 -5.52025E+03 -1.43979E+03 -6.98951E+03  4.06104E+03 -6.68250E+03  3.67899E+03 -2.56155E+03
  4.33498E+03  4.19051E+02  6.61147E+02  7.25120E+02  1.45768E+03 -1.94546E+03  7.43118E+02 -1.85248E+03
  4.81795E+03 -1.16908E+03  7.35031E+03  1.16814E+03  7.29345E+03  4.50300E+03  7.08892E+03  9.13573E+03
 -1.46750E+03  1.11035E+04 -9.52697E+03  8.45650E+03 -1.35401E+04  6.44863E+02 -9.61502E+03 -3.74759E+03
 -5.71408E+03 -7.86329E+03  4.50194E+01 -6.32486E+03  2.04636E+03 -2.56472E+03  2.58378E+03 -3.15551E+03
  2.21386E+03 -2.10582E+03  1.45785E+03 -1.76485E+03  3.80556E+03 -1.66099E+03  4.22063E+03  2.15617E+02
  5.52002E+03  1.68251E+03  1.93937E+03  2.76224E+03 -2.90022E+03  3.03893E+03 -6.18387E+03  4.21076E+03
 -5.59157E+03 -1.92271E+03 -2.37093E+03 -4.08051E+03  1.08260E+03 -6.05149E+03  3.71051E+03 -7.67629E+03
  7.42924E+03 -3.77991E+03  8.36604E+03 -7.68690E+01  6.09048E+03  4.51330E+03  1.02983E+03  7.65206E+03
 -2.22713E+03  6.99680E+03 -3.92002E+03  3.25372E+03 -2.42418E+03 -4.22776E+02  1.20878E+02 -1.38120E+03
 -1.91004E+02  4.53507E+02 -6.06701E+02  2.02591E+03 -3.99822E+03  1.48055E+03 -5.55473E+03 -4.56970E+02
 -2.22294E+03 -5.43424E+03  3.74644E+02 -5.45785E+03  4.51263E+03 -6.11200E+03  3.78653E+03 -1.40392E+03
  6.62579E+03  3.32818E+03  1.60833E+03  4.16744E+03 -1.03049E+03  5.39213E+03 -4.08196E+03  3.33321E+03
 -5.82110E+03 -4.51335E+01 -3.65237E+03 -2.80210E+03  1.82882E+02 -4.30931E+03  1.71065E+03 -2.79127E+03
  2.79900E+03 -1.66458E+03  3.23401E+03  2.71850E+01  9.73772E+02  1.14382E+03 -3.84460E+02  1.44235E+03
  2.32721E+03  1.37216E+03  1.40316E+03  4.87392E+02  1.25499E+03  1.95630E+03  2.30409E+03  3.83133E+03
 -2.24535E+03  4.14913E+03 -3.51282E+03  5.36243E+03 -3.90771E+03  3.70055E+02 -5.15960E+03 -7.03463E+02
 -1.83896E+03 -5.23323E+03  6.17943E+02 -7.15076E+03  1.85772E+03 -2.18699E+03  3.41846E+03  2.50775E+02
  2.92256E+03  1.29210E+03  1.01852E+03  3.46613E+03 -1.58313E+03  5.88027E+02 -1.47378E+03  3.62345E+02
 -4.91989E+02 -2.42639E+03  2.23807E+03 -1.72745E+03  2.26104E+03 -1.28122E+03  2.19114E+03 -2.00834E+02
  1.32216E+03 -6.08060E+02  1.13755E+02  5.57392E+02 -1.31689E+03 -5.76961E+02  1.23576E+03 -2.30054E+02
  1.00920E+03  6.39625E+02  2.95395E+03 -1.24094E+02  8.48960E+02  2.21392E+03 -1.96013E+03  3.26195E+03
 -2.06991E+03  1.56755E+03 -3.78458E+03  6.37854E+02 -3.00523E+03 -1.20157E+03 -1.22638E+03 -1.70296E+03
  1.39248E+03 -1.95865E+03  1.76490E+03 -4.98435E+02  9.04576E+00  2.31879E+03  2.37149E+02  1.43535E+03
 -1.83304E+03  1.37615E+03 -1.95049E+03 -1.95514E+03 -1.60320E+03 -2.50543E+03  4.66262E+02 -1.03192E+03
  3.16740E+02 -9.90081E+02 -2.78804E+01 -6.73571E+02  1.82320E+03 -3.07911E+02  3.06599E+02  2.10956E+03
 -1.05641E+03  3.64512E+02 -1.47886E+03 -4.22421E+01  1.30541E+03 -9.11807E+02  1.51448E+03  2.43564E+02
  9.78155E+02  1.01268E+03  3.22735E+03  4.61580E+02  2.37530E+03  1.66314E+03 -2.89659E+02  2.41360E+03
 -2.08304E+03 -5.65531E+02 -1.32611E+03 -1.46486E+01 -2.00984E+02 -1.25300E+03 -3.64533E+02 -1.45649E+03
  1.82313E+03 -1.12853E+03  1.15159E+03  1.08450E+02 -3.79618E+02  2.58235E+03  1.20527E+02  2.35977E+03
  2.34064E+02  1.24365E+03 -6.22192E+02  1.54959E+02  2.59288E+02  3.84128E+02 -1.51364E+03  8.26966E+01
 -1.00020E+03  5.29720E+02 -2.05949E+03  4.36414E+02 -1.29632E+03  7.08400E+02 -2.49534E+03 -1.20870E+03
 -2.39575E+03 -3.22117E+03  9.54253E+02 -3.56622E+03  2.08057E+03 -2.49237E+03  2.99377E+03 -1.44297E+03
  3.00587E+03  5.95752E+02  1.72931E+03  2.38611E+03  9.60544E+02  2.47571E+03 -1.35775E+03  1.17449E+03
  7.73567E+01  6.34100E+02  2.08880E+02 -4.90374E+02 -4.38446E+02  1.89159E+02 -7.57488E+02 -2.30575E+02
 -7.92891E+02  4.57668E+01 -1.43197E+03  8.45899E+02  1.18481E+03 -2.47945E+02 -3.73372E+02 -8.45787E+02
  2.33817E+03  4.58348E+02 -7.85802E+02  3.96706E+02 -3.49179E+02  3.27280E+00 -2.96260E+02  8.49160E+02
 -4.32060E+02  2.84036E+03 -1.17537E+03  1.35501E+03 -2.47945E+03 -2.89246E+02 -2.64146E+03 -1.80284E+03
 -1.20385E+03 -2.37489E+03 -5.64949E+01 -2.18639E+03  1.31397E+03 -6.97380E+02  2.21070E+03 -8.77136E+02
  4.92846E+02  1.06923E+03  2.19677E+02  4.19379E+02  6.94197E+01  4.55480E+02  9.79695E+02 -1.01004E+01
  2.94408E+01  1.12084E+03 -2.95481E+02 -4.39570E+02 -4.13939E+02  1.48009E+03  1.41156E+02  8.72415E+02
 -5.39249E+02 -7.04891E+01 -2.28353E+03 -2.47983E+02 -2.72076E+01 -2.38306E+02 -3.68715E+02 -1.76481E+03
  8.28031E+01 -2.02710E+03  6.87252E+02 -9.25409E+02  1.42691E+03 -2.61802E+02  7.11881E+02  1.77788E+03
  1.00502E+03  3.50160E+01 -9.91883E+02 -5.14441E+02 -2.66525E+02  1.55998E+03 -1.29232E+03  4.54177E+02
 -6.51190E+02  7.17216E+02 -1.67467E+03  3.01611E+02 -5.06074E+01  4.85487E+02 -1.07323E+03 -1.19459E+02
 -2.13766E+03 -5.03196E+01 -5.25261E+02 -1.65816E+03  8.25194E+02 -1.37377E+03  1.77971E+03  5.23078E+02
 -5.42612E+02 -1.22251E+02  1.56372E+02  2.82995E+01  8.67801E+01  1.97890E+03 -5.68700E+02  1.25666E+03
