 $NMID ID='MM_0lb_SNR200_7hz_g40_51.RAW', FMTDAT='(8E13.5)'
 TRAMP=1., VOLUME=1. $END
  3.08874E+05  9.60526E+02  3.38851E+05  2.51056E+05  8.47244E+04  3.40337E+05 -1.33675E+05  2.52083E+05
 -1.89809E+05  8.39054E+04 -1.11454E+05 -3.16302E+04 -1.08351E+03 -4.95909E+04  5.33938E+04  1.34663E+03
  3.54009E+04  5.23483E+04 -1.71490E+04  7.66476E+04 -6.19991E+04  6.41036E+04 -8.51372E+04  3.36972E+04
 -8.45421E+04 -1.10242E+04 -5.69726E+04 -5.30162E+04 -1.51835E+04 -7.11177E+04  2.78987E+04 -4.80205E+04
  4.09758E+04  4.83939E+03  1.59328E+04  4.88340E+04 -3.51112E+04  4.73883E+04 -6.92207E+04  1.01663E+03
 -5.48855E+04 -5.60872E+04 -7.94425E+03 -7.70514E+04  3.46834E+04 -5.64651E+04  5.00904E+04 -1.78906E+04
  4.46185E+04  1.04378E+04  3.36395E+04  2.67350E+04  1.66545E+04  2.91929E+04 -7.47069E+03  2.78567E+04
 -2.43332E+04  1.05349E+04 -1.91827E+04 -5.55053E+03  7.55105E+03 -6.66244E+03  2.30163E+04  1.45810E+04
  7.16903E+03  3.76116E+04 -3.39105E+04  3.75576E+04 -6.85731E+04  2.57681E+03 -5.76646E+04 -4.32326E+04
 -1.28311E+04 -6.70822E+04  4.28559E+04 -4.97828E+04  6.06002E+04 -4.61001E+03  3.64253E+04  3.58081E+04
 -5.72079E+03  3.97178E+04 -3.24369E+04  1.82113E+04 -3.61966E+04 -4.54471E+03 -1.84150E+04 -1.14264E+04
 -9.95331E+03 -1.47962E+04  3.69605E+02 -2.06980E+04  8.52982E+03 -2.27092E+04  1.75155E+04 -1.28120E+04
  9.84649E+03  6.05412E+03 -1.08780E+04  1.31610E+04 -2.42434E+04 -7.20812E+03 -8.86149E+03 -3.99281E+04
  2.74848E+04 -4.77069E+04  5.33581E+04 -2.12080E+04  4.84764E+04  2.02621E+04  1.81321E+04  4.94726E+04
 -1.62431E+04  3.72898E+04 -2.71396E+04  2.45361E+03 -1.18952E+04 -2.94375E+04  2.19491E+04 -3.67070E+04
  4.66502E+04 -1.28268E+04  4.05284E+04  2.63112E+04  2.19760E+04  5.16194E+04 -8.20673E+03  5.69647E+04
 -3.74181E+04  3.81534E+04 -4.73436E+04  1.15197E+04 -4.97095E+04 -1.93649E+04 -2.64933E+04 -4.37370E+04
  6.31916E+03 -4.34079E+04  3.53141E+04 -1.60438E+04  3.27869E+04  1.17800E+04  5.17492E+03  2.17112E+04
 -1.33423E+04  9.34067E+03 -1.30609E+04 -7.23320E+03  5.40840E+03 -1.06188E+04  1.79239E+04  5.87937E+03
  1.46722E+04  2.39855E+04 -6.32398E+03  2.70232E+04 -2.34474E+04  1.44184E+04 -3.06803E+04 -1.99123E+03
 -2.73156E+04 -1.75987E+04 -1.10297E+04 -2.64651E+04  4.36554E+03 -2.77971E+04  2.08564E+04 -2.61020E+04
  3.30795E+04 -1.49612E+04  3.83899E+04  2.50266E+03  2.86543E+04  2.46481E+04  3.63919E+03  4.13188E+04
 -2.17304E+04  3.52733E+04 -3.21101E+04  1.42757E+04 -2.26150E+04 -1.06804E+04 -6.18323E+03 -1.33427E+04
  1.25804E+03 -1.70316E+02 -7.75323E+03  9.48342E+03 -2.16703E+04  5.66435E+03 -2.31245E+04 -9.59427E+03
 -1.11598E+04 -2.40906E+04  5.69649E+03 -2.94889E+04  1.91811E+04 -1.97723E+04  2.37260E+04 -1.20445E+03
  1.38822E+04  1.68065E+04 -4.74494E+02  2.42252E+04 -1.72123E+04  1.25676E+04 -2.55310E+04 -5.30020E+03
 -1.95395E+04 -2.14442E+04 -2.68909E+03 -2.89879E+04  1.31855E+04 -2.47843E+04  2.43024E+04 -1.52812E+04
  2.40519E+04 -7.77053E+02  1.85231E+04  5.83935E+03  9.51679E+03  1.52873E+03  1.22640E+04 -4.03334E+03
  2.37896E+04  2.40424E+03  2.46409E+04  1.87258E+04  1.91956E+04  4.12742E+04 -3.62641E+03  4.60507E+04
 -2.65243E+04  3.97307E+04 -4.49137E+04  2.01044E+04 -4.74317E+04 -3.34047E+03 -3.74331E+04 -2.98839E+04
 -1.40284E+04 -3.90737E+04  1.52398E+04 -3.36302E+04  3.17775E+04 -1.56976E+04  2.65403E+04  8.43627E+03
  1.02489E+04  1.91536E+04 -1.14953E+04  1.65740E+04 -2.24840E+04  2.05363E+03 -1.48760E+04 -1.22526E+04
  1.51704E+03 -2.12889E+04  1.12432E+04 -1.59120E+04  1.45337E+04 -1.41330E+03  3.13761E+03  1.05425E+04
 -8.65213E+03  4.36579E+03 -1.26126E+04 -7.03429E+03 -1.39397E+03 -1.94928E+04  1.17120E+04 -2.13849E+04
  2.61900E+04 -1.20686E+04  2.80348E+04  2.51479E+03  2.73594E+04  2.08535E+04  1.14607E+04  3.28096E+04
 -6.17379E+03  3.36199E+04 -2.41717E+04  2.08987E+04 -2.40185E+04  2.11516E+03 -1.88161E+04 -6.83769E+03
 -6.94480E+03 -9.26541E+03 -1.14544E+03  6.45487E+02 -3.36235E+03  3.17634E+03 -6.71462E+03  7.21720E+03
 -1.52373E+04 -1.47499E+03 -1.61829E+04 -1.23370E+04 -6.96625E+03 -1.87613E+04  6.86525E+03 -1.68999E+04
  1.50939E+04 -7.22559E+03  8.01556E+03  6.28480E+03  5.21584E+02  8.31780E+03 -9.66160E+03 -8.77373E+02
 -8.13362E+03 -1.19048E+04 -7.94225E+02 -1.84286E+04  8.80807E+03 -1.75735E+04  2.20100E+04 -1.02340E+04
  2.63037E+04  3.06578E+03  1.94361E+04  1.56421E+04  4.40066E+03  2.24494E+04 -9.23534E+03  1.66647E+04
 -1.36446E+04  3.36803E+03 -7.57833E+03 -2.85451E+03  1.91345E+03 -5.08931E+03  8.93581E+03 -4.72660E+02
  7.29900E+03  6.43052E+03  1.36315E+03  1.44094E+04 -1.05886E+04  1.57562E+04 -1.58587E+04  1.32853E+03
 -1.29099E+04 -8.59702E+03  8.42709E+01 -1.49209E+04  8.77330E+03 -7.83084E+03  9.52374E+03  4.40431E+03
  2.83676E+03  1.29500E+04 -9.44686E+03  1.27581E+04 -1.65420E+04  6.34654E+03 -1.46848E+04 -7.26866E+03
 -9.87456E+03 -1.94185E+04  5.94204E+03 -1.95749E+04  1.79955E+04 -1.24332E+04  1.73950E+04  4.45951E+03
  1.11071E+04  1.44149E+04 -8.51491E+02  1.60613E+04 -1.05614E+04  9.78700E+03 -1.33380E+04 -2.14596E+03
 -1.11613E+04 -1.01504E+04 -1.15279E+03 -1.46404E+04  6.13102E+03 -1.21781E+04  8.27578E+03 -4.74123E+03
  5.50610E+03  2.91675E+03 -3.28893E+03  2.13324E+03 -1.39163E+03 -3.33692E+03  3.82382E+03 -9.53685E+03
  1.38856E+04 -5.35875E+03  2.00756E+04  2.64365E+03  1.55213E+04  1.36538E+04  1.26367E+04  2.45719E+04
 -6.14197E+03  2.54840E+04 -2.19746E+04  2.16520E+04 -2.81609E+04  4.32071E+03 -2.50056E+04 -1.02073E+04
 -1.08313E+04 -2.16343E+04 -6.20874E+02 -1.50074E+04  4.93564E+03 -1.02969E+04  6.57201E+03 -6.62867E+03
  4.92061E+03 -2.12271E+03  4.32106E+03 -5.11647E+03  6.36422E+03 -4.47880E+03  9.04685E+03 -1.09060E+03
  1.38260E+04  4.07034E+03  5.80853E+03  1.16166E+04 -2.84439E+03  1.51781E+04 -1.25603E+04  1.10378E+04
 -1.74057E+04 -8.23152E+02 -1.13842E+04 -1.15363E+04 -2.14299E+03 -1.91073E+04  1.12317E+04 -1.81010E+04
  1.94404E+04 -9.81075E+03  2.25514E+04  4.19593E+03  1.62310E+04  1.52775E+04  1.08306E+03  2.16270E+04
 -9.21912E+03  1.62964E+04 -1.21346E+04  7.05094E+03 -8.98824E+03 -1.34967E+03 -3.59024E+03 -3.26794E+03
 -2.03578E+03  3.03719E+02 -3.41819E+03  5.75292E+03 -7.09752E+03  4.51694E+03 -1.18752E+04 -2.27320E+03
 -8.47911E+03 -1.17341E+04  1.31665E+03 -1.74359E+04  1.12015E+04 -1.48678E+04  1.67186E+04 -4.92904E+03
  1.72281E+04  9.45368E+03  6.27172E+03  1.59436E+04 -1.41999E+03  1.68615E+04 -1.26165E+04  1.22993E+04
 -1.56373E+04 -4.07585E+02 -1.19801E+04 -1.07372E+04 -1.07641E+03 -1.54424E+04  8.28965E+03 -1.07234E+04
  9.96936E+03 -2.00086E+03  9.65743E+03  3.53715E+03  4.41653E+03  4.50206E+03  3.81358E+03  2.33412E+03
  2.26821E+03  1.12589E+03  4.97368E+03  2.78262E+03  4.46797E+03  3.58429E+03  7.27042E+03  1.04294E+04
 -2.49037E+03  1.56741E+04 -1.09012E+04  1.39396E+04 -2.02923E+04  2.18026E+03 -1.91126E+04 -9.50928E+03
 -1.01981E+04 -1.89043E+04  3.48355E+03 -2.09816E+04  1.12690E+04 -1.33347E+04  1.54329E+04 -7.89165E+02
  1.26475E+04  6.62304E+03  2.19143E+03  1.15426E+04 -4.69483E+03  7.86077E+03 -9.37071E+03 -6.81850E+02
 -6.08923E+03 -9.52811E+03  4.68731E+03 -7.76011E+03  6.88852E+03 -3.16397E+03  6.17660E+03  1.48926E+03
  4.09723E+03  5.00859E+03  5.27460E+02  5.18237E+03  5.92079E+02  4.20973E+03  1.21368E+03 -2.09510E+03
  4.19429E+03 -1.28033E+03  7.47599E+03  3.46988E+03  4.03365E+03  1.03057E+04 -2.27829E+03  1.22658E+04
 -6.89205E+03  1.08769E+04 -1.16933E+04  2.51057E+03 -9.39457E+03 -2.56609E+03 -6.19088E+03 -8.23293E+03
  1.45163E+02 -7.67777E+03  5.46406E+03 -4.20710E+03  2.72468E+03  1.94722E+03 -1.82355E+03  6.40048E+03
 -7.85181E+03  4.59861E+03 -8.00936E+03 -5.03241E+03 -6.88204E+03 -9.41634E+03  2.39543E+03 -1.07348E+04
  5.27203E+03 -7.16124E+03  8.25201E+03 -1.88990E+03  5.86359E+03  1.72206E+03  2.40268E+03  5.31865E+03
 -3.63993E+03  2.70226E+03 -5.09351E+03 -5.18577E+03  1.04427E+03 -6.63184E+03  9.53527E+03 -6.50507E+03
  1.29150E+04  6.19565E+01  1.20610E+04  8.65545E+03  2.39690E+03  1.32589E+04 -4.91594E+03  1.22392E+04
 -1.03858E+04  5.69399E+03 -9.50614E+03 -1.88260E+03 -6.20342E+03 -8.76608E+03  3.02015E+03 -7.96091E+03
  8.14387E+03 -4.12131E+03  7.39635E+03  1.62193E+03  4.21741E+03  7.26264E+03 -2.41478E+03  7.40489E+03
 -3.86231E+03  5.39103E+03 -3.16941E+03  4.01201E+02 -1.49255E+03  2.12851E+03 -1.27267E+03  2.29950E+03
 -1.14505E+03  3.47930E+03 -9.46452E+03  5.14071E+03 -1.22855E+04 -2.62922E+02 -1.65612E+04 -8.60150E+03
 -8.42388E+03 -1.87186E+04  2.96863E+03 -1.90366E+04  1.24072E+04 -1.62553E+04  1.63047E+04 -6.07434E+03
  1.77868E+04  3.53215E+03  1.01860E+04  1.36962E+04  2.22382E+03  1.43971E+04 -6.34401E+03  1.08698E+04
 -7.35091E+03  5.14546E+03 -3.10121E+03 -1.95766E+03 -1.32694E+03 -1.11741E+03 -2.36311E+03 -8.82488E+02
 -2.53281E+03  7.59379E+02 -3.13868E+03 -1.76989E+02 -3.30106E+02 -4.11325E+03  2.12116E+02 -4.23775E+03
  3.63189E+03 -4.50286E+03  9.15748E+03  5.51248E+02  9.39071E+03  7.61672E+03  4.32241E+03  1.38448E+04
 -7.92652E+03  1.45607E+04 -1.59652E+04  8.95030E+03 -1.74178E+04 -4.46086E+02 -1.39751E+04 -9.31124E+03
 -3.99163E+03 -1.42129E+04  1.33476E+03 -1.43099E+04  9.57998E+03 -6.85468E+03  8.91681E+03  1.48049E+02
  5.63629E+03  4.26379E+03 -2.64264E+02  4.69620E+03 -1.32912E+03 -1.07376E+03  7.28335E+02 -3.65988E+03
  4.00784E+03 -3.07079E+03  4.36497E+03  3.19865E+03  4.02408E+03  5.55018E+03 -6.71379E+02  6.97009E+03
 -6.33117E+03  6.25643E+03 -1.12065E+04 -7.95904E+02 -8.47856E+03 -6.02475E+03 -6.98571E+00 -1.30809E+04
  6.50793E+03 -1.12684E+04  1.10535E+04 -2.89806E+03  9.64441E+03  3.78929E+03  7.10737E+03  7.87373E+03
  3.19276E+02  1.08427E+04 -3.07706E+03  9.91586E+03 -7.58877E+03  4.89143E+03 -4.53563E+03  3.56845E+02
 -1.93597E+03 -1.56483E+03 -3.40668E+03  9.87078E+02 -5.17551E+03  2.12461E+03 -6.44712E+03 -2.05216E+03
 -8.36413E+03 -5.30124E+03 -2.14650E+03 -9.91880E+03  3.83023E+03 -1.06278E+04  8.17253E+03 -2.64824E+03
  1.05099E+04  1.17970E+03  6.35713E+03  7.18683E+03  6.32108E+02  1.03669E+04 -6.91509E+03  6.83313E+03
