 $NMID ID='MM_0lb_SNR200_15hz_g55_21.RAW', FMTDAT='(8E13.5)'
 TRAMP=1., VOLUME=1. $END
  3.10428E+05 -4.76481E+02  3.37436E+05  2.50928E+05  8.52790E+04  3.37790E+05 -1.32487E+05  2.51586E+05
 -1.91812E+05  8.30205E+04 -1.11980E+05 -3.25397E+04  9.98727E+02 -5.03253E+04  5.44982E+04 -5.60995E+02
  3.52092E+04  5.27647E+04 -1.62998E+04  7.65711E+04 -6.18742E+04  6.28991E+04 -8.43400E+04  3.14389E+04
 -8.03195E+04 -1.20357E+04 -5.62066E+04 -5.11241E+04 -1.44681E+04 -6.99892E+04  2.71339E+04 -4.72105E+04
  4.08223E+04  3.95356E+03  1.60937E+04  4.82081E+04 -3.50138E+04  4.72108E+04 -6.63743E+04 -2.92439E+01
 -5.41671E+04 -5.65033E+04 -7.71844E+03 -7.79377E+04  3.47927E+04 -5.46611E+04  4.85936E+04 -1.65676E+04
  4.38831E+04  1.09160E+04  3.17260E+04  2.69738E+04  1.51632E+04  2.97989E+04 -4.93877E+03  2.73405E+04
 -2.13699E+04  1.24235E+04 -1.81709E+04 -5.41462E+03  6.32131E+03 -7.83407E+03  2.29925E+04  1.20675E+04
  6.99870E+03  3.48331E+04 -3.26547E+04  3.70254E+04 -6.28056E+04  1.60445E+03 -5.75849E+04 -4.23812E+04
 -1.22384E+04 -6.29710E+04  3.99894E+04 -4.54967E+04  5.81235E+04 -3.07090E+03  3.45418E+04  3.33123E+04
 -6.74938E+03  3.56338E+04 -3.08464E+04  1.48140E+04 -2.94613E+04 -4.89333E+03 -1.64754E+04 -1.06905E+04
 -8.82572E+03 -1.42634E+04  5.97670E+02 -1.75952E+04  6.63308E+03 -2.28821E+04  1.58095E+04 -1.26705E+04
  1.13285E+04  4.89124E+03 -8.72872E+03  1.35990E+04 -2.16790E+04 -3.96400E+03 -8.71909E+03 -3.34088E+04
  2.25815E+04 -4.33995E+04  4.78756E+04 -1.90724E+04  4.56793E+04  2.04824E+04  1.61867E+04  4.50491E+04
 -1.58535E+04  3.29556E+04 -2.47988E+04  1.21887E+03 -1.06338E+04 -2.75078E+04  2.18772E+04 -3.46630E+04
  4.12162E+04 -1.00239E+04  3.53044E+04  2.36350E+04  1.82881E+04  4.61114E+04 -8.74076E+03  4.88975E+04
 -3.20209E+04  3.37736E+04 -4.20360E+04  9.63138E+03 -4.30435E+04 -1.72081E+04 -2.31954E+04 -3.78298E+04
  6.95573E+03 -3.72245E+04  3.06005E+04 -1.48482E+04  2.99797E+04  1.03770E+04  2.85732E+03  1.91537E+04
 -1.29503E+04  8.89140E+03 -1.15678E+04 -7.21689E+03  5.40017E+03 -9.88171E+03  1.80504E+04  6.13194E+03
  1.45561E+04  2.14636E+04 -5.36825E+03  2.47382E+04 -2.29771E+04  1.13677E+04 -2.65847E+04 -4.86597E+03
 -2.06254E+04 -1.77839E+04 -8.01669E+03 -2.07564E+04  4.42060E+03 -2.01660E+04  1.52413E+04 -1.65526E+04
  2.66485E+04 -1.42350E+04  3.29323E+04  1.74574E+03  2.41366E+04  2.06999E+04  4.93364E+03  3.62578E+04
 -1.74794E+04  3.08210E+04 -2.69530E+04  9.48648E+03 -1.95676E+04 -1.00494E+04 -4.45683E+03 -1.39209E+04
  1.45045E+03 -2.36454E+03 -5.52679E+03  6.48500E+03 -1.68353E+04  4.75307E+03 -1.69823E+04 -6.92542E+03
 -9.72118E+03 -1.86198E+04  5.26585E+03 -2.34827E+04  1.50979E+04 -1.58724E+04  1.85009E+04 -1.12199E+03
  1.12331E+04  1.29584E+04 -6.15837E+02  1.99318E+04 -1.19250E+04  1.14551E+04 -1.91401E+04 -3.30163E+03
 -1.53016E+04 -1.69942E+04 -1.19701E+03 -2.14940E+04  1.00566E+04 -1.85204E+04  1.84996E+04 -9.28654E+03
  1.85691E+04 -9.14087E+01  1.21692E+04  4.64116E+03  6.69366E+03  3.29441E+02  8.49233E+03 -1.64346E+03
  1.72065E+04  2.11052E+03  1.86421E+04  1.39956E+04  1.25848E+04  2.98231E+04 -4.35065E+03  3.38871E+04
 -1.86388E+04  2.74753E+04 -3.09340E+04  1.33120E+04 -3.21596E+04 -2.37085E+03 -2.64143E+04 -1.86793E+04
 -1.25669E+04 -2.74150E+04  9.26543E+03 -2.50264E+04  2.16911E+04 -1.26656E+04  1.89919E+04  6.72426E+03
  6.54344E+03  1.54718E+04 -1.00130E+04  1.21130E+04 -1.53335E+04  3.70500E+03 -1.27362E+04 -1.06737E+04
  1.71130E+02 -1.53836E+04  8.92837E+03 -1.15803E+04  9.69057E+03 -7.77964E+02  2.69058E+03  5.31189E+03
 -6.57815E+03  2.13487E+03 -5.54425E+03 -5.04983E+03 -2.61237E+01 -1.28804E+04  1.00691E+04 -1.35905E+04
  1.65454E+04 -7.23673E+03  1.80878E+04  3.05016E+03  1.56462E+04  1.34920E+04  5.47455E+03  1.89733E+04
 -4.17217E+03  2.14324E+04 -1.41107E+04  1.34935E+04 -1.60814E+04  2.48098E+03 -1.12771E+04 -4.30947E+03
 -4.34289E+03 -4.62503E+03 -7.46098E+02  3.70687E+01 -2.03924E+03  3.04942E+03 -5.09910E+03  4.58786E+03
 -9.70842E+03  1.41271E+02 -1.20477E+04 -9.50908E+03 -5.69935E+03 -1.44461E+04  5.22590E+03 -1.19146E+04
  9.83775E+03 -6.08385E+03  7.09662E+03  2.78951E+03 -1.19813E+03  4.04194E+03 -5.74463E+03 -2.03578E+02
 -6.01434E+03 -7.54098E+03 -8.33074E+02 -1.08713E+04  5.74073E+03 -1.13857E+04  1.48355E+04 -6.54041E+03
  1.52328E+04  4.00196E+02  1.20944E+04  8.65124E+03  1.60070E+03  1.28952E+04 -7.25370E+03  1.08631E+04
 -8.99859E+03  3.67380E+03 -5.27853E+03 -1.41357E+03  2.09996E+03 -3.25499E+03  6.95802E+03 -3.74582E+02
  6.16135E+03  5.34060E+03  1.78186E+03  9.28228E+03 -6.92906E+03  7.36481E+03 -1.07729E+04  2.21437E+03
 -7.03134E+03 -4.21720E+03  2.76602E+02 -8.46103E+03  5.84465E+03 -4.08016E+03  6.50387E+03  2.48175E+03
  4.58159E+02  5.99786E+03 -5.01969E+03  7.61523E+03 -8.86754E+03  3.75637E+03 -8.27998E+03 -2.62979E+03
 -3.92806E+03 -8.56915E+03  1.13204E+03 -1.19314E+04  9.50897E+03 -7.41566E+03  1.03176E+04  1.57200E+03
  5.97742E+03  7.12615E+03  2.44303E+02  9.99415E+03 -6.35048E+03  5.93320E+03 -8.66519E+03 -6.03014E+02
 -6.27391E+03 -8.09994E+03 -2.05644E+03 -6.87140E+03  2.99492E+03 -6.59232E+03  3.46840E+03 -2.65944E+03
  3.33135E+03  4.89547E+02 -4.67153E+02  1.71958E+03  3.39361E+00 -1.88756E+03  8.39937E+02 -3.92441E+03
  5.90723E+03 -1.72747E+03  8.37158E+03  1.34111E+03  9.84591E+03  4.58995E+03  5.97425E+03  1.24657E+04
 -3.10145E+03  1.35754E+04 -1.21817E+04  1.04666E+04 -1.43380E+04  2.42266E+03 -1.18392E+04 -5.68073E+03
 -6.59916E+03 -1.00610E+04  3.26516E+02 -7.66038E+03  4.82114E+03 -3.56997E+03  2.82987E+03 -2.51637E+03
  1.76974E+03 -2.98282E+03  2.78786E+02 -3.54383E+03  5.48791E+03 -1.90482E+03  5.65350E+03 -9.08691E+02
  7.41121E+03  2.21566E+03  2.45175E+03  5.02707E+03 -1.65240E+03  4.66669E+03 -6.19812E+03  4.81760E+03
 -7.97892E+03 -2.17042E+03 -3.55692E+03 -3.94631E+03 -7.52735E+02 -9.19639E+03  4.54805E+03 -9.15591E+03
  8.87119E+03 -4.77370E+03  9.98305E+03  3.30605E+02  7.82511E+03  8.44289E+03  2.96962E+03  8.16112E+03
 -3.64003E+03  8.77280E+03 -5.52068E+03  3.40036E+03 -3.29673E+03 -5.92665E+02 -1.42547E+03 -1.46107E+03
 -1.28382E+03  2.03054E+03 -1.54190E+03  1.04633E+03 -3.61529E+03  7.17263E+02 -6.01174E+03 -1.60512E+03
 -4.00796E+03 -5.98106E+03  1.61417E+03 -7.16908E+03  3.70648E+03 -7.41497E+03  6.31407E+03 -1.24776E+03
  8.87192E+03  3.49722E+03  2.44522E+03  5.90511E+03 -6.44504E+02  7.99645E+03 -5.35531E+03  3.63042E+03
 -5.49412E+03  1.41694E+03 -3.91925E+03 -3.54809E+03 -1.04699E+03 -6.45429E+03  2.08746E+03 -2.99698E+03
  4.68276E+03 -2.05943E+03  1.50606E+03  1.69570E+03  9.85417E+02  2.96851E+03  4.75659E+02  8.76176E+02
  1.74459E+03  1.65040E+03  1.57644E+03  1.19452E+03  2.18334E+03  2.63310E+03  2.03337E+03  3.53802E+03
 -2.73272E+03  6.20262E+03 -3.00554E+03  6.15137E+03 -6.67114E+03  1.28712E+03 -7.82640E+03 -2.98011E+03
 -3.36065E+03 -6.11505E+03  1.60914E+03 -7.64258E+03  3.66683E+03 -6.12698E+03  5.61186E+03 -1.46653E+03
  2.66803E+03  2.74865E+03  1.33811E+03  3.57529E+03 -2.39359E+03  1.00169E+03 -1.25048E+03  8.53503E+02
 -8.04312E+02 -3.00863E+03  1.94079E+03 -2.82384E+03  2.67643E+03 -2.25038E+03  3.28992E+03  9.62951E+02
  1.97207E+03  6.97204E+02  8.83049E+02  3.10881E+02  5.05733E+02  4.87759E+02  1.10415E+03  2.46637E+02
  9.48232E+02 -1.18633E+03  2.22314E+03  5.81619E+01  4.84664E+02  3.73595E+03  3.49117E+02  5.71884E+03
 -2.75376E+03  3.05398E+03 -3.57395E+03 -1.62706E+02 -2.89693E+03 -2.24726E+02 -8.53390E+02 -1.82844E+03
  1.87549E+03 -1.53936E+03  1.55087E+03 -1.29011E+03  2.24298E+03  1.08394E+03 -1.19952E+03  2.69640E+03
 -3.46408E+03  1.56998E+03 -2.98300E+03 -3.12435E+03 -1.37075E+03 -3.61230E+03 -8.22434E+02 -4.01564E+03
  1.73935E+03 -1.58315E+03  1.08028E+03 -2.94969E+02  1.81995E+03  1.04257E+02  4.35323E+02  1.42808E+03
 -5.53948E+02  3.40084E+02 -1.43960E+03 -5.52111E+02  1.79970E+03 -2.38021E+03  3.82793E+03 -1.95482E+03
  3.11401E+03  5.50304E+02  3.32791E+03  1.27939E+03  1.56762E+03  4.02835E+03 -1.48528E+03  4.38296E+03
 -3.30895E+03  1.62146E+03 -4.57630E+03 -2.17265E+02  6.10465E+01 -3.29687E+03  6.35380E+02 -1.83337E+03
  3.19368E+03 -1.59401E+03  1.50555E+03  1.74796E+03  8.97332E+02  2.62399E+03  6.21575E+02  1.19710E+03
 -9.82541E+02  1.51988E+03 -9.49148E+02  6.77281E+02  7.08036E+02  2.04991E+02 -1.76314E+03  9.88825E+02
 -5.37604E+01  1.83102E+03 -2.16957E+03  1.74310E+03 -2.62469E+03 -2.23988E+02 -3.67970E+03 -2.70380E+03
 -2.41181E+03 -5.07194E+03  6.75294E+02 -6.96995E+03  2.53234E+03 -3.89303E+03  5.10774E+03 -1.65037E+03
  5.33287E+03 -1.85191E+02  2.09866E+03  2.43621E+03  7.47135E+01  4.38234E+03 -1.70644E+03  2.24861E+03
 -2.03268E+03  1.80535E+03 -1.15265E+03  2.25665E+02 -3.08952E+02 -2.05107E+01  4.82258E+02  8.17292E+02
 -1.64894E+03 -5.75814E+02 -4.78688E+02 -5.81883E+02  1.57737E+03 -9.52750E+02 -3.32591E+02 -1.30854E+03
  2.14427E+03 -6.20863E+02  1.88258E+03 -7.28734E+01  1.58859E+03  2.15340E+03  9.73120E+02  4.02370E+03
 -1.61988E+03  4.69930E+03 -3.24640E+03  1.15110E+03 -4.14127E+03  5.47876E+01 -2.13990E+03 -2.25154E+03
 -1.38833E+03 -2.94239E+03  1.61782E+03 -2.59674E+03  1.29631E+03  1.09919E+02  1.42427E+03 -2.80064E+02
  1.93970E+03  6.13650E+02  1.92143E+02 -8.74990E+01 -5.17154E+02  1.36514E+02 -6.48325E+02 -1.24405E+03
  1.32650E+03 -7.88981E+02  1.34146E+03  1.36948E+03  5.97464E+02  1.18589E+03  2.97761E+02  2.33390E+03
 -2.78641E+03  1.85577E+03 -1.82339E+03 -2.44039E+02 -1.75693E+03  2.05441E+02  6.19565E+02 -2.71308E+03
  1.20929E+03 -1.65622E+03  1.34760E+03  2.15474E+02  1.94295E+03  1.88824E+02  2.21118E+03  1.10646E+03
  1.53184E+02  9.07675E+02 -8.46971E+02  1.41112E+03 -2.59667E+03  8.22932E+02 -1.44087E+03 -3.01254E+02
 -3.50014E+02 -7.25000E+02 -8.35118E+02 -6.98157E+00 -1.17292E+03  5.57563E+02 -2.39456E+03 -1.37123E+03
 -1.56396E+03 -2.44556E+03 -2.84553E+02 -2.66516E+03 -3.03197E+02 -2.49643E+03  1.79003E+03 -5.50271E+02
  1.55986E+03  7.55707E+02  1.09419E+03  5.21281E+02  9.17083E+02  2.38789E+03 -1.76057E+03  7.63688E+02
