 $NMID ID='MM_0lb_SNR200_11hz_g55_17.RAW', FMTDAT='(8E13.5)'
 TRAMP=1., VOLUME=1. $END
  3.10053E+05  5.71346E+02  3.38492E+05  2.51237E+05  8.52261E+04  3.38403E+05 -1.32043E+05  2.52295E+05
 -1.91097E+05  8.25472E+04 -1.12580E+05 -3.22583E+04 -8.68039E+02 -5.10339E+04  5.39046E+04 -1.33567E+03
  3.55002E+04  5.28460E+04 -1.89294E+04  7.55204E+04 -6.08700E+04  6.40337E+04 -8.56924E+04  3.30007E+04
 -8.18278E+04 -1.27290E+04 -5.74329E+04 -5.25248E+04 -1.46472E+04 -6.88310E+04  2.80130E+04 -4.65169E+04
  4.05718E+04  2.94295E+03  1.55528E+04  4.78018E+04 -3.60027E+04  4.90721E+04 -6.90256E+04 -3.20948E+01
 -5.55183E+04 -5.67639E+04 -7.34881E+03 -7.90571E+04  3.47708E+04 -5.63740E+04  4.90480E+04 -1.75519E+04
  4.42897E+04  1.05408E+04  3.24730E+04  2.60145E+04  1.49844E+04  3.11596E+04 -5.77047E+03  2.70676E+04
 -2.18817E+04  1.34375E+04 -1.85031E+04 -4.31026E+03  6.31192E+03 -8.95826E+03  2.39208E+04  1.29635E+04
  7.19748E+03  3.61880E+04 -3.39130E+04  3.78791E+04 -6.41863E+04  1.50869E+03 -5.74900E+04 -4.28643E+04
 -1.21356E+04 -6.43796E+04  4.09306E+04 -4.65610E+04  6.20247E+04 -4.21190E+03  3.64971E+04  3.32394E+04
 -5.37931E+03  3.84319E+04 -3.09686E+04  1.72438E+04 -3.17447E+04 -3.09178E+03 -1.90303E+04 -1.15463E+04
 -1.11407E+04 -1.36183E+04 -1.18324E+03 -1.98300E+04  8.77198E+03 -2.36899E+04  1.63541E+04 -1.30065E+04
  9.89452E+03  5.98176E+03 -1.01332E+04  1.13798E+04 -2.30319E+04 -5.96948E+03 -6.64573E+03 -3.51029E+04
  2.61098E+04 -4.80169E+04  5.14905E+04 -2.10505E+04  4.81187E+04  1.99773E+04  1.83468E+04  4.70246E+04
 -1.45787E+04  3.42084E+04 -2.67217E+04  2.22530E+03 -1.15916E+04 -2.86447E+04  2.05427E+04 -3.61538E+04
  4.34901E+04 -1.11908E+04  3.93546E+04  2.50241E+04  2.14714E+04  4.98158E+04 -8.41524E+03  5.46267E+04
 -3.38992E+04  3.77713E+04 -4.63518E+04  1.16092E+04 -4.77042E+04 -1.67934E+04 -2.52429E+04 -4.06893E+04
  7.63937E+03 -4.11883E+04  3.32483E+04 -1.59806E+04  3.12824E+04  9.96305E+03  5.40227E+03  2.02893E+04
 -1.35637E+04  9.52324E+03 -1.28198E+04 -8.28518E+03  4.25940E+03 -1.15520E+04  1.82688E+04  5.67175E+03
  1.32265E+04  2.30299E+04 -6.00400E+03  2.59486E+04 -2.21030E+04  1.22793E+04 -2.98590E+04 -3.60914E+03
 -2.39754E+04 -1.74849E+04 -1.05967E+04 -2.47174E+04  3.03927E+03 -2.44141E+04  1.89252E+04 -2.28990E+04
  2.98031E+04 -1.41526E+04  3.71254E+04  5.46184E+03  2.72910E+04  2.26554E+04  4.04195E+03  3.90404E+04
 -2.05427E+04  3.56428E+04 -2.92674E+04  1.22265E+04 -2.27047E+04 -8.82539E+03 -5.02067E+03 -1.26934E+04
  1.24740E+03 -1.63128E+03 -6.80246E+03  7.15562E+03 -1.89158E+04  5.21618E+03 -1.80052E+04 -8.17099E+03
 -1.05687E+04 -2.22987E+04  5.68561E+03 -2.70762E+04  1.67990E+04 -1.91631E+04  2.18471E+04 -2.24140E+03
  1.19123E+04  1.50169E+04 -1.56908E+03  2.14687E+04 -1.57248E+04  1.26886E+04 -2.30067E+04 -5.01374E+03
 -1.68539E+04 -1.90530E+04 -2.03065E+03 -2.53925E+04  1.18086E+04 -2.15959E+04  2.23881E+04 -1.13838E+04
  1.98747E+04 -6.83142E+02  1.37370E+04  6.06185E+03  8.61179E+03  2.23651E+03  1.18027E+04 -2.97810E+03
  1.97493E+04  2.96710E+03  2.35991E+04  1.68663E+04  1.54679E+04  3.42290E+04 -3.56902E+03  4.11156E+04
 -2.41405E+04  3.50854E+04 -3.79800E+04  1.82430E+04 -4.03527E+04 -2.85189E+03 -3.32051E+04 -2.37971E+04
 -1.45847E+04 -3.49429E+04  1.07514E+04 -3.00194E+04  2.61736E+04 -1.38206E+04  2.33822E+04  6.71933E+03
  8.02567E+03  1.81827E+04 -1.08652E+04  1.59428E+04 -1.97290E+04  1.89604E+03 -1.48779E+04 -1.22847E+04
 -6.11227E+02 -1.74767E+04  8.45568E+03 -1.28605E+04  1.22506E+04 -1.73060E+03  3.77689E+03  8.31261E+03
 -9.07905E+03  3.47882E+03 -8.05992E+03 -7.04187E+03 -1.89433E+03 -1.65905E+04  1.18911E+04 -1.91296E+04
  2.11466E+04 -1.08663E+04  2.41445E+04  2.02288E+03  2.03415E+04  1.65014E+04  1.00958E+04  2.59318E+04
 -5.18932E+03  2.83765E+04 -1.95168E+04  1.70603E+04 -2.10059E+04  2.53972E+03 -1.24714E+04 -6.58936E+03
 -6.51130E+03 -7.31061E+03 -1.04104E+03  5.16606E+02 -1.80986E+03  2.81003E+03 -5.97335E+03  4.77237E+03
 -1.38521E+04 -6.51842E+02 -1.50107E+04 -1.14801E+04 -6.47072E+03 -1.81385E+04  6.79794E+03 -1.35274E+04
  1.20315E+04 -5.97872E+03  7.11063E+03  4.66920E+03  1.10233E+02  4.79474E+03 -5.95939E+03  1.03494E+03
 -6.38165E+03 -7.84717E+03 -4.75786E+02 -1.26598E+04  7.78027E+03 -1.39675E+04  1.75162E+04 -6.37285E+03
  2.07615E+04  3.19026E+03  1.61693E+04  1.08937E+04  2.29989E+03  1.55042E+04 -7.82833E+03  1.41959E+04
 -1.14917E+04  5.06672E+03 -4.42754E+03 -1.95228E+03  1.11945E+03 -3.32337E+03  6.68643E+03 -1.42156E+03
  6.28003E+03  6.34361E+03  1.62008E+03  9.85022E+03 -8.02847E+03  1.00787E+04 -1.45041E+04  3.91639E+03
 -9.40188E+03 -6.86111E+03  1.82640E+03 -1.19150E+04  6.78750E+03 -5.89860E+03  7.77092E+03  2.43966E+03
  2.18829E+03  8.76329E+03 -9.55328E+03  1.00560E+04 -1.08829E+04  5.22327E+03 -1.19495E+04 -4.29681E+03
 -6.60165E+03 -1.31933E+04  2.76433E+03 -1.50721E+04  1.30114E+04 -1.01823E+04  1.51809E+04  3.11709E+03
  9.37835E+03  1.24725E+04 -8.72437E+02  1.46081E+04 -9.48026E+03  9.45308E+03 -1.11714E+04 -6.00966E+02
 -9.67729E+03 -8.84566E+03 -1.01730E+02 -1.06339E+04  5.99179E+03 -8.16459E+03  7.25301E+03 -2.96267E+03
  4.58136E+03  1.02577E+03 -1.55858E+03  1.31396E+03  6.82824E+02 -3.02905E+03  1.95904E+03 -4.80398E+03
  8.43742E+03 -4.68291E+03  1.40535E+04  1.83673E+03  1.40273E+04  1.01472E+04  8.61563E+03  1.65917E+04
 -5.38138E+03  2.08430E+04 -1.67396E+04  1.56087E+04 -2.23020E+04  3.67517E+03 -1.85592E+04 -7.12866E+03
 -8.59474E+03 -1.40899E+04  7.32130E+02 -1.20462E+04  4.43656E+03 -6.46400E+03  4.84471E+03 -5.46272E+03
  2.75775E+03 -1.11142E+03  3.07446E+03 -3.17979E+03  5.51255E+03 -2.09478E+03  5.75740E+03 -1.77101E+03
  8.53727E+03  1.96635E+03  4.29554E+03  7.35798E+03 -1.46312E+03  8.95971E+03 -1.00621E+04  7.97974E+03
 -1.05294E+04 -5.70190E+02 -8.09108E+03 -8.52974E+03 -5.28581E+02 -1.36971E+04  6.93615E+03 -1.38941E+04
  1.42689E+04 -6.86836E+03  1.80425E+04  2.74555E+03  1.19018E+04  1.06840E+04  8.51349E+02  1.53939E+04
 -6.50888E+03  1.21544E+04 -9.03122E+03  5.72307E+03 -5.47497E+03 -2.80475E+03 -2.55168E+03 -1.49905E+03
  2.23172E+02  1.10167E+02 -1.59769E+03  3.07791E+03 -6.13770E+03  2.39170E+03 -8.99588E+03 -7.35433E+02
 -4.84509E+03 -9.74956E+03 -2.11802E+02 -1.33538E+04  7.57608E+03 -9.97196E+03  1.24786E+04 -4.40533E+03
  1.24414E+04  5.98503E+03  5.06961E+03  1.22238E+04 -1.57871E+03  1.17207E+04 -9.70169E+03  8.19817E+03
 -1.14509E+04 -1.76324E+02 -9.16245E+03 -6.72399E+03 -1.14485E+03 -1.05785E+04  4.90546E+03 -7.06259E+03
  6.90121E+03 -2.92273E+03  4.82436E+03  1.88209E+03  9.80358E+02  3.89384E+03 -1.25214E+02  2.13862E+03
  2.36683E+03  2.43450E+02  3.85316E+03  2.80658E+03  2.38716E+03  4.40250E+03  3.25567E+03  5.62259E+03
 -3.40305E+03  9.35733E+03 -8.76054E+03  9.62297E+03 -1.08310E+04  2.64244E+03 -1.26733E+04 -5.16798E+03
 -6.82680E+03 -1.17692E+04  3.70899E+02 -1.33825E+04  7.11345E+03 -6.97734E+03  9.01691E+03 -2.03707E+03
  7.85359E+03  5.05782E+03  7.21878E+01  6.96348E+03 -1.80708E+03  3.71454E+03 -4.82466E+03 -1.53606E+03
 -2.18703E+03 -3.85635E+03  2.16831E+03 -4.34339E+03  5.43660E+03 -2.96925E+03  4.04336E+03  1.96319E+03
  4.87164E+03  3.17765E+03  1.12867E+03  2.96020E+03 -1.81180E+03  2.76801E+03  1.80967E+03  1.03104E+03
  1.30132E+03  4.01875E+01  6.29910E+03  2.47460E+03  1.45640E+03  6.75410E+03 -1.81019E+03  8.07576E+03
 -5.48445E+03  4.60827E+03 -7.40133E+03  1.43517E+02 -5.80829E+03 -2.00372E+03 -2.78092E+03 -4.06054E+03
  3.44463E+01 -4.45424E+03  3.29693E+03 -3.58868E+03  3.14402E+03  2.44655E+03 -2.58672E+03  3.77542E+03
 -6.14436E+03  1.01427E+03 -4.91635E+03 -3.15104E+03 -4.08760E+03 -6.80737E+03  2.14692E+03 -7.31089E+03
  3.20748E+03 -3.88386E+03  3.83361E+03 -6.38740E+02  4.93724E+03  1.01648E+03  5.51635E+02  4.29046E+03
 -3.34920E+03  1.96122E+03 -3.63249E+03 -4.23123E+02  8.96706E+02 -4.86868E+03  5.79670E+03 -4.94126E+03
  6.60266E+03  7.21042E+02  7.52745E+03  5.05676E+03  1.29719E+03  8.04468E+03 -3.09358E+03  7.11955E+03
 -6.96254E+03  3.89165E+03 -6.18749E+03 -1.71749E+03 -4.06240E+03 -2.69189E+03 -9.61971E+02 -3.46539E+03
  4.31491E+03 -4.17301E+03  3.65156E+03  2.38389E+03  1.37983E+03  5.38683E+03 -1.92656E+02  3.70518E+03
 -1.48504E+03  3.22286E+03 -6.70409E+02  2.20088E+03 -5.86318E+02 -1.26808E+02 -2.46694E+03  1.47709E+03
 -2.07602E+03  1.72085E+03 -5.78918E+03  1.66885E+03 -6.79452E+03  2.91204E+00 -8.48368E+03 -4.95484E+03
 -5.55732E+03 -8.74302E+03  3.39470E+02 -1.16215E+04  6.72450E+03 -9.52407E+03  1.03851E+04 -3.32633E+03
  1.02642E+04  1.63446E+03  5.94423E+03  5.48644E+03  5.64432E+02  8.44906E+03 -3.17875E+03  5.70165E+03
 -4.08306E+03  2.86477E+03 -3.09718E+03 -1.52649E+03 -7.85222E+02 -1.58485E+03 -4.65900E+02 -2.31706E+02
 -1.87466E+03  1.22233E+03 -1.03781E+03 -8.33177E+02  3.22174E+02 -1.65702E+03 -1.46389E+03 -3.19268E+03
  3.66979E+03 -3.36382E+03  4.18457E+03 -8.54358E+01  5.27119E+03  4.03766E+03  9.03620E+02  8.03524E+03
 -4.35206E+03  9.40921E+03 -6.76527E+03  6.19302E+03 -9.34422E+03 -1.98077E+02 -5.74150E+03 -6.10904E+03
 -4.27197E+03 -7.13709E+03  1.40353E+03 -5.87717E+03  4.37355E+03 -2.48968E+03  4.94311E+03 -1.55202E+02
  3.92970E+03  8.50222E+02 -2.64269E+01  1.47316E+03 -1.42229E+03 -7.73623E+02  4.26544E+02 -1.49479E+03
  4.07517E+03 -1.17353E+02  4.05960E+03  1.42434E+03  2.85902E+03  1.70579E+03 -3.30106E+02  3.19471E+03
 -3.49220E+03  3.60998E+03 -6.18087E+03  8.72320E+01 -4.70714E+03 -2.51102E+03  2.52058E+02 -5.43283E+03
  3.78054E+03 -5.08875E+03  5.39856E+03 -3.06603E+02  4.64374E+03  1.16654E+03  2.03716E+03  5.32049E+03
 -1.43200E+02  3.40182E+03  1.24536E+02  4.64056E+03 -2.96251E+03  2.01290E+03 -2.23778E+03  5.43479E+02
 -2.11624E+03 -7.83926E+02 -1.37173E+03  1.00928E+01 -3.40980E+03  1.99353E+03 -2.67485E+03 -3.18469E+02
 -2.73336E+03 -1.12418E+03 -2.05814E+03 -5.07707E+03  2.13549E+03 -5.89331E+03  4.70242E+03 -2.65292E+03
  4.20130E+03  1.00329E+03  2.69957E+03  4.01884E+03 -7.52149E+02  2.89161E+03 -4.75362E+03  3.84723E+03
