 $NMID ID='MM_0lb_SNR200_20hz_g50_71.RAW', FMTDAT='(8E13.5)'
 TRAMP=1., VOLUME=1. $END
  3.09898E+05  5.74498E+02  3.37644E+05  2.50247E+05  8.45846E+04  3.39085E+05 -1.32210E+05  2.50630E+05
 -1.89063E+05  8.29208E+04 -1.10982E+05 -3.25151E+04  2.02070E+03 -5.04444E+04  5.39254E+04 -8.48754E-01
  3.58513E+04  5.28831E+04 -1.59903E+04  7.50499E+04 -6.07833E+04  6.22370E+04 -8.06207E+04  3.15420E+04
 -7.99101E+04 -1.15426E+04 -5.63325E+04 -5.09601E+04 -1.54461E+04 -6.78182E+04  2.71228E+04 -4.48808E+04
  3.90902E+04  2.34437E+03  1.55621E+04  4.68533E+04 -3.38418E+04  4.69465E+04 -6.59187E+04 -1.36465E+03
 -5.19136E+04 -5.63642E+04 -7.18651E+03 -7.48353E+04  3.41919E+04 -5.25473E+04  4.55138E+04 -1.69660E+04
  4.11630E+04  1.14509E+04  3.09917E+04  2.45986E+04  1.57577E+04  2.86910E+04 -5.25406E+03  2.71244E+04
 -2.10179E+04  1.27120E+04 -1.86484E+04 -4.59897E+03  3.45654E+03 -7.71833E+03  2.07671E+04  1.17833E+04
  7.90525E+03  3.41510E+04 -3.05684E+04  3.33918E+04 -6.15200E+04  2.60688E+03 -5.48259E+04 -4.09387E+04
 -1.26839E+04 -5.99644E+04  3.80485E+04 -4.30230E+04  5.60507E+04 -1.84175E+03  3.22265E+04  3.15737E+04
 -6.91820E+03  3.27641E+04 -2.88165E+04  1.29718E+04 -2.65534E+04 -5.39504E+03 -1.42589E+04 -9.98216E+03
 -7.28631E+03 -1.08648E+04 -1.48459E+03 -1.61434E+04  6.61617E+03 -2.22085E+04  1.45632E+04 -1.47768E+04
  1.11684E+04  5.03338E+03 -5.63590E+03  1.28685E+04 -1.84947E+04 -2.04558E+03 -7.77143E+03 -2.94722E+04
  2.01109E+04 -4.05950E+04  4.41840E+04 -1.81977E+04  4.11393E+04  1.89155E+04  1.33957E+04  4.14998E+04
 -1.48171E+04  3.10268E+04 -2.29103E+04  1.73218E+03 -7.81815E+03 -2.64590E+04  2.07366E+04 -3.14656E+04
  3.69768E+04 -7.46141E+03  3.11894E+04  2.15874E+04  1.47223E+04  4.18302E+04 -7.85282E+03  4.49760E+04
 -2.80187E+04  2.98278E+04 -3.78033E+04  8.89460E+03 -3.75870E+04 -1.50403E+04 -2.04709E+04 -3.43462E+04
  6.49831E+03 -3.27595E+04  2.79224E+04 -1.23458E+04  2.74355E+04  1.02478E+04  3.00809E+03  1.76525E+04
 -1.44267E+04  7.04725E+03 -1.13325E+04 -7.20729E+03  6.32922E+03 -1.06681E+04  1.66429E+04  6.37008E+03
  1.19189E+04  2.14818E+04 -7.54400E+03  2.30384E+04 -2.23262E+04  8.38742E+03 -2.46659E+04 -6.88920E+03
 -1.62443E+04 -1.64384E+04 -4.71193E+03 -1.57293E+04  4.01208E+03 -1.43238E+04  1.24157E+04 -1.32048E+04
  1.99503E+04 -1.15400E+04  2.75587E+04  1.10635E+03  2.09701E+04  1.64255E+04  3.76198E+03  3.14215E+04
 -1.47904E+04  2.61527E+04 -2.59652E+04  8.76087E+03 -1.89351E+04 -9.99012E+03 -3.93938E+03 -1.39756E+04
  2.82644E+03 -5.11027E+03 -2.26877E+03  4.41327E+03 -1.24639E+04  4.76867E+03 -1.24759E+04 -5.34771E+03
 -8.09947E+03 -1.55899E+04  4.09276E+03 -1.95718E+04  1.20254E+04 -1.36327E+04  1.25229E+04 -9.31106E+02
  8.07365E+03  1.12430E+04 -9.67305E+02  1.54813E+04 -8.44748E+03  8.21862E+03 -1.47423E+04 -2.28734E+03
 -1.13276E+04 -1.34365E+04 -5.32963E+02 -1.78949E+04  8.52468E+03 -1.51452E+04  1.45776E+04 -5.90071E+03
  1.43621E+04  8.89472E+02  9.83287E+03  3.97763E+03  5.42441E+03  9.51628E+02  7.61124E+03 -5.95222E+02
  1.44066E+04  1.81604E+03  1.32246E+04  1.23901E+04  8.33707E+03  2.42178E+04 -2.90948E+03  2.46816E+04
 -1.45792E+04  1.89347E+04 -2.30598E+04  9.19529E+03 -2.27677E+04 -1.77382E+03 -2.04985E+04 -1.42411E+04
 -9.69114E+03 -1.86407E+04  5.75363E+03 -1.78665E+04  1.59757E+04 -1.00658E+04  1.57302E+04  3.39508E+03
  6.78127E+03  9.41438E+03 -7.12938E+03  1.03940E+04 -1.29721E+04  2.73518E+03 -1.06110E+04 -7.28611E+03
  8.74427E+02 -1.08556E+04  5.71697E+03 -9.30835E+03  7.43060E+03 -9.20065E+02  1.03725E+03  4.30903E+03
 -5.49786E+03  1.41380E+03 -3.39523E+03 -3.80576E+03  9.12888E+02 -9.43681E+03  7.63041E+03 -9.35432E+03
  1.12082E+04 -3.57907E+03  1.06818E+04  2.60687E+03  9.07819E+03  8.66465E+03  4.04301E+03  1.29438E+04
 -8.89061E+02  1.37571E+04 -8.21926E+03  8.90850E+03 -1.05142E+04  2.51481E+03 -7.84219E+03 -1.46630E+03
 -3.94266E+03 -3.54367E+03 -9.89472E+02  2.49111E+03 -1.81501E+03  7.87280E+02 -3.60822E+03  3.81642E+03
 -7.18559E+03  1.14215E+02 -8.59873E+03 -7.83095E+03 -3.04150E+03 -1.04367E+04  2.79186E+03 -7.18968E+03
  6.81929E+03 -4.35353E+03  4.14437E+03  1.16861E+03  6.27139E+02  2.94585E+03 -3.59624E+03  7.15380E+01
 -4.17670E+03 -4.82459E+03 -2.94935E+02 -6.11863E+03  3.48647E+03 -7.39760E+03  8.49096E+03 -4.06519E+03
  1.14759E+04 -1.72400E+02  7.63143E+03  4.95228E+03  2.63729E+03  7.84087E+03 -4.30982E+03  6.96865E+03
 -6.80462E+03  1.14099E+03 -3.63679E+03 -1.78162E+03  1.47742E+03 -1.36647E+03  4.47578E+03 -1.23955E+03
  3.73655E+03  3.54703E+03  1.01201E+03  4.66748E+03 -3.67255E+03  6.21534E+03 -7.12201E+03  1.26747E+03
 -4.20536E+03 -3.76326E+03  1.30911E+02 -5.37653E+03  3.61882E+03 -2.79023E+03  2.78376E+03  1.14241E+03
 -7.43300E+02  2.13246E+03 -3.40624E+03  4.22238E+03 -3.94933E+03  1.70703E+03 -3.05514E+03 -2.40953E+02
 -2.84910E+03 -4.92781E+03  9.15117E+02 -5.78586E+03  5.22429E+03 -4.97590E+03  4.91793E+03  8.52345E+02
  3.27450E+03  5.01424E+03  6.28932E+02  6.66188E+03 -4.71920E+03  3.53245E+03 -4.41131E+03 -1.61593E+03
 -5.57057E+03 -4.43192E+03 -1.99415E+03 -3.62582E+03  1.53984E+03 -3.61839E+03  2.60360E+03 -2.15495E+03
  3.14531E+03 -2.35953E+02  8.95053E+02  4.72461E+02  4.37938E+02 -5.90407E+02  1.28552E+03 -1.72064E+03
  4.45499E+03 -6.19029E+02  3.92208E+03  3.05283E+02  5.09834E+03  3.08108E+03  5.32585E+03  7.13525E+03
 -2.54406E+02  6.44171E+03 -6.82648E+03  5.99210E+03 -9.10837E+03  6.45263E+02 -6.40433E+03 -3.11665E+03
 -3.77798E+03 -5.81023E+03 -3.60056E+02 -5.89156E+03  1.32348E+03 -2.76479E+03  1.01040E+03 -1.89860E+03
  1.65853E+03 -1.26290E+03  1.38863E+03 -2.63850E+03  2.22493E+03 -1.83437E+03  3.23763E+03  1.13927E+03
  3.37123E+03  8.34354E+02  1.14854E+03  2.53523E+03 -1.10403E+03  9.81473E+02 -3.86114E+03  2.68748E+03
 -4.23320E+03 -1.04988E+03 -2.43044E+03 -2.07455E+03  2.88690E+02 -4.03927E+03  3.68914E+03 -3.71209E+03
  3.86750E+03 -3.43053E+03  6.15347E+03  3.31144E+02  3.37161E+03  3.64415E+03  7.27103E+02  5.14286E+03
 -1.58689E+03  5.24972E+03 -3.19928E+03  1.72920E+03 -1.31822E+03 -1.68889E+03 -3.16111E+02  7.35233E+01
 -5.36381E+02  1.73824E+02 -1.65257E+03  2.34248E+03 -1.92203E+03  2.00355E+03 -3.84531E+03 -1.91187E+02
 -4.05750E+02 -3.42400E+03  4.65410E+02 -3.24869E+03  1.84104E+03 -3.25814E+03  2.40712E+03  6.96935E+01
  2.49620E+03  1.30931E+03  1.20090E+03  2.68973E+03 -1.12061E+03  3.27883E+03 -2.20179E+03  1.83321E+03
 -2.69990E+03  3.68651E+02 -2.61047E+03 -1.53551E+03  8.73990E+02 -1.87074E+03  1.63707E+03 -2.20468E+03
  2.41016E+03 -1.37836E+03  1.88900E+03  5.78446E+02  4.94228E+02  1.24943E+03  3.66275E+02 -7.14793E+01
  1.44139E+03 -7.28189E+02  1.18301E+03  3.02358E+02  3.32502E+02  1.31811E+03  1.90166E+03  9.68044E+02
 -1.13567E+03  3.04884E+03 -2.25479E+03  3.19761E+03 -2.05374E+03  7.56764E+02 -3.46692E+03  7.63952E+02
 -2.38349E+03 -2.52770E+03 -3.20581E+02 -3.32805E+03  7.59684E+02 -2.67049E+03  1.94096E+03 -6.15407E+02
  2.19912E+03  2.07163E+03  5.77091E+02  1.56256E+03 -1.15487E+03  3.47218E+02 -5.63863E+02 -3.86658E+02
  1.66524E+02 -1.10584E+03  5.99376E+02 -1.30511E+03  1.41938E+03 -5.57813E+02  1.05783E+03  9.04972E+02
  5.70171E+01  9.00594E+01 -1.78512E+02  3.03072E+01  4.81393E+02  8.48848E+02  2.14882E+03 -4.06311E+01
  4.60833E+02  1.93808E+02  1.34053E+03 -3.16173E+02 -3.84296E+02  2.28741E+03 -4.68653E+02  3.05978E+03
 -1.20999E+03  1.10278E+03 -1.60374E+03  5.44749E+02 -9.44063E+02 -6.13640E+02  2.02018E+02  2.97668E+01
  8.57508E+02 -7.32335E+02  1.57546E+03 -7.47291E+02  1.22178E+03  8.59525E+02 -6.63429E+02  1.92359E+03
 -1.83585E+03  3.16307E+02 -3.67562E+02 -1.52493E+03 -8.04074E+02 -2.23740E+03  3.37726E+02 -6.20663E+02
 -7.91352E+02 -7.26528E+02  9.20759E+01  1.31878E+03  2.01382E+03 -3.78539E+01 -1.44080E+02  1.92061E+03
  4.03344E+02 -4.80560E+02 -1.12949E+03  4.33843E+01  6.98209E+02 -1.05141E+03  1.27555E+03 -6.44583E+02
  8.96446E+02 -1.21011E+03  2.49669E+03  2.86536E+02  1.21746E+03  1.52544E+03  4.15796E+02  4.18323E+02
 -1.01326E+03 -1.35523E+03 -2.60995E+02 -1.53907E+02 -2.93619E+02 -8.78256E+02 -2.16654E+01 -7.32825E+02
  6.26464E+02 -6.82445E+02 -4.04496E+02  1.77820E+02  8.20001E+01  4.89257E+00  4.23782E+02  1.30096E+03
 -8.85517E+02  1.97639E+02 -1.28348E+03  5.11195E+02  3.17567E+02  9.32965E+02 -1.24549E+03  1.85034E+02
 -2.46523E+02  7.73118E+02 -1.78015E+03  3.08413E+02 -1.35242E+03  4.34915E+02 -1.19106E+03  6.63865E+02
  5.85385E+01 -2.01418E+03  9.78460E+02 -1.54791E+03 -2.08633E+01 -1.89079E+03  2.42451E+03 -6.34752E+02
  9.17344E+02  5.51479E+02  4.24870E+02  1.43320E+03 -6.76878E+02  1.62597E+03 -1.24553E+03  1.01966E+03
 -3.66883E+02  6.36444E+01 -4.96780E+02 -1.52612E+02 -1.11000E+03 -8.02699E+02  5.85474E+01  7.22306E+02
 -1.76561E+02 -5.27763E+02 -1.66920E+03  2.25852E+02  9.42280E+02 -8.20368E+02 -6.05112E+02  2.24501E+02
  1.14219E+03  4.34358E+02 -3.66202E+02 -1.15065E+03 -2.79784E+02  6.19740E+02 -6.93673E+02  6.32983E+02
 -4.94399E+02  2.10932E+03 -1.75324E+03  1.11007E+03 -1.96587E+01  2.61727E+02  3.97994E+01 -3.83193E+02
 -7.04626E+02 -3.95244E+02  4.13485E+02 -1.57946E+03 -2.44948E+02 -4.89285E+02  1.94016E+03  5.55480E+02
 -2.80178E+02 -6.76004E+02  6.66609E+02  3.60938E+02 -3.06079E+02  6.33624E+02  6.51306E+02  8.56012E+02
  5.41402E+02  7.93811E+02 -8.73836E+02  5.31308E+02 -4.51585E+02  2.79448E+02  9.66863E+02 -3.64990E+02
 -7.81979E+02 -3.53072E+01  2.48253E+02  2.97104E+02 -6.48278E+02  2.57111E+02 -6.46586E+01 -6.38260E+02
 -8.92811E+01 -6.28678E+02 -6.68332E+02  7.48581E+02  1.21152E+03 -4.62891E+02 -4.85764E+01  1.34223E+03
  2.20376E+03 -4.17166E+02 -3.99780E+02  1.39014E+03 -5.78893E+02  1.97672E+01 -6.73210E+00  1.18838E+02
  4.84041E+01  2.88138E+02  8.10049E+02  6.52820E+01  1.50378E+00 -2.21334E+02 -2.84840E+02 -3.93141E+02
 -1.52563E+03  7.72329E+02 -7.03661E+02 -8.85194E+01  5.54346E+02 -1.17917E+03  1.83322E+02 -5.19397E+02
 -2.50246E+01 -5.36601E-01 -5.95203E+02 -5.37018E+02  5.79613E+02  1.36991E+03  5.87214E+02  3.27969E+02
