 $NMID ID='MM_0lb_SNR200_17hz_g45_86.RAW', FMTDAT='(8E13.5)'
 TRAMP=1., VOLUME=1. $END
  3.10295E+05 -7.66334E+02  3.37867E+05  2.51416E+05  8.53678E+04  3.37493E+05 -1.31325E+05  2.51018E+05
 -1.89658E+05  8.26798E+04 -1.11780E+05 -3.24251E+04  6.08448E+02 -5.00550E+04  5.45713E+04 -1.12388E+03
  3.53530E+04  5.29874E+04 -1.59540E+04  7.36745E+04 -6.09316E+04  6.19420E+04 -8.26037E+04  3.12087E+04
 -7.99598E+04 -1.09445E+04 -5.63517E+04 -5.15568E+04 -1.52349E+04 -6.80388E+04  2.71297E+04 -4.51796E+04
  3.93897E+04  4.36707E+03  1.51410E+04  4.63263E+04 -3.36745E+04  4.67045E+04 -6.66513E+04 -3.53634E+02
 -5.13267E+04 -5.70554E+04 -6.77614E+03 -7.60166E+04  3.38967E+04 -5.27713E+04  4.68166E+04 -1.71859E+04
  4.22058E+04  1.12359E+04  3.07949E+04  2.39858E+04  1.50656E+04  2.83971E+04 -5.22223E+03  2.75109E+04
 -2.21104E+04  1.28581E+04 -1.95873E+04 -3.87460E+03  5.43638E+03 -6.44539E+03  2.04280E+04  1.28192E+04
  7.91594E+03  3.39529E+04 -3.20162E+04  3.34710E+04 -6.11837E+04  2.12475E+03 -5.55349E+04 -4.20904E+04
 -1.17827E+04 -6.08918E+04  3.89333E+04 -4.28695E+04  5.60431E+04 -1.24309E+03  3.32675E+04  3.09200E+04
 -6.49153E+03  3.39392E+04 -2.86603E+04  1.50955E+04 -2.80068E+04 -4.85068E+03 -1.51795E+04 -1.14631E+04
 -6.98468E+03 -1.22499E+04 -1.20327E+03 -1.74705E+04  6.66080E+03 -2.26001E+04  1.55017E+04 -1.45084E+04
  1.19676E+04  4.17877E+03 -6.30369E+03  1.37342E+04 -2.03469E+04 -4.08984E+03 -8.78103E+03 -3.12010E+04
  1.95751E+04 -4.06509E+04  4.57873E+04 -1.92900E+04  4.34790E+04  1.86359E+04  1.53845E+04  4.18728E+04
 -1.50810E+04  3.14212E+04 -2.37968E+04  1.03312E+03 -8.69828E+03 -2.66728E+04  2.09286E+04 -3.24009E+04
  3.86340E+04 -7.80171E+03  3.24117E+04  2.41936E+04  1.70803E+04  4.38125E+04 -8.23439E+03  4.57634E+04
 -2.84688E+04  3.06554E+04 -3.85388E+04  8.66360E+03 -3.96502E+04 -1.43377E+04 -2.22064E+04 -3.48677E+04
  7.22264E+03 -3.37345E+04  3.02605E+04 -1.14888E+04  2.77263E+04  1.03278E+04  4.24319E+03  2.00739E+04
 -1.23890E+04  7.26758E+03 -1.01043E+04 -8.11897E+03  6.27802E+03 -1.08207E+04  1.78142E+04  6.94811E+03
  1.34715E+04  2.08440E+04 -6.53262E+03  2.34364E+04 -2.20520E+04  9.73850E+03 -2.61671E+04 -5.76256E+03
 -1.87200E+04 -1.74444E+04 -6.09238E+03 -1.86071E+04  3.93331E+03 -1.60766E+04  1.23538E+04 -1.56842E+04
  2.38635E+04 -1.27174E+04  2.90285E+04  2.14015E+03  2.25927E+04  1.73994E+04  5.00301E+03  3.32422E+04
 -1.66919E+04  2.71942E+04 -2.63494E+04  9.74399E+03 -1.95775E+04 -1.17392E+04 -3.29235E+03 -1.45702E+04
  3.63903E+03 -4.33472E+03 -3.16549E+03  6.55454E+03 -1.45933E+04  5.36548E+03 -1.45573E+04 -4.68178E+03
 -9.71452E+03 -1.61647E+04  4.39061E+03 -2.06352E+04  1.32596E+04 -1.42348E+04  1.64243E+04 -1.50894E+03
  9.75175E+03  1.24975E+04 -2.43229E+03  1.70685E+04 -1.07818E+04  9.01155E+03 -1.71829E+04 -3.45678E+03
 -1.27877E+04 -1.38610E+04 -9.70043E+02 -2.01029E+04  9.58939E+03 -1.60787E+04  1.78608E+04 -7.97360E+03
  1.56999E+04  8.68753E+02  9.78559E+03  3.72210E+03  4.40727E+03 -8.64943E+01  7.00215E+03 -2.01709E+03
  1.41348E+04  2.94568E+03  1.56969E+04  1.37809E+04  9.81093E+03  2.55062E+04 -3.53692E+03  2.83195E+04
 -1.73323E+04  2.21684E+04 -2.58951E+04  1.07113E+04 -2.70030E+04 -1.39197E+03 -2.26025E+04 -1.57927E+04
 -9.81951E+03 -2.21678E+04  7.70407E+03 -1.97974E+04  1.72330E+04 -1.16604E+04  1.64497E+04  3.64692E+03
  6.06995E+03  1.29326E+04 -6.46220E+03  1.09665E+04 -1.38484E+04  2.29749E+03 -1.03645E+04 -8.64591E+03
  1.43460E+02 -1.32185E+04  6.28545E+03 -8.95817E+03  8.70748E+03 -1.62329E+03  1.21708E+03  5.87562E+03
 -5.97466E+03  1.81190E+02 -4.88197E+03 -5.06283E+03  2.44632E+02 -1.18989E+04  9.58117E+03 -1.20069E+04
  1.37280E+04 -5.93362E+03  1.38857E+04  2.27593E+03  1.27792E+04  9.97160E+03  4.94123E+03  1.45828E+04
 -2.07640E+03  1.72489E+04 -1.16346E+04  1.13793E+04 -1.30873E+04  2.47017E+03 -1.03397E+04 -2.28386E+03
 -5.25970E+03 -3.67374E+03  8.50889E+01  1.58674E+03 -2.36692E+03  2.82051E+03 -4.15981E+03  3.59434E+03
 -9.12951E+03 -1.04843E+03 -1.04612E+04 -8.24289E+03 -3.80175E+03 -1.23446E+04  3.19036E+03 -9.61883E+03
  7.83824E+03 -4.54514E+03  5.03714E+03  2.70729E+03  8.90403E+02  3.85999E+03 -3.88981E+03  1.51400E+01
 -5.14593E+03 -5.12156E+03 -1.04132E+03 -9.03247E+03  5.17878E+03 -9.60947E+03  1.06847E+04 -4.72161E+03
  1.29382E+04  7.16407E+02  9.37602E+03  7.62041E+03  1.75394E+03  1.00059E+04 -5.67644E+03  8.38950E+03
 -6.70519E+03  3.10689E+03 -3.04950E+03 -2.08514E+03  1.49728E+03 -1.55081E+03  4.07969E+03 -1.30921E+03
  4.59764E+03  3.74141E+03  4.15063E+02  7.26734E+03 -4.27237E+03  6.85108E+03 -8.40104E+03  2.88949E+03
 -4.70013E+03 -3.37406E+03  6.13056E+02 -7.34619E+03  3.39191E+03 -3.69471E+03  4.53466E+03  7.66814E+02
  6.61988E+02  3.66884E+03 -4.69652E+03  4.86421E+03 -6.53496E+03  2.93182E+03 -4.96933E+03 -9.78587E+02
 -3.35614E+03 -6.69961E+03  2.49259E+03 -8.46183E+03  7.43538E+03 -4.99918E+03  6.96971E+03  1.46258E+03
  4.53669E+03  7.45123E+03  2.31692E+01  8.66977E+03 -5.01510E+03  4.63614E+03 -6.07816E+03 -7.38754E+02
 -6.98104E+03 -5.74419E+03 -1.84932E+03 -6.90039E+03  2.63251E+03 -3.76538E+03  3.29008E+03 -2.39445E+03
  2.83052E+03  1.61926E+03  2.50366E+02  1.77516E+03  1.00930E+03 -3.29418E+01 -6.25507E+02 -3.03110E+03
  4.50119E+03 -1.36811E+03  6.43584E+03  7.75727E+02  6.58489E+03  4.86867E+03  5.78218E+03  8.39084E+03
 -1.02581E+03  9.39513E+03 -8.40178E+03  7.53774E+03 -1.23784E+04  2.42067E+03 -8.80738E+03 -2.88254E+03
 -4.27833E+03 -8.23774E+03 -1.75924E+02 -6.83338E+03  3.22863E+03 -2.25498E+03  1.39977E+03 -2.49772E+03
  2.16300E+03 -2.18144E+03  1.00851E+03 -2.38777E+03  4.81026E+03 -9.28534E+02  4.98860E+03  3.19388E+02
  5.23918E+03  1.26693E+03  1.28354E+03  3.37897E+03 -1.33071E+03  3.20197E+03 -5.42672E+03  3.66090E+03
 -5.09685E+03 -1.00858E+03 -2.66063E+03 -4.33050E+03  4.51872E+02 -6.22149E+03  3.76117E+03 -5.60370E+03
  6.22837E+03 -3.87477E+03  7.57824E+03 -1.22319E+02  6.56710E+03  5.84937E+03  1.58049E+03  6.85130E+03
 -2.20234E+03  6.91902E+03 -4.18937E+03  1.45249E+03 -1.77647E+03 -1.33557E+03 -1.34469E+03 -6.09982E+02
 -9.33445E+02  1.04450E+03 -8.13389E+02  1.67056E+03 -3.20522E+03  1.76480E+03 -5.72573E+03 -5.26213E+02
 -2.29429E+03 -3.72809E+03  1.10550E+03 -5.27450E+03  3.46763E+03 -4.30924E+03  4.23955E+03 -8.81876E+02
  4.21948E+03  2.26283E+03  2.53845E+03  4.58660E+03 -2.03993E+03  6.54841E+03 -3.18326E+03  3.37555E+03
 -2.98650E+03  8.58036E+02 -3.84628E+03 -3.12805E+03 -6.56114E+02 -4.52500E+03  2.15698E+03 -3.56851E+03
  3.28092E+03 -8.30321E+02  1.58560E+03  7.49083E+02  1.24736E+03  2.16780E+03  2.42029E+02  9.20698E+02
  1.97656E+03  5.02140E+02  2.61092E+02  1.06472E+03  1.74772E+03  3.29071E+03  3.68348E+02  3.68107E+03
 -2.55031E+02  3.37395E+03 -2.95702E+03  4.34359E+03 -3.64506E+03  1.50728E+03 -5.13045E+03 -7.08835E+02
 -2.32163E+03 -4.16927E+03  1.03268E+03 -7.38863E+03  2.71661E+03 -4.02207E+03  2.70159E+03 -1.47922E+03
  3.24938E+03  7.90175E+02  1.65472E+02  1.99075E+03 -9.95548E+02  1.40775E+03 -6.97456E+01  1.18813E+02
 -4.18687E+01 -2.99374E+03  9.64657E+02 -1.90713E+03  1.42821E+03 -3.84278E+02  6.80073E+02 -7.68956E+02
  1.43816E+03 -2.20318E+02  1.04939E+03  1.46482E+02 -5.08133E+02  8.59013E+02  1.98734E+03 -3.49797E+02
  8.91653E+02 -1.97851E+02  1.71454E+03  1.14060E+03  2.11488E+02  2.70702E+03 -7.48856E+02  3.93752E+03
 -1.90710E+03  2.54803E+03 -2.69253E+03  6.84868E+02 -2.64940E+03 -5.32983E+02 -3.23064E+02 -1.94783E+03
  5.48037E+01 -2.26559E+03  1.51472E+03 -3.10959E+02  8.33318E+02  1.41487E+03 -1.94059E+02  2.46430E+03
 -2.07993E+03  1.62513E+03 -2.30338E+03 -1.17961E+03 -9.45184E+02 -2.27293E+03  3.98479E+02 -2.06828E+03
  1.05791E+03 -2.57945E+02  1.46410E+03  1.52770E+03  1.29832E+03  6.50367E+00  4.12363E+02  1.78631E+03
 -3.69746E+02  9.20434E+02  7.19755E+02 -4.32525E+02  6.94565E+02 -2.69983E+03  2.46423E+03 -1.51362E+03
  1.83182E+03  4.10928E+02  3.37099E+03  3.41372E+02  9.93693E+02  1.65431E+03 -3.34746E+02  2.44240E+03
 -1.69222E+03  2.55867E+03 -1.79965E+03  2.42485E+01 -1.67566E+03 -1.82995E+03  2.30951E+02 -1.92866E+03
  1.83924E+03 -1.69422E+03  2.20314E+03  3.19138E+02 -2.13255E+02  1.41482E+03  5.80936E+01  1.72100E+03
 -4.65448E+02  6.66980E+02  7.69091E+02  3.74379E+01  2.20212E+02  1.11953E+03 -2.72798E+02  8.23339E+02
  6.72741E+02  2.20836E+03 -1.73673E+03  1.11628E+02 -2.84063E+03 -4.62648E+02 -2.50081E+03 -1.37491E+03
 -1.83887E+03 -2.50556E+03  5.68411E+02 -4.39407E+03  8.66982E+02 -2.13828E+03  4.52394E+03 -2.31028E+01
  2.54229E+03  5.08613E+02  1.01441E+03  3.01254E+03 -8.01967E+02  1.61811E+03 -1.76842E+02  1.55144E+03
 -1.04030E+03  3.87366E+02 -4.91089E+02 -1.32703E+03 -4.21477E+02 -1.63218E+02 -1.29865E+03  3.09993E+02
 -1.96811E+03  4.89040E+02 -5.12315E+02 -3.43548E+02  2.88532E+02 -1.57114E+02 -4.11365E+01 -9.44018E+02
  1.94004E+03 -5.62710E+02  8.44312E+02  5.33602E+02  1.90078E+03  2.12781E+03 -3.91059E+02  8.91311E+02
 -1.54478E+03  3.36365E+03 -2.65827E+03  1.93138E+03 -2.67812E+03 -1.76082E+02 -1.74153E+03 -2.94417E+03
 -1.69839E+03 -1.63990E+03 -4.21319E+02 -1.94819E+03  2.27804E+03 -1.31216E+03  1.79817E+03 -2.09487E+02
  1.66077E+03  1.03075E+03  8.80878E+02  1.10774E+03  3.07173E+02 -2.34854E+02 -1.74760E+02 -2.01780E+01
  6.89448E+02  2.68566E+02  2.30348E+02  2.46011E+02 -2.47693E+01  2.39810E+02  2.42185E+02  1.32832E+03
 -9.71456E+01  1.06404E+03 -8.40475E+02  8.27868E+02 -1.50147E+03  2.21564E+02  2.69025E+02 -1.10976E+03
  1.05256E+03 -1.91850E+03 -1.07993E+03 -9.78088E+02  2.65393E+03  1.76073E+02  1.18237E+02  7.63033E+02
  4.43448E+02  8.42541E+02 -7.73915E+02  1.82333E+02 -6.30128E+02  4.27848E+02 -4.15349E+02  5.55511E+02
  2.91200E+02 -1.11618E+03  6.10266E+02  1.34100E+02 -1.05694E+03 -6.55571E+02 -1.35172E+03 -7.88107E+02
 -2.01270E+03  1.95424E+02 -3.69104E+01 -1.01477E+03  1.25857E+03 -1.84719E+03  1.42244E+02 -6.11541E+02
  1.78053E+03  2.70659E+02 -5.16907E+02  9.87736E+02 -3.50099E+02  7.39316E+02 -6.23885E+02  1.36826E+03
