 $NMID ID='MM_0lb_SNR200_17hz_g60_40.RAW', FMTDAT='(8E13.5)'
 TRAMP=1., VOLUME=1. $END
  3.10161E+05  2.84458E+02  3.37232E+05  2.51422E+05  8.53231E+04  3.37855E+05 -1.32617E+05  2.51745E+05
 -1.91243E+05  8.24853E+04 -1.12523E+05 -3.30500E+04  8.51353E+02 -5.10337E+04  5.30088E+04 -1.76221E+02
  3.58171E+04  5.21223E+04 -1.71886E+04  7.52210E+04 -5.94761E+04  6.35576E+04 -8.38162E+04  3.11034E+04
 -8.07798E+04 -1.13372E+04 -5.69308E+04 -5.11804E+04 -1.36029E+04 -7.07892E+04  2.67027E+04 -4.53423E+04
  4.13063E+04  3.54414E+03  1.72011E+04  4.85327E+04 -3.38360E+04  4.61078E+04 -6.74869E+04  3.40547E+01
 -5.31871E+04 -5.70043E+04 -7.24371E+03 -7.68917E+04  3.29997E+04 -5.45645E+04  4.80726E+04 -1.71587E+04
  4.33257E+04  1.14648E+04  3.11217E+04  2.49672E+04  1.71657E+04  2.91786E+04 -5.26690E+03  2.68297E+04
 -2.13236E+04  1.22341E+04 -1.77982E+04 -5.56911E+03  5.84803E+03 -8.48212E+03  2.21570E+04  1.28292E+04
  6.58803E+03  3.50800E+04 -3.20765E+04  3.51144E+04 -6.37274E+04  2.15343E+03 -5.59501E+04 -4.27378E+04
 -1.21932E+04 -6.21113E+04  3.92596E+04 -4.52209E+04  5.97118E+04 -2.08157E+03  3.27248E+04  3.24821E+04
 -5.92844E+03  3.61869E+04 -3.06169E+04  1.56198E+04 -2.88519E+04 -4.94343E+03 -1.59225E+04 -1.10423E+04
 -8.29898E+03 -1.30068E+04 -1.52490E+03 -1.75611E+04  4.96390E+03 -2.26632E+04  1.53513E+04 -1.33787E+04
  1.19369E+04  4.58913E+03 -7.31619E+03  1.21059E+04 -2.10295E+04 -3.57472E+03 -6.88341E+03 -3.20789E+04
  2.19979E+04 -4.36849E+04  4.63268E+04 -1.96505E+04  4.45440E+04  1.99083E+04  1.56039E+04  4.34050E+04
 -1.50118E+04  3.30198E+04 -2.49990E+04  1.36793E+03 -1.00527E+04 -2.75842E+04  2.13842E+04 -3.32122E+04
  4.02618E+04 -9.00779E+03  3.32905E+04  2.41165E+04  1.83488E+04  4.48337E+04 -7.83703E+03  4.83935E+04
 -3.06803E+04  3.34273E+04 -4.14595E+04  8.97788E+03 -4.23681E+04 -1.66591E+04 -2.31446E+04 -3.69297E+04
  8.09217E+03 -3.72791E+04  3.11049E+04 -1.45786E+04  2.85034E+04  1.12696E+04  3.46762E+03  1.83170E+04
 -1.35558E+04  8.79234E+03 -9.26414E+03 -7.55222E+03  7.42071E+03 -1.06819E+04  1.82137E+04  5.44562E+03
  1.35479E+04  2.32153E+04 -6.87286E+03  2.53423E+04 -2.26855E+04  1.14944E+04 -2.68011E+04 -4.23234E+03
 -1.92583E+04 -1.62168E+04 -7.63022E+03 -1.94999E+04  3.26455E+03 -1.83655E+04  1.47507E+04 -1.68132E+04
  2.53573E+04 -1.39782E+04  2.99548E+04  3.08045E+03  2.30199E+04  1.89393E+04  4.08736E+03  3.49429E+04
 -1.64691E+04  2.95995E+04 -2.68171E+04  9.42286E+03 -1.96546E+04 -1.08252E+04 -5.36151E+03 -1.23297E+04
  3.09993E+03 -3.30587E+03 -3.59799E+03  7.07126E+03 -1.49593E+04  4.22900E+03 -1.59967E+04 -5.81766E+03
 -8.62078E+03 -1.70588E+04  4.52943E+03 -2.25576E+04  1.40763E+04 -1.46584E+04  1.72988E+04 -1.40826E+03
  1.02549E+04  1.21455E+04 -1.63154E+03  1.79389E+04 -1.27442E+04  9.50992E+03 -1.79761E+04 -4.47160E+03
 -1.30919E+04 -1.54528E+04 -6.72407E+02 -2.20392E+04  9.75237E+03 -1.84692E+04  1.78202E+04 -9.12174E+03
  1.68054E+04 -1.59354E+00  1.23816E+04  4.77780E+03  7.15592E+03  2.16508E+03  7.56756E+03 -1.60658E+03
  1.66038E+04  2.61655E+03  1.68346E+04  1.48372E+04  1.05702E+04  2.76256E+04 -3.05008E+03  3.21727E+04
 -1.93631E+04  2.44731E+04 -2.89007E+04  1.30597E+04 -3.01322E+04 -1.73683E+03 -2.53933E+04 -1.76450E+04
 -1.16143E+04 -2.54353E+04  8.50538E+03 -2.36038E+04  2.11577E+04 -1.08782E+04  1.77796E+04  4.24485E+03
  6.83218E+03  1.20595E+04 -8.00551E+03  1.11976E+04 -1.59656E+04  2.91545E+03 -1.20480E+04 -9.52536E+03
 -6.76108E+02 -1.52811E+04  6.52158E+03 -1.13390E+04  9.51871E+03 -6.40048E+02  1.96674E+03  6.63751E+03
 -5.59003E+03  1.94468E+03 -7.30630E+03 -4.36946E+03 -3.02273E+02 -1.13765E+04  9.27187E+03 -1.37037E+04
  1.33478E+04 -6.34022E+03  1.51934E+04  2.54832E+03  1.40950E+04  1.13298E+04  6.93198E+03  1.75048E+04
 -2.72436E+03  1.88999E+04 -1.17467E+04  1.29393E+04 -1.29316E+04  1.97335E+03 -1.03411E+04 -3.16104E+03
 -5.78933E+03 -4.49050E+03 -7.23061E+02  1.27710E+03 -2.62141E+03  2.60097E+03 -4.99850E+03  3.82016E+03
 -9.57809E+03 -2.64391E+02 -1.00552E+04 -8.48000E+03 -4.21729E+03 -1.31479E+04  3.25310E+03 -1.01549E+04
  8.99341E+03 -3.58783E+03  5.09735E+03  1.91090E+03  6.59191E+02  4.36187E+03 -2.62741E+03 -1.30186E+03
 -4.99152E+03 -6.21788E+03 -7.69768E+02 -8.01060E+03  4.78345E+03 -1.00249E+04  1.18783E+04 -4.60864E+03
  1.41672E+04  9.72561E+02  1.06927E+04  8.39268E+03  7.84996E+02  1.02545E+04 -5.25277E+03  9.81518E+03
 -9.01097E+03  3.42047E+03 -4.08152E+03 -1.47633E+03  1.12527E+03 -2.99373E+03  5.23099E+03 -9.84864E+02
  4.21245E+03  3.89971E+03  2.15022E+03  8.34649E+03 -6.52583E+03  7.09909E+03 -9.18378E+03  1.87192E+03
 -6.28508E+03 -4.02451E+03  1.15673E+03 -8.51521E+03  4.03537E+03 -3.38600E+03  3.18683E+03  2.56010E+03
 -2.43055E+02  5.10707E+03 -5.75789E+03  6.06491E+03 -6.48554E+03  2.28942E+03 -6.52957E+03 -2.41395E+03
 -4.27708E+03 -7.48661E+03  1.28237E+03 -9.48115E+03  8.55479E+03 -6.41917E+03  7.98957E+03  2.01347E+03
  5.68962E+03  5.95657E+03  4.22235E+02  9.73836E+03 -7.05075E+03  4.87662E+03 -6.63109E+03 -4.71227E+02
 -6.31175E+03 -6.23031E+03 -8.76692E+02 -7.18175E+03  3.34370E+03 -5.74619E+03  3.46255E+03 -2.95891E+03
  3.24216E+03  2.60694E+02 -8.57266E+02  1.81427E+03  1.02289E+03 -6.54259E+02  6.42800E+02 -2.92255E+03
  5.77885E+03 -1.28829E+03  7.84202E+03  1.52332E+03  6.75578E+03  3.38361E+03  6.38500E+03  8.13650E+03
 -2.52130E+03  1.17099E+04 -9.65367E+03  8.43129E+03 -1.27161E+04  3.23844E+03 -1.04174E+04 -3.70962E+03
 -5.17500E+03 -8.14328E+03 -4.05414E+02 -7.53346E+03  3.09578E+03 -2.21095E+03  2.15720E+03 -3.99229E+03
  1.70908E+03 -1.16806E+03  2.53208E+03 -2.64936E+03  3.15160E+03 -2.26142E+03  3.88097E+03  7.77615E+02
  7.12424E+03  1.15735E+03  1.39960E+03  4.72829E+03 -2.19731E+03  4.48856E+03 -5.39389E+03  4.14068E+03
 -5.59814E+03 -3.52851E+02 -4.31024E+03 -4.61342E+03  1.50138E+02 -6.37129E+03  3.96218E+03 -7.67292E+03
  6.02492E+03 -4.24678E+03  8.42803E+03  1.51504E+03  6.38876E+03  6.81235E+03  8.45579E+02  8.11480E+03
 -2.31436E+03  8.01717E+03 -4.95954E+03  1.80494E+03 -2.08975E+03 -1.37685E+03 -1.56969E+03 -1.50269E+03
 -1.29363E+03  4.24746E+02 -1.39379E+03  3.04030E+03 -3.56930E+03  1.97610E+03 -5.89497E+03 -7.78328E+02
 -3.49056E+03 -4.63399E+03  1.46105E+03 -6.19727E+03  4.52701E+03 -5.74138E+03  4.71997E+03 -2.32371E+03
  5.75802E+03  4.06484E+03  1.96685E+03  4.54246E+03  1.67854E+02  5.04123E+03 -3.01860E+03  2.26541E+03
 -4.73889E+03  3.80395E+02 -3.77517E+03 -2.16758E+03 -6.31552E+02 -4.50575E+03  2.98585E+03 -4.07530E+03
  3.70791E+03 -2.53460E+03  3.47353E+03  6.44482E+02  9.53470E+01  1.76570E+03  1.79195E+03  9.97146E+02
  9.24811E+02  1.00855E+03  9.03221E+02  1.35912E+03  2.57299E+03  2.02773E+03  2.00537E+03  2.58578E+03
 -1.48014E+03  4.06765E+03 -3.26830E+03  5.79729E+03 -4.02388E+03  1.02538E+03 -5.31545E+03 -1.35766E+03
 -2.76449E+03 -4.36773E+03  1.67649E+01 -5.64341E+03  3.06304E+03 -3.79047E+03  3.65111E+03 -6.82775E+02
  2.13455E+03  3.11726E+03  3.74131E+02  3.33641E+03 -8.90448E+01  8.47944E+02 -1.29097E+03  4.28147E+02
 -1.03377E+03 -2.34932E+03  1.96578E+03 -1.32716E+03  1.84731E+03 -9.09599E+02  2.10338E+03  2.78497E+02
  8.39472E+02  1.45721E+03  8.64539E+01  2.01355E+02 -4.61773E+02  1.58846E+03  2.24813E+03  1.05514E+03
  1.03055E+03  5.04252E+02  1.76873E+03  1.02831E+03  7.12137E+02  3.65506E+03 -1.21237E+03  4.20597E+03
 -1.85739E+03  1.43369E+03 -3.18136E+03  9.15228E+02 -2.65973E+03 -1.12659E+03 -3.31928E+02 -1.19857E+03
  3.55699E+02 -2.57377E+02  9.71624E+02 -1.53202E+03  1.04338E+03  1.12361E+03 -3.47953E+02  1.58321E+03
 -1.77897E+03  1.07125E+03 -1.32988E+03 -1.70373E+03 -1.62173E+03 -2.29932E+03  7.64387E+02 -2.27163E+03
  1.54172E+03 -1.55670E+03  2.66516E+03 -3.45098E+02  1.71980E+03  7.64744E+02  7.86476E+01  1.14296E+03
 -5.36719E+02  2.12075E+02  1.47287E+02 -4.37187E+02 -7.80441E+02 -1.01275E+03  2.12517E+03 -1.37931E+03
  1.75165E+03  2.11693E+02  2.57804E+03  7.16004E+02  2.57615E+03  2.53880E+03 -1.70293E+03  1.90509E+03
 -1.74327E+03  9.47847E+02 -1.14220E+03 -7.08115E+02 -1.50717E+03 -2.31308E+03  1.62388E+02 -1.10610E+03
  2.39451E+03 -1.23722E+03  1.11439E+03  9.22996E+02  3.69090E+02  6.00299E+02 -2.81088E+02  7.54908E+02
 -4.72215E+02  1.66449E+03 -4.51039E+02 -3.87377E+02 -1.85024E+02  8.65217E+02 -1.87174E+03  9.68287E+02
 -1.05946E+03  1.65535E+03 -2.31902E+03  3.02966E+02 -2.87020E+03  5.90862E+02 -2.35755E+03 -1.77394E+03
 -1.34855E+03 -3.43811E+03  7.13920E+02 -3.42141E+03  1.69548E+03 -2.64184E+03  3.61688E+03 -1.32961E+03
  4.28755E+03  8.68504E+02  1.55654E+03  3.12552E+03  8.33727E+01  2.59922E+03 -6.90296E+02  2.31504E+03
 -7.40770E+02  1.35215E+03 -1.56343E+03  8.54024E+01 -1.38839E+03 -7.60156E+02  3.66788E+02  4.38561E+02
 -1.45944E+03 -6.22047E+02 -2.78149E+02  8.92811E+02  7.67078E+02 -6.07354E+02  7.85562E+02 -4.02108E+02
  1.78619E+03 -9.30932E+02  8.49669E+02  1.47858E+02  1.80555E+03  1.43500E+03  7.77601E+02  2.50498E+03
 -1.44322E+03  2.40617E+03 -1.55114E+03  1.66211E+03 -8.10859E+02 -1.35521E+03 -1.12180E+02 -1.33368E+03
 -1.82601E+03 -1.82076E+03  3.40271E+02 -1.71932E+03  7.27221E+02 -2.91253E+02  2.55908E+02  1.04804E+02
 -6.56440E+02  7.65103E+02 -1.36927E+02  1.51363E+03  4.83669E+01 -4.68627E+02  8.42583E+02  2.53429E+02
  1.74971E+03 -6.36865E+02  8.50031E+02  6.36357E+02  2.25946E+02  2.54617E+02  9.62835E+02 -1.27428E+01
 -4.08144E+02  2.49540E+03 -7.26315E+02  5.31799E+02 -9.37755E+02 -1.35283E+03 -1.37956E+02 -2.20176E+03
  1.03672E+03 -5.66854E+02  4.81356E+02 -1.02859E+03  9.13887E+02 -6.43443E+02  1.32556E+03  1.27420E+03
  4.09116E+02  4.77880E+02 -6.75924E+02  5.14530E+02 -1.84616E+03  2.08105E+02 -5.47272E+02  6.80628E+02
  3.26752E+00 -9.83681E+02 -1.02822E+03  1.15786E+03  9.60627E-01  6.41158E+02 -7.32170E+02 -5.83800E+02
 -4.17319E+02 -2.68261E+02 -9.82950E+02 -1.49058E+03  8.29982E+02 -1.51921E+03  1.20358E+03  1.57665E+01
  1.03948E+03 -2.59807E+02  3.04516E+02 -4.79113E+02  9.09533E+02  1.31731E+01 -4.30584E+02  4.87391E+02
