 $NMID ID='MM_0lb_SNR200_17hz_g55_60.RAW', FMTDAT='(8E13.5)'
 TRAMP=1., VOLUME=1. $END
  3.10217E+05 -1.43348E+03  3.37072E+05  2.51179E+05  8.36253E+04  3.37529E+05 -1.33606E+05  2.50753E+05
 -1.90609E+05  8.32291E+04 -1.11857E+05 -3.25410E+04  1.18632E+03 -5.06504E+04  5.43153E+04 -9.80439E+01
  3.49032E+04  5.23756E+04 -1.53473E+04  7.56089E+04 -6.05686E+04  6.37304E+04 -8.43779E+04  3.23433E+04
 -7.91892E+04 -1.06466E+04 -5.68634E+04 -5.08097E+04 -1.51427E+04 -6.87192E+04  2.65235E+04 -4.58047E+04
  3.92534E+04  4.28393E+03  1.51345E+04  4.72876E+04 -3.44316E+04  4.57916E+04 -6.68632E+04 -2.26121E+02
 -5.42705E+04 -5.60422E+04 -6.88177E+03 -7.66625E+04  3.33288E+04 -5.44806E+04  4.73822E+04 -1.69419E+04
  4.36103E+04  1.17138E+04  3.06688E+04  2.49231E+04  1.53554E+04  2.92899E+04 -3.91166E+03  2.66000E+04
 -2.17162E+04  1.38132E+04 -1.94009E+04 -4.31769E+03  5.36839E+03 -8.18406E+03  2.22120E+04  1.15681E+04
  7.02525E+03  3.44208E+04 -3.26098E+04  3.47510E+04 -6.25266E+04  2.55124E+03 -5.58410E+04 -4.22631E+04
 -1.24536E+04 -6.31926E+04  3.92098E+04 -4.43467E+04  5.77828E+04 -2.68980E+03  3.30827E+04  3.19372E+04
 -6.43870E+03  3.58172E+04 -2.89347E+04  1.43806E+04 -2.98840E+04 -6.43372E+03 -1.70061E+04 -1.10281E+04
 -7.32718E+03 -1.24892E+04 -4.70220E+02 -1.71668E+04  6.68991E+03 -2.29338E+04  1.53290E+04 -1.40904E+04
  1.12806E+04  4.24109E+03 -6.68615E+03  1.18911E+04 -2.12551E+04 -2.93417E+03 -7.92776E+03 -3.16963E+04
  2.24409E+04 -4.12453E+04  4.60127E+04 -1.89913E+04  4.48028E+04  1.86252E+04  1.40993E+04  4.34704E+04
 -1.54987E+04  3.25288E+04 -2.51657E+04  9.66727E+02 -8.90368E+03 -2.68703E+04  2.15906E+04 -3.23508E+04
  3.99652E+04 -8.14235E+03  3.39089E+04  2.31997E+04  1.72952E+04  4.58700E+04 -7.16838E+03  4.93281E+04
 -3.11877E+04  3.21197E+04 -3.94469E+04  8.48069E+03 -4.07599E+04 -1.63817E+04 -2.26145E+04 -3.53283E+04
  6.17656E+03 -3.66361E+04  3.04860E+04 -1.38161E+04  2.95247E+04  1.15877E+04  3.61610E+03  1.91507E+04
 -1.29318E+04  7.80840E+03 -9.83765E+03 -7.83814E+03  6.00849E+03 -1.11685E+04  1.74901E+04  6.42048E+03
  1.18933E+04  2.26402E+04 -6.80490E+03  2.43179E+04 -2.16184E+04  1.01947E+04 -2.65192E+04 -5.51379E+03
 -1.89269E+04 -1.58977E+04 -6.81203E+03 -1.92273E+04  4.39732E+03 -1.74630E+04  1.50338E+04 -1.74392E+04
  2.39457E+04 -1.15264E+04  3.06279E+04  3.54507E+03  2.26632E+04  1.77155E+04  4.44470E+03  3.48757E+04
 -1.63690E+04  2.81002E+04 -2.66634E+04  1.03371E+04 -1.93939E+04 -9.87055E+03 -4.47243E+03 -1.40880E+04
  2.74638E+03 -3.40857E+03 -2.64454E+03  6.36887E+03 -1.43851E+04  5.62279E+03 -1.60513E+04 -6.72831E+03
 -9.14126E+03 -1.82505E+04  5.03732E+03 -2.23337E+04  1.48735E+04 -1.55055E+04  1.67414E+04 -1.13017E+03
  1.01927E+04  1.10512E+04 -9.17723E+01  1.67417E+04 -1.13646E+04  9.80612E+03 -1.65488E+04 -3.49475E+03
 -1.35296E+04 -1.48214E+04 -1.24006E+03 -2.17912E+04  9.27747E+03 -1.67699E+04  1.72613E+04 -8.57089E+03
  1.68449E+04  1.90006E+03  1.15121E+04  4.24549E+03  5.39093E+03  8.38979E+02  1.05105E+04 -1.10016E+03
  1.62738E+04  2.88572E+03  1.77714E+04  1.48323E+04  1.18774E+04  2.70408E+04 -2.98766E+03  2.94393E+04
 -1.73589E+04  2.42411E+04 -2.79246E+04  1.20746E+04 -2.87723E+04 -2.69138E+03 -2.45754E+04 -1.69687E+04
 -1.05256E+04 -2.38418E+04  9.34473E+03 -2.17189E+04  1.90991E+04 -1.28122E+04  1.69400E+04  3.89157E+03
  6.35603E+03  1.17622E+04 -9.12368E+03  1.23695E+04 -1.53783E+04  2.11409E+03 -1.13149E+04 -7.60332E+03
 -1.05978E+03 -1.40937E+04  6.32508E+03 -1.04121E+04  8.74403E+03  8.09294E+01  2.37715E+03  6.04137E+03
 -6.05662E+03  1.40085E+03 -5.62272E+03 -4.40798E+03  4.11816E+02 -1.22240E+04  7.99740E+03 -1.18796E+04
  1.43122E+04 -5.76051E+03  1.53171E+04  3.84479E+03  1.31230E+04  1.18946E+04  5.87815E+03  1.64592E+04
 -2.64757E+03  1.88380E+04 -1.10208E+04  1.21486E+04 -1.29629E+04  3.49646E+03 -9.95229E+03 -3.30749E+03
 -5.72747E+03 -4.40930E+03 -1.05087E+03  1.52062E+03 -2.03844E+03  2.36060E+03 -5.37919E+03  4.87670E+03
 -9.29967E+03  4.95796E+02 -9.73595E+03 -7.72695E+03 -3.72418E+03 -1.22124E+04  3.57087E+03 -9.90777E+03
  8.33258E+03 -4.84110E+03  6.13440E+03  2.69928E+03  7.71706E+02  4.40461E+03 -4.73650E+03  3.84605E+02
 -3.77474E+03 -6.94397E+03 -1.63783E+03 -8.00004E+03  5.42868E+03 -1.00549E+04  1.21353E+04 -5.49085E+03
  1.40347E+04  8.68053E+02  1.13584E+04  8.25878E+03  2.98288E+03  1.06773E+04 -6.11809E+03  1.02550E+04
 -7.88581E+03  3.65942E+03 -3.13476E+03 -1.79064E+03  1.14267E+03 -2.81936E+03  4.81344E+03 -2.13263E+03
  4.90554E+03  3.46974E+03  1.94466E+03  8.82215E+03 -5.77316E+03  7.55910E+03 -9.31868E+03  2.57195E+03
 -3.97857E+03 -5.92558E+03  5.38022E+01 -7.37543E+03  4.46329E+03 -4.10532E+03  4.47012E+03  1.16314E+03
  1.59543E+03  4.94217E+03 -4.62092E+03  4.87073E+03 -6.22487E+03  2.30923E+03 -6.48045E+03 -1.36333E+03
 -3.20298E+03 -8.93804E+03  2.78010E+03 -9.17440E+03  7.28813E+03 -5.98171E+03  8.22274E+03  1.18365E+03
  4.78482E+03  6.92461E+03  2.05446E+03  9.34551E+03 -6.41718E+03  5.38302E+03 -6.04210E+03  1.13762E+02
 -7.00816E+03 -4.85546E+03 -1.71905E+03 -7.04535E+03  2.34894E+03 -5.61750E+03  3.05877E+03 -3.02506E+03
  2.36205E+03  1.18651E+02  3.34284E+02  5.12404E+02  1.74364E+02 -7.27412E+02  1.75744E+02 -2.70718E+03
  4.24889E+03 -1.55749E+03  7.08692E+03  1.79859E+02  6.88902E+03  4.51505E+03  5.58040E+03  9.79187E+03
 -1.81623E+03  1.09251E+04 -8.66074E+03  8.53806E+03 -1.22684E+04  1.11658E+03 -1.05711E+04 -4.32053E+03
 -4.84434E+03 -7.49199E+03 -7.34936E+02 -5.82092E+03  3.67566E+03 -3.73126E+03  2.56848E+03 -2.67845E+03
  1.65205E+03 -5.58823E+02  2.52798E+03 -2.34891E+03  3.54479E+03 -1.28551E+03  3.36318E+03 -1.27524E+02
  6.03418E+03  1.05120E+03  1.56324E+03  3.61287E+03 -1.57482E+03  3.19276E+03 -4.44493E+03  2.90110E+03
 -6.74708E+03 -1.04560E+03 -2.77308E+03 -2.95087E+03  2.27336E+02 -5.51574E+03  4.26906E+03 -6.68473E+03
  8.36992E+03 -3.35166E+03  8.83616E+03  1.94708E+03  5.92503E+03  6.16617E+03  2.73054E+03  7.43164E+03
 -3.68920E+03  6.61675E+03 -4.32866E+03  2.02827E+03 -2.39416E+03 -6.39448E+02 -3.82104E+02  2.22997E+02
  5.33159E+02  4.70906E+02 -1.84255E+03  2.42378E+03 -2.54697E+03  1.60911E+03 -4.27543E+03 -2.97343E+02
 -2.33539E+03 -4.13761E+03  8.73633E+02 -6.22083E+03  2.79873E+03 -5.84238E+03  4.53788E+03 -9.97825E+02
  4.83968E+03  2.34566E+03  2.16456E+03  4.96703E+03 -5.00681E+00  4.70786E+03 -3.07892E+03  4.38651E+03
 -5.73298E+03  6.26281E+01 -4.41707E+03 -2.72811E+03 -1.73730E+03 -3.30313E+03  1.93050E+03 -3.54745E+03
  3.31374E+03 -1.18525E+03  1.40016E+03 -1.89774E+02  8.82781E+02  8.72554E+02  4.09097E+02  4.79805E+02
  2.35107E+03  6.39643E+02  1.33679E+03  2.36933E+03  1.42273E+03  3.23963E+03  1.10402E+03  2.69835E+03
 -2.76033E+02  3.50946E+03 -3.22193E+03  6.53690E+03 -2.18287E+03  3.29242E+02 -5.22327E+03 -7.20148E+02
 -2.61215E+03 -5.03326E+03  7.22737E+02 -6.73828E+03  2.73832E+03 -4.88760E+03  3.43677E+03  3.13040E+02
  3.99476E+03  3.30472E+03  1.58520E+03  1.61129E+03  2.08172E+00  3.39997E+03 -6.06035E+02  6.61854E+02
 -1.25772E+03 -1.65700E+03  1.71903E+03 -2.24007E+03  1.46846E+03 -8.08753E+02  1.16239E+03  2.21445E+02
  1.33617E+03  7.54608E+02 -8.86416E+01 -4.93301E+02  4.63189E+01  1.66348E+03  3.16008E+03 -1.56285E+03
 -1.99643E+02  3.29732E+02  2.56067E+03  1.37734E+03 -2.65219E+02  3.00796E+03 -2.20797E+02  2.64451E+03
 -1.00542E+03  1.51623E+03 -2.77963E+03 -3.99072E+02 -1.94751E+03 -8.79828E+02 -1.20853E+03 -1.63028E+03
  1.07595E+03 -1.50449E+03  1.02043E+03 -7.67345E+02  5.89213E+02  2.22760E+03 -1.58901E+03  1.77141E+03
 -1.84692E+03  2.51948E+03 -1.58506E+03 -6.07193E+02 -5.86684E+02 -3.40844E+03  1.79979E+03 -2.54858E+03
  1.24052E+03 -7.66247E+02  1.20339E+03  9.79928E+01  2.44416E+03  1.08798E+03 -1.20224E+02  9.00426E+02
 -2.80470E+02  4.79581E+01 -2.39420E+03 -6.03057E+01  6.34932E+02 -1.21232E+03  3.27929E+03 -1.54411E+03
  2.18209E+03 -3.85100E+02  4.69809E+03  3.32893E+02  1.14660E+03  1.92521E+03 -3.14879E+02  2.09866E+03
 -1.45532E+03  6.41059E+02 -1.76801E+03  4.78062E+01 -3.51842E+02 -1.44428E+03  4.05467E+02  5.43043E+00
  2.12430E+03 -7.07818E+02  4.09324E+02  1.34035E+03  3.90862E+02  2.80903E+03  1.00286E+03  8.84061E+02
 -9.70296E+02  1.11470E+03 -6.89563E+02 -5.82641E+02  1.19141E+02 -9.46034E+01 -5.29083E+02  1.37957E+03
 -9.31851E+02  4.73538E+02 -2.12065E+03  1.47694E+02 -3.42496E+03  6.16846E+02 -3.95779E+03 -2.46811E+03
 -1.73186E+03 -2.22171E+03  7.01802E+02 -4.28929E+03  2.25195E+03 -3.48870E+03  3.05980E+03 -1.17724E+03
  3.56178E+03 -1.30366E+02  1.11445E+03  1.13610E+03 -9.49424E+02  1.40680E+03 -5.29413E+02  2.33127E+03
 -1.00205E+03  6.16402E+02 -3.05494E+01  2.22884E+02 -4.35476E+02 -4.89219E+01 -1.17009E+03 -1.08122E+03
 -1.80384E+03  5.18136E+00 -1.94734E+03  8.37461E+02  8.96358E+01  3.99263E+02 -5.61839E+02  8.10799E+01
  1.25712E+03 -1.71802E+03  1.03670E+03  1.83558E+02  1.93585E+03  1.37390E+03 -2.20275E+02  1.63267E+03
 -1.02938E+03  3.06839E+03 -2.08237E+03  1.95181E+03 -1.84510E+03 -8.39441E+02 -1.97110E+03 -2.21098E+03
 -3.21006E+02 -2.50145E+03  6.57183E+02 -1.99371E+03  4.48333E+02 -1.48545E+03  7.67425E+02  5.37033E+02
  9.51505E+02  5.57859E+02 -5.95372E+02  1.57836E+03 -2.83527E+02 -2.49264E+02  5.28418E+02 -8.44064E+02
 -9.84747E+01 -3.09190E+01  1.51550E+03  1.19122E+02  6.15465E+02  1.11227E+03 -5.78131E+00  3.42540E+02
 -9.20402E+02  8.88540E+02 -1.63320E+03  7.33900E+02 -2.06909E+03  2.44988E+02  3.87713E+02 -1.14919E+03
  9.67865E+02 -2.50081E+03 -2.62023E+02  6.73941E+02  7.52941E+02 -1.28976E+02  1.16924E+03  3.66409E+02
 -1.78986E+02  9.74266E+02  2.77238E+02  1.03633E+03 -1.58234E+03  1.31026E+03 -8.80724E+02  5.71587E+02
  3.77944E+01  8.31407E+02 -2.06878E+02  3.44024E+02 -8.52613E+02 -1.21117E+02 -9.63325E+02  1.91036E+02
 -1.37122E+03  6.29805E+02 -3.48484E+02 -1.31931E+03  1.24112E+03 -2.09766E+03  7.86270E+02 -1.21125E+03
  8.59867E+02  9.12488E+02 -2.53857E+02  1.32257E+03  2.62345E+02  1.92039E+03 -2.26657E+02  1.39434E+03
