 $NMID ID='MM_0lb_SNR200_18hz_g50_28.RAW', FMTDAT='(8E13.5)'
 TRAMP=1., VOLUME=1. $END
  3.10818E+05  4.53019E+02  3.37786E+05  2.50763E+05  8.46873E+04  3.37327E+05 -1.31947E+05  2.50329E+05
 -1.89151E+05  8.29006E+04 -1.12306E+05 -3.18571E+04  8.37340E+02 -5.06495E+04  5.40845E+04  5.12608E+02
  3.50726E+04  5.30919E+04 -1.60955E+04  7.50125E+04 -6.08587E+04  6.23773E+04 -8.36418E+04  3.24034E+04
 -7.99936E+04 -1.21081E+04 -5.62712E+04 -5.02199E+04 -1.48010E+04 -6.82452E+04  2.65893E+04 -4.44328E+04
  3.81543E+04  3.12889E+03  1.54959E+04  4.66110E+04 -3.36698E+04  4.84532E+04 -6.45798E+04 -3.77166E+02
 -5.17214E+04 -5.55927E+04 -6.11245E+03 -7.51767E+04  3.28225E+04 -5.33725E+04  4.73189E+04 -1.57430E+04
  4.22278E+04  1.11370E+04  3.07839E+04  2.51478E+04  1.59368E+04  2.94839E+04 -4.21158E+03  2.64878E+04
 -2.26060E+04  1.16109E+04 -1.91897E+04 -4.23289E+03  4.00722E+03 -7.15148E+03  2.20488E+04  1.25269E+04
  7.45904E+03  3.35816E+04 -2.99176E+04  3.32488E+04 -6.07047E+04  1.77510E+03 -5.58129E+04 -4.06734E+04
 -1.32596E+04 -5.93583E+04  3.85521E+04 -4.37355E+04  5.53769E+04 -1.24828E+03  3.11718E+04  3.01426E+04
 -5.64713E+03  3.48285E+04 -2.93708E+04  1.40282E+04 -2.77712E+04 -6.27982E+03 -1.56088E+04 -1.05775E+04
 -8.24506E+03 -1.22335E+04 -7.13608E+02 -1.71643E+04  6.62713E+03 -2.25995E+04  1.47768E+04 -1.38623E+04
  1.35471E+04  4.05462E+03 -6.28412E+03  1.31016E+04 -2.01447E+04 -2.81209E+03 -7.39885E+03 -3.13723E+04
  2.13324E+04 -4.18248E+04  4.57114E+04 -1.88808E+04  4.23589E+04  1.83130E+04  1.39762E+04  4.26879E+04
 -1.55053E+04  3.19894E+04 -2.31992E+04  7.57940E+02 -8.82181E+03 -2.77157E+04  2.14984E+04 -3.18552E+04
  3.79320E+04 -7.25948E+03  3.26051E+04  2.23467E+04  1.59753E+04  4.51364E+04 -6.89976E+03  4.56802E+04
 -2.92157E+04  3.12740E+04 -3.78725E+04  8.55005E+03 -3.97570E+04 -1.51228E+04 -2.22170E+04 -3.36524E+04
  6.87514E+03 -3.51635E+04  2.95226E+04 -1.24615E+04  2.77021E+04  1.13307E+04  4.10954E+03  1.83163E+04
 -1.33949E+04  7.37784E+03 -1.02603E+04 -6.97396E+03  6.57548E+03 -9.18160E+03  1.69887E+04  6.09603E+03
  1.21433E+04  2.25751E+04 -5.76828E+03  2.49427E+04 -2.16998E+04  1.01228E+04 -2.51002E+04 -5.08586E+03
 -1.75181E+04 -1.61363E+04 -6.60480E+03 -1.75363E+04  4.22450E+03 -1.56324E+04  1.31223E+04 -1.53202E+04
  2.30567E+04 -1.22757E+04  2.97685E+04  2.05082E+03  2.25216E+04  1.67488E+04  3.41261E+03  3.32496E+04
 -1.72830E+04  2.76471E+04 -2.60697E+04  9.47649E+03 -2.02308E+04 -1.14931E+04 -3.43470E+03 -1.37585E+04
  2.36437E+03 -4.39902E+03 -3.01383E+03  4.70120E+03 -1.33525E+04  5.19869E+03 -1.43623E+04 -5.62577E+03
 -9.35842E+03 -1.50441E+04  4.82832E+03 -2.08870E+04  1.36918E+04 -1.47854E+04  1.46573E+04 -1.22228E+03
  9.74077E+03  1.27250E+04 -7.11591E+02  1.58175E+04 -1.21619E+04  9.23951E+03 -1.67990E+04 -3.10862E+03
 -1.24447E+04 -1.49374E+04 -1.83189E+03 -1.90689E+04  8.74920E+03 -1.64892E+04  1.66927E+04 -7.78326E+03
  1.55003E+04  1.66650E+03  1.13934E+04  4.32909E+03  5.39331E+03  1.31628E+03  7.98550E+03 -9.43570E+02
  1.47548E+04  2.92448E+03  1.55155E+04  1.32851E+04  9.66175E+03  2.53779E+04 -2.57495E+03  2.78747E+04
 -1.69626E+04  2.19606E+04 -2.51609E+04  1.11245E+04 -2.63891E+04 -1.82468E+03 -2.20047E+04 -1.42827E+04
 -1.09607E+04 -2.17907E+04  6.14920E+03 -1.93940E+04  1.80263E+04 -1.18617E+04  1.59049E+04  4.97244E+03
  5.41868E+03  1.09520E+04 -6.99280E+03  1.08353E+04 -1.38725E+04  2.64909E+03 -1.00601E+04 -8.95338E+03
  1.80792E+02 -1.33366E+04  6.62723E+03 -9.43392E+03  8.03408E+03 -9.67951E+02  2.09200E+03  5.15655E+03
 -6.74326E+03  1.78232E+03 -4.21441E+03 -4.73726E+03 -3.92828E+02 -1.00121E+04  8.76980E+03 -1.04295E+04
  1.22709E+04 -5.68698E+03  1.30811E+04  3.22066E+03  1.16192E+04  1.02349E+04  5.61497E+03  1.43677E+04
 -1.80996E+03  1.65937E+04 -9.57930E+03  1.07155E+04 -1.22048E+04  3.60245E+03 -8.55206E+03 -3.07894E+03
 -4.86517E+03 -4.11109E+03  1.29094E+02  2.56852E+03 -1.75114E+03  2.57336E+03 -4.65078E+03  3.48228E+03
 -8.34070E+03 -8.39879E+02 -9.11709E+03 -6.35671E+03 -4.53022E+03 -1.29235E+04  4.17095E+03 -7.74270E+03
  7.72200E+03 -3.40195E+03  5.39797E+03  1.57993E+03  1.76595E+02  4.02817E+03 -3.90216E+03  2.71046E+02
 -3.83914E+03 -5.61805E+03 -1.82503E+03 -7.74240E+03  4.17150E+03 -9.24774E+03  1.09794E+04 -5.18627E+03
  1.18002E+04  9.74657E+02  8.21098E+03  7.17692E+03  9.81408E+02  8.84746E+03 -5.69172E+03  7.87893E+03
 -7.10431E+03  2.47032E+03 -4.03681E+03 -1.12627E+03  1.67409E+03 -2.81655E+03  4.35956E+03 -4.67284E+02
  4.95279E+03  3.14767E+03  1.03776E+03  6.64939E+03 -4.86311E+03  5.78517E+03 -8.75666E+03  2.39555E+03
 -5.73365E+03 -3.92894E+03  3.44779E+02 -5.95239E+03  4.75939E+03 -4.31843E+03  4.32263E+03  7.15063E+01
  3.36188E+02  3.54591E+03 -3.80145E+03  5.98540E+03 -4.71981E+03  2.33527E+03 -5.10545E+03 -1.22433E+03
 -3.44588E+03 -6.51682E+03  7.14030E+02 -8.23957E+03  6.15763E+03 -5.18988E+03  7.19256E+03  9.91408E+02
  4.67902E+03  4.64373E+03 -4.22683E+02  7.03062E+03 -5.96125E+03  4.63384E+03 -5.15259E+03 -1.18724E+03
 -5.06144E+03 -4.99798E+03  3.96543E+01 -5.02717E+03  2.23215E+03 -5.26119E+03  2.28581E+03 -3.83973E+03
  2.88613E+03  1.36106E+03 -9.81570E+02  2.01724E+03  7.96109E+02 -3.33150E+02 -6.06060E+02 -2.49922E+03
  4.68498E+03 -1.04339E+03  5.82062E+03  7.68098E+02  6.76307E+03  2.40913E+03  6.27406E+03  7.50610E+03
 -1.19857E+03  1.05140E+04 -7.96962E+03  6.08025E+03 -9.41476E+03  1.85838E+03 -8.61251E+03 -2.47011E+03
 -4.62827E+03 -5.58139E+03 -3.21808E+02 -4.82361E+03  2.28383E+03 -2.70862E+03  1.18504E+03 -1.71441E+03
  4.05522E+02 -1.28013E+03  2.65041E+03 -3.16203E+03  2.82675E+03 -2.54069E+03  4.38032E+03  1.02224E+03
  4.82384E+03  1.07231E+03  6.17575E+02  3.60696E+03 -6.19110E+02  2.99952E+03 -4.76484E+03  3.45643E+03
 -4.44487E+03 -1.63181E+03 -1.87805E+03 -3.26787E+03 -5.02458E+02 -5.61589E+03  2.65548E+03 -5.75516E+03
  5.55243E+03 -3.99780E+03  6.15157E+03  3.64476E+02  4.81534E+03  4.23444E+03  7.27866E+02  6.96054E+03
 -2.99743E+03  5.48963E+03 -4.10200E+03  1.85521E+03 -2.86323E+03 -1.01157E+03 -3.21925E+02 -2.78625E+02
 -5.68839E+02  1.28256E+03 -5.47974E+02  1.65831E+03 -2.04637E+03  6.54784E+02 -3.24994E+03 -8.25582E+02
 -1.71598E+03 -4.15151E+03  4.85592E+02 -5.71833E+03  3.08947E+03 -4.32576E+03  4.19685E+03 -1.18458E+03
  4.77703E+03  2.80206E+03  2.16954E+03  3.28253E+03 -6.54916E+02  3.84684E+03 -1.88353E+03  3.16957E+03
 -4.17084E+03  4.39176E+02 -4.38807E+03 -2.73092E+03  5.95476E+02 -3.13211E+03  1.23962E+03 -2.71210E+03
  3.17717E+03 -1.29800E+03  7.96862E+02  5.63407E+02  5.61443E+02  1.52252E+03  1.48173E+03  2.90502E+02
  1.98313E+03  3.08568E+02  1.09045E+03  9.26154E+02  1.25343E+03  2.77050E+03  1.35639E+03  2.18016E+03
 -1.97436E+03  3.30274E+03 -2.18779E+03  4.53311E+03 -3.36997E+03  1.01306E+03 -4.65434E+03 -1.35329E+03
 -2.20048E+03 -3.41213E+03  1.03976E+03 -4.43531E+03  2.71707E+03 -3.07968E+03  3.67226E+03 -1.23129E+03
  3.31210E+03  2.61357E+03  9.53046E+02  3.22171E+03 -1.36953E+03  1.86388E+03 -1.17622E+03 -1.18499E+02
 -1.85632E+02 -1.77044E+03  2.49300E+03 -5.88397E+02  1.35631E+03 -1.74464E+03  1.71456E+03  1.02932E+03
  1.17750E+03  8.31525E+02 -7.78346E+01 -2.53787E+02 -1.63362E+02  1.32384E+03  2.12355E+03  1.25286E+02
  1.17378E+02 -6.84898E+02  1.86302E+03  2.14261E+02  4.39494E+02  2.77581E+03 -2.36382E+02  2.91316E+03
 -7.49265E+02  1.00999E+03 -1.92773E+03  4.36988E+01 -1.91602E+03 -1.81483E+03  2.58079E+02 -1.69547E+03
  1.14645E+03 -9.52172E+02  1.03270E+03 -4.69069E+02  3.13670E+02  1.52860E+03 -2.03912E+02  9.81556E+02
 -1.75098E+03  3.46760E+02 -1.72859E+03 -1.28938E+03 -1.44260E+03 -2.14488E+03 -7.67053E+02 -1.84073E+03
  1.26059E+03 -1.75856E+03  4.47670E+02 -3.88335E+01  1.56982E+03 -9.85180E+01  1.70299E+03  6.24272E+02
 -8.79124E+02  4.98487E+02 -1.19441E+03 -4.80337E+02  4.72639E+02 -1.46232E+03  1.29529E+03 -1.34895E+03
  4.72275E+02  6.45953E+01  2.67205E+03  7.37569E+01  5.03369E+02  1.41089E+03 -1.16535E+03  2.27716E+03
 -2.00419E+03 -7.00146E+01 -9.87735E+02 -5.21494E+02 -1.15648E+03 -9.21248E+02  6.26695E+02 -1.01231E+03
  1.13556E+03 -1.77319E+03  1.46683E+03  1.20919E+03 -1.16561E+03  2.53638E+03  1.27666E+03  1.22729E+03
 -1.25798E+03  6.02713E+01 -7.09087E+02 -2.20279E+02  5.20063E+02  9.51659E+01 -6.60888E+02  4.28678E+02
 -7.22284E+02  1.79751E+02 -1.84809E+03  8.43101E+01 -2.07289E+03 -4.19915E+02 -2.29947E+03 -1.25141E+03
 -1.28357E+01 -2.49251E+03  1.07988E+03 -2.51350E+03  1.15450E+03 -3.73251E+03  2.13525E+03 -1.25597E+03
  1.65207E+03 -3.29291E+02  1.94681E+03  1.72944E+03 -6.46448E+02  2.19182E+03 -1.32666E+03  1.44246E+03
 -7.07099E+02  2.83720E+02 -2.59174E+02 -1.83160E+02 -9.13175E+02  1.73189E+02 -1.65225E+02  1.85302E+02
 -8.99837E+02 -7.72234E+02 -1.09302E+03  1.11169E+02  3.70306E+02 -4.35922E+02  5.41458E+02 -1.91801E+02
  1.22969E+03 -1.51636E+03  7.64062E+00  3.15649E+02  1.45831E+03  1.38324E+03  2.88164E+02  1.26559E+03
 -1.06386E+03  1.52142E+03 -2.05653E+03  1.67399E+03 -1.38444E+03  3.71724E+02 -2.50204E+03 -9.33951E+02
 -7.10891E+02 -1.13730E+03  8.74357E+02 -1.60638E+03 -3.43933E+02 -4.58357E+02  2.08479E+03 -6.65097E+02
  1.26241E+02  1.07372E+03 -6.64810E+02  3.95935E+02 -9.16847E+02 -4.63807E+02 -1.29724E+03 -8.00046E+02
 -5.75577E+02 -1.89298E+02  7.67795E+02  6.55257E+02  2.43919E+01  6.15692E+02  5.18711E+02 -7.08724E+02
 -4.09912E+02  2.07210E+03 -7.29187E+02 -1.56281E+02 -5.69231E+02 -1.13046E+03  9.15631E+02 -2.92544E+02
  5.89371E+02 -1.33199E+03  4.13603E+02  8.63565E+02  1.33357E+03 -5.01843E+02 -6.67620E+01  1.50941E+03
  9.13152E+02  6.01637E+02  3.73585E+02  6.32238E+02 -9.69451E+02  1.62951E+03 -7.10562E+00  1.40291E+03
 -1.40253E+03 -7.78061E+02 -2.05239E+03  1.22639E+03 -6.19157E+02 -7.81678E+02  4.34946E+02 -2.25850E+02
 -9.27103E+02  4.63583E+02 -4.88345E+02 -4.18552E+02  1.17847E+03 -1.59004E+03  1.57542E+03 -1.15455E+03
  6.42875E+02 -3.80244E+02 -1.17433E+03  1.51988E+02 -8.28400E+02 -2.47989E+01 -9.28952E+02  1.08764E+03
