 $NMID ID='MM_0lb_SNR200_14hz_g45_82.RAW', FMTDAT='(8E13.5)'
 TRAMP=1., VOLUME=1. $END
  3.09938E+05 -2.42303E+01  3.37332E+05  2.50603E+05  8.41281E+04  3.37765E+05 -1.32067E+05  2.51129E+05
 -1.90611E+05  8.24077E+04 -1.11533E+05 -3.32523E+04  1.23951E+02 -4.91149E+04  5.39716E+04 -1.39309E+02
  3.45200E+04  5.39112E+04 -1.75646E+04  7.53085E+04 -6.04088E+04  6.51179E+04 -8.46323E+04  3.15912E+04
 -8.04375E+04 -1.05178E+04 -5.76331E+04 -5.24159E+04 -1.60377E+04 -6.95774E+04  2.63457E+04 -4.65404E+04
  3.98221E+04  4.25379E+03  1.59468E+04  4.76081E+04 -3.37853E+04  4.77271E+04 -6.63863E+04 -7.98444E+02
 -5.34248E+04 -5.49156E+04 -7.08796E+03 -7.68656E+04  3.33150E+04 -5.58173E+04  4.87544E+04 -1.69604E+04
  4.29365E+04  1.25416E+04  3.12187E+04  2.54624E+04  1.55772E+04  2.87204E+04 -4.77123E+03  2.65917E+04
 -2.13866E+04  1.25486E+04 -1.76056E+04 -4.16693E+03  5.58852E+03 -6.41111E+03  2.24436E+04  1.21247E+04
  6.40339E+03  3.65338E+04 -3.15987E+04  3.56568E+04 -6.26279E+04  1.27237E+03 -5.67099E+04 -4.25214E+04
 -1.18476E+04 -6.29618E+04  3.96246E+04 -4.59547E+04  5.79750E+04 -3.69801E+03  3.48228E+04  3.20727E+04
 -4.83004E+03  3.66407E+04 -2.94929E+04  1.50053E+04 -3.06534E+04 -4.60201E+03 -1.63236E+04 -1.02340E+04
 -9.07327E+03 -1.26661E+04 -1.07398E+03 -1.91221E+04  8.16758E+03 -2.29811E+04  1.56733E+04 -1.23979E+04
  1.07805E+04  4.24457E+03 -7.96109E+03  1.37569E+04 -2.13238E+04 -3.93645E+03 -8.86715E+03 -3.29638E+04
  2.32078E+04 -4.28965E+04  4.87084E+04 -1.98069E+04  4.48030E+04  2.04053E+04  1.62414E+04  4.37935E+04
 -1.62624E+04  3.30932E+04 -2.36670E+04  1.32076E+03 -9.12575E+03 -2.75130E+04  2.12334E+04 -3.45105E+04
  4.15790E+04 -8.72895E+03  3.47392E+04  2.23326E+04  1.72974E+04  4.63125E+04 -7.52776E+03  5.06267E+04
 -3.09965E+04  3.32578E+04 -4.20649E+04  8.94184E+03 -4.17049E+04 -1.62182E+04 -2.37908E+04 -3.75670E+04
  7.29978E+03 -3.74125E+04  3.11244E+04 -1.47784E+04  2.87978E+04  1.19504E+04  4.82922E+03  1.96013E+04
 -1.35230E+04  8.95311E+03 -1.04385E+04 -6.59848E+03  5.15097E+03 -1.15756E+04  1.73603E+04  5.72510E+03
  1.33846E+04  2.19022E+04 -5.86887E+03  2.48806E+04 -2.14324E+04  1.16659E+04 -2.83332E+04 -4.66011E+03
 -2.01138E+04 -1.71596E+04 -8.44738E+03 -2.10806E+04  3.46183E+03 -1.86852E+04  1.60360E+04 -1.69444E+04
  2.53810E+04 -1.28966E+04  3.17371E+04  1.26745E+03  2.35289E+04  2.02160E+04  3.42963E+03  3.52661E+04
 -1.83806E+04  2.96598E+04 -3.00566E+04  1.00592E+04 -2.17736E+04 -1.05930E+04 -4.83091E+03 -1.28501E+04
  2.15299E+03 -2.84677E+03 -5.34091E+03  6.43239E+03 -1.51079E+04  4.98473E+03 -1.52345E+04 -4.52744E+03
 -9.63844E+03 -1.70102E+04  5.11757E+03 -2.27112E+04  1.60646E+04 -1.69116E+04  1.77958E+04 -1.39098E+03
  1.24318E+04  1.29345E+04 -1.30362E+03  1.97664E+04 -1.23260E+04  9.64858E+03 -1.80022E+04 -4.67790E+03
 -1.43593E+04 -1.81673E+04 -2.25236E+03 -2.26869E+04  9.81164E+03 -1.78859E+04  1.84259E+04 -8.72391E+03
  1.78674E+04  2.16363E+02  1.20219E+04  4.07659E+03  5.99536E+03  5.99532E+02  1.07489E+04 -2.86921E+03
  1.65570E+04  2.77256E+03  1.95485E+04  1.57661E+04  1.28262E+04  3.16193E+04 -1.37132E+03  3.40269E+04
 -1.86244E+04  2.71690E+04 -3.05763E+04  1.35702E+04 -3.26685E+04 -3.55933E+03 -2.72574E+04 -1.94452E+04
 -1.27562E+04 -2.70612E+04  9.47855E+03 -2.39771E+04  2.13144E+04 -1.32360E+04  1.96251E+04  5.39513E+03
  6.18874E+03  1.36149E+04 -8.24790E+03  1.22199E+04 -1.68307E+04  2.33832E+03 -1.15847E+04 -9.77019E+03
 -4.86722E+02 -1.40410E+04  7.61395E+03 -1.04342E+04  9.91625E+03 -1.56360E+03  1.27697E+03  6.42042E+03
 -6.74126E+03  2.86057E+03 -6.25052E+03 -6.16923E+03 -1.08706E+02 -1.32616E+04  1.02359E+04 -1.38950E+04
  1.63514E+04 -6.78101E+03  1.63789E+04  3.04949E+03  1.54559E+04  1.43936E+04  6.54539E+03  1.96933E+04
 -3.18552E+03  2.09680E+04 -1.46399E+04  1.37559E+04 -1.57043E+04  1.77014E+03 -1.10932E+04 -4.19179E+03
 -4.96202E+03 -5.67108E+03 -8.32163E+02  1.06017E+03 -2.16147E+03  2.26646E+03 -4.41681E+03  4.16820E+03
 -9.64736E+03 -2.75866E+02 -1.05704E+04 -9.30620E+03 -5.62420E+03 -1.53602E+04  5.35077E+03 -1.05859E+04
  9.55577E+03 -4.36157E+03  6.76179E+03  2.04380E+03  1.15633E+03  4.13010E+03 -5.73854E+03  1.98709E+02
 -4.60534E+03 -6.34171E+03 -8.18577E+02 -1.06507E+04  6.12601E+03 -1.10094E+04  1.38815E+04 -7.38686E+03
  1.40934E+04  1.57448E+03  1.09068E+04  8.68344E+03  2.37942E+03  1.17424E+04 -7.17304E+03  1.04945E+04
 -9.09071E+03  4.05150E+03 -4.53451E+03 -2.34949E+03  2.36203E+03 -3.92172E+03  6.49857E+03 -9.99176E+02
  5.23972E+03  3.81815E+03  9.59199E+02  9.06349E+03 -5.47512E+03  7.74159E+03 -1.06100E+04  2.09949E+03
 -7.21532E+03 -4.08668E+03  2.68345E+02 -1.02102E+04  5.31578E+03 -5.45126E+03  5.07875E+03  1.66698E+03
  2.21277E+03  6.56477E+03 -5.15217E+03  7.40505E+03 -7.72255E+03  3.89121E+03 -7.76121E+03 -3.32211E+03
 -4.43929E+03 -9.59157E+03  2.30973E+03 -1.18452E+04  9.88710E+03 -6.72639E+03  1.06383E+04  2.14538E+03
  6.65327E+03  7.79923E+03 -4.25130E+02  9.52158E+03 -8.01822E+03  5.83890E+03 -8.14665E+03  2.39336E+02
 -7.69140E+03 -6.98309E+03 -1.43099E+03 -6.87706E+03  4.14522E+03 -6.69097E+03  4.93123E+03 -2.39108E+03
  2.25672E+03  1.10224E+03 -1.33693E+03  1.46733E+03 -1.89046E+03 -1.58366E+02  7.43504E+02 -3.44728E+03
  5.57188E+03 -1.43163E+03  8.60637E+03  1.43466E+03  7.99351E+03  5.49609E+03  6.95655E+03  1.16547E+04
 -2.83040E+03  1.34186E+04 -1.18318E+04  1.07288E+04 -1.47971E+04  2.05080E+03 -1.09344E+04 -5.94792E+03
 -6.86276E+03 -9.98934E+03  6.88626E+02 -8.52342E+03  3.80136E+03 -3.36615E+03  2.88863E+03 -3.50455E+03
  1.73357E+03 -2.95912E+03  2.64692E+03 -2.50572E+03  4.68775E+03 -1.89670E+03  4.85406E+03 -3.42001E+02
  6.51032E+03  2.32099E+03  4.07319E+03  5.53628E+03 -8.32773E+02  5.96414E+03 -6.74530E+03  3.77913E+03
 -8.06873E+03 -1.25057E+03 -5.41090E+03 -5.04323E+03  1.08239E+03 -8.24194E+03  5.59713E+03 -9.28004E+03
  9.11371E+03 -4.75745E+03  1.14271E+04  2.18894E+03  7.17181E+03  7.75259E+03  2.26057E+03  9.94880E+03
 -4.55482E+03  7.85113E+03 -5.22944E+03  3.70019E+03 -3.55109E+03 -1.45178E+03 -1.13209E+03 -9.59479E+02
 -7.29043E+02 -3.32765E+00 -1.36270E+03  6.89632E+02 -2.91565E+03  2.28149E+03 -5.37766E+03 -1.31736E+03
 -2.26359E+03 -6.73098E+03  2.47807E+02 -8.55519E+03  4.22960E+03 -7.65721E+03  6.54455E+03 -1.72226E+03
  7.69897E+03  3.83615E+03  4.54849E+03  6.72820E+03 -5.07841E+02  7.62689E+03 -4.72172E+03  4.26743E+03
 -7.39001E+03  4.22812E+02 -5.87292E+03 -4.11001E+03 -1.66064E+01 -6.56978E+03  2.96816E+03 -5.23940E+03
  5.11900E+03 -1.28807E+03  3.00113E+03  1.23057E+03  1.16240E+03  1.98828E+03  1.60674E+03  5.97216E+01
  8.28108E+02  5.68165E+02  1.60963E+03  4.29035E+01  2.13632E+02  3.44414E+03  2.53021E+03  3.69678E+03
 -2.62259E+03  5.72763E+03 -4.44788E+03  6.35818E+03 -7.55451E+03  6.72684E+02 -8.24983E+03 -1.69580E+03
 -3.65942E+03 -7.73655E+03  5.41118E+02 -8.90188E+03  4.05644E+03 -5.84625E+03  6.68464E+03 -1.16280E+03
  4.95552E+03  1.96835E+03  3.00038E+02  4.23932E+03 -9.70496E+02  2.22306E+03 -3.77779E+03  9.05869E+02
 -1.69218E+03 -4.16898E+03  2.29964E+03 -2.65512E+03  2.09433E+03 -1.39415E+03  3.60702E+03 -8.18431E+02
  1.55061E+03  4.76258E+02  1.15532E+03  1.97952E+02 -7.15891E+02  2.84114E+03  2.93999E+03  3.91114E+02
  1.02587E+03 -5.97353E+02  3.47870E+03  9.22553E+02  1.68275E+03  4.44648E+03 -1.65705E+03  4.91325E+03
 -4.56539E+03  3.03579E+03 -4.71860E+03 -3.23730E+02 -1.93167E+03 -1.45937E+03 -2.19591E+03 -2.46670E+03
  2.04269E+02 -2.95168E+03  1.75615E+03  1.32013E+02  2.21905E+03  2.66189E+03 -6.49878E+01  1.45434E+03
 -4.55991E+03  1.31563E+02 -4.12476E+03 -1.74470E+03 -1.98342E+03 -4.00369E+03  5.30167E+02 -3.15335E+03
  1.24095E+03 -2.97791E+03  2.48090E+03  7.53170E+02  1.18673E+03  2.55197E+02  1.12875E+03  3.09060E+03
 -1.56135E+03  1.90344E+02 -1.87825E+03 -1.26908E+03  7.87689E+02 -2.25612E+03  2.50663E+03 -2.31886E+03
  2.75634E+03  1.10449E+03  3.76220E+03  2.50238E+03  2.98824E+03  4.60362E+03 -2.45220E+03  4.85711E+03
 -4.71158E+03  8.46803E+02 -2.96117E+03 -1.30415E+03 -2.14471E+03 -2.61832E+03  2.82773E+02 -3.20885E+03
  1.61668E+03 -2.23571E+03  2.35877E+03  2.21912E+03 -6.65568E+01  2.86684E+03 -1.06382E+03  2.76585E+03
 -5.51396E+02  1.20810E+03 -1.39954E+03  1.51560E+03 -6.18943E+02 -4.90911E+02 -9.38980E+02  1.26129E+03
 -2.84453E+02  2.08433E+03 -2.57389E+03  1.30428E+03 -3.93369E+03 -7.79448E+02 -5.31802E+03 -2.53161E+03
 -2.58664E+03 -4.95579E+03  1.20497E+03 -5.58388E+03  3.57916E+03 -4.45133E+03  5.74181E+03 -2.48248E+03
  5.92298E+03 -1.19459E+02  3.23786E+03  3.97611E+03 -1.78303E+03  4.33668E+03 -8.90369E+02  3.88842E+03
 -2.68676E+03  1.95595E+03 -1.40643E+02 -1.50381E+02  6.27140E+01 -8.93384E+02 -2.12121E+02 -2.71749E+02
 -1.47975E+03 -1.18273E+03 -1.94628E+03  2.39877E+02  1.67001E+02 -7.14656E+02 -1.22750E+03 -1.69137E+03
  2.33197E+03 -8.81079E+02  2.17644E+03 -9.35608E+02  4.53084E+03  1.88520E+03 -2.89561E+02  4.03538E+03
 -1.14465E+03  4.26359E+03 -3.81610E+03  2.60622E+03 -4.44137E+03 -1.17142E+02 -3.15066E+03 -4.15829E+03
 -1.05493E+03 -3.41519E+03  2.22517E+03 -3.71249E+03  1.30623E+03 -1.97346E+03  1.82800E+03 -6.93474E+02
  1.20084E+03  1.35548E+03 -1.62692E+02  2.00348E+03 -7.62896E+02 -1.58701E+02 -3.63097E+02 -8.12197E+02
  2.23761E+03  6.35848E+02  1.79413E+03  1.44540E+03  1.72421E+03  1.17103E+03 -3.77443E+02  1.94410E+03
 -2.28665E+03  1.79768E+03 -2.76444E+03 -5.56304E+02 -2.44954E+03 -1.07626E+03 -2.14684E+02 -4.05014E+03
  1.72432E+03 -2.91455E+03  2.21010E+03 -6.59230E+02  3.53525E+03  1.59604E+03  1.24760E+03  2.20056E+03
  1.39344E+01  2.12448E+03 -6.55372E+01  1.78814E+03 -2.12195E+03  5.47280E+02 -1.96014E+03  6.83124E+02
  4.99511E+02 -5.40429E+02 -1.97168E+02  3.76312E+02 -1.66777E+03 -1.05003E+03 -8.27890E+02 -1.34324E+03
 -3.10551E+03 -8.20097E+02  3.85140E+02 -3.19839E+03  1.57500E+03 -3.38790E+03  1.36721E+03 -1.99239E+03
  2.79257E+03 -9.14317E+02  8.46318E+02  9.53288E+02  3.20462E+02  1.01045E+03 -1.47940E+03  1.55356E+03
