 $NMID ID='MM_0lb_SNR200_11hz_g55_5.RAW', FMTDAT='(8E13.5)'
 TRAMP=1., VOLUME=1. $END
  3.11278E+05  1.48141E+03  3.37912E+05  2.50070E+05  8.45021E+04  3.37365E+05 -1.32278E+05  2.51975E+05
 -1.91421E+05  8.40187E+04 -1.11683E+05 -3.50517E+04  2.05334E+02 -4.98583E+04  5.44284E+04  7.37951E+02
  3.60050E+04  5.32548E+04 -1.61029E+04  7.64671E+04 -5.95089E+04  6.45122E+04 -8.45364E+04  3.30531E+04
 -8.33381E+04 -1.13324E+04 -5.73515E+04 -5.18139E+04 -1.45862E+04 -7.07454E+04  2.78129E+04 -4.62434E+04
  4.01590E+04  3.59095E+03  1.63318E+04  4.83498E+04 -3.45525E+04  4.90703E+04 -6.78471E+04  1.89087E+02
 -5.39163E+04 -5.75748E+04 -6.86675E+03 -7.96250E+04  3.37508E+04 -5.68756E+04  5.09503E+04 -1.81547E+04
  4.59809E+04  1.09284E+04  3.26134E+04  2.66779E+04  1.69640E+04  3.07319E+04 -6.82868E+03  2.70439E+04
 -2.30737E+04  1.18607E+04 -1.88928E+04 -5.95006E+03  7.69912E+03 -7.72373E+03  2.21821E+04  1.28321E+04
  6.38781E+03  3.75485E+04 -3.47301E+04  3.75821E+04 -6.42808E+04  6.62140E+02 -5.78198E+04 -4.46404E+04
 -1.37690E+04 -6.55490E+04  4.09520E+04 -4.78027E+04  6.05984E+04 -2.20379E+03  3.49150E+04  3.29548E+04
 -5.48071E+03  3.85031E+04 -3.18253E+04  1.73680E+04 -3.21745E+04 -4.14914E+03 -1.88039E+04 -1.13378E+04
 -8.12594E+03 -1.30370E+04  2.04433E+02 -1.86170E+04  7.78354E+03 -2.34831E+04  1.54971E+04 -1.25475E+04
  1.00961E+04  6.32671E+03 -1.01306E+04  1.30092E+04 -2.40059E+04 -5.17208E+03 -8.43770E+03 -3.58891E+04
  2.51014E+04 -4.63423E+04  5.29849E+04 -2.12480E+04  4.64461E+04  1.95298E+04  1.71166E+04  4.62775E+04
 -1.78099E+04  3.55269E+04 -2.66156E+04  2.18488E+03 -1.01082E+04 -2.87711E+04  2.23509E+04 -3.57274E+04
  4.34785E+04 -1.15005E+04  3.87527E+04  2.65286E+04  1.98948E+04  4.97804E+04 -6.19693E+03  5.45786E+04
 -3.42957E+04  3.53856E+04 -4.58557E+04  1.04614E+04 -4.49578E+04 -1.86532E+04 -2.60702E+04 -4.03992E+04
  7.55406E+03 -4.06832E+04  3.33780E+04 -1.68066E+04  3.30508E+04  1.12282E+04  5.34172E+03  2.01338E+04
 -1.37370E+04  9.67345E+03 -1.13700E+04 -6.76387E+03  6.12120E+03 -1.17004E+04  1.81081E+04  5.37397E+03
  1.38704E+04  2.30227E+04 -4.57685E+03  2.65008E+04 -2.37489E+04  1.25811E+04 -3.05144E+04 -2.91490E+03
 -2.33289E+04 -1.68526E+04 -9.56362E+03 -2.27758E+04  3.69108E+03 -2.39337E+04  1.66220E+04 -2.12593E+04
  2.85856E+04 -1.26715E+04  3.64581E+04  4.60709E+03  2.61497E+04  2.30660E+04  4.99300E+03  4.16230E+04
 -2.00127E+04  3.29492E+04 -3.14972E+04  1.10432E+04 -2.14021E+04 -1.12657E+04 -4.55583E+03 -1.29724E+04
 -3.88366E+02 -2.06544E+03 -7.53340E+03  7.75011E+03 -1.87441E+04  4.29324E+03 -1.88074E+04 -8.01790E+03
 -1.07153E+04 -2.11914E+04  7.25062E+03 -2.61703E+04  1.64197E+04 -1.98716E+04  2.13032E+04 -1.56510E+03
  1.28942E+04  1.48041E+04 -1.39480E+03  2.29153E+04 -1.59214E+04  1.26143E+04 -2.33077E+04 -4.38722E+03
 -1.49597E+04 -1.98824E+04 -2.62872E+03 -2.57302E+04  1.18875E+04 -2.15398E+04  2.05890E+04 -1.15419E+04
  2.18639E+04  6.24864E+02  1.46790E+04  4.44397E+03  8.45146E+03  2.51939E+03  1.17733E+04 -1.16045E+03
  2.28047E+04  2.85705E+03  2.37798E+04  1.69576E+04  1.42329E+04  3.54020E+04 -2.16356E+03  4.04222E+04
 -2.24973E+04  3.56749E+04 -3.89146E+04  1.67285E+04 -4.10418E+04 -2.22601E+03 -3.40181E+04 -2.41375E+04
 -1.24036E+04 -3.43607E+04  1.23546E+04 -3.17322E+04  2.56402E+04 -1.48996E+04  2.31355E+04  6.96845E+03
  8.04897E+03  1.69373E+04 -1.17517E+04  1.52374E+04 -1.86370E+04  6.93610E+02 -1.63496E+04 -1.32459E+04
  2.49801E+01 -1.82615E+04  8.94599E+03 -1.22927E+04  1.25957E+04 -1.79951E+03  2.23709E+03  8.62072E+03
 -8.88506E+03  2.06516E+03 -9.09986E+03 -6.29184E+03 -2.13868E+03 -1.75680E+04  1.23774E+04 -1.74530E+04
  2.17712E+04 -9.46630E+03  2.46860E+04  2.85173E+03  2.08541E+04  1.68422E+04  7.96059E+03  2.54024E+04
 -5.40522E+03  2.90561E+04 -1.80875E+04  1.72879E+04 -2.11392E+04  2.52714E+03 -1.45302E+04 -5.67745E+03
 -6.94676E+03 -6.48004E+03  9.49295E+01  1.95375E+03 -3.29383E+03  2.11796E+03 -5.90732E+03  4.35417E+03
 -1.33766E+04  8.34005E+02 -1.40477E+04 -1.14288E+04 -5.34328E+03 -1.72650E+04  6.71123E+03 -1.40564E+04
  1.15082E+04 -4.90151E+03  8.29595E+03  3.79761E+03 -8.76352E+02  5.46739E+03 -7.27647E+03 -9.59682E+02
 -6.42221E+03 -8.42665E+03 -1.33605E+03 -1.37892E+04  8.51609E+03 -1.59425E+04  1.74191E+04 -5.95311E+03
  2.15520E+04  2.28957E+03  1.58129E+04  1.34378E+04  4.14612E+03  1.55141E+04 -8.71554E+03  1.54736E+04
 -1.02881E+04  4.87991E+03 -6.51001E+03 -1.52064E+03  2.15432E+03 -4.41478E+03  9.52517E+03 -3.77701E+02
  6.86420E+03  6.63253E+03  6.03667E+02  1.05605E+04 -7.92595E+03  1.08022E+04 -1.47883E+04  2.75624E+03
 -9.66571E+03 -7.91228E+03 -1.86660E+02 -1.13874E+04  9.59893E+03 -6.52441E+03  8.82995E+03  3.51212E+03
  3.05739E+03  8.38737E+03 -5.86594E+03  9.69114E+03 -1.37286E+04  2.79421E+03 -1.04560E+04 -4.01111E+03
 -5.80359E+03 -1.40702E+04  3.30756E+03 -1.66966E+04  1.38145E+04 -1.04006E+04  1.44521E+04  4.00100E+03
  8.53437E+03  1.19424E+04 -1.21833E+03  1.34444E+04 -9.42093E+03  7.97032E+03 -1.29385E+04 -1.28124E+03
 -1.00032E+04 -8.85532E+03 -3.49278E+03 -9.82039E+03  5.78724E+03 -7.70689E+03  6.25998E+03 -3.44218E+03
  3.91652E+03  2.05936E+03  8.14676E+01  6.58300E+02 -1.40522E+02 -3.25664E+03  1.99356E+03 -6.40898E+03
  1.04516E+04 -4.06221E+03  1.49724E+04  1.91749E+03  1.26711E+04  1.00902E+04  9.45491E+03  1.81822E+04
 -4.91521E+03  2.15727E+04 -1.83376E+04  1.48515E+04 -2.35255E+04  2.95064E+03 -1.72363E+04 -5.93071E+03
 -9.43529E+03 -1.40995E+04 -4.28438E+02 -1.20663E+04  5.93084E+03 -7.66272E+03  4.44683E+03 -4.94296E+03
  3.37890E+03 -3.24131E+03  4.01862E+03 -3.40006E+03  5.12899E+03 -4.31476E+03  7.10077E+03 -1.57329E+03
  9.55722E+03  7.99370E+02  4.67203E+03  6.67908E+03 -2.30845E+03  9.43202E+03 -1.00479E+04  6.83377E+03
 -1.19936E+04 -3.44575E+02 -6.45160E+03 -8.25337E+03 -1.03191E+03 -1.23608E+04  7.11756E+03 -1.35822E+04
  1.35357E+04 -8.23105E+03  1.60772E+04  1.58869E+03  1.01965E+04  1.28946E+04  2.76629E+03  1.48702E+04
 -4.67610E+03  1.25595E+04 -8.21991E+03  4.18214E+03 -5.82825E+03 -1.70203E+03 -1.12132E+03 -2.03416E+03
 -5.07991E+02 -1.10438E+03 -4.06355E+03  2.05618E+03 -4.64314E+03  2.23375E+03 -1.01328E+04 -7.59135E+02
 -7.50170E+03 -7.67292E+03  8.14285E+02 -1.17070E+04  8.63008E+03 -1.10573E+04  1.23116E+04 -2.38458E+03
  1.28793E+04  3.89083E+03  4.59398E+03  1.10366E+04 -1.33861E+03  1.22929E+04 -8.66006E+03  7.03724E+03
 -1.16854E+04 -2.00473E+02 -8.87845E+03 -6.22237E+03 -1.73750E+03 -1.03344E+04  3.93389E+03 -7.46819E+03
  8.21136E+03 -2.05684E+03  4.81189E+03  2.84894E+03  2.00013E+03  3.46617E+03  2.62113E+03  1.24691E+03
  2.02238E+03  8.55127E+02  5.08080E+03 -2.13286E+02  5.25969E+03  4.53357E+03  3.84179E+03  6.29632E+03
 -3.85320E+03  8.87272E+03 -8.26029E+03  9.84456E+03 -1.16528E+04  2.08060E+03 -1.11134E+04 -5.30781E+03
 -7.37652E+03 -1.05822E+04  2.10237E+03 -1.41586E+04  7.46791E+03 -8.63562E+03  1.05724E+04 -1.74392E+03
  8.37444E+03  3.95097E+03  5.97482E+02  6.99549E+03 -3.76433E+03  5.95806E+03 -4.12744E+03 -2.34084E+03
 -2.08583E+03 -5.25767E+03  2.78684E+03 -5.58629E+03  5.38565E+03 -3.19849E+03  5.32002E+03  1.33264E+03
  2.36458E+03  1.79229E+03  8.63527E+02  3.35665E+03 -4.74114E+01  1.90121E+03  2.95932E+03 -2.28094E+03
  2.74777E+03  6.55450E+02  4.33040E+03  2.62019E+03  4.50625E+03  6.47869E+03 -5.84839E+02  8.79822E+03
 -4.45832E+03  5.45678E+03 -7.20607E+03  3.00933E+02 -7.38484E+03 -2.29565E+03 -3.61684E+03 -4.46571E+03
  5.58492E+02 -3.89663E+03  3.00705E+03 -2.18051E+03  3.74490E+03  4.84114E+03 -5.46496E+02  3.39965E+03
 -6.33905E+03  2.36033E+03 -5.12245E+03 -2.17046E+03 -3.40239E+03 -8.00535E+03  7.81146E+02 -7.52044E+03
  2.90213E+03 -3.41219E+03  4.12734E+03  1.81277E+02  5.12969E+03  1.35817E+03  5.95031E+02  3.59059E+03
 -6.11112E+02  1.30866E+02 -2.60279E+03 -3.32906E+03  1.29905E+03 -4.89145E+03  5.37589E+03 -2.90190E+03
  7.55731E+03  7.03014E+02  7.75438E+03  4.81655E+03  2.37953E+03  6.27849E+03 -4.20958E+03  7.02249E+03
 -6.13073E+03  2.99030E+03 -6.75660E+03 -3.89202E+02 -4.62386E+03 -4.35554E+03  1.93607E+03 -6.50562E+03
  5.45305E+03 -2.69100E+03  3.64193E+03  4.18800E+03 -2.47246E+02  5.53725E+03 -9.63623E+02  3.48567E+03
 -1.48200E+03  2.25735E+03 -7.51191E+02  9.04667E+02 -3.29074E+02  2.80842E+03 -6.17246E+02  1.91374E+03
 -5.85814E+02  2.79497E+03 -5.71010E+03  3.88543E+03 -8.04894E+03 -1.58672E+03 -7.65568E+03 -3.55171E+03
 -3.71519E+03 -9.92380E+03  1.55120E+03 -1.13718E+04  7.65511E+03 -9.22990E+03  1.13384E+04 -4.27227E+03
  9.31655E+03  1.87430E+03  5.88377E+03  7.06480E+03  1.50980E+03  5.95179E+03 -3.39187E+03  5.94639E+03
 -4.45971E+03  2.36747E+03 -4.07547E+03 -1.10400E+03 -4.22194E+02  1.09049E+02  4.81533E+01  1.37972E+02
 -1.65103E+03  4.64770E+02 -3.02798E+03 -4.42084E+02 -5.93548E+02 -7.98382E+02  2.01789E+02 -2.17525E+03
  2.46282E+03 -1.78588E+03  4.89694E+03 -5.66999E+02  6.49238E+03  2.96118E+03  9.70172E+02  9.07747E+03
 -3.57197E+03  8.67598E+03 -7.85424E+03  5.72705E+03 -8.66705E+03 -7.11885E+02 -7.61349E+03 -5.26925E+03
 -1.44036E+03 -7.24483E+03  1.79400E+03 -7.38301E+03  5.17182E+03 -4.77235E+03  4.07129E+03  3.95530E+02
  4.02080E+03  1.87454E+03 -8.42380E+02  1.06545E+03 -2.13998E+03 -9.96849E+01 -4.74434E+02 -2.99244E+02
  2.87474E+03 -3.51805E+02  2.73497E+03  5.81510E+02  1.97419E+03  1.81213E+03 -9.47694E+02  4.57832E+03
 -3.14508E+03  3.13809E+03 -4.82956E+03  1.44532E+03 -3.98809E+03 -4.53929E+03 -5.51918E+02 -6.05190E+03
  4.86058E+03 -4.21321E+03  5.48256E+03 -1.45349E+01  5.36847E+03  2.37484E+03  2.18723E+03  2.36834E+03
  8.83756E+02  5.63076E+03 -1.23223E+03  2.64218E+03 -2.99198E+03  2.04923E+03 -2.74373E+03 -1.51436E+03
 -1.77935E+03  1.07029E+01 -2.10135E+03  2.10896E+03 -2.32521E+03  1.48719E+03 -4.21926E+03 -1.29525E+03
 -2.35349E+03 -4.23921E+03  2.06288E+02 -5.08699E+03  2.71568E+03 -6.29735E+03  5.76231E+03 -2.95290E+03
  3.98155E+03 -4.06121E+02  1.88217E+03  3.55567E+03 -4.97449E+02  4.66178E+03 -4.56946E+03  3.68155E+03
