 $NMID ID='MM_0lb_SNR200_14hz_g55_69.RAW', FMTDAT='(8E13.5)'
 TRAMP=1., VOLUME=1. $END
  3.10112E+05  6.79634E+02  3.37128E+05  2.50268E+05  8.50720E+04  3.39231E+05 -1.32079E+05  2.51844E+05
 -1.89663E+05  8.30608E+04 -1.11143E+05 -3.16340E+04  9.29248E+02 -4.95926E+04  5.36805E+04 -1.00830E+03
  3.56875E+04  5.32713E+04 -1.80411E+04  7.55135E+04 -6.10237E+04  6.29067E+04 -8.39241E+04  3.08030E+04
 -8.24456E+04 -1.20963E+04 -5.74422E+04 -5.26973E+04 -1.49923E+04 -7.02052E+04  2.89038E+04 -4.63066E+04
  4.05815E+04  3.75862E+03  1.70604E+04  4.91867E+04 -3.46406E+04  4.77014E+04 -6.74796E+04  3.57234E+02
 -5.28207E+04 -5.72161E+04 -7.20379E+03 -7.76242E+04  3.49206E+04 -5.50966E+04  4.83018E+04 -1.67529E+04
  4.44965E+04  1.13896E+04  3.14799E+04  2.59462E+04  1.49195E+04  2.88921E+04 -5.15188E+03  2.71048E+04
 -2.17810E+04  1.19462E+04 -1.90465E+04 -4.93174E+03  5.40618E+03 -7.63141E+03  2.31907E+04  1.27957E+04
  6.92241E+03  3.59122E+04 -3.13854E+04  3.66697E+04 -6.32287E+04  3.04010E+03 -5.75730E+04 -4.25567E+04
 -1.17689E+04 -6.36239E+04  4.08322E+04 -4.51139E+04  5.87494E+04 -1.87011E+03  3.56530E+04  3.25358E+04
 -5.68458E+03  3.70985E+04 -3.03053E+04  1.69270E+04 -2.98999E+04 -5.10098E+03 -1.68015E+04 -1.01658E+04
 -8.53002E+03 -1.38363E+04 -1.67746E+03 -1.78201E+04  7.40862E+03 -2.26533E+04  1.45116E+04 -1.34124E+04
  1.14804E+04  5.15460E+03 -7.39466E+03  1.20488E+04 -2.03286E+04 -4.18108E+03 -8.31960E+03 -3.41929E+04
  2.36420E+04 -4.35795E+04  4.91802E+04 -1.99331E+04  4.53768E+04  1.97338E+04  1.58580E+04  4.51159E+04
 -1.67560E+04  3.38884E+04 -2.67086E+04  3.03427E+03 -1.06491E+04 -2.75081E+04  2.08422E+04 -3.30822E+04
  4.16949E+04 -1.07265E+04  3.68909E+04  2.43142E+04  1.77891E+04  4.85911E+04 -8.37549E+03  5.07901E+04
 -3.14088E+04  3.52272E+04 -4.35743E+04  9.68976E+03 -4.34546E+04 -1.71908E+04 -2.33305E+04 -4.01759E+04
  6.71606E+03 -3.78471E+04  3.19220E+04 -1.53365E+04  2.98466E+04  9.75802E+03  3.99673E+03  2.07293E+04
 -1.31264E+04  8.85958E+03 -9.17272E+03 -8.03296E+03  6.17883E+03 -1.04844E+04  1.86455E+04  8.00000E+03
  1.42715E+04  2.20623E+04 -5.78168E+03  2.36604E+04 -2.32175E+04  1.14189E+04 -2.88605E+04 -4.50529E+03
 -2.18273E+04 -1.77729E+04 -8.62474E+03 -2.15310E+04  5.83997E+03 -2.04831E+04  1.60875E+04 -1.88079E+04
  2.79751E+04 -1.21043E+04  3.26864E+04  3.02375E+03  2.44094E+04  1.91887E+04  3.40301E+03  3.64776E+04
 -1.83599E+04  3.08461E+04 -2.97705E+04  1.00863E+04 -2.08566E+04 -1.03355E+04 -4.70219E+03 -1.34784E+04
  1.30251E+03 -2.46259E+03 -6.71556E+03  6.82405E+03 -1.61287E+04  5.47878E+03 -1.69986E+04 -7.77505E+03
 -1.12669E+04 -2.06357E+04  4.94631E+03 -2.44238E+04  1.59169E+04 -1.61604E+04  1.88440E+04 -1.27380E+03
  1.16281E+04  1.30556E+04 -1.03641E+03  2.09275E+04 -1.35557E+04  1.11191E+04 -2.02390E+04 -3.81892E+03
 -1.51186E+04 -1.68547E+04 -1.04254E+03 -2.38981E+04  1.07710E+04 -2.02381E+04  2.03782E+04 -9.51858E+03
  1.79281E+04  6.82164E+02  1.24201E+04  4.71823E+03  8.14928E+03  1.92786E+03  1.03795E+04 -1.43103E+03
  1.82762E+04  3.29646E+03  1.93545E+04  1.41696E+04  1.41431E+04  3.20757E+04 -3.32486E+03  3.67032E+04
 -2.10004E+04  2.87100E+04 -3.31641E+04  1.54997E+04 -3.46856E+04 -2.39114E+03 -2.89313E+04 -2.06389E+04
 -1.23299E+04 -2.88991E+04  1.06053E+04 -2.49982E+04  2.25101E+04 -1.42220E+04  1.86980E+04  6.33070E+03
  7.17907E+03  1.48960E+04 -1.00952E+04  1.19417E+04 -1.66121E+04  2.79208E+03 -1.34743E+04 -1.07091E+04
  2.25008E+02 -1.61504E+04  9.79489E+03 -1.16579E+04  1.05391E+04 -5.58562E+02  2.69677E+03  5.68103E+03
 -7.11440E+03  3.10006E+03 -6.58906E+03 -3.77949E+03  5.02250E+02 -1.41096E+04  8.71305E+03 -1.28383E+04
  1.77829E+04 -8.67739E+03  1.85084E+04  4.07983E+03  1.63566E+04  1.41024E+04  6.57150E+03  2.16852E+04
 -3.07705E+03  2.38054E+04 -1.48021E+04  1.50818E+04 -1.63672E+04  5.15465E+03 -1.23036E+04 -3.91431E+03
 -5.22459E+03 -3.57039E+03 -6.05507E+02  9.87480E+02 -2.88989E+03  2.17676E+03 -5.08360E+03  3.30717E+03
 -1.12008E+04 -1.05072E+02 -1.03223E+04 -9.10425E+03 -3.90729E+03 -1.41003E+04  4.12267E+03 -1.16823E+04
  9.08729E+03 -4.01988E+03  7.10347E+03  2.12887E+03  2.48537E+02  3.62681E+03 -5.19142E+03  4.08947E+02
 -4.33801E+03 -7.89500E+03 -2.03292E+03 -1.13060E+04  6.09201E+03 -1.06473E+04  1.54775E+04 -5.42736E+03
  1.71867E+04  7.53871E+02  1.26260E+04  9.29527E+03  2.19165E+03  1.32816E+04 -7.92155E+03  1.01227E+04
 -9.55628E+03  2.82841E+03 -3.90505E+03 -1.47854E+03  1.75041E+03 -2.32424E+03  6.11310E+03 -1.01715E+03
  4.97788E+03  5.53781E+03  1.63472E+03  1.06269E+04 -7.06006E+03  9.04510E+03 -1.17372E+04  2.50154E+03
 -5.87420E+03 -5.95878E+03  6.50229E+00 -9.78827E+03  6.39926E+03 -4.52500E+03  7.64438E+03  3.03678E+03
  8.01064E+02  6.82374E+03 -6.09516E+03  7.67343E+03 -6.76336E+03  2.88134E+03 -6.94805E+03 -4.23242E+03
 -5.31324E+03 -8.63758E+03  1.19334E+03 -1.26154E+04  1.07660E+04 -7.54896E+03  1.11162E+04  1.07086E+03
  7.38990E+03  9.66530E+03 -2.81694E+02  1.15505E+04 -7.97237E+03  5.10221E+03 -6.98441E+03 -8.42910E+02
 -7.91468E+03 -7.49873E+03 -8.55354E+02 -8.66305E+03  4.28466E+03 -7.15331E+03  4.80836E+03 -4.57986E+03
  2.86061E+03  5.45129E+02  7.16672E+02  1.45838E+03  1.85900E+02 -2.18345E+03  1.63089E+03 -3.73559E+03
  7.08296E+03 -2.85480E+03  9.25615E+03  1.05577E+03  9.36005E+03  6.95023E+03  7.49863E+03  1.30863E+04
 -1.70131E+03  1.54842E+04 -1.22009E+04  1.19563E+04 -1.59281E+04  2.16425E+03 -1.30759E+04 -5.36537E+03
 -6.85466E+03 -1.07888E+04 -3.45949E+02 -9.70173E+03  3.77163E+03 -4.86902E+03  3.60412E+03 -3.24544E+03
  2.18343E+03 -2.47644E+03  3.45728E+03 -3.30870E+03  5.41186E+03 -1.90543E+03  5.68256E+03 -5.15932E+02
  7.98923E+03  2.66097E+03  3.44976E+03  4.85514E+03 -1.62125E+03  6.30390E+03 -7.12328E+03  5.18029E+03
 -8.49928E+03 -1.92998E+03 -5.18665E+03 -6.95883E+03  2.86111E+02 -8.32357E+03  5.88665E+03 -8.00572E+03
  1.06470E+04 -5.96339E+03  1.08510E+04  1.12089E+03  9.01207E+03  9.55417E+03  5.48407E+02  1.04410E+04
 -4.01330E+03  9.07584E+03 -5.74160E+03  3.02240E+03 -4.48781E+03 -8.78887E+02 -8.71902E+02 -5.61537E+02
  1.85225E+02 -2.37219E+02 -3.23860E+02  2.62327E+03 -4.30948E+03  2.17487E+03 -6.26444E+03 -1.21943E+03
 -3.18569E+03 -6.05559E+03  6.70806E+02 -8.05059E+03  4.53704E+03 -8.42461E+03  7.88774E+03 -3.31830E+03
  7.78910E+03  4.24382E+03  2.65344E+03  7.22451E+03 -7.09452E+02  7.38820E+03 -4.18433E+03  5.31898E+03
 -7.99924E+03  3.43722E+02 -7.79517E+03 -4.86428E+03 -1.13238E+03 -7.28743E+03  3.95429E+03 -5.25803E+03
  5.04437E+03 -9.24733E+02  4.13578E+03  1.25580E+03  1.27554E+03  1.91440E+03  2.04880E+03  7.89949E+02
  1.30317E+03 -6.97963E+02  3.66733E+03  1.55598E+03  2.59825E+03  3.28374E+03  3.70741E+03  3.90281E+03
 -2.18265E+03  5.12310E+03 -4.84504E+03  6.92741E+03 -7.55606E+03  2.91970E+03 -8.15948E+03 -2.37176E+03
 -5.42549E+03 -6.58165E+03  1.09054E+03 -8.45281E+03  4.71337E+03 -5.98737E+03  6.12750E+03 -2.18799E+03
  3.08056E+03  3.12474E+03  4.69390E+02  3.85440E+03 -1.49912E+03  3.34797E+03 -2.06667E+03 -9.61844E+00
 -1.71931E+03 -3.24074E+03  2.38025E+03 -3.34558E+03  2.81120E+03 -2.40448E+03  3.37455E+03  1.19892E+03
  1.60823E+03  1.00533E+03  1.78254E+03  1.23138E+03  2.58963E+02  6.51605E+02  1.37661E+03 -9.37891E+02
  1.37975E+02  3.25663E+02  3.48297E+03  1.50570E+03  8.28664E+02  4.35096E+03 -1.27854E+03  5.61011E+03
 -3.30462E+03  2.74991E+03 -4.35253E+03  1.57107E+03 -4.16540E+03 -1.53446E+03 -2.76730E+03 -2.23748E+03
  2.74335E+02 -3.19758E+03  2.30955E+03 -1.92116E+03  1.61608E+03  1.72635E+03 -1.18588E+03  2.30730E+03
 -3.49622E+03  2.71145E+03 -2.59369E+03 -2.94268E+03 -2.82368E+03 -4.53173E+03  1.88922E+03 -4.41009E+03
  2.07411E+03 -1.80557E+03  2.64327E+03 -6.72268E+02  2.71452E+03 -6.98467E+02 -3.57349E+02  1.16264E+03
 -1.35710E+03  8.35250E+02 -1.46054E+03 -8.48470E+02 -2.98384E+02 -3.65872E+03  3.61334E+03 -3.43048E+03
  4.52802E+03  1.36264E+02  4.95072E+03  2.28705E+03  1.57092E+03  3.93564E+03 -1.07455E+03  3.85957E+03
 -3.67651E+03  1.90978E+03 -4.06662E+03 -4.88232E+02 -1.79061E+03 -3.44849E+03  3.48299E+02 -2.74681E+03
  2.50885E+03 -1.86091E+03  2.18663E+03  1.64512E+03  7.68274E+02  3.38880E+03 -1.28978E+02  1.51802E+03
 -7.95402E+02  2.72132E+03 -1.28327E+03 -3.86593E+02 -1.27305E+03  6.70980E+02 -1.13792E+03  1.88100E+03
 -4.56178E+02  1.87847E+03 -2.39053E+03  6.07731E+02 -5.13379E+03 -8.39363E+02 -5.08610E+03 -2.50462E+03
 -1.66026E+03 -5.56781E+03  8.28810E+02 -6.40780E+03  2.87018E+03 -6.61395E+03  5.36755E+03 -3.42597E+03
  4.04130E+03  1.52306E+03  2.02762E+03  3.20759E+03 -2.80165E+02  4.64070E+03 -2.74926E+03  3.91827E+03
 -2.22411E+03  1.93482E+03 -2.60423E+03 -6.44888E+02 -2.54656E+02  3.54411E+02 -1.35748E+02 -1.36166E+02
 -1.05428E+03  2.14042E+01 -1.11862E+03  2.38710E+02  3.81974E+02 -2.46390E+03  5.21143E+02 -1.37683E+03
  2.60610E+03 -8.22759E+02  1.75475E+03 -1.22161E+03  3.26655E+03  2.76467E+03  2.75483E+01  2.69557E+03
 -2.51737E+03  4.63709E+03 -3.25312E+03  3.26186E+03 -6.31678E+03 -2.77574E+02 -4.23881E+03 -2.83778E+03
 -2.35720E+03 -3.84285E+03  1.32774E+03 -2.80956E+03  2.50576E+03 -1.18640E+03  1.03405E+03 -1.22149E+02
  1.56429E+03  7.25913E+02  6.85245E+02  2.07653E+03  3.03400E+02 -7.49293E+02 -9.70028E+01 -6.03909E+02
  1.76689E+03 -5.78361E+01  1.85200E+03 -1.22734E+02  5.31095E+02  1.89952E+03  1.01220E+03  2.47997E+03
 -1.29066E+03  1.84047E+03 -2.05833E+03  3.40083E+02 -2.70324E+03 -3.85421E+02 -4.93431E+01 -4.01786E+03
  9.91253E+02 -2.14493E+03  2.73461E+03 -4.08186E+02  3.31723E+03 -4.68531E+02  2.96268E+03  2.10930E+03
 -5.47286E+01  2.49454E+03 -1.84446E+03  2.01458E+03 -1.51184E+03  4.07013E+02 -1.61447E+03  1.93999E+02
 -1.36853E+03  1.52451E+02 -1.04605E+03  4.60598E+02 -2.61978E+02  1.22846E+02 -1.50489E+03 -3.77467E+02
 -2.21351E+03 -6.64551E+02 -1.48268E+03 -3.42582E+03  1.69634E+03 -4.16480E+03  8.44290E+02 -8.62444E+02
  3.40816E+03  1.40050E+02 -3.50501E+02  9.47434E+02 -3.61628E+02  1.34137E+03 -1.00974E+03  2.17627E+03
