 $NMID ID='MM_0lb_SNR200_11hz_g40_25.RAW', FMTDAT='(8E13.5)'
 TRAMP=1., VOLUME=1. $END
  3.09455E+05 -1.40548E+02  3.38665E+05  2.49622E+05  8.49297E+04  3.37790E+05 -1.32464E+05  2.50158E+05
 -1.90956E+05  8.28590E+04 -1.12738E+05 -3.25770E+04 -1.70466E+02 -5.09520E+04  5.41477E+04 -5.93913E+02
  3.46025E+04  5.29100E+04 -1.72643E+04  7.60266E+04 -6.15711E+04  6.42796E+04 -8.41007E+04  3.20985E+04
 -8.06041E+04 -1.07037E+04 -5.62889E+04 -5.15822E+04 -1.34987E+04 -6.97907E+04  2.76585E+04 -4.66751E+04
  4.04272E+04  2.68310E+03  1.70328E+04  4.84681E+04 -3.40613E+04  4.60503E+04 -6.67410E+04 -2.39111E+02
 -5.17968E+04 -5.68254E+04 -6.78184E+03 -7.75956E+04  3.51097E+04 -5.62325E+04  5.00047E+04 -1.84677E+04
  4.36180E+04  1.05937E+04  3.27524E+04  2.56548E+04  1.55733E+04  3.00559E+04 -5.64684E+03  2.78786E+04
 -2.28121E+04  1.28124E+04 -1.94690E+04 -4.88030E+03  5.84401E+03 -7.23316E+03  2.35067E+04  1.30490E+04
  6.76144E+03  3.59514E+04 -3.32651E+04  3.51101E+04 -6.52756E+04  1.60094E+03 -5.72809E+04 -4.31654E+04
 -1.28231E+04 -6.36416E+04  4.02822E+04 -4.56554E+04  5.84387E+04 -1.85431E+03  3.50442E+04  3.37884E+04
 -5.03352E+03  3.75964E+04 -3.00060E+04  1.70947E+04 -3.20098E+04 -2.71665E+03 -1.69130E+04 -1.16702E+04
 -9.07723E+03 -1.52172E+04 -8.24922E+02 -1.71661E+04  7.40889E+03 -2.33758E+04  1.57648E+04 -1.35251E+04
  1.16439E+04  5.56159E+03 -9.84853E+03  1.19629E+04 -2.22707E+04 -4.72195E+03 -9.75249E+03 -3.66279E+04
  2.41276E+04 -4.43091E+04  5.02710E+04 -1.98277E+04  4.66803E+04  1.95112E+04  1.70461E+04  4.60675E+04
 -1.66673E+04  3.50024E+04 -2.77867E+04  2.98890E+03 -1.06629E+04 -2.84176E+04  2.06891E+04 -3.29062E+04
  4.32319E+04 -9.14593E+03  3.81135E+04  2.37037E+04  1.86265E+04  4.71084E+04 -7.62589E+03  5.22707E+04
 -3.20853E+04  3.48239E+04 -4.44112E+04  9.51792E+03 -4.35825E+04 -1.83646E+04 -2.49609E+04 -4.03123E+04
  5.74121E+03 -3.91804E+04  3.17202E+04 -1.60779E+04  3.06229E+04  1.07853E+04  5.59804E+03  1.92789E+04
 -1.38431E+04  9.34085E+03 -1.23919E+04 -7.17350E+03  4.11943E+03 -1.28615E+04  1.79685E+04  5.94424E+03
  1.35001E+04  2.18892E+04 -4.79963E+03  2.67805E+04 -2.34660E+04  1.37384E+04 -2.93122E+04 -3.45398E+03
 -2.32275E+04 -1.92014E+04 -9.04713E+03 -2.19521E+04  3.28445E+03 -2.19625E+04  1.79924E+04 -1.92378E+04
  2.88901E+04 -1.32462E+04  3.48574E+04  3.85495E+03  2.47612E+04  2.27011E+04  6.35082E+03  3.96570E+04
 -1.70497E+04  3.07142E+04 -2.82020E+04  1.09094E+04 -2.07941E+04 -1.07836E+04 -4.39649E+03 -1.41016E+04
  5.69110E+02 -2.64545E+03 -6.28782E+03  7.42978E+03 -1.71447E+04  4.76880E+03 -1.74785E+04 -8.95327E+03
 -1.12870E+04 -2.16566E+04  6.12640E+03 -2.52606E+04  1.70649E+04 -1.83276E+04  2.03118E+04 -2.23405E+03
  1.31206E+04  1.57199E+04 -1.90553E+03  1.98218E+04 -1.43216E+04  1.28322E+04 -2.06315E+04 -5.12191E+03
 -1.48704E+04 -1.82310E+04 -2.15646E+03 -2.60294E+04  1.00614E+04 -2.14168E+04  2.11510E+04 -1.03461E+04
  1.93093E+04 -5.45924E+02  1.33366E+04  4.31955E+03  9.33246E+03  8.34667E+02  1.12886E+04 -2.05311E+03
  1.93721E+04  3.46986E+03  2.18543E+04  1.60657E+04  1.41295E+04  3.27647E+04 -2.44054E+03  3.83386E+04
 -2.12198E+04  3.05256E+04 -3.61121E+04  1.47206E+04 -3.81089E+04 -3.42677E+03 -3.08096E+04 -2.23796E+04
 -1.17257E+04 -3.11236E+04  1.11939E+04 -2.97442E+04  2.42506E+04 -1.28697E+04  2.09991E+04  5.47549E+03
  7.32671E+03  1.66832E+04 -1.17961E+04  1.51235E+04 -1.80255E+04  2.55923E+03 -1.39126E+04 -1.05475E+04
  5.79668E+02 -1.86543E+04  1.06150E+04 -1.16978E+04  1.17895E+04 -1.08254E+03  3.10309E+03  7.46610E+03
 -7.68696E+03  3.66467E+03 -7.09499E+03 -6.96738E+03 -1.67671E+03 -1.57013E+04  1.17917E+04 -1.66895E+04
  2.02472E+04 -7.96647E+03  2.17372E+04  2.30676E+03  1.98187E+04  1.50709E+04  8.05481E+03  2.28674E+04
 -4.59407E+03  2.58476E+04 -1.72281E+04  1.49671E+04 -1.83156E+04  3.75470E+03 -1.32962E+04 -3.27878E+03
 -5.93732E+03 -6.00769E+03 -1.26078E+03  7.73528E+02 -3.59781E+03  2.79305E+03 -5.57596E+03  5.90945E+03
 -1.15652E+04 -4.79407E+02 -1.20387E+04 -1.12886E+04 -4.08388E+03 -1.60259E+04  5.13226E+03 -1.18209E+04
  9.55792E+03 -5.15646E+03  9.58479E+03  5.29081E+03  9.76767E+02  4.19071E+03 -7.15927E+03  4.28763E+02
 -7.04335E+03 -7.94352E+03 -1.67827E+03 -1.06733E+04  7.32083E+03 -1.43811E+04  1.76724E+04 -8.24564E+03
  1.97336E+04  8.55841E+02  1.36908E+04  1.14682E+04  3.61273E+03  1.52613E+04 -9.10921E+03  1.20456E+04
 -1.06311E+04  4.44901E+03 -5.71128E+03 -1.86639E+03  1.96294E+03 -4.05208E+03  7.01574E+03 -1.17343E+03
  6.23051E+03  5.86653E+03  1.49051E+03  1.03460E+04 -6.79499E+03  9.62834E+03 -1.39923E+04  2.68592E+03
 -1.01322E+04 -6.07794E+03 -7.79254E+01 -1.02852E+04  7.19329E+03 -5.74259E+03  6.08237E+03  3.46357E+03
  1.06009E+03  8.24915E+03 -8.35360E+03  9.77957E+03 -1.01603E+04  4.50969E+03 -1.10042E+04 -3.21959E+03
 -5.06945E+03 -1.16405E+04  3.91163E+03 -1.46451E+04  1.18871E+04 -9.26520E+03  1.30155E+04  2.05846E+03
  9.21925E+03  1.01253E+04 -1.65184E+03  1.38613E+04 -9.53148E+03  6.32889E+03 -9.22548E+03 -1.31586E+03
 -7.00358E+03 -8.26027E+03 -6.35956E+02 -9.70095E+03  5.32862E+03 -8.29015E+03  6.81143E+03 -1.70513E+03
  3.09684E+03  1.09826E+03 -1.37263E+02  1.18859E+03 -1.25356E+03 -3.69632E+03  2.65778E+03 -4.53586E+03
  8.76364E+03 -2.24908E+03  1.14731E+04  1.18988E+03  1.27216E+04  7.87161E+03  7.06981E+03  1.52827E+04
 -4.07146E+03  1.92454E+04 -1.70520E+04  1.36976E+04 -1.98939E+04  3.83480E+03 -1.67303E+04 -6.59438E+03
 -8.18772E+03 -1.32449E+04 -1.91833E+02 -1.23975E+04  4.21508E+03 -5.38238E+03  4.12008E+03 -4.84468E+03
  4.21789E+03 -2.71442E+03  2.69331E+03 -3.05448E+03  3.68426E+03 -2.07195E+03  5.48742E+03 -5.35498E+02
  8.67080E+03  2.51943E+03  4.53642E+03  6.13071E+03 -3.09025E+03  8.78642E+03 -8.74520E+03  6.54502E+03
 -1.08878E+04 -1.07805E+03 -7.48057E+03 -7.10696E+03 -8.15680E+02 -1.18665E+04  6.28504E+03 -1.16486E+04
  1.33039E+04 -6.33374E+03  1.58160E+04  7.68176E+02  1.09228E+04  1.22097E+04  2.08164E+03  1.28780E+04
 -4.66678E+03  1.13053E+04 -8.32348E+03  4.00732E+03 -5.26120E+03 -3.62889E+02 -2.70087E+03 -1.03538E+03
 -3.98271E+02 -1.35613E+03 -7.61992E+02  2.24621E+03 -3.07347E+03  1.87424E+03 -6.78622E+03  1.69470E+02
 -6.34153E+03 -8.58720E+03  9.66583E+02 -1.12432E+04  7.07605E+03 -1.07401E+04  1.00721E+04 -3.83045E+03
  9.67348E+03  4.83307E+03  4.88607E+03  9.45314E+03 -1.22285E+03  1.11666E+04 -7.55487E+03  7.80613E+03
 -1.03100E+04  6.05116E+02 -8.73409E+03 -6.81075E+03 -3.87903E+01 -9.08621E+03  4.23754E+03 -7.20747E+03
  6.38272E+03 -2.85659E+03  5.30399E+03  1.86868E+03  2.56057E+03  2.63907E+03  7.01808E+02  1.17227E+03
  2.83754E+03 -2.36017E+02  2.63776E+03  1.14673E+03  2.16365E+03  4.37004E+03  3.28749E+03  5.88674E+03
 -1.73863E+03  8.28181E+03 -5.77042E+03  8.59018E+03 -9.91639E+03  1.87647E+03 -1.12097E+04 -3.85982E+03
 -4.66492E+03 -1.01522E+04  2.31659E+03 -1.23726E+04  6.06075E+03 -8.18128E+03  9.57320E+03 -2.40226E+03
  6.75809E+03  4.39802E+03  1.00151E+03  5.08572E+03 -2.68177E+03  4.60156E+03 -4.21179E+03 -1.09324E+03
 -8.65625E+02 -5.00929E+03  1.45774E+03 -4.48667E+03  3.52215E+03 -3.55419E+03  2.77373E+03  1.62161E+03
  2.36619E+03  2.56559E+03  2.21602E+03  1.86855E+03 -1.44804E+03  8.55743E+02  1.99425E+03 -1.40667E+02
  1.45101E+03  1.18356E+02  5.03099E+03  2.18695E+03  2.16177E+03  5.50133E+03 -2.26014E+03  7.89743E+03
 -5.29199E+03  5.68267E+03 -6.43013E+03  1.23945E+03 -5.28781E+03 -2.50305E+03 -1.65133E+03 -2.79628E+03
  2.31821E+02 -4.29458E+03  4.40753E+03 -1.06209E+03  1.64349E+03  2.22348E+03  1.00262E+02  3.46505E+03
 -3.84978E+03  3.56691E+03 -4.87714E+03 -2.46439E+03 -2.14527E+03 -7.31719E+03  5.53623E+02 -7.12263E+03
  3.94849E+03 -3.96756E+03  4.04472E+03  7.57438E+02  3.68847E+03  2.45428E+03 -1.77161E+02  1.91064E+03
 -2.88454E+03  1.15095E+03 -1.60526E+03 -2.92031E+03  2.59989E+03 -4.37070E+03  5.22637E+03 -4.46792E+03
  6.30534E+03 -1.55678E+02  8.15531E+03  4.40177E+03  2.86684E+03  6.79716E+03 -2.56030E+03  6.36291E+03
 -6.02639E+03  2.82413E+03 -4.96992E+03 -1.31460E+03 -4.78125E+03 -4.64645E+03  7.80905E+02 -4.11938E+03
  4.51608E+03 -2.06388E+03  4.53319E+03  1.28051E+03  9.81833E+02  4.24918E+03 -9.36771E+02  2.34463E+03
 -2.91501E+03  2.29541E+03 -2.61948E+02  9.18792E+02  1.35114E+01  3.05524E+02 -1.34569E+03 -1.18640E+03
 -1.96773E+03  2.47617E+03 -6.49701E+03  1.57681E+03 -6.47793E+03  3.75379E+02 -7.73270E+03 -3.40978E+03
 -4.33714E+03 -8.93691E+03  8.88523E+01 -9.32188E+03  7.29952E+03 -8.78446E+03  9.48136E+03 -2.07839E+03
  8.98149E+03  1.76002E+03  4.77929E+03  6.94717E+03  6.13815E+02  7.13885E+03 -2.59163E+03  5.68613E+03
 -4.25915E+03  2.16452E+03 -1.12569E+03 -6.22487E+02 -1.65361E+03 -8.97198E+02 -1.68259E+03 -2.91604E+02
 -4.06637E+01  6.85182E+02 -1.47031E+03 -6.40711E+02 -1.66369E+03 -1.68625E+03 -3.38463E+02 -3.36633E+03
  3.83773E+03 -1.86077E+03  3.12917E+03 -3.76226E+02  5.98421E+03  3.81410E+03  3.57588E+02  7.78917E+03
 -3.05434E+03  7.03348E+03 -7.50193E+03  4.03320E+03 -7.76662E+03 -1.08052E+03 -6.36474E+03 -5.31104E+03
 -3.92316E+03 -8.13802E+03  1.69440E+03 -6.88167E+03  4.46924E+03 -3.08190E+03  3.61422E+03  4.33460E+02
  2.03365E+03  3.16369E+03  4.65591E+02  1.09422E+03 -2.08340E+03 -9.76841E+02  3.61723E+02 -2.48620E+03
  2.67828E+03  1.69103E+02  3.06082E+03  1.59871E+03  1.86911E+03  2.93612E+03  1.52841E+03  3.23013E+03
 -2.38533E+03  2.26571E+03 -3.49304E+03  1.91400E+02 -4.58131E+03 -4.73930E+03  8.03211E+00 -6.84790E+03
  3.05431E+03 -5.28092E+03  4.20217E+03 -8.92284E+02  6.18706E+03  2.09060E+03  3.19884E+03  5.33591E+03
  6.32554E+02  4.22425E+03 -2.14461E+03  4.52378E+03 -2.37946E+03  1.05419E+03 -2.63012E+03  1.02826E+03
 -5.51910E+02  5.60488E+02 -1.01134E+03  2.54229E+03 -2.55928E+03  1.05796E+03 -4.76763E+03 -2.98010E+01
 -2.91307E+03 -1.78369E+03 -1.29880E+03 -4.23755E+03  1.41508E+03 -3.81647E+03  4.89571E+03 -1.53027E+03
  4.03967E+03  7.04746E+02  1.40057E+03  2.60532E+03 -1.12688E+03  3.84738E+03 -4.14711E+03  3.13671E+03
