 $NMID ID='MM_0lb_SNR200_15hz_g40_54.RAW', FMTDAT='(8E13.5)'
 TRAMP=1., VOLUME=1. $END
  3.09335E+05  2.44380E+02  3.36820E+05  2.50823E+05  8.41314E+04  3.38554E+05 -1.32236E+05  2.51150E+05
 -1.91111E+05  8.28557E+04 -1.11369E+05 -3.22655E+04  1.55760E+03 -5.11526E+04  5.38631E+04 -1.66533E+02
  3.46878E+04  5.28311E+04 -1.84579E+04  7.58186E+04 -6.04730E+04  6.30410E+04 -8.43191E+04  3.07020E+04
 -8.01063E+04 -1.07644E+04 -5.60060E+04 -5.04104E+04 -1.57332E+04 -6.89783E+04  2.55340E+04 -4.53741E+04
  3.91101E+04  3.59922E+03  1.69667E+04  4.76606E+04 -3.47858E+04  4.73383E+04 -6.57122E+04  2.21705E+02
 -5.31072E+04 -5.63489E+04 -5.17900E+03 -7.49710E+04  3.50386E+04 -5.38275E+04  4.85757E+04 -1.67278E+04
  4.33784E+04  1.06963E+04  3.16140E+04  2.46882E+04  1.63428E+04  2.99961E+04 -5.63618E+03  2.75129E+04
 -2.23196E+04  1.15568E+04 -1.85932E+04 -3.50940E+03  4.84661E+03 -6.63392E+03  2.16937E+04  1.07673E+04
  6.05700E+03  3.43705E+04 -3.21659E+04  3.56964E+04 -6.28089E+04  2.00020E+03 -5.65246E+04 -4.12471E+04
 -1.36763E+04 -6.07724E+04  3.87600E+04 -4.40231E+04  5.77330E+04 -1.87652E+03  3.28198E+04  3.13008E+04
 -6.10637E+03  3.58860E+04 -2.94138E+04  1.43963E+04 -2.87672E+04 -6.05310E+03 -1.56241E+04 -1.12096E+04
 -7.68451E+03 -1.27103E+04 -2.76891E+02 -1.68610E+04  6.45134E+03 -2.19054E+04  1.54980E+04 -1.37670E+04
  1.11759E+04  4.09148E+03 -7.59017E+03  1.22776E+04 -2.02117E+04 -3.20717E+03 -7.97060E+03 -3.35756E+04
  2.29753E+04 -4.13523E+04  4.65173E+04 -1.88313E+04  4.33580E+04  1.93631E+04  1.45937E+04  4.31807E+04
 -1.51939E+04  3.26369E+04 -2.46024E+04  8.55703E+02 -8.89497E+03 -2.82055E+04  2.11549E+04 -3.32187E+04
  3.93841E+04 -8.94742E+03  3.42910E+04  2.34143E+04  1.74840E+04  4.44244E+04 -9.07238E+03  4.74014E+04
 -2.96948E+04  3.26281E+04 -3.96263E+04  8.69453E+03 -3.99810E+04 -1.64626E+04 -2.26187E+04 -3.52746E+04
  7.35400E+03 -3.55544E+04  3.12650E+04 -1.41606E+04  2.83154E+04  1.12769E+04  4.75159E+03  1.75788E+04
 -1.20536E+04  9.63974E+03 -1.00700E+04 -7.44673E+03  6.49141E+03 -1.09522E+04  1.70005E+04  6.16472E+03
  1.36447E+04  2.29574E+04 -6.10161E+03  2.40685E+04 -2.24365E+04  9.60791E+03 -2.61847E+04 -5.05753E+03
 -1.87608E+04 -1.71605E+04 -6.84658E+03 -1.95782E+04  3.86846E+03 -1.73788E+04  1.32570E+04 -1.59878E+04
  2.35594E+04 -1.34260E+04  3.07067E+04  1.79277E+03  2.12206E+04  1.89871E+04  3.51765E+03  3.46939E+04
 -1.55926E+04  2.95317E+04 -2.66106E+04  1.03122E+04 -2.13163E+04 -9.73826E+03 -3.98223E+03 -1.35215E+04
  1.64902E+03 -4.06909E+03 -4.09175E+03  5.85170E+03 -1.47803E+04  6.96342E+03 -1.52548E+04 -5.77752E+03
 -9.44249E+03 -1.72200E+04  4.28473E+03 -2.13880E+04  1.42085E+04 -1.54714E+04  1.64180E+04 -1.75793E+03
  1.03821E+04  1.22988E+04 -1.45982E+03  1.71385E+04 -1.23255E+04  9.74603E+03 -1.84959E+04 -4.47715E+03
 -1.29886E+04 -1.57768E+04 -9.16549E+02 -2.12988E+04  1.04357E+04 -1.64043E+04  1.71788E+04 -7.98980E+03
  1.71608E+04  4.73616E+02  1.27888E+04  4.64517E+03  6.35842E+03 -3.91395E+01  8.76971E+03 -1.40683E+03
  1.58006E+04  2.24110E+03  1.67197E+04  1.49907E+04  1.13030E+04  2.83377E+04 -2.87960E+03  3.09401E+04
 -1.82459E+04  2.43115E+04 -2.92724E+04  1.17706E+04 -2.97759E+04 -3.46975E+03 -2.41870E+04 -1.69256E+04
 -1.03817E+04 -2.46110E+04  8.15238E+03 -2.14267E+04  1.96318E+04 -1.19091E+04  1.79676E+04  4.73258E+03
  7.64491E+03  1.31265E+04 -8.36252E+03  1.13235E+04 -1.43658E+04  2.55371E+03 -1.15935E+04 -8.91048E+03
  6.07100E+02 -1.43035E+04  7.41548E+03 -1.10835E+04  8.97273E+03 -1.01702E+03  1.26218E+03  6.18926E+03
 -6.72581E+03  1.63456E+03 -4.54864E+03 -5.10884E+03 -5.78081E+02 -1.16512E+04  8.82150E+03 -1.25658E+04
  1.40215E+04 -6.82646E+03  1.47633E+04  2.83521E+03  1.27001E+04  1.03436E+04  6.67896E+03  1.64720E+04
 -2.73336E+03  1.93991E+04 -1.10859E+04  1.22534E+04 -1.35880E+04  2.96518E+03 -1.00930E+04 -2.80338E+03
 -4.91880E+03 -4.93925E+03 -6.84612E+02  1.20542E+03 -1.68153E+03  2.61888E+03 -4.44383E+03  3.88554E+03
 -9.87675E+03 -6.33111E+02 -1.00597E+04 -8.10673E+03 -5.33277E+03 -1.35982E+04  4.86539E+03 -1.14411E+04
  7.91651E+03 -3.64792E+03  6.11231E+03  2.10410E+03  1.44472E+02  3.03744E+03 -4.54037E+03 -1.14232E+03
 -4.81777E+03 -6.01570E+03 -6.17937E+01 -9.42926E+03  4.82551E+03 -1.10088E+04  1.21168E+04 -5.32851E+03
  1.37998E+04  1.64740E+03  1.08599E+04  8.51836E+03  2.60883E+03  1.15456E+04 -7.68876E+03  1.09227E+04
 -8.72394E+03  4.55050E+03 -3.34305E+03 -2.15114E+03  1.83944E+03 -2.01159E+03  5.43444E+03 -1.37277E+03
  4.45099E+03  4.58331E+03  1.24303E+03  7.83952E+03 -6.24243E+03  9.11052E+03 -8.92217E+03  2.77070E+03
 -6.16905E+03 -4.86499E+03 -1.77227E+02 -7.04762E+03  5.00455E+03 -5.08997E+03  4.41964E+03  1.00285E+03
  7.70516E+02  5.04056E+03 -6.42968E+03  8.06122E+03 -6.67545E+03  3.44686E+03 -6.93261E+03 -1.75023E+03
 -4.77268E+03 -8.28539E+03  1.99731E+03 -1.06014E+04  7.09203E+03 -6.66016E+03  9.75686E+03  4.05515E+02
  6.70699E+03  6.96197E+03 -1.37066E+03  1.06873E+04 -6.40915E+03  5.86094E+03 -6.70147E+03 -6.58238E+02
 -6.48919E+03 -5.65265E+03 -1.16906E+03 -5.45204E+03  4.49955E+03 -4.31601E+03  4.41446E+03 -4.06228E+03
  2.62836E+03  2.37887E+02 -2.32120E+02 -1.61671E+02  8.82544E+02 -1.29642E+02  1.54354E+03 -3.21699E+03
  5.31232E+03 -1.42887E+03  7.36604E+03 -2.61941E+02  7.57307E+03  5.41367E+03  6.01040E+03  9.87284E+03
 -3.12508E+03  1.23017E+04 -1.05675E+04  8.07589E+03 -1.34418E+04  1.06168E+03 -1.08002E+04 -3.81707E+03
 -5.68511E+03 -9.28164E+03 -1.45355E+02 -7.84170E+03  2.67790E+03 -3.02741E+03  2.49384E+03 -3.21273E+03
  1.55023E+03 -1.38218E+03  2.46344E+03 -2.50819E+03  4.29733E+03 -3.02127E+03  3.69118E+03  6.47735E+01
  6.09092E+03  1.02766E+03  2.04312E+03  5.19124E+03 -2.64580E+03  6.51663E+03 -5.21938E+03  3.69730E+03
 -8.28628E+03 -5.60602E+02 -2.30667E+03 -4.95711E+03  5.87215E+02 -6.95545E+03  3.88836E+03 -8.03623E+03
  6.57797E+03 -4.24898E+03  1.02119E+04  8.59551E+02  6.76595E+03  6.40019E+03  2.13698E+03  9.35545E+03
 -3.45114E+03  7.20173E+03 -4.55056E+03  3.27530E+03 -3.43848E+03 -2.28652E+03 -1.05903E+03 -5.05226E+02
 -4.79400E+02  1.32718E+03 -2.08023E+03  3.17632E+03 -2.88150E+03  1.75920E+03 -5.76202E+03  1.47078E+02
 -2.33349E+03 -5.52365E+03  4.74932E+02 -6.68666E+03  4.26514E+03 -6.84454E+03  6.09896E+03 -8.39756E+02
  6.58009E+03  3.29062E+03  3.64436E+03  5.01517E+03 -1.17248E+03  6.92399E+03 -4.22314E+03  4.68835E+03
 -7.29472E+03  5.98378E+02 -5.75982E+03 -3.35865E+03  1.68826E+02 -5.66546E+03  3.06987E+03 -4.90444E+03
  3.15094E+03 -1.49523E+03  4.08025E+03  1.23039E+03 -7.63828E+01  1.79640E+03  1.70669E+03  1.48091E+03
  3.11375E+02  3.75422E+02  9.79817E+02  1.11219E+03  9.72422E+02  2.47598E+03  2.00704E+03  3.95569E+03
 -9.17474E+02  4.36611E+03 -3.63548E+03  5.33639E+03 -6.56108E+03  1.46239E+03 -5.33108E+03 -6.92785E+02
 -2.88651E+03 -6.82670E+03  1.28316E+03 -7.07375E+03  3.72579E+03 -4.19428E+03  4.50318E+03 -1.52324E+03
  2.92584E+03  2.17050E+03  4.32442E+01  4.45244E+03 -1.14383E+03  1.87654E+03 -1.66864E+03 -4.20900E+02
 -1.55750E+03 -3.40896E+03  1.86936E+03 -2.48089E+03  2.47286E+03 -1.74000E+03  1.83874E+03  1.01312E+02
  1.33406E+03  2.04498E+03  1.84299E+02  6.70075E+02 -1.27470E+03  4.47501E+02  1.31315E+03  1.90401E+03
  5.11727E+02 -3.17378E+02  3.56499E+03  4.29011E+01  1.68715E+03  2.59023E+03 -1.40067E+03  3.85690E+03
 -3.37295E+03  2.59962E+03 -3.41981E+03  8.23501E+01 -2.48497E+03 -1.13409E+03 -1.31427E+03 -1.28302E+03
  4.78370E+01 -2.07387E+03  1.48291E+03 -2.28895E+03  1.99916E+03  1.96684E+03 -1.49428E+02  2.45950E+03
 -2.85526E+03  1.34194E+03 -2.97532E+03 -1.78057E+03 -1.10130E+03 -2.62228E+03  2.86668E+02 -3.16618E+03
  1.72694E+03 -1.76776E+03  1.30599E+03 -1.35316E+03  2.42347E+03 -2.24789E+01  2.59396E+02  1.70342E+03
 -2.11681E+03  6.82401E+02 -1.64825E+03 -7.12575E+02 -3.27255E+02 -9.41598E+02  2.56471E+03 -1.39847E+03
  1.14282E+03  5.18493E+02  3.59120E+03  2.23996E+03  1.19747E+03  3.73217E+03 -3.30379E+02  3.38680E+03
 -2.77011E+03 -2.15462E+02 -3.18562E+03 -7.42365E+02 -2.18897E+03 -2.28143E+03  3.27568E+02 -1.80475E+03
  9.22409E+02 -8.56139E+02  1.34827E+03  1.20492E+03  2.94763E+02  2.24968E+03 -5.27206E+02  1.82811E+03
 -5.74180E+02  9.76559E+02 -1.87806E+03 -2.08284E+02 -1.07285E+03 -2.18999E+02 -2.38890E+03  1.03902E+03
 -9.62678E+02  1.28160E+03 -1.86629E+03  9.32195E+02 -4.46957E+03  1.27915E+02 -3.52159E+03 -2.68144E+03
 -2.50869E+03 -4.96129E+03  2.61152E+02 -4.63761E+03  2.06892E+03 -3.98357E+03  4.88334E+03 -7.37055E+01
  3.50527E+03 -9.03888E+00  3.78174E+03  3.40093E+03 -4.36287E+02  3.12418E+03 -2.24158E+03  2.86724E+03
 -1.85378E+03  1.42148E+03 -1.74178E+03 -6.52222E+02  6.31917E+01 -7.94924E+02 -6.28676E+02 -1.77448E+02
 -5.11442E+02 -5.68837E+02 -1.83026E+02  1.05314E+03  4.87103E+02 -1.09342E+02  9.26371E+01 -1.57454E+03
  1.44245E+03 -2.01700E+03  1.32608E+03 -4.12132E+02  2.76962E+03  2.29894E+03  6.93293E+02  2.90938E+03
 -1.17313E+03  3.72630E+03 -2.11377E+03  1.73080E+03 -4.33426E+03 -9.35302E+02 -3.01358E+03 -2.02169E+03
 -2.18592E+03 -4.05993E+03 -4.52653E+02 -2.37564E+03  1.00397E+03 -1.22703E+03  1.60504E+03  5.46946E+02
  1.10641E+02 -1.75795E+02 -3.94008E+02  1.29250E+03 -8.68529E+02  5.41542E+02  4.61144E+02 -1.01608E+03
  1.08086E+03 -1.39643E+03  1.45784E+03  1.88378E+03  1.89197E+02  6.76094E+02  1.32386E+03  1.29711E+03
 -1.85164E+03  1.37729E+03 -2.85288E+03 -9.79480E+02 -1.41705E+03 -1.09500E+03  3.88109E+02 -2.56710E+03
  1.94731E+03 -1.85349E+03  1.28762E+03 -9.01389E+01  1.55265E+03 -3.60017E+02  1.56009E+03  2.04755E+03
 -3.43638E+02  3.40899E+03 -4.98669E+02  1.46048E+03 -7.83916E+02  8.85581E+02 -9.33891E+02 -2.91205E+02
 -1.12823E+03 -1.37549E+02  8.68948E+01  4.04804E+02 -1.71530E+03  1.74691E+02 -2.52364E+03  1.53194E+03
 -2.44362E+03 -1.01616E+02 -1.39406E+03 -2.34947E+03  4.92306E+01 -3.13383E+03  1.37168E+03 -7.76999E+02
  1.44593E+03  3.91188E+02  3.39621E+02  8.56645E+02 -6.27919E+02  1.01024E+03 -3.27317E+02  2.39921E+03
