 $NMID ID='MM_0lb_SNR200_11hz_g55_33.RAW', FMTDAT='(8E13.5)'
 TRAMP=1., VOLUME=1. $END
  3.09982E+05  1.99851E+02  3.37536E+05  2.50091E+05  8.48708E+04  3.39143E+05 -1.32193E+05  2.50124E+05
 -1.91862E+05  8.28287E+04 -1.11250E+05 -3.25139E+04  1.97583E+03 -5.02854E+04  5.43369E+04 -4.28449E+02
  3.62210E+04  5.18911E+04 -1.67372E+04  7.62670E+04 -6.05810E+04  6.34332E+04 -8.51296E+04  3.18054E+04
 -8.11912E+04 -1.18186E+04 -5.82318E+04 -5.35705E+04 -1.57429E+04 -6.94768E+04  2.74067E+04 -4.65300E+04
  4.06829E+04  3.66752E+03  1.54859E+04  4.88627E+04 -3.47140E+04  4.83028E+04 -6.66960E+04  1.06499E+03
 -5.39118E+04 -5.77113E+04 -7.28437E+03 -7.83022E+04  3.46138E+04 -5.72501E+04  4.81588E+04 -1.81430E+04
  4.52948E+04  1.21762E+04  3.23508E+04  2.65929E+04  1.59504E+04  3.03693E+04 -5.80018E+03  2.78696E+04
 -2.33004E+04  1.16549E+04 -1.87367E+04 -6.29286E+03  5.84659E+03 -6.38430E+03  2.28969E+04  1.38803E+04
  6.99084E+03  3.60523E+04 -3.40830E+04  3.79075E+04 -6.59828E+04  1.22760E+02 -5.82931E+04 -4.60223E+04
 -1.30268E+04 -6.57492E+04  4.10429E+04 -4.69761E+04  6.04215E+04 -3.27033E+03  3.71346E+04  3.32482E+04
 -5.65417E+03  3.76182E+04 -3.16072E+04  1.91959E+04 -3.31539E+04 -3.59287E+03 -1.74734E+04 -1.16293E+04
 -8.23742E+03 -1.44061E+04 -9.92727E+02 -2.02064E+04  6.98989E+03 -2.28115E+04  1.55628E+04 -1.35095E+04
  1.15109E+04  6.32021E+03 -1.08544E+04  1.25019E+04 -2.31445E+04 -5.53201E+03 -8.82452E+03 -3.63112E+04
  2.47401E+04 -4.46233E+04  4.97911E+04 -1.99714E+04  4.77377E+04  1.85195E+04  1.63219E+04  4.61938E+04
 -1.49989E+04  3.58837E+04 -2.66742E+04  2.76153E+03 -1.06508E+04 -3.02948E+04  2.22185E+04 -3.68105E+04
  4.45638E+04 -1.05820E+04  3.77977E+04  2.39466E+04  2.13619E+04  4.96067E+04 -7.36820E+03  5.41539E+04
 -3.54880E+04  3.63125E+04 -4.69567E+04  1.02384E+04 -4.55817E+04 -1.80115E+04 -2.43311E+04 -4.13850E+04
  8.23567E+03 -4.11591E+04  3.32369E+04 -1.71458E+04  3.14595E+04  1.11554E+04  5.51663E+03  1.99801E+04
 -1.38699E+04  8.32231E+03 -1.14968E+04 -8.41769E+03  6.22813E+03 -1.19151E+04  2.01223E+04  4.55531E+03
  1.35464E+04  2.18510E+04 -5.52044E+03  2.75345E+04 -2.22054E+04  1.48932E+04 -3.01523E+04 -3.98721E+03
 -2.42380E+04 -1.88045E+04 -1.13962E+04 -2.35776E+04  2.94659E+03 -2.31873E+04  1.78876E+04 -2.13490E+04
  2.84001E+04 -1.47101E+04  3.65479E+04  4.20788E+03  2.54409E+04  2.30404E+04  6.81617E+03  4.01083E+04
 -2.00136E+04  3.40221E+04 -2.95477E+04  1.21293E+04 -2.24914E+04 -1.07941E+04 -5.73051E+03 -1.32255E+04
  3.20924E+03 -2.44354E+03 -7.52601E+03  8.05231E+03 -1.89486E+04  5.25571E+03 -1.95793E+04 -9.78987E+03
 -1.11397E+04 -2.27601E+04  6.79011E+03 -2.69520E+04  1.76091E+04 -1.96096E+04  2.07672E+04 -2.77234E+03
  1.35986E+04  1.52398E+04 -2.11345E+03  2.15341E+04 -1.55741E+04  1.36406E+04 -2.12216E+04 -3.23951E+03
 -1.62319E+04 -1.99392E+04 -1.78675E+03 -2.71186E+04  1.25012E+04 -2.31515E+04  2.15354E+04 -1.15809E+04
  2.07721E+04 -1.08941E+03  1.57680E+04  5.15668E+03  7.91810E+03  1.90454E+03  1.13011E+04 -2.43132E+03
  1.99693E+04  2.16306E+03  2.29575E+04  1.85118E+04  1.64836E+04  3.51558E+04 -2.07692E+03  4.08493E+04
 -2.36731E+04  3.42558E+04 -3.75737E+04  1.71436E+04 -4.14231E+04 -4.13104E+03 -3.27978E+04 -2.41950E+04
 -1.40566E+04 -3.48030E+04  1.03961E+04 -3.02138E+04  2.57041E+04 -1.44074E+04  2.27568E+04  7.36170E+03
  8.49422E+03  1.61803E+04 -1.17968E+04  1.45616E+04 -1.76993E+04  2.09368E+03 -1.46233E+04 -1.13819E+04
  8.22933E+02 -1.77080E+04  8.71146E+03 -1.28996E+04  1.23683E+04 -5.87589E+02  3.50834E+03  7.34900E+03
 -8.29816E+03  3.85279E+03 -8.49886E+03 -5.89565E+03 -1.34074E+03 -1.66039E+04  1.18974E+04 -1.98206E+04
  2.08723E+04 -9.59886E+03  2.46198E+04  3.47261E+03  1.96536E+04  1.71266E+04  1.04948E+04  2.45388E+04
 -4.88219E+03  2.92784E+04 -1.77660E+04  1.58643E+04 -2.07960E+04  4.36179E+03 -1.41091E+04 -4.34050E+03
 -8.00999E+03 -6.50867E+03 -4.56168E+02  5.35816E+02 -4.50639E+03  3.16698E+03 -4.98213E+03  3.34189E+03
 -1.22648E+04 -3.61475E+02 -1.41314E+04 -1.04306E+04 -5.35665E+03 -1.85638E+04  5.77517E+03 -1.47008E+04
  1.16616E+04 -6.48330E+03  7.39475E+03  3.41087E+03  6.02644E+02  5.65074E+03 -6.86515E+03 -5.38946E+01
 -5.81869E+03 -8.68641E+03 -1.44018E+03 -1.50629E+04  8.48643E+03 -1.40321E+04  1.77737E+04 -7.43427E+03
  2.13286E+04  2.34396E+03  1.60087E+04  1.31053E+04  4.43448E+03  1.79699E+04 -9.44568E+03  1.44149E+04
 -1.22726E+04  4.86686E+03 -6.20264E+03 -1.99166E+03  2.12398E+03 -3.31739E+03  7.48174E+03 -1.92661E+03
  6.56936E+03  4.10569E+03  2.24576E+02  1.02075E+04 -7.94238E+03  1.07083E+04 -1.19041E+04  3.65759E+03
 -8.57270E+03 -6.97412E+03  5.04011E+02 -1.22063E+04  9.29339E+03 -6.73289E+03  7.87524E+03  3.28311E+03
  1.11577E+03  8.87048E+03 -5.61821E+03  8.73950E+03 -1.13807E+04  4.19554E+03 -1.35044E+04 -4.13695E+03
 -6.28242E+03 -1.41557E+04  1.81679E+03 -1.67444E+04  1.16114E+04 -8.59927E+03  1.30517E+04  1.41279E+03
  9.38645E+03  1.20389E+04 -1.91481E+03  1.37998E+04 -1.10947E+04  8.00660E+03 -1.13184E+04 -8.97952E+02
 -9.71739E+03 -8.35533E+03 -1.76243E+03 -9.85278E+03  7.09014E+03 -7.38812E+03  6.70593E+03 -2.71993E+03
  3.35630E+03  1.64794E+03 -8.32956E+02  2.89190E+03 -1.28357E+03 -2.36429E+03  1.74749E+03 -5.30889E+03
  9.72247E+03 -4.09851E+03  1.42356E+04  1.28438E+03  1.24119E+04  8.88895E+03  9.74277E+03  1.80923E+04
 -2.90417E+03  2.13452E+04 -1.70232E+04  1.55190E+04 -2.32435E+04  9.69551E+02 -1.80392E+04 -8.15158E+03
 -8.88966E+03 -1.46570E+04 -7.57622E+02 -1.18672E+04  6.02650E+03 -6.98868E+03  5.27322E+03 -5.74946E+03
  3.39872E+03 -1.92681E+03  4.75416E+03 -3.76398E+03  5.17271E+03 -2.35752E+03  6.55191E+03  5.49062E+02
  9.65217E+03  2.97439E+03  3.95020E+03  7.27918E+03 -1.98626E+03  9.47755E+03 -1.01237E+04  8.07532E+03
 -1.16801E+04 -1.88386E+03 -7.75548E+03 -7.24320E+03 -6.86686E+01 -1.27624E+04  5.52976E+03 -1.31855E+04
  1.39820E+04 -7.84591E+03  1.75350E+04  8.35505E+02  1.21143E+04  1.17894E+04  2.10919E+03  1.42660E+04
 -5.95588E+03  1.21310E+04 -8.02579E+03  4.24701E+03 -6.02616E+03 -3.89955E+02 -1.82405E+03 -4.21559E+02
 -1.97921E+03  2.09690E+02 -2.00023E+03  3.09749E+03 -5.39804E+03  1.35011E+03 -8.30456E+03 -1.69245E+03
 -6.54437E+03 -8.78682E+03 -7.89585E+02 -1.11385E+04  7.78391E+03 -9.84021E+03  1.23944E+04 -4.62654E+03
  1.21482E+04  5.11895E+03  4.42536E+03  1.22840E+04 -3.32383E+03  1.26961E+04 -8.66539E+03  7.29732E+03
 -1.09290E+04  1.03833E+03 -8.18847E+03 -7.49784E+03 -1.00689E+03 -8.08166E+03  4.67441E+03 -8.23612E+03
  7.04935E+03 -2.46639E+03  3.66533E+03  6.75899E+02  1.31340E+03  3.23321E+03  2.71516E+03  2.18481E+03
  2.87346E+03  1.38509E+01  3.91577E+03  1.00809E+03  3.69413E+03  4.74946E+03  3.49127E+03  5.99795E+03
 -2.02026E+03  9.44882E+03 -7.61908E+03  1.17393E+04 -1.17011E+04  6.26790E+02 -1.25584E+04 -5.44141E+03
 -5.79787E+03 -1.16928E+04  1.39257E+03 -1.21417E+04  7.54578E+03 -8.33863E+03  1.07762E+04 -1.50437E+03
  7.74311E+03  5.85347E+03  1.19086E+03  8.43797E+03 -3.51112E+03  5.80163E+03 -5.34196E+03 -7.80196E+02
 -1.63660E+03 -5.89771E+03  3.05869E+03 -4.65282E+03  5.32295E+03 -3.10779E+03  4.65144E+03 -2.29110E+02
  2.84987E+03  1.46362E+03  5.65281E+02  1.01988E+03  1.29659E+02  6.88042E+01  1.08202E+03 -8.19220E+02
  2.43597E+02 -1.82637E+02  5.28819E+03  2.99988E+03  3.11262E+03  5.17413E+03 -1.44554E+03  8.08552E+03
 -7.01985E+03  5.64139E+03 -7.31693E+03  2.84475E+03 -5.91232E+03 -4.03087E+03 -2.40535E+03 -4.63736E+03
  4.18362E+02 -4.80072E+03  3.05851E+03 -4.55747E+03  1.56875E+03  6.25169E+02 -2.72558E+03  3.41749E+03
 -5.04854E+03  2.45644E+03 -6.16213E+03 -2.60721E+03 -2.81689E+03 -5.25038E+03  4.76482E+01 -7.22911E+03
  2.54478E+03 -4.56380E+03  4.51559E+03  7.13078E+02  3.03924E+03  2.05754E+03 -1.48135E+03  2.86316E+03
 -2.97163E+03  7.70032E+02 -2.15256E+03 -7.64138E+02  6.84200E+02 -6.62833E+03  5.09232E+03 -5.43306E+03
  7.84080E+03  6.13117E+02  9.24152E+03  4.73441E+03  3.35686E+03  7.04529E+03 -3.26505E+03  7.58517E+03
 -7.23786E+03  2.80109E+03 -6.29173E+03 -1.39040E+02 -2.25669E+03 -4.48106E+03  9.54015E+02 -3.73658E+03
  4.03175E+03 -3.30917E+03  3.93722E+03  1.57843E+03  1.40311E+03  3.44300E+03 -4.54605E+02  2.89336E+03
 -2.75573E+03  4.11482E+03 -1.92874E+03  1.71390E+03 -1.16035E+03  7.50229E+02 -1.00299E+03  1.75389E+03
 -4.63769E+02  9.75159E+02 -5.39963E+03  2.99675E+03 -6.70410E+03  5.29243E+02 -9.44315E+03 -5.15227E+03
 -4.24604E+03 -9.03417E+03  2.23734E+03 -1.12975E+04  6.59182E+03 -8.76242E+03  9.78237E+03 -4.82829E+03
  9.70128E+03  1.42687E+03  5.67089E+03  8.14384E+03 -7.53993E+02  7.53740E+03 -2.73178E+03  5.78784E+03
 -4.14748E+03  1.17329E+03 -2.50711E+03 -1.97379E+03 -1.72217E+03 -4.44675E+00 -1.52044E+03  5.12478E+02
 -6.40235E+02 -1.90012E+03 -1.41564E+03 -7.43120E+00  4.56748E+02 -9.50632E+02 -3.52614E+02 -1.57435E+03
  2.59302E+03 -3.16231E+03  5.19442E+03  9.64008E+02  6.19234E+03  5.59553E+03  1.19850E+03  7.31554E+03
 -3.33988E+03  7.72008E+03 -8.47985E+03  6.09714E+03 -8.32403E+03 -7.68870E+02 -7.41975E+03 -4.19328E+03
 -2.58845E+03 -7.15927E+03  2.74312E+03 -6.88556E+03  5.72098E+03 -2.20797E+03  5.73276E+03  6.33532E+02
  3.38636E+03  1.72662E+03  5.81620E+02  2.56368E+03 -1.94136E+03  3.22700E+02 -7.68371E+02 -1.45573E+03
  1.48410E+03 -2.36893E+03  3.80231E+03  1.54381E+02  2.70395E+02  2.58396E+03 -1.06457E+03  3.06047E+03
 -4.04251E+03  4.46911E+03 -4.77969E+03 -3.22387E+02 -3.82095E+03 -4.28403E+03  3.49215E+02 -7.21596E+03
  3.31057E+03 -6.37344E+03  4.52539E+03 -8.23447E+02  6.09069E+03  1.38930E+03  1.77883E+03  4.96985E+03
 -4.60238E+02  5.47812E+03 -2.01577E+03  3.56097E+03 -2.98086E+03  2.88218E+03 -2.91421E+03  2.01864E+03
 -1.10998E+03 -8.75411E+02 -1.30418E+03  6.37474E+02 -2.95751E+03  3.47902E+02 -4.01282E+03 -1.43465E+03
 -3.74011E+03 -3.12137E+03 -1.86896E+03 -5.76424E+03  3.58703E+03 -4.64246E+03  4.89799E+03 -1.48283E+03
  5.66152E+03  1.15879E+02  1.18949E+03  2.85676E+03 -7.66556E+02  5.08665E+03 -4.67292E+03  2.17070E+03
