 $NMID ID='MM_0lb_SNR200_15hz_g55_6.RAW', FMTDAT='(8E13.5)'
 TRAMP=1., VOLUME=1. $END
  3.10181E+05  1.39346E+02  3.37687E+05  2.49997E+05  8.46643E+04  3.39084E+05 -1.32902E+05  2.51382E+05
 -1.89866E+05  8.36369E+04 -1.11527E+05 -3.17178E+04  8.63506E+02 -4.98330E+04  5.32426E+04  1.56422E+03
  3.52699E+04  5.33429E+04 -1.63763E+04  7.63671E+04 -6.10625E+04  6.41574E+04 -8.38608E+04  3.19935E+04
 -8.21041E+04 -1.21508E+04 -5.60638E+04 -5.12236E+04 -1.54001E+04 -7.07067E+04  2.73256E+04 -4.51013E+04
  3.90321E+04  4.55513E+03  1.68658E+04  4.81765E+04 -3.38222E+04  4.74948E+04 -6.67511E+04 -6.65624E+02
 -5.40738E+04 -5.73880E+04 -5.86039E+03 -7.66204E+04  3.30346E+04 -5.54947E+04  4.75367E+04 -1.72138E+04
  4.44172E+04  1.11987E+04  3.23210E+04  2.46062E+04  1.58331E+04  2.84462E+04 -5.55894E+03  2.68269E+04
 -2.09848E+04  1.17736E+04 -1.74608E+04 -5.25265E+03  5.86586E+03 -7.75924E+03  2.28289E+04  1.26816E+04
  7.88007E+03  3.51316E+04 -3.28158E+04  3.61532E+04 -6.34031E+04  1.26819E+03 -5.64755E+04 -4.10432E+04
 -1.19420E+04 -6.28241E+04  3.89575E+04 -4.54532E+04  5.83708E+04 -2.36441E+03  3.46425E+04  3.26199E+04
 -6.12469E+03  3.58780E+04 -2.88676E+04  1.63511E+04 -3.05240E+04 -4.82889E+03 -1.66694E+04 -1.07221E+04
 -7.57533E+03 -1.38216E+04 -2.20285E+03 -1.66793E+04  7.45086E+03 -2.26041E+04  1.61966E+04 -1.33716E+04
  1.19644E+04  6.12880E+03 -8.53758E+03  1.21662E+04 -2.16640E+04 -5.38743E+03 -8.42264E+03 -3.48750E+04
  2.16417E+04 -4.38793E+04  4.87037E+04 -1.96959E+04  4.42912E+04  1.91755E+04  1.50877E+04  4.45909E+04
 -1.51053E+04  3.27019E+04 -2.55170E+04  1.23408E+03 -1.03347E+04 -2.78300E+04  2.06785E+04 -3.48098E+04
  4.09269E+04 -1.01138E+04  3.49986E+04  2.37943E+04  1.79654E+04  4.59561E+04 -7.63455E+03  4.87616E+04
 -3.26581E+04  3.43616E+04 -4.25180E+04  8.66068E+03 -4.16726E+04 -1.64977E+04 -2.48266E+04 -3.78082E+04
  7.24643E+03 -3.72970E+04  3.13230E+04 -1.45804E+04  2.84275E+04  1.12625E+04  2.91537E+03  2.00365E+04
 -1.32201E+04  8.00493E+03 -1.20808E+04 -7.13911E+03  6.18307E+03 -1.11840E+04  1.80704E+04  5.93511E+03
  1.32949E+04  2.16668E+04 -4.94757E+03  2.40083E+04 -2.19363E+04  1.11223E+04 -2.70215E+04 -5.27531E+03
 -2.05470E+04 -1.60649E+04 -8.17779E+03 -2.04400E+04  3.49089E+03 -1.91779E+04  1.66924E+04 -1.86759E+04
  2.70242E+04 -1.23401E+04  3.34422E+04  3.50133E+03  2.35505E+04  2.03428E+04  4.71774E+03  3.66485E+04
 -1.79643E+04  2.99278E+04 -2.76792E+04  1.07688E+04 -2.10073E+04 -9.39578E+03 -4.14861E+03 -1.38733E+04
  1.11519E+03 -1.99692E+03 -4.67923E+03  5.71634E+03 -1.61745E+04  4.64568E+03 -1.68304E+04 -5.92112E+03
 -1.02266E+04 -1.78267E+04  5.62267E+03 -2.26837E+04  1.53881E+04 -1.65661E+04  1.82643E+04 -1.94473E+03
  1.14229E+04  1.27868E+04 -1.07274E+03  1.93702E+04 -1.45263E+04  1.06756E+04 -1.99924E+04 -4.16018E+03
 -1.40517E+04 -1.73272E+04 -1.33319E+03 -2.23781E+04  1.05434E+04 -1.80038E+04  1.77756E+04 -8.78545E+03
  1.87683E+04 -1.62342E+01  1.28164E+04  3.67460E+03  7.58774E+03  9.06610E+02  9.05650E+03 -2.31379E+03
  1.69887E+04  4.16233E+03  1.89306E+04  1.48993E+04  1.14517E+04  2.95385E+04 -3.36859E+03  3.30511E+04
 -1.94693E+04  2.71767E+04 -2.97830E+04  1.39929E+04 -3.24214E+04 -3.11739E+03 -2.69480E+04 -1.81652E+04
 -1.27485E+04 -2.79366E+04  8.45039E+03 -2.49145E+04  2.11201E+04 -1.28639E+04  1.92901E+04  6.01898E+03
  6.68604E+03  1.46543E+04 -9.63018E+03  1.38495E+04 -1.62907E+04  2.63207E+03 -1.38848E+04 -1.09482E+04
 -2.53945E+02 -1.62605E+04  6.84993E+03 -1.04426E+04  1.02519E+04 -1.39405E+03  1.94629E+03  7.26112E+03
 -6.53674E+03  1.82452E+03 -5.97875E+03 -4.46328E+03  8.15350E+02 -1.27380E+04  1.01035E+04 -1.39596E+04
  1.69362E+04 -7.37319E+03  1.74722E+04  3.13064E+03  1.51697E+04  1.33211E+04  7.12699E+03  2.02279E+04
 -3.60564E+03  2.18775E+04 -1.51903E+04  1.44669E+04 -1.52646E+04  3.60503E+03 -1.15552E+04 -3.22675E+03
 -5.54951E+03 -4.75061E+03 -6.96751E+02  1.73200E+03 -2.36553E+03  3.41903E+03 -5.48478E+03  3.63692E+03
 -1.04701E+04 -1.84423E+03 -1.11080E+04 -8.97799E+03 -5.41530E+03 -1.62853E+04  5.03188E+03 -9.78065E+03
  9.05707E+03 -5.12413E+03  7.06951E+03  3.30889E+03  7.48639E+02  4.31437E+03 -4.58059E+03 -4.64150E+02
 -5.02344E+03 -8.81052E+03 -9.96862E+02 -1.03567E+04  5.38907E+03 -8.86514E+03  1.25027E+04 -5.81643E+03
  1.71885E+04  9.00791E+02  1.21033E+04  9.26699E+03  2.51899E+03  1.23799E+04 -6.96293E+03  1.18254E+04
 -9.95439E+03  2.42789E+03 -4.68906E+03 -2.13321E+03  1.46745E+03 -3.35207E+03  6.94962E+03 -1.49046E+02
  4.20919E+03  4.92576E+03  6.97518E+02  8.53909E+03 -6.42393E+03  8.17653E+03 -1.16752E+04  2.68295E+03
 -7.49048E+03 -4.92561E+03  7.87863E+02 -9.86914E+03  5.46513E+03 -3.42805E+03  5.29126E+03  1.13952E+03
  2.81531E+02  6.71669E+03 -4.45273E+03  7.32848E+03 -7.92541E+03  3.05025E+03 -7.80451E+03 -2.09778E+03
 -4.39601E+03 -9.38006E+03  1.71730E+03 -1.16457E+04  9.01415E+03 -7.01130E+03  9.59857E+03  1.92855E+02
  7.10975E+03  9.09980E+03 -3.77472E+02  1.03015E+04 -7.61446E+03  4.86340E+03 -8.88590E+03  2.59162E+02
 -7.74128E+03 -7.34810E+03 -1.85642E+03 -6.60317E+03  2.93746E+03 -6.60443E+03  4.77890E+03 -2.42785E+03
  2.76781E+03  1.30585E+02 -8.32014E+01  1.59563E+03  1.29551E+03 -5.81466E+02  5.97109E+02 -3.03251E+03
  5.14946E+03 -2.43286E+03  7.76503E+03  1.62336E+03  8.77648E+03  5.60966E+03  6.16492E+03  1.13123E+04
 -2.75436E+03  1.24515E+04 -1.08807E+04  1.10053E+04 -1.48680E+04  1.58313E+03 -1.14229E+04 -4.60899E+03
 -6.12044E+03 -1.01271E+04 -1.47739E+03 -8.85971E+03  3.00634E+03 -4.31487E+03  3.22311E+03 -3.04404E+03
  1.41830E+03 -2.78322E+03  2.77721E+03 -3.42814E+03  5.42305E+03 -3.22662E+03  4.90573E+03  5.55238E+02
  5.95030E+03  1.47641E+03  2.31036E+03  5.43644E+03 -1.63829E+03  4.59401E+03 -6.54449E+03  5.68463E+03
 -7.68596E+03 -1.24699E+03 -4.38700E+03 -5.05697E+03  2.82315E+02 -7.89175E+03  5.14817E+03 -8.29866E+03
  8.12217E+03 -3.52486E+03  1.01179E+04  1.01503E+03  7.51112E+03  7.98070E+03  2.49718E+03  8.65505E+03
 -3.21172E+03  7.62395E+03 -4.97867E+03  2.66652E+03 -4.85367E+03 -9.68489E+02 -1.19042E+03 -1.31675E+03
 -1.32564E+03  1.46999E+03 -1.79934E+03  2.74924E+03 -3.38359E+03 -3.02874E+01 -5.20215E+03 -2.72436E+02
 -2.31414E+03 -5.99554E+03  1.06973E+03 -8.58820E+03  3.83107E+03 -6.89931E+03  6.18496E+03 -2.13390E+03
  7.46788E+03  3.99175E+03  4.48875E+03  4.60918E+03 -2.18213E+03  7.60695E+03 -5.29241E+03  4.85603E+03
 -6.74186E+03  1.06871E+03 -5.95406E+03 -4.68365E+03  1.76365E+02 -5.48161E+03  3.24103E+03 -3.37925E+03
  5.11289E+03 -2.19166E+03  3.08166E+03  3.11409E+02  5.24700E+02  2.63571E+03  4.11577E+02  4.13178E+02
  1.08984E+03  1.10965E+03  7.63882E+02  1.60743E+03  2.25965E+03  2.78831E+03  1.36070E+03  3.73758E+03
 -2.76453E+03  5.57490E+03 -4.99869E+03  5.55499E+03 -7.31004E+03  1.67720E+03 -7.42582E+03 -2.43364E+03
 -3.91350E+03 -6.53151E+03  1.61269E+03 -6.40274E+03  2.73589E+03 -4.72003E+03  4.87745E+03 -7.17495E+02
  4.02560E+03  3.21271E+03 -1.63537E+02  4.01761E+03 -3.01563E+03  1.68715E+03 -2.24773E+03 -4.05709E+02
 -1.74195E+03 -2.65188E+03  2.14755E+03 -3.62345E+03  2.85131E+03 -1.88464E+03  3.14957E+03  1.87054E+03
  1.81511E+03  8.59909E+02  4.15080E+02  3.78493E+02 -7.73508E+02  8.37084E+02  1.29401E+03 -1.01372E+03
  8.12571E+02 -6.03339E+02  1.86347E+03  9.53370E+02  1.35549E+03  3.40271E+03 -3.52066E+02  4.63552E+03
 -3.62957E+03  1.77989E+03 -2.66056E+03 -1.89961E+02 -4.02776E+03 -1.82867E+03 -1.19142E+03 -2.51113E+03
  4.49922E+02 -2.20978E+03  1.10655E+03 -9.12282E+02  7.61270E+02  2.07669E+03 -1.62538E+03  2.01309E+03
 -2.92989E+03  1.50458E+03 -1.66715E+03 -2.32230E+03 -3.86603E+02 -3.19906E+03  1.53703E+03 -3.54944E+03
  5.70937E+02 -1.69762E+03  2.90600E+03  5.02108E+02  2.24772E+03  1.33274E+02  5.07123E+02  2.21294E+03
  4.41205E+01 -3.33233E+02 -1.44980E+03 -9.46003E+02  8.67977E+02 -7.66192E+02  2.57635E+03 -1.22270E+03
  2.96233E+03  9.52071E+02  3.95878E+03  2.27893E+03  1.93197E+03  3.52510E+03 -1.96997E+03  3.88826E+03
 -2.74120E+03  1.56821E+03 -2.01647E+03 -1.60263E+02 -2.41301E+03 -3.15787E+03 -3.36888E+02 -1.21269E+03
  2.80833E+03 -1.10743E+03  1.58134E+03 -5.13944E+01  1.45295E+03  1.74523E+03 -2.84553E+02  2.23863E+03
 -2.35639E+03  1.51365E+03 -8.98201E+02  2.52597E+02 -4.86109E+02 -5.17300E+01 -1.78021E+03 -3.51888E+01
 -4.61520E+02  2.36341E+03 -2.54856E+03  5.58504E+02 -3.27210E+03  1.17950E+03 -3.16009E+03 -9.00382E+02
 -2.18963E+03 -3.98587E+03  1.66476E+02 -6.25457E+03  2.77392E+03 -4.43063E+03  4.73444E+03 -2.21292E+03
  5.96356E+03  7.35003E+02  2.65295E+03  2.70000E+03 -3.79412E+02  2.04556E+03 -1.79678E+03  2.46708E+03
 -3.23687E+03  8.53777E+02 -9.67574E+02 -4.39415E+02 -1.33095E+03 -2.87608E+02 -6.31060E+02  1.63333E+02
 -8.77516E+02  3.02249E+02 -1.40756E+03 -7.61739E+02  4.86208E+02 -4.61847E+02  6.11904E+02 -8.71947E+02
  1.02298E+03 -1.16750E+03  2.40619E+03 -6.48970E+02  2.58806E+03  3.13826E+03 -3.30528E+02  3.02578E+03
 -1.25571E+03  4.61508E+03 -2.68861E+03  2.07008E+03 -3.53001E+03 -1.05464E+03 -3.76317E+03 -1.87508E+03
 -1.75733E+03 -3.20383E+03  2.18685E+03 -2.17665E+03  1.46671E+03 -7.94292E+02  1.93633E+03  2.75698E+02
  1.29357E+03  1.47573E+03 -1.73481E+03  2.16854E+03 -1.01304E+03  4.55196E+02  4.09230E+02  1.12497E+03
  5.57216E+02 -2.30527E+02  1.40138E+03 -5.08342E+02  9.74663E+02  8.70150E+02  1.22772E+03  3.79687E+02
 -1.33936E+03  8.25527E+02 -1.44238E+03  8.82103E+02 -2.22464E+03 -7.33246E+02  2.27484E+02 -2.27163E+03
  1.93470E+03 -3.35692E+03  1.00679E+03 -4.60680E+02  2.41365E+03 -1.57528E+03  1.89757E+03  2.32794E+03
  1.41653E+03  1.72333E+03 -6.87721E+02  1.20749E+03 -2.01173E+03  2.25577E+03 -8.79432E+02 -2.43180E+01
 -6.89234E+02 -2.29773E+02 -3.00181E+02  3.80718E+02 -1.07934E+03 -6.61097E+00 -1.77888E+03 -1.08490E+03
 -2.43786E+03  3.97808E+02 -1.23650E+03 -2.66728E+03  1.82174E+03 -2.82220E+03  1.61585E+03 -6.37315E+02
  1.23619E+03 -2.80692E+02  4.15547E+02  1.46139E+03 -8.28823E+02  1.89877E+03 -2.12527E+03  1.87812E+03
