 $NMID ID='MM_0lb_SNR200_7hz_g55_98.RAW', FMTDAT='(8E13.5)'
 TRAMP=1., VOLUME=1. $END
  3.09558E+05 -5.18691E+02  3.36148E+05  2.51731E+05  8.38573E+04  3.38571E+05 -1.33719E+05  2.51119E+05
 -1.91357E+05  8.36495E+04 -1.14903E+05 -3.06221E+04 -1.42123E+02 -5.11041E+04  5.39471E+04 -9.05105E+02
  3.54737E+04  5.23596E+04 -1.60268E+04  7.52829E+04 -6.27612E+04  6.44642E+04 -8.66509E+04  3.27266E+04
 -8.25953E+04 -1.26218E+04 -5.74721E+04 -5.33936E+04 -1.49934E+04 -7.05148E+04  3.00234E+04 -4.95721E+04
  4.01899E+04  5.68760E+03  1.78344E+04  4.88015E+04 -3.60906E+04  4.70808E+04 -6.82113E+04  4.65165E+02
 -5.50003E+04 -5.80930E+04 -7.47726E+03 -7.90360E+04  3.51057E+04 -5.61532E+04  4.94143E+04 -1.89237E+04
  4.67185E+04  1.13586E+04  3.51090E+04  2.86826E+04  1.32256E+04  3.06457E+04 -7.09542E+03  2.74259E+04
 -2.28716E+04  1.11912E+04 -1.79027E+04 -6.23306E+03  9.25893E+03 -7.59901E+03  2.41035E+04  1.57697E+04
  7.81226E+03  3.84143E+04 -3.51879E+04  3.81255E+04 -6.75966E+04  3.03645E+03 -5.96459E+04 -4.64456E+04
 -1.39346E+04 -6.79913E+04  4.29443E+04 -4.82396E+04  6.35789E+04 -1.65127E+03  3.47075E+04  3.72495E+04
 -4.63889E+03  4.25982E+04 -3.29783E+04  2.02311E+04 -3.29306E+04 -9.62356E+02 -2.07491E+04 -1.24335E+04
 -1.22525E+04 -1.62027E+04 -1.56048E+03 -2.12589E+04  9.07518E+03 -2.41613E+04  1.65377E+04 -1.34911E+04
  9.39202E+03  6.52268E+03 -1.13212E+04  1.29851E+04 -2.48062E+04 -8.21745E+03 -8.72954E+03 -4.16569E+04
  2.80266E+04 -4.99894E+04  5.36312E+04 -2.07897E+04  5.12835E+04  2.37980E+04  1.74540E+04  4.68752E+04
 -1.73509E+04  3.64116E+04 -2.72813E+04  2.30183E+03 -1.15840E+04 -3.12391E+04  2.14631E+04 -3.91834E+04
  4.69092E+04 -1.25946E+04  4.34244E+04  2.56316E+04  2.26051E+04  5.34602E+04 -7.29507E+03  5.81996E+04
 -3.48561E+04  3.93960E+04 -5.06713E+04  1.22630E+04 -5.05454E+04 -2.05903E+04 -2.81747E+04 -4.58151E+04
  7.69873E+03 -4.43219E+04  3.33159E+04 -1.92903E+04  3.28589E+04  1.03662E+04  5.36141E+03  2.15304E+04
 -1.38680E+04  1.15325E+04 -1.16693E+04 -7.83637E+03  6.91664E+03 -1.10008E+04  1.83328E+04  6.58597E+03
  1.46603E+04  2.36461E+04 -5.38170E+03  2.84021E+04 -2.38643E+04  1.53819E+04 -3.69313E+04 -1.93315E+03
 -2.93761E+04 -2.00418E+04 -1.48301E+04 -2.65826E+04  6.02571E+03 -3.02910E+04  2.09162E+04 -2.66524E+04
  3.46314E+04 -1.55847E+04  4.18994E+04  5.26887E+03  2.80576E+04  2.51768E+04  6.12490E+03  4.18761E+04
 -2.09183E+04  3.53109E+04 -3.41433E+04  1.33089E+04 -2.20157E+04 -1.08106E+04 -4.85976E+03 -1.19338E+04
  4.71488E+02  1.36344E+03 -8.94899E+03  1.08884E+04 -2.26732E+04  4.85029E+03 -2.32909E+04 -1.06389E+04
 -1.34454E+04 -2.45218E+04  4.93521E+03 -3.11524E+04  1.95083E+04 -2.08451E+04  2.76712E+04 -2.24747E+03
  1.55324E+04  1.66121E+04 -3.17767E+03  2.53679E+04 -1.86327E+04  1.56953E+04 -2.66056E+04 -5.50793E+03
 -1.81349E+04 -2.33761E+04 -1.61603E+03 -3.07281E+04  1.39558E+04 -2.55295E+04  2.31970E+04 -1.40080E+04
  2.50392E+04 -2.33408E+02  1.75793E+04  4.44058E+03  9.65609E+03  1.14432E+03  1.43095E+04 -3.11597E+03
  2.35172E+04  4.59033E+03  2.86394E+04  2.02305E+04  1.96409E+04  4.18780E+04 -2.82594E+03  5.06693E+04
 -2.99819E+04  4.17062E+04 -4.69011E+04  2.28808E+04 -4.67588E+04 -3.57682E+03 -4.08320E+04 -2.98622E+04
 -1.56381E+04 -4.08128E+04  1.41315E+04 -3.70893E+04  2.93010E+04 -1.65916E+04  2.70784E+04  1.09670E+04
  9.47759E+03  1.96325E+04 -1.25647E+04  1.85298E+04 -2.25923E+04  3.40260E+03 -1.59259E+04 -1.37860E+04
  2.02632E+03 -1.92872E+04  1.15806E+04 -1.65711E+04  1.54559E+04 -3.52210E+03  1.51487E+03  8.97931E+03
 -1.03132E+04  5.81768E+03 -1.03438E+04 -8.70744E+03 -1.04769E+03 -1.99537E+04  1.26459E+04 -2.24256E+04
  2.69920E+04 -1.47278E+04  3.00813E+04  2.68291E+03  2.60128E+04  2.28668E+04  1.15299E+04  3.51272E+04
 -6.63579E+03  3.42645E+04 -2.31668E+04  2.24324E+04 -2.40793E+04  5.62862E+03 -1.84366E+04 -6.72840E+03
 -5.18791E+03 -8.02023E+03  1.39390E+02  8.38175E+02 -7.55667E+02  3.54085E+03 -9.90731E+03  7.52983E+03
 -1.58026E+04 -6.89364E+02 -1.72748E+04 -1.39753E+04 -8.59192E+03 -2.43613E+04  7.56692E+03 -1.89641E+04
  1.43542E+04 -6.51073E+03  7.93786E+03  4.31038E+03 -6.61757E+02  7.22491E+03 -9.23430E+03  3.48728E+01
 -9.38756E+03 -1.12441E+04 -2.37787E+03 -1.91101E+04  1.12853E+04 -1.89318E+04  2.37095E+04 -1.18873E+04
  2.70729E+04  4.77315E+02  1.94705E+04  1.74822E+04  3.88983E+03  2.22986E+04 -1.34263E+04  1.88526E+04
 -1.37759E+04  3.07451E+03 -7.10487E+03 -3.91125E+03  3.68840E+03 -4.56337E+03  9.36868E+03  2.69639E+01
  8.46932E+03  8.81277E+03  1.98856E+03  1.50709E+04 -1.20719E+04  1.58540E+04 -1.81784E+04  2.26466E+03
 -1.50180E+04 -9.74107E+03  6.21834E+02 -1.55987E+04  1.16981E+04 -7.64299E+03  1.22356E+04  4.14164E+03
  1.64724E+03  1.31620E+04 -8.79685E+03  1.39562E+04 -1.53007E+04  5.05187E+03 -1.71511E+04 -7.61421E+03
 -1.04600E+04 -1.90169E+04  5.00731E+03 -2.20525E+04  1.78531E+04 -1.34140E+04  1.91712E+04  2.21402E+03
  1.16879E+04  1.71732E+04 -4.56478E+03  1.72091E+04 -1.36051E+04  9.99536E+03 -1.70530E+04 -1.70923E+03
 -1.25784E+04 -1.48962E+04 -2.21978E+03 -1.61471E+04  7.31470E+03 -1.38722E+04  7.40124E+03 -4.05097E+03
  6.48419E+03  9.47394E+02 -1.73972E+03  7.18810E+02 -7.23338E+02 -4.65447E+03  2.18757E+03 -1.00519E+04
  1.38865E+04 -6.96054E+03  2.08327E+04  2.44076E+03  1.99536E+04  1.31513E+04  1.13820E+04  2.65939E+04
 -7.87565E+03  2.96088E+04 -2.28071E+04  2.30960E+04 -3.19032E+04  3.65558E+03 -2.50463E+04 -1.05517E+04
 -1.36361E+04 -2.00073E+04 -8.35748E+02 -1.79735E+04  5.83833E+03 -9.65063E+03  6.06257E+03 -3.96519E+03
  6.23582E+03 -2.01091E+03  3.85295E+03 -5.42420E+03  6.89147E+03 -3.89361E+03  9.35718E+03 -1.70085E+03
  1.34117E+04  2.12047E+02  6.27795E+03  1.19953E+04 -3.24013E+03  1.51429E+04 -1.44678E+04  8.10163E+03
 -2.10614E+04 -1.57472E+03 -1.25272E+04 -1.33458E+04 -2.84700E+03 -1.94260E+04  1.05387E+04 -1.99008E+04
  2.15479E+04 -1.03588E+04  2.34440E+04  3.21558E+03  1.58782E+04  1.87773E+04  1.54574E+03  2.31605E+04
 -1.03591E+04  1.86708E+04 -1.30139E+04  6.37766E+03 -7.91290E+03 -3.03696E+03 -4.37860E+03 -3.45005E+03
 -3.10295E+03 -1.30692E+03 -2.60005E+03  4.46404E+03 -9.31673E+03  3.55045E+03 -1.25457E+04 -1.46393E+03
 -1.02219E+04 -1.31895E+04  5.49302E+02 -1.86794E+04  9.90885E+03 -1.59196E+04  1.83751E+04 -7.66158E+03
  1.80187E+04  1.14906E+04  9.58554E+03  1.84217E+04 -3.14086E+03  1.87008E+04 -1.48673E+04  1.33425E+04
 -1.81174E+04 -1.52613E+03 -1.33139E+04 -1.24334E+04 -1.48468E+03 -1.52366E+04  8.16708E+03 -1.07470E+04
  1.25010E+04 -3.83953E+03  7.91584E+03  2.57835E+03  3.27950E+03  5.13622E+03  1.55022E+03  3.54241E+03
  2.16610E+03 -1.80634E+02  4.52542E+03  3.21023E+03  5.12644E+03  5.54254E+03  5.32203E+03  1.03360E+04
 -5.51832E+03  1.65576E+04 -1.43477E+04  1.40499E+04 -2.12024E+04  5.51581E+03 -2.06181E+04 -9.82934E+03
 -1.15587E+04 -2.13188E+04  2.69682E+03 -2.14425E+04  1.23029E+04 -1.48605E+04  1.57116E+04 -2.75485E+03
  1.36849E+04  9.18433E+03  3.60876E+03  1.33111E+04 -6.41343E+03  6.74063E+03 -8.58030E+03 -8.81784E+02
 -2.81817E+03 -9.70308E+03  5.11098E+03 -7.79934E+03  7.61932E+03 -5.96158E+03  8.37590E+03  2.03032E+03
  3.78876E+03  4.89594E+03  3.02510E+03  2.53914E+03  6.51751E+02  2.14040E+03  2.50361E+03 -1.64223E+03
  2.24296E+03 -5.45183E+02  9.24566E+03  3.92929E+03  4.03476E+03  1.10278E+04 -2.44693E+02  1.62152E+04
 -9.12054E+03  9.43258E+03 -1.15463E+04  3.80487E+03 -1.26273E+04 -4.51538E+03 -5.01255E+03 -9.20768E+03
  1.24580E+03 -8.59316E+03  6.00611E+03 -2.71404E+03  7.01695E+03  2.12979E+03 -1.99159E+03  6.88906E+03
 -9.26706E+03  5.13260E+03 -1.14820E+04 -4.95189E+03 -5.42495E+03 -1.21383E+04  2.25740E+03 -1.08685E+04
  8.14006E+03 -6.67534E+03  8.57068E+03 -1.78889E+03  8.98712E+03  3.41564E+03 -5.99761E+02  4.98892E+03
 -3.68214E+03  1.45327E+03 -5.32454E+03 -3.35964E+03  2.00050E+03 -9.41653E+03  1.00454E+04 -8.32051E+03
  1.28034E+04  1.60996E+03  1.36987E+04  1.20343E+04  4.01722E+03  1.65526E+04 -7.01807E+03  1.32806E+04
 -9.74775E+03  7.34585E+03 -1.18520E+04 -6.99539E+02 -6.50056E+03 -9.73344E+03  1.31782E+03 -7.35362E+03
  8.75117E+03 -3.22033E+03  7.77145E+03  3.72866E+03  3.12623E+03  8.20281E+03 -1.24598E+03  9.00320E+03
 -3.38471E+03  5.38633E+03 -2.52113E+03  2.88319E+03 -1.89217E+03  9.76013E+02 -5.81957E+01  4.72967E+03
 -3.85947E+03  5.32142E+03 -1.01646E+04  6.73402E+03 -1.35570E+04 -2.16558E+02 -1.68343E+04 -8.80539E+03
 -7.92215E+03 -1.78887E+04  3.57140E+03 -2.04123E+04  1.36691E+04 -1.72571E+04  2.14550E+04 -5.60978E+03
  1.88076E+04  4.31735E+03  1.31988E+04  1.18481E+04  2.54634E+03  1.61825E+04 -6.67417E+03  9.90577E+03
 -7.32816E+03  4.47962E+03 -5.92926E+03 -2.29632E+03 -3.33861E+03 -2.83509E+03 -1.67901E+03 -5.31496E+02
 -1.91132E+03  7.03235E+02 -2.35250E+03 -4.74845E+02 -2.81984E+03 -5.40239E+03  9.91456E+02 -8.56284E+03
  7.92626E+03 -6.86065E+03  1.01296E+04 -4.38429E+02  1.11934E+04  8.76884E+03  3.60532E+03  1.58872E+04
 -8.47850E+03  1.63278E+04 -1.71950E+04  9.78251E+03 -1.98691E+04 -2.00900E+03 -1.44348E+04 -1.12902E+04
 -6.36720E+03 -1.44729E+04  4.01684E+03 -1.48810E+04  9.54078E+03 -7.81257E+03  9.28476E+03  8.46627E+02
  4.26844E+03  4.73038E+03 -1.33054E+03  5.25298E+03 -1.81231E+03 -3.58100E+02 -4.82245E+02 -1.74152E+03
  5.40025E+03 -1.67082E+03  6.49046E+03  2.48847E+03  4.37951E+03  6.16787E+03 -1.01013E+03  7.95216E+03
 -4.95572E+03  7.58040E+03 -1.18929E+04  1.01127E+03 -9.96788E+03 -6.54405E+03 -4.77131E+02 -1.21499E+04
  6.81789E+03 -9.51980E+03  1.09827E+04 -2.64424E+03  1.39826E+04  4.68806E+03  7.11401E+03  1.00522E+04
  1.97848E+03  1.11150E+04 -3.20932E+03  1.01789E+04 -5.25422E+03  4.11696E+03 -5.65952E+03 -1.07449E+03
 -4.67722E+03  6.42699E+02 -2.93409E+03  1.52064E+03 -5.26228E+03  1.55543E+03 -8.95638E+03 -2.79830E+03
 -7.84428E+03 -4.50506E+03 -1.76169E+03 -9.47039E+03  3.10878E+03 -1.00340E+04  8.50279E+03 -5.75807E+03
  1.10894E+04  8.86247E+02  6.52297E+03  7.89850E+03 -2.17028E+03  1.07829E+04 -9.34352E+03  8.65722E+03
