 $NMID ID='MM_0lb_SNR200_20hz_g55_2.RAW', FMTDAT='(8E13.5)'
 TRAMP=1., VOLUME=1. $END
  3.09805E+05  5.22950E+02  3.36847E+05  2.50970E+05  8.52174E+04  3.37225E+05 -1.31986E+05  2.51247E+05
 -1.90261E+05  8.18435E+04 -1.10677E+05 -3.32423E+04  1.16750E+03 -4.96817E+04  5.37708E+04 -5.02458E+02
  3.56146E+04  5.36286E+04 -1.73871E+04  7.41240E+04 -6.01391E+04  6.34623E+04 -8.29744E+04  3.15270E+04
 -8.04027E+04 -1.04314E+04 -5.69769E+04 -4.99128E+04 -1.41841E+04 -6.88146E+04  2.68602E+04 -4.44681E+04
  4.00889E+04  4.43184E+03  1.57831E+04  4.69606E+04 -3.44873E+04  4.62676E+04 -6.60758E+04  1.81718E+02
 -5.26189E+04 -5.69149E+04 -6.39952E+03 -7.53947E+04  3.34156E+04 -5.38439E+04  4.66381E+04 -1.60850E+04
  4.23535E+04  1.12568E+04  3.08569E+04  2.39945E+04  1.52866E+04  2.80092E+04 -5.69581E+03  2.67542E+04
 -2.18990E+04  1.13499E+04 -1.96068E+04 -4.75780E+03  4.99594E+03 -7.91628E+03  2.08048E+04  1.14055E+04
  7.60028E+03  3.43255E+04 -2.98039E+04  3.53787E+04 -6.09891E+04  1.87321E+03 -5.48721E+04 -4.07992E+04
 -1.28113E+04 -6.12082E+04  3.91513E+04 -4.31955E+04  5.57328E+04 -2.19767E+03  3.25200E+04  3.11019E+04
 -6.37656E+03  3.36301E+04 -2.75966E+04  1.41163E+04 -2.77000E+04 -5.79376E+03 -1.42466E+04 -1.05761E+04
 -7.06654E+03 -1.04407E+04 -1.49295E+03 -1.71861E+04  6.47500E+03 -2.31132E+04  1.45522E+04 -1.36991E+04
  1.23625E+04  3.78562E+03 -6.65242E+03  1.25521E+04 -1.99138E+04 -2.54638E+03 -7.28418E+03 -3.04809E+04
  2.10492E+04 -4.16222E+04  4.42499E+04 -1.80985E+04  4.31630E+04  1.86045E+04  1.53601E+04  4.17134E+04
 -1.58873E+04  3.00726E+04 -2.35011E+04  1.35455E+03 -8.35023E+03 -2.60090E+04  2.10276E+04 -3.02981E+04
  3.87745E+04 -6.98600E+03  3.10516E+04  2.23620E+04  1.52901E+04  4.27218E+04 -7.19209E+03  4.46908E+04
 -2.81115E+04  2.89866E+04 -3.77369E+04  8.47361E+03 -3.87135E+04 -1.56994E+04 -2.17952E+04 -3.45930E+04
  6.28122E+03 -3.35677E+04  2.89326E+04 -1.28046E+04  2.67846E+04  1.13641E+04  3.25255E+03  1.73513E+04
 -1.29732E+04  7.47008E+03 -9.14648E+03 -7.88297E+03  5.38023E+03 -1.00610E+04  1.64759E+04  6.66895E+03
  1.18252E+04  2.19052E+04 -6.69764E+03  2.35013E+04 -2.12235E+04  9.38112E+03 -2.44494E+04 -6.51569E+03
 -1.65294E+04 -1.66089E+04 -4.65523E+03 -1.72953E+04  4.25141E+03 -1.42378E+04  1.32469E+04 -1.31924E+04
  2.09120E+04 -1.11868E+04  2.73638E+04  7.89766E+02  1.99663E+04  1.67499E+04  3.48982E+03  3.24056E+04
 -1.58717E+04  2.77830E+04 -2.58787E+04  9.73787E+03 -1.87948E+04 -1.12912E+04 -4.88710E+03 -1.38249E+04
  2.15644E+03 -4.61148E+03 -2.85262E+03  5.57227E+03 -1.24136E+04  4.81096E+03 -1.29749E+04 -4.83502E+03
 -8.92723E+03 -1.48379E+04  4.44876E+03 -1.94677E+04  1.20947E+04 -1.38871E+04  1.44192E+04 -1.68599E+03
  9.22014E+03  1.09903E+04 -1.24355E+03  1.59714E+04 -9.60617E+03  7.97868E+03 -1.35076E+04 -4.40839E+03
 -1.16587E+04 -1.41438E+04 -1.17409E+03 -1.78969E+04  8.61132E+03 -1.52723E+04  1.53733E+04 -6.93012E+03
  1.43742E+04  1.21682E+03  9.07469E+03  3.54775E+03  4.69140E+03  1.43589E+03  7.13914E+03 -1.74472E+03
  1.34781E+04  2.70005E+03  1.41001E+04  1.18724E+04  9.07823E+03  2.37331E+04 -2.42880E+03  2.66038E+04
 -1.49602E+04  1.91632E+04 -2.48947E+04  8.59747E+03 -2.43877E+04 -1.72052E+03 -2.10159E+04 -1.47078E+04
 -9.95775E+03 -1.93195E+04  6.03089E+03 -1.84420E+04  1.58824E+04 -1.05827E+04  1.57907E+04  3.49669E+03
  5.92773E+03  1.07284E+04 -6.27051E+03  1.08211E+04 -1.31709E+04  1.43039E+03 -9.53270E+03 -8.23212E+03
  1.18558E+02 -1.25574E+04  6.17860E+03 -9.75756E+03  7.56208E+03 -1.50432E+03  1.04555E+03  5.22558E+03
 -7.00023E+03  4.92356E+02 -2.57204E+03 -5.14843E+03  1.53442E+03 -9.65229E+03  7.63914E+03 -1.02078E+04
  1.11226E+04 -4.16386E+03  1.23111E+04  2.74366E+03  8.56973E+03  8.63141E+03  3.98636E+03  1.24378E+04
 -1.35196E+03  1.46752E+04 -9.29876E+03  8.81186E+03 -9.50276E+03  3.12100E+03 -7.11466E+03 -1.05386E+03
 -3.86130E+03 -3.25058E+03 -1.01383E+03  1.33410E+03 -2.20564E+03  1.30300E+03 -3.36205E+03  4.43460E+03
 -6.23649E+03  3.88392E+02 -8.49426E+03 -6.68525E+03 -3.33941E+03 -1.09865E+04  1.99500E+03 -7.50307E+03
  6.50977E+03 -3.06064E+03  4.82975E+03  2.38774E+03  7.75985E+02  2.86032E+03 -3.13356E+03  2.62108E+02
 -3.42644E+03 -3.80558E+03 -7.59122E+02 -6.65892E+03  3.50304E+03 -8.27559E+03  1.02106E+04 -4.10927E+03
  9.94121E+03  1.59862E+03  7.99747E+03  5.62841E+03  1.00191E+03  9.09929E+03 -5.08767E+03  6.32380E+03
 -6.40789E+03  2.09220E+03 -3.92572E+03 -1.37483E+03  3.02500E+02 -1.30626E+03  5.12690E+03 -1.33988E+03
  2.25968E+03  2.70256E+03  1.24998E+03  6.69250E+03 -3.61988E+03  5.37172E+03 -6.97309E+03  2.43336E+03
 -4.27265E+03 -2.38052E+03  1.00390E+02 -5.40451E+03  4.14266E+03 -2.85978E+03  3.34591E+03  8.04098E+02
  2.53498E+02  3.04385E+03 -4.58719E+03  4.35192E+03 -4.30460E+03  1.52053E+03 -3.97175E+03 -9.85297E+02
 -2.36108E+03 -5.89692E+03  1.31591E+03 -5.80269E+03  5.41878E+03 -3.32387E+03  6.51831E+03  9.23308E+02
  3.98922E+03  3.92732E+03 -9.51678E+02  6.33931E+03 -4.14886E+03  3.73456E+03 -5.54777E+03  7.20521E+02
 -4.46200E+03 -5.28749E+03 -1.42082E+03 -4.55890E+03  2.91247E+03 -4.72639E+03  1.56901E+03 -1.93223E+03
  1.33146E+03 -6.54082E+01  9.09723E+02  2.08368E+03  2.22103E+02  1.03769E+03  8.46636E+02 -1.01265E+03
  3.21522E+03 -3.84925E+01  4.75032E+03  8.48898E+02  5.05937E+03  3.01884E+03  5.69727E+03  5.77186E+03
 -9.88642E+02  7.63180E+03 -7.27877E+03  5.82012E+03 -8.47768E+03  1.24140E+03 -7.18534E+03 -3.18229E+03
 -3.37948E+03 -5.31968E+03 -6.36992E+02 -6.14009E+03  2.48660E+03 -2.35892E+03  1.22320E+03 -3.84185E+02
  1.40602E+03 -1.45387E+03  2.52990E+03 -1.50862E+03  2.99787E+03 -2.19418E+03  3.05863E+03  9.94216E+02
  3.81264E+03  9.95558E+02  9.59317E+02  4.01954E+03 -1.96771E+03  1.59299E+03 -3.58263E+03  1.99080E+03
 -4.41598E+03 -1.53847E+03 -1.13561E+03 -2.38833E+03  5.71216E+02 -4.11177E+03  2.15908E+03 -4.75929E+03
  4.76371E+03 -1.88487E+03  4.85358E+03 -6.23956E+02  4.19855E+03  2.79254E+03  4.89240E+02  5.52885E+03
 -1.71675E+03  5.76337E+03 -2.79437E+03  2.23578E+03 -1.28451E+03 -1.28259E+03  1.17976E+02 -5.00409E+02
 -5.44817E+00  2.79040E+02 -9.72392E+02  2.74530E+02 -2.45759E+03  1.15817E+03 -4.11877E+03  2.79889E+02
 -6.50071E+02 -3.13361E+03  1.34784E+03 -3.81176E+03  2.78406E+03 -4.47421E+03  1.95476E+03 -1.95250E+03
  2.88735E+03  1.64756E+03  2.01739E+03  1.90278E+03 -1.29569E+02  3.40478E+03 -3.37973E+02  2.41863E+03
 -3.44814E+03  1.05324E+02 -2.69015E+03 -2.27447E+03 -1.51004E+02 -2.34234E+03  1.32742E+03 -1.96613E+03
  2.91225E+03 -1.55240E+02  1.16435E+03 -2.95271E+01  3.45558E+02  1.07071E+03  2.27939E+03  1.61338E+02
  1.30846E+03  7.80031E+02  9.75288E+02  2.22309E+03  7.60529E+02  2.59476E+03  1.35045E+03  1.92555E+03
 -1.22252E+03  1.76091E+03 -1.62574E+03  4.34138E+03 -2.60234E+03  2.76023E+03 -2.51307E+03  5.97534E+02
 -1.65424E+03 -3.39084E+03  1.28130E+02 -3.78115E+03  1.50011E+03 -2.91154E+03  1.52492E+03 -7.47581E+02
  1.57409E+03 -9.91695E+01 -2.66458E+02  2.34742E+03  5.78283E+02  8.93502E+02 -4.48592E+02 -9.90017E+02
 -1.10119E+02 -2.03071E+03  1.42959E+03 -1.74706E+03  1.55366E+03 -1.21632E+03  9.77663E+02  8.65467E+02
 -2.19557E+02  1.34506E+02  1.50499E+03 -5.56760E+02  1.49035E+01  7.99599E+02  1.83568E+03 -6.81052E+02
 -1.88198E+02  1.39127E+02  1.97922E+03  5.68367E+02  4.13771E+02  2.95352E+03  6.14069E+02  1.73357E+03
 -2.50691E+03  1.96230E+02 -1.47366E+03  4.93015E+02 -1.49063E+03 -2.04587E+03 -5.72165E+01  4.54641E+02
 -8.07194E+01 -1.12919E+01  5.21887E+02 -1.61975E+03  7.57193E+02  9.61812E+02  7.78586E+01  9.31890E+02
 -6.15578E+02  1.04355E+03  1.57940E+02 -6.59255E+02 -7.52682E+02 -2.16516E+03 -9.58510E+01 -4.64323E+02
 -4.70229E+02 -1.18020E+03  2.58607E+02 -1.52572E+02  4.11899E+02 -8.44452E+01  5.55883E+02  8.06724E+02
 -3.22036E+02  6.72223E+02 -2.58606E+02  5.96429E+02 -1.74040E+01 -6.48268E+02  5.09765E+02 -6.81072E+02
  5.25599E+02 -7.66927E+02  2.90437E+03  7.58487E+02  9.13927E+02  1.92441E+03 -3.11872E+01  1.13225E+03
 -8.49840E+02 -1.32374E+02 -6.23965E+02  7.42472E+02 -9.31233E+02 -9.84227E+02  8.61137E+02 -1.85468E+02
  3.15606E+02 -9.76807E+01  8.95162E+02  3.26841E+02 -9.16552E+02  5.20445E+02 -8.56866E+01  1.16463E+03
 -1.81324E+02  7.60816E+02 -7.44444E+02  1.60201E+02  1.33116E+03 -9.80092E+02 -6.45148E+02  2.98952E+02
  1.17398E+03  1.73295E+03 -2.02728E+03  1.18639E+00 -8.30022E+02 -4.47714E+02 -1.79910E+03 -6.41622E+02
 -8.61443E+02 -6.00351E+02  7.73555E+02 -2.17564E+03 -3.44738E+02 -1.71296E+03  2.00292E+03 -1.54042E+03
  1.15473E+03 -2.36388E+02  2.42990E+03  4.43023E+02 -1.01764E+03  7.70336E+02 -1.84992E+03  6.36565E+02
 -1.63342E+03  1.08133E+03 -2.67668E+01 -4.63106E+02 -7.39800E+02  7.12979E+02 -3.72180E+02  2.39292E+02
 -1.86797E+03  3.87974E+01 -2.79938E+03  8.84594E+01 -1.06588E+02 -4.38917E+02 -1.09120E+02  4.69377E+01
  9.79593E+02 -5.39912E+02 -4.16535E+02  1.04470E+03  1.00218E+03  7.64580E+02 -7.48804E+02  2.18464E+02
 -2.76961E+02  1.26745E+03 -7.44938E+02  8.79771E+02 -4.21805E+02 -1.20126E+03 -7.21242E+02 -6.18556E+02
  3.26637E+02 -6.17479E+02  8.84190E+02 -4.99649E+02 -1.31760E+02 -7.54837E+02  1.74791E+02  2.95838E+02
  1.84233E+03 -6.95117E+02  7.53487E+02 -3.52368E+02  7.28582E+01 -1.45828E+03  6.67267E+02 -1.25670E+03
 -4.38869E+02  2.85403E+02  5.78276E+02  1.48751E+03  3.33450E+02 -5.21328E+02  6.75190E+02 -8.38755E+02
 -4.48087E+02  1.45508E+02  4.41109E+02  7.02856E+02 -4.98602E+02 -1.42786E+03 -3.85791E+01 -8.64393E+01
 -4.45371E+02 -1.71426E+01  1.77269E+02 -1.91779E+02  1.55899E+02 -4.09345E+02  1.79807E+02  8.88126E+02
  6.78032E+01  3.11489E+02  1.05935E+03  1.62022E+03 -3.65456E+01  7.20472E+02  4.96682E+01 -6.24472E+01
 -1.45773E+02 -3.86392E+02 -1.89587E+02  3.05298E+02 -1.01794E+03  2.51365E+01 -1.39168E+02  3.67976E+02
 -1.55794E+03  1.68760E+02 -5.46269E+01 -9.82794E+02  6.37139E+02 -1.20691E+03 -3.01026E+02 -2.69909E+02
  1.08716E+03 -5.67868E+02 -1.38817E+03  5.96132E+02  5.91279E+02  5.80998E+02 -4.16092E+02 -2.67842E+02
