 $NMID ID='MM_0lb_SNR200_15hz_g60_51.RAW', FMTDAT='(8E13.5)'
 TRAMP=1., VOLUME=1. $END
  3.10278E+05 -5.09165E+02  3.39025E+05  2.50503E+05  8.55919E+04  3.37743E+05 -1.31402E+05  2.51291E+05
 -1.91393E+05  8.38368E+04 -1.11436E+05 -3.24929E+04  9.48748E+02 -4.93693E+04  5.39579E+04 -1.21617E+03
  3.59164E+04  5.24865E+04 -1.65956E+04  7.65368E+04 -6.06123E+04  6.36165E+04 -8.47371E+04  3.18293E+04
 -8.14153E+04 -1.30869E+04 -5.80674E+04 -5.19319E+04 -1.55416E+04 -6.95846E+04  2.69722E+04 -4.63338E+04
  4.18103E+04  3.37684E+03  1.66341E+04  4.80877E+04 -3.47068E+04  4.73927E+04 -6.67552E+04 -4.81223E+02
 -5.34139E+04 -5.70481E+04 -6.96746E+03 -7.86262E+04  3.33902E+04 -5.56538E+04  4.79485E+04 -1.82746E+04
  4.44013E+04  1.23399E+04  3.08196E+04  2.66252E+04  1.59575E+04  2.92455E+04 -4.76229E+03  2.67487E+04
 -2.18899E+04  1.30587E+04 -1.83488E+04 -5.53634E+03  5.92059E+03 -7.24717E+03  2.28613E+04  1.20707E+04
  7.82615E+03  3.56447E+04 -3.33280E+04  3.55458E+04 -6.45448E+04  2.76237E+03 -5.77481E+04 -4.40033E+04
 -1.24603E+04 -6.41116E+04  3.91467E+04 -4.65767E+04  5.99904E+04 -2.03642E+03  3.47934E+04  3.19121E+04
 -6.81689E+03  3.71492E+04 -3.13102E+04  1.61768E+04 -3.11161E+04 -3.90662E+03 -1.81212E+04 -1.18697E+04
 -8.22462E+03 -1.37581E+04 -9.19932E+01 -1.93071E+04  7.68762E+03 -2.19824E+04  1.62214E+04 -1.20994E+04
  1.09505E+04  4.79921E+03 -7.98837E+03  1.36125E+04 -2.12009E+04 -3.90134E+03 -8.63551E+03 -3.38143E+04
  2.23465E+04 -4.39678E+04  4.84605E+04 -2.01757E+04  4.56619E+04  1.91033E+04  1.54115E+04  4.53569E+04
 -1.50578E+04  3.36076E+04 -2.53790E+04  2.38270E+03 -1.01055E+04 -2.83372E+04  2.07809E+04 -3.37804E+04
  4.18588E+04 -1.07526E+04  3.56981E+04  2.45810E+04  1.80569E+04  4.72973E+04 -7.39157E+03  5.10864E+04
 -3.16756E+04  3.44835E+04 -4.30513E+04  1.09138E+04 -4.39419E+04 -1.66984E+04 -2.42435E+04 -3.89555E+04
  7.25981E+03 -3.78959E+04  3.24375E+04 -1.51246E+04  2.97639E+04  9.87408E+03  4.52886E+03  1.99797E+04
 -1.33970E+04  8.28250E+03 -1.04367E+04 -7.19225E+03  6.65528E+03 -1.14489E+04  1.83881E+04  5.26631E+03
  1.34934E+04  2.33098E+04 -5.93890E+03  2.50392E+04 -2.13029E+04  1.25164E+04 -2.91098E+04 -3.66692E+03
 -2.23100E+04 -1.67199E+04 -8.53183E+03 -2.25876E+04  4.16080E+03 -2.00383E+04  1.60643E+04 -1.75900E+04
  2.67749E+04 -1.21012E+04  3.34121E+04  3.15045E+03  2.30715E+04  2.11122E+04  5.17643E+03  3.66651E+04
 -1.82092E+04  3.17871E+04 -2.84740E+04  1.09607E+04 -2.08804E+04 -1.10176E+04 -5.17243E+03 -1.29449E+04
  2.20392E+03 -2.69539E+03 -5.80091E+03  5.64146E+03 -1.62374E+04  6.46518E+03 -1.64467E+04 -7.16547E+03
 -1.05691E+04 -1.98912E+04  4.36924E+03 -2.36476E+04  1.48336E+04 -1.71064E+04  1.81040E+04 -5.48070E+02
  1.21274E+04  1.38721E+04 -1.30601E+03  2.00354E+04 -1.32415E+04  1.12403E+04 -2.00580E+04 -4.49924E+03
 -1.53334E+04 -1.65914E+04 -1.59136E+03 -2.20954E+04  1.08167E+04 -1.87623E+04  1.84866E+04 -8.40728E+03
  1.76097E+04  8.00473E+02  1.24357E+04  4.53490E+03  7.25302E+03  6.57017E+02  1.18649E+04 -1.97173E+03
  1.85648E+04  1.84984E+03  2.00404E+04  1.58916E+04  1.27481E+04  3.07770E+04 -3.03581E+03  3.48388E+04
 -1.99571E+04  2.85804E+04 -3.31043E+04  1.47867E+04 -3.46476E+04 -9.06164E+02 -2.88307E+04 -1.91072E+04
 -1.31784E+04 -2.87541E+04  9.03999E+03 -2.61873E+04  2.18317E+04 -1.35073E+04  1.82850E+04  4.64245E+03
  7.60924E+03  1.51047E+04 -1.00113E+04  1.25046E+04 -1.86421E+04  3.27230E+03 -1.27808E+04 -1.10378E+04
 -8.50348E+02 -1.62015E+04  9.41257E+03 -1.11071E+04  1.02748E+04 -2.15135E+03  1.41221E+03  5.68877E+03
 -7.80155E+03  3.06986E+03 -7.18361E+03 -5.29360E+03 -4.55750E+02 -1.30886E+04  9.95003E+03 -1.45203E+04
  1.77466E+04 -7.43678E+03  1.79833E+04  3.55435E+03  1.68109E+04  1.33611E+04  7.29285E+03  2.08467E+04
 -3.40094E+03  2.29817E+04 -1.41373E+04  1.49007E+04 -1.74505E+04  3.13377E+03 -1.28136E+04 -2.73895E+03
 -5.10397E+03 -5.34116E+03 -4.88863E+02  1.03584E+03 -2.44617E+03  2.63924E+03 -5.22682E+03  3.17416E+03
 -1.04653E+04  5.30865E+01 -1.14616E+04 -8.87504E+03 -3.62275E+03 -1.50298E+04  6.10117E+03 -1.10781E+04
  8.77030E+03 -5.37358E+03  5.77917E+03  1.53091E+03  9.94553E+02  4.26728E+03 -4.78507E+03  6.71417E+02
 -5.24144E+03 -7.11287E+03 -1.89016E+03 -1.13164E+04  6.10880E+03 -1.19527E+04  1.43990E+04 -5.78468E+03
  1.79488E+04  1.82059E+03  1.21531E+04  1.09997E+04  3.18204E+03  1.24528E+04 -6.51466E+03  1.20343E+04
 -1.06163E+04  4.44628E+03 -4.45621E+03 -2.32890E+03  1.48205E+03 -1.82897E+03  6.94636E+03 -5.80558E+01
  6.32451E+03  5.60785E+03  9.71394E+02  9.55585E+03 -6.30492E+03  8.63051E+03 -1.03723E+04  2.86402E+03
 -7.04124E+03 -6.02583E+03  5.70298E+02 -8.78374E+03  6.28867E+03 -4.93883E+03  5.79013E+03  1.33551E+03
  1.61289E+03  6.01987E+03 -6.27599E+03  6.97789E+03 -7.79887E+03  1.53240E+03 -8.17327E+03 -2.35354E+03
 -5.04472E+03 -8.87069E+03  1.94871E+03 -1.12591E+04  8.88359E+03 -6.09507E+03  1.01494E+04  1.51609E+03
  7.18224E+03  8.19763E+03 -1.02241E+03  9.15773E+03 -7.07070E+03  8.21837E+03 -7.74432E+03  5.17439E+02
 -6.67733E+03 -6.82240E+03 -1.93657E+03 -6.56753E+03  5.07469E+03 -6.29524E+03  4.45996E+03 -3.18842E+03
  2.84038E+03  4.76833E+02 -9.92847E+02  7.49923E+02  7.95171E+02 -1.96561E+03  1.79435E+03 -4.70687E+03
  6.54939E+03 -2.01380E+03  8.73672E+03  1.85958E+02  8.39703E+03  5.12187E+03  5.18000E+03  1.18047E+04
 -2.14864E+03  1.52506E+04 -1.28157E+04  1.08800E+04 -1.53695E+04  2.19491E+03 -1.20852E+04 -4.75589E+03
 -6.98771E+03 -9.86316E+03 -1.34401E+03 -7.70529E+03  4.34509E+03 -4.95435E+03  2.65273E+03 -4.03194E+03
  3.85313E+03 -1.08859E+03  2.42122E+03 -3.20506E+03  5.19222E+03 -2.05092E+03  5.10392E+03  5.14396E+02
  6.82963E+03  1.76075E+02  2.01926E+03  5.94307E+03 -1.66792E+03  6.18226E+03 -6.05133E+03  4.10652E+03
 -8.12097E+03 -8.77094E+02 -4.97191E+03 -4.94073E+03 -2.15399E+02 -9.67413E+03  4.64310E+03 -8.86972E+03
  9.20638E+03 -4.11031E+03  1.23145E+04  5.82288E+02  8.17016E+03  7.32671E+03  1.29343E+03  1.03462E+04
 -3.81926E+03  8.82638E+03 -5.09934E+03  2.85302E+03 -3.56001E+03 -7.24653E+02 -1.19549E+03 -9.50676E+02
 -7.41017E+02 -3.09175E+02 -1.16575E+03  2.60503E+03 -2.40078E+03  1.58542E+03 -5.00016E+03 -2.02365E+02
 -3.29912E+03 -5.02605E+03  7.22386E+02 -8.50627E+03  4.31349E+03 -6.64155E+03  6.96131E+03 -1.81315E+03
  7.47326E+03  3.52676E+03  3.72887E+03  5.79581E+03 -1.27077E+03  7.26644E+03 -4.94682E+03  3.84484E+03
 -6.80231E+03 -6.57650E+02 -5.13743E+03 -4.62472E+03 -6.38299E+02 -6.15672E+03  1.44727E+03 -2.97182E+03
  4.21657E+03 -1.74315E+03  3.09940E+03  8.57210E+02  3.24223E+02  1.81714E+03  1.31899E+03  2.33363E+03
  3.22393E+03  6.25368E+02  1.79425E+03  1.36533E+02  1.80362E+03  3.05777E+03  1.78633E+03  3.98999E+03
 -1.63259E+03  5.63086E+03 -4.31808E+03  6.11861E+03 -6.26746E+03  1.10428E+03 -7.46740E+03 -1.78562E+03
 -3.91394E+03 -6.74579E+03 -1.18408E+00 -8.39584E+03  4.97542E+03 -5.10014E+03  5.19074E+03 -1.91594E+03
  3.80748E+03  2.55350E+03  5.19636E+02  4.31207E+03 -1.25748E+03  2.77141E+03 -3.14476E+03  4.04535E+01
 -7.95518E+02 -2.36748E+03  2.00818E+03 -1.38860E+03  3.24048E+03 -2.14674E+03  3.64545E+03  1.72087E+03
  4.66257E+02  1.49574E+03  9.08086E+02  1.40220E+03 -3.95184E+02  1.25641E+03  1.51253E+03  3.16272E+02
  9.74991E+01  2.46974E+02  2.01802E+03  9.24483E+02  1.23001E+03  3.06217E+03 -4.79502E+02  6.46176E+03
 -3.27187E+03  1.89075E+03 -3.93946E+03 -4.72367E+02 -4.34370E+03 -4.57631E+02 -1.03551E+03 -2.71404E+03
  9.43605E+02 -1.64480E+03  3.04075E+03 -2.02593E+03  1.29415E+03  7.89450E+02 -9.22544E+02  1.11029E+03
 -2.62183E+03  1.87980E+03 -2.91886E+03 -1.78303E+03 -1.56206E+03 -4.34003E+03 -7.25737E+02 -2.31782E+03
  2.29780E+03 -2.26888E+03  1.89398E+03 -5.87135E+02  1.72559E+03  6.23043E+02  1.07029E+02  1.75149E+03
 -1.59608E+03  9.66445E+02 -9.42229E+02 -1.47528E+03  1.48973E+03 -2.15119E+03  2.78617E+03 -2.01227E+03
  2.62726E+03 -2.24830E+02  5.47510E+03  1.97366E+03  1.64881E+03  2.33611E+03 -1.34357E+03  3.79738E+03
 -2.60624E+03  9.82621E+02 -3.13700E+03 -6.46980E+02 -2.48926E+03 -1.80742E+03  3.31381E+02 -1.59048E+03
  2.58154E+03 -1.75435E+03  2.94889E+03  1.13887E+03  5.43044E+02  2.10879E+03 -9.90509E+01  1.66539E+03
 -5.12017E+02  3.39332E+02 -9.28900E+02  1.95836E+03 -5.09237E+01  1.12194E+02 -1.50325E+03  8.81192E+02
 -2.08036E+03  1.62520E+03 -3.18453E+03  3.01410E+02 -3.46122E+03 -6.17514E+02 -4.70485E+03 -3.78452E+03
 -2.31074E+03 -6.41107E+03  9.85726E+02 -5.15793E+03  3.38297E+03 -4.83550E+03  5.50090E+03 -1.35351E+03
  4.74852E+03 -4.91761E+02  1.56697E+03  2.42297E+03 -1.85912E+02  3.13916E+03 -2.35293E+03  4.00635E+03
 -2.82798E+03  1.07206E+03 -1.68727E+03 -8.19428E+02 -1.44696E+03  9.30721E+02 -8.78181E+02 -3.16072E+01
 -1.63322E+03 -4.09462E+02 -1.20653E+03 -2.01341E+02  3.91635E+02 -7.41271E+02  3.39947E+01 -1.51620E+03
  1.54638E+03 -1.68367E+03  2.37971E+03 -1.03092E+03  2.80152E+03  2.77431E+03  3.07696E+01  3.82005E+03
 -1.66554E+03  4.77372E+03 -2.58946E+03  2.70403E+03 -3.27018E+03 -7.35181E+02 -1.71006E+03 -2.40888E+03
 -1.92419E+03 -3.40232E+03  7.82935E+02 -3.49578E+03  3.13693E+03 -1.77013E+03  1.84125E+03  4.84759E+02
  2.50977E+03  9.56414E+02  1.08509E+03  5.01551E+02 -8.96395E+02 -1.43697E+03  1.79342E+02 -9.23228E+01
  1.03041E+03 -5.64237E+02  1.43010E+03  1.81491E+03  1.89904E+02  6.12014E+02  2.68563E+02  1.72642E+03
 -8.44862E+02  1.00884E+03 -2.98865E+03  5.71165E+02 -1.47147E+03 -1.54075E+03  2.68690E+02 -1.38607E+03
  4.99606E+02 -1.95911E+03  2.22921E+03 -3.19342E+02  2.29468E+03 -9.05923E+02  1.32159E+03  1.12578E+03
  2.76688E+02  1.32235E+03 -9.74297E+02  1.35386E+03 -1.64691E+03  2.04330E+03  2.24360E+02 -4.41934E+02
  3.93604E+02  3.56893E+02 -8.27349E+01 -9.93460E+02  1.00259E+02  4.52340E+02 -1.53799E+02 -3.05395E+02
 -2.21613E+03 -4.12833E+02 -1.25402E+03 -1.82260E+03  1.18090E+03 -3.35176E+03  1.25920E+03 -1.33646E+03
  1.68100E+03  1.65045E+03  6.43781E+02  1.69195E+03 -1.06905E+02  2.03726E+03 -1.53848E+01  1.16620E+03
