 $NMID ID='MM_0lb_SNR200_9hz_g50_73.RAW', FMTDAT='(8E13.5)'
 TRAMP=1., VOLUME=1. $END
  3.10226E+05 -7.52934E+02  3.38179E+05  2.51521E+05  8.56317E+04  3.36510E+05 -1.31600E+05  2.51760E+05
 -1.90684E+05  8.33911E+04 -1.10762E+05 -3.27302E+04  2.50058E+03 -5.08226E+04  5.27901E+04  6.46569E+02
  3.57179E+04  5.13882E+04 -1.77144E+04  7.50110E+04 -6.12262E+04  6.40549E+04 -8.45772E+04  3.27228E+04
 -8.37877E+04 -1.24189E+04 -5.93210E+04 -5.13805E+04 -1.70464E+04 -7.11262E+04  2.92438E+04 -4.79237E+04
  4.21915E+04  2.27004E+03  2.05740E+04  4.93000E+04 -3.45938E+04  4.79025E+04 -6.82124E+04 -6.58581E+02
 -5.74280E+04 -5.83852E+04 -7.36862E+03 -7.90146E+04  3.39090E+04 -5.68883E+04  4.92532E+04 -1.93990E+04
  4.63937E+04  1.20232E+04  3.32826E+04  2.51980E+04  1.72774E+04  3.13460E+04 -6.38812E+03  2.68206E+04
 -2.18873E+04  1.06214E+04 -1.85200E+04 -5.07087E+03  7.98889E+03 -7.67323E+03  2.38127E+04  1.30345E+04
  7.09511E+03  3.76393E+04 -3.26690E+04  3.72184E+04 -6.56019E+04  1.84207E+03 -5.85091E+04 -4.37125E+04
 -1.20612E+04 -6.53703E+04  4.08304E+04 -4.82823E+04  6.26402E+04 -2.73636E+03  3.37695E+04  3.41621E+04
 -6.80018E+03  3.88753E+04 -3.21009E+04  1.80235E+04 -3.32671E+04 -3.49166E+03 -1.88191E+04 -1.16894E+04
 -8.86732E+03 -1.62117E+04 -2.49930E+02 -2.07369E+04  8.72106E+03 -2.54725E+04  1.70212E+04 -1.22680E+04
  1.17936E+04  6.58030E+03 -1.07003E+04  1.29605E+04 -2.18387E+04 -7.62099E+03 -8.94789E+03 -3.73136E+04
  2.62848E+04 -4.73465E+04  5.30297E+04 -2.22966E+04  5.00420E+04  2.08945E+04  1.67461E+04  4.84323E+04
 -1.65553E+04  3.54145E+04 -2.89761E+04  1.96830E+03 -1.09569E+04 -2.87981E+04  2.25289E+04 -3.75170E+04
  4.40400E+04 -1.11875E+04  3.95442E+04  2.48800E+04  2.11079E+04  5.12598E+04 -7.67173E+03  5.64034E+04
 -3.39072E+04  3.85977E+04 -4.73824E+04  1.13167E+04 -4.77728E+04 -1.76421E+04 -2.59339E+04 -4.18085E+04
  8.86767E+03 -4.13730E+04  3.46553E+04 -1.64672E+04  3.15592E+04  1.07500E+04  6.62202E+03  2.14057E+04
 -1.42343E+04  9.32867E+03 -1.19754E+04 -5.81330E+03  4.76498E+03 -1.14320E+04  1.84327E+04  7.40053E+03
  1.42196E+04  2.19642E+04 -5.90912E+03  2.71915E+04 -2.18511E+04  1.24972E+04 -2.98673E+04 -2.74864E+03
 -2.75331E+04 -1.96615E+04 -1.07458E+04 -2.40628E+04  3.76274E+03 -2.49962E+04  2.14099E+04 -2.08124E+04
  3.22578E+04 -1.34362E+04  3.80827E+04  5.76539E+03  2.63497E+04  2.50473E+04  5.40226E+03  4.15673E+04
 -2.05415E+04  3.46602E+04 -3.02256E+04  1.31212E+04 -2.31824E+04 -1.07964E+04 -5.14864E+03 -1.27365E+04
 -1.15057E+03 -3.60683E+02 -7.58473E+03  8.25128E+03 -1.95820E+04  5.73885E+03 -1.98673E+04 -8.77275E+03
 -1.20487E+04 -2.25025E+04  7.12276E+03 -2.71225E+04  1.88668E+04 -2.03420E+04  2.44590E+04 -1.84962E+03
  1.40236E+04  1.70285E+04 -3.21826E+03  2.25492E+04 -1.57379E+04  1.41211E+04 -2.26715E+04 -5.27385E+03
 -1.57435E+04 -2.00320E+04 -4.65219E+03 -2.85891E+04  1.23806E+04 -2.44425E+04  2.40220E+04 -1.26499E+04
  2.18638E+04  2.03092E+01  1.65537E+04  5.81717E+03  9.85551E+03  1.96325E+02  1.10199E+04 -3.43674E+03
  2.20814E+04  3.08129E+03  2.56937E+04  1.75678E+04  1.67479E+04  3.73267E+04 -3.01052E+03  4.39764E+04
 -2.49143E+04  3.61976E+04 -4.13000E+04  1.85740E+04 -4.70601E+04 -3.43364E+03 -3.67733E+04 -2.84600E+04
 -1.33733E+04 -3.67096E+04  1.42998E+04 -3.14930E+04  2.82935E+04 -1.54114E+04  2.48471E+04  9.24160E+03
  7.12111E+03  1.83298E+04 -1.33320E+04  1.37552E+04 -1.85690E+04  2.95970E+03 -1.39440E+04 -1.18169E+04
 -2.64047E+02 -1.93918E+04  1.03097E+04 -1.39498E+04  1.38630E+04 -4.37082E+02  4.26825E+03  8.86034E+03
 -8.46745E+03  2.31239E+03 -9.04346E+03 -7.35856E+03 -2.33739E+03 -1.71667E+04  1.09463E+04 -1.93559E+04
  2.28377E+04 -1.23134E+04  2.63011E+04  2.84630E+03  2.16623E+04  1.91712E+04  1.05934E+04  2.99144E+04
 -4.85494E+03  3.11424E+04 -1.97541E+04  1.93599E+04 -2.14799E+04  3.40224E+03 -1.56755E+04 -5.59429E+03
 -6.12697E+03 -8.12384E+03 -4.93562E+02  5.71281E+02 -3.44211E+03  4.13007E+03 -6.63439E+03  4.77300E+03
 -1.37601E+04 -4.54313E+02 -1.57884E+04 -1.19482E+04 -6.25982E+03 -1.83861E+04  6.16781E+03 -1.67008E+04
  1.26312E+04 -5.67542E+03  9.37100E+03  5.07794E+03  6.01282E+02  6.87901E+03 -7.32569E+03 -1.08202E+03
 -7.81338E+03 -1.03436E+04 -1.98132E+03 -1.61325E+04  1.02410E+04 -1.67640E+04  1.99496E+04 -9.67234E+03
  2.32301E+04  3.39856E+03  1.68077E+04  1.35246E+04  4.15139E+03  1.92146E+04 -8.55380E+03  1.58967E+04
 -1.25219E+04  1.16870E+03 -4.65630E+03 -3.08998E+03  2.30377E+03 -4.36613E+03  9.78305E+03 -1.67675E+03
  8.04492E+03  6.44918E+03  3.52015E+03  1.05193E+04 -9.88181E+03  1.23792E+04 -1.59904E+04  2.04919E+03
 -9.57936E+03 -7.55032E+03  9.29315E+01 -1.54986E+04  9.78621E+03 -5.82882E+03  9.84080E+03  4.02693E+03
  2.92164E+03  1.00645E+04 -1.04145E+04  1.26935E+04 -1.42920E+04  6.83848E+03 -1.24067E+04 -5.50125E+03
 -7.74537E+03 -1.59191E+04  1.77518E+03 -1.92448E+04  1.65073E+04 -1.00788E+04  1.51817E+04  3.44327E+03
  8.86556E+03  1.34570E+04 -1.81152E+03  1.60579E+04 -1.33830E+04  9.05359E+03 -1.28364E+04 -2.23885E+03
 -1.02217E+04 -1.05195E+04 -1.58433E+03 -1.14111E+04  3.71361E+03 -9.13925E+03  8.58893E+03 -2.21360E+03
  5.38648E+03  1.81683E+03  5.81448E+02  1.52095E+03 -4.63811E+02 -3.55347E+03  4.65010E+03 -8.15447E+03
  1.02338E+04 -5.10926E+03  1.64707E+04  1.08092E+03  1.61892E+04  1.18864E+04  7.89560E+03  2.13134E+04
 -5.96880E+03  2.45316E+04 -2.13091E+04  1.75031E+04 -2.58168E+04  2.55234E+03 -2.10453E+04 -8.70315E+03
 -1.09708E+04 -1.62063E+04 -3.34839E+02 -1.18365E+04  5.93117E+03 -8.95388E+03  5.83624E+03 -4.33642E+03
  3.35626E+03 -2.51403E+03  4.39568E+03 -3.29207E+03  6.22303E+03 -6.29697E+03  6.45070E+03 -8.12931E+02
  1.14068E+04  3.87006E+03  5.80167E+03  9.32326E+03 -2.37987E+03  1.19214E+04 -1.04990E+04  8.62936E+03
 -1.43506E+04 -2.10674E+03 -8.34522E+03 -9.25156E+03 -1.04862E+03 -1.49674E+04  9.94608E+03 -1.69515E+04
  1.64064E+04 -9.28947E+03  1.86224E+04  2.27391E+03  1.29106E+04  1.46743E+04  1.19807E+03  1.76369E+04
 -6.72042E+03  1.51955E+04 -1.08832E+04  4.39465E+03 -6.36062E+03 -1.70337E+03 -2.49637E+03 -2.21456E+03
  1.51021E+02 -9.35427E+02 -1.50745E+03  2.52568E+03 -7.25603E+03  3.29470E+03 -1.03883E+04 -2.97904E+02
 -7.50159E+03 -1.03508E+04  3.12605E+02 -1.41679E+04  9.46215E+03 -1.39273E+04  1.45574E+04 -3.14750E+03
  1.42780E+04  8.36969E+03  8.12837E+03  1.25643E+04 -2.71600E+03  1.51448E+04 -1.09473E+04  8.71834E+03
 -1.46829E+04  2.35607E+02 -1.12189E+04 -1.02180E+04  1.00497E+02 -1.18077E+04  6.09924E+03 -9.87674E+03
  8.52804E+03 -4.90385E+03  6.64979E+03  1.79833E+03  1.87820E+03  5.73193E+03  1.36035E+03  1.89334E+03
  1.55211E+03  2.97373E+02  3.71821E+03  2.30160E+03  4.62723E+03  5.71906E+03  3.67457E+03  7.37255E+03
 -3.86726E+03  1.20325E+04 -1.00496E+04  1.25661E+04 -1.35120E+04  3.42354E+03 -1.61560E+04 -6.64929E+03
 -6.53422E+03 -1.62754E+04  2.92305E+03 -1.63677E+04  7.70250E+03 -1.03801E+04  1.28188E+04 -2.69781E+03
  1.06913E+04  5.96837E+03  2.66417E+03  7.84262E+03 -3.78094E+03  4.96442E+03 -7.20352E+03 -1.13742E+03
 -1.78751E+03 -7.17530E+03  3.76695E+03 -5.96474E+03  6.72657E+03 -1.89224E+03  7.47785E+03  1.71192E+03
  3.86859E+03  3.72480E+03  1.53182E+03  1.98739E+03 -8.25084E+02  2.14125E+03  1.22023E+03 -3.83622E+02
  2.91451E+03 -2.64957E+03  6.19091E+03  2.87483E+03  4.98289E+03  9.41758E+03 -7.66739E+02  8.78740E+03
 -8.53182E+03  7.28986E+03 -1.04959E+04  1.10139E+03 -7.43231E+03 -3.07757E+03 -3.32112E+03 -5.59685E+03
 -7.09903E+01 -6.46340E+03  4.16003E+03 -1.67199E+03  2.49386E+03  4.63435E+03 -1.22341E+03  5.96447E+03
 -5.69178E+03  1.48632E+03 -7.00116E+03 -5.41370E+03 -3.52342E+03 -8.83109E+03 -2.39786E+02 -8.61982E+03
  5.12368E+03 -5.00962E+03  7.30410E+03 -3.92270E+02  5.08858E+03  3.34399E+03  1.40906E+03  2.68822E+03
 -3.12879E+03  1.51667E+03 -3.50917E+03 -2.95490E+03  1.33126E+03 -4.91053E+03  7.34544E+03 -5.40376E+03
  8.62646E+03  1.82557E+03  1.02389E+04  6.72816E+03  2.48864E+03  8.77020E+03 -4.57976E+03  9.79535E+03
 -7.70561E+03  3.51449E+03 -9.31875E+03 -1.29519E+03 -4.35097E+03 -6.75565E+03  1.99107E+03 -6.75551E+03
  5.61727E+03 -4.19048E+03  5.85527E+03  9.06575E+02  2.73867E+03  5.30762E+03 -1.28230E+03  6.02079E+03
 -1.59211E+03  1.95577E+03 -1.91800E+03  1.81673E+03 -1.92684E+03  2.06131E+03 -1.14931E+03  1.72913E+03
 -1.90006E+03  4.21074E+03 -5.20478E+03  3.54499E+03 -1.05037E+04  1.32651E+03 -1.10669E+04 -6.59450E+03
 -6.22186E+03 -1.34355E+04  3.07316E+03 -1.56938E+04  9.64829E+03 -1.17000E+04  1.36871E+04 -5.08894E+03
  1.32901E+04  3.07162E+03  8.98933E+03  1.04539E+04  8.01718E+02  8.92402E+03 -3.96307E+03  7.15999E+03
 -7.13368E+03  3.49714E+03 -3.71804E+03 -1.39375E+03 -2.14169E+03 -9.44180E+02 -1.09345E+02  1.74374E+03
 -2.46216E+03  4.71260E+02 -1.74754E+03  6.60161E+02  1.02833E+00 -4.02647E+03  8.45400E+00 -3.73270E+03
  2.99736E+03 -4.10269E+03  7.23569E+03 -1.26590E+03  8.55992E+03  6.07859E+03  2.25418E+03  1.05591E+04
 -6.87018E+03  1.17428E+04 -1.24081E+04  7.05217E+03 -1.30953E+04 -1.39724E+03 -9.04332E+03 -8.20064E+03
 -3.85192E+03 -1.09740E+04  2.18579E+03 -9.88175E+03  6.55637E+03 -6.79582E+03  6.45442E+03 -4.79161E+02
  5.09121E+03  3.12086E+03  7.28333E+02  4.64083E+03 -1.43310E+03  5.73784E+02  2.61070E+02 -1.98218E+03
  3.21820E+03 -1.87351E+03  2.75908E+03  1.06819E+03  2.60333E+03  4.21046E+03  1.93777E+02  5.50801E+03
 -3.54255E+03  5.75273E+03 -6.77732E+03  1.63900E+03 -7.38055E+03 -4.18130E+03 -1.65214E+03 -9.61319E+03
  5.55088E+03 -6.69770E+03  6.99695E+03 -3.33399E+03  8.75614E+03  2.36191E+03  3.37058E+03  6.41802E+03
  8.39120E+02  6.14918E+03 -3.04109E+03  4.89611E+03 -4.88720E+03  3.59225E+03 -3.81359E+03 -1.71332E+02
 -1.63174E+03  5.41094E+02 -1.89067E+03  7.56311E+01 -3.38908E+03  1.20347E+03 -4.13228E+03 -9.92688E+02
 -6.60294E+03 -4.25615E+03 -2.23221E+03 -6.44876E+03  4.68920E+03 -7.66793E+03  6.19928E+03 -3.16008E+03
  8.98133E+03  1.08421E+03  5.29584E+03  5.91627E+03  1.45847E+03  6.54075E+03 -5.84444E+03  4.26909E+03
