 $NMID ID='MM_0lb_SNR200_13hz_g40_95.RAW', FMTDAT='(8E13.5)'
 TRAMP=1., VOLUME=1. $END
  3.08980E+05 -3.74712E+02  3.36122E+05  2.50777E+05  8.46959E+04  3.37804E+05 -1.33145E+05  2.50966E+05
 -1.90112E+05  8.26407E+04 -1.11722E+05 -3.26881E+04  9.97178E+02 -5.04858E+04  5.33319E+04 -9.44364E+02
  3.42810E+04  5.23952E+04 -1.66385E+04  7.43221E+04 -5.96823E+04  6.37567E+04 -8.41388E+04  3.31197E+04
 -8.06597E+04 -1.13221E+04 -5.64811E+04 -5.18628E+04 -1.42991E+04 -6.92858E+04  2.80066E+04 -4.62941E+04
  4.11615E+04  4.26182E+03  1.67725E+04  4.77697E+04 -3.40209E+04  4.72080E+04 -6.59108E+04 -1.07055E+03
 -5.34086E+04 -5.71067E+04 -7.18725E+03 -7.77351E+04  3.25328E+04 -5.46957E+04  4.74244E+04 -1.71361E+04
  4.39936E+04  1.23900E+04  3.15074E+04  2.58135E+04  1.61462E+04  2.94486E+04 -4.93600E+03  2.79392E+04
 -2.22727E+04  1.31804E+04 -1.92964E+04 -5.16069E+03  5.95568E+03 -7.77649E+03  2.35403E+04  1.20102E+04
  7.60962E+03  3.49918E+04 -3.27344E+04  3.51784E+04 -6.31629E+04  2.06624E+03 -5.66277E+04 -4.16340E+04
 -1.35139E+04 -6.25336E+04  3.89272E+04 -4.49929E+04  5.85552E+04 -3.73873E+03  3.33332E+04  3.23168E+04
 -5.56122E+03  3.59585E+04 -2.92846E+04  1.54952E+04 -2.94921E+04 -5.10685E+03 -1.66977E+04 -9.46180E+03
 -8.34919E+03 -1.18575E+04  1.54280E+02 -1.73881E+04  6.95739E+03 -2.38583E+04  1.48857E+04 -1.30322E+04
  1.13116E+04  4.14329E+03 -7.89936E+03  1.26272E+04 -2.11562E+04 -4.49673E+03 -8.81084E+03 -3.29335E+04
  2.33165E+04 -4.23820E+04  4.77223E+04 -2.04891E+04  4.46608E+04  1.87670E+04  1.47237E+04  4.28078E+04
 -1.54091E+04  3.52484E+04 -2.42000E+04  3.42755E+03 -1.03462E+04 -2.75679E+04  2.12960E+04 -3.41385E+04
  4.07701E+04 -9.16991E+03  3.57268E+04  2.39019E+04  1.78833E+04  4.65752E+04 -6.94860E+03  5.03667E+04
 -3.08734E+04  3.43111E+04 -4.20381E+04  8.47597E+03 -4.26654E+04 -1.60237E+04 -2.32936E+04 -3.70810E+04
  8.08247E+03 -3.85886E+04  3.30976E+04 -1.45053E+04  3.03005E+04  9.87061E+03  4.12930E+03  1.94893E+04
 -1.33738E+04  8.89137E+03 -1.02024E+04 -7.00933E+03  6.00335E+03 -1.11726E+04  1.75394E+04  5.35159E+03
  1.34234E+04  2.22479E+04 -6.00454E+03  2.50545E+04 -2.19992E+04  1.30558E+04 -2.87578E+04 -4.48153E+03
 -1.99751E+04 -1.81235E+04 -8.58814E+03 -1.99688E+04  5.31734E+03 -1.92519E+04  1.41543E+04 -1.77656E+04
  2.66940E+04 -1.30962E+04  3.19086E+04  3.93041E+03  2.25432E+04  1.84661E+04  4.38121E+03  3.63611E+04
 -1.76121E+04  3.06541E+04 -2.78350E+04  9.78971E+03 -2.10179E+04 -1.05749E+04 -5.13143E+03 -1.29288E+04
  2.01798E+03 -2.56485E+03 -4.91068E+03  5.85976E+03 -1.67596E+04  6.34967E+03 -1.63597E+04 -5.97044E+03
 -1.03977E+04 -2.03426E+04  4.31485E+03 -2.35906E+04  1.46917E+04 -1.70822E+04  1.85779E+04 -1.60149E+03
  1.10844E+04  1.22644E+04 -1.29897E+03  1.96996E+04 -1.29735E+04  1.16449E+04 -1.99797E+04 -4.90628E+03
 -1.41691E+04 -1.58441E+04 -9.92157E+02 -2.22047E+04  9.70860E+03 -1.96636E+04  1.97553E+04 -8.97774E+03
  1.78964E+04  1.48094E+02  1.13077E+04  3.32200E+03  7.28498E+03  6.62531E+02  9.35266E+03 -3.86279E+02
  1.70068E+04  2.43991E+03  1.85129E+04  1.52100E+04  1.24916E+04  3.05428E+04 -3.52426E+03  3.45667E+04
 -2.14404E+04  2.83352E+04 -3.00719E+04  1.45197E+04 -3.33650E+04 -2.06435E+03 -2.84790E+04 -2.09987E+04
 -1.18379E+04 -2.67354E+04  8.66480E+03 -2.38321E+04  2.32356E+04 -1.21219E+04  1.88350E+04  5.90323E+03
  7.34834E+03  1.43930E+04 -9.87499E+03  1.32572E+04 -1.53300E+04  1.74352E+03 -1.24771E+04 -1.05083E+04
 -1.28211E+03 -1.51659E+04  9.40917E+03 -1.23711E+04  1.09877E+04 -9.20079E+02  1.74158E+03  7.01160E+03
 -7.24793E+03  3.62226E+03 -4.73970E+03 -6.88235E+03  8.63203E+02 -1.51561E+04  9.97253E+03 -1.34900E+04
  1.64051E+04 -9.19518E+03  1.85245E+04  2.53947E+03  1.66320E+04  1.26531E+04  7.40069E+03  2.02696E+04
 -3.49559E+03  2.28336E+04 -1.49375E+04  1.31304E+04 -1.63883E+04  2.61138E+03 -1.17249E+04 -3.36772E+03
 -6.62337E+03 -3.32557E+03 -8.38842E+01  7.45424E+02 -3.07534E+03  2.09519E+03 -4.34477E+03  3.73771E+03
 -1.05598E+04 -1.90169E+03 -1.13338E+04 -9.33439E+03 -4.76000E+03 -1.52619E+04  4.27450E+03 -1.18028E+04
  9.86839E+03 -5.19712E+03  6.88331E+03  3.15434E+03  4.42489E+02  5.09537E+03 -5.00836E+03  1.82484E+02
 -5.54683E+03 -6.41391E+03 -1.61562E+03 -1.17066E+04  6.40413E+03 -1.11740E+04  1.39751E+04 -6.86064E+03
  1.67061E+04  1.68219E+03  1.15064E+04  1.06960E+04  2.57197E+03  1.34814E+04 -6.19116E+03  1.19298E+04
 -9.40191E+03  3.59921E+03 -3.43529E+03 -1.28097E+03  1.78971E+03 -1.48499E+03  5.91647E+03 -8.34460E+02
  4.66077E+03  3.76819E+03  1.67565E+03  9.83029E+03 -6.39952E+03  7.61329E+03 -1.11949E+04  1.84091E+03
 -6.67938E+03 -5.26353E+03 -3.50704E+02 -9.70321E+03  4.95905E+03 -5.32627E+03  5.00668E+03  2.13919E+03
  7.75849E+02  7.23824E+03 -6.97129E+03  8.13801E+03 -8.70167E+03  3.24276E+03 -8.53577E+03 -2.86629E+03
 -4.54144E+03 -1.10375E+04  1.89802E+03 -1.26058E+04  9.78731E+03 -7.32328E+03  1.17371E+04  1.93915E+03
  6.21149E+03  1.01047E+04 -1.20702E+03  1.01815E+04 -8.60775E+03  6.09904E+03 -8.26236E+03 -9.06693E+02
 -7.61265E+03 -7.65114E+03 -1.64641E+03 -7.71593E+03  5.02482E+03 -6.99151E+03  5.82244E+03 -4.40850E+03
  4.21543E+03  1.26956E+03 -1.04865E+03  5.40720E+02  2.10168E+02 -2.45912E+03  8.71296E+02 -2.87912E+03
  7.05962E+03 -2.23103E+03  7.79636E+03  1.47175E+03  1.01542E+04  5.73376E+03  7.86251E+03  1.34022E+04
 -2.87152E+03  1.30048E+04 -1.19199E+04  1.18252E+04 -1.58838E+04  1.70839E+03 -1.40175E+04 -4.18316E+03
 -7.68289E+03 -1.14124E+04 -1.00888E+03 -8.98189E+03  3.56085E+03 -4.58249E+03  2.97748E+03 -4.25742E+03
  2.57774E+03 -2.78327E+03  2.88365E+03 -3.02221E+03  4.79369E+03 -2.46689E+03  5.29385E+03  3.91290E+02
  8.27706E+03  2.36011E+03  3.44431E+03  7.02057E+03 -3.12980E+03  5.46655E+03 -7.31855E+03  4.63840E+03
 -9.15669E+03 -1.07154E+03 -4.15549E+03 -6.17937E+03 -3.98270E+02 -9.13448E+03  4.63099E+03 -9.19567E+03
  9.23560E+03 -5.97603E+03  1.11373E+04  6.41656E+02  8.08621E+03  8.70361E+03  8.34180E+02  1.06394E+04
 -3.50482E+03  9.07189E+03 -5.98378E+03  2.71471E+03 -3.81766E+03 -1.50128E+03 -1.31576E+03 -1.17759E+03
  1.68687E+02  2.03203E+02 -2.16047E+03  2.82179E+03 -4.86110E+03  1.94409E+03 -4.96769E+03 -4.42499E+02
 -3.36349E+03 -7.19061E+03 -6.02402E+02 -7.54067E+03  6.57423E+03 -7.78929E+03  8.97132E+03 -2.93296E+03
  8.70873E+03  3.42444E+03  3.93505E+03  6.39002E+03 -1.42207E+03  8.42726E+03 -5.55235E+03  3.93880E+03
 -8.06951E+03  6.60032E+02 -7.15101E+03 -4.68217E+03 -9.24019E+02 -7.71425E+03  3.09771E+03 -4.83904E+03
  4.82202E+03 -2.71109E+03  4.16695E+03  4.80345E+02  1.24686E+03  1.85823E+03  4.65320E+02  1.34624E+03
  2.03715E+03  7.02632E+01  3.53125E+03  1.31720E+03  2.30183E+03  3.56752E+03  2.42681E+03  3.97242E+03
 -1.23939E+03  6.46745E+03 -5.50990E+03  7.09941E+03 -7.19970E+03  2.09306E+03 -8.49540E+03 -3.04152E+03
 -3.49712E+03 -6.76593E+03  1.20258E+03 -9.21471E+03  5.70587E+03 -6.03759E+03  5.92362E+03 -2.08540E+03
  5.64179E+03  3.58553E+03  7.18807E+02  5.41224E+03 -2.22377E+03  3.57307E+03 -4.59479E+03  4.60948E+02
 -2.08010E+03 -2.72128E+03  2.73125E+03 -3.99694E+03  4.07019E+03 -9.19724E+02  4.00920E+03  7.77447E+02
  2.29979E+03  2.50565E+03  5.24750E+02  1.38663E+03 -7.61188E+02 -2.41383E+02  2.58237E+03  2.42796E+01
  1.05546E+03  6.30232E+02  3.52409E+03  1.37941E+03  2.36179E+03  6.12297E+03 -3.11872E+02  6.47042E+03
 -3.46419E+03  3.42081E+03 -4.63971E+03  9.54949E+02 -4.49558E+03 -1.22445E+03 -8.15279E+02 -1.65500E+03
  7.55639E+02 -3.18556E+03  3.30207E+02 -9.65594E+02  2.42923E+03  7.11833E+02 -1.04811E+03  3.43671E+03
 -4.51310E+03  1.43026E+03 -2.69095E+03 -2.40592E+03 -1.53514E+03 -3.66173E+03  1.61908E+03 -3.74499E+03
  1.33467E+03 -2.21659E+03  2.89298E+03 -2.98039E+01  2.27793E+03  5.91581E+02 -1.58908E+02  2.21765E+03
 -2.71178E+03  1.21700E+03 -1.83369E+03 -1.22598E+03  8.79244E+02 -3.72300E+03  2.88117E+03 -2.19486E+03
  5.20602E+03  7.67246E+01  4.20673E+03  2.88614E+03  1.24332E+03  5.27771E+03 -7.46069E+02  4.16574E+03
 -3.29894E+03  1.52311E+03 -3.51480E+03 -1.23058E+03 -1.86010E+03 -3.28172E+03  1.08070E+03 -1.96056E+03
  4.44210E+03 -1.75289E+03  3.80625E+03  8.72216E+02  1.28393E+03  3.30080E+03 -1.48435E+03  1.78149E+03
 -7.10353E+02  2.62237E+03 -1.20887E+03  1.70826E+02 -7.83863E+02 -8.38812E+02 -1.29272E+03  7.70839E+02
 -1.17151E+03  1.43004E+03 -2.23549E+03  5.24344E+02 -3.25575E+03  3.18574E+02 -5.75146E+03 -2.79550E+03
 -2.13561E+03 -6.97516E+03  1.02599E+03 -6.36465E+03  4.73863E+03 -5.78039E+03  7.74987E+03 -1.94911E+03
  7.79468E+03  1.21880E+03  3.16667E+03  3.93566E+03  3.26665E+02  5.44908E+03 -1.29986E+03  3.79959E+03
 -3.21663E+03  2.40751E+03 -2.39754E+03  1.33565E+00 -8.94022E+02  1.18489E+02 -1.16723E+03  1.26364E+03
 -7.40115E+02 -5.30517E+02 -1.96979E+03  2.79610E+02 -6.14365E+01 -8.10969E+02 -1.15793E+02 -1.31233E+03
  2.47804E+03 -1.46127E+03  2.63841E+03 -2.34545E+03  3.19015E+03  2.12155E+03  6.95390E+02  4.95044E+03
 -1.98922E+03  4.90977E+03 -5.54741E+03  2.65275E+03 -4.87431E+03 -1.36540E+03 -4.58687E+03 -3.06153E+03
 -2.65621E+03 -4.35763E+03  1.37489E+03 -4.50286E+03  2.83708E+03 -2.07025E+03  2.58477E+03 -6.62245E+02
  1.56899E+03  2.00976E+03 -1.21758E+03  9.87662E+02 -2.42521E+02 -4.11029E+02 -3.28722E+02 -7.19766E+02
  1.03270E+03 -9.92330E+01  1.21463E+03  2.78463E+02  2.25093E+03  2.04710E+03 -4.49943E+02  2.51611E+03
 -2.22119E+03  1.55869E+03 -3.29602E+03 -1.09435E+02 -3.28184E+03 -2.36368E+03 -1.14014E+03 -3.25758E+03
  1.14206E+03 -2.39722E+03  3.20728E+03 -8.75129E+02  3.24518E+03  8.51026E+02  1.46529E+03  3.20198E+03
  2.51141E+02  3.94114E+03 -2.30319E+03  1.28144E+03 -2.87971E+03  1.00080E+03 -1.54094E+03  1.17256E+03
  3.96088E+02  1.47865E+02 -3.85918E+02 -1.63777E+01 -2.32835E+03  1.81661E+03 -3.04073E+03 -4.79643E+02
 -2.28235E+03 -1.09221E+03 -6.73886E+02 -3.47096E+03  1.09989E+03 -2.63988E+03  2.42586E+03 -8.20515E+02
  2.59903E+03  9.57627E+02  1.35635E+03  2.24313E+03 -4.82882E+02  2.09536E+03 -2.42298E+03  2.62015E+03
