 $NMID ID='MM_0lb_SNR200_8hz_g45_30.RAW', FMTDAT='(8E13.5)'
 TRAMP=1., VOLUME=1. $END
  3.10731E+05  1.24959E+01  3.37850E+05  2.49181E+05  8.47181E+04  3.38424E+05 -1.31976E+05  2.52054E+05
 -1.92204E+05  8.36353E+04 -1.11787E+05 -3.35630E+04  1.14417E+03 -4.93760E+04  5.41695E+04  3.99214E+02
  3.40288E+04  5.26869E+04 -1.73659E+04  7.60534E+04 -6.14102E+04  6.42635E+04 -8.51616E+04  3.22357E+04
 -8.22163E+04 -1.05771E+04 -5.95030E+04 -5.28383E+04 -1.47651E+04 -7.01047E+04  2.77058E+04 -4.63828E+04
  4.12397E+04  2.51498E+03  1.65208E+04  4.97323E+04 -3.45115E+04  4.84577E+04 -6.88926E+04  1.30377E+03
 -5.62967E+04 -5.79476E+04 -8.83499E+03 -7.88973E+04  3.32828E+04 -5.86500E+04  4.89902E+04 -1.74773E+04
  4.68392E+04  1.10342E+04  3.31031E+04  2.68177E+04  1.59077E+04  2.86660E+04 -5.66111E+03  2.79429E+04
 -2.41964E+04  1.17569E+04 -1.82624E+04 -6.98227E+03  7.65909E+03 -7.23785E+03  2.29905E+04  1.58968E+04
  7.01202E+03  3.82221E+04 -3.40312E+04  3.69862E+04 -6.66180E+04  2.33489E+03 -5.77762E+04 -4.36920E+04
 -1.26481E+04 -6.54835E+04  4.17193E+04 -4.77808E+04  6.12415E+04 -3.56413E+02  3.59617E+04  3.56832E+04
 -5.37483E+03  4.00675E+04 -3.03817E+04  1.87117E+04 -3.28603E+04 -3.16770E+03 -2.02136E+04 -1.11846E+04
 -1.10785E+04 -1.58551E+04  5.74697E+01 -1.94975E+04  7.74135E+03 -2.35464E+04  1.67074E+04 -1.21011E+04
  1.17081E+04  6.96713E+03 -1.06417E+04  1.33920E+04 -2.20018E+04 -6.16541E+03 -9.37594E+03 -3.72842E+04
  2.59860E+04 -4.69285E+04  5.21049E+04 -2.17668E+04  4.86726E+04  2.00245E+04  1.69988E+04  4.83078E+04
 -1.72686E+04  3.54089E+04 -2.79446E+04  1.65330E+03 -1.27251E+04 -2.99811E+04  2.06217E+04 -3.70044E+04
  4.58820E+04 -1.11456E+04  4.00994E+04  2.44745E+04  2.09075E+04  5.07598E+04 -7.74527E+03  5.84960E+04
 -3.63764E+04  3.90821E+04 -4.74046E+04  1.24626E+04 -4.65089E+04 -1.87546E+04 -2.50699E+04 -4.39574E+04
  9.29681E+03 -4.28476E+04  3.28157E+04 -1.55579E+04  3.19821E+04  1.09781E+04  4.29079E+03  2.06106E+04
 -1.40383E+04  8.98484E+03 -1.15642E+04 -7.36418E+03  4.98153E+03 -1.13398E+04  1.85457E+04  6.35552E+03
  1.50603E+04  2.24022E+04 -4.90531E+03  2.87325E+04 -2.39015E+04  1.49604E+04 -3.15817E+04 -3.20258E+03
 -2.59598E+04 -1.77476E+04 -1.30359E+04 -2.62892E+04  3.94302E+03 -2.63305E+04  2.02524E+04 -2.41687E+04
  3.22517E+04 -1.34941E+04  3.83921E+04  4.18961E+03  2.68892E+04  2.44653E+04  4.77638E+03  4.21051E+04
 -2.12933E+04  3.41384E+04 -3.05318E+04  1.13501E+04 -2.27495E+04 -1.17595E+04 -3.08179E+03 -1.35554E+04
  9.97936E+02 -1.71872E+03 -7.89429E+03  9.42466E+03 -2.03429E+04  6.24725E+03 -1.93982E+04 -9.12262E+03
 -1.31474E+04 -2.31582E+04  7.22755E+03 -2.96260E+04  1.71363E+04 -1.96805E+04  2.35878E+04 -6.15056E+02
  1.36598E+04  1.61447E+04 -2.65611E+03  2.33762E+04 -1.72946E+04  1.22326E+04 -2.57182E+04 -4.43655E+03
 -1.68313E+04 -2.09031E+04 -3.55617E+03 -2.89321E+04  1.20638E+04 -2.32123E+04  2.33925E+04 -1.29979E+04
  2.20717E+04 -6.88443E+02  1.71459E+04  4.58257E+03  8.59177E+03  1.05373E+03  1.35934E+04 -1.62501E+03
  2.29159E+04  2.84967E+03  2.70927E+04  1.94553E+04  1.84798E+04  3.76347E+04 -3.74530E+03  4.66314E+04
 -2.67012E+04  3.67149E+04 -4.45408E+04  2.10472E+04 -4.75345E+04 -3.47864E+03 -3.70314E+04 -2.67049E+04
 -1.60743E+04 -3.84231E+04  1.54822E+04 -3.31067E+04  2.95107E+04 -1.51181E+04  2.49163E+04  8.89163E+03
  8.12019E+03  2.02066E+04 -1.23072E+04  1.63461E+04 -2.06585E+04  3.82854E+03 -1.87839E+04 -1.28448E+04
  1.19274E+03 -1.92100E+04  1.00056E+04 -1.38637E+04  1.25489E+04  4.40290E+02  2.33264E+03  9.24746E+03
 -7.80054E+03  5.33899E+03 -9.29548E+03 -8.32058E+03 -3.23300E+03 -1.79614E+04  1.00904E+04 -2.02499E+04
  2.39294E+04 -1.17489E+04  2.91571E+04  2.90252E+03  2.16637E+04  2.04390E+04  1.10958E+04  3.00659E+04
 -4.99997E+03  3.22711E+04 -2.16809E+04  1.91673E+04 -2.32214E+04  2.37082E+03 -1.53410E+04 -7.74637E+03
 -6.04567E+03 -9.07305E+03 -3.31498E+02  1.12710E+03 -1.47926E+03  2.22000E+03 -6.77312E+03  5.38638E+03
 -1.44686E+04 -2.47183E+03 -1.52228E+04 -1.07350E+04 -6.36149E+03 -2.00306E+04  7.20261E+03 -1.57555E+04
  1.34295E+04 -5.34256E+03  1.01395E+04  5.30422E+03 -9.86110E+01  7.04178E+03 -9.28508E+03  9.03453E+02
 -7.96218E+03 -9.60883E+03 -8.76524E+02 -1.64190E+04  1.05900E+04 -1.74918E+04  2.20466E+04 -1.02228E+04
  2.39389E+04  2.71359E+03  1.80726E+04  1.55496E+04  4.18340E+03  2.11397E+04 -1.05258E+04  1.61070E+04
 -1.37941E+04  3.63887E+03 -7.93481E+03 -3.86529E+03  3.24511E+03 -3.59996E+03  7.75215E+03 -1.08620E+03
  8.06340E+03  8.58402E+03  1.29333E+03  1.51825E+04 -9.87730E+03  1.27438E+04 -1.73502E+04  5.18634E+03
 -1.03755E+04 -8.56958E+03  1.48273E+03 -1.42351E+04  9.14421E+03 -7.82913E+03  1.16461E+04  3.79678E+03
  2.79924E+03  1.09449E+04 -7.59662E+03  1.27324E+04 -1.61720E+04  5.39191E+03 -1.32269E+04 -4.09366E+03
 -7.83807E+03 -1.68768E+04  4.93252E+03 -1.77546E+04  1.70730E+04 -1.05392E+04  1.86109E+04  3.05186E+03
  1.05789E+04  1.33201E+04 -1.45103E+03  1.72498E+04 -1.25938E+04  1.08536E+04 -1.33222E+04  4.62137E+02
 -1.07030E+04 -1.13237E+04 -5.13792E+02 -1.32609E+04  7.49510E+03 -1.08531E+04  8.15887E+03 -4.02657E+03
  5.33487E+03  1.92558E+03  9.08964E+01  3.21443E+03 -6.41955E+02 -2.24820E+03  2.62345E+03 -9.06654E+03
  1.26989E+04 -4.55859E+03  1.82295E+04  1.69443E+03  1.59060E+04  1.26140E+04  1.18437E+04  2.36485E+04
 -4.99027E+03  2.36233E+04 -2.13083E+04  1.91004E+04 -2.59673E+04  2.21542E+03 -2.23657E+04 -1.02020E+04
 -1.14922E+04 -1.84382E+04 -1.44313E+03 -1.43371E+04  6.03385E+03 -8.95881E+03  6.16204E+03 -5.25819E+03
  6.16043E+03 -3.44338E+03  4.08742E+03 -7.16455E+03  5.91928E+03 -5.16973E+03  7.47826E+03 -2.43737E+03
  1.31411E+04  3.13957E+03  5.12624E+03  8.89307E+03 -2.34494E+03  1.21554E+04 -1.28500E+04  1.13701E+04
 -1.48280E+04  6.77546E+02 -9.36893E+03 -1.25614E+04 -1.02608E+03 -1.84073E+04  9.96674E+03 -1.90414E+04
  1.79715E+04 -1.10296E+04  2.15990E+04  2.44693E+03  1.37078E+04  1.61194E+04  1.40826E+03  1.78471E+04
 -9.92573E+03  1.60358E+04 -1.15729E+04  4.70002E+03 -8.60024E+03 -3.42570E+03 -5.11346E+03 -2.02722E+03
 -2.73187E+03 -2.69293E+02 -1.46739E+03  2.28456E+03 -5.62782E+03  3.12093E+03 -1.04444E+04 -4.61758E+02
 -9.82457E+03 -1.01182E+04  9.74149E+02 -1.63430E+04  1.05217E+04 -1.47966E+04  1.55878E+04 -4.53881E+03
  1.62829E+04  7.89396E+03  6.95572E+03  1.60403E+04 -3.21437E+03  1.64834E+04 -1.13107E+04  1.02441E+04
 -1.61194E+04  5.94380E+02 -1.13665E+04 -1.00043E+04 -3.05659E+03 -1.36398E+04  6.42331E+03 -1.04691E+04
  1.28994E+04 -4.30087E+03  7.49938E+03  4.32993E+03  7.80492E+02  5.77657E+03  4.81185E+02  2.86596E+03
  1.83829E+03  1.61311E+03  4.87206E+03  2.43346E+03  5.65362E+03  5.09761E+03  2.93269E+03  9.25446E+03
 -3.12404E+03  1.27125E+04 -1.17018E+04  1.26321E+04 -1.53944E+04  2.21200E+03 -1.77751E+04 -6.88687E+03
 -8.04479E+03 -1.44888E+04  1.87543E+03 -1.71239E+04  9.36273E+03 -1.24069E+04  1.43041E+04 -2.17073E+03
  1.26746E+04  5.26783E+03  2.97595E+03  9.59773E+03 -4.83601E+03  7.31867E+03 -7.43816E+03  2.58631E+02
 -4.20861E+03 -7.50964E+03  4.50357E+03 -7.02313E+03  5.39186E+03 -2.06580E+03  5.82193E+03  2.61907E+03
  3.26907E+03  2.16527E+03  2.48113E+03  3.67983E+03 -1.24487E+03  1.49430E+03  1.19487E+02 -1.91362E+03
  3.82143E+03 -1.50486E+03  6.53399E+03  3.64887E+03  4.09987E+03  9.39462E+03 -6.86081E+02  1.12819E+04
 -8.12144E+03  8.98130E+03 -1.08048E+04  2.86238E+03 -9.39921E+03 -5.04089E+03 -3.77975E+03 -7.87841E+03
  7.19006E+02 -6.35472E+03  4.94579E+03 -3.20566E+03  2.90543E+03  2.91944E+03 -1.93424E+03  5.96113E+03
 -5.99110E+03  3.41664E+03 -7.73280E+03 -4.65203E+03 -4.98157E+03 -1.00451E+04  1.95510E+03 -1.11039E+04
  5.33000E+03 -5.69463E+03  6.29668E+03 -3.71553E+02  6.20525E+03  1.72684E+03  9.25119E+02  5.21611E+03
 -4.84340E+03  3.32682E+03 -4.67173E+03 -2.60963E+03  2.46137E+03 -6.69691E+03  8.83329E+03 -5.66631E+03
  1.02889E+04 -1.71622E+03  9.70928E+03  6.24837E+03  4.42816E+03  1.04319E+04 -4.00199E+03  1.08225E+04
 -9.70802E+03  5.17305E+03 -1.10427E+04 -2.79388E+03 -5.89420E+03 -7.77866E+03  1.52330E+02 -5.57230E+03
  6.74474E+03 -4.20323E+03  5.79083E+03  4.09741E+03  1.85531E+03  5.81430E+03 -3.30488E+03  5.33979E+03
 -3.41844E+03  2.66225E+03 -3.01800E+03  1.71713E+03 -1.10911E+03  2.42147E+02 -2.05885E+03  1.49421E+03
 -2.98050E+03  5.06271E+03 -9.44407E+03  3.85005E+03 -1.26132E+04  1.05419E+03 -1.29303E+04 -8.18342E+03
 -7.24635E+03 -1.48780E+04  3.16453E+03 -1.81079E+04  1.04156E+04 -1.26157E+04  1.53984E+04 -4.26328E+03
  1.63584E+04  2.59433E+03  9.70791E+03  1.05085E+04  2.02492E+03  1.29213E+04 -4.56727E+03  9.76142E+03
 -6.28592E+03  1.79508E+03 -5.13463E+03 -9.28842E+02 -1.61838E+02 -5.76487E+01 -1.50320E+03  1.10290E+03
 -2.80065E+03  6.56551E+02 -1.66623E+03 -1.55165E+03 -4.50516E+02 -9.56816E+02 -6.20860E+01 -4.10098E+03
  3.47010E+03 -4.04642E+03  7.08351E+03  1.34313E+02  7.48815E+03  6.66710E+03  2.39773E+03  1.18055E+04
 -6.36381E+03  1.35753E+04 -1.29059E+04  8.43916E+03 -1.58373E+04 -2.18608E+03 -1.15779E+04 -9.92148E+03
 -5.29802E+03 -1.21295E+04  3.74720E+03 -1.16711E+04  8.11431E+03 -4.88474E+03  8.37428E+03  1.47972E+03
  2.43449E+03  3.14743E+03  4.84686E+02  3.86763E+03 -1.67308E+03 -7.51172E+02 -1.07278E+02 -3.30151E+03
  3.44075E+03 -3.06125E+03  4.86425E+03  1.25390E+03  3.02256E+03  4.72737E+03 -8.73290E+02  6.71138E+03
 -5.86933E+03  5.03122E+03 -9.43437E+03  1.12461E+03 -7.98055E+03 -7.28053E+03 -1.15563E+03 -1.01203E+04
  5.02212E+03 -8.73609E+03  9.62780E+03 -3.52640E+03  1.10980E+04  2.64093E+03  6.11403E+03  7.96636E+03
  9.66631E+02  1.07841E+04 -3.36133E+03  7.61569E+03 -5.85798E+03  4.32660E+03 -5.61241E+03 -2.56627E+00
 -1.89867E+03 -4.92758E+02 -1.20968E+03 -2.57825E+02 -3.57008E+03  3.34506E+02 -6.06229E+03 -2.19108E+03
 -6.29139E+03 -5.32774E+03 -1.53775E+03 -8.28823E+03  3.67601E+03 -8.31734E+03  5.61023E+03 -4.73117E+03
  7.65088E+03  2.27402E+02  3.31029E+03  6.33298E+03 -1.52033E+03  8.72630E+03 -6.86380E+03  4.54622E+03
