 $NMID ID='MM_0lb_SNR200_10hz_g40_33.RAW', FMTDAT='(8E13.5)'
 TRAMP=1., VOLUME=1. $END
  3.09724E+05 -5.77189E+02  3.38298E+05  2.50580E+05  8.35790E+04  3.38596E+05 -1.33275E+05  2.51463E+05
 -1.90952E+05  8.28122E+04 -1.13388E+05 -3.48489E+04  5.58985E+02 -5.02810E+04  5.32624E+04 -2.11391E+03
  3.45963E+04  5.25281E+04 -1.56027E+04  7.48899E+04 -6.04455E+04  6.25038E+04 -8.39373E+04  3.18521E+04
 -7.99590E+04 -1.09530E+04 -5.78715E+04 -5.15766E+04 -1.42020E+04 -7.19086E+04  2.81583E+04 -4.63993E+04
  4.04272E+04  3.59442E+03  1.65998E+04  4.77985E+04 -3.34561E+04  4.68249E+04 -6.64920E+04 -5.85587E+02
 -5.39387E+04 -5.74685E+04 -8.88701E+03 -7.84236E+04  3.52363E+04 -5.60885E+04  5.00656E+04 -1.70142E+04
  4.33033E+04  1.04864E+04  3.26056E+04  2.70952E+04  1.62927E+04  2.93586E+04 -5.25576E+03  2.88936E+04
 -2.28969E+04  1.23150E+04 -1.78157E+04 -3.79046E+03  5.67268E+03 -8.14175E+03  2.15398E+04  1.45997E+04
  6.82996E+03  3.73381E+04 -3.32490E+04  3.70602E+04 -6.45898E+04  1.84586E+03 -5.70625E+04 -4.29710E+04
 -1.23488E+04 -6.49680E+04  4.24186E+04 -4.57424E+04  5.91615E+04 -2.68795E+03  3.49044E+04  3.25184E+04
 -5.05949E+03  3.82345E+04 -3.29144E+04  1.83885E+04 -3.21821E+04 -4.16153E+03 -1.81119E+04 -1.10203E+04
 -9.08426E+03 -1.51137E+04  1.23301E+03 -1.93990E+04  8.46838E+03 -2.39720E+04  1.68275E+04 -1.25029E+04
  9.73842E+03  6.64825E+03 -8.41336E+03  1.23468E+04 -2.10908E+04 -5.85836E+03 -9.06373E+03 -3.69201E+04
  2.40724E+04 -4.51255E+04  5.12232E+04 -1.98168E+04  4.66164E+04  2.06369E+04  1.60126E+04  4.57302E+04
 -1.78480E+04  3.54515E+04 -2.62755E+04  2.24528E+03 -1.24967E+04 -2.74015E+04  1.95694E+04 -3.67330E+04
  4.35079E+04 -9.08491E+03  3.97945E+04  2.45402E+04  1.96154E+04  4.95132E+04 -7.93373E+03  5.47773E+04
 -3.34716E+04  3.61191E+04 -4.28993E+04  1.07948E+04 -4.56411E+04 -1.83523E+04 -2.47799E+04 -4.02129E+04
  7.23752E+03 -4.03224E+04  3.23893E+04 -1.62866E+04  3.07559E+04  1.06495E+04  4.35949E+03  2.02861E+04
 -1.30653E+04  8.60960E+03 -1.15546E+04 -6.98068E+03  6.99289E+03 -1.04544E+04  1.92193E+04  4.95439E+03
  1.41200E+04  2.34996E+04 -6.43949E+03  2.65374E+04 -2.36684E+04  1.47678E+04 -3.11668E+04 -4.90753E+03
 -2.23927E+04 -1.87177E+04 -1.07861E+04 -2.28949E+04  5.25655E+03 -2.44175E+04  1.75231E+04 -1.99997E+04
  2.97587E+04 -1.37041E+04  3.54739E+04  2.74915E+03  2.63968E+04  2.23485E+04  3.43892E+03  4.11460E+04
 -1.92189E+04  3.24861E+04 -2.92658E+04  1.27559E+04 -2.30168E+04 -9.08834E+03 -5.34646E+03 -1.38766E+04
  2.05325E+03 -2.26332E+03 -5.63816E+03  7.68311E+03 -1.78541E+04  5.15177E+03 -1.94572E+04 -8.60328E+03
 -1.10131E+04 -2.12155E+04  5.75950E+03 -2.55667E+04  1.68498E+04 -1.83063E+04  2.05389E+04 -3.02164E+03
  1.45679E+04  1.57194E+04 -1.07122E+03  2.14325E+04 -1.50357E+04  1.32858E+04 -2.22248E+04 -4.05447E+03
 -1.72833E+04 -1.88356E+04 -3.01226E+03 -2.60830E+04  1.09120E+04 -2.14722E+04  2.09617E+04 -9.87475E+03
  2.03824E+04 -7.65070E+02  1.49843E+04  3.84855E+03  7.86476E+03  4.81281E+02  1.12870E+04 -1.08058E+03
  1.94814E+04  3.00355E+03  2.31009E+04  1.70290E+04  1.48963E+04  3.60512E+04 -4.48815E+03  4.11759E+04
 -2.23421E+04  3.23229E+04 -3.85490E+04  1.72286E+04 -3.87138E+04 -3.03126E+03 -3.26139E+04 -2.32652E+04
 -1.25844E+04 -3.33200E+04  1.11398E+04 -2.88146E+04  2.57760E+04 -1.52752E+04  2.25930E+04  7.33786E+03
  7.47243E+03  1.71926E+04 -1.14036E+04  1.39224E+04 -1.83599E+04  1.89035E+03 -1.48814E+04 -1.21704E+04
 -1.35614E+03 -1.63148E+04  8.87711E+03 -1.41640E+04  1.27200E+04 -1.30803E+03  2.37128E+03  7.47072E+03
 -7.24527E+03  4.11320E+03 -7.82048E+03 -5.70452E+03 -2.63263E+03 -1.60825E+04  1.01499E+04 -1.77455E+04
  2.04631E+04 -8.44414E+03  2.35993E+04  1.86688E+03  1.98824E+04  1.66335E+04  9.57907E+03  2.55544E+04
 -4.67510E+03  2.76389E+04 -1.86665E+04  1.60975E+04 -1.94964E+04  4.43483E+03 -1.46718E+04 -4.01397E+03
 -6.09333E+03 -6.30599E+03  3.79518E+02  1.45175E+03 -2.29699E+03  1.50113E+03 -6.37371E+03  3.89184E+03
 -1.39018E+04  1.93473E+02 -1.40370E+04 -1.14495E+04 -4.90388E+03 -1.90317E+04  6.11210E+03 -1.32118E+04
  1.20516E+04 -6.43860E+03  8.74391E+03  6.11874E+03  4.14333E+02  5.05976E+03 -5.96986E+03 -1.90451E+03
 -7.46284E+03 -8.94567E+03 -1.01829E+03 -1.34813E+04  8.52670E+03 -1.42885E+04  1.82496E+04 -8.85165E+03
  2.09292E+04  2.85910E+03  1.49350E+04  1.12266E+04  1.22442E+03  1.77726E+04 -8.08606E+03  1.29245E+04
 -1.18191E+04  2.30852E+03 -5.18836E+03 -2.15830E+03  2.49399E+03 -2.92221E+03  7.47902E+03 -4.54958E+02
  6.05224E+03  6.10258E+03  2.03693E+03  1.09854E+04 -8.31536E+03  1.09013E+04 -1.53753E+04  2.10980E+03
 -8.20619E+03 -7.56650E+03  7.21359E+02 -1.07893E+04  6.37417E+03 -5.84618E+03  8.19680E+03  2.23856E+03
  1.68467E+03  9.68494E+03 -8.95505E+03  9.83612E+03 -1.17235E+04  5.43854E+03 -1.14513E+04 -3.05404E+03
 -8.16612E+03 -1.43872E+04  2.04970E+03 -1.59899E+04  1.29465E+04 -1.03615E+04  1.36544E+04  3.04143E+03
  1.07022E+04  1.20977E+04 -1.76608E+03  1.49952E+04 -9.29204E+03  7.14538E+03 -1.23844E+04  8.48745E+02
 -8.35264E+03 -9.87382E+03 -8.55426E+02 -1.09235E+04  6.85027E+03 -8.25526E+03  7.66876E+03 -3.37262E+03
  4.02408E+03  1.86533E+03 -9.84974E+02  2.17265E+03  1.37459E+02 -2.61652E+03  1.22499E+03 -5.98426E+03
  1.05697E+04 -4.61507E+03  1.47713E+04  1.89149E+03  1.28012E+04  9.60581E+03  9.73225E+03  1.69113E+04
 -2.87222E+03  2.09685E+04 -1.78414E+04  1.60641E+04 -2.20599E+04  2.40843E+03 -1.85699E+04 -8.14774E+03
 -9.30362E+03 -1.54427E+04 -5.97230E+02 -1.16737E+04  3.84437E+03 -5.79707E+03  4.74362E+03 -4.16596E+03
  2.97683E+03 -2.70191E+03  3.58130E+03 -3.00747E+03  5.41228E+03 -3.64957E+03  7.35692E+03 -9.79918E+02
  8.76990E+03  1.27158E+03  3.31034E+03  7.56412E+03 -2.73177E+03  8.54602E+03 -9.83254E+03  8.07860E+03
 -1.29156E+04 -2.37855E+02 -7.59930E+03 -9.72665E+03 -2.75770E+03 -1.34074E+04  6.06518E+03 -1.29754E+04
  1.60885E+04 -6.52429E+03  1.76590E+04  4.03787E+03  1.20010E+04  9.97860E+03  1.74847E+03  1.53313E+04
 -7.40931E+03  1.23400E+04 -8.76998E+03  4.52230E+03 -6.30164E+03 -5.05197E+02 -2.55974E+03 -2.26608E+03
 -1.40729E+03 -9.08010E+02 -4.99670E+02  2.33755E+03 -4.96537E+03  2.46025E+03 -9.77214E+03 -2.76576E+02
 -6.45781E+03 -7.48463E+03  6.21755E+02 -1.25623E+04  8.57606E+03 -1.13840E+04  1.18505E+04 -4.75739E+03
  1.19142E+04  6.88603E+03  4.95171E+03  1.08876E+04 -1.19446E+03  1.14262E+04 -9.16132E+03  7.58477E+03
 -1.22100E+04  7.02953E+02 -9.29716E+03 -5.56220E+03 -6.10173E+02 -1.00317E+04  5.77359E+03 -7.65711E+03
  8.00924E+03 -2.87491E+03  6.91942E+03  2.92032E+03  1.77379E+03  3.72977E+03  1.44500E+03  1.55298E+03
  2.21114E+03  6.09883E+02  2.46123E+03  2.34285E+03  4.77664E+03  3.98348E+03  3.70541E+03  8.45762E+03
 -4.27655E+03  9.66266E+03 -1.04045E+04  1.08812E+04 -1.33204E+04  2.99575E+03 -1.15510E+04 -4.02218E+03
 -6.20725E+03 -1.17799E+04  1.84129E+03 -1.44808E+04  7.18014E+03 -7.94071E+03  1.12737E+04 -1.10987E+03
  8.05855E+03  5.20928E+03  4.60019E+02  8.37265E+03 -1.74406E+03  3.70385E+03 -5.61402E+03 -6.58452E+02
 -4.38105E+03 -5.06400E+03  3.51964E+03 -4.88315E+03  4.65393E+03 -3.62844E+03  3.89602E+03  1.53269E+03
  2.00733E+03  1.02114E+03  1.47580E+03  1.74849E+03 -6.57311E+02  2.34786E+03 -3.76481E+02 -8.80723E+02
  2.10539E+03 -7.82019E+02  4.91590E+03  1.18501E+03  1.39382E+03  7.21159E+03 -1.04242E+03  8.50201E+03
 -4.53970E+03  3.91936E+03 -7.95635E+03  9.65397E+02 -6.27914E+03 -2.70186E+03 -2.48114E+03 -4.55046E+03
  1.52120E+03 -3.51338E+03  3.49035E+03 -1.16522E+03  1.62493E+03  2.18244E+03 -1.11448E+03  4.11628E+03
 -5.23685E+03  2.38929E+03 -4.47749E+03 -4.78652E+03 -3.38644E+03 -7.30051E+03  5.06095E+02 -6.47686E+03
  4.51425E+03 -4.74121E+03  4.05330E+03 -3.70273E+02  2.85440E+03  7.98645E+02  1.42330E+03  4.05335E+03
 -3.37440E+03  1.52345E+03 -2.38674E+03 -2.55097E+03  8.19768E+02 -5.34891E+03  6.25695E+03 -5.05000E+03
  6.86366E+03  1.85588E+03  6.70423E+03  7.13871E+03  2.45085E+03  7.73508E+03 -3.50174E+03  6.79913E+03
 -6.05779E+03  2.17353E+03 -6.16886E+03 -2.66319E+02 -5.26086E+03 -5.99329E+03  4.55454E+02 -5.47338E+03
  6.03859E+03 -3.11556E+03  3.89907E+03  3.02715E+03  1.75440E+03  5.17329E+03 -2.40959E+03  4.59960E+03
 -2.29051E+03  1.82852E+03  1.00656E+02  1.14270E+03 -4.24511E+02  1.95492E+02 -4.04664E+02  3.16913E+03
 -1.66386E+03  3.01262E+03 -6.37027E+03  3.89734E+03 -8.29964E+03  3.78793E+02 -8.88513E+03 -5.10068E+03
 -5.48592E+03 -9.94043E+03  1.16132E+03 -1.22108E+04  7.28270E+03 -8.41444E+03  1.17020E+04 -3.92471E+03
  1.03080E+04  2.11561E+03  5.95393E+03  7.05077E+03 -3.05584E+02  8.50595E+03 -3.18892E+03  7.07941E+03
 -4.51377E+03  2.72934E+03 -3.40399E+03 -1.18864E+03 -2.01788E+03 -6.39007E+02 -1.33869E+03  1.05810E+00
 -6.52511E+02 -3.40691E+02 -1.74513E+03 -8.30710E+02 -1.72125E+03 -1.50275E+03 -4.33733E+01 -4.61533E+03
  4.07421E+03 -2.18624E+03  5.02071E+03  1.18773E+03  4.53130E+03  4.47502E+03  2.26483E+03  6.94064E+03
 -3.21944E+03  1.00352E+04 -9.81877E+03  3.91401E+03 -1.07963E+04 -3.38432E+02 -7.82047E+03 -5.14893E+03
 -3.93588E+03 -7.57869E+03  1.88470E+03 -6.71775E+03  7.35320E+03 -4.41827E+03  5.60842E+03  5.32154E+02
  2.85005E+03  1.42838E+03 -5.84391E+02  2.39143E+03 -9.88705E+02 -1.25784E+02 -6.22471E+02 -3.67273E+02
  2.85461E+03 -3.70400E+02  1.73468E+03  1.16824E+03  1.54116E+03  3.07569E+03  5.22605E+01  5.11745E+03
 -5.66169E+03  4.38229E+03 -5.27835E+03  1.25700E+03 -5.09611E+03 -4.43022E+03  4.06482E+02 -5.07653E+03
  3.60960E+03 -5.26960E+03  7.25305E+03 -1.42320E+03  5.88996E+03  1.14628E+03  3.53312E+03  5.43291E+03
  2.39023E+02  5.53646E+03 -1.09446E+03  3.58884E+03 -3.99068E+03  2.51821E+03 -2.29425E+03  9.14187E+02
 -1.06618E+03  6.42657E+02 -1.77669E+03  4.27676E+02 -3.91761E+03  6.14765E+02 -2.73449E+03 -7.38486E+02
 -4.58203E+03 -3.91894E+03 -2.27226E+03 -6.13880E+03  2.67839E+03 -6.13187E+03  4.69684E+03 -1.39596E+03
  4.92559E+03  5.95004E+02  2.16041E+03  3.58614E+03  7.46150E+01  6.82471E+03 -4.99932E+03  4.22461E+03
