 $NMID ID='MM_0lb_SNR200_9hz_g40_82.RAW', FMTDAT='(8E13.5)'
 TRAMP=1., VOLUME=1. $END
  3.10143E+05  1.59056E+03  3.38165E+05  2.50453E+05  8.44599E+04  3.37706E+05 -1.33934E+05  2.50926E+05
 -1.89993E+05  8.29682E+04 -1.12711E+05 -3.18441E+04  2.10524E+02 -5.19692E+04  5.29942E+04 -1.20828E+03
  3.60426E+04  5.41245E+04 -1.67794E+04  7.61421E+04 -6.18975E+04  6.53386E+04 -8.53324E+04  3.26984E+04
 -8.12444E+04 -1.21265E+04 -5.76992E+04 -5.11185E+04 -1.50847E+04 -6.96159E+04  2.81085E+04 -4.80833E+04
  4.09371E+04  2.71186E+03  1.68319E+04  4.71081E+04 -3.36685E+04  4.86749E+04 -6.74044E+04 -4.99020E+02
 -5.40570E+04 -5.90710E+04 -6.66356E+03 -7.99275E+04  3.34982E+04 -5.71696E+04  5.06721E+04 -1.87665E+04
  4.43203E+04  1.05835E+04  3.34892E+04  2.69126E+04  1.73438E+04  3.07493E+04 -7.90468E+03  2.74639E+04
 -2.31121E+04  1.18416E+04 -1.77441E+04 -5.58653E+03  8.54260E+03 -9.20160E+03  2.40186E+04  1.37887E+04
  5.88213E+03  3.65270E+04 -3.47644E+04  3.60455E+04 -6.45924E+04  3.57041E+03 -5.76788E+04 -4.54165E+04
 -1.34556E+04 -6.55351E+04  4.12755E+04 -4.60387E+04  5.97255E+04 -1.64204E+03  3.61864E+04  3.43247E+04
 -5.01380E+03  3.82915E+04 -3.23054E+04  1.82277E+04 -3.38256E+04 -3.76904E+03 -1.82323E+04 -1.25428E+04
 -9.39477E+03 -1.50897E+04 -1.20105E+03 -1.83828E+04  7.65934E+03 -2.35837E+04  1.59858E+04 -1.11257E+04
  1.11914E+04  6.50260E+03 -9.46724E+03  1.18972E+04 -2.30081E+04 -4.68216E+03 -7.63685E+03 -3.65903E+04
  2.49014E+04 -4.61988E+04  5.12967E+04 -2.15728E+04  4.91089E+04  2.15310E+04  1.77468E+04  4.65658E+04
 -1.68149E+04  3.67443E+04 -2.75269E+04  1.29378E+03 -1.29289E+04 -2.84331E+04  2.16550E+04 -3.53878E+04
  4.37398E+04 -1.05856E+04  3.83557E+04  2.43583E+04  1.96931E+04  5.13960E+04 -7.50240E+03  5.51738E+04
 -3.46565E+04  3.67826E+04 -4.65651E+04  9.78747E+03 -4.63610E+04 -1.61291E+04 -2.62911E+04 -4.11610E+04
  7.80048E+03 -4.08747E+04  3.44316E+04 -1.54033E+04  3.00750E+04  1.18057E+04  7.00772E+03  2.13350E+04
 -1.47861E+04  8.71738E+03 -1.21850E+04 -8.83587E+03  5.34165E+03 -1.22668E+04  1.80348E+04  6.45346E+03
  1.45485E+04  2.25689E+04 -6.94562E+03  2.86448E+04 -2.38703E+04  1.43738E+04 -3.14670E+04 -2.71435E+03
 -2.52399E+04 -1.70331E+04 -1.20500E+04 -2.60816E+04  5.00088E+03 -2.31545E+04  1.81525E+04 -2.21744E+04
  3.03885E+04 -1.40529E+04  3.72692E+04  5.76807E+03  2.69407E+04  2.43552E+04  4.63197E+03  4.09070E+04
 -1.93089E+04  3.36500E+04 -3.09933E+04  1.19576E+04 -2.06152E+04 -9.21928E+03 -5.26217E+03 -1.42077E+04
  1.89813E+03 -1.17543E+03 -7.43530E+03  6.64407E+03 -1.87721E+04  4.72578E+03 -1.86452E+04 -8.97165E+03
 -1.08403E+04 -2.17433E+04  5.21071E+03 -2.52158E+04  1.75960E+04 -1.94669E+04  2.28403E+04 -7.85075E+02
  1.50254E+04  1.50629E+04 -8.20168E+02  2.24355E+04 -1.65206E+04  1.30658E+04 -2.29814E+04 -3.38491E+03
 -1.61384E+04 -2.06596E+04 -1.66308E+03 -2.81720E+04  1.17168E+04 -2.23471E+04  2.09632E+04 -1.22806E+04
  1.94377E+04 -5.07181E+02  1.44686E+04  3.71604E+03  8.46664E+03  1.52966E+03  1.11871E+04 -1.49107E+03
  2.16199E+04  1.70266E+03  2.60960E+04  1.87128E+04  1.70963E+04  3.47193E+04 -2.45881E+03  4.37169E+04
 -2.36717E+04  3.61468E+04 -4.00676E+04  1.86350E+04 -4.23632E+04 -3.35549E+03 -3.38986E+04 -2.50172E+04
 -1.36681E+04 -3.48848E+04  1.28212E+04 -3.04733E+04  2.60274E+04 -1.44728E+04  2.33042E+04  7.71509E+03
  7.76905E+03  1.83051E+04 -1.17298E+04  1.53429E+04 -1.93382E+04  1.30850E+03 -1.58838E+04 -1.24788E+04
  6.64872E+01 -1.91242E+04  9.32581E+03 -1.45227E+04  1.30847E+04 -1.28900E+03  2.44411E+03  9.95064E+03
 -8.74586E+03  4.26528E+03 -1.00449E+04 -6.73159E+03 -2.03363E+03 -1.75065E+04  1.27291E+04 -1.96130E+04
  2.32557E+04 -9.89179E+03  2.31331E+04  4.84666E+03  2.22676E+04  1.68490E+04  9.36807E+03  2.84472E+04
 -3.96233E+03  3.05882E+04 -1.93385E+04  1.78090E+04 -2.14294E+04  4.83858E+03 -1.50880E+04 -5.63898E+03
 -5.68866E+03 -6.60564E+03 -1.35570E+03  5.14093E+02 -2.42653E+03  3.10269E+03 -7.88772E+03  5.92317E+03
 -1.28421E+04 -2.66607E+02 -1.31663E+04 -1.16575E+04 -7.68298E+03 -1.74149E+04  6.49313E+03 -1.50119E+04
  1.14769E+04 -6.39478E+03  9.69317E+03  3.02877E+03 -4.92373E+02  6.66946E+03 -9.11530E+03 -4.60937E+02
 -7.68567E+03 -9.76711E+03 -2.18459E+03 -1.32469E+04  8.75501E+03 -1.67503E+04  2.09878E+04 -7.99864E+03
  2.09696E+04  1.78317E+03  1.59224E+04  1.38696E+04  3.61121E+03  1.84285E+04 -9.06919E+03  1.40771E+04
 -1.18115E+04  3.22012E+03 -6.73402E+03 -4.02347E+03  2.40789E+03 -3.00596E+03  7.89873E+03 -2.71969E+03
  6.55073E+03  7.25218E+03  2.54696E+03  1.16411E+04 -8.68230E+03  1.15706E+04 -1.38943E+04  1.52287E+03
 -9.92776E+03 -7.82717E+03  1.73036E+03 -1.26328E+04  8.93443E+03 -7.03894E+03  9.88217E+03  3.18419E+03
  2.29582E+03  9.45757E+03 -6.47496E+03  1.11448E+04 -1.14274E+04  5.02515E+03 -1.29747E+04 -5.75099E+03
 -8.14908E+03 -1.34473E+04  2.64898E+03 -1.75744E+04  1.52185E+04 -1.06438E+04  1.66470E+04  3.76977E+03
  8.55736E+03  1.33461E+04 -2.62644E+03  1.47176E+04 -1.13560E+04  8.78556E+03 -1.09589E+04 -1.82935E+03
 -8.80359E+03 -1.03013E+04 -2.19773E+03 -1.14202E+04  6.93144E+03 -9.67898E+03  7.34175E+03 -2.21812E+03
  6.31332E+03  2.44915E+03 -1.93415E+03  1.62415E+03 -1.59578E+03 -4.51067E+03  2.17863E+03 -6.69225E+03
  1.34542E+04 -5.68786E+03  1.61421E+04  9.53002E+02  1.49550E+04  9.73406E+03  1.07271E+04  2.04415E+04
 -6.43279E+03  2.09644E+04 -1.93501E+04  1.71741E+04 -2.39555E+04  2.36610E+03 -1.99307E+04 -7.51375E+03
 -1.14003E+04 -1.69300E+04 -6.64662E+02 -1.49015E+04  5.10848E+03 -7.76617E+03  4.59657E+03 -6.00737E+03
  2.82648E+03 -3.55501E+03  3.35661E+03 -3.38659E+03  4.39090E+03 -4.48183E+03  8.08236E+03 -7.09619E+02
  9.34238E+03  2.15916E+03  6.20712E+03  1.01469E+04 -2.71723E+03  1.01833E+04 -1.12771E+04  7.50490E+03
 -1.36940E+04  1.99535E+02 -9.09266E+03 -9.39544E+03 -1.14548E+03 -1.58178E+04  8.14128E+03 -1.61080E+04
  1.56130E+04 -7.46779E+03  1.84920E+04  3.67250E+03  1.24187E+04  1.38705E+04  1.53062E+03  1.52904E+04
 -6.45805E+03  1.40787E+04 -1.02668E+04  4.97421E+03 -6.45113E+03 -2.52744E+03 -2.08508E+02 -1.77847E+03
 -5.51253E+02  1.24938E+03 -2.17929E+03  2.64438E+03 -6.72900E+03  1.55108E+03 -9.82456E+03 -1.18702E+03
 -7.67191E+03 -1.07946E+04  2.62724E+02 -1.39591E+04  9.70893E+03 -1.32912E+04  1.29750E+04 -4.87298E+03
  1.27858E+04  6.35827E+03  6.95241E+03  1.20825E+04 -3.38328E+03  1.46679E+04 -1.17403E+04  1.00207E+04
 -1.38624E+04  5.64758E+02 -1.04094E+04 -7.70286E+03 -5.95169E+02 -1.12003E+04  6.72052E+03 -8.42693E+03
  8.87716E+03 -3.05243E+03  5.37461E+03  2.15999E+03  2.78445E+03  4.22086E+03  2.80764E+03  1.57695E+03
  3.75454E+03  1.90229E+03  4.93097E+03  2.82236E+03  3.48745E+03  3.44838E+03  3.26262E+03  7.17713E+03
 -3.19143E+03  1.11602E+04 -1.05834E+04  1.17241E+04 -1.36534E+04  3.74158E+03 -1.34502E+04 -5.85082E+03
 -7.15525E+03 -1.56298E+04  9.92422E+02 -1.49204E+04  9.48892E+03 -9.87770E+03  1.13643E+04 -3.38268E+03
  8.28055E+03  6.68732E+03  7.81589E+02  7.05090E+03 -3.02830E+03  5.06930E+03 -4.54180E+03 -2.11896E+03
 -3.38675E+03 -6.31471E+03  2.88605E+03 -4.49744E+03  6.08050E+03 -2.82337E+03  6.66111E+03  2.43669E+03
  4.63178E+03  1.89660E+03  3.26730E+02  1.72980E+03  4.08643E+02  8.54250E+02  1.35282E+03 -7.33212E+02
  2.80582E+03 -2.21557E+03  6.83328E+03  1.45141E+03  3.86195E+03  8.17349E+03 -2.75349E+03  8.99254E+03
 -6.93032E+03  5.38752E+03 -9.02936E+03  4.76671E+02 -1.05220E+04 -4.94380E+03 -2.49232E+03 -6.76837E+03
  1.38339E+03 -5.33787E+03  4.23536E+03 -3.00229E+03  2.71118E+03  2.66715E+03 -2.49352E+03  4.97648E+03
 -6.49590E+03  3.19343E+03 -5.95749E+03 -3.85596E+03 -5.70784E+03 -8.02075E+03 -7.01163E+02 -7.98771E+03
  3.79474E+03 -5.00721E+03  5.26541E+03 -1.96126E+03  6.00573E+03  1.49686E+03  5.27314E+02  4.86119E+03
 -2.72049E+03  1.22443E+02 -4.59486E+03 -2.84255E+03  1.76553E+03 -5.25185E+03  8.02552E+03 -4.54500E+03
  9.71242E+03  9.54589E+02  7.29832E+03  6.36861E+03  3.50501E+03  9.42206E+03 -3.77677E+03  8.38714E+03
 -8.67744E+03  3.86220E+03 -7.47105E+03 -7.95550E+02 -5.50056E+03 -6.34826E+03  2.04970E+03 -6.09277E+03
  4.95451E+03 -1.84476E+03  4.09134E+03  2.08136E+03  1.12488E+03  5.79136E+03 -4.42197E+02  3.96445E+03
 -3.22966E+03  3.06439E+03 -2.38722E+03  1.46931E+03 -4.41849E+02 -6.25740E+01 -9.71683E+02  2.01195E+03
 -3.05970E+03  3.44533E+03 -5.44184E+03  3.35564E+03 -9.96834E+03 -1.49222E+02 -1.19994E+04 -5.25759E+03
 -6.09290E+03 -1.32149E+04  4.66057E+03 -1.48664E+04  7.68508E+03 -1.02231E+04  1.40036E+04 -5.29514E+03
  1.16922E+04  2.90047E+03  8.39758E+03  7.59534E+03  9.20936E+02  9.42722E+03 -3.70016E+03  8.84703E+03
 -6.38738E+03  2.37017E+03 -3.34535E+03 -8.94435E+02  2.54523E+02 -9.91052E+01 -1.64450E+03 -1.77420E+02
 -2.57735E+03  5.44342E+02 -2.46953E+03 -1.03924E+03  6.23237E+02 -3.31144E+03 -5.01147E+02 -3.23677E+03
  4.43930E+03 -2.19015E+03  7.45123E+03 -3.87856E+02  7.02844E+03  4.41085E+03  2.06948E+03  1.05084E+04
 -4.57929E+03  1.15033E+04 -1.05318E+04  9.21479E+03 -1.12967E+04 -1.90797E+03 -9.57928E+03 -8.53705E+03
 -3.69817E+03 -9.79093E+03  3.24504E+03 -9.19822E+03  6.07549E+03 -5.08705E+03  6.02737E+03  1.11217E+03
  2.31640E+03  3.14862E+03 -4.55675E+02  2.98581E+03 -2.55227E+03 -6.41624E+02  1.01697E+03 -3.00018E+03
  2.39346E+03 -1.11593E+03  3.41957E+03  1.84837E+03  1.13818E+03  4.07315E+03  7.18079E+02  3.62839E+03
 -3.57837E+03  3.67043E+03 -6.62341E+03  9.04513E+02 -5.76688E+03 -4.57529E+03  2.71774E+02 -8.62960E+03
  3.98446E+03 -7.03147E+03  7.57987E+03 -2.67690E+03  6.59085E+03  1.15207E+03  4.60147E+03  4.29909E+03
  2.03262E+03  7.93363E+03 -7.01173E+02  4.24908E+03 -4.26869E+03  3.69939E+03 -2.65155E+03  5.84383E+02
 -2.96710E+03 -1.49252E+03 -2.90335E+03 -1.93341E+02 -4.35217E+03  8.81091E+02 -3.90176E+03 -1.32028E+03
 -4.38012E+03 -4.30231E+03 -8.89848E-01 -7.41538E+03  2.22474E+03 -6.42584E+03  5.86617E+03 -4.18805E+03
  4.16213E+03 -1.88355E+02  4.44364E+03  4.52990E+03  7.00388E+02  6.65569E+03 -4.66612E+03  4.73834E+03
