 $NMID ID='MM_0lb_SNR200_20hz_g50_60.RAW', FMTDAT='(8E13.5)'
 TRAMP=1., VOLUME=1. $END
  3.10086E+05  2.16489E+02  3.37006E+05  2.50892E+05  8.38541E+04  3.37393E+05 -1.31997E+05  2.49356E+05
 -1.89338E+05  8.18094E+04 -1.12029E+05 -3.32653E+04  1.37301E+03 -5.07396E+04  5.45845E+04  2.82969E+02
  3.43438E+04  5.27610E+04 -1.75177E+04  7.50683E+04 -6.03254E+04  6.36169E+04 -8.28288E+04  3.07663E+04
 -7.98055E+04 -9.92363E+03 -5.63163E+04 -4.99510E+04 -1.50416E+04 -6.74322E+04  2.63529E+04 -4.46882E+04
  3.79639E+04  3.52220E+03  1.55789E+04  4.65567E+04 -3.43978E+04  4.64324E+04 -6.59181E+04 -5.10946E+02
 -5.17787E+04 -5.56530E+04 -5.74260E+03 -7.48130E+04  3.37172E+04 -5.28581E+04  4.61914E+04 -1.59843E+04
  4.16322E+04  1.00210E+04  2.95947E+04  2.38936E+04  1.57775E+04  2.84103E+04 -4.90770E+03  2.70487E+04
 -2.19582E+04  1.33162E+04 -1.82782E+04 -2.98138E+03  4.63831E+03 -7.71217E+03  2.14284E+04  9.49310E+03
  8.08979E+03  3.37898E+04 -2.99972E+04  3.31312E+04 -6.01149E+04  2.10613E+03 -5.48783E+04 -4.05137E+04
 -1.23947E+04 -5.99207E+04  3.83696E+04 -4.37432E+04  5.55678E+04 -1.35328E+03  3.21889E+04  3.06473E+04
 -6.77696E+03  3.20536E+04 -2.81822E+04  1.21039E+04 -2.70325E+04 -4.64738E+03 -1.45117E+04 -1.03348E+04
 -7.50168E+03 -1.09133E+04 -8.38907E+02 -1.61328E+04  6.55500E+03 -2.30622E+04  1.56700E+04 -1.40314E+04
  1.25132E+04  4.76297E+03 -6.12395E+03  1.41140E+04 -1.92756E+04 -1.15728E+03 -8.44866E+03 -3.06516E+04
  2.02694E+04 -3.88251E+04  4.42998E+04 -1.91914E+04  4.10954E+04  1.88197E+04  1.41344E+04  3.99289E+04
 -1.53231E+04  2.99804E+04 -2.28081E+04  5.38515E+02 -7.43163E+03 -2.56851E+04  2.09333E+04 -3.01993E+04
  3.75149E+04 -7.12823E+03  3.08514E+04  2.37538E+04  1.62155E+04  4.30824E+04 -7.44967E+03  4.40115E+04
 -2.82163E+04  2.87933E+04 -3.59551E+04  7.23401E+03 -3.83084E+04 -1.41886E+04 -2.07887E+04 -3.49458E+04
  6.27090E+03 -3.32785E+04  2.91639E+04 -1.20806E+04  2.58225E+04  1.05930E+04  9.20538E+02  1.71992E+04
 -1.25454E+04  6.21453E+03 -9.76125E+03 -7.30375E+03  5.93326E+03 -9.61412E+03  1.61575E+04  6.84482E+03
  1.26742E+04  2.12316E+04 -6.12001E+03  2.33730E+04 -2.10433E+04  1.00463E+04 -2.48467E+04 -6.12589E+03
 -1.58919E+04 -1.58323E+04 -5.02045E+03 -1.68572E+04  4.00005E+03 -1.33000E+04  1.24784E+04 -1.22680E+04
  2.04737E+04 -1.17010E+04  2.70888E+04  1.71726E+03  2.08120E+04  1.55085E+04  3.73963E+03  3.28751E+04
 -1.45491E+04  2.78956E+04 -2.61050E+04  9.25973E+03 -1.89109E+04 -1.01594E+04 -3.42088E+03 -1.43787E+04
  3.02490E+03 -4.29142E+03 -2.38174E+03  5.53547E+03 -1.27722E+04  5.59868E+03 -1.23384E+04 -4.11131E+03
 -8.45824E+03 -1.44780E+04  4.79387E+03 -1.76797E+04  1.18676E+04 -1.34650E+04  1.52013E+04 -1.69823E+03
  7.45847E+03  1.07997E+04 -1.06374E+03  1.48280E+04 -9.36257E+03  8.24019E+03 -1.35597E+04 -3.12748E+03
 -1.02754E+04 -1.38659E+04 -8.41098E+02 -1.76765E+04  8.44693E+03 -1.45046E+04  1.43154E+04 -7.22900E+03
  1.44880E+04 -2.34600E+02  9.56847E+03  5.06808E+03  4.47474E+03 -4.09873E+02  6.98089E+03 -7.72094E+02
  1.32043E+04  1.72053E+03  1.34876E+04  1.18325E+04  8.58636E+03  2.46838E+04 -3.85779E+03  2.46824E+04
 -1.47364E+04  1.89262E+04 -2.31966E+04  9.54932E+03 -2.19441E+04 -1.72541E+03 -1.96950E+04 -1.27502E+04
 -1.01543E+04 -1.91309E+04  5.71583E+03 -1.78825E+04  1.50443E+04 -1.14618E+04  1.48197E+04  3.43244E+03
  6.64184E+03  1.09668E+04 -6.49943E+03  1.00483E+04 -1.24447E+04  2.23806E+03 -1.05725E+04 -7.41300E+03
 -3.14567E+02 -1.12645E+04  5.37758E+03 -8.57742E+03  6.64776E+03 -3.91238E+02  2.09331E+03  3.81031E+03
 -5.93291E+03  1.20478E+03 -3.42787E+03 -5.04565E+03  2.26063E+02 -8.63136E+03  7.81430E+03 -9.14789E+03
  1.19192E+04 -3.92275E+03  9.98896E+03  2.58096E+03  8.26702E+03  8.93992E+03  5.45548E+03  1.22573E+04
 -1.24246E+03  1.39910E+04 -8.60485E+03  8.90610E+03 -1.07890E+04  2.98938E+03 -7.22422E+03 -1.24813E+03
 -4.62791E+03 -1.82256E+03 -1.10411E+03  1.35994E+03 -2.28481E+03  2.72544E+03 -2.38836E+03  3.48843E+03
 -7.35809E+03 -1.01317E+03 -7.79448E+03 -7.01594E+03 -3.94441E+03 -1.09671E+04  3.43894E+03 -7.73887E+03
  6.43902E+03 -3.21321E+03  5.13465E+03  2.24826E+03  4.78402E+02  2.51937E+03 -2.63357E+03 -4.27226E+02
 -2.42756E+03 -4.07651E+03 -4.49576E+02 -6.99451E+03  3.25009E+03 -6.93557E+03  8.50421E+03 -3.63305E+03
  1.18451E+04 -8.05145E+00  8.82391E+03  5.08685E+03  2.08152E+03  7.48974E+03 -5.55431E+03  7.03387E+03
 -6.78112E+03  2.89640E+03 -3.16201E+03 -1.81220E+03  1.64634E+03 -1.22644E+03  3.83467E+03  4.61337E+02
  4.97145E+03  3.76944E+03  1.59955E+03  6.03485E+03 -3.25288E+03  5.99006E+03 -7.39568E+03  2.44419E+03
 -3.89954E+03 -2.36481E+03  8.70970E+02 -5.89271E+03  4.14948E+03 -2.31632E+03  2.82351E+03  1.35996E+03
  9.40700E+01  2.19707E+03 -3.22128E+03  4.64982E+03 -3.16378E+03  1.88992E+03 -3.57601E+03 -6.09655E+02
 -3.26094E+03 -5.43869E+03  8.27496E+02 -5.89242E+03  4.91952E+03 -4.40246E+03  5.17911E+03  1.35369E+03
  4.19806E+03  5.51606E+03 -8.28972E+01  6.00744E+03 -4.68516E+03  4.19092E+03 -4.37644E+03  1.67801E+02
 -5.94434E+03 -5.36148E+03 -1.61486E+03 -3.64993E+03  2.45700E+03 -4.39986E+03  2.32147E+03 -3.10275E+03
  2.24661E+03 -1.00406E+03 -1.12400E+02  6.55933E+01  1.12373E+03 -4.57601E+02  8.84496E+02 -1.98830E+03
  3.06055E+03 -1.01631E+03  3.83338E+03  1.26442E+03  4.20877E+03  1.32900E+03  4.44209E+03  7.20167E+03
 -8.64763E+02  6.94930E+03 -7.39246E+03  4.45252E+03 -8.67345E+03  1.23855E+03 -6.75501E+03 -1.42783E+03
 -4.19667E+03 -5.11704E+03 -1.24454E+03 -4.58115E+03  1.56219E+03 -2.82902E+03  1.13371E+03 -1.80226E+03
  1.41865E+03 -1.55667E+03  1.70222E+03 -2.28877E+03  3.58396E+03 -1.53239E+03  2.93891E+03 -2.94608E+02
  4.38960E+03  1.17876E+03  8.94244E+02  2.07968E+03 -1.59694E+03  1.80862E+03 -3.96362E+03  3.97037E+02
 -3.43385E+03 -7.29455E+02 -1.70187E+03 -2.74773E+03  2.11159E+03 -4.15339E+03  2.48275E+03 -4.55703E+03
  3.86520E+03 -2.96279E+03  6.22064E+03 -3.54511E+01  3.79460E+03  2.98122E+03  2.42763E+03  5.62772E+03
 -1.27581E+03  4.53765E+03 -2.54810E+03  2.37542E+03 -6.99265E+02 -1.10859E+03 -4.42255E+02 -2.18179E+02
 -9.02932E+02 -3.21566E+01 -2.00737E+02  1.79212E+03 -2.66182E+03  2.26991E+02 -3.74536E+03  9.13503E+02
 -1.02254E+03 -4.14604E+03  9.13415E+02 -4.14406E+03  2.33391E+03 -4.25604E+03  2.39928E+03 -7.33863E+02
  4.06044E+03  2.01844E+03  2.29271E+03  2.41716E+03 -1.14909E+03  2.36741E+03 -1.09899E+03  2.83634E+03
 -2.84355E+03  9.44042E+02 -3.01103E+03 -1.71048E+03 -1.98750E+02 -2.83542E+03  6.86867E+02 -1.38763E+03
  1.52534E+03 -7.36613E+02  1.18197E+03 -1.24078E+01  5.46440E+02  2.39933E+03  6.98269E+02  4.02503E+02
  2.15026E+03  1.21912E+02  1.37915E+03  2.00107E+03  1.22876E+03  2.38660E+03  1.06968E+03  1.22550E+03
 -1.88962E+03  2.75054E+03 -1.80981E+03  3.42481E+03 -1.65846E+03  1.26906E+03 -2.85729E+03  5.37256E+02
 -7.39884E+02 -2.21615E+03 -1.73796E+02 -3.11964E+03  1.75910E+03 -1.52094E+03  2.51024E+03 -1.18996E+03
  1.28779E+03  1.55820E+03  4.10953E+02  1.28088E+03 -1.30523E+03  1.17248E+03 -6.12895E+02  5.30588E+02
  6.20587E+02 -2.19966E+03  1.00318E+03  1.43318E+02  1.59615E+03 -7.14657E+02  1.20989E+03  1.30964E+03
  4.41521E+02 -2.42449E+01  1.65327E+03 -2.04495E+02 -2.01570E+02 -4.66306E+01  2.01079E+03 -2.61697E+02
  2.87639E+02 -6.36196E+02  2.79997E+03 -4.01197E+02 -3.53249E+02  2.43485E+03  3.69626E+01  2.73179E+03
 -1.00950E+03  3.77413E+02 -1.52734E+03  6.80697E+02 -1.66226E+03 -1.24221E+02 -5.03736E+02 -2.63052E+01
 -2.65647E+01 -6.32312E+02  4.35660E+02 -7.73452E+02 -2.99234E+02  1.24561E+03  2.79552E+02 -5.10917E+02
 -2.21487E+03  1.63162E+03 -6.52542E+02 -1.26212E+03 -1.25844E+02 -1.64923E+03 -1.26856E+02 -1.04984E+03
  6.64281E+02 -1.40428E+03  4.84442E+02  1.20414E+03  1.45416E+03  4.48618E+02  1.02344E+03  1.67559E+03
 -4.96750E+02  9.57740E+01 -1.44137E+03 -3.91434E+02  6.24687E+02 -7.71132E+01  1.46043E+03 -1.00973E+03
  8.11605E+02  4.55227E+02  2.54266E+03 -6.52348E+02  4.75886E+02  2.58562E+02 -3.93668E+02  1.83732E+03
 -2.16741E+03 -2.05830E+01 -4.96411E+02 -8.86033E+02 -1.32771E+03 -1.14756E+03 -6.80265E+02 -1.03209E+03
  1.04542E+03 -2.68547E+02  2.02300E+02  4.20062E+02 -6.54938E+02  1.00780E+03 -7.23641E+01  1.41862E+03
 -1.35705E+03  1.62506E+01 -4.36344E+01 -1.01020E+02  2.49373E+02  4.13180E+02 -4.36193E+02  8.27796E+02
  3.67529E+02  6.60749E+02 -1.90115E+03  4.27479E+02 -6.51874E+02  1.71050E+02 -2.06559E+03 -1.45566E+03
 -4.74038E+01 -1.80337E+03  1.29213E+03 -2.32061E+03  1.84825E+02 -2.65227E+03  2.49259E+03 -1.52946E+03
  2.11129E+03  1.20738E+02  2.23203E+02 -3.95661E+01 -2.91367E+02  1.29729E+03  5.98705E+01  5.87092E+02
 -5.80850E+02  1.95642E+03 -4.30125E+02  6.76075E+02 -5.20181E+02  4.21736E+02 -3.75693E+02  1.22483E+02
 -1.26313E+03 -4.67917E+00 -1.29209E+03  8.73881E+01  4.05261E+02 -7.41158E+02  1.67997E+02 -8.63995E+02
  1.06750E+03 -6.66401E+02  1.23206E+03 -6.66183E+01  1.83233E+03  2.12472E+02 -7.71048E+02  1.48350E+03
 -6.24562E+02  1.15898E+03 -5.13239E+02  3.85105E+02 -9.80928E+02 -1.03340E+02 -3.97679E+02 -9.84674E+02
 -7.66737E+02 -1.71461E+03  8.43088E+02 -1.02904E+03  8.70948E+02 -2.99003E+02  7.21171E+02  5.26029E+02
  3.27839E+02  2.22538E+02  5.05610E+02 -5.42514E+02 -3.80921E+00 -1.28694E+03  4.49754E+02 -3.78972E+02
  8.38630E+02  5.43590E+02  1.76785E+02  3.33102E+02 -3.72888E+02  2.45228E+02 -2.41440E+01  7.93343E+02
 -1.13771E+03 -2.44683E+02 -5.90991E+02  6.15449E+02 -1.90102E+03 -8.53184E+02  6.07794E+02 -1.11652E+03
  2.49627E+02 -5.81174E+01  2.18285E+02 -3.93530E+02  6.36688E+02 -3.27717E+02 -3.92243E+02  1.35286E+03
  7.87093E+02 -6.07563E+02  6.42417E+02  1.55453E+02  5.71538E+01  2.85293E+02 -5.87889E+02  7.94705E+01
 -1.98735E+01 -3.01236E+02 -1.20549E+02 -6.35824E+02 -2.01413E+03  3.25240E+02 -9.09375E+02  1.97869E+02
 -2.91150E+02  2.08875E+02 -4.11577E+02 -1.41249E+03  1.20304E+03 -1.83633E+03  3.53097E+02  8.50628E+02
  6.14980E+02  8.78728E+02 -1.19082E+03 -3.10462E+02  1.75487E+01  3.71918E+02 -1.12083E+02  1.44511E+03
