 $NMID ID='MM_0lb_SNR200_7hz_g55_48.RAW', FMTDAT='(8E13.5)'
 TRAMP=1., VOLUME=1. $END
  3.09920E+05 -2.46585E+02  3.37250E+05  2.51303E+05  8.52876E+04  3.39106E+05 -1.33611E+05  2.52903E+05
 -1.90650E+05  8.66600E+04 -1.13323E+05 -3.32687E+04  3.96744E+02 -4.98106E+04  5.37596E+04 -8.15556E+02
  3.61268E+04  5.05868E+04 -1.80051E+04  7.69166E+04 -5.99693E+04  6.40482E+04 -8.55380E+04  3.42586E+04
 -8.40720E+04 -1.32181E+04 -6.01518E+04 -5.24648E+04 -1.50728E+04 -7.11431E+04  2.81476E+04 -4.78514E+04
  4.19523E+04  3.66208E+03  1.85738E+04  4.86200E+04 -3.60648E+04  4.90945E+04 -6.96881E+04 -7.51965E+02
 -5.45970E+04 -5.89372E+04 -8.64475E+03 -7.99977E+04  3.65981E+04 -5.56579E+04  5.23944E+04 -2.01911E+04
  4.56929E+04  1.38887E+04  3.40194E+04  2.88325E+04  1.71492E+04  3.05909E+04 -5.78031E+03  2.65697E+04
 -2.24855E+04  1.09400E+04 -1.70126E+04 -4.67263E+03  7.38752E+03 -5.63791E+03  2.43591E+04  1.53212E+04
  6.39190E+03  3.72389E+04 -3.58319E+04  3.74682E+04 -6.77825E+04  1.67702E+03 -5.88705E+04 -4.49952E+04
 -1.07251E+04 -6.79535E+04  4.34112E+04 -4.88083E+04  6.32914E+04 -3.01858E+03  3.84547E+04  3.55193E+04
 -4.41537E+03  4.16196E+04 -3.39218E+04  2.05081E+04 -3.29984E+04 -2.63781E+03 -2.07250E+04 -1.21305E+04
 -9.20512E+03 -1.66252E+04 -1.30896E+02 -2.00683E+04  8.78544E+03 -2.32180E+04  1.66736E+04 -1.13301E+04
  8.66791E+03  5.89728E+03 -1.20309E+04  1.32535E+04 -2.48912E+04 -7.97839E+03 -1.00893E+04 -3.81468E+04
  2.83124E+04 -4.93475E+04  5.55704E+04 -2.03035E+04  5.09948E+04  2.17953E+04  1.75489E+04  4.92075E+04
 -1.73607E+04  3.86904E+04 -2.92284E+04  3.68434E+03 -1.30017E+04 -2.82137E+04  2.02663E+04 -3.88622E+04
  4.72373E+04 -1.11349E+04  4.45845E+04  2.49163E+04  2.36655E+04  5.20410E+04 -7.90693E+03  6.01140E+04
 -3.77622E+04  4.01658E+04 -5.06955E+04  1.13432E+04 -5.14725E+04 -2.06589E+04 -2.80174E+04 -4.48512E+04
  7.17348E+03 -4.57098E+04  3.50591E+04 -1.67677E+04  3.50726E+04  9.17082E+03  8.24558E+03  2.03148E+04
 -1.51367E+04  9.17663E+03 -1.17295E+04 -9.87517E+03  4.52201E+03 -1.13465E+04  1.91035E+04  5.76563E+03
  1.46723E+04  2.41622E+04 -4.73703E+03  2.69715E+04 -2.42970E+04  1.57703E+04 -3.24909E+04 -1.97956E+03
 -2.59554E+04 -1.75733E+04 -1.19789E+04 -2.54345E+04  4.42606E+03 -2.85621E+04  2.13166E+04 -2.66208E+04
  3.34305E+04 -1.39882E+04  4.10476E+04  6.63729E+03  2.72630E+04  2.62493E+04  2.29479E+03  4.33449E+04
 -1.99043E+04  3.70568E+04 -3.23003E+04  1.32319E+04 -2.35056E+04 -1.15424E+04 -4.32530E+03 -1.19602E+04
 -4.90545E+02  8.37777E+02 -9.11228E+03  7.84969E+03 -2.38448E+04  3.46236E+03 -2.18324E+04 -1.09976E+04
 -1.31063E+04 -2.62901E+04  6.14690E+03 -3.09720E+04  1.93761E+04 -1.89170E+04  2.56814E+04 -2.85995E+03
  1.60334E+04  1.82941E+04 -1.51348E+03  2.54436E+04 -1.80791E+04  1.57229E+04 -2.43855E+04 -4.80153E+03
 -2.06078E+04 -2.40496E+04 -1.41226E+03 -3.10667E+04  1.62386E+04 -2.67081E+04  2.54327E+04 -1.27127E+04
  2.40502E+04  1.13574E+02  1.65856E+04  6.40898E+03  1.12918E+04  1.38177E+03  1.37367E+04 -1.95275E+03
  2.46637E+04  3.02130E+03  3.01754E+04  1.79923E+04  1.95249E+04  4.13769E+04 -1.83967E+03  4.95153E+04
 -2.85348E+04  4.26980E+04 -4.67097E+04  2.09490E+04 -5.03172E+04 -3.95603E+03 -4.18750E+04 -3.15095E+04
 -1.56182E+04 -4.25281E+04  1.66334E+04 -3.61564E+04  3.02115E+04 -1.79194E+04  2.72933E+04  1.00770E+04
  8.75586E+03  2.05225E+04 -1.24205E+04  1.81566E+04 -2.37841E+04  3.26489E+03 -1.76227E+04 -1.41560E+04
  9.24263E+02 -2.23238E+04  1.33623E+04 -1.69203E+04  1.43236E+04  8.61338E+02  4.31936E+03  1.06694E+04
 -9.91202E+03  6.48760E+03 -1.01241E+04 -7.85764E+03 -1.81191E+03 -2.00642E+04  1.36336E+04 -2.23180E+04
  2.71527E+04 -1.44040E+04  2.97657E+04  4.56291E+03  2.72577E+04  2.13299E+04  1.19900E+04  3.38561E+04
 -7.71952E+03  3.74382E+04 -2.19639E+04  2.22612E+04 -2.82082E+04  5.06493E+03 -1.80491E+04 -7.08063E+03
 -7.13583E+03 -8.53159E+03 -6.28576E+01  1.44924E+03 -3.65741E+03  3.81262E+03 -9.30737E+03  7.00988E+03
 -1.64903E+04 -3.36111E+03 -1.70434E+04 -1.37238E+04 -6.64448E+03 -2.26241E+04  7.66596E+03 -1.90301E+04
  1.43874E+04 -5.80418E+03  1.26824E+04  5.63478E+03 -1.26702E+03  9.39937E+03 -9.74452E+03  5.93464E+02
 -1.01361E+04 -1.20446E+04  5.29232E+02 -1.85939E+04  1.15865E+04 -2.13584E+04  2.32845E+04 -9.91450E+03
  2.80088E+04  3.02041E+03  2.11771E+04  1.70128E+04  4.17771E+03  2.17266E+04 -1.07120E+04  1.82085E+04
 -1.43594E+04  6.16183E+03 -5.23094E+03 -5.63299E+03  2.60461E+03 -5.48022E+03  8.49220E+03 -2.11352E+03
  1.03248E+04  8.23518E+03  2.74092E+03  1.45415E+04 -1.16345E+04  1.52506E+04 -1.87652E+04  3.95837E+03
 -1.15980E+04 -1.04982E+04 -1.27761E+03 -1.59162E+04  1.13969E+04 -9.42954E+03  1.09231E+04  5.66673E+03
  1.90629E+03  1.13150E+04 -9.82386E+03  1.39405E+04 -1.87765E+04  4.27336E+03 -1.67080E+04 -4.93508E+03
 -8.96581E+03 -1.83600E+04  6.11093E+03 -2.06405E+04  1.83801E+04 -1.38175E+04  2.05407E+04  3.59111E+03
  1.08627E+04  1.54035E+04 -2.81656E+03  1.84385E+04 -1.23469E+04  8.40842E+03 -1.57513E+04 -1.59364E+03
 -1.40957E+04 -1.19107E+04 -3.52934E+03 -1.55198E+04  6.73504E+03 -1.45002E+04  8.61575E+03 -4.38759E+03
  5.40421E+03  3.04496E+03 -1.30896E+03  5.81685E+02  1.42441E+03 -5.36419E+03  3.68739E+03 -8.71815E+03
  1.49461E+04 -4.69321E+03  1.85928E+04  8.48270E+02  1.87230E+04  1.42434E+04  1.07875E+04  2.71465E+04
 -5.55185E+03  2.85678E+04 -2.38487E+04  2.38452E+04 -3.20522E+04  4.34900E+03 -2.40948E+04 -1.34180E+04
 -1.22312E+04 -2.10133E+04 -7.11575E+00 -1.78681E+04  6.56374E+03 -1.02118E+04  7.21100E+03 -6.62539E+03
  4.85052E+03 -4.19004E+03  5.16269E+03 -4.73590E+03  7.08359E+03 -3.09859E+03  1.22723E+04 -8.29861E+02
  1.17319E+04  3.59728E+03  7.18010E+03  1.20640E+04 -2.17229E+03  1.54688E+04 -1.43406E+04  1.06664E+04
 -1.64467E+04 -1.90531E+03 -1.20054E+04 -1.23451E+04 -2.28062E+03 -2.02399E+04  1.14907E+04 -2.13879E+04
  2.20072E+04 -1.15271E+04  2.47793E+04  4.52649E+03  1.67032E+04  1.83543E+04  1.85537E+03  2.14185E+04
 -8.91495E+03  1.90177E+04 -1.40223E+04  7.15443E+03 -9.35437E+03 -7.28397E+02 -1.85763E+03 -3.27542E+03
 -5.59719E+02 -4.54043E+02 -3.80700E+03  2.58208E+03 -8.59381E+03  1.80865E+03 -1.19027E+04 -1.09651E+03
 -6.85104E+03 -1.17935E+04 -1.54258E+03 -2.03076E+04  1.00843E+04 -1.79434E+04  2.05182E+04 -3.24408E+03
  1.90689E+04  8.33079E+03  9.13409E+03  1.74383E+04 -4.88300E+03  1.83455E+04 -1.45426E+04  1.15768E+04
 -1.89181E+04 -2.75388E+02 -1.41410E+04 -1.35771E+04 -1.10801E+03 -1.60137E+04  9.73608E+03 -1.17359E+04
  1.25275E+04 -4.20506E+03  8.00808E+03  3.56058E+03  4.11376E+03  5.57576E+03  2.14129E+03  2.18674E+03
  1.66366E+03  8.71767E+02  5.17569E+03  1.52074E+03  6.72843E+03  7.59391E+03  4.61873E+03  1.12906E+04
 -3.04836E+03  1.60647E+04 -1.41921E+04  1.53905E+04 -2.00345E+04  4.70331E+03 -2.19215E+04 -9.22885E+03
 -9.44310E+03 -2.09391E+04  4.34946E+03 -2.28703E+04  1.22135E+04 -1.53564E+04  1.70351E+04 -4.61228E+03
  1.24938E+04  9.85105E+03  2.25377E+03  1.30784E+04 -4.50027E+03  6.79256E+03 -8.57727E+03 -2.30214E+03
 -3.99564E+03 -9.26105E+03  4.82316E+03 -8.70836E+03  7.65161E+03 -2.53458E+03  8.59439E+03  2.90184E+03
  2.91712E+03  4.25980E+03  2.56882E+03  4.12816E+03 -6.09478E+02  3.91527E+03  1.35191E+03  5.98301E+01
  4.55188E+03 -1.32549E+03  7.38684E+03  3.10841E+03  3.17981E+03  9.64369E+03  2.63391E+02  1.46077E+04
 -1.15961E+04  9.54006E+03 -1.30155E+04  1.05211E+03 -1.01192E+04 -4.49339E+03 -4.74135E+03 -7.98599E+03
  2.06198E+03 -7.99521E+03  6.20743E+03 -3.53260E+03  5.73558E+03  4.06967E+03 -5.12326E+02  6.90610E+03
 -9.01626E+03  4.66819E+03 -1.07275E+04 -5.73381E+03 -5.96789E+03 -1.01652E+04  2.10424E+03 -1.26894E+04
  5.26109E+03 -7.49029E+03  1.14712E+04  5.83089E+01  7.40517E+03  4.92215E+03  6.14145E+02  6.89574E+03
 -4.21045E+03  2.08963E+03 -5.79638E+03 -1.99656E+03  1.47653E+03 -9.26126E+03  8.48738E+03 -7.96284E+03
  1.36940E+04  8.82656E+02  1.17061E+04  9.86203E+03  4.62523E+03  1.48567E+04 -7.82108E+03  1.34509E+04
 -1.27073E+04  7.27469E+03 -1.23746E+04 -7.87277E+02 -6.21170E+03 -8.63585E+03  4.15721E+03 -9.57965E+03
  8.47078E+03 -2.89851E+03  6.18614E+03  4.12344E+03  3.15505E+03  6.81945E+03 -1.06546E+03  7.60411E+03
 -2.94008E+03  4.73606E+03 -4.77581E+03  1.23273E+03 -1.01156E+03  2.63657E+03 -1.42299E+01  3.40784E+03
 -3.65782E+03  6.14954E+03 -7.92400E+03  4.59474E+03 -1.53389E+04 -8.16424E+02 -1.34302E+04 -1.05234E+04
 -8.43377E+03 -2.08427E+04  5.30434E+03 -2.06282E+04  1.33449E+04 -1.69626E+04  2.07854E+04 -6.60920E+03
  2.13021E+04  5.05802E+03  1.19109E+04  1.33285E+04 -2.29770E+02  1.34320E+04 -6.29632E+03  1.16504E+04
 -9.18422E+03  1.32767E+03 -4.91326E+03 -2.65863E+03 -3.61208E+03 -1.57817E+03  4.09243E+01  1.12322E+03
 -2.49034E+03  1.50704E+02 -1.53647E+03  5.74014E+02 -1.71090E+03 -1.63025E+03  2.24159E+03 -5.67212E+03
  4.62657E+03 -5.03026E+03  1.01994E+04  6.52383E+02  9.85466E+03  8.34746E+03  1.30211E+03  1.47756E+04
 -8.20642E+03  1.64236E+04 -1.52523E+04  1.00139E+04 -2.00374E+04  1.19599E+02 -1.54775E+04 -1.13904E+04
 -7.10499E+03 -1.67368E+04  4.80742E+03 -1.50296E+04  1.06166E+04 -8.97300E+03  1.11541E+04  2.17472E+03
  4.12875E+03  4.72292E+03  3.84640E+01  4.97729E+03 -2.81447E+03  4.30657E+02  4.18613E+02 -3.95519E+03
  6.18364E+03 -3.27318E+03  6.69565E+03  2.04783E+03  3.23975E+03  5.43030E+03 -2.19668E+03  9.76895E+03
 -7.15606E+03  7.77173E+03 -9.84127E+03  1.98510E+03 -1.16145E+04 -9.28287E+03 -1.40440E+03 -1.35541E+04
  5.64188E+03 -1.13647E+04  1.35034E+04 -2.58349E+03  1.22164E+04  3.23645E+03  8.22347E+03  1.17472E+04
  1.48617E+03  1.22531E+04 -4.04235E+03  9.28888E+03 -8.51971E+03  3.71239E+03 -5.46422E+03  5.51789E+02
 -2.28063E+03  2.56780E+03 -3.79253E+03  4.11134E+03 -6.46571E+03  1.24290E+02 -9.47793E+03 -1.85566E+03
 -6.27406E+03 -4.82534E+03 -9.71175E+02 -1.01705E+04  3.93157E+03 -1.11403E+04  8.16789E+03 -6.38793E+03
  1.11958E+04  3.58403E+02  7.64987E+03  8.20580E+03  2.87818E+03  1.12908E+04 -9.13008E+03  7.12906E+03
