 $NMID ID='MM_0lb_SNR200_8hz_g45_29.RAW', FMTDAT='(8E13.5)'
 TRAMP=1., VOLUME=1. $END
  3.08036E+05 -3.04325E+02  3.38710E+05  2.51112E+05  8.31347E+04  3.37738E+05 -1.31504E+05  2.51732E+05
 -1.89319E+05  8.51443E+04 -1.11089E+05 -3.16898E+04  2.86465E+03 -5.05863E+04  5.09468E+04 -2.04350E+03
  3.41399E+04  5.30663E+04 -1.79183E+04  7.49061E+04 -6.42064E+04  6.35390E+04 -8.48010E+04  3.29948E+04
 -8.33028E+04 -1.33425E+04 -5.70587E+04 -5.27571E+04 -1.54780E+04 -7.18618E+04  2.88096E+04 -4.81914E+04
  4.13848E+04  3.78551E+03  1.82255E+04  4.82432E+04 -3.65386E+04  4.82898E+04 -6.75798E+04  1.05943E+02
 -5.46339E+04 -5.82399E+04 -7.45751E+03 -7.95074E+04  3.35391E+04 -5.70755E+04  4.94685E+04 -1.88362E+04
  4.43547E+04  1.24249E+04  3.40800E+04  2.66700E+04  1.61988E+04  3.13457E+04 -4.38104E+03  2.79134E+04
 -2.33355E+04  1.08364E+04 -1.85712E+04 -3.59181E+03  7.02561E+03 -6.78578E+03  2.56290E+04  1.50506E+04
  7.34182E+03  3.93140E+04 -3.39062E+04  3.76940E+04 -6.63782E+04  3.12499E+03 -5.88928E+04 -4.59427E+04
 -1.16433E+04 -6.64206E+04  4.12243E+04 -4.70128E+04  6.22447E+04 -2.79097E+03  3.57154E+04  3.42283E+04
 -5.74173E+03  4.04464E+04 -3.28532E+04  2.06980E+04 -3.28297E+04 -4.07613E+03 -1.92381E+04 -1.04607E+04
 -9.53391E+03 -1.58004E+04 -4.95178E+02 -2.01824E+04  9.01974E+03 -2.39657E+04  1.46066E+04 -1.20482E+04
  8.85561E+03  6.23359E+03 -1.11556E+04  1.25108E+04 -2.41675E+04 -7.54542E+03 -8.47024E+03 -3.83146E+04
  2.36462E+04 -4.72511E+04  5.27247E+04 -2.19840E+04  4.81017E+04  2.00243E+04  1.69369E+04  4.73722E+04
 -1.68970E+04  3.50171E+04 -2.65375E+04  1.98317E+03 -1.26723E+04 -2.85792E+04  2.31790E+04 -3.70482E+04
  4.40528E+04 -1.34196E+04  4.05245E+04  2.50210E+04  2.13210E+04  5.08460E+04 -8.92473E+03  5.64589E+04
 -3.59784E+04  3.96541E+04 -4.98662E+04  1.11732E+04 -4.79977E+04 -1.97740E+04 -2.61460E+04 -4.53903E+04
  7.82369E+03 -4.22617E+04  3.32266E+04 -1.72477E+04  3.20346E+04  1.21734E+04  6.69262E+03  1.95091E+04
 -1.16988E+04  7.77681E+03 -1.19008E+04 -8.18501E+03  7.04160E+03 -1.02628E+04  1.86064E+04  5.11348E+03
  1.62149E+04  2.39121E+04 -5.87004E+03  2.63961E+04 -2.17783E+04  1.43553E+04 -3.17351E+04 -2.47925E+03
 -2.51250E+04 -1.85327E+04 -1.17281E+04 -2.52343E+04  3.73299E+03 -2.62988E+04  2.03696E+04 -2.35799E+04
  3.26367E+04 -1.42042E+04  3.76083E+04  5.57032E+03  2.82617E+04  2.40861E+04  4.43108E+03  4.12526E+04
 -1.98583E+04  3.27548E+04 -2.90869E+04  1.19059E+04 -2.12365E+04 -1.06887E+04 -4.67027E+03 -1.41042E+04
  6.14146E+02 -2.61347E+03 -9.95155E+03  7.97352E+03 -2.01316E+04  3.79542E+03 -2.07692E+04 -1.02064E+04
 -1.24686E+04 -2.66158E+04  7.45402E+03 -2.95773E+04  1.93513E+04 -1.96919E+04  2.40346E+04 -2.91903E+03
  1.52293E+04  1.61657E+04 -1.77582E+03  2.22688E+04 -1.76533E+04  1.33823E+04 -2.36576E+04 -3.60570E+03
 -1.95291E+04 -2.22628E+04 -7.39911E+02 -2.90774E+04  1.25031E+04 -2.30678E+04  2.51898E+04 -1.35441E+04
  2.25349E+04 -7.53455E+02  1.78745E+04  5.33923E+03  8.94627E+03  1.90516E+03  1.23249E+04 -2.62728E+03
  2.17289E+04  3.49224E+03  2.60334E+04  1.82576E+04  1.65809E+04  3.78597E+04 -4.07440E+03  4.54930E+04
 -2.50295E+04  3.86059E+04 -4.26039E+04  2.05828E+04 -4.66769E+04 -5.22308E+03 -3.51539E+04 -2.50564E+04
 -1.49817E+04 -3.79453E+04  1.21657E+04 -3.28448E+04  2.93426E+04 -1.66951E+04  2.44118E+04  8.12898E+03
  6.84140E+03  1.89758E+04 -1.21172E+04  1.75088E+04 -1.93929E+04  2.24400E+03 -1.62686E+04 -1.26718E+04
 -6.95371E+02 -2.06835E+04  1.16334E+04 -1.46297E+04  1.32362E+04  4.32506E+02  5.20452E+03  9.97221E+03
 -1.04423E+04  3.31857E+03 -9.15027E+03 -6.46501E+03 -3.33836E+03 -1.84037E+04  1.09117E+04 -2.13648E+04
  2.33781E+04 -1.10829E+04  2.75323E+04  2.83821E+03  2.28814E+04  1.82202E+04  1.04942E+04  3.09831E+04
 -6.12591E+03  3.22370E+04 -2.20276E+04  2.07914E+04 -2.50732E+04  4.20775E+03 -1.69285E+04 -4.91269E+03
 -7.49043E+03 -8.71603E+03 -7.17972E+02  2.99783E+02 -2.50422E+03  3.74081E+03 -7.94247E+03  5.28491E+03
 -1.76958E+04 -1.66970E+03 -1.58728E+04 -1.02961E+04 -5.16301E+03 -2.13508E+04  6.68043E+03 -1.62747E+04
  1.25134E+04 -7.11484E+03  9.47633E+03  4.07103E+03  2.52818E+02  6.89113E+03 -8.56544E+03 -1.15798E+03
 -6.52566E+03 -9.96194E+03 -1.31977E+03 -1.64312E+04  9.20938E+03 -1.82458E+04  2.18522E+04 -7.89565E+03
  2.65118E+04  3.70521E+03  1.85694E+04  1.63893E+04  2.02801E+03  2.03672E+04 -1.14624E+04  1.66155E+04
 -1.22441E+04  4.28560E+03 -7.57452E+03 -3.97893E+03 -2.04786E+02 -4.45639E+03  8.64793E+03 -1.28810E+03
  7.85047E+03  6.09174E+03  3.86727E+01  1.31460E+04 -9.06048E+03  1.19834E+04 -1.61001E+04  4.22542E+03
 -1.27524E+04 -7.87799E+03  1.23556E+02 -1.46334E+04  8.70245E+03 -7.76808E+03  1.04251E+04  4.30065E+03
  2.37568E+03  1.16869E+04 -7.47211E+03  1.13323E+04 -1.54204E+04  6.23065E+03 -1.55502E+04 -5.00393E+03
 -7.24364E+03 -1.65192E+04  4.24037E+03 -1.89692E+04  1.66301E+04 -1.19426E+04  1.71809E+04  2.20490E+03
  1.04980E+04  1.40739E+04 -3.10774E+03  1.65746E+04 -1.25297E+04  9.38998E+03 -1.27650E+04 -1.97450E+03
 -1.07372E+04 -1.08577E+04 -1.87976E+03 -1.21507E+04  5.62578E+03 -9.82087E+03  7.32753E+03 -4.12774E+03
  5.02311E+03  2.34627E+03 -2.51769E+02  2.10963E+03  6.00611E+02 -4.96946E+03  1.79679E+03 -8.47299E+03
  1.31270E+04 -5.29888E+03  1.70692E+04  3.20124E+03  1.73354E+04  1.09694E+04  9.65063E+03  2.14136E+04
 -4.85831E+03  2.61076E+04 -2.11146E+04  1.87910E+04 -2.84444E+04  4.95053E+03 -2.21824E+04 -1.10673E+04
 -1.06778E+04 -1.69393E+04 -1.56844E+03 -1.58848E+04  5.51877E+03 -9.29473E+03  5.36387E+03 -4.34943E+03
  3.81546E+03 -3.35160E+03  4.38345E+03 -3.15587E+03  5.35361E+03 -4.92233E+03  9.15330E+03 -1.67950E+03
  1.13178E+04  3.72444E+03  7.37350E+03  7.37398E+03 -2.84405E+03  1.37774E+04 -1.23680E+04  7.91847E+03
 -1.62385E+04 -5.42876E+02 -8.47349E+03 -1.07662E+04 -6.49612E+02 -1.97210E+04  9.46592E+03 -1.78936E+04
  1.67587E+04 -8.52403E+03  2.03297E+04  2.76819E+03  1.54438E+04  1.50400E+04  2.05293E+03  1.89580E+04
 -7.92569E+03  1.65040E+04 -1.14763E+04  6.93996E+03 -7.47943E+03 -1.59048E+03 -2.90355E+03 -1.86835E+03
 -9.37275E+02  5.11055E+02 -3.16494E+03  2.82767E+03 -4.39459E+03  3.17771E+03 -1.12612E+04 -2.29197E+03
 -8.65827E+03 -1.03058E+04 -1.10302E+03 -1.70072E+04  1.04837E+04 -1.56548E+04  1.56871E+04 -5.10488E+03
  1.56744E+04  7.62689E+03  9.03095E+03  1.34610E+04 -3.45393E+03  1.70703E+04 -1.16453E+04  1.06384E+04
 -1.41261E+04  1.69414E+03 -1.13277E+04 -1.15981E+04 -1.30125E+03 -1.48053E+04  7.46885E+03 -8.06709E+03
  1.04133E+04 -2.95724E+03  7.15507E+03  2.63143E+03  3.21487E+03  4.21588E+03  1.54211E+03  1.61833E+03
  5.50259E+03  1.41802E+03  3.80711E+03  9.28072E+02  5.16509E+03  6.58510E+03  5.28398E+03  8.30413E+03
 -3.93119E+03  1.12547E+04 -9.68547E+03  1.18965E+04 -1.62993E+04  2.25658E+03 -1.68668E+04 -6.34136E+03
 -8.62883E+03 -1.76450E+04  3.64526E+03 -1.92572E+04  1.04442E+04 -1.23190E+04  1.33791E+04 -3.47891E+03
  1.09142E+04  6.17675E+03  1.98292E+03  8.87195E+03 -5.21481E+03  5.69823E+03 -6.21732E+03 -5.27554E+02
 -2.70030E+03 -5.64649E+03  2.79916E+03 -9.10921E+03  7.60004E+03 -4.51851E+03  8.41625E+03  2.89951E+02
  4.17023E+03  4.50725E+03 -6.04570E+02  3.20865E+03 -6.60981E+02  3.45180E+03  2.15371E+03 -6.46850E+02
  3.09278E+03 -6.00032E+02  6.67412E+03  8.00087E+02  4.65388E+03  9.69201E+03 -4.13117E+03  1.18433E+04
 -8.79379E+03  7.65246E+03 -1.01681E+04  3.58927E+03 -9.33083E+03 -2.80963E+03 -3.63110E+03 -7.50892E+03
  7.49829E+02 -6.91654E+03  5.23801E+03 -2.59627E+03  5.30244E+03  2.92826E+03 -7.66047E+02  5.50414E+03
 -8.98909E+03  3.58471E+03 -8.41941E+03 -2.39212E+03 -3.02317E+03 -1.03678E+04 -6.43758E+01 -9.65942E+03
  7.18394E+03 -6.39990E+03  6.15819E+03  6.00656E+02  5.65883E+03  3.31495E+03  1.82515E+03  5.10759E+03
 -4.65383E+03  1.25852E+03 -5.42815E+03 -3.22914E+03  2.62092E+03 -7.61239E+03  9.03270E+03 -5.77138E+03
  1.15040E+04  1.52516E+03  1.12998E+04  7.54145E+03  2.38525E+03  1.07214E+04 -4.51717E+03  1.04652E+04
 -1.00804E+04  4.36484E+03 -9.14780E+03 -1.45774E+03 -5.17991E+03 -6.12864E+03  3.46815E+03 -7.01227E+03
  5.12729E+03 -2.55736E+03  7.07049E+03  4.12098E+03  2.59361E+03  6.13766E+03  5.27575E+02  4.83355E+03
 -3.51921E+03  3.36280E+03 -3.85570E+03  3.43602E+02 -7.30930E+02  2.61125E+03 -1.45149E+03  3.18949E+03
 -3.73655E+03  3.96507E+03 -7.59092E+03  4.96597E+03 -1.13323E+04 -7.03866E+02 -1.19236E+04 -7.62898E+03
 -7.00100E+03 -1.54544E+04  4.12793E+03 -1.76631E+04  1.18483E+04 -1.38463E+04  1.62663E+04 -4.15850E+03
  1.42635E+04  3.44985E+03  9.08685E+03  1.11347E+04  1.38970E+03  1.32050E+04 -5.76903E+03  9.80149E+03
 -5.94211E+03  2.39731E+03 -3.84111E+03 -1.78657E+03 -1.50671E+03  3.93931E+02 -1.09966E+03  1.32234E+03
 -2.58991E+03  6.99160E+02 -2.23044E+03  9.50998E+02 -1.91257E+03 -3.14828E+03  1.45444E+02 -6.00692E+03
  5.94846E+03 -3.08681E+03  7.27411E+03 -1.23113E+03  9.00186E+03  5.62065E+03  2.13779E+03  1.17360E+04
 -5.38995E+03  1.45580E+04 -1.23034E+04  7.71668E+03 -1.45199E+04 -3.28970E+03 -1.06727E+04 -9.29371E+03
 -4.10147E+03 -1.26167E+04  2.88310E+03 -1.20499E+04  7.49156E+03 -4.39689E+03  9.10823E+03  4.26241E+02
  3.99469E+03  4.16618E+03  1.68719E+03  5.39490E+03 -3.22836E+03 -2.31170E+03 -1.01173E+03 -3.54459E+03
  4.81531E+03 -2.01879E+03  7.69458E+03  3.75391E+03  3.52437E+03  4.97171E+03  8.48353E+02  7.20686E+03
 -6.21596E+03  3.61925E+03 -7.61019E+03 -1.30383E+03 -7.64473E+03 -6.77976E+03 -2.36036E+03 -1.00837E+04
  5.75234E+03 -8.00813E+03  1.11766E+04 -2.38928E+03  9.08555E+03  2.61551E+03  4.63824E+03  7.89032E+03
  1.43081E+03  8.20862E+03 -4.77835E+03  7.51784E+03 -4.42508E+03  3.60331E+03 -4.79562E+03  1.15015E+03
 -2.74606E+03  7.66396E+02 -6.46161E+02  2.11084E+03 -3.67427E+03  2.25554E+03 -7.82064E+03 -1.96075E+03
 -6.50718E+03 -2.37307E+03  1.11319E+02 -7.09349E+03  3.74083E+03 -7.45014E+03  6.74308E+03 -3.74392E+03
  9.35697E+03  1.08553E+03  4.49450E+03  6.53903E+03 -3.05980E+02  8.73375E+03 -7.12436E+03  6.71564E+03
