 $NMID ID='MM_0lb_SNR200_17hz_g45_81.RAW', FMTDAT='(8E13.5)'
 TRAMP=1., VOLUME=1. $END
  3.09898E+05 -5.39022E+02  3.36975E+05  2.51277E+05  8.50882E+04  3.38526E+05 -1.31765E+05  2.50827E+05
 -1.88486E+05  8.30549E+04 -1.11379E+05 -3.27142E+04  1.83463E+03 -5.00382E+04  5.32956E+04  3.09674E+01
  3.48202E+04  5.39229E+04 -1.73806E+04  7.55101E+04 -6.04787E+04  6.35901E+04 -8.32720E+04  3.09644E+04
 -7.91549E+04 -1.07264E+04 -5.63473E+04 -5.01014E+04 -1.50709E+04 -6.97423E+04  2.69370E+04 -4.48623E+04
  3.88461E+04  3.80435E+03  1.58963E+04  4.76160E+04 -3.34502E+04  4.69639E+04 -6.56287E+04 -7.96240E+02
 -5.24304E+04 -5.67175E+04 -6.69107E+03 -7.59798E+04  3.37657E+04 -5.35795E+04  4.69242E+04 -1.65487E+04
  4.15627E+04  1.17108E+04  3.09419E+04  2.46282E+04  1.71662E+04  2.80333E+04 -4.88204E+03  2.62485E+04
 -2.26827E+04  1.37794E+04 -1.91706E+04 -3.24772E+03  5.13225E+03 -8.00581E+03  2.08643E+04  1.21652E+04
  8.07455E+03  3.38501E+04 -3.09412E+04  3.50079E+04 -6.19990E+04  2.00382E+03 -5.53777E+04 -4.19518E+04
 -1.25951E+04 -6.26409E+04  3.82743E+04 -4.37504E+04  5.59015E+04 -2.31678E+03  3.16580E+04  2.99958E+04
 -6.60975E+03  3.37171E+04 -2.83721E+04  1.34989E+04 -2.83247E+04 -4.31398E+03 -1.68559E+04 -1.12175E+04
 -6.98232E+03 -1.18886E+04 -1.32677E+03 -1.61956E+04  6.42144E+03 -2.28034E+04  1.62755E+04 -1.44348E+04
  1.18649E+04  4.19450E+03 -6.05841E+03  1.34104E+04 -2.02627E+04 -2.78534E+03 -8.58646E+03 -3.05825E+04
  2.08284E+04 -4.08332E+04  4.57697E+04 -1.76167E+04  4.27886E+04  1.83102E+04  1.53774E+04  4.19949E+04
 -1.53857E+04  3.19074E+04 -2.37371E+04  6.33345E+02 -8.90396E+03 -2.55723E+04  1.98181E+04 -3.12572E+04
  3.94429E+04 -8.52051E+03  3.21092E+04  2.28879E+04  1.65262E+04  4.29278E+04 -7.23170E+03  4.71212E+04
 -2.90296E+04  3.04924E+04 -3.93958E+04  8.30638E+03 -3.98477E+04 -1.52464E+04 -2.20348E+04 -3.61638E+04
  7.14645E+03 -3.54354E+04  3.06907E+04 -1.42860E+04  2.76829E+04  1.07479E+04  2.91091E+03  1.85313E+04
 -1.27806E+04  6.84981E+03 -9.75485E+03 -6.65667E+03  5.85415E+03 -1.05708E+04  1.61025E+04  5.93468E+03
  1.35215E+04  2.14538E+04 -6.08567E+03  2.29412E+04 -2.09719E+04  9.75246E+03 -2.59504E+04 -5.28495E+03
 -1.83314E+04 -1.76870E+04 -6.22180E+03 -1.82470E+04  3.65421E+03 -1.57320E+04  1.24783E+04 -1.63147E+04
  2.21527E+04 -1.18288E+04  2.97713E+04  1.34628E+03  2.22425E+04  1.87308E+04  4.47896E+03  3.36570E+04
 -1.64002E+04  2.86711E+04 -2.58911E+04  1.05413E+04 -1.98869E+04 -9.71617E+03 -4.31089E+03 -1.38355E+04
  2.71824E+03 -5.23529E+03 -3.87014E+03  5.32334E+03 -1.42623E+04  5.56363E+03 -1.47312E+04 -5.42682E+03
 -9.23846E+03 -1.57006E+04  4.64376E+03 -2.12888E+04  1.27673E+04 -1.56775E+04  1.44652E+04 -8.22552E+02
  9.95873E+03  1.03798E+04 -1.15425E+03  1.67107E+04 -1.10686E+04  9.55895E+03 -1.46180E+04 -2.50249E+03
 -1.18464E+04 -1.57478E+04 -2.08543E+03 -2.08057E+04  8.83754E+03 -1.61508E+04  1.70037E+04 -8.93407E+03
  1.66146E+04 -4.59929E+02  1.18031E+04  3.85532E+03  5.79138E+03  4.91353E+02  7.81808E+03 -2.33205E+03
  1.40369E+04  2.52604E+03  1.58642E+04  1.40509E+04  9.00988E+03  2.53687E+04 -2.90170E+03  2.90137E+04
 -1.69861E+04  2.28982E+04 -2.71741E+04  1.02820E+04 -2.76195E+04 -1.53996E+03 -2.35318E+04 -1.54941E+04
 -9.69318E+03 -2.31426E+04  7.21357E+03 -1.97875E+04  1.69092E+04 -1.10071E+04  1.70616E+04  3.49588E+03
  6.94405E+03  1.19634E+04 -7.53944E+03  9.60513E+03 -1.38560E+04  2.21549E+03 -1.23496E+04 -8.49786E+03
  8.56255E+02 -1.31464E+04  6.11681E+03 -9.37904E+03  9.54402E+03 -2.07061E+03  1.05009E+03  6.00157E+03
 -6.10076E+03  1.65503E+03 -5.13980E+03 -5.00235E+03  8.17313E+02 -1.03194E+04  8.69461E+03 -1.05862E+04
  1.31206E+04 -5.14498E+03  1.39526E+04  2.28858E+03  1.14180E+04  1.11812E+04  5.25822E+03  1.56423E+04
 -1.73063E+03  1.77746E+04 -9.61583E+03  1.09878E+04 -1.25911E+04  2.40354E+03 -9.94831E+03 -2.37647E+03
 -5.90381E+03 -3.79535E+03 -1.55212E+03  2.51393E+03 -1.19315E+03  6.79557E+02 -2.54152E+03  4.25535E+03
 -8.18406E+03  3.11214E+02 -8.66750E+03 -6.89008E+03 -3.12102E+03 -1.22634E+04  4.39990E+03 -8.09390E+03
  7.37645E+03 -3.96477E+03  5.77023E+03  2.72463E+03  1.14985E+03  3.52110E+03 -3.58902E+03 -1.09526E+03
 -4.57670E+03 -5.28466E+03 -1.30759E+03 -8.89994E+03  5.39269E+03 -9.43241E+03  1.15000E+04 -4.87811E+03
  1.20225E+04  1.02003E+03  9.37564E+03  6.82574E+03  1.74419E+03  8.83265E+03 -4.78304E+03  9.32814E+03
 -7.20926E+03  1.92994E+03 -3.27342E+03 -1.24397E+03  1.12643E+03 -2.33137E+03  4.69888E+03 -2.18118E+02
  4.90300E+03  3.25201E+03  1.37430E+03  6.10776E+03 -5.88246E+03  7.49955E+03 -8.73936E+03  2.34562E+03
 -4.50576E+03 -3.86101E+03  1.64423E+01 -7.70641E+03  3.88443E+03 -5.43614E+03  4.91133E+03  8.66089E+02
  1.19843E+03  3.04976E+03 -4.96013E+03  5.45884E+03 -6.44982E+03  2.46920E+03 -5.73206E+03 -1.35262E+03
 -2.38001E+03 -6.36188E+03  1.42915E+03 -7.53015E+03  6.00424E+03 -6.39251E+03  7.42520E+03  1.38761E+03
  5.71220E+03  6.21884E+03  2.13180E+02  8.67655E+03 -6.02485E+03  5.54824E+03 -5.42874E+03  3.12831E+02
 -7.34045E+03 -6.18765E+03 -1.68405E+03 -4.38709E+03  2.91082E+03 -4.95096E+03  2.94346E+03 -2.79017E+03
  2.00493E+03  5.73869E+00  7.32059E+02  8.80840E+02 -4.02741E+02 -7.37123E+02  6.41791E+01 -2.12519E+03
  4.28819E+03 -4.86496E+02  5.89602E+03  9.93502E+02  5.34550E+03  2.84855E+03  5.24759E+03  9.12507E+03
  7.22033E+00  1.08455E+04 -9.05896E+03  7.78901E+03 -1.17273E+04  1.25950E+03 -8.04319E+03 -3.46176E+03
 -4.78528E+03 -7.80149E+03 -1.20414E+03 -5.96018E+03  2.16769E+03 -3.23634E+03  2.06368E+03 -2.21778E+03
  7.68759E+02 -2.06218E+03  1.74395E+03 -2.36607E+03  4.52954E+03 -2.25558E+03  4.23513E+03  9.02716E+02
  3.97216E+03  2.50843E+03  1.92720E+03  3.85350E+03 -1.72044E+03  3.37163E+03 -5.83321E+03  2.58208E+03
 -5.85620E+03 -1.56441E+03 -3.47538E+03 -4.46398E+03  1.91651E+03 -5.81650E+03  4.49301E+03 -6.84555E+03
  6.04841E+03 -3.58373E+03  8.45247E+03  6.50521E+00  6.11138E+03  5.57897E+03  1.52422E+03  6.57918E+03
 -3.17215E+03  7.09430E+03 -4.82388E+03  2.24822E+03 -2.18269E+03 -1.41401E+03 -1.66261E+01 -3.94251E+02
 -1.30627E+03 -1.06385E+02 -5.88748E+02  1.88305E+03 -2.37108E+03  6.45971E+02 -4.26012E+03 -8.88381E+02
 -2.06574E+03 -4.57899E+03  6.13225E+02 -4.61730E+03  3.03725E+03 -4.77374E+03  4.36314E+03 -1.97063E+03
  4.69109E+03  3.24982E+03  1.52115E+03  2.92755E+03 -1.61532E+02  5.55475E+03 -3.42624E+03  3.47852E+03
 -4.44370E+03  1.44339E+02 -3.51542E+03 -4.04443E+03 -5.12538E+02 -4.41931E+03  1.94174E+03 -3.62161E+03
  2.86337E+03 -2.04052E+03  2.63648E+03  3.08343E+02  4.51296E+01  1.81780E+03  9.16008E+02  7.78510E+02
  1.33805E+03  6.95580E+02  1.85744E+03  2.37654E+03  7.41170E+02  2.03497E+03  1.39761E+03  1.97251E+03
 -9.23592E+02  2.82918E+03 -2.21103E+03  4.64347E+03 -3.99807E+03  1.39109E+03 -5.46455E+03 -2.27640E+02
 -1.56915E+03 -6.94091E+03  4.69698E+02 -5.53503E+03  2.80157E+03 -3.93416E+03  3.54098E+03 -1.54665E+03
  2.29304E+03  1.93722E+03 -3.01651E+02  3.01740E+03 -9.62105E+02  9.71315E+02 -1.19030E+03 -1.08425E+03
  1.45220E+01 -2.52819E+03  2.54582E+03 -2.87769E+03  2.39228E+03 -1.40110E+03  2.54891E+03 -3.98605E+01
  3.92932E+02  7.82540E+02  5.85416E+02  5.96840E+02 -4.97976E+02  7.52999E+02  8.79364E+02 -7.36677E+02
  8.39521E+02 -6.75475E+02  2.42435E+03  6.51621E+02  3.44632E+02  2.45340E+03 -7.70077E+02  3.06229E+03
 -3.84182E+03  2.33758E+03 -2.75635E+03  4.74964E+02 -2.66273E+03 -1.23775E+03  2.01351E+02 -2.29763E+03
  1.24097E+03 -1.02076E+03  1.33469E+03 -9.81387E+02  1.94943E+03  1.78142E+03 -1.23944E+03  1.14331E+03
 -9.44913E+02  5.23075E+02 -1.43347E+03 -1.76615E+03 -6.48341E+01 -2.60828E+03  5.05252E+02 -1.51946E+03
  1.14640E+03  4.81868E+02  9.35617E+02 -3.94738E+02  1.57861E+03  4.55918E+02 -8.76021E+01  1.84447E+03
 -1.85831E+03 -9.17031E+02 -1.20771E+03 -6.35807E+00  8.48518E+02 -1.90693E+03  3.12324E+03 -6.05186E+02
  1.89405E+03 -6.47095E+02  3.71527E+03  1.16186E+03  8.01572E+02  1.49403E+03 -5.28233E+02  2.63729E+03
 -2.65477E+03  1.00851E+03 -2.61504E+03 -7.70657E+01 -8.73602E+02 -2.04329E+03  5.37649E+02 -1.39817E+03
  6.31267E+02 -6.23884E+02  8.46584E+02  1.29282E+03  1.24879E+03  1.79035E+03 -7.86308E+02  7.75520E+02
 -8.30782E+01  1.65184E+03  3.79234E+02 -5.47166E+01 -2.84736E+02  2.29669E+02 -6.41894E+02  5.98539E+02
 -2.29451E+01  1.93182E+03 -1.81361E+03  3.09223E+02 -2.54534E+03 -3.47166E+01 -2.51488E+03 -2.04659E+03
 -1.54149E+03 -3.09679E+03 -8.36935E+00 -4.28646E+03  1.11960E+03 -2.76697E+03  4.40766E+03 -6.99825E+02
  2.83442E+03  1.08198E+02  1.62852E+03  1.59378E+03 -9.77654E+02  2.53251E+03 -6.58632E+02  1.89703E+03
 -1.86960E+03  3.50128E+02 -9.82593E+01 -6.13028E+02 -7.44789E+02 -1.25342E+01 -1.56534E+02 -8.80666E+02
 -1.57814E+03 -6.95609E+02 -1.10321E+03 -1.32682E+03 -6.55739E+02 -4.03399E+00  1.62164E+02 -2.06650E+03
  1.06434E+03 -6.60160E+02  8.44844E+02  4.21205E+02  1.75734E+03  2.36414E+03 -3.49882E+02  2.49927E+03
 -1.49625E+03  2.46130E+03 -1.85888E+03  1.26603E+03 -1.20853E+03 -6.53773E+02 -1.43487E+03 -2.20635E+03
 -1.28523E+03 -2.25950E+03  1.26197E+03 -3.00158E+03  1.71455E+03 -5.88922E+02  2.30804E+03  5.72107E+02
  4.70799E+02 -1.13618E+03  1.84823E+03  2.50869E+02 -5.53496E+02  1.51274E+02  1.69572E+02 -1.05027E+03
  1.39824E+02 -2.53768E+02  1.89623E+02 -6.97942E+02  1.35441E+02  1.78370E+03  1.54443E+03 -5.16398E+02
 -9.41872E+02  1.24962E+03 -1.18813E+03  5.51841E+02 -1.65244E+03 -1.58669E+03 -8.18563E+02 -1.73682E+03
  1.66269E+03 -1.44945E+03  1.70702E+03 -9.86274E+02  8.42618E+02 -7.87511E+02  1.29068E+03  1.04770E+03
  8.66930E+02  1.95216E+03 -4.61291E+02 -2.82568E+02 -8.97441E+02  1.78469E+03  2.55188E+02  6.71986E+02
 -1.10396E+03 -1.01929E+03 -1.42147E+03 -5.05581E+01 -1.97746E+03  1.41233E+03 -2.09405E+03 -1.03037E+03
 -1.89391E+03 -1.31372E+02 -6.91114E+02 -7.77299E+02  5.89453E+02 -1.80938E+03  2.01375E+03 -1.04124E+03
  2.07426E+03  1.15784E+03 -1.14017E+03  4.49788E+02 -1.69851E+02  1.43985E+03 -9.46756E+02  5.80673E+02
