 $NMID ID='MM_0lb_SNR200_20hz_g50_74.RAW', FMTDAT='(8E13.5)'
 TRAMP=1., VOLUME=1. $END
  3.09587E+05 -1.57950E+01  3.36974E+05  2.50125E+05  8.33969E+04  3.36672E+05 -1.32729E+05  2.50092E+05
 -1.89778E+05  8.25801E+04 -1.10668E+05 -3.25903E+04  1.17583E+03 -4.91230E+04  5.35204E+04  7.13608E+02
  3.49665E+04  5.26526E+04 -1.66136E+04  7.51584E+04 -6.09281E+04  6.19441E+04 -8.26324E+04  3.10359E+04
 -7.88131E+04 -9.77508E+03 -5.60075E+04 -4.98980E+04 -1.50904E+04 -6.87533E+04  2.60170E+04 -4.47969E+04
  3.92183E+04  3.57860E+03  1.51656E+04  4.75526E+04 -3.41808E+04  4.66492E+04 -6.60381E+04 -1.26397E+03
 -5.16734E+04 -5.47741E+04 -6.82826E+03 -7.42806E+04  3.30974E+04 -5.10113E+04  4.58359E+04 -1.68147E+04
  4.08983E+04  1.20777E+04  2.96241E+04  2.46905E+04  1.49386E+04  2.67359E+04 -4.14898E+03  2.61019E+04
 -2.20532E+04  1.31742E+04 -1.88753E+04 -4.09599E+03  4.40842E+03 -6.90307E+03  2.15332E+04  1.12987E+04
  7.49882E+03  3.42220E+04 -2.99806E+04  3.27415E+04 -6.05704E+04  2.21227E+03 -5.51987E+04 -4.09751E+04
 -1.14590E+04 -5.99562E+04  3.80126E+04 -4.35472E+04  5.54381E+04 -2.15710E+03  3.33519E+04  2.94535E+04
 -7.06967E+03  3.22010E+04 -2.80721E+04  1.24364E+04 -2.63597E+04 -5.55660E+03 -1.42849E+04 -1.00842E+04
 -7.20800E+03 -1.19797E+04 -8.84812E+01 -1.53510E+04  6.60444E+03 -2.24207E+04  1.35930E+04 -1.37791E+04
  1.21150E+04  3.56634E+03 -5.66188E+03  1.39128E+04 -1.85519E+04 -3.60337E+03 -6.98057E+03 -2.95079E+04
  1.95475E+04 -3.99543E+04  4.51584E+04 -1.81413E+04  4.16355E+04  1.85456E+04  1.51918E+04  4.13002E+04
 -1.64140E+04  3.12682E+04 -2.31571E+04  8.66657E+02 -7.73634E+03 -2.57352E+04  1.93330E+04 -3.10755E+04
  3.80212E+04 -6.27063E+03  3.09359E+04  2.29898E+04  1.53155E+04  4.06498E+04 -6.74315E+03  4.37016E+04
 -2.67903E+04  2.91504E+04 -3.56860E+04  7.53166E+03 -3.66819E+04 -1.46321E+04 -2.03787E+04 -3.38551E+04
  7.66085E+03 -3.38159E+04  3.06649E+04 -1.22968E+04  2.63369E+04  1.05391E+04  2.64609E+03  1.79931E+04
 -1.27679E+04  6.73096E+03 -9.48683E+03 -6.97201E+03  6.42869E+03 -1.02362E+04  1.84715E+04  5.43839E+03
  1.19679E+04  2.14540E+04 -6.49804E+03  2.29808E+04 -2.05742E+04  8.38077E+03 -2.47306E+04 -7.58550E+03
 -1.58406E+04 -1.62444E+04 -5.57009E+03 -1.61230E+04  3.77588E+03 -1.29684E+04  1.16686E+04 -1.33549E+04
  2.13129E+04 -1.16005E+04  2.65944E+04  1.05491E+03  2.02595E+04  1.45898E+04  3.77030E+03  3.17091E+04
 -1.53262E+04  2.80651E+04 -2.48993E+04  8.90991E+03 -1.92422E+04 -1.12139E+04 -3.69737E+03 -1.48436E+04
  2.72752E+03 -4.38495E+03 -1.99973E+03  4.83731E+03 -1.16805E+04  5.43551E+03 -1.32312E+04 -4.13587E+03
 -8.98711E+03 -1.53374E+04  3.77857E+03 -1.87034E+04  1.22195E+04 -1.36498E+04  1.38276E+04 -1.96809E+03
  8.33235E+03  9.96310E+03 -1.18648E+03  1.49722E+04 -9.80863E+03  8.52164E+03 -1.47061E+04 -2.50404E+03
 -1.12724E+04 -1.50705E+04 -1.82314E+03 -1.81403E+04  8.25432E+03 -1.45598E+04  1.49544E+04 -5.68836E+03
  1.42338E+04  1.91456E+02  1.04114E+04  3.80147E+03  4.72437E+03 -1.81211E+02  7.43009E+03 -1.75808E+03
  1.29372E+04  1.70056E+03  1.40484E+04  1.22160E+04  7.82586E+03  2.35664E+04 -2.87302E+03  2.51342E+04
 -1.50359E+04  1.93407E+04 -2.27515E+04  8.79563E+03 -2.30269E+04 -1.86743E+03 -2.07111E+04 -1.31886E+04
 -9.57962E+03 -1.88680E+04  6.16748E+03 -1.77210E+04  1.54642E+04 -9.63833E+03  1.52594E+04  3.94128E+03
  6.01840E+03  1.03898E+04 -6.53140E+03  1.07376E+04 -1.22062E+04  2.91260E+03 -9.47176E+03 -7.40214E+03
 -7.34745E+02 -1.11419E+04  6.94209E+03 -7.61974E+03  7.50450E+03 -2.13951E+03  1.45230E+03  3.95135E+03
 -6.21040E+03  7.45580E+02 -3.24296E+03 -4.45295E+03  1.95597E+03 -8.60424E+03  7.70344E+03 -8.85561E+03
  1.11075E+04 -3.59784E+03  1.02769E+04  2.21223E+03  9.26340E+03  7.85260E+03  4.03646E+03  1.24570E+04
 -8.03255E+02  1.48147E+04 -9.38691E+03  8.67795E+03 -1.01033E+04  2.96956E+03 -8.40303E+03 -1.07241E+03
 -4.44245E+03 -2.90826E+03 -1.14226E+03  2.12569E+03 -1.27089E+03  9.76603E+02 -3.56260E+03  2.85895E+03
 -7.77430E+03 -6.65907E+02 -7.43480E+03 -7.35110E+03 -3.13362E+03 -1.12165E+04  2.77386E+03 -7.09320E+03
  7.13560E+03 -3.26806E+03  5.38614E+03  1.71133E+03  1.49655E+02  3.56814E+03 -3.27642E+03 -1.09771E+00
 -2.95829E+03 -5.52552E+03 -1.16242E+03 -6.83711E+03  4.09412E+03 -6.46069E+03  8.36184E+03 -3.12734E+03
  1.11424E+04  4.49605E+02  8.33018E+03  5.77480E+03  1.23956E+03  7.51744E+03 -4.25785E+03  7.08783E+03
 -6.97079E+03  2.83187E+03 -4.81889E+03 -7.45048E+02  6.67486E+01 -2.74000E+03  4.63888E+03 -1.59932E+03
  4.60981E+03  3.89513E+03  7.43153E+02  6.12494E+03 -3.75911E+03  6.66174E+03 -7.20975E+03  2.16433E+03
 -5.04592E+03 -3.70475E+03  4.50503E+02 -4.96427E+03  3.46101E+03 -2.64920E+03  3.25095E+03  2.76558E+02
  1.09690E+03  3.23587E+03 -2.90015E+03  3.93001E+03 -4.62241E+03  2.55348E+03 -3.80694E+03  6.33470E+02
 -2.60954E+03 -5.62538E+03  1.10879E+03 -5.40155E+03  5.17996E+03 -3.96788E+03  5.78789E+03  1.43194E+03
  3.63277E+03  4.27644E+03  9.26065E+02  6.48796E+03 -5.71086E+03  3.62735E+03 -4.75203E+03 -1.73143E+02
 -5.64012E+03 -4.65546E+03 -1.28268E+03 -5.01475E+03  2.57195E+03 -3.48190E+03  1.18158E+03 -3.56596E+03
  2.29934E+03 -4.18654E+02  3.01516E+02  8.55542E+02  9.77739E+02 -1.76685E+02 -4.66412E+02 -1.70622E+03
  3.04885E+03 -1.58229E+03  3.88651E+03  1.61551E+03  5.70682E+03  2.66321E+03  5.00434E+03  7.01216E+03
 -2.42937E+03  6.22309E+03 -6.46434E+03  5.34707E+03 -8.98430E+03  1.20887E+03 -7.24146E+03 -2.68622E+03
 -3.27927E+03 -6.05876E+03  4.13418E+02 -3.68096E+03  1.65877E+03 -2.48435E+03  2.32303E+03 -2.86536E+03
  4.34724E+02 -1.80908E+03  2.31659E+03 -1.98752E+03  4.01372E+03 -4.15731E+02  3.61924E+03  5.96436E+02
  3.69717E+03  1.63360E+03  5.30151E+02  2.01477E+03 -2.36037E+03  2.32777E+03 -3.42952E+03  2.49978E+03
 -4.31689E+03 -2.81630E+02 -1.17365E+03 -2.38135E+03  7.54345E+02 -4.55226E+03  1.39220E+03 -4.86212E+03
  3.20496E+03 -3.77751E+03  6.11160E+03  1.35251E+03  4.38378E+03  4.97188E+03  5.75786E+02  5.40781E+03
 -2.11030E+03  4.46588E+03 -3.21101E+03  2.48457E+03 -1.99956E+03 -6.19770E+02 -1.41811E+03 -9.64590E+02
  1.17253E+02  1.07096E+03 -8.52201E+02  1.95533E+03 -3.34303E+03  1.61391E+03 -3.82629E+03 -4.94914E+02
 -2.34445E+03 -4.26848E+03  6.61890E+02 -2.49675E+03  1.69824E+03 -3.82938E+03  1.45785E+03 -4.99151E+02
  2.54597E+03  3.11074E+03  2.41878E+03  1.96684E+03  6.05864E+01  3.49068E+03 -1.34402E+03  1.62132E+03
 -2.66847E+03  1.27564E+03 -3.38980E+03 -1.07596E+03 -1.69437E+02 -2.34889E+03  9.39570E+02 -1.60274E+03
  2.79671E+03 -2.91242E+02  8.99474E+02 -2.12679E+01  1.23212E+03  2.08855E+03  7.49240E+02  3.24909E+02
  1.13580E+03  1.63777E+03  2.12219E+03  5.23377E+02 -9.05935E+01  2.79500E+03  2.13031E+03  1.75781E+03
 -1.01553E+03  2.00319E+03 -6.61622E+02  3.47635E+03 -2.65336E+03  2.19878E+03 -3.21238E+03  5.53412E+02
 -1.44405E+03 -3.69961E+03  4.29930E+02 -3.18744E+03  1.32434E+03 -1.21454E+03  1.79402E+03 -3.62006E+01
  2.28169E+03  2.40261E+03  2.57695E+02  1.40014E+03 -9.28734E+02  1.77360E+03  3.73500E+02  2.88013E+02
  1.52855E+02  2.45595E+02  3.16894E+02 -2.24051E+03  1.57385E+03 -9.38517E+02  9.44875E+02  3.36081E+02
  2.95040E+02  1.71835E+01  1.14860E+02  6.96392E+01 -3.61422E+02  8.79520E+02  8.97053E+02 -1.93508E+03
  5.90420E+02 -5.63098E+02  6.16473E+02  8.98844E+02 -5.89046E+01  1.54702E+03  3.78957E+02  2.11014E+03
 -1.54332E+03  1.54090E+03 -1.64641E+03 -7.29397E+02 -9.69827E+02 -2.71341E+02  1.03977E+03 -8.22332E+02
  3.90539E+01 -9.84796E+02  1.23635E+03 -4.25135E+02 -7.76868E+01 -1.36333E+02 -1.14462E+03  8.64655E+02
 -1.64801E+03  1.02158E+03 -6.41535E+02 -6.59971E+02 -9.61738E+02 -1.59016E+03 -4.25282E+02 -8.08139E+02
 -5.17413E+02  8.08747E+02 -1.94090E+02 -1.89302E+02  4.75374E+02 -1.42274E+02  6.46264E+02  1.68124E+03
  2.55220E+02 -3.15549E+02 -5.49954E+02  2.69320E+02  8.78288E+02 -2.91968E+02  1.62179E+03 -1.13109E+03
  8.83544E+02  6.01075E+02  1.53958E+03 -2.61762E+02  7.40520E+02  2.14467E+03  7.20186E+02  2.15985E+03
 -3.27910E+02 -7.25443E+02 -1.01908E+03  5.57484E+01 -9.12150E+02 -1.82119E+03 -5.27597E+02 -5.64228E+02
  1.98823E+03 -5.04418E+02  7.35893E+01  1.74574E+03 -1.71464E-02  9.71842E+02  1.35403E+03  6.28634E+02
  1.53704E+02  3.51387E+02 -2.43652E+02  5.53962E+01 -4.57800E+02  3.52134E+02  5.11397E+02 -3.53502E+02
 -1.13773E+02  1.33907E+03 -1.16161E+03  5.33814E+02 -1.59803E+03 -6.03044E+02 -7.49225E+02 -1.55441E+03
 -2.70475E+02 -1.04858E+03 -2.18391E+02 -3.15118E+03  4.94824E+02 -1.95959E+03  1.50195E+03 -1.28871E+03
  7.81970E+02  4.23156E+02  5.65923E+02  7.06949E+02 -6.94777E+02  1.35757E+03 -4.59008E+02  8.49120E+02
 -3.39998E+02  7.10409E+02 -6.99930E+02 -8.20376E+02 -5.07055E+02 -5.77431E+02 -9.80164E+02  2.10124E+02
 -6.90657E+02  7.39089E+02 -1.34057E+03  4.95712E+01  9.42080E+02 -1.34914E+03 -9.06277E+02 -3.45932E+02
  1.56950E+03  4.44935E+02  7.43538E+02 -6.73098E+01  5.26465E+01  1.30201E+03 -1.74034E+02  7.70364E+02
 -2.15336E+02  2.68256E+03 -1.00693E+03  9.12918E+02  2.22397E+02  1.51981E+02  3.29053E+02 -3.82807E+02
 -1.04010E+03 -9.56559E+02  5.35356E+02 -2.39047E+02  5.92393E+02 -1.78496E+02  8.76534E+02 -8.52527E+01
 -2.20737E+02  3.41375E+02  9.59601E+02 -2.00512E+02  2.73575E+02  6.62461E+02  8.74925E+02 -1.15299E+01
  5.92116E+02  1.92900E+02  5.08880E+02  3.53727E+02 -9.69668E+02  5.56094E+02  7.07951E+01 -1.46042E+02
 -1.61980E+02 -5.58171E+02  7.47249E+02 -1.28561E+02 -1.66052E+03 -5.21524E+02  2.23152E+02 -1.39866E+03
  5.38787E+02 -6.59682E+02 -4.31805E+02 -2.42558E+02  4.89857E+02 -2.55300E+02  1.19745E+02  8.27279E+02
 -3.07347E+02  1.08244E+02 -4.24224E+02 -8.06736E+02 -9.04423E+01 -1.80432E+01 -1.93584E+02 -5.62300E+02
 -7.22283E+02 -5.32326E+02 -5.04647E+02  1.74516E+02 -8.77173E+02 -2.23074E+02 -3.85224E+02 -3.26645E+02
 -1.35595E+03  1.30628E+03 -6.36915E+02 -1.20329E+03  1.10131E+03 -1.80549E+03  4.78047E+02  6.29681E+01
  6.32702E+02  1.21841E+03 -1.25190E+03  1.26685E+02  3.27560E+02  5.56530E+02 -7.29248E+02  1.00148E+03
