 $NMID ID='MM_0lb_SNR200_18hz_g50_36.RAW', FMTDAT='(8E13.5)'
 TRAMP=1., VOLUME=1. $END
  3.09916E+05 -7.74087E+02  3.36844E+05  2.50050E+05  8.49196E+04  3.36926E+05 -1.32668E+05  2.50314E+05
 -1.89882E+05  8.35870E+04 -1.11132E+05 -3.29626E+04  1.72282E+03 -5.00964E+04  5.37779E+04 -4.00430E+02
  3.64907E+04  5.20550E+04 -1.70623E+04  7.57521E+04 -6.05544E+04  6.18095E+04 -8.41781E+04  3.18092E+04
 -7.93108E+04 -1.04322E+04 -5.69999E+04 -4.97461E+04 -1.47465E+04 -6.97735E+04  2.72705E+04 -4.48892E+04
  3.94262E+04  3.97663E+03  1.60297E+04  4.62648E+04 -3.34171E+04  4.69665E+04 -6.63892E+04 -3.21808E+02
 -5.15063E+04 -5.56882E+04 -6.27884E+03 -7.48775E+04  3.35040E+04 -5.48535E+04  4.56954E+04 -1.69061E+04
  4.18945E+04  1.10050E+04  3.06929E+04  2.48418E+04  1.60766E+04  2.78732E+04 -3.96257E+03  2.57226E+04
 -2.25324E+04  1.24575E+04 -1.89879E+04 -5.09301E+03  5.21510E+03 -7.66249E+03  2.12406E+04  1.09225E+04
  7.34573E+03  3.33859E+04 -3.20408E+04  3.36783E+04 -6.23829E+04  2.27378E+03 -5.52257E+04 -4.18771E+04
 -1.23797E+04 -6.14029E+04  3.83495E+04 -4.28632E+04  5.62048E+04 -5.10287E+02  3.27722E+04  3.08299E+04
 -5.84651E+03  3.53377E+04 -2.88916E+04  1.40690E+04 -2.75023E+04 -4.76375E+03 -1.60471E+04 -1.03479E+04
 -7.53061E+03 -1.17769E+04 -1.44583E+03 -1.68218E+04  6.72838E+03 -2.25723E+04  1.49290E+04 -1.34757E+04
  1.23444E+04  4.52955E+03 -7.15144E+03  1.44663E+04 -1.98521E+04 -2.63496E+03 -8.97596E+03 -2.95596E+04
  2.08185E+04 -4.17204E+04  4.67898E+04 -2.02809E+04  4.22786E+04  1.83811E+04  1.54134E+04  4.29111E+04
 -1.54808E+04  3.13578E+04 -2.36188E+04  1.06935E+03 -8.22815E+03 -2.80215E+04  1.99118E+04 -3.21956E+04
  3.92274E+04 -8.91601E+03  3.27000E+04  2.30933E+04  1.64608E+04  4.34102E+04 -7.99810E+03  4.68218E+04
 -2.89946E+04  3.15168E+04 -3.84195E+04  8.16221E+03 -4.04264E+04 -1.57695E+04 -2.09986E+04 -3.45143E+04
  7.59317E+03 -3.41591E+04  3.06395E+04 -1.42129E+04  2.73422E+04  1.06865E+04  2.05401E+03  1.82470E+04
 -1.42699E+04  7.43149E+03 -9.46787E+03 -8.34770E+03  5.37550E+03 -9.86473E+03  1.68308E+04  4.74625E+03
  1.26327E+04  2.18876E+04 -6.41269E+03  2.24763E+04 -2.05755E+04  9.35068E+03 -2.56730E+04 -5.70293E+03
 -1.85139E+04 -1.62609E+04 -6.31330E+03 -1.82971E+04  3.61312E+03 -1.63775E+04  1.25896E+04 -1.58671E+04
  2.22765E+04 -1.03477E+04  2.76496E+04  1.97775E+03  2.15562E+04  1.69650E+04  4.68743E+03  3.24068E+04
 -1.54507E+04  2.79053E+04 -2.62819E+04  1.00763E+04 -2.02498E+04 -1.00603E+04 -5.26836E+03 -1.46394E+04
  1.29291E+03 -4.36337E+03 -2.90655E+03  6.06741E+03 -1.34601E+04  5.11177E+03 -1.41040E+04 -5.55959E+03
 -8.79136E+03 -1.72085E+04  4.60713E+03 -1.98279E+04  1.22049E+04 -1.49061E+04  1.34836E+04 -1.12390E+03
  8.24932E+03  1.13306E+04 -5.87503E+02  1.64457E+04 -1.14225E+04  8.64735E+03 -1.58925E+04 -3.20101E+03
 -1.19654E+04 -1.43816E+04 -1.69445E+03 -1.89054E+04  8.85761E+03 -1.55402E+04  1.62010E+04 -7.87576E+03
  1.46534E+04  2.92697E+02  1.22039E+04  3.95016E+03  6.39547E+03  2.03952E+03  7.83405E+03 -6.90377E+02
  1.39084E+04  2.99329E+03  1.49038E+04  1.27596E+04  1.08526E+04  2.49519E+04 -2.97697E+03  2.90297E+04
 -1.67324E+04  2.01316E+04 -2.53158E+04  1.01103E+04 -2.50646E+04 -9.54223E+02 -2.19728E+04 -1.55001E+04
 -1.03510E+04 -2.08695E+04  8.59501E+03 -1.91451E+04  1.87729E+04 -1.05523E+04  1.72115E+04  4.20203E+03
  7.34659E+03  1.15647E+04 -7.66163E+03  1.12320E+04 -1.40994E+04  3.26134E+03 -1.03206E+04 -7.42271E+03
  1.00088E+03 -1.24667E+04  6.57684E+03 -1.00875E+04  9.04510E+03 -1.48764E+03  1.57241E+03  4.66616E+03
 -5.09074E+03  1.67164E+03 -4.26283E+03 -4.48136E+03  5.20056E+02 -9.94810E+03  8.50203E+03 -1.05950E+04
  1.32861E+04 -4.88820E+03  1.31978E+04  3.91656E+03  1.16175E+04  1.00673E+04  4.79400E+03  1.47371E+04
 -2.12381E+03  1.76627E+04 -1.01247E+04  1.09734E+04 -1.23282E+04  3.78132E+03 -8.84829E+03 -1.60009E+03
 -5.15134E+03 -3.34361E+03 -8.98635E+02  1.41004E+03 -1.55122E+03  1.20485E+03 -3.50149E+03  4.15941E+03
 -8.33201E+03 -7.68370E+02 -7.82701E+03 -7.07211E+03 -3.74749E+03 -1.18527E+04  4.50510E+03 -8.79910E+03
  7.26960E+03 -3.54993E+03  4.43613E+03  1.76347E+03  4.51076E+02  4.32041E+03 -2.67035E+03  3.95686E+01
 -4.43877E+03 -6.11379E+03 -4.75051E+02 -7.50843E+03  4.93576E+03 -8.86342E+03  1.07895E+04 -3.18591E+03
  1.26654E+04  2.24219E+01  9.30279E+03  6.40406E+03  1.62844E+03  9.19732E+03 -5.25836E+03  8.92558E+03
 -6.68308E+03  2.51321E+03 -3.20587E+03 -1.21056E+03 -8.89446E+01 -1.54284E+03  5.58795E+03 -1.24985E+03
  4.96253E+03  3.84941E+03  4.80747E+02  6.51183E+03 -4.12838E+03  7.20539E+03 -9.10898E+03  3.47305E+03
 -5.33982E+03 -3.95874E+03  8.12115E+02 -7.99194E+03  4.09030E+03 -2.99632E+03  3.91530E+03  8.86987E+02
  4.21597E+02  3.94881E+03 -4.98750E+03  5.49001E+03 -5.52714E+03  2.85346E+03 -4.06685E+03 -8.81633E+02
 -4.01807E+03 -6.56201E+03  7.81042E+02 -7.94147E+03  5.18566E+03 -5.71225E+03  5.96113E+03  1.00513E+03
  5.42592E+03  5.53053E+03  7.49856E+02  7.09234E+03 -5.78773E+03  3.26018E+03 -5.61893E+03 -2.38609E+02
 -7.24187E+03 -5.51383E+03 -2.62595E+03 -5.64647E+03  2.17532E+03 -5.11871E+03  3.94550E+03 -3.51809E+03
  2.22357E+03  4.36569E+02  1.36730E+02  1.43659E+03  1.10315E+03  4.66777E+02 -9.02099E+01 -3.01737E+03
  3.91315E+03 -3.58102E+02  5.57877E+03  1.10262E+03  5.95296E+03  2.88651E+03  5.79756E+03  8.03869E+03
 -1.46686E+03  9.22076E+03 -9.11499E+03  7.00480E+03 -1.04363E+04  1.20173E+03 -7.40710E+03 -2.85583E+03
 -3.07996E+03 -6.13036E+03 -7.20519E+02 -6.40143E+03  2.01319E+03 -7.58390E+02  1.45867E+03 -2.67748E+03
  7.35157E+02 -1.60570E+03  2.44563E+03 -2.61577E+03  3.19616E+03 -2.44168E+02  3.67824E+03 -3.23206E+01
  4.62759E+03  1.22116E+03  1.22657E+03  2.97300E+03 -2.07595E+03  3.46598E+03 -3.86848E+03  2.47725E+03
 -5.08141E+03 -9.21243E+02 -2.92866E+03 -3.76832E+03  1.77184E+03 -5.52869E+03  3.32553E+03 -5.59985E+03
  5.36844E+03 -4.62937E+03  7.23402E+03  4.12662E+02  4.67800E+03  3.57625E+03  1.47365E+03  6.47927E+03
 -2.88125E+03  5.83283E+03 -3.18208E+03  2.54571E+03 -2.17650E+03 -1.97376E+02 -1.17218E+03 -4.12219E+02
 -1.24055E+03 -2.85967E+02  4.62146E+02  7.37795E+02 -3.10670E+03  5.31138E+02 -4.39383E+03  5.04153E+02
 -1.90417E+03 -3.73313E+03  1.05392E+03 -5.23115E+03  2.70362E+03 -4.18776E+03  3.77782E+03 -7.77377E+02
  5.46927E+03  2.35950E+03  1.33647E+03  4.58905E+03 -2.18687E+02  4.83592E+03 -2.32961E+03  2.44097E+03
 -3.49489E+03 -1.04409E+02 -3.54609E+03 -2.69509E+03 -1.07342E+03 -3.21099E+03  1.83319E+03 -2.18958E+03
  2.70424E+03 -5.66679E+02  1.37660E+03  2.27798E+01  1.40569E+02  2.40322E+03  1.10233E+03  1.42991E+03
  1.43860E+03 -9.26879E+01  1.22917E+03  7.58126E+02  1.52638E+03  2.28180E+03  1.27674E+03  1.66908E+03
 -1.46575E+02  2.85083E+03 -2.89888E+03  4.62449E+03 -3.99560E+03  6.08356E+02 -5.16545E+03  7.73111E+02
 -2.20267E+03 -4.37803E+03  6.57476E+02 -5.29989E+03  1.40921E+03 -3.05651E+03  3.55901E+03 -7.16829E+02
  2.74332E+03  2.40056E+03 -7.58536E+02  2.18016E+03 -9.99526E+02  1.96336E+03 -2.56889E+03  3.49901E+02
 -4.41257E+02 -1.06611E+03  1.43546E+03 -2.01945E+03  7.98161E+02 -2.00242E+03  1.66131E+03  4.18969E+01
  6.97636E+02  7.26083E+02  1.03243E+03 -6.35494E+02 -1.06783E+03  8.26263E+02  2.02859E+03 -7.85945E+02
 -4.94097E+02 -1.03525E+03  2.29620E+03  8.49954E+02 -3.27857E+02  3.26665E+03 -3.08529E+02  2.77197E+03
 -1.03859E+03  8.65395E+02 -2.78162E+03 -2.76726E+02 -1.89967E+03 -1.10784E+03 -1.70983E+02 -6.23651E+02
  6.33510E+02 -1.16260E+03 -3.73936E+02 -3.39925E+02  7.97118E+02  6.62625E+02 -2.95009E+02  1.46568E+03
 -1.21950E+03  7.20104E+02 -2.35777E+02 -2.34328E+03 -1.65254E+03 -2.67346E+03  4.50609E+02 -2.61819E+03
  7.37819E+02 -6.92611E+02  6.13703E+02  3.56017E+02  8.80902E+02 -2.74740E+02  2.21728E+02  5.92647E+02
 -4.06338E+02  4.81841E+02 -7.50390E+02  5.51283E+02  9.87635E+02 -1.13111E+03  1.95177E+03 -5.41716E+02
  1.94473E+03  8.31877E+02  2.18120E+03 -3.24786E+02  1.85391E+03  1.28282E+03 -1.00071E+03  2.12980E+03
 -1.26737E+03  8.87892E+02 -1.51509E+03  1.83296E+02 -4.77787E+02 -2.27066E+02  6.93997E+02 -1.02717E+03
  1.27119E+03 -1.39013E+03  1.62865E+03  1.26430E+03  1.00320E+03  1.41517E+03  7.61835E+02  1.05390E+03
  2.47155E+02  1.10933E+03  1.04100E+02  7.36619E+02 -9.80767E+02 -8.37482E+02 -5.55121E+02  8.43677E+02
  7.26180E+02  1.02841E+03 -1.07221E+03  1.43170E+03 -1.53649E+03 -7.57498E+02 -2.84730E+03 -1.18001E+03
 -8.61516E+02 -4.54877E+03  2.09167E+02 -2.58260E+03  1.07462E+03 -2.83260E+03  3.61700E+03 -5.48702E+02
  3.21802E+03  7.96788E+02  8.79563E+02  7.40505E+02 -4.49518E+02  6.85840E+02 -1.55774E+03  1.21402E+03
 -1.21514E+03  5.97241E+02  5.70396E+02 -7.45841E+02  3.44326E+02 -9.88335E+02 -9.54569E+02  3.23245E+02
 -1.16566E+03 -1.55086E+02 -1.62471E+03 -9.58418E+01  1.49733E+03  1.16733E+02 -8.68772E+02  4.15219E+02
  2.58763E+03 -5.66025E+02  5.28996E+02  1.33311E+03  7.74398E+02  8.25561E+02 -5.96216E+02  1.74873E+03
  2.92051E+02  2.27568E+03 -2.21127E+03  9.41793E+02 -3.53302E+03 -1.03322E+03 -1.14262E+03 -1.33212E+03
 -4.35308E+02 -1.17133E+03 -3.23938E+02 -1.61671E+03  1.21995E+03 -8.84837E+02  9.76768E+02  4.84081E+02
  4.77150E+02  1.27726E+03 -1.46080E+02  7.85570E+02 -1.14881E+03  3.68682E+01 -8.92684E+02 -2.31547E+02
  1.29891E+03 -3.40838E+02 -2.39523E+01 -2.85566E+02  3.62108E+02  1.21068E+03  9.17509E+02 -1.75148E+02
 -1.08935E+03 -3.22659E+02 -5.99877E+02  2.46164E+02 -7.43798E+02 -5.34425E+02 -1.32727E+03 -9.43684E+02
  9.15595E+02 -4.99482E+02  1.27171E+03 -1.38347E+02  1.26144E+03 -2.17817E+03  1.58278E+03  3.48820E+02
  3.69671E+02  9.69505E+02 -6.24037E+02  9.67047E+02 -4.62036E+02  9.36784E+02 -1.40785E+03 -7.72378E+00
 -8.06650E+02  6.75796E+01 -1.27885E+02  9.87629E+02  5.20115E+01 -9.90697E+01 -7.92553E+02  6.24045E+02
 -9.00833E+02  1.91108E+02 -5.62555E+02 -2.06258E+03  1.16922E+03 -2.08515E+03 -1.56543E+01 -1.00347E+02
  6.73136E+02  1.46878E+02  1.30712E+02 -5.27353E+00  5.60739E+01  1.41806E+03  3.80846E+02  1.26486E+03
