 $NMID ID='MM_0lb_SNR200_16hz_g45_90.RAW', FMTDAT='(8E13.5)'
 TRAMP=1., VOLUME=1. $END
  3.10379E+05 -1.91322E+01  3.37631E+05  2.50602E+05  8.56022E+04  3.38044E+05 -1.31794E+05  2.50849E+05
 -1.89785E+05  8.28550E+04 -1.10176E+05 -3.34131E+04  1.46505E+03 -4.94656E+04  5.28647E+04  2.12740E+02
  3.52768E+04  5.24940E+04 -1.69705E+04  7.55455E+04 -5.98388E+04  6.26160E+04 -8.30996E+04  3.14316E+04
 -8.08761E+04 -1.01784E+04 -5.68635E+04 -5.08964E+04 -1.45260E+04 -6.81544E+04  2.69993E+04 -4.48461E+04
  4.00287E+04  3.60322E+03  1.53433E+04  4.80955E+04 -3.43012E+04  4.78808E+04 -6.68124E+04  1.14936E+01
 -5.27464E+04 -5.53059E+04 -7.32484E+03 -7.58011E+04  3.42128E+04 -5.31483E+04  4.72146E+04 -1.58925E+04
  4.21709E+04  1.20535E+04  3.19251E+04  2.45204E+04  1.62630E+04  2.75947E+04 -3.77124E+03  2.49720E+04
 -2.14809E+04  1.20623E+04 -1.86641E+04 -5.13383E+03  4.10479E+03 -8.59606E+03  2.24397E+04  1.14796E+04
  7.65491E+03  3.33108E+04 -3.10904E+04  3.52392E+04 -6.22150E+04  2.76095E+03 -5.64856E+04 -4.22067E+04
 -1.22380E+04 -6.19079E+04  3.94673E+04 -4.38360E+04  5.66758E+04 -2.70212E+03  3.42164E+04  3.10403E+04
 -6.10181E+03  3.60905E+04 -2.88909E+04  1.40896E+04 -2.85671E+04 -5.19649E+03 -1.49160E+04 -9.87093E+03
 -6.96284E+03 -1.30596E+04 -1.45047E+03 -1.69379E+04  6.99585E+03 -2.18440E+04  1.57848E+04 -1.30662E+04
  1.11087E+04  4.78942E+03 -7.15817E+03  1.34256E+04 -1.89877E+04 -3.94353E+03 -7.86000E+03 -3.21499E+04
  2.17851E+04 -4.24066E+04  4.61948E+04 -1.89355E+04  4.35826E+04  1.91577E+04  1.50294E+04  4.34704E+04
 -1.44611E+04  3.17405E+04 -2.52103E+04  1.48124E+03 -9.79136E+03 -2.71901E+04  2.08748E+04 -3.27228E+04
  3.88610E+04 -7.25562E+03  3.28667E+04  2.29886E+04  1.69983E+04  4.51581E+04 -7.70367E+03  4.70046E+04
 -2.98343E+04  3.25318E+04 -3.81352E+04  9.33737E+03 -4.09554E+04 -1.49681E+04 -2.19830E+04 -3.64895E+04
  6.79453E+03 -3.53071E+04  3.15260E+04 -1.39348E+04  2.77394E+04  1.08961E+04  2.66299E+03  1.82491E+04
 -1.24748E+04  7.89728E+03 -1.04516E+04 -7.19095E+03  5.12492E+03 -1.06706E+04  1.63690E+04  6.13503E+03
  1.27415E+04  2.24924E+04 -7.13802E+03  2.45124E+04 -2.10883E+04  9.84245E+03 -2.53901E+04 -5.24871E+03
 -1.78724E+04 -1.55822E+04 -5.55314E+03 -1.91416E+04  4.22773E+03 -1.71374E+04  1.42080E+04 -1.56047E+04
  2.34605E+04 -1.34796E+04  3.17317E+04  3.22682E+03  2.20795E+04  1.86515E+04  4.21802E+03  3.39383E+04
 -1.73526E+04  2.81558E+04 -2.78398E+04  9.48563E+03 -1.99145E+04 -9.06954E+03 -3.25283E+03 -1.37918E+04
  2.31125E+03 -3.84464E+03 -3.37705E+03  5.98320E+03 -1.48678E+04  5.05806E+03 -1.45655E+04 -6.01185E+03
 -9.39040E+03 -1.86356E+04  5.92095E+03 -2.11779E+04  1.38892E+04 -1.55013E+04  1.62174E+04 -1.99891E+03
  9.44090E+03  1.22856E+04 -1.43409E+03  1.81283E+04 -1.10510E+04  9.15114E+03 -1.69613E+04 -4.29919E+03
 -1.25130E+04 -1.51483E+04 -8.42798E+02 -2.15852E+04  9.54955E+03 -1.75089E+04  1.76046E+04 -8.71963E+03
  1.68608E+04  5.78386E+02  1.21920E+04  3.50120E+03  6.04248E+03  5.93770E+02  7.53366E+03 -1.88161E+03
  1.56145E+04  2.73590E+03  1.57162E+04  1.42082E+04  1.00995E+04  2.72309E+04 -2.36144E+03  2.97615E+04
 -1.80068E+04  2.45834E+04 -2.81615E+04  1.16847E+04 -2.83753E+04 -2.59799E+03 -2.40127E+04 -1.63164E+04
 -1.02773E+04 -2.33332E+04  8.09574E+03 -2.19896E+04  1.90736E+04 -1.16514E+04  1.78980E+04  4.78854E+03
  5.88312E+03  1.25760E+04 -7.67146E+03  1.14738E+04 -1.54854E+04  3.18422E+03 -1.21540E+04 -8.81378E+03
 -3.13762E+02 -1.48999E+04  7.72653E+03 -9.98671E+03  9.53315E+03 -1.58820E+03  1.47837E+03  6.26984E+03
 -5.25489E+03  1.94597E+03 -4.44607E+03 -5.49225E+03 -4.58285E+02 -1.20320E+04  8.15862E+03 -1.18111E+04
  1.38638E+04 -5.64002E+03  1.39653E+04  2.57152E+03  1.28886E+04  1.20669E+04  5.57115E+03  1.75644E+04
 -2.00004E+03  1.97241E+04 -1.11507E+04  1.13021E+04 -1.36553E+04  3.13523E+03 -8.74054E+03 -2.42972E+03
 -5.16855E+03 -3.25345E+03 -4.60861E+02  2.29907E+03 -2.18968E+03  3.55005E+03 -4.36405E+03  3.75962E+03
 -9.83692E+03  1.14067E+02 -9.38963E+03 -8.30458E+03 -3.49968E+03 -1.36415E+04  3.77336E+03 -9.48061E+03
  7.81020E+03 -5.02637E+03  5.30869E+03  2.65736E+03  9.11777E+01  3.76768E+03 -4.63971E+03 -1.28035E+03
 -3.39659E+03 -6.57077E+03 -1.00392E+03 -9.42728E+03  4.36212E+03 -9.26528E+03  1.21839E+04 -4.07745E+03
  1.34434E+04  3.39186E+02  9.53018E+03  7.00000E+03  1.82430E+03  1.09623E+04 -5.79625E+03  9.93759E+03
 -8.23247E+03  2.24919E+03 -4.50532E+03 -5.40193E+02  2.07641E+03 -2.29714E+03  4.11618E+03 -7.48294E+02
  4.62180E+03  4.08772E+03  4.16121E+02  8.40104E+03 -4.60695E+03  7.45522E+03 -9.08922E+03  2.46501E+03
 -6.58984E+03 -5.15210E+03  1.19003E+03 -8.44761E+03  5.15647E+03 -4.38864E+03  4.66921E+03  1.54179E+03
  8.41792E+02  4.99317E+03 -5.28665E+03  6.78598E+03 -6.91964E+03  2.44043E+03 -6.97531E+03 -2.17432E+03
 -4.55621E+03 -8.15035E+03  2.05484E+03 -8.84734E+03  6.25926E+03 -6.49914E+03  7.97354E+03  1.64898E+03
  6.12155E+03  7.23941E+03 -4.18687E+02  9.86928E+03 -6.67599E+03  5.49989E+03 -6.48255E+03 -9.08494E+02
 -5.77824E+03 -5.49536E+03 -1.89853E+03 -6.80193E+03  3.56896E+03 -5.24875E+03  3.13260E+03 -2.64036E+03
  3.16848E+03  4.90863E+02 -2.42361E+02  1.46572E+03 -8.70044E+00 -1.57827E+03  8.22286E+02 -2.59333E+03
  5.47279E+03 -1.55891E+03  7.40615E+03  3.89910E+02  7.83569E+03  5.99151E+03  5.73341E+03  9.06459E+03
 -1.87379E+03  1.06358E+04 -9.43333E+03  8.95579E+03 -1.18999E+04  1.29805E+03 -1.00154E+04 -4.28970E+03
 -5.98973E+03 -7.75714E+03 -1.21861E+03 -6.56783E+03  3.42576E+03 -3.68117E+03  2.60190E+03 -2.88179E+03
  1.16621E+03 -2.21195E+03  3.45684E+03 -2.77350E+03  4.21963E+03 -2.37002E+03  4.37699E+03 -8.98564E+01
  5.33385E+03  1.90519E+03  1.93852E+03  4.66786E+03 -1.02974E+03  4.20800E+03 -6.04496E+03  3.24136E+03
 -5.74012E+03 -1.17268E+03 -2.95844E+03 -5.11726E+03 -3.73324E+02 -7.35209E+03  4.98057E+03 -6.48155E+03
  7.23569E+03 -4.45193E+03  8.08659E+03  2.62685E+02  6.79101E+03  5.10693E+03  1.71074E+03  7.61422E+03
 -3.05440E+03  7.76000E+03 -4.88863E+03  2.26375E+03 -3.00130E+03 -3.31981E+03 -1.50285E+03 -5.51521E+01
 -1.01671E+03 -1.78676E+03 -1.16435E+03  1.50870E+03 -2.60506E+03  2.08382E+03 -4.31216E+03 -4.04697E+02
 -3.13628E+03 -4.41461E+03  1.93488E+03 -5.16080E+03  3.10368E+03 -5.42282E+03  4.63559E+03 -1.60963E+03
  6.37565E+03  3.77081E+03  1.80010E+03  5.24669E+03 -1.33626E+03  6.03496E+03 -4.64164E+03  2.90654E+03
 -6.17724E+03  2.90969E+02 -4.45620E+03 -3.48062E+03 -9.58389E+01 -5.08904E+03  3.22326E+03 -3.21528E+03
  3.54270E+03 -1.14998E+03  1.91007E+03 -3.90970E+02  5.93795E+02  1.23367E+03  4.41433E+02  2.43771E+02
  1.87388E+03  2.61495E+02  1.50352E+03  1.94185E+03  1.76312E+03  1.90821E+03  6.55608E+02  3.22558E+03
 -1.22561E+03  4.92540E+03 -3.08453E+03  3.65813E+03 -4.87808E+03  2.22110E+03 -5.33962E+03 -2.00815E+03
 -1.90423E+03 -5.81943E+03  1.16966E+03 -6.80864E+03  3.74150E+03 -3.11041E+03  4.49693E+03 -7.92404E+02
  3.74000E+03  2.15489E+03  4.07946E+02  3.27948E+03 -1.70692E+03  2.46783E+03 -2.33628E+03 -8.79159E+02
 -7.71662E+02 -3.23309E+03  1.95691E+03 -3.01204E+03  2.09753E+03 -1.40725E+03  1.58102E+03  1.25142E+03
  1.51597E+03  7.38519E+02  5.80407E+02  1.06696E+03 -3.45925E+02  1.01360E+03  1.21787E+03  2.58649E+02
  1.05598E+03  2.98099E+02  2.95401E+03 -2.69076E+02  8.15245E+02  3.15232E+03 -1.65155E+03  3.71471E+03
 -2.53164E+03  2.18088E+03 -3.53227E+03  9.42491E+02 -3.51867E+03 -9.97881E+02 -3.59305E+02 -1.68642E+03
  2.98293E+01 -1.24362E+03  1.89483E+03 -4.37418E+02  1.07549E+03  1.46015E+03 -1.34818E+03  1.45778E+03
 -2.13681E+03  1.44587E+03 -2.72963E+03 -2.55270E+03 -8.31302E+02 -2.08057E+03 -1.33901E+01 -2.95762E+03
  1.45509E+03 -9.52116E+02  1.29425E+03  8.54853E+02  2.06894E+03  1.45244E+03 -7.09801E+02  1.07072E+03
 -4.22839E+02  4.31957E+02 -2.25602E+03 -1.00397E+03  1.84128E+03 -1.13429E+03  3.07836E+03 -9.24251E+02
  3.22568E+03  2.47030E+01  3.72690E+03  8.15418E+02  1.62367E+03  2.23815E+03 -1.17255E+03  3.49201E+03
 -3.13901E+03  4.74422E+02 -3.87809E+03 -9.70852E+02 -1.08217E+03 -2.37402E+03  7.58332E+02 -1.19675E+03
  2.18289E+03 -5.92144E+02  1.50955E+03  7.54571E+02  3.25740E+02  2.94312E+03  4.98880E+02  1.70190E+03
 -8.80403E+02  2.32902E+03 -7.86017E+02 -1.20082E+03 -1.88762E+02  1.58627E+03 -1.44576E+03  8.66139E+02
 -1.76661E+03  1.58279E+03 -2.48610E+03  1.59072E+03 -1.99121E+03  5.95215E+02 -3.74085E+03 -1.20249E+03
 -1.49374E+03 -4.76047E+03  9.32216E+02 -3.89981E+03  3.10816E+03 -3.30819E+03  3.16371E+03 -1.32259E+03
  3.81121E+03 -2.56829E+02  1.24338E+03  1.26977E+03  2.52302E+02  2.50636E+03 -6.07538E+02  2.35838E+03
 -1.66050E+03  1.18466E+03 -6.81899E+02 -9.24569E+02 -1.27895E+03  9.60446E+02 -1.79238E+03  4.40923E+02
 -2.34361E+03  3.68450E+02 -7.11117E+02  8.85240E+01 -9.47510E+02  1.92845E+02  8.51016E+01 -2.05336E+03
  1.62773E+03 -1.54392E+03  1.01811E+03  4.26101E+02  1.58105E+03  1.81339E+03  7.08131E+02  3.77522E+03
 -9.31913E+02  3.53755E+03 -2.53911E+03  2.27398E+03 -1.71334E+03 -3.20476E+01 -1.70289E+03 -1.26346E+03
 -6.73103E+02 -2.56473E+03 -1.24459E+02 -1.47152E+03  1.09801E+03 -1.83260E+03  7.02806E+01  1.09843E+03
  1.72548E+03  6.99951E+02 -3.63663E+01  1.00887E+03  5.96396E+02 -5.09377E+02  1.23959E+03 -1.79743E+03
  9.34612E+02  9.34040E+02  8.64096E+02  1.71358E+02  1.53442E+02  1.20179E+03  1.04092E+03  1.11084E+03
 -5.83026E+02  9.32635E+02 -9.98193E+02  1.30761E+02 -5.75473E+02 -7.22536E+02  6.04967E+02 -2.45451E+03
  8.84841E+02 -1.59127E+03  1.53309E+03  1.28146E+03  2.68977E+03  1.41097E+02  1.00722E+02  3.10305E+02
  1.67996E+03  1.33573E+03 -1.78951E+03  6.72380E+02 -1.20664E+03  1.31690E+03 -3.36732E+02 -6.47325E+02
 -1.39409E+03 -1.18825E+03 -1.04384E+03  7.90058E+02 -6.78691E+02  3.26550E+02 -1.44478E+03 -1.38049E+02
 -1.17644E+03 -5.22323E+02 -2.07412E+02 -1.16894E+03  1.35479E+03 -2.17415E+03  1.96360E+03 -2.20156E+02
  1.19532E+03  3.46636E+02 -4.56973E+02  9.11467E+02 -1.34947E+02  1.03561E+03 -4.79388E+02  1.74232E+03
