 $NMID ID='MM_0lb_SNR200_15hz_g40_42.RAW', FMTDAT='(8E13.5)'
 TRAMP=1., VOLUME=1. $END
  3.09803E+05  3.93055E+02  3.38262E+05  2.50427E+05  8.49094E+04  3.38145E+05 -1.32330E+05  2.51184E+05
 -1.89960E+05  8.23695E+04 -1.10966E+05 -3.38601E+04  1.17290E+03 -5.01004E+04  5.48944E+04  2.67204E+02
  3.49331E+04  5.41536E+04 -1.72641E+04  7.45167E+04 -6.09660E+04  6.26842E+04 -8.40157E+04  3.13900E+04
 -7.97542E+04 -1.10015E+04 -5.74486E+04 -5.15481E+04 -1.49693E+04 -6.90239E+04  2.71073E+04 -4.45603E+04
  3.94406E+04  3.29429E+03  1.57438E+04  4.71180E+04 -3.41941E+04  4.73947E+04 -6.59632E+04 -2.67101E+01
 -5.27830E+04 -5.60877E+04 -6.37622E+03 -7.58265E+04  3.41824E+04 -5.35376E+04  4.68838E+04 -1.59331E+04
  4.23556E+04  1.03651E+04  3.12616E+04  2.43788E+04  1.50004E+04  2.95762E+04 -4.72921E+03  2.63992E+04
 -2.23255E+04  1.28392E+04 -1.82857E+04 -4.22071E+03  5.38798E+03 -7.72488E+03  2.23086E+04  1.10631E+04
  9.51459E+03  3.51587E+04 -3.09826E+04  3.40412E+04 -6.24703E+04  3.14572E+03 -5.61089E+04 -4.15578E+04
 -1.21595E+04 -6.12172E+04  3.92794E+04 -4.40588E+04  5.57021E+04 -1.68573E+03  3.39358E+04  3.12249E+04
 -5.39621E+03  3.39315E+04 -2.92119E+04  1.44022E+04 -2.96014E+04 -5.54646E+03 -1.53773E+04 -9.49684E+03
 -8.10075E+03 -1.15241E+04 -3.44240E+02 -1.70463E+04  6.17884E+03 -2.36945E+04  1.51806E+04 -1.35883E+04
  1.20122E+04  4.54649E+03 -7.60827E+03  1.35866E+04 -1.97314E+04 -3.57446E+03 -6.83603E+03 -3.12459E+04
  2.16069E+04 -4.30835E+04  4.54094E+04 -1.85836E+04  4.40851E+04  1.82757E+04  1.55613E+04  4.32764E+04
 -1.61050E+04  3.20102E+04 -2.41843E+04  1.44867E+03 -8.42671E+03 -2.77119E+04  2.17934E+04 -3.28661E+04
  4.01685E+04 -8.86304E+03  3.35237E+04  2.29017E+04  1.52007E+04  4.59443E+04 -7.39229E+03  4.73803E+04
 -2.92833E+04  3.17100E+04 -3.97009E+04  8.26640E+03 -4.09317E+04 -1.58726E+04 -2.30504E+04 -3.66428E+04
  6.76077E+03 -3.64108E+04  3.00380E+04 -1.39386E+04  2.82027E+04  1.08795E+04  4.11477E+03  1.90764E+04
 -1.44610E+04  7.73777E+03 -1.10522E+04 -7.53079E+03  5.39989E+03 -1.10132E+04  1.71180E+04  5.49294E+03
  1.29708E+04  2.22753E+04 -7.11509E+03  2.44363E+04 -2.09231E+04  1.09905E+04 -2.61952E+04 -4.94965E+03
 -1.82731E+04 -1.75690E+04 -6.92199E+03 -1.92756E+04  3.34158E+03 -1.66206E+04  1.37647E+04 -1.56523E+04
  2.48034E+04 -1.16663E+04  3.04296E+04  1.37568E+03  2.17993E+04  1.66050E+04  3.96474E+03  3.48534E+04
 -1.77983E+04  2.86808E+04 -2.72948E+04  1.06796E+04 -2.07086E+04 -1.01024E+04 -4.07119E+03 -1.50509E+04
  1.72153E+03 -2.26939E+03 -4.04870E+03  6.34875E+03 -1.40602E+04  5.93205E+03 -1.54194E+04 -5.94258E+03
 -9.76825E+03 -1.65649E+04  5.05564E+03 -2.10005E+04  1.53343E+04 -1.60445E+04  1.58717E+04 -1.68529E+03
  1.04831E+04  1.20130E+04 -2.22848E+03  1.78321E+04 -1.22183E+04  9.38038E+03 -1.67295E+04 -3.26416E+03
 -1.35875E+04 -1.59589E+04 -1.46932E+03 -2.07848E+04  9.77789E+03 -1.80241E+04  1.90380E+04 -9.26000E+03
  1.63438E+04  9.87627E+02  1.28670E+04  3.66890E+03  6.08755E+03  6.52816E+02  7.15577E+03 -4.51428E+02
  1.45663E+04  1.63611E+03  1.68666E+04  1.42717E+04  1.09800E+04  2.76459E+04 -4.02883E+03  3.14013E+04
 -1.84198E+04  2.45915E+04 -2.81923E+04  1.21453E+04 -2.84665E+04 -2.25818E+03 -2.50699E+04 -1.72674E+04
 -1.12937E+04 -2.44149E+04  6.66785E+03 -2.18499E+04  1.87813E+04 -1.20253E+04  1.73370E+04  3.83844E+03
  7.84280E+03  1.22339E+04 -7.83910E+03  1.10498E+04 -1.54867E+04  2.55027E+03 -1.13849E+04 -8.53044E+03
  3.90737E+02 -1.38044E+04  7.31173E+03 -1.12903E+04  8.49013E+03 -1.42710E+03  2.61800E+03  6.78812E+03
 -6.21604E+03  2.14819E+03 -5.23261E+03 -5.25390E+03  1.55473E+02 -1.30237E+04  7.21082E+03 -1.25687E+04
  1.58850E+04 -6.87366E+03  1.51727E+04  3.36992E+03  1.36126E+04  1.15053E+04  5.81851E+03  1.76033E+04
 -3.27291E+03  1.88185E+04 -1.05640E+04  1.25749E+04 -1.31951E+04  3.40866E+03 -9.65589E+03 -2.29390E+03
 -5.43863E+03 -4.44047E+03 -8.63159E+02  2.35488E+03 -3.57221E+03  2.65436E+03 -4.81986E+03  4.20470E+03
 -9.46152E+03 -5.26582E+02 -1.05425E+04 -8.76912E+03 -2.92311E+03 -1.29004E+04  3.79237E+03 -1.08575E+04
  8.31738E+03 -4.09810E+03  5.64393E+03  3.55693E+03  4.99131E+02  3.35801E+03 -3.90631E+03 -5.74726E+02
 -4.46780E+03 -6.63869E+03 -3.99426E+02 -9.41739E+03  4.30591E+03 -9.52683E+03  1.17915E+04 -5.03029E+03
  1.46415E+04  1.10551E+03  1.19441E+04  7.76980E+03  3.43585E+03  1.10033E+04 -7.27479E+03  1.10625E+04
 -8.15437E+03  3.51778E+03 -3.67447E+03 -1.54913E+03  1.50950E+03 -1.64564E+03  5.15333E+03 -1.30913E+03
  3.56064E+03  4.20884E+03  1.09814E+03  7.72012E+03 -5.58782E+03  7.94225E+03 -9.14127E+03  2.73444E+03
 -6.07261E+03 -4.13440E+03  1.81018E+03 -8.30827E+03  5.69278E+03 -5.25292E+03  5.66256E+03  1.94771E+03
  6.14722E+02  4.45803E+03 -5.32783E+03  6.00430E+03 -5.94296E+03  3.12419E+03 -6.19632E+03 -2.10336E+03
 -4.43724E+03 -8.49177E+03  1.91877E+03 -1.12623E+04  8.04467E+03 -5.22243E+03  8.52710E+03  1.95015E+03
  6.42777E+03  6.92518E+03 -3.71003E+02  8.78974E+03 -6.41712E+03  5.15451E+03 -7.28819E+03  5.72204E+01
 -6.58064E+03 -5.78635E+03 -1.82595E+03 -7.08973E+03  3.59166E+03 -6.26694E+03  3.12156E+03 -3.32446E+03
  3.28619E+03  1.25005E+03 -8.20001E+00  1.18457E+03 -2.55341E+01 -9.73532E+01  1.29953E+03 -3.23895E+03
  6.04837E+03 -2.41646E+03  7.80066E+03  7.04074E+02  7.57354E+03  4.22584E+03  6.51875E+03  1.07536E+04
 -2.63350E+03  1.17856E+04 -1.13748E+04  8.64383E+03 -1.47397E+04  2.38268E+03 -1.28030E+04 -4.06760E+03
 -5.27345E+03 -8.84356E+03  3.94186E+02 -6.52262E+03  2.23583E+03 -3.11476E+03  2.70799E+03 -2.66714E+03
  2.07844E+03 -1.48482E+03  1.65380E+03 -2.79727E+03  3.92804E+03 -2.78031E+03  5.16171E+03 -1.15989E+03
  7.34129E+03  2.05212E+03  2.63598E+03  4.92926E+03 -1.87693E+03  5.45663E+03 -5.32060E+03  4.27577E+03
 -7.82403E+03 -1.57159E+03 -2.84901E+03 -3.60198E+03  1.59121E+02 -7.77729E+03  5.17268E+03 -7.57804E+03
  7.61275E+03 -5.92455E+03  1.03508E+04  1.13319E+03  7.71898E+03  6.22086E+03  1.26982E+03  7.76679E+03
 -3.44206E+03  7.95573E+03 -6.21524E+03  3.28836E+03 -1.99475E+03 -1.39143E+03 -6.85725E+02 -2.27367E+02
 -3.26484E+02 -5.51920E+02 -1.93268E+02  2.69357E+03 -2.25073E+03  1.48705E+03 -5.39331E+03 -1.20726E+03
 -2.28669E+03 -5.57911E+03  1.12362E+01 -6.64381E+03  3.30108E+03 -4.33633E+03  5.05545E+03 -1.28035E+03
  4.52102E+03  4.92233E+03  3.63523E+03  4.98548E+03 -1.73965E+03  7.24999E+03 -3.59696E+03  3.91899E+03
 -5.39014E+03  1.01229E+03 -4.38438E+03 -3.54803E+03  5.34643E+02 -4.02304E+03  1.74050E+03 -4.62979E+03
  4.24804E+03 -1.45195E+03  2.66925E+03  1.27178E+03  9.86875E+02  3.03842E+03  6.49639E+02  8.05308E+02
  1.60118E+03 -5.08886E+01  2.44245E+03  2.14909E+03  1.59310E+03  2.95070E+03  1.61749E+03  3.12908E+03
 -1.67097E+03  6.15871E+03 -3.46986E+03  4.69228E+03 -5.42406E+03  2.03017E+03 -6.75459E+03 -1.89822E+03
 -2.25622E+03 -6.96891E+03  1.27417E+03 -6.92864E+03  2.37661E+03 -5.07638E+03  4.20840E+03 -1.53425E+03
  3.46948E+03  1.70628E+03  1.47216E+03  4.14240E+03 -1.90429E+03  2.30674E+03 -2.53719E+03 -9.46848E+02
 -3.57369E+02 -1.90596E+03  3.04242E+03 -2.42864E+03  2.09702E+03 -1.61783E+03  2.45762E+03  4.26935E+02
  1.29364E+03  1.61746E+03  1.39210E+03  7.09407E+02 -1.32034E+02  8.94287E+02  1.52435E+03 -1.37654E+03
  2.82367E+02  1.72138E+02  2.12002E+03  1.60725E+03  8.25385E+02  2.78445E+03 -5.50586E+02  3.98201E+03
 -2.39978E+03  2.34477E+03 -3.81803E+03  1.52397E+03 -2.96003E+03 -1.62111E+03 -2.22022E+03 -1.70663E+03
  4.20555E+02 -2.59762E+03  1.93132E+03 -7.96678E+02  8.13089E+02  1.28601E+03 -9.38759E+02  8.03343E+02
 -4.63598E+03  1.57355E+03 -2.25112E+03 -2.09119E+03 -1.30433E+03 -3.29171E+03 -5.12410E+02 -2.55219E+03
  1.54610E+03 -6.78187E+02  7.15126E+02 -8.27371E+02  2.21307E+03  6.31046E+02 -4.44579E+02  2.96253E+03
 -3.10546E+02  1.54409E+02 -2.71645E+03 -1.22221E+03  8.51926E+02 -2.39702E+03  3.27742E+03 -2.13553E+03
  2.65742E+03  2.33029E+02  3.78236E+03  1.81752E+03  1.69300E+03  3.05424E+03 -1.06105E+03  3.19801E+03
 -2.72352E+03 -3.37268E+02 -3.13787E+03 -9.51464E+02 -2.09598E+03 -2.85988E+03  1.75364E+03 -2.13680E+03
  2.75320E+03 -1.47823E+03  1.20439E+03  1.33276E+03  5.15051E+02  1.95822E+03  9.19283E+02  2.09085E+03
 -1.94711E+03  5.02323E+02 -1.62614E+03  1.17304E+03  5.06683E+01  1.09472E+02 -5.20761E+02  8.35952E+02
 -1.60545E+03  5.36929E+02 -2.65023E+03  1.95630E+03 -3.36913E+03  6.23325E+02 -4.17564E+03 -2.25453E+03
 -2.25202E+03 -4.82576E+03  1.08954E+03 -5.03029E+03  1.80486E+03 -4.13705E+03  4.62099E+03 -1.58270E+03
  4.54481E+03 -9.78362E+01  3.81148E+03  2.59465E+03 -6.44588E+02  3.42686E+03 -1.32627E+03  2.12553E+03
 -2.68999E+03  1.16905E+03 -1.57877E+03 -6.52010E+02 -9.88846E+02  4.64541E+02 -2.28340E+03 -7.76053E+02
 -1.93520E+03 -6.78018E+02 -1.06977E+03 -3.14045E+02 -2.33803E+02 -1.79544E+03 -2.81229E+01 -1.51102E+03
  2.30132E+03 -5.01394E+02  1.77830E+02 -2.00318E+02  2.90690E+03  1.89328E+03  8.73062E+02  3.03487E+03
 -1.89488E+03  2.91688E+03 -2.50596E+03  2.20201E+03 -4.40202E+03 -9.81196E+02 -3.78852E+03 -2.32565E+03
 -2.40368E+03 -2.93171E+03  5.72571E+02 -1.96650E+03  2.05917E+03 -6.11299E+02  1.11545E+03  6.78163E+02
  1.85808E+03  7.75629E+02 -2.64977E+02  1.56589E+02  2.75532E+02 -6.14182E+02  3.00988E+02 -5.15249E+02
  1.48520E+03  6.60164E+00  1.45022E+03 -2.82916E+02 -3.50313E+02  1.45958E+03 -2.02819E+02  7.69712E+02
 -1.57676E+03  7.30929E+02 -7.07311E+02  1.21646E+02 -2.72247E+03 -1.85172E+03  4.25570E+00 -2.75506E+03
  2.01954E+03 -2.23634E+03  3.02461E+02 -1.44563E+02  2.51360E+03 -1.62383E+02  8.87941E+02  1.78577E+03
 -4.28641E+02  1.88869E+03 -1.21054E+03  1.13250E+03  1.28203E+02  8.32272E+02 -1.07508E+03  7.61638E+02
 -1.03121E+03 -1.09833E+03 -1.64511E+03  1.25447E+02 -8.54513E+02  5.31904E+02 -2.73567E+03 -1.97918E+03
 -9.22986E+02 -1.21456E+02 -4.53076E+02 -2.10172E+03  4.27725E+00 -2.26405E+03  2.33202E+03 -8.56484E+02
  2.55040E+03  6.35900E+02  5.96751E+02  1.11536E+03 -5.93706E+02  2.67449E+03 -8.98544E+02  1.17439E+03
