 $NMID ID='MM_0lb_SNR200_11hz_g45_33.RAW', FMTDAT='(8E13.5)'
 TRAMP=1., VOLUME=1. $END
  3.09654E+05  7.92556E+02  3.36598E+05  2.48868E+05  8.63003E+04  3.37940E+05 -1.33389E+05  2.50082E+05
 -1.89797E+05  8.26181E+04 -1.10669E+05 -3.27075E+04 -1.70112E+02 -5.07601E+04  5.31320E+04  9.29788E+02
  3.46218E+04  5.21268E+04 -1.77809E+04  7.60433E+04 -6.07715E+04  6.42812E+04 -8.45619E+04  3.30753E+04
 -8.22642E+04 -1.11643E+04 -5.62564E+04 -5.25456E+04 -1.62009E+04 -6.89671E+04  2.64228E+04 -4.70281E+04
  4.20640E+04  4.17232E+03  1.54565E+04  4.73722E+04 -3.39743E+04  4.79097E+04 -6.68128E+04 -3.23912E+02
 -5.42059E+04 -5.89053E+04 -7.59005E+03 -7.86459E+04  3.52186E+04 -5.55046E+04  4.88837E+04 -1.67053E+04
  4.51018E+04  1.13182E+04  3.26717E+04  2.51409E+04  1.72467E+04  2.95125E+04 -6.18549E+03  2.70866E+04
 -2.21473E+04  1.10625E+04 -1.86593E+04 -5.14629E+03  4.07506E+03 -5.84375E+03  2.22772E+04  1.21903E+04
  6.93934E+03  3.57155E+04 -3.24787E+04  3.61253E+04 -6.39499E+04  2.82330E+03 -5.93603E+04 -4.40769E+04
 -1.28860E+04 -6.49724E+04  4.11657E+04 -4.62071E+04  5.96276E+04 -3.31682E+03  3.55977E+04  3.25862E+04
 -4.15722E+03  3.78808E+04 -3.08090E+04  1.78457E+04 -3.19949E+04 -3.85320E+03 -1.83516E+04 -1.18974E+04
 -9.13482E+03 -1.46279E+04 -1.99788E+03 -1.94556E+04  8.05800E+03 -2.34166E+04  1.52661E+04 -1.18964E+04
  1.07894E+04  5.62460E+03 -9.43081E+03  1.27843E+04 -2.16050E+04 -6.93589E+03 -8.64345E+03 -3.48153E+04
  2.36880E+04 -4.44542E+04  5.13462E+04 -2.06317E+04  4.71979E+04  2.10479E+04  1.54853E+04  4.62635E+04
 -1.74593E+04  3.45075E+04 -2.73678E+04  1.35346E+03 -1.16816E+04 -2.94332E+04  2.10011E+04 -3.62305E+04
  4.20205E+04 -9.96172E+03  3.92081E+04  2.39892E+04  2.05403E+04  4.69104E+04 -7.87001E+03  5.37285E+04
 -3.37438E+04  3.60545E+04 -4.57374E+04  1.00586E+04 -4.55456E+04 -1.86607E+04 -2.38863E+04 -3.95291E+04
  8.31143E+03 -3.99951E+04  3.36501E+04 -1.63301E+04  2.99066E+04  1.16043E+04  3.56783E+03  2.08540E+04
 -1.33230E+04  9.16110E+03 -1.12132E+04 -6.60815E+03  5.81306E+03 -1.25559E+04  1.81100E+04  5.14806E+03
  1.45910E+04  2.20503E+04 -5.17596E+03  2.63146E+04 -2.27481E+04  1.15584E+04 -3.04442E+04 -4.37457E+03
 -2.44468E+04 -1.81134E+04 -9.86804E+03 -2.27392E+04  4.07441E+03 -2.30530E+04  1.66377E+04 -2.03932E+04
  2.89115E+04 -1.33107E+04  3.53881E+04  4.16667E+03  2.67707E+04  2.17195E+04  4.39374E+03  3.84789E+04
 -1.95430E+04  3.15632E+04 -2.82777E+04  1.06120E+04 -2.12621E+04 -1.00525E+04 -5.67409E+03 -1.30693E+04
  6.05863E+02 -2.35597E+03 -6.33153E+03  8.11439E+03 -1.88356E+04  4.52996E+03 -1.79402E+04 -7.89049E+03
 -1.17026E+04 -2.37132E+04  4.32488E+03 -2.63355E+04  1.66980E+04 -1.82174E+04  1.98671E+04 -1.05644E+03
  1.31563E+04  1.57255E+04  7.75350E+01  1.98574E+04 -1.57214E+04  1.38084E+04 -2.13893E+04 -3.43215E+03
 -1.62380E+04 -1.91911E+04 -2.78141E+03 -2.60557E+04  1.25691E+04 -2.15429E+04  2.05638E+04 -1.20803E+04
  1.99961E+04 -8.85583E+02  1.54098E+04  4.57165E+03  8.22500E+03  1.97260E+03  1.08927E+04 -1.18242E+03
  2.03277E+04  1.92967E+03  2.12157E+04  1.60706E+04  1.40697E+04  3.35170E+04 -1.47785E+03  4.05369E+04
 -2.30155E+04  3.19080E+04 -3.75977E+04  1.71904E+04 -3.87266E+04 -3.83171E+03 -3.36561E+04 -2.20473E+04
 -1.27457E+04 -3.15292E+04  1.14721E+04 -2.88180E+04  2.40634E+04 -1.28698E+04  2.23855E+04  6.32900E+03
  7.27403E+03  1.59490E+04 -1.09484E+04  1.56144E+04 -1.66678E+04  3.41939E+03 -1.40491E+04 -1.19856E+04
 -8.88957E+01 -1.72887E+04  8.74924E+03 -1.35928E+04  1.15570E+04 -2.57645E+02  2.49271E+03  6.83900E+03
 -7.97530E+03  4.37158E+03 -8.28829E+03 -7.28044E+03 -1.11560E+03 -1.50011E+04  1.01367E+04 -1.58433E+04
  1.90415E+04 -9.44319E+03  2.20781E+04  4.33216E+03  1.88790E+04  1.57396E+04  8.54772E+03  2.48056E+04
 -6.02390E+03  2.68677E+04 -1.77787E+04  1.59104E+04 -1.97213E+04  3.61661E+03 -1.18797E+04 -4.06086E+03
 -6.59155E+03 -6.69386E+03  5.25883E+02  3.00605E+02 -3.18609E+03  2.58275E+03 -6.62345E+03  4.43655E+03
 -1.31595E+04 -1.89649E+03 -1.31819E+04 -1.07049E+04 -5.63980E+03 -1.65085E+04  6.04056E+03 -1.29930E+04
  1.24089E+04 -6.44167E+03  8.45763E+03  3.92480E+03 -2.72024E+02  4.39419E+03 -6.48677E+03 -1.07021E+03
 -6.98074E+03 -8.00937E+03 -1.11723E+02 -1.37284E+04  8.33032E+03 -1.32831E+04  1.79281E+04 -7.87062E+03
  2.01156E+04  1.76015E+03  1.41679E+04  1.18578E+04  3.13330E+03  1.59625E+04 -9.29590E+03  1.38128E+04
 -1.05498E+04  4.79654E+03 -6.35975E+03 -2.11675E+03  3.38166E+03 -3.41138E+03  6.41706E+03 -1.85993E+03
  5.65799E+03  4.47759E+03  9.94768E+02  9.70170E+03 -7.48631E+03  9.91565E+03 -1.38374E+04  3.35149E+03
 -9.06938E+03 -7.45407E+03 -7.29996E+01 -1.17458E+04  7.65526E+03 -5.40964E+03  7.33345E+03  2.99620E+03
  1.07733E+03  8.39062E+03 -7.32684E+03  9.82693E+03 -1.11368E+04  4.10111E+03 -1.12091E+04 -3.44589E+03
 -6.18549E+03 -1.22481E+04  2.65768E+03 -1.34647E+04  1.31230E+04 -7.69714E+03  1.31901E+04  3.07023E+03
  8.37612E+03  1.03186E+04 -1.32244E+03  1.24794E+04 -1.00456E+04  7.07639E+03 -9.75454E+03 -1.09395E+03
 -8.89160E+03 -9.53890E+03 -1.72912E+03 -1.04487E+04  5.09316E+03 -9.33980E+03  6.35044E+03 -2.95275E+03
  3.65820E+03  3.97272E+02 -2.28567E+03  1.67133E+03 -9.71716E+02 -2.60485E+03  2.88234E+03 -5.78850E+03
  1.04902E+04 -3.94655E+03  1.17778E+04  2.05697E+03  1.33062E+04  9.45391E+03  9.98468E+03  1.63964E+04
 -3.64661E+03  2.05466E+04 -1.49934E+04  1.41751E+04 -2.03255E+04  2.07664E+03 -1.72830E+04 -8.02690E+03
 -7.66664E+03 -1.25054E+04  6.24689E+01 -1.09709E+04  5.39542E+03 -5.75944E+03  3.63913E+03 -4.04903E+03
  2.92250E+03 -2.70282E+03  2.69203E+03 -2.90468E+03  5.04791E+03 -2.73550E+03  7.32946E+03 -9.58126E+02
  9.57213E+03  7.94229E+02  3.31475E+03  7.24380E+03 -2.88740E+03  9.23085E+03 -9.68654E+03  7.19164E+03
 -1.18411E+04 -1.10122E+03 -7.39070E+03 -6.56224E+03 -1.15961E+03 -1.07449E+04  6.90161E+03 -1.28145E+04
  1.23725E+04 -7.76878E+03  1.55986E+04  3.35270E+03  1.01943E+04  1.01436E+04  3.71994E+02  1.32147E+04
 -6.22726E+03  1.04911E+04 -9.53478E+03  4.25310E+03 -6.31477E+03 -1.44054E+03 -2.44683E+03 -1.84696E+03
 -1.23781E+03  3.18595E+02 -1.94290E+03  2.60872E+03 -5.65554E+03  1.62234E+03 -8.97962E+03 -1.27332E+03
 -5.98118E+03 -6.90019E+03 -7.94134E+02 -1.10256E+04  7.14601E+03 -1.09437E+04  1.09537E+04 -2.35559E+03
  1.01537E+04  5.92318E+03  5.01762E+03  9.42325E+03 -1.49786E+03  1.15698E+04 -7.34274E+03  7.61137E+03
 -1.16220E+04  3.88299E+02 -8.53695E+03 -7.46158E+03 -1.65109E+03 -8.41219E+03  4.98502E+03 -7.31106E+03
  7.20751E+03 -1.03081E+03  5.34525E+03  2.61455E+03  2.05384E+01  1.36073E+03  1.08387E+03  8.66077E+02
  2.24118E+03  1.35937E+03  2.20163E+03  2.24573E+03  3.11698E+03  4.94487E+03  3.21022E+03  4.29394E+03
 -2.16151E+03  8.22862E+03 -8.83131E+03  9.16716E+03 -1.19920E+04  2.49499E+03 -1.12128E+04 -5.26046E+03
 -5.61724E+03 -1.05649E+04  1.72282E+03 -1.23457E+04  6.26725E+03 -8.86920E+03  8.86692E+03 -1.60282E+03
  6.94980E+03  4.85432E+03  1.75184E+03  6.85447E+03 -2.71659E+03  2.78643E+03 -4.04337E+03 -1.34924E+03
 -2.13118E+03 -4.93116E+03  3.24900E+03 -3.99012E+03  3.77051E+03 -2.79723E+03  3.63859E+03  4.62763E+02
  3.40105E+03  8.74979E+02  1.00118E+03  2.89670E+03 -6.18671E+02  1.11084E+03  2.62827E+03 -2.23248E+03
  2.76292E+03 -5.81032E+01  4.91550E+03  1.45023E+03  1.64489E+03  6.34723E+03 -9.81859E+02  7.05071E+03
 -5.44112E+03  4.50365E+03 -7.89476E+03  1.66609E+03 -6.00994E+03 -2.50662E+03 -2.40760E+03 -4.37012E+03
  8.04533E+02 -4.01844E+03  2.27828E+03 -1.63681E+03  1.96126E+03  1.69596E+03 -2.00011E+03  3.58009E+03
 -4.99811E+03  2.35636E+03 -5.45713E+03 -3.37397E+03 -3.14103E+03 -5.99862E+03  1.09834E+03 -6.00814E+03
  4.72897E+03 -3.61405E+03  3.12382E+03 -2.21690E+02  3.44057E+03  2.23013E+03  1.40707E+03  3.30413E+03
 -2.81262E+03  1.03365E+03 -3.10913E+03 -7.16332E+02  1.68348E+03 -4.37955E+03  3.55056E+03 -3.41391E+03
  5.45406E+03  3.82921E+01  8.10039E+03  4.57149E+03  4.82836E+02  5.74595E+03 -2.41319E+03  6.00007E+03
 -5.65317E+03  1.79724E+03 -5.75416E+03 -9.23492E+02 -3.32675E+03 -4.39171E+03  1.46926E+03 -4.30665E+03
  5.53054E+03 -1.38358E+03  2.26193E+03  3.31739E+03  1.13360E+03  3.63252E+03 -7.32666E+02  2.27145E+03
 -1.83177E+03  1.83972E+03 -8.76659E+02  5.44238E+02 -1.90400E+03  1.23741E+03 -2.18247E+03  1.79442E+03
 -1.94717E+03  9.15748E+02 -3.59525E+03  2.83721E+03 -5.68284E+03 -7.04045E+01 -8.41562E+03 -5.04993E+03
 -2.38301E+03 -9.45658E+03  1.20315E+03 -1.08682E+04  6.57156E+03 -7.05551E+03  1.05480E+04 -2.06093E+03
  9.25814E+03  1.48543E+03  5.53108E+03  6.55282E+03  5.38802E+02  5.91095E+03 -3.32577E+03  5.86110E+03
 -4.64309E+03  2.92076E+03 -2.20229E+03 -1.83063E+02 -1.46550E+03 -2.50803E+02  4.66597E+02 -1.50217E+02
 -1.01579E+03 -8.90474E+02 -1.04694E+03 -7.56834E+01  2.90508E+01 -1.61162E+03 -1.55063E+01 -2.27693E+03
  1.89299E+03 -2.23595E+03  4.37137E+03 -2.03421E+02  5.66561E+03  2.88398E+03  6.72812E+02  7.62490E+03
 -3.41780E+03  7.74803E+03 -5.89993E+03  3.54329E+03 -7.89333E+03 -7.27103E+02 -5.95488E+03 -5.65227E+03
 -3.68885E+03 -6.68366E+03  1.83784E+03 -4.96252E+03  5.32134E+03 -4.21026E+03  2.61849E+03  7.77219E+02
  3.62753E+03  2.74565E+03  2.15875E+02  1.34216E+03 -1.57706E+03  4.46004E+02  6.61900E+02 -3.94653E+03
  1.79136E+03 -8.64926E+02  2.63028E+03  1.21401E+03  1.71351E+03  2.37436E+03  3.46946E+01  3.55597E+03
 -2.46798E+03  2.65495E+03 -6.03284E+03  1.24108E+02 -5.30452E+03 -2.79383E+03 -5.21918E+02 -6.03336E+03
  3.90984E+03 -4.21346E+03  5.20141E+03 -5.26799E+02  4.76526E+03 -1.00041E+02  3.44332E+03  5.10813E+03
  9.85849E+02  4.88745E+03 -5.13874E+02  3.09743E+03 -3.49537E+03  2.26030E+03 -2.57465E+03  7.02725E+02
 -1.13963E+03 -4.14859E+02 -1.33343E+03  1.49844E+03 -3.27880E+03  1.60677E+03 -3.23679E+03 -7.77072E+02
 -5.15074E+03 -2.65046E+03 -1.50274E+03 -4.12842E+03  2.02437E+03 -4.52015E+03  4.15296E+03 -3.70646E+03
  5.26049E+03  1.61029E+02  1.33742E+03  3.58562E+03 -1.57800E+03  4.36163E+03 -3.60092E+03  3.19237E+03
