 $NMID ID='MM_0lb_SNR200_9hz_g50_49.RAW', FMTDAT='(8E13.5)'
 TRAMP=1., VOLUME=1. $END
  3.09925E+05  5.58066E+01  3.37122E+05  2.51226E+05  8.44466E+04  3.38989E+05 -1.32491E+05  2.52221E+05
 -1.91189E+05  8.42856E+04 -1.10104E+05 -3.17918E+04  1.29125E+03 -5.19539E+04  5.30033E+04 -3.48189E+02
  3.55591E+04  5.28398E+04 -1.72546E+04  7.67758E+04 -6.01406E+04  6.34457E+04 -8.49452E+04  3.26260E+04
 -8.28937E+04 -1.18749E+04 -5.76825E+04 -5.33503E+04 -1.50977E+04 -7.07996E+04  2.87898E+04 -4.72878E+04
  3.95644E+04  4.11228E+03  1.79585E+04  4.71275E+04 -3.48002E+04  4.86232E+04 -6.75303E+04  4.33000E+02
 -5.34691E+04 -5.72811E+04 -8.25734E+03 -7.92278E+04  3.49764E+04 -5.65575E+04  5.02705E+04 -1.96522E+04
  4.42510E+04  1.16724E+04  3.41275E+04  2.78260E+04  1.51279E+04  3.08185E+04 -6.27280E+03  2.72419E+04
 -2.31203E+04  1.17040E+04 -1.86519E+04 -5.98363E+03  7.10174E+03 -8.24997E+03  2.17162E+04  1.25544E+04
  7.43341E+03  3.83229E+04 -3.34871E+04  3.67849E+04 -6.73509E+04  3.00510E+03 -5.87590E+04 -4.37656E+04
 -1.37714E+04 -6.55129E+04  4.20704E+04 -4.83045E+04  6.08527E+04 -2.41086E+03  3.62017E+04  3.53152E+04
 -6.48897E+03  3.91949E+04 -3.20907E+04  1.90587E+04 -3.22786E+04 -2.52279E+03 -1.93897E+04 -1.11360E+04
 -9.04715E+03 -1.45675E+04 -2.33387E+03 -1.84223E+04  1.00817E+04 -2.35695E+04  1.86982E+04 -1.30362E+04
  1.27039E+04  7.49216E+03 -8.08640E+03  1.11917E+04 -2.42572E+04 -6.17260E+03 -9.35378E+03 -3.80153E+04
  2.46844E+04 -4.82513E+04  5.10997E+04 -2.24620E+04  4.87070E+04  2.07282E+04  1.81664E+04  4.77438E+04
 -1.65087E+04  3.68088E+04 -2.83654E+04  3.18082E+03 -1.16503E+04 -2.89957E+04  1.97949E+04 -3.61480E+04
  4.73111E+04 -1.12973E+04  4.05408E+04  2.41254E+04  2.14514E+04  5.15313E+04 -7.97012E+03  5.55766E+04
 -3.62584E+04  3.68709E+04 -4.81752E+04  9.61621E+03 -4.74366E+04 -1.73436E+04 -2.69269E+04 -4.06838E+04
  9.13913E+03 -4.15460E+04  3.43028E+04 -1.60836E+04  3.34635E+04  1.12239E+04  4.04958E+03  2.00483E+04
 -1.38487E+04  1.05604E+04 -9.89905E+03 -8.05957E+03  6.26080E+03 -1.01189E+04  1.95596E+04  4.65341E+03
  1.44602E+04  2.25609E+04 -5.96036E+03  2.75354E+04 -2.45080E+04  1.39210E+04 -3.04472E+04 -1.95469E+03
 -2.51693E+04 -1.76131E+04 -1.19782E+04 -2.67472E+04  4.01930E+03 -2.59919E+04  1.99386E+04 -2.41613E+04
  3.12905E+04 -1.33805E+04  3.74009E+04  4.36632E+03  2.72383E+04  2.39409E+04  6.13226E+03  4.14678E+04
 -2.05349E+04  3.26993E+04 -2.90222E+04  1.21582E+04 -2.24702E+04 -1.12631E+04 -5.33793E+03 -1.12620E+04
  2.65668E+03  9.72899E+02 -6.77567E+03  8.57912E+03 -2.17597E+04  4.92588E+03 -2.19019E+04 -1.04775E+04
 -1.04889E+04 -2.37416E+04  7.36014E+03 -2.78342E+04  1.89291E+04 -1.90268E+04  2.40048E+04 -2.31192E+03
  1.49175E+04  1.76396E+04 -2.00741E+03  2.37049E+04 -1.69750E+04  1.27210E+04 -2.25413E+04 -4.56318E+03
 -1.77863E+04 -2.20331E+04 -3.23319E+03 -2.87871E+04  1.19860E+04 -2.43947E+04  2.22297E+04 -1.26046E+04
  2.14830E+04  2.62819E+02  1.53185E+04  5.21314E+03  8.84698E+03  5.35099E+02  1.18927E+04 -1.32633E+03
  2.27723E+04  3.56010E+03  2.46250E+04  1.76212E+04  1.79286E+04  3.81200E+04 -2.72372E+03  4.34539E+04
 -2.38752E+04  3.74383E+04 -4.07202E+04  2.02197E+04 -4.42381E+04 -2.26716E+03 -3.58272E+04 -2.46863E+04
 -1.44244E+04 -3.76457E+04  1.35126E+04 -3.30970E+04  2.82071E+04 -1.63864E+04  2.41217E+04  6.65676E+03
  6.92427E+03  2.01088E+04 -1.13225E+04  1.63721E+04 -1.93216E+04  3.30776E+03 -1.58161E+04 -1.27893E+04
 -3.18390E+02 -1.91002E+04  9.55411E+03 -1.42195E+04  1.21940E+04 -1.29623E+03  1.76839E+03  7.55124E+03
 -9.04685E+03  3.86830E+03 -9.59879E+03 -6.62051E+03 -1.25140E+03 -1.80922E+04  1.08372E+04 -1.96927E+04
  2.11715E+04 -1.02825E+04  2.61146E+04  3.52874E+03  2.30680E+04  1.88268E+04  9.85964E+03  3.12232E+04
 -6.25527E+03  3.05380E+04 -1.96701E+04  2.00141E+04 -2.21998E+04  3.84396E+03 -1.54126E+04 -5.30461E+03
 -6.26075E+03 -7.69039E+03 -1.38917E+03 -2.81695E+02 -2.87333E+03  2.93772E+03 -6.77664E+03  5.65669E+03
 -1.56905E+04 -1.82034E+02 -1.63086E+04 -1.10024E+04 -6.16913E+03 -1.93141E+04  7.39183E+03 -1.50118E+04
  1.21500E+04 -7.61242E+03  9.46095E+03  4.94123E+03 -9.27504E+02  7.47620E+03 -7.51786E+03  1.47347E+03
 -6.76080E+03 -1.06532E+04 -1.58062E+03 -1.53362E+04  9.23862E+03 -1.54284E+04  1.83721E+04 -8.98884E+03
  2.28821E+04  2.90804E+03  1.63008E+04  1.68880E+04  3.80732E+03  1.86034E+04 -1.03875E+04  1.59970E+04
 -1.21923E+04  5.20983E+03 -7.37149E+03 -3.65513E+03  2.68344E+03 -4.53890E+03  8.80102E+03 -1.69967E+03
  6.28959E+03  7.47044E+03  1.00547E+03  1.31738E+04 -8.66549E+03  1.10506E+04 -1.75863E+04  4.44814E+03
 -9.69242E+03 -7.67506E+03  1.25084E+03 -1.38623E+04  7.70083E+03 -5.89760E+03  8.54257E+03  3.01999E+03
  9.31886E+02  9.88187E+03 -8.91127E+03  1.10668E+04 -1.35337E+04  4.83019E+03 -1.39384E+04 -6.64169E+03
 -9.07513E+03 -1.58958E+04  4.56115E+03 -1.76810E+04  1.53750E+04 -9.76961E+03  1.65358E+04  3.28736E+03
  1.05947E+04  1.11994E+04 -1.29184E+03  1.69796E+04 -1.14662E+04  8.36698E+03 -1.47954E+04 -9.89682E+02
 -1.06873E+04 -9.78123E+03 -2.94234E+03 -1.31066E+04  5.77920E+03 -1.05457E+04  8.30182E+03 -3.32007E+03
  4.99560E+03  3.06731E+03 -3.67215E+02  9.37022E+02 -3.36938E+02 -2.52794E+03  2.51535E+03 -7.50252E+03
  1.15431E+04 -4.90713E+03  1.60633E+04  2.41423E+03  1.31734E+04  1.01767E+04  1.04761E+04  2.19544E+04
 -3.26596E+03  2.41835E+04 -2.09545E+04  1.81031E+04 -2.61887E+04  3.11163E+03 -2.14397E+04 -1.04688E+04
 -9.75185E+03 -1.73005E+04  7.24694E+02 -1.42840E+04  5.71501E+03 -8.31077E+03  6.40697E+03 -5.12167E+03
  4.30677E+03 -3.30889E+03  3.87846E+03 -4.11369E+03  5.77860E+03 -3.76357E+03  8.53641E+03 -2.15399E+03
  1.09838E+04  2.66725E+03  6.70493E+03  8.05238E+03 -1.99056E+03  1.25733E+04 -1.09963E+04  1.08322E+04
 -1.47857E+04 -6.36104E+02 -9.90966E+03 -9.99146E+03 -1.74927E+03 -1.69897E+04  8.89821E+03 -1.64678E+04
  1.72451E+04 -8.19795E+03  1.97120E+04  1.79968E+03  1.43841E+04  1.42219E+04  1.51609E+03  1.70148E+04
 -6.53715E+03  1.41007E+04 -8.73740E+03  4.00626E+03 -7.39358E+03 -8.71028E+01 -3.73429E+03 -2.04147E+03
 -9.55407E+02 -2.20611E+03 -3.07574E+03  2.84920E+03 -6.08830E+03  2.77798E+03 -8.83310E+03 -2.49982E+03
 -7.84485E+03 -9.33597E+03 -1.43552E+03 -1.47649E+04  9.67373E+03 -1.28754E+04  1.39142E+04 -3.08277E+03
  1.44503E+04  6.80901E+03  6.04734E+03  1.36822E+04 -3.70907E+03  1.50482E+04 -1.03553E+04  9.61555E+03
 -1.41266E+04  4.50596E+02 -1.01957E+04 -9.45910E+03 -1.56509E+03 -1.20097E+04  6.89534E+03 -8.29622E+03
  9.93306E+03 -2.60224E+03  6.31827E+03  2.80466E+03  2.82540E+03  4.81053E+03  8.71550E+02  3.01175E+03
  3.76928E+03  5.22964E+02  2.26984E+03  7.03548E+02  4.47223E+03  5.63510E+03  4.08307E+03  6.75208E+03
 -4.16714E+03  1.30644E+04 -1.10769E+04  1.08973E+04 -1.43417E+04  2.93972E+03 -1.61632E+04 -6.58081E+03
 -7.57783E+03 -1.42619E+04  2.37497E+03 -1.48911E+04  9.42149E+03 -1.03755E+04  1.20273E+04 -2.46693E+03
  9.27364E+03  4.32743E+03  4.19593E+03  8.93920E+03 -3.98776E+03  6.84719E+03 -7.35649E+03  3.12412E+02
 -2.36792E+03 -5.64375E+03  4.35401E+03 -5.32712E+03  8.12979E+03 -3.70627E+03  6.24909E+03  1.61456E+03
  3.24588E+03  4.60711E+03  1.69371E+03  2.76302E+03 -2.53610E+02  1.79590E+03  1.37807E+03 -2.06707E+03
  2.58614E+03 -2.78498E+03  5.18264E+03  3.13687E+03  3.38851E+03  7.99252E+03 -2.26342E+03  1.13843E+04
 -7.47588E+03  6.72552E+03 -9.15814E+03  1.40145E+03 -1.05679E+04 -9.43090E+02 -4.24883E+03 -6.39421E+03
  8.82480E+02 -6.80176E+03  2.33725E+03 -3.08451E+03  3.59878E+03  3.14761E+03 -1.36822E+03  5.88684E+03
 -5.64067E+03  4.30516E+03 -8.29341E+03 -2.45042E+03 -1.58685E+03 -7.33849E+03  6.48056E+02 -8.39512E+03
  3.71293E+03 -4.31885E+03  6.28720E+03 -9.17807E+02  4.91102E+03  2.42854E+02 -2.07810E+02  5.60941E+03
 -2.37897E+03  8.99566E+02 -4.73026E+03 -2.55816E+03  2.07252E+03 -6.14550E+03  8.24904E+03 -5.51628E+03
  8.85088E+03  1.24487E+03  9.60516E+03  6.08644E+03  1.41215E+03  9.21851E+03 -2.76230E+03  9.61254E+03
 -8.92718E+03  4.85560E+03 -9.50023E+03 -1.26940E+03 -4.01594E+03 -7.78378E+03  2.97959E+03 -5.44150E+03
  6.03510E+03 -4.72766E+03  5.43405E+03  2.90620E+03  3.88545E+03  6.10914E+03  4.21054E+01  4.39716E+03
 -1.51516E+03  4.03933E+03 -2.52446E+03  1.24782E+03 -6.30662E+02  1.62824E+03 -1.66465E+03  1.88064E+03
 -2.66142E+03  4.11466E+03 -7.54778E+03  3.29830E+03 -9.60605E+03  5.72894E+02 -9.86778E+03 -6.69263E+03
 -4.37089E+03 -1.35082E+04  3.55963E+03 -1.59767E+04  9.99662E+03 -1.15699E+04  1.54947E+04 -5.47237E+03
  1.31125E+04  2.69941E+03  8.10350E+03  1.02852E+04  2.18229E+03  9.76104E+03 -6.00695E+03  7.66604E+03
 -5.61506E+03  2.91319E+03 -3.68282E+03 -1.94826E+03 -5.39991E+02 -1.08548E+03  1.02824E+03 -5.47512E+02
 -8.10238E+01  1.08214E+02 -1.56108E+03 -1.31023E+03 -1.19246E+03 -9.63710E+02 -7.30524E+02 -1.68652E+03
  4.53398E+03 -2.73358E+03  7.23803E+03 -3.74625E+02  7.65189E+03  6.10346E+03  2.38136E+03  1.08002E+04
 -5.28934E+03  1.13260E+04 -1.06071E+04  6.03346E+03 -1.23846E+04 -1.16707E+03 -9.36693E+03 -6.14915E+03
 -2.97856E+03 -1.19358E+04  2.16601E+03 -1.09632E+04  7.27469E+03 -4.39641E+03  7.08510E+03 -1.31013E+03
  4.81324E+03  4.81538E+03 -9.43106E+01  2.56934E+03 -8.18487E+02 -8.03374E+01  3.54497E+02 -3.31647E+03
  4.52090E+03 -3.08548E+03  2.34292E+03  1.38436E+03  2.59135E+03  5.66743E+03  3.37428E+02  5.12541E+03
 -5.27736E+03  5.08471E+03 -5.75863E+03 -4.43331E+01 -6.51433E+03 -6.30302E+03 -2.95127E+02 -9.25634E+03
  6.42830E+03 -7.86617E+03  8.91998E+03 -2.41986E+03  7.89720E+03  1.52531E+03  5.42661E+03  6.89199E+03
  8.87359E+02  8.19036E+03 -4.00008E+03  5.97910E+03 -4.29812E+03  3.36223E+03 -3.93550E+03  2.98897E+03
 -3.71878E+03 -1.78095E+02 -1.54236E+03 -1.32909E+02 -3.95582E+03  2.89842E+03 -5.02789E+03 -2.06769E+03
 -4.26526E+03 -4.49361E+03 -6.85002E+02 -7.00509E+03  3.99955E+03 -7.98701E+03  5.60037E+03 -3.88811E+03
  6.31435E+03  1.26097E+03  5.44713E+03  5.45400E+03 -1.62096E+03  6.01532E+03 -5.38172E+03  4.33831E+03
