 $NMID ID='MM_0lb_SNR200_10hz_g40_58.RAW', FMTDAT='(8E13.5)'
 TRAMP=1., VOLUME=1. $END
  3.10198E+05  3.51608E+02  3.37561E+05  2.51487E+05  8.49247E+04  3.37609E+05 -1.32211E+05  2.51772E+05
 -1.90687E+05  8.30452E+04 -1.11789E+05 -3.27782E+04  2.01570E+02 -5.07349E+04  5.41027E+04  1.13519E+02
  3.60663E+04  5.22888E+04 -1.74504E+04  7.58719E+04 -5.93915E+04  6.42303E+04 -8.33624E+04  3.21787E+04
 -8.19562E+04 -1.03108E+04 -5.77529E+04 -5.11570E+04 -1.41013E+04 -7.00834E+04  2.84256E+04 -4.80095E+04
  4.00670E+04  4.49516E+03  1.59500E+04  4.89010E+04 -3.45879E+04  4.70394E+04 -6.61978E+04 -4.37443E+02
 -5.24437E+04 -5.68226E+04 -7.15294E+03 -7.65595E+04  3.43043E+04 -5.47190E+04  4.82847E+04 -1.78328E+04
  4.47724E+04  1.10661E+04  3.37019E+04  2.76941E+04  1.59130E+04  3.03565E+04 -4.95878E+03  2.76883E+04
 -2.39368E+04  1.20157E+04 -1.76361E+04 -4.88510E+03  5.81321E+03 -6.41001E+03  2.18603E+04  1.41185E+04
  6.02201E+03  3.69354E+04 -3.38856E+04  3.70266E+04 -6.51741E+04  3.16979E+03 -5.80521E+04 -4.25143E+04
 -1.15595E+04 -6.47839E+04  4.05326E+04 -4.68659E+04  5.86076E+04 -1.89546E+03  3.59752E+04  3.33208E+04
 -5.77259E+03  3.76988E+04 -3.06546E+04  1.76686E+04 -3.21963E+04 -3.62549E+03 -1.79209E+04 -1.11499E+04
 -8.37961E+03 -1.37203E+04  3.69005E+01 -1.93063E+04  5.91387E+03 -2.25290E+04  1.57104E+04 -1.28077E+04
  1.18805E+04  5.05700E+03 -9.65939E+03  1.35342E+04 -2.14933E+04 -6.37977E+03 -8.16115E+03 -3.55954E+04
  2.46347E+04 -4.59165E+04  4.95495E+04 -2.00729E+04  4.74440E+04  1.97986E+04  1.72862E+04  4.67212E+04
 -1.65309E+04  3.60251E+04 -2.60599E+04  2.50820E+03 -1.02048E+04 -2.81021E+04  2.13875E+04 -3.54412E+04
  4.32646E+04 -1.07904E+04  3.79901E+04  2.27200E+04  2.05703E+04  4.81658E+04 -9.04580E+03  5.35173E+04
 -3.54850E+04  3.72761E+04 -4.52529E+04  9.04760E+03 -4.66281E+04 -1.95934E+04 -2.40202E+04 -3.97529E+04
  7.59355E+03 -3.96663E+04  3.35845E+04 -1.63753E+04  3.08066E+04  1.15871E+04  3.29615E+03  2.21512E+04
 -1.37776E+04  9.46916E+03 -1.16375E+04 -7.81579E+03  5.08761E+03 -1.24524E+04  1.85584E+04  5.09804E+03
  1.40174E+04  2.14946E+04 -4.91342E+03  2.58082E+04 -2.34042E+04  1.27377E+04 -2.98485E+04 -3.92575E+03
 -2.47488E+04 -1.79491E+04 -1.04064E+04 -2.31654E+04  3.89872E+03 -2.35755E+04  1.78954E+04 -2.04324E+04
  3.15779E+04 -1.26157E+04  3.56898E+04  4.60450E+03  2.68808E+04  2.35169E+04  4.14556E+03  3.92534E+04
 -1.87836E+04  3.23266E+04 -2.83152E+04  1.19356E+04 -2.24994E+04 -1.03910E+04 -4.81552E+03 -1.37089E+04
  3.57288E+03 -4.34476E+02 -6.01257E+03  7.80648E+03 -1.77732E+04  4.62692E+03 -1.83431E+04 -9.79221E+03
 -1.08824E+04 -2.22327E+04  6.06204E+03 -2.59526E+04  1.66883E+04 -1.88626E+04  2.10595E+04 -1.68400E+03
  1.30748E+04  1.46130E+04 -2.90759E+02  2.05534E+04 -1.52518E+04  1.35111E+04 -2.18631E+04 -5.94117E+03
 -1.61337E+04 -1.94654E+04 -2.70823E+03 -2.62848E+04  1.05906E+04 -2.10682E+04  2.31589E+04 -1.19291E+04
  1.91958E+04  5.86898E+02  1.44722E+04  4.70847E+03  8.49073E+03  1.53514E+03  1.07388E+04 -1.65697E+03
  2.03535E+04  1.65524E+03  2.32142E+04  1.84264E+04  1.53845E+04  3.55008E+04 -2.50602E+03  3.92394E+04
 -2.26373E+04  3.39371E+04 -3.84303E+04  1.67797E+04 -4.09229E+04 -4.23115E+03 -3.12725E+04 -2.35724E+04
 -1.49371E+04 -3.51991E+04  1.07442E+04 -2.92502E+04  2.48602E+04 -1.35016E+04  2.14714E+04  7.34536E+03
  8.09541E+03  1.78167E+04 -1.22092E+04  1.39288E+04 -1.89471E+04  2.46083E+03 -1.49369E+04 -1.18643E+04
 -1.74485E+03 -1.83291E+04  1.01206E+04 -1.38976E+04  1.38309E+04 -2.40189E+03  2.69608E+03  7.75457E+03
 -8.39551E+03  2.39231E+03 -7.34551E+03 -6.20013E+03 -1.05034E+03 -1.80624E+04  1.27972E+04 -1.74748E+04
  2.09436E+04 -8.82481E+03  2.20272E+04  4.59209E+03  2.00781E+04  1.71129E+04  1.02022E+04  2.66800E+04
 -5.92360E+03  2.74271E+04 -1.78810E+04  1.67133E+04 -2.11225E+04  4.44078E+03 -1.37893E+04 -5.60192E+03
 -6.89926E+03 -6.67408E+03 -2.87115E+02  1.60603E+03 -2.33424E+03  3.80495E+03 -7.78489E+03  5.59450E+03
 -1.19251E+04 -7.80452E+02 -1.27736E+04 -9.49363E+03 -7.42017E+03 -1.70173E+04  5.33468E+03 -1.43000E+04
  9.95203E+03 -5.64068E+03  8.38408E+03  5.11154E+03 -1.89023E+03  5.50361E+03 -7.07120E+03  3.83341E+02
 -5.98746E+03 -9.58671E+03 -1.30387E+03 -1.40464E+04  8.38985E+03 -1.42809E+04  1.73373E+04 -8.12206E+03
  2.20429E+04  1.47655E+03  1.43590E+04  1.23888E+04  2.82434E+03  1.65182E+04 -7.88850E+03  1.41658E+04
 -1.08207E+04  3.22997E+03 -5.52758E+03 -4.50741E+03  2.49650E+03 -4.03619E+03  6.74289E+03 -1.20904E+03
  6.04801E+03  7.21110E+03 -2.87503E+02  1.12955E+04 -9.49514E+03  1.13675E+04 -1.37806E+04  3.53515E+03
 -9.42269E+03 -8.17931E+03  1.21588E+03 -1.16764E+04  7.95826E+03 -5.46324E+03  7.09071E+03  2.21268E+03
  2.04416E+03  8.99311E+03 -7.16730E+03  1.11391E+04 -1.21492E+04  4.32342E+03 -1.27604E+04 -4.98907E+03
 -5.79894E+03 -1.37974E+04  2.60512E+03 -1.54106E+04  1.21548E+04 -8.49972E+03  1.44971E+04  3.23526E+03
  8.44275E+03  1.14953E+04 -9.97188E+02  1.39496E+04 -1.11778E+04  8.34861E+03 -9.91626E+03 -5.52474E+01
 -8.80873E+03 -9.76041E+03 -1.52589E+03 -1.03763E+04  6.15833E+03 -9.96900E+03  6.81648E+03 -3.39514E+03
  6.01288E+03  9.27294E+02 -2.54282E+02  2.84760E+03 -6.47460E+02 -2.66182E+03  2.01420E+03 -8.31099E+03
  1.06425E+04 -3.27068E+03  1.40882E+04  3.07912E+03  1.36022E+04  1.04730E+04  8.30616E+03  1.78047E+04
 -4.82016E+03  2.03992E+04 -1.81426E+04  1.53625E+04 -2.14664E+04  2.29698E+03 -1.74381E+04 -6.80335E+03
 -6.51846E+03 -1.56468E+04  4.78059E+02 -1.16265E+04  5.02796E+03 -7.36481E+03  4.70816E+03 -4.68694E+03
  2.74059E+03 -2.10074E+03  3.82568E+03 -3.87711E+03  5.60787E+03 -2.42551E+03  8.28524E+03 -8.10635E+02
  9.11540E+03  3.10480E+03  3.19581E+03  8.61469E+03 -2.52137E+03  8.37012E+03 -9.81533E+03  6.28550E+03
 -1.25441E+04 -1.12523E+03 -6.75622E+03 -8.37434E+03 -4.40178E+02 -1.32431E+04  8.65115E+03 -1.49472E+04
  1.32190E+04 -7.71496E+03  1.72105E+04  1.26563E+03  1.21930E+04  1.08520E+04  2.09466E+03  1.59271E+04
 -7.03695E+03  1.09316E+04 -7.69895E+03  5.15733E+03 -6.69303E+03 -2.34627E+03 -2.26833E+03 -1.63359E+03
 -1.19257E+03  5.11971E+02 -1.53030E+03  2.91990E+03 -4.59188E+03  1.38592E+02 -8.59000E+03 -1.89153E+03
 -4.69990E+03 -8.62509E+03  2.68481E+02 -1.16526E+04  7.04382E+03 -1.15972E+04  1.24234E+04 -3.80671E+03
  1.28498E+04  6.43142E+03  6.73113E+03  9.89168E+03 -1.89699E+03  1.21701E+04 -9.05367E+03  6.84282E+03
 -1.18801E+04  8.17075E+02 -7.59890E+03 -6.61809E+03 -1.71226E+03 -1.09810E+04  5.66388E+03 -8.51883E+03
  7.83632E+03 -2.58441E+03  5.33384E+03  2.96293E+03  2.02397E+03  3.74440E+03  1.65323E+03  1.93580E+03
  2.62194E+03  1.50870E+03  2.40076E+03  2.21662E+03  2.40113E+03  3.85604E+03  2.40098E+03  6.73327E+03
 -2.29598E+03  9.07543E+03 -1.00772E+04  1.03864E+04 -1.19770E+04  3.14687E+03 -1.26119E+04 -4.72689E+03
 -5.21418E+03 -1.32256E+04  2.32498E+03 -1.51946E+04  5.92279E+03 -8.28539E+03  9.63176E+03 -1.51700E+03
  7.65959E+03  4.72945E+03  1.33928E+03  6.58395E+03 -3.27544E+03  4.75779E+03 -5.07412E+03 -1.46389E+02
 -2.21186E+03 -3.77138E+03  2.23629E+03 -4.96589E+03  4.51496E+03 -3.17675E+03  5.71612E+03  5.13819E+02
  2.78464E+03  1.80569E+03  1.89631E+03  1.10911E+03 -1.20984E+03  2.39757E+03  3.11867E+03 -6.59593E+02
  1.21622E+03 -1.03809E+03  5.14132E+03  1.28095E+03  1.98835E+03  6.52809E+03 -5.56846E+01  9.65250E+03
 -5.63477E+03  5.64501E+03 -6.30188E+03  2.60828E+03 -8.25285E+03 -1.24534E+03 -3.19699E+03 -4.87170E+03
  6.52605E+02 -5.65055E+03  2.91504E+03 -1.39252E+03  2.80882E+03  3.13906E+03 -7.96142E+02  5.31396E+03
 -4.97015E+03  2.23056E+01 -7.09393E+03 -4.00957E+03 -3.12253E+03 -5.34569E+03  1.77099E+03 -5.39076E+03
  3.37805E+03 -2.45760E+03  4.36003E+03 -1.16496E+03  3.82364E+03 -4.16645E+01  5.42206E+02  3.68466E+03
 -1.49282E+03  2.42691E+03 -4.22976E+03 -1.21633E+03  1.69496E+03 -5.92024E+03  7.06406E+03 -3.96804E+03
  8.75622E+03 -4.45520E+02  7.03068E+03  4.23861E+03  3.29217E+03  9.46180E+03 -3.14827E+03  8.80614E+03
 -7.92063E+03  3.75013E+03 -7.04120E+03 -1.49422E+03 -3.97997E+03 -5.06559E+03  1.12776E+03 -5.25026E+03
  6.55180E+03 -2.57313E+03  5.29283E+03  2.09397E+03  1.54495E+03  4.72285E+03 -1.49906E+03  4.33130E+03
 -1.56837E+03  1.70096E+03 -2.38480E+03  2.07630E+03 -1.13841E+03 -4.15453E+02 -2.03773E+03  8.77448E+02
 -2.41754E+03  2.77036E+03 -6.64390E+03  1.98283E+03 -8.13134E+03 -6.70662E+01 -1.01359E+04 -5.77354E+03
 -4.89252E+03 -1.12199E+04  3.08418E+03 -1.30717E+04  6.65797E+03 -9.69738E+03  1.29345E+04 -2.40144E+03
  1.08043E+04  2.63413E+03  7.13275E+03  7.54117E+03  2.60567E+03  7.62952E+03 -2.23948E+03  7.13706E+03
 -4.27647E+03  2.22472E+03 -1.42179E+03 -1.93056E+03 -1.28458E+03 -1.46851E+03 -3.83298E+02  4.54286E+02
 -2.03612E+03  3.24263E+02 -1.65689E+03 -1.59154E+02 -6.62877E+02 -1.42628E+03  1.28371E+02 -3.14545E+03
  3.18960E+03 -2.16990E+03  4.26370E+03  1.52517E+02  6.76025E+03  4.46612E+03  2.46733E+03  7.73804E+03
 -3.99104E+03  9.50101E+03 -1.00459E+04  5.41073E+03 -1.08321E+04 -9.54546E+02 -7.76536E+03 -5.76405E+03
 -4.10084E+03 -8.86250E+03  2.55853E+03 -8.08334E+03  4.82173E+03 -5.42893E+03  4.84972E+03  3.08155E+01
  2.89468E+03  2.86938E+03 -5.92065E+02  2.45062E+03 -2.38917E+03  1.09438E+03 -5.51438E+02 -1.69677E+03
  2.99726E+03 -3.48395E+02  3.68075E+03  1.94263E+03  1.59528E+03  2.95534E+03  1.12253E+03  4.22049E+03
 -3.19880E+03  3.19496E+03 -5.04838E+03  2.01494E+03 -5.28215E+03 -5.15441E+03 -1.05858E+03 -7.96625E+03
  2.68145E+03 -3.54799E+03  6.06572E+03 -1.11667E+03  5.07157E+03  4.84399E+02  2.63434E+03  4.85826E+03
  1.36795E+03  6.66106E+03 -3.27080E+03  4.41640E+03 -3.69079E+03  2.16266E+03 -2.71086E+03  8.96290E+02
 -9.83359E+02  1.32886E+03 -6.25115E+02  1.36716E+03 -1.88139E+03  6.49325E+02 -4.52601E+03 -1.15133E+03
 -4.48647E+03 -2.54861E+03 -1.44913E+03 -5.48237E+03  1.54181E+03 -4.70872E+03  5.46216E+03 -3.49544E+03
  5.66213E+03  1.37078E+03  2.74421E+03  3.18776E+03  2.84425E+02  5.48557E+03 -3.97732E+03  4.27689E+03
