 $NMID ID='MM_0lb_SNR200_18hz_g45_80.RAW', FMTDAT='(8E13.5)'
 TRAMP=1., VOLUME=1. $END
  3.09717E+05  1.13929E+03  3.36316E+05  2.50019E+05  8.47371E+04  3.37771E+05 -1.32409E+05  2.50308E+05
 -1.89078E+05  8.31968E+04 -1.11394E+05 -3.33139E+04  2.24539E+03 -5.05283E+04  5.47294E+04 -4.75017E+02
  3.47540E+04  5.23083E+04 -1.68684E+04  7.50048E+04 -6.09881E+04  6.24568E+04 -8.35729E+04  3.14301E+04
 -7.85422E+04 -1.06768E+04 -5.73651E+04 -4.90703E+04 -1.44299E+04 -6.81140E+04  2.76851E+04 -4.49276E+04
  3.94858E+04  3.96975E+03  1.62307E+04  4.67569E+04 -3.39124E+04  4.66724E+04 -6.57316E+04 -1.88509E+03
 -5.25493E+04 -5.70451E+04 -6.07044E+03 -7.40202E+04  3.33282E+04 -5.36604E+04  4.63581E+04 -1.65996E+04
  4.26345E+04  1.09018E+04  3.14424E+04  2.45274E+04  1.55693E+04  2.70074E+04 -3.99281E+03  2.61953E+04
 -2.15190E+04  1.29984E+04 -1.94783E+04 -4.49822E+03  5.24730E+03 -8.56828E+03  2.23561E+04  1.13369E+04
  6.47939E+03  3.24936E+04 -3.08789E+04  3.44159E+04 -6.17504E+04  1.61263E+03 -5.58825E+04 -4.00666E+04
 -1.13546E+04 -6.06665E+04  3.80628E+04 -4.31879E+04  5.50351E+04 -1.32623E+03  3.20150E+04  3.09888E+04
 -7.87800E+03  3.42043E+04 -2.92268E+04  1.37422E+04 -2.70605E+04 -4.85299E+03 -1.38954E+04 -1.01927E+04
 -6.92499E+03 -1.20953E+04 -1.30336E+03 -1.73363E+04  5.66805E+03 -2.27410E+04  1.55965E+04 -1.32568E+04
  1.22771E+04  4.50483E+03 -5.67654E+03  1.26642E+04 -1.87424E+04 -2.18732E+03 -8.29682E+03 -3.17369E+04
  2.05791E+04 -4.00742E+04  4.43008E+04 -1.91000E+04  4.21596E+04  1.87928E+04  1.52756E+04  4.20263E+04
 -1.50085E+04  3.20588E+04 -2.37573E+04  2.88946E+02 -8.42983E+03 -2.71894E+04  2.05850E+04 -3.13562E+04
  3.85808E+04 -6.80866E+03  3.22508E+04  2.18585E+04  1.56226E+04  4.33650E+04 -7.36476E+03  4.43512E+04
 -2.82915E+04  3.06342E+04 -3.83144E+04  8.30827E+03 -3.90983E+04 -1.47196E+04 -2.17078E+04 -3.50064E+04
  6.28999E+03 -3.52483E+04  3.02774E+04 -1.23705E+04  2.69777E+04  1.04460E+04  3.32434E+03  1.81522E+04
 -1.40043E+04  6.47240E+03 -8.96607E+03 -7.29372E+03  5.49563E+03 -9.93046E+03  1.74929E+04  5.97390E+03
  1.29414E+04  2.12271E+04 -7.20536E+03  2.36820E+04 -2.03968E+04  1.02226E+04 -2.44463E+04 -5.64384E+03
 -1.69740E+04 -1.57757E+04 -5.32333E+03 -1.68995E+04  2.67281E+03 -1.44821E+04  1.26915E+04 -1.55085E+04
  2.10266E+04 -1.13894E+04  2.80587E+04  1.35049E+03  2.11245E+04  1.63756E+04  3.82479E+03  3.33874E+04
 -1.68033E+04  2.71283E+04 -2.68549E+04  8.86503E+03 -1.96380E+04 -1.00527E+04 -3.79791E+03 -1.39654E+04
  2.42811E+03 -4.79328E+03 -2.48053E+03  6.56377E+03 -1.42715E+04  5.68472E+03 -1.32827E+04 -5.48804E+03
 -1.02031E+04 -1.49554E+04  4.51336E+03 -1.94627E+04  1.24675E+04 -1.35862E+04  1.48930E+04 -2.46770E+03
  9.07715E+03  1.09574E+04 -1.27946E+03  1.53350E+04 -9.72158E+03  8.93137E+03 -1.57328E+04 -3.59348E+03
 -1.14935E+04 -1.41069E+04 -1.47522E+03 -1.97187E+04  8.10835E+03 -1.62233E+04  1.57046E+04 -8.45734E+03
  1.51032E+04  1.09119E+03  1.03579E+04  3.16364E+03  5.61321E+03  1.04780E+03  6.44289E+03 -1.97682E+03
  1.31190E+04  3.53532E+03  1.42206E+04  1.33688E+04  1.01975E+04  2.56014E+04 -2.22468E+03  2.70649E+04
 -1.57488E+04  2.14381E+04 -2.43711E+04  1.00821E+04 -2.52738E+04 -1.73212E+03 -2.25688E+04 -1.48418E+04
 -9.41730E+03 -2.09812E+04  6.14100E+03 -1.99749E+04  1.69398E+04 -9.73749E+03  1.50242E+04  4.42145E+03
  6.19083E+03  1.14769E+04 -6.66517E+03  1.01936E+04 -1.43391E+04  2.11650E+03 -1.04073E+04 -7.92100E+03
 -2.55087E+01 -1.32375E+04  6.02128E+03 -9.57871E+03  7.88036E+03 -1.55104E+03  2.72945E+02  5.18244E+03
 -5.77187E+03  2.24272E+03 -2.67190E+03 -4.35266E+03  5.63371E+01 -1.00133E+04  7.70009E+03 -1.01642E+04
  1.25888E+04 -4.77568E+03  1.22991E+04  2.85049E+03  1.03844E+04  9.78329E+03  4.27589E+03  1.40558E+04
 -1.83646E+03  1.69220E+04 -9.26239E+03  9.50987E+03 -1.25815E+04  2.40651E+03 -7.53033E+03 -1.53496E+03
 -4.35957E+03 -3.35612E+03 -7.52491E+02  1.20159E+03 -1.73574E+03  2.15430E+03 -4.75334E+03  3.60515E+03
 -8.20898E+03 -1.10661E+03 -9.16110E+03 -7.17809E+03 -3.61699E+03 -1.29968E+04  3.76691E+03 -8.82367E+03
  7.74502E+03 -4.07845E+03  5.77025E+03  2.54970E+03  2.37735E+02  4.42706E+03 -3.82802E+03  3.56604E+02
 -4.11704E+03 -4.95292E+03 -7.78227E+02 -7.29284E+03  3.36592E+03 -6.93939E+03  9.92045E+03 -2.71245E+03
  1.24192E+04  7.63444E+02  8.75778E+03  5.35827E+03  2.24297E+03  9.07388E+03 -5.57631E+03  9.48828E+03
 -7.21038E+03  2.67681E+03 -4.67730E+03 -1.48433E+03  1.28233E+03 -2.07458E+03  4.51199E+03 -1.32848E+03
  3.59081E+03  4.17149E+03  8.12705E+02  5.33810E+03 -5.25381E+03  5.97579E+03 -8.67462E+03  1.24881E+03
 -5.11655E+03 -4.06429E+03  1.39615E+03 -7.10544E+03  4.95816E+03 -3.75937E+03  5.19261E+03  3.71289E+02
  1.65790E+03  2.02398E+03 -3.79872E+03  3.99696E+03 -4.48375E+03  1.55437E+03 -4.26932E+03 -1.36099E+03
 -3.57718E+03 -6.99095E+03  9.52787E+02 -6.54985E+03  6.49763E+03 -4.22106E+03  6.30431E+03 -7.28136E+00
  4.78131E+03  6.09440E+03  3.57952E+02  7.60260E+03 -4.66900E+03  3.77092E+03 -5.90987E+03 -5.00828E+02
 -5.93013E+03 -4.76393E+03 -2.11102E+03 -5.43141E+03  2.08411E+03 -5.81059E+03  2.72639E+03 -2.51694E+03
  2.70053E+03  2.51083E+02 -6.18831E+02  1.15394E+03  6.76480E+02 -2.47187E+02  1.06762E+03 -2.38503E+03
  3.75320E+03 -2.03175E+03  4.96754E+03  1.02967E+03  5.58895E+03  3.65478E+03  4.82207E+03  7.68393E+03
 -9.66183E+02  9.21288E+03 -6.87285E+03  6.01024E+03 -1.04907E+04  1.11203E+03 -8.11071E+03 -3.74572E+03
 -3.39653E+03 -6.63884E+03 -9.75303E+02 -4.13319E+03  1.90555E+03 -2.22359E+03  2.29916E+03 -2.31435E+03
  1.75592E+03 -1.60558E+03  2.56870E+03 -2.68725E+03  3.96665E+03 -4.76491E+02  3.57366E+03  2.72751E+02
  4.64644E+03  7.62450E+02  1.47625E+03  3.72475E+03 -2.08774E+03  3.50628E+03 -4.06495E+03  3.44214E+03
 -5.74119E+03 -1.63276E+03 -1.66050E+03 -4.62498E+03 -2.15145E+02 -6.13663E+03  3.04899E+03 -6.10951E+03
  6.10416E+03 -2.70035E+03  6.73306E+03  1.48406E+03  4.67564E+03  5.43836E+03  2.44788E+03  5.27433E+03
 -2.74279E+03  6.62057E+03 -2.30672E+03  2.57663E+03 -2.32551E+03 -1.38522E+03 -7.45560E+02 -9.67553E+02
 -1.36514E+03  8.36975E+02 -6.88895E+02  2.42485E+03 -1.99346E+03 -2.44257E+02 -4.01155E+03 -7.67846E+02
 -2.11962E+03 -3.96337E+03  1.59855E+03 -4.35579E+03  3.74604E+03 -4.94394E+03  3.84567E+03 -1.14688E+03
  4.45175E+03  2.99741E+03  2.49236E+03  3.38225E+03  3.00741E+02  5.43165E+03 -2.95982E+03  2.86384E+03
 -3.57796E+03  4.75666E+02 -2.74363E+03 -2.71922E+03 -1.56297E+03 -3.62035E+03  1.47025E+03 -3.06431E+03
  2.07839E+03 -1.13289E+03  2.20631E+03 -4.02223E+02  2.18338E+02  1.36813E+03  6.93857E+02  6.70631E+02
  1.93341E+03  8.81634E+02  2.25289E+03  5.04076E+02  2.25400E+03  2.35668E+03  2.00041E+03  2.12807E+03
 -1.13726E+03  4.34046E+03 -2.15843E+03  4.80097E+03 -3.55894E+03  1.89301E+03 -3.69943E+03  1.02611E+02
 -8.65544E+02 -3.94741E+03  9.37943E+02 -5.27290E+03  1.78543E+03 -2.57000E+03  3.64155E+03 -1.07155E+03
  2.52593E+03  1.73535E+03 -1.84829E+02  2.03498E+03 -1.08873E+03  1.17631E+03 -1.78083E+03  1.87238E+02
 -5.33764E+02 -2.22724E+03  1.19923E+03 -1.81623E+03  1.04264E+03 -1.14088E+03  2.72266E+03 -5.43688E+02
  8.04330E+02 -2.97583E+02  1.55787E+03 -8.39883E+02 -1.17277E+03  4.73876E+02  1.90665E+03  7.91665E+02
  1.22664E+03  4.90145E+01  2.30275E+03  4.80210E+02  4.39452E+02  2.42863E+03 -5.60201E+02  1.36851E+03
 -5.38049E+02  1.27219E+03 -1.80346E+03  5.35454E+02 -1.64731E+03 -1.77276E+03  2.82854E+02 -1.20740E+03
 -2.75118E+02 -1.29831E+03  2.00565E+03 -8.88606E+02  1.14796E+03  1.43804E+03 -1.03992E+03  1.36247E+03
 -3.02549E+03  3.30264E+02 -1.37445E+03 -2.25478E+03 -1.14095E+03 -2.89068E+03  1.94056E+02 -2.15205E+03
  1.75382E+03 -5.85968E+02  4.64255E+02  1.79887E+02  1.52318E+03 -1.21545E+02  5.88256E+02  6.08999E+02
 -3.78589E+02 -2.28617E+02 -1.60871E+03  7.15216E+02  4.90539E+01 -1.05067E+03  1.92591E+03 -8.81068E+02
  1.06668E+03  4.20250E+02  2.58769E+03  5.79026E+02  1.86248E+02  8.64936E+02 -3.72573E+02  1.92356E+03
 -1.95380E+03 -4.92078E+02 -1.90522E+03  4.42842E+01 -7.90841E+02 -1.41674E+03 -2.55918E+02 -8.24228E+02
  1.30562E+03 -5.09497E+02  6.34571E+02  5.05063E+02  6.00640E+02  9.92390E+02  4.17437E+02  3.03346E+02
 -1.09700E+03  1.74977E+03  1.66820E+02  8.69408E+02 -6.65498E+00  1.70603E+03 -7.02498E+02  1.27419E+03
 -8.91074E+02  1.89739E+03 -2.12613E+03  3.78613E+02 -1.68956E+03 -1.76202E+02 -2.95444E+03 -1.59542E+03
 -1.37550E+03 -2.00971E+03  8.94059E+02 -3.09371E+03  1.04916E+03 -2.12181E+03  2.06456E+03 -1.12991E+03
  2.79940E+03 -1.08197E+03  1.60194E+03  1.63505E+03 -9.55108E+01  1.20910E+03 -3.44487E+02  1.14239E+03
 -2.36304E+03  7.87959E+02  5.06870E+01 -1.02175E+03  9.35479E+01  2.04481E+01 -1.11711E+03 -5.59814E+02
 -1.20491E+03  3.33358E+02 -1.21438E+03  8.32365E+02  5.50145E+02  6.44989E+02  2.87865E+02 -1.15792E+03
  6.94287E+02 -4.79656E+02  4.70833E+02  1.12901E+03  7.56398E+02  1.60357E+03 -2.04485E+03  1.92448E+03
 -9.63836E+01  1.90794E+03 -6.34960E+02  2.07940E+03 -1.33541E+03  4.75940E+02 -8.66551E+02 -1.02601E+03
 -4.92077E+02 -2.69996E+03 -3.82105E+00 -1.43372E+03  1.88128E+03 -7.92461E+02  1.75540E+03 -4.41207E+02
  5.83991E+02  1.40670E+03 -7.65776E+02  7.12837E+02 -1.23178E+03  6.07328E+02  8.04847E+02 -8.07092E+02
 -2.20005E+02 -5.67088E+01  1.15983E+03  1.70399E+03 -1.07296E+02  9.41126E+02  1.60444E+03 -4.37082E+02
 -9.85490E+02  1.93379E+02 -7.53365E+02 -5.79459E+02 -9.61105E+02 -4.79379E+02 -2.10123E+02 -1.72813E+03
  1.44277E+03 -2.91560E+02  1.38060E+02 -1.55629E+02  4.04808E+02 -6.90074E+02  1.25389E+03  3.54937E+02
  1.10737E+03  4.26768E+01  8.32415E+02 -2.10280E+02 -5.28544E+01  1.96868E+03  6.51518E+00  2.19644E+02
 -1.29426E+03  2.15351E+02 -7.59406E+02  4.59594E+02 -2.22635E+02  5.90034E+02 -6.51625E+02 -7.81465E+02
 -8.79109E+02  2.88597E+02 -9.42014E+02 -4.91174E+02  1.15157E+03 -2.11311E+03  1.36232E+03 -5.61788E+01
  3.07908E+02 -1.26480E+02  1.31792E+02 -3.66214E+02 -7.44865E+02  1.22574E+03 -3.13247E+02  2.28075E+02
