 $NMID ID='MM_0lb_SNR200_14hz_g45_21.RAW', FMTDAT='(8E13.5)'
 TRAMP=1., VOLUME=1. $END
  3.09078E+05 -1.78838E+02  3.37103E+05  2.49669E+05  8.42214E+04  3.37114E+05 -1.30635E+05  2.51851E+05
 -1.90733E+05  8.29295E+04 -1.11854E+05 -3.25448E+04 -9.50109E+01 -5.12974E+04  5.36254E+04  2.58735E+02
  3.54632E+04  5.29728E+04 -1.69569E+04  7.53013E+04 -6.01959E+04  6.39933E+04 -8.23190E+04  3.10339E+04
 -8.03245E+04 -1.12607E+04 -5.59380E+04 -5.04201E+04 -1.51376E+04 -6.99990E+04  2.69052E+04 -4.56610E+04
  4.01855E+04  4.77266E+03  1.64006E+04  4.80921E+04 -3.36979E+04  4.65879E+04 -6.57571E+04 -2.88664E+02
 -5.38508E+04 -5.68680E+04 -8.59070E+03 -7.68161E+04  3.43490E+04 -5.39294E+04  4.81433E+04 -1.75823E+04
  4.28662E+04  1.19153E+04  3.13129E+04  2.45919E+04  1.54546E+04  3.01698E+04 -4.23931E+03  2.73328E+04
 -2.23581E+04  1.28586E+04 -1.85314E+04 -5.52208E+03  4.69293E+03 -9.47736E+03  2.28435E+04  1.18051E+04
  7.39988E+03  3.49989E+04 -3.15026E+04  3.53314E+04 -6.24206E+04  3.06899E+03 -5.60116E+04 -4.28607E+04
 -1.27989E+04 -6.40862E+04  3.90878E+04 -4.54560E+04  5.80969E+04 -2.65593E+03  3.45763E+04  3.20113E+04
 -6.64921E+03  3.65614E+04 -2.95929E+04  1.54576E+04 -2.98473E+04 -3.46016E+03 -1.59717E+04 -1.09025E+04
 -7.59636E+03 -1.13322E+04 -2.53673E+02 -1.66450E+04  7.68921E+03 -2.34592E+04  1.42903E+04 -1.38576E+04
  1.13651E+04  5.93232E+03 -8.07785E+03  1.23809E+04 -2.03937E+04 -4.24606E+03 -7.72273E+03 -3.36929E+04
  2.32973E+04 -4.27799E+04  4.71353E+04 -2.10238E+04  4.42029E+04  1.97237E+04  1.54208E+04  4.47152E+04
 -1.50090E+04  3.22372E+04 -2.56913E+04  2.27104E+03 -8.72594E+03 -2.78643E+04  2.15691E+04 -3.56239E+04
  3.95718E+04 -9.45810E+03  3.46211E+04  2.40621E+04  1.74345E+04  4.56237E+04 -8.45113E+03  4.92027E+04
 -3.23222E+04  3.48387E+04 -4.09880E+04  9.62506E+03 -4.23867E+04 -1.55500E+04 -2.30152E+04 -3.76014E+04
  6.53681E+03 -3.66859E+04  3.12472E+04 -1.45402E+04  2.79216E+04  1.02503E+04  4.23863E+03  1.88425E+04
 -1.38174E+04  9.05830E+03 -1.00270E+04 -8.13631E+03  5.93466E+03 -1.03725E+04  1.77518E+04  6.36564E+03
  1.37285E+04  2.10333E+04 -5.34962E+03  2.52834E+04 -2.22994E+04  1.05776E+04 -2.77199E+04 -4.90895E+03
 -2.18600E+04 -1.67537E+04 -8.55379E+03 -2.10282E+04  3.43864E+03 -2.02322E+04  1.56567E+04 -1.75593E+04
  2.55397E+04 -1.30181E+04  3.17015E+04  1.83562E+03  2.46920E+04  2.02665E+04  4.29151E+03  3.61684E+04
 -1.78491E+04  3.00348E+04 -2.69837E+04  1.17800E+04 -2.10270E+04 -1.01278E+04 -4.32206E+03 -1.36659E+04
  1.83599E+03 -2.11855E+03 -3.58165E+03  6.82315E+03 -1.47632E+04  4.24711E+03 -1.62100E+04 -7.40727E+03
 -9.86553E+03 -1.78395E+04  5.22215E+03 -2.20973E+04  1.45204E+04 -1.71058E+04  1.78074E+04 -1.28467E+03
  1.19441E+04  1.39501E+04 -1.24768E+03  1.86129E+04 -1.35419E+04  1.04296E+04 -1.81456E+04 -3.86352E+03
 -1.33103E+04 -1.66520E+04 -4.45788E+02 -2.14940E+04  8.93168E+03 -1.90496E+04  1.86472E+04 -9.00822E+03
  1.75018E+04 -3.20656E+02  1.23720E+04  5.00579E+03  6.96470E+03  6.70229E+02  7.69114E+03 -2.65283E+02
  1.75642E+04  2.06934E+03  1.81543E+04  1.44386E+04  1.20059E+04  3.05646E+04 -3.37474E+03  3.41582E+04
 -1.97824E+04  2.77194E+04 -3.09004E+04  1.28347E+04 -3.28589E+04 -2.68746E+03 -2.65861E+04 -1.85822E+04
 -1.22156E+04 -2.74036E+04  9.91154E+03 -2.39475E+04  2.13397E+04 -1.23806E+04  1.90101E+04  6.23831E+03
  6.55524E+03  1.35735E+04 -8.51211E+03  1.38057E+04 -1.69836E+04  2.50550E+03 -1.20577E+04 -1.05281E+04
  3.80912E+02 -1.49576E+04  7.54579E+03 -1.00607E+04  8.96000E+03 -9.23126E+02  3.87202E+03  7.09385E+03
 -6.42856E+03  1.34342E+03 -5.99373E+03 -5.94337E+03 -8.54620E+02 -1.29573E+04  9.29900E+03 -1.30525E+04
  1.71194E+04 -7.71583E+03  1.66650E+04  3.16219E+03  1.48773E+04  1.18262E+04  8.11158E+03  1.90732E+04
 -3.18741E+03  2.23764E+04 -1.49194E+04  1.38736E+04 -1.44587E+04  3.77003E+03 -1.15504E+04 -3.88953E+03
 -5.43740E+03 -4.59461E+03  4.97790E+02  5.87901E+02 -2.67792E+03  2.82108E+03 -5.57705E+03  3.79876E+03
 -1.11236E+04 -8.90459E+02 -1.04882E+04 -9.25427E+03 -4.49384E+03 -1.38746E+04  4.90675E+03 -1.11969E+04
  9.15780E+03 -4.80793E+03  6.13353E+03  3.88692E+03  7.95354E+01  4.84191E+03 -4.83534E+03 -8.24574E+02
 -4.48064E+03 -5.79430E+03 -4.10957E+02 -1.01810E+04  6.47200E+03 -1.21464E+04  1.36447E+04 -6.55113E+03
  1.57872E+04  1.35135E+03  1.22761E+04  8.96842E+03  2.17008E+03  1.25448E+04 -8.18909E+03  1.02861E+04
 -8.41108E+03  2.93083E+03 -4.61823E+03 -2.49186E+03  3.05817E+03 -3.20075E+03  6.73906E+03 -4.67628E+02
  5.94239E+03  4.76151E+03  1.85630E+03  9.00546E+03 -7.40003E+03  8.37453E+03 -1.09372E+04  1.77515E+03
 -8.40652E+03 -4.04923E+03 -4.50173E+02 -8.40030E+03  5.99980E+03 -3.58206E+03  6.70032E+03  1.28638E+03
  1.35293E+03  6.35403E+03 -5.78820E+03  7.10963E+03 -7.31167E+03  3.68170E+03 -8.52240E+03 -2.29365E+03
 -3.86339E+03 -8.40603E+03  2.34894E+03 -1.10209E+04  1.00527E+04 -7.22206E+03  1.06646E+04  1.30906E+03
  7.56338E+03  8.01392E+03 -3.12361E+02  9.49998E+03 -7.66637E+03  5.03127E+03 -7.71786E+03  4.68425E+00
 -7.65569E+03 -6.95112E+03 -6.23183E+01 -7.76909E+03  3.33048E+03 -4.14338E+03  4.09254E+03 -2.50822E+03
  3.65417E+03  5.64908E+02  3.13062E+02  1.76975E+03  4.49790E+02 -2.49018E+03  8.10236E+02 -3.38072E+03
  6.97037E+03 -2.52679E+03  7.94056E+03  1.55218E+03  8.73082E+03  6.46306E+03  7.76713E+03  1.05244E+04
 -2.52579E+03  1.33282E+04 -1.29077E+04  1.03689E+04 -1.58597E+04  1.06565E+03 -1.26177E+04 -2.95588E+03
 -6.14098E+03 -1.04643E+04  9.15256E+02 -8.70976E+03  2.46726E+03 -4.01651E+03  3.79127E+03 -2.23997E+03
  1.89366E+03 -2.09854E+03  3.42433E+03 -2.29769E+03  2.94200E+03 -2.22968E+03  5.09778E+03 -1.64315E+02
  6.15377E+03  9.16928E+02  3.03311E+03  5.00952E+03 -2.79346E+03  4.68484E+03 -6.84510E+03  4.16042E+03
 -8.23581E+03 -6.49899E+02 -4.77240E+03 -5.22548E+03 -9.14367E+02 -7.53736E+03  5.57750E+03 -8.68928E+03
  8.70803E+03 -5.94012E+03  1.09779E+04  2.39761E+02  7.97539E+03  7.61045E+03  8.62152E+02  9.55576E+03
 -3.65648E+03  8.37702E+03 -6.94650E+03  3.53029E+03 -3.20448E+03 -1.75294E+03 -1.58583E+03 -7.17498E+02
  1.08611E+02  3.05733E+02 -3.18526E+02  1.69450E+03 -2.97527E+03  1.47002E+03 -6.84419E+03 -2.75213E+03
 -3.66458E+03 -6.20291E+03  8.70394E+02 -8.13174E+03  4.30893E+03 -6.94981E+03  7.12295E+03 -1.94357E+03
  7.56141E+03  3.62721E+03  2.84445E+03  6.08400E+03 -1.80394E+02  8.28132E+03 -5.66015E+03  3.18854E+03
 -7.57044E+03  2.63849E+02 -4.44298E+03 -4.53663E+03 -7.54951E+02 -5.91903E+03  3.78942E+03 -5.00885E+03
  5.77564E+03 -2.83569E+03  3.14040E+03  3.83267E+02  1.52260E+03  3.86383E+03  8.17674E+02  1.44759E+03
  1.69653E+03  7.37320E+02  6.66203E+02  1.77634E+03  3.63949E+03  2.58854E+03  2.88707E+03  4.00260E+03
 -2.70732E+03  5.97213E+03 -5.84392E+03  7.66961E+03 -7.63225E+03  8.31621E+02 -7.51005E+03 -2.59658E+03
 -3.97325E+03 -8.12041E+03  1.18346E+03 -7.73410E+03  2.92894E+03 -4.32982E+03  6.04568E+03 -1.62210E+03
  4.79561E+03  2.40341E+03  1.29790E+03  5.36702E+03 -2.33349E+03  2.12556E+03 -2.76748E+03 -6.20292E+02
 -1.12729E+03 -1.61705E+03  2.70017E+03 -3.77505E+03  3.30341E+03 -2.49251E+03  2.11242E+03  1.53965E+03
  2.00809E+03  1.18863E+03  1.90130E+03  1.03650E+03  5.22831E+02  1.55031E+03  2.36080E+03 -8.72447E+02
  6.72882E+02 -1.17877E+03  1.74401E+03  8.29143E+02  8.81195E+02  3.60693E+03 -2.96940E+02  5.71788E+03
 -3.51703E+03  1.94222E+03 -4.06580E+03  1.24845E+03 -3.19719E+03 -9.80122E+02 -2.28377E+03 -3.10271E+03
 -4.73444E+02 -3.43643E+03  1.19225E+03 -1.53849E+03  5.41560E+02  2.43430E+03 -1.44323E+03  1.58020E+03
 -4.51096E+03  8.35091E+02 -2.51755E+03 -2.42238E+03 -5.95393E+02 -3.99929E+03  4.06313E+02 -3.30201E+03
  1.20437E+03 -1.40189E+03  1.54007E+03 -6.73188E+02  3.27653E+03  3.93701E+02  9.45357E+02  7.83525E+02
 -9.34544E+02  2.88677E+02 -1.54895E+03 -8.49267E+02  1.65072E+02 -2.15981E+03  2.56299E+03 -4.38860E+03
  3.58703E+03  5.86296E+02  5.11242E+03  2.42197E+03  1.69663E+03  3.03305E+03 -6.74372E+02  3.55657E+03
 -3.87383E+03  4.39621E+02 -2.60337E+03 -2.98411E+02 -1.06048E+03 -2.74010E+03 -1.08110E+02 -1.98544E+03
  1.80985E+03 -2.08008E+03  2.56612E+03  4.61813E+02  9.81547E+02  2.69367E+03 -7.63843E+02  1.63820E+03
 -2.29010E+03  1.31923E+03 -4.81287E+02  2.99569E+02 -6.47782E+02  9.02428E+02 -3.16969E+02  2.81725E+02
  6.97301E+02  1.79093E+03 -4.21926E+03  2.17419E+03 -4.36278E+03  1.39175E+03 -5.19996E+03 -2.16910E+03
 -2.73404E+03 -5.55614E+03  2.36867E+03 -5.76831E+03  4.02943E+03 -5.27972E+03  5.99027E+03 -1.90054E+03
  5.22042E+03  2.23737E+03  3.28611E+03  4.64856E+03 -2.88769E+02  4.60394E+03 -9.06584E+02  3.03743E+03
 -2.58936E+03  1.00353E+03 -1.89119E+03 -1.12336E+03 -5.65276E+02 -2.84176E+02 -1.04294E+03  6.64552E+02
 -1.24740E+03  7.22809E+01 -1.01261E+03  5.42034E+02 -5.50972E+02 -1.93328E+03  3.80504E+02 -2.11228E+03
  3.11240E+03 -1.67168E+03  2.72136E+03  1.01503E+03  3.10344E+03  2.30779E+03  1.18572E+02  4.93466E+03
 -2.44325E+03  3.93490E+03 -4.44550E+03  4.00232E+03 -4.31919E+03 -4.93566E+02 -2.81699E+03 -2.72305E+03
 -2.37046E+03 -3.61031E+03  5.16409E+02 -2.80842E+03  2.39461E+03 -1.08435E+03  1.51765E+03 -4.99836E+02
  1.47437E+03  1.00251E+03 -9.48747E+02  1.26004E+03 -1.22493E+03  2.45669E+02  4.79062E+01  5.60147E+02
  2.07762E+03 -1.55791E+03  9.22638E+02  4.39970E+02  1.00618E+03  1.33204E+03 -1.95432E+03  2.41040E+03
 -1.42982E+03  3.33492E+03 -2.93693E+03 -4.42643E+02 -2.64470E+03 -2.37483E+03  7.84161E+01 -2.74559E+03
  1.68316E+03 -3.65197E+03  2.26822E+03 -1.00579E+03  2.82143E+03 -2.69994E+02  1.16129E+03  2.21518E+03
  4.61840E+02  1.38616E+03 -2.95094E+02  2.72161E+03 -1.28819E+03  1.22576E+03 -1.33126E+03  8.08562E+02
  2.09837E+02  2.33304E+02 -7.07666E+02  4.84887E+02 -2.44841E+03  3.41806E+02 -2.80253E+03 -2.86785E+02
 -2.87497E+03 -1.47956E+03  4.01891E+02 -3.53883E+03  1.98673E+03 -1.67141E+03  3.07779E+03 -5.96293E+02
  2.52001E+03  2.46280E+02  1.08943E+03  1.93689E+03 -6.69429E+02  2.57802E+03 -1.54723E+03  9.69378E+02
