 $NMID ID='MM_0lb_SNR200_12hz_g45_57.RAW', FMTDAT='(8E13.5)'
 TRAMP=1., VOLUME=1. $END
  3.10075E+05  1.77309E+02  3.38345E+05  2.51207E+05  8.46609E+04  3.37554E+05 -1.32399E+05  2.51711E+05
 -1.91422E+05  8.21240E+04 -1.12670E+05 -3.19665E+04  3.76390E+02 -5.09601E+04  5.44892E+04  3.67186E+01
  3.54569E+04  5.24575E+04 -1.71917E+04  7.53473E+04 -6.13342E+04  6.36608E+04 -8.48364E+04  3.20653E+04
 -8.06977E+04 -1.10745E+04 -5.85449E+04 -5.14566E+04 -1.59856E+04 -7.03995E+04  2.77697E+04 -4.54529E+04
  4.02246E+04  2.94879E+03  1.57120E+04  4.78380E+04 -3.34820E+04  4.80642E+04 -6.80401E+04 -1.18012E+03
 -5.28518E+04 -5.61501E+04 -5.93986E+03 -7.75682E+04  3.33083E+04 -5.64733E+04  4.72454E+04 -1.81615E+04
  4.46960E+04  1.11668E+04  3.17373E+04  2.55220E+04  1.54537E+04  2.95305E+04 -5.51518E+03  2.79708E+04
 -2.21904E+04  1.22327E+04 -1.82033E+04 -4.06599E+03  6.57792E+03 -7.86312E+03  2.25353E+04  1.32279E+04
  7.87188E+03  3.54596E+04 -3.28179E+04  3.55146E+04 -6.25796E+04  2.57556E+03 -5.80818E+04 -4.15358E+04
 -1.16937E+04 -6.46267E+04  4.13996E+04 -4.45380E+04  5.88843E+04 -4.19225E+03  3.62063E+04  3.43121E+04
 -5.29209E+03  3.77758E+04 -3.07600E+04  1.54351E+04 -3.11268E+04 -3.92998E+03 -1.72528E+04 -1.04027E+04
 -7.85337E+03 -1.44883E+04 -1.83614E+03 -1.85469E+04  9.11340E+03 -2.19709E+04  1.63536E+04 -1.24204E+04
  1.13852E+04  5.86461E+03 -8.35773E+03  1.32488E+04 -2.17533E+04 -5.47069E+03 -7.85502E+03 -3.40686E+04
  2.36465E+04 -4.44031E+04  5.04065E+04 -2.03697E+04  4.56912E+04  2.05023E+04  1.63043E+04  4.49293E+04
 -1.56431E+04  3.30114E+04 -2.53936E+04  1.94432E+03 -1.07274E+04 -2.81136E+04  2.09931E+04 -3.40395E+04
  4.21395E+04 -9.29988E+03  3.92213E+04  2.34267E+04  1.93289E+04  4.85175E+04 -7.70270E+03  5.30430E+04
 -3.21610E+04  3.44405E+04 -4.35955E+04  1.09348E+04 -4.40563E+04 -1.70860E+04 -2.38688E+04 -3.82469E+04
  6.43749E+03 -3.92188E+04  3.18782E+04 -1.47686E+04  3.00742E+04  1.20236E+04  3.62981E+03  1.98147E+04
 -1.34378E+04  9.52677E+03 -1.15278E+04 -7.22920E+03  4.75346E+03 -9.97120E+03  1.91840E+04  4.81455E+03
  1.39214E+04  2.26663E+04 -6.78682E+03  2.55805E+04 -2.17864E+04  1.15651E+04 -2.91780E+04 -3.83906E+03
 -2.13426E+04 -1.78000E+04 -8.44850E+03 -2.22464E+04  3.83676E+03 -2.16921E+04  1.60296E+04 -1.95534E+04
  2.76366E+04 -1.20985E+04  3.54934E+04  2.51327E+03  2.47887E+04  2.11695E+04  4.90465E+03  3.76106E+04
 -1.91397E+04  3.25960E+04 -2.71062E+04  1.12627E+04 -2.16123E+04 -9.76579E+03 -5.99305E+03 -1.31390E+04
  1.10793E+03 -1.83173E+03 -6.55338E+03  7.37944E+03 -1.63229E+04  4.85605E+03 -1.76597E+04 -8.48488E+03
 -1.05785E+04 -1.94162E+04  5.63990E+03 -2.49390E+04  1.59176E+04 -1.66407E+04  1.86629E+04 -1.64380E+03
  1.24960E+04  1.49975E+04 -1.11802E+00  2.06134E+04 -1.31468E+04  1.08518E+04 -2.03397E+04 -5.14650E+03
 -1.44280E+04 -1.90966E+04 -2.16110E+03 -2.41608E+04  1.20106E+04 -2.15175E+04  2.01918E+04 -1.04310E+04
  1.95905E+04 -6.75766E+02  1.37236E+04  4.39535E+03  5.88149E+03  3.59909E+02  9.82050E+03 -2.12351E+03
  2.00991E+04  3.18315E+03  2.19123E+04  1.56536E+04  1.31967E+04  3.25929E+04 -1.76700E+03  3.64535E+04
 -2.19490E+04  3.04767E+04 -3.50548E+04  1.53608E+04 -3.70431E+04 -2.61186E+03 -2.99120E+04 -2.12083E+04
 -1.42694E+04 -2.99999E+04  1.18679E+04 -2.69789E+04  2.29698E+04 -1.41181E+04  2.11252E+04  6.96234E+03
  7.75419E+03  1.40411E+04 -1.00403E+04  1.37580E+04 -1.79328E+04  3.97664E+03 -1.22612E+04 -1.11367E+04
 -1.30902E+03 -1.66597E+04  7.09171E+03 -1.20793E+04  1.14590E+04 -1.56035E+03  2.28176E+03  8.03734E+03
 -6.46299E+03  2.53242E+03 -5.51333E+03 -5.85746E+03 -2.27151E+02 -1.44383E+04  1.18911E+04 -1.60056E+04
  1.78155E+04 -9.13224E+03  1.97210E+04  2.65732E+03  1.73596E+04  1.59764E+04  7.65220E+03  2.32207E+04
 -4.41567E+03  2.59587E+04 -1.67218E+04  1.43656E+04 -1.75915E+04  5.08198E+03 -1.31694E+04 -4.03147E+03
 -4.42782E+03 -5.60917E+03 -1.02174E+03 -6.26940E+02 -2.60735E+03  3.26618E+03 -5.43201E+03  3.46484E+03
 -1.18376E+04  4.70630E+02 -1.19970E+04 -1.01655E+04 -4.31559E+03 -1.76295E+04  5.28838E+03 -1.26945E+04
  7.64053E+03 -4.70683E+03  7.50180E+03  3.93132E+03  7.00165E+02  3.70742E+03 -5.37953E+03 -5.39519E+02
 -4.51727E+03 -7.88546E+03 -1.44460E+02 -1.26774E+04  6.78354E+03 -1.27278E+04  1.50985E+04 -6.42079E+03
  1.76926E+04  1.18215E+03  1.25751E+04  9.80167E+03  2.88326E+03  1.34607E+04 -8.83392E+03  1.35765E+04
 -9.51731E+03  3.42414E+03 -3.95828E+03 -2.38168E+03  2.40593E+03 -3.57685E+03  6.96320E+03 -8.92740E+02
  5.62519E+03  5.86402E+03  2.68980E+02  8.81227E+03 -7.35372E+03  8.41693E+03 -1.11195E+04  1.33898E+03
 -8.49679E+03 -6.33026E+03 -4.35307E+02 -1.09895E+04  6.75437E+03 -5.42706E+03  6.88435E+03  2.07192E+03
  1.15546E+03  6.13340E+03 -6.00602E+03  8.85851E+03 -1.05372E+04  3.61045E+03 -1.09635E+04 -4.31912E+03
 -4.99928E+03 -9.98145E+03  1.98926E+03 -1.47958E+04  1.10665E+04 -8.14737E+03  1.19595E+04  2.15054E+03
  6.25786E+03  1.04512E+04 -4.75566E+01  1.08128E+04 -8.90649E+03  6.23729E+03 -1.00441E+04  1.74507E+02
 -7.73794E+03 -9.21815E+03 -1.88202E+03 -8.78234E+03  5.12571E+03 -7.40067E+03  5.49940E+03 -3.26771E+03
  4.78555E+03  7.30824E+02 -1.47186E+03  6.63610E+01 -2.42890E+02 -2.02608E+03  1.89382E+03 -4.68829E+03
  8.57547E+03 -2.45397E+03  1.11124E+04  4.39819E+02  1.16841E+04  6.06108E+03  7.33028E+03  1.50383E+04
 -4.90905E+03  1.70735E+04 -1.36582E+04  1.33131E+04 -1.79347E+04  3.45869E+03 -1.52042E+04 -6.47385E+03
 -6.53144E+03 -1.07235E+04  4.34792E+02 -1.04001E+04  3.52156E+03 -5.53479E+03  2.59406E+03 -2.91655E+03
  2.24693E+03 -2.29408E+03  3.23504E+03 -3.34410E+03  3.48435E+03 -1.72345E+03  5.38419E+03 -5.73654E+02
  7.52404E+03  2.16306E+03  4.02503E+03  8.07219E+03 -2.19859E+03  8.50162E+03 -9.16365E+03  6.10374E+03
 -9.22691E+03 -7.68991E+02 -5.75725E+03 -6.83534E+03 -4.09354E+01 -1.17446E+04  6.10896E+03 -1.05253E+04
  1.04884E+04 -6.26971E+03  1.31483E+04  1.64286E+03  9.29818E+03  9.68291E+03  1.67107E+03  1.30896E+04
 -5.04613E+03  1.17268E+04 -7.92823E+03  4.52811E+03 -4.36531E+03 -1.19149E+03 -1.80600E+03 -1.22042E+03
 -1.96437E+03  1.33741E+03 -2.51206E+02  3.41142E+03 -5.37337E+03  1.07949E+03 -7.31695E+03 -5.59039E+02
 -4.54379E+03 -6.83913E+03  7.78023E+02 -9.58829E+03  6.79191E+03 -9.14975E+03  9.90948E+03 -2.54469E+03
  9.00954E+03  4.79759E+03  5.18288E+03  8.77552E+03 -1.72814E+03  1.07334E+04 -7.04321E+03  5.37386E+03
 -9.47130E+03 -2.32205E+02 -6.18825E+03 -5.97513E+03 -9.94098E+02 -6.37614E+03  4.34105E+03 -7.19917E+03
  5.96112E+03 -2.21558E+03  4.13272E+03  9.31253E+02  6.05981E+02  3.68536E+03  4.21650E+02  2.28059E+03
  2.27761E+03  1.75550E+03  2.56836E+03  2.48565E+03  2.73171E+03  3.53815E+03  3.36327E+03  4.76625E+03
 -2.18962E+03  7.92799E+03 -5.90176E+03  9.02777E+03 -9.04903E+03  2.48345E+03 -1.05926E+04 -2.26872E+03
 -4.76200E+03 -8.87718E+03  1.17576E+03 -1.09942E+04  6.33553E+03 -6.20964E+03  7.64824E+03 -6.93088E+02
  6.82389E+03  3.99713E+03  1.07785E+03  5.86069E+03 -2.93026E+03  3.82353E+03 -3.76105E+03 -7.49768E+02
 -1.76558E+03 -3.99883E+03  2.01500E+03 -3.74257E+03  2.38469E+03 -1.26021E+03  4.11103E+03  1.32577E+03
  1.93985E+03  1.57807E+03  7.32124E+02  1.16452E+03 -9.66699E+02  2.63533E+02  1.14605E+03 -1.98111E+03
  1.43327E+03  1.59913E+02  2.54860E+03  2.62940E+03  3.18745E+03  5.69352E+03 -5.72119E+02  6.58145E+03
 -4.19109E+03  4.55605E+03 -6.01403E+03  1.05068E+03 -5.43750E+03 -1.29745E+03 -1.28576E+03 -4.95149E+03
  2.21345E+02 -2.78645E+03  1.53706E+03 -1.68293E+03  2.19679E+03  2.85609E+03 -2.75476E+02  3.21239E+03
 -3.02635E+03  2.02300E+03 -3.76674E+03 -3.37192E+03 -2.19111E+03 -5.20859E+03  1.58142E+02 -4.58365E+03
  2.81886E+03 -2.28164E+03  3.35966E+03  3.42686E+02  3.63611E+03  8.00288E+02 -2.99004E+02  2.44037E+03
 -2.28493E+03  9.27554E+02 -3.77681E+03 -2.08688E+03  1.32518E+03 -4.15245E+03  3.80362E+03 -3.72414E+03
  5.46657E+03  6.21125E+02  5.53052E+03  3.80970E+03  2.51455E+03  5.45123E+03 -1.80705E+03  6.77135E+03
 -5.13500E+03  2.11375E+03 -5.75913E+03 -5.58417E+02 -3.07149E+03 -4.11330E+03  1.19202E+03 -3.11208E+03
  3.73110E+03 -1.31139E+03  1.69103E+03  1.86219E+03  3.87348E+02  3.56640E+03 -1.25287E+02  3.74812E+03
 -1.44620E+03  2.36810E+03 -1.12030E+03  7.44869E+02 -1.50686E+03  1.64519E+03 -1.56904E+03  1.26878E+03
 -2.52708E+03  2.72563E+03 -4.03519E+03  2.02389E+03 -6.63136E+03  1.27353E+03 -6.04180E+03 -4.48145E+03
 -3.83654E+03 -7.44404E+03  1.73795E+03 -9.28240E+03  4.38101E+03 -6.78414E+03  9.05084E+03 -2.08117E+03
  7.52369E+03  2.00705E+03  4.62625E+03  5.67342E+03  1.30239E+03  6.18613E+03 -1.40556E+03  3.51079E+03
 -2.45162E+03  1.84221E+03 -1.71264E+03 -8.60235E+02 -2.04238E+03  1.90775E+02 -9.03068E+02 -2.73435E+02
 -2.79879E+03 -9.68053E+01 -1.03951E+03  1.15541E+03 -1.60973E+03 -2.65593E+03  7.09559E+02 -2.44961E+03
  2.48783E+03 -2.27366E+03  3.17201E+03  3.17776E+02  3.67959E+03  2.47138E+03  1.80414E+02  6.13645E+03
 -3.25646E+03  6.89225E+03 -6.50531E+03  4.25725E+03 -7.16187E+03 -2.59876E+03 -5.55028E+03 -3.42928E+03
 -2.22697E+03 -6.70738E+03  2.33042E+03 -5.34214E+03  5.13786E+03 -4.45527E+03  2.95196E+03  1.05093E+03
  2.41122E+03  1.57369E+03 -3.14218E+02  1.73901E+03 -1.73959E+03 -5.37513E+00  1.06882E+02 -1.67832E+03
  7.75842E+02  3.18509E+02  8.30430E+02  8.59763E+02  9.16995E+02  2.23474E+03 -1.32338E+03  3.44768E+03
 -3.03296E+03  2.03114E+03 -3.00686E+03 -4.34695E+02 -3.77631E+03 -3.67670E+03  4.68091E+01 -4.75930E+03
  1.97496E+03 -4.68665E+03  4.91760E+03 -6.28443E+02  4.82500E+03  1.05797E+03  1.40725E+03  2.75091E+03
  5.36657E+02  4.20983E+03 -1.32323E+03  3.98073E+03 -2.50146E+03  1.63883E+03 -2.16159E+03 -8.18897E+02
 -7.17843E+02 -4.69037E+02 -1.12953E+03  2.71893E+02 -3.83607E+03  9.73146E+02 -5.26406E+03 -2.72634E+02
 -3.73419E+03 -1.90652E+03 -1.87696E+03 -4.59962E+03  1.25972E+03 -3.77252E+03  1.88841E+03 -1.23787E+03
  3.05144E+03 -9.15595E+02  3.55196E+02  9.03044E+02 -6.79648E+02  2.55565E+03 -3.58751E+03  2.19913E+03
