 $NMID ID='MM_0lb_SNR200_14hz_g55_80.RAW', FMTDAT='(8E13.5)'
 TRAMP=1., VOLUME=1. $END
  3.10518E+05  1.15940E+02  3.38403E+05  2.50053E+05  8.50772E+04  3.37446E+05 -1.32484E+05  2.51615E+05
 -1.90573E+05  8.29079E+04 -1.11743E+05 -3.44342E+04  6.01692E+02 -5.07782E+04  5.38930E+04  4.94988E+02
  3.55073E+04  5.18615E+04 -1.71058E+04  7.59625E+04 -6.12435E+04  6.25954E+04 -8.39589E+04  3.24048E+04
 -8.14148E+04 -1.20358E+04 -5.84664E+04 -5.14889E+04 -1.49600E+04 -7.02918E+04  2.71636E+04 -4.48911E+04
  4.12284E+04  3.36008E+03  1.72359E+04  4.79545E+04 -3.53442E+04  4.82810E+04 -6.71856E+04  6.16410E+00
 -5.41463E+04 -5.65184E+04 -7.91662E+03 -7.81233E+04  3.21231E+04 -5.52003E+04  4.86505E+04 -1.74730E+04
  4.36494E+04  1.20823E+04  3.24672E+04  2.63135E+04  1.61346E+04  2.88847E+04 -5.03783E+03  2.72427E+04
 -2.29876E+04  1.17859E+04 -1.85084E+04 -4.89250E+03  5.15190E+03 -7.75417E+03  2.20465E+04  1.18969E+04
  6.67880E+03  3.69252E+04 -3.19270E+04  3.55065E+04 -6.44146E+04  2.52361E+03 -5.64902E+04 -4.32348E+04
 -1.18579E+04 -6.36621E+04  3.87211E+04 -4.61115E+04  5.84320E+04 -2.61573E+03  3.60962E+04  3.29812E+04
 -5.65364E+03  3.74032E+04 -3.03054E+04  1.54527E+04 -2.97459E+04 -4.20642E+03 -1.70318E+04 -1.19955E+04
 -7.68489E+03 -1.34868E+04  6.90643E+02 -1.77900E+04  7.06473E+03 -2.21015E+04  1.59281E+04 -1.27115E+04
  9.50237E+03  5.03648E+03 -9.33082E+03  1.26970E+04 -2.16490E+04 -6.03685E+03 -7.96375E+03 -3.48370E+04
  2.36742E+04 -4.50085E+04  5.01029E+04 -1.95067E+04  4.47187E+04  1.99047E+04  1.59432E+04  4.33521E+04
 -1.53729E+04  3.41062E+04 -2.57503E+04  2.50728E+03 -1.21798E+04 -2.86304E+04  2.09103E+04 -3.50038E+04
  4.25824E+04 -9.09226E+03  3.66978E+04  2.34192E+04  1.83822E+04  4.75439E+04 -8.96659E+03  5.17781E+04
 -3.34953E+04  3.39111E+04 -4.33522E+04  9.04367E+03 -4.37889E+04 -1.69542E+04 -2.32900E+04 -3.88560E+04
  7.31834E+03 -3.81620E+04  3.24953E+04 -1.64597E+04  2.95005E+04  1.08505E+04  4.99332E+03  1.81071E+04
 -1.42369E+04  9.67490E+03 -9.84891E+03 -7.20796E+03  4.13228E+03 -9.98509E+03  1.88194E+04  4.64283E+03
  1.35969E+04  2.15339E+04 -5.92649E+03  2.43501E+04 -2.33612E+04  1.17170E+04 -2.84102E+04 -4.02086E+03
 -2.11231E+04 -1.74614E+04 -8.42519E+03 -2.05364E+04  4.29720E+03 -2.09471E+04  1.52581E+04 -2.04174E+04
  2.83002E+04 -1.21200E+04  3.30693E+04  3.69135E+03  2.41156E+04  1.93514E+04  4.10127E+03  3.84578E+04
 -1.77559E+04  3.15384E+04 -2.78971E+04  1.00299E+04 -2.04564E+04 -1.04121E+04 -4.09878E+03 -1.37720E+04
  1.82568E+03 -2.77290E+03 -5.28484E+03  7.35292E+03 -1.79910E+04  5.12839E+03 -1.67294E+04 -7.64205E+03
 -9.98069E+03 -1.97968E+04  5.09894E+03 -2.34300E+04  1.57835E+04 -1.64093E+04  2.05603E+04 -9.87163E+02
  1.13016E+04  1.37217E+04 -1.23253E+03  1.89507E+04 -1.39979E+04  1.04872E+04 -1.80672E+04 -3.19937E+03
 -1.59586E+04 -1.76647E+04 -2.41186E+03 -2.43646E+04  1.02183E+04 -2.02289E+04  1.92078E+04 -8.50888E+03
  1.86909E+04 -1.42349E+02  1.38495E+04  5.10071E+03  7.10464E+03  2.46928E+03  9.97722E+03 -1.48112E+03
  1.72715E+04  3.38399E+03  1.95625E+04  1.45330E+04  1.45703E+04  3.09419E+04 -3.63212E+03  3.63123E+04
 -1.89617E+04  2.87520E+04 -3.38277E+04  1.51659E+04 -3.57946E+04 -2.36247E+03 -3.04857E+04 -2.03709E+04
 -1.18470E+04 -2.87223E+04  1.02813E+04 -2.64179E+04  2.19769E+04 -1.30205E+04  2.06081E+04  4.91707E+03
  8.36236E+03  1.54153E+04 -8.20470E+03  1.32771E+04 -1.63749E+04  2.10268E+03 -1.23724E+04 -9.76356E+03
 -4.44830E+01 -1.63532E+04  8.03683E+03 -1.32265E+04  1.07160E+04 -3.80536E+02  2.34296E+03  6.60914E+03
 -7.65163E+03  3.95828E+03 -7.42474E+03 -6.17097E+03  4.07699E+02 -1.47456E+04  1.12804E+04 -1.49776E+04
  1.69217E+04 -8.23855E+03  1.83613E+04  2.98019E+03  1.72819E+04  1.26166E+04  8.05211E+03  2.21572E+04
 -3.68915E+03  2.32566E+04 -1.58323E+04  1.37384E+04 -1.59184E+04  3.25734E+03 -1.25724E+04 -3.72641E+03
 -4.47575E+03 -4.99178E+03 -1.56575E+03  9.24346E+02 -3.91506E+03  1.77510E+03 -5.63479E+03  4.30279E+03
 -1.01122E+04 -8.99810E+02 -1.11420E+04 -9.50735E+03 -3.61630E+03 -1.50122E+04  4.16600E+03 -1.19762E+04
  1.00329E+04 -4.84298E+03  7.46933E+03  2.76197E+03 -2.51705E+02  4.41698E+03 -5.95214E+03 -3.42020E+02
 -4.65468E+03 -6.89893E+03 -2.69390E+03 -1.09741E+04  6.53140E+03 -1.10738E+04  1.55028E+04 -6.86040E+03
  1.65993E+04  1.50380E+03  1.21599E+04  8.60067E+03  1.91272E+03  1.35004E+04 -6.86301E+03  1.07009E+04
 -9.61477E+03  3.32130E+03 -5.02541E+03 -2.40172E+03  1.94712E+03 -2.89175E+03  7.91687E+03 -8.10426E+02
  4.96081E+03  6.62543E+03  5.67167E+02  9.64764E+03 -6.34289E+03  9.66989E+03 -1.02370E+04  1.72334E+03
 -8.39279E+03 -5.40165E+03  3.12123E+01 -9.05324E+03  6.74152E+03 -4.20789E+03  5.87219E+03  1.08524E+03
  1.10617E+03  6.44600E+03 -5.70757E+03  7.87408E+03 -8.74799E+03  4.47334E+03 -7.91723E+03 -2.50334E+03
 -5.23075E+03 -9.71114E+03  9.72848E+02 -1.20221E+04  1.04946E+04 -7.60182E+03  1.13459E+04  1.52794E+03
  6.70750E+03  8.63624E+03 -1.35116E+02  1.12219E+04 -8.52823E+03  5.22478E+03 -7.97780E+03 -8.06323E+02
 -7.48260E+03 -7.13066E+03 -1.59813E+03 -8.72922E+03  3.77613E+03 -6.53898E+03  5.47248E+03 -3.27325E+03
  4.99750E+03  2.62854E+03  3.56982E+02  8.30340E+02  4.62411E+02 -2.01021E+03  1.76336E+03 -4.03880E+03
  5.26370E+03 -2.59343E+03  1.03813E+04  3.49730E+03  1.04902E+04  5.73564E+03  7.05091E+03  1.32473E+04
 -3.66574E+03  1.46228E+04 -1.30539E+04  1.06904E+04 -1.57007E+04  2.70518E+03 -1.19215E+04 -5.05178E+03
 -8.04588E+03 -1.07371E+04 -3.49341E+02 -1.02762E+04  3.34364E+03 -2.88778E+03  3.58969E+03 -3.49601E+03
  4.00168E+03 -2.05316E+03  2.89026E+03 -2.84431E+03  5.76512E+03 -2.49449E+03  6.25469E+03  2.38438E+01
  8.00644E+03  1.77774E+03  3.57553E+03  4.88255E+03 -1.48469E+03  4.59821E+03 -6.86718E+03  5.05858E+03
 -7.18532E+03 -2.13855E+03 -5.15664E+03 -6.15441E+03  1.19095E+01 -8.99650E+03  5.19356E+03 -1.07962E+04
  9.89081E+03 -5.10556E+03  1.24332E+04  1.95835E+03  6.92101E+03  7.22574E+03  1.05853E+03  1.06366E+04
 -5.27283E+03  8.94940E+03 -5.57833E+03  2.52499E+03 -4.49226E+03 -2.16006E+03 -7.54044E+02 -1.14505E+03
 -1.61703E+03 -6.90236E+01 -1.83285E+03  2.65038E+03 -4.03728E+03  2.08062E+03 -6.92656E+03 -1.68508E+02
 -3.30267E+03 -6.97733E+03  7.27048E+02 -8.75752E+03  6.29907E+03 -8.51828E+03  7.46652E+03 -2.35771E+03
  7.82166E+03  3.99255E+03  3.84274E+03  6.38218E+03 -2.23778E+03  8.71547E+03 -5.84499E+03  5.21110E+03
 -7.94855E+03  1.17934E+03 -6.57001E+03 -4.94636E+03 -1.39945E+02 -7.25691E+03  4.27680E+03 -5.31632E+03
  4.97156E+03 -2.69516E+03  4.02423E+03  7.97457E+02  1.09643E+03  2.44281E+03  1.74227E+03  1.73319E+03
  2.46671E+03 -9.39915E+02  2.36272E+03  9.75607E+02  2.84971E+03  3.06775E+03  3.58127E+03  3.56790E+03
 -1.49319E+03  6.56763E+03 -5.25946E+03  5.93081E+03 -8.41263E+03  2.36911E+03 -7.75962E+03 -1.99141E+03
 -4.33010E+03 -8.37503E+03  1.03249E+03 -1.00803E+04  4.86071E+03 -3.79466E+03  5.84835E+03 -7.49118E+02
  4.32749E+03  2.70480E+03  3.18594E+02  5.64253E+03 -2.64147E+03  2.72328E+03 -1.57087E+03 -1.35760E+03
 -1.96805E+03 -3.97201E+03  1.89949E+03 -3.35601E+03  2.69634E+03 -2.45176E+03  2.19837E+03  1.49846E+02
  1.94523E+03  4.22570E+02  1.60775E+03  1.73593E+03 -1.74614E+03  2.30244E+03  1.52300E+03  1.20369E+03
  3.59162E+02 -2.81374E+02  2.98911E+03  1.50760E+03  1.55823E+03  4.30643E+03  2.77627E+02  6.07977E+03
 -4.39506E+03  5.33252E+03 -4.20473E+03  7.72540E+02 -4.87447E+03 -2.53232E+03 -1.37476E+03 -2.91650E+03
 -4.17357E+02 -3.27087E+03  1.74242E+03 -6.53008E+02  1.62248E+03  1.10713E+03 -1.47945E+03  1.52428E+03
 -3.67585E+03  9.93763E+02 -3.03007E+03 -2.33133E+03 -1.29068E+03 -4.12536E+03  1.13311E+03 -3.23688E+03
  3.95293E+03 -3.54180E+03  8.17062E+02 -7.95454E+02  1.56548E+03  1.26953E+03 -6.00809E+02  1.98928E+03
 -9.81301E+02  1.04148E+03 -1.48999E+03 -1.09656E+03  7.63305E+02 -4.00260E+03  3.20541E+03 -2.27718E+03
  3.90567E+03 -2.20181E+02  4.16114E+03  3.21069E+03  9.70509E+02  4.07397E+03 -2.11977E+03  3.75356E+03
 -3.80024E+03  1.20992E+03 -4.54075E+03 -2.49631E+01 -2.44666E+03 -3.20683E+03  2.63179E+03 -2.38542E+03
  4.14544E+03 -1.26367E+03  3.19237E+03 -5.54851E+01  7.92067E+02  2.19317E+03  1.64967E+03  1.90195E+03
 -8.78379E+02  2.15841E+03 -2.66165E+03  1.31199E+03 -7.24186E+02  1.71100E+02 -5.60561E+02  6.16280E+02
 -8.23380E+02  2.06366E+03 -2.37765E+03  1.94774E+03 -6.32444E+03 -7.84649E+02 -6.50129E+03 -2.54211E+03
 -2.20999E+03 -5.05331E+03  1.11814E+02 -7.06173E+03  3.42585E+03 -4.88072E+03  6.43791E+03 -1.89610E+03
  5.43568E+03  3.46577E+02  2.67356E+03  4.24335E+03  4.74604E+00  4.99981E+03 -1.65636E+03  2.40183E+03
 -2.77539E+03  1.80681E+03 -3.94311E+02 -3.15092E+01 -4.29740E+02 -3.00850E+02  2.67391E+02 -1.08961E+03
 -7.74126E+02 -1.21495E+03 -6.01184E+01 -1.04429E+03 -8.42480E+02 -6.47214E+02 -7.21723E+02 -1.81254E+03
  2.25318E+03 -7.74360E+02  3.73842E+03  8.95136E+02  2.24759E+03  2.05791E+03 -8.40338E+01  3.35047E+03
 -2.45552E+03  5.20221E+03 -2.55231E+03  1.95742E+03 -4.42550E+03 -1.06324E+03 -4.01446E+03 -3.32522E+03
 -2.37410E+03 -4.69804E+03  1.61695E+03 -3.68612E+03  2.16637E+03 -1.79901E+03  2.46564E+03  1.69906E+03
  1.83911E+03  1.15124E+03 -6.74596E+02  1.18693E+03 -9.43743E+02  7.78453E+02 -4.18572E+02 -2.30420E+03
  1.23429E+03 -1.29760E+03  2.57370E+03  9.52948E+02  8.39925E+02  2.89571E+03 -8.98677E+01  2.71684E+03
 -1.60425E+03  2.55010E+03 -1.14825E+03  5.33951E+02 -2.37872E+03 -1.54667E+03 -3.25505E+02 -3.15569E+03
  1.92446E+03 -4.01330E+03  2.66844E+03  2.27757E+01  2.28423E+03  9.60494E+02  1.07756E+03  2.36593E+03
  1.64079E+03  1.53258E+03 -2.02548E+03  1.99074E+03 -1.45384E+03  1.01546E+03 -6.36000E+02  4.92007E+02
 -1.34525E+02  2.87988E+02 -6.86739E+02 -4.81691E+01 -1.21171E+03  3.65312E+02 -2.89087E+03 -9.33501E+02
 -2.29816E+03 -4.33444E+01 -2.25903E+02 -2.86920E+03  1.49829E+03 -2.23223E+03  2.62323E+03 -9.82643E+02
  3.93798E+03  8.56606E+02  1.08403E+02  2.53244E+03 -4.46842E+02  2.10120E+03 -9.28186E+02  3.29345E+03
