 $NMID ID='MM_0lb_SNR200_18hz_g60_4.RAW', FMTDAT='(8E13.5)'
 TRAMP=1., VOLUME=1. $END
  3.09558E+05 -3.10301E+02  3.37578E+05  2.50170E+05  8.39503E+04  3.38152E+05 -1.33090E+05  2.50876E+05
 -1.89939E+05  8.34868E+04 -1.11105E+05 -3.36411E+04  1.43862E+03 -5.18940E+04  5.45489E+04 -3.68216E+02
  3.54118E+04  5.30408E+04 -1.70301E+04  7.56603E+04 -6.03240E+04  6.32121E+04 -8.47599E+04  3.18063E+04
 -8.04685E+04 -1.32526E+04 -5.87767E+04 -5.10531E+04 -1.63036E+04 -6.87747E+04  2.73235E+04 -4.48785E+04
  3.89148E+04  4.94598E+03  1.57977E+04  4.73050E+04 -3.47262E+04  4.64598E+04 -6.74448E+04 -4.04140E+01
 -5.17786E+04 -5.58841E+04 -6.15537E+03 -7.65326E+04  3.40563E+04 -5.36736E+04  4.83865E+04 -1.68369E+04
  4.29223E+04  1.09118E+04  3.11741E+04  2.55327E+04  1.57961E+04  2.87833E+04 -5.07831E+03  2.79306E+04
 -2.25032E+04  1.34661E+04 -1.91860E+04 -4.92269E+03  5.58076E+03 -7.52182E+03  2.22104E+04  1.20278E+04
  8.24261E+03  3.62033E+04 -3.22681E+04  3.60775E+04 -6.24397E+04  1.66730E+03 -5.59335E+04 -4.15329E+04
 -1.18501E+04 -6.37183E+04  3.90416E+04 -4.43519E+04  5.67239E+04 -2.81754E+03  3.43389E+04  3.21590E+04
 -6.73786E+03  3.55872E+04 -2.92255E+04  1.43477E+04 -2.94342E+04 -5.30125E+03 -1.60515E+04 -1.00570E+04
 -8.26986E+03 -1.23794E+04 -7.02853E+02 -1.70002E+04  7.80818E+03 -2.37977E+04  1.48150E+04 -1.37456E+04
  1.06275E+04  4.72186E+03 -5.66757E+03  1.18325E+04 -1.95639E+04 -5.25186E+03 -7.60790E+03 -3.33151E+04
  2.18855E+04 -4.23408E+04  4.73937E+04 -1.87669E+04  4.45296E+04  1.93368E+04  1.46304E+04  4.29339E+04
 -1.66003E+04  3.22027E+04 -2.45338E+04  2.09163E+03 -9.59059E+03 -2.67839E+04  1.98534E+04 -3.25980E+04
  4.07336E+04 -9.28183E+03  3.45753E+04  2.35881E+04  1.67475E+04  4.45205E+04 -7.79892E+03  4.80202E+04
 -3.00864E+04  3.18236E+04 -4.11926E+04  9.44146E+03 -4.05943E+04 -1.56335E+04 -2.31723E+04 -3.55075E+04
  6.44255E+03 -3.53387E+04  2.96368E+04 -1.28268E+04  2.84129E+04  1.11704E+04  2.70627E+03  1.83817E+04
 -1.22635E+04  8.36798E+03 -9.05650E+03 -7.19465E+03  4.92320E+03 -1.06722E+04  1.75991E+04  6.07183E+03
  1.30616E+04  2.15602E+04 -5.57583E+03  2.34647E+04 -2.09127E+04  1.01876E+04 -2.74266E+04 -5.71720E+03
 -1.79689E+04 -1.66695E+04 -7.32415E+03 -1.94904E+04  3.83013E+03 -1.83906E+04  1.48362E+04 -1.58450E+04
  2.36468E+04 -9.87891E+03  3.08861E+04  2.78402E+03  2.22533E+04  1.89492E+04  4.22144E+03  3.30634E+04
 -1.56935E+04  2.87157E+04 -2.70505E+04  1.11888E+04 -2.04609E+04 -1.06350E+04 -3.69637E+03 -1.42225E+04
  2.75290E+03 -2.89127E+03 -4.57564E+03  6.44788E+03 -1.36111E+04  5.32801E+03 -1.54012E+04 -7.60937E+03
 -9.55343E+03 -1.64928E+04  4.83922E+03 -2.19820E+04  1.40886E+04 -1.48806E+04  1.55732E+04 -1.62133E+03
  1.07400E+04  1.24337E+04 -6.28805E+02  1.76034E+04 -1.18689E+04  9.70057E+03 -1.78300E+04 -4.14299E+03
 -1.28790E+04 -1.49600E+04 -1.91582E+03 -2.09646E+04  9.02216E+03 -1.68846E+04  1.78996E+04 -6.66205E+03
  1.67194E+04 -4.13742E+02  1.25360E+04  4.83721E+03  5.66913E+03  3.69570E+02  9.30050E+03 -6.57317E+02
  1.63401E+04  2.83324E+03  1.78881E+04  1.18749E+04  9.81872E+03  2.68687E+04 -2.50689E+03  3.01531E+04
 -1.84438E+04  2.38941E+04 -2.72724E+04  1.11110E+04 -2.92575E+04 -3.06234E+03 -2.47394E+04 -1.66410E+04
 -1.14712E+04 -2.40280E+04  7.61269E+03 -2.12601E+04  1.90297E+04 -1.15970E+04  1.73421E+04  5.55675E+03
  7.11721E+03  1.24240E+04 -8.42587E+03  1.17059E+04 -1.42972E+04  3.51290E+03 -1.06863E+04 -9.16196E+03
  7.19506E+02 -1.46875E+04  8.03483E+03 -1.07716E+04  8.56512E+03 -2.46908E+03  1.58828E+03  7.33942E+03
 -5.57214E+03  2.36438E+03 -5.12083E+03 -5.49064E+03  6.21925E+02 -1.04949E+04  8.07961E+03 -1.09147E+04
  1.41139E+04 -5.82800E+03  1.47243E+04  2.66439E+03  1.30465E+04  1.05775E+04  6.55978E+03  1.66263E+04
 -3.11265E+03  1.85426E+04 -1.16966E+04  1.15279E+04 -1.34070E+04  3.62198E+03 -8.95674E+03 -3.21339E+03
 -4.45634E+03 -4.37872E+03  8.90505E+01  8.80751E+02 -2.17218E+03  2.92578E+03 -4.48504E+03  4.35052E+03
 -8.20420E+03 -5.11217E+02 -1.06153E+04 -8.71702E+03 -2.52802E+03 -1.25503E+04  3.25254E+03 -1.05883E+04
  8.24740E+03 -3.65644E+03  5.53630E+03  2.32749E+03 -1.38898E+02  3.68325E+03 -4.14587E+03 -9.67765E+02
 -4.15703E+03 -6.43338E+03 -1.02943E+03 -9.09052E+03  4.42401E+03 -9.47465E+03  1.11689E+04 -4.42389E+03
  1.44582E+04  5.23105E+02  9.93318E+03  6.72698E+03  2.31023E+03  1.02837E+04 -6.38766E+03  8.28843E+03
 -7.34354E+03  3.81266E+03 -4.97274E+03 -2.76653E+03  1.64361E+03 -1.11372E+03  5.49064E+03 -1.09860E+03
  5.21122E+03  5.18815E+03  1.14659E+03  6.26175E+03 -4.77707E+03  6.98164E+03 -9.33352E+03  1.84897E+03
 -6.06099E+03 -4.70901E+03  1.89534E+03 -8.87181E+03  4.21532E+03 -4.13060E+03  4.17336E+03  1.41081E+03
  1.32339E+03  5.01787E+03 -5.33005E+03  6.03302E+03 -5.62440E+03  2.45543E+03 -6.15973E+03 -2.90670E+03
 -3.49326E+03 -6.72506E+03  1.14067E+03 -7.79960E+03  6.65002E+03 -4.88205E+03  7.31917E+03  1.10553E+03
  4.21912E+03  7.24208E+03  1.17855E+03  7.58276E+03 -5.41370E+03  4.78131E+03 -5.95734E+03 -1.00242E+03
 -7.09660E+03 -5.80501E+03 -2.11129E+03 -5.53246E+03  3.14070E+03 -5.86055E+03  2.76559E+03 -2.44561E+03
  4.61242E+03  2.51120E+02 -3.76432E+02  1.39865E+03 -1.47567E+02 -1.60335E+03  1.77976E+03 -3.10002E+03
  4.85751E+03 -5.41525E+02  7.90108E+03  3.83335E+02  5.57545E+03  2.99603E+03  5.37688E+03  8.51398E+03
 -1.68765E+03  1.02602E+04 -8.72774E+03  8.30723E+03 -1.14806E+04  5.38738E+02 -8.93430E+03 -3.38146E+03
 -4.61770E+03 -7.26804E+03 -7.85110E+02 -6.10287E+03  2.25129E+03 -3.93028E+03  2.20266E+03 -2.13599E+03
  1.56602E+03 -2.47060E+03  1.46240E+03 -3.14921E+03  4.31126E+03 -6.79381E+02  3.55922E+03  1.28115E+03
  4.59901E+03  7.24992E+02  1.37637E+03  3.76063E+03 -8.91811E+02  4.25045E+03 -5.76267E+03  2.84697E+03
 -5.90777E+03 -1.47920E+03 -2.24398E+03 -3.48451E+03  8.39424E+02 -5.72625E+03  4.24390E+03 -6.13739E+03
  5.31979E+03 -4.32097E+03  7.68013E+03  6.55455E+02  5.95842E+03  4.79034E+03  1.06698E+03  6.84823E+03
 -2.67732E+03  6.76372E+03 -2.74575E+03  1.33073E+03 -1.60690E+03 -2.58324E+03 -1.66784E+03  1.33189E+02
 -3.77984E+01 -3.59698E+02 -1.13346E+03  2.65638E+03 -3.22513E+03 -1.11987E+02 -3.41273E+03 -5.96721E+02
 -2.40562E+03 -3.26098E+03  1.54271E+03 -6.23021E+03  1.49425E+03 -5.24690E+03  3.92728E+03 -2.31377E+03
  3.86462E+03  2.38683E+03  1.63197E+03  3.71294E+03 -5.24593E+02  4.29212E+03 -2.71502E+03  3.78831E+03
 -4.13214E+03  1.05838E+03 -3.43662E+03 -2.91345E+03 -8.00943E+02 -2.32337E+03  2.14533E+03 -3.14115E+03
  3.05138E+03 -1.08909E+03  8.18782E+02  5.28662E+02 -4.96222E+01  2.35607E+03  1.89154E+03  3.02961E+02
  2.45360E+03  1.14441E+03  1.69209E+03  7.22050E+02  1.22534E+03  2.12399E+03  5.76157E+02  1.89387E+03
 -7.05800E+02  2.72176E+03 -1.91598E+03  4.53251E+03 -3.66920E+03  1.33288E+03 -3.75654E+03 -9.11422E+02
 -1.76377E+03 -3.57453E+03  1.35403E+02 -5.29748E+03  2.26725E+03 -3.05899E+03  3.68284E+03 -1.25821E+03
  2.84135E+03  2.60262E+03  3.88042E+02  2.45851E+03 -8.04995E+02  9.35406E+02 -1.85890E+03 -1.00945E+03
  1.85728E+02 -8.75650E+02  2.10012E+03 -2.40421E+03  9.57116E+02 -1.21610E+03  2.27148E+03  3.30639E+02
  8.27628E+01  1.21669E+03  7.37201E+02 -2.18353E+02  4.81049E+02  5.40319E+02  2.28480E+03 -1.11747E+02
  5.58283E+02  3.07268E+02  1.91893E+03 -5.89643E+02  2.36770E+03  2.87167E+03  9.02844E+02  3.37929E+03
 -1.61272E+03  3.83788E+02 -2.47737E+03 -1.07908E+02 -1.30581E+03 -6.00287E+02 -7.41492E+01 -9.38065E+02
 -9.87321E+01 -1.30475E+03  9.11350E+02 -9.29676E+02 -8.02158E+02  1.35123E+03 -5.04350E+02  1.95400E+03
 -1.22290E+03  1.57499E+03  1.71037E+02 -1.42690E+03 -1.08542E+02 -2.56292E+03  1.76025E+02 -2.12771E+03
  1.28983E+03 -6.11216E+02  9.82425E+02  8.09997E+01  3.98900E+02 -1.02081E+03  3.52614E+02  3.72469E+02
 -2.11364E+02 -4.52424E+02 -1.59195E+03 -3.05998E+02  7.53865E+02 -6.84848E+02  2.56463E+03 -5.02926E+02
  8.42532E+02  9.53879E+02  3.09034E+03  3.40016E+01  2.15678E+03  1.33196E+03  6.14128E+02  1.26004E+03
 -3.35968E+02  2.21708E+02 -2.65181E+03  3.40544E+02 -1.80818E+03 -2.45664E+03  2.09006E+02 -4.23291E+02
  2.05800E+03 -1.62750E+03  1.18432E+03 -1.24516E+02 -2.42695E+02  1.01079E+03  5.69860E+02  1.50277E+03
 -7.99600E+02  1.28577E+03 -6.68161E+02 -3.14253E+02 -2.59179E+02  6.24827E+02 -1.12325E+03  2.21395E+02
 -1.11618E+03  8.29790E+02 -1.26322E+03 -1.35566E+03 -2.24360E+03  3.59593E+02 -3.23172E+03 -6.13461E+02
 -1.33135E+03 -3.08686E+03  3.11324E+02 -3.92475E+03  9.62925E+02 -2.53796E+03  1.91758E+03 -8.02619E+02
  1.80197E+03  4.28756E+02  1.17388E+03  2.38850E+03  1.03556E+02  2.40854E+03  1.14415E+02  1.18343E+03
 -7.06051E+02  6.64081E+02 -3.36071E+02  1.61063E+01  1.10830E+02  1.04726E+03 -5.85172E+02  5.03884E+02
 -3.86345E+02 -4.09346E+02  4.61040E+01  5.00227E+02  1.10240E+03 -4.14568E+02 -2.21185E+02 -8.83115E+02
  7.50277E+02 -7.15877E+02 -2.04173E+02  4.87159E+02  2.16572E+03  1.03705E+03  1.22631E+03  2.08387E+03
 -1.72956E+03  2.45083E+03 -9.76979E+02  1.08289E+03 -2.03703E+03 -2.96348E+02 -1.59105E+03 -1.83142E+03
 -8.05870E+02 -1.78611E+03  1.33300E+03 -2.04006E+03 -1.98573E+02 -8.26925E+01  3.21471E+02 -6.17019E+02
  1.06098E+03  3.84322E+02 -4.80928E+02  2.49836E+02 -1.20636E+03 -5.88389E+02 -4.87782E+02 -3.01957E+01
  4.87578E+02  6.80063E+02  1.12210E+02  7.04670E+02 -5.85564E+02  7.99656E+02  1.34980E+01 -6.49196E+02
 -3.87336E+02  9.76650E+02 -1.06876E+03  4.08239E+02 -9.68915E+02  2.51327E+02  4.63222E+02 -7.80998E+02
  8.17096E+02  6.38222E+02  9.40721E+02  5.05895E+01  3.71960E+02 -4.30677E+02  3.40450E+02  1.33375E+03
  6.06980E+01  6.29517E+02  4.42477E+02 -4.21793E+02 -1.10738E+03  9.79784E+02 -1.54025E+03 -1.67660E+01
  1.62044E+02 -4.26101E+02 -1.26462E+02  8.05696E+02 -2.61699E+03  5.95350E+02 -1.18990E+03 -8.26819E+02
 -8.98538E+02  6.91314E+01 -9.36124E+02 -2.05763E+03  9.62623E+02 -1.23102E+03  1.33828E+03 -7.47808E+02
  7.68079E+02  5.67541E+02 -6.42610E+02  6.48206E+02  2.51572E+02 -6.39467E+01 -3.80185E+02  1.05208E+03
