 $NMID ID='MM_0lb_SNR200_14hz_g60_80.RAW', FMTDAT='(8E13.5)'
 TRAMP=1., VOLUME=1. $END
  3.10484E+05  8.64861E+02  3.38090E+05  2.49482E+05  8.49414E+04  3.39545E+05 -1.32975E+05  2.50880E+05
 -1.90615E+05  8.41175E+04 -1.12444E+05 -3.15731E+04 -5.77648E+01 -5.03654E+04  5.38899E+04  2.13249E+02
  3.55934E+04  5.30137E+04 -1.67660E+04  7.59149E+04 -6.08546E+04  6.49685E+04 -8.53329E+04  3.30537E+04
 -8.18166E+04 -1.05992E+04 -5.75174E+04 -5.29270E+04 -1.50733E+04 -7.06496E+04  2.77884E+04 -4.61093E+04
  3.91819E+04  2.77135E+03  1.64416E+04  4.90891E+04 -3.40408E+04  4.69627E+04 -6.66726E+04  1.82568E+02
 -5.35019E+04 -5.69400E+04 -6.83746E+03 -7.91932E+04  3.45245E+04 -5.71185E+04  4.81070E+04 -1.91860E+04
  4.44406E+04  1.10736E+04  3.18839E+04  2.52646E+04  1.59481E+04  3.11312E+04 -5.92435E+03  2.84505E+04
 -2.34397E+04  1.25548E+04 -1.91079E+04 -6.53408E+03  6.12836E+03 -7.39136E+03  2.19712E+04  1.27296E+04
  6.04545E+03  3.58837E+04 -3.22102E+04  3.52010E+04 -6.46802E+04  2.46072E+03 -5.69415E+04 -4.25241E+04
 -1.18430E+04 -6.41258E+04  4.05273E+04 -4.62391E+04  5.96510E+04 -2.32702E+03  3.45708E+04  3.30236E+04
 -6.19096E+03  3.72634E+04 -3.09175E+04  1.66239E+04 -3.19001E+04 -3.10691E+03 -1.87939E+04 -1.24980E+04
 -9.21468E+03 -1.38914E+04 -1.08956E+02 -1.84271E+04  8.51415E+03 -2.38329E+04  1.50965E+04 -1.38546E+04
  1.05708E+04  5.28671E+03 -8.85009E+03  1.21232E+04 -2.20492E+04 -5.72198E+03 -8.40580E+03 -3.48705E+04
  2.37200E+04 -4.35381E+04  4.93692E+04 -2.12295E+04  4.63960E+04  2.00283E+04  1.59018E+04  4.48225E+04
 -1.66308E+04  3.42877E+04 -2.66217E+04  3.21614E+03 -9.43595E+03 -2.87397E+04  2.07373E+04 -3.47263E+04
  4.16003E+04 -8.92259E+03  3.79664E+04  2.45640E+04  1.96772E+04  4.71261E+04 -7.52742E+03  5.19799E+04
 -3.30300E+04  3.53173E+04 -4.37533E+04  8.99612E+03 -4.50486E+04 -1.73249E+04 -2.37865E+04 -3.91743E+04
  7.96238E+03 -3.89159E+04  3.18692E+04 -1.48697E+04  2.99386E+04  1.22663E+04  5.02541E+03  1.98217E+04
 -1.39725E+04  8.28675E+03 -1.10896E+04 -7.88200E+03  4.33901E+03 -1.20875E+04  1.83372E+04  6.16425E+03
  1.26897E+04  2.36530E+04 -5.37452E+03  2.49264E+04 -2.29891E+04  1.32136E+04 -2.85102E+04 -3.76621E+03
 -2.21971E+04 -1.72744E+04 -9.99875E+03 -2.12308E+04  4.54056E+03 -2.14704E+04  1.66718E+04 -1.88620E+04
  2.66647E+04 -1.35874E+04  3.35013E+04  2.95212E+03  2.34127E+04  2.08970E+04  4.20674E+03  3.81207E+04
 -1.91283E+04  3.16381E+04 -2.91990E+04  1.01819E+04 -2.17918E+04 -1.06783E+04 -3.45632E+03 -1.37317E+04
  1.27042E+03 -1.97881E+03 -4.41755E+03  8.13274E+03 -1.77842E+04  5.57145E+03 -1.69504E+04 -7.80549E+03
 -1.09181E+04 -2.05072E+04  6.62624E+03 -2.43994E+04  1.62697E+04 -1.65569E+04  1.88493E+04 -1.21540E+03
  1.30774E+04  1.37444E+04 -9.89980E+02  2.03283E+04 -1.41652E+04  1.09645E+04 -2.08655E+04 -4.61102E+03
 -1.60183E+04 -1.85465E+04 -3.24387E+03 -2.47183E+04  1.10384E+04 -2.20078E+04  2.09562E+04 -9.84551E+03
  1.90301E+04  8.83968E+02  1.29281E+04  4.81610E+03  7.58419E+03  4.83629E+02  9.63440E+03 -1.66234E+03
  1.87964E+04  3.48228E+03  1.99759E+04  1.44488E+04  1.44434E+04  3.25064E+04 -3.11056E+03  3.65705E+04
 -2.09832E+04  2.94221E+04 -3.57535E+04  1.51299E+04 -3.70822E+04 -2.41222E+03 -2.98769E+04 -2.07765E+04
 -1.27571E+04 -3.04848E+04  1.01912E+04 -2.65625E+04  2.25052E+04 -1.43520E+04  1.92730E+04  6.29884E+03
  8.50521E+03  1.55876E+04 -9.81032E+03  1.27023E+04 -1.78286E+04  1.90519E+03 -1.24918E+04 -1.02974E+04
 -2.21556E+02 -1.65341E+04  8.52503E+03 -1.25667E+04  1.02908E+04 -7.87822E+02  1.11888E+03  8.45102E+03
 -7.52135E+03  2.35603E+03 -6.92481E+03 -6.46582E+03 -2.98056E+02 -1.56532E+04  1.15425E+04 -1.59088E+04
  1.80304E+04 -8.16232E+03  1.85158E+04  3.43318E+03  1.81718E+04  1.37026E+04  7.67371E+03  2.20144E+04
 -4.17789E+03  2.43060E+04 -1.53127E+04  1.53335E+04 -1.74666E+04  3.59875E+03 -1.12903E+04 -4.08284E+03
 -5.30654E+03 -5.05506E+03 -1.44603E+03  1.79128E+03 -2.43488E+03  4.44633E+03 -6.35838E+03  4.48165E+03
 -1.12795E+04 -1.46354E+03 -1.14775E+04 -1.00161E+04 -4.96014E+03 -1.50831E+04  4.06758E+03 -1.18419E+04
  1.00462E+04 -6.51984E+03  7.65183E+03  4.27763E+03 -5.94678E+02  4.06876E+03 -6.47362E+03  2.07217E+02
 -5.23285E+03 -7.56460E+03  5.12224E+02 -1.18606E+04  6.42623E+03 -1.25048E+04  1.50878E+04 -6.11594E+03
  1.77400E+04  6.32735E+02  1.34001E+04  1.10543E+04  2.51516E+03  1.35773E+04 -6.25846E+03  1.13035E+04
 -1.04089E+04  3.98015E+03 -5.25584E+03 -2.53388E+03  3.11765E+03 -2.91396E+03  6.29669E+03 -1.66345E+02
  5.78211E+03  5.43994E+03  7.30119E+02  9.87480E+03 -7.87638E+03  9.13436E+03 -1.07927E+04  2.63332E+03
 -8.62951E+03 -5.49156E+03  1.15159E+03 -1.02060E+04  6.64288E+03 -3.88767E+03  5.64573E+03  2.63840E+03
  3.30978E+03  6.29203E+03 -7.29876E+03  8.71830E+03 -1.10077E+04  4.45688E+03 -8.89904E+03 -2.25201E+03
 -4.71327E+03 -1.07091E+04  3.00297E+03 -1.19293E+04  1.07165E+04 -8.30912E+03  1.08453E+04  2.28171E+03
  8.07255E+03  9.39664E+03 -7.85851E+02  1.16179E+04 -7.78612E+03  6.51456E+03 -9.53037E+03 -3.81204E+02
 -7.26313E+03 -8.20583E+03 -1.94945E+03 -7.80251E+03  4.92536E+03 -6.96274E+03  5.66965E+03 -3.59027E+03
  3.58062E+03  1.84755E+03 -5.68959E+02  2.22593E+03  1.20714E+02 -2.78036E+03  1.22173E+03 -5.16965E+03
  6.35873E+03 -3.01006E+03  1.12487E+04  2.39616E+03  1.10390E+04  7.95717E+03  6.23222E+03  1.39111E+04
 -3.96953E+03  1.63188E+04 -1.55690E+04  1.22490E+04 -1.64793E+04  1.38086E+03 -1.40200E+04 -6.15873E+03
 -6.17467E+03 -1.06543E+04  1.35372E+02 -8.51230E+03  3.10918E+03 -5.82390E+03  4.48084E+03 -3.29474E+03
  2.74816E+03 -4.15066E+03  3.57035E+03 -3.63721E+03  3.55223E+03 -3.07367E+03  4.70535E+03  1.33422E+02
  7.48842E+03  8.67381E+02  4.37649E+03  6.98648E+03 -1.10511E+03  6.70491E+03 -8.42681E+03  5.50884E+03
 -9.76421E+03 -1.36898E+03 -6.44517E+03 -5.78369E+03 -1.38177E+02 -1.02203E+04  6.50508E+03 -1.05999E+04
  9.44777E+03 -4.48159E+03  1.26121E+04  1.59961E+03  9.62455E+03  8.10052E+03  2.36669E+03  1.13701E+04
 -3.42483E+03  9.79039E+03 -7.39944E+03  3.88348E+03 -5.94053E+03 -1.50440E+03 -2.17217E+03 -1.91023E+03
 -5.11656E+02  4.99641E+02 -6.26209E+02  2.14853E+03 -2.98797E+03  1.72388E+03 -6.68460E+03 -9.22236E+02
 -3.93076E+03 -6.62782E+03  5.52499E+02 -1.01219E+04  5.30592E+03 -7.99577E+03  7.83627E+03 -2.43772E+03
  9.13435E+03  3.98159E+03  5.17416E+03  8.21007E+03 -9.90502E+02  8.99614E+03 -5.73565E+03  4.99211E+03
 -7.57231E+03  2.00226E+03 -7.10060E+03 -4.74903E+03 -7.75335E+01 -7.48310E+03  2.78462E+03 -5.05140E+03
  6.66817E+03 -1.90658E+03  3.85549E+03  1.93660E+03  5.64752E+02  2.37947E+03  1.21817E+03  1.10524E+03
  1.33023E+03  8.84569E+02  3.33381E+03  1.92967E+03  2.47525E+03  3.25264E+03  2.43624E+03  4.34158E+03
 -1.19146E+03  5.13969E+03 -5.77905E+03  8.26157E+03 -8.78597E+03  1.03179E+03 -7.81638E+03 -1.72973E+03
 -5.01503E+03 -6.51591E+03  9.59821E+02 -8.81798E+03  4.89814E+03 -6.90299E+03  6.84111E+03 -1.85495E+03
  4.50638E+03  2.11276E+03  1.15150E+03  5.37023E+03 -1.41553E+03  2.74576E+03 -3.35048E+03 -4.85527E+02
 -2.25851E+03 -3.94932E+03  2.31401E+03 -4.13401E+03  3.09643E+03 -1.78798E+03  2.91618E+03  6.75604E+02
  1.58399E+03  1.05127E+03  2.05486E+03  6.41821E+02 -8.17103E+02  2.17947E+03  9.28570E+02 -1.09797E+03
  9.37685E+02  1.79698E+02  2.98454E+03  7.33612E+02  1.95314E+03  3.47842E+03 -1.50289E+02  6.52868E+03
 -3.69092E+03  1.77173E+03 -4.14443E+03  1.34449E+03 -4.11104E+03 -1.93931E+03 -2.11195E+03 -2.40002E+03
  1.66624E+02 -3.32122E+03  3.89122E+03 -1.22796E+03  1.18821E+03  2.41636E+03 -1.05311E+03  2.67818E+03
 -2.76269E+03  7.91367E+02 -3.52971E+03 -3.16936E+03 -1.68092E+03 -3.66960E+03  1.23877E+03 -3.94771E+03
  2.84678E+03 -1.27179E+03  2.94856E+03 -5.38924E+02  2.64910E+03 -3.00030E+02  8.45007E+02  2.43438E+03
 -2.66296E+03 -1.19198E+03 -3.71569E+03 -1.47925E+03  8.85959E+02 -2.74893E+03  3.73772E+03 -2.39934E+03
  3.22927E+03  8.95167E+02  4.60591E+03  2.28669E+03  2.03253E+03  4.56626E+03 -1.27832E+03  5.10323E+03
 -4.08394E+03  2.38005E+03 -2.72995E+03 -1.22608E+02 -2.27700E+03 -1.53080E+03  9.33322E+02 -4.31374E+03
  3.68297E+03 -1.27074E+03  2.73814E+03  9.16721E+02  1.44418E+03  4.11683E+03 -4.96366E+02  9.83704E+02
 -8.17115E+02  2.89672E+03 -1.57700E+03  7.28102E+02 -5.01165E+02  2.38455E+02 -2.67734E+03  2.47600E+03
  3.70785E+02  1.69659E+03 -3.66051E+03  1.46881E+03 -3.84293E+03  7.30920E+02 -5.40121E+03 -2.09111E+03
 -2.82873E+03 -7.38339E+03  7.05935E+02 -5.67732E+03  4.25767E+03 -4.48443E+03  6.91119E+03 -1.99028E+03
  4.90429E+03  9.19067E+02  3.81945E+03  4.54203E+03 -1.11967E+03  5.31247E+03 -2.18410E+03  3.84666E+03
 -2.28443E+03  6.90939E+02 -1.27100E+03  4.30488E+02 -2.51078E+03 -7.26250E+02 -6.37315E+02 -8.78774E+02
 -2.13243E+03  3.92506E+02 -1.67543E+03  2.56492E+02  1.01051E+02 -1.27825E+03  2.38027E+02 -1.68217E+03
  2.96433E+03 -2.01918E+03  1.25603E+03  5.75375E+02  3.34486E+03  2.19135E+03 -3.51688E+02  4.17081E+03
 -1.69699E+03  5.84185E+03 -3.10569E+03  4.30599E+03 -4.94503E+03 -1.14927E+02 -3.86373E+03 -3.66891E+03
 -1.12291E+03 -3.89134E+03  6.11844E+02 -3.33850E+03  2.35601E+03 -1.43954E+03  1.41632E+03 -7.65708E+01
  3.74240E+02 -9.56196E+02 -1.38974E+03  1.11461E+03 -1.50433E+03  1.25749E+00  3.63464E+02 -7.72377E+02
  1.13709E+03  2.37240E+02  2.46386E+02  1.27054E+01  7.03030E+02  3.67097E+01  4.49845E+02  1.14637E+03
 -1.86065E+03  1.73598E+03 -2.48907E+03 -2.97230E+02 -9.02813E+02 -1.60410E+03  1.81109E+03 -3.30067E+03
  1.89327E+03 -2.96975E+03  1.60820E+03 -1.08350E+03  2.00111E+03  4.40474E+02  1.87919E+03  2.35122E+03
 -8.08879E+01  2.98165E+03 -1.14147E+03  2.23271E+03 -1.00877E+03  2.19943E+03 -1.62359E+03  8.44314E+02
 -1.05603E+03 -5.15851E+02 -1.69057E+03  2.30567E+02 -2.37528E+03  3.86216E+02 -2.21961E+03 -9.85187E+02
 -2.45411E+03 -1.29831E+03 -9.82346E+02 -3.27642E+03  6.56169E+02 -3.43203E+03  1.96572E+03 -1.16666E+03
  2.39599E+03 -7.33552E+02 -1.77571E+02  3.46254E+02 -3.68045E+02  1.38321E+03 -2.07040E+03  1.26286E+03
