 $NMID ID='MM_0lb_SNR200_13hz_g60_17.RAW', FMTDAT='(8E13.5)'
 TRAMP=1., VOLUME=1. $END
  3.09497E+05 -2.62352E+02  3.38362E+05  2.50708E+05  8.48992E+04  3.39088E+05 -1.33144E+05  2.52239E+05
 -1.90276E+05  8.37484E+04 -1.11931E+05 -3.18036E+04  3.64864E+02 -5.01809E+04  5.39544E+04 -8.72587E+02
  3.53853E+04  5.19005E+04 -1.64367E+04  7.51345E+04 -6.08101E+04  6.43963E+04 -8.54876E+04  3.26976E+04
 -8.19845E+04 -1.24846E+04 -5.75095E+04 -5.20746E+04 -1.48272E+04 -7.09821E+04  2.67845E+04 -4.60591E+04
  4.08810E+04  3.49231E+03  1.58654E+04  4.89778E+04 -3.45485E+04  4.76997E+04 -6.77747E+04  6.22004E+02
 -5.49890E+04 -5.78936E+04 -7.40938E+03 -7.84482E+04  3.56034E+04 -5.57074E+04  4.99180E+04 -1.86422E+04
  4.39734E+04  1.02781E+04  3.17017E+04  2.63813E+04  1.56200E+04  3.06737E+04 -5.41180E+03  2.71769E+04
 -2.23275E+04  1.19698E+04 -1.77550E+04 -5.28671E+03  7.82481E+03 -7.12732E+03  2.20013E+04  1.35926E+04
  7.82318E+03  3.55226E+04 -3.33345E+04  3.64287E+04 -6.50475E+04  1.82723E+03 -5.71881E+04 -4.32957E+04
 -1.35239E+04 -6.39910E+04  4.07367E+04 -4.56913E+04  6.03863E+04 -2.94600E+03  3.62798E+04  3.39345E+04
 -5.77156E+03  3.83026E+04 -3.18271E+04  1.84731E+04 -3.23936E+04 -4.81636E+03 -1.80310E+04 -1.19096E+04
 -9.21114E+03 -1.49487E+04 -2.20463E+03 -1.74794E+04  8.10505E+03 -2.45065E+04  1.65181E+04 -1.28256E+04
  1.14177E+04  6.93511E+03 -8.62780E+03  1.40944E+04 -2.18245E+04 -5.87145E+03 -9.44677E+03 -3.62271E+04
  2.28348E+04 -4.44045E+04  5.06489E+04 -2.03343E+04  4.70471E+04  1.96986E+04  1.72904E+04  4.43165E+04
 -1.59384E+04  3.48627E+04 -2.61918E+04  2.80644E+03 -1.01608E+04 -2.90547E+04  2.13636E+04 -3.59419E+04
  4.27756E+04 -9.13719E+03  3.89314E+04  2.34650E+04  2.03396E+04  4.90900E+04 -8.07310E+03  5.42971E+04
 -3.38781E+04  3.66368E+04 -4.55480E+04  1.01625E+04 -4.57158E+04 -1.84058E+04 -2.55095E+04 -4.05936E+04
  8.21329E+03 -3.93419E+04  3.25856E+04 -1.66878E+04  3.01411E+04  1.08167E+04  3.39327E+03  1.93544E+04
 -1.40078E+04  8.70151E+03 -9.92418E+03 -7.65121E+03  5.18813E+03 -1.17215E+04  2.00345E+04  6.08263E+03
  1.27647E+04  2.23065E+04 -6.09484E+03  2.61610E+04 -2.39426E+04  1.34566E+04 -3.07087E+04 -4.68989E+03
 -2.28752E+04 -1.75368E+04 -9.57049E+03 -2.27442E+04  3.59445E+03 -2.22858E+04  1.79492E+04 -2.12152E+04
  2.94486E+04 -1.42565E+04  3.64167E+04  4.16308E+03  2.51907E+04  2.28283E+04  3.26516E+03  3.97288E+04
 -1.74300E+04  3.27633E+04 -2.85087E+04  1.21762E+04 -2.11465E+04 -1.04594E+04 -4.99804E+03 -1.41333E+04
  6.63141E+02 -1.66530E+03 -6.35835E+03  6.51751E+03 -1.69334E+04  4.43712E+03 -1.74836E+04 -9.02395E+03
 -1.14253E+04 -2.12041E+04  6.47160E+03 -2.55189E+04  1.75559E+04 -1.79111E+04  2.17828E+04 -1.20675E+03
  1.16034E+04  1.48288E+04 -1.39225E+03  2.13742E+04 -1.33313E+04  1.11887E+04 -1.95368E+04 -4.28767E+03
 -1.65520E+04 -1.92190E+04 -2.08655E+03 -2.51443E+04  1.04778E+04 -2.03792E+04  2.02902E+04 -1.03519E+04
  1.94330E+04 -1.76675E+03  1.38704E+04  3.46548E+03  8.23581E+03  7.17396E+02  1.04991E+04 -2.54520E+03
  2.10393E+04  2.37387E+03  2.08495E+04  1.69373E+04  1.52207E+04  3.40108E+04 -2.84001E+03  3.84129E+04
 -2.22415E+04  3.07264E+04 -3.55936E+04  1.67303E+04 -3.77143E+04 -3.06763E+03 -3.19189E+04 -2.20456E+04
 -1.38409E+04 -3.20517E+04  1.07312E+04 -2.87056E+04  2.55014E+04 -1.47512E+04  2.11322E+04  6.28662E+03
  8.57851E+03  1.65611E+04 -1.04228E+04  1.37501E+04 -1.78939E+04  2.92545E+03 -1.40240E+04 -1.18359E+04
 -1.83748E+03 -1.67530E+04  8.83554E+03 -1.23613E+04  1.18674E+04 -1.04118E+03  1.51728E+03  6.49396E+03
 -7.34155E+03  4.07016E+03 -6.23767E+03 -5.56318E+03 -6.15155E+02 -1.48203E+04  9.10895E+03 -1.65373E+04
  1.81386E+04 -8.00340E+03  1.99977E+04  2.64257E+03  1.88393E+04  1.61988E+04  8.06027E+03  2.28029E+04
 -3.62792E+03  2.53157E+04 -1.68095E+04  1.66951E+04 -1.80209E+04  3.75909E+03 -1.31802E+04 -5.22953E+03
 -5.65242E+03 -5.15757E+03 -1.89355E+03  1.88344E+03 -3.44520E+03  2.61792E+03 -5.93364E+03  5.02682E+03
 -1.14489E+04  3.26877E+02 -1.25864E+04 -1.01048E+04 -5.07759E+03 -1.72485E+04  5.14207E+03 -1.19898E+04
  1.02425E+04 -4.72008E+03  7.74532E+03  5.93406E+03  8.68573E+02  4.71729E+03 -8.04749E+03 -6.49216E+02
 -5.75158E+03 -7.67517E+03 -1.95212E+03 -1.31960E+04  7.32355E+03 -1.41564E+04  1.64026E+04 -7.11541E+03
  1.92583E+04  2.56558E+03  1.43064E+04  1.04695E+04  3.95433E+03  1.58575E+04 -8.63717E+03  1.20810E+04
 -9.71257E+03  4.23406E+03 -3.05782E+03 -3.41458E+03  3.09725E+03 -4.00032E+03  5.55112E+03  7.25168E+02
  7.14178E+03  5.93162E+03  2.37384E+03  9.86348E+03 -7.85644E+03  1.00439E+04 -1.18302E+04  2.63452E+03
 -1.04963E+04 -6.08665E+03 -5.37163E+02 -1.00037E+04  6.07482E+03 -5.07917E+03  8.34417E+03  3.97088E+03
  2.24690E+03  6.34084E+03 -5.43259E+03  8.37714E+03 -1.00989E+04  3.89873E+03 -1.01676E+04 -2.61582E+03
 -6.60722E+03 -1.04944E+04  2.11792E+03 -1.38253E+04  1.16471E+04 -7.81580E+03  1.30131E+04  2.12706E+03
  7.91225E+03  1.03189E+04 -4.70240E+02  1.19164E+04 -8.99306E+03  6.56649E+03 -8.49308E+03 -3.20628E+02
 -9.23116E+03 -8.61133E+03 -3.84266E+03 -8.87179E+03  4.19808E+03 -7.47554E+03  7.18240E+03 -3.79788E+03
  3.96733E+03  2.56530E+03 -6.13411E+02  1.77218E+03  2.34763E+02 -1.87073E+03  6.74358E+02 -4.69505E+03
  9.32521E+03 -2.20629E+03  1.01617E+04  7.73900E+02  1.08689E+04  7.09676E+03  8.27550E+03  1.53138E+04
 -2.68438E+03  1.78056E+04 -1.54135E+04  1.22116E+04 -1.99204E+04  2.35250E+03 -1.49672E+04 -5.57479E+03
 -8.06754E+03 -1.26265E+04 -1.66078E+03 -1.10089E+04  3.99185E+03 -5.31830E+03  2.95731E+03 -3.72631E+03
  2.41956E+03 -2.46936E+03  2.63969E+03 -3.21637E+03  4.76650E+03 -3.52010E+03  4.94426E+03 -9.13133E+02
  8.34111E+03  9.33708E+02  3.64332E+03  6.95953E+03 -1.98267E+03  7.91935E+03 -8.49437E+03  6.65739E+03
 -1.06105E+04 -2.38352E+02 -5.85297E+03 -7.75652E+03 -9.03774E+02 -1.18011E+04  5.61126E+03 -1.07527E+04
  1.14971E+04 -6.82707E+03  1.34363E+04  9.35801E+02  8.49895E+03  1.04266E+04  1.85112E+03  1.25134E+04
 -3.52223E+03  9.73048E+03 -7.16681E+03  3.18957E+03 -4.20141E+03 -1.40601E+03 -1.77197E+03 -1.69940E+03
 -1.58153E+03 -4.46816E+02 -2.27294E+03  2.08202E+03 -5.13335E+03  2.52094E+03 -7.06923E+03 -1.70259E+03
 -5.73426E+03 -7.70082E+03 -9.06864E+01 -1.01108E+04  7.43864E+03 -9.57217E+03  9.63668E+03 -1.77413E+03
  9.64067E+03  5.92212E+03  3.19810E+03  7.86254E+03 -2.49535E+03  1.11504E+04 -6.30578E+03  5.61963E+03
 -9.17180E+03  1.44812E+03 -8.34809E+03 -4.42216E+03 -7.12426E+02 -8.70340E+03  2.78856E+03 -4.95150E+03
  5.85110E+03 -2.57003E+03  4.96569E+03  1.49661E+03  1.38655E+03  2.88443E+03  2.04476E+03  1.27306E+03
  1.44151E+03  2.02866E+03  2.68248E+03  2.38618E+03  2.94167E+03  3.52995E+03  2.59308E+03  4.89972E+03
 -8.10428E+02  7.98638E+03 -6.82099E+03  7.79334E+03 -8.85627E+03  1.30821E+03 -1.05401E+04 -2.74762E+03
 -6.07238E+03 -9.06608E+03  1.21456E+03 -1.07203E+04  4.25529E+03 -7.31205E+03  7.70771E+03 -3.38881E+03
  5.71803E+03  4.10716E+03  8.49182E+02  6.14293E+03 -1.99689E+03  3.91207E+03 -4.08986E+03 -2.35796E+03
 -8.34692E+02 -3.65745E+03  1.47792E+03 -4.30638E+03  3.47974E+03 -1.89009E+03  4.03227E+03  1.05492E+03
  2.77372E+02  2.72189E+03  1.07322E+03  6.72357E+02  1.64334E+02  1.55993E+03  6.01501E+02  8.77909E+02
  7.19217E+02 -1.65558E+03  2.74585E+03  2.16987E+03  2.42086E+03  4.04476E+03 -8.65808E+02  6.69422E+03
 -3.79459E+03  4.39052E+03 -6.44170E+03  5.57004E+02 -6.01279E+03 -1.22262E+03 -4.34238E+02 -5.87034E+03
  4.98390E+02 -4.42998E+03  2.72972E+03 -9.30187E+02  2.24482E+03  1.34924E+03 -9.10579E+02  4.41994E+03
 -3.59903E+03  1.08503E+03 -5.37548E+03 -2.54651E+03 -2.99828E+03 -5.03624E+03  1.64209E+03 -4.82437E+03
  2.74218E+03 -1.63913E+03  3.03179E+03 -9.26719E+02  2.12864E+03  2.26972E+03  1.48239E+03  3.38103E+03
 -1.17026E+03  5.13657E+02 -2.11626E+03 -2.05785E+03  1.82130E+03 -3.78472E+03  4.54901E+03 -3.23322E+03
  4.92004E+03 -5.20446E+02  5.07553E+03  2.69641E+03  2.55390E+03  5.49891E+03 -3.11796E+03  6.38221E+03
 -4.47254E+03  2.28745E+03 -4.20911E+03 -6.69178E+02 -2.73357E+03 -2.42078E+03  7.45303E+02 -3.16501E+03
  3.27618E+03 -1.48349E+03  2.49579E+03  2.25784E+03  8.10664E+02  3.99702E+03 -1.02211E+03  3.33992E+03
 -1.08728E+03  2.45001E+03 -7.08064E+02  1.64089E+02 -1.81816E+03  1.30452E+03 -3.99017E+02 -1.09434E+02
 -1.85873E+03  2.25509E+03 -3.75550E+03  2.34202E+03 -4.98263E+03  1.12857E+03 -6.69136E+03 -3.01690E+03
 -2.69092E+03 -7.21752E+03  1.77019E+03 -8.29292E+03  4.81417E+03 -7.02023E+03  7.44750E+03 -1.56061E+03
  7.65685E+03  9.43630E+02  3.30750E+03  4.06524E+03  9.49481E+02  4.42265E+03 -1.73615E+03  3.82282E+03
 -3.05853E+03  1.65405E+03 -2.82298E+03 -4.82361E+02  4.13467E+02 -3.31905E+02  7.31159E+02  1.37635E+03
 -7.40224E+02 -8.25044E+01 -6.72742E+02  2.17327E+01  9.51431E+02 -2.03310E+03 -1.25191E+03 -1.56507E+03
  2.97844E+03 -1.54778E+03  2.99222E+03  8.46823E+01  2.62732E+03  3.02490E+03  8.55473E+02  4.99408E+03
 -1.25776E+03  7.51197E+03 -4.89651E+03  3.87801E+03 -5.03886E+03 -5.96704E+02 -4.69526E+03 -4.44498E+03
 -1.73607E+03 -4.51060E+03  1.43668E+03 -3.93778E+03  3.55734E+03 -3.17381E+03  2.50217E+03 -5.09232E+02
  7.59148E+02  2.06977E+03  1.09545E+02  3.24232E+03 -9.29434E+02 -1.20190E+03 -3.12740E+02 -1.89976E+02
  2.29486E+03  2.00755E+01  1.61434E+03  2.15222E+02  2.16868E+03  2.88176E+03  6.25985E+02  3.20211E+03
 -2.03266E+03  1.70839E+03 -2.75730E+03 -2.62346E+02 -2.44232E+03 -3.30630E+03 -1.48423E+03 -3.14647E+03
  3.36488E+03 -3.90027E+03  3.23641E+03 -1.22420E+03  4.86739E+03 -3.63838E+02  8.26016E+02  3.06322E+03
  1.87581E+03  1.66932E+03 -1.09264E+03  2.62662E+03 -1.73070E+03  2.52989E+03 -1.84821E+03  8.82144E+02
 -1.56248E+03  2.10805E+02 -1.08463E+03  1.35150E+02 -1.65187E+03  1.85764E+03 -2.55196E+03 -1.07235E+03
 -2.10004E+03 -1.44499E+03 -5.76068E+02 -2.62190E+03  1.21698E+03 -3.68233E+03  4.22314E+03 -3.35265E+02
  3.00289E+03 -7.25280E+02  4.97145E+02  2.13225E+03  1.82570E+02  2.42254E+03 -1.57686E+03  2.21392E+03
