 $NMID ID='MM_0lb_SNR200_19hz_g50_97.RAW', FMTDAT='(8E13.5)'
 TRAMP=1., VOLUME=1. $END
  3.08870E+05  1.05935E+03  3.36351E+05  2.49588E+05  8.34790E+04  3.37777E+05 -1.33751E+05  2.49545E+05
 -1.90011E+05  8.29201E+04 -1.10955E+05 -3.26260E+04  1.62010E+03 -4.95653E+04  5.30696E+04  1.30664E+02
  3.57696E+04  5.19890E+04 -1.61204E+04  7.51398E+04 -6.00374E+04  6.41523E+04 -8.33995E+04  3.06039E+04
 -7.98255E+04 -1.14422E+04 -5.59576E+04 -5.06450E+04 -1.51102E+04 -6.74124E+04  2.75897E+04 -4.49471E+04
  3.92176E+04  3.98922E+03  1.59602E+04  4.80919E+04 -3.52303E+04  4.59600E+04 -6.50117E+04 -5.45838E+02
 -5.20050E+04 -5.61400E+04 -5.37897E+03 -7.51778E+04  3.29307E+04 -5.15207E+04  4.71055E+04 -1.55602E+04
  4.24570E+04  1.04092E+04  3.00223E+04  2.52433E+04  1.64288E+04  2.85246E+04 -4.45675E+03  2.68021E+04
 -2.18358E+04  1.27568E+04 -1.86284E+04 -3.48732E+03  5.07098E+03 -7.94128E+03  2.10865E+04  1.05593E+04
  8.06217E+03  3.41391E+04 -3.06493E+04  3.42889E+04 -6.04310E+04  1.92771E+03 -5.62769E+04 -4.22187E+04
 -1.11323E+04 -6.09696E+04  3.85686E+04 -4.37959E+04  5.56335E+04 -1.30897E+03  3.22090E+04  2.96331E+04
 -6.35473E+03  3.33917E+04 -2.78639E+04  1.39060E+04 -2.69913E+04 -5.93229E+03 -1.47554E+04 -1.02542E+04
 -8.03039E+03 -1.12585E+04 -5.11515E+02 -1.70059E+04  6.66840E+03 -2.33830E+04  1.54582E+04 -1.45539E+04
  1.22522E+04  4.41807E+03 -6.22162E+03  1.28748E+04 -1.89710E+04 -3.02278E+03 -7.81655E+03 -3.04829E+04
  2.12919E+04 -4.07990E+04  4.57484E+04 -1.88198E+04  4.04203E+04  1.77985E+04  1.36827E+04  4.21937E+04
 -1.58162E+04  3.18805E+04 -2.32604E+04  1.42537E+03 -8.26577E+03 -2.69347E+04  2.12062E+04 -3.13719E+04
  3.86181E+04 -7.40930E+03  3.18891E+04  2.29195E+04  1.55013E+04  4.28761E+04 -8.46209E+03  4.53728E+04
 -2.81398E+04  3.05864E+04 -3.71736E+04  7.11944E+03 -3.85756E+04 -1.58698E+04 -2.02306E+04 -3.44848E+04
  6.15307E+03 -3.41897E+04  2.92583E+04 -1.28234E+04  2.70020E+04  1.12586E+04  2.48805E+03  1.77012E+04
 -1.39423E+04  6.87221E+03 -9.03383E+03 -8.71140E+03  6.13324E+03 -1.00611E+04  1.70071E+04  7.02714E+03
  1.23772E+04  2.10713E+04 -7.05909E+03  2.31199E+04 -2.16571E+04  8.25675E+03 -2.47681E+04 -7.02700E+03
 -1.74541E+04 -1.60483E+04 -6.00082E+03 -1.72313E+04  3.89621E+03 -1.40847E+04  1.34529E+04 -1.39179E+04
  2.13125E+04 -1.10444E+04  2.89179E+04  4.55664E+02  2.11892E+04  1.63738E+04  4.35975E+03  3.20064E+04
 -1.64802E+04  2.78500E+04 -2.53702E+04  9.41450E+03 -1.96810E+04 -1.09599E+04 -3.68800E+03 -1.40686E+04
  2.09358E+03 -3.87948E+03 -3.08112E+03  5.94336E+03 -1.29746E+04  5.52687E+03 -1.32802E+04 -4.97994E+03
 -9.32864E+03 -1.52148E+04  5.39293E+03 -1.98258E+04  1.25533E+04 -1.42560E+04  1.42434E+04 -1.84816E+03
  8.42650E+03  1.02237E+04 -3.32246E+02  1.51556E+04 -1.02414E+04  8.68248E+03 -1.57305E+04 -3.67986E+03
 -1.24486E+04 -1.33326E+04 -1.13080E+03 -2.01135E+04  9.02235E+03 -1.52711E+04  1.53609E+04 -7.35064E+03
  1.56410E+04  1.36007E+03  1.03760E+04  4.28316E+03  4.84981E+03  5.12635E+02  8.10285E+03 -1.10593E+03
  1.36671E+04  2.68165E+03  1.53173E+04  1.22504E+04  8.39357E+03  2.49155E+04 -3.56478E+03  2.59425E+04
 -1.56012E+04  1.93431E+04 -2.45921E+04  1.02991E+04 -2.50125E+04 -2.08511E+03 -2.10215E+04 -1.35134E+04
 -1.05789E+04 -1.90190E+04  7.00966E+03 -1.83738E+04  1.59623E+04 -1.08032E+04  1.59504E+04  3.92244E+03
  5.47224E+03  1.18080E+04 -6.78649E+03  1.03136E+04 -1.28329E+04  1.98277E+03 -1.09877E+04 -8.43106E+03
  4.41199E+00 -1.30326E+04  6.96295E+03 -9.09676E+03  7.08762E+03 -2.44075E+03  1.40259E+03  4.36198E+03
 -5.73245E+03  1.61679E+03 -4.03106E+03 -4.49442E+03  6.84074E+02 -1.05589E+04  7.41152E+03 -1.06498E+04
  1.12121E+04 -5.63511E+03  1.16434E+04  2.11202E+03  1.04202E+04  9.38009E+03  6.05147E+03  1.36303E+04
 -1.92277E+03  1.56051E+04 -9.88201E+03  9.52549E+03 -1.07171E+04  2.80511E+03 -8.93985E+03 -1.09731E+03
 -4.23853E+03 -2.52306E+03  1.50031E+03  2.03724E+03 -2.24133E+03  1.20667E+03 -3.66227E+03  2.52025E+03
 -6.94825E+03 -5.76642E+02 -9.27388E+03 -7.04073E+03 -3.34853E+03 -1.11983E+04  3.61003E+03 -8.36725E+03
  7.40194E+03 -3.00725E+03  5.19552E+03  1.12746E+03  1.15337E+03  2.60059E+03 -3.84520E+03 -1.72606E+02
 -4.15862E+03 -4.57145E+03 -1.30092E+03 -7.94065E+03  4.38744E+03 -7.95037E+03  9.18021E+03 -4.63292E+03
  1.12098E+04 -2.66295E+02  9.17682E+03  6.02587E+03  2.37668E+03  8.33432E+03 -4.48237E+03  7.68918E+03
 -5.87832E+03  3.73171E+03 -4.03964E+03 -1.07182E+03  2.76780E+02 -1.68393E+03  5.35869E+03  2.15199E+02
  3.85929E+03  3.09653E+03  1.20767E+03  6.25985E+03 -3.26100E+03  5.68627E+03 -7.58634E+03  2.04616E+03
 -4.90706E+03 -3.46329E+03  6.46275E+02 -6.62049E+03  3.93747E+03 -3.32159E+03  2.88869E+03  3.23496E+02
  1.59440E+02  4.22776E+03 -3.85796E+03  4.76536E+03 -4.01352E+03  1.64842E+03 -4.01583E+03 -7.37528E+02
 -2.57796E+03 -4.72612E+03  1.64682E+03 -6.46508E+03  5.69310E+03 -4.87330E+03  6.51781E+03  1.53731E+03
  4.40194E+03  4.89949E+03 -9.95734E+01  7.71546E+03 -5.28194E+03  3.45965E+03 -4.35013E+03 -7.54378E+02
 -5.13580E+03 -4.93029E+03 -1.66203E+03 -4.62082E+03  2.71971E+03 -3.56073E+03  3.45420E+03 -3.05027E+03
  3.24172E+03  9.19338E+02 -1.43035E+02  1.95533E+03  6.14510E+02 -7.83002E+00  3.71119E+02 -1.88644E+03
  4.39718E+03 -8.46952E+02  5.04386E+03  3.52910E+02  5.52240E+03  2.73722E+03  5.36891E+03  6.30902E+03
 -1.29065E+03  8.40822E+03 -7.64933E+03  6.43876E+03 -1.02484E+04  4.83013E+02 -6.84641E+03 -2.74306E+03
 -3.65197E+03 -5.81739E+03  4.21882E+02 -4.69822E+03  1.50143E+03 -2.84871E+03  2.07756E+03 -2.51810E+03
  1.55348E+03 -2.97872E+02  1.61554E+03 -3.25546E+03  3.60097E+03 -1.16661E+03  4.38459E+03  2.11616E+03
  2.97730E+03 -2.22864E+02  8.35138E+02  5.14405E+03 -7.87704E+02  3.70634E+03 -4.56190E+03  2.69761E+03
 -4.40455E+03 -1.77365E+03 -2.16882E+03 -3.15722E+03  6.42895E+02 -4.55168E+03  3.41445E+03 -4.21635E+03
  4.11447E+03 -3.59708E+03  6.92504E+03  6.95548E+02  4.55330E+03  4.96993E+03  6.31689E+02  6.06951E+03
 -1.62278E+03  4.70842E+03 -3.96667E+03  1.08996E+03 -1.58716E+03 -2.49322E+02  3.35846E+02 -7.85583E+02
 -1.45701E+03 -2.47502E+02 -8.16968E+02  1.98352E+03 -2.45672E+03  1.74354E+03 -4.11287E+03  1.00858E+02
 -4.75551E+02 -3.47319E+03  9.10958E+02 -3.80375E+03  2.98931E+03 -3.53369E+03  2.91924E+03 -1.44661E+03
  2.89148E+03  2.18575E+03  1.15773E+03  4.18984E+03 -2.78096E+02  4.18363E+03 -2.13484E+03  2.67209E+03
 -2.92886E+03  8.82364E+01 -3.51266E+03 -1.25704E+03 -2.95019E+02 -2.92982E+03  1.98174E+03 -2.00279E+03
  2.28260E+03 -3.49375E+02  1.29493E+03  5.52514E+02  4.34833E+02  1.25132E+03 -3.67664E+02  4.64179E+02
  2.03445E+03  3.29782E+02  2.03852E+02  2.10974E+03  9.88357E+02  2.49739E+03  1.86154E+03  2.43917E+03
 -1.05410E+03  3.39772E+03 -1.79216E+03  4.33955E+03 -2.91010E+03  2.21883E+02 -4.44365E+03 -1.26142E+03
 -2.05145E+03 -2.63385E+03 -2.42584E+02 -4.64668E+03  2.45832E+03 -2.54606E+03  2.45710E+03 -1.15854E+03
  2.52045E+03  1.28338E+03  1.42866E+02  1.91631E+03 -1.29286E+03  1.63644E+03 -9.88057E+02  1.29578E+03
 -5.14495E+02 -1.87116E+03  2.61651E+02 -2.73517E+01  1.95078E+03 -1.88036E+03  1.96392E+03  1.64773E+02
  8.83131E+02  4.85121E+02  1.10151E+03  2.48681E+02  5.20762E+02  1.28955E+03  2.01501E+03 -4.47998E+02
  3.22330E+02 -6.36175E+02  2.39014E+03  5.77981E+02  1.09329E+02  2.81548E+03 -1.02428E+03  2.34245E+03
 -1.72961E+03  8.73702E+02 -2.99870E+03  2.48716E+02 -1.74921E+03 -1.81098E+03 -3.07659E+02 -9.93935E+02
 -3.42301E+02 -6.21524E+02  2.58544E+02 -4.14987E+02  8.66895E+02  1.34616E+03 -6.30096E+02  6.04609E+02
 -1.09973E+03  1.17965E+03 -5.32547E+02 -1.23420E+03 -1.77879E+03 -1.28747E+03  4.73029E+02 -1.55454E+03
  7.16024E+02 -5.82919E+02  8.58202E+02 -2.98333E+01  2.17161E+03 -2.70975E+02 -7.13231E+01  1.93321E+03
 -6.79936E+02  2.07767E+02 -1.03848E+03 -1.68490E+02  9.60548E+02 -2.12185E+02  1.53328E+03 -1.54013E+03
  2.61699E+03  7.30011E+01  3.38455E+03 -1.18506E+02  1.02902E+03  1.39017E+03  8.22352E+02  2.50786E+03
 -1.14584E+03 -7.48799E+01 -1.19455E+03  1.98992E+02 -1.23223E+03 -1.62394E+03  8.45676E+01 -4.67825E+02
  9.11715E+02 -9.86844E+01  1.40343E+03  9.78749E+02  8.31254E+02  1.18636E+03  5.00321E+01  1.39031E+03
 -6.71784E+02  1.27212E+03 -8.47965E+02  5.92803E+01 -7.74288E+01  1.01906E+03  4.89759E+01  8.45838E+01
 -3.68697E+02  4.37001E+02 -1.97136E+03  6.00582E+02 -1.63418E+03  1.06590E+03 -3.73835E+03  5.45681E+02
 -6.45273E+02 -5.25823E+02 -1.54053E+02 -1.45432E+03  1.10485E+03 -2.63342E+03  3.21113E+03 -4.02721E+02
  1.86452E+03 -2.57417E+02  1.19276E+03  4.38923E+02 -1.02256E+02  2.06753E+03 -8.69812E+02  1.52106E+03
 -1.98918E+03  7.51674E+02  1.70843E+02 -2.09971E+02 -5.48235E+02  1.43912E+02  1.30128E+02  8.54322E+02
 -7.27935E+02 -1.76891E+02 -8.02635E+02  3.92958E+01  8.78904E+02  1.02956E+02 -1.13505E+03  1.39235E+02
  1.46076E+03 -3.65106E+02 -9.73690E+02 -6.38106E+02  1.95910E+03  3.78467E+02 -9.31131E+01  2.05992E+03
 -2.23693E+02  2.00358E+03 -1.06264E+03  1.88089E+03 -6.73122E+02 -1.60252E+02 -2.00444E+03 -1.53272E+03
 -9.80578E+02 -1.71335E+03 -4.16209E+02 -2.45009E+03 -1.17567E+03 -1.26689E+02 -1.97864E+02 -1.71753E+02
  1.11410E+03  1.13330E+03 -1.22298E+02  3.06294E+02  4.40822E+02 -1.05897E+03  1.11613E+02  6.07013E+02
 -2.76035E+01  7.07887E+02  2.79731E+02  5.63819E+01 -1.91675E+02 -9.44829E+01  4.35231E+02  9.84020E+02
 -7.54723E+02 -1.24646E+02  2.11258E+02  4.30195E+02 -2.03162E+01 -8.23097E+02 -5.21979E+02 -7.54001E+02
  9.37635E+02 -2.74410E+02 -3.57890E+02  4.75187E+02  7.72309E+02  8.19313E+02  9.61056E+02  1.42580E+03
  2.15085E+03  7.09397E+02  5.87060E+01  7.26773E+02 -2.22675E+02  8.05917E+02 -5.16640E+02 -5.06660E+02
 -9.49642E+02  4.51061E+02 -2.90133E+02 -8.57128E+02 -1.60370E+02  1.25464E+03 -3.48749E+02  5.27816E+02
 -1.80619E+03 -4.86322E+02 -9.44207E+02 -1.19003E+03  4.01042E+02 -2.40906E+03  2.96902E+02 -2.90936E+02
  4.16349E+01 -1.22816E+01 -3.01418E+02  3.33695E+02 -6.03955E+02  1.21332E+02 -1.14297E+03  8.74027E+02
