 $NMID ID='MM_0lb_SNR200_11hz_g50_63.RAW', FMTDAT='(8E13.5)'
 TRAMP=1., VOLUME=1. $END
  3.08853E+05  8.04161E+02  3.37049E+05  2.50028E+05  8.45105E+04  3.37146E+05 -1.32817E+05  2.52090E+05
 -1.90878E+05  8.29868E+04 -1.12179E+05 -3.15474E+04  1.49044E+03 -4.96309E+04  5.38715E+04  2.19068E+01
  3.64630E+04  5.27179E+04 -1.72085E+04  7.58242E+04 -6.26723E+04  6.54715E+04 -8.35202E+04  3.28288E+04
 -8.29272E+04 -1.20644E+04 -5.79223E+04 -5.19186E+04 -1.47953E+04 -7.04927E+04  2.91669E+04 -4.71968E+04
  4.12789E+04  5.14218E+03  1.73001E+04  4.85724E+04 -3.46631E+04  4.71906E+04 -6.93433E+04  2.83458E+02
 -5.30565E+04 -5.70628E+04 -6.90909E+03 -7.79292E+04  3.54188E+04 -5.64677E+04  4.97266E+04 -1.63853E+04
  4.67726E+04  1.29123E+04  3.23773E+04  2.71860E+04  1.53999E+04  2.95882E+04 -5.02063E+03  2.74838E+04
 -2.26585E+04  1.10320E+04 -1.74837E+04 -5.30983E+03  6.99330E+03 -7.69428E+03  2.30537E+04  1.34419E+04
  8.58675E+03  3.72263E+04 -3.37559E+04  3.64788E+04 -6.37364E+04  1.31821E+03 -5.78855E+04 -4.42030E+04
 -1.31752E+04 -6.62465E+04  4.09869E+04 -4.66164E+04  6.07039E+04 -1.66708E+03  3.66490E+04  3.35359E+04
 -4.64731E+03  3.84503E+04 -3.18887E+04  1.80742E+04 -3.19949E+04 -5.08473E+03 -1.66317E+04 -1.13300E+04
 -7.80090E+03 -1.31023E+04 -3.12952E+02 -1.90007E+04  7.28485E+03 -2.31587E+04  1.49725E+04 -1.25430E+04
  1.07340E+04  4.67370E+03 -9.42057E+03  1.46305E+04 -2.09982E+04 -6.29093E+03 -7.90327E+03 -3.49873E+04
  2.42173E+04 -4.63271E+04  5.14205E+04 -1.98819E+04  4.93837E+04  1.92616E+04  1.79879E+04  4.65029E+04
 -1.56149E+04  3.59084E+04 -2.94001E+04  2.59944E+03 -1.22005E+04 -2.83021E+04  2.28063E+04 -3.59342E+04
  4.22188E+04 -1.09521E+04  3.70800E+04  2.32668E+04  2.11181E+04  4.94606E+04 -9.66186E+03  5.39447E+04
 -3.36901E+04  3.57623E+04 -4.52173E+04  1.07548E+04 -4.64670E+04 -1.70143E+04 -2.53644E+04 -4.10234E+04
  8.06338E+03 -4.03844E+04  3.21327E+04 -1.68497E+04  3.18783E+04  1.13372E+04  5.63596E+03  2.00031E+04
 -1.41439E+04  8.90460E+03 -1.01874E+04 -7.22249E+03  5.15063E+03 -1.05637E+04  1.83203E+04  5.26582E+03
  1.52116E+04  2.32202E+04 -5.42490E+03  2.60398E+04 -2.19258E+04  1.43700E+04 -2.98083E+04 -1.83740E+03
 -2.24837E+04 -1.93887E+04 -1.23495E+04 -2.37270E+04  3.26433E+03 -2.23393E+04  1.93426E+04 -2.08777E+04
  2.93613E+04 -1.36525E+04  3.63736E+04  2.83545E+03  2.47594E+04  2.19910E+04  4.53926E+03  3.95596E+04
 -2.02066E+04  3.25136E+04 -2.92210E+04  1.15460E+04 -2.28895E+04 -1.04011E+04 -4.63862E+03 -1.27830E+04
  5.19620E+02 -5.88085E+02 -5.48675E+03  7.33603E+03 -1.90214E+04  3.52650E+03 -2.00452E+04 -9.36102E+03
 -1.11733E+04 -2.14378E+04  6.02246E+03 -2.46080E+04  1.70455E+04 -1.93534E+04  2.09541E+04 -6.51903E+02
  1.24331E+04  1.60535E+04 -1.71130E+03  2.30344E+04 -1.49147E+04  1.21994E+04 -2.24772E+04 -3.62580E+03
 -1.45773E+04 -2.00730E+04 -2.81368E+03 -2.71356E+04  1.14967E+04 -2.13955E+04  2.21804E+04 -1.08834E+04
  2.02455E+04  4.61507E+01  1.51369E+04  4.95055E+03  8.56523E+03  2.53984E+03  1.13768E+04 -2.25851E+03
  1.95384E+04  3.04023E+03  2.25433E+04  1.77329E+04  1.52960E+04  3.44550E+04 -2.06277E+03  4.10178E+04
 -2.28650E+04  3.34363E+04 -3.75846E+04  1.66480E+04 -4.04769E+04 -1.93465E+03 -3.24910E+04 -2.32636E+04
 -1.42469E+04 -3.27268E+04  9.63147E+03 -3.04234E+04  2.41682E+04 -1.47155E+04  2.11643E+04  7.05787E+03
  9.35975E+03  1.63367E+04 -1.04407E+04  1.46040E+04 -1.80955E+04  2.75663E+03 -1.32505E+04 -1.23071E+04
 -1.10004E+03 -1.88196E+04  8.55583E+03 -1.26045E+04  1.13964E+04 -1.21841E+03  1.65712E+03  7.76511E+03
 -7.22100E+03  4.62288E+03 -7.70479E+03 -6.90928E+03 -2.56559E+03 -1.69143E+04  1.07231E+04 -1.74777E+04
  1.99195E+04 -9.08028E+03  2.40862E+04  3.14044E+03  2.07173E+04  1.74723E+04  7.78937E+03  2.61129E+04
 -4.72257E+03  2.71522E+04 -1.79165E+04  1.63767E+04 -1.98438E+04  3.86281E+03 -1.26879E+04 -5.15835E+03
 -6.24658E+03 -5.99188E+03 -5.36212E+02 -3.95781E+02 -5.07610E+02  3.93357E+03 -7.05480E+03  4.23365E+03
 -1.20001E+04 -4.49685E+02 -1.27853E+04 -1.05819E+04 -6.05658E+03 -1.74329E+04  5.48124E+03 -1.56281E+04
  1.34137E+04 -5.93994E+03  7.81738E+03  3.09283E+03 -2.08894E+02  5.92057E+03 -6.40085E+03 -2.05745E+02
 -5.59044E+03 -9.68899E+03 -1.30526E+03 -1.37512E+04  8.25679E+03 -1.46882E+04  1.78592E+04 -7.41225E+03
  1.99825E+04  2.43509E+03  1.55216E+04  1.19941E+04  4.19099E+03  1.58695E+04 -8.19294E+03  1.33209E+04
 -1.09523E+04  4.92395E+03 -4.08822E+03 -1.91404E+03  2.98587E+03 -4.34348E+03  7.81869E+03  8.66562E+02
  5.17758E+03  6.86544E+03  1.18738E+03  1.06760E+04 -8.72927E+03  1.10266E+04 -1.38361E+04  2.36050E+03
 -8.40630E+03 -7.65337E+03  5.83600E+01 -1.20080E+04  8.03441E+03 -5.81168E+03  7.04211E+03  2.50972E+03
  2.84343E+02  9.65995E+03 -7.37458E+03  1.16611E+04 -1.12792E+04  4.48552E+03 -1.01714E+04 -4.27491E+03
 -6.61642E+03 -1.14082E+04  2.68652E+03 -1.60524E+04  1.14101E+04 -9.13632E+03  1.36532E+04  2.30447E+03
  7.66444E+03  1.28012E+04 -1.71063E+03  1.42322E+04 -1.01509E+04  8.75028E+03 -9.43801E+03 -7.00937E+02
 -1.01251E+04 -9.35653E+03 -3.32982E+02 -8.66545E+03  5.75748E+03 -7.43031E+03  6.07920E+03 -2.33778E+03
  3.59120E+03  2.36705E+03 -1.70086E+03  1.62587E+03 -1.99943E+02 -2.70273E+03  1.28201E+03 -4.49463E+03
  9.26982E+03 -4.05869E+03  1.31300E+04  1.65732E+03  1.25855E+04  9.30246E+03  9.72984E+03  1.72151E+04
 -4.17364E+03  2.01294E+04 -1.53410E+04  1.38267E+04 -2.24866E+04  2.86676E+03 -1.64728E+04 -7.04777E+03
 -8.48108E+03 -1.42495E+04 -8.94256E+02 -1.29234E+04  4.30669E+03 -5.59218E+03  4.00199E+03 -4.35722E+03
  2.65591E+03 -2.43912E+03  3.13625E+03 -3.73049E+03  4.48860E+03 -4.19519E+03  8.01961E+03  3.56853E+02
  8.99149E+03  2.51493E+03  4.55341E+03  7.50216E+03 -1.42974E+03  8.29677E+03 -9.76445E+03  6.19682E+03
 -1.07333E+04 -1.23085E+03 -6.93131E+03 -8.68115E+03 -1.18283E+03 -1.37361E+04  6.06310E+03 -1.29319E+04
  1.34607E+04 -7.70435E+03  1.54353E+04  2.01889E+03  1.15243E+04  1.10310E+04  1.97065E+03  1.45768E+04
 -6.09309E+03  1.20181E+04 -9.56970E+03  3.81008E+03 -6.08488E+03 -1.50598E+03 -2.87182E+03 -1.21413E+03
 -1.57313E+03 -1.09245E+03 -1.51779E+03  2.00501E+03 -6.29922E+03  1.79892E+03 -8.40971E+03  6.07756E+01
 -6.43234E+03 -6.65164E+03  4.20968E+02 -1.06512E+04  8.10240E+03 -9.20981E+03  1.07336E+04 -2.92152E+03
  1.26622E+04  5.48367E+03  5.81543E+03  9.18863E+03 -2.48189E+03  1.16083E+04 -9.03971E+03  6.96820E+03
 -1.24668E+04  1.80372E+03 -8.45259E+03 -7.45514E+03 -2.68471E+02 -1.04042E+04  5.72238E+03 -8.78027E+03
  7.32117E+03 -1.69223E+03  4.21579E+03  7.40630E+02  1.54017E+03  3.45774E+03  1.18324E+03  1.75907E+03
  2.00551E+03  2.25124E+03  3.99751E+03  1.47628E+03  4.06124E+03  3.45538E+03  2.80928E+03  6.97912E+03
 -2.19406E+03  9.10085E+03 -7.85110E+03  9.09244E+03 -1.15565E+04  2.05779E+03 -1.15898E+04 -4.56908E+03
 -5.85682E+03 -1.08815E+04  2.05522E+03 -1.26799E+04  7.38505E+03 -7.94692E+03  1.05428E+04 -3.28907E+03
  8.10118E+03  4.65275E+03  2.14537E+03  7.01137E+03 -3.67589E+03  3.99046E+03 -5.39597E+03  5.37200E+02
 -1.92305E+03 -4.58060E+03  2.92644E+03 -5.56593E+03  4.85556E+03 -3.27222E+03  4.57014E+03  8.20532E+02
  3.65208E+03  2.86151E+03  1.31923E+03  8.86233E+02 -1.70245E+03  1.81259E+03  1.72773E+03 -7.98564E+02
  1.64134E+03 -1.07976E+03  6.06527E+03  2.19662E+03  2.64755E+03  5.61413E+03 -1.46211E+03  9.00291E+03
 -6.13015E+03  5.32720E+03 -7.72554E+03  4.03761E+02 -7.43630E+03 -2.20942E+03 -2.03117E+03 -4.34896E+03
  2.14417E+03 -5.57896E+03  2.02132E+03 -1.82806E+03  2.01461E+03  1.93651E+03 -1.18145E+03  5.07351E+03
 -4.30717E+03  1.71016E+03 -4.28379E+03 -3.10639E+03 -2.86114E+03 -6.14137E+03  9.87045E+02 -5.46227E+03
  4.69311E+03 -3.49406E+03  5.52278E+03  5.55546E+01  2.67156E+03  1.99329E+03  1.71451E+02  1.62382E+03
 -1.58373E+03  1.04528E+03 -2.45331E+03 -1.32684E+03  1.82007E+03 -4.06356E+03  3.42466E+03 -2.98870E+03
  7.35662E+03  7.53585E+02  5.90258E+03  3.76190E+03  1.94079E+03  6.91109E+03 -3.75371E+03  6.59931E+03
 -6.40492E+03  1.85467E+03 -4.29988E+03 -2.55601E+03 -3.84772E+03 -4.36719E+03  1.31088E+03 -2.84852E+03
  5.44471E+03 -1.99240E+03  4.33382E+03  2.75473E+03 -4.93467E+02  4.49789E+03  6.05761E+01  3.04008E+03
 -1.04129E+03  2.35968E+03 -2.16468E+03  1.68528E+03 -9.57218E+02  1.16970E+03 -7.43239E+02  5.80648E+02
 -3.46756E+02  3.16805E+03 -6.01133E+03  2.04923E+03 -7.65729E+03  6.40906E+02 -7.37314E+03 -5.00782E+03
 -4.51544E+03 -9.16338E+03  2.41931E+03 -1.21493E+04  7.23709E+03 -8.57487E+03  1.01218E+04 -3.86017E+03
  8.91027E+03  1.43507E+03  5.50130E+03  7.19438E+03  5.79070E+02  7.99798E+03 -2.64201E+03  4.64369E+03
 -4.09843E+03  2.89586E+03 -1.99704E+03 -7.97926E+02 -2.15562E+03 -6.75976E+02 -1.68490E+03 -1.53991E+03
 -7.81186E+02  2.38075E+02 -1.88927E+03 -1.08238E+02  1.77437E+02 -1.28721E+03  3.27574E+02 -2.27765E+03
  4.09495E+03 -1.81198E+02  4.49850E+03  4.32255E+01  3.24496E+03  3.36894E+03 -3.95740E+02  6.64733E+03
 -2.53389E+03  8.87908E+03 -7.83223E+03  3.99795E+03 -9.50651E+03 -7.44395E+02 -6.44455E+03 -5.51780E+03
 -2.43704E+03 -8.13546E+03  2.05048E+03 -6.63124E+03  4.10303E+03 -5.77071E+03  5.56742E+03 -6.80172E+01
  2.90768E+03  1.99732E+03 -1.15387E+02  1.88603E+03 -1.33964E+03  9.99299E+01  7.54633E+02 -6.48461E+02
  2.25922E+03 -1.28761E+03  4.21173E+03  2.30421E+03  1.40107E+03  4.01324E+03 -9.15157E+02  2.63225E+03
 -3.51614E+03  3.83500E+03 -5.11123E+03  2.87113E+02 -4.38415E+03 -2.80454E+03  1.47783E+02 -6.85035E+03
  2.02272E+03 -4.32304E+03  6.50766E+03 -1.25777E+03  7.03974E+03  1.32619E+03  2.73266E+03  4.62963E+03
  1.66055E+03  4.72043E+03 -1.66497E+03  4.49502E+03 -3.45428E+03  3.46529E+03 -2.27909E+03  7.41807E+02
 -7.67252E+02 -1.30232E+03 -8.83355E+02  5.02079E+02 -2.25355E+03 -8.98398E+01 -2.89717E+03  7.73282E+02
 -2.06493E+03 -2.08418E+03 -2.73488E+03 -4.44205E+03  2.57326E+03 -5.17101E+03  2.62704E+03 -2.52596E+03
  3.52493E+03  8.24269E+02  2.35727E+03  3.39836E+03 -1.95628E+03  4.55920E+03 -1.76411E+03  1.76225E+03
