 $NMID ID='MM_0lb_SNR200_8hz_g60_20.RAW', FMTDAT='(8E13.5)'
 TRAMP=1., VOLUME=1. $END
  3.08329E+05 -8.06834E+02  3.35546E+05  2.50983E+05  8.51618E+04  3.39290E+05 -1.32660E+05  2.49372E+05
 -1.90689E+05  8.18585E+04 -1.13611E+05 -3.23962E+04  1.03236E+03 -5.16287E+04  5.24308E+04  1.12484E+03
  3.48608E+04  5.30634E+04 -1.61759E+04  7.66510E+04 -6.28717E+04  6.49035E+04 -8.66228E+04  3.20505E+04
 -8.36792E+04 -1.28289E+04 -5.84721E+04 -5.34910E+04 -1.73533E+04 -7.32458E+04  2.86131E+04 -4.77983E+04
  4.07151E+04  3.80430E+03  1.87385E+04  4.86713E+04 -3.65345E+04  5.02318E+04 -6.68771E+04 -1.16633E+03
 -5.59406E+04 -5.80394E+04 -8.50252E+03 -7.88118E+04  3.49560E+04 -5.79359E+04  5.11182E+04 -1.84444E+04
  4.59033E+04  1.10431E+04  3.36782E+04  2.65297E+04  1.47109E+04  3.21565E+04 -6.38168E+03  2.73455E+04
 -2.35088E+04  1.27821E+04 -1.78192E+04 -6.58951E+03  7.05844E+03 -9.19503E+03  2.33381E+04  1.52030E+04
  6.83923E+03  3.96636E+04 -3.48441E+04  3.92016E+04 -6.66691E+04  3.31769E+02 -5.98675E+04 -4.71947E+04
 -1.15096E+04 -6.53206E+04  4.18325E+04 -4.90581E+04  6.23955E+04 -3.06608E+03  3.73288E+04  3.58329E+04
 -4.15004E+03  4.18482E+04 -3.19694E+04  1.92467E+04 -3.30055E+04 -4.54398E+03 -1.99947E+04 -1.28511E+04
 -1.13586E+04 -1.53599E+04 -1.65197E+03 -1.99542E+04  7.84154E+03 -2.36131E+04  1.60236E+04 -1.13182E+04
  1.02450E+04  7.37986E+03 -1.22941E+04  1.20398E+04 -2.46273E+04 -6.89412E+03 -1.00339E+04 -3.91500E+04
  2.64134E+04 -4.79397E+04  5.47689E+04 -2.11864E+04  4.95844E+04  2.04251E+04  1.68940E+04  4.88035E+04
 -1.52552E+04  3.68198E+04 -2.70836E+04  3.26448E+03 -1.18815E+04 -3.04983E+04  2.04592E+04 -3.89558E+04
  4.58790E+04 -1.10387E+04  4.05491E+04  2.74571E+04  2.18441E+04  5.38719E+04 -8.31649E+03  5.98890E+04
 -3.82768E+04  4.27080E+04 -4.98141E+04  1.06179E+04 -4.83084E+04 -1.84022E+04 -2.77353E+04 -4.35240E+04
  7.65209E+03 -4.49363E+04  3.55533E+04 -1.79871E+04  3.40174E+04  1.08495E+04  4.09934E+03  2.16760E+04
 -1.27727E+04  9.05575E+03 -1.16796E+04 -6.84263E+03  4.02355E+03 -1.02710E+04  1.99267E+04  6.32591E+03
  1.42334E+04  2.18437E+04 -4.58581E+03  2.83180E+04 -2.42654E+04  1.36754E+04 -3.30371E+04 -1.21105E+03
 -2.80779E+04 -1.66941E+04 -1.45816E+04 -2.52962E+04  2.70343E+03 -2.90692E+04  2.06872E+04 -2.60793E+04
  3.29045E+04 -1.52762E+04  4.02385E+04  5.80787E+03  2.85985E+04  2.72996E+04  4.52800E+03  4.26792E+04
 -2.10323E+04  3.46397E+04 -3.15742E+04  1.15411E+04 -2.31692E+04 -9.51069E+03 -5.12562E+03 -9.63679E+03
  6.46137E+02  1.23874E+03 -9.02223E+03  8.71428E+03 -2.09840E+04  4.03961E+03 -2.27135E+04 -1.17975E+04
 -1.19554E+04 -2.46915E+04  8.37701E+03 -2.94917E+04  1.81184E+04 -2.18394E+04  2.58848E+04 -6.77208E+02
  1.44776E+04  1.52758E+04 -7.77022E+02  2.61750E+04 -1.88119E+04  1.56952E+04 -2.59291E+04 -4.01340E+03
 -1.92084E+04 -2.30313E+04 -4.38217E+03 -2.98981E+04  1.28713E+04 -2.65968E+04  2.54746E+04 -1.29410E+04
  2.27592E+04 -8.79160E+02  1.74518E+04  5.49263E+03  1.01325E+04  1.06425E+03  1.27407E+04 -1.89707E+03
  2.33132E+04  2.03876E+03  2.67472E+04  1.96011E+04  2.01854E+04  3.98758E+04 -2.70142E+03  4.72525E+04
 -2.76639E+04  4.13827E+04 -4.41133E+04  2.10755E+04 -4.88716E+04 -6.07133E+03 -3.99672E+04 -2.94167E+04
 -1.56855E+04 -4.09712E+04  1.55914E+04 -3.47414E+04  3.09829E+04 -1.86817E+04  2.44985E+04  9.25053E+03
  1.02628E+04  1.94126E+04 -1.11795E+04  1.62648E+04 -2.18265E+04  2.33980E+03 -1.65197E+04 -1.39402E+04
 -1.12094E+01 -2.12431E+04  1.28702E+04 -1.54605E+04  1.32892E+04 -1.62535E+03  3.81044E+03  1.06585E+04
 -1.13479E+04  2.89448E+03 -1.00496E+04 -7.46721E+03 -3.77852E+03 -2.04805E+04  1.37811E+04 -2.06832E+04
  2.59312E+04 -1.24659E+04  3.07129E+04  2.51774E+03  2.55036E+04  2.03300E+04  1.31865E+04  3.17030E+04
 -7.37258E+03  3.47910E+04 -2.31384E+04  2.31556E+04 -2.52990E+04  5.20706E+03 -1.62593E+04 -6.23612E+03
 -6.90184E+03 -7.87241E+03 -1.53910E+03 -3.39739E+02 -2.65608E+03  5.25954E+03 -8.65877E+03  7.92759E+03
 -1.58491E+04  1.98340E+02 -1.50453E+04 -1.19672E+04 -5.92870E+03 -2.27934E+04  7.35968E+03 -1.72810E+04
  1.44182E+04 -8.04795E+03  1.20436E+04  6.60725E+03 -2.26507E+03  5.56295E+03 -9.27823E+03 -1.65496E+03
 -8.39546E+03 -1.04925E+04 -2.41953E+03 -1.81029E+04  1.17020E+04 -1.74890E+04  2.36778E+04 -1.04903E+04
  2.77966E+04  2.55950E+03  2.02709E+04  1.55305E+04  1.80992E+03  2.17391E+04 -1.19122E+04  1.65380E+04
 -1.32051E+04  4.48880E+03 -6.13441E+03 -4.52019E+03  3.09616E+03 -3.68254E+03  7.26944E+03 -7.36615E+02
  8.49463E+03  8.33788E+03  9.68901E+02  1.51706E+04 -1.27819E+04  1.33244E+04 -1.77903E+04  2.48547E+03
 -1.08445E+04 -1.02453E+04  6.86109E+02 -1.51006E+04  1.12665E+04 -7.94640E+03  1.08341E+04  4.28258E+03
  2.39924E+03  1.25533E+04 -8.79093E+03  1.29744E+04 -1.57404E+04  5.96590E+03 -1.59287E+04 -5.50806E+03
 -9.49283E+03 -1.91431E+04  3.38597E+03 -2.22996E+04  1.70844E+04 -1.03195E+04  2.05987E+04  3.34767E+03
  1.18551E+04  1.46364E+04 -2.68201E+03  1.81381E+04 -1.23443E+04  1.02817E+04 -1.53055E+04 -2.52610E+03
 -1.13083E+04 -1.12982E+04 -1.70672E+03 -1.54498E+04  6.11192E+03 -1.05785E+04  1.05687E+04 -1.34331E+03
  6.39680E+03  3.77157E+03 -4.57131E+02  2.59201E+03 -1.17987E+03 -3.77184E+03  4.42557E+03 -1.07705E+04
  1.32183E+04 -5.90082E+03  1.91210E+04  3.32864E+03  1.83304E+04  1.22660E+04  1.13558E+04  2.46184E+04
 -6.86629E+03  2.83912E+04 -2.43018E+04  1.96369E+04 -2.98855E+04  4.00970E+03 -2.49756E+04 -1.20481E+04
 -1.11040E+04 -2.01391E+04 -1.38710E+03 -1.70768E+04  6.69406E+03 -9.58027E+03  5.86137E+03 -6.73948E+03
  4.92757E+03 -3.79844E+03  5.63421E+03 -4.30700E+03  6.63736E+03 -3.78802E+03  8.15375E+03 -1.83742E+03
  1.22255E+04  3.51110E+03  6.00726E+03  1.12706E+04 -3.08314E+03  1.40265E+04 -1.37599E+04  1.05696E+04
 -1.77893E+04 -1.68841E+03 -1.14415E+04 -1.09196E+04 -1.83093E+03 -1.92141E+04  9.72857E+03 -1.90525E+04
  1.77720E+04 -9.47769E+03  2.36952E+04  2.55973E+03  1.46895E+04  1.57269E+04  4.34562E+03  2.05153E+04
 -8.02000E+03  1.73695E+04 -1.30778E+04  6.37128E+03 -1.02008E+04 -2.80797E+03 -4.72963E+03 -3.72399E+03
  1.41773E+01 -1.64253E+03 -1.65760E+03  3.74789E+03 -6.66580E+03  4.23484E+03 -1.20771E+04 -2.95168E+03
 -9.01079E+03 -1.18209E+04 -4.06208E+02 -1.85411E+04  9.43313E+03 -1.57947E+04  1.92978E+04 -4.93931E+03
  1.67430E+04  9.30372E+03  9.07498E+03  1.53331E+04 -4.21152E+03  1.82302E+04 -1.23523E+04  1.30324E+04
 -1.77168E+04 -2.59794E+02 -1.34535E+04 -9.18544E+03 -2.25337E+03 -1.48296E+04  9.39909E+03 -1.42283E+04
  1.28265E+04 -1.87131E+03  7.69063E+03  3.81454E+03  2.55432E+03  4.82413E+03  3.74506E+03  3.93648E+03
  2.77595E+03  1.72153E+03  2.75796E+03  2.94066E+03  3.38283E+03  5.37385E+03  4.42090E+03  8.07931E+03
 -1.80579E+03  1.36342E+04 -1.50614E+04  1.49925E+04 -1.98072E+04  4.11751E+03 -1.89481E+04 -7.63977E+03
 -9.70402E+03 -1.95197E+04  2.24294E+02 -2.16949E+04  1.18428E+04 -1.35470E+04  1.56120E+04 -3.33051E+03
  1.30730E+04  6.73054E+03  1.80709E+03  1.01920E+04 -5.99527E+03  6.96001E+03 -7.01452E+03 -8.06046E+02
 -3.80283E+03 -8.07660E+03  4.28235E+03 -9.22141E+03  7.08823E+03 -2.11019E+03  7.35675E+03  7.89910E+02
  4.38467E+03  4.63128E+03  8.05597E+02  1.84213E+03 -2.49212E+02  1.90371E+03  1.85764E+03 -1.88263E+03
  3.28120E+03 -6.16127E+02  8.00718E+03  1.88763E+03  5.66377E+03  1.05254E+04 -2.58469E+03  1.23289E+04
 -7.81455E+03  7.80589E+03 -1.16844E+04  2.40254E+03 -1.12143E+04 -2.96041E+03 -5.29219E+03 -6.60024E+03
  5.35168E+01 -8.69368E+03  4.98373E+03 -3.24787E+03  2.72197E+03  4.64204E+03 -5.68918E+02  7.10874E+03
 -8.58452E+03  4.73762E+03 -7.99924E+03 -4.16485E+03 -7.66099E+03 -1.00614E+04  2.32310E+03 -1.22287E+04
  5.89678E+03 -6.82370E+03  6.43602E+03 -5.15053E+02  6.25760E+03  3.67542E+03  6.91733E+02  6.47479E+03
 -3.64756E+03  5.71408E+02 -4.19422E+03 -3.79940E+03  2.16047E+03 -1.03678E+04  9.30877E+03 -5.72291E+03
  1.22352E+04 -5.79455E+02  1.10971E+04  6.83297E+03  5.27397E+03  1.11725E+04 -4.68848E+03  1.25076E+04
 -1.02670E+04  7.71932E+03 -9.99440E+03 -1.51474E+03 -5.28362E+03 -8.00853E+03  2.55671E+03 -7.78372E+03
  9.39970E+03 -4.30330E+03  6.28270E+03  2.75449E+03  1.57621E+03  6.30900E+03 -1.44760E+03  5.16793E+03
 -4.51645E+03  4.21371E+03 -3.05871E+03  1.31849E+03 -1.36464E+03  1.14435E+03 -2.36882E+03  3.94065E+03
 -2.43435E+03  5.17780E+03 -7.23180E+03  5.08682E+03 -1.08611E+04 -1.80139E+03 -1.35938E+04 -8.77069E+03
 -7.72838E+03 -1.77477E+04  3.49077E+03 -1.72957E+04  1.34706E+04 -1.54248E+04  1.88564E+04 -7.08979E+03
  1.84123E+04  4.23084E+03  1.17931E+04  1.20684E+04  1.65658E+03  1.26880E+04 -3.60824E+03  1.09981E+04
 -6.60307E+03  3.19640E+03 -4.87897E+03 -1.81651E+03 -1.08621E+03  3.09459E+02 -1.84582E+03 -1.57291E+03
 -1.30477E+03  1.29063E+03 -1.59316E+03  4.31096E+02 -2.90440E+03 -4.25124E+03  6.54781E+02 -4.44525E+03
  6.23870E+03 -4.14451E+03  8.59243E+03  5.07897E+01  8.35586E+03  8.39518E+03  3.23017E+03  1.29353E+04
 -7.87266E+03  1.35325E+04 -1.38124E+04  9.67143E+03 -1.71149E+04 -5.89989E+02 -1.23001E+04 -8.69079E+03
 -5.48773E+03 -1.39271E+04  1.05415E+03 -1.30656E+04  1.07812E+04 -8.10787E+03  8.01095E+03  1.10861E+03
  3.06736E+03  5.57284E+03 -1.88253E+03  3.33181E+03 -7.13315E+02 -2.81085E+03  7.39013E+02 -4.15985E+03
  4.35135E+03 -4.25544E+03  5.20099E+03  1.38680E+03  3.92988E+03  4.14447E+03  2.65726E+02  9.31529E+03
 -6.21970E+03  5.69968E+03 -1.01198E+04  2.87356E+03 -8.11954E+03 -6.91136E+03 -2.92562E+03 -1.19378E+04
  6.68995E+03 -9.88424E+03  9.47499E+03 -2.33119E+03  8.73002E+03  3.18937E+03  9.12642E+03  9.81896E+03
  9.78196E+02  8.75583E+03 -1.36863E+03  7.77997E+03 -6.17289E+03  4.21463E+03 -5.31200E+03  1.04653E+03
 -3.25381E+03 -2.19466E+03 -2.97033E+03  1.81252E+03 -7.12570E+03  1.91096E+03 -8.60720E+03 -2.37582E+03
 -6.03078E+03 -5.57039E+03 -1.24261E+03 -1.17280E+04  2.72775E+03 -1.12325E+04  6.50641E+03 -3.93641E+03
  9.52102E+03 -7.25978E+02  5.46211E+03  7.13838E+03 -1.30397E+03  9.85265E+03 -7.66225E+03  6.49775E+03
