 $NMID ID='MM_0lb_SNR200_17hz_g60_89.RAW', FMTDAT='(8E13.5)'
 TRAMP=1., VOLUME=1. $END
  3.09319E+05 -1.25714E+03  3.37107E+05  2.51423E+05  8.37228E+04  3.36474E+05 -1.32288E+05  2.51540E+05
 -1.90816E+05  8.36203E+04 -1.12593E+05 -3.17362E+04  4.68096E+02 -5.15094E+04  5.39554E+04 -9.84278E+02
  3.53650E+04  5.35138E+04 -1.73200E+04  7.49275E+04 -6.10604E+04  6.31745E+04 -8.41840E+04  3.20457E+04
 -8.18526E+04 -1.24470E+04 -5.66550E+04 -5.20078E+04 -1.50202E+04 -7.08010E+04  2.80645E+04 -4.53602E+04
  3.89136E+04  3.94106E+03  1.53662E+04  4.79520E+04 -3.33365E+04  4.72018E+04 -6.69545E+04 -3.32649E+02
 -5.37290E+04 -5.59743E+04 -6.11531E+03 -7.79187E+04  3.32749E+04 -5.41367E+04  4.85002E+04 -1.73112E+04
  4.45101E+04  1.15631E+04  3.19961E+04  2.48830E+04  1.55272E+04  2.85685E+04 -5.06685E+03  2.72650E+04
 -2.24045E+04  1.07881E+04 -1.77423E+04 -4.41333E+03  5.89063E+03 -7.33667E+03  2.14108E+04  1.10018E+04
  7.78001E+03  3.53511E+04 -3.20837E+04  3.47959E+04 -6.34163E+04  1.39625E+03 -5.71706E+04 -4.19247E+04
 -1.17855E+04 -6.18010E+04  3.96436E+04 -4.66821E+04  5.68605E+04 -2.65172E+03  3.38202E+04  3.20690E+04
 -6.61850E+03  3.59482E+04 -3.00196E+04  1.55271E+04 -3.09382E+04 -5.28149E+03 -1.61868E+04 -1.07055E+04
 -8.13708E+03 -1.37261E+04 -3.04323E+02 -1.82505E+04  7.16014E+03 -2.23400E+04  1.50426E+04 -1.19403E+04
  1.08246E+04  5.07373E+03 -7.20582E+03  1.31965E+04 -2.14509E+04 -3.74297E+03 -8.53342E+03 -3.35986E+04
  2.26539E+04 -4.21113E+04  4.79366E+04 -1.83813E+04  4.42779E+04  1.99472E+04  1.46892E+04  4.23818E+04
 -1.61961E+04  3.27251E+04 -2.48563E+04  1.29695E+03 -9.31238E+03 -2.78739E+04  2.11732E+04 -3.40628E+04
  4.08317E+04 -9.01674E+03  3.41992E+04  2.33108E+04  1.68719E+04  4.61434E+04 -7.47726E+03  4.91133E+04
 -3.05092E+04  3.27699E+04 -4.09965E+04  8.69890E+03 -4.18370E+04 -1.66777E+04 -2.31893E+04 -3.63696E+04
  7.29580E+03 -3.63048E+04  3.07022E+04 -1.45376E+04  2.90900E+04  1.02840E+04  3.33721E+03  1.96024E+04
 -1.41586E+04  8.19668E+03 -9.67095E+03 -7.84748E+03  6.10560E+03 -1.06759E+04  1.83540E+04  5.44889E+03
  1.24673E+04  2.20732E+04 -4.95406E+03  2.58673E+04 -2.16939E+04  1.08154E+04 -2.74384E+04 -4.46744E+03
 -1.87970E+04 -1.77088E+04 -8.86508E+03 -1.92448E+04  3.49645E+03 -1.87097E+04  1.47060E+04 -1.85993E+04
  2.60407E+04 -1.25394E+04  3.08402E+04  1.95226E+03  2.27871E+04  1.95459E+04  4.01639E+03  3.47346E+04
 -1.72065E+04  3.00093E+04 -2.64918E+04  9.65593E+03 -2.12567E+04 -1.06154E+04 -4.12808E+03 -1.44454E+04
  7.13523E+02 -3.06880E+03 -5.21526E+03  6.79264E+03 -1.54167E+04  6.31619E+03 -1.60654E+04 -7.09132E+03
 -9.74807E+03 -1.77097E+04  4.76595E+03 -2.10106E+04  1.49434E+04 -1.57726E+04  1.68322E+04 -1.44401E+03
  1.01696E+04  1.27845E+04  1.17316E+02  1.79442E+04 -1.14644E+04  9.40183E+03 -1.94767E+04 -3.95315E+03
 -1.38278E+04 -1.64748E+04 -1.45140E+03 -2.20793E+04  1.01422E+04 -1.67567E+04  1.85313E+04 -7.92591E+03
  1.68182E+04  3.68927E+02  1.23088E+04  3.87251E+03  7.24782E+03  4.63467E+02  7.73512E+03 -1.09175E+03
  1.62560E+04  1.56410E+03  1.79400E+04  1.42658E+04  1.03368E+04  2.89564E+04 -1.82597E+03  3.18630E+04
 -1.97327E+04  2.47724E+04 -2.94029E+04  1.33066E+04 -3.12713E+04 -2.15992E+03 -2.53258E+04 -1.90075E+04
 -1.20471E+04 -2.41543E+04  7.89013E+03 -2.36676E+04  1.99599E+04 -1.23018E+04  1.77102E+04  4.31404E+03
  7.34205E+03  1.36437E+04 -7.76537E+03  1.19841E+04 -1.43353E+04  2.47017E+03 -1.11759E+04 -8.93537E+03
 -3.65699E+02 -1.46412E+04  8.10203E+03 -1.15160E+04  9.13042E+03 -5.69524E+02  1.96840E+03  6.16572E+03
 -6.88939E+03  1.57420E+03 -3.39738E+03 -5.96265E+03 -1.09337E+03 -1.29494E+04  8.38083E+03 -1.28235E+04
  1.57555E+04 -6.02479E+03  1.51133E+04  2.56276E+03  1.29185E+04  1.13504E+04  6.10773E+03  1.93526E+04
 -2.25840E+03  1.91697E+04 -1.24803E+04  1.25701E+04 -1.50398E+04  4.45549E+03 -1.06021E+04 -2.30342E+03
 -5.02829E+03 -5.11227E+03 -5.84925E+02  1.65785E+03 -2.60265E+03  1.71608E+03 -3.49319E+03  2.87904E+03
 -9.40725E+03 -1.48267E+03 -1.00536E+04 -7.58543E+03 -3.36441E+03 -1.31022E+04  3.96785E+03 -1.00788E+04
  7.70357E+03 -2.87989E+03  5.06279E+03  2.28113E+03  2.12921E+03  4.00570E+03 -4.97993E+03 -1.89810E+02
 -4.38178E+03 -6.07501E+03 -9.79125E+02 -8.75560E+03  5.10160E+03 -9.96647E+03  1.26191E+04 -3.99066E+03
  1.42844E+04  1.57951E+03  1.02233E+04  7.37437E+03  2.49560E+03  1.14219E+04 -6.47018E+03  1.01888E+04
 -8.16263E+03  3.27178E+03 -3.94325E+03 -2.19752E+03  1.94932E+03 -3.13301E+03  5.28784E+03 -1.07845E+03
  5.28965E+03  3.53253E+03  5.01576E+02  6.96390E+03 -5.33992E+03  8.28443E+03 -8.65026E+03  1.38608E+03
 -5.78565E+03 -3.98667E+03  1.01022E+03 -9.04694E+03  5.22875E+03 -4.47888E+03  4.87203E+03  9.08353E+02
  1.04181E+03  4.07927E+03 -4.81007E+03  5.53755E+03 -6.53588E+03  3.75737E+03 -6.70735E+03 -1.72957E+03
 -3.56646E+03 -7.09177E+03  1.22387E+03 -8.84891E+03  7.01834E+03 -6.39890E+03  8.77056E+03  1.14912E+03
  6.27579E+03  5.15458E+03  7.27690E+02  8.33197E+03 -6.43577E+03  4.32145E+03 -6.60923E+03 -5.89609E+02
 -6.26982E+03 -5.61279E+03 -2.19279E+03 -6.63614E+03  3.32023E+03 -5.87461E+03  2.69644E+03 -2.99209E+03
  3.76302E+03 -3.17135E+01  4.93397E+02  3.79816E+02  6.47789E+01 -2.26985E+03  1.71056E+02 -2.71245E+03
  4.89813E+03 -1.54230E+03  8.69710E+03  5.75243E+02  6.96250E+03  2.98597E+03  6.01977E+03  8.37880E+03
 -2.44096E+03  1.18355E+04 -1.00027E+04  7.69713E+03 -1.36643E+04  1.27744E+03 -1.01533E+04 -3.82354E+03
 -5.91470E+03 -8.41647E+03 -9.03115E+02 -5.38616E+03  3.41984E+03 -4.06698E+03  1.86483E+03 -2.04982E+03
  1.65587E+03 -9.84236E+02  2.23469E+03 -2.42639E+03  4.02642E+03 -1.36893E+03  5.68574E+03  3.65648E+02
  5.32280E+03  7.92834E+02  6.33027E+02  3.94925E+03 -1.29110E+03  3.63181E+03 -4.58618E+03  2.91106E+03
 -6.22933E+03 -1.79350E+02 -2.90114E+03 -5.11558E+03 -1.32171E+03 -7.32863E+03  4.08863E+03 -6.64274E+03
  6.83116E+03 -4.04469E+03  8.14672E+03  1.53456E+03  5.64432E+03  5.11120E+03  2.00294E+03  7.29633E+03
 -2.47277E+03  7.13193E+03 -4.35043E+03  2.56471E+03 -3.59056E+03 -1.12267E+03 -1.79191E+03 -3.92425E+02
 -5.40708E+02  2.56838E+02 -1.31139E+03  2.68966E+03 -4.24799E+03  1.78680E+03 -5.34149E+03  1.39342E+03
 -3.30094E+03 -5.55027E+03  1.56754E+03 -5.46858E+03  4.17423E+03 -5.83229E+03  4.31817E+03 -1.20043E+03
  5.75055E+03  2.42764E+03  2.76621E+03  3.46982E+03 -1.55219E+03  6.13356E+03 -3.60333E+03  3.13011E+03
 -5.25319E+03  1.14597E+03 -4.07585E+03 -2.22748E+03 -9.63923E+02 -4.19950E+03  2.03611E+03 -3.60194E+03
  4.38957E+03 -1.11826E+03  2.52036E+03  2.81155E+02  1.16249E+03  2.29986E+03  1.61718E+03  2.07245E+02
  1.46963E+03  4.24752E+02  1.14300E+03  5.16611E+02  1.79488E+03  2.41686E+03  5.63680E+02  3.06386E+03
 -3.38309E+02  4.78361E+03 -3.47924E+03  4.33787E+03 -5.00937E+03  1.65939E+03 -6.61446E+03 -1.94414E+03
 -2.41003E+03 -5.95962E+03  1.03374E+03 -6.57652E+03  1.95357E+03 -1.01930E+03  5.34004E+03 -1.37419E+03
  2.77707E+03  2.52908E+03  3.99901E+02  1.75042E+03 -8.31743E+02  2.38408E+03 -6.56176E+02 -1.45679E+02
 -3.72826E+02 -2.31060E+03  1.73695E+03 -2.22997E+03  2.96060E+03 -6.91440E+02  1.48831E+03  1.36138E+03
  1.74457E+03 -1.26022E+02  3.36285E+02 -5.06808E+02  2.93462E+02 -2.76929E+02  2.00936E+03 -4.12411E+02
 -4.86071E+02 -1.29536E+03  2.88079E+03  2.56610E+02  1.47671E+03  3.52471E+03 -9.69816E+02  4.31704E+03
 -1.42904E+03  1.82030E+03 -2.53601E+03  7.55935E+02 -2.50518E+03 -1.59942E+03 -1.54203E+03 -1.86839E+03
  1.09273E+03 -1.85765E+03  1.18479E+03 -1.15800E+03  1.82631E+03 -1.39138E+02 -1.12667E+03  1.91595E+03
 -2.99996E+03  5.79307E+02 -8.66284E+02 -1.43648E+03 -1.60310E+03 -2.28215E+03  1.00389E+03 -1.85157E+03
  8.57968E+02 -1.10402E+03  1.02366E+03  6.44609E+02  1.86623E+03  5.50497E+02 -9.33060E+02  1.71300E+03
 -8.55480E+02 -6.70620E+02 -1.58246E+03 -3.33799E+02  6.07239E+02 -1.66040E+03  2.19650E+03 -1.28432E+03
  1.44017E+03 -1.86464E+02  3.46024E+03  1.67636E+03  1.11332E+03  1.84303E+03 -1.31110E+03  2.49552E+03
 -1.16569E+03  4.29964E+02 -1.50141E+03 -8.56788E+01 -2.36252E+03 -4.17899E+03  1.62733E+03 -1.27718E+03
  1.07276E+03 -8.56981E+02  1.45823E+03  7.55661E+02  2.13041E+02  1.49350E+03 -7.38628E+02  1.81589E+03
 -4.35573E+02  1.11744E+03  5.62660E+01  3.99604E+02 -3.05623E+02  3.25115E+02 -3.81075E+02  6.26015E+02
 -1.18137E+03  9.03489E+02 -2.34796E+03  6.39371E+02 -1.61428E+03  3.65510E+02 -3.31332E+03 -1.49294E+03
 -1.51915E+03 -3.56912E+03  1.83331E+03 -3.18269E+03  1.17475E+03 -3.55901E+03  2.87324E+03 -1.40722E+03
  2.38619E+03 -5.03035E+02  1.76806E+03  1.42267E+03 -1.77464E+02  2.58102E+03 -7.83364E+02  1.39180E+03
 -1.42116E+03  1.00765E+03 -4.17468E+02 -8.14451E+01 -2.99951E+02  6.63112E+02 -1.07054E+03 -1.28305E+03
 -2.09478E+03  2.15733E+02 -1.32944E+03  6.76071E+02  9.01600E+02 -6.08172E+02  4.39033E+02 -1.27258E+03
  1.59320E+03 -1.04298E+03  1.00314E+03  5.20507E+02  5.23052E+02  1.05263E+03 -1.33044E+03  2.67823E+03
 -1.43626E+03  2.71201E+03 -2.44625E+03  9.39556E+02 -1.20438E+03 -3.99254E+02 -1.28473E+03 -2.42380E+03
 -4.94916E+02 -1.42576E+03  3.90621E+02 -1.67938E+03  1.62775E+03 -2.27282E+02  1.97372E+03 -2.03140E+01
  8.32429E+02  1.08537E+02  3.07210E+02  5.75257E+02 -9.01891E+02  7.42304E+02 -1.79023E+02 -1.27511E+02
 -1.05975E+02  8.93989E+02  4.84696E+02 -4.14367E+02  2.16692E+02  5.30792E+02 -8.01944E+02  1.48826E+03
 -3.55419E+02  2.12727E+03 -4.82032E+02  4.88688E+02 -6.63086E+02  9.04590E+02 -1.56203E+02 -9.74396E+02
  3.86434E+02 -2.33214E+03  9.71539E+02  2.45957E+02  1.74168E+03 -1.12330E+03  1.58393E+03  6.66032E+02
  8.60210E+01  2.26842E+02 -7.50881E+02  9.79089E+02 -4.98319E+02  9.40989E+02 -1.50201E+03  2.44858E+02
  6.30131E+00  1.02964E+01 -7.12632E+02  7.84511E+02 -3.75470E+02  4.37356E+02 -2.86082E+02 -1.12936E+03
 -1.50813E+03  5.85995E+01 -1.37905E+02 -2.36678E+03  1.49775E+03 -1.96352E+03  1.86437E+03 -4.03966E+02
  2.14538E+03 -8.52990E+02 -4.01755E+02  1.01756E+03 -4.63867E+02  1.21746E+03 -5.07118E+02  6.42462E+01
