 $NMID ID='MM_0lb_SNR200_16hz_g50_97.RAW', FMTDAT='(8E13.5)'
 TRAMP=1., VOLUME=1. $END
  3.10385E+05  5.82548E+02  3.36241E+05  2.50721E+05  8.51807E+04  3.38015E+05 -1.32131E+05  2.50591E+05
 -1.89876E+05  8.29691E+04 -1.11772E+05 -3.20552E+04  1.21716E+03 -5.13244E+04  5.46968E+04 -6.61710E+02
  3.54084E+04  5.23098E+04 -1.72184E+04  7.43277E+04 -6.17996E+04  6.25762E+04 -8.36488E+04  3.13198E+04
 -8.18598E+04 -1.12444E+04 -5.65250E+04 -5.04516E+04 -1.41942E+04 -6.98251E+04  2.66098E+04 -4.49276E+04
  3.89523E+04  3.31411E+03  1.61677E+04  4.81150E+04 -3.53070E+04  4.63661E+04 -6.70505E+04  3.17682E+02
 -5.28526E+04 -5.52276E+04 -5.52313E+03 -7.49362E+04  3.29041E+04 -5.39275E+04  4.60159E+04 -1.83598E+04
  4.28674E+04  1.11979E+04  3.24865E+04  2.43979E+04  1.42187E+04  3.12245E+04 -4.81809E+03  2.74922E+04
 -2.22763E+04  1.18339E+04 -1.81101E+04 -4.30705E+03  5.11594E+03 -8.11533E+03  2.26034E+04  1.15059E+04
  6.53814E+03  3.45772E+04 -3.15140E+04  3.41252E+04 -6.36487E+04  1.47561E+03 -5.72096E+04 -4.16600E+04
 -1.29433E+04 -6.15141E+04  3.89838E+04 -4.47465E+04  5.57897E+04 -7.26441E+02  3.21426E+04  3.06886E+04
 -6.74827E+03  3.44097E+04 -2.80515E+04  1.52088E+04 -2.95761E+04 -4.58012E+03 -1.56878E+04 -1.09787E+04
 -7.65304E+03 -1.14895E+04 -3.61624E+02 -1.73502E+04  7.08076E+03 -2.18356E+04  1.58725E+04 -1.30996E+04
  1.07620E+04  5.59280E+03 -7.44552E+03  1.29143E+04 -2.12420E+04 -3.22132E+03 -8.58727E+03 -3.30291E+04
  2.14142E+04 -4.21871E+04  4.61008E+04 -1.96462E+04  4.30063E+04  1.95623E+04  1.45573E+04  4.26011E+04
 -1.60983E+04  3.27568E+04 -2.51020E+04  7.05888E+02 -8.97885E+03 -2.72335E+04  1.97425E+04 -3.25294E+04
  3.92900E+04 -9.01963E+03  3.45559E+04  2.33728E+04  1.74734E+04  4.43418E+04 -8.23284E+03  4.81554E+04
 -3.04023E+04  3.15451E+04 -4.05717E+04  8.31678E+03 -4.09522E+04 -1.70932E+04 -2.30474E+04 -3.63763E+04
  7.86369E+03 -3.75696E+04  3.01522E+04 -1.26281E+04  2.83936E+04  9.77600E+03  3.38182E+03  1.84460E+04
 -1.40761E+04  8.00975E+03 -9.29234E+03 -7.56148E+03  5.76740E+03 -1.15983E+04  1.72566E+04  6.72741E+03
  1.38774E+04  2.10134E+04 -7.93318E+03  2.41195E+04 -2.29262E+04  1.04629E+04 -2.64777E+04 -5.96842E+03
 -1.88808E+04 -1.75125E+04 -6.25269E+03 -1.86646E+04  4.55228E+03 -1.85448E+04  1.41880E+04 -1.62919E+04
  2.47155E+04 -1.32159E+04  2.98781E+04  1.56306E+03  2.28830E+04  1.84198E+04  4.09063E+03  3.48410E+04
 -1.61030E+04  3.00173E+04 -2.71394E+04  9.86923E+03 -2.10535E+04 -8.89181E+03 -4.56137E+03 -1.37345E+04
  1.91494E+03 -3.48665E+03 -4.64895E+03  5.90530E+03 -1.54974E+04  5.29751E+03 -1.55569E+04 -7.02365E+03
 -1.01130E+04 -1.71737E+04  5.44715E+03 -2.23538E+04  1.51860E+04 -1.41351E+04  1.59972E+04 -2.15766E+02
  1.06492E+04  1.25451E+04 -6.81169E+02  1.81930E+04 -1.29648E+04  9.07770E+03 -1.59506E+04 -4.15690E+03
 -1.27463E+04 -1.69781E+04 -1.47500E+03 -2.16533E+04  9.36701E+03 -1.84083E+04  1.72721E+04 -9.03480E+03
  1.60180E+04 -2.25780E+02  1.20569E+04  4.21180E+03  6.93741E+03  9.58608E+02  9.09821E+03 -2.54624E+03
  1.54744E+04  2.08801E+03  1.77142E+04  1.50058E+04  1.11672E+04  2.72341E+04 -2.19801E+03  3.06978E+04
 -1.84107E+04  2.47251E+04 -2.81989E+04  1.25016E+04 -3.01926E+04 -9.22008E+02 -2.45848E+04 -1.59987E+04
 -1.09124E+04 -2.34493E+04  7.15372E+03 -2.21574E+04  1.81258E+04 -1.20750E+04  1.85234E+04  5.35147E+03
  7.52730E+03  1.24613E+04 -9.12125E+03  1.19800E+04 -1.42303E+04  2.07303E+03 -1.05957E+04 -8.86172E+03
 -1.61027E+02 -1.39023E+04  6.17358E+03 -9.23131E+03  8.81620E+03 -1.67121E+03  9.86223E+02  5.60171E+03
 -5.63583E+03  2.52150E+03 -6.09901E+03 -4.77055E+03  3.91087E+02 -1.14507E+04  8.98516E+03 -1.27407E+04
  1.42311E+04 -5.87401E+03  1.45169E+04  2.12858E+03  1.25962E+04  1.11339E+04  5.82311E+03  1.72334E+04
 -2.58268E+03  1.94481E+04 -1.33538E+04  1.23165E+04 -1.47112E+04  3.72082E+03 -1.03922E+04 -2.24782E+03
 -5.23261E+03 -3.34256E+03 -1.27422E+03  1.02561E+03 -1.79588E+03  2.46022E+03 -5.16480E+03  3.56357E+03
 -8.99589E+03 -1.24693E+03 -1.05850E+04 -7.93188E+03 -4.47199E+03 -1.25016E+04  4.57147E+03 -9.07630E+03
  8.82340E+03 -3.97738E+03  5.46270E+03  1.26675E+03  9.06733E+02  3.87971E+03 -4.70674E+03 -2.49203E+02
 -3.96271E+03 -6.19832E+03  4.14594E+02 -1.06724E+04  6.15267E+03 -9.96313E+03  1.14078E+04 -5.42999E+03
  1.37167E+04  6.26193E+02  1.10089E+04  7.80180E+03  2.38028E+03  1.15394E+04 -5.68406E+03  1.06767E+04
 -8.85018E+03  2.54682E+03 -3.89698E+03 -1.99051E+03  1.81663E+03 -3.07613E+03  5.69520E+03 -1.02213E+03
  4.28833E+03  3.66011E+03  1.35691E+03  9.29560E+03 -5.16473E+03  7.22107E+03 -8.63330E+03  1.83520E+03
 -6.41267E+03 -4.57688E+03 -2.83883E+00 -8.76711E+03  3.74909E+03 -4.89748E+03  4.42036E+03  1.96542E+03
  1.59428E+02  4.47476E+03 -5.36154E+03  6.58470E+03 -6.52375E+03  1.94973E+03 -6.77052E+03 -1.05828E+03
 -3.30230E+03 -7.30733E+03  1.44310E+03 -8.90895E+03  7.26296E+03 -5.56468E+03  8.43224E+03  1.29480E+03
  6.35369E+03  7.33882E+03 -6.94322E+02  8.62664E+03 -5.14276E+03  5.19800E+03 -8.34065E+03 -1.31380E+03
 -7.13701E+03 -5.33434E+03 -2.35845E+03 -7.37807E+03  3.77895E+03 -5.01207E+03  4.92688E+03 -3.07629E+03
  2.99874E+03  6.66916E+02  7.48688E+02  1.73037E+03  3.67761E+02  4.11771E+02  1.12760E+03 -3.12942E+03
  5.58460E+03 -1.78496E+03  7.73963E+03  6.95155E+02  8.55215E+03  3.81757E+03  5.88534E+03  1.04760E+04
 -1.25120E+03  1.13013E+04 -9.54343E+03  8.71971E+03 -1.27739E+04  2.02355E+03 -1.06613E+04 -4.29694E+03
 -5.28569E+03 -8.15744E+03 -5.12221E+02 -6.59823E+03  2.78291E+03 -3.56210E+03  1.12908E+03 -3.25228E+03
  1.63753E+03 -2.56897E+03  3.34673E+03 -3.18135E+03  3.47686E+03 -2.23604E+03  5.59347E+03 -5.87654E+02
  5.34452E+03  2.57199E+03  3.84933E+03  5.04184E+03 -1.06574E+03  5.05244E+03 -4.95536E+03  3.27840E+03
 -8.11843E+03 -1.50591E+03 -3.08176E+03 -5.27798E+03  4.46475E+02 -7.78541E+03  3.23413E+03 -8.24735E+03
  7.40259E+03 -4.86974E+03  8.34431E+03  1.29609E+03  6.32237E+03  6.29968E+03  2.32548E+03  7.96475E+03
 -3.91262E+03  7.76466E+03 -4.45894E+03  1.72743E+03 -2.56218E+03 -1.54622E+03 -2.36771E+03 -1.25001E+03
  5.64055E+02  1.69399E+01 -4.16106E+01  1.32673E+03 -2.88235E+03  7.80844E+02 -5.96934E+03 -6.39818E+02
 -2.39785E+03 -4.81566E+03  7.72206E+02 -5.98902E+03  4.44433E+03 -5.06593E+03  5.24250E+03 -4.26653E+01
  5.92738E+03  3.94706E+03  3.40686E+03  5.63343E+03 -6.24095E+02  7.29405E+03 -4.37705E+03  4.62968E+03
 -4.74959E+03  1.54371E+03 -4.79508E+03 -3.17717E+03 -8.95262E+02 -5.35539E+03  4.27093E+03 -3.96388E+03
  3.62656E+03 -2.30124E+03  3.12643E+03  1.07918E+03 -8.19423E+02  2.24641E+03  1.32842E+03  1.69924E+03
  2.30405E+03  3.28662E+02  2.34064E+03  1.08285E+03  2.20403E+03  3.04410E+03  2.20251E+03  1.69694E+03
 -8.22981E+02  3.79450E+03 -3.80873E+03  5.99797E+03 -4.86807E+03  2.62476E+03 -4.71474E+03 -6.71406E+02
 -3.08072E+03 -4.66963E+03  3.85472E+02 -6.32893E+03  3.06821E+03 -3.36644E+03  4.60477E+03 -9.21580E+02
  3.98397E+03  2.38428E+03  1.32241E+03  3.28061E+03 -1.02336E+03  1.44855E+03 -1.25216E+03  5.14778E+02
 -1.62305E+03 -1.74415E+03  1.11573E+03 -2.72351E+03  2.06346E+03 -1.04265E+03  4.00714E+03  1.39915E+03
  1.26356E+03 -6.05932E+02  1.03213E+03  3.03391E+02  2.23543E+02  6.32385E+02  1.87360E+03  6.46671E+01
  2.83056E+02 -2.64645E+02  2.83464E+03  1.47522E+03  6.10753E+02  2.14322E+03 -2.42227E+02  4.75164E+03
 -2.54273E+03  1.45484E+03 -2.86280E+03  7.58123E+02 -2.39891E+03 -1.61239E+03  3.82362E+02 -1.01829E+03
  8.99759E+02 -2.35199E+03  2.94691E+02 -4.58590E+02  1.95882E+03  1.59366E+03 -5.00069E+02  2.47212E+03
 -1.94771E+03  5.43887E+02 -1.36559E+03 -1.86617E+03 -1.72794E+03 -3.08441E+03  4.99460E+02 -3.23611E+03
  1.54744E+03 -1.11515E+03  1.94036E+03  4.49339E+02  1.33406E+03  8.92042E+02  1.12477E+02  2.22896E+03
 -1.58924E+03  9.73550E+02 -9.53927E+02 -1.60465E+02  5.17006E+02 -1.28941E+03  3.12176E+03 -2.93024E+03
  2.26168E+03  4.58710E+02  3.63077E+03  2.08672E+03  2.17052E+03  3.25022E+03 -7.73824E+02  3.22885E+03
 -2.24719E+03 -1.36687E+01 -3.05777E+03 -5.35009E+02 -1.59551E+03 -1.06199E+03  7.40242E+02 -1.26954E+03
  2.21738E+03 -5.67925E+02  1.18059E+03  9.84288E+01  1.68961E+02  2.47418E+03 -1.01193E+03  1.37970E+03
 -1.21292E+02  1.12430E+03 -5.77627E+02 -1.13125E+03 -2.54049E+02  1.97085E+02 -1.55705E+03  6.38462E+02
 -1.23400E+03  8.15879E+02 -2.45757E+03  2.57082E+02 -3.31501E+03  7.91509E+02 -3.46223E+03 -1.98975E+03
 -2.80038E+03 -2.55980E+03  1.14013E+03 -4.48452E+03  2.40890E+03 -3.23280E+03  3.06433E+03 -1.68452E+03
  4.77117E+03 -1.04278E+02  1.13645E+03  2.50507E+03  3.21548E+01  1.58923E+03  9.34881E+01  1.68219E+03
 -9.38933E+02  1.20124E+03 -4.54483E+00 -1.06912E+03  4.35781E+02  6.34572E+02 -2.68754E+02 -3.95440E+02
 -1.34860E+03 -8.65492E+02 -5.58128E+02  3.82749E+02  1.72068E+01 -1.56352E+03 -1.58250E+02 -5.29883E+02
  2.14847E+03 -1.68520E+02  7.17773E+02  1.18179E+03  1.56345E+03  1.75144E+03 -5.15702E+01  1.72138E+03
 -8.18399E+02  3.15242E+03 -2.61801E+03  2.31610E+03 -3.57230E+03  7.51210E+02 -1.95796E+03 -1.32290E+03
 -2.22515E+03 -2.60640E+03  5.64437E+02 -2.51725E+03  2.35527E+03 -3.09614E+02  1.00206E+03  4.13085E+02
  4.29676E+02  2.27202E+02  4.17620E+02  1.18483E+03  1.09243E+02  1.71559E+02 -2.51154E+02 -5.85083E+02
  1.29368E+03  9.69537E+02  8.98277E+02  9.50246E+02  3.03016E+01  2.36022E+00  7.58533E+02  1.37497E+03
 -7.05543E+02  9.30206E+02 -1.78414E+03  3.95585E+02 -1.08602E+03 -1.26946E+03 -7.17986E+02 -1.23031E+03
  9.03140E+02 -2.54337E+03  1.16323E+03  3.04509E+02  1.30131E+03 -5.93734E+02  4.33576E+02  1.54365E+03
 -6.03471E+02  1.69329E+03 -1.84472E+03 -7.82003E+01 -8.02690E+02  1.63739E+03 -2.97313E+02  1.71578E+03
  2.35698E+01  1.03255E+03 -7.80745E+02  1.71087E+02 -5.23724E+02  1.42456E+03 -1.25814E+03 -3.55845E+02
 -2.02997E+03 -6.54287E+02  2.11868E+02 -1.88277E+03  2.55063E+02 -2.72285E+03  1.26465E+03 -2.10772E+03
  1.27047E+03  6.68304E+02  7.08345E+02  5.67450E+02  5.53127E+02  2.30674E+02  2.52833E+02  9.19041E+02
