 $NMID ID='MM_0lb_SNR200_12hz_g40_49.RAW', FMTDAT='(8E13.5)'
 TRAMP=1., VOLUME=1. $END
  3.09912E+05  3.73191E+02  3.37879E+05  2.50320E+05  8.48740E+04  3.39430E+05 -1.33336E+05  2.51160E+05
 -1.91172E+05  8.38593E+04 -1.12583E+05 -3.25511E+04  1.21753E+03 -4.98857E+04  5.43924E+04  5.14837E+02
  3.45348E+04  5.29516E+04 -1.66133E+04  7.57259E+04 -6.15468E+04  6.23176E+04 -8.47393E+04  3.16563E+04
 -8.17264E+04 -1.06242E+04 -5.71823E+04 -5.04666E+04 -1.49562E+04 -6.93530E+04  2.65874E+04 -4.64233E+04
  3.97190E+04  4.55503E+03  1.58972E+04  4.78795E+04 -3.23865E+04  4.75683E+04 -6.76583E+04  8.44294E+02
 -5.31885E+04 -5.81050E+04 -5.74136E+03 -7.63172E+04  3.50540E+04 -5.48423E+04  5.00414E+04 -1.90229E+04
  4.42745E+04  1.05019E+04  3.19072E+04  2.44382E+04  1.55017E+04  2.83670E+04 -3.78490E+03  2.88208E+04
 -2.06744E+04  1.24361E+04 -1.86334E+04 -5.13163E+03  5.07473E+03 -7.31403E+03  2.35353E+04  1.18575E+04
  8.88777E+03  3.62546E+04 -3.24961E+04  3.63171E+04 -6.18375E+04  1.77043E+03 -5.86146E+04 -4.41020E+04
 -1.29068E+04 -6.31177E+04  4.01852E+04 -4.61432E+04  5.87331E+04 -1.32813E+03  3.59244E+04  3.33215E+04
 -5.05521E+03  3.63368E+04 -3.02237E+04  1.61538E+04 -3.13018E+04 -4.35590E+03 -1.88692E+04 -1.08377E+04
 -8.93320E+03 -1.41622E+04 -9.78836E+02 -1.65595E+04  8.41246E+03 -2.31114E+04  1.57984E+04 -1.37368E+04
  1.12530E+04  4.22780E+03 -8.56324E+03  1.23177E+04 -2.33720E+04 -3.98863E+03 -8.02488E+03 -3.48397E+04
  2.27382E+04 -4.41153E+04  4.94537E+04 -2.01184E+04  4.55594E+04  2.06524E+04  1.56581E+04  4.42790E+04
 -1.71791E+04  3.36103E+04 -2.61764E+04  1.67383E+03 -9.62063E+03 -2.85968E+04  1.99417E+04 -3.47067E+04
  4.19165E+04 -9.54764E+03  3.65221E+04  2.26974E+04  1.74990E+04  4.67048E+04 -8.14823E+03  5.16702E+04
 -3.13806E+04  3.49861E+04 -4.33019E+04  1.04407E+04 -4.26455E+04 -1.77135E+04 -2.45568E+04 -3.81424E+04
  7.59772E+03 -3.89183E+04  3.27326E+04 -1.59293E+04  3.00214E+04  1.03719E+04  4.87339E+03  1.98712E+04
 -1.40808E+04  8.32191E+03 -9.39145E+03 -6.33482E+03  6.07065E+03 -1.16868E+04  1.84011E+04  7.19574E+03
  1.30421E+04  2.16377E+04 -7.22027E+03  2.53319E+04 -2.21197E+04  1.29977E+04 -2.90498E+04 -3.86857E+03
 -2.09707E+04 -1.76411E+04 -9.95657E+03 -2.15791E+04  3.70367E+03 -2.02416E+04  1.68794E+04 -1.75720E+04
  2.61901E+04 -1.32971E+04  3.41984E+04  3.83996E+03  2.41841E+04  2.15706E+04  3.86427E+03  3.85169E+04
 -1.72894E+04  3.13208E+04 -2.85686E+04  1.09699E+04 -2.17009E+04 -1.00106E+04 -3.80289E+03 -1.49100E+04
  1.87502E+03 -2.34985E+03 -4.27051E+03  5.84301E+03 -1.69569E+04  5.33721E+03 -1.78123E+04 -7.79140E+03
 -9.26060E+03 -2.08013E+04  6.35182E+03 -2.40665E+04  1.57581E+04 -1.60373E+04  1.91799E+04 -1.74924E+03
  1.05483E+04  1.33458E+04 -9.97000E+02  1.91667E+04 -1.29954E+04  1.18894E+04 -1.87476E+04 -4.78188E+03
 -1.47167E+04 -1.80152E+04 -1.51016E+03 -2.36694E+04  1.14473E+04 -1.99815E+04  2.00209E+04 -1.11779E+04
  1.80788E+04 -1.20539E+03  1.34851E+04  4.66198E+03  7.68171E+03  7.77013E+02  9.55985E+03 -2.76924E+03
  1.95258E+04  2.24053E+03  2.14566E+04  1.48621E+04  1.31979E+04  3.19223E+04 -2.67735E+03  3.69923E+04
 -2.06917E+04  2.86698E+04 -3.32671E+04  1.57124E+04 -3.66157E+04 -2.55044E+03 -2.88446E+04 -2.15057E+04
 -1.30595E+04 -2.89939E+04  1.15971E+04 -2.66925E+04  2.15907E+04 -1.31238E+04  1.93754E+04  5.68029E+03
  6.84693E+03  1.49997E+04 -1.02811E+04  1.38096E+04 -1.65148E+04  3.41101E+03 -1.34419E+04 -1.10129E+04
 -1.11661E+03 -1.64679E+04  7.60163E+03 -1.23499E+04  1.08368E+04 -8.70409E+02  1.85175E+03  7.41377E+03
 -6.96697E+03  2.77081E+03 -5.78076E+03 -5.84025E+03 -3.80811E+02 -1.54631E+04  9.02222E+03 -1.52641E+04
  1.82277E+04 -8.12395E+03  2.00216E+04  3.70117E+03  1.56349E+04  1.39356E+04  7.54366E+03  2.13352E+04
 -3.32766E+03  2.35667E+04 -1.62716E+04  1.48423E+04 -1.66652E+04  4.69153E+03 -1.21561E+04 -3.48412E+03
 -5.37732E+03 -3.60811E+03 -1.89238E+03  1.62490E+02 -3.08623E+03  2.58929E+03 -5.55042E+03  4.06221E+03
 -1.18739E+04  5.08719E+01 -1.23490E+04 -9.56409E+03 -4.01176E+03 -1.60233E+04  3.34930E+03 -1.33866E+04
  9.28426E+03 -3.94737E+03  6.63719E+03  3.90668E+03  2.36383E+02  3.82918E+03 -6.03172E+03 -1.82820E+01
 -4.97039E+03 -8.66092E+03 -4.97908E+02 -1.20790E+04  7.40575E+03 -1.25106E+04  1.72940E+04 -6.59389E+03
  1.87496E+04  1.39414E+03  1.39782E+04  1.23488E+04  2.43856E+03  1.54110E+04 -8.36159E+03  1.27568E+04
 -1.07949E+04  3.00854E+03 -5.06434E+03 -2.98609E+03  8.86424E+01 -2.55277E+03  6.62227E+03 -1.17912E+03
  6.40957E+03  5.10707E+03  1.55885E+03  9.43520E+03 -6.33481E+03  8.79138E+03 -1.18319E+04  2.83512E+03
 -8.97794E+03 -7.27309E+03  1.27698E+03 -1.13289E+04  5.89637E+03 -5.35869E+03  5.62065E+03  2.78614E+03
  2.28390E+02  5.92019E+03 -6.47066E+03  8.74424E+03 -1.05467E+04  3.51587E+03 -8.28061E+03 -3.12412E+03
 -5.19324E+03 -1.05972E+04  2.29387E+03 -1.25041E+04  1.10357E+04 -8.46380E+03  1.18450E+04  9.42833E+02
  6.10283E+03  8.88447E+03 -1.83337E+03  1.15252E+04 -9.53463E+03  7.15766E+03 -9.25165E+03  1.08947E+03
 -8.65817E+03 -7.78717E+03 -9.37567E+02 -1.04311E+04  4.46804E+03 -6.93026E+03  5.34691E+03 -4.99800E+03
  2.77153E+03  9.74525E+02 -5.49657E+02  1.86889E+03  3.10457E+02 -2.90624E+03  7.91136E+02 -4.53357E+03
  7.29152E+03 -1.52365E+03  1.06503E+04 -3.19497E+02  1.18579E+04  8.00394E+03  8.69238E+03  1.47504E+04
 -4.38298E+03  1.57613E+04 -1.42047E+04  1.10192E+04 -1.75416E+04  2.51480E+03 -1.36347E+04 -5.65088E+03
 -6.56178E+03 -1.23677E+04  4.34899E+01 -1.07713E+04  3.32451E+03 -5.01286E+03  3.33319E+03 -3.65395E+03
  1.89592E+03 -2.40127E+03  3.32569E+03 -3.71983E+03  4.42390E+03 -1.97542E+03  6.74235E+03  4.14871E+02
  8.58091E+03  1.81021E+03  4.18775E+03  5.41841E+03 -2.01779E+03  7.58227E+03 -8.20273E+03  5.66171E+03
 -1.02859E+04 -2.11197E+03 -4.38688E+03 -7.50645E+03 -8.13207E+02 -1.15155E+04  6.28044E+03 -1.13312E+04
  1.02757E+04 -6.12892E+03  1.33673E+04  3.30138E+02  1.01867E+04  7.09804E+03  1.56167E+03  1.26971E+04
 -3.63990E+03  9.76936E+03 -6.68652E+03  4.28492E+03 -5.18322E+03 -2.50679E+03 -1.07094E+03 -1.59745E+03
 -8.00163E+02 -5.00343E+02 -2.20899E+03  3.65205E+03 -6.04525E+03  2.20510E+03 -7.46728E+03 -3.66611E+02
 -4.85380E+03 -7.29175E+03  1.26554E+03 -9.96282E+03  5.46444E+03 -8.98209E+03  9.43482E+03 -2.58089E+03
  8.96032E+03  4.16634E+03  3.61434E+03  8.35881E+03 -1.99496E+03  1.03607E+04 -6.12371E+03  6.87495E+03
 -9.06119E+03 -1.34326E+02 -6.84320E+03 -4.33149E+03 -2.96340E+02 -8.48822E+03  4.04994E+03 -5.74376E+03
  3.99034E+03 -1.54770E+03  5.01296E+03  2.80830E+03  1.10587E+03  2.15697E+03  1.40877E+03  1.73185E+03
  1.82244E+03  4.47145E+02  3.51195E+03  1.52194E+03  2.39107E+03  5.04498E+03  3.34662E+03  4.24451E+03
 -3.15816E+03  6.08245E+03 -7.52953E+03  7.77247E+03 -9.21175E+03  1.05181E+03 -9.93655E+03 -4.30115E+03
 -5.22981E+03 -9.51200E+03  1.10636E+03 -1.09460E+04  4.99823E+03 -6.74767E+03  7.76049E+03 -1.94729E+03
  6.29923E+03  3.04794E+03  3.66248E+02  5.71154E+03 -3.92286E+03  3.73798E+03 -5.14017E+03 -4.66063E+02
 -2.24697E+03 -4.86549E+03  2.31043E+03 -2.66481E+03  5.18534E+03 -2.15695E+03  3.17554E+03  1.20671E+03
  3.01936E+03  2.24304E+03  1.49537E+03  1.51090E+03 -1.06897E+03  3.83323E+03  2.51747E+03 -1.78875E+03
  1.02855E+03 -1.45906E+02  2.55750E+03  1.79007E+03  9.70060E+02  5.44525E+03 -1.26954E+03  7.07366E+03
 -5.56566E+03  3.78441E+03 -5.43985E+03  1.51773E+03 -6.42408E+03 -3.03385E+03 -1.88186E+03 -3.72799E+03
  1.17618E+03 -2.55081E+03  3.00714E+03 -1.27047E+03  1.23553E+03  3.50942E+03 -1.45234E+03  1.98896E+03
 -4.63320E+03  8.14994E+02 -5.31872E+03 -1.72354E+03 -1.19295E+03 -4.00461E+03  9.26089E+02 -4.60557E+03
  3.63738E+03 -4.03461E+03  3.51451E+03  3.56283E+02  4.64023E+03  9.81560E+02 -3.81037E+01  1.60472E+03
 -1.02537E+03  4.07108E+02 -1.97257E+03 -1.55023E+03  1.83745E+03 -3.17777E+03  4.13640E+03 -2.65443E+03
  5.12381E+03  2.89799E+02  5.85973E+03  3.60378E+03  2.04944E+03  5.01775E+03 -1.60746E+03  4.62082E+03
 -5.50469E+03  1.14775E+03 -4.79923E+03 -1.17921E+03 -2.27196E+03 -3.62262E+03  1.64129E+03 -2.87804E+03
  2.58425E+03 -1.78107E+03  3.05165E+03  8.49961E+02  1.69671E+03  2.89689E+03 -1.09396E+02  2.78724E+03
  6.07857E+02  1.09341E+03 -3.94893E+02  1.57711E+03 -8.65942E+02  1.47854E+03 -2.02292E+03  8.80496E+02
 -1.45071E+03  1.20221E+03 -5.39877E+03  1.83303E+03 -5.12579E+03  1.43895E+03 -5.88849E+03 -3.12215E+03
 -3.30510E+03 -8.17572E+03  1.53617E+03 -9.83279E+03  5.16397E+03 -6.39176E+03  8.96500E+03 -2.81002E+03
  7.26839E+03  1.30312E+03  4.12847E+03  4.97334E+03  1.54561E+02  4.75601E+03 -1.91099E+03  4.22001E+03
 -4.09132E+03  4.58390E+02 -1.32402E+03 -7.55689E+02 -2.27465E+02  1.89690E+02 -1.44186E+03  4.86481E+01
 -8.48319E+02  1.02712E+03 -2.76669E+03 -1.63157E+02 -9.15191E+01 -1.38338E+03 -2.57191E+02 -1.94224E+03
  3.50556E+03 -3.30638E+03  3.79464E+03 -4.14615E+02  4.52307E+03  2.35819E+03  1.38863E+03  5.46129E+03
 -1.86367E+03  5.25414E+03 -5.46202E+03  3.17127E+03 -7.25974E+03 -9.93661E+02 -5.56124E+03 -3.35153E+03
 -2.56124E+03 -5.61201E+03  1.26122E+03 -3.38376E+03  3.45678E+03 -1.70315E+03  2.90601E+03 -2.66351E+02
  2.20220E+03  1.61459E+03 -1.59414E+03  1.32286E+03 -1.36466E+03 -2.23973E+02  4.34684E+02 -1.77316E+03
  2.62186E+03 -6.93480E+02  9.70957E+02 -4.15152E+01  3.85797E+02  1.13070E+03 -4.18223E+02  3.56898E+03
 -3.87616E+03  2.27645E+03 -2.91410E+03 -5.09304E+02 -2.83563E+03 -2.13045E+03  7.35601E+01 -2.88926E+03
  2.79836E+03 -3.77801E+03  4.74353E+03 -3.87282E+02  4.73874E+03  1.47127E+03  2.30668E+03  3.75411E+03
  1.14373E+02  3.78557E+03 -2.45955E+03  2.61169E+03 -2.89515E+03  2.43354E+03 -7.98634E+02 -2.34958E+02
 -2.74759E+03 -7.53044E+02 -7.04857E+02  4.94840E+02 -1.16862E+03  2.73072E+01 -3.44358E+03  1.84473E+02
 -5.02089E+03 -2.98521E+03 -1.40244E+03 -3.83459E+03  2.50860E+03 -4.32150E+03  2.32392E+03 -1.23658E+03
  4.15977E+03 -1.31952E+02  2.85038E+03  1.24526E+03 -1.04055E+03  4.00801E+03 -1.93048E+03  3.57273E+03
