 $NMID ID='MM_0lb_SNR200_11hz_g50_31.RAW', FMTDAT='(8E13.5)'
 TRAMP=1., VOLUME=1. $END
  3.07702E+05 -7.86637E+01  3.37722E+05  2.51572E+05  8.47135E+04  3.36930E+05 -1.33644E+05  2.52085E+05
 -1.90982E+05  8.37513E+04 -1.12968E+05 -3.31100E+04  8.84117E+02 -5.05906E+04  5.43591E+04 -1.50697E+02
  3.52603E+04  5.43937E+04 -1.62317E+04  7.60132E+04 -6.20795E+04  6.52453E+04 -8.51449E+04  3.29223E+04
 -8.17217E+04 -1.21635E+04 -5.63047E+04 -5.24986E+04 -1.48393E+04 -7.08793E+04  2.84542E+04 -4.46328E+04
  4.06184E+04  4.65552E+03  1.55974E+04  4.83551E+04 -3.51412E+04  4.85219E+04 -6.67222E+04  8.16612E+02
 -5.60327E+04 -5.70822E+04 -7.71292E+03 -7.70568E+04  3.35006E+04 -5.65319E+04  4.92061E+04 -1.73852E+04
  4.57630E+04  1.13617E+04  3.09685E+04  2.66184E+04  1.47333E+04  3.01344E+04 -6.02013E+03  2.85062E+04
 -2.42308E+04  1.17019E+04 -1.75318E+04 -5.39148E+03  5.58606E+03 -7.23211E+03  2.38793E+04  1.37460E+04
  9.14743E+03  3.63726E+04 -3.33892E+04  3.63532E+04 -6.48261E+04  2.62466E+03 -5.66268E+04 -4.58155E+04
 -1.20264E+04 -6.46675E+04  4.07113E+04 -4.61699E+04  5.93116E+04 -2.48334E+03  3.63106E+04  3.45884E+04
 -5.65586E+03  3.76023E+04 -3.09676E+04  1.80496E+04 -3.10552E+04 -5.09870E+03 -1.82239E+04 -1.23276E+04
 -7.90445E+03 -1.50933E+04 -1.42980E+03 -1.87544E+04  8.49228E+03 -2.27535E+04  1.58063E+04 -1.34613E+04
  1.19560E+04  6.35420E+03 -1.03821E+04  1.28356E+04 -2.31274E+04 -5.41725E+03 -8.25332E+03 -3.53389E+04
  2.34824E+04 -4.50957E+04  5.08393E+04 -2.05479E+04  4.69694E+04  2.12789E+04  1.58299E+04  4.60388E+04
 -1.41342E+04  3.53658E+04 -2.65599E+04  2.54455E+03 -1.09425E+04 -2.93405E+04  2.11148E+04 -3.63398E+04
  4.28950E+04 -1.07437E+04  3.79823E+04  2.60776E+04  1.86741E+04  4.78989E+04 -8.31590E+03  5.35702E+04
 -3.50523E+04  3.77835E+04 -4.50915E+04  1.04787E+04 -4.61692E+04 -1.74685E+04 -2.49611E+04 -4.10808E+04
  8.77767E+03 -4.03433E+04  3.33285E+04 -1.71075E+04  3.15140E+04  1.23961E+04  5.20235E+03  2.03835E+04
 -1.36358E+04  8.27814E+03 -8.86845E+03 -7.89791E+03  6.10276E+03 -1.01932E+04  1.98979E+04  5.94591E+03
  1.45454E+04  2.30962E+04 -5.23695E+03  2.57130E+04 -2.21184E+04  1.42565E+04 -3.14060E+04 -3.81761E+03
 -2.36445E+04 -1.70095E+04 -1.15062E+04 -2.27751E+04  4.97036E+03 -2.27645E+04  1.90630E+04 -2.03854E+04
  3.01099E+04 -1.44193E+04  3.57430E+04  2.86139E+03  2.56142E+04  2.20295E+04  5.00989E+03  3.85986E+04
 -1.80782E+04  3.17867E+04 -2.95645E+04  1.08507E+04 -2.26072E+04 -1.00796E+04 -4.20194E+03 -1.23227E+04
  2.15055E+03 -2.13476E+03 -6.39780E+03  8.30565E+03 -1.93636E+04  4.27137E+03 -1.89112E+04 -8.18453E+03
 -1.00204E+04 -2.19404E+04  4.54355E+03 -2.62933E+04  1.73324E+04 -1.81979E+04  2.00168E+04 -1.71636E+03
  1.45085E+04  1.52613E+04 -1.80507E+03  2.15885E+04 -1.46247E+04  1.30052E+04 -2.34180E+04 -4.10449E+03
 -1.59818E+04 -2.00508E+04 -1.73575E+03 -2.62599E+04  1.26691E+04 -2.06049E+04  2.17964E+04 -1.14877E+04
  1.96466E+04  6.35286E+02  1.49112E+04  3.49025E+03  8.22320E+03  1.33043E+03  1.15136E+04 -1.09896E+03
  2.05841E+04  1.92012E+03  2.28027E+04  1.71562E+04  1.67681E+04  3.37033E+04 -2.98568E+03  4.00141E+04
 -2.32944E+04  3.38898E+04 -3.70649E+04  1.81599E+04 -3.86468E+04 -1.76590E+03 -3.31500E+04 -2.27023E+04
 -1.23031E+04 -3.37643E+04  1.24545E+04 -3.03106E+04  2.50191E+04 -1.50048E+04  2.31472E+04  7.71055E+03
  7.76653E+03  1.61063E+04 -1.01096E+04  1.53066E+04 -1.83132E+04  2.76139E+03 -1.53065E+04 -1.28701E+04
 -7.37387E+02 -1.75163E+04  9.20033E+03 -1.34102E+04  1.25950E+04 -3.61027E+02  2.71872E+03  7.39394E+03
 -6.66130E+03  3.74055E+03 -9.15025E+03 -5.32208E+03 -2.75693E+03 -1.52048E+04  1.11270E+04 -1.72402E+04
  2.13067E+04 -9.94672E+03  2.54500E+04  4.90871E+03  1.95422E+04  1.57593E+04  9.12656E+03  2.56980E+04
 -4.55539E+03  2.81145E+04 -1.78863E+04  1.61697E+04 -1.94528E+04  4.55509E+03 -1.33293E+04 -5.92505E+03
 -6.67601E+03 -5.00172E+03 -6.92302E+02  4.88113E+02 -2.88651E+03  3.65954E+03 -5.33249E+03  4.49953E+03
 -1.32266E+04 -2.24027E+03 -1.39707E+04 -9.70860E+03 -5.80802E+03 -1.84220E+04  5.41150E+03 -1.39195E+04
  1.09933E+04 -5.36089E+03  7.93975E+03  4.70251E+03  1.22796E+03  6.58838E+03 -6.87958E+03 -1.23469E+03
 -6.90110E+03 -9.10348E+03 -2.65917E+03 -1.36781E+04  8.24937E+03 -1.37144E+04  1.79812E+04 -6.74511E+03
  2.04492E+04  2.12645E+03  1.36978E+04  1.36285E+04  2.87624E+03  1.54556E+04 -9.35603E+03  1.33323E+04
 -1.13138E+04  3.96262E+03 -5.76960E+03 -2.55491E+03  2.90205E+03 -3.48218E+03  5.88645E+03 -6.10759E+02
  6.35566E+03  5.64262E+03  2.58320E+02  1.18511E+04 -8.56698E+03  1.07083E+04 -1.34729E+04  4.03240E+03
 -9.03431E+03 -6.08194E+03 -3.52907E+02 -1.22209E+04  6.97726E+03 -6.26981E+03  7.80318E+03  3.28955E+03
  2.69374E+03  8.34609E+03 -7.24088E+03  7.87344E+03 -1.05042E+04  3.87963E+03 -1.17830E+04 -3.93165E+03
 -7.59047E+03 -1.21401E+04  3.91072E+03 -1.55858E+04  1.31896E+04 -8.72272E+03  1.46217E+04  2.03165E+03
  7.60943E+03  1.10765E+04 -2.53480E+02  1.29637E+04 -9.45771E+03  7.00553E+03 -1.18512E+04  1.22005E+02
 -1.04620E+04 -8.98782E+03 -2.25194E+03 -1.13713E+04  6.42156E+03 -8.92864E+03  6.15242E+03 -3.67218E+03
  3.12200E+03  2.19166E+03 -1.41057E+03  2.85165E+03  4.41752E+02 -2.93814E+03  3.12434E+03 -6.72748E+03
  9.22073E+03 -4.85086E+03  1.44648E+04  1.35147E+03  1.38156E+04  8.33092E+03  9.15942E+03  1.78999E+04
 -3.86120E+03  1.99952E+04 -1.72741E+04  1.45621E+04 -2.03418E+04  2.23813E+03 -1.81286E+04 -8.19022E+03
 -9.86027E+03 -1.40207E+04 -5.55727E+02 -1.29468E+04  4.45296E+03 -6.94893E+03  4.69615E+03 -5.09733E+03
  2.73397E+03 -3.10259E+03  3.06311E+03 -3.24144E+03  5.01895E+03 -2.43956E+03  8.18883E+03 -1.36084E+03
  8.20896E+03  1.16686E+03  4.56070E+03  8.47388E+03 -2.18580E+03  9.20747E+03 -9.65007E+03  7.16314E+03
 -1.21435E+04 -3.48061E+02 -6.48546E+03 -1.04923E+04 -7.12477E+02 -1.28219E+04  9.05969E+03 -1.25844E+04
  1.22248E+04 -6.01504E+03  1.56247E+04  1.02746E+03  1.12028E+04  1.16298E+04  1.04476E+03  1.49046E+04
 -4.61704E+03  1.14057E+04 -8.83360E+03  3.64261E+03 -6.16039E+03 -2.18489E+03 -2.05413E+03 -1.15398E+03
 -7.71576E+02  4.60898E+02 -1.82726E+03  2.88087E+03 -5.76432E+03  1.20508E+03 -7.58217E+03 -1.53778E+03
 -6.20589E+03 -7.66494E+03 -4.21525E+01 -1.20605E+04  6.72733E+03 -1.07470E+04  1.31825E+04 -3.04782E+03
  1.21545E+04  4.10184E+03  3.95218E+03  1.02970E+04 -1.32071E+03  1.24729E+04 -8.73738E+03  7.72784E+03
 -1.04912E+04  9.35616E+02 -8.67080E+03 -7.31222E+03 -8.47252E+02 -9.51644E+03  3.19868E+03 -7.93244E+03
  7.36373E+03 -1.96836E+03  4.66773E+03  2.16996E+03  1.88125E+03  4.36890E+03  2.36825E+03  1.15656E+03
  2.27032E+03  1.41933E+03  1.80337E+03  5.38294E+02  4.11721E+03  5.19225E+03  3.22184E+03  6.07313E+03
 -2.00520E+03  9.65831E+03 -7.82595E+03  1.03974E+04 -1.28328E+04  4.17630E+03 -1.25401E+04 -3.47792E+03
 -4.29879E+03 -1.15392E+04 -3.87726E+02 -1.27392E+04  7.75716E+03 -7.87158E+03  9.04923E+03 -1.74142E+03
  6.59490E+03  3.69331E+03  6.57344E+02  6.82491E+03 -2.89979E+03  4.29911E+03 -2.65496E+03 -9.84690E+01
 -2.15542E+03 -4.87844E+03  2.88288E+03 -7.20725E+03  3.02162E+03 -1.67655E+03  4.41450E+03 -2.52160E+01
  1.60034E+03  1.50685E+03  1.15519E+03  9.17738E+02 -5.93351E+02  1.62429E+03  2.95341E+03 -2.82821E+02
  3.18912E+03 -2.97956E+02  5.05876E+03  1.81391E+03  3.09433E+03  6.14038E+03 -2.92569E+02  8.86069E+03
 -5.66645E+03  4.65426E+03 -7.74143E+03 -8.41734E+01 -6.87425E+03 -1.97284E+03 -7.19915E+02 -4.59299E+03
 -1.09592E+02 -4.46158E+03  2.26860E+03 -1.88748E+03  2.04834E+03  2.79766E+03 -7.91634E+02  4.20999E+03
 -4.78284E+03  9.88734E+02 -4.56832E+03 -2.20802E+03 -3.34351E+03 -5.92912E+03 -4.77234E+02 -5.56105E+03
  4.37150E+03 -3.56031E+03  4.35616E+03 -3.69119E+02  2.74919E+03  9.06784E+02  6.47581E+02  3.13755E+03
 -3.33676E+03  1.76932E+03 -2.55401E+03 -1.74053E+03  1.18273E+03 -4.74309E+03  5.61328E+03 -4.55547E+03
  6.86454E+03  1.83514E+03  8.62260E+03  4.81750E+03  1.47532E+03  6.22357E+03 -2.02403E+03  5.99352E+03
 -6.24604E+03  3.14404E+03 -7.63143E+03 -1.47120E+03 -2.86280E+03 -5.23137E+03  1.79127E+03 -3.83950E+03
  4.30220E+03 -2.34564E+03  4.70195E+03  1.65921E+03 -6.62371E+02  5.16263E+03 -1.40031E+03  2.16308E+03
 -2.84053E+03  4.06557E+03 -1.80853E+03  2.45518E+02 -2.04716E+03  8.16738E+02 -1.82275E+03  2.89915E+03
 -1.29302E+03  2.29407E+03 -4.57524E+03  1.74216E+03 -8.29967E+03  4.47585E+02 -7.16420E+03 -6.10042E+03
 -3.50236E+03 -9.27418E+03  1.66245E+03 -9.18995E+03  5.58569E+03 -8.47317E+03  1.12055E+04 -2.95976E+03
  9.56890E+03  1.37791E+03  6.69924E+03  7.48929E+03  6.48036E+02  5.82617E+03 -3.55485E+03  6.97589E+03
 -4.66329E+03  3.09798E+03 -1.71624E+03 -1.44908E+03  2.99457E+02  5.25595E+02  9.70599E+01 -8.88985E+02
 -1.56997E+03 -1.87351E+02 -2.06433E+02 -4.56658E+02  2.64407E+02 -8.55225E+02  7.36500E+02 -4.92676E+02
  3.33728E+03 -2.70008E+03  4.23660E+03  3.92333E+02  4.97986E+03  3.89380E+03  4.38019E+02  6.53565E+03
 -2.57274E+03  9.09054E+03 -7.47564E+03  5.83018E+03 -8.89126E+03 -5.82596E+02 -6.50973E+03 -5.41228E+03
 -2.82295E+03 -8.30648E+03  2.13889E+03 -6.75037E+03  4.11556E+03 -4.32086E+03  3.87801E+03  3.97316E+02
  3.14406E+03  2.79858E+03 -1.67567E+03  2.75092E+03 -1.26364E+03  4.93999E+02 -2.32775E+02 -4.30052E+01
  2.80301E+03 -1.09535E+03  3.01150E+03 -9.12924E+02  2.45092E+03  3.38069E+03 -1.57300E+03  4.94055E+03
 -2.86953E+03  4.30717E+03 -5.18476E+03  4.32700E+02 -4.03687E+03 -2.67941E+03  6.35196E+02 -5.24372E+03
  3.93525E+03 -5.27421E+03  6.00644E+03 -1.21836E+03  6.56631E+03  1.76084E+03  3.29950E+03  4.26947E+03
 -3.67624E+02  3.86793E+03 -1.84749E+03  2.74530E+03 -3.42396E+03  9.90553E+02 -2.48383E+03 -5.29185E+02
 -8.78846E+02 -8.88207E+02 -8.91236E+02  8.91598E+02 -2.38177E+03  5.00306E+02 -4.73343E+03 -6.97389E+02
 -3.17754E+03 -4.43894E+03 -1.97124E+03 -5.20606E+03  3.46766E+03 -5.43054E+03  3.28328E+03 -2.01081E+03
  5.13059E+03  6.92566E+02  1.40291E+03  3.14714E+03  1.22944E+03  5.02888E+03 -3.00804E+03  2.47863E+03
