 $NMID ID='MM_0lb_SNR200_9hz_g40_98.RAW', FMTDAT='(8E13.5)'
 TRAMP=1., VOLUME=1. $END
  3.08604E+05  2.37040E+03  3.38127E+05  2.50446E+05  8.39394E+04  3.37797E+05 -1.32154E+05  2.50699E+05
 -1.91919E+05  8.22922E+04 -1.12483E+05 -3.15426E+04 -4.23658E+02 -5.12717E+04  5.13926E+04  9.29690E+02
  3.50543E+04  5.37924E+04 -1.73763E+04  7.54734E+04 -5.92595E+04  6.22430E+04 -8.49974E+04  3.31251E+04
 -8.23381E+04 -1.10675E+04 -5.78964E+04 -5.27543E+04 -1.43684E+04 -7.05658E+04  2.75438E+04 -4.60193E+04
  4.07186E+04  3.84728E+03  1.72017E+04  4.77826E+04 -3.49651E+04  4.62195E+04 -6.73278E+04  9.24443E+02
 -5.34936E+04 -5.96497E+04 -7.30198E+03 -7.82981E+04  3.41476E+04 -5.58691E+04  4.88686E+04 -1.75585E+04
  4.62904E+04  1.12592E+04  3.37957E+04  2.63049E+04  1.61015E+04  3.19116E+04 -6.76619E+03  2.69871E+04
 -2.22798E+04  1.18109E+04 -1.81879E+04 -5.30183E+03  6.62895E+03 -8.06217E+03  2.40269E+04  1.50747E+04
  7.59109E+03  3.62540E+04 -3.21162E+04  3.48936E+04 -6.47197E+04  1.75619E+03 -5.98628E+04 -4.28043E+04
 -1.34174E+04 -6.49937E+04  4.03224E+04 -4.84483E+04  6.04312E+04 -2.94669E+03  3.65246E+04  3.40567E+04
 -6.77063E+03  3.86652E+04 -2.97935E+04  1.80458E+04 -3.28104E+04 -3.60032E+03 -1.84596E+04 -1.36412E+04
 -1.00125E+04 -1.46942E+04 -1.08417E+03 -1.94164E+04  7.78560E+03 -2.38478E+04  1.62279E+04 -1.31458E+04
  1.01439E+04  6.40471E+03 -1.17464E+04  1.23080E+04 -2.31851E+04 -6.79155E+03 -9.08418E+03 -3.59255E+04
  2.53019E+04 -4.58932E+04  5.06425E+04 -2.01680E+04  4.76811E+04  2.01064E+04  1.67596E+04  4.58586E+04
 -1.65715E+04  3.49171E+04 -2.69682E+04  1.87740E+03 -1.06823E+04 -2.91293E+04  2.14854E+04 -3.69440E+04
  4.31510E+04 -1.10304E+04  3.98219E+04  2.49184E+04  2.04785E+04  4.96109E+04 -8.68470E+03  5.42712E+04
 -3.48623E+04  3.67086E+04 -4.75718E+04  1.22530E+04 -4.74438E+04 -1.79740E+04 -2.39533E+04 -4.16855E+04
  9.94392E+03 -4.20400E+04  3.28942E+04 -1.71817E+04  3.18166E+04  9.19754E+03  5.49729E+03  2.12497E+04
 -1.40054E+04  7.47997E+03 -1.09865E+04 -6.87599E+03  3.22704E+03 -1.03342E+04  1.77085E+04  4.32949E+03
  1.44408E+04  2.23655E+04 -4.71782E+03  2.68768E+04 -2.32442E+04  1.36864E+04 -2.95916E+04 -3.65595E+03
 -2.50941E+04 -1.92351E+04 -1.12000E+04 -2.44893E+04  3.78810E+03 -2.49586E+04  1.90234E+04 -2.16033E+04
  3.06191E+04 -1.43938E+04  3.73726E+04  4.74040E+03  2.56937E+04  2.31415E+04  5.04662E+03  4.16936E+04
 -1.88974E+04  3.43438E+04 -3.06920E+04  1.19762E+04 -2.17880E+04 -1.19610E+04 -3.54807E+03 -1.24788E+04
  9.39015E+02 -2.11078E+03 -7.96088E+03  9.58732E+03 -1.89311E+04  4.97006E+03 -2.12190E+04 -8.91812E+03
 -1.19819E+04 -2.35782E+04  6.63454E+03 -2.66250E+04  1.75488E+04 -1.85653E+04  2.22958E+04 -1.94917E+03
  1.36989E+04  1.49857E+04 -6.26203E+02  2.22263E+04 -1.56152E+04  1.25988E+04 -2.46572E+04 -3.80401E+03
 -1.56328E+04 -2.13170E+04 -2.83146E+03 -2.59154E+04  1.25423E+04 -2.15620E+04  2.10287E+04 -1.24341E+04
  2.13138E+04  5.57952E+02  1.60131E+04  6.13671E+03  8.59154E+03  9.00284E+02  1.14055E+04 -1.39612E+03
  2.10063E+04  2.46592E+03  2.66981E+04  1.63569E+04  1.69377E+04  3.71344E+04 -3.85757E+03  4.17943E+04
 -2.37746E+04  3.61904E+04 -4.00331E+04  1.81140E+04 -4.36274E+04 -3.42409E+03 -3.61485E+04 -2.46628E+04
 -1.43866E+04 -3.53171E+04  1.29381E+04 -3.16278E+04  2.65333E+04 -1.51976E+04  2.29897E+04  6.46460E+03
  7.24568E+03  1.76389E+04 -9.53093E+03  1.45965E+04 -1.88422E+04  2.87640E+03 -1.61925E+04 -1.12499E+04
 -5.87017E+02 -1.75398E+04  9.48486E+03 -1.32166E+04  1.19815E+04 -1.06810E+03  2.69923E+03  8.03782E+03
 -8.56119E+03  4.21492E+03 -8.57092E+03 -5.96932E+03  6.46562E+02 -1.90302E+04  1.22583E+04 -1.99819E+04
  2.27215E+04 -1.12857E+04  2.45426E+04  3.71994E+03  2.07386E+04  1.71109E+04  1.06470E+04  2.75293E+04
 -4.32035E+03  3.00483E+04 -1.88529E+04  1.82301E+04 -2.20058E+04  3.46120E+03 -1.51870E+04 -5.67252E+03
 -6.60185E+03 -5.58381E+03  6.04838E+02  9.60924E+02 -2.93795E+03  3.69344E+03 -8.46876E+03  5.80499E+03
 -1.35728E+04 -1.68102E+03 -1.35865E+04 -1.14920E+04 -4.93506E+03 -1.93529E+04  4.97442E+03 -1.49882E+04
  1.21155E+04 -6.59289E+03  6.04365E+03  4.22228E+03 -1.92215E+03  6.48359E+03 -6.80864E+03 -7.60596E+02
 -6.60129E+03 -9.57101E+03 -1.48371E+03 -1.50917E+04  8.42771E+03 -1.60442E+04  1.93201E+04 -7.96664E+03
  2.21242E+04  1.53091E+03  1.71065E+04  1.35838E+04  2.36689E+03  1.90608E+04 -8.43558E+03  1.51371E+04
 -1.26764E+04  5.04825E+03 -8.10205E+03 -1.74338E+03  2.13220E+03 -4.23373E+03  8.67217E+03  5.15938E+02
  8.70762E+03  6.99804E+03  1.21876E+03  1.16935E+04 -9.96931E+03  1.22571E+04 -1.45994E+04  3.34967E+03
 -9.19111E+03 -8.22301E+03  1.03948E+03 -1.22543E+04  7.71379E+03 -7.63009E+03  8.45502E+03  4.29978E+03
  2.73030E+03  8.23487E+03 -8.01199E+03  1.10694E+04 -1.31186E+04  5.80566E+03 -1.35153E+04 -4.38720E+03
 -6.76627E+03 -1.49069E+04  5.26926E+03 -1.71105E+04  1.63541E+04 -1.05418E+04  1.41894E+04  1.64099E+03
  8.86636E+03  1.25687E+04 -5.87442E+02  1.48430E+04 -1.19415E+04  8.86648E+03 -1.25091E+04  3.62679E+02
 -9.00713E+03 -8.92161E+03 -1.09713E+03 -1.11506E+04  7.30261E+03 -9.23989E+03  7.10289E+03 -4.83699E+03
  3.57564E+03  2.04442E+03 -1.78301E+03  1.21406E+03  9.88559E+02 -3.04346E+03  2.98976E+03 -6.51204E+03
  1.09890E+04 -4.82436E+03  1.63045E+04  5.69382E+02  1.39639E+04  9.49487E+03  9.33136E+03  1.98926E+04
 -6.01874E+03  2.16046E+04 -2.00373E+04  1.76401E+04 -2.35912E+04  2.73456E+03 -1.88372E+04 -8.89875E+03
 -9.36154E+03 -1.62672E+04 -1.42513E+03 -1.25867E+04  4.27438E+03 -8.70771E+03  4.90044E+03 -5.77763E+03
  4.00365E+03 -1.57721E+03  5.48165E+03 -4.29157E+03  4.45586E+03 -3.52907E+03  6.93599E+03 -1.31670E+03
  1.09329E+04  1.09491E+03  5.64004E+03  9.17401E+03 -1.93429E+03  1.14783E+04 -1.04404E+04  7.14905E+03
 -1.48631E+04 -2.47826E+03 -8.92525E+03 -8.83475E+03 -1.72094E+03 -1.47690E+04  6.88231E+03 -1.48990E+04
  1.65926E+04 -7.49924E+03  1.87349E+04  2.15938E+03  1.36713E+04  1.39603E+04  1.70436E+03  1.65346E+04
 -7.18745E+03  1.48661E+04 -1.06605E+04  5.50309E+03 -6.48616E+03 -3.20711E+03 -3.27916E+03 -3.21087E+03
 -2.64376E+03  5.25633E+02 -4.23741E+03  3.18412E+03 -5.31259E+03  2.32711E+03 -9.93812E+03 -3.43190E+03
 -6.51096E+03 -9.68193E+03 -3.28388E+02 -1.48579E+04  9.97615E+03 -1.35088E+04  1.56612E+04 -4.17572E+03
  1.49145E+04  6.32876E+03  6.99193E+03  1.29568E+04 -1.50680E+03  1.35818E+04 -9.92925E+03  9.35868E+03
 -1.37010E+04  1.35155E+02 -1.00253E+04 -8.74474E+03 -3.65492E+02 -1.06151E+04  6.12802E+03 -8.27431E+03
  8.71982E+03 -1.72803E+03  5.88792E+03  3.73840E+03  7.60590E+02  4.27253E+03  3.55196E+02  2.83657E+03
  3.72267E+03  1.64567E+03  5.00614E+03  2.47196E+03  3.63006E+03  6.17971E+03  3.99010E+03  7.83881E+03
 -1.18768E+03  1.36571E+04 -1.08608E+04  1.19773E+04 -1.35588E+04  3.82112E+03 -1.47391E+04 -6.43266E+03
 -8.61375E+03 -1.40557E+04  2.90217E+03 -1.68821E+04  9.94605E+03 -9.66255E+03  1.16002E+04 -2.49684E+03
  8.99456E+03  5.23601E+03  2.49575E+03  6.60327E+03 -4.24483E+03  6.14580E+03 -5.76182E+03 -1.32543E+03
 -1.74525E+03 -8.03553E+03  4.31947E+03 -5.56748E+03  5.95014E+03 -3.58349E+03  4.93252E+03  1.90438E+03
  4.26690E+03  1.38560E+03  3.21790E+03  7.92484E+02 -2.39171E+03  1.31341E+03  1.31375E+03 -9.62418E+02
  1.31390E+03 -8.09501E+02  4.83880E+03  3.40004E+03  2.29518E+03  7.62919E+03 -2.24797E+03  1.11643E+04
 -6.83373E+03  7.16685E+03 -8.83098E+03  9.54082E+02 -7.06644E+03 -2.11236E+03 -3.03684E+03 -6.72664E+03
  9.46352E+02 -4.63459E+03  3.87359E+03 -1.66170E+03  2.02585E+03  3.36255E+03 -3.24749E+03  3.98474E+03
 -6.46698E+03  2.59659E+03 -8.05608E+03 -4.40160E+03 -2.24900E+03 -7.27719E+03  1.36925E+03 -8.36924E+03
  4.97181E+03 -3.33825E+03  7.30036E+03 -7.58922E+02  6.04092E+03  1.70933E+03  1.33981E+03  2.70729E+03
 -2.03963E+03  3.89145E+03 -3.89992E+03 -2.96897E+03  2.29568E+03 -4.39546E+03  7.20109E+03 -5.26414E+03
  8.16865E+03  1.58661E+03  8.34546E+03  6.00576E+03  4.82173E+03  9.22473E+03 -3.72815E+03  1.01162E+04
 -7.53593E+03  4.93077E+03 -7.00850E+03 -1.40044E+03 -4.49445E+03 -5.22368E+03  1.54385E+03 -7.39581E+03
  5.44809E+03 -2.63189E+03  4.65663E+03  1.62370E+03  2.40780E+03  6.14195E+03 -7.47683E+02  3.62415E+03
 -2.66275E+03  2.54431E+03 -4.06001E+03  2.19193E+03 -9.37814E+02  1.92217E+03 -1.44969E+03  1.99888E+03
 -7.66116E+02  3.28753E+03 -6.46552E+03  4.01616E+03 -9.57400E+03  5.33027E+02 -1.01413E+04 -5.94847E+03
 -5.25782E+03 -1.10631E+04  3.48636E+03 -1.34891E+04  9.22154E+03 -1.12991E+04  1.30521E+04 -4.28191E+03
  1.22854E+04  1.23535E+03  7.36094E+03  9.16096E+03  2.24908E+02  9.06283E+03 -4.41289E+03  8.02089E+03
 -4.93599E+03  2.03603E+03 -4.17290E+03 -1.04924E+03 -1.49192E+03 -1.35557E+03 -4.98979E+02  1.14407E+03
 -3.74757E+03  2.02921E+02 -3.11056E+03  5.86288E+02  1.63743E+02 -1.35488E+03 -4.38453E+02 -3.28349E+03
  4.55672E+03 -4.40213E+03  5.18511E+03 -1.98719E+03  6.80559E+03  5.70716E+03  2.44672E+03  8.48710E+03
 -5.32263E+03  1.18651E+04 -1.26436E+04  7.19451E+03 -1.25459E+04 -4.63595E+02 -9.94757E+03 -6.49177E+03
 -3.56115E+03 -9.85174E+03  2.89995E+03 -1.12617E+04  7.40147E+03 -3.91422E+03  6.10004E+03 -1.59229E+03
  3.07249E+03  3.81932E+03 -3.90331E+02  2.88017E+03 -2.24080E+03  1.12591E+03  4.63496E+02 -2.22097E+03
  4.10828E+03 -3.29779E+03  4.45756E+03  7.10812E+02  2.58144E+03  3.89736E+03 -8.34761E+02  6.02186E+03
 -3.86568E+03  5.73837E+03 -6.52721E+03 -1.97278E+03 -5.03127E+03 -4.32206E+03 -8.65045E+02 -6.80521E+03
  4.11684E+03 -6.69199E+03  7.55311E+03 -1.88076E+03  7.36206E+03  1.91881E+03  4.99943E+03  6.26098E+03
  8.68270E+02  4.53059E+03 -1.00462E+03  5.97651E+03 -4.12186E+03  3.27870E+03 -3.01731E+03 -2.78759E+02
 -1.96098E+03 -1.35000E+03 -1.83733E+03  2.47378E+03 -3.90354E+03  1.91123E+03 -5.55254E+03 -1.84248E+03
 -4.70510E+03 -1.69718E+03 -6.99841E+02 -5.63586E+03  3.94766E+03 -8.04263E+03  6.19067E+03 -2.74880E+03
  6.99073E+03 -8.70360E+01  4.26034E+03  4.26457E+03 -1.17006E+03  6.45585E+03 -4.94834E+03  4.42106E+03
