 $NMID ID='MM_0lb_SNR200_16hz_g50_37.RAW', FMTDAT='(8E13.5)'
 TRAMP=1., VOLUME=1. $END
  3.09884E+05  2.27959E+02  3.37331E+05  2.50855E+05  8.39668E+04  3.38498E+05 -1.32872E+05  2.51206E+05
 -1.89821E+05  8.33222E+04 -1.10801E+05 -3.09713E+04  1.17400E+03 -5.01339E+04  5.34161E+04  5.42374E+02
  3.47348E+04  5.22536E+04 -1.64409E+04  7.65343E+04 -6.03895E+04  6.29485E+04 -8.32178E+04  3.15475E+04
 -8.06263E+04 -1.10504E+04 -5.70637E+04 -5.10579E+04 -1.43527E+04 -6.96387E+04  2.67039E+04 -4.52622E+04
  3.93490E+04  4.21756E+03  1.52463E+04  4.67189E+04 -3.45635E+04  4.64105E+04 -6.62814E+04 -6.94262E+01
 -5.35639E+04 -5.76730E+04 -6.89958E+03 -7.57893E+04  3.34337E+04 -5.46466E+04  4.71997E+04 -1.71909E+04
  4.30440E+04  1.17319E+04  3.19388E+04  2.49949E+04  1.62744E+04  2.89838E+04 -4.99732E+03  2.72384E+04
 -2.22433E+04  1.28561E+04 -1.94870E+04 -5.01747E+03  5.23275E+03 -7.01289E+03  2.27383E+04  1.18565E+04
  7.39632E+03  3.50539E+04 -3.16120E+04  3.50629E+04 -6.27839E+04  1.94073E+03 -5.61178E+04 -4.06663E+04
 -1.34668E+04 -6.24412E+04  3.85344E+04 -4.45624E+04  5.92024E+04 -2.22652E+03  3.27155E+04  3.13187E+04
 -6.29968E+03  3.54376E+04 -2.93450E+04  1.45353E+04 -2.89776E+04 -5.03040E+03 -1.49390E+04 -1.02200E+04
 -8.15347E+03 -1.19517E+04 -2.07554E+03 -1.83051E+04  7.54201E+03 -2.24280E+04  1.45282E+04 -1.36794E+04
  1.09374E+04  4.95991E+03 -8.30744E+03  1.16565E+04 -2.01920E+04 -3.88802E+03 -7.19054E+03 -3.31222E+04
  2.09349E+04 -4.25535E+04  4.73073E+04 -1.88635E+04  4.38306E+04  1.90363E+04  1.45003E+04  4.31561E+04
 -1.53699E+04  3.30040E+04 -2.36097E+04  1.55839E+02 -8.73243E+03 -2.78363E+04  2.07093E+04 -3.32855E+04
  3.99020E+04 -9.59624E+03  3.35620E+04  2.33615E+04  1.68032E+04  4.55944E+04 -6.64454E+03  4.83041E+04
 -2.99973E+04  3.14521E+04 -4.09478E+04  9.51231E+03 -4.13529E+04 -1.69418E+04 -2.16868E+04 -3.68732E+04
  6.76568E+03 -3.59617E+04  3.11627E+04 -1.53676E+04  2.78077E+04  1.04616E+04  3.70038E+03  1.96448E+04
 -1.41193E+04  7.90077E+03 -1.13349E+04 -8.34515E+03  6.32231E+03 -1.04742E+04  1.78291E+04  6.55473E+03
  1.27131E+04  2.20875E+04 -5.80568E+03  2.49507E+04 -2.20304E+04  1.05486E+04 -2.73613E+04 -5.04521E+03
 -1.88120E+04 -1.67944E+04 -7.69341E+03 -1.97986E+04  2.62053E+03 -1.75544E+04  1.55132E+04 -1.60527E+04
  2.44469E+04 -1.26602E+04  3.11153E+04  1.74373E+03  2.21237E+04  1.79600E+04  4.48581E+03  3.36723E+04
 -1.70853E+04  2.95660E+04 -2.69108E+04  1.11544E+04 -1.99867E+04 -9.91082E+03 -3.75622E+03 -1.26015E+04
  3.76872E+03 -3.06962E+03 -3.55899E+03  6.10429E+03 -1.45266E+04  6.88798E+03 -1.58947E+04 -7.07802E+03
 -8.79854E+03 -1.68583E+04  4.74510E+03 -2.06778E+04  1.33505E+04 -1.50404E+04  1.61743E+04 -2.74272E+03
  1.01379E+04  1.20156E+04 -6.83337E+02  1.72813E+04 -1.32113E+04  9.80636E+03 -1.78786E+04 -3.55687E+03
 -1.28209E+04 -1.70200E+04 -1.73108E+03 -2.24926E+04  9.53621E+03 -1.81755E+04  1.70977E+04 -9.40607E+03
  1.64920E+04  3.05394E+02  1.12779E+04  3.80086E+03  5.94226E+03 -6.31044E+02  9.57307E+03 -1.18231E+03
  1.68105E+04  3.76658E+03  1.69131E+04  1.45815E+04  1.21056E+04  2.70117E+04 -2.77252E+03  3.11502E+04
 -1.83261E+04  2.44035E+04 -2.73974E+04  1.27901E+04 -2.96985E+04 -1.23446E+03 -2.46570E+04 -1.69070E+04
 -1.13519E+04 -2.32249E+04  8.75620E+03 -2.33514E+04  1.83729E+04 -1.11848E+04  1.74237E+04  5.06818E+03
  8.08261E+03  1.35055E+04 -7.57188E+03  1.20964E+04 -1.50011E+04  1.76409E+03 -1.07154E+04 -8.68757E+03
  5.33415E+02 -1.36910E+04  7.13827E+03 -1.13740E+04  9.67199E+03 -7.38200E+02  5.11172E+02  5.91399E+03
 -7.13008E+03  2.45416E+03 -4.42081E+03 -4.92692E+03  1.22836E+03 -1.07740E+04  8.38034E+03 -1.17008E+04
  1.40177E+04 -6.40263E+03  1.39470E+04  2.99553E+03  1.38055E+04  1.14933E+04  7.13884E+03  1.67817E+04
 -2.74154E+03  1.96074E+04 -1.29150E+04  1.27171E+04 -1.34782E+04  3.57865E+03 -9.61251E+03 -2.80106E+03
 -4.59798E+03 -4.56786E+03 -1.31909E+03  1.20617E+03 -2.41801E+03  2.62178E+03 -4.21334E+03  5.22033E+03
 -9.12550E+03 -1.90977E+02 -1.05051E+04 -8.24761E+03 -4.37901E+03 -1.31705E+04  4.12567E+03 -1.11410E+04
  7.91334E+03 -4.29800E+03  6.02047E+03  1.81700E+03  4.48188E+02  4.44193E+03 -4.36569E+03 -1.73808E+01
 -4.16707E+03 -5.63460E+03 -1.53453E+03 -8.92910E+03  4.62749E+03 -1.04342E+04  1.32642E+04 -5.17398E+03
  1.49178E+04  8.61623E+02  9.58145E+03  7.21660E+03  1.66830E+03  1.05751E+04 -6.48409E+03  9.26687E+03
 -6.80725E+03  3.84035E+03 -5.30849E+03 -2.71302E+03  9.89320E+02 -2.03199E+03  6.36714E+03 -1.06422E+03
  4.92517E+03  3.80799E+03  1.18201E+03  7.12727E+03 -4.51721E+03  6.40203E+03 -9.50206E+03  2.98185E+03
 -5.63609E+03 -4.73626E+03  3.02957E+02 -9.03191E+03  4.72990E+03 -3.60589E+03  5.50071E+03  8.48213E+02
  6.60673E+02  4.23164E+03 -5.01696E+03  5.73551E+03 -7.06147E+03  2.71614E+03 -6.18034E+03 -9.25150E+02
 -4.83075E+03 -7.95014E+03  1.32703E+03 -7.50434E+03  7.88471E+03 -6.26608E+03  9.23549E+03  1.27638E+03
  6.08659E+03  6.84341E+03  1.31087E+03  9.33004E+03 -6.19290E+03  4.51813E+03 -8.39212E+03 -4.77434E+02
 -6.41626E+03 -6.99739E+03 -2.52028E+03 -7.28108E+03  3.82122E+03 -6.28263E+03  4.87892E+03 -1.59081E+03
  3.65178E+03  4.28893E+02 -7.99116E+01  1.56692E+03 -7.00612E+02  4.34593E+02 -2.38084E+02 -9.77754E+02
  5.88671E+03 -2.83100E+03  7.13231E+03  1.55413E+03  6.97707E+03  3.88031E+03  5.85397E+03  9.99301E+03
 -1.83669E+03  1.08617E+04 -9.69165E+03  1.02291E+04 -1.32676E+04  1.52453E+03 -9.95342E+03 -4.55730E+03
 -5.85217E+03 -8.92705E+03 -1.23098E+03 -6.67026E+03  2.21768E+03 -2.91133E+03  2.29695E+03 -1.99023E+03
  1.67538E+03 -1.91513E+03  2.61372E+03 -3.52439E+03  3.81102E+03 -1.18131E+03  4.62602E+03  3.64848E+02
  5.84655E+03  7.54783E+02  1.72530E+03  3.70208E+03 -7.43547E+02  4.51702E+03 -5.81713E+03  4.24813E+03
 -6.84724E+03 -1.89699E+03 -3.83551E+03 -3.78319E+03  1.52032E+02 -7.38419E+03  3.05892E+03 -7.77229E+03
  6.19057E+03 -3.83795E+03  9.57806E+03  4.68874E+02  6.95262E+03  5.44418E+03  8.70297E+02  9.08260E+03
 -2.80790E+03  7.55684E+03 -4.02602E+03  2.04886E+03 -2.23369E+03 -1.63921E+03 -4.95713E+02 -4.71146E+02
 -1.00621E+03  6.06153E+02 -1.05396E+03  2.56320E+03 -3.08524E+03  1.45587E+03 -4.78381E+03 -2.89438E+02
 -2.53097E+03 -5.95278E+03 -4.77972E+02 -6.59406E+03  3.71349E+03 -5.90925E+03  5.88479E+03 -2.05236E+03
  5.72073E+03  3.98688E+03  2.00988E+03  5.03527E+03 -9.27279E+02  5.83807E+03 -4.18168E+03  3.15667E+03
 -5.33350E+03  3.70837E+02 -6.08475E+03 -3.53251E+03 -1.48551E+02 -4.83819E+03  1.23677E+03 -2.80744E+03
  4.40267E+03 -2.49628E+03  2.70160E+03  1.50394E+03  1.08497E+03  1.86523E+03  8.35593E+02  8.42777E+02
  1.78023E+03  1.59073E+03  1.04601E+03  2.15597E+03  1.25799E+03  2.46724E+03  1.17700E+03  2.76164E+03
 -2.09941E+03  4.43816E+03 -3.90359E+03  5.99174E+03 -5.73692E+03  1.86157E+03 -6.69869E+03 -1.35397E+03
 -2.78432E+03 -4.00080E+03  8.09979E+02 -7.76479E+03  2.95726E+03 -3.99761E+03  4.87097E+03 -1.40378E+03
  3.71387E+03  2.35389E+03  8.73551E+02  2.89485E+03 -4.71268E+02  2.14604E+03 -2.18535E+03 -1.12141E+01
 -9.52628E+02 -1.45708E+03  1.12298E+03 -2.69740E+03  2.61593E+03 -1.61414E+01  2.16810E+03 -5.44465E+01
  1.57346E+03  6.05219E+02  1.04170E+03  1.14327E+02 -4.67079E+02 -2.45536E+02  2.25726E+03 -6.66250E+02
  8.41489E+02 -1.35950E+02  2.70203E+03  3.63709E+02 -1.91393E+02  2.41928E+03 -1.51476E+02  4.81156E+03
 -2.27472E+03  2.31119E+03 -2.64783E+03  7.88886E+02 -2.09727E+03 -9.19168E+02 -7.91313E+02 -2.36131E+03
  2.31855E+02 -1.54184E+03  1.27320E+03 -1.42470E+03 -3.28164E+01  1.67709E+03 -9.53288E+02  1.80568E+03
 -2.20979E+03  9.44105E+02 -1.70054E+03 -1.55529E+03 -1.56654E+03 -3.65056E+03  1.00160E+03 -2.31123E+03
  1.36125E+03 -1.23880E+03  5.58574E+02  8.63835E+02  1.98106E+03  7.53424E+02  8.59041E+02  1.75317E+03
 -2.50141E+02 -1.52679E+03 -2.57921E+02 -4.48705E+02 -3.24396E+01 -5.47485E+02  2.58841E+03 -6.96530E+02
  3.07386E+03  8.36863E+02  3.16391E+03  1.01813E+03  2.48548E+03  3.94721E+03 -1.14141E+03  2.94701E+03
 -9.88067E+02  9.51024E+02 -1.79711E+03 -9.00125E+02 -6.76302E+02 -1.26281E+03  7.61775E+02 -1.87550E+03
  2.26071E+03 -1.74436E+03  1.85077E+03  2.33715E+02 -5.37408E+02  2.74217E+03  3.52738E+02  1.27501E+03
  2.20422E+02  9.64844E+02 -1.89269E+03 -3.82581E+02  2.05374E+00  9.13112E+02 -8.52413E+02  1.38303E+03
 -9.87112E+02  1.40692E+03 -2.24615E+03 -8.72032E+02 -2.61197E+03  5.99147E+02 -4.19404E+03 -1.92534E+03
 -1.02389E+03 -4.17964E+03  2.02570E+03 -5.20486E+03  2.12758E+03 -4.18251E+03  4.42377E+03 -2.40328E+03
  4.51221E+03  9.09362E+02  5.78747E+02  1.67858E+03 -1.49929E+02  2.82625E+03 -9.83951E+02  3.15333E+03
 -1.53766E+03  9.64484E+02 -1.79458E+03 -5.38140E+02 -9.75521E+01 -1.42032E+03 -1.76055E+03 -1.17816E+03
 -1.53025E+03  1.28554E+03 -4.26844E+02  6.96290E+02  6.45848E+02 -3.38231E+02  3.41859E+02 -1.43731E+03
  1.36749E+03 -6.39993E+02  8.50199E+02  8.06448E+00  1.63228E+03  2.11799E+03 -4.67781E+02  3.22137E+03
 -2.37707E+03  3.13340E+03 -2.99383E+03  2.01392E+03 -2.33937E+03  5.58481E+02 -1.65647E+03 -1.54134E+03
 -1.21817E+03 -2.82725E+03  3.97117E+02 -1.34686E+03  1.46330E+03 -1.33032E+03  8.90614E+02 -1.06981E+03
  2.60037E+03  7.10054E+02  5.53609E+02  7.10946E+02 -1.67354E+03  1.39257E+02  1.58850E+02 -1.47825E+03
  9.58889E+02  1.20057E+02  5.51726E+02  1.17107E+03  4.60635E+02  7.47589E+02  3.37660E+02  1.56355E+03
 -1.48211E+03  8.09148E+02 -1.55951E+03 -4.66670E+02 -1.82768E+03 -9.50495E+02 -1.02095E+02 -2.45233E+03
  1.33600E+03 -1.58502E+03  9.87771E+02 -2.19980E+02  2.57577E+03  2.57038E+02  1.73124E+03  9.21507E+02
  8.59295E+02  2.24154E+02  1.91192E+02  1.70562E+03 -1.93532E+03  1.23878E+03 -1.31586E+03 -7.38236E+02
 -5.15954E+02 -3.90862E+02  1.89186E+02  2.46738E+02 -1.16187E+03 -5.08063E+02 -2.01986E+03  5.02477E+01
 -5.97733E+02  5.10338E+02 -1.14721E+02 -9.60213E+02  1.09187E+03 -3.00922E+03  1.04749E+03 -1.30120E+02
  1.58330E+03  1.10628E+03  2.39406E+02  4.43169E+02  1.80332E+03  8.59038E+02 -7.66690E+02  9.90316E+02
