 $NMID ID='MM_0lb_SNR200_11hz_g60_1.RAW', FMTDAT='(8E13.5)'
 TRAMP=1., VOLUME=1. $END
  3.09715E+05  7.03658E+02  3.37004E+05  2.50779E+05  8.49895E+04  3.38961E+05 -1.31412E+05  2.52408E+05
 -1.90796E+05  8.22453E+04 -1.11799E+05 -3.24884E+04  9.08264E+02 -4.96011E+04  5.34844E+04 -8.56684E+02
  3.51994E+04  5.28624E+04 -1.62701E+04  7.47129E+04 -6.03511E+04  6.46163E+04 -8.39890E+04  3.23233E+04
 -8.21572E+04 -1.11174E+04 -5.71571E+04 -5.19867E+04 -1.46281E+04 -7.12830E+04  2.76524E+04 -4.65175E+04
  4.03014E+04  5.29687E+03  1.67749E+04  4.82244E+04 -3.41220E+04  4.70327E+04 -6.72454E+04  1.17519E+03
 -5.50702E+04 -5.66453E+04 -5.47444E+03 -7.72381E+04  3.40353E+04 -5.68523E+04  4.90257E+04 -1.86295E+04
  4.50650E+04  1.21780E+04  3.33470E+04  2.59698E+04  1.49964E+04  2.97569E+04 -3.89779E+03  2.68431E+04
 -2.22074E+04  1.07978E+04 -1.80555E+04 -5.30885E+03  7.79437E+03 -7.11434E+03  2.21293E+04  1.25624E+04
  6.75245E+03  3.77476E+04 -3.15916E+04  3.62911E+04 -6.63134E+04  2.05706E+03 -5.81858E+04 -4.35842E+04
 -1.26756E+04 -6.60095E+04  4.18822E+04 -4.65265E+04  6.14849E+04 -3.27977E+03  3.48685E+04  3.27647E+04
 -5.30096E+03  3.89324E+04 -3.07555E+04  1.87128E+04 -3.35912E+04 -3.81906E+03 -1.80237E+04 -1.23506E+04
 -9.59710E+03 -1.43835E+04 -1.07360E+03 -1.99031E+04  9.79130E+03 -2.29133E+04  1.59924E+04 -1.33951E+04
  1.10959E+04  6.50230E+03 -9.99971E+03  1.20802E+04 -2.28372E+04 -5.67195E+03 -8.56370E+03 -3.65918E+04
  2.57979E+04 -4.64202E+04  5.11127E+04 -2.13859E+04  4.80685E+04  2.12673E+04  1.79020E+04  4.69919E+04
 -1.47033E+04  3.54553E+04 -2.64607E+04  2.51809E+03 -1.10934E+04 -2.90625E+04  2.20686E+04 -3.68713E+04
  4.40826E+04 -1.03829E+04  3.99465E+04  2.40020E+04  1.99693E+04  5.02134E+04 -8.48951E+03  5.53278E+04
 -3.56036E+04  3.72642E+04 -4.68081E+04  1.04021E+04 -4.67085E+04 -1.88731E+04 -2.48804E+04 -4.22316E+04
  8.26605E+03 -4.05122E+04  3.38406E+04 -1.88704E+04  3.11051E+04  1.19622E+04  6.65415E+03  1.95929E+04
 -1.29949E+04  1.17384E+04 -1.19628E+04 -8.69367E+03  5.49646E+03 -1.08595E+04  1.95173E+04  5.38974E+03
  1.50947E+04  2.20157E+04 -4.25698E+03  2.69927E+04 -2.15433E+04  1.47997E+04 -3.17830E+04 -2.44503E+03
 -2.52763E+04 -1.91024E+04 -1.06136E+04 -2.36765E+04  3.43478E+03 -2.56405E+04  2.03676E+04 -2.20787E+04
  3.17052E+04 -1.54186E+04  3.71942E+04  3.96829E+03  2.74213E+04  2.35021E+04  3.62978E+03  4.17252E+04
 -1.81116E+04  3.41251E+04 -3.00164E+04  1.17258E+04 -2.26181E+04 -1.05938E+04 -4.02246E+03 -1.26994E+04
  1.95846E+03 -1.63415E+03 -6.24605E+03  6.89457E+03 -2.15382E+04  4.34775E+03 -2.12853E+04 -7.81558E+03
 -1.21283E+04 -2.09353E+04  7.44990E+03 -2.72528E+04  1.80625E+04 -1.93892E+04  2.11017E+04 -2.23799E+03
  1.45037E+04  1.40550E+04 -8.72439E+02  2.24732E+04 -1.65625E+04  1.33523E+04 -2.17529E+04 -4.68352E+03
 -1.61117E+04 -1.99765E+04 -2.52417E+03 -2.66956E+04  1.34124E+04 -2.07131E+04  2.34977E+04 -1.03686E+04
  2.25898E+04  9.68155E+02  1.54209E+04  5.74394E+03  8.56430E+03  1.18544E+03  1.13435E+04 -2.35326E+03
  2.01498E+04  2.52281E+03  2.41064E+04  1.86608E+04  1.53700E+04  3.64619E+04 -2.55466E+03  4.27286E+04
 -2.37315E+04  3.56037E+04 -4.15889E+04  1.77519E+04 -4.06509E+04 -3.31447E+03 -3.27188E+04 -2.42676E+04
 -1.38515E+04 -3.34757E+04  1.22772E+04 -3.30373E+04  2.67137E+04 -1.62500E+04  2.42965E+04  6.60031E+03
  8.58534E+03  1.79145E+04 -1.02858E+04  1.63392E+04 -1.96407E+04  3.33947E+03 -1.60084E+04 -1.05810E+04
 -2.88042E+02 -1.82528E+04  8.96064E+03 -1.18165E+04  1.18330E+04 -1.06277E+03  4.25818E+03  8.76467E+03
 -7.50546E+03  5.41592E+03 -7.77593E+03 -6.30692E+03 -2.27595E+03 -1.61409E+04  1.07283E+04 -1.98708E+04
  2.19841E+04 -9.53087E+03  2.34788E+04  3.67243E+03  2.15172E+04  1.72158E+04  8.89146E+03  2.82928E+04
 -5.35678E+03  2.79225E+04 -1.76181E+04  1.89198E+04 -2.17638E+04  4.24440E+03 -1.41218E+04 -6.13905E+03
 -6.96764E+03 -5.83322E+03 -9.07814E+02  7.51171E+02 -2.62316E+03  3.10732E+03 -6.69857E+03  5.98344E+03
 -1.25598E+04 -8.11299E+01 -1.42366E+04 -1.09835E+04 -5.51806E+03 -1.80643E+04  5.10792E+03 -1.47558E+04
  1.20499E+04 -7.83463E+03  8.35818E+03  4.30282E+03 -6.24264E+02  6.60692E+03 -6.79982E+03 -8.01455E+02
 -7.04873E+03 -9.37003E+03  6.61478E+02 -1.39752E+04  7.89215E+03 -1.46907E+04  1.74417E+04 -1.02652E+04
  2.23598E+04  2.13323E+03  1.67168E+04  1.22487E+04  2.89346E+03  1.57688E+04 -8.67057E+03  1.46026E+04
 -1.23206E+04  3.82132E+03 -7.92971E+03 -3.42534E+03  1.95839E+03 -2.48606E+03  6.83407E+03 -1.70286E+03
  6.81304E+03  6.99473E+03  2.39780E+03  1.11316E+04 -8.65026E+03  1.02767E+04 -1.45123E+04  3.34037E+03
 -1.06423E+04 -7.32106E+03 -1.30510E+02 -1.28274E+04  7.64081E+03 -5.83659E+03  8.27528E+03  5.00187E+03
  2.78473E+03  8.48467E+03 -8.32564E+03  1.14946E+04 -1.16562E+04  4.20063E+03 -1.24500E+04 -5.08736E+03
 -7.46780E+03 -1.38483E+04  3.33687E+03 -1.58345E+04  1.41270E+04 -1.02113E+04  1.58437E+04  2.33244E+03
  9.42148E+03  1.18596E+04 -1.26226E+03  1.54795E+04 -1.04383E+04  7.42940E+03 -1.13618E+04 -1.02093E+03
 -9.73784E+03 -9.82523E+03 -1.34082E+03 -9.68119E+03  5.58906E+03 -8.73247E+03  6.62521E+03 -3.25486E+03
  5.01916E+03  9.08467E+02 -2.03687E+03  2.35274E+03 -3.40272E+02 -2.49795E+03  3.04288E+03 -6.61373E+03
  1.01041E+04 -4.12003E+03  1.33348E+04  1.75146E+03  1.31963E+04  8.91080E+03  9.30597E+03  1.95175E+04
 -3.76361E+03  2.24127E+04 -1.72041E+04  1.67888E+04 -2.36817E+04  4.04369E+03 -1.84829E+04 -7.74069E+03
 -9.22071E+03 -1.58534E+04 -6.32716E+02 -1.16295E+04  3.52902E+03 -7.85511E+03  4.60547E+03 -4.05603E+03
  4.43641E+03 -2.42097E+03  4.07340E+03 -4.19862E+03  4.89680E+03 -2.03698E+03  7.63472E+03 -6.84781E+02
  8.55822E+03  8.30153E+02  4.37674E+03  8.38103E+03 -2.70410E+03  1.01811E+04 -1.12860E+04  7.99760E+03
 -1.39931E+04 -3.70982E+02 -7.49188E+03 -8.14581E+03 -8.93666E+02 -1.45793E+04  8.02992E+03 -1.40519E+04
  1.41125E+04 -6.84350E+03  1.71530E+04  2.81087E+03  1.18265E+04  1.25991E+04  1.26110E+03  1.71898E+04
 -6.75432E+03  1.35176E+04 -8.95667E+03  5.29004E+03 -6.45844E+03 -5.08988E+02 -2.17147E+03 -1.15449E+03
 -1.15049E+03 -5.46833E+02 -3.83601E+03  2.50445E+03 -5.73135E+03  1.79642E+03 -9.56256E+03 -9.57642E+02
 -6.02165E+03 -9.22228E+03  1.61070E+03 -1.30532E+04  7.82576E+03 -1.22118E+04  1.29267E+04 -2.11943E+03
  1.22362E+04  6.89986E+03  4.88334E+03  1.14116E+04 -5.18325E+03  1.28994E+04 -8.71093E+03  8.76956E+03
 -1.19264E+04  5.03969E+02 -9.86889E+03 -6.83727E+03 -1.92738E+03 -9.00484E+03  6.18519E+03 -8.36661E+03
  9.53161E+03 -2.45356E+03  6.21787E+03  2.14811E+03  5.62998E+02  2.92349E+03  2.23514E+03  5.09095E+02
  3.43175E+03  1.47398E+03  2.66643E+03  2.30739E+03  4.76542E+03  3.88399E+03  2.44538E+03  6.87572E+03
 -2.40043E+03  1.06305E+04 -8.29450E+03  1.16199E+04 -1.35426E+04  1.70440E+03 -1.36572E+04 -4.17230E+03
 -6.18940E+03 -1.24921E+04  1.57817E+03 -1.41573E+04  6.67852E+03 -8.87112E+03  1.07838E+04 -2.33276E+03
  8.11395E+03  4.23048E+03  2.29419E+03  6.57146E+03 -3.54058E+03  5.06938E+03 -5.73219E+03 -5.51778E+02
 -3.11934E+03 -6.30327E+03  2.97180E+03 -5.89975E+03  6.16705E+03 -1.63951E+03  5.91908E+03  8.26423E+01
  2.78838E+03  3.55412E+03  1.88722E+03  2.10085E+03  2.74833E+02  1.67081E+03  2.62683E+03 -1.72478E+03
  2.03302E+03  1.02465E+03  5.83603E+03  3.30730E+03  1.99310E+03  6.76786E+03 -1.92468E+03  9.00211E+03
 -7.48049E+03  5.19116E+03 -7.36256E+03  2.97838E+02 -6.60125E+03 -2.11304E+03 -1.16598E+03 -3.91757E+03
  1.23251E+02 -3.97654E+03  2.92895E+03 -2.05095E+03  3.58682E+03  2.73966E+03 -1.11360E+03  3.07022E+03
 -6.75222E+03  1.49505E+03 -5.86613E+03 -4.56279E+03 -2.59980E+03 -7.15917E+03  1.20567E+03 -4.94502E+03
  5.13690E+03 -3.92739E+03  4.80204E+03 -6.53820E+02  3.05369E+03  1.50556E+03 -3.07522E+02  3.78781E+03
 -1.79299E+03  7.24932E+02 -2.29383E+03 -2.55840E+03  7.82501E+02 -5.36123E+03  6.31493E+03 -5.45000E+03
  7.63147E+03  2.88881E+01  6.83309E+03  4.31792E+03  1.81899E+03  8.85881E+03 -3.37691E+03  8.46658E+03
 -5.12745E+03  2.29097E+03 -5.79597E+03 -8.08834E+02 -4.32572E+03 -5.57228E+03  1.55965E+03 -4.48852E+03
  5.22413E+03 -3.23636E+03  4.47247E+03  2.50155E+03  4.96137E+02  5.30158E+03 -7.67719E+02  4.41983E+03
 -1.65226E+03  1.77349E+03 -1.84123E+03 -2.25824E+02 -1.02098E+03  1.98197E+03 -1.15524E+03  6.76788E+02
 -2.83697E+03  3.55262E+03 -6.48955E+03  2.26077E+03 -6.50367E+03  1.36359E+03 -8.80589E+03 -3.30933E+03
 -3.63727E+03 -1.04886E+04  1.99412E+03 -1.12145E+04  7.49640E+03 -1.04590E+04  1.05575E+04 -3.02759E+03
  1.08319E+04  2.00341E+03  5.35763E+03  7.77444E+03  2.96394E+01  7.74869E+03 -4.08215E+03  7.59066E+03
 -5.35132E+03  2.43871E+03 -3.54544E+03 -1.15213E+03 -1.83684E+03 -1.24594E+03 -7.99247E+02 -6.37963E+02
 -2.45963E+02 -1.40567E+03 -5.36362E+02 -1.02218E+03 -9.20876E+02 -2.62293E+03  4.76296E+02 -2.84048E+03
  3.36874E+03 -1.79886E+03  4.30160E+03 -8.28248E+02  5.28153E+03  3.29296E+03  1.81668E+03  6.92080E+03
 -4.29234E+03  9.93339E+03 -8.34060E+03  6.12396E+03 -9.18690E+03 -7.83833E+02 -5.87895E+03 -6.49946E+03
 -2.47670E+03 -7.02907E+03  1.72681E+03 -7.49495E+03  5.89462E+03 -4.84046E+03  4.29442E+03  1.15207E+02
  2.99543E+03  3.33271E+03  5.63822E+02  2.21649E+03 -2.61351E+03 -3.59864E+00 -5.53323E+02 -1.22782E+03
  1.62651E+03 -2.36823E+01  3.36542E+03  8.33932E+02  1.82882E+03  2.16748E+03 -1.17717E+03  4.79564E+03
 -2.45448E+03  4.36438E+03 -4.69500E+03 -3.02767E+02 -3.56070E+03 -3.64061E+03 -1.99276E+03 -5.92583E+03
  2.69605E+03 -5.27161E+03  5.91643E+03 -2.38756E+03  7.23663E+03  1.27372E+03  3.80413E+03  4.47611E+03
 -8.34225E+02  4.37327E+03 -3.56147E+03  3.81456E+03 -3.14661E+03  2.70057E+03 -3.14653E+03  5.85188E+02
 -1.86512E+03  1.28139E+01 -1.22582E+03  4.83830E+02 -2.91879E+03  1.84059E+03 -3.69604E+03 -9.07881E+02
 -3.75445E+03 -3.25307E+03 -4.32519E+02 -5.34871E+03  2.95085E+03 -6.80949E+03  4.92590E+03 -2.32685E+03
  3.79441E+03  1.65881E+03  3.06826E+03  4.12937E+03 -1.23198E+02  6.12073E+03 -3.16662E+03  3.71578E+03
