 $NMID ID='MM_0lb_SNR200_7hz_g40_57.RAW', FMTDAT='(8E13.5)'
 TRAMP=1., VOLUME=1. $END
  3.09285E+05  5.73944E+02  3.36900E+05  2.50999E+05  8.40634E+04  3.39813E+05 -1.32474E+05  2.51854E+05
 -1.90819E+05  8.22228E+04 -1.13076E+05 -3.08556E+04 -6.80874E+02 -5.06957E+04  5.46625E+04 -2.22795E+02
  3.53102E+04  5.35094E+04 -1.67445E+04  7.47235E+04 -6.24226E+04  6.29953E+04 -8.46157E+04  3.21130E+04
 -8.25144E+04 -1.41959E+04 -5.91880E+04 -5.49967E+04 -1.54676E+04 -7.17871E+04  2.82676E+04 -4.80571E+04
  4.07470E+04  3.29336E+03  1.66862E+04  4.64841E+04 -3.49409E+04  4.64378E+04 -6.87902E+04 -5.52792E+01
 -5.58958E+04 -5.75043E+04 -9.01097E+03 -7.78376E+04  3.44198E+04 -5.71535E+04  5.17527E+04 -1.89849E+04
  4.66414E+04  9.75486E+03  3.33668E+04  2.62240E+04  1.51428E+04  3.10954E+04 -5.35295E+03  2.75645E+04
 -2.42771E+04  1.17411E+04 -1.83117E+04 -6.59020E+03  8.70271E+03 -8.19066E+03  2.40597E+04  1.32823E+04
  7.57490E+03  3.62555E+04 -3.52473E+04  3.74992E+04 -6.70264E+04  2.51528E+03 -5.95557E+04 -4.51617E+04
 -1.26064E+04 -6.58939E+04  4.28707E+04 -4.75811E+04  6.31658E+04 -2.43739E+03  3.82573E+04  3.35855E+04
 -5.12116E+03  3.94351E+04 -3.03997E+04  1.94081E+04 -3.54654E+04 -3.76247E+03 -1.94321E+04 -1.31794E+04
 -1.08261E+04 -1.71576E+04  1.19514E+03 -2.07958E+04  8.78086E+03 -2.29918E+04  1.44522E+04 -1.22253E+04
  1.08717E+04  8.08398E+03 -1.16573E+04  1.44131E+04 -2.44274E+04 -6.92237E+03 -8.34064E+03 -3.87348E+04
  2.54884E+04 -4.84984E+04  5.22721E+04 -2.04150E+04  4.91364E+04  2.19846E+04  1.64484E+04  4.85314E+04
 -1.60902E+04  3.80043E+04 -2.82291E+04  9.23403E+02 -1.27343E+04 -3.06090E+04  2.11789E+04 -3.77052E+04
  4.51680E+04 -1.12133E+04  3.97973E+04  2.73815E+04  2.08808E+04  5.31618E+04 -7.50393E+03  5.69951E+04
 -3.56602E+04  4.08669E+04 -5.00582E+04  1.21265E+04 -4.85921E+04 -1.92417E+04 -2.58240E+04 -4.27564E+04
  9.57872E+03 -4.23150E+04  3.59086E+04 -1.89595E+04  3.28631E+04  9.21671E+03  4.70674E+03  1.99127E+04
 -1.38245E+04  8.46388E+03 -1.26056E+04 -7.42624E+03  7.55378E+03 -1.32142E+04  1.98489E+04  7.07789E+03
  1.52751E+04  2.22722E+04 -4.48200E+03  2.79691E+04 -2.50908E+04  1.51331E+04 -3.36200E+04 -2.69492E+03
 -2.61724E+04 -1.82788E+04 -1.10445E+04 -2.72094E+04  5.44123E+03 -2.82208E+04  2.09475E+04 -2.34390E+04
  3.26030E+04 -1.47123E+04  3.80462E+04  4.90397E+03  2.75181E+04  2.73916E+04  3.60036E+03  4.24583E+04
 -1.69254E+04  3.48521E+04 -3.06521E+04  1.20906E+04 -2.19501E+04 -1.08812E+04 -4.95491E+03 -1.34988E+04
 -8.21490E+02 -3.54294E+03 -8.17398E+03  1.01064E+04 -2.27519E+04  5.52682E+03 -1.96477E+04 -9.25769E+03
 -1.25129E+04 -2.31189E+04  6.62318E+03 -2.88157E+04  2.06846E+04 -2.06736E+04  2.50088E+04 -9.47068E+02
  1.27666E+04  1.60011E+04 -1.97145E+03  2.46529E+04 -1.68278E+04  1.36581E+04 -2.57119E+04 -5.91857E+03
 -1.75615E+04 -2.22413E+04 -2.43372E+03 -3.07129E+04  1.22066E+04 -2.33464E+04  2.24214E+04 -1.23786E+04
  2.46006E+04  1.67059E+02  1.78815E+04  4.66738E+03  1.05958E+04  1.39625E+03  1.25458E+04 -2.17294E+03
  2.34804E+04  2.20279E+03  2.74246E+04  1.92464E+04  1.69851E+04  3.99511E+04 -3.08266E+03  4.72912E+04
 -2.48301E+04  3.86599E+04 -4.51139E+04  2.01199E+04 -4.83919E+04 -1.24747E+03 -3.84570E+04 -2.88612E+04
 -1.58321E+04 -3.97055E+04  1.23755E+04 -3.40321E+04  3.02057E+04 -1.64786E+04  2.50918E+04  8.07301E+03
  7.70169E+03  1.91997E+04 -1.13831E+04  1.52686E+04 -2.08856E+04  2.94131E+03 -1.74579E+04 -1.45237E+04
  4.79486E+02 -2.01707E+04  1.00001E+04 -1.62889E+04  1.56140E+04 -1.56660E+03  3.88168E+03  9.90665E+03
 -1.04552E+04  3.90022E+03 -1.11476E+04 -6.62092E+03 -2.66849E+03 -1.90316E+04  1.14025E+04 -2.42239E+04
  2.60824E+04 -1.07417E+04  2.74263E+04  2.94061E+03  2.47224E+04  2.16551E+04  1.07748E+04  3.12937E+04
 -5.98121E+03  3.29913E+04 -2.21251E+04  2.04986E+04 -2.38329E+04  4.90349E+03 -1.80494E+04 -7.08854E+03
 -6.01301E+03 -6.22392E+03 -1.16809E+03 -1.88670E+03 -3.20757E+03  2.02232E+03 -7.40219E+03  5.80214E+03
 -1.41250E+04 -1.96170E+03 -1.26441E+04 -1.35110E+04 -5.88822E+03 -2.17226E+04  6.87910E+03 -1.56120E+04
  1.34109E+04 -6.89546E+03  9.11527E+03  5.47109E+03 -2.91456E+02  7.76653E+03 -9.52657E+03  1.63781E+03
 -7.68201E+03 -1.08435E+04 -1.25013E+03 -1.73155E+04  1.20542E+04 -1.72883E+04  2.19456E+04 -1.08480E+04
  2.51894E+04  3.07219E+03  1.99803E+04  1.62389E+04  3.43436E+03  2.05929E+04 -1.20961E+04  1.69422E+04
 -1.38375E+04  4.74336E+03 -7.45710E+03 -4.66893E+03  1.73806E+03 -6.71339E+03  8.31045E+03 -2.68565E+03
  7.81731E+03  9.87585E+03  3.76560E+01  1.43915E+04 -1.01536E+04  1.27221E+04 -1.88241E+04  3.44603E+03
 -1.17121E+04 -8.73397E+03  3.40150E+02 -1.34287E+04  1.06950E+04 -6.50595E+03  9.71221E+03  4.76316E+03
  3.54700E+03  1.08925E+04 -7.85615E+03  1.25845E+04 -1.66785E+04  4.22034E+03 -1.45305E+04 -8.22518E+03
 -8.11368E+03 -1.92851E+04  5.91513E+03 -1.97240E+04  1.66712E+04 -1.10873E+04  1.89538E+04  3.96484E+03
  1.11989E+04  1.49453E+04 -1.83307E+03  1.78777E+04 -1.35295E+04  1.09021E+04 -1.24852E+04 -1.35769E+03
 -1.19126E+04 -1.25755E+04 -3.04850E+03 -1.22509E+04  8.58862E+03 -1.23818E+04  1.00315E+04 -4.48035E+03
  5.85778E+03  3.26462E+03 -1.57301E+03  1.42816E+03 -1.37094E+03 -2.22323E+03  2.74531E+03 -8.33739E+03
  1.36022E+04 -6.56275E+03  1.98098E+04  2.39374E+03  1.74212E+04  1.40539E+04  1.18667E+04  2.37173E+04
 -5.13786E+03  2.60863E+04 -2.32087E+04  1.88906E+04 -3.00850E+04  4.26611E+03 -2.44161E+04 -9.94541E+03
 -1.11527E+04 -1.99195E+04  4.78386E+02 -1.46205E+04  7.37021E+03 -8.03174E+03  5.92379E+03 -7.28102E+03
  3.72702E+03 -3.48629E+03  3.60117E+03 -4.48324E+03  6.96018E+03 -4.04353E+03  8.73865E+03 -2.39035E+03
  1.31305E+04  1.96418E+03  8.86862E+03  9.65083E+03 -1.43933E+03  1.19213E+04 -1.30118E+04  9.03162E+03
 -1.77416E+04 -5.89528E+02 -1.12075E+04 -1.23665E+04 -1.90051E+03 -1.77690E+04  1.05690E+04 -1.80991E+04
  1.82026E+04 -1.08435E+04  2.40006E+04  4.08653E+03  1.37184E+04  1.46923E+04  2.44327E+03  2.13338E+04
 -1.11308E+04  1.47221E+04 -1.30454E+04  6.40821E+03 -8.28211E+03 -2.66747E+03 -4.46890E+03 -2.00751E+03
 -1.14163E+03  2.90447E+02 -1.46685E+03  4.03463E+03 -6.33108E+03  1.67747E+03 -1.27631E+04 -1.76494E+03
 -7.90150E+03 -1.06965E+04 -1.31752E+03 -1.72963E+04  1.11667E+04 -1.66333E+04  1.74895E+04 -6.00497E+03
  1.76901E+04  7.83957E+03  9.03346E+03  1.58181E+04 -3.72768E+03  1.67581E+04 -1.40775E+04  1.15603E+04
 -1.68884E+04 -1.09646E+03 -1.27188E+04 -1.07522E+04 -9.67277E+02 -1.62423E+04  8.16881E+03 -1.05873E+04
  1.05035E+04 -5.14422E+03  7.24060E+03  1.69892E+03  1.93704E+03  6.07055E+03  2.53528E+03  2.77123E+03
  2.75923E+03  2.68476E+02  3.71531E+03  2.06808E+03  5.76401E+03  6.28105E+03  4.72022E+03  1.03659E+04
 -4.28374E+03  1.50810E+04 -1.30002E+04  1.49698E+04 -1.87004E+04  3.61095E+03 -1.92924E+04 -7.94768E+03
 -8.58835E+03 -1.86860E+04  2.27612E+03 -2.16956E+04  1.29755E+04 -1.42000E+04  1.51720E+04 -4.66865E+03
  1.18896E+04  6.33248E+03  6.03751E+02  9.24591E+03 -6.66271E+03  6.47493E+03 -8.05919E+03  8.47460E+01
 -4.49231E+03 -7.22575E+03  3.77607E+03 -5.73337E+03  8.42281E+03 -3.73831E+03  8.33470E+03  3.22319E+03
  4.77373E+03  2.30930E+03  2.49755E+03  3.53928E+03 -3.04704E+03  3.45423E+03  1.25954E+03 -1.06218E+03
  5.18119E+03 -6.74086E+01  9.27098E+03  3.33154E+03  4.18340E+03  7.87927E+03 -1.03874E+03  1.30104E+04
 -8.74058E+03  8.83869E+03 -1.25069E+04  2.41161E+03 -1.21258E+04 -5.23525E+03 -4.75385E+03 -6.46624E+03
  3.74940E+02 -6.32083E+03  6.23692E+03 -4.58580E+03  5.16292E+03  3.09616E+03 -3.16159E+02  6.24853E+03
 -7.92232E+03  2.19746E+03 -9.45982E+03 -5.47048E+03 -6.71111E+03 -9.21956E+03 -1.13856E+02 -1.05206E+04
  5.61207E+03 -6.84324E+03  8.66846E+03 -6.22505E+02  6.80387E+03  2.65029E+03  7.71380E+02  6.58643E+03
 -4.23431E+03  1.96962E+03 -5.57985E+03 -3.93131E+03  1.89033E+03 -8.43588E+03  7.88921E+03 -5.74220E+03
  1.31160E+04  1.76066E+03  1.24507E+04  8.90794E+03  3.52198E+03  1.32433E+04 -4.62374E+03  1.12622E+04
 -1.04128E+04  4.55410E+03 -8.45795E+03 -3.65180E+03 -6.89128E+03 -7.72040E+03  1.04135E+03 -9.03280E+03
  7.15624E+03 -2.97766E+03  5.78776E+03  4.70665E+03  2.50800E+03  8.59125E+03 -1.38440E+03  7.23377E+03
 -5.03329E+03  3.09200E+03 -3.58976E+03  2.28106E+03 -2.07806E+03  3.38797E+03 -1.36076E+03  3.05189E+03
 -2.44821E+03  3.33248E+03 -8.84024E+03  4.94752E+03 -1.16381E+04 -9.87883E+02 -1.46987E+04 -9.87756E+03
 -7.90374E+03 -1.74206E+04  3.84291E+03 -1.96888E+04  1.39116E+04 -1.54827E+04  1.91929E+04 -5.23180E+03
  1.94662E+04  4.90182E+03  1.03546E+04  1.31101E+04  1.26069E+03  1.29444E+04 -6.35442E+03  1.09399E+04
 -7.58307E+03  3.72466E+03 -4.23519E+03 -2.66270E+03 -1.71749E+03 -2.44950E+03 -1.43986E+03 -1.25773E+02
 -1.33040E+03  1.24585E+03 -3.28954E+03 -1.44033E+03 -2.41697E+03 -4.16438E+03 -4.51990E+02 -4.73591E+03
  3.73558E+03 -4.75004E+03  9.62375E+03 -3.03079E+02  1.00290E+04  7.33437E+03  3.95127E+03  1.29409E+04
 -5.26183E+03  1.50783E+04 -1.37330E+04  9.62061E+03 -1.84345E+04 -1.98038E+03 -1.14031E+04 -9.10356E+03
 -6.50236E+03 -1.47696E+04  3.65874E+03 -1.22760E+04  9.96222E+03 -5.80068E+03  9.69398E+03  2.72312E+02
  4.44135E+03  4.55958E+03  1.51622E+02  3.81513E+03 -1.31897E+03  5.66314E+00  1.63672E+03 -4.01946E+03
  5.14885E+03 -1.18548E+03  5.20268E+03  3.25233E+02  4.50415E+03  4.06489E+03 -6.79630E+02  7.86910E+03
 -5.81241E+03  6.65651E+03 -8.51415E+03  1.65722E+03 -9.35211E+03 -5.59846E+03 -2.15505E+03 -1.28024E+04
  4.97603E+03 -1.04363E+04  1.27144E+04 -3.36931E+03  1.17066E+04  1.07238E+03  6.90499E+03  8.46942E+03
  4.89282E+02  7.80152E+03 -4.45335E+03  8.23431E+03 -6.42926E+03  3.38975E+03 -5.47100E+03  1.56248E+03
 -1.97517E+03 -4.43155E+02 -2.59252E+03  9.11417E+02 -3.65635E+03  7.63107E+02 -8.32571E+03 -2.89102E+03
 -8.25888E+03 -4.28970E+03 -4.03875E+03 -9.42948E+03  3.76114E+03 -9.73895E+03  1.05968E+04 -4.40043E+03
  9.43509E+03  1.94640E+03  7.09250E+03  8.01650E+03  1.07635E+02  9.89542E+03 -7.46776E+03  6.30109E+03
