 $NMID ID='MM_0lb_SNR200_13hz_g45_97.RAW', FMTDAT='(8E13.5)'
 TRAMP=1., VOLUME=1. $END
  3.09171E+05  1.63341E+03  3.37571E+05  2.51530E+05  8.46479E+04  3.37912E+05 -1.32608E+05  2.52227E+05
 -1.91453E+05  8.27424E+04 -1.11151E+05 -3.36153E+04  1.58354E+02 -5.12677E+04  5.41284E+04  1.09678E+02
  3.45368E+04  5.24473E+04 -1.68386E+04  7.60343E+04 -6.17424E+04  6.29831E+04 -8.46457E+04  3.16659E+04
 -8.05335E+04 -1.14172E+04 -5.75682E+04 -5.16578E+04 -1.54366E+04 -6.90180E+04  2.73912E+04 -4.58008E+04
  3.97662E+04  2.98057E+03  1.66729E+04  4.75279E+04 -3.51593E+04  4.64049E+04 -6.66211E+04 -1.66409E+02
 -5.46808E+04 -5.73726E+04 -6.90091E+03 -7.73053E+04  3.43900E+04 -5.58326E+04  4.61693E+04 -1.83138E+04
  4.39805E+04  1.22165E+04  3.27270E+04  2.54461E+04  1.71810E+04  3.08436E+04 -4.78267E+03  2.74757E+04
 -2.26753E+04  1.18241E+04 -1.88143E+04 -4.91343E+03  5.51757E+03 -7.16061E+03  2.21475E+04  1.25586E+04
  8.52304E+03  3.43074E+04 -3.25140E+04  3.49713E+04 -6.34917E+04  1.17840E+03 -5.67633E+04 -4.29041E+04
 -1.23308E+04 -6.36482E+04  4.00415E+04 -4.50574E+04  5.86765E+04 -1.49593E+03  3.49508E+04  3.32192E+04
 -7.19934E+03  3.54689E+04 -3.08541E+04  1.66437E+04 -3.16834E+04 -3.68312E+03 -1.63854E+04 -1.14721E+04
 -9.30583E+03 -1.41431E+04 -1.22167E+03 -1.88528E+04  7.67539E+03 -2.32922E+04  1.54336E+04 -1.45116E+04
  1.04092E+04  4.57826E+03 -7.69935E+03  1.29962E+04 -2.17802E+04 -5.38651E+03 -8.49074E+03 -3.34575E+04
  2.34848E+04 -4.43724E+04  4.86885E+04 -1.95605E+04  4.58727E+04  1.85113E+04  1.51449E+04  4.57272E+04
 -1.63893E+04  3.26525E+04 -2.59785E+04  1.49272E+03 -1.04067E+04 -2.86637E+04  2.12231E+04 -3.46878E+04
  4.08843E+04 -9.83071E+03  3.70213E+04  2.37305E+04  1.70595E+04  4.66094E+04 -7.74650E+03  5.04626E+04
 -3.13848E+04  3.47882E+04 -4.27959E+04  9.92004E+03 -4.25825E+04 -1.73294E+04 -2.30053E+04 -3.90513E+04
  8.13035E+03 -3.78933E+04  3.18723E+04 -1.48637E+04  2.83995E+04  1.13892E+04  2.99491E+03  1.81320E+04
 -1.30785E+04  8.41590E+03 -1.01550E+04 -7.91282E+03  5.47525E+03 -1.14799E+04  1.74293E+04  5.64275E+03
  1.35077E+04  2.23934E+04 -4.44468E+03  2.51537E+04 -2.34968E+04  1.11449E+04 -2.74457E+04 -3.80059E+03
 -2.00733E+04 -1.76039E+04 -8.94743E+03 -2.07377E+04  3.88350E+03 -1.96307E+04  1.63545E+04 -1.81894E+04
  2.63923E+04 -1.34421E+04  3.33192E+04  1.78447E+03  2.47155E+04  1.99337E+04  4.06809E+03  3.60585E+04
 -1.78432E+04  3.04907E+04 -2.75644E+04  1.09049E+04 -2.04549E+04 -9.83225E+03 -4.90753E+03 -1.27254E+04
  8.63762E+02 -1.54070E+03 -4.12209E+03  7.46936E+03 -1.57157E+04  4.76164E+03 -1.72268E+04 -7.13170E+03
 -9.80197E+03 -1.84374E+04  5.72226E+03 -2.34194E+04  1.57695E+04 -1.69824E+04  1.82313E+04 -1.95240E+03
  1.19954E+04  1.35562E+04 -1.05637E+03  1.95054E+04 -1.29430E+04  1.16480E+04 -1.92474E+04 -3.60776E+03
 -1.49567E+04 -1.77931E+04 -3.19056E+03 -2.35669E+04  1.04336E+04 -1.83446E+04  1.90410E+04 -1.03507E+04
  1.83836E+04  7.30606E+02  1.30822E+04  5.04356E+03  5.53691E+03  1.46747E+03  9.33551E+03 -2.83626E+03
  1.73614E+04  2.61942E+03  2.09902E+04  1.50263E+04  1.23600E+04  3.17052E+04 -2.83211E+03  3.54109E+04
 -2.02780E+04  2.73708E+04 -3.27108E+04  1.43935E+04 -3.56528E+04 -2.54539E+03 -2.85776E+04 -2.12226E+04
 -1.19465E+04 -2.88002E+04  1.01917E+04 -2.49885E+04  2.28298E+04 -1.29882E+04  2.00819E+04  5.17052E+03
  7.27735E+03  1.45034E+04 -9.42451E+03  1.25406E+04 -1.63695E+04  1.61798E+03 -1.40896E+04 -1.06417E+04
 -1.12153E+03 -1.60564E+04  8.70949E+03 -1.13737E+04  1.19373E+04 -1.02573E+03  1.31997E+03  6.23007E+03
 -6.99324E+03  3.92019E+03 -6.13460E+03 -5.05630E+03  5.44521E+02 -1.40691E+04  9.91136E+03 -1.45818E+04
  1.69318E+04 -8.40278E+03  1.81181E+04  3.58185E+03  1.77863E+04  1.34600E+04  6.68168E+03  2.08355E+04
 -2.41968E+03  2.26590E+04 -1.46763E+04  1.41078E+04 -1.74250E+04  3.85876E+03 -1.17022E+04 -5.59751E+03
 -6.16258E+03 -6.16622E+03  4.66220E+02  5.96253E+02 -3.64114E+03  3.52614E+03 -6.09122E+03  4.79321E+03
 -1.08594E+04 -7.48866E+02 -1.13113E+04 -9.77832E+03 -4.91184E+03 -1.58434E+04  6.31553E+03 -1.30391E+04
  9.66837E+03 -5.67370E+03  7.61915E+03  4.41933E+03  7.93238E+02  3.65034E+03 -4.98461E+03  1.80970E+02
 -4.69607E+03 -6.95959E+03 -1.23230E+03 -9.54073E+03  5.25657E+03 -1.22400E+04  1.44466E+04 -6.82954E+03
  1.69360E+04  8.69659E+02  1.24989E+04  9.97271E+03  3.50132E+03  1.48840E+04 -7.05564E+03  1.09525E+04
 -9.28434E+03  3.74771E+03 -5.03916E+03 -1.26806E+03  3.26681E+03 -3.17365E+03  6.59252E+03 -1.06189E+03
  6.15543E+03  3.80688E+03  2.00477E+03  9.48595E+03 -7.03732E+03  8.92802E+03 -1.17570E+04  2.43195E+03
 -6.81923E+03 -5.64149E+03  1.03422E+03 -1.05238E+04  6.48515E+03 -3.72822E+03  5.37967E+03  2.36425E+03
  1.12022E+03  7.24002E+03 -6.62870E+03  6.67689E+03 -9.86202E+03  4.09859E+03 -8.40778E+03 -2.51386E+03
 -5.61058E+03 -1.04064E+04  2.21899E+03 -1.19032E+04  9.88500E+03 -6.89706E+03  1.10446E+04  1.38541E+03
  7.55956E+03  9.18453E+03  8.15204E+02  1.09332E+04 -8.30120E+03  5.51698E+03 -8.47911E+03 -8.24299E+02
 -9.47894E+03 -7.62736E+03 -4.78280E+02 -7.79017E+03  4.38339E+03 -5.67012E+03  5.60639E+03 -4.19517E+03
  3.48856E+03  1.58160E+03 -2.12572E+02  6.70778E+02 -4.83507E+02 -1.93551E+03  3.51021E+02 -5.13000E+03
  5.93687E+03 -2.17999E+03  9.84928E+03  1.35322E+03  9.62800E+03  6.45268E+03  7.15422E+03  1.31527E+04
 -2.04801E+03  1.63239E+04 -1.26455E+04  1.08216E+04 -1.65984E+04  1.81879E+03 -1.31436E+04 -5.21598E+03
 -7.31715E+03 -1.13590E+04 -9.45841E+02 -9.85107E+03  3.16249E+03 -4.99210E+03  2.92128E+03 -3.07707E+03
  2.38406E+03 -2.75914E+03  2.70610E+03 -2.60619E+03  3.91994E+03 -3.04025E+03  6.18818E+03 -1.86080E+02
  7.53051E+03  9.69346E+02  2.82209E+03  6.40908E+03 -2.78603E+03  7.38779E+03 -7.44016E+03  5.78942E+03
 -9.51388E+03 -1.61112E+03 -5.62778E+03 -6.02725E+03 -1.07371E+03 -1.05750E+04  6.43246E+03 -1.12235E+04
  1.01608E+04 -5.79641E+03  1.18173E+04  1.11303E+03  9.10804E+03  8.35542E+03  1.09679E+03  1.10133E+04
 -3.90717E+03  9.69181E+03 -6.77757E+03  4.37518E+03 -4.96268E+03 -2.11264E+03 -2.19135E+03 -7.55859E+02
 -1.61264E+03  7.24552E+02 -1.78186E+03  2.69076E+03 -3.68894E+03  9.11458E+02 -7.28201E+03 -2.58627E+02
 -4.66234E+03 -6.58375E+03 -1.89435E+02 -7.94771E+03  6.69247E+03 -7.65939E+03  8.90746E+03 -3.85873E+03
  8.82747E+03  5.65623E+03  3.47317E+03  7.15034E+03 -1.60216E+03  9.11160E+03 -6.54987E+03  5.99085E+03
 -7.40635E+03  1.11619E+03 -7.46393E+03 -4.95022E+03 -8.64821E+02 -8.61116E+03  3.68469E+03 -5.93225E+03
  6.42629E+03 -2.75762E+03  3.24505E+03  9.94532E+02  8.47960E+02  3.45248E+03  1.88854E+03  1.38816E+03
  1.53222E+03  1.04649E+03  1.70645E+03  6.96707E+02  1.80085E+03  3.62716E+03  2.22412E+03  5.00039E+03
 -1.66440E+03  6.37523E+03 -5.85615E+03  7.11520E+03 -8.78694E+03  3.16074E+03 -8.42916E+03 -3.83160E+03
 -3.90271E+03 -8.18288E+03  7.56807E+02 -1.03888E+04  4.34689E+03 -6.40599E+03  7.37414E+03 -2.37019E+03
  5.44272E+03  2.42140E+03 -1.63878E+02  3.91039E+03 -1.29462E+03  1.67719E+03 -2.43736E+03 -2.01579E+03
 -5.51121E+02 -4.39460E+03  6.49821E+02 -2.92152E+03  3.28105E+03 -2.28856E+03  3.50827E+03  1.47710E+03
  1.92652E+03  2.05568E+03  3.89211E+02 -6.08595E+01 -3.67283E+02  2.08359E+03  1.08518E+03 -2.15168E+02
  7.22408E+02  1.05166E+03  3.83581E+03  2.16515E+03  1.38606E+03  5.46960E+03 -1.39924E+03  7.19734E+03
 -3.67881E+03  3.72488E+03 -4.52650E+03  1.17931E+03 -4.90666E+03 -1.90103E+03 -2.12646E+03 -2.66060E+03
  4.45231E+02 -3.18953E+03  4.71680E+02 -8.27449E+02  3.17943E+03  1.29787E+03 -1.24990E+03  2.74822E+03
 -3.44331E+03  9.44570E+02 -3.99231E+03 -2.42411E+03 -3.27142E+03 -3.80573E+03  7.62331E+02 -6.08397E+03
  2.14416E+03 -3.17679E+03  1.89732E+03 -1.35449E+02  3.86711E+03  1.28287E+03  1.15962E+03  1.46525E+03
 -1.55971E+03  1.73676E+03 -2.79570E+03 -6.47679E+02  4.03172E+02 -2.28935E+03  2.44066E+03 -1.66852E+03
  4.20701E+03 -1.70338E+02  5.11752E+03  2.92611E+03  2.04260E+03  5.87833E+03 -1.95974E+03  4.02096E+03
 -4.00585E+03  1.60460E+03 -3.93440E+03 -4.30305E+02 -3.40728E+03 -5.15351E+03  7.78236E+02 -3.66863E+03
  3.09033E+03 -1.43717E+03  4.47347E+03  2.75243E+03 -7.69574E+01  2.79298E+03  5.06205E+02  1.40370E+03
 -1.81097E+03  1.47583E+03 -6.48278E+02  1.22983E+03 -1.06621E+02  2.21248E+01 -7.25746E+02  7.92608E+02
 -1.34235E+03  1.94146E+03 -3.76882E+03  1.65690E+03 -5.18335E+03 -1.30456E+03 -5.15439E+03 -9.03904E+02
 -3.77310E+03 -6.44327E+03  1.26979E+03 -7.88090E+03  4.63480E+03 -5.86025E+03  6.10622E+03 -2.44596E+03
  7.27055E+03  1.73057E+03  4.30917E+03  5.11878E+03 -1.64067E+02  6.44961E+03 -2.51615E+03  4.39616E+03
 -2.64796E+03  1.41633E+03 -2.02368E+03 -2.34575E+02 -1.32906E+02  6.45577E+02 -8.77994E+02 -1.44911E+02
  1.35033E+02  9.02148E+02 -1.31049E+03  1.56010E+02 -2.24108E+02 -2.23517E+02 -5.15354E+02 -3.07145E+03
  3.72682E+03 -1.57437E+03  2.12276E+03 -1.09476E+03  2.97455E+03  3.64693E+03  1.28055E+03  3.91802E+03
 -2.91763E+03  5.78541E+03 -4.80339E+03  4.97702E+03 -5.13097E+03  9.08901E+02 -4.30149E+03 -3.86378E+03
 -2.04100E+03 -4.54513E+03  1.24717E+03 -4.23009E+03  2.11254E+03 -3.03206E+03  2.34515E+03 -8.63364E+02
  2.43819E+03  1.06041E+03  1.81956E+02  1.63783E+03 -2.39054E+03  9.20714E+02  2.37767E+02 -5.03280E+02
  1.88702E+03  5.25506E+02  2.31264E+03  7.04885E+02  5.58668E+02  1.67779E+03  5.05611E+02  2.32628E+03
 -2.71947E+03  3.49866E+03 -3.00730E+03  5.24400E+02 -3.22095E+03 -2.03016E+03 -9.35997E+02 -2.88888E+03
  2.22537E+03 -3.32376E+03  3.11833E+03 -3.40802E+02  3.01298E+03 -6.87799E+02  2.09317E+03  2.20918E+03
  5.03976E+02  2.98631E+03 -1.12372E+03  2.76920E+03 -7.13033E+02  1.35659E+03 -3.28597E+02 -2.43261E+02
 -2.30731E+01 -5.39533E+02  2.06261E+02  7.37691E+02 -1.33514E+03 -3.89191E+01 -2.85352E+03 -9.67647E+02
 -3.51172E+03 -5.40771E+02 -1.27310E+03 -3.48372E+03  1.86802E+02 -4.42170E+03  2.09253E+03 -1.09557E+03
  2.21413E+03  1.35602E+03  1.66107E+03  7.43361E+02  2.32308E+01  2.41321E+03 -2.78983E+03  1.12317E+03
