 $NMID ID='MM_0lb_SNR200_19hz_g55_47.RAW', FMTDAT='(8E13.5)'
 TRAMP=1., VOLUME=1. $END
  3.10378E+05 -6.48413E+02  3.37211E+05  2.51062E+05  8.52332E+04  3.37764E+05 -1.32904E+05  2.51082E+05
 -1.90959E+05  8.28390E+04 -1.12171E+05 -3.35096E+04  1.25110E+03 -4.97042E+04  5.43056E+04 -4.24654E+02
  3.43696E+04  5.25000E+04 -1.78616E+04  7.52300E+04 -6.08978E+04  6.22653E+04 -8.34177E+04  3.14315E+04
 -7.89700E+04 -1.20223E+04 -5.72728E+04 -5.07115E+04 -1.49505E+04 -6.89510E+04  2.68409E+04 -4.62945E+04
  3.92318E+04  4.81390E+03  1.53224E+04  4.69862E+04 -3.45379E+04  4.69036E+04 -6.54400E+04  2.71851E+02
 -5.24044E+04 -5.64682E+04 -5.28331E+03 -7.56849E+04  3.42807E+04 -5.27921E+04  4.62804E+04 -1.64892E+04
  4.22924E+04  1.20590E+04  3.12541E+04  2.52825E+04  1.56721E+04  2.88966E+04 -5.07433E+03  2.74045E+04
 -2.18487E+04  1.27752E+04 -1.85833E+04 -4.84674E+03  4.77290E+03 -8.10876E+03  2.15616E+04  1.09968E+04
  6.88958E+03  3.32063E+04 -2.95069E+04  3.38115E+04 -6.25184E+04  2.12102E+03 -5.53552E+04 -4.15400E+04
 -1.15194E+04 -6.12924E+04  3.85164E+04 -4.38476E+04  5.77293E+04 -1.09654E+03  3.22291E+04  3.03583E+04
 -6.59519E+03  3.47189E+04 -3.00884E+04  1.33956E+04 -2.94331E+04 -4.71847E+03 -1.57164E+04 -9.24913E+03
 -7.21525E+03 -1.23750E+04 -1.87622E+03 -1.67284E+04  6.97460E+03 -2.28646E+04  1.45097E+04 -1.28745E+04
  1.20919E+04  4.03777E+03 -5.72590E+03  1.25652E+04 -1.91174E+04 -1.46355E+03 -8.51485E+03 -3.02605E+04
  2.01069E+04 -4.13058E+04  4.50566E+04 -1.86408E+04  4.29166E+04  1.83618E+04  1.39360E+04  4.26559E+04
 -1.48459E+04  3.22834E+04 -2.36047E+04  1.20270E+03 -9.67376E+03 -2.70928E+04  2.05825E+04 -3.18500E+04
  3.92742E+04 -6.73899E+03  3.09077E+04  2.40325E+04  1.55428E+04  4.29195E+04 -8.22804E+03  4.52773E+04
 -2.95921E+04  3.10007E+04 -3.73130E+04  8.68188E+03 -3.81651E+04 -1.59657E+04 -2.24106E+04 -3.64317E+04
  8.13597E+03 -3.46195E+04  2.91150E+04 -1.35519E+04  2.74015E+04  1.07061E+04  4.11892E+03  1.83161E+04
 -1.35671E+04  6.80279E+03 -9.03629E+03 -8.56593E+03  6.09877E+03 -1.00207E+04  1.77417E+04  6.20569E+03
  1.24558E+04  2.14412E+04 -6.77742E+03  2.27785E+04 -2.10990E+04  9.17500E+03 -2.45319E+04 -4.71383E+03
 -1.66667E+04 -1.61617E+04 -5.04254E+03 -1.74794E+04  3.10595E+03 -1.66830E+04  1.35231E+04 -1.46613E+04
  2.19043E+04 -1.10254E+04  3.01428E+04  1.68637E+03  2.11648E+04  1.62114E+04  3.69573E+03  3.31262E+04
 -1.61121E+04  2.71525E+04 -2.64186E+04  1.01870E+04 -1.95970E+04 -1.05113E+04 -3.67876E+03 -1.47102E+04
  2.32576E+03 -4.66019E+03 -2.34813E+03  5.26250E+03 -1.30035E+04  4.94712E+03 -1.40069E+04 -5.21907E+03
 -8.43371E+03 -1.55851E+04  5.77514E+03 -2.00024E+04  1.40902E+04 -1.38870E+04  1.51670E+04 -7.90395E+02
  9.62236E+03  1.12648E+04  7.05356E+02  1.59293E+04 -1.14389E+04  1.03236E+04 -1.54608E+04 -3.87487E+03
 -1.13598E+04 -1.51926E+04 -1.54829E+03 -1.90571E+04  8.35835E+03 -1.57707E+04  1.64950E+04 -7.79422E+03
  1.40711E+04  1.33319E+03  1.01817E+04  3.32380E+03  5.88707E+03  4.22259E+02  8.15920E+03 -1.37277E+03
  1.44083E+04  2.29702E+03  1.47780E+04  1.23753E+04  9.18698E+03  2.62830E+04 -4.27402E+03  2.77525E+04
 -1.60035E+04  2.11609E+04 -2.63364E+04  9.69567E+03 -2.51627E+04 -1.37912E+03 -2.29922E+04 -1.37723E+04
 -1.03235E+04 -2.25743E+04  7.06188E+03 -1.95962E+04  1.74290E+04 -1.12374E+04  1.65995E+04  3.04014E+03
  6.57116E+03  1.20343E+04 -6.05740E+03  1.08123E+04 -1.39188E+04  3.25070E+03 -1.06963E+04 -7.73103E+03
 -7.49984E+02 -1.24912E+04  5.50666E+03 -9.37995E+03  7.66528E+03 -2.40179E+02  1.71185E+03  5.37772E+03
 -4.86705E+03  2.56034E+03 -3.86203E+03 -4.08074E+03  1.05462E+03 -1.01915E+04  7.91789E+03 -9.63454E+03
  1.30420E+04 -4.56905E+03  1.28194E+04  1.76078E+03  1.03285E+04  9.27370E+03  5.17710E+03  1.45011E+04
 -1.40192E+03  1.58006E+04 -1.07134E+04  9.71596E+03 -1.07727E+04  3.18603E+03 -8.91720E+03 -1.96095E+03
 -4.37505E+03 -3.44341E+03 -3.20469E+02  8.19001E+02 -1.45097E+03  3.77395E+03 -4.22095E+03  3.51819E+03
 -7.32718E+03 -1.20987E+03 -9.47772E+03 -7.64352E+03 -3.64156E+03 -1.22633E+04  4.89497E+03 -7.76974E+03
  7.05669E+03 -2.93964E+03  6.01097E+03  2.22594E+03  5.66239E+02  3.47840E+03 -4.80148E+03  3.83981E+01
 -3.79584E+03 -5.33200E+03 -1.12745E+03 -6.51863E+03  4.12793E+03 -7.31693E+03  1.03324E+04 -3.46180E+03
  1.09561E+04  5.32429E+02  8.84941E+03  6.06401E+03  1.09881E+03  9.38123E+03 -4.57787E+03  8.78355E+03
 -7.38199E+03  1.77329E+03 -4.15061E+03 -1.44947E+03  1.30598E+03 -2.89567E+03  4.36157E+03 -1.70216E+03
  2.45591E+03  3.27970E+03  1.53848E+03  6.94688E+03 -3.35487E+03  6.43856E+03 -8.12375E+03  1.66593E+03
 -5.04449E+03 -4.60559E+03 -4.27298E+02 -5.98623E+03  3.34235E+03 -3.07222E+03  3.95359E+03  5.66723E+02
  4.92783E+02  3.95433E+03 -4.12883E+03  4.32422E+03 -4.52166E+03  2.79722E+03 -5.09470E+03 -9.95141E+02
 -3.26029E+03 -5.91221E+03  1.83670E+03 -7.32271E+03  5.92320E+03 -4.48388E+03  7.18863E+03  2.67813E+02
  4.50650E+03  6.23569E+03  2.99380E+02  7.65570E+03 -4.80034E+03  4.21890E+03 -4.13574E+03 -5.02161E+02
 -6.18899E+03 -5.11121E+03 -1.48278E+03 -5.39755E+03  2.84538E+03 -3.74761E+03  3.06201E+03 -3.06466E+03
  3.01937E+03 -4.36453E+02 -1.33252E+01  6.01854E+02  7.90505E+02  7.57320E+02  4.77044E+02 -2.28635E+03
  3.78214E+03  3.31401E+02  5.67485E+03  6.52905E+02  5.56303E+03  4.06654E+03  5.22804E+03  7.40978E+03
 -5.65461E+02  8.71211E+03 -7.58368E+03  6.51582E+03 -9.40631E+03 -8.58109E+01 -7.45663E+03 -3.75673E+03
 -3.99358E+03 -5.85268E+03 -6.41447E+02 -4.08825E+03  2.02832E+03 -2.36041E+03  8.08180E+02 -2.74176E+03
  1.26639E+03 -2.04834E+02  2.23647E+03 -1.88954E+03  4.23192E+03 -2.17152E+03  3.24598E+03  1.28021E+03
  3.76527E+03  1.40595E+03  1.23671E+03  3.63802E+03 -1.73228E+03  2.94250E+03 -4.36621E+03  3.02410E+03
 -3.42427E+03  1.32706E+02 -2.03028E+03 -3.42854E+03  3.43844E+02 -4.64655E+03  2.42673E+03 -5.27112E+03
  4.88605E+03 -2.32218E+03  6.76240E+03 -3.22128E+02  5.51122E+03  3.59113E+03  1.59742E+03  5.65927E+03
 -3.01369E+03  4.79698E+03 -2.42783E+03  3.28779E+03 -1.57375E+03 -1.75326E+03  4.54617E+02 -1.74605E+02
  1.71314E+01  8.84694E+01 -9.54202E+02  2.13291E+03 -2.52042E+03  6.29627E+02 -4.58445E+03 -3.40516E+02
 -8.97321E+02 -3.74877E+03  5.68467E+02 -4.73758E+03  3.96649E+03 -3.09376E+03  2.57899E+03 -7.28320E+02
  3.36863E+03  2.03257E+03  1.62744E+03  3.10525E+03 -1.99617E+02  4.44106E+03 -3.07331E+03  2.37006E+03
 -3.86109E+03  2.12449E+02 -2.77958E+03 -2.43530E+03 -6.16408E+02 -3.89409E+03  1.01547E+03 -1.99549E+03
  3.31660E+03 -7.00452E+02  1.50759E+03  1.66687E+03 -1.31463E+02  1.82535E+03  1.71434E+03  4.34849E+02
  1.63202E+03  1.03817E+03  1.39296E+03 -3.90034E+02  1.48963E+03  1.11482E+03  1.93782E+03  2.38075E+03
 -1.46645E+03  2.23997E+03 -2.02479E+03  4.36397E+03 -3.21475E+03  6.72471E+02 -3.97511E+03 -1.59973E+03
 -7.93873E+02 -3.44425E+03  5.68958E+02 -3.73924E+03  1.34259E+03 -2.09683E+03  2.82619E+03 -1.08549E+03
  2.54600E+03  2.45726E+02 -4.17495E+02  2.10891E+03  2.54760E+02  3.36022E+02  4.38300E+02  1.94405E+02
 -1.34073E+03 -5.63220E+02  1.55839E+03 -8.78715E+02  1.16632E+03  2.18556E+02  1.81128E+03 -2.86448E+02
  1.59177E+03  7.45792E+02  7.90373E+02  3.39504E+01  2.54305E+01  7.30161E+02  3.12012E+03  7.28333E+02
 -4.95028E+02 -8.21884E+02  1.25348E+03  9.03490E+02 -1.90694E+02  1.42326E+03 -1.48874E+03  2.07193E+03
 -6.85377E+02  6.07915E+02 -2.75971E+03  1.36248E+03 -1.83379E+03  4.06779E+02 -9.59646E+01 -9.58403E+02
  7.90177E+02 -1.39258E+03  7.43584E+02 -7.44050E+02  4.60614E+02  1.72491E+03 -5.24721E+02  2.75485E+02
 -1.75608E+03  5.97371E+02 -2.66270E+02 -5.77762E+02  5.10474E+02 -1.80718E+03 -6.30963E+02 -1.62313E+03
 -2.24062E+02 -4.40276E+02  1.31490E+03  7.81483E-02  1.41295E+03 -7.82578E+02  1.29118E+03  1.25458E+03
 -6.00748E+02  6.18384E+02 -1.53499E+03  1.10333E+02  8.54342E+02  4.07665E+02  2.06977E+03 -1.01930E+03
  5.10680E+02  4.01981E+02  2.50281E+03  8.33387E+02  8.30720E+02  1.08672E+03 -7.80809E+02  1.55358E+03
 -3.72325E+02 -8.62667E+01 -1.11127E+03 -9.85594E+02 -1.64760E+03 -9.67760E+02  1.47185E+02  8.60416E+00
  4.66625E+02 -4.49199E+02  1.93140E+02  5.16051E+02  1.35136E+03  1.47147E+02  5.66727E+02  8.75282E+02
  5.48729E+02  1.08273E+03 -1.07979E+02 -3.62872E+01 -6.71414E+02 -1.31120E+02 -3.05675E+02  1.42972E+03
 -2.97129E+02  6.47621E+02 -1.31690E+03  5.07272E+02 -1.04143E+03 -8.23906E+02 -1.20770E+03 -1.08686E+03
 -1.67843E+03 -2.46715E+03  4.29482E+02 -2.29069E+03  1.78004E+03 -1.01240E+03  2.82853E+03 -1.21607E+03
  2.17494E+03  6.20860E+01  6.27448E+02  1.42998E+03 -9.47652E+02  1.47796E+03 -7.34459E+02  1.53764E+03
 -1.24791E+03  6.69028E+02 -1.01257E+03 -1.14494E+01  9.72624E+02 -4.35197E+02 -1.03253E+03  2.05694E+02
 -1.03351E+03  1.22937E+02 -1.71454E+03  3.34428E+01  2.36655E+01  7.58234E+02 -5.21738E+02 -3.45957E+02
  8.96579E+01 -5.09461E+02  7.16493E+02 -2.14816E+02  1.74410E+03  7.68060E+02 -5.87527E+02 -4.97442E+01
 -7.11673E+01  2.40615E+03 -1.17003E+03  1.93719E+03 -1.50014E+03 -1.00964E+02 -3.89122E+02 -1.58374E+03
 -7.69780E+02 -6.79699E+02  6.13102E+02 -1.69188E+03 -8.02307E+02 -6.66598E+02  2.46833E+02  1.71306E+02
  1.19307E+03  7.02403E+02 -6.13973E+02  2.82707E+02  4.89101E+02  1.86073E+01 -2.24766E+02  2.24493E+02
  5.55453E+02 -4.10844E+01  1.37865E+03  1.38692E+02 -4.62076E+01 -6.24693E+02  9.71751E+02  4.69822E+02
 -1.40453E+03  3.37629E+02 -1.20543E+03  8.35152E+02 -6.32153E+02  3.82210E+02  7.95988E+01 -3.69733E+02
  3.28658E+02 -5.93410E+02  3.20412E+02  5.54851E+02  1.29483E+03 -2.97111E+02 -8.28915E+02  8.73106E+02
  1.45023E+03  1.10005E+03 -1.95768E+02  6.42358E+02 -4.30915E+02  3.13017E+02  7.04082E+02  5.41835E+02
 -8.35025E+02 -5.75561E+02 -8.81704E+02 -8.91892E+02 -6.19012E+02  6.49965E+02 -1.52515E+03 -5.51201E+02
 -1.63552E+03  2.95890E+02  5.62754E+02 -8.26369E+02 -8.45389E+01 -1.69387E+03  2.76720E+02 -1.12880E+03
  4.07027E+02  2.68627E+02  1.07689E+02 -2.79740E+02  6.92701E+02  4.33646E+02  2.32892E+02  1.12594E+03
