 $NMID ID='MM_0lb_SNR200_13hz_g50_17.RAW', FMTDAT='(8E13.5)'
 TRAMP=1., VOLUME=1. $END
  3.09141E+05  1.73182E+03  3.38524E+05  2.49799E+05  8.39443E+04  3.38154E+05 -1.33567E+05  2.51333E+05
 -1.90083E+05  8.29854E+04 -1.11152E+05 -3.30595E+04  9.61530E+02 -5.04361E+04  5.41216E+04 -2.48570E+02
  3.49054E+04  5.34398E+04 -1.64718E+04  7.54607E+04 -6.09654E+04  6.39703E+04 -8.44506E+04  3.18916E+04
 -8.13753E+04 -1.17630E+04 -5.80672E+04 -5.03452E+04 -1.46820E+04 -7.03699E+04  2.87761E+04 -4.52746E+04
  4.13458E+04  3.77860E+03  1.58860E+04  4.84958E+04 -3.46019E+04  4.76912E+04 -6.68531E+04  7.21935E+02
 -5.27349E+04 -5.72095E+04 -6.36792E+03 -7.87872E+04  3.45754E+04 -5.52106E+04  4.83266E+04 -1.77186E+04
  4.34930E+04  1.13799E+04  3.05013E+04  2.56268E+04  1.67144E+04  2.93213E+04 -4.43781E+03  2.72525E+04
 -2.24765E+04  1.32480E+04 -1.94324E+04 -5.69537E+03  6.34038E+03 -6.87605E+03  2.26040E+04  1.21608E+04
  6.79228E+03  3.60634E+04 -3.18499E+04  3.64235E+04 -6.45505E+04  2.23544E+03 -5.65797E+04 -4.43829E+04
 -1.24368E+04 -6.18496E+04  4.19541E+04 -4.56676E+04  5.84264E+04 -1.29819E+03  3.62596E+04  3.34217E+04
 -6.10394E+03  3.65021E+04 -3.09979E+04  1.72088E+04 -3.03760E+04 -4.10866E+03 -1.73154E+04 -1.25657E+04
 -8.92294E+03 -1.25791E+04  5.48680E+02 -1.84710E+04  7.07187E+03 -2.19619E+04  1.53688E+04 -1.37332E+04
  1.09154E+04  5.49380E+03 -9.34449E+03  1.42856E+04 -2.19702E+04 -4.41116E+03 -7.22149E+03 -3.59219E+04
  2.29425E+04 -4.41932E+04  4.91662E+04 -2.02296E+04  4.74376E+04  1.93196E+04  1.57422E+04  4.45831E+04
 -1.64605E+04  3.49718E+04 -2.54279E+04  2.55613E+03 -9.03035E+03 -2.83944E+04  2.09552E+04 -3.55430E+04
  4.21853E+04 -1.05506E+04  3.77233E+04  2.37318E+04  1.80710E+04  4.61872E+04 -8.25967E+03  5.11377E+04
 -3.24811E+04  3.41667E+04 -4.27930E+04  1.00998E+04 -4.44644E+04 -1.64833E+04 -2.40229E+04 -3.91605E+04
  6.43449E+03 -3.87296E+04  3.20441E+04 -1.44144E+04  3.15759E+04  1.12705E+04  3.34273E+03  1.87140E+04
 -1.21519E+04  9.13934E+03 -1.08488E+04 -7.16469E+03  5.31832E+03 -1.13435E+04  1.70511E+04  6.88256E+03
  1.42018E+04  2.10006E+04 -6.72839E+03  2.53854E+04 -2.19141E+04  1.28618E+04 -2.85828E+04 -5.79658E+03
 -2.11899E+04 -1.87060E+04 -9.07083E+03 -2.12894E+04  4.53989E+03 -2.21933E+04  1.71695E+04 -1.88139E+04
  2.74073E+04 -1.42432E+04  3.36758E+04  4.01324E+03  2.44372E+04  2.11967E+04  3.88407E+03  3.83404E+04
 -1.86479E+04  3.10411E+04 -2.88959E+04  1.10135E+04 -2.11210E+04 -1.03291E+04 -4.72935E+03 -1.31003E+04
  1.51024E+03 -1.54897E+03 -4.91908E+03  7.38235E+03 -1.60856E+04  4.55171E+03 -1.71417E+04 -8.32026E+03
 -1.05147E+04 -1.98986E+04  6.19453E+03 -2.42508E+04  1.59934E+04 -1.53143E+04  1.90759E+04 -1.17379E+03
  1.18090E+04  1.30843E+04 -7.93580E+02  1.83560E+04 -1.35544E+04  1.06970E+04 -2.02684E+04 -3.65342E+03
 -1.49603E+04 -1.69056E+04 -1.53649E+03 -2.33499E+04  9.28211E+03 -1.96874E+04  2.08561E+04 -8.96087E+03
  1.89885E+04  3.97501E+02  1.28671E+04  4.86156E+03  6.81879E+03  6.17699E+02  1.00911E+04 -1.66287E+03
  1.85800E+04  3.73698E+03  1.98645E+04  1.52675E+04  1.41149E+04  3.14246E+04 -2.86613E+03  3.61993E+04
 -2.04338E+04  3.02687E+04 -3.54430E+04  1.50507E+04 -3.55863E+04 -3.27616E+03 -2.98271E+04 -2.12300E+04
 -1.30011E+04 -2.95081E+04  1.00407E+04 -2.70833E+04  2.34693E+04 -1.38880E+04  2.00056E+04  4.76389E+03
  6.11694E+03  1.55919E+04 -9.16400E+03  1.38468E+04 -1.79501E+04  2.53621E+03 -1.41434E+04 -1.03800E+04
 -1.90564E+02 -1.64722E+04  9.29043E+03 -1.24464E+04  1.07154E+04 -1.43489E+03  2.42413E+03  6.42711E+03
 -8.23716E+03  2.69517E+03 -6.59171E+03 -6.61901E+03  4.09068E+02 -1.40299E+04  9.33652E+03 -1.46812E+04
  1.74976E+04 -7.19412E+03  2.05431E+04  3.76596E+03  1.68643E+04  1.43005E+04  8.63214E+03  2.22462E+04
 -4.19414E+03  2.54924E+04 -1.55895E+04  1.48172E+04 -1.83882E+04  4.37634E+03 -1.28568E+04 -4.06156E+03
 -6.91015E+03 -5.25798E+03 -6.15556E+02  1.02712E+02 -2.27391E+03  2.94795E+03 -6.66742E+03  4.32388E+03
 -1.16822E+04 -1.53664E+03 -1.21580E+04 -9.31748E+03 -5.05649E+03 -1.55156E+04  4.92406E+03 -1.32717E+04
  9.81155E+03 -4.98839E+03  7.42646E+03  2.44897E+03  5.18541E+02  3.46883E+03 -6.05462E+03  1.67299E+02
 -4.73026E+03 -7.88049E+03 -1.80775E+03 -1.24917E+04  7.09988E+03 -1.27307E+04  1.55986E+04 -7.56252E+03
  1.80909E+04 -2.36570E+01  1.28191E+04  1.04442E+04  1.37018E+03  1.47126E+04 -7.35393E+03  1.32675E+04
 -9.84799E+03  3.57111E+03 -5.35605E+03 -3.35268E+03  8.13816E+02 -4.17007E+03  7.35095E+03  1.61462E+03
  5.98338E+03  3.62303E+03  1.49163E+03  8.89432E+03 -6.88738E+03  8.71891E+03 -1.21130E+04  2.25288E+03
 -8.44538E+03 -6.08079E+03  6.49968E+02 -1.09575E+04  7.00069E+03 -4.48935E+03  7.11797E+03  1.92739E+03
 -4.57299E+02  7.30973E+03 -6.78212E+03  8.81254E+03 -9.20144E+03  3.56132E+03 -9.43467E+03 -1.96794E+03
 -4.56764E+03 -1.04680E+04  1.39427E+03 -1.37932E+04  1.04384E+04 -7.50769E+03  1.16487E+04  1.29658E+03
  7.55068E+03  8.88915E+03 -1.12340E+01  1.25199E+04 -7.59342E+03  7.24596E+03 -8.00180E+03 -1.63262E+03
 -7.53924E+03 -8.64442E+03  5.50432E+02 -9.33139E+03  3.49613E+03 -7.68249E+03  5.39241E+03 -2.98144E+03
  3.64698E+03  1.19669E+03  2.65938E+02  1.70228E+03  7.79690E+02 -2.67170E+03  5.53267E+02 -5.60401E+03
  7.87356E+03 -3.03253E+03  9.42717E+03  1.05367E+03  1.14987E+04  6.23955E+03  8.31036E+03  1.47107E+04
 -3.36897E+03  1.54347E+04 -1.38345E+04  1.09060E+04 -1.71404E+04  2.44485E+03 -1.33505E+04 -5.42667E+03
 -8.31788E+03 -1.25762E+04 -7.06932E+02 -1.00129E+04  2.69362E+03 -4.71405E+03  3.47487E+03 -2.52145E+03
  1.40938E+03 -2.32008E+03  4.01256E+03 -3.48529E+03  4.08799E+03 -2.79739E+03  5.56607E+03 -1.10242E+03
  7.46110E+03  8.44361E+02  4.11777E+03  5.65357E+03 -2.50671E+03  7.59697E+03 -8.58706E+03  6.00812E+03
 -9.38516E+03 -1.42560E+03 -4.83125E+03 -7.14785E+03  6.70874E+02 -1.10596E+04  5.77272E+03 -1.02044E+04
  1.03351E+04 -5.88432E+03  1.17236E+04  1.86925E+03  9.70791E+03  8.60233E+03  1.60083E+03  1.19230E+04
 -4.37953E+03  9.78289E+03 -6.24617E+03  2.27150E+03 -2.78769E+03 -9.72470E+02 -2.54602E+03 -1.34925E+03
 -3.37929E+02  1.49323E+03 -8.72984E+02  3.09680E+03 -3.65507E+03  1.57738E+03 -6.36762E+03 -1.40848E+02
 -2.95532E+03 -6.88973E+03  1.82382E+03 -9.99447E+03  5.02313E+03 -8.93804E+03  8.95969E+03 -1.31950E+03
  9.63522E+03  4.45558E+03  4.00513E+03  7.82891E+03 -2.51530E+03  9.13758E+03 -8.11641E+03  6.63370E+03
 -8.83341E+03  6.19536E+02 -6.54338E+03 -6.37130E+03 -1.40338E+03 -8.01350E+03  3.69963E+03 -4.67296E+03
  5.89257E+03 -1.67965E+03  2.88028E+03  1.64564E+03  2.14244E+03  3.06598E+03  1.77360E+03 -3.66014E+01
  1.10037E+03  2.35757E+03  6.82430E+02  2.39129E+03  2.86616E+03  2.51553E+03  2.82308E+03  3.92566E+03
 -1.70916E+03  7.29161E+03 -5.81417E+03  7.87111E+03 -8.76773E+03  2.30309E+03 -1.05895E+04 -3.48654E+03
 -4.36790E+03 -8.81868E+03  1.49226E+03 -9.69811E+03  4.99281E+03 -4.96161E+03  5.36289E+03 -4.03338E+02
  5.31789E+03  3.34384E+03  1.47946E+03  4.82317E+03 -1.34062E+03  1.91425E+03 -1.97456E+03 -8.12713E+01
 -2.10047E+03 -4.54270E+03  3.31202E+03 -4.06636E+03  4.61132E+03 -1.91265E+03  3.86446E+03  1.02148E+03
  2.26938E+03  1.42512E+03  1.15084E+03  3.22395E+01 -8.85125E+02  1.29742E+03  1.51193E+03  3.71064E+02
  3.71134E+02 -7.91190E+02  3.22997E+03  1.61026E+03  1.55528E+03  3.62735E+03  7.11810E+02  6.10681E+03
 -4.23862E+03  4.44627E+03 -5.93129E+03  2.09325E+03 -3.81149E+03 -7.96511E+02 -1.58923E+03 -2.55968E+03
  5.37004E+02 -1.96031E+03  3.32776E+03 -5.84057E+02  9.82666E+02  1.04610E+03 -4.21801E+02  2.98560E+03
 -3.19291E+03  6.30013E+02 -4.72895E+03 -1.29815E+03 -2.27028E+03 -4.39554E+03  1.69396E+02 -2.92865E+03
  2.23187E+03 -1.73418E+03  3.72436E+03  3.02248E+02  2.90594E+03  3.02585E+02  1.77037E+02  1.82625E+03
 -1.85799E+03 -1.04898E+02 -1.62095E+03 -8.70491E+02  1.09176E+03 -4.33379E+03  4.69507E+03 -2.28546E+03
  4.69450E+03  3.02412E+02  4.84293E+03  3.49122E+03  2.54576E+03  5.25690E+03 -1.34498E+03  4.65392E+03
 -4.70762E+03  2.97350E+03 -5.04973E+03  6.90597E+00 -1.48895E+03 -4.62351E+03  1.04682E+03 -3.54043E+03
  2.43938E+03 -1.64685E+03  1.64570E+03  1.73932E+03  4.92188E+02  3.96304E+03 -4.87548E+02  2.86983E+03
 -1.93818E+03  2.59666E+03 -2.68782E+03  1.35640E+03 -1.37815E+03 -3.95039E+01 -1.10761E+03  1.55370E+03
 -1.74443E+03  1.99598E+03 -2.83260E+03  6.83378E+02 -5.01688E+03 -9.09141E+01 -5.38272E+03 -3.31982E+03
 -3.79567E+03 -6.32101E+03  1.95200E+03 -8.58364E+03  5.18178E+03 -6.12707E+03  8.18323E+03 -4.19228E+03
  8.18962E+03  8.96977E+01  4.76798E+03  5.32360E+03 -4.89029E+02  5.30765E+03 -9.96264E+02  3.18783E+03
 -1.47899E+03  2.21648E+03 -3.06013E+03 -3.81261E+02 -1.24170E+03 -6.67493E+02  9.15183E+02 -1.16964E+03
 -2.18900E+03  8.53338E+02 -1.27199E+02  6.43714E+02 -3.76580E+02 -1.13311E+03 -3.45436E+02 -2.27564E+03
  3.12858E+03 -2.29432E+03  2.28443E+03  9.89756E+02  3.77475E+03  2.67746E+03 -4.78999E+02  4.85082E+03
 -2.48676E+03  6.44097E+03 -5.57708E+03  3.65212E+03 -5.69197E+03 -6.63008E+02 -4.55110E+03 -3.21304E+03
 -1.56138E+03 -4.50849E+03  8.77309E+02 -5.11941E+03  2.47468E+03 -2.11357E+03  2.62256E+03 -9.63878E+02
  5.82096E+02  1.61093E+03 -1.24705E+02  1.26737E+03 -3.68028E+02 -5.91621E+02  1.17349E+02 -1.47039E+03
  7.70627E+02 -6.18183E+01  3.46488E+03  2.00808E+03  7.98156E+00  2.72186E+03  6.74026E+02  6.02477E+02
 -1.83646E+03  1.12589E+03 -3.63695E+03  4.83782E+02 -2.87565E+03 -2.85495E+03 -1.50187E+03 -4.45709E+03
  1.86259E+03 -3.25679E+03  3.29755E+03 -1.20776E+03  3.86289E+03  2.69539E+03  2.84764E+03  3.35248E+03
  3.84671E+02  2.18475E+03 -1.93063E+03  2.33039E+03 -1.04565E+03  2.17190E+03 -1.98161E+03  1.04341E+03
 -9.34596E+02  6.22488E+01 -1.48492E+03  6.57555E+02 -2.28350E+03  6.02882E+00 -1.54899E+03 -8.97923E+02
 -3.26653E+03 -3.35412E+02  4.35332E+01 -2.71348E+03  2.00539E+03 -3.38759E+03  3.07800E+03 -2.32296E+03
  1.31112E+03 -1.40451E+02  1.11862E+03  1.71236E+03 -1.46961E+03  1.55216E+03 -2.29934E+03  1.59945E+03
