 $NMID ID='MM_0lb_SNR200_8hz_g55_15.RAW', FMTDAT='(8E13.5)'
 TRAMP=1., VOLUME=1. $END
  3.10044E+05  1.71303E+03  3.39539E+05  2.48969E+05  8.45193E+04  3.39752E+05 -1.32622E+05  2.52700E+05
 -1.89934E+05  8.40741E+04 -1.12316E+05 -3.27566E+04 -1.01849E+02 -5.09512E+04  5.55479E+04 -1.45406E+03
  3.48339E+04  5.32351E+04 -1.68635E+04  7.57189E+04 -5.99682E+04  6.35361E+04 -8.57073E+04  3.26324E+04
 -8.30244E+04 -1.14710E+04 -5.74054E+04 -5.30732E+04 -1.55591E+04 -7.15377E+04  2.83397E+04 -4.62561E+04
  4.24743E+04  4.79268E+03  1.63719E+04  4.87540E+04 -3.58673E+04  4.97099E+04 -6.86022E+04  5.10100E+02
 -5.63916E+04 -5.82793E+04 -6.40030E+03 -7.90516E+04  3.65092E+04 -5.63454E+04  5.06674E+04 -1.84458E+04
  4.72462E+04  1.19096E+04  3.32717E+04  2.60903E+04  1.42213E+04  3.05124E+04 -6.74267E+03  2.70495E+04
 -2.16111E+04  9.98749E+03 -1.72514E+04 -5.68847E+03  8.16080E+03 -8.63774E+03  2.34312E+04  1.31402E+04
  6.31706E+03  3.86752E+04 -3.35203E+04  3.82499E+04 -6.75436E+04  7.91539E+02 -6.01916E+04 -4.39920E+04
 -1.02764E+04 -6.68836E+04  4.39222E+04 -4.60305E+04  6.07305E+04 -3.46500E+03  3.80003E+04  3.58623E+04
 -6.50990E+03  4.10882E+04 -3.20737E+04  2.01953E+04 -3.32955E+04 -1.63648E+03 -1.89503E+04 -1.15642E+04
 -1.02455E+04 -1.72590E+04 -7.90304E+02 -2.07211E+04  8.60622E+03 -2.47611E+04  1.64529E+04 -1.14127E+04
  1.04866E+04  5.37241E+03 -1.16533E+04  1.16116E+04 -2.46476E+04 -6.82515E+03 -1.00092E+04 -3.92412E+04
  2.66025E+04 -4.69521E+04  5.47696E+04 -2.09001E+04  5.03158E+04  2.26095E+04  1.85764E+04  4.98318E+04
 -1.85149E+04  3.58809E+04 -2.79666E+04  2.87242E+03 -1.31868E+04 -3.02727E+04  2.18137E+04 -3.85067E+04
  4.46622E+04 -1.07470E+04  4.18643E+04  2.55043E+04  2.38174E+04  5.31155E+04 -9.08120E+03  5.73140E+04
 -3.50235E+04  3.78415E+04 -4.83675E+04  1.18382E+04 -4.90623E+04 -1.77555E+04 -2.74721E+04 -4.29030E+04
  7.94403E+03 -4.29006E+04  3.51024E+04 -1.67400E+04  3.30562E+04  1.25954E+04  6.40487E+03  2.15215E+04
 -1.35415E+04  1.13337E+04 -1.07740E+04 -7.67685E+03  5.43701E+03 -9.46844E+03  1.96181E+04  4.56626E+03
  1.51064E+04  2.21628E+04 -3.18342E+03  2.69412E+04 -2.40618E+04  1.41039E+04 -3.34624E+04 -2.85785E+03
 -2.57979E+04 -1.91570E+04 -1.35241E+04 -2.59973E+04  5.97429E+03 -2.71818E+04  2.32322E+04 -2.44148E+04
  3.51725E+04 -1.43079E+04  4.02432E+04  5.00500E+03  2.83667E+04  2.56767E+04  5.38012E+03  4.22734E+04
 -2.04824E+04  3.22709E+04 -3.13592E+04  1.19180E+04 -2.30090E+04 -1.04718E+04 -5.95709E+03 -1.35238E+04
 -1.34954E+03 -2.73757E+02 -7.92511E+03  7.57182E+03 -2.27533E+04  6.44952E+03 -2.08112E+04 -1.12775E+04
 -1.19257E+04 -2.40459E+04  7.49948E+03 -2.94787E+04  2.07617E+04 -2.07158E+04  2.50140E+04 -1.82660E+03
  1.61362E+04  1.63736E+04 -1.42915E+03  2.55825E+04 -1.83172E+04  1.45109E+04 -2.61397E+04 -4.81769E+03
 -1.73076E+04 -2.20913E+04 -2.20733E+03 -2.94491E+04  1.40079E+04 -2.50611E+04  2.39411E+04 -1.21833E+04
  2.45139E+04 -7.69405E+02  1.61806E+04  3.95685E+03  8.57565E+03  2.52301E+03  1.23578E+04 -2.61092E+03
  2.54951E+04  3.57025E+03  2.68269E+04  1.94838E+04  1.96145E+04  4.05436E+04 -1.70382E+03  4.62865E+04
 -2.51510E+04  4.13537E+04 -4.60580E+04  2.22198E+04 -4.93712E+04 -3.05098E+03 -3.98642E+04 -2.87713E+04
 -1.78280E+04 -4.13134E+04  1.56235E+04 -3.71306E+04  3.03396E+04 -1.53709E+04  2.48693E+04  8.28838E+03
  7.67206E+03  1.99534E+04 -1.37756E+04  1.75430E+04 -2.16226E+04  3.57865E+03 -1.76332E+04 -1.48700E+04
 -2.36928E+03 -1.99701E+04  1.14419E+04 -1.50189E+04  1.59483E+04 -1.39642E+03  4.11706E+03  8.68621E+03
 -9.35550E+03  4.02213E+03 -1.04449E+04 -6.99483E+03 -1.69658E+03 -2.05648E+04  1.12616E+04 -2.18406E+04
  2.42962E+04 -1.07239E+04  2.99768E+04  4.76983E+03  2.43852E+04  2.01269E+04  1.36381E+04  3.33887E+04
 -6.44721E+03  3.25857E+04 -1.97935E+04  2.00980E+04 -2.75812E+04  5.15767E+03 -1.74887E+04 -7.26199E+03
 -5.24924E+03 -8.53338E+03  1.04447E+03  1.62674E+03 -3.24273E+03  3.93686E+03 -8.66653E+03  5.54664E+03
 -1.47095E+04  2.05236E+02 -1.53283E+04 -1.32097E+04 -5.89473E+03 -1.99232E+04  7.55410E+03 -1.83605E+04
  1.35419E+04 -5.76591E+03  8.95941E+03  3.41624E+03 -2.04799E+03  7.16597E+03 -7.98281E+03 -3.04676E+02
 -9.73494E+03 -1.11961E+04 -1.48873E+03 -1.66057E+04  1.13585E+04 -1.70773E+04  2.38890E+04 -1.01364E+04
  2.74807E+04  2.55726E+03  1.91171E+04  1.57913E+04  3.68154E+03  2.08307E+04 -1.04016E+04  1.75215E+04
 -1.28955E+04  3.26626E+03 -8.41254E+03 -2.17661E+03  2.15114E+03 -4.12534E+03  8.64938E+03 -5.40281E+02
  7.36886E+03  7.53251E+03  9.69275E+02  1.26069E+04 -9.33878E+03  1.48368E+04 -1.78121E+04  4.06473E+03
 -1.27228E+04 -7.68766E+03  8.50858E+02 -1.48052E+04  1.05534E+04 -6.65556E+03  9.88710E+03  4.18411E+03
  2.04727E+03  1.20694E+04 -8.77279E+03  1.32415E+04 -1.66005E+04  5.64310E+03 -1.65441E+04 -5.30579E+03
 -8.38256E+03 -1.64828E+04  5.53717E+03 -2.07574E+04  1.82319E+04 -1.30712E+04  1.79783E+04  1.61397E+03
  1.10149E+04  1.47104E+04 -1.73930E+03  1.76365E+04 -1.27924E+04  9.24873E+03 -1.54544E+04 -5.75378E+02
 -1.20162E+04 -1.24656E+04 -1.29485E+03 -1.27740E+04  7.32044E+03 -1.03057E+04  9.47397E+03 -3.87121E+03
  5.59216E+03  2.15989E+03 -7.61846E+02  2.87932E+03 -1.54361E+03 -2.83808E+03  3.73451E+03 -8.26338E+03
  1.19718E+04 -6.48099E+03  1.88139E+04  5.63103E+02  1.78400E+04  1.24629E+04  1.32582E+04  2.34031E+04
 -4.54176E+03  3.05243E+04 -2.38200E+04  1.97210E+04 -2.81528E+04  4.96926E+03 -2.37394E+04 -1.10172E+04
 -1.22567E+04 -1.84048E+04  3.67564E+02 -1.68759E+04  6.49604E+03 -8.98035E+03  7.07095E+03 -5.73477E+03
  4.76117E+03 -3.20285E+03  5.85881E+03 -5.21273E+03  6.48380E+03 -6.31488E+03  1.05862E+04 -2.26022E+03
  1.23542E+04  2.53967E+03  5.52272E+03  1.15524E+04 -1.50705E+03  1.23064E+04 -1.41688E+04  9.75221E+03
 -1.74107E+04 -3.48125E+02 -1.22878E+04 -1.05849E+04 -4.43108E+02 -1.79268E+04  9.58648E+03 -1.93869E+04
  1.84855E+04 -1.14404E+04  2.02604E+04  3.90708E+03  1.47268E+04  1.59171E+04  2.26513E+03  2.00400E+04
 -7.90171E+03  1.52719E+04 -1.05029E+04  5.58714E+03 -5.86379E+03 -1.55539E+03 -3.85759E+03 -1.47038E+03
 -1.83797E+03 -1.33819E+03 -2.50162E+03  2.03327E+03 -6.65263E+03  3.40126E+03 -1.14252E+04 -2.97120E+03
 -7.51615E+03 -1.01985E+04  1.10693E+03 -1.79831E+04  9.92749E+03 -1.47732E+04  1.74324E+04 -3.96629E+03
  1.66357E+04  6.89350E+03  7.34087E+03  1.61201E+04 -3.30604E+03  1.86636E+04 -1.32798E+04  1.20518E+04
 -1.68188E+04 -4.95275E+02 -1.23917E+04 -1.17563E+04 -1.97760E+03 -1.39893E+04  6.98424E+03 -1.21262E+04
  1.12235E+04 -3.88750E+03  7.48741E+03  2.91300E+03  1.67278E+03  5.77791E+03  1.14238E+03  3.96563E+03
  3.41500E+03  2.02125E+03  4.18984E+03  2.67044E+03  5.85997E+03  6.06337E+03  6.58066E+03  8.08783E+03
 -2.51966E+03  1.42262E+04 -1.37145E+04  1.20251E+04 -1.96761E+04  3.93642E+03 -1.77036E+04 -8.45140E+03
 -9.78605E+03 -1.76573E+04  1.99764E+03 -1.92560E+04  1.09311E+04 -1.40814E+04  1.36593E+04 -1.85032E+03
  9.26955E+03  7.15704E+03  3.36454E+03  9.67891E+03 -4.53471E+03  6.61273E+03 -6.94455E+03  1.56092E+02
 -2.96131E+03 -7.12613E+03  3.08156E+03 -7.84929E+03  7.23120E+03 -1.81986E+03  6.75472E+03  1.08481E+03
  4.08379E+03  1.81046E+03  2.12084E+03  1.43555E+03 -1.12609E+03  1.59570E+03  1.89194E+03  1.40735E+03
  1.94028E+03 -2.04211E+03  9.47104E+03  2.74283E+03  4.39873E+03  9.48480E+03 -1.68258E+03  1.01398E+04
 -8.58255E+03  7.18740E+03 -1.01681E+04  2.96738E+03 -9.68137E+03 -4.39765E+03 -3.11382E+03 -7.79244E+03
  1.46876E+03 -6.73392E+03  6.16212E+03 -1.85773E+03  3.49993E+03  4.11996E+03 -2.50808E+03  6.03385E+03
 -7.17309E+03  3.69905E+03 -8.30921E+03 -2.67116E+03 -5.63002E+03 -9.37924E+03  8.09770E+02 -9.45169E+03
  7.72655E+03 -7.62544E+03  7.36481E+03 -7.85855E+02  4.79693E+03  2.47185E+03  7.86873E+02  4.54553E+03
 -4.74878E+03  1.18233E+02 -3.16004E+03 -3.97771E+03  2.22902E+03 -7.92607E+03  1.06938E+04 -6.24471E+03
  1.29456E+04  1.08097E+03  9.90918E+03  9.33989E+03  4.42005E+03  1.31444E+04 -4.41357E+03  1.04075E+04
 -1.04562E+04  5.11573E+03 -1.20364E+04 -1.55312E+03 -6.51353E+03 -8.57668E+03  6.52314E+02 -7.89117E+03
  6.74754E+03 -3.46043E+03  7.70092E+03  2.55513E+03  4.23581E+03  7.28252E+03 -2.07201E+03  5.21533E+03
 -4.87336E+03  3.07670E+03 -2.39083E+03  3.22042E+03 -2.68569E+02  5.61128E+02 -2.75289E+03  2.64645E+03
 -2.96765E+03  4.09102E+03 -8.64303E+03  4.22023E+03 -1.44061E+04  7.65033E+02 -1.49273E+04 -8.17991E+03
 -5.98328E+03 -1.55737E+04  1.91216E+03 -1.79499E+04  1.07648E+04 -1.25823E+04  2.05069E+04 -4.83952E+03
  1.69130E+04  3.70411E+03  1.03695E+04  1.11719E+04  4.01732E+02  1.39608E+04 -2.84649E+03  1.04874E+04
 -6.44690E+03  4.47053E+03 -4.81249E+03 -2.32711E+02 -2.08832E+03 -7.12871E+02 -1.02364E+03 -8.53472E+02
 -9.12955E+02 -3.03669E+02 -2.44544E+03  4.41170E+02 -4.94878E+02 -4.12890E+03 -6.37644E+01 -5.02708E+03
  5.94876E+03 -4.22647E+03  8.14665E+03 -5.19915E+02  9.23562E+03  6.82925E+03  2.73498E+03  1.08392E+04
 -5.32003E+03  1.59222E+04 -1.23754E+04  6.60366E+03 -1.68544E+04 -3.12590E+02 -1.10049E+04 -9.71639E+03
 -5.45561E+03 -1.31878E+04  4.78187E+03 -1.20415E+04  9.11459E+03 -6.18246E+03  8.38371E+03  1.17841E+03
  3.19034E+03  5.81669E+03  1.67176E+03  4.20420E+03 -2.98211E+03 -6.86099E+02  5.72218E+02 -2.36324E+03
  2.03084E+03 -1.55732E+03  5.81054E+03  2.74413E+03  3.07503E+03  4.39677E+03 -1.15523E+03  8.89415E+03
 -5.94965E+03  5.96273E+03 -8.63583E+03 -1.09355E+03 -8.77906E+03 -6.34135E+03 -2.13762E+03 -1.27204E+04
  4.07171E+03 -8.61103E+03  1.23046E+04 -2.42736E+03  9.28339E+03  2.82511E+03  6.48451E+03  9.79373E+03
  2.68280E+03  8.42377E+03 -1.75964E+03  8.89376E+03 -5.90660E+03  5.24302E+03 -5.73711E+03 -1.26275E+02
 -2.70414E+03 -6.76600E+02 -4.92348E+03  1.98076E+03 -4.12619E+03  2.19619E+02 -7.16853E+03 -1.62412E+03
 -7.38689E+03 -4.66548E+03 -1.69177E+03 -7.78108E+03  4.59394E+03 -9.14540E+03  6.83254E+03 -2.72015E+03
  8.89431E+03  6.97431E+02  3.53389E+03  8.64109E+03 -3.26192E+03  1.03940E+04 -7.48003E+03  5.99885E+03
