 $NMID ID='MM_0lb_SNR200_10hz_g55_47.RAW', FMTDAT='(8E13.5)'
 TRAMP=1., VOLUME=1. $END
  3.09752E+05  7.82286E+02  3.38137E+05  2.51495E+05  8.45136E+04  3.38247E+05 -1.31622E+05  2.53708E+05
 -1.91188E+05  8.53634E+04 -1.12407E+05 -3.19584E+04  2.46292E+02 -5.26450E+04  5.29441E+04  1.06190E+03
  3.57524E+04  5.36300E+04 -1.71471E+04  7.70465E+04 -6.00809E+04  6.49731E+04 -8.66774E+04  3.42325E+04
 -8.36963E+04 -1.10005E+04 -5.69990E+04 -5.16467E+04 -1.56151E+04 -7.12111E+04  2.91231E+04 -4.60074E+04
  4.09983E+04  3.38154E+03  1.69743E+04  4.81256E+04 -3.22303E+04  4.84405E+04 -6.78384E+04  1.02262E+03
 -5.41487E+04 -5.79910E+04 -7.54534E+03 -7.93616E+04  3.51581E+04 -5.89596E+04  4.99670E+04 -1.73862E+04
  4.57303E+04  1.06207E+04  3.28407E+04  2.79393E+04  1.62599E+04  2.87798E+04 -6.18131E+03  2.78409E+04
 -2.30627E+04  1.35337E+04 -1.83774E+04 -6.56641E+03  8.00039E+03 -7.24590E+03  2.33335E+04  1.45813E+04
  8.79617E+03  3.81477E+04 -3.49233E+04  3.68979E+04 -6.34435E+04  3.50720E+03 -5.83335E+04 -4.37361E+04
 -1.25269E+04 -6.46903E+04  4.22394E+04 -4.67703E+04  6.26575E+04 -3.07802E+03  3.62220E+04  3.32715E+04
 -6.18383E+03  4.14226E+04 -3.18048E+04  2.01935E+04 -3.12440E+04 -3.13749E+03 -1.83147E+04 -1.26332E+04
 -1.04424E+04 -1.67268E+04 -1.99631E+02 -2.02490E+04  8.27525E+03 -2.19675E+04  1.64214E+04 -1.15871E+04
  1.01529E+04  4.75190E+03 -9.60107E+03  1.07177E+04 -2.36294E+04 -6.97204E+03 -6.97390E+03 -3.93030E+04
  2.42779E+04 -4.70651E+04  5.15597E+04 -2.19702E+04  4.83893E+04  1.97410E+04  1.54178E+04  4.82230E+04
 -1.72760E+04  3.63681E+04 -2.82700E+04  1.79427E+03 -1.08102E+04 -2.96246E+04  2.13726E+04 -3.74800E+04
  4.36262E+04 -9.91850E+03  4.04604E+04  2.48046E+04  2.11139E+04  5.11445E+04 -7.91601E+03  5.40150E+04
 -3.66921E+04  3.92023E+04 -4.77753E+04  1.13232E+04 -4.83416E+04 -2.02782E+04 -2.67242E+04 -4.23204E+04
  6.89179E+03 -4.26757E+04  3.32731E+04 -1.69157E+04  3.31522E+04  1.17878E+04  5.01577E+03  1.99570E+04
 -1.34473E+04  8.87999E+03 -1.25724E+04 -8.76461E+03  5.24444E+03 -1.04218E+04  1.80322E+04  5.13867E+03
  1.38600E+04  2.28050E+04 -5.65718E+03  2.66222E+04 -2.41140E+04  1.40047E+04 -3.05399E+04 -3.15045E+03
 -2.64752E+04 -1.86476E+04 -1.07178E+04 -2.41362E+04  4.34103E+03 -2.47008E+04  1.97874E+04 -2.20117E+04
  3.00778E+04 -1.52106E+04  3.81348E+04  1.70165E+03  2.57200E+04  2.34870E+04  4.79708E+03  4.00460E+04
 -2.02028E+04  3.62033E+04 -2.78553E+04  1.16881E+04 -2.15687E+04 -1.09533E+04 -5.01347E+03 -1.29907E+04
  7.37038E+02 -2.23221E+03 -9.29428E+03  6.55481E+03 -1.88262E+04  5.47366E+03 -2.00669E+04 -9.98335E+03
 -1.18316E+04 -2.19476E+04  5.70637E+03 -2.65265E+04  1.75842E+04 -1.98541E+04  2.09364E+04 -1.61709E+03
  1.41553E+04  1.62283E+04  5.76586E+02  2.28640E+04 -1.74271E+04  1.32082E+04 -2.49498E+04 -6.20640E+03
 -1.64952E+04 -2.02784E+04 -1.99372E+03 -2.81901E+04  1.21268E+04 -2.32208E+04  2.35978E+04 -1.10644E+04
  2.15635E+04 -3.51641E+02  1.63640E+04  5.46748E+03  8.45040E+03  3.19662E+02  1.09949E+04 -1.95952E+03
  2.17937E+04  2.83711E+03  2.43979E+04  1.81580E+04  1.70905E+04  3.66022E+04 -1.20893E+03  4.32918E+04
 -2.27823E+04  3.51368E+04 -4.09686E+04  1.89017E+04 -4.45283E+04 -4.81624E+03 -3.45549E+04 -2.61461E+04
 -1.37752E+04 -3.65022E+04  1.24381E+04 -3.12353E+04  2.77898E+04 -1.49997E+04  2.37658E+04  7.61017E+03
  9.45353E+03  1.82952E+04 -1.26617E+04  1.46428E+04 -1.95517E+04  3.67618E+03 -1.66342E+04 -1.18951E+04
 -1.83502E+02 -1.71698E+04  1.13389E+04 -1.29360E+04  1.28180E+04  3.67834E+02  3.82237E+03  7.07359E+03
 -9.66059E+03  3.78538E+03 -9.18575E+03 -7.09393E+03 -3.00985E+03 -1.72294E+04  1.10568E+04 -2.01995E+04
  2.11558E+04 -9.97144E+03  2.61630E+04  1.91112E+03  2.17200E+04  1.76741E+04  1.08262E+04  2.71635E+04
 -6.03929E+03  3.03881E+04 -1.86964E+04  1.95413E+04 -2.31723E+04  2.61412E+03 -1.46518E+04 -5.47267E+03
 -5.52281E+03 -6.73389E+03 -1.16014E+03 -6.05200E+01 -3.94742E+03  3.03413E+03 -8.03641E+03  5.42973E+03
 -1.33947E+04 -1.96720E+03 -1.57122E+04 -1.10909E+04 -5.43024E+03 -1.76027E+04  7.75960E+03 -1.59979E+04
  1.28274E+04 -4.61250E+03  8.29996E+03  4.22884E+03 -4.42325E+01  4.97189E+03 -8.18877E+03 -2.93093E+02
 -6.55419E+03 -1.00624E+04 -9.88321E+02 -1.53319E+04  8.51078E+03 -1.54697E+04  1.97075E+04 -7.60502E+03
  2.27642E+04  2.28121E+03  1.66291E+04  1.26230E+04  2.62527E+03  1.87431E+04 -7.53843E+03  1.57845E+04
 -1.25530E+04  4.49483E+03 -7.89731E+03 -3.06362E+03  2.38754E+03 -4.25038E+03  7.97036E+03 -1.20358E+03
  6.52365E+03  7.33723E+03  7.40013E+01  1.13203E+04 -9.03880E+03  1.19901E+04 -1.55658E+04  1.97729E+03
 -1.06202E+04 -7.35904E+03  1.29754E+02 -1.25709E+04  7.16110E+03 -6.27411E+03  8.18322E+03  2.45448E+03
  2.66108E+03  1.00033E+04 -8.10842E+03  1.04275E+04 -1.37426E+04  4.88698E+03 -1.20803E+04 -4.26952E+03
 -6.93980E+03 -1.53455E+04  3.38456E+03 -1.73452E+04  1.50526E+04 -9.66574E+03  1.55111E+04  1.48356E+03
  9.32458E+03  1.21403E+04 -1.07367E+03  1.59116E+04 -1.11608E+04  8.39369E+03 -1.37485E+04 -8.19127E+02
 -8.62721E+03 -9.87598E+03 -7.21405E+02 -1.05450E+04  6.77680E+03 -8.36535E+03  7.70321E+03 -3.96748E+03
  4.85498E+03 -2.23921E+02 -1.34779E+03  4.10044E+02 -7.82460E+02 -3.54118E+03  2.99528E+03 -8.13785E+03
  9.28152E+03 -4.57142E+03  1.59637E+04  2.62738E+03  1.63482E+04  1.00066E+04  1.09328E+04  2.18542E+04
 -3.58209E+03  2.27939E+04 -1.79747E+04  1.59786E+04 -2.39822E+04  3.61296E+03 -1.89961E+04 -8.35470E+03
 -1.01102E+04 -1.65517E+04 -1.77624E+02 -1.15322E+04  3.77966E+03 -7.49622E+03  3.80347E+03 -3.97219E+03
  1.01808E+03 -3.91756E+03  5.23160E+03 -2.51076E+03  4.42347E+03 -3.32445E+03  9.77232E+03 -4.10822E+02
  1.12999E+04  1.97798E+03  4.99223E+03  9.33364E+03 -2.13159E+03  1.03037E+04 -1.15032E+04  8.51690E+03
 -1.33532E+04 -1.55275E+03 -9.57360E+03 -1.01911E+04 -6.92244E+02 -1.40075E+04  6.15855E+03 -1.50629E+04
  1.63630E+04 -8.58481E+03  1.86842E+04  1.35335E+03  1.29125E+04  1.29447E+04  2.45741E+03  1.66787E+04
 -7.30550E+03  1.52207E+04 -7.75730E+03  5.00407E+03 -5.59284E+03 -2.36867E+03 -3.48738E+03 -2.89318E+03
 -3.11992E+03 -1.17371E+03 -1.92474E+03  2.60696E+03 -4.99683E+03  1.86935E+03 -9.88187E+03 -1.45674E+03
 -6.92546E+03 -9.31927E+03  5.15445E+01 -1.43690E+04  8.60910E+03 -1.23351E+04  1.38218E+04 -4.22181E+03
  1.40798E+04  5.99396E+03  4.85784E+03  1.09647E+04 -2.76457E+03  1.40129E+04 -1.06517E+04  8.05191E+03
 -1.38884E+04 -2.97699E+02 -9.13067E+03 -8.02114E+03 -6.83928E+02 -1.09550E+04  7.42026E+03 -8.84800E+03
  9.76477E+03 -3.83097E+03  7.07869E+03  1.84555E+03  9.54193E+02  3.50520E+03  1.96560E+03  1.14659E+03
  2.49428E+03  2.16365E+03  4.20179E+03  2.00859E+03  3.88900E+03  4.49765E+03  4.56406E+03  7.68950E+03
 -2.61212E+03  1.19124E+04 -9.10059E+03  1.15155E+04 -1.55482E+04  3.48164E+03 -1.40612E+04 -5.99576E+03
 -5.50819E+03 -1.49135E+04  1.52417E+03 -1.62460E+04  9.18256E+03 -8.31081E+03  1.19195E+04 -2.26479E+03
  8.91972E+03  2.68903E+03  5.10600E+02  7.20773E+03 -2.47314E+03  4.25899E+03 -6.90483E+03 -2.20101E+03
 -2.41622E+03 -4.89621E+03  3.78820E+03 -6.20628E+03  5.12721E+03 -3.77820E+03  5.47101E+03  2.36285E+03
  2.76019E+03  8.17609E+02  3.43284E+02  3.13955E+03  1.72681E+02  2.84707E+03  2.64133E+03  2.57090E+02
  9.77952E+02  5.25476E+02  4.70465E+03  1.42564E+03  4.15307E+03  7.39324E+03 -1.95919E+03  9.27147E+03
 -5.23595E+03  5.95882E+03 -8.36117E+03  1.00465E+03 -6.89371E+03 -3.45746E+03 -2.10079E+03 -4.13374E+03
  1.57151E+03 -5.28553E+03  4.12730E+03 -4.14622E+03  1.86088E+03  2.53261E+03 -2.71123E+03  5.13222E+03
 -4.85868E+03  1.77838E+03 -5.79744E+03 -3.13257E+03 -4.26283E+03 -8.01890E+03  1.31965E+03 -8.08271E+03
  4.81879E+03 -4.88109E+03  4.88216E+03  3.93018E+02  4.09239E+03  8.02414E+02  8.02836E+02  5.07939E+03
 -3.37430E+03 -2.23197E+02 -4.21953E+03 -2.46327E+03  1.13609E+03 -5.30628E+03  7.54961E+03 -5.08233E+03
  8.80177E+03  1.07711E+03  9.92396E+03  5.81488E+03  2.53211E+03  7.62804E+03 -2.47404E+03  8.69552E+03
 -7.35867E+03  3.97651E+03 -7.03124E+03 -1.09452E+03 -4.98572E+03 -7.21347E+03  1.09896E+03 -5.05550E+03
  5.39918E+03 -2.47383E+03  5.00472E+03  2.70472E+03  7.30951E+02  5.73779E+03 -2.12371E+03  3.40823E+03
 -2.12424E+03  3.46883E+03 -1.95265E+03  1.80529E+03 -8.62284E+02  1.75377E+03 -2.35140E+03  9.22557E+02
 -2.79941E+03  3.15339E+03 -5.41562E+03  4.02332E+03 -8.57173E+03  6.16582E+02 -1.03928E+04 -6.20129E+03
 -6.13614E+03 -1.23777E+04  1.84956E+03 -1.33277E+04  8.65925E+03 -1.13144E+04  1.36929E+04 -4.59700E+03
  1.22248E+04  1.77391E+03  8.06129E+03  8.34542E+03  2.24619E+01  8.92791E+03 -4.76075E+03  6.43819E+03
 -6.50119E+03  4.20752E+03 -4.46040E+03 -1.18721E+03  3.27965E+02 -5.85964E+02 -4.56203E+02  1.66300E+02
 -8.57953E+02 -1.86030E+02 -2.16831E+03 -5.44799E+02 -1.03864E+02 -2.08787E+03  1.95341E+03 -3.42943E+03
  4.96583E+03 -2.30089E+03  4.86005E+03  5.15692E+02  7.47140E+03  4.34516E+03  1.18976E+02  8.88960E+03
 -4.49619E+03  1.01140E+04 -9.26245E+03  5.91292E+03 -1.12167E+04 -1.08013E+03 -9.04415E+03 -6.79883E+03
 -3.40924E+03 -7.34925E+03  2.61228E+03 -7.12134E+03  6.40905E+03 -5.59118E+03  5.44567E+03  5.08811E+02
  4.02713E+03  3.31000E+03  2.22071E+01  2.46854E+03 -3.54504E+03 -7.65741E+02 -3.74549E+02 -2.29303E+03
  3.12598E+03 -1.41380E+03  2.81152E+03  3.92915E+01  2.96635E+03  3.32125E+03  1.46160E+03  3.22094E+03
 -3.41128E+03  4.27337E+03 -5.30714E+03 -5.15487E+01 -5.48508E+03 -4.95786E+03 -8.45688E+02 -9.05183E+03
  3.73738E+03 -6.19866E+03  7.60559E+03 -1.69527E+03  6.15023E+03  2.45755E+03  4.73802E+03  6.13441E+03
 -2.82511E+02  5.62638E+03 -2.06147E+03  4.76200E+03 -3.16315E+03  4.04036E+03 -3.06813E+03 -3.57771E+02
 -1.16130E+03 -6.61494E+02 -1.13676E+03  1.80020E+03 -4.73441E+03  1.72663E+03 -4.61431E+03 -1.47388E+03
 -4.71886E+03 -1.72192E+03 -2.13323E+03 -6.45415E+03  1.97913E+03 -7.07818E+03  4.47359E+03 -4.47968E+03
  6.64571E+03  9.20279E+02  3.83926E+03  3.82354E+03 -2.11912E+03  5.40919E+03 -3.90047E+03  4.03950E+03
