 $NMID ID='MM_0lb_SNR200_9hz_g45_13.RAW', FMTDAT='(8E13.5)'
 TRAMP=1., VOLUME=1. $END
  3.11014E+05  5.68908E+01  3.37491E+05  2.49900E+05  8.54954E+04  3.38052E+05 -1.31355E+05  2.53044E+05
 -1.91300E+05  8.38284E+04 -1.12639E+05 -3.19686E+04 -1.75960E+02 -4.97314E+04  5.51983E+04 -8.74195E+02
  3.56369E+04  5.42198E+04 -1.62193E+04  7.65853E+04 -6.08385E+04  6.43046E+04 -8.53723E+04  3.30901E+04
 -8.24066E+04 -1.32194E+04 -5.83700E+04 -5.13878E+04 -1.56207E+04 -7.08583E+04  2.87544E+04 -4.69062E+04
  4.07719E+04  4.38799E+03  1.63894E+04  4.82318E+04 -3.49474E+04  4.92654E+04 -6.81469E+04 -1.52208E+03
 -5.58236E+04 -5.55764E+04 -7.70676E+03 -7.77330E+04  3.59146E+04 -5.63203E+04  5.06860E+04 -1.86372E+04
  4.42885E+04  1.17479E+04  3.30716E+04  2.58839E+04  1.47226E+04  3.00285E+04 -4.98534E+03  2.64458E+04
 -2.05478E+04  1.27125E+04 -1.84849E+04 -6.24170E+03  6.62333E+03 -7.36444E+03  2.05713E+04  1.43729E+04
  4.94739E+03  3.81661E+04 -3.32843E+04  3.70550E+04 -6.57275E+04  2.16104E+03 -6.01644E+04 -4.44072E+04
 -1.41886E+04 -6.34047E+04  4.05958E+04 -4.62741E+04  6.18780E+04 -2.60026E+03  3.69803E+04  3.43812E+04
 -5.91547E+03  3.92407E+04 -3.09921E+04  1.76682E+04 -3.27547E+04 -4.36439E+03 -2.00602E+04 -1.12313E+04
 -8.62049E+03 -1.42221E+04 -4.77100E+02 -1.93086E+04  7.87481E+03 -2.20905E+04  1.53413E+04 -1.03991E+04
  1.04117E+04  6.44661E+03 -9.79325E+03  1.19467E+04 -2.39851E+04 -6.04079E+03 -8.39298E+03 -3.76286E+04
  2.54040E+04 -4.71679E+04  5.12598E+04 -2.10778E+04  4.80153E+04  2.15822E+04  1.67923E+04  4.60919E+04
 -1.64060E+04  3.45228E+04 -2.80602E+04  1.87658E+03 -1.24259E+04 -2.90749E+04  2.16321E+04 -3.47018E+04
  4.35081E+04 -1.09520E+04  3.89392E+04  2.56890E+04  2.06160E+04  5.14408E+04 -5.66937E+03  5.38457E+04
 -3.48046E+04  3.81880E+04 -4.68007E+04  1.21308E+04 -4.71012E+04 -1.88732E+04 -2.55793E+04 -4.26911E+04
  7.79463E+03 -4.24837E+04  3.27209E+04 -1.85190E+04  3.19851E+04  1.22998E+04  5.95925E+03  1.98965E+04
 -1.40373E+04  1.04372E+04 -1.09638E+04 -8.71728E+03  5.61717E+03 -1.13468E+04  1.85765E+04  5.60951E+03
  1.46823E+04  2.25629E+04 -5.65836E+03  2.78506E+04 -2.28745E+04  1.47398E+04 -3.24817E+04 -4.22641E+03
 -2.50216E+04 -1.80994E+04 -1.28338E+04 -2.35156E+04  4.96480E+03 -2.51067E+04  2.02444E+04 -2.28855E+04
  2.95196E+04 -1.42894E+04  3.87919E+04  4.17224E+03  2.50518E+04  2.27766E+04  3.06545E+03  4.02652E+04
 -1.98995E+04  3.43849E+04 -3.09126E+04  1.16222E+04 -2.28745E+04 -9.32744E+03 -5.73813E+03 -1.45204E+04
  6.24489E+02 -2.70312E+03 -7.00335E+03  7.90613E+03 -2.05619E+04  5.64863E+03 -1.96806E+04 -8.52758E+03
 -1.06790E+04 -2.36504E+04  5.44214E+03 -2.65842E+04  1.89266E+04 -1.87176E+04  2.27587E+04 -4.14381E+02
  1.41316E+04  1.58851E+04 -2.16614E+03  2.35402E+04 -1.80749E+04  1.39760E+04 -2.16710E+04 -4.86298E+03
 -1.72763E+04 -2.02004E+04 -2.99459E+03 -2.82563E+04  1.18582E+04 -2.42834E+04  2.40114E+04 -9.90793E+03
  2.08513E+04 -1.99237E+03  1.57892E+04  6.11347E+03  8.02198E+03  1.61441E+03  1.22732E+04 -1.27556E+03
  2.10806E+04  3.35611E+03  2.50035E+04  1.66095E+04  1.86985E+04  3.76127E+04 -1.93478E+03  4.17784E+04
 -2.57732E+04  3.69116E+04 -3.90968E+04  1.83777E+04 -4.33118E+04 -2.80907E+03 -3.59979E+04 -2.59988E+04
 -1.36870E+04 -3.84152E+04  1.27118E+04 -3.07406E+04  2.54956E+04 -1.67375E+04  2.43872E+04  7.25617E+03
  8.47438E+03  1.68529E+04 -1.15343E+04  1.47786E+04 -2.05284E+04  3.54863E+03 -1.74139E+04 -1.36841E+04
 -1.70121E+03 -1.80100E+04  1.07730E+04 -1.34355E+04  1.46066E+04 -9.29841E+02  4.36148E+03  1.01505E+04
 -8.31588E+03  3.14357E+03 -8.50689E+03 -8.72977E+03 -2.00305E+03 -1.77904E+04  1.23432E+04 -1.99641E+04
  2.10522E+04 -1.15080E+04  2.62080E+04  3.80754E+03  2.19263E+04  1.74016E+04  9.24288E+03  2.93349E+04
 -5.00796E+03  2.93995E+04 -2.07939E+04  1.71153E+04 -2.12091E+04  5.28548E+03 -1.41473E+04 -4.35388E+03
 -6.12914E+03 -6.62283E+03  1.06940E+03  7.26531E+02 -2.85762E+03  3.94783E+03 -7.57527E+03  7.03811E+03
 -1.52910E+04  2.12210E+02 -1.34298E+04 -1.11738E+04 -6.19001E+03 -1.85817E+04  6.13564E+03 -1.56824E+04
  1.30216E+04 -7.70844E+03  7.74111E+03  3.74438E+03  1.17402E+03  5.98901E+03 -7.93871E+03 -1.71407E+02
 -7.27463E+03 -1.02315E+04  2.91137E+02 -1.43238E+04  9.27472E+03 -1.57173E+04  1.97243E+04 -8.58800E+03
  2.27196E+04  2.89411E+03  1.70331E+04  1.51030E+04  3.43827E+03  1.75231E+04 -1.00172E+04  1.56285E+04
 -1.29031E+04  4.93913E+03 -4.74994E+03 -3.72285E+03  2.78879E+03 -3.05932E+03  7.89878E+03 -2.72579E+02
  8.71927E+03  6.58916E+03 -1.35279E+02  1.31859E+04 -7.19903E+03  1.23026E+04 -1.38976E+04  1.91681E+03
 -9.26919E+03 -7.80900E+03  7.11166E+02 -1.24121E+04  9.75810E+03 -7.15544E+03  7.75886E+03  3.12903E+03
  4.21329E+02  8.96826E+03 -6.86306E+03  1.21018E+04 -1.32751E+04  3.95964E+03 -1.19117E+04 -4.46348E+03
 -8.02607E+03 -1.58691E+04  3.37119E+03 -1.80269E+04  1.48418E+04 -1.09742E+04  1.63122E+04  2.57773E+03
  1.02118E+04  1.25758E+04  3.90864E+02  1.65943E+04 -1.09163E+04  7.58199E+03 -1.26649E+04 -8.23721E+02
 -9.53471E+03 -1.06708E+04 -4.19924E+03 -1.30411E+04  5.90820E+03 -7.91723E+03  8.04305E+03 -3.35301E+03
  3.74999E+03  1.53212E+03 -1.42461E+03  1.96985E+03 -1.04271E+03 -3.52063E+03  2.84725E+03 -8.42248E+03
  1.14603E+04 -4.64334E+03  1.73959E+04  2.75821E+03  1.51826E+04  9.34869E+03  9.89666E+03  2.00237E+04
 -4.72808E+03  2.38506E+04 -1.98717E+04  1.74079E+04 -2.55204E+04  2.80614E+03 -2.08836E+04 -8.94650E+03
 -9.52056E+03 -1.62984E+04 -1.45208E+03 -1.42348E+04  5.25084E+03 -7.66283E+03  5.97398E+03 -5.75751E+03
  5.23632E+03 -2.72074E+03  4.19977E+03 -3.98493E+03  5.67218E+03 -3.97680E+03  7.01014E+03 -1.38893E+03
  1.20902E+04  2.31489E+03  5.51358E+03  9.89753E+03 -2.82604E+03  1.14233E+04 -1.05769E+04  1.02597E+04
 -1.41291E+04 -2.59309E+02 -9.46465E+03 -1.12865E+04 -7.69689E+02 -1.45114E+04  7.21632E+03 -1.57478E+04
  1.59073E+04 -8.38060E+03  1.88980E+04  3.69865E+03  1.26941E+04  1.31221E+04  3.53549E+03  1.71431E+04
 -7.35385E+03  1.48225E+04 -1.02969E+04  6.46985E+03 -6.59272E+03 -1.15293E+03 -2.70516E+03 -1.42405E+03
 -1.38081E+03  6.40567E+02 -1.53172E+03  3.10225E+03 -7.10773E+03  2.69197E+03 -9.52475E+03 -1.69413E+03
 -7.61205E+03 -1.14243E+04 -8.18131E+02 -1.49007E+04  9.13887E+03 -1.39539E+04  1.39129E+04 -5.43504E+03
  1.62609E+04  6.68352E+03  6.28564E+03  1.15667E+04 -4.19479E+03  1.29111E+04 -9.95228E+03  9.38910E+03
 -1.25665E+04  5.57710E+02 -1.12090E+04 -1.10925E+04 -1.60274E+03 -1.26750E+04  6.67265E+03 -8.78705E+03
  9.30621E+03 -1.37459E+03  5.42742E+03  3.26591E+03  1.35803E+03  3.35760E+03  8.30434E+02  1.80829E+03
  1.98641E+03  7.57145E+02  3.56680E+03  1.29537E+03  3.78577E+03  5.36114E+03  4.62519E+03  6.70300E+03
 -3.70712E+03  1.22575E+04 -9.07972E+03  1.01477E+04 -1.47675E+04  3.38924E+03 -1.48861E+04 -5.64890E+03
 -7.20053E+03 -1.51357E+04  2.57877E+03 -1.58255E+04  9.44647E+03 -1.03040E+04  1.18116E+04 -3.71221E+03
  8.97699E+03  5.42874E+03  2.75436E+03  7.55448E+03 -4.36256E+03  4.54563E+03 -5.92590E+03  1.53202E+02
 -3.21642E+03 -6.19026E+03  2.58180E+03 -5.90477E+03  5.59149E+03 -2.11860E+03  5.39262E+03  1.34045E+03
  3.26772E+03  2.70445E+03  2.04944E+03  7.06045E+02 -1.66716E+03  6.58656E+02  1.52694E+03 -5.86818E+01
  2.05023E+03 -4.95979E+02  7.00991E+03  1.86160E+03  2.86525E+03  6.85003E+03 -1.60665E+03  1.17437E+04
 -6.30532E+03  6.52411E+03 -1.01800E+04  1.36771E+03 -7.98067E+03 -4.64256E+03 -3.47616E+03 -6.45936E+03
  9.87643E+01 -6.27270E+03  5.23579E+03 -3.99526E+03  5.17029E+03  2.52045E+03 -1.55348E+03  5.76339E+03
 -5.43687E+03  2.43691E+03 -6.86481E+03 -3.09604E+03 -3.83077E+03 -8.22126E+03  2.11266E+03 -6.35071E+03
  5.12270E+03 -4.61587E+03  6.50389E+03 -1.18705E+03  5.42312E+03  9.69937E+02 -1.52000E+02  4.23664E+03
 -3.26637E+03  3.52460E+02 -3.08315E+03 -1.87176E+03  1.45323E+03 -7.47449E+03  8.78240E+03 -4.80257E+03
  1.01367E+04  1.09199E+03  9.33915E+03  6.61853E+03  3.76156E+03  9.55837E+03 -2.84641E+03  9.15147E+03
 -7.78088E+03  4.14879E+03 -7.44037E+03 -2.42591E+03 -5.80009E+03 -8.03585E+03  3.11780E+03 -6.16405E+03
  5.77677E+03 -4.21582E+03  5.26879E+03  4.15768E+03  3.13600E+03  3.48153E+03 -2.38144E+03  3.50013E+03
 -1.62708E+03  3.14435E+03 -2.11764E+03  6.28575E+02 -3.08486E+03  4.12916E+02 -1.42928E+03  1.36025E+03
 -3.09812E+03  3.01914E+03 -6.63400E+03  3.56831E+03 -9.46579E+03  2.70400E+02 -1.20790E+04 -7.48032E+03
 -6.11777E+03 -1.24620E+04  2.85510E+03 -1.40889E+04  8.99261E+03 -1.13620E+04  1.51911E+04 -4.20854E+03
  1.37029E+04  3.61559E+03  8.22402E+03  8.42131E+03 -8.54368E+02  1.08823E+04 -4.05401E+03  7.60241E+03
 -6.66030E+03  2.99745E+03 -4.24454E+03 -5.52609E+02 -1.31682E+03 -2.70686E+03 -1.57715E+03  4.76875E+02
 -2.82586E+03  5.44691E+02 -1.53537E+03 -6.04187E+02 -2.28737E+03 -1.66214E+03  1.41320E+02 -4.52044E+03
  5.77640E+03 -3.08909E+03  6.87966E+03 -8.79809E+02  6.07900E+03  5.07387E+03  1.76418E+03  1.02355E+04
 -5.71862E+03  1.08115E+04 -9.69773E+03  5.68858E+03 -1.18560E+04 -8.15457E+02 -8.49069E+03 -7.29286E+03
 -3.36083E+03 -9.83007E+03  2.18900E+03 -9.32523E+03  8.38927E+03 -4.73712E+03  7.12659E+03  8.05409E+02
  4.03255E+03  9.40561E+02 -2.32171E+03  4.49189E+03 -2.20644E+03 -9.37347E+02  6.30272E+02 -3.11856E+03
  2.86312E+03 -2.54110E+03  3.50230E+03  5.70246E+02  2.17542E+03  3.67966E+03  2.40336E+02  3.63412E+03
 -4.69250E+03  3.53534E+03 -7.84556E+03 -2.73282E+02 -5.39346E+03 -5.73932E+03 -9.80941E+02 -9.57099E+03
  5.51002E+03 -7.84004E+03  7.37119E+03 -8.62394E+02  7.53315E+03  2.63272E+03  4.52419E+03  6.78507E+03
  4.65904E+02  7.04616E+03 -1.63970E+03  4.96643E+03 -5.21565E+03  3.79070E+03 -3.07068E+03 -3.25752E+02
 -2.77813E+03 -1.09049E+03 -1.11246E+03  2.85890E+02 -2.07186E+03  2.38910E+03 -5.55873E+03  8.70995E+01
 -4.20760E+03 -2.87869E+03 -2.49190E+02 -5.70279E+03  3.83366E+03 -5.64573E+03  4.74206E+03 -3.61599E+03
  7.14737E+03  2.83427E+03  4.75627E+03  5.50850E+03 -3.37011E+02  6.73764E+03 -5.20682E+03  4.55374E+03
