 $NMID ID='MM_0lb_SNR200_17hz_g55_82.RAW', FMTDAT='(8E13.5)'
 TRAMP=1., VOLUME=1. $END
  3.10218E+05  1.46749E+03  3.37542E+05  2.50889E+05  8.52327E+04  3.36683E+05 -1.32230E+05  2.50700E+05
 -1.90361E+05  8.39663E+04 -1.11546E+05 -3.18757E+04  1.62143E+03 -5.05255E+04  5.34217E+04 -3.64837E+02
  3.47512E+04  5.30250E+04 -1.70886E+04  7.53953E+04 -6.10699E+04  6.29593E+04 -8.40250E+04  3.17582E+04
 -8.03589E+04 -1.27995E+04 -5.75830E+04 -5.08996E+04 -1.49694E+04 -6.92017E+04  2.79037E+04 -4.51201E+04
  4.06571E+04  3.80043E+03  1.49246E+04  4.59346E+04 -3.44555E+04  4.65580E+04 -6.61785E+04 -7.44095E+02
 -5.21299E+04 -5.76014E+04 -5.91614E+03 -7.61348E+04  3.46147E+04 -5.47541E+04  4.66690E+04 -1.69211E+04
  4.26007E+04  1.17814E+04  3.15519E+04  2.38616E+04  1.59300E+04  2.92696E+04 -5.69335E+03  2.62855E+04
 -2.20775E+04  1.28170E+04 -1.89619E+04 -4.24014E+03  4.76683E+03 -7.36167E+03  2.13610E+04  1.10963E+04
  6.57177E+03  3.45965E+04 -3.15339E+04  3.39069E+04 -6.23090E+04  2.05077E+03 -5.54216E+04 -4.35797E+04
 -1.15640E+04 -6.18954E+04  3.90828E+04 -4.56743E+04  5.63085E+04 -3.07104E+03  3.25116E+04  3.13190E+04
 -6.86265E+03  3.54388E+04 -2.84795E+04  1.49623E+04 -2.87639E+04 -4.20981E+03 -1.72168E+04 -1.04334E+04
 -7.89092E+03 -1.18198E+04 -1.63892E+03 -1.87915E+04  6.61877E+03 -2.33954E+04  1.63145E+04 -1.32228E+04
  1.24210E+04  5.06433E+03 -8.98318E+03  1.27794E+04 -2.02013E+04 -3.63782E+03 -9.30132E+03 -3.32284E+04
  2.04215E+04 -4.18568E+04  4.63427E+04 -1.94105E+04  4.47719E+04  1.98698E+04  1.53574E+04  4.28194E+04
 -1.56225E+04  3.31748E+04 -2.51571E+04  1.05607E+03 -9.51938E+03 -2.77202E+04  1.96551E+04 -3.21099E+04
  3.92202E+04 -7.52509E+03  3.44672E+04  2.19954E+04  1.71171E+04  4.62510E+04 -8.40205E+03  4.78967E+04
 -3.06090E+04  3.20997E+04 -4.08206E+04  9.34390E+03 -4.07210E+04 -1.58160E+04 -2.32238E+04 -3.56295E+04
  7.34980E+03 -3.65439E+04  3.01194E+04 -1.38926E+04  2.88005E+04  1.07143E+04  3.26916E+03  1.80951E+04
 -1.15101E+04  7.05056E+03 -9.16220E+03 -7.32879E+03  5.33061E+03 -1.06354E+04  1.78568E+04  5.05829E+03
  1.39753E+04  2.22799E+04 -6.76202E+03  2.39959E+04 -2.17026E+04  1.04203E+04 -2.69660E+04 -5.56693E+03
 -1.98646E+04 -1.75243E+04 -6.77338E+03 -1.92041E+04  3.69935E+03 -1.72746E+04  1.37673E+04 -1.71105E+04
  2.37118E+04 -1.22257E+04  2.92667E+04  1.95262E+03  2.23372E+04  1.79922E+04  3.84558E+03  3.44540E+04
 -1.77913E+04  2.83571E+04 -2.72017E+04  9.17061E+03 -1.94189E+04 -1.05463E+04 -5.38446E+03 -1.39554E+04
  1.39079E+03 -4.19343E+03 -4.30641E+03  6.66012E+03 -1.53941E+04  5.16316E+03 -1.54942E+04 -6.63753E+03
 -9.46445E+03 -1.76258E+04  4.03768E+03 -2.08819E+04  1.44201E+04 -1.58258E+04  1.61610E+04 -1.53437E+03
  1.00440E+04  1.18540E+04 -7.47140E+02  1.81531E+04 -1.19697E+04  9.91011E+03 -1.66173E+04 -3.45432E+03
 -1.38507E+04 -1.57984E+04 -2.59481E+03 -2.27065E+04  9.64807E+03 -1.67586E+04  1.82499E+04 -7.81662E+03
  1.56225E+04  3.61247E+02  1.07880E+04  4.23831E+03  6.94637E+03  1.30547E+03  8.22663E+03 -1.11800E+03
  1.45144E+04  2.78508E+03  1.68801E+04  1.30868E+04  1.11886E+04  2.73805E+04 -2.03538E+03  2.96737E+04
 -1.87968E+04  2.35869E+04 -2.79258E+04  1.26779E+04 -2.95690E+04 -2.68662E+03 -2.44409E+04 -1.63448E+04
 -1.06075E+04 -2.44034E+04  7.73235E+03 -2.22441E+04  1.98027E+04 -1.14924E+04  1.69248E+04  3.44056E+03
  6.59818E+03  1.34219E+04 -8.02862E+03  1.20494E+04 -1.46653E+04  3.03462E+03 -1.13571E+04 -8.48838E+03
 -1.09010E+03 -1.46089E+04  6.93982E+03 -9.80627E+03  8.69216E+03 -2.12991E+03 -9.95047E+00  5.99821E+03
 -6.12821E+03  1.40499E+03 -4.90040E+03 -4.95666E+03  2.39071E+02 -1.18422E+04  9.12427E+03 -1.22832E+04
  1.55438E+04 -6.35638E+03  1.54139E+04  3.24680E+03  1.28958E+04  1.10282E+04  5.29634E+03  1.63516E+04
 -3.00998E+03  1.86073E+04 -1.13968E+04  1.24527E+04 -1.29045E+04  2.91507E+03 -9.76999E+03 -3.04111E+03
 -5.88697E+03 -3.67734E+03 -9.32730E+02  9.58472E+02 -2.31549E+03  1.03705E+03 -4.55692E+03  3.94756E+03
 -8.89734E+03 -1.78391E+02 -9.60841E+03 -7.38415E+03 -5.17965E+03 -1.27436E+04  4.63693E+03 -8.25981E+03
  8.00903E+03 -3.38828E+03  6.26537E+03  2.64419E+03 -1.64727E+02  2.96285E+03 -4.26413E+03  8.36145E+02
 -3.67092E+03 -4.90881E+03 -2.34517E+02 -9.19629E+03  4.17394E+03 -8.75757E+03  1.18733E+04 -4.47022E+03
  1.42634E+04  7.44593E+02  9.66785E+03  7.86839E+03  2.17838E+03  1.09720E+04 -6.61317E+03  1.07173E+04
 -7.50383E+03  2.64719E+03 -3.30887E+03 -1.17550E+03  1.86130E+03 -2.73147E+03  6.02840E+03 -1.60345E+03
  3.16867E+03  3.97271E+03  1.78698E+03  8.00193E+03 -5.07743E+03  7.26487E+03 -9.73003E+03  1.10435E+03
 -4.84739E+03 -3.65162E+03  1.56528E+03 -8.52325E+03  4.70571E+03 -3.20330E+03  4.93565E+03  2.07292E+03
  1.75595E+03  3.11394E+03 -4.23822E+03  5.52807E+03 -6.74853E+03  3.51428E+03 -5.87648E+03 -9.17518E+02
 -2.77029E+03 -7.90969E+03  1.01683E+03 -8.88946E+03  7.91808E+03 -6.99970E+03  8.39751E+03  1.61689E+03
  5.71692E+03  5.96879E+03 -2.86630E+01  7.74656E+03 -5.41187E+03  5.49023E+03 -6.37266E+03 -4.00925E+02
 -6.55753E+03 -6.42974E+03 -3.91140E+02 -4.81592E+03  3.22671E+03 -5.75419E+03  2.97826E+03 -3.11368E+03
  3.37202E+03  1.35877E+03 -2.01729E+02  1.52290E+03 -7.43758E+02 -7.88607E+02  1.44373E+03 -2.04838E+03
  4.53142E+03 -1.85095E+03  7.23822E+03  1.11749E+03  6.52743E+03  4.99745E+03  5.92188E+03  9.14786E+03
 -1.28906E+03  1.19012E+04 -9.56470E+03  8.55773E+03 -1.19756E+04  3.21159E+03 -9.63314E+03 -3.29871E+03
 -4.74680E+03 -8.22666E+03 -8.65249E+02 -7.07161E+03  2.32075E+03 -3.27949E+03  1.75465E+03 -2.49669E+03
  2.15789E+03 -2.32318E+03  2.40356E+03 -1.75636E+03  3.94575E+03 -1.36779E+03  5.14230E+03 -6.62269E+02
  5.80494E+03  6.58670E+02  2.63435E+02  5.16930E+03 -1.89145E+03  4.08919E+03 -4.23093E+03  3.29012E+03
 -7.30448E+03 -4.59321E+02 -2.09928E+03 -4.69254E+03  5.47775E+02 -6.35916E+03  2.88903E+03 -6.88890E+03
  7.00864E+03 -4.16308E+03  9.44364E+03  4.86637E+02  5.89615E+03  4.70482E+03  1.62813E+03  7.91674E+03
 -3.74459E+03  7.47376E+03 -3.45449E+03  2.26660E+03 -2.97825E+03 -9.82221E+02  4.36713E+02  2.52535E+02
 -3.86846E+02  2.69073E+01 -1.92093E+02  1.87559E+03 -2.85426E+03  1.44015E+03 -4.34813E+03  5.11763E+02
 -2.23078E+03 -4.39790E+03  2.66243E+02 -7.24296E+03  5.06926E+03 -5.59371E+03  4.29719E+03 -1.16414E+03
  5.10133E+03  3.72932E+03  2.38803E+03  5.16472E+03 -4.13052E+02  5.72335E+03 -3.59898E+03  3.88563E+03
 -4.84667E+03  1.54371E+03 -3.56992E+03 -4.16884E+03 -3.49606E+02 -6.10507E+03  1.73447E+03 -3.84222E+03
  3.45089E+03 -1.50505E+03  2.68666E+03  5.09824E+02  1.86782E+03  1.83601E+03  1.56517E+02  5.13498E+02
  1.64471E+03  2.98823E+01  2.26468E+03  2.05026E+02  1.07628E+03  2.48530E+03  2.53050E+03  1.67037E+03
 -1.16989E+03  3.02433E+03 -1.57225E+03  4.45370E+03 -2.75935E+03  1.26793E+03 -5.67535E+03 -2.20594E+03
 -1.87999E+03 -5.54930E+03  1.29447E+03 -5.57756E+03  2.92782E+03 -3.44904E+03  4.19438E+03 -9.21976E+02
  2.91602E+03  2.98999E+03  4.22164E+02  2.96904E+03 -7.67134E+02  1.51820E+03 -1.86470E+03  7.10988E+02
 -1.49477E+03 -2.01152E+03  1.46011E+03 -2.63397E+03  1.53831E+03 -6.55111E+02  1.76522E+03 -1.60590E+02
  2.24441E+02 -4.33295E+02  1.02681E+03 -1.61377E+01  8.37170E+02  1.75024E+02  1.34658E+03  1.21848E+03
  8.81026E+02 -9.47041E+02  1.44061E+03  1.09344E+03  3.24427E+02  1.92597E+03  3.00480E+01  2.45996E+03
 -2.73567E+03  1.21241E+03 -2.93709E+03 -8.78922E+02 -3.14119E+03 -4.00464E+02  2.47394E+02 -9.38576E+02
  1.88038E+03 -2.20408E+03  6.23923E+02 -9.60942E+02  1.14512E+03  1.90731E+03  4.54695E+02  1.95015E+03
 -2.79710E+03  1.20185E+03 -2.10291E+03 -4.51530E+02 -7.72771E+02 -2.35507E+03  6.43085E+02 -9.48432E+02
  2.03438E+03  5.49021E+02  4.52791E+02  2.73916E+02  2.00993E+03 -2.76427E+02 -6.31783E+01  1.60078E+03
  1.10184E+03  1.02905E+03 -1.50546E+03 -3.47820E+02  1.18504E+03 -1.35760E+03 -1.81351E+02 -1.26276E+03
  1.30374E+03 -7.23831E+02  2.95774E+03  8.78013E+02  3.49553E+02  1.97382E+03 -1.72924E+03  2.15905E+03
 -2.08000E+03  6.32273E+02 -2.85297E+03  1.21884E+02 -1.15061E+03 -6.68008E+02  6.88566E+02 -2.48194E+03
  2.49719E+03 -1.02357E+03  1.95021E+03  2.31757E+02  8.58633E+02  1.72098E+03  3.54654E+02  1.22673E+03
  3.66584E+02  1.49458E+03 -8.92527E+01 -1.65945E+02 -9.74025E+01 -1.82183E+02 -1.60585E+03  5.70191E+02
 -9.62525E+02  5.01610E+02 -1.86296E+03  2.16365E+03 -2.50795E+03  2.97548E+01 -3.23615E+03 -1.03377E+03
 -1.34979E+03 -2.95144E+03  8.55878E+02 -4.20347E+03  9.96844E+02 -2.75289E+03  2.82970E+03 -1.50896E+03
  3.01381E+03 -5.62837E+02  1.17464E+03  2.43629E+03 -1.03891E+03  2.56513E+03 -6.35295E+02  1.98849E+03
 -1.63616E+03  1.66938E+03 -8.66842E+01 -6.88224E+02 -5.12583E+02  2.60981E+02 -4.90633E+02 -1.56338E+03
 -2.00925E+03 -1.11606E+02 -1.35088E+03 -2.94205E+02 -5.74885E+02 -1.58536E+03 -7.37964E+02 -1.28163E+03
  7.89978E+02 -7.69845E+02  8.02445E+02 -2.95063E+02  3.06329E+03  2.11111E+03  3.16871E+02  2.45974E+03
 -1.25531E+03  2.21797E+03 -1.39839E+03  1.64367E+03 -2.80642E+03  2.72253E+02 -1.27089E+03 -3.00816E+03
 -1.56462E+02 -1.70078E+03  1.52027E+03 -1.52496E+03  6.33994E+02 -1.85636E+03  1.41028E+03  1.46129E+02
  9.98713E+02 -1.39799E+02  6.37018E+02  9.19319E+02  2.92845E+02 -5.00646E+02  2.43900E+02  1.52364E+03
  1.05917E+03 -1.19729E+02  7.59344E+02 -3.75567E+02  1.26487E+01 -1.17886E+02  4.75854E+02  1.13897E+03
 -5.56381E+02  1.73780E+03 -9.70144E+02  4.80663E+02 -7.25915E+02 -3.23448E+01 -1.66053E+02 -1.72005E+03
  6.93253E+02 -1.73365E+03  8.42394E+02  6.82395E+02  2.10419E+03  3.22166E+02 -4.91072E+01  1.58291E+03
 -3.71978E+02  9.29798E+02  8.32234E+02  7.02954E+02 -1.33342E+03  1.43926E+03  9.90607E+01  1.18368E+03
  9.05069E+02 -6.73047E+02 -8.81653E+02  1.38311E+02 -1.09461E+03 -6.41873E+02 -2.01078E+03 -2.46739E+02
 -2.49963E+03  7.60886E+02 -4.10159E+02 -2.13852E+03  1.47626E+03 -8.98974E+02 -2.74332E+02  5.43377E+02
  6.32926E+02  6.82272E+01 -8.05152E+02  3.77931E+02 -1.72791E+03  7.06827E+02 -7.43259E+02  6.30929E+02
