 $NMID ID='MM_0lb_SNR200_15hz_g50_14.RAW', FMTDAT='(8E13.5)'
 TRAMP=1., VOLUME=1. $END
  3.09333E+05 -2.66275E+02  3.38085E+05  2.50850E+05  8.40366E+04  3.37584E+05 -1.31888E+05  2.51776E+05
 -1.90413E+05  8.32453E+04 -1.12667E+05 -3.17284E+04  1.74124E+03 -5.11463E+04  5.52755E+04  1.63064E+02
  3.51687E+04  5.28778E+04 -1.69633E+04  7.41373E+04 -6.01242E+04  6.41171E+04 -8.37155E+04  3.08259E+04
 -8.06951E+04 -1.13487E+04 -5.79766E+04 -4.99062E+04 -1.49618E+04 -6.90955E+04  2.68246E+04 -4.55122E+04
  3.93173E+04  2.63098E+03  1.64112E+04  4.80396E+04 -3.39681E+04  4.71114E+04 -6.70207E+04 -6.47149E+02
 -5.32498E+04 -5.73353E+04 -6.74352E+03 -7.61227E+04  3.31477E+04 -5.48906E+04  4.77756E+04 -1.64587E+04
  4.28817E+04  1.09954E+04  3.18524E+04  2.64887E+04  1.50050E+04  3.00017E+04 -5.31503E+03  2.84146E+04
 -2.13775E+04  1.28300E+04 -1.83007E+04 -4.94821E+03  6.65640E+03 -7.56811E+03  2.35398E+04  1.27518E+04
  7.02038E+03  3.34774E+04 -3.01231E+04  3.52928E+04 -6.31293E+04  1.69091E+03 -5.62065E+04 -4.36313E+04
 -1.30448E+04 -6.33576E+04  3.95017E+04 -4.37255E+04  5.72663E+04 -2.15672E+03  3.35368E+04  3.23418E+04
 -6.38377E+03  3.44256E+04 -2.94249E+04  1.73206E+04 -3.09064E+04 -4.97787E+03 -1.61609E+04 -1.04826E+04
 -8.81937E+03 -1.37798E+04 -8.44879E+02 -1.78814E+04  7.02812E+03 -2.30288E+04  1.51194E+04 -1.26894E+04
  1.14092E+04  5.12381E+03 -8.45183E+03  1.31965E+04 -2.02895E+04 -4.75036E+03 -7.89185E+03 -3.35772E+04
  2.27312E+04 -4.24434E+04  4.69831E+04 -1.86556E+04  4.46795E+04  1.97152E+04  1.55899E+04  4.39148E+04
 -1.61784E+04  3.24446E+04 -2.64565E+04  1.03747E+03 -1.11854E+04 -2.75713E+04  2.08363E+04 -3.26692E+04
  4.11864E+04 -9.06052E+03  3.42865E+04  2.38311E+04  1.70986E+04  4.60149E+04 -7.51237E+03  4.93863E+04
 -3.03316E+04  3.46283E+04 -4.05090E+04  9.43167E+03 -4.14013E+04 -1.69438E+04 -2.28600E+04 -3.76599E+04
  6.60038E+03 -3.67301E+04  3.02101E+04 -1.49990E+04  2.84645E+04  9.92526E+03  4.22370E+03  2.02822E+04
 -1.34776E+04  7.74523E+03 -1.05874E+04 -7.37154E+03  6.05195E+03 -1.11848E+04  1.72192E+04  5.38234E+03
  1.28167E+04  2.17825E+04 -6.01030E+03  2.49007E+04 -2.16164E+04  1.18092E+04 -2.65653E+04 -5.51137E+03
 -1.91356E+04 -1.77124E+04 -8.44839E+03 -1.91006E+04  3.16817E+03 -1.83966E+04  1.54327E+04 -1.65826E+04
  2.57059E+04 -1.31164E+04  3.15101E+04  2.49092E+03  2.32291E+04  1.82235E+04  4.21344E+03  3.59961E+04
 -1.69349E+04  3.03010E+04 -2.71547E+04  1.00869E+04 -1.98452E+04 -9.82755E+03 -4.53045E+03 -1.33993E+04
  2.56683E+03 -2.62455E+03 -5.13961E+03  5.55543E+03 -1.61454E+04  5.36826E+03 -1.69860E+04 -7.03833E+03
 -9.87793E+03 -1.94076E+04  5.01989E+03 -2.29945E+04  1.35185E+04 -1.64840E+04  1.71537E+04 -1.60351E+03
  1.10343E+04  1.24333E+04 -1.87238E+03  1.89725E+04 -1.36598E+04  9.58680E+03 -1.84197E+04 -4.81091E+03
 -1.31246E+04 -1.58645E+04 -2.31119E+03 -2.10713E+04  9.78271E+03 -1.82427E+04  1.85445E+04 -9.53869E+03
  1.63100E+04 -1.51872E+02  1.12488E+04  4.71869E+03  6.08021E+03  1.57048E+03  1.01984E+04 -8.87820E+02
  1.57557E+04  3.46442E+03  1.83747E+04  1.46093E+04  1.15894E+04  2.98718E+04 -2.15697E+03  3.33045E+04
 -1.87568E+04  2.64133E+04 -2.96058E+04  1.27785E+04 -3.21532E+04 -2.60275E+03 -2.62725E+04 -1.87076E+04
 -1.16930E+04 -2.62062E+04  9.25959E+03 -2.30066E+04  2.04644E+04 -1.20928E+04  1.84420E+04  5.37795E+03
  7.68225E+03  1.30029E+04 -1.01847E+04  1.23651E+04 -1.51435E+04  3.46909E+03 -1.10739E+04 -1.02158E+04
 -6.64681E+02 -1.48284E+04  9.20022E+03 -1.02818E+04  9.55160E+03 -6.27552E+02  1.20151E+03  6.56353E+03
 -5.73701E+03  2.57150E+03 -5.10364E+03 -5.27860E+03 -1.74214E+02 -1.18898E+04  1.00821E+04 -1.22507E+04
  1.55393E+04 -6.94980E+03  1.73351E+04  3.54867E+03  1.44419E+04  1.27853E+04  7.00971E+03  1.91678E+04
 -3.15934E+03  2.09686E+04 -1.34757E+04  1.24138E+04 -1.51635E+04  2.98308E+03 -1.06313E+04 -3.87515E+03
 -5.60380E+03 -3.76286E+03 -1.10734E+03  1.95572E+02 -1.41669E+03  2.95482E+03 -5.28901E+03  4.09308E+03
 -1.01568E+04 -1.80792E+03 -1.07894E+04 -8.11386E+03 -5.95496E+03 -1.41046E+04  4.99214E+03 -1.09456E+04
  7.85578E+03 -3.84002E+03  6.34629E+03  2.60489E+03 -1.41847E+02  4.22788E+03 -5.62310E+03 -1.13948E+03
 -4.57866E+03 -6.27184E+03 -2.04483E+03 -1.02516E+04  5.71287E+03 -1.08150E+04  1.19880E+04 -4.81372E+03
  1.62048E+04  1.38190E+03  1.12208E+04  8.63692E+03  1.33966E+03  1.27133E+04 -5.94472E+03  1.07243E+04
 -8.88460E+03  4.70409E+03 -4.36682E+03 -1.41976E+03  1.95601E+03 -2.68114E+03  6.09220E+03 -8.26704E+02
  4.87225E+03  5.11796E+03  1.71180E+03  7.71777E+03 -6.58287E+03  8.47760E+03 -1.05547E+04  2.91738E+03
 -6.24156E+03 -5.18519E+03  1.71295E+02 -7.86831E+03  3.73140E+03 -4.22073E+03  5.50468E+03  2.57321E+03
  7.70084E+02  6.36412E+03 -4.94388E+03  5.63857E+03 -7.72978E+03  3.25195E+03 -6.94521E+03 -2.24576E+03
 -4.12924E+03 -1.02399E+04  3.07749E+03 -8.72214E+03  9.25215E+03 -7.24591E+03  9.76626E+03  2.21131E+03
  6.31370E+03  8.27234E+03 -1.02942E+03  9.66549E+03 -7.20543E+03  5.70145E+03 -7.87450E+03 -7.36967E+02
 -6.83784E+03 -6.88181E+03 -2.06807E+03 -6.32218E+03  3.88000E+03 -6.01340E+03  4.25909E+03 -2.10991E+03
  3.79088E+03  8.84087E+02  3.86370E+02  1.14517E+03  2.51941E+01 -1.83172E+03  3.40529E+02 -4.28909E+03
  6.58601E+03 -2.08634E+03  7.21644E+03  4.59311E+02  8.02477E+03  5.77393E+03  6.46043E+03  1.02674E+04
 -2.46774E+03  1.21193E+04 -1.12321E+04  1.00413E+04 -1.42810E+04  2.03616E+03 -1.19673E+04 -3.90794E+03
 -6.07405E+03 -8.74305E+03 -2.62221E+02 -8.23353E+03  2.34176E+03 -3.99157E+03  2.27701E+03 -3.63491E+03
  2.98988E+03 -2.21949E+03  2.93199E+03 -3.19488E+03  3.57725E+03 -1.58857E+03  5.53011E+03 -5.54827E+02
  6.04990E+03  1.82102E+03  2.88206E+03  5.03293E+03 -1.03133E+03  4.95030E+03 -5.98856E+03  4.69394E+03
 -7.37476E+03 -1.01359E+03 -4.47598E+03 -4.76621E+03 -2.62796E+00 -7.16616E+03  4.78377E+03 -8.10563E+03
  8.95976E+03 -2.75700E+03  9.80827E+03  1.35738E+03  7.79416E+03  7.05632E+03  2.18514E+03  8.02114E+03
 -4.17299E+03  7.72345E+03 -5.69283E+03  2.64838E+03 -3.19193E+03 -1.08055E+03 -2.82876E+02 -5.84238E+02
 -1.16048E+03  8.78011E+02 -1.30658E+03  2.54504E+03 -4.04264E+03  1.71024E+03 -6.20820E+03 -1.36282E+03
 -2.83233E+03 -5.41127E+03  5.60021E+02 -7.88649E+03  4.73729E+03 -6.82561E+03  7.04193E+03 -2.18703E+03
  7.15292E+03  3.98997E+03  1.83454E+03  6.45580E+03 -1.08690E+03  7.69106E+03 -6.01721E+03  4.70379E+03
 -5.57309E+03  4.71186E+02 -5.19515E+03 -4.88968E+03 -1.02220E+03 -5.91616E+03  3.06985E+03 -3.64810E+03
  5.38173E+03 -1.93569E+03  3.23484E+03  1.74553E+03  7.30809E+02  2.10566E+03  1.33445E+03  9.90656E+02
  2.42740E+03  1.76069E+03  1.07964E+03  2.27676E+03  1.71115E+03  2.44540E+03  2.17508E+03  3.64935E+03
 -1.98547E+03  5.70328E+03 -5.30288E+03  6.59296E+03 -5.66782E+03  1.92896E+03 -7.08320E+03 -2.28596E+03
 -3.62918E+03 -6.65043E+03  8.59122E+02 -7.83218E+03  4.28625E+03 -3.92811E+03  5.34588E+03 -1.58338E+03
  3.83636E+03  2.70927E+03  1.04062E+03  4.11826E+03 -4.38272E+02  2.30197E+03 -1.99118E+03 -6.66222E+02
 -1.29272E+03 -2.45134E+03  2.00251E+03 -2.16142E+03  2.58828E+03 -9.66711E+02  2.85140E+03  9.34580E+02
  1.19806E+03  5.02152E+02 -8.14383E+01 -2.92837E+02  3.70709E+02  2.07051E+03  1.87802E+03 -7.82185E+02
  5.27827E+01  9.35159E+02  4.40351E+03  7.06177E+02  4.00721E+02  2.69482E+03 -1.25363E+03  5.32051E+03
 -2.45886E+03  2.31861E+03 -3.51419E+03  9.97616E+00 -4.01079E+03 -1.48101E+03 -2.90888E+02 -2.63289E+03
  1.26745E+03 -2.82348E+03  2.15749E+03 -7.70063E+02  2.80451E+03  1.26891E+03 -1.24321E+03  1.13018E+03
 -1.94605E+03 -1.67974E+02 -2.63365E+03 -1.12281E+03 -1.53503E+03 -3.77417E+03 -7.12622E+02 -2.72449E+03
  2.03635E+03 -9.57914E+02  2.08024E+03 -1.17943E+03  3.01793E+03  1.37158E+03  3.11137E+02  1.59957E+03
 -9.87551E+02  4.37402E+02 -1.34907E+03 -3.37511E+02  9.16504E+02 -2.26025E+03  1.39761E+03 -1.95707E+03
  2.24614E+03  7.12845E+01  3.46287E+03  1.49532E+03  1.23171E+03  2.70568E+03 -1.71887E+03  4.18478E+03
 -3.52508E+03  1.14982E+03 -2.87307E+03 -7.91493E+01 -1.94245E+03 -2.94650E+03 -1.88844E+02 -1.69263E+03
  4.05953E+03 -1.47378E+03  1.33240E+03  1.32364E+03  2.34496E+03  2.13744E+03  1.55888E+02  2.34195E+03
 -1.04238E+03  1.71371E+03 -2.16773E+03  2.12383E+02 -5.13104E+02  5.45695E+02 -4.88273E+02  3.32659E+02
 -5.91474E+02  8.63269E+02 -2.76553E+03 -4.05384E+02 -3.56060E+03  4.60535E+01 -4.30951E+03 -3.59149E+03
 -2.08648E+03 -4.89413E+03  1.77311E+03 -4.70451E+03  3.22613E+03 -3.87028E+03  5.24607E+03 -1.26210E+03
  3.83695E+03  1.42221E+02  2.03464E+03  4.28321E+03 -1.13438E+03  3.41064E+03 -7.95450E+02  2.70719E+03
 -1.93093E+03  1.45028E+03 -2.01505E+03 -6.89684E+02 -3.01747E+02  7.98625E+02 -7.57397E+02  3.83914E+02
 -1.89364E+03 -1.31070E+02 -8.99746E+02 -6.14925E+02 -1.25957E+02 -1.30976E+03 -7.42418E+01 -1.51299E+03
  1.74980E+03 -2.22486E+02  2.55518E+03  3.06334E+02  1.01552E+03  1.87987E+03  2.93193E+01  2.35024E+03
 -2.14275E+03  4.22039E+03 -4.35254E+03  2.28048E+03 -3.82033E+03 -1.09465E+03 -3.50516E+03 -2.55837E+03
 -1.76692E+03 -4.30534E+03  1.31898E+03 -2.24516E+03  1.79783E+03 -4.53121E+02  1.91184E+03  6.63926E+02
  2.07712E+03  1.34558E+03 -2.35991E+02  1.12919E+03  2.59832E+02  5.96955E+02 -1.96683E+02 -4.36281E+02
  9.54547E+02  2.41275E+02  4.49870E+02  4.52675E+01  7.32260E+01  1.41286E+03  1.00213E+03  1.71765E+03
  3.07766E+02  1.15073E+03 -1.18877E+03  2.74466E+02 -1.83552E+03 -1.74831E+03 -2.94349E+02 -2.78100E+03
  1.66662E+03 -2.39071E+03  1.88868E+03 -2.22458E+02  2.92942E+03  2.06825E+02  4.72154E+02  2.65318E+03
  1.30650E+03  1.31300E+03 -8.38313E+02  2.78132E+02 -1.89225E+02  9.74328E+02 -2.26658E+03  5.72936E+02
 -5.54880E+02 -8.93447E+01 -7.71722E+02 -7.63376E+02 -1.39488E+03 -3.17687E+02 -2.23196E+03 -1.46083E+03
 -1.88916E+03 -3.58226E+02  1.78331E+02 -1.87323E+03  2.32727E+03 -2.84934E+03  5.28893E+02 -2.29388E+03
  2.85427E+03  2.48581E+02  6.83401E+02  1.73209E+03  3.95359E+02  9.05975E+02 -6.78382E+02  1.17882E+03
