 $NMID ID='MM_0lb_SNR200_11hz_g55_67.RAW', FMTDAT='(8E13.5)'
 TRAMP=1., VOLUME=1. $END
  3.09100E+05  1.42163E+03  3.38599E+05  2.51224E+05  8.46241E+04  3.39042E+05 -1.33013E+05  2.51983E+05
 -1.91493E+05  8.41911E+04 -1.13403E+05 -3.25807E+04  5.01111E+01 -5.00686E+04  5.37733E+04  1.18832E+03
  3.56692E+04  5.28054E+04 -1.73143E+04  7.57017E+04 -6.21016E+04  6.42708E+04 -8.42524E+04  3.23124E+04
 -8.32762E+04 -1.11433E+04 -5.85874E+04 -5.25970E+04 -1.62226E+04 -6.98380E+04  2.71848E+04 -4.73917E+04
  4.20489E+04  3.98578E+03  1.78533E+04  4.84221E+04 -3.39932E+04  4.89104E+04 -6.76875E+04  2.23500E+03
 -5.47287E+04 -5.63374E+04 -5.65031E+03 -7.87509E+04  3.44492E+04 -5.70865E+04  4.84014E+04 -1.77812E+04
  4.61565E+04  1.20426E+04  3.08537E+04  2.63534E+04  1.53791E+04  3.04305E+04 -4.49350E+03  2.67193E+04
 -2.23462E+04  1.26330E+04 -1.79853E+04 -5.55020E+03  6.83152E+03 -7.21592E+03  2.28188E+04  1.41881E+04
  7.29311E+03  3.68067E+04 -3.39793E+04  3.71549E+04 -6.41169E+04  2.18571E+03 -5.74183E+04 -4.46051E+04
 -1.23548E+04 -6.51898E+04  4.11532E+04 -4.61066E+04  5.91801E+04 -2.79257E+03  3.65632E+04  3.42631E+04
 -6.05354E+03  3.75898E+04 -3.07554E+04  1.78810E+04 -3.29212E+04 -3.54698E+03 -1.73000E+04 -1.15437E+04
 -8.11352E+03 -1.40721E+04 -5.65567E+02 -2.05663E+04  6.48829E+03 -2.53758E+04  1.53047E+04 -1.20393E+04
  1.15039E+04  7.08564E+03 -1.03685E+04  1.26573E+04 -2.35763E+04 -6.67832E+03 -9.17033E+03 -3.50970E+04
  2.46228E+04 -4.59347E+04  5.01224E+04 -2.07116E+04  4.81500E+04  2.00313E+04  1.63911E+04  4.76256E+04
 -1.63540E+04  3.61958E+04 -2.74291E+04  1.70913E+03 -1.03215E+04 -2.84187E+04  1.98530E+04 -3.61505E+04
  4.38081E+04 -1.20436E+04  3.78911E+04  2.44366E+04  2.15481E+04  4.94201E+04 -8.56318E+03  5.50443E+04
 -3.46299E+04  3.78867E+04 -4.52477E+04  1.01853E+04 -4.57715E+04 -1.78260E+04 -2.62015E+04 -4.21080E+04
  6.93731E+03 -4.06602E+04  3.25077E+04 -1.79184E+04  3.05268E+04  1.14221E+04  5.60940E+03  2.14122E+04
 -1.18704E+04  9.92904E+03 -1.14815E+04 -6.70537E+03  4.46042E+03 -1.05789E+04  1.89966E+04  5.47318E+03
  1.53975E+04  2.22597E+04 -4.67961E+03  2.57573E+04 -2.47205E+04  1.46356E+04 -3.02831E+04 -2.92550E+03
 -2.47384E+04 -1.80390E+04 -1.19444E+04 -2.38182E+04  4.92787E+03 -2.45460E+04  1.82689E+04 -2.10732E+04
  2.91538E+04 -1.45660E+04  3.68986E+04  4.89627E+03  2.58658E+04  2.27439E+04  2.50831E+03  3.93483E+04
 -1.96799E+04  3.27067E+04 -2.85652E+04  1.09042E+04 -2.15141E+04 -9.87835E+03 -3.92828E+03 -1.26594E+04
  2.84504E+02 -1.35096E+03 -5.11066E+03  7.72660E+03 -1.85455E+04  4.45358E+03 -1.85312E+04 -8.46208E+03
 -1.09064E+04 -2.08261E+04  6.14381E+03 -2.70676E+04  1.71300E+04 -1.94446E+04  2.20219E+04 -7.72367E+02
  1.42682E+04  1.56678E+04 -4.07425E+02  2.16070E+04 -1.64277E+04  1.28187E+04 -2.19621E+04 -3.97842E+03
 -1.70001E+04 -2.05022E+04 -1.34503E+03 -2.62118E+04  1.26882E+04 -2.18274E+04  1.96669E+04 -1.23106E+04
  2.00013E+04  9.27377E+02  1.50300E+04  4.50277E+03  7.40144E+03  1.73879E+03  1.12685E+04 -2.95723E+03
  1.99862E+04  2.92331E+03  2.45532E+04  1.78047E+04  1.63333E+04  3.54944E+04 -2.64900E+03  4.18450E+04
 -2.45503E+04  3.50153E+04 -3.97688E+04  1.73908E+04 -4.09690E+04 -3.52854E+03 -3.32395E+04 -2.40601E+04
 -1.26878E+04 -3.39652E+04  1.24135E+04 -3.04680E+04  2.75899E+04 -1.40886E+04  2.20502E+04  7.52283E+03
  7.43157E+03  1.82131E+04 -1.05316E+04  1.39567E+04 -1.83199E+04  2.05973E+03 -1.48624E+04 -1.21658E+04
  1.72188E+02 -1.69924E+04  9.21157E+03 -1.25334E+04  1.32008E+04 -1.16727E+03  5.00250E+03  8.44517E+03
 -8.29571E+03  3.57201E+03 -8.35513E+03 -5.59606E+03 -1.83311E+03 -1.66606E+04  1.01305E+04 -1.87146E+04
  2.15839E+04 -8.52074E+03  2.37927E+04  4.08575E+03  2.13244E+04  1.60339E+04  9.46286E+03  2.61530E+04
 -5.13538E+03  2.85673E+04 -1.80242E+04  1.83986E+04 -1.99004E+04  1.72888E+03 -1.39162E+04 -4.39813E+03
 -6.65076E+03 -6.97620E+03  3.22849E+02  6.77945E+02 -1.57237E+03  4.20989E+03 -7.24607E+03  4.73206E+03
 -1.33762E+04  5.55895E+02 -1.34710E+04 -1.25996E+04 -6.31203E+03 -1.83769E+04  5.81901E+03 -1.52988E+04
  1.17899E+04 -5.99493E+03  8.57282E+03  4.13705E+03  1.74672E+03  5.10003E+03 -6.66232E+03  1.40696E+03
 -7.21351E+03 -7.92884E+03 -1.36010E+03 -1.28260E+04  8.99343E+03 -1.45916E+04  1.80560E+04 -7.18544E+03
  2.05127E+04  2.64535E+03  1.62139E+04  1.35870E+04  4.14935E+03  1.68304E+04 -8.54532E+03  1.34181E+04
 -1.11138E+04  4.66347E+03 -6.61157E+03 -4.20985E+03  2.38305E+03 -3.91174E+03  5.75516E+03 -9.91100E+01
  5.74834E+03  5.00176E+03  4.98227E+02  1.03639E+04 -7.82189E+03  1.07917E+04 -1.47928E+04  2.52947E+03
 -1.04861E+04 -6.79006E+03 -7.13244E+02 -1.17542E+04  7.60351E+03 -6.18736E+03  8.73574E+03  2.57645E+03
  1.67372E+03  1.03210E+04 -8.21203E+03  1.08664E+04 -1.24726E+04  6.00288E+03 -1.16364E+04 -3.78837E+03
 -6.67914E+03 -1.18796E+04  2.30768E+03 -1.56285E+04  1.27942E+04 -1.00936E+04  1.44915E+04  2.76289E+03
  8.94684E+03  1.19116E+04 -7.75382E+02  1.37977E+04 -9.64838E+03  7.06234E+03 -9.93880E+03 -1.63050E+03
 -1.12058E+04 -8.45110E+03 -1.95873E+03 -1.02439E+04  5.71468E+03 -8.84779E+03  6.86741E+03 -3.20402E+03
  4.59689E+03  3.34142E+03 -1.15673E+03  5.50287E+02  1.23164E+01 -3.38879E+03  3.82911E+02 -4.78710E+03
  1.04946E+04 -4.54193E+03  1.52832E+04  5.66728E+02  1.26260E+04  7.58880E+03  7.40001E+03  1.97217E+04
 -3.98765E+03  2.15279E+04 -1.60482E+04  1.45494E+04 -2.22483E+04  2.56958E+03 -1.91613E+04 -8.62703E+03
 -8.17986E+03 -1.35952E+04 -2.23704E+02 -1.36135E+04  3.64721E+03 -6.75732E+03  5.69350E+03 -3.47033E+03
  8.38142E+02 -2.73243E+03  3.13356E+03 -2.75204E+03  4.91187E+03 -3.46243E+03  6.96816E+03 -1.45116E+03
  9.92411E+03  1.89147E+03  3.78538E+03  7.51984E+03 -3.08733E+03  1.12393E+04 -9.26117E+03  8.11872E+03
 -1.19389E+04 -8.89171E+02 -8.40610E+03 -8.35925E+03 -1.12997E+03 -1.33588E+04  8.53022E+03 -1.23308E+04
  1.12669E+04 -8.31436E+03  1.68973E+04  1.47162E+03  1.07092E+04  1.08587E+04  1.65906E+03  1.59812E+04
 -5.76710E+03  1.29693E+04 -9.89990E+03  4.66085E+03 -5.79291E+03 -1.50751E+03 -4.30209E+03 -1.23516E+03
 -7.42879E+02 -9.39409E+02 -2.15669E+03  4.09552E+03 -4.25175E+03  2.65782E+03 -8.80806E+03  2.73285E-01
 -5.58886E+03 -1.01165E+04  6.16328E+02 -1.20763E+04  6.76186E+03 -1.16468E+04  1.18671E+04 -3.63947E+03
  1.05654E+04  6.24058E+03  5.45747E+03  1.29520E+04 -2.83112E+03  1.31090E+04 -9.34857E+03  6.76088E+03
 -1.25094E+04  9.11173E+02 -7.98702E+03 -6.45421E+03 -4.17278E+02 -9.86576E+03  3.61070E+03 -6.88254E+03
  6.93337E+03 -2.86056E+03  5.93855E+03  1.93899E+03  1.32776E+03  4.32033E+03  1.69480E+03  1.15705E+03
  3.12250E+03  1.57471E+03  1.53684E+03  1.93129E+03  4.74057E+03  4.46791E+03  3.47461E+03  6.10115E+03
 -1.64205E+03  9.53397E+03 -7.82129E+03  9.42417E+03 -1.19496E+04  2.87594E+03 -1.42789E+04 -5.40140E+03
 -5.98158E+03 -1.23355E+04  1.52187E+03 -1.34360E+04  6.43884E+03 -9.15841E+03  1.00448E+04 -2.13239E+03
  6.35612E+03  4.12411E+03  7.43677E+02  6.78973E+03 -2.30522E+03  4.81738E+03 -4.58457E+03 -1.84555E+02
 -2.58669E+03 -5.40644E+03  3.85647E+03 -4.40482E+03  6.14582E+03 -1.66295E+03  4.21722E+03  4.70325E+02
  2.13874E+03  2.86942E+03  3.16208E+02  2.14474E+03 -9.54648E+02  6.68368E+02  2.00832E+03  4.23700E+02
  1.66262E+03  7.76201E+01  4.30168E+03  1.17287E+03  3.88727E+03  6.74335E+03 -1.56688E+03  7.82761E+03
 -5.03936E+03  3.93485E+03 -8.08247E+03  1.33827E+03 -6.05464E+03 -2.11105E+03 -4.24672E+03 -6.23587E+03
 -3.84772E+02 -4.87247E+03  2.85593E+03 -1.35220E+03  1.83486E+03  2.33758E+03 -1.11450E+03  3.15445E+03
 -4.01090E+03  1.20893E+03 -6.09467E+03 -3.37155E+03 -2.83283E+03 -6.63039E+03  1.23588E+03 -6.63943E+03
  4.34669E+03 -3.16041E+03  4.35886E+03  7.88275E+02  5.42871E+03  3.20834E+03  1.97058E+03  4.27373E+03
 -2.83977E+03  1.57257E+03 -2.20693E+03 -2.30363E+03  1.38332E+03 -5.24830E+03  5.76017E+03 -4.17582E+03
  6.78403E+03  3.70728E+02  8.01428E+03  6.27872E+03  1.81341E+03  9.60767E+03 -8.49267E+02  7.01768E+03
 -6.99372E+03  2.59200E+03 -5.96296E+03  8.03603E+02 -3.89880E+03 -5.65216E+03  1.03533E+03 -3.53845E+03
  5.21236E+03 -2.32389E+03  4.36330E+03  2.80350E+03  1.83466E+03  3.33128E+03 -3.67232E+02  4.87587E+03
 -3.18939E+03  3.39636E+03 -2.68920E+03  9.19970E+02  2.29969E+02  1.26229E+03 -1.71056E+02  2.50105E+02
 -2.62057E+03  3.88004E+03 -5.45179E+03  2.89108E+03 -8.56498E+03 -4.46473E+02 -9.52665E+03 -5.09119E+03
 -4.19142E+03 -9.75277E+03  2.07062E+03 -1.02754E+04  6.76884E+03 -8.67805E+03  1.15813E+04 -2.86264E+03
  1.04127E+04  2.05697E+03  6.53960E+03  6.73510E+03  1.59097E+03  6.51043E+03 -3.60522E+03  4.68886E+03
 -3.09437E+03  2.07623E+03 -3.86048E+03 -5.89799E+02 -9.29845E+02 -1.11865E+03 -7.23650E+02 -3.68091E+02
 -1.62814E+03  6.56097E+01 -1.63339E+03 -3.08954E+02  5.05495E+02 -1.14830E+03  3.96438E+02 -2.79814E+03
  3.43205E+03 -2.38517E+03  2.52552E+03  1.96145E+02  4.42262E+03  3.05610E+03 -1.81248E+02  7.77273E+03
 -3.43623E+03  8.36532E+03 -7.76799E+03  5.72008E+03 -9.75318E+03 -1.46201E+03 -7.74032E+03 -6.40662E+03
 -3.08296E+03 -9.27259E+03  7.55911E+02 -7.72793E+03  4.92852E+03 -4.64438E+03  5.61621E+03  9.61056E+02
  2.26178E+03  3.59614E+03 -1.52556E+02  2.29482E+03 -2.59258E+03 -1.04778E+02  9.68857E+02 -6.14757E+02
  2.00886E+03 -4.33957E+02  1.63690E+03  1.89947E+03  1.60383E+03  2.38541E+03  4.09836E+02  3.88761E+03
 -4.83797E+03  4.02025E+03 -5.05676E+03  1.10669E+03 -3.97171E+03 -1.69028E+03  1.24298E+02 -5.94939E+03
  3.68860E+03 -3.28319E+03  5.26166E+03 -1.35834E+03  6.22535E+03  1.14855E+03  3.06214E+03  6.04053E+03
 -8.00073E+02  5.74950E+03 -2.70229E+03  2.55785E+03 -2.32953E+03  2.41989E+03 -2.96916E+03  9.95760E+01
 -1.27688E+03 -1.38773E+03 -2.19774E+03 -1.16615E+03 -2.21339E+03  4.53113E+02 -4.68612E+03 -2.64511E+03
 -3.97541E+03 -2.63324E+03 -7.74281E+02 -3.31070E+03  2.76421E+03 -5.06364E+03  3.98349E+03 -2.77500E+03
  5.08658E+03 -9.71483E+01  2.05603E+03  3.43852E+03 -9.22244E+02  6.14998E+03 -2.44791E+03  3.52296E+03
