 $NMID ID='MM_0lb_SNR200_11hz_g45_51.RAW', FMTDAT='(8E13.5)'
 TRAMP=1., VOLUME=1. $END
  3.08867E+05  4.70036E+02  3.37689E+05  2.50500E+05  8.42528E+04  3.37048E+05 -1.32108E+05  2.51817E+05
 -1.91793E+05  8.36837E+04 -1.11935E+05 -3.12836E+04  8.56174E+02 -4.97878E+04  5.35864E+04 -1.43361E+03
  3.63751E+04  5.38338E+04 -1.70319E+04  7.62713E+04 -6.02565E+04  6.30523E+04 -8.56006E+04  3.25189E+04
 -8.19257E+04 -1.09661E+04 -5.70592E+04 -5.19948E+04 -1.51068E+04 -7.01361E+04  2.71059E+04 -4.52639E+04
  4.04188E+04  2.99006E+03  1.68524E+04  4.82774E+04 -3.39760E+04  4.79560E+04 -6.65447E+04 -1.32198E+03
 -5.53372E+04 -5.67106E+04 -7.13268E+03 -7.86793E+04  3.45154E+04 -5.47604E+04  4.78613E+04 -1.69782E+04
  4.25965E+04  1.18405E+04  3.25692E+04  2.68175E+04  1.69647E+04  3.11447E+04 -6.93513E+03  2.75602E+04
 -2.21854E+04  1.18056E+04 -1.83402E+04 -5.79113E+03  4.92817E+03 -7.24305E+03  2.23982E+04  1.42054E+04
  8.18892E+03  3.67703E+04 -3.30020E+04  3.57372E+04 -6.40407E+04  1.77159E+03 -5.83014E+04 -4.45377E+04
 -1.20969E+04 -6.36641E+04  4.01054E+04 -4.64505E+04  5.97584E+04 -1.38012E+03  3.58387E+04  3.28159E+04
 -4.76699E+03  3.79614E+04 -3.16075E+04  1.73390E+04 -3.05635E+04 -4.75199E+03 -1.67625E+04 -1.10948E+04
 -7.99561E+03 -1.39293E+04 -1.15819E+03 -1.85989E+04  7.65338E+03 -2.42499E+04  1.52033E+04 -1.35237E+04
  1.12628E+04  4.94799E+03 -1.00002E+04  1.32232E+04 -2.26990E+04 -6.10943E+03 -8.25451E+03 -3.53950E+04
  2.31673E+04 -4.39742E+04  5.06063E+04 -2.15252E+04  4.60733E+04  2.02767E+04  1.68579E+04  4.56396E+04
 -1.69795E+04  3.47333E+04 -2.56584E+04  2.18934E+03 -1.03899E+04 -2.85641E+04  2.10338E+04 -3.39178E+04
  4.24222E+04 -9.32326E+03  3.77285E+04  2.41641E+04  2.05958E+04  4.82247E+04 -8.61691E+03  5.36216E+04
 -3.38940E+04  3.68906E+04 -4.50795E+04  1.11991E+04 -4.40842E+04 -1.70618E+04 -2.43194E+04 -3.98412E+04
  8.67365E+03 -4.05387E+04  3.30820E+04 -1.60162E+04  3.05768E+04  1.04375E+04  4.74327E+03  1.79161E+04
 -1.41849E+04  8.41568E+03 -1.12386E+04 -7.38345E+03  5.49279E+03 -1.31614E+04  1.87915E+04  5.01526E+03
  1.41006E+04  2.25697E+04 -5.34614E+03  2.63619E+04 -2.26530E+04  1.15732E+04 -3.02279E+04 -3.21801E+03
 -2.35256E+04 -1.75512E+04 -9.58512E+03 -2.17645E+04  4.53788E+03 -2.10211E+04  1.81638E+04 -2.23749E+04
  2.91319E+04 -1.33863E+04  3.53789E+04  3.29754E+03  2.68826E+04  2.24535E+04  4.11095E+03  3.80309E+04
 -2.05540E+04  3.28636E+04 -2.94722E+04  1.18891E+04 -2.06669E+04 -9.52944E+03 -3.52951E+03 -1.33552E+04
  6.99447E+02 -2.74578E+03 -5.36652E+03  7.75334E+03 -1.69832E+04  5.07718E+03 -1.76829E+04 -6.33867E+03
 -1.11576E+04 -2.12909E+04  5.70525E+03 -2.50059E+04  1.81909E+04 -1.72253E+04  1.96031E+04 -2.42123E+03
  1.35212E+04  1.56259E+04 -8.87936E+02  2.07918E+04 -1.57002E+04  1.15371E+04 -2.08116E+04 -4.88176E+03
 -1.48840E+04 -1.88577E+04 -1.79840E+03 -2.66767E+04  1.17742E+04 -2.12062E+04  2.05674E+04 -1.12836E+04
  1.99180E+04 -7.76543E+02  1.49839E+04  5.82910E+03  8.32130E+03  9.27911E+02  1.06609E+04 -7.29178E+02
  2.00282E+04  3.08365E+03  2.16267E+04  1.71193E+04  1.40397E+04  3.22242E+04 -2.94995E+03  3.91301E+04
 -2.25055E+04  3.20680E+04 -3.70216E+04  1.57069E+04 -3.90783E+04 -1.68839E+03 -3.25327E+04 -2.29757E+04
 -1.26823E+04 -3.09406E+04  1.15136E+04 -2.85190E+04  2.53895E+04 -1.30842E+04  2.30833E+04  7.24083E+03
  6.64638E+03  1.70931E+04 -1.05880E+04  1.47102E+04 -1.78358E+04  2.69625E+03 -1.47110E+04 -1.17633E+04
  1.02628E+02 -1.78519E+04  8.68497E+03 -1.40237E+04  1.27078E+04 -6.17265E+02  2.74080E+03  7.53362E+03
 -8.40326E+03  2.74273E+03 -7.53325E+03 -6.89258E+03  4.39268E+01 -1.57520E+04  1.09286E+04 -1.72689E+04
  2.10600E+04 -1.10590E+04  2.09303E+04  3.09263E+03  1.85679E+04  1.60626E+04  8.98313E+03  2.47414E+04
 -4.56020E+03  2.63364E+04 -1.82383E+04  1.58921E+04 -1.90654E+04  3.56707E+03 -1.25511E+04 -4.57924E+03
 -5.04220E+03 -6.22974E+03 -1.25722E+03  1.22396E+03 -2.45559E+03  3.62594E+03 -7.04134E+03  4.08894E+03
 -1.26345E+04 -6.11715E+02 -1.31868E+04 -1.01741E+04 -5.52564E+03 -1.66593E+04  5.30143E+03 -1.45265E+04
  1.13049E+04 -5.87860E+03  8.56622E+03  3.74442E+03  3.87853E+02  5.64273E+03 -7.50459E+03 -4.37339E+02
 -5.43274E+03 -9.52607E+03 -2.49300E+02 -1.25599E+04  6.50451E+03 -1.49650E+04  1.74142E+04 -6.65504E+03
  1.87781E+04  2.10871E+03  1.63580E+04  1.20114E+04  2.60177E+03  1.66177E+04 -8.21507E+03  1.18660E+04
 -1.19761E+04  3.70401E+03 -6.62330E+03 -1.29573E+03  3.27497E+03 -4.06262E+03  6.62798E+03  2.68271E+01
  4.98691E+03  5.66897E+03  5.46649E+02  1.15790E+04 -7.54355E+03  1.07560E+04 -1.39696E+04  3.50697E+03
 -9.81563E+03 -5.83354E+03 -5.23575E+02 -1.21109E+04  6.61905E+03 -7.29307E+03  7.84827E+03  2.06243E+03
  2.36320E+03  7.35380E+03 -7.13978E+03  8.80713E+03 -1.02190E+04  3.18889E+03 -9.56586E+03 -4.82033E+03
 -5.67736E+03 -1.18838E+04  3.47979E+03 -1.46725E+04  1.30270E+04 -7.99547E+03  1.42255E+04  2.88892E+03
  9.44878E+03  1.09222E+04 -1.29991E+03  1.25685E+04 -9.35924E+03  7.08999E+03 -1.14280E+04 -2.18597E+03
 -9.90019E+03 -8.34649E+03  9.97039E+01 -1.01161E+04  5.47932E+03 -8.36801E+03  5.60318E+03 -3.98675E+03
  5.46831E+03  2.33540E+03 -1.14957E+03  2.38295E+03 -1.54131E+02 -2.01904E+03  1.33529E+03 -5.75682E+03
  9.38512E+03 -3.51249E+03  1.43844E+04  9.62609E+02  1.24711E+04  7.86593E+03  8.99171E+03  1.72965E+04
 -3.92297E+03  1.90361E+04 -1.71526E+04  1.42348E+04 -1.98631E+04  2.52336E+03 -1.58550E+04 -8.03448E+03
 -8.92514E+03 -1.28043E+04  5.42616E+01 -1.27273E+04  4.17612E+03 -7.16753E+03  3.85187E+03 -4.90797E+03
  3.13222E+03 -1.77078E+03  5.07570E+03 -3.09630E+03  5.22693E+03 -2.86068E+03  6.42958E+03 -6.86031E+02
  8.55878E+03  1.38128E+03  3.30716E+03  7.92843E+03 -2.32237E+03  9.53420E+03 -8.76943E+03  6.65857E+03
 -1.28009E+04 -1.65831E+03 -8.09456E+03 -8.34330E+03 -1.52339E+03 -1.18341E+04  6.28508E+03 -1.28095E+04
  1.34226E+04 -6.91996E+03  1.47754E+04  1.79572E+03  1.08140E+04  9.91522E+03  1.97302E+03  1.40809E+04
 -5.38614E+03  1.16853E+04 -8.55320E+03  5.69874E+03 -4.62045E+03 -2.38684E+02 -1.43767E+03 -2.04367E+03
 -1.40429E+03  2.49786E+02 -2.39198E+03  2.71651E+03 -4.86014E+03  1.14039E+03 -8.67045E+03 -8.60952E+02
 -4.62326E+03 -1.06925E+04  8.71765E+01 -1.20539E+04  7.86121E+03 -1.05557E+04  1.14754E+04 -2.95427E+03
  1.15333E+04  5.18917E+03  4.53719E+03  8.95082E+03 -2.18910E+03  1.10534E+04 -9.34391E+03  6.71182E+03
 -1.08326E+04 -1.10900E+03 -9.67741E+03 -6.77277E+03  2.12107E+02 -8.52424E+03  3.01772E+03 -6.54849E+03
  6.49062E+03 -1.79251E+03  4.44316E+03  1.31476E+03  1.63547E+03  3.01999E+03  1.78580E+03  5.84443E+02
  2.57265E+03  1.26328E+03  3.43421E+03  1.63287E+03  4.13983E+03  4.02364E+03  2.65495E+03  6.42085E+03
 -1.46566E+03  9.50824E+03 -7.82035E+03  8.12967E+03 -1.17306E+04  3.39007E+03 -1.12061E+04 -4.33720E+03
 -5.17998E+03 -1.16649E+04  2.39441E+02 -1.21409E+04  7.37148E+03 -7.99853E+03  7.88652E+03 -1.39331E+03
  5.34926E+03  3.79568E+03  1.17343E+03  5.95691E+03 -2.53444E+03  4.05449E+03 -3.49093E+03  2.96841E+02
 -2.22125E+03 -4.83335E+03  3.32717E+03 -6.32985E+03  4.32914E+03 -1.70080E+03  3.30574E+03  5.97015E+02
  2.64069E+03  2.61641E+03  2.04157E+03  1.98889E+03 -1.40414E+03  6.94225E+02  2.54025E+03  1.54087E+02
  2.60742E+03 -5.68388E+02  3.88264E+03  2.29541E+03  1.79333E+03  5.85266E+03 -7.39978E+02  6.79804E+03
 -5.73940E+03  5.65283E+03 -6.30219E+03  1.53688E+03 -7.55630E+03 -2.32358E+03 -3.22905E+03 -4.73298E+03
  1.10826E+02 -5.51881E+03  2.29878E+03 -1.00944E+03  2.54071E+03  2.42835E+03 -9.28931E+02  4.57445E+03
 -5.57030E+03  2.06696E+03 -4.22269E+03 -3.70779E+03 -3.55801E+03 -6.19041E+03 -9.08940E+02 -5.57565E+03
  2.92895E+03 -3.17597E+03  3.62079E+03  9.82935E+02  3.01423E+03  9.06055E+02  7.64263E+02  2.20428E+03
 -1.67676E+03  1.49220E+03 -2.95499E+03 -3.32563E+03  9.88622E+02 -4.70174E+03  3.96287E+03 -2.22069E+03
  7.88692E+03  1.08795E+03  6.70445E+03  4.72444E+03  2.47786E+03  7.77237E+03 -1.72399E+03  6.66430E+03
 -5.83120E+03  3.50157E+03 -5.57296E+03 -6.55089E+02 -3.15779E+03 -5.70711E+03  1.11884E+03 -3.59747E+03
  4.19220E+03 -6.04177E+02  3.57084E+03  2.71055E+03  3.83325E+02  4.82305E+03 -1.14187E+03  3.01226E+03
 -8.33006E+02  3.38364E+03 -1.36513E+03  5.00715E+02  4.84085E+02  3.00628E+02  6.86624E+02  1.19453E+03
 -1.01653E+03  2.09398E+03 -4.45671E+03  1.70678E+03 -6.77621E+03 -2.14927E+03 -7.08682E+03 -3.55120E+03
 -3.66976E+03 -8.12681E+03  2.29894E+03 -8.99959E+03  6.60460E+03 -8.34517E+03  8.96159E+03 -2.23577E+03
  8.85958E+03  8.05128E+02  7.04778E+03  6.24384E+03  6.55655E+02  6.13843E+03 -2.12430E+03  6.84071E+03
 -5.45156E+03  2.01134E+03 -1.96648E+03 -9.45681E+02 -4.94522E+02 -1.20762E+03 -2.33640E+02  2.78463E+02
 -2.04252E+03  3.88925E+02 -1.65124E+03 -2.05854E+02  1.05477E+03 -1.15882E+03  1.04276E+03 -2.35983E+03
  2.93380E+03 -2.33179E+03  3.77574E+03 -9.04627E+02  4.75070E+03  4.15933E+03  2.00503E+03  6.85813E+03
 -4.37643E+03  7.87001E+03 -7.93556E+03  4.46818E+03 -6.98639E+03  4.18553E+02 -7.51409E+03 -4.95076E+03
 -5.21441E+03 -8.75448E+03  2.47341E+03 -5.85778E+03  4.19355E+03 -4.46841E+03  3.33851E+03  5.40765E+02
  3.48386E+03  2.88310E+03  2.36275E+01  1.95770E+03 -2.33216E+03  9.92843E+02 -7.17734E+02 -2.08745E+03
  3.41281E+03 -1.49412E+03  3.59800E+03  1.71303E+02  1.90942E+03  2.75536E+03 -6.83601E+01  4.27771E+03
 -2.35786E+03  1.51601E+03 -4.97367E+03  9.05137E+02 -3.77307E+03 -4.67084E+03 -2.54645E+02 -6.69316E+03
  3.32496E+03 -4.37961E+03  5.07237E+03 -6.94155E+02  5.03510E+03  1.44889E+03  3.23931E+03  3.01369E+03
  2.00995E+03  4.13156E+03 -2.21186E+03  3.64853E+03 -2.30814E+03  2.16405E+03 -2.32928E+03  4.24660E+02
 -4.55987E+01  5.33548E+02 -1.88185E+03  1.21580E+03 -2.41943E+03 -8.83570E+01 -2.77394E+03 -8.91758E+02
 -1.26827E+03 -2.70590E+03 -6.25258E+02 -4.93017E+03  1.74019E+03 -3.66670E+03  3.80151E+03 -1.58382E+03
  5.04515E+03  8.66455E+02  7.43066E+02  3.97228E+03  2.85854E+02  4.85333E+03 -3.55997E+03  2.73317E+03
