 $NMID ID='MM_0lb_SNR200_17hz_g55_41.RAW', FMTDAT='(8E13.5)'
 TRAMP=1., VOLUME=1. $END
  3.11459E+05 -2.18068E+02  3.36647E+05  2.51765E+05  8.52026E+04  3.38499E+05 -1.33064E+05  2.50942E+05
 -1.89603E+05  8.22436E+04 -1.11111E+05 -3.32821E+04  8.77770E+02 -4.98295E+04  5.33837E+04 -8.92410E+02
  3.53042E+04  5.20455E+04 -1.73049E+04  7.47896E+04 -6.17550E+04  6.22586E+04 -8.39636E+04  3.05712E+04
 -8.02394E+04 -1.18804E+04 -5.65677E+04 -5.21429E+04 -1.59820E+04 -6.89721E+04  2.79378E+04 -4.55378E+04
  3.95753E+04  4.05675E+03  1.66813E+04  4.74629E+04 -3.45482E+04  4.70898E+04 -6.51375E+04 -2.47405E+02
 -5.24715E+04 -5.64825E+04 -7.11540E+03 -7.74360E+04  3.35851E+04 -5.45181E+04  4.77345E+04 -1.70927E+04
  4.13557E+04  1.11860E+04  3.12717E+04  2.46746E+04  1.61105E+04  2.88761E+04 -5.11961E+03  2.55877E+04
 -2.18222E+04  1.17639E+04 -1.89179E+04 -4.47676E+03  4.58722E+03 -7.30846E+03  2.34734E+04  9.98398E+03
  6.60885E+03  3.45163E+04 -3.01749E+04  3.55298E+04 -6.28941E+04  2.03623E+03 -5.63712E+04 -4.22446E+04
 -1.23839E+04 -6.21225E+04  3.88000E+04 -4.46230E+04  5.68833E+04 -1.46129E+03  3.35873E+04  3.13191E+04
 -6.79277E+03  3.48370E+04 -3.00637E+04  1.45864E+04 -2.88883E+04 -5.06222E+03 -1.59291E+04 -1.19835E+04
 -7.82774E+03 -1.33726E+04 -1.48868E+03 -1.67609E+04  6.92280E+03 -2.21021E+04  1.48392E+04 -1.38417E+04
  1.20206E+04  4.96514E+03 -6.74021E+03  1.24804E+04 -2.05227E+04 -3.83264E+03 -7.16510E+03 -3.12986E+04
  2.15433E+04 -4.21515E+04  4.68927E+04 -1.92869E+04  4.39529E+04  1.91951E+04  1.52993E+04  4.29769E+04
 -1.65255E+04  3.21465E+04 -2.40099E+04  1.23725E+03 -9.10478E+03 -2.79094E+04  2.20713E+04 -3.18730E+04
  4.13308E+04 -8.11861E+03  3.38672E+04  2.30417E+04  1.63901E+04  4.58211E+04 -8.00299E+03  4.87756E+04
 -2.99407E+04  3.19269E+04 -4.05058E+04  8.98783E+03 -4.08941E+04 -1.54736E+04 -2.36203E+04 -3.59524E+04
  6.72708E+03 -3.69878E+04  2.99504E+04 -1.39715E+04  2.85354E+04  1.08561E+04  3.28911E+03  1.80222E+04
 -1.28101E+04  7.28055E+03 -9.14830E+03 -7.90860E+03  5.52783E+03 -9.59950E+03  1.79596E+04  5.56938E+03
  1.27061E+04  2.16842E+04 -5.46353E+03  2.33953E+04 -2.17058E+04  1.10190E+04 -2.73227E+04 -5.75321E+03
 -1.80953E+04 -1.66541E+04 -6.87728E+03 -1.85465E+04  3.72826E+03 -1.80917E+04  1.39946E+04 -1.73705E+04
  2.38577E+04 -1.16928E+04  3.12263E+04  1.95390E+03  2.29602E+04  1.83199E+04  4.66999E+03  3.49910E+04
 -1.70871E+04  2.85247E+04 -2.80243E+04  9.84085E+03 -2.09560E+04 -1.09112E+04 -3.37069E+03 -1.32913E+04
  2.74645E+03 -4.47839E+03 -3.19079E+03  5.69337E+03 -1.52877E+04  5.76560E+03 -1.59150E+04 -5.45017E+03
 -8.88423E+03 -1.74871E+04  4.79734E+03 -2.05804E+04  1.29833E+04 -1.69345E+04  1.56368E+04 -1.18472E+03
  1.03510E+04  1.24206E+04 -1.89819E+03  1.70749E+04 -1.13886E+04  8.82920E+03 -1.72939E+04 -4.50237E+03
 -1.25984E+04 -1.62450E+04 -1.62007E+03 -2.10238E+04  9.15462E+03 -1.72288E+04  1.80546E+04 -8.25287E+03
  1.58644E+04  3.82802E+02  1.22099E+04  5.20872E+03  5.59457E+03  9.94629E+02  8.91675E+03 -1.63571E+02
  1.51770E+04  3.34683E+03  1.71926E+04  1.20254E+04  1.10338E+04  2.82184E+04 -2.70822E+03  2.91231E+04
 -1.71083E+04  2.44405E+04 -2.79568E+04  1.15339E+04 -2.94401E+04 -2.15263E+03 -2.46730E+04 -1.69348E+04
 -1.06331E+04 -2.45776E+04  9.16925E+03 -2.16714E+04  1.92246E+04 -1.16417E+04  1.70753E+04  4.57379E+03
  7.67277E+03  1.23574E+04 -6.76666E+03  1.19219E+04 -1.50781E+04  1.76779E+03 -1.18223E+04 -8.90120E+03
 -4.01881E+02 -1.38033E+04  8.26545E+03 -1.09000E+04  7.85492E+03 -8.00579E+02  2.13525E+03  5.48873E+03
 -5.55645E+03  1.11377E+03 -4.87387E+03 -4.98857E+03 -7.13824E+01 -1.14916E+04  9.06471E+03 -1.25797E+04
  1.35275E+04 -5.68861E+03  1.60710E+04  3.67659E+03  1.28441E+04  1.15534E+04  5.53613E+03  1.73722E+04
 -3.32758E+03  1.89928E+04 -1.12879E+04  1.24028E+04 -1.31594E+04  2.60719E+03 -9.62470E+03 -2.18102E+03
 -4.35766E+03 -4.04254E+03 -2.15353E+03  2.11402E+03 -3.21985E+03  1.60303E+03 -4.39993E+03  3.48119E+03
 -8.55399E+03 -6.45739E+02 -9.37637E+03 -7.32135E+03 -4.21363E+03 -1.33926E+04  3.41011E+03 -9.27875E+03
  7.48090E+03 -3.50239E+03  6.02812E+03  2.69834E+03  9.79048E+02  4.27516E+03 -3.56141E+03 -8.69889E+02
 -3.52332E+03 -6.35158E+03 -1.22562E+03 -8.82279E+03  5.63604E+03 -8.91987E+03  1.08826E+04 -5.14781E+03
  1.41958E+04  1.15344E+02  1.01921E+04  8.54449E+03  2.24664E+03  1.11594E+04 -6.00898E+03  8.74855E+03
 -7.16684E+03  2.45828E+03 -3.07424E+03 -1.39661E+03  1.57949E+03 -2.46980E+03  6.29083E+03 -1.64878E+03
  3.24254E+03  3.30381E+03  5.03851E+01  6.78648E+03 -5.55820E+03  6.63159E+03 -8.63027E+03  2.39496E+03
 -6.50421E+03 -4.69612E+03  1.18812E+03 -7.01320E+03  5.24209E+03 -3.44817E+03  4.41653E+03  1.73636E+03
  1.19512E+03  5.04873E+03 -4.07298E+03  5.59253E+03 -6.83827E+03  2.30556E+03 -6.30176E+03 -2.04527E+03
 -4.45881E+03 -7.68965E+03  2.73558E+03 -9.34752E+03  6.75958E+03 -5.53219E+03  8.60685E+03  1.44882E+03
  5.41515E+03  6.44019E+03  3.64334E+02  9.24155E+03 -4.87729E+03  5.64652E+03 -6.54728E+03 -4.64915E+01
 -7.30237E+03 -5.81612E+03 -1.78425E+03 -6.18620E+03  3.09749E+03 -6.45059E+03  2.74124E+03 -3.04263E+03
  3.08576E+03 -6.26025E+02  1.68321E+02  2.25019E+01  1.43839E+02  1.97746E+02  2.05681E+02 -3.92294E+03
  4.44544E+03 -1.34366E+03  7.43673E+03  1.40115E+03  7.60634E+03  3.44806E+03  6.57832E+03  9.16969E+03
 -1.54282E+03  1.00941E+04 -8.79897E+03  8.56715E+03 -1.12876E+04  2.09380E+03 -9.27540E+03 -4.15730E+03
 -6.22981E+03 -8.50826E+03 -1.78306E+03 -6.84467E+03  2.97661E+03 -2.73692E+03  2.81283E+03 -2.27951E+03
  1.40805E+03 -1.24945E+03  2.86629E+03 -2.39068E+03  3.38309E+03 -1.99943E+03  3.77174E+03  4.17284E+02
  6.26827E+03  7.73837E+02  1.68925E+03  3.72281E+03 -2.35337E+03  3.59071E+03 -5.43899E+03  3.87883E+03
 -6.79862E+03 -1.16090E+03 -3.09672E+03 -3.36415E+03  4.84964E+02 -5.01376E+03  3.53250E+03 -7.17174E+03
  6.34478E+03 -4.44193E+03  8.51595E+03  1.99322E+02  6.07444E+03  6.42142E+03  9.71481E+02  7.76674E+03
 -2.90262E+03  6.85009E+03 -5.13756E+03  2.56447E+03 -2.92248E+03 -7.40182E+02 -5.63466E+02 -8.90277E+02
 -4.19804E+02  6.77364E+02 -4.20484E+02  1.92565E+03 -3.05110E+03  3.36935E+02 -5.06174E+03 -1.03109E+03
 -1.62231E+03 -4.60254E+03  5.24556E+02 -5.39774E+03  4.01933E+03 -5.93922E+03  5.19960E+03 -1.56744E+03
  4.57482E+03  2.60807E+03  2.33602E+03  4.80001E+03 -8.15277E+02  6.01123E+03 -3.98060E+03  2.99927E+03
 -4.73112E+03  2.12248E+02 -4.45329E+03 -3.49780E+03 -1.19513E+03 -2.91145E+03  1.12718E+03 -2.74819E+03
  3.21681E+03 -1.80380E+03  2.40982E+03  5.31181E+01  7.43808E+02  1.14908E+03  9.78889E+02  1.67262E+03
  1.79771E+03  6.33850E+02  4.40687E+02  1.66404E+03  1.82506E+03  2.95081E+03  1.89730E+03  2.47367E+03
 -1.01226E+03  2.73792E+03 -5.03935E+03  5.08440E+03 -4.66808E+03  1.79587E+03 -5.56196E+03 -1.22558E+03
 -2.27591E+03 -4.66988E+03  1.04701E+03 -6.43073E+03  2.05195E+03 -4.01524E+03  4.63682E+03 -1.43020E+03
  2.65003E+03  2.13076E+03 -3.63093E+02  2.89409E+03 -7.81849E+02  1.32535E+03 -1.88531E+03 -1.85351E+03
 -6.44620E+02 -1.98656E+03  1.59870E+03 -2.21918E+03  2.32968E+03 -1.25105E+03  9.38881E+02  3.82423E+02
  8.03499E+02 -8.00425E+02  8.16279E+02  6.22361E+02 -1.58651E+03  1.36187E+03  8.77241E+02 -6.55543E+02
  8.00061E+01 -1.18747E+02  2.42093E+03  1.08741E+03  5.44352E+02  3.01220E+03 -1.05784E+02  3.53600E+03
 -9.35413E+02  1.63943E+03 -3.34523E+03  1.92431E+03 -2.89959E+03 -1.39017E+03 -2.78532E+02 -3.85119E+02
 -5.78745E+01 -2.42399E+03  2.01067E+03 -6.51198E+02  1.82405E+03  1.99029E+03 -1.49941E+03  1.56795E+03
 -2.68495E+03  6.44869E+02 -1.60718E+03 -1.49524E+03 -9.52742E+02 -2.76976E+03 -2.06328E+02 -3.80324E+03
  4.15546E+02 -9.46327E+02  1.35953E+03  1.50231E+03  1.59047E+03  4.63010E+02  5.65335E+02  9.57181E+02
 -6.45332E+02 -7.52690E+01 -1.05700E+03 -3.94675E+02 -1.43722E+02 -2.87073E+03  2.07571E+03 -4.24674E+02
  2.48528E+03  3.03512E+02  2.62770E+03  6.65591E+02  1.63582E+03  2.53205E+03 -8.63704E+02  2.20597E+03
 -2.39088E+03  3.59520E+02 -1.29173E+03 -2.83355E+02 -7.72128E+02 -2.00061E+03  2.10703E+02 -1.11107E+03
  1.62591E+03 -5.64123E+02  4.54943E+01  1.45621E+03 -1.28836E+02  2.16418E+03 -5.42877E+02  1.15165E+03
 -1.44123E+03  1.00497E+03 -3.00382E+02 -5.88298E+02 -1.72176E+02  1.03440E+03 -5.27231E+02  2.67440E+02
 -9.39278E+02  1.92475E+03 -2.35718E+03 -4.07557E+01 -2.39932E+03 -1.19505E+02 -3.13258E+03 -1.08948E+03
 -9.58984E+01 -3.64529E+03 -4.25443E+01 -3.36150E+03  2.75804E+02 -2.51702E+03  3.80680E+03 -1.79366E+03
  2.40348E+03 -2.02651E+01  1.16306E+03  2.18404E+03 -6.47366E+02  1.64222E+03 -1.46337E+03  7.73219E+02
 -2.57202E+03  1.46408E+03  5.41753E+02  5.92431E+02 -7.26441E+02  8.30870E+02 -7.28840E+01  5.07562E+02
 -8.61642E+02  1.20605E+03 -5.68841E+02  6.35931E+02  7.27439E+02 -1.35208E+03 -6.92667E+02 -6.37677E+02
  1.35147E+03 -9.90915E+01  5.78203E+02  8.39422E+01  9.05393E+02  1.36426E+03 -4.81204E+02  2.04397E+03
 -1.01863E+03  1.42405E+03 -3.15033E+03  1.01955E+03 -1.54940E+03  1.37637E+03 -1.11760E+03 -1.53480E+03
 -8.38466E+02 -1.57061E+03 -1.70826E+02 -2.54493E+03  1.62216E+02  2.21834E+02  1.02641E+03  1.55771E+02
  1.20025E+03  3.53710E+02  9.76866E+02  2.55962E+02 -2.47515E+02 -2.66575E+02 -5.88798E+02  5.82108E+02
  5.11212E+02 -7.15983E+02  9.14479E+02  3.62413E+02 -5.86635E+02  8.79040E+02  4.43726E+02  7.05285E+02
 -1.46857E+03  1.45580E+03 -9.92937E+02  2.47535E+02 -1.97481E+03 -9.92789E+02 -6.46193E+02 -2.71013E+03
  4.66552E+02 -1.13802E+03  1.80029E+03 -1.22231E+03  1.11520E+03 -2.86065E+02  3.07203E+02  9.71799E+02
  8.64067E+02 -1.72896E+02 -2.62691E+02  1.18494E+03 -5.70633E+02  1.31487E+03 -8.15842E+02 -1.54046E+02
 -2.01327E+02  6.81771E+01 -3.77407E+02  2.25391E+02  3.79185E+02 -5.33217E+01 -7.66169E+02  1.55919E+02
 -1.85800E+03 -6.23199E+02 -1.41332E+03 -1.39042E+03  1.36426E+03 -2.18127E+03  7.84809E+02 -6.65189E+01
  5.58538E+02  1.68422E+03  1.85149E+02  9.70033E+02  2.77161E+02  3.74777E+02 -1.42016E+03  6.34331E+02
