 $NMID ID='MM_0lb_SNR200_19hz_g40_5.RAW', FMTDAT='(8E13.5)'
 TRAMP=1., VOLUME=1. $END
  3.09692E+05  3.14453E+02  3.36276E+05  2.51031E+05  8.44376E+04  3.37371E+05 -1.32068E+05  2.50579E+05
 -1.89887E+05  8.27849E+04 -1.10556E+05 -3.34400E+04  2.32271E+03 -5.06282E+04  5.46878E+04 -1.16604E+03
  3.46552E+04  5.40640E+04 -1.70502E+04  7.40978E+04 -6.06846E+04  6.06803E+04 -8.20402E+04  3.09633E+04
 -7.87818E+04 -1.04037E+04 -5.65934E+04 -4.97758E+04 -1.46246E+04 -6.69302E+04  2.64516E+04 -4.52449E+04
  3.94389E+04  3.65525E+03  1.60196E+04  4.71177E+04 -3.37713E+04  4.58954E+04 -6.48723E+04 -9.87531E+02
 -5.19469E+04 -5.53337E+04 -6.17922E+03 -7.53746E+04  3.24095E+04 -5.20254E+04  4.61629E+04 -1.58737E+04
  4.13018E+04  1.00657E+04  2.99222E+04  2.31293E+04  1.55898E+04  2.84740E+04 -4.67025E+03  2.65509E+04
 -2.19405E+04  1.33549E+04 -2.00998E+04 -4.29177E+03  4.80350E+03 -7.35576E+03  2.08844E+04  1.08125E+04
  7.21498E+03  3.22987E+04 -2.98479E+04  3.47555E+04 -5.89547E+04  1.60790E+03 -5.48504E+04 -4.05412E+04
 -1.22497E+04 -5.98747E+04  3.78060E+04 -4.37222E+04  5.43073E+04 -2.17323E+03  3.10386E+04  2.92413E+04
 -6.69150E+03  3.17620E+04 -2.79242E+04  1.30305E+04 -2.71773E+04 -5.54173E+03 -1.35947E+04 -8.77940E+03
 -5.93336E+03 -1.04720E+04 -8.38384E+02 -1.65133E+04  5.84948E+03 -2.19614E+04  1.51314E+04 -1.33742E+04
  1.33472E+04  4.53418E+03 -6.13627E+03  1.23857E+04 -1.80462E+04 -2.37099E+03 -9.00606E+03 -2.93955E+04
  1.97842E+04 -3.98595E+04  4.28901E+04 -1.80142E+04  4.09838E+04  1.75203E+04  1.34306E+04  4.16175E+04
 -1.56685E+04  3.04205E+04 -2.24130E+04  9.37609E+02 -6.79511E+03 -2.68254E+04  2.04234E+04 -3.02976E+04
  3.77090E+04 -7.33032E+03  3.06948E+04  2.10390E+04  1.39720E+04  4.18227E+04 -8.16600E+03  4.44266E+04
 -2.66633E+04  2.81105E+04 -3.57782E+04  7.40800E+03 -3.80799E+04 -1.39086E+04 -2.07605E+04 -3.22705E+04
  6.47907E+03 -3.45769E+04  2.91499E+04 -1.27670E+04  2.56405E+04  1.07430E+04  3.34818E+03  1.81064E+04
 -1.25794E+04  6.96209E+03 -9.01531E+03 -7.15296E+03  5.45807E+03 -1.05152E+04  1.66963E+04  7.60540E+03
  1.16410E+04  2.08006E+04 -7.77600E+03  2.28640E+04 -2.11089E+04  9.10601E+03 -2.51683E+04 -7.29262E+03
 -1.62212E+04 -1.58520E+04 -4.90579E+03 -1.52450E+04  3.27597E+03 -1.30973E+04  1.23824E+04 -1.27745E+04
  1.91512E+04 -1.05646E+04  2.73554E+04 -5.89704E+02  1.93877E+04  1.45753E+04  3.01530E+03  3.21162E+04
 -1.60238E+04  2.49905E+04 -2.51180E+04  8.35815E+03 -1.89787E+04 -1.03102E+04 -3.77107E+03 -1.31634E+04
  3.34949E+03 -4.83843E+03 -2.16346E+03  5.07980E+03 -1.20102E+04  5.54103E+03 -1.24621E+04 -4.14621E+03
 -8.20341E+03 -1.46153E+04  4.94634E+03 -1.79006E+04  1.18939E+04 -1.41051E+04  1.43879E+04 -2.03767E+03
  7.95965E+03  9.85951E+03 -1.52805E+03  1.48459E+04 -8.70212E+03  8.17192E+03 -1.48777E+04 -2.98135E+03
 -1.05384E+04 -1.35401E+04 -1.79379E+03 -1.81082E+04  8.23277E+03 -1.45747E+04  1.40023E+04 -6.48684E+03
  1.29231E+04  5.82344E+02  1.08493E+04  4.92026E+03  6.18226E+03  5.61705E+01  8.17831E+03 -1.78119E+03
  1.32975E+04  3.33058E+03  1.40691E+04  1.27775E+04  7.80747E+03  2.29606E+04 -3.47946E+03  2.56006E+04
 -1.59390E+04  1.76669E+04 -2.23630E+04  7.88912E+03 -2.28223E+04 -1.49246E+03 -2.02682E+04 -1.36840E+04
 -1.04547E+04 -1.92145E+04  5.37358E+03 -1.72372E+04  1.52459E+04 -1.06446E+04  1.40806E+04  4.36770E+03
  6.03932E+03  9.59250E+03 -7.02314E+03  9.35336E+03 -1.28751E+04  3.00124E+03 -1.03521E+04 -8.31062E+03
 -9.44257E+02 -1.13266E+04  6.16163E+03 -8.60102E+03  6.89003E+03 -2.62337E+03  1.70037E+03  4.46437E+03
 -5.66532E+03  1.10821E+03 -2.81830E+03 -4.07584E+03  1.52567E+03 -9.48238E+03  7.25897E+03 -8.51360E+03
  1.15675E+04 -4.14303E+03  1.04411E+04  2.70272E+03  8.59318E+03  9.45291E+03  4.89147E+03  1.19685E+04
 -2.29294E+03  1.46285E+04 -8.05879E+03  9.78362E+03 -1.02782E+04  3.20608E+03 -7.73428E+03 -2.13239E+03
 -4.23451E+03 -2.39034E+03 -1.32563E+03  2.11829E+03 -9.83551E+02  7.30889E+02 -2.85001E+03  3.44812E+03
 -7.98676E+03 -3.13601E+01 -8.69784E+03 -6.91327E+03 -3.59318E+03 -1.03441E+04  2.91015E+03 -7.15042E+03
  6.47040E+03 -3.70855E+03  4.33711E+03  1.00170E+03  2.59144E+02  3.63838E+03 -2.86371E+03  3.75507E+02
 -2.91065E+03 -3.68085E+03 -1.60325E+03 -6.99958E+03  4.50416E+03 -7.36613E+03  9.44939E+03 -3.69462E+03
  1.17896E+04  1.14289E+03  9.17147E+03  5.61326E+03  2.44388E+03  8.74652E+03 -5.27057E+03  7.92586E+03
 -6.43045E+03  1.94654E+03 -2.78820E+03 -1.36404E+03  1.13742E+03 -8.08162E+02  4.62257E+03 -9.98318E+02
  4.56063E+03  2.86322E+03  2.07230E+03  4.90700E+03 -3.51277E+03  6.54597E+03 -6.57874E+03  2.13978E+03
 -5.06488E+03 -3.22717E+03  5.26322E+02 -6.41871E+03  4.30782E+03 -4.35114E+03  3.46522E+03  6.40143E+02
  6.01862E+02  3.22474E+03 -3.43087E+03  5.22585E+03 -3.38016E+03  2.16927E+03 -3.30535E+03 -7.37992E+02
 -1.31742E+03 -5.50687E+03  1.26239E+03 -6.71087E+03  5.25388E+03 -3.28835E+03  4.64977E+03  4.69002E+02
  3.44680E+03  5.68198E+03  3.11770E+02  7.19044E+03 -4.20486E+03  4.72110E+03 -4.44835E+03  5.88765E+01
 -6.02943E+03 -4.95382E+03 -1.09664E+03 -5.14285E+03  1.92467E+03 -4.20990E+03  3.61430E+03 -2.97377E+03
  3.54286E+03  2.80380E+02 -4.17090E+02  1.64071E+03  2.18394E+02 -5.96472E+02 -8.03286E+01 -2.53241E+03
  3.92495E+03 -3.61448E+02  4.20871E+03  9.18397E+02  5.61406E+03  2.65866E+03  5.44029E+03  6.83368E+03
 -1.54900E+03  7.41497E+03 -6.70897E+03  6.39879E+03 -8.79158E+03  7.75701E+02 -7.52893E+03 -2.37004E+03
 -3.88130E+03 -6.95490E+03 -1.25213E+03 -4.28190E+03  7.93483E+02 -2.09267E+03  2.26273E+03 -1.40074E+03
  4.72253E+02 -1.87759E+03  2.18877E+03 -2.69069E+03  4.06099E+03 -1.86566E+03  3.68026E+03 -4.75625E+01
  5.15297E+03  7.93626E+02  4.57389E+02  2.62047E+03 -2.37950E+03  2.58110E+03 -3.20316E+03  2.28851E+03
 -4.17627E+03 -7.60086E+02 -1.16060E+03 -3.67006E+03  5.36967E+01 -3.89079E+03  2.46764E+03 -5.81417E+03
  5.44536E+03 -3.73291E+03  5.53854E+03 -5.87777E+01  3.86764E+03  4.23044E+03  1.34119E+03  6.00978E+03
 -1.79123E+03  5.61802E+03 -2.82292E+03  1.10765E+03 -1.72870E+03 -2.26301E+03  1.11616E+02 -2.63101E+02
 -6.10299E+02  2.50550E+02 -7.73740E+02  1.99672E+03 -2.26160E+03  7.86294E+02 -4.06587E+03  2.42879E+02
 -1.44682E+03 -3.89498E+03  1.11784E+03 -4.13456E+03  2.82398E+03 -3.99342E+03  2.34439E+03 -5.39789E+02
  4.21168E+03  2.34605E+03  5.94266E+02  2.54030E+03  8.93590E+01  2.93767E+03 -2.66538E+03  2.67513E+03
 -3.35257E+03  2.97791E+02 -3.28458E+03 -1.81617E+03 -7.17611E+01 -3.02216E+03  3.49053E+02 -2.30614E+03
  3.38588E+03 -7.17686E+02  1.65625E+03  5.67330E+02  7.55184E+02  1.37381E+03  1.33538E+03 -5.13343E+01
  1.38508E+03  8.72065E+02  1.61349E+03  1.11467E+03  2.08931E+03  1.60513E+03  6.14221E+02  1.72435E+03
 -2.06378E+03  3.41346E+03 -2.99875E+03  4.37080E+03 -2.52690E+03  6.74757E+02 -4.07973E+03  5.74476E+02
 -2.45133E+03 -2.81949E+03  9.40489E+02 -5.32200E+03  1.76270E+03 -2.93724E+03  3.15377E+03 -1.12409E+03
  1.81030E+03  1.20340E+03 -5.83671E+02  2.33691E+03 -6.49590E+02  1.10466E+03 -1.34728E+03 -5.86042E+02
 -2.73520E+02 -1.92998E+03  1.14232E+03 -9.33423E+02  8.45790E+02 -1.13267E+03  9.44912E+02  2.11894E+02
  8.57714E+02 -4.15388E+02  1.84818E+02 -5.55858E+02 -1.54671E+02  3.56258E+02  1.38501E+03  4.37008E+02
 -3.01953E+02 -1.50343E+02  1.04265E+03  9.33682E+02 -4.23991E+02  2.80439E+03  2.90653E+02  2.73846E+03
 -2.23873E+03  1.55873E+03 -1.61184E+03  2.51201E+02 -2.07757E+03 -2.73658E+02 -6.16512E+02 -1.53257E+03
  2.96752E+02 -1.03678E+03  1.58738E+02  2.54090E+01  1.29727E+03  1.25796E+03 -6.69025E+02  8.79310E+02
 -8.30925E+02  5.86475E+02 -1.74790E+03 -3.73345E+02  2.51587E+02 -2.08384E+03 -4.01826E+02 -1.61745E+03
  1.22845E+03 -1.43909E+03  2.37473E+01  2.16290E+03  1.87923E+03 -5.84861E+01 -1.69800E+02  1.31620E+03
  1.08983E+02 -1.36795E+02 -1.57778E+03  3.49256E+02  3.46533E+02 -5.26089E+02  1.66369E+03 -4.48573E+02
  1.10862E+03  4.37481E+02  2.38011E+03  7.13004E+02  9.74410E+02  1.20954E+03  3.78901E+02 -1.38617E+02
 -9.15855E+02 -1.57109E+02 -1.52254E+03  3.40996E+01 -7.51592E+02 -6.81415E+02  1.09878E+03 -1.01002E+03
  1.66866E+03 -1.59176E+03  9.14342E+02  3.30674E+01 -3.92478E+02  2.29957E+03  2.90373E+02 -1.09029E+01
 -6.87454E+02  1.14639E+03 -1.82545E+03  8.05639E+02  9.57053E+02  4.19148E+02 -5.95137E+02  5.55778E+02
 -2.15571E+02  1.11632E+03 -1.32902E+03 -9.97591E+01 -2.29945E+03 -6.25308E+02 -2.29679E+03 -1.05624E+03
 -1.26148E+03 -2.43102E+03  2.81460E+02 -2.39885E+03  7.79971E+02 -2.33364E+03  2.63680E+03 -9.00518E+02
  2.27560E+03  8.60774E+02  8.90909E+02  8.57088E+02 -5.23599E+02  1.99011E+03 -8.15464E+01  8.73548E+02
 -5.85748E+02 -7.22599E+02 -1.39847E+03 -6.31753E+02  3.01070E+02  3.75078E+02 -1.69646E+03  1.02376E+03
 -1.08930E+03 -6.04699E+01 -8.29448E+02  7.13880E+01  2.98377E+02 -3.56768E+02 -1.79778E+02 -6.19469E+02
  7.04708E+02  4.96336E+02  9.96144E+02  5.54236E+02  7.56473E+02  1.70533E+03 -7.25978E+02  1.97676E+03
 -2.50915E+02  2.65175E+03 -1.77469E+03  1.76873E+03 -1.77518E+03 -3.16251E+01 -1.48466E+03 -2.20251E+03
 -1.59739E+03 -1.40791E+03  2.33283E+02 -1.11736E+03  2.77147E+02 -1.47142E+03  1.82134E+02  1.18059E+03
  5.77453E+02  4.63217E+02  5.19288E+02  1.17023E+03 -1.17447E+03 -8.64929E+01  7.57374E+02  1.86929E+01
 -6.13759E+02  5.14841E+01  1.37577E+02  1.74659E+03  7.43511E+02 -1.91803E+02  5.18709E+02 -2.61730E+02
 -4.11850E+01 -3.95282E+02 -1.68548E+03 -6.51977E+02 -1.09539E+03 -3.07905E+02 -1.53296E+01 -2.30865E+03
  3.66047E+02 -1.51459E+03 -8.43737E+01 -4.26530E+02  9.94439E+02  8.43329E+01 -3.03112E+02  1.79635E+03
  2.66396E+02  1.36258E+03 -1.13593E+02  4.78549E+02 -7.88101E+02  7.58689E+02 -8.45339E+02 -7.52950E+02
  7.31625E+02 -4.89644E+02  1.19107E+02  1.06431E+03 -9.15236E+02  2.79247E+02 -6.90042E+02  4.86322E+02
 -5.99974E+02  3.37656E+02  9.05452E+02 -8.83921E+02  1.49441E+03 -2.09757E+03  3.05552E+02 -6.38597E+02
  1.26286E+03  1.12888E+03  3.72121E+02  6.58695E+02  8.97740E+02  2.45302E+02 -7.01464E+02  4.96520E+01
