 $NMID ID='MM_0lb_SNR200_18hz_g45_53.RAW', FMTDAT='(8E13.5)'
 TRAMP=1., VOLUME=1. $END
  3.09722E+05 -9.84579E+01  3.36540E+05  2.49780E+05  8.44231E+04  3.37305E+05 -1.30807E+05  2.49921E+05
 -1.89297E+05  8.34588E+04 -1.11322E+05 -3.33449E+04  1.47550E+03 -4.97178E+04  5.48618E+04  1.20127E+02
  3.59011E+04  5.36915E+04 -1.68943E+04  7.46762E+04 -6.02376E+04  6.27344E+04 -8.16837E+04  3.15876E+04
 -7.89438E+04 -1.04828E+04 -5.67474E+04 -4.97559E+04 -1.47823E+04 -6.84431E+04  2.67614E+04 -4.53135E+04
  3.93444E+04  3.54771E+03  1.61961E+04  4.70668E+04 -3.44021E+04  4.64017E+04 -6.50628E+04 -4.14830E+02
 -5.12152E+04 -5.61356E+04 -5.64695E+03 -7.57715E+04  3.34949E+04 -5.26238E+04  4.74169E+04 -1.70528E+04
  4.17569E+04  1.12573E+04  3.11099E+04  2.44841E+04  1.59536E+04  2.76085E+04 -4.90743E+03  2.61751E+04
 -2.17039E+04  1.29346E+04 -1.92285E+04 -4.41924E+03  4.08097E+03 -7.40246E+03  2.08181E+04  1.03808E+04
  6.50551E+03  3.32583E+04 -3.13788E+04  3.33704E+04 -6.11891E+04  1.96467E+03 -5.53524E+04 -4.16854E+04
 -1.17760E+04 -6.15204E+04  3.76361E+04 -4.25131E+04  5.47025E+04 -2.55874E+03  3.28457E+04  3.11196E+04
 -6.27615E+03  3.34867E+04 -2.81551E+04  1.45961E+04 -2.88270E+04 -6.34295E+03 -1.48077E+04 -1.09060E+04
 -7.20080E+03 -1.25620E+04 -1.28736E+03 -1.66755E+04  7.55477E+03 -2.21174E+04  1.53320E+04 -1.35481E+04
  1.10367E+04  4.18035E+03 -6.83200E+03  1.23645E+04 -1.97410E+04 -2.04530E+03 -7.98552E+03 -3.04696E+04
  2.11308E+04 -4.18734E+04  4.51290E+04 -1.91275E+04  4.27061E+04  1.78247E+04  1.45847E+04  4.18750E+04
 -1.51553E+04  3.16511E+04 -2.28140E+04  2.09506E+03 -8.40325E+03 -2.61476E+04  2.02957E+04 -2.99773E+04
  3.83189E+04 -7.34745E+03  3.21221E+04  2.26411E+04  1.51219E+04  4.20700E+04 -7.46339E+03  4.56829E+04
 -2.86364E+04  2.95253E+04 -3.73433E+04  8.23673E+03 -3.77030E+04 -1.47561E+04 -2.21438E+04 -3.49428E+04
  6.38445E+03 -3.47128E+04  2.93096E+04 -1.31203E+04  2.68456E+04  1.12182E+04  2.44007E+03  1.78239E+04
 -1.32920E+04  7.63298E+03 -1.04051E+04 -7.39353E+03  5.81135E+03 -1.04998E+04  1.81751E+04  6.65551E+03
  1.30005E+04  2.24657E+04 -6.65448E+03  2.33664E+04 -2.14521E+04  9.26348E+03 -2.60812E+04 -5.27706E+03
 -1.72183E+04 -1.66990E+04 -6.63741E+03 -1.71708E+04  3.36250E+03 -1.38577E+04  1.36123E+04 -1.44372E+04
  2.13256E+04 -1.19496E+04  2.81640E+04  1.37782E+03  2.10837E+04  1.61860E+04  4.41602E+03  3.27428E+04
 -1.53253E+04  2.58822E+04 -2.61628E+04  9.51940E+03 -1.95051E+04 -1.01822E+04 -4.06565E+03 -1.34827E+04
  3.41032E+03 -4.76791E+03 -3.10331E+03  5.11371E+03 -1.18500E+04  4.60133E+03 -1.32574E+04 -4.85475E+03
 -8.42086E+03 -1.63366E+04  3.85557E+03 -1.88082E+04  1.28657E+04 -1.45994E+04  1.44337E+04 -2.86973E+03
  9.05910E+03  1.10105E+04 -1.21023E+03  1.55930E+04 -9.57057E+03  9.24756E+03 -1.61120E+04 -3.81986E+03
 -1.19878E+04 -1.40581E+04 -1.73557E+03 -1.93738E+04  8.08696E+03 -1.58340E+04  1.62719E+04 -7.61502E+03
  1.41791E+04  1.43324E+03  1.04171E+04  4.85185E+03  5.28124E+03  5.15019E+02  8.32227E+03 -1.51902E+03
  1.33060E+04  3.30045E+03  1.56068E+04  1.19778E+04  9.30956E+03  2.53007E+04 -2.88972E+03  2.76269E+04
 -1.61199E+04  2.09119E+04 -2.44626E+04  1.02692E+04 -2.61217E+04 -1.43532E+03 -2.26196E+04 -1.41762E+04
 -9.78495E+03 -2.10450E+04  6.37549E+03 -1.95201E+04  1.72837E+04 -1.13927E+04  1.58465E+04  4.03748E+03
  6.43999E+03  1.12902E+04 -7.70233E+03  9.25082E+03 -1.31642E+04  2.28473E+03 -1.06811E+04 -8.00136E+03
  5.64944E+02 -1.23727E+04  6.72497E+03 -9.11558E+03  7.57409E+03 -1.35734E+03  2.15039E+03  5.18726E+03
 -5.96983E+03  1.72686E+03 -3.15665E+03 -5.52890E+03  8.11645E+01 -1.13009E+04  8.57461E+03 -1.01057E+04
  1.23039E+04 -5.63855E+03  1.31708E+04  2.02081E+03  9.76760E+03  8.73793E+03  5.60370E+03  1.46866E+04
 -2.07093E+03  1.68550E+04 -1.03414E+04  1.09780E+04 -1.19189E+04  3.08829E+03 -8.64099E+03 -1.28506E+03
 -4.13890E+03 -2.18586E+03 -9.29242E+02  1.27068E+03 -2.07150E+03  1.96824E+03 -3.53861E+03  2.87828E+03
 -8.25867E+03 -7.55403E+02 -9.45898E+03 -8.55991E+03 -3.36409E+03 -1.16382E+04  3.68540E+03 -8.37502E+03
  7.60248E+03 -3.61990E+03  4.16148E+03  1.70618E+03 -4.36923E+02  2.69788E+03 -4.23914E+03 -6.14485E+01
 -1.39627E+03 -5.36827E+03 -1.68580E+03 -8.17185E+03  3.96863E+03 -7.71753E+03  9.81493E+03 -3.64278E+03
  1.30257E+04  1.01462E+03  8.54732E+03  6.69997E+03  8.09912E+02  8.71253E+03 -5.37592E+03  7.85781E+03
 -7.51623E+03  1.98992E+03 -3.76098E+03 -8.09346E+02  2.63443E+02 -1.28574E+03  4.48167E+03 -3.55718E+02
  4.00855E+03  4.00450E+03  1.32748E+02  7.26941E+03 -4.10352E+03  6.66442E+03 -7.24303E+03  1.93450E+03
 -5.36621E+03 -2.95387E+03 -7.92475E+00 -7.75405E+03  3.64882E+03 -3.81229E+03  3.39179E+03  5.03799E+02
  1.09083E+03  3.06446E+03 -2.77432E+03  5.70141E+03 -4.99814E+03  1.39790E+03 -4.78927E+03 -1.79777E+03
 -4.14352E+03 -6.60953E+03  1.93546E+03 -6.85571E+03  6.38237E+03 -5.48810E+03  6.55030E+03  1.63820E+03
  4.42019E+03  4.89795E+03  2.08716E+02  6.76471E+03 -5.68089E+03  4.60381E+03 -4.70811E+03  6.86229E+02
 -6.70246E+03 -4.99916E+03 -1.68284E+03 -5.53229E+03  3.41266E+03 -4.29364E+03  3.66532E+03 -2.13187E+03
  2.73126E+03  9.03457E+02 -7.42510E+02  5.81875E+02  1.30370E+03 -8.45951E+02 -4.55822E+02 -1.89079E+03
  4.73870E+03 -1.63153E+03  5.76803E+03  2.35437E+02  6.43116E+03  3.32389E+03  6.08685E+03  7.50514E+03
 -9.39931E+02  9.06337E+03 -8.26125E+03  6.69404E+03 -1.06578E+04 -6.85488E+01 -8.56655E+03 -3.00588E+03
 -5.03817E+03 -6.38249E+03  6.56568E+02 -5.62270E+03  1.79605E+03 -2.01608E+03  2.22302E+03 -2.60827E+03
  1.21712E+03 -1.39791E+03  9.13261E+02 -2.70045E+03  3.78075E+03 -1.62933E+03  4.11027E+03  3.68911E+02
  3.83733E+03  5.56597E+02  2.14867E+03  4.77410E+03 -1.11756E+03  2.59816E+03 -4.36412E+03  3.45099E+03
 -5.03848E+03 -1.38426E+03 -1.02918E+03 -3.47033E+03  1.67445E+02 -4.74328E+03  3.71371E+03 -5.44965E+03
  5.81372E+03 -3.07537E+03  7.02903E+03 -5.42465E+02  6.00321E+03  4.49117E+03  1.16563E+03  6.63669E+03
 -1.95258E+03  6.04220E+03 -2.52246E+03  7.11146E+02 -1.64391E+03 -1.35357E+03 -7.08097E+02 -1.88183E+02
 -1.22252E+02 -3.86607E+02 -1.53526E+03  1.98230E+03 -3.57758E+03  8.03867E+02 -4.66557E+03 -4.30600E+02
 -1.83567E+03 -4.84278E+03  8.44326E+02 -4.59227E+03  3.17247E+03 -5.00868E+03  4.14660E+03 -1.89709E+03
  3.85572E+03  2.87684E+03  2.58316E+03  3.45010E+03 -1.05887E+03  5.07390E+03 -2.50549E+03  3.46216E+03
 -4.82567E+03  3.12311E+02 -3.43899E+03 -1.91149E+03 -1.07338E+03 -3.93998E+03  2.01347E+03 -2.00744E+03
  1.70508E+03 -7.24841E+02  2.56239E+03 -1.60068E+02  9.24544E+02  1.89014E+03  1.14640E+03  1.01740E+03
  1.21674E+03  4.60670E+02  9.39779E+02  9.82513E+02  9.83479E+02  1.87055E+03  2.20838E+03  3.35457E+03
 -1.76624E+03  2.93921E+03 -3.14199E+03  3.58676E+03 -2.73118E+03  1.26242E+03 -4.16851E+03 -5.45072E+02
 -2.13945E+03 -2.92731E+03  1.75584E+03 -3.98415E+03  2.26556E+03 -3.06145E+03  2.85938E+03 -1.52414E+02
  1.85636E+03  2.25261E+03  1.24191E+02  2.62005E+03 -2.79839E+02  3.88157E+02 -1.47930E+03  4.46149E+02
 -9.42034E+02 -6.12733E+02  6.33210E+02 -2.57436E+03  1.22974E+03  4.37348E+02  1.36610E+03  8.93884E+02
  8.27716E+02  5.78119E+02 -2.34273E+02 -7.42272E+02 -5.04933E+02  1.15335E+03  1.58795E+03 -2.77478E+03
 -1.10649E+02 -4.03111E+02  2.43765E+03  6.21974E+02  5.25661E+02  2.41574E+03 -1.12062E+03  1.80069E+03
 -1.61456E+03  2.28061E+03 -2.17440E+03  4.64743E+02 -1.63690E+03 -5.35239E+02 -2.34413E+02 -2.16343E+03
 -7.45494E+00 -8.73802E+02  3.26773E+02 -9.12114E+02  2.05365E+02  1.46104E+03 -1.34579E+03  1.82099E+03
 -1.96550E+03  5.71347E+02 -1.96989E+02 -1.46505E+03 -1.08484E+03 -3.26837E+03  3.23923E+02 -5.33004E+02
  1.77636E+03 -1.18385E+03  1.32854E+03  6.67396E+02  1.70573E+03 -5.69165E+02 -2.74406E+02  2.35345E+03
 -6.96252E+02 -6.23665E+02 -1.78806E+03 -8.65658E+02  7.08504E+02 -1.45010E+03  2.93159E+03 -1.33529E+03
  1.69194E+03  4.89027E+02  3.25429E+03  2.30129E+02  1.97815E+03  2.06051E+03  7.75974E+01  2.66005E+03
 -1.48182E+03  7.00546E+01 -1.83505E+03 -4.22763E+02 -3.97743E+02 -1.89993E+03  4.20576E+02 -1.14437E+01
  2.43721E+03 -1.68517E+03  2.48496E+03  4.10562E+02  4.97749E+02  2.08393E+03  9.85745E+02  1.41814E+03
 -9.43081E+02  1.54378E+03 -7.85614E+02  7.17977E+02 -7.48298E+01  1.47940E+03 -2.63129E+02  6.62471E+02
  1.41145E+02  1.77363E+03 -1.21218E+03 -2.75245E+02 -1.46975E+03 -5.94791E+02 -1.58214E+03 -4.36357E+02
 -1.27104E+03 -1.83548E+03  1.80169E+03 -2.07030E+03  1.32531E+03 -2.35020E+03  2.70862E+03 -1.84618E+03
  3.35097E+03  6.32334E+02  2.29715E+03  1.10217E+03 -1.22916E+03  2.09292E+02 -1.20404E+03  8.32986E+02
 -9.85064E+02 -2.32838E+02 -2.09883E+03  1.69098E+03 -5.42177E+02  1.06508E+03 -6.43793E+02 -2.32988E+01
 -1.14903E+03 -8.92536E+02 -1.23917E+03  5.46167E+02  4.10330E+02 -7.89196E+02 -1.12351E+03 -1.54016E+03
  1.16771E+03 -6.26483E+02  7.34717E+02  7.17193E+02  2.29215E+03 -1.44549E+02 -1.79787E+02  1.51263E+03
 -7.14335E+02  2.31280E+03 -1.60288E+03  8.08449E+02 -2.47793E+03  3.70495E+02 -1.48749E+03 -1.38609E+03
 -1.94889E+02 -1.27469E+03  8.05683E+02 -1.00807E+03  1.31928E+03 -3.12672E+02  9.16654E+02 -1.87754E+02
  9.79419E+02  4.12234E+02 -8.61582E+02  5.39297E+02 -4.09196E+02 -1.69589E+01 -6.14104E+01 -3.77692E+02
  1.04028E+03 -1.15639E+03  5.51433E+02  2.21544E+02  4.32367E+02  8.08570E+02  1.70183E+03 -7.52286E+02
 -8.16468E+02  1.35439E+03 -1.00524E+03 -9.23774E+02 -1.89767E+03 -1.26254E+02 -5.07401E+02 -1.94991E+03
  6.27105E+02 -2.28725E+03  2.32682E+01 -1.13132E+03  1.96741E+03 -1.39847E+03  5.09369E+02  5.97450E+02
  2.12613E+02  1.40506E+03 -6.60693E+02  1.05595E+03 -2.23848E+02  1.46490E+02 -4.24151E+02 -3.33924E+02
  1.35397E+02 -5.65887E+02  4.74492E+02  5.19585E+02 -1.96409E+03 -5.35033E+01 -9.80602E+02 -6.10107E+02
 -1.12256E+03  1.12681E+02  1.46649E+01 -6.94877E+02  8.88025E+02 -1.44255E+03  6.45370E+02  5.07612E+02
  7.92581E+02  2.86785E+02  1.39849E+02  1.62778E+02 -4.27869E+02  1.42188E+03 -6.11459E+02  6.16654E+02
