 $NMID ID='MM_0lb_SNR200_8hz_g40_92.RAW', FMTDAT='(8E13.5)'
 TRAMP=1., VOLUME=1. $END
  3.08872E+05 -1.03639E+02  3.38356E+05  2.51573E+05  8.48509E+04  3.37464E+05 -1.33627E+05  2.52571E+05
 -1.91642E+05  8.23564E+04 -1.10440E+05 -3.29311E+04 -7.35053E+02 -4.99898E+04  5.31359E+04 -2.29142E+03
  3.62002E+04  5.30706E+04 -1.69718E+04  7.54384E+04 -6.13372E+04  6.40691E+04 -8.36993E+04  3.37535E+04
 -8.47247E+04 -1.11257E+04 -5.78971E+04 -5.33624E+04 -1.52171E+04 -7.07382E+04  2.92232E+04 -4.65077E+04
  4.10109E+04  5.17308E+03  1.83794E+04  4.73245E+04 -3.63833E+04  4.85214E+04 -6.91508E+04 -7.88841E+02
 -5.57127E+04 -5.77491E+04 -5.90481E+03 -7.87355E+04  3.49667E+04 -5.69399E+04  5.01910E+04 -1.71189E+04
  4.59635E+04  1.15500E+04  3.32594E+04  2.61568E+04  1.78559E+04  2.99635E+04 -6.67848E+03  2.82168E+04
 -2.13568E+04  1.19809E+04 -1.83959E+04 -7.56513E+03  6.19592E+03 -7.31966E+03  2.20561E+04  1.38799E+04
  7.72721E+03  3.79616E+04 -3.31315E+04  3.74515E+04 -6.55875E+04  2.87073E+03 -5.95612E+04 -4.36918E+04
 -1.11431E+04 -6.72219E+04  4.14036E+04 -4.85977E+04  6.04348E+04 -3.18179E+03  3.70257E+04  3.44596E+04
 -4.86677E+03  3.84018E+04 -3.15467E+04  1.94584E+04 -3.38238E+04 -3.22109E+03 -1.92395E+04 -1.09690E+04
 -1.01474E+04 -1.51327E+04  1.78261E+02 -1.90881E+04  6.85296E+03 -2.30509E+04  1.67296E+04 -1.35642E+04
  9.58367E+03  7.05989E+03 -9.75455E+03  1.24569E+04 -2.42648E+04 -6.33446E+03 -8.79421E+03 -3.58167E+04
  2.55924E+04 -4.63591E+04  5.23669E+04 -1.99148E+04  4.78398E+04  2.10738E+04  1.60090E+04  4.75755E+04
 -1.62058E+04  3.56308E+04 -2.86954E+04  1.49621E+03 -9.22785E+03 -3.01906E+04  1.94927E+04 -3.64192E+04
  4.35086E+04 -1.19077E+04  3.94494E+04  2.52594E+04  1.89224E+04  5.18335E+04 -8.45069E+03  5.39507E+04
 -3.65171E+04  3.82031E+04 -4.71003E+04  1.11241E+04 -4.89342E+04 -1.94210E+04 -2.77966E+04 -4.28836E+04
  8.60084E+03 -3.93239E+04  3.46038E+04 -1.69429E+04  2.99612E+04  1.15423E+04  4.76980E+03  2.08538E+04
 -1.41216E+04  9.87713E+03 -1.10960E+04 -7.15875E+03  4.92266E+03 -1.08138E+04  1.95259E+04  4.24046E+03
  1.45865E+04  2.33403E+04 -6.29205E+03  2.77243E+04 -2.37133E+04  1.56057E+04 -3.21101E+04 -3.17202E+03
 -2.51597E+04 -1.79681E+04 -1.16874E+04 -2.45144E+04  4.23296E+03 -2.61860E+04  2.00561E+04 -2.41535E+04
  3.11052E+04 -1.57775E+04  3.86869E+04  3.00117E+03  2.86121E+04  2.73114E+04  5.02672E+03  4.22449E+04
 -2.09260E+04  3.55933E+04 -3.09970E+04  1.12076E+04 -2.31897E+04 -9.43048E+03 -2.97808E+03 -1.43583E+04
  1.19811E+03 -1.62917E+03 -8.11911E+03  7.63251E+03 -2.15880E+04  5.32999E+03 -1.93378E+04 -9.97837E+03
 -1.21835E+04 -2.38102E+04  7.28437E+03 -2.92090E+04  1.91595E+04 -1.96455E+04  2.17182E+04 -1.64955E+03
  1.42589E+04  1.46398E+04 -2.73325E+03  2.50268E+04 -1.91535E+04  1.20958E+04 -2.29545E+04 -5.91338E+03
 -1.69152E+04 -2.17527E+04 -2.79167E+03 -2.83075E+04  1.34133E+04 -2.38513E+04  2.50756E+04 -1.11889E+04
  2.28090E+04  1.18633E+02  1.44977E+04  5.23892E+03  8.30406E+03  1.10511E+03  1.30778E+04 -7.24044E+02
  2.32786E+04  1.98862E+03  2.53978E+04  1.86502E+04  1.69037E+04  3.96138E+04 -3.35338E+03  4.49076E+04
 -2.44582E+04  3.70911E+04 -4.28457E+04  2.02095E+04 -4.48088E+04 -4.34100E+03 -3.70185E+04 -2.62935E+04
 -1.35627E+04 -3.73700E+04  1.35721E+04 -3.32582E+04  2.82802E+04 -1.48641E+04  2.54366E+04  7.96921E+03
  8.23803E+03  1.83039E+04 -1.17311E+04  1.59093E+04 -1.87823E+04  2.94821E+03 -1.45863E+04 -1.26028E+04
 -6.15218E+02 -1.92758E+04  1.09895E+04 -1.66866E+04  1.17227E+04 -5.94555E+02  4.47526E+03  7.75064E+03
 -7.04085E+03  4.85836E+03 -8.20199E+03 -7.41829E+03 -2.05410E+03 -1.85816E+04  1.30499E+04 -2.11497E+04
  2.41173E+04 -1.18269E+04  2.75985E+04  4.13151E+03  2.38748E+04  2.00610E+04  1.08495E+04  2.81365E+04
 -4.15924E+03  3.09643E+04 -2.09684E+04  2.06507E+04 -2.23417E+04  2.88354E+03 -1.56300E+04 -5.46095E+03
 -6.18371E+03 -6.82687E+03 -6.98264E+02  1.64147E+03 -4.39025E+03  3.78018E+03 -6.60541E+03  6.06173E+03
 -1.42901E+04 -1.85549E+03 -1.52024E+04 -1.35482E+04 -5.94802E+03 -1.95946E+04  7.60326E+03 -1.47975E+04
  1.25175E+04 -6.60313E+03  8.62257E+03  2.81451E+03 -1.08120E+03  5.86911E+03 -8.74026E+03  2.88891E+01
 -7.84338E+03 -9.85775E+03 -2.49599E+03 -1.72214E+04  9.95296E+03 -1.73426E+04  2.04543E+04 -9.27597E+03
  2.38989E+04  2.17729E+03  1.61867E+04  1.41844E+04  3.32802E+03  2.03996E+04 -9.33506E+03  1.39913E+04
 -1.24025E+04  4.13211E+03 -7.07515E+03 -3.13218E+03  2.11448E+03 -5.06186E+03  8.98264E+03 -1.61857E+03
  7.69560E+03  7.46222E+03  2.17923E+03  1.36311E+04 -8.10404E+03  1.05490E+04 -1.58601E+04  2.14517E+03
 -1.05818E+04 -9.46913E+03 -1.38895E+03 -1.56174E+04  1.02924E+04 -5.80501E+03  9.38009E+03  3.09332E+03
  7.18591E+02  1.12428E+04 -8.85833E+03  1.17075E+04 -1.37596E+04  5.92399E+03 -1.39723E+04 -3.43121E+03
 -1.02275E+04 -1.68304E+04  3.54830E+03 -1.92887E+04  1.54912E+04 -1.12239E+04  1.77406E+04  3.28690E+03
  1.12732E+04  1.41370E+04 -2.08956E+03  1.80436E+04 -1.07056E+04  9.37585E+03 -1.47950E+04 -1.08871E+03
 -1.15185E+04 -1.14575E+04 -2.11605E+03 -1.20434E+04  6.40192E+03 -1.04753E+04  6.76763E+03 -2.54333E+03
  3.86716E+03  2.52461E+03 -3.78476E+02  1.51802E+03 -1.14020E+03 -2.72399E+03  1.63704E+03 -6.40838E+03
  1.15952E+04 -4.42941E+03  1.59867E+04  1.22961E+03  1.79620E+04  1.14958E+04  1.10145E+04  2.13010E+04
 -5.99258E+03  2.45576E+04 -2.04919E+04  1.91725E+04 -2.73555E+04  3.88699E+03 -2.08248E+04 -6.74087E+03
 -1.05118E+04 -1.89184E+04 -6.28453E+02 -1.43956E+04  5.41369E+03 -8.09035E+03  4.58108E+03 -5.57568E+03
  4.00899E+03 -2.72783E+03  5.91750E+03 -4.14367E+03  4.87733E+03 -2.89908E+03  6.48381E+03  4.80503E+02
  1.23127E+04  2.24453E+03  4.26572E+03  1.05109E+04 -1.74152E+03  1.26969E+04 -1.30715E+04  8.95365E+03
 -1.47085E+04 -4.34402E+03 -1.08816E+04 -1.16729E+04 -1.47656E+03 -1.61244E+04  9.18973E+03 -1.60952E+04
  1.72218E+04 -8.91517E+03  1.89746E+04  3.59542E+03  1.41633E+04  1.48220E+04  2.38334E+03  1.91567E+04
 -9.49153E+03  1.59042E+04 -1.16085E+04  5.50925E+03 -8.57601E+03 -7.80300E+02 -2.83239E+03 -9.31238E+02
 -9.46814E+02 -8.97229E+02 -2.29805E+03  3.85977E+03 -4.03140E+03  1.57314E+03 -1.15197E+04 -1.93210E+03
 -8.01124E+03 -1.08544E+04 -1.60520E+03 -1.72810E+04  8.41211E+03 -1.51872E+04  1.42157E+04 -5.49737E+03
  1.54463E+04  7.90673E+03  6.59548E+03  1.38111E+04 -3.53712E+03  1.60551E+04 -1.24817E+04  1.11250E+04
 -1.47011E+04  1.20587E+03 -1.24297E+04 -8.87160E+03 -2.26659E+03 -1.32270E+04  6.82492E+03 -9.97389E+03
  1.05402E+04 -3.37133E+03  6.63059E+03  2.85750E+03  2.11362E+03  4.01379E+03  1.61827E+03  2.39710E+03
  3.01169E+03  5.39105E+02  3.65887E+03  3.76205E+03  5.74455E+03  6.37189E+03  4.27475E+03  8.28024E+03
 -3.95148E+03  1.30165E+04 -1.07887E+04  1.33569E+04 -1.58472E+04  3.64980E+03 -1.66848E+04 -7.86513E+03
 -7.96262E+03 -1.76401E+04  1.36061E+03 -1.66409E+04  8.36187E+03 -9.31396E+03  1.26409E+04 -2.65374E+03
  1.06634E+04  7.94069E+03  2.61191E+03  8.73019E+03 -3.58398E+03  5.42834E+03 -6.94726E+03 -1.69016E+03
 -3.64680E+03 -6.02418E+03  2.92908E+03 -6.57370E+03  6.58128E+03 -4.44100E+03  6.68766E+03  2.33310E+03
  3.14515E+03  2.96579E+03  1.02119E+03  4.46927E+03 -7.70317E+02  1.65419E+03  4.11275E+02 -6.32622E+02
  3.05587E+03 -1.09990E+03  6.27091E+03  2.28725E+03  3.62504E+03  8.61280E+03 -1.70868E+03  9.78929E+03
 -8.02208E+03  7.28866E+03 -9.69906E+03  1.40104E+03 -8.06644E+03 -4.31224E+03 -3.81869E+03 -6.96606E+03
 -8.17252E+01 -5.22545E+03  5.93714E+03 -2.78651E+03  5.44582E+03  3.80075E+03 -2.14864E+03  4.13084E+03
 -7.56333E+03  2.42826E+03 -7.62171E+03 -4.60786E+03 -5.27295E+03 -9.51475E+03  1.65030E+03 -9.83279E+03
  4.38260E+03 -5.68289E+03  7.25067E+03 -3.41335E+02  5.20257E+03  2.52127E+03  1.50196E+03  5.74481E+03
 -2.91097E+03  8.09391E+02 -2.97973E+03 -3.37781E+03  1.47670E+03 -8.17437E+03  8.39281E+03 -7.15050E+03
  1.06420E+04  2.76202E+03  1.12560E+04  6.47697E+03  3.87316E+03  1.08543E+04 -5.69254E+03  9.81738E+03
 -7.57446E+03  4.80112E+03 -9.21951E+03  6.43605E+02 -4.97350E+03 -6.23742E+03  1.18684E+03 -6.80713E+03
  6.34359E+03 -4.69469E+03  6.43005E+03  2.68874E+03  6.23239E+02  6.42583E+03 -1.12695E+03  4.88501E+03
 -3.85899E+03  2.68175E+03 -2.25424E+03  5.63747E+02 -1.46128E+03  5.31747E+02 -3.27491E+03  2.05120E+03
 -2.78199E+03  3.31210E+03 -7.32221E+03  3.37694E+03 -1.08667E+04  1.05410E+03 -1.26240E+04 -5.89843E+03
 -6.74328E+03 -1.47007E+04  2.16921E+03 -1.71995E+04  1.07873E+04 -1.36891E+04  1.56023E+04 -4.41369E+03
  1.34798E+04  2.60361E+03  1.01447E+04  9.70583E+03  1.44077E+03  1.12565E+04 -5.34544E+03  7.30056E+03
 -6.78967E+03  2.03224E+03 -4.62100E+03 -1.24838E+03 -1.54406E+03 -1.23475E+03 -2.02056E+03 -3.20077E+02
 -2.22906E+03  9.61115E+02 -1.57735E+03  5.31640E+02 -1.95020E+03 -2.91800E+03  1.27920E+03 -4.59799E+03
  5.50368E+03 -5.13541E+03  9.13450E+03 -2.30797E+02  8.58713E+03  4.31846E+03  3.54174E+03  1.16524E+04
 -6.18753E+03  1.44234E+04 -1.15671E+04  6.42282E+03 -1.30669E+04 -2.87955E+03 -1.05983E+04 -7.58731E+03
 -3.78607E+03 -1.20171E+04  2.44566E+03 -1.18878E+04  8.59801E+03 -6.03986E+03  6.73365E+03  1.79141E+03
  2.91069E+03  2.87833E+03  2.88970E+02  1.88512E+03 -9.70598E+02  2.27523E+02 -5.94976E+01 -1.98582E+03
  2.91602E+03 -2.20620E+03  4.54208E+03  1.65064E+03  3.37888E+03  5.64134E+03  6.51450E+02  5.32776E+03
 -4.57753E+03  5.41164E+03 -8.03243E+03  3.97405E+02 -6.84003E+03 -5.37187E+03 -2.04935E+03 -9.43164E+03
  5.58818E+03 -7.95809E+03  9.86167E+03 -3.73900E+03  9.17967E+03  2.03835E+03  6.30299E+03  6.15367E+03
 -3.66139E+02  7.08220E+03 -3.18006E+03  7.16125E+03 -3.62231E+03  3.90836E+03 -3.87882E+03  3.98627E+02
 -1.80022E+03 -6.09835E+02 -2.03033E+03  3.27264E+02 -4.36786E+03  8.95694E+02 -7.05609E+03 -2.48425E+02
 -5.76345E+03 -4.32178E+03 -1.61013E+03 -6.88249E+03  5.09659E+03 -7.02981E+03  6.70658E+03 -5.62613E+03
  7.82617E+03  2.87209E+03  4.01967E+03  6.33844E+03 -5.13426E+02  8.60807E+03 -5.09353E+03  5.56645E+03
