 $NMID ID='MM_0lb_SNR200_14hz_g55_79.RAW', FMTDAT='(8E13.5)'
 TRAMP=1., VOLUME=1. $END
  3.10865E+05 -5.24914E+02  3.38064E+05  2.49995E+05  8.45508E+04  3.38324E+05 -1.32873E+05  2.51615E+05
 -1.90458E+05  8.43111E+04 -1.11486E+05 -3.21208E+04  3.06103E+01 -5.05762E+04  5.41179E+04 -8.37567E+01
  3.50404E+04  5.33558E+04 -1.74015E+04  7.50334E+04 -6.06435E+04  6.25046E+04 -8.52511E+04  3.14478E+04
 -8.07237E+04 -1.12718E+04 -5.77771E+04 -5.18746E+04 -1.40087E+04 -6.98910E+04  2.72630E+04 -4.63184E+04
  4.07938E+04  4.59243E+03  1.64757E+04  4.77604E+04 -3.46841E+04  4.73677E+04 -6.74883E+04 -1.45427E+03
 -5.44297E+04 -5.67523E+04 -6.76936E+03 -7.68407E+04  3.45990E+04 -5.55884E+04  4.87584E+04 -1.85107E+04
  4.37508E+04  1.16638E+04  3.21294E+04  2.57870E+04  1.64470E+04  2.96294E+04 -4.25896E+03  2.78059E+04
 -2.20623E+04  1.15353E+04 -1.97368E+04 -5.39136E+03  6.33592E+03 -6.96849E+03  2.13930E+04  1.30335E+04
  7.95458E+03  3.45926E+04 -3.25452E+04  3.67684E+04 -6.39078E+04  3.40900E+03 -5.71590E+04 -4.33705E+04
 -1.22291E+04 -6.39751E+04  4.00377E+04 -4.69870E+04  5.86336E+04 -5.80420E+02  3.50832E+04  3.35570E+04
 -5.06353E+03  3.48613E+04 -3.03059E+04  1.63985E+04 -3.08926E+04 -3.00344E+03 -1.81998E+04 -1.14601E+04
 -9.69291E+03 -1.38583E+04 -2.58883E+02 -1.85300E+04  7.49617E+03 -2.37086E+04  1.64713E+04 -1.34605E+04
  1.12881E+04  5.59298E+03 -8.19978E+03  1.31417E+04 -2.11668E+04 -4.43957E+03 -8.46807E+03 -3.37069E+04
  2.33333E+04 -4.36793E+04  4.91185E+04 -1.90138E+04  4.58340E+04  1.88091E+04  1.56020E+04  4.51977E+04
 -1.63985E+04  3.36308E+04 -2.56168E+04  2.37574E+03 -1.10424E+04 -2.88947E+04  2.16418E+04 -3.50749E+04
  4.16434E+04 -9.51338E+03  3.72512E+04  2.36024E+04  1.88032E+04  4.78763E+04 -8.79856E+03  5.26770E+04
 -3.27646E+04  3.28769E+04 -4.34980E+04  1.01887E+04 -4.26848E+04 -1.67768E+04 -2.35535E+04 -3.89789E+04
  6.78594E+03 -3.77272E+04  3.17349E+04 -1.47385E+04  2.98958E+04  9.97349E+03  4.32548E+03  1.87101E+04
 -1.32546E+04  7.57029E+03 -1.03553E+04 -6.78893E+03  5.60520E+03 -9.43237E+03  1.82231E+04  5.93643E+03
  1.34781E+04  2.26628E+04 -5.05887E+03  2.52730E+04 -2.25412E+04  1.19902E+04 -2.83923E+04 -5.13828E+03
 -2.08863E+04 -1.69070E+04 -9.02314E+03 -2.10002E+04  4.42502E+03 -2.10178E+04  1.82355E+04 -1.98118E+04
  2.68601E+04 -1.25136E+04  3.34177E+04  2.29092E+03  2.44271E+04  2.15844E+04  4.45208E+03  3.87635E+04
 -1.87476E+04  3.18645E+04 -2.84794E+04  1.13708E+04 -2.12172E+04 -1.06811E+04 -5.31638E+03 -1.44288E+04
  1.63584E+03 -2.45410E+03 -5.71625E+03  7.03781E+03 -1.73986E+04  4.06508E+03 -1.60294E+04 -7.29144E+03
 -8.44173E+03 -1.98916E+04  5.80786E+03 -2.36615E+04  1.53659E+04 -1.74703E+04  1.90500E+04 -1.95495E+03
  1.18387E+04  1.38386E+04 -1.59369E+03  1.89843E+04 -1.51787E+04  1.06876E+04 -2.13005E+04 -3.92250E+03
 -1.46607E+04 -1.73101E+04 -1.93407E+03 -2.34594E+04  1.01392E+04 -1.96105E+04  2.05470E+04 -9.50504E+03
  1.75219E+04  1.47263E+03  1.26501E+04  3.94949E+03  6.78330E+03  1.37378E+03  1.10148E+04 -2.54145E+03
  1.81676E+04  2.91779E+03  2.11282E+04  1.70891E+04  1.33746E+04  3.12453E+04 -3.75352E+03  3.55520E+04
 -2.21120E+04  2.97750E+04 -3.27033E+04  1.37942E+04 -3.44101E+04 -2.29713E+03 -2.79005E+04 -1.97159E+04
 -1.09897E+04 -2.91416E+04  1.03131E+04 -2.60486E+04  2.20416E+04 -1.38698E+04  2.06223E+04  3.99248E+03
  6.95688E+03  1.54719E+04 -8.08511E+03  1.27942E+04 -1.62884E+04  3.02329E+03 -1.33990E+04 -8.80759E+03
 -6.46641E+01 -1.68434E+04  8.22829E+03 -1.14496E+04  1.02405E+04 -1.41949E+03  3.88678E+03  8.05760E+03
 -6.89917E+03  1.93717E+03 -6.93274E+03 -6.10944E+03 -3.70547E+02 -1.40870E+04  9.81800E+03 -1.56542E+04
  1.73376E+04 -7.78217E+03  1.79086E+04  2.27905E+03  1.56895E+04  1.36473E+04  8.17983E+03  2.10362E+04
 -3.61801E+03  2.31986E+04 -1.43764E+04  1.45446E+04 -1.76320E+04  2.67885E+03 -1.20616E+04 -4.03242E+03
 -5.13334E+03 -5.32499E+03 -1.44230E+03  1.73352E+03 -2.85132E+03  2.98124E+03 -4.28824E+03  4.53478E+03
 -1.20804E+04 -1.92556E+02 -1.14355E+04 -1.06742E+04 -5.72609E+03 -1.58937E+04  4.73303E+03 -1.25018E+04
  9.55207E+03 -4.75652E+03  6.05733E+03  2.75104E+03  7.24134E+02  4.53357E+03 -5.54465E+03 -9.66557E+02
 -5.84203E+03 -6.59934E+03 -5.59778E+02 -1.07478E+04  6.09089E+03 -1.13445E+04  1.51188E+04 -7.24768E+03
  1.80031E+04  9.09034E+02  1.22315E+04  1.13309E+04  3.11272E+03  1.41556E+04 -7.27821E+03  1.29433E+04
 -9.33139E+03  3.54693E+03 -4.47385E+03 -2.04951E+03  1.52181E+03 -2.03995E+03  6.50493E+03 -1.39085E+03
  3.86364E+03  5.25264E+03  1.97755E+03  9.13774E+03 -7.79685E+03  9.84352E+03 -1.20257E+04  1.91852E+03
 -6.86361E+03 -6.34211E+03  1.96889E+02 -9.65662E+03  6.06927E+03 -4.44304E+03  5.60335E+03  2.73180E+03
  5.19524E+02  4.77254E+03 -6.19170E+03  7.59449E+03 -8.80457E+03  3.18643E+03 -8.28404E+03 -4.27816E+03
 -5.18440E+03 -1.11076E+04  2.20289E+03 -1.20506E+04  9.25122E+03 -8.57265E+03  9.80779E+03  2.37315E+03
  6.45222E+03  8.34379E+03  6.33352E+02  1.13101E+04 -1.04618E+04  5.11096E+03 -8.33599E+03 -5.83558E+02
 -8.42582E+03 -7.80399E+03 -6.95532E+02 -6.93412E+03  3.77854E+03 -6.34945E+03  4.91623E+03 -2.56780E+03
  3.42091E+03  4.86233E+02  9.06724E+02  2.29927E+03  3.40960E+02 -1.81465E+03  3.46241E+02 -4.72959E+03
  7.72538E+03 -1.46640E+03  1.05768E+04  1.59099E+03  9.95574E+03  6.60394E+03  8.46295E+03  1.32329E+04
 -2.33716E+03  1.60518E+04 -1.27345E+04  1.05631E+04 -1.52816E+04  1.33821E+03 -1.16899E+04 -6.23805E+03
 -5.71251E+03 -9.80072E+03 -1.35181E+02 -9.92390E+03  4.16933E+03 -5.29342E+03  2.20221E+03 -3.72021E+03
  2.41006E+03 -1.03405E+03  3.11140E+03 -2.89241E+03  4.88203E+03 -1.73602E+03  5.24393E+03 -2.33003E+02
  7.64322E+03  1.37276E+03  3.76991E+03  5.09191E+03 -2.07507E+03  5.17798E+03 -8.27694E+03  3.84309E+03
 -8.39914E+03 -1.13145E+03 -4.93104E+03 -5.91362E+03 -1.86712E+02 -9.23544E+03  5.79416E+03 -9.49758E+03
  9.44333E+03 -6.05219E+03  1.21941E+04  1.89270E+03  8.78316E+03  6.99458E+03  1.52724E+03  9.04558E+03
 -3.94118E+03  9.20105E+03 -5.45017E+03  2.49834E+03 -2.89221E+03 -1.21917E+03 -1.40861E+03 -1.75838E+03
 -1.94752E+02 -7.78344E+01 -2.20416E+03  2.06712E+03 -3.10372E+03  1.66616E+03 -7.21872E+03  4.79888E+02
 -4.12021E+03 -6.21110E+03  9.50081E+02 -8.76952E+03  4.64364E+03 -8.47555E+03  6.74872E+03 -2.13820E+03
  7.91090E+03  5.18567E+03  4.17174E+03  6.88469E+03 -1.63144E+03  9.67512E+03 -6.07214E+03  4.68625E+03
 -8.52210E+03  1.92572E+02 -6.90205E+03 -5.12311E+03 -9.53503E+02 -6.48411E+03  4.04822E+03 -4.70399E+03
  5.86730E+03 -1.77857E+03  3.19216E+03  7.21761E+02  9.61276E+02  1.87298E+03  1.76037E+03  2.56872E+03
  1.70863E+03  5.75859E+02  1.61026E+03  1.70975E+03  1.02586E+03  2.41863E+03  2.75757E+03  3.52930E+03
 -2.03740E+03  5.56118E+03 -5.27918E+03  7.03359E+03 -7.55688E+03  2.55723E+03 -8.10679E+03 -1.56191E+03
 -3.70858E+03 -6.90227E+03  1.28335E+03 -8.62723E+03  3.99797E+03 -4.59248E+03  6.67556E+03 -1.04554E+03
  6.35683E+03  3.74640E+03  2.65124E+03  5.30892E+03 -1.76386E+03  2.65480E+03 -3.06556E+03 -1.12769E+03
 -1.87493E+03 -2.80473E+03  2.43259E+03 -4.10456E+03  1.24721E+03 -9.48870E+02  2.70944E+03  1.17846E+02
  8.81204E+02 -3.38408E+02  9.10553E+02  5.25423E+02 -3.63511E+02  1.95371E+03  2.34962E+03 -1.57300E+03
  1.80172E+03 -1.07402E+03  2.48136E+03  1.40710E+03  1.20036E+03  3.61291E+03 -7.99740E+02  5.64270E+03
 -2.93639E+03  3.17545E+03 -4.61099E+03  1.28188E+03 -3.99107E+03 -2.63878E+03 -1.09474E+03 -3.00396E+03
  1.26444E+03 -2.79178E+03  2.29804E+03 -2.49528E+02  3.02923E+03  1.63605E+03 -6.77531E+02  2.15134E+03
 -3.38010E+03  2.00396E+03 -4.72302E+03 -2.66258E+03 -2.36799E+03 -4.85838E+03  9.71790E+02 -4.19212E+03
  2.09102E+03 -2.12512E+03  2.90844E+03  4.17703E+02  3.37465E+03  6.37486E+02  1.21788E+03  2.75511E+03
 -4.97340E+02 -1.20421E+03 -1.25860E+03 -9.67061E+02  2.13922E+03 -3.36654E+03  4.12275E+03 -2.23818E+03
  3.61241E+03  1.01871E+03  4.98869E+03  2.57468E+03  1.54711E+03  4.35714E+03 -2.29603E+03  4.52518E+03
 -5.30584E+03  1.90424E+03 -5.57119E+03  1.30650E+02 -2.78896E+03 -2.50389E+03  5.36735E+02 -1.94744E+03
  3.20410E+03 -1.03746E+03  2.51346E+03  5.12079E+02  1.33977E+03  2.75416E+03 -3.69081E+02  2.63348E+03
 -9.97601E+02  2.79745E+03 -2.10837E+03  1.40349E+03  3.36167E+02 -3.42601E+02 -5.97866E+02  6.90783E+02
 -1.30370E+03  1.07561E+03 -2.86643E+03  3.54836E+01 -4.02758E+03 -3.29882E+02 -4.67278E+03 -2.70365E+03
 -2.83881E+03 -6.84160E+03  9.31286E+02 -6.09982E+03  4.18532E+03 -6.35947E+03  7.04026E+03 -1.94095E+03
  6.49724E+03  1.02359E+03  2.94289E+03  3.39165E+03 -1.30426E+03  5.25837E+03 -1.98736E+03  2.40859E+03
 -3.13120E+03  1.98688E+03 -7.71588E+02 -1.13351E+03 -5.93652E+02 -1.59464E+02 -9.11955E+02 -5.76858E+02
 -8.54945E+02  1.40429E+03 -7.91414E+02  4.35077E+02 -7.21274E+01 -7.87989E+02  8.14286E+02 -2.45600E+03
  1.45247E+03 -1.42458E+03  1.91877E+03  4.23856E+02  2.75827E+03  2.25927E+03  2.09307E+02  3.07788E+03
 -1.84372E+03  4.22296E+03 -3.68196E+03  2.13475E+03 -4.03542E+03 -2.55547E+02 -4.48702E+03 -2.94275E+03
 -1.61127E+03 -3.44536E+03  1.05009E+03 -4.28935E+03  2.30965E+03 -2.21105E+03  1.52213E+03  3.98782E+02
  2.88727E+03  9.52502E+02  3.27930E+02  1.47803E+03 -5.36938E+02 -3.36826E+02  1.48416E+02 -5.52309E+02
  1.16566E+03 -1.19216E+01  8.72854E+02  7.70010E+02  1.57774E+03  2.18735E+03  2.26524E+02  2.80803E+03
 -1.20857E+03  1.12738E+03 -1.93943E+03 -2.92374E+02 -2.12228E+03 -1.79996E+03 -6.86441E+02 -8.84841E+02
  2.03691E+03 -2.40127E+03  1.34773E+03 -7.42298E+02  2.52447E+03  6.18657E+02  5.66046E+02  2.00914E+03
 -5.04760E+02  2.79128E+03 -1.81311E+03  1.85038E+03 -1.14850E+03  5.52999E+02 -6.15863E+02 -1.04124E+03
  2.60991E+02  2.43506E+02 -1.58435E+03 -5.31067E+01 -8.42309E+02  8.28643E+02 -1.58850E+03  6.87791E+02
 -1.32526E+03 -1.20787E+03  6.27471E+02 -1.71365E+03  1.39332E+03 -2.38393E+03  2.76762E+03 -1.90961E+03
  2.04491E+03 -1.04281E+02  4.16832E+02  2.59437E+03 -1.88802E+01  2.93377E+03 -2.10295E+03  7.14279E+02
