 $NMID ID='MM_0lb_SNR200_8hz_g45_21.RAW', FMTDAT='(8E13.5)'
 TRAMP=1., VOLUME=1. $END
  3.10649E+05  1.56158E+03  3.37188E+05  2.49971E+05  8.70152E+04  3.36962E+05 -1.31733E+05  2.51419E+05
 -1.91152E+05  8.36629E+04 -1.13292E+05 -3.24567E+04  2.32209E+02 -4.98192E+04  5.35927E+04  2.34920E+02
  3.55763E+04  5.13954E+04 -1.63684E+04  7.59208E+04 -6.10473E+04  6.49625E+04 -8.44873E+04  3.28472E+04
 -8.28638E+04 -1.06070E+04 -5.93053E+04 -5.26064E+04 -1.58049E+04 -6.95843E+04  2.71249E+04 -4.65616E+04
  4.18054E+04  3.78521E+03  1.74578E+04  4.90510E+04 -3.69031E+04  4.83890E+04 -6.77726E+04  9.94557E+02
 -5.54296E+04 -5.91340E+04 -6.66804E+03 -7.88830E+04  3.47125E+04 -5.63349E+04  4.93739E+04 -1.86124E+04
  4.60597E+04  8.82827E+03  3.14494E+04  2.63604E+04  1.59657E+04  2.88254E+04 -4.14226E+03  2.94273E+04
 -2.39170E+04  1.16798E+04 -1.75214E+04 -7.00456E+03  6.32243E+03 -7.22867E+03  2.14586E+04  1.30956E+04
  7.01105E+03  3.84076E+04 -3.25636E+04  3.84765E+04 -6.57605E+04  7.97392E+02 -5.89710E+04 -4.35807E+04
 -1.13470E+04 -6.45638E+04  4.17373E+04 -4.61016E+04  6.13582E+04 -1.84905E+03  3.74527E+04  3.55531E+04
 -6.63002E+03  4.10310E+04 -3.34624E+04  1.85547E+04 -3.33593E+04 -5.20075E+03 -2.02004E+04 -1.31060E+04
 -1.03455E+04 -1.52169E+04  1.10003E+03 -2.02177E+04  7.38913E+03 -2.21536E+04  1.53366E+04 -1.18439E+04
  1.05293E+04  6.93965E+03 -1.03232E+04  1.41343E+04 -2.40014E+04 -8.49807E+03 -9.15782E+03 -3.79127E+04
  2.65498E+04 -4.75599E+04  4.96661E+04 -2.17960E+04  4.97674E+04  2.08753E+04  1.62654E+04  4.64345E+04
 -1.57998E+04  3.54833E+04 -2.93495E+04  3.14883E+03 -1.13511E+04 -2.98465E+04  2.26000E+04 -3.71894E+04
  4.34640E+04 -1.11767E+04  4.04818E+04  2.44509E+04  2.03264E+04  5.06662E+04 -9.06836E+03  5.72480E+04
 -3.44671E+04  3.93457E+04 -4.71678E+04  8.93221E+03 -4.80458E+04 -1.83016E+04 -2.62661E+04 -4.27101E+04
  7.75638E+03 -4.39270E+04  3.52261E+04 -1.80279E+04  3.25998E+04  1.25444E+04  5.83783E+03  2.23092E+04
 -1.56040E+04  9.91007E+03 -1.12233E+04 -7.64247E+03  4.07899E+03 -1.20775E+04  1.90571E+04  6.45516E+03
  1.47847E+04  2.27972E+04 -5.43635E+03  2.71990E+04 -2.35545E+04  1.51071E+04 -3.31701E+04 -4.05636E+03
 -2.49300E+04 -1.76447E+04 -1.10794E+04 -2.59912E+04  4.58073E+03 -2.70167E+04  2.01003E+04 -2.43675E+04
  3.21788E+04 -1.64797E+04  3.85134E+04  3.74950E+03  2.92340E+04  2.45670E+04  4.85937E+03  4.34733E+04
 -2.03853E+04  3.38113E+04 -2.97567E+04  1.15536E+04 -2.31271E+04 -1.16153E+04 -5.15129E+03 -1.41213E+04
  2.09300E+03 -1.96561E+03 -7.10658E+03  8.12223E+03 -2.09310E+04  6.49011E+03 -2.13368E+04 -1.00022E+04
 -1.20605E+04 -2.28697E+04  4.00871E+03 -2.84919E+04  1.82813E+04 -1.86666E+04  2.32750E+04 -8.76284E+02
  1.54869E+04  1.58935E+04 -2.50455E+03  2.38892E+04 -1.51925E+04  1.48907E+04 -2.55957E+04 -3.38727E+03
 -1.65776E+04 -2.14787E+04 -2.12264E+03 -2.87856E+04  1.25045E+04 -2.36678E+04  2.30493E+04 -1.15096E+04
  2.24152E+04 -1.39142E+03  1.56944E+04  6.23517E+03  1.00262E+04  9.98411E+02  1.16905E+04 -1.90203E+03
  2.19674E+04  2.17887E+03  2.72591E+04  1.80761E+04  1.76984E+04  3.84233E+04 -4.05313E+03  4.46233E+04
 -2.57469E+04  3.73835E+04 -4.35594E+04  2.07194E+04 -4.64113E+04 -3.81940E+03 -3.80596E+04 -2.70931E+04
 -1.66335E+04 -3.90391E+04  1.47033E+04 -3.23489E+04  3.04890E+04 -1.69706E+04  2.51828E+04  7.26246E+03
  8.81080E+03  1.85641E+04 -1.21246E+04  1.60631E+04 -2.06118E+04  1.33375E+03 -1.52242E+04 -1.28151E+04
 -3.56653E+02 -2.09370E+04  9.65173E+03 -1.48513E+04  1.21436E+04 -8.04664E+02  3.10907E+03  8.87217E+03
 -7.96699E+03  4.40076E+03 -9.04418E+03 -7.95148E+03 -2.24123E+03 -1.85924E+04  1.19766E+04 -2.06282E+04
  2.40701E+04 -1.23626E+04  2.64588E+04  4.13914E+03  2.39070E+04  1.91618E+04  1.08274E+04  2.99201E+04
 -6.16684E+03  3.07714E+04 -2.30258E+04  2.09152E+04 -2.20416E+04  3.76940E+03 -1.53457E+04 -7.20223E+03
 -6.00974E+03 -8.25985E+03 -5.53976E+02  1.93524E+02 -3.93283E+03  3.29853E+03 -7.01133E+03  7.25798E+03
 -1.41840E+04 -1.07621E+02 -1.49212E+04 -1.09918E+04 -5.52299E+03 -2.15722E+04  5.96822E+03 -1.77592E+04
  1.26207E+04 -6.30718E+03  8.75536E+03  4.88648E+03 -1.03065E+03  7.21465E+03 -8.86911E+03  1.88187E+02
 -8.27721E+03 -1.02903E+04 -2.05262E+02 -1.51737E+04  1.01104E+04 -1.64636E+04  2.18485E+04 -8.40959E+03
  2.42763E+04  3.20158E+03  1.74536E+04  1.37690E+04  3.33537E+03  1.88821E+04 -1.06590E+04  1.65977E+04
 -1.37982E+04  3.47561E+03 -5.57912E+03 -2.54922E+03  3.04763E+03 -4.58037E+03  1.00103E+04 -6.82449E+02
  7.50582E+03  7.39129E+03  2.15371E+03  1.40280E+04 -9.86152E+03  1.14722E+04 -1.57771E+04  2.58268E+03
 -1.20733E+04 -6.81028E+03 -4.31492E+01 -1.37574E+04  8.86065E+03 -7.44647E+03  9.43704E+03  2.74075E+03
  1.86130E+03  1.02719E+04 -8.26446E+03  1.24978E+04 -1.65062E+04  6.26847E+03 -1.48651E+04 -5.58978E+03
 -8.91554E+03 -1.77869E+04  4.19869E+03 -2.05871E+04  1.52909E+04 -1.07222E+04  1.89982E+04  4.15037E+03
  1.11006E+04  1.25381E+04 -3.33975E+02  1.78017E+04 -1.24632E+04  9.37268E+03 -1.34278E+04 -9.88470E+02
 -1.17956E+04 -1.00689E+04 -1.36487E+03 -1.28780E+04  7.51614E+03 -1.18027E+04  7.42418E+03 -4.37926E+03
  4.97512E+03  3.81624E+03 -2.65672E+03  2.49822E+03  1.57199E+02 -4.65382E+03  3.94443E+03 -7.92269E+03
  1.27183E+04 -6.46459E+03  1.78264E+04  2.12558E+03  1.57573E+04  1.24267E+04  1.11097E+04  2.32708E+04
 -4.30469E+03  2.46604E+04 -2.24441E+04  1.99975E+04 -2.68109E+04  3.62024E+03 -2.09209E+04 -1.18446E+04
 -1.05296E+04 -1.72485E+04 -3.99115E+02 -1.63449E+04  5.56288E+03 -7.58629E+03  5.20328E+03 -6.45394E+03
  4.27502E+03 -3.76165E+03  4.51526E+03 -3.62141E+03  5.70768E+03 -4.17516E+03  7.97983E+03 -1.35138E+02
  1.08410E+04  1.44850E+03  5.02000E+03  8.84542E+03 -1.89467E+03  1.31931E+04 -1.09643E+04  8.79393E+03
 -1.64256E+04 -1.46280E+03 -1.06779E+04 -8.10100E+03 -2.36668E+03 -1.75943E+04  9.16485E+03 -1.59300E+04
  1.70171E+04 -8.82110E+03  2.15598E+04  4.16417E+03  1.36197E+04  1.63364E+04  2.52686E+03  1.96378E+04
 -7.94291E+03  1.32741E+04 -1.15124E+04  6.68919E+03 -7.16762E+03 -8.27008E+02 -4.14979E+03 -2.43227E+03
 -9.71807E+02 -1.21322E+02 -1.52815E+03  4.25601E+03 -6.56851E+03  2.47661E+03 -1.10144E+04 -2.88332E+03
 -6.21347E+03 -1.00173E+04  4.94019E+02 -1.36679E+04  1.06232E+04 -1.53403E+04  1.46192E+04 -4.59727E+03
  1.66816E+04  8.28158E+03  7.45673E+03  1.50278E+04 -4.92669E+03  1.68720E+04 -1.10435E+04  8.91935E+03
 -1.57826E+04  1.95568E+02 -1.29231E+04 -9.96189E+03 -1.23100E+03 -1.28153E+04  6.62075E+03 -1.15487E+04
  9.58633E+03 -3.27118E+03  6.95895E+03  4.44837E+03  3.29732E+03  4.76611E+03  1.88190E+03  1.73660E+03
  3.23177E+03  4.10389E+02  3.61822E+03  2.25160E+03  6.37694E+03  4.99694E+03  4.62474E+03  1.00326E+04
 -4.84870E+03  1.28957E+04 -1.11526E+04  1.27043E+04 -1.79375E+04  3.69702E+03 -1.77496E+04 -7.87826E+03
 -7.89151E+03 -1.55312E+04  4.59510E+03 -1.86401E+04  1.03521E+04 -1.25264E+04  1.45114E+04 -3.28341E+03
  8.40306E+03  7.83210E+03  3.70352E+03  8.91921E+03 -5.99238E+03  7.26133E+03 -8.61388E+03  5.45352E+01
 -3.11914E+03 -6.07232E+03  4.12833E+03 -7.06695E+03  7.77616E+03 -3.02644E+03  5.93558E+03  2.33946E+03
  3.85663E+03  4.02562E+03 -7.78256E+02  3.64243E+03 -1.59694E+03  1.45351E+03  1.87715E+03 -1.42641E+02
  2.07352E+03 -8.88507E+02  5.78372E+03  1.38491E+03  2.44821E+03  8.70484E+03 -7.19892E+02  1.00243E+04
 -8.75540E+03  8.67720E+03 -1.11658E+04  2.11316E+03 -1.13574E+04 -3.07195E+03 -2.10340E+03 -7.09222E+03
  2.42338E+03 -7.50967E+03  5.12481E+03 -4.13577E+03  2.95612E+03  1.32140E+03 -2.35086E+03  6.04419E+03
 -7.98499E+03  1.74808E+03 -7.75565E+03 -4.74079E+03 -5.01600E+03 -8.74364E+03  1.22739E+03 -8.85144E+03
  5.31323E+03 -5.07314E+03  6.13677E+03 -6.20624E+02  6.06164E+03  3.06546E+03  7.18337E+02  3.97302E+03
 -4.30895E+03  2.04097E+03 -4.23083E+03 -5.77288E+03  9.51831E+02 -6.27071E+03  8.65268E+03 -7.42048E+03
  1.14214E+04  1.11609E+03  1.06989E+04  8.69568E+03  2.25458E+03  1.11050E+04 -1.91350E+03  9.99832E+03
 -8.94942E+03  5.88608E+03 -1.06446E+04 -6.45105E+02 -4.09001E+03 -7.72174E+03  4.56381E+02 -6.28245E+03
  7.71921E+03 -2.81240E+03  6.01191E+03  1.64922E+03  1.84903E+03  5.86624E+03  6.03918E+01  7.68787E+03
 -4.20334E+03  2.38542E+03 -3.15806E+03  1.73674E+03 -9.94236E+02  1.65139E+03 -2.66177E+03  1.73005E+03
 -2.57154E+03  4.87678E+03 -5.64990E+03  3.03317E+03 -1.22441E+04  1.01290E+03 -1.16894E+04 -8.17391E+03
 -6.58387E+03 -1.49559E+04  3.38073E+03 -1.79409E+04  1.06662E+04 -1.40744E+04  1.60839E+04 -5.23592E+03
  1.48429E+04  3.83576E+03  9.89822E+03  9.94841E+03  1.23644E+03  1.18158E+04 -4.49418E+03  1.00253E+04
 -7.12758E+03  4.89464E+03 -4.00012E+03 -1.68004E+03 -2.54739E+03 -3.30233E+03 -2.53180E+02  3.68880E+02
 -2.22794E+03  1.04184E+03 -3.01542E+03 -1.51187E+03 -1.43425E+03 -3.02317E+03 -7.47841E+02 -3.10587E+03
  5.35999E+03 -4.84396E+03  7.14986E+03 -1.26823E+03  8.94530E+03  6.17440E+03  1.42713E+03  1.05810E+04
 -5.71148E+03  1.21448E+04 -1.26358E+04  6.69019E+03 -1.45079E+04  2.15073E+02 -1.07850E+04 -9.39582E+03
 -3.79784E+03 -1.26550E+04  3.41043E+03 -1.07826E+04  7.01480E+03 -5.33484E+03  8.98039E+03 -6.82602E+02
  2.15107E+03  4.96369E+03  1.81966E+03  3.77467E+03 -1.92614E+03 -1.55093E+03  3.60569E+02 -3.42116E+03
  2.84557E+03 -2.32959E+03  5.49465E+03  1.89400E+03  1.43392E+03  5.30299E+03  8.13493E+02  5.91255E+03
 -4.18529E+03  5.51185E+03 -8.69100E+03 -8.62779E+02 -7.51123E+03 -5.27664E+03 -1.97661E+03 -1.00301E+04
  4.69479E+03 -7.91374E+03  1.08368E+04 -2.89604E+03  9.92716E+03  1.85431E+03  6.97465E+03  7.50171E+03
  1.03154E+03  7.69108E+03 -1.62558E+03  7.48372E+03 -4.99508E+03  3.67087E+03 -5.08469E+03  8.00108E+02
 -2.03518E+03 -4.96452E+02 -3.33173E+03  1.64050E+03 -3.56837E+03  6.76368E+02 -5.92136E+03 -1.51158E+03
 -7.27124E+03 -5.71412E+03 -1.56456E+03 -8.09451E+03  3.40355E+03 -6.66957E+03  8.46287E+03 -3.92775E+03
  8.90737E+03 -1.15294E+02  4.64629E+03  5.07839E+03 -8.72758E+02  9.93794E+03 -6.23166E+03  3.60625E+03
