 $NMID ID='MM_0lb_SNR200_7hz_g55_2.RAW', FMTDAT='(8E13.5)'
 TRAMP=1., VOLUME=1. $END
  3.10789E+05  3.34534E+02  3.38775E+05  2.51912E+05  8.54834E+04  3.37381E+05 -1.31920E+05  2.51817E+05
 -1.90628E+05  8.46405E+04 -1.13521E+05 -3.36090E+04 -2.60406E+03 -5.05202E+04  5.13370E+04 -8.88380E+02
  3.66609E+04  5.36362E+04 -1.66959E+04  7.47281E+04 -6.10274E+04  6.52133E+04 -8.48492E+04  3.37869E+04
 -8.51356E+04 -1.13207E+04 -5.83323E+04 -5.34205E+04 -1.35557E+04 -7.33876E+04  2.74083E+04 -4.85103E+04
  4.15213E+04  3.20735E+03  1.76949E+04  4.76115E+04 -3.50570E+04  4.84585E+04 -6.97611E+04  1.94304E+03
 -5.51376E+04 -5.70304E+04 -7.27725E+03 -8.03201E+04  3.29845E+04 -5.76570E+04  5.01197E+04 -1.82836E+04
  4.64323E+04  1.10431E+04  3.42191E+04  2.56885E+04  1.70503E+04  3.32954E+04 -6.12975E+03  2.87958E+04
 -2.09532E+04  1.28751E+04 -1.93937E+04 -4.97921E+03  8.15142E+03 -7.11312E+03  2.28489E+04  1.50602E+04
  7.43732E+03  3.91127E+04 -3.50435E+04  3.88362E+04 -6.75546E+04  1.10412E+03 -5.86519E+04 -4.44795E+04
 -1.35094E+04 -6.77796E+04  4.32609E+04 -4.97220E+04  6.12841E+04 -1.15055E+03  3.82575E+04  3.58369E+04
 -5.43190E+03  4.26181E+04 -3.20255E+04  2.13502E+04 -3.41474E+04 -2.28896E+03 -1.92694E+04 -1.22425E+04
 -1.06901E+04 -1.69709E+04  4.43093E+02 -1.93611E+04  8.78197E+03 -2.28889E+04  1.58766E+04 -1.28169E+04
  9.61504E+03  8.52716E+03 -1.11838E+04  1.13020E+04 -2.28524E+04 -7.39582E+03 -7.88203E+03 -3.80199E+04
  2.56892E+04 -4.91709E+04  5.38669E+04 -2.00353E+04  5.04956E+04  2.21855E+04  1.88188E+04  4.87135E+04
 -1.84964E+04  3.71947E+04 -2.88275E+04  4.07583E+03 -1.31146E+04 -2.96911E+04  2.11852E+04 -3.83849E+04
  4.69855E+04 -1.26471E+04  4.31923E+04  2.40736E+04  2.19742E+04  5.30571E+04 -9.90320E+03  6.09112E+04
 -3.60980E+04  4.16775E+04 -5.08774E+04  1.06368E+04 -4.91585E+04 -2.07222E+04 -2.69759E+04 -4.44152E+04
  7.69838E+03 -4.56079E+04  3.63114E+04 -1.74559E+04  3.44336E+04  1.04710E+04  5.45775E+03  2.14787E+04
 -1.36153E+04  1.02079E+04 -1.10680E+04 -6.90130E+03  5.91009E+03 -1.16078E+04  1.86610E+04  4.93173E+03
  1.53183E+04  2.31971E+04 -5.21367E+03  2.85571E+04 -2.28888E+04  1.72631E+04 -3.54512E+04 -2.50114E+03
 -2.80603E+04 -1.90841E+04 -1.33861E+04 -2.68463E+04  5.36470E+03 -2.77436E+04  2.19178E+04 -2.92423E+04
  3.61310E+04 -1.50668E+04  4.05268E+04  4.64444E+03  2.86731E+04  2.56628E+04  3.64300E+03  4.27929E+04
 -2.15637E+04  3.35207E+04 -3.04340E+04  1.32785E+04 -2.15641E+04 -9.93804E+03 -5.44120E+03 -1.36057E+04
 -5.16232E+02 -1.04119E+03 -8.98237E+03  8.64537E+03 -2.20770E+04  4.63744E+03 -2.08751E+04 -1.13142E+04
 -1.37852E+04 -2.66181E+04  5.43509E+03 -3.13143E+04  2.04155E+04 -2.06769E+04  2.44396E+04 -2.66771E+03
  1.64010E+04  1.76102E+04 -2.92035E+03  2.52599E+04 -1.92791E+04  1.62773E+04 -2.56629E+04 -4.61668E+03
 -1.93907E+04 -2.20384E+04 -2.62643E+03 -2.93570E+04  1.53911E+04 -2.65529E+04  2.48111E+04 -1.45540E+04
  2.40866E+04  4.93633E+02  1.58348E+04  5.82482E+03  9.43454E+03  2.78014E+03  1.42720E+04 -1.80106E+03
  2.40146E+04  2.71314E+03  2.98356E+04  1.88763E+04  2.01415E+04  4.21446E+04 -4.63514E+03  5.12259E+04
 -2.57088E+04  4.20012E+04 -4.74977E+04  2.26377E+04 -4.97094E+04 -2.48388E+03 -3.95892E+04 -2.78587E+04
 -1.62344E+04 -4.28705E+04  1.74106E+04 -3.80558E+04  3.22746E+04 -1.81570E+04  2.64513E+04  1.08811E+04
  7.92880E+03  2.17304E+04 -1.30793E+04  1.60581E+04 -2.04907E+04  2.43597E+03 -1.75931E+04 -1.59541E+04
 -5.98813E+02 -2.19887E+04  1.05327E+04 -1.51078E+04  1.59396E+04 -1.67083E+03  5.34466E+03  8.72819E+03
 -9.45707E+03  5.42359E+03 -9.34498E+03 -8.10635E+03 -1.73873E+03 -2.18021E+04  1.13581E+04 -2.45620E+04
  2.54684E+04 -1.40670E+04  2.94267E+04  1.38105E+03  2.92766E+04  2.15667E+04  1.16664E+04  3.36218E+04
 -7.37673E+03  3.55627E+04 -2.36215E+04  2.15134E+04 -2.61807E+04  3.39949E+03 -1.90513E+04 -7.03291E+03
 -9.40939E+03 -7.93052E+03 -9.18753E+02 -5.98671E+02 -4.04482E+03  4.83719E+03 -8.87418E+03  5.32704E+03
 -1.50968E+04 -1.42668E+03 -1.75649E+04 -1.38941E+04 -7.24191E+03 -2.23864E+04  6.47362E+03 -1.77667E+04
  1.59106E+04 -8.74836E+03  1.07666E+04  5.99012E+03  9.57382E+02  1.02068E+04 -8.87560E+03 -1.56844E+03
 -9.45390E+03 -1.11813E+04 -1.93041E+03 -1.69812E+04  8.87267E+03 -2.03190E+04  2.33901E+04 -1.10446E+04
  2.70486E+04  4.71632E+03  2.00416E+04  1.75460E+04  3.82629E+03  2.31559E+04 -1.26932E+04  1.83322E+04
 -1.41651E+04  4.37437E+03 -6.96190E+03 -5.74769E+03  9.11836E+02 -4.62135E+03  9.03614E+03  3.39643E+02
  6.93210E+03  6.94632E+03  3.57149E+02  1.45216E+04 -1.00673E+04  1.38527E+04 -1.65803E+04  3.35289E+03
 -1.32199E+04 -9.81328E+03  1.44941E+03 -1.52858E+04  1.17271E+04 -8.93382E+03  1.21222E+04  5.88231E+03
  1.95728E+03  1.26828E+04 -9.74505E+03  1.31845E+04 -1.64725E+04  3.31282E+03 -1.83207E+04 -5.66498E+03
 -9.77774E+03 -2.19295E+04  4.06951E+03 -2.18252E+04  1.87896E+04 -1.22775E+04  1.96031E+04  3.86723E+03
  1.13827E+04  1.72480E+04 -2.45266E+03  1.85121E+04 -1.28734E+04  1.03943E+04 -1.49960E+04 -2.40827E+03
 -1.17595E+04 -1.30654E+04  8.74465E+02 -1.47422E+04  6.40857E+03 -1.26207E+04  1.00159E+04 -4.84866E+03
  7.64806E+03  2.99534E+03 -3.42564E+03  2.35319E+03 -3.06276E+03 -6.20287E+03  2.73313E+03 -1.11588E+04
  1.34776E+04 -6.89206E+03  2.14788E+04  1.89967E+03  2.06524E+04  1.42430E+04  1.21124E+04  2.58820E+04
 -5.75702E+03  2.93054E+04 -2.43512E+04  2.18794E+04 -3.25368E+04  5.52744E+03 -2.43257E+04 -1.18849E+04
 -1.39744E+04 -1.96443E+04 -1.32058E+02 -1.66879E+04  7.43960E+03 -1.08750E+04  7.25049E+03 -6.30838E+03
  5.55121E+03 -6.36621E+03  4.82984E+03 -4.43497E+03  8.15650E+03 -3.34766E+03  1.01571E+04 -2.58020E+03
  1.40113E+04  3.13218E+03  8.27662E+03  1.27468E+04 -2.91561E+03  1.36900E+04 -1.43514E+04  1.12963E+04
 -1.92561E+04 -1.65287E+02 -1.36221E+04 -1.16577E+04 -3.25066E+03 -1.96857E+04  1.08346E+04 -2.16172E+04
  2.27276E+04 -1.16608E+04  2.37461E+04  3.81704E+03  1.65832E+04  1.75912E+04  1.72543E+03  2.20637E+04
 -8.83917E+03  1.83311E+04 -1.10638E+04  7.09153E+03 -1.02333E+04 -3.30462E+03 -3.93838E+03 -8.91903E+02
  4.90341E+01 -9.31586E+02 -3.30735E+03  5.10497E+03 -5.95185E+03  3.41033E+03 -1.38179E+04 -2.87389E+03
 -1.00282E+04 -1.23390E+04 -2.09057E+03 -1.90730E+04  1.10298E+04 -1.68213E+04  2.09447E+04 -5.52494E+03
  1.76573E+04  9.62529E+03  8.87401E+03  1.74135E+04 -3.48444E+03  1.93446E+04 -1.44950E+04  1.04788E+04
 -1.78171E+04  3.12209E+02 -1.30435E+04 -1.17245E+04  1.71899E+02 -1.64108E+04  8.20025E+03 -1.14982E+04
  1.24911E+04 -3.84084E+03  9.17422E+03  1.91112E+03  5.69002E+03  7.05739E+03  1.18886E+03  3.81748E+03
  3.00966E+03  2.43774E+03  3.04322E+03  9.91110E+02  5.76771E+03  6.28373E+03  5.18025E+03  1.18705E+04
 -3.62713E+03  1.63146E+04 -1.39803E+04  1.57233E+04 -1.95496E+04  3.56148E+03 -2.26592E+04 -1.02551E+04
 -1.01811E+04 -2.07393E+04  1.79473E+03 -2.32240E+04  1.19434E+04 -1.46707E+04  1.77465E+04 -3.49987E+03
  1.30404E+04  7.57131E+03  1.72125E+03  1.03946E+04 -6.38976E+03  9.04364E+03 -9.11064E+03 -2.27858E+02
 -3.54436E+03 -8.53201E+03  3.58215E+03 -8.92692E+03  5.88806E+03 -4.22774E+03  1.03504E+04  2.74729E+03
  4.40473E+03  5.32150E+03  1.01328E+03  2.29031E+03 -2.61649E+02  1.31849E+03  1.82276E+03 -1.17789E+03
  3.52941E+03 -3.10117E+02  7.79631E+03  1.38068E+03  5.79588E+03  1.15180E+04 -3.54636E+03  1.13712E+04
 -1.00257E+04  8.83795E+03 -1.14802E+04  2.54929E+03 -1.29178E+04 -3.78568E+03 -4.92945E+03 -8.44050E+03
  2.41760E+03 -9.58308E+03  6.01028E+03 -4.33147E+03  5.20007E+03  4.95081E+03 -3.81878E+03  5.42189E+03
 -7.43455E+03  4.63917E+03 -8.91920E+03 -4.69892E+03 -4.99416E+03 -1.20759E+04  2.17397E+03 -1.05265E+04
  6.05638E+03 -7.45464E+03  7.53025E+03 -9.67983E+02  8.82513E+03  2.98879E+03  1.92904E+02  6.25736E+03
 -5.36800E+03  2.11570E+03 -5.32860E+03 -5.24571E+03  2.66588E+03 -8.65981E+03  1.17181E+04 -7.75304E+03
  1.36583E+04 -5.45397E+02  1.17800E+04  9.29208E+03  3.83440E+03  1.37877E+04 -5.39319E+03  1.40208E+04
 -1.20246E+04  6.00624E+03 -1.15490E+04 -1.34112E+03 -5.43716E+03 -8.56733E+03  2.40041E+03 -9.82320E+03
  8.04212E+03 -3.76082E+03  8.66432E+03  4.93136E+03  3.07874E+03  7.85173E+03 -2.57435E+03  7.04395E+03
 -4.21051E+03  3.36055E+03 -4.50387E+03  4.03571E+03 -4.01075E+02  9.19875E+02 -1.92380E+03  3.45403E+03
 -3.20646E+03  6.13857E+03 -1.07864E+04  4.03342E+03 -1.37769E+04  1.41523E+03 -1.48147E+04 -1.04951E+04
 -7.76188E+03 -1.84347E+04  2.73695E+03 -2.07039E+04  1.45229E+04 -1.70166E+04  2.17715E+04 -5.02855E+03
  2.06891E+04  4.08009E+03  1.18494E+04  1.42922E+04 -2.17611E+02  1.58323E+04 -7.21002E+03  1.06557E+04
 -9.15373E+03  5.11944E+03 -5.59390E+03 -1.75548E+03 -1.67420E+03 -2.46970E+03 -8.68171E+02 -1.39024E+03
 -2.92102E+03  1.42618E+03 -3.50337E+03 -1.86938E+03 -9.38078E+02 -2.91889E+03  1.53539E+03 -4.33224E+03
  8.20339E+03 -5.98900E+03  7.94068E+03 -6.34062E+01  9.63810E+03  7.53784E+03  4.39372E+03  1.56677E+04
 -8.17397E+03  1.66471E+04 -1.74165E+04  9.61045E+03 -1.94047E+04 -1.34949E+03 -1.33405E+04 -9.80906E+03
 -7.07698E+03 -1.62059E+04  5.56504E+03 -1.26131E+04  1.02180E+04 -9.20700E+03  9.11278E+03 -3.23517E-01
  4.42257E+03  3.50222E+03  8.07392E+02  5.99964E+03 -2.41706E+03  2.05410E+02  3.41635E+01 -2.54494E+03
  5.22438E+03 -2.91236E+03  6.48102E+03  2.85250E+03  5.36504E+03  5.23783E+03 -3.12132E+03  8.84561E+03
 -6.45792E+03  8.33010E+03 -1.17898E+04  1.21405E+03 -9.27344E+03 -8.92545E+03  1.14782E+02 -1.51489E+04
  6.97769E+03 -1.28012E+04  1.34342E+04 -2.65801E+03  1.30219E+04  4.22510E+03  7.43636E+03  9.85349E+03
  2.44271E+03  1.21583E+04 -6.08984E+03  5.62794E+03 -7.10078E+03  3.09815E+03 -4.98565E+03 -1.11154E+02
 -3.68999E+03  1.71302E+01 -1.12198E+03  8.98593E+02 -4.10805E+03  1.92677E+03 -6.39684E+03 -6.37604E+02
 -7.81328E+03 -5.93808E+03 -1.18648E+03 -1.14882E+04  6.23878E+03 -1.14578E+04  9.40529E+03 -5.04992E+03
  1.14913E+04  1.08299E+03  5.68480E+03  9.67343E+03 -6.53368E+02  1.09007E+04 -7.10965E+03  7.30548E+03
