 $NMID ID='MM_0lb_SNR200_17hz_g40_54.RAW', FMTDAT='(8E13.5)'
 TRAMP=1., VOLUME=1. $END
  3.09703E+05  9.90074E+02  3.36904E+05  2.51531E+05  8.36933E+04  3.36906E+05 -1.33263E+05  2.49525E+05
 -1.89132E+05  8.23931E+04 -1.11641E+05 -3.31921E+04  1.28721E+03 -5.00775E+04  5.35205E+04 -6.25818E+02
  3.51078E+04  5.30803E+04 -1.63990E+04  7.46328E+04 -6.14109E+04  6.37975E+04 -8.26841E+04  3.08051E+04
 -7.93149E+04 -1.03812E+04 -5.60475E+04 -4.98134E+04 -1.59557E+04 -6.87029E+04  2.69837E+04 -4.42168E+04
  3.92714E+04  3.71884E+03  1.55283E+04  4.64018E+04 -3.40847E+04  4.75398E+04 -6.57779E+04 -4.05914E+01
 -5.21627E+04 -5.59847E+04 -7.04306E+03 -7.55998E+04  3.34340E+04 -5.29017E+04  4.56572E+04 -1.68492E+04
  4.08750E+04  1.20399E+04  3.07936E+04  2.45666E+04  1.63552E+04  2.75483E+04 -4.51380E+03  2.62526E+04
 -2.15058E+04  1.31750E+04 -2.01192E+04 -4.07825E+03  4.66356E+03 -7.53696E+03  2.09714E+04  1.00362E+04
  6.78419E+03  3.36201E+04 -3.06842E+04  3.43696E+04 -6.16658E+04  1.48234E+03 -5.38564E+04 -4.19770E+04
 -1.28093E+04 -6.09687E+04  3.87072E+04 -4.39619E+04  5.54980E+04 -1.62151E+03  3.20538E+04  3.05975E+04
 -6.25493E+03  3.33531E+04 -2.87215E+04  1.36831E+04 -2.74984E+04 -5.49991E+03 -1.54064E+04 -9.84807E+03
 -8.08994E+03 -1.20992E+04 -4.03640E+02 -1.68175E+04  6.16569E+03 -2.28467E+04  1.56317E+04 -1.40407E+04
  1.24429E+04  4.37987E+03 -6.31522E+03  1.39321E+04 -1.93592E+04 -2.41454E+03 -8.66562E+03 -3.15087E+04
  2.14068E+04 -4.16611E+04  4.51065E+04 -1.95971E+04  4.24699E+04  1.83520E+04  1.43068E+04  4.08320E+04
 -1.58199E+04  3.10557E+04 -2.42007E+04  1.01603E+03 -9.20311E+03 -2.56684E+04  2.03073E+04 -3.25464E+04
  3.82332E+04 -7.36184E+03  3.16321E+04  2.34329E+04  1.63257E+04  4.22295E+04 -7.57608E+03  4.54113E+04
 -2.91999E+04  2.95685E+04 -3.76211E+04  8.58968E+03 -3.86045E+04 -1.45474E+04 -2.06874E+04 -3.45905E+04
  7.34938E+03 -3.44876E+04  3.01026E+04 -1.28535E+04  2.78157E+04  1.11353E+04  2.62286E+03  1.80781E+04
 -1.32251E+04  7.02112E+03 -9.77763E+03 -8.16436E+03  5.68120E+03 -1.12396E+04  1.74888E+04  5.93883E+03
  1.33493E+04  2.15570E+04 -7.11113E+03  2.35290E+04 -2.26416E+04  8.87223E+03 -2.59274E+04 -5.20241E+03
 -1.60258E+04 -1.71517E+04 -6.38452E+03 -1.69138E+04  4.01458E+03 -1.49621E+04  1.32728E+04 -1.46231E+04
  2.15695E+04 -1.12218E+04  2.87527E+04  1.94526E+03  2.09388E+04  1.62585E+04  3.59188E+03  3.40732E+04
 -1.58495E+04  2.71909E+04 -2.49027E+04  9.80364E+03 -2.04501E+04 -1.07294E+04 -3.80887E+03 -1.38925E+04
  2.67614E+03 -3.69942E+03 -2.95182E+03  4.68984E+03 -1.30494E+04  5.34874E+03 -1.38261E+04 -4.85264E+03
 -9.43827E+03 -1.66327E+04  5.20953E+03 -2.00991E+04  1.33801E+04 -1.36983E+04  1.60281E+04 -1.51741E+03
  9.64705E+03  1.12161E+04 -1.09931E+03  1.64799E+04 -1.14928E+04  8.65279E+03 -1.52970E+04 -3.26326E+03
 -1.15756E+04 -1.51997E+04 -2.05898E+03 -2.08722E+04  8.30102E+03 -1.49753E+04  1.73845E+04 -8.11272E+03
  1.47897E+04  1.17808E+03  1.11789E+04  3.89916E+03  4.50988E+03 -8.46063E+01  7.92397E+03 -1.48643E+03
  1.42678E+04  2.35794E+03  1.53679E+04  1.30696E+04  9.54412E+03  2.50165E+04 -3.72807E+03  2.75282E+04
 -1.61520E+04  2.18645E+04 -2.60960E+04  9.61285E+03 -2.57495E+04 -1.68664E+03 -2.23000E+04 -1.51788E+04
 -1.03175E+04 -2.17682E+04  8.02583E+03 -1.96426E+04  1.75786E+04 -1.07575E+04  1.71210E+04  3.80827E+03
  7.89146E+03  1.16061E+04 -7.47703E+03  9.22603E+03 -1.33797E+04  4.33401E+03 -1.00265E+04 -9.44002E+03
 -2.08122E+02 -1.20800E+04  5.86307E+03 -1.06385E+04  8.11024E+03 -9.37195E+02  2.30393E+03  5.35904E+03
 -6.09359E+03  2.15396E+03 -3.27129E+03 -5.16845E+03 -6.81917E+01 -1.09129E+04  8.04070E+03 -1.07677E+04
  1.31909E+04 -5.23511E+03  1.31839E+04  3.24264E+03  1.12734E+04  9.51593E+03  5.92923E+03  1.49651E+04
 -2.60599E+03  1.62948E+04 -9.92274E+03  9.97223E+03 -1.29321E+04  2.92199E+03 -8.54333E+03 -3.32762E+03
 -5.61488E+03 -3.29441E+03 -7.85702E+02  1.43262E+03 -3.09632E+03  2.47314E+03 -4.46482E+03  3.44543E+03
 -8.28971E+03 -1.28945E+01 -8.66728E+03 -7.83785E+03 -3.68714E+03 -1.12919E+04  3.30941E+03 -9.25037E+03
  6.18599E+03 -3.62678E+03  4.84897E+03  1.17271E+03  4.08867E+02  3.49223E+03 -4.58396E+03  4.09096E+02
 -4.23107E+03 -4.19042E+03 -7.98670E+02 -7.92062E+03  5.04277E+03 -8.85937E+03  9.38375E+03 -3.54801E+03
  1.29332E+04  1.07356E+03  1.00493E+04  6.67033E+03  1.45934E+03  8.78855E+03 -6.14870E+03  9.33282E+03
 -7.24951E+03  3.98244E+03 -3.69532E+03 -1.64737E+03  1.00212E+03 -2.72810E+03  4.56766E+03 -1.60550E+03
  4.04657E+03  3.43123E+03  1.58965E+03  6.33293E+03 -5.62126E+03  6.97588E+03 -8.15586E+03  1.78712E+03
 -6.96945E+03 -4.24361E+03  3.87567E+02 -6.72696E+03  3.36695E+03 -3.07728E+03  4.46232E+03  1.25144E+03
  1.02057E+03  4.12718E+03 -3.66050E+03  4.52514E+03 -5.06257E+03  2.57425E+03 -5.34429E+03 -1.13299E+03
 -2.92704E+03 -7.39830E+03  3.33606E+02 -7.62840E+03  7.21833E+03 -4.97730E+03  7.28954E+03  1.26786E+03
  3.56605E+03  5.25203E+03 -5.92207E+02  6.86956E+03 -5.74997E+03  4.88536E+03 -5.10168E+03 -1.97261E+02
 -5.49505E+03 -6.37397E+03 -1.67437E+03 -6.79559E+03  3.12017E+03 -5.16797E+03  2.85182E+03 -3.13798E+03
  3.27141E+03  4.51158E+02  5.84958E+02  1.44702E+03  1.54913E+03 -7.82574E+02  1.08932E+03 -2.09603E+03
  3.33935E+03 -1.36936E+03  5.69792E+03  1.78953E+02  6.28227E+03  3.63633E+03  5.39613E+03  8.18426E+03
 -2.66516E+03  9.02291E+03 -8.01707E+03  7.67364E+03 -1.17889E+04  1.30393E+03 -8.15280E+03 -3.10960E+03
 -4.85754E+03 -7.34459E+03 -8.65845E+01 -6.05774E+03  1.59354E+03 -2.34180E+03  1.65333E+03 -2.44695E+03
  1.66987E+03 -2.24742E+03  2.84175E+03 -3.13255E+03  2.60446E+03 -8.34341E+02  4.10644E+03  5.67334E+02
  5.91779E+03  1.62973E+03  1.64591E+03  3.39121E+03 -1.10996E+03  4.49373E+03 -5.00752E+03  2.45049E+03
 -5.67608E+03 -9.02406E+02 -3.35179E+03 -2.77445E+03  6.36641E+02 -3.82809E+03  4.13117E+03 -6.48642E+03
  4.57273E+03 -4.19277E+03  8.18938E+03  1.73503E+02  6.30891E+03  5.81891E+03  5.24254E+02  7.47035E+03
 -3.24398E+03  7.61419E+03 -4.73309E+03  2.61821E+03 -1.54664E+03 -1.66100E+03 -1.07956E+03 -4.95620E+02
 -7.86398E+02  5.38692E+02 -9.51118E+01  2.22382E+03 -3.51710E+03  1.07167E+03 -4.44361E+03 -1.11487E+03
 -2.06153E+03 -5.20431E+03  1.84474E+03 -5.94250E+03  3.39047E+03 -5.05828E+03  4.46309E+03 -8.28353E+02
  5.51125E+03  3.30276E+03  2.71040E+03  4.36067E+03 -2.36383E+02  5.22047E+03 -3.71863E+03  2.57036E+03
 -4.22115E+03  1.71138E+03 -3.14966E+03 -3.42997E+03  2.27872E+02 -3.99698E+03  2.72787E+03 -2.11531E+03
  3.15096E+03 -1.68054E+03  2.28111E+03  4.55901E+02  1.19184E+02  1.81044E+03  1.45978E+03 -3.51418E+02
  1.66507E+03  8.60073E+02  9.91555E+02  1.78291E+02  1.84797E+03  1.63032E+03  1.36115E+03  1.90523E+03
 -1.64631E+03  3.63728E+03 -4.21038E+03  4.23959E+03 -3.51312E+03  1.44618E+03 -4.00409E+03 -1.68933E+03
 -2.26333E+03 -5.55896E+03 -4.58687E+02 -4.99373E+03  2.54198E+03 -3.30964E+03  3.47464E+03 -1.88539E+03
  2.48048E+03  2.46332E+03  1.28220E+03  2.84891E+03 -5.27123E+02  1.67762E+03 -1.13050E+03  4.54136E+02
 -1.20283E+03 -1.57109E+03  1.51589E+03 -1.17665E+03  1.68296E+03 -6.14251E+02  2.88958E+03  9.20036E+02
  5.33355E+02  1.30150E+02  6.74791E+02  3.17375E+02  1.11588E+02  6.32063E+02  9.42300E+02 -1.55446E+02
 -6.78372E+02  5.29816E+02  1.57407E+03  1.53231E+02 -3.83472E+01  1.69684E+03  6.79925E+01  3.78917E+03
 -2.66150E+03  1.29170E+03 -2.95138E+03  2.92806E+02 -2.01510E+03 -6.29473E+02 -1.02511E+02 -4.17728E+02
  6.24686E+02 -1.56784E+03  7.15628E+02 -1.01557E+03  1.19990E+03  1.52420E+03 -1.21527E+03  7.32534E+02
 -2.73268E+03  1.00336E+03 -1.11065E+03 -9.71556E+02 -1.29203E+03 -2.25721E+03  1.52972E+02 -2.13460E+03
  1.40376E+03 -1.90286E+03  1.70816E+03 -7.02072E+02  1.78072E+03 -1.43783E+01  3.84916E+02  1.50139E+03
 -3.68360E+00  1.21185E+03  4.39437E+02 -6.71894E+02 -2.05247E+00 -2.02989E+02  2.18824E+03 -3.32023E+02
  2.41546E+03 -3.92648E+02  2.37378E+03  2.13533E+03  8.20359E+02  2.47358E+03 -9.77754E+02  3.71182E+03
 -1.16212E+03  1.33266E+01 -8.87234E+02 -1.60911E+02 -1.63401E+03 -2.12955E+03  9.62885E+02 -8.40635E+02
  1.73650E+03 -3.04279E+02  1.16275E+03  3.16459E+02 -8.09585E+02  1.98376E+03 -8.27987E+01  9.71307E+02
 -7.20487E+02  1.37314E+03 -1.57023E+03 -3.51827E+02 -3.73878E+01  7.98055E+02 -6.05795E+02  9.73076E+02
 -8.56238E+02  3.94710E+02 -2.68398E+03 -1.84020E+02 -1.94747E+03 -5.50826E+02 -2.79572E+03  2.19277E+02
 -1.46454E+02 -3.42102E+03  1.03528E+03 -4.44069E+03  7.56405E+02 -2.57502E+03  2.99762E+03 -7.70837E+02
  2.91148E+03  5.34323E+02  8.66677E+02  2.04700E+03 -9.62684E+02  2.86661E+03 -5.95241E+02  1.25569E+03
 -1.81682E+03  8.89742E+02 -1.09003E+03  1.56220E+02  4.26911E+02 -9.27684E+01  1.15404E+02  1.00353E+02
 -1.22676E+03 -5.87730E+02 -1.39971E+03  4.16658E+02  6.06404E+02  1.53088E+02  3.50021E+02 -1.00190E+03
  1.94143E+03 -2.68877E+02  1.10228E+03  6.00239E+02  1.20318E+03 -3.29326E+01  5.88372E+02  2.05104E+03
 -6.98179E+02  3.04992E+03 -2.58099E+03  1.97568E+03 -3.04666E+03 -4.44612E+02 -7.31588E+02 -2.22782E+03
 -7.50830E+02 -2.23997E+03  1.41716E+03 -1.41279E+03  9.70141E+02 -1.08475E+03  1.31744E+03  6.47565E+02
  4.86329E+02 -3.79265E+02 -7.84673E+02  3.60512E+02 -1.31516E+03 -1.59062E+02 -1.32439E+03 -1.38919E+03
 -3.23811E+02  3.92143E+02  7.55388E+02  8.99340E+02 -2.77006E+02  6.32661E+02  8.08454E+00 -4.11513E+02
 -2.74408E+02  8.38144E+02 -8.60783E+02 -4.59179E+02 -1.26175E+03 -4.35532E+02 -2.80189E+02 -1.10579E+03
  1.36940E+03 -1.42517E+03  4.42812E+02  6.71424E+01  2.32856E+03 -2.65973E+02  6.28772E+02  1.92554E+03
  7.10340E+02  1.25198E+03  9.35771E+02  6.16035E+02 -9.14354E+02  1.53774E+02 -1.86352E+03  4.16236E+02
 -2.44113E+02  8.19572E+02 -6.83659E+02  7.86418E+02 -7.22568E+02  3.44671E+02 -4.99956E+02  7.05478E+02
 -1.22075E+03  1.75540E+02 -1.02885E+03 -1.73862E+03  7.61816E+02 -1.71961E+03  1.51335E+03 -5.23210E+02
  7.90121E+02  1.10144E+03  9.91216E+02  9.29692E+02 -5.34763E+02  1.14619E+03 -4.88319E+02  1.16656E+03
