 $NMID ID='MM_0lb_SNR200_15hz_g50_47.RAW', FMTDAT='(8E13.5)'
 TRAMP=1., VOLUME=1. $END
  3.09344E+05 -7.75294E+02  3.37439E+05  2.50046E+05  8.43859E+04  3.36457E+05 -1.31798E+05  2.51638E+05
 -1.90220E+05  8.27573E+04 -1.11660E+05 -3.19671E+04  9.56562E+02 -5.07848E+04  5.43640E+04  2.35652E+01
  3.57017E+04  5.36088E+04 -1.79239E+04  7.60324E+04 -5.97130E+04  6.39965E+04 -8.45711E+04  3.23874E+04
 -7.99922E+04 -1.16338E+04 -5.76281E+04 -5.10286E+04 -1.64401E+04 -7.06769E+04  2.79729E+04 -4.54714E+04
  3.99304E+04  2.94918E+03  1.63667E+04  4.75753E+04 -3.42676E+04  4.62418E+04 -6.65039E+04  1.24197E+01
 -5.29838E+04 -5.70307E+04 -6.59026E+03 -7.74703E+04  3.41559E+04 -5.48214E+04  4.60187E+04 -1.68420E+04
  4.25555E+04  9.95720E+03  3.11118E+04  2.53866E+04  1.58035E+04  2.93058E+04 -4.74487E+03  2.73565E+04
 -2.27933E+04  1.20531E+04 -1.95627E+04 -3.64180E+03  5.25578E+03 -6.13382E+03  2.07229E+04  1.23953E+04
  7.01228E+03  3.44281E+04 -3.15418E+04  3.55014E+04 -6.42802E+04  1.77517E+03 -5.69650E+04 -4.31067E+04
 -1.24478E+04 -6.23798E+04  3.92146E+04 -4.46359E+04  5.82712E+04 -3.09959E+03  3.34305E+04  3.22364E+04
 -7.10316E+03  3.54665E+04 -2.99287E+04  1.58522E+04 -3.10060E+04 -4.56668E+03 -1.69748E+04 -1.04356E+04
 -7.45859E+03 -1.18535E+04  3.21711E+02 -1.77384E+04  7.34195E+03 -2.26334E+04  1.56493E+04 -1.36916E+04
  1.18050E+04  5.20676E+03 -8.93135E+03  1.27342E+04 -2.14895E+04 -4.74207E+03 -9.49092E+03 -3.34948E+04
  2.26687E+04 -4.34155E+04  4.75097E+04 -1.81099E+04  4.41079E+04  1.76910E+04  1.56549E+04  4.43669E+04
 -1.56404E+04  3.34719E+04 -2.44911E+04  9.56174E+02 -8.04440E+03 -2.75997E+04  2.06697E+04 -3.35819E+04
  4.11694E+04 -8.91821E+03  3.38402E+04  2.32428E+04  1.77669E+04  4.60066E+04 -8.80718E+03  4.89091E+04
 -3.11169E+04  3.40686E+04 -4.04467E+04  9.43783E+03 -4.14672E+04 -1.70321E+04 -2.30299E+04 -3.78481E+04
  6.80164E+03 -3.55381E+04  3.17741E+04 -1.44830E+04  2.79936E+04  1.12775E+04  4.07154E+03  1.86147E+04
 -1.46011E+04  9.74972E+03 -1.03976E+04 -7.82190E+03  5.13640E+03 -1.03814E+04  1.76609E+04  7.95159E+03
  1.44101E+04  2.13127E+04 -6.29980E+03  2.41736E+04 -2.21817E+04  1.01082E+04 -2.78566E+04 -5.17010E+03
 -2.03267E+04 -1.69637E+04 -7.63876E+03 -1.96265E+04  3.98597E+03 -1.87151E+04  1.51765E+04 -1.74392E+04
  2.57773E+04 -1.30836E+04  3.25576E+04  1.63381E+03  2.37420E+04  1.97651E+04  3.36181E+03  3.62714E+04
 -1.78144E+04  3.00622E+04 -2.79577E+04  1.14479E+04 -2.04509E+04 -1.01420E+04 -4.96908E+03 -1.18007E+04
  3.12952E+03 -3.23749E+03 -3.47548E+03  6.71196E+03 -1.58832E+04  3.62543E+03 -1.68385E+04 -6.20241E+03
 -1.02041E+04 -1.92210E+04  5.16619E+03 -2.25160E+04  1.48721E+04 -1.66070E+04  1.81117E+04 -1.90304E+03
  1.11255E+04  1.28007E+04 -9.41519E+02  1.86887E+04 -1.15285E+04  1.09458E+04 -1.67276E+04 -3.10222E+03
 -1.42942E+04 -1.60612E+04 -1.91710E+03 -2.16076E+04  9.97564E+03 -1.73659E+04  1.83600E+04 -9.17111E+03
  1.66315E+04  3.60193E+01  1.21120E+04  5.51860E+03  7.72164E+03  1.06520E+03  9.08423E+03 -2.23685E+03
  1.66855E+04  2.22481E+03  1.85598E+04  1.37294E+04  1.15141E+04  2.82354E+04 -3.15589E+03  3.32511E+04
 -1.81443E+04  2.63780E+04 -3.07637E+04  1.20197E+04 -3.17348E+04 -3.40219E+03 -2.65957E+04 -1.81109E+04
 -1.14937E+04 -2.58856E+04  9.82000E+03 -2.39167E+04  2.01678E+04 -1.21983E+04  1.87471E+04  4.95121E+03
  6.77243E+03  1.44476E+04 -7.89494E+03  1.20548E+04 -1.44454E+04  3.28026E+03 -1.19459E+04 -9.41514E+03
 -1.17392E+03 -1.50874E+04  6.29368E+03 -1.03984E+04  1.03730E+04 -1.62951E+03  2.21036E+03  5.92303E+03
 -7.33069E+03  1.52086E+03 -5.59634E+03 -5.31826E+03  6.57006E+01 -1.22839E+04  8.10378E+03 -1.30673E+04
  1.56368E+04 -7.70275E+03  1.62329E+04  3.03832E+03  1.51477E+04  1.18655E+04  6.14009E+03  1.88080E+04
 -2.77958E+03  2.18276E+04 -1.43582E+04  1.40038E+04 -1.41946E+04  3.04482E+03 -1.14496E+04 -3.27444E+03
 -4.24449E+03 -5.28085E+03 -2.07611E+03  1.28126E+03 -2.74930E+03  2.75801E+03 -4.70142E+03  4.91826E+03
 -9.72076E+03 -1.15247E+03 -1.14572E+04 -8.95627E+03 -5.67632E+03 -1.36942E+04  4.32102E+03 -1.08629E+04
  8.80860E+03 -3.53621E+03  6.79041E+03  2.53653E+03  2.32214E+02  3.20092E+03 -3.18648E+03 -3.15123E+02
 -4.31962E+03 -6.32358E+03 -7.31942E+02 -9.99744E+03  6.17184E+03 -1.15946E+04  1.21917E+04 -5.36438E+03
  1.58273E+04  8.47625E+02  1.17474E+04  9.10818E+03  2.98595E+03  1.19301E+04 -6.13965E+03  1.05610E+04
 -8.72435E+03  3.51671E+03 -4.71332E+03 -7.34939E+02  1.72310E+03 -1.92451E+03  5.12714E+03 -4.53064E+02
  4.55892E+03  4.79584E+03  1.97802E+02  8.32661E+03 -6.30536E+03  7.62596E+03 -1.01726E+04  2.01197E+03
 -6.52283E+03 -4.89960E+03  2.28649E+01 -9.35032E+03  3.11319E+03 -5.05334E+03  4.78085E+03  1.47649E+03
  1.16535E+03  5.17608E+03 -5.79902E+03  6.50506E+03 -6.04095E+03  3.51328E+03 -7.92507E+03 -2.48886E+03
 -5.13039E+03 -8.62289E+03  1.69325E+03 -1.05840E+04  8.65067E+03 -6.24162E+03  9.69267E+03  1.93118E+03
  6.86099E+03  7.67359E+03 -2.97550E+02  9.64791E+03 -6.48151E+03  6.34811E+03 -8.45424E+03  2.76078E+02
 -7.62361E+03 -6.50074E+03 -1.06041E+03 -6.83057E+03  3.30320E+03 -6.18590E+03  4.86218E+03 -3.94467E+03
  3.29836E+03  6.07060E+02 -9.90089E+02  1.73915E+03  6.81408E+02 -1.17611E+03  9.03033E+02 -4.48768E+03
  6.15745E+03 -1.03692E+03  8.15010E+03  1.34996E+03  9.15543E+03  6.18138E+03  6.72491E+03  1.09716E+04
 -1.90677E+03  1.24618E+04 -1.11875E+04  9.16982E+03 -1.36011E+04  2.20860E+03 -1.11044E+04 -4.46833E+03
 -5.16291E+03 -9.51788E+03 -7.58150E+02 -7.49599E+03  1.89267E+03 -3.86659E+03  2.54489E+03 -2.13679E+03
  5.90531E+02 -1.78095E+03  3.23993E+03 -4.21541E+03  4.33541E+03 -1.33223E+03  5.24078E+03 -1.37094E+02
  6.56042E+03  1.82615E+03  3.85355E+03  5.17978E+03 -2.94973E+03  4.32967E+03 -5.15746E+03  4.40694E+03
 -7.42555E+03 -1.31079E+03 -3.48185E+03 -4.84590E+03  4.23376E+02 -7.50485E+03  4.65911E+03 -8.92185E+03
  9.05407E+03 -4.68411E+03  1.07243E+04  7.63633E+02  5.95349E+03  8.40342E+03  1.03976E+03  8.33876E+03
 -4.51532E+03  8.63943E+03 -6.52627E+03  4.03590E+03 -2.64787E+03 -3.63681E+02 -9.96017E+02 -1.63296E+03
 -3.14242E+02 -3.26906E+02 -4.01504E+02  2.56256E+03 -4.11661E+03  1.64036E+03 -6.57910E+03 -6.51439E+02
 -2.80477E+03 -5.66047E+03  9.97636E+02 -7.86238E+03  3.65603E+03 -6.48564E+03  7.29109E+03 -1.29553E+03
  6.59676E+03  2.83005E+03  2.31177E+03  6.66851E+03 -1.04926E+03  6.51942E+03 -5.37932E+03  4.25766E+03
 -6.96226E+03 -7.57870E+01 -5.55866E+03 -5.31213E+03 -6.08358E+02 -5.54876E+03  2.60872E+03 -3.97869E+03
  4.17587E+03 -1.45628E+03  1.61553E+03  4.65872E+02  9.20836E+02  2.96100E+03  2.30887E+02  2.16568E+03
  2.26172E+03 -7.70748E+02  1.84309E+03  7.55742E+02  2.50308E+03  3.13608E+03  2.86343E+03  3.46480E+03
 -8.73347E+02  3.74870E+03 -4.67384E+03  4.70911E+03 -6.54115E+03  1.70756E+03 -6.47465E+03 -1.44293E+03
 -3.61437E+03 -7.48700E+03  1.75318E+03 -8.02056E+03  4.60625E+03 -3.17118E+03  5.84189E+03 -2.45457E+03
  5.92306E+03  2.97306E+03  1.77963E+03  4.05626E+03 -1.02331E+03  7.99736E+02 -1.32960E+03 -9.78600E+02
 -2.98777E+03 -2.20379E+03  1.81012E+03 -2.23595E+03  9.84428E+02 -1.67187E+03  2.47177E+03  1.31851E+03
  6.37499E+02  8.49739E+02  2.40668E+02 -8.96971E+01 -1.45357E+03  7.07517E+01  1.66840E+03 -7.92984E+02
  1.30905E+03 -4.84858E+02  2.30195E+03  1.32458E+03  9.30219E+02  2.96794E+03 -1.34634E+03  4.29606E+03
 -1.69835E+03  2.28794E+03 -3.14169E+03  5.18785E+02 -4.36766E+03 -1.82789E+03 -1.07069E+03 -6.85646E+02
 -2.82300E+02 -1.94530E+03  1.59296E+03 -8.83733E+02  1.10471E+03  3.35788E+03 -1.21449E+03  2.51457E+03
 -3.47539E+03  9.60911E+02 -3.09721E+03 -1.63100E+03 -1.44340E+03 -3.25768E+03  2.25883E+02 -2.92892E+03
  1.29945E+03 -1.18264E+03  2.11040E+03  4.18555E+02  2.91556E+03  5.31317E+02  4.89082E+02  2.11815E+03
 -9.10560E+02  2.13085E+03 -8.80150E+02 -1.25126E+03  6.32705E+02 -2.53828E+03  2.35392E+03 -1.84763E+03
  3.44381E+03  6.94794E+02  3.98890E+03  7.77848E+02  8.42283E+02  3.62711E+03 -1.02741E+03  3.86832E+03
 -3.80962E+03  1.49119E+03 -3.49727E+03 -1.19659E+03 -1.72505E+03 -3.14492E+03  2.27520E+02 -1.52358E+03
  3.04892E+03 -9.18245E+02  1.03858E+03  1.35812E+03  6.59604E+02  2.60832E+03  9.63749E+02  1.83524E+03
 -1.38498E+03  8.47120E+02  1.53353E+01  2.79110E+02 -9.75285E+02  5.17163E+02 -6.96128E+02  3.65073E+01
 -7.20452E+02  9.99168E+02 -4.64455E+03  1.48235E+03 -3.43081E+03  4.49955E+02 -4.72015E+03 -1.74279E+03
 -2.64083E+03 -4.52183E+03  5.87375E+02 -5.16690E+03  3.70963E+03 -5.52528E+03  4.62407E+03 -1.71656E+03
  3.72836E+03  5.76278E+02  1.59014E+03  2.63002E+03 -6.45643E+02  3.40375E+03 -3.01845E+03  2.35389E+03
 -1.60062E+03  8.52708E+02 -2.96444E+03 -1.17858E+03 -9.44467E+02 -1.14584E+03 -1.12503E+03  3.80792E+02
 -2.00299E+03 -8.61083E+02 -1.25815E+03 -1.55291E+02  9.75544E+02 -6.04341E+02 -7.95199E+02 -1.56717E+03
  2.34447E+03 -1.73572E+03  1.85344E+03 -7.21342E+02  2.41955E+03  3.57037E+03  5.41041E+02  4.17034E+03
 -4.68354E+02  4.55093E+03 -2.75641E+03  2.83741E+03 -3.79003E+03 -4.81672E+02 -2.91145E+03 -2.92852E+03
 -3.00849E+03 -4.01242E+03  1.24887E+03 -3.43729E+03  1.90059E+03 -1.22841E+03  1.21674E+03  1.25140E+03
  2.04421E+03  1.34048E+03 -3.82605E+02  8.08027E+01  1.47367E+02  5.24576E+02  3.41730E+02 -1.35958E+03
 -4.43827E+02 -1.12023E+03  1.05389E+03  1.35354E+03  5.79900E+02  9.17175E+02  5.17476E+02  6.50987E+02
  5.05287E+01  1.05683E+03 -1.27959E+03 -1.83404E+02 -1.73706E+03 -1.83168E+03  5.28718E+02 -2.04267E+03
  5.20138E+02 -1.20644E+03  2.65271E+03 -6.19464E+02  1.41678E+03  7.15933E+02  1.27523E+03  2.14724E+03
 -3.78218E+02  1.31519E+03 -1.11636E+03  1.51625E+03 -4.12762E+02  9.87849E+02 -1.09406E+03  1.38017E+02
 -9.04609E+02 -1.55414E+02 -8.39222E+02  3.94304E+02 -2.09966E+03  2.47463E+02 -9.37484E+02  1.97625E+02
 -2.39744E+03  1.44545E+02 -6.28626E+02 -1.60097E+03  7.40156E+02 -2.92338E+03  2.03288E+03 -9.81066E+01
  1.56668E+03 -1.33167E+02  6.12079E+02 -2.55186E+02 -5.77874E+02  1.52893E+03 -6.87722E+02  2.51605E+03
