 $NMID ID='MM_0lb_SNR200_18hz_g40_68.RAW', FMTDAT='(8E13.5)'
 TRAMP=1., VOLUME=1. $END
  3.10392E+05  1.58177E+02  3.37368E+05  2.49911E+05  8.37390E+04  3.36468E+05 -1.32179E+05  2.49999E+05
 -1.88822E+05  8.20453E+04 -1.10486E+05 -3.33058E+04  1.36541E+03 -5.08225E+04  5.35965E+04  4.76605E+02
  3.55345E+04  5.29088E+04 -1.76742E+04  7.45540E+04 -6.08884E+04  6.25048E+04 -8.34045E+04  3.15416E+04
 -7.94493E+04 -1.10749E+04 -5.71120E+04 -4.96511E+04 -1.59510E+04 -6.80469E+04  2.67903E+04 -4.49923E+04
  3.89461E+04  4.10917E+03  1.55836E+04  4.73461E+04 -3.34122E+04  4.57090E+04 -6.45773E+04 -5.88066E+02
 -5.22870E+04 -5.53177E+04 -5.77332E+03 -7.55489E+04  3.27109E+04 -5.27095E+04  4.58759E+04 -1.62442E+04
  4.10111E+04  1.20699E+04  3.14164E+04  2.42342E+04  1.48876E+04  2.78170E+04 -5.00442E+03  2.70381E+04
 -2.08841E+04  1.32832E+04 -1.91664E+04 -4.68865E+03  2.95561E+03 -7.06020E+03  2.11862E+04  1.12339E+04
  7.21481E+03  3.26336E+04 -2.94234E+04  3.40045E+04 -6.12718E+04  2.35546E+03 -5.57982E+04 -4.16179E+04
 -1.27826E+04 -6.01657E+04  3.85452E+04 -4.28945E+04  5.57872E+04 -2.21586E+03  3.05597E+04  3.11504E+04
 -8.00038E+03  3.23608E+04 -2.79606E+04  1.16872E+04 -2.67953E+04 -5.45457E+03 -1.43301E+04 -9.82695E+03
 -6.82388E+03 -1.21723E+04 -9.38239E+02 -1.61037E+04  6.97013E+03 -2.20172E+04  1.46905E+04 -1.33994E+04
  1.18265E+04  5.29166E+03 -4.90220E+03  1.34216E+04 -1.96819E+04 -2.88825E+03 -8.40810E+03 -3.08466E+04
  2.10762E+04 -3.99442E+04  4.37631E+04 -1.88317E+04  4.21193E+04  1.76227E+04  1.33197E+04  4.16716E+04
 -1.53531E+04  3.03819E+04 -2.28925E+04  5.61268E+02 -8.44200E+03 -2.74475E+04  1.96885E+04 -3.13507E+04
  3.76882E+04 -7.86793E+03  3.04747E+04  2.27732E+04  1.52973E+04  4.32040E+04 -8.00170E+03  4.45450E+04
 -2.65904E+04  2.93470E+04 -3.62315E+04  8.76277E+03 -3.85637E+04 -1.39882E+04 -2.06526E+04 -3.48623E+04
  7.82219E+03 -3.30592E+04  2.93253E+04 -1.24309E+04  2.58358E+04  1.04776E+04  3.09076E+03  1.71629E+04
 -1.31133E+04  6.98369E+03 -9.13525E+03 -7.80002E+03  6.29796E+03 -9.26111E+03  1.65506E+04  6.75786E+03
  1.24362E+04  2.01582E+04 -7.58086E+03  2.32828E+04 -2.19038E+04  9.29790E+03 -2.43636E+04 -6.73220E+03
 -1.56492E+04 -1.57889E+04 -5.52452E+03 -1.67244E+04  3.71301E+03 -1.53936E+04  1.35829E+04 -1.47906E+04
  2.11835E+04 -1.19837E+04  2.77334E+04  2.39837E+03  1.97796E+04  1.53868E+04  3.59199E+03  3.14349E+04
 -1.59420E+04  2.77263E+04 -2.45459E+04  9.78235E+03 -2.03635E+04 -1.17621E+04 -3.90652E+03 -1.50771E+04
  3.03614E+03 -5.06134E+03 -2.40182E+03  3.82546E+03 -1.25421E+04  4.99159E+03 -1.44332E+04 -4.56157E+03
 -8.23721E+03 -1.67599E+04  3.59264E+03 -1.92163E+04  1.26402E+04 -1.36623E+04  1.29951E+04 -1.55886E+03
  8.66474E+03  1.03176E+04 -1.39581E+02  1.53607E+04 -9.78671E+03  9.69296E+03 -1.46708E+04 -3.11540E+03
 -1.18593E+04 -1.36858E+04 -1.03333E+03 -1.72182E+04  8.19578E+03 -1.50872E+04  1.54075E+04 -6.40124E+03
  1.40910E+04  6.66205E+02  1.03375E+04  2.41210E+03  4.79864E+03  9.23129E+02  7.66808E+03 -1.57791E+03
  1.30279E+04  3.81708E+03  1.49429E+04  1.24208E+04  8.57588E+03  2.48051E+04 -3.13250E+03  2.73864E+04
 -1.58293E+04  2.02511E+04 -2.37745E+04  9.13875E+03 -2.50156E+04 -2.03624E+03 -2.12952E+04 -1.39810E+04
 -9.29811E+03 -1.93457E+04  7.51774E+03 -1.92175E+04  1.64696E+04 -9.99189E+03  1.49185E+04  3.96326E+03
  6.79701E+03  1.19764E+04 -6.26672E+03  9.64957E+03 -1.35561E+04  2.66041E+03 -1.10593E+04 -7.91956E+03
  7.06099E+02 -1.20055E+04  6.38150E+03 -1.01501E+04  7.69418E+03 -1.41466E+03  1.24205E+03  4.25193E+03
 -5.26391E+03  8.06732E+02 -3.03725E+03 -4.03071E+03  2.82773E+02 -1.06490E+04  6.87762E+03 -1.03381E+04
  1.24018E+04 -5.34492E+03  1.21974E+04  2.42061E+03  9.98842E+03  9.47527E+03  5.36860E+03  1.32101E+04
 -1.57819E+03  1.48940E+04 -9.61609E+03  1.05800E+04 -1.16477E+04  2.78001E+03 -7.84840E+03 -2.07927E+03
 -4.61574E+03 -3.81081E+03 -3.13712E+02  1.80580E+03 -2.32290E+03  3.63560E+03 -3.04049E+03  3.65502E+03
 -7.36911E+03  3.28963E+02 -9.16974E+03 -7.29549E+03 -4.07571E+03 -1.17488E+04  3.24236E+03 -9.23052E+03
  6.82341E+03 -3.30785E+03  6.38631E+03  1.59156E+03  6.13746E+02  3.34192E+03 -2.84927E+03 -9.18259E+02
 -4.58064E+03 -5.74336E+03 -1.27644E+03 -6.32041E+03  3.13752E+03 -8.12614E+03  9.76049E+03 -3.52725E+03
  1.13170E+04  4.29546E+02  7.99397E+03  6.23669E+03  6.16909E+02  8.26032E+03 -3.97834E+03  8.41828E+03
 -7.53611E+03  2.29957E+03 -4.10267E+03 -1.93506E+03  1.41678E+03 -1.48164E+03  4.23280E+03 -1.15117E+03
  3.23388E+03  3.20981E+03  1.10679E+03  5.54248E+03 -3.74808E+03  6.51871E+03 -7.79804E+03  2.43366E+03
 -4.94698E+03 -4.07175E+03  9.77108E+02 -6.83525E+03  3.16564E+03 -4.32414E+03  3.45494E+03  4.33517E+02
  7.02951E+02  3.31436E+03 -3.48298E+03  6.09580E+03 -4.68506E+03  8.76680E+02 -3.96015E+03 -1.93884E+03
 -2.95622E+03 -5.44803E+03  1.12761E+03 -6.80213E+03  6.31424E+03 -4.98468E+03  6.35022E+03  1.00536E+03
  4.73014E+03  4.64341E+03  5.42328E+02  7.41255E+03 -4.45833E+03  3.75522E+03 -5.74133E+03 -5.24503E+01
 -6.51912E+03 -4.78852E+03 -1.15465E+03 -5.31007E+03  2.64828E+03 -4.40140E+03  2.31305E+03 -2.94112E+03
  3.16602E+03  1.02618E+03 -1.55262E+02  1.82806E+03  4.36161E+02 -5.21076E+02 -1.98756E+02 -2.18583E+03
  3.49746E+03 -6.17830E+02  6.24930E+03  1.14923E+03  5.16846E+03  4.17073E+03  4.89774E+03  7.76917E+03
 -1.57541E+03  8.66886E+03 -7.22845E+03  6.78373E+03 -1.14035E+04  7.98598E+02 -8.42403E+03 -2.62397E+03
 -4.77759E+03 -6.14428E+03 -2.30495E+02 -4.91496E+03  1.85280E+03 -1.73747E+03  1.40277E+03 -2.39631E+03
  1.41296E+03 -1.22848E+03  2.56484E+03 -2.15725E+03  3.78223E+03 -9.47314E+02  3.61696E+03 -5.54904E+02
  4.75294E+03  7.86395E+02  1.96542E+03  3.27242E+03 -1.98708E+03  2.87636E+03 -4.03960E+03  2.11828E+03
 -5.22346E+03 -7.59996E+02 -1.37599E+03 -3.18249E+03 -2.19257E+02 -4.45501E+03  2.72752E+03 -4.92657E+03
  5.74989E+03 -3.15859E+03  5.75051E+03  6.68729E+02  5.59867E+03  4.41574E+03  1.04818E+03  6.24962E+03
 -2.68727E+03  5.56551E+03 -3.93344E+03  1.68991E+03 -2.39921E+03 -4.42208E+02 -3.72695E+02 -1.30665E+03
 -9.94600E+02  1.74109E+03 -2.25949E+02  1.89869E+03 -3.19967E+03  9.52923E+02 -3.51673E+03 -8.15970E+02
 -1.20661E+03 -3.48487E+03 -3.40482E+02 -4.58777E+03  3.15143E+03 -3.27795E+03  4.89568E+03 -9.78169E+02
  3.91823E+03  2.33995E+03  1.84627E+03  3.07911E+03 -8.75987E+01  4.00218E+03 -2.92892E+03  2.71391E+03
 -3.64111E+03  8.20886E+02 -1.95838E+03 -1.59523E+03  3.51867E+02 -3.24742E+03  2.58108E+03 -2.00752E+03
  3.09656E+03 -2.02847E+03  1.92948E+03  4.38359E+00  4.34802E+02  2.35500E+03  4.77043E+02 -3.17361E+01
  2.10411E+03 -4.27454E+02  1.74319E+03  9.49412E+02  1.15191E+03  2.40438E+03  9.03010E+02  1.58788E+03
 -1.69890E+03  2.99170E+03 -3.39151E+03  3.56645E+03 -2.80891E+03  1.74817E+03 -4.18868E+03 -6.77209E+02
 -1.86040E+03 -3.47660E+03  6.95701E+02 -4.49510E+03  1.94482E+03 -1.71076E+03  2.91537E+03 -3.08827E+02
  2.71351E+03  1.40967E+03  1.59746E+03  1.29416E+03 -9.94423E+02 -2.65559E+01 -2.37778E+02 -1.06352E+02
 -3.02804E+01 -2.05809E+03  8.97774E+02 -1.64648E+03  1.61898E+03 -1.55024E+03  1.50036E+03 -3.42102E+02
  8.93570E+02  5.31617E+02  4.47849E+02 -1.08959E+03 -8.26370E+02  9.53778E+02  1.36520E+03 -5.54824E+00
 -5.87686E+02 -1.01309E+03  2.13260E+03  1.17625E+02 -1.76519E+02  2.48608E+03 -2.95206E+02  2.73588E+03
 -6.95868E+02  6.97320E+02 -1.56828E+03 -5.39658E+01 -3.05728E+03 -1.44374E+03 -1.03547E+03 -1.27123E+03
  4.51223E+02 -7.58880E+02  4.96493E+02 -3.40000E+02  7.37680E+02  2.10605E+03 -9.51854E+02  1.85507E+03
 -1.96586E+03  3.17971E+02 -7.42008E+02 -1.25332E+03 -5.40513E+02 -1.35595E+03 -2.42167E+02 -2.57291E+03
  1.27163E+03 -3.30957E+02  1.12022E+03  5.80202E+02  1.77212E+03 -4.37575E+02  9.26922E+02  1.73977E+03
 -3.29950E+02  1.09619E+01 -2.07338E+03 -1.16333E+02 -5.36678E+02 -1.30003E+02  2.62668E+03 -5.22348E+02
  1.40291E+03  3.20544E+02  3.26093E+03  4.18851E+01  6.41551E+01  1.05558E+03  1.19563E+03  1.52605E+03
 -1.63656E+03  7.64048E+02 -2.04947E+03 -4.46322E+02 -9.71053E+02 -2.43173E+03  1.17424E+03 -1.43669E+03
  1.68870E+03 -5.06015E+02  6.80240E+02  2.97281E+02  1.27018E+03  1.22892E+03 -5.53923E+02  1.30182E+03
 -4.98065E+02  6.85462E+02 -1.81897E+03  9.67973E+02 -1.17936E+03  1.14599E+03 -8.82204E+02  5.86314E+02
 -1.53755E+03  1.30985E+03 -2.04995E+03 -3.15151E+02 -2.00613E+03  3.97494E+02 -2.15932E+03 -1.43135E+03
 -1.27315E+03 -2.49322E+03  7.60357E+01 -3.46206E+03  5.66926E+02 -3.07699E+03  3.53123E+03 -1.09424E+03
  2.28092E+03 -4.32307E+02  7.66838E+02  2.11359E+03 -1.16768E+03  1.69440E+03 -2.98380E+02  1.86498E+03
 -1.13665E+03  8.24124E+02 -8.83385E+02 -7.28274E+02 -1.81250E+03  4.85060E+02 -1.94003E+02  1.32632E+02
 -8.96053E+02 -1.00396E+02 -1.19224E+03  6.58084E+02 -5.13466E+01 -2.87207E+02 -3.80101E+02 -1.69558E+03
  4.45842E+02 -7.41811E+02  9.93237E+02  1.04643E+02  1.65980E+03  6.24246E+02 -1.35100E+03  9.69673E+02
 -1.92463E+03  2.71082E+03 -1.80346E+03  1.02708E+03 -1.89002E+03  5.69596E+01 -2.02177E+03 -1.05876E+03
 -9.69692E+02 -1.37354E+03  4.55776E+02 -2.18110E+03  4.28114E+02 -9.88490E+02  1.95840E+03  2.65308E+02
  3.41402E+02  9.19443E+02 -5.99851E+02 -4.78118E+02 -3.41509E+02 -2.59718E+02 -1.44232E+02 -3.16509E+02
  4.74716E+02  3.38336E+02 -9.53281E+02  1.22469E+03 -2.59492E+02  8.36121E+02  6.28491E+02 -7.89995E+01
 -1.42265E+03  2.19083E+02 -1.66254E+03  9.68317E+02 -6.98316E+02  1.74396E+02  4.01024E+02 -1.00029E+03
 -1.81368E+02 -6.24835E+00  8.37457E+02 -7.28069E+02  1.40132E+03 -6.51593E+02  1.17949E+03  3.43330E+02
  1.82325E+02  1.16666E+03  3.48004E+02 -1.86402E+02 -7.09733E+02  9.04580E+02  2.02901E+02  4.93045E+02
 -9.48721E+01 -3.14699E+01  4.27136E+02  5.97939E+02 -1.75401E+02 -1.56404E+02 -1.10872E+03 -1.12978E+03
 -2.22233E+02  7.28494E+02 -4.00164E+02 -3.84539E+02 -4.82616E+02 -1.79363E+03  1.78894E+03 -6.29720E+02
  6.25967E+02  8.92643E+02 -8.93064E+02  1.55480E+03 -5.64249E+02  3.60590E+01 -5.30045E+02  1.33896E+03
