 $NMID ID='MM_0lb_SNR200_8hz_g40_68.RAW', FMTDAT='(8E13.5)'
 TRAMP=1., VOLUME=1. $END
  3.09593E+05  5.07159E+02  3.37132E+05  2.50575E+05  8.47481E+04  3.38530E+05 -1.31372E+05  2.52556E+05
 -1.93504E+05  8.31544E+04 -1.13479E+05 -3.21918E+04 -8.51583E+02 -5.03460E+04  5.42388E+04 -3.66476E+02
  3.62233E+04  5.15346E+04 -1.89957E+04  7.54138E+04 -5.99891E+04  6.37540E+04 -8.43320E+04  3.35719E+04
 -8.12767E+04 -1.12761E+04 -5.92836E+04 -5.26111E+04 -1.47134E+04 -7.03248E+04  2.81992E+04 -4.78995E+04
  4.11764E+04  2.75181E+03  1.74399E+04  4.76469E+04 -3.50875E+04  5.05080E+04 -6.77580E+04 -5.49770E+02
 -5.35669E+04 -5.84750E+04 -7.86185E+03 -8.04431E+04  3.42312E+04 -5.59313E+04  4.93001E+04 -1.73197E+04
  4.55137E+04  1.14767E+04  3.37878E+04  2.54947E+04  1.73953E+04  3.08547E+04 -6.67226E+03  2.58938E+04
 -2.36514E+04  1.07708E+04 -1.78956E+04 -4.75937E+03  8.68198E+03 -9.06719E+03  2.35214E+04  1.40739E+04
  5.89405E+03  3.89258E+04 -3.26041E+04  3.72471E+04 -6.56581E+04  1.85883E+03 -5.92031E+04 -4.45746E+04
 -1.28410E+04 -6.47960E+04  4.16359E+04 -4.61898E+04  6.02653E+04 -2.31332E+03  3.68757E+04  3.52814E+04
 -7.56525E+03  3.87651E+04 -3.35589E+04  1.94912E+04 -3.36887E+04 -3.23072E+03 -1.95015E+04 -1.24143E+04
 -9.35233E+03 -1.50624E+04 -1.71465E+03 -2.01322E+04  7.79805E+03 -2.35434E+04  1.53319E+04 -1.29489E+04
  9.09306E+03  5.70629E+03 -1.03401E+04  1.34277E+04 -2.48263E+04 -5.38598E+03 -8.89122E+03 -3.73036E+04
  2.51700E+04 -4.70893E+04  5.21098E+04 -2.11079E+04  4.75680E+04  1.80949E+04  1.74070E+04  4.62330E+04
 -1.81430E+04  3.61321E+04 -2.81372E+04  2.71021E+03 -1.14909E+04 -2.86057E+04  2.12643E+04 -3.63588E+04
  4.24168E+04 -1.00342E+04  3.87377E+04  2.44014E+04  2.14357E+04  5.17439E+04 -7.98409E+03  5.55653E+04
 -3.55649E+04  3.78789E+04 -4.83111E+04  1.11088E+04 -4.73686E+04 -1.84121E+04 -2.57365E+04 -4.12674E+04
  8.73151E+03 -4.18456E+04  3.41672E+04 -1.67699E+04  3.28386E+04  1.23482E+04  6.35816E+03  2.01102E+04
 -1.30855E+04  9.16551E+03 -1.11113E+04 -6.29491E+03  5.22652E+03 -1.12718E+04  1.93550E+04  4.36605E+03
  1.58302E+04  2.26875E+04 -4.11022E+03  2.80071E+04 -2.36919E+04  1.60034E+04 -3.43110E+04 -3.71800E+03
 -2.52928E+04 -1.88797E+04 -1.09312E+04 -2.43808E+04  5.02634E+03 -2.56655E+04  1.88761E+04 -2.23654E+04
  3.35426E+04 -1.50449E+04  3.97022E+04  5.11973E+03  2.47900E+04  2.58535E+04  3.99936E+03  4.24800E+04
 -1.97771E+04  3.48173E+04 -3.09985E+04  1.25919E+04 -2.28126E+04 -9.91253E+03 -5.81839E+03 -1.44645E+04
 -1.71115E+02 -1.87965E+03 -7.80510E+03  7.58650E+03 -2.20310E+04  5.74851E+03 -2.09332E+04 -8.16787E+03
 -1.25390E+04 -2.42625E+04  4.44821E+03 -2.76627E+04  2.00029E+04 -2.00924E+04  2.45887E+04 -2.01046E+03
  1.71122E+04  1.65343E+04 -2.78888E+03  2.28345E+04 -1.69287E+04  1.35215E+04 -2.25668E+04 -6.61402E+03
 -1.69751E+04 -2.15293E+04 -2.05755E+03 -2.98712E+04  1.22349E+04 -2.39596E+04  2.21129E+04 -1.32903E+04
  2.19646E+04 -6.30948E+02  1.68491E+04  6.66433E+03  9.74405E+03  2.03531E+03  1.18814E+04 -2.19456E+03
  2.31930E+04  1.90329E+03  2.78899E+04  1.89429E+04  1.92741E+04  3.82671E+04 -5.01023E+02  4.63446E+04
 -2.49273E+04  3.68219E+04 -4.15244E+04  2.07236E+04 -4.59204E+04 -4.22293E+03 -3.68178E+04 -2.57149E+04
 -1.51194E+04 -3.84393E+04  1.26500E+04 -3.12726E+04  2.76085E+04 -1.42801E+04  2.50179E+04  8.35476E+03
  8.24672E+03  1.86953E+04 -1.23632E+04  1.53963E+04 -2.11057E+04  4.40213E+03 -1.40715E+04 -1.46414E+04
  4.95382E+02 -1.94810E+04  9.94160E+03 -1.43112E+04  1.28841E+04 -1.40069E+03  1.94265E+03  8.32272E+03
 -9.48504E+03  3.69563E+03 -9.07921E+03 -8.21549E+03 -3.81886E+03 -1.88588E+04  1.08082E+04 -2.05191E+04
  2.25227E+04 -1.22741E+04  2.56093E+04  3.04937E+03  2.42347E+04  1.94396E+04  9.52469E+03  2.75597E+04
 -5.77361E+03  3.09696E+04 -2.08655E+04  1.87225E+04 -2.10103E+04  5.26120E+03 -1.58958E+04 -6.41746E+03
 -6.19054E+03 -7.33343E+03 -3.93138E+02 -6.10027E+02 -2.87792E+03  4.83628E+03 -8.82155E+03  6.21385E+03
 -1.43671E+04 -1.80580E+03 -1.60364E+04 -1.20106E+04 -5.18123E+03 -1.91011E+04  7.50538E+03 -1.59271E+04
  1.30900E+04 -6.09196E+03  8.82222E+03  5.92331E+03  4.24447E+02  6.51616E+03 -9.29517E+03 -5.94480E+02
 -8.91645E+03 -1.11077E+04 -1.40302E+03 -1.71572E+04  1.12883E+04 -1.59451E+04  2.09373E+04 -1.04260E+04
  2.42398E+04  1.29538E+03  1.76139E+04  1.51699E+04  4.01987E+03  1.99593E+04 -7.67661E+03  1.52725E+04
 -1.25023E+04  3.57401E+03 -7.33726E+03 -3.14210E+03  2.75991E+03 -3.32222E+03  9.50287E+03 -1.00255E+02
  7.69817E+03  7.02385E+03  1.28062E+03  1.31098E+04 -8.46285E+03  1.29240E+04 -1.69711E+04  2.93734E+03
 -1.26124E+04 -9.32096E+03 -6.87959E+02 -1.53071E+04  1.13539E+04 -5.87317E+03  1.04565E+04  3.40998E+03
  1.73043E+03  1.19777E+04 -8.56435E+03  1.19525E+04 -1.37900E+04  7.15783E+03 -1.57783E+04 -5.14772E+03
 -7.88419E+03 -1.52557E+04  4.61178E+03 -1.85200E+04  1.58107E+04 -1.10474E+04  1.64053E+04  4.40085E+03
  1.00663E+04  1.36783E+04 -1.95875E+03  1.70831E+04 -1.19121E+04  8.61865E+03 -1.25462E+04 -1.91602E+03
 -1.14915E+04 -1.23371E+04 -3.51891E+03 -1.16087E+04  6.89363E+03 -9.15914E+03  7.49767E+03 -3.85194E+03
  4.54661E+03  2.31152E+03 -3.05787E+02  8.04234E+02 -1.12155E+03 -4.71341E+03  2.09218E+03 -8.73283E+03
  1.23376E+04 -4.56231E+03  1.59064E+04  3.75308E+03  1.65947E+04  1.19377E+04  1.13904E+04  2.08056E+04
 -4.58602E+03  2.54130E+04 -2.12908E+04  1.91537E+04 -2.71836E+04  3.07663E+03 -2.12136E+04 -8.28003E+03
 -1.04110E+04 -1.73939E+04 -6.19767E+01 -1.48948E+04  4.39495E+03 -8.09107E+03  5.61268E+03 -5.37814E+03
  4.73949E+03 -2.43155E+03  3.40056E+03 -3.73620E+03  6.80353E+03 -3.94081E+03  7.87562E+03 -2.56300E+03
  1.22125E+04  2.05160E+03  7.70826E+03  1.05795E+04 -3.05976E+03  1.33911E+04 -1.14912E+04  9.64994E+03
 -1.48947E+04 -2.62080E+03 -9.56876E+03 -1.06802E+04 -2.51123E+03 -1.39557E+04  9.14589E+03 -1.52489E+04
  1.86191E+04 -9.02876E+03  2.05744E+04  3.86029E+03  1.38865E+04  1.44646E+04  2.75781E+03  1.61377E+04
 -8.36801E+03  1.44127E+04 -1.07879E+04  4.90196E+03 -8.66180E+03 -2.87002E+03 -1.42058E+03 -3.02420E+03
 -9.34212E+02 -1.24543E+03 -2.73134E+03  2.29953E+03 -7.29488E+03  2.48326E+03 -9.93686E+03 -1.64648E+03
 -7.04375E+03 -9.93944E+03  1.11617E+02 -1.49898E+04  1.06390E+04 -1.45645E+04  1.54154E+04 -4.64382E+03
  1.50402E+04  8.30701E+03  7.38519E+03  1.39491E+04 -3.59046E+03  1.54633E+04 -1.08930E+04  1.05703E+04
 -1.57886E+04 -3.02307E+02 -1.12925E+04 -1.10669E+04 -3.25160E+03 -1.20522E+04  8.10510E+03 -1.01145E+04
  9.93699E+03 -2.33815E+03  5.18247E+03  2.59581E+03  2.73994E+03  5.23424E+03  9.34901E+02  3.26872E+03
  2.90144E+03  2.28826E+03  4.81888E+03  1.25040E+03  5.89501E+03  6.16985E+03  4.40599E+03  8.38476E+03
 -4.33490E+03  1.08876E+04 -1.03561E+04  1.10431E+04 -1.49915E+04  2.54025E+03 -1.70811E+04 -6.41190E+03
 -7.53024E+03 -1.69822E+04  2.87025E+03 -1.72370E+04  8.70500E+03 -1.16631E+04  1.23690E+04 -2.59490E+03
  9.63258E+03  5.57416E+03  3.01857E+03  8.90910E+03 -3.25790E+03  5.77932E+03 -5.63005E+03 -1.40610E+03
 -3.93544E+03 -6.67249E+03  4.03429E+03 -6.04659E+03  7.71933E+03 -2.55830E+03  5.99249E+03  3.14164E+03
  3.83253E+03  3.85778E+03  2.17077E+03  3.02957E+03 -1.49922E+03  2.39046E+03  2.72582E+03  6.89083E+02
  1.57396E+03 -1.69452E+03  7.56319E+03  3.23208E+03  3.31246E+03  1.01921E+04 -8.31461E+01  1.25717E+04
 -7.47233E+03  7.27376E+03 -1.03404E+04  2.58050E+03 -9.96906E+03 -3.61394E+03 -3.20022E+03 -8.12879E+03
  1.67492E+03 -7.29926E+03  3.55212E+03 -3.33809E+03  3.35305E+03  4.87955E+03 -1.96070E+03  4.40698E+03
 -5.94454E+03  3.48706E+03 -5.44099E+03 -3.75164E+03 -3.83447E+03 -9.02373E+03  1.45849E+03 -1.04412E+04
  6.87429E+03 -5.35339E+03  6.08708E+03 -3.00170E+02  4.52588E+03  2.42584E+03  1.74389E+03  4.34175E+03
 -1.93628E+03  1.03069E+03 -4.23351E+03 -2.16497E+03  1.33788E+03 -5.43844E+03  5.74869E+03 -7.02298E+03
  1.24923E+04  1.55577E+03  1.00398E+04  6.93107E+03  4.25749E+03  1.14895E+04 -5.04442E+03  1.10015E+04
 -8.91960E+03  5.18707E+03 -8.61434E+03 -2.34322E+03 -6.23948E+03 -8.64511E+03  1.54965E+03 -6.75703E+03
  8.81814E+03 -3.31714E+03  6.40143E+03  3.13815E+03  2.34867E+03  6.94692E+03 -1.04584E+03  4.93517E+03
 -4.16040E+03  1.73743E+03 -3.26050E+03  5.29183E+02 -2.10178E+03  1.41385E+03 -3.17475E+03 -5.66100E+02
 -3.34076E+03  7.52908E+03 -6.64644E+03  3.00354E+03 -1.15586E+04  1.82556E+02 -1.18691E+04 -7.33791E+03
 -6.42838E+03 -1.36267E+04  2.55776E+03 -1.66973E+04  9.84138E+03 -1.15990E+04  1.75108E+04 -3.78651E+03
  1.45322E+04  2.97203E+03  7.31276E+03  1.06098E+04  6.81128E+02  1.26792E+04 -5.51081E+03  8.13061E+03
 -5.39647E+03  2.96344E+03 -4.82904E+03 -1.07106E+03  1.51141E+02 -2.36383E+03 -1.77428E+03 -3.86788E+02
 -3.33902E+03  2.24527E+02 -4.36601E+03  1.19244E+03 -6.54144E+02 -3.62542E+03  4.27173E+00 -3.84504E+03
  6.03891E+03 -3.94638E+03  6.34298E+03 -1.06942E+03  7.66488E+03  6.77029E+03  2.00306E+03  1.06156E+04
 -4.57869E+03  1.34101E+04 -1.29185E+04  8.03930E+03 -1.59980E+04 -2.18791E+03 -1.10307E+04 -7.60708E+03
 -5.64882E+03 -1.30963E+04  3.85055E+03 -1.25096E+04  7.81265E+03 -5.29657E+03  8.54463E+03 -1.19667E+03
  5.32464E+03  4.61477E+03 -1.71096E+03  2.41735E+03 -2.63340E+03  4.18267E+02  1.29058E+02 -4.35122E+03
  3.21666E+03 -1.81844E+03  4.88426E+03  1.41374E+03  3.15549E+03  3.95629E+03  8.66260E+02  8.56367E+03
 -6.19881E+03  5.30840E+03 -8.30999E+03 -2.51200E+02 -8.40932E+03 -6.46921E+03 -1.22389E+03 -8.98107E+03
  5.13771E+03 -6.82680E+03  8.76966E+03 -3.38069E+03  9.24994E+03  2.12818E+03  4.46667E+03  6.44917E+03
  1.65869E+03  9.15349E+03 -3.08610E+03  6.67725E+03 -4.66933E+03  2.19066E+03 -4.93795E+03  1.73432E+03
 -3.32240E+03 -3.43753E+02 -2.03729E+03  5.13250E+02 -5.72371E+03  1.41247E+03 -6.32773E+03 -1.33426E+03
 -6.26916E+03 -3.31052E+03 -1.53550E+03 -8.28332E+03  1.90909E+03 -8.34794E+03  7.43570E+03 -3.86654E+03
  7.95988E+03  1.45221E+03  2.78435E+03  5.71100E+03 -2.20067E+02  7.31708E+03 -6.07066E+03  4.46697E+03
