 $NMID ID='MM_0lb_SNR200_10hz_g45_55.RAW', FMTDAT='(8E13.5)'
 TRAMP=1., VOLUME=1. $END
  3.10499E+05  2.24330E+02  3.38760E+05  2.50586E+05  8.50139E+04  3.37214E+05 -1.32831E+05  2.50670E+05
 -1.90095E+05  8.40362E+04 -1.11357E+05 -3.30809E+04  1.59553E+03 -5.04142E+04  5.42394E+04 -1.52137E+03
  3.61872E+04  5.25752E+04 -1.75002E+04  7.56793E+04 -6.23445E+04  6.43453E+04 -8.40545E+04  3.31447E+04
 -8.17018E+04 -1.15313E+04 -5.74873E+04 -5.33513E+04 -1.60611E+04 -7.20657E+04  2.68946E+04 -4.51675E+04
  4.05857E+04  1.92457E+03  1.75451E+04  4.77061E+04 -3.50737E+04  4.68659E+04 -6.84072E+04 -4.51988E+02
 -5.33753E+04 -5.85269E+04 -7.53483E+03 -7.71174E+04  3.46967E+04 -5.77338E+04  5.07171E+04 -1.79432E+04
  4.50201E+04  1.17049E+04  3.23437E+04  2.54620E+04  1.69427E+04  2.95271E+04 -5.12892E+03  2.82074E+04
 -2.26274E+04  1.17283E+04 -1.88753E+04 -7.48190E+03  6.45386E+03 -7.28261E+03  2.29781E+04  1.38152E+04
  6.65847E+03  3.66926E+04 -3.31482E+04  3.67528E+04 -6.60717E+04  2.60594E+03 -5.89316E+04 -4.33010E+04
 -1.32661E+04 -6.52636E+04  4.17363E+04 -4.54903E+04  6.02012E+04 -2.01604E+03  3.62565E+04  3.45496E+04
 -6.90053E+03  3.88678E+04 -3.12739E+04  1.80004E+04 -3.38368E+04 -4.07394E+03 -1.88038E+04 -1.14272E+04
 -9.01636E+03 -1.40352E+04  4.14660E+02 -1.88798E+04  8.12897E+03 -2.31653E+04  1.66565E+04 -1.23599E+04
  1.00433E+04  7.11648E+03 -1.05025E+04  1.28465E+04 -2.23117E+04 -5.57143E+03 -8.07636E+03 -3.68254E+04
  2.37339E+04 -4.66322E+04  5.21518E+04 -2.09974E+04  4.75750E+04  1.90241E+04  1.63788E+04  4.71902E+04
 -1.60497E+04  3.52952E+04 -2.64556E+04  3.22887E+03 -1.17322E+04 -2.97389E+04  2.06060E+04 -3.42500E+04
  4.32669E+04 -1.20829E+04  3.94279E+04  2.53532E+04  1.98143E+04  5.01233E+04 -9.52831E+03  5.34142E+04
 -3.38209E+04  3.69935E+04 -4.52624E+04  9.62780E+03 -4.72736E+04 -1.87443E+04 -2.68440E+04 -4.09243E+04
  7.64309E+03 -4.15881E+04  3.40210E+04 -1.70172E+04  3.03116E+04  1.20374E+04  4.16125E+03  2.02428E+04
 -1.35753E+04  8.57568E+03 -1.05015E+04 -8.64531E+03  5.47171E+03 -1.27682E+04  1.87845E+04  5.18541E+03
  1.37569E+04  2.14678E+04 -5.99000E+03  2.72518E+04 -2.36212E+04  1.45379E+04 -3.04581E+04 -2.61388E+03
 -2.38693E+04 -1.85934E+04 -1.18613E+04 -2.52680E+04  5.42564E+03 -2.37075E+04  1.95471E+04 -2.28685E+04
  3.09827E+04 -1.36586E+04  3.62647E+04  5.11185E+03  2.51198E+04  2.24192E+04  4.85439E+03  3.99175E+04
 -1.86402E+04  3.20157E+04 -2.97188E+04  1.15677E+04 -2.06377E+04 -1.08917E+04 -5.54782E+03 -1.30139E+04
  2.10798E+03 -9.38621E+02 -6.33039E+03  7.55286E+03 -1.98408E+04  5.35655E+03 -1.93033E+04 -9.74550E+03
 -1.20562E+04 -2.36249E+04  7.44469E+03 -2.59129E+04  1.80597E+04 -2.08104E+04  2.14012E+04 -1.90187E+03
  1.20647E+04  1.59027E+04  5.42886E+01  2.30497E+04 -1.44685E+04  1.31659E+04 -2.20845E+04 -4.86145E+03
 -1.56592E+04 -2.09364E+04 -1.86097E+03 -2.60128E+04  1.10801E+04 -2.26851E+04  2.15632E+04 -1.10410E+04
  2.13095E+04 -2.75982E+02  1.33007E+04  4.39020E+03  7.60006E+03  2.42002E+03  1.13134E+04 -1.12796E+03
  1.98238E+04  3.51421E+03  2.40151E+04  1.77684E+04  1.66702E+04  3.55496E+04 -3.55710E+03  4.05799E+04
 -2.39543E+04  3.29144E+04 -3.78235E+04  1.70168E+04 -4.06724E+04 -3.31140E+03 -3.40466E+04 -2.16853E+04
 -1.45734E+04 -3.26113E+04  1.13460E+04 -3.01404E+04  2.58439E+04 -1.43972E+04  2.14996E+04  8.44973E+03
  8.85020E+03  1.71593E+04 -1.10202E+04  1.55128E+04 -1.92946E+04  8.81281E+02 -1.35884E+04 -1.29907E+04
 -2.12091E+02 -1.97540E+04  9.24319E+03 -1.42496E+04  1.26285E+04 -1.48116E+03  3.51492E+03  7.53756E+03
 -7.09492E+03  3.62967E+03 -8.48769E+03 -7.38179E+03 -9.90812E+02 -1.74338E+04  1.10301E+04 -1.87047E+04
  2.13634E+04 -1.05689E+04  2.45172E+04  4.78286E+03  2.09720E+04  1.59211E+04  1.10305E+04  2.61715E+04
 -4.41686E+03  2.67809E+04 -1.82626E+04  1.65035E+04 -2.07525E+04  4.01955E+03 -1.37392E+04 -5.78906E+03
 -6.83294E+03 -6.49831E+03 -7.02655E+02  1.09609E+03 -2.05916E+03  4.08784E+03 -7.37335E+03  5.18830E+03
 -1.36845E+04  4.09699E+02 -1.32610E+04 -1.17036E+04 -7.16526E+03 -1.66255E+04  5.54033E+03 -1.46401E+04
  1.23639E+04 -5.25220E+03  8.28145E+03  2.95770E+03  7.93946E+02  5.70167E+03 -7.99393E+03 -8.15546E+02
 -7.41315E+03 -8.23277E+03 -1.93848E+03 -1.34395E+04  7.67272E+03 -1.50806E+04  1.69833E+04 -6.09668E+03
  2.01000E+04  1.50927E+03  1.56387E+04  1.26836E+04  4.17013E+03  1.65758E+04 -9.94309E+03  1.40058E+04
 -1.10599E+04  5.24983E+03 -5.67652E+03 -2.57508E+03  1.20548E+03 -3.29299E+03  7.99674E+03 -1.67775E+03
  6.67318E+03  6.20233E+03  1.06853E+03  1.13689E+04 -8.83380E+03  1.14816E+04 -1.51587E+04  2.54222E+03
 -9.58376E+03 -7.25922E+03  4.49872E+02 -1.23942E+04  7.26859E+03 -6.12963E+03  8.35523E+03  2.87800E+03
  2.06523E+03  9.46456E+03 -6.86187E+03  1.07978E+04 -1.21167E+04  5.63444E+03 -1.25684E+04 -4.54402E+03
 -6.76856E+03 -1.46329E+04  4.56445E+03 -1.49111E+04  1.33225E+04 -8.83958E+03  1.38414E+04  2.75235E+03
  9.99079E+03  1.07331E+04 -8.95956E+02  1.46985E+04 -1.05423E+04  6.64247E+03 -1.11910E+04 -1.15183E+03
 -1.07548E+04 -8.43522E+03 -8.34601E+02 -1.07329E+04  5.62910E+03 -8.73113E+03  6.72193E+03 -2.94173E+03
  4.69703E+03  2.28595E+03  2.83988E+01  1.55483E+03 -1.05787E+03 -2.48178E+03  2.71076E+03 -5.53037E+03
  9.89878E+03 -4.37970E+03  1.36716E+04  1.88951E+03  1.23630E+04  9.24523E+03  1.01309E+04  1.80741E+04
 -4.06837E+03  2.08480E+04 -1.69340E+04  1.63413E+04 -2.26039E+04  2.62184E+03 -1.89703E+04 -6.69456E+03
 -1.02495E+04 -1.46734E+04 -1.10595E+03 -1.10390E+04  4.72459E+03 -7.86819E+03  5.09499E+03 -4.63979E+03
  3.96400E+03 -3.25222E+03  3.86116E+03 -3.11780E+03  6.16832E+03 -2.41435E+03  6.44219E+03 -1.27805E+03
  1.04399E+04  1.92375E+03  4.48705E+03  7.94738E+03 -2.09392E+03  9.41785E+03 -1.10645E+04  5.96672E+03
 -1.44086E+04 -7.65270E+02 -8.27898E+03 -9.32978E+03 -1.89126E+03 -1.37201E+04  7.06553E+03 -1.35548E+04
  1.55077E+04 -6.48203E+03  1.76589E+04  2.51385E+03  1.13261E+04  1.19458E+04  1.28434E+03  1.52771E+04
 -5.88368E+03  1.35271E+04 -9.29563E+03  4.43660E+03 -6.67354E+03 -1.47106E+03 -2.55932E+03 -2.91503E+03
 -8.76466E+02  1.67665E+03 -2.51092E+03  4.82590E+03 -6.58317E+03  1.79378E+03 -8.05912E+03 -2.03799E+03
 -6.33426E+03 -9.64127E+03  1.69953E+03 -1.29680E+04  7.25449E+03 -1.26413E+04  1.39662E+04 -4.42352E+03
  1.31776E+04  6.92237E+03  6.92043E+03  1.11935E+04 -3.51220E+03  1.21748E+04 -9.51336E+03  8.23340E+03
 -1.05119E+04  1.31895E+03 -9.03534E+03 -7.67883E+03  3.36335E+02 -1.20974E+04  4.98128E+03 -7.19604E+03
  7.98518E+03 -2.06479E+03  5.88903E+03  1.87023E+03  1.98133E+03  2.93861E+03  7.56875E+02  1.53443E+03
  1.90930E+03  1.04376E+03  2.27951E+03  2.85867E+03  3.37263E+03  3.27687E+03  2.97842E+03  6.05812E+03
 -2.12191E+03  1.02206E+04 -8.70901E+03  9.40522E+03 -1.28790E+04  1.95849E+03 -1.22952E+04 -5.25663E+03
 -7.33795E+03 -1.28441E+04  2.89781E+03 -1.27562E+04  7.87653E+03 -8.78992E+03  1.02936E+04 -1.07009E+03
  7.29040E+03  5.22223E+03  1.58826E+03  6.65616E+03 -3.66362E+03  3.79599E+03 -6.09696E+03 -1.63201E+03
 -2.74485E+03 -5.21863E+03  2.38225E+03 -5.89289E+03  4.83830E+03 -1.41463E+03  4.87614E+03  1.03071E+03
  3.86568E+03  1.83410E+03  2.27379E+03  2.94336E+03 -1.43330E+03  1.40977E+03  3.02825E+03 -4.56878E+01
  2.24589E+03 -1.76510E+03  5.93563E+03  2.31151E+03  2.09928E+03  6.07289E+03 -3.30618E+02  9.76599E+03
 -4.53900E+03  5.27192E+03 -8.11794E+03  2.64239E+03 -7.34209E+03 -2.26766E+03 -2.79588E+03 -5.68955E+03
  1.04116E+03 -4.69967E+03  3.25145E+03 -1.86065E+03  2.99068E+03  2.52826E+03 -1.14336E+03  6.56028E+03
 -5.38891E+03  2.62532E+03 -6.58536E+03 -3.32377E+03 -3.03973E+03 -8.17998E+03  1.37767E+03 -6.53999E+03
  4.80045E+03 -4.20385E+03  5.39678E+03 -1.61683E+03  4.33004E+03  2.28161E+03  8.91176E+02  2.65811E+03
 -1.15410E+03  8.04213E+01 -2.77700E+03 -2.59576E+03  1.71656E+03 -5.12205E+03  5.96744E+03 -3.97819E+03
  8.14364E+03  2.79958E+02  7.85143E+03  5.83729E+03  2.58614E+03  1.01199E+04 -2.76697E+03  6.84146E+03
 -7.71685E+03  3.52719E+03 -7.18229E+03  2.09152E+02 -3.67710E+03 -6.46827E+03  1.07213E+03 -4.79873E+03
  7.16003E+03 -2.44512E+03  3.14831E+03  1.65460E+03  1.28920E+03  4.59745E+03 -7.25234E+02  4.92307E+03
 -1.58266E+03  3.56025E+03 -3.06383E+03 -1.37512E+01 -1.88729E+03 -4.04225E+02 -5.11447E+02  2.41679E+03
 -1.91940E+03  2.37812E+03 -6.80785E+03  2.67260E+03 -9.03496E+03 -1.95918E+02 -8.87121E+03 -6.17673E+03
 -5.78729E+03 -1.17698E+04  8.68486E+02 -1.20506E+04  7.93687E+03 -9.48754E+03  1.29060E+04 -5.36183E+03
  1.29412E+04  1.33324E+03  6.22530E+03  7.14266E+03  7.33125E+02  8.76846E+03 -1.37117E+03  6.25229E+03
 -4.26325E+03  1.96574E+03 -3.33527E+03 -6.13416E+02 -1.86439E+03 -4.46548E+00 -9.34758E+02 -6.19036E+02
 -1.72472E+02 -9.69103E+02 -1.65557E+03  1.07501E+03  3.06508E+02 -2.83095E+03 -5.97946E+02 -4.43681E+03
  3.68546E+03 -2.73919E+03  4.78880E+03  1.80678E+02  6.47894E+03  3.30288E+03  2.22635E+03  8.58239E+03
 -4.57309E+03  1.02511E+04 -8.41045E+03  6.86038E+03 -1.05888E+04 -4.43559E+02 -7.40426E+03 -5.55712E+03
 -4.03414E+03 -8.78021E+03  2.63221E+03 -8.77783E+03  5.40351E+03 -4.14117E+03  5.58952E+03 -1.49141E+03
  3.32617E+03  1.62891E+03 -1.10951E+03  2.83906E+03 -1.20866E+03 -5.94534E+02 -6.92028E+02 -2.46490E+03
  1.76270E+03 -1.66287E+03  2.58459E+03  1.47643E+03  2.42456E+03  2.83970E+03 -8.52350E+02  5.09883E+03
 -3.16629E+03  3.39132E+03 -5.33102E+03  6.52968E+02 -5.64337E+03 -3.08873E+03  1.19296E+02 -6.69824E+03
  3.35654E+03 -4.00905E+03  7.02883E+03 -6.27478E+02  4.63866E+03  1.10001E+03  5.35087E+03  5.35503E+03
  1.13877E+03  5.86902E+03 -1.76384E+03  4.25093E+03 -3.14489E+03  2.83195E+03 -3.08694E+03  8.44981E+02
 -2.34052E+03  2.57427E+02 -1.16490E+03 -1.16294E+03 -2.52543E+03  2.41885E+03 -4.64121E+03 -5.57964E+02
 -4.18156E+03 -1.77287E+03 -1.88635E+03 -4.53368E+03  2.34517E+03 -5.72713E+03  3.34438E+03 -4.24641E+03
  5.61732E+03  8.29710E+02  3.45443E+03  3.57734E+03 -3.64451E+01  5.76657E+03 -3.63126E+03  4.66034E+03
