 $NMID ID='MM_0lb_SNR200_20hz_g60_67.RAW', FMTDAT='(8E13.5)'
 TRAMP=1., VOLUME=1. $END
  3.08805E+05  7.23826E+02  3.38100E+05  2.49744E+05  8.44393E+04  3.37930E+05 -1.33543E+05  2.49887E+05
 -1.89941E+05  8.37655E+04 -1.11911E+05 -3.18508E+04  1.26242E+03 -4.96129E+04  5.48388E+04  6.49471E+01
  3.54037E+04  5.20357E+04 -1.67776E+04  7.60267E+04 -6.05507E+04  6.33161E+04 -8.38066E+04  3.19778E+04
 -8.06828E+04 -1.13319E+04 -5.58354E+04 -5.05599E+04 -1.51745E+04 -6.95569E+04  2.63929E+04 -4.53245E+04
  3.89691E+04  3.28127E+03  1.55515E+04  4.68698E+04 -3.42605E+04  4.76847E+04 -6.56319E+04 -1.39877E+03
 -5.18916E+04 -5.57892E+04 -5.89985E+03 -7.64926E+04  3.48729E+04 -5.44053E+04  4.90580E+04 -1.66404E+04
  4.20248E+04  1.22914E+04  3.15201E+04  2.41648E+04  1.61392E+04  2.82359E+04 -5.38519E+03  2.64711E+04
 -2.25256E+04  1.25312E+04 -1.85957E+04 -3.27802E+03  4.28618E+03 -8.30940E+03  2.01634E+04  1.07355E+04
  7.36948E+03  3.37378E+04 -3.17466E+04  3.48868E+04 -6.14142E+04  2.53897E+03 -5.48117E+04 -4.14920E+04
 -1.28691E+04 -6.13062E+04  3.83412E+04 -4.46810E+04  5.65671E+04 -1.60916E+03  3.33622E+04  3.10335E+04
 -6.87459E+03  3.48289E+04 -2.85417E+04  1.42993E+04 -2.90020E+04 -5.59638E+03 -1.49787E+04 -9.02590E+03
 -8.67928E+03 -1.21863E+04 -1.79368E+03 -1.73404E+04  6.97259E+03 -2.26576E+04  1.59650E+04 -1.34442E+04
  1.13524E+04  5.68297E+03 -6.97517E+03  1.33719E+04 -2.00119E+04 -3.15066E+03 -9.54208E+03 -3.06483E+04
  2.13789E+04 -4.06153E+04  4.57638E+04 -1.91321E+04  4.30979E+04  2.01211E+04  1.48206E+04  4.32247E+04
 -1.50445E+04  3.29857E+04 -2.37174E+04  5.78692E+02 -8.50665E+03 -2.60100E+04  2.03894E+04 -3.20404E+04
  3.84864E+04 -8.06619E+03  3.20747E+04  2.40377E+04  1.54219E+04  4.33506E+04 -7.21135E+03  4.65508E+04
 -2.89962E+04  3.08741E+04 -3.88174E+04  8.99701E+03 -3.91561E+04 -1.59171E+04 -2.12244E+04 -3.50023E+04
  7.91311E+03 -3.61454E+04  2.99727E+04 -1.24422E+04  2.71707E+04  1.02005E+04  2.31437E+03  1.86649E+04
 -1.42871E+04  7.25708E+03 -9.64992E+03 -7.25019E+03  5.60424E+03 -1.07675E+04  1.68256E+04  5.77734E+03
  1.30825E+04  2.14337E+04 -6.18899E+03  2.34929E+04 -2.12730E+04  1.01049E+04 -2.61610E+04 -6.38623E+03
 -1.74394E+04 -1.64490E+04 -6.21866E+03 -1.66531E+04  4.06256E+03 -1.62797E+04  1.34747E+04 -1.46920E+04
  2.23320E+04 -1.23661E+04  2.84515E+04  9.60122E+02  2.15419E+04  1.65704E+04  3.56459E+03  3.30407E+04
 -1.63670E+04  2.78115E+04 -2.59211E+04  9.72899E+03 -1.99637E+04 -1.07689E+04 -3.60959E+03 -1.34245E+04
  3.83355E+03 -3.67535E+03 -2.19410E+03  4.94607E+03 -1.26611E+04  5.04250E+03 -1.32090E+04 -5.88560E+03
 -8.77167E+03 -1.53283E+04  4.11418E+03 -1.92879E+04  1.38512E+04 -1.42254E+04  1.43598E+04 -1.08361E+03
  9.29751E+03  1.18155E+04 -1.03856E+03  1.53369E+04 -1.07324E+04  8.83379E+03 -1.61788E+04 -3.74788E+03
 -1.25496E+04 -1.39138E+04 -1.12515E+03 -2.03076E+04  8.74405E+03 -1.48725E+04  1.63518E+04 -7.18085E+03
  1.51505E+04  6.29084E+02  9.98051E+03  3.94934E+03  4.67330E+03  1.74056E+03  8.42724E+03 -1.31913E+03
  1.40806E+04  3.32231E+03  1.45860E+04  1.14409E+04  9.76417E+03  2.54432E+04 -2.74380E+03  2.60304E+04
 -1.53769E+04  2.20447E+04 -2.42474E+04  1.08111E+04 -2.45542E+04 -1.56883E+03 -2.22436E+04 -1.46546E+04
 -1.01366E+04 -2.03399E+04  6.95273E+03 -1.94418E+04  1.72018E+04 -1.15590E+04  1.58194E+04  4.01852E+03
  6.60324E+03  1.10608E+04 -7.44934E+03  1.10034E+04 -1.38851E+04  2.44517E+03 -1.02424E+04 -8.23409E+03
  5.07020E+02 -1.10246E+04  6.03614E+03 -8.89890E+03  8.17096E+03 -1.45040E+03  2.47419E+02  4.36044E+03
 -5.49397E+03  9.97686E+02 -3.51900E+03 -5.96785E+03 -7.85948E+01 -1.00990E+04  8.03516E+03 -1.05882E+04
  1.20419E+04 -4.37643E+03  1.13563E+04  2.73956E+03  1.03495E+04  9.30255E+03  4.21008E+03  1.45555E+04
 -1.84040E+03  1.57118E+04 -8.81918E+03  9.15945E+03 -1.14524E+04  2.90677E+03 -8.89459E+03 -1.77451E+03
 -4.93492E+03 -2.94650E+03 -1.71453E+03  1.13428E+03 -1.65475E+03  1.48813E+03 -4.00406E+03  3.07094E+03
 -7.23788E+03 -2.40136E+02 -7.64399E+03 -7.63253E+03 -3.35161E+03 -1.06782E+04  2.50586E+03 -8.03489E+03
  6.92689E+03 -4.78770E+03  5.32595E+03  2.42488E+03  1.50627E+03  3.16836E+03 -3.96183E+03  3.28441E+00
 -4.01694E+03 -4.67295E+03 -1.96383E+02 -6.58606E+03  3.43729E+03 -8.61758E+03  9.14698E+03 -4.56978E+03
  1.16594E+04  8.03466E+02  7.76498E+03  6.55714E+03  2.44928E+03  8.52339E+03 -4.50512E+03  8.13376E+03
 -7.03179E+03  2.77853E+03 -3.20589E+03 -1.91184E+03  1.63506E+03 -2.43906E+03  5.19847E+03 -2.03095E+03
  4.05523E+03  2.70576E+03  1.72740E+03  5.67635E+03 -4.17006E+03  6.24865E+03 -8.12599E+03  2.08129E+03
 -4.02000E+03 -3.57021E+03 -2.90910E+02 -7.72362E+03  4.00941E+03 -2.81131E+03  4.37653E+03  9.08942E+02
  5.63354E+02  3.06685E+03 -4.27175E+03  4.67126E+03 -4.35512E+03  2.06206E+03 -3.43313E+03 -1.56831E+03
 -4.23050E+03 -5.55864E+03  1.08610E+03 -6.27258E+03  5.62863E+03 -4.23638E+03  5.34485E+03 -3.08215E+02
  5.39016E+03  4.74898E+03 -1.11835E+02  6.83406E+03 -5.43824E+03  4.59348E+03 -4.98158E+03 -8.82166E+02
 -5.81128E+03 -4.80512E+03 -7.36197E+02 -4.82458E+03  2.42130E+03 -5.12498E+03  2.92164E+03 -3.50336E+03
  1.84304E+03 -1.76929E+02 -2.68323E+02  1.07544E+03  1.05111E+03  1.68290E+02  1.10389E+03 -1.45093E+03
  3.41789E+03 -6.57450E+02  4.58909E+03  1.48053E+03  5.18571E+03  3.45025E+03  4.77878E+03  5.72067E+03
 -1.71186E+03  8.28437E+03 -6.70555E+03  5.86860E+03 -9.05951E+03  9.88923E+02 -7.70499E+03 -2.41375E+03
 -5.14253E+03 -6.21738E+03 -1.04250E+03 -4.62487E+03  2.05640E+03 -2.85488E+03  1.75864E+03 -2.06410E+03
  1.02632E+03 -9.12790E+02  8.55628E+02 -2.55677E+03  3.11156E+03 -1.22306E+03  4.64432E+03  8.94393E+02
  4.49318E+03  1.93688E+03  4.31695E+02  2.65887E+03 -2.10022E+03  2.68977E+03 -4.39030E+03  2.27121E+03
 -3.35700E+03 -1.89441E+03 -5.07663E+02 -3.62424E+03 -6.27835E+01 -4.78686E+03  2.75432E+03 -4.71404E+03
  5.13939E+03 -2.48112E+03  5.54191E+03 -3.68723E+02  4.66701E+03  3.04529E+03  9.34201E+02  5.41080E+03
 -1.89799E+03  4.90997E+03 -2.67550E+03  1.53883E+03 -1.14431E+03 -4.85187E+02  2.84092E+01 -2.35035E+02
 -5.67927E+02  4.41939E+02 -1.46944E+03  2.42060E+03 -2.84336E+03  7.75840E+02 -3.23673E+03 -8.33872E+02
 -9.81658E+02 -3.17438E+03  5.88877E+02 -3.26961E+03  2.74165E+03 -4.65304E+03  3.71838E+03 -1.18662E+03
  3.84384E+03  1.95979E+03  1.14565E+03  2.54340E+03 -4.55202E+02  4.49411E+03 -2.09724E+03  2.07618E+03
 -3.15481E+03 -1.53725E+02 -2.10262E+03 -2.08984E+03  6.57733E+02 -2.76559E+03  6.73591E+02 -2.10606E+03
  3.23540E+03 -1.08038E+03  1.58548E+03 -1.07225E+02  2.61550E+02  2.42617E+03  4.10365E+02 -6.32041E+02
  1.46597E+03  2.02867E+00  1.12760E+03 -2.40145E+02  1.09901E+03  2.04344E+03  1.57149E+03  1.38854E+03
 -1.61867E+03  1.77479E+03 -2.34317E+03  3.16867E+03 -2.36736E+03  1.07278E+03 -3.03834E+03 -3.01971E+02
 -1.49380E+03 -3.85173E+03  1.70589E+03 -4.44737E+03  1.86489E+03 -1.99827E+03  2.72940E+03 -1.68611E+01
  3.38153E+03  9.92514E+02  1.84602E+02  2.61040E+03 -1.53551E+03  7.50121E+02 -1.02664E+03 -2.93022E+02
  3.71318E+02 -2.31596E+03  2.74789E+03 -1.28183E+03  1.16081E+03 -1.29712E+03  1.12706E+03 -9.44029E+02
 -6.42996E+01  1.00025E+03  9.44019E+02  2.93477E+02  3.98347E+02  2.40288E+02  3.30396E+03  4.00407E+02
 -7.85489E+02 -4.06982E+02  1.56290E+03 -7.37845E+02  2.71797E+02  2.04770E+03  7.22700E+02  2.64617E+03
 -7.29739E+02 -2.07828E+02 -2.26931E+03 -9.18860E+01 -1.47752E+03 -2.48553E+02 -1.59744E+02 -9.98768E+02
 -6.59020E+01 -1.43471E+03  1.85278E+03 -1.11842E+01  1.93916E+02  1.55211E+03 -1.54954E+03  1.16286E+03
 -1.36629E+03  4.61222E+02  1.09507E+01 -4.35516E+02 -5.66360E+02 -2.52176E+03 -4.02475E+02 -1.29338E+03
  8.35115E+02 -6.12561E+02  5.32065E+00 -4.27782E+02  5.09021E+02 -9.49944E+02  1.28665E+03  4.52035E+02
  6.77857E+02  1.38848E+02 -3.14494E+02 -9.10681E+02  6.24126E+02 -7.13576E+02  1.54075E+03  1.86075E+02
  5.06150E+02 -8.00606E+02  1.72057E+03  6.79426E+02  5.10496E+02  6.92992E+02 -1.15449E+02  5.88141E+02
 -6.30612E+02 -1.79177E+01 -7.67448E+02  1.94244E+02 -8.25000E+02 -1.84026E+03  6.10227E+02 -3.51357E+02
  8.92793E+02 -8.88137E+02  2.14302E+02  1.18282E+03  3.11775E+02  1.07802E+03  5.32869E+02  3.26707E+02
  2.84213E+02  1.09043E+03 -1.50651E+03  3.09629E+02  2.34464E+02  7.54730E+02 -2.73035E+02  1.93996E+03
 -1.18889E+03  1.44543E+03 -2.43034E+03 -1.96219E+02 -1.03733E+03 -2.90960E+02 -2.11687E+03 -5.60440E+02
 -7.21905E+02 -1.72979E+03 -6.94083E+01 -1.62185E+03  1.50366E+01 -2.13534E+03  2.35769E+03 -1.17263E+03
  1.62762E+03 -4.65477E+02  5.07421E+02  1.04080E+03 -3.25894E+02  1.26407E+02 -8.83120E+02  9.02055E+02
 -2.81359E+02 -4.41295E+02  3.28692E+02  8.40147E+02 -1.55378E+03 -5.04178E+02 -6.54831E+02 -3.86939E+02
 -1.02741E+02 -6.54216E+02 -1.12258E+03  6.52211E+02 -1.91822E+02 -9.84690E+01  3.88604E+02 -1.32350E+03
  8.75357E+02 -6.41402E+01  4.68499E+02  7.17085E+02 -5.77451E+01  7.74752E+02 -7.02462E+02  8.55808E+02
 -3.33891E+02  2.24751E+03 -9.04541E+02  2.07677E+03 -2.21777E+02  2.87187E+02 -1.15034E+03 -6.89280E+02
 -8.55421E+02 -8.37906E+02  1.27832E+01 -1.02940E+03  2.06340E+02 -3.49237E+02 -1.32128E+03 -3.04977E+02
 -2.24532E+02 -3.63948E+02 -8.89215E+00  4.23035E+02 -1.86802E+02  5.62723E+02  1.21878E+03  2.35991E+02
  1.26492E+02 -1.07918E+02  6.40161E+02  1.21920E+03  9.95180E+02  3.94282E+02  1.06226E+03  1.14072E+03
 -6.47637E+02  7.24682E+02  1.05934E+01 -8.14375E+01 -5.43978E+02 -2.11460E+02 -6.78683E+02 -1.93928E+02
 -3.79723E+02 -3.00340E+02  5.81071E+02 -3.13212E+01  1.09254E+03 -1.16049E+03 -1.20220E+02  1.38911E+03
  3.37958E+02 -3.81336E+02  7.91578E+02  4.87709E+02 -1.68615E+02  6.50074E+02 -3.69686E+01  7.40722E+02
  3.52459E+02  8.74452E+02 -5.67909E+02 -5.70378E+02 -8.06478E+01 -8.98895E+02 -1.55729E+02  2.27527E+02
 -7.51188E+02  1.54354E+03 -1.06300E+03 -1.27873E+03 -1.76572E+03 -1.13668E+03  8.44777E+02  1.19650E+03
  8.81183E+02  1.99030E+02 -5.89348E+02 -3.24349E+02  2.50239E+02 -5.11122E+02 -2.97667E+02  1.09939E+03
