 $NMID ID='MM_0lb_SNR200_17hz_g55_2.RAW', FMTDAT='(8E13.5)'
 TRAMP=1., VOLUME=1. $END
  3.10184E+05  1.06448E+03  3.37631E+05  2.49942E+05  8.51440E+04  3.38450E+05 -1.31719E+05  2.50546E+05
 -1.89373E+05  8.26571E+04 -1.12843E+05 -3.13198E+04  1.38880E+03 -4.93602E+04  5.42809E+04  1.62270E+02
  3.55107E+04  5.26574E+04 -1.67995E+04  7.44181E+04 -5.93946E+04  6.31210E+04 -8.40502E+04  3.23864E+04
 -8.10752E+04 -1.21651E+04 -5.69138E+04 -5.17547E+04 -1.51674E+04 -6.88867E+04  2.68154E+04 -4.58561E+04
  3.92767E+04  3.68079E+03  1.57900E+04  4.74169E+04 -3.46856E+04  4.63000E+04 -6.64851E+04  6.98511E+02
 -5.24749E+04 -5.61963E+04 -8.07921E+03 -7.70974E+04  3.32436E+04 -5.29969E+04  4.84570E+04 -1.61824E+04
  4.30407E+04  1.02048E+04  3.22612E+04  2.48542E+04  1.61838E+04  2.91962E+04 -4.95382E+03  2.77671E+04
 -2.16075E+04  1.24935E+04 -1.83388E+04 -4.57654E+03  4.85263E+03 -7.33514E+03  2.22692E+04  1.08609E+04
  7.49642E+03  3.43258E+04 -3.18234E+04  3.48450E+04 -6.25321E+04  2.24984E+03 -5.67072E+04 -4.18904E+04
 -1.22342E+04 -6.11319E+04  3.95298E+04 -4.47673E+04  5.65099E+04 -2.72262E+03  3.28420E+04  3.27900E+04
 -6.41623E+03  3.40527E+04 -3.01073E+04  1.55186E+04 -2.91348E+04 -3.89830E+03 -1.45842E+04 -1.05974E+04
 -7.66861E+03 -1.28529E+04 -1.27907E+03 -1.80013E+04  7.62005E+03 -2.29091E+04  1.55470E+04 -1.35993E+04
  1.19619E+04  5.99234E+03 -7.95442E+03  1.36420E+04 -2.06053E+04 -4.19436E+03 -9.37838E+03 -3.27026E+04
  2.20522E+04 -4.24362E+04  4.62914E+04 -1.98917E+04  4.38694E+04  1.94120E+04  1.47824E+04  4.25472E+04
 -1.56413E+04  3.28623E+04 -2.56915E+04  2.17685E+03 -9.55433E+03 -2.69164E+04  2.11012E+04 -3.40119E+04
  4.00683E+04 -8.22232E+03  3.40279E+04  2.33917E+04  1.78014E+04  4.55473E+04 -8.24173E+03  4.75638E+04
 -2.96756E+04  3.23373E+04 -4.02081E+04  8.76813E+03 -4.12622E+04 -1.60225E+04 -2.21180E+04 -3.69305E+04
  6.84224E+03 -3.58428E+04  3.07683E+04 -1.35814E+04  2.85774E+04  1.14062E+04  3.94196E+03  1.77792E+04
 -1.37711E+04  7.64596E+03 -1.07606E+04 -7.39084E+03  7.13412E+03 -9.18639E+03  1.71383E+04  5.96836E+03
  1.39567E+04  2.23443E+04 -6.92484E+03  2.38067E+04 -2.17948E+04  1.06387E+04 -2.62288E+04 -5.21790E+03
 -1.90635E+04 -1.62144E+04 -7.77366E+03 -1.87971E+04  4.12374E+03 -1.71796E+04  1.46672E+04 -1.70994E+04
  2.39174E+04 -1.27826E+04  2.89382E+04  1.87641E+03  2.30681E+04  1.93802E+04  4.00648E+03  3.41428E+04
 -1.72574E+04  2.92547E+04 -2.71422E+04  9.87951E+03 -1.96386E+04 -1.07159E+04 -4.02002E+03 -1.33871E+04
  3.39202E+03 -2.81496E+03 -3.56833E+03  5.53936E+03 -1.51023E+04  5.84013E+03 -1.56322E+04 -6.91692E+03
 -9.61365E+03 -1.71853E+04  3.52472E+03 -2.06349E+04  1.53192E+04 -1.66869E+04  1.70190E+04 -1.02458E+03
  1.00842E+04  1.20476E+04 -7.74701E+02  1.84626E+04 -1.20563E+04  9.68614E+03 -1.74562E+04 -4.00217E+03
 -1.25883E+04 -1.53873E+04 -1.22947E+03 -2.11174E+04  9.21629E+03 -1.67592E+04  1.85724E+04 -8.42060E+03
  1.62976E+04  3.01788E+02  1.16274E+04  3.75876E+03  6.28132E+03 -1.20046E+02  9.66028E+03 -2.62824E+03
  1.52821E+04  2.83850E+03  1.72869E+04  1.38749E+04  1.09179E+04  2.67347E+04 -4.45364E+03  3.12308E+04
 -1.77807E+04  2.35547E+04 -2.78415E+04  1.13300E+04 -2.81660E+04 -2.57400E+03 -2.42784E+04 -1.71823E+04
 -1.06486E+04 -2.42588E+04  8.46327E+03 -2.15654E+04  1.88140E+04 -1.25809E+04  1.67932E+04  4.44318E+03
  7.54716E+03  1.32353E+04 -8.66144E+03  1.13910E+04 -1.47571E+04  3.27366E+03 -1.12286E+04 -8.97610E+03
  4.02752E+02 -1.33848E+04  6.31526E+03 -1.02681E+04  8.51871E+03 -1.63163E+03  3.46970E+03  5.38254E+03
 -6.47427E+03  2.60931E+03 -3.77694E+03 -5.75006E+03  9.25406E+02 -1.22315E+04  9.80100E+03 -1.21075E+04
  1.39843E+04 -6.52234E+03  1.49378E+04  4.45622E+03  1.30838E+04  1.18972E+04  6.38626E+03  1.67236E+04
 -1.99349E+03  1.80635E+04 -1.25792E+04  1.10177E+04 -1.31999E+04  3.26202E+03 -1.01484E+04 -2.20127E+03
 -5.41732E+03 -4.78592E+03 -7.53040E+02  8.84573E+02 -2.47462E+03  2.74838E+03 -4.08274E+03  4.59272E+03
 -8.67131E+03 -1.34200E+03 -9.58704E+03 -7.88260E+03 -3.39946E+03 -1.41555E+04  4.08425E+03 -8.69706E+03
  8.66722E+03 -3.89151E+03  5.62384E+03  2.49890E+03  6.15731E+02  3.61000E+03 -4.51025E+03  2.74354E+02
 -4.58368E+03 -5.51223E+03 -7.14678E+02 -9.10638E+03  4.38699E+03 -9.72459E+03  1.17046E+04 -4.89057E+03
  1.43717E+04  1.13722E+03  1.03442E+04  8.60098E+03  1.09724E+03  1.00266E+04 -6.08288E+03  9.93264E+03
 -7.79515E+03  3.59670E+03 -4.09594E+03 -2.11583E+03  1.75866E+03 -2.92215E+03  6.14954E+03 -8.57399E+02
  4.69281E+03  4.10741E+03 -2.65393E+02  8.07182E+03 -5.41914E+03  6.42647E+03 -9.21208E+03  1.36473E+03
 -5.77621E+03 -6.05203E+03  1.07985E+03 -7.38050E+03  5.80086E+03 -4.10228E+03  5.93221E+03  1.44293E+03
  1.18747E+03  4.43196E+03 -4.45164E+03  5.50803E+03 -6.64167E+03  3.14734E+03 -5.70675E+03 -1.00513E+03
 -3.61997E+03 -7.41089E+03  2.36167E+03 -8.38074E+03  8.23460E+03 -5.14354E+03  7.95019E+03  1.59882E+03
  6.25208E+03  6.25623E+03 -6.11242E+02  9.04946E+03 -5.94309E+03  4.41969E+03 -5.83726E+03 -4.45167E+02
 -7.15748E+03 -6.31518E+03 -4.80280E+02 -5.55416E+03  4.46037E+03 -6.07791E+03  2.10218E+03 -2.92803E+03
  3.23864E+03  7.19420E+02 -5.18700E+02  1.35136E+03  8.70782E+02 -6.41916E-01  8.11871E+01 -2.43211E+03
  5.32910E+03 -7.69524E+02  7.44342E+03  1.44815E+03  7.54137E+03  3.58747E+03  5.66219E+03  8.96180E+03
 -1.69314E+03  1.04762E+04 -9.57917E+03  7.86901E+03 -1.25284E+04  1.67400E+03 -9.79294E+03 -3.20401E+03
 -5.16883E+03 -7.58677E+03 -1.49658E+03 -6.55395E+03  3.50984E+03 -2.64325E+03  2.31952E+03 -1.80884E+03
  1.35467E+03 -7.39817E+02  2.10168E+03 -3.65635E+03  4.01474E+03 -1.68199E+03  3.89070E+03  4.07941E+01
  6.25675E+03  1.23137E+03  3.33733E+03  5.34611E+03 -2.91831E+03  3.78077E+03 -5.80885E+03  3.09292E+03
 -6.28675E+03 -5.85501E+02 -2.02228E+03 -4.34810E+03 -4.62038E+02 -7.04062E+03  3.94837E+03 -7.16473E+03
  6.05819E+03 -4.08172E+03  8.09243E+03  2.26613E+02  5.86806E+03  5.01395E+03  1.66679E+03  7.14378E+03
 -3.25312E+03  5.19418E+03 -4.82770E+03  1.87222E+03 -4.62216E+03 -9.02232E+02 -1.07996E+03 -1.06891E+03
 -8.07676E+02  4.31695E+02 -1.77262E+03  1.95561E+03 -3.27946E+03  1.82808E+03 -5.35032E+03 -3.15387E+02
 -2.24270E+03 -4.47452E+03  1.78676E+03 -5.84086E+03  3.41047E+03 -5.90997E+03  6.06181E+03 -6.87882E+02
  5.61753E+03  2.93043E+03  2.71101E+03  3.83041E+03 -7.74342E+02  5.57659E+03 -3.21749E+03  4.38745E+03
 -4.74908E+03  6.26100E+02 -3.50076E+03 -2.64270E+03 -9.68173E+02 -4.01589E+03  1.31290E+03 -2.48516E+03
  3.95792E+03 -9.93955E+02  1.77623E+03 -1.68965E+02  8.04965E+02  2.13553E+03  9.71106E+02  2.16406E+02
  1.52079E+03  7.44410E+02  2.41972E+03  1.95297E+03  1.91072E+03  1.87849E+03  1.90265E+03  1.09844E+03
 -6.45209E+02  4.28091E+03 -3.76884E+03  5.38989E+03 -3.79507E+03  9.05946E+02 -5.93335E+03 -5.09946E+02
 -2.68711E+03 -4.38977E+03  1.00542E+03 -5.94930E+03  2.49249E+03 -3.39953E+03  3.57439E+03  2.40676E+02
  3.78959E+03  3.66153E+03  1.13716E+03  2.18487E+03  3.81416E+02  1.87257E+03 -1.16162E+03 -4.81140E+02
 -3.25165E+02 -1.62648E+03  1.04916E+03 -2.32778E+03  1.86034E+03 -1.86520E+03  2.10924E+03  2.86162E+02
 -3.94739E+01  4.34652E+02  1.42925E+03 -3.50385E+02  2.41257E+02  6.70867E+02  1.28550E+03  2.78570E+02
 -7.83754E+02  6.14922E+01  3.05917E+03  2.00276E+02  1.55456E+03  2.12611E+03  1.38344E+02  3.59064E+03
 -1.06214E+03  1.31149E+03 -4.61404E+03  9.02879E+02 -2.55894E+03 -1.36690E+03 -9.65524E+02 -8.91353E+02
  1.33404E+03 -2.13871E+03  1.21366E+03 -1.18308E+03  1.40232E+03  1.02163E+03 -1.67303E+03  1.73382E+03
 -2.02654E+03  4.01669E+02 -9.74894E+02 -2.01225E+03  4.77406E+00 -3.75463E+03  5.88255E+02 -3.13915E+03
  1.09485E+03 -5.85507E+02  8.48744E+02  5.58735E+02  2.18327E+03  1.88673E+02  1.17032E+03  2.40844E+03
 -9.36783E+01  3.15248E+01 -6.42530E+02 -9.85907E+01  4.44362E+02 -1.57189E+03  1.41186E+03 -2.12558E+03
  1.10325E+03  3.93329E+02  3.46519E+03  1.65649E+03  2.31641E+03  2.32864E+03 -5.17876E+02  2.52445E+03
 -1.41502E+03  5.32239E+02 -1.97185E+03 -1.40317E+03 -6.77677E+02 -2.63765E+03  6.50688E+01 -1.29019E+03
  1.93219E+03 -1.59457E+03  1.62310E+03  2.62388E+02 -3.63817E+02  2.26878E+03 -2.67640E+02  1.53062E+03
 -1.55768E+02  8.39029E+02 -5.12989E+02 -2.79931E+02  2.21691E+02 -1.31028E+02 -6.12952E+02  1.68532E+02
 -1.07912E+03  1.34087E+03 -2.29221E+03  7.35197E+02 -1.62914E+03  1.10150E+03 -3.03185E+03 -1.20720E+03
 -8.05596E+02 -3.37213E+03  1.55748E+03 -3.35690E+03  1.52529E+03 -2.43261E+03  4.15667E+03 -8.21490E+02
  2.78891E+03 -2.40198E+02  2.14487E+03  2.46667E+03 -8.60360E+02  2.39227E+03 -2.29873E+02  1.83942E+03
 -1.10481E+03  1.72039E+03 -5.45939E+02 -2.65398E+01  3.48104E+02  7.59919E+01  1.71333E+02  3.36125E+02
 -1.69676E+03  4.68562E+02 -1.50342E+03  5.42309E+01 -1.43578E+02  5.56025E+01  9.06584E+01 -1.81102E+03
  1.87578E+03 -2.49850E+02  1.55323E+03 -7.43996E+02  1.63682E+03  1.89837E+03  3.73077E+02  2.62649E+03
 -7.41994E+02  3.27393E+03 -3.04109E+03  2.08078E+03 -1.55240E+03 -6.48344E+02 -1.99874E+03 -1.57448E+03
 -1.34700E+03 -2.05744E+03 -3.40259E+02 -1.77303E+03  1.09807E+03 -7.13841E+02  1.25039E+03 -1.29251E+02
  5.41250E+02 -4.11367E+01  2.69661E+02  9.92461E+02 -1.96812E+02  2.61556E+02  1.29877E+03  2.92090E+02
 -1.83758E+02 -5.41917E+02  5.07417E+02  9.49296E+02 -3.98709E+02  4.65016E+02 -2.12718E+02  7.98266E+02
 -1.01966E+03  8.61867E+02 -1.46656E+03  3.54793E+02 -1.30600E+03  4.44621E+02 -3.36690E+02 -4.45900E+02
 -7.18915E+02 -1.09750E+03  5.98447E+02  4.49804E+02  1.12895E+03 -1.50890E+03  8.10158E+02  5.50131E+02
 -4.24688E+02  1.37281E+03 -5.94635E+02  1.03878E+03 -1.78449E+03  1.45994E+03 -1.38374E+03 -1.51144E+02
  1.38896E+02  6.66221E+02 -1.74351E+03  2.26984E+02 -1.00632E+03  1.85491E+03 -5.59072E+01  6.47794E+02
 -1.37307E+03 -4.25757E+02  1.13621E+02 -3.31009E+02  8.36180E+02 -2.04029E+03  1.30718E+03  3.51160E+02
  1.08347E+03 -9.67067E+02 -8.77880E+02  4.41359E+02 -6.25355E+02  7.32997E+02 -1.22549E+03  1.33336E+03
