 $NMID ID='MM_0lb_SNR200_13hz_g45_70.RAW', FMTDAT='(8E13.5)'
 TRAMP=1., VOLUME=1. $END
  3.08244E+05  6.36282E+02  3.36601E+05  2.50658E+05  8.48236E+04  3.37817E+05 -1.31424E+05  2.50518E+05
 -1.90696E+05  8.37501E+04 -1.12015E+05 -3.24669E+04  4.56823E+02 -5.00137E+04  5.38076E+04  1.40648E+02
  3.54883E+04  5.31857E+04 -1.73279E+04  7.56028E+04 -6.02197E+04  6.20909E+04 -8.35452E+04  3.24043E+04
 -8.17373E+04 -1.14081E+04 -5.76188E+04 -5.09527E+04 -1.55474E+04 -7.00008E+04  2.63443E+04 -4.58894E+04
  4.05765E+04  2.83919E+03  1.42425E+04  4.73508E+04 -3.35942E+04  4.79728E+04 -6.79767E+04 -1.18181E+03
 -5.34847E+04 -5.77230E+04 -6.77141E+03 -7.76554E+04  3.45882E+04 -5.46075E+04  4.85510E+04 -1.77274E+04
  4.35534E+04  1.21218E+04  3.15428E+04  2.51117E+04  1.60250E+04  2.87527E+04 -4.88822E+03  2.80330E+04
 -2.05785E+04  1.23276E+04 -1.89051E+04 -5.69730E+03  5.32175E+03 -7.74469E+03  2.18310E+04  1.20673E+04
  7.39969E+03  3.55242E+04 -3.23669E+04  3.54988E+04 -6.26397E+04  1.52453E+03 -5.70505E+04 -4.36060E+04
 -1.26271E+04 -6.34255E+04  3.90574E+04 -4.64639E+04  5.94419E+04 -2.30836E+03  3.46617E+04  3.26271E+04
 -5.60120E+03  3.65154E+04 -3.01531E+04  1.66962E+04 -2.92328E+04 -4.80151E+03 -1.59532E+04 -1.26361E+04
 -8.60431E+03 -1.30237E+04 -1.98850E+03 -1.75488E+04  7.74565E+03 -2.14482E+04  1.57559E+04 -1.33181E+04
  1.14364E+04  4.76816E+03 -8.67916E+03  1.27359E+04 -2.13854E+04 -4.08238E+03 -9.20989E+03 -3.40206E+04
  2.28880E+04 -4.34060E+04  4.92875E+04 -1.95992E+04  4.46194E+04  1.98798E+04  1.55477E+04  4.43649E+04
 -1.71295E+04  3.38931E+04 -2.59859E+04  2.71757E+03 -9.74316E+03 -2.86605E+04  2.20824E+04 -3.41737E+04
  4.22281E+04 -1.04699E+04  3.61562E+04  2.35381E+04  1.78472E+04  4.64284E+04 -7.85347E+03  5.11497E+04
 -3.20624E+04  3.25175E+04 -4.21028E+04  8.51059E+03 -4.31509E+04 -1.72004E+04 -2.42586E+04 -3.84484E+04
  7.91552E+03 -3.81215E+04  3.16912E+04 -1.43793E+04  2.91336E+04  1.15799E+04  4.03598E+03  1.92738E+04
 -1.41977E+04  8.89952E+03 -9.88115E+03 -6.87573E+03  5.52238E+03 -1.10385E+04  1.71773E+04  6.97229E+03
  1.31425E+04  2.13216E+04 -5.08550E+03  2.59791E+04 -2.17239E+04  1.24407E+04 -2.83192E+04 -3.33773E+03
 -2.24192E+04 -1.81697E+04 -7.69012E+03 -2.06602E+04  5.30569E+03 -2.08989E+04  1.76866E+04 -1.94998E+04
  2.58053E+04 -1.18676E+04  3.42318E+04  3.82394E+03  2.36891E+04  2.19306E+04  4.83262E+03  3.67387E+04
 -1.90247E+04  3.22420E+04 -2.89915E+04  1.19828E+04 -2.11577E+04 -9.52298E+03 -5.40368E+03 -1.36033E+04
  2.47812E+03 -3.66300E+03 -5.60787E+03  5.99079E+03 -1.72354E+04  3.96494E+03 -1.62206E+04 -8.44549E+03
 -1.13117E+04 -1.96808E+04  6.26819E+03 -2.32757E+04  1.57547E+04 -1.74520E+04  1.81032E+04 -2.63507E+03
  1.11061E+04  1.34180E+04 -9.20159E+02  1.97349E+04 -1.33811E+04  1.09740E+04 -1.87793E+04 -4.18195E+03
 -1.38593E+04 -1.68873E+04 -2.53411E+03 -2.37249E+04  1.06073E+04 -1.81977E+04  1.99566E+04 -9.30026E+03
  1.83259E+04  1.04404E+02  1.28622E+04  5.26144E+03  6.90168E+03  2.00504E+03  1.09350E+04 -1.09869E+03
  1.77690E+04  3.12050E+03  1.92635E+04  1.50359E+04  1.26392E+04  3.05081E+04 -3.03249E+03  3.45458E+04
 -2.03676E+04  2.74875E+04 -3.25840E+04  1.28958E+04 -3.45578E+04 -2.21131E+03 -2.93387E+04 -2.07678E+04
 -1.15903E+04 -2.76165E+04  9.23319E+03 -2.53406E+04  2.14545E+04 -1.28783E+04  1.95576E+04  6.15726E+03
  7.90891E+03  1.58145E+04 -9.92385E+03  1.32839E+04 -1.77042E+04  1.58802E+03 -1.33340E+04 -1.08241E+04
 -3.40846E+02 -1.75950E+04  8.62048E+03 -1.21008E+04  1.00229E+04 -3.00372E+03  2.27992E+03  6.52818E+03
 -6.74674E+03  3.56476E+03 -5.36457E+03 -5.26156E+03 -9.40943E+02 -1.52901E+04  9.05087E+03 -1.57111E+04
  1.76952E+04 -6.73843E+03  1.85432E+04  3.12866E+03  1.57799E+04  1.47429E+04  6.03021E+03  2.21051E+04
 -3.16591E+03  2.31260E+04 -1.49180E+04  1.40628E+04 -1.70734E+04  2.15528E+03 -1.19394E+04 -3.32827E+03
 -4.18477E+03 -5.87829E+03 -1.43018E+03  9.75298E+02 -2.48834E+03  3.25191E+03 -6.31453E+03  5.55604E+03
 -1.09171E+04 -1.53033E+03 -1.11913E+04 -9.19857E+03 -5.09217E+03 -1.61297E+04  4.74543E+03 -1.15918E+04
  9.57548E+03 -4.92161E+03  6.73485E+03  3.49100E+03  9.96858E+02  4.31684E+03 -5.05019E+03 -1.60575E+02
 -5.55969E+03 -8.27870E+03 -1.37246E+03 -9.30207E+03  5.98210E+03 -1.29989E+04  1.49835E+04 -5.68373E+03
  1.73011E+04  1.22390E+03  1.29196E+04  9.93061E+03  4.50246E+03  1.25318E+04 -6.81165E+03  1.20258E+04
 -9.14242E+03  2.87027E+03 -5.20645E+03 -1.50297E+03  2.21337E+03 -4.43001E+03  6.56629E+03 -6.80132E+02
  5.29330E+03  5.04348E+03 -2.28163E+02  8.22646E+03 -4.64413E+03  8.34434E+03 -1.06868E+04  1.81990E+03
 -7.04435E+03 -5.33765E+03 -6.41484E+02 -9.35896E+03  5.72307E+03 -5.79774E+03  5.69940E+03  1.77856E+03
  4.73511E+02  6.99405E+03 -5.76962E+03  8.00835E+03 -9.22826E+03  5.21394E+03 -9.50461E+03 -3.89562E+03
 -6.20203E+03 -1.06398E+04  2.77447E+03 -1.18815E+04  9.73866E+03 -8.09944E+03  1.15875E+04  1.66107E+03
  7.60017E+03  9.16534E+03 -1.31851E+03  1.00431E+04 -8.13660E+03  6.43409E+03 -8.77521E+03 -1.50497E+03
 -8.97089E+03 -6.95067E+03 -9.91359E+02 -8.23370E+03  5.32268E+03 -6.55643E+03  5.01172E+03 -2.85979E+03
  3.67620E+03 -5.57175E+01 -4.73662E+02  1.13300E+03 -2.04023E+02 -3.17911E+03  1.48903E+03 -3.96818E+03
  6.51649E+03 -2.61964E+03  9.73144E+03  3.22783E+02  9.65138E+03  6.92064E+03  7.10455E+03  1.41106E+04
 -1.93908E+03  1.52069E+04 -1.35005E+04  1.21059E+04 -1.71562E+04  2.82647E+03 -1.31330E+04 -4.82385E+03
 -6.82872E+03 -1.11568E+04  4.17840E+02 -8.98758E+03  3.44750E+03 -4.42203E+03  3.22218E+03 -3.49619E+03
  3.45207E+03 -1.76876E+03  3.29636E+03 -2.70519E+03  3.71095E+03 -1.37994E+03  4.34345E+03 -6.58068E+02
  6.80131E+03  2.07061E+03  3.52427E+03  6.20994E+03  9.83481E+02  7.21694E+03 -7.86666E+03  4.33102E+03
 -8.84201E+03 -1.60340E+03 -4.96297E+03 -7.06951E+03 -1.88544E+03 -1.01373E+04  5.20642E+03 -9.79252E+03
  1.04938E+04 -5.55623E+03  1.23487E+04  1.27414E+03  9.75500E+03  8.67429E+03  2.11390E+03  1.16622E+04
 -4.53625E+03  9.38628E+03 -7.16794E+03  4.02410E+03 -3.54901E+03 -1.21796E+03 -3.18521E+02 -1.19660E+03
 -1.11188E+03 -9.31205E+02 -2.51899E+03  1.07958E+03 -4.80191E+03  1.71776E+03 -6.64805E+03 -5.43675E+02
 -3.12223E+03 -6.07543E+03  4.57503E+02 -9.58316E+03  5.87797E+03 -8.04944E+03  9.07435E+03 -2.84333E+03
  7.58736E+03  5.48875E+03  3.33603E+03  8.44689E+03 -1.92198E+03  7.84788E+03 -5.01741E+03  5.76615E+03
 -8.18253E+03  6.68946E+02 -5.84788E+03 -5.13916E+03 -4.36504E+02 -7.77459E+03  3.63404E+03 -4.98084E+03
  6.11585E+03 -1.59651E+03  3.54910E+03  1.02531E+02  2.36037E+03  2.48121E+03  8.70545E+02  7.69428E+02
  3.31941E+03  6.75905E+02  1.93590E+03  1.03719E+03  2.34930E+03  4.36496E+03  2.51053E+03  4.56699E+03
 -1.99065E+03  6.38008E+03 -5.49472E+03  8.23151E+03 -8.02528E+03  1.76350E+03 -9.84696E+03 -3.62448E+03
 -3.99849E+03 -7.12783E+03  1.18620E+03 -1.08154E+04  3.73066E+03 -4.20791E+03  6.31154E+03 -1.50931E+03
  5.84544E+03  3.61130E+03  4.55416E+02  4.73652E+03 -1.05823E+03  3.88895E+03 -3.43315E+03 -9.43645E+02
 -9.69057E+02 -2.66469E+03  2.14040E+03 -3.93420E+03  3.38991E+03 -2.63363E+03  3.31914E+03  1.29868E+03
  1.74183E+03  1.48259E+03  6.03725E+02  4.79713E+02 -2.22402E+03  1.51026E+03  1.80431E+03  4.69270E+02
  1.64274E+03 -5.57597E+02  2.56906E+03  2.40880E+03  5.97851E+02  4.53271E+03  4.80423E+02  6.36230E+03
 -4.89972E+03  3.11779E+03 -5.28133E+03  8.97060E+02 -4.67576E+03 -2.91445E+03 -1.43926E+03 -2.98101E+03
  4.64364E+02 -2.64292E+03  1.53749E+03 -1.87118E+03  2.60853E+03  4.90348E+02 -1.27896E+03  2.07015E+03
 -2.39714E+03  3.28071E+03 -5.32591E+03 -1.13506E+03 -1.24627E+03 -4.36251E+03  5.97928E+02 -4.27482E+03
  2.18771E+03 -1.72862E+03  2.24138E+03  1.65961E+03  2.75398E+03  9.03637E+02 -8.17365E+01  2.24069E+03
 -1.63243E+03  9.19765E+02 -1.37071E+03 -1.65903E+03  1.46801E+03 -1.29470E+03  3.63851E+03 -2.80427E+03
  4.13886E+03 -1.38242E+02  5.61574E+03  2.31385E+03  1.30269E+03  5.52923E+03 -1.90078E+03  5.36344E+03
 -3.49995E+03  1.64485E+03 -3.95954E+03 -4.63163E+02 -3.40970E+03 -4.01141E+03  1.47410E+03 -3.67639E+03
  3.09719E+03 -1.52145E+03  2.62374E+03  2.68555E+03  1.01842E+03  1.85805E+03 -1.39985E+03  2.92373E+03
 -1.35066E+03  2.48017E+03 -1.18491E+03  1.48933E+03  2.97121E+02 -3.18892E+02 -7.86939E+02  1.12258E+03
 -1.27749E+03  1.54255E+03 -3.64816E+03  1.57680E+03 -2.91461E+03 -4.27851E+02 -5.31278E+03 -2.90518E+03
 -2.42122E+03 -6.37112E+03  3.75561E+02 -8.23682E+03  4.54726E+03 -5.29614E+03  7.67756E+03 -2.22767E+03
  6.43295E+03  4.51962E+02  3.99558E+03  4.83652E+03 -1.46701E+02  4.48843E+03 -1.08296E+03  4.18940E+03
 -2.83215E+03  2.06725E+03 -1.84108E+03 -1.49197E+03  5.60424E+02 -2.42515E+02 -1.23561E+03  8.60552E+01
 -7.04989E+02 -2.63520E+02 -6.68768E+02 -7.68203E+02 -5.09953E+02 -3.15165E+02  4.52729E+02 -2.24082E+03
  1.29266E+03 -9.14727E+02  3.16245E+03 -5.00762E+02  2.69110E+03  2.83682E+03 -4.03793E+02  4.52573E+03
 -2.78064E+03  4.57318E+03 -4.86178E+03  2.73388E+03 -6.12810E+03 -1.20596E+03 -4.44652E+03 -2.31489E+03
 -2.15588E+03 -4.42690E+03  7.56315E+02 -3.12549E+03  2.10315E+03 -2.83625E+03  2.53438E+03  7.98730E+02
  2.91286E+03  9.39180E+01  8.94436E+02  5.49640E+02  6.41061E+01 -9.44681E+01 -2.72010E+02 -1.21759E+03
  6.75013E+02 -1.35414E+03  1.10988E+03  3.69282E+02  9.95662E+02  1.05208E+03  5.74779E+02  2.69673E+03
 -2.68835E+03  2.34403E+03 -3.59433E+03 -2.36379E+02 -3.50741E+03 -4.22485E+03  1.54227E+02 -3.37512E+03
  2.42043E+03 -3.50205E+03  3.55193E+03 -1.55671E+03  2.67674E+03  1.19528E+03  3.44083E+03  3.32586E+03
  8.33563E+02  2.93567E+03 -2.71349E+01  2.72837E+03 -1.92312E+03  1.63152E+03 -1.50641E+03  1.12629E+03
 -4.52786E+02 -1.08921E+03 -1.01925E+03 -8.94100E+02 -1.50697E+03 -1.59401E+03 -3.00196E+03 -4.96300E+02
 -3.16309E+03 -9.71412E+02 -5.15660E+02 -2.98307E+03  8.11586E+02 -4.30139E+03  2.46624E+03 -5.52692E+02
  3.79089E+03 -3.44731E+02  1.29495E+03 -2.39115E+01 -1.09353E+03  3.46187E+03 -1.34825E+03  5.22669E+02
