 $NMID ID='MM_0lb_SNR200_19hz_g60_20.RAW', FMTDAT='(8E13.5)'
 TRAMP=1., VOLUME=1. $END
  3.09841E+05 -6.02337E+02  3.38009E+05  2.50872E+05  8.42132E+04  3.37784E+05 -1.32399E+05  2.50252E+05
 -1.90101E+05  8.24989E+04 -1.11340E+05 -3.22383E+04  1.98251E+03 -4.92054E+04  5.42052E+04 -3.97785E+02
  3.46395E+04  5.25163E+04 -1.66671E+04  7.42785E+04 -6.07023E+04  6.24447E+04 -8.51120E+04  3.14850E+04
 -7.94251E+04 -1.15758E+04 -5.71520E+04 -5.13731E+04 -1.49735E+04 -6.83321E+04  2.73854E+04 -4.49516E+04
  4.04481E+04  3.85128E+03  1.59084E+04  4.68832E+04 -3.52615E+04  4.57063E+04 -6.69940E+04  3.06670E+02
 -5.39604E+04 -5.51206E+04 -6.82500E+03 -7.68342E+04  3.32123E+04 -5.39667E+04  4.63050E+04 -1.71702E+04
  4.29314E+04  1.16978E+04  3.05174E+04  2.54496E+04  1.56518E+04  2.89540E+04 -4.56393E+03  2.67609E+04
 -2.34461E+04  1.29036E+04 -1.87873E+04 -5.23932E+03  4.17643E+03 -7.33211E+03  2.19665E+04  1.14115E+04
  7.79204E+03  3.54154E+04 -3.15255E+04  3.52676E+04 -6.19645E+04  1.98162E+03 -5.63607E+04 -4.13592E+04
 -1.24263E+04 -6.14719E+04  3.80176E+04 -4.45011E+04  5.71044E+04 -2.23755E+03  3.24994E+04  3.08513E+04
 -6.56388E+03  3.44239E+04 -2.90804E+04  1.58175E+04 -2.87146E+04 -5.20789E+03 -1.54095E+04 -9.99686E+03
 -7.73962E+03 -1.24719E+04 -4.48281E+02 -1.63113E+04  8.18476E+03 -2.32383E+04  1.44708E+04 -1.35413E+04
  1.26419E+04  4.61873E+03 -6.60247E+03  1.34426E+04 -2.01633E+04 -3.68000E+03 -7.96956E+03 -3.32267E+04
  2.09990E+04 -4.13129E+04  4.61854E+04 -1.90091E+04  4.28599E+04  1.87300E+04  1.53496E+04  4.33702E+04
 -1.62973E+04  3.14049E+04 -2.39389E+04  1.87771E+03 -8.99997E+03 -2.72495E+04  1.93506E+04 -3.22673E+04
  3.94755E+04 -7.69440E+03  3.36571E+04  2.36914E+04  1.52489E+04  4.36890E+04 -7.56094E+03  4.75752E+04
 -3.03645E+04  3.07121E+04 -3.88960E+04  9.63800E+03 -3.89246E+04 -1.53598E+04 -2.22671E+04 -3.46989E+04
  6.65969E+03 -3.53506E+04  2.88628E+04 -1.28780E+04  2.80088E+04  1.04887E+04  2.63680E+03  1.88903E+04
 -1.27361E+04  8.35870E+03 -9.73692E+03 -7.42545E+03  6.25119E+03 -1.15159E+04  1.81233E+04  6.46263E+03
  1.22031E+04  2.17289E+04 -6.75138E+03  2.43120E+04 -2.13943E+04  1.00641E+04 -2.65741E+04 -6.41259E+03
 -1.81203E+04 -1.72253E+04 -6.79701E+03 -1.71918E+04  3.04990E+03 -1.56978E+04  1.20416E+04 -1.64847E+04
  2.31385E+04 -1.22139E+04  3.01936E+04  1.85201E+03  2.35374E+04  1.86103E+04  3.38315E+03  3.36114E+04
 -1.68785E+04  2.81236E+04 -2.65281E+04  9.80024E+03 -1.95618E+04 -1.11700E+04 -4.20415E+03 -1.32855E+04
  1.69416E+03 -4.81791E+03 -2.60795E+03  5.40840E+03 -1.34956E+04  5.36726E+03 -1.44400E+04 -5.27855E+03
 -8.37606E+03 -1.58996E+04  4.26764E+03 -2.13372E+04  1.30985E+04 -1.44678E+04  1.58651E+04 -7.75861E+02
  9.26178E+03  1.13769E+04 -1.88999E+03  1.65349E+04 -1.10413E+04  9.56750E+03 -1.76281E+04 -3.63470E+03
 -1.24832E+04 -1.45132E+04 -1.73800E+03 -2.00301E+04  8.59249E+03 -1.62938E+04  1.77980E+04 -7.89840E+03
  1.47983E+04  8.82767E+02  1.19560E+04  3.70726E+03  6.21360E+03  1.26306E+02  8.05221E+03 -1.27676E+03
  1.45824E+04  3.25337E+03  1.42960E+04  1.43804E+04  9.57468E+03  2.60668E+04 -3.47225E+03  2.85549E+04
 -1.68575E+04  2.13148E+04 -2.75587E+04  1.11362E+04 -2.75353E+04 -2.97572E+03 -2.33832E+04 -1.49613E+04
 -1.10058E+04 -2.15459E+04  8.06275E+03 -1.99582E+04  1.72465E+04 -1.12694E+04  1.75281E+04  3.92018E+03
  5.75404E+03  1.09790E+04 -7.63205E+03  1.00948E+04 -1.51493E+04  2.97794E+03 -1.02709E+04 -7.27763E+03
 -1.03687E+03 -1.24732E+04  6.70523E+03 -9.16010E+03  7.74515E+03 -7.43013E+02  1.23777E+03  5.51018E+03
 -5.14746E+03  1.35476E+03 -4.56041E+03 -4.62891E+03  1.59330E+02 -1.07689E+04  8.09465E+03 -1.05660E+04
  1.25974E+04 -5.43366E+03  1.40597E+04  3.13235E+03  1.01725E+04  1.02669E+04  5.17962E+03  1.60971E+04
 -1.66122E+03  1.60004E+04 -1.18940E+04  9.85311E+03 -1.13926E+04  3.75044E+03 -8.94120E+03 -1.44684E+03
 -4.50377E+03 -3.78851E+03 -1.92902E+03  1.99740E+03 -2.13856E+03  1.18766E+03 -4.29832E+03  3.75513E+03
 -8.09115E+03 -4.17724E+02 -9.80746E+03 -7.50761E+03 -3.60433E+03 -1.17020E+04  4.13294E+03 -9.84902E+03
  8.45222E+03 -4.53121E+03  5.39349E+03  2.16381E+03 -4.98027E+02  2.69679E+03 -3.10673E+03 -4.92729E+01
 -2.81031E+03 -4.60889E+03 -5.57928E+02 -9.02671E+03  4.15075E+03 -9.04066E+03  1.04500E+04 -4.09512E+03
  1.22670E+04  9.47488E+02  1.01512E+04  6.64884E+03  2.74110E+03  1.04644E+04 -6.09069E+03  8.62715E+03
 -6.71371E+03  3.31898E+03 -4.21977E+03 -1.31280E+03  2.46102E+03 -1.61441E+03  4.76098E+03 -3.62657E+02
  3.84514E+03  3.37458E+03  1.34154E+03  6.84147E+03 -3.89771E+03  5.92328E+03 -7.29656E+03  1.75134E+03
 -4.22606E+03 -3.11715E+03  6.81267E+02 -7.29434E+03  5.08780E+03 -4.40315E+03  4.46627E+03  6.95227E+02
  6.73215E+02  3.77993E+03 -5.13894E+03  5.21426E+03 -5.55088E+03  2.02221E+03 -4.57410E+03 -2.56918E+03
 -3.66007E+03 -6.28880E+03  1.74059E+03 -7.39164E+03  7.04245E+03 -3.32668E+03  8.10161E+03  1.10338E+02
  4.45945E+03  4.40682E+03  9.16446E+02  7.39224E+03 -5.01513E+03  3.52712E+03 -5.81787E+03  7.65578E+02
 -5.70397E+03 -5.49517E+03 -8.68067E+02 -4.22565E+03  2.87274E+03 -5.49289E+03  3.06592E+03 -2.36932E+03
  3.22309E+03 -1.51911E+02 -1.20703E+02  8.72970E+02  2.77667E+02  1.07913E+01 -4.38683E+02 -1.86716E+03
  2.87711E+03 -9.82145E+02  5.87398E+03  4.61953E+02  4.82678E+03  1.90379E+03  5.32310E+03  7.67803E+03
 -1.03563E+03  8.40039E+03 -8.53604E+03  6.11351E+03 -1.11808E+04 -9.61458E+01 -8.12233E+03 -3.13025E+03
 -4.88312E+03 -6.56732E+03 -6.89740E+02 -3.98436E+03  1.72030E+03 -2.06832E+03  2.36508E+03 -1.66678E+03
  1.23461E+03 -1.28981E+03  1.49243E+03 -2.22306E+03  4.13269E+03 -9.74976E+02  3.64529E+03  4.76673E+02
  4.36329E+03  1.16544E+03  1.00269E+03  3.29142E+03 -1.74381E+03  2.14473E+03 -5.41167E+03  2.44329E+03
 -4.93160E+03 -8.20209E+02 -2.48629E+03 -3.25449E+03  3.77603E+02 -3.87128E+03  3.50687E+03 -4.74536E+03
  5.76491E+03 -2.19094E+03  7.58113E+03  5.68329E+02  5.10247E+03  4.94072E+03  1.34825E+03  5.26663E+03
 -2.69842E+03  5.93356E+03 -3.00839E+03  2.68641E+03 -2.22512E+03 -1.23345E+03 -1.41889E+02 -5.28919E+01
 -2.11383E+02 -2.98841E+02 -1.08572E+03  1.55168E+03 -1.96465E+03  2.44294E+03 -4.42789E+03 -3.79474E+02
 -2.31198E+03 -3.85686E+03  3.08451E+02 -4.23441E+03  2.82455E+03 -5.30401E+03  3.72006E+03 -9.20811E+02
  4.58556E+03  2.44324E+03  1.47710E+03  2.90222E+03 -1.27797E+03  4.14141E+03 -3.37714E+03  2.50651E+03
 -4.18750E+03 -4.82742E+02 -3.99173E+03 -1.99329E+03 -4.11173E+02 -3.51677E+03  2.22037E+03 -2.56123E+03
  2.10312E+03 -1.53717E+03  9.98863E+02 -5.75179E+01  8.64191E+02  1.88477E+03  5.12284E+02 -2.42788E+01
  2.29772E+03 -3.16024E+02  2.19770E+03  1.24085E+03  1.82826E+03  2.59682E+03  1.05811E+03  2.38636E+03
 -7.99234E+02  2.88088E+03 -2.01912E+03  3.76493E+03 -1.63816E+03  1.51945E+03 -3.63614E+03  3.96737E+02
 -1.85808E+03 -3.58286E+03  1.11797E+02 -4.55097E+03  2.82116E+02 -2.81520E+03  2.91972E+03 -1.10052E+03
  2.77211E+03  1.47076E+03  3.21583E+02  2.02498E+03 -2.07660E+03  1.19185E+03 -1.90743E+03  4.33560E+02
 -1.32724E+02 -6.02171E+02  1.37154E+03 -1.87974E+03  1.51768E+03 -1.67476E+03  9.51136E+02  5.73081E+02
  8.24269E+02 -5.26855E+02  9.95990E+02  3.18588E+02  3.20308E+02  1.05348E+02  1.28280E+03 -3.03364E+02
  1.22694E+03 -1.14961E+03  1.11887E+03  1.05544E+03  9.63818E+02  3.32789E+03 -2.33291E+02  2.99866E+03
 -1.99287E+03  1.46390E+03 -1.76402E+03  2.90897E+02 -1.42721E+03 -5.48788E+02  5.55308E+02 -2.20106E+03
  3.81331E+02 -1.25177E+03  1.28711E+03 -7.44709E+02  8.89759E+02  1.02425E+03 -1.03715E+03  1.51190E+03
 -1.47502E+03  2.38944E+02 -9.30372E+02 -2.21396E+03 -1.26204E+03 -2.05193E+03  2.02151E+02 -1.67532E+03
  8.95169E+02 -3.95012E+02  3.38724E+02 -2.51212E+01  1.29836E+03  1.16119E+03  6.60921E+02  1.21691E+03
  5.47345E+02  1.33121E+02 -1.01563E+03 -2.12413E+02 -5.62891E+01 -3.17627E+02  9.27562E+02 -1.50725E+03
  2.88700E+03 -8.30837E+02  3.90731E+03  4.98604E+02  1.35216E+03  1.65216E+03  2.30286E+02 -7.02195E+01
 -2.28856E+03  1.25745E+03 -1.80398E+03 -7.57897E+01  4.88280E+02 -2.20583E+03  1.58936E+03  5.24962E+01
  8.51203E+02 -8.04836E+02 -5.68703E+01  2.79896E+02 -3.35557E+02  1.65959E+03  6.21699E+02  9.09365E+02
 -1.32362E+02  7.70664E+02 -1.31064E+03  8.91996E+02 -4.09920E+02  2.31343E+02 -1.63644E+03  1.04663E+03
 -6.14648E+02 -8.39877E+01  5.59351E-01 -1.03666E+02 -2.21703E+03  5.11551E+02 -2.40244E+03 -7.95283E+02
 -9.93756E+02 -2.33056E+03  6.15482E+02 -1.84558E+03  4.76029E+02 -2.64421E+03  2.98462E+03 -6.47867E+02
  2.35151E+03 -4.48054E+02  7.63689E+02  1.27369E+03  2.27894E+02  1.51122E+03 -2.27981E+03  1.01655E+03
 -1.59909E+03  5.71752E+02  2.00927E+02  3.74717E+02 -7.03157E+02  6.80392E+02  2.31284E+02 -1.35015E+02
 -6.26008E+02 -9.92913E+02 -2.97548E+02  2.97968E+02  4.41154E+02 -7.09598E+02 -6.62070E+02 -2.58811E+03
  1.12323E+03 -4.90356E+02  1.08050E+03  6.29547E+02  1.03658E+03  7.92602E+02  5.73391E+02  1.18994E+02
  7.20541E+02  1.58170E+03 -1.54562E+03  1.32420E+03 -2.94547E+03 -7.67566E+02 -1.05902E+03  6.83187E+02
 -8.72487E+02 -1.40992E+03 -3.14706E+01  7.84625E+02  3.65098E+01  5.09603E+00  4.88550E+02  1.07946E+03
  1.23717E+03  4.04228E+02  8.13719E+01 -8.23474E+00 -6.37250E+02 -5.07049E+01 -8.06880E+01 -5.38182E+02
  7.07231E+02  5.35217E+02 -2.84223E+02  1.00036E+03  1.35706E+02 -4.00654E+02  1.60726E+02  2.20494E+02
 -2.92666E+02  1.21068E+03 -3.73446E+02  1.14563E+03 -1.51167E+03 -8.82991E+02 -3.24873E+01 -1.39430E+03
  1.56301E+03  6.51100E+01 -9.86212E+01  1.88256E+02  9.28537E+02 -3.99955E+02  1.23974E+03  1.37947E+03
  8.95304E+02  5.42888E+02  2.22348E+02  1.71286E+03 -1.15755E+03  4.51306E+02 -3.29640E+02  3.73716E+02
  7.87589E+02  1.02905E+03 -1.01084E+03  9.85130E+02 -5.90461E+02  5.42505E+01 -9.72550E+02 -3.31330E+02
 -1.51278E+03  1.91115E+02 -4.83211E+02 -1.49884E+03  1.64320E+02 -1.05447E+03  5.39495E+02  4.21791E+02
  3.89188E+02 -7.75133E+01 -3.37400E+02  5.92807E+01 -4.19458E+02  7.92611E+02 -7.09232E+02 -5.15115E+02
