 $NMID ID='MM_0lb_SNR200_11hz_g40_80.RAW', FMTDAT='(8E13.5)'
 TRAMP=1., VOLUME=1. $END
  3.10521E+05 -4.70208E+02  3.38292E+05  2.51155E+05  8.45781E+04  3.38139E+05 -1.33252E+05  2.51288E+05
 -1.89372E+05  8.37187E+04 -1.12679E+05 -3.06131E+04 -1.25256E+02 -4.99585E+04  5.40081E+04 -1.01589E+03
  3.55752E+04  5.30691E+04 -1.75206E+04  7.58906E+04 -6.12083E+04  6.28807E+04 -8.39098E+04  3.17881E+04
 -8.14700E+04 -1.26450E+04 -5.78758E+04 -5.16783E+04 -1.44348E+04 -6.94023E+04  2.75465E+04 -4.57988E+04
  4.25304E+04  4.24483E+03  1.59936E+04  4.86189E+04 -3.50751E+04  4.64790E+04 -6.69512E+04  6.60568E+02
 -5.25558E+04 -5.74752E+04 -7.92981E+03 -7.79432E+04  3.34882E+04 -5.35171E+04  4.74275E+04 -1.68247E+04
  4.33878E+04  1.02553E+04  3.21085E+04  2.63972E+04  1.68094E+04  3.05656E+04 -5.34601E+03  2.71534E+04
 -2.29116E+04  1.16801E+04 -1.92704E+04 -6.26112E+03  5.90217E+03 -7.67969E+03  2.30139E+04  1.36991E+04
  6.88899E+03  3.66196E+04 -3.28795E+04  3.41969E+04 -6.35944E+04  1.82333E+03 -5.92536E+04 -4.38320E+04
 -1.25950E+04 -6.38191E+04  3.95400E+04 -4.57533E+04  6.00137E+04 -3.31330E+03  3.46620E+04  3.32679E+04
 -6.55232E+03  3.78060E+04 -3.09977E+04  1.58768E+04 -3.17242E+04 -4.45204E+03 -1.80386E+04 -1.21381E+04
 -1.06280E+04 -1.34204E+04 -1.13195E+03 -1.89226E+04  8.43808E+03 -2.41813E+04  1.56622E+04 -1.29254E+04
  1.18520E+04  6.66759E+03 -8.45426E+03  1.37162E+04 -2.23489E+04 -5.17571E+03 -8.62931E+03 -3.52262E+04
  2.31186E+04 -4.40210E+04  5.00797E+04 -1.98181E+04  4.69063E+04  2.01685E+04  1.57357E+04  4.58477E+04
 -1.54603E+04  3.47915E+04 -2.62936E+04  2.39447E+03 -1.19899E+04 -3.14690E+04  2.09825E+04 -3.37160E+04
  4.30651E+04 -1.10528E+04  3.72578E+04  2.39591E+04  1.86743E+04  4.97129E+04 -7.80161E+03  5.37358E+04
 -3.30986E+04  3.60130E+04 -4.42314E+04  9.41618E+03 -4.39263E+04 -1.85126E+04 -2.42943E+04 -3.98924E+04
  7.03929E+03 -3.84247E+04  3.26668E+04 -1.65875E+04  3.10717E+04  1.16687E+04  4.73766E+03  1.92315E+04
 -1.36949E+04  9.83180E+03 -1.04191E+04 -6.67408E+03  4.70327E+03 -1.25876E+04  1.74763E+04  7.56686E+03
  1.40270E+04  2.24775E+04 -5.52957E+03  2.61920E+04 -2.31065E+04  1.24475E+04 -3.01740E+04 -4.89413E+03
 -2.24138E+04 -1.82935E+04 -9.67808E+03 -2.14254E+04  4.19561E+03 -2.09645E+04  1.74577E+04 -2.10013E+04
  2.88524E+04 -1.33661E+04  3.42568E+04  2.29033E+03  2.47035E+04  2.23812E+04  4.64380E+03  3.97689E+04
 -1.84123E+04  3.22523E+04 -2.82658E+04  1.19809E+04 -1.99170E+04 -9.31485E+03 -4.17683E+03 -1.24096E+04
  1.68801E+03 -1.82291E+03 -7.14981E+03  6.96626E+03 -1.79549E+04  4.99345E+03 -1.74806E+04 -7.62407E+03
 -1.15615E+04 -1.96485E+04  5.74393E+03 -2.42172E+04  1.66229E+04 -1.83836E+04  2.03968E+04 -1.82648E+03
  1.26981E+04  1.32450E+04  1.51817E+02  2.15593E+04 -1.60956E+04  1.18352E+04 -2.08896E+04 -4.78778E+03
 -1.49280E+04 -1.89867E+04 -2.08544E+03 -2.43135E+04  1.17083E+04 -2.06355E+04  2.15560E+04 -1.06708E+04
  2.03773E+04  3.18692E+02  1.41641E+04  5.81517E+03  7.97271E+03 -3.08895E+02  1.08509E+04 -1.91627E+03
  1.85871E+04  2.62178E+03  2.14471E+04  1.67215E+04  1.49828E+04  3.30280E+04 -3.25146E+03  3.68566E+04
 -2.30064E+04  3.22684E+04 -3.55772E+04  1.63138E+04 -3.75635E+04 -4.65126E+03 -3.27498E+04 -2.08416E+04
 -1.32799E+04 -3.20411E+04  1.10312E+04 -2.74490E+04  2.43757E+04 -1.49581E+04  2.16001E+04  6.91849E+03
  7.16482E+03  1.61356E+04 -9.25253E+03  1.48543E+04 -1.75613E+04  1.65386E+03 -1.36255E+04 -1.11716E+04
 -1.80983E+02 -1.54534E+04  8.84201E+03 -1.35488E+04  1.23094E+04 -8.63040E+02  2.50231E+03  7.03281E+03
 -7.78545E+03  3.97977E+03 -6.58021E+03 -6.51371E+03 -6.34321E+02 -1.59198E+04  1.01282E+04 -1.64898E+04
  1.83396E+04 -8.26669E+03  2.15363E+04  2.44932E+03  1.79933E+04  1.47297E+04  7.46317E+03  2.53598E+04
 -4.23273E+03  2.57926E+04 -1.60495E+04  1.71835E+04 -1.89213E+04  3.82945E+03 -1.34619E+04 -4.59911E+03
 -4.28829E+03 -6.75820E+03 -8.61048E+02  1.71855E+03 -2.77480E+03  3.14149E+03 -5.25963E+03  5.84217E+03
 -1.37084E+04 -1.35868E+03 -1.28351E+04 -9.93729E+03 -3.51333E+03 -1.79290E+04  5.60574E+03 -1.37011E+04
  1.12082E+04 -6.62439E+03  8.30527E+03  3.40201E+03 -6.04809E+02  5.20181E+03 -5.26035E+03  1.22693E+02
 -7.47464E+03 -7.84941E+03 -1.53498E+01 -1.21468E+04  6.69768E+03 -1.42105E+04  1.62398E+04 -6.11697E+03
  1.94042E+04  2.06380E+03  1.38493E+04  1.27135E+04  3.69441E+03  1.53215E+04 -8.61334E+03  1.38998E+04
 -1.06273E+04  3.53369E+03 -5.93515E+03 -2.08607E+03  2.06224E+03 -4.43286E+03  6.86160E+03 -1.17180E+03
  7.44249E+03  6.07870E+03  1.06477E+03  1.01669E+04 -7.06102E+03  1.07575E+04 -1.29759E+04  4.02259E+03
 -7.02394E+03 -6.69665E+03 -4.70299E+02 -1.02834E+04  6.06973E+03 -4.75635E+03  6.72200E+03  2.66371E+03
  4.93576E+02  7.31824E+03 -6.31253E+03  9.19790E+03 -1.04702E+04  2.86516E+03 -1.12631E+04 -4.21420E+03
 -6.45734E+03 -1.17289E+04  2.67735E+03 -1.40587E+04  1.30663E+04 -8.42195E+03  1.40641E+04  2.16239E+03
  8.30846E+03  9.11061E+03 -1.20975E+03  1.19884E+04 -8.73394E+03  6.37657E+03 -1.05506E+04 -3.16778E+02
 -9.54698E+03 -9.02461E+03 -1.18936E+03 -9.05678E+03  5.16181E+03 -7.89724E+03  6.12728E+03 -3.20883E+03
  4.94533E+03 -1.79689E+02 -1.86767E+03  2.68522E+03  6.88562E+02 -2.31373E+03  1.35091E+03 -5.74550E+03
  9.38588E+03 -3.01313E+03  1.19614E+04  1.48763E+03  1.13246E+04  8.16547E+03  9.37867E+03  1.59181E+04
 -4.62185E+03  1.72437E+04 -1.66874E+04  1.52011E+04 -1.97619E+04  2.02279E+03 -1.65971E+04 -7.37408E+03
 -8.02240E+03 -1.40889E+04  5.58989E+01 -1.22526E+04  4.23448E+03 -3.73305E+03  4.00743E+03 -5.41838E+03
  2.91903E+03 -2.21873E+03  3.22131E+03 -4.06048E+03  5.03954E+03 -3.50440E+03  6.53376E+03 -7.96267E+02
  8.50311E+03  1.96111E+03  4.64306E+03  6.48812E+03 -3.57804E+03  7.28640E+03 -1.06030E+04  5.75725E+03
 -1.12044E+04 -2.36045E+03 -6.73267E+03 -8.42241E+03  1.30223E+02 -1.19529E+04  6.26713E+03 -1.21778E+04
  1.35484E+04 -6.10721E+03  1.69476E+04  1.58901E+03  1.09315E+04  1.00731E+04  8.67594E+02  1.28802E+04
 -6.03507E+03  1.04809E+04 -7.85768E+03  4.55820E+03 -4.66447E+03 -1.86808E+03 -1.66484E+03 -1.01135E+03
 -4.76755E+02  1.03776E+03 -1.04009E+03  3.51293E+03 -6.23397E+03  1.06538E+03 -7.42085E+03 -1.37650E+03
 -5.12206E+03 -8.29818E+03  4.64208E+02 -1.12890E+04  8.42915E+03 -1.14239E+04  1.19121E+04 -3.50862E+03
  1.17637E+04  4.69042E+03  4.60018E+03  9.17506E+03 -3.11351E+03  1.08579E+04 -7.71189E+03  7.39857E+03
 -1.05899E+04 -5.64380E+02 -7.03940E+03 -6.72459E+03 -3.98561E+02 -8.59708E+03  5.46426E+03 -5.62895E+03
  6.18013E+03 -3.29211E+03  4.53230E+03  1.83539E+03  1.17581E+03  2.68907E+03  1.71761E+03  2.44856E+03
  1.03364E+03  1.13722E+02  2.74715E+03  1.83494E+03  3.49262E+03  2.81071E+03  3.99194E+03  5.72455E+03
 -2.01932E+03  8.62411E+03 -6.63224E+03  8.39212E+03 -1.04280E+04  2.64032E+03 -1.04408E+04 -4.34571E+03
 -5.38074E+03 -1.13450E+04  2.86013E+03 -1.20694E+04  7.46916E+03 -8.07412E+03  1.01253E+04 -3.10597E+03
  6.79850E+03  4.68139E+03  1.00823E+03  7.06654E+03 -1.44012E+03  2.90878E+03 -4.26274E+03  3.37706E+02
 -8.11141E+02 -3.91312E+03  3.81214E+03 -4.28693E+03  4.89555E+03 -3.23976E+03  4.87612E+03  7.72585E+02
  1.97200E+03  2.83192E+03  9.88497E+02  1.87397E+03 -1.05410E+03  1.91490E+03  1.42584E+03  1.33899E+03
 -3.14539E+02 -1.35538E+03  4.76276E+03  2.80255E+03  2.36512E+03  5.95579E+03 -1.00292E+03  7.79114E+03
 -5.45755E+03  4.80034E+03 -6.87811E+03  2.27453E+02 -5.74182E+03 -3.60072E+03 -2.94068E+03 -4.12543E+03
  1.40406E+03 -4.81122E+03  3.64834E+03 -2.20399E+03  1.28226E+03  2.05916E+03 -3.25225E+01  3.66138E+03
 -4.31925E+03  2.62783E+03 -5.25826E+03 -3.91903E+03 -3.02077E+03 -4.84459E+03  1.55805E+03 -5.80973E+03
  1.90435E+03 -2.76912E+03  4.38021E+03  2.69533E+02  3.78996E+03  1.38076E+03  3.65647E+02  3.65378E+03
 -3.18549E+03  1.90748E+03 -3.16667E+03 -1.67547E+03  5.92101E+02 -5.08842E+03  4.94183E+03 -4.26058E+03
  7.12479E+03  6.08290E+02  6.27700E+03  3.78867E+03  3.24783E+03  5.36830E+03 -8.72033E+02  6.37184E+03
 -6.42189E+03  3.38179E+03 -6.45831E+03 -1.56913E+03 -1.48114E+03 -3.94662E+03  9.94862E+02 -3.46248E+03
  4.39134E+03 -2.10964E+03  4.34747E+03  1.48190E+03  1.22066E+03  3.68721E+03 -5.54690E+02  3.64932E+03
 -1.57726E+03  1.44337E+03 -2.20107E+03  2.62340E+03  3.96723E+02  1.14515E+03 -1.02833E+03  5.94084E+02
 -3.78048E+02  1.01915E+03 -4.98553E+03  2.79042E+03 -4.90940E+03 -1.39972E+03 -8.12987E+03 -4.34475E+03
 -4.09413E+03 -9.63606E+03  2.09705E+03 -1.19286E+04  6.46360E+03 -7.98753E+03  1.07917E+04 -3.05054E+03
  9.72095E+03 -6.46536E+01  5.13562E+03  6.68138E+03 -9.98240E+02  6.39478E+03 -2.36047E+03  5.54618E+03
 -5.30608E+03  1.44464E+03 -2.56461E+03 -2.06133E+03 -9.26940E+02 -8.21760E+02 -7.77292E+01  3.86372E+01
 -2.23411E+03 -1.48029E+02 -1.99231E+03  2.78137E+01  3.53548E+02 -1.08881E+03  2.00787E+01 -1.60255E+03
  3.34744E+03 -2.60625E+03  3.68358E+03  1.60481E+01  5.10976E+03  3.35926E+03 -1.42973E+02  5.80620E+03
 -3.28290E+03  9.06076E+03 -8.67720E+03  3.86417E+03 -6.92574E+03 -4.40155E+02 -5.82445E+03 -3.50704E+03
 -2.22738E+03 -6.01882E+03  3.01003E+03 -6.77127E+03  4.35498E+03 -4.10763E+03  6.38148E+03 -3.19555E+02
  2.34190E+03  9.64086E+02  4.58603E+02  1.28302E+03 -9.34807E+02  3.22953E+01  4.39750E+02 -2.33998E+03
  3.21611E+03 -3.37061E+02  2.80581E+03  1.69267E+03  1.96595E+03  2.60171E+03 -5.66392E+01  3.26359E+03
 -2.99176E+03  3.75389E+03 -3.75634E+03  8.44090E+01 -3.74648E+03 -3.80463E+03 -2.21384E+02 -6.84002E+03
  3.19822E+03 -4.16795E+03  5.41285E+03 -1.87768E+03  4.30862E+03  5.87737E+02  2.73570E+03  4.63134E+03
  9.33411E+01  3.78009E+03 -1.51318E+03  4.76293E+03 -2.63020E+03  1.79796E+03 -3.13359E+03  5.71224E+02
 -1.69291E+03 -5.84586E+02 -1.04213E+03  8.66692E+02 -1.24661E+03 -5.91986E+01 -3.83901E+03 -1.25872E+03
 -4.33989E+03 -1.77332E+03 -5.26022E+02 -5.39925E+03  3.54651E+03 -5.51911E+03  5.00825E+03 -3.68979E+03
  4.29596E+03  4.69336E+02  1.68055E+03  1.79220E+03  1.06491E+03  4.75976E+03 -3.36299E+03  3.39362E+03
