 $NMID ID='MM_0lb_SNR200_16hz_g40_62.RAW', FMTDAT='(8E13.5)'
 TRAMP=1., VOLUME=1. $END
  3.08659E+05  7.42492E+02  3.37070E+05  2.50404E+05  8.39558E+04  3.37747E+05 -1.32095E+05  2.49379E+05
 -1.89653E+05  8.19257E+04 -1.11781E+05 -3.31324E+04  1.53516E+03 -5.11675E+04  5.19934E+04  3.14969E+00
  3.56368E+04  5.27127E+04 -1.59968E+04  7.40922E+04 -6.06695E+04  6.28152E+04 -8.31508E+04  3.17324E+04
 -7.88513E+04 -1.25751E+04 -5.62338E+04 -5.01698E+04 -1.54177E+04 -6.73870E+04  2.59064E+04 -4.51761E+04
  3.86175E+04  4.40469E+03  1.53881E+04  4.73257E+04 -3.44650E+04  4.61924E+04 -6.57356E+04 -7.83855E+02
 -5.18016E+04 -5.65400E+04 -5.91837E+03 -7.54957E+04  3.29466E+04 -5.35181E+04  4.80355E+04 -1.66450E+04
  4.12172E+04  1.10012E+04  3.04140E+04  2.43217E+04  1.57479E+04  2.81763E+04 -4.92578E+03  2.58776E+04
 -2.16984E+04  1.27495E+04 -1.99380E+04 -4.30006E+03  4.30031E+03 -7.46852E+03  2.09970E+04  1.08294E+04
  7.31043E+03  3.47156E+04 -3.18748E+04  3.47495E+04 -6.09682E+04  1.72186E+03 -5.63003E+04 -4.06031E+04
 -1.32213E+04 -6.20179E+04  3.94311E+04 -4.40547E+04  5.65050E+04 -1.63270E+03  3.11109E+04  3.07638E+04
 -6.60764E+03  3.31807E+04 -2.92202E+04  1.37588E+04 -2.89725E+04 -5.18560E+03 -1.58138E+04 -9.27582E+03
 -7.68960E+03 -1.19772E+04 -8.51590E+02 -1.66963E+04  6.82962E+03 -2.26432E+04  1.53477E+04 -1.31364E+04
  1.19717E+04  4.38036E+03 -6.82349E+03  1.35089E+04 -2.00279E+04 -2.84822E+03 -7.81565E+03 -3.14642E+04
  2.16164E+04 -4.12917E+04  4.59085E+04 -1.88417E+04  4.27469E+04  1.87292E+04  1.40327E+04  4.22857E+04
 -1.52961E+04  3.13229E+04 -2.29396E+04  2.20277E+03 -9.09791E+03 -2.65835E+04  2.08886E+04 -3.18677E+04
  3.86054E+04 -7.44303E+03  3.21649E+04  2.37084E+04  1.53162E+04  4.40911E+04 -6.46506E+03  4.60466E+04
 -2.97549E+04  3.13250E+04 -3.95515E+04  9.05856E+03 -4.01217E+04 -1.56564E+04 -2.29126E+04 -3.71502E+04
  7.01295E+03 -3.56571E+04  2.92566E+04 -1.33031E+04  2.74613E+04  1.11805E+04  4.46417E+03  1.88453E+04
 -1.35919E+04  7.39856E+03 -9.87267E+03 -8.30361E+03  6.87763E+03 -1.02823E+04  1.74945E+04  5.25129E+03
  1.14180E+04  2.27046E+04 -6.30023E+03  2.46853E+04 -2.28884E+04  9.52627E+03 -2.68685E+04 -4.73450E+03
 -1.81030E+04 -1.72526E+04 -6.01395E+03 -1.79272E+04  4.31327E+03 -1.63513E+04  1.41588E+04 -1.54504E+04
  2.21186E+04 -1.25830E+04  2.94610E+04  2.14675E+03  2.13498E+04  1.67013E+04  3.43540E+03  3.24856E+04
 -1.58963E+04  2.78551E+04 -2.63170E+04  9.84971E+03 -1.96096E+04 -1.13094E+04 -4.99995E+03 -1.37362E+04
  1.84730E+03 -3.63209E+03 -3.46239E+03  6.80079E+03 -1.42064E+04  4.69956E+03 -1.37919E+04 -4.98729E+03
 -9.61209E+03 -1.65460E+04  5.08584E+03 -2.19015E+04  1.27793E+04 -1.57651E+04  1.49748E+04 -1.12106E+03
  1.05423E+04  1.17980E+04 -1.09313E+03  1.63613E+04 -1.18730E+04  1.06254E+04 -1.71141E+04 -4.33998E+03
 -1.27913E+04 -1.49637E+04 -2.04167E+03 -2.05408E+04  8.75961E+03 -1.71449E+04  1.45843E+04 -7.73407E+03
  1.59103E+04  9.33871E+02  1.16163E+04  5.28432E+03  4.70129E+03  1.13769E+03  7.43214E+03 -1.27828E+03
  1.44804E+04  3.08328E+03  1.56504E+04  1.28255E+04  1.10333E+04  2.56265E+04 -2.62126E+03  2.95173E+04
 -1.81264E+04  2.23578E+04 -2.63656E+04  1.02719E+04 -2.67920E+04 -3.56937E+03 -2.36136E+04 -1.59770E+04
 -1.03343E+04 -2.25178E+04  7.68031E+03 -2.23876E+04  1.89159E+04 -1.11684E+04  1.70380E+04  4.86778E+03
  6.89082E+03  1.09218E+04 -8.34983E+03  1.05896E+04 -1.49245E+04  2.96394E+03 -1.02744E+04 -8.52187E+03
  4.81883E+02 -1.40486E+04  7.58707E+03 -1.05706E+04  9.73751E+03 -1.05617E+03  2.21144E+03  6.02058E+03
 -6.46552E+03  1.67689E+03 -5.18581E+03 -4.90246E+03  7.72025E+02 -1.14848E+04  9.22712E+03 -1.24554E+04
  1.32207E+04 -5.15813E+03  1.38334E+04  1.42385E+03  1.19913E+04  1.15662E+04  6.12240E+03  1.60996E+04
 -1.47923E+03  1.81642E+04 -1.03837E+04  1.04060E+04 -1.39324E+04  3.83560E+03 -1.04380E+04 -2.36110E+03
 -4.68649E+03 -4.47590E+03 -1.69993E+03  2.09101E+03 -2.34664E+03  3.20553E+03 -4.43818E+03  2.79269E+03
 -8.67006E+03 -9.61314E+02 -1.03179E+04 -8.65200E+03 -4.43795E+03 -1.33241E+04  3.41662E+03 -9.41980E+03
  7.09179E+03 -4.40215E+03  6.12717E+03  1.71808E+03  1.51506E+03  2.87164E+03 -4.53919E+03 -4.07143E+02
 -4.13071E+03 -5.49616E+03 -1.33829E+03 -8.66627E+03  3.82014E+03 -8.20021E+03  1.02093E+04 -4.08308E+03
  1.29867E+04  1.17667E+03  8.93498E+03  7.77835E+03  2.28802E+03  1.09533E+04 -5.37048E+03  9.67699E+03
 -8.78219E+03  2.03600E+03 -4.24668E+03 -1.11548E+03  6.89856E+02 -2.69340E+03  5.77476E+03 -6.89876E+02
  4.82483E+03  3.86402E+03  6.02653E+02  6.80785E+03 -5.68278E+03  7.73977E+03 -8.76083E+03  1.33136E+03
 -5.23465E+03 -3.34846E+03  4.18918E+02 -7.35408E+03  4.38870E+03 -3.33202E+03  4.17823E+03  1.37192E+03
  5.64951E+02  4.76991E+03 -4.48896E+03  6.44599E+03 -5.56639E+03  3.47869E+03 -6.82570E+03 -2.19596E+03
 -3.49421E+03 -7.44346E+03  1.02460E+03 -8.83181E+03  6.98398E+03 -5.62734E+03  9.34069E+03  1.28648E+03
  5.55486E+03  6.00932E+03 -2.26328E+02  8.00643E+03 -7.43842E+03  4.82451E+03 -6.94103E+03 -1.17624E+03
 -6.90211E+03 -5.60669E+03 -1.82521E+03 -6.03432E+03  2.89242E+03 -6.09450E+03  3.68877E+03 -2.42916E+03
  3.46676E+03  8.21075E+02  2.10277E+02  5.19002E+02  1.19471E+03 -1.21453E+03  1.14964E+03 -2.60385E+03
  5.09996E+03 -1.24174E+03  6.29819E+03  1.72106E+03  6.28823E+03  3.51562E+03  5.61142E+03  8.64712E+03
 -2.17426E+03  1.14004E+04 -9.81489E+03  8.11237E+03 -1.19188E+04  1.10057E+03 -8.34915E+03 -3.69247E+03
 -5.99104E+03 -8.55499E+03 -8.98222E+02 -5.65696E+03  2.60796E+03 -2.91108E+03  3.16185E+03 -2.05903E+03
  1.04547E+03 -1.35406E+03  2.66540E+03 -1.87628E+03  4.07178E+03 -9.55623E+02  4.19366E+03 -3.48540E+02
  4.65145E+03  2.05502E+03  9.08638E+02  3.36075E+03 -9.26329E+02  4.13546E+03 -5.59844E+03  4.70737E+03
 -5.97901E+03 -1.78234E+03 -2.32851E+03 -4.13687E+03 -1.07698E+03 -5.89958E+03  2.92303E+03 -6.52465E+03
  5.95418E+03 -3.80295E+03  8.73909E+03 -2.13516E+02  6.55123E+03  5.59141E+03  8.21662E+02  8.31089E+03
 -2.10854E+03  6.88777E+03 -4.95223E+03  2.51656E+03 -1.68381E+03 -1.12405E+03 -3.41646E+02 -8.10547E+02
  2.32230E+02  1.34488E+03 -2.06616E+03  1.78524E+03 -3.36104E+03  1.24245E+03 -4.34674E+03 -1.13744E+03
 -2.06685E+03 -4.30008E+03 -2.90316E+02 -7.00707E+03  4.01712E+03 -5.57379E+03  5.05922E+03 -1.75693E+03
  5.56111E+03  3.20702E+03  1.70852E+03  5.39466E+03 -2.25545E+03  6.85851E+03 -2.75642E+03  3.14193E+03
 -5.39403E+03  2.31242E+02 -3.99746E+03 -4.65528E+03  2.64365E+01 -4.25706E+03  1.50332E+03 -2.69071E+03
  4.23596E+03 -2.05052E+03  2.10407E+03  8.79683E+02  1.35486E+03  1.94507E+03  4.55178E+02  7.87217E+02
  1.36615E+03 -1.15449E+03  1.33957E+03  8.72257E+02  9.63406E+02  2.71074E+03  1.12105E+03  2.41691E+03
 -1.96610E+03  3.27127E+03 -3.58317E+03  4.28086E+03 -4.09747E+03  1.91363E+03 -5.59907E+03 -2.07096E+03
 -3.39187E+03 -5.02747E+03  1.15751E+03 -6.98025E+03  3.74366E+03 -3.14017E+03  4.76907E+03 -1.00265E+03
  3.16294E+03  2.60517E+03  6.69540E+02  4.36323E+03 -1.54665E+03  1.55499E+03 -1.76515E+03 -7.97624E+02
 -1.36754E+03 -2.62315E+03  2.14685E+03 -2.43218E+03  2.75432E+03 -1.38768E+03  1.56456E+03  8.34064E+02
  1.44930E+03 -1.70008E+02  1.06726E+02  1.75428E+02 -1.14474E+03  9.85211E+02  1.52773E+03 -1.32404E+03
 -1.48634E+01 -4.62524E+02  3.88193E+03  2.87540E+02  3.56445E+02  3.47858E+03  9.42744E+01  5.35232E+03
 -2.33616E+03  1.10344E+03 -2.97557E+03  4.79254E+02 -3.97620E+03 -2.01908E+03  5.81349E+02 -6.96422E+02
 -3.06888E+02 -2.75492E+03  1.95678E+03 -1.02013E+03  1.38376E+03  1.77994E+03 -1.13025E+03  2.54364E+03
 -2.31695E+03  1.19148E+03 -2.04164E+03 -2.09004E+03 -1.14227E+03 -2.24110E+03  1.53103E+03 -2.00377E+03
  8.13017E+02 -2.57491E+03  1.71946E+03  4.62924E+02  1.44299E+03  1.98184E+02  4.46115E+01  2.17289E+03
 -1.75703E+03  2.52408E+02 -9.45699E+02 -2.41337E+01 -9.85863E+01 -2.33063E+03  3.03732E+03 -1.84671E+03
  2.04268E+03  1.30927E+03  3.53596E+03  2.03251E+03  1.30606E+03  2.64011E+03 -8.42414E+02  3.30735E+03
 -2.63244E+03  1.30099E+03 -2.50335E+03  9.79409E+02 -1.99006E+03 -1.61141E+03  8.90577E+02 -8.50915E+01
  2.96685E+03 -9.31461E+02  2.68934E+03  1.89749E+03  3.16674E+02  1.67973E+03  1.09468E+03  1.93176E+03
 -1.00098E+03  1.29330E+03 -3.23309E+02  6.85058E+02 -1.54310E+02  1.35055E+03 -1.29448E+03  7.75394E+02
 -1.86907E+03  3.04864E+02 -2.00962E+03  1.38161E+03 -2.93573E+03 -2.42306E+00 -4.28530E+03 -1.70830E+03
 -2.25046E+02 -2.75823E+03  1.10373E+03 -4.04357E+03  2.12538E+03 -3.43106E+03  4.79178E+03 -2.19532E+03
  4.01331E+03 -6.11998E+02  2.56658E+03  3.06649E+03 -4.18664E+02  2.70975E+03 -2.49517E+02  2.17535E+03
 -1.22495E+03  4.92837E+02 -1.19156E+03  3.63527E+02 -7.85381E+02 -8.81314E+02 -9.21506E+02 -3.85322E+02
 -1.57664E+03  4.90361E+02 -2.07359E+03 -8.10945E+02  8.12734E+02 -1.46786E+02 -1.12634E+03 -7.97882E+02
  1.84381E+03 -9.30258E+01  6.39608E+02 -5.38436E+01  1.81733E+03  1.49728E+03 -4.04510E+01  3.08677E+03
 -1.96033E+03  3.10621E+03 -2.40244E+03  1.36207E+03 -3.53336E+03 -1.63629E+02 -1.80755E+03 -2.49992E+03
 -1.93243E+03 -2.00579E+03 -1.70178E+02 -2.60355E+03  1.39450E+03 -1.39869E+03  1.54336E+03  1.65459E+03
  1.56762E+03  9.64754E+02 -1.05851E+03 -5.85422E+02  3.09704E+02  9.61249E+02 -1.50988E+02  4.02583E+02
  1.96353E+03  1.53586E+02  1.06371E+03  1.57655E+03  1.03234E+03  1.59120E+03  8.35300E+02  1.23787E+03
  1.19658E+03  1.79122E+03 -1.12900E+03 -9.24642E+02 -2.37864E+02 -7.12799E+02 -1.39248E+03 -1.93549E+03
  1.09732E+03 -1.53463E+03  1.56733E+03  2.74770E+02  1.14805E+03 -6.62849E+01  8.18740E+02  1.53184E+03
 -4.16357E+01  1.42139E+03 -7.82057E+02  2.15134E+03 -5.79628E+02  1.06109E+03 -1.05530E+03  8.14202E+02
  1.66124E+02  1.36463E+03  1.05879E+03  2.17678E+02 -1.32322E+02  5.50764E+02 -1.33441E+03  1.25011E+02
 -2.33108E+03 -5.43518E+02 -5.70347E+01 -1.26656E+03  1.10580E+03 -3.03799E+03  1.03689E+03 -1.24964E+03
  1.06251E+03  5.85054E+02 -5.86367E+02  4.72075E+02 -4.57994E+02  3.78611E+02 -1.02534E+03  6.04494E+02
