 $NMID ID='MM_0lb_SNR200_19hz_g55_25.RAW', FMTDAT='(8E13.5)'
 TRAMP=1., VOLUME=1. $END
  3.09500E+05 -6.00483E+02  3.37117E+05  2.50210E+05  8.57219E+04  3.37422E+05 -1.32561E+05  2.50689E+05
 -1.89636E+05  8.18118E+04 -1.11745E+05 -3.30956E+04  6.10482E+02 -5.08258E+04  5.40849E+04 -4.43176E+02
  3.46036E+04  5.35029E+04 -1.74357E+04  7.57569E+04 -6.07256E+04  6.27451E+04 -8.36594E+04  3.07416E+04
 -8.05525E+04 -1.04605E+04 -5.66712E+04 -5.03541E+04 -1.50163E+04 -6.89747E+04  2.67266E+04 -4.56494E+04
  3.94058E+04  4.17297E+03  1.57145E+04  4.73872E+04 -3.41766E+04  4.72051E+04 -6.58429E+04 -1.04648E+02
 -5.15809E+04 -5.62129E+04 -7.06703E+03 -7.57431E+04  3.36776E+04 -5.24539E+04  4.62484E+04 -1.60203E+04
  4.15233E+04  1.15211E+04  3.23049E+04  2.50396E+04  1.61929E+04  2.90194E+04 -4.73715E+03  2.70334E+04
 -2.14360E+04  1.21480E+04 -1.92575E+04 -4.68907E+03  4.37553E+03 -7.83553E+03  2.15301E+04  1.16590E+04
  7.59302E+03  3.36194E+04 -3.00133E+04  3.54523E+04 -6.18278E+04  7.56563E+02 -5.53617E+04 -4.15769E+04
 -1.17688E+04 -6.14073E+04  3.70987E+04 -4.42679E+04  5.65946E+04 -2.15939E+03  3.25797E+04  3.12986E+04
 -6.66227E+03  3.47379E+04 -2.81403E+04  1.28262E+04 -2.74954E+04 -4.80577E+03 -1.47746E+04 -9.74131E+03
 -7.35014E+03 -1.13525E+04 -7.92086E+02 -1.77663E+04  6.29389E+03 -2.20738E+04  1.48773E+04 -1.43873E+04
  1.18331E+04  4.13621E+03 -6.36357E+03  1.32464E+04 -1.97183E+04 -3.64823E+03 -8.30875E+03 -3.08856E+04
  2.14996E+04 -4.25562E+04  4.57522E+04 -1.84187E+04  4.19680E+04  1.79857E+04  1.41647E+04  4.33931E+04
 -1.59668E+04  3.18938E+04 -2.32117E+04  8.97500E+02 -8.56625E+03 -2.63811E+04  1.97236E+04 -3.13803E+04
  3.81863E+04 -7.84712E+03  3.29643E+04  2.29825E+04  1.45146E+04  4.36960E+04 -8.08941E+03  4.61746E+04
 -2.85153E+04  2.99437E+04 -3.79195E+04  9.15985E+03 -4.00618E+04 -1.53973E+04 -2.12662E+04 -3.51508E+04
  7.04756E+03 -3.46175E+04  2.87892E+04 -1.33913E+04  2.56884E+04  9.98564E+03  2.71898E+03  1.85813E+04
 -1.27081E+04  7.26569E+03 -8.22016E+03 -7.59796E+03  7.44819E+03 -8.95916E+03  1.70795E+04  6.51804E+03
  1.37640E+04  2.20571E+04 -6.67921E+03  2.31508E+04 -2.26186E+04  1.05776E+04 -2.50792E+04 -5.86979E+03
 -1.73789E+04 -1.63200E+04 -5.89070E+03 -1.82290E+04  3.99511E+03 -1.64952E+04  1.30247E+04 -1.54253E+04
  2.21381E+04 -1.17664E+04  2.86058E+04  1.92226E+03  2.23042E+04  1.68191E+04  3.80275E+03  3.16775E+04
 -1.65904E+04  2.87770E+04 -2.55427E+04  9.65931E+03 -1.97419E+04 -1.00672E+04 -4.28526E+03 -1.42344E+04
  2.18550E+03 -4.01619E+03 -2.52237E+03  5.89766E+03 -1.32572E+04  4.81372E+03 -1.36641E+04 -4.57221E+03
 -8.49685E+03 -1.48936E+04  4.50659E+03 -2.01607E+04  1.35147E+04 -1.37899E+04  1.49719E+04 -1.23336E+03
  8.79950E+03  1.10754E+04  7.60814E+02  1.50454E+04 -1.06899E+04  8.79614E+03 -1.54050E+04 -2.50619E+03
 -1.17280E+04 -1.38424E+04 -1.85562E+03 -1.94449E+04  7.98582E+03 -1.57787E+04  1.61483E+04 -7.60451E+03
  1.47600E+04  1.40628E+03  1.11957E+04  4.88093E+03  6.44114E+03  3.93769E+02  7.28817E+03 -8.77688E+02
  1.40751E+04  1.50873E+03  1.55629E+04  1.36405E+04  9.72790E+03  2.49451E+04 -2.91280E+03  2.82457E+04
 -1.58522E+04  2.05318E+04 -2.47015E+04  1.08202E+04 -2.67656E+04 -2.31976E+03 -2.19416E+04 -1.47215E+04
 -1.01096E+04 -2.07568E+04  6.62886E+03 -1.89734E+04  1.79516E+04 -1.11733E+04  1.62513E+04  3.17096E+03
  5.66085E+03  1.12901E+04 -6.62479E+03  1.01738E+04 -1.36091E+04  2.48604E+03 -1.06470E+04 -8.74950E+03
  4.38837E+02 -1.26397E+04  6.28086E+03 -9.24530E+03  8.03478E+03 -1.34225E+03  2.15838E+03  5.86474E+03
 -6.25931E+03  2.66497E+03 -4.09514E+03 -5.94716E+03  4.25688E+01 -1.05971E+04  7.28014E+03 -9.85953E+03
  1.37689E+04 -4.17657E+03  1.44234E+04  2.98334E+03  1.08731E+04  1.05574E+04  5.64126E+03  1.55317E+04
 -2.12741E+03  1.52885E+04 -9.72373E+03  1.11685E+04 -1.17085E+04  2.65004E+03 -9.24800E+03 -1.96346E+03
 -4.53696E+03 -2.71960E+03 -1.12649E+03  1.71289E+03 -2.69029E+03  2.79884E+03 -3.93270E+03  2.99542E+03
 -8.17454E+03 -6.18761E+02 -8.07391E+03 -6.60037E+03 -4.10530E+03 -1.08665E+04  3.42529E+03 -8.95522E+03
  8.04919E+03 -3.19261E+03  3.80944E+03  1.90510E+03  5.16261E+02  3.31136E+03 -4.11459E+03 -1.87325E+03
 -3.67901E+03 -4.71372E+03 -1.01696E+03 -7.37883E+03  3.11009E+03 -8.45612E+03  9.45476E+03 -3.48851E+03
  1.29533E+04  8.06954E+02  8.40286E+03  7.49317E+03  1.74848E+03  7.65813E+03 -5.58791E+03  8.75402E+03
 -7.35925E+03  3.15147E+03 -3.22154E+03 -1.80989E+03  1.34080E+03 -1.68097E+03  4.29831E+03 -1.58824E+03
  4.61341E+03  3.27971E+03  4.83296E+02  7.07123E+03 -4.14715E+03  6.35450E+03 -8.34060E+03  1.82325E+03
 -5.01918E+03 -3.28246E+03  3.30015E+02 -7.66813E+03  3.47507E+03 -3.63562E+03  3.89705E+03  1.40121E+03
  6.67593E+02  3.39441E+03 -4.21416E+03  5.09921E+03 -5.58395E+03  3.80888E+03 -4.32341E+03 -1.03375E+03
 -3.54161E+03 -6.12740E+03  1.16606E+03 -6.99178E+03  6.65030E+03 -3.92528E+03  5.60753E+03  1.28741E+03
  4.36883E+03  5.43490E+03 -7.20673E+02  6.35685E+03 -5.45275E+03  4.82588E+03 -4.39251E+03 -1.97242E+02
 -5.55741E+03 -5.79804E+03 -2.12085E+03 -3.97566E+03  2.15381E+03 -5.36412E+03  3.72840E+03 -2.50807E+03
  3.34918E+03  2.30818E+03  4.90208E+01  1.52805E+03  7.55058E+02 -4.06299E+02 -1.04536E+02 -2.08425E+03
  3.49102E+03 -2.16476E+02  4.76863E+03  1.05479E+03  5.21560E+03  2.28499E+03  5.76374E+03  8.29618E+03
 -1.38562E+03  8.86668E+03 -8.05298E+03  5.95514E+03 -1.06546E+04  1.68340E+03 -8.60193E+03 -2.30283E+03
 -4.41315E+03 -5.90542E+03  5.48276E+01 -4.69718E+03  1.84620E+03 -2.33264E+03  5.54628E+02 -2.64411E+03
  1.10678E+03 -2.50673E+03  2.60779E+03 -1.54639E+03  2.57312E+03 -9.24980E+02  4.32000E+03  8.72423E+02
  4.05022E+03  1.12103E+03  8.61960E+02  3.31884E+03 -1.29367E+03  2.89121E+03 -2.56070E+03  2.02851E+03
 -4.81150E+03 -6.97803E+02 -1.88893E+03 -3.42138E+03  1.15599E+02 -4.76135E+03  3.04046E+03 -5.63524E+03
  5.73395E+03 -2.91181E+03  6.16202E+03 -8.13270E+02  4.53825E+03  3.95002E+03  1.37225E+03  5.79720E+03
 -1.71752E+03  6.18296E+03 -2.71338E+03  1.40313E+03 -2.26407E+03 -6.65555E+02 -8.22814E+02 -6.25586E+02
 -6.04341E+02 -1.17732E+02 -3.66987E+02  1.52869E+03 -2.39863E+03  1.65611E+03 -3.97188E+03  4.61597E+02
 -2.11845E+03 -3.37367E+03  1.38758E+03 -3.27640E+03  3.00634E+03 -5.14879E+03  3.36443E+03 -5.07205E+02
  4.44808E+03  1.63636E+03  2.07690E+03  4.39009E+03  7.05080E+01  4.97455E+03 -2.23744E+03  2.61295E+03
 -3.28964E+03  1.62641E+03 -2.78364E+03 -1.57131E+03 -1.90900E+02 -3.20596E+03  1.58541E+03 -1.71313E+03
  3.64402E+03 -1.25096E+03  1.55860E+03  1.70786E+03  5.74729E+02  1.18650E+03  7.70180E+02  3.60249E+02
  1.88062E+03  5.63318E+00  1.25593E+03  7.15627E+02  1.37717E+03  2.33524E+03  1.10940E+03  1.54260E+03
 -1.24401E+03  2.59995E+03 -2.59094E+03  3.65009E+03 -2.83871E+03  1.93379E+03 -3.05957E+03 -1.12167E+03
 -2.33618E+03 -3.16049E+03  2.55371E+02 -4.75024E+03  1.52626E+03 -2.72002E+03  2.42180E+03 -1.02248E+03
  1.93195E+03  1.09630E+03  1.33804E+03  2.51458E+03 -6.89109E+02  1.01549E+03 -5.21671E+02  8.13021E+02
 -8.50362E+02 -1.16113E+03  1.73747E+03 -1.57765E+03  4.18360E+02 -9.78327E+02  5.10381E+02  1.27126E+03
  1.07654E+03 -3.79092E+02  1.30554E+03  6.63149E+01 -6.32310E+02 -3.40236E+02  1.44190E+03  8.51147E+02
  5.76687E+02  1.19411E+03  1.73545E+03 -1.44848E+02 -2.15063E+02  2.03541E+03  3.31311E+00  2.73948E+03
 -1.23394E+03  3.45799E+02 -1.77209E+03  3.77614E+02 -1.72292E+03 -1.10322E+03  3.40902E+01 -1.48473E+03
  9.70738E+02 -3.69632E+02  8.69173E+02 -2.28950E+02  7.57404E+02  1.22437E+03 -5.13566E+02  8.78662E+02
 -1.86981E+03  1.20738E+03 -9.89886E+02 -1.64149E+03 -6.31607E+02 -1.73042E+03 -1.68020E+02 -1.65837E+02
  2.14037E+02 -2.03668E+01  6.18180E+02 -6.73953E+02  2.06811E+03 -3.39597E+02 -3.67016E+02  2.32931E+03
 -4.87750E+02  1.99122E+02 -1.70988E+01  1.99502E+02 -3.90739E+01 -3.36171E+01  1.64811E+03 -2.00166E+03
  1.89789E+02  8.39698E+02  2.20228E+03  1.05152E+03  1.38078E+03  1.93603E+03 -3.86224E+02  1.79964E+03
 -1.48611E+03  1.37410E+03 -2.04621E+03  2.89994E+01 -1.77385E+03 -1.58626E+03  1.96195E+02 -8.91747E+02
  1.93702E+03 -1.65135E+03  7.59742E+02  1.52450E+03  3.66113E+02  1.44690E+03  1.24942E+02  1.88776E+03
  4.55256E+02  1.71487E+03  7.64316E+02  5.28561E+02 -3.64316E+02  4.54042E+02 -1.13533E+03  4.05818E+02
 -2.92186E+02  7.17629E+02 -1.18010E+03  7.57139E+02 -1.95840E+03  3.86990E+02 -2.88923E+03  2.39329E+02
 -6.08807E+02 -1.23891E+03  4.78730E+02 -2.85362E+03  1.55666E+03 -2.11272E+03  3.50204E+03 -1.35445E+03
  2.83922E+03  4.18148E+01  6.93094E+02  1.34331E+03 -1.59435E+03  2.60605E+02 -2.01022E+01  1.57112E+03
 -7.95575E+02  1.06964E+03 -6.51433E+02  1.02513E+02  5.39730E+02  7.85288E+02 -1.42089E+03 -1.15335E+03
 -1.30580E+03 -1.22126E+02 -7.33340E+02  5.63129E+02  1.58486E+03 -1.00063E+03 -9.01092E+02 -8.44698E+02
  9.57402E+02  4.64171E+02  1.16070E+02 -1.87507E+02  1.00040E+03  5.72640E+02 -9.70360E+01  1.71959E+03
 -1.22049E+03  1.97990E+03 -1.97773E+03  1.56831E+03 -1.06278E+03 -6.45367E+02 -8.85839E+02 -1.55636E+03
 -1.79937E+03 -2.50582E+02  5.61455E+02 -8.01991E+01  7.92527E+02 -1.20403E+03  8.78505E+02  7.77904E+02
 -2.28805E+00  3.05654E+02 -5.03501E+02  8.16149E+02 -5.33249E+02  2.43306E+02  5.18376E+02  5.69386E+02
 -5.18886E+02 -8.86781E+02  8.71471E+01  1.02822E+03 -1.12152E+03  1.29002E+02 -4.37687E+02  7.61933E+01
 -9.47442E+02  1.54816E+03 -1.03228E+03  4.00640E+02 -3.56517E+02 -9.55659E+02  1.24786E+03 -2.20450E+03
  1.71870E+03 -8.02281E+02 -4.50398E+02  8.06284E+02  1.17129E+03 -7.62627E+02  4.12606E+02  4.56556E+02
 -5.19595E+02  1.93894E+02 -2.78628E+02  3.97328E+02 -6.70347E+02  7.70146E+02 -3.58250E+02 -5.28718E+02
  2.78375E+01  1.69348E+02 -1.49173E+03  4.67462E+02 -8.08279E+02  1.63058E+03 -6.28750E+02 -1.03934E+03
 -7.49792E+02 -2.81593E+02 -6.46970E+02 -6.13536E+02  1.10257E+03 -1.91804E+01  9.32353E+02  3.18342E+02
  7.70767E+02  5.34258E+02 -6.38587E+02  2.43596E+02 -1.43402E+03 -3.73515E+02 -1.31397E+02 -1.53088E+02
