 $NMID ID='MM_0lb_SNR200_16hz_g60_55.RAW', FMTDAT='(8E13.5)'
 TRAMP=1., VOLUME=1. $END
  3.10431E+05  1.66896E+02  3.37846E+05  2.50318E+05  8.36564E+04  3.37798E+05 -1.31984E+05  2.50885E+05
 -1.89832E+05  8.37240E+04 -1.11264E+05 -3.33400E+04  7.87635E+02 -5.09075E+04  5.32861E+04 -1.29686E+03
  3.55699E+04  5.26580E+04 -1.66461E+04  7.60822E+04 -6.11274E+04  6.36500E+04 -8.46347E+04  3.32352E+04
 -8.18615E+04 -1.22142E+04 -5.80531E+04 -5.15045E+04 -1.48028E+04 -6.94125E+04  2.77777E+04 -4.61611E+04
  3.97778E+04  3.96972E+03  1.54827E+04  4.85892E+04 -3.45144E+04  4.65427E+04 -6.73385E+04 -2.83142E+02
 -5.23215E+04 -5.85820E+04 -6.53029E+03 -7.68800E+04  3.44916E+04 -5.35654E+04  4.83136E+04 -1.71972E+04
  4.28903E+04  1.11899E+04  3.18447E+04  2.64124E+04  1.65781E+04  2.96353E+04 -5.14199E+03  2.71491E+04
 -2.19911E+04  1.29545E+04 -1.97677E+04 -4.73682E+03  6.57799E+03 -7.55249E+03  2.27812E+04  1.10697E+04
  7.25658E+03  3.56987E+04 -3.23947E+04  3.59215E+04 -6.34474E+04  2.17209E+03 -5.68081E+04 -4.31366E+04
 -1.24303E+04 -6.39226E+04  3.88623E+04 -4.42639E+04  5.88296E+04 -1.71018E+03  3.39061E+04  3.17550E+04
 -5.85056E+03  3.67779E+04 -3.11821E+04  1.58875E+04 -3.00164E+04 -4.24510E+03 -1.64890E+04 -1.12330E+04
 -8.06876E+03 -1.42920E+04 -6.62937E+02 -1.79057E+04  7.71684E+03 -2.31749E+04  1.58982E+04 -1.36484E+04
  1.16471E+04  5.49104E+03 -7.45130E+03  1.38222E+04 -2.13791E+04 -5.86238E+03 -7.79852E+03 -3.42012E+04
  2.35556E+04 -4.29059E+04  4.85594E+04 -1.98995E+04  4.51077E+04  2.06278E+04  1.38397E+04  4.52600E+04
 -1.57372E+04  3.32715E+04 -2.55165E+04  1.94331E+03 -9.47319E+03 -2.73900E+04  2.03445E+04 -3.30007E+04
  4.24288E+04 -9.55873E+03  3.61874E+04  2.41354E+04  1.88294E+04  4.75811E+04 -7.84380E+03  4.91870E+04
 -3.32401E+04  3.46827E+04 -4.20455E+04  9.81853E+03 -4.27060E+04 -1.55396E+04 -2.29851E+04 -3.81135E+04
  8.19019E+03 -3.84563E+04  3.20231E+04 -1.48989E+04  2.94516E+04  9.97632E+03  4.40345E+03  1.99070E+04
 -1.31672E+04  8.79867E+03 -1.07558E+04 -7.84155E+03  5.44105E+03 -1.03452E+04  1.71902E+04  6.15610E+03
  1.20710E+04  2.22184E+04 -6.79021E+03  2.39494E+04 -2.19194E+04  1.01799E+04 -2.78176E+04 -5.32787E+03
 -2.10657E+04 -1.78292E+04 -7.41232E+03 -2.05780E+04  4.33057E+03 -1.81534E+04  1.54072E+04 -1.85030E+04
  2.67372E+04 -1.17391E+04  3.34561E+04  3.19713E+03  2.37225E+04  1.96324E+04  4.90454E+03  3.68397E+04
 -1.75466E+04  2.98286E+04 -2.78861E+04  9.24689E+03 -2.11092E+04 -1.01162E+04 -5.45226E+03 -1.32762E+04
  1.80926E+03 -3.77855E+03 -3.97985E+03  6.50388E+03 -1.49076E+04  5.35690E+03 -1.59159E+04 -6.57897E+03
 -1.08814E+04 -1.83894E+04  5.30695E+03 -2.23923E+04  1.58157E+04 -1.59526E+04  1.81822E+04 -2.10992E+03
  1.05242E+04  1.25128E+04 -1.70991E+02  1.79828E+04 -1.31287E+04  1.17614E+04 -1.82712E+04 -3.76134E+03
 -1.33574E+04 -1.74811E+04 -1.08844E+03 -2.24529E+04  1.09048E+04 -1.82128E+04  1.89241E+04 -8.39096E+03
  1.78768E+04 -2.00762E+02  1.31179E+04  4.94011E+03  6.14193E+03  1.86042E+03  9.78869E+03 -1.30393E+03
  1.67936E+04  1.98953E+03  1.84666E+04  1.45643E+04  1.19110E+04  3.01951E+04 -2.44057E+03  3.31172E+04
 -1.91047E+04  2.65506E+04 -3.07678E+04  1.32452E+04 -3.11550E+04 -1.92112E+03 -2.75783E+04 -1.85490E+04
 -1.07253E+04 -2.71815E+04  8.06902E+03 -2.46795E+04  2.10132E+04 -1.12373E+04  1.98400E+04  4.95890E+03
  6.85510E+03  1.39275E+04 -8.52034E+03  1.25101E+04 -1.57515E+04  3.11089E+03 -1.18924E+04 -1.06417E+04
  1.69682E+03 -1.49567E+04  7.57647E+03 -1.21893E+04  9.75982E+03 -2.01057E+03  1.50420E+03  5.02706E+03
 -6.54582E+03  2.53402E+03 -4.81126E+03 -5.47152E+03 -8.98264E+02 -1.13339E+04  7.73092E+03 -1.27669E+04
  1.54935E+04 -5.94140E+03  1.65790E+04  3.27903E+03  1.46003E+04  1.18409E+04  6.24671E+03  1.89849E+04
 -3.44433E+03  2.03489E+04 -1.28072E+04  1.38698E+04 -1.49294E+04  3.48942E+03 -1.17140E+04 -3.13164E+03
 -5.24483E+03 -4.58620E+03 -1.03169E+03  1.14465E+03 -2.29571E+03  3.07339E+03 -4.87342E+03  4.43357E+03
 -1.13901E+04 -9.72876E+01 -9.19600E+03 -8.86875E+03 -3.81687E+03 -1.45576E+04  4.81045E+03 -1.13476E+04
  9.00703E+03 -3.94839E+03  6.40555E+03  2.27462E+03 -4.70060E+02  5.76930E+03 -5.40411E+03  5.22364E+02
 -5.64944E+03 -6.57308E+03  6.71012E+02 -1.06449E+04  6.16337E+03 -1.10549E+04  1.36070E+04 -6.65032E+03
  1.64355E+04  1.82086E+03  1.04449E+04  9.04109E+03  1.43374E+03  1.26990E+04 -6.82900E+03  1.03862E+04
 -8.40646E+03  2.48026E+03 -4.30293E+03 -7.04679E+02  4.18239E+02 -2.64564E+03  6.28900E+03  9.59985E+01
  5.63722E+03  3.51253E+03  1.37710E+03  7.44009E+03 -6.57606E+03  7.65846E+03 -1.00155E+04  8.58004E+02
 -6.77684E+03 -5.28693E+03 -6.29941E+01 -8.62868E+03  5.23182E+03 -3.58827E+03  5.90858E+03  9.82097E+02
  2.13152E+02  4.92208E+03 -4.81701E+03  7.14626E+03 -7.12384E+03  3.11103E+03 -7.61301E+03 -1.99605E+03
 -4.13106E+03 -7.80476E+03  1.40943E+03 -1.00860E+04  8.65589E+03 -5.90451E+03  9.41621E+03  4.86952E+02
  4.59301E+03  7.21611E+03 -1.02427E+02  9.31141E+03 -6.90544E+03  5.43044E+03 -6.96478E+03 -6.88611E+02
 -7.42481E+03 -7.00539E+03 -1.24071E+03 -6.18123E+03  4.00187E+03 -6.06475E+03  5.27412E+03 -3.24172E+03
  2.65326E+03  4.58011E+02 -1.51420E+03  1.47726E+03 -7.80771E+02 -7.73557E+02  3.61462E+02 -3.16344E+03
  5.57836E+03 -2.02773E+03  8.08624E+03  8.16870E+02  7.91778E+03  5.23952E+03  6.81141E+03  9.64771E+03
 -1.42271E+03  1.19104E+04 -1.19500E+04  9.03192E+03 -1.38175E+04  1.22362E+03 -1.07888E+04 -5.68101E+03
 -5.44173E+03 -1.02720E+04 -4.00373E+02 -6.83017E+03  3.05311E+03 -3.54455E+03  1.74249E+03 -2.72688E+03
  1.61241E+03 -2.19525E+03  2.23947E+03 -2.27550E+03  4.43549E+03 -2.19097E+03  3.87490E+03 -9.27147E+02
  6.05515E+03  7.87447E+02  2.56255E+03  4.79157E+03 -9.40001E+02  5.48322E+03 -5.97843E+03  4.24962E+03
 -8.17985E+03 -7.85085E+02 -3.17621E+03 -5.51109E+03  3.79228E+02 -7.20411E+03  4.71256E+03 -8.25398E+03
  8.60113E+03 -5.56630E+03  1.02560E+04  5.35305E+02  6.58296E+03  7.00262E+03  2.35612E+03  8.55447E+03
 -3.47663E+03  7.63380E+03 -5.48175E+03  2.64182E+03 -4.12402E+03 -8.06459E+01 -7.76165E+02 -1.79632E+03
 -6.15621E+02 -1.91973E+02 -6.96007E+02  1.88881E+03 -5.01179E+03  1.48065E+03 -4.08800E+03  6.25192E+02
 -2.91080E+03 -4.79702E+03  1.47793E+03 -7.09768E+03  5.00703E+03 -6.94308E+03  6.19553E+03 -2.47879E+03
  6.47000E+03  2.81501E+03  2.09980E+03  5.45192E+03 -1.47357E+03  7.03056E+03 -4.88876E+03  4.18350E+03
 -4.99341E+03  1.68664E+03 -5.23947E+03 -3.20859E+03 -1.96549E+02 -5.73207E+03  1.47535E+03 -3.61366E+03
  4.13028E+03 -1.99905E+03  2.80989E+03  8.46861E+02  1.37242E+02  2.06312E+03  9.01721E+02 -3.36153E+02
  2.42701E+03  1.57808E+03  1.51375E+03  8.62304E+02  1.84165E+03  3.59310E+03  2.19334E+03  2.75817E+03
 -1.69819E+03  6.23777E+03 -4.65138E+03  5.01286E+03 -5.29432E+03  1.90244E+03 -6.77034E+03 -2.56997E+03
 -3.83263E+03 -5.37787E+03 -2.46268E+02 -7.02326E+03  2.16868E+03 -3.02388E+03  5.52120E+03 -8.56049E+02
  4.28891E+03  2.78876E+03  1.87784E+03  3.98548E+03 -8.99811E+02  2.27056E+03 -1.59524E+02 -5.56665E+02
 -1.16313E+03 -3.01492E+03  2.36047E+03 -1.99111E+03  3.31551E+03 -3.39312E+02  1.48518E+03  1.01894E+03
  1.85262E+03  8.09189E+02  1.65774E+03 -1.86873E+02 -3.09013E+02  1.57408E+03  8.74463E+02 -1.20911E+03
 -2.36340E+02  1.04011E+03  2.46660E+03  1.81112E+03  3.53396E+02  3.94268E+03 -6.39421E+02  3.81379E+03
 -3.06663E+03  7.85754E+02 -3.43542E+03  1.39880E+02 -3.67353E+03 -1.03340E+03 -1.01712E+03 -1.72434E+03
  5.54319E+02 -2.35456E+03  1.23158E+03 -2.15327E+03  1.42307E+03  1.38882E+03 -5.05154E+02  1.73690E+03
 -2.31999E+03  3.83560E+02 -1.45879E+03 -1.97778E+03 -1.09545E+03 -4.64803E+03  1.95667E+02 -3.59507E+03
  9.96286E+02 -1.40646E+03  1.74989E+03  8.94974E+02  2.08475E+03  5.22943E+02  1.58254E+02  9.68510E+02
 -6.11627E+02  5.60592E+02 -1.33925E+03 -1.01389E+02  1.65669E+03 -2.04502E+03  3.60322E+03 -1.35143E+03
  2.91167E+03  6.00898E+02  3.63669E+03  1.59142E+03  1.64938E+03  2.11516E+03 -1.21260E+03  2.32231E+03
 -3.22624E+03  1.27997E+03 -2.61075E+03  3.09216E+02 -2.13324E+03 -2.47792E+03 -2.81091E+02 -1.97069E+03
  1.90708E+03  5.05950E+01  8.85100E+02  9.24431E+02  8.09064E+02  2.19706E+03  8.67182E+02  3.62583E+02
  3.65194E+02  1.69448E+03 -1.03088E+03  9.53387E+01  1.41371E+03  1.14011E+03 -1.22261E+03  5.88125E+02
 -1.05862E+03  1.82822E+03 -2.20549E+03  2.01210E+03 -2.87108E+03  1.04002E+02 -2.31522E+03 -2.25101E+03
 -3.44596E+03 -2.73783E+03  1.02259E+03 -3.89501E+03  2.00589E+03 -3.32226E+03  3.70178E+03 -1.62810E+03
  4.37178E+03  2.04197E+02  2.40215E+03  1.89487E+03 -1.66990E+01  1.32475E+03 -3.94715E+02  2.50215E+03
 -1.54018E+03  1.22113E+03 -5.12041E+02 -7.70464E+02 -5.64574E+02  4.78264E+02 -1.08071E+03 -6.42540E+00
 -8.05845E+02  1.22719E+02 -4.89926E+02 -2.27809E+02 -5.42398E+02 -4.61821E+02  3.69740E+02 -1.17898E+03
  1.23522E+03 -1.80308E+03  2.40696E+03  4.72013E+02  1.58995E+03  1.52989E+03  2.51495E+02  2.67179E+03
 -2.45748E+03  3.02367E+03 -2.27456E+03  2.51563E+03 -3.00556E+03 -1.32936E+03 -2.63806E+03 -1.35696E+03
 -1.93069E+03 -1.75186E+03  5.08599E+02 -3.12360E+03  2.03598E+03 -1.44553E+03  3.24186E+02 -2.00832E+01
  4.00826E+02 -7.13458E+02 -3.30590E+02  1.06749E+03 -1.45549E+02 -9.31859E+01 -3.79063E+02 -3.09663E+02
  2.14471E+03 -4.86544E+02 -1.70818E+02  4.26403E+02  6.19673E+02  3.51296E+02  1.84179E+02  4.60535E+02
 -1.84606E+03  1.46527E+03 -9.29840E+02  7.54877E+02 -1.08154E+03 -1.82215E+03  6.79430E+02 -1.81909E+03
  1.40590E+03 -1.79264E+03  1.99718E+03 -3.29317E+02  1.83401E+03  8.47123E+01  7.48340E+02  1.96419E+03
 -6.34212E+02  6.83071E+02 -6.70264E+02  9.14694E+02 -9.59332E+02  1.51134E+03 -9.91288E+02 -5.12986E+00
  2.46333E+02 -1.52134E+03 -7.47547E+02 -2.97073E+02 -1.36792E+03  4.00646E+02 -1.72567E+03  1.60488E+02
 -2.76839E+03 -9.39899E+02 -3.45747E+02 -2.06771E+03  8.52032E+02 -2.71631E+03  7.67896E+02 -3.61200E+02
  1.46232E+03  1.53175E+03 -2.46249E+02  3.20648E+02 -5.98523E+02  1.69976E+03 -1.46122E+03  1.60194E+03
