 $NMID ID='MM_0lb_SNR200_14hz_g45_50.RAW', FMTDAT='(8E13.5)'
 TRAMP=1., VOLUME=1. $END
  3.09275E+05  4.09833E+02  3.37865E+05  2.49700E+05  8.48576E+04  3.38081E+05 -1.31382E+05  2.51295E+05
 -1.91120E+05  8.28655E+04 -1.11817E+05 -3.26564E+04 -4.01600E+01 -5.01529E+04  5.30655E+04  1.26189E+03
  3.46480E+04  5.16666E+04 -1.71812E+04  7.55745E+04 -6.20601E+04  6.22243E+04 -8.33905E+04  3.15674E+04
 -8.09221E+04 -1.16797E+04 -5.78703E+04 -5.16201E+04 -1.50195E+04 -6.90244E+04  2.60714E+04 -4.61946E+04
  3.89346E+04  3.54070E+03  1.69990E+04  4.79315E+04 -3.44675E+04  4.62495E+04 -6.67027E+04  2.65969E+02
 -5.45283E+04 -5.81083E+04 -7.08879E+03 -7.76309E+04  3.39148E+04 -5.45422E+04  4.77646E+04 -1.72418E+04
  4.36022E+04  1.14824E+04  3.20338E+04  2.51558E+04  1.58979E+04  2.99109E+04 -4.42953E+03  2.78606E+04
 -2.12822E+04  1.25751E+04 -1.82940E+04 -4.55404E+03  5.29179E+03 -7.79350E+03  2.36139E+04  1.28786E+04
  7.23764E+03  3.51406E+04 -3.25816E+04  3.42884E+04 -6.29760E+04  2.16057E+03 -5.66504E+04 -4.30902E+04
 -1.12190E+04 -6.22934E+04  4.02954E+04 -4.52879E+04  5.77451E+04 -2.85583E+03  3.44420E+04  3.19620E+04
 -6.63806E+03  3.51386E+04 -3.02173E+04  1.54965E+04 -3.07589E+04 -4.49095E+03 -1.65563E+04 -1.14180E+04
 -9.52273E+03 -1.21654E+04 -1.13894E+03 -1.82937E+04  6.71098E+03 -2.31766E+04  1.42810E+04 -1.41321E+04
  1.20887E+04  4.82157E+03 -9.27281E+03  1.25243E+04 -2.19374E+04 -4.46544E+03 -8.45558E+03 -3.41509E+04
  2.18258E+04 -4.37466E+04  4.81297E+04 -1.93056E+04  4.44033E+04  1.80553E+04  1.49912E+04  4.39190E+04
 -1.55338E+04  3.31841E+04 -2.57558E+04  2.35313E+03 -9.87698E+03 -2.70859E+04  2.19154E+04 -3.35511E+04
  4.02413E+04 -7.37650E+03  3.47946E+04  2.41784E+04  1.80558E+04  4.52827E+04 -8.38392E+03  4.88968E+04
 -3.15851E+04  3.40218E+04 -4.13780E+04  9.66974E+03 -4.25467E+04 -1.61837E+04 -2.35405E+04 -3.73152E+04
  7.81687E+03 -3.66980E+04  3.07184E+04 -1.37539E+04  2.81230E+04  1.10191E+04  3.15082E+03  1.94104E+04
 -1.29892E+04  7.70940E+03 -1.01307E+04 -7.20350E+03  5.17264E+03 -1.03065E+04  1.77416E+04  5.53626E+03
  1.39506E+04  2.13321E+04 -5.47997E+03  2.53413E+04 -2.30685E+04  1.08169E+04 -2.68166E+04 -5.38603E+03
 -2.04917E+04 -1.63951E+04 -7.16913E+03 -2.00146E+04  3.71419E+03 -1.85095E+04  1.55591E+04 -1.80863E+04
  2.54239E+04 -1.34989E+04  3.12773E+04  2.90425E+03  2.32933E+04  1.90748E+04  3.26646E+03  3.55533E+04
 -1.79801E+04  2.94935E+04 -2.84053E+04  9.90630E+03 -2.02117E+04 -9.57758E+03 -4.76853E+03 -1.39999E+04
  2.77358E+03 -2.78829E+03 -5.12620E+03  6.44923E+03 -1.46059E+04  5.77796E+03 -1.69422E+04 -7.25486E+03
 -9.28304E+03 -1.87050E+04  4.51816E+03 -2.31901E+04  1.48413E+04 -1.54901E+04  1.79737E+04 -9.93804E+02
  1.19104E+04  1.30055E+04 -3.13845E+03  1.78279E+04 -1.37006E+04  9.82991E+03 -1.90503E+04 -3.72729E+03
 -1.36484E+04 -1.58962E+04 -2.03506E+03 -2.22676E+04  1.09485E+04 -1.82358E+04  1.83424E+04 -9.16209E+03
  1.83765E+04  7.82059E+02  1.31975E+04  5.53027E+03  6.43548E+03  9.77379E+02  1.03242E+04 -1.42252E+03
  1.68837E+04  2.45484E+03  1.81150E+04  1.43270E+04  1.13295E+04  2.92300E+04 -2.98374E+03  3.27272E+04
 -1.97183E+04  2.75521E+04 -3.07840E+04  1.30409E+04 -3.36134E+04 -2.18695E+03 -2.73740E+04 -1.81904E+04
 -1.28092E+04 -2.73750E+04  9.47579E+03 -2.36952E+04  2.08800E+04 -1.20576E+04  1.97756E+04  5.80090E+03
  8.25643E+03  1.36207E+04 -7.75973E+03  1.35868E+04 -1.43952E+04  3.40002E+03 -1.26882E+04 -9.07297E+03
 -6.43252E+02 -1.52397E+04  7.06213E+03 -1.11393E+04  1.01554E+04 -8.05350E+02  1.84742E+03  6.52417E+03
 -7.01609E+03  2.17600E+03 -5.82408E+03 -5.44415E+03 -6.09838E+02 -1.30243E+04  9.60039E+03 -1.33629E+04
  1.63109E+04 -6.78342E+03  1.68169E+04  3.12968E+03  1.48616E+04  1.34608E+04  6.91173E+03  2.07016E+04
 -3.38471E+03  2.19516E+04 -1.37933E+04  1.32179E+04 -1.56231E+04  2.74758E+03 -1.17052E+04 -4.14494E+03
 -5.11584E+03 -3.91688E+03 -3.95120E+02  1.10104E+03 -2.49330E+03  4.03642E+03 -5.24578E+03  3.67180E+03
 -1.02869E+04 -1.51483E+03 -1.17945E+04 -9.39582E+03 -5.69194E+03 -1.44497E+04  4.71949E+03 -1.16300E+04
  8.11819E+03 -5.04241E+03  6.79349E+03  3.14013E+03  1.49167E+03  3.40485E+03 -4.92352E+03  4.03768E+00
 -5.24602E+03 -7.15385E+03 -4.12459E+01 -1.09807E+04  6.11119E+03 -1.10202E+04  1.44446E+04 -5.72340E+03
  1.66442E+04  1.10735E+03  1.19252E+04  9.69618E+03  1.83967E+03  1.34748E+04 -7.50329E+03  1.05986E+04
 -8.64590E+03  2.67763E+03 -5.17946E+03 -2.09394E+03  1.47277E+03 -2.65225E+03  6.53245E+03 -1.78681E+03
  4.36248E+03  5.24321E+03  1.18056E+03  8.58605E+03 -6.00833E+03  9.03846E+03 -1.02786E+04  2.28277E+03
 -6.12390E+03 -5.67348E+03  1.29703E+03 -8.36463E+03  4.61747E+03 -4.84512E+03  5.75678E+03  3.51289E+03
  2.27448E+03  5.02212E+03 -6.32832E+03  6.64042E+03 -7.53210E+03  3.38578E+03 -8.60092E+03 -1.72948E+03
 -3.81465E+03 -9.94404E+03  2.27630E+03 -1.04108E+04  9.15803E+03 -7.53459E+03  9.47612E+03  3.29874E+03
  5.05144E+03  8.06955E+03  5.38941E+02  9.95045E+03 -7.20432E+03  5.21655E+03 -9.05193E+03 -1.82453E+03
 -5.98953E+03 -7.78965E+03 -7.00172E+01 -7.90919E+03  4.30861E+03 -7.37064E+03  5.01634E+03 -3.46296E+03
  3.83739E+03  1.67961E+03 -5.13366E+02  1.99416E+03  6.31859E+01 -1.47858E+03  4.76156E+02 -4.36792E+03
  8.11279E+03 -2.35840E+03  9.78634E+03  1.37880E+03  1.11504E+04  5.25289E+03  7.05819E+03  1.24545E+04
 -2.73836E+03  1.50400E+04 -1.14104E+04  1.02406E+04 -1.46607E+04  1.47300E+03 -1.35747E+04 -4.31303E+03
 -6.50169E+03 -1.03891E+04 -2.09951E+03 -8.80683E+03  3.39710E+03 -4.57840E+03  3.20900E+03 -2.45299E+03
  1.67562E+03 -1.30623E+03  3.20189E+03 -1.96509E+03  5.78719E+03 -2.48324E+03  5.00827E+03 -8.14070E+02
  7.66929E+03  2.08075E+03  3.34003E+03  5.30334E+03 -1.98333E+03  6.10774E+03 -7.43890E+03  4.27126E+03
 -8.12187E+03 -7.41005E+02 -4.95687E+03 -5.61154E+03  2.25662E+02 -8.08944E+03  5.94749E+03 -9.00766E+03
  9.40707E+03 -4.68789E+03  1.00501E+04  8.74603E+02  7.32447E+03  7.65420E+03  1.73062E+03  9.94188E+03
 -5.43194E+03  9.19240E+03 -6.35976E+03  3.21934E+03 -3.66308E+03 -1.92575E+03 -1.54613E+03 -1.87031E+03
 -1.08901E+03  5.45845E+02 -1.10140E+03  1.52212E+03 -3.32182E+03  1.94527E+03 -6.01968E+03 -6.15443E+02
 -4.04297E+03 -4.62861E+03  1.26739E+03 -6.32778E+03  4.71705E+03 -8.53599E+03  7.02563E+03 -2.77421E+03
  8.31784E+03  4.03193E+03  3.07196E+03  5.54921E+03 -6.64201E+02  7.63607E+03 -4.26598E+03  4.47921E+03
 -6.80245E+03  9.91140E+01 -5.38997E+03 -5.25805E+03  1.01416E+02 -6.94681E+03  1.94112E+03 -5.39662E+03
  3.61889E+03 -2.93672E+03  3.37733E+03  1.40036E+03  2.33724E+02  2.88446E+03  7.82782E+02 -1.32693E+02
  2.87196E+03 -9.40730E+02  6.69783E+02  1.03250E+03  1.96743E+03  2.79227E+03  1.53282E+03  3.30581E+03
 -2.73444E+03  6.58031E+03 -4.57188E+03  6.73291E+03 -7.79932E+03  1.56524E+03 -8.37139E+03 -2.14721E+03
 -4.20198E+03 -8.29236E+03  1.29198E+03 -7.33640E+03  3.73568E+03 -4.39330E+03  5.85221E+03 -1.07364E+03
  4.48218E+03  3.68635E+03  1.82849E+03  4.50599E+03 -1.19702E+03  2.72299E+03 -2.80661E+03 -8.54374E+02
 -1.23076E+03 -3.28385E+03  2.28758E+03 -2.02903E+03  2.67920E+03 -1.99623E+03  2.96839E+03 -4.71187E+02
  1.08465E+03  2.07300E+03  1.64678E+03  7.15953E+02 -9.26611E+02  2.05854E+03  2.49319E+03 -1.49167E+03
  6.56621E+02  4.59129E+02  2.71872E+03  3.43587E+02  1.52020E+03  2.61207E+03 -3.31054E+02  5.48471E+03
 -3.31593E+03  1.91480E+03 -5.72763E+03 -2.52072E+01 -3.74997E+03 -1.15192E+03 -1.71938E+03 -2.94802E+03
  3.53402E+02 -2.79128E+03  1.71809E+03 -1.40412E+03 -1.90380E+02  1.66389E+03 -1.39160E+03  2.16847E+03
 -3.10720E+03  1.05808E+03 -2.54899E+03 -1.87939E+03 -8.95025E+02 -3.35759E+03  7.24537E+01 -4.25256E+03
  2.19988E+03 -2.04775E+03  2.66013E+03 -2.99296E+02  3.10859E+03  8.52713E+02  6.23631E+02  1.69701E+03
 -4.68090E+02  1.26996E+02 -1.63176E+03 -1.61071E+03 -1.91350E+02 -1.29126E+03  2.24952E+03 -2.39205E+03
  4.11373E+03  4.37554E+02  5.42151E+03  2.51658E+03  1.37561E+03  4.75562E+03 -1.71649E+03  3.19061E+03
 -2.32316E+03  1.68176E+03 -3.98412E+03  2.53312E+02 -2.38470E+03 -2.92762E+03  1.27732E+03 -1.99852E+03
  2.56663E+03 -2.80085E+02  2.31967E+03  1.10984E+03  5.05364E+02  3.21562E+03  1.69610E+02  1.06843E+03
 -1.33389E+03  3.30283E+03 -9.83385E+02 -2.52127E+02  4.87279E+02  5.79756E+02 -8.14256E+02 -6.81638E+01
 -1.88954E+03  2.41458E+03 -3.49039E+03  6.41746E+02 -5.32234E+03  9.20281E+02 -4.34083E+03 -1.83566E+03
 -3.37952E+03 -4.58842E+03  1.01637E+03 -7.18454E+03  3.64182E+03 -5.07220E+03  5.51487E+03 -1.52967E+03
  5.54745E+03  7.99539E+02  2.55404E+03  3.47592E+03 -1.32762E+03  3.66283E+03 -3.21341E+03  3.32600E+03
 -2.67388E+03  1.83688E+03 -2.06846E+03 -1.00077E+02 -5.85671E+02  3.02437E+02  2.50383E+02 -4.70144E+02
 -3.40011E+02 -2.48286E+02 -2.61722E+03 -2.86627E+02  8.19368E+01 -1.26086E+03 -1.55730E+02 -2.22505E+03
  1.90121E+03 -1.62306E+03  1.29141E+03  4.17144E+02  3.37908E+03  2.40326E+03 -8.67285E+02  3.62524E+03
 -1.54259E+03  5.31249E+03 -3.92599E+03  1.90197E+03 -4.79201E+03 -4.59423E+02 -2.88452E+03 -3.05432E+03
 -1.62484E+03 -4.14611E+03  4.82323E+02 -4.21297E+03  1.29793E+03 -1.64453E+03  2.20342E+03 -2.13005E+02
  1.88930E+03  6.66756E+02  1.50349E+03  1.04544E+03  1.95906E+00 -1.04165E+03  2.89340E+02 -2.16344E+03
  1.23786E+03 -6.69068E+02  1.63329E+03  3.45080E+02  1.07451E+03  1.24272E+03  2.69126E+02  1.63525E+03
 -1.81815E+03  1.38660E+03 -2.27807E+03  8.59644E+02 -9.05769E+02 -1.49005E+03  1.64215E+02 -3.12630E+03
  2.03244E+03 -3.19704E+03  2.25821E+03 -9.43845E+02  3.24860E+03 -1.37136E+03  1.09717E+03  2.37834E+03
  9.55359E+02  1.57951E+03 -2.27819E+02  1.56259E+03 -2.46557E+03  1.39394E+03 -4.94486E+02  5.46978E+01
 -1.15160E+02 -7.89657E+01 -1.85287E+03  3.91732E+02 -1.36214E+03 -1.69057E+02 -2.47410E+03 -6.57355E+02
 -1.78608E+03  6.23958E+02  4.00160E+01 -1.93348E+03  7.12170E+02 -2.71501E+03  2.18990E+03 -2.37096E+03
  2.49565E+03 -2.21591E+02  9.54057E+02  4.55855E+02  2.95399E+02  2.87007E+03 -1.79615E+03  1.97081E+03
