 $NMID ID='MM_0lb_SNR200_7hz_g50_55.RAW', FMTDAT='(8E13.5)'
 TRAMP=1., VOLUME=1. $END
  3.10104E+05  1.56544E+03  3.37279E+05  2.51245E+05  8.50370E+04  3.38568E+05 -1.32293E+05  2.51144E+05
 -1.90611E+05  8.43548E+04 -1.11896E+05 -3.11382E+04 -1.27097E+02 -4.94926E+04  5.37526E+04 -5.12341E+02
  3.61044E+04  5.31246E+04 -1.86019E+04  7.62170E+04 -6.17519E+04  6.48708E+04 -8.55352E+04  3.27690E+04
 -8.32576E+04 -1.23364E+04 -5.95106E+04 -5.17484E+04 -1.58717E+04 -7.07661E+04  2.82062E+04 -4.65208E+04
  3.96693E+04  6.54005E+03  1.85301E+04  4.87799E+04 -3.59083E+04  4.79835E+04 -7.04958E+04 -3.95797E+02
 -5.51626E+04 -5.92190E+04 -7.71535E+03 -8.05948E+04  3.56936E+04 -5.67601E+04  4.96706E+04 -1.78336E+04
  4.55300E+04  1.20268E+04  3.36093E+04  2.66453E+04  1.66118E+04  3.14243E+04 -4.89953E+03  2.67021E+04
 -2.32073E+04  1.08016E+04 -1.88149E+04 -6.98764E+03  7.39289E+03 -7.67899E+03  2.58669E+04  1.40796E+04
  8.33941E+03  3.77822E+04 -3.43328E+04  3.81182E+04 -6.71449E+04  3.37253E+03 -5.92142E+04 -4.51638E+04
 -1.26619E+04 -6.67848E+04  4.18351E+04 -4.97198E+04  6.57152E+04 -1.84954E+03  3.89606E+04  3.42973E+04
 -5.07857E+03  3.99908E+04 -3.39633E+04  2.08287E+04 -3.35900E+04 -4.56191E+03 -1.98892E+04 -1.27082E+04
 -8.79796E+03 -1.64554E+04 -9.67030E+02 -2.02020E+04  8.90303E+03 -2.34276E+04  1.47698E+04 -1.32165E+04
  9.91733E+03  5.73941E+03 -1.07769E+04  1.35567E+04 -2.52419E+04 -7.41185E+03 -8.09269E+03 -3.80915E+04
  2.58197E+04 -4.92075E+04  5.35648E+04 -2.20206E+04  5.00811E+04  2.01797E+04  1.66984E+04  4.72552E+04
 -1.91744E+04  3.53623E+04 -2.88917E+04  4.33973E+03 -1.32134E+04 -3.16698E+04  2.26980E+04 -3.79273E+04
  4.55227E+04 -1.23116E+04  4.20729E+04  2.66403E+04  2.19416E+04  5.30561E+04 -9.76043E+03  5.83449E+04
 -3.93275E+04  3.75527E+04 -4.99456E+04  1.18695E+04 -5.14125E+04 -1.93316E+04 -2.85149E+04 -4.34442E+04
  9.63750E+03 -4.38657E+04  3.50485E+04 -1.79470E+04  3.20311E+04  1.10678E+04  7.17120E+03  2.14066E+04
 -1.57753E+04  9.92053E+03 -1.28695E+04 -8.21061E+03  5.31943E+03 -1.20349E+04  1.78402E+04  5.67807E+03
  1.55542E+04  2.26361E+04 -5.50109E+03  2.59775E+04 -2.56813E+04  1.58139E+04 -3.47871E+04 -1.82923E+03
 -2.80793E+04 -1.97517E+04 -1.35728E+04 -2.77593E+04  3.04778E+03 -2.90852E+04  2.07107E+04 -2.49602E+04
  3.56166E+04 -1.61583E+04  3.87126E+04  5.39545E+03  2.85556E+04  2.77756E+04  4.55177E+03  4.38437E+04
 -2.08074E+04  3.42914E+04 -3.09924E+04  1.14843E+04 -2.34110E+04 -1.06133E+04 -4.80875E+03 -1.30741E+04
  6.26230E+02 -6.78982E+02 -8.60825E+03  8.49496E+03 -2.26655E+04  4.01935E+03 -2.17521E+04 -1.24250E+04
 -1.51845E+04 -2.53485E+04  5.13083E+03 -3.02059E+04  1.88832E+04 -2.05068E+04  2.63492E+04 -9.53484E+02
  1.51618E+04  1.65098E+04  1.56169E+03  2.69776E+04 -1.93694E+04  1.42245E+04 -2.64856E+04 -4.83457E+03
 -1.94197E+04 -2.26623E+04 -1.81814E+03 -3.05747E+04  1.36938E+04 -2.49110E+04  2.40596E+04 -1.46387E+04
  2.32291E+04 -8.01352E+02  1.84157E+04  5.58141E+03  1.16853E+04  3.84296E+02  1.28334E+04 -2.34296E+03
  2.33319E+04  3.52574E+03  2.65884E+04  2.11796E+04  1.82780E+04  4.01390E+04 -2.86351E+03  4.87487E+04
 -2.92149E+04  3.91335E+04 -4.61694E+04  2.15722E+04 -4.78051E+04 -1.66585E+03 -3.95849E+04 -3.11281E+04
 -1.57214E+04 -4.24860E+04  1.62857E+04 -3.59103E+04  3.15295E+04 -1.50814E+04  2.57154E+04  9.32725E+03
  9.37801E+03  1.89887E+04 -1.19582E+04  1.75277E+04 -2.12549E+04 -3.91745E+01 -1.54232E+04 -1.53435E+04
  1.69659E+03 -2.20570E+04  1.23032E+04 -1.51174E+04  1.43558E+04 -4.39674E+02  3.73511E+03  9.05778E+03
 -8.19982E+03  3.95026E+03 -1.22052E+04 -8.45342E+03 -3.57625E+03 -1.94181E+04  1.37860E+04 -2.46525E+04
  2.38994E+04 -1.39310E+04  2.98934E+04  3.68110E+03  2.87178E+04  1.94209E+04  1.31312E+04  3.13625E+04
 -6.98511E+03  3.50444E+04 -2.33081E+04  2.23782E+04 -2.58917E+04  5.51594E+03 -1.68819E+04 -7.19183E+03
 -5.59824E+03 -8.05338E+03 -1.48236E+03 -1.92492E+03 -2.53405E+03  4.68566E+03 -9.46209E+03  7.03333E+03
 -1.57135E+04 -1.53571E+03 -1.32852E+04 -1.19109E+04 -8.57803E+03 -2.04818E+04  7.88195E+03 -1.81431E+04
  1.58864E+04 -5.94370E+03  1.09427E+04  5.46417E+03 -5.13949E+02  5.15690E+03 -1.12912E+04  9.57799E+02
 -1.08524E+04 -1.13480E+04 -1.60843E+03 -1.91882E+04  1.02051E+04 -1.91638E+04  2.29667E+04 -1.06353E+04
  2.76272E+04  1.39507E+03  2.07825E+04  1.71046E+04  3.34904E+03  2.04191E+04 -1.20665E+04  1.74462E+04
 -1.53746E+04  4.03354E+03 -7.19867E+03 -2.92432E+03  2.77004E+03 -6.80048E+03  1.02557E+04 -3.35828E+02
  8.92278E+03  8.42955E+03  2.13537E+03  1.35271E+04 -1.26971E+04  1.39783E+04 -1.78360E+04  2.30443E+03
 -1.16991E+04 -7.53148E+03  1.79320E+03 -1.58950E+04  1.06361E+04 -6.96119E+03  1.19507E+04  3.20999E+03
  2.76824E+03  1.13876E+04 -9.48425E+03  1.53170E+04 -1.67503E+04  4.95508E+03 -1.85971E+04 -4.45537E+03
 -9.36619E+03 -1.99175E+04  4.04887E+03 -2.08802E+04  1.75222E+04 -1.18766E+04  1.95276E+04  4.46365E+03
  1.08828E+04  1.61099E+04 -2.51889E+03  1.69648E+04 -1.39594E+04  1.08712E+04 -1.54887E+04 -6.25516E+02
 -1.34041E+04 -1.14504E+04 -1.85510E+03 -1.46039E+04  7.21249E+03 -1.23078E+04  9.52522E+03 -3.78827E+03
  5.78354E+03  2.61056E+03 -1.18760E+03  2.06655E+02 -4.18792E+01 -3.54174E+03  3.27839E+03 -9.19835E+03
  1.32145E+04 -7.15961E+03  2.12741E+04  1.16525E+03  1.68429E+04  1.59359E+04  1.05371E+04  2.60302E+04
 -6.12181E+03  2.87276E+04 -2.41859E+04  2.24770E+04 -3.06124E+04  3.32521E+03 -2.50738E+04 -1.19325E+04
 -1.32975E+04 -1.96806E+04 -2.51919E+03 -1.70132E+04  5.56620E+03 -1.16701E+04  6.63020E+03 -6.56447E+03
  4.81389E+03 -2.94880E+03  4.22888E+03 -6.11236E+03  5.59438E+03 -4.73303E+03  1.06625E+04 -2.03521E+03
  1.23672E+04  1.46850E+03  7.13154E+03  1.01150E+04 -2.05770E+03  1.49625E+04 -1.29189E+04  1.05101E+04
 -1.85634E+04 -4.45240E+02 -1.25604E+04 -1.33526E+04 -8.49553E+02 -2.18441E+04  1.06325E+04 -2.03716E+04
  2.07023E+04 -1.08476E+04  2.56338E+04  4.64045E+03  1.58860E+04  1.75422E+04  2.05981E+03  2.05367E+04
 -8.70615E+03  1.55139E+04 -1.36848E+04  5.46470E+03 -7.73661E+03 -3.14436E+03 -5.45877E+03 -4.49556E+03
 -1.05994E+03  2.79646E+02 -4.06643E+03  3.67854E+03 -7.06378E+03  2.43617E+03 -1.29840E+04 -2.69933E+03
 -9.89937E+03 -1.06473E+04 -1.62928E+03 -1.95473E+04  1.02896E+04 -1.50547E+04  1.83644E+04 -5.32031E+03
  1.94670E+04  8.64538E+03  1.07013E+04  1.70909E+04 -3.73815E+03  1.85196E+04 -1.46554E+04  1.15471E+04
 -1.82167E+04  9.39335E+02 -1.36636E+04 -1.35939E+04 -2.36057E+03 -1.52030E+04  9.28661E+03 -1.13747E+04
  1.33488E+04 -2.42480E+03  8.70934E+03  4.20204E+03  2.64990E+03  5.77179E+03  3.23436E+03  2.81871E+03
  4.10635E+03  1.24754E+03  4.94893E+03  2.83332E+03  4.67986E+03  5.49673E+03  5.98041E+03  9.41538E+03
 -3.50176E+03  1.50421E+04 -1.31831E+04  1.45685E+04 -2.01572E+04  3.06306E+03 -1.97706E+04 -8.02120E+03
 -9.83382E+03 -1.86801E+04  1.95166E+03 -1.91205E+04  1.33132E+04 -1.37118E+04  1.57616E+04 -5.16426E+03
  1.41603E+04  6.96320E+03  3.70215E+03  1.18714E+04 -5.24007E+03  6.32828E+03 -8.34721E+03 -1.36675E+03
 -4.31863E+03 -6.71242E+03  4.46299E+03 -9.75846E+03  8.77610E+03 -4.50684E+03  9.74021E+03  1.96601E+02
  6.11921E+03  3.43498E+03  2.64522E+02  4.38134E+03 -1.86493E+03  3.63684E+03  4.67132E+02 -9.09360E+02
  4.99966E+03 -1.75248E+03  9.07180E+03  4.25678E+03  3.64156E+03  9.65723E+03 -2.42520E+03  1.36484E+04
 -1.16952E+04  7.44353E+03 -1.40733E+04  1.48728E+03 -1.16082E+04 -5.27017E+03 -5.71764E+03 -6.34368E+03
  2.08085E+03 -8.43193E+03  5.81446E+03 -3.74706E+03  2.88770E+03  4.17289E+03 -1.93957E+03  7.33159E+03
 -6.62465E+03  4.12167E+03 -9.67061E+03 -4.26779E+03 -5.60780E+03 -1.20297E+04  5.59054E+02 -1.12852E+04
  7.35444E+03 -7.37212E+03  7.54099E+03 -2.00572E+02  6.60660E+03  2.08562E+03  1.56048E+03  7.41226E+03
 -4.56860E+03  2.85324E+03 -3.97386E+03 -6.34737E+03  4.59718E+02 -7.83946E+03  1.04014E+04 -8.09271E+03
  1.17951E+04  2.39570E+03  1.33948E+04  8.74906E+03  4.25222E+03  1.28183E+04 -6.63304E+03  1.12240E+04
 -1.10708E+04  6.12931E+03 -1.02223E+04 -6.59474E+02 -6.47508E+03 -8.64933E+03  1.99919E+03 -1.00032E+04
  9.71828E+03 -2.74881E+03  6.33238E+03  3.59717E+03  4.45014E+03  8.28737E+03 -1.71621E+03  6.10815E+03
 -4.23780E+03  3.77230E+03 -5.22120E+03  2.88856E+03 -1.41983E+03  1.29460E+03 -9.90707E+02  3.45364E+03
 -1.79452E+03  6.72324E+03 -9.88829E+03  5.93452E+03 -1.30784E+04 -3.74665E+02 -1.67455E+04 -8.91043E+03
 -8.04659E+03 -1.84162E+04  4.00502E+03 -2.17438E+04  1.21774E+04 -1.46463E+04  1.89400E+04 -7.50939E+03
  1.97352E+04  1.88813E+03  1.03065E+04  1.34752E+04 -5.49824E+01  1.58213E+04 -7.12220E+03  1.21890E+04
 -9.97536E+03  4.57583E+03 -4.63573E+03 -2.17026E+03 -2.88429E+02 -7.01726E+02 -1.61916E+03  1.11892E+03
 -2.85095E+03  8.55628E+02 -1.79839E+03 -2.51945E+03 -2.13875E+03 -3.57403E+03  1.95256E+02 -6.52179E+03
  4.86861E+03 -4.26606E+03  9.36936E+03 -1.23811E+03  9.84772E+03  8.41287E+03  4.46773E+03  1.46382E+04
 -4.83230E+03  1.63978E+04 -1.54522E+04  9.03362E+03 -1.87313E+04 -2.75559E+03 -1.29090E+04 -1.13685E+04
 -4.86685E+03 -1.53831E+04  4.36283E+03 -1.56132E+04  9.79512E+03 -7.25052E+03  1.02254E+04  1.61154E+03
  5.67217E+03  6.22053E+03 -1.94405E+02  2.60238E+03 -2.77433E+03 -1.54382E+02  1.79195E+02 -3.31649E+03
  4.40508E+03 -3.22873E+03  5.44407E+03  3.34860E+03  4.01466E+03  5.44497E+03 -7.76068E+02  8.52219E+03
 -7.81119E+03  5.88335E+03 -1.04222E+04  6.01966E+02 -6.32303E+03 -7.58096E+03 -1.99652E+03 -1.43588E+04
  7.45658E+03 -1.09083E+04  1.14214E+04 -1.43807E+03  1.24929E+04  2.61370E+03  7.23547E+03  9.78066E+03
 -1.03261E+03  9.51417E+03 -4.23958E+03  8.93896E+03 -6.80283E+03  4.37544E+03 -4.65864E+03  6.85086E+02
 -3.26743E+03 -1.49776E+02 -4.13183E+03  1.79276E+03 -6.30464E+03  2.52967E+03 -7.10660E+03 -2.61812E+03
 -8.04858E+03 -7.44289E+03 -1.95346E+03 -1.10359E+04  3.22374E+03 -1.10485E+04  7.96127E+03 -5.05889E+03
  1.03442E+04  2.42511E+03  8.13441E+03  8.99414E+03 -6.78840E+02  1.13075E+04 -6.15124E+03  4.38371E+03
