 $NMID ID='MM_0lb_SNR200_11hz_g45_8.RAW', FMTDAT='(8E13.5)'
 TRAMP=1., VOLUME=1. $END
  3.10306E+05 -6.26111E+02  3.38371E+05  2.51440E+05  8.47518E+04  3.37908E+05 -1.33015E+05  2.50538E+05
 -1.90264E+05  8.34520E+04 -1.11519E+05 -3.29534E+04 -7.42565E+02 -5.03691E+04  5.39667E+04  7.31323E+02
  3.68987E+04  5.24219E+04 -1.65142E+04  7.56929E+04 -6.02127E+04  6.23852E+04 -8.49330E+04  3.27640E+04
 -8.18754E+04 -1.12133E+04 -5.70599E+04 -5.11434E+04 -1.48473E+04 -7.03367E+04  2.74285E+04 -4.60890E+04
  4.18531E+04  3.63965E+03  1.65813E+04  4.79307E+04 -3.40239E+04  4.72350E+04 -6.91562E+04  3.06980E+02
 -5.48345E+04 -5.72811E+04 -5.74589E+03 -7.75537E+04  3.55471E+04 -5.59398E+04  5.09281E+04 -1.86913E+04
  4.52592E+04  1.25610E+04  3.24849E+04  2.43783E+04  1.54694E+04  2.93292E+04 -5.03380E+03  2.77161E+04
 -2.20617E+04  1.25716E+04 -1.83337E+04 -5.76876E+03  7.93958E+03 -6.80247E+03  2.28620E+04  1.32832E+04
  7.54173E+03  3.58721E+04 -3.32026E+04  3.61204E+04 -6.57272E+04  1.15499E+03 -5.81307E+04 -4.39068E+04
 -1.28518E+04 -6.49079E+04  4.08599E+04 -4.65074E+04  5.95384E+04 -2.01665E+03  3.55714E+04  3.39719E+04
 -6.11136E+03  3.95872E+04 -3.01997E+04  1.63468E+04 -3.18197E+04 -4.31251E+03 -1.83812E+04 -1.17246E+04
 -8.94184E+03 -1.40981E+04 -1.24531E+03 -1.84622E+04  8.42871E+03 -2.38839E+04  1.65346E+04 -1.29650E+04
  9.91229E+03  5.56081E+03 -8.45047E+03  1.30359E+04 -2.21720E+04 -6.46003E+03 -7.19068E+03 -3.63641E+04
  2.38410E+04 -4.40892E+04  5.05985E+04 -2.02019E+04  4.68755E+04  2.03621E+04  1.54864E+04  4.66622E+04
 -1.74521E+04  3.51144E+04 -2.63778E+04  1.88829E+03 -9.97844E+03 -2.88050E+04  2.11158E+04 -3.55429E+04
  4.21549E+04 -8.65690E+03  3.72667E+04  2.47165E+04  2.13404E+04  4.95437E+04 -8.33587E+03  5.30433E+04
 -3.51396E+04  3.61468E+04 -4.46674E+04  1.04801E+04 -4.53621E+04 -1.74448E+04 -2.51745E+04 -4.06334E+04
  9.13905E+03 -3.97117E+04  3.35523E+04 -1.53825E+04  3.15638E+04  9.77749E+03  6.11480E+03  2.03045E+04
 -1.47054E+04  9.95648E+03 -1.11690E+04 -8.55616E+03  4.36059E+03 -1.24496E+04  1.72745E+04  4.98631E+03
  1.40451E+04  2.18128E+04 -5.42540E+03  2.52459E+04 -2.27649E+04  1.35812E+04 -2.89039E+04 -2.53660E+03
 -2.09845E+04 -1.83922E+04 -9.79169E+03 -2.32697E+04  4.93469E+03 -2.15887E+04  1.87231E+04 -2.18556E+04
  2.99918E+04 -1.28398E+04  3.44376E+04  4.07104E+03  2.51969E+04  2.10834E+04  4.48076E+03  3.98516E+04
 -1.88124E+04  3.21139E+04 -3.04467E+04  1.14506E+04 -2.35516E+04 -9.35934E+03 -2.83602E+03 -1.22886E+04
  1.94964E+03 -1.39333E+03 -6.12432E+03  6.09338E+03 -1.79113E+04  5.41411E+03 -1.82005E+04 -7.59007E+03
 -1.11933E+04 -1.97626E+04  6.84849E+03 -2.37949E+04  1.64093E+04 -1.79667E+04  2.12648E+04 -2.52283E+03
  1.29850E+04  1.40857E+04 -1.28649E+03  2.29818E+04 -1.48958E+04  1.16253E+04 -2.16232E+04 -3.83542E+03
 -1.50788E+04 -1.78201E+04 -2.47201E+03 -2.54088E+04  1.16151E+04 -1.99854E+04  2.05701E+04 -9.54836E+03
  1.83698E+04 -3.20354E+02  1.52643E+04  4.78764E+03  8.56961E+03  1.56891E+03  9.95781E+03 -2.17468E+03
  2.08234E+04  3.38775E+03  2.13320E+04  1.58064E+04  1.58687E+04  3.39501E+04 -3.43670E+03  3.92005E+04
 -2.39346E+04  3.23523E+04 -3.60870E+04  1.61638E+04 -3.84852E+04 -2.90638E+03 -3.14080E+04 -2.30964E+04
 -1.35877E+04 -3.32278E+04  1.28588E+04 -2.82485E+04  2.39847E+04 -1.25521E+04  2.02604E+04  7.05149E+03
  8.13782E+03  1.67245E+04 -1.09353E+04  1.38563E+04 -1.87081E+04  3.52465E+03 -1.38902E+04 -1.07113E+04
  4.84816E+02 -1.71717E+04  9.54352E+03 -1.28866E+04  1.17572E+04 -1.73619E+03  1.26894E+03  7.95945E+03
 -7.74853E+03  3.95278E+03 -8.69793E+03 -5.62857E+03  7.29554E+01 -1.64236E+04  1.07060E+04 -1.60380E+04
  1.99175E+04 -8.63364E+03  2.16329E+04  5.12563E+03  1.91875E+04  1.54209E+04  8.87678E+03  2.44548E+04
 -4.42576E+03  2.67510E+04 -1.56527E+04  1.73728E+04 -1.91134E+04  4.33811E+03 -1.39444E+04 -3.60190E+03
 -6.14864E+03 -7.22431E+03  3.60438E+02 -3.23082E+02 -3.20919E+03  3.82818E+03 -5.72022E+03  4.89649E+03
 -1.17379E+04 -1.67317E+03 -1.26497E+04 -1.07143E+04 -6.17272E+03 -1.63524E+04  5.75884E+03 -1.31175E+04
  1.19803E+04 -4.96465E+03  7.89454E+03  2.30419E+03  3.64256E+02  4.68364E+03 -5.56849E+03 -2.81664E+02
 -7.13460E+03 -8.56766E+03 -2.31083E+03 -1.29476E+04  8.46472E+03 -1.45549E+04  1.71943E+04 -6.88765E+03
  2.11811E+04  1.20723E+03  1.41438E+04  1.22157E+04  3.97568E+03  1.54346E+04 -9.82750E+03  1.31649E+04
 -1.15197E+04  5.66603E+03 -3.53874E+03 -1.82167E+03  1.59620E+03 -3.25572E+03  5.39742E+03 -2.79460E+03
  5.48281E+03  5.95047E+03  1.14091E+03  1.10552E+04 -6.19593E+03  1.10857E+04 -1.41521E+04  1.97188E+03
 -7.79512E+03 -7.52887E+03  1.10644E+03 -1.08627E+04  7.44946E+03 -5.37370E+03  8.18749E+03  1.86493E+03
  6.98321E+02  7.03462E+03 -6.88493E+03  9.71606E+03 -1.17696E+04  6.33948E+03 -9.81215E+03 -4.48571E+03
 -6.13843E+03 -1.17299E+04  4.68329E+03 -1.44937E+04  1.33334E+04 -8.41404E+03  1.39189E+04  2.19042E+03
  7.78134E+03  1.04227E+04 -8.36359E+02  1.31851E+04 -1.01698E+04  8.45815E+03 -1.15519E+04 -1.80232E+03
 -8.59372E+03 -8.24701E+03 -9.01726E+02 -9.89288E+03  5.20099E+03 -6.57870E+03  5.27067E+03 -5.01139E+03
  3.44228E+03  1.10717E+03  4.45840E+02  9.35384E+02 -2.90156E+03 -2.08837E+03  2.94935E+03 -5.43967E+03
  9.71748E+03 -3.59757E+03  1.04826E+04  7.62871E+02  1.23073E+04  8.11956E+03  8.98944E+03  1.59030E+04
 -5.14449E+03  1.86226E+04 -1.65764E+04  1.47369E+04 -2.01642E+04  1.64328E+03 -1.66688E+04 -7.07896E+03
 -7.61641E+03 -1.38242E+04 -4.53930E+02 -1.19132E+04  3.45373E+03 -7.03568E+03  3.72472E+03 -4.20296E+03
  2.53003E+03  3.43282E+02  4.06413E+03 -2.48288E+03  4.78113E+03 -3.44020E+03  7.08772E+03 -5.53062E+02
  9.06217E+03  2.77209E+03  4.50031E+03  6.95819E+03 -2.82020E+03  8.34710E+03 -9.40406E+03  6.07997E+03
 -1.11759E+04 -1.72832E+03 -6.02652E+03 -7.41923E+03 -3.01740E+02 -1.38462E+04  7.95539E+03 -1.30797E+04
  1.23449E+04 -6.41292E+03  1.61374E+04  1.08761E+03  1.02300E+04  9.84650E+03  2.86263E+03  1.46578E+04
 -5.80412E+03  1.15858E+04 -8.42269E+03  3.07767E+03 -4.97885E+03 -2.67578E+03 -2.16136E+03 -9.12464E+02
 -1.00934E+03 -7.33582E+02 -1.46522E+03  2.53992E+03 -3.52029E+03  1.67475E+03 -7.56479E+03 -1.63575E+03
 -5.29838E+03 -9.98084E+03  1.29383E+03 -1.30142E+04  6.64706E+03 -1.10637E+04  1.05286E+04 -2.61503E+03
  1.08750E+04  5.13917E+03  4.24984E+03  9.45331E+03 -2.39744E+03  1.10929E+04 -8.19145E+03  6.93808E+03
 -1.05776E+04 -4.64019E+02 -7.28037E+03 -7.83416E+03 -2.32379E+03 -8.71765E+03  4.55579E+03 -7.18756E+03
  7.73953E+03 -3.02330E+03  5.04879E+03  1.23841E+03  2.29468E+03  3.50739E+03  1.03964E+03  1.23906E+03
  1.46170E+03  2.67653E+03  1.70574E+03  2.17150E+03  3.22157E+03  3.78757E+03  2.92253E+03  5.23101E+03
 -2.99779E+03  9.29086E+03 -6.94624E+03  1.11830E+04 -1.08884E+04  2.93235E+03 -1.04157E+04 -4.32602E+03
 -5.62171E+03 -1.07341E+04  1.08692E+03 -1.28497E+04  7.17626E+03 -8.06447E+03  7.23825E+03 -1.97887E+03
  6.86708E+03  4.61329E+03  2.22828E+03  5.35933E+03 -3.75741E+03  3.89544E+03 -4.79492E+03  3.85375E+01
 -1.85477E+03 -5.91263E+03  2.67717E+03 -5.82956E+03  4.04066E+03 -2.25692E+03  5.20447E+03  1.57751E+03
  1.93058E+03  1.54356E+03  1.07402E+03  1.72503E+03 -7.74600E+02  1.91335E+03  1.28703E+03  8.46221E+02
  5.18544E+02 -1.09120E+03  4.62814E+03  1.97267E+03  3.15792E+03  3.54177E+03 -2.31673E+02  7.33598E+03
 -4.40755E+03  5.59154E+03 -6.95790E+03  1.71387E+03 -5.92738E+03 -2.45152E+03 -3.26520E+03 -5.07442E+03
  1.77536E+03 -2.93505E+03  2.70239E+03 -9.30641E+02  1.74064E+03  2.94271E+03 -3.12728E+01  2.95855E+03
 -4.21027E+03  1.47652E+03 -4.57542E+03 -2.76846E+03 -1.74445E+03 -6.43404E+03  7.12893E+02 -5.14722E+03
  3.05981E+03 -3.10372E+03  5.37272E+03 -6.77472E+02  2.48674E+03  1.51764E+03  8.01167E+02  2.33136E+03
 -2.53102E+03  1.09239E+02 -3.14565E+03 -2.00264E+03  2.15136E+03 -4.05460E+03  5.43588E+03 -4.50380E+03
  6.81761E+03  1.47434E+03  5.23615E+03  3.91947E+03  4.65475E+03  8.40000E+03 -2.75810E+03  6.95525E+03
 -5.17529E+03  3.48381E+03 -6.18021E+03 -1.44183E+03 -2.50119E+03 -3.66752E+03  1.21738E+03 -4.54584E+03
  4.55323E+03 -2.01330E+03  2.89049E+03  1.22017E+03  1.31987E+03  4.39733E+03 -1.00898E+03  2.70335E+03
 -2.08995E+03  2.06613E+03 -1.59380E+03  1.30357E+02 -3.08364E+03  1.21344E+03 -1.20232E+03  1.83640E+03
 -1.87217E+03  1.83926E+03 -5.02778E+03  2.25155E+03 -5.12633E+03  5.10104E+02 -8.42796E+03 -5.73258E+03
 -4.20538E+03 -9.87013E+03  1.00003E+03 -1.05932E+04  5.70934E+03 -8.37670E+03  1.02789E+04 -3.82063E+03
  8.15800E+03  1.32858E+03  5.11776E+03  6.29776E+03  4.29271E+02  5.89745E+03 -3.96776E+03  7.24130E+03
 -4.31139E+03  2.29635E+03 -3.63580E+03 -7.32838E+02 -8.76796E+02 -1.25430E+03 -8.65290E+02 -2.15845E+02
 -1.04428E+03  3.35382E+02 -8.59547E+02 -3.75349E+02  5.64358E+02 -5.60746E+02  1.23913E+03 -2.19263E+03
  2.74594E+03 -1.24907E+03  3.89996E+03 -1.15833E+03  5.00610E+03  4.58071E+03  1.19004E+03  5.82286E+03
 -3.37600E+03  7.70199E+03 -7.19689E+03  4.80930E+03 -8.39648E+03 -6.68072E+02 -7.63741E+03 -5.36335E+03
 -2.71937E+03 -7.06262E+03  1.13289E+02 -6.64812E+03  4.43316E+03 -4.26101E+03  3.60313E+03 -3.58272E+02
  1.72219E+03  1.78168E+03  9.46879E+02  1.88216E+03 -2.18184E+03 -4.80573E+02 -7.10952E+01 -6.54325E+02
  1.82195E+03 -1.24626E+03  2.52648E+03  4.32787E+02  3.13393E+03  2.10906E+03  4.50608E+01  4.29645E+03
 -2.19267E+03  4.05983E+03 -4.03855E+03  1.47120E+03 -3.15999E+03 -2.48630E+03 -3.83583E+02 -6.90381E+03
  3.16005E+03 -5.57555E+03  5.13562E+03 -1.56921E+03  6.35431E+03  1.01457E+03  2.21047E+03  3.63476E+03
  6.63144E+02  3.78187E+03 -1.47580E+03  3.57020E+03 -4.86661E+03  2.68981E+03 -2.62615E+03  6.80709E+02
 -8.38674E+02 -4.86265E+02 -2.40342E+02 -1.56023E+03 -1.99763E+03  9.09860E+02 -1.68291E+03 -1.49892E+03
 -3.98546E+03 -1.63493E+03 -3.85594E+02 -5.66381E+03  2.87206E+03 -5.51945E+03  3.20466E+03 -3.29233E+03
  4.83565E+03 -1.61518E+03  2.35994E+03  4.39918E+03 -6.52375E+02  3.76642E+03 -3.59080E+03  3.13269E+03
