 $NMID ID='MM_0lb_SNR200_17hz_g60_13.RAW', FMTDAT='(8E13.5)'
 TRAMP=1., VOLUME=1. $END
  3.09132E+05 -4.34063E+02  3.38473E+05  2.50901E+05  8.48483E+04  3.37010E+05 -1.32679E+05  2.49913E+05
 -1.89288E+05  8.26999E+04 -1.12373E+05 -3.26405E+04  9.80450E+02 -5.01275E+04  5.37741E+04 -1.11280E+02
  3.39667E+04  5.31079E+04 -1.76097E+04  7.55215E+04 -6.09067E+04  6.22836E+04 -8.27972E+04  3.27024E+04
 -8.18560E+04 -1.02766E+04 -5.75632E+04 -5.05955E+04 -1.48529E+04 -6.96715E+04  2.74780E+04 -4.60181E+04
  4.01135E+04  4.37411E+03  1.66195E+04  4.85152E+04 -3.33568E+04  4.85704E+04 -6.70441E+04  3.43047E+02
 -5.27073E+04 -5.65151E+04 -6.13446E+03 -7.73796E+04  3.23901E+04 -5.57922E+04  4.73335E+04 -1.61921E+04
  4.37047E+04  1.08812E+04  3.18908E+04  2.55088E+04  1.62388E+04  2.87540E+04 -6.16554E+03  2.73311E+04
 -2.21719E+04  1.23232E+04 -1.87054E+04 -3.51731E+03  4.95315E+03 -6.42759E+03  2.29651E+04  1.18800E+04
  7.22783E+03  3.44624E+04 -3.20361E+04  3.45256E+04 -6.15962E+04  9.66705E+02 -5.64709E+04 -4.20849E+04
 -1.23405E+04 -6.24204E+04  3.94372E+04 -4.58273E+04  5.67103E+04 -2.35047E+03  3.39759E+04  3.04308E+04
 -5.93533E+03  3.67631E+04 -2.98640E+04  1.68030E+04 -2.94336E+04 -3.04806E+03 -1.71348E+04 -1.17005E+04
 -8.87938E+03 -1.25390E+04 -6.48333E+01 -1.77350E+04  7.40539E+03 -2.17785E+04  1.65643E+04 -1.31295E+04
  1.18631E+04  4.18537E+03 -8.01307E+03  1.27885E+04 -2.20425E+04 -4.47946E+03 -7.53699E+03 -3.26338E+04
  2.27269E+04 -4.35317E+04  4.86277E+04 -1.92543E+04  4.46827E+04  1.84204E+04  1.56066E+04  4.25951E+04
 -1.57021E+04  3.31075E+04 -2.55613E+04  5.33690E+02 -9.16059E+03 -2.75522E+04  2.23298E+04 -3.33481E+04
  4.11691E+04 -8.81336E+03  3.49883E+04  2.25074E+04  1.83604E+04  4.47634E+04 -8.05635E+03  4.86571E+04
 -3.21084E+04  3.29974E+04 -4.06587E+04  9.40785E+03 -4.22624E+04 -1.62353E+04 -2.26562E+04 -3.56095E+04
  6.07995E+03 -3.64619E+04  3.07906E+04 -1.44737E+04  2.92111E+04  1.01767E+04  3.67244E+03  1.90307E+04
 -1.47792E+04  9.20103E+03 -1.11202E+04 -7.91872E+03  6.10270E+03 -1.06008E+04  1.77631E+04  5.88905E+03
  1.39414E+04  2.16579E+04 -5.91294E+03  2.40847E+04 -2.14888E+04  1.15096E+04 -2.77998E+04 -4.72842E+03
 -1.95976E+04 -1.67781E+04 -7.29533E+03 -1.95738E+04  3.91868E+03 -1.89907E+04  1.48653E+04 -1.71661E+04
  2.51661E+04 -1.23347E+04  3.02870E+04  1.79287E+03  2.37234E+04  1.96247E+04  4.40618E+03  3.46478E+04
 -1.81196E+04  2.95892E+04 -2.73465E+04  9.31264E+03 -1.96959E+04 -1.02410E+04 -4.80606E+03 -1.29313E+04
  2.23809E+03 -2.89946E+03 -3.94452E+03  5.87235E+03 -1.45887E+04  4.65906E+03 -1.54625E+04 -7.08643E+03
 -8.20987E+03 -1.79158E+04  4.94847E+03 -2.13604E+04  1.43777E+04 -1.57500E+04  1.73795E+04 -2.34050E+03
  9.86677E+03  1.19828E+04 -9.76611E+02  1.74212E+04 -1.21700E+04  1.05345E+04 -1.84807E+04 -3.54477E+03
 -1.35253E+04 -1.48671E+04 -2.14487E+03 -2.12587E+04  1.02047E+04 -1.77756E+04  1.80498E+04 -8.07546E+03
  1.70704E+04 -5.70999E+02  1.20031E+04  3.53571E+03  6.88177E+03  1.15940E+03  9.39664E+03 -1.75755E+03
  1.58878E+04  3.52371E+03  1.71181E+04  1.38913E+04  1.14212E+04  2.81175E+04 -3.38675E+03  3.07320E+04
 -1.81570E+04  2.48320E+04 -2.96319E+04  1.11425E+04 -3.03094E+04 -2.01600E+03 -2.63477E+04 -1.73570E+04
 -1.07362E+04 -2.52012E+04  1.01933E+04 -2.28661E+04  1.99141E+04 -1.12886E+04  1.82098E+04  5.21657E+03
  7.60312E+03  1.24949E+04 -9.17308E+03  1.15286E+04 -1.55928E+04  3.24125E+03 -1.13156E+04 -9.46215E+03
 -6.18418E+02 -1.38088E+04  7.51984E+03 -1.17810E+04  8.90936E+03 -6.38200E+02  2.99119E+03  7.23688E+03
 -5.05137E+03  2.27638E+03 -5.43991E+03 -4.32373E+03  4.81472E+02 -1.23206E+04  7.79985E+03 -1.25642E+04
  1.54948E+04 -6.34574E+03  1.56615E+04  2.92047E+03  1.21566E+04  1.03077E+04  7.40484E+03  1.70268E+04
 -3.24860E+03  1.93502E+04 -1.28225E+04  1.10817E+04 -1.44045E+04  3.26103E+03 -1.08506E+04 -1.95751E+03
 -5.39770E+03 -4.69220E+03 -7.52204E+02  6.56446E+02 -1.67882E+03  1.97039E+03 -3.79106E+03  4.31297E+03
 -1.00882E+04 -1.11712E+03 -9.80842E+03 -8.45901E+03 -3.28300E+03 -1.25348E+04  3.93885E+03 -9.95577E+03
  7.30652E+03 -4.73221E+03  6.02220E+03  3.08474E+03  1.07584E+03  3.58459E+03 -4.61513E+03 -8.65773E+02
 -5.28551E+03 -6.47193E+03 -1.22367E+03 -8.87022E+03  5.12514E+03 -9.46117E+03  1.14153E+04 -4.37830E+03
  1.53175E+04  1.81007E+03  1.05543E+04  7.18528E+03  3.23705E+03  1.12294E+04 -6.46100E+03  9.27064E+03
 -8.88946E+03  3.21738E+03 -4.88791E+03 -2.03131E+03  1.71242E+03 -3.05407E+03  4.98902E+03 -1.08571E+03
  4.38218E+03  5.20231E+03  1.22216E+03  8.39285E+03 -5.00774E+03  7.95259E+03 -9.85980E+03  9.68829E+02
 -5.50565E+03 -4.26083E+03  6.25738E+02 -7.67134E+03  4.55316E+03 -4.01747E+03  3.87566E+03  1.88066E+03
  1.26051E+03  3.28558E+03 -6.44694E+03  6.52065E+03 -6.59521E+03  2.14585E+03 -6.78769E+03 -1.75929E+03
 -3.91065E+03 -7.11613E+03  2.51666E+03 -9.69098E+03  7.41396E+03 -5.83652E+03  8.53409E+03  7.89946E+02
  6.46449E+03  6.15121E+03 -5.28676E+02  9.11573E+03 -7.26942E+03  5.07349E+03 -6.75445E+03 -2.06314E+02
 -6.53872E+03 -6.23885E+03 -7.54520E+02 -7.15452E+03  3.14495E+03 -3.69651E+03  3.06016E+03 -2.28912E+03
  2.82617E+03 -4.82825E+02  5.73222E+02  1.29153E+03  1.63915E+03 -7.17704E+02  6.34370E+02 -2.93221E+03
  5.42631E+03 -1.00743E+03  5.35591E+03  2.34876E+03  8.07803E+03  3.26732E+03  5.68776E+03  1.06828E+04
 -1.19859E+03  1.03661E+04 -1.03160E+04  8.23864E+03 -1.33122E+04  2.28864E+03 -1.00245E+04 -4.48711E+03
 -5.69238E+03 -8.58996E+03  7.08624E+02 -7.83649E+03  3.17628E+03 -2.78239E+03  2.42220E+03 -3.39245E+03
  1.40011E+03 -2.36979E+03  2.22637E+03 -3.19875E+03  4.16360E+03 -2.58932E+03  4.08260E+03 -5.00063E+02
  5.36317E+03  1.89248E+03  2.48393E+03  4.92677E+03 -2.79342E+03  3.10925E+03 -5.02492E+03  3.32463E+03
 -7.29550E+03 -8.48692E+02 -2.69239E+03 -4.60992E+03 -4.36382E+02 -5.94326E+03  3.79963E+03 -8.10609E+03
  6.16214E+03 -3.95867E+03  8.51833E+03  6.44052E+02  5.61613E+03  6.15727E+03  9.22772E+02  7.25378E+03
 -3.23285E+03  6.10141E+03 -5.16121E+03  2.16723E+03 -2.50932E+03 -1.49201E+03 -7.38965E+02 -9.30838E+02
 -3.59391E+02  4.16813E+02 -8.66296E+02  2.29665E+03 -2.35100E+03  9.58554E+02 -4.98778E+03 -1.53448E+03
 -2.18974E+03 -5.81109E+03  4.83603E+02 -7.03710E+03  2.60178E+03 -5.33734E+03  5.12543E+03 -1.83054E+03
  4.77718E+03  2.96050E+03  3.38276E+03  4.59339E+03 -1.40429E+03  5.91044E+03 -3.34132E+03  2.88328E+03
 -5.83911E+03 -2.07244E+02 -4.63764E+03 -3.16170E+03 -4.49235E+02 -4.37728E+03  2.92020E+03 -2.35943E+03
  2.97104E+03 -2.25758E+03  3.06932E+03  7.48584E+02  2.16023E+03  1.71666E+03 -1.22394E+02  4.91713E+02
  1.73998E+03  9.98544E+02  1.96737E+03  5.56489E+02  8.57086E+02  2.51428E+03  1.95412E+03  2.21804E+03
 -1.23421E+03  4.99656E+03 -2.80759E+03  5.06413E+03 -4.54162E+03  1.92736E+03 -5.51628E+03 -4.83026E+02
 -1.73143E+03 -4.32932E+03  6.22497E+01 -5.80457E+03  1.73206E+03 -4.47076E+03  3.89317E+03 -1.37512E+03
  3.41736E+03  2.48813E+03  1.03085E+03  3.62562E+03 -6.30159E+02  1.67257E+03 -1.66904E+03  4.69371E+02
 -7.31696E+02 -1.25142E+03  2.49980E+02 -2.44873E+03  8.15403E+02 -2.16029E+03  9.05977E+02  2.27590E+02
  2.75968E+02  1.17457E+03  1.03330E+02 -7.19949E+02 -1.00718E+03  7.10540E+02  1.88358E+03  6.82184E+02
 -7.28669E+02  5.34939E+02  2.34926E+03 -4.78992E+02  1.11125E+03  2.22259E+03  1.81211E+02  4.53451E+03
 -2.36469E+03  3.24388E+03 -2.92054E+03  4.42504E+02 -3.19126E+03 -1.65199E+03 -1.91452E+02 -9.13086E+02
  3.80573E+02 -1.17131E+03  1.21375E+03 -9.72967E+02  1.77704E+02  1.64892E+03 -1.18989E+02  1.16264E+03
 -2.75088E+03  1.91136E+03 -1.66004E+03 -2.29550E+03 -2.01083E+03 -2.11276E+03  2.14585E+02 -1.25286E+03
  3.50208E+02 -4.59353E+02  1.89222E+02 -3.55992E+02  1.84176E+03  3.65677E+02  8.25415E+02  7.42910E+02
 -1.14636E+01  2.52849E+02 -8.59172E+02 -1.64981E+03  1.20714E+03 -1.34215E+03  2.28447E+03 -7.37653E+02
  1.40213E+03 -7.92492E+01  2.89819E+03  1.84761E+03  3.56582E+02  3.05096E+03  3.33624E+02  1.87310E+03
 -1.56513E+03  2.18634E+01 -1.82841E+03  4.31118E+02 -1.72739E+03 -1.13794E+03 -1.01194E+02 -3.46242E+02
  1.35333E+03 -1.18260E+03  1.48311E+02  9.87564E+02 -2.71602E+02  2.12911E+03  6.34578E+02  2.43006E+03
 -7.72334E+02  1.60322E+03 -5.07878E+02  1.05095E+03  1.89916E+02 -4.05397E+02 -3.74362E+02 -5.04291E+02
 -1.60427E+03  1.18936E+03 -2.46814E+03  1.57921E+03 -3.30167E+03  4.28323E+02 -3.88429E+03 -5.21455E+02
 -1.61259E+03 -3.98520E+03  9.47382E+02 -3.67448E+03  9.32416E+02 -4.12430E+03  2.64341E+03 -1.10082E+03
  3.53054E+03 -1.71878E+02  1.83576E+03  2.93738E+03 -6.05129E+02  2.61676E+03 -2.16359E+02  1.64816E+03
 -2.02288E+03  6.11693E+02 -7.45613E+02  1.07773E+03  4.30602E+02  1.03267E+03 -1.32916E+03  1.66700E+02
 -9.42098E+02 -4.36691E-01 -5.39348E+02 -3.32747E+02  3.62070E+02  1.01035E+02  5.73502E+02 -1.63793E+03
  3.07561E+02 -1.36513E+03 -2.29381E+02  1.31222E+03  1.55344E+03  1.81244E+03 -6.98905E+02  3.00385E+03
 -1.02249E+03  2.84318E+03 -1.96433E+03  1.37881E+03 -2.09449E+03  1.39564E+02 -2.19304E+03 -1.89719E+03
 -8.39687E+02 -1.16891E+03  1.35338E+03 -1.62567E+03  1.29137E+03 -3.13775E+02  1.64797E+03  2.96189E+02
  7.79162E+02 -1.23790E+02 -5.34349E+02  6.72693E+02 -7.93974E+02  2.67496E+02  9.18458E+01 -1.13993E+01
  1.40507E+03  2.71700E+02  1.57936E+02  7.14087E+01 -1.17303E+02  1.04801E+03  1.13711E+03  7.03069E+00
 -8.73238E+02  1.52387E+03  1.15413E+02 -3.90723E+02 -3.89925E+02 -1.22442E+03  3.13590E+02 -5.64710E+02
  1.70534E+03 -1.24957E+03  9.10292E+02 -3.44398E+01  1.02817E+03 -4.86062E+02  4.52431E+02  1.20871E+03
 -7.03018E+02  9.07949E+02 -6.66212E+02  2.28650E+03 -5.03259E+02 -5.27661E+02  9.51872E+02  1.42324E+03
  8.90385E+02 -7.56626E+02 -2.51726E+02 -1.01040E+03 -2.39745E+01  9.25350E+02 -8.56012E+02  3.83052E+02
 -7.48234E+02 -2.01727E+02 -4.09253E+02 -3.65272E+02  1.12405E+02 -1.74113E+03  1.26023E+03 -8.79625E+02
  9.51467E+02  4.79129E+02  5.17266E+02  1.33140E+03  9.60789E+02  6.87601E+02 -1.92658E+03  2.07275E+03
