 $NMID ID='MM_0lb_SNR200_17hz_g45_9.RAW', FMTDAT='(8E13.5)'
 TRAMP=1., VOLUME=1. $END
  3.08957E+05  9.65501E+01  3.37678E+05  2.50228E+05  8.42775E+04  3.37678E+05 -1.32714E+05  2.51217E+05
 -1.90396E+05  8.20917E+04 -1.11666E+05 -3.32063E+04  1.73827E+03 -4.98449E+04  5.41650E+04  1.55704E+02
  3.48822E+04  5.27006E+04 -1.76911E+04  7.50248E+04 -6.02511E+04  6.15202E+04 -8.29728E+04  3.23662E+04
 -7.92648E+04 -1.01611E+04 -5.59370E+04 -5.15327E+04 -1.47077E+04 -6.86829E+04  2.60173E+04 -4.39983E+04
  3.91910E+04  4.55437E+03  1.54058E+04  4.73508E+04 -3.44264E+04  4.65115E+04 -6.60401E+04  1.82350E+02
 -5.21861E+04 -5.60752E+04 -6.70518E+03 -7.56237E+04  3.38228E+04 -5.35073E+04  4.68357E+04 -1.65209E+04
  4.18387E+04  1.18486E+04  3.09462E+04  2.50447E+04  1.61398E+04  2.90950E+04 -5.48365E+03  2.68118E+04
 -2.10271E+04  1.37581E+04 -1.94979E+04 -4.38300E+03  5.17229E+03 -8.41321E+03  2.02069E+04  1.09618E+04
  6.94272E+03  3.29789E+04 -3.06275E+04  3.37033E+04 -6.17547E+04  2.22504E+03 -5.61944E+04 -4.16897E+04
 -1.30706E+04 -6.02927E+04  3.74687E+04 -4.37980E+04  5.65013E+04 -1.84698E+03  3.18279E+04  2.96544E+04
 -5.99254E+03  3.31984E+04 -2.86858E+04  1.41031E+04 -2.72802E+04 -5.07305E+03 -1.58358E+04 -9.40094E+03
 -8.31786E+03 -1.18673E+04 -8.29101E+02 -1.82808E+04  6.45633E+03 -2.24929E+04  1.47624E+04 -1.34447E+04
  1.14623E+04  3.75881E+03 -6.03250E+03  1.26469E+04 -2.06175E+04 -2.79118E+03 -6.91938E+03 -3.09694E+04
  2.10792E+04 -4.16808E+04  4.46121E+04 -1.80165E+04  4.27574E+04  1.83384E+04  1.40625E+04  4.15387E+04
 -1.48735E+04  3.21044E+04 -2.26808E+04  5.78215E+02 -9.31141E+03 -2.76756E+04  1.97089E+04 -3.36667E+04
  3.81289E+04 -7.70498E+03  3.33068E+04  2.37640E+04  1.61949E+04  4.33438E+04 -9.09765E+03  4.61770E+04
 -2.81649E+04  3.10950E+04 -3.79341E+04  8.49419E+03 -3.85508E+04 -1.45528E+04 -2.06652E+04 -3.48273E+04
  6.78925E+03 -3.54712E+04  3.00735E+04 -1.24563E+04  2.84533E+04  1.12289E+04  3.83164E+03  1.86179E+04
 -1.36419E+04  7.01681E+03 -9.20841E+03 -8.19140E+03  5.89469E+03 -1.09323E+04  1.75180E+04  6.34827E+03
  1.41897E+04  2.13935E+04 -7.13162E+03  2.33988E+04 -2.23178E+04  1.01177E+04 -2.63529E+04 -6.56234E+03
 -1.77169E+04 -1.66526E+04 -6.88327E+03 -1.78616E+04  3.49971E+03 -1.53528E+04  1.26995E+04 -1.51872E+04
  2.15480E+04 -1.27307E+04  2.83260E+04  6.94441E+02  2.26161E+04  1.81823E+04  4.22809E+03  3.29197E+04
 -1.66442E+04  2.90917E+04 -2.66280E+04  1.05248E+04 -1.97749E+04 -9.11523E+03 -4.17995E+03 -1.44596E+04
  2.21273E+03 -4.32009E+03 -3.43007E+03  5.29727E+03 -1.37523E+04  4.81882E+03 -1.48162E+04 -5.68898E+03
 -8.28009E+03 -1.62886E+04  4.28106E+03 -1.91048E+04  1.27364E+04 -1.30730E+04  1.47107E+04 -2.13232E+03
  8.84545E+03  1.17643E+04 -4.83489E+02  1.56781E+04 -1.07837E+04  8.95303E+03 -1.54229E+04 -3.12250E+03
 -1.23850E+04 -1.51984E+04 -1.47745E+03 -1.95496E+04  8.56812E+03 -1.79963E+04  1.63375E+04 -8.17503E+03
  1.59030E+04 -4.74424E+02  1.01992E+04  3.69834E+03  5.60690E+03 -2.05814E+01  7.56721E+03 -3.09903E+03
  1.45322E+04  2.10780E+03  1.48287E+04  1.31680E+04  8.75725E+03  2.58909E+04 -2.96624E+03  2.91192E+04
 -1.75350E+04  2.23938E+04 -2.63557E+04  1.05413E+04 -2.63925E+04 -2.13642E+03 -2.28838E+04 -1.53898E+04
 -1.05908E+04 -2.09537E+04  8.52932E+03 -1.98591E+04  1.87274E+04 -1.12377E+04  1.63402E+04  3.81914E+03
  6.00325E+03  1.08590E+04 -6.81300E+03  1.22461E+04 -1.52306E+04  2.89738E+03 -1.00009E+04 -7.81946E+03
  9.03310E+02 -1.31517E+04  7.42250E+03 -1.16563E+04  7.97636E+03 -1.81721E+03  1.72476E+03  5.09659E+03
 -4.69948E+03  1.96168E+03 -3.76860E+03 -4.63308E+03  6.41441E+02 -1.18473E+04  8.23643E+03 -1.19862E+04
  1.38100E+04 -5.73661E+03  1.33568E+04  2.47257E+03  1.18218E+04  1.02078E+04  6.56411E+03  1.59723E+04
 -1.11766E+03  1.74906E+04 -9.72643E+03  1.15576E+04 -1.30052E+04  3.41145E+03 -9.23434E+03 -1.93995E+03
 -3.83724E+03 -3.29436E+03 -4.15190E+02  2.57174E+03 -2.45248E+03  2.03750E+03 -4.15256E+03  2.74870E+03
 -8.33710E+03 -8.20659E+02 -8.12235E+03 -7.17340E+03 -3.69765E+03 -1.24068E+04  3.60731E+03 -9.40616E+03
  7.69462E+03 -3.97532E+03  5.91562E+03  3.36535E+03  9.05679E+02  2.39142E+03 -3.89418E+03 -8.04192E+02
 -4.01130E+03 -5.98939E+03 -6.61401E+02 -8.17871E+03  4.38447E+03 -8.66331E+03  1.05078E+04 -4.30710E+03
  1.33659E+04  4.39031E+02  9.12223E+03  7.99252E+03  2.94745E+03  8.97805E+03 -5.54442E+03  9.05919E+03
 -7.14193E+03  4.06306E+03 -3.60008E+03 -2.09656E+03  6.98785E+02 -2.36773E+03  4.42193E+03 -1.10156E+03
  4.63823E+03  3.07068E+03  1.07942E+03  7.38647E+03 -4.47833E+03  6.46498E+03 -8.35661E+03  1.03714E+03
 -4.49167E+03 -4.46035E+03 -8.10799E+02 -7.08872E+03  5.31652E+03 -3.25805E+03  4.80414E+03  1.59332E+03
  7.30116E+02  4.76510E+03 -4.42551E+03  5.55350E+03 -6.33767E+03  1.70048E+03 -6.07313E+03 -1.50857E+03
 -3.26302E+03 -6.58673E+03  4.99664E+02 -7.93779E+03  6.45252E+03 -4.34183E+03  6.66666E+03  3.97289E+02
  5.33303E+03  5.61101E+03  3.82930E+02  7.86148E+03 -6.22808E+03  4.41377E+03 -4.60785E+03 -2.72140E+02
 -6.92613E+03 -6.27530E+03 -9.25814E+02 -6.29986E+03  3.04196E+03 -5.22467E+03  3.30660E+03 -2.48604E+03
  3.19001E+03  5.93181E+01  5.90865E+02  1.91080E+03 -1.39433E+02 -6.95156E+02 -1.20407E+02 -2.07017E+03
  4.68764E+03 -1.12302E+03  5.85227E+03  7.70155E+02  6.38776E+03  4.32375E+03  6.62401E+03  8.32135E+03
 -1.19880E+03  9.72725E+03 -8.95405E+03  8.08501E+03 -1.19498E+04  9.85255E+02 -8.35559E+03 -3.24437E+03
 -5.16203E+03 -8.21106E+03 -1.67411E+02 -6.36236E+03  3.14891E+03 -3.20472E+03  1.52417E+03 -2.24996E+03
  8.63397E+02 -2.81823E+03  2.66116E+03 -1.74008E+03  4.00852E+03 -1.18980E+03  2.78706E+03  1.34698E+01
  4.57356E+03  5.47615E+02  4.71576E+02  3.85492E+03 -2.03751E+03  3.61124E+03 -4.04300E+03  3.74479E+03
 -5.62495E+03  1.41119E+02 -1.41012E+03 -3.98758E+03  7.73888E+02 -6.11150E+03  4.62242E+03 -6.62273E+03
  5.94629E+03 -3.86477E+03  7.08325E+03  1.13222E+03  5.37518E+03  5.71784E+03  5.31266E+02  7.26040E+03
 -3.82245E+03  6.94394E+03 -4.04367E+03  2.12409E+03 -3.72191E+03 -1.41577E+03 -8.87639E+02 -2.25014E+02
 -2.09041E+03  2.63947E+02 -9.96215E+02  3.21905E+03 -2.15683E+03  8.53833E+02 -4.32350E+03 -9.12493E+02
 -3.21898E+03 -4.73940E+03 -1.39992E+02 -5.54073E+03  3.50606E+03 -5.12434E+03  4.89063E+03 -8.42529E+02
  5.28381E+03  2.88497E+03  2.70110E+03  3.73117E+03 -4.16944E+02  5.66120E+03 -2.42917E+03  2.54796E+03
 -5.22987E+03  4.85024E+02 -4.03465E+03 -2.42135E+03 -1.01605E+03 -4.49852E+03  1.46109E+03 -2.93606E+03
  3.77202E+03 -1.82621E+03  2.14141E+03  6.06269E+02  9.01188E+02  2.37664E+03  1.41748E+03  1.26994E+03
  1.80537E+03 -5.99864E+01  1.43282E+03  1.34408E+03  1.92234E+03  2.73391E+03  9.74234E+02  1.60022E+03
 -1.34541E+03  3.25168E+03 -2.75692E+03  4.40401E+03 -4.19142E+03  1.14833E+03 -5.56248E+03 -5.30822E+02
 -2.47929E+03 -5.33818E+03  7.11658E+02 -6.22682E+03  3.17955E+03 -2.97432E+03  4.35715E+03 -7.83285E+02
  4.60109E+03  3.20562E+03  1.25932E+01  2.28375E+03 -4.21769E+02  1.46885E+03 -1.80937E+03 -6.25015E+02
 -9.56733E+02 -1.81997E+03  1.62870E+03 -2.22039E+03  2.58362E+03 -8.09565E+02  1.53186E+03 -2.00029E+02
  9.84463E+02  2.28428E+02  5.39525E+02  1.16584E+03 -8.66857E+02 -1.84585E+02  1.82228E+03 -6.15257E+02
  2.26181E+02 -8.44186E+02  2.74406E+03  8.33742E+02  4.11068E+02  1.69884E+03  3.61937E+02  4.38438E+03
 -2.19643E+03  3.90792E+02 -2.57742E+03  2.30461E+02 -2.75059E+03 -4.16084E+02 -2.00922E+01 -1.40405E+03
  6.08624E+02 -2.55740E+03  1.46427E+03 -6.91773E+02  1.18003E+03  9.31569E+02 -1.40173E+03  2.29290E+03
 -4.59048E+02  7.82687E+02 -2.28993E+03 -9.01672E+02 -1.25054E+03 -2.56827E+03  2.06505E+02 -1.84221E+03
  5.40838E+02 -1.61899E+02  2.49795E+02  1.19181E+02  1.58266E+03 -1.01694E+02 -1.23600E+03  1.63995E+03
 -7.75575E+02  3.50554E+02 -1.09437E+03 -1.66478E+03 -7.11066E+01 -2.74029E+02  1.18609E+03 -1.82839E+03
  1.66001E+03  3.98079E+02  3.83312E+03  1.06477E+03  7.46496E+02  2.26080E+03 -4.92717E+02  2.45727E+03
 -2.04533E+03 -1.15167E+02 -1.22077E+03 -1.12165E+03 -5.38954E+02 -1.93172E+03  7.41991E+02 -8.17785E+02
  1.72125E+03 -1.47169E+03 -1.20723E+02  2.03608E+03  6.63984E+02  4.12517E+02  1.66982E+02  1.62037E+03
 -2.06613E+03  7.86239E+02 -1.32049E+03  7.10516E+02 -5.05707E+02  6.38140E+02  7.03242E+02  4.51928E+01
 -2.41869E+02  1.41674E+03 -3.24025E+03  8.11286E+02 -2.50266E+03  1.59897E+02 -3.44915E+03 -7.89620E+02
 -2.85664E+02 -3.24519E+03  1.05335E+03 -3.77223E+03  1.04986E+03 -3.60545E+03  4.22051E+03 -1.46800E+03
  3.15851E+03  4.40464E+02  1.82947E+03  1.56712E+03 -6.70879E+02  1.21210E+03 -9.38846E+02  1.19730E+03
 -9.15942E+02  1.49211E+03 -1.50950E+03 -7.46471E+02 -2.94187E+02 -5.23164E+02 -1.38376E+03  2.96353E+02
 -1.27389E+03 -5.95696E+02  1.78118E+02 -3.12329E+02  6.25994E+02 -1.44008E+03 -3.53610E+00 -7.31960E+02
  1.83595E+03 -9.29079E+02  1.51473E+03  2.38806E+02  1.10656E+03  1.44949E+03 -8.27357E+01  2.83502E+03
 -2.82941E+02  2.94240E+03 -1.82722E+03  2.44867E+03 -2.48909E+03 -2.96859E+02 -1.55719E+03 -1.40269E+03
 -2.25818E+03 -2.66378E+03 -1.49966E+02 -2.28005E+03  1.16881E+03 -1.54837E+03  3.95922E+02 -4.66485E+02
  9.36671E+02  9.25696E+02  8.92861E+02  2.39731E+02  1.99419E+02  4.43320E+02  1.77447E+02 -7.29747E+01
 -1.55149E+02 -3.60021E+02  9.76337E+02  6.05905E+02 -7.45948E+02 -5.95930E+02  3.88733E+02  5.54135E+02
 -1.49484E+03 -1.42769E+01 -1.09409E+03 -6.33507E+02 -2.47606E+03 -4.65854E+02  2.85907E+02 -8.75447E+02
  7.16842E+02 -4.79542E+02  6.43126E+02 -1.56449E+02 -6.51991E+01 -5.09242E+02  1.79163E+03  1.36982E+03
  3.03964E+02  1.24855E+03 -6.32433E+02  1.33130E+02 -1.73409E+03  9.02114E+02 -1.36089E+03  3.96438E+02
  7.95660E+02  5.77498E+02  2.36857E+02  7.25968E+01 -5.71901E+02 -6.70570E+02 -1.75190E+03 -2.46562E+02
 -1.95633E+03  1.66600E+02 -4.24689E+02 -1.85221E+03  3.22399E+02 -8.63191E+02  6.04014E+02  5.85800E+02
  1.27815E+03  1.58983E+02 -3.32409E+02  2.10373E+01 -2.07355E+02  1.01827E+03 -9.92515E+02  1.78953E+03
