 $NMID ID='MM_0lb_SNR200_18hz_g45_67.RAW', FMTDAT='(8E13.5)'
 TRAMP=1., VOLUME=1. $END
  3.08719E+05  9.41867E+02  3.36396E+05  2.50834E+05  8.47826E+04  3.37725E+05 -1.32140E+05  2.50123E+05
 -1.88054E+05  8.23479E+04 -1.10384E+05 -3.27922E+04  1.33743E+03 -5.12709E+04  5.36279E+04 -8.02740E+01
  3.50606E+04  5.25013E+04 -1.64395E+04  7.55776E+04 -6.08264E+04  6.19845E+04 -8.21829E+04  3.24280E+04
 -8.00020E+04 -1.16861E+04 -5.54710E+04 -5.01801E+04 -1.45667E+04 -6.79098E+04  2.58325E+04 -4.44320E+04
  4.00219E+04  4.01651E+03  1.60841E+04  4.64899E+04 -3.36516E+04  4.60026E+04 -6.50005E+04 -8.59279E+02
 -5.13102E+04 -5.49862E+04 -6.37183E+03 -7.51545E+04  3.26115E+04 -5.40697E+04  4.63875E+04 -1.69834E+04
  4.16068E+04  1.05644E+04  3.01657E+04  2.42662E+04  1.52025E+04  2.96470E+04 -5.17673E+03  2.62493E+04
 -2.24818E+04  1.35969E+04 -1.95216E+04 -4.28184E+03  3.46886E+03 -7.19733E+03  2.09131E+04  1.12891E+04
  7.35945E+03  3.30296E+04 -3.10004E+04  3.43643E+04 -6.12376E+04  2.47841E+03 -5.52952E+04 -4.05206E+04
 -1.16444E+04 -6.10675E+04  3.85038E+04 -4.27367E+04  5.55231E+04 -2.18419E+03  3.21633E+04  3.11078E+04
 -6.76034E+03  3.27455E+04 -2.88098E+04  1.31451E+04 -2.69971E+04 -5.61998E+03 -1.53911E+04 -1.00727E+04
 -7.92904E+03 -1.10978E+04 -3.36790E+02 -1.69121E+04  6.59893E+03 -2.29674E+04  1.54604E+04 -1.39410E+04
  1.28781E+04  3.99621E+03 -5.90441E+03  1.28930E+04 -1.89990E+04 -2.78876E+03 -7.45163E+03 -2.94289E+04
  2.06302E+04 -4.06636E+04  4.49619E+04 -1.87983E+04  4.21554E+04  1.87819E+04  1.34761E+04  4.24957E+04
 -1.50470E+04  3.11511E+04 -2.41029E+04  5.98864E+02 -7.41630E+03 -2.54063E+04  2.03040E+04 -3.07798E+04
  3.83411E+04 -7.40620E+03  3.19125E+04  2.25031E+04  1.58486E+04  4.26858E+04 -7.22979E+03  4.60563E+04
 -2.90208E+04  2.96887E+04 -3.87178E+04  8.92275E+03 -3.89460E+04 -1.54504E+04 -2.15399E+04 -3.30868E+04
  7.50124E+03 -3.51993E+04  2.89168E+04 -1.34160E+04  2.66227E+04  1.15410E+04  3.52222E+03  1.76047E+04
 -1.27829E+04  7.04956E+03 -9.70898E+03 -7.65313E+03  6.00702E+03 -1.04123E+04  1.74322E+04  5.99466E+03
  1.27996E+04  2.20836E+04 -6.27668E+03  2.44987E+04 -2.08760E+04  9.19671E+03 -2.54854E+04 -7.42099E+03
 -1.61964E+04 -1.71320E+04 -6.37749E+03 -1.68024E+04  3.95611E+03 -1.46448E+04  1.22833E+04 -1.46341E+04
  2.30348E+04 -1.17118E+04  2.72994E+04  1.91161E+03  2.12576E+04  1.63009E+04  4.81787E+03  3.33454E+04
 -1.67439E+04  2.79853E+04 -2.68731E+04  9.02767E+03 -1.95524E+04 -1.00504E+04 -2.87134E+03 -1.34512E+04
  2.78122E+03 -4.07548E+03 -1.74136E+03  5.87518E+03 -1.33119E+04  4.40422E+03 -1.33632E+04 -4.22108E+03
 -8.93796E+03 -1.45651E+04  4.44167E+03 -2.01088E+04  1.26183E+04 -1.44123E+04  1.48861E+04 -1.80040E+03
  8.95671E+03  1.12316E+04 -1.17031E+03  1.55860E+04 -1.13238E+04  8.28654E+03 -1.52763E+04 -3.28936E+03
 -1.18174E+04 -1.31223E+04 -1.07393E+03 -2.01963E+04  8.33177E+03 -1.52081E+04  1.59629E+04 -7.92621E+03
  1.54574E+04 -1.90365E+01  1.07158E+04  3.96658E+03  5.38185E+03  1.58940E+03  6.85741E+03 -1.33388E+03
  1.36445E+04  2.47559E+03  1.51416E+04  1.22696E+04  9.86500E+03  2.48548E+04 -3.97134E+03  2.76860E+04
 -1.61473E+04  2.06467E+04 -2.47401E+04  1.05152E+04 -2.51394E+04 -1.50945E+03 -2.23715E+04 -1.44537E+04
 -9.83828E+03 -2.03463E+04  6.50503E+03 -1.90314E+04  1.71538E+04 -1.09258E+04  1.56456E+04  4.31721E+03
  5.89285E+03  1.07216E+04 -6.94075E+03  9.99987E+03 -1.32816E+04  2.54042E+03 -1.07079E+04 -7.91410E+03
  9.22563E+02 -1.17997E+04  6.55369E+03 -9.47912E+03  8.57172E+03 -1.41234E+03  1.77200E+03  4.61990E+03
 -5.36894E+03  2.07876E+03 -3.52936E+03 -4.76569E+03  6.79113E+02 -9.77463E+03  8.96162E+03 -9.68996E+03
  1.22582E+04 -6.17546E+03  1.32168E+04  2.20998E+03  8.75303E+03  9.14710E+03  5.82758E+03  1.36594E+04
 -1.60750E+03  1.68833E+04 -9.22332E+03  9.95818E+03 -1.21537E+04  2.56862E+03 -8.52459E+03 -2.17531E+03
 -4.44148E+03 -2.56872E+03 -2.90268E+02  1.54820E+03 -2.15382E+03  2.78900E+03 -2.59021E+03  4.43801E+03
 -8.15286E+03 -5.32300E+01 -8.28893E+03 -8.55337E+03 -3.37553E+03 -1.20931E+04  4.58377E+03 -7.89292E+03
  7.80949E+03 -3.62188E+03  4.87064E+03  2.72113E+03  1.51586E+03  3.13185E+03 -4.63899E+03  5.38997E+01
 -3.99077E+03 -5.35396E+03  8.11395E+02 -8.21043E+03  3.72288E+03 -7.63284E+03  1.05981E+04 -4.31848E+03
  1.16927E+04 -4.81172E+02  8.86631E+03  6.27793E+03  1.61558E+03  8.39639E+03 -5.17204E+03  8.10982E+03
 -7.65062E+03  1.67661E+03 -4.98778E+03 -3.80854E+02  9.82601E+02 -1.80700E+03  5.62524E+03 -2.26555E+03
  3.86077E+03  2.83391E+03  1.38177E+03  7.43357E+03 -4.96653E+03  6.47791E+03 -7.60294E+03  9.88406E+02
 -4.17652E+03 -4.18009E+03  4.33284E+02 -7.04524E+03  4.19233E+03 -2.99166E+03  4.16106E+03  1.56670E+03
  5.15556E+02  4.28492E+03 -4.83625E+03  5.90536E+03 -4.81325E+03  2.19461E+03 -4.93149E+03 -1.68351E+03
 -2.37337E+03 -6.85277E+03  2.49631E+03 -7.23129E+03  5.91190E+03 -4.43327E+03  6.51255E+03  1.39016E+03
  4.40991E+03  5.20903E+03 -6.76367E+01  7.77687E+03 -5.40353E+03  4.40592E+03 -5.59286E+03 -6.21960E+02
 -6.58269E+03 -5.31987E+03 -1.89300E+03 -5.55688E+03  2.63595E+03 -5.24227E+03  4.08158E+03 -2.62145E+03
  3.44186E+03  6.30271E+02  2.05774E+02  4.36497E+02  1.69474E+02  7.34035E+01  6.22680E+02 -2.26180E+03
  4.09852E+03 -9.57875E+02  5.86464E+03  1.89555E+03  6.40403E+03  3.38757E+03  5.21733E+03  6.60171E+03
 -1.31757E+03  9.23532E+03 -7.59665E+03  7.42773E+03 -1.05631E+04  8.59485E+02 -7.75256E+03 -2.37677E+03
 -3.93807E+03 -7.08348E+03  5.00207E+02 -5.36953E+03  1.35622E+03 -2.36238E+03  2.20162E+03 -2.28581E+03
  1.44487E+03 -1.60299E+03  1.68486E+03 -2.80955E+03  4.43675E+03 -4.68456E-01  4.37009E+03  9.60788E+02
  4.33156E+03  1.43161E+03  2.36211E+03  3.26961E+03 -1.10978E+03  2.63735E+03 -4.82801E+03  2.67752E+03
 -4.75398E+03 -2.22949E+03 -1.11443E+03 -3.85496E+03  1.30901E+03 -5.81034E+03  4.61009E+03 -6.43779E+03
  5.32843E+03 -2.42956E+03  7.12893E+03 -2.22020E+02  4.50120E+03  5.49673E+03  8.08201E+02  6.45649E+03
 -1.99414E+03  7.17189E+03 -3.40043E+03  1.51419E+03 -2.21049E+03 -1.72806E+03 -9.97092E+02  2.48598E+02
 -2.14811E+02  9.45917E+02 -1.74493E+03  2.35517E+03 -3.32725E+03  8.09064E+02 -4.15849E+03  1.23029E+01
 -1.90683E+03 -3.90518E+03  1.77940E+02 -4.81828E+03  3.07281E+03 -4.82346E+03  4.45806E+03 -1.35224E+03
  3.48688E+03  3.83757E+03  1.94025E+03  3.53218E+03 -1.06112E+03  5.02192E+03 -3.02848E+03  3.26254E+03
 -4.82975E+03  6.52930E+02 -2.66599E+03 -2.65730E+03 -1.21880E+03 -3.05090E+03  9.83733E+02 -2.17928E+03
  3.08004E+03 -1.61477E+03  1.91242E+03  7.84306E+02  5.93300E+02  6.72904E+02  2.24774E+03  7.71148E+02
  1.20279E+03  1.73367E+03  1.11989E+03  5.74134E+02 -3.80992E+02  1.70095E+03  1.02279E+03  6.77450E+02
 -2.12503E+03  3.95245E+03 -3.29274E+03  4.57811E+03 -4.28624E+03  1.21993E+03 -3.90072E+03 -1.08624E+03
 -2.37731E+03 -4.35217E+03  3.75788E+02 -4.90356E+03  9.07983E+02 -2.22106E+03  3.12151E+03  2.80008E+01
  3.47072E+03  8.56337E+02  8.51635E+02  1.80659E+03 -3.10472E+02  1.43477E+03 -1.28936E+02 -7.77568E+02
 -1.06068E+03  2.72179E+02  6.22701E+02 -1.31795E+03  1.31333E+03 -1.32499E+03  1.76392E+03 -2.57756E+01
  1.42520E+03 -2.72647E+02  1.17699E+03  5.04504E+02  1.17886E+03  1.15086E+03  2.10134E+03 -1.35525E+02
  8.06118E+02 -1.06911E+02  2.43246E+03  8.64268E+02  8.89946E+02  3.09433E+03 -4.75100E+02  2.55295E+03
 -2.80281E+03  6.87904E+02 -1.73178E+03  5.25790E+02 -1.98211E+03 -1.09898E+03 -6.58869E+02 -1.66389E+02
 -1.91321E+02  7.12728E+02  1.74792E+03 -9.62215E+02 -1.98742E+00  2.00036E+03 -2.59093E+02 -1.25744E+02
 -1.29849E+03  2.07745E+03 -1.69035E+03 -6.71585E+02 -1.58702E+03 -1.67915E+03  5.91082E+02 -2.41027E+03
  9.89433E+02 -9.19558E+02  7.76494E+02  7.22208E+01  5.83200E+02  7.77689E+02  1.22784E+02  1.61252E+03
 -2.60735E+02  4.72384E+02 -2.31714E+02  4.94820E+01  4.04256E+02 -1.22961E+03  2.83286E+03 -2.08089E+03
  5.96815E+02  1.19334E+02  3.66582E+03  5.88897E+02  9.96744E+02  1.89281E+03 -5.59301E+02  2.18206E+03
 -1.63182E+03 -6.64540E+02 -1.87674E+03  1.59789E+01 -2.13273E+03 -1.78418E+03 -3.84932E+02 -6.70751E+02
  1.73469E+03 -1.35748E+03  1.83136E+03  7.62423E+02  6.99292E+01  2.27938E+03 -6.88212E+02  4.95927E+02
  4.79905E+02  1.74885E+03 -1.23984E+03  8.30746E+02 -2.48955E+02  6.12608E+02 -1.21652E+03  4.97150E+02
 -1.01188E+03  1.62063E+03 -2.21239E+03  1.09825E+03 -1.82742E+03 -5.74018E+02 -2.28905E+03 -1.74867E+03
 -1.02972E+03 -2.40647E+03  2.21761E+02 -2.93780E+03  7.34006E+02 -2.29018E+03  2.89743E+03 -1.29576E+03
  2.65164E+03 -4.39574E+02  1.60923E+03  1.36279E+03 -1.02134E+03  2.01573E+03 -7.11713E+02  1.51769E+03
 -7.25451E+01  8.36522E+02 -1.62572E+03 -7.24945E+01  5.08279E+02  1.21283E+03 -1.11768E+03 -1.89752E+02
 -1.46213E+03 -1.92203E+02  3.89535E+00 -1.88229E+02  4.40208E+02  5.54963E+02 -3.32775E+01 -1.25787E+03
  2.50210E+02  8.25062E+02  1.20641E+03  1.85850E+02  1.01345E+03  1.61452E+03 -5.99066E+02  1.47403E+03
 -6.08511E+02  2.13957E+03 -2.24406E+03  1.02181E+03 -1.11381E+03 -4.54404E+02 -1.17983E+03 -1.40030E+03
 -1.67334E+03 -1.86151E+03  2.73224E+02 -2.37376E+03  1.49807E+03 -5.19170E+02  1.04670E+03 -2.44325E+02
  2.55558E+02  7.93673E+02 -2.50514E+02  4.94387E+02 -4.83213E+02 -6.00524E+02  1.54278E+02 -2.45330E+02
  5.73056E+02 -2.33894E+02  1.20233E+03  1.26685E+03  2.82457E+02 -6.11814E+02  1.06084E+03  3.22507E+01
 -2.52074E+02  7.71173E+02 -1.24459E+03  2.42318E+02 -1.42644E+03 -3.45625E+02 -2.13308E+02 -1.06225E+03
 -2.88418E+01 -8.76807E+02  1.05610E+03  2.09468E+01  1.51906E+03 -9.94987E+02  7.51065E+02  2.74635E+02
 -1.92764E+02 -9.58951E+00 -1.65434E+03  8.59184E+02 -2.78914E+02  7.43707E+02 -6.31182E+02  6.22662E+01
  2.58361E+02  1.59216E+02 -6.62205E+02  9.39508E+02 -9.42185E+02  3.28636E+02 -2.55206E+02  4.09132E+02
 -5.50009E+02  1.67866E+02 -8.37260E+02 -1.04150E+03  5.62362E+02 -2.81049E+03  9.25134E+02 -7.88762E+02
  2.12510E+03 -5.92665E+02 -6.12309E+02 -5.16098E+02  1.17981E+03  1.37713E+03  9.55777E+02  6.67814E+02
