 $NMID ID='MM_0lb_SNR200_15hz_g40_73.RAW', FMTDAT='(8E13.5)'
 TRAMP=1., VOLUME=1. $END
  3.10525E+05  1.32943E+02  3.38228E+05  2.49642E+05  8.53408E+04  3.37210E+05 -1.31990E+05  2.51374E+05
 -1.90317E+05  8.21092E+04 -1.11226E+05 -3.22244E+04  1.40753E+03 -4.96905E+04  5.30878E+04  6.72026E+02
  3.46722E+04  5.43883E+04 -1.67870E+04  7.49059E+04 -6.15369E+04  6.44033E+04 -8.38530E+04  3.13687E+04
 -8.10105E+04 -1.12853E+04 -5.72345E+04 -5.16439E+04 -1.55877E+04 -6.89634E+04  2.68312E+04 -4.56792E+04
  3.98372E+04  2.98890E+03  1.64265E+04  4.84664E+04 -3.43940E+04  4.67921E+04 -6.63894E+04  7.95354E+02
 -5.30442E+04 -5.58690E+04 -7.12308E+03 -7.66819E+04  3.28531E+04 -5.39476E+04  4.71330E+04 -1.57629E+04
  4.22168E+04  1.20736E+04  3.20808E+04  2.39025E+04  1.52814E+04  2.80293E+04 -4.83321E+03  2.62910E+04
 -2.15497E+04  1.29220E+04 -1.84727E+04 -5.42056E+03  3.89512E+03 -7.58157E+03  2.23120E+04  1.16446E+04
  8.39727E+03  3.32488E+04 -3.10542E+04  3.44343E+04 -6.11137E+04  2.22481E+03 -5.73725E+04 -4.20700E+04
 -1.32542E+04 -6.28534E+04  3.86935E+04 -4.48816E+04  5.65107E+04 -2.19448E+03  3.37994E+04  3.23706E+04
 -6.26330E+03  3.43599E+04 -2.93446E+04  1.48910E+04 -2.88254E+04 -3.16378E+03 -1.59105E+04 -1.01622E+04
 -8.14689E+03 -1.21092E+04 -4.16091E+02 -1.75584E+04  6.46273E+03 -2.17794E+04  1.59530E+04 -1.37646E+04
  1.20193E+04  4.22342E+03 -6.88169E+03  1.43901E+04 -1.97088E+04 -3.57499E+03 -8.76474E+03 -3.22017E+04
  2.27942E+04 -4.22685E+04  4.80915E+04 -1.96687E+04  4.44693E+04  1.94314E+04  1.50429E+04  4.25613E+04
 -1.61250E+04  3.35485E+04 -2.48106E+04  1.03051E+03 -8.66539E+03 -2.68021E+04  2.13727E+04 -3.20916E+04
  3.99967E+04 -8.85997E+03  3.38054E+04  2.42193E+04  1.79730E+04  4.51852E+04 -7.46779E+03  4.74848E+04
 -2.94841E+04  3.19609E+04 -4.08346E+04  9.71442E+03 -3.96066E+04 -1.65306E+04 -2.31541E+04 -3.68027E+04
  6.40961E+03 -3.64004E+04  3.06281E+04 -1.42318E+04  2.77925E+04  1.05248E+04  3.48433E+03  1.77560E+04
 -1.36438E+04  6.17081E+03 -9.06272E+03 -6.60276E+03  6.40571E+03 -1.10516E+04  1.72870E+04  5.54261E+03
  1.29516E+04  2.16058E+04 -6.94979E+03  2.50183E+04 -2.21987E+04  1.07671E+04 -2.59421E+04 -5.48512E+03
 -1.84240E+04 -1.56288E+04 -6.65571E+03 -1.89926E+04  3.92720E+03 -1.74731E+04  1.45875E+04 -1.59570E+04
  2.49405E+04 -1.25592E+04  3.00393E+04  2.53892E+03  2.39380E+04  1.85131E+04  3.36082E+03  3.41872E+04
 -1.58048E+04  2.80401E+04 -2.68710E+04  9.93213E+03 -2.10273E+04 -1.00906E+04 -4.04259E+03 -1.33086E+04
  1.02962E+03 -5.08524E+03 -3.31486E+03  6.44768E+03 -1.40441E+04  3.88195E+03 -1.40506E+04 -5.63755E+03
 -9.13925E+03 -1.73074E+04  5.07757E+03 -2.12076E+04  1.42873E+04 -1.52177E+04  1.67562E+04 -1.72284E+03
  1.03461E+04  1.26045E+04 -6.36227E+02  1.77981E+04 -1.10647E+04  9.83878E+03 -1.81179E+04 -3.47537E+03
 -1.32010E+04 -1.62931E+04 -3.71545E+02 -2.04789E+04  1.00544E+04 -1.74966E+04  1.79742E+04 -8.15258E+03
  1.70235E+04 -2.16149E+02  1.23540E+04  5.69387E+03  5.49922E+03  1.07449E+03  8.60455E+03 -1.34307E+03
  1.56268E+04  2.16422E+03  1.70624E+04  1.48676E+04  1.04998E+04  2.72646E+04 -2.66475E+03  3.00986E+04
 -1.81367E+04  2.54440E+04 -2.87171E+04  1.17555E+04 -2.91380E+04 -2.36942E+03 -2.49751E+04 -1.78339E+04
 -1.01053E+04 -2.44654E+04  7.21829E+03 -2.24853E+04  1.97111E+04 -1.22719E+04  1.81667E+04  4.15463E+03
  6.82679E+03  1.30560E+04 -6.59302E+03  1.35377E+04 -1.44053E+04  2.24883E+03 -1.12559E+04 -9.89296E+03
  1.83713E+02 -1.43944E+04  7.17805E+03 -1.08639E+04  9.63804E+03 -3.53673E+02  1.78252E+03  5.45778E+03
 -6.65250E+03  2.94565E+03 -3.95777E+03 -4.46811E+03  6.98386E+02 -1.17659E+04  9.89171E+03 -1.16875E+04
  1.42019E+04 -6.61921E+03  1.48382E+04  3.05613E+03  1.36100E+04  1.17931E+04  7.15578E+03  1.79894E+04
 -2.90215E+03  2.09602E+04 -1.13254E+04  1.18248E+04 -1.44970E+04  3.19833E+03 -9.95931E+03 -3.12385E+03
 -4.01405E+03 -3.93156E+03 -6.70974E+02  1.96111E+03 -2.40412E+03  2.36259E+03 -4.51797E+03  3.38719E+03
 -9.97542E+03 -1.20284E+03 -9.56063E+03 -8.51213E+03 -4.82844E+03 -1.33167E+04  5.61874E+03 -9.38798E+03
  9.22831E+03 -4.29967E+03  6.34291E+03  2.79361E+03  4.29205E+01  3.32339E+03 -4.49071E+03 -1.14710E+03
 -3.72824E+03 -5.42767E+03  2.88323E+02 -9.66257E+03  6.21851E+03 -9.52849E+03  1.14811E+04 -4.91125E+03
  1.53361E+04 -6.88639E+01  9.48762E+03  7.45544E+03  2.18038E+03  1.10930E+04 -6.08569E+03  1.07196E+04
 -8.55329E+03  4.04313E+03 -3.65911E+03 -1.34889E+03  1.91994E+03 -2.06449E+03  5.22114E+03 -7.95516E+02
  5.04816E+03  4.91927E+03  6.77181E+02  8.21956E+03 -5.29826E+03  7.36071E+03 -1.07753E+04  2.09660E+03
 -5.94911E+03 -5.27742E+03 -2.22776E+02 -8.18130E+03  4.96219E+03 -3.86278E+03  4.50723E+03  5.75853E+02
  3.25919E+02  5.62470E+03 -4.05926E+03  6.60258E+03 -6.75811E+03  2.02073E+03 -6.69225E+03 -1.99340E+03
 -4.05791E+03 -9.22290E+03  1.53078E+03 -1.07916E+04  7.97266E+03 -5.05782E+03  9.77434E+03  1.22985E+03
  5.91683E+03  7.93056E+03 -7.67402E+02  9.83360E+03 -6.04836E+03  4.77023E+03 -8.40137E+03 -1.07244E+03
 -6.74872E+03 -6.33233E+03 -2.02323E+03 -6.76635E+03  2.79248E+03 -6.31762E+03  3.37092E+03 -3.72279E+03
  3.85632E+03  2.59801E+02 -9.23286E+02  6.22182E+02  4.79026E+02 -9.56778E+02  5.68936E+02 -3.13465E+03
  6.19973E+03 -9.84630E+02  6.37002E+03  6.40677E+02  7.99529E+03  4.45661E+03  6.19039E+03  1.12442E+04
 -2.59971E+03  1.23952E+04 -9.98698E+03  9.12779E+03 -1.29907E+04  1.97846E+03 -1.06034E+04 -4.57286E+03
 -5.22938E+03 -9.28149E+03 -8.21367E+02 -7.57500E+03  3.11457E+03 -3.38795E+03  2.83047E+03 -3.12935E+03
  2.55190E+03 -2.12538E+03  2.94681E+03 -3.48749E+03  4.37878E+03 -1.65840E+03  4.23964E+03 -1.47624E+03
  6.14581E+03  4.72003E+02  2.54523E+03  5.85175E+03 -1.68049E+03  5.34401E+03 -5.40444E+03  4.21787E+03
 -7.52114E+03 -4.00015E+01 -4.25188E+03 -5.25478E+03  5.48411E+02 -7.46844E+03  5.24534E+03 -7.56059E+03
  7.69672E+03 -5.12625E+03  9.50202E+03  2.95053E+03  7.09725E+03  7.01382E+03  1.40975E+03  9.78967E+03
 -2.73268E+03  7.38912E+03 -4.95244E+03  2.52373E+03 -2.85998E+03 -2.90301E+02 -6.48202E+02 -1.07065E+03
 -7.66828E+02  5.51471E+02 -8.23232E+02  1.76704E+03 -2.35914E+03  1.32919E+03 -5.58681E+03 -1.78852E+03
 -2.37511E+03 -5.38694E+03 -8.48172E+01 -6.07769E+03  4.03586E+03 -6.69993E+03  5.28933E+03 -1.55779E+03
  5.18294E+03  3.81837E+03  2.55903E+03  5.24857E+03 -1.52416E+03  7.44334E+03 -4.81868E+03  3.97937E+03
 -5.61350E+03 -5.69840E+02 -5.77562E+03 -2.76074E+03  1.09892E+02 -5.04584E+03  2.35937E+03 -3.99159E+03
  4.20358E+03 -2.31836E+03  2.64659E+03  1.25800E+03  4.64452E+02  2.10026E+03  2.70441E+02  9.20901E+02
  1.54171E+03  2.05782E+03  1.68109E+03  6.23241E+02  1.17278E+03  2.97750E+03  1.21716E+03  3.80355E+03
 -1.23319E+03  4.55620E+03 -4.51779E+03  6.02620E+03 -6.97098E+03  7.18968E+02 -6.29621E+03 -1.06858E+03
 -2.20893E+03 -6.47096E+03  1.93878E+03 -5.45626E+03  2.98452E+03 -3.47700E+03  5.01656E+03 -1.90268E+02
  4.48071E+03  1.75061E+03 -1.30573E+03  3.42250E+03 -1.83792E+03  1.72971E+03 -1.38678E+03 -6.30041E+02
 -6.51249E+02 -2.89880E+03  1.17322E+03 -1.15008E+03  1.67882E+03 -9.63903E+02  2.40999E+03  1.00089E+03
  3.02145E+02 -5.63772E+02  8.88453E+02  2.94308E+02 -8.52457E+02  1.70571E+03  1.69973E+03 -1.42783E+03
 -3.08229E+02 -9.66757E+02  2.91808E+03  1.19025E+03  1.77661E+02  4.18943E+03 -4.11414E+02  4.56651E+03
 -3.28829E+03  2.41927E+03 -3.15102E+03  6.98180E+02 -3.11787E+03 -1.41630E+03 -8.86264E+02 -2.32042E+03
  6.00573E+02 -1.76034E+03  1.34192E+03 -1.13344E+03  1.06933E+03  1.24280E+03 -1.06513E+03  1.22157E+03
 -2.51242E+03  3.60863E+02 -2.49478E+03 -1.93400E+03 -2.53037E+03 -5.19457E+03  5.56579E+02 -3.27793E+03
  1.88471E+03 -3.15978E+03  4.20301E+02 -1.08821E+02  1.05733E+03 -1.30859E+03 -2.25930E+02  2.01867E+03
 -7.97145E+02  6.78959E+02 -1.94823E+03  3.84386E+01  8.85161E+02 -1.89640E+03  1.91208E+03 -1.98624E+03
  1.77790E+03  1.49227E+03  4.06364E+03  1.43835E+03  1.45452E+03  3.56613E+03 -6.36218E+02  3.77505E+03
 -2.26327E+03  1.22340E+03 -1.66593E+03  3.43023E+00 -1.61253E+03 -3.33375E+03  1.00410E+03 -1.88784E+03
  2.98131E+03 -1.43115E+03  1.84929E+03  7.72444E+02 -4.05037E+00  1.27932E+03 -2.25500E+02  2.39553E+03
 -2.19997E+03  1.52265E+03 -1.02217E+03 -4.36078E+02 -1.01934E+03  8.75045E+02 -1.17714E+03  5.42795E+02
 -1.28178E+03  9.67319E+02 -2.06177E+03  1.16479E+03 -3.12890E+03  1.20625E+03 -4.33652E+03 -1.34638E+03
 -3.01874E+03 -3.75152E+03  8.05365E+02 -6.82668E+03  2.45759E+03 -4.28149E+03  5.41360E+03 -2.82897E+03
  4.37817E+03 -2.95457E+02  2.67035E+03  3.55918E+03  4.28758E+01  3.67319E+03 -1.20935E+03  2.34381E+03
 -1.90904E+03  3.25232E+02 -6.96766E+02  3.79416E+02 -1.17825E+03  7.72325E+02 -3.38879E+02  1.14644E+03
 -1.73608E+03 -2.43847E+02 -1.61231E+03  1.79162E+02 -1.04042E+02 -5.81539E+02 -1.52385E+02 -1.49413E+03
  2.02745E+03 -1.01072E+03  2.85635E+03  3.05572E+02  7.68221E+02  1.29048E+03  6.23200E+02  3.17372E+03
 -1.81290E+03  3.63178E+03 -3.09418E+03  2.36197E+03 -4.36476E+03 -7.13474E+02 -2.23614E+03 -2.54530E+03
 -1.19437E+03 -4.05724E+03  1.44935E+03 -3.44245E+03  2.49958E+03 -1.83588E+03  1.68795E+03 -1.08966E+03
  2.24714E+02  2.84582E+02  9.06729E+02  1.02129E+03 -5.28530E+02 -4.36208E+02  9.94937E+01 -2.43709E+02
 -2.97206E+01 -7.13229E+02  5.99779E+02  5.50518E+02 -5.48777E+02  1.44496E+03  2.41951E+03  1.23148E+03
 -1.86610E+03  1.07075E+03 -1.31626E+03  2.69774E+02 -2.30647E+03 -1.48032E+03 -1.02951E+03 -2.05423E+03
  2.35778E+03 -1.67996E+03  1.99550E+03  3.33508E+02  1.86542E+03 -7.46685E+02  1.54063E+03  1.87797E+03
  1.22745E+03  1.61988E+03  2.62061E+02  1.40678E+03 -1.97624E+03  1.06464E+03 -1.37288E+03  4.76496E+01
  2.37445E+02 -4.06298E+01  8.93683E+02 -7.04568E+02 -6.23366E+02  3.78789E+02 -2.06421E+03  5.44986E+01
 -2.49876E+03 -7.94779E+02 -1.94506E+01 -1.55097E+03  4.03035E+02 -1.83412E+03  1.39292E+03 -5.64512E+02
  2.11564E+03  7.84835E+02  5.92787E+02  1.24411E+03  4.16728E+02  1.74190E+03 -1.22179E+03  2.67140E+02
