 $NMID ID='MM_0lb_SNR200_19hz_g60_93.RAW', FMTDAT='(8E13.5)'
 TRAMP=1., VOLUME=1. $END
  3.10639E+05  1.13452E+03  3.37183E+05  2.51219E+05  8.36307E+04  3.37373E+05 -1.32085E+05  2.50669E+05
 -1.91152E+05  8.31361E+04 -1.11368E+05 -3.18864E+04  1.91341E+03 -5.07999E+04  5.32191E+04  4.07532E+02
  3.43797E+04  5.21324E+04 -1.70525E+04  7.50219E+04 -5.98712E+04  6.29120E+04 -8.37943E+04  3.16569E+04
 -8.01958E+04 -1.06133E+04 -5.60215E+04 -5.04489E+04 -1.44915E+04 -6.94755E+04  2.72509E+04 -4.49888E+04
  4.01028E+04  3.71802E+03  1.62512E+04  4.76513E+04 -3.46899E+04  4.65147E+04 -6.49124E+04 -4.35184E+02
 -5.30549E+04 -5.65541E+04 -7.23968E+03 -7.79437E+04  3.24062E+04 -5.46981E+04  4.70068E+04 -1.69203E+04
  4.28955E+04  1.16962E+04  3.05604E+04  2.46835E+04  1.58759E+04  3.03318E+04 -5.05267E+03  2.65025E+04
 -2.34729E+04  1.28168E+04 -1.79727E+04 -5.17827E+03  4.19247E+03 -7.28691E+03  2.18777E+04  1.14254E+04
  8.33973E+03  3.54439E+04 -3.09983E+04  3.50337E+04 -6.18223E+04  3.01241E+03 -5.65669E+04 -4.25357E+04
 -1.24628E+04 -6.10778E+04  3.96096E+04 -4.50615E+04  5.73493E+04 -1.25515E+03  3.25585E+04  3.12816E+04
 -5.30334E+03  3.54903E+04 -2.99372E+04  1.42297E+04 -2.96562E+04 -4.87194E+03 -1.59244E+04 -1.12321E+04
 -8.18911E+03 -1.26459E+04 -9.08206E+02 -1.77756E+04  7.40754E+03 -2.27998E+04  1.53327E+04 -1.22992E+04
  1.12693E+04  4.73674E+03 -7.44968E+03  1.33126E+04 -2.01024E+04 -3.62511E+03 -8.68850E+03 -3.32121E+04
  2.14525E+04 -4.13303E+04  4.68868E+04 -1.91802E+04  4.31471E+04  1.83022E+04  1.50474E+04  4.32467E+04
 -1.50617E+04  3.21808E+04 -2.44130E+04  1.76602E+03 -9.66465E+03 -2.76019E+04  2.11912E+04 -3.20745E+04
  3.84123E+04 -7.81478E+03  3.38160E+04  2.32571E+04  1.60485E+04  4.44910E+04 -7.50628E+03  4.73488E+04
 -2.95789E+04  3.09329E+04 -3.89290E+04  9.47305E+03 -3.97373E+04 -1.58454E+04 -2.19628E+04 -3.54672E+04
  6.96895E+03 -3.61901E+04  3.04857E+04 -1.30880E+04  2.80260E+04  1.16137E+04  4.00895E+03  1.85664E+04
 -1.37906E+04  7.51674E+03 -1.03105E+04 -6.27181E+03  6.13968E+03 -1.09768E+04  1.84185E+04  6.44109E+03
  1.25729E+04  2.22965E+04 -7.00515E+03  2.40948E+04 -2.08724E+04  1.09772E+04 -2.70610E+04 -5.99305E+03
 -1.83383E+04 -1.73081E+04 -5.83857E+03 -1.87858E+04  3.16396E+03 -1.75639E+04  1.36188E+04 -1.53960E+04
  2.26354E+04 -1.28040E+04  2.79245E+04  1.41893E+03  2.03237E+04  1.66580E+04  3.60964E+03  3.36184E+04
 -1.57001E+04  2.74633E+04 -2.60768E+04  9.57117E+03 -2.03174E+04 -1.09197E+04 -4.39504E+03 -1.42614E+04
  2.06442E+03 -3.58016E+03 -2.25896E+03  5.63080E+03 -1.47130E+04  4.98181E+03 -1.42022E+04 -5.19655E+03
 -8.53707E+03 -1.71857E+04  4.69395E+03 -2.02569E+04  1.39427E+04 -1.41850E+04  1.54558E+04 -9.61984E+02
  9.87443E+03  1.17507E+04 -5.39719E+02  1.64390E+04 -1.09968E+04  8.44079E+03 -1.62286E+04 -2.89525E+03
 -1.26112E+04 -1.57123E+04 -2.08653E+03 -2.01433E+04  9.22024E+03 -1.64631E+04  1.71001E+04 -7.82657E+03
  1.52853E+04  7.98119E+02  1.15979E+04  3.07490E+03  5.71068E+03  6.07336E+02  8.26038E+03 -2.50625E+03
  1.39121E+04  2.61150E+03  1.60472E+04  1.37912E+04  1.06735E+04  2.52069E+04 -3.64873E+03  2.90487E+04
 -1.68388E+04  2.23997E+04 -2.67977E+04  1.04460E+04 -2.71231E+04 -1.63703E+03 -2.34807E+04 -1.61309E+04
 -1.06745E+04 -2.18908E+04  7.21349E+03 -2.03767E+04  1.88371E+04 -1.16872E+04  1.68166E+04  3.44081E+03
  6.08666E+03  1.25158E+04 -7.47523E+03  1.15289E+04 -1.48351E+04  1.70269E+03 -1.05739E+04 -9.36845E+03
  8.16892E+01 -1.32283E+04  6.58409E+03 -1.01470E+04  8.87745E+03 -1.96213E+03  2.51653E+03  5.95114E+03
 -5.19916E+03  1.69398E+03 -4.25291E+03 -3.06356E+03  8.44707E+02 -1.12328E+04  7.09345E+03 -1.02844E+04
  1.33149E+04 -6.41308E+03  1.24712E+04  3.21708E+03  1.08205E+04  1.00795E+04  5.45511E+03  1.39181E+04
 -1.84940E+03  1.82095E+04 -1.08629E+04  1.12778E+04 -1.25539E+04  2.81112E+03 -8.00707E+03 -9.29802E+02
 -3.88064E+03 -3.53067E+03 -5.29072E+02  1.01012E+03 -2.21182E+03  3.00494E+03 -3.81843E+03  3.55527E+03
 -8.80825E+03 -8.93556E+02 -9.19931E+03 -7.39759E+03 -3.60051E+03 -1.31369E+04  3.86988E+03 -8.91806E+03
  6.78627E+03 -2.90153E+03  6.43796E+03  3.26294E+03  1.03372E+03  2.67382E+03 -3.44713E+03  1.14716E+02
 -2.10640E+03 -5.72102E+03  5.67236E+02 -7.99525E+03  3.16857E+03 -8.89977E+03  9.75484E+03 -3.66097E+03
  1.30400E+04  5.71336E+02  8.72483E+03  6.69374E+03  1.77110E+03  8.96156E+03 -5.05328E+03  8.66749E+03
 -6.48692E+03  1.65973E+03 -4.72042E+03 -1.10151E+03  2.07001E+03 -1.84539E+03  4.72102E+03 -7.80382E+02
  3.71283E+03  3.66926E+03 -4.27156E+01  6.08135E+03 -4.94531E+03  6.95557E+03 -8.34346E+03  2.33686E+03
 -4.67917E+03 -3.80107E+03  1.23471E+03 -6.29084E+03  2.70275E+03 -2.47486E+03  3.31334E+03  1.16249E+03
  4.75010E+02  4.57141E+03 -3.76128E+03  4.65024E+03 -6.26027E+03  2.48360E+03 -5.07155E+03 -1.76081E+03
 -2.42495E+03 -6.53078E+03  1.90849E+03 -7.40571E+03  6.53292E+03 -5.10929E+03  6.34945E+03  1.02245E+03
  4.81163E+03  5.97591E+03 -5.65636E+02  7.94351E+03 -5.27423E+03  4.43179E+03 -5.07885E+03  3.36785E+02
 -5.98595E+03 -4.75868E+03 -8.47828E+02 -4.78216E+03  3.69699E+03 -4.19844E+03  3.81391E+03 -2.58237E+03
  2.39737E+03 -6.18310E+02 -2.41292E+02  5.98245E+02  1.32362E+02 -3.74138E+02 -2.41879E+02 -1.51235E+03
  3.40569E+03  1.19871E+02  5.01788E+03  1.04989E+02  5.50487E+03  2.39054E+03  5.55704E+03  7.51989E+03
 -1.18339E+03  8.41484E+03 -8.29700E+03  6.80905E+03 -1.01525E+04  1.00020E+03 -7.94495E+03 -2.24066E+03
 -4.46250E+03 -6.34818E+03 -4.21537E+02 -5.28341E+03  2.17611E+03 -2.21515E+03  1.11903E+03 -2.32569E+03
  4.88289E+02 -2.07966E+03  2.23620E+03 -2.27315E+03  4.25264E+03 -1.55919E+03  3.75462E+03  3.25984E+02
  4.58144E+03  1.05056E+03  2.48628E+02  4.24045E+03 -1.86665E+03  3.01228E+03 -4.40427E+03  1.72568E+03
 -4.35120E+03 -1.28564E+03 -1.55232E+03 -2.74217E+03 -1.02185E+02 -4.67054E+03  2.58946E+03 -4.21527E+03
  4.96933E+03 -2.87398E+03  6.66709E+03 -6.66264E+00  4.96585E+03  4.27339E+03  9.66861E+02  5.50975E+03
 -2.37794E+03  5.98688E+03 -3.78041E+03  2.02678E+03 -1.30536E+03 -8.69189E+02 -1.15424E+03 -1.06759E+03
  5.94057E+02  9.39328E+02 -9.07487E+02  1.78812E+03 -2.10927E+03  1.06444E+03 -4.06353E+03  7.30775E+02
 -2.52334E+03 -3.07946E+03  3.96278E+02 -3.53415E+03  3.19955E+03 -4.19575E+03  3.89444E+03 -1.17542E+03
  3.85906E+03  2.02164E+03  2.07642E+03  3.22933E+03  5.67423E+02  4.39708E+03 -2.44155E+03  3.61170E+03
 -3.10332E+03 -8.61780E+02 -2.99329E+03 -2.18403E+03 -2.47667E+02 -3.25585E+03  1.07375E+03 -1.85752E+03
  3.04052E+03 -1.47462E+03  1.66666E+03  9.78137E+02  4.01617E+02  1.62393E+03  4.88311E+02  9.57633E+02
  7.71410E+02  1.07962E+03  1.55073E+03  4.06356E+02  1.50580E+03  2.37251E+03  1.31345E+03  1.90362E+03
 -1.31365E+03  3.12508E+03 -3.03833E+03  4.19031E+03 -1.97505E+03  1.09634E+03 -3.57676E+03 -9.32883E+02
 -1.29970E+03 -2.88667E+03  4.80420E+02 -4.85827E+03  1.51812E+03 -2.23415E+03  3.36113E+03 -1.90559E+03
  9.07147E+02  1.23537E+03  8.16803E+02  2.08905E+03 -1.86746E+02  2.36991E+03 -2.10965E+03 -1.01927E+03
 -1.58926E+03 -2.23943E+03  1.46644E+02 -2.16906E+03  8.95823E+02 -5.79009E+02  6.07476E+02 -8.16892E+02
  1.69514E+03  5.85926E+02  2.97992E+02 -6.66608E+02 -1.21687E+03  1.23921E+03  1.17884E+03 -6.88465E+01
  4.71831E+02 -5.64539E+02  2.30124E+03  1.04996E+03 -1.30293E+02  2.55080E+03  3.34151E+02  2.91812E+03
 -2.08038E+03  5.00003E+02 -2.19272E+03  9.44993E+02 -1.63959E+03 -1.43629E+03  2.95293E+01 -6.44184E+02
  5.30370E+02  2.36078E+02  6.03330E+02 -3.20596E+02  9.08804E+02  1.30305E+03 -1.11306E+03  4.51280E+02
 -8.01320E+02  4.95397E+02 -9.76687E+02 -5.71760E+02 -5.10917E+02 -1.77478E+03  3.66914E+02 -1.63139E+03
  8.19839E+02 -3.42557E+02  6.49210E+01  3.16633E+02  1.82730E+03  1.24002E+03 -5.05778E+02  5.84080E+02
 -8.24485E+02 -2.19227E+01 -1.22703E+03  1.08331E+02  5.59067E+02 -2.77236E+02  1.85220E+03 -1.11020E+03
  5.99680E+02  1.14584E+02  2.18130E+03  1.50025E+03  1.52581E+03  2.54384E+03 -9.17519E+02  1.28051E+03
 -1.29292E+03  9.50504E+02 -1.68679E+03  8.76346E+02 -1.18052E+03 -1.24360E+03  1.82664E+03 -4.86918E+02
  8.96699E+02 -4.58777E+02  7.38622E+02  8.66584E+02  3.82462E+02  1.73745E+03  6.69577E+02  7.38177E+02
  2.65819E+02  5.97591E+02  1.89250E+02 -3.85060E+02  4.09441E+02 -1.92869E+02 -9.36221E+02  7.62515E+02
 -4.51614E+02  7.25795E+02 -1.41387E+03  2.89537E+02 -1.67435E+03 -2.76267E+02 -2.41947E+03 -3.56581E+02
 -3.77371E+02 -1.70731E+03  2.95574E+02 -2.63199E+03  7.90294E+02 -1.34459E+03  1.97289E+03 -2.16076E+03
  1.71879E+03  3.20084E+00  1.32897E+03  1.60049E+03  2.47064E+02  1.48482E+03 -8.33760E+02  1.02203E+03
  2.39277E+02  4.76960E+02 -4.43774E+02 -5.21331E+02 -2.14652E+03  2.32344E+02  3.19153E+01 -1.65117E+02
 -1.05499E+03 -3.04617E+02 -2.05409E+03  3.55009E+02  3.58153E+02 -3.67246E+02 -7.46366E+02 -1.79315E+02
  2.02926E+03  1.29231E+02  2.30071E+02 -5.98859E+01 -3.53881E+02  3.51206E+02 -2.07419E+02  5.63226E+02
 -7.37719E+02  2.81337E+03 -1.18875E+03  3.08426E+02 -1.21591E+03  4.47613E+00 -6.91508E+02 -1.46400E+03
  1.93415E+02 -1.17387E+03 -2.42707E+02 -1.19365E+03 -7.42396E+02 -9.87773E+02  3.89832E+02  1.26599E+03
  3.78157E+01  1.14522E+03 -9.97121E+01  1.80410E+02 -9.89676E+02 -3.62308E+02 -6.17908E+02 -7.84640E+01
 -1.05818E+03  3.38097E+02 -8.01466E+01  1.73734E+03  2.01060E+02  9.01981E+02  5.36021E+02 -2.43842E+02
  6.44432E+02  1.06841E+03 -2.72916E+02  6.66859E+02 -1.21674E+03 -2.85153E+02  2.46411E+01 -1.25118E+03
  5.19289E+02 -8.29715E+00  6.51812E+02  6.71393E+02  8.01280E+02 -1.57250E+03  1.09975E+03  3.16121E+02
  7.46089E+02  2.93532E+02 -1.20490E+03  9.26420E+02 -7.08617E+02  1.23584E+02 -1.27485E+03 -6.07452E+02
 -1.45157E+02 -7.36014E+00  1.47840E+02 -9.59610E+01 -5.19972E+02 -3.79756E+02 -2.23882E+02 -6.69308E+02
 -8.18947E+02 -1.11645E+03  3.58856E+01  9.56853E+01  3.37160E+02 -1.55453E+03 -3.92642E+02 -4.58216E+02
  7.05241E+02  3.00988E+01  5.05680E+02 -1.05110E+02 -7.69085E+02  6.66161E+02 -1.47486E+03  1.07275E+03
