 $NMID ID='MM_0lb_SNR200_13hz_g45_76.RAW', FMTDAT='(8E13.5)'
 TRAMP=1., VOLUME=1. $END
  3.09244E+05 -1.86065E+02  3.37519E+05  2.51143E+05  8.54546E+04  3.37221E+05 -1.32627E+05  2.51368E+05
 -1.90463E+05  8.21261E+04 -1.12292E+05 -3.32401E+04  9.00841E+02 -4.96991E+04  5.26986E+04 -7.09825E+02
  3.54102E+04  5.22383E+04 -1.63061E+04  7.47237E+04 -6.09748E+04  6.28572E+04 -8.41856E+04  3.16440E+04
 -8.10391E+04 -1.11558E+04 -5.73940E+04 -5.13892E+04 -1.66470E+04 -7.00968E+04  2.71223E+04 -4.45479E+04
  4.00873E+04  4.28135E+03  1.54307E+04  4.72349E+04 -3.42565E+04  4.73551E+04 -6.69986E+04  2.28935E+02
 -5.38488E+04 -5.87446E+04 -7.34145E+03 -7.68502E+04  3.34617E+04 -5.47443E+04  4.76714E+04 -1.64056E+04
  4.30662E+04  1.11474E+04  3.25371E+04  2.61031E+04  1.59710E+04  2.92856E+04 -4.88519E+03  2.63691E+04
 -2.22168E+04  1.15537E+04 -1.78717E+04 -4.47328E+03  4.52688E+03 -7.20024E+03  2.21992E+04  1.19175E+04
  7.05486E+03  3.44627E+04 -3.16681E+04  3.53572E+04 -6.34038E+04  2.70647E+03 -5.71299E+04 -4.35467E+04
 -1.09033E+04 -6.13156E+04  4.10063E+04 -4.43234E+04  5.91425E+04 -3.06003E+03  3.40414E+04  3.22432E+04
 -5.31839E+03  3.62528E+04 -2.97424E+04  1.64183E+04 -3.15306E+04 -3.90122E+03 -1.80680E+04 -1.09946E+04
 -9.34803E+03 -1.36902E+04 -7.75286E+02 -1.89548E+04  6.60213E+03 -2.44788E+04  1.52976E+04 -1.36212E+04
  1.05829E+04  4.80955E+03 -8.46698E+03  1.25253E+04 -2.18411E+04 -4.13135E+03 -8.62574E+03 -3.44833E+04
  2.28504E+04 -4.42962E+04  4.78882E+04 -2.04081E+04  4.56022E+04  1.92807E+04  1.62687E+04  4.60946E+04
 -1.55745E+04  3.22942E+04 -2.43372E+04  2.10064E+03 -1.05355E+04 -2.71405E+04  2.10902E+04 -3.36875E+04
  4.00846E+04 -9.23749E+03  3.56348E+04  2.39913E+04  1.85417E+04  4.71398E+04 -8.69615E+03  4.97091E+04
 -3.08962E+04  3.35926E+04 -4.29111E+04  1.12107E+04 -4.36577E+04 -1.62834E+04 -2.46463E+04 -3.71400E+04
  7.35617E+03 -3.77920E+04  3.12891E+04 -1.49005E+04  2.89461E+04  1.16666E+04  4.45809E+03  1.94663E+04
 -1.36463E+04  8.78231E+03 -1.11107E+04 -7.12238E+03  4.76414E+03 -1.06639E+04  1.70787E+04  6.65289E+03
  1.31386E+04  2.14377E+04 -6.48769E+03  2.51894E+04 -2.23048E+04  1.09103E+04 -2.86836E+04 -3.20266E+03
 -2.16771E+04 -1.71637E+04 -8.91189E+03 -1.95798E+04  3.40603E+03 -1.95212E+04  1.58030E+04 -1.92576E+04
  2.78399E+04 -1.33288E+04  3.11592E+04  3.17563E+03  2.51669E+04  2.10272E+04  3.98632E+03  3.74410E+04
 -1.76376E+04  3.07462E+04 -2.89734E+04  1.03427E+04 -2.10224E+04 -9.31557E+03 -4.32131E+03 -1.27809E+04
  3.33273E+03 -4.16081E+03 -5.70937E+03  6.78689E+03 -1.62689E+04  6.19168E+03 -1.70837E+04 -7.13654E+03
 -1.17175E+04 -1.94384E+04  5.86444E+03 -2.40891E+04  1.56678E+04 -1.56856E+04  1.91041E+04 -6.84371E+02
  1.26169E+04  1.33690E+04 -1.22411E+02  1.98525E+04 -1.30022E+04  1.01200E+04 -1.89643E+04 -4.54352E+03
 -1.37980E+04 -1.91180E+04 -1.15136E+03 -2.36767E+04  1.11215E+04 -1.85356E+04  1.92582E+04 -8.80023E+03
  1.78300E+04  1.55851E+02  1.37094E+04  3.71908E+03  6.58339E+03  1.50188E+03  9.58427E+03 -8.52314E+02
  1.73309E+04  3.68157E+03  2.03863E+04  1.59721E+04  1.29877E+04  3.14155E+04 -2.47348E+03  3.52241E+04
 -1.89423E+04  2.94079E+04 -3.29590E+04  1.37566E+04 -3.53734E+04 -2.88490E+03 -2.96958E+04 -2.00764E+04
 -1.17989E+04 -2.91686E+04  8.44657E+03 -2.70201E+04  2.24056E+04 -1.17248E+04  1.95104E+04  4.87203E+03
  7.03015E+03  1.42199E+04 -1.05341E+04  1.24979E+04 -1.63694E+04  1.63671E+03 -1.21556E+04 -9.64687E+03
 -4.19710E+02 -1.63356E+04  9.27461E+03 -1.35489E+04  1.10616E+04 -1.41908E+03  1.94813E+03  6.22545E+03
 -5.32764E+03  1.97971E+03 -6.78831E+03 -4.75103E+03 -1.53713E+03 -1.37423E+04  1.10921E+04 -1.43938E+04
  1.59719E+04 -7.63448E+03  1.87844E+04  2.41757E+03  1.53332E+04  1.40266E+04  8.05033E+03  2.10846E+04
 -2.60090E+03  2.33235E+04 -1.55002E+04  1.48526E+04 -1.75645E+04  3.64119E+03 -1.11305E+04 -3.15420E+03
 -4.25716E+03 -4.65428E+03  1.83786E+02  4.61865E+02 -2.07962E+03  2.58756E+03 -4.62426E+03  4.90454E+03
 -1.11994E+04 -4.13539E+01 -1.10830E+04 -8.62050E+03 -4.19282E+03 -1.46468E+04  4.33963E+03 -1.28161E+04
  1.01118E+04 -3.30588E+03  8.72176E+03  2.46996E+03  2.39486E+02  3.49776E+03 -5.52285E+03 -1.71673E+03
 -4.43293E+03 -8.03144E+03 -1.61706E+03 -1.10758E+04  5.78986E+03 -1.22718E+04  1.54636E+04 -6.46653E+03
  1.78253E+04  2.88975E+03  1.27138E+04  8.98993E+03  1.75053E+03  1.34140E+04 -7.93664E+03  1.21633E+04
 -9.14155E+03  2.81107E+03 -5.47891E+03 -1.88262E+03  1.35988E+03 -2.80039E+03  6.08879E+03 -7.15551E+02
  6.42723E+03  5.14794E+03  1.69067E+03  8.93260E+03 -6.90209E+03  9.94218E+03 -1.12003E+04  2.52291E+03
 -7.10528E+03 -6.22348E+03  6.95729E+02 -1.01063E+04  5.89062E+03 -4.72846E+03  6.84745E+03  1.24604E+03
  1.39820E+03  6.91595E+03 -6.44447E+03  8.53776E+03 -8.72703E+03  4.36099E+03 -9.33178E+03 -2.58463E+03
 -5.43702E+03 -9.47479E+03  2.68379E+03 -1.29285E+04  1.11513E+04 -7.31268E+03  1.04409E+04  2.25719E+03
  6.68097E+03  1.01035E+04 -1.34640E+03  1.08446E+04 -6.93715E+03  7.11224E+03 -9.40323E+03 -1.19215E+03
 -8.79413E+03 -7.79040E+03 -1.78186E+03 -8.68826E+03  4.92187E+03 -6.23555E+03  4.89817E+03 -3.56675E+03
  4.01704E+03  1.06982E+02 -2.26615E+02  2.73185E+03 -3.12616E+02 -2.43159E+03 -5.24206E+01 -4.29931E+03
  8.36679E+03 -2.59198E+03  1.08237E+04  1.46619E+03  1.05062E+04  6.90233E+03  7.04920E+03  1.30749E+04
 -2.49680E+03  1.49001E+04 -1.39656E+04  1.11943E+04 -1.77629E+04  3.55009E+03 -1.44061E+04 -4.03678E+03
 -7.16488E+03 -1.25040E+04 -1.73521E+02 -9.23193E+03  2.74722E+03 -6.34891E+03  3.34256E+03 -3.67690E+03
  2.69096E+03 -1.54680E+03  3.93423E+03 -2.03661E+03  4.22195E+03 -2.31948E+03  6.61418E+03  4.42072E+02
  7.88684E+03  1.80556E+03  3.04168E+03  5.92399E+03 -1.51708E+03  6.56840E+03 -7.58856E+03  4.32941E+03
 -9.35506E+03 -9.38565E+02 -5.34934E+03 -6.37780E+03 -3.83457E+02 -1.01862E+04  6.31893E+03 -8.93153E+03
  1.05896E+04 -4.69164E+03  1.36004E+04  1.82502E+03  9.07279E+03  8.86866E+03  9.49949E+02  1.06564E+04
 -4.73566E+03  9.18054E+03 -5.75796E+03  2.27522E+03 -4.22687E+03 -1.48206E+02 -9.70184E+02 -1.24612E+03
 -6.15065E+02  1.16679E+02 -1.22394E+03  4.17678E+03 -4.06875E+03  3.59144E+03 -6.85876E+03 -1.08416E+03
 -4.30045E+03 -6.99178E+03  4.98016E+02 -8.04142E+03  5.25112E+03 -7.87373E+03  9.57669E+03 -2.44849E+03
  8.60160E+03  4.39688E+03  3.53596E+03  7.19178E+03 -1.57178E+03  7.22836E+03 -5.96470E+03  4.44991E+03
 -8.47151E+03  3.76009E+02 -6.73728E+03 -5.62136E+03 -5.96875E+02 -7.60923E+03  3.61267E+03 -5.56761E+03
  6.08555E+03 -2.82991E+03  3.41032E+03  1.31010E+03  1.30858E+03  3.72377E+03  1.55370E+03  1.30205E+03
  1.13835E+03  1.54665E+03  2.81785E+03  2.16091E+03  1.78734E+03  3.28934E+03  3.03850E+03  5.19747E+03
 -2.64579E+03  7.00035E+03 -5.59851E+03  6.85115E+03 -8.08438E+03  3.55190E+03 -9.40031E+03 -4.65957E+03
 -5.16801E+03 -7.58466E+03  2.09562E+03 -8.82981E+03  5.57021E+03 -5.71774E+03  6.91370E+03 -2.08037E+03
  4.88875E+03  2.69524E+03  2.58282E+02  5.69497E+03 -1.66153E+03  3.51192E+03 -4.30776E+03  8.16156E+02
 -2.09773E+03 -4.62194E+03  1.30618E+03 -3.65571E+03  3.65574E+03 -1.75513E+03  2.39497E+03  4.54633E+02
  1.97940E+03  1.85052E+03  1.88402E+03  6.03774E+02 -6.75029E+02  1.23297E+03  1.09772E+03 -9.00634E+01
  1.59948E+03 -9.62832E+01  2.63096E+03  1.07641E+03  7.60782E+02  5.52897E+03  3.12785E+02  6.37510E+03
 -3.73980E+03  4.46758E+03 -5.02450E+03  2.89455E+02 -4.77825E+03 -1.81610E+03 -1.66984E+03 -2.93924E+03
  5.11615E+02 -2.36841E+03  1.88509E+03 -1.18470E+03  2.27168E+03  2.07337E+03 -7.35617E+02  3.22571E+03
 -4.09469E+03  1.68529E+03 -3.99751E+03 -1.97713E+03 -1.46304E+03 -5.22267E+03  3.69815E+02 -4.32691E+03
  1.50866E+03 -2.93344E+03  2.92107E+03  5.69006E+02  3.62922E+03  3.93712E+01  7.01327E+02  2.89221E+03
 -7.38045E+02  8.64016E+02 -3.20943E+03 -8.07115E+02  1.94630E+03 -2.92041E+03  3.56803E+03 -2.23941E+03
  4.12783E+03  3.82046E+02  4.35277E+03  1.64699E+03  1.27509E+03  4.58686E+03 -2.09009E+03  5.11006E+03
 -3.46018E+03  2.82503E+03 -3.79402E+03 -4.82965E+02 -1.55573E+03 -4.23059E+03  3.46923E+02 -2.56675E+03
  3.75120E+03 -2.24371E+03  2.80207E+03  2.58290E+03  1.23304E+02  2.81445E+03 -4.76300E+02  2.65059E+03
 -2.52155E+03  2.06473E+03 -1.63958E+03  5.83016E+02 -5.78287E+02  3.90239E+02 -2.33733E+01  1.54316E+03
 -2.20601E+03  2.15164E+03 -3.31806E+03  1.15328E+03 -5.28358E+03  4.07551E+02 -5.16121E+03 -2.37281E+03
 -1.99502E+03 -5.99247E+03  3.26860E+03 -8.46453E+03  4.05445E+03 -4.73799E+03  7.03006E+03 -1.32892E+03
  6.21678E+03  7.13233E+02  4.63393E+03  5.54853E+03  4.73718E+02  3.42899E+03 -1.65555E+03  3.67458E+03
 -3.48490E+03  1.92094E+03 -1.20265E+03 -9.05715E+02 -2.45721E+02  5.84217E+02 -4.31144E+02 -4.71102E+02
 -1.58372E+03  1.98545E+02 -1.45597E+03 -9.03086E+01 -9.86872E+02 -1.24567E+03 -6.13341E+02 -1.18838E+03
  2.55582E+03 -2.36611E+03  1.91390E+03  1.28244E+02  2.93012E+03  3.62979E+03  6.03254E+01  5.11642E+03
 -5.34315E+02  5.19814E+03 -5.63594E+03  3.29702E+03 -5.32240E+03 -4.26856E+02 -3.25935E+03 -3.06808E+03
 -1.94962E+03 -5.66639E+03  2.41895E+03 -4.09612E+03  3.46044E+03 -3.71124E+03  4.42568E+03  1.31216E+03
  1.05532E+03 -1.07380E+02  1.93829E+02  1.06428E+03 -2.50659E+02  3.26165E+02 -3.41182E+02 -1.44972E+03
  2.85057E+03 -9.66480E+02  1.12083E+03  1.70414E+01  8.47680E+02  2.06548E+03 -4.68854E+02  1.08221E+03
 -1.06789E+03  8.99960E+02 -2.15292E+03 -3.28548E+02 -2.68949E+03 -1.29938E+03 -1.49980E+02 -3.93781E+03
  2.22364E+03 -2.99082E+03  2.56936E+03 -1.08225E+03  3.08308E+03 -8.76598E+02  1.28214E+03  2.76161E+03
  7.05953E+02  3.78292E+03 -8.77181E+02  3.20287E+03 -1.36833E+03  1.93699E+03 -1.59208E+03 -1.29713E+03
 -1.06537E+03  6.22869E+02 -1.15851E+03 -6.49991E+02 -2.52839E+03 -2.76279E+02 -1.23947E+03  2.81634E+02
 -2.97133E+03 -7.56119E+02 -1.02370E+03 -3.83788E+03  1.93555E+03 -3.23458E+03  2.21983E+03 -1.79603E+03
  1.99052E+03  7.68410E+02 -4.38593E+02  1.67964E+03  4.01702E+02  1.68038E+03 -2.29636E+03  1.92534E+03
