 $NMID ID='MM_0lb_SNR200_7hz_g50_94.RAW', FMTDAT='(8E13.5)'
 TRAMP=1., VOLUME=1. $END
  3.10211E+05  2.88359E+02  3.38377E+05  2.51207E+05  8.62262E+04  3.38407E+05 -1.28937E+05  2.50962E+05
 -1.90493E+05  8.51272E+04 -1.12641E+05 -3.15080E+04 -4.63201E+02 -4.98254E+04  5.39403E+04  6.30930E+02
  3.61902E+04  5.30883E+04 -1.60539E+04  7.54851E+04 -6.02913E+04  6.62957E+04 -8.46851E+04  3.26941E+04
 -8.37075E+04 -1.14850E+04 -5.78195E+04 -5.23324E+04 -1.52759E+04 -7.09231E+04  2.71785E+04 -4.75378E+04
  3.90579E+04  4.57777E+03  1.79956E+04  4.88096E+04 -3.54035E+04  4.78817E+04 -6.87058E+04 -1.12210E+03
 -5.41497E+04 -5.83113E+04 -7.45237E+03 -8.06154E+04  3.62278E+04 -5.75585E+04  5.11110E+04 -1.98751E+04
  4.67937E+04  1.15563E+04  3.24193E+04  2.64021E+04  1.71621E+04  3.03140E+04 -5.23579E+03  2.58664E+04
 -2.32429E+04  1.03386E+04 -1.68495E+04 -5.57155E+03  7.54419E+03 -5.44032E+03  2.40818E+04  1.59907E+04
  6.34629E+03  3.93472E+04 -3.59060E+04  3.82474E+04 -6.61198E+04  1.42716E+03 -5.97151E+04 -4.56326E+04
 -1.27236E+04 -6.71681E+04  4.25329E+04 -4.93101E+04  6.11761E+04 -2.16436E+03  3.60466E+04  3.35342E+04
 -4.57494E+03  4.10818E+04 -3.34625E+04  2.13553E+04 -3.46523E+04 -3.26956E+03 -2.16735E+04 -1.13800E+04
 -8.18241E+03 -1.65597E+04 -1.57922E+03 -2.00985E+04  8.40704E+03 -2.39567E+04  1.64128E+04 -1.25618E+04
  1.07776E+04  7.44884E+03 -1.15738E+04  1.51717E+04 -2.40703E+04 -9.62907E+03 -8.00814E+03 -3.92426E+04
  2.64228E+04 -4.76909E+04  5.45970E+04 -2.06741E+04  5.04077E+04  2.16643E+04  1.77056E+04  4.79776E+04
 -1.80532E+04  3.85464E+04 -3.14517E+04  4.12626E+03 -1.29035E+04 -3.01756E+04  2.26109E+04 -3.69258E+04
  4.36301E+04 -1.21553E+04  4.12847E+04  2.56635E+04  2.25663E+04  5.18444E+04 -7.50027E+03  5.82888E+04
 -3.79837E+04  3.97424E+04 -4.92292E+04  1.22103E+04 -4.93445E+04 -1.87363E+04 -2.76235E+04 -4.49641E+04
  9.36978E+03 -4.48850E+04  3.48949E+04 -1.79763E+04  3.50675E+04  1.04906E+04  5.65897E+03  2.05374E+04
 -1.47829E+04  1.00364E+04 -1.24023E+04 -6.87114E+03  4.87867E+03 -1.19123E+04  1.73898E+04  6.30032E+03
  1.49137E+04  2.11874E+04 -5.24457E+03  2.92558E+04 -2.22673E+04  1.64702E+04 -3.15826E+04 -2.97866E+03
 -2.92130E+04 -1.96398E+04 -1.24141E+04 -2.83486E+04  2.93717E+03 -2.67884E+04  2.19411E+04 -2.42910E+04
  3.48525E+04 -1.56135E+04  4.21042E+04  6.63438E+03  2.97452E+04  2.51373E+04  5.04748E+03  4.44631E+04
 -2.04019E+04  3.66552E+04 -3.25711E+04  1.50632E+04 -2.55349E+04 -9.41687E+03 -4.55974E+03 -1.26228E+04
  1.03131E+03  5.67424E+02 -9.46764E+03  8.88376E+03 -2.07842E+04  4.88705E+03 -2.29750E+04 -9.48501E+03
 -1.01272E+04 -2.72599E+04  5.79246E+03 -3.05107E+04  1.95545E+04 -2.12186E+04  2.55416E+04 -1.79512E+03
  1.50401E+04  1.73694E+04 -1.76043E+03  2.45182E+04 -1.75843E+04  1.35509E+04 -2.62271E+04 -4.51868E+03
 -2.07502E+04 -2.25465E+04 -5.27517E+02 -3.15529E+04  1.19824E+04 -2.36287E+04  2.49252E+04 -1.33004E+04
  2.35709E+04  3.35219E+02  1.66434E+04  4.88534E+03  9.07896E+03  3.21732E+03  1.14791E+04 -2.30624E+03
  2.50309E+04  3.93683E+03  2.66559E+04  1.87576E+04  1.94916E+04  4.22950E+04 -1.76618E+03  4.84148E+04
 -2.94124E+04  4.30418E+04 -4.67708E+04  2.20295E+04 -5.16133E+04 -4.83837E+03 -3.98161E+04 -3.03529E+04
 -1.41424E+04 -4.17010E+04  1.60758E+04 -3.57933E+04  3.09564E+04 -1.67165E+04  2.48655E+04  8.40975E+03
  8.35872E+03  1.93691E+04 -1.12650E+04  1.61541E+04 -2.18705E+04  3.36311E+03 -1.66215E+04 -1.46281E+04
  1.02677E+03 -1.90214E+04  1.02397E+04 -1.61152E+04  1.45944E+04  4.49493E+02  5.15900E+03  9.13230E+03
 -8.86651E+03  6.59331E+03 -1.02477E+04 -8.65458E+03 -4.17831E+03 -2.02649E+04  1.36183E+04 -2.11827E+04
  2.72850E+04 -1.22649E+04  3.06544E+04  3.42230E+03  2.73698E+04  2.09274E+04  1.11373E+04  3.33261E+04
 -6.73062E+03  3.75295E+04 -2.26129E+04  2.22613E+04 -2.66179E+04  3.74708E+03 -1.70809E+04 -6.39360E+03
 -6.36923E+03 -6.78900E+03  3.32622E+02  1.19295E+03 -2.55537E+03  4.55241E+03 -8.08105E+03  7.22990E+03
 -1.69036E+04 -1.59729E+03 -1.69738E+04 -1.33128E+04 -6.16966E+03 -2.09240E+04  7.65523E+03 -1.74950E+04
  1.51607E+04 -7.29791E+03  1.15048E+04  3.52782E+03  3.70714E+02  7.80963E+03 -9.48314E+03  1.47970E+02
 -9.15959E+03 -1.07794E+04 -1.62271E+03 -1.93164E+04  1.15821E+04 -1.88236E+04  2.15807E+04 -1.02769E+04
  2.68663E+04  3.01435E+03  2.10448E+04  1.53082E+04  3.60928E+03  2.23806E+04 -9.04058E+03  1.66898E+04
 -1.55005E+04  4.72640E+03 -7.83524E+03 -3.45978E+03  2.29074E+03 -4.68165E+03  9.78986E+03  3.11790E+02
  8.70808E+03  8.61343E+03  1.30943E+03  1.50871E+04 -1.08601E+04  1.44450E+04 -1.66274E+04  3.79165E+03
 -1.14932E+04 -1.05730E+04 -4.66599E+02 -1.42213E+04  1.05365E+04 -6.82926E+03  9.86945E+03  3.59226E+03
  2.61992E+03  1.04837E+04 -1.00525E+04  1.26452E+04 -1.68574E+04  7.65422E+03 -1.71518E+04 -6.02971E+03
 -9.98705E+03 -1.95449E+04  3.38455E+03 -2.30946E+04  1.77553E+04 -1.39283E+04  1.99933E+04  3.89926E+03
  1.33093E+04  1.53246E+04 -1.20548E+03  1.97481E+04 -1.57246E+04  9.73637E+03 -1.29831E+04 -3.43584E+02
 -1.16281E+04 -1.19559E+04 -2.66322E+03 -1.35114E+04  8.30163E+03 -1.10977E+04  7.63491E+03 -4.52278E+03
  5.29532E+03  1.68608E+03 -2.38620E+03  2.09270E+03 -2.59451E+03 -4.11057E+03  2.48673E+03 -1.13896E+04
  1.35578E+04 -5.47085E+03  2.11275E+04  3.58785E+03  1.76228E+04  1.30859E+04  1.21346E+04  2.53711E+04
 -6.92712E+03  2.89721E+04 -2.55353E+04  2.02759E+04 -3.11142E+04  5.13418E+03 -2.58604E+04 -1.07374E+04
 -1.19733E+04 -2.12803E+04 -6.30538E+02 -1.94709E+04  7.19439E+03 -7.40071E+03  4.89148E+03 -7.59651E+03
  3.90992E+03 -4.67861E+03  4.30104E+03 -5.60030E+03  7.61532E+03 -4.86064E+03  1.10990E+04 -1.66579E+03
  1.25610E+04  1.77313E+03  6.67404E+03  1.17688E+04 -3.64923E+03  1.39046E+04 -1.52150E+04  9.96041E+03
 -1.78150E+04 -1.45146E+03 -1.14961E+04 -1.32522E+04 -2.01177E+03 -1.89431E+04  9.89219E+03 -1.97001E+04
  2.16000E+04 -9.70932E+03  2.35698E+04  3.87538E+03  1.67918E+04  1.61820E+04  3.27341E+03  2.32845E+04
 -9.83078E+03  1.71817E+04 -1.14953E+04  4.84651E+03 -9.89733E+03 -1.06584E+03 -6.87321E+03 -1.60494E+03
 -5.72183E+02 -5.85047E+02 -2.01864E+03  2.42565E+03 -7.93281E+03  1.48831E+03 -1.08906E+04 -1.83613E+03
 -1.20106E+04 -1.18162E+04  1.15920E+03 -2.06446E+04  1.03581E+04 -1.70733E+04  1.76964E+04 -6.25100E+03
  1.66343E+04  7.35128E+03  7.51509E+03  1.45117E+04 -3.01311E+03  1.82167E+04 -1.39100E+04  1.18965E+04
 -1.84422E+04  7.28179E+02 -1.33975E+04 -1.31032E+04 -2.77525E+03 -1.57039E+04  7.59333E+03 -1.18402E+04
  1.18627E+04 -5.09071E+03  7.85978E+03  3.53396E+03  2.92977E+03  6.78313E+03  1.56263E+03  1.21810E+03
  2.68034E+03  8.00366E+02  5.63647E+03  3.27428E+03  5.86927E+03  5.89079E+03  5.19383E+03  1.08983E+04
 -5.78367E+03  1.57370E+04 -1.39555E+04  1.42798E+04 -1.96972E+04  4.39206E+03 -2.05025E+04 -8.39226E+03
 -9.32300E+03 -1.85585E+04  2.06831E+03 -2.12910E+04  1.31510E+04 -1.41507E+04  1.66478E+04 -2.82339E+03
  1.23751E+04  7.27101E+03  3.77941E+03  1.08666E+04 -6.08512E+03  8.46081E+03 -7.83789E+03 -2.13442E+03
 -3.85599E+03 -8.42650E+03  3.82824E+03 -9.45793E+03  8.36118E+03 -3.35995E+03  7.55368E+03  2.06955E+03
  5.48153E+03  4.85734E+03  1.59766E+03  1.54016E+03 -3.33261E+03  2.48839E+03  1.16163E+03 -2.30086E+03
  2.90546E+03 -8.59579E+02  6.73720E+03  3.82450E+03  4.71103E+03  1.11303E+04 -1.23005E+03  1.22613E+04
 -1.02018E+04  8.87118E+03 -1.39729E+04  2.01754E+03 -9.93393E+03 -3.83439E+03 -4.10055E+03 -5.84574E+03
  4.41151E+01 -6.41966E+03  5.06590E+03 -4.50253E+03  5.28324E+03  2.29690E+03 -1.45447E+03  5.84983E+03
 -8.49366E+03  4.01402E+03 -8.67187E+03 -6.34047E+03 -3.64377E+03 -1.14363E+04  9.50817E+02 -1.21662E+04
  7.21105E+03 -5.62413E+03  9.28244E+03 -1.51743E+02  6.95277E+03  5.49582E+03 -1.21745E+02  6.86990E+03
 -3.97240E+03  2.33469E+03 -3.41849E+03 -4.57465E+03  1.84026E+03 -8.40003E+03  8.06637E+03 -7.77351E+03
  1.35497E+04  1.76079E+02  1.18747E+04  8.98075E+03  2.65500E+03  1.35088E+04 -4.72566E+03  1.17056E+04
 -1.07601E+04  4.86999E+03 -1.00126E+04 -2.77288E+03 -5.62617E+03 -9.53898E+03  2.35226E+03 -7.55822E+03
  7.62778E+03 -4.37393E+03  7.31171E+03  2.64182E+03  1.86724E+03  5.48118E+03 -2.73386E+03  7.44673E+03
 -4.95310E+03  4.04740E+03 -3.83811E+03  2.12687E+03 -2.98853E+03  1.02233E+03 -2.79591E+03  3.74768E+03
 -4.13543E+03  5.08601E+03 -8.22505E+03  5.78842E+03 -1.59282E+04 -1.15534E+03 -1.62816E+04 -1.00484E+04
 -6.75431E+03 -1.74640E+04  3.37957E+03 -2.14929E+04  1.34714E+04 -1.45657E+04  2.06111E+04 -4.36757E+03
  1.97945E+04  3.88995E+03  1.22217E+04  1.29344E+04 -6.30799E+01  1.56180E+04 -4.97666E+03  9.95317E+03
 -9.23552E+03  2.54798E+03 -5.77954E+03 -9.58593E+02 -8.69030E+02 -3.05124E+03 -1.84167E+03 -5.29958E+02
 -3.56290E+03  1.57642E+03 -6.22677E+03 -1.93087E+03 -6.56847E+02 -4.00042E+03  1.22419E+03 -6.12763E+03
  5.71601E+03 -6.03456E+03  8.93189E+03 -2.64965E+02  1.07236E+04  7.80295E+03  3.14630E+03  1.70516E+04
 -7.09925E+03  1.69753E+04 -1.51975E+04  1.01058E+04 -1.91767E+04 -1.19273E+03 -1.29004E+04 -1.08324E+04
 -5.59772E+03 -1.57913E+04  2.59835E+03 -1.50475E+04  1.27489E+04 -7.82381E+03  9.53408E+03 -1.02889E+03
  7.39200E+03  5.41515E+03 -4.85417E+02  3.99073E+03 -2.14400E+03 -1.03283E+02  9.62206E+02 -2.98612E+03
  5.83523E+03 -1.27953E+03  6.23315E+03  6.67901E+02  4.01916E+03  5.86568E+03 -2.98889E+02  8.68314E+03
 -7.74787E+03  5.51299E+03 -9.50610E+03 -3.43250E+01 -7.53130E+03 -8.24957E+03 -6.86193E+01 -1.30313E+04
  7.19810E+03 -9.88692E+03  1.14736E+04 -3.76957E+03  1.27146E+04  3.42723E+03  6.37977E+03  1.09992E+04
  1.90886E+03  1.15344E+04 -4.52532E+03  7.73453E+03 -7.02516E+03  4.72996E+03 -6.50859E+03 -1.90389E+03
 -2.72018E+03  9.34535E+02 -2.73364E+03  5.80551E+02 -5.04088E+03  2.02207E+03 -7.39370E+03 -7.44902E+02
 -8.95408E+03 -5.80473E+03 -1.95610E+03 -1.01317E+04  5.11283E+03 -1.02812E+04  1.05181E+04 -5.31921E+03
  1.16728E+04  7.56828E+02  4.93590E+03  8.18148E+03 -1.55751E+03  1.03899E+04 -7.91379E+03  6.63722E+03
