 $NMID ID='MM_0lb_SNR200_9hz_g50_82.RAW', FMTDAT='(8E13.5)'
 TRAMP=1., VOLUME=1. $END
  3.10235E+05  9.10801E+02  3.37336E+05  2.51401E+05  8.54508E+04  3.39872E+05 -1.32013E+05  2.50016E+05
 -1.91717E+05  8.33828E+04 -1.12428E+05 -3.28278E+04 -4.16691E+02 -5.14357E+04  5.28981E+04  3.58257E+02
  3.54201E+04  5.23963E+04 -1.60168E+04  7.51600E+04 -6.08467E+04  6.37999E+04 -8.47030E+04  3.12477E+04
 -8.22953E+04 -1.16013E+04 -5.72533E+04 -5.29627E+04 -1.54069E+04 -7.04342E+04  2.87544E+04 -4.81372E+04
  4.10038E+04  2.97658E+03  1.72009E+04  4.78782E+04 -3.43115E+04  4.84389E+04 -6.78397E+04 -3.40870E+02
 -5.44207E+04 -5.70380E+04 -8.55631E+03 -7.92857E+04  3.57106E+04 -5.81861E+04  5.01785E+04 -1.79229E+04
  4.37645E+04  1.20350E+04  3.35940E+04  2.78318E+04  1.49177E+04  3.11300E+04 -6.42086E+03  2.89063E+04
 -2.28998E+04  1.26532E+04 -1.76393E+04 -6.03013E+03  7.37172E+03 -6.29108E+03  2.41998E+04  1.37421E+04
  8.20365E+03  3.90021E+04 -3.46398E+04  3.71448E+04 -6.72810E+04  2.49150E+03 -5.86054E+04 -4.42301E+04
 -1.35386E+04 -6.58732E+04  4.12927E+04 -4.75761E+04  6.20328E+04 -1.62614E+03  3.69607E+04  3.40602E+04
 -4.91386E+03  3.89963E+04 -3.21489E+04  1.80951E+04 -3.30817E+04 -4.59287E+03 -1.97285E+04 -1.16287E+04
 -1.08691E+04 -1.56386E+04 -1.92894E+02 -1.93511E+04  7.69544E+03 -2.32955E+04  1.65680E+04 -1.14471E+04
  1.09669E+04  4.61783E+03 -9.49568E+03  1.37679E+04 -2.29689E+04 -6.43342E+03 -9.44613E+03 -3.81844E+04
  2.41693E+04 -4.76639E+04  5.22139E+04 -2.07518E+04  4.79580E+04  2.26026E+04  1.64891E+04  4.70505E+04
 -1.74382E+04  3.57982E+04 -2.68596E+04  3.03305E+03 -1.00502E+04 -2.82333E+04  2.12286E+04 -3.72894E+04
  4.49812E+04 -1.15999E+04  4.04307E+04  2.57980E+04  2.11276E+04  5.14462E+04 -8.95111E+03  5.56811E+04
 -3.38918E+04  3.86186E+04 -4.75062E+04  1.09676E+04 -4.79975E+04 -1.81153E+04 -2.54952E+04 -4.27990E+04
  6.04859E+03 -4.26682E+04  3.30843E+04 -1.75506E+04  3.13170E+04  1.15091E+04  5.37619E+03  2.19953E+04
 -1.39176E+04  1.05212E+04 -1.28081E+04 -4.66240E+03  4.91025E+03 -1.17900E+04  1.92989E+04  3.99795E+03
  1.53641E+04  2.23525E+04 -4.31752E+03  2.68522E+04 -2.47065E+04  1.37992E+04 -3.08983E+04 -2.83432E+03
 -2.53598E+04 -1.82134E+04 -1.25318E+04 -2.41427E+04  5.75392E+03 -2.54077E+04  2.02459E+04 -2.36081E+04
  3.29377E+04 -1.36315E+04  3.75801E+04  3.56610E+03  2.69806E+04  2.38015E+04  4.14373E+03  4.12586E+04
 -2.06122E+04  3.57494E+04 -3.20802E+04  1.24906E+04 -2.34976E+04 -1.10826E+04 -4.89488E+03 -1.30541E+04
  1.17353E+02 -1.89317E+03 -7.05358E+03  7.49061E+03 -2.00695E+04  5.40376E+03 -2.18373E+04 -1.01050E+04
 -1.24348E+04 -2.26065E+04  4.14903E+03 -2.84532E+04  1.93910E+04 -2.04423E+04  2.30890E+04 -3.00380E+03
  1.53646E+04  1.46224E+04 -4.60846E+02  2.41740E+04 -1.62757E+04  1.32145E+04 -2.39285E+04 -5.29121E+03
 -1.90004E+04 -2.08987E+04 -2.62275E+03 -2.80612E+04  1.23866E+04 -2.47109E+04  2.36835E+04 -1.24570E+04
  2.05862E+04  1.74164E+02  1.57473E+04  5.95672E+03  9.75164E+03  4.86867E+03  1.25269E+04 -2.35246E+03
  2.41546E+04  3.59891E+03  2.57226E+04  1.86763E+04  1.69235E+04  3.96038E+04 -1.70008E+03  4.58216E+04
 -2.70093E+04  3.59526E+04 -4.13969E+04  2.10849E+04 -4.37307E+04 -2.76923E+03 -3.56865E+04 -2.58667E+04
 -1.41845E+04 -3.68575E+04  1.37684E+04 -3.26372E+04  2.82436E+04 -1.53113E+04  2.33920E+04  6.88012E+03
  8.75817E+03  1.91670E+04 -1.00958E+04  1.74279E+04 -2.15132E+04  3.41324E+03 -1.47844E+04 -1.17978E+04
  3.09990E+02 -2.02469E+04  1.17036E+04 -1.41860E+04  1.33064E+04 -9.45888E+02  3.07229E+03  7.32437E+03
 -1.02240E+04  3.71690E+03 -8.52822E+03 -7.15447E+03 -1.69916E+03 -1.93990E+04  1.28569E+04 -1.83783E+04
  2.21096E+04 -9.63506E+03  2.51138E+04  3.27164E+03  2.28772E+04  1.95860E+04  1.06936E+04  2.71364E+04
 -5.89116E+03  3.06355E+04 -2.05941E+04  1.95308E+04 -2.43334E+04  4.64243E+03 -1.45211E+04 -5.81201E+03
 -6.62745E+03 -7.12079E+03 -3.15101E+02 -3.76658E+02 -2.85088E+03  3.59012E+03 -7.03377E+03  4.98224E+03
 -1.45709E+04 -1.10549E+03 -1.49866E+04 -1.09748E+04 -5.87173E+03 -1.85778E+04  4.82688E+03 -1.46496E+04
  1.20778E+04 -6.22635E+03  8.42464E+03  3.13685E+03 -6.83126E+02  5.87716E+03 -7.88250E+03  2.41344E+02
 -7.19609E+03 -1.11480E+04 -2.48755E+02 -1.50951E+04  1.00836E+04 -1.69267E+04  1.91149E+04 -9.26797E+03
  2.32078E+04  2.54570E+03  1.72783E+04  1.34674E+04  3.92264E+03  1.99790E+04 -8.80665E+03  1.60933E+04
 -1.22027E+04  4.31335E+03 -7.14449E+03 -3.01310E+03  2.82577E+03 -4.68787E+03  7.59190E+03 -1.41891E+03
  7.31181E+03  6.55665E+03  2.56784E+03  1.37278E+04 -8.53531E+03  1.18286E+04 -1.57346E+04  3.94126E+03
 -1.08238E+04 -8.77188E+03  8.24848E+01 -1.38665E+04  8.88372E+03 -7.71191E+03  8.89732E+03  3.25745E+03
  2.59180E+03  1.05502E+04 -7.92258E+03  1.16318E+04 -1.20316E+04  6.01031E+03 -1.31392E+04 -3.76713E+03
 -8.35081E+03 -1.68183E+04  4.00760E+03 -1.68838E+04  1.52822E+04 -1.09073E+04  1.50514E+04  3.86819E+03
  9.13406E+03  1.33130E+04 -3.05686E+03  1.60018E+04 -1.20448E+04  7.95304E+03 -1.23349E+04 -1.66838E+03
 -1.06360E+04 -1.12089E+04 -3.00337E+03 -1.12976E+04  8.09879E+03 -1.00585E+04  5.71315E+03 -5.67023E+03
  3.44556E+03  2.62500E+03  6.05569E+02  2.60129E+03 -1.78017E+03 -2.14958E+03  4.41619E+03 -7.11300E+03
  1.17091E+04 -3.69052E+03  1.58555E+04  2.18335E+03  1.72996E+04  1.07549E+04  9.63061E+03  2.01301E+04
 -4.57382E+03  2.47878E+04 -2.05200E+04  1.82264E+04 -2.63328E+04  3.08826E+03 -2.00605E+04 -8.54938E+03
 -1.04114E+04 -1.76934E+04 -1.18692E+03 -1.43372E+04  4.88849E+03 -7.19206E+03  5.65317E+03 -5.62338E+03
  2.60997E+03 -3.50138E+03  2.96491E+03 -4.60360E+03  6.34939E+03 -2.99076E+03  7.25710E+03 -2.87720E+03
  1.18257E+04  1.75666E+03  5.95881E+03  9.83509E+03 -1.18300E+03  1.08674E+04 -1.13384E+04  8.16038E+03
 -1.60800E+04 -2.08354E+03 -9.59331E+03 -1.05934E+04 -4.15296E+02 -1.55438E+04  8.48480E+03 -1.49047E+04
  1.56925E+04 -7.95310E+03  2.10742E+04  1.91249E+03  1.43401E+04  1.20749E+04  1.56119E+03  1.66181E+04
 -8.39296E+03  1.41254E+04 -8.82339E+03  6.78920E+03 -7.91578E+03 -7.20108E+02 -2.25585E+03 -2.98941E+03
 -1.84841E+03 -1.11064E+03 -3.51876E+03  1.97262E+03 -5.80878E+03  3.25194E+03 -1.01473E+04 -2.75880E+03
 -6.85828E+03 -1.10418E+04  1.06864E+03 -1.36085E+04  8.02022E+03 -1.23587E+04  1.47834E+04 -3.75290E+03
  1.55098E+04  5.42927E+03  6.93604E+03  1.19099E+04 -2.42249E+03  1.39888E+04 -7.92842E+03  9.93981E+03
 -1.52347E+04  1.14459E+02 -1.01816E+04 -9.55224E+03 -2.10005E+02 -1.23172E+04  5.91633E+03 -8.27366E+03
  9.04482E+03 -2.70515E+03  7.03201E+03  3.20157E+03  1.78249E+03  3.51902E+03  3.68676E+02  1.02820E+03
  3.39256E+03  6.60219E+02  3.81950E+03  1.25827E+03  4.15883E+03  5.17866E+03  3.52652E+03  7.07161E+03
 -2.64867E+03  1.39177E+04 -1.09400E+04  1.21155E+04 -1.43846E+04  2.17818E+03 -1.61516E+04 -6.42791E+03
 -8.57739E+03 -1.49790E+04  1.16619E+03 -1.71957E+04  9.04061E+03 -8.55664E+03  1.22406E+04 -3.25174E+03
  9.47426E+03  4.29230E+03  2.32269E+03  8.58141E+03 -5.22068E+03  5.76624E+03 -6.38732E+03 -1.96701E+03
 -2.81133E+03 -6.68822E+03  3.30369E+03 -6.09717E+03  6.84378E+03 -3.74063E+03  4.27994E+03  1.59026E+03
  3.10115E+03  2.73474E+03 -1.38179E+03  3.97487E+03 -1.02380E+03  8.65340E+02 -7.26061E+02 -3.20842E+02
  3.42892E+03 -1.19361E+03  5.69430E+03  1.80513E+03  5.55317E+03  5.97469E+03 -2.75399E+03  1.11872E+04
 -7.05520E+03  7.37221E+03 -9.35317E+03  9.96895E+02 -6.21537E+03 -3.56711E+03 -4.32196E+03 -7.16004E+03
  9.15816E+02 -6.04069E+03  3.76908E+03 -2.73559E+03  4.42914E+03  1.99876E+03 -1.44654E+03  4.45337E+03
 -6.97563E+03  1.56584E+03 -6.59352E+03 -2.83684E+03 -4.33690E+03 -9.12283E+03  1.04554E+03 -7.81473E+03
  5.83460E+03 -4.93134E+03  5.56418E+03 -3.60908E+02  4.72990E+03  1.80829E+03  9.11567E+02  1.55731E+03
 -3.80849E+03  1.15485E+00 -3.24480E+03 -3.22316E+03  7.87524E+02 -6.25635E+03  8.23933E+03 -5.13534E+03
  9.63888E+03  9.17748E+02  9.89465E+03  6.58782E+03  4.12278E+03  9.21073E+03 -3.32425E+03  8.97812E+03
 -8.74725E+03  4.08297E+03 -7.33964E+03 -5.75438E+02 -5.08273E+03 -5.48948E+03  2.64129E+02 -3.17907E+03
  5.27926E+03 -4.12938E+03  4.98301E+03  2.36814E+03  2.32384E+02  6.30726E+03 -5.35467E+02  5.83727E+03
 -3.26804E+03  5.08809E+03 -2.88930E+03  6.68611E+02 -1.01961E+03  2.04127E+03 -2.70803E+03  2.00189E+03
 -2.85215E+03  4.87895E+03 -6.29058E+03  5.44074E+03 -1.14089E+04 -1.46327E+03 -1.15812E+04 -7.29952E+03
 -6.40706E+03 -1.43684E+04  2.70011E+03 -1.61305E+04  9.67632E+03 -1.30432E+04  1.48071E+04 -5.16436E+03
  1.35247E+04  1.22754E+03  8.68625E+03  9.23397E+03  7.90788E+02  1.13888E+04 -5.61545E+03  7.41634E+03
 -4.81750E+03  3.08753E+03 -4.16196E+03 -5.17913E+02  3.91542E+00 -1.25155E+03 -1.20082E+03  8.35331E+02
 -1.74014E+03  1.27050E+03 -2.95598E+03 -5.66563E+02 -1.68767E+03 -2.21302E+03  4.91257E+02 -4.28302E+03
  4.30108E+03 -2.76466E+03  5.43538E+03  4.00990E+02  7.54973E+03  6.39006E+03  2.80897E+03  9.24931E+03
 -5.61135E+03  1.03858E+04 -1.00264E+04  5.97006E+03 -1.23352E+04 -2.48795E+02 -9.51021E+03 -8.56697E+03
 -3.39709E+03 -1.09531E+04  1.93406E+03 -1.01874E+04  6.37244E+03 -4.97327E+03  6.19123E+03  2.26898E+02
  4.18463E+03  3.05179E+03 -2.37133E+02  4.28937E+03 -8.36220E+02  1.80043E+02 -6.84718E+02 -1.97354E+03
  2.11664E+03 -1.62214E+03  5.02232E+03  9.52119E+02  2.04521E+03  4.42388E+03  9.38831E+01  5.34420E+03
 -4.76472E+03  4.46551E+03 -5.54538E+03  1.43652E+03 -7.02361E+03 -3.85471E+03 -7.73683E+02 -9.78479E+03
  4.19159E+03 -8.63891E+03  6.00990E+03 -2.79947E+03  6.51132E+03 -6.61270E+01  2.98768E+03  7.03645E+03
  1.61469E+03  7.70858E+03 -3.12535E+03  5.34368E+03 -6.65628E+03  3.50313E+03 -4.35841E+03  3.03046E+03
 -1.39972E+02  6.59237E+02 -8.26281E+02  1.55587E+02 -3.44544E+03  3.18068E+03 -5.61708E+03 -2.06397E+03
 -5.33539E+03 -3.53828E+03 -2.32824E+03 -6.81861E+03  2.97579E+03 -7.98165E+03  6.78835E+03 -3.56977E+03
  7.17347E+03  1.91076E+03  2.14199E+03  4.79731E+03 -2.23356E+02  6.97634E+03 -7.42178E+03  5.13584E+03
