 $NMID ID='MM_0lb_SNR200_7hz_g45_57.RAW', FMTDAT='(8E13.5)'
 TRAMP=1., VOLUME=1. $END
  3.10385E+05  1.53084E+03  3.38189E+05  2.52256E+05  8.40098E+04  3.38165E+05 -1.31652E+05  2.52602E+05
 -1.90691E+05  8.59530E+04 -1.15179E+05 -3.11525E+04  3.75199E+02 -5.19100E+04  5.39074E+04 -3.02228E+02
  3.60215E+04  5.27196E+04 -1.62660E+04  7.74136E+04 -6.01740E+04  6.44307E+04 -8.65795E+04  3.24612E+04
 -8.41441E+04 -1.23620E+04 -5.91782E+04 -5.32421E+04 -1.66353E+04 -7.22036E+04  2.73483E+04 -4.66009E+04
  4.05952E+04  4.02194E+03  1.67332E+04  4.95488E+04 -3.36560E+04  4.93379E+04 -6.87806E+04 -5.24506E+02
 -5.51244E+04 -5.96423E+04 -9.61297E+03 -7.86665E+04  3.36099E+04 -5.67907E+04  5.22548E+04 -1.84356E+04
  4.71621E+04  1.08967E+04  3.36877E+04  2.70307E+04  1.53595E+04  3.04602E+04 -5.87661E+03  2.67356E+04
 -2.06123E+04  1.22704E+04 -1.78928E+04 -6.76526E+03  9.29503E+03 -7.31279E+03  2.51663E+04  1.42689E+04
  8.26719E+03  3.77902E+04 -3.18076E+04  3.69110E+04 -6.68805E+04  2.25705E+03 -5.77304E+04 -4.72841E+04
 -1.16728E+04 -6.60697E+04  4.21512E+04 -5.14346E+04  6.13086E+04 -8.59361E+02  3.73198E+04  3.44634E+04
 -5.64774E+03  4.32343E+04 -3.33259E+04  1.87455E+04 -3.49871E+04 -9.03668E+02 -1.83920E+04 -1.18462E+04
 -9.81156E+03 -1.57044E+04 -2.20810E+03 -2.00243E+04  9.19898E+03 -2.54487E+04  1.64583E+04 -1.15648E+04
  9.72765E+03  6.78182E+03 -1.16739E+04  1.31311E+04 -2.59270E+04 -8.43577E+03 -7.45928E+03 -3.62085E+04
  2.55617E+04 -4.61476E+04  5.44129E+04 -2.09136E+04  4.96301E+04  2.14945E+04  1.73226E+04  4.95715E+04
 -1.61137E+04  3.63351E+04 -2.86185E+04  3.63915E+03 -1.09111E+04 -2.92111E+04  2.00865E+04 -3.87131E+04
  4.69850E+04 -1.11569E+04  4.32657E+04  2.43417E+04  2.19967E+04  5.32050E+04 -7.83655E+03  5.89579E+04
 -3.51455E+04  3.94082E+04 -4.94044E+04  1.28920E+04 -4.87410E+04 -1.98124E+04 -2.80475E+04 -4.43429E+04
  8.66940E+03 -4.36928E+04  3.53981E+04 -1.76254E+04  3.37802E+04  1.32328E+04  5.80267E+03  2.14274E+04
 -1.34391E+04  9.60765E+03 -1.10532E+04 -7.46486E+03  5.41133E+03 -1.25691E+04  2.05893E+04  4.25413E+03
  1.64449E+04  2.16392E+04 -4.53651E+03  2.62341E+04 -2.26746E+04  1.52901E+04 -3.26969E+04 -1.59873E+03
 -2.63792E+04 -2.00074E+04 -1.35488E+04 -2.53618E+04  3.84869E+03 -2.83160E+04  2.15764E+04 -2.56084E+04
  3.45128E+04 -1.50050E+04  3.91243E+04  6.83894E+03  2.78839E+04  2.67671E+04  3.50902E+03  4.36427E+04
 -2.25316E+04  3.67518E+04 -3.16768E+04  1.20395E+04 -2.23745E+04 -1.03091E+04 -5.20295E+03 -1.38227E+04
 -1.96645E+02  1.72743E+03 -8.81647E+03  7.62200E+03 -2.14503E+04  4.44095E+03 -2.09697E+04 -9.56472E+03
 -1.12586E+04 -2.40315E+04  7.81768E+03 -2.90975E+04  1.90762E+04 -2.28866E+04  2.45060E+04 -5.20420E+02
  1.54748E+04  1.70222E+04 -3.48088E+03  2.39810E+04 -1.89552E+04  1.37911E+04 -2.56944E+04 -4.56565E+03
 -2.03614E+04 -2.10151E+04 -3.92452E+03 -2.91074E+04  1.30047E+04 -2.46592E+04  2.51107E+04 -1.51457E+04
  2.33392E+04 -1.19627E+03  1.61434E+04  5.47931E+03  8.64055E+03  1.36229E+03  1.23669E+04 -1.73644E+03
  2.50307E+04  3.04016E+03  2.88149E+04  1.93974E+04  1.93041E+04  4.07098E+04 -3.08471E+03  4.83492E+04
 -2.60153E+04  4.11116E+04 -4.62463E+04  1.98554E+04 -4.81728E+04 -2.45244E+03 -3.84884E+04 -2.86021E+04
 -1.40126E+04 -4.13381E+04  1.30621E+04 -3.39624E+04  2.89664E+04 -1.55137E+04  2.57242E+04  8.97178E+03
  8.43551E+03  2.01016E+04 -1.34627E+04  1.56706E+04 -2.09936E+04  3.50510E+03 -1.69790E+04 -1.55863E+04
 -1.18496E+03 -2.16154E+04  1.22870E+04 -1.56413E+04  1.60281E+04 -1.56719E+03  3.95106E+03  7.28866E+03
 -9.43110E+03  3.00918E+03 -1.05125E+04 -7.42815E+03 -3.47082E+03 -2.07124E+04  1.29893E+04 -2.20172E+04
  2.56002E+04 -1.30551E+04  2.79485E+04  4.71796E+03  2.55204E+04  2.06187E+04  1.21598E+04  3.14277E+04
 -6.80466E+03  3.38600E+04 -2.35882E+04  2.25161E+04 -2.44352E+04  4.48306E+03 -1.73322E+04 -5.31745E+03
 -6.65028E+03 -7.93007E+03 -1.04857E+02  8.76800E+02 -2.13463E+03  4.36361E+03 -7.61394E+03  6.36054E+03
 -1.64141E+04 -1.08526E+02 -1.61789E+04 -1.30378E+04 -5.48757E+03 -1.97502E+04  7.27220E+03 -1.88221E+04
  1.31828E+04 -6.30091E+03  1.04967E+04  3.64092E+03 -1.09999E+03  5.35098E+03 -8.97245E+03 -1.17005E+02
 -8.07883E+03 -1.14648E+04 -1.73308E+03 -1.80514E+04  1.09729E+04 -1.82120E+04  2.24408E+04 -1.03426E+04
  2.78929E+04  3.33637E+03  1.95116E+04  1.52069E+04  2.21530E+03  2.20014E+04 -1.22828E+04  1.84479E+04
 -1.52388E+04  6.03764E+03 -7.31120E+03 -2.71460E+03  3.42085E+03 -4.60062E+03  8.04357E+03  6.22509E+02
  9.35865E+03  7.50879E+03  9.68265E+02  1.47006E+04 -1.11907E+04  1.46616E+04 -1.73448E+04  3.65655E+03
 -1.29441E+04 -9.83596E+03 -2.37519E+02 -1.62189E+04  1.21770E+04 -6.72029E+03  1.11852E+04  4.24199E+03
  2.63118E+03  1.13678E+04 -1.03077E+04  1.49478E+04 -1.60899E+04  5.27938E+03 -1.70842E+04 -5.10868E+03
 -7.51066E+03 -2.02108E+04  2.47895E+03 -2.11594E+04  1.90040E+04 -1.17144E+04  1.86587E+04  4.37192E+03
  1.13285E+04  1.53900E+04 -2.06637E+02  1.79136E+04 -1.34574E+04  1.17808E+04 -1.45158E+04 -1.95097E+03
 -1.20031E+04 -1.13592E+04 -2.41481E+03 -1.46980E+04  7.55340E+03 -1.22720E+04  8.92898E+03 -4.04442E+03
  7.09311E+03  4.25171E+03 -1.60961E+03  3.03308E+03 -1.29113E+03 -6.51435E+03  5.00122E+03 -8.64511E+03
  1.28506E+04 -5.03771E+03  1.99669E+04  4.65429E+02  1.97744E+04  1.36814E+04  1.17663E+04  2.33187E+04
 -7.39718E+03  2.77274E+04 -2.23462E+04  2.10950E+04 -3.06893E+04  4.26158E+03 -2.42910E+04 -1.16707E+04
 -1.15034E+04 -2.01508E+04 -2.30451E+03 -1.75359E+04  5.44730E+03 -1.09352E+04  6.42011E+03 -5.96580E+03
  3.96672E+03 -4.65190E+03  5.43101E+03 -4.16087E+03  6.95916E+03 -5.89854E+03  1.00081E+04 -1.79290E+03
  1.37279E+04  3.55883E+03  7.24247E+03  1.20595E+04 -3.67323E+03  1.28011E+04 -1.42666E+04  1.13077E+04
 -1.76748E+04 -1.67783E+03 -1.04491E+04 -1.25104E+04 -3.39571E+03 -1.79783E+04  9.69391E+03 -1.93234E+04
  1.93642E+04 -1.12750E+04  2.54069E+04  2.88537E+03  1.59823E+04  1.68847E+04  1.97755E+03  2.06429E+04
 -9.06402E+03  1.76555E+04 -1.24411E+04  6.36189E+03 -1.04662E+04 -1.88550E+02 -3.58672E+03 -1.39757E+03
 -2.30645E+03 -2.50478E+03 -3.26307E+03  3.66952E+03 -8.05941E+03  1.83968E+03 -1.40540E+04 -2.09495E+03
 -8.08056E+03 -1.12912E+04  2.95456E+03 -1.78544E+04  9.29921E+03 -1.46164E+04  1.78446E+04 -5.83868E+03
  1.70709E+04  9.97079E+03  7.06489E+03  1.57498E+04 -3.96946E+03  1.87167E+04 -1.30158E+04  1.24326E+04
 -1.76177E+04  8.76802E+02 -1.28492E+04 -9.94199E+03 -1.35457E+03 -1.59466E+04  8.46031E+03 -1.05290E+04
  1.14422E+04 -3.43818E+03  7.05846E+03  2.29994E+03  3.03187E+03  3.92357E+03  1.76172E+03  2.80404E+03
  2.98929E+03  2.99600E+03  4.57528E+03  2.12824E+03  6.28618E+03  5.81645E+03  4.68212E+03  9.22919E+03
 -4.04846E+03  1.26302E+04 -1.26836E+04  1.52712E+04 -1.76222E+04  6.00141E+03 -1.93953E+04 -8.26843E+03
 -9.09893E+03 -1.94207E+04  3.54732E+03 -2.01814E+04  1.17549E+04 -1.11656E+04  1.65274E+04 -2.93521E+03
  1.19193E+04  7.20187E+03  3.83906E+03  1.12446E+04 -5.09032E+03  7.27266E+03 -7.14747E+03 -4.24284E+02
 -4.98623E+03 -6.27469E+03  2.42539E+03 -8.49608E+03  7.49526E+03 -4.45508E+03  7.45067E+03  4.74537E+02
  6.38174E+03  3.55002E+03  3.29314E+03  4.90298E+03  1.64462E+03  4.17810E+03  3.00828E+03 -1.09404E+03
  3.68594E+03  4.72477E+01  8.00396E+03  3.81390E+03  4.85217E+03  1.09571E+04 -2.70979E+03  1.40088E+04
 -9.74085E+03  1.16145E+04 -1.33870E+04  2.10930E+03 -1.21948E+04 -2.37632E+03 -5.52134E+03 -1.01475E+04
  6.28719E+02 -6.46481E+03  7.04484E+03 -3.42445E+03  3.82422E+03  3.02189E+03 -1.71733E+03  5.09738E+03
 -8.48318E+03  4.74917E+03 -9.21306E+03 -3.83276E+03 -6.38150E+03 -1.16396E+04  2.02980E+03 -1.17404E+04
  7.78699E+03 -6.65445E+03  7.49293E+03 -5.60426E+02  6.33641E+03  3.54156E+03  1.85048E+03  5.37640E+03
 -4.66082E+03  1.09754E+03 -3.93040E+03 -6.03648E+03  1.73351E+03 -7.97126E+03  8.69615E+03 -6.08747E+03
  1.14704E+04  1.20239E+03  1.15705E+04  1.05777E+04  2.81963E+03  1.34157E+04 -5.00217E+03  1.18732E+04
 -1.07316E+04  5.16457E+03 -1.07771E+04 -2.24130E+03 -6.96839E+03 -8.36478E+03  3.01253E+03 -6.83590E+03
  8.68292E+03 -3.37128E+03  6.58795E+03  2.42037E+03  3.24019E+03  5.73587E+03  5.87834E+02  7.21331E+03
 -4.24397E+03  2.33223E+03 -3.38972E+03  8.73080E+02 -2.50132E+03  7.64129E+02 -1.47641E+03  2.78040E+03
 -4.49933E+03  6.76591E+03 -8.26098E+03  5.63339E+03 -1.27691E+04  9.62228E+01 -1.50478E+04 -9.32452E+03
 -7.30219E+03 -1.91802E+04  3.43030E+03 -1.94287E+04  1.34264E+04 -1.70992E+04  1.75593E+04 -7.30914E+03
  1.86916E+04  4.29237E+03  1.12118E+04  1.08488E+04  2.61543E+03  1.34322E+04 -6.09176E+03  8.71348E+03
 -8.23037E+03  4.25031E+03 -4.38562E+03 -2.57687E+03 -1.36822E+03 -2.28806E+03 -6.40269E+01 -1.04007E+03
 -2.59896E+03 -5.23173E+02 -2.67613E+03 -8.14292E+02 -2.47847E+03 -4.28978E+03  2.53708E+03 -5.50114E+03
  8.35590E+03 -5.26441E+03  1.00819E+04 -1.31070E+03  9.76358E+03  8.04981E+03  1.44721E+03  1.36076E+04
 -7.69426E+03  1.71884E+04 -1.60856E+04  9.81549E+03 -1.69914E+04 -1.65240E+01 -1.35720E+04 -1.09591E+04
 -6.78684E+03 -1.61198E+04  4.33502E+03 -1.27052E+04  7.49585E+03 -7.64159E+03  9.88516E+03 -3.46363E+01
  5.21821E+03  4.74523E+03 -2.89155E+01  5.28576E+03 -3.79018E+03 -3.10998E+01  1.21983E+03 -1.88733E+03
  4.96400E+03 -2.74839E+03  6.25463E+03  9.93544E+02  4.17746E+03  5.55055E+03  3.07762E+01  6.53603E+03
 -4.81185E+03  6.12530E+03 -9.81642E+03  1.39945E+03 -8.86614E+03 -7.56885E+03 -9.06442E+02 -1.35144E+04
  5.92587E+03 -9.47922E+03  1.15781E+04 -2.51842E+03  1.05017E+04  3.47455E+03  7.47590E+03  9.93444E+03
  3.26187E+03  9.68340E+03 -5.08333E+03  9.32279E+03 -4.46999E+03  4.30970E+03 -4.64578E+03 -1.39502E+02
 -1.24737E+03  6.31955E+02 -3.85176E+03  2.95428E+03 -4.09817E+03  2.50827E+03 -7.25176E+03 -9.56007E+02
 -7.60193E+03 -5.14816E+03 -1.87207E+03 -9.49901E+03  4.57297E+03 -1.05049E+04  8.81459E+03 -6.16642E+03
  8.97794E+03  1.36336E+03  7.24973E+03  6.53881E+03 -9.41931E+02  9.51913E+03 -7.61656E+03  7.81353E+03
