 $NMID ID='MM_0lb_SNR200_13hz_g60_11.RAW', FMTDAT='(8E13.5)'
 TRAMP=1., VOLUME=1. $END
  3.10112E+05  2.12229E+02  3.37879E+05  2.49414E+05  8.48788E+04  3.38556E+05 -1.32799E+05  2.50738E+05
 -1.91137E+05  8.38418E+04 -1.12410E+05 -3.20206E+04  3.97151E+02 -5.12450E+04  5.21604E+04 -1.31120E+01
  3.57586E+04  5.28690E+04 -1.74898E+04  7.50114E+04 -5.88683E+04  6.37719E+04 -8.58580E+04  3.19062E+04
 -8.14653E+04 -1.13819E+04 -5.71091E+04 -5.25975E+04 -1.37195E+04 -7.09009E+04  2.79372E+04 -4.54251E+04
  4.11053E+04  4.14505E+03  1.58261E+04  4.90943E+04 -3.36740E+04  4.75027E+04 -6.65425E+04  1.33100E+02
 -5.35520E+04 -5.69763E+04 -7.21284E+03 -7.83633E+04  3.43626E+04 -5.71199E+04  4.93929E+04 -1.62054E+04
  4.39116E+04  9.86467E+03  3.21357E+04  2.63356E+04  1.51001E+04  3.07208E+04 -5.92077E+03  2.70189E+04
 -2.29260E+04  1.23794E+04 -1.92389E+04 -5.33370E+03  6.50861E+03 -7.52404E+03  2.16520E+04  1.36048E+04
  6.50288E+03  3.72419E+04 -3.20927E+04  3.53825E+04 -6.45771E+04  2.11128E+03 -5.90228E+04 -4.49140E+04
 -1.30939E+04 -6.57987E+04  4.08990E+04 -4.78738E+04  5.78249E+04 -2.92672E+03  3.41569E+04  3.40260E+04
 -6.43190E+03  3.88261E+04 -2.93132E+04  1.73971E+04 -3.20136E+04 -3.22726E+03 -1.73120E+04 -1.09050E+04
 -7.87202E+03 -1.37034E+04 -6.48664E+02 -1.92706E+04  7.61064E+03 -2.34151E+04  1.57213E+04 -1.37615E+04
  1.03119E+04  5.40782E+03 -9.88281E+03  1.29829E+04 -2.34466E+04 -6.51143E+03 -1.00333E+04 -3.42335E+04
  2.42165E+04 -4.69329E+04  5.01289E+04 -1.88958E+04  4.77216E+04  1.96959E+04  1.67447E+04  4.54625E+04
 -1.67824E+04  3.41468E+04 -2.72967E+04  3.01396E+03 -9.93614E+03 -2.85870E+04  2.11319E+04 -3.64097E+04
  4.38860E+04 -1.10022E+04  3.81121E+04  2.48185E+04  1.93816E+04  5.02753E+04 -7.01406E+03  5.30390E+04
 -3.31435E+04  3.56558E+04 -4.54768E+04  1.08366E+04 -4.45834E+04 -1.78128E+04 -2.42971E+04 -3.90988E+04
  7.90699E+03 -3.94677E+04  3.35215E+04 -1.66406E+04  2.98911E+04  1.14341E+04  4.18908E+03  1.95991E+04
 -1.43522E+04  7.80879E+03 -1.05686E+04 -8.04417E+03  6.13806E+03 -1.18479E+04  1.77592E+04  7.19157E+03
  1.41890E+04  2.26312E+04 -7.09559E+03  2.56974E+04 -2.25382E+04  1.32431E+04 -2.94254E+04 -3.54067E+03
 -2.25007E+04 -1.66397E+04 -1.02093E+04 -2.18622E+04  5.40601E+03 -2.24087E+04  1.80038E+04 -2.06056E+04
  2.95917E+04 -1.35653E+04  3.43251E+04  4.88108E+03  2.43607E+04  2.29659E+04  2.64506E+03  3.81706E+04
 -1.95915E+04  3.16873E+04 -2.86379E+04  1.14194E+04 -2.07957E+04 -1.05565E+04 -5.70524E+03 -1.19519E+04
  9.29912E+02 -2.38276E+03 -5.61718E+03  8.37236E+03 -1.86389E+04  4.22745E+03 -1.78907E+04 -8.47992E+03
 -1.02526E+04 -2.05514E+04  6.02668E+03 -2.56995E+04  1.65818E+04 -1.88566E+04  2.00556E+04 -1.20186E+03
  1.27175E+04  1.45183E+04 -2.01527E+03  2.21518E+04 -1.44767E+04  1.24837E+04 -2.12710E+04 -3.44808E+03
 -1.66159E+04 -2.04859E+04 -1.38992E+03 -2.36716E+04  1.03019E+04 -1.98729E+04  2.08443E+04 -9.99588E+03
  1.91927E+04 -7.65080E+01  1.38475E+04  5.97830E+03  7.68331E+03  1.88888E+03  1.08919E+04 -1.54400E+03
  1.99809E+04  2.27701E+03  2.15491E+04  1.56772E+04  1.40274E+04  3.42066E+04 -3.46888E+03  3.87942E+04
 -2.29453E+04  3.09827E+04 -3.70102E+04  1.65802E+04 -3.76777E+04 -3.65145E+03 -3.07428E+04 -2.31022E+04
 -1.18843E+04 -3.21534E+04  1.21203E+04 -2.82428E+04  2.62769E+04 -1.36789E+04  2.12929E+04  6.36905E+03
  6.98033E+03  1.61996E+04 -1.05786E+04  1.33738E+04 -1.79311E+04  2.94007E+03 -1.43060E+04 -1.10246E+04
 -6.58778E+02 -1.74788E+04  7.67507E+03 -1.24214E+04  1.11157E+04 -1.55350E+03  2.61374E+03  6.24387E+03
 -7.93525E+03  3.38196E+03 -7.27289E+03 -5.54463E+03 -8.64145E+02 -1.52868E+04  9.82131E+03 -1.64937E+04
  1.86241E+04 -9.81798E+03  2.06647E+04  1.62736E+03  1.93806E+04  1.43160E+04  9.17293E+03  2.38941E+04
 -4.64004E+03  2.58780E+04 -1.65535E+04  1.62288E+04 -1.92680E+04  4.93966E+03 -1.31998E+04 -4.55536E+03
 -6.39762E+03 -4.99698E+03  5.37355E+02  2.98462E+02 -2.37445E+03  3.33373E+03 -5.82579E+03  5.05003E+03
 -1.23258E+04 -7.69845E+02 -1.14441E+04 -1.03936E+04 -3.59834E+03 -1.66688E+04  5.42935E+03 -1.22366E+04
  1.08161E+04 -6.00934E+03  7.92964E+03  3.21604E+03 -1.32567E+03  5.72535E+03 -6.22911E+03  2.97724E+02
 -5.99511E+03 -7.95627E+03  9.56847E+02 -1.17484E+04  7.69809E+03 -1.27550E+04  1.72017E+04 -6.61757E+03
  1.96955E+04  1.40325E+03  1.49058E+04  1.13494E+04  2.67547E+03  1.44738E+04 -7.83295E+03  1.35271E+04
 -9.65167E+03  2.42763E+03 -6.00373E+03 -3.88636E+03  2.27465E+03 -2.61547E+03  6.42848E+03  8.47433E+01
  5.43266E+03  5.72167E+03  1.80811E+03  8.48409E+03 -7.06756E+03  1.00762E+04 -1.21240E+04  1.64266E+03
 -7.91484E+03 -6.25064E+03 -1.00891E+03 -1.05604E+04  6.18361E+03 -5.61166E+03  5.49952E+03  3.19848E+03
  1.18035E+03  7.55290E+03 -6.73876E+03  8.11494E+03 -1.05807E+04  4.31786E+03 -1.05591E+04 -2.93783E+03
 -5.18267E+03 -1.31466E+04  3.27861E+03 -1.30907E+04  1.14729E+04 -9.12554E+03  1.14203E+04  1.94305E+03
  8.27428E+03  9.36976E+03 -4.91014E+02  1.18491E+04 -9.27264E+03  7.26596E+03 -9.26494E+03 -4.21196E+02
 -8.64185E+03 -9.10912E+03 -2.47309E+03 -7.58810E+03  3.87531E+03 -8.68100E+03  5.99556E+03 -3.32388E+03
  3.55298E+03  1.12850E+03 -4.86191E+02  9.99658E+02 -2.29244E+02 -1.97253E+03  5.42409E+02 -4.54293E+03
  9.33957E+03 -3.87523E+03  1.29816E+04  1.17392E+03  9.79998E+03  7.05900E+03  6.94815E+03  1.53116E+04
 -4.82737E+03  1.79000E+04 -1.48883E+04  1.32501E+04 -1.92182E+04  2.63096E+03 -1.54897E+04 -6.26338E+03
 -6.67608E+03 -1.15947E+04 -8.41497E+02 -1.04207E+04  4.18639E+03 -5.95540E+03  4.03627E+03 -3.92736E+03
  2.75213E+03 -2.95047E+03  5.02196E+03 -3.43443E+03  4.28815E+03 -2.40788E+03  5.49870E+03 -1.16415E+03
  8.02357E+03  2.29185E+03  3.27581E+03  6.17923E+03 -1.10546E+03  8.00454E+03 -7.35561E+03  6.86578E+03
 -1.03571E+04 -2.05684E+03 -6.48503E+03 -7.61977E+03 -1.50010E+03 -1.10910E+04  5.88648E+03 -1.17403E+04
  1.16187E+04 -6.75180E+03  1.41819E+04  8.52635E+02  9.14301E+03  1.04205E+04  2.49867E+03  1.22578E+04
 -3.43362E+03  1.02646E+04 -7.76966E+03  3.52992E+03 -4.83957E+03 -9.36006E+02 -1.73166E+03 -2.18644E+03
 -1.78184E+03 -1.03690E+02 -1.08405E+03  3.10436E+03 -4.81382E+03  2.16663E+03 -7.02480E+03 -1.19894E+03
 -5.64316E+03 -7.29007E+03 -1.42053E+02 -9.28839E+03  6.11287E+03 -8.73740E+03  9.22510E+03 -3.07692E+03
  1.03845E+04  5.24031E+03  5.07344E+03  8.25779E+03 -1.75153E+03  8.79742E+03 -6.69521E+03  6.09553E+03
 -9.97008E+03  7.00683E+02 -6.70761E+03 -6.35363E+03 -2.78500E+02 -8.05528E+03  3.63189E+03 -5.83126E+03
  6.78386E+03 -2.07999E+03  4.73381E+03  1.46949E+03  9.71509E+02  4.47639E+03  4.70615E+02  1.82577E+03
  1.88337E+03  2.13317E+03  2.44187E+03  1.10320E+03  2.38598E+03  2.95701E+03  2.02114E+03  3.90831E+03
 -2.95186E+03  7.13512E+03 -6.13332E+03  8.77231E+03 -1.00457E+04  2.02003E+03 -1.00670E+04 -3.35807E+03
 -5.13295E+03 -8.65039E+03  1.30617E+03 -1.09823E+04  5.39704E+03 -6.38064E+03  6.91821E+03 -2.22584E+03
  4.38002E+03  3.89525E+03  1.55878E+03  5.05755E+03 -3.44828E+03  3.39985E+03 -4.19612E+03 -7.46012E+02
 -1.02754E+03 -3.13314E+03  1.61773E+03 -4.54877E+03  4.21347E+03 -2.61493E+03  3.56184E+03  7.97281E+02
  2.27450E+03  6.37804E+02  2.17039E+03  1.25048E+02 -5.80949E+02  1.77120E+03  1.02222E+03 -7.86926E+02
  1.53726E+03 -1.48559E+02  4.80159E+03  1.43582E+02  1.08170E+03  4.03229E+03 -7.52185E+02  7.13281E+03
 -4.40081E+03  3.54690E+03 -6.12774E+03  5.53693E+02 -4.51916E+03 -2.34441E+03 -1.23184E+03 -3.73080E+03
  9.60912E+02 -3.77761E+03  1.88979E+03 -1.43925E+03  1.53023E+03  1.41383E+03 -7.50749E+02  3.02383E+03
 -3.61833E+03  2.88655E+03 -3.78993E+03 -2.60305E+03 -3.05727E+03 -4.67315E+03 -9.42030E+01 -3.75498E+03
  2.91120E+03 -2.63159E+03  3.95304E+03  2.02255E+02  3.02920E+03  1.43494E+03  1.09069E+03  2.04644E+03
 -1.74278E+03  5.52795E+02 -2.05003E+03 -1.26625E+03  1.17578E+03 -2.02433E+03  4.92232E+03 -2.77191E+03
  6.30662E+03  8.22210E+02  6.29506E+03  3.50005E+03  2.38102E+03  5.35767E+03 -2.21481E+03  5.36752E+03
 -3.58965E+03  1.23002E+03 -4.80602E+03  4.04457E+02 -1.84504E+03 -3.91443E+03 -1.90191E+02 -4.64830E+03
  3.46734E+03 -1.71741E+03  2.23214E+03  3.17134E+02  1.28651E+03  4.25822E+03  1.38127E+02  2.09164E+03
 -1.86422E+03  2.44958E+03 -9.65502E+02  1.73599E+02  1.68674E+02  2.51414E+01 -6.34031E+02  7.99305E+02
 -2.46251E+03  2.50293E+03 -3.04792E+03  2.29656E+03 -6.70717E+03 -1.35631E+03 -6.35484E+03 -4.59614E+03
 -1.85974E+03 -5.34682E+03  1.05813E+03 -7.94809E+03  4.17620E+03 -6.66586E+03  8.42542E+03 -4.49410E+03
  6.21645E+03  8.03125E+02  3.75214E+03  3.89178E+03 -1.87850E+02  5.05644E+03 -2.08960E+03  4.37790E+03
 -3.32140E+03  2.16329E+03 -1.60289E+03 -1.35846E+03 -1.74024E+03 -1.66835E+03 -1.73361E+02  9.73238E+02
 -1.67220E+03 -8.39306E+02 -2.29081E+03 -2.26032E+02 -1.57273E+03 -2.70384E+03 -5.17830E+02 -2.84721E+03
  4.38816E+03 -2.21624E+03  3.04243E+03  2.46223E+01  4.25527E+03  3.33024E+03  5.23999E+02  5.32668E+03
 -2.48486E+03  6.95820E+03 -5.89350E+03  3.71150E+03 -5.69452E+03 -9.47648E+02 -4.23877E+03 -4.90067E+03
 -3.00010E+03 -6.51013E+03  1.77055E+03 -4.57206E+03  1.76401E+03 -2.84607E+03  3.22264E+03  4.47900E+02
  1.72757E+03  1.62945E+03  5.08013E+02  1.45291E+03 -6.96176E+02 -7.12520E+02 -1.33898E+02 -2.13910E+03
  1.56941E+03 -8.82576E+02  3.09788E+03  1.58410E+03  5.68962E+02  6.86239E+02  2.41298E+03  2.64330E+03
 -3.38250E+03  1.83983E+03 -3.82973E+03  1.06434E+03 -3.26072E+03 -1.40432E+03  8.93865E+02 -2.90536E+03
  3.21984E+03 -2.88754E+03  3.10267E+03 -1.33753E+03  3.93054E+03  5.03201E+02  2.10832E+03  2.62049E+03
  2.02716E+03  2.37704E+03 -2.05186E+03  2.19454E+03 -2.65872E+03  1.37192E+03 -2.58383E+03  8.17550E+01
 -9.60021E+02 -1.80245E+02 -1.63052E+03  3.25739E+02 -1.24064E+03  9.99580E+02 -2.20104E+03  1.43369E+02
 -1.89229E+03 -1.00601E+03 -4.77160E+02 -2.30858E+03  1.13864E+03 -3.91252E+03  2.64206E+03 -1.99027E+03
  3.36159E+03  7.45710E+02  1.18240E+03  9.18870E+02  4.43370E+02  3.78867E+03 -8.34046E+02  1.75383E+03
