 $NMID ID='MM_0lb_SNR200_16hz_g60_74.RAW', FMTDAT='(8E13.5)'
 TRAMP=1., VOLUME=1. $END
  3.09797E+05  3.91130E+02  3.36395E+05  2.50092E+05  8.48739E+04  3.37423E+05 -1.32647E+05  2.50003E+05
 -1.90619E+05  8.29560E+04 -1.11865E+05 -3.22560E+04 -4.15141E+02 -5.13464E+04  5.41794E+04 -9.59840E+02
  3.52960E+04  5.31050E+04 -1.60760E+04  7.49179E+04 -6.16159E+04  6.40211E+04 -8.38439E+04  3.24623E+04
 -7.99604E+04 -1.06544E+04 -5.78521E+04 -5.11105E+04 -1.51792E+04 -7.06033E+04  2.70390E+04 -4.63566E+04
  4.02084E+04  3.78437E+03  1.63926E+04  4.81167E+04 -3.25293E+04  4.71150E+04 -6.74578E+04 -1.41812E+02
 -5.35658E+04 -5.62293E+04 -6.08914E+03 -7.76412E+04  3.45544E+04 -5.52847E+04  4.83247E+04 -1.73443E+04
  4.39216E+04  1.08157E+04  3.24527E+04  2.54962E+04  1.69464E+04  2.89555E+04 -5.02517E+03  2.74810E+04
 -2.18637E+04  1.26896E+04 -1.85110E+04 -5.56651E+03  5.83282E+03 -7.92128E+03  2.19079E+04  1.36873E+04
  7.46746E+03  3.61366E+04 -3.15613E+04  3.54648E+04 -6.39485E+04  1.92151E+03 -5.59069E+04 -4.28708E+04
 -1.23290E+04 -6.37917E+04  3.97496E+04 -4.54810E+04  5.81237E+04 -1.97416E+03  3.42644E+04  3.16867E+04
 -5.44145E+03  3.61383E+04 -3.08192E+04  1.62142E+04 -3.00661E+04 -4.64215E+03 -1.64333E+04 -1.22030E+04
 -8.69935E+03 -1.30327E+04 -7.85826E+02 -1.93482E+04  7.43993E+03 -2.28331E+04  1.62238E+04 -1.29946E+04
  1.20346E+04  6.22112E+03 -7.48926E+03  1.36352E+04 -2.08868E+04 -4.66742E+03 -8.22958E+03 -3.25161E+04
  2.29861E+04 -4.35290E+04  4.80866E+04 -2.00494E+04  4.58693E+04  1.99973E+04  1.52216E+04  4.42315E+04
 -1.62757E+04  3.31403E+04 -2.59332E+04  1.38515E+03 -9.46793E+03 -2.74052E+04  2.09909E+04 -3.34759E+04
  4.06765E+04 -9.16583E+03  3.53892E+04  2.34568E+04  1.86536E+04  4.68739E+04 -8.65629E+03  5.11970E+04
 -3.08564E+04  3.48064E+04 -4.11457E+04  9.73247E+03 -4.31431E+04 -1.66807E+04 -2.27506E+04 -3.83127E+04
  6.80609E+03 -3.84803E+04  3.11918E+04 -1.45013E+04  2.92305E+04  1.09180E+04  3.44343E+03  2.01459E+04
 -1.32272E+04  9.55701E+03 -9.56214E+03 -7.01666E+03  5.94858E+03 -1.04694E+04  1.75230E+04  6.25898E+03
  1.21887E+04  2.13905E+04 -6.04188E+03  2.39699E+04 -2.21479E+04  1.05094E+04 -2.69879E+04 -4.42223E+03
 -2.05116E+04 -1.74465E+04 -8.40904E+03 -1.98805E+04  3.70020E+03 -1.89294E+04  1.56049E+04 -1.84578E+04
  2.51986E+04 -1.29933E+04  3.22337E+04  2.43002E+03  2.36679E+04  1.96795E+04  4.69677E+03  3.57635E+04
 -1.79683E+04  2.98865E+04 -2.82881E+04  1.08537E+04 -1.92798E+04 -1.01189E+04 -3.40971E+03 -1.36002E+04
  1.94041E+03 -1.93978E+03 -3.85344E+03  7.95544E+03 -1.52801E+04  4.85945E+03 -1.67540E+04 -6.85835E+03
 -9.82841E+03 -1.88672E+04  4.89547E+03 -2.39047E+04  1.46567E+04 -1.64938E+04  1.73664E+04 -1.50511E+03
  1.07652E+04  1.25660E+04 -1.25835E+03  1.85222E+04 -1.25650E+04  1.04258E+04 -1.85392E+04 -2.72572E+03
 -1.46363E+04 -1.56635E+04 -2.56437E+03 -2.27634E+04  9.90902E+03 -1.83335E+04  1.87060E+04 -7.05358E+03
  1.74187E+04  6.43521E+02  1.11754E+04  3.53203E+03  5.26920E+03  8.14905E+02  8.67523E+03 -1.80615E+03
  1.76501E+04  2.52127E+03  1.85136E+04  1.50727E+04  1.23205E+04  3.07651E+04 -3.76158E+03  3.21050E+04
 -1.86060E+04  2.67898E+04 -3.01311E+04  1.25800E+04 -3.17871E+04 -1.73905E+03 -2.74984E+04 -1.83383E+04
 -1.16796E+04 -2.54482E+04  9.56147E+03 -2.42529E+04  1.95868E+04 -1.29395E+04  1.97113E+04  5.07272E+03
  7.19116E+03  1.31427E+04 -9.23289E+03  1.28722E+04 -1.48794E+04  2.63363E+03 -1.17408E+04 -1.06870E+04
  2.36936E+02 -1.54078E+04  8.72663E+03 -1.09804E+04  1.02348E+04 -2.65321E+03  2.57476E+03  5.88204E+03
 -6.55369E+03  3.35139E+03 -5.30553E+03 -5.55549E+03 -1.08474E+03 -1.37022E+04  1.03315E+04 -1.21624E+04
  1.67779E+04 -5.90062E+03  1.72178E+04  3.31037E+03  1.40420E+04  1.35138E+04  7.02032E+03  1.92422E+04
 -3.15802E+03  2.11819E+04 -1.45707E+04  1.28057E+04 -1.55510E+04  3.21755E+03 -1.04607E+04 -3.76583E+03
 -5.90463E+03 -3.85047E+03 -1.96805E+03  2.25004E+03 -3.06702E+03  2.16920E+03 -4.39881E+03  4.26228E+03
 -1.04135E+04  7.36614E+02 -9.78819E+03 -8.42831E+03 -3.51345E+03 -1.41069E+04  4.63785E+03 -1.17423E+04
  1.03102E+04 -3.83906E+03  5.35503E+03  2.28831E+03 -6.37173E+01  4.48569E+03 -5.26655E+03 -1.10809E+03
 -5.97251E+03 -6.87328E+03 -7.61101E+02 -9.48625E+03  6.04026E+03 -1.06340E+04  1.24351E+04 -5.20378E+03
  1.52999E+04  9.19815E+02  1.09423E+04  8.26318E+03  4.89283E+02  1.18277E+04 -7.41697E+03  1.03729E+04
 -9.33023E+03  3.05471E+03 -4.32872E+03 -2.88882E+03  1.79450E+03 -2.10687E+03  5.39125E+03  4.43621E+02
  5.78272E+03  3.61948E+03 -4.72237E+02  8.71677E+03 -5.94164E+03  8.10689E+03 -9.20060E+03  1.15186E+03
 -6.65239E+03 -4.83733E+03  9.90219E+02 -8.56920E+03  5.23589E+03 -3.55919E+03  4.21483E+03  2.55938E+03
  1.06775E+03  4.80551E+03 -4.81655E+03  7.68962E+03 -7.17580E+03  2.99297E+03 -6.99755E+03 -2.08746E+03
 -4.71198E+03 -9.21846E+03  1.08875E+03 -9.02380E+03  9.41092E+03 -6.13733E+03  8.66005E+03  1.41114E+03
  5.26638E+03  8.10661E+03 -1.86551E+03  9.61544E+03 -8.11864E+03  5.95942E+03 -7.43283E+03 -1.07495E+03
 -6.36012E+03 -6.82875E+03 -2.00046E+03 -5.90220E+03  3.24126E+03 -6.13264E+03  4.07756E+03 -3.33579E+03
  2.27288E+03  3.94867E+02 -3.51244E+02  1.42859E+03  1.62005E+02 -1.87686E+03  1.05103E+03 -3.24254E+03
  5.13717E+03 -2.30412E+03  7.79406E+03  3.53499E+02  7.41061E+03  4.91627E+03  6.73155E+03  1.04593E+04
 -1.18394E+03  1.20882E+04 -1.09277E+04  9.38417E+03 -1.36921E+04  8.89874E+02 -1.19061E+04 -4.20850E+03
 -4.66642E+03 -9.11829E+03 -2.71217E+03 -8.03371E+03  2.24838E+03 -3.03104E+03  3.29844E+03 -3.63159E+03
  2.66841E+03 -2.42247E+03  1.29654E+03 -3.29454E+03  3.56722E+03 -1.00777E+03  3.65094E+03 -2.02241E+01
  5.28092E+03  1.64520E+03  2.21869E+03  4.37575E+03 -1.80291E+03  5.58398E+03 -5.34128E+03  4.67794E+03
 -7.62850E+03 -2.55929E+03 -4.42534E+03 -5.06499E+03  7.92145E+02 -7.54986E+03  4.29429E+03 -7.73922E+03
  7.69312E+03 -3.76173E+03  9.43378E+03  1.10297E+03  6.88863E+03  5.82844E+03  5.57117E+02  9.44642E+03
 -3.54009E+03  7.90400E+03 -4.60310E+03  2.10484E+03 -2.16124E+03 -2.03321E+03 -1.89913E+03 -6.95400E+02
 -3.15082E+02  5.70824E+02 -1.15039E+03  2.48728E+03 -4.77955E+03  1.09591E+03 -5.72625E+03  5.11979E+02
 -3.70210E+03 -4.84315E+03 -1.73259E+02 -5.91169E+03  4.31757E+03 -5.74405E+03  7.04282E+03 -1.78441E+03
  4.77208E+03  2.80723E+03  4.18682E+03  4.76475E+03 -3.72321E+02  7.43189E+03 -4.48827E+03  4.34157E+03
 -5.70963E+03  7.27507E+02 -5.04856E+03 -4.69477E+03  5.23393E+02 -5.15445E+03  3.39969E+03 -3.92180E+03
  3.59782E+03 -2.49463E+03  3.15923E+03  6.84529E+02 -7.63354E+01  1.37743E+03  5.01013E+02  1.82575E+02
  1.34659E+03  5.91671E+02  1.50022E+03  6.13290E+02  1.70382E+03  2.98721E+03  2.03889E+03  1.90646E+03
 -1.03371E+03  5.05824E+03 -3.86638E+03  5.90282E+03 -5.85531E+03  7.72895E+02 -8.19369E+03 -2.07996E+03
 -3.28476E+03 -5.67255E+03  2.03780E+03 -6.88153E+03  4.01454E+03 -4.32853E+03  4.40192E+03 -1.13115E+03
  3.50719E+03  3.05888E+03  1.05838E+02  4.46923E+03 -2.57893E+03  1.74314E+03 -2.62763E+03 -3.76822E+02
 -1.47014E+03 -9.48943E+02  1.11428E+03 -1.75667E+03  2.50055E+03 -1.82968E+03  1.91730E+03  6.57250E+02
  2.53295E+03  1.42464E+03  7.62740E+02  8.88862E+02 -1.46598E+03  1.32160E+03  2.37547E+03 -1.08142E+03
  2.83014E+02 -5.05887E+02  1.17330E+03  2.34039E+03 -1.90202E+02  3.93406E+03 -1.12089E+03  4.11576E+03
 -2.07747E+03  2.23925E+03 -2.54854E+03  1.44167E+02 -3.67828E+03 -8.30972E+02 -6.41481E+02 -7.41820E+02
  1.84230E+02 -1.42964E+03  1.51993E+03 -1.67029E+03  3.37241E+02  2.18066E+03 -1.69124E+03  2.11340E+03
 -1.87160E+03  1.21818E+01 -2.38439E+03 -2.10921E+03 -2.19066E+03 -3.31504E+03  8.11950E+02 -2.29831E+03
  1.53403E+03 -9.10532E+02  1.19339E+03 -1.16961E+03  1.95184E+03  8.21294E+02  1.09327E+02  1.05349E+03
 -7.03435E+02 -7.88971E+02 -7.37132E+02 -9.19947E+02  1.06720E+03 -5.61188E+02  7.31491E+02 -5.48035E+02
  2.56836E+03  7.44122E+01  3.86904E+03  1.45099E+03  1.21974E+03  3.03436E+03 -6.07095E+02  3.32219E+03
 -2.56638E+03  1.28736E+03 -2.54682E+03 -7.18032E+02 -1.57671E+02 -1.78486E+03  7.19527E+02 -2.04156E+03
  2.29248E+03 -5.36299E+02  8.26754E+02  1.29242E+02 -6.06404E+02  3.88444E+03 -4.61325E+02  8.94727E+02
 -4.59001E+02  9.24358E+02 -5.01227E+02 -4.75751E+01 -8.50275E+02 -6.56191E+02 -1.01717E+03  8.03561E+02
 -1.21971E+03  1.42256E+03 -3.41178E+03  6.00182E+02 -1.55028E+03  9.57641E+01 -3.01428E+03 -8.55480E+02
 -1.82883E+03 -2.37358E+03 -4.71768E+02 -5.06711E+03  1.06773E+03 -3.77818E+03  4.04935E+03 -1.60114E+03
  3.01285E+03 -1.23497E+03  2.01169E+03  3.23791E+03 -1.33559E+03  2.09526E+03 -7.57691E+02  1.99246E+03
 -2.38072E+03 -2.33793E+02 -7.53262E+02  1.01963E+02 -6.84604E+02  1.70668E+03 -1.06871E+03  2.17957E+02
 -1.51757E+03  8.62108E+02 -1.68995E+03  5.46261E+02 -7.94995E+01 -4.47760E+02  1.57089E+02 -1.30567E+03
  1.29142E+03 -9.66934E+02  1.10471E+03 -3.65115E+02  2.26178E+03  1.46522E+03  1.12280E+02  2.21323E+03
 -4.45525E+02  3.10078E+03 -3.31674E+03  2.50521E+03 -4.40385E+03 -6.17194E+01 -1.64525E+03 -1.80290E+03
 -3.66757E+02 -2.40400E+03  1.53446E+03 -1.90649E+03  1.73624E+03 -5.23059E+02  1.37045E+03 -1.40008E+03
  8.21128E+02  1.07922E+02  7.06107E+02  1.58740E+03 -9.30925E+02  1.10252E+03 -4.42172E+02 -5.71008E+02
  1.87263E+03  1.27588E+03  8.72800E+02  1.16228E+03  9.62630E+02  1.32033E+03  8.24248E+02  2.11772E+03
 -9.22057E+02  2.41875E+03 -1.33084E+03  2.28503E+02 -1.60955E+03 -1.32055E+03  7.80229E+02 -1.72522E+03
  8.22421E+02  4.62929E+01  1.69981E+03 -6.80517E+02  2.65346E+03 -7.21420E+00  1.88048E+03  6.28850E+02
  1.54392E+03  1.66005E+03 -5.04192E+02  1.79937E+03 -1.49492E+03  8.17716E+01 -4.67461E+02 -4.36691E+01
  1.38637E+01  6.60554E+01 -8.41265E+02  5.41318E+02 -1.63359E+03  1.48334E+02 -1.30299E+03 -4.94734E+02
 -1.87888E+03 -1.02927E+02 -6.08341E+01 -5.59299E+02 -6.94302E+02 -1.72920E+03  1.12322E+03 -3.51654E+02
  1.64806E+03  5.99442E+02 -8.77691E+01  1.84462E+02 -1.78424E+02  1.32474E+03 -1.63745E+03  2.16146E+03
