 $NMID ID='MM_0lb_SNR200_20hz_g45_1.RAW', FMTDAT='(8E13.5)'
 TRAMP=1., VOLUME=1. $END
  3.09091E+05  8.66086E+02  3.37443E+05  2.51132E+05  8.40441E+04  3.36565E+05 -1.32514E+05  2.50157E+05
 -1.88799E+05  8.21280E+04 -1.10366E+05 -3.23289E+04  1.66986E+03 -5.07856E+04  5.33489E+04  3.19695E+02
  3.53846E+04  5.34511E+04 -1.72347E+04  7.46649E+04 -6.05079E+04  6.21479E+04 -8.22349E+04  3.17210E+04
 -7.94580E+04 -1.15573E+04 -5.52761E+04 -4.93441E+04 -1.48828E+04 -6.78753E+04  2.65893E+04 -4.34316E+04
  3.94306E+04  3.42684E+03  1.57751E+04  4.62032E+04 -3.47502E+04  4.49574E+04 -6.47758E+04 -1.85345E+03
 -5.24023E+04 -5.49997E+04 -5.92928E+03 -7.50313E+04  3.37069E+04 -5.37814E+04  4.57971E+04 -1.72041E+04
  4.07242E+04  1.10699E+04  3.07051E+04  2.41361E+04  1.59858E+04  2.69519E+04 -5.18780E+03  2.74372E+04
 -2.20765E+04  1.31760E+04 -1.93686E+04 -3.83092E+03  3.65771E+03 -7.14813E+03  1.94946E+04  9.03398E+03
  6.97383E+03  3.34305E+04 -2.94106E+04  3.33086E+04 -5.90685E+04  1.30033E+03 -5.42106E+04 -4.03819E+04
 -1.27530E+04 -6.02373E+04  3.80925E+04 -4.39259E+04  5.51610E+04 -1.92387E+03  3.20742E+04  2.94536E+04
 -7.41847E+03  3.23300E+04 -2.84308E+04  1.26908E+04 -2.62019E+04 -4.98471E+03 -1.36387E+04 -9.72400E+03
 -6.64509E+03 -9.79159E+03 -1.65786E+03 -1.54427E+04  6.03886E+03 -2.30963E+04  1.43194E+04 -1.43707E+04
  1.21896E+04  4.29207E+03 -6.05757E+03  1.37193E+04 -1.91963E+04 -1.89106E+03 -7.64067E+03 -2.96850E+04
  1.97786E+04 -3.87315E+04  4.25409E+04 -1.87676E+04  4.04410E+04  1.87906E+04  1.46983E+04  4.05024E+04
 -1.49483E+04  3.07922E+04 -2.21257E+04  2.54608E+02 -7.13895E+03 -2.49264E+04  2.13873E+04 -3.06083E+04
  3.76186E+04 -7.13962E+03  3.06496E+04  2.26085E+04  1.43961E+04  4.08459E+04 -8.24118E+03  4.36367E+04
 -2.69863E+04  2.91618E+04 -3.52974E+04  7.24319E+03 -3.63187E+04 -1.39894E+04 -2.06174E+04 -3.32900E+04
  7.80316E+03 -3.27208E+04  2.82479E+04 -1.18331E+04  2.65401E+04  1.09903E+04  2.27160E+03  1.88977E+04
 -1.34935E+04  6.84236E+03 -8.71568E+03 -7.19320E+03  6.32296E+03 -9.09190E+03  1.69274E+04  6.84254E+03
  1.26457E+04  2.09936E+04 -7.33426E+03  2.31538E+04 -2.18488E+04  7.95033E+03 -2.35380E+04 -6.81039E+03
 -1.53755E+04 -1.56668E+04 -5.46781E+03 -1.45257E+04  4.94864E+03 -1.19986E+04  1.11324E+04 -1.38201E+04
  1.93370E+04 -1.04306E+04  2.71596E+04  1.14022E+03  2.08675E+04  1.50425E+04  4.17641E+03  3.07070E+04
 -1.58062E+04  2.69804E+04 -2.49649E+04  9.18132E+03 -1.88362E+04 -1.03231E+04 -4.27804E+03 -1.34020E+04
  2.42197E+03 -4.45276E+03 -1.51584E+03  4.72236E+03 -1.20149E+04  4.47792E+03 -1.27320E+04 -4.39721E+03
 -8.60125E+03 -1.51725E+04  3.98323E+03 -1.75692E+04  1.18151E+04 -1.23095E+04  1.30735E+04 -2.21426E+03
  8.02129E+03  1.00461E+04 -1.39452E+03  1.48484E+04 -9.06481E+03  8.33801E+03 -1.48673E+04 -2.48848E+03
 -1.05618E+04 -1.23173E+04 -1.57598E+03 -1.78217E+04  8.48721E+03 -1.40724E+04  1.54966E+04 -7.00861E+03
  1.38784E+04  1.32103E+03  9.18191E+03  2.47433E+03  4.10457E+03  5.98404E+02  7.14762E+03 -1.74178E+03
  1.22031E+04  3.07742E+03  1.25421E+04  1.25461E+04  8.21528E+03  2.29932E+04 -3.47588E+03  2.49225E+04
 -1.44989E+04  1.86437E+04 -2.23829E+04  8.21987E+03 -2.26676E+04 -1.98880E+03 -1.98926E+04 -1.37557E+04
 -9.77573E+03 -1.75787E+04  5.97627E+03 -1.78769E+04  1.47403E+04 -9.83092E+03  1.39731E+04  2.34100E+03
  6.82084E+03  1.06284E+04 -7.17415E+03  9.65345E+03 -1.22387E+04  3.17987E+03 -1.01616E+04 -7.85206E+03
  2.41843E+02 -1.14291E+04  5.98130E+03 -1.00889E+04  6.94444E+03 -1.09439E+03  1.39978E+03  4.71372E+03
 -4.92481E+03  4.35436E+01 -4.37159E+03 -4.38062E+03  7.55503E+02 -8.37120E+03  6.76511E+03 -9.00951E+03
  1.03184E+04 -3.69795E+03  1.07133E+04  2.92832E+03  8.96725E+03  9.45902E+03  4.36199E+03  1.19347E+04
 -1.49400E+03  1.35763E+04 -8.03516E+03  8.59571E+03 -9.89951E+03  3.18760E+03 -7.66303E+03 -5.77824E+02
 -5.86791E+03 -3.05621E+03 -1.04026E+03  2.02432E+03 -2.54588E+03  1.92469E+03 -2.79087E+03  4.07237E+03
 -7.73374E+03  2.19185E+02 -7.90881E+03 -5.81632E+03 -3.27046E+03 -1.08313E+04  2.63585E+03 -8.15725E+03
  6.29632E+03 -3.25946E+03  4.88915E+03  1.64411E+03  1.40900E+03  2.45497E+03 -2.91581E+03 -9.21362E+02
 -3.61786E+03 -3.99652E+03 -1.62686E+03 -7.26554E+03  2.19604E+03 -6.73646E+03  9.15338E+03 -2.79131E+03
  9.07704E+03  1.29965E+03  8.65464E+03  4.78834E+03  1.34127E+03  7.33568E+03 -4.75912E+03  7.95238E+03
 -5.30079E+03  2.86930E+03 -2.45593E+03 -8.68597E+02  4.81669E+02 -1.68886E+03  3.81320E+03 -1.92632E+03
  2.46888E+03  2.43659E+03  1.08368E+03  6.30757E+03 -4.68883E+03  6.02347E+03 -7.34853E+03  1.34223E+03
 -3.80560E+03 -3.55433E+03  6.19332E+02 -6.57281E+03  2.55600E+03 -2.12937E+03  3.15631E+03  1.31860E+03
  7.29012E+02  2.42499E+03 -3.31828E+03  4.11765E+03 -3.75530E+03  1.76686E+03 -3.60333E+03 -1.15986E+03
 -2.35697E+03 -5.06334E+03  1.10150E+03 -5.79161E+03  5.28268E+03 -4.73884E+03  5.44645E+03  1.01758E+03
  4.29504E+03  3.27908E+03  6.25666E+02  5.89484E+03 -5.01545E+03  3.84833E+03 -4.60066E+03  7.33803E+01
 -5.33439E+03 -4.86552E+03 -9.82687E+02 -3.69270E+03  1.62719E+03 -4.17031E+03  1.97545E+03 -3.83212E+03
  3.27893E+03  5.16799E+02 -1.18785E+03  9.46571E+02  9.24744E+02 -1.79240E+01  3.48942E+02 -1.52655E+03
  2.88729E+03 -8.88132E+02  4.20564E+03 -2.10488E+02  4.19967E+03  2.22193E+03  5.41799E+03  5.54894E+03
 -3.75815E+02  6.12894E+03 -6.37291E+03  5.13285E+03 -8.50111E+03  3.23877E+02 -6.63661E+03 -1.64774E+03
 -4.46059E+03 -5.66244E+03 -1.31752E+03 -4.91524E+03  1.90199E+03 -1.61829E+03  5.69964E+02 -1.88188E+03
  3.61933E+02 -1.59931E+03  2.37402E+03 -2.28390E+03  3.20515E+03 -1.08470E+03  4.01237E+03  1.42819E+03
  3.47348E+03  1.64981E+03  4.46178E+02  3.44129E+03 -1.69055E+03  7.21270E+02 -4.13212E+03  1.24723E+03
 -3.85153E+03 -1.66124E+03 -3.76166E+01 -2.67816E+03  1.41947E+03 -4.18944E+03  3.49229E+03 -3.99045E+03
  4.79441E+03 -2.31824E+03  5.80836E+03 -6.11119E+01  4.36698E+03  3.40860E+03  9.17576E+02  4.68676E+03
 -2.21903E+03  5.78168E+03 -2.26490E+03  1.58103E+03 -1.65656E+03 -8.54092E+02 -3.74042E+01  1.30714E+02
  9.78864E+02  1.58767E+03 -8.99678E+02  1.01111E+02 -2.28100E+03  1.95514E+03 -2.82425E+03  3.02172E+02
 -6.04067E+02 -3.62541E+03  1.80447E+03 -3.50389E+03  2.40832E+03 -3.31111E+03  3.06645E+03  1.26567E+02
  2.93018E+03  2.60973E+03  1.17078E+03  2.99951E+03 -4.01997E+02  3.55170E+03 -1.65169E+03  1.86565E+03
 -2.75916E+03  1.94714E+03 -3.23860E+03 -1.99369E+03 -2.80115E+02 -3.03509E+03  1.97060E+03 -2.30582E+03
  2.79913E+03 -1.14952E+03  2.11228E+03  2.91701E+02  6.20218E+02  1.79100E+03  6.29509E+02  1.83103E+02
  1.64480E+03  3.42448E+02  4.77922E+02  8.00820E+02  6.56750E+02  1.85419E+03  1.54558E+03  1.12557E+03
 -1.05934E+03  2.35339E+03 -2.21900E+03  3.41762E+03 -3.02163E+03  1.10704E+03 -3.87067E+03 -1.20444E+03
 -1.18942E+03 -2.18377E+03  1.80764E+02 -3.79666E+03  1.65690E+03 -2.52677E+03  2.01895E+03 -6.26207E+02
  2.77256E+03  2.55711E+03  1.68226E+02  1.45100E+03 -4.04453E+02 -1.94547E+02 -1.39621E+03 -1.96505E+02
 -1.02071E+03 -1.96635E+03  1.85210E+03 -1.01239E+03  1.70198E+03 -4.44779E+02  1.12141E+02 -1.86960E+02
  8.00789E+02  6.68594E+01  9.20586E+02  3.48057E+02  1.50140E+01  7.99464E+01  6.98266E+02 -2.74674E+01
 -5.13057E+02 -7.49726E+01  1.88285E+03  1.78160E+03 -3.40011E+02  2.34287E+03 -4.11496E+02  3.19743E+03
 -1.69314E+03  4.72848E+02 -1.56768E+03  1.83467E+02 -2.08650E+03 -3.78403E+02 -9.05960E+02 -1.19692E+03
  1.40072E+03 -6.24130E+02  8.31758E+02 -7.66380E+02 -5.18365E+02 -2.26274E+02 -1.01878E+03  1.66235E+03
 -1.42269E+03  1.25012E+03 -3.59111E+02 -1.40178E+03 -4.18642E+02 -2.60288E+03  4.75994E+01 -8.58418E+02
  1.14555E+03 -8.44193E+02  8.37609E+02  1.15799E+03  2.00254E+03 -4.84562E+02  7.87531E+02  2.98615E+00
  1.25031E+03  6.37142E+02 -1.62272E+03 -5.34728E+02  1.68121E+02 -1.57692E+03  1.42538E+03 -8.39297E+02
  6.56285E+02  9.85952E+02  1.85072E+03  4.64629E+02  1.58276E+03  5.14298E+02 -3.59349E+02  2.42679E+03
 -9.63775E+02 -1.51384E+02 -8.88703E+01 -4.21968E+02 -1.53356E+03 -2.70308E+02  3.29308E+02  2.07353E+02
  1.68827E+03 -8.47874E+02 -4.30096E+02  5.67984E+02 -2.27956E+02  9.63854E+02 -9.35320E+01  5.29890E+02
  5.21765E+02  9.45684E+02  7.39217E+02 -9.72975E+02  1.09281E+02 -4.63627E+02 -4.41029E+02 -3.35054E+02
 -5.77900E+02  1.40803E+03 -1.04478E+03  7.29533E+02 -1.50437E+03  3.79930E+02 -1.14676E+03  4.27371E+01
 -8.21653E+02 -9.33339E+02 -4.75733E+02 -2.25750E+03  1.10654E+03 -1.51674E+03  2.46107E+03 -9.47569E+02
  1.39845E+03 -7.11893E+02  3.53314E+02  3.66754E+02 -1.40170E+03  5.00874E+02 -1.25690E+03  6.94365E+02
 -4.04158E+02  1.32099E+02 -9.65830E+02  4.52808E+02 -2.06575E+01 -9.45716E+01 -1.58063E+03 -2.75754E+02
 -1.04709E+03 -4.31278E+02 -2.57297E+02 -1.85150E+02 -2.73391E+02 -3.80817E+02  1.51018E+02 -7.63224E+02
  2.03533E+03 -1.33549E+03  4.39241E+02  5.99310E+02  2.51918E+02  7.48118E+02 -7.72728E+02  1.31804E+03
 -4.30271E+02  1.30777E+03 -1.57565E+03  1.41181E+03 -9.66767E+02 -4.20604E+02 -9.91136E+02 -9.22985E+02
 -7.32423E+02 -2.89257E+02 -7.06212E+00 -1.52597E+03  5.79830E+02 -6.72786E+02  2.99137E+02  1.43981E+02
  5.21224E+02  6.84570E+02  2.78512E+02 -4.71433E+01 -3.20227E+02 -6.95961E+02  7.59526E+01  4.25716E+02
 -6.67184E+02 -5.53709E+02  2.02865E+02  3.62579E+02 -2.80348E+02  1.53651E+02  3.15249E+02  3.64484E+02
 -1.83478E+03  1.14281E+02 -5.54912E+02  7.64539E+02 -9.88404E+02  3.49133E+02  7.84123E+02  2.19577E+02
  1.39636E+03  1.74601E+01 -6.85330E+02  1.48257E+01  6.23581E+02 -2.38843E+02  6.08853E+02  2.78986E+02
  5.20875E+02  6.17329E+02  8.86144E+01 -5.44177E+02 -6.41192E+02  1.68490E+02  1.39385E+02 -8.11208E+01
  5.09759E+01  1.02949E+01  1.40526E+02 -3.34948E+02 -1.54523E+02 -8.13362E+01 -1.06175E+03 -3.93900E+02
 -1.05650E+03  5.19320E+02 -3.20880E+02 -1.50120E+02 -1.14698E+02 -7.60859E+02  1.54409E+03 -5.15134E+02
  2.87597E+02  9.35531E+02  4.02335E+02 -2.48433E+02 -3.64314E+01  5.89522E+02  7.90263E+02  5.77945E+02
