 $NMID ID='MM_0lb_SNR200_8hz_g55_25.RAW', FMTDAT='(8E13.5)'
 TRAMP=1., VOLUME=1. $END
  3.09932E+05  2.26799E+03  3.36986E+05  2.50313E+05  8.50606E+04  3.39743E+05 -1.30195E+05  2.52597E+05
 -1.91544E+05  8.47437E+04 -1.11905E+05 -3.17051E+04  1.39615E+03 -5.18064E+04  5.30234E+04  4.52435E+01
  3.53605E+04  5.40134E+04 -1.78201E+04  7.51944E+04 -6.02795E+04  6.51483E+04 -8.70009E+04  3.17551E+04
 -8.38634E+04 -1.29497E+04 -5.87601E+04 -5.35178E+04 -1.53728E+04 -7.10542E+04  2.95768E+04 -4.73799E+04
  4.17551E+04  3.12376E+03  1.59821E+04  4.77958E+04 -3.49808E+04  4.76904E+04 -6.82689E+04  7.59475E+01
 -5.66688E+04 -5.69661E+04 -6.38704E+03 -7.89513E+04  3.49068E+04 -5.89254E+04  5.11512E+04 -1.81968E+04
  4.51527E+04  1.06238E+04  3.50303E+04  2.77063E+04  1.74208E+04  3.00375E+04 -5.87497E+03  2.75846E+04
 -2.29990E+04  1.20451E+04 -1.62611E+04 -5.27378E+03  7.38155E+03 -9.02783E+03  2.32964E+04  1.38059E+04
  6.29705E+03  3.74287E+04 -3.41888E+04  3.65926E+04 -6.76216E+04  3.21783E+03 -5.88570E+04 -4.44054E+04
 -1.22989E+04 -6.50683E+04  4.39577E+04 -4.88639E+04  6.23900E+04 -3.05388E+03  3.74034E+04  3.40480E+04
 -5.20431E+03  4.00707E+04 -3.22277E+04  1.95192E+04 -3.39434E+04 -4.24511E+03 -1.94537E+04 -1.36437E+04
 -1.01032E+04 -1.53852E+04  1.14653E+03 -2.00620E+04  8.25690E+03 -2.35622E+04  1.56033E+04 -1.33263E+04
  1.04483E+04  7.48979E+03 -1.10503E+04  1.35764E+04 -2.26529E+04 -6.97964E+03 -1.02625E+04 -3.92788E+04
  2.64426E+04 -4.86696E+04  5.30987E+04 -2.24258E+04  5.00508E+04  2.13800E+04  1.68878E+04  4.75795E+04
 -1.73219E+04  3.89940E+04 -2.82241E+04  1.74748E+03 -1.22379E+04 -2.79001E+04  2.28730E+04 -3.77563E+04
  4.73710E+04 -1.27961E+04  4.14488E+04  2.43022E+04  2.14963E+04  5.20742E+04 -1.02027E+04  5.82361E+04
 -3.71516E+04  3.82968E+04 -4.89646E+04  1.24089E+04 -4.84050E+04 -1.95641E+04 -2.81474E+04 -4.39784E+04
  9.24466E+03 -4.45909E+04  3.41532E+04 -1.70014E+04  3.41933E+04  1.16985E+04  5.16298E+03  2.04034E+04
 -1.46647E+04  1.13411E+04 -1.05934E+04 -6.98676E+03  6.95369E+03 -1.12367E+04  1.83443E+04  6.36841E+03
  1.50646E+04  2.16228E+04 -5.35293E+03  2.77400E+04 -2.34046E+04  1.54160E+04 -3.38711E+04 -2.36570E+03
 -2.76225E+04 -1.78768E+04 -1.29358E+04 -2.68529E+04  5.85408E+03 -2.75966E+04  2.03780E+04 -2.37362E+04
  3.35619E+04 -1.48992E+04  3.92209E+04  5.14305E+03  2.66536E+04  2.60564E+04  3.33564E+03  4.17695E+04
 -1.91009E+04  3.44304E+04 -3.32643E+04  1.25128E+04 -2.25338E+04 -8.66712E+03 -5.18869E+03 -1.23856E+04
  6.95146E+02  4.63293E+02 -7.33743E+03  7.86158E+03 -2.19009E+04  4.57034E+03 -2.02607E+04 -8.43988E+03
 -1.52206E+04 -2.67061E+04  7.63438E+03 -2.75659E+04  1.91608E+04 -2.12053E+04  2.24193E+04 -1.42243E+03
  1.36362E+04  1.73976E+04 -1.51107E+03  2.55161E+04 -1.73221E+04  1.43552E+04 -2.56917E+04 -5.70145E+03
 -1.91170E+04 -2.18322E+04 -2.42957E+03 -2.90989E+04  1.27794E+04 -2.39130E+04  2.34999E+04 -1.33541E+04
  2.44697E+04 -1.41357E+03  1.89841E+04  6.64329E+03  8.53437E+03  1.20506E+03  1.34521E+04 -2.22371E+03
  2.27992E+04  3.23496E+03  2.66589E+04  1.90376E+04  1.88182E+04  3.89612E+04 -1.84659E+03  4.75201E+04
 -2.68272E+04  4.02783E+04 -4.54543E+04  2.03136E+04 -4.85219E+04 -3.37092E+03 -3.89210E+04 -2.93879E+04
 -1.51948E+04 -4.03864E+04  1.32008E+04 -3.54459E+04  2.89637E+04 -1.75183E+04  2.54708E+04  7.74879E+03
  7.68703E+03  2.08587E+04 -1.38741E+04  1.42911E+04 -2.16589E+04  1.52629E+03 -1.62283E+04 -1.45674E+04
  1.75176E+03 -1.96978E+04  1.22612E+04 -1.54818E+04  1.35923E+04 -4.76093E+02  1.38101E+03  8.04351E+03
 -8.93780E+03  5.06580E+03 -1.08508E+04 -6.09581E+03 -3.36599E+03 -2.07437E+04  1.20371E+04 -2.26106E+04
  2.66417E+04 -1.30448E+04  2.91351E+04  2.56372E+03  2.56670E+04  2.12073E+04  1.18272E+04  3.27629E+04
 -6.79500E+03  3.26616E+04 -2.36700E+04  2.01420E+04 -2.45254E+04  3.02250E+03 -1.72450E+04 -6.12406E+03
 -7.15552E+03 -5.42835E+03 -1.26952E+03 -7.12592E+02 -1.93369E+03  2.93440E+03 -7.61845E+03  5.16017E+03
 -1.64547E+04 -7.57506E+02 -1.67790E+04 -1.33444E+04 -7.28232E+03 -1.98810E+04  5.35215E+03 -1.71742E+04
  1.42615E+04 -7.58968E+03  1.05916E+04  5.98404E+03  2.11473E+02  4.99081E+03 -9.52247E+03  1.68420E+02
 -7.88844E+03 -9.26729E+03 -8.44206E+02 -1.66509E+04  9.91835E+03 -1.72936E+04  2.09741E+04 -9.84649E+03
  2.57879E+04  2.50531E+03  1.73760E+04  1.67333E+04  4.03720E+03  2.03678E+04 -1.03777E+04  1.79344E+04
 -1.35956E+04  4.83856E+03 -6.29222E+03 -3.64344E+03  2.36414E+03 -5.07750E+03  9.42236E+03 -1.10070E+03
  9.78199E+03  8.39303E+03  7.97124E+02  1.54671E+04 -9.19491E+03  1.25971E+04 -1.76796E+04  3.47532E+03
 -1.23830E+04 -1.10211E+04 -1.46661E+03 -1.68093E+04  1.10855E+04 -7.38113E+03  9.88939E+03  3.72925E+03
  2.91784E+03  1.10072E+04 -7.92374E+03  1.36513E+04 -1.60010E+04  5.81745E+03 -1.63251E+04 -6.78489E+03
 -8.74219E+03 -1.81763E+04  3.80714E+03 -2.07700E+04  1.65650E+04 -1.31295E+04  1.88294E+04  4.22871E+03
  1.16944E+04  1.53437E+04 -2.80268E+03  1.66841E+04 -1.42083E+04  1.08767E+04 -1.46008E+04 -1.50983E+03
 -1.21699E+04 -1.27571E+04 -9.86319E+02 -1.30423E+04  8.51037E+03 -1.07353E+04  8.03862E+03 -5.87517E+03
  5.78972E+03  2.08111E+03  7.64539E+02  2.46994E+03 -1.00018E+03 -4.23800E+03  2.91521E+03 -9.22795E+03
  1.31473E+04 -5.19570E+03  2.01673E+04  1.48292E+03  1.70082E+04  1.23123E+04  1.19531E+04  2.51862E+04
 -5.84954E+03  2.89565E+04 -2.11242E+04  1.97534E+04 -3.01363E+04  2.28073E+03 -2.32051E+04 -1.05438E+04
 -1.13334E+04 -1.98153E+04  5.43202E+01 -1.91000E+04  8.01554E+03 -9.74116E+03  7.08239E+03 -7.40686E+03
  4.94768E+03 -3.18065E+03  3.48383E+03 -3.14820E+03  5.39676E+03 -4.38067E+03  8.20233E+03 -3.12941E+03
  1.13659E+04  1.55309E+03  7.01070E+03  9.32686E+03 -2.18215E+03  1.14884E+04 -1.44373E+04  1.03070E+04
 -1.79563E+04 -1.00840E+03 -9.55924E+03 -1.19580E+04 -1.47851E+03 -2.04097E+04  9.64007E+03 -1.74691E+04
  1.97369E+04 -9.07483E+03  2.26480E+04  2.47868E+03  1.43262E+04  1.68287E+04  3.13930E+03  1.98853E+04
 -8.10207E+03  1.83314E+04 -1.18375E+04  6.59018E+03 -7.09238E+03 -2.27561E+03 -4.62512E+03 -3.12668E+03
 -2.43641E+03 -1.78858E+02 -1.42793E+03  2.93973E+03 -6.19885E+03  2.53974E+03 -1.29321E+04 -8.80074E+02
 -7.08076E+03 -1.21308E+04 -1.02270E+03 -1.68902E+04  1.19486E+04 -1.67445E+04  1.81590E+04 -5.10469E+03
  1.72860E+04  8.18097E+03  7.95025E+03  1.53477E+04 -4.33193E+03  1.55852E+04 -1.27793E+04  1.34116E+04
 -1.54357E+04  1.45892E+03 -1.39388E+04 -9.23706E+03 -1.05889E+03 -1.37371E+04  7.82115E+03 -1.32402E+04
  1.01073E+04 -2.76483E+03  7.61579E+03  4.03666E+03  3.36700E+03  6.41728E+03  2.71568E+03  2.03177E+03
  3.68585E+03  1.81855E+03  5.62229E+03  1.91045E+03  5.01112E+03  6.41363E+03  4.43930E+03  8.68690E+03
 -3.80670E+03  1.47234E+04 -1.27629E+04  1.38747E+04 -1.95967E+04  3.49584E+03 -1.72677E+04 -7.63685E+03
 -8.83351E+03 -1.64644E+04 -1.83766E+02 -1.85158E+04  1.06294E+04 -1.21374E+04  1.36054E+04 -2.31695E+03
  1.26186E+04  7.52756E+03  1.26853E+03  1.01571E+04 -5.77388E+03  6.32634E+03 -7.14482E+03 -1.29395E+03
 -4.49110E+03 -7.48089E+03  4.54887E+03 -8.17100E+03  6.15398E+03 -2.82790E+03  6.49097E+03  3.95785E+02
  1.85931E+03  3.84757E+03  2.47921E+03  2.62680E+03 -1.34909E+03  2.66090E+03  1.94354E+03 -5.02390E+02
  1.88367E+03 -2.77152E+03  7.40128E+03  3.01881E+03  2.88642E+03  9.42410E+03 -3.37281E+03  1.26496E+04
 -8.30181E+03  8.50310E+03 -1.25830E+04  2.86471E+03 -1.12306E+04 -2.77095E+03 -6.02324E+03 -7.63048E+03
  1.62796E+03 -8.02191E+03  4.18313E+03 -3.49584E+03  2.98006E+03  4.67058E+03 -2.51011E+03  6.66201E+03
 -6.81561E+03  2.44173E+03 -7.46461E+03 -4.17616E+03 -5.57862E+03 -1.06316E+04  2.04793E+03 -8.76667E+03
  5.79840E+03 -6.24348E+03  7.74337E+03 -1.28184E+03  5.10939E+03  3.40236E+03  1.32933E+03  6.47583E+03
 -3.51009E+03  4.41305E+02 -3.48789E+03 -4.15757E+03  1.37603E+03 -7.78153E+03  8.20545E+03 -5.21126E+03
  1.36349E+04  9.17029E+02  1.06447E+04  9.36939E+03  3.21357E+03  1.09851E+04 -5.17461E+03  1.00008E+04
 -1.07586E+04  3.62753E+03 -1.03623E+04 -8.09400E+02 -6.04550E+03 -7.66059E+03  1.47440E+03 -8.04577E+03
  7.23081E+03 -2.70053E+03  6.75308E+03  4.65402E+03  3.81955E+03  6.61996E+03 -2.35583E+03  5.95219E+03
 -3.53307E+03  3.52479E+03 -4.65087E+03  1.17626E+03 -1.07968E+03  1.77667E+03 -2.10595E+03  4.05747E+03
 -3.71455E+03  5.33110E+03 -8.89452E+03  3.80592E+03 -1.22315E+04  6.53809E+02 -1.34222E+04 -6.97833E+03
 -7.26810E+03 -1.61958E+04  3.88829E+03 -1.73849E+04  1.31207E+04 -1.70841E+04  1.62357E+04 -5.31607E+03
  1.55684E+04  4.99169E+03  1.12809E+04  1.07957E+04  1.90234E+03  1.54025E+04 -5.83809E+03  1.03058E+04
 -7.44154E+03  2.73806E+03 -3.17965E+03 -9.47496E+02 -2.68709E+03 -7.47256E+02  1.38642E+03 -7.93287E+01
 -2.79623E+03  1.55608E+03 -3.31422E+03 -1.37326E+03  4.16832E+02 -1.51277E+03  1.05486E+03 -2.83284E+03
  5.99291E+03 -2.90004E+03  8.93584E+03 -1.62615E+02  8.38521E+03  6.04185E+03  2.44027E+03  1.42174E+04
 -6.16049E+03  1.38787E+04 -1.39094E+04  9.50221E+03 -1.41591E+04 -2.89260E+03 -1.11556E+04 -9.51810E+03
 -6.93111E+03 -1.29125E+04  4.26524E+03 -1.21223E+04  9.91330E+03 -7.96800E+03  1.00092E+04  6.90581E+02
  4.67197E+03  5.26834E+03 -2.36587E+03  4.41816E+03 -2.01625E+03 -3.99908E+02  4.64901E+01 -3.36590E+03
  3.51705E+03 -1.86994E+03  5.17387E+03  1.97215E+03  4.54486E+03  6.56569E+03  1.18476E+02  7.13679E+03
 -5.73583E+03  7.20694E+03 -1.01599E+04  4.73461E+02 -7.97907E+03 -5.82031E+03 -1.48445E+03 -1.10278E+04
  6.65352E+03 -1.03570E+04  1.17050E+04 -4.02703E+03  1.01083E+04  2.76104E+03  5.66347E+03  6.87285E+03
  6.89952E+02  1.02096E+04 -3.69309E+03  5.21177E+03 -6.90744E+03  4.56232E+03 -5.39782E+03  1.16369E+03
 -1.40027E+03 -1.75069E+03 -2.33687E+03  1.25796E+03 -4.70707E+03  2.84020E+03 -7.06788E+03 -1.18046E+03
 -7.18233E+03 -7.35684E+03 -3.15944E+03 -8.82321E+03  6.27769E+03 -7.93563E+03  6.70805E+03 -4.48922E+03
  8.95922E+03  3.84532E+03  6.00775E+03  6.49471E+03 -5.03782E+02  7.38182E+03 -8.21100E+03  4.97590E+03
