 $NMID ID='MM_0lb_SNR200_16hz_g60_81.RAW', FMTDAT='(8E13.5)'
 TRAMP=1., VOLUME=1. $END
  3.10651E+05  7.54082E+02  3.37842E+05  2.50780E+05  8.42430E+04  3.38455E+05 -1.33147E+05  2.50709E+05
 -1.90276E+05  8.24146E+04 -1.11815E+05 -3.34329E+04  1.02847E+03 -5.05469E+04  5.31755E+04 -6.93070E+02
  3.55866E+04  5.32332E+04 -1.67464E+04  7.59851E+04 -6.04137E+04  6.37571E+04 -8.47155E+04  3.30172E+04
 -8.04298E+04 -1.03783E+04 -5.64944E+04 -5.21818E+04 -1.53736E+04 -7.05445E+04  2.81044E+04 -4.58180E+04
  4.06332E+04  3.09289E+03  1.63745E+04  4.82966E+04 -3.36967E+04  4.73440E+04 -6.61384E+04  6.84570E+01
 -5.18418E+04 -5.72335E+04 -6.24208E+03 -7.71964E+04  3.41155E+04 -5.46343E+04  4.80946E+04 -1.71264E+04
  4.48555E+04  1.07071E+04  3.10655E+04  2.50692E+04  1.53050E+04  2.94962E+04 -4.31626E+03  2.74991E+04
 -2.33853E+04  1.29243E+04 -1.85072E+04 -5.16177E+03  5.80219E+03 -8.18287E+03  2.34829E+04  1.18654E+04
  7.40725E+03  3.51381E+04 -3.29470E+04  3.61056E+04 -6.30814E+04  2.97223E+03 -5.58961E+04 -4.27656E+04
 -1.13785E+04 -6.29744E+04  3.92740E+04 -4.49437E+04  5.79257E+04 -9.42743E+02  3.24155E+04  3.14854E+04
 -5.38936E+03  3.49642E+04 -2.95017E+04  1.66519E+04 -2.96158E+04 -3.03881E+03 -1.70224E+04 -1.04037E+04
 -7.92120E+03 -1.24129E+04 -9.31312E+02 -1.81208E+04  7.46982E+03 -2.29957E+04  1.57924E+04 -1.34922E+04
  1.06194E+04  5.00971E+03 -7.41985E+03  1.36332E+04 -2.04326E+04 -3.70176E+03 -7.75700E+03 -3.33781E+04
  2.21795E+04 -4.52194E+04  4.82570E+04 -1.93324E+04  4.45927E+04  1.94815E+04  1.51050E+04  4.39593E+04
 -1.62830E+04  3.26338E+04 -2.56011E+04  8.02199E+02 -9.71299E+03 -2.71848E+04  2.04809E+04 -3.39514E+04
  4.10722E+04 -9.48846E+03  3.46828E+04  2.37131E+04  1.81000E+04  4.69042E+04 -9.40455E+03  5.04733E+04
 -3.20049E+04  3.48245E+04 -4.24155E+04  9.98575E+03 -4.17553E+04 -1.58294E+04 -2.38410E+04 -3.83236E+04
  6.64615E+03 -3.83938E+04  3.08775E+04 -1.57466E+04  2.99530E+04  1.07484E+04  4.23176E+03  1.89503E+04
 -1.35123E+04  8.52015E+03 -9.63390E+03 -6.74615E+03  5.99156E+03 -1.09519E+04  1.84212E+04  6.83349E+03
  1.23287E+04  2.08040E+04 -5.83836E+03  2.44946E+04 -2.22911E+04  1.24953E+04 -2.84352E+04 -4.78846E+03
 -1.92219E+04 -1.64282E+04 -7.71782E+03 -1.92166E+04  3.29434E+03 -1.94804E+04  1.66295E+04 -1.76279E+04
  2.68706E+04 -1.14779E+04  3.18437E+04  3.44159E+03  2.49166E+04  1.93560E+04  4.12288E+03  3.67230E+04
 -1.57377E+04  3.07845E+04 -2.81991E+04  9.67955E+03 -2.06804E+04 -1.04862E+04 -4.48399E+03 -1.27040E+04
  2.20600E+03 -3.12226E+03 -4.63941E+03  6.90823E+03 -1.54500E+04  4.61193E+03 -1.51001E+04 -7.43900E+03
 -9.09255E+03 -1.77477E+04  4.10671E+03 -2.33262E+04  1.52562E+04 -1.57166E+04  1.83496E+04 -2.27563E+03
  1.10654E+04  1.33535E+04 -1.78932E+03  1.81469E+04 -1.20766E+04  1.14989E+04 -1.99161E+04 -3.78512E+03
 -1.35656E+04 -1.63304E+04 -2.00390E+03 -2.40314E+04  9.83017E+03 -1.81619E+04  1.91644E+04 -8.75666E+03
  1.67537E+04  1.15383E+03  1.34244E+04  5.01311E+03  7.77637E+03  7.48360E+02  1.02796E+04 -2.04568E+03
  1.77682E+04  1.80289E+03  1.87470E+04  1.62028E+04  1.30632E+04  2.95682E+04 -2.79209E+03  3.30670E+04
 -1.84828E+04  2.59326E+04 -3.09778E+04  1.25714E+04 -3.15923E+04 -2.47103E+03 -2.73380E+04 -1.68850E+04
 -1.10060E+04 -2.70473E+04  9.32033E+03 -2.32614E+04  2.09544E+04 -1.18493E+04  1.79351E+04  5.06803E+03
  6.92277E+03  1.42424E+04 -8.36378E+03  1.27430E+04 -1.62450E+04  1.75662E+03 -1.14536E+04 -1.00998E+04
  3.78938E+02 -1.48547E+04  7.65975E+03 -1.25541E+04  9.12795E+03 -4.55366E+02  1.64643E+03  6.52337E+03
 -7.22047E+03  2.19219E+03 -4.88401E+03 -4.91990E+03 -3.01862E+02 -1.33156E+04  8.99832E+03 -1.35095E+04
  1.52005E+04 -7.19248E+03  1.58779E+04  2.78394E+03  1.40133E+04  1.38192E+04  6.12722E+03  1.86465E+04
 -2.90488E+03  2.02775E+04 -1.36683E+04  1.21173E+04 -1.49468E+04  3.49088E+03 -9.81215E+03 -3.21491E+03
 -4.89921E+03 -4.15660E+03 -4.71575E+02  1.93851E+03 -1.92242E+03  3.19419E+03 -4.87576E+03  4.76322E+03
 -1.02732E+04 -6.69756E+02 -1.19586E+04 -8.77493E+03 -4.36570E+03 -1.31320E+04  4.49156E+03 -9.97025E+03
  9.55855E+03 -5.68577E+03  6.42411E+03  2.81689E+03 -6.00297E+02  5.63805E+03 -4.54462E+03  1.42362E+02
 -5.63477E+03 -6.41875E+03 -2.59625E+03 -1.00724E+04  5.51526E+03 -1.10705E+04  1.20112E+04 -6.02875E+03
  1.36247E+04  1.31893E+03  1.19036E+04  9.58820E+03  2.27168E+03  1.22956E+04 -5.61054E+03  1.01534E+04
 -8.31972E+03  3.45668E+03 -5.16456E+03 -2.96317E+03  2.25563E+03 -2.85968E+03  6.88414E+03 -2.50910E+02
  4.77614E+03  3.60269E+03  1.96182E+03  7.12122E+03 -6.29538E+03  8.42795E+03 -9.60502E+03  3.35886E+03
 -5.70140E+03 -5.20743E+03  6.64409E+02 -8.20831E+03  3.50208E+03 -3.94932E+03  4.27254E+03  1.56392E+03
  5.60407E+02  5.27731E+03 -5.54847E+03  7.25769E+03 -6.74814E+03  3.47316E+03 -5.93419E+03 -3.39272E+03
 -3.21845E+03 -9.70698E+03  1.79842E+03 -1.04155E+04  9.28898E+03 -6.47289E+03  1.06915E+04  2.75793E+03
  6.83763E+03  7.53051E+03  5.28612E+02  9.41219E+03 -7.51933E+03  5.15355E+03 -7.61685E+03 -6.76571E+02
 -6.94094E+03 -7.31073E+03 -2.51976E+03 -6.32404E+03  4.05186E+03 -5.59291E+03  3.92612E+03 -2.08763E+03
  2.54063E+03  9.99428E+02 -2.51997E+02  1.99016E+03  5.38038E+02 -1.34324E+03  1.61594E+03 -3.65641E+03
  4.74532E+03 -2.01806E+03  7.73150E+03  8.10580E+02  7.57040E+03  5.25715E+03  6.91686E+03  1.03222E+04
 -2.32933E+03  1.25309E+04 -1.11250E+04  9.16312E+03 -1.45032E+04  1.65957E+03 -1.16803E+04 -5.24163E+03
 -5.13955E+03 -9.28358E+03 -8.18096E+02 -7.45027E+03  3.78493E+03 -3.73847E+03  1.98478E+03 -2.36694E+03
  1.21582E+03 -1.80591E+03  3.80038E+03 -1.85104E+03  3.45641E+03 -8.47617E+02  4.89248E+03 -1.42607E+02
  5.66983E+03  1.46681E+03  2.57585E+03  5.19147E+03 -1.80604E+03  5.69725E+03 -5.20242E+03  3.52160E+03
 -6.25589E+03 -1.38218E+03 -3.48043E+03 -4.20081E+03  5.36495E+02 -7.45865E+03  3.88909E+03 -8.45890E+03
  7.23525E+03 -5.14305E+03  9.58262E+03  1.16041E+03  5.93743E+03  6.98679E+03  1.30495E+03  9.08206E+03
 -2.88055E+03  8.06497E+03 -5.18600E+03  2.91357E+03 -2.94857E+03 -1.31553E+03 -1.09678E+03 -8.50548E+02
 -1.89101E+03 -4.92130E+02 -1.94241E+03  2.18688E+03 -3.07691E+03  1.47531E+03 -4.73595E+03 -3.09040E+02
 -1.88294E+03 -5.62626E+03  3.70073E+02 -5.83302E+03  4.27144E+03 -5.65478E+03  5.83624E+03 -1.98048E+03
  5.32693E+03  2.86246E+03  1.63221E+03  5.20640E+03 -1.28612E+03  6.92946E+03 -4.91790E+03  3.77158E+03
 -5.41646E+03  1.51011E+03 -5.65763E+03 -2.85958E+03  3.11172E+02 -4.23418E+03  1.94620E+03 -5.07587E+03
  3.33926E+03 -1.41449E+03  3.33133E+03  1.45018E+03  9.70146E+02  3.30497E+03  5.98639E+02  6.28475E+02
  3.03134E+03  1.01534E+03  2.27954E+03  1.56236E+03  2.39089E+03  3.01058E+03  2.22234E+03  2.61527E+03
 -2.14946E+03  4.27513E+03 -4.36056E+03  5.64159E+03 -5.35137E+03  1.25983E+03 -6.97528E+03 -2.17714E+03
 -3.27936E+03 -6.30293E+03  9.31230E+02 -7.01687E+03  2.53500E+03 -3.60330E+03  5.27171E+03 -1.90019E+03
  4.06365E+03  8.39938E+02  5.20331E+02  3.99997E+03 -9.86405E+02  2.25125E+03 -2.87307E+03 -6.69403E+02
 -8.46787E+02 -2.30195E+03  8.67853E+02 -1.86587E+03  2.87846E+03 -1.63062E+03  1.45408E+03  7.37868E+01
  9.99666E+02  9.88311E+02  6.38097E+02  6.41540E+02 -8.58033E+02  8.43286E+02  4.19562E+02  1.34068E+03
  4.29512E+02 -3.83385E+02  2.86628E+03 -2.91602E+02 -2.65831E+02  4.41308E+03 -1.53402E+02  3.41051E+03
 -2.59097E+03  1.30103E+03 -3.27151E+03  7.78840E+02 -4.08151E+03 -1.60345E+03 -1.08107E+03 -1.29081E+03
  6.23901E+02 -1.93008E+03  1.75519E+03 -6.20366E+02  6.04235E+02  1.63844E+03 -2.99302E+02  1.80394E+03
 -2.16460E+03  9.98382E+02 -1.44542E+03 -2.42577E+03 -2.49290E+03 -3.35937E+03  1.51604E+02 -1.83201E+03
  8.84610E+02 -1.08539E+03  1.95867E+03 -4.72448E+02  2.02851E+03  5.09931E+02 -7.02769E+02  2.13138E+03
 -1.91561E+03  1.76473E+03 -1.58122E+03 -1.78502E+03  4.05174E+02 -5.62732E+02  2.38024E+03 -1.77995E+03
  3.51769E+03  1.03201E+03  4.93617E+03  2.07425E+03  1.41645E+03  2.40913E+03  1.91110E+01  2.41943E+03
 -1.76895E+03  6.23573E+01 -3.14594E+03  1.29326E+02 -2.49080E+02 -2.23030E+03  8.75082E+02 -1.49316E+03
  2.82302E+03 -2.14915E+02  3.45565E+02  1.34324E+03  1.21179E+03  1.94237E+03  9.58552E+02  1.17440E+03
 -1.16104E+03  1.30978E+03 -7.64833E+02  9.09270E+00 -3.96882E+01  9.44119E+02 -1.44057E+02  8.27836E+02
  4.77235E+01  1.71867E+03 -2.18169E+03  9.73680E+02 -2.71930E+03  5.56567E+02 -4.44320E+03 -1.84378E+03
 -1.55748E+03 -4.54724E+03  4.54242E+02 -3.67399E+03  2.20326E+03 -3.24305E+03  4.14978E+03 -1.87338E+03
  4.40533E+03  3.01066E+02  2.89887E+03  2.82541E+03  4.35509E+02  1.92620E+03 -1.18346E+03  1.68399E+03
 -7.66683E+02  4.07046E+02 -4.18322E+02 -1.14524E+03 -9.15074E+02 -1.12997E+03 -1.20642E+03 -5.90702E+02
 -1.42310E+03  1.91289E+02 -1.06530E+03 -1.83574E+02 -3.22821E+02 -1.12181E+03 -6.66569E+01 -7.06819E+02
  1.69472E+03 -9.16083E+02  1.53953E+03 -2.68944E+02  8.91835E+02  1.14228E+03 -4.95547E+02  2.71038E+03
 -8.46522E+02  4.89026E+03 -1.94354E+03  1.74975E+03 -2.15143E+03 -1.01810E+03 -3.50311E+03 -1.92894E+03
 -9.23484E+02 -2.33631E+03  3.70454E+02 -2.28737E+03  1.62155E+03 -8.38123E+02  1.65386E+03  9.17202E+01
  1.14034E+03  7.21422E+02  3.12832E+01  3.04886E+02 -1.27356E+03  1.41024E+03  1.62433E+02 -2.80094E+02
  1.75755E+03  9.54410E+02 -3.19489E+02  1.08382E+03  5.82045E+02  8.32707E+02  1.17980E+03  4.92717E+02
 -4.04382E+02  1.96473E+03 -1.43017E+03 -1.47918E+03 -1.17038E+03 -9.36211E+01 -4.12168E+02 -2.09562E+03
  8.01412E+02 -2.37089E+03  1.25575E+03 -2.22203E+02  1.75796E+03  6.10953E+02  1.69655E+03  1.64820E+03
 -4.11692E+02  1.39447E+03  4.56432E+02  1.61406E+03 -2.78821E+02  3.83152E+02 -6.24337E+02  6.78770E+02
  2.38169E+02  4.07983E+02 -7.20504E+01  6.85932E+02  8.19829E+02  2.19933E+02 -9.11658E+02  4.31382E+02
 -3.51640E+02  6.45188E+02 -1.47252E+02 -6.44838E+02  1.13680E+03 -1.78180E+03  2.34605E+03 -3.47903E+02
  1.47616E+03  3.10197E+02 -8.38956E+02  2.46350E+02 -2.70177E+02  2.00126E+02 -8.77784E+02  8.60218E+02
