 $NMID ID='MM_0lb_SNR200_7hz_g55_77.RAW', FMTDAT='(8E13.5)'
 TRAMP=1., VOLUME=1. $END
  3.09356E+05 -1.53780E+03  3.38826E+05  2.52954E+05  8.54498E+04  3.36468E+05 -1.32688E+05  2.52462E+05
 -1.90367E+05  8.33869E+04 -1.12645E+05 -3.46937E+04 -4.85808E+01 -5.11448E+04  5.28234E+04 -7.33585E+02
  3.46523E+04  5.13117E+04 -1.60793E+04  7.54134E+04 -6.12108E+04  6.52230E+04 -8.75158E+04  3.22866E+04
 -8.39055E+04 -1.33961E+04 -5.81688E+04 -5.26729E+04 -1.38897E+04 -7.13804E+04  2.82731E+04 -4.90964E+04
  4.20350E+04  4.35112E+03  1.86190E+04  5.01027E+04 -3.73579E+04  4.68881E+04 -7.00465E+04  1.53006E+03
 -5.60863E+04 -5.77382E+04 -8.09731E+03 -8.03728E+04  3.62573E+04 -5.58678E+04  5.01123E+04 -1.93544E+04
  4.60876E+04  1.18784E+04  3.28149E+04  2.84103E+04  1.59808E+04  3.12579E+04 -7.78026E+03  2.70726E+04
 -2.09146E+04  9.77004E+03 -1.75217E+04 -5.04841E+03  7.93569E+03 -6.65277E+03  2.47805E+04  1.31850E+04
  5.88447E+03  3.92804E+04 -3.38700E+04  3.71403E+04 -6.74051E+04  2.73829E+03 -6.07238E+04 -4.44950E+04
 -1.35274E+04 -6.91587E+04  4.29045E+04 -4.79528E+04  6.22635E+04 -1.47844E+03  3.90629E+04  3.61629E+04
 -5.74307E+03  4.02950E+04 -3.23607E+04  1.88266E+04 -3.34181E+04 -2.93577E+03 -1.95412E+04 -1.37459E+04
 -9.64798E+03 -1.72736E+04 -2.37159E+03 -2.08943E+04  7.52382E+03 -2.54470E+04  1.53845E+04 -1.23337E+04
  1.02132E+04  7.41263E+03 -1.11126E+04  1.39201E+04 -2.24098E+04 -5.63798E+03 -8.82953E+03 -4.05191E+04
  2.46783E+04 -4.96593E+04  5.42417E+04 -2.19098E+04  5.27149E+04  2.07265E+04  1.83224E+04  5.01581E+04
 -1.78123E+04  3.77093E+04 -2.83102E+04  1.10467E+03 -1.30265E+04 -3.14765E+04  2.28543E+04 -3.77981E+04
  4.52549E+04 -1.24359E+04  4.25211E+04  2.45174E+04  2.29484E+04  5.45853E+04 -6.94785E+03  5.87036E+04
 -3.91546E+04  4.20091E+04 -5.03236E+04  1.15160E+04 -5.06502E+04 -2.06571E+04 -2.68701E+04 -4.40371E+04
  7.68949E+03 -4.42482E+04  3.50117E+04 -1.84602E+04  3.38238E+04  1.10917E+04  6.14333E+03  2.18857E+04
 -1.34521E+04  9.09663E+03 -1.25721E+04 -7.19777E+03  5.76780E+03 -1.02318E+04  1.90765E+04  5.63120E+03
  1.49909E+04  2.27832E+04 -4.71128E+03  2.81031E+04 -2.50214E+04  1.59368E+04 -3.21054E+04 -7.74793E+02
 -2.66249E+04 -1.84907E+04 -1.21764E+04 -2.79099E+04  4.16665E+03 -2.96486E+04  2.18092E+04 -2.45845E+04
  3.52121E+04 -1.43835E+04  4.07946E+04  6.41542E+03  2.92121E+04  2.64497E+04  3.37547E+03  4.33881E+04
 -2.03446E+04  3.50318E+04 -3.09226E+04  1.36682E+04 -2.42300E+04 -8.83579E+03 -6.42827E+03 -1.11384E+04
 -5.24954E+01 -4.60609E+02 -7.88375E+03  8.36951E+03 -2.28212E+04  4.94043E+03 -2.27382E+04 -1.00086E+04
 -1.15513E+04 -2.62238E+04  7.68064E+03 -3.04342E+04  2.03841E+04 -2.29033E+04  2.48641E+04 -1.27509E+03
  1.69239E+04  1.80178E+04 -3.04540E+02  2.35377E+04 -1.93545E+04  1.36900E+04 -2.69085E+04 -5.79939E+03
 -1.99545E+04 -2.50844E+04 -1.78196E+03 -3.00542E+04  1.42053E+04 -2.61198E+04  2.46720E+04 -1.25899E+04
  2.50362E+04 -8.98107E+02  1.86001E+04  6.31511E+03  1.07982E+04  1.51231E+03  1.38716E+04 -2.18872E+03
  2.41601E+04  2.93260E+03  2.88916E+04  1.85602E+04  2.04482E+04  4.16247E+04 -2.52827E+03  5.10049E+04
 -2.91923E+04  4.30882E+04 -4.67332E+04  2.35940E+04 -5.12135E+04 -3.97941E+03 -4.03358E+04 -3.01987E+04
 -1.54225E+04 -4.04872E+04  1.53492E+04 -3.83394E+04  3.10742E+04 -1.77050E+04  2.73322E+04  1.02835E+04
  9.66130E+03  2.06605E+04 -1.34698E+04  1.86786E+04 -2.11234E+04  4.75303E+03 -1.66084E+04 -1.48892E+04
 -8.91584E+01 -2.15591E+04  1.15360E+04 -1.46756E+04  1.60905E+04  1.79191E+02  4.28038E+03  9.01672E+03
 -9.59313E+03  5.21459E+03 -1.27790E+04 -7.72705E+03 -3.17277E+03 -2.02397E+04  1.43780E+04 -2.40541E+04
  2.46374E+04 -1.26479E+04  3.16656E+04  4.08224E+03  2.77115E+04  2.10495E+04  1.24024E+04  3.30896E+04
 -7.09472E+03  3.64270E+04 -2.37542E+04  2.37854E+04 -2.71879E+04  2.97927E+03 -1.78408E+04 -7.34868E+03
 -6.79114E+03 -8.04458E+03  5.07179E+02 -7.05731E+00 -5.08425E+03  5.25864E+03 -8.91438E+03  7.12246E+03
 -1.64774E+04 -1.58256E+03 -1.70270E+04 -1.25364E+04 -5.71384E+03 -2.11631E+04  6.27931E+03 -1.84614E+04
  1.48210E+04 -6.06344E+03  1.19436E+04  4.78063E+03  6.56436E+02  6.99032E+03 -7.46128E+03  2.42855E+02
 -9.57784E+03 -1.11032E+04 -1.83269E+02 -1.73607E+04  1.07310E+04 -1.75943E+04  2.52485E+04 -1.06513E+04
  2.62062E+04  3.99398E+03  1.88537E+04  1.63343E+04  2.62690E+03  2.19157E+04 -1.03820E+04  1.91685E+04
 -1.41883E+04  5.60235E+03 -7.64362E+03 -4.51417E+03  1.05560E+03 -4.77230E+03  9.27716E+03 -1.94784E+03
  8.24056E+03  9.81945E+03  1.40121E+03  1.45381E+04 -1.05887E+04  1.49638E+04 -2.07084E+04  4.16734E+03
 -1.31677E+04 -1.06793E+04 -6.45928E+02 -1.73467E+04  1.07963E+04 -7.88512E+03  1.24978E+04  4.17996E+03
  4.35682E+03  1.34420E+04 -8.85291E+03  1.34253E+04 -1.71490E+04  6.34010E+03 -1.67074E+04 -5.18297E+03
 -9.34954E+03 -1.94730E+04  2.68142E+03 -2.40095E+04  1.99086E+04 -1.30203E+04  1.99837E+04  2.80555E+03
  1.35952E+04  1.68865E+04 -3.38323E+03  1.90966E+04 -1.44108E+04  1.15864E+04 -1.53476E+04 -7.45052E+02
 -1.17801E+04 -1.19087E+04 -2.97244E+03 -1.38418E+04  7.82334E+03 -1.17760E+04  7.95020E+03 -5.61052E+03
  7.51687E+03  3.65537E+03 -1.33948E+03  1.76966E+03 -2.74296E+02 -4.66019E+03  1.87059E+03 -1.03392E+04
  1.31311E+04 -5.10088E+03  1.97831E+04  2.29015E+03  1.83866E+04  1.48909E+04  1.15335E+04  2.65522E+04
 -6.36881E+03  3.14563E+04 -2.35918E+04  2.23921E+04 -3.20761E+04  5.38990E+03 -2.78921E+04 -1.10743E+04
 -1.20495E+04 -2.02805E+04  8.61668E+02 -1.79373E+04  6.87329E+03 -1.14372E+04  6.80472E+03 -6.91539E+03
  3.61141E+03 -4.21817E+03  6.35096E+03 -2.44298E+03  5.53017E+03 -3.98615E+03  9.44897E+03 -1.87688E+03
  1.14570E+04  2.55261E+03  7.22776E+03  1.23282E+04 -2.71152E+03  1.71826E+04 -1.47377E+04  1.24256E+04
 -1.99707E+04 -3.92018E+03 -1.24098E+04 -1.20052E+04 -2.31799E+03 -2.01780E+04  1.18428E+04 -1.96133E+04
  2.08887E+04 -1.10937E+04  2.64521E+04  3.29861E+03  1.65133E+04  1.78391E+04  2.92381E+03  2.22035E+04
 -8.55235E+03  1.72164E+04 -1.36737E+04  4.99221E+03 -1.04843E+04 -2.92420E+03 -4.23187E+03 -3.45717E+03
 -2.45834E+03 -1.55413E+03 -3.97937E+03  4.38507E+03 -7.24053E+03  4.78785E+02 -1.26082E+04 -2.81855E+03
 -9.46443E+03 -1.34278E+04 -2.33618E+02 -1.83759E+04  1.03593E+04 -1.60109E+04  1.97657E+04 -4.47624E+03
  2.00216E+04  9.29926E+03  6.88707E+03  1.74338E+04 -5.26954E+03  1.83588E+04 -1.24779E+04  1.18792E+04
 -1.92012E+04  1.29673E+03 -1.33329E+04 -1.16506E+04 -1.35478E+03 -1.75794E+04  7.95596E+03 -1.14148E+04
  1.26153E+04 -2.88581E+03  8.17236E+03  3.07514E+03  3.46287E+03  4.06043E+03  1.56264E+03  4.09380E+03
  2.47858E+03  1.10952E+03  4.53789E+03  1.91061E+03  5.12359E+03  6.33407E+03  5.95188E+03  1.04544E+04
 -5.87644E+03  1.54662E+04 -1.26721E+04  1.69926E+04 -2.15015E+04  2.92144E+03 -1.99911E+04 -1.13242E+04
 -1.18997E+04 -1.91577E+04  2.95396E+03 -2.16804E+04  1.18870E+04 -1.30455E+04  1.59141E+04 -3.96961E+03
  1.41231E+04  7.48436E+03  4.80205E+03  1.05854E+04 -6.73119E+03  7.66984E+03 -9.21026E+03 -3.09205E+02
 -2.36532E+03 -1.11594E+04  5.29831E+03 -1.06992E+04  7.64463E+03 -4.01693E+03  9.12944E+03  9.75129E+02
  5.13111E+03  4.35461E+03  1.07887E+03  3.61094E+03 -4.04653E+02  1.50452E+03  1.35166E+03 -1.30805E+03
  4.37039E+03 -1.62844E+03  7.91863E+03  3.49521E+03  5.39311E+03  1.07820E+04 -1.78149E+03  1.55173E+04
 -8.70749E+03  1.01984E+04 -1.29242E+04  3.82972E+03 -1.21536E+04 -3.37530E+03 -6.19130E+03 -8.09491E+03
  1.71498E+03 -9.25142E+03  5.94511E+03 -2.30413E+03  4.25791E+03  3.06719E+03 -5.69088E+02  6.90208E+03
 -8.11326E+03  3.57704E+03 -8.88215E+03 -3.62463E+03 -7.33427E+03 -1.09181E+04  1.75932E+03 -1.41135E+04
  6.21498E+03 -6.11286E+03  1.02369E+04 -6.75721E+02  5.66803E+03  3.45767E+03  1.68191E+03  5.53541E+03
 -4.24886E+03  5.53233E+02 -4.23854E+03 -3.56672E+03  2.94205E+03 -1.01252E+04  1.12482E+04 -6.61576E+03
  1.46707E+04  1.18612E+03  1.26130E+04  7.99183E+03  2.48655E+03  1.42825E+04 -5.03148E+03  1.24458E+04
 -1.13664E+04  6.96508E+03 -1.27309E+04 -2.91771E+03 -6.86241E+03 -9.03987E+03  1.23710E+03 -1.04117E+04
  8.71910E+03 -2.64906E+03  7.09120E+03  4.76922E+03  2.38986E+03  7.25720E+03 -8.52140E+02  5.97131E+03
 -4.66101E+03  4.82599E+03 -2.41792E+03  1.57812E+03 -1.60551E+03  2.44624E+03 -3.00035E+03  2.53254E+03
 -4.43621E+03  6.48842E+03 -1.04185E+04  2.71071E+03 -1.57600E+04  1.11184E+02 -1.79231E+04 -9.50003E+03
 -9.00232E+03 -1.80796E+04  4.16517E+03 -2.21447E+04  1.34240E+04 -1.62919E+04  1.87661E+04 -5.83690E+03
  1.86075E+04  2.44870E+03  1.12390E+04  1.41811E+04  2.50387E+03  1.52122E+04 -5.19592E+03  1.02950E+04
 -9.29331E+03  5.49869E+03 -4.51958E+03 -7.79053E+02 -1.63916E+03 -8.89543E+02 -1.63802E+03 -1.35106E+03
 -2.02356E+03 -1.58074E+03 -3.15203E+03 -1.97318E+03 -5.42170E+02 -1.89015E+03  8.46952E+02 -6.74078E+03
  6.13517E+03 -4.43111E+03  9.96175E+03 -2.97014E+02  9.97313E+03  6.10486E+03  4.51230E+03  1.49107E+04
 -6.75357E+03  1.56335E+04 -1.55429E+04  1.18045E+04 -1.93505E+04 -1.20605E+03 -1.33324E+04 -1.25159E+04
 -4.26872E+03 -1.74900E+04  5.04322E+03 -1.40468E+04  1.08224E+04 -9.20774E+03  1.02086E+04  2.61934E+03
  5.76102E+03  7.03089E+03 -9.12941E+02  4.72536E+03 -2.24842E+03 -2.94426E+02 -3.49267E+02 -3.82316E+03
  4.67367E+03 -2.90828E+03  7.97725E+03  2.22819E+03  4.05921E+03  6.00149E+03  6.39249E+02  8.17441E+03
 -7.38081E+03  6.89416E+03 -1.18013E+04  1.63436E+03 -8.26199E+03 -7.13791E+03 -1.26153E+03 -1.41834E+04
  6.68469E+03 -1.14820E+04  1.14649E+04 -3.64861E+03  1.31140E+04  2.95471E+03  7.89845E+03  1.03358E+04
  4.85511E+02  9.15873E+03 -4.97755E+03  9.07414E+03 -6.95687E+03  4.59201E+03 -5.99367E+03 -1.25164E+03
 -4.10114E+03 -4.32595E+01 -3.61494E+03  3.25830E+03 -5.92325E+03 -4.88571E+02 -8.54705E+03 -2.22979E+03
 -6.68911E+03 -6.61248E+03 -2.43515E+03 -1.03335E+04  4.90341E+03 -1.09022E+04  1.16044E+04 -5.69197E+03
  1.02040E+04  2.04654E+03  5.13191E+03  7.55185E+03 -7.16569E+02  1.24188E+04 -9.73723E+03  6.36317E+03
