 $NMID ID='MM_0lb_SNR200_8hz_g60_72.RAW', FMTDAT='(8E13.5)'
 TRAMP=1., VOLUME=1. $END
  3.09054E+05 -6.55027E+02  3.39489E+05  2.51442E+05  8.42012E+04  3.38274E+05 -1.34246E+05  2.51792E+05
 -1.90956E+05  8.35563E+04 -1.12211E+05 -3.26570E+04 -2.55719E+03 -5.23239E+04  5.38700E+04 -2.82122E+03
  3.43646E+04  5.23605E+04 -1.63726E+04  7.59157E+04 -6.16279E+04  6.32023E+04 -8.58076E+04  3.29307E+04
 -8.21171E+04 -1.38129E+04 -5.91909E+04 -5.43119E+04 -1.51415E+04 -7.14792E+04  2.84869E+04 -4.66453E+04
  4.24783E+04  4.76062E+03  1.65218E+04  4.93969E+04 -3.49349E+04  4.91286E+04 -6.84279E+04  1.02045E+03
 -5.57285E+04 -5.90999E+04 -8.30183E+03 -7.95688E+04  3.36549E+04 -5.79650E+04  4.90206E+04 -1.81717E+04
  4.79420E+04  1.22354E+04  3.26855E+04  2.80059E+04  1.77007E+04  2.84176E+04 -5.82655E+03  2.87622E+04
 -2.28611E+04  1.22083E+04 -1.71729E+04 -6.59189E+03  7.05971E+03 -8.05928E+03  2.49612E+04  1.45388E+04
  7.39304E+03  3.96839E+04 -3.48081E+04  3.68115E+04 -6.54459E+04  1.46315E+03 -5.76772E+04 -4.67818E+04
 -1.21681E+04 -6.59818E+04  4.24660E+04 -4.77454E+04  6.46213E+04 -2.01053E+03  3.81844E+04  3.29049E+04
 -6.41510E+03  4.15576E+04 -3.35156E+04  2.00934E+04 -3.45027E+04 -3.42683E+03 -2.00720E+04 -1.15566E+04
 -9.89484E+03 -1.53492E+04 -3.53489E+02 -2.05930E+04  9.31394E+03 -2.22228E+04  1.73430E+04 -1.38353E+04
  9.77263E+03  6.61129E+03 -9.61835E+03  1.29755E+04 -2.18268E+04 -7.85624E+03 -7.67711E+03 -3.92307E+04
  2.64966E+04 -4.88177E+04  5.36527E+04 -2.14301E+04  5.10277E+04  2.19580E+04  1.86607E+04  4.91447E+04
 -1.74146E+04  3.70376E+04 -2.90548E+04  1.18856E+03 -1.31077E+04 -3.04002E+04  2.26427E+04 -3.67855E+04
  4.65550E+04 -1.24163E+04  4.13218E+04  2.39622E+04  2.21502E+04  5.31631E+04 -8.37345E+03  6.00208E+04
 -3.65787E+04  4.01339E+04 -5.06689E+04  1.40673E+04 -5.05648E+04 -1.98555E+04 -2.66823E+04 -4.55690E+04
  9.05640E+03 -4.17454E+04  3.44660E+04 -1.86648E+04  3.31831E+04  1.18320E+04  7.28154E+03  2.07767E+04
 -1.26830E+04  9.81106E+03 -1.12033E+04 -7.39191E+03  6.20598E+03 -1.06074E+04  1.92382E+04  4.72696E+03
  1.44206E+04  2.34403E+04 -6.57671E+03  2.73765E+04 -2.37095E+04  1.62703E+04 -3.32734E+04 -8.75802E+01
 -2.75811E+04 -1.81196E+04 -1.37669E+04 -2.78009E+04  5.10861E+03 -2.75199E+04  2.22273E+04 -2.48519E+04
  3.50354E+04 -1.52448E+04  4.03059E+04  6.30276E+03  2.91009E+04  2.56124E+04  3.80541E+03  4.51543E+04
 -2.05334E+04  3.43227E+04 -3.05599E+04  1.19097E+04 -2.38440E+04 -1.19496E+04 -3.71857E+03 -1.07104E+04
 -2.07058E+02 -1.73812E+03 -9.63839E+03  1.00372E+04 -2.25992E+04  4.84684E+03 -2.19194E+04 -1.09229E+04
 -1.34182E+04 -2.54291E+04  5.87467E+03 -2.94041E+04  2.06357E+04 -2.17550E+04  2.48180E+04 -1.27696E+03
  1.41216E+04  1.72064E+04 -1.94013E+03  2.46677E+04 -1.83851E+04  1.52824E+04 -2.54913E+04 -4.96681E+03
 -1.79427E+04 -2.05240E+04 -2.58234E+03 -3.04549E+04  1.36542E+04 -2.53151E+04  2.59746E+04 -1.56553E+04
  2.18171E+04 -2.06565E+02  1.64758E+04  4.56824E+03  8.95312E+03  2.25226E+03  1.19448E+04 -1.08623E+03
  2.44791E+04  2.33873E+03  2.81548E+04  1.96546E+04  2.02721E+04  4.20104E+04 -2.09084E+03  4.60119E+04
 -2.67769E+04  4.20952E+04 -4.54471E+04  2.14221E+04 -4.76354E+04 -4.25280E+03 -3.84216E+04 -2.79777E+04
 -1.61872E+04 -3.84512E+04  1.57945E+04 -3.62722E+04  3.04351E+04 -1.69382E+04  2.69261E+04  9.05856E+03
  8.41953E+03  2.04930E+04 -1.19440E+04  1.60272E+04 -2.23671E+04  3.96581E+03 -1.53190E+04 -1.61357E+04
 -1.16341E+03 -2.11076E+04  1.28209E+04 -1.29315E+04  1.61746E+04 -5.48486E+02  5.68015E+03  8.39186E+03
 -9.63207E+03  3.64501E+03 -9.39428E+03 -8.90995E+03 -2.46525E+03 -2.10010E+04  1.10795E+04 -2.31997E+04
  2.63373E+04 -1.27369E+04  3.01457E+04  3.87609E+03  2.59853E+04  2.04647E+04  1.13069E+04  3.25469E+04
 -5.68024E+03  3.44353E+04 -2.29608E+04  2.03235E+04 -2.48390E+04  3.33292E+03 -1.79069E+04 -6.30859E+03
 -8.01838E+03 -9.14565E+03 -1.44354E+03 -1.07551E+03 -2.03770E+03  5.23840E+03 -5.95373E+03  6.72047E+03
 -1.42505E+04  1.31927E+02 -1.72874E+04 -1.34066E+04 -6.16280E+03 -2.15084E+04  8.79182E+03 -1.89228E+04
  1.28496E+04 -5.74757E+03  1.13264E+04  4.90206E+03 -8.99381E+02  8.68857E+03 -6.80141E+03 -7.72167E+02
 -8.17058E+03 -1.14897E+04 -1.54681E+03 -1.64980E+04  1.02037E+04 -1.89030E+04  2.31910E+04 -1.02433E+04
  2.62924E+04  2.64829E+03  2.14026E+04  1.70839E+04  3.16920E+03  2.23545E+04 -1.17902E+04  1.89108E+04
 -1.48519E+04  4.57486E+03 -6.26095E+03 -2.90401E+03  1.47125E+03 -2.84710E+03  9.67340E+03 -2.79785E+03
  9.33873E+03  9.14413E+03  1.99848E+03  1.57213E+04 -1.07685E+04  1.55478E+04 -1.64192E+04  3.86605E+03
 -1.24052E+04 -9.28370E+03 -9.40583E+01 -1.69779E+04  1.05230E+04 -6.57859E+03  1.08375E+04  3.72076E+03
  2.62177E+03  1.09592E+04 -7.51935E+03  1.41485E+04 -1.49993E+04  6.24751E+03 -1.71921E+04 -6.82365E+03
 -9.74985E+03 -1.83919E+04  3.52856E+03 -2.34494E+04  1.80673E+04 -1.05046E+04  2.17359E+04  4.25322E+03
  1.12046E+04  1.65069E+04 -2.76196E+03  1.72686E+04 -1.34416E+04  9.37591E+03 -1.55047E+04 -1.75551E+03
 -1.20378E+04 -1.23599E+04 -2.68476E+03 -1.48907E+04  6.87165E+03 -1.08210E+04  8.86698E+03 -4.94598E+03
  6.57290E+03  2.34713E+03 -1.29730E+03  2.44353E+03 -1.82002E+03 -4.78860E+03  2.89606E+03 -9.42012E+03
  1.47316E+04 -5.29132E+03  2.04657E+04  3.44637E+03  1.91355E+04  1.36785E+04  1.18112E+04  2.28276E+04
 -7.06789E+03  2.83139E+04 -2.41069E+04  2.05971E+04 -3.01933E+04  4.88489E+03 -2.40862E+04 -1.17006E+04
 -1.24012E+04 -1.92823E+04 -8.57006E+02 -1.61325E+04  6.69963E+03 -1.14854E+04  6.42155E+03 -5.74753E+03
  5.42874E+03 -2.85996E+03  3.72780E+03 -4.39305E+03  5.92662E+03 -3.69118E+03  1.04486E+04 -2.83228E+03
  1.25944E+04  2.14675E+03  7.53446E+03  1.17023E+04 -4.28179E+02  1.49439E+04 -1.29628E+04  1.12906E+04
 -1.71535E+04 -3.14280E+03 -1.23854E+04 -1.33576E+04 -2.56060E+02 -1.90065E+04  9.79202E+03 -1.97248E+04
  2.12458E+04 -1.04049E+04  2.30714E+04  3.63406E+03  1.59671E+04  1.56628E+04  2.07546E+03  2.14527E+04
 -8.15656E+03  1.75724E+04 -1.21351E+04  5.73270E+03 -9.22786E+03 -1.86518E+03 -1.80301E+03 -4.23661E+03
 -1.04374E+03 -1.08851E+02 -2.54341E+03  4.24767E+03 -7.58126E+03  1.88776E+03 -1.02127E+04 -2.62249E+03
 -9.03117E+03 -1.15079E+04 -1.42233E+03 -1.75029E+04  1.15183E+04 -1.67236E+04  1.79393E+04 -5.01659E+03
  1.84932E+04  8.73565E+03  8.70569E+03  1.72477E+04 -2.02109E+03  1.78506E+04 -1.30256E+04  1.22185E+04
 -1.64613E+04 -4.01221E+01 -1.33726E+04 -1.06781E+04 -2.06568E+03 -1.54165E+04  6.79413E+03 -1.21070E+04
  1.21735E+04 -3.01667E+03  8.18424E+03  3.22707E+03  2.09064E+03  3.75442E+03  2.38175E+03  1.31530E+03
  4.88125E+03  1.56766E+03  4.71930E+03  2.03945E+03  6.41652E+03  6.63167E+03  4.48352E+03  1.06370E+04
 -4.25735E+03  1.41914E+04 -1.39789E+04  1.48618E+04 -1.99684E+04  3.85621E+03 -1.94952E+04 -8.23641E+03
 -9.74177E+03 -2.08413E+04  4.08318E+03 -2.07801E+04  1.12752E+04 -1.38088E+04  1.55256E+04 -2.62581E+03
  1.10813E+04  5.03196E+03  3.47589E+03  8.72737E+03 -5.16521E+03  6.48263E+03 -8.73411E+03 -1.08770E+03
 -4.08924E+03 -7.45600E+03  3.45171E+03 -8.47562E+03  9.04480E+03 -4.81521E+03  7.43674E+03  1.26311E+03
  3.30661E+03  3.49413E+03  3.52822E+03  3.48867E+03 -2.73211E+03  2.19336E+03  1.33015E+03 -1.33069E+03
  3.40416E+03 -7.82175E+02  6.80210E+03  1.99884E+03  6.42320E+03  9.93059E+03 -2.02588E+03  1.18125E+04
 -8.88520E+03  9.87056E+03 -1.27354E+04  4.70612E+03 -1.17489E+04 -4.19444E+03 -5.08576E+03 -8.41370E+03
  1.13386E+03 -8.26714E+03  6.13418E+03 -3.19857E+03  2.49475E+03  1.75994E+03 -1.54132E+03  7.90475E+03
 -9.03110E+03  5.40849E+03 -9.89836E+03 -5.28594E+03 -3.63605E+03 -1.11858E+04  3.07135E+03 -1.00841E+04
  7.84194E+03 -5.53081E+03  8.28012E+03 -3.96595E+02  7.68452E+03  1.93992E+03  1.77276E+03  7.29273E+03
 -3.06619E+03  1.58889E+03 -3.57834E+03 -2.76251E+03  9.45997E+02 -8.26132E+03  1.02791E+04 -6.27045E+03
  1.25705E+04  7.23086E+02  1.14598E+04  8.27451E+03  2.59274E+03  1.28441E+04 -6.36976E+03  1.25481E+04
 -7.91119E+03  7.13970E+03 -9.83472E+03 -3.55488E+03 -5.37590E+03 -8.80734E+03  3.19072E+03 -8.05918E+03
  7.76580E+03 -4.15504E+03  4.31664E+03  2.74633E+03  2.30760E+03  7.45018E+03 -1.02412E+03  7.00050E+03
 -3.92689E+03  3.59169E+03 -2.14495E+03  1.28054E+03 -2.47111E+03  1.67982E+03 -2.03457E+03  2.76344E+03
 -4.15524E+03  3.58158E+03 -1.01373E+04  3.14324E+03 -1.45253E+04 -9.59708E+02 -1.48285E+04 -8.58021E+03
 -6.44253E+03 -1.71928E+04  3.64093E+03 -1.93901E+04  1.31498E+04 -1.49178E+04  1.99151E+04 -6.04863E+03
  1.56093E+04  4.70287E+03  1.29208E+04  1.27422E+04 -4.80082E+02  1.25048E+04 -4.88097E+03  8.75748E+03
 -7.75229E+03  4.29677E+03 -4.77912E+03 -3.21797E+02 -1.53981E+03 -4.50744E+02  1.93064E+02 -5.47061E+02
 -2.38991E+03 -8.34551E+02 -2.79624E+03 -1.63274E+01 -1.59603E+03 -5.08468E+03 -6.69234E+02 -6.25849E+03
  6.32233E+03 -4.59688E+03  6.75775E+03  6.44456E+02  9.44089E+03  5.93661E+03  3.87658E+03  1.36234E+04
 -7.72194E+03  1.58297E+04 -1.39934E+04  9.36386E+03 -1.70606E+04 -1.25375E+03 -1.34336E+04 -1.08638E+04
 -5.21502E+03 -1.29191E+04  3.85158E+03 -1.41332E+04  7.71864E+03 -7.35088E+03  9.47380E+03  9.32701E+02
  5.58402E+03  4.49000E+03 -1.36061E+03  4.00531E+03 -4.04207E+03  1.51807E+03  7.26718E+02 -4.24036E+03
  3.55457E+03 -1.76048E+03  4.86311E+03  2.78641E+03  2.73213E+03  6.43404E+03  2.43509E+03  7.19553E+03
 -5.25164E+03  5.58258E+03 -1.01117E+04 -2.52534E+02 -9.16965E+03 -6.70501E+03 -3.66338E+03 -1.06759E+04
  6.40133E+03 -9.95396E+03  1.11236E+04 -4.72029E+03  1.09922E+04  3.74434E+03  6.69913E+03  8.71865E+03
  1.48543E+03  7.62410E+03 -3.63338E+03  7.50124E+03 -5.92814E+03  3.44445E+03 -5.92689E+03  1.82857E+03
 -2.61451E+03 -7.94201E+02 -2.25313E+03  1.25372E+03 -3.43645E+03  1.19314E+03 -8.45932E+03 -5.74231E+02
 -5.24918E+03 -6.88351E+03 -2.83586E+03 -9.14812E+03  5.31824E+03 -9.21310E+03  8.70734E+03 -5.92214E+03
  8.91470E+03  8.83679E+02  5.31102E+03  6.16612E+03  1.83476E+02  8.96801E+03 -7.60000E+03  6.61577E+03
