 $NMID ID='MM_0lb_SNR200_16hz_g50_69.RAW', FMTDAT='(8E13.5)'
 TRAMP=1., VOLUME=1. $END
  3.09514E+05  1.50218E+03  3.37160E+05  2.49942E+05  8.47703E+04  3.37531E+05 -1.32477E+05  2.50417E+05
 -1.90240E+05  8.25845E+04 -1.11145E+05 -3.34698E+04  8.08323E+02 -4.88935E+04  5.39487E+04 -1.01883E+02
  3.41311E+04  5.34034E+04 -1.67937E+04  7.62006E+04 -6.04085E+04  6.37674E+04 -8.28732E+04  3.21204E+04
 -8.09377E+04 -1.09573E+04 -5.69983E+04 -5.08006E+04 -1.45672E+04 -6.94492E+04  2.75370E+04 -4.56545E+04
  3.87582E+04  5.06629E+03  1.54803E+04  4.72834E+04 -3.38098E+04  4.59442E+04 -6.55889E+04 -1.14107E+03
 -5.34123E+04 -5.60303E+04 -5.58653E+03 -7.69864E+04  3.45021E+04 -5.32237E+04  4.76604E+04 -1.74908E+04
  4.23664E+04  1.12047E+04  3.14340E+04  2.46138E+04  1.64585E+04  2.82292E+04 -4.47491E+03  2.73790E+04
 -2.13958E+04  1.28351E+04 -1.94386E+04 -5.31615E+03  5.50556E+03 -6.83068E+03  2.22836E+04  1.13582E+04
  8.30694E+03  3.49451E+04 -3.13970E+04  3.55964E+04 -6.17991E+04  2.24465E+03 -5.93350E+04 -4.23798E+04
 -1.26183E+04 -6.30591E+04  4.02164E+04 -4.38285E+04  5.73830E+04 -2.77776E+03  3.30818E+04  3.15733E+04
 -6.17873E+03  3.46534E+04 -3.02545E+04  1.56049E+04 -2.85078E+04 -3.60246E+03 -1.65095E+04 -1.02183E+04
 -8.11518E+03 -1.39465E+04 -1.42159E+03 -1.79566E+04  8.17304E+03 -2.34574E+04  1.63401E+04 -1.34934E+04
  1.11028E+04  4.84483E+03 -7.09501E+03  1.26377E+04 -2.00061E+04 -3.17473E+03 -8.27144E+03 -3.23537E+04
  2.12065E+04 -4.25429E+04  4.66064E+04 -1.83070E+04  4.40737E+04  1.88534E+04  1.50285E+04  4.26548E+04
 -1.57308E+04  3.31850E+04 -2.54792E+04  1.73666E+03 -9.66913E+03 -2.75043E+04  2.05021E+04 -3.29884E+04
  3.99400E+04 -8.54814E+03  3.50572E+04  2.33685E+04  1.83737E+04  4.59433E+04 -8.00229E+03  4.80885E+04
 -3.00155E+04  3.23988E+04 -3.96344E+04  9.15039E+03 -4.07728E+04 -1.70940E+04 -2.22893E+04 -3.60923E+04
  7.28172E+03 -3.63795E+04  3.11712E+04 -1.31957E+04  2.88325E+04  1.04913E+04  3.22875E+03  1.82393E+04
 -1.42198E+04  7.60602E+03 -1.03609E+04 -7.69351E+03  5.73861E+03 -1.09435E+04  1.75091E+04  6.49901E+03
  1.27024E+04  2.27347E+04 -7.06828E+03  2.47379E+04 -2.31343E+04  9.52978E+03 -2.65045E+04 -5.31694E+03
 -1.77247E+04 -1.64541E+04 -8.41930E+03 -1.97352E+04  4.31954E+03 -1.78643E+04  1.44980E+04 -1.74205E+04
  2.51159E+04 -1.35483E+04  3.18860E+04  2.29848E+03  2.18713E+04  1.80104E+04  4.48948E+03  3.50711E+04
 -1.63563E+04  2.93827E+04 -2.75998E+04  1.01183E+04 -2.00800E+04 -1.13955E+04 -4.76799E+03 -1.40413E+04
  1.73751E+03 -3.54323E+03 -3.45292E+03  6.60522E+03 -1.40377E+04  5.03499E+03 -1.52445E+04 -5.84779E+03
 -9.87616E+03 -1.57820E+04  5.01639E+03 -2.17652E+04  1.46958E+04 -1.50069E+04  1.78511E+04 -8.19659E+02
  9.76959E+03  1.22292E+04 -9.49103E+02  1.58955E+04 -1.19829E+04  9.25071E+03 -1.74871E+04 -4.04025E+03
 -1.29793E+04 -1.69250E+04 -1.37737E+03 -2.19111E+04  9.98346E+03 -1.68190E+04  1.68156E+04 -9.45537E+03
  1.67040E+04  5.17430E+02  1.15378E+04  4.13575E+03  6.23697E+03  1.79996E+03  8.65431E+03 -1.53277E+03
  1.66949E+04  2.81540E+03  1.78100E+04  1.40641E+04  1.10885E+04  2.77055E+04 -3.32892E+03  3.07935E+04
 -1.85890E+04  2.38598E+04 -2.84285E+04  1.28147E+04 -2.98212E+04 -2.98043E+03 -2.37248E+04 -1.79115E+04
 -1.18273E+04 -2.43131E+04  8.59703E+03 -2.23931E+04  1.95870E+04 -1.15523E+04  1.75007E+04  5.16469E+03
  7.84017E+03  1.32891E+04 -8.40947E+03  1.12926E+04 -1.63286E+04  2.99578E+03 -1.23012E+04 -8.57987E+03
  5.97770E+02 -1.45863E+04  7.27053E+03 -9.58881E+03  9.16810E+03 -9.57189E+02  1.70945E+03  6.01924E+03
 -5.69997E+03  2.55609E+03 -4.28337E+03 -4.40545E+03  9.25894E+02 -1.20954E+04  8.42603E+03 -1.26340E+04
  1.41862E+04 -5.49906E+03  1.60316E+04  2.00082E+03  1.36604E+04  1.21217E+04  5.63565E+03  1.80028E+04
 -3.13416E+03  2.04877E+04 -1.22541E+04  1.24932E+04 -1.43944E+04  3.91581E+03 -9.93969E+03 -2.89416E+03
 -4.92855E+03 -4.60011E+03 -7.26270E+02  5.68598E+02 -1.85406E+03  2.67743E+03 -4.30358E+03  3.92877E+03
 -9.17311E+03 -1.57866E+01 -1.15115E+04 -8.69598E+03 -3.79189E+03 -1.37746E+04  4.00129E+03 -9.32873E+03
  7.83561E+03 -4.71707E+03  6.23080E+03  2.66699E+03  5.45689E+02  2.99486E+03 -5.10839E+03 -6.89386E+02
 -5.03373E+03 -6.76049E+03 -1.15180E+03 -8.23811E+03  5.51608E+03 -1.06613E+04  1.14731E+04 -4.95159E+03
  1.42391E+04  1.68968E+03  9.97876E+03  7.81859E+03  8.35625E+02  1.06030E+04 -5.43228E+03  1.05955E+04
 -8.62649E+03  3.38056E+03 -3.83473E+03 -3.79020E+02  5.90809E+02 -2.29741E+03  4.72709E+03 -6.30633E+02
  5.60905E+03  3.96393E+03  1.42512E+03  7.79115E+03 -6.05946E+03  8.50126E+03 -9.48187E+03  1.50453E+03
 -5.83433E+03 -4.06026E+03  5.02925E+02 -8.40468E+03  4.16040E+03 -3.54841E+03  5.31647E+03  1.05683E+03
 -5.20576E+02  4.84730E+03 -4.31952E+03  6.12030E+03 -6.56813E+03  3.54113E+03 -6.44470E+03 -1.39697E+03
 -4.92065E+03 -7.59933E+03  2.43003E+03 -8.83697E+03  7.73849E+03 -6.86719E+03  9.55493E+03  1.77582E+03
  5.17012E+03  6.44825E+03 -2.67080E+02  8.96352E+03 -6.13998E+03  4.07797E+03 -7.04975E+03  7.57646E+01
 -6.37598E+03 -5.74657E+03 -4.50291E+02 -7.30687E+03  3.28787E+03 -5.69606E+03  3.70329E+03 -2.67753E+03
  3.10636E+03  1.43985E+03  8.66610E+02  1.93183E+03 -1.43065E+02  6.42388E+01  1.29698E+03 -4.53255E+03
  4.59475E+03 -1.39922E+03  6.80899E+03  1.31838E+03  7.89108E+03  5.36582E+03  6.38645E+03  8.33051E+03
 -1.13649E+03  1.14504E+04 -1.04163E+04  8.86810E+03 -1.31076E+04  1.50241E+03 -9.82624E+03 -3.94773E+03
 -4.22646E+03 -8.12574E+03 -5.83338E+02 -6.23713E+03  2.92783E+03 -3.02572E+03  2.30978E+03 -2.85339E+03
  2.03988E+03 -1.80864E+03  2.17283E+03 -2.52709E+03  4.49113E+03 -1.44157E+03  4.42979E+03  1.72534E+02
  5.67250E+03  1.82055E+03  2.31085E+03  4.77417E+03 -1.64451E+03  5.62711E+03 -5.31077E+03  2.67231E+03
 -6.69611E+03 -7.25697E+02 -2.83775E+03 -3.60758E+03  5.89906E+02 -7.54664E+03  4.04599E+03 -7.81164E+03
  6.44596E+03 -5.73027E+03  9.48917E+03  5.89827E+02  5.66895E+03  6.52104E+03  1.20946E+03  6.94713E+03
 -3.04386E+03  6.94451E+03 -4.44140E+03  2.36605E+03 -2.86452E+03 -6.65850E+02 -1.79889E+03 -1.15949E+02
 -1.00939E+03  3.23414E+02 -3.85080E+02  2.93494E+03 -2.70923E+03  1.67877E+03 -4.58003E+03 -9.79006E+02
 -3.30627E+03 -5.46607E+03  4.38170E+02 -6.49356E+03  3.04750E+03 -5.42930E+03  4.50941E+03 -1.37805E+03
  6.40517E+03  2.57145E+03  2.94890E+03  4.06164E+03 -8.92923E+02  5.93654E+03 -4.86205E+03  3.48736E+03
 -5.24919E+03  3.01396E+02 -5.50872E+03 -2.17546E+03  6.54351E+02 -6.01436E+03  1.95992E+03 -2.18815E+03
  4.44479E+03 -8.73784E+02  2.89997E+03  5.47268E+02  1.77153E+03  2.54778E+03  1.25500E+03  8.73547E+02
  3.05814E+03  5.91406E+02  1.31883E+03  1.02112E+03  1.24291E+03  2.19082E+03  2.14346E+03  2.53500E+03
 -2.04587E+03  4.44393E+03 -2.76954E+03  4.78065E+03 -4.91694E+03  1.20126E+03 -6.51169E+03 -1.23966E+03
 -3.60109E+03 -5.41943E+03  3.95226E+02 -6.70066E+03  2.17818E+03 -3.88115E+03  4.40511E+03 -1.95272E+03
  3.74204E+03  2.57334E+03 -1.00516E+03  4.22368E+03 -1.14885E+03  2.32838E+03 -9.69969E+02  6.50840E+02
 -9.56147E+02 -2.51684E+03  1.95810E+03 -3.01855E+03  2.29282E+03 -1.00386E+03  2.38994E+03  1.77286E+03
  1.69684E+03  1.85111E+02  2.48516E+03  8.35746E+02 -5.48770E+02  1.50484E+03  1.84117E+03 -3.17232E+02
  6.90197E+02 -1.59457E+03  1.08401E+03  1.48161E+03  2.00961E+02  3.86740E+03 -3.18683E+00  4.79608E+03
 -2.21786E+03  2.37739E+03 -4.32662E+03 -1.01516E+03 -3.75226E+03 -4.63746E+02 -1.51248E+02 -1.90606E+03
  1.39767E+03 -1.94876E+03  1.48867E+03 -1.19795E+03  8.35990E+02  2.63876E+03 -1.64572E+03  2.11786E+03
 -3.25805E+03  6.13377E+02 -1.92259E+03 -1.36925E+03 -1.07688E+03 -3.78299E+03  1.00694E+03 -3.86117E+03
  3.04737E+03 -2.09185E+03  2.60371E+03  3.68469E+02  3.00427E+02  4.04458E+02  4.31809E+02  2.04991E+03
 -3.15810E+02 -3.75465E+02 -1.22253E+03 -1.25162E+03  7.96005E+02 -2.39613E+03  4.15429E+03 -1.28781E+03
  2.57235E+03 -4.99985E+02  4.75500E+03  1.94266E+03  1.09351E+03  1.58675E+03 -5.78448E+02  3.85663E+03
 -1.75915E+03  1.36203E+03 -2.83584E+03  2.93099E+02 -1.05304E+03 -1.93769E+03  1.01218E+03 -6.96588E+02
  2.61119E+03 -2.16228E+03  7.55666E+02  6.03139E+02 -2.76045E+02  1.21161E+03 -1.54927E+03  2.00132E+03
 -5.50643E+02  9.53396E+02 -4.37360E+02  1.35815E+02  2.31734E+02  1.16900E+03 -7.32320E+02  4.74080E+00
 -7.30752E+02  1.25781E+03 -1.01079E+03  4.94756E+02 -3.31452E+03 -8.99266E+02 -3.62396E+03 -1.12560E+03
 -2.93072E+03 -3.17149E+03  1.50034E+03 -4.96720E+03  2.14136E+03 -3.50740E+03  3.94447E+03 -1.68024E+03
  3.69839E+03  1.16027E+01  2.00402E+03  1.67275E+03 -9.54708E+02  3.74352E+03 -7.12062E+02  2.92029E+03
 -1.78874E+03  4.71716E+02 -1.30890E+03 -1.33711E+03 -1.30050E+01 -1.36827E+03 -1.06812E+02  6.01693E+01
 -2.39808E+03  3.55444E+02 -1.59623E+03  3.01694E+02  1.54859E+03 -5.40619E+02 -2.63272E+02 -1.57676E+03
  1.91324E+03 -1.16401E+03  1.32145E+03  1.75352E+02  1.83408E+03  8.26113E+02 -2.59993E+02  2.38031E+03
 -1.73588E+03  2.80208E+03 -1.33873E+03  2.81010E+03 -3.69562E+03  1.33827E+02 -2.38696E+03 -2.25219E+03
 -1.75464E+03 -2.18922E+03  1.70909E+03 -3.27433E+03  2.25411E+03 -1.16837E+03  1.27990E+03  6.10704E+02
  2.35149E+02  2.20929E+02 -5.55023E+02  1.44268E+03 -6.85540E+02  1.69339E+02 -3.32717E+01 -7.79845E+02
  9.08146E+02 -5.47710E+02  1.20721E+03  1.02343E+03 -3.25010E+02 -3.80619E+02  1.09313E+03  3.81625E+02
 -7.21450E+01  1.03858E+03 -9.11589E+02  3.58781E+02 -1.69097E+02 -9.80950E+02  1.21742E+03 -2.50131E+03
  1.39541E+03 -1.07489E+03  1.35486E+03 -9.36387E+02  1.35362E+03  9.06088E+02  1.20668E+03  2.15268E+03
 -4.68506E+02  1.75072E+03 -2.21861E+03  1.57577E+03 -2.11937E+03  2.49287E+02 -1.64661E+03 -2.07176E+02
 -8.87800E+01  6.34104E+02  4.31639E+02  1.30505E+02 -1.39713E+03  2.65290E+02 -9.46125E+01 -2.32987E+02
 -2.06472E+03  4.40676E+02 -6.81657E+02 -2.01122E+03  1.44542E+03 -1.36816E+03  4.03593E+02 -1.39404E+03
  3.84490E+02  4.79935E+01 -6.66126E+02  3.00111E+02 -9.72916E+01  1.58172E+03 -7.38375E+02  1.04204E+03
