 $NMID ID='MM_0lb_SNR200_20hz_g40_7.RAW', FMTDAT='(8E13.5)'
 TRAMP=1., VOLUME=1. $END
  3.09576E+05  1.09071E+02  3.36961E+05  2.50013E+05  8.38945E+04  3.36813E+05 -1.32186E+05  2.49531E+05
 -1.90117E+05  8.12528E+04 -1.10544E+05 -3.33521E+04  1.74222E+03 -5.05573E+04  5.42480E+04  4.66130E+01
  3.39870E+04  5.28352E+04 -1.67780E+04  7.44009E+04 -5.98405E+04  6.17483E+04 -8.31318E+04  3.11359E+04
 -7.88813E+04 -1.10507E+04 -5.59806E+04 -4.95616E+04 -1.47773E+04 -6.74848E+04  2.64220E+04 -4.45116E+04
  3.77396E+04  3.77036E+03  1.56169E+04  4.68923E+04 -3.32326E+04  4.57697E+04 -6.58881E+04 -5.75449E+02
 -5.11200E+04 -5.52974E+04 -6.14095E+03 -7.43922E+04  3.32600E+04 -5.18093E+04  4.64046E+04 -1.55462E+04
  4.13188E+04  1.10552E+04  3.08677E+04  2.41082E+04  1.55116E+04  2.77055E+04 -4.36176E+03  2.70028E+04
 -2.09253E+04  1.28791E+04 -1.96949E+04 -4.38972E+03  3.56062E+03 -7.53472E+03  2.14605E+04  1.00788E+04
  7.57557E+03  3.15697E+04 -3.05098E+04  3.20620E+04 -5.91865E+04  2.29187E+03 -5.47652E+04 -3.94415E+04
 -1.17877E+04 -5.91792E+04  3.76750E+04 -4.19395E+04  5.39134E+04 -1.94380E+03  3.01925E+04  2.96632E+04
 -6.54104E+03  3.06281E+04 -2.77775E+04  1.07534E+04 -2.50934E+04 -5.54925E+03 -1.39667E+04 -9.32254E+03
 -6.60050E+03 -1.15042E+04 -1.57611E+03 -1.54811E+04  7.15722E+03 -2.19442E+04  1.44432E+04 -1.27862E+04
  1.35542E+04  4.18344E+03 -5.11038E+03  1.26145E+04 -1.87283E+04 -1.53979E+03 -7.21155E+03 -2.87382E+04
  2.03463E+04 -4.00298E+04  4.36345E+04 -1.83653E+04  4.04682E+04  1.78047E+04  1.36775E+04  4.01671E+04
 -1.40633E+04  2.96916E+04 -2.14085E+04  1.08718E+03 -7.35356E+03 -2.62767E+04  2.03913E+04 -3.03658E+04
  3.61038E+04 -6.54978E+03  2.99130E+04  2.35321E+04  1.36593E+04  3.98130E+04 -8.01539E+03  4.26593E+04
 -2.67491E+04  2.78639E+04 -3.51648E+04  8.10667E+03 -3.56521E+04 -1.35182E+04 -1.96981E+04 -3.23968E+04
  6.57992E+03 -3.20777E+04  2.83741E+04 -1.23690E+04  2.64809E+04  1.17356E+04  2.54846E+03  1.73421E+04
 -1.32967E+04  7.37822E+03 -1.02966E+04 -7.38072E+03  5.67695E+03 -9.86941E+03  1.71630E+04  6.95141E+03
  1.17807E+04  2.19612E+04 -6.43684E+03  2.18684E+04 -2.07978E+04  8.39362E+03 -2.34921E+04 -7.96335E+03
 -1.52603E+04 -1.55775E+04 -5.58376E+03 -1.49845E+04  4.01844E+03 -1.34100E+04  1.01626E+04 -1.22154E+04
  1.89596E+04 -1.09510E+04  2.60445E+04  8.95147E+02  1.97806E+04  1.59755E+04  3.73129E+03  3.04281E+04
 -1.45144E+04  2.58062E+04 -2.55403E+04  9.07120E+03 -1.90998E+04 -1.14832E+04 -3.52752E+03 -1.49114E+04
  2.76210E+03 -3.89933E+03 -1.60167E+03  5.60368E+03 -1.23123E+04  5.08030E+03 -1.19039E+04 -4.15878E+03
 -8.25278E+03 -1.32537E+04  4.50327E+03 -1.81991E+04  1.14389E+04 -1.35004E+04  1.33301E+04 -9.07610E+02
  7.78059E+03  9.16089E+03 -6.62973E+02  1.43528E+04 -8.48556E+03  7.68560E+03 -1.40945E+04 -3.18590E+03
 -1.00958E+04 -1.29586E+04 -1.66631E+03 -1.64886E+04  7.01875E+03 -1.33606E+04  1.55883E+04 -6.90121E+03
  1.32598E+04  1.95728E+03  9.40950E+03  2.92838E+03  4.07461E+03  1.44116E+03  5.84072E+03 -5.94586E+02
  1.27877E+04  2.14249E+03  1.26442E+04  1.12770E+04  7.33378E+03  2.24773E+04 -2.84225E+03  2.45433E+04
 -1.38427E+04  1.72438E+04 -2.23976E+04  8.45605E+03 -2.20750E+04 -1.28312E+03 -1.81963E+04 -1.30305E+04
 -1.01418E+04 -1.68146E+04  5.94463E+03 -1.72726E+04  1.43393E+04 -9.85565E+03  1.32561E+04  2.92472E+03
  6.04671E+03  1.02661E+04 -5.19574E+03  9.23975E+03 -1.27590E+04  1.70634E+03 -1.00521E+04 -6.88207E+03
 -1.23976E+02 -1.17584E+04  5.77629E+03 -8.61168E+03  7.50792E+03 -1.68646E+03  7.26594E+02  4.75822E+03
 -6.07865E+03  1.14019E+03 -3.28720E+03 -3.66991E+03  1.45274E+03 -8.27841E+03  8.21493E+03 -7.62139E+03
  9.75100E+03 -2.61785E+03  1.03587E+04  2.30718E+03  8.78352E+03  8.81614E+03  4.56262E+03  1.11789E+04
 -3.93316E+02  1.32112E+04 -8.07700E+03  7.64865E+03 -9.23887E+03  2.21611E+03 -7.37943E+03 -1.58383E+03
 -4.59522E+03 -2.30944E+03  4.71365E+02  2.20327E+03 -2.12708E+03  1.54876E+03 -2.63695E+03  3.71653E+03
 -6.76053E+03  5.39797E+01 -7.69292E+03 -6.71849E+03 -2.74597E+03 -1.04758E+04  2.47285E+03 -7.77477E+03
  6.37323E+03 -3.85978E+03  6.08466E+03  1.86595E+03 -3.66881E+02  3.15285E+03 -2.84367E+03  1.60228E+02
 -2.28934E+03 -4.76881E+03 -2.89535E+02 -6.17815E+03  3.46608E+03 -6.28776E+03  8.36065E+03 -3.34144E+03
  1.05965E+04 -3.60042E+01  7.78341E+03  4.71253E+03  1.16684E+03  6.06485E+03 -5.94917E+03  7.61181E+03
 -5.97646E+03  2.60312E+03 -2.83484E+03 -8.74856E+02  1.10256E+03 -6.72053E+02  3.56541E+03 -1.40597E+03
  3.38886E+03  3.26814E+03 -4.24367E+02  5.28680E+03 -4.16995E+03  6.07702E+03 -6.43636E+03  1.52879E+03
 -4.20131E+03 -2.41167E+03  5.94540E+02 -4.81147E+03  2.74339E+03 -1.99491E+03  3.11733E+03  4.26630E+02
 -2.24733E+02  2.55190E+03 -3.29579E+03  3.63429E+03 -4.51273E+03  2.38314E+03 -3.06534E+03  3.43243E+01
 -2.36535E+03 -5.65779E+03  1.12454E+03 -6.42695E+03  4.93506E+03 -3.41786E+03  5.12149E+03  8.56281E+02
  3.73950E+03  4.23736E+03  2.82023E+02  7.19877E+03 -3.95640E+03  4.21002E+03 -3.43624E+03 -8.18900E+02
 -5.48314E+03 -4.58100E+03 -1.98917E+03 -4.33742E+03  2.51433E+03 -3.83662E+03  2.10406E+03 -2.49356E+03
  1.88255E+03 -5.98809E+02  1.02100E+03  1.06070E+03  5.21567E+02  2.93228E+02 -1.90295E+02 -6.24744E+02
  3.95906E+03 -4.95407E+02  4.51932E+03  3.13963E+02  3.83581E+03  1.81329E+03  4.75938E+03  5.63442E+03
 -2.56694E+02  5.56741E+03 -6.33400E+03  5.45170E+03 -8.09731E+03  1.75736E+03 -6.36769E+03 -1.41122E+03
 -4.53259E+03 -5.93568E+03 -7.51526E+02 -4.32195E+03  1.99423E+03 -1.31324E+03  1.27578E+03 -1.56549E+03
  1.05243E+03 -1.06220E+03  2.08433E+03 -1.77936E+03  4.03730E+03 -1.35485E+03  2.12851E+03  7.85994E+02
  4.76140E+03  1.99609E+03  1.85073E+03  3.06236E+03 -1.11245E+03  2.55717E+03 -3.62639E+03  1.99430E+03
 -3.49950E+03 -2.00802E+03 -1.17906E+03 -2.06999E+03  9.20780E+01 -4.02778E+03  2.86319E+03 -4.33545E+03
  4.90071E+03 -2.04871E+03  6.05553E+03 -5.81332E+02  3.55253E+03  3.04951E+03 -1.71598E+02  4.91670E+03
 -1.94342E+03  5.58993E+03 -3.42974E+03  2.52744E+03 -1.08305E+03 -5.34318E+02 -1.54969E+03  4.58766E+02
  2.21437E+02  1.64992E+01 -1.13022E+03  2.11749E+03 -1.12195E+03  1.09624E+03 -3.51438E+03 -5.19300E+01
 -5.40762E+02 -2.83641E+03  4.66926E+02 -4.80363E+03  1.60060E+03 -3.86866E+03  2.81602E+03 -6.25814E+02
  3.25663E+03  2.10794E+03  1.50376E+03  3.53666E+03 -4.16208E+02  2.48276E+03 -2.04173E+03  1.49670E+03
 -2.68006E+03  7.72433E+02 -3.89728E+03 -2.39818E+03  5.07968E+02 -1.65621E+03  1.46383E+03 -1.40798E+03
  2.72081E+03  4.62536E+02  1.74589E+03  5.66657E+02  6.61594E+02  2.03910E+03  6.65610E+02 -1.75214E+02
  1.15197E+03  6.77269E+02  5.90124E+02  1.36131E+03  1.11515E+03  1.09258E+03  1.46178E+03  1.33028E+03
 -1.60947E+03  2.63555E+03 -1.55999E+03  3.62947E+03 -2.68675E+03  7.41799E+02 -4.36304E+03  4.47297E+01
  2.95832E+02 -2.75846E+03  2.79629E+00 -3.31931E+03  6.83787E+02 -2.27252E+03  1.45562E+03 -2.10638E+03
  3.27999E+03  1.36835E+03  4.21339E+02  2.33397E+03 -1.27200E+03  6.36986E+02 -1.12344E+03  3.63748E+02
 -7.56474E+02 -1.36347E+03  1.32887E+03 -1.06180E+03  2.21603E+03 -7.60973E+02  1.31625E+03  8.51954E+02
  1.58987E+03  7.39929E+02  3.88090E+02 -6.04081E+02 -2.04746E+02  9.23730E+02  7.38486E+02 -8.03692E+02
 -7.77487E+02  2.69653E+02  2.30158E+03 -2.75118E+02 -7.66713E+02  1.66901E+03  3.25413E+02  2.30460E+03
 -1.23867E+03  6.41399E+02 -6.95557E+02  9.09006E+02 -1.45481E+03 -8.87269E+02 -1.60556E+02 -1.01459E+03
 -8.40876E+01 -6.77369E+01  6.27393E+01 -1.40848E+01  6.79217E+01  5.10278E+02 -1.04483E+03 -4.45792E+02
 -1.74087E+03  2.54294E+02 -1.10976E+03 -5.09229E+02  8.69835E+02 -1.72197E+03  1.34813E+02 -8.12255E+02
  5.80692E+02 -1.25190E+02  5.18455E+02 -4.85637E+01  1.54274E+03 -3.41440E+02 -5.21962E+02  3.84133E+02
 -6.17085E+02  1.09963E+03 -9.85923E+02 -2.73151E+02  7.66336E+02 -1.19084E+03  2.90671E+02 -6.52455E+02
  1.33370E+03  1.06476E+03  2.35218E+03  1.01655E+02  7.07461E+02  1.44417E+03  4.89307E+02  1.43849E+03
 -8.47917E+02  4.80083E+02 -1.65268E+03  1.09185E+02 -1.26333E+03 -6.58387E+02  4.35968E+02 -1.20381E+03
  7.24352E+02 -1.72966E+02  1.49874E+03 -7.86746E+01  6.21380E+02  1.13256E+03  1.95562E+02  1.07861E+03
 -3.29958E+02  2.00276E+03  2.58784E+02  6.25740E+02  3.81052E+02  5.42843E+02 -7.29359E+02  9.24196E+01
 -1.47660E+02  6.92004E+02 -1.69285E+03  1.09906E+03 -6.80884E+02 -2.40098E+02 -2.13153E+03 -9.90464E+02
 -7.56188E+01 -1.78675E+03 -1.01899E+02 -2.47451E+03  7.09255E+02 -2.51188E+03  2.11968E+03 -1.41261E+03
  2.26126E+03  1.55533E+02  1.01262E+03  1.20498E+03 -6.91592E+02  1.60428E+03 -1.20583E+02  4.95747E+02
 -6.19569E+02  5.80631E+02  5.36375E+02  5.23749E+02 -1.09593E+02  2.48269E+02  1.30163E+02  3.44391E+02
 -1.34366E+03  2.81730E+02 -5.84055E+02  1.11439E+03 -4.00122E+01 -1.17198E+03 -6.60586E+02 -9.27749E+02
  8.39567E+02 -2.15924E+01  3.23991E+02  2.62558E+02  8.80153E+02  1.01712E+03  2.38983E+01  1.29080E+03
 -1.53541E+03  1.54842E+03 -1.51775E+03  5.17635E+01 -4.26333E+02  1.14353E+02 -5.74243E+02 -7.67093E+02
 -1.60580E+03  4.36287E+01  1.34497E+02 -9.13659E+02  3.77627E+02 -7.46406E+02 -2.11010E+02 -1.61737E+01
  1.13518E+03  1.38776E+02  4.06847E+01  3.57435E+02  5.22171E+02  9.96624E+02  2.88001E+02  1.52920E+02
  2.80289E+02  7.83553E+02  9.05607E+02 -1.23985E+02 -1.10341E+03  1.18010E+03  9.78705E+00 -4.87968E+02
  1.36729E+02  3.62695E+02 -2.50934E+02  3.12719E+02 -1.69992E+03 -5.62419E+02 -6.27799E+02 -1.58624E+03
  1.04134E+03 -2.53227E+02 -6.57089E+01  1.71993E+02  1.30466E+03 -3.36052E+02  5.78245E+02  5.00230E+02
  6.23756E+02  3.66368E+02  6.14468E+02 -1.40952E+02  2.39216E+02  8.69194E+02  4.51074E+02  7.21784E+02
  4.16011E+02 -1.10094E+03 -7.45208E+02  6.18681E+01 -2.07629E+02 -1.87304E+03  3.78492E+02 -3.03473E+02
 -3.79038E+02  2.82117E+02  2.52027E+02 -2.53598E+02  6.10735E+02 -1.85287E+02 -3.29296E+02 -8.21357E+01
  6.34351E+02  1.74590E+03 -4.16062E+02  7.70611E+01 -1.77385E+02 -1.51029E+02 -1.42023E+02 -2.33426E+02
