 $NMID ID='MM_0lb_SNR200_14hz_g55_73.RAW', FMTDAT='(8E13.5)'
 TRAMP=1., VOLUME=1. $END
  3.09195E+05  6.16530E+02  3.36630E+05  2.50684E+05  8.54073E+04  3.38380E+05 -1.32373E+05  2.51349E+05
 -1.91486E+05  8.29936E+04 -1.10663E+05 -3.25783E+04  3.72410E+02 -5.01325E+04  5.33882E+04 -5.85205E+02
  3.55341E+04  5.38539E+04 -1.71396E+04  7.53016E+04 -6.16233E+04  6.39466E+04 -8.40384E+04  3.17760E+04
 -8.08558E+04 -1.10001E+04 -5.56878E+04 -5.10437E+04 -1.57404E+04 -6.91348E+04  2.67408E+04 -4.66082E+04
  4.10398E+04  2.80205E+03  1.65452E+04  4.82806E+04 -3.39974E+04  4.74200E+04 -6.72236E+04  7.04903E+02
 -5.35514E+04 -5.66398E+04 -6.66883E+03 -7.62598E+04  3.46541E+04 -5.53320E+04  4.91490E+04 -1.81663E+04
  4.31531E+04  1.13752E+04  3.23420E+04  2.57397E+04  1.65878E+04  2.90839E+04 -4.17782E+03  2.69701E+04
 -2.25701E+04  1.21604E+04 -1.80495E+04 -5.40865E+03  5.67896E+03 -6.85831E+03  2.26712E+04  1.23820E+04
  7.54138E+03  3.67858E+04 -3.22608E+04  3.55514E+04 -6.30418E+04  1.50702E+03 -5.73983E+04 -4.35843E+04
 -1.31594E+04 -6.34654E+04  4.01312E+04 -4.51515E+04  5.93254E+04 -2.98733E+03  3.44662E+04  3.27781E+04
 -7.64503E+03  3.65324E+04 -2.97110E+04  1.79293E+04 -3.11470E+04 -5.31582E+03 -1.77598E+04 -1.19351E+04
 -7.34705E+03 -1.27633E+04 -4.86383E+02 -1.81821E+04  8.20159E+03 -2.25713E+04  1.66440E+04 -1.19518E+04
  1.13701E+04  4.72687E+03 -9.90195E+03  1.30658E+04 -2.24265E+04 -6.04638E+03 -8.44904E+03 -3.45804E+04
  2.32186E+04 -4.38497E+04  4.93758E+04 -1.95290E+04  4.66115E+04  1.99142E+04  1.57742E+04  4.48835E+04
 -1.65087E+04  3.29521E+04 -2.56100E+04  1.83680E+03 -1.08432E+04 -2.82044E+04  2.09454E+04 -3.48332E+04
  4.09764E+04 -1.04958E+04  3.72416E+04  2.28758E+04  1.89428E+04  4.83366E+04 -8.73947E+03  5.18920E+04
 -3.28427E+04  3.45652E+04 -4.32898E+04  1.11258E+04 -4.35598E+04 -1.62715E+04 -2.34234E+04 -3.87088E+04
  8.61216E+03 -3.68891E+04  3.27654E+04 -1.43654E+04  2.90646E+04  1.13392E+04  4.83023E+03  1.90011E+04
 -1.38062E+04  8.33876E+03 -1.00953E+04 -8.76282E+03  5.39963E+03 -1.10516E+04  1.88097E+04  6.32895E+03
  1.38029E+04  2.30388E+04 -6.57778E+03  2.46793E+04 -2.35412E+04  1.18848E+04 -2.81113E+04 -3.76913E+03
 -2.04345E+04 -1.88000E+04 -7.70598E+03 -2.00376E+04  4.89967E+03 -2.03836E+04  1.59871E+04 -1.93774E+04
  2.70068E+04 -1.35024E+04  3.37422E+04  4.02202E+03  2.39108E+04  1.98099E+04  4.48849E+03  3.69350E+04
 -1.74770E+04  2.99997E+04 -3.06119E+04  1.04925E+04 -2.13800E+04 -1.04432E+04 -4.99795E+03 -1.34632E+04
  1.24105E+03 -2.53531E+03 -6.17234E+03  6.65320E+03 -1.66899E+04  5.21225E+03 -1.70820E+04 -7.36151E+03
 -1.00555E+04 -2.03562E+04  5.28977E+03 -2.58050E+04  1.57622E+04 -1.73874E+04  1.78657E+04 -7.12786E+02
  1.22433E+04  1.40744E+04 -1.16456E+03  2.01917E+04 -1.31277E+04  1.20665E+04 -1.98353E+04 -4.87452E+03
 -1.48807E+04 -1.71551E+04 -1.56458E+03 -2.46725E+04  1.05436E+04 -2.03772E+04  2.02342E+04 -9.68662E+03
  1.89721E+04  3.81368E+02  1.28976E+04  5.25876E+03  7.33751E+03  1.59094E+02  9.74437E+03 -2.38103E+03
  1.97616E+04  1.68368E+03  1.98246E+04  1.59185E+04  1.33632E+04  3.20499E+04 -3.81951E+03  3.52652E+04
 -2.04395E+04  2.74128E+04 -3.23629E+04  1.41151E+04 -3.28994E+04 -3.20904E+03 -2.80151E+04 -1.98908E+04
 -1.20406E+04 -2.94846E+04  9.97139E+03 -2.53182E+04  2.20514E+04 -1.33176E+04  1.91754E+04  6.03984E+03
  6.97208E+03  1.55330E+04 -9.79070E+03  1.36106E+04 -1.49010E+04  2.67603E+03 -1.31840E+04 -1.07301E+04
 -6.42047E+02 -1.66737E+04  9.79534E+03 -1.18681E+04  1.04746E+04 -1.00008E+03  3.64517E+03  7.56396E+03
 -6.63762E+03  3.26901E+03 -7.81151E+03 -5.09836E+03 -2.71284E+02 -1.42637E+04  1.00942E+04 -1.52358E+04
  1.71947E+04 -7.06746E+03  1.93071E+04  2.70611E+03  1.48476E+04  1.41409E+04  7.69902E+03  2.13741E+04
 -2.97662E+03  2.26781E+04 -1.41368E+04  1.44264E+04 -1.59486E+04  2.98142E+03 -1.16203E+04 -3.04988E+03
 -4.39605E+03 -4.94740E+03 -1.14217E+03  6.74005E+02 -2.60089E+03  1.40528E+03 -5.33898E+03  3.71203E+03
 -1.17103E+04 -8.05039E+02 -1.14017E+04 -9.00248E+03 -6.55029E+03 -1.58971E+04  5.38331E+03 -1.19142E+04
  9.03954E+03 -5.37838E+03  5.87025E+03  2.13185E+03  1.36024E+02  4.95488E+03 -5.85000E+03  1.89899E+02
 -6.04850E+03 -7.51778E+03 -4.08349E+02 -9.64433E+03  6.05612E+03 -1.11130E+04  1.54445E+04 -6.38436E+03
  1.68922E+04  1.19119E+03  1.29480E+04  1.08551E+04  2.46691E+03  1.36224E+04 -6.31146E+03  9.95499E+03
 -8.94553E+03  3.56997E+03 -4.04130E+03 -2.59359E+03  2.49863E+03 -2.47002E+03  6.39631E+03 -1.75580E+03
  4.43793E+03  5.36081E+03  8.79900E+01  8.86419E+03 -6.51425E+03  9.74107E+03 -1.08205E+04  1.28765E+03
 -8.17925E+03 -6.54638E+03 -1.59010E+02 -9.23741E+03  6.59183E+03 -4.52608E+03  5.90762E+03  1.57812E+03
  5.73796E+02  6.33762E+03 -5.51188E+03  7.86686E+03 -9.21482E+03  3.69322E+03 -8.33331E+03 -2.51249E+03
 -5.00981E+03 -1.16809E+04  2.08008E+03 -1.31754E+04  9.51757E+03 -8.02463E+03  1.19557E+04  6.87709E+02
  6.37954E+03  9.70516E+03 -1.15392E+03  1.06190E+04 -8.48622E+03  6.31550E+03 -8.69164E+03 -1.55560E+03
 -8.34807E+03 -8.02142E+03 -2.17987E+03 -7.31707E+03  5.27549E+03 -7.26595E+03  4.08469E+03 -2.20566E+03
  3.39006E+03  1.10939E+03 -8.25777E+02  9.92227E+02 -2.14398E+02 -2.95627E+03  1.44878E+03 -4.30077E+03
  5.80508E+03 -2.44817E+03  9.75134E+03  5.52019E+02  8.17824E+03  7.27334E+03  6.91701E+03  1.32804E+04
 -2.67438E+03  1.46599E+04 -1.27018E+04  1.06347E+04 -1.71357E+04  1.78576E+03 -1.28384E+04 -5.86334E+03
 -5.22769E+03 -9.92662E+03 -3.17508E+02 -9.27869E+03  4.76097E+03 -4.19188E+03  4.03857E+03 -2.91191E+03
  2.63965E+03 -3.71095E+03  2.39453E+03 -4.87813E+03  4.20814E+03 -3.18710E+03  6.55105E+03 -6.25127E+02
  7.38502E+03  1.63340E+03  2.94939E+03  4.78817E+03 -1.13190E+03  6.25571E+03 -6.16238E+03  4.88648E+03
 -8.77427E+03 -5.52757E+02 -4.79263E+03 -5.49896E+03 -4.73885E+01 -9.89191E+03  4.97236E+03 -7.83977E+03
  1.08549E+04 -5.60862E+03  1.20371E+04  1.53575E+03  7.32641E+03  7.75981E+03  1.13729E+03  1.07411E+04
 -4.45733E+03  8.67580E+03 -4.96130E+03  2.74307E+03 -4.34140E+03 -1.60034E+03 -3.37350E+02 -5.14003E+02
 -1.96783E+03  4.41132E+02 -1.74979E+03  2.67176E+03 -2.78504E+03  3.86878E+02 -7.10506E+03 -3.75175E+02
 -3.46526E+03 -5.83733E+03  1.32039E+03 -8.20698E+03  5.09862E+03 -8.16241E+03  8.13651E+03 -2.30650E+03
  7.79172E+03  4.12143E+03  3.55691E+03  6.24780E+03 -1.10163E+03  8.10228E+03 -5.68026E+03  6.20528E+03
 -6.64421E+03 -3.55066E+02 -7.02892E+03 -5.31343E+03 -1.92608E+02 -6.38692E+03  3.64757E+03 -6.15015E+03
  4.99095E+03 -1.42263E+03  4.33798E+03  2.12053E+03  8.04182E+02  2.10250E+03  1.67706E+03  9.31012E+02
  2.25183E+03  8.79505E+02  1.16983E+03  2.31395E+03  2.63354E+03  2.84070E+03  1.35775E+03  3.61429E+03
 -1.26121E+03  5.65604E+03 -5.05487E+03  5.00143E+03 -7.33738E+03  2.07370E+03 -8.63202E+03 -1.63646E+03
 -3.46147E+03 -7.50012E+03  2.36998E+03 -8.90136E+03  4.68558E+03 -5.76522E+03  6.77371E+03 -1.71433E+03
  5.36642E+03  3.83230E+03  1.61068E+02  4.71925E+03 -2.27290E+03  3.37398E+03 -3.11039E+03 -3.86391E+02
 -2.25703E+03 -3.59391E+03  3.29132E+03 -4.25472E+03  2.42683E+03 -3.08523E+03  3.37920E+03 -2.25776E+02
  1.16185E+03  7.28378E+02  4.44911E+02  1.51232E+03 -1.38910E+03  5.36331E+02  3.64589E+02 -6.99423E+02
  5.87140E+02 -4.91383E+02  2.74153E+03  5.88301E+02  9.79240E+02  4.07175E+03  1.02610E+03  4.66887E+03
 -4.94920E+03  2.97159E+03 -4.70328E+03  1.30834E+03 -3.44712E+03 -8.52499E+02 -1.10455E+03 -2.86432E+03
 -3.73063E+02 -2.42761E+03  1.48352E+03 -1.74304E+03  1.56023E+03  1.94942E+03 -7.35078E+02  2.01469E+03
 -3.15294E+03  1.76591E+03 -3.38241E+03 -2.27897E+03 -1.34558E+03 -5.05861E+03  2.24547E+02 -5.29565E+03
  3.34077E+03 -2.38860E+03  2.05944E+03  5.28966E+00  2.33053E+03 -8.71372E+02 -4.37220E+02  2.30449E+03
 -1.19964E+03  1.84364E+03 -1.34048E+03 -2.17197E+03  8.91517E+01 -1.39904E+03  4.72044E+03 -2.29319E+03
  3.63320E+03 -4.71824E+02  5.26133E+03  3.51339E+03  1.64246E+03  4.65988E+03 -1.32989E+03  3.84074E+03
 -4.15447E+03  2.57427E+03 -3.92616E+03 -1.09136E+03 -1.24204E+03 -3.47800E+03  1.39895E+03 -3.11102E+03
  3.03857E+03 -1.72780E+03  2.07230E+03  1.92636E+03 -8.01715E+02  3.29152E+03  7.89268E+02  1.81605E+03
 -1.28901E+03  1.68631E+03 -5.00244E+02  1.68060E+02 -6.98247E+02  5.91492E+02 -1.92173E+03  1.26167E+03
 -2.03780E+03  8.29302E+02 -3.48159E+03  5.83027E+02 -4.20289E+03 -7.76278E+02 -5.23967E+03 -2.61536E+03
 -1.67937E+03 -5.50756E+03  2.16455E+03 -6.57569E+03  2.82236E+03 -5.80466E+03  7.22609E+03 -1.73095E+03
  5.43850E+03  4.73842E+02  3.69631E+03  3.37520E+03 -1.71328E+01  4.70505E+03 -1.98948E+03  4.06349E+03
 -2.80211E+03  8.11221E+02 -1.12201E+03 -9.03868E+02  1.73314E+02 -9.62963E+02 -1.24037E+03  1.40038E+03
 -1.19002E+03  5.32978E+00 -1.78506E+03  4.01241E+02 -1.74000E+03 -2.72181E+02 -3.28778E+02 -8.73219E+02
  9.99590E+02 -2.11887E+03  2.76877E+02  1.23229E+03  1.70359E+03  1.51532E+03 -6.29007E+02  4.54903E+03
 -2.58487E+03  4.11112E+03 -3.43534E+03  3.72806E+03 -5.84009E+03 -3.35185E+02 -3.91985E+03 -4.25372E+03
 -1.52317E+03 -3.89076E+03  1.75266E+03 -3.71440E+03  2.25934E+03 -2.99878E+03  2.59626E+03  1.84729E+02
  1.91336E+03  1.07024E+03 -6.50365E+02  2.17535E+03 -1.27197E+03 -1.23315E+03  2.37831E+02 -1.14507E+03
  7.61368E+02 -2.10775E+02  1.63625E+03  1.61837E+03 -4.92349E+02  1.53639E+03  5.75313E+02  5.10068E+02
 -1.46642E+03  1.62612E+02 -1.79559E+03 -1.53471E+03 -1.86395E+03 -3.00424E+03 -8.09533E+02 -2.65407E+03
  1.50211E+03 -2.87118E+03  2.10304E+03 -9.36951E+02  2.63239E+03 -2.57596E+02  2.23634E+03  1.44286E+03
 -2.13093E+02  1.95144E+03 -8.02346E+02  1.83510E+03 -1.19744E+03  1.56364E+03 -9.61795E+02 -1.82357E+02
 -1.35529E+02  5.35553E+02  7.26546E+00  1.40858E+02 -9.91721E+02  7.16364E+02 -2.13180E+03  2.48626E+01
 -1.62296E+03 -8.12947E+02 -9.91132E+02 -2.86049E+03 -5.11630E-01 -2.79749E+03  2.29486E+03 -1.17718E+03
  2.58190E+03  1.51779E+01  1.29802E+03  1.52172E+03 -4.97456E+01  2.40375E+03 -2.12361E+03  9.16177E+02
