 $NMID ID='MM_0lb_SNR200_20hz_g60_52.RAW', FMTDAT='(8E13.5)'
 TRAMP=1., VOLUME=1. $END
  3.09449E+05  1.31171E+03  3.37230E+05  2.50128E+05  8.54749E+04  3.37038E+05 -1.32795E+05  2.50263E+05
 -1.89902E+05  8.19933E+04 -1.11574E+05 -3.25699E+04  1.31276E+01 -5.05094E+04  5.33878E+04 -1.40113E+03
  3.51600E+04  5.47340E+04 -1.81374E+04  7.55243E+04 -5.92890E+04  6.33702E+04 -8.27834E+04  3.21157E+04
 -7.97030E+04 -1.18377E+04 -5.76634E+04 -5.03418E+04 -1.45276E+04 -6.82590E+04  2.69205E+04 -4.46034E+04
  3.88506E+04  3.99604E+03  1.63931E+04  4.71773E+04 -3.44758E+04  4.67093E+04 -6.64081E+04 -8.46880E+02
 -5.32031E+04 -5.69761E+04 -6.75418E+03 -7.59577E+04  3.32773E+04 -5.33195E+04  4.55386E+04 -1.62076E+04
  4.26761E+04  1.12090E+04  3.06399E+04  2.46730E+04  1.56163E+04  2.82884E+04 -5.48829E+03  2.63090E+04
 -2.20144E+04  1.28003E+04 -1.95692E+04 -4.08576E+03  4.58281E+03 -6.75214E+03  2.23681E+04  1.10534E+04
  6.91608E+03  3.27764E+04 -3.08599E+04  3.43428E+04 -6.25068E+04  2.05549E+03 -5.55264E+04 -4.18380E+04
 -1.13503E+04 -6.12101E+04  3.89907E+04 -4.37591E+04  5.65837E+04 -1.95131E+03  3.34234E+04  3.01455E+04
 -5.77587E+03  3.30430E+04 -2.84334E+04  1.31307E+04 -2.79769E+04 -5.75719E+03 -1.55805E+04 -1.07245E+04
 -8.60089E+03 -1.18537E+04 -6.02084E+02 -1.71398E+04  6.98908E+03 -2.16572E+04  1.48046E+04 -1.41072E+04
  1.13186E+04  3.97734E+03 -6.98609E+03  1.20691E+04 -2.06368E+04 -3.73558E+03 -8.33187E+03 -3.08594E+04
  2.17769E+04 -4.12404E+04  4.51149E+04 -1.76969E+04  4.23262E+04  1.74364E+04  1.50145E+04  4.09922E+04
 -1.58579E+04  3.22781E+04 -2.49882E+04  1.38045E+03 -8.06149E+03 -2.66488E+04  2.08630E+04 -3.11104E+04
  3.74657E+04 -8.14581E+03  3.19672E+04  2.39122E+04  1.66964E+04  4.35111E+04 -7.83434E+03  4.72150E+04
 -2.89029E+04  3.08193E+04 -3.78947E+04  8.24098E+03 -3.87968E+04 -1.50331E+04 -2.12418E+04 -3.58272E+04
  6.55515E+03 -3.52685E+04  2.93418E+04 -1.37414E+04  2.71609E+04  1.18789E+04  3.13769E+03  1.83118E+04
 -1.33599E+04  8.76044E+03 -9.43922E+03 -6.60377E+03  5.85898E+03 -1.04484E+04  1.67783E+04  6.52934E+03
  1.29771E+04  2.14468E+04 -7.09162E+03  2.31332E+04 -2.14815E+04  9.88300E+03 -2.56656E+04 -5.94404E+03
 -1.77783E+04 -1.59565E+04 -4.96241E+03 -1.77312E+04  3.46273E+03 -1.51654E+04  1.36763E+04 -1.45841E+04
  2.17207E+04 -1.25076E+04  2.89394E+04  2.22601E+03  2.06736E+04  1.72111E+04  4.48694E+03  3.24580E+04
 -1.65895E+04  2.74195E+04 -2.57367E+04  9.62144E+03 -2.02946E+04 -1.03369E+04 -2.94796E+03 -1.28428E+04
  2.76915E+03 -2.93032E+03 -2.41590E+03  5.82237E+03 -1.30967E+04  5.21708E+03 -1.49929E+04 -5.67984E+03
 -9.73197E+03 -1.60121E+04  5.08523E+03 -2.08719E+04  1.24858E+04 -1.43271E+04  1.48524E+04 -2.02334E+03
  8.55741E+03  1.10848E+04 -7.72567E+02  1.59412E+04 -1.15860E+04  9.95318E+03 -1.71110E+04 -2.85110E+03
 -1.20304E+04 -1.34877E+04 -2.19134E+03 -1.94031E+04  7.98925E+03 -1.48718E+04  1.68542E+04 -7.41650E+03
  1.42452E+04  9.61530E+02  1.07503E+04  3.49176E+03  5.62895E+03  1.36921E+03  8.21433E+03 -1.42648E+03
  1.47011E+04  3.35389E+03  1.48614E+04  1.26035E+04  8.83999E+03  2.39843E+04 -3.61895E+03  2.70943E+04
 -1.60597E+04  2.11356E+04 -2.46205E+04  9.73337E+03 -2.44049E+04 -2.03724E+03 -2.15475E+04 -1.46355E+04
 -9.90195E+03 -2.11507E+04  7.43925E+03 -1.96975E+04  1.65355E+04 -1.08628E+04  1.44958E+04  3.07482E+03
  7.23036E+03  1.11054E+04 -7.10444E+03  1.07372E+04 -1.36546E+04  3.19829E+03 -1.04294E+04 -8.48737E+03
 -2.17000E+02 -1.26008E+04  6.31899E+03 -1.01654E+04  6.66491E+03 -1.96023E+03  1.14646E+03  4.91822E+03
 -5.39927E+03  1.39365E+03 -3.54641E+03 -5.11941E+03  6.95839E+02 -9.73544E+03  8.37837E+03 -1.09664E+04
  1.29639E+04 -4.56279E+03  1.17934E+04  2.14551E+03  1.09378E+04  9.85031E+03  5.69025E+03  1.39698E+04
 -1.09736E+03  1.47827E+04 -8.91874E+03  1.00152E+04 -1.09931E+04  3.28862E+03 -7.80561E+03 -2.04902E+03
 -5.63102E+03 -3.67728E+03 -1.46437E+03  1.73141E+03 -6.86613E+02  1.01898E+03 -2.86187E+03  3.46223E+03
 -8.84930E+03 -4.67086E+02 -8.84140E+03 -6.90896E+03 -3.73904E+03 -1.17779E+04  3.98643E+03 -8.10724E+03
  9.04876E+03 -3.63902E+03  5.53165E+03  1.44837E+03  9.76683E+01  3.75513E+03 -2.94132E+03  2.04072E+02
 -2.98192E+03 -4.38814E+03 -8.90711E+02 -7.15605E+03  2.85610E+03 -8.44868E+03  1.01992E+04 -3.69093E+03
  1.14836E+04 -1.02878E+02  1.00091E+04  6.40036E+03  1.99809E+03  8.43111E+03 -5.56614E+03  8.77309E+03
 -7.28837E+03  3.28040E+03 -3.79355E+03 -1.53011E+03  3.87177E+02 -2.65946E+03  3.97352E+03 -1.67358E+03
  5.23231E+03  2.98242E+03  6.80500E+02  5.80671E+03 -4.71666E+03  6.14761E+03 -8.63755E+03  2.42774E+03
 -4.95223E+03 -3.33634E+03 -1.85595E+01 -6.70854E+03  3.31844E+03 -2.49804E+03  3.03892E+03  1.97113E+03
 -3.58227E+02  3.28224E+03 -3.41524E+03  4.35393E+03 -4.67639E+03  2.74097E+03 -4.65761E+03 -3.87158E+02
 -2.00829E+03 -5.61625E+03  1.15204E+03 -7.19620E+03  6.20528E+03 -4.19868E+03  5.52490E+03  2.90733E+02
  4.08485E+03  4.56741E+03  5.98721E+02  6.41213E+03 -3.86713E+03  3.28299E+03 -4.49861E+03  9.26134E+02
 -4.37065E+03 -4.69105E+03 -1.76856E+03 -4.46048E+03  2.82295E+03 -3.79374E+03  2.30434E+03 -2.42844E+03
  2.66442E+03  4.76572E+02 -6.02461E+02  1.54563E+03  8.55105E+02  9.18759E+01  2.50349E+02 -2.13088E+03
  3.20968E+03 -3.92220E+02  4.90848E+03  5.56055E+02  4.79499E+03  2.07910E+03  5.08403E+03  5.98407E+03
 -1.22121E+03  7.25731E+03 -6.53790E+03  6.06888E+03 -9.88466E+03  1.55565E+03 -6.70626E+03 -2.46246E+03
 -3.01701E+03 -5.27992E+03 -2.09290E+02 -4.66255E+03  2.16408E+03 -1.14971E+03  1.20841E+03 -2.05125E+03
  1.96902E+03 -7.95045E+02  2.38836E+03 -2.54099E+03  4.25201E+03 -1.20110E+03  3.79524E+03  5.20186E+01
  4.47457E+03  2.00208E+03 -5.87415E+02  3.01964E+03 -2.08054E+02  2.44336E+03 -4.13594E+03  2.05568E+03
 -4.76944E+03 -8.69585E+02 -2.41030E+03 -2.72542E+03  6.41750E+02 -4.95332E+03  2.58099E+03 -4.56493E+03
  4.10673E+03 -2.72564E+03  5.73429E+03  1.00442E+02  4.35499E+03  4.38253E+03  8.63754E+02  5.17337E+03
 -2.73018E+03  4.87251E+03 -2.51988E+03  1.83014E+03 -1.11614E+03 -8.97508E+02 -4.31623E+02 -5.36331E+02
 -7.54445E+02  7.03423E+02 -9.97403E+02  2.32638E+03 -1.62370E+03  3.77786E+02 -3.59508E+03  1.00083E+02
 -2.73414E+01 -3.75190E+03  5.82498E+01 -4.01576E+03  2.93838E+03 -3.18624E+03  3.41416E+03 -1.00364E+03
  4.65948E+03  2.33026E+03  2.34007E+03  2.37664E+03 -8.78706E+02  4.46103E+03 -6.64959E+02  1.68181E+03
 -2.94880E+03  7.41690E+02 -2.63025E+03 -1.86194E+03 -6.58397E+02 -2.87303E+03  1.63224E+03 -1.86216E+03
  3.12801E+03 -9.10811E+02  1.01596E+03  1.11159E+03  1.10589E+03  1.52771E+03  9.41970E+02  1.04301E+02
  2.50187E+03 -5.85866E+02  1.06505E+03  2.57770E+03  8.53877E+02  2.45484E+03  3.88939E+02  4.69016E+02
 -3.97146E+02  2.68270E+03 -1.73477E+03  3.79726E+03 -1.95528E+03  1.53405E+03 -2.36492E+03  4.58643E+02
 -1.41407E+03 -3.54099E+03  7.71568E+02 -3.06399E+03  2.44675E+03 -2.55746E+03  3.41568E+03 -9.31366E+02
  2.43397E+03  7.75875E+02  2.35215E+01  1.96737E+03 -1.57183E+02 -2.53086E+02 -5.78291E+02 -6.29632E+02
 -8.11651E+02 -1.85686E+03  2.16091E+03 -6.56968E+02  5.60484E+01 -5.67607E+02  2.45073E+02 -1.40396E+02
  1.01241E+02 -1.75581E+02  3.78292E+02 -2.42048E+01 -2.67739E+02  2.19290E+02 -1.57956E+02  2.19968E+02
  1.74012E+02  2.14186E+02  9.93976E+02  2.27788E+02 -1.25775E+02  1.89403E+03 -1.56185E+02  2.27217E+03
 -2.08869E+03  6.94092E+02 -1.49841E+03 -4.61949E+02 -1.21682E+03  6.76624E+01 -4.84197E+02  5.79277E+02
  6.44098E+02 -1.56738E+03  1.43700E+03  3.79230E+02  3.33032E+02  1.01060E+03 -1.17051E+03  2.71980E+02
 -6.74287E+02  3.90452E+01 -1.17657E+02 -9.90388E+02 -1.36100E+03 -8.24654E+02 -1.28381E+03 -9.44353E+02
  1.84062E+02 -7.99515E+02  3.62096E+02  5.79739E+02  1.04817E+03  3.93213E+01 -1.54509E+02 -1.26329E+02
 -4.65851E+02 -8.41244E+01 -5.18026E+02  1.34061E+01  1.32849E+03 -1.08964E+03  8.67331E+02 -3.93756E+02
  5.15272E+02  9.90878E+02  3.12629E+03  3.17195E+02  1.44264E+03  9.63954E+02 -8.22882E+02  2.00659E+03
 -1.01280E+03 -3.55598E+02 -9.58597E+02  5.19082E+02  8.11132E+02 -1.22422E+03 -2.32441E+02 -6.37020E+02
  1.23609E+03 -2.29018E+02  9.71698E+02 -2.23046E+02 -5.85087E+02  1.94891E+03 -2.84500E+02  2.48425E+02
 -2.05366E+02  2.03877E+03 -9.76022E+02 -2.41415E+02 -3.17048E+02  1.01864E+03 -7.14054E+02  3.65610E+02
 -1.37188E+03  9.64477E+02 -1.35513E+03  7.82569E+02 -2.15639E+03  3.41949E+02 -1.98215E+03 -3.95331E+02
 -2.48358E+02 -1.66780E+03  1.49237E+03 -1.93509E+03  7.19141E+02 -2.34382E+03  1.92451E+03 -8.53485E+02
  1.42611E+03 -1.97021E+02  1.21729E+03  1.12727E+03  1.30839E+02  1.62724E+02  8.86168E+02 -4.19580E+02
 -8.26962E+02  9.05843E+02  3.27636E+02  4.11748E+02 -1.19470E+02  6.71552E+01 -9.29725E+02 -4.88114E+02
 -1.56578E+03  8.32748E+02 -6.02892E+02 -4.55966E+02  2.62851E+02 -1.71047E+03 -1.04898E+03 -7.77456E+02
  5.42025E+02 -2.30850E+02 -1.71367E+02 -1.78991E+02  1.03073E+03  4.69377E+02 -6.14323E+02  2.84776E+02
 -7.87326E+02  1.93141E+03 -1.46444E+03  1.54252E+03 -1.48894E+03 -4.66403E+02 -1.18885E+03 -8.30478E+02
 -1.73827E+03 -8.73899E+02 -2.29392E+02 -1.23224E+00 -1.98975E+02 -7.77908E+02  2.49856E+02  5.99217E+02
  9.44393E+02 -4.32990E+02 -2.50968E+02  4.48050E+02  2.84468E+02  4.57879E+02 -9.63857E+01 -8.49397E+01
 -3.70703E+02  6.65489E+02 -2.42910E+01 -1.83601E+02  2.78979E+02 -9.23213E+02  1.48419E+03 -1.05583E+03
 -3.33988E+02  1.60843E+02 -2.62825E+02  9.14885E+01 -1.23141E+03 -6.06646E+02  7.67654E+02 -5.13825E+02
 -6.85695E+01 -1.29525E+03  3.45318E+02 -1.62508E+01 -1.81705E+02 -7.24384E+02 -3.64775E+02  4.66128E+02
  9.19802E+01  1.45888E+03  4.34250E+02 -1.73904E+02  9.98943E+02  1.44411E+03 -9.38347E+02  3.28189E+02
  4.04838E+02  8.74199E+02 -3.36228E+02  8.06557E+01 -7.57546E+02 -4.52432E+01 -1.63543E+03  5.66886E+02
 -1.07341E+03  4.33493E+02 -6.81819E+02 -1.05933E+03  5.85407E+02 -1.34759E+03 -3.51348E+02 -4.72479E+02
 -4.72147E+02  1.81705E+02  7.21494E+02  1.61766E+02 -1.61124E+02  1.53531E+02 -3.22106E+02  1.01837E+03
