 $NMID ID='MM_0lb_SNR200_11hz_g55_31.RAW', FMTDAT='(8E13.5)'
 TRAMP=1., VOLUME=1. $END
  3.09024E+05  2.35044E+02  3.36920E+05  2.50192E+05  8.52809E+04  3.38644E+05 -1.34821E+05  2.52500E+05
 -1.92338E+05  8.28363E+04 -1.12269E+05 -3.40114E+04  1.02447E+03 -5.10990E+04  5.27243E+04 -2.22654E+02
  3.48826E+04  5.14809E+04 -1.59648E+04  7.62556E+04 -6.12642E+04  6.55243E+04 -8.51901E+04  3.30462E+04
 -8.27311E+04 -1.26940E+04 -5.84976E+04 -5.29300E+04 -1.45127E+04 -7.19360E+04  2.77440E+04 -4.61680E+04
  3.99330E+04  4.75051E+03  1.63906E+04  4.70647E+04 -3.43607E+04  4.64479E+04 -6.72309E+04  2.94337E+02
 -5.56253E+04 -5.80366E+04 -6.38936E+03 -7.95339E+04  3.39337E+04 -5.66406E+04  4.99644E+04 -1.75402E+04
  4.46048E+04  1.21924E+04  3.21049E+04  2.62831E+04  1.50848E+04  3.07248E+04 -6.09557E+03  2.69965E+04
 -2.25201E+04  1.22574E+04 -1.83896E+04 -6.89601E+03  5.80663E+03 -7.81566E+03  2.54491E+04  1.24826E+04
  7.15981E+03  3.68911E+04 -3.32417E+04  3.81658E+04 -6.47238E+04  2.23056E+03 -5.87025E+04 -4.45685E+04
 -1.13186E+04 -6.48954E+04  4.15566E+04 -4.80113E+04  6.18544E+04 -3.23260E+03  3.43338E+04  3.42760E+04
 -5.71624E+03  3.96071E+04 -3.13464E+04  1.74283E+04 -3.22357E+04 -3.20002E+03 -1.87301E+04 -1.16375E+04
 -8.80909E+03 -1.47504E+04 -1.99803E+02 -1.83925E+04  7.81403E+03 -2.29845E+04  1.66374E+04 -1.26392E+04
  1.13692E+04  5.60154E+03 -9.36077E+03  1.23642E+04 -2.26615E+04 -6.31458E+03 -8.70535E+03 -3.80740E+04
  2.46617E+04 -4.63756E+04  5.04843E+04 -2.11937E+04  4.69697E+04  1.91765E+04  1.73904E+04  4.71813E+04
 -1.64270E+04  3.56127E+04 -2.69314E+04  2.45577E+03 -1.12378E+04 -2.86989E+04  2.09453E+04 -3.62781E+04
  4.38344E+04 -8.38487E+03  3.73810E+04  2.47286E+04  1.95943E+04  4.97381E+04 -7.97455E+03  5.57472E+04
 -3.41987E+04  3.67502E+04 -4.53172E+04  1.12788E+04 -4.52608E+04 -1.78836E+04 -2.55052E+04 -4.07431E+04
  7.77105E+03 -4.08174E+04  3.32633E+04 -1.66219E+04  3.14254E+04  1.17622E+04  4.36248E+03  1.98890E+04
 -1.37957E+04  9.06193E+03 -1.02600E+04 -8.59667E+03  6.48262E+03 -1.23245E+04  1.88967E+04  5.77402E+03
  1.41810E+04  2.15639E+04 -4.97734E+03  2.56574E+04 -2.46317E+04  1.45788E+04 -3.16557E+04 -5.09868E+03
 -2.40742E+04 -1.77585E+04 -1.22141E+04 -2.26484E+04  3.56669E+03 -2.47119E+04  1.74053E+04 -1.98422E+04
  3.00455E+04 -1.27559E+04  3.63151E+04  3.75092E+03  2.59832E+04  2.43134E+04  5.00113E+03  3.95893E+04
 -1.95652E+04  3.12069E+04 -3.04141E+04  1.34947E+04 -2.18812E+04 -9.87019E+03 -3.01561E+03 -1.40046E+04
  1.53386E+03 -3.01379E+03 -6.43430E+03  8.10594E+03 -1.93043E+04  5.63999E+03 -1.83467E+04 -9.91636E+03
 -1.15937E+04 -2.24630E+04  6.70213E+03 -2.60531E+04  1.62492E+04 -1.98046E+04  2.21356E+04 -1.67834E+03
  1.39075E+04  1.62587E+04 -2.40960E+03  2.13677E+04 -1.61386E+04  1.21059E+04 -2.28343E+04 -3.14754E+03
 -1.57199E+04 -2.03510E+04 -6.39319E+02 -2.68520E+04  1.14987E+04 -2.23509E+04  2.13536E+04 -1.06827E+04
  2.18782E+04  4.83039E+02  1.51414E+04  4.56580E+03  7.90029E+03  5.38931E+02  1.15136E+04 -1.52902E+03
  2.14632E+04  2.99580E+03  2.46486E+04  1.80311E+04  1.55708E+04  3.54081E+04 -3.18269E+03  4.14792E+04
 -2.30564E+04  3.29808E+04 -3.85851E+04  1.79676E+04 -4.04089E+04 -2.57640E+03 -3.42006E+04 -2.32521E+04
 -1.45936E+04 -3.40527E+04  1.24973E+04 -3.05062E+04  2.44160E+04 -1.51016E+04  2.20252E+04  6.35790E+03
  8.70390E+03  1.68945E+04 -1.08394E+04  1.49493E+04 -1.82137E+04  3.44268E+03 -1.39847E+04 -1.37099E+04
 -2.47741E+02 -1.72369E+04  1.03948E+04 -1.34034E+04  1.30412E+04 -8.44380E+01  2.76963E+03  7.29246E+03
 -9.49245E+03  3.83828E+03 -8.96496E+03 -6.65143E+03 -1.95009E+03 -1.77010E+04  1.12094E+04 -1.71290E+04
  2.12994E+04 -1.04731E+04  2.44158E+04  3.64342E+03  2.13149E+04  1.68501E+04  9.12442E+03  2.47912E+04
 -3.88199E+03  2.86433E+04 -1.76810E+04  1.79917E+04 -1.96079E+04  4.93559E+03 -1.35705E+04 -4.47651E+03
 -7.69899E+03 -6.57258E+03 -6.32912E+02 -3.51899E+02 -3.20772E+03  2.96379E+03 -6.81541E+03  6.03974E+03
 -1.44220E+04 -1.63812E+03 -1.21545E+04 -1.10423E+04 -4.94284E+03 -2.00531E+04  5.87042E+03 -1.43749E+04
  1.17774E+04 -5.67032E+03  8.82585E+03  4.44462E+03 -1.00270E+03  4.74266E+03 -7.21344E+03  7.44810E+02
 -7.25434E+03 -8.66484E+03  4.11093E+02 -1.40793E+04  8.37439E+03 -1.58230E+04  1.78242E+04 -7.22101E+03
  2.14182E+04  1.89907E+03  1.62119E+04  1.34167E+04  4.39609E+03  1.66280E+04 -1.09349E+04  1.44125E+04
 -1.06238E+04  4.12775E+03 -5.80978E+03 -2.02242E+03  3.12874E+03 -4.76130E+03  8.22665E+03 -1.19554E+03
  6.96576E+03  8.00930E+03  1.26870E+03  1.17817E+04 -7.44790E+03  9.57005E+03 -1.47747E+04  1.92203E+03
 -8.79517E+03 -6.34489E+03  7.76356E+02 -1.13754E+04  8.22425E+03 -7.61064E+03  6.73415E+03  1.96298E+03
  1.14461E+03  7.71217E+03 -6.10575E+03  9.48509E+03 -1.10644E+04  4.36048E+03 -1.23548E+04 -4.02178E+03
 -7.34414E+03 -1.22228E+04  4.81358E+03 -1.50258E+04  1.21483E+04 -9.88362E+03  1.45134E+04  2.50598E+03
  8.79932E+03  1.27588E+04  4.67167E+02  1.35909E+04 -9.08213E+03  7.39242E+03 -1.04523E+04 -2.46361E+02
 -1.06290E+04 -9.09138E+03 -1.24582E+03 -1.07073E+04  5.80404E+03 -8.16507E+03  8.23790E+03 -4.31115E+03
  3.35142E+03  1.79984E+03 -2.03054E+03  1.38425E+03 -6.56770E+02 -1.47258E+03  1.92896E+03 -5.73890E+03
  1.05813E+04 -4.12167E+03  1.43691E+04  1.63664E+03  1.42433E+04  8.97017E+03  8.55972E+03  1.76747E+04
 -4.18595E+03  1.97492E+04 -1.81690E+04  1.52465E+04 -2.17915E+04  3.95811E+03 -1.88142E+04 -6.80400E+03
 -8.40229E+03 -1.38733E+04  4.13989E+02 -1.24111E+04  3.82009E+03 -8.29858E+03  3.94191E+03 -5.08457E+03
  3.45268E+03 -1.68210E+03  4.38007E+03 -3.78917E+03  3.31130E+03 -1.77114E+03  6.98714E+03 -2.05127E+03
  9.83797E+03  1.74535E+03  4.91716E+03  8.20512E+03 -2.69475E+03  9.23695E+03 -1.00933E+04  8.03576E+03
 -1.29764E+04 -9.46697E+02 -7.47632E+03 -9.30754E+03 -1.05426E+03 -1.33444E+04  7.62418E+03 -1.23261E+04
  1.32766E+04 -6.83679E+03  1.59499E+04  2.69986E+03  9.83841E+03  1.19661E+04  1.39473E+03  1.39262E+04
 -4.08380E+03  1.31953E+04 -8.57591E+03  5.37433E+03 -5.80167E+03 -2.01485E+02 -1.88464E+03 -2.44650E+03
  5.48128E+02  1.71984E+03 -1.99722E+03  2.55890E+03 -6.24423E+03  1.77080E+03 -8.87087E+03 -1.11758E+03
 -6.48124E+03 -8.07317E+03  1.10797E+02 -1.17875E+04  7.61056E+03 -1.20584E+04  1.16621E+04 -3.84778E+03
  1.25748E+04  6.73667E+03  6.93390E+03  1.02816E+04 -1.39877E+03  1.23414E+04 -7.65014E+03  8.32256E+03
 -1.14266E+04  6.36729E+02 -8.65014E+03 -7.90808E+03 -1.83857E+02 -1.10114E+04  3.68487E+03 -7.44698E+03
  7.22198E+03 -3.24987E+03  4.79644E+03  2.01166E+03  2.71861E+03  2.68800E+03  1.17153E+03  1.50702E+03
  4.91280E+03 -1.82253E+02  2.35763E+03  2.17133E+03  2.91453E+03  5.28651E+03  2.01015E+03  6.62198E+03
 -2.40034E+03  8.78629E+03 -8.60856E+03  1.12338E+04 -1.21657E+04  2.27220E+03 -1.30364E+04 -4.91536E+03
 -6.00969E+03 -1.06128E+04  1.70337E+03 -1.36294E+04  6.02787E+03 -8.02174E+03  1.05635E+04 -2.05436E+03
  7.47520E+03  4.50025E+03  2.03443E+03  5.79464E+03 -3.02072E+03  4.11463E+03 -4.77470E+03 -2.34030E+02
 -2.71372E+03 -5.75936E+03  1.86012E+03 -4.57283E+03  6.18045E+03 -2.76511E+03  3.51658E+03  1.44705E+03
  3.29637E+03  2.03505E+03  7.01259E+02  1.89473E+03 -1.17536E+03  7.90300E+02  1.81978E+03 -5.63707E+02
  2.33613E+00 -2.51130E+03  3.03439E+03  2.78867E+03  1.43084E+03  7.07826E+03 -1.32082E+03  7.76071E+03
 -5.60763E+03  7.14132E+03 -7.24690E+03  1.16434E+03 -6.96326E+03 -2.68813E+03 -2.44809E+03 -4.81503E+03
  1.74516E+03 -5.20751E+03  2.62894E+03 -2.21094E+03  2.19470E+03  2.44511E+03 -6.15318E+02  4.00126E+03
 -4.57486E+03  1.98238E+03 -5.01945E+03 -3.60294E+03 -3.76615E+03 -6.27916E+03  1.49384E+03 -7.78331E+03
  3.20775E+03 -4.05508E+03  4.81377E+03 -7.60975E+02  3.35384E+03  1.78386E+03  3.02293E+02  4.13667E+03
 -1.88027E+03  1.04350E+03 -1.46607E+03 -5.17315E+02  1.71985E+03 -3.76842E+03  4.85885E+03 -4.89644E+03
  7.45466E+03  1.39059E+03  7.07614E+03  5.18533E+03  2.33436E+03  8.40491E+03 -4.58810E+03  7.29803E+03
 -5.73328E+03  3.01875E+03 -6.28138E+03 -1.32057E+03 -2.80904E+03 -4.45011E+03  1.26505E+03 -6.18681E+03
  4.51142E+03 -3.89068E+03  2.45602E+03  1.33966E+03  1.79417E+03  3.82498E+03 -4.82981E+01  5.02422E+03
 -1.07606E+03  2.58347E+03 -2.79192E+03 -2.14014E+02 -3.38239E+02  1.13322E+03 -3.26516E+03  2.64860E+03
 -2.58201E+03  3.02941E+03 -4.55848E+03  3.10919E+03 -7.34991E+03  6.71764E+02 -7.53677E+03 -5.41981E+03
 -4.70321E+03 -9.69658E+03  1.09873E+03 -1.16804E+04  6.98409E+03 -8.71025E+03  1.00086E+04 -4.28210E+03
  9.83965E+03  1.55742E+03  6.04098E+03  7.05128E+03  1.13565E+03  8.06033E+03 -3.40541E+03  6.16455E+03
 -5.55306E+03  2.11924E+03 -1.61612E+03  1.22184E+02 -1.65340E+03 -7.54024E+02  4.14116E+02 -3.77985E+02
 -1.93345E+03  1.64891E+03 -2.70879E+03  2.25695E+02 -3.75297E+02 -1.56731E+03 -2.82735E+02 -3.59444E+03
  4.21561E+03 -2.01698E+03  4.50670E+03 -2.08715E+02  4.80036E+03  3.95017E+03  1.68249E+03  7.89709E+03
 -4.84974E+03  6.71964E+03 -7.44585E+03  4.56812E+03 -8.87939E+03  4.50984E+02 -5.42589E+03 -5.22232E+03
 -3.49335E+03 -7.12033E+03  1.09342E+03 -5.38453E+03  4.64458E+03 -2.92463E+03  5.46758E+03 -6.12154E+02
  3.66555E+03  1.97789E+03 -2.27413E+03  2.69352E+03 -2.21963E+02  8.41319E+02 -4.94860E+02 -9.02604E+02
  1.99872E+03 -1.15293E+03  3.07819E+03 -1.59773E+01  2.86592E+03  3.10404E+03 -1.90085E+02  3.17320E+03
 -2.67337E+03  2.06558E+03 -4.73256E+03 -6.84774E+02 -5.50107E+03 -3.50155E+03 -8.79412E+02 -7.05169E+03
  3.60336E+03 -5.15661E+03  5.55874E+03 -1.68808E+03  5.18351E+03  8.70979E+02  2.85291E+03  3.51739E+03
  6.34299E+02  3.68679E+03 -1.36574E+03  3.34418E+03 -2.08098E+03  1.84538E+03 -2.89225E+03  6.56351E+02
 -7.56757E+02  4.92373E+02 -5.56792E+02  2.45489E+03 -9.87909E+02  5.74763E+02 -3.79121E+03 -1.91613E+03
 -4.57756E+03 -2.50706E+03 -1.83046E+03 -5.28743E+03  2.85675E+03 -5.37549E+03  4.66456E+03 -1.97848E+03
  5.06317E+03 -5.27039E+02  2.53168E+03  2.50387E+03 -7.75391E+01  3.61159E+03 -2.66913E+03  4.98696E+03
