 $NMID ID='MM_0lb_SNR200_11hz_g50_17.RAW', FMTDAT='(8E13.5)'
 TRAMP=1., VOLUME=1. $END
  3.09000E+05  2.22966E+02  3.36984E+05  2.50898E+05  8.53245E+04  3.38924E+05 -1.31000E+05  2.52091E+05
 -1.89411E+05  8.18622E+04 -1.12300E+05 -3.14079E+04 -9.95966E+02 -5.03272E+04  5.38450E+04 -1.10980E+03
  3.52945E+04  5.34595E+04 -1.61463E+04  7.55517E+04 -6.15207E+04  6.40396E+04 -8.55271E+04  3.22374E+04
 -8.32269E+04 -1.04920E+04 -5.79765E+04 -5.17009E+04 -1.39230E+04 -6.98782E+04  2.76118E+04 -4.56125E+04
  4.05799E+04  3.09483E+03  1.79273E+04  4.83272E+04 -3.44335E+04  4.83337E+04 -6.63217E+04  4.40316E+01
 -5.43873E+04 -5.65780E+04 -7.00417E+03 -7.90768E+04  3.43768E+04 -5.64105E+04  4.86265E+04 -1.76326E+04
  4.52541E+04  1.09546E+04  3.31105E+04  2.63059E+04  1.68456E+04  3.00176E+04 -5.62253E+03  2.77045E+04
 -2.25099E+04  1.20240E+04 -1.95974E+04 -5.74744E+03  5.81132E+03 -7.95723E+03  2.34361E+04  1.37311E+04
  8.79325E+03  3.72524E+04 -3.33118E+04  3.59575E+04 -6.52669E+04  3.01961E+03 -5.72132E+04 -4.51859E+04
 -1.20808E+04 -6.48368E+04  4.05138E+04 -4.64160E+04  6.02793E+04 -1.03361E+03  3.53402E+04  3.20193E+04
 -5.97467E+03  3.68571E+04 -3.08336E+04  1.94628E+04 -2.98448E+04 -3.77839E+03 -1.81143E+04 -1.04387E+04
 -9.61357E+03 -1.33191E+04  3.78159E+02 -1.97138E+04  7.81665E+03 -2.40749E+04  1.66970E+04 -1.31790E+04
  1.05787E+04  6.28920E+03 -1.00336E+04  1.30404E+04 -2.14795E+04 -5.26969E+03 -8.94768E+03 -3.63671E+04
  2.38053E+04 -4.57250E+04  5.04531E+04 -1.99431E+04  4.54913E+04  1.93644E+04  1.76243E+04  4.64746E+04
 -1.61656E+04  3.58180E+04 -2.75413E+04  4.01786E+03 -1.02565E+04 -2.87188E+04  2.08373E+04 -3.46095E+04
  4.31808E+04 -1.01490E+04  3.91133E+04  2.56306E+04  2.05655E+04  5.07193E+04 -9.67700E+03  5.47848E+04
 -3.38520E+04  3.72943E+04 -4.43191E+04  9.23981E+03 -4.70611E+04 -1.81133E+04 -2.47948E+04 -4.01360E+04
  9.23064E+03 -3.92593E+04  3.39510E+04 -1.61906E+04  2.92574E+04  1.12777E+04  4.21097E+03  1.82116E+04
 -1.35218E+04  9.68386E+03 -1.09307E+04 -7.16747E+03  4.44188E+03 -1.09017E+04  1.73625E+04  5.33984E+03
  1.44125E+04  2.43268E+04 -7.15135E+03  2.63433E+04 -2.26956E+04  1.49480E+04 -3.06228E+04 -3.20025E+03
 -2.30631E+04 -1.63429E+04 -9.67145E+03 -2.26596E+04  4.05867E+03 -2.44926E+04  1.77803E+04 -2.12392E+04
  2.93322E+04 -1.34784E+04  3.56576E+04  4.34747E+03  2.54586E+04  2.28055E+04  3.65621E+03  3.77663E+04
 -1.87591E+04  3.23097E+04 -2.83823E+04  1.13433E+04 -2.24231E+04 -8.04532E+03 -5.14901E+03 -1.30729E+04
  2.08804E+03 -2.17570E+03 -6.15227E+03  7.95407E+03 -1.96057E+04  4.07251E+03 -1.76541E+04 -7.16887E+03
 -1.13596E+04 -2.14001E+04  7.29754E+03 -2.52322E+04  1.71325E+04 -1.88924E+04  2.12872E+04 -2.24458E+03
  1.42108E+04  1.49203E+04 -8.40616E+02  2.07580E+04 -1.35413E+04  1.35501E+04 -2.15376E+04 -5.05200E+03
 -1.61922E+04 -2.06393E+04 -2.87297E+03 -2.68373E+04  1.15546E+04 -2.13672E+04  2.16435E+04 -1.05216E+04
  2.13386E+04  1.48390E+03  1.34344E+04  6.54597E+03  8.07613E+03  2.52959E+01  1.14246E+04 -2.26711E+03
  1.95082E+04  2.68491E+03  2.33678E+04  1.83127E+04  1.56406E+04  3.42242E+04 -4.69573E+03  4.20089E+04
 -2.24403E+04  3.33654E+04 -3.80186E+04  1.64306E+04 -4.12756E+04 -2.82936E+03 -3.16671E+04 -2.35853E+04
 -1.38885E+04 -3.31302E+04  1.02734E+04 -2.94313E+04  2.55825E+04 -1.33531E+04  2.25471E+04  8.48219E+03
  9.17682E+03  1.70012E+04 -1.12531E+04  1.48690E+04 -1.85846E+04  1.82076E+03 -1.36457E+04 -1.19793E+04
  7.70998E+01 -1.80082E+04  9.74595E+03 -1.31728E+04  1.23299E+04 -2.41200E+03  2.33878E+03  8.13559E+03
 -8.08028E+03  3.27568E+03 -6.83537E+03 -5.96369E+03 -1.87641E+03 -1.64513E+04  9.81414E+03 -1.93000E+04
  2.05214E+04 -1.05376E+04  2.28058E+04  2.94364E+03  2.03249E+04  1.66492E+04  9.40384E+03  2.54935E+04
 -4.86011E+03  2.87793E+04 -1.78125E+04  1.71001E+04 -1.95838E+04  3.75271E+03 -1.51950E+04 -6.03692E+03
 -6.57371E+03 -6.00901E+03 -2.40333E+02  1.55279E+03 -3.09723E+03  3.21298E+03 -6.19615E+03  3.66243E+03
 -1.13392E+04  3.96597E+02 -1.38714E+04 -9.58997E+03 -5.06735E+03 -1.92895E+04  6.43718E+03 -1.51386E+04
  1.16527E+04 -7.09015E+03  7.38324E+03  3.76255E+03 -3.96568E+01  6.55800E+03 -9.12427E+03 -5.02557E+02
 -5.43378E+03 -7.71989E+03  3.87218E+01 -1.18741E+04  8.85892E+03 -1.40225E+04  1.65750E+04 -8.48531E+03
  2.06767E+04  1.76144E+03  1.43594E+04  1.20862E+04  2.56920E+03  1.64262E+04 -8.33053E+03  1.41902E+04
 -1.20793E+04  5.38538E+03 -5.83248E+03 -4.21242E+03  2.34590E+03 -4.55999E+03  6.12798E+03 -2.19145E+02
  6.25239E+03  5.65620E+03  1.18978E+03  1.13608E+04 -7.39258E+03  9.83768E+03 -1.47444E+04  2.61879E+03
 -8.26959E+03 -8.08739E+03 -3.42055E+02 -1.16261E+04  7.84879E+03 -5.90965E+03  7.79604E+03  2.56398E+03
  1.10414E+03  8.01812E+03 -8.27127E+03  9.47397E+03 -1.18578E+04  3.22799E+03 -1.15393E+04 -5.94176E+03
 -6.79364E+03 -1.33211E+04  3.92723E+03 -1.54104E+04  1.11803E+04 -8.25440E+03  1.37420E+04  1.11359E+03
  8.48118E+03  1.08129E+04 -1.31741E+03  1.30463E+04 -1.01112E+04  8.07327E+03 -1.15369E+04 -2.01710E+03
 -9.18552E+03 -7.98897E+03 -2.40037E+03 -9.16528E+03  4.71633E+03 -7.34349E+03  7.01570E+03 -4.37093E+03
  3.35707E+03  1.57560E+03 -1.10603E+03  3.13230E+03 -1.73499E+03 -2.06169E+03  1.84580E+03 -6.34606E+03
  8.57994E+03 -3.02428E+03  1.34801E+04  1.87836E+03  1.21986E+04  9.59813E+03  8.25494E+03  1.73386E+04
 -3.27099E+03  1.82908E+04 -1.64152E+04  1.53434E+04 -2.14874E+04  2.32589E+03 -1.48931E+04 -6.45710E+03
 -8.89795E+03 -1.40933E+04 -3.08113E+02 -1.16373E+04  4.02960E+03 -5.77423E+03  4.50149E+03 -4.64844E+03
  5.53954E+03 -1.53459E+03  3.56815E+03 -3.05190E+03  5.75229E+03 -2.05464E+03  6.60179E+03 -1.20357E+03
  7.82625E+03  2.30989E+03  3.16229E+03  8.48689E+03 -2.04575E+03  8.70909E+03 -9.12261E+03  6.60705E+03
 -1.23030E+04 -2.79239E+03 -6.40175E+03 -7.64869E+03  6.66790E+01 -1.22725E+04  7.35457E+03 -1.19406E+04
  1.24019E+04 -6.78354E+03  1.59251E+04  1.84877E+03  1.13152E+04  1.09655E+04  1.80130E+03  1.28339E+04
 -6.41141E+03  1.15310E+04 -8.50754E+03  4.37223E+03 -5.66478E+03 -2.01864E+03 -2.73280E+03 -9.45322E+02
 -1.81131E+03  2.45214E+03 -1.93075E+03  1.22214E+03 -4.02570E+03  3.36229E+03 -8.55330E+03 -8.29201E+02
 -5.26988E+03 -9.13908E+03  1.69933E+02 -1.06175E+04  8.66151E+03 -1.08563E+04  1.12169E+04 -2.79540E+03
  1.14195E+04  4.17172E+03  4.88035E+03  1.04635E+04 -1.26853E+03  1.12721E+04 -8.27509E+03  7.37297E+03
 -1.05292E+04  1.47701E+03 -8.51583E+03 -7.01873E+03 -7.40924E+02 -1.02453E+04  5.80381E+03 -7.15737E+03
  8.01875E+03 -1.40988E+03  4.72514E+03  2.12520E+03  1.18524E+03  3.26943E+03  1.46513E+03  1.79518E+03
  2.54752E+03  1.90859E+03  3.28958E+03  2.10975E+03  5.59823E+03  4.40554E+03  3.54735E+03  6.72944E+03
 -3.09360E+03  9.25589E+03 -6.76938E+03  9.07117E+03 -1.12256E+04  3.83699E+03 -1.26666E+04 -6.32672E+03
 -5.93311E+03 -1.14765E+04  2.59191E+03 -1.25492E+04  6.91817E+03 -8.03866E+03  8.59815E+03 -3.55069E+03
  8.32030E+03  4.19996E+03  2.53286E+03  7.32027E+03 -2.40553E+03  3.36613E+03 -4.86665E+03  1.61989E+02
 -1.39724E+03 -5.09963E+03  3.38310E+03 -3.55509E+03  3.90194E+03 -1.99727E+03  4.98159E+03  6.13171E+02
  3.36734E+03  2.34792E+03  8.51946E+02  1.61040E+03 -4.65161E+01  2.26005E+03  5.27125E+02 -9.25089E+02
  2.29891E+03  2.37383E+02  4.52595E+03  1.46857E+03  4.35426E+03  7.08974E+03 -2.70704E+02  8.83218E+03
 -5.41954E+03  6.95852E+03 -6.44194E+03  2.26494E+03 -6.53905E+03 -2.31769E+03 -1.53390E+03 -4.90198E+03
  1.25459E+03 -4.68810E+03  2.27854E+03 -2.00964E+03  9.48598E+02  1.67406E+03 -3.33090E+02  4.17739E+03
 -5.01777E+03  1.38206E+03 -5.40602E+03 -4.22363E+03 -2.57134E+03 -6.85845E+03  4.86550E+02 -5.88083E+03
  3.03131E+03 -3.07752E+03  5.96776E+03 -5.51465E+02  4.44418E+03  2.32530E+03 -1.62024E+02  4.04504E+03
 -2.11435E+03  5.56775E+02 -4.69111E+03 -2.09686E+03  2.19698E+03 -3.71930E+03  3.55389E+03 -2.49793E+03
  8.12944E+03 -8.21202E+02  7.49441E+03  4.00896E+03  2.38504E+03  7.95040E+03 -2.96168E+03  6.82996E+03
 -6.42862E+03  2.20550E+03 -6.21659E+03 -1.06206E+03 -3.48586E+03 -4.54732E+03 -5.36173E+01 -3.14751E+03
  3.62383E+03 -2.39648E+03  3.47904E+03  2.59026E+03  2.04815E+03  3.65873E+03 -1.15752E+03  3.83516E+03
 -1.67839E+03  2.57867E+03 -2.56509E+03  9.49491E+02  1.36017E+03  1.73034E+03 -1.43299E+03  6.16742E+02
 -1.55613E+03  4.64035E+03 -4.95428E+03  2.33609E+03 -5.30370E+03  7.89146E+02 -6.90885E+03 -5.67907E+03
 -3.87823E+03 -8.05847E+03  2.05286E+03 -1.14109E+04  6.94833E+03 -1.01325E+04  1.13198E+04 -3.56731E+03
  9.15365E+03  1.67359E+03  4.06249E+03  7.50861E+03  2.85687E+02  8.14714E+03 -4.16578E+03  4.35263E+03
 -4.50752E+03  2.23053E+03 -3.52082E+03  1.18785E+03 -1.84595E+03 -3.42416E+02 -3.81677E+02 -8.94643E+01
 -1.78230E+03 -7.74651E+02 -1.65087E+03 -2.85128E+01 -1.09736E+03 -9.87750E+02 -1.71125E+02 -3.04060E+03
  3.12321E+03 -3.25328E+03  4.33977E+03 -5.86906E+02  4.03175E+03  3.11290E+03  3.59241E+02  7.72005E+03
 -3.18574E+03  7.96198E+03 -8.32067E+03  5.29402E+03 -9.88633E+03  5.84258E+01 -5.65017E+03 -5.69066E+03
 -2.53639E+03 -6.66876E+03  2.23094E+03 -7.78135E+03  3.95684E+03 -3.33305E+03  5.00181E+03 -2.98382E+02
  2.55067E+03 -5.59861E+02 -8.03808E+02  2.47210E+03 -2.80917E+02  8.34769E+02 -3.18565E+02 -1.64954E+03
  2.62368E+03 -9.50048E+02  2.50078E+03  1.82238E+03 -8.62734E+00  2.04507E+03 -1.28563E+03  4.04859E+03
 -2.85186E+03  2.03252E+03 -4.56650E+03  5.93711E+02 -2.94072E+03 -4.65019E+03 -3.25482E+02 -6.87478E+03
  2.88680E+03 -3.95982E+03  4.13762E+03 -3.29130E+03  4.96571E+03  4.45265E+02  1.10255E+03  4.27849E+03
 -5.59115E+02  6.08055E+03 -3.05462E+03  2.67512E+03 -2.91124E+03  2.73253E+03 -1.46620E+03  8.61716E+01
 -1.33293E+03 -5.29957E+02 -1.39576E+03  9.15786E+02 -3.36604E+03  6.95534E+02 -3.99527E+03 -1.06717E+03
 -2.60044E+03 -1.47191E+03 -2.64086E+03 -3.75730E+03  2.48116E+03 -6.23825E+03  3.93543E+03 -2.64271E+03
  4.13906E+03  4.62378E+02  2.07923E+03  3.20643E+03 -1.77169E+03  5.28979E+03 -2.76119E+03  2.14363E+03
