 $NMID ID='MM_0lb_SNR200_9hz_g55_53.RAW', FMTDAT='(8E13.5)'
 TRAMP=1., VOLUME=1. $END
  3.10303E+05  5.11190E+02  3.38284E+05  2.50614E+05  8.67869E+04  3.40000E+05 -1.33162E+05  2.51643E+05
 -1.90888E+05  8.58509E+04 -1.13240E+05 -3.36032E+04  9.63626E+01 -5.11125E+04  5.32038E+04 -1.13134E+03
  3.36899E+04  5.33992E+04 -1.57208E+04  7.59598E+04 -6.09031E+04  6.55554E+04 -8.56079E+04  3.16045E+04
 -8.22729E+04 -1.17448E+04 -5.77069E+04 -5.35240E+04 -1.46327E+04 -7.16766E+04  2.79323E+04 -4.64620E+04
  4.00978E+04  3.13344E+03  1.57832E+04  4.85136E+04 -3.48911E+04  4.68053E+04 -6.73575E+04  6.03484E+02
 -5.51937E+04 -5.77635E+04 -7.52799E+03 -7.95785E+04  3.37519E+04 -5.71049E+04  4.90315E+04 -1.74938E+04
  4.60929E+04  1.14758E+04  3.32007E+04  2.64700E+04  1.71863E+04  3.15136E+04 -5.90126E+03  2.68324E+04
 -2.17814E+04  1.15325E+04 -1.83473E+04 -6.40776E+03  8.63863E+03 -7.21966E+03  2.40688E+04  1.43625E+04
  5.87965E+03  3.67721E+04 -3.26528E+04  3.58181E+04 -6.56727E+04  8.73411E+02 -6.15924E+04 -4.41915E+04
 -1.31386E+04 -6.57108E+04  4.11746E+04 -4.84928E+04  6.21042E+04 -2.27692E+03  3.71824E+04  3.37431E+04
 -6.23616E+03  3.95285E+04 -3.23779E+04  1.97004E+04 -3.40339E+04 -4.31898E+03 -1.93369E+04 -1.04290E+04
 -7.97986E+03 -1.72681E+04  1.11311E+03 -1.97110E+04  9.09001E+03 -2.44440E+04  1.48965E+04 -1.20998E+04
  1.09885E+04  6.77510E+03 -9.03561E+03  1.32830E+04 -2.28238E+04 -6.05067E+03 -7.80467E+03 -3.75999E+04
  2.54809E+04 -4.54259E+04  5.29872E+04 -2.24674E+04  4.76360E+04  2.08099E+04  1.73636E+04  4.71621E+04
 -1.75471E+04  3.59639E+04 -2.81915E+04  3.27048E+03 -1.23148E+04 -2.89868E+04  2.16582E+04 -3.69435E+04
  4.53401E+04 -1.10124E+04  3.99715E+04  2.48702E+04  2.23655E+04  5.19001E+04 -6.99465E+03  5.65421E+04
 -3.60255E+04  3.96182E+04 -4.99665E+04  1.07316E+04 -4.75287E+04 -1.90081E+04 -2.61182E+04 -4.14977E+04
  7.49761E+03 -4.13978E+04  3.46878E+04 -1.84406E+04  3.23516E+04  1.00316E+04  4.49662E+03  2.34758E+04
 -1.42743E+04  9.81108E+03 -1.07305E+04 -6.51576E+03  3.57007E+03 -1.04787E+04  1.92144E+04  3.66454E+03
  1.44490E+04  2.17590E+04 -5.74970E+03  2.66781E+04 -2.42236E+04  1.47782E+04 -3.14608E+04 -2.89873E+03
 -2.53649E+04 -1.82125E+04 -1.23835E+04 -2.58880E+04  6.65245E+03 -2.73638E+04  1.88513E+04 -2.31576E+04
  3.10084E+04 -1.39855E+04  3.78682E+04  4.14610E+03  2.81638E+04  2.40110E+04  5.31764E+03  4.14128E+04
 -1.89164E+04  3.42937E+04 -3.20175E+04  9.48901E+03 -2.04980E+04 -1.09113E+04 -4.01701E+03 -1.43116E+04
  1.78247E+02  7.27979E+02 -7.46556E+03  7.20157E+03 -2.05617E+04  4.52041E+03 -2.01261E+04 -1.00090E+04
 -1.35042E+04 -2.52285E+04  7.00162E+03 -2.77092E+04  1.99034E+04 -2.07407E+04  2.40359E+04 -1.86077E+03
  1.50955E+04  1.81742E+04 -4.22093E+02  2.34189E+04 -1.56154E+04  1.32584E+04 -2.43235E+04 -4.83248E+03
 -1.67762E+04 -2.10632E+04 -3.75977E+03 -2.87321E+04  1.13879E+04 -2.31392E+04  2.50075E+04 -1.29529E+04
  2.44474E+04  1.12354E+01  1.61155E+04  5.43757E+03  8.08727E+03  6.12868E+02  1.16800E+04 -1.80301E+03
  2.13640E+04  4.40388E+03  2.60054E+04  1.88274E+04  1.88999E+04  3.92426E+04 -2.52664E+03  4.36784E+04
 -2.77900E+04  3.60854E+04 -4.25549E+04  1.98784E+04 -4.71922E+04 -1.74230E+03 -3.80101E+04 -2.56276E+04
 -1.53498E+04 -3.74379E+04  1.32143E+04 -3.26982E+04  2.88298E+04 -1.55831E+04  2.49718E+04  7.94353E+03
  7.05055E+03  1.82395E+04 -1.14296E+04  1.61759E+04 -2.10875E+04  2.52780E+03 -1.57952E+04 -1.47605E+04
 -1.52618E+03 -1.87279E+04  1.04405E+04 -1.58564E+04  1.25921E+04 -3.20112E+03  4.01694E+03  9.65490E+03
 -9.37644E+03  3.42868E+03 -1.03766E+04 -7.27422E+03 -1.70086E+03 -1.91238E+04  1.15680E+04 -2.05869E+04
  2.49175E+04 -1.14233E+04  2.74870E+04  2.40318E+03  2.40033E+04  1.80449E+04  1.02766E+04  2.96022E+04
 -5.68107E+03  3.21483E+04 -2.10380E+04  1.86499E+04 -2.19870E+04  3.37619E+03 -1.40459E+04 -6.03409E+03
 -6.64257E+03 -6.93247E+03 -7.12831E+02 -6.89206E+02 -2.13113E+03  3.11114E+03 -8.05665E+03  5.22143E+03
 -1.54846E+04 -7.91931E+01 -1.62253E+04 -1.21474E+04 -7.34129E+03 -1.86466E+04  7.80494E+03 -1.74358E+04
  1.08784E+04 -6.95986E+03  8.94400E+03  4.00347E+03 -1.58245E+03  7.12590E+03 -7.70116E+03 -1.47829E+03
 -7.43039E+03 -9.92013E+03 -5.21621E+02 -1.73138E+04  9.35099E+03 -1.67887E+04  2.16042E+04 -8.80506E+03
  2.50372E+04  3.77184E+03  1.68078E+04  1.50761E+04  4.04372E+03  1.94055E+04 -9.47157E+03  1.61758E+04
 -1.20081E+04  3.92233E+03 -6.88529E+03 -5.03019E+03  8.88932E+02 -5.55342E+03  7.92997E+03 -1.59194E+03
  7.40757E+03  7.95580E+03  5.17915E+02  1.48129E+04 -7.98991E+03  1.31931E+04 -1.61671E+04  1.48916E+03
 -1.06968E+04 -8.50744E+03 -1.43473E+03 -1.56454E+04  9.60424E+03 -6.90938E+03  9.38277E+03  2.01276E+03
  1.30707E+03  9.70629E+03 -6.77656E+03  1.14579E+04 -1.37760E+04  5.65063E+03 -1.36474E+04 -6.12599E+03
 -9.32922E+03 -1.55276E+04  5.54394E+03 -1.99682E+04  1.46315E+04 -1.15913E+04  1.75428E+04  4.49977E+03
  1.02416E+04  1.39543E+04 -2.15552E+03  1.61239E+04 -1.03312E+04  8.06922E+03 -1.49773E+04 -1.34969E+03
 -1.20080E+04 -1.01008E+04 -2.12889E+03 -1.27134E+04  6.38197E+03 -1.05263E+04  7.94965E+03 -4.50554E+03
  2.84895E+03  3.41560E+03 -1.60685E+03  1.67046E+03 -5.04442E+02 -3.93560E+03  1.79474E+03 -6.59919E+03
  1.24290E+04 -5.30240E+03  1.67718E+04  2.70720E+03  1.66522E+04  1.16053E+04  9.81242E+03  2.16509E+04
 -5.92814E+03  2.54264E+04 -2.01239E+04  1.70935E+04 -2.63723E+04  3.38403E+03 -2.01821E+04 -1.08816E+04
 -1.14850E+04 -1.85207E+04  5.58196E+01 -1.52800E+04  3.59290E+03 -9.19238E+03  6.32799E+03 -4.11165E+03
  4.07233E+03 -2.76991E+03  3.79610E+03 -3.82768E+03  4.21743E+03 -3.80516E+03  8.13580E+03 -2.14979E+03
  1.10252E+04  3.69889E+03  5.44871E+03  1.03198E+04 -3.00994E+03  1.11064E+04 -1.21169E+04  1.01099E+04
 -1.56740E+04 -3.24899E+03 -1.00998E+04 -9.48699E+03 -1.89613E+03 -1.66345E+04  1.00242E+04 -1.58136E+04
  1.85668E+04 -9.76327E+03  2.24549E+04  3.50797E+03  1.27815E+04  1.43169E+04  1.33644E+03  1.81764E+04
 -6.00267E+03  1.44199E+04 -1.07993E+04  5.71525E+03 -8.27631E+03 -3.03890E+03 -2.33725E+03 -2.61613E+03
 -1.87752E+03 -4.35569E+02 -2.81323E+03  3.47425E+03 -5.81116E+03  2.30557E+03 -9.95503E+03 -2.05397E+03
 -6.42388E+03 -9.47562E+03 -1.57100E+03 -1.54216E+04  8.83269E+03 -1.43958E+04  1.70029E+04 -4.73620E+03
  1.58048E+04  7.61277E+03  5.96901E+03  1.43179E+04 -2.18083E+03  1.49971E+04 -1.06303E+04  9.88240E+03
 -1.35249E+04 -1.37715E+03 -1.11363E+04 -8.47031E+03  8.70704E+02 -1.32721E+04  7.17746E+03 -9.70543E+03
  8.14731E+03 -2.00623E+03  5.40288E+03  3.02839E+03  3.19332E+03  4.44189E+03  1.36121E+03  1.63757E+03
  3.28972E+03  5.67482E+02  3.77791E+03  8.99708E+02  3.97274E+03  6.25659E+03  3.54848E+03  7.57869E+03
 -3.79744E+03  1.24567E+04 -1.20538E+04  1.20139E+04 -1.73686E+04  4.17496E+03 -1.77093E+04 -6.93753E+03
 -9.10935E+03 -1.70901E+04  2.38096E+03 -1.58769E+04  1.07149E+04 -1.06574E+04  1.20750E+04 -3.90879E+03
  1.02722E+04  5.57272E+03  3.02633E+03  7.73151E+03 -4.08724E+03  3.76989E+03 -5.12348E+03 -2.50560E+03
 -3.20441E+03 -6.71924E+03  3.66541E+03 -6.61739E+03  7.89037E+03 -2.39777E+03  6.17217E+03  1.11934E+03
  3.72324E+03  3.14056E+03  2.44726E+03  2.61889E+03  1.28604E+03  2.33066E+03  2.10961E+03 -1.32203E+03
  2.14623E+03 -1.50300E+03  6.88249E+03  3.28155E+03  5.90903E+03  7.94146E+03 -1.91191E+03  1.08727E+04
 -7.40631E+03  7.33019E+03 -1.02141E+04  1.84365E+03 -9.58065E+03 -1.51174E+03 -3.51109E+03 -5.02614E+03
 -1.00571E+02 -5.09279E+03  6.08792E+03 -3.10766E+03  3.26790E+03  4.22404E+03 -1.23241E+03  5.14246E+03
 -7.38245E+03  2.90871E+03 -7.63815E+03 -4.85795E+03 -2.86370E+03 -8.51008E+03 -4.59628E+02 -8.04066E+03
  6.85802E+03 -5.45136E+03  5.39421E+03 -8.87474E+01  4.70547E+03  2.80376E+03  6.41024E+02  5.12547E+03
 -3.12709E+03  1.92280E+03 -2.88587E+03 -3.20270E+03 -3.69415E+02 -7.08510E+03  7.85666E+03 -5.66878E+03
  9.21451E+03 -3.82966E+02  1.07943E+04  7.46462E+03  2.78368E+03  9.89595E+03 -3.25741E+03  1.01474E+04
 -8.45145E+03  4.52079E+03 -1.05253E+04 -1.87587E+03 -6.14729E+03 -6.58857E+03  3.74957E+03 -5.74502E+03
  6.30926E+03 -4.97122E+03  4.93580E+03  2.82186E+03  2.63903E+03  3.77315E+03 -2.08127E+02  3.87177E+03
 -2.05279E+03  4.15857E+03 -1.07669E+03  1.66719E+02 -1.32226E+03  9.57565E+02 -1.69328E+03  2.00744E+03
 -2.50898E+03  3.00847E+03 -7.10177E+03  2.72954E+03 -8.73740E+03  3.19063E+03 -1.08660E+04 -6.91944E+03
 -5.59072E+03 -1.39395E+04  3.45286E+03 -1.47967E+04  9.11081E+03 -1.15297E+04  1.44595E+04 -6.10566E+03
  1.56170E+04  1.49162E+03  8.38293E+03  9.22660E+03  4.36930E+02  1.28663E+04 -4.80562E+03  7.13757E+03
 -6.69060E+03  3.90641E+03 -2.80232E+03 -1.76159E+03 -2.38421E+03 -6.79265E+01 -6.27705E+02  1.93461E+02
 -1.65748E+03 -2.19893E+02 -2.55749E+03 -1.39096E+02 -5.50728E+02 -9.60051E+02 -6.41609E+02 -4.93638E+03
  5.09752E+03 -4.51741E+03  4.81573E+03 -2.39598E+03  8.01259E+03  5.24465E+03  2.73729E+03  9.72330E+03
 -5.90010E+03  1.30244E+04 -1.04501E+04  7.61679E+03 -1.28383E+04 -1.80994E+03 -1.00410E+04 -8.76165E+03
 -3.85993E+03 -1.18733E+04  3.45065E+03 -1.07335E+04  7.50563E+03 -5.56679E+03  7.45829E+03  1.35796E+03
  3.03803E+03  3.86762E+03  5.98654E+02  2.65908E+03 -1.20066E+03 -6.62112E+02 -2.34988E+03 -2.57869E+03
  1.34244E+03 -1.31551E+03  3.95579E+03  1.18350E+03  3.04547E+03  3.63977E+03  5.55320E+02  5.53195E+03
 -4.71058E+03  4.64781E+03 -7.07441E+03 -3.06889E+02 -5.28365E+03 -3.64127E+03 -1.08567E+03 -1.10392E+04
  5.38516E+03 -9.09789E+03  9.27694E+03 -2.64658E+03  8.29439E+03  1.37815E+03  5.77005E+03  6.71246E+03
  1.09155E+03  5.58393E+03 -4.65759E+03  5.07712E+03 -5.37725E+03  5.34340E+03 -3.92667E+03 -6.51729E+02
 -1.70968E+03  2.68395E+02 -2.50438E+03  1.85870E+03 -3.48588E+03  1.38876E+03 -5.14869E+03 -2.25049E+03
 -4.21790E+03 -5.12140E+03 -1.74230E+03 -7.00319E+03  5.71193E+03 -7.07001E+03  5.89013E+03 -2.83441E+03
  6.23175E+03 -3.91939E+02  3.41398E+03  5.76421E+03  1.00423E+03  7.88961E+03 -6.50656E+03  4.24200E+03
