 $NMID ID='MM_0lb_SNR200_9hz_g50_2.RAW', FMTDAT='(8E13.5)'
 TRAMP=1., VOLUME=1. $END
  3.10477E+05  6.21763E+01  3.38039E+05  2.50352E+05  8.41606E+04  3.39149E+05 -1.33024E+05  2.51605E+05
 -1.89517E+05  8.49944E+04 -1.13084E+05 -3.19749E+04  8.10608E+01 -5.02567E+04  5.29197E+04 -3.68193E+02
  3.61860E+04  5.25282E+04 -1.85461E+04  7.62333E+04 -6.16402E+04  6.31618E+04 -8.51520E+04  3.33454E+04
 -8.12792E+04 -1.07350E+04 -5.71915E+04 -5.24070E+04 -1.49318E+04 -7.15157E+04  2.63762E+04 -4.79489E+04
  4.14287E+04  4.23125E+03  1.63008E+04  4.76794E+04 -3.57686E+04  4.76975E+04 -6.87648E+04  3.74879E+01
 -5.50120E+04 -5.82125E+04 -5.78638E+03 -7.90341E+04  3.47934E+04 -5.65822E+04  5.06038E+04 -1.82118E+04
  4.48804E+04  1.17103E+04  3.37084E+04  2.51123E+04  1.37239E+04  3.02268E+04 -5.66055E+03  2.75637E+04
 -2.17023E+04  1.20155E+04 -1.72943E+04 -5.71745E+03  8.35512E+03 -5.91722E+03  2.37124E+04  1.35013E+04
  6.38795E+03  3.60706E+04 -3.45303E+04  3.74069E+04 -6.62567E+04  1.90860E+03 -5.72817E+04 -4.40350E+04
 -1.28432E+04 -6.62964E+04  4.13069E+04 -4.89126E+04  6.10986E+04 -2.46567E+03  3.66048E+04  3.35027E+04
 -5.60185E+03  3.83887E+04 -3.28720E+04  1.76329E+04 -3.35514E+04 -3.49225E+03 -2.15751E+04 -1.21753E+04
 -8.38013E+03 -1.51078E+04 -5.13856E+02 -2.02444E+04  7.63446E+03 -2.36127E+04  1.68228E+04 -1.33779E+04
  9.98141E+03  6.93520E+03 -1.06394E+04  1.22597E+04 -2.39593E+04 -7.54334E+03 -1.01437E+04 -3.75703E+04
  2.46058E+04 -4.51696E+04  5.25610E+04 -2.11089E+04  4.84266E+04  2.09343E+04  1.84547E+04  4.67513E+04
 -1.64747E+04  3.69341E+04 -2.67538E+04  3.27558E+03 -1.28063E+04 -3.10149E+04  2.04479E+04 -3.53246E+04
  4.49547E+04 -9.72311E+03  4.10501E+04  2.55901E+04  2.24659E+04  5.11771E+04 -9.48566E+03  5.48624E+04
 -3.43296E+04  3.59261E+04 -4.69854E+04  9.26576E+03 -4.51462E+04 -1.97772E+04 -2.62305E+04 -4.31368E+04
  6.86970E+03 -4.01547E+04  3.47816E+04 -1.82132E+04  3.31315E+04  1.20348E+04  4.84732E+03  2.00798E+04
 -1.44828E+04  1.00732E+04 -9.20263E+03 -7.24634E+03  5.56671E+03 -1.19768E+04  1.70792E+04  6.42289E+03
  1.65386E+04  2.26201E+04 -4.85860E+03  2.69826E+04 -2.32104E+04  1.54373E+04 -3.23294E+04 -3.87898E+03
 -2.56684E+04 -1.81510E+04 -1.23329E+04 -2.52841E+04  2.89342E+03 -2.39644E+04  1.95550E+04 -2.31576E+04
  3.41023E+04 -1.36740E+04  3.67684E+04  4.53685E+03  2.81124E+04  2.45165E+04  4.95524E+03  4.18920E+04
 -2.01625E+04  3.26632E+04 -3.14515E+04  1.18440E+04 -2.26600E+04 -1.12778E+04 -4.69203E+03 -1.38928E+04
  9.21359E+02 -2.48776E+03 -7.30954E+03  7.14739E+03 -2.13452E+04  3.86240E+03 -1.95777E+04 -1.11367E+04
 -1.18012E+04 -2.30009E+04  5.92315E+03 -2.89259E+04  1.88409E+04 -1.95145E+04  2.18489E+04 -2.00269E+03
  1.33911E+04  1.67952E+04 -1.47467E+03  2.38040E+04 -1.72058E+04  1.27154E+04 -2.51436E+04 -4.33187E+03
 -1.78761E+04 -2.08084E+04 -2.49561E+03 -2.96212E+04  1.21874E+04 -2.43507E+04  2.26442E+04 -1.46029E+04
  2.12712E+04  1.15570E+02  1.68256E+04  4.93883E+03  1.00855E+04  1.52243E+03  1.20727E+04 -2.37398E+03
  2.29586E+04  3.14106E+03  2.50223E+04  1.87201E+04  1.75725E+04  3.67470E+04 -9.71617E+02  4.39159E+04
 -2.44201E+04  3.74029E+04 -4.17045E+04  1.96180E+04 -4.37023E+04 -4.04668E+03 -3.46738E+04 -2.49172E+04
 -1.42682E+04 -3.51566E+04  1.47236E+04 -3.28140E+04  2.67365E+04 -1.38988E+04  2.36501E+04  6.88873E+03
  8.91499E+03  1.91991E+04 -1.01198E+04  1.46812E+04 -2.10823E+04  2.25603E+03 -1.39977E+04 -1.32008E+04
  1.13948E+02 -1.88380E+04  9.96664E+03 -1.45384E+04  1.26283E+04 -1.32075E+03  2.51004E+03  1.09148E+04
 -1.04241E+04  3.03096E+03 -1.03749E+04 -6.15874E+03 -1.30366E+03 -1.80480E+04  1.21228E+04 -1.98178E+04
  2.27222E+04 -1.02661E+04  2.62047E+04  3.82143E+03  2.36274E+04  1.73199E+04  1.04915E+04  2.77833E+04
 -6.68090E+03  2.97058E+04 -2.08152E+04  1.77204E+04 -2.24493E+04  4.39253E+03 -1.48849E+04 -6.21916E+03
 -7.04650E+03 -5.76831E+03 -5.75941E+02  1.75085E+03 -3.00791E+03  4.48271E+03 -7.29925E+03  4.87386E+03
 -1.32719E+04 -6.89589E+02 -1.41637E+04 -1.23201E+04 -5.34278E+03 -1.96529E+04  7.09251E+03 -1.60426E+04
  1.40565E+04 -5.82455E+03  9.08179E+03  3.51355E+03 -5.66723E+02  7.46907E+03 -7.44016E+03  9.85730E+02
 -6.24586E+03 -1.05345E+04 -7.05538E+02 -1.62771E+04  1.06311E+04 -1.66418E+04  1.90074E+04 -9.68001E+03
  2.32663E+04  4.28745E+03  1.57861E+04  1.36665E+04  3.46138E+03  1.85805E+04 -9.69508E+03  1.57009E+04
 -1.10139E+04  5.41495E+03 -6.13538E+03 -2.79131E+03  1.18247E+03 -3.28642E+03  8.19124E+03  2.82174E+01
  6.63317E+03  7.05603E+03  1.08053E+03  1.29564E+04 -1.01168E+04  1.12372E+04 -1.52918E+04  2.61391E+03
 -1.21857E+04 -7.09099E+03 -6.92545E+02 -1.35699E+04  7.95945E+03 -5.98867E+03  9.52033E+03  2.56722E+03
  3.46321E+03  9.47300E+03 -8.97976E+03  1.15979E+04 -1.44202E+04  4.96888E+03 -1.36096E+04 -5.05266E+03
 -9.30379E+03 -1.65567E+04  3.69920E+03 -1.74458E+04  1.50910E+04 -1.12271E+04  1.59199E+04  2.98844E+03
  1.06199E+04  1.15215E+04 -8.21981E+02  1.52958E+04 -1.11014E+04  9.20308E+03 -1.22429E+04 -2.19866E+03
 -9.73162E+03 -1.08098E+04 -2.69504E+03 -1.10690E+04  6.11280E+03 -9.89191E+03  7.16103E+03 -4.87299E+03
  3.18940E+03  1.02318E+03 -1.42187E+03  6.76024E+02 -1.68242E+02 -3.67275E+03  3.26350E+03 -7.01761E+03
  1.16927E+04 -3.27194E+03  1.63082E+04  2.60527E+03  1.51214E+04  1.15874E+04  1.05172E+04  2.08761E+04
 -5.28841E+03  2.33336E+04 -1.96567E+04  1.69047E+04 -2.51450E+04  2.74687E+03 -2.12954E+04 -9.54473E+03
 -1.04438E+04 -1.65989E+04 -2.40687E+02 -1.50327E+04  6.07568E+03 -9.31875E+03  5.56246E+03 -5.18631E+03
  4.77874E+03 -2.82621E+03  4.90736E+03 -4.37983E+03  5.77930E+03 -5.59859E+03  7.41329E+03 -2.52639E+03
  9.73382E+03  2.52053E+03  7.09998E+03  8.90737E+03 -1.03454E+03  1.07901E+04 -9.01143E+03  9.26398E+03
 -1.42419E+04 -1.00672E+03 -9.11912E+03 -1.04442E+04 -1.66503E+03 -1.58365E+04  9.15631E+03 -1.65674E+04
  1.51818E+04 -9.10565E+03  1.84399E+04  2.25697E+03  1.47304E+04  1.40309E+04  1.11901E+03  1.80434E+04
 -8.84918E+03  1.41915E+04 -1.20601E+04  3.76177E+03 -7.40659E+03 -2.10126E+03 -5.52724E+03 -2.05525E+03
 -2.50112E+03 -2.32090E+02 -1.90655E+03  3.48969E+03 -6.79237E+03  4.38306E+03 -9.63169E+03 -1.82830E+01
 -6.37326E+03 -1.23166E+04 -8.49793E+02 -1.56369E+04  8.74039E+03 -1.36721E+04  1.58139E+04 -3.21936E+03
  1.32598E+04  6.25675E+03  7.92028E+03  1.35025E+04 -4.38798E+03  1.46498E+04 -1.02085E+04  9.90311E+03
 -1.28820E+04  1.25016E+03 -1.11312E+04 -8.28015E+03 -1.12419E+03 -1.18245E+04  5.99082E+03 -8.93032E+03
  9.80488E+03 -3.03474E+03  5.44201E+03  2.57330E+03  3.55968E+03  4.45407E+03  2.13644E+03  2.06351E+03
  4.33591E+03  2.04706E+03  3.06305E+03  1.83164E+03  3.30609E+03  6.21903E+03  3.76550E+03  7.87067E+03
 -2.06235E+03  1.16866E+04 -1.03655E+04  1.15802E+04 -1.52058E+04  3.74908E+03 -1.63697E+04 -8.44787E+03
 -6.51967E+03 -1.54688E+04  8.47714E+02 -1.69931E+04  9.44190E+03 -9.96090E+03  1.09989E+04 -4.10185E+03
  1.00765E+04  6.28956E+03  5.53001E+02  9.98694E+03 -5.37415E+03  4.77952E+03 -6.36137E+03 -2.11820E+03
 -4.08458E+03 -7.36133E+03  4.55424E+03 -6.41211E+03  6.70226E+03 -2.83828E+03  6.64710E+03  5.20935E+02
  4.19392E+03  3.25316E+03  5.57714E+02  2.64918E+03 -3.10110E+02  5.43285E+02  1.96199E+03  4.68222E+02
  2.85260E+03 -7.40668E+02  5.04293E+03  2.70885E+03  1.61822E+03  7.60042E+03 -2.24158E+03  1.15476E+04
 -7.12091E+03  6.67182E+03 -1.04500E+04  2.14089E+03 -8.42266E+03 -3.65362E+03 -3.86286E+03 -5.23313E+03
  1.33203E+01 -6.23388E+03  2.86345E+03 -4.08402E+03  2.86739E+03  3.75700E+03 -9.28322E+02  3.89863E+03
 -5.83077E+03  2.20945E+03 -6.64445E+03 -3.25579E+03 -4.88446E+03 -8.82590E+03  1.41521E+03 -7.12296E+03
  4.04741E+03 -5.08351E+03  6.55119E+03 -1.03317E+03  4.96195E+03  2.48864E+03  1.13522E+03  4.20739E+03
 -3.84274E+03  1.80593E+03 -3.37028E+03 -4.77670E+03  1.66744E+03 -6.17110E+03  7.64466E+03 -6.55673E+03
  9.76098E+03  8.47486E+02  9.79814E+03  5.24361E+03  2.78073E+03  9.64145E+03 -2.83408E+03  9.93014E+03
 -9.05710E+03  4.62053E+03 -8.66103E+03 -6.86723E+02 -5.36039E+03 -7.44152E+03  4.29507E+01 -6.97348E+03
  6.73182E+03 -3.92033E+03  6.21276E+03  2.32758E+03  3.73877E+03  4.87191E+03 -8.80154E+02  4.19408E+03
 -3.17480E+03  3.22456E+03 -1.52670E+03  4.06773E+02 -1.85849E+03  3.22590E+03 -1.98387E+03  2.31755E+03
 -2.81055E+03  3.08523E+03 -6.43505E+03  3.76952E+03 -9.83579E+03  1.74830E+03 -1.04908E+04 -8.26698E+03
 -5.89812E+03 -1.43141E+04  4.04637E+03 -1.55873E+04  1.02046E+04 -1.10616E+04  1.44377E+04 -3.87145E+03
  1.30400E+04  2.46030E+03  1.01888E+04  8.82185E+03 -5.03856E+02  1.09531E+04 -4.78649E+03  8.06631E+03
 -5.67579E+03  3.06808E+03 -3.88053E+03 -9.86566E+02 -8.22561E+02 -1.31414E+03 -6.82677E+02  8.42187E+02
 -1.29900E+03  1.57227E+02 -1.84724E+03 -1.42730E+03 -4.72409E+01 -1.96481E+03 -8.99983E+02 -5.35076E+03
  4.61218E+03 -4.95277E+03  6.60308E+03  3.80915E+02  6.52749E+03  4.75214E+03  2.42705E+03  8.85775E+03
 -4.83079E+03  1.07069E+04 -8.86527E+03  6.99175E+03 -1.37835E+04 -9.55189E+02 -1.02137E+04 -9.14782E+03
 -4.46336E+03 -1.06130E+04  4.52997E+03 -9.96303E+03  6.33920E+03 -5.34323E+03  6.79365E+03  1.21509E+03
  4.38978E+03  2.91458E+03  1.09042E+02  3.62856E+03 -1.08871E+03  1.53898E+01  1.34362E+02 -3.08793E+03
  2.96569E+03 -1.36109E+03  4.97930E+03  5.88322E+02  2.89360E+03  4.46271E+03  7.75978E+02  4.11077E+03
 -5.13919E+03  4.76352E+03 -5.70781E+03 -1.02291E+02 -5.95752E+03 -4.82077E+03 -3.26251E+02 -9.07108E+03
  4.27054E+03 -7.31333E+03  8.27726E+03 -2.23759E+03  7.72877E+03  2.10702E+03  4.01767E+03  7.35547E+03
  8.96313E+02  4.71704E+03 -1.94595E+03  6.89343E+03 -2.83069E+03  3.84071E+03 -3.01402E+03 -6.83486E+02
 -1.64624E+03 -7.06605E+02 -1.92903E+03  1.47296E+03 -5.11751E+03  1.16687E+03 -5.99225E+03  7.71022E+02
 -4.71875E+03 -4.51980E+03 -1.90869E+03 -8.02867E+03  3.26419E+03 -7.01164E+03  5.57750E+03 -4.99252E+03
  6.24512E+03  1.10644E+03  3.33600E+03  3.45042E+03  4.70741E+02  6.48570E+03 -4.54645E+03  5.22620E+03
