 $NMID ID='MM_0lb_SNR200_12hz_g50_79.RAW', FMTDAT='(8E13.5)'
 TRAMP=1., VOLUME=1. $END
  3.07725E+05 -5.79381E+02  3.38688E+05  2.51464E+05  8.45914E+04  3.37935E+05 -1.31888E+05  2.50661E+05
 -1.90937E+05  8.30374E+04 -1.11294E+05 -3.22373E+04  4.81737E+02 -5.04657E+04  5.27739E+04  4.65725E+02
  3.41651E+04  5.26787E+04 -1.68337E+04  7.61551E+04 -6.23540E+04  6.42723E+04 -8.51238E+04  3.30174E+04
 -8.20888E+04 -1.22062E+04 -5.77415E+04 -5.24987E+04 -1.44751E+04 -6.99004E+04  2.75341E+04 -4.44977E+04
  4.01778E+04  3.38714E+03  1.69096E+04  4.78349E+04 -3.47267E+04  4.73532E+04 -6.77577E+04  9.94512E+02
 -5.35141E+04 -5.70098E+04 -6.70334E+03 -7.74820E+04  3.47699E+04 -5.39810E+04  4.97292E+04 -1.76279E+04
  4.44506E+04  1.16385E+04  3.23358E+04  2.49911E+04  1.56421E+04  3.08948E+04 -4.28734E+03  2.65564E+04
 -2.17841E+04  1.23843E+04 -1.75079E+04 -4.36349E+03  5.85027E+03 -6.65103E+03  2.32860E+04  1.36780E+04
  6.32511E+03  3.73735E+04 -3.32134E+04  3.58511E+04 -6.39097E+04  2.04300E+03 -5.85634E+04 -4.42694E+04
 -1.31903E+04 -6.37300E+04  4.10405E+04 -4.69746E+04  5.83903E+04 -2.62339E+03  3.40079E+04  3.36679E+04
 -6.39628E+03  3.67167E+04 -3.16290E+04  1.77828E+04 -3.23020E+04 -2.88465E+03 -1.82045E+04 -1.25142E+04
 -7.99036E+03 -1.41676E+04 -1.50445E+03 -1.87787E+04  6.94616E+03 -2.34696E+04  1.51392E+04 -1.35829E+04
  1.10693E+04  5.41595E+03 -9.87648E+03  1.15529E+04 -2.21599E+04 -4.96243E+03 -7.58362E+03 -3.42831E+04
  2.36759E+04 -4.47620E+04  4.96249E+04 -1.98768E+04  4.64723E+04  2.07307E+04  1.77241E+04  4.67574E+04
 -1.51785E+04  3.42592E+04 -2.61211E+04  2.49031E+03 -1.15009E+04 -2.75112E+04  2.09020E+04 -3.42480E+04
  4.16577E+04 -1.21500E+04  3.67776E+04  2.43613E+04  1.87958E+04  4.90063E+04 -7.75246E+03  5.27158E+04
 -3.41344E+04  3.49963E+04 -4.51410E+04  9.53242E+03 -4.41849E+04 -1.76309E+04 -2.39714E+04 -4.08555E+04
  6.74248E+03 -3.99325E+04  3.25470E+04 -1.53849E+04  2.99769E+04  1.16654E+04  4.13285E+03  2.02782E+04
 -1.32511E+04  8.52448E+03 -1.24605E+04 -7.34664E+03  6.54112E+03 -1.10999E+04  1.75922E+04  5.51397E+03
  1.46729E+04  2.24837E+04 -5.56334E+03  2.52046E+04 -2.35473E+04  1.23047E+04 -2.94160E+04 -4.53074E+03
 -2.33640E+04 -1.76001E+04 -1.06245E+04 -2.10399E+04  5.17196E+03 -2.19598E+04  1.81353E+04 -1.98660E+04
  2.87674E+04 -1.26413E+04  3.30661E+04  3.79276E+03  2.46771E+04  2.11334E+04  3.91798E+03  3.97519E+04
 -1.94522E+04  3.09292E+04 -3.03981E+04  1.04235E+04 -2.14005E+04 -1.10384E+04 -3.84587E+03 -1.38149E+04
  1.49722E+03 -3.08184E+03 -6.24139E+03  6.80534E+03 -1.71173E+04  4.34392E+03 -1.76540E+04 -7.76238E+03
 -1.15789E+04 -1.99153E+04  4.50268E+03 -2.50066E+04  1.67366E+04 -1.83663E+04  1.99674E+04 -1.94916E+03
  1.35802E+04  1.54175E+04 -7.57937E+02  1.96906E+04 -1.40669E+04  1.20403E+04 -1.97718E+04 -6.35146E+03
 -1.42044E+04 -1.85158E+04 -3.01490E+03 -2.57634E+04  1.08498E+04 -2.10161E+04  1.89979E+04 -1.09487E+04
  1.92311E+04 -1.99292E+02  1.35535E+04  5.01892E+03  7.79484E+03  1.45622E+03  1.08225E+04 -1.56178E+03
  2.03239E+04  2.61290E+03  2.25745E+04  1.66717E+04  1.53435E+04  3.29615E+04 -3.70230E+03  3.84918E+04
 -2.19717E+04  3.10113E+04 -3.61404E+04  1.59462E+04 -3.80616E+04 -2.47423E+03 -3.05911E+04 -2.22376E+04
 -1.34110E+04 -3.06078E+04  1.28196E+04 -2.78482E+04  2.48622E+04 -1.45803E+04  2.01866E+04  7.07067E+03
  8.43031E+03  1.74021E+04 -8.94362E+03  1.49096E+04 -1.77742E+04  3.45553E+03 -1.51455E+04 -1.05586E+04
 -2.66504E+02 -1.77830E+04  8.18409E+03 -1.21961E+04  1.08637E+04 -9.68432E+02  2.14656E+03  7.12956E+03
 -6.40278E+03  2.75366E+03 -6.70581E+03 -6.63710E+03 -1.92948E+03 -1.54068E+04  1.02160E+04 -1.63196E+04
  1.85854E+04 -8.26122E+03  2.06456E+04  3.72685E+03  1.76841E+04  1.27904E+04  8.85236E+03  2.26676E+04
 -5.70826E+03  2.56797E+04 -1.64489E+04  1.43010E+04 -1.82512E+04  3.05470E+03 -1.28177E+04 -4.58974E+03
 -6.80912E+03 -6.09800E+03 -1.18696E+03  1.59069E+03 -2.85428E+03  2.62850E+03 -5.73027E+03  4.69983E+03
 -1.20466E+04 -6.91917E+02 -1.24619E+04 -1.03916E+04 -4.82118E+03 -1.85383E+04  4.99563E+03 -1.25708E+04
  1.08533E+04 -4.80739E+03  8.50045E+03  4.08549E+03 -1.83883E+02  5.13114E+03 -6.84710E+03 -1.28659E+03
 -6.25838E+03 -9.37277E+03 -1.57637E+02 -1.21954E+04  6.93350E+03 -1.41346E+04  1.60028E+04 -6.46389E+03
  1.88141E+04  1.68880E+03  1.53835E+04  1.25845E+04  2.99259E+03  1.44461E+04 -8.21052E+03  1.37878E+04
 -9.89287E+03  2.63651E+03 -4.44558E+03 -2.93804E+03  2.17086E+03 -4.17973E+03  6.88070E+03 -2.64696E+03
  5.62251E+03  6.02392E+03  6.85769E+02  1.03567E+04 -7.18820E+03  1.01200E+04 -1.31169E+04  1.40399E+03
 -8.57823E+03 -6.16205E+03 -2.52692E+02 -1.18448E+04  6.21448E+03 -7.83324E+03  6.92697E+03  2.21580E+03
  2.05548E+03  6.51995E+03 -6.70224E+03  8.90409E+03 -9.74853E+03  4.37178E+03 -1.00925E+04 -2.96436E+03
 -5.71903E+03 -1.23565E+04  2.52266E+03 -1.29479E+04  1.09040E+04 -8.08929E+03  1.14419E+04  2.19622E+03
  7.54498E+03  1.18936E+04  1.76567E+02  1.25462E+04 -9.14042E+03  7.30049E+03 -8.70573E+03 -2.07542E+03
 -8.80647E+03 -9.23954E+03 -1.02162E+03 -9.25472E+03  5.70234E+03 -7.11427E+03  7.26061E+03 -3.55170E+03
  5.10191E+03  1.12406E+03  7.81431E+02  2.36977E+02 -4.17599E+02 -3.44119E+03  6.78792E+02 -6.17373E+03
  8.38881E+03 -1.50418E+03  1.14753E+04  1.37202E+03  1.09920E+04  8.13462E+03  9.38740E+03  1.64981E+04
 -2.78878E+03  1.81969E+04 -1.27563E+04  1.35315E+04 -1.96021E+04  2.51089E+03 -1.46376E+04 -7.41622E+03
 -7.58358E+03 -1.30549E+04 -1.63144E+02 -1.06248E+04  4.62307E+03 -6.17017E+03  4.59367E+03 -4.50404E+03
  3.76186E+03 -1.61908E+03  3.33000E+03 -2.81898E+03  6.57891E+03 -2.26634E+03  4.82657E+03 -9.08982E+02
  8.84110E+03  2.06716E+03  2.32861E+03  7.32509E+03 -1.81373E+03  6.72524E+03 -7.80671E+03  7.02669E+03
 -1.18758E+04 -1.46210E+03 -4.98185E+03 -8.19022E+03 -4.04200E+01 -1.16365E+04  6.02519E+03 -1.19127E+04
  1.02256E+04 -5.86804E+03  1.37251E+04  1.31953E+02  9.10125E+03  9.05762E+03  2.73968E+03  1.32202E+04
 -4.87380E+03  1.03053E+04 -7.96459E+03  3.67179E+03 -4.71371E+03 -4.49203E+02 -1.54977E+03 -1.98984E+03
 -2.70237E+01  3.39577E+02 -1.89410E+03  1.09712E+03 -5.06039E+03  2.20211E+03 -7.54009E+03 -8.33688E+01
 -5.45347E+03 -7.56111E+03  4.53992E+02 -1.03454E+04  5.36528E+03 -9.92918E+03  1.00998E+04 -2.20045E+03
  1.03984E+04  4.20115E+03  5.14939E+03  8.31327E+03 -1.50826E+03  1.06691E+04 -6.52615E+03  6.40405E+03
 -1.02633E+04  7.82143E+02 -7.52388E+03 -6.30246E+03 -3.85024E+02 -8.90021E+03  4.88052E+03 -5.35089E+03
  7.99045E+03 -2.85059E+03  4.72562E+03  1.30190E+03  2.19135E+03  4.15365E+03  1.80816E+03  2.90502E+03
  1.61408E+03  6.93276E+02  2.90415E+03  2.11730E+03  3.11586E+03  3.33366E+03  2.79441E+03  4.65461E+03
 -2.44331E+03  6.94569E+03 -6.57343E+03  7.21095E+03 -1.01732E+04  2.63038E+03 -1.02599E+04 -3.75134E+03
 -4.60045E+03 -9.81987E+03  5.75326E+02 -1.14920E+04  6.10310E+03 -6.13073E+03  7.53483E+03 -1.82830E+03
  6.31772E+03  4.15871E+03  2.20815E+02  7.68286E+03 -2.40021E+03  3.70590E+03 -4.20411E+03 -3.62819E+02
 -7.69071E+02 -4.21225E+03  3.08380E+03 -3.62165E+03  4.87569E+03 -2.55781E+03  4.38548E+03  4.77926E+02
  2.21059E+03  2.05515E+03  5.65843E+02 -1.27103E+02 -5.13699E+02  1.05504E+03  1.77941E+03 -1.36523E+03
  6.47202E+01  2.21613E+02  4.90962E+03  2.16731E+03  1.32243E+03  5.22466E+03 -1.19145E+03  7.66452E+03
 -4.21315E+03  3.28689E+03 -5.66977E+03  4.31168E+02 -5.30791E+03 -1.48073E+03 -1.99058E+03 -3.89041E+03
  1.02291E+03 -4.03825E+03  2.41880E+03 -1.98504E+03  3.80095E+03  2.20470E+03 -9.59334E+02  2.83537E+03
 -3.59047E+03  2.78909E+03 -3.53723E+03 -3.26868E+03 -2.79089E+03 -5.82136E+03  5.08907E+02 -5.21148E+03
  3.37385E+03 -1.81228E+03  4.13082E+03 -4.40313E+02  2.96123E+03  1.44061E+03  1.81468E+03  4.12879E+03
 -2.50500E+03  1.19680E+03 -1.65208E+03 -9.09350E+02  9.05393E+02 -4.09185E+03  5.59378E+03 -3.01560E+03
  6.39583E+03  8.71270E+02  6.12733E+03  3.77941E+03  2.70365E+03  6.34521E+03 -2.02799E+03  5.14066E+03
 -5.13239E+03  2.93066E+03 -4.13569E+03 -7.28937E+02 -3.85167E+03 -5.79763E+03  4.65757E+02 -2.62553E+03
  4.07459E+03 -2.54698E+03  1.88899E+03  2.34941E+03  1.06488E+03  4.41697E+03  4.62923E+01  3.90250E+03
 -1.09875E+03  1.73289E+03 -1.41523E+03  9.69706E+02 -3.36084E+01  4.14491E+01 -9.98380E+02  2.13333E+03
 -1.29432E+03  3.17691E+03 -4.66166E+03  1.25940E+03 -5.56919E+03  2.35293E+02 -6.78131E+03 -4.19685E+03
 -2.81446E+03 -7.54915E+03  2.91380E+02 -8.67662E+03  5.81889E+03 -6.91406E+03  9.77114E+03 -1.65094E+03
  7.87267E+03 -1.68721E+02  5.65887E+03  5.18187E+03  5.90760E+02  5.37275E+03 -3.59850E+03  5.86168E+03
 -3.15064E+03  1.87700E+03 -3.75192E+03 -1.26449E+03 -2.07526E+03  3.35617E+02  4.30398E+02 -1.10543E+03
 -1.03191E+03 -4.26697E+02 -2.11995E+03 -5.76579E+02 -3.37118E+02 -1.79657E+03  2.92934E+02 -3.15152E+03
  3.88142E+03 -1.29795E+03  3.36835E+03  1.56014E+03  4.39641E+03  5.12845E+03 -3.36614E+02  6.47979E+03
 -2.61683E+03  6.32171E+03 -7.38038E+03  3.77541E+03 -6.95690E+03 -2.24466E+02 -5.30091E+03 -4.26531E+03
 -1.91189E+03 -6.33041E+03  1.14605E+03 -4.87401E+03  3.74480E+03 -1.90010E+03  3.62140E+03  1.20615E+03
  2.27296E+03  2.60087E+03  1.94854E+03  4.83919E+02 -1.01163E+03 -6.62845E+02  1.91982E+02 -3.36280E+02
  1.88653E+03  5.67336E+02  2.11988E+03  1.03505E+03  1.22821E+03  2.52722E+03  2.49500E+01  4.76557E+03
 -2.50629E+03  2.95670E+03 -2.49247E+03  6.88761E+02 -2.00685E+03 -3.22839E+03  1.67507E+02 -4.91761E+03
  1.55352E+03 -3.70714E+03  4.64212E+03 -1.71881E+03  5.18546E+03 -1.41641E+02  2.58191E+03  3.15876E+03
 -6.50535E+02  3.44419E+03 -1.34152E+03  2.92220E+03 -1.09865E+03  8.70545E+02 -1.21738E+03  6.40521E+02
 -1.77192E+03 -7.48117E+02 -2.29673E+03  3.18670E+02 -9.81019E+01  6.81346E+02 -3.05287E+03 -5.47494E+02
 -3.65657E+03 -1.24432E+03 -1.26490E+03 -3.51756E+03  1.64499E+03 -4.56628E+03  3.60201E+03 -1.27949E+03
  3.20135E+03  1.38333E+03  2.20617E+03  2.70484E+03 -2.03817E+02  3.91639E+03 -2.03954E+03  2.09582E+03
