 $NMID ID='MM_0lb_SNR200_13hz_g40_29.RAW', FMTDAT='(8E13.5)'
 TRAMP=1., VOLUME=1. $END
  3.09399E+05  8.97103E+02  3.36772E+05  2.50600E+05  8.42405E+04  3.37765E+05 -1.32456E+05  2.51046E+05
 -1.89363E+05  8.28876E+04 -1.11038E+05 -3.19962E+04  5.32033E+02 -5.04760E+04  5.39165E+04  1.12988E+03
  3.57141E+04  5.24825E+04 -1.72507E+04  7.53525E+04 -6.08173E+04  6.36493E+04 -8.47976E+04  3.20813E+04
 -8.22252E+04 -1.23044E+04 -5.83586E+04 -5.12109E+04 -1.46402E+04 -6.85100E+04  2.72938E+04 -4.65746E+04
  4.05689E+04  3.32030E+03  1.51013E+04  4.68890E+04 -3.47338E+04  4.73027E+04 -6.62738E+04 -4.31471E+02
 -5.28922E+04 -5.70954E+04 -7.10123E+03 -7.55030E+04  3.38911E+04 -5.38984E+04  4.73954E+04 -1.72187E+04
  4.31907E+04  1.08555E+04  3.15171E+04  2.56599E+04  1.56460E+04  2.93086E+04 -5.32020E+03  2.81159E+04
 -2.18390E+04  1.34004E+04 -1.82265E+04 -4.46206E+03  4.74469E+03 -6.76146E+03  2.20899E+04  1.20779E+04
  7.25387E+03  3.51177E+04 -3.13005E+04  3.54084E+04 -6.32556E+04  1.73574E+03 -5.67977E+04 -4.26504E+04
 -1.24341E+04 -6.42050E+04  4.01141E+04 -4.53092E+04  5.77601E+04 -2.04208E+03  3.44148E+04  3.30426E+04
 -5.44125E+03  3.56894E+04 -2.98637E+04  1.65512E+04 -3.09689E+04 -3.70123E+03 -1.70881E+04 -1.13068E+04
 -7.85232E+03 -1.37667E+04 -9.66651E+02 -1.78629E+04  7.01678E+03 -2.24726E+04  1.60855E+04 -1.37210E+04
  1.26049E+04  5.05120E+03 -7.32827E+03  1.28621E+04 -2.19338E+04 -4.36426E+03 -9.40958E+03 -3.32513E+04
  2.23908E+04 -4.26631E+04  4.69326E+04 -1.89891E+04  4.42546E+04  1.83426E+04  1.52512E+04  4.37276E+04
 -1.59797E+04  3.35877E+04 -2.47845E+04  9.15354E+02 -8.32567E+03 -2.79404E+04  2.16109E+04 -3.42314E+04
  4.07497E+04 -8.83200E+03  3.53994E+04  2.38375E+04  1.87676E+04  4.66526E+04 -6.97199E+03  5.00973E+04
 -3.11550E+04  3.44540E+04 -4.15785E+04  9.68230E+03 -4.36515E+04 -1.41124E+04 -2.30271E+04 -3.95149E+04
  7.30611E+03 -3.61486E+04  3.24023E+04 -1.56007E+04  2.80626E+04  1.05374E+04  4.34042E+03  1.94429E+04
 -1.40238E+04  8.58319E+03 -1.03785E+04 -6.51818E+03  6.20169E+03 -1.08496E+04  1.84521E+04  7.00140E+03
  1.16836E+04  2.26182E+04 -7.25135E+03  2.53994E+04 -2.24353E+04  1.16545E+04 -2.78277E+04 -5.18718E+03
 -2.02506E+04 -1.75724E+04 -8.77713E+03 -2.01143E+04  3.85783E+03 -1.91930E+04  1.62955E+04 -1.81329E+04
  2.50780E+04 -1.20417E+04  3.25297E+04  2.43734E+03  2.36105E+04  1.91199E+04  5.51876E+03  3.63078E+04
 -1.73972E+04  3.06273E+04 -2.72507E+04  1.05304E+04 -1.99977E+04 -1.00673E+04 -5.17273E+03 -1.38402E+04
  9.05887E+02 -3.45745E+03 -4.34683E+03  6.66706E+03 -1.70161E+04  5.57301E+03 -1.69834E+04 -7.90195E+03
 -1.09161E+04 -1.89254E+04  5.70756E+03 -2.28559E+04  1.49583E+04 -1.61169E+04  1.88938E+04 -2.23032E+03
  1.16819E+04  1.41820E+04 -7.78300E+02  1.95292E+04 -1.35946E+04  9.79529E+03 -1.95754E+04 -3.71902E+03
 -1.25061E+04 -1.64112E+04 -1.68976E+03 -2.15673E+04  1.07362E+04 -1.76311E+04  1.75551E+04 -1.01584E+04
  1.60449E+04 -1.21983E+01  1.34412E+04  4.46327E+03  6.79683E+03  4.11030E+02  1.05507E+04 -2.17016E+03
  1.80159E+04  2.40824E+03  1.93044E+04  1.59777E+04  1.36489E+04  2.97785E+04 -2.12358E+03  3.52726E+04
 -1.97412E+04  2.79982E+04 -3.25109E+04  1.30676E+04 -3.36265E+04 -1.35839E+03 -2.92031E+04 -2.00124E+04
 -1.25887E+04 -2.72692E+04  1.04656E+04 -2.47263E+04  2.16678E+04 -1.33503E+04  1.89234E+04  4.24489E+03
  7.21766E+03  1.52044E+04 -7.95683E+03  1.17378E+04 -1.60918E+04  2.96288E+03 -1.24911E+04 -1.06958E+04
 -9.57519E+02 -1.60709E+04  8.60340E+03 -1.19393E+04  1.07665E+04  5.37960E+01  2.97889E+03  6.85682E+03
 -6.92689E+03  2.97796E+03 -5.64330E+03 -5.47819E+03 -1.01537E+03 -1.36470E+04  9.38654E+03 -1.42304E+04
  1.84111E+04 -6.59262E+03  1.77622E+04  3.32446E+03  1.59376E+04  1.19204E+04  7.18062E+03  2.00403E+04
 -3.53804E+03  2.20181E+04 -1.47880E+04  1.51111E+04 -1.63660E+04  3.62712E+03 -1.17334E+04 -2.59564E+03
 -5.54410E+03 -4.25009E+03 -5.17676E+02  1.07569E+03 -3.00635E+03  3.77852E+03 -5.78146E+03  4.05921E+03
 -1.00907E+04  9.75578E+02 -1.08102E+04 -8.51613E+03 -4.25398E+03 -1.45987E+04  5.39054E+03 -1.10164E+04
  9.95891E+03 -5.27911E+03  7.47631E+03  2.44100E+03  3.14446E+02  4.09079E+03 -6.72288E+03 -1.31436E+03
 -5.73136E+03 -6.88483E+03 -6.97119E+02 -1.00433E+04  5.97319E+03 -1.21458E+04  1.35812E+04 -5.57011E+03
  1.65457E+04  8.59626E+02  1.29595E+04  1.03359E+04  2.97957E+03  1.29247E+04 -7.61101E+03  1.19898E+04
 -8.89899E+03  3.65505E+03 -5.60463E+03 -2.84315E+03  1.37691E+03 -3.44416E+03  7.00056E+03 -1.28979E+03
  5.91403E+03  4.29737E+03  1.63389E+03  9.50910E+03 -6.78746E+03  9.76141E+03 -1.13800E+04  2.62574E+03
 -7.43809E+03 -4.91650E+03  7.40372E+02 -9.16250E+03  6.00233E+03 -5.71184E+03  6.14626E+03  1.27558E+03
  8.60231E+02  5.91529E+03 -4.76570E+03  6.11797E+03 -8.34653E+03  2.53330E+03 -7.87711E+03 -2.03459E+03
 -3.84809E+03 -1.06469E+04  1.69116E+03 -1.26199E+04  9.53701E+03 -7.75485E+03  1.07473E+04  2.21530E+03
  6.80464E+03  8.87690E+03  2.93724E+02  1.11705E+04 -8.42909E+03  7.67825E+03 -8.24859E+03 -1.05502E+03
 -8.53934E+03 -7.96530E+03 -5.65220E+02 -7.93707E+03  5.15663E+03 -6.31179E+03  4.64565E+03 -2.75358E+03
  2.99978E+03  3.82786E+02 -1.33267E+03  2.19468E+03  5.04330E+02 -1.43377E+03  4.88233E+02 -4.09737E+03
  7.25716E+03 -3.38524E+03  9.64623E+03  5.34488E+02  1.01168E+04  5.63483E+03  6.78510E+03  1.15621E+04
 -2.66735E+03  1.40469E+04 -1.08960E+04  1.13716E+04 -1.57782E+04  1.87581E+03 -1.33340E+04 -5.87692E+03
 -7.04923E+03 -1.16460E+04 -2.53489E+02 -9.35806E+03  2.80944E+03 -5.91166E+03  2.32691E+03 -2.91138E+03
  1.41220E+03 -2.21804E+03  3.42588E+03 -3.67665E+03  4.90546E+03 -3.16635E+03  5.28708E+03  6.16071E+01
  6.68004E+03  7.14955E+02  2.78233E+03  5.87219E+03 -1.37706E+03  5.58370E+03 -7.39778E+03  4.33763E+03
 -8.35073E+03 -1.73648E+03 -4.51923E+03 -5.17727E+03  8.13885E+01 -9.70882E+03  5.64955E+03 -9.95916E+03
  9.66478E+03 -4.62805E+03  1.10472E+04  1.51934E+03  8.21303E+03  9.36951E+03  9.46156E+02  1.11325E+04
 -4.02574E+03  1.01841E+04 -5.84185E+03  4.06220E+03 -4.00920E+03 -1.77461E+03 -2.45325E+03 -1.39998E+03
 -1.28824E+03 -1.23054E+02 -1.85228E+03  2.29083E+03 -4.03190E+03  1.04482E+03 -7.06594E+03 -2.40794E+01
 -4.01209E+03 -4.09157E+03  1.07319E+03 -8.42688E+03  5.29518E+03 -7.89257E+03  8.32095E+03 -2.65484E+03
  8.39733E+03  3.87745E+03  3.84939E+03  7.10675E+03 -5.41030E+02  6.51406E+03 -5.77918E+03  4.26971E+03
 -7.00610E+03 -9.83490E+02 -6.64795E+03 -4.70211E+03  4.53357E+02 -7.44337E+03  2.92330E+03 -5.89763E+03
  6.07364E+03 -1.47401E+03  3.09013E+03  7.19793E+02 -1.65801E+02  3.37042E+03  2.93604E+02  7.71596E+02
  1.87573E+03  1.12723E+03  1.57142E+03  5.81627E+02  3.53358E+03  4.77232E+03  2.18190E+03  5.65584E+03
 -2.94232E+03  6.75489E+03 -5.43240E+03  6.99698E+03 -7.40422E+03  1.54596E+03 -9.23465E+03 -3.46616E+03
 -3.23316E+03 -7.65344E+03  1.15298E+03 -9.77090E+03  5.15315E+03 -6.36529E+03  6.45857E+03 -2.70735E+03
  4.96593E+03  4.45023E+03  2.02131E+03  4.71757E+03 -1.73587E+03  3.54758E+03 -4.57624E+03 -5.33885E+02
 -1.94604E+03 -4.00193E+03  1.34683E+03 -4.21877E+03  5.22035E+03 -1.70055E+03  3.02564E+03  1.92301E+03
  1.06389E+03  1.19762E+03 -2.88697E+02  7.95004E+02  1.07652E+02  1.61248E+03  1.90823E+03 -1.96340E+02
  1.55304E+02  5.96799E+02  2.00818E+03  1.19265E+02  1.55112E+03  3.08702E+03 -1.12187E+03  6.36838E+03
 -4.10283E+03  2.72832E+03 -5.01024E+03 -4.21278E+02 -3.47230E+03 -1.08145E+03 -1.33301E+03 -3.50787E+03
  1.14000E+03 -2.84475E+03  2.29534E+03 -1.60796E+03  5.99853E+02  1.09665E+03 -7.35042E+02  2.55994E+03
 -3.42853E+03  2.25575E+03 -2.51725E+03 -1.89766E+03 -1.65738E+03 -5.15022E+03  3.87833E+02 -4.88668E+03
  3.34003E+03 -2.26320E+03  2.96522E+03  9.84113E+02  2.56723E+03 -6.79075E+02 -4.26073E+02  3.29953E+03
 -2.62568E+03  4.21788E+02 -9.53561E+02 -1.45846E+03  1.23698E+03 -2.25330E+03  3.46707E+03 -1.54447E+03
  4.09679E+03 -5.84312E+02  4.76808E+03  3.22127E+03  2.24708E+03  3.69943E+03 -9.72948E+02  4.73770E+03
 -4.31218E+03  1.92570E+03 -4.27726E+03 -2.29713E+02 -2.74791E+03 -2.03667E+03 -7.77725E+01 -3.27095E+03
  2.77450E+03 -2.19064E+03  2.49837E+03  2.95731E+03  4.71443E+02  3.15478E+03 -2.36245E+01  2.54929E+03
 -1.15266E+03  1.79923E+03 -1.53670E+03  7.26607E+02  6.04182E+02 -1.03895E+03 -8.92453E+02  2.01819E+03
 -1.30242E+03  1.75208E+03 -3.25965E+03  1.51408E+03 -5.33614E+03 -5.37306E+02 -4.50600E+03 -3.05489E+03
 -2.84568E+03 -6.57325E+03  2.76008E+03 -6.32341E+03  3.98640E+03 -6.43091E+03  6.96943E+03 -2.48484E+03
  7.76387E+03  6.36587E+02  3.42264E+03  4.47376E+03  5.12674E+02  3.43396E+03 -1.46934E+03  3.48933E+03
 -3.43505E+03  6.17715E+02 -6.06472E+02  8.39063E+02 -1.05404E+03  3.05155E+02 -8.68344E+02 -5.23455E+02
 -5.97111E+02  9.29133E+02 -1.23022E+03 -9.63795E+02  1.56900E+02 -3.62113E+02 -5.90810E+02 -1.95871E+03
  1.30383E+03 -5.26478E+02  2.27181E+03  4.34052E+02  3.00008E+03  2.99847E+03  9.96427E+02  4.26528E+03
 -2.53484E+03  7.17619E+03 -3.43999E+03  4.83946E+03 -6.30966E+03 -7.73313E+02 -4.62346E+03 -3.36100E+03
 -2.21151E+03 -5.07730E+03  1.42719E+03 -4.11903E+03  3.11056E+03 -1.16029E+03  3.63051E+03 -8.01934E+01
  1.69362E+03  1.75229E+03  7.72562E+01  2.06647E+03 -1.75025E+03  1.31036E+02 -2.85188E+02 -1.33435E+03
  1.12271E+03  1.59617E+02  2.29150E+03  9.16739E+02  5.46820E+02  8.30140E+02  2.34532E+02  2.45984E+03
 -1.94399E+03  1.65092E+03 -2.50088E+03  2.15961E+02 -2.32591E+03 -1.57127E+03  5.43562E+02 -3.83094E+03
  2.86076E+03 -2.52288E+03  4.37989E+03 -1.06929E+03  4.26463E+03 -7.71611E+02  2.23790E+03  1.94388E+03
 -1.41315E+02  2.37710E+03 -1.28698E+03  8.65389E+02 -3.92990E+02  1.83663E+03 -1.58496E+03  1.09555E+02
 -1.03183E+03 -5.20940E+02 -7.29867E+02 -4.11084E+02 -2.24102E+03  6.99753E+02 -2.26274E+03 -6.88835E+02
 -3.53743E+03 -1.78944E+03 -1.10891E+03 -1.96372E+03  1.22172E+03 -3.61546E+03  2.63005E+03 -1.37572E+03
  3.86875E+03  8.82205E+02  6.90264E+02  2.03459E+03 -7.70993E+02  3.80614E+03 -2.38132E+03  8.37592E+02
