 $NMID ID='MM_0lb_SNR200_12hz_g60_72.RAW', FMTDAT='(8E13.5)'
 TRAMP=1., VOLUME=1. $END
  3.10549E+05  1.60668E+03  3.37881E+05  2.51220E+05  8.65698E+04  3.38762E+05 -1.33666E+05  2.53170E+05
 -1.91053E+05  8.37738E+04 -1.11487E+05 -3.28553E+04  3.56509E+02 -5.12526E+04  5.33783E+04 -1.11619E+03
  3.59688E+04  5.23126E+04 -1.67600E+04  7.55990E+04 -6.20996E+04  6.39646E+04 -8.38086E+04  3.10937E+04
 -8.24724E+04 -1.24835E+04 -5.77435E+04 -5.06515E+04 -1.46641E+04 -7.11405E+04  2.79228E+04 -4.55237E+04
  4.04038E+04  2.86353E+03  1.61595E+04  4.80743E+04 -3.53611E+04  4.87214E+04 -6.68973E+04  2.09660E+02
 -5.49453E+04 -5.73859E+04 -8.00228E+03 -7.96450E+04  3.64620E+04 -5.59730E+04  4.81838E+04 -1.84384E+04
  4.59345E+04  1.04015E+04  3.33937E+04  2.65314E+04  1.61230E+04  3.11057E+04 -5.65096E+03  2.74168E+04
 -2.25332E+04  1.25236E+04 -1.76818E+04 -6.53083E+03  6.75171E+03 -6.75443E+03  2.28339E+04  1.40783E+04
  7.29295E+03  3.62396E+04 -3.41104E+04  3.74325E+04 -6.55193E+04  1.16341E+03 -5.84574E+04 -4.54011E+04
 -1.26640E+04 -6.42786E+04  4.13838E+04 -4.81155E+04  6.08164E+04 -2.67129E+03  3.54051E+04  3.34238E+04
 -4.92498E+03  3.88256E+04 -3.00602E+04  1.93694E+04 -3.30477E+04 -3.45227E+03 -1.85576E+04 -1.05032E+04
 -9.53906E+03 -1.53435E+04 -2.06393E+03 -1.86399E+04  8.54309E+03 -2.45801E+04  1.48891E+04 -1.17608E+04
  1.00769E+04  6.26710E+03 -1.05350E+04  1.37347E+04 -2.33243E+04 -5.64425E+03 -8.22196E+03 -3.55614E+04
  2.55053E+04 -4.51531E+04  5.09766E+04 -1.96726E+04  4.72031E+04  1.95047E+04  1.63341E+04  4.63039E+04
 -1.68265E+04  3.56284E+04 -2.67570E+04  3.42106E+02 -1.12644E+04 -2.95588E+04  2.10599E+04 -3.54155E+04
  4.39689E+04 -1.10921E+04  3.74510E+04  2.50059E+04  2.23025E+04  5.08364E+04 -7.81638E+03  5.38652E+04
 -3.39841E+04  3.72263E+04 -4.70275E+04  1.13779E+04 -4.66664E+04 -1.88958E+04 -2.53067E+04 -4.02307E+04
  8.22496E+03 -4.15001E+04  3.31765E+04 -1.49181E+04  3.18250E+04  1.06428E+04  5.10411E+03  1.95780E+04
 -1.32560E+04  9.04481E+03 -1.10916E+04 -8.47486E+03  5.43949E+03 -1.07822E+04  1.92763E+04  4.64641E+03
  1.35752E+04  2.10169E+04 -6.16555E+03  2.55550E+04 -2.36173E+04  1.39197E+04 -3.05214E+04 -3.41000E+03
 -2.38256E+04 -1.79590E+04 -9.48929E+03 -2.31485E+04  5.36201E+03 -2.26868E+04  1.88348E+04 -2.12826E+04
  3.00799E+04 -1.30179E+04  3.71245E+04  4.85857E+03  2.51788E+04  2.28127E+04  4.52237E+03  3.98116E+04
 -1.99869E+04  3.33332E+04 -2.94373E+04  1.12013E+04 -2.19216E+04 -1.03747E+04 -4.15805E+03 -1.29114E+04
  8.39157E+02 -2.44745E+03 -6.01397E+03  6.12117E+03 -1.94566E+04  5.26073E+03 -1.98682E+04 -9.51032E+03
 -1.04942E+04 -2.15712E+04  6.31700E+03 -2.48084E+04  1.79753E+04 -1.88397E+04  2.08494E+04 -2.09122E+03
  1.41345E+04  1.36508E+04 -2.06629E+03  2.28499E+04 -1.49094E+04  1.18392E+04 -2.19863E+04 -5.10921E+03
 -1.69962E+04 -1.91013E+04 -1.89187E+03 -2.59533E+04  1.22087E+04 -2.08480E+04  2.23941E+04 -1.05832E+04
  2.04142E+04 -8.10870E+02  1.43291E+04  4.21015E+03  8.13033E+03  1.14654E+03  1.03729E+04 -2.02082E+03
  1.95139E+04  3.46114E+03  2.37158E+04  1.65054E+04  1.66648E+04  3.53538E+04 -4.46033E+03  4.14730E+04
 -2.20758E+04  3.30851E+04 -3.88327E+04  1.68281E+04 -4.02128E+04 -3.05499E+03 -3.26158E+04 -2.31235E+04
 -1.42973E+04 -3.40918E+04  1.18523E+04 -2.89461E+04  2.50575E+04 -1.52400E+04  2.15455E+04  6.69751E+03
  8.74719E+03  1.67359E+04 -1.07946E+04  1.49521E+04 -1.82586E+04  3.25881E+03 -1.52245E+04 -1.17619E+04
  9.90648E+02 -1.75596E+04  9.98357E+03 -1.10053E+04  1.20069E+04 -2.05009E+03  1.94149E+03  8.28572E+03
 -7.67503E+03  1.69728E+03 -8.02121E+03 -6.95359E+03 -9.88694E+02 -1.66917E+04  1.23122E+04 -1.73275E+04
  1.96052E+04 -8.62592E+03  2.29202E+04  2.66930E+03  1.96260E+04  1.57289E+04  9.11044E+03  2.35454E+04
 -4.71844E+03  2.81024E+04 -1.69926E+04  1.69842E+04 -2.10448E+04  2.92563E+03 -1.33702E+04 -4.90145E+03
 -6.88472E+03 -5.28014E+03 -8.94468E+02  1.23392E+03 -3.72065E+03  2.39358E+03 -7.25371E+03  5.42518E+03
 -1.35479E+04 -1.94298E+02 -1.22648E+04 -1.23663E+04 -4.51385E+03 -1.74952E+04  6.00539E+03 -1.28671E+04
  1.18860E+04 -3.88880E+03  9.41666E+03  4.13041E+03  3.93199E+02  5.32801E+03 -5.80858E+03 -9.78449E+01
 -6.59350E+03 -9.34719E+03 -7.75366E+01 -1.31518E+04  8.66063E+03 -1.62306E+04  1.76391E+04 -7.41880E+03
  2.18445E+04  1.92736E+03  1.57917E+04  1.22517E+04  2.96665E+03  1.62122E+04 -7.96723E+03  1.37770E+04
 -1.08707E+04  3.78456E+03 -6.11101E+03 -1.71914E+03  1.52580E+03 -3.64201E+03  6.78532E+03 -1.83387E+03
  6.01652E+03  5.30549E+03  5.24046E+02  1.08128E+04 -8.77348E+03  1.14560E+04 -1.34630E+04  2.46980E+03
 -9.21960E+03 -7.54682E+03  1.61620E+03 -9.89644E+03  7.01960E+03 -4.68070E+03  7.14675E+03  2.50551E+03
  1.51419E+03  7.70982E+03 -6.85022E+03  8.58343E+03 -1.18445E+04  4.51745E+03 -1.11840E+04 -4.56452E+03
 -7.90261E+03 -1.32875E+04  4.28025E+03 -1.41864E+04  1.40256E+04 -9.43270E+03  1.30366E+04  2.58149E+03
  8.77451E+03  1.15262E+04 -1.84010E+03  1.33335E+04 -9.61438E+03  8.08174E+03 -1.01979E+04 -1.76293E+03
 -9.26965E+03 -8.87222E+03 -1.87848E+03 -8.55578E+03  4.76156E+03 -8.65071E+03  6.04205E+03 -2.78483E+03
  4.08851E+03  1.53619E+03 -3.94282E+02  2.66956E+02 -5.28644E+02 -2.25864E+03  1.78905E+03 -4.29768E+03
  9.63613E+03 -4.29473E+03  1.10410E+04  2.24377E+03  1.25440E+04  8.63510E+03  8.28331E+03  1.81564E+04
 -3.07731E+03  1.88264E+04 -1.57990E+04  1.39882E+04 -2.19202E+04  3.13848E+03 -1.77521E+04 -6.37458E+03
 -8.80720E+03 -1.32130E+04 -4.92662E+02 -1.25936E+04  4.69249E+03 -6.27259E+03  4.45525E+03 -2.71087E+03
  3.17951E+03 -3.99754E+03  3.35006E+03 -3.64522E+03  5.44148E+03 -2.41546E+03  7.60100E+03 -8.05108E+02
  8.42738E+03  2.63093E+03  4.07259E+03  7.29139E+03 -2.03607E+03  1.05110E+04 -9.70406E+03  6.90025E+03
 -1.31598E+04 -2.15639E+03 -6.34983E+03 -7.85550E+03 -1.17940E+03 -1.24663E+04  7.90444E+03 -1.31100E+04
  1.32600E+04 -7.30061E+03  1.54328E+04  1.69070E+03  9.93377E+03  1.00079E+04  7.81972E+02  1.31194E+04
 -5.22240E+03  1.15056E+04 -8.15768E+03  4.30499E+03 -5.51436E+03 -1.91615E+03 -2.41327E+03 -1.87349E+03
 -8.31054E+02  6.08498E+02 -2.58633E+03  1.46123E+03 -5.39575E+03  1.88003E+03 -8.54642E+03 -9.64429E+02
 -6.51793E+03 -8.88398E+03 -4.51220E+02 -1.11802E+04  7.27312E+03 -1.05275E+04  9.99335E+03 -5.68594E+03
  1.13431E+04  5.95063E+03  4.39565E+03  9.71255E+03 -1.21030E+03  1.14803E+04 -7.25197E+03  6.62697E+03
 -1.05158E+04  2.52892E+02 -9.34194E+03 -6.57703E+03 -1.99238E+03 -8.93682E+03  5.35883E+03 -7.50456E+03
  6.49804E+03 -3.30252E+03  6.26317E+03  2.60194E+03  2.43018E+03  3.48894E+03  1.51431E+03  9.15444E+02
  3.07303E+03  2.00243E+03  2.54976E+03  2.73262E+03  3.43298E+03  4.17611E+03  4.97205E+03  6.28972E+03
 -1.61974E+03  8.53730E+03 -8.39314E+03  9.12389E+03 -1.17076E+04  2.58265E+03 -1.09818E+04 -5.38976E+03
 -4.24969E+03 -1.06769E+04  2.31259E+03 -1.17047E+04  5.84532E+03 -8.88459E+03  9.60635E+03 -8.18354E+02
  7.54553E+03  4.19007E+03  5.57071E+02  6.60843E+03 -3.84718E+03  4.01322E+03 -4.50528E+03  2.93849E+02
 -2.48840E+03 -5.63931E+03  2.52682E+03 -5.63870E+03  3.05557E+03 -2.29651E+03  3.31126E+03  1.40782E+03
  3.64079E+03  2.11066E+03  1.05707E+02  1.74465E+03 -5.92063E+02  1.47944E+03  2.04038E+03 -1.90652E+01
  1.77545E+03 -2.17680E+03  3.74172E+03  1.78982E+03  2.51422E+03  5.60018E+03 -2.35443E+03  7.79543E+03
 -4.85583E+03  5.84284E+03 -6.15778E+03  1.63581E+03 -5.10307E+03 -1.92365E+03 -2.59681E+03 -3.68780E+03
 -3.44689E+02 -4.37273E+03  2.47982E+03 -2.43400E+03  5.79633E+02  2.36002E+03 -5.20526E+01  4.24307E+03
 -3.42840E+03  1.57415E+03 -5.25172E+03 -2.70586E+03 -2.70261E+03 -5.85389E+03  7.97354E+02 -5.54425E+03
  4.17913E+03 -1.94003E+03  4.27742E+03  5.50031E+02  3.89366E+03  2.72859E+03 -1.29213E+03  1.72386E+03
 -1.28436E+03  1.68829E+03 -2.26363E+03 -2.40249E+03  1.76441E+03 -4.00911E+03  5.50118E+03 -1.87323E+03
  6.00756E+03 -1.80029E+02  6.35990E+03  4.04387E+03  1.09430E+03  6.31623E+03 -3.31691E+03  6.48243E+03
 -5.32716E+03  2.62206E+03 -4.94125E+03  1.63754E+03 -3.50509E+03 -3.52858E+03  1.69150E+03 -4.15606E+03
  4.71516E+03 -1.90625E+03  4.51028E+03  1.47279E+03  1.51395E+03  4.03489E+03  6.08784E+02  3.50577E+03
 -3.20378E+03  1.73369E+03 -1.41419E+03  5.12082E+02 -4.71009E+02  1.27395E+03 -9.23695E+02  1.27750E+03
 -1.61374E+03  2.96133E+03 -5.02303E+03  1.80982E+03 -5.96700E+03 -7.10297E+02 -7.55076E+03 -3.34925E+03
 -4.07267E+03 -8.06119E+03  1.48184E+03 -9.49035E+03  4.83090E+03 -6.83541E+03  9.43957E+03 -3.58957E+03
  9.17613E+03  1.10397E+03  5.86640E+03  5.02861E+03 -6.48286E+02  6.18812E+03 -2.79121E+03  2.81045E+03
 -3.83550E+03  2.05194E+03 -1.28549E+03 -1.35282E+03 -1.17568E+03 -4.70836E+02 -1.62670E+03 -6.57633E+02
 -7.54580E+02 -4.20699E+02 -2.33645E+03  5.05655E+02 -8.55906E+02 -1.81944E+03 -7.23075E+01 -2.75332E+03
  2.87238E+03 -2.20747E+03  2.24142E+03 -6.28986E+02  5.04237E+03  2.60348E+03  1.02892E+03  6.04502E+03
 -1.75948E+03  7.68237E+03 -5.53446E+03  4.19870E+03 -6.79156E+03 -1.08881E+03 -6.00292E+03 -4.66507E+03
 -2.66160E+03 -4.56317E+03  8.97974E+02 -5.86720E+03  3.90405E+03 -3.53798E+03  3.22648E+03  3.33510E+02
  1.84436E+03  1.01384E+03  5.72334E+02  6.74424E+02 -2.42555E+03 -4.45820E+02 -5.58665E+02 -2.39038E+03
  1.68506E+03 -9.21617E+02  2.50768E+03  5.25907E+02  8.90665E+02  3.13228E+03  2.43787E+03  3.17446E+03
 -3.20567E+03  2.11260E+03 -3.95316E+03  4.66746E+02 -4.09072E+03 -3.83154E+03 -8.72048E+02 -4.39342E+03
  3.32066E+03 -3.75057E+03  4.51811E+03 -5.63012E+02  4.95019E+03  5.61947E+02  2.67148E+03  4.01279E+03
  1.75933E+03  3.66660E+03 -1.50199E+03  3.78091E+03 -1.51144E+03  1.72377E+03 -2.24183E+03  6.42319E+02
 -9.95682E+02 -7.39876E+02 -2.14635E+03  2.82517E+01 -1.15897E+03  9.53273E+02 -2.98167E+03 -1.44765E+03
 -4.54783E+03 -2.26467E+02 -4.19870E+02 -3.51124E+03  1.52167E+03 -4.06516E+03  2.54744E+03 -1.51071E+03
  4.46677E+03  8.82084E+02  2.36698E+03  1.96840E+03  1.23267E+03  3.18645E+03 -2.74315E+03  3.78313E+03
