 $NMID ID='MM_0lb_SNR200_9hz_g55_85.RAW', FMTDAT='(8E13.5)'
 TRAMP=1., VOLUME=1. $END
  3.08967E+05  8.29091E+02  3.39079E+05  2.51245E+05  8.50725E+04  3.38327E+05 -1.32766E+05  2.53306E+05
 -1.89876E+05  8.39559E+04 -1.13262E+05 -3.17663E+04  3.62005E+02 -5.02054E+04  5.36887E+04  1.07861E+02
  3.60125E+04  5.36570E+04 -1.48359E+04  7.71866E+04 -6.16859E+04  6.39699E+04 -8.62388E+04  3.30431E+04
 -8.35867E+04 -1.12883E+04 -5.72498E+04 -5.32873E+04 -1.65230E+04 -7.14493E+04  2.77873E+04 -4.68121E+04
  4.03778E+04  3.40789E+03  1.74462E+04  4.89989E+04 -3.41749E+04  4.83676E+04 -6.80672E+04 -1.15874E+03
 -5.51853E+04 -5.87342E+04 -8.04109E+03 -7.91536E+04  3.62946E+04 -5.74167E+04  4.92957E+04 -1.93791E+04
  4.55901E+04  1.21580E+04  3.36639E+04  2.75034E+04  1.55846E+04  3.10415E+04 -5.15285E+03  2.74567E+04
 -2.36410E+04  1.30572E+04 -1.82871E+04 -5.24172E+03  6.52285E+03 -6.48458E+03  2.38595E+04  1.36760E+04
  5.41427E+03  4.02401E+04 -3.39596E+04  3.73569E+04 -6.61570E+04  1.99213E+03 -5.90064E+04 -4.40273E+04
 -1.25977E+04 -6.61866E+04  4.15863E+04 -4.81806E+04  6.22243E+04 -1.88200E+03  3.61288E+04  3.55363E+04
 -5.52319E+03  3.92159E+04 -3.16623E+04  1.89371E+04 -3.41852E+04 -2.96532E+03 -1.91708E+04 -1.09580E+04
 -1.02832E+04 -1.59816E+04 -1.69521E+02 -1.94198E+04  8.27949E+03 -2.13634E+04  1.52953E+04 -1.35148E+04
  1.09603E+04  8.32745E+03 -1.05985E+04  1.46917E+04 -2.47482E+04 -7.05671E+03 -1.01273E+04 -3.78880E+04
  2.61977E+04 -4.85056E+04  5.37247E+04 -1.95734E+04  4.89085E+04  2.04696E+04  1.81634E+04  4.69569E+04
 -1.56057E+04  3.64690E+04 -2.88042E+04  2.28746E+03 -1.20194E+04 -3.07084E+04  2.21241E+04 -3.81342E+04
  4.46358E+04 -1.18140E+04  4.12330E+04  2.52169E+04  2.12107E+04  5.26086E+04 -8.30006E+03  5.55506E+04
 -3.56459E+04  3.88012E+04 -4.80183E+04  1.13584E+04 -4.85078E+04 -1.89029E+04 -2.72431E+04 -4.34599E+04
  8.37437E+03 -4.20083E+04  3.42143E+04 -1.68402E+04  3.44096E+04  1.07337E+04  6.54012E+03  2.18197E+04
 -1.30259E+04  9.63498E+03 -1.08444E+04 -7.33426E+03  5.13959E+03 -1.13631E+04  1.85980E+04  6.31762E+03
  1.52261E+04  2.19373E+04 -3.71865E+03  2.84442E+04 -2.39056E+04  1.45714E+04 -3.19648E+04 -2.79511E+03
 -2.41520E+04 -1.90065E+04 -1.20099E+04 -2.59220E+04  3.38908E+03 -2.72147E+04  2.01535E+04 -2.30149E+04
  3.24227E+04 -1.33424E+04  3.91427E+04  5.04433E+03  2.76461E+04  2.48643E+04  5.83848E+03  4.13675E+04
 -2.10750E+04  3.36510E+04 -3.20071E+04  1.21864E+04 -2.20538E+04 -1.13572E+04 -3.93558E+03 -1.38136E+04
  1.50067E+03 -7.21275E+02 -8.38803E+03  7.71923E+03 -1.91340E+04  5.77886E+03 -2.06263E+04 -1.00535E+04
 -1.24398E+04 -2.47225E+04  4.25236E+03 -2.95497E+04  1.94378E+04 -2.02951E+04  2.28142E+04 -2.84611E+02
  1.45032E+04  1.71046E+04 -2.12500E+03  2.31037E+04 -1.62760E+04  1.47267E+04 -2.40806E+04 -4.22617E+03
 -1.70527E+04 -2.24118E+04 -2.39651E+03 -2.73248E+04  1.23677E+04 -2.56320E+04  2.46613E+04 -1.27564E+04
  2.12508E+04 -5.08539E+01  1.44094E+04  4.27530E+03  8.13059E+03  1.56887E+03  1.22253E+04 -2.19155E+03
  2.28680E+04  2.48369E+03  2.55661E+04  1.98075E+04  1.64329E+04  3.86489E+04 -4.38565E+03  4.68739E+04
 -2.53674E+04  3.80586E+04 -4.27743E+04  2.00684E+04 -4.60994E+04 -3.81140E+03 -3.78607E+04 -2.71818E+04
 -1.50065E+04 -3.69813E+04  1.33322E+04 -3.38258E+04  2.82831E+04 -1.48994E+04  2.48792E+04  6.87900E+03
  9.63990E+03  1.95387E+04 -1.15940E+04  1.60278E+04 -1.94071E+04  1.54627E+03 -1.59244E+04 -1.43133E+04
 -5.32998E+01 -1.98213E+04  8.89782E+03 -1.45642E+04  1.27517E+04 -2.00387E+03  3.22284E+03  9.73357E+03
 -1.01184E+04  5.28586E+03 -9.17843E+03 -6.81877E+03 -3.00187E+03 -1.87193E+04  1.17375E+04 -1.94187E+04
  2.46263E+04 -1.05942E+04  2.75948E+04  1.97848E+03  2.33313E+04  1.89686E+04  1.05444E+04  2.94511E+04
 -5.65874E+03  3.41207E+04 -1.92790E+04  1.98104E+04 -2.36012E+04  1.19564E+03 -1.50568E+04 -6.38022E+03
 -6.50007E+03 -8.88071E+03 -1.18958E+03 -1.27776E+02 -3.35121E+03  4.13224E+03 -6.62428E+03  4.44670E+03
 -1.51323E+04  6.05041E+01 -1.56664E+04 -1.13810E+04 -5.54788E+03 -2.09289E+04  6.17053E+03 -1.64260E+04
  1.42822E+04 -5.78939E+03  8.93695E+03  5.67073E+03  1.61687E+03  5.61364E+03 -9.37023E+03 -1.59684E+03
 -7.41393E+03 -9.01483E+03 -1.16644E+03 -1.77832E+04  9.71060E+03 -1.76146E+04  2.06210E+04 -9.56587E+03
  2.57523E+04  2.06865E+03  1.72887E+04  1.58169E+04  2.71864E+03  2.02564E+04 -1.07372E+04  1.67664E+04
 -1.17030E+04  4.28258E+03 -7.23646E+03 -2.74749E+03  4.09033E+03 -5.70688E+03  7.93147E+03  3.57385E+01
  7.36608E+03  8.10811E+03 -1.07548E+02  1.38431E+04 -7.79677E+03  1.22023E+04 -1.48889E+04  3.48612E+03
 -1.15158E+04 -8.31002E+03  6.20697E+01 -1.40668E+04  7.28789E+03 -7.08219E+03  1.07198E+04  3.56131E+03
  2.13507E+03  9.42209E+03 -7.52362E+03  1.20438E+04 -1.42074E+04  5.52965E+03 -1.43330E+04 -5.70802E+03
 -8.81987E+03 -1.56468E+04  4.23468E+03 -1.97150E+04  1.47309E+04 -1.15308E+04  1.83799E+04  4.14862E+03
  1.05546E+04  1.20859E+04 -1.43555E+03  1.57186E+04 -1.08141E+04  1.00244E+04 -1.42596E+04 -1.80753E+03
 -1.08133E+04 -1.06165E+04 -1.98089E+03 -1.29455E+04  7.96372E+03 -9.74309E+03  8.82860E+03 -3.68583E+03
  3.70941E+03  1.94291E+03 -6.17456E+02  3.60179E+03 -2.32851E+02 -3.82680E+03  2.74275E+03 -6.63243E+03
  1.22207E+04 -5.43508E+03  1.70599E+04  5.54548E+01  1.50226E+04  1.23049E+04  1.10163E+04  2.03716E+04
 -4.38477E+03  2.44382E+04 -2.04184E+04  1.86877E+04 -2.72595E+04  3.75924E+03 -2.28518E+04 -9.16578E+03
 -1.02289E+04 -1.66759E+04 -1.80675E+02 -1.37625E+04  2.68469E+03 -8.59325E+03  4.97702E+03 -4.76243E+03
  4.39358E+03 -5.25591E+03  5.45661E+03 -2.60691E+03  5.55784E+03 -4.57078E+03  8.96022E+03 -1.69612E+03
  1.14804E+04  3.17819E+03  5.45112E+03  8.99889E+03 -2.99415E+03  1.07807E+04 -1.06376E+04  9.25123E+03
 -1.57325E+04 -1.47083E+03 -1.09277E+04 -1.17953E+04 -1.78446E+03 -1.72782E+04  8.20436E+03 -1.71949E+04
  1.66265E+04 -9.59172E+03  1.98117E+04  3.21362E+03  1.41757E+04  1.41936E+04  2.54954E+03  1.75846E+04
 -6.16507E+03  1.55460E+04 -1.10175E+04  4.69101E+03 -6.67424E+03 -1.14051E+03 -2.82693E+03 -3.03550E+03
 -1.50241E+03 -2.22097E+03 -2.47535E+03  3.80112E+03 -6.58059E+03  2.47759E+03 -9.99727E+03 -2.15532E+03
 -7.76369E+03 -1.01542E+04 -1.42788E+03 -1.52978E+04  8.84900E+03 -1.46976E+04  1.46942E+04 -5.16860E+03
  1.53721E+04  6.72260E+03  7.49496E+03  1.22434E+04 -2.64724E+03  1.56080E+04 -1.16851E+04  9.54322E+03
 -1.53190E+04  1.43332E+01 -1.09388E+04 -9.15341E+03 -1.01528E+03 -1.32930E+04  6.43691E+03 -8.63212E+03
  1.04497E+04 -3.40018E+03  6.38493E+03  3.25535E+03  1.27779E+03  3.41403E+03  1.73160E+03  2.64675E+03
  2.97658E+03 -4.51534E+02  2.95606E+03  1.94360E+03  3.13786E+03  5.05333E+03  5.53870E+03  9.21839E+03
 -2.61908E+03  1.16407E+04 -1.00022E+04  1.18788E+04 -1.74076E+04  3.66828E+03 -1.70593E+04 -8.04345E+03
 -6.78300E+03 -1.55468E+04  2.94503E+03 -1.72090E+04  9.97884E+03 -1.19892E+04  1.27688E+04 -2.73033E+03
  1.05031E+04  5.14436E+03  2.09079E+03  9.97474E+03 -4.72248E+03  7.07512E+03 -6.46612E+03 -6.56049E+02
 -3.90774E+03 -6.16235E+03  4.68087E+03 -7.18339E+03  6.68595E+03 -3.72702E+03  5.83960E+03  2.52009E+03
  3.65820E+03  3.98779E+03  2.70459E+03  1.68568E+03 -1.98380E+03  1.26557E+03  6.59213E+02 -1.60229E+03
  2.11767E+03 -1.04187E+03  7.31647E+03  2.79560E+03  4.43536E+03  9.00906E+03 -9.62833E+02  1.00375E+04
 -6.34494E+03  6.49782E+03 -9.94166E+03  3.17431E+03 -8.03071E+03 -4.44233E+03 -4.10335E+03 -5.44590E+03
  1.93300E+03 -5.33022E+03  4.15854E+03 -3.05226E+03  2.44807E+03  1.07863E+03 -1.99356E+02  4.72530E+03
 -6.42012E+03  3.39521E+03 -7.18618E+03 -2.71813E+03 -3.54311E+03 -8.40766E+03  3.51041E+02 -7.78844E+03
  4.43946E+03 -6.44611E+03  6.08054E+03 -1.16360E+03  5.24127E+03  1.32386E+03  8.25518E+02  5.95975E+03
 -2.97139E+03  8.51135E+02 -2.44946E+03 -3.26013E+03  3.66506E+02 -6.49995E+03  7.09049E+03 -6.29307E+03
  1.17837E+04  1.21362E+03  9.10276E+03  5.97726E+03  2.46861E+03  9.55482E+03 -4.63988E+03  1.04009E+04
 -9.03764E+03  5.60383E+03 -8.89516E+03 -7.23981E+02 -4.32442E+03 -6.78314E+03  1.40958E+03 -7.05926E+03
  6.43095E+03 -3.31908E+03  5.41855E+03  2.23175E+03  2.79528E+03  4.31543E+03 -1.06670E+03  5.48486E+03
 -2.25136E+03  4.50492E+03 -1.83759E+03  1.98351E+03 -1.68897E+03  1.57007E+03 -2.39766E+01  2.17536E+03
 -2.92914E+03  4.02131E+03 -5.97690E+03  2.86080E+03 -1.09317E+04  5.57065E+02 -1.25163E+04 -5.59212E+03
 -5.64343E+03 -1.34871E+04  1.89068E+03 -1.52735E+04  9.17829E+03 -1.47407E+04  1.60399E+04 -6.03402E+03
  1.37484E+04  3.33566E+03  1.02687E+04  9.52867E+03  1.67102E+03  1.04229E+04 -5.33119E+03  7.59510E+03
 -6.30840E+03  2.20445E+03 -2.73465E+03 -9.38949E+02 -1.41077E+03 -1.76910E+03 -1.94818E+01 -4.38802E+02
 -4.26487E+03  7.25676E+02 -1.65804E+03 -1.22429E+03 -1.93313E+03 -3.32702E+03  2.54411E+01 -4.54956E+03
  3.71146E+03 -3.85831E+03  6.64841E+03  1.35200E+03  8.42061E+03  5.57711E+03  1.30278E+03  1.16869E+04
 -6.11083E+03  1.01588E+04 -1.12284E+04  6.45925E+03 -1.35236E+04  2.45294E+02 -1.13013E+04 -7.43108E+03
 -3.84495E+03 -1.20415E+04  2.82871E+03 -9.77943E+03  6.37574E+03 -6.51205E+03  6.45570E+03  1.32526E+03
  5.17855E+03  2.86608E+03  1.82281E+02  3.13281E+03 -1.33116E+03 -1.61826E+03  3.80641E+02 -4.47399E+03
  3.18829E+03 -1.00073E+03  4.14732E+03  9.15327E+02  1.64106E+03  4.45350E+03  1.87196E+03  4.63248E+03
 -4.07985E+03  5.20883E+03 -7.34581E+03  2.68488E+02 -7.19304E+03 -3.93017E+03 -5.83268E+02 -8.33965E+03
  6.06298E+03 -7.11138E+03  8.64874E+03 -2.13851E+03  6.97947E+03  3.60749E+03  3.54345E+03  7.25269E+03
  5.84263E+02  6.98258E+03 -2.61154E+03  4.80620E+03 -4.48275E+03  4.37889E+03 -2.75191E+03  1.35313E+03
 -2.52020E+03  1.45046E+03 -3.21791E+03  1.83441E+03 -2.87701E+03  9.25520E+02 -5.85065E+03  8.05406E+02
 -4.82236E+03 -3.15344E+03 -9.52749E+02 -6.36225E+03  4.59579E+03 -6.97827E+03  5.70113E+03 -3.24658E+03
  6.54882E+03  1.98071E+03  4.89235E+03  5.95860E+03  5.10097E+02  7.07868E+03 -5.90655E+03  5.77941E+03
