 $NMID ID='MM_0lb_SNR200_8hz_g55_62.RAW', FMTDAT='(8E13.5)'
 TRAMP=1., VOLUME=1. $END
  3.10989E+05  3.86536E+02  3.36990E+05  2.50055E+05  8.45222E+04  3.38903E+05 -1.32627E+05  2.52117E+05
 -1.92317E+05  8.30489E+04 -1.12861E+05 -3.16385E+04  7.32335E+02 -5.14501E+04  5.40725E+04 -2.52478E+03
  3.48887E+04  5.14090E+04 -1.86819E+04  7.77092E+04 -6.22251E+04  6.50390E+04 -8.49356E+04  3.29350E+04
 -8.35784E+04 -1.23586E+04 -5.94728E+04 -5.14765E+04 -1.49074E+04 -7.09029E+04  2.89107E+04 -4.80131E+04
  4.15374E+04  3.75352E+03  1.68498E+04  5.07681E+04 -3.53779E+04  4.83524E+04 -6.79281E+04 -2.73243E+02
 -5.50777E+04 -5.89951E+04 -8.18773E+03 -7.86991E+04  3.57272E+04 -5.81141E+04  5.06724E+04 -1.76644E+04
  4.62743E+04  1.12484E+04  3.44883E+04  2.75508E+04  1.57056E+04  3.05808E+04 -5.15036E+03  2.80528E+04
 -2.24695E+04  1.18866E+04 -1.66274E+04 -5.76049E+03  7.10944E+03 -7.00157E+03  2.46739E+04  1.46164E+04
  4.97087E+03  3.92531E+04 -3.49704E+04  3.79000E+04 -6.69516E+04  2.84660E+03 -6.09249E+04 -4.35706E+04
 -1.26401E+04 -6.64849E+04  4.20193E+04 -4.74183E+04  6.32855E+04 -3.31416E+03  3.76884E+04  3.47745E+04
 -4.49312E+03  4.00549E+04 -3.27038E+04  1.97976E+04 -3.43260E+04 -1.89508E+03 -1.94228E+04 -1.32947E+04
 -9.53348E+03 -1.52422E+04 -1.29966E+03 -2.04643E+04  8.10898E+03 -2.28884E+04  1.59618E+04 -1.31538E+04
  9.32929E+03  4.55332E+03 -1.04543E+04  1.14146E+04 -2.43063E+04 -7.98721E+03 -1.02345E+04 -3.84349E+04
  2.62024E+04 -4.76127E+04  5.37307E+04 -2.02163E+04  5.01958E+04  2.16926E+04  1.68297E+04  4.75909E+04
 -1.82718E+04  3.49126E+04 -2.73404E+04  1.66315E+03 -1.37300E+04 -3.11770E+04  2.10130E+04 -3.79122E+04
  4.61617E+04 -1.06998E+04  4.00566E+04  2.44754E+04  2.25171E+04  5.18072E+04 -8.64991E+03  5.77399E+04
 -3.67580E+04  3.96373E+04 -4.81388E+04  1.16924E+04 -5.02744E+04 -1.76220E+04 -2.72637E+04 -4.33685E+04
  7.27352E+03 -4.37959E+04  3.50836E+04 -1.79069E+04  3.30489E+04  9.82713E+03  5.57375E+03  2.28628E+04
 -1.44460E+04  1.04334E+04 -1.09431E+04 -6.70339E+03  4.67703E+03 -1.05870E+04  1.81321E+04  5.75032E+03
  1.52796E+04  2.20525E+04 -6.83887E+03  2.82254E+04 -2.53662E+04  1.52324E+04 -3.24422E+04 -2.96032E+03
 -2.69633E+04 -1.92875E+04 -1.19610E+04 -2.70718E+04  4.37120E+03 -2.68174E+04  2.11104E+04 -2.40231E+04
  3.38937E+04 -1.48292E+04  4.06039E+04  4.69368E+03  2.85324E+04  2.57745E+04  4.67164E+03  4.34555E+04
 -2.04332E+04  3.25682E+04 -3.25514E+04  1.30188E+04 -2.35866E+04 -9.81482E+03 -7.34830E+03 -1.19631E+04
  5.89119E+02 -1.48148E+03 -8.73703E+03  9.29831E+03 -2.03291E+04  5.22874E+03 -2.09609E+04 -1.03483E+04
 -1.18793E+04 -2.43632E+04  5.44455E+03 -2.97940E+04  1.80574E+04 -2.09630E+04  2.37337E+04 -2.55093E+03
  1.48930E+04  1.70834E+04 -2.27626E+03  2.32724E+04 -1.76258E+04  1.55009E+04 -2.59451E+04 -5.61783E+03
 -1.78947E+04 -2.29174E+04 -1.41044E+03 -2.96472E+04  1.25989E+04 -2.45870E+04  2.32484E+04 -1.02261E+04
  2.30498E+04 -8.06223E+01  1.70867E+04  6.32366E+03  9.51422E+03  2.95217E+03  1.26741E+04 -2.74861E+03
  2.53026E+04  3.15643E+03  2.73299E+04  2.12058E+04  1.78008E+04  4.01877E+04 -2.00994E+03  4.99548E+04
 -2.69837E+04  3.94580E+04 -4.49415E+04  2.03793E+04 -4.71134E+04 -3.41030E+03 -3.85783E+04 -2.69818E+04
 -1.40402E+04 -4.11338E+04  1.47224E+04 -3.47960E+04  3.01237E+04 -1.67324E+04  2.50928E+04  9.24383E+03
  9.19676E+03  2.17104E+04 -1.38775E+04  1.76631E+04 -2.11504E+04  1.89674E+03 -1.48973E+04 -1.38212E+04
 -4.73615E+02 -2.00500E+04  1.17854E+04 -1.55472E+04  1.42471E+04 -1.01052E+03  3.61666E+03  1.11603E+04
 -9.24880E+03  3.94981E+03 -1.05738E+04 -8.25697E+03 -1.70795E+03 -2.05560E+04  1.35448E+04 -2.17890E+04
  2.39643E+04 -1.32973E+04  2.85722E+04  4.46303E+03  2.52283E+04  2.11795E+04  1.16024E+04  3.41795E+04
 -7.17342E+03  3.40477E+04 -2.25854E+04  2.04926E+04 -2.49143E+04  4.18997E+03 -1.67246E+04 -7.90550E+03
 -8.37597E+03 -7.43765E+03  1.41571E+03  1.18323E+03 -2.93452E+03  4.36798E+03 -1.06919E+04  5.61452E+03
 -1.55155E+04 -7.69325E+02 -1.54006E+04 -1.31866E+04 -7.21306E+03 -2.12669E+04  7.24639E+03 -1.81393E+04
  1.43140E+04 -8.47107E+03  1.06670E+04  4.95811E+03 -2.37985E+03  7.84350E+03 -8.00776E+03  8.31256E+02
 -1.02130E+04 -1.11093E+04  7.27537E+02 -1.81794E+04  1.15083E+04 -1.74362E+04  2.21381E+04 -9.54615E+03
  2.66836E+04  2.49793E+03  2.08595E+04  1.52278E+04  4.78597E+03  2.20408E+04 -1.10724E+04  1.40999E+04
 -1.43040E+04  4.80224E+03 -8.69596E+03 -3.43087E+03  2.57229E+03 -5.57025E+03  7.30144E+03 -2.36985E+02
  6.89506E+03  7.99571E+03  1.86983E+03  1.22253E+04 -1.07870E+04  1.28498E+04 -1.81677E+04  2.99489E+03
 -1.15468E+04 -1.00406E+04 -8.05835E+02 -1.54230E+04  8.66613E+03 -5.94052E+03  1.22838E+04  3.80289E+03
  2.10156E+03  1.08880E+04 -9.45573E+03  1.36373E+04 -1.50125E+04  4.38914E+03 -1.52040E+04 -6.05331E+03
 -8.21816E+03 -1.84584E+04  4.25316E+03 -2.05787E+04  1.72252E+04 -1.18982E+04  2.06578E+04  3.53867E+03
  1.04509E+04  1.63096E+04 -1.44336E+03  1.68755E+04 -1.36508E+04  1.04219E+04 -1.42654E+04 -1.23873E+03
 -1.15360E+04 -1.20058E+04 -5.35398E+00 -1.23784E+04  6.71297E+03 -1.14589E+04  8.48936E+03 -4.21646E+03
  5.29798E+03  2.90209E+03 -1.48552E+03  1.91322E+03 -2.63597E+03 -4.86312E+03  2.26082E+03 -8.89094E+03
  1.13629E+04 -5.09528E+03  1.77173E+04  4.12572E+03  1.89930E+04  1.21553E+04  1.05361E+04  2.37078E+04
 -6.09911E+03  2.67788E+04 -2.24710E+04  1.94935E+04 -2.84485E+04  4.65791E+03 -2.36877E+04 -8.74091E+03
 -9.55516E+03 -1.98931E+04 -1.45632E+03 -1.71450E+04  6.10204E+03 -9.58887E+03  5.28209E+03 -5.79555E+03
  3.83062E+03 -5.52643E+03  2.62790E+03 -6.20328E+03  4.85403E+03 -3.66007E+03  9.28964E+03 -2.01605E+03
  1.10660E+04  3.03059E+03  7.64506E+03  1.01723E+04 -1.92085E+03  1.42170E+04 -1.23066E+04  9.61690E+03
 -1.59256E+04 -1.01012E+03 -1.19638E+04 -1.17027E+04 -3.01752E+03 -1.90314E+04  9.75595E+03 -1.79736E+04
  1.98852E+04 -8.56917E+03  2.21491E+04  3.02238E+03  1.52673E+04  1.44170E+04  1.57500E+03  2.09508E+04
 -9.26272E+03  1.64138E+04 -1.33870E+04  3.67921E+03 -7.07158E+03 -3.59472E+02 -3.46023E+03 -2.54712E+03
 -1.86367E+03 -7.17043E+02 -3.29933E+03  1.58888E+03 -6.34790E+03  3.62739E+03 -1.05299E+04 -2.54102E+03
 -7.79787E+03 -1.08620E+04 -1.77299E+03 -1.91035E+04  9.80455E+03 -1.66019E+04  1.78511E+04 -6.19453E+03
  1.79813E+04  6.50067E+03  8.66071E+03  1.53563E+04 -2.48809E+03  1.65188E+04 -1.12913E+04  1.18290E+04
 -1.78160E+04 -2.26406E+02 -1.11785E+04 -9.60954E+03 -2.71117E+03 -1.46899E+04  5.96102E+03 -1.21851E+04
  1.08214E+04 -2.42399E+03  9.10274E+03  2.99316E+03  1.83314E+03  5.48684E+03  7.09112E+02  1.87972E+03
  2.83166E+03  9.37367E+02  3.90153E+03  8.62028E+02  4.84775E+03  6.20328E+03  4.01583E+03  8.99401E+03
 -4.04608E+03  1.33590E+04 -1.23363E+04  1.43963E+04 -1.97858E+04  3.14107E+03 -1.86026E+04 -8.57840E+03
 -8.51530E+03 -2.02351E+04  2.87406E+03 -1.77327E+04  1.24861E+04 -1.36208E+04  1.63323E+04 -3.80416E+03
  1.14070E+04  4.11290E+03  1.20851E+03  9.91245E+03 -5.05454E+03  7.09848E+03 -6.88267E+03 -1.36529E+03
 -3.73630E+03 -7.41004E+03  3.51246E+03 -9.96340E+03  9.06272E+03 -3.63323E+03  7.12944E+03  1.16527E+03
  5.47451E+03  3.60599E+03  1.72630E+03  3.12844E+03 -1.08413E+03  1.54844E+03  1.62527E+03 -4.46208E+02
  2.89667E+03 -1.93358E+03  8.80387E+03  3.38480E+03  3.85319E+03  9.54420E+03 -8.50080E+02  1.20423E+04
 -7.28787E+03  9.12617E+03 -1.10598E+04  1.74800E+03 -1.01135E+04 -3.98441E+03 -3.57166E+03 -8.27270E+03
  1.42924E+02 -6.23090E+03  4.74818E+03 -2.49138E+03  3.72017E+03  4.26164E+03 -8.53739E+02  5.86590E+03
 -9.43210E+03  4.48378E+03 -7.88865E+03 -5.07502E+03 -5.23849E+03 -1.02368E+04  1.44675E+02 -9.83242E+03
  5.35382E+03 -5.74853E+03  8.62594E+03 -2.33213E+03  6.56791E+03  3.68260E+03 -2.28099E+02  5.59693E+03
 -3.20051E+03  2.70230E+03 -3.07823E+03 -2.30361E+03 -5.08891E+02 -8.72328E+03  1.02768E+04 -5.30022E+03
  1.11181E+04 -2.57631E+02  1.24730E+04  9.31391E+03  4.58257E+03  1.24445E+04 -2.67487E+03  1.46763E+04
 -1.02958E+04  8.18180E+03 -1.10050E+04  1.54931E+02 -5.29326E+03 -8.46831E+03  2.80857E+03 -6.63422E+03
  7.89223E+03 -5.09710E+03  6.95857E+03  4.38651E+03  1.54211E+03  6.80944E+03 -1.73422E+03  4.96601E+03
 -2.51365E+03  5.24390E+03 -4.18616E+03  2.22229E+03 -1.68120E+03  4.92300E+02 -2.65296E+03  8.04658E+02
 -3.30967E+03  2.62348E+03 -7.83597E+03  3.93024E+03 -1.13207E+04  3.59707E+02 -1.25475E+04 -7.39140E+03
 -8.56286E+03 -1.59154E+04  3.77782E+03 -1.82199E+04  1.17718E+04 -1.56007E+04  1.66620E+04 -5.77133E+03
  1.54363E+04  4.73608E+03  1.20064E+04  1.17305E+04  5.75439E+02  1.42109E+04 -6.26730E+03  8.56909E+03
 -6.83660E+03  2.14722E+03 -4.32461E+03 -1.92651E+03 -2.15620E+03 -9.04033E+02 -8.22467E+02  1.52106E+02
 -2.53665E+03  7.71159E+02 -2.65975E+03 -2.64506E+03 -1.66154E+03 -2.95885E+03  9.75782E+02 -2.98202E+03
  4.30077E+03 -7.36766E+02  7.43245E+03 -8.14593E+02  1.06506E+04  8.06483E+03  3.51940E+03  1.30259E+04
 -5.92385E+03  1.50177E+04 -1.30763E+04  8.62324E+03 -1.43924E+04 -1.70401E+03 -1.23097E+04 -1.07511E+04
 -4.22477E+03 -1.32519E+04  2.49706E+03 -1.21167E+04  9.77208E+03 -5.84324E+03  9.61934E+03  7.23334E+02
  6.05961E+03  5.46699E+03 -1.29336E+03  2.88661E+03 -3.23845E+03 -3.20160E+02 -2.33728E+03 -2.76542E+03
  4.09821E+03 -1.97842E+03  6.46853E+03  7.26771E+02  3.89899E+03  4.32091E+03 -4.55182E+02  6.78851E+03
 -6.92202E+03  6.17689E+03 -9.47577E+03  1.33819E+03 -7.65061E+03 -6.68766E+03 -2.28082E+03 -1.13839E+04
  7.08870E+03 -9.72306E+03  1.03003E+04 -3.30541E+03  9.51887E+03  1.45531E+03  6.80950E+03  8.45264E+03
  8.78626E+02  1.02240E+04 -3.51223E+03  7.08652E+03 -5.57992E+03  2.90388E+03 -4.66728E+03 -3.81666E+02
 -2.86164E+03 -7.91763E+02 -2.52086E+03  1.57886E+03 -4.27481E+03  1.02622E+03 -8.23262E+03 -1.14583E+03
 -4.71855E+03 -5.55295E+03 -1.36382E+03 -9.35293E+03  4.98765E+03 -7.72268E+03  7.88632E+03 -4.18988E+03
  1.00378E+04 -7.76073E+01  4.97804E+03  5.74667E+03 -1.73794E+03  1.01650E+04 -4.90987E+03  5.83329E+03
