 $NMID ID='MM_0lb_SNR200_12hz_g50_57.RAW', FMTDAT='(8E13.5)'
 TRAMP=1., VOLUME=1. $END
  3.10493E+05  5.44089E+02  3.38013E+05  2.50514E+05  8.46769E+04  3.37783E+05 -1.31623E+05  2.51685E+05
 -1.90759E+05  8.26733E+04 -1.10995E+05 -3.31721E+04  8.59835E+02 -5.16879E+04  5.31089E+04 -1.38026E+03
  3.62645E+04  5.29644E+04 -1.60007E+04  7.47362E+04 -6.22930E+04  6.46423E+04 -8.52012E+04  3.16660E+04
 -8.18852E+04 -1.16781E+04 -5.92115E+04 -5.18017E+04 -1.45957E+04 -7.01459E+04  2.79329E+04 -4.54465E+04
  4.08649E+04  2.65687E+03  1.56004E+04  4.84086E+04 -3.53546E+04  4.76970E+04 -6.72905E+04  2.57131E+02
 -5.36814E+04 -5.78318E+04 -6.71389E+03 -7.87770E+04  3.38761E+04 -5.56576E+04  4.89196E+04 -1.72168E+04
  4.52503E+04  1.09444E+04  3.21109E+04  2.45452E+04  1.69101E+04  2.98637E+04 -6.50946E+03  2.53861E+04
 -2.13243E+04  1.19602E+04 -1.74085E+04 -4.09184E+03  6.22225E+03 -6.63887E+03  2.34409E+04  1.13840E+04
  6.80476E+03  3.61207E+04 -3.26575E+04  3.55230E+04 -6.49543E+04  1.66220E+03 -5.69817E+04 -4.42239E+04
 -1.15680E+04 -6.44948E+04  4.07422E+04 -4.66756E+04  5.99302E+04 -2.35273E+03  3.59930E+04  3.29615E+04
 -5.52114E+03  3.69661E+04 -3.11833E+04  1.70876E+04 -3.23287E+04 -4.42334E+03 -1.83576E+04 -1.09181E+04
 -8.21904E+03 -1.36545E+04  1.12874E+02 -1.72602E+04  7.41792E+03 -2.37273E+04  1.65105E+04 -1.22283E+04
  1.09365E+04  5.50223E+03 -8.78235E+03  1.26020E+04 -2.20165E+04 -4.71396E+03 -8.31613E+03 -3.40310E+04
  2.47785E+04 -4.51715E+04  4.90885E+04 -1.95309E+04  4.57136E+04  2.08055E+04  1.70631E+04  4.53690E+04
 -1.63640E+04  3.49930E+04 -2.74760E+04  6.63994E+02 -9.97709E+03 -2.80670E+04  2.00543E+04 -3.63062E+04
  4.36591E+04 -9.81651E+03  3.71060E+04  2.46050E+04  1.86219E+04  4.78078E+04 -8.70119E+03  5.24754E+04
 -3.27095E+04  3.58435E+04 -4.46206E+04  9.13173E+03 -4.30159E+04 -1.80629E+04 -2.51989E+04 -3.89978E+04
  7.73458E+03 -4.05773E+04  3.22726E+04 -1.51862E+04  3.13745E+04  1.07483E+04  4.07424E+03  1.93442E+04
 -1.37627E+04  8.73080E+03 -1.17582E+04 -7.18202E+03  5.79904E+03 -1.14215E+04  1.80696E+04  6.28918E+03
  1.29670E+04  2.23829E+04 -6.23630E+03  2.56072E+04 -2.23644E+04  1.33493E+04 -2.98241E+04 -4.98052E+03
 -2.28546E+04 -1.76882E+04 -1.01957E+04 -2.18606E+04  3.53939E+03 -2.06741E+04  1.87034E+04 -1.98709E+04
  2.89648E+04 -1.32000E+04  3.60540E+04  3.33208E+03  2.65443E+04  2.13056E+04  4.72318E+03  3.77944E+04
 -1.87944E+04  3.12939E+04 -2.97905E+04  1.15378E+04 -1.96141E+04 -1.02294E+04 -4.31363E+03 -1.31862E+04
  1.92003E+03 -1.81086E+03 -7.33548E+03  7.71993E+03 -1.88025E+04  5.87577E+03 -1.74167E+04 -6.97959E+03
 -9.90666E+03 -2.17379E+04  4.76024E+03 -2.51534E+04  1.58043E+04 -1.69596E+04  1.87131E+04 -1.12272E+03
  1.24416E+04  1.43473E+04 -2.77491E+03  2.02211E+04 -1.44446E+04  1.13044E+04 -2.13870E+04 -5.05346E+03
 -1.55554E+04 -1.93331E+04 -2.23546E+03 -2.56072E+04  1.17286E+04 -2.00809E+04  2.11895E+04 -1.07987E+04
  1.83555E+04  1.06805E+03  1.45228E+04  3.95081E+03  8.04479E+03  1.90413E+03  1.31208E+04 -2.16769E+03
  1.91421E+04  3.13384E+03  2.15503E+04  1.56945E+04  1.45693E+04  3.28256E+04 -1.85385E+03  3.73840E+04
 -2.22861E+04  2.99230E+04 -3.54489E+04  1.63562E+04 -3.60874E+04 -1.13511E+03 -3.09061E+04 -2.17735E+04
 -1.25870E+04 -3.23664E+04  1.07088E+04 -2.64351E+04  2.30175E+04 -1.52538E+04  2.07007E+04  5.31499E+03
  7.29785E+03  1.45478E+04 -1.09010E+04  1.42812E+04 -1.71650E+04  4.11263E+03 -1.41206E+04 -1.11288E+04
 -5.88701E+02 -1.80420E+04  8.43906E+03 -1.21659E+04  1.07289E+04 -3.02354E+03  2.27601E+03  7.16642E+03
 -7.87428E+03  4.23752E+03 -8.09484E+03 -6.77766E+03 -2.50850E+03 -1.53345E+04  9.77811E+03 -1.69229E+04
  1.78187E+04 -8.75137E+03  2.12435E+04  1.66617E+03  1.76753E+04  1.55083E+04  8.85553E+03  2.25245E+04
 -3.38972E+03  2.45478E+04 -1.80262E+04  1.74111E+04 -1.91663E+04  3.03533E+03 -1.33174E+04 -5.47330E+03
 -6.43837E+03 -5.40772E+03  9.75078E+01  1.83842E+02 -1.30394E+03  2.80446E+03 -6.61256E+03  4.89716E+03
 -1.26918E+04 -1.36559E+03 -1.18888E+04 -9.61028E+03 -5.42554E+03 -1.65764E+04  4.77467E+03 -1.29273E+04
  1.24208E+04 -5.25549E+03  8.25312E+03  5.06600E+03 -4.57107E+02  5.75948E+03 -5.17130E+03  4.38479E+02
 -5.08907E+03 -8.42222E+03 -1.59794E+03 -1.29521E+04  6.60271E+03 -1.29777E+04  1.71881E+04 -8.00712E+03
  1.97603E+04  2.36572E+03  1.34998E+04  1.05032E+04  1.85423E+03  1.51947E+04 -7.48309E+03  1.28206E+04
 -1.10346E+04  3.75228E+03 -4.42114E+03 -3.16462E+03  1.82390E+03 -4.07034E+03  6.72542E+03 -6.41754E+02
  5.46217E+03  5.78011E+03  7.36780E+02  1.03675E+04 -6.47141E+03  1.08537E+04 -1.22716E+04  2.57743E+03
 -7.47254E+03 -6.63092E+03  7.74879E+02 -1.10744E+04  6.94649E+03 -5.90290E+03  5.99981E+03  2.78834E+03
  2.21410E+03  7.42124E+03 -7.23291E+03  8.31396E+03 -9.90677E+03  4.24923E+03 -9.10519E+03 -4.44254E+03
 -4.64003E+03 -1.22531E+04  3.49053E+03 -1.31221E+04  1.03451E+04 -9.44941E+03  1.25424E+04  7.33662E+02
  6.99902E+03  9.99435E+03 -1.94622E+03  1.27532E+04 -9.49972E+03  6.52666E+03 -9.69702E+03 -8.74008E+02
 -8.00744E+03 -7.90757E+03 -2.62646E+03 -1.04618E+04  5.19866E+03 -7.38980E+03  4.56120E+03 -4.39310E+03
  4.55529E+03  2.07070E+03 -5.06702E+02  2.36650E+03 -8.25954E+02 -1.74359E+03  1.31182E+03 -5.24356E+03
  8.53979E+03 -3.17561E+03  1.13360E+04  2.64014E+03  1.11914E+04  9.13679E+03  9.03969E+03  1.49073E+04
 -3.62001E+03  1.78762E+04 -1.52758E+04  1.43088E+04 -1.85533E+04  2.91281E+03 -1.58147E+04 -5.98911E+03
 -9.30162E+03 -1.36923E+04 -4.48088E+02 -1.23089E+04  2.89651E+03 -6.06286E+03  3.21782E+03 -3.09177E+03
  2.96795E+03 -2.26736E+03  3.97841E+03 -3.89851E+03  3.61925E+03 -3.08531E+03  5.80966E+03 -4.37603E+02
  6.31953E+03  1.75695E+03  5.52973E+03  6.76904E+03 -1.37740E+03  8.98883E+03 -8.21106E+03  5.65818E+03
 -9.79091E+03 -1.47579E+03 -5.89282E+03 -9.11418E+03 -1.18815E+03 -1.00610E+04  5.97388E+03 -1.02137E+04
  1.28454E+04 -6.46426E+03  1.47476E+04  2.24307E+03  9.43455E+03  9.25568E+03  3.81966E+02  1.21774E+04
 -5.38832E+03  1.09573E+04 -7.29534E+03  4.33841E+03 -5.78209E+03 -1.16444E+03 -1.71406E+03 -1.53689E+03
 -2.19651E+03  1.79321E+03 -2.06757E+03  2.01979E+03 -4.02982E+03  1.21009E+03 -7.56714E+03 -1.57018E+03
 -4.33374E+03 -6.51658E+03  4.96770E+02 -1.01837E+04  6.50670E+03 -1.01442E+04  9.45901E+03 -3.24225E+03
  9.67439E+03  4.24187E+03  4.92714E+03  9.94037E+03 -3.56103E+03  1.12642E+04 -6.33105E+03  6.85102E+03
 -8.99650E+03  1.46384E+03 -8.21665E+03 -7.02687E+03 -4.06064E+02 -9.29480E+03  4.63575E+03 -6.05613E+03
  6.88613E+03 -2.48822E+03  3.72527E+03  1.16068E+03  1.98144E+03  2.50441E+03  2.98873E+02  4.11058E+00
  2.51321E+03  7.68454E+02  3.47627E+03  2.48043E+03  2.45395E+03  3.15420E+03  2.81311E+03  5.08527E+03
 -2.93806E+03  8.32839E+03 -6.74053E+03  9.19869E+03 -1.01406E+04  2.28516E+03 -1.06565E+04 -5.02778E+03
 -4.41859E+03 -9.12259E+03  2.17705E+03 -1.14064E+04  6.02376E+03 -6.26481E+03  7.65855E+03 -2.18373E+03
  6.31487E+03  4.46222E+03  6.15588E+02  5.84062E+03 -2.10955E+03  3.64947E+03 -4.56364E+03 -1.09972E+03
 -1.01338E+03 -5.52016E+03  3.52217E+03 -5.21412E+03  4.05464E+03 -1.69290E+03  5.32531E+03  1.08765E+03
  2.60123E+03  2.32606E+03  1.37625E+03  2.65076E+03 -9.26099E+02  1.44622E+03  2.09555E+03  3.82542E+02
  1.53415E+02 -1.36538E+03  3.84452E+03  1.54226E+03  3.71002E+03  5.50806E+03 -8.24897E+02  8.00149E+03
 -5.10875E+03  3.43236E+03 -6.85209E+03  2.03251E+03 -5.89536E+03 -1.33283E+03 -1.09249E+03 -5.16365E+03
  1.41662E+03 -4.18623E+03  1.80206E+03 -1.12329E+03  2.06283E+03  1.68637E+03 -5.41960E+02  3.47632E+03
 -3.77554E+03  1.50978E+03 -3.74205E+03 -2.38111E+03 -1.93525E+03 -6.11564E+03  2.84455E+02 -4.80542E+03
  3.32417E+03 -3.29307E+03  3.12417E+03  3.04447E+02  3.31275E+03  2.31952E+03  9.60461E+02  2.88120E+03
 -1.58856E+03  5.57733E+02 -2.08945E+03 -1.00598E+03 -4.08766E+02 -3.73312E+03  6.07031E+03 -2.45310E+03
  5.53342E+03  1.21005E+03  6.02500E+03  4.02392E+03  1.60999E+03  6.96766E+03 -2.24817E+03  6.29089E+03
 -4.43150E+03  1.51662E+03 -3.43244E+03 -5.29377E+02 -3.98424E+03 -4.51795E+03  8.18128E+02 -5.64382E+03
  3.95866E+03 -2.04291E+03  2.96601E+03  1.15381E+03  2.48480E+03  3.86457E+03 -7.28355E+02  3.84826E+03
 -2.13229E+03  1.32524E+03 -1.86075E+03  4.75903E+02 -7.31664E+02 -4.54256E+02 -7.63666E+02  1.32273E+03
 -1.58721E+03  2.39195E+03 -3.31541E+03  1.37691E+03 -6.79184E+03 -5.12712E+02 -7.43975E+03 -4.09359E+03
 -4.79705E+03 -8.57790E+03  8.86942E+02 -1.02655E+04  4.33072E+03 -8.38147E+03  9.67027E+03 -1.62056E+03
  8.65765E+03  1.86655E+03  4.43071E+03  4.12714E+03 -9.93069E+02  5.89046E+03 -3.64284E+03  3.20268E+03
 -3.27824E+03  1.90982E+03 -2.53152E+03 -7.86377E+02 -1.37133E+03 -6.36811E+02 -1.49379E+03  7.38516E+02
 -1.91478E+03 -1.17546E+02 -2.52177E+03  1.44804E+03 -6.05572E+02 -7.48894E+02  1.75714E+03 -2.02225E+03
  1.28608E+03 -1.39686E+03  2.54114E+03  7.64743E+02  3.64214E+03  2.48036E+03  1.60816E+03  6.42104E+03
 -2.28856E+03  7.59664E+03 -6.56115E+03  2.46790E+03 -8.26460E+03 -9.04130E+02 -5.46719E+03 -5.86509E+03
 -2.62445E+03 -5.25567E+03  1.46873E+03 -5.62251E+03  4.68395E+03 -2.16278E+03  4.22778E+03 -1.21585E+02
  3.09104E+03  1.73664E+03 -9.87271E+02  1.26651E+03 -2.00984E+03 -4.04113E+02  2.33996E+03 -1.16554E+03
  1.47565E+03 -2.40621E+03  2.33047E+03  1.48668E+03  2.06969E+03  2.09093E+03  1.30838E+02  1.80511E+03
 -1.58638E+03  5.19518E+03 -2.95978E+03 -8.83522E+02 -4.42355E+03 -3.94446E+03  2.70565E+02 -5.73711E+03
  1.72510E+03 -4.89452E+03  3.57761E+03 -1.66370E+03  4.78977E+03  6.90679E+02  3.10898E+03  4.83435E+03
  8.39785E+02  3.35759E+03 -1.53696E+03  2.93757E+03 -2.86709E+03  2.76816E+03 -1.37166E+03 -1.32684E+03
 -1.25099E+03  5.27570E+01 -1.72265E+01 -7.39885E+01 -9.79015E+02  2.22886E+02 -3.61982E+03 -1.80270E+03
 -2.31946E+03 -1.64576E+03 -1.43259E+03 -3.02116E+03  1.66591E+03 -3.53530E+03  4.42717E+03 -1.61716E+03
  3.56258E+03  1.06352E+03  3.67239E+03  2.56801E+03  1.77508E+02  3.84596E+03 -2.58797E+03  2.18472E+03
