 $NMID ID='MM_0lb_SNR200_11hz_g60_5.RAW', FMTDAT='(8E13.5)'
 TRAMP=1., VOLUME=1. $END
  3.09619E+05 -3.49055E+02  3.37516E+05  2.50839E+05  8.47787E+04  3.38211E+05 -1.33203E+05  2.51408E+05
 -1.90785E+05  8.22105E+04 -1.12576E+05 -3.26468E+04  1.72014E+01 -5.18399E+04  5.37055E+04 -2.93822E+02
  3.55017E+04  5.32671E+04 -1.68953E+04  7.58698E+04 -6.06477E+04  6.34899E+04 -8.55333E+04  3.13131E+04
 -8.29259E+04 -1.18776E+04 -5.78844E+04 -5.23148E+04 -1.39874E+04 -7.02900E+04  2.88949E+04 -4.75120E+04
  4.09641E+04  4.54229E+03  1.54611E+04  4.86546E+04 -3.51223E+04  4.85293E+04 -6.92748E+04  4.41599E+02
 -5.44699E+04 -5.70390E+04 -7.26270E+03 -7.81897E+04  3.50051E+04 -5.72930E+04  4.95626E+04 -1.87961E+04
  4.48511E+04  1.12500E+04  3.27851E+04  2.52769E+04  1.51528E+04  2.99506E+04 -5.05541E+03  2.79249E+04
 -2.18538E+04  1.19553E+04 -1.73406E+04 -5.47700E+03  7.14175E+03 -7.37452E+03  2.27397E+04  1.52240E+04
  6.92981E+03  3.70051E+04 -3.47644E+04  3.76552E+04 -6.60647E+04  2.86493E+03 -5.88368E+04 -4.51665E+04
 -1.18639E+04 -6.42446E+04  4.11237E+04 -4.72350E+04  6.34434E+04 -2.07159E+03  3.54958E+04  3.48575E+04
 -6.36112E+03  4.00338E+04 -3.20368E+04  1.86064E+04 -3.29800E+04 -3.62068E+03 -1.86613E+04 -1.30268E+04
 -1.02415E+04 -1.37719E+04 -1.69589E+03 -1.80823E+04  9.01352E+03 -2.45658E+04  1.60048E+04 -1.17251E+04
  9.14921E+03  6.28473E+03 -1.10820E+04  1.23589E+04 -2.29587E+04 -4.61608E+03 -9.66091E+03 -3.67025E+04
  2.43888E+04 -4.76655E+04  5.10106E+04 -2.04630E+04  4.93395E+04  2.11046E+04  1.57208E+04  4.64151E+04
 -1.66167E+04  3.47384E+04 -2.78527E+04  2.81331E+03 -1.08015E+04 -2.88232E+04  2.15727E+04 -3.78367E+04
  4.38828E+04 -1.14849E+04  3.97631E+04  2.60843E+04  2.03268E+04  5.07691E+04 -9.42829E+03  5.45153E+04
 -3.45575E+04  3.70758E+04 -4.72298E+04  1.00798E+04 -4.65950E+04 -1.88521E+04 -2.54759E+04 -4.10809E+04
  7.82569E+03 -4.16090E+04  3.44810E+04 -1.72274E+04  3.13132E+04  1.19019E+04  6.05484E+03  2.16650E+04
 -1.40089E+04  7.85883E+03 -1.08393E+04 -7.93281E+03  4.74302E+03 -1.05548E+04  1.76401E+04  5.75803E+03
  1.41976E+04  2.18047E+04 -5.19900E+03  2.68440E+04 -2.36247E+04  1.44564E+04 -3.06287E+04 -4.15664E+03
 -2.58144E+04 -1.76247E+04 -1.15299E+04 -2.40150E+04  5.24822E+03 -2.34430E+04  1.80199E+04 -2.18402E+04
  2.99287E+04 -1.37180E+04  3.86648E+04  2.91645E+03  2.66727E+04  2.32814E+04  4.98201E+03  4.03143E+04
 -1.91957E+04  3.37460E+04 -3.04311E+04  1.14966E+04 -2.17474E+04 -9.67313E+03 -4.79367E+03 -1.23506E+04
  1.81014E+03 -2.06557E+03 -7.80687E+03  7.25232E+03 -1.94063E+04  4.83867E+03 -1.91969E+04 -1.08014E+04
 -1.11568E+04 -2.22312E+04  5.42467E+03 -2.65509E+04  1.84656E+04 -1.86175E+04  2.18374E+04 -1.98949E+03
  1.45618E+04  1.61806E+04 -1.63422E+03  2.25370E+04 -1.63682E+04  1.18998E+04 -2.32899E+04 -3.85023E+03
 -1.81242E+04 -1.79695E+04 -1.28097E+03 -2.69379E+04  1.14978E+04 -2.23111E+04  2.29381E+04 -1.31865E+04
  2.11021E+04 -2.36648E+03  1.47903E+04  5.73062E+03  8.13674E+03  2.57719E+03  1.11796E+04 -2.07578E+03
  2.14011E+04  2.32125E+03  2.33190E+04  1.71240E+04  1.75671E+04  3.81343E+04 -1.19500E+03  4.40264E+04
 -2.52442E+04  3.73596E+04 -4.05039E+04  1.75569E+04 -4.25561E+04 -3.06782E+03 -3.47292E+04 -2.45341E+04
 -1.33793E+04 -3.58380E+04  1.16921E+04 -3.10038E+04  2.65776E+04 -1.29012E+04  2.40172E+04  7.57601E+03
  7.73976E+03  1.75282E+04 -1.15067E+04  1.46429E+04 -1.95542E+04  3.09150E+03 -1.48436E+04 -1.29227E+04
 -1.13630E+03 -1.90255E+04  1.04569E+04 -1.39680E+04  1.18085E+04 -3.47821E+02  2.37073E+03  8.05066E+03
 -1.04318E+04  3.34789E+03 -8.49137E+03 -7.87813E+03 -1.33945E+03 -1.62255E+04  1.14527E+04 -1.84408E+04
  2.09542E+04 -1.18219E+04  2.37843E+04  2.61509E+03  2.19842E+04  1.76206E+04  9.26655E+03  2.75816E+04
 -5.00280E+03  3.03988E+04 -1.89043E+04  1.75053E+04 -1.96881E+04  3.68769E+03 -1.63763E+04 -5.86076E+03
 -7.38983E+03 -7.39558E+03 -5.76902E+02 -5.35194E+02 -4.64063E+03  3.73184E+03 -7.99531E+03  6.06534E+03
 -1.36520E+04 -1.83801E+03 -1.29810E+04 -1.17244E+04 -5.38838E+03 -1.84210E+04  6.37898E+03 -1.46708E+04
  1.27499E+04 -5.23326E+03  8.82815E+03  4.27812E+03  1.05586E+03  6.03856E+03 -5.77646E+03 -1.27488E+02
 -7.94147E+03 -1.02100E+04 -4.53553E+02 -1.50927E+04  8.49510E+03 -1.59754E+04  1.92833E+04 -8.79006E+03
  2.24494E+04  2.30072E+03  1.60218E+04  1.20930E+04  1.73756E+03  1.84661E+04 -8.12796E+03  1.45540E+04
 -1.29254E+04  3.68694E+03 -5.06970E+03 -3.12115E+03 -1.64880E+02 -3.38611E+03  7.96919E+03 -4.33280E+02
  5.66452E+03  7.54341E+03  1.24043E+03  1.15203E+04 -8.90128E+03  1.06234E+04 -1.41012E+04  1.21216E+03
 -9.27490E+03 -6.10290E+03 -4.62276E+02 -1.18366E+04  9.06147E+03 -6.71367E+03  7.85525E+03  1.18648E+03
  1.46229E+03  8.22785E+03 -7.11635E+03  9.48775E+03 -1.22044E+04  5.63995E+03 -1.37056E+04 -4.57078E+03
 -7.36372E+03 -1.45131E+04  4.68270E+03 -1.68546E+04  1.43024E+04 -1.12689E+04  1.57552E+04  3.84524E+03
  7.76396E+03  1.26089E+04 -6.37393E+02  1.27765E+04 -9.26125E+03  8.28945E+03 -1.18311E+04 -2.14254E+03
 -9.70737E+03 -1.04087E+04 -1.14976E+03 -1.00976E+04  5.85343E+03 -9.66316E+03  6.91790E+03 -5.84295E+03
  5.01332E+03  2.07655E+03 -1.36778E+03  1.02250E+03 -5.36238E+02 -2.86552E+03  1.64971E+03 -6.45348E+03
  9.97891E+03 -4.17441E+03  1.37413E+04  7.71523E+02  1.33630E+04  9.03349E+03  8.57680E+03  1.76900E+04
 -4.71934E+03  2.22304E+04 -1.82897E+04  1.37644E+04 -2.40539E+04  1.38393E+03 -1.98276E+04 -9.84984E+03
 -8.67655E+03 -1.69901E+04 -1.46260E+03 -1.38483E+04  4.80091E+03 -7.61096E+03  5.68301E+03 -4.60149E+03
  2.55449E+03 -3.16799E+03  3.81438E+03 -4.51893E+03  4.95283E+03 -3.33333E+03  8.00872E+03 -3.66190E+02
  1.02580E+04  3.53773E+03  4.31842E+03  7.07596E+03 -2.75505E+03  1.08994E+04 -1.08295E+04  6.33531E+03
 -1.34205E+04 -8.65265E+02 -5.84472E+03 -6.60952E+03 -4.31452E+02 -1.38547E+04  7.45275E+03 -1.30359E+04
  1.38284E+04 -8.14799E+03  1.67219E+04  2.61079E+03  1.16794E+04  1.19304E+04  2.41326E+03  1.58887E+04
 -6.01413E+03  1.35093E+04 -1.01561E+04  3.22461E+03 -5.75441E+03 -1.42184E+03 -5.98566E+02 -2.12387E+03
 -2.98276E+03 -1.02705E+03 -1.75910E+03  2.35373E+03 -4.70493E+03  8.76615E+02 -9.32057E+03 -3.76729E+03
 -6.30465E+03 -7.42160E+03 -2.81317E+01 -1.42853E+04  8.85710E+03 -1.25003E+04  1.18223E+04 -2.14996E+03
  1.43491E+04  6.07752E+03  6.40208E+03  1.15685E+04 -3.18428E+03  1.24436E+04 -9.91642E+03  8.84001E+03
 -1.23473E+04  1.80400E+03 -1.03676E+04 -7.74559E+03 -2.29727E+02 -1.08335E+04  4.98429E+03 -7.44917E+03
  7.14383E+03 -3.49087E+03  6.09767E+03  1.64675E+03  1.67231E+03  3.33501E+03  1.08426E+03  1.83934E+03
  2.12988E+03 -3.55989E+01  3.86371E+03  2.60093E+03  3.87166E+03  6.52448E+03  2.12053E+03  7.47005E+03
 -2.99727E+03  9.61418E+03 -8.79037E+03  8.26354E+03 -1.10009E+04  2.14751E+03 -1.30476E+04 -5.33719E+03
 -5.61924E+03 -1.36258E+04  3.83730E+02 -1.31818E+04  7.59169E+03 -7.10649E+03  1.05884E+04 -2.89760E+03
  8.79040E+03  3.60545E+03  1.44749E+03  6.67418E+03 -1.31958E+03  3.15645E+03 -4.35499E+03  3.20775E+02
 -1.80623E+03 -4.57852E+03  3.41774E+03 -4.57789E+03  4.95593E+03 -2.35732E+03  4.05254E+03  2.99591E+02
  3.98230E+03  2.62505E+03  2.02712E+03 -1.22595E+02  1.08036E+02  1.48621E+03  1.65903E+03  2.67104E+02
  2.23609E+03  3.48033E+02  5.39241E+03  2.24547E+03  2.36839E+03  7.51230E+03 -8.35238E+02  9.02925E+03
 -3.88047E+03  5.62104E+03 -6.75837E+03  7.35738E+02 -7.57208E+03 -2.28828E+03 -2.29444E+03 -4.32223E+03
  5.30908E+02 -5.13446E+03  2.27294E+03 -3.01226E+03  1.48098E+03  2.43604E+03 -1.36627E+03  5.28047E+03
 -5.13124E+03  1.50921E+03 -5.71676E+03 -3.76745E+03 -1.64691E+03 -7.56296E+03  7.87600E+02 -5.42423E+03
  2.76884E+03 -4.18347E+03  5.19706E+03 -5.33260E+02  3.85941E+03  6.65591E+02 -4.07697E+01  3.92672E+03
 -1.54864E+03  8.71139E+01 -1.92746E+03 -2.20358E+03  1.41451E+03 -5.56667E+03  6.69435E+03 -3.85369E+03
  6.70519E+03  3.65714E+02  6.74211E+03  5.04246E+03  2.56488E+03  9.02840E+03 -3.38249E+03  7.30641E+03
 -6.76138E+03  3.80278E+03 -6.27052E+03 -1.73226E+03 -3.03682E+03 -5.00651E+03  1.18034E+03 -4.51655E+03
  5.98754E+03 -3.73450E+03  4.42702E+03  4.13990E+01  1.84963E+03  4.57439E+03  1.47798E+02  4.58263E+03
 -1.56354E+03  2.57466E+03 -3.85327E+03  9.08338E+02 -9.41916E+02  4.64588E+02 -1.22796E+03  3.03398E+03
 -2.88732E+03  2.41346E+03 -7.26765E+03  2.83192E+03 -7.74248E+03  5.02961E+02 -8.69943E+03 -5.40249E+03
 -3.47822E+03 -8.45119E+03  2.20773E+03 -1.12245E+04  7.84105E+03 -9.33118E+03  1.14268E+04 -2.26593E+03
  1.07264E+04  2.70523E+03  4.78556E+03  6.41046E+03 -5.98314E+01  8.02413E+03 -3.57268E+03  4.74150E+03
 -5.46325E+03  1.66436E+03 -1.84247E+03 -1.48814E+03 -1.43035E+03 -1.90120E+02  3.88543E+02  1.15110E+03
 -1.97285E+03  4.88771E+02 -1.38967E+03 -1.02139E+03 -1.02774E+03 -5.63350E+02  1.36383E+03 -1.98343E+03
  4.53216E+03 -2.80487E+03  5.57417E+03  3.45567E+02  6.34528E+03  3.43110E+03  1.21120E+03  8.49792E+03
 -3.23350E+03  8.28159E+03 -8.41559E+03  3.92722E+03 -1.07112E+04 -1.89661E+03 -7.60787E+03 -6.72644E+03
 -2.69792E+03 -7.58578E+03  2.83463E+03 -6.57379E+03  5.09346E+03 -3.72475E+03  5.60237E+03  2.71246E+02
  1.66898E+03  9.65907E+02  5.20706E+02  3.22444E+03 -1.83070E+03  1.60916E+02 -3.19684E+02 -2.30478E+03
  1.19661E+03 -2.28030E+03  3.45454E+03  1.98232E+03  2.69356E+03  4.40178E+03  4.89333E+02  3.56164E+03
 -4.56825E+03  2.75892E+03 -5.72039E+03 -4.41145E+01 -3.44062E+03 -4.36376E+03 -8.80169E+02 -4.73735E+03
  3.11229E+03 -5.27504E+03  6.36533E+03 -9.43701E+02  5.02813E+03  1.24070E+03  3.49430E+03  3.46197E+03
  1.27001E+02  3.61461E+03 -2.33083E+03  4.83024E+03 -2.77174E+03  3.57756E+03 -2.92583E+03  7.69303E+02
 -7.89286E+02  8.99398E+02 -1.18027E+03 -6.01104E+02 -2.99619E+03  2.17216E+03 -3.56830E+03 -5.09449E+02
 -4.49024E+03 -2.84122E+03 -1.92961E+03 -6.13376E+03  2.28777E+03 -7.07863E+03  4.02539E+03 -2.59301E+03
  4.78515E+03  9.04142E+02  3.42923E+03  4.59748E+03 -1.31819E+03  4.08828E+03 -3.62392E+03  3.87171E+03
