 $NMID ID='MM_0lb_SNR200_10hz_g55_5.RAW', FMTDAT='(8E13.5)'
 TRAMP=1., VOLUME=1. $END
  3.09986E+05 -2.25597E+02  3.37477E+05  2.50974E+05  8.59103E+04  3.38138E+05 -1.33447E+05  2.51664E+05
 -1.89633E+05  8.45254E+04 -1.12854E+05 -3.33910E+04 -1.41137E+03 -5.03984E+04  5.29649E+04 -5.75145E+02
  3.50414E+04  5.25786E+04 -1.68357E+04  7.63277E+04 -6.11399E+04  6.38958E+04 -8.50032E+04  3.17638E+04
 -8.35374E+04 -1.08504E+04 -5.81357E+04 -5.25586E+04 -1.36145E+04 -7.07556E+04  2.89174E+04 -4.68884E+04
  4.16443E+04  1.83679E+03  1.62528E+04  4.94874E+04 -3.47370E+04  4.90858E+04 -6.78572E+04  7.88836E+02
 -5.60281E+04 -5.83403E+04 -7.19189E+03 -7.87057E+04  3.42130E+04 -5.65361E+04  5.08060E+04 -1.77613E+04
  4.39561E+04  1.21026E+04  3.31717E+04  2.78003E+04  1.51248E+04  3.14287E+04 -5.70718E+03  2.66873E+04
 -2.27194E+04  1.20699E+04 -1.73069E+04 -6.40012E+03  6.47155E+03 -9.26095E+03  2.46315E+04  1.33546E+04
  7.89351E+03  3.75298E+04 -3.34986E+04  3.71072E+04 -6.70450E+04  2.14674E+03 -5.80861E+04 -4.40652E+04
 -1.26794E+04 -6.43550E+04  4.03550E+04 -4.73143E+04  6.22566E+04 -2.24372E+03  3.65394E+04  3.35759E+04
 -6.00591E+03  3.87695E+04 -3.23243E+04  1.93060E+04 -3.28234E+04 -2.57744E+03 -1.83054E+04 -1.13094E+04
 -9.21510E+03 -1.64655E+04 -4.24093E+02 -2.01972E+04  8.08280E+03 -2.39248E+04  1.66084E+04 -1.27441E+04
  1.02161E+04  3.97721E+03 -1.10047E+04  1.33005E+04 -2.28874E+04 -6.90213E+03 -7.49444E+03 -3.69206E+04
  2.50470E+04 -4.76881E+04  5.20895E+04 -2.10513E+04  4.88885E+04  2.16585E+04  1.74863E+04  4.60952E+04
 -1.71827E+04  3.66961E+04 -2.71741E+04  1.59545E+03 -1.07765E+04 -2.86414E+04  1.98157E+04 -3.63349E+04
  4.42058E+04 -1.02413E+04  4.11967E+04  2.31704E+04  2.12426E+04  5.10132E+04 -7.91838E+03  5.74633E+04
 -3.52838E+04  3.86273E+04 -4.58997E+04  1.15583E+04 -4.50010E+04 -1.95261E+04 -2.70946E+04 -4.26477E+04
  7.84616E+03 -4.22960E+04  3.40611E+04 -1.67053E+04  3.08086E+04  1.14531E+04  5.55591E+03  1.88851E+04
 -1.38059E+04  8.38426E+03 -1.10199E+04 -8.12700E+03  4.07730E+03 -1.19529E+04  1.90251E+04  4.49358E+03
  1.59549E+04  2.17177E+04 -4.72484E+03  2.67812E+04 -2.39111E+04  1.45194E+04 -3.06810E+04 -3.76067E+03
 -2.57560E+04 -1.99674E+04 -1.24243E+04 -2.64525E+04  4.75550E+03 -2.51836E+04  1.76687E+04 -2.37777E+04
  3.10498E+04 -1.32704E+04  3.76924E+04  4.43192E+03  2.67400E+04  2.48428E+04  4.61336E+03  4.08498E+04
 -2.11877E+04  3.52886E+04 -2.95537E+04  1.07649E+04 -2.17298E+04 -9.26191E+03 -4.75916E+03 -1.21458E+04
  7.70892E+02 -1.93057E+03 -6.95723E+03  7.24440E+03 -2.04128E+04  5.12701E+03 -2.09257E+04 -9.88137E+03
 -1.16867E+04 -2.37806E+04  5.85047E+03 -2.85248E+04  1.75994E+04 -1.90342E+04  2.26403E+04 -1.97008E+03
  1.48109E+04  1.51574E+04 -2.55216E+03  2.37072E+04 -1.55865E+04  1.39459E+04 -2.40496E+04 -6.11781E+03
 -1.68572E+04 -2.05305E+04 -1.35057E+03 -2.72738E+04  1.25318E+04 -2.26079E+04  2.35015E+04 -1.08165E+04
  2.13435E+04  1.00406E+02  1.52502E+04  5.52930E+03  9.03550E+03  1.34933E+03  1.28395E+04 -1.33182E+03
  2.18813E+04  1.27168E+03  2.49653E+04  1.80759E+04  1.67495E+04  3.85343E+04 -2.84078E+03  4.32954E+04
 -2.48544E+04  3.66315E+04 -3.99656E+04  2.03133E+04 -4.41848E+04 -2.75435E+03 -3.47316E+04 -2.57799E+04
 -1.50662E+04 -3.57906E+04  1.32659E+04 -3.18311E+04  2.72121E+04 -1.41576E+04  2.34543E+04  7.35782E+03
  7.22697E+03  1.76066E+04 -1.00697E+04  1.53801E+04 -1.96907E+04  2.87153E+03 -1.45864E+04 -1.12292E+04
 -8.06272E+02 -1.87964E+04  1.19458E+04 -1.34642E+04  1.30664E+04 -1.44725E+03  2.41500E+03  7.95562E+03
 -7.98846E+03  4.67429E+03 -8.05863E+03 -6.99412E+03 -1.34896E+03 -1.81421E+04  1.22341E+04 -1.91358E+04
  2.35262E+04 -1.03052E+04  2.45006E+04  3.08555E+03  2.19235E+04  1.68797E+04  1.03473E+04  2.72803E+04
 -5.94060E+03  3.05645E+04 -2.01519E+04  1.92699E+04 -2.14648E+04  2.45118E+03 -1.44571E+04 -5.01268E+03
 -7.79727E+03 -5.74287E+03 -3.31840E+02  1.75250E+03 -2.60996E+03  3.26961E+03 -8.15548E+03  4.83096E+03
 -1.30088E+04 -1.05545E+03 -1.58006E+04 -1.10299E+04 -5.17453E+03 -2.00382E+04  5.78072E+03 -1.32531E+04
  1.31485E+04 -5.68622E+03  1.05611E+04  3.35428E+03  6.99431E+02  5.55606E+03 -7.58812E+03  7.85411E+02
 -6.82545E+03 -9.75924E+03 -6.10442E+02 -1.54441E+04  7.64980E+03 -1.54711E+04  2.03404E+04 -9.15651E+03
  2.17536E+04  2.03526E+03  1.61809E+04  1.34852E+04  2.43303E+03  1.96557E+04 -9.59401E+03  1.64931E+04
 -1.20551E+04  3.57174E+03 -5.61265E+03 -3.48990E+03  1.78763E+03 -3.72988E+03  8.42896E+03 -1.48233E+03
  7.04816E+03  6.94550E+03  3.26084E+03  1.27147E+04 -9.15135E+03  1.18117E+04 -1.53734E+04  3.54402E+03
 -1.02193E+04 -8.09791E+03  1.01826E+03 -1.19360E+04  9.45633E+03 -6.18379E+03  9.44098E+03  2.39122E+03
  2.18738E+03  1.01501E+04 -7.25810E+03  1.06589E+04 -1.26267E+04  4.41854E+03 -1.24270E+04 -5.01845E+03
 -7.56968E+03 -1.58904E+04  3.19764E+03 -1.74165E+04  1.43718E+04 -1.03544E+04  1.46034E+04  3.05494E+03
  1.01066E+04  1.32239E+04 -7.27108E+02  1.47384E+04 -1.06379E+04  7.87945E+03 -1.10965E+04 -5.70171E+02
 -9.89065E+03 -9.35969E+03 -2.65398E+03 -1.04001E+04  6.07987E+03 -9.87964E+03  7.66144E+03 -3.53874E+03
  4.03112E+03  1.75581E+03 -7.04517E+02  1.58273E+03 -1.06673E+03 -3.60948E+03  2.77174E+03 -6.40489E+03
  1.19855E+04 -3.33375E+03  1.43051E+04  1.93408E+03  1.61706E+04  8.82216E+03  9.59818E+03  1.96487E+04
 -3.68227E+03  2.29991E+04 -1.89109E+04  1.57887E+04 -2.49667E+04  2.35291E+03 -1.99936E+04 -7.82097E+03
 -9.38855E+03 -1.72988E+04 -1.43208E+03 -1.41418E+04  5.77053E+03 -7.30075E+03  3.70885E+03 -4.28493E+03
  4.19903E+03 -4.20506E+03  2.15308E+03 -2.62459E+03  7.74269E+03 -3.92241E+03  6.53853E+03 -1.17490E+03
  1.03705E+04  2.70471E+03  6.34481E+03  8.53545E+03 -3.65575E+03  9.29164E+03 -1.19863E+04  7.18884E+03
 -1.38682E+04  2.51975E+02 -8.58718E+03 -9.53224E+03 -1.10954E+02 -1.57282E+04  8.76811E+03 -1.44338E+04
  1.36969E+04 -7.07875E+03  1.74562E+04  1.89743E+03  1.48110E+04  1.39869E+04  4.15468E+03  1.77432E+04
 -8.55409E+03  1.36484E+04 -1.03603E+04  3.92320E+03 -6.06125E+03 -1.80031E+03 -1.38713E+03 -1.20715E+03
  2.55142E+02  8.69768E+02 -3.37467E+03  9.92622E+02 -6.85714E+03  1.87822E+03 -8.89656E+03 -2.85395E+03
 -7.09334E+03 -1.05502E+04  7.86019E+02 -1.22028E+04  7.64711E+03 -1.07263E+04  1.28389E+04 -3.09148E+03
  1.38145E+04  7.30131E+03  6.96773E+03  1.08449E+04 -3.08698E+03  1.39092E+04 -8.96034E+03  8.72304E+03
 -1.28766E+04 -4.10076E+02 -1.04160E+04 -8.21331E+03  4.88203E+02 -1.02890E+04  5.79415E+03 -7.33543E+03
  1.00485E+04 -2.54241E+03  4.35133E+03  2.43488E+03  1.26733E+03  4.82061E+03  2.19700E+03  2.13436E+03
  1.55684E+03  2.29162E+03  2.21193E+03  2.85775E+03  4.05639E+03  6.17570E+03  3.56417E+03  8.33467E+03
 -2.12207E+03  1.14297E+04 -1.03054E+04  1.10473E+04 -1.31326E+04  2.15734E+03 -1.47619E+04 -6.53682E+03
 -8.22848E+03 -1.29407E+04  2.62161E+03 -1.38742E+04  9.07283E+03 -9.71420E+03  1.32830E+04 -3.86811E+03
  9.70508E+03  5.11482E+03  1.23756E+03  7.90074E+03 -4.34496E+03  6.59330E+03 -5.35800E+03 -4.23985E+02
 -2.95541E+03 -5.57925E+03  3.18401E+03 -5.93092E+03  5.60991E+03 -3.82475E+03  5.81766E+03  7.47043E+02
  3.53345E+03  3.44538E+03  2.90287E+02  1.40090E+03 -1.68975E+03  1.58272E+03  6.06787E+02 -1.13143E+03
  1.27034E+03 -1.42847E+03  4.19658E+03  3.37942E+03  1.57502E+03  7.56683E+03 -2.54128E+02  9.41608E+03
 -5.17031E+03  6.56919E+03 -8.19310E+03  2.37835E+03 -7.45960E+03 -4.02889E+03 -2.05264E+03 -4.65570E+03
  2.14668E+03 -5.73710E+03  3.29552E+03 -2.83857E+03  2.08448E+03  2.18743E+03 -1.44437E+03  5.27170E+03
 -5.79909E+03  2.10501E+03 -8.18537E+03 -2.73812E+03 -3.78995E+03 -7.34037E+03  3.62215E+02 -9.04128E+03
  5.02316E+03 -3.81514E+03  5.53832E+03 -1.03732E+03  5.58842E+03  2.93645E+03  8.57649E+02  4.41429E+03
 -2.38474E+03  3.26936E+03 -2.35375E+03 -2.27944E+03  1.09908E+03 -5.73294E+03  7.39721E+03 -5.73246E+03
  8.54626E+03  3.61834E+02  7.94630E+03  6.24150E+03  2.88292E+03  1.03783E+04 -4.94602E+03  7.64308E+03
 -6.95191E+03  3.43787E+03 -7.65672E+03  4.78252E+02 -5.54357E+03 -4.90941E+03  1.12515E+03 -5.89415E+03
  6.40211E+03 -2.71424E+03  4.29381E+03  2.89471E+03  5.59135E+01  2.39111E+03 -1.69886E+03  3.19692E+03
 -4.27969E+03  4.04639E+03 -2.69548E+03  5.07859E+02 -2.04179E+03  1.65451E+03 -2.87519E+03  2.53995E+03
 -1.09309E+03  2.29713E+03 -5.66106E+03  1.82882E+03 -8.90493E+03  2.85782E+02 -9.36404E+03 -6.42462E+03
 -3.73049E+03 -9.41282E+03  1.18020E+03 -1.27866E+04  9.91229E+03 -1.04893E+04  1.32383E+04 -4.87430E+03
  1.20460E+04  1.33845E+03  7.29237E+03  7.55935E+03 -5.30851E+02  9.76046E+03 -3.43802E+03  6.95135E+03
 -4.67616E+03  1.97785E+03 -3.29400E+03 -6.99196E+01 -9.73310E+02  6.80336E+01 -9.90319E+02 -1.42978E+03
 -2.02746E+03 -1.15762E+03 -2.00110E+03 -1.73431E+03 -3.16754E+02 -1.19788E+03  2.23587E+01 -3.43326E+03
  3.34929E+03 -2.91747E+03  5.87339E+03  1.16095E+03  5.35134E+03  4.87673E+03  1.81679E+03  8.52938E+03
 -3.88823E+03  1.02025E+04 -9.24877E+03  4.02717E+03 -1.19768E+04 -1.12859E+03 -8.59323E+03 -5.99647E+03
 -3.52404E+03 -9.57476E+03  2.02322E+03 -8.90702E+03  6.63374E+03 -6.08403E+03  5.12550E+03  6.54836E+02
  3.69426E+03  3.33034E+03 -3.06204E+02  2.07997E+03 -1.97051E+03  9.58469E+02  6.90933E+02 -2.39660E+03
  2.45649E+03 -1.65386E+03  4.12514E+03  9.85760E+02  2.34083E+03  3.53580E+03 -5.37213E+02  4.57889E+03
 -4.20025E+03  4.39972E+03 -5.33685E+03 -2.85697E+02 -7.53627E+03 -3.87895E+03 -1.81005E+03 -7.54090E+03
  4.09927E+03 -8.78233E+03  6.96308E+03 -1.32583E+03  7.41709E+03  1.03373E+03  4.34826E+03  5.68318E+03
  1.90457E+03  5.60233E+03 -2.26512E+03  4.48389E+03 -4.52299E+03  2.35702E+03 -4.07471E+03 -8.03695E+02
 -9.23210E+02  2.74850E+01 -2.05905E+03 -8.10029E+01 -4.50347E+03  7.19134E+02 -3.66389E+03 -1.35525E+03
 -4.11107E+03 -2.74772E+03 -1.15617E+02 -5.92874E+03  3.12134E+03 -6.31412E+03  5.35663E+03 -1.99292E+03
  5.56561E+03  3.48011E+02  2.79328E+03  3.59893E+03 -1.80766E+03  4.86264E+03 -3.86995E+03  3.98551E+03
