 $NMID ID='MM_0lb_SNR200_8hz_g50_89.RAW', FMTDAT='(8E13.5)'
 TRAMP=1., VOLUME=1. $END
  3.12001E+05  4.44612E+02  3.36839E+05  2.51282E+05  8.67107E+04  3.39764E+05 -1.29977E+05  2.51546E+05
 -1.90966E+05  8.48899E+04 -1.13190E+05 -3.31570E+04 -6.58062E+02 -5.15996E+04  5.31996E+04  6.21842E+02
  3.61978E+04  5.38381E+04 -1.64450E+04  7.79140E+04 -5.98285E+04  6.34919E+04 -8.58839E+04  3.35629E+04
 -8.37162E+04 -1.18497E+04 -5.96878E+04 -5.26923E+04 -1.50679E+04 -6.95386E+04  2.85293E+04 -4.75104E+04
  4.16211E+04  4.39800E+03  1.63445E+04  4.90741E+04 -3.53600E+04  4.84896E+04 -6.74500E+04  8.64298E+02
 -5.58997E+04 -5.84268E+04 -4.59335E+03 -7.76611E+04  3.35247E+04 -5.75438E+04  5.08722E+04 -1.78169E+04
  4.62261E+04  1.32600E+04  3.38752E+04  2.65064E+04  1.82034E+04  3.08561E+04 -4.65295E+03  2.90415E+04
 -2.39054E+04  1.16308E+04 -1.81145E+04 -5.76254E+03  6.28258E+03 -6.94961E+03  2.44172E+04  1.34357E+04
  7.71260E+03  3.86154E+04 -3.36858E+04  3.58369E+04 -6.64812E+04  2.26436E+03 -5.80171E+04 -4.61206E+04
 -1.23996E+04 -6.75708E+04  4.24862E+04 -4.86036E+04  6.33500E+04 -2.94103E+03  3.72200E+04  3.32972E+04
 -6.51589E+03  4.08002E+04 -3.29864E+04  1.78801E+04 -3.41467E+04 -5.46852E+03 -2.05767E+04 -1.19830E+04
 -9.18923E+03 -1.37992E+04 -1.65108E+02 -2.16267E+04  6.72662E+03 -2.34418E+04  1.57933E+04 -1.10185E+04
  9.20397E+03  6.27416E+03 -9.83573E+03  1.46269E+04 -2.42416E+04 -7.78136E+03 -8.88539E+03 -3.69000E+04
  2.64933E+04 -4.89569E+04  5.29180E+04 -2.00115E+04  5.10488E+04  2.06038E+04  1.76592E+04  4.82797E+04
 -1.74936E+04  3.77212E+04 -2.82350E+04  1.32177E+03 -1.20909E+04 -2.87900E+04  2.21142E+04 -3.82226E+04
  4.65443E+04 -9.20696E+03  4.17528E+04  2.56877E+04  2.29452E+04  5.08343E+04 -9.70584E+03  5.68302E+04
 -3.71241E+04  3.89228E+04 -4.77360E+04  1.17754E+04 -5.00481E+04 -1.77619E+04 -2.44983E+04 -4.18697E+04
  7.61345E+03 -4.42170E+04  3.41893E+04 -1.68175E+04  3.35646E+04  1.25875E+04  5.94533E+03  2.18271E+04
 -1.43032E+04  9.91115E+03 -9.78245E+03 -7.02906E+03  6.58903E+03 -1.23382E+04  1.89730E+04  5.49200E+03
  1.44653E+04  2.27082E+04 -4.87312E+03  2.60934E+04 -2.21098E+04  1.71611E+04 -3.16296E+04 -2.04280E+03
 -2.53296E+04 -1.88254E+04 -1.38619E+04 -2.57448E+04  3.89157E+03 -2.51376E+04  2.07765E+04 -2.44584E+04
  3.48302E+04 -1.40906E+04  4.01670E+04  4.49955E+03  2.74921E+04  2.30239E+04  6.62597E+03  4.20866E+04
 -1.77657E+04  3.58816E+04 -3.12789E+04  1.12644E+04 -2.23027E+04 -8.92412E+03 -4.33967E+03 -1.15452E+04
 -4.92219E+02  4.34347E+01 -8.50091E+03  8.46064E+03 -2.11977E+04  5.71150E+03 -2.09843E+04 -9.50500E+03
 -1.14983E+04 -2.48471E+04  6.08519E+03 -2.92762E+04  2.01613E+04 -2.20290E+04  2.27776E+04 -2.65877E+03
  1.52963E+04  1.58772E+04 -1.33591E+03  2.37692E+04 -1.87996E+04  1.55667E+04 -2.46326E+04 -6.41892E+03
 -2.08071E+04 -2.03977E+04 -2.95233E+03 -2.78154E+04  1.25545E+04 -2.57877E+04  2.26458E+04 -1.16736E+04
  2.24537E+04 -7.58507E+02  1.89309E+04  6.95208E+03  8.86666E+03  2.20278E+03  1.44266E+04 -2.97040E+03
  2.46387E+04  3.69298E+02  2.64785E+04  1.82538E+04  1.74015E+04  3.95180E+04 -1.40192E+03  4.67767E+04
 -2.60174E+04  3.82903E+04 -4.53566E+04  1.99465E+04 -4.75239E+04 -2.01799E+03 -3.71791E+04 -2.80103E+04
 -1.31723E+04 -3.85953E+04  1.36752E+04 -3.45638E+04  2.98501E+04 -1.53258E+04  2.60214E+04  8.03536E+03
  7.35006E+03  1.89715E+04 -1.22594E+04  1.52415E+04 -1.94553E+04  2.76771E+03 -1.55079E+04 -1.49397E+04
 -1.36825E+03 -2.06081E+04  1.09189E+04 -1.54808E+04  1.49740E+04 -2.26058E+03  4.42059E+03  1.00547E+04
 -9.73431E+03  4.32934E+03 -9.95420E+03 -9.00998E+03 -1.96381E+03 -1.88144E+04  1.36364E+04 -2.11335E+04
  2.43498E+04 -1.19634E+04  2.94233E+04  3.07365E+03  2.33060E+04  2.20039E+04  1.28055E+04  3.01822E+04
 -5.45138E+03  3.20740E+04 -2.33640E+04  1.91896E+04 -2.31910E+04  5.14696E+03 -1.57134E+04 -9.20564E+03
 -8.22943E+03 -8.34739E+03  4.37439E+02 -1.49567E+03 -2.64651E+03  3.63436E+03 -8.30740E+03  4.72612E+03
 -1.66516E+04 -1.07068E+03 -1.72922E+04 -1.34502E+04 -8.65466E+03 -2.08759E+04  6.67152E+03 -1.67469E+04
  1.23324E+04 -4.76094E+03  1.03832E+04  4.19014E+03 -2.21925E+03  6.86788E+03 -8.60400E+03 -1.84726E+01
 -9.34781E+03 -1.09874E+04 -2.36881E+03 -1.77214E+04  1.04938E+04 -1.74556E+04  2.12903E+04 -7.90112E+03
  2.61652E+04  2.26166E+03  1.98338E+04  1.60638E+04  4.27854E+03  1.99001E+04 -1.16431E+04  1.72701E+04
 -1.33202E+04  4.29537E+03 -7.33093E+03 -2.19066E+03  1.50736E+03 -6.16055E+03  9.21417E+03 -5.99565E+02
  8.14469E+03  7.43268E+03  1.51841E+03  1.38846E+04 -1.09371E+04  1.31062E+04 -1.64868E+04  3.84278E+03
 -1.26170E+04 -8.79113E+03  1.87400E+03 -1.30006E+04  9.65826E+03 -6.21603E+03  8.60524E+03  3.31124E+03
  1.25034E+03  9.30443E+03 -9.37573E+03  1.27941E+04 -1.39186E+04  4.32312E+03 -1.52312E+04 -5.54647E+03
 -8.32038E+03 -1.97637E+04  4.29898E+03 -2.06088E+04  1.64463E+04 -1.01606E+04  1.77867E+04  2.91051E+03
  9.37961E+03  1.48600E+04 -1.37821E+03  1.63857E+04 -1.20325E+04  8.01516E+03 -1.25255E+04 -1.03060E+03
 -9.86085E+03 -1.08535E+04 -2.10632E+03 -1.24697E+04  6.30176E+03 -1.12284E+04  9.33010E+03 -4.83677E+03
  7.98593E+03  4.33045E+02 -1.96940E+03  3.57304E+03  5.53163E+02 -5.78463E+03  1.12479E+03 -6.93733E+03
  1.12245E+04 -4.86863E+03  1.62213E+04  2.78266E+03  1.69642E+04  1.45773E+04  1.04154E+04  2.33837E+04
 -6.17109E+03  2.68779E+04 -2.22124E+04  1.96089E+04 -2.82090E+04  2.70462E+03 -2.27630E+04 -1.06540E+04
 -1.26789E+04 -1.87438E+04 -5.82115E+01 -1.59433E+04  8.51314E+03 -9.27372E+03  6.46190E+03 -5.01096E+03
  3.08094E+03 -5.77490E+03  4.17338E+03 -2.51974E+03  6.48610E+03 -5.11134E+03  9.89385E+03 -1.57370E+03
  1.36480E+04  1.83503E+03  6.45697E+03  9.49579E+03 -3.65277E+03  1.19385E+04 -1.10494E+04  9.62329E+03
 -1.50099E+04 -1.11291E+03 -1.15902E+04 -1.06790E+04 -1.93460E+03 -1.70012E+04  8.73022E+03 -1.82167E+04
  1.75892E+04 -1.01181E+04  2.18012E+04  3.21002E+03  1.47207E+04  1.65068E+04  2.75380E+03  1.99598E+04
 -8.21109E+03  1.58303E+04 -1.34038E+04  6.79981E+03 -8.91095E+03 -5.50788E+02 -4.85382E+03 -3.26773E+03
 -2.06411E+03 -1.85717E+03 -2.31786E+03  4.56721E+03 -7.21799E+03  4.69983E+03 -1.08177E+04 -2.55801E+03
 -9.58882E+03 -1.00726E+04 -1.71983E+02 -1.74221E+04  1.17683E+04 -1.63570E+04  1.58292E+04 -5.46156E+03
  1.78332E+04  8.17787E+03  6.94614E+03  1.55034E+04 -3.79236E+03  1.61493E+04 -1.14833E+04  1.11657E+04
 -1.58609E+04  3.32758E+02 -1.18890E+04 -9.37178E+03 -2.65715E+03 -1.48975E+04  7.19843E+03 -1.16180E+04
  1.28176E+04 -2.82173E+03  7.50491E+03  3.63056E+03  1.18295E+03  4.92175E+03 -4.25856E+02  2.86722E+03
  3.35366E+03  3.50250E+03  4.38456E+03  1.10987E+03  5.97095E+03  5.13165E+03  3.56663E+03  8.14527E+03
 -3.19893E+03  1.30434E+04 -1.21607E+04  1.24359E+04 -1.61138E+04  4.60396E+03 -1.78003E+04 -7.50480E+03
 -8.67249E+03 -1.64396E+04  1.40707E+03 -1.66962E+04  1.07583E+04 -1.27697E+04  1.42715E+04 -3.28123E+03
  1.10101E+04  5.47098E+03  3.10159E+03  1.07572E+04 -5.51423E+03  6.88342E+03 -6.84146E+03 -2.61859E+02
 -3.42137E+03 -7.27182E+03  3.25559E+03 -6.68497E+03  8.41514E+03 -1.57661E+03  6.11802E+03  3.76907E+03
  5.57000E+03  3.96746E+03  2.16987E+03  2.93672E+03 -2.23962E+03  1.90965E+03  1.01961E+03  3.46410E+02
  1.98533E+03 -1.50689E+03  6.10474E+03  3.58736E+03  5.99318E+03  1.23175E+04 -9.44998E+02  1.27091E+04
 -7.15986E+03  8.76495E+03 -9.84265E+03  1.91753E+03 -1.06733E+04 -4.47321E+03 -3.75081E+03 -8.13747E+03
  1.19568E+03 -7.00351E+03  4.87115E+03 -2.83062E+03  4.92157E+03  3.36765E+03 -4.07731E+03  5.20222E+03
 -7.92568E+03  3.32495E+03 -1.05985E+04 -3.11536E+03 -5.67461E+03 -9.93733E+03 -4.32221E+02 -9.21706E+03
  6.13561E+03 -6.08851E+03  7.86696E+03 -3.62586E+01  6.48590E+03  4.40602E+03 -1.26730E+03  4.39632E+03
 -2.88608E+03  2.73796E+02 -3.11368E+03 -5.17904E+03  2.72509E+03 -6.24208E+03  8.59630E+03 -4.96191E+03
  1.12465E+04 -1.24195E+02  1.10696E+04  8.43930E+03  4.86382E+03  1.22023E+04 -4.39340E+03  1.06340E+04
 -8.45010E+03  4.46587E+03 -9.03298E+03 -1.42797E+03 -5.98056E+03 -6.47136E+03  2.23671E+03 -6.83392E+03
  5.97217E+03 -4.42935E+03  5.03767E+03  2.65712E+03  1.55894E+03  6.57376E+03 -1.21530E+03  5.70876E+03
 -3.51102E+03  1.76168E+03 -9.85588E+02 -1.04478E+02 -6.55368E+02  6.45402E+02 -1.48569E+03  1.94416E+03
 -3.55201E+03  3.78894E+03 -8.31912E+03  3.71396E+03 -1.13702E+04  1.45130E+03 -1.33200E+04 -6.10740E+03
 -5.63581E+03 -1.72814E+04  2.96322E+03 -1.93419E+04  1.28322E+04 -1.47251E+04  1.80045E+04 -5.01814E+03
  1.66539E+04  3.06471E+03  9.17509E+03  9.85105E+03  2.11860E+03  1.36478E+04 -5.04091E+03  9.89705E+03
 -7.24533E+03  2.43834E+03 -2.64436E+03 -1.87082E+02 -1.70182E+03 -2.38151E+03  1.24000E+03  1.13903E+03
 -1.59159E+03  1.43975E+03 -1.67515E+03 -2.16165E+03 -7.87472E+02 -4.42518E+03  7.82550E+02 -4.00021E+03
  6.09086E+03 -5.09724E+03  6.74196E+03 -1.86084E+03  1.04174E+04  7.28216E+03  3.20561E+03  1.32872E+04
 -7.46044E+03  1.45779E+04 -1.19735E+04  8.32820E+03 -1.43558E+04 -7.66187E+02 -1.20856E+04 -9.49035E+03
 -4.52136E+03 -1.38220E+04  2.25376E+03 -1.04293E+04  8.60846E+03 -7.14478E+03  6.62339E+03 -3.19840E+02
  6.87266E+03  3.37031E+03 -1.55169E+02  2.96164E+03 -3.76331E+03  1.43841E+03 -4.23970E+02 -3.46739E+03
  3.17854E+03 -3.17560E+03  5.44569E+03  1.96468E+03  4.89633E+03  4.02020E+03  7.04546E+01  6.85544E+03
 -6.81928E+03  5.47532E+03 -9.17095E+03  1.93583E+03 -7.19133E+03 -5.27123E+03 -2.15635E+03 -1.05657E+04
  4.71193E+03 -9.61298E+03  1.08782E+04 -3.85185E+03  8.53126E+03  3.54114E+03  5.58008E+03  6.41156E+03
 -1.82404E+03  9.21196E+03 -4.34472E+03  6.76427E+03 -5.86755E+03  3.68761E+03 -3.72889E+03  2.94695E+02
 -2.47232E+03  6.25939E+02 -3.08047E+03  2.02527E+03 -3.84300E+03  2.24583E+03 -5.27767E+03 -3.59598E+02
 -8.15222E+03 -5.19090E+03 -2.89405E+03 -9.36359E+03  4.06105E+03 -7.95885E+03  7.76297E+03 -6.89237E+03
  8.13987E+03  3.50955E+03  4.70567E+03  5.90231E+03  4.34233E+02  9.37732E+03 -5.83565E+03  7.16794E+03
