 $NMID ID='MM_0lb_SNR200_20hz_g45_34.RAW', FMTDAT='(8E13.5)'
 TRAMP=1., VOLUME=1. $END
  3.09824E+05 -9.70081E+01  3.36939E+05  2.49688E+05  8.37749E+04  3.36306E+05 -1.33138E+05  2.49926E+05
 -1.88584E+05  8.19849E+04 -1.11438E+05 -3.22681E+04  2.42015E+03 -5.01603E+04  5.37987E+04  4.50247E+02
  3.54695E+04  5.32197E+04 -1.75014E+04  7.51517E+04 -5.94544E+04  6.22463E+04 -8.22103E+04  3.15600E+04
 -7.97294E+04 -1.17102E+04 -5.51721E+04 -4.93804E+04 -1.50346E+04 -6.87691E+04  2.56331E+04 -4.53989E+04
  3.86651E+04  3.53390E+03  1.52668E+04  4.69956E+04 -3.32895E+04  4.55433E+04 -6.49976E+04 -2.61196E+02
 -5.11699E+04 -5.54089E+04 -5.92657E+03 -7.50560E+04  3.28461E+04 -5.22998E+04  4.47979E+04 -1.64377E+04
  4.09505E+04  1.03085E+04  2.97771E+04  2.40324E+04  1.57083E+04  2.81206E+04 -5.21724E+03  2.68281E+04
 -2.18205E+04  1.25038E+04 -1.98477E+04 -4.41360E+03  4.16640E+03 -7.49711E+03  2.07043E+04  1.00866E+04
  8.79374E+03  3.30479E+04 -3.12849E+04  3.32413E+04 -6.05197E+04  2.02408E+03 -5.50146E+04 -4.00319E+04
 -1.29540E+04 -5.89926E+04  3.72325E+04 -4.29073E+04  5.46236E+04 -9.34183E+02  3.21533E+04  2.94376E+04
 -7.33742E+03  3.21190E+04 -2.71149E+04  1.27019E+04 -2.71780E+04 -5.75028E+03 -1.38171E+04 -9.45574E+03
 -5.96331E+03 -1.06363E+04 -1.34490E+03 -1.58013E+04  6.49055E+03 -2.32550E+04  1.41658E+04 -1.43153E+04
  1.29402E+04  4.43717E+03 -5.58781E+03  1.22974E+04 -1.84925E+04 -1.14049E+03 -7.33234E+03 -2.87627E+04
  1.94278E+04 -3.97132E+04  4.33260E+04 -1.80727E+04  4.03405E+04  1.80193E+04  1.43167E+04  4.10371E+04
 -1.60129E+04  3.12618E+04 -2.24381E+04  1.59066E+03 -8.74239E+03 -2.57847E+04  1.95727E+04 -2.98603E+04
  3.75755E+04 -6.06410E+03  3.08264E+04  2.24766E+04  1.45807E+04  4.15611E+04 -7.57909E+03  4.31565E+04
 -2.64668E+04  2.93131E+04 -3.50888E+04  7.69686E+03 -3.61376E+04 -1.44336E+04 -1.93715E+04 -3.37687E+04
  6.06968E+03 -3.29709E+04  2.75632E+04 -1.29651E+04  2.57204E+04  9.94439E+03  2.99973E+03  1.76760E+04
 -1.36675E+04  7.07181E+03 -9.50850E+03 -8.48765E+03  5.70816E+03 -9.60796E+03  1.74813E+04  6.17207E+03
  1.07265E+04  2.09076E+04 -6.91041E+03  2.25812E+04 -2.07883E+04  8.21712E+03 -2.41476E+04 -6.82240E+03
 -1.60762E+04 -1.61749E+04 -4.87412E+03 -1.51648E+04  4.76655E+03 -1.26982E+04  1.11252E+04 -1.14611E+04
  1.91221E+04 -1.12416E+04  2.67069E+04  8.38250E+02  2.06946E+04  1.53556E+04  3.87305E+03  3.00624E+04
 -1.47884E+04  2.61835E+04 -2.50728E+04  7.64089E+03 -1.92941E+04 -1.08811E+04 -4.07814E+03 -1.38623E+04
  2.71916E+03 -4.32541E+03 -2.33727E+03  4.82984E+03 -1.15933E+04  5.96422E+03 -1.17143E+04 -4.18175E+03
 -7.65490E+03 -1.43747E+04  3.92268E+03 -1.73294E+04  1.14988E+04 -1.32084E+04  1.48868E+04 -1.30680E+03
  8.50163E+03  9.58888E+03 -1.15305E+03  1.57306E+04 -8.52776E+03  8.11416E+03 -1.46907E+04 -3.12560E+03
 -1.04425E+04 -1.32509E+04 -1.85519E+03 -1.76182E+04  7.65217E+03 -1.46081E+04  1.55661E+04 -6.77703E+03
  1.36140E+04  1.59969E+02  9.61659E+03  3.98108E+03  5.94057E+03  1.73559E+02  6.12418E+03 -1.50947E+03
  1.22031E+04  1.74008E+03  1.32860E+04  1.24411E+04  7.84082E+03  2.32622E+04 -2.86879E+03  2.43934E+04
 -1.42386E+04  1.82494E+04 -2.23968E+04  8.31882E+03 -2.17074E+04 -1.98191E+03 -1.89640E+04 -1.26653E+04
 -9.60619E+03 -1.80503E+04  6.10379E+03 -1.72100E+04  1.52954E+04 -1.06009E+04  1.40832E+04  2.42961E+03
  5.69354E+03  9.92523E+03 -6.00477E+03  9.59650E+03 -1.29432E+04  2.43235E+03 -9.57346E+03 -7.39408E+03
  6.59236E+02 -1.05197E+04  5.52216E+03 -9.48912E+03  5.59303E+03 -1.03968E+03  1.70433E+03  4.08124E+03
 -6.12013E+03  1.66657E+03 -2.69800E+03 -4.98639E+03  1.12863E+02 -8.23857E+03  7.40875E+03 -8.12015E+03
  1.14119E+04 -3.48732E+03  1.00510E+04  2.98107E+03  8.75890E+03  6.99016E+03  4.57377E+03  1.16372E+04
 -2.02035E+03  1.37194E+04 -8.58994E+03  8.62645E+03 -1.02525E+04  3.54881E+03 -7.40019E+03 -2.95916E+03
 -4.25555E+03 -1.98800E+03 -1.05302E+03  1.66630E+03 -2.23321E+03  1.48630E+03 -2.88835E+03  3.04913E+03
 -6.99867E+03  5.68461E+02 -8.27056E+03 -5.95407E+03 -3.52039E+03 -1.05325E+04  2.32379E+03 -7.46831E+03
  6.38378E+03 -3.39751E+03  3.49968E+03  1.90032E+03  4.93066E+02  2.09852E+03 -1.80455E+03 -3.32491E+02
 -4.16513E+03 -5.59070E+03 -1.84872E+03 -6.15790E+03  3.61232E+03 -6.94182E+03  8.25840E+03 -3.03193E+03
  9.52652E+03 -1.36375E+02  7.17598E+03  5.45870E+03  7.75516E+02  7.82004E+03 -4.54969E+03  8.44583E+03
 -6.47734E+03  2.82912E+03 -3.80837E+03 -8.79589E+02  5.22382E+02 -1.36658E+03  3.69141E+03  3.57421E+01
  3.42935E+03  3.04166E+03  1.66909E+03  5.93854E+03 -3.96937E+03  6.11515E+03 -7.09723E+03  1.65242E+03
 -5.17012E+03 -3.58122E+03  5.05135E+02 -5.57485E+03  4.29079E+03 -3.82383E+03  3.64191E+03 -1.05664E+02
  2.21265E+02  1.71756E+03 -3.48167E+03  3.71653E+03 -4.19915E+03  3.52813E+03 -3.30940E+03 -2.47062E+02
 -2.46225E+03 -3.57661E+03  1.57834E+03 -6.29130E+03  5.61673E+03 -3.24126E+03  5.59682E+03 -1.81721E+02
  3.65280E+03  3.87072E+03 -8.08997E+01  5.68197E+03 -4.14219E+03  2.87536E+03 -3.77322E+03  5.34385E+02
 -5.76031E+03 -5.27301E+03 -9.16295E+02 -5.61873E+03  2.65088E+03 -3.45892E+03  1.92741E+03 -2.60617E+03
  2.55214E+03  2.95357E+02  1.93465E+02  1.97312E+03  8.44095E+02 -8.30642E+02 -1.17805E+03 -1.19007E+03
  1.35175E+03 -3.94942E+02  3.89451E+03  9.12118E+01  4.54687E+03  2.03083E+03  4.72150E+03  6.56001E+03
 -1.83755E+03  7.79904E+03 -6.35574E+03  5.38373E+03 -7.79673E+03  1.73219E+03 -7.01695E+03 -2.58157E+03
 -4.11979E+03 -5.54729E+03 -9.64862E+02 -3.71404E+03  2.37261E+03 -8.22304E+02  1.93438E+03 -1.53970E+03
  8.50653E+02 -6.23686E+02  1.11051E+03 -3.27636E+03  3.96659E+03 -9.19942E+02  3.82750E+03  8.36872E+02
  4.31441E+03  1.22334E+03  4.74751E+02  2.76030E+03 -1.06081E+03  1.72065E+03 -3.37621E+03  1.51335E+03
 -4.81207E+03 -6.95439E+02 -1.33153E+03 -3.09806E+03  6.69280E+02 -4.28246E+03  3.25560E+03 -4.79736E+03
  4.07591E+03 -2.87904E+03  5.60123E+03 -4.78037E+02  4.74201E+03  4.97131E+03  1.95481E+03  4.16521E+03
 -6.94847E+02  5.18715E+03 -2.27632E+03  1.96061E+03 -1.89401E+03 -4.24661E+02 -3.65235E+02 -8.14591E+02
  4.96703E+02 -1.28936E+02  6.47553E+01  1.99797E+03 -2.82257E+03  6.73043E+02 -3.70785E+03 -6.96554E+02
 -9.29902E+02 -3.03342E+03  6.46933E+02 -3.01383E+03  2.37014E+03 -3.79796E+03  3.05385E+03  9.67605E+00
  2.77634E+03  1.30382E+03  8.03979E+02  2.45403E+03 -6.10188E+02  3.84478E+03 -2.38331E+03  1.42589E+03
 -3.03339E+03  9.72401E+01 -1.96363E+03 -2.06368E+03  4.56431E+02 -1.99722E+03  1.09610E+03 -1.97904E+03
  1.67776E+03 -1.61927E+03  1.06649E+03 -6.68189E+01  1.69863E+02  1.98124E+03  6.82632E+01 -1.09716E+02
  2.62898E+03  1.07510E+03  3.20271E+02  1.65754E+03  1.19115E+03  2.03635E+03  1.53695E+03  4.74163E+02
 -2.06298E+03  2.04935E+03 -2.16038E+03  3.51244E+03 -2.30630E+03  7.10833E+02 -3.33343E+03 -1.56152E+01
 -9.88253E+02 -2.98391E+03  3.55244E+02 -3.52104E+03  1.55594E+03 -2.20816E+03  1.57333E+03 -1.48541E+03
  2.19724E+03  1.09720E+03  4.95707E+01  1.00193E+03 -7.44448E+02  8.71929E+02 -1.81827E+02 -1.38388E+03
 -6.91596E+02 -6.87919E+02  1.92677E+03 -9.04231E+02  6.63309E+02 -7.09530E+02  1.15324E+03  2.11208E+02
  2.19468E+02  1.57561E+02  1.92597E+03 -8.72424E+02 -1.51485E+03  1.35625E+03  1.65057E+03 -1.30104E+03
  3.62707E+02 -4.83815E+02  1.58119E+03  2.56311E+02  1.14880E+02  1.57045E+03 -1.05937E+03  3.06159E+03
 -1.37418E+03  5.93392E+02 -2.28375E+03 -1.12149E+03 -2.55632E+03 -6.81196E+02  2.30399E+02 -8.93476E+02
  3.42788E+02 -3.17859E+02  5.74708E+02 -8.66765E+02  8.47198E+02  1.37117E+03 -8.86641E+02  1.27341E+03
 -5.47006E+02  1.53651E+03 -1.49500E+03 -3.09852E+01 -2.24954E+01 -2.02032E+03  1.01171E+02 -5.37105E+02
  2.32371E+02 -3.14180E+01  4.24367E+01  4.50610E+02  6.21491E+02 -1.73670E+01 -7.59432E+02  2.56050E+03
 -3.43887E+02  4.82947E+02 -6.30319E+02 -6.31187E+02  1.35433E+03 -1.74125E+03  1.23936E+03 -9.55928E+02
  1.97833E+03  1.77779E+02  1.90597E+03  1.37108E+02  1.44882E+03  1.20729E+03 -6.05480E+02  1.99558E+03
 -9.08887E+02  5.93934E+02 -1.27362E+03  1.00377E+02  1.76110E+01 -8.50646E+02  2.37577E+02 -9.37286E+02
  1.97799E+03 -5.95721E+02  4.73413E+02  2.95976E+02 -1.42116E+02  6.87640E+02 -4.93614E+02  1.92480E+02
 -9.44504E+02  4.78593E+02  1.23862E+03  5.86190E+02 -5.18646E+02  6.65998E+02 -3.18313E+02  2.74386E+02
 -8.79110E+02  5.54914E+02 -1.43006E+03 -2.40197E+02 -1.01773E+03 -2.83156E+02 -1.30624E+03 -3.22074E+02
 -7.17289E+02 -3.01533E+03  7.25460E+02 -1.75614E+03  6.89371E+02 -2.82628E+03  1.65841E+03 -8.13332E+02
  1.06538E+03 -1.12047E+03  4.06801E+01  9.78907E+02 -1.01085E+03  1.00021E+03 -8.84998E+02  6.21643E+01
 -8.65184E+01  5.94640E+02  9.65851E+01  1.08727E+03 -4.23453E+02  2.72400E+02 -1.02651E+03  4.61426E+02
 -9.19131E+02 -8.34784E+02 -1.01753E+03  4.68021E+02  7.62157E+02 -1.13114E+03 -4.29274E+02 -4.75870E+02
  9.83394E+02  3.02036E+02  1.96916E+02 -1.01335E+02  1.71080E+03  5.92852E+02 -6.85259E+01  6.98110E+02
 -2.68519E+02  9.05955E+02 -7.20417E+02  1.66952E+03 -1.05552E+03  5.96752E+02 -1.42561E+03 -1.92294E+03
 -1.10834E+03 -1.63445E+03  4.06645E+02 -4.58900E+02 -5.35806E+02 -3.68191E+02  1.31926E+02  1.38700E+02
  7.28802E+02  6.25443E+01  1.18783E+03 -7.29625E+02 -1.16829E+03 -4.38322E+01  2.44128E+02 -7.18969E+02
 -1.29766E+01 -8.36731E+00 -9.74684E+01  9.77785E+01 -4.63082E+02 -1.24963E+02  7.68403E+02 -1.64178E+02
 -1.00267E+03  9.51499E+02 -1.21957E+03 -5.90857E+02 -6.28613E+02 -9.13782E+02 -4.30680E+02 -8.44478E+02
 -2.34391E+02  8.19214E+02  3.93081E+02 -1.66877E+02  1.08023E+03 -6.06116E+02  9.11609E+01  1.15358E+03
  5.19148E+02  6.67240E+02  1.01011E+03 -3.02228E+01  7.17039E+02  4.17385E+02  4.00076E+01  2.23580E+02
  1.04975E+02 -8.69854E+02 -3.61262E+02  2.52089E+02 -1.71019E+02 -3.58327E+02 -1.24174E+03  8.19488E+02
 -4.17059E+02  9.41681E+01 -1.69446E+02 -5.30130E+01  1.07786E+03 -1.52914E+03  8.87446E+00  2.99616E+02
  8.24112E+02  5.59012E+02 -1.14247E+03  1.46040E+02  1.33808E+03  1.27364E+02  9.40938E+01  2.67503E+02
