 $NMID ID='MM_0lb_SNR200_12hz_g45_78.RAW', FMTDAT='(8E13.5)'
 TRAMP=1., VOLUME=1. $END
  3.11709E+05  5.67884E+02  3.37976E+05  2.50684E+05  8.47514E+04  3.38111E+05 -1.34070E+05  2.51245E+05
 -1.90108E+05  8.31342E+04 -1.12016E+05 -3.40294E+04  1.40651E+02 -5.04811E+04  5.25553E+04 -3.45721E+02
  3.53136E+04  5.22387E+04 -1.59516E+04  7.49516E+04 -6.10214E+04  6.38690E+04 -8.52489E+04  3.13348E+04
 -8.22007E+04 -1.28071E+04 -5.77937E+04 -5.08384E+04 -1.49511E+04 -6.99104E+04  2.83679E+04 -4.51241E+04
  4.15145E+04  3.43530E+03  1.61528E+04  4.90718E+04 -3.37448E+04  4.79219E+04 -6.85088E+04 -4.24111E+01
 -5.30955E+04 -5.64821E+04 -7.59024E+03 -7.77213E+04  3.36430E+04 -5.58247E+04  4.90099E+04 -1.69817E+04
  4.35325E+04  1.18139E+04  3.36665E+04  2.51096E+04  1.55026E+04  3.02562E+04 -5.88890E+03  2.72005E+04
 -1.98711E+04  1.15381E+04 -1.73008E+04 -5.04634E+03  6.21515E+03 -7.63502E+03  2.22450E+04  1.27463E+04
  7.11378E+03  3.69179E+04 -3.23196E+04  3.59398E+04 -6.34585E+04  2.53061E+03 -5.75563E+04 -4.34983E+04
 -1.31795E+04 -6.40249E+04  4.03482E+04 -4.59848E+04  5.79738E+04 -4.21728E+03  3.42281E+04  3.36839E+04
 -5.56870E+03  3.69215E+04 -3.12022E+04  1.62018E+04 -3.13806E+04 -4.85197E+03 -1.78135E+04 -1.20397E+04
 -9.02975E+03 -1.45860E+04 -8.39516E+02 -1.69076E+04  7.92820E+03 -2.36933E+04  1.58425E+04 -1.25704E+04
  1.10878E+04  4.76231E+03 -9.54706E+03  1.42208E+04 -2.22861E+04 -3.83749E+03 -9.33786E+03 -3.40461E+04
  2.33192E+04 -4.53023E+04  4.97519E+04 -1.98571E+04  4.56781E+04  1.94110E+04  1.61803E+04  4.53126E+04
 -1.57202E+04  3.44582E+04 -2.59024E+04  2.03013E+03 -1.13073E+04 -2.86846E+04  2.09614E+04 -3.47664E+04
  4.32296E+04 -1.02991E+04  3.67928E+04  2.41234E+04  1.82045E+04  4.71265E+04 -9.09203E+03  5.19057E+04
 -3.28498E+04  3.40064E+04 -4.37272E+04  9.13278E+03 -4.41956E+04 -1.78028E+04 -2.35973E+04 -3.86442E+04
  6.99057E+03 -3.77633E+04  3.36409E+04 -1.48497E+04  3.03361E+04  1.08404E+04  5.32119E+03  1.93078E+04
 -1.37063E+04  8.40621E+03 -1.08141E+04 -7.35588E+03  6.09769E+03 -1.00576E+04  1.78737E+04  5.72248E+03
  1.38071E+04  2.26134E+04 -6.54745E+03  2.63311E+04 -2.28129E+04  1.24129E+04 -2.83459E+04 -3.30537E+03
 -2.27483E+04 -1.80328E+04 -9.73373E+03 -2.19389E+04  3.75329E+03 -2.16125E+04  1.62399E+04 -1.93567E+04
  2.63913E+04 -1.43586E+04  3.43821E+04  3.16117E+03  2.61414E+04  2.07494E+04  4.36872E+03  3.80241E+04
 -1.88029E+04  3.18493E+04 -2.88413E+04  1.01565E+04 -2.13467E+04 -1.02842E+04 -5.04815E+03 -1.46478E+04
  2.95407E+02 -4.23705E+03 -5.89135E+03  6.35890E+03 -1.77285E+04  6.08656E+03 -1.74120E+04 -6.89410E+03
 -1.01189E+04 -1.95131E+04  5.73380E+03 -2.44687E+04  1.56557E+04 -1.84471E+04  1.86330E+04 -2.47532E+02
  1.18452E+04  1.43523E+04  3.24089E+02  2.02674E+04 -1.27314E+04  1.25285E+04 -2.03977E+04 -4.79617E+03
 -1.56162E+04 -1.88137E+04 -1.06339E+03 -2.44937E+04  1.15262E+04 -1.98390E+04  2.08171E+04 -1.01178E+04
  1.93326E+04  1.01917E+03  1.45246E+04  3.96373E+03  8.48281E+03  1.09427E+03  1.05268E+04 -2.76624E+03
  1.86948E+04  2.84300E+03  2.14548E+04  1.59574E+04  1.37726E+04  3.06992E+04 -7.10624E+02  3.77141E+04
 -2.18804E+04  2.95758E+04 -3.44625E+04  1.50847E+04 -3.73409E+04 -3.24574E+03 -3.07198E+04 -2.22326E+04
 -1.26086E+04 -3.06194E+04  9.47079E+03 -2.68322E+04  2.43165E+04 -1.36774E+04  2.02894E+04  5.62237E+03
  7.46095E+03  1.52383E+04 -9.27225E+03  1.45413E+04 -1.77504E+04  3.10833E+03 -1.30844E+04 -9.95271E+03
 -1.72893E+03 -1.62010E+04  8.33854E+03 -1.25153E+04  1.00476E+04 -7.56737E+02  2.83517E+03  7.18042E+03
 -6.96069E+03  2.13185E+03 -7.26293E+03 -5.61206E+03 -7.42495E+02 -1.35495E+04  1.00315E+04 -1.55199E+04
  2.07905E+04 -8.32855E+03  2.14083E+04  2.08691E+03  1.73940E+04  1.40453E+04  8.19411E+03  2.38740E+04
 -3.40030E+03  2.50643E+04 -1.65024E+04  1.58543E+04 -1.76516E+04  3.83000E+03 -1.15479E+04 -4.37177E+03
 -4.99757E+03 -6.34312E+03 -1.33570E+03  1.46922E+03 -1.94090E+03  2.50056E+03 -6.43942E+03  5.40899E+03
 -1.20298E+04 -7.31734E+02 -1.09505E+04 -1.09899E+04 -5.74110E+03 -1.61703E+04  5.22842E+03 -1.34046E+04
  1.08233E+04 -5.58881E+03  6.92190E+03  3.78220E+03 -3.17166E+02  4.75852E+03 -6.76898E+03 -5.25479E+02
 -5.56088E+03 -6.91235E+03 -1.30402E+03 -1.15006E+04  6.11716E+03 -1.19598E+04  1.60295E+04 -7.04363E+03
  1.99726E+04  1.43939E+03  1.32713E+04  9.61754E+03  4.48384E+03  1.54578E+04 -7.02147E+03  1.20375E+04
 -9.28165E+03  3.46525E+03 -5.45756E+03 -2.68291E+03  2.54385E+03 -3.23276E+03  7.94612E+03 -1.65351E+02
  6.55769E+03  5.60344E+03  1.96599E+02  9.81389E+03 -6.98861E+03  1.01314E+04 -1.27002E+04  1.25718E+03
 -7.96686E+03 -6.13964E+03 -6.93625E+02 -1.04946E+04  7.38426E+03 -4.85627E+03  6.03167E+03  1.79310E+03
  4.40752E+02  7.41560E+03 -4.90160E+03  7.68427E+03 -9.51788E+03  4.99575E+03 -8.69545E+03 -3.99655E+03
 -6.56548E+03 -1.13199E+04  3.26263E+03 -1.35501E+04  1.07141E+04 -8.44621E+03  1.17545E+04  1.28067E+03
  8.03682E+03  9.03022E+03  1.49488E+01  1.15170E+04 -1.04894E+04  7.08597E+03 -9.31926E+03 -2.84302E+03
 -9.06596E+03 -7.14353E+03 -1.07685E+03 -7.46428E+03  6.07376E+03 -7.12430E+03  5.51535E+03 -2.77778E+03
  4.31236E+03  9.10296E+02 -6.44812E+02  2.08380E+03  3.19450E+01 -1.04935E+03  1.55968E+03 -5.94098E+03
  7.95142E+03 -3.03767E+03  1.10255E+04  1.62101E+03  1.10809E+04  6.69184E+03  8.64951E+03  1.52308E+04
 -4.07143E+03  1.73574E+04 -1.48049E+04  1.31495E+04 -1.84658E+04  1.65022E+03 -1.71859E+04 -7.00277E+03
 -9.07596E+03 -1.19612E+04  5.93791E+02 -9.59814E+03  3.72713E+03 -6.44815E+03  4.40557E+03 -3.79749E+03
  2.19996E+03 -1.57980E+03  1.81892E+03 -3.40334E+03  5.07992E+03 -2.85481E+03  6.62411E+03 -1.74293E+03
  7.63642E+03  1.95667E+03  4.95324E+03  7.63572E+03 -2.01539E+03  8.06259E+03 -8.72646E+03  5.98629E+03
 -1.06682E+04 -4.77951E+02 -5.70459E+03 -7.75433E+03 -5.28057E+02 -1.06242E+04  6.78279E+03 -9.82635E+03
  9.15255E+03 -6.08060E+03  1.38243E+04  2.07268E+02  1.00593E+04  9.81735E+03  1.69575E+03  1.14982E+04
 -5.01787E+03  1.00988E+04 -8.30522E+03  4.07062E+03 -5.49335E+03 -1.16070E+03 -2.06810E+03 -1.36620E+03
 -1.49720E+03 -1.04676E+03 -1.11011E+03  2.92827E+03 -4.19342E+03  3.46905E+03 -7.00088E+03 -1.44287E+03
 -4.90102E+03 -6.73829E+03  4.48802E+02 -1.05376E+04  7.26025E+03 -8.94441E+03  1.00446E+04 -8.04144E+02
  9.85838E+03  5.22674E+03  4.95485E+03  1.04062E+04 -2.83197E+03  9.47298E+03 -7.55964E+03  6.57092E+03
 -9.59685E+03  1.12215E+03 -6.34512E+03 -6.02944E+03 -1.54821E+02 -7.09772E+03  3.62161E+03 -5.55643E+03
  6.00557E+03 -1.40560E+03  3.32487E+03  2.56708E+03  2.36443E+03  2.66236E+03 -5.07928E+02  6.56102E+02
  1.43207E+03  1.49595E+03  2.13310E+03  9.71230E+02  2.83440E+03  4.36044E+03  1.73977E+03  4.93582E+03
 -2.41305E+03  6.32046E+03 -7.96871E+03  9.81055E+03 -9.01289E+03  2.62360E+03 -1.05677E+04 -3.11860E+03
 -3.72105E+03 -9.98798E+03  1.45860E+02 -1.10775E+04  6.98894E+03 -5.98467E+03  8.05154E+03 -1.12622E+03
  7.32790E+03  2.26862E+03  1.00965E+03  5.08098E+03 -2.66954E+03  3.19581E+03 -3.61990E+03 -1.81420E+03
 -2.78866E+03 -4.37343E+03  3.01375E+03 -3.51021E+03  4.67039E+03 -9.73066E+02  2.67515E+03  1.29884E+03
  1.99073E+03  1.49901E+03  3.76463E+02  6.31681E+02  1.67758E+02  1.02366E+03  6.80657E+02 -2.72080E+02
  1.02251E+03 -1.42623E+03  5.01349E+03  6.41738E+02  2.58560E+03  5.61441E+03 -1.47070E+03  7.77352E+03
 -4.67624E+03  3.34522E+03 -4.76173E+03  4.72475E+02 -5.52000E+03 -2.11540E+03 -7.07619E+02 -3.42070E+03
  1.80966E+03 -2.17943E+03  2.93981E+03 -2.10959E+03  2.81459E+03  1.50139E+03  2.04105E+02  3.22532E+03
 -3.30859E+03  2.29761E+03 -4.96261E+03 -3.20876E+03 -1.42876E+03 -6.18367E+03  8.87964E+02 -5.16730E+03
  2.72437E+03 -2.70448E+03  3.54886E+03  2.71658E+02  2.78947E+03  8.55911E+02  4.73827E+02  2.57198E+03
 -1.20815E+03 -7.13648E+01 -1.53781E+03 -2.15995E+03  1.93106E+03 -2.97811E+03  5.25960E+03 -2.49968E+03
  5.03532E+03  6.12036E+02  5.53821E+03  3.46589E+03  1.07028E+03  6.37162E+03 -2.81880E+03  5.63398E+03
 -6.83866E+03  2.30815E+03 -4.48351E+03 -1.27856E+03 -2.81036E+03 -4.82393E+03  1.32772E+03 -2.78142E+03
  4.07651E+03 -7.71583E+02  2.83797E+03  1.15288E+03  1.04229E+03  4.53922E+03  1.26527E+03  2.00473E+03
 -2.97358E+03  2.52781E+03 -1.73813E+03  3.32877E+02 -6.68411E+02  7.12378E+02 -9.40618E+02  1.14379E+03
 -2.64268E+03  3.08586E+03 -4.75046E+03  1.47901E+03 -5.55894E+03 -1.63976E+02 -5.60857E+03 -5.03396E+03
 -1.77574E+03 -7.69507E+03  8.44110E+02 -9.54329E+03  5.35833E+03 -8.05088E+03  8.20906E+03 -3.05875E+03
  8.57874E+03  1.22302E+03  4.10822E+03  4.65591E+03 -1.55226E+03  5.02952E+03 -3.63699E+03  4.85132E+03
 -2.47145E+03  2.65280E+03 -2.54776E+03 -1.37008E+03 -2.03660E+03 -1.36026E+03 -1.05980E+03  1.34571E+03
 -8.36411E+02 -3.75897E+02 -1.61696E+03 -3.99212E-02  3.83444E+02 -1.09547E+03 -7.11057E+02 -2.01302E+03
  3.21998E+03 -1.06980E+03  2.43715E+03  1.63638E+01  4.43809E+03  3.17395E+03  1.28803E+03  4.29993E+03
 -2.58122E+03  7.22588E+03 -5.92315E+03  2.72961E+03 -6.60861E+03  2.67642E+02 -5.38459E+03 -4.92982E+03
 -2.71326E+03 -6.20904E+03  2.07650E+03 -5.52981E+03  3.01532E+03 -3.34955E+03  4.32007E+03 -4.38924E+02
  1.63575E+03  1.18419E+03  2.44254E+02  1.77420E+03 -1.56765E+03 -5.71883E+01 -2.62360E+02 -2.49203E+03
  3.45305E+03 -8.99588E+02  2.24944E+03  8.64059E+02  1.86578E+02  2.83104E+03  1.33788E+03  3.10327E+03
 -2.72314E+03  2.89860E+03 -2.38622E+03  3.94411E+02 -2.51626E+03 -2.83134E+03  5.44131E+02 -5.29932E+03
  2.26156E+03 -4.04898E+03  4.16394E+03 -1.19085E+03  4.45540E+03  6.81835E+02  2.24582E+03  3.46260E+03
  8.01218E+02  2.27758E+03 -2.01604E+03  3.39805E+03 -2.63201E+03  1.45242E+03 -3.14249E+03 -9.14899E+02
 -1.32110E+03  1.95387E+02 -1.38803E+03  4.59104E+02 -1.87688E+03  3.80695E+01 -3.07764E+03 -1.75288E+02
 -4.55947E+03 -9.51352E+02 -6.01203E+02 -4.71617E+03  1.44827E+03 -3.74004E+03  1.80700E+03 -2.54563E+03
  3.13254E+03  4.37045E+02  2.59501E+03  3.57834E+03 -2.05361E+02  3.93564E+03 -1.77191E+03  2.23339E+03
