 $NMID ID='MM_0lb_SNR200_14hz_g45_11.RAW', FMTDAT='(8E13.5)'
 TRAMP=1., VOLUME=1. $END
  3.10783E+05  7.44478E+02  3.36996E+05  2.50989E+05  8.44989E+04  3.36421E+05 -1.32945E+05  2.50997E+05
 -1.90649E+05  8.19100E+04 -1.12356E+05 -3.46754E+04  1.62087E+03 -5.08151E+04  5.38999E+04  1.25420E+02
  3.41003E+04  5.25717E+04 -1.78204E+04  7.61538E+04 -6.09600E+04  6.37193E+04 -8.33976E+04  3.21066E+04
 -8.12956E+04 -1.21524E+04 -5.71558E+04 -5.25365E+04 -1.58250E+04 -6.92522E+04  2.62568E+04 -4.48566E+04
  3.93317E+04  4.34169E+03  1.66776E+04  4.66204E+04 -3.41202E+04  4.60612E+04 -6.57281E+04 -7.37275E+02
 -5.26562E+04 -5.65210E+04 -5.03080E+03 -7.65340E+04  3.32293E+04 -5.55357E+04  4.80948E+04 -1.74512E+04
  4.41518E+04  1.16937E+04  3.22934E+04  2.60210E+04  1.43098E+04  2.91714E+04 -4.44807E+03  2.73739E+04
 -2.24031E+04  1.22252E+04 -1.86232E+04 -4.23875E+03  5.52057E+03 -6.82779E+03  2.28479E+04  1.30983E+04
  7.65576E+03  3.42799E+04 -3.16858E+04  3.39359E+04 -6.22801E+04  1.54415E+03 -5.75094E+04 -4.17381E+04
 -1.30949E+04 -6.31657E+04  3.82209E+04 -4.39607E+04  5.65825E+04 -2.22670E+03  3.33660E+04  3.04353E+04
 -6.45791E+03  3.61241E+04 -2.97724E+04  1.59654E+04 -3.06832E+04 -4.06314E+03 -1.53549E+04 -1.17298E+04
 -7.77262E+03 -1.26522E+04 -7.12654E+02 -1.78798E+04  7.20197E+03 -2.28529E+04  1.56038E+04 -1.21104E+04
  1.16044E+04  4.57853E+03 -8.66307E+03  1.36661E+04 -2.00030E+04 -4.53164E+03 -7.95019E+03 -3.40535E+04
  2.26914E+04 -4.57698E+04  4.74692E+04 -1.93084E+04  4.33122E+04  1.91427E+04  1.57144E+04  4.37194E+04
 -1.59713E+04  3.46216E+04 -2.44673E+04  1.53317E+03 -9.42072E+03 -2.74930E+04  2.17594E+04 -3.25029E+04
  4.11887E+04 -8.39307E+03  3.61229E+04  2.41320E+04  1.70469E+04  4.55062E+04 -7.74455E+03  5.05559E+04
 -3.14156E+04  3.29887E+04 -4.19899E+04  7.52099E+03 -4.25833E+04 -1.66980E+04 -2.17840E+04 -3.67288E+04
  6.70081E+03 -3.77374E+04  3.17069E+04 -1.48364E+04  2.87167E+04  1.03746E+04  3.10412E+03  1.95360E+04
 -1.37973E+04  8.25546E+03 -1.00858E+04 -7.41136E+03  7.70219E+03 -1.13839E+04  1.86449E+04  6.23890E+03
  1.41778E+04  2.09843E+04 -6.36519E+03  2.45699E+04 -2.20766E+04  1.11359E+04 -2.72939E+04 -4.27206E+03
 -2.06507E+04 -1.69676E+04 -8.03481E+03 -2.03438E+04  4.51435E+03 -1.81015E+04  1.58631E+04 -1.72063E+04
  2.54066E+04 -1.27593E+04  3.17821E+04  2.28229E+03  2.37341E+04  2.02146E+04  4.50791E+03  3.64390E+04
 -1.69543E+04  3.04716E+04 -2.86861E+04  1.03493E+04 -2.11707E+04 -1.08077E+04 -3.55694E+03 -1.39701E+04
  1.69947E+03 -1.71626E+03 -3.67974E+03  7.18403E+03 -1.57163E+04  4.18807E+03 -1.65853E+04 -7.80622E+03
 -1.08176E+04 -1.98623E+04  5.78424E+03 -2.25907E+04  1.40475E+04 -1.66762E+04  1.75029E+04 -1.08553E+03
  1.05383E+04  1.28153E+04 -4.50531E+02  1.80668E+04 -1.37614E+04  1.12587E+04 -1.93434E+04 -3.61107E+03
 -1.38810E+04 -1.75349E+04 -1.94618E+03 -2.19687E+04  1.02598E+04 -1.77504E+04  1.80919E+04 -9.39148E+03
  1.72184E+04  8.57190E+02  1.20067E+04  4.54661E+03  7.07153E+03  8.92958E+02  8.31415E+03 -1.23169E+03
  1.69658E+04  2.40947E+03  1.92307E+04  1.58321E+04  1.17096E+04  3.03364E+04 -2.85900E+03  3.19894E+04
 -1.84203E+04  2.64755E+04 -3.09938E+04  1.31821E+04 -3.27626E+04 -3.47665E+03 -2.69224E+04 -1.69267E+04
 -1.23326E+04 -2.73828E+04  9.73918E+03 -2.35266E+04  2.07180E+04 -1.28406E+04  2.05644E+04  5.23256E+03
  7.89391E+03  1.36421E+04 -8.53724E+03  1.22386E+04 -1.58164E+04  2.86701E+03 -1.12786E+04 -9.43830E+03
  6.60832E+02 -1.48650E+04  7.22334E+03 -1.16435E+04  1.02244E+04 -9.47248E+02  2.38622E+03  6.64401E+03
 -7.33405E+03  1.66831E+03 -5.74175E+03 -5.49476E+03  2.94735E+01 -1.31140E+04  9.59933E+03 -1.33310E+04
  1.66826E+04 -7.45338E+03  1.85517E+04  2.47831E+03  1.56659E+04  1.35732E+04  6.45199E+03  1.99778E+04
 -3.43376E+03  2.16862E+04 -1.30874E+04  1.36216E+04 -1.40038E+04  3.29253E+03 -1.02848E+04 -3.13704E+03
 -5.18012E+03 -5.29702E+03 -1.36793E+03  1.48067E+03 -2.33869E+03  3.13063E+03 -5.04146E+03  3.34502E+03
 -1.01885E+04 -1.23119E+03 -1.08775E+04 -8.47256E+03 -4.80709E+03 -1.45917E+04  4.03882E+03 -1.13104E+04
  8.88598E+03 -4.00025E+03  6.04485E+03  2.13059E+03 -4.11634E+02  3.83684E+03 -5.30148E+03 -5.16095E+02
 -4.10041E+03 -7.32395E+03 -6.99531E+02 -9.55329E+03  6.10243E+03 -1.03196E+04  1.45207E+04 -6.16314E+03
  1.50249E+04  1.66772E+03  1.19569E+04  9.39521E+03  2.67463E+03  1.31490E+04 -6.72060E+03  1.10901E+04
 -9.83680E+03  3.93872E+03 -3.51315E+03 -1.48533E+03  8.34981E+02 -3.03650E+03  5.13059E+03 -1.00422E+03
  4.29150E+03  3.95073E+03 -4.69924E+00  9.11932E+03 -6.56144E+03  8.40014E+03 -1.10315E+04  2.68432E+03
 -6.26766E+03 -5.57334E+03  7.83552E+02 -9.15932E+03  5.77820E+03 -4.77015E+03  6.98639E+03  1.75902E+03
  1.81490E+02  6.00319E+03 -4.97203E+03  8.24830E+03 -7.64763E+03  3.59871E+03 -8.05822E+03 -3.29589E+03
 -5.03775E+03 -9.54177E+03  1.32819E+03 -1.08413E+04  9.57429E+03 -7.40505E+03  1.05873E+04  1.62144E+03
  5.58935E+03  7.31381E+03  4.89383E+02  1.12592E+04 -7.75431E+03  5.50153E+03 -7.34839E+03 -7.41882E+02
 -8.41048E+03 -7.19008E+03 -1.54468E+03 -7.96735E+03  3.12694E+03 -6.60807E+03  3.64091E+03 -3.36930E+03
  3.98982E+03  1.42088E+03  1.27750E+02  2.33206E+03  8.01437E+02 -1.71918E+03  1.31845E+03 -2.48944E+03
  6.69049E+03 -2.10071E+03  8.60626E+03  1.16934E+03  8.83843E+03  5.87354E+03  6.51950E+03  1.31951E+04
 -1.42168E+03  1.46575E+04 -1.21016E+04  1.09354E+04 -1.68318E+04  1.66825E+03 -1.14301E+04 -4.53316E+03
 -6.13033E+03 -9.76470E+03  3.91478E+02 -9.08341E+03  4.02518E+03 -4.02111E+03  2.40967E+03 -2.71979E+03
  2.07409E+03 -8.59574E+02  2.11836E+03 -1.14075E+03  4.44004E+03 -1.64453E+03  4.37982E+03  6.76794E+02
  7.08108E+03  2.02524E+03  3.28358E+03  4.47560E+03 -1.87325E+03  5.81320E+03 -5.92222E+03  5.15700E+03
 -8.56006E+03  2.70001E+02 -4.62410E+03 -5.44554E+03  4.04373E+02 -8.92943E+03  5.04586E+03 -9.89539E+03
  8.38841E+03 -4.35088E+03  1.12194E+04  1.57494E+03  8.33986E+03  6.68196E+03  1.51351E+03  9.41412E+03
 -4.79619E+03  8.21723E+03 -6.12519E+03  2.62091E+03 -4.23932E+03 -7.53752E+02 -1.53330E+03 -8.36917E+02
 -1.46550E+03 -5.75251E+02 -1.27296E+03  2.07192E+03 -2.62266E+03  2.78072E+03 -6.44589E+03 -1.34694E+03
 -3.91615E+03 -6.17985E+03  1.52669E+03 -8.96414E+03  4.52069E+03 -7.53384E+03  7.92861E+03 -2.72555E+03
  6.81110E+03  4.98232E+03  4.25554E+03  6.23710E+03 -2.21297E+03  6.83817E+03 -5.55107E+03  5.19885E+03
 -5.96271E+03  1.34292E+03 -6.45189E+03 -4.50604E+03  8.61362E+01 -5.28898E+03  3.14339E+03 -4.74260E+03
  5.40249E+03 -1.59425E+03  2.60569E+03  9.31334E+02  2.07624E+03  3.56040E+03  1.08510E+03  4.18395E+02
  3.51190E+03  5.21766E+02  2.16637E+03  2.49901E+03  1.69405E+03  4.03043E+03  2.00369E+03  4.09620E+03
 -1.58529E+03  5.49061E+03 -6.33495E+03  6.72486E+03 -7.34382E+03  3.00593E+03 -6.94463E+03 -2.52825E+03
 -3.59857E+03 -8.21183E+03  5.20682E+01 -8.03615E+03  3.86529E+03 -5.36844E+03  6.88380E+03 -1.70792E+03
  4.96852E+03  3.06174E+03  1.77444E+03  4.19064E+03 -1.49377E+03  3.45382E+03 -4.23037E+03 -1.24082E+03
 -5.35513E+02 -3.88709E+03  2.29259E+03 -1.78264E+03  3.64618E+03 -2.34831E+02  2.54702E+03  1.71398E+03
  1.37377E+03  5.23136E+02  1.59638E+03 -1.59422E+02 -9.36423E+02  1.60226E+03  2.08841E+03  5.31237E+02
  1.48537E+03  1.58027E+02  3.01112E+03  1.78729E+03  1.13493E+03  3.63560E+03 -1.17929E+03  6.91802E+03
 -3.36286E+03  2.09831E+03 -2.93266E+03  2.25145E+03 -4.42973E+03 -1.21348E+03 -1.34972E+03 -2.75191E+03
  5.30324E+02 -3.47526E+03  2.79405E+03 -3.22078E+02  1.85268E+03  1.57717E+03 -9.63198E+02  1.88539E+03
 -3.48735E+03  1.44405E+03 -3.46809E+03 -2.17706E+03 -8.82597E+02 -3.85560E+03  8.28853E+02 -1.73961E+03
  1.07530E+03 -1.81318E+03  2.51287E+03 -1.18481E+03  2.16073E+03  8.53567E+02  1.33685E+03  2.94530E+03
 -2.58773E+03  7.14649E+01 -1.28636E+03  2.22767E+02  6.50434E+02 -2.73147E+03  3.87757E+03 -1.38886E+03
  3.28358E+03  8.92368E+01  5.62107E+03  8.10140E+02  1.46638E+03  4.59726E+03 -1.09929E+03  3.03204E+03
 -3.70532E+03  1.84896E+03 -4.56020E+03 -9.83010E+02 -2.30272E+03 -2.49003E+03  2.89222E+02 -1.06079E+03
  2.48795E+03 -1.77895E+03  1.52850E+03 -7.36840E+02  1.69914E+02  2.48510E+03 -3.02219E+02  2.77120E+03
 -9.33886E+02  1.85542E+03 -1.50223E+03  1.44419E+03 -3.34914E+02  1.18009E+03 -8.54130E+02  9.59024E+02
 -2.15668E+03  1.38786E+03 -2.47892E+03  9.94728E+02 -3.88604E+03 -8.29469E+02 -4.42553E+03 -2.44326E+03
 -3.22944E+03 -6.48311E+03  1.38280E+03 -5.85316E+03  2.91799E+03 -6.20191E+03  5.50044E+03 -3.09748E+03
  5.52200E+03  5.61481E+02  3.52905E+03  3.28394E+03 -1.26796E+03  4.30909E+03 -5.06477E+02  3.19301E+03
 -2.78550E+03  2.16503E+03 -2.24703E+03 -4.65839E+02 -1.66738E+02 -6.28530E+02 -1.12583E+03  7.82276E+02
 -1.47355E+03  8.74670E+02 -1.17911E+03 -3.26449E+02  1.01811E+03 -1.54211E+03  5.61487E+02 -3.96111E+02
  1.95241E+03 -5.12549E+02  1.41162E+03  1.89926E+02  3.32481E+03  2.09017E+03  1.42887E+03  3.92935E+03
 -2.56398E+03  5.64719E+03 -3.01151E+03  2.62343E+03 -4.47935E+03  3.87006E+02 -4.33610E+03 -3.04579E+03
 -1.75433E+03 -4.41618E+03  1.28003E+03 -4.47330E+03  2.85863E+03 -1.45580E+03  3.21532E+03  5.63828E+02
  1.44359E+03  1.43741E+03  1.99246E+03  2.09669E+03 -1.23811E+03  8.03958E+02 -3.15002E+02 -1.27996E+03
  1.04674E+03 -5.24306E+02  1.00246E+03  3.63822E+02  1.44351E+02  1.69727E+03  2.78162E+02  1.79121E+03
 -1.99799E+03  1.61108E+03 -2.40976E+03 -8.32255E+02 -2.37417E+03 -1.88058E+03 -4.69790E+02 -2.14246E+03
  1.20525E+03 -2.42009E+03  3.02401E+03 -1.25321E+03  1.32429E+03 -9.28747E+02  1.71395E+03  3.13008E+03
  6.07062E+02  1.67472E+03 -1.38845E+02  2.40756E+03 -1.36083E+03  1.00547E+03 -1.31657E+03 -5.99399E+01
 -1.45130E+03  2.94788E+02 -1.19260E+03  3.55077E+02 -2.80315E+03  8.00154E+02 -2.16305E+03 -7.39455E+02
 -1.49589E+03 -3.92507E+02 -6.91780E+02 -2.75101E+03  4.53693E+02 -2.69929E+03  1.18762E+03 -2.46701E+03
  4.07693E+03  1.42918E+02  8.49983E+02  1.16809E+03  8.25862E+02  6.35197E+02 -1.84841E+03  1.30820E+03
