 $NMID ID='MM_0lb_SNR200_7hz_g60_4.RAW', FMTDAT='(8E13.5)'
 TRAMP=1., VOLUME=1. $END
  3.10455E+05  1.50276E+03  3.39798E+05  2.49354E+05  8.45327E+04  3.37727E+05 -1.34279E+05  2.52494E+05
 -1.88546E+05  8.35934E+04 -1.11890E+05 -3.12525E+04 -1.43068E+03 -5.22448E+04  5.45564E+04 -7.67928E+02
  3.61777E+04  5.29022E+04 -1.64065E+04  7.63883E+04 -6.11873E+04  6.39809E+04 -8.49608E+04  3.17542E+04
 -8.49514E+04 -1.23457E+04 -5.82702E+04 -5.32727E+04 -1.57716E+04 -7.16598E+04  3.03715E+04 -4.82600E+04
  4.25820E+04  3.62340E+03  1.76529E+04  4.87976E+04 -3.57258E+04  4.76061E+04 -6.84455E+04  5.52250E+02
 -5.61184E+04 -5.90327E+04 -8.42167E+03 -8.04457E+04  3.44362E+04 -5.89892E+04  5.05062E+04 -1.90275E+04
  4.60027E+04  9.67624E+03  3.24739E+04  2.66785E+04  1.65231E+04  3.03369E+04 -6.27616E+03  2.87320E+04
 -2.31816E+04  1.03483E+04 -1.89209E+04 -4.00731E+03  8.54061E+03 -9.23011E+03  2.27370E+04  1.31380E+04
  7.67861E+03  3.61339E+04 -3.43504E+04  3.75169E+04 -6.63395E+04  2.98965E+03 -6.04777E+04 -4.60217E+04
 -1.33718E+04 -6.72226E+04  4.15401E+04 -4.61269E+04  6.40453E+04 -3.07382E+03  3.79635E+04  3.53084E+04
 -4.67744E+03  4.06039E+04 -3.23272E+04  2.00146E+04 -3.64528E+04 -3.65429E+03 -2.11910E+04 -1.28476E+04
 -8.70056E+03 -1.66538E+04 -1.09464E+03 -2.24605E+04  8.45949E+03 -2.64588E+04  1.68929E+04 -1.06110E+04
  1.08373E+04  7.13476E+03 -1.17578E+04  1.31691E+04 -2.39344E+04 -7.79514E+03 -9.71350E+03 -4.00191E+04
  2.52086E+04 -5.03629E+04  5.59450E+04 -2.09851E+04  5.12373E+04  2.13829E+04  1.80877E+04  4.83546E+04
 -1.70378E+04  3.94719E+04 -2.78942E+04  4.77817E+03 -1.16259E+04 -3.15028E+04  2.32644E+04 -4.02442E+04
  4.52888E+04 -1.30424E+04  4.41324E+04  2.60060E+04  2.33878E+04  5.38653E+04 -6.76714E+03  6.07624E+04
 -3.75280E+04  4.20679E+04 -5.06858E+04  1.17259E+04 -5.04424E+04 -1.90627E+04 -2.71098E+04 -4.46039E+04
  9.54905E+03 -4.40196E+04  3.48850E+04 -1.92742E+04  3.30819E+04  9.88314E+03  5.52734E+03  2.09392E+04
 -1.50846E+04  1.18461E+04 -1.18140E+04 -8.20098E+03  5.30473E+03 -1.31891E+04  1.98206E+04  4.82661E+03
  1.49407E+04  2.11494E+04 -5.29461E+03  2.92748E+04 -2.19780E+04  1.65781E+04 -3.41300E+04 -1.75756E+03
 -2.74376E+04 -1.85107E+04 -1.50727E+04 -2.91134E+04  3.06171E+03 -3.03032E+04  2.19030E+04 -2.40213E+04
  3.56344E+04 -1.64164E+04  4.12629E+04  7.45919E+03  3.10269E+04  2.78212E+04  4.93003E+03  4.42128E+04
 -2.05023E+04  3.55923E+04 -3.25959E+04  1.43100E+04 -2.34821E+04 -9.91790E+03 -5.83018E+03 -1.15483E+04
  6.81448E+02 -2.26252E+03 -1.00458E+04  9.47040E+03 -2.17257E+04  4.43189E+03 -2.19501E+04 -1.12333E+04
 -1.44308E+04 -2.41226E+04  7.59845E+03 -2.98593E+04  1.93875E+04 -2.12913E+04  2.51832E+04 -5.25619E+02
  1.46882E+04  1.86045E+04  1.40376E+02  2.38723E+04 -1.97307E+04  1.42572E+04 -2.48361E+04 -4.07440E+03
 -1.95783E+04 -2.33059E+04 -1.94925E+03 -3.16981E+04  1.42130E+04 -2.73977E+04  2.36401E+04 -1.28344E+04
  2.49383E+04 -8.89963E+02  1.74147E+04  3.30762E+03  1.07382E+04  3.72990E+03  1.31851E+04 -1.94711E+03
  2.62282E+04  2.06573E+03  3.14791E+04  2.00641E+04  2.08498E+04  4.17076E+04 -3.13264E+03  5.02997E+04
 -2.82273E+04  4.27844E+04 -4.78858E+04  2.30327E+04 -5.23460E+04 -3.95944E+03 -4.09075E+04 -2.97706E+04
 -1.60854E+04 -4.32949E+04  1.51973E+04 -3.76224E+04  3.18315E+04 -1.63124E+04  2.85249E+04  8.95983E+03
  7.24755E+03  2.36101E+04 -1.49229E+04  1.97708E+04 -2.15111E+04  2.68240E+03 -2.01967E+04 -1.47027E+04
 -4.40048E+02 -2.37505E+04  1.22683E+04 -1.64425E+04  1.55074E+04 -1.11811E+03  3.98405E+03  1.12847E+04
 -1.05030E+04  4.22370E+03 -1.14992E+04 -4.83283E+03 -4.74653E+03 -1.89309E+04  1.18287E+04 -2.37949E+04
  2.64817E+04 -1.36572E+04  3.39739E+04  3.00395E+03  2.80124E+04  2.17043E+04  1.21936E+04  3.54902E+04
 -6.37000E+03  3.83197E+04 -2.39928E+04  2.09578E+04 -2.64239E+04  3.44702E+03 -1.78077E+04 -7.72048E+03
 -8.55871E+03 -1.01191E+04 -1.32125E+03  2.57998E+02 -2.14610E+03  4.43786E+03 -8.09807E+03  9.10448E+03
 -1.63059E+04 -2.72168E+03 -1.71657E+04 -1.42606E+04 -7.99264E+03 -2.20436E+04  8.02170E+03 -1.78808E+04
  1.63885E+04 -8.04746E+03  1.25862E+04  7.58718E+03  1.51497E+03  5.78444E+03 -9.28385E+03 -1.21920E+03
 -7.46497E+03 -1.06263E+04 -1.57410E+02 -2.12375E+04  9.88260E+03 -2.01247E+04  2.57946E+04 -1.17820E+04
  2.91873E+04  3.18473E+03  2.12548E+04  1.65999E+04  3.38312E+03  2.37683E+04 -1.09796E+04  1.76116E+04
 -1.61381E+04  5.18844E+03 -6.08507E+03 -4.07712E+03  2.48344E+03 -4.00482E+03  9.46631E+03 -5.19032E+02
  7.59355E+03  9.56313E+03 -7.45333E+02  1.40648E+04 -1.02825E+04  1.44003E+04 -1.99943E+04  3.22991E+03
 -1.19146E+04 -1.08270E+04  1.77349E+03 -1.68188E+04  1.19137E+04 -9.09060E+03  1.11061E+04  2.37024E+03
  1.94132E+03  1.33287E+04 -1.11881E+04  1.45864E+04 -1.66519E+04  6.14007E+03 -1.92404E+04 -6.64779E+03
 -1.09596E+04 -1.94347E+04  3.65522E+03 -2.24763E+04  2.05160E+04 -1.31244E+04  2.17311E+04  4.00934E+03
  1.20865E+04  1.62576E+04 -1.77161E+03  1.92161E+04 -1.41989E+04  1.06420E+04 -1.70425E+04 -7.91152E+02
 -1.31973E+04 -1.21680E+04  2.00068E+02 -1.60577E+04  7.57427E+03 -9.76669E+03  9.90497E+03 -5.11418E+03
  7.20471E+03  3.58755E+03 -1.78287E+03  2.57889E+03 -1.25321E+03 -4.62023E+03  2.86590E+03 -1.09894E+04
  1.64529E+04 -5.88126E+03  2.11263E+04  1.55946E+03  2.02819E+04  1.57626E+04  1.23892E+04  2.72587E+04
 -5.59157E+03  3.08409E+04 -2.44649E+04  2.17109E+04 -3.27099E+04  3.37619E+03 -2.60723E+04 -1.31329E+04
 -1.51918E+04 -2.19477E+04 -1.28152E+03 -2.09707E+04  8.25597E+03 -1.15354E+04  6.67411E+03 -6.81959E+03
  5.44882E+03 -3.50934E+03  5.70747E+03 -3.86446E+03  6.37444E+03 -3.80112E+03  9.94029E+03 -3.93348E+02
  1.23427E+04  1.95629E+03  6.47808E+03  1.14367E+04 -2.21552E+03  1.41576E+04 -1.36155E+04  1.05327E+04
 -1.86451E+04 -3.40911E+03 -1.28571E+04 -1.26014E+04 -1.70238E+03 -2.15842E+04  1.19509E+04 -2.00686E+04
  2.17134E+04 -9.89919E+03  2.65888E+04  4.58297E+03  1.75279E+04  1.89756E+04  3.11533E+03  2.43889E+04
 -1.11752E+04  1.74876E+04 -1.31369E+04  5.40296E+03 -9.45639E+03 -1.29327E+03 -5.03079E+03 -3.37748E+03
 -2.85637E+03  1.22958E+03 -4.04104E+03  1.77543E+03 -7.88152E+03  3.26773E+03 -1.22938E+04 -2.14499E+03
 -1.11084E+04 -1.37512E+04  1.52437E+03 -1.98896E+04  1.26707E+04 -1.74741E+04  1.95444E+04 -4.44756E+03
  1.94838E+04  9.17657E+03  1.07176E+04  1.75456E+04 -4.00403E+03  1.97027E+04 -1.56885E+04  1.34246E+04
 -1.97750E+04  7.81996E+02 -1.45511E+04 -1.11905E+04 -1.57153E+03 -1.73715E+04  7.87371E+03 -1.23409E+04
  1.13710E+04 -1.79287E+03  9.38093E+03  2.63065E+03  4.43536E+03  5.93129E+03  6.25881E+02  1.93837E+03
  1.91614E+03  3.07849E+03  4.62510E+03  1.46381E+03  5.81230E+03  6.20995E+03  6.03786E+03  1.01961E+04
 -2.14445E+03  1.68219E+04 -1.28178E+04  1.56205E+04 -1.89741E+04  4.63368E+03 -2.28851E+04 -1.01280E+04
 -9.78988E+03 -2.34151E+04  4.42015E+03 -2.15867E+04  1.01261E+04 -1.40182E+04  1.61356E+04 -2.52579E+03
  1.11560E+04  8.00060E+03  3.73117E+03  1.16834E+04 -6.37711E+03  7.34293E+03 -9.40239E+03 -3.30944E+03
 -3.97948E+03 -7.71749E+03  3.45692E+03 -9.97636E+03  9.23655E+03 -5.80716E+03  9.12348E+03  1.69871E+03
  5.41506E+03  5.06308E+03  2.95576E+03  3.74417E+03 -1.15395E+03  3.89002E+03  8.91758E+02 -1.22506E+03
  3.49891E+03  7.95541E+02  7.04767E+03  5.32122E+03  5.42215E+03  9.54698E+03 -2.21319E+03  1.26561E+04
 -1.07198E+04  1.20722E+04 -1.40184E+04  5.49897E+02 -1.07376E+04 -3.29400E+03 -5.45263E+03 -8.12243E+03
  2.18106E+03 -7.51442E+03  6.42651E+03 -4.65383E+03  5.48460E+03  2.70198E+03 -1.91527E+03  7.60192E+03
 -9.05663E+03  5.32042E+03 -1.38175E+04 -5.21149E+03 -5.02565E+03 -1.11536E+04  3.41604E+03 -1.06965E+04
  8.58331E+03 -7.53742E+03  8.15375E+03 -2.03134E+03  5.05375E+03  5.56932E+03  9.82461E+02  5.90925E+03
 -3.18742E+03  2.18942E+03 -5.31552E+03 -4.31689E+03  1.70436E+03 -9.54681E+03  1.12765E+04 -9.72559E+03
  1.50685E+04  7.66174E+02  1.23375E+04  1.00593E+04  4.90287E+03  1.61422E+04 -4.64211E+03  1.47246E+04
 -1.45801E+04  5.90425E+03 -1.30649E+04 -2.34614E+03 -6.49535E+03 -9.95702E+03  3.68592E+03 -8.96691E+03
  9.47218E+03 -4.26402E+03  9.88020E+03  4.46898E+03  3.43555E+03  7.68325E+03 -2.17238E+03  6.47882E+03
 -3.40808E+03  5.12091E+03 -2.34801E+03  1.37890E+03 -2.37522E+03  1.65746E+02 -9.53497E+02  1.34709E+03
 -3.72448E+03  4.61527E+03 -9.15513E+03  4.52398E+03 -1.33576E+04  9.09119E+01 -1.62563E+04 -8.37808E+03
 -7.87645E+03 -2.06968E+04  2.22033E+03 -2.51663E+04  1.37611E+04 -1.73980E+04  2.18296E+04 -6.89728E+03
  2.11211E+04  5.66171E+03  1.40127E+04  1.41055E+04  2.42916E+03  1.54425E+04 -6.70256E+03  1.15020E+04
 -9.01065E+03  2.32205E+03 -9.53094E+03 -1.33123E+03 -4.47316E+03 -1.65516E+03 -2.13179E+02  1.08360E+03
 -3.55571E+03  2.39501E+03 -2.39834E+03  4.48659E+00 -9.73744E+02 -3.35980E+03  1.04076E+03 -5.33817E+03
  6.13120E+03 -7.02446E+03  9.95326E+03 -9.31945E+02  1.15267E+04  8.55468E+03  3.76757E+03  1.67740E+04
 -8.49452E+03  1.91520E+04 -1.79863E+04  1.05368E+04 -1.90750E+04 -1.10733E+03 -1.40491E+04 -1.02730E+04
 -5.49802E+03 -1.61194E+04  3.01743E+03 -1.49748E+04  9.85262E+03 -7.43913E+03  1.02844E+04 -1.10092E+02
  7.15733E+03  6.96637E+03  3.39703E+02  3.24025E+03 -1.98494E+03 -6.48592E+02  1.65926E+03 -2.21765E+03
  3.29102E+03 -2.68405E+03  6.20052E+03  1.87303E+03  6.30839E+03  4.85712E+03 -1.04472E+03  8.94546E+03
 -9.08142E+03  6.83212E+03 -9.24744E+03  1.98242E+03 -1.14799E+04 -9.00628E+03 -2.66166E+03 -1.42793E+04
  6.91488E+03 -1.20257E+04  1.39713E+04 -3.77098E+03  1.22394E+04  5.50313E+03  5.75668E+03  1.09068E+04
  1.77103E+03  1.21658E+04 -6.24348E+03  7.27920E+03 -7.77840E+03  4.82779E+03 -5.17940E+03 -3.65660E+02
 -3.95777E+03 -6.70603E+02 -2.25673E+03  2.41018E+03 -8.09168E+03  2.65261E+03 -7.78900E+03 -1.60000E+03
 -6.00506E+03 -6.40890E+03 -3.37143E+03 -1.18579E+04  3.53209E+03 -1.18604E+04  1.19147E+04 -6.48019E+03
  1.02163E+04  9.92379E+02  6.68588E+03  8.91091E+03  3.36832E+02  1.02964E+04 -7.46737E+03  7.11767E+03
