 $NMID ID='MM_0lb_SNR200_11hz_g50_52.RAW', FMTDAT='(8E13.5)'
 TRAMP=1., VOLUME=1. $END
  3.10759E+05  1.66324E+02  3.37114E+05  2.50897E+05  8.61964E+04  3.37850E+05 -1.31962E+05  2.52031E+05
 -1.90962E+05  8.30354E+04 -1.11402E+05 -3.20035E+04  5.45955E+02 -4.89152E+04  5.48017E+04  1.68866E+02
  3.52365E+04  5.29614E+04 -1.71479E+04  7.46173E+04 -6.06454E+04  6.49681E+04 -8.43768E+04  3.10787E+04
 -8.15586E+04 -9.45861E+03 -5.78878E+04 -5.27915E+04 -1.49568E+04 -7.07955E+04  2.86430E+04 -4.67043E+04
  4.07899E+04  4.39317E+03  1.67483E+04  4.97079E+04 -3.49997E+04  4.76800E+04 -6.78221E+04  5.29987E+02
 -5.50924E+04 -5.73144E+04 -6.13320E+03 -7.74630E+04  3.25513E+04 -5.57175E+04  4.95307E+04 -1.76647E+04
  4.36650E+04  1.12663E+04  3.35556E+04  2.51146E+04  1.65501E+04  2.95498E+04 -6.24668E+03  2.85563E+04
 -2.28078E+04  1.19183E+04 -1.88873E+04 -5.08191E+03  6.37100E+03 -7.51987E+03  2.29037E+04  1.32275E+04
  6.19293E+03  3.68079E+04 -3.45063E+04  3.61557E+04 -6.39329E+04  1.54095E+03 -5.77641E+04 -4.42077E+04
 -1.22536E+04 -6.63539E+04  4.05253E+04 -4.66776E+04  5.96806E+04 -3.16924E+03  3.51825E+04  3.41291E+04
 -5.92668E+03  3.82647E+04 -3.26589E+04  1.66323E+04 -3.21634E+04 -4.12097E+03 -1.82652E+04 -1.23452E+04
 -9.40598E+03 -1.36503E+04 -9.36386E+02 -1.82701E+04  8.35926E+03 -2.34040E+04  1.65147E+04 -1.31471E+04
  1.03553E+04  5.96583E+03 -1.06539E+04  1.28746E+04 -2.25937E+04 -5.67589E+03 -1.01106E+04 -3.58309E+04
  2.43489E+04 -4.57464E+04  4.97882E+04 -2.00418E+04  4.71638E+04  1.97663E+04  1.68942E+04  4.60006E+04
 -1.67172E+04  3.53766E+04 -2.79779E+04  2.35155E+03 -1.02325E+04 -2.93785E+04  2.26899E+04 -3.41942E+04
  4.44090E+04 -9.98979E+03  3.79273E+04  2.47623E+04  2.06771E+04  4.92048E+04 -7.41315E+03  5.44214E+04
 -3.34599E+04  3.78583E+04 -4.50542E+04  1.08163E+04 -4.57848E+04 -1.74801E+04 -2.51807E+04 -4.00542E+04
  6.83898E+03 -3.92245E+04  3.20873E+04 -1.73615E+04  3.01787E+04  1.21252E+04  3.67502E+03  2.03616E+04
 -1.34752E+04  9.82696E+03 -9.63266E+03 -8.30628E+03  6.33431E+03 -1.12068E+04  1.68772E+04  5.65738E+03
  1.42662E+04  2.15913E+04 -5.73500E+03  2.72869E+04 -2.34779E+04  1.24489E+04 -2.90095E+04 -4.44480E+03
 -2.31447E+04 -1.88377E+04 -1.02266E+04 -2.18969E+04  4.33740E+03 -2.26293E+04  1.77975E+04 -2.19839E+04
  2.96787E+04 -1.37196E+04  3.59146E+04  3.59063E+03  2.56408E+04  2.26978E+04  5.51455E+03  3.95343E+04
 -1.82195E+04  3.18104E+04 -2.95716E+04  1.07985E+04 -2.23850E+04 -1.11740E+04 -3.48055E+03 -1.40126E+04
  2.11627E+03 -1.83756E+03 -7.79989E+03  7.93200E+03 -1.86207E+04  3.97642E+03 -1.88779E+04 -9.33990E+03
 -1.04859E+04 -2.10102E+04  7.48802E+03 -2.62916E+04  1.70296E+04 -1.78678E+04  2.02173E+04 -2.74516E+03
  1.18683E+04  1.47049E+04 -1.01688E+03  2.30260E+04 -1.41565E+04  1.25597E+04 -2.20909E+04 -4.56464E+03
 -1.51006E+04 -1.85000E+04 -2.16734E+03 -2.52733E+04  1.20648E+04 -2.16765E+04  2.02845E+04 -1.12239E+04
  1.92608E+04  1.93384E+01  1.52491E+04  4.12405E+03  7.32498E+03  1.64391E+03  1.17141E+04 -8.87016E+02
  1.91106E+04  1.56863E+03  2.29869E+04  1.68074E+04  1.49257E+04  3.44372E+04 -4.57311E+03  4.01304E+04
 -2.30886E+04  3.27462E+04 -3.69063E+04  1.65105E+04 -4.07611E+04 -2.55448E+03 -3.22612E+04 -2.33694E+04
 -1.40770E+04 -3.29541E+04  1.18384E+04 -2.91594E+04  2.65404E+04 -1.42152E+04  2.23907E+04  6.40950E+03
  8.23681E+03  1.69234E+04 -1.15765E+04  1.38267E+04 -1.76399E+04  1.92532E+03 -1.43590E+04 -1.13417E+04
 -1.38281E+03 -1.82544E+04  9.68710E+03 -1.40706E+04  1.15949E+04 -1.78017E+03  4.48425E+03  8.16281E+03
 -7.67015E+03  3.31281E+03 -7.95445E+03 -6.58514E+03  5.06063E+02 -1.70829E+04  1.19319E+04 -1.73298E+04
  1.99929E+04 -1.12106E+04  2.35547E+04  3.32949E+03  2.03695E+04  1.65433E+04  9.26972E+03  2.53534E+04
 -4.75769E+03  2.66020E+04 -1.82262E+04  1.77241E+04 -2.08986E+04  4.42496E+03 -1.31633E+04 -4.25274E+03
 -5.67589E+03 -5.10893E+03  1.17772E+03  2.77513E+02 -1.74913E+03  2.34059E+03 -7.91252E+03  4.28292E+03
 -1.16657E+04 -1.00659E+03 -1.31300E+04 -1.05295E+04 -6.21038E+03 -1.81261E+04  6.08873E+03 -1.34993E+04
  1.15653E+04 -6.64850E+03  8.32058E+03  3.73431E+03  9.21646E+00  5.99739E+03 -7.60466E+03 -7.83850E+02
 -5.46250E+03 -9.06932E+03 -2.03944E+03 -1.42866E+04  7.79980E+03 -1.34668E+04  1.62211E+04 -8.20999E+03
  1.93787E+04  2.64436E+03  1.39034E+04  1.17981E+04  3.69890E+03  1.52321E+04 -8.48338E+03  1.38465E+04
 -1.04137E+04  4.02874E+03 -5.77122E+03 -1.81260E+03  2.49899E+03 -4.18706E+03  7.39914E+03 -7.25869E+02
  6.51641E+03  4.63150E+03  2.04773E+03  9.93003E+03 -8.43808E+03  9.78488E+03 -1.32237E+04  1.84568E+03
 -9.41685E+03 -5.51818E+03  9.02125E+02 -1.14414E+04  9.04491E+03 -4.63882E+03  6.21861E+03  2.37423E+03
  2.44072E+03  9.41875E+03 -8.10122E+03  9.45603E+03 -1.14793E+04  4.92802E+03 -1.12115E+04 -4.65910E+03
 -6.54831E+03 -1.31776E+04  3.29875E+03 -1.69041E+04  1.41136E+04 -8.82860E+03  1.35220E+04  4.78387E+02
  8.19081E+03  1.08622E+04 -1.24691E+03  1.39416E+04 -1.00189E+04  8.07434E+03 -1.15736E+04 -1.13737E+03
 -7.99277E+03 -7.97359E+03 -7.77871E+02 -1.00923E+04  5.42811E+03 -7.75018E+03  5.74514E+03 -3.25414E+03
  6.07175E+03  2.83973E+03 -9.08021E+02  1.37686E+03 -7.83539E+02 -3.22444E+03  3.04601E+03 -5.82414E+03
  9.40779E+03 -4.09736E+03  1.25250E+04  2.35103E+03  1.24033E+04  9.10744E+03  9.88404E+03  1.68691E+04
 -4.40186E+03  2.04604E+04 -1.75217E+04  1.50085E+04 -2.16081E+04  2.64178E+03 -1.81688E+04 -5.81447E+03
 -9.11870E+03 -1.35702E+04 -4.95184E+02 -1.21906E+04  3.59986E+03 -7.29165E+03  4.60515E+03 -4.13537E+03
  1.42932E+03 -1.85101E+03  4.70952E+03 -3.44027E+03  4.19678E+03 -3.12479E+03  6.96909E+03 -2.54488E+03
  9.20014E+03  2.59281E+03  4.60983E+03  5.36597E+03 -2.19101E+03  9.23173E+03 -1.08877E+04  7.08607E+03
 -1.11487E+04 -1.41956E+03 -6.34514E+03 -8.16159E+03 -1.85177E+03 -1.37007E+04  6.04263E+03 -1.38973E+04
  1.38865E+04 -7.23286E+03  1.46804E+04  2.00112E+03  1.21368E+04  9.67272E+03  1.51491E+03  1.49500E+04
 -5.83751E+03  1.19328E+04 -7.63227E+03  3.64127E+03 -5.56007E+03 -1.41444E+03 -4.01485E+03 -2.38197E+03
 -1.67247E+02  4.94433E+02 -1.52292E+03  3.75340E+03 -5.56850E+03  2.13018E+03 -7.55341E+03 -1.16841E+03
 -6.46025E+03 -6.98913E+03  9.66118E+02 -1.21277E+04  6.35426E+03 -1.16390E+04  1.07037E+04 -4.00347E+03
  1.17590E+04  5.84371E+03  5.47667E+03  1.08000E+04 -1.34057E+03  1.12449E+04 -8.67177E+03  7.20883E+03
 -1.26801E+04  8.87330E+02 -7.83330E+03 -8.79673E+03 -8.16530E+02 -8.98122E+03  5.71353E+03 -7.80071E+03
  6.31898E+03 -4.03088E+03  5.09087E+03  2.08313E+03  2.05367E+03  3.83280E+03  8.59875E+02  1.27902E+03
  1.46733E+03  1.62673E+03  1.78749E+03  1.72825E+03  3.93138E+03  4.55206E+03  2.93336E+03  6.80478E+03
 -2.38414E+03  9.10117E+03 -8.31828E+03  9.93339E+03 -1.19871E+04  3.29292E+03 -1.25567E+04 -4.90550E+03
 -6.70137E+03 -1.11500E+04  1.66915E+03 -1.24646E+04  6.04424E+03 -8.66393E+03  9.37778E+03 -2.06052E+03
  7.90083E+03  3.98466E+03  1.19590E+03  6.91727E+03 -4.34712E+03  4.22583E+03 -5.41597E+03  3.05220E+02
 -3.39811E+03 -4.88998E+03  1.74322E+03 -5.12559E+03  5.53670E+03 -2.38326E+03  5.04933E+03  1.38659E+03
  2.62148E+03  1.51503E+03  1.04918E+03  8.50857E+02 -7.86027E+02  1.59520E+03  2.00693E+03 -6.79421E+02
  2.51367E+03 -3.87742E+02  4.56652E+03  1.99015E+03  5.94507E+02  4.96931E+03 -1.08691E+03  9.54830E+03
 -5.19726E+03  6.03875E+03 -6.85319E+03  1.97417E+03 -7.48456E+03 -2.21009E+03 -3.61162E+03 -4.88070E+03
  1.79150E+03 -5.46721E+03  2.60883E+03 -1.98491E+03  2.21875E+03  1.58642E+03 -1.55023E+03  4.81339E+03
 -4.45359E+03  1.19799E+03 -6.21139E+03 -3.57584E+03 -1.33163E+03 -5.88064E+03  1.03269E+03 -5.93944E+03
  5.05380E+03 -3.65450E+03  5.98552E+03 -7.43918E+02  3.96000E+03  1.56811E+03 -1.52880E+02  4.45915E+03
 -2.71832E+03  1.09598E+03 -2.63567E+03 -1.97087E+03 -2.69653E+02 -3.94836E+03  5.09924E+03 -2.32336E+03
  7.19812E+03  1.66321E+03  8.02876E+03  4.91070E+03  3.46868E+03  7.45585E+03 -3.21676E+03  7.14786E+03
 -5.65499E+03  3.19730E+03 -6.47212E+03 -7.35798E+02 -3.02016E+03 -4.88911E+03  1.63152E+03 -3.85435E+03
  4.94298E+03 -1.76219E+03  4.57195E+03  3.59050E+03  2.30240E+02  3.82831E+03  4.74893E+02  3.76182E+03
 -1.52773E+03  1.88889E+03 -2.11305E+03  2.89376E+02 -7.76516E+02  2.27897E+03 -1.09995E+03  1.91570E+03
 -2.35918E+03  4.30126E+03 -5.50580E+03  2.63773E+03 -7.04334E+03 -2.29771E+02 -8.61964E+03 -4.31805E+03
 -4.61089E+03 -9.88119E+03  2.68458E+03 -1.07435E+04  6.79510E+03 -9.89044E+03  1.06089E+04 -3.20880E+03
  1.01924E+04  1.69572E+03  5.69169E+03  6.96784E+03 -1.25887E+03  7.16940E+03 -3.19775E+03  5.13645E+03
 -3.16198E+03  1.31433E+03 -3.33383E+03 -4.88654E+02  3.53334E+02 -4.25550E+02 -7.92310E+02  9.15092E+01
 -1.02740E+03  2.29580E+02 -2.24620E+03 -2.85182E+02  3.08043E+02 -1.31935E+03 -7.89381E+02 -1.33940E+03
  4.07180E+03 -1.78388E+03  5.40507E+03  1.20144E+03  5.58398E+03  3.38051E+03  1.93067E+03  6.35630E+03
 -4.30897E+03  8.58699E+03 -7.98857E+03  4.49417E+03 -7.24034E+03 -8.86756E+02 -6.54490E+03 -5.18204E+03
 -2.94585E+03 -7.73895E+03  1.48489E+03 -7.91879E+03  4.80677E+03 -3.47782E+03  4.80776E+03 -6.24331E+02
  2.84984E+03  4.68192E+02  7.08941E+02  1.86127E+03 -2.04489E+01 -9.00644E+02 -9.94727E+02 -1.41597E+03
  2.04830E+03 -2.27452E+02  1.70760E+03  1.67860E+03  2.04267E+03  1.69996E+03  5.66296E+02  2.92039E+03
 -2.27937E+03  4.44580E+03 -3.65467E+03  6.81643E+02 -3.08446E+03 -3.56465E+03 -1.19037E+03 -4.80939E+03
  3.42014E+03 -3.93973E+03  3.91059E+03 -2.14866E+03  4.09853E+03  1.63161E+03  3.52036E+03  4.12644E+03
  8.09921E+02  5.12310E+03 -2.08294E+03  4.03927E+03 -2.38668E+03  1.74682E+03 -3.34968E+03  2.70689E+02
 -2.24899E+03 -6.67092E+02 -2.21359E+03  1.05715E+03 -3.55876E+03 -1.63570E+01 -4.36733E+03 -5.79332E+01
 -3.62563E+03 -2.57193E+03 -9.09590E+02 -4.02867E+03  9.23730E+02 -5.23816E+03  4.28351E+03 -1.58200E+03
  4.85873E+03 -1.79456E+01  2.38605E+03  3.81602E+03 -2.10251E+02  4.22304E+03 -3.65451E+03  3.67899E+03
