 $NMID ID='MM_0lb_SNR200_19hz_g55_84.RAW', FMTDAT='(8E13.5)'
 TRAMP=1., VOLUME=1. $END
  3.09627E+05 -1.58728E+02  3.37359E+05  2.50635E+05  8.54720E+04  3.37633E+05 -1.32066E+05  2.50598E+05
 -1.89829E+05  8.29050E+04 -1.11234E+05 -3.26277E+04  1.13587E+03 -5.04047E+04  5.34672E+04 -8.59007E+02
  3.49166E+04  5.26045E+04 -1.80180E+04  7.55096E+04 -5.95598E+04  6.30786E+04 -8.29999E+04  3.18637E+04
 -7.97480E+04 -9.96717E+03 -5.47846E+04 -5.00288E+04 -1.46044E+04 -6.85944E+04  2.74432E+04 -4.46466E+04
  3.97820E+04  3.19459E+03  1.50550E+04  4.77702E+04 -3.41575E+04  4.71556E+04 -6.51660E+04 -1.99688E+03
 -5.20942E+04 -5.66733E+04 -5.59899E+03 -7.62174E+04  3.30146E+04 -5.44407E+04  4.69196E+04 -1.59904E+04
  4.19239E+04  1.17716E+04  3.07197E+04  2.51817E+04  1.71002E+04  2.88868E+04 -3.82974E+03  2.78060E+04
 -2.13345E+04  1.23867E+04 -1.93473E+04 -3.70028E+03  5.20702E+03 -8.17258E+03  2.07988E+04  1.09075E+04
  7.71583E+03  3.39828E+04 -3.09217E+04  3.43851E+04 -6.13495E+04  3.27544E+03 -5.51869E+04 -4.15243E+04
 -1.19441E+04 -6.15634E+04  3.83841E+04 -4.39070E+04  5.61012E+04 -2.84134E+03  3.26202E+04  3.02042E+04
 -6.95136E+03  3.41813E+04 -2.88230E+04  1.40606E+04 -2.81985E+04 -5.74328E+03 -1.53866E+04 -1.03413E+04
 -7.53133E+03 -1.12052E+04  6.65859E+02 -1.71950E+04  6.21674E+03 -2.23732E+04  1.61976E+04 -1.30276E+04
  1.22496E+04  4.67295E+03 -6.70813E+03  1.26857E+04 -1.95592E+04 -2.12481E+03 -8.50772E+03 -3.15767E+04
  2.12128E+04 -4.05399E+04  4.63224E+04 -1.84774E+04  4.20118E+04  1.85367E+04  1.35832E+04  4.28197E+04
 -1.59582E+04  3.12576E+04 -2.47305E+04  2.00000E+03 -8.31145E+03 -2.66998E+04  2.04245E+04 -3.15720E+04
  3.78870E+04 -7.37449E+03  3.21595E+04  2.24069E+04  1.52680E+04  4.34240E+04 -9.00019E+03  4.54918E+04
 -2.89883E+04  3.11901E+04 -3.88991E+04  7.78629E+03 -3.87207E+04 -1.42615E+04 -2.17626E+04 -3.48641E+04
  7.43424E+03 -3.40766E+04  3.03944E+04 -1.22849E+04  2.76183E+04  1.11356E+04  4.20560E+03  1.86066E+04
 -1.29850E+04  7.21631E+03 -9.98331E+03 -7.81842E+03  6.16544E+03 -9.63202E+03  1.73915E+04  5.67418E+03
  1.25031E+04  2.12536E+04 -6.20606E+03  2.42725E+04 -2.15185E+04  9.34263E+03 -2.61125E+04 -5.92202E+03
 -1.71851E+04 -1.73585E+04 -5.92441E+03 -1.76425E+04  4.31534E+03 -1.68528E+04  1.30911E+04 -1.47056E+04
  2.26797E+04 -1.21749E+04  2.94013E+04  1.04608E+03  2.17754E+04  1.68691E+04  3.24722E+03  3.30787E+04
 -1.65391E+04  2.83811E+04 -2.52377E+04  8.74201E+03 -2.00533E+04 -9.99101E+03 -4.11145E+03 -1.32983E+04
  1.69257E+03 -2.96701E+03 -3.43272E+03  5.64638E+03 -1.25559E+04  4.83519E+03 -1.41077E+04 -5.22495E+03
 -7.88177E+03 -1.62753E+04  4.35270E+03 -1.96874E+04  1.26208E+04 -1.50731E+04  1.46829E+04 -6.23952E+02
  8.84992E+03  1.07821E+04 -1.08604E+03  1.63037E+04 -1.15589E+04  1.04696E+04 -1.52269E+04 -2.82995E+03
 -1.14925E+04 -1.44240E+04 -1.44305E+03 -2.02815E+04  7.95152E+03 -1.56337E+04  1.68142E+04 -8.62471E+03
  1.49983E+04  6.49380E+02  1.09728E+04  3.80457E+03  5.41854E+03  7.71450E+02  8.31899E+03 -1.75652E+03
  1.28784E+04  2.59387E+03  1.54458E+04  1.31496E+04  9.75488E+03  2.46421E+04 -2.64184E+03  2.72685E+04
 -1.63449E+04  2.12170E+04 -2.58932E+04  1.08132E+04 -2.51913E+04 -2.20340E+03 -2.30036E+04 -1.53876E+04
 -9.73973E+03 -2.09249E+04  6.73136E+03 -1.94303E+04  1.74286E+04 -1.08225E+04  1.63734E+04  4.02270E+03
  5.95445E+03  1.16597E+04 -7.62468E+03  1.08975E+04 -1.34149E+04  2.09918E+03 -1.04030E+04 -7.91976E+03
 -5.38060E+01 -1.23666E+04  6.92282E+03 -1.05354E+04  7.82172E+03 -9.37396E+02  1.37924E+03  5.37098E+03
 -5.60503E+03  1.48029E+03 -3.32054E+03 -5.26981E+03  1.32529E+03 -1.04830E+04  8.36600E+03 -1.14641E+04
  1.13420E+04 -4.76790E+03  1.17404E+04  2.95803E+03  1.09460E+04  8.78206E+03  5.35339E+03  1.48084E+04
 -1.40816E+03  1.60015E+04 -9.77702E+03  9.10857E+03 -1.22052E+04  2.65229E+03 -9.10046E+03 -1.34715E+03
 -4.70669E+03 -3.47942E+03 -8.01683E+02  5.99069E+02 -1.33194E+03  3.03580E+03 -3.46023E+03  3.21956E+03
 -9.19731E+03 -3.34909E+02 -9.24060E+03 -9.32016E+03 -4.46563E+03 -1.21680E+04  3.40034E+03 -7.46933E+03
  7.40508E+03 -2.50399E+03  4.20098E+03  1.94934E+03  5.64811E+02  4.08853E+03 -3.34595E+03 -9.18160E+01
 -3.29823E+03 -4.79479E+03 -1.00835E+03 -7.09282E+03  3.33191E+03 -8.77007E+03  9.73799E+03 -4.71291E+03
  1.20920E+04  2.27610E+02  8.22924E+03  6.36334E+03  3.15650E+03  9.29567E+03 -5.93673E+03  7.79681E+03
 -7.70530E+03  2.80338E+03 -3.15864E+03 -1.42638E+03  9.53596E+02 -1.34677E+03  4.51011E+03 -1.18772E+03
  4.62265E+03  4.26905E+03  4.14616E+02  6.39624E+03 -5.06882E+03  5.56415E+03 -8.38925E+03  1.60263E+03
 -5.60363E+03 -4.16066E+03  3.66047E+02 -6.99162E+03  3.87603E+03 -2.91211E+03  3.00420E+03  1.58933E+02
  4.33453E+02  3.74439E+03 -3.69467E+03  5.06117E+03 -5.78080E+03  2.66048E+03 -5.49261E+03 -7.28986E+02
 -2.49999E+03 -6.10069E+03  1.78124E+03 -6.74692E+03  6.02778E+03 -3.45675E+03  6.82453E+03 -1.17440E+02
  4.90704E+03  5.41219E+03  1.05519E+03  7.08758E+03 -5.53768E+03  5.48768E+03 -5.92833E+03 -3.02787E+02
 -5.19791E+03 -5.23219E+03 -1.85044E+03 -5.03326E+03  3.13970E+03 -4.98060E+03  2.05545E+03 -3.15667E+03
  2.39869E+03 -2.38432E+02  4.59534E+01  1.82556E+03  1.15262E+03 -5.81539E+02  1.68858E+01 -2.10385E+02
  4.10318E+03 -2.73934E+02  3.84723E+03 -2.50315E+02  5.84476E+03  2.99020E+03  5.39344E+03  6.58127E+03
 -1.81463E+03  7.43862E+03 -8.00999E+03  6.11451E+03 -9.00745E+03  1.20506E+03 -8.07538E+03 -2.46792E+03
 -4.78935E+03 -6.60067E+03  3.86800E+01 -5.03291E+03  2.10213E+03 -1.38734E+03  2.05122E+03 -2.37147E+03
  1.04510E+03 -1.17527E+03  2.19751E+03 -2.95600E+03  3.68668E+03 -1.75835E+03  3.17574E+03 -3.39965E+02
  4.51945E+03  1.60177E+03  6.54114E+02  2.99845E+03 -1.43102E+03  2.28778E+03 -4.86207E+03  3.01667E+03
 -5.35809E+03 -1.39916E+03 -1.78583E+03 -4.17682E+03  2.66150E+02 -5.32663E+03  2.99842E+03 -4.69282E+03
  4.09865E+03 -1.99685E+03  6.04400E+03  5.92032E+02  4.12158E+03  4.68725E+03  1.92034E+03  5.25887E+03
 -3.46211E+03  5.93836E+03 -3.52506E+03  1.40075E+03 -7.38571E+02 -9.29396E+02  1.29902E+02 -5.81203E+02
  6.28736E+01  8.45777E+02 -1.55763E+03  1.57855E+03 -2.42837E+03  1.44268E+03 -5.28509E+03 -4.47122E+02
 -2.11338E+03 -4.27398E+03  3.45040E+02 -5.17585E+03  3.43373E+03 -4.12782E+03  2.66062E+03 -9.24517E+02
  4.34485E+03  2.76863E+03  2.04386E+03  2.83552E+03  1.07954E+01  3.57468E+03 -3.36817E+03  1.20040E+03
 -4.37891E+03  5.81641E+02 -2.16486E+03 -2.57407E+03 -1.18238E+03 -2.85572E+03  2.44175E+03 -3.25642E+03
  3.34767E+03 -1.51502E+03  2.58506E+03  3.17721E+01  6.82099E+02  1.01139E+03  7.57887E+02  4.85562E+02
  1.53029E+03  6.75363E+02  1.31863E+03  1.07148E+03  1.47532E+03  1.51916E+03  5.47664E+02  1.63896E+03
 -1.21150E+03  2.52332E+03 -2.17400E+03  3.54374E+03 -2.97021E+03  7.02091E+02 -3.33603E+03  5.81453E+01
 -1.68423E+03 -2.85785E+03  1.00095E+03 -5.32166E+03  1.43198E+03 -2.75549E+03  3.43831E+03 -1.88823E+03
  1.86710E+03  1.22939E+03  5.86500E+02  1.57678E+03 -9.43321E+02  1.02917E+03 -2.11294E+03 -2.38487E+02
 -3.93372E+02 -2.15824E+03  1.16408E+03 -2.38901E+03  1.63670E+03 -2.70538E+01  1.29387E+03 -2.16474E+02
  1.11881E+03  3.68282E+02  2.59897E+02  3.24737E+02  7.28386E+02  1.48952E+03  2.58920E+03 -6.74514E+02
  3.87025E+02  1.72896E+02  2.13421E+03  4.01779E+02 -8.94989E+02  2.54400E+03 -8.01549E+02  1.74313E+03
 -2.38705E+03  1.99980E+03 -9.95643E+02  4.27702E+02 -1.04579E+03 -7.27473E+02 -8.44660E+01 -1.07200E+03
  6.20338E+02 -1.54459E+03  4.70377E+02 -8.34882E+02 -1.54643E+02  3.35980E+02 -4.59573E+02  1.43836E+03
 -1.03160E+03  5.23602E+02 -1.13887E+03 -1.03653E+03 -3.28844E+02 -1.59630E+03 -5.77878E+02 -9.26892E+02
  8.08553E+02  8.45183E+01 -5.98012E+02  6.39895E+01  1.23433E+03 -2.82212E+02 -5.28174E+02  1.76923E+03
  1.60758E+03  1.50822E+02 -1.16325E+03  2.97097E+02  7.26755E+02 -7.06318E+02  1.55416E+03 -6.27848E+02
  2.37196E+03  3.92366E+02  1.64867E+03  8.90549E+02  1.17664E+03  1.12598E+03  6.69263E+02  1.04182E+03
 -6.31062E+02  1.11996E+02 -1.41430E+03  2.61954E+02 -4.79190E+02 -1.32094E+03 -5.26315E+02  8.40317E+01
  1.31138E+03 -1.23865E+03  2.60477E+03  9.11427E+02 -9.98965E+02  1.75016E+03  1.08783E+03  5.87085E+02
 -4.40610E+00  4.59698E+02 -5.26323E+02 -3.53238E+02 -1.60583E+02  5.65173E+02 -3.53750E+01  3.53482E+02
 -7.56529E+01  7.35345E+01 -2.16155E+03  1.14104E+02 -2.20338E+03 -7.99254E+01 -3.13051E+03 -5.58146E+02
 -1.31148E+03 -9.34508E+02  1.18844E+03 -3.30160E+03  5.30193E+02 -1.35460E+03  2.12026E+03 -1.24463E+03
  1.80877E+03  3.92784E+02  5.71928E+02  1.54669E+03 -8.52660E+02  1.31853E+03 -1.06406E+03  1.65738E+03
  1.53230E+02  2.18624E+03  1.32669E+03  7.02612E+02 -9.08819E+02  6.42225E+02 -5.13717E+02  1.22895E+03
 -1.78130E+03 -1.47721E+01 -1.44611E+03 -5.53815E+02  1.39442E+03 -4.66803E+02 -5.37216E+02 -2.22412E+02
  1.48507E+03 -5.47223E+02 -1.30062E+02  1.05272E+02  6.33166E+02  1.22541E+03 -6.93327E+02  9.63165E+02
 -2.18900E+02  1.89652E+03 -5.44371E+02  1.82712E+03 -1.81510E+03 -4.46368E+02 -2.00826E+03  2.54392E+01
 -1.10355E+03 -2.24243E+03  7.79248E+01 -4.68235E+02  5.56598E+02 -4.61783E+02  1.65769E+02  9.09121E+02
  5.76257E+01  9.83869E+02 -7.77427E+02  7.34172E+02  7.45422E+02 -1.24732E+02 -2.99455E+02 -4.38839E+02
  1.19838E+03 -5.92214E+02  2.26033E+02  1.27090E+03  3.59375E+02 -9.60636E+01  6.19041E+02  4.54276E+01
 -4.07070E+02  7.44053E+02 -3.58918E+02  1.24666E+03  2.28799E+02  2.15375E+02 -7.07908E+02 -1.31303E+03
 -5.81062E+02  2.00008E+02  1.74000E+01  2.75102E+02  1.20136E+03 -5.43490E+02  2.22706E+02 -8.71487E+01
  1.01680E+03 -1.26944E+02 -3.33188E+02  3.08485E+02 -6.68039E+02  1.28254E+03  9.95232E+02 -2.12082E+02
 -4.45971E+02 -3.15704E+02  4.46954E+01  1.05602E+02 -8.59180E+02  1.40180E+00 -1.78655E+03  2.36548E+02
 -1.21234E+03  8.49762E+02  4.10562E+01 -6.57507E+01  8.52749E+02 -1.53688E+03  6.05991E+02 -3.53741E+02
 -3.79512E+02  3.34214E+02  3.08499E+02 -3.92758E+02 -8.11968E+00  1.46231E+03 -8.19477E+02  1.04925E+03
