 $NMID ID='MM_0lb_SNR200_8hz_g45_71.RAW', FMTDAT='(8E13.5)'
 TRAMP=1., VOLUME=1. $END
  3.10040E+05  1.47159E+03  3.37226E+05  2.49455E+05  8.48697E+04  3.38476E+05 -1.34869E+05  2.51413E+05
 -1.91772E+05  8.30695E+04 -1.13078E+05 -3.05894E+04 -1.99515E+03 -5.06029E+04  5.39936E+04 -1.14717E+03
  3.46013E+04  5.17408E+04 -1.55647E+04  7.54821E+04 -6.04168E+04  6.51120E+04 -8.53880E+04  3.19944E+04
 -8.16242E+04 -1.09935E+04 -5.72316E+04 -5.34009E+04 -1.42428E+04 -7.14315E+04  2.77875E+04 -4.79964E+04
  4.17131E+04  4.53574E+03  1.73693E+04  4.88074E+04 -3.48813E+04  4.60416E+04 -6.83012E+04 -1.03049E+03
 -5.52233E+04 -5.86205E+04 -6.51560E+03 -7.91601E+04  3.51240E+04 -5.77769E+04  5.11013E+04 -2.01731E+04
  4.36902E+04  1.15400E+04  3.26167E+04  2.63131E+04  1.38646E+04  3.14424E+04 -6.11049E+03  2.80585E+04
 -2.13180E+04  1.11258E+04 -1.73783E+04 -4.79222E+03  6.91613E+03 -6.18531E+03  2.25267E+04  1.44380E+04
  5.85232E+03  3.85579E+04 -3.45022E+04  3.63548E+04 -6.67512E+04  1.74324E+03 -5.84386E+04 -4.48168E+04
 -1.26881E+04 -6.59527E+04  4.34800E+04 -4.68367E+04  6.22442E+04 -2.40525E+03  3.67480E+04  3.43587E+04
 -3.97064E+03  4.08051E+04 -3.04843E+04  1.77076E+04 -3.33616E+04 -2.58122E+03 -1.82913E+04 -1.24793E+04
 -9.20536E+03 -1.46807E+04 -1.10952E+03 -2.04014E+04  8.53713E+03 -2.35599E+04  1.67912E+04 -1.37789E+04
  9.07696E+03  6.10971E+03 -1.17106E+04  1.21212E+04 -2.33645E+04 -5.93975E+03 -7.22272E+03 -3.65610E+04
  2.49966E+04 -4.74904E+04  5.23935E+04 -1.98842E+04  4.97270E+04  2.09097E+04  1.74298E+04  4.68688E+04
 -1.83394E+04  3.51501E+04 -2.88965E+04  2.64924E+03 -1.30477E+04 -3.03807E+04  2.24631E+04 -3.74960E+04
  4.56526E+04 -1.15407E+04  4.21242E+04  2.52091E+04  2.22352E+04  5.06864E+04 -8.33056E+03  5.70665E+04
 -3.61772E+04  3.92304E+04 -4.90604E+04  1.05139E+04 -4.82066E+04 -2.04483E+04 -2.60381E+04 -4.18836E+04
  7.38760E+03 -4.09201E+04  3.24529E+04 -1.69741E+04  3.14983E+04  1.18949E+04  5.68962E+03  2.11735E+04
 -1.27780E+04  1.01091E+04 -1.30752E+04 -7.61862E+03  6.35146E+03 -1.25465E+04  1.83961E+04  5.86867E+03
  1.37373E+04  2.31589E+04 -4.56238E+03  2.80114E+04 -2.30436E+04  1.51066E+04 -3.20085E+04 -3.79595E+03
 -2.50191E+04 -1.78942E+04 -1.20022E+04 -2.50999E+04  4.29456E+03 -2.56305E+04  2.07982E+04 -2.51867E+04
  3.32113E+04 -1.34488E+04  3.75288E+04  4.54769E+03  2.77382E+04  2.51019E+04  3.83689E+03  4.18197E+04
 -2.05906E+04  3.40614E+04 -3.09078E+04  1.19605E+04 -2.27905E+04 -9.88175E+03 -5.77842E+03 -1.36212E+04
 -4.03513E+02 -3.67524E+03 -8.50263E+03  8.37087E+03 -2.03852E+04  7.62976E+03 -2.08577E+04 -1.07898E+04
 -1.19112E+04 -2.25100E+04  5.06887E+03 -2.77061E+04  1.97927E+04 -2.07556E+04  2.44153E+04 -3.10055E+03
  1.59021E+04  1.65176E+04 -5.07081E+02  2.52381E+04 -1.78024E+04  1.26494E+04 -2.57025E+04 -4.56565E+03
 -1.70977E+04 -2.09367E+04 -1.50728E+03 -2.98357E+04  1.21344E+04 -2.37422E+04  2.34236E+04 -1.11170E+04
  2.17709E+04  8.60045E+02  1.60640E+04  6.36051E+03  8.83080E+03  1.30329E+03  1.20787E+04 -1.78017E+03
  2.38580E+04  2.93606E+03  2.61305E+04  1.82044E+04  1.77294E+04  3.95162E+04 -4.27803E+03  4.71886E+04
 -2.42033E+04  3.89774E+04 -4.34745E+04  1.99253E+04 -4.66811E+04 -3.45061E+03 -3.73568E+04 -2.72381E+04
 -1.50088E+04 -3.92313E+04  1.40670E+04 -3.47055E+04  2.87009E+04 -1.78088E+04  2.49974E+04  9.10333E+03
  8.71924E+03  1.98297E+04 -1.01307E+04  1.68917E+04 -2.03773E+04  3.25742E+03 -1.47333E+04 -1.34959E+04
 -9.83024E+02 -2.12407E+04  1.13986E+04 -1.53603E+04  1.37453E+04 -6.01564E+02  2.98044E+03  8.05849E+03
 -8.33500E+03  5.46527E+03 -1.00434E+04 -5.99108E+03 -2.44314E+03 -1.89857E+04  1.40443E+04 -2.18995E+04
  2.23479E+04 -1.19073E+04  2.84617E+04  1.32445E+03  2.44443E+04  2.06382E+04  1.01568E+04  3.17908E+04
 -6.35658E+03  3.20134E+04 -2.26994E+04  2.04010E+04 -2.42573E+04  2.11648E+03 -1.75719E+04 -5.45875E+03
 -8.63478E+03 -6.69530E+03  6.26589E+02 -4.08410E+02 -5.41659E+03  5.13060E+03 -8.13899E+03  6.72655E+03
 -1.59878E+04 -1.55518E+03 -1.52164E+04 -1.13457E+04 -7.73851E+03 -2.11574E+04  6.86342E+03 -1.59947E+04
  1.20189E+04 -7.10292E+03  1.04359E+04  4.81266E+03 -3.68665E+02  7.12753E+03 -6.92705E+03 -2.00785E+02
 -7.41986E+03 -9.87605E+03 -2.07895E+03 -1.72383E+04  9.14994E+03 -1.65726E+04  2.08442E+04 -8.96817E+03
  2.49895E+04  5.08812E+02  1.78186E+04  1.53227E+04  2.19572E+03  2.12524E+04 -1.03625E+04  1.66526E+04
 -1.12084E+04  5.61113E+03 -6.85167E+03 -5.67521E+03  1.35470E+03 -4.61007E+03  7.53392E+03 -1.00502E+03
  9.56030E+03  6.47971E+03 -1.22378E+01  1.31418E+04 -9.55788E+03  1.18473E+04 -1.63611E+04  3.45761E+03
 -1.08615E+04 -8.45815E+03 -4.90574E+02 -1.24284E+04  9.07416E+03 -6.72215E+03  8.55119E+03  3.14394E+03
  3.80174E+03  1.13482E+04 -8.75174E+03  1.20766E+04 -1.63617E+04  7.43575E+03 -1.60079E+04 -4.49741E+03
 -9.78302E+03 -1.76965E+04  2.82806E+03 -1.77272E+04  1.51140E+04 -1.16100E+04  1.85363E+04  1.14889E+03
  1.04342E+04  1.42890E+04 -8.63232E+02  1.59990E+04 -1.27784E+04  8.55027E+03 -1.37290E+04 -8.83265E+02
 -1.11202E+04 -1.26509E+04 -1.29010E+03 -1.21101E+04  7.15407E+03 -9.61370E+03  9.28938E+03 -1.60287E+03
  5.16777E+03  1.56775E+03 -1.44095E+03  2.76484E+03 -9.45378E+02 -2.89062E+03  2.85852E+03 -7.28103E+03
  1.22547E+04 -4.10734E+03  1.72409E+04  3.92604E+03  1.54790E+04  1.23141E+04  1.21766E+04  2.28166E+04
 -4.36904E+03  2.57943E+04 -2.00386E+04  1.96429E+04 -2.86074E+04  2.05913E+03 -2.19064E+04 -1.04461E+04
 -1.23342E+04 -1.88834E+04 -1.54677E+03 -1.47476E+04  6.53517E+03 -8.83896E+03  4.94758E+03 -4.71180E+03
  3.95773E+03 -4.09340E+03  4.85525E+03 -2.58793E+03  4.62588E+03 -3.40989E+03  8.70556E+03 -1.40425E+03
  1.01939E+04  2.05620E+03  7.41501E+03  9.61609E+03 -1.42519E+03  1.24092E+04 -1.28438E+04  8.31033E+03
 -1.64228E+04 -1.26571E+03 -1.17970E+04 -1.04056E+04 -1.87701E+03 -1.79787E+04  1.02658E+04 -1.75335E+04
  1.78087E+04 -9.22946E+03  1.97451E+04  2.79129E+03  1.56542E+04  1.42119E+04  2.47841E+03  1.92263E+04
 -9.52570E+03  1.52872E+04 -1.00792E+04  4.09279E+03 -7.31149E+03 -1.16014E+03 -3.23634E+03 -4.54687E+03
 -2.38371E+03  8.58001E+02 -3.58449E+03  3.70222E+03 -4.91598E+03  3.69427E+03 -1.08845E+04  1.51127E+02
 -8.22609E+03 -1.12048E+04 -8.35004E+02 -1.58860E+04  9.91579E+03 -1.42686E+04  1.52330E+04 -5.39625E+03
  1.42499E+04  7.08095E+03  7.61617E+03  1.49114E+04 -2.55323E+03  1.72834E+04 -1.28028E+04  1.12494E+04
 -1.57347E+04 -5.40303E+02 -1.08005E+04 -1.13431E+04 -9.85212E+02 -1.23946E+04  6.11165E+03 -9.82248E+03
  9.87103E+03 -2.97846E+03  7.17282E+03  2.77893E+03  4.42188E+03  2.55947E+03  1.93946E+03  2.54904E+03
  3.24619E+03  7.35562E+02  5.05998E+03  2.55002E+03  5.96409E+03  5.40644E+03  3.02614E+03  9.88447E+03
 -2.18635E+03  1.57249E+04 -1.04382E+04  1.36234E+04 -1.75146E+04  3.02505E+03 -1.71248E+04 -7.18890E+03
 -8.25094E+03 -1.61721E+04  2.14111E+03 -1.78895E+04  1.08914E+04 -1.38832E+04  1.33980E+04 -3.25210E+03
  1.16697E+04  7.10830E+03  2.72187E+03  9.92122E+03 -5.36573E+03  6.46479E+03 -6.19989E+03 -4.94378E+02
 -4.63826E+03 -6.56010E+03  4.05651E+03 -8.70687E+03  7.24184E+03 -2.56635E+03  6.78216E+03 -4.68483E+02
  4.13199E+03  4.45334E+03  1.13342E+03  2.00686E+03 -1.00165E+03  3.09396E+03  1.59963E+03 -3.06037E+03
  2.47011E+03 -2.77645E+02  6.83180E+03  4.13301E+03  3.25949E+03  7.45559E+03 -1.81158E+03  1.06549E+04
 -9.15490E+03  8.64554E+03 -9.57074E+03  1.47585E+03 -8.99551E+03 -3.35433E+03 -3.30324E+03 -6.27420E+03
  1.28268E+03 -6.53745E+03  3.83616E+03 -3.56907E+03  4.33741E+03  1.49203E+03 -1.97477E+03  5.14033E+03
 -7.97152E+03  3.75135E+03 -8.76002E+03 -4.48930E+03 -3.99437E+03 -8.80821E+03  7.08017E+02 -8.27812E+03
  6.57494E+03 -5.12107E+03  6.85764E+03 -7.91383E+02  6.92705E+03  3.77675E+03 -1.17525E+02  4.39026E+03
 -3.31144E+03  2.20841E+03 -4.93619E+03 -3.51295E+03  4.01438E+03 -8.08760E+03  7.80000E+03 -6.02741E+03
  9.82056E+03  2.54814E+02  9.95396E+03  8.60012E+03  3.08457E+03  1.24552E+04 -3.91639E+03  1.32362E+04
 -8.42117E+03  3.58689E+03 -9.19643E+03 -1.02328E+02 -5.52959E+03 -7.42253E+03  3.99425E+02 -5.29020E+03
  7.33826E+03 -3.15669E+03  5.12911E+03  2.15918E+03  1.44118E+03  6.43022E+03 -1.81884E+03  5.57301E+03
 -3.62683E+03  4.89753E+03 -2.11141E+03  2.36134E+03 -3.53283E+03 -3.14007E+02 -2.67905E+03  2.20640E+03
 -3.74293E+03  4.22952E+03 -9.03778E+03  4.84935E+03 -1.10192E+04 -5.24725E+02 -1.34718E+04 -8.22421E+03
 -6.54834E+03 -1.37902E+04  3.46031E+03 -1.68712E+04  9.09121E+03 -1.46463E+04  1.63468E+04 -4.66521E+03
  1.57107E+04  5.21141E+03  9.41166E+03  1.09409E+04 -9.05532E+00  1.15622E+04 -4.29652E+03  1.06168E+04
 -6.62648E+03  3.61400E+03 -3.32651E+03 -1.16205E+03 -1.09046E+03 -9.44693E+02 -9.19344E+02 -4.78380E+02
 -1.59922E+03 -3.65379E+02 -2.39907E+03  2.16102E+02 -5.08827E+02 -4.12517E+03  1.07973E+03 -2.66796E+03
  4.50376E+03 -3.48717E+03  7.04550E+03 -9.48105E+02  8.45273E+03  7.14939E+03  3.04639E+03  1.21314E+04
 -5.30339E+03  1.41661E+04 -1.24963E+04  8.27027E+03 -1.56527E+04 -8.61576E+01 -1.30828E+04 -9.02086E+03
 -5.00969E+03 -1.15479E+04  4.70419E+03 -1.20821E+04  7.87732E+03 -4.50310E+03  8.90501E+03 -5.38065E+02
  4.99472E+03  2.36799E+03  2.58894E+02  4.05629E+03 -2.05383E+03 -1.52247E+03  9.50902E+02 -3.40660E+03
  5.80767E+03 -2.78358E+03  5.23222E+03  1.80311E+03  3.83586E+03  4.83132E+03 -1.68069E+02  7.48801E+03
 -4.92170E+03  5.45956E+03 -9.21551E+03  9.78091E+02 -7.95021E+03 -6.59529E+03 -2.34382E+02 -1.07161E+04
  6.50396E+03 -9.12582E+03  9.53390E+03 -3.12942E+03  9.35075E+03  2.72519E+03  5.72054E+03  8.23080E+03
  1.24863E+03  8.77620E+03 -2.32013E+03  5.78623E+03 -4.03626E+03  3.99264E+03 -3.55094E+03  2.16680E+02
 -2.72586E+03  6.38508E+00 -1.72107E+03  1.57821E+01 -4.59535E+03  1.39240E+03 -7.35850E+03 -2.29347E+03
 -6.29605E+03 -6.44465E+03 -1.81051E+03 -9.04287E+03  4.44782E+03 -9.21497E+03  8.10405E+03 -3.64434E+03
  7.22508E+03  6.32536E+02  6.43193E+03  5.99819E+03 -1.18917E+03  6.19763E+03 -4.46230E+03  5.01512E+03
