 $NMID ID='MM_0lb_SNR200_16hz_g45_24.RAW', FMTDAT='(8E13.5)'
 TRAMP=1., VOLUME=1. $END
  3.09846E+05 -6.68388E+01  3.36591E+05  2.51050E+05  8.49228E+04  3.36784E+05 -1.32708E+05  2.50575E+05
 -1.89840E+05  8.27069E+04 -1.11449E+05 -3.34018E+04  1.64630E+03 -4.94971E+04  5.37805E+04 -4.04617E+02
  3.56757E+04  5.24368E+04 -1.68717E+04  7.66241E+04 -6.10691E+04  6.36347E+04 -8.30672E+04  3.16892E+04
 -7.90874E+04 -1.17834E+04 -5.60027E+04 -5.03391E+04 -1.52731E+04 -6.84098E+04  2.60717E+04 -4.52597E+04
  3.96198E+04  4.96196E+03  1.53457E+04  4.83448E+04 -3.45446E+04  4.68060E+04 -6.61866E+04 -1.24900E+03
 -5.22046E+04 -5.69496E+04 -5.69492E+03 -7.58018E+04  3.36034E+04 -5.33823E+04  4.66116E+04 -1.67031E+04
  4.21775E+04  1.12888E+04  3.11282E+04  2.47577E+04  1.56206E+04  2.90075E+04 -4.65055E+03  2.72893E+04
 -2.27205E+04  1.24839E+04 -1.86644E+04 -4.82210E+03  5.44132E+03 -6.97699E+03  2.21802E+04  1.12734E+04
  7.17520E+03  3.37748E+04 -3.18510E+04  3.57051E+04 -6.18087E+04  2.45357E+03 -5.69586E+04 -4.14958E+04
 -1.17069E+04 -6.09823E+04  3.86623E+04 -4.44475E+04  5.75190E+04 -1.71788E+03  3.22025E+04  3.27981E+04
 -6.91734E+03  3.46702E+04 -2.94528E+04  1.37993E+04 -2.90541E+04 -3.13530E+03 -1.52775E+04 -1.09909E+04
 -7.53451E+03 -1.18357E+04 -1.62689E+03 -1.77307E+04  6.91838E+03 -2.20951E+04  1.41320E+04 -1.45241E+04
  1.18783E+04  3.92951E+03 -7.30984E+03  1.27668E+04 -2.03570E+04 -3.73609E+03 -7.15163E+03 -3.24399E+04
  2.26014E+04 -4.17885E+04  4.70329E+04 -1.91558E+04  4.26080E+04  1.80274E+04  1.45289E+04  4.27974E+04
 -1.60351E+04  3.24615E+04 -2.35701E+04  9.99497E+02 -9.11400E+03 -2.57734E+04  2.13751E+04 -3.18984E+04
  3.97708E+04 -7.63982E+03  3.34779E+04  2.28245E+04  1.65830E+04  4.50937E+04 -7.38302E+03  4.78447E+04
 -2.96653E+04  3.25639E+04 -4.02255E+04  8.31389E+03 -4.13555E+04 -1.60485E+04 -2.18552E+04 -3.64048E+04
  7.55388E+03 -3.42937E+04  2.96554E+04 -1.30459E+04  2.82063E+04  1.04060E+04  3.05535E+03  1.87527E+04
 -1.42538E+04  7.56110E+03 -1.00126E+04 -8.91749E+03  4.91166E+03 -1.13079E+04  1.76665E+04  5.85130E+03
  1.24717E+04  2.20747E+04 -6.98098E+03  2.35566E+04 -2.20858E+04  9.83336E+03 -2.69634E+04 -4.80326E+03
 -1.86322E+04 -1.64745E+04 -7.03440E+03 -1.89038E+04  4.20884E+03 -1.68758E+04  1.40941E+04 -1.62067E+04
  2.36096E+04 -1.31214E+04  3.06175E+04  2.03130E+03  2.22652E+04  1.73234E+04  4.27840E+03  3.25946E+04
 -1.63259E+04  2.84113E+04 -2.64791E+04  9.46022E+03 -2.07784E+04 -1.04142E+04 -4.77495E+03 -1.43355E+04
  2.12695E+03 -3.51909E+03 -3.16265E+03  6.34089E+03 -1.47939E+04  5.50622E+03 -1.46586E+04 -5.51892E+03
 -9.39208E+03 -1.66945E+04  4.85450E+03 -2.13295E+04  1.37558E+04 -1.36287E+04  1.64472E+04 -1.14915E+03
  1.04979E+04  1.15924E+04 -1.62273E+03  1.68504E+04 -1.09168E+04  8.96525E+03 -1.68009E+04 -3.16351E+03
 -1.32454E+04 -1.66485E+04 -1.05325E+03 -2.09103E+04  9.36296E+03 -1.64727E+04  1.77741E+04 -7.89414E+03
  1.51946E+04  7.19421E+02  1.19879E+04  3.85543E+03  6.49259E+03  1.18046E+03  8.76103E+03 -2.44872E+03
  1.57082E+04  2.82187E+03  1.75429E+04  1.34125E+04  9.83783E+03  2.76335E+04 -2.85294E+03  2.89089E+04
 -1.77455E+04  2.29661E+04 -2.81182E+04  1.15169E+04 -2.83553E+04 -2.74214E+03 -2.47773E+04 -1.76071E+04
 -1.05640E+04 -2.31570E+04  7.33181E+03 -2.23863E+04  1.87309E+04 -1.11658E+04  1.72048E+04  5.12781E+03
  6.57802E+03  1.37675E+04 -7.85758E+03  1.13987E+04 -1.38402E+04  3.10855E+03 -1.16439E+04 -8.30746E+03
  2.66412E+02 -1.46262E+04  6.37200E+03 -9.17432E+03  9.32720E+03 -1.01612E+03  1.47550E+03  6.45952E+03
 -7.22925E+03  1.14371E+03 -4.43633E+03 -4.90844E+03  8.53285E+02 -1.15692E+04  9.31111E+03 -1.25238E+04
  1.30986E+04 -5.37814E+03  1.47045E+04  2.07532E+03  1.34157E+04  1.01428E+04  5.56754E+03  1.63802E+04
 -2.43064E+03  1.81584E+04 -1.20337E+04  1.16051E+04 -1.40895E+04  3.18403E+03 -9.89385E+03 -1.87641E+03
 -4.58851E+03 -4.34574E+03  4.44298E+01  1.95230E+03 -1.88398E+03  2.82391E+03 -5.62514E+03  3.37899E+03
 -1.01429E+04 -6.68852E+02 -9.87313E+03 -8.66121E+03 -4.07003E+03 -1.28125E+04  2.81882E+03 -9.75365E+03
  8.40985E+03 -3.63304E+03  4.94916E+03  2.04858E+03  1.13527E+03  3.00886E+03 -4.20724E+03  4.62982E+02
 -4.11284E+03 -6.15493E+03 -1.54297E+02 -8.13379E+03  4.66389E+03 -1.04292E+04  1.23879E+04 -4.71400E+03
  1.54493E+04  1.54596E+03  1.01822E+04  6.98956E+03  2.35232E+03  1.11731E+04 -7.09565E+03  9.36201E+03
 -9.38285E+03  3.21787E+03 -4.07397E+03 -7.25502E+02  8.11993E+02 -2.75226E+03  5.35545E+03 -1.16064E+03
  5.08831E+03  4.56697E+03  1.65742E+03  6.66582E+03 -5.49935E+03  8.18407E+03 -9.33889E+03  8.75776E+02
 -5.70533E+03 -4.68889E+03 -1.30260E+02 -7.39487E+03  5.09516E+03 -3.87369E+03  4.55982E+03  1.43954E+03
  1.47663E+03  5.33580E+03 -4.61252E+03  5.80337E+03 -6.22239E+03  1.77479E+03 -5.99550E+03 -1.50819E+03
 -3.75351E+03 -5.53732E+03  1.17089E+03 -9.28115E+03  7.00621E+03 -6.65102E+03  8.55717E+03  7.48634E+02
  5.41908E+03  7.29365E+03 -2.71144E+02  8.37922E+03 -7.58547E+03  4.64859E+03 -7.64282E+03 -1.04574E+03
 -7.05520E+03 -6.92245E+03 -1.26884E+03 -6.01410E+03  4.16560E+03 -4.79517E+03  3.52458E+03 -2.12754E+03
  2.69890E+03  2.28962E+02  3.62501E+02  1.55557E+03  4.49628E+02 -6.60172E+02 -9.24048E+02 -2.43809E+03
  5.09322E+03 -1.14621E+03  7.54749E+03  1.51277E+03  6.71374E+03  4.31276E+03  5.85918E+03  9.67658E+03
 -2.54107E+03  1.08626E+04 -9.34500E+03  9.19671E+03 -1.24006E+04  1.73340E+03 -9.61070E+03 -3.29631E+03
 -5.60429E+03 -8.57288E+03 -1.14473E+03 -6.90905E+03  2.94122E+03 -3.49117E+03  2.29152E+03 -2.28882E+03
  1.52219E+03 -1.27605E+03  3.32363E+03 -3.31985E+03  5.18408E+03 -1.93451E+03  3.94254E+03 -3.41100E+02
  6.03234E+03  1.31146E+03  2.87747E+03  4.55559E+03 -2.56074E+03  4.20889E+03 -5.42279E+03  3.90732E+03
 -7.01413E+03 -1.30985E+03 -3.87033E+03 -4.25729E+03  4.75154E+00 -7.38960E+03  3.96079E+03 -7.11076E+03
  7.41924E+03 -2.61528E+03  6.83886E+03  1.17592E+03  6.22220E+03  6.07827E+03  3.01011E+02  8.27714E+03
 -2.41893E+03  6.86476E+03 -4.02776E+03  1.88958E+03 -2.75436E+03 -1.10975E+03 -8.67996E+01  2.46374E+02
 -7.05865E+02  1.04162E+03 -1.15195E+03  2.17906E+03 -1.94620E+03  1.33144E+03 -4.72299E+03 -1.16348E+03
 -3.49008E+03 -5.62305E+03  1.07418E+02 -4.91634E+03  4.56032E+03 -6.42626E+03  4.85908E+03 -6.80334E+02
  4.57184E+03  3.28828E+03  2.45863E+03  5.34289E+03 -1.36738E+03  5.29740E+03 -3.88329E+03  5.20001E+03
 -5.80190E+03  1.03411E+03 -4.56265E+03 -2.12743E+03 -7.46211E+02 -4.23374E+03  1.88177E+03 -2.76432E+03
  4.09019E+03 -2.05982E+03  2.66865E+03  1.40362E+03  1.03811E+02  3.31199E+03  1.95257E+03  1.60042E+03
  2.49011E+03  4.06216E+02  2.07919E+03  1.73022E+03  1.27671E+03  2.36753E+03  3.58301E+03  3.15496E+03
 -1.80394E+03  4.25574E+03 -3.59148E+03  4.42188E+03 -5.02674E+03  1.61358E+03 -6.95862E+03 -2.63423E+03
 -2.63000E+03 -5.62384E+03  3.91397E+02 -7.04821E+03  3.08971E+03 -3.10194E+03  4.69383E+03 -7.77014E+02
  3.43922E+03  2.67137E+03  1.03117E+03  3.43403E+03 -1.09980E+03  2.22327E+03 -2.24442E+03 -4.95661E+02
 -1.33381E+03 -2.29909E+03  1.59588E+03 -1.72253E+03  2.11428E+03 -5.49492E+02  1.44434E+03  5.72159E+02
  6.85220E+02  8.98726E+02  1.05802E+03 -5.19965E+02 -4.64999E+02  1.11345E+03  1.78483E+03 -2.05338E+02
 -2.39174E+02  4.27856E+02  3.08967E+03  8.03745E+02  7.27839E+02  3.04054E+03  1.89574E+02  4.29323E+03
 -2.12339E+03  1.33661E+03 -2.73139E+03  1.35500E+03 -2.82276E+03 -2.98670E+02 -4.34994E+02 -1.90070E+03
  1.54776E+02 -2.08292E+03  2.08159E+03 -1.25114E+03  3.22910E+02  1.86937E+03 -9.58960E+02  5.11015E+02
 -1.86997E+03  8.77025E+02 -1.68297E+03 -7.44740E+02 -2.43253E+03 -3.43961E+03  2.71607E+02 -2.38698E+03
  1.51336E+03 -9.93093E+02  4.90168E+02 -4.79911E+02  3.45338E+03 -9.95846E+02  9.10454E+01  9.54980E+02
 -4.13283E+02  1.25719E+03 -1.60885E+03 -7.92393E+02  6.23346E+02 -2.27641E+03  2.24504E+03 -2.12834E+03
  2.72257E+03  8.06925E+02  4.27282E+03  9.70008E+02  1.59683E+03  1.42865E+03 -7.55189E+02  2.85324E+03
 -2.43321E+03  8.79283E+02 -2.32630E+03  3.16721E+02 -1.39982E+03 -2.38833E+03  4.08592E+02 -6.40299E+02
  1.33673E+03 -8.74687E+02  2.01184E+03  1.55624E+03  7.88396E+02  1.39990E+03  8.37796E+02  1.31183E+03
 -2.89168E+02  1.19648E+03 -2.89459E+03  8.85480E+02 -6.28764E+02 -2.76692E+02 -6.05556E+00  1.08415E+03
 -1.36812E+03  7.95398E+02 -2.72626E+03  6.65209E+02 -2.48680E+03 -6.80762E+01 -4.29471E+03 -1.36266E+03
 -1.56511E+03 -3.83149E+03  2.63969E+01 -5.76739E+03  2.07094E+03 -3.55826E+03  4.06889E+03 -1.58350E+03
  3.33869E+03  1.29157E+03  1.72265E+03  2.21538E+03 -6.80639E+02  3.88861E+03 -5.12331E+02  1.52233E+03
 -1.50047E+03  1.55459E+03  8.72952E+00  3.35194E+01 -3.17456E+02  8.56603E+02 -9.04686E+02 -2.18266E+01
 -2.35568E+02 -2.66574E+02 -9.09284E+02  4.40706E+02  5.43739E+02 -1.88684E+01 -1.61260E+03 -2.58201E+03
  8.95888E+02 -5.25704E+02  7.01065E+02  1.27945E+03  2.09942E+03  1.96114E+03 -1.03076E+02  3.10916E+03
 -1.85783E+03  3.68087E+03 -2.88032E+03  8.83125E+02 -3.48076E+03 -8.05345E+02 -9.83877E+02 -2.11937E+03
 -1.98807E+03 -1.72513E+03  1.03452E+03 -2.05959E+03  8.56905E+02 -7.89128E+02  6.16401E+02 -1.95149E+02
  4.26899E+02  1.25219E+03 -4.53910E+02 -5.91100E+02 -4.39929E+02 -1.05705E+02  5.60650E+02 -1.94823E+02
  5.78367E+02  4.65733E+02  1.01958E+02  8.78258E+02 -1.33936E+02  6.29307E+02 -2.55993E+02  7.56368E+02
 -6.80496E+02  1.02645E+03 -1.27485E+03  4.42515E+02 -6.57199E+02 -1.28150E+03  8.79824E+01 -1.18510E+03
  1.01520E+03 -1.73517E+03  7.03760E+02  9.73312E+01  1.80336E+03 -2.30929E+01  1.00207E+03  1.15985E+03
  3.51294E+02  1.02923E+03 -2.95760E+02  7.61854E+01 -1.80024E+03 -2.35626E+02 -5.21052E+02  1.47603E+02
 -3.28699E+02  1.16427E+03 -1.45320E+03 -2.28457E+01 -5.26841E+02  5.62853E+02 -2.02492E+03 -4.61361E+02
 -2.29908E+03 -3.17956E+02  1.34276E+01 -1.65940E+03  1.59771E+03 -2.16818E+03  2.42892E+03 -1.13952E+03
  1.21141E+03  5.43991E+01 -2.64689E+02  5.39153E+02  4.30577E+01  1.56446E+03 -1.74150E+03  5.48185E+02
