 $NMID ID='MM_0lb_SNR200_14hz_g55_18.RAW', FMTDAT='(8E13.5)'
 TRAMP=1., VOLUME=1. $END
  3.07971E+05 -1.98434E+02  3.38597E+05  2.51109E+05  8.49588E+04  3.37447E+05 -1.32961E+05  2.51389E+05
 -1.88847E+05  8.32091E+04 -1.12024E+05 -3.28629E+04  1.42144E+03 -5.07770E+04  5.43443E+04 -1.87057E+03
  3.59338E+04  5.28118E+04 -1.78087E+04  7.50690E+04 -6.12796E+04  6.31861E+04 -8.38060E+04  3.24025E+04
 -8.09912E+04 -1.11617E+04 -5.76874E+04 -5.13566E+04 -1.42315E+04 -6.97186E+04  2.75792E+04 -4.64955E+04
  3.84406E+04  3.72910E+03  1.59463E+04  4.87331E+04 -3.63056E+04  4.59613E+04 -6.65208E+04  3.10839E+02
 -5.22184E+04 -5.74775E+04 -6.23084E+03 -7.73027E+04  3.44599E+04 -5.54338E+04  4.85520E+04 -1.72822E+04
  4.39107E+04  1.17957E+04  3.14567E+04  2.52948E+04  1.66859E+04  2.84495E+04 -5.80471E+03  2.67377E+04
 -2.17746E+04  1.23969E+04 -1.85180E+04 -4.04091E+03  6.89993E+03 -7.48530E+03  2.14152E+04  1.29071E+04
  7.20773E+03  3.62193E+04 -3.22815E+04  3.53432E+04 -6.30419E+04  2.52469E+03 -5.77432E+04 -4.16669E+04
 -1.21271E+04 -6.48343E+04  3.96182E+04 -4.58295E+04  5.98541E+04 -2.41640E+03  3.48905E+04  3.21146E+04
 -6.54590E+03  3.69390E+04 -2.92633E+04  1.77702E+04 -3.00470E+04 -3.71380E+03 -1.61947E+04 -1.16440E+04
 -8.35476E+03 -1.32465E+04  4.57337E+00 -1.78730E+04  6.72214E+03 -2.28273E+04  1.55923E+04 -1.31642E+04
  1.13658E+04  5.63687E+03 -8.34661E+03  1.46854E+04 -2.18872E+04 -5.37644E+03 -7.40720E+03 -3.30165E+04
  2.28867E+04 -4.36562E+04  5.00108E+04 -2.02229E+04  4.55174E+04  2.00245E+04  1.62678E+04  4.61176E+04
 -1.45543E+04  3.45601E+04 -2.59743E+04  1.98216E+03 -1.01549E+04 -2.73972E+04  2.12525E+04 -3.31489E+04
  4.08206E+04 -9.60502E+03  3.68664E+04  2.37639E+04  1.93810E+04  4.55882E+04 -6.11640E+03  5.18992E+04
 -3.17888E+04  3.39694E+04 -4.25710E+04  1.03482E+04 -4.24715E+04 -1.76025E+04 -2.59550E+04 -3.97289E+04
  7.50778E+03 -3.79394E+04  3.21538E+04 -1.52108E+04  2.95341E+04  9.32144E+03  4.69531E+03  1.95928E+04
 -1.37062E+04  9.35400E+03 -1.02862E+04 -6.36272E+03  5.45058E+03 -1.00070E+04  1.84814E+04  5.54995E+03
  1.39606E+04  2.27168E+04 -5.79957E+03  2.51357E+04 -2.19075E+04  1.18375E+04 -2.77250E+04 -4.49659E+03
 -2.03497E+04 -1.63049E+04 -9.43022E+03 -2.08999E+04  5.00812E+03 -2.11905E+04  1.61218E+04 -1.89438E+04
  2.69908E+04 -1.23877E+04  3.43021E+04  3.48226E+03  2.39637E+04  2.14635E+04  4.12360E+03  3.69373E+04
 -1.77056E+04  3.07939E+04 -2.83006E+04  1.09504E+04 -2.11852E+04 -1.10480E+04 -4.88358E+03 -1.37922E+04
  2.76532E+03 -2.05348E+03 -5.86597E+03  6.42042E+03 -1.70161E+04  5.30898E+03 -1.74018E+04 -7.73453E+03
 -1.06770E+04 -1.90967E+04  6.32837E+03 -2.33844E+04  1.52583E+04 -1.74067E+04  1.88241E+04 -1.29963E+03
  1.25194E+04  1.28924E+04 -1.21848E+03  1.88050E+04 -1.51215E+04  1.14168E+04 -1.91030E+04 -4.75335E+03
 -1.52346E+04 -1.74382E+04 -2.05515E+03 -2.38805E+04  1.10509E+04 -1.91534E+04  1.95735E+04 -9.84466E+03
  1.95167E+04 -4.19438E+02  1.42412E+04  4.25187E+03  6.74268E+03  1.61811E+03  9.07866E+03 -8.48792E+02
  1.79777E+04  3.30942E+03  1.92729E+04  1.67337E+04  1.36436E+04  3.07058E+04 -2.42156E+03  3.52965E+04
 -2.06083E+04  2.89816E+04 -3.26524E+04  1.51994E+04 -3.41070E+04 -1.85695E+03 -2.92965E+04 -2.02471E+04
 -1.07978E+04 -2.82767E+04  1.06050E+04 -2.68362E+04  2.20644E+04 -1.28786E+04  1.94312E+04  6.33573E+03
  7.57864E+03  1.48490E+04 -9.62612E+03  1.35374E+04 -1.62368E+04  3.38015E+03 -1.16791E+04 -1.04078E+04
 -4.37975E+02 -1.58384E+04  8.80378E+03 -1.23905E+04  1.05329E+04 -6.81784E+02  2.40472E+03  7.41058E+03
 -7.18238E+03  2.05985E+03 -5.68666E+03 -6.95597E+03  1.01305E+02 -1.43007E+04  9.94793E+03 -1.51440E+04
  1.70787E+04 -8.79195E+03  1.94875E+04  2.18855E+03  1.61441E+04  1.37414E+04  7.16468E+03  2.20735E+04
 -3.57570E+03  2.47836E+04 -1.33440E+04  1.44891E+04 -1.72105E+04  3.00817E+03 -1.07684E+04 -3.19960E+03
 -6.94588E+03 -5.43715E+03 -4.80977E+02  9.50750E+01 -1.81654E+03  1.40709E+03 -5.85577E+03  3.25528E+03
 -1.15555E+04 -1.39166E+03 -1.19976E+04 -1.03632E+04 -3.78120E+03 -1.52942E+04  4.62482E+03 -1.23677E+04
  9.77757E+03 -5.20397E+03  7.37650E+03  3.21888E+03 -3.39256E+02  5.77161E+03 -5.06252E+03  6.54842E+02
 -4.57813E+03 -9.15991E+03 -5.56993E+02 -1.06548E+04  6.88548E+03 -1.24407E+04  1.39606E+04 -5.41706E+03
  1.71414E+04  2.31623E+03  1.29096E+04  9.59046E+03  2.40620E+03  1.31539E+04 -6.98751E+03  1.06726E+04
 -9.03153E+03  3.37258E+03 -4.16185E+03 -1.55012E+03  9.51028E+02 -3.35296E+03  4.32562E+03 -4.22871E+02
  6.06510E+03  6.41572E+03  1.97864E+03  9.17452E+03 -5.26353E+03  8.27057E+03 -1.16265E+04  3.70420E+03
 -7.62702E+03 -5.21155E+03  1.10604E+03 -1.06360E+04  7.43097E+03 -6.24332E+03  6.10844E+03  1.30331E+03
  7.33529E+02  6.01283E+03 -5.54776E+03  7.13285E+03 -9.13807E+03  2.08552E+03 -8.91589E+03 -3.19335E+03
 -5.31924E+03 -1.01691E+04  2.46420E+03 -1.13347E+04  1.03146E+04 -6.24881E+03  1.13069E+04  1.37507E+03
  6.76567E+03  7.99636E+03 -2.02561E+03  1.12267E+04 -8.98239E+03  5.99391E+03 -8.08083E+03 -9.67235E+02
 -7.88919E+03 -9.55607E+03 -6.22438E+02 -7.92020E+03  4.23292E+03 -7.47238E+03  4.93765E+03 -2.76666E+03
  3.67342E+03  9.12587E+00 -1.41532E+03  9.28462E+02  3.53757E+02 -9.75361E+02  2.11015E+03 -4.78514E+03
  5.72108E+03 -3.72921E+03  1.06535E+04  1.10639E+03  8.83563E+03  5.77228E+03  7.63053E+03  1.38255E+04
 -2.43608E+03  1.51723E+04 -1.40222E+04  1.08905E+04 -1.69650E+04  2.11591E+03 -1.35309E+04 -3.63315E+03
 -7.42058E+03 -1.19246E+04 -2.32337E+03 -8.53432E+03  3.81075E+03 -5.08972E+03  3.01327E+03 -2.76648E+03
  1.64628E+03 -1.85517E+03  3.10976E+03 -3.67429E+03  3.99998E+03 -9.25773E+02  5.65948E+03 -1.15344E+03
  6.86161E+03  1.55874E+03  2.10960E+03  5.97811E+03 -1.11284E+03  7.19243E+03 -7.74435E+03  5.54351E+03
 -8.82578E+03 -5.39934E+02 -4.61141E+03 -4.87509E+03 -6.71115E+02 -1.00410E+04  5.26510E+03 -1.08961E+04
  1.00843E+04 -5.01172E+03  1.25427E+04  1.33876E+03  7.75756E+03  8.11913E+03  8.50245E+02  1.05904E+04
 -4.47986E+03  9.04493E+03 -5.60107E+03  3.53872E+03 -2.50179E+03 -1.91235E+03 -2.01586E+03 -2.85344E+03
 -2.18734E+02  1.36475E+03 -6.78312E+02  2.85952E+03 -4.36070E+03  2.24638E+03 -5.81137E+03 -6.57668E+02
 -4.21988E+03 -5.97980E+03 -7.90752E+00 -8.97294E+03  5.34166E+03 -7.81985E+03  7.56624E+03 -1.95912E+03
  7.29026E+03  4.09924E+03  4.20282E+03  7.27523E+03 -1.23557E+03  7.47333E+03 -5.88143E+03  3.84523E+03
 -8.63158E+03  7.07280E+02 -6.11494E+03 -4.03425E+03 -2.18197E+02 -7.48939E+03  2.11305E+03 -6.00994E+03
  6.34335E+03 -1.15420E+03  3.89739E+03  1.18283E+03  1.13323E+03  2.16027E+03  1.39198E+02  6.70176E+02
  7.49961E+02  4.89136E+01  1.29161E+03  1.64534E+03  1.74663E+03  2.37743E+03  1.82620E+03  4.66055E+03
 -2.61623E+03  5.96636E+03 -5.03547E+03  7.46610E+03 -7.74234E+03  2.21652E+03 -8.64239E+03 -3.86288E+03
 -2.54571E+03 -8.46836E+03  1.49742E+03 -9.50666E+03  4.30221E+03 -4.60974E+03  6.45763E+03  9.81679E+01
  4.98172E+03  3.32705E+03  8.80284E+02  5.72182E+03 -1.76770E+03  1.83681E+03 -3.76693E+03 -4.15112E+02
 -1.47809E+03 -2.05585E+03  2.73741E+03 -3.20090E+03  3.12524E+03 -1.80694E+03  2.49863E+03  2.32443E+03
  8.70402E+02  2.12181E+03 -9.47749E+02  1.11605E+03 -1.28607E+03  1.18495E+03  9.97636E+02 -4.49296E+02
  1.17556E+03 -1.26148E+03  3.26551E+03  1.41519E+03  2.19971E+03  5.48746E+03 -3.36100E+02  6.21725E+03
 -4.40951E+03  2.53025E+03 -5.47434E+03  7.92653E+02 -3.76519E+03 -1.57052E+03 -1.64979E+03 -1.71736E+03
  7.91437E+02 -1.91771E+03  1.49875E+03 -1.35192E+03  1.13565E+03  2.10283E+03 -2.04279E+03  1.36417E+03
 -2.85341E+03  2.65651E+03 -2.31393E+03 -1.53788E+03 -3.25025E+03 -5.15996E+03  2.18794E+02 -4.10129E+03
  2.69074E+03 -2.64552E+03  3.37395E+03  3.08158E+02  3.10466E+03  2.62632E+02  5.52166E+02  2.71514E+03
 -2.06389E+03  7.31534E+01 -1.83897E+03 -1.81177E+03  3.65672E+02 -2.79995E+03  3.60787E+03 -1.92531E+03
  4.41862E+03  1.29165E+03  3.87709E+03  2.50405E+03  1.78277E+03  3.69960E+03 -1.59099E+03  3.79863E+03
 -3.67620E+03  3.05606E+03 -3.43600E+03  5.74663E+02 -2.66524E+03 -3.04372E+03  1.77182E+03 -3.13004E+03
  3.40631E+03 -1.98215E+03  3.37081E+03  9.08124E+02  7.01040E+02  1.26938E+03 -1.13124E+03  2.39173E+03
 -1.13591E+02  5.85900E+01 -6.62946E+02  1.21153E+03  1.07270E+02 -1.03065E+02 -2.38855E+02  4.43061E+02
 -1.65176E+03  2.80638E+03 -3.78241E+03  8.90107E+02 -3.76877E+03 -2.47322E+02 -3.36301E+03 -1.96623E+03
 -2.50057E+03 -5.77641E+03  1.15896E+03 -6.69056E+03  2.60382E+03 -6.96551E+03  7.16347E+03 -1.52792E+03
  5.45725E+03 -7.33002E+02  2.10060E+03  3.19399E+03 -1.81018E+03  4.91341E+03 -3.63076E+03  3.47453E+03
 -6.97386E+02  1.60434E+03 -1.26808E+03 -7.65333E+02 -1.88640E+02 -8.55177E+02 -1.87738E+02  1.31626E+03
 -1.17440E+03 -2.67503E+02 -1.53349E+03  5.19192E+02  3.71382E+02  3.79580E+02 -6.46122E+02 -1.26071E+03
  2.36036E+03 -1.43367E+03  2.84586E+03 -3.05468E+02  1.55234E+03  1.91912E+03  2.75229E+02  3.27780E+03
 -2.18344E+03  4.57609E+03 -4.53769E+03  2.09206E+03 -5.98451E+03 -1.16693E+03 -3.67709E+03 -3.11925E+03
 -2.32739E+03 -4.23106E+03  1.06029E+03 -4.01739E+03  2.06152E+03 -2.34192E+03  2.29490E+03  5.49944E+02
  9.47388E+02  5.21642E+02  4.60597E+02  4.22954E+02 -1.37616E+03 -4.78141E+02 -7.01773E+02 -9.66788E+02
  1.08909E+03  4.19326E+02  1.99586E+03  2.20053E+03  6.90455E+02  1.38637E+03  3.72224E+02  4.02046E+02
 -2.50282E+03  1.37539E+03 -2.41339E+03  4.23360E+02 -3.73177E+03 -1.49104E+03  2.43409E+02 -4.12359E+03
  1.18285E+03 -2.39095E+03  3.02415E+03 -2.38203E+02  3.29449E+03  3.73894E+02  1.21287E+03  3.34588E+03
  7.18230E+02  2.58592E+03 -6.21892E+02  1.42063E+03 -2.01596E+03  1.22873E+03 -1.07451E+02  8.20819E+02
 -8.47124E+02  5.75505E+02 -5.16787E+02  2.33017E+02 -4.12786E+02  5.89095E+02 -3.02012E+03 -2.42985E+02
 -2.68466E+03 -5.43403E+02 -8.64892E+02 -2.22149E+03  1.69590E+03 -3.55969E+03  1.18886E+03 -4.53812E+02
  2.20648E+03  7.26087E+02 -5.54721E+02  8.03009E+02 -8.38478E+02  1.52906E+03 -7.03412E+02  7.04167E+02
