 $NMID ID='MM_0lb_SNR200_9hz_g60_72.RAW', FMTDAT='(8E13.5)'
 TRAMP=1., VOLUME=1. $END
  3.09783E+05  3.30495E+02  3.38968E+05  2.53190E+05  8.42314E+04  3.37587E+05 -1.33742E+05  2.53377E+05
 -1.91265E+05  8.40937E+04 -1.12899E+05 -3.22933E+04 -7.42512E+02 -4.99388E+04  5.38829E+04 -1.22974E+03
  3.55488E+04  5.17334E+04 -1.57932E+04  7.69613E+04 -6.11886E+04  6.44061E+04 -8.55204E+04  3.35789E+04
 -8.28609E+04 -1.27494E+04 -5.88753E+04 -5.50993E+04 -1.46801E+04 -7.05716E+04  2.79714E+04 -4.78434E+04
  4.10762E+04  2.85617E+03  1.74288E+04  4.90840E+04 -3.47921E+04  4.86928E+04 -6.94553E+04  3.81205E+02
 -5.53094E+04 -5.90544E+04 -8.53817E+03 -7.93282E+04  3.51108E+04 -5.82313E+04  4.90264E+04 -1.85444E+04
  4.58685E+04  1.16347E+04  3.32969E+04  2.86145E+04  1.62947E+04  3.10334E+04 -5.30476E+03  2.67593E+04
 -2.31793E+04  1.21592E+04 -1.80056E+04 -5.74046E+03  7.45174E+03 -7.36713E+03  2.38677E+04  1.49093E+04
  7.10979E+03  3.70985E+04 -3.52284E+04  3.78780E+04 -6.54632E+04  1.28329E+03 -6.00775E+04 -4.37595E+04
 -1.15581E+04 -6.50610E+04  4.16908E+04 -4.82991E+04  6.10779E+04 -2.03954E+03  3.74814E+04  3.60687E+04
 -5.06534E+03  3.92751E+04 -3.29078E+04  1.80302E+04 -3.29228E+04 -2.84835E+03 -2.03620E+04 -1.27016E+04
 -9.53217E+03 -1.62794E+04 -1.70190E+02 -1.85667E+04  9.97317E+03 -2.33969E+04  1.42844E+04 -1.01652E+04
  1.04831E+04  7.23286E+03 -1.07377E+04  1.15711E+04 -2.57763E+04 -6.81096E+03 -9.07234E+03 -3.82826E+04
  2.50690E+04 -4.75666E+04  5.38311E+04 -2.14826E+04  4.90953E+04  2.18503E+04  1.71748E+04  4.60734E+04
 -1.63146E+04  3.65869E+04 -2.91408E+04  3.81921E+03 -1.30812E+04 -2.88470E+04  2.12290E+04 -3.77136E+04
  4.62036E+04 -1.18120E+04  4.22776E+04  2.72647E+04  2.35152E+04  5.27664E+04 -9.51763E+03  5.81471E+04
 -3.64411E+04  4.08472E+04 -4.84630E+04  1.21176E+04 -4.96340E+04 -1.80780E+04 -2.59190E+04 -4.23724E+04
  1.01135E+04 -4.30889E+04  3.40231E+04 -1.74545E+04  3.32593E+04  1.11519E+04  4.45740E+03  2.27645E+04
 -1.36593E+04  1.04468E+04 -1.09468E+04 -6.33905E+03  6.01151E+03 -1.08239E+04  2.09901E+04  5.04583E+03
  1.62165E+04  2.53103E+04 -6.37686E+03  2.93998E+04 -2.22965E+04  1.58225E+04 -3.22842E+04 -3.69028E+03
 -2.66164E+04 -1.93232E+04 -1.46132E+04 -2.58260E+04  4.99498E+03 -2.71570E+04  2.21662E+04 -2.46305E+04
  3.33626E+04 -1.42043E+04  3.85956E+04  4.53527E+03  2.75975E+04  2.70418E+04  3.90804E+03  4.34394E+04
 -2.08981E+04  3.51230E+04 -3.25191E+04  1.12063E+04 -2.25955E+04 -1.13930E+04 -6.74227E+03 -1.20099E+04
  5.81107E+02 -3.70700E+02 -9.27811E+03  8.37094E+03 -1.98976E+04  4.46236E+03 -2.12284E+04 -1.08309E+04
 -1.12557E+04 -2.54167E+04  6.67895E+03 -2.87731E+04  1.87831E+04 -1.93992E+04  2.37650E+04 -1.41569E+03
  1.65388E+04  1.64152E+04 -3.95972E+03  2.41597E+04 -1.73232E+04  1.32822E+04 -2.55578E+04 -4.41369E+03
 -1.73861E+04 -2.15582E+04 -1.79981E+03 -2.79775E+04  1.22955E+04 -2.41385E+04  2.20094E+04 -1.39771E+04
  2.24179E+04 -1.26583E+03  1.62946E+04  5.32952E+03  9.22254E+03  2.52094E+03  1.22190E+04 -2.83887E+03
  2.31815E+04  3.13235E+03  2.68099E+04  1.76537E+04  1.72534E+04  3.77636E+04 -3.15182E+03  4.62385E+04
 -2.81969E+04  3.79756E+04 -4.33395E+04  2.07730E+04 -4.65523E+04 -3.57099E+03 -3.82760E+04 -2.85176E+04
 -1.35056E+04 -3.90723E+04  1.35307E+04 -3.52641E+04  2.86332E+04 -1.76413E+04  2.64929E+04  8.03534E+03
  8.40183E+03  1.95882E+04 -1.32058E+04  1.52725E+04 -2.11574E+04  2.64728E+03 -1.66919E+04 -1.48964E+04
 -1.60806E+03 -2.11984E+04  1.00934E+04 -1.48265E+04  1.48291E+04 -9.95686E+02  4.02289E+03  8.54528E+03
 -9.25750E+03  5.90988E+03 -1.15751E+04 -6.68735E+03 -2.20349E+03 -1.73435E+04  1.35180E+04 -2.20572E+04
  2.40300E+04 -1.25027E+04  2.65835E+04  3.51800E+03  2.41513E+04  1.92021E+04  1.29087E+04  3.09651E+04
 -5.75422E+03  3.33783E+04 -2.21304E+04  2.00285E+04 -2.39290E+04  4.73256E+03 -1.79174E+04 -7.40935E+03
 -5.60892E+03 -7.85452E+03 -8.71498E+01  3.22530E+02 -3.13674E+03  4.97843E+03 -7.91722E+03  7.15279E+03
 -1.29823E+04 -2.05137E+03 -1.51378E+04 -1.19052E+04 -7.44114E+03 -1.90419E+04  7.30843E+03 -1.65702E+04
  1.37078E+04 -6.66437E+03  9.46822E+03  4.22236E+03 -1.31087E+03  6.45275E+03 -9.74676E+03 -1.02575E+03
 -7.41190E+03 -1.10900E+04  4.17184E+02 -1.69456E+04  9.08289E+03 -1.63115E+04  2.16211E+04 -8.88571E+03
  2.60938E+04  1.64009E+03  1.85799E+04  1.47253E+04  3.77627E+03  2.08173E+04 -1.03505E+04  1.68759E+04
 -1.38872E+04  5.21791E+03 -7.37673E+03 -3.18595E+03  3.34267E+03 -4.89878E+03  9.71504E+03  3.68595E+02
  7.84120E+03  7.39320E+03  9.66295E+02  1.35277E+04 -1.04693E+04  1.14674E+04 -1.64607E+04  4.91124E+03
 -1.20544E+04 -8.66506E+03 -9.93619E+02 -1.48952E+04  9.69963E+03 -8.25654E+03  1.02539E+04  4.35314E+03
  2.87268E+03  1.05009E+04 -8.82040E+03  1.11314E+04 -1.44002E+04  6.45924E+03 -1.62036E+04 -5.44052E+03
 -8.82042E+03 -1.77174E+04  5.06100E+03 -1.98581E+04  1.41665E+04 -1.05247E+04  1.69590E+04  2.72387E+03
  1.00237E+04  1.51628E+04 -2.17336E+03  1.74205E+04 -1.33762E+04  1.02370E+04 -1.31618E+04 -1.69955E+03
 -1.04998E+04 -1.22250E+04 -1.90300E+03 -1.43070E+04  7.47989E+03 -9.45883E+03  1.03058E+04 -5.23060E+03
  5.47072E+03  2.12242E+03 -3.37790E+03  2.40050E+03 -6.22855E+02 -3.03563E+03  3.41465E+03 -7.78025E+03
  1.31147E+04 -4.98740E+03  1.62181E+04  2.98449E+03  1.68260E+04  1.21888E+04  1.06381E+04  2.36843E+04
 -5.48009E+03  2.43577E+04 -2.00908E+04  1.95215E+04 -2.78019E+04  4.04431E+03 -2.23433E+04 -9.88309E+03
 -1.11170E+04 -1.84904E+04  7.01459E+02 -1.56517E+04  4.89578E+03 -9.20904E+03  6.24326E+03 -3.85188E+03
  3.78935E+03 -4.93207E+03  4.97755E+03 -4.10683E+03  6.10474E+03 -3.97566E+03  8.99794E+03 -3.03014E+03
  9.38779E+03  8.53889E+02  7.34981E+03  8.90968E+03 -2.40899E+03  1.19676E+04 -1.22391E+04  8.73184E+03
 -1.43058E+04 -7.04691E+02 -9.41150E+03 -1.06896E+04 -3.40880E+03 -1.79780E+04  8.37700E+03 -1.82450E+04
  1.71872E+04 -9.85233E+03  2.21759E+04  3.13892E+03  1.36330E+04  1.31031E+04  2.00190E+03  1.76558E+04
 -8.66501E+03  1.66340E+04 -9.70212E+03  4.77502E+03 -6.46758E+03 -2.04289E+03 -2.37092E+03 -3.94233E+03
  4.51596E+02  4.97491E+02 -2.02069E+03  4.50633E+03 -5.75764E+03  1.62921E+03 -1.03578E+04 -9.23899E+02
 -8.39312E+03 -1.02174E+04 -9.84110E+02 -1.58182E+04  9.99533E+03 -1.48570E+04  1.44982E+04 -4.43636E+03
  1.65767E+04  7.57253E+03  6.41300E+03  1.34121E+04 -1.52496E+03  1.46409E+04 -1.15155E+04  1.00684E+04
 -1.41757E+04  3.20909E+02 -1.05583E+04 -1.03893E+04 -6.02041E+02 -1.37015E+04  7.58320E+03 -9.27701E+03
  1.09472E+04 -2.54065E+03  7.49287E+03  2.86754E+03  1.81484E+03  5.34995E+03  1.80615E+03  1.36759E+03
  2.62003E+03  1.14094E+03  3.67091E+03  3.03481E+03  6.24745E+03  5.85080E+03  4.24534E+03  9.61101E+03
 -4.01826E+03  1.14295E+04 -1.21445E+04  1.15758E+04 -1.77141E+04  2.66946E+03 -1.73601E+04 -7.87359E+03
 -9.15230E+03 -1.52683E+04  4.13900E+03 -1.82391E+04  1.07034E+04 -1.16530E+04  1.26717E+04 -3.14718E+03
  1.12289E+04  5.49287E+03  2.93492E+03  8.15815E+03 -3.65858E+03  6.62696E+03 -5.93909E+03 -1.66944E+03
 -2.99281E+03 -8.28258E+03  4.06839E+03 -8.01951E+03  5.10996E+03 -4.23467E+03  7.99737E+03  4.51591E+02
  4.16336E+03  5.84233E+03  1.30482E+03  3.41807E+03 -1.86902E+03  2.44245E+03  3.32242E+03 -1.27316E+03
  2.77860E+03 -3.09664E+03  5.65552E+03  4.69628E+03  4.57558E+03  1.08436E+04 -1.08822E+03  1.19668E+04
 -7.91947E+03  8.61995E+03 -1.21057E+04  3.19857E+03 -9.58741E+03 -2.94227E+03 -4.18559E+03 -6.08430E+03
  1.12598E+02 -8.55696E+03  4.22039E+03 -1.74498E+03  3.82600E+03  2.61748E+03 -1.10007E+03  5.53415E+03
 -7.69155E+03  2.57348E+03 -7.89102E+03 -4.42555E+03 -6.18324E+03 -8.78096E+03  1.37842E+03 -8.99141E+03
  5.45478E+03 -5.59180E+03  7.43975E+03 -3.18419E+02  6.77331E+03  2.80299E+03  5.84448E+02  5.71554E+03
 -2.63240E+03  2.46952E+03 -5.78364E+03 -3.49753E+03  2.01085E+03 -7.22605E+03  9.72018E+03 -6.31103E+03
  1.07635E+04  1.49758E+03  9.01505E+03  7.90550E+03  4.75253E+03  1.07534E+04 -3.58222E+03  1.13361E+04
 -8.81915E+03  4.58469E+03 -9.93954E+03 -2.51348E+03 -5.67425E+03 -7.43738E+03  1.56993E+03 -7.97251E+03
  4.69096E+03 -2.29213E+03  5.37563E+03  3.39965E+03  3.48554E+03  6.05736E+03 -2.48324E+03  3.65888E+03
 -3.48398E+03  4.17759E+03 -2.31592E+03  1.16074E+02 -1.12526E+03  1.17817E+03 -5.89697E+02  3.12988E+03
 -2.95219E+03  3.61564E+03 -6.75676E+03  5.30501E+03 -1.09868E+04  9.81382E+02 -9.64107E+03 -7.12050E+03
 -7.35134E+03 -1.47982E+04  3.37796E+03 -1.59426E+04  1.04890E+04 -1.41343E+04  1.55929E+04 -4.35780E+03
  1.41053E+04  2.42125E+03  1.14386E+04  1.06140E+04  5.99636E+02  1.14861E+04 -5.34010E+03  8.50841E+03
 -5.19779E+03  4.65474E+03 -3.70068E+03 -1.44983E+03 -7.44712E+02 -9.32123E+02 -7.58763E+02 -1.19713E+02
 -2.18724E+03  2.27736E+02 -1.94615E+03 -2.27266E+02 -1.38126E+03 -2.92518E+03 -8.43182E+02 -4.11597E+03
  5.78381E+03 -3.99602E+03  6.19608E+03 -4.84740E+02  8.70133E+03  4.72014E+03  1.94668E+03  1.14490E+04
 -6.00873E+03  1.35874E+04 -1.28566E+04  6.41324E+03 -1.39265E+04 -1.39767E+03 -1.06939E+04 -6.94483E+03
 -3.17086E+03 -1.22149E+04  3.28512E+03 -1.11712E+04  9.44020E+03 -5.85995E+03  6.67251E+03  1.66029E+03
  4.51652E+03  2.07752E+03 -1.39799E+03  6.37836E+03 -4.54194E+01  3.09566E+02 -6.60235E+02 -3.72823E+03
  3.24973E+03 -1.04084E+03  4.96950E+03  1.64133E+03  3.32828E+03  3.62025E+03  5.24292E+02  6.91477E+03
 -3.96684E+03  5.76160E+03 -7.11011E+03 -1.12911E+03 -7.59770E+03 -6.57459E+03  1.71340E+02 -1.04818E+04
  4.62437E+03 -9.14019E+03  8.77794E+03 -2.24798E+03  8.54944E+03  2.65392E+03  5.02927E+03  7.24135E+03
  1.61412E+03  7.79450E+03 -3.58505E+03  7.74158E+03 -5.22358E+03  1.98146E+03 -3.62896E+03 -5.75768E+02
 -1.92632E+03 -5.15440E+02 -1.49750E+03  1.19921E+03 -3.01314E+03  1.74649E+03 -7.18804E+03 -1.30796E+03
 -5.96604E+03 -4.68966E+03 -1.68681E+03 -7.14281E+03  3.34360E+03 -9.23718E+03  7.14096E+03 -4.78067E+03
  6.88237E+03  2.09457E+03  5.12231E+03  5.23528E+03 -2.31474E+02  8.77314E+03 -4.69827E+03  4.83715E+03
