 $NMID ID='MM_0lb_SNR200_18hz_g40_94.RAW', FMTDAT='(8E13.5)'
 TRAMP=1., VOLUME=1. $END
  3.09344E+05  6.38161E+02  3.37748E+05  2.49452E+05  8.51501E+04  3.37557E+05 -1.32671E+05  2.50731E+05
 -1.89607E+05  8.29334E+04 -1.11183E+05 -3.22067E+04  1.43713E+03 -5.17379E+04  5.35287E+04 -1.06868E+02
  3.52647E+04  5.24898E+04 -1.65040E+04  7.48554E+04 -6.06786E+04  6.21837E+04 -8.23050E+04  3.19888E+04
 -7.82466E+04 -1.15115E+04 -5.55741E+04 -4.96652E+04 -1.40898E+04 -6.78351E+04  2.55681E+04 -4.52859E+04
  3.89940E+04  4.22834E+03  1.58061E+04  4.76107E+04 -3.32489E+04  4.70631E+04 -6.54123E+04 -1.56548E+03
 -5.14896E+04 -5.49443E+04 -6.54838E+03 -7.55527E+04  3.27122E+04 -5.32405E+04  4.47415E+04 -1.54482E+04
  4.04323E+04  1.15051E+04  3.03894E+04  2.36996E+04  1.51485E+04  2.81090E+04 -4.75968E+03  2.73210E+04
 -2.24476E+04  1.29051E+04 -1.87929E+04 -3.89932E+03  3.88070E+03 -7.47026E+03  2.14639E+04  9.52969E+03
  7.24404E+03  3.36577E+04 -3.02459E+04  3.39066E+04 -6.16340E+04  1.93974E+03 -5.62778E+04 -4.04500E+04
 -1.28235E+04 -6.12134E+04  3.77791E+04 -4.41084E+04  5.56442E+04 -1.87319E+03  3.23100E+04  3.10437E+04
 -7.14729E+03  3.25552E+04 -2.85060E+04  1.38594E+04 -2.65044E+04 -5.08356E+03 -1.30266E+04 -9.97857E+03
 -7.05245E+03 -1.14386E+04 -7.04201E+02 -1.63481E+04  6.46523E+03 -2.24646E+04  1.37214E+04 -1.42829E+04
  1.18616E+04  4.69504E+03 -4.15194E+03  1.30830E+04 -1.97178E+04 -1.75036E+03 -7.95998E+03 -2.95035E+04
  2.01958E+04 -4.09735E+04  4.38349E+04 -1.67549E+04  4.20905E+04  1.74509E+04  1.41153E+04  4.22942E+04
 -1.54351E+04  2.99529E+04 -2.39242E+04  8.03267E+02 -8.03642E+03 -2.67396E+04  2.15046E+04 -3.01039E+04
  3.72807E+04 -5.88212E+03  3.12129E+04  2.20997E+04  1.50686E+04  4.30642E+04 -7.60187E+03  4.45165E+04
 -2.74443E+04  2.94131E+04 -3.63495E+04  7.00125E+03 -3.83869E+04 -1.59747E+04 -2.08261E+04 -3.43273E+04
  5.76865E+03 -3.42099E+04  2.91754E+04 -1.25786E+04  2.64273E+04  1.12367E+04  2.48443E+03  1.87194E+04
 -1.40490E+04  7.52501E+03 -9.92823E+03 -7.15495E+03  5.83971E+03 -1.00653E+04  1.75268E+04  6.02370E+03
  1.15671E+04  2.05626E+04 -7.17820E+03  2.29646E+04 -2.19729E+04  9.14716E+03 -2.38200E+04 -6.82787E+03
 -1.65080E+04 -1.65897E+04 -5.89339E+03 -1.77380E+04  3.28829E+03 -1.44693E+04  1.21357E+04 -1.48477E+04
  2.10678E+04 -1.11970E+04  2.80459E+04  8.41024E+02  2.10994E+04  1.65372E+04  4.07359E+03  3.18676E+04
 -1.61432E+04  2.71118E+04 -2.54952E+04  9.98975E+03 -1.92311E+04 -1.00513E+04 -4.58828E+03 -1.49097E+04
  2.06725E+03 -4.20822E+03 -1.98490E+03  5.96966E+03 -1.27110E+04  4.85433E+03 -1.27847E+04 -5.29457E+03
 -8.34189E+03 -1.50122E+04  5.04901E+03 -1.95895E+04  1.23080E+04 -1.40938E+04  1.52656E+04 -1.89070E+03
  9.91112E+03  1.00135E+04 -8.60929E+02  1.63976E+04 -9.15687E+03  8.50539E+03 -1.46809E+04 -2.74565E+03
 -1.13570E+04 -1.48688E+04 -1.66482E+02 -1.85340E+04  9.68714E+03 -1.61091E+04  1.50706E+04 -6.67994E+03
  1.51696E+04  6.94225E+01  1.03875E+04  3.76814E+03  5.16162E+03  1.22402E+02  7.34194E+03 -1.26979E+03
  1.38895E+04  1.68759E+03  1.41359E+04  1.27404E+04  8.51535E+03  2.35610E+04 -2.80566E+03  2.66146E+04
 -1.59259E+04  1.96992E+04 -2.43296E+04  1.02333E+04 -2.45340E+04 -2.15663E+03 -2.23655E+04 -1.42155E+04
 -8.36110E+03 -2.00363E+04  6.35040E+03 -1.92629E+04  1.57226E+04 -1.10063E+04  1.53216E+04  3.52895E+03
  6.92140E+03  1.07010E+04 -7.81564E+03  1.03539E+04 -1.29661E+04  3.14346E+03 -1.06718E+04 -7.47918E+03
  5.03503E+00 -1.21897E+04  6.16703E+03 -8.95860E+03  7.27123E+03 -1.55186E+03  1.59948E+03  4.79290E+03
 -5.55052E+03  1.62551E+03 -3.40293E+03 -5.48519E+03  5.34128E+02 -1.02043E+04  7.22042E+03 -9.10736E+03
  1.24306E+04 -5.29439E+03  1.26518E+04  3.24061E+03  1.03991E+04  9.62861E+03  3.50281E+03  1.41075E+04
 -1.76505E+03  1.61482E+04 -9.71157E+03  9.31293E+03 -1.12880E+04  2.67684E+03 -7.77675E+03 -2.81925E+03
 -5.50131E+03 -3.13935E+03 -4.02299E+02  2.43608E+03 -2.12503E+03  1.76329E+03 -3.25934E+03  3.73435E+03
 -9.07396E+03 -6.11259E+02 -8.98210E+03 -6.40729E+03 -3.44180E+03 -1.02262E+04  3.77590E+03 -7.80836E+03
  6.72107E+03 -2.80877E+03  5.61497E+03  2.25056E+03 -6.27697E+02  3.52543E+03 -3.32757E+03 -9.13226E+02
 -3.32019E+03 -5.77208E+03 -3.98683E+02 -7.37196E+03  3.83381E+03 -7.62171E+03  9.83601E+03 -3.59620E+03
  1.21888E+04  6.16697E+02  9.79785E+03  6.65855E+03  1.98843E+03  7.82896E+03 -5.69242E+03  9.08867E+03
 -7.53367E+03  2.76019E+03 -3.39411E+03 -2.11869E+03  1.99254E+03 -1.55437E+03  5.12027E+03 -4.55973E+02
  3.74729E+03  3.93609E+03  1.78157E+03  7.08052E+03 -4.28711E+03  6.37625E+03 -8.08858E+03  2.64926E+03
 -4.83115E+03 -3.50863E+03  2.46817E+02 -6.74814E+03  3.18826E+03 -3.52333E+03  3.36161E+03  1.43241E+03
 -1.53520E+02  3.38006E+03 -2.74538E+03  4.86155E+03 -4.47252E+03  2.22755E+03 -4.60470E+03 -1.18556E+03
 -2.62673E+03 -5.58984E+03  1.79707E+03 -6.72320E+03  5.12759E+03 -3.98329E+03  7.02019E+03  6.63419E+02
  4.95462E+03  5.43043E+03 -4.59307E+02  6.42861E+03 -5.62060E+03  4.32292E+03 -4.08358E+03 -1.37824E+03
 -6.07283E+03 -6.45656E+03 -2.53351E+02 -4.87025E+03  3.26084E+03 -4.31049E+03  3.48149E+03 -3.49972E+03
  3.93489E+03  1.53190E+02 -1.19502E+03  5.84186E+02  1.14166E+03 -7.75685E+02  2.01167E+02 -2.29689E+03
  3.99520E+03 -3.47385E+02  5.71089E+03 -6.76432E+01  5.62141E+03  3.08129E+03  6.11985E+03  7.88124E+03
 -1.60427E+03  8.69162E+03 -7.32729E+03  7.02434E+03 -9.49146E+03  2.55500E+03 -7.70533E+03 -2.18105E+03
 -3.32219E+03 -6.26685E+03 -9.14602E+02 -4.44182E+03  2.40140E+03 -2.44206E+03  1.83336E+03 -2.39163E+03
  1.39831E+03 -9.83921E+02  1.29986E+03 -2.73658E+03  4.01417E+03 -9.27367E+02  5.02947E+03  1.31486E+03
  4.25870E+03  1.33297E+03  1.06125E+03  2.51566E+03 -2.34502E+03  2.69212E+03 -3.92190E+03  3.68688E+03
 -4.62370E+03 -1.05229E+03 -2.48328E+03 -3.92269E+03  1.61357E+02 -5.12642E+03  2.76901E+03 -5.78647E+03
  4.13098E+03 -2.97123E+03  7.32090E+03  7.75992E+02  4.64409E+03  4.29085E+03  1.95380E+03  6.38440E+03
 -2.37287E+03  6.37800E+03 -3.47833E+03  1.46735E+03 -2.46040E+03 -7.66387E+02 -6.72169E+02 -4.33814E+02
 -6.77421E+02 -2.83359E+02 -2.25840E+02  2.50631E+03 -1.68284E+03  1.01856E+03 -3.67639E+03 -5.25537E+02
 -4.14731E+02 -4.04257E+03  5.21436E+02 -4.22516E+03  2.41481E+03 -3.81970E+03  2.83630E+03 -1.37077E+03
  2.72842E+03  2.18451E+03  2.17602E+03  3.90079E+03 -8.48373E+02  4.84195E+03 -1.83541E+03  2.68707E+03
 -4.01515E+03 -1.07914E+02 -3.01355E+03 -2.50793E+03 -3.27224E+02 -4.36016E+03  6.39230E+02 -2.91057E+03
  2.70348E+03 -1.68168E+03  2.17450E+03  7.71525E+02  9.89649E+02  1.83111E+03  1.18926E+03  1.06851E+03
  1.95901E+03  4.11748E+02  2.30802E+03  1.14850E+03  7.79445E+02  1.82284E+03  2.86918E+03  1.21544E+03
 -1.88818E+03  2.56703E+03 -2.88887E+03  4.08488E+03 -3.98993E+03  1.91191E+03 -4.86323E+03 -4.32337E+01
 -1.62051E+03 -4.14834E+03  8.30492E+02 -5.31010E+03  2.96776E+03 -4.08548E+03  2.84467E+03 -3.80695E+02
  2.39434E+03  2.28976E+03 -6.31673E+02  2.57460E+03 -4.53204E+02  1.39841E+03 -1.18966E+03 -5.27373E+02
  6.91601E+00 -1.00604E+03  1.42385E+03 -1.74047E+03  1.44632E+03 -1.50970E+03  8.69843E+02  2.26958E+02
  3.58200E+02  7.75401E+02  1.43012E+03 -4.80653E+02 -2.90757E+02  1.93198E+03  1.45225E+03  1.67159E+01
  1.35913E+03 -3.93190E+02  1.09050E+03  1.31714E+03  3.03992E+02  2.03335E+03 -1.66079E+03  3.06289E+03
 -1.98941E+03  5.93941E+02 -2.25289E+03 -4.23378E+02 -2.29914E+03  2.22233E+01 -1.73443E+02 -7.87635E+02
 -2.99911E+02 -8.81221E+02  6.42685E+02 -6.90188E+02  6.57431E+02  1.37044E+03  3.79029E+02  1.04936E+03
 -2.38324E+03  8.23609E+02 -1.74220E+03 -1.22904E+03 -5.76619E+00 -1.81632E+03  4.16392E+02 -2.31379E+03
  8.20028E+02 -5.71545E+02  2.09835E+03 -5.66707E+02  1.35780E+03 -5.05513E+02  1.86685E+03  1.78240E+03
 -1.41272E+02  8.62452E+02 -4.53838E+02  4.21164E+01  1.08916E+02 -1.89298E+03  2.45339E+03 -1.26204E+03
  1.39471E+03  1.21095E+03  4.95221E+03  4.71087E+02  5.42954E+02  2.41081E+03  2.86382E+02  1.28581E+03
 -5.37157E+02 -3.03858E+01 -2.19935E+03  1.28284E+02 -4.71130E+02 -1.44592E+03 -4.30431E+02 -7.71843E+02
  2.36747E+03 -4.41726E+02 -3.11606E+02  6.75320E+02  8.03470E+02  1.68920E+03 -2.77493E+02  1.65213E+03
  5.75458E+01  7.61698E+02 -1.59107E+03 -4.31852E+02  6.00071E+02 -4.02277E+01 -8.42530E+02 -9.89219E+02
  3.30605E+02  8.55507E+02 -1.71085E+03  2.30751E+02 -3.11642E+03  7.63984E+02 -2.17326E+03 -5.59451E+02
 -1.06346E+03 -2.74551E+03  9.00630E+02 -3.28847E+03  6.28975E+02 -1.89501E+03  2.20885E+03 -1.21918E+03
  2.44434E+03 -7.17168E+02  3.45375E+02  1.64061E+03 -1.35342E+03  1.00996E+03 -9.11367E+02  1.54660E+03
 -1.88331E+03  7.91420E+02 -1.00598E+03 -3.58701E+02 -4.82331E+02 -8.88259E+02 -6.42780E+02 -9.06296E-01
 -1.02978E+03  2.04318E+02 -5.34062E+02  9.11336E+02  4.63942E+02 -6.67099E+02 -9.83286E+02 -5.49268E+02
  2.19802E+03 -3.86263E+02  6.10443E+02  5.05606E+02  2.63064E+03  9.17807E+02 -6.85588E+00  8.26093E+02
 -9.53964E+02  2.40000E+03 -1.63806E+03 -5.15369E+02 -2.06627E+03  1.15947E+03 -1.76193E+03 -2.78855E+03
  1.74205E+02 -8.98862E+02 -2.32541E+02 -2.50355E+03  2.09868E+03 -6.50340E+02  3.98967E+01 -1.31269E+01
 -5.81321E+01 -5.86985E+02 -5.23323E+02  4.64871E+02 -1.40663E+03 -5.73589E+02  1.11283E+02  7.90192E+02
  6.05010E+02 -4.25403E+02 -7.41150E+02  2.76118E+02 -3.72679E+02  4.14549E+02  1.73171E+03 -5.29939E+02
 -8.11159E+02  2.64186E+02 -1.16498E+03  5.30501E+02 -8.22719E+02 -3.73919E+02 -2.49302E+02 -1.57182E+03
 -5.00282E+02 -8.35326E+01 -8.01387E+02 -6.37251E+02  5.10173E+02 -1.51305E+03  1.03133E+03  4.74519E+02
  5.23336E+02  7.14457E+02 -3.91540E+02  5.53409E+02 -1.27408E+02  3.15300E+02  2.22391E+01 -1.26181E+03
 -4.95763E+02  6.68890E+02  2.30566E+02  9.63391E+02  5.72085E+02  3.70762E+02 -1.09539E+03  5.57074E+00
 -1.50087E+03  1.23068E+03 -1.12908E+03 -1.78862E+03 -4.36882E+02 -3.13843E+03  7.54380E+02 -3.53091E+02
  9.44881E+02 -8.75507E+01 -2.40892E+02  6.23107E+02 -2.34012E+02 -1.77625E+02  3.46261E+02  8.67081E+02
