 $NMID ID='MM_0lb_SNR200_7hz_g55_82.RAW', FMTDAT='(8E13.5)'
 TRAMP=1., VOLUME=1. $END
  3.10534E+05 -1.39612E+03  3.38520E+05  2.50206E+05  8.56404E+04  3.38316E+05 -1.33617E+05  2.54245E+05
 -1.89351E+05  8.36440E+04 -1.14446E+05 -3.23518E+04 -8.25137E+02 -5.29320E+04  5.23983E+04 -1.04340E+03
  3.39522E+04  5.39829E+04 -1.64032E+04  7.59907E+04 -6.22122E+04  6.34932E+04 -8.70147E+04  3.20214E+04
 -8.19548E+04 -1.07286E+04 -6.09033E+04 -5.29985E+04 -1.46605E+04 -7.35288E+04  2.85024E+04 -4.78026E+04
  4.07981E+04  4.74893E+03  1.84327E+04  4.85475E+04 -3.58565E+04  4.92814E+04 -6.89791E+04  6.04716E+02
 -5.51147E+04 -5.90628E+04 -8.83546E+03 -8.10071E+04  3.49583E+04 -5.70670E+04  5.11801E+04 -1.86072E+04
  4.49384E+04  1.13398E+04  3.12106E+04  2.73175E+04  1.50381E+04  3.18541E+04 -5.20243E+03  2.62539E+04
 -2.37541E+04  1.10516E+04 -1.88233E+04 -4.54746E+03  6.56967E+03 -7.18010E+03  2.46515E+04  1.45517E+04
  7.28685E+03  3.66441E+04 -3.58514E+04  3.81665E+04 -6.54294E+04  2.64866E+03 -6.00442E+04 -4.65122E+04
 -1.27879E+04 -6.83615E+04  4.34978E+04 -4.72599E+04  6.37200E+04 -1.95265E+03  3.85167E+04  3.57075E+04
 -6.05062E+03  4.22842E+04 -3.24486E+04  2.02169E+04 -3.35735E+04 -2.34939E+03 -2.07148E+04 -1.23341E+04
 -9.34210E+03 -1.66562E+04 -8.23269E+02 -2.10615E+04  9.65322E+03 -2.31459E+04  1.39528E+04 -1.06761E+04
  1.05980E+04  7.83036E+03 -1.20836E+04  1.38771E+04 -2.55732E+04 -6.08632E+03 -8.31741E+03 -3.87310E+04
  2.74441E+04 -5.02375E+04  5.40315E+04 -2.14818E+04  5.08268E+04  2.21486E+04  1.97279E+04  4.85028E+04
 -1.70095E+04  3.78989E+04 -2.89268E+04  2.23259E+03 -1.23065E+04 -3.13490E+04  2.34488E+04 -3.91794E+04
  4.70975E+04 -1.05657E+04  4.30758E+04  2.47621E+04  2.32915E+04  5.41656E+04 -8.40078E+03  5.80961E+04
 -3.81554E+04  4.07994E+04 -4.94200E+04  1.26034E+04 -5.08489E+04 -1.91092E+04 -2.83753E+04 -4.48064E+04
  9.19933E+03 -4.36472E+04  3.53120E+04 -1.85835E+04  3.47056E+04  1.04821E+04  5.09918E+03  2.32924E+04
 -1.25414E+04  7.98895E+03 -1.27935E+04 -7.57417E+03  4.42132E+03 -1.07414E+04  1.92420E+04  5.26253E+03
  1.57492E+04  2.45457E+04 -4.33322E+03  2.85123E+04 -2.41887E+04  1.44316E+04 -3.49412E+04 -9.72566E+02
 -2.72558E+04 -1.89030E+04 -1.28180E+04 -2.99837E+04  3.95850E+03 -2.96369E+04  2.24984E+04 -2.54767E+04
  3.45009E+04 -1.52261E+04  4.08265E+04  4.81895E+03  2.79932E+04  2.65474E+04  5.93418E+03  4.51913E+04
 -2.11177E+04  3.62021E+04 -3.04077E+04  1.35452E+04 -2.56823E+04 -9.46001E+03 -5.28036E+03 -1.30600E+04
  9.57032E+02  5.51134E+02 -9.31907E+03  7.30396E+03 -2.35978E+04  3.93364E+03 -2.21876E+04 -1.14043E+04
 -1.42560E+04 -2.42830E+04  6.90507E+03 -3.09775E+04  2.01648E+04 -2.13465E+04  2.54046E+04 -2.47648E+03
  1.65852E+04  1.86775E+04 -3.92161E+03  2.41786E+04 -1.74043E+04  1.52656E+04 -2.61977E+04 -4.77760E+03
 -1.83856E+04 -2.36728E+04 -1.11805E+03 -2.94723E+04  1.39711E+04 -2.61687E+04  2.61384E+04 -1.33503E+04
  2.55119E+04 -8.97041E+02  1.90093E+04  6.11693E+03  1.02027E+04  6.57244E+02  1.34612E+04 -2.35614E+03
  2.65506E+04  6.08617E+03  3.04207E+04  2.04056E+04  2.20717E+04  4.14949E+04 -1.52718E+03  4.94185E+04
 -2.63591E+04  4.18612E+04 -4.72171E+04  2.32544E+04 -5.11940E+04 -1.59017E+03 -4.22521E+04 -3.16609E+04
 -1.48448E+04 -4.28071E+04  1.30492E+04 -3.85190E+04  3.03533E+04 -1.56407E+04  2.50753E+04  1.02160E+04
  8.26535E+03  2.20307E+04 -1.16519E+04  1.81256E+04 -2.20047E+04  4.20497E+03 -1.67184E+04 -1.54559E+04
  8.17662E+02 -2.18989E+04  1.27496E+04 -1.60881E+04  1.45741E+04 -1.82724E+03  3.06124E+03  1.08183E+04
 -9.20896E+03  5.40197E+03 -1.21672E+04 -8.95486E+03 -1.77299E+03 -2.01800E+04  1.15879E+04 -2.35215E+04
  2.70607E+04 -1.29111E+04  3.26180E+04  2.65912E+03  2.63227E+04  2.32742E+04  1.09679E+04  3.34308E+04
 -7.97025E+03  3.55222E+04 -2.48845E+04  2.27729E+04 -2.75249E+04  3.64776E+03 -1.63969E+04 -6.61684E+03
 -6.73637E+03 -9.12266E+03 -8.05925E+02  7.27235E+02 -2.90430E+03  1.49785E+03 -8.70923E+03  6.16447E+03
 -1.60267E+04 -2.53094E+02 -1.78311E+04 -1.53031E+04 -7.13415E+03 -2.28901E+04  8.80081E+03 -1.82248E+04
  1.82338E+04 -8.83419E+03  9.94367E+03  3.90188E+03 -5.16863E+02  7.25777E+03 -8.52937E+03  4.78495E+02
 -9.49111E+03 -1.30044E+04 -8.57281E+02 -1.78757E+04  1.00355E+04 -1.76836E+04  2.48629E+04 -9.92102E+03
  2.84344E+04  3.50393E+03  1.88211E+04  1.66764E+04  4.01272E+03  2.18740E+04 -1.17254E+04  1.72872E+04
 -1.50219E+04  4.20959E+03 -7.40067E+03 -3.59496E+03  3.51152E+03 -4.69279E+03  7.43459E+03  4.20240E+02
  8.80256E+03  9.07796E+03  1.19863E+03  1.35663E+04 -1.18560E+04  1.42391E+04 -1.86304E+04  3.74154E+03
 -1.25250E+04 -1.11170E+04 -5.95231E+02 -1.51631E+04  1.08367E+04 -9.28274E+03  1.15659E+04  3.86519E+03
  1.76579E+03  1.12649E+04 -9.11603E+03  1.55254E+04 -1.67813E+04  6.61572E+03 -1.83784E+04 -6.90136E+03
 -9.50752E+03 -1.87157E+04  3.98821E+03 -2.18387E+04  1.92342E+04 -1.20638E+04  2.10388E+04  4.90982E+03
  9.37205E+03  1.74720E+04 -1.40023E+03  1.82103E+04 -1.42525E+04  1.06453E+04 -1.51230E+04 -2.97562E+03
 -1.33207E+04 -1.10612E+04 -2.24706E+03 -1.30366E+04  6.46579E+03 -1.21351E+04  1.02423E+04 -3.64627E+03
  5.15589E+03  3.60006E+03 -5.35191E+02  3.55914E+03 -2.20573E+03 -5.43231E+03  9.28929E+02 -9.67602E+03
  1.49615E+04 -5.88282E+03  1.81501E+04  3.10086E+03  1.88324E+04  1.39811E+04  1.33223E+04  2.54251E+04
 -6.61359E+03  2.87905E+04 -2.65940E+04  2.23743E+04 -3.12743E+04  4.24594E+03 -2.66879E+04 -1.06288E+04
 -9.87914E+03 -2.16837E+04  1.56057E+03 -1.70284E+04  6.65024E+03 -1.11235E+04  6.03149E+03 -5.81528E+03
  4.71856E+03 -3.68898E+03  3.63592E+03 -5.15234E+03  6.04074E+03 -4.77570E+03  1.06061E+04 -2.95525E+03
  1.23477E+04  3.45829E+03  8.76270E+03  1.10880E+04 -2.60981E+03  1.33976E+04 -1.47871E+04  1.05085E+04
 -2.11016E+04 -1.01194E+03 -1.25797E+04 -1.22568E+04 -3.12255E+03 -2.15060E+04  1.07215E+04 -2.05739E+04
  1.94273E+04 -1.15405E+04  2.42888E+04  5.53857E+03  1.65515E+04  1.68530E+04  9.41521E+02  2.23420E+04
 -8.70545E+03  1.75038E+04 -1.15556E+04  5.31552E+03 -8.82634E+03 -1.53904E+03 -4.23231E+03 -3.23564E+03
 -3.57897E+03  3.80121E+02 -2.37746E+03  3.44234E+03 -8.15938E+03  3.02955E+03 -1.26394E+04 -2.03100E+03
 -1.00365E+04 -1.29527E+04 -2.05213E+03 -1.89887E+04  1.05934E+04 -1.81656E+04  1.92988E+04 -4.82245E+03
  1.80680E+04  7.48403E+03  9.09701E+03  1.89869E+04 -3.75188E+03  2.09593E+04 -1.65331E+04  1.08628E+04
 -1.76753E+04 -4.22177E+02 -1.36178E+04 -1.25576E+04 -2.71044E+03 -1.51960E+04  8.43140E+03 -1.28854E+04
  1.10870E+04 -4.34995E+03  8.33769E+03  2.55824E+03  1.83248E+03  5.77528E+03  2.02467E+03  1.55381E+03
  1.64245E+03 -5.22103E+02  3.30843E+03  1.51322E+03  6.14697E+03  6.73357E+03  5.36392E+03  9.40985E+03
 -2.01331E+03  1.59978E+04 -1.63913E+04  1.38424E+04 -2.03109E+04  4.06289E+03 -2.18061E+04 -9.76185E+03
 -1.02872E+04 -1.94605E+04  1.64475E+03 -2.20104E+04  1.20149E+04 -1.59737E+04  1.62689E+04 -5.17575E+03
  1.29769E+04  8.09725E+03  2.43331E+03  1.19760E+04 -4.67827E+03  7.21340E+03 -8.60025E+03 -9.92246E+02
 -3.57296E+03 -7.13603E+03  5.49297E+03 -9.75871E+03  7.69873E+03 -2.75834E+03  8.21172E+03  9.97842E+02
  6.61553E+03  4.59458E+03  2.11987E+03  4.90373E+03  1.78645E+03  3.80319E+03  3.64030E+03 -9.35354E+02
  2.64683E+03 -1.28986E+03  7.63429E+03  3.80783E+03  4.04049E+03  9.12862E+03 -2.62583E+03  1.65446E+04
 -9.33030E+03  8.62211E+03 -1.20304E+04  3.94177E+03 -1.35686E+04 -4.92011E+03 -4.48248E+03 -1.05391E+04
  7.79657E+02 -8.06397E+03  5.87370E+03 -5.49875E+03  3.60380E+03  4.95382E+03 -3.57583E+03  7.91341E+03
 -9.50633E+03  2.36043E+03 -9.20399E+03 -5.46837E+03 -5.58714E+03 -1.03845E+04  2.14727E+03 -1.21579E+04
  8.05697E+03 -6.61997E+03  7.75530E+03 -1.52355E+03  7.36614E+03  3.17255E+03  1.59324E+03  7.29809E+03
 -3.06531E+03  3.03735E+03 -4.61809E+03 -3.58772E+03  1.44688E+03 -9.39035E+03  9.33109E+03 -7.40468E+03
  1.33738E+04  1.67451E+03  1.17260E+04  1.02712E+04  1.97805E+03  1.44590E+04 -5.47131E+03  1.37303E+04
 -1.27929E+04  5.33314E+03 -1.25417E+04 -3.49409E+03 -6.37188E+03 -1.07357E+04  2.15694E+03 -8.97718E+03
  8.69927E+03 -7.09679E+03  8.85041E+03  3.62383E+03  2.00679E+03  7.48816E+03 -1.65544E+03  6.67129E+03
 -2.50623E+03  4.49634E+03 -2.93234E+03 -7.85310E+01 -7.54682E+02  3.00281E+03 -2.19942E+03  3.27261E+03
 -6.17482E+03  3.16940E+03 -9.38116E+03  5.16355E+03 -1.43271E+04  1.06766E+03 -1.75168E+04 -8.27690E+03
 -8.46707E+03 -1.94126E+04  2.73835E+03 -2.18062E+04  1.37465E+04 -1.75652E+04  2.11725E+04 -6.12206E+03
  2.16801E+04  5.63816E+03  1.15757E+04  1.09389E+04  1.50013E+03  1.51461E+04 -5.46925E+03  1.08596E+04
 -1.00965E+04  3.82736E+03 -4.90860E+03 -2.64678E+03 -1.88954E+03 -1.33904E+03 -1.17913E+03 -9.86939E+01
 -4.23738E+03  4.00847E+02 -2.57855E+03 -2.12809E+02 -1.82253E+03 -3.84996E+03  2.91337E+01 -6.83008E+03
  6.15624E+03 -3.08026E+03  1.10973E+04 -2.29354E+03  1.02695E+04  8.59613E+03  2.60808E+03  1.68471E+04
 -5.69611E+03  1.51304E+04 -1.62099E+04  8.33248E+03 -1.85797E+04 -2.39416E+03 -1.44311E+04 -1.18244E+04
 -6.51736E+03 -1.60363E+04  3.70112E+03 -1.40198E+04  1.15239E+04 -8.67906E+03  9.65754E+03  2.10935E+03
  4.70246E+03  6.33450E+03  1.47975E+01  5.42845E+03 -1.83804E+03  6.71250E+02  8.23614E+02 -1.81544E+03
  4.00794E+03 -3.22357E+03  6.70740E+03  2.30451E+03  3.25858E+03  6.27853E+03 -1.02813E+03  9.80909E+03
 -6.25627E+03  5.80482E+03 -1.12283E+04  4.59949E+02 -1.05290E+04 -6.86251E+03 -4.38085E+02 -1.28534E+04
  7.58550E+03 -1.22034E+04  1.28540E+04 -5.65260E+03  1.14845E+04  2.29806E+03  7.65149E+03  6.97374E+03
  2.30922E+03  1.20888E+04 -4.55424E+03  7.28340E+03 -6.59488E+03  6.42893E+03 -7.50899E+03 -1.19020E+01
 -3.08565E+03 -2.01346E+03 -3.37568E+03  1.45980E+03 -6.72911E+03  2.58402E+03 -8.64790E+03 -1.23244E+03
 -7.61803E+03 -4.85162E+03 -2.66028E+03 -1.16475E+04  5.71821E+03 -1.18976E+04  1.07689E+04 -5.51531E+03
  1.03217E+04  8.12763E+02  7.09628E+03  7.69148E+03  9.70833E+01  1.22544E+04 -8.90749E+03  7.30142E+03
