 $NMID ID='MM_0lb_SNR200_11hz_g60_83.RAW', FMTDAT='(8E13.5)'
 TRAMP=1., VOLUME=1. $END
  3.09363E+05  9.34970E+02  3.39914E+05  2.50063E+05  8.54477E+04  3.39595E+05 -1.33558E+05  2.50391E+05
 -1.89907E+05  8.34710E+04 -1.12129E+05 -3.23186E+04  1.37820E+02 -5.04298E+04  5.34777E+04 -2.64921E+02
  3.33503E+04  5.33967E+04 -1.61385E+04  7.64279E+04 -6.22481E+04  6.43280E+04 -8.45832E+04  3.17258E+04
 -8.08726E+04 -1.12883E+04 -5.80388E+04 -5.33255E+04 -1.31412E+04 -6.99002E+04  2.67029E+04 -4.63888E+04
  4.14089E+04  4.97986E+03  1.65686E+04  4.70420E+04 -3.56021E+04  4.86592E+04 -6.83553E+04  7.25737E+02
 -5.37565E+04 -5.92992E+04 -8.05149E+03 -7.81458E+04  3.43951E+04 -5.70638E+04  4.80644E+04 -1.87302E+04
  4.47556E+04  1.03935E+04  3.21596E+04  2.63924E+04  1.44581E+04  2.99300E+04 -4.70397E+03  2.82485E+04
 -2.19496E+04  1.25956E+04 -1.94690E+04 -4.62727E+03  8.21962E+03 -8.24347E+03  2.35506E+04  1.38042E+04
  5.33100E+03  3.84565E+04 -3.22314E+04  3.79117E+04 -6.60962E+04  2.38224E+03 -5.76953E+04 -4.42807E+04
 -1.23008E+04 -6.65283E+04  4.17917E+04 -4.67331E+04  6.08054E+04 -2.14662E+03  3.69344E+04  3.43359E+04
 -5.81329E+03  3.75502E+04 -3.21267E+04  1.88143E+04 -3.23567E+04 -2.88620E+03 -2.13649E+04 -1.11180E+04
 -1.05334E+04 -1.38239E+04  1.16216E+03 -2.00670E+04  9.30409E+03 -2.34476E+04  1.44734E+04 -1.35247E+04
  9.35655E+03  6.26631E+03 -9.54677E+03  1.47393E+04 -2.27922E+04 -6.59031E+03 -7.82007E+03 -3.72492E+04
  2.44630E+04 -4.63414E+04  5.16216E+04 -2.12961E+04  4.80975E+04  2.08678E+04  1.70139E+04  4.87339E+04
 -1.76159E+04  3.57059E+04 -2.73940E+04  4.01655E+03 -1.12400E+04 -2.87672E+04  2.14243E+04 -3.65387E+04
  4.45789E+04 -1.08312E+04  3.95586E+04  2.49192E+04  2.09310E+04  4.89215E+04 -8.66042E+03  5.64907E+04
 -3.55126E+04  3.67827E+04 -4.79199E+04  1.15665E+04 -4.61865E+04 -1.81640E+04 -2.48340E+04 -4.09823E+04
  6.88751E+03 -4.00558E+04  3.41720E+04 -1.63206E+04  3.20728E+04  1.10453E+04  5.13762E+03  2.08669E+04
 -1.36591E+04  9.57718E+03 -1.03126E+04 -7.89997E+03  5.98110E+03 -1.23059E+04  1.80163E+04  5.60628E+03
  1.58649E+04  2.29711E+04 -4.00584E+03  2.74511E+04 -2.35156E+04  1.54497E+04 -3.10424E+04 -2.32224E+03
 -2.50320E+04 -1.88711E+04 -1.07611E+04 -2.43138E+04  3.75134E+03 -2.49679E+04  1.87646E+04 -2.21152E+04
  3.14550E+04 -1.43663E+04  3.60339E+04  4.49799E+03  2.68213E+04  2.31632E+04  3.68673E+03  4.10964E+04
 -1.93506E+04  3.46455E+04 -3.12738E+04  1.16112E+04 -2.27288E+04 -1.05275E+04 -4.97976E+03 -1.24724E+04
  1.40224E+03 -2.26715E+03 -7.13666E+03  8.99493E+03 -2.00111E+04  5.86041E+03 -1.87660E+04 -7.84944E+03
 -1.25316E+04 -2.28092E+04  6.29497E+03 -2.71064E+04  1.68791E+04 -1.93869E+04  2.18256E+04 -2.75972E+03
  1.37425E+04  1.47083E+04 -8.79310E+02  2.35376E+04 -1.51595E+04  1.23929E+04 -2.31663E+04 -5.62976E+03
 -1.58166E+04 -2.00348E+04 -2.83406E+03 -2.79104E+04  1.29365E+04 -2.23832E+04  2.24586E+04 -1.14551E+04
  2.21168E+04 -6.48795E+02  1.57513E+04  5.44145E+03  8.25184E+03  2.99606E+02  1.18795E+04 -6.43747E+02
  2.25939E+04  3.18414E+03  2.41290E+04  1.87325E+04  1.63288E+04  3.63689E+04 -3.00453E+03  4.28634E+04
 -2.50176E+04  3.45723E+04 -3.98438E+04  1.76897E+04 -4.20490E+04 -3.40331E+03 -3.53273E+04 -2.58647E+04
 -1.37442E+04 -3.65138E+04  1.32061E+04 -3.06105E+04  2.58410E+04 -1.46935E+04  2.24830E+04  8.12433E+03
  8.97076E+03  1.93480E+04 -1.12137E+04  1.47247E+04 -1.89030E+04  3.35980E+03 -1.31187E+04 -1.17022E+04
 -1.05913E+03 -1.72357E+04  9.82219E+03 -1.48233E+04  1.28422E+04 -2.10406E+03  3.24132E+03  9.51944E+03
 -8.63295E+03  3.67453E+03 -8.33555E+03 -6.99258E+03 -1.69690E+03 -1.75063E+04  1.15267E+04 -1.87943E+04
  2.04763E+04 -1.05221E+04  2.55939E+04  3.23522E+03  2.07445E+04  1.68678E+04  7.75650E+03  2.73861E+04
 -4.38809E+03  2.95078E+04 -1.96520E+04  1.56638E+04 -2.18689E+04  4.26684E+03 -1.33844E+04 -6.79482E+03
 -6.38997E+03 -7.33001E+03  5.45871E+01  4.93188E+02 -2.75203E+03  3.97284E+03 -6.24196E+03  6.13699E+03
 -1.28514E+04 -7.52809E+02 -1.46807E+04 -1.13753E+04 -6.65943E+03 -1.87510E+04  7.08187E+03 -1.38760E+04
  1.14408E+04 -7.46730E+03  8.56290E+03  4.07998E+03 -1.40781E+03  7.34675E+03 -7.07404E+03 -6.54600E+02
 -7.86423E+03 -1.04816E+04 -1.45887E+03 -1.52821E+04  8.00974E+03 -1.60079E+04  2.02110E+04 -7.79815E+03
  2.20254E+04  1.89832E+03  1.69804E+04  1.13938E+04  3.29814E+03  1.75852E+04 -9.21478E+03  1.39097E+04
 -1.18595E+04  4.40244E+03 -5.83426E+03 -3.14112E+03  2.46513E+03 -4.22867E+03  7.86188E+03 -2.80107E+03
  6.93096E+03  7.88496E+03  1.46488E+03  1.28812E+04 -7.86892E+03  1.06519E+04 -1.42387E+04  3.00922E+03
 -1.02301E+04 -7.17831E+03 -5.99980E+02 -1.37072E+04  8.75508E+03 -7.46997E+03  8.45181E+03  3.03700E+03
  2.82312E+03  7.25040E+03 -8.21035E+03  1.10208E+04 -1.24439E+04  3.25390E+03 -1.13654E+04 -4.27053E+03
 -7.98552E+03 -1.57187E+04  4.12114E+03 -1.62676E+04  1.33216E+04 -1.08293E+04  1.54421E+04  3.12035E+03
  7.70732E+03  1.10669E+04 -1.58486E+03  1.42699E+04 -1.06283E+04  8.20067E+03 -1.17406E+04 -8.34856E+02
 -1.02408E+04 -8.30776E+03 -2.72741E+03 -1.10779E+04  6.23077E+03 -8.64983E+03  5.81277E+03 -5.11344E+03
  4.24122E+03  4.71930E+02 -1.06321E+02  1.76732E+03  2.23560E+02 -2.90796E+03  3.42258E+03 -6.49242E+03
  9.25527E+03 -5.11238E+03  1.51381E+04  1.74638E+03  1.36790E+04  1.02756E+04  8.89692E+03  1.69924E+04
 -5.11759E+03  2.17275E+04 -1.83281E+04  1.61106E+04 -2.33676E+04  1.92421E+03 -1.68296E+04 -7.32336E+03
 -1.01416E+04 -1.51439E+04 -3.47069E+02 -1.35232E+04  5.40939E+03 -5.88261E+03  3.89719E+03 -6.35716E+03
  4.83434E+03 -2.39984E+03  5.34262E+03 -3.98705E+03  4.81710E+03 -3.44419E+03  6.57726E+03 -1.21232E+03
  8.35299E+03  1.85973E+03  5.25042E+03  7.16500E+03 -2.19678E+03  1.03258E+04 -9.37848E+03  8.01765E+03
 -1.35913E+04  1.55836E+01 -7.86043E+03 -1.02543E+04 -1.23942E+03 -1.39498E+04  7.21537E+03 -1.50990E+04
  1.45673E+04 -6.66808E+03  1.63937E+04  2.99667E+03  1.13286E+04  1.21145E+04  2.88759E+03  1.59198E+04
 -5.78616E+03  1.30567E+04 -7.46713E+03  4.07612E+03 -6.32485E+03 -1.53517E+03 -3.27339E+03 -2.18055E+03
 -9.76026E+02 -4.50380E+02 -1.45183E+03  3.71790E+03 -4.27245E+03  4.13557E+02 -7.70493E+03  1.44115E+02
 -7.12801E+03 -7.15782E+03 -7.26753E+02 -1.30293E+04  7.26689E+03 -1.19582E+04  1.15929E+04 -2.90222E+03
  1.40596E+04  6.71077E+03  5.18013E+03  1.28703E+04 -1.92308E+03  1.36149E+04 -8.82078E+03  9.89936E+03
 -1.10240E+04  1.42973E+03 -7.96559E+03 -7.75963E+03 -1.73252E+02 -9.24760E+03  5.55601E+03 -7.80375E+03
  8.15192E+03 -2.09725E+03  4.32596E+03  2.79560E+03  1.95667E+03  5.93910E+03 -1.71436E+02  2.34768E+03
  2.11632E+03  1.38336E+03  1.08311E+03  1.70149E+03  3.33212E+03  5.52258E+03  3.38724E+03  7.76660E+03
 -2.37868E+03  9.56294E+03 -8.21549E+03  9.11273E+03 -1.38160E+04  1.46105E+03 -1.33094E+04 -5.61567E+03
 -6.15792E+03 -1.44256E+04  2.12491E+03 -1.41386E+04  6.22777E+03 -7.75631E+03  9.37071E+03 -2.62341E+03
  8.46424E+03  4.47697E+03  1.47308E+03  9.19626E+03 -3.83441E+03  4.95257E+03 -5.57958E+03 -3.29897E+00
 -1.59458E+03 -5.72709E+03  2.76812E+03 -6.11562E+03  3.92656E+03 -2.65667E+03  5.57971E+03  2.15149E+03
  4.47785E+03  3.51158E+03  2.25055E+03  2.00953E+03 -4.01474E+02  2.80608E+03 -5.95677E+01  7.98554E+02
  1.18848E+03 -1.39401E+03  5.28877E+03  3.34830E+03  4.32229E+03  7.15936E+03 -1.70676E+03  9.97546E+03
 -6.50750E+03  6.25994E+03 -6.95209E+03  1.23683E+03 -7.17969E+03 -3.96271E+03 -1.85034E+03 -4.43115E+03
 -1.82405E+01 -5.18785E+03  3.90719E+03 -2.03104E+03  1.76573E+03  2.29757E+03 -9.12803E+02  3.65070E+03
 -5.37984E+03  2.96200E+03 -6.01467E+03 -2.35202E+03 -1.77792E+03 -7.40042E+03  1.18778E+03 -8.25250E+03
  3.33572E+03 -4.41205E+03  4.60865E+03 -3.97566E+02  3.80279E+03  1.16820E+03  5.40273E+02  2.90716E+03
 -2.52814E+03 -1.72174E+02 -3.29691E+03 -2.60350E+03 -7.00080E+02 -6.04887E+03  5.33506E+03 -4.46170E+03
  8.14807E+03  1.22409E+03  7.82660E+03  3.63014E+03  2.30544E+03  7.86820E+03 -3.92670E+03  8.51652E+03
 -7.16593E+03  3.58147E+03 -6.78296E+03 -1.93232E+03 -3.15904E+03 -5.90912E+03  1.65514E+03 -5.32561E+03
  5.30175E+03 -2.64393E+03  4.98671E+03  3.66804E+03  1.73817E+03  4.48036E+03 -1.40256E+03  3.34550E+03
 -4.15896E+02  3.93776E+03 -1.63672E+03  6.38794E+02 -1.09015E+03  1.19289E+03 -1.25944E+03  1.26960E+03
 -2.54735E+03  3.43675E+03 -6.74596E+03  1.08203E+03 -6.41478E+03  8.77441E+02 -7.80593E+03 -5.59362E+03
 -4.33351E+03 -1.02592E+04  2.55002E+03 -1.16654E+04  6.28423E+03 -8.50297E+03  1.13530E+04 -4.24251E+03
  9.74333E+03  9.55078E+02  5.09861E+03  7.38907E+03  9.81934E+02  7.11680E+03 -3.48557E+03  4.74085E+03
 -2.53259E+03  2.38189E+03 -3.47773E+03 -1.66938E+03 -6.19038E+02 -1.31202E+03 -2.29915E+03 -7.15232E+02
 -5.31103E+02 -2.78742E+02 -2.97447E+03  1.32937E+02 -1.29924E+03 -1.82883E+03 -3.91709E+02 -5.43269E+03
  2.12827E+03 -2.14050E+03  4.27685E+03  6.56874E+02  4.20860E+03  4.20873E+03  7.02672E+02  7.55164E+03
 -4.14035E+03  8.51900E+03 -8.62323E+03  5.76553E+03 -8.63482E+03 -1.45371E+03 -8.13706E+03 -5.95896E+03
 -2.33452E+03 -7.29187E+03  2.71921E+03 -8.14283E+03  5.31746E+03 -3.13807E+03  4.93249E+03 -5.69700E+02
  2.60034E+03  3.49795E+03  3.75358E+02  2.83890E+03 -2.01366E+03 -6.19262E+01  3.04312E+02 -1.24799E+03
  2.24561E+03 -4.13448E+01  3.86788E+03  2.39881E+03  2.31704E+03  2.07653E+03  1.72972E+03  4.67156E+03
 -2.56342E+03  3.58878E+03 -6.02463E+03  1.29374E+03 -4.83926E+03 -3.66096E+03 -2.42462E+03 -7.73546E+03
  3.30989E+03 -5.42633E+03  4.54387E+03 -4.21184E+02  5.43863E+03  1.34054E+03  4.68108E+03  5.95762E+03
  1.74384E+03  4.82519E+03 -2.16184E+03  3.83036E+03 -2.68036E+03  1.97803E+03 -1.94352E+03 -1.15049E+02
 -1.48512E+03  9.89755E+02 -1.58101E+03  3.54348E+02 -3.14141E+03  9.13211E+02 -3.35246E+03 -1.46367E+03
 -5.84432E+03 -1.64874E+03 -6.54670E+02 -4.56371E+03  3.24663E+03 -5.85933E+03  4.18596E+03 -2.60795E+03
  5.70175E+03  6.60149E+02  2.76029E+03  3.66230E+03 -1.51803E+02  3.42121E+03 -4.37967E+03  2.98351E+03
