 $NMID ID='MM_0lb_SNR200_11hz_g50_50.RAW', FMTDAT='(8E13.5)'
 TRAMP=1., VOLUME=1. $END
  3.09337E+05  6.56189E+02  3.37752E+05  2.50037E+05  8.47962E+04  3.36947E+05 -1.31620E+05  2.52069E+05
 -1.91340E+05  8.43066E+04 -1.12128E+05 -3.34628E+04  3.42959E+02 -5.07520E+04  5.29783E+04 -1.09677E+03
  3.58769E+04  5.24641E+04 -1.64185E+04  7.49538E+04 -6.23221E+04  6.37196E+04 -8.46413E+04  3.18798E+04
 -8.34730E+04 -1.23473E+04 -5.70442E+04 -5.19105E+04 -1.46761E+04 -7.04025E+04  2.81348E+04 -4.64599E+04
  4.12671E+04  2.38394E+03  1.64188E+04  4.94814E+04 -3.54128E+04  4.74434E+04 -6.69931E+04 -2.86486E+02
 -5.38821E+04 -5.74895E+04 -6.90780E+03 -7.78562E+04  3.44983E+04 -5.41056E+04  4.87955E+04 -1.69599E+04
  4.45991E+04  1.22871E+04  3.09107E+04  2.55011E+04  1.47653E+04  3.10988E+04 -4.59717E+03  2.71980E+04
 -2.09846E+04  1.29026E+04 -1.95477E+04 -6.25900E+03  6.33764E+03 -7.79988E+03  2.29508E+04  1.31301E+04
  9.05103E+03  3.67746E+04 -3.25527E+04  3.58256E+04 -6.51690E+04  3.10668E+03 -5.81448E+04 -4.31463E+04
 -1.33986E+04 -6.45409E+04  4.01006E+04 -4.58539E+04  5.95237E+04 -3.17776E+03  3.52310E+04  3.47644E+04
 -6.46958E+03  3.95420E+04 -3.23561E+04  1.72844E+04 -3.35176E+04 -3.01841E+03 -1.81094E+04 -1.14149E+04
 -9.61849E+03 -1.32947E+04 -9.70954E+02 -1.86528E+04  8.90365E+03 -2.31434E+04  1.48296E+04 -1.36540E+04
  1.08451E+04  4.99162E+03 -8.65429E+03  1.25513E+04 -2.26571E+04 -5.47470E+03 -8.78715E+03 -3.57239E+04
  2.34961E+04 -4.47848E+04  4.96360E+04 -1.95962E+04  4.70372E+04  2.08078E+04  1.57298E+04  4.84738E+04
 -1.74955E+04  3.45266E+04 -2.59631E+04  2.18857E+03 -1.10085E+04 -2.93364E+04  2.08771E+04 -3.71254E+04
  4.27626E+04 -9.80562E+03  3.84014E+04  2.46490E+04  1.90749E+04  4.79596E+04 -8.87780E+03  5.45626E+04
 -3.29506E+04  3.65271E+04 -4.58775E+04  1.14510E+04 -4.37541E+04 -1.95196E+04 -2.46766E+04 -4.02829E+04
  7.09439E+03 -3.99514E+04  3.24025E+04 -1.63482E+04  3.10174E+04  1.04576E+04  4.64050E+03  1.98459E+04
 -1.38243E+04  8.22402E+03 -1.11772E+04 -7.46646E+03  7.21071E+03 -1.15573E+04  1.96491E+04  6.21162E+03
  1.41029E+04  2.39149E+04 -6.34291E+03  2.75645E+04 -2.25655E+04  1.27799E+04 -3.09975E+04 -4.97628E+03
 -2.27929E+04 -1.82276E+04 -1.02237E+04 -2.32009E+04  3.21996E+03 -2.33665E+04  1.86219E+04 -2.04317E+04
  2.83006E+04 -1.36210E+04  3.69948E+04  4.44312E+03  2.58164E+04  2.31668E+04  4.62174E+03  4.01396E+04
 -1.74588E+04  3.10624E+04 -2.92428E+04  1.11031E+04 -2.07367E+04 -9.60903E+03 -4.33823E+03 -1.36110E+04
  1.25929E+03 -1.26996E+03 -5.97652E+03  8.04713E+03 -1.97870E+04  4.27661E+03 -1.70777E+04 -9.52306E+03
 -1.19183E+04 -2.22850E+04  5.41946E+03 -2.68336E+04  1.81118E+04 -1.82876E+04  1.98804E+04 -1.93215E+03
  1.28010E+04  1.49397E+04 -1.52415E+03  2.04042E+04 -1.47050E+04  1.21493E+04 -1.99364E+04 -5.25192E+03
 -1.64163E+04 -1.96254E+04 -2.44976E+03 -2.63933E+04  1.21279E+04 -2.18630E+04  2.16374E+04 -1.11017E+04
  2.01306E+04 -4.17010E+02  1.57194E+04  3.56123E+03  7.33499E+03  1.30801E+03  1.14336E+04 -1.82891E+03
  1.96155E+04  2.37865E+03  2.18969E+04  1.65796E+04  1.58644E+04  3.46993E+04 -4.65354E+03  3.88356E+04
 -2.26847E+04  3.34786E+04 -3.67494E+04  1.58762E+04 -4.03888E+04 -1.81757E+03 -3.19527E+04 -2.37149E+04
 -1.32423E+04 -3.25267E+04  1.21865E+04 -2.98639E+04  2.57158E+04 -1.44708E+04  2.25364E+04  6.51807E+03
  9.73446E+03  1.64919E+04 -1.06858E+04  1.38181E+04 -1.80984E+04  2.63515E+03 -1.31185E+04 -1.20946E+04
 -3.37611E+02 -1.85612E+04  8.36128E+03 -1.38434E+04  1.22969E+04 -1.26529E+03  3.67581E+03  7.82536E+03
 -6.82934E+03  2.98507E+03 -8.26612E+03 -5.72340E+03 -9.21105E+02 -1.59264E+04  1.03805E+04 -1.69853E+04
  2.01297E+04 -1.06410E+04  2.37699E+04  3.32939E+03  1.99830E+04  1.57420E+04  7.98827E+03  2.53918E+04
 -4.98769E+03  2.85898E+04 -1.71772E+04  1.60892E+04 -1.91704E+04  3.62252E+03 -1.34860E+04 -5.38948E+03
 -7.06740E+03 -5.73243E+03 -2.81372E+03 -1.13490E+03 -3.17262E+03  4.21712E+03 -6.67394E+03  5.70292E+03
 -1.31020E+04 -1.55482E+03 -1.23824E+04 -9.84094E+03 -3.63348E+03 -1.69123E+04  6.44796E+03 -1.45661E+04
  1.20983E+04 -6.02905E+03  8.26099E+03  3.50057E+03 -6.69904E+02  4.61596E+03 -6.93672E+03  6.50039E+02
 -7.48610E+03 -8.59662E+03 -1.50475E+03 -1.28651E+04  7.15907E+03 -1.40629E+04  1.78753E+04 -8.46375E+03
  2.09050E+04  1.12350E+03  1.42500E+04  1.32980E+04  3.78535E+03  1.55230E+04 -9.29748E+03  1.48439E+04
 -1.00522E+04  6.31811E+03 -5.03198E+03 -3.28556E+03  1.25752E+03 -3.95415E+03  6.80543E+03 -2.98356E+01
  5.56482E+03  7.45740E+03  1.87654E+03  1.08391E+04 -7.94031E+03  1.10540E+04 -1.41927E+04  4.90316E+03
 -9.24310E+03 -6.62578E+03  4.90346E+02 -1.21129E+04  7.09184E+03 -5.40289E+03  8.13566E+03  3.04734E+03
  2.04148E+03  8.33230E+03 -6.03409E+03  1.08293E+04 -1.09266E+04  4.42901E+03 -1.05680E+04 -4.09238E+03
 -6.68571E+03 -1.30815E+04  3.75838E+03 -1.50594E+04  1.30565E+04 -8.19651E+03  1.40870E+04  1.92920E+03
  9.35654E+03  1.07593E+04 -1.02088E+03  1.36449E+04 -1.05659E+04  7.85410E+03 -1.08680E+04 -8.23288E+02
 -9.60812E+03 -8.31198E+03  1.12695E+02 -1.02380E+04  5.91372E+03 -8.02364E+03  6.57499E+03 -2.07210E+03
  5.21857E+03  2.47450E+03 -1.63574E+03  1.95990E+03 -4.23820E+02 -3.33142E+03  1.40724E+03 -4.31288E+03
  8.87538E+03 -2.44415E+03  1.29686E+04  1.75065E+03  1.22989E+04  8.41381E+03  1.00650E+04  1.70951E+04
 -3.94446E+03  2.04121E+04 -1.77268E+04  1.42308E+04 -2.09271E+04  2.80596E+03 -1.79182E+04 -9.18154E+03
 -7.70513E+03 -1.32474E+04 -1.07107E+03 -1.13121E+04  4.10698E+03 -6.11638E+03  4.61450E+03 -3.41858E+03
  3.97139E+03 -7.63243E+02  3.09990E+03 -3.25486E+03  5.34011E+03 -3.47794E+03  6.74641E+03 -2.72037E+03
  1.01253E+04  1.54742E+03  5.74510E+03  6.65188E+03 -2.94321E+03  8.22097E+03 -9.28132E+03  7.38264E+03
 -1.20589E+04 -1.80958E+03 -7.14593E+03 -8.88444E+03 -8.28647E+02 -1.40560E+04  5.50336E+03 -1.33303E+04
  1.36880E+04 -6.38923E+03  1.46622E+04  1.62385E+03  1.11802E+04  1.05041E+04  1.22181E+03  1.36428E+04
 -6.53519E+03  1.24540E+04 -8.15972E+03  4.28002E+03 -4.71258E+03 -1.48547E+02 -1.21287E+03 -1.68034E+03
 -2.73928E+03  3.99614E+02 -2.13207E+03  4.09160E+03 -4.61841E+03  1.08708E+03 -8.57544E+03 -1.32218E+03
 -4.22899E+03 -8.08061E+03  1.32980E+03 -1.18500E+04  6.59459E+03 -1.04122E+04  1.13839E+04 -2.78310E+03
  1.13896E+04  5.47335E+03  5.50315E+03  1.13459E+04 -1.72721E+03  1.26358E+04 -9.08040E+03  7.50969E+03
 -1.07163E+04  4.16071E+02 -8.98071E+03 -7.88349E+03 -1.33512E+03 -1.14924E+04  5.21546E+03 -6.89720E+03
  7.16392E+03 -2.78387E+03  4.33176E+03  2.83564E+03  1.33377E+03  4.32800E+03  1.14203E+03  2.58511E+03
  2.49393E+03  2.29208E+02  2.96456E+03 -1.18061E+02  1.98775E+03  5.63727E+03  3.05269E+03  5.59811E+03
 -1.20380E+03  1.02069E+04 -9.00914E+03  7.74031E+03 -1.14538E+04  4.65351E+03 -1.17727E+04 -4.03030E+03
 -5.44530E+03 -9.99058E+03  1.27444E+03 -1.32479E+04  5.77447E+03 -7.39626E+03  9.49538E+03 -3.98941E+03
  8.03838E+03  4.20670E+03  1.92938E+03  6.53340E+03 -3.79243E+03  4.31157E+03 -4.68665E+03 -6.20964E+02
 -1.89188E+03 -5.58515E+03  2.69904E+03 -2.08799E+03  4.98463E+03 -4.21049E+03  6.08267E+03  3.55842E+02
  3.54173E+03  3.18949E+03  1.25508E+03  1.47824E+03  1.95460E+02  1.62380E+03  2.00276E+03 -9.71661E+02
  1.67865E+03 -2.39344E+03  4.17277E+03  1.77410E+03  2.01610E+03  5.28857E+03 -8.93294E+02  8.02526E+03
 -5.79911E+03  4.66945E+03 -7.61901E+03  1.08273E+03 -6.55260E+03 -2.64073E+03 -3.02467E+03 -6.07987E+03
  7.62359E+02 -4.11306E+03  2.21189E+03 -2.17752E+03  2.29291E+03  1.52303E+03 -2.58697E+03  3.03430E+03
 -4.87508E+03  1.48529E+03 -5.43542E+03 -3.88249E+03 -2.49946E+03 -4.65887E+03  7.41619E+02 -5.41778E+03
  4.88228E+03 -2.03885E+03  3.76952E+03  6.22929E+02  4.59100E+03  1.88448E+03  1.36225E+03  3.37648E+03
 -1.64701E+03  1.56926E+03 -1.11125E+03 -1.04808E+03  1.94710E+03 -4.88592E+03  5.93710E+03 -4.61697E+03
  7.47297E+03  9.60063E+02  6.04365E+03  5.22424E+03  2.37404E+03  7.63249E+03 -3.76644E+03  7.33209E+03
 -6.34357E+03  4.12704E+03 -6.26101E+03 -2.40155E+03 -2.75586E+03 -5.27480E+03  1.24812E+03 -4.72512E+03
  4.56966E+03 -1.42369E+03  4.76458E+03  1.57534E+03  1.79332E+03  3.15067E+03 -1.03444E+03  4.97749E+03
 -3.14293E+03  3.50331E+03 -1.71400E+03 -9.44252E+01 -5.97028E+02  9.83003E+02 -1.33584E+03  7.24611E+02
 -1.86320E+03  3.92648E+03 -3.09284E+03  1.64773E+03 -7.10942E+03 -4.38297E+02 -8.44372E+03 -4.36304E+03
 -6.22987E+03 -9.67208E+03  2.76215E+03 -8.42353E+03  6.91483E+03 -9.80667E+03  1.07504E+04 -3.66534E+03
  9.83218E+03  6.49480E+02  5.68876E+03  6.47728E+03 -1.49142E+02  7.86030E+03 -2.84967E+03  5.48984E+03
 -3.35795E+03  2.05435E+03 -1.45037E+03 -5.29721E+02 -1.15310E+03 -4.62748E+02 -5.18779E+02 -1.50395E+02
 -2.69105E+03  8.94942E+02 -1.96378E+03  1.21861E+02  1.20902E+03 -2.60536E+03  8.81546E+02 -1.86470E+03
  4.19463E+03 -2.17366E+03  5.48288E+03 -7.54696E+02  5.09171E+03  3.42717E+03  1.36169E+03  8.34723E+03
 -2.07324E+03  9.42915E+03 -7.09282E+03  5.78620E+03 -8.96019E+03 -1.39531E+03 -6.47597E+03 -5.24384E+03
 -1.86669E+03 -7.14905E+03  1.86671E+03 -7.22832E+03  4.04662E+03 -3.69303E+03  4.78232E+03 -5.33930E+02
  2.76337E+03  1.64557E+03  1.37764E+03  1.96102E+03 -1.24409E+03  3.38970E+02 -5.10296E+01 -1.00254E+03
  2.98891E+03 -3.33680E+02  3.12833E+03  1.55669E+03  2.43369E+03  4.39523E+03 -2.68043E+02  3.71979E+03
 -1.45676E+03  2.11944E+03 -4.70572E+03 -3.65643E+02 -4.30323E+03 -2.39601E+03 -5.74108E+02 -5.83587E+03
  2.66627E+03 -4.30753E+03  4.69324E+03 -1.67440E+03  5.64024E+03  8.70572E+02  3.68656E+03  4.07952E+03
  1.54640E+03  3.55394E+03 -2.44807E+03  4.76341E+03 -2.26194E+03  2.43586E+03 -1.36434E+03  1.06017E+03
 -2.22217E+03  2.35099E+02 -2.56071E+03  3.44893E+02 -2.24069E+03  3.95972E+02 -3.14950E+03 -1.20533E+03
 -4.26921E+03 -3.45497E+03 -6.90296E+02 -5.36160E+03  2.21899E+03 -4.99409E+03  3.79183E+03 -2.85484E+03
  4.07602E+03  5.85410E+02  3.85547E+03  4.16434E+03  3.65583E+02  3.10878E+03 -2.34880E+03  2.10890E+03
