 $NMID ID='MM_0lb_SNR200_20hz_g55_89.RAW', FMTDAT='(8E13.5)'
 TRAMP=1., VOLUME=1. $END
  3.09951E+05  1.08079E+03  3.36902E+05  2.50518E+05  8.42692E+04  3.37274E+05 -1.32716E+05  2.49786E+05
 -1.89515E+05  8.20239E+04 -1.09969E+05 -3.28609E+04  2.11431E+03 -4.99662E+04  5.45890E+04  1.02118E+03
  3.57584E+04  5.13211E+04 -1.71191E+04  7.50847E+04 -6.17859E+04  6.32774E+04 -8.24567E+04  3.12045E+04
 -8.01033E+04 -1.07412E+04 -5.67208E+04 -5.06343E+04 -1.44374E+04 -6.86754E+04  2.70496E+04 -4.50605E+04
  3.81420E+04  4.40880E+03  1.61186E+04  4.65860E+04 -3.46108E+04  4.61003E+04 -6.51445E+04  5.33574E+01
 -5.19470E+04 -5.64065E+04 -5.26334E+03 -7.61575E+04  3.28844E+04 -5.38012E+04  4.76866E+04 -1.57430E+04
  4.13083E+04  1.03793E+04  2.99480E+04  2.45773E+04  1.53863E+04  2.80293E+04 -5.83326E+03  2.72459E+04
 -2.10284E+04  1.33867E+04 -1.97588E+04 -3.62888E+03  3.84784E+03 -7.35261E+03  2.06202E+04  1.11156E+04
  7.01941E+03  3.32303E+04 -3.08990E+04  3.36976E+04 -6.14222E+04  2.21423E+03 -5.55090E+04 -4.14506E+04
 -1.30081E+04 -6.05820E+04  3.79959E+04 -4.43356E+04  5.56883E+04 -1.95863E+03  3.30218E+04  3.05117E+04
 -5.97327E+03  3.29993E+04 -2.84946E+04  1.30848E+04 -2.70030E+04 -6.35595E+03 -1.50187E+04 -9.24288E+03
 -7.97067E+03 -1.13399E+04 -1.53081E+03 -1.66369E+04  6.78497E+03 -2.26734E+04  1.53172E+04 -1.42500E+04
  1.22216E+04  4.50033E+03 -5.44811E+03  1.25568E+04 -1.97417E+04 -2.62806E+03 -8.49700E+03 -3.04397E+04
  2.14661E+04 -3.99338E+04  4.52594E+04 -1.73633E+04  4.16764E+04  1.77115E+04  1.40459E+04  4.13310E+04
 -1.55854E+04  3.04173E+04 -2.36694E+04  1.52476E+03 -8.36818E+03 -2.62657E+04  2.07506E+04 -3.07229E+04
  3.88552E+04 -8.08619E+03  3.23798E+04  2.30934E+04  1.57609E+04  4.30619E+04 -7.32618E+03  4.67351E+04
 -2.84925E+04  3.03223E+04 -3.69078E+04  8.01934E+03 -3.77991E+04 -1.50503E+04 -2.17751E+04 -3.39770E+04
  6.07258E+03 -3.43972E+04  2.94164E+04 -1.27260E+04  2.75565E+04  1.12460E+04  2.74418E+03  1.72233E+04
 -1.29049E+04  7.08730E+03 -9.65991E+03 -7.90974E+03  6.00749E+03 -9.18826E+03  1.66646E+04  6.57490E+03
  1.15010E+04  2.17888E+04 -7.03142E+03  2.33526E+04 -2.13865E+04  9.66009E+03 -2.52420E+04 -6.38128E+03
 -1.66259E+04 -1.59671E+04 -4.47572E+03 -1.52203E+04  3.85971E+03 -1.31445E+04  1.20152E+04 -1.45801E+04
  2.10247E+04 -1.11824E+04  2.70309E+04  2.91838E+02  2.25358E+04  1.60815E+04  4.72102E+03  3.18351E+04
 -1.70579E+04  2.68678E+04 -2.57355E+04  8.77962E+03 -1.99826E+04 -1.16199E+04 -4.30864E+03 -1.44079E+04
  3.10757E+03 -4.26602E+03 -2.82564E+03  4.56324E+03 -1.21559E+04  4.32330E+03 -1.32784E+04 -5.47032E+03
 -8.66457E+03 -1.45340E+04  4.61228E+03 -1.84962E+04  1.27205E+04 -1.43163E+04  1.45890E+04 -1.21183E+03
  9.30339E+03  1.09258E+04 -8.23545E+02  1.49926E+04 -1.05644E+04  8.87793E+03 -1.51464E+04 -2.69882E+03
 -1.16921E+04 -1.33102E+04 -1.84593E+03 -1.88411E+04  9.77217E+03 -1.46057E+04  1.66429E+04 -7.26234E+03
  1.38219E+04  6.07872E+02  1.04423E+04  4.20669E+03  3.97081E+03  1.23080E+02  7.24929E+03 -1.07152E+03
  1.40086E+04  2.11462E+03  1.39146E+04  1.36601E+04  8.62666E+03  2.43469E+04 -3.26357E+03  2.60033E+04
 -1.65614E+04  1.91373E+04 -2.42487E+04  9.57471E+03 -2.48424E+04 -1.43448E+03 -2.01637E+04 -1.45614E+04
 -9.21539E+03 -2.07298E+04  6.95441E+03 -1.89044E+04  1.58420E+04 -1.06575E+04  1.49022E+04  3.25410E+03
  5.67168E+03  1.20390E+04 -6.16767E+03  9.81288E+03 -1.37915E+04  3.60755E+03 -9.77085E+03 -7.94944E+03
 -1.69102E+02 -1.20552E+04  4.79132E+03 -9.55027E+03  7.72097E+03 -1.61454E+03  5.49790E+02  4.89266E+03
 -5.16441E+03  9.69815E+02 -3.98118E+03 -4.27111E+03  1.14517E+03 -1.02722E+04  8.21059E+03 -9.81554E+03
  1.19110E+04 -4.05825E+03  1.07165E+04  2.69333E+03  9.49402E+03  7.98187E+03  4.59704E+03  1.30770E+04
 -9.62197E+02  1.62106E+04 -9.27787E+03  1.00855E+04 -1.10300E+04  3.40728E+03 -7.82543E+03 -1.39146E+03
 -3.61325E+03 -2.06131E+03 -6.11917E+02  1.48262E+03 -2.69332E+03  2.71705E+03 -2.63331E+03  2.99714E+03
 -8.46309E+03 -7.01822E+02 -8.09464E+03 -6.92883E+03 -3.21406E+03 -1.00889E+04  3.66223E+03 -7.92876E+03
  6.74708E+03 -3.64981E+03  5.48580E+03  1.66017E+03  7.68107E+02  3.24865E+03 -3.04947E+03 -7.63051E+01
 -3.32302E+03 -6.10003E+03 -2.10106E+03 -6.32159E+03  4.20501E+03 -7.78235E+03  8.80298E+03 -3.64838E+03
  1.01126E+04  3.46517E+02  6.49091E+03  6.19798E+03  2.69391E+03  7.65503E+03 -4.67582E+03  7.97657E+03
 -6.89073E+03  3.15234E+03 -3.05649E+03 -1.09218E+03  1.01690E+03 -8.66676E+02  4.37642E+03 -6.93098E+01
  3.12825E+03  3.68009E+03  1.06220E+03  5.90293E+03 -3.40275E+03  5.94694E+03 -7.52319E+03  2.41046E+03
 -4.95711E+03 -3.02964E+03  1.68227E+02 -7.47570E+03  3.19710E+03 -2.82078E+03  3.49493E+03  7.35805E+02
  1.09872E+03  2.86356E+03 -3.13891E+03  5.28217E+03 -4.03075E+03  3.15168E+03 -2.44999E+03 -8.61808E+02
 -2.53176E+03 -5.20434E+03  9.41230E+02 -6.47948E+03  4.84283E+03 -2.85320E+03  5.28742E+03  4.61121E+02
  5.45891E+03  5.10233E+03 -2.91558E+02  6.22712E+03 -4.78028E+03  4.53388E+03 -3.89338E+03  3.72185E+01
 -6.08275E+03 -4.94042E+03 -1.14151E+03 -4.45289E+03  1.84604E+03 -3.69012E+03  3.12660E+03 -2.12432E+03
  3.16409E+03  4.38050E+02  3.44275E+02  6.85095E+02  2.96526E+02 -1.44592E+03  3.40915E+02 -5.53466E+02
  3.49770E+03 -1.58209E+02  5.09485E+03 -2.61568E+01  5.15147E+03  2.44237E+03  4.00576E+03  6.18272E+03
 -1.21000E+03  6.96626E+03 -7.82815E+03  5.95882E+03 -8.53832E+03  1.88375E+03 -7.68748E+03 -2.76647E+03
 -2.85676E+03 -5.75593E+03 -6.31190E+02 -4.73733E+03  2.28481E+03 -1.49227E+03  2.50036E+03 -1.69847E+03
  1.35391E+03 -1.26823E+03  1.64838E+03 -9.53162E+02  2.52651E+03 -1.50052E+03  3.06700E+03  7.19445E+00
  3.34972E+03  2.09341E+03  8.51211E+02  3.66866E+03 -1.53149E+03  2.61610E+03 -4.19193E+03  2.52501E+03
 -5.45551E+03 -1.14689E+03 -1.27210E+03 -3.10171E+03  1.24698E+03 -4.87419E+03  3.40354E+03 -5.14522E+03
  4.41044E+03 -2.59981E+03  5.08687E+03 -8.93098E+01  5.09258E+03  4.34306E+03  1.28689E+01  5.18029E+03
 -3.06156E+03  5.67950E+03 -2.65833E+03  2.63860E+03 -2.02361E+03 -1.91977E+03  3.73393E+02 -4.54348E+02
  1.03269E+03  1.05433E+03 -3.95732E+02  1.38135E+03 -1.67279E+03  4.04351E+02 -3.75745E+03  1.50137E+02
 -4.79204E+02 -3.74689E+03  1.43449E+03 -4.74268E+03  1.79968E+03 -3.40485E+03  2.10373E+03 -1.33349E+01
  3.51486E+03  2.28804E+03  1.13264E+03  2.25312E+03 -3.11200E+02  4.55056E+03 -1.03094E+03  8.15846E+02
 -3.11894E+03 -7.53039E+02 -3.57675E+03 -2.31889E+03  9.14797E+02 -2.56191E+03  1.26946E+03 -1.28808E+03
  2.12088E+03 -1.16526E+03  9.53626E+02  8.31937E+02  5.49638E+02  1.89255E+03  3.35539E+02 -3.12732E+02
  1.84476E+03 -7.09463E+02  1.51112E+03  4.38983E+01  4.51378E+02  1.93419E+03  1.72839E+03  1.96396E+03
 -1.22686E+03  2.08924E+03 -2.56534E+03  2.84588E+03 -1.37396E+03  1.62623E+02 -3.25548E+03  1.70188E+02
 -6.13069E+01 -2.74429E+03 -1.19798E+02 -3.27327E+03  4.57191E+02 -1.71769E+03  2.23975E+03 -8.96679E+02
  1.69894E+03  1.70223E+03  9.72574E+02  2.02520E+03 -1.12789E+03  1.27134E+03  1.19778E+01  2.30601E+02
 -7.52250E+02 -6.32786E+02  6.82743E+02 -8.14889E+02  1.46105E+03 -4.11196E+02  1.41406E+03  6.59128E+01
  4.32420E+02 -1.00986E+02  2.87990E+02 -8.13672E+02 -3.56990E+02  6.09344E+02  1.59567E+03  2.93801E+02
 -9.56773E+02  6.45200E+01  2.06356E+03 -7.95121E+01  8.43454E+02  2.62979E+03  6.28980E+02  2.90173E+03
 -1.59994E+03  1.05146E+03 -1.06309E+03  2.78716E+02 -2.42129E+03 -4.46633E+02  6.03990E+02 -5.90115E+02
  1.03506E+01 -1.49276E+03  1.46846E+02 -7.53610E+02  5.56049E+02  1.25421E+03 -3.67380E+02  8.61655E+02
 -1.36006E+03  1.21920E+03  2.71582E+02 -1.26686E+03 -1.06005E+03 -2.41021E+03  8.28192E+01 -1.11718E+03
  8.98524E+02  3.34440E+02 -5.98378E+02 -6.50987E+02  1.35845E+03 -3.44343E+02  1.10995E+03 -8.08188E+02
  3.95149E+02 -7.25202E+02 -1.34358E+03  4.71108E+01  9.93636E+01 -1.58346E+03  1.63254E+03 -1.26362E+03
  1.38900E+03  3.58234E+02  3.24221E+03  2.03877E+00  1.81626E+03  2.50936E+03  9.42118E+01  1.02069E+03
  1.73124E+02 -8.57237E+02 -6.27360E+02 -1.86526E+02  2.75819E+02 -2.17918E+03  1.47610E+03 -6.09232E+02
  1.25075E+03 -1.53584E+03  1.09778E+02  3.77568E+02  3.78195E+02  1.00026E+03 -2.43557E+02  1.02281E+03
 -8.33721E+02  8.29990E+02 -3.26075E+02  4.70805E+01  5.24953E+00 -2.11319E+02 -8.49016E+01  1.39978E+03
 -1.29103E+02  1.24420E+03 -9.15472E+02  1.29631E+03 -5.02341E+02  4.82517E+02 -1.74132E+03  4.56816E+02
 -1.00192E+03 -1.79570E+03 -7.79930E+02 -2.29984E+03  2.82189E+02 -1.25048E+03  2.29527E+03 -1.00764E+03
  2.69305E+03 -9.25674E+02  1.60863E+03  1.64149E+03 -6.61431E+00  1.56642E+03 -3.95658E+02  8.93888E+02
 -3.34688E+02  8.93254E+02 -9.94567E+02  1.96999E+02 -1.69216E+03 -4.64414E+02 -4.42651E+02  2.75491E+02
 -7.57965E+02 -2.14074E+02 -1.49998E+03  9.21522E+02  8.08009E+02 -1.28902E+03 -1.43499E+01 -5.80562E+02
  1.80670E+03 -6.66838E+02  5.30336E+02  5.64509E+02  5.30628E+02  1.35593E+03 -5.25761E+02  1.14806E+03
 -3.49694E+02  1.92213E+03 -7.89827E+02  6.05106E+02 -5.18441E+02  3.35718E+02 -1.29520E+03 -2.00405E+03
 -9.08832E+02 -4.84225E+02  4.38302E+02 -1.98128E+03  6.55045E+02  1.26209E+03  5.56864E+02 -3.83627E+02
  1.89506E+02  7.61862E+02  6.43554E+02 -7.65900E+02 -1.83394E+02  5.75920E+02  1.86545E+02 -1.58359E+02
  4.91699E+02  8.91677E+02  2.56320E+02  4.94597E+01 -4.74038E+02  5.93850E+02  8.61666E+02 -3.80503E+02
 -1.27673E+01  2.24192E+02  5.84199E+02  2.00235E+02 -3.23069E+02 -5.37548E+02  3.48311E+02 -7.58202E+02
  6.23449E+02 -6.60371E+02  5.18391E+02  6.53970E+01  9.94955E+00 -6.27597E+02 -1.15259E+02 -1.48906E+02
  2.12480E+01  1.25696E+03 -3.61238E+02 -1.58069E+02 -2.71728E+02  8.53243E+01 -2.10435E+03 -7.25470E+01
 -5.27061E+02 -8.72210E+01  2.34486E+02  5.22174E+02 -1.59319E+03 -3.03439E+02  7.35754E+02 -1.03478E+03
 -5.93934E+02  4.01889E+02  5.11278E+02 -7.82681E+02  1.41577E+03 -1.20124E+03  8.21037E+02  1.29003E+02
  9.77220E+02  3.56218E+01 -1.40215E+03  7.09591E+02 -3.58482E+02  8.63064E+02 -1.18544E+03  9.93802E+02
