 $NMID ID='MM_0lb_SNR200_19hz_g40_16.RAW', FMTDAT='(8E13.5)'
 TRAMP=1., VOLUME=1. $END
  3.09275E+05 -1.92693E+02  3.38134E+05  2.49930E+05  8.54230E+04  3.37322E+05 -1.33062E+05  2.50440E+05
 -1.89730E+05  8.22638E+04 -1.11452E+05 -3.17172E+04  2.56951E+03 -5.03503E+04  5.30338E+04 -1.46130E+02
  3.49843E+04  5.25760E+04 -1.68517E+04  7.40544E+04 -5.94793E+04  6.24179E+04 -8.28688E+04  3.14243E+04
 -7.81920E+04 -1.04904E+04 -5.61218E+04 -4.99336E+04 -1.48272E+04 -6.83906E+04  2.59239E+04 -4.49817E+04
  3.90897E+04  3.34400E+03  1.54811E+04  4.67008E+04 -3.38100E+04  4.58108E+04 -6.53181E+04 -8.91102E+02
 -5.02453E+04 -5.54373E+04 -5.40526E+03 -7.48435E+04  3.21960E+04 -5.18913E+04  4.61580E+04 -1.47845E+04
  4.10934E+04  1.07996E+04  3.05982E+04  2.43036E+04  1.51243E+04  2.84461E+04 -4.81347E+03  2.69606E+04
 -2.15408E+04  1.35042E+04 -1.90469E+04 -3.26211E+03  3.11913E+03 -7.28361E+03  2.07727E+04  1.07457E+04
  8.09150E+03  3.21044E+04 -3.00446E+04  3.38230E+04 -6.09495E+04  1.87036E+03 -5.41148E+04 -4.16603E+04
 -1.30944E+04 -6.05414E+04  3.78444E+04 -4.30095E+04  5.45931E+04 -1.11533E+03  3.21874E+04  2.86018E+04
 -7.52031E+03  3.34220E+04 -2.80797E+04  1.29786E+04 -2.64181E+04 -5.92895E+03 -1.43835E+04 -9.66530E+03
 -7.46685E+03 -1.18269E+04 -1.05872E+03 -1.63077E+04  6.07543E+03 -2.18723E+04  1.45876E+04 -1.43191E+04
  1.27702E+04  4.08341E+03 -6.52625E+03  1.28076E+04 -1.86878E+04 -2.30965E+03 -7.12063E+03 -2.84231E+04
  1.96394E+04 -4.07534E+04  4.33992E+04 -1.85204E+04  4.02598E+04  1.77706E+04  1.35176E+04  4.06022E+04
 -1.42152E+04  2.94115E+04 -2.24876E+04  8.77916E+01 -8.28776E+03 -2.60431E+04  2.00426E+04 -3.01024E+04
  3.79760E+04 -7.23692E+03  3.05629E+04  2.20757E+04  1.44594E+04  4.20540E+04 -8.10100E+03  4.30815E+04
 -2.80302E+04  2.88004E+04 -3.52706E+04  8.86713E+03 -3.71432E+04 -1.43143E+04 -2.05900E+04 -3.36332E+04
  7.02322E+03 -3.29164E+04  2.87381E+04 -1.20537E+04  2.67653E+04  1.08701E+04  1.86315E+03  1.76495E+04
 -1.44693E+04  6.74296E+03 -9.43475E+03 -7.62793E+03  6.40747E+03 -1.03431E+04  1.73579E+04  6.40885E+03
  1.24936E+04  2.27389E+04 -6.75391E+03  2.27270E+04 -2.19991E+04  9.42680E+03 -2.44688E+04 -6.43713E+03
 -1.54474E+04 -1.76995E+04 -3.98488E+03 -1.45172E+04  2.50858E+03 -1.28172E+04  1.07505E+04 -1.33887E+04
  1.97772E+04 -1.15469E+04  2.71980E+04 -1.07140E+02  1.97806E+04  1.54550E+04  3.22025E+03  3.08053E+04
 -1.41379E+04  2.63471E+04 -2.53143E+04  9.07801E+03 -1.92917E+04 -1.05842E+04 -4.45113E+03 -1.34924E+04
  3.18331E+03 -4.84954E+03 -2.93369E+03  5.81063E+03 -1.30179E+04  5.80535E+03 -1.32762E+04 -4.34046E+03
 -7.72858E+03 -1.45373E+04  3.83928E+03 -1.79940E+04  1.06885E+04 -1.31644E+04  1.44337E+04 -1.73799E+03
  7.31183E+03  1.05278E+04 -2.12622E+03  1.48130E+04 -9.71638E+03  8.62832E+03 -1.55804E+04 -2.61012E+03
 -1.05776E+04 -1.25725E+04 -1.73643E+03 -1.81455E+04  7.48475E+03 -1.45671E+04  1.48551E+04 -6.42368E+03
  1.51306E+04  1.56456E+03  1.00040E+04  3.56155E+03  4.61847E+03  1.14198E+02  7.19876E+03 -1.76677E+03
  1.30396E+04  3.29735E+03  1.30424E+04  1.23341E+04  7.81311E+03  2.31846E+04 -3.73191E+03  2.54367E+04
 -1.50491E+04  1.79930E+04 -2.21402E+04  9.25074E+03 -2.27749E+04 -2.35979E+03 -1.91197E+04 -1.32032E+04
 -9.35650E+03 -1.99137E+04  4.45691E+03 -1.78745E+04  1.49805E+04 -1.06859E+04  1.51468E+04  2.54014E+03
  6.82324E+03  1.07860E+04 -6.23431E+03  9.40575E+03 -1.27371E+04  2.92062E+03 -9.29769E+03 -7.63861E+03
  4.12609E+02 -1.18854E+04  6.30536E+03 -8.38446E+03  8.28652E+03 -8.66590E+02  1.50101E+03  3.74386E+03
 -5.01124E+03  1.55093E+03 -3.87800E+03 -3.76424E+03 -7.09554E+02 -8.87728E+03  8.26817E+03 -1.07584E+04
  1.14575E+04 -3.65013E+03  1.13227E+04  3.01601E+03  9.90448E+03  8.96407E+03  4.96710E+03  1.16303E+04
 -1.99489E+03  1.44827E+04 -7.87556E+03  1.03501E+04 -1.02591E+04  2.76170E+03 -8.23584E+03 -1.24723E+03
 -4.79864E+03 -3.22180E+03  7.85581E+01  2.09262E+03 -1.52339E+03  1.72426E+03 -3.53439E+03  4.51370E+03
 -7.84307E+03 -5.67116E+02 -8.29136E+03 -6.76985E+03 -3.69365E+03 -1.00162E+04  3.57765E+03 -7.80044E+03
  5.74048E+03 -4.17409E+03  5.84103E+03  1.89611E+03  1.49805E+03  2.96275E+03 -3.27083E+03 -3.72487E+02
 -3.21888E+03 -4.64871E+03 -1.40660E+03 -6.50443E+03  2.19129E+03 -7.29750E+03  9.84909E+03 -4.03745E+03
  1.09438E+04  4.80353E+02  8.09253E+03  6.23378E+03  1.53765E+03  8.51352E+03 -5.67693E+03  7.52636E+03
 -6.82344E+03  2.58082E+03 -3.54722E+03 -1.37240E+03  1.58861E+03 -2.63013E+03  4.95149E+03 -1.12801E+03
  3.49565E+03  4.05851E+03  1.06999E+03  5.62981E+03 -4.06033E+03  6.13280E+03 -6.18382E+03  1.83483E+03
 -4.15869E+03 -2.86875E+03  1.05575E+03 -7.11642E+03  3.55704E+03 -2.89344E+03  2.55468E+03  2.96485E+02
  5.00187E+02  3.11633E+03 -4.20780E+03  4.23069E+03 -5.21771E+03  2.78088E+03 -4.11659E+03 -4.80530E+02
 -3.54560E+03 -5.24543E+03  5.73680E+01 -6.05871E+03  4.77219E+03 -4.94731E+03  6.13038E+03  1.20356E+03
  3.25354E+03  4.85529E+03  3.17601E+02  6.71978E+03 -5.08398E+03  4.25788E+03 -4.42870E+03  1.21266E+01
 -5.49098E+03 -5.52609E+03 -1.54421E+03 -5.25786E+03  2.03014E+03 -5.58218E+03  3.02275E+03 -2.99483E+03
  2.48397E+03  9.65081E+02  1.88595E+03  9.81029E+02  1.16262E+03 -1.57431E+02  1.63640E+01 -9.40532E+02
  4.13509E+03 -4.93030E+02  4.91927E+03  5.11182E+02  5.51113E+03  3.04284E+03  4.19704E+03  6.63901E+03
 -1.42703E+03  8.48318E+03 -7.49242E+03  6.43099E+03 -8.49996E+03  1.23789E+03 -7.86402E+03 -2.09086E+03
 -3.63574E+03 -4.89137E+03 -3.68885E+02 -4.08306E+03  2.51758E+03 -1.71972E+03  1.10833E+03 -2.45058E+03
  1.03290E+03 -1.53233E+03  2.21140E+03 -2.16394E+03  3.60198E+03 -1.77459E+03  3.41497E+03  1.31048E+03
  4.72744E+03  1.76541E+03  9.65314E+02  2.57069E+03 -1.99282E+03  2.84926E+03 -3.66334E+03  1.67090E+03
 -4.54927E+03 -1.13026E+03 -1.61868E+03 -2.79027E+03  6.97452E+02 -4.40380E+03  3.03797E+03 -5.15927E+03
  4.97846E+03 -3.71404E+03  5.67970E+03  6.87194E+02  4.11560E+03  3.98236E+03  8.50712E+02  5.47614E+03
 -2.33252E+03  5.12891E+03 -2.23806E+03  7.00993E+02 -8.27422E+02 -5.58332E+02  1.30516E+02 -1.19106E+03
 -9.80274E+02  1.27847E+03 -1.99971E+03  2.06873E+03 -2.48841E+03  5.92809E+02 -3.67058E+03 -1.34373E+03
 -1.19320E+03 -4.36572E+03  1.25742E+03 -4.45668E+03  1.80665E+03 -3.88158E+03  2.30607E+03  1.37348E+02
  3.75127E+03  2.61082E+03  1.52474E+03  2.97257E+03 -2.34426E+02  3.72400E+03 -2.47291E+03  2.90197E+03
 -3.89720E+03  1.38898E+03 -2.85810E+03 -2.26322E+03 -9.29684E+02 -3.05656E+03  9.55887E+02 -3.48412E+03
  1.93438E+03 -1.34320E+03  4.30016E+02 -6.08916E+02 -3.54426E+01  1.70109E+03  1.46550E+03  1.45897E+03
  1.23911E+03  6.17464E+02  1.19460E+03  1.55853E+03  3.87556E+02  2.63685E+03  9.43698E+02  2.77216E+03
 -2.13681E+03  2.59024E+03 -2.76138E+03  3.50153E+03 -2.80705E+03  1.34855E+03 -2.84361E+03  7.56663E+01
 -2.25225E+03 -3.97260E+03  1.65700E+03 -3.85128E+03  1.93160E+03 -9.00576E+02  2.29433E+03 -1.05091E+03
  2.01610E+03  1.44693E+03  5.13881E+02  1.58208E+03 -8.00161E+02  1.47393E+03 -8.62711E+02 -3.78671E+02
 -5.00212E+02 -1.30186E+03  1.49393E+03 -2.21248E+03  1.66555E+03 -1.85423E+03  2.50912E+03  6.97381E+02
  2.43379E+02  5.49453E+01  5.49048E+02  2.99746E+02 -1.09600E+03  9.45256E+02  1.22762E+03 -4.74419E+02
  1.59743E+02 -7.27135E+02  1.16648E+03  6.68686E+02  5.39558E+02  8.09581E+02  9.80946E+01  2.06678E+03
 -1.33717E+03  7.95355E+02 -1.11278E+03  2.78773E+02 -1.28726E+03 -5.20942E+02 -8.81977E+02 -1.12398E+03
  7.66696E+02 -2.12523E+03  1.26795E+03 -1.63345E+01  1.08823E+03  1.65954E+03 -1.48642E+03  1.50512E+03
 -1.03812E+03  9.42581E+01 -1.08909E+03 -1.71271E+03 -1.30865E+03 -1.37711E+03  4.64171E+02 -1.73408E+03
  4.45369E+02 -3.02718E+02  1.23150E+03  6.65828E+02  8.54351E+02 -4.05179E+02 -6.53185E+01  1.08662E+03
  3.14409E+02  9.74135E+02 -1.84265E+03 -4.79492E+02  5.00924E+02 -1.36531E+03  2.25338E+03 -1.70168E+00
  1.08554E+03  8.29980E+02  3.29669E+03  6.91549E+00  6.69998E+02  2.13492E+03  3.97043E+02  1.67295E+03
 -2.21457E+03 -4.97540E+02 -1.31151E+03 -4.86638E+02 -1.28040E+02 -1.15636E+03  2.09144E+02 -2.93570E+02
  1.86028E+03 -1.16458E+03  1.17745E+03  8.29012E+02 -2.55015E+02  1.87904E+03  1.13386E+02  1.23647E+03
 -1.18919E+03  5.66369E+02  1.48858E+02  8.25581E+02 -3.26350E+02  1.57225E+03 -3.29056E+02  6.22146E+02
 -9.19735E+02  1.81990E+03 -2.02063E+03  3.55904E+02 -7.03764E+02 -1.15499E+02 -1.96288E+03  2.83728E+01
  1.57876E+02 -2.43974E+03 -7.73124E+01 -2.89486E+03  1.12563E+03 -1.30669E+03  2.24535E+03 -1.43765E+03
  2.12723E+03 -4.42859E+02  1.96466E+03  1.42644E+03 -7.23147E+02  2.45222E+03 -1.75786E+03  5.66714E+02
 -6.72219E+02  9.95295E+02 -1.31016E+03  3.61478E+02 -2.89448E+02 -3.89289E+01  1.18147E+02  5.77023E+01
 -1.09514E+03  4.12030E+02 -1.29576E+03  6.29867E+01  6.97609E+02  6.50758E+02 -1.29304E+02 -1.32170E+03
  6.22446E+02 -7.12436E+02  1.34329E+03  1.03402E+02  1.17387E+03  1.08934E+03 -6.57540E+02  1.84297E+03
 -8.31801E+02  1.56909E+03 -1.25035E+03  1.58950E+03 -1.22833E+03  1.34883E+02 -9.21582E+02 -1.18479E+03
 -8.04418E+02 -1.04965E+03  2.13702E+02 -7.79983E+02 -2.42537E+02 -6.67080E+02  1.10241E+03 -6.13765E+01
  6.51217E+02  1.23073E+03  2.81340E+02 -5.12227E+02 -1.36684E+03 -7.95893E+02  3.51704E+02 -1.76316E+02
  4.80450E+02 -7.95779E+01  1.40799E+03  4.93355E+02  1.81882E+02  2.84638E+01  9.79620E+02  6.12338E+02
 -1.12904E+03  1.55011E+02 -4.57618E+02 -8.60387E+02 -1.29184E+03 -2.62398E+02  5.77980E+02 -1.46947E+03
  9.90747E+02 -2.12228E+02  8.52369E+02 -1.82240E+02  1.14362E+03 -2.09043E+02  4.14760E+02  3.29962E+02
  3.56137E+02  2.46101E+02  2.36122E+01  8.38404E+02 -2.14049E+01  1.25921E+03 -5.40621E+02  2.87202E+01
 -6.26844E+02  8.46398E+01  4.83359E+02 -8.23334E+02  5.14893E+01 -7.24583E+02 -1.09345E+03 -9.64914E+02
 -1.02667E+03  1.04095E+02 -1.24166E+03 -8.56927E+02  2.79398E+02 -2.43185E+03  1.34234E+03  1.13731E+02
  1.02126E+03  2.74030E+02  1.22986E+02  9.09449E+02  4.85151E+01  8.27400E+02 -1.14032E+02  5.02294E+02
