 $NMID ID='MM_0lb_SNR200_12hz_g50_31.RAW', FMTDAT='(8E13.5)'
 TRAMP=1., VOLUME=1. $END
  3.10563E+05  6.54439E+02  3.37386E+05  2.50731E+05  8.44233E+04  3.39090E+05 -1.33572E+05  2.52610E+05
 -1.91348E+05  8.31819E+04 -1.13071E+05 -3.25702E+04  8.90098E+02 -4.94280E+04  5.54843E+04  2.59491E+02
  3.52026E+04  5.16348E+04 -1.81286E+04  7.58396E+04 -6.05837E+04  6.38142E+04 -8.52340E+04  3.35451E+04
 -8.07672E+04 -1.21323E+04 -5.73328E+04 -5.25214E+04 -1.52595E+04 -7.13801E+04  2.76104E+04 -4.67349E+04
  3.96502E+04  4.52579E+03  1.43977E+04  4.72931E+04 -3.64601E+04  4.68193E+04 -6.76680E+04  4.64353E+02
 -5.27534E+04 -5.67596E+04 -5.65606E+03 -7.77625E+04  3.35833E+04 -5.64002E+04  4.85648E+04 -1.75535E+04
  4.46461E+04  1.08483E+04  3.21082E+04  2.63086E+04  1.60835E+04  2.95650E+04 -5.42210E+03  2.77936E+04
 -2.21041E+04  1.21991E+04 -1.88523E+04 -4.53100E+03  6.25370E+03 -8.05319E+03  2.28466E+04  1.28626E+04
  7.31085E+03  3.70554E+04 -3.18696E+04  3.65608E+04 -6.44798E+04  1.22186E+03 -5.85020E+04 -4.40868E+04
 -1.19213E+04 -6.46528E+04  4.13648E+04 -4.53522E+04  6.00784E+04 -1.96808E+03  3.60147E+04  3.28903E+04
 -5.20449E+03  3.81206E+04 -3.02201E+04  1.76451E+04 -3.20362E+04 -4.21032E+03 -1.83164E+04 -1.15775E+04
 -8.62480E+03 -1.38061E+04  9.11197E+02 -1.79759E+04  6.47498E+03 -2.44021E+04  1.67122E+04 -1.28449E+04
  1.10683E+04  7.16317E+03 -8.43936E+03  1.23045E+04 -2.26678E+04 -5.22863E+03 -1.01346E+04 -3.59367E+04
  2.37457E+04 -4.54327E+04  4.87524E+04 -2.09190E+04  4.60921E+04  1.88605E+04  1.60998E+04  4.48594E+04
 -1.53686E+04  3.53037E+04 -2.51901E+04  2.86582E+03 -1.04418E+04 -2.90411E+04  2.11713E+04 -3.34004E+04
  4.30280E+04 -8.89049E+03  3.70920E+04  2.46305E+04  1.92956E+04  4.89043E+04 -8.57689E+03  5.20210E+04
 -3.25149E+04  3.57237E+04 -4.45425E+04  9.60176E+03 -4.45103E+04 -1.74698E+04 -2.44312E+04 -3.99347E+04
  7.77241E+03 -3.99812E+04  3.15944E+04 -1.53920E+04  3.05583E+04  9.75051E+03  3.57362E+03  1.98412E+04
 -1.22972E+04  7.67711E+03 -1.06014E+04 -7.84948E+03  6.86604E+03 -1.10639E+04  1.78786E+04  7.03481E+03
  1.31086E+04  2.21123E+04 -5.59268E+03  2.50953E+04 -2.25969E+04  1.13543E+04 -2.80102E+04 -3.83674E+03
 -2.28910E+04 -1.84205E+04 -1.03717E+04 -2.16869E+04  3.96431E+03 -2.14737E+04  1.70881E+04 -2.12604E+04
  2.70250E+04 -1.46528E+04  3.54800E+04  3.11247E+03  2.43337E+04  2.14795E+04  4.50049E+03  3.81628E+04
 -1.84763E+04  3.25175E+04 -2.81747E+04  1.07767E+04 -2.23354E+04 -1.03844E+04 -4.43710E+03 -1.15250E+04
  1.08388E+02 -2.83394E+03 -6.00722E+03  6.81122E+03 -1.77475E+04  5.61743E+03 -1.75149E+04 -7.23759E+03
 -1.12532E+04 -2.04935E+04  6.45654E+03 -2.40951E+04  1.69858E+04 -1.87482E+04  1.95954E+04 -3.34203E+03
  1.32397E+04  1.34741E+04 -2.20052E+03  2.09488E+04 -1.40909E+04  1.14350E+04 -2.07844E+04 -4.12094E+03
 -1.53257E+04 -1.86030E+04 -2.75374E+03 -2.55733E+04  1.06797E+04 -2.09113E+04  2.08947E+04 -1.08163E+04
  2.05695E+04 -2.09899E+02  1.41410E+04  5.04615E+03  5.95583E+03  6.17202E+02  1.07492E+04 -1.53820E+03
  1.97001E+04  2.38745E+03  2.20272E+04  1.69422E+04  1.32051E+04  3.21688E+04 -2.88187E+03  3.89863E+04
 -2.28588E+04  3.14501E+04 -3.45027E+04  1.41944E+04 -3.82645E+04 -3.73015E+03 -3.14205E+04 -2.25438E+04
 -1.40601E+04 -2.98596E+04  1.18819E+04 -2.87811E+04  2.43685E+04 -1.38018E+04  2.12133E+04  7.54631E+03
  7.29174E+03  1.64672E+04 -9.79607E+03  1.30744E+04 -1.68962E+04  3.61999E+03 -1.23032E+04 -9.79636E+03
 -5.72125E+02 -1.58196E+04  8.51269E+03 -1.31199E+04  1.06452E+04 -1.89725E+03  2.80914E+03  7.90248E+03
 -6.74202E+03  3.23649E+03 -7.50482E+03 -4.82429E+03 -1.64849E+03 -1.57249E+04  1.21335E+04 -1.61077E+04
  1.86675E+04 -8.39768E+03  2.18379E+04  3.24031E+03  1.97304E+04  1.29359E+04  7.74982E+03  2.39749E+04
 -3.71937E+03  2.59645E+04 -1.68465E+04  1.64609E+04 -1.85012E+04  3.27159E+03 -1.34835E+04 -3.50385E+03
 -5.46090E+03 -5.99372E+03 -5.66339E+02 -4.17148E+02 -3.06909E+03  2.93917E+03 -5.49301E+03  5.54777E+03
 -1.23856E+04 -1.07604E+03 -1.37396E+04 -9.64521E+03 -4.44485E+03 -1.63622E+04  5.23244E+03 -1.36303E+04
  9.85046E+03 -4.40234E+03  6.77311E+03  3.22391E+03 -8.70131E+02  5.53250E+03 -4.75052E+03 -4.18376E+02
 -6.72869E+03 -8.24150E+03 -1.80409E+03 -1.27625E+04  7.21569E+03 -1.39117E+04  1.62046E+04 -7.70975E+03
  1.99495E+04  1.67558E+03  1.29083E+04  1.10498E+04  2.71633E+03  1.53633E+04 -9.05188E+03  1.30772E+04
 -1.01168E+04  3.88117E+03 -3.32115E+03 -2.46823E+03  1.01617E+03 -2.57163E+03  6.02082E+03 -1.13496E+03
  5.88433E+03  6.73129E+03  7.24154E+02  9.43921E+03 -6.63817E+03  9.92227E+03 -1.26857E+04  2.83506E+03
 -8.97180E+03 -6.37300E+03 -3.67126E+02 -1.14990E+04  6.54039E+03 -5.38111E+03  7.02485E+03  2.27655E+03
  2.37076E+03  7.03456E+03 -7.37792E+03  9.13177E+03 -9.71311E+03  3.82373E+03 -9.29186E+03 -3.90813E+03
 -6.75178E+03 -1.26373E+04  2.86478E+03 -1.35599E+04  1.12179E+04 -9.24912E+03  1.14840E+04  1.79758E+03
  6.92012E+03  9.12282E+03 -1.02655E+03  1.25579E+04 -8.72357E+03  6.90948E+03 -1.04967E+04 -1.34510E+03
 -9.02739E+03 -9.01842E+03 -1.96680E+03 -8.28085E+03  3.56097E+03 -8.08315E+03  4.56690E+03 -3.76628E+03
  3.49828E+03 -5.48165E+02 -1.62932E+03  1.37768E+03 -1.72698E+02 -1.48204E+03 -3.62370E+02 -4.94317E+03
  9.01330E+03 -2.39350E+03  1.17243E+04  2.79104E+03  1.19812E+04  8.16938E+03  9.07948E+03  1.60480E+04
 -3.14431E+03  1.71555E+04 -1.41398E+04  1.34185E+04 -1.89959E+04  1.31214E+03 -1.52986E+04 -6.55830E+03
 -7.56370E+03 -1.30023E+04 -1.42781E+03 -1.14536E+04  4.70442E+03 -5.10802E+03  4.57796E+03 -4.33982E+03
  2.33988E+03 -2.99397E+03  4.11799E+03 -3.94836E+03  6.31517E+03 -2.37757E+03  5.55772E+03 -1.04369E+03
  8.90229E+03  2.14018E+03  3.35232E+03  7.73054E+03 -2.96693E+03  8.34750E+03 -9.49005E+03  5.66647E+03
 -1.10921E+04 -7.23122E+02 -5.74704E+03 -8.04987E+03 -3.70650E+02 -1.07053E+04  7.45419E+03 -1.07025E+04
  1.15476E+04 -6.42665E+03  1.36837E+04  2.23514E+03  1.03398E+04  1.16400E+04  2.51285E+03  1.31677E+04
 -4.75310E+03  1.03869E+04 -6.21156E+03  2.66627E+03 -4.24499E+03 -1.05150E+03 -4.48558E+03 -1.41378E+03
  7.12793E+02 -2.11213E+02 -2.09165E+03  4.68125E+03 -5.31707E+03  2.12463E+03 -6.79113E+03 -2.18596E+03
 -5.05263E+03 -7.87948E+03  2.77682E+02 -1.15214E+04  7.20276E+03 -1.04256E+04  9.28807E+03 -3.75099E+03
  1.00836E+04  4.28568E+03  4.72243E+03  8.61978E+03 -3.15765E+03  9.63027E+03 -8.05439E+03  7.61014E+03
 -1.01952E+04  4.36311E+02 -7.01269E+03 -6.21783E+03 -7.36217E+02 -8.82827E+03  5.51451E+03 -5.90113E+03
  7.48671E+03 -4.18997E+02  4.40670E+03  1.98940E+03  1.24438E+03  2.96471E+03  4.67250E+02  1.91253E+03
  2.44918E+03  3.41483E+03  2.26314E+03 -1.94820E+01  1.12400E+03  4.53414E+03  3.74776E+03  5.69392E+03
 -2.93286E+03  8.00372E+03 -5.68339E+03  8.94949E+03 -9.61809E+03  2.38533E+03 -1.16755E+04 -4.45768E+03
 -5.98791E+03 -9.73759E+03  1.83496E+03 -1.23988E+04  6.34417E+03 -8.16779E+03  9.66822E+03 -6.03454E+02
  5.39263E+03  2.43013E+03  7.67578E+02  5.73856E+03 -2.54806E+03  4.08958E+03 -4.25807E+03 -7.13383E+02
 -3.69562E+03 -3.84908E+03  2.39658E+03 -4.07640E+03  4.49889E+03 -1.13138E+03  4.38093E+03  5.55812E+02
  1.11990E+03  3.31113E+03  6.64373E+02  9.16937E+02 -1.39515E+03  1.80775E+03  8.72459E+02 -5.79739E+02
  9.79891E+02 -1.22939E+03  4.68067E+03  2.08572E+03  2.18164E+03  4.86700E+03  6.46067E+01  6.94513E+03
 -4.33420E+03  3.49315E+03 -6.82245E+03  1.58219E+03 -5.19690E+03 -2.68259E+03 -1.75479E+03 -3.63716E+03
 -4.81228E+02 -3.10463E+03  1.75546E+03 -2.42755E+03  1.90327E+03  3.13250E+03 -1.82514E+03  3.10335E+03
 -4.84183E+03  8.64790E+02 -4.17347E+03 -2.79092E+03 -2.69653E+03 -5.10559E+03  1.42826E+02 -5.03539E+03
  3.38141E+03 -3.03489E+03  4.11105E+03 -1.27109E+03  3.62185E+03  1.03291E+03  1.06682E+03  4.16281E+03
 -1.27161E+03  1.84689E+03 -2.75308E+03 -7.39298E+02  2.22453E+03 -5.14677E+03  3.77398E+03 -3.09216E+03
  7.22404E+03  1.08391E+03  5.88046E+03  3.08544E+03  3.64207E+03  5.46390E+03 -2.06691E+03  6.51784E+03
 -5.12148E+03  2.76659E+03 -4.71386E+03 -4.78495E+01 -2.77024E+03 -3.87839E+03  1.16238E+03 -4.20300E+03
  4.14046E+03 -2.62808E+03  4.01506E+03  1.02594E+03  1.36678E+03  4.14205E+03 -1.23948E+02  2.56533E+03
 -1.60659E+03  1.92648E+03 -1.55322E+03  1.01166E+03 -1.83436E+03  7.73913E+02 -1.63968E+03  1.67898E+03
 -1.88247E+03  1.71352E+03 -4.19270E+03  9.15101E+02 -6.44118E+03  4.31663E+02 -8.01756E+03 -2.87735E+03
 -3.41374E+03 -9.15044E+03  1.43445E+03 -8.95964E+03  5.64314E+03 -5.95187E+03  8.99600E+03 -3.86272E+03
  6.98239E+03  7.14417E+02  5.87464E+03  6.06040E+03  1.12230E+03  4.65240E+03 -3.11039E+03  4.42746E+03
 -3.35401E+03  1.37285E+03 -1.71507E+03 -4.16937E+02 -7.32489E+02 -1.53357E+01 -8.62256E+02  3.26930E+02
 -2.33842E+03  1.52968E+03 -1.17711E+03  5.03798E+02 -8.25088E+02 -2.41134E+03  3.36579E+02 -3.76167E+03
  2.87462E+03 -1.93794E+03  3.84834E+03  7.02181E+02  4.33031E+03  3.50776E+03  8.01702E+02  5.54875E+03
 -3.28245E+03  7.58113E+03 -6.57031E+03  3.50431E+03 -8.07275E+03 -4.81806E+02 -5.10044E+03 -4.95528E+03
 -1.52519E+03 -6.44969E+03  2.86203E+03 -5.44992E+03  3.75926E+03 -2.89478E+03  2.02649E+03  7.16218E+02
  2.32763E+03  1.95451E+03 -4.66345E+02 -5.00662E+01 -1.43493E+03 -3.98596E+02  1.44885E+03 -9.95169E+02
  1.54188E+03 -1.04050E+02  2.85932E+03  1.32237E+03  2.11877E+03  2.41828E+03  1.47201E+03  3.77297E+03
 -4.05267E+03  1.60571E+03 -2.67926E+03 -4.95144E+01 -3.65782E+03 -2.90601E+03  1.16881E+03 -5.36079E+03
  3.81820E+03 -3.90104E+03  4.11728E+03 -1.78961E+03  4.96427E+03 -1.78719E+02  2.61786E+03  3.40037E+03
  5.36567E+02  4.27068E+03 -1.07413E+03  1.85726E+03 -2.75368E+03  2.27330E+03 -1.38060E+03  7.79026E+02
 -1.26024E+03  9.47822E+01  3.46841E+02  1.35131E+02 -2.85345E+03  3.63273E+02 -3.33035E+03 -4.44264E+02
 -3.13279E+03 -1.29568E+03 -2.46133E+03 -4.08768E+03  2.04834E+03 -3.64088E+03  3.28875E+03 -3.24411E+02
  3.50319E+03  1.58254E+03  2.43044E+03  2.97192E+03 -1.68537E+03  4.86736E+03 -2.77831E+03  1.90624E+03
