 $NMID ID='MM_0lb_SNR200_7hz_g50_6.RAW', FMTDAT='(8E13.5)'
 TRAMP=1., VOLUME=1. $END
  3.09485E+05  4.94354E+02  3.38150E+05  2.49132E+05  8.49327E+04  3.39652E+05 -1.30553E+05  2.50180E+05
 -1.90960E+05  8.41068E+04 -1.13534E+05 -3.25001E+04  1.17901E+03 -5.10808E+04  5.32818E+04 -2.26944E+03
  3.70497E+04  5.16978E+04 -1.39267E+04  7.55358E+04 -6.03850E+04  6.49137E+04 -8.47254E+04  3.32082E+04
 -8.20959E+04 -1.20884E+04 -5.97220E+04 -5.23395E+04 -1.52212E+04 -7.26949E+04  3.07941E+04 -4.72917E+04
  4.05456E+04  3.71238E+03  1.71124E+04  4.90540E+04 -3.77231E+04  4.72683E+04 -6.77996E+04  1.50332E+03
 -5.68879E+04 -5.87400E+04 -8.97063E+03 -7.87466E+04  3.49976E+04 -5.71757E+04  5.03871E+04 -1.88420E+04
  4.68055E+04  1.27891E+04  3.32875E+04  2.56872E+04  1.67881E+04  3.04144E+04 -5.89892E+03  2.83741E+04
 -2.30446E+04  1.24159E+04 -1.78613E+04 -6.34042E+03  8.21209E+03 -5.69389E+03  2.31412E+04  1.48987E+04
  5.42136E+03  3.64105E+04 -3.34124E+04  3.91930E+04 -6.78006E+04  2.64552E+03 -5.77077E+04 -4.46440E+04
 -1.29040E+04 -6.73108E+04  4.29678E+04 -4.90030E+04  6.30200E+04 -6.87311E+02  3.91354E+04  3.39061E+04
 -6.54943E+03  4.06258E+04 -3.09023E+04  2.12065E+04 -3.61480E+04 -2.85314E+03 -2.06888E+04 -1.30007E+04
 -1.07822E+04 -1.60263E+04 -9.98831E+02 -2.14180E+04  7.38285E+03 -2.33618E+04  1.51066E+04 -1.22859E+04
  1.09383E+04  6.97031E+03 -1.05060E+04  1.25538E+04 -2.62783E+04 -6.61741E+03 -9.36118E+03 -3.81262E+04
  2.51828E+04 -4.99178E+04  5.42230E+04 -2.02486E+04  5.15014E+04  2.21946E+04  1.95894E+04  4.82454E+04
 -1.78375E+04  3.60358E+04 -2.69820E+04  3.63377E+03 -1.02216E+04 -2.97799E+04  2.08516E+04 -3.71568E+04
  4.44725E+04 -1.12869E+04  4.24053E+04  2.64343E+04  2.14289E+04  5.19849E+04 -6.73299E+03  5.75237E+04
 -3.68787E+04  3.93437E+04 -4.86548E+04  9.19681E+03 -5.07135E+04 -1.85643E+04 -2.86119E+04 -4.44711E+04
  9.05087E+03 -4.45768E+04  3.51517E+04 -1.69912E+04  3.22385E+04  1.18759E+04  4.75229E+03  2.12809E+04
 -1.30449E+04  9.44807E+03 -1.17213E+04 -7.08778E+03  6.54821E+03 -1.31160E+04  1.76564E+04  4.05204E+03
  1.61320E+04  2.30082E+04 -4.88994E+03  2.85993E+04 -2.34165E+04  1.51895E+04 -3.35522E+04 -1.52182E+03
 -2.75706E+04 -1.67023E+04 -1.29230E+04 -2.68590E+04  6.19089E+03 -2.80894E+04  2.24510E+04 -2.52991E+04
  3.41312E+04 -1.38177E+04  4.09863E+04  6.98897E+03  2.81167E+04  2.58489E+04  3.18697E+03  4.36994E+04
 -2.07264E+04  3.50542E+04 -3.16897E+04  1.21938E+04 -2.41014E+04 -1.15614E+04 -5.10784E+03 -1.26748E+04
 -5.33423E+02 -1.81845E+03 -7.82577E+03  7.18392E+03 -2.21902E+04  6.23107E+03 -2.27557E+04 -9.35869E+03
 -1.32505E+04 -2.44970E+04  7.67826E+03 -2.93665E+04  2.08786E+04 -2.06594E+04  2.81677E+04 -1.50189E+03
  1.70655E+04  1.86393E+04 -4.64118E+02  2.57185E+04 -1.82044E+04  1.41145E+04 -2.49882E+04 -4.64460E+03
 -1.86275E+04 -2.28185E+04 -1.55190E+03 -3.12662E+04  1.25474E+04 -2.75577E+04  2.41580E+04 -1.26160E+04
  2.50103E+04 -9.00348E+02  1.64984E+04  6.84999E+03  8.82071E+03  3.53581E+03  1.18470E+04 -2.52153E+03
  2.21497E+04  3.78041E+03  2.79222E+04  1.87864E+04  1.88168E+04  4.17373E+04 -1.38681E+03  4.93950E+04
 -2.62856E+04  4.21845E+04 -4.60657E+04  2.17812E+04 -5.00213E+04 -5.88632E+03 -4.09730E+04 -2.91228E+04
 -1.44414E+04 -4.06263E+04  1.63778E+04 -3.50223E+04  3.06228E+04 -1.55820E+04  2.61160E+04  7.88827E+03
  8.95254E+03  2.12479E+04 -1.21500E+04  1.64218E+04 -2.15220E+04  1.11754E+03 -1.72278E+04 -1.35423E+04
  2.32946E+03 -2.15416E+04  1.09431E+04 -1.27364E+04  1.56422E+04 -9.97816E+02  1.16578E+03  9.61308E+03
 -9.94291E+03  3.63607E+03 -1.11925E+04 -6.00150E+03 -2.66860E+03 -2.11054E+04  1.52942E+04 -2.06198E+04
  2.73379E+04 -1.21362E+04  3.03042E+04  2.52947E+03  2.59142E+04  2.15878E+04  1.24364E+04  3.32936E+04
 -5.95270E+03  3.56806E+04 -2.39790E+04  2.11525E+04 -2.30376E+04  4.50631E+03 -1.60830E+04 -7.93542E+03
 -7.27472E+03 -9.62114E+03  2.02932E+02 -9.42794E+02 -4.26920E+03  3.49993E+03 -8.07407E+03  5.57082E+03
 -1.54326E+04 -1.16878E+03 -1.82256E+04 -1.18413E+04 -5.84614E+03 -2.27119E+04  7.09151E+03 -1.64804E+04
  1.63763E+04 -6.70315E+03  1.08915E+04  4.79863E+03 -9.82946E+02  7.54603E+03 -9.96231E+03  7.08241E+02
 -8.14513E+03 -1.24676E+04 -8.06395E+01 -1.74137E+04  1.14872E+04 -1.97713E+04  2.33339E+04 -1.02197E+04
  2.55904E+04  3.05903E+03  1.83851E+04  1.77485E+04  2.56773E+03  2.24544E+04 -1.00894E+04  1.66074E+04
 -1.24428E+04  6.31851E+03 -7.34815E+03 -2.51826E+03  2.20421E+03 -6.53550E+03  9.64814E+03 -1.63837E+03
  8.75258E+03  8.28102E+03  4.30565E+02  1.54610E+04 -1.12011E+04  1.47956E+04 -1.85145E+04  2.60430E+03
 -1.44351E+04 -8.30342E+03 -6.49186E+02 -1.62268E+04  1.09525E+04 -6.75420E+03  1.03925E+04  4.21294E+03
  2.73735E+03  1.11082E+04 -8.72823E+03  1.46081E+04 -1.54113E+04  6.08307E+03 -1.76723E+04 -4.49201E+03
 -1.01262E+04 -1.99195E+04  5.02697E+03 -2.09993E+04  1.82039E+04 -1.27753E+04  2.06272E+04  3.18253E+03
  1.01683E+04  1.48898E+04 -3.18239E+03  1.84789E+04 -1.33888E+04  1.07338E+04 -1.51913E+04 -1.85204E+03
 -1.43699E+04 -1.11125E+04 -9.94125E+02 -1.32277E+04  7.71460E+03 -1.21754E+04  9.81073E+03 -3.21416E+03
  6.21157E+03  3.30790E+03  1.13603E+03  2.71442E+03  3.58774E+02 -4.86256E+03  4.73239E+03 -1.03725E+04
  1.55885E+04 -8.30482E+03  2.02889E+04  2.57559E+03  1.85356E+04  1.29316E+04  1.23066E+04  2.40301E+04
 -5.35587E+03  2.82172E+04 -2.32540E+04  2.03298E+04 -3.12078E+04  3.97767E+03 -2.54162E+04 -1.05149E+04
 -1.15214E+04 -2.25186E+04 -5.93597E+02 -1.83071E+04  6.35066E+03 -1.03439E+04  6.96280E+03 -6.88586E+03
  5.24190E+03 -3.26314E+03  2.43524E+03 -4.67622E+03  8.37629E+03 -2.37686E+03  8.79713E+03 -3.09437E+03
  1.30936E+04  1.93295E+03  6.70593E+03  1.18704E+04 -2.95840E+03  1.25623E+04 -1.48316E+04  1.27212E+04
 -1.87514E+04  8.06520E+01 -1.24303E+04 -1.15781E+04 -1.44109E+03 -1.90768E+04  9.44109E+03 -1.88439E+04
  1.83857E+04 -1.05493E+04  2.35504E+04  3.67232E+03  1.58371E+04  1.69655E+04  3.31805E+03  2.14649E+04
 -7.93763E+03  1.75391E+04 -1.38977E+04  6.42522E+03 -6.44418E+03 -1.74053E+03 -4.26462E+03 -2.24672E+03
 -4.08678E+03  8.24562E+02 -9.46013E+02  2.49414E+03 -6.79242E+03  4.50564E+03 -1.18877E+04 -2.10031E+03
 -8.47191E+03 -1.33259E+04  9.64466E+02 -1.93020E+04  1.05456E+04 -1.77484E+04  1.87445E+04 -5.25414E+03
  1.76766E+04  5.86491E+03  8.12789E+03  1.79639E+04 -5.81851E+03  1.82576E+04 -1.39773E+04  1.15706E+04
 -1.98529E+04  7.58196E+02 -1.45362E+04 -1.14103E+04 -2.56356E+03 -1.69301E+04  7.40423E+03 -1.29855E+04
  1.24291E+04 -2.57483E+03  8.48495E+03  1.67398E+03  4.94409E+03  2.86449E+03  4.43964E+03  2.99568E+03
  4.57710E+03  1.17456E+03  5.80540E+03  3.12082E+03  5.02924E+03  6.61235E+03  3.95150E+03  1.07292E+04
 -3.39107E+03  1.28833E+04 -1.32229E+04  1.48776E+04 -2.03492E+04  5.39967E+03 -2.04068E+04 -8.98930E+03
 -9.58712E+03 -1.79954E+04  1.70881E+03 -2.00469E+04  9.38283E+03 -1.23960E+04  1.58972E+04 -3.03010E+03
  1.31083E+04  5.84282E+03  3.29637E+03  1.19721E+04 -5.83021E+03  6.09865E+03 -7.33194E+03 -1.62267E+03
 -4.95098E+03 -7.86839E+03  4.05618E+03 -9.06874E+03  8.63713E+03 -4.62282E+03  8.43149E+03  1.59437E+03
  5.02451E+03  5.27312E+03  1.25830E+03  1.76441E+03 -2.29905E+03  2.16703E+03  2.24123E+03 -6.49092E+02
  3.93926E+03 -1.25125E+03  7.83243E+03  1.88111E+03  6.04684E+03  1.09233E+04 -9.48780E+02  1.28581E+04
 -9.26449E+03  8.67993E+03 -1.35214E+04 -3.83380E+02 -9.68322E+03 -3.89071E+03 -3.40290E+03 -7.55810E+03
 -1.63893E+03 -8.90215E+03  5.83998E+03 -5.32074E+03  3.28870E+03  4.30251E+03 -2.64903E+03  5.67954E+03
 -7.54695E+03  3.78333E+03 -8.63331E+03 -1.85374E+03 -5.14852E+03 -1.13341E+04  3.38956E+02 -1.10879E+04
  6.20127E+03 -7.65962E+03  8.15066E+03 -1.09575E+03  6.74948E+03  1.44251E+03  2.20540E+02  5.83562E+03
 -4.19323E+03  2.27301E+03 -4.63649E+03 -4.59817E+03  3.65111E+03 -8.43060E+03  1.08740E+04 -6.16068E+03
  1.25240E+04  1.80645E+03  1.13523E+04  1.01749E+04  4.44052E+03  1.46650E+04 -5.61215E+03  1.42753E+04
 -1.28687E+04  7.58119E+03 -9.07853E+03 -5.25377E+02 -5.56113E+03 -8.44219E+03  1.27725E+03 -7.96729E+03
  6.14700E+03 -3.91066E+03  5.93738E+03  3.43340E+03  2.13788E+03  7.65403E+03 -1.91541E+03  6.62190E+03
 -4.90396E+03  2.66931E+03 -3.43680E+03  2.27494E+03 -1.74762E+03 -4.83691E+02 -3.13367E+03  2.92373E+03
 -4.65904E+03  6.46857E+03 -7.69685E+03  4.78523E+03 -1.47414E+04 -1.72687E+03 -1.51883E+04 -1.00230E+04
 -6.98599E+03 -1.70039E+04  5.19380E+03 -2.03275E+04  1.27515E+04 -1.54656E+04  1.89001E+04 -6.17621E+03
  1.94025E+04  2.70835E+03  1.34928E+04  1.20035E+04  1.09371E+03  1.53327E+04 -8.23199E+03  1.10629E+04
 -6.82963E+03  3.59522E+03 -4.75074E+03 -2.79330E+02 -3.99481E+02 -2.81550E+03 -2.31557E+03 -1.01506E+03
 -2.93867E+03 -1.09936E+02 -2.52770E+03 -8.73090E+02 -4.90724E+02 -2.13983E+02  4.13681E+02 -4.46144E+03
  6.46976E+03 -4.12636E+03  8.80394E+03  1.50914E+02  1.18358E+04  8.08266E+03  3.46692E+03  1.56680E+04
 -7.66042E+03  1.94047E+04 -1.70113E+04  7.03665E+03 -1.80070E+04 -1.16931E+03 -1.39855E+04 -1.13427E+04
 -4.89433E+03 -1.49740E+04  2.93370E+03 -1.32764E+04  1.04067E+04 -7.47126E+03  1.07732E+04 -1.16594E+03
  4.96728E+03  4.68294E+03  2.22068E+01  3.46370E+03 -3.42277E+03  6.21066E+02  3.63411E+02 -3.58985E+03
  3.91393E+03 -1.78327E+03  5.21277E+03  1.72506E+03  4.58159E+03  4.25349E+03 -2.81270E+02  8.33800E+03
 -4.49316E+03  6.73767E+03 -1.13706E+04  2.18376E+03 -1.05550E+04 -4.68469E+03 -1.19999E+03 -1.50676E+04
  5.91534E+03 -1.03992E+04  1.17060E+04 -2.46536E+03  1.20815E+04  3.42234E+03  7.63032E+03  9.62667E+03
 -1.12622E+03  1.08415E+04 -4.28942E+03  8.35851E+03 -8.38362E+03  5.21479E+03 -5.25657E+03 -6.50665E+02
 -2.41721E+03  6.49771E+02 -1.76469E+03  9.58675E+02 -5.03720E+03  3.77875E+03 -9.09244E+03 -3.73968E+03
 -6.27481E+03 -6.49639E+03 -3.57766E+03 -1.06496E+04  3.97194E+03 -1.11440E+04  8.19159E+03 -5.20084E+03
  1.11600E+04  9.16406E+02  4.17863E+03  7.16514E+03  9.51350E+02  9.58096E+03 -6.71792E+03  5.61586E+03
