 $NMID ID='MM_0lb_SNR200_20hz_g50_45.RAW', FMTDAT='(8E13.5)'
 TRAMP=1., VOLUME=1. $END
  3.10249E+05  6.87895E+02  3.37061E+05  2.49255E+05  8.41030E+04  3.38367E+05 -1.32492E+05  2.50846E+05
 -1.90270E+05  8.29971E+04 -1.12307E+05 -3.31434E+04  2.32440E+03 -5.06474E+04  5.41192E+04 -1.25880E+03
  3.60400E+04  5.35814E+04 -1.69215E+04  7.54209E+04 -6.05871E+04  6.35309E+04 -8.27538E+04  3.19114E+04
 -7.99222E+04 -1.10996E+04 -5.60401E+04 -5.04807E+04 -1.43253E+04 -6.85444E+04  2.62887E+04 -4.49749E+04
  3.80374E+04  4.71601E+03  1.50310E+04  4.71323E+04 -3.36472E+04  4.67564E+04 -6.48476E+04  2.93775E+02
 -5.18214E+04 -5.50643E+04 -6.74845E+03 -7.45335E+04  3.24200E+04 -5.21017E+04  4.54603E+04 -1.57949E+04
  4.15705E+04  1.10325E+04  3.03986E+04  2.37616E+04  1.60752E+04  2.78021E+04 -5.03804E+03  2.68750E+04
 -2.15209E+04  1.22456E+04 -1.91751E+04 -4.13261E+03  4.48186E+03 -8.15863E+03  2.06329E+04  1.01503E+04
  7.76501E+03  3.31000E+04 -2.95550E+04  3.33917E+04 -6.05033E+04  2.25734E+03 -5.51023E+04 -4.14639E+04
 -1.21925E+04 -6.10666E+04  3.77940E+04 -4.32887E+04  5.52838E+04 -2.74176E+03  3.10050E+04  3.02503E+04
 -6.30105E+03  3.24427E+04 -2.75374E+04  1.21753E+04 -2.64187E+04 -5.58423E+03 -1.41495E+04 -9.28030E+03
 -6.88997E+03 -9.77597E+03 -1.42730E+03 -1.66345E+04  6.26110E+03 -2.30581E+04  1.46135E+04 -1.41047E+04
  1.16098E+04  4.01613E+03 -6.31737E+03  1.28739E+04 -1.82037E+04 -2.14000E+03 -8.44177E+03 -2.97503E+04
  2.07634E+04 -3.97717E+04  4.39726E+04 -1.89665E+04  4.07814E+04  1.87287E+04  1.48464E+04  4.11007E+04
 -1.57875E+04  3.11017E+04 -2.34795E+04  3.65474E+02 -7.71075E+03 -2.63382E+04  1.91409E+04 -3.12776E+04
  3.70727E+04 -7.59867E+03  3.16349E+04  2.25893E+04  1.49419E+04  4.29667E+04 -7.77182E+03  4.41334E+04
 -2.81171E+04  2.85704E+04 -3.63239E+04  7.25773E+03 -3.80090E+04 -1.49882E+04 -2.14527E+04 -3.37807E+04
  7.42712E+03 -3.38766E+04  2.91341E+04 -1.20165E+04  2.66229E+04  9.99285E+03  2.69592E+03  1.69538E+04
 -1.30045E+04  6.48685E+03 -9.42945E+03 -7.62116E+03  5.94512E+03 -9.68807E+03  1.73880E+04  7.03587E+03
  1.15192E+04  2.10394E+04 -6.91893E+03  2.33845E+04 -2.15890E+04  9.02233E+03 -2.55267E+04 -6.20088E+03
 -1.57250E+04 -1.71550E+04 -4.49982E+03 -1.58791E+04  3.87417E+03 -1.40831E+04  1.14911E+04 -1.42331E+04
  2.01199E+04 -9.85707E+03  2.69871E+04  9.82370E+02  2.10162E+04  1.57775E+04  4.20970E+03  3.12706E+04
 -1.58160E+04  2.66084E+04 -2.53652E+04  9.97561E+03 -1.96797E+04 -9.66488E+03 -3.92521E+03 -1.43480E+04
  1.75781E+03 -5.45982E+03 -2.35592E+03  4.80765E+03 -1.13864E+04  4.75139E+03 -1.28838E+04 -4.37785E+03
 -8.30928E+03 -1.45138E+04  3.89850E+03 -1.89357E+04  1.05148E+04 -1.26896E+04  1.45703E+04 -1.43605E+03
  9.19311E+03  1.02063E+04 -1.61543E+03  1.55393E+04 -9.74499E+03  8.71506E+03 -1.48902E+04 -2.84167E+03
 -1.02844E+04 -1.33594E+04 -1.83419E+03 -1.77705E+04  8.71331E+03 -1.50920E+04  1.61526E+04 -6.57328E+03
  1.32529E+04  9.49824E+02  9.85458E+03  4.26312E+03  4.57152E+03  3.17752E+02  7.64526E+03 -4.28660E+02
  1.31090E+04  2.40165E+03  1.34789E+04  1.22705E+04  7.76560E+03  2.35656E+04 -3.63089E+03  2.41890E+04
 -1.47552E+04  1.89260E+04 -2.31511E+04  8.62297E+03 -2.28829E+04 -2.30692E+03 -1.88241E+04 -1.33923E+04
 -9.95945E+03 -1.93908E+04  5.44795E+03 -1.80158E+04  1.63887E+04 -1.02816E+04  1.48742E+04  3.29028E+03
  6.77316E+03  9.76994E+03 -6.65285E+03  1.07362E+04 -1.32053E+04  2.84228E+03 -9.35231E+03 -7.72355E+03
  1.04981E+02 -1.11543E+04  6.39840E+03 -9.53655E+03  6.08795E+03 -1.08087E+03  5.09936E+02  4.35636E+03
 -5.08530E+03  8.40693E+02 -3.87998E+03 -5.39034E+03 -5.38198E+02 -9.37892E+03  7.79573E+03 -9.01980E+03
  1.14661E+04 -5.04010E+03  1.01602E+04  2.01189E+03  9.81395E+03  8.63610E+03  3.85366E+03  1.35265E+04
 -1.50514E+03  1.49578E+04 -8.85417E+03  9.41703E+03 -1.01584E+04  2.41782E+03 -7.51319E+03 -2.26340E+03
 -4.10137E+03 -2.64193E+03 -1.14269E+03  9.18814E+02 -2.07286E+03  3.35408E+03 -2.70511E+03  4.44540E+03
 -7.85276E+03 -3.59305E+02 -8.20539E+03 -6.79838E+03 -2.91609E+03 -1.11666E+04  2.89324E+03 -8.23356E+03
  5.70957E+03 -3.26366E+03  5.28630E+03  1.50866E+03  4.33164E+02  1.95430E+03 -3.24341E+03 -4.12677E+02
 -2.52975E+03 -4.49075E+03 -5.75305E+02 -6.85289E+03  2.83392E+03 -7.19960E+03  9.15619E+03 -3.38581E+03
  1.07066E+04 -8.92126E+02  7.75637E+03  5.24275E+03  1.63107E+03  8.12278E+03 -4.40371E+03  7.26839E+03
 -6.99015E+03  2.65999E+03 -3.74514E+03 -6.45419E+02  1.88386E+03 -6.34869E+02  4.94407E+03 -4.77079E+02
  3.04348E+03  3.43699E+03  1.75766E+03  5.91362E+03 -3.11221E+03  5.98657E+03 -6.01547E+03  1.81457E+03
 -2.56926E+03 -3.59192E+03 -3.78922E+02 -6.11033E+03  3.51809E+03 -1.99247E+03  3.53311E+03  5.16208E+02
  1.43281E+03  1.68804E+03 -3.79312E+03  4.26047E+03 -4.08744E+03  3.34871E+03 -3.06032E+03 -1.06141E+03
 -2.35322E+03 -5.52597E+03  8.08056E+02 -6.09085E+03  4.98424E+03 -3.54815E+03  5.10713E+03  8.20785E+02
  3.95091E+03  5.94326E+03 -2.87358E+02  6.70330E+03 -4.39650E+03  2.93743E+03 -4.48858E+03 -1.41460E+03
 -6.14969E+03 -3.76845E+03 -1.35690E+03 -3.60684E+03  1.96118E+03 -3.97174E+03  2.57199E+03 -2.54261E+03
  1.67485E+03 -1.64747E+02  1.93491E+02  1.03243E+03 -1.98105E+02 -3.10343E+02  2.82110E+02 -9.70222E+02
  2.96336E+03 -1.67941E+03  3.11078E+03  1.14951E+03  5.27250E+03  2.62821E+03  6.03790E+03  6.04748E+03
 -7.35861E+02  7.27548E+03 -6.68178E+03  5.57865E+03 -7.72001E+03  1.90041E+03 -6.68064E+03 -1.56268E+03
 -4.23847E+03 -5.92839E+03 -1.15068E+03 -4.55624E+03  7.89323E+02 -1.88789E+03  1.99873E+03 -2.09142E+03
  8.08582E+02 -1.57324E+03  1.76100E+03 -2.85278E+03  2.41439E+03 -1.47966E+03  3.62138E+03  8.49620E+02
  3.97025E+03 -2.45663E+02 -2.47784E+02  3.87654E+03 -1.44645E+03  2.12507E+03 -4.13429E+03  1.55524E+03
 -4.29747E+03 -1.35826E+03 -1.66016E+03 -1.95244E+03  8.80575E+02 -5.15998E+03  2.94136E+03 -4.39931E+03
  4.85770E+03 -2.41484E+03  5.98318E+03 -2.52607E+02  3.99437E+03  4.01103E+03  3.07420E+02  4.29009E+03
 -1.82534E+03  4.76186E+03 -2.93251E+03  2.88169E+03 -1.53806E+03 -9.23084E+02 -8.60140E+01 -1.22174E+03
  3.22777E+02  2.18712E+02 -8.17411E+01  2.09110E+03 -1.72781E+03  1.32214E+03 -4.08099E+03 -1.74826E+02
 -1.09225E+03 -3.36335E+03  1.39256E+03 -2.99350E+03  1.74161E+03 -3.80030E+03  2.01319E+03 -9.14548E+02
  3.44174E+03  1.93890E+03  5.95392E+02  1.51415E+03  4.15207E+02  3.90358E+03 -1.97525E+03  1.93815E+03
 -2.53101E+03  9.57106E+02 -1.72286E+03 -2.62851E+03 -1.48398E+03 -2.92775E+03  1.39006E+03 -1.98141E+03
  1.77265E+03 -2.64529E+03  1.74944E+03  3.68545E+02  9.90801E+02  1.81642E+03  1.73123E+02  2.94465E+02
  1.71225E+03 -1.76038E+02  8.16865E+02  9.00112E+02  1.45814E+03  1.71109E+03  7.68391E+02  1.02729E+03
 -9.03565E+02  3.16053E+03 -9.16389E+02  4.01717E+03 -1.73681E+03  1.45844E+03 -2.85048E+03 -3.37923E+01
 -1.59311E+03 -1.44806E+03  3.08441E+02 -3.24041E+03  1.80342E+03 -1.31967E+03  2.63285E+03 -6.38927E+02
  2.10061E+03  5.26879E+02  5.87636E+02  2.66554E+03 -9.19772E+02 -8.93377E+02  1.19357E+02  5.26696E+02
 -1.75326E+02 -1.27852E+03  4.50174E+02 -1.82267E+03  6.45516E+02 -1.73067E+03  6.08428E+02  8.68354E+02
  4.55242E+02  1.62241E+03 -2.06303E+02 -4.55066E+02 -1.37773E+03  8.79339E+02  2.06493E+03  7.11277E+02
 -3.51650E+02 -1.55283E+02  2.73097E+03 -5.03197E+02 -1.25350E+02  1.39612E+03 -7.35578E+02  1.80171E+03
 -1.29559E+03  2.32341E+02 -1.30060E+03  5.76866E+02 -2.13139E+03 -1.05105E+03  4.77724E+02 -2.27003E+03
  1.16510E+03 -1.21993E+03  3.34080E+02 -5.91399E+02  4.38097E+02  1.37223E+03 -5.57042E+02  1.32494E+03
 -1.70259E+03  1.13103E+03 -3.06740E+02 -1.19436E+03 -5.28744E+02 -2.78863E+03 -2.56049E+02 -6.35062E+02
  7.68984E+02 -3.01579E+02  2.02462E+02  1.17252E+03  9.99805E+02  6.74536E+02 -3.06149E+02  7.06289E+02
 -5.17440E+02 -2.66198E+02 -6.33905E+02 -3.26466E+02  2.11396E+02 -1.30537E+03  1.91052E+03 -3.62817E+02
  1.29913E+02 -1.30918E+03  1.74068E+03  8.32455E+02  8.22306E+02  3.27637E+02  6.87963E+02  2.24907E+03
 -6.79214E+02 -1.63034E+02 -9.19806E+02  3.69926E+02 -1.30148E+03  4.05399E+01  5.95848E+02 -4.30409E+02
  1.53997E+03  3.11490E+02 -1.23073E+02  1.84775E+02  4.53372E+02  1.02408E+03 -4.26617E+02  5.80664E+01
  4.20880E+02 -4.36806E+02 -6.26200E+02  4.46553E+02  4.54927E+02  1.18563E+03  1.16161E+02  5.84255E+01
 -3.58074E+02  3.28593E+02 -1.24833E+03 -5.25630E+02 -5.20875E+02 -2.04533E+02 -1.49718E+03 -8.39972E+02
 -6.27930E+02 -2.23200E+03 -1.71711E+01 -2.51045E+03  9.11402E-01 -3.14799E+03  1.77196E+03 -1.61939E+03
  1.15974E+03 -6.84303E+02 -1.63894E+01  1.66659E+03 -2.58710E+02  9.23801E+02 -4.76087E+02  1.37063E+03
 -1.02017E+02  2.30701E+02  7.41278E+02 -1.22674E+03 -1.02923E+03  8.59538E+02  8.29424E+01 -4.88314E+02
 -2.35460E+03  5.87557E+01 -2.30070E+02 -3.85758E+02  5.95927E+02 -9.74115E+02 -9.59834E+00 -9.50623E+02
  1.84590E+03  4.76833E+02 -2.05182E+02  5.88879E+02  1.10013E+03  1.24418E+03 -4.03639E+02  1.23739E+03
 -8.92576E+02  2.11641E+03 -9.24595E+02  1.83283E+03 -2.66722E+03  7.35428E+02 -6.54951E+02 -1.33112E+03
 -1.00258E+03 -6.90385E+02  1.01830E+02 -7.60537E+02 -2.92135E+00  7.41379E+02 -4.56962E+02  7.19544E+02
 -3.19291E+02  1.10902E+03  1.61377E+03 -5.44221E+02 -4.50350E+02  5.25798E+02 -8.67014E+01 -1.09940E+02
  4.54925E+02  9.36827E+02  8.59389E+01  7.73431E+02  1.95813E+02  1.71692E+02  5.01558E+02  8.24942E+01
  3.63228E+00 -1.06562E+03  3.70591E+02 -1.34809E+03 -1.36604E+02 -1.31519E+02  7.15001E+02 -1.26615E+03
  2.31622E+02 -1.07276E+03 -3.88118E+02 -1.19201E+02  1.57029E+02 -6.20915E+02 -7.98510E+02  1.41881E+03
 -5.85391E+02 -3.13291E+02 -6.80508E+02  3.77202E+02  4.55320E+02  8.72897E+02  2.11420E+02 -1.06697E+03
 -5.36943E+01  1.50496E+02 -2.69687E+02  1.05790E+03  1.23958E+02 -1.78801E+02 -8.08277E+02 -4.61370E+02
 -1.66276E+03  6.06228E+02 -3.21048E+01  4.18595E+02 -1.49026E+02 -1.32332E+03  4.20204E+02  4.63527E+02
 -9.85917E+01 -7.23882E+01 -1.40570E+03  1.67812E+02  2.67190E+02 -1.13414E+02  6.46399E+02  1.02822E+03
