 $NMID ID='MM_0lb_SNR200_7hz_g40_81.RAW', FMTDAT='(8E13.5)'
 TRAMP=1., VOLUME=1. $END
  3.09725E+05  5.50258E+02  3.37419E+05  2.51408E+05  8.74151E+04  3.39569E+05 -1.31752E+05  2.53207E+05
 -1.92569E+05  8.30516E+04 -1.11728E+05 -3.14220E+04  4.84495E+02 -5.06699E+04  5.42574E+04  7.01047E+02
  3.68690E+04  5.40939E+04 -1.71753E+04  7.39925E+04 -6.21576E+04  6.60965E+04 -8.50389E+04  3.18473E+04
 -8.45152E+04 -1.20733E+04 -5.96598E+04 -5.15865E+04 -1.61868E+04 -7.10306E+04  2.95476E+04 -4.63957E+04
  4.09590E+04  3.17756E+03  1.65978E+04  5.12550E+04 -3.51932E+04  4.71375E+04 -6.77931E+04 -9.55006E+02
 -5.59431E+04 -5.89063E+04 -5.64662E+03 -7.94003E+04  3.35358E+04 -5.78935E+04  4.89452E+04 -1.82778E+04
  4.58203E+04  1.12420E+04  3.18623E+04  2.69288E+04  1.40700E+04  2.91827E+04 -3.54285E+03  2.81690E+04
 -2.24066E+04  1.26693E+04 -1.76688E+04 -5.67141E+03  7.26064E+03 -7.79828E+03  2.35170E+04  1.24132E+04
  8.45882E+03  3.79253E+04 -3.37525E+04  3.60828E+04 -6.52146E+04  2.18017E+03 -6.00121E+04 -4.48002E+04
 -1.39783E+04 -6.49643E+04  4.17457E+04 -4.65653E+04  6.16358E+04 -3.21996E+03  3.90645E+04  3.43942E+04
 -5.26727E+03  4.00064E+04 -3.30259E+04  1.91425E+04 -3.35661E+04 -2.84579E+03 -2.12752E+04 -1.34567E+04
 -1.12459E+04 -1.49808E+04 -1.74665E+03 -2.10014E+04  8.15285E+03 -2.45606E+04  1.81452E+04 -1.12581E+04
  9.66422E+03  5.85426E+03 -1.08246E+04  1.20010E+04 -2.35500E+04 -8.74734E+03 -9.23204E+03 -3.90751E+04
  2.56452E+04 -4.55269E+04  5.35326E+04 -2.09175E+04  5.01610E+04  2.08693E+04  1.93537E+04  4.69142E+04
 -1.59692E+04  3.73917E+04 -2.90896E+04  3.17580E+03 -1.27362E+04 -2.90594E+04  2.21423E+04 -3.68797E+04
  4.42500E+04 -1.07099E+04  4.14624E+04  2.60253E+04  2.10451E+04  5.22887E+04 -9.56697E+03  5.84014E+04
 -3.74628E+04  3.86826E+04 -4.83582E+04  1.20983E+04 -4.85324E+04 -1.93097E+04 -2.81994E+04 -4.42024E+04
  8.33666E+03 -4.28960E+04  3.43762E+04 -1.62933E+04  3.24587E+04  1.21891E+04  5.19502E+03  2.07681E+04
 -1.29547E+04  1.05643E+04 -1.03469E+04 -9.20259E+03  6.92482E+03 -1.29046E+04  1.89336E+04  5.75583E+03
  1.50571E+04  2.54106E+04 -7.63693E+03  2.64599E+04 -2.43011E+04  1.37698E+04 -3.34903E+04 -2.80866E+03
 -2.58448E+04 -1.91863E+04 -1.32067E+04 -2.60010E+04  6.10527E+03 -2.80655E+04  1.97830E+04 -2.32347E+04
  3.16545E+04 -1.49639E+04  3.91518E+04  5.80587E+03  2.69866E+04  2.43986E+04  3.48766E+03  4.22662E+04
 -2.22214E+04  3.58665E+04 -3.01669E+04  1.25646E+04 -2.25311E+04 -8.30997E+03 -5.10796E+03 -1.22551E+04
  1.38965E+03 -4.32980E+02 -7.82068E+03  9.97945E+03 -2.07713E+04  6.16361E+03 -2.02005E+04 -9.56431E+03
 -1.17250E+04 -2.50254E+04  5.62961E+03 -3.02800E+04  1.99101E+04 -1.98826E+04  2.29384E+04 -2.36238E+03
  1.41566E+04  1.66320E+04 -1.95490E+03  2.47572E+04 -1.68034E+04  1.25358E+04 -2.33746E+04 -4.87852E+03
 -1.75157E+04 -2.40101E+04 -1.76036E+03 -2.92349E+04  1.46581E+04 -2.56197E+04  2.44089E+04 -1.29850E+04
  2.25211E+04  2.34823E+02  1.58996E+04  7.03278E+03  9.25811E+03  2.77993E+03  1.26782E+04 -1.72499E+03
  2.28160E+04  2.38312E+03  2.58712E+04  1.87527E+04  1.77559E+04  3.98625E+04 -8.53385E+02  4.64851E+04
 -2.52792E+04  3.93516E+04 -4.49811E+04  2.15056E+04 -4.74530E+04 -2.97218E+03 -3.98674E+04 -2.82448E+04
 -1.63943E+04 -4.02718E+04  1.51323E+04 -3.50618E+04  2.93965E+04 -1.70505E+04  2.61140E+04  8.48310E+03
  1.02100E+04  1.98077E+04 -1.24371E+04  1.66207E+04 -2.15327E+04  1.96310E+03 -1.67067E+04 -1.30469E+04
 -7.36627E+02 -1.85355E+04  1.09050E+04 -1.42858E+04  1.43781E+04  6.48111E+02  4.70875E+03  1.02469E+04
 -8.59493E+03  5.04759E+03 -1.09983E+04 -9.46675E+03 -1.86062E+03 -1.80756E+04  1.24752E+04 -2.07589E+04
  2.36796E+04 -1.20577E+04  2.78119E+04  4.87184E+03  2.57885E+04  2.16297E+04  1.19468E+04  3.24597E+04
 -5.94913E+03  3.49925E+04 -2.32659E+04  2.11208E+04 -2.35201E+04  2.57712E+03 -1.78079E+04 -7.25871E+03
 -7.19240E+03 -7.47374E+03 -1.62708E+03  1.04889E+03 -2.68248E+03  3.25175E+03 -6.60456E+03  6.05975E+03
 -1.51343E+04 -1.67906E+03 -1.61799E+04 -1.18709E+04 -5.59773E+03 -2.01298E+04  9.43533E+03 -1.60495E+04
  1.50420E+04 -5.72812E+03  1.10909E+04  5.11387E+03  3.69455E+02  7.80309E+03 -8.42579E+03 -1.72037E+02
 -6.72540E+03 -1.11509E+04 -1.79253E+03 -1.60172E+04  1.12461E+04 -1.74751E+04  2.26724E+04 -8.38828E+03
  2.59133E+04  2.57671E+03  2.01315E+04  1.75401E+04  2.64695E+03  2.18672E+04 -1.11779E+04  1.74423E+04
 -1.45568E+04  3.31567E+03 -8.65253E+03 -3.18122E+03  1.66031E+03 -4.78407E+03  8.23923E+03 -1.71431E+03
  7.97983E+03  8.62782E+03  2.73720E+03  1.34375E+04 -1.05870E+04  1.37959E+04 -1.57468E+04  4.00953E+03
 -1.13704E+04 -1.12166E+04 -1.56334E+03 -1.36626E+04  1.16533E+04 -7.77525E+03  9.48712E+03  2.73169E+03
  2.82388E+03  1.26268E+04 -9.40517E+03  1.18970E+04 -1.63605E+04  5.43092E+03 -1.41468E+04 -8.01076E+03
 -9.29601E+03 -1.71003E+04  3.87369E+03 -1.99393E+04  1.62365E+04 -1.28875E+04  1.95704E+04  3.84258E+03
  1.04894E+04  1.41394E+04 -2.22191E+02  1.66596E+04 -1.34342E+04  9.23005E+03 -1.57558E+04 -3.05572E+03
 -9.43652E+03 -1.19466E+04 -1.07176E+03 -1.50685E+04  5.83814E+03 -1.05635E+04  1.02431E+04 -4.06808E+03
  5.84988E+03  2.98526E+03 -2.84080E+03  2.80483E+03 -9.88016E+01 -5.01637E+03  3.66796E+03 -8.33698E+03
  1.24249E+04 -4.70896E+03  1.76827E+04  4.15455E+03  1.79725E+04  1.36680E+04  1.28408E+04  2.50571E+04
 -6.35981E+03  2.85435E+04 -2.27281E+04  2.06630E+04 -3.09078E+04  5.60995E+03 -2.54195E+04 -9.50655E+03
 -1.16703E+04 -1.87421E+04 -2.46719E+02 -1.63705E+04  7.24807E+03 -1.02973E+04  6.55236E+03 -6.62394E+03
  5.13243E+03 -2.78712E+03  6.28534E+03 -4.98938E+03  5.99365E+03 -3.66345E+03  9.39796E+03 -2.12648E+03
  1.25817E+04  2.50646E+03  6.32474E+03  1.11901E+04 -2.11097E+03  1.31091E+04 -1.24752E+04  1.04525E+04
 -1.46223E+04 -2.01305E+03 -1.06638E+04 -1.41310E+04 -1.25272E+03 -1.76725E+04  1.00833E+04 -1.80466E+04
  1.74239E+04 -9.90011E+03  2.19438E+04  3.76698E+03  1.67091E+04  1.66798E+04  1.96775E+03  1.94099E+04
 -8.78212E+03  1.48070E+04 -1.12511E+04  6.21029E+03 -8.69630E+03 -1.47256E+03 -3.34712E+03 -2.88594E+03
 -9.58451E+02  2.01322E+02 -2.11958E+03  2.30681E+03 -7.29726E+03  1.63941E+03 -1.21986E+04 -2.02284E+03
 -9.29184E+03 -1.40560E+04  1.92477E+02 -1.78628E+04  9.85627E+03 -1.75110E+04  1.67172E+04 -4.73248E+03
  1.68245E+04  8.83629E+03  7.66614E+03  1.76023E+04 -3.77282E+03  1.82754E+04 -1.25792E+04  1.13171E+04
 -1.63424E+04  1.34120E+03 -1.23283E+04 -1.11154E+04 -1.49869E+03 -1.54908E+04  8.03858E+03 -1.00650E+04
  1.10775E+04 -3.61516E+03  7.63469E+03  3.09811E+03  2.32346E+03  3.93779E+03  2.76122E+02  2.31878E+03
  2.70194E+03  3.58248E+01  4.08214E+03  2.64434E+03  6.11918E+03  5.23553E+03  4.56376E+03  8.87049E+03
 -3.78229E+03  1.46456E+04 -1.17342E+04  1.40360E+04 -1.89372E+04  2.32920E+03 -1.88163E+04 -7.66877E+03
 -9.30029E+03 -1.83203E+04  1.27935E+03 -2.06071E+04  1.07843E+04 -1.25372E+04  1.46538E+04 -4.67137E+03
  1.31615E+04  6.48978E+03  3.79139E+03  1.05632E+04 -5.84195E+03  4.89529E+03 -8.62077E+03 -9.51057E+02
 -3.70991E+03 -6.02628E+03  6.35751E+03 -1.03059E+04  8.84665E+03 -2.12400E+03  9.37922E+03  2.28477E+03
  4.91437E+03  4.45380E+03  1.70340E+03  2.19122E+03 -2.13320E+03  2.81898E+03  3.16461E+03 -1.69414E+03
  3.20633E+03 -2.25930E+03  6.76586E+03  4.43556E+03  4.76112E+03  1.02218E+04 -9.81277E+02  1.29277E+04
 -9.34794E+03  9.33821E+03 -1.14105E+04  3.90082E+03 -1.04126E+04 -3.89755E+03 -5.31023E+03 -7.42854E+03
  3.31314E+03 -8.36482E+03  5.23465E+03 -4.95594E+03  3.46165E+03  2.99942E+03 -1.97595E+02  7.92333E+03
 -9.41447E+03  4.62446E+03 -9.57367E+03 -3.46100E+03 -6.50927E+03 -9.62812E+03  7.95372E+02 -1.13926E+04
  6.51791E+03 -6.13892E+03  7.43574E+03  1.03632E+03  4.85811E+03  3.10954E+03  1.14501E+03  8.67396E+03
 -5.10909E+03  1.17477E+03 -4.34753E+03 -4.46097E+03  1.60579E+03 -6.53770E+03  9.45523E+03 -7.26848E+03
  1.36086E+04  2.71750E+02  1.26103E+04  9.11681E+03  2.76906E+03  1.31651E+04 -3.51449E+03  1.34504E+04
 -1.16011E+04  7.27890E+03 -1.15210E+04 -2.64129E+03 -5.69792E+03 -7.47531E+03  7.27360E+02 -7.49479E+03
  7.28763E+03 -3.84210E+03  7.67358E+03  2.95860E+03  1.19027E+03  8.48708E+03 -5.03536E+02  5.94379E+03
 -4.01230E+03  5.48836E+03 -4.19445E+03  1.78370E+03 -1.01612E+03  6.71012E+02 -2.76860E+03  3.06348E+03
 -4.14891E+03  4.75999E+03 -9.58740E+03  4.54047E+03 -1.26784E+04 -1.00403E+02 -1.31646E+04 -8.54562E+03
 -7.32507E+03 -1.63288E+04  3.18454E+03 -1.91386E+04  1.29851E+04 -1.46613E+04  1.99512E+04 -7.75001E+03
  1.67302E+04  4.15451E+03  1.11980E+04  1.17871E+04  2.71773E+03  1.38862E+04 -4.52487E+03  1.04812E+04
 -5.95001E+03  2.28239E+03 -5.54137E+03 -4.35345E+02 -9.86214E+02 -6.53206E+02 -7.50204E+02 -1.52591E+03
 -1.58381E+03  5.02221E+02 -2.38397E+03 -7.53280E+02 -2.20790E+03 -2.14757E+03  6.61588E+02 -4.89732E+03
  6.45762E+03 -6.24904E+03  9.09435E+03 -7.25148E+02  1.16992E+04  7.38120E+03  2.67505E+03  1.32277E+04
 -6.47446E+03  1.68751E+04 -1.45310E+04  8.45856E+03 -1.51037E+04 -2.22957E+03 -1.30678E+04 -1.15890E+04
 -5.22585E+03 -1.48250E+04  3.99415E+03 -1.24052E+04  8.63540E+03 -8.53488E+03  8.32806E+03  2.85085E+02
  3.42713E+03  4.78326E+03 -3.34041E+02  5.00507E+03 -3.62230E+03  3.85579E+02 -5.73420E+01 -2.17018E+03
  4.21165E+03 -1.19438E+03  5.95343E+03  8.79964E+02  4.82280E+03  4.84767E+03 -4.05220E+02  8.61980E+03
 -4.86525E+03  7.10533E+03 -8.77257E+03  2.79368E+03 -8.37453E+03 -5.56453E+03 -1.51457E+03 -1.12621E+04
  5.26328E+03 -8.31059E+03  1.15422E+04 -2.89196E+03  7.48110E+03  3.08908E+03  6.46823E+03  7.16664E+03
  2.28305E+03  9.77656E+03 -3.99306E+03  8.31451E+03 -6.47996E+03  4.56302E+03 -4.84603E+03 -7.45439E+02
 -1.88115E+03 -3.74591E+02 -3.43539E+03  2.85756E+03 -5.29806E+03  1.66131E+03 -7.36966E+03 -2.55592E+03
 -7.54244E+03 -4.77245E+03 -1.26864E+03 -7.92723E+03  4.02161E+03 -9.98063E+03  1.01224E+04 -6.50322E+03
  9.35860E+03  7.98614E+02  5.40580E+03  7.79548E+03 -1.21092E+03  8.89361E+03 -5.60229E+03  6.04734E+03
