 $NMID ID='MM_0lb_SNR200_8hz_g40_73.RAW', FMTDAT='(8E13.5)'
 TRAMP=1., VOLUME=1. $END
  3.10198E+05  2.71301E+02  3.37542E+05  2.51342E+05  8.57377E+04  3.39236E+05 -1.32161E+05  2.51274E+05
 -1.89728E+05  8.45447E+04 -1.11270E+05 -3.22993E+04  6.91432E+02 -5.05096E+04  5.45611E+04 -1.44103E+03
  3.45553E+04  5.17994E+04 -1.77022E+04  7.70964E+04 -6.03670E+04  6.43704E+04 -8.55885E+04  3.39763E+04
 -8.24577E+04 -1.10996E+04 -5.84263E+04 -5.31947E+04 -1.61135E+04 -6.95328E+04  2.78651E+04 -4.57683E+04
  4.16568E+04  3.20890E+03  1.59380E+04  4.88424E+04 -3.27978E+04  4.73032E+04 -6.80491E+04 -6.00194E+02
 -5.45269E+04 -5.67159E+04 -7.81409E+03 -7.72841E+04  3.56522E+04 -5.73304E+04  5.04158E+04 -1.83603E+04
  4.52483E+04  1.15241E+04  3.26807E+04  2.57869E+04  1.58700E+04  3.13244E+04 -6.37795E+03  2.80250E+04
 -2.17999E+04  1.33348E+04 -1.61307E+04 -6.49802E+03  7.07220E+03 -5.44974E+03  2.42738E+04  1.33758E+04
  6.05787E+03  3.73919E+04 -3.40724E+04  3.54764E+04 -6.72017E+04  2.00129E+03 -5.95300E+04 -4.54531E+04
 -1.37972E+04 -6.55117E+04  4.04892E+04 -4.68443E+04  6.00509E+04 -2.73616E+03  3.76520E+04  3.30343E+04
 -7.32625E+03  3.82213E+04 -3.09734E+04  2.01600E+04 -3.41491E+04 -3.68998E+03 -1.86770E+04 -1.18006E+04
 -9.41026E+03 -1.48890E+04 -4.44719E+02 -1.99364E+04  8.94733E+03 -2.50497E+04  1.47019E+04 -1.18095E+04
  9.41598E+03  4.13505E+03 -8.86140E+03  1.18154E+04 -2.46686E+04 -7.97234E+03 -7.92624E+03 -3.62102E+04
  2.46616E+04 -4.73677E+04  5.32161E+04 -2.07409E+04  4.83425E+04  2.20207E+04  1.69802E+04  4.78264E+04
 -1.74284E+04  3.73656E+04 -2.92596E+04  3.66880E+03 -1.07441E+04 -3.11938E+04  2.20114E+04 -3.65206E+04
  4.46666E+04 -1.06614E+04  4.00727E+04  2.46115E+04  2.17295E+04  5.06628E+04 -7.80106E+03  5.69611E+04
 -3.72689E+04  3.69154E+04 -4.62448E+04  1.27719E+04 -4.80798E+04 -1.92265E+04 -2.67235E+04 -4.28481E+04
  9.10980E+03 -4.21143E+04  3.52092E+04 -1.64070E+04  3.10953E+04  1.03370E+04  5.86175E+03  2.25183E+04
 -1.34634E+04  1.01179E+04 -1.12044E+04 -7.86915E+03  5.23203E+03 -1.18434E+04  1.95069E+04  5.01527E+03
  1.41378E+04  2.27361E+04 -5.73934E+03  2.70176E+04 -2.33001E+04  1.49241E+04 -3.06652E+04 -4.72943E+03
 -2.53827E+04 -1.79770E+04 -1.13711E+04 -2.50980E+04  4.29123E+03 -2.62288E+04  1.86402E+04 -2.19857E+04
  3.30734E+04 -1.32798E+04  3.95727E+04  3.77782E+03  2.72141E+04  2.47715E+04  3.45500E+03  4.08515E+04
 -2.03850E+04  3.35441E+04 -3.19907E+04  1.08364E+04 -2.22695E+04 -1.02259E+04 -5.31049E+03 -1.14366E+04
  8.69236E-01 -1.40896E+03 -8.14086E+03  7.63420E+03 -2.01140E+04  4.67388E+03 -2.11519E+04 -8.94346E+03
 -1.13143E+04 -2.41335E+04  6.81109E+03 -2.82140E+04  1.81242E+04 -1.86638E+04  2.38197E+04 -2.04162E+03
  1.48695E+04  1.48011E+04 -2.43596E+03  2.39214E+04 -1.71333E+04  1.31732E+04 -2.44709E+04 -4.73370E+03
 -1.85839E+04 -2.07527E+04 -1.66143E+03 -2.77516E+04  1.27569E+04 -2.36220E+04  2.60388E+04 -1.13798E+04
  2.12236E+04 -2.05168E+02  1.47012E+04  5.57976E+03  9.63739E+03  2.62333E+03  1.23059E+04 -1.35400E+03
  2.19702E+04  4.22097E+03  2.58300E+04  1.88411E+04  1.83604E+04  3.81159E+04 -1.60168E+03  4.46210E+04
 -2.57501E+04  3.82870E+04 -4.21817E+04  1.96290E+04 -4.49962E+04 -3.07189E+03 -3.54111E+04 -2.72933E+04
 -1.43707E+04 -3.69439E+04  1.25619E+04 -3.28533E+04  2.77647E+04 -1.55907E+04  2.44156E+04  8.09752E+03
  6.09680E+03  1.74752E+04 -1.11471E+04  1.60829E+04 -2.00918E+04  4.03812E+03 -1.57829E+04 -1.38701E+04
 -1.72877E+03 -1.91288E+04  9.95931E+03 -1.39307E+04  1.30070E+04 -3.60380E+02  1.88860E+03  9.64674E+03
 -9.52278E+03  4.01807E+03 -9.26447E+03 -6.43580E+03 -2.36594E+03 -1.80181E+04  1.33094E+04 -2.03361E+04
  2.42600E+04 -1.08984E+04  2.67243E+04  3.46402E+03  2.26680E+04  1.67943E+04  1.28053E+04  2.95085E+04
 -5.06421E+03  3.10982E+04 -2.02875E+04  1.97069E+04 -2.23452E+04  3.85003E+03 -1.50757E+04 -5.72890E+03
 -6.03554E+03 -7.59881E+03  2.81745E+02  1.21404E+02 -3.43412E+03  3.55684E+03 -7.28139E+03  6.63801E+03
 -1.52938E+04 -1.35544E+02 -1.41005E+04 -1.36546E+04 -6.53140E+03 -2.02054E+04  6.94540E+03 -1.68031E+04
  1.40741E+04 -7.40399E+03  1.06280E+04  3.68853E+03 -3.61837E+02  6.75150E+03 -7.72830E+03 -3.49737E+02
 -7.93737E+03 -1.01167E+04 -1.46139E+03 -1.60837E+04  1.02742E+04 -1.70083E+04  2.09132E+04 -1.03374E+04
  2.33096E+04  2.89109E+03  1.77094E+04  1.43497E+04  4.90002E+03  2.00005E+04 -9.92334E+03  1.57878E+04
 -1.36318E+04  4.60359E+03 -6.98074E+03 -2.67138E+03  1.08737E+03 -2.85655E+03  9.08933E+03  7.55488E+01
  9.03111E+03  8.42530E+03  1.55688E+03  1.29604E+04 -1.00984E+04  1.29085E+04 -1.48954E+04  2.12983E+03
 -1.15616E+04 -7.78497E+03  1.99481E+02 -1.48808E+04  8.55534E+03 -7.02148E+03  1.00663E+04  3.38154E+03
  3.89439E+03  8.31695E+03 -7.08730E+03  1.19210E+04 -1.53324E+04  6.20716E+03 -1.28601E+04 -4.97720E+03
 -9.57734E+03 -1.70050E+04  5.57485E+03 -1.69788E+04  1.69650E+04 -1.10319E+04  1.76047E+04  3.18529E+03
  1.10069E+04  1.44514E+04 -5.83362E+01  1.64176E+04 -1.38888E+04  9.84929E+03 -1.16232E+04 -1.65813E+03
 -1.12065E+04 -1.00727E+04  1.84698E+02 -1.20549E+04  6.84382E+03 -9.98626E+03  8.18826E+03 -3.61785E+03
  4.55981E+03  2.41243E+03 -1.96532E+03  2.68641E+03 -8.50940E+02 -3.03968E+03  3.49986E+03 -6.97707E+03
  1.20128E+04 -4.31929E+03  1.66520E+04  1.13866E+03  1.47584E+04  1.06935E+04  8.20943E+03  2.13346E+04
 -5.76008E+03  2.56701E+04 -2.05273E+04  1.72681E+04 -2.70634E+04  1.78962E+03 -2.22713E+04 -9.92924E+03
 -1.05096E+04 -1.83689E+04 -7.59453E+01 -1.64694E+04  6.41939E+03 -1.03824E+04  6.29495E+03 -4.71118E+03
  5.00188E+03 -2.42567E+03  3.19933E+03 -3.83396E+03  5.51522E+03 -2.99710E+03  9.53753E+03 -3.18326E+03
  1.19752E+04  1.35121E+03  6.40562E+03  9.37654E+03 -3.36420E+03  1.09065E+04 -1.16911E+04  9.46041E+03
 -1.45920E+04 -4.04857E+02 -1.03930E+04 -1.15297E+04 -1.96566E+03 -1.58213E+04  8.27517E+03 -1.72358E+04
  1.58166E+04 -8.21758E+03  2.03851E+04  1.35463E+03  1.39938E+04  1.37172E+04  2.37521E+03  1.89965E+04
 -8.09211E+03  1.59547E+04 -1.15766E+04  6.03473E+03 -7.16003E+03 -1.34421E+03 -2.43762E+03 -3.45109E+02
 -2.15852E+03 -2.88188E+01 -4.99124E+03  4.12516E+03 -6.28379E+03  1.93034E+03 -1.14390E+04 -2.47205E+03
 -7.62450E+03 -9.08907E+03 -1.69262E+03 -1.34136E+04  9.33191E+03 -1.34361E+04  1.64658E+04 -3.00596E+03
  1.74096E+04  7.38088E+03  8.14468E+03  1.53942E+04 -3.56490E+03  1.49430E+04 -1.13285E+04  1.07548E+04
 -1.41248E+04  2.24210E+02 -1.13837E+04 -1.05289E+04 -5.89408E+02 -1.42615E+04  7.92602E+03 -9.40811E+03
  9.21725E+03 -2.13942E+03  6.03666E+03  2.06995E+03  1.87678E+03  5.34714E+03  1.59491E+03  1.85854E+03
  2.22307E+03  1.18244E+03  4.23138E+03  1.84329E+03  5.86997E+03  4.81869E+03  5.78797E+03  8.80191E+03
 -4.17479E+03  1.29300E+04 -1.00004E+04  1.20758E+04 -1.72714E+04  2.80226E+03 -1.82092E+04 -8.08978E+03
 -7.61343E+03 -1.67329E+04  1.48967E+03 -1.77139E+04  1.00217E+04 -1.15973E+04  1.43712E+04 -2.37700E+03
  1.01384E+04  6.84807E+03  1.97798E+03  9.66982E+03 -4.92996E+03  4.27165E+03 -7.34622E+03 -4.09093E+01
 -2.03438E+03 -5.95179E+03  3.20681E+03 -6.62512E+03  4.99802E+03 -3.87219E+03  7.41742E+03  2.26391E+03
  3.73695E+03  2.77882E+03  1.89057E+03  2.18876E+03 -1.25682E+03  1.57952E+03 -8.19748E+01 -5.60719E+02
  3.83179E+03 -7.22942E+02  5.90115E+03  2.37857E+03  3.73532E+03  7.54592E+03 -2.67565E+03  1.11062E+04
 -8.36263E+03  6.42677E+03 -1.03155E+04  2.42218E+03 -7.96992E+03 -4.99622E+03 -3.21843E+03 -5.03855E+03
  7.10252E+02 -5.72932E+03  3.27543E+03 -9.61108E+02  4.45000E+03  2.67742E+03 -1.09124E+03  5.29405E+03
 -6.89890E+03  2.79232E+03 -6.10052E+03 -4.64117E+03 -5.59207E+03 -8.41372E+03  3.09422E+03 -9.39927E+03
  4.77845E+03 -5.59614E+03  5.84843E+03 -9.72023E+02  5.01355E+03  3.48590E+02  6.33402E+02  5.36939E+03
 -4.55594E+03  2.08543E+03 -4.74270E+03 -2.34176E+03  1.45887E+03 -7.55147E+03  9.58744E+03 -5.14245E+03
  1.13139E+04  4.27780E+02  9.64143E+03  4.90916E+03  2.81536E+03  1.20241E+04 -4.28859E+03  1.12454E+04
 -9.22985E+03  3.59036E+03 -8.29100E+03 -1.35251E+03 -5.90237E+03 -7.89470E+03  1.23325E+03 -5.81749E+03
  6.63690E+03 -3.27241E+03  7.80759E+03  2.89837E+03  7.56607E+02  5.79707E+03 -1.49022E+03  5.70056E+03
 -2.65315E+03  2.97223E+03 -3.46864E+03  3.00104E+02 -1.40739E+03 -8.67727E+01 -2.79305E+03  1.81556E+03
 -1.88903E+03  5.35064E+03 -8.11289E+03  3.65603E+03 -1.29035E+04 -7.82577E+02 -1.27268E+04 -6.36434E+03
 -6.92979E+03 -1.56335E+04  2.72210E+03 -1.63319E+04  1.10656E+04 -1.27611E+04  1.61904E+04 -3.69395E+03
  1.49705E+04  3.25974E+03  9.76887E+03  9.05550E+03  9.66933E+01  1.06151E+04 -4.42309E+03  9.29081E+03
 -6.82047E+03  3.45344E+03 -2.89514E+03 -4.97645E+02 -2.38343E+03  3.55154E+02  7.09346E+02 -1.02381E+03
 -1.08881E+02 -1.98567E+03 -3.92992E+03  1.67294E+03 -2.13103E+03 -2.45419E+03  1.84997E+03 -5.35448E+03
  6.34576E+03 -4.91162E+03  5.10576E+03  1.26806E+02  6.55654E+03  6.98873E+03  6.58185E+02  1.13636E+04
 -6.31511E+03  1.39068E+04 -1.20195E+04  7.09335E+03 -1.39470E+04 -1.56557E+03 -1.07473E+04 -8.55680E+03
 -3.69793E+03 -1.13640E+04  3.39301E+03 -1.18243E+04  8.27767E+03 -6.52408E+03  8.39027E+03  4.49158E+02
  3.49619E+03  3.77299E+03  8.91242E+02  2.23872E+03 -1.75900E+03 -9.36931E+02  4.60316E+02 -1.96033E+03
  2.97941E+03 -2.15453E+03  5.71804E+03  2.27051E+03  2.46327E+03  2.73000E+03  2.61294E+03  6.25302E+03
 -5.07081E+03  7.11510E+03 -7.86405E+03  2.03411E+03 -6.68307E+03 -6.86633E+03 -2.38146E+03 -9.12579E+03
  4.71141E+03 -7.92850E+03  9.97831E+03 -2.81197E+03  8.90202E+03  4.85788E+03  4.18058E+03  5.96138E+03
  3.36113E+02  7.19770E+03 -3.65749E+03  5.98991E+03 -4.73837E+03  2.77930E+03 -5.82385E+03  3.93117E+02
 -1.13050E+03  5.17104E+02 -6.45028E+02  2.17352E+03 -4.81282E+03  2.92201E+02 -5.55764E+03 -1.07146E+03
 -5.51516E+03 -3.19037E+03 -1.95994E+03 -8.33650E+03  2.19102E+03 -8.23115E+03  7.79807E+03 -3.47873E+03
  9.69087E+03  8.90231E+02  5.16676E+03  5.73046E+03  1.05321E+03  7.09457E+03 -5.77841E+03  6.94483E+03
