 $NMID ID='MM_0lb_SNR200_20hz_g50_30.RAW', FMTDAT='(8E13.5)'
 TRAMP=1., VOLUME=1. $END
  3.09948E+05  1.20494E+03  3.37856E+05  2.51363E+05  8.47152E+04  3.36934E+05 -1.32472E+05  2.49617E+05
 -1.89513E+05  8.25768E+04 -1.10455E+05 -3.20373E+04  1.30706E+03 -5.10001E+04  5.42162E+04  3.60381E+02
  3.47647E+04  5.25048E+04 -1.66791E+04  7.46860E+04 -6.05845E+04  6.31925E+04 -8.35301E+04  3.22280E+04
 -7.95124E+04 -1.07199E+04 -5.67504E+04 -4.91777E+04 -1.42310E+04 -6.76125E+04  2.63182E+04 -4.51785E+04
  3.91499E+04  4.02035E+03  1.58345E+04  4.66380E+04 -3.46185E+04  4.59124E+04 -6.50222E+04 -7.13916E+02
 -5.30913E+04 -5.63112E+04 -6.22408E+03 -7.55396E+04  3.31136E+04 -5.34621E+04  4.60447E+04 -1.52511E+04
  4.09656E+04  1.12325E+04  3.10894E+04  2.42628E+04  1.60409E+04  2.77596E+04 -5.34273E+03  2.62926E+04
 -2.23919E+04  1.24641E+04 -1.94485E+04 -4.58903E+03  3.77436E+03 -6.14438E+03  2.05613E+04  1.07338E+04
  7.79946E+03  3.35690E+04 -3.03577E+04  3.34622E+04 -6.03190E+04  2.14582E+03 -5.58083E+04 -4.21389E+04
 -1.36107E+04 -6.01306E+04  3.75278E+04 -4.24015E+04  5.44271E+04 -1.64708E+03  3.24866E+04  3.03835E+04
 -6.12226E+03  3.29053E+04 -2.76051E+04  1.28621E+04 -2.69109E+04 -5.78363E+03 -1.37524E+04 -1.06431E+04
 -6.90138E+03 -1.18802E+04 -1.63704E+03 -1.63006E+04  5.31135E+03 -2.30940E+04  1.48259E+04 -1.34471E+04
  1.15313E+04  4.00050E+03 -6.80079E+03  1.36812E+04 -1.98221E+04 -2.52326E+03 -8.83521E+03 -2.96562E+04
  2.03183E+04 -3.93967E+04  4.36108E+04 -1.84572E+04  4.11690E+04  1.76024E+04  1.41846E+04  4.19759E+04
 -1.49310E+04  3.03901E+04 -2.37490E+04  1.14586E+03 -8.21084E+03 -2.60510E+04  2.01923E+04 -3.03056E+04
  3.76819E+04 -7.78373E+03  3.01896E+04  2.19197E+04  1.57970E+04  4.22260E+04 -7.05340E+03  4.44135E+04
 -2.71548E+04  2.76244E+04 -3.69183E+04  8.39686E+03 -3.85957E+04 -1.48386E+04 -2.15393E+04 -3.39005E+04
  7.54487E+03 -3.34442E+04  2.78863E+04 -1.24988E+04  2.58284E+04  1.06653E+04  2.52198E+03  1.77710E+04
 -1.30632E+04  6.62696E+03 -9.20272E+03 -7.72388E+03  5.07825E+03 -1.11846E+04  1.76511E+04  6.88715E+03
  1.28803E+04  2.35304E+04 -6.41337E+03  2.22362E+04 -2.13250E+04  8.52943E+03 -2.38443E+04 -7.26022E+03
 -1.55750E+04 -1.70852E+04 -5.48345E+03 -1.63484E+04  3.29869E+03 -1.52434E+04  1.20054E+04 -1.34586E+04
  2.13449E+04 -1.12024E+04  2.67578E+04  1.13542E+03  2.10906E+04  1.52374E+04  3.29532E+03  3.14205E+04
 -1.49849E+04  2.63351E+04 -2.52876E+04  9.94388E+03 -1.91413E+04 -1.01685E+04 -4.58790E+03 -1.37583E+04
  2.38139E+03 -3.98144E+03 -3.09084E+03  4.68792E+03 -1.21445E+04  6.53158E+03 -1.20578E+04 -4.10541E+03
 -9.17415E+03 -1.48569E+04  3.43652E+03 -1.87337E+04  1.09797E+04 -1.37157E+04  1.52570E+04 -1.53167E+03
  8.87403E+03  9.83278E+03 -4.49213E+02  1.56413E+04 -9.29999E+03  8.75542E+03 -1.42910E+04 -4.04361E+03
 -9.82144E+03 -1.30127E+04 -4.93283E+02 -1.78887E+04  8.89555E+03 -1.45481E+04  1.52860E+04 -6.74073E+03
  1.34462E+04  9.29501E+02  9.72474E+03  4.46031E+03  5.87294E+03 -5.31646E+01  7.02454E+03 -1.58977E+03
  1.35725E+04  2.90092E+03  1.36056E+04  1.13009E+04  8.26423E+03  2.36787E+04 -2.59508E+03  2.44820E+04
 -1.63891E+04  1.94503E+04 -2.30236E+04  9.55783E+03 -2.29026E+04 -1.33051E+03 -2.03646E+04 -1.24201E+04
 -1.03203E+04 -1.98107E+04  5.38060E+03 -1.80222E+04  1.47933E+04 -1.05529E+04  1.52408E+04  4.05147E+03
  6.20468E+03  1.03273E+04 -6.64427E+03  9.92668E+03 -1.35956E+04  1.93140E+03 -8.57544E+03 -7.75262E+03
  8.63619E+02 -1.22189E+04  5.44029E+03 -9.39521E+03  7.82518E+03 -1.58084E+03  1.59837E+03  3.76980E+03
 -5.23587E+03  1.17490E+03 -2.92996E+03 -4.65138E+03  1.63299E+03 -8.81282E+03  6.89247E+03 -1.09522E+04
  1.09275E+04 -5.33845E+03  1.08034E+04  2.59242E+03  9.23305E+03  8.78754E+03  3.24198E+03  1.24688E+04
 -2.51813E+03  1.38852E+04 -9.41364E+03  8.70524E+03 -9.59837E+03  2.71650E+03 -7.18042E+03 -8.89993E+02
 -4.46672E+03 -2.58702E+03 -1.19530E+03  1.99502E+03 -1.60616E+03  2.31988E+03 -4.04611E+03  3.47232E+03
 -7.85700E+03 -9.65863E+02 -7.04096E+03 -6.10375E+03 -3.24662E+03 -1.15241E+04  3.39648E+03 -7.82286E+03
  6.33459E+03 -4.60120E+03  5.13979E+03  1.46264E+03  1.45459E+03  2.00814E+03 -2.92251E+03 -9.91174E+02
 -3.90228E+03 -5.27223E+03 -4.93010E+02 -6.12311E+03  4.07108E+03 -7.12487E+03  9.54709E+03 -4.06629E+03
  1.11002E+04  6.26386E+02  7.98819E+03  5.73573E+03  1.07189E+03  7.80915E+03 -4.62589E+03  7.11678E+03
 -6.82403E+03  3.04075E+03 -2.83349E+03 -7.28424E+02  1.11453E+03 -2.82547E+03  4.04962E+03 -7.32492E+02
  3.83775E+03  3.20419E+03  2.29693E+03  5.23192E+03 -4.28492E+03  6.08347E+03 -8.41474E+03  1.83259E+03
 -5.01817E+03 -2.74446E+03  1.09328E+02 -5.97743E+03  3.64755E+03 -2.04196E+03  3.12836E+03  7.41820E+02
 -3.26989E+02  2.79310E+03 -3.42725E+03  4.21182E+03 -3.62599E+03  1.12327E+03 -4.17623E+03 -9.10582E+02
 -2.52020E+03 -5.11251E+03  5.83666E+02 -5.28730E+03  4.70248E+03 -2.94098E+03  5.55597E+03  1.86732E+02
  4.68261E+03  4.50380E+03  7.08702E+02  6.36684E+03 -3.46870E+03  3.60536E+03 -4.44085E+03 -4.49265E+02
 -4.84794E+03 -4.52870E+03 -1.03473E+03 -4.13423E+03  3.26644E+03 -5.46082E+03  2.77668E+03 -2.22006E+03
  2.43220E+03  4.77214E+02  4.44202E+02  2.49175E+03  1.05394E+03  9.97145E+02 -5.53633E+02 -8.59167E+02
  3.43416E+03  9.46846E+02  4.84832E+03  7.95374E+02  4.54370E+03  2.27456E+03  4.79222E+03  6.05844E+03
  5.11073E+01  7.24671E+03 -6.59523E+03  5.56805E+03 -8.33339E+03  8.97358E+02 -6.52461E+03 -2.24050E+03
 -3.59936E+03 -5.05612E+03 -3.37282E+02 -3.46170E+03  2.73468E+03 -2.46681E+03  1.30395E+03 -9.07114E+02
  2.37495E+03 -2.83740E+03  1.40842E+03 -2.36636E+03  3.52104E+03 -7.42406E+02  3.53642E+03 -2.57821E+01
  3.55269E+03  1.24887E+03  9.80850E+02  2.83680E+03 -2.22504E+03  2.70110E+03 -3.24166E+03  2.29223E+03
 -5.07659E+03 -1.06542E+03 -1.28505E+03 -1.56004E+03  4.38717E+02 -4.70526E+03  2.98520E+03 -4.76894E+03
  5.10595E+03 -2.35858E+03  5.49351E+03 -2.05894E+01  3.79677E+03  3.36109E+03  9.91512E+02  4.39278E+03
 -1.30399E+03  4.90662E+03 -2.48240E+03  1.50082E+03 -1.60135E+03 -2.56282E+02 -6.27025E+02 -1.73288E+02
  1.04018E+03  3.17566E+01 -2.02530E+03  2.41169E+03 -2.37024E+03  5.47321E+02 -3.03462E+03  1.79602E+02
 -3.97070E+02 -3.77049E+03  1.58225E+03 -4.03935E+03  1.71900E+03 -3.99317E+03  2.05683E+03 -7.89970E+02
  2.08719E+03  3.17587E+03  2.49525E+03  2.08309E+03 -2.63232E+02  4.15971E+03 -2.14963E+03  1.98409E+03
 -1.95011E+03  1.86598E+02 -3.78844E+03 -2.07099E+03  2.41026E+02 -2.37972E+03  1.80416E+03 -1.93340E+03
  2.15830E+03 -1.48715E+03  2.31565E+03  1.36963E+03 -6.42578E+01  1.75351E+02  1.25484E+03  3.52602E+02
  1.91086E+03  6.99939E+02  1.18965E+03  9.84566E+02  1.44311E+03  1.22229E+03  2.47155E+03  1.57712E+03
 -5.95382E+02  2.95771E+03 -2.86553E+03  4.46650E+03 -2.51309E+03  2.12035E+03 -3.71283E+03  7.77901E+02
 -1.93181E+03 -2.37036E+03  9.67886E+02 -3.74764E+03  1.77386E+03 -1.75593E+03  2.37516E+03 -4.58878E+02
  1.63609E+03  1.47412E+03  4.46649E+02  1.98924E+03 -5.39950E+02  1.04929E+03 -9.49744E+02  1.49789E+03
 -9.21965E+02 -1.47879E+03  8.64976E+02 -1.95850E+03  5.82220E+02 -4.31051E+02  9.80713E+02  1.94588E+02
 -4.81350E+02  1.40252E+02 -2.65730E+02 -2.28093E+02 -1.02020E+03  1.45692E+03  1.60738E+03 -4.20756E+01
  2.13829E+02  5.59652E+02  2.13992E+03  7.17034E+02  4.65367E+02  1.96764E+03  9.66276E+02  3.54727E+03
 -1.04921E+03 -1.27656E+02 -1.33800E+03 -1.96182E+02 -1.22137E+03 -1.01667E+03  3.73644E+02 -4.50014E+02
  1.09306E+03  3.85813E+02  2.13664E+03 -9.54555E+02 -6.13704E+02  1.59934E+03 -8.54229E+02  6.94792E+02
 -1.31404E+03  1.98871E+02 -2.96993E+02 -5.77072E+02 -1.16337E+03 -9.47751E+02  1.59350E+02 -1.57277E+03
  3.30132E+02  1.69942E+02 -3.38928E+01  6.55290E+02  1.19110E+03 -5.44889E+02 -1.76353E+02  1.65010E+03
  2.17190E+02 -4.80053E+02 -7.18536E+02 -5.33264E+02  8.60326E+02 -4.43746E+02  7.67033E+02 -2.65689E+02
  1.63208E+03  4.55616E+02  1.88668E+03 -9.99497E+01  2.36257E+03  1.10334E+03 -5.24641E+01  1.78887E+03
  4.30301E+02  3.68806E+02 -1.15455E+03  4.02876E+02 -1.07427E+03 -1.23151E+03  1.01198E+02  1.93824E+02
  8.52281E+02 -2.95892E+01  1.83662E+02  5.18128E+02  2.70749E+02  1.09336E+03  5.37810E+02  1.13432E+03
 -6.37494E+02  4.76900E+02 -1.24698E+03 -5.19905E+02  2.15943E+01  1.18670E+02 -3.93091E+02  3.62618E+02
  1.15176E+02  1.39135E+03 -1.35593E+03 -1.37536E+02 -7.71899E+02  1.62037E+03 -1.63745E+03 -9.15803E+02
  2.92843E+02 -2.15376E+03 -4.46009E+02 -2.56721E+03  4.81283E+02 -2.98979E+03  2.17789E+03 -6.68920E+02
  1.54217E+03 -6.37249E+02  7.89246E+02  5.65243E+02 -1.13343E+02  1.60205E+03 -6.90087E+02  1.00107E+03
  7.40659E+02  5.68527E+02  5.84953E+02  1.38367E+02 -1.02183E+03  9.28448E+02 -2.65885E+03  1.10045E+03
 -1.77674E+03  6.54096E+01 -1.14107E+03 -1.53664E+03  3.59219E+02 -6.58702E+02 -3.85528E+02 -5.56784E+02
  4.30475E+02 -7.14324E+02 -9.05637E+01  7.87776E+02  5.42038E+02  9.08735E+02 -6.92161E+02  9.70459E+02
 -7.03890E+02  1.74697E+03 -1.56432E+03  4.78176E+02 -1.43782E+03 -1.27486E+02 -5.32536E+01 -1.18945E+03
 -2.46892E+02 -3.38368E+02  2.48945E+02 -4.15041E+02 -5.44866E+02 -1.74637E+02  7.26639E+02 -5.92630E+01
  4.24073E+02  1.39582E+02 -4.17824E+02 -7.68805E+02 -1.29615E+03 -6.49454E+02 -3.76928E+01 -7.24277E+02
  4.42949E+02 -5.22843E+01 -1.89252E+02  1.02611E+03 -9.27187E+02  1.03018E+03  4.04568E+02  2.93832E+01
 -1.11227E+03  7.93602E+02  3.46016E+01  6.92703E+02 -2.49967E+02 -1.11275E+02 -4.71037E+02 -1.43712E+03
  8.36579E-02 -8.76643E+02 -9.86804E+01 -3.81327E+02  7.45429E+01  2.58761E+02 -3.65521E+02  7.06814E+02
 -4.98194E+02  7.98158E+02  3.88690E+02  4.73730E+02 -2.79917E+02  5.43893E+02  1.14586E+02 -4.33891E+02
  3.68815E+01 -6.12908E+02 -4.65720E+02 -2.16022E+02  1.38611E+02 -8.60951E+02 -4.28846E+02 -5.18325E+02
 -6.64784E+02  1.62579E+02  2.95996E+02 -1.14302E+03  1.29407E+03 -3.71535E+02  3.28834E+02 -6.50718E+02
  7.37502E+02  1.30513E+02 -8.18830E+02  5.57163E+02 -4.78755E+02  8.89064E+02 -1.62933E+02  1.47489E+03
