 $NMID ID='MM_0lb_SNR200_11hz_g50_23.RAW', FMTDAT='(8E13.5)'
 TRAMP=1., VOLUME=1. $END
  3.09428E+05 -4.94219E+02  3.39053E+05  2.49731E+05  8.54750E+04  3.37817E+05 -1.32746E+05  2.51267E+05
 -1.91286E+05  8.36473E+04 -1.13730E+05 -3.16684E+04 -1.08574E+03 -5.04626E+04  5.35197E+04 -6.34196E+02
  3.53613E+04  5.42183E+04 -1.77435E+04  7.69430E+04 -6.14356E+04  6.34115E+04 -8.52546E+04  3.31068E+04
 -8.16621E+04 -1.00948E+04 -5.74859E+04 -5.24357E+04 -1.44010E+04 -7.02607E+04  2.89631E+04 -4.69909E+04
  4.10598E+04  4.82633E+03  1.63521E+04  4.74773E+04 -3.47543E+04  4.66229E+04 -6.69634E+04  1.05563E+03
 -5.30050E+04 -5.80139E+04 -8.07330E+03 -7.78827E+04  3.35040E+04 -5.59826E+04  4.86658E+04 -1.79030E+04
  4.40505E+04  1.23064E+04  3.24239E+04  2.58537E+04  1.52719E+04  3.04202E+04 -4.79967E+03  2.79723E+04
 -2.18256E+04  1.23333E+04 -1.86345E+04 -7.29327E+03  5.70863E+03 -7.17072E+03  2.29577E+04  1.22415E+04
  7.05445E+03  3.63932E+04 -3.40465E+04  3.68370E+04 -6.48226E+04  3.10718E+03 -5.83239E+04 -4.41208E+04
 -1.34949E+04 -6.37916E+04  3.97500E+04 -4.56573E+04  6.09487E+04 -3.76252E+03  3.66111E+04  3.38635E+04
 -5.56240E+03  3.77107E+04 -3.27283E+04  1.76643E+04 -3.24036E+04 -4.28310E+03 -1.87108E+04 -1.33392E+04
 -9.37169E+03 -1.33150E+04 -6.36315E+02 -1.91946E+04  8.43444E+03 -2.40586E+04  1.68812E+04 -1.28722E+04
  1.26523E+04  5.64198E+03 -1.03757E+04  1.43176E+04 -2.23904E+04 -5.69679E+03 -8.48185E+03 -3.61547E+04
  2.38571E+04 -4.52035E+04  5.12703E+04 -2.08007E+04  4.82615E+04  2.19049E+04  1.72793E+04  4.61704E+04
 -1.58963E+04  3.45085E+04 -2.54215E+04  1.84457E+03 -1.09624E+04 -2.92587E+04  2.13128E+04 -3.58520E+04
  4.32411E+04 -9.19773E+03  3.89984E+04  2.49116E+04  2.08174E+04  5.04076E+04 -7.43249E+03  5.32434E+04
 -3.54126E+04  3.66395E+04 -4.44796E+04  1.07777E+04 -4.70361E+04 -1.67534E+04 -2.58094E+04 -4.03204E+04
  7.36250E+03 -4.06075E+04  3.28416E+04 -1.66084E+04  3.17922E+04  1.09788E+04  4.58307E+03  1.96305E+04
 -1.36074E+04  9.77006E+03 -1.03003E+04 -7.99594E+03  7.52591E+03 -1.23948E+04  1.83803E+04  5.59294E+03
  1.49155E+04  2.31273E+04 -6.05069E+03  2.59343E+04 -2.34915E+04  1.26053E+04 -3.10111E+04 -2.82813E+03
 -2.27360E+04 -1.72126E+04 -1.14313E+04 -2.27881E+04  4.88778E+03 -2.22257E+04  1.96364E+04 -2.01249E+04
  2.97289E+04 -1.27334E+04  3.62250E+04  3.72933E+03  2.62139E+04  2.14207E+04  5.05950E+03  3.85986E+04
 -2.00321E+04  3.35929E+04 -2.96003E+04  9.32843E+03 -2.09817E+04 -1.08208E+04 -5.14569E+03 -1.16696E+04
  9.44567E+02  1.50354E+02 -5.91341E+03  7.62199E+03 -1.77014E+04  5.56454E+03 -1.88710E+04 -8.58181E+03
 -1.13641E+04 -2.15390E+04  5.11303E+03 -2.59451E+04  1.84700E+04 -1.78680E+04  1.92789E+04 -6.77335E+02
  1.21128E+04  1.44752E+04 -1.05772E+03  2.14431E+04 -1.46128E+04  1.19275E+04 -2.39157E+04 -4.83214E+03
 -1.56698E+04 -1.78132E+04 -3.55469E+03 -2.52676E+04  1.34118E+04 -2.07612E+04  1.99712E+04 -1.06128E+04
  1.91666E+04  9.00521E+02  1.51172E+04  4.58770E+03  8.07986E+03  8.20704E+02  1.08820E+04 -1.20271E+03
  1.85278E+04  1.66729E+03  2.38928E+04  1.81874E+04  1.46457E+04  3.49277E+04 -3.08555E+03  3.98290E+04
 -2.41329E+04  3.43330E+04 -3.73184E+04  1.74040E+04 -3.94091E+04 -2.60729E+03 -3.35920E+04 -2.28482E+04
 -1.31688E+04 -3.34364E+04  1.08522E+04 -2.85865E+04  2.62537E+04 -1.53136E+04  2.07679E+04  7.47021E+03
  7.69159E+03  1.82105E+04 -1.08861E+04  1.39805E+04 -1.81314E+04  3.12724E+03 -1.57688E+04 -1.31233E+04
 -2.13002E+02 -1.91411E+04  8.89971E+03 -1.17075E+04  1.23863E+04 -1.30751E+03  2.37858E+03  6.53460E+03
 -8.30799E+03  3.02952E+03 -5.72376E+03 -8.01477E+03 -1.18571E+03 -1.52627E+04  1.06500E+04 -1.62088E+04
  2.06041E+04 -8.78567E+03  2.25832E+04  3.36378E+03  1.84891E+04  1.49973E+04  9.84025E+03  2.59495E+04
 -4.51111E+03  2.66694E+04 -1.76959E+04  1.66845E+04 -2.00499E+04  3.57098E+03 -1.45062E+04 -5.78927E+03
 -5.30403E+03 -6.18681E+03 -4.05693E+02  1.45873E+03 -3.03835E+03  2.56144E+03 -6.90020E+03  4.99280E+03
 -1.38108E+04 -2.00611E+03 -1.22670E+04 -1.05023E+04 -6.15835E+03 -1.68193E+04  5.32272E+03 -1.46781E+04
  1.11372E+04 -5.28228E+03  8.38914E+03  3.40878E+03  1.00788E+03  6.00754E+03 -6.87437E+03 -5.38497E+01
 -6.10700E+03 -9.94977E+03 -7.60689E+02 -1.30088E+04  7.46931E+03 -1.34675E+04  1.82554E+04 -6.71589E+03
  2.08906E+04  1.44436E+03  1.45996E+04  1.22644E+04  1.97722E+03  1.52789E+04 -1.02526E+04  1.29786E+04
 -1.09295E+04  3.84455E+03 -6.15016E+03 -1.28312E+03  1.49654E+03 -6.14435E+03  7.44806E+03 -1.23050E+03
  4.77597E+03  6.88756E+03  2.27467E+03  1.17013E+04 -8.16393E+03  1.14139E+04 -1.31848E+04  2.79374E+03
 -1.07549E+04 -7.00313E+03  2.18346E+02 -1.20721E+04  7.05400E+03 -6.01037E+03  7.01735E+03  3.90701E+03
  1.89591E+03  9.54497E+03 -7.74823E+03  8.72145E+03 -1.09096E+04  4.14654E+03 -1.22142E+04 -3.52482E+03
 -7.78267E+03 -1.37074E+04  3.62990E+03 -1.54949E+04  1.33488E+04 -9.94687E+03  1.42774E+04  2.83342E+03
  6.66118E+03  1.06069E+04 -1.68665E+03  1.41923E+04 -1.00530E+04  6.90568E+03 -1.11607E+04 -1.14454E+03
 -1.10887E+04 -9.34812E+03 -1.17850E+03 -9.18237E+03  6.22531E+03 -6.42561E+03  6.20246E+03 -2.81964E+03
  4.04229E+03  1.16303E+03 -6.09362E+02  1.78466E+03 -1.32060E+03 -3.06326E+03  2.28982E+03 -5.45965E+03
  8.60997E+03 -3.51472E+03  1.21043E+04  1.99622E+03  1.33894E+04  1.00592E+04  7.68480E+03  1.63878E+04
 -3.51164E+03  1.97423E+04 -1.53711E+04  1.51534E+04 -2.29570E+04  4.22188E+03 -1.71727E+04 -8.25137E+03
 -8.36479E+03 -1.41364E+04  8.54545E+01 -1.25364E+04  3.27589E+03 -6.88641E+03  5.82676E+03 -4.19898E+03
  2.37711E+03 -1.94343E+03  2.27293E+03 -2.94294E+03  5.16322E+03 -3.66029E+03  7.32139E+03 -6.81655E+02
  8.78701E+03  1.61802E+03  5.25033E+03  7.38591E+03 -2.97768E+03  8.55617E+03 -8.97664E+03  5.78930E+03
 -1.33970E+04 -2.55724E+03 -7.00446E+03 -9.01607E+03 -1.70621E+03 -1.30321E+04  7.54850E+03 -1.29968E+04
  1.25103E+04 -7.55081E+03  1.67613E+04  8.12091E+02  1.31019E+04  1.13220E+04  9.83529E+02  1.53819E+04
 -5.68574E+03  1.31916E+04 -8.34111E+03  3.47462E+03 -4.87845E+03  2.38326E+01 -2.38493E+03 -5.72531E+02
  6.36449E+02  3.87887E+02 -2.04626E+03  2.56999E+03 -6.17009E+03  1.32057E+03 -8.25766E+03 -7.06357E+02
 -5.66127E+03 -7.03906E+03  1.22948E+03 -1.29564E+04  6.92977E+03 -8.94290E+03  1.16301E+04 -4.05593E+03
  1.22176E+04  7.18503E+03  3.96787E+03  9.91726E+03 -2.06007E+03  1.21680E+04 -9.26857E+03  8.06246E+03
 -1.15808E+04  1.61390E+03 -9.17025E+03 -6.72185E+03 -1.36357E+03 -9.55763E+03  4.68961E+03 -6.76312E+03
  6.43072E+03 -1.78579E+03  4.86170E+03  9.89587E+02  1.05339E+03  3.35808E+03  4.63715E+02  1.99545E+03
  2.44223E+03  1.38769E+03  3.31187E+03  1.76741E+03  3.15903E+03  4.56644E+03  3.72554E+03  6.88014E+03
 -1.37961E+03  9.49927E+03 -7.67444E+03  1.02308E+04 -9.86229E+03  2.47252E+03 -1.25033E+04 -4.66927E+03
 -6.31977E+03 -1.28411E+04  2.09553E+03 -1.28178E+04  6.58065E+03 -8.18594E+03  9.58762E+03 -8.03084E+02
  7.65610E+03  4.71193E+03  2.21491E+03  5.19012E+03 -3.57755E+03  3.94281E+03 -3.80862E+03 -1.12644E+03
 -1.74290E+03 -4.63998E+03  1.55107E+03 -4.64938E+03  5.18214E+03 -2.94510E+03  4.44145E+03  3.81359E+02
  3.69651E+03  7.65599E+02  1.03299E+03  2.24319E+03 -1.02075E+03  1.69973E+03  2.25026E+03  7.84002E+02
  2.48511E+03  1.80266E+02  4.96405E+03  1.47747E+03  2.02162E+03  5.34477E+03  2.92586E+02  8.93427E+03
 -4.94514E+03  6.03928E+03 -6.68720E+03  1.35290E+03 -7.97316E+03 -3.69076E+03 -1.97602E+03 -5.13860E+03
 -8.80061E+02 -4.84029E+03  3.52126E+03 -2.74325E+03  1.67716E+03  1.64615E+03 -7.60555E+02  3.44427E+03
 -4.01713E+03  2.24103E+03 -4.81288E+03 -2.44682E+03 -3.69854E+03 -4.85650E+03  2.32331E+03 -7.37264E+03
  4.25252E+03 -3.48476E+03  4.91168E+03 -1.72136E+02  3.80285E+03  1.45755E+03  2.91107E+02  2.47300E+03
 -1.27237E+03  7.81782E+02 -2.22821E+03 -2.27943E+03  2.72497E+03 -4.62621E+03  6.08148E+03 -3.94523E+03
  5.88212E+03  1.16266E+03  7.67896E+03  3.95065E+03  2.85333E+03  6.06161E+03 -2.17847E+03  8.00100E+03
 -6.27979E+03  3.09319E+03 -6.22960E+03 -1.31893E+03 -2.84224E+03 -5.11857E+03  1.28612E+03 -3.91033E+03
  5.46830E+03 -1.89727E+03  4.13920E+03  2.64333E+03  1.68325E+03  5.28057E+03 -4.88437E+02  3.36144E+03
 -2.71755E+03  1.98099E+03 -1.71972E+03  1.42983E+03 -5.54515E+01  3.36445E+02 -1.37804E+03  4.09247E+02
 -9.05021E+02  4.12353E+03 -3.72282E+03  3.10249E+03 -6.87523E+03  7.55448E+02 -8.92173E+03 -5.53251E+03
 -4.39159E+03 -9.82994E+03  2.91662E+03 -1.11817E+04  6.65446E+03 -8.80699E+03  9.68707E+03 -4.42282E+03
  9.98425E+03  8.61756E+02  6.15124E+03  6.51063E+03  1.84763E+02  7.40682E+03 -1.51672E+03  5.88928E+03
 -4.30368E+03  2.71115E+03 -2.69382E+03 -6.60165E+02 -1.54607E+03 -2.31025E+02 -1.22831E+03 -1.11004E+02
 -2.62564E+03 -3.04550E+01 -5.88828E+01  7.72047E+02 -2.54867E+02 -2.47796E+03  1.30776E+03 -4.31612E+03
  1.94538E+03 -2.06995E+03  3.55135E+03 -1.96973E+02  4.43558E+03  4.30821E+03  7.86966E+02  8.27635E+03
 -3.84419E+03  7.54098E+03 -6.88340E+03  5.58154E+03 -9.32308E+03 -9.66448E+02 -6.39464E+03 -6.00751E+03
 -1.79785E+03 -6.92088E+03  2.23672E+03 -6.32939E+03  3.63259E+03 -3.77779E+03  4.69427E+03 -4.70970E+02
  3.47857E+03  3.77521E+03 -9.31537E+02  2.07708E+03 -5.72648E+02  2.00857E+01 -1.82686E+02  1.01529E-01
  2.48982E+03 -1.28318E+03  3.03963E+03  1.96250E+02  1.76258E+03  3.72642E+03  8.72356E+02  3.46582E+03
 -3.04396E+03  3.88787E+03 -3.53689E+03 -1.20149E+03 -5.46366E+03 -4.44506E+03 -4.66143E+02 -6.50518E+03
  2.05549E+03 -4.12644E+03  5.15277E+03 -1.89210E+03  4.60113E+03  9.70625E+02  3.04757E+03  3.51379E+03
  2.66602E+02  3.98679E+03 -9.84574E+02  3.52538E+03 -2.88679E+03  1.20272E+03 -2.75947E+03  1.53299E+02
 -8.94163E+02  3.46319E+02 -1.06698E+03 -1.54067E+02 -2.40715E+03  4.45480E+02 -3.30031E+03 -1.59034E+03
 -4.39278E+03 -2.09551E+03 -4.27645E+02 -5.16314E+03  2.38506E+03 -4.88756E+03  3.28010E+03 -2.75219E+03
  5.36685E+03 -3.41006E+02  1.56126E+03  2.75329E+03  5.95362E+02  5.99617E+03 -2.99799E+03  4.12158E+03
