 $NMID ID='MM_0lb_SNR200_17hz_g40_52.RAW', FMTDAT='(8E13.5)'
 TRAMP=1., VOLUME=1. $END
  3.09098E+05  3.36898E+02  3.37993E+05  2.49874E+05  8.57905E+04  3.36377E+05 -1.32130E+05  2.50289E+05
 -1.89350E+05  8.18724E+04 -1.11401E+05 -3.22888E+04  2.08203E+03 -4.98355E+04  5.38654E+04 -2.15817E+02
  3.50193E+04  5.28165E+04 -1.76240E+04  7.42386E+04 -6.05094E+04  6.28825E+04 -8.26987E+04  3.05541E+04
 -7.93088E+04 -1.17057E+04 -5.69205E+04 -5.02201E+04 -1.52295E+04 -6.81280E+04  2.72985E+04 -4.55531E+04
  3.83846E+04  3.76406E+03  1.61468E+04  4.69793E+04 -3.40469E+04  4.60773E+04 -6.58701E+04 -4.91806E+02
 -5.33964E+04 -5.65633E+04 -5.82621E+03 -7.51970E+04  3.32106E+04 -5.27042E+04  4.63762E+04 -1.58031E+04
  4.17497E+04  1.11073E+04  3.16583E+04  2.54631E+04  1.64883E+04  2.90457E+04 -3.84043E+03  2.64287E+04
 -2.18411E+04  1.14606E+04 -1.82921E+04 -3.86250E+03  5.05858E+03 -8.42279E+03  2.14433E+04  1.06594E+04
  7.86378E+03  3.30994E+04 -3.13612E+04  3.37234E+04 -6.00622E+04  2.73613E+03 -5.58085E+04 -4.18370E+04
 -1.13757E+04 -6.15851E+04  3.83877E+04 -4.38570E+04  5.64613E+04 -1.33460E+03  3.20396E+04  3.19626E+04
 -6.89006E+03  3.26535E+04 -2.82378E+04  1.21123E+04 -2.76960E+04 -5.90068E+03 -1.48153E+04 -9.91439E+03
 -7.44843E+03 -1.04383E+04 -1.63809E+03 -1.59417E+04  6.18840E+03 -2.15241E+04  1.46621E+04 -1.31596E+04
  1.22015E+04  3.81992E+03 -6.70986E+03  1.41555E+04 -1.97313E+04 -3.78763E+03 -8.32236E+03 -3.02484E+04
  2.20916E+04 -4.07969E+04  4.52112E+04 -1.89084E+04  4.12722E+04  1.83247E+04  1.52099E+04  4.13834E+04
 -1.54385E+04  3.03028E+04 -2.36948E+04  1.00688E+03 -7.51646E+03 -2.62841E+04  1.95321E+04 -3.12154E+04
  3.79729E+04 -7.44410E+03  3.27017E+04  2.26251E+04  1.53998E+04  4.24796E+04 -8.10992E+03  4.59891E+04
 -2.83787E+04  3.06479E+04 -3.81615E+04  9.58529E+03 -3.83704E+04 -1.57053E+04 -2.13370E+04 -3.49684E+04
  7.41503E+03 -3.44010E+04  2.92787E+04 -1.34392E+04  2.79852E+04  1.03459E+04  2.51877E+03  1.74631E+04
 -1.23410E+04  6.71538E+03 -9.68473E+03 -8.17798E+03  6.03144E+03 -9.37483E+03  1.65092E+04  6.58899E+03
  1.19074E+04  2.08545E+04 -6.41023E+03  2.24556E+04 -2.06742E+04  9.39891E+03 -2.60795E+04 -6.50630E+03
 -1.69940E+04 -1.58309E+04 -5.28217E+03 -1.74856E+04  3.89797E+03 -1.47695E+04  1.27679E+04 -1.34351E+04
  2.25077E+04 -1.17334E+04  2.87026E+04 -1.03555E+02  2.30387E+04  1.69450E+04  3.34267E+03  3.30083E+04
 -1.67364E+04  2.82557E+04 -2.65010E+04  1.03374E+04 -1.97953E+04 -1.07482E+04 -4.62292E+03 -1.40340E+04
  1.89386E+03 -4.31526E+03 -2.45333E+03  5.10445E+03 -1.23568E+04  5.98306E+03 -1.30943E+04 -3.83023E+03
 -9.03091E+03 -1.61237E+04  5.17130E+03 -1.99688E+04  1.29188E+04 -1.44870E+04  1.44595E+04 -2.23090E+03
  9.36357E+03  1.08920E+04 -1.08459E+03  1.57600E+04 -1.10422E+04  8.13664E+03 -1.54327E+04 -3.25373E+03
 -1.19833E+04 -1.47481E+04 -2.24903E+03 -1.97894E+04  8.27530E+03 -1.61755E+04  1.66326E+04 -8.35296E+03
  1.47325E+04  5.30370E+02  9.98160E+03  3.44774E+03  5.34916E+03  1.05060E+03  8.34822E+03 -1.33182E+03
  1.44131E+04  3.45820E+03  1.56069E+04  1.33282E+04  1.01962E+04  2.65394E+04 -3.44692E+03  2.83907E+04
 -1.65088E+04  2.10536E+04 -2.57462E+04  8.60146E+03 -2.64246E+04  4.38148E+01 -2.33009E+04 -1.62310E+04
 -1.06652E+04 -2.08113E+04  6.60103E+03 -1.85716E+04  1.83418E+04 -1.23170E+04  1.58801E+04  4.80383E+03
  6.86087E+03  1.23409E+04 -7.02613E+03  1.06749E+04 -1.31930E+04  2.47742E+03 -1.13874E+04 -8.19259E+03
 -5.93124E+02 -1.16014E+04  6.37804E+03 -9.43436E+03  8.54665E+03 -1.39770E+03  1.54988E+03  4.82510E+03
 -6.08176E+03  2.24564E+03 -3.73016E+03 -4.33627E+03  7.76739E+02 -1.11749E+04  8.15051E+03 -1.08382E+04
  1.28358E+04 -4.06165E+03  1.32133E+04  2.72586E+03  1.16225E+04  9.60089E+03  5.85419E+03  1.51212E+04
 -1.95958E+03  1.65041E+04 -9.65400E+03  1.09648E+04 -1.25032E+04  2.88537E+03 -7.86585E+03 -2.43818E+03
 -5.98226E+03 -3.09456E+03 -1.62008E+03  1.30016E+03 -2.73459E+03  1.92506E+03 -4.44866E+03  4.08428E+03
 -9.08279E+03 -2.61473E+02 -8.26560E+03 -6.84751E+03 -4.19228E+03 -1.28908E+04  3.46070E+03 -1.01403E+04
  8.34355E+03 -3.78884E+03  5.55711E+03  1.43170E+03  3.78595E+01  3.47076E+03 -3.47066E+03 -6.88704E+02
 -3.43713E+03 -5.39957E+03 -1.45225E+03 -7.82225E+03  3.08369E+03 -7.73246E+03  1.05053E+04 -4.97135E+03
  1.19382E+04  7.07283E+02  9.41471E+03  5.83146E+03  8.50783E+02  9.87139E+03 -5.18782E+03  8.48882E+03
 -6.51111E+03  3.34175E+03 -2.81161E+03 -1.27848E+03  7.73380E+02 -2.53913E+03  5.43089E+03 -4.39027E+02
  3.17965E+03  2.96017E+03  4.34315E+02  6.73518E+03 -4.85765E+03  6.74760E+03 -7.46157E+03  2.96608E+03
 -5.23454E+03 -4.25735E+03  2.50033E+02 -6.99111E+03  4.40121E+03 -3.16024E+03  3.74482E+03  2.05281E+03
 -2.65239E+02  4.27935E+03 -4.76900E+03  5.36269E+03 -7.03015E+03  2.92665E+03 -5.53936E+03 -1.40915E+03
 -3.09729E+03 -6.45601E+03  1.55088E+03 -8.26764E+03  7.38166E+03 -4.21416E+03  7.62160E+03  1.62130E+03
  4.65440E+03  7.40176E+03  8.48877E+02  8.11795E+03 -5.96172E+03  4.77851E+03 -5.18917E+03 -1.31809E+03
 -7.00288E+03 -5.31118E+03 -2.31057E+03 -5.20223E+03  3.12899E+03 -5.88290E+03  2.21064E+03 -2.23019E+03
  3.14762E+03 -6.07061E+02 -3.70657E+02  2.19047E+03  8.80048E+01 -6.12512E+02  7.85289E+02 -2.15458E+03
  4.49484E+03 -1.16692E+03  7.18660E+03  8.38084E+02  5.79337E+03  3.80189E+03  5.52145E+03  8.03867E+03
 -1.14371E+03  1.00076E+04 -8.18996E+03  7.77903E+03 -1.13285E+04  1.01826E+03 -9.01866E+03 -2.02841E+03
 -4.64927E+03 -6.38785E+03  7.43287E+00 -5.98427E+03  3.46179E+03 -2.10126E+03  1.92480E+03 -2.00862E+03
  6.82765E+02 -1.73717E+03  3.04067E+03 -2.76932E+03  4.87433E+03 -1.36875E+03  3.60975E+03  6.27275E+02
  4.63428E+03  1.04925E+03  1.53575E+03  3.97290E+03 -2.29481E+02  2.42697E+03 -5.11337E+03  3.10672E+03
 -5.77150E+03 -8.41891E+02 -2.57442E+03 -2.88198E+03  7.95193E+02 -6.70261E+03  3.55546E+03 -4.80415E+03
  4.69546E+03 -3.95981E+03  7.72009E+03  2.01790E+02  5.07821E+03  4.77646E+03  1.82643E+03  6.37631E+03
 -2.49993E+03  6.77551E+03 -3.10675E+03  1.95375E+03 -2.09892E+03 -5.98853E+02 -1.03190E+03 -4.72389E+02
 -1.20260E+03  6.59519E+01 -6.80959E+02  1.66778E+03 -3.27363E+03  1.65833E+03 -3.96134E+03  3.27213E+02
 -2.60475E+03 -4.89186E+03  8.14680E+02 -6.30993E+03  2.87152E+03 -5.47942E+03  4.68276E+03 -1.43358E+03
  3.96653E+03  3.26510E+03  2.29920E+03  3.68335E+03 -4.91536E+02  5.41792E+03 -3.53885E+03  2.88858E+03
 -4.13910E+03  1.41403E+03 -3.68531E+03 -3.02827E+03 -1.17477E+03 -4.80238E+03  2.37625E+03 -2.35930E+03
  4.34988E+03 -1.00347E+02  2.32463E+03  1.62387E+03  1.28273E+03  1.91462E+03  4.00682E+02  8.29042E+02
  2.01590E+03  7.99637E+02  1.40375E+03  6.23233E+02  1.67111E+03  2.93562E+03  3.04254E+03  9.42708E+02
 -7.95934E+02  3.58808E+03 -2.31543E+03  4.86527E+03 -2.70504E+03 -3.68990E+02 -5.01040E+03 -3.03889E+02
 -1.60739E+03 -3.75427E+03 -2.24154E+02 -5.04273E+03  2.31913E+03 -3.92263E+03  2.84727E+03 -8.66886E+02
  3.01831E+03  2.08041E+03 -3.97061E+02  2.64134E+03 -6.25894E+02  1.17371E+03 -1.52496E+03  2.74651E+02
 -1.12680E+03 -1.61489E+03  9.04560E+02 -2.08873E+03  1.93469E+03 -1.64668E+03  1.31791E+03  8.77499E+02
  1.39063E+03  3.72536E+02  1.47886E+03  2.98788E+02 -2.15398E+02  1.65814E+03  8.31445E+02  6.47243E+02
  1.47842E+02 -8.60498E+02  1.94148E+03  9.20645E+02  3.26373E+02  3.52960E+03 -1.35736E+03  3.05180E+03
 -1.70641E+03  2.88336E+02 -1.81598E+03  6.22845E+02 -3.11594E+03 -9.91789E+02 -1.02113E+02 -2.33063E+03
  7.17848E+02 -2.16121E+03  1.62486E+03 -1.28188E+03 -2.92491E+02  1.05019E+03 -8.98181E+02  7.71568E+02
 -2.17681E+03  4.53577E+02 -7.22544E+02 -1.82994E+03 -1.04892E+03 -2.72445E+03  5.37263E+02 -1.40079E+03
  1.70018E+03 -9.77337E+02  1.37658E+03 -2.08100E+02  2.10107E+03  1.64436E+03  3.42968E+02  3.42135E+02
 -1.17782E+02 -1.25869E+02 -7.46433E+02 -7.52809E+02  1.32432E+02 -5.52374E+02  1.93771E+03 -1.94558E+03
  2.68541E+03 -8.85919E+02  3.62686E+03  1.66595E+03  3.90887E+02  1.09778E+03  6.90432E+02  2.98055E+03
 -2.10684E+03  5.50259E+02 -2.19058E+03  3.40338E+02 -9.27503E+02 -1.36594E+03 -2.75241E+02 -1.13454E+03
  1.36003E+03 -9.78219E+02  4.12637E+02  2.01104E+03  5.96658E+02 -3.08315E+01  3.56414E+02  2.53035E+03
 -5.44156E+02  1.95916E+03 -1.12548E+02  2.41115E+02 -1.34745E+03  2.66900E+02 -1.47465E+03  8.72230E+02
 -3.09849E+02  1.29504E+03 -1.98815E+03  6.03156E+02 -2.29549E+03  1.27895E+02 -2.18235E+03 -6.67938E+02
 -2.60841E+03 -3.20178E+03  7.19812E+02 -3.51092E+03  1.88466E+03 -2.44828E+03  3.67871E+03 -1.66144E+03
  2.59045E+03  2.24734E+02  9.71452E+02  2.21200E+03 -4.68264E+02  1.91175E+03 -2.11136E+03  1.48246E+03
 -5.62103E+02  8.63934E+02 -1.27801E+03 -1.69131E+03 -2.92557E+02  2.57813E+02 -4.25404E+02 -1.35999E+02
 -4.48499E+02 -1.30993E+02 -8.79329E+02  2.09860E+02  7.57090E+02 -4.86744E+02  2.03610E+02 -6.48082E+02
  1.85077E+03 -1.18803E+03  3.10223E+02 -1.48405E+02  2.25728E+03  1.60434E+03 -3.18210E+02  1.87750E+03
 -1.14554E+03  2.27005E+03 -2.34352E+03  1.33074E+03 -2.42676E+03 -5.81825E+02 -1.39624E+03 -2.40162E+03
 -1.52769E+03 -1.93166E+03 -1.06758E+01 -1.93650E+03  2.38915E+02 -8.56029E+02  6.58730E+02  3.67910E+01
  3.35177E+02  9.97253E+02 -1.15905E+03  8.37920E+02 -3.23542E+01  1.02707E+03 -2.18526E+02  5.20395E+01
  2.77126E+02  4.72857E+02  8.20324E+02  2.70921E+02  6.79127E+02  2.25623E+03  1.31014E+03  1.04321E+03
 -3.22417E+02  1.25255E+03 -2.54163E+02 -3.48620E+02 -1.60654E+03 -3.15382E+02 -3.44574E+02 -2.02701E+03
  4.89536E+02 -9.17970E+02  6.82319E+01  9.22864E+02  1.25687E+03 -1.46528E+03 -3.37039E+02  1.23957E+03
  6.52919E+02  1.15372E+03  2.85722E+02  1.22195E+03 -4.38773E+02  9.53312E+02 -7.65601E+02  6.29614E+02
 -3.48826E+02 -4.17240E+02 -5.58458E+02 -6.88690E+02 -9.75303E+02  1.36414E+03 -8.01268E+02  3.82193E+01
 -1.61728E+03  7.36586E+02 -5.18626E+02 -2.06981E+03 -1.48503E+02 -2.14437E+03  2.40353E+02 -9.59451E+02
  6.97378E+02  8.95774E+02 -7.65329E+02  6.68775E+02  7.68552E+02 -2.97917E+01 -5.84329E+02  1.19230E+03
