 $NMID ID='MM_0lb_SNR200_20hz_g55_71.RAW', FMTDAT='(8E13.5)'
 TRAMP=1., VOLUME=1. $END
  3.10118E+05  2.86515E+02  3.37756E+05  2.49768E+05  8.41281E+04  3.38397E+05 -1.33429E+05  2.49878E+05
 -1.90581E+05  8.20911E+04 -1.11943E+05 -3.30225E+04  1.16390E+03 -5.06520E+04  5.39293E+04 -3.64516E+02
  3.48913E+04  5.23600E+04 -1.70091E+04  7.34785E+04 -6.02823E+04  6.25800E+04 -8.37061E+04  3.22007E+04
 -7.94245E+04 -1.11634E+04 -5.66472E+04 -4.97827E+04 -1.40567E+04 -6.85809E+04  2.61763E+04 -4.53623E+04
  4.03937E+04  3.76775E+03  1.62716E+04  4.68072E+04 -3.42839E+04  4.70661E+04 -6.61501E+04 -1.27834E+01
 -5.22544E+04 -5.57751E+04 -7.02349E+03 -7.52480E+04  3.31096E+04 -5.26988E+04  4.60930E+04 -1.59369E+04
  4.19877E+04  1.15970E+04  3.01663E+04  2.44845E+04  1.57682E+04  2.87686E+04 -3.74066E+03  2.70151E+04
 -2.24657E+04  1.24109E+04 -1.88957E+04 -4.13376E+03  4.70394E+03 -6.62620E+03  2.09907E+04  1.07550E+04
  6.43351E+03  3.27353E+04 -3.09846E+04  3.37097E+04 -6.20775E+04  2.18507E+03 -5.60734E+04 -4.04830E+04
 -1.21358E+04 -6.09012E+04  3.80323E+04 -4.36487E+04  5.66616E+04 -2.40050E+03  3.22576E+04  3.00832E+04
 -6.58286E+03  3.34302E+04 -2.87399E+04  1.27024E+04 -2.85890E+04 -6.11177E+03 -1.51493E+04 -1.03346E+04
 -6.87790E+03 -1.21639E+04 -1.23823E+03 -1.64977E+04  6.49536E+03 -2.27137E+04  1.48269E+04 -1.49116E+04
  1.20575E+04  4.60200E+03 -6.07321E+03  1.32954E+04 -1.90521E+04 -2.62042E+03 -9.47860E+03 -3.02474E+04
  2.07455E+04 -4.07536E+04  4.54449E+04 -1.85485E+04  4.19934E+04  1.83757E+04  1.56337E+04  4.18379E+04
 -1.53590E+04  3.01957E+04 -2.20574E+04  1.70492E+03 -7.75727E+03 -2.63600E+04  2.05087E+04 -3.18356E+04
  3.78735E+04 -7.51033E+03  3.24685E+04  2.21702E+04  1.42818E+04  4.28507E+04 -8.10982E+03  4.52133E+04
 -2.93558E+04  2.94536E+04 -3.79601E+04  8.02708E+03 -3.81957E+04 -1.52104E+04 -2.22688E+04 -3.46037E+04
  6.98198E+03 -3.38826E+04  2.95270E+04 -1.28419E+04  2.67932E+04  1.01022E+04  2.86616E+03  1.79030E+04
 -1.46067E+04  6.46078E+03 -9.70037E+03 -7.70184E+03  4.59750E+03 -9.66003E+03  1.79726E+04  6.75043E+03
  1.25126E+04  2.18242E+04 -6.41614E+03  2.32565E+04 -2.16946E+04  9.87548E+03 -2.60575E+04 -6.21507E+03
 -1.64763E+04 -1.69534E+04 -4.59124E+03 -1.70347E+04  3.57591E+03 -1.41798E+04  1.24278E+04 -1.39840E+04
  2.10370E+04 -1.18119E+04  2.71158E+04  7.25589E+02  2.15569E+04  1.62051E+04  4.29811E+03  3.23749E+04
 -1.58600E+04  2.75849E+04 -2.52090E+04  1.03862E+04 -1.95122E+04 -9.89316E+03 -4.05725E+03 -1.37899E+04
  3.45721E+03 -3.88421E+03 -2.21528E+03  5.20945E+03 -1.25896E+04  4.94777E+03 -1.26967E+04 -3.70398E+03
 -8.64879E+03 -1.61585E+04  3.69699E+03 -1.86036E+04  1.09754E+04 -1.28968E+04  1.49727E+04 -1.67420E+03
  8.44092E+03  1.00020E+04  4.79570E+02  1.48244E+04 -9.11833E+03  8.70829E+03 -1.56407E+04 -3.26260E+03
 -9.96349E+03 -1.37285E+04 -1.23182E+03 -1.80965E+04  8.03977E+03 -1.53305E+04  1.68201E+04 -6.49577E+03
  1.38686E+04  1.17071E+02  1.11356E+04  3.84768E+03  3.94137E+03 -3.61240E+01  6.60308E+03 -1.35777E+03
  1.34593E+04  1.97067E+03  1.34004E+04  1.31496E+04  9.06805E+03  2.41349E+04 -2.44449E+03  2.47069E+04
 -1.57354E+04  1.95388E+04 -2.32934E+04  9.26374E+03 -2.32654E+04 -1.87283E+03 -2.12373E+04 -1.34600E+04
 -1.05844E+04 -1.94021E+04  6.18808E+03 -1.86417E+04  1.57566E+04 -1.08400E+04  1.46630E+04  3.37603E+03
  6.58942E+03  1.06678E+04 -6.44713E+03  1.13925E+04 -1.30879E+04  3.00483E+03 -1.03782E+04 -8.66476E+03
 -7.04722E+02 -1.20289E+04  5.15573E+03 -9.28678E+03  7.76596E+03 -1.67690E+03  8.39472E+02  4.49940E+03
 -6.09621E+03  1.35336E+03 -3.79951E+03 -4.11004E+03  8.75343E+02 -8.58734E+03  7.45116E+03 -8.54388E+03
  1.14526E+04 -5.65426E+03  1.08984E+04  1.88011E+03  1.00419E+04  9.86814E+03  4.33402E+03  1.31295E+04
 -7.51280E+02  1.45715E+04 -8.54184E+03  1.06602E+04 -1.07932E+04  3.02237E+03 -8.23208E+03 -2.56530E+03
 -4.94881E+03 -2.99250E+03  5.03669E+01  1.83127E+03 -2.56595E+03  2.42883E+03 -1.71240E+03  3.58765E+03
 -8.16122E+03 -3.75940E+02 -9.82070E+03 -5.88963E+03 -3.67928E+03 -1.18811E+04  2.95452E+03 -7.65115E+03
  7.33701E+03 -3.76559E+03  4.48966E+03  2.69412E+03  7.87718E+02  3.01179E+03 -2.51537E+03 -3.69814E+02
 -3.76388E+03 -4.85445E+03 -8.91872E+02 -6.56925E+03  3.83568E+03 -5.81545E+03  9.68509E+03 -2.89911E+03
  1.16462E+04  1.42487E+02  7.50786E+03  4.87564E+03  1.90819E+03  7.58472E+03 -4.38120E+03  8.04390E+03
 -6.77697E+03  2.12577E+03 -3.59630E+03 -1.91017E+03  8.12394E+02 -1.27590E+03  4.14959E+03 -1.01116E+03
  3.58007E+03  3.16795E+03  5.68115E+02  4.85695E+03 -3.98707E+03  7.27819E+03 -6.62489E+03  1.52995E+03
 -4.95306E+03 -3.63929E+03  3.22725E+02 -5.92523E+03  2.57058E+03 -3.85679E+03  2.93464E+03  2.19894E+01
 -8.03618E+02  3.80652E+03 -2.94136E+03  4.34609E+03 -3.78002E+03  1.94069E+03 -4.20074E+03 -1.68369E+03
 -2.09950E+03 -6.28897E+03  6.54904E+02 -5.64232E+03  4.60528E+03 -4.23951E+03  5.93263E+03  1.24057E+03
  3.68509E+03  4.85163E+03  8.61386E+02  5.48886E+03 -3.67092E+03  4.78955E+03 -4.98545E+03 -9.77618E+02
 -6.55351E+03 -4.65289E+03 -1.47896E+03 -4.33853E+03  1.39349E+03 -4.21916E+03  2.39726E+03 -3.56277E+03
  2.08493E+03 -9.19252E+02  1.15535E+03  1.93554E+03  5.56910E+02 -3.76832E+02  2.85796E+02 -1.93572E+03
  3.85803E+03 -5.23731E+02  4.21188E+03  6.86062E+02  5.31735E+03  1.86842E+03  5.41773E+03  6.38454E+03
 -8.16440E+02  6.48169E+03 -6.77138E+03  6.43055E+03 -9.03955E+03  1.22567E+03 -6.76581E+03 -2.29320E+03
 -2.95071E+03 -5.57542E+03 -1.10265E+03 -4.59893E+03  1.90242E+03 -1.38586E+03  1.93036E+03 -2.55652E+03
  2.68213E+02 -1.61099E+03  1.89939E+03 -1.50559E+03  3.07275E+03 -4.52473E+02  3.00864E+03 -3.54218E+02
  3.14621E+03  1.15015E+03  7.15126E+02  2.54846E+03 -1.87688E+03  1.89903E+03 -5.00615E+03  2.94301E+03
 -4.68403E+03 -7.52160E+02 -1.52642E+03 -3.10484E+03  8.67403E+02 -4.57375E+03  2.80430E+03 -5.64283E+03
  4.88858E+03 -2.26336E+03  5.63051E+03 -5.01135E+02  4.37637E+03  3.90420E+03  1.27604E+03  5.31387E+03
 -1.34671E+03  5.60106E+03 -2.41661E+03  1.17029E+03 -1.03419E+03 -1.47596E+03  1.19029E+02 -1.05265E+03
  6.02633E+02 -2.03755E+02 -8.11667E+02  1.66745E+03 -1.69311E+03  1.13898E+03 -3.65935E+03 -9.52634E+02
 -8.65727E+02 -3.67855E+03  1.68671E+03 -3.73513E+03  2.95980E+03 -3.52984E+03  2.59492E+03 -4.03791E+02
  3.20845E+03  1.19985E+03  2.86860E+03  2.34851E+03  6.70630E+02  3.00976E+03 -1.57223E+03  2.66687E+03
 -2.88401E+03  1.64727E+02 -3.27341E+03 -2.62475E+03  1.28795E+02 -2.99769E+03  1.75091E+03 -1.98261E+03
  2.43648E+03 -1.45040E+03  1.88346E+03  1.69078E+01 -4.09179E+02  1.30824E+03 -5.60388E+01  8.18390E+02
  1.31665E+03  3.91569E+02  8.79744E+02  1.30708E+03  1.47601E+03  2.01001E+03  4.62182E+02  1.00876E+02
 -7.98312E+02  2.69079E+03 -1.64033E+03  3.33671E+03 -1.36669E+03  1.18168E+03 -3.52380E+03 -5.64974E+02
 -6.17799E+02 -2.13194E+03 -2.34433E+02 -4.35403E+03  1.72367E+03 -1.57473E+03  2.23387E+03 -3.13747E+02
  9.73038E+02  2.71476E+03  1.15280E+03  2.69562E+03 -6.87998E+02 -1.25772E+02 -1.41167E+03  1.03508E+02
 -1.12680E+02 -2.33476E+02  9.86643E+02 -1.10041E+03  1.01406E+03 -8.57214E+02  1.84858E+03 -2.16606E+02
  5.86835E+02  8.76278E+01  8.48326E+02 -3.87928E+02 -1.95427E+02  1.09853E+03  1.80411E+03 -6.26416E+01
  1.45889E+02 -2.12384E+02 -4.70554E+01  1.49646E+03  9.80879E+02  2.01596E+03 -6.32874E+02  9.91121E+02
 -7.65956E+02  6.89904E+02 -1.64010E+03 -1.62590E+01 -5.92292E+02 -1.52443E+03  9.83807E+02 -4.09531E+02
  1.53798E+02 -1.88988E+03  2.47416E+02 -8.08751E+02  5.10078E+02  1.61328E+03 -1.26102E+03  2.01119E+03
 -1.81818E+03  1.32286E+03 -1.60898E+03  2.38876E+02 -4.56578E+02 -1.06265E+03  5.63887E+02 -1.24994E+02
  1.36804E+01 -7.59441E+01  5.94342E+02  3.92819E+02 -2.76001E+02  7.00539E+02  8.95533E+02  1.11642E+03
 -2.49798E+02  8.06175E+02 -7.02138E+02  3.30284E+02 -1.68666E+02 -2.11954E+02  1.62253E+03 -7.73438E+02
  1.05840E+03  7.34650E+01  1.64998E+03  4.57007E+02  2.34982E+03  7.38345E+02  1.61049E+01  1.53084E+03
 -1.76860E+03  1.20086E+01 -1.42174E+03 -3.86156E+02 -1.19172E+03 -2.32566E+03  2.48731E+02  4.26482E+02
  1.56289E+03 -5.87999E+02  5.00960E+02 -6.04361E+02 -3.09199E+02  7.90661E+02  9.56640E+02  5.49854E+02
  7.03822E+02  1.04309E+03 -2.64592E+02  2.44567E+02  3.53943E+02  8.02210E+02 -5.56772E+02 -3.77368E+02
 -1.16094E+03  5.71737E+02 -1.58413E+03 -1.18617E+02 -1.50807E+03  1.16149E+03 -3.05541E+03  2.18983E+02
 -2.86608E+02 -9.44031E+02  1.18518E+03 -1.45610E+03  6.76282E+02 -2.12257E+03  2.18861E+03 -1.45942E+03
  8.29308E+02  6.25167E+01  1.23610E+03  8.67478E+02 -4.79119E+02  5.78375E+02 -1.15057E+03  1.43940E+03
 -1.26625E+02  1.69007E+03 -1.10685E+03 -3.94443E+02 -1.01560E+03  4.95895E+01  1.61155E+02 -1.18562E+03
 -3.64937E+02 -8.50586E+02  2.79017E+02 -3.38743E+02  1.93604E+02 -8.16074E+02  9.16029E+02 -4.03744E+02
  6.42615E+02 -1.01560E+03 -8.06991E+01  6.35418E+02  5.62486E+02  1.70840E+03  7.88307E+02  1.18440E+03
 -1.42097E+03  1.53107E+03 -8.97958E+02  7.99644E+02 -1.89282E+02 -3.36438E+02 -1.24158E+03 -1.88982E+03
 -1.02934E+03  2.91799E+02  8.07962E+02 -8.11034E+02  1.41331E+03  7.02159E+02  1.30231E+02  5.63582E+02
  1.08904E+02  6.80776E+02  1.06596E+02  4.42511E+02 -9.83572E+02  3.85994E+02  6.70066E+01 -2.46520E+02
  5.62776E+02  7.38328E+02  8.12352E+02  5.56847E+02  4.88584E+02 -6.25614E+02  3.81700E+01 -9.11854E+02
 -5.83373E+02  1.37894E+02 -2.67404E+02  3.86785E+02 -3.39550E+02 -4.31221E+02  6.57800E+02 -1.01296E+03
 -3.53203E+02  1.39467E+02 -4.47784E+02 -5.41874E+01  1.00078E+03 -9.59141E+02 -2.34624E+02 -1.98619E+02
  1.08711E+03  4.93458E+02  3.42790E+02  7.38418E+02 -4.56641E+02  7.41085E+02 -2.77170E+02  5.11935E+02
 -9.83341E+02  6.93211E+02 -3.20342E+02 -3.30005E+02 -1.25547E+03 -4.02048E+02 -2.82013E+02  2.60611E+02
 -9.64951E+01  1.01938E+02 -5.64001E+02 -7.88557E+02  9.50436E+01 -8.53210E+02  5.92771E+02  4.16907E+02
 -5.58497E+01 -3.28491E+02  6.11785E+01 -5.54144E+02  5.83731E+02  2.96279E+02 -4.99930E+02  1.75760E+02
