 $NMID ID='MM_0lb_SNR200_11hz_g60_15.RAW', FMTDAT='(8E13.5)'
 TRAMP=1., VOLUME=1. $END
  3.08848E+05  1.86062E+03  3.36877E+05  2.51017E+05  8.38184E+04  3.38489E+05 -1.32287E+05  2.51561E+05
 -1.93077E+05  8.24676E+04 -1.12266E+05 -3.17718E+04  8.98277E+02 -5.11153E+04  5.44102E+04 -1.60547E+03
  3.65340E+04  5.15268E+04 -1.77727E+04  7.74803E+04 -6.12076E+04  6.45771E+04 -8.51487E+04  3.29578E+04
 -8.34705E+04 -1.30226E+04 -5.84442E+04 -5.31509E+04 -1.57587E+04 -7.04220E+04  2.90242E+04 -4.65976E+04
  4.03908E+04  5.74044E+03  1.69384E+04  4.95121E+04 -3.47325E+04  4.75821E+04 -6.81925E+04 -1.44668E+03
 -5.55496E+04 -5.69034E+04 -7.23704E+03 -7.99731E+04  3.49467E+04 -5.86533E+04  4.92895E+04 -1.78891E+04
  4.55691E+04  1.12139E+04  3.38316E+04  2.70966E+04  1.63112E+04  2.94535E+04 -4.84250E+03  2.73618E+04
 -2.21081E+04  1.31269E+04 -1.84728E+04 -5.60906E+03  6.84814E+03 -7.82887E+03  2.37128E+04  1.33688E+04
  6.35136E+03  3.61074E+04 -3.52752E+04  3.77078E+04 -6.47072E+04  1.91967E+03 -5.87149E+04 -4.51190E+04
 -1.33538E+04 -6.59590E+04  4.00857E+04 -4.83259E+04  6.12051E+04 -1.73738E+03  3.59534E+04  3.41377E+04
 -5.99460E+03  3.84754E+04 -3.10052E+04  1.77726E+04 -3.28086E+04 -3.92137E+03 -1.87596E+04 -1.10014E+04
 -9.77767E+03 -1.64774E+04 -3.16501E+02 -2.03741E+04  8.37035E+03 -2.42151E+04  1.51155E+04 -1.18068E+04
  1.06296E+04  5.66705E+03 -1.08729E+04  1.31236E+04 -2.26425E+04 -5.85456E+03 -8.68332E+03 -3.66786E+04
  2.51550E+04 -4.54879E+04  5.09149E+04 -2.19527E+04  4.91911E+04  2.10202E+04  1.80351E+04  4.46899E+04
 -1.58305E+04  3.67732E+04 -2.69570E+04  2.79743E+03 -1.29951E+04 -2.86733E+04  2.12101E+04 -3.59727E+04
  4.42235E+04 -1.04984E+04  3.95181E+04  2.54647E+04  2.04542E+04  5.10577E+04 -8.74557E+03  5.54282E+04
 -3.50901E+04  3.83751E+04 -4.74097E+04  1.13459E+04 -4.64196E+04 -1.66958E+04 -2.59562E+04 -4.12519E+04
  7.41205E+03 -4.16306E+04  3.41514E+04 -1.51708E+04  3.18115E+04  1.06825E+04  5.01867E+03  2.18828E+04
 -1.36744E+04  1.09668E+04 -9.89054E+03 -8.89143E+03  5.83787E+03 -1.02741E+04  1.75487E+04  5.45525E+03
  1.47056E+04  2.25465E+04 -6.42614E+03  2.72501E+04 -2.28187E+04  1.35101E+04 -3.19759E+04 -2.75708E+03
 -2.44117E+04 -1.88605E+04 -1.05856E+04 -2.46703E+04  3.68361E+03 -2.54880E+04  2.00766E+04 -2.27871E+04
  2.89200E+04 -1.42539E+04  3.81202E+04  4.22112E+03  2.85967E+04  2.33702E+04  3.97806E+03  4.06765E+04
 -1.84750E+04  3.26950E+04 -2.95750E+04  1.14960E+04 -2.23071E+04 -1.22255E+04 -4.73180E+03 -1.26701E+04
  4.80419E+02 -1.44920E+03 -7.21472E+03  7.54211E+03 -1.93418E+04  3.56931E+03 -1.85813E+04 -9.22199E+03
 -1.18024E+04 -2.28156E+04  6.78063E+03 -2.63698E+04  1.74126E+04 -1.94741E+04  2.12039E+04 -3.17331E+03
  1.32079E+04  1.59652E+04  1.25013E+02  2.22880E+04 -1.54315E+04  1.26809E+04 -2.33263E+04 -5.33082E+03
 -1.47646E+04 -2.03546E+04 -2.96279E+03 -2.75565E+04  1.30969E+04 -2.13184E+04  2.27006E+04 -1.07586E+04
  2.21027E+04 -1.73276E+03  1.63051E+04  3.09242E+03  8.83095E+03  1.81886E+03  1.16355E+04 -2.76981E+03
  2.12778E+04  4.43792E+03  2.39131E+04  1.64187E+04  1.62876E+04  3.67977E+04 -2.59233E+03  4.18362E+04
 -2.52372E+04  3.47192E+04 -3.93800E+04  1.86167E+04 -4.21552E+04 -3.12874E+03 -3.38502E+04 -2.33838E+04
 -1.46570E+04 -3.55740E+04  1.39687E+04 -3.18648E+04  2.58396E+04 -1.51965E+04  2.37126E+04  7.19679E+03
  7.50402E+03  1.83857E+04 -1.09556E+04  1.52492E+04 -2.06311E+04  2.26204E+03 -1.36949E+04 -1.18538E+04
 -6.77082E+01 -1.81122E+04  8.29336E+03 -1.32763E+04  1.30828E+04 -3.27517E+03  3.97251E+03  8.16882E+03
 -6.69464E+03  3.66994E+03 -8.77200E+03 -6.36441E+03 -2.34103E+03 -1.68396E+04  1.27609E+04 -1.83565E+04
  2.19418E+04 -1.03932E+04  2.41402E+04  2.62753E+03  2.29806E+04  1.76634E+04  1.00082E+04  2.67952E+04
 -5.95437E+03  3.02871E+04 -1.84991E+04  1.89265E+04 -2.17918E+04  3.43949E+03 -1.54459E+04 -6.64096E+03
 -4.85001E+03 -7.60290E+03 -2.55793E+01  5.01478E+02 -2.63662E+03  3.30125E+03 -7.09300E+03  5.77972E+03
 -1.43779E+04 -1.09501E+03 -1.29017E+04 -1.08383E+04 -5.45535E+03 -1.79742E+04  5.92333E+03 -1.52949E+04
  1.06509E+04 -6.08838E+03  8.36550E+03  3.70794E+03  1.06263E+03  4.67775E+03 -6.73826E+03  1.56508E+03
 -7.06430E+03 -1.04127E+04 -1.50244E+03 -1.24757E+04  7.38126E+03 -1.55068E+04  1.67604E+04 -1.01839E+04
  2.19768E+04  2.24730E+03  1.53652E+04  1.32534E+04  2.79975E+03  1.66560E+04 -9.56160E+03  1.42693E+04
 -1.29695E+04  4.73960E+03 -4.97473E+03 -3.30738E+03  3.10352E+03 -5.77862E+03  8.53582E+03 -7.77997E+02
  6.57779E+03  5.76611E+03  1.41908E+03  1.20165E+04 -8.33449E+03  1.06693E+04 -1.39906E+04  1.57141E+03
 -9.46239E+03 -8.13610E+03 -3.66705E+02 -1.29446E+04  7.78024E+03 -8.69730E+03  6.99653E+03  2.97492E+03
  2.59877E+03  8.86922E+03 -7.98680E+03  1.03443E+04 -1.13265E+04  5.73779E+03 -1.17957E+04 -5.13701E+03
 -8.60758E+03 -1.44678E+04  4.09930E+03 -1.70015E+04  1.50033E+04 -1.09092E+04  1.58390E+04  1.18869E+03
  1.03002E+04  1.32903E+04 -1.09197E+03  1.56372E+04 -9.98183E+03  8.57669E+03 -1.22319E+04 -1.51046E+03
 -1.04952E+04 -8.91611E+03 -2.90602E+02 -9.70231E+03  5.59742E+03 -9.21772E+03  5.90853E+03 -3.99785E+03
  3.83651E+03  1.97922E+03 -1.23994E+03  1.86190E+03  1.73245E+02 -4.06848E+03  3.27304E+03 -7.04503E+03
  1.02035E+04 -3.26675E+03  1.27689E+04  1.46124E+03  1.38961E+04  9.20891E+03  9.12912E+03  1.84442E+04
 -4.58428E+03  2.25916E+04 -1.82306E+04  1.54608E+04 -2.23517E+04  2.91286E+03 -1.75706E+04 -7.28583E+03
 -9.90617E+03 -1.55052E+04 -3.69258E+02 -1.28348E+04  5.56444E+03 -7.04022E+03  5.05390E+03 -6.69669E+03
  3.45566E+03 -3.63399E+03  3.38635E+03 -3.04764E+03  5.34029E+03 -3.63418E+03  8.32052E+03 -2.08652E+03
  1.03700E+04  1.17948E+03  4.30824E+03  8.77394E+03 -1.13929E+03  9.10103E+03 -1.03971E+04  6.93124E+03
 -1.48360E+04 -2.24559E+03 -8.23888E+03 -9.44181E+03 -7.30044E+02 -1.32842E+04  6.91571E+03 -1.38619E+04
  1.33961E+04 -7.21748E+03  1.80911E+04  3.07121E+03  1.16785E+04  1.04608E+04  2.22181E+03  1.59735E+04
 -6.67762E+03  1.22779E+04 -9.89824E+03  4.76448E+03 -6.20008E+03 -8.61218E+02 -1.75984E+03 -1.66852E+03
 -1.90354E+03  3.70871E+01 -2.36130E+03  3.22509E+03 -4.39880E+03  2.12857E+03 -8.82224E+03 -9.75715E+02
 -6.70411E+03 -1.00148E+04 -9.51178E+02 -1.23471E+04  7.98434E+03 -1.09071E+04  1.21467E+04 -3.00470E+03
  1.21869E+04  6.92732E+03  6.40690E+03  1.06350E+04 -1.12145E+03  1.53364E+04 -8.79636E+03  7.77492E+03
 -1.26444E+04 -2.32338E+02 -9.13514E+03 -7.81157E+03 -2.27517E+03 -1.15509E+04  5.53689E+03 -8.60868E+03
  7.77540E+03 -1.86696E+03  3.88621E+03  8.39295E+02  1.79366E+03  3.13227E+03  5.68338E+02  6.47565E+02
  2.96909E+03  1.30485E+03  4.25091E+03  1.93687E+03  2.68122E+03  2.92656E+03  2.61345E+03  7.13525E+03
 -2.78044E+03  1.12369E+04 -8.18347E+03  1.03661E+04 -1.14308E+04  4.20719E+03 -1.46049E+04 -4.89229E+03
 -6.98245E+03 -1.16256E+04  2.55387E+03 -1.46169E+04  8.03033E+03 -8.01124E+03  1.02180E+04 -2.72456E+03
  8.37941E+03  5.36859E+03  1.75329E+03  8.96364E+03 -4.18841E+03  4.82690E+03 -4.81164E+03 -1.79721E+03
 -1.34026E+03 -3.94862E+03  3.88319E+03 -6.23321E+03  4.77939E+03 -3.23683E+03  4.05099E+03  7.08822E+01
  2.91061E+03  2.46100E+03  2.88257E+03  5.81213E+02 -6.93654E+02  1.36300E+03  2.33992E+03 -2.36723E+03
  1.18224E+03 -1.72045E+02  6.60384E+03  1.16559E+03  2.52742E+03  6.17521E+03 -2.07377E+03  7.43189E+03
 -5.40004E+03  5.03809E+03 -8.71171E+03  2.23755E+03 -7.22425E+03 -3.16393E+03 -3.69110E+03 -4.42548E+03
  5.95970E+02 -5.59158E+03  3.70578E+03 -2.74730E+03  3.61588E+03  2.58424E+03 -1.86891E+03  3.76984E+03
 -3.75325E+03  2.16775E+03 -5.05089E+03 -2.60730E+03 -3.36870E+03 -6.50412E+03  2.11698E+03 -8.25462E+03
  3.79310E+03 -3.31209E+03  4.43181E+03 -1.83795E+03  3.52495E+03  9.32147E+02  3.00307E+02  3.71134E+03
 -2.16407E+03  9.09836E+02 -3.92248E+03 -1.53696E+03  1.10983E+03 -6.28906E+03  6.40079E+03 -4.55533E+03
  6.00337E+03  8.28917E+02  7.35900E+03  5.84267E+03  1.69608E+03  7.38707E+03 -1.28202E+03  6.29319E+03
 -5.43823E+03  2.94778E+03 -6.45247E+03 -1.53571E+03 -3.37687E+03 -4.32988E+03  1.56519E+03 -4.32369E+03
  3.55267E+03 -2.73411E+03  2.71233E+03  3.71601E+03  1.22491E+03  3.85032E+03 -1.62204E+02  4.79261E+03
 -2.61679E+03  3.13031E+03 -1.90027E+03  4.12630E+02 -1.13394E+03  5.44443E+01  3.15372E+02  2.00545E+03
 -2.10665E+03  2.79722E+03 -4.94129E+03  1.65526E+03 -6.39356E+03  5.95524E+02 -8.88835E+03 -5.11912E+03
 -3.74415E+03 -1.08049E+04  1.99964E+03 -1.12098E+04  7.96490E+03 -1.01772E+04  1.21400E+04 -4.88854E+03
  9.14181E+03  2.18968E+03  5.36725E+03  7.38232E+03  1.36981E+03  8.87027E+03 -4.86832E+03  5.86430E+03
 -5.47169E+03  3.49545E+03 -2.91965E+03  1.05921E+02 -1.14208E+03  6.36995E+02  8.24921E+01  3.55701E+01
 -2.01102E+03  4.31341E+02 -2.19471E+03 -1.47395E+02  5.91397E+02 -2.60480E+03 -9.76933E+02 -3.50981E+03
  2.85897E+03 -3.81987E+03  3.52389E+03  2.19086E+02  4.06489E+03  3.34019E+03  9.15009E+02  7.67496E+03
 -3.32819E+03  1.03689E+04 -9.84483E+03  6.16526E+03 -1.07254E+04 -5.81872E+01 -7.92205E+03 -4.33158E+03
 -3.97657E+03 -7.84376E+03  2.07476E+03 -6.33953E+03  4.17378E+03 -5.79755E+03  4.72295E+03  6.33701E+02
  2.55546E+03  2.46797E+03 -1.07909E+03  2.03727E+03 -2.64832E+03 -7.60035E+02  1.53857E+01 -3.95196E+02
  4.16738E+03 -7.11691E+02  3.07657E+03  5.91321E+02  1.40925E+03  3.51375E+03  2.26838E-01  3.00925E+03
 -2.94930E+03  2.36820E+03 -3.69024E+03  1.86875E+01 -5.14519E+03 -4.43923E+03 -2.14778E+03 -5.82267E+03
  3.73268E+03 -5.18327E+03  5.78960E+03 -1.73842E+03  6.74800E+03 -1.62386E+02  3.48437E+03  4.94605E+03
  5.97266E+02  5.03196E+03 -1.92343E+03  4.33199E+03 -1.57432E+03  1.47410E+03 -3.61510E+03  4.17150E+02
 -1.43405E+02 -3.16222E+02 -2.05646E+03  3.16537E+02 -3.16390E+03  1.49917E+03 -3.07962E+03 -6.13042E+02
 -4.01031E+03 -2.81681E+03 -9.98909E+02 -5.85093E+03  3.36418E+03 -5.86802E+03  4.48526E+03 -1.95201E+03
  5.01279E+03  4.65832E+02  2.40679E+03  3.13985E+03 -4.28408E+02  5.96150E+03 -4.80677E+03  3.99722E+03
