 $NMID ID='MM_0lb_SNR200_13hz_g45_19.RAW', FMTDAT='(8E13.5)'
 TRAMP=1., VOLUME=1. $END
  3.09946E+05  2.36794E+01  3.37159E+05  2.50666E+05  8.43110E+04  3.38469E+05 -1.32481E+05  2.50797E+05
 -1.91244E+05  8.21897E+04 -1.12296E+05 -3.18412E+04  8.71131E+02 -4.97196E+04  5.39772E+04 -1.05498E+03
  3.42741E+04  5.27650E+04 -1.72376E+04  7.56809E+04 -6.00649E+04  6.34922E+04 -8.41095E+04  3.07888E+04
 -8.05807E+04 -1.18361E+04 -5.66450E+04 -4.96370E+04 -1.55835E+04 -7.04465E+04  2.77184E+04 -4.65092E+04
  4.07223E+04  3.76932E+03  1.57490E+04  4.78869E+04 -3.42166E+04  4.74045E+04 -6.60605E+04  5.24394E+02
 -5.27119E+04 -5.54848E+04 -6.72952E+03 -7.59503E+04  3.40172E+04 -5.57715E+04  4.86037E+04 -1.58729E+04
  4.13708E+04  1.25532E+04  3.18387E+04  2.67408E+04  1.69937E+04  2.93256E+04 -5.44603E+03  2.71651E+04
 -2.24490E+04  1.18922E+04 -1.79976E+04 -4.42122E+03  5.17678E+03 -8.53450E+03  2.21496E+04  1.33174E+04
  7.91568E+03  3.49424E+04 -3.22296E+04  3.54878E+04 -6.30907E+04  1.95877E+03 -5.63985E+04 -4.27418E+04
 -1.14480E+04 -6.15706E+04  3.91993E+04 -4.60929E+04  5.77061E+04 -1.87545E+03  3.48789E+04  3.19728E+04
 -6.37118E+03  3.62199E+04 -3.15174E+04  1.65347E+04 -3.03272E+04 -3.85290E+03 -1.80330E+04 -1.21507E+04
 -7.52256E+03 -1.30539E+04 -2.09566E+03 -1.67188E+04  7.49965E+03 -2.35297E+04  1.63919E+04 -1.40142E+04
  1.08939E+04  5.71177E+03 -8.12688E+03  1.18605E+04 -2.06680E+04 -3.10211E+03 -7.98624E+03 -3.55426E+04
  2.37542E+04 -4.50538E+04  4.93636E+04 -2.05388E+04  4.45893E+04  1.95201E+04  1.56730E+04  4.39680E+04
 -1.58349E+04  3.24994E+04 -2.50429E+04  2.28523E+03 -9.81747E+03 -2.89392E+04  2.10416E+04 -3.49552E+04
  4.03072E+04 -9.49376E+03  3.55724E+04  2.38924E+04  1.72155E+04  4.70806E+04 -7.63683E+03  5.22805E+04
 -3.21583E+04  3.34886E+04 -4.30132E+04  1.11813E+04 -4.22247E+04 -1.69163E+04 -2.23779E+04 -3.84099E+04
  7.46143E+03 -3.87475E+04  3.13471E+04 -1.46978E+04  2.87920E+04  1.08075E+04  4.50293E+03  1.97857E+04
 -1.43482E+04  8.73681E+03 -9.74783E+03 -6.98529E+03  5.29566E+03 -1.07096E+04  1.94333E+04  4.47947E+03
  1.38151E+04  2.17908E+04 -5.86643E+03  2.37319E+04 -2.23276E+04  1.17307E+04 -2.78114E+04 -4.90992E+03
 -2.20574E+04 -1.75033E+04 -8.57563E+03 -2.06348E+04  5.61074E+03 -2.22090E+04  1.69132E+04 -1.74669E+04
  2.68756E+04 -1.25248E+04  3.27020E+04  4.49130E+03  2.33169E+04  1.99873E+04  4.43017E+03  3.75644E+04
 -1.81925E+04  2.95453E+04 -2.92357E+04  9.93166E+03 -2.14224E+04 -1.09809E+04 -4.13513E+03 -1.30338E+04
  3.28304E+03 -2.97136E+03 -4.95956E+03  7.46859E+03 -1.68706E+04  4.83429E+03 -1.56817E+04 -7.15254E+03
 -9.74634E+03 -1.99811E+04  5.11042E+03 -2.43247E+04  1.64327E+04 -1.73906E+04  1.79547E+04 -2.04683E+03
  1.18591E+04  1.29523E+04 -2.08956E+03  1.89850E+04 -1.25089E+04  1.02653E+04 -1.96072E+04 -3.75683E+03
 -1.42220E+04 -1.75520E+04 -3.48338E+03 -2.34576E+04  1.00499E+04 -1.89542E+04  1.86202E+04 -1.03689E+04
  1.78209E+04  1.29010E+03  1.20140E+04  3.11934E+03  7.43034E+03  2.15887E+03  9.89889E+03 -1.27573E+03
  1.90970E+04  3.00343E+03  1.88010E+04  1.64036E+04  1.31547E+04  3.13738E+04 -2.97726E+03  3.61770E+04
 -2.07651E+04  2.76894E+04 -3.39473E+04  1.42091E+04 -3.37731E+04 -2.80373E+03 -3.00258E+04 -1.87085E+04
 -1.20247E+04 -2.84798E+04  9.41334E+03 -2.67009E+04  2.36699E+04 -1.13731E+04  1.91937E+04  4.39571E+03
  7.82809E+03  1.43750E+04 -9.87439E+03  1.23202E+04 -1.53934E+04  1.53954E+03 -1.27960E+04 -9.64001E+03
  1.55056E+02 -1.59170E+04  8.19209E+03 -1.21435E+04  1.05024E+04 -1.21461E+03  1.82823E+03  6.95273E+03
 -7.69593E+03  1.17893E+03 -6.03256E+03 -4.60515E+03 -5.57066E+02 -1.30854E+04  1.03487E+04 -1.50030E+04
  1.74546E+04 -8.78196E+03  1.85041E+04  2.72882E+03  1.57248E+04  1.46045E+04  6.09849E+03  2.25370E+04
 -3.95006E+03  2.35191E+04 -1.51878E+04  1.48599E+04 -1.75196E+04  2.95016E+03 -1.15071E+04 -2.24987E+03
 -5.64025E+03 -4.13187E+03  5.97047E+02  7.46759E+02 -1.42666E+03  2.73788E+03 -6.60511E+03  3.82198E+03
 -1.01933E+04 -5.54270E+01 -1.11921E+04 -9.56954E+03 -5.08726E+03 -1.47951E+04  5.11017E+03 -1.15512E+04
  1.12550E+04 -4.57483E+03  7.86798E+03  3.12507E+03 -4.47740E+02  4.50873E+03 -4.84405E+03 -1.29522E+02
 -5.54817E+03 -7.56850E+03 -1.48113E+03 -1.10084E+04  6.11619E+03 -1.12087E+04  1.52015E+04 -6.17630E+03
  1.67684E+04  8.66291E+02  1.10346E+04  1.10599E+04  2.58541E+03  1.44468E+04 -6.60124E+03  1.18244E+04
 -9.17291E+03  3.91733E+03 -6.54230E+03 -1.86826E+03  1.39124E+03 -3.55058E+03  5.37437E+03  7.17456E+01
  5.74048E+03  5.12350E+03  1.57819E+03  9.02882E+03 -6.79175E+03  8.88600E+03 -1.08200E+04  2.67736E+03
 -7.56673E+03 -6.99270E+03 -4.74800E+02 -9.89793E+03  5.69125E+03 -4.09297E+03  7.46212E+03  1.75242E+02
  9.59983E+02  5.58743E+03 -4.25638E+03  7.95375E+03 -9.28213E+03  3.23953E+03 -9.66027E+03 -3.20078E+03
 -5.26649E+03 -1.09962E+04  3.43959E+03 -1.25539E+04  9.95054E+03 -8.68037E+03  1.18035E+04  1.78402E+03
  6.81222E+03  9.62336E+03 -5.71686E+02  1.12870E+04 -8.83153E+03  5.95129E+03 -9.41272E+03 -5.56365E+02
 -6.80383E+03 -6.49615E+03 -1.83135E+03 -8.68181E+03  5.06095E+03 -8.10942E+03  5.37523E+03 -2.80016E+03
  3.00776E+03  9.06508E+02  3.01299E+02  1.61405E+03  3.79712E+02 -8.18457E+02  1.23482E+03 -3.02688E+03
  7.22286E+03 -3.73647E+03  9.55840E+03  2.53741E+03  9.07119E+03  6.73094E+03  8.17819E+03  1.37983E+04
 -3.42485E+03  1.48270E+04 -1.20475E+04  1.21539E+04 -1.62651E+04  1.23877E+03 -1.32251E+04 -5.58685E+03
 -7.11106E+03 -1.08915E+04  7.32573E+02 -8.54235E+03  4.18189E+03 -4.03930E+03  4.21200E+03 -3.64576E+03
  1.87451E+03 -2.23000E+03  1.96645E+03 -3.26301E+03  3.83003E+03 -1.97581E+03  5.01612E+03  2.60739E+02
  6.34499E+03  1.29595E+03  2.45831E+03  5.93596E+03 -2.66116E+03  7.06487E+03 -7.24366E+03  4.07954E+03
 -1.00460E+04 -4.11233E+02 -5.16511E+03 -6.56478E+03 -5.54104E+02 -9.77263E+03  6.16771E+03 -1.04922E+04
  1.05195E+04 -4.90375E+03  1.26245E+04  9.17884E+02  8.32342E+03  8.07222E+03  1.83923E+03  1.13174E+04
 -3.84547E+03  9.16808E+03 -6.11274E+03  2.81148E+03 -4.14054E+03 -6.43040E+02 -8.48053E+02 -1.45382E+03
 -1.28492E+03  3.74875E+02 -2.78189E+03  1.63060E+03 -3.84976E+03  9.94980E+02 -6.10427E+03 -8.33110E+02
 -2.96187E+03 -7.18518E+03  2.28254E+03 -9.44974E+03  4.15269E+03 -8.86031E+03  7.34925E+03 -2.85055E+03
  7.92730E+03  5.53203E+03  3.26679E+03  7.21363E+03 -1.28053E+03  9.31579E+03 -6.48077E+03  6.37881E+03
 -8.11231E+03  6.91044E+02 -7.51661E+03 -5.41884E+03 -4.71573E+02 -8.29167E+03  4.80903E+03 -5.98098E+03
  6.45889E+03 -2.36005E+03  4.43466E+03  1.27487E+03  1.53832E+03  3.01534E+03  3.53258E+02  2.07851E+03
  1.58762E+03  5.42313E+02  1.51305E+03  1.34100E+03  1.27382E+03  3.10183E+03  2.29155E+03  4.70318E+03
 -3.18310E+03  7.18456E+03 -5.00129E+03  6.86418E+03 -8.44524E+03  2.05407E+03 -8.98479E+03 -1.70015E+03
 -4.37956E+03 -9.38118E+03  1.64837E+03 -9.48517E+03  4.96990E+03 -5.26259E+03  8.73508E+03 -2.40384E+03
  5.55849E+03  4.38481E+03  1.93406E+03  4.15272E+03 -2.21234E+03  4.75789E+03 -3.61732E+03 -3.84724E+02
 -2.93772E+03 -2.62827E+03  2.73301E+03 -3.01938E+03  3.28253E+03 -2.00933E+03  3.31150E+03  6.21034E+02
  1.50864E+03  8.34060E+02  2.13164E+03  1.07627E+03 -1.27297E+03  1.01160E+03  2.69618E+03 -4.71414E+02
  5.82856E+02  5.64989E+02  2.04133E+03  1.65702E+03  2.15318E+03  5.24411E+03 -3.77629E+02  6.57168E+03
 -3.32766E+03  3.96824E+03 -4.80523E+03  6.14760E+02 -5.90219E+03 -8.57839E+02 -1.92134E+03 -2.37944E+03
  3.07442E+02 -2.61520E+03  1.44697E+03 -1.10534E+03  6.01787E+02  1.99789E+03 -1.23359E+03  2.30939E+03
 -2.64182E+03  3.97814E+02 -4.59920E+03 -2.77839E+03 -1.74542E+03 -5.07212E+03  1.01146E+03 -4.51360E+03
  2.33335E+03 -2.98522E+03  3.41788E+03 -5.83827E+02  4.09498E+03  9.33407E+02  2.07346E+03  2.96678E+03
 -2.44473E+03 -6.42257E+02 -1.32286E+03 -1.73114E+03  9.97247E+02 -3.53451E+03  4.72582E+03 -2.49855E+03
  4.52056E+03  5.71025E+02  5.17534E+03  2.11157E+03  9.23885E+02  3.19399E+03 -1.64740E+03  4.55921E+03
 -4.45495E+03  1.10916E+03 -4.00494E+03 -4.18149E+02 -3.01318E+03 -4.55348E+03  1.30500E+03 -3.27594E+03
  2.68279E+03 -1.56332E+02  2.26910E+03  3.52148E+02  1.84266E+03  3.03364E+03  4.83586E+02  7.76540E+02
 -1.58289E+03  2.70014E+03 -4.74233E+02  1.26569E+03 -7.09651E+02  5.03625E+02 -6.45757E+02  1.54092E+03
 -1.23480E+03  2.17406E+03 -4.51788E+03  1.83837E+03 -4.16646E+03  9.12778E+02 -6.12056E+03 -1.49442E+03
 -1.49876E+03 -5.22773E+03  1.20685E+03 -6.88625E+03  3.13137E+03 -6.84111E+03  7.45135E+03 -3.41907E+03
  7.43476E+03  1.77805E+03  4.14413E+03  4.47825E+03 -1.84026E+03  4.08639E+03 -2.21889E+03  3.98578E+03
 -2.66492E+03  2.89830E+03 -3.12925E+03 -1.75436E+03 -1.76692E+03 -7.35168E+02 -2.09329E+02 -2.73404E+02
 -1.33045E+03 -1.02432E+03 -4.30964E+02 -5.23987E+02  3.28178E+02 -1.33434E+03  2.37527E+02 -2.29115E+03
  2.05287E+03 -1.43754E+03  1.86547E+03  1.62120E+02  3.30291E+03  2.09290E+03  1.47532E+03  4.11677E+03
 -2.11935E+03  6.59434E+03 -5.64783E+03  4.17891E+03 -4.25246E+03 -4.37770E+02 -4.61404E+03 -2.95653E+03
 -2.50903E+03 -4.10729E+03  9.68062E+02 -4.23882E+03  3.02019E+03 -2.54254E+03  2.58404E+03  3.00145E+02
  2.57427E+03 -5.22152E+01  3.53568E+02  8.49171E+02 -5.48792E+01 -8.81283E+01  8.86602E+02 -4.06792E+02
  8.01460E+01 -1.41607E+03  2.35350E+03 -1.16915E+02  5.81143E+02  2.87317E+03  7.92358E+02  9.58003E+02
 -9.44974E+02  1.65902E+03 -3.90057E+03 -7.03164E+02 -2.72577E+03 -1.45972E+03 -1.14961E+03 -3.98078E+03
  1.98543E+03 -3.54564E+03  3.92537E+03 -6.61665E+02  3.65131E+03  8.67907E+02  3.18486E+03  3.04268E+03
  2.50753E+02  1.16238E+03 -1.07656E+03  2.17515E+03 -2.23023E+03  7.62058E+02 -4.10041E+02  4.44611E+02
 -2.19354E+03  3.59238E+02 -2.67729E+02 -1.45741E+02 -1.13288E+03  5.34524E+02 -3.45996E+03 -3.73415E+02
 -2.91480E+03 -1.79656E+03 -8.99810E+02 -2.65750E+03  1.29637E+03 -3.75051E+03  2.81319E+03 -1.72627E+03
  3.74094E+03  6.16720E+02  1.35238E+03  1.50057E+03  2.08952E+03  1.99927E+03 -1.74225E+03  1.61836E+03
