 $NMID ID='MM_0lb_SNR200_7hz_g50_30.RAW', FMTDAT='(8E13.5)'
 TRAMP=1., VOLUME=1. $END
  3.10015E+05 -1.69904E+03  3.36589E+05  2.50561E+05  8.52551E+04  3.38976E+05 -1.34113E+05  2.51855E+05
 -1.90253E+05  8.35360E+04 -1.12311E+05 -3.14423E+04  1.01749E+03 -5.13058E+04  5.52668E+04 -5.25364E+02
  3.67128E+04  5.37157E+04 -1.78739E+04  7.71512E+04 -6.26582E+04  6.48568E+04 -8.51053E+04  3.39144E+04
 -8.44595E+04 -1.23869E+04 -5.77414E+04 -5.31595E+04 -1.53447E+04 -7.10132E+04  2.78278E+04 -4.72186E+04
  4.20787E+04  5.07671E+03  1.78201E+04  4.80583E+04 -3.41838E+04  4.94023E+04 -7.02013E+04  2.07739E+03
 -5.59446E+04 -5.72523E+04 -6.78067E+03 -8.03873E+04  3.53451E+04 -5.74374E+04  5.02785E+04 -1.96423E+04
  4.27076E+04  1.42624E+04  3.42643E+04  2.65854E+04  1.45962E+04  3.25244E+04 -7.07976E+03  2.66007E+04
 -2.24877E+04  1.10521E+04 -1.86525E+04 -5.43213E+03  8.19616E+03 -6.40312E+03  2.27450E+04  1.30384E+04
  7.92879E+03  3.82199E+04 -3.40984E+04  3.71153E+04 -6.64060E+04  2.51171E+03 -6.02921E+04 -4.48627E+04
 -1.36301E+04 -6.67296E+04  4.21568E+04 -4.91514E+04  6.19134E+04 -3.60624E+03  3.59569E+04  3.39402E+04
 -6.36494E+03  4.23373E+04 -3.17241E+04  2.13683E+04 -3.65732E+04 -5.26606E+03 -1.90260E+04 -1.30569E+04
 -1.08583E+04 -1.56011E+04  1.83670E+02 -1.88783E+04  9.75917E+03 -2.46001E+04  1.35304E+04 -1.12958E+04
  9.52861E+03  5.73501E+03 -1.09516E+04  1.41943E+04 -2.49173E+04 -7.79002E+03 -1.03453E+04 -3.91899E+04
  2.72674E+04 -4.92829E+04  5.29710E+04 -2.17303E+04  5.10312E+04  2.13534E+04  1.74893E+04  4.80075E+04
 -1.59433E+04  3.74382E+04 -2.91593E+04  3.34336E+03 -1.28953E+04 -3.20237E+04  2.20482E+04 -3.75967E+04
  4.69914E+04 -1.26030E+04  4.19933E+04  2.51924E+04  2.30233E+04  5.35904E+04 -9.90871E+03  5.69336E+04
 -3.60274E+04  3.90965E+04 -4.91657E+04  1.07731E+04 -4.88997E+04 -1.88327E+04 -2.65364E+04 -4.34705E+04
  8.44541E+03 -4.33080E+04  3.61860E+04 -1.78842E+04  3.32201E+04  8.56117E+03  4.63040E+03  2.06888E+04
 -1.40568E+04  8.55940E+03 -1.35197E+04 -6.50698E+03  7.85392E+03 -1.04960E+04  1.89199E+04  6.77779E+03
  1.65981E+04  2.30380E+04 -6.05708E+03  2.68081E+04 -2.34725E+04  1.57465E+04 -3.30445E+04 -3.38436E+03
 -2.72897E+04 -1.88456E+04 -1.49878E+04 -2.81289E+04  4.55458E+03 -2.97192E+04  2.17699E+04 -2.37635E+04
  3.30882E+04 -1.52074E+04  4.02814E+04  5.21592E+03  2.84481E+04  2.53749E+04  3.72722E+03  4.39072E+04
 -2.03416E+04  3.66497E+04 -3.13903E+04  1.34823E+04 -2.29342E+04 -9.72366E+03 -6.56946E+03 -1.37132E+04
 -2.06477E+02 -8.57323E+02 -9.19300E+03  9.47916E+03 -2.24200E+04  4.11007E+03 -2.13557E+04 -1.12382E+04
 -1.19708E+04 -2.68838E+04  5.28307E+03 -2.87085E+04  2.10330E+04 -2.12486E+04  2.56974E+04 -1.69514E+03
  1.53028E+04  1.65010E+04 -1.11835E+03  2.61293E+04 -1.77881E+04  1.51486E+04 -2.55016E+04 -6.53519E+03
 -1.98805E+04 -2.19181E+04 -2.45602E+03 -3.05444E+04  1.40790E+04 -2.55234E+04  2.63323E+04 -1.32517E+04
  2.53990E+04 -3.92323E+02  1.62636E+04  3.14203E+03  1.07323E+04  2.19180E+03  1.35884E+04 -2.58537E+03
  2.41817E+04  4.30323E+03  2.88606E+04  1.86568E+04  1.85980E+04  3.94628E+04 -4.56029E+03  4.76197E+04
 -2.82852E+04  4.00447E+04 -4.59005E+04  2.31267E+04 -4.89679E+04 -4.78622E+03 -4.09725E+04 -2.85884E+04
 -1.49981E+04 -4.04637E+04  1.54210E+04 -3.60725E+04  2.97939E+04 -1.42320E+04  2.58700E+04  7.94451E+03
  8.23622E+03  2.07593E+04 -1.27196E+04  1.84339E+04 -2.06657E+04  1.33462E+03 -1.71083E+04 -1.48072E+04
 -7.80100E+02 -1.96697E+04  1.23710E+04 -1.63108E+04  1.45171E+04 -2.21207E+03  4.36081E+03  1.09071E+04
 -1.05730E+04  5.12955E+03 -1.05246E+04 -7.37756E+03 -1.32926E+03 -2.19811E+04  1.32566E+04 -2.25154E+04
  2.43189E+04 -1.53849E+04  3.16115E+04  3.03337E+03  2.62582E+04  2.05827E+04  1.31817E+04  3.10948E+04
 -5.84072E+03  3.54599E+04 -2.43685E+04  2.19394E+04 -2.54550E+04  5.18517E+03 -1.74636E+04 -8.22457E+03
 -9.59354E+03 -6.91248E+03 -2.15380E+03 -9.68443E+02 -3.10890E+03  4.50943E+03 -6.93211E+03  4.57885E+03
 -1.75697E+04 -1.29268E+03 -1.68604E+04 -1.32479E+04 -8.42197E+03 -2.13903E+04  7.16579E+03 -1.66066E+04
  1.34534E+04 -8.32225E+03  1.17586E+04  5.70079E+03  6.05113E+02  7.02420E+03 -7.55040E+03 -9.81340E+02
 -9.47107E+03 -1.10594E+04 -1.18018E+03 -1.72466E+04  1.03620E+04 -2.06189E+04  2.32482E+04 -1.22271E+04
  2.78434E+04  3.87745E+03  1.80855E+04  1.62615E+04  5.64171E+03  2.17630E+04 -1.12951E+04  1.69902E+04
 -1.46425E+04  4.85727E+03 -5.50829E+03 -3.28696E+03  3.01571E+03 -4.88234E+03  9.98787E+03 -8.48062E+01
  1.03020E+04  7.80157E+03  6.83815E+02  1.39790E+04 -1.05349E+04  1.38897E+04 -1.82369E+04  4.22604E+03
 -1.23578E+04 -1.03016E+04  1.22948E+03 -1.46346E+04  1.01314E+04 -5.39536E+03  9.68204E+03  3.66941E+03
  2.95887E+03  1.19034E+04 -6.30277E+03  1.44532E+04 -1.64429E+04  4.80179E+03 -1.69454E+04 -5.16364E+03
 -1.07747E+04 -1.85317E+04  6.51383E+03 -2.12532E+04  1.84863E+04 -1.20050E+04  2.02107E+04  2.91709E+03
  1.16410E+04  1.53322E+04 -2.10493E+03  1.76949E+04 -1.48105E+04  1.05121E+04 -1.38314E+04 -2.16373E+03
 -1.34206E+04 -1.39806E+04 -2.17669E+03 -1.39755E+04  7.69179E+03 -1.02626E+04  8.15011E+03 -3.24173E+03
  2.99738E+03  1.34430E+03 -1.42722E+03  2.46206E+03 -1.17221E+03 -4.60915E+03  3.64508E+03 -9.16769E+03
  1.48120E+04 -6.17447E+03  2.05108E+04  1.43992E+03  2.04424E+04  1.48790E+04  1.25477E+04  2.48081E+04
 -5.09450E+03  2.81897E+04 -2.32231E+04  2.18786E+04 -3.13461E+04  2.02690E+03 -2.46636E+04 -1.36587E+04
 -1.27008E+04 -2.05929E+04 -2.10294E+03 -1.81950E+04  5.31646E+03 -9.86692E+03  5.78188E+03 -4.58925E+03
  4.90309E+03 -3.09572E+03  3.79844E+03 -4.97319E+03  5.73755E+03 -4.56364E+03  1.21669E+04 -2.57635E+03
  1.27532E+04  1.82291E+03  8.54830E+03  1.16394E+04 -1.93789E+03  1.42220E+04 -1.26005E+04  9.45761E+03
 -1.83743E+04 -1.46685E+03 -1.41966E+04 -1.20879E+04 -1.50712E+03 -1.93422E+04  1.07675E+04 -2.01830E+04
  2.20582E+04 -1.09005E+04  2.44035E+04  4.62189E+03  1.73127E+04  1.75723E+04  1.35860E+03  2.15730E+04
 -8.85595E+03  1.69181E+04 -1.38087E+04  4.37473E+03 -9.41359E+03 -3.01846E+02 -3.98479E+03 -2.53393E+03
 -1.66719E+03  1.79591E+03 -1.68407E+03  3.23076E+03 -6.92713E+03  3.51697E+03 -1.20272E+04 -2.42647E+03
 -1.03911E+04 -1.08595E+04 -1.55857E+03 -1.88823E+04  1.11919E+04 -1.59711E+04  1.79887E+04 -4.78888E+03
  1.79737E+04  8.99716E+03  7.64901E+03  1.62947E+04 -3.42592E+03  1.86435E+04 -1.34322E+04  1.09790E+04
 -1.80359E+04  1.53356E+03 -1.41059E+04 -9.68036E+03 -3.37153E+03 -1.37168E+04  7.86798E+03 -1.25602E+04
  1.22194E+04 -4.14103E+03  8.81462E+03  2.03823E+03  4.70911E+03  5.76708E+03  2.04006E+03  4.80851E+03
  1.70086E+03  1.00644E+03  2.95377E+03  1.14618E+03  5.43161E+03  5.03698E+03  5.81407E+03  8.27737E+03
 -5.24893E+03  1.43860E+04 -1.43912E+04  1.35141E+04 -2.19863E+04  2.31809E+03 -2.00894E+04 -7.36529E+03
 -9.94606E+03 -1.99054E+04  2.69973E+03 -2.36066E+04  1.07862E+04 -1.36291E+04  1.68312E+04 -3.40958E+03
  1.34315E+04  8.19490E+03  2.03388E+03  1.18242E+04 -5.49217E+03  7.68301E+03 -1.00101E+04 -2.68923E+02
 -5.18942E+03 -6.69825E+03  3.75066E+03 -8.76411E+03  4.94733E+03 -4.92286E+03  8.89883E+03  1.89175E+03
  6.41520E+03  3.08790E+03  3.32248E+03  5.34437E+03 -1.00063E+02  2.79211E+03  2.37694E+03 -2.81126E+03
  1.96407E+03  1.09790E+03  8.39935E+03  2.47367E+03  5.83426E+03  8.77501E+03 -7.03589E+02  1.47205E+04
 -1.03254E+04  8.11445E+03 -1.20442E+04  3.64490E+03 -1.09107E+04 -4.81316E+03 -5.51470E+03 -7.75471E+03
  1.44106E+02 -6.98144E+03  5.76665E+03 -3.08326E+03  5.98087E+03  3.76563E+03 -1.45288E+03  6.50527E+03
 -8.07492E+03  4.28807E+03 -8.98049E+03 -6.65385E+03 -4.64882E+03 -1.07807E+04  5.47717E+02 -1.05485E+04
  7.32565E+03 -7.60698E+03  7.90711E+03 -2.24701E+03  6.54078E+03  4.15013E+03 -1.02202E+03  3.38927E+03
 -2.88882E+03  2.10994E+03 -5.37958E+03 -4.98431E+03  3.13001E+02 -8.15749E+03  1.06346E+04 -6.80866E+03
  1.38389E+04  2.58277E+02  1.32841E+04  7.65162E+03  4.40125E+03  1.50632E+04 -3.84469E+03  1.36384E+04
 -9.50676E+03  5.24898E+03 -1.05459E+04 -3.02500E+03 -5.09762E+03 -1.01009E+04  2.42916E+03 -8.79193E+03
  7.76260E+03 -4.21789E+03  9.50599E+03  5.26768E+03  1.86034E+03  6.74053E+03 -1.97955E+03  4.75228E+03
 -3.17396E+03  3.81189E+03 -4.75922E+03  3.14179E+03 -1.01175E+03  7.41871E+02 -9.71257E+02  2.98564E+03
 -4.01860E+03  3.89743E+03 -8.16574E+03  2.99828E+03 -1.38130E+04  7.79870E+02 -1.51089E+04 -8.07697E+03
 -7.33899E+03 -2.08505E+04  5.12644E+03 -2.04201E+04  1.43222E+04 -1.73145E+04  1.89261E+04 -6.07827E+03
  1.79304E+04  3.66629E+03  1.15340E+04  1.30433E+04  8.86267E+02  1.31724E+04 -5.63443E+03  1.07858E+04
 -7.19790E+03  4.29063E+03 -6.04981E+03 -2.51502E+03 -3.42595E+03 -8.80176E+02 -8.48007E+02  1.13731E+03
  1.08072E+02  6.62289E+02 -1.55392E+03 -3.55678E+03 -1.09075E+03 -2.82359E+03  1.07590E+03 -4.76446E+03
  7.40611E+03 -3.82663E+03  9.67316E+03  1.09143E+03  9.98036E+03  6.79012E+03  4.37876E+03  1.37354E+04
 -8.06228E+03  1.62736E+04 -1.54480E+04  1.08521E+04 -1.81944E+04 -1.16927E+03 -1.43178E+04 -1.10924E+04
 -4.58626E+03 -1.61145E+04  3.33660E+03 -1.43229E+04  1.31888E+04 -8.38913E+03  1.09893E+04 -5.22725E+02
  4.29063E+03  2.31683E+03 -3.12086E+02  3.44245E+03 -3.71273E+03 -9.32106E+02 -5.63051E+02 -3.54266E+03
  2.75850E+03 -2.09537E+03  5.41764E+03  1.61315E+03  6.47835E+03  5.85555E+03  1.53686E+03  6.69933E+03
 -5.04564E+03  7.62492E+03 -1.08048E+04  4.54882E+02 -8.07225E+03 -7.51424E+03 -2.27168E+03 -1.35660E+04
  6.29807E+03 -1.07778E+04  1.06180E+04 -2.46961E+03  1.30922E+04  2.25989E+03  8.21872E+03  8.75400E+03
  5.08980E+02  1.14555E+04 -1.50356E+03  7.51471E+03 -4.62992E+03  4.05800E+03 -5.46110E+03 -1.28505E+02
 -2.21346E+03  1.21142E+03 -8.70173E+02  6.96379E+02 -6.02658E+03  1.58841E+03 -6.36633E+03 -3.35020E+03
 -6.17137E+03 -6.10629E+03 -1.76026E+03 -1.08094E+04  4.98794E+03 -1.13635E+04  1.13469E+04 -5.99768E+03
  1.17443E+04  1.58268E+02  6.42013E+03  8.67840E+03 -1.32651E+03  1.27019E+04 -8.38290E+03  6.46368E+03
