 $NMID ID='MM_0lb_SNR200_8hz_g55_4.RAW', FMTDAT='(8E13.5)'
 TRAMP=1., VOLUME=1. $END
  3.10333E+05  1.26279E+03  3.37339E+05  2.50316E+05  8.44932E+04  3.38988E+05 -1.32789E+05  2.52555E+05
 -1.90424E+05  8.46467E+04 -1.12730E+05 -3.25349E+04 -4.85257E+02 -5.06204E+04  5.42583E+04 -5.70154E+02
  3.44327E+04  5.29779E+04 -1.70108E+04  7.73332E+04 -5.94844E+04  6.42653E+04 -8.38846E+04  3.27054E+04
 -8.23724E+04 -1.10050E+04 -5.94354E+04 -5.27697E+04 -1.71702E+04 -7.09480E+04  2.83590E+04 -4.62793E+04
  4.21874E+04  3.92812E+03  1.70160E+04  4.91609E+04 -3.43076E+04  4.90247E+04 -6.84149E+04  2.18895E+02
 -5.58930E+04 -5.80520E+04 -9.26058E+03 -7.96457E+04  3.39916E+04 -5.76023E+04  5.09790E+04 -1.78818E+04
  4.67337E+04  1.11750E+04  3.31658E+04  2.69113E+04  1.49916E+04  3.08156E+04 -5.22431E+03  2.71325E+04
 -2.28195E+04  1.14709E+04 -1.62952E+04 -6.15612E+03  5.92915E+03 -7.64861E+03  2.27791E+04  1.30921E+04
  8.68755E+03  3.91190E+04 -3.44099E+04  3.79520E+04 -6.75625E+04  7.66525E+02 -5.97321E+04 -4.44627E+04
 -9.35050E+03 -6.63204E+04  4.28010E+04 -4.76280E+04  6.14372E+04 -3.38879E+03  3.61928E+04  3.48375E+04
 -4.88540E+03  4.15440E+04 -3.01985E+04  2.06908E+04 -3.35344E+04 -3.52015E+03 -1.96969E+04 -1.08207E+04
 -1.08644E+04 -1.62975E+04 -4.02077E+01 -2.12513E+04  1.08095E+04 -2.31976E+04  1.72878E+04 -1.19321E+04
  1.18206E+04  5.87621E+03 -1.11355E+04  1.27953E+04 -2.47805E+04 -6.56139E+03 -8.63733E+03 -3.90829E+04
  2.58046E+04 -4.76868E+04  5.30791E+04 -1.93458E+04  5.01043E+04  2.13263E+04  1.55843E+04  4.73016E+04
 -1.62599E+04  3.63611E+04 -2.92710E+04  2.67158E+03 -1.22643E+04 -2.86119E+04  2.10259E+04 -3.93824E+04
  4.50798E+04 -1.02574E+04  4.26922E+04  2.56760E+04  2.20420E+04  5.14585E+04 -9.80624E+03  5.82475E+04
 -3.64962E+04  4.06086E+04 -4.56187E+04  1.17185E+04 -4.83981E+04 -1.93598E+04 -2.75931E+04 -4.34568E+04
  8.60307E+03 -4.16748E+04  3.38551E+04 -1.77793E+04  3.16132E+04  1.23832E+04  5.46282E+03  1.96683E+04
 -1.35734E+04  9.67977E+03 -1.15713E+04 -6.69838E+03  5.99412E+03 -1.17653E+04  1.99981E+04  5.96240E+03
  1.55792E+04  2.29355E+04 -5.09957E+03  2.68253E+04 -2.36634E+04  1.45088E+04 -3.42465E+04 -3.10133E+03
 -2.77064E+04 -1.87106E+04 -1.34874E+04 -2.67672E+04  4.51505E+03 -2.71714E+04  2.15407E+04 -2.44518E+04
  3.29226E+04 -1.53407E+04  3.98998E+04  6.24874E+03  2.73564E+04  2.68796E+04  3.68341E+03  4.12213E+04
 -2.11849E+04  3.55570E+04 -3.01743E+04  1.18472E+04 -2.46662E+04 -9.39992E+03 -6.99640E+03 -1.31256E+04
 -6.50618E+02 -8.12097E+02 -8.58037E+03  8.37139E+03 -2.27220E+04  6.09785E+03 -2.01678E+04 -1.14211E+04
 -1.23183E+04 -2.40010E+04  6.21307E+03 -3.00841E+04  2.01719E+04 -2.13480E+04  2.43804E+04 -1.58859E+03
  1.66760E+04  1.48874E+04 -1.74677E+03  2.39809E+04 -1.62536E+04  1.43718E+04 -2.49916E+04 -4.66151E+03
 -1.84778E+04 -2.13221E+04 -1.71142E+03 -3.03814E+04  1.41963E+04 -2.53492E+04  2.44237E+04 -1.23009E+04
  2.24975E+04 -8.18176E+02  1.70700E+04  6.37936E+03  1.04571E+04  1.94012E+03  1.42355E+04 -3.05237E+03
  2.44297E+04  1.78215E+03  2.80589E+04  1.93217E+04  1.99785E+04  3.96359E+04 -2.32644E+03  4.87787E+04
 -2.82594E+04  4.05220E+04 -4.52088E+04  2.15918E+04 -4.90649E+04 -3.28388E+03 -3.92522E+04 -2.90783E+04
 -1.59977E+04 -4.02497E+04  1.50534E+04 -3.58760E+04  3.20247E+04 -1.48609E+04  2.68285E+04  7.83346E+03
  8.09085E+03  2.00068E+04 -1.18563E+04  1.57808E+04 -2.20859E+04  2.95654E+03 -1.55007E+04 -1.39681E+04
  1.03000E+02 -2.20540E+04  1.22746E+04 -1.57435E+04  1.54572E+04 -9.85856E+02  3.86419E+03  9.13308E+03
 -7.06572E+03  3.90655E+03 -1.07674E+04 -6.23853E+03 -1.58907E+03 -2.02551E+04  1.31514E+04 -2.26643E+04
  2.37622E+04 -1.25619E+04  2.85687E+04  2.36477E+03  2.57000E+04  2.14686E+04  1.21370E+04  3.22195E+04
 -5.69939E+03  3.52785E+04 -2.21106E+04  2.34387E+04 -2.41481E+04  4.68592E+03 -1.49861E+04 -7.19615E+03
 -8.50911E+03 -8.92493E+03  6.38883E+02  6.72758E+02 -2.44459E+03  2.07353E+03 -8.38929E+03  4.61616E+03
 -1.63644E+04 -1.42220E+03 -1.52056E+04 -1.25178E+04 -6.51044E+03 -1.98494E+04  6.36503E+03 -1.84568E+04
  1.28874E+04 -9.36649E+03  9.75216E+03  4.63279E+03 -5.97583E+02  6.97127E+03 -8.32567E+03  9.45932E+02
 -8.38785E+03 -1.01729E+04  9.31589E+01 -1.83535E+04  1.00601E+04 -1.66822E+04  2.41346E+04 -1.04132E+04
  2.56556E+04  2.02629E+03  1.91358E+04  1.56457E+04  2.81360E+03  2.18512E+04 -1.25723E+04  1.61468E+04
 -1.34343E+04  6.44933E+03 -7.79283E+03 -5.20442E+03  3.15839E+03 -3.39144E+03  8.68043E+03 -6.65202E+02
  7.23029E+03  8.41171E+03  4.52075E+02  1.50758E+04 -9.21633E+03  1.35418E+04 -1.66540E+04  1.41850E+03
 -1.20360E+04 -9.53305E+03  1.79836E+03 -1.60933E+04  9.50304E+03 -7.33830E+03  1.08447E+04  4.97863E+03
  2.06869E+03  1.32952E+04 -8.69489E+03  1.39119E+04 -1.72245E+04  6.27809E+03 -1.72160E+04 -6.08494E+03
 -8.12757E+03 -1.70542E+04  4.35072E+03 -2.17307E+04  1.78304E+04 -1.14002E+04  1.79581E+04  3.37742E+03
  1.16307E+04  1.42498E+04 -2.75794E+03  1.82205E+04 -1.19304E+04  8.90408E+03 -1.35849E+04 -2.77607E+03
 -1.34510E+04 -1.17723E+04 -2.66296E+03 -1.27618E+04  7.92378E+03 -1.05775E+04  8.10777E+03 -5.29498E+03
  4.23673E+03  2.27101E+03  9.65154E+02  2.03135E+02  1.25605E+03 -5.64868E+03  1.87107E+03 -8.72085E+03
  1.42711E+04 -3.54615E+03  1.94175E+04  1.51280E+03  1.84685E+04  1.29702E+04  9.96388E+03  2.32707E+04
 -4.99662E+03  2.50086E+04 -2.31054E+04  2.14672E+04 -3.05362E+04  3.60342E+03 -2.26742E+04 -1.14799E+04
 -1.38841E+04 -1.81269E+04  2.72453E+02 -1.70563E+04  6.23315E+03 -9.99011E+03  5.93124E+03 -6.00355E+03
  4.06866E+03 -2.52154E+03  4.87090E+03 -4.46358E+03  7.05706E+03 -4.41020E+03  8.43888E+03 -2.18868E+03
  1.27214E+04  2.57684E+03  7.54483E+03  1.00146E+04 -2.64641E+03  1.38212E+04 -1.23793E+04  1.12980E+04
 -1.74031E+04 -1.39068E+03 -1.14852E+04 -1.16280E+04 -1.72369E+03 -1.97357E+04  1.01563E+04 -1.75305E+04
  2.11416E+04 -7.85758E+03  2.10430E+04  3.70921E+03  1.55572E+04  1.49868E+04  3.10560E+02  2.11857E+04
 -9.08490E+03  1.68582E+04 -1.18606E+04  6.15711E+03 -8.26894E+03 -2.73327E+03 -4.23659E+03 -2.32589E+03
 -1.36346E+03 -2.06243E+03 -4.16597E+03  3.39219E+03 -7.50043E+03  2.36503E+03 -1.08953E+04 -2.28510E+03
 -7.81393E+03 -1.19910E+04 -5.39904E+02 -1.62218E+04  1.13578E+04 -1.65445E+04  1.85616E+04 -4.31248E+03
  1.65052E+04  9.15457E+03  6.55843E+03  1.50870E+04 -3.66173E+03  1.83969E+04 -1.27107E+04  8.72005E+03
 -1.72110E+04  1.35394E+03 -1.21006E+04 -1.02931E+04 -2.02501E+03 -1.40427E+04  7.27328E+03 -1.11548E+04
  8.78221E+03 -2.15990E+03  7.34893E+03  3.58080E+03  3.56401E+03  4.07189E+03  2.65623E+03  2.13137E+03
  1.44701E+03  3.85321E+02  4.59900E+03  4.19105E+03  5.53720E+03  5.76990E+03  4.75624E+03  8.39181E+03
 -1.19958E+03  1.40666E+04 -1.23319E+04  1.42675E+04 -1.99490E+04  3.46239E+03 -1.73365E+04 -8.82109E+03
 -1.03768E+04 -1.70959E+04  1.17417E+03 -1.97544E+04  1.14112E+04 -1.33617E+04  1.54720E+04 -4.83519E+03
  1.11424E+04  6.52389E+03  3.66886E+03  9.65840E+03 -5.14407E+03  6.16471E+03 -7.79257E+03 -3.78304E+02
 -4.08074E+03 -7.17892E+03  4.23300E+03 -8.30867E+03  8.42363E+03 -4.39978E+03  7.21195E+03  1.70420E+03
  2.98741E+03  4.71323E+03  2.62088E+03  3.27231E+03 -1.79590E+02  3.36850E+03  1.64184E+03 -5.21180E+02
  3.30083E+03 -9.51388E+02  7.46770E+03  1.71374E+03  5.91815E+03  9.83386E+03 -2.42270E+03  1.22474E+04
 -6.41698E+03  8.64119E+03 -1.15190E+04  2.89929E+03 -1.11737E+04 -3.49712E+03 -3.81156E+03 -7.04009E+03
  8.56235E+02 -6.85452E+03  4.80733E+03 -2.77239E+03  3.86950E+03  1.25130E+03 -3.01525E+03  7.13199E+03
 -8.26314E+03  3.12370E+03 -8.64463E+03 -4.43557E+03 -4.61302E+03 -1.02402E+04  6.91972E+02 -1.00263E+04
  5.69206E+03 -5.95676E+03  7.55534E+03 -1.68328E+03  6.06869E+03  1.92843E+03  1.55234E+03  6.15709E+03
 -4.83714E+03  6.28145E+02 -4.86595E+03 -2.81613E+03  3.67389E+03 -8.67669E+03  8.06306E+03 -7.16690E+03
  1.08487E+04  5.71750E+02  1.19223E+04  8.09025E+03  2.96179E+03  1.17565E+04 -4.78036E+03  1.11115E+04
 -1.10053E+04  5.66433E+03 -1.00949E+04 -1.32274E+03 -4.52083E+03 -8.85498E+03  1.76293E+03 -9.45209E+03
  8.42187E+03 -3.65830E+03  6.23795E+03  3.59094E+03  1.93160E+03  6.78721E+03 -2.95073E+02  4.19151E+03
 -2.04267E+03  3.71633E+03 -1.60767E+03  1.24053E+03 -1.39458E+03  2.87771E+02 -1.07648E+03  2.63403E+03
 -2.23002E+03  4.26931E+03 -7.54998E+03  3.19225E+03 -1.15423E+04 -2.31864E+01 -1.23567E+04 -8.44726E+03
 -7.50523E+03 -1.86847E+04  3.90547E+03 -1.76442E+04  1.23576E+04 -1.63599E+04  1.89048E+04 -5.54780E+03
  1.49765E+04  3.38762E+03  1.12447E+04  1.15134E+04  1.75347E+03  1.39354E+04 -4.63434E+03  1.02788E+04
 -8.45824E+03  2.40957E+03 -4.02425E+03 -1.59636E+03 -3.14251E+03 -1.42846E+03 -3.98937E+02 -1.65709E+02
 -1.95362E+03 -1.49899E+03 -3.23643E+03 -1.07378E+03 -4.82316E+02 -1.32415E+03  1.16363E+03 -6.03341E+03
  4.18843E+03 -4.13803E+03  8.57154E+03 -2.32152E+03  8.04939E+03  7.01221E+03  1.12468E+03  1.29249E+04
 -6.22020E+03  1.59628E+04 -1.36224E+04  8.00798E+03 -1.66209E+04 -1.20575E+03 -1.07742E+04 -1.03085E+04
 -3.58059E+03 -1.19814E+04  2.26521E+03 -1.15970E+04  9.68642E+03 -6.07642E+03  9.30327E+03  1.07814E+03
  3.06961E+03  5.90514E+03 -1.20355E+03  5.59694E+03 -2.25055E+03  7.89242E+02  1.64955E+03 -2.10698E+03
  3.62118E+03 -8.38180E+02  5.95998E+03  2.11672E+03  2.24583E+03  5.80067E+03  1.06987E+03  7.39415E+03
 -5.43420E+03  7.05276E+03 -9.07047E+03  2.11821E+02 -7.07113E+03 -8.00966E+03 -1.55825E+03 -1.22643E+04
  4.92081E+03 -8.51010E+03  1.21826E+04 -2.49731E+03  1.06985E+04  2.27506E+03  6.05622E+03  8.61737E+03
  2.50567E+03  9.28573E+03 -3.80805E+03  6.94145E+03 -5.16381E+03  4.06506E+03 -5.94583E+03  1.29192E+03
 -2.88633E+03 -1.79235E+03 -1.45135E+03 -7.55609E+02 -4.18740E+03  3.26725E+03 -8.71105E+03 -1.43823E+03
 -6.35873E+03 -3.50421E+03 -3.37207E+03 -1.07133E+04  3.88257E+03 -8.46858E+03  7.39543E+03 -3.75507E+03
  8.71645E+03  1.27969E+03  3.66629E+03  6.75333E+03  1.08974E+03  8.32300E+03 -6.55635E+03  5.84588E+03
