 $NMID ID='MM_0lb_SNR200_20hz_g45_20.RAW', FMTDAT='(8E13.5)'
 TRAMP=1., VOLUME=1. $END
  3.09794E+05  1.29450E+03  3.37603E+05  2.50048E+05  8.43182E+04  3.36710E+05 -1.31646E+05  2.50239E+05
 -1.88224E+05  8.26870E+04 -1.10666E+05 -3.29769E+04  2.00434E+03 -5.00036E+04  5.36120E+04  1.34392E+02
  3.55327E+04  5.24006E+04 -1.67651E+04  7.51172E+04 -5.97420E+04  6.29884E+04 -8.29845E+04  3.14017E+04
 -7.89465E+04 -1.12808E+04 -5.55147E+04 -5.01855E+04 -1.49259E+04 -6.87989E+04  2.72043E+04 -4.38582E+04
  3.88013E+04  5.10919E+03  1.49234E+04  4.73917E+04 -3.43515E+04  4.65342E+04 -6.52603E+04 -1.05507E+03
 -5.13057E+04 -5.58186E+04 -6.10266E+03 -7.47546E+04  3.27848E+04 -5.14794E+04  4.49517E+04 -1.63442E+04
  4.14211E+04  1.14659E+04  2.98633E+04  2.36876E+04  1.63999E+04  2.77069E+04 -4.51351E+03  2.66193E+04
 -2.15926E+04  1.29203E+04 -1.97616E+04 -4.42134E+03  3.55648E+03 -7.62165E+03  2.01718E+04  9.95915E+03
  8.07874E+03  3.23502E+04 -2.98485E+04  3.37627E+04 -5.89002E+04  2.56238E+03 -5.50588E+04 -4.06273E+04
 -1.28144E+04 -5.99829E+04  3.67969E+04 -4.27902E+04  5.43630E+04 -1.70846E+03  3.24672E+04  2.98207E+04
 -7.12085E+03  3.10664E+04 -2.89687E+04  1.20453E+04 -2.71397E+04 -5.67145E+03 -1.35300E+04 -8.74205E+03
 -6.40218E+03 -1.05408E+04 -1.52687E+03 -1.55620E+04  5.77236E+03 -2.28613E+04  1.59053E+04 -1.33884E+04
  1.24130E+04  3.33872E+03 -5.06941E+03  1.36345E+04 -1.79563E+04 -1.34172E+03 -8.28374E+03 -2.91869E+04
  1.99328E+04 -3.96507E+04  4.34850E+04 -1.83571E+04  4.19133E+04  1.69426E+04  1.43224E+04  4.16176E+04
 -1.59429E+04  2.95702E+04 -2.26269E+04  3.51898E+02 -7.34003E+03 -2.54089E+04  2.00803E+04 -3.05935E+04
  3.69590E+04 -7.26338E+03  2.96996E+04  2.25110E+04  1.40520E+04  4.20204E+04 -8.15047E+03  4.40247E+04
 -2.74082E+04  2.84048E+04 -3.58413E+04  7.26006E+03 -3.74683E+04 -1.45119E+04 -2.00379E+04 -3.33090E+04
  5.84534E+03 -3.21217E+04  2.86136E+04 -1.16619E+04  2.62350E+04  1.03326E+04  2.85787E+03  1.83307E+04
 -1.42653E+04  6.67725E+03 -9.71342E+03 -8.64729E+03  6.13192E+03 -9.61984E+03  1.60731E+04  6.54931E+03
  1.23369E+04  2.09242E+04 -7.47169E+03  2.28684E+04 -2.08400E+04  8.89320E+03 -2.39390E+04 -6.41045E+03
 -1.47858E+04 -1.63338E+04 -4.28130E+03 -1.52456E+04  4.13766E+03 -1.21298E+04  1.10397E+04 -1.23904E+04
  1.97213E+04 -1.11717E+04  2.64308E+04  1.62511E+03  2.01253E+04  1.51899E+04  4.51335E+03  3.18741E+04
 -1.63257E+04  2.73757E+04 -2.48600E+04  8.36759E+03 -1.87925E+04 -1.09407E+04 -3.43502E+03 -1.40893E+04
  3.02106E+03 -4.04564E+03 -2.26199E+03  4.33745E+03 -1.13420E+04  5.40189E+03 -1.33199E+04 -3.86275E+03
 -8.27290E+03 -1.38836E+04  4.19477E+03 -1.86374E+04  1.12459E+04 -1.20834E+04  1.39811E+04 -1.96324E+03
  7.25972E+03  1.04588E+04 -4.23793E+02  1.50333E+04 -9.85064E+03  7.35981E+03 -1.41211E+04 -3.42426E+03
 -1.16683E+04 -1.37513E+04 -2.18373E+03 -1.84090E+04  7.92854E+03 -1.36227E+04  1.60856E+04 -6.52185E+03
  1.41597E+04  8.10363E+02  9.26355E+03  4.23601E+03  3.91346E+03 -8.42389E+01  7.78156E+03 -2.32020E+03
  1.32221E+04  2.25384E+03  1.39770E+04  1.23955E+04  7.29221E+03  2.32697E+04 -3.25455E+03  2.44706E+04
 -1.54030E+04  1.83122E+04 -2.17762E+04  9.49787E+03 -2.20600E+04 -1.48296E+03 -1.92838E+04 -1.22728E+04
 -9.83254E+03 -1.94606E+04  5.74894E+03 -1.75954E+04  1.54957E+04 -1.02548E+04  1.40293E+04  3.85692E+03
  5.99604E+03  1.03869E+04 -6.03914E+03  1.00326E+04 -1.26399E+04  3.30451E+03 -9.76513E+03 -7.53868E+03
 -6.55820E+02 -1.31987E+04  4.44104E+03 -7.81994E+03  7.08494E+03 -1.52590E+03  3.36696E+02  4.09176E+03
 -5.66376E+03  8.62039E+02 -3.12386E+03 -5.13023E+03  1.60925E+03 -1.00078E+04  7.02908E+03 -8.98714E+03
  1.03766E+04 -3.59544E+03  9.54412E+03  2.42900E+03  8.62838E+03  8.18336E+03  3.73347E+03  1.20907E+04
 -2.11851E+03  1.34134E+04 -8.80245E+03  7.84205E+03 -9.69069E+03  3.79163E+03 -7.17409E+03 -1.67024E+03
 -5.04437E+03 -2.36258E+03 -1.82764E+03  2.81196E+03 -1.07353E+03  1.11593E+03 -2.88893E+03  3.01147E+03
 -8.39273E+03 -1.21717E+03 -7.91430E+03 -6.62501E+03 -3.11467E+03 -1.07237E+04  2.52640E+03 -7.00462E+03
  5.45578E+03 -2.60462E+03  4.74966E+03  1.53477E+03  5.44521E+02  2.96044E+03 -2.79198E+03  4.21809E+02
 -2.92593E+03 -4.29926E+03  5.16793E+01 -5.89016E+03  3.02197E+03 -6.57761E+03  9.14234E+03 -4.61989E+03
  1.04715E+04 -1.08804E+03  8.22252E+03  5.67781E+03  1.63729E+03  7.88449E+03 -4.43997E+03  7.76292E+03
 -5.57726E+03  1.83648E+03 -2.09691E+03 -1.88985E+03  8.39694E+02 -2.35450E+03  4.27157E+03 -1.60131E+03
  3.06935E+03  2.88343E+03  5.04644E+02  5.59220E+03 -4.38889E+03  6.35904E+03 -6.59662E+03  2.02714E+03
 -3.71124E+03 -3.58578E+03  8.13065E+02 -6.22563E+03  2.72413E+03 -4.36655E+03  3.73960E+03  9.93142E+02
  3.97338E+02  2.48421E+03 -2.83319E+03  3.45730E+03 -3.88341E+03  1.38529E+03 -3.50749E+03 -1.15515E+03
 -1.60259E+03 -5.36805E+03  1.17218E+03 -5.44058E+03  4.86076E+03 -4.32640E+03  5.37624E+03  6.87608E+01
  3.59566E+03  5.44053E+03  3.00501E+02  6.66617E+03 -3.65609E+03  4.16072E+03 -4.34577E+03 -1.04789E+03
 -5.56643E+03 -5.46013E+03 -1.03744E+03 -4.08542E+03  1.87886E+03 -4.32138E+03  2.21852E+03 -1.91074E+03
  3.29368E+03  9.85886E+01  5.11043E+02  1.35838E+03  1.05712E+03  6.45617E+01 -2.54289E+02 -1.70315E+03
  3.81819E+03 -9.74227E+02  4.37035E+03  3.83559E+02  4.09723E+03  1.78267E+03  5.54318E+03  6.21303E+03
 -7.38081E+02  7.04450E+03 -6.65941E+03  5.05290E+03 -8.35506E+03  1.83856E+02 -5.45532E+03 -1.73214E+03
 -4.47870E+03 -5.24102E+03 -2.02768E+02 -4.24296E+03  2.71332E+03 -1.27837E+03  7.98251E+02 -2.56979E+03
  7.80433E+02 -2.35462E+02  2.00954E+03 -2.53411E+03  4.31509E+03 -9.98149E+02  2.52203E+03  4.16747E+02
  4.73269E+03  1.74289E+02  9.59020E+02  2.77488E+03 -7.05077E+02  2.18332E+03 -3.61874E+03  9.94182E+02
 -4.46103E+03 -1.40926E+03 -7.62418E+02 -3.20913E+03 -2.57867E+02 -3.47257E+03  2.32411E+03 -4.74253E+03
  4.01843E+03 -2.70501E+03  6.37993E+03 -6.53990E+02  4.22185E+03  3.93631E+03  1.55150E+03  4.48096E+03
 -1.52482E+03  5.34027E+03 -3.10474E+03  6.07318E+02 -1.60924E+03 -9.68765E+02 -3.98561E+01 -4.46685E+02
 -6.30191E+02 -7.84837E+01 -5.74817E+02  2.17191E+03 -2.57556E+03  1.52060E+03 -3.79909E+03 -4.90162E+02
 -2.99553E+02 -3.13595E+03  6.24232E+02 -4.31934E+03  2.90002E+03 -3.19006E+03  3.92337E+03 -1.33657E+03
  3.04184E+03  2.00965E+03  6.09158E+02  3.56506E+03 -1.37195E+03  3.15556E+03 -1.90397E+03  2.54753E+03
 -3.32696E+03  1.30348E+03 -2.58002E+03 -1.06097E+03 -3.02027E+02 -1.93155E+03  1.02628E+03 -3.24301E+03
  3.07750E+03 -3.86479E+02  1.24329E+03  4.43297E+02  1.19780E+03  1.12483E+03  1.15425E+03  1.12409E+02
  1.43761E+03  3.78578E+02  6.36502E+02 -2.56685E+02  9.53574E+02  2.53961E+03  7.00724E+02  2.22011E+03
 -9.49482E+02  2.48686E+03 -1.97740E+03  3.15130E+03 -1.85113E+03  1.38205E+03 -2.92432E+03 -3.94301E+01
 -1.55886E+03 -1.99713E+03  9.17958E+02 -4.13067E+03  3.14092E+02 -2.19052E+03  3.41706E+03 -5.61169E+02
  2.17752E+03  2.27810E+03  1.70582E+02  2.47312E+03 -2.00699E+02  4.80303E+02 -1.26004E+03 -7.26537E+02
 -3.01041E+02 -1.21331E+03  1.10051E+03 -1.53469E+03  3.24615E+02 -7.56033E+02  1.23192E+03  4.02068E+02
 -6.45828E+02 -2.10955E+02  9.75282E+02 -1.12726E+03 -4.22247E+02 -2.19175E+02  2.03532E+03 -1.09955E+03
 -3.29269E+02 -6.29661E+02  9.13978E+02  1.35375E+03  5.48875E+02  1.38795E+03  6.23757E+02  2.54052E+03
 -8.25698E+02  8.41489E+02 -1.64589E+03  5.65037E+02 -1.24881E+03  3.76162E+01 -4.81567E+01 -7.78265E+02
  1.18120E+03 -1.27029E+03  1.62450E+03 -5.33642E+02 -3.76759E+02  9.60447E+02 -4.28105E+02  7.91050E+02
 -1.59435E+03  5.22525E+02 -3.12264E+02 -9.97887E+02  2.03955E+02 -1.35679E+03  2.80390E+02 -1.30649E+03
  5.05941E+01  3.20885E+02  1.29428E+03 -2.93510E+02  1.47468E+03  3.62873E+02  2.57782E+02  1.73216E+03
  4.49576E+02 -1.98346E+02 -4.98914E+02 -1.39193E+02  5.13548E+02 -2.68170E+02  1.41001E+03 -7.09122E+02
  1.01886E+03  5.93323E+01  2.14087E+03  1.88244E+02  3.05255E+02  1.22129E+03 -1.74025E+02  9.37314E+02
 -4.58999E+02  6.37191E+02 -6.80104E+02 -1.38545E+03 -4.86466E+02 -1.49641E+03  6.85086E+02  3.40022E+02
  1.04931E+03 -5.77496E+02  1.07405E+03  1.01709E+03  4.20146E+02  1.03024E+03  4.99513E+02  7.20930E+02
 -1.17872E+03  1.57037E+03 -9.20058E+02  1.06362E+02  1.07445E+03 -2.27599E+02 -8.47872E+02  4.54983E+02
 -4.40379E+02  9.58747E+02 -1.29709E+03  1.82688E+02 -4.95554E+02  9.20510E+02 -1.67543E+03 -1.04794E+03
 -1.83530E+03 -1.28206E+03  6.69342E+02 -1.66511E+03  8.42016E+02 -1.98088E+03  1.80561E+03 -1.18360E+03
  1.59511E+03 -4.84766E+02  6.29046E+02  1.12222E+03 -7.55288E+02 -7.55483E+02 -3.11303E+01  1.00860E+02
 -1.47635E+02  1.48859E+02  9.88469E-01  2.98998E+02 -5.01077E+02 -6.14231E+01 -1.12161E+03 -6.10763E+02
 -3.33050E+02 -3.56861E+02 -7.83489E+02 -6.14198E+02 -5.92390E+02 -3.19163E+02 -3.52653E+02 -1.17349E+03
  1.34093E+03 -1.05847E+03 -7.81453E+02  2.55123E+02  9.29094E+02 -4.51391E+02 -9.51184E+02  9.53993E+02
 -4.69680E+02  2.68933E+03 -8.64434E+02  1.75029E+03 -1.26198E+03 -6.91871E+02 -3.39194E+02 -8.17426E+02
 -5.39273E+02 -1.24148E+02 -7.14675E+01 -7.11381E+02  1.58801E+03 -1.01413E+03 -4.79259E+02 -8.15264E+02
 -4.44444E+01 -1.85554E+02 -2.20444E+02  1.09408E+03 -1.02805E+02  1.05349E+03 -6.27222E+02 -1.35767E+03
 -5.52960E+02 -2.82949E+01  8.62630E+02  6.60252E+02 -1.48513E+02  6.27775E+02  1.37794E+02  7.21271E+02
  1.35016E+03  3.55856E+02 -6.58753E+02 -7.62321E+02 -8.36411E+02  3.08009E+02 -4.77582E+02 -8.17426E+02
  1.37766E+02 -1.00958E+03  4.89970E+02 -4.67409E+02  8.87166E+02  1.82588E+02 -3.19500E+01  7.38696E+02
  3.02815E+02  9.64744E+02 -4.63672E+01 -3.21034E+01 -1.47137E+03 -4.66885E+02 -2.35894E+02  2.58673E+01
 -5.02400E+02  4.82203E+02 -1.30069E+02 -8.66353E+01 -1.43633E+03  6.44648E+02  4.87485E+02  3.83425E+01
 -2.00441E+03  5.00202E+02 -1.30122E+02  4.30024E+02  5.39666E+02 -1.32806E+03  5.66995E+02 -1.37696E+01
  5.81501E+02  7.03640E+02 -9.32043E+02 -2.02742E+01 -6.34516E+02  1.32687E+03  1.93676E+02  9.18222E+02
