 $NMID ID='MM_0lb_SNR200_9hz_g50_38.RAW', FMTDAT='(8E13.5)'
 TRAMP=1., VOLUME=1. $END
  3.10402E+05  6.98856E+02  3.38616E+05  2.50826E+05  8.42476E+04  3.37379E+05 -1.33304E+05  2.51841E+05
 -1.89901E+05  8.43399E+04 -1.11093E+05 -3.39711E+04  2.08207E+02 -5.01164E+04  5.44651E+04 -1.24609E+02
  3.48619E+04  5.26512E+04 -1.76279E+04  7.57120E+04 -6.21649E+04  6.43852E+04 -8.52584E+04  3.21823E+04
 -8.22681E+04 -1.10652E+04 -5.73768E+04 -5.20346E+04 -1.44120E+04 -7.32653E+04  2.69074E+04 -4.56960E+04
  4.06479E+04  3.58439E+03  1.55157E+04  4.81597E+04 -3.46063E+04  4.86109E+04 -7.00243E+04 -3.66852E+02
 -5.50821E+04 -5.74755E+04 -1.01269E+04 -7.83422E+04  3.43579E+04 -5.51780E+04  4.96232E+04 -1.88019E+04
  4.36541E+04  1.18035E+04  3.38431E+04  2.60262E+04  1.71458E+04  3.01677E+04 -5.31433E+03  2.68677E+04
 -2.29725E+04  1.34256E+04 -1.73619E+04 -5.12675E+03  7.98568E+03 -7.28491E+03  2.44945E+04  1.33493E+04
  7.19483E+03  3.63502E+04 -3.39763E+04  3.63397E+04 -6.59043E+04  1.88669E+03 -5.82739E+04 -4.32547E+04
 -1.20429E+04 -6.53420E+04  4.30554E+04 -4.71156E+04  6.18385E+04 -2.99200E+03  3.61794E+04  3.46103E+04
 -5.35226E+03  3.99476E+04 -3.29066E+04  2.02931E+04 -3.44231E+04 -3.69756E+03 -1.83317E+04 -1.35136E+04
 -1.00523E+04 -1.38964E+04 -7.79924E+02 -1.95067E+04  8.45092E+03 -2.35926E+04  1.52230E+04 -1.26098E+04
  9.30122E+03  6.88836E+03 -1.02734E+04  1.34743E+04 -2.46535E+04 -6.70143E+03 -8.09602E+03 -3.83313E+04
  2.50669E+04 -4.60625E+04  5.15515E+04 -2.11381E+04  4.75607E+04  2.05319E+04  1.64745E+04  4.74768E+04
 -1.86300E+04  3.56722E+04 -2.71989E+04  2.66091E+03 -1.17859E+04 -3.06374E+04  2.22295E+04 -3.61937E+04
  4.46770E+04 -1.27316E+04  4.05207E+04  2.39630E+04  2.02907E+04  5.18367E+04 -7.71918E+03  5.74076E+04
 -3.68118E+04  3.89777E+04 -4.77175E+04  1.10440E+04 -4.75197E+04 -1.90581E+04 -2.74640E+04 -4.25545E+04
  8.87972E+03 -4.33426E+04  3.39407E+04 -1.90154E+04  3.21852E+04  1.13037E+04  5.05589E+03  2.04058E+04
 -1.50283E+04  9.92237E+03 -1.00825E+04 -8.82363E+03  6.29599E+03 -1.03918E+04  1.64441E+04  5.73501E+03
  1.48642E+04  2.31368E+04 -5.20712E+03  2.67072E+04 -2.37979E+04  1.38611E+04 -3.21229E+04 -3.17124E+03
 -2.53679E+04 -1.93781E+04 -1.22219E+04 -2.43433E+04  4.11491E+03 -2.66385E+04  1.83017E+04 -2.40227E+04
  3.05353E+04 -1.40471E+04  3.79560E+04  4.08355E+03  2.71033E+04  2.44433E+04  4.10519E+03  4.16748E+04
 -2.08365E+04  3.40371E+04 -3.00144E+04  1.12553E+04 -2.13474E+04 -1.06551E+04 -4.06336E+03 -1.26352E+04
  1.55057E+03 -6.84928E+02 -7.01317E+03  8.68814E+03 -2.04873E+04  3.78312E+03 -2.11013E+04 -8.57946E+03
 -1.18534E+04 -2.54607E+04  5.09917E+03 -2.85195E+04  1.90668E+04 -2.01229E+04  2.17447E+04 -3.20027E+03
  1.56077E+04  1.57212E+04 -1.67424E+03  2.30976E+04 -1.71209E+04  1.25694E+04 -2.39159E+04 -4.75109E+03
 -1.68503E+04 -2.11675E+04 -1.71226E+03 -2.85025E+04  1.27713E+04 -2.35324E+04  2.38385E+04 -1.26016E+04
  2.33436E+04  6.84021E+02  1.69519E+04  6.00758E+03  8.81812E+03  2.00285E+03  1.21398E+04 -7.58969E+02
  2.27713E+04  3.54880E+03  2.50401E+04  1.91182E+04  1.56788E+04  3.72788E+04 -1.05185E+03  4.45663E+04
 -2.52421E+04  3.59802E+04 -4.19367E+04  2.06899E+04 -4.49970E+04 -4.65144E+03 -3.52508E+04 -2.53278E+04
 -1.36681E+04 -3.92203E+04  1.34741E+04 -3.21861E+04  2.71645E+04 -1.58545E+04  2.41238E+04  8.28470E+03
  7.25613E+03  1.77886E+04 -1.20673E+04  1.49415E+04 -1.99902E+04  4.00493E+03 -1.62805E+04 -1.32200E+04
 -1.21724E+03 -1.86298E+04  9.98737E+03 -1.33315E+04  1.28820E+04 -2.64811E+03  4.39650E+03  9.24508E+03
 -7.03104E+03  2.54482E+03 -9.42190E+03 -6.79426E+03 -2.66104E+03 -1.89872E+04  1.24989E+04 -1.97246E+04
  2.23154E+04 -1.25683E+04  2.62382E+04  3.22932E+03  2.33515E+04  1.67973E+04  1.10436E+04  2.77793E+04
 -6.21106E+03  3.01256E+04 -2.17657E+04  2.03018E+04 -2.24060E+04  3.30213E+03 -1.41714E+04 -5.67947E+03
 -6.86119E+03 -7.67215E+03  3.90641E+01  1.29737E+02 -2.71020E+03  2.80584E+03 -7.55271E+03  4.80968E+03
 -1.36711E+04 -2.12585E+02 -1.45435E+04 -1.08846E+04 -6.78001E+03 -1.87750E+04  6.20907E+03 -1.49308E+04
  1.25159E+04 -6.62178E+03  9.69421E+03  4.56469E+03 -4.87509E+02  6.93215E+03 -7.94422E+03 -1.02567E+03
 -6.50537E+03 -1.02277E+04 -1.67891E+03 -1.67104E+04  1.07029E+04 -1.59040E+04  1.96272E+04 -8.23515E+03
  2.27195E+04  9.19900E+01  1.78737E+04  1.43915E+04  3.86040E+03  1.76534E+04 -1.05083E+04  1.57203E+04
 -1.30213E+04  3.75160E+03 -6.72834E+03 -3.52601E+03  3.31138E+03 -3.93460E+03  6.58021E+03 -1.69632E+03
  7.23958E+03  7.23640E+03  1.04790E+03  1.09346E+04 -1.02428E+04  1.23201E+04 -1.61992E+04  2.95909E+03
 -9.23354E+03 -9.20079E+03  2.62377E+02 -1.32752E+04  9.28170E+03 -7.66967E+03  8.69482E+03  1.22271E+03
  2.02501E+03  9.92011E+03 -9.28942E+03  1.23094E+04 -1.45854E+04  3.68519E+03 -1.43034E+04 -5.13691E+03
 -7.33364E+03 -1.59654E+04  4.31491E+03 -1.74047E+04  1.68863E+04 -9.39278E+03  1.64293E+04  2.73164E+03
  1.00737E+04  1.33496E+04 -2.93399E+03  1.58750E+04 -1.07275E+04  8.68100E+03 -1.35109E+04 -5.02033E+02
 -1.04176E+04 -1.16080E+04 -9.68792E+02 -1.18849E+04  5.98674E+03 -9.57466E+03  8.23798E+03 -2.94487E+03
  5.03441E+03  1.83826E+03 -1.53750E+03  2.72434E+03 -1.06947E+03 -5.45437E+03  1.14264E+03 -7.80672E+03
  1.15301E+04 -4.09569E+03  1.59945E+04 -9.44476E+02  1.45813E+04  1.09460E+04  1.10771E+04  2.14197E+04
 -5.67417E+03  2.43387E+04 -2.00968E+04  1.70438E+04 -2.60528E+04  3.81770E+03 -2.17075E+04 -7.92481E+03
 -1.09432E+04 -1.66520E+04 -3.44883E+02 -1.42288E+04  5.58005E+03 -9.36534E+03  5.32041E+03 -4.80598E+03
  2.45752E+03 -3.85313E+03  3.64709E+03 -3.21017E+03  7.03887E+03 -2.66421E+03  7.00594E+03 -2.50744E+03
  9.67215E+03  3.36416E+03  6.46874E+03  8.92393E+03 -1.62072E+03  1.03195E+04 -9.45120E+03  9.34618E+03
 -1.63226E+04 -1.11877E+03 -8.65825E+03 -1.16538E+04 -3.79303E+02 -1.62792E+04  9.44656E+03 -1.69149E+04
  1.77547E+04 -8.46897E+03  1.93898E+04  3.40796E+03  1.33027E+04  1.52470E+04  1.16001E+03  1.86889E+04
 -7.65285E+03  1.47916E+04 -9.66832E+03  4.39399E+03 -6.79682E+03 -1.18198E+03 -4.04759E+03 -3.72180E+03
 -1.58508E+03 -1.22453E+03 -2.41186E+03  2.79033E+03 -5.61569E+03  2.56288E+03 -1.00935E+04 -3.02267E+03
 -7.27613E+03 -9.48101E+03  4.80866E+02 -1.48050E+04  9.01940E+03 -1.40981E+04  1.32320E+04 -4.61210E+03
  1.44445E+04  6.82413E+03  6.24072E+03  1.41887E+04 -4.02683E+03  1.56459E+04 -1.12201E+04  9.94089E+03
 -1.39101E+04  2.13421E+01 -1.04983E+04 -8.30694E+03 -5.25996E+02 -1.23320E+04  5.32471E+03 -8.64076E+03
  9.04619E+03 -3.79014E+03  6.89332E+03  2.34822E+03  1.38088E+03  4.15839E+03  2.69175E+03  6.96030E+02
  2.83779E+03  2.03828E+03  4.17571E+03  2.44217E+03  4.73244E+03  4.89100E+03  3.95519E+03  8.77174E+03
 -2.78481E+03  1.24762E+04 -1.14308E+04  1.24061E+04 -1.54351E+04  2.07697E+03 -1.67344E+04 -5.04251E+03
 -6.23758E+03 -1.69999E+04  2.09486E+03 -1.77751E+04  1.02610E+04 -9.52656E+03  1.23285E+04 -3.30055E+03
  1.05644E+04  6.59067E+03  2.30116E+03  7.64614E+03 -5.92447E+03  5.98761E+03 -6.20736E+03 -4.80706E+02
 -3.94558E+03 -6.76397E+03  4.10197E+03 -7.91513E+03  4.39543E+03 -4.03651E+03  5.56919E+03  6.37720E+02
  2.91894E+03  4.02798E+03  2.09736E+03  1.28653E+03 -9.24722E+02  1.30292E+03  1.46614E+03 -1.69044E+03
  2.32338E+03 -2.75747E+03  5.82339E+03  2.80394E+03  4.58679E+03  9.92114E+03 -2.75271E+03  1.22926E+04
 -5.54864E+03  8.29384E+03 -9.91277E+03  2.37021E+03 -7.45123E+03 -3.76272E+03 -2.06331E+03 -6.49044E+03
  5.64651E+02 -5.77009E+03  3.19787E+03 -2.18687E+03  3.41969E+03  2.78763E+03 -1.07218E+02  4.60854E+03
 -6.53868E+03  2.26547E+03 -7.52829E+03 -2.72718E+03 -4.78910E+03 -7.94888E+03  2.20509E+03 -8.43827E+03
  5.40828E+03 -5.56622E+03  6.14103E+03 -1.41152E+03  5.27778E+03  2.32973E+03  1.57514E+03  3.91930E+03
 -2.95310E+03  1.07903E+03 -4.90803E+03 -1.41844E+03  1.78086E+03 -8.43959E+03  9.43420E+03 -3.49998E+03
  1.03774E+04  2.10682E+02  9.54733E+03  6.37683E+03  2.80497E+03  1.01999E+04 -2.94571E+03  1.06431E+04
 -7.46061E+03  4.20345E+03 -9.10357E+03 -1.66436E+03 -3.96197E+03 -8.33666E+03  3.16022E+03 -5.69958E+03
  6.35419E+03 -3.01928E+03  4.64702E+03  2.60030E+03  1.21472E+03  5.08919E+03  2.34205E+02  5.56744E+03
 -1.32536E+03  3.85205E+03 -3.12385E+03  4.94344E+02 -1.87389E+02  1.19233E+03  7.25195E+02  2.77085E+03
 -2.43469E+03  5.67209E+03 -5.81402E+03  3.55360E+03 -9.94544E+03  1.05093E+03 -9.65586E+03 -5.95701E+03
 -6.14298E+03 -1.30548E+04  3.05480E+03 -1.37447E+04  1.06281E+04 -1.31163E+04  1.41594E+04 -3.25732E+03
  1.25619E+04  1.58870E+03  8.81550E+03  9.10311E+03  1.46116E+03  9.72033E+03 -3.93725E+03  7.78810E+03
 -5.24202E+03  2.72845E+03 -3.61100E+03 -1.75131E+03 -3.43707E+03 -1.67393E+03  2.37745E+02 -1.87363E+03
 -7.22214E+02  8.50583E+02 -2.66312E+03 -2.87909E+02 -6.64842E+02 -1.89873E+03  4.97132E+02 -3.82405E+03
  4.61477E+03 -3.59449E+03  7.00444E+03  1.61828E+02  6.31355E+03  7.39697E+03  1.71111E+03  1.21844E+04
 -4.03925E+03  1.24075E+04 -1.18371E+04  7.70354E+03 -1.32108E+04 -1.35324E+03 -8.78667E+03 -7.63435E+03
 -5.51406E+03 -1.20503E+04  1.36583E+03 -9.83489E+03  7.41959E+03 -5.45277E+03  7.12519E+03 -3.86793E+02
  5.07615E+03  2.82544E+03  2.37100E+02  2.59766E+03 -3.18260E+03 -1.42342E+03  1.50358E+03 -3.26822E+03
  2.67930E+03 -1.45225E+03  3.33515E+03  1.60660E+03  3.15270E+03  4.17804E+03 -1.15102E+03  7.34893E+03
 -5.11483E+03  5.19482E+03 -7.76039E+03  1.03694E+03 -5.51989E+03 -4.97163E+03 -2.92841E+02 -8.64556E+03
  3.90864E+03 -8.15724E+03  8.13636E+03 -2.66164E+03  8.52197E+03  7.01096E+02  6.59659E+03  6.74767E+03
  4.30540E+02  6.60903E+03 -3.52867E+03  6.35686E+03 -4.70323E+03  3.18108E+03 -3.25293E+03  6.50221E+02
 -2.55483E+03 -8.09690E+02 -2.05498E+03  9.32771E+02 -3.41717E+03  2.20887E+03 -6.62216E+03 -5.36486E+02
 -6.09749E+03 -3.32725E+03 -2.48451E+03 -4.44240E+03  2.20969E+03 -5.91798E+03  6.04058E+03 -4.98184E+03
  6.96522E+03  1.46219E+03  5.13838E+03  5.69287E+03 -9.77521E+02  7.02216E+03 -5.11956E+03  4.04644E+03
