 $NMID ID='MM_0lb_SNR200_10hz_g50_39.RAW', FMTDAT='(8E13.5)'
 TRAMP=1., VOLUME=1. $END
  3.10465E+05  1.43352E+03  3.38565E+05  2.50379E+05  8.46510E+04  3.38420E+05 -1.32418E+05  2.51674E+05
 -1.91305E+05  8.36044E+04 -1.12379E+05 -3.24137E+04  1.45394E+03 -4.99230E+04  5.46133E+04 -4.32559E+02
  3.44945E+04  5.13485E+04 -1.72070E+04  7.65743E+04 -6.18573E+04  6.43365E+04 -8.54445E+04  3.21308E+04
 -8.05925E+04 -1.15851E+04 -5.62077E+04 -5.39053E+04 -1.53001E+04 -7.07825E+04  2.93749E+04 -4.64621E+04
  3.97603E+04  4.08134E+03  1.76759E+04  4.80335E+04 -3.36128E+04  4.96943E+04 -6.74221E+04 -8.11284E+00
 -5.46094E+04 -5.70527E+04 -6.09626E+03 -7.88265E+04  3.57816E+04 -5.61117E+04  5.07007E+04 -1.69880E+04
  4.51160E+04  1.07681E+04  3.53848E+04  2.73084E+04  1.52203E+04  2.98127E+04 -5.94772E+03  2.82341E+04
 -2.28230E+04  1.19025E+04 -1.73728E+04 -6.44624E+03  6.46885E+03 -7.16876E+03  2.33405E+04  1.45802E+04
  7.51174E+03  3.60294E+04 -3.33268E+04  3.57842E+04 -6.55139E+04  2.03488E+03 -5.89570E+04 -4.57420E+04
 -1.15970E+04 -6.56102E+04  4.14974E+04 -4.83705E+04  6.05673E+04 -1.98603E+03  3.53920E+04  3.50710E+04
 -5.79937E+03  3.86920E+04 -3.21025E+04  1.65797E+04 -3.02422E+04 -4.77002E+03 -1.90016E+04 -1.10027E+04
 -9.95771E+03 -1.58737E+04 -1.35053E+03 -1.75513E+04  8.35054E+03 -2.35983E+04  1.57969E+04 -1.35037E+04
  1.01040E+04  4.94918E+03 -1.15979E+04  1.35186E+04 -2.35475E+04 -5.48357E+03 -7.88738E+03 -3.72938E+04
  2.43387E+04 -4.60363E+04  5.06475E+04 -2.01469E+04  4.80345E+04  2.05756E+04  1.67533E+04  4.57058E+04
 -1.74443E+04  3.46552E+04 -2.73462E+04  2.58750E+03 -1.31206E+04 -2.93689E+04  2.04251E+04 -3.73404E+04
  4.33766E+04 -1.04874E+04  3.94315E+04  2.42114E+04  1.91381E+04  5.00892E+04 -7.54279E+03  5.56507E+04
 -3.47318E+04  3.73886E+04 -4.66673E+04  1.08299E+04 -4.52046E+04 -1.90586E+04 -2.66114E+04 -3.99051E+04
  7.07478E+03 -4.04857E+04  3.41115E+04 -1.63033E+04  3.17946E+04  1.11941E+04  4.86185E+03  2.02792E+04
 -1.39454E+04  9.59918E+03 -1.10629E+04 -7.41679E+03  7.23882E+03 -1.04600E+04  1.81735E+04  5.51515E+03
  1.25923E+04  2.20305E+04 -4.32631E+03  2.78740E+04 -2.29986E+04  1.24179E+04 -2.98630E+04 -2.56439E+03
 -2.41512E+04 -1.72400E+04 -1.10629E+04 -2.48978E+04  4.89503E+03 -2.44150E+04  1.86911E+04 -2.10210E+04
  3.01803E+04 -1.45826E+04  3.82586E+04  4.24770E+03  2.68430E+04  2.47064E+04  6.65940E+03  3.94152E+04
 -1.99236E+04  3.32379E+04 -3.01024E+04  1.15024E+04 -2.12419E+04 -1.16290E+04 -5.79250E+03 -1.32262E+04
  5.22781E+02 -1.15899E+03 -5.75753E+03  7.67373E+03 -1.99574E+04  4.91230E+03 -1.84165E+04 -8.52556E+03
 -1.09646E+04 -2.49679E+04  5.15828E+03 -2.71971E+04  1.91143E+04 -1.95126E+04  2.10692E+04 -7.48410E+02
  1.50327E+04  1.49970E+04 -1.40985E+03  2.16582E+04 -1.50604E+04  1.26612E+04 -2.25604E+04 -6.06610E+03
 -1.52155E+04 -2.02352E+04 -1.25661E+03 -2.58190E+04  1.20509E+04 -2.13936E+04  2.19900E+04 -1.04315E+04
  2.02009E+04  2.93838E+01  1.41900E+04  3.55766E+03  9.53378E+03  2.68946E+03  1.18106E+04 -8.21265E+02
  2.08928E+04  1.94684E+03  2.42667E+04  1.77102E+04  1.67518E+04  3.61625E+04 -3.38164E+03  4.26964E+04
 -2.43709E+04  3.52019E+04 -3.98430E+04  1.71122E+04 -4.18887E+04 -3.47974E+03 -3.42126E+04 -2.58502E+04
 -1.42786E+04 -3.46037E+04  1.25048E+04 -3.06347E+04  2.67111E+04 -1.61613E+04  2.37619E+04  8.81671E+03
  8.29338E+03  1.72959E+04 -1.12102E+04  1.49954E+04 -1.98607E+04  1.96253E+03 -1.51422E+04 -1.21723E+04
  7.53004E+02 -1.70101E+04  7.21263E+03 -1.43412E+04  1.31805E+04 -9.53331E+02  2.94750E+03  9.53998E+03
 -8.52976E+03  4.59261E+03 -7.23370E+03 -6.29316E+03 -8.96376E+02 -1.80021E+04  1.19825E+04 -1.92052E+04
  2.27382E+04 -9.50620E+03  2.26593E+04  2.23651E+03  2.13046E+04  1.86169E+04  1.02434E+04  2.70541E+04
 -4.85704E+03  3.00339E+04 -1.91202E+04  1.95190E+04 -2.08857E+04  3.18034E+03 -1.26260E+04 -6.14384E+03
 -4.57372E+03 -6.05836E+03 -2.03097E+01 -3.01527E+02 -1.91148E+03  2.86488E+03 -5.09271E+03  5.85549E+03
 -1.40949E+04 -1.91742E+03 -1.53281E+04 -1.34546E+04 -5.92254E+03 -1.85262E+04  6.76310E+03 -1.36943E+04
  1.27230E+04 -7.28880E+03  1.07487E+04  2.47681E+03  1.76572E+01  5.82808E+03 -7.20263E+03 -5.10163E+02
 -7.55157E+03 -9.92889E+03 -2.58469E+02 -1.61888E+04  9.01835E+03 -1.58291E+04  1.94728E+04 -7.49488E+03
  2.18239E+04  2.47669E+03  1.62783E+04  1.41261E+04  3.25444E+03  1.78364E+04 -8.38911E+03  1.35327E+04
 -1.14693E+04  4.59908E+03 -7.80837E+03 -3.29382E+03 -3.03605E+02 -4.14137E+03  7.96529E+03  6.87782E+00
  6.84467E+03  5.56670E+03  6.05541E+01  1.19677E+04 -7.87568E+03  1.14967E+04 -1.53041E+04  3.21308E+03
 -1.06270E+04 -7.05825E+03 -1.02294E+03 -1.23546E+04  8.28270E+03 -4.53172E+03  9.85782E+03  3.30296E+03
  3.24975E+03  9.28507E+03 -8.84413E+03  1.13815E+04 -1.31925E+04  4.01305E+03 -1.21314E+04 -2.91075E+03
 -8.33900E+03 -1.37545E+04  3.90580E+03 -1.68843E+04  1.41028E+04 -9.74530E+03  1.49341E+04  2.90154E+03
  9.44412E+03  1.31324E+04 -1.61658E+03  1.24896E+04 -1.22969E+04  8.50840E+03 -1.35106E+04 -1.51748E+03
 -1.05601E+04 -9.54812E+03  7.86451E+02 -1.14304E+04  5.00338E+03 -9.13542E+03  6.56110E+03 -2.91313E+03
  3.08306E+03  2.33329E+03 -1.41269E+03 -3.08623E+00 -3.97508E+02 -3.59012E+03  9.70809E+02 -8.15018E+03
  1.16482E+04 -3.60184E+03  1.39912E+04  2.28954E+03  1.42508E+04  9.49378E+03  9.53296E+03  1.91563E+04
 -4.38525E+03  2.27984E+04 -1.72139E+04  1.37823E+04 -2.30997E+04  2.72132E+03 -1.91668E+04 -9.18431E+03
 -1.05670E+04 -1.78853E+04 -6.64863E+02 -1.42916E+04  4.59933E+03 -8.28457E+03  4.90609E+03 -4.57877E+03
  3.58143E+03 -2.27352E+03  2.35631E+03 -2.90529E+03  7.09207E+03 -3.65885E+03  8.31057E+03 -5.41962E+02
  8.90071E+03  9.48097E+02  5.40023E+03  7.39125E+03 -3.32383E+03  1.03858E+04 -1.00977E+04  7.75720E+03
 -1.38717E+04 -8.45069E+02 -7.40798E+03 -9.06270E+03 -9.14856E+02 -1.54715E+04  7.18502E+03 -1.44771E+04
  1.34718E+04 -6.26588E+03  1.64505E+04  3.15938E+03  1.26027E+04  1.37576E+04  1.75843E+03  1.51523E+04
 -6.76876E+03  1.25286E+04 -9.37807E+03  5.08822E+03 -6.57548E+03 -1.53122E+03 -3.46461E+03 -2.50177E+03
  7.85805E+00 -1.69291E+02 -1.39185E+03  3.68714E+03 -4.13174E+03  1.96124E+03 -9.65335E+03 -6.05062E+02
 -6.32911E+03 -9.10507E+03 -1.11590E+03 -1.33730E+04  7.95375E+03 -1.16110E+04  1.55912E+04 -3.45334E+03
  1.34764E+04  7.63148E+03  6.32275E+03  1.06906E+04 -3.12961E+03  1.31805E+04 -9.62089E+03  8.53474E+03
 -1.35195E+04  4.88174E+02 -8.78421E+03 -9.13130E+03 -1.77614E+03 -1.15746E+04  5.71522E+03 -9.41732E+03
  8.42244E+03 -1.65721E+03  5.28376E+03  3.67613E+03  7.10067E+02  3.50021E+03  1.58481E+03  3.58477E+03
  1.64096E+03  6.65491E+02  3.49640E+03  6.85489E+02  2.49404E+03  3.71704E+03  2.24130E+03  5.95487E+03
 -1.88751E+03  9.07679E+03 -8.99781E+03  1.15204E+04 -1.39270E+04  1.50188E+03 -1.16429E+04 -4.89193E+03
 -7.76954E+03 -1.25355E+04  2.20567E+03 -1.54752E+04  8.84587E+03 -9.08839E+03  1.12138E+04 -2.11192E+03
  9.74175E+03  6.07677E+03  1.29651E+03  7.96394E+03 -3.56394E+03  5.83068E+03 -5.94498E+03 -1.55288E+03
 -2.29138E+03 -5.67565E+03  3.32415E+03 -5.02045E+03  4.18920E+03 -3.44673E+03  3.06927E+03  2.03856E+03
  2.71388E+03  2.00847E+03  4.72687E+02  2.18083E+03 -2.38597E+03  1.53373E+03  1.95112E+03 -1.13228E+03
  8.50449E+02 -1.31117E+02  5.70617E+03  9.15246E+02  1.82908E+03  7.29916E+03 -1.33519E+03  1.02855E+04
 -5.68186E+03  6.53186E+03 -9.33996E+03  1.58460E+03 -6.51910E+03 -3.18647E+03 -2.69184E+03 -4.33877E+03
  4.92718E+02 -4.15677E+03  2.77190E+03 -1.88992E+03  2.28270E+03  2.88663E+03 -1.88902E+03  4.45314E+03
 -5.60291E+03  2.77678E+03 -7.15922E+03 -2.09618E+03 -3.45650E+03 -6.32379E+03  6.92729E+02 -6.89520E+03
  4.25218E+03 -5.80563E+03  3.37577E+03 -7.43661E+02  4.66302E+03  1.72143E+03  1.06956E+03  3.50606E+03
 -6.27250E+02  9.86069E+02 -5.14788E+03 -3.29671E+03  2.38178E+03 -4.92815E+03  6.56841E+03 -5.48549E+03
  8.16070E+03  4.42161E+02  7.28446E+03  5.71147E+03  2.73222E+03  7.17890E+03 -2.13108E+03  8.51775E+03
 -6.23370E+03  2.69735E+03 -8.11216E+03 -2.35016E+03 -4.49441E+03 -5.03757E+03  2.30621E+03 -4.52461E+03
  4.88804E+03 -5.77780E+02  4.39711E+03  3.22207E+03  6.92579E+02  4.15248E+03 -1.07175E+03  4.91687E+03
 -2.18795E+03  1.72473E+03 -2.36254E+03 -1.73273E+02  4.69353E+01  1.45539E+03 -2.22077E+03  1.74051E+03
 -1.91282E+03  2.96675E+03 -5.46126E+03  2.62665E+03 -7.36643E+03 -9.59984E+02 -9.01782E+03 -6.92304E+03
 -4.94561E+03 -1.08623E+04  3.14360E+03 -1.49126E+04  8.24482E+03 -1.02816E+04  1.14705E+04 -4.50122E+03
  1.14420E+04  2.88989E+03  7.47213E+03  9.30366E+03  1.43427E+03  9.78724E+03 -3.51421E+03  7.19700E+03
 -4.63769E+03  3.43257E+03 -3.43546E+03 -1.70281E+03 -9.03459E+02 -3.09291E+02 -1.45888E+03  4.98321E+02
 -2.27757E+03  9.29301E+02 -9.86904E+02 -1.13359E+03  8.22420E+02 -2.36893E+03 -1.53594E+02 -4.01970E+03
  4.13250E+03 -2.74413E+03  4.41327E+03  1.16209E+03  6.71945E+03  3.86122E+03  7.28515E+02  9.28376E+03
 -3.51419E+03  1.03272E+04 -9.43065E+03  6.58391E+03 -1.20324E+04 -7.71412E+02 -7.96001E+03 -6.97641E+03
 -4.47519E+03 -8.95369E+03  3.47807E+03 -7.65646E+03  5.72147E+03 -4.02152E+03  5.13212E+03  8.50472E+02
  3.33579E+03  1.86961E+03 -1.29550E+03  3.45895E+03 -2.95962E+03  5.19729E+02 -3.02830E+02 -3.14239E+03
  2.18319E+03 -1.79090E+02  2.86339E+03 -5.09986E+02  1.95472E+03  2.69088E+03 -4.83019E+00  5.49250E+03
 -3.73920E+03  2.88267E+03 -5.37061E+03 -1.37999E+02 -5.38067E+03 -5.02963E+03  3.88196E+02 -6.79902E+03
  2.68531E+03 -6.14753E+03  6.34162E+03 -2.57411E+03  6.92219E+03 -1.71184E+02  3.51482E+03  6.02646E+03
  1.27492E+03  5.63790E+03 -1.93423E+03  5.09260E+03 -4.98206E+03  1.54057E+03 -2.83762E+03  1.39529E+03
 -2.28248E+03 -8.89376E+02 -2.55907E+03  1.95430E+03 -2.89803E+03 -9.25359E+01 -4.71034E+03 -2.39634E+02
 -4.01635E+03 -2.27059E+03 -1.20620E+03 -4.44157E+03  3.26629E+03 -6.52041E+03  4.26441E+03 -1.67176E+03
  6.69704E+03  9.17162E+02  2.43306E+03  3.20348E+03 -9.22370E+02  5.48922E+03 -4.21818E+03  1.94369E+03
