 $NMID ID='MM_0lb_SNR200_10hz_g45_58.RAW', FMTDAT='(8E13.5)'
 TRAMP=1., VOLUME=1. $END
  3.10130E+05 -1.61426E+03  3.38697E+05  2.51186E+05  8.56214E+04  3.36794E+05 -1.32451E+05  2.52198E+05
 -1.90909E+05  8.44689E+04 -1.12755E+05 -3.08507E+04  2.18711E+03 -5.00432E+04  5.37585E+04 -1.53509E+03
  3.57845E+04  5.16887E+04 -1.76340E+04  7.64610E+04 -6.12819E+04  6.49371E+04 -8.53011E+04  3.09352E+04
 -8.08228E+04 -1.23950E+04 -5.81239E+04 -5.20696E+04 -1.58704E+04 -7.06398E+04  2.80622E+04 -4.68007E+04
  4.10340E+04  3.97932E+03  1.76661E+04  4.97578E+04 -3.41929E+04  4.83595E+04 -6.60344E+04  6.75741E+02
 -5.39018E+04 -5.67368E+04 -8.44415E+03 -7.70133E+04  3.51254E+04 -5.76631E+04  4.86368E+04 -1.76971E+04
  4.45692E+04  1.15878E+04  3.26024E+04  2.63774E+04  1.60117E+04  2.96781E+04 -4.85727E+03  2.80885E+04
 -2.15655E+04  1.15675E+04 -1.84551E+04 -6.05135E+03  5.28769E+03 -6.68055E+03  2.40786E+04  1.29230E+04
  6.08368E+03  3.65146E+04 -3.32853E+04  3.78704E+04 -6.50572E+04  3.45142E+03 -5.72840E+04 -4.51402E+04
 -1.29189E+04 -6.33977E+04  3.98621E+04 -4.85973E+04  6.10089E+04 -1.54720E+03  3.65008E+04  3.33072E+04
 -6.88117E+03  3.75354E+04 -3.06843E+04  1.58704E+04 -3.26099E+04 -4.99683E+03 -1.90510E+04 -1.16058E+04
 -8.75614E+03 -1.46472E+04  2.22963E+02 -1.75142E+04  7.68479E+03 -2.41805E+04  1.68685E+04 -1.31404E+04
  1.16002E+04  4.25579E+03 -1.03572E+04  1.26553E+04 -2.22555E+04 -4.51529E+03 -8.19855E+03 -3.79573E+04
  2.51029E+04 -4.64676E+04  5.22092E+04 -2.07399E+04  4.91686E+04  2.08118E+04  1.61650E+04  4.55882E+04
 -1.50562E+04  3.45499E+04 -2.81975E+04  3.54526E+03 -1.14838E+04 -2.83999E+04  2.15287E+04 -3.68989E+04
  4.41116E+04 -8.85135E+03  3.85794E+04  2.43029E+04  1.82986E+04  4.91660E+04 -8.83584E+03  5.54307E+04
 -3.33108E+04  3.75556E+04 -4.65162E+04  1.08238E+04 -4.64978E+04 -1.78181E+04 -2.50202E+04 -4.15013E+04
  8.91323E+03 -4.18762E+04  3.37197E+04 -1.64909E+04  3.14476E+04  9.35314E+03  5.55362E+03  1.94861E+04
 -1.44213E+04  8.62593E+03 -1.15810E+04 -7.79985E+03  3.51106E+03 -1.09383E+04  1.84333E+04  6.08300E+03
  1.35116E+04  2.26810E+04 -5.04294E+03  2.65687E+04 -2.37692E+04  1.43155E+04 -2.95710E+04 -5.03201E+03
 -2.38193E+04 -1.82751E+04 -1.02842E+04 -2.26389E+04  3.59794E+03 -2.23704E+04  1.89901E+04 -2.19732E+04
  2.98101E+04 -1.31966E+04  3.56738E+04  4.26984E+03  2.77463E+04  2.42033E+04  4.11455E+03  3.98572E+04
 -1.94402E+04  3.35976E+04 -2.98670E+04  1.22248E+04 -2.08377E+04 -9.95384E+03 -4.81912E+03 -1.32465E+04
  2.48642E+03 -2.71182E+03 -7.15622E+03  6.24906E+03 -1.98610E+04  5.28711E+03 -1.80406E+04 -7.56777E+03
 -1.09301E+04 -2.22361E+04  6.58858E+03 -2.56810E+04  1.75264E+04 -1.77782E+04  2.07408E+04 -3.21046E+03
  1.46439E+04  1.57389E+04 -6.36069E+01  2.16770E+04 -1.36691E+04  1.05793E+04 -2.23097E+04 -4.81129E+03
 -1.59465E+04 -1.89695E+04 -1.08378E+03 -2.62333E+04  1.18966E+04 -2.10496E+04  2.16460E+04 -1.15091E+04
  2.12740E+04  7.55052E+02  1.52789E+04  4.63776E+03  7.77236E+03  9.60106E+02  1.13212E+04 -2.63165E+03
  2.02899E+04  2.81128E+03  2.31636E+04  1.69776E+04  1.57289E+04  3.39351E+04 -1.83087E+03  4.25157E+04
 -2.53364E+04  3.32558E+04 -3.88030E+04  1.67701E+04 -4.16393E+04 -2.95731E+03 -3.32232E+04 -2.45876E+04
 -1.50370E+04 -3.47002E+04  1.22555E+04 -3.06132E+04  2.70914E+04 -1.42253E+04  2.40038E+04  6.77510E+03
  7.40750E+03  1.79310E+04 -1.17042E+04  1.35708E+04 -1.96350E+04  1.55181E+03 -1.32211E+04 -1.10014E+04
 -1.01266E+03 -1.76684E+04  1.01186E+04 -1.40404E+04  1.15117E+04 -3.48824E+02  3.40124E+03  8.79932E+03
 -8.65940E+03  3.99168E+03 -8.45780E+03 -5.82757E+03 -3.68394E+02 -1.62735E+04  1.18503E+04 -1.78598E+04
  2.07208E+04 -9.32244E+03  2.41636E+04  3.55927E+03  2.16855E+04  1.77381E+04  1.04676E+04  2.59290E+04
 -5.07303E+03  2.80032E+04 -1.72408E+04  1.83051E+04 -2.11270E+04  4.72870E+03 -1.50301E+04 -4.74091E+03
 -4.46045E+03 -7.47894E+03 -7.75993E+02  5.01510E+02 -3.04107E+03  3.08040E+03 -7.17347E+03  4.45629E+03
 -1.50983E+04 -7.49813E+02 -1.48115E+04 -1.05963E+04 -4.56022E+03 -1.82512E+04  6.47742E+03 -1.49408E+04
  1.11643E+04 -5.89390E+03  7.97044E+03  3.67905E+03 -8.28724E+02  5.14100E+03 -7.16910E+03 -1.86474E+02
 -7.62001E+03 -9.46288E+03 -2.46853E+03 -1.49223E+04  8.75241E+03 -1.45139E+04  1.79057E+04 -7.61688E+03
  2.16971E+04  1.25442E+03  1.67833E+04  1.19451E+04  2.38637E+03  1.68904E+04 -9.13273E+03  1.39613E+04
 -1.37562E+04  3.88310E+03 -5.85083E+03 -3.74243E+03  1.07113E+03 -3.62392E+03  9.16465E+03 -2.52646E+03
  7.10241E+03  8.39950E+03  2.61151E+03  1.04537E+04 -8.37193E+03  1.12570E+04 -1.41312E+04  3.31943E+03
 -1.00243E+04 -6.61754E+03  2.71492E+02 -1.21974E+04  8.85702E+03 -5.70918E+03  7.13550E+03  3.86100E+03
  1.81941E+03  9.61153E+03 -7.26897E+03  1.00377E+04 -1.21392E+04  5.82050E+03 -1.17875E+04 -4.04477E+03
 -6.46103E+03 -1.35450E+04  3.32606E+03 -1.67732E+04  1.49196E+04 -9.22632E+03  1.54868E+04  3.53098E+03
  8.51634E+03  1.03382E+04 -1.61576E+03  1.55511E+04 -9.80302E+03  8.26154E+03 -1.01930E+04 -1.46063E+03
 -8.45026E+03 -1.04241E+04 -1.75487E+03 -1.03513E+04  4.71838E+03 -8.43862E+03  6.50585E+03 -3.79436E+03
  3.79390E+03  1.96975E+03 -1.35661E+03  5.62327E+02 -1.10228E+03 -1.43862E+03  3.75159E+03 -5.40800E+03
  1.02901E+04 -4.78884E+03  1.39936E+04  2.48953E+03  1.38962E+04  9.14007E+03  9.08521E+03  1.85753E+04
 -4.90833E+03  2.00975E+04 -1.76258E+04  1.53993E+04 -2.38523E+04  3.09071E+03 -1.74580E+04 -6.29513E+03
 -8.32433E+03 -1.48378E+04 -1.56150E+02 -1.36186E+04  4.35914E+03 -7.07329E+03  3.65527E+03 -4.90269E+03
  3.50752E+03 -3.51863E+03  3.74181E+03 -3.45702E+03  7.08847E+03 -2.95300E+03  7.38092E+03 -2.10375E+03
  9.02950E+03  2.37308E+03  5.27618E+03  6.89313E+03 -8.48604E+02  1.07158E+04 -1.14584E+04  6.13015E+03
 -1.29266E+04 -2.89226E+03 -8.11182E+03 -8.83280E+03 -2.01660E+02 -1.26513E+04  7.91092E+03 -1.34164E+04
  1.41738E+04 -8.14036E+03  1.86160E+04  2.50369E+03  1.17869E+04  1.28905E+04  1.93807E+03  1.69708E+04
 -6.99361E+03  1.18531E+04 -7.98100E+03  3.06066E+03 -7.18788E+03 -1.71741E+03 -3.24294E+03 -2.47937E+03
 -1.99339E+03  7.84467E+02 -1.51495E+03  3.13387E+03 -6.87107E+03  2.24914E+03 -7.44531E+03 -9.27474E+02
 -4.96719E+03 -1.02792E+04 -6.15896E+02 -1.11770E+04  7.11445E+03 -1.21179E+04  1.26825E+04 -1.98756E+03
  1.19906E+04  6.83289E+03  7.02538E+03  1.12656E+04 -2.42073E+03  1.30350E+04 -7.55741E+03  8.66565E+03
 -1.19488E+04  4.79500E+02 -1.04013E+04 -6.34564E+03 -1.24856E+03 -1.10844E+04  5.19204E+03 -8.84790E+03
  7.91446E+03 -2.09572E+03  3.82488E+03  2.42756E+03  1.32296E+03  3.90197E+03  2.91245E+03  1.22716E+03
  9.06842E+02  7.44737E+02  3.74142E+03  2.01968E+03  4.91955E+03  4.83775E+03  3.18001E+03  7.62569E+03
 -2.35205E+03  1.00262E+04 -7.21500E+03  1.07610E+04 -1.33640E+04  1.35331E+03 -1.39470E+04 -5.37866E+03
 -7.28376E+03 -1.35559E+04  2.04287E+03 -1.27111E+04  8.54863E+03 -7.63945E+03  1.02543E+04 -3.94052E+03
  6.43372E+03  4.46762E+03  9.69426E+02  7.27162E+03 -3.00853E+03  5.60608E+03 -6.26931E+03  4.19038E+02
 -1.71272E+03 -5.84343E+03  3.23783E+03 -5.00731E+03  4.85425E+03 -2.48272E+03  5.45521E+03  1.87510E+03
  1.41516E+03  2.62709E+03  1.76560E+03  1.87070E+03 -3.61180E+02  1.06380E+03  2.98906E+03 -7.69176E+02
  1.53205E+03 -2.23671E+03  4.37214E+03  1.90921E+03  2.75731E+03  6.88615E+03 -2.49665E+02  9.41466E+03
 -6.07932E+03  4.74762E+03 -8.63592E+03  6.48632E+02 -7.98287E+03 -1.42490E+03 -1.62207E+03 -5.23555E+03
  4.02019E+00 -3.94184E+03  2.48471E+03 -1.80581E+03  2.93417E+03  2.37611E+03 -1.71725E+03  4.33831E+03
 -4.46723E+03  3.02022E+03 -7.81878E+03 -2.70255E+03 -3.56040E+03 -7.13358E+03  2.08395E+03 -7.26300E+03
  5.02454E+03 -3.62877E+03  5.70632E+03 -1.25414E+03  4.93724E+03  3.04677E+03  6.58446E+02  2.60316E+03
 -2.25129E+03  6.86132E+02 -2.45609E+03 -2.16431E+03  8.52247E+02 -6.10122E+03  5.15451E+03 -5.15648E+03
  8.18351E+03  5.95489E+02  8.88938E+03  5.25126E+03  1.97557E+03  7.59074E+03 -3.45324E+03  8.02654E+03
 -6.26817E+03  4.17528E+03 -6.64507E+03 -6.25093E+02 -3.49208E+03 -4.04971E+03  1.13848E+03 -5.59522E+03
  4.99592E+03 -2.72713E+03  2.91137E+03  4.64199E+03 -3.60469E+02  3.92649E+03 -2.18686E+03  3.70377E+03
 -2.73552E+03  3.41953E+03 -2.34869E+03  7.11427E+01  6.05989E+02  2.98894E+02 -3.55090E+02  5.99709E+02
 -2.76478E+03  2.26359E+03 -7.12487E+03  3.44666E+03 -8.62616E+03 -1.56036E+02 -8.55831E+03 -5.16861E+03
 -5.34240E+03 -1.15368E+04  2.24262E+03 -1.15458E+04  5.98931E+03 -1.03878E+04  1.02819E+04 -3.37283E+03
  1.20617E+04  2.38377E+03  8.40977E+03  7.51260E+03  5.29127E+02  8.89612E+03 -2.43683E+03  5.89514E+03
 -3.87748E+03  3.38291E+03 -4.21161E+03 -1.89978E+03 -1.99058E+03 -1.02173E+03 -3.99972E+02  6.45271E+02
 -1.70562E+03  1.11276E+03 -2.12598E+03  2.69311E+02 -6.41569E+02 -2.72122E+03 -9.57585E+02 -3.52211E+03
  4.50779E+03 -3.73634E+03  6.25735E+03 -3.78539E+02  5.55164E+03  4.34721E+03  9.40206E+02  8.78375E+03
 -3.55891E+03  9.22766E+03 -9.20561E+03  5.04093E+03 -1.18171E+04  2.34484E+02 -8.70423E+03 -5.08435E+03
 -2.97725E+03 -9.73895E+03  1.01475E+03 -9.42745E+03  4.38297E+03 -4.33763E+03  4.66064E+03 -9.55992E+02
  2.47764E+03  2.77395E+03 -1.81187E+02  3.62555E+03 -1.35881E+03  2.98865E+02  4.79627E+02 -1.99213E+03
  2.43298E+03  6.59070E+02  2.47577E+03  2.82235E+02  2.69923E+03  3.94901E+03 -7.32987E+02  5.35805E+03
 -2.75019E+03  6.01423E+03 -5.01400E+03  1.73498E+03 -5.55791E+03 -5.04333E+03 -2.06818E+03 -6.82117E+03
  3.98515E+03 -4.02943E+03  6.16352E+03 -1.75873E+03  6.04689E+03  2.35897E+03  3.68987E+03  5.20611E+03
  4.54593E+02  5.88710E+03 -3.03605E+03  5.53493E+03 -2.94374E+03  3.54590E+03 -2.91203E+03  6.34659E+02
 -1.21107E+03  9.56016E+02 -5.46985E+02  2.25537E+03 -3.70832E+03  1.83948E+03 -3.46933E+03 -1.41253E+03
 -4.08831E+03 -2.37722E+03 -1.84113E+03 -5.72616E+03  2.12328E+03 -5.53485E+03  4.46819E+03 -2.03380E+03
  6.62575E+03  1.76808E+03  3.01464E+03  4.40455E+03 -8.58184E+02  7.25497E+03 -4.44934E+03  4.13083E+03
