 $NMID ID='MM_0lb_SNR200_9hz_g55_75.RAW', FMTDAT='(8E13.5)'
 TRAMP=1., VOLUME=1. $END
  3.09727E+05  5.73519E+02  3.39986E+05  2.50273E+05  8.45843E+04  3.38152E+05 -1.31892E+05  2.53581E+05
 -1.91395E+05  8.38979E+04 -1.11226E+05 -3.25243E+04  8.05231E+02 -5.09925E+04  5.47472E+04  1.29528E+03
  3.63108E+04  5.01229E+04 -1.56553E+04  7.72223E+04 -6.20885E+04  6.56479E+04 -8.35299E+04  3.20838E+04
 -8.29093E+04 -1.16890E+04 -5.68225E+04 -5.28590E+04 -1.62409E+04 -7.09443E+04  2.75786E+04 -4.78606E+04
  4.12633E+04  5.39480E+03  1.81648E+04  4.81819E+04 -3.36071E+04  4.89516E+04 -6.71186E+04  8.65548E+01
 -5.52415E+04 -5.81962E+04 -6.56129E+03 -7.89697E+04  3.36510E+04 -5.74326E+04  4.98326E+04 -1.89795E+04
  4.47279E+04  1.06245E+04  3.43891E+04  2.63997E+04  1.63422E+04  3.23998E+04 -5.17242E+03  2.83873E+04
 -2.20934E+04  1.16822E+04 -1.76405E+04 -5.40503E+03  6.44537E+03 -8.02072E+03  2.41523E+04  1.30629E+04
  7.37548E+03  3.75144E+04 -3.32263E+04  3.65652E+04 -6.75613E+04  1.01096E+03 -5.98983E+04 -4.40495E+04
 -1.23077E+04 -6.51601E+04  4.22622E+04 -4.89642E+04  6.19198E+04 -1.85638E+03  3.62882E+04  3.56295E+04
 -6.46901E+03  4.06388E+04 -3.40038E+04  1.92308E+04 -3.39696E+04 -3.42335E+03 -1.92272E+04 -1.29445E+04
 -9.07029E+03 -1.44853E+04  8.07960E+02 -1.80292E+04  7.55805E+03 -2.44522E+04  1.64380E+04 -1.32912E+04
  1.08752E+04  6.30872E+03 -1.12486E+04  1.16224E+04 -2.40108E+04 -6.70652E+03 -8.35137E+03 -3.69870E+04
  2.76296E+04 -4.67080E+04  5.20423E+04 -1.95499E+04  4.97834E+04  2.08185E+04  1.71544E+04  4.71213E+04
 -1.67349E+04  3.67971E+04 -2.99869E+04  2.84718E+03 -1.12961E+04 -2.96638E+04  2.20646E+04 -3.71287E+04
  4.28775E+04 -1.18159E+04  4.25118E+04  2.54631E+04  2.15249E+04  5.09038E+04 -7.86213E+03  5.91798E+04
 -3.63282E+04  3.88763E+04 -4.79320E+04  1.12672E+04 -4.83824E+04 -1.92186E+04 -2.73238E+04 -4.11228E+04
  8.02646E+03 -4.33512E+04  3.48265E+04 -1.89945E+04  3.18331E+04  1.14759E+04  6.35991E+03  1.98990E+04
 -1.54691E+04  1.17671E+04 -1.20350E+04 -6.98094E+03  7.21876E+03 -1.24707E+04  1.90903E+04  4.77727E+03
  1.51966E+04  2.18964E+04 -5.13858E+03  2.69191E+04 -2.24939E+04  1.44943E+04 -3.21130E+04 -1.46969E+03
 -2.45019E+04 -1.93750E+04 -1.35371E+04 -2.44737E+04  4.06727E+03 -2.70918E+04  1.98875E+04 -2.25974E+04
  3.20546E+04 -1.51308E+04  3.98960E+04  4.15435E+03  2.56837E+04  2.61399E+04  4.05268E+03  4.22236E+04
 -1.97706E+04  3.44886E+04 -3.14406E+04  1.21306E+04 -2.38550E+04 -1.13578E+04 -5.75275E+03 -1.53503E+04
  2.83645E+02 -2.06734E+03 -7.05994E+03  8.14822E+03 -2.13332E+04  3.91477E+03 -1.91837E+04 -9.00490E+03
 -1.23260E+04 -2.49667E+04  4.12544E+03 -2.94695E+04  1.91589E+04 -1.98625E+04  2.08237E+04 -1.35789E+03
  1.54916E+04  1.70096E+04 -2.17167E+03  2.36250E+04 -1.65730E+04  1.31994E+04 -2.30876E+04 -3.68892E+03
 -1.78363E+04 -2.14594E+04 -1.49370E+03 -2.81163E+04  1.18237E+04 -2.38016E+04  2.16371E+04 -1.16337E+04
  2.24499E+04  7.12340E+01  1.64495E+04  5.75759E+03  8.78207E+03  1.63591E+03  1.33736E+04 -2.26871E+03
  2.32779E+04  2.92821E+03  2.52588E+04  1.81233E+04  1.79496E+04  3.77556E+04 -2.55110E+03  4.46848E+04
 -2.63141E+04  3.72953E+04 -4.40213E+04  1.80743E+04 -4.56028E+04 -4.67703E+03 -3.67170E+04 -2.67759E+04
 -1.28427E+04 -3.65911E+04  1.49160E+04 -3.06957E+04  2.88309E+04 -1.58067E+04  2.44540E+04  8.29167E+03
  6.37076E+03  1.84879E+04 -1.26536E+04  1.44490E+04 -1.98931E+04  2.48094E+03 -1.36026E+04 -1.37890E+04
 -1.01795E+03 -1.91126E+04  1.11565E+04 -1.41910E+04  1.34508E+04 -1.11524E+03  4.58909E+03  8.38896E+03
 -9.23779E+03  5.71181E+03 -1.05493E+04 -7.81975E+03 -1.64358E+03 -1.83214E+04  1.12257E+04 -2.05659E+04
  2.40707E+04 -1.20399E+04  2.72383E+04  3.64356E+03  2.41829E+04  1.95493E+04  1.15185E+04  3.00094E+04
 -6.89497E+03  3.20159E+04 -2.12116E+04  1.82650E+04 -2.30758E+04  4.52242E+03 -1.65811E+04 -7.59436E+03
 -7.88773E+03 -8.07230E+03 -4.44988E+02  3.67757E+02 -2.50182E+03  4.41596E+03 -8.26835E+03  6.43512E+03
 -1.51366E+04 -8.99637E+02 -1.45828E+04 -1.25816E+04 -5.16321E+03 -2.07981E+04  7.03404E+03 -1.64624E+04
  1.45685E+04 -5.64731E+03  9.48732E+03  5.22144E+03 -1.53312E+03  6.77380E+03 -8.50933E+03 -1.76168E+01
 -5.95101E+03 -9.05542E+03 -1.89480E+03 -1.67315E+04  9.51763E+03 -1.60163E+04  2.11223E+04 -1.01708E+04
  2.26812E+04  3.27116E+03  1.72154E+04  1.52984E+04  2.85510E+03  2.05240E+04 -9.00820E+03  1.52447E+04
 -1.35081E+04  4.45864E+03 -6.28925E+03 -4.61698E+03  1.79641E+03 -4.88772E+03  6.64078E+03 -1.30571E+03
  8.00459E+03  7.24943E+03  4.67809E+02  1.42936E+04 -1.07880E+04  1.15211E+04 -1.69683E+04  2.95442E+03
 -1.04131E+04 -7.92358E+03  4.20316E+02 -1.17173E+04  8.23128E+03 -8.28900E+03  1.12372E+04  3.68546E+03
  2.87038E+03  1.14940E+04 -8.94397E+03  1.28163E+04 -1.47234E+04  4.72732E+03 -1.24941E+04 -5.39313E+03
 -6.77201E+03 -1.73828E+04  6.28198E+03 -1.97634E+04  1.62394E+04 -9.52383E+03  1.71488E+04  3.61169E+03
  1.06508E+04  1.39929E+04 -1.07258E+03  1.65533E+04 -1.22845E+04  8.69943E+03 -1.32596E+04 -7.97983E+01
 -1.11893E+04 -1.09314E+04 -2.08186E+03 -1.22915E+04  6.67207E+03 -8.32548E+03  7.68251E+03 -3.98915E+03
  6.05374E+03  3.89802E+03 -2.10116E+03  1.30682E+03 -1.52587E+03 -2.63352E+03  2.48898E+03 -7.85120E+03
  1.32504E+04 -4.82850E+03  1.68781E+04  1.22353E+03  1.79584E+04  9.26695E+03  1.03633E+04  2.19200E+04
 -4.95906E+03  2.40390E+04 -2.11148E+04  1.86522E+04 -2.60669E+04  2.31223E+03 -2.08483E+04 -8.89003E+03
 -1.19170E+04 -1.78286E+04 -1.85970E+03 -1.48687E+04  5.60474E+03 -9.59661E+03  5.58491E+03 -6.98149E+03
  2.97600E+03 -2.59043E+03  5.08845E+03 -4.74756E+03  5.99088E+03 -4.81214E+03  8.46378E+03 -1.70758E+03
  1.23236E+04  3.67506E+03  7.44583E+03  1.04383E+04 -3.09162E+03  1.17795E+04 -1.08406E+04  9.87230E+03
 -1.62076E+04 -1.41735E+03 -1.04869E+04 -1.14863E+04 -2.06853E+03 -1.53268E+04  9.00294E+03 -1.72790E+04
  1.59513E+04 -9.28161E+03  2.01682E+04  3.47172E+03  1.45241E+04  1.49671E+04  2.57198E+03  2.09514E+04
 -7.16939E+03  1.54260E+04 -9.02218E+03  5.23975E+03 -9.52041E+03 -2.10433E+03 -2.93138E+03 -8.05999E+02
 -1.89521E+03  6.95678E+01 -3.71375E+03  3.74019E+03 -8.47546E+03  2.02640E+03 -1.00671E+04 -1.42700E+03
 -5.64771E+03 -1.03532E+04 -6.56076E+02 -1.47620E+04  9.18617E+03 -1.37831E+04  1.58974E+04 -4.87419E+03
  1.52351E+04  7.20106E+03  6.14736E+03  1.45172E+04 -2.61582E+03  1.57796E+04 -1.12589E+04  9.93282E+03
 -1.32009E+04  1.08363E+03 -9.95200E+03 -8.93322E+03 -1.53761E+03 -1.48106E+04  5.76440E+03 -9.94462E+03
  1.04940E+04 -3.59272E+03  6.81762E+03  2.49301E+03  1.66275E+03  4.95282E+03  3.63723E+03  3.05115E+03
  2.77293E+03  1.63353E+02  3.19611E+03  2.97660E+03  3.38258E+03  4.77321E+03  3.42452E+03  1.01882E+04
 -2.35698E+03  1.20838E+04 -1.09247E+04  1.14814E+04 -1.54552E+04  5.14527E+03 -1.85761E+04 -7.53264E+03
 -7.18590E+03 -1.49280E+04  2.42036E+03 -1.69659E+04  8.63025E+03 -1.20436E+04  1.32805E+04 -2.17109E+03
  1.09236E+04  5.91888E+03  1.35255E+03  9.91768E+03 -4.78839E+03  6.94104E+03 -6.13040E+03 -1.55084E+03
 -3.67929E+03 -5.39654E+03  3.29509E+03 -5.96595E+03  7.38329E+03 -3.03039E+03  6.79915E+03  1.77695E+03
  5.68213E+03  2.70129E+03  2.13962E+03  3.74894E+03  3.06707E+02  3.33255E+03  2.37520E+03 -1.07063E+03
  2.91110E+03 -1.26991E+03  6.55685E+03  1.88495E+03  4.83283E+03  8.87570E+03 -7.55952E+02  1.22643E+04
 -7.12928E+03  8.06396E+03 -1.07227E+04  2.26659E+03 -9.01394E+03 -2.65592E+03 -4.73655E+03 -7.62073E+03
  1.62459E+03 -6.66702E+03  4.90678E+03 -3.20965E+03  4.15935E+03  5.04866E+03 -6.64390E+02  5.02784E+03
 -5.90035E+03  2.49604E+03 -7.14095E+03 -3.67038E+03 -3.54169E+03 -8.52360E+03  3.13892E+03 -9.86752E+03
  4.22286E+03 -4.98321E+03  7.01315E+03 -1.00526E+03  5.46616E+03  2.01529E+03  1.86866E+03  3.90196E+03
 -3.95965E+03  1.85264E+03 -5.95888E+03 -3.27327E+03  1.99110E+03 -6.87567E+03  6.49047E+03 -7.13104E+03
  1.04073E+04  1.18830E+03  8.70781E+03  6.31090E+03  2.63118E+03  1.06205E+04 -5.49345E+03  8.88593E+03
 -8.91434E+03  4.15466E+03 -9.36820E+03 -1.81278E+03 -5.04255E+03 -7.93959E+03  2.30757E+03 -8.64454E+03
  6.58810E+03 -3.08550E+03  3.62032E+03  2.70740E+03  2.32083E+03  6.36044E+03 -1.70872E+03  5.70572E+03
 -3.96504E+03  2.90324E+03 -1.57013E+03  8.45795E+02 -1.39458E+03  6.74671E+02 -6.37616E+02  2.41992E+03
 -3.31488E+03  5.39493E+03 -7.79824E+03  4.78146E+03 -1.23479E+04  1.12166E+03 -1.11112E+04 -7.32832E+03
 -6.47052E+03 -1.43039E+04  2.05876E+03 -1.63406E+04  8.75514E+03 -1.15577E+04  1.55387E+04 -5.53344E+03
  1.41034E+04  3.53472E+03  9.40216E+03  8.55367E+03  6.18740E+02  1.02181E+04 -4.01925E+03  8.67670E+03
 -5.25917E+03  3.71187E+03 -4.76208E+03 -3.17226E+03 -6.43362E+02 -1.99193E+02 -6.65861E+02 -4.98186E+02
 -2.64670E+03  5.28557E+02 -1.70569E+03  6.34371E+02 -1.04786E+02 -2.67669E+03  2.26257E+02 -3.41874E+03
  4.71874E+03 -2.17312E+03  6.99022E+03 -1.05315E+03  7.58800E+03  5.58632E+03  2.15943E+03  1.07039E+04
 -6.54913E+03  1.25398E+04 -1.17774E+04  7.64421E+03 -1.43936E+04 -1.59961E+03 -8.15289E+03 -8.16931E+03
 -3.20620E+03 -9.78707E+03  3.43216E+03 -1.04709E+04  5.87852E+03 -5.45692E+03  6.77004E+03  6.24277E+02
  3.15431E+03  4.32214E+03 -8.21276E+02  2.53479E+03 -3.16596E+03 -4.76971E+02  1.87442E+02 -2.11408E+03
  4.51759E+03 -2.87991E+03  4.16461E+03  2.01411E+03  2.45246E+03  3.94693E+03 -1.27736E+03  5.00737E+03
 -4.06962E+03  3.92772E+03 -7.28291E+03 -2.35791E+01 -6.96619E+03 -5.02268E+03 -1.70992E+03 -9.19325E+03
  5.26206E+03 -8.27905E+03  7.45406E+03 -1.82033E+03  8.46466E+03  2.71025E+03  5.50068E+03  5.44444E+03
  1.58875E+02  8.38683E+03 -3.37640E+03  7.03311E+03 -5.27179E+03  3.15982E+03 -4.32814E+03  9.83083E+02
 -2.67718E+03 -1.55120E+03 -1.58271E+03  1.75091E+03 -4.64202E+03  2.84583E+03 -5.76189E+03 -1.42604E+03
 -4.85049E+03 -2.12474E+03 -1.67069E+03 -7.43630E+03  3.66096E+03 -7.49935E+03  8.44489E+03 -5.43844E+03
  6.72910E+03  1.11104E+03  4.23143E+03  5.42119E+03 -6.59951E+02  9.02389E+03 -4.98620E+03  4.66260E+03
