 $NMID ID='MM_0lb_SNR200_16hz_g45_3.RAW', FMTDAT='(8E13.5)'
 TRAMP=1., VOLUME=1. $END
  3.09563E+05  1.61479E+02  3.37548E+05  2.50244E+05  8.52408E+04  3.38305E+05 -1.32881E+05  2.50909E+05
 -1.89378E+05  8.19313E+04 -1.11076E+05 -3.25028E+04  6.12176E+02 -5.02274E+04  5.39116E+04  8.33163E+02
  3.41378E+04  5.31469E+04 -1.61937E+04  7.51869E+04 -6.13291E+04  6.30521E+04 -8.34366E+04  3.11496E+04
 -8.07133E+04 -1.20792E+04 -5.71274E+04 -5.06452E+04 -1.47700E+04 -6.87423E+04  2.75723E+04 -4.46657E+04
  3.93375E+04  4.40068E+03  1.58932E+04  4.78136E+04 -3.36965E+04  4.57551E+04 -6.62842E+04 -4.42301E+02
 -5.24049E+04 -5.74952E+04 -7.31152E+03 -7.64675E+04  3.48162E+04 -5.44877E+04  4.67761E+04 -1.61858E+04
  4.20193E+04  1.16150E+04  3.21632E+04  2.45418E+04  1.55417E+04  2.95628E+04 -5.28529E+03  2.78718E+04
 -2.24298E+04  1.21402E+04 -1.82511E+04 -5.39361E+03  5.51917E+03 -8.03705E+03  2.18579E+04  1.18934E+04
  7.94147E+03  3.28093E+04 -3.21859E+04  3.52565E+04 -6.16565E+04  1.22318E+03 -5.70038E+04 -4.18466E+04
 -1.23081E+04 -6.16074E+04  3.96598E+04 -4.43601E+04  5.68596E+04 -1.07665E+03  3.27758E+04  3.06648E+04
 -7.15341E+03  3.40602E+04 -2.91955E+04  1.51740E+04 -2.95689E+04 -4.09804E+03 -1.70916E+04 -9.99716E+03
 -7.30231E+03 -1.26074E+04 -1.29275E+03 -1.73954E+04  6.59921E+03 -2.32479E+04  1.45843E+04 -1.38021E+04
  1.23462E+04  4.13718E+03 -7.14513E+03  1.31016E+04 -2.05185E+04 -3.01060E+03 -6.93939E+03 -3.23605E+04
  2.21423E+04 -4.15592E+04  4.71359E+04 -1.95473E+04  4.33525E+04  1.77914E+04  1.39071E+04  4.23627E+04
 -1.41327E+04  3.10480E+04 -2.43973E+04  1.21565E+03 -8.13339E+03 -2.71746E+04  2.09622E+04 -3.26666E+04
  3.89346E+04 -8.52833E+03  3.32736E+04  2.29400E+04  1.82679E+04  4.40442E+04 -7.62396E+03  4.87547E+04
 -3.08819E+04  3.14158E+04 -3.92575E+04  9.37227E+03 -4.02133E+04 -1.59005E+04 -2.27042E+04 -3.44712E+04
  7.17548E+03 -3.65978E+04  3.09561E+04 -1.47493E+04  2.71628E+04  1.11294E+04  4.17464E+03  1.82262E+04
 -1.31829E+04  7.58856E+03 -9.28223E+03 -6.79704E+03  6.49509E+03 -1.16003E+04  1.81103E+04  6.08152E+03
  1.29332E+04  2.20972E+04 -6.08995E+03  2.33119E+04 -2.07893E+04  1.07064E+04 -2.64793E+04 -5.56553E+03
 -1.76110E+04 -1.69693E+04 -7.42962E+03 -1.87015E+04  3.13278E+03 -1.67644E+04  1.38215E+04 -1.58340E+04
  2.45902E+04 -1.12779E+04  2.99104E+04  2.10812E+03  2.33830E+04  1.81757E+04  4.55921E+03  3.47884E+04
 -1.72437E+04  2.90084E+04 -2.63950E+04  9.45130E+03 -2.05793E+04 -1.00042E+04 -3.19830E+03 -1.46943E+04
  2.04895E+03 -3.84579E+03 -3.99621E+03  5.73786E+03 -1.40138E+04  4.67846E+03 -1.47433E+04 -6.08310E+03
 -9.01205E+03 -1.73040E+04  4.89033E+03 -2.18370E+04  1.42961E+04 -1.56272E+04  1.59607E+04 -9.65788E+02
  1.06048E+04  1.15329E+04 -8.37568E+02  1.73462E+04 -1.12324E+04  8.86794E+03 -1.78242E+04 -3.25082E+03
 -1.40711E+04 -1.53005E+04 -1.61161E+03 -2.02639E+04  8.99775E+03 -1.62780E+04  1.70280E+04 -7.53128E+03
  1.66958E+04 -4.92288E+01  1.10898E+04  4.17725E+03  4.79207E+03 -3.15929E+01  8.12199E+03 -1.00385E+03
  1.66975E+04  2.96308E+03  1.66258E+04  1.26328E+04  1.14791E+04  2.72923E+04 -2.55271E+03  3.07260E+04
 -1.79534E+04  2.38301E+04 -2.73219E+04  1.07235E+04 -2.91258E+04 -3.04408E+03 -2.42403E+04 -1.68478E+04
 -1.13054E+04 -2.39713E+04  7.52447E+03 -2.07466E+04  1.76547E+04 -1.16210E+04  1.77420E+04  5.60097E+03
  7.87311E+03  1.23063E+04 -8.60956E+03  1.14203E+04 -1.53609E+04  2.89493E+03 -1.15329E+04 -9.27240E+03
  9.89154E+01 -1.40669E+04  6.90215E+03 -1.00108E+04  9.41265E+03 -1.65921E+03  2.06107E+03  6.22761E+03
 -5.75325E+03  1.06642E+03 -5.07789E+03 -5.47121E+03  5.98912E+02 -1.20787E+04  9.23323E+03 -1.20103E+04
  1.41115E+04 -6.04498E+03  1.42163E+04  3.53429E+03  1.17913E+04  1.23564E+04  5.34558E+03  1.65255E+04
 -2.85920E+03  1.99160E+04 -1.23929E+04  1.20782E+04 -1.23046E+04  3.54554E+03 -8.66050E+03 -2.36762E+03
 -3.57351E+03 -3.39867E+03 -2.14072E+03  8.38089E+02 -2.01046E+03  2.87395E+03 -4.58268E+03  3.99956E+03
 -9.17372E+03 -7.04772E+02 -9.57402E+03 -7.65236E+03 -4.91372E+03 -1.21852E+04  2.61577E+03 -9.69289E+03
  8.93608E+03 -3.70071E+03  5.92507E+03  8.39005E+02  1.21098E+03  3.28331E+03 -4.06094E+03  8.59506E+01
 -5.18192E+03 -4.83349E+03  3.59694E+02 -8.98122E+03  5.14332E+03 -1.03090E+04  1.20221E+04 -4.56221E+03
  1.33909E+04  1.70877E+02  1.04591E+04  8.19452E+03  3.04254E+03  1.00998E+04 -6.82352E+03  9.45361E+03
 -8.44624E+03  3.17237E+03 -4.78612E+03 -2.52323E+03  8.49791E+02 -1.80451E+03  6.25450E+03 -2.11231E+03
  4.79098E+03  3.86621E+03  1.15808E+03  8.12907E+03 -4.97755E+03  6.76352E+03 -8.78785E+03  1.55095E+03
 -6.95331E+03 -4.04809E+03  4.12738E+02 -7.98839E+03  4.29627E+03 -3.68912E+03  4.32892E+03  1.42887E+03
  5.72286E+02  4.96691E+03 -4.85018E+03  6.66190E+03 -6.23676E+03  2.75540E+03 -6.35989E+03 -1.89178E+03
 -4.04447E+03 -7.33043E+03  1.49035E+03 -9.81246E+03  7.18885E+03 -5.28219E+03  7.86601E+03  1.20684E+03
  5.45934E+03  6.40790E+03 -9.97618E+02  8.89072E+03 -7.33443E+03  4.93173E+03 -6.57900E+03 -1.78060E+02
 -6.68484E+03 -6.89277E+03 -1.06372E+03 -6.46619E+03  3.17946E+03 -4.79580E+03  3.04095E+03 -3.07832E+03
  3.05266E+03  8.47222E+02 -9.09114E+02  1.72032E+03 -6.40231E+02 -9.12447E+02  3.52707E+02 -2.78577E+03
  4.49356E+03 -1.36552E+03  7.42693E+03  9.22625E+02  7.53688E+03  5.45264E+03  7.05269E+03  9.39132E+03
 -2.77728E+03  1.11937E+04 -9.43294E+03  9.16795E+03 -1.29993E+04  1.60461E+03 -1.03428E+04 -3.87602E+03
 -4.80238E+03 -8.53637E+03 -1.38643E+03 -6.84026E+03  2.54389E+03 -3.48940E+03  1.83229E+03 -2.59917E+03
  1.89393E+03 -1.58828E+03  2.62152E+03 -2.85169E+03  3.77104E+03 -1.65393E+03  4.01510E+03  4.81288E+02
  4.19707E+03  1.69090E+03  2.60275E+03  4.97454E+03 -1.80734E+03  4.72497E+03 -6.02511E+03  4.37862E+03
 -6.25117E+03 -5.80527E+02 -2.88225E+03 -4.36554E+03  5.20741E+02 -5.81905E+03  3.97053E+03 -5.61446E+03
  7.93293E+03 -5.19791E+03  9.85646E+03 -4.04711E+02  5.84329E+03  5.80394E+03 -1.70209E+02  6.61455E+03
 -3.70561E+03  7.66075E+03 -3.43777E+03  2.35392E+03 -2.11977E+03 -1.05609E+03 -2.37100E+03 -1.37393E+03
 -1.15787E+02  4.50687E+02 -1.75077E+03  2.44957E+03 -3.06995E+03  1.91571E+03 -5.28387E+03 -7.84442E+02
 -2.14551E+03 -5.63676E+03  1.73960E+02 -6.30651E+03  4.14785E+03 -5.92944E+03  5.56231E+03 -2.23086E+03
  5.27051E+03  3.32345E+03  2.51832E+03  3.79670E+03 -1.69927E+03  5.56013E+03 -4.35064E+03  3.43158E+03
 -4.69424E+03  8.70468E+02 -4.36548E+03 -2.34478E+03 -8.61672E+02 -4.01911E+03  3.58369E+03 -3.12524E+03
  3.47339E+03 -2.44112E+03  1.78428E+03 -1.50591E+02  8.35514E+02  2.24905E+03  8.11353E+02  1.99298E+02
  2.82344E+03  1.27076E+02  1.75927E+03  2.13984E+03  1.58095E+03  1.90818E+03  1.99829E+03  3.89700E+03
 -1.32634E+03  3.60470E+03 -3.96165E+03  5.62329E+03 -5.01792E+03  8.14796E+02 -5.06030E+03 -2.34221E+03
 -1.56700E+03 -5.89561E+03  2.08919E+03 -7.47767E+03  3.46751E+03 -3.76312E+03  4.31860E+03 -5.90801E+02
  4.01336E+03  1.74964E+03  7.72734E+02  2.57952E+03 -1.33545E+03  2.22460E+03 -2.37205E+03 -2.20678E+01
 -1.87851E+03 -2.86836E+03  1.52786E+03 -1.60166E+03  1.87318E+03 -1.49408E+03  1.39475E+03  7.02248E+02
  4.23417E+02  5.76522E+02  1.27709E+03 -2.09392E+02 -1.44503E+02  1.03670E+03  8.72269E+02 -5.16530E+02
  6.33990E+02 -2.16058E+03  2.59140E+03 -3.12648E+01  7.65469E+02  2.05704E+03  5.44394E+01  4.15231E+03
 -2.81323E+03  1.01817E+03 -2.67707E+03  4.26412E+02 -2.92628E+03 -1.14315E+03 -5.16579E+02 -1.03347E+03
  1.27450E+03  4.53985E+00  4.94030E+01 -4.14912E+02  7.84537E+02  1.71582E+03 -1.15017E+03  1.90184E+03
 -2.24931E+03  5.77166E+02 -2.39308E+03 -1.15266E+03 -1.59375E+03 -2.84109E+03  1.31821E+03 -2.61160E+03
  7.46130E+02 -9.22125E+02  1.24084E+03  2.09914E+02  1.72389E+03 -2.44833E+02  6.47382E+02  1.01809E+03
 -5.82841E+02  1.17446E+03 -1.36724E+03  1.02642E+02  6.72046E+02 -2.28761E+03  4.26382E+03 -4.27373E+02
  2.94921E+03 -3.62366E+02  3.09814E+03  1.91838E+03  7.78634E+02  2.77736E+03 -6.95559E+02  2.51690E+03
 -2.74743E+03  7.30039E+02 -3.50420E+03 -8.93426E+01  1.29896E+02 -1.93499E+03 -5.98606E+02 -4.72568E+02
  3.08416E+03 -1.01537E+03  1.78482E+03  6.88972E+02  1.75431E+02  1.14545E+03  8.08742E+01  9.87098E+02
 -5.91137E+02  1.21445E+03 -1.47741E+03  4.84856E+02  3.68207E+02  9.83056E+02 -5.32666E+02  1.31973E+02
 -1.03967E+03  1.02502E+03 -3.24249E+03  1.86812E+03 -3.02096E+03 -9.76220E+02 -3.28187E+03 -6.18114E+02
 -1.50866E+03 -3.56803E+03  1.43120E+03 -4.64298E+03  1.80258E+03 -3.25290E+03  4.00174E+03 -1.11781E+03
  3.02129E+03 -2.56898E+02  1.47277E+03  1.61354E+03 -5.47179E+02  3.03019E+03 -1.15610E+03  1.72495E+03
 -1.40391E+03  1.24232E+03 -1.52087E+03 -1.23730E+02 -4.47930E+02 -6.36617E+01 -5.90664E+02  5.85176E+02
 -8.41581E+02  2.02125E+03 -7.46025E+02 -1.77244E+02 -1.26197E+02  9.07763E+01 -2.89211E+02 -1.15444E+03
  1.90895E+03 -6.71760E+02  1.15708E+03  2.61199E+02  1.89605E+03  2.28035E+03 -6.68643E+02  2.60635E+03
 -1.72447E+03  3.83606E+03 -2.98133E+03  1.36390E+03 -2.60303E+03  3.50774E+01 -2.96847E+03 -2.06132E+03
 -2.23963E+03 -3.56681E+03  7.83034E+02 -1.81851E+03  6.83809E+02 -1.28049E+03  1.76203E+03  3.67455E+01
  1.05904E+03  5.58121E+02 -1.58534E+01  1.81153E+02  3.19820E+01  3.51438E+02 -1.57093E+03 -7.46677E+02
  5.86979E+02 -3.30052E+02  1.07954E+03  1.95587E+03  2.93091E+02  1.00198E+03  1.10240E+03  6.84794E+01
 -1.89395E+03  6.33349E+01 -1.16714E+03  1.01088E+03 -1.56985E+03 -2.94420E+02  4.83424E+02 -2.81717E+03
  1.48285E+03 -1.97844E+03  6.20820E+02 -5.30632E+02  1.83976E+03  2.93872E+02  1.38951E+03  2.29910E+03
 -2.86979E+02  9.50623E+02 -4.94054E+01  2.16655E+03 -1.60157E+03  8.54122E+02 -6.63472E+02 -6.70967E+02
  7.94716E+02 -2.12017E+02 -3.10433E+02  4.14606E+02 -3.49398E+02  2.17335E+03 -1.01329E+03 -5.92181E+02
 -4.60774E+02  1.98495E+02 -1.27487E+03 -1.48793E+03  6.44053E+01 -2.61500E+03  1.06767E+03 -2.34242E+03
  1.44130E+03  5.26940E+02 -2.50190E+02  1.03347E+03 -4.56354E+02  1.36090E+03 -1.05018E+03  8.02143E+02
