 $NMID ID='MM_0lb_SNR200_16hz_g45_33.RAW', FMTDAT='(8E13.5)'
 TRAMP=1., VOLUME=1. $END
  3.10108E+05 -1.09608E+02  3.37118E+05  2.49482E+05  8.49321E+04  3.38001E+05 -1.32939E+05  2.50793E+05
 -1.89397E+05  8.18802E+04 -1.12137E+05 -3.31092E+04  8.88819E+02 -5.07563E+04  5.44829E+04 -7.85644E+01
  3.53449E+04  5.21018E+04 -1.57896E+04  7.41940E+04 -6.06348E+04  6.36689E+04 -8.31380E+04  3.12943E+04
 -7.99476E+04 -1.07193E+04 -5.58208E+04 -5.08677E+04 -1.39526E+04 -6.85548E+04  2.80791E+04 -4.53269E+04
  3.93484E+04  3.07815E+03  1.65656E+04  4.75880E+04 -3.28407E+04  4.66633E+04 -6.57098E+04 -7.13037E+00
 -5.27332E+04 -5.77986E+04 -6.69247E+03 -7.56968E+04  3.40314E+04 -5.45829E+04  4.51640E+04 -1.67506E+04
  4.26096E+04  1.10306E+04  3.01675E+04  2.49064E+04  1.68239E+04  2.80771E+04 -5.27658E+03  2.68716E+04
 -2.14549E+04  1.16849E+04 -1.91249E+04 -4.74854E+03  5.72617E+03 -6.26185E+03  2.07699E+04  1.03644E+04
  6.65730E+03  3.31895E+04 -2.98235E+04  3.44119E+04 -6.18011E+04  1.67294E+03 -5.58031E+04 -4.28633E+04
 -1.19059E+04 -6.14927E+04  3.87573E+04 -4.35211E+04  5.67892E+04 -1.87390E+03  3.31377E+04  3.04199E+04
 -6.11607E+03  3.48938E+04 -2.82100E+04  1.43868E+04 -2.88927E+04 -3.54059E+03 -1.48974E+04 -9.85812E+03
 -8.17221E+03 -1.20486E+04 -5.44105E+02 -1.65743E+04  7.34578E+03 -2.23972E+04  1.54357E+04 -1.40161E+04
  1.17800E+04  4.55495E+03 -7.93115E+03  1.33365E+04 -2.07617E+04 -3.77728E+03 -8.53915E+03 -3.13910E+04
  2.08398E+04 -4.17876E+04  4.68884E+04 -1.90854E+04  4.39104E+04  1.92964E+04  1.45863E+04  4.33578E+04
 -1.63816E+04  3.32526E+04 -2.54279E+04  1.48172E+03 -9.25519E+03 -2.69240E+04  2.07157E+04 -3.30981E+04
  3.95022E+04 -8.05342E+03  3.51590E+04  2.37641E+04  1.73991E+04  4.44591E+04 -7.96317E+03  4.73806E+04
 -2.90161E+04  3.19549E+04 -4.01870E+04  8.83585E+03 -3.90091E+04 -1.61635E+04 -2.13106E+04 -3.59808E+04
  8.25499E+03 -3.54550E+04  2.98924E+04 -1.38188E+04  2.80567E+04  1.02678E+04  2.66566E+03  1.75880E+04
 -1.27441E+04  6.99883E+03 -9.11889E+03 -7.03274E+03  5.17989E+03 -1.09425E+04  1.80654E+04  6.23275E+03
  1.30126E+04  2.29073E+04 -5.88219E+03  2.48388E+04 -2.22138E+04  8.55798E+03 -2.70352E+04 -5.38874E+03
 -1.90697E+04 -1.62757E+04 -6.70695E+03 -1.81212E+04  4.18476E+03 -1.72829E+04  1.39365E+04 -1.68145E+04
  2.26700E+04 -1.28353E+04  2.95156E+04  1.92788E+03  2.16162E+04  1.80465E+04  4.13862E+03  3.41019E+04
 -1.64284E+04  2.86231E+04 -2.69859E+04  9.91992E+03 -1.87472E+04 -1.11498E+04 -4.66619E+03 -1.24118E+04
  2.18993E+03 -3.07728E+03 -4.17483E+03  6.17521E+03 -1.41328E+04  5.40535E+03 -1.42653E+04 -5.03272E+03
 -1.00937E+04 -1.74805E+04  4.46776E+03 -2.16224E+04  1.28712E+04 -1.65651E+04  1.56999E+04 -1.38904E+03
  9.04866E+03  1.23269E+04 -8.16334E+02  1.79121E+04 -1.20343E+04  9.70314E+03 -1.65168E+04 -2.98989E+03
 -1.39771E+04 -1.52490E+04 -1.36895E+03 -2.14535E+04  9.46499E+03 -1.73822E+04  1.81166E+04 -8.28514E+03
  1.69216E+04  1.12775E+03  1.13882E+04  4.36765E+03  6.86870E+03  1.46608E+03  7.84602E+03 -1.88363E+03
  1.56380E+04  3.06314E+03  1.60524E+04  1.38516E+04  9.70562E+03  2.70287E+04 -2.92232E+03  3.09712E+04
 -1.83966E+04  2.31424E+04 -2.83749E+04  1.14702E+04 -2.92988E+04 -2.26864E+03 -2.53810E+04 -1.67362E+04
 -9.75802E+03 -2.25856E+04  8.60255E+03 -2.07119E+04  1.90260E+04 -1.06360E+04  1.86794E+04  4.87415E+03
  6.84646E+03  1.24083E+04 -7.43900E+03  1.22823E+04 -1.45082E+04  3.27292E+03 -1.14042E+04 -7.70839E+03
 -4.66320E+02 -1.23498E+04  6.81948E+03 -1.15006E+04  8.27485E+03 -1.83042E+03  3.22196E+03  5.98475E+03
 -6.27862E+03  1.22477E+03 -5.96757E+03 -4.76801E+03 -1.35146E+03 -1.19152E+04  8.18977E+03 -1.25049E+04
  1.38529E+04 -7.56482E+03  1.46544E+04  2.90803E+03  1.27057E+04  1.14802E+04  6.41665E+03  1.72255E+04
 -3.33751E+03  1.93932E+04 -1.10141E+04  1.16665E+04 -1.33165E+04  3.47187E+03 -8.75711E+03 -2.63470E+03
 -4.32281E+03 -4.73495E+03 -1.09520E+03  1.62418E+03 -1.90396E+03  2.32150E+03 -5.04490E+03  4.32395E+03
 -7.07793E+03  1.83062E+02 -9.33465E+03 -8.64841E+03 -3.96309E+03 -1.35727E+04  2.04609E+03 -1.04353E+04
  8.31205E+03 -3.64819E+03  6.50066E+03  1.54102E+03 -5.73913E+02  3.91712E+03 -5.24189E+03 -6.24101E+01
 -3.95311E+03 -7.02269E+03 -4.77870E+02 -8.18198E+03  4.19200E+03 -8.69169E+03  1.12875E+04 -4.42865E+03
  1.46761E+04  1.04880E+03  1.09317E+04  8.28257E+03  2.22453E+03  1.03482E+04 -5.41470E+03  1.00759E+04
 -8.44480E+03  1.88472E+03 -3.94896E+03 -2.02734E+03  7.41943E+02 -2.10664E+03  5.69180E+03 -4.50981E+02
  6.25512E+03  4.21689E+03  1.03374E+03  7.43964E+03 -5.29107E+03  8.84480E+03 -9.36284E+03  2.29746E+03
 -4.59289E+03 -5.32712E+03  1.32645E+03 -9.28529E+03  4.77092E+03 -2.62568E+03  4.54576E+03  1.27116E+03
 -1.38609E+02  4.26061E+03 -3.91254E+03  6.00343E+03 -6.46941E+03  4.03399E+03 -5.11519E+03 -1.62070E+03
 -4.53230E+03 -7.00946E+03  6.39730E+02 -8.79212E+03  6.82658E+03 -4.13141E+03  9.18270E+03  1.02532E+03
  6.66193E+03  6.64432E+03 -8.78740E+02  8.65624E+03 -6.61907E+03  5.45049E+03 -6.17742E+03 -7.74823E+02
 -5.70937E+03 -6.06780E+03 -1.26455E+03 -6.29629E+03  2.47226E+03 -3.93423E+03  4.12764E+03 -1.68050E+03
  2.51155E+03  7.19019E+02  2.65208E+02  1.33172E+03 -5.13282E+02 -6.25585E+02  6.69136E+02 -2.05668E+03
  7.03209E+03 -6.16639E+02  6.80969E+03  7.13931E+02  7.37847E+03  3.81097E+03  6.65499E+03  9.73797E+03
 -1.86711E+03  1.17353E+04 -1.03492E+04  8.44147E+03 -1.28478E+04  1.13355E+03 -1.11241E+04 -3.44985E+03
 -6.11723E+03 -8.30897E+03 -1.68657E+03 -6.92498E+03  2.66506E+03 -3.12958E+03  1.76244E+03 -2.97485E+03
  2.62054E+03 -1.46627E+03  2.38152E+03 -2.56830E+03  4.18723E+03 -1.52724E+03  4.91920E+03 -4.84786E+02
  4.38301E+03  2.14979E+03  2.12182E+03  4.64679E+03 -1.20962E+03  3.95892E+03 -5.36355E+03  3.15725E+03
 -6.46734E+03 -1.72300E+03 -4.02194E+03 -4.65801E+03 -2.97107E+02 -6.68738E+03  3.78110E+03 -6.55034E+03
  7.38914E+03 -4.29784E+03  8.32155E+03  1.46935E+03  5.67837E+03  6.68859E+03  5.03868E+02  7.38021E+03
 -2.91418E+03  8.02609E+03 -5.01649E+03  2.66205E+03 -1.81778E+03 -4.73164E+02 -1.05716E+03 -1.51088E+03
 -1.84644E+02  1.42934E+02 -1.73875E+03  1.70939E+03 -3.12343E+03  6.73730E+02 -5.47468E+03 -7.97617E+02
 -2.63087E+03 -4.36264E+03  3.29675E+02 -6.39406E+03  2.79198E+03 -5.49828E+03  5.15625E+03 -1.31543E+03
  6.29340E+03  4.05610E+03  1.99775E+03  5.20234E+03 -2.20228E+03  6.27685E+03 -3.15076E+03  3.49510E+03
 -5.27882E+03  6.60866E+02 -3.71000E+03 -3.50522E+03 -3.54398E+02 -5.09746E+03  2.58431E+03 -3.61474E+03
  3.25881E+03 -2.32622E+03  2.21190E+03  1.02651E+03  2.22760E+03  2.23973E+03  1.12319E+03  1.42756E+03
  1.66422E+03  3.42171E+02  1.19796E+03  1.34598E+03  3.13874E+03  3.31057E+03  3.40249E+03  1.45793E+03
 -9.10712E+02  3.88843E+03 -2.76512E+03  5.69777E+03 -5.07207E+03  1.39607E+03 -6.03126E+03 -1.20224E+03
 -2.00987E+03 -5.80904E+03  1.36229E+03 -6.26495E+03  2.28379E+03 -4.15907E+03  4.97073E+03 -1.29966E+03
  4.34715E+03  1.92557E+03  2.30011E+03  3.42720E+03 -1.16242E+03  1.05791E+03 -2.12660E+03 -3.54884E+02
 -1.22281E+03 -3.23644E+03  2.09170E+03 -2.42741E+03  1.78810E+03 -1.65808E+03  1.61403E+03  1.46478E+02
  1.15697E+03  1.08060E+03  4.19499E+02  6.46684E+02  8.94258E+02  1.26631E+03 -7.22402E+01 -2.93860E+02
 -7.82999E+02  5.56118E+02  2.73240E+03  1.03769E+02 -5.30839E+02  4.16208E+03 -4.65684E+01  4.34358E+03
 -3.11971E+03  1.10105E+03 -3.26943E+03  2.68578E+02 -2.06226E+03 -6.74578E+02  2.72217E+01 -1.97841E+03
  7.21660E+02 -1.51291E+03  2.06805E+03 -3.48541E+02  6.99050E+02  1.60853E+03 -1.02956E+03  1.54765E+03
 -3.03620E+03  1.07630E+01 -1.97125E+03 -1.59554E+03  2.81875E+02 -3.73677E+03  1.67788E+03 -3.32150E+03
  2.02451E+03 -7.34729E+02  9.87504E+02  7.10256E+02  2.57355E+03  7.05012E+02  1.28696E+03  1.59526E+03
 -5.57397E+02  6.24317E+02 -2.23472E+03 -6.46269E+01  7.74744E+02 -8.35761E+02  2.95272E+03 -1.92898E+03
  3.05660E+03 -1.06519E+02  4.14878E+03  1.72411E+03  2.11301E+03  1.90364E+03 -1.17278E+03  1.47018E+03
 -3.17158E+03  8.51419E+02 -2.07613E+03  5.92380E+01 -1.59692E+03 -2.00572E+03  7.22185E+02 -2.01040E+03
  2.03904E+03 -1.47906E+02  4.47203E+02  9.85628E+02  2.61386E+01  1.89334E+03  6.44531E+02  1.50496E+03
 -5.85174E+02  5.51324E+02 -8.42332E+02 -2.92408E+02  2.03183E+02  7.02901E+02 -1.67137E+02  7.05118E+02
  5.52112E+02  7.92620E+02 -1.17922E+03  4.15431E+02 -3.65091E+03 -4.02276E+02 -3.28820E+03 -1.79281E+03
 -1.56494E+03 -2.97996E+03  9.73874E+02 -4.51791E+03  1.22326E+03 -3.19460E+03  5.39995E+03 -1.50672E+03
  3.31053E+03  5.16154E+02  2.91344E+03  3.90028E+03  2.67798E+02  1.92582E+03  7.86471E+02  1.06880E+03
 -7.77368E+02  1.94856E+02 -1.19770E+03  5.18924E+01 -5.44924E+02  2.74926E+02 -1.48499E+03 -4.42856E+02
 -3.15758E+02 -5.04269E+02 -1.64709E+03 -2.72603E+02  9.06156E+02 -6.07028E+02  6.88494E+01 -8.34180E+02
  1.65055E+03 -5.02910E+02  1.86239E+03  3.85531E+02  2.25140E+03  2.20380E+03  7.68161E+02  1.62757E+03
 -9.96266E+02  2.59710E+03 -3.05810E+03  1.56636E+03 -2.65495E+03 -7.75919E+02 -2.85925E+03 -2.05655E+03
 -8.05980E+02 -1.44980E+03 -7.22668E+01 -3.09943E+03  1.45570E+03 -1.10789E+03  1.94180E+03 -7.42817E+02
  2.06211E+02  1.51008E+03  1.82869E+03  1.99267E+02 -2.98331E+02 -4.34366E+02 -5.53233E+02 -5.35998E+02
  1.26688E+02  6.88653E+02  1.84521E+03  8.50190E+02 -6.14779E+01  6.32018E+02  1.32142E+02  9.44410E+02
 -1.36513E+03  8.56294E+02 -1.29926E+03  4.19676E+01 -9.94482E+02  1.97509E+02  6.70760E+02 -2.67725E+03
  1.08325E+03 -2.68132E+03  3.08001E+02 -4.59523E+02  1.30498E+03 -4.51930E+02  2.29235E+03  1.39556E+03
  6.97911E+02  1.39599E+03 -5.52644E+02  1.33363E+03 -6.28029E+02  2.78943E+02 -2.97472E+01  3.37675E+02
 -4.48059E+02  6.70935E+02 -2.57461E+03  7.31426E+02 -1.08887E+03  5.67154E+02 -8.23723E+02 -1.82599E+03
 -6.16738E+02 -1.35241E+03 -1.08075E+03 -9.98440E+02  1.70906E+03 -2.19409E+03  1.64280E+03  5.43279E+01
  1.49145E+03  1.08844E+03 -4.67494E+02  8.38698E+02  3.30197E+02  1.47717E+03 -1.87604E+03  2.20926E+03
