 $NMID ID='MM_0lb_SNR200_10hz_g55_66.RAW', FMTDAT='(8E13.5)'
 TRAMP=1., VOLUME=1. $END
  3.09717E+05 -8.62268E+02  3.39184E+05  2.51644E+05  8.43525E+04  3.39431E+05 -1.32923E+05  2.52379E+05
 -1.90643E+05  8.28494E+04 -1.13101E+05 -3.28039E+04  1.09994E+03 -5.20202E+04  5.31213E+04 -3.21852E+02
  3.59927E+04  5.33253E+04 -1.65068E+04  7.44085E+04 -6.09940E+04  6.35404E+04 -8.61541E+04  3.08022E+04
 -8.09193E+04 -1.13045E+04 -5.74805E+04 -5.24592E+04 -1.55488E+04 -7.04128E+04  2.83682E+04 -4.58353E+04
  4.12812E+04  3.10724E+03  1.66471E+04  4.90436E+04 -3.50611E+04  4.94758E+04 -6.72994E+04  2.47961E+01
 -5.45876E+04 -5.84384E+04 -7.10205E+03 -7.95904E+04  3.56947E+04 -5.70908E+04  4.86713E+04 -1.91530E+04
  4.52676E+04  1.19731E+04  3.31151E+04  2.69414E+04  1.41282E+04  2.97088E+04 -6.12974E+03  2.79065E+04
 -2.30168E+04  1.28461E+04 -1.88075E+04 -6.12255E+03  5.91219E+03 -8.41493E+03  2.30110E+04  1.50581E+04
  6.84386E+03  3.72043E+04 -3.32428E+04  3.84845E+04 -6.59408E+04  2.56140E+03 -5.94885E+04 -4.31305E+04
 -1.48218E+04 -6.40895E+04  4.27079E+04 -4.75978E+04  6.09189E+04 -1.20274E+03  3.66703E+04  3.48161E+04
 -5.76936E+03  3.86612E+04 -3.22850E+04  1.73165E+04 -3.30283E+04 -3.47797E+03 -1.87260E+04 -1.18661E+04
 -8.57385E+03 -1.49878E+04 -6.59407E+02 -1.88993E+04  9.76676E+03 -2.31214E+04  1.64023E+04 -1.27709E+04
  9.79610E+03  7.18663E+03 -1.00707E+04  1.24520E+04 -2.43336E+04 -4.92831E+03 -9.40839E+03 -3.69669E+04
  2.31702E+04 -4.58505E+04  5.30529E+04 -2.13804E+04  4.84575E+04  1.98744E+04  1.62687E+04  4.53927E+04
 -1.67433E+04  3.62801E+04 -2.60988E+04  3.24151E+03 -1.19736E+04 -2.79995E+04  2.19460E+04 -3.65745E+04
  4.29202E+04 -1.16218E+04  4.07755E+04  2.50142E+04  2.04405E+04  4.96228E+04 -7.66113E+03  5.58732E+04
 -3.42926E+04  3.77318E+04 -4.66686E+04  1.13195E+04 -4.74811E+04 -1.75902E+04 -2.64556E+04 -4.15595E+04
  6.55877E+03 -4.22150E+04  3.39003E+04 -1.88540E+04  3.09744E+04  1.02923E+04  4.20882E+03  2.14048E+04
 -1.29296E+04  9.53696E+03 -1.05056E+04 -7.84844E+03  5.49079E+03 -1.21680E+04  1.81670E+04  5.63289E+03
  1.49031E+04  2.26944E+04 -5.47112E+03  2.71183E+04 -2.20389E+04  1.38885E+04 -3.29544E+04 -4.09296E+03
 -2.56939E+04 -1.86641E+04 -1.06173E+04 -2.31522E+04  5.48790E+03 -2.57966E+04  1.85994E+04 -2.26365E+04
  3.19137E+04 -1.45891E+04  3.82397E+04  6.17188E+03  2.66897E+04  2.35735E+04  4.67305E+03  4.14176E+04
 -2.05677E+04  3.47307E+04 -3.04321E+04  1.21092E+04 -2.42870E+04 -9.40918E+03 -4.86222E+03 -1.28266E+04
  2.80379E+03 -5.44515E+02 -7.30859E+03  8.18276E+03 -2.08120E+04  5.56796E+03 -1.96838E+04 -8.39964E+03
 -1.17803E+04 -2.22278E+04  4.72362E+03 -2.58576E+04  1.87416E+04 -1.90747E+04  2.13130E+04 -2.51522E+03
  1.35726E+04  1.59781E+04 -1.95309E+03  2.29032E+04 -1.60978E+04  1.24022E+04 -2.20846E+04 -4.75950E+03
 -1.74633E+04 -2.15970E+04 -2.00888E+03 -2.72749E+04  1.38295E+04 -2.27827E+04  2.25309E+04 -1.22788E+04
  2.16285E+04 -1.25440E+02  1.61948E+04  5.69621E+03  8.77408E+03  1.38528E+03  1.31078E+04 -2.86458E+03
  2.15093E+04  3.49056E+03  2.56063E+04  1.75860E+04  1.69127E+04  3.71677E+04 -2.36420E+03  4.37730E+04
 -2.44035E+04  3.72858E+04 -4.12242E+04  1.76973E+04 -4.50861E+04 -2.94236E+03 -3.36215E+04 -2.55911E+04
 -1.47089E+04 -3.56717E+04  1.24706E+04 -3.14561E+04  2.71276E+04 -1.28002E+04  2.28530E+04  7.00908E+03
  9.70557E+03  1.71869E+04 -1.06055E+04  1.58184E+04 -1.80561E+04  2.77315E+03 -1.52155E+04 -1.14658E+04
 -1.22449E+03 -1.85995E+04  1.05141E+04 -1.40486E+04  1.43604E+04 -1.34586E+03  4.42654E+03  7.94790E+03
 -9.39916E+03  3.82479E+03 -1.09605E+04 -6.47309E+03 -2.30595E+03 -2.00041E+04  1.25284E+04 -1.93781E+04
  2.19828E+04 -1.04997E+04  2.44165E+04  4.45419E+03  2.12222E+04  1.82307E+04  9.81004E+03  2.82726E+04
 -5.55342E+03  2.97579E+04 -1.96549E+04  1.93384E+04 -2.13948E+04  2.60998E+03 -1.68157E+04 -5.51721E+03
 -5.46200E+03 -6.46392E+03 -4.74363E+02  4.91998E+02 -3.44065E+03  3.88620E+03 -7.01010E+03  4.36668E+03
 -1.37196E+04 -1.14593E+03 -1.56377E+04 -1.17871E+04 -5.04375E+03 -1.85734E+04  7.15757E+03 -1.56898E+04
  1.28596E+04 -6.56426E+03  8.98760E+03  5.54285E+03 -7.31525E+02  6.35521E+03 -6.93753E+03 -1.62704E+03
 -6.66383E+03 -8.87629E+03 -1.72473E+03 -1.41312E+04  8.91421E+03 -1.64835E+04  1.92831E+04 -7.84652E+03
  2.18101E+04  2.37146E+03  1.54749E+04  1.41338E+04  2.86218E+03  1.76343E+04 -9.12089E+03  1.55160E+04
 -1.14866E+04  3.43887E+03 -5.55173E+03 -2.50035E+03  1.59883E+03 -4.28477E+03  7.46219E+03 -2.52314E+03
  7.66413E+03  7.42578E+03  7.77786E+02  1.10302E+04 -8.28216E+03  1.12032E+04 -1.30846E+04  3.26956E+03
 -8.81401E+03 -7.99519E+03  4.40362E+02 -1.18631E+04  8.70837E+03 -5.88454E+03  1.02980E+04  3.14644E+03
  1.11241E+03  1.06640E+04 -5.60972E+03  1.14521E+04 -1.38702E+04  4.20616E+03 -1.34486E+04 -3.98027E+03
 -7.22117E+03 -1.59236E+04  3.99538E+03 -1.78439E+04  1.33723E+04 -1.10710E+04  1.64154E+04  2.41514E+03
  1.03902E+04  1.15808E+04 -1.73815E+03  1.60436E+04 -1.19755E+04  8.65911E+03 -1.11823E+04 -1.92783E+03
 -9.82296E+03 -1.04259E+04 -1.29037E+03 -1.14468E+04  5.75309E+03 -8.97251E+03  7.77623E+03 -4.43962E+03
  5.10302E+03  8.47227E+02  8.35356E+02  5.24406E+02 -1.51171E+03 -4.15685E+03  2.17492E+03 -7.03615E+03
  1.02367E+04 -4.63314E+03  1.33035E+04  1.63522E+03  1.45741E+04  9.40569E+03  9.03451E+03  1.94725E+04
 -4.44434E+03  2.29737E+04 -1.84052E+04  1.60927E+04 -2.32518E+04  4.61404E+03 -1.98076E+04 -8.49761E+03
 -9.22879E+03 -1.51554E+04 -2.00148E+03 -1.29759E+04  4.67604E+03 -6.60221E+03  4.80863E+03 -4.91251E+03
  3.79006E+03 -3.42782E+03  3.81195E+03 -1.98813E+03  4.69404E+03 -3.19912E+03  6.63590E+03 -1.07875E+03
  1.06523E+04  3.74224E+03  5.31660E+03  9.20233E+03 -1.62232E+03  1.04430E+04 -1.17106E+04  8.92868E+03
 -1.39323E+04 -3.31316E+02 -7.52029E+03 -8.86549E+03 -1.29012E+03 -1.51060E+04  8.49570E+03 -1.63118E+04
  1.56284E+04 -9.01707E+03  2.01428E+04  3.09192E+03  1.12812E+04  1.40767E+04  2.32251E+03  1.67374E+04
 -7.38681E+03  1.31153E+04 -1.08245E+04  3.47711E+03 -5.86583E+03 -6.53539E+02 -2.35432E+03 -2.92311E+03
 -4.05012E+02 -7.48733E+02 -2.86899E+03  2.53030E+03 -5.92694E+03  2.60579E+03 -1.08246E+04 -1.68558E+03
 -5.90132E+03 -9.15383E+03 -6.23271E+02 -1.39816E+04  7.79624E+03 -1.43707E+04  1.37480E+04 -4.66092E+03
  1.45598E+04  6.31203E+03  7.44349E+03  1.15357E+04 -9.92899E+02  1.27505E+04 -9.96876E+03  8.23795E+03
 -1.41998E+04 -2.73240E+02 -1.07256E+04 -7.52007E+03 -1.08897E+03 -9.75940E+03  4.17123E+03 -8.76673E+03
  8.72598E+03 -1.89441E+03  6.77804E+03  2.54083E+03  1.70922E+03  4.72795E+03  1.90555E+03  1.68048E+03
  1.36207E+03  1.28400E+03  3.56646E+03  1.70531E+03  3.80716E+03  5.42231E+03  3.72712E+03  8.00479E+03
 -1.72348E+03  9.72455E+03 -9.97735E+03  1.28881E+04 -1.17837E+04  4.00820E+03 -1.53033E+04 -4.75279E+03
 -6.66404E+03 -1.29862E+04  2.10025E+03 -1.47389E+04  9.35015E+03 -1.01260E+04  1.22269E+04 -3.16310E+03
  7.91714E+03  5.20071E+03  1.52900E+03  6.84566E+03 -4.68886E+03  5.35973E+03 -5.89896E+03 -7.93629E+02
 -3.32186E+03 -4.24468E+03  3.77201E+03 -6.85932E+03  4.22004E+03 -3.23475E+03  5.82985E+03  1.36666E+03
  4.09797E+03  2.28897E+03  2.02330E+03  3.64713E+03 -3.59969E+02  8.78674E+02  1.07835E+03 -1.13433E+03
  1.68255E+03 -4.76739E+02  5.46984E+03  2.98732E+03  5.25741E+03  6.37470E+03 -3.25642E+02  1.05929E+04
 -5.67633E+03  4.66087E+03 -7.76764E+03  1.39512E+03 -6.26862E+03 -2.31248E+03 -2.62925E+03 -5.00187E+03
  1.25826E+03 -5.11416E+03  4.05349E+03 -2.68319E+03  3.47175E+03  3.36353E+03 -2.42400E+03  4.07945E+03
 -6.58042E+03  3.52816E+03 -7.51326E+03 -2.75889E+03 -2.62105E+03 -7.41510E+03  7.29952E+02 -9.05185E+03
  5.66908E+03 -5.33020E+03  7.33326E+03 -6.42111E+02  4.53198E+03  2.57766E+03  1.35991E+03  4.32017E+03
 -4.99095E+03  2.34885E+03 -3.08289E+03 -2.83266E+03  1.30686E+03 -7.38136E+03  6.76061E+03 -4.54134E+03
  8.21813E+03  1.75109E+03  7.40443E+03  6.08685E+03  2.26971E+03  8.62313E+03 -2.55372E+03  8.35181E+03
 -8.41991E+03  4.48366E+03 -7.81771E+03 -2.41385E+03 -5.18921E+03 -6.84605E+03  1.40642E+03 -5.12814E+03
  6.65662E+03 -7.10769E+02  3.98303E+03  4.93281E+02  1.57034E+03  4.63743E+03 -1.44745E+03  4.03966E+03
 -2.14959E+03  1.85716E+03 -2.61822E+03  7.78432E+02 -2.09878E+03 -5.88628E+02 -3.38779E+03  3.25990E+03
 -2.46405E+03  4.17207E+03 -6.70322E+03  3.53694E+03 -8.76713E+03  3.49134E+02 -9.88983E+03 -6.75089E+03
 -4.63450E+03 -1.20333E+04  2.69502E+03 -1.31996E+04  8.07191E+03 -1.03656E+04  1.30300E+04 -3.17765E+03
  1.33234E+04  1.38492E+03  6.85374E+03  7.99649E+03  3.21483E+02  8.76728E+03 -3.93064E+03  6.27076E+03
 -4.86704E+03  2.50142E+03 -3.13160E+03 -1.84123E+03 -2.54344E+03 -1.46981E+02 -1.53134E+03 -1.38968E+02
 -6.63941E+02  1.38858E+01 -1.60925E+03 -6.57303E+02 -6.95195E+02 -1.57726E+03  1.08013E+02 -3.00727E+03
  4.02404E+03 -1.79331E+03  4.80152E+03  1.69648E+02  6.32241E+03  5.75151E+03  1.76917E+03  9.40341E+03
 -5.21383E+03  1.19571E+04 -1.09845E+04  7.29761E+03 -1.10108E+04 -1.71940E+03 -7.80430E+03 -7.18492E+03
 -3.46581E+03 -8.69994E+03  1.11355E+03 -9.32705E+03  4.76971E+03 -3.80426E+03  6.11770E+03  1.12542E+03
  2.97043E+03  2.93134E+03  1.01303E+03  3.02316E+03 -1.61605E+03  2.47495E+02 -1.01794E+03 -2.81269E+03
  1.67921E+03 -6.34142E+02  4.37196E+03  1.04364E+03  2.18955E+03  3.84643E+03  5.31612E+02  3.80912E+03
 -3.44055E+03  3.90718E+03 -6.05316E+03 -3.41537E+02 -4.91900E+03 -5.25280E+03 -1.33163E+03 -6.52754E+03
  4.75620E+03 -6.88291E+03  7.60861E+03 -3.53295E+03  7.51304E+03  1.75065E+03  3.61642E+03  5.65372E+03
  4.62037E+02  4.82224E+03 -1.01903E+03  4.77552E+03 -4.34038E+03  3.80033E+03 -1.32041E+03  2.12880E+02
 -6.69402E+02  1.75978E+03 -2.29429E+03  1.16215E+03 -2.78660E+03  9.92876E+02 -5.27595E+03 -1.05359E+03
 -4.20363E+03 -3.84242E+03  4.63087E+02 -5.49291E+03  1.86491E+03 -5.34771E+03  5.39725E+03 -4.22900E+03
  6.06592E+03  1.93435E+03  5.00487E+03  5.48106E+03  2.79338E+02  6.04227E+03 -4.23910E+03  3.96225E+03
