 $NMID ID='MM_0lb_SNR200_14hz_g60_3.RAW', FMTDAT='(8E13.5)'
 TRAMP=1., VOLUME=1. $END
  3.09080E+05  1.29356E+03  3.37103E+05  2.50659E+05  8.39462E+04  3.39217E+05 -1.32402E+05  2.51228E+05
 -1.91499E+05  8.34471E+04 -1.12655E+05 -3.27601E+04  5.03367E+02 -5.14775E+04  5.31995E+04 -1.43668E+02
  3.60461E+04  5.38082E+04 -1.63989E+04  7.55795E+04 -6.04427E+04  6.37446E+04 -8.53406E+04  3.25794E+04
 -8.16063E+04 -1.09506E+04 -5.61712E+04 -5.17035E+04 -1.57781E+04 -7.18514E+04  2.79870E+04 -4.58696E+04
  3.94011E+04  4.02262E+03  1.62471E+04  4.81901E+04 -3.27309E+04  4.82464E+04 -6.59935E+04  3.22361E+02
 -5.42239E+04 -5.68262E+04 -6.65539E+03 -7.73460E+04  3.42805E+04 -5.48988E+04  4.82021E+04 -1.82066E+04
  4.43932E+04  1.01195E+04  3.21464E+04  2.51811E+04  1.64555E+04  2.97105E+04 -6.62460E+03  2.65203E+04
 -2.19745E+04  1.13365E+04 -1.80085E+04 -4.99213E+03  6.07942E+03 -5.97159E+03  2.28096E+04  1.27553E+04
  7.15474E+03  3.59535E+04 -3.29575E+04  3.54574E+04 -6.36725E+04  2.78624E+03 -5.71238E+04 -4.33408E+04
 -1.19152E+04 -6.39336E+04  4.16308E+04 -4.42648E+04  6.00232E+04 -3.80333E+03  3.48457E+04  3.25659E+04
 -6.45587E+03  3.73780E+04 -3.10017E+04  1.80155E+04 -3.16451E+04 -3.75073E+03 -1.74362E+04 -1.21996E+04
 -9.14289E+03 -1.42761E+04  2.87969E+01 -1.92806E+04  8.21846E+03 -2.33980E+04  1.66386E+04 -1.25817E+04
  1.05354E+04  5.77401E+03 -9.56444E+03  1.21947E+04 -2.17111E+04 -4.56990E+03 -7.72689E+03 -3.50113E+04
  2.25368E+04 -4.41674E+04  5.00578E+04 -2.06438E+04  4.69891E+04  2.00342E+04  1.60802E+04  4.63291E+04
 -1.53340E+04  3.40544E+04 -2.63489E+04  2.28679E+03 -1.16019E+04 -2.81185E+04  1.98558E+04 -3.53106E+04
  4.23374E+04 -9.92635E+03  3.71765E+04  2.48129E+04  1.89125E+04  4.74691E+04 -9.32345E+03  5.25936E+04
 -3.32535E+04  3.48601E+04 -4.24416E+04  1.08900E+04 -4.47947E+04 -1.76643E+04 -2.46175E+04 -4.04352E+04
  6.22710E+03 -3.85412E+04  3.16828E+04 -1.57232E+04  3.03070E+04  1.03504E+04  4.70885E+03  1.91294E+04
 -1.28603E+04  8.31562E+03 -1.05693E+04 -6.14172E+03  6.78576E+03 -1.06446E+04  1.73755E+04  6.73236E+03
  1.34622E+04  2.18693E+04 -6.81103E+03  2.53059E+04 -2.27029E+04  1.21472E+04 -2.87879E+04 -4.35053E+03
 -2.19561E+04 -1.74843E+04 -9.30517E+03 -2.22065E+04  4.05291E+03 -2.21659E+04  1.76367E+04 -1.91540E+04
  2.73788E+04 -1.29659E+04  3.46368E+04  4.11391E+03  2.55594E+04  2.16202E+04  2.94167E+03  3.77877E+04
 -1.95645E+04  3.08706E+04 -2.92348E+04  9.98799E+03 -2.12649E+04 -1.10320E+04 -4.25522E+03 -1.23745E+04
  2.30282E+03 -3.14232E+03 -5.79023E+03  4.84269E+03 -1.70095E+04  4.78636E+03 -1.75868E+04 -6.56799E+03
 -1.10844E+04 -1.98054E+04  4.84177E+03 -2.45780E+04  1.67373E+04 -1.68684E+04  1.92230E+04 -1.66237E+03
  1.19934E+04  1.34818E+04  1.76363E+02  2.01629E+04 -1.47907E+04  1.08700E+04 -1.86231E+04 -3.57892E+03
 -1.52224E+04 -1.71546E+04 -1.70348E+03 -2.44518E+04  1.03180E+04 -1.99333E+04  2.05767E+04 -9.99940E+03
  1.91816E+04 -6.79304E+01  1.29669E+04  3.65095E+03  6.72654E+03  1.78173E+03  9.65260E+03 -1.45509E+03
  1.83024E+04  3.00657E+03  2.08433E+04  1.55184E+04  1.41604E+04  3.17948E+04 -2.95484E+03  3.72703E+04
 -2.20405E+04  3.06394E+04 -3.39424E+04  1.37807E+04 -3.51057E+04 -2.94777E+03 -2.94034E+04 -1.98418E+04
 -1.17985E+04 -3.01695E+04  9.33828E+03 -2.66673E+04  2.35458E+04 -1.25145E+04  2.24767E+04  8.10175E+03
  7.50453E+03  1.48241E+04 -8.95230E+03  1.42202E+04 -1.71904E+04  2.09346E+03 -1.35455E+04 -9.47392E+03
 -1.54055E+03 -1.54097E+04  8.66996E+03 -1.18992E+04  1.10142E+04 -1.65727E+03  2.29561E+03  7.66426E+03
 -7.03350E+03  3.55411E+03 -7.03141E+03 -5.37841E+03 -7.46034E+02 -1.45431E+04  1.02784E+04 -1.65961E+04
  1.92742E+04 -8.61455E+03  1.95572E+04  2.80418E+03  1.80235E+04  1.35238E+04  8.41483E+03  2.18280E+04
 -4.08471E+03  2.40025E+04 -1.47079E+04  1.52557E+04 -1.66003E+04  3.24513E+03 -1.28322E+04 -3.91891E+03
 -5.00897E+03 -5.24859E+03  1.78972E+02 -1.26124E+02 -2.68600E+03  1.41515E+03 -6.22925E+03  4.95382E+03
 -1.18537E+04 -7.19391E+02 -1.25836E+04 -8.95984E+03 -5.44203E+03 -1.60920E+04  5.00556E+03 -1.28540E+04
  1.09831E+04 -6.21167E+03  6.97948E+03  2.65735E+03  5.23856E+02  4.59074E+03 -5.55630E+03  3.20073E+02
 -5.61340E+03 -7.67455E+03 -2.31144E+03 -1.09269E+04  6.64466E+03 -1.30252E+04  1.46952E+04 -7.72761E+03
  1.75307E+04  2.18968E+03  1.28100E+04  9.97542E+03  2.27220E+03  1.43962E+04 -8.42860E+03  1.16927E+04
 -1.09078E+04  4.03927E+03 -4.31268E+03 -2.38190E+03  1.02859E+03 -2.32807E+03  5.90838E+03 -1.03898E+03
  6.28760E+03  5.13713E+03  1.34737E+03  9.12328E+03 -6.27617E+03  9.96041E+03 -1.14319E+04  2.65436E+03
 -8.75629E+03 -5.82468E+03  5.07830E+02 -1.07014E+04  5.69637E+03 -5.53952E+03  6.42859E+03  2.32886E+03
  2.21283E+03  7.32783E+03 -5.11719E+03  1.04313E+04 -9.27704E+03  3.86751E+03 -8.12103E+03 -3.28602E+03
 -5.76907E+03 -1.00088E+04  2.65947E+03 -1.22455E+04  9.53568E+03 -7.26704E+03  1.12735E+04  2.05221E+03
  7.14483E+03  9.33306E+03 -3.70554E+02  1.06645E+04 -7.87216E+03  6.34890E+03 -8.01112E+03 -4.15490E+01
 -7.09630E+03 -9.20172E+03 -4.77465E+02 -8.28137E+03  4.60109E+03 -7.38792E+03  6.17021E+03 -2.96097E+03
  5.75915E+03  1.14320E+03  5.85435E+02  2.72283E+03  2.41955E+01 -1.17193E+03  9.99037E+02 -4.93435E+03
  6.35017E+03 -2.08808E+03  9.28036E+03  1.61151E+03  1.02815E+04  6.36088E+03  7.79591E+03  1.46893E+04
 -3.58915E+03  1.59806E+04 -1.32973E+04  1.32394E+04 -1.84387E+04  1.80401E+03 -1.34720E+04 -4.25927E+03
 -6.12073E+03 -1.05927E+04 -6.37218E+02 -1.02851E+04  2.99795E+03 -5.81934E+03  4.08975E+03 -4.02857E+03
  2.31953E+03 -1.23289E+03  2.99300E+03 -2.22962E+03  4.52750E+03 -2.30603E+03  4.99187E+03 -1.63353E+02
  7.31121E+03  1.31076E+03  3.62518E+03  5.73339E+03 -2.79618E+03  5.66754E+03 -8.23582E+03  4.35023E+03
 -1.04277E+04 -1.45384E+03 -4.81427E+03 -6.27247E+03 -5.31111E+02 -1.05762E+04  4.30795E+03 -9.37128E+03
  1.02903E+04 -6.26059E+03  1.23281E+04  8.86522E+02  9.00147E+03  7.78339E+03  2.39689E+03  1.02441E+04
 -3.87212E+03  9.90351E+03 -7.76876E+03  3.40831E+03 -4.17957E+03 -1.35121E+03 -1.26501E+03 -2.98852E+03
 -1.35756E+03 -5.85892E+02 -7.01011E+02  2.08602E+03 -3.01079E+03  7.23536E+02 -5.86677E+03 -1.19538E+03
 -5.09739E+03 -7.05161E+03  3.52171E+02 -8.64206E+03  4.43990E+03 -8.45341E+03  7.85175E+03 -3.13612E+03
  7.73057E+03  4.67953E+03  4.33622E+03  6.90348E+03 -2.42321E+03  7.50317E+03 -5.65600E+03  5.44901E+03
 -7.54612E+03  1.19681E+03 -7.09473E+03 -5.26749E+03 -1.21227E+03 -6.87683E+03  3.02645E+03 -4.82285E+03
  4.93294E+03 -1.30649E+03  3.09503E+03  1.42399E+03  2.13454E+03  2.28904E+03  6.60545E+02  1.03108E+03
  1.63057E+03  7.25424E+02  2.46330E+03  1.70101E+03  2.83216E+03  3.72933E+03  3.87473E+03  3.15503E+03
 -2.20875E+03  5.79504E+03 -5.07593E+03  7.82182E+03 -7.76848E+03  1.36238E+03 -9.10335E+03 -3.42196E+03
 -3.92979E+03 -6.89580E+03  3.25453E+02 -8.18391E+03  4.28807E+03 -5.00137E+03  7.02946E+03 -2.01738E+03
  6.21586E+03  3.51552E+03  1.99016E+03  3.83958E+03 -1.98932E+03  3.84578E+03 -2.40958E+03 -3.93232E+02
 -1.57811E+03 -3.06793E+03  2.68755E+03 -3.60606E+03  1.83925E+03 -1.73599E+03  3.42760E+03  6.73318E+02
  9.72570E+02  1.12516E+03  5.24281E+02  1.11357E+03 -3.82294E+02  1.09462E+03  3.13912E+02 -9.97799E+02
  1.02231E+02 -3.42020E+02  2.66248E+03  1.10332E+03  2.11912E+03  5.70782E+03 -5.42133E+02  5.35865E+03
 -2.93157E+03  2.80159E+03 -4.41155E+03  3.01802E+02 -5.26700E+03 -1.30458E+03 -2.00158E+03 -2.17816E+03
  1.60039E+03 -3.48151E+03  2.74613E+03 -1.50635E+03  1.45812E+03  1.94972E+03 -3.73817E+02  1.80051E+03
 -3.23686E+03  2.06240E+03 -4.07353E+03 -1.92112E+03 -1.91224E+03 -5.17595E+03  3.48494E-01 -3.27278E+03
  3.60826E+03 -8.89694E+02  1.37475E+03  1.29341E+03  1.97293E+03  1.16859E+03 -1.06322E+02  2.78135E+03
 -5.56888E+02 -3.10761E+02 -2.55660E+03  2.32771E+02  1.01232E+03 -3.53477E+03  5.28762E+03 -2.51778E+03
  3.90309E+03  1.43930E+02  5.10016E+03  2.93468E+03  1.56764E+03  4.34366E+03 -2.94990E+03  6.00918E+03
 -3.62358E+03  1.17771E+03 -3.33517E+03 -7.05538E+02 -2.17037E+03 -2.09451E+03  9.21061E+02 -1.67797E+03
  3.63546E+03 -2.03211E+03  1.71520E+03  2.79934E+03 -5.19770E+02  1.41989E+03  9.93114E+02  3.16635E+03
 -1.87954E+02  5.56613E+02 -1.34515E+03  5.92277E+02 -6.07823E+02  4.04206E+02 -2.23993E+03  1.62880E+03
 -1.46800E+03  2.73498E+03 -4.06135E+03  1.88495E+03 -3.78528E+03  8.08824E+02 -5.03499E+03 -2.76306E+03
 -2.16897E+03 -4.61768E+03  1.92092E+03 -7.06856E+03  3.31181E+03 -5.03957E+03  6.20988E+03 -2.51845E+03
  4.82942E+03  1.06074E+03  5.21331E+03  4.17885E+03 -1.39030E+02  4.31803E+03 -1.82054E+03  3.98312E+03
 -2.53056E+03  1.90631E+03 -2.46670E+03  5.33610E+02 -6.67770E+02 -8.86545E+02 -1.49132E+03  3.75086E+02
 -1.69380E+02  8.06326E+02 -1.46841E+03  4.73321E+01  9.53661E+02 -7.11165E+02 -1.33705E+02 -1.84342E+03
  2.54505E+03 -1.86066E+03  2.68990E+03 -5.82551E+02  2.54005E+03  1.67700E+03 -6.80111E+02  4.98521E+03
 -2.07029E+03  5.11062E+03 -5.94236E+03  3.32840E+03 -5.73733E+03  2.45036E+02 -3.38132E+03 -3.26563E+03
 -5.22767E+02 -3.40341E+03  1.55552E+03 -3.46725E+03  1.65687E+03 -2.77418E+03  1.59679E+03  8.15859E+02
  1.66390E+03  1.70887E+02  4.63669E+02  3.60487E+02  8.65179E+01 -3.55254E+02  9.21436E+02 -1.31452E+03
  1.00996E+03 -5.32495E+02  1.22002E+03  9.61637E+02  1.46697E+03  1.78438E+03  5.71913E+02  5.83465E+02
 -1.87931E+03  2.59238E+03 -2.66555E+03  4.80935E+02 -1.92400E+03 -1.09281E+03  4.37683E+02 -4.11920E+03
  2.04259E+03 -2.94368E+03  2.58951E+03 -1.68674E+02  2.61246E+03  6.52818E+02  8.48495E+02  1.71810E+03
 -1.28048E+02  3.17902E+03 -5.30020E+02  2.96471E+03 -1.60485E+03  1.09213E+03 -1.73017E+03 -2.54454E+02
 -5.30960E+02  3.73449E+02 -2.07214E+02  1.38154E+03 -5.57929E+02  1.44078E+02 -1.41549E+03 -5.13832E+02
 -2.62395E+03 -2.58446E+02 -6.07549E+00 -1.51292E+03 -8.98497E+01 -3.41899E+03  2.38241E+03 -9.93362E+01
  3.24747E+03  7.83763E+01  5.65803E+02  1.54583E+03 -2.20144E+02  3.07480E+03 -1.84146E+03  2.10913E+02
