 $NMID ID='MM_0lb_SNR200_11hz_g55_76.RAW', FMTDAT='(8E13.5)'
 TRAMP=1., VOLUME=1. $END
  3.10081E+05  1.42342E+03  3.36210E+05  2.50114E+05  8.59551E+04  3.39457E+05 -1.31532E+05  2.51529E+05
 -1.90210E+05  8.26854E+04 -1.11661E+05 -3.31427E+04 -6.98239E+01 -5.05300E+04  5.26297E+04 -1.92988E+03
  3.49670E+04  5.33116E+04 -1.72963E+04  7.51691E+04 -6.12240E+04  6.46372E+04 -8.54510E+04  3.24351E+04
 -8.19242E+04 -1.18667E+04 -5.64947E+04 -5.13342E+04 -1.53343E+04 -7.02635E+04  2.73185E+04 -4.69589E+04
  4.02392E+04  4.08192E+03  1.61484E+04  4.88725E+04 -3.39751E+04  4.93697E+04 -6.65693E+04 -1.82274E+02
 -5.41409E+04 -5.74919E+04 -6.74570E+03 -7.90910E+04  3.41390E+04 -5.77482E+04  4.93172E+04 -1.82421E+04
  4.39244E+04  1.13294E+04  3.21288E+04  2.61059E+04  1.81646E+04  3.03132E+04 -4.62432E+03  2.76181E+04
 -2.29262E+04  1.27759E+04 -1.87047E+04 -5.97640E+03  6.16095E+03 -8.51999E+03  2.34157E+04  1.31128E+04
  8.16094E+03  3.65743E+04 -3.31780E+04  3.83202E+04 -6.56743E+04  1.31282E+03 -5.86343E+04 -4.51909E+04
 -1.26179E+04 -6.50250E+04  4.14337E+04 -4.80068E+04  6.05609E+04 -3.76073E+03  3.47911E+04  3.40655E+04
 -5.48444E+03  3.84964E+04 -3.20575E+04  1.74376E+04 -3.36210E+04 -3.64377E+03 -1.73898E+04 -1.15736E+04
 -9.16296E+03 -1.32557E+04 -3.97783E+02 -1.99583E+04  7.67771E+03 -2.37662E+04  1.64734E+04 -1.35562E+04
  1.03081E+04  6.86603E+03 -9.06770E+03  1.27882E+04 -2.40423E+04 -6.14903E+03 -9.88053E+03 -3.65580E+04
  2.40335E+04 -4.56016E+04  5.12160E+04 -2.13371E+04  4.74580E+04  2.02961E+04  1.82371E+04  4.78541E+04
 -1.60050E+04  3.54946E+04 -2.81929E+04  1.89333E+03 -1.15778E+04 -2.83823E+04  2.25455E+04 -3.56823E+04
  4.45772E+04 -1.00512E+04  3.81739E+04  2.49196E+04  2.09943E+04  5.07347E+04 -7.46748E+03  5.52405E+04
 -3.27996E+04  3.66804E+04 -4.70278E+04  1.01388E+04 -4.70639E+04 -1.55509E+04 -2.54892E+04 -4.11319E+04
  7.59905E+03 -4.12459E+04  3.27740E+04 -1.60574E+04  3.16773E+04  9.73170E+03  5.12556E+03  2.00036E+04
 -1.27892E+04  1.05278E+04 -1.01553E+04 -7.24050E+03  5.76021E+03 -1.07286E+04  1.88244E+04  5.31174E+03
  1.44281E+04  2.08794E+04 -5.12129E+03  2.67490E+04 -2.38522E+04  1.42017E+04 -3.11609E+04 -3.23892E+03
 -2.58787E+04 -1.81742E+04 -1.05509E+04 -2.45251E+04  4.06183E+03 -2.42416E+04  1.72795E+04 -2.16146E+04
  2.92019E+04 -1.46681E+04  3.73030E+04  3.96114E+03  2.71138E+04  2.31949E+04  5.59580E+03  4.11076E+04
 -1.99170E+04  3.39280E+04 -3.05842E+04  1.19476E+04 -2.18011E+04 -1.11698E+04 -4.31791E+03 -1.29211E+04
  1.20940E+03 -3.56105E+02 -4.98531E+03  7.58999E+03 -1.83307E+04  5.48829E+03 -1.92390E+04 -9.83127E+03
 -1.14125E+04 -2.20296E+04  6.58729E+03 -2.76299E+04  1.66958E+04 -1.86830E+04  2.04958E+04 -1.95714E+03
  1.37279E+04  1.55967E+04 -2.04969E+03  2.16968E+04 -1.41527E+04  1.26646E+04 -2.31239E+04 -3.71125E+03
 -1.46936E+04 -2.12197E+04 -2.24398E+03 -2.75404E+04  1.35458E+04 -2.17416E+04  2.18401E+04 -1.04699E+04
  2.08914E+04 -7.63473E+02  1.44501E+04  6.17869E+03  9.66346E+03  1.18386E+03  1.22313E+04 -2.39036E+03
  2.14776E+04  3.76921E+03  2.48868E+04  1.66707E+04  1.60358E+04  3.64573E+04 -3.17247E+03  3.92950E+04
 -2.29199E+04  3.28890E+04 -3.82219E+04  1.75055E+04 -4.20225E+04 -4.10415E+03 -3.29065E+04 -2.39438E+04
 -1.32763E+04 -3.49782E+04  1.19775E+04 -3.15841E+04  2.51932E+04 -1.56912E+04  2.16491E+04  6.96123E+03
  9.83640E+03  1.80144E+04 -8.98039E+03  1.65462E+04 -1.80222E+04  2.97959E+03 -1.48645E+04 -1.22751E+04
 -1.93576E+02 -1.60388E+04  9.19403E+03 -1.32605E+04  1.26889E+04 -1.18324E+03  1.83756E+03  7.68152E+03
 -9.22002E+03  6.41414E+03 -8.88176E+03 -8.30162E+03 -2.72771E+03 -1.59737E+04  1.15092E+04 -1.74855E+04
  2.08564E+04 -8.52319E+03  2.41872E+04  2.29259E+03  2.04021E+04  1.69020E+04  9.02330E+03  2.74039E+04
 -3.64949E+03  2.87090E+04 -1.88037E+04  1.78879E+04 -1.94437E+04  2.50872E+03 -1.42247E+04 -3.94047E+03
 -6.83708E+03 -5.52845E+03  4.09098E+02 -3.22456E+01 -4.64469E+03  2.63573E+03 -5.81165E+03  4.59153E+03
 -1.41640E+04 -1.44199E+03 -1.33336E+04 -1.24288E+04 -6.63515E+03 -1.86273E+04  5.68957E+03 -1.38570E+04
  1.10935E+04 -6.66715E+03  8.27502E+03  4.43622E+03  5.44991E+02  4.90398E+03 -7.18740E+03 -1.54288E+03
 -5.91281E+03 -9.73853E+03  7.72657E+02 -1.39058E+04  7.65108E+03 -1.63207E+04  1.80930E+04 -7.93815E+03
  2.27437E+04  2.71490E+03  1.48899E+04  1.33132E+04  2.49005E+03  1.66030E+04 -8.77183E+03  1.36262E+04
 -1.31425E+04  3.56595E+03 -6.34447E+03 -2.44300E+03  2.76707E+03 -3.49555E+03  7.24832E+03  1.03747E+03
  6.37165E+03  6.00303E+03  1.14938E+03  1.12415E+04 -9.26695E+03  8.98320E+03 -1.45312E+04  2.68926E+03
 -1.04854E+04 -8.13680E+03  8.07403E+02 -1.32011E+04  6.82925E+03 -4.78223E+03  9.67428E+03  3.23851E+03
  2.98961E+03  7.46337E+03 -6.93457E+03  1.09414E+04 -1.07427E+04  3.98884E+03 -1.26850E+04 -3.61579E+03
 -6.13878E+03 -1.34739E+04  4.30860E+03 -1.60530E+04  1.40332E+04 -1.07788E+04  1.51973E+04  2.57618E+03
  7.70520E+03  1.01551E+04 -5.69295E+02  1.30112E+04 -1.22703E+04  8.28986E+03 -1.06632E+04 -8.12801E+02
 -1.10499E+04 -8.66151E+03 -1.97527E+03 -1.04565E+04  4.88627E+03 -7.60446E+03  5.77329E+03 -3.35908E+03
  3.11419E+03  2.59778E+01 -9.78329E+02  7.39123E+02 -8.12631E+02 -1.72880E+03  2.48166E+03 -5.63481E+03
  1.03022E+04 -4.26127E+03  1.23213E+04  2.62813E+03  1.27897E+04  9.74571E+03  9.43370E+03  1.69343E+04
 -4.61702E+03  2.05285E+04 -1.78864E+04  1.58895E+04 -2.14901E+04  2.84037E+03 -1.72408E+04 -9.40245E+03
 -8.20637E+03 -1.56030E+04 -7.10605E+02 -1.30281E+04  3.49859E+03 -6.18252E+03  3.08210E+03 -4.88269E+03
  3.66297E+03 -2.76581E+03  3.14824E+03 -3.91183E+03  4.45799E+03 -2.18092E+03  6.12521E+03 -3.45265E+02
  8.83443E+03  2.73958E+03  4.80722E+03  7.50146E+03 -2.62450E+03  9.12681E+03 -9.84988E+03  7.71262E+03
 -1.13753E+04 -5.67193E+02 -8.47355E+03 -8.80949E+03  5.07078E+02 -1.33377E+04  7.44587E+03 -1.12193E+04
  1.20601E+04 -7.15959E+03  1.60684E+04  3.20584E+03  1.08828E+04  1.04358E+04  1.21318E+03  1.42204E+04
 -5.60879E+03  1.32594E+04 -7.54035E+03  2.94683E+03 -6.33851E+03 -2.29155E+03 -2.57278E+03 -2.05924E+03
 -2.06004E+03  1.56575E+03 -2.77621E+03  3.33210E+03 -6.43524E+03  1.70656E+03 -1.03232E+04 -1.27613E+03
 -5.17771E+03 -8.86727E+03  9.30392E+02 -1.32559E+04  7.26993E+03 -1.14178E+04  1.12102E+04 -3.33563E+03
  1.13445E+04  6.67432E+03  5.38686E+03  1.05039E+04 -2.45332E+03  1.27492E+04 -8.82723E+03  8.52955E+03
 -1.17292E+04  2.60849E+03 -9.57660E+03 -6.95588E+03  1.41238E+02 -1.06941E+04  6.38207E+03 -6.32531E+03
  8.12087E+03 -2.36053E+03  4.09561E+03  1.56537E+03  2.23633E+03  2.97627E+03  1.29271E+03  1.21109E+03
  2.38562E+03  1.42934E+03  1.92112E+03  1.35795E+03  3.56194E+03  3.95392E+03  3.61946E+03  5.36417E+03
 -1.54195E+03  9.11830E+03 -9.29739E+03  9.49673E+03 -1.15134E+04  3.18440E+03 -1.30167E+04 -3.54979E+03
 -6.40297E+03 -1.07785E+04  6.25409E+02 -1.27452E+04  7.74821E+03 -9.15738E+03  9.86703E+03 -2.23684E+03
  7.33783E+03  3.21871E+03  1.61738E+03  7.89763E+03 -3.59556E+03  3.34608E+03 -4.42431E+03 -9.89629E+02
 -2.15913E+03 -6.32625E+03  2.98156E+03 -4.56872E+03  4.06552E+03 -1.96712E+03  4.01040E+03  1.18252E+03
  3.06727E+03  1.96340E+03  9.82202E+02  2.24376E+03 -1.75832E+03  1.84126E+03  1.39322E+03 -8.33502E+02
  1.09871E+03 -3.56518E+02  4.62380E+03  1.60679E+03  2.55831E+03  6.55571E+03 -1.59747E+03  9.63721E+03
 -4.84286E+03  5.35814E+03 -8.50964E+03  1.72972E+03 -7.01666E+03 -1.69485E+03 -1.71674E+03 -5.65923E+03
  1.59946E+03 -4.95251E+03  1.35639E+03 -1.43412E+03  2.24967E+03  2.49888E+03 -1.29815E+03  4.23801E+03
 -5.46049E+03  3.75839E+03 -6.53310E+03 -3.28574E+03 -4.02813E+03 -6.24738E+03  1.68420E+03 -5.71735E+03
  2.47030E+03 -3.77721E+03  4.59533E+03 -7.03141E+02  4.56068E+03  2.34971E+03  3.92372E+02  3.11869E+03
 -1.57548E+03  3.99479E+02 -2.31880E+03 -2.83624E+03  2.77833E+03 -3.63929E+03  6.42373E+03 -4.76694E+03
  6.87785E+03  1.72153E+03  6.22110E+03  5.44171E+03  2.49586E+03  6.83951E+03 -2.22491E+03  7.09554E+03
 -5.78813E+03  3.13259E+03 -7.56196E+03 -1.84993E+03 -2.78101E+03 -5.34945E+03  1.61375E+03 -3.77508E+03
  4.66355E+03 -1.74650E+03  2.21081E+03  2.25810E+03  8.83607E+02  4.86163E+03 -1.91929E+03  3.26435E+03
 -1.45147E+03  1.98826E+03 -1.56707E+03  4.82609E+02 -1.83203E+03  2.11898E+03 -9.08014E+02  1.42982E+03
 -3.23895E+03  1.92798E+03 -4.77937E+03  2.41602E+03 -7.24794E+03 -5.34705E+02 -8.73693E+03 -4.73432E+03
 -6.12970E+03 -1.09878E+04  9.30837E+02 -1.26218E+04  5.38513E+03 -9.44152E+03  1.04636E+04 -3.44540E+03
  1.11409E+04  2.30530E+03  5.98803E+03  6.59465E+03  1.61971E+03  6.90041E+03 -1.92115E+03  5.93262E+03
 -3.82706E+03  1.97052E+03 -3.13518E+03 -2.26252E+02 -6.83848E+02 -5.54322E+02  4.62297E+02  8.08612E+02
 -1.52897E+03  3.20172E+02 -2.37907E+03 -5.90142E+02 -3.80455E+02 -2.85600E+03 -6.24774E+00 -3.66169E+03
  3.82241E+03 -2.41374E+03  4.48664E+03  1.62164E+03  4.91748E+03  4.25646E+03  6.60975E+02  6.74436E+03
 -3.66904E+03  6.86893E+03 -7.55635E+03  4.06713E+03 -7.76130E+03 -1.46712E+03 -7.04358E+03 -5.84200E+03
 -3.20950E+03 -6.57734E+03  1.21257E+03 -4.94546E+03  4.45550E+03 -5.03233E+03  4.22220E+03  4.86223E+02
  1.83721E+03  1.37740E+03 -1.06088E+02  2.15276E+03 -1.67051E+03 -1.01535E+03  2.85480E+02 -2.23114E+03
  2.01076E+03 -1.02650E+03  3.40353E+03  1.23830E+03  1.65867E+03  1.84742E+03 -3.71950E+01  2.49986E+03
 -3.57938E+03  2.89099E+03 -4.65657E+03  7.39889E+02 -4.47595E+03 -2.83569E+03 -8.30997E+02 -7.70301E+03
  4.48253E+03 -4.75304E+03  4.88398E+03 -1.62942E+03  3.61928E+03  1.90767E+03  2.07292E+03  5.53359E+03
  1.35424E+03  4.80130E+03 -8.43947E+02  3.06965E+03 -3.45552E+03  1.90736E+03 -3.44963E+03  1.03562E+03
 -1.76650E+03 -6.61517E+02 -1.57040E+03  8.77643E+02 -2.66816E+03  1.17960E+03 -3.31578E+03 -7.98130E+02
 -4.55799E+03 -3.21729E+03 -6.38898E+02 -5.03159E+03  3.44740E+03 -4.51001E+03  4.94879E+03 -1.76072E+03
  6.25975E+03  1.35634E+02  3.20441E+03  3.17250E+03 -3.26676E+02  3.61843E+03 -4.48873E+03  3.51347E+03
