 $NMID ID='MM_0lb_SNR200_13hz_g50_74.RAW', FMTDAT='(8E13.5)'
 TRAMP=1., VOLUME=1. $END
  3.10810E+05  7.28922E+02  3.37281E+05  2.51268E+05  8.42157E+04  3.38281E+05 -1.32974E+05  2.51661E+05
 -1.90235E+05  8.34179E+04 -1.11104E+05 -3.21470E+04  1.27317E+03 -5.09276E+04  5.40579E+04 -4.60770E+02
  3.50642E+04  5.28442E+04 -1.71942E+04  7.54781E+04 -6.07822E+04  6.23906E+04 -8.57850E+04  3.17146E+04
 -8.06744E+04 -1.04378E+04 -5.71683E+04 -5.19624E+04 -1.44598E+04 -7.04527E+04  2.79887E+04 -4.55538E+04
  4.05681E+04  5.08485E+03  1.61996E+04  4.72865E+04 -3.53717E+04  4.76080E+04 -6.77137E+04 -1.07419E+03
 -5.35140E+04 -5.74249E+04 -7.31570E+03 -7.63672E+04  3.39799E+04 -5.65692E+04  4.89282E+04 -1.83135E+04
  4.35641E+04  1.08211E+04  3.34547E+04  2.61495E+04  1.49434E+04  3.00260E+04 -5.12296E+03  2.82868E+04
 -2.28302E+04  1.16303E+04 -1.74373E+04 -5.47494E+03  5.94063E+03 -7.93662E+03  2.35197E+04  1.21006E+04
  6.71565E+03  3.62197E+04 -3.30086E+04  3.48320E+04 -6.33449E+04  1.01552E+03 -5.94372E+04 -4.24426E+04
 -1.25401E+04 -6.38023E+04  3.94989E+04 -4.61937E+04  5.85864E+04 -1.22138E+03  3.49927E+04  3.25537E+04
 -6.24126E+03  3.75956E+04 -3.05464E+04  1.58842E+04 -3.00017E+04 -4.62956E+03 -1.82520E+04 -1.03647E+04
 -8.25886E+03 -1.31428E+04 -5.15681E+02 -1.93668E+04  8.42194E+03 -2.33333E+04  1.52926E+04 -1.28056E+04
  1.11586E+04  5.41516E+03 -8.18024E+03  1.44303E+04 -2.08795E+04 -5.31938E+03 -9.01011E+03 -3.43692E+04
  2.31203E+04 -4.44426E+04  4.83891E+04 -2.12991E+04  4.59080E+04  2.01494E+04  1.48515E+04  4.43171E+04
 -1.73636E+04  3.33647E+04 -2.53806E+04  7.59218E+02 -9.36964E+03 -2.78726E+04  1.93672E+04 -3.56776E+04
  4.04334E+04 -8.89607E+03  3.69340E+04  2.32830E+04  1.90442E+04  4.78583E+04 -8.13047E+03  5.07782E+04
 -3.21894E+04  3.46060E+04 -4.30286E+04  9.42252E+03 -4.34236E+04 -1.73499E+04 -2.32256E+04 -4.01047E+04
  7.40087E+03 -3.87577E+04  3.18605E+04 -1.60028E+04  3.00759E+04  1.20065E+04  4.70169E+03  1.94503E+04
 -1.42950E+04  8.98974E+03 -9.75091E+03 -7.19459E+03  7.11514E+03 -1.09559E+04  1.85634E+04  6.32638E+03
  1.40116E+04  2.15571E+04 -5.12776E+03  2.53024E+04 -2.34936E+04  1.27162E+04 -2.76246E+04 -4.54353E+03
 -2.18743E+04 -1.72231E+04 -9.57806E+03 -2.04285E+04  4.26568E+03 -2.01815E+04  1.69355E+04 -2.00981E+04
  2.66838E+04 -1.24588E+04  3.39910E+04  3.24559E+03  2.37243E+04  2.02268E+04  4.91115E+03  3.79576E+04
 -1.74730E+04  3.28984E+04 -2.75710E+04  1.02613E+04 -2.10052E+04 -1.08454E+04 -4.45333E+03 -1.34278E+04
  1.07770E+03 -1.87097E+03 -6.09208E+03  7.40419E+03 -1.71223E+04  5.64858E+03 -1.71273E+04 -6.73245E+03
 -1.01137E+04 -1.91211E+04  4.35944E+03 -2.43068E+04  1.62887E+04 -1.67743E+04  2.06145E+04 -1.49225E+03
  1.19118E+04  1.46254E+04 -1.00534E+03  2.06916E+04 -1.23786E+04  1.02592E+04 -2.09904E+04 -3.81766E+03
 -1.44563E+04 -1.83854E+04 -1.20743E+03 -2.39690E+04  1.18454E+04 -1.95596E+04  2.01791E+04 -8.10403E+03
  1.77604E+04 -1.06719E+03  1.32101E+04  5.45045E+03  6.77884E+03 -7.26213E+02  1.07823E+04 -9.62916E+02
  1.78444E+04  1.82049E+03  2.00009E+04  1.67430E+04  1.31542E+04  3.16734E+04 -2.28997E+03  3.61233E+04
 -2.04968E+04  2.94430E+04 -3.32346E+04  1.45169E+04 -3.53083E+04 -3.47958E+03 -2.90149E+04 -2.15151E+04
 -1.31009E+04 -2.92158E+04  1.07178E+04 -2.53319E+04  2.28527E+04 -1.40284E+04  2.12419E+04  5.16579E+03
  7.31281E+03  1.50735E+04 -9.29775E+03  1.27621E+04 -1.77018E+04  2.82585E+03 -1.31309E+04 -1.02679E+04
 -6.85893E+02 -1.68355E+04  9.92358E+03 -1.24902E+04  1.08925E+04 -1.50399E+03  2.77427E+03  6.36018E+03
 -8.60118E+03  1.86381E+03 -6.86810E+03 -6.63041E+03 -5.47703E+02 -1.36112E+04  9.16235E+03 -1.49925E+04
  1.90851E+04 -8.23257E+03  1.99255E+04  2.63182E+03  1.63321E+04  1.51864E+04  7.56924E+03  2.32007E+04
 -4.80536E+03  2.38935E+04 -1.44580E+04  1.62868E+04 -1.65044E+04  3.13235E+03 -1.24452E+04 -2.99208E+03
 -5.26682E+03 -4.88465E+03 -8.23689E+02  1.57289E+03 -2.57204E+03  3.04611E+03 -6.23753E+03  5.09477E+03
 -1.05605E+04 -6.35204E+02 -1.24715E+04 -9.73714E+03 -4.43339E+03 -1.56584E+04  4.74155E+03 -1.30817E+04
  1.06144E+04 -4.38636E+03  6.52846E+03  2.32249E+03  1.78181E+03  6.31147E+03 -5.23416E+03 -1.26764E+03
 -5.33798E+03 -7.51771E+03 -1.79933E+02 -1.15049E+04  6.20379E+03 -1.36394E+04  1.57720E+04 -6.60014E+03
  1.76563E+04  1.26554E+03  1.27391E+04  1.10732E+04  2.75016E+03  1.40838E+04 -7.51079E+03  1.16089E+04
 -9.24300E+03  2.76989E+03 -5.45733E+03 -1.49221E+03  8.30996E+01 -3.06470E+03  6.72370E+03 -2.28021E+03
  6.06030E+03  5.43449E+03  1.40723E+03  9.00018E+03 -7.47554E+03  9.26357E+03 -1.01309E+04  3.14654E+03
 -8.46364E+03 -4.11377E+03  6.84034E+02 -1.03408E+04  6.68008E+03 -6.04904E+03  6.31040E+03  2.67336E+03
  9.99383E+02  6.85853E+03 -5.54082E+03  7.57274E+03 -1.03666E+04  4.97580E+03 -8.22321E+03 -3.66566E+03
 -5.76614E+03 -1.05553E+04  3.09792E+03 -1.19519E+04  9.76614E+03 -8.38076E+03  1.30329E+04  1.19634E+03
  6.38517E+03  1.03559E+04 -5.56856E+02  1.12232E+04 -8.69034E+03  6.04370E+03 -9.74820E+03 -2.75730E+03
 -8.22382E+03 -6.80208E+03 -7.17908E+02 -8.00645E+03  4.56201E+03 -6.49857E+03  6.16211E+03 -4.28018E+03
  3.49899E+03  2.34893E+03  8.92227E+02  2.37409E+03 -3.24863E+02 -2.05665E+03  1.06035E+03 -4.29157E+03
  7.83525E+03 -3.00387E+03  1.02808E+04  1.17145E+03  1.16957E+04  7.32766E+03  8.18107E+03  1.43543E+04
 -1.42247E+03  1.65986E+04 -1.32991E+04  1.26887E+04 -1.80712E+04  1.04548E+03 -1.31069E+04 -6.78845E+03
 -7.48446E+03 -1.21802E+04  5.89505E+01 -1.01907E+04  4.08552E+03 -5.45658E+03  3.24915E+03 -4.29244E+03
  4.32665E+03 -2.25842E+03  2.74160E+03 -3.08047E+03  3.41278E+03 -1.13345E+03  7.60587E+03  9.73766E+02
  8.24422E+03  1.23988E+03  3.89957E+03  6.14796E+03 -1.59694E+03  6.48412E+03 -8.16928E+03  4.60129E+03
 -9.27377E+03 -1.81065E+03 -6.43549E+03 -7.21596E+03 -1.88985E+02 -1.07904E+04  6.10195E+03 -1.04515E+04
  1.06907E+04 -6.87098E+03  1.28503E+04  1.80283E+03  1.02397E+04  8.22384E+03  1.30261E+03  1.17888E+04
 -3.86892E+03  9.56641E+03 -4.75403E+03  3.49731E+03 -5.34395E+03 -1.94571E+03 -2.31187E+03 -7.09522E+02
 -1.06277E+03 -2.01450E+02 -1.30718E+03  2.20923E+03 -5.23387E+03  1.90799E+03 -6.12404E+03 -2.03156E+03
 -4.40949E+03 -6.34696E+03  8.84777E+02 -9.72076E+03  5.49566E+03 -7.90189E+03  8.28621E+03 -3.70293E+03
  9.13904E+03  5.32416E+03  3.91316E+03  8.63410E+03 -2.31848E+03  9.31798E+03 -6.54834E+03  6.17886E+03
 -7.92841E+03  1.21648E+03 -5.91301E+03 -6.40699E+03 -1.46682E+03 -7.70370E+03  2.78883E+03 -4.54360E+03
  4.85319E+03 -1.28129E+03  3.48750E+03  1.22894E+03  6.65381E+02  3.00257E+03  9.35422E+02 -3.40469E+02
  2.62392E+03  1.48323E+03  1.42247E+03  6.89978E+02  3.05389E+03  3.17554E+03  2.10841E+03  4.17083E+03
 -2.29832E+03  6.83296E+03 -6.53566E+03  7.46659E+03 -7.06877E+03  2.26825E+03 -1.00681E+04 -3.58024E+03
 -4.66197E+03 -9.21632E+03 -7.34614E+02 -1.05475E+04  4.92869E+03 -5.87932E+03  7.56169E+03 -6.29532E+02
  5.21576E+03  3.85762E+03  1.54665E+03  3.95505E+03 -2.19028E+03  3.35462E+03 -3.67780E+03 -1.72695E+02
 -1.13311E+03 -4.16561E+03  1.15487E+03 -3.36088E+03  1.97495E+03 -2.28576E+03  2.83717E+03  1.01825E+03
  3.70688E+03  1.51488E+03  1.70593E+03  4.16912E+02 -1.20659E+03  1.12784E+03  2.27811E+03 -1.93114E+03
  5.04173E+02  4.21023E+02  4.27450E+03  1.29523E+03  1.58908E+03  4.61480E+03 -7.64946E+02  7.10916E+03
 -3.73124E+03  3.15848E+03 -3.71515E+03  2.39338E+03 -5.72238E+03 -7.11397E+02 -2.12893E+03 -2.19155E+03
  5.53841E+02 -3.70490E+03  2.79258E+03 -4.18716E+02  1.48640E+03  8.44666E+02 -1.71976E+03  1.98081E+03
 -3.56794E+03  9.21606E+02 -2.57635E+03 -9.51336E+02 -1.34649E+03 -6.09551E+03  1.01031E+03 -4.81735E+03
  2.65633E+03 -8.33363E+02  3.18213E+03 -4.64535E+02  2.94906E+03  7.47112E+02  5.72865E+02  3.27366E+03
 -1.55387E+03  1.45197E+03 -2.80699E+03 -1.46113E+01  2.24251E+03 -2.81770E+03  3.94000E+03 -2.89845E+03
  5.47545E+03  3.00057E+02  6.87925E+03  3.62717E+03  1.20778E+03  4.83998E+03 -2.11954E+03  4.30706E+03
 -5.00800E+03  1.61275E+03 -4.25837E+03  7.13690E+01 -2.35671E+03 -2.53275E+03  9.86666E+02 -3.30145E+03
  4.60243E+03 -1.40804E+03  3.02234E+03  1.86344E+03  1.43241E+03  2.26782E+03 -1.93833E+02  2.78632E+03
 -1.42120E+03  2.11737E+03 -1.31806E+02  5.17372E+02 -5.50782E+02  3.18357E+02 -1.88510E+03  1.12899E+03
 -2.00443E+03  1.73639E+03 -3.03382E+03  2.34684E+03 -4.33336E+03 -9.44051E+02 -5.74236E+03 -3.83514E+03
 -2.53630E+03 -6.08236E+03  1.92842E+03 -6.85570E+03  2.94508E+03 -5.14792E+03  8.25022E+03 -2.15644E+03
  4.39775E+03  1.62941E+02  4.01001E+03  3.75744E+03  7.60517E+02  4.75407E+03 -1.86239E+03  4.62657E+03
 -4.29643E+03  1.29269E+03 -7.36906E+02  1.31057E+03 -1.06214E+03  1.10376E+02 -4.89195E+02  3.48677E+02
 -4.06324E+02 -3.04663E+02 -2.15768E+03 -2.02895E+02  1.14381E+02 -1.02461E+03 -5.59635E+02 -1.29189E+03
  3.55369E+03 -1.90428E+03  1.76525E+03  2.07399E+02  3.80372E+03  3.03062E+03  2.51551E+02  5.82285E+03
 -2.90342E+03  7.22138E+03 -6.20350E+03  3.32034E+03 -6.35936E+03 -5.36343E+02 -5.43842E+03 -4.48344E+03
 -3.05069E+03 -4.08338E+03  5.63863E+02 -3.33919E+03  3.00716E+03 -2.68022E+03  3.83467E+03 -3.96193E+02
  6.69329E+02  1.04944E+03 -5.18708E+02  1.92580E+03 -8.64467E+02 -7.20608E+02 -9.97833E+02 -1.81852E+03
 -2.17245E+02 -2.32150E+02  1.96918E+03  5.58659E+02  1.20772E+03  2.28957E+03  2.81309E+02  2.43699E+03
 -1.34497E+03  1.89123E+03 -3.00549E+03 -2.55731E+02 -3.19746E+03 -2.13279E+03  1.52633E+03 -4.27282E+03
  3.01517E+03 -3.96151E+03  3.52380E+03 -2.49074E+03  4.21472E+03  1.95386E+03  1.52926E+03  3.05641E+03
  1.91610E+03  2.78667E+03 -4.54657E+02  2.77312E+03 -2.59817E+03  2.62528E+03 -1.07904E+03  9.76885E+02
 -2.23907E+03  2.05712E+02 -3.58294E+02  3.19967E+02 -3.92406E+02  2.64930E+02 -3.72861E+03 -3.52457E+02
 -2.35165E+03 -3.70618E+02 -4.50450E+02 -3.38839E+03  2.28258E+03 -2.98979E+03  1.86273E+03 -2.21368E+03
  1.42372E+03 -5.05320E+01  1.86474E+03  1.94142E+03 -9.77258E+02  3.39280E+03 -3.79962E+03  1.69254E+03
