 $NMID ID='MM_0lb_SNR200_10hz_g55_9.RAW', FMTDAT='(8E13.5)'
 TRAMP=1., VOLUME=1. $END
  3.08873E+05  2.13314E+02  3.38549E+05  2.50739E+05  8.46887E+04  3.38875E+05 -1.30166E+05  2.51803E+05
 -1.91626E+05  8.31539E+04 -1.12554E+05 -3.30702E+04  2.64212E+02 -5.05285E+04  5.25430E+04 -4.76075E+02
  3.43810E+04  5.34096E+04 -1.71022E+04  7.57606E+04 -6.06790E+04  6.34365E+04 -8.64584E+04  3.11973E+04
 -8.10487E+04 -1.14440E+04 -5.73856E+04 -5.15372E+04 -1.52090E+04 -7.06904E+04  2.73391E+04 -4.64648E+04
  3.99967E+04  3.43886E+03  1.67254E+04  4.80577E+04 -3.50606E+04  4.85145E+04 -6.86780E+04 -7.48019E+02
 -5.61413E+04 -5.99940E+04 -5.99055E+03 -7.73193E+04  3.38760E+04 -5.68322E+04  4.93918E+04 -1.87467E+04
  4.57361E+04  1.26467E+04  3.40720E+04  2.51039E+04  1.57180E+04  3.04683E+04 -6.38994E+03  2.74579E+04
 -2.23146E+04  1.41337E+04 -1.78597E+04 -5.50318E+03  6.26013E+03 -8.20046E+03  2.35763E+04  1.39895E+04
  8.43785E+03  3.68140E+04 -3.22444E+04  3.76185E+04 -6.65182E+04  3.90312E+03 -5.93340E+04 -4.45332E+04
 -1.42395E+04 -6.54462E+04  4.33374E+04 -4.64390E+04  6.11283E+04 -2.30346E+03  3.55177E+04  3.44333E+04
 -4.76038E+03  3.93258E+04 -3.23608E+04  1.78613E+04 -3.27879E+04 -2.88216E+03 -1.98433E+04 -1.19956E+04
 -8.72003E+03 -1.52162E+04 -6.86229E+02 -2.16008E+04  9.25544E+03 -2.40186E+04  1.69420E+04 -1.39391E+04
  1.00819E+04  5.83259E+03 -1.06846E+04  1.35110E+04 -2.31621E+04 -6.45961E+03 -9.29117E+03 -3.71055E+04
  2.31740E+04 -4.77181E+04  5.07809E+04 -2.04760E+04  4.76397E+04  2.10454E+04  1.66526E+04  4.56648E+04
 -1.62251E+04  3.52547E+04 -2.75579E+04  3.72497E+03 -1.08503E+04 -2.92729E+04  2.08813E+04 -3.72421E+04
  4.46526E+04 -1.09460E+04  4.06814E+04  2.41477E+04  1.96293E+04  4.98282E+04 -6.83647E+03  5.52360E+04
 -3.45939E+04  3.83699E+04 -4.58024E+04  9.70305E+03 -4.60352E+04 -1.77715E+04 -2.63184E+04 -4.16836E+04
  6.48624E+03 -4.14774E+04  3.51902E+04 -1.46694E+04  3.26260E+04  1.08419E+04  4.26846E+03  1.97798E+04
 -1.39989E+04  1.04588E+04 -1.07554E+04 -8.09770E+03  5.82197E+03 -1.06002E+04  1.90798E+04  4.51430E+03
  1.53895E+04  2.34067E+04 -5.29487E+03  2.64135E+04 -2.27326E+04  1.40456E+04 -2.98258E+04 -2.37317E+03
 -2.53274E+04 -1.82368E+04 -1.04156E+04 -2.39387E+04  5.01679E+03 -2.47766E+04  1.96605E+04 -2.43215E+04
  3.15250E+04 -1.46038E+04  3.91450E+04  4.31254E+03  2.62403E+04  2.19414E+04  5.34397E+03  4.09470E+04
 -1.84426E+04  3.45958E+04 -3.08670E+04  1.16739E+04 -2.24135E+04 -9.06055E+03 -5.00958E+03 -1.17573E+04
  1.98573E+03 -1.67153E+03 -7.52254E+03  8.15789E+03 -2.02387E+04  5.48245E+03 -1.88529E+04 -8.02506E+03
 -1.11845E+04 -2.27335E+04  5.80434E+03 -2.78817E+04  1.88056E+04 -1.85240E+04  2.15714E+04 -1.05246E+03
  1.42645E+04  1.45538E+04 -3.04877E+03  2.16614E+04 -1.48566E+04  1.22159E+04 -2.59328E+04 -4.83172E+03
 -1.69088E+04 -1.98953E+04 -2.69365E+03 -2.67648E+04  1.29306E+04 -2.29666E+04  2.38166E+04 -1.23755E+04
  2.11911E+04 -1.13463E+02  1.40647E+04  6.05455E+03  8.31715E+03  2.84204E+03  1.31485E+04  2.75782E+02
  2.14503E+04  3.32987E+03  2.47738E+04  1.82446E+04  1.70811E+04  3.64552E+04 -3.63415E+03  4.44920E+04
 -2.43251E+04  3.51896E+04 -4.01685E+04  1.85549E+04 -4.26689E+04 -3.77854E+03 -3.53900E+04 -2.45237E+04
 -1.46091E+04 -3.69083E+04  1.30981E+04 -3.20939E+04  2.92082E+04 -1.49730E+04  2.27725E+04  9.22005E+03
  7.90905E+03  1.70156E+04 -9.69099E+03  1.51264E+04 -1.91899E+04  2.07492E+03 -1.59169E+04 -1.37404E+04
 -8.86755E+02 -1.99625E+04  1.04611E+04 -1.33476E+04  1.39011E+04 -1.03694E+03  2.99179E+03  9.63961E+03
 -8.49249E+03  6.83390E+03 -9.11262E+03 -7.06047E+03 -1.15133E+03 -1.77576E+04  1.35613E+04 -1.81167E+04
  2.36311E+04 -9.92985E+03  2.40371E+04  1.53808E+03  2.12949E+04  1.59933E+04  9.57285E+03  2.79039E+04
 -6.39625E+03  3.00690E+04 -1.92886E+04  1.88535E+04 -2.28136E+04  4.65287E+03 -1.48632E+04 -5.92889E+03
 -5.32637E+03 -7.64645E+03 -8.46551E+02  9.98426E+02 -2.79993E+03  4.38858E+03 -8.69696E+03  6.95708E+03
 -1.37675E+04 -1.19991E+03 -1.40039E+04 -1.19487E+04 -5.23834E+03 -1.86422E+04  5.68741E+03 -1.45102E+04
  1.06975E+04 -6.60441E+03  8.46205E+03  4.33351E+03 -1.49002E+03  6.75350E+03 -6.78604E+03 -1.79575E+02
 -8.15825E+03 -9.12269E+03 -1.56760E+03 -1.53928E+04  7.90925E+03 -1.63610E+04  1.98154E+04 -8.64302E+03
  2.24353E+04  1.99616E+03  1.52873E+04  1.27793E+04  1.88330E+03  2.04782E+04 -9.95006E+03  1.41662E+04
 -1.31583E+04  3.87787E+03 -6.11652E+03 -3.26989E+03  1.72906E+03 -4.10412E+03  8.53392E+03 -1.12745E+03
  7.93951E+03  4.94239E+03  2.56729E+03  1.20890E+04 -8.49214E+03  1.12754E+04 -1.52520E+04  2.29804E+03
 -1.02565E+04 -9.74523E+03 -1.51350E+03 -1.29368E+04  8.16974E+03 -6.45255E+03  1.05725E+04  1.81653E+03
  1.97141E+03  8.79642E+03 -7.53500E+03  1.13020E+04 -1.27617E+04  4.36201E+03 -1.20305E+04 -3.71854E+03
 -8.50483E+03 -1.39062E+04  2.90321E+03 -1.65732E+04  1.52618E+04 -1.13945E+04  1.60894E+04  2.06344E+03
  8.64845E+03  1.30857E+04 -1.05650E+03  1.46642E+04 -1.14204E+04  8.75370E+03 -1.10522E+04 -5.50592E+02
 -1.06375E+04 -1.09566E+04 -2.97187E+03 -1.12392E+04  6.30613E+03 -8.73722E+03  6.93853E+03 -2.75194E+03
  6.75179E+03  7.12933E+02 -1.51560E+03  2.04283E+03 -1.21991E+03 -3.96598E+03  2.95603E+03 -7.18779E+03
  1.06961E+04 -4.12414E+03  1.43889E+04 -8.55819E+01  1.34288E+04  1.10656E+04  1.03738E+04  1.94097E+04
 -3.41424E+03  2.25715E+04 -1.89203E+04  1.67454E+04 -2.48296E+04  3.11492E+03 -2.03756E+04 -7.93627E+03
 -9.81565E+03 -1.59831E+04 -1.68297E+03 -1.33733E+04  4.03964E+03 -8.84242E+03  4.18531E+03 -6.03420E+03
  4.36840E+03 -3.81725E+03  3.32160E+03 -2.51674E+03  5.86324E+03 -3.37983E+03  7.35520E+03 -2.11515E+03
  1.07998E+04  4.74072E+02  6.25379E+03  8.93464E+03 -2.36013E+03  9.99115E+03 -1.11058E+04  7.70555E+03
 -1.35520E+04 -6.74993E+02 -9.04627E+03 -1.01891E+04  1.11311E+03 -1.54848E+04  7.70839E+03 -1.45638E+04
  1.49374E+04 -8.38337E+03  1.75945E+04  2.92118E+03  1.19017E+04  1.27469E+04  5.30015E+02  1.52635E+04
 -7.08057E+03  1.21488E+04 -9.55926E+03  4.69795E+03 -7.58423E+03 -1.57521E+03 -2.36788E+03 -1.56927E+03
 -2.49447E+03 -5.69790E+02 -2.30468E+03  3.29619E+03 -6.54300E+03  2.32433E+03 -9.33576E+03 -2.05880E+03
 -5.58369E+03 -9.32687E+03 -6.79160E+02 -1.36017E+04  7.69858E+03 -1.21746E+04  1.39583E+04 -3.77710E+03
  1.30353E+04  7.13137E+03  6.68206E+03  1.32954E+04 -4.92366E+03  1.39077E+04 -1.17395E+04  9.07224E+03
 -1.32141E+04  1.66298E+02 -1.12181E+04 -8.50691E+03 -1.04516E+03 -9.36761E+03  6.00542E+03 -8.80168E+03
  8.40420E+03 -2.37421E+03  6.74174E+03  3.14933E+03  1.81649E+03  1.68280E+03  1.17135E+03  1.75201E+03
  2.69430E+03  8.44863E+02  5.07178E+03  1.94632E+03  3.22629E+03  5.63806E+03  3.40173E+03  8.73977E+03
 -3.41488E+03  1.13065E+04 -8.98365E+03  9.80509E+03 -1.52614E+04  4.16220E+03 -1.30945E+04 -7.50936E+03
 -8.21068E+03 -1.30107E+04  2.54381E+03 -1.61662E+04  7.48792E+03 -9.73104E+03  1.16921E+04 -4.43087E+03
  9.45858E+03  6.07003E+03  1.52687E+03  7.25078E+03 -3.33022E+03  5.23947E+03 -3.88304E+03  2.11045E+02
 -2.16738E+03 -4.63493E+03  3.10894E+03 -3.50835E+03  5.13224E+03 -2.81092E+03  4.50013E+03  2.84437E+02
  3.77144E+03  1.27600E+03  2.19063E+03  2.88219E+03 -1.62608E+03  1.58922E+03  2.34119E+03 -2.01261E+03
  1.04606E+03 -4.37565E+02  5.83219E+03  9.66631E+02  3.59464E+03  7.78863E+03 -1.70516E+03  1.12670E+04
 -8.92182E+03  7.74793E+03 -9.43117E+03  2.09133E+03 -7.74000E+03 -3.35597E+03 -2.58530E+03 -4.50725E+03
  2.30339E+03 -5.44407E+03  3.08692E+03 -2.53622E+03  8.52836E+02  1.51390E+03 -1.71185E+03  4.46820E+03
 -5.04950E+03  4.38489E+03 -6.46584E+03 -4.32443E+03 -3.81999E+03 -8.68380E+03  1.51534E+03 -9.18484E+03
  5.87050E+03 -5.08196E+03  4.57769E+03 -1.21874E+03  4.77325E+03  9.94773E+02  4.04290E+02  4.40566E+03
 -2.61588E+03 -1.21406E+02 -3.20462E+03 -3.21349E+03  8.52561E+01 -5.93085E+03  5.76455E+03 -5.18336E+03
  6.98098E+03  1.27730E+03  9.20556E+03  4.56361E+03  1.32166E+03  8.85658E+03 -3.78483E+03  8.50589E+03
 -6.98931E+03  4.44359E+03 -7.27679E+03  4.84899E+02 -5.39851E+03 -6.25515E+03  1.98660E+03 -5.20861E+03
  6.45562E+03 -1.92917E+03  4.60690E+03  2.40238E+03  3.97275E+02  6.40266E+03 -1.87452E+03  4.13313E+03
 -2.92862E+03  3.06526E+03 -2.79647E+03  1.37016E+03 -1.65622E+03  2.37529E+02 -4.71098E+02  2.80680E+03
 -3.47544E+02  3.64731E+03 -6.41170E+03  3.39276E+03 -7.99018E+03  7.23165E+02 -1.00964E+04 -5.23686E+03
 -6.59230E+03 -1.20723E+04  2.84876E+03 -1.28996E+04  7.99389E+03 -1.20370E+04  1.41698E+04 -4.45819E+03
  1.07056E+04  2.86118E+03  7.25829E+03  7.67486E+03  5.47895E+02  1.08144E+04 -3.69738E+03  5.46247E+03
 -5.09911E+03  2.05189E+03 -3.25419E+03 -1.64167E+03  1.19923E+02 -8.88189E+02 -1.00336E+03  3.72527E+02
 -1.41633E+03  7.77090E+02 -3.89692E+03 -4.95752E+02 -3.65491E+02 -1.44735E+03 -1.36929E+03 -2.96828E+03
  5.64980E+03 -2.03141E+03  5.61795E+03  6.56208E+02  5.40373E+03  3.13420E+03  5.16138E+02  9.42083E+03
 -4.60500E+03  1.22225E+04 -8.99260E+03  7.21483E+03 -1.04142E+04 -8.29253E+02 -8.54067E+03 -5.06803E+03
 -4.29596E+03 -9.64684E+03  3.61949E+03 -9.09732E+03  5.80562E+03 -3.17846E+03  6.22898E+03  9.47843E+02
  2.49286E+03  3.24032E+03 -5.97515E+02  2.75921E+03 -3.31777E+02 -3.47652E+02 -3.21838E+02 -3.26364E+03
  3.05662E+03 -1.39583E+03  3.50015E+03  1.40956E+03  1.62440E+03  2.65725E+03  1.96309E+02  4.92403E+03
 -3.79102E+03  5.76626E+03 -4.78166E+03  8.71089E+02 -5.36922E+03 -5.80837E+03 -2.30166E+03 -5.85218E+03
  5.42551E+03 -7.13160E+03  7.08515E+03 -1.55529E+03  6.93847E+03  2.46627E+03  4.59703E+03  6.13289E+03
 -1.10710E+02  7.08116E+03 -2.86803E+03  4.69888E+03 -5.28604E+03  3.79956E+03 -3.22397E+03 -9.71346E+02
 -1.21905E+03  1.77685E+03 -1.83558E+03  2.45916E+03 -1.60748E+03  2.32422E+03 -4.60656E+03 -6.72072E+02
 -3.79298E+03 -2.10382E+03 -2.16356E+03 -5.47838E+03  2.92532E+03 -7.09049E+03  4.01964E+03 -3.70981E+03
  5.97633E+03  6.49993E+02  2.53094E+03  4.46793E+03 -2.26819E+03  7.08877E+03 -3.94060E+03  3.37305E+03
