 $NMID ID='MM_0lb_SNR200_18hz_g40_6.RAW', FMTDAT='(8E13.5)'
 TRAMP=1., VOLUME=1. $END
  3.09449E+05  7.85380E+01  3.37983E+05  2.50792E+05  8.41833E+04  3.38082E+05 -1.31659E+05  2.49748E+05
 -1.89712E+05  8.20880E+04 -1.09727E+05 -3.36137E+04  1.62290E+03 -4.98905E+04  5.45987E+04  5.13332E+00
  3.51156E+04  5.29595E+04 -1.70044E+04  7.50769E+04 -6.01744E+04  6.24129E+04 -8.25742E+04  3.13571E+04
 -7.98467E+04 -1.02055E+04 -5.65052E+04 -4.93546E+04 -1.46564E+04 -6.76668E+04  2.64188E+04 -4.41226E+04
  3.92892E+04  4.34325E+03  1.52684E+04  4.59632E+04 -3.40166E+04  4.62484E+04 -6.63433E+04 -5.54125E+02
 -5.31250E+04 -5.60729E+04 -5.46793E+03 -7.50216E+04  3.25896E+04 -5.27546E+04  4.62302E+04 -1.48159E+04
  4.17622E+04  1.12531E+04  3.00058E+04  2.31287E+04  1.56844E+04  2.70235E+04 -4.56753E+03  2.59904E+04
 -2.30512E+04  1.39575E+04 -1.94521E+04 -3.88604E+03  4.41365E+03 -7.52513E+03  2.11283E+04  1.13710E+04
  8.43947E+03  3.23907E+04 -2.99568E+04  3.36084E+04 -6.02488E+04  2.95102E+03 -5.49511E+04 -4.15039E+04
 -1.35347E+04 -6.13322E+04  3.82860E+04 -4.26765E+04  5.48536E+04 -1.62004E+03  3.10698E+04  2.99317E+04
 -6.38153E+03  3.32701E+04 -2.86107E+04  1.28691E+04 -2.68333E+04 -4.73418E+03 -1.33248E+04 -1.05446E+04
 -7.54968E+03 -1.09124E+04 -1.76327E+03 -1.59453E+04  6.13167E+03 -2.25517E+04  1.41589E+04 -1.37632E+04
  1.21127E+04  4.34273E+03 -5.99445E+03  1.25368E+04 -1.98217E+04 -2.07132E+03 -8.20260E+03 -2.98931E+04
  2.12161E+04 -3.96398E+04  4.34899E+04 -1.82705E+04  4.26880E+04  1.88313E+04  1.50069E+04  4.09826E+04
 -1.47752E+04  3.11112E+04 -2.32132E+04  1.10190E+03 -9.11673E+03 -2.54527E+04  2.06053E+04 -3.08948E+04
  3.76338E+04 -7.20167E+03  3.18889E+04  2.27106E+04  1.59797E+04  4.17035E+04 -8.02881E+03  4.49083E+04
 -2.77237E+04  2.91991E+04 -3.78082E+04  8.24541E+03 -3.80124E+04 -1.49217E+04 -2.09935E+04 -3.46064E+04
  7.02005E+03 -3.45742E+04  2.92462E+04 -1.18568E+04  2.65597E+04  1.11429E+04  3.60400E+03  1.79847E+04
 -1.34508E+04  7.87659E+03 -1.04631E+04 -6.78570E+03  5.98672E+03 -1.01355E+04  1.77031E+04  7.17591E+03
  1.19780E+04  2.15570E+04 -6.23705E+03  2.34121E+04 -2.11681E+04  8.59394E+03 -2.53243E+04 -5.23088E+03
 -1.74618E+04 -1.65502E+04 -4.93262E+03 -1.59079E+04  3.53871E+03 -1.44756E+04  1.24325E+04 -1.45642E+04
  2.10658E+04 -1.15046E+04  2.81592E+04  2.26836E+03  2.16238E+04  1.67763E+04  4.57876E+03  3.21109E+04
 -1.63459E+04  2.80026E+04 -2.63104E+04  9.51405E+03 -1.86988E+04 -9.63798E+03 -4.16619E+03 -1.35532E+04
  2.75062E+03 -4.58388E+03 -1.79444E+03  5.64412E+03 -1.38714E+04  5.39745E+03 -1.34173E+04 -4.73648E+03
 -8.41070E+03 -1.52096E+04  4.18892E+03 -1.87740E+04  1.29253E+04 -1.38116E+04  1.47024E+04 -1.94037E+03
  7.96747E+03  1.06325E+04 -1.13847E+03  1.55996E+04 -1.12803E+04  8.36052E+03 -1.56316E+04 -3.43085E+03
 -1.07877E+04 -1.38689E+04 -1.30500E+03 -1.85867E+04  7.92163E+03 -1.41532E+04  1.58780E+04 -6.60978E+03
  1.50064E+04  5.90977E+02  1.07883E+04  3.38306E+03  5.04682E+03  1.03276E+03  7.47433E+03 -1.07864E+03
  1.50558E+04  2.43433E+03  1.43067E+04  1.19565E+04  8.99782E+03  2.42224E+04 -3.20639E+03  2.71901E+04
 -1.55484E+04  1.87733E+04 -2.37951E+04  9.88852E+03 -2.39314E+04 -1.21562E+03 -2.06964E+04 -1.45587E+04
 -1.01596E+04 -1.95456E+04  6.89741E+03 -1.87864E+04  1.67726E+04 -1.08363E+04  1.61639E+04  4.30528E+03
  4.96742E+03  1.18110E+04 -7.65370E+03  1.01157E+04 -1.31809E+04  1.96758E+03 -1.05631E+04 -7.11642E+03
 -1.15095E+03 -1.36496E+04  5.85288E+03 -8.25332E+03  8.63212E+03 -1.31385E+03  1.88105E+03  5.02909E+03
 -6.03260E+03  6.87321E+02 -3.17908E+03 -5.14431E+03  1.36502E+03 -9.08078E+03  8.81284E+03 -1.08440E+04
  1.11842E+04 -4.02147E+03  1.21860E+04  1.73381E+03  1.09328E+04  7.97100E+03  4.37194E+03  1.47706E+04
 -1.00010E+03  1.61475E+04 -9.73141E+03  9.58864E+03 -1.00797E+04  2.54861E+03 -8.19351E+03 -1.66752E+03
 -4.60959E+03 -2.81391E+03 -8.91832E+02  2.96610E+03 -2.18524E+03  2.32859E+03 -4.15899E+03  2.86149E+03
 -8.80313E+03  7.35649E+01 -8.76473E+03 -6.94266E+03 -2.96357E+03 -1.16887E+04  3.42103E+03 -8.24052E+03
  6.69842E+03 -4.54634E+03  5.47564E+03  2.89806E+03  4.70613E+02  2.76121E+03 -3.27326E+03 -4.21022E+02
 -3.67561E+03 -5.74497E+03 -1.58459E+03 -8.02847E+03  4.89952E+03 -7.21266E+03  1.05496E+04 -3.96043E+03
  1.19596E+04  1.05513E+03  8.85529E+03  6.66009E+03  1.30971E+03  8.93389E+03 -4.31945E+03  7.86417E+03
 -7.01724E+03  1.96772E+03 -3.68000E+03 -8.31637E+02  7.72438E+02 -1.51641E+03  4.22138E+03 -5.14768E+02
  5.27227E+03  3.13399E+03  7.63404E+02  5.83465E+03 -4.87721E+03  5.41618E+03 -8.09070E+03  2.64076E+03
 -5.13564E+03 -2.90214E+03 -2.43517E+01 -6.92559E+03  2.62182E+03 -3.31974E+03  4.25633E+03  1.20054E+03
 -2.17835E+01  3.49259E+03 -4.07987E+03  5.19750E+03 -5.01759E+03  1.36367E+03 -4.97320E+03 -1.15966E+03
 -2.75948E+03 -6.56961E+03  1.35670E+03 -6.45178E+03  6.28374E+03 -4.64805E+03  6.05335E+03  1.78141E+03
  3.83319E+03  6.20656E+03  1.74565E+02  6.70375E+03 -4.94850E+03  4.48704E+03 -5.15201E+03 -9.55030E+02
 -5.76435E+03 -5.52867E+03 -1.15077E+03 -5.17441E+03  2.68999E+03 -5.15534E+03  3.33842E+03 -2.41069E+03
  3.44616E+03  1.13875E+03  3.46038E+01  1.41060E+03  4.87874E+02 -7.11624E+02 -1.99960E+02 -1.78782E+03
  3.21151E+03  4.42122E+02  5.09816E+03  8.24527E+02  5.97052E+03  2.78799E+03  4.99953E+03  7.28019E+03
 -2.46021E+03  8.67106E+03 -8.31670E+03  6.86795E+03 -1.04780E+04  5.45795E+02 -8.15097E+03 -3.35539E+03
 -4.42294E+03 -5.89703E+03 -1.26747E+03 -5.51742E+03  2.49576E+03 -3.04031E+03  1.99634E+03 -2.99056E+03
  1.56648E+03 -1.80537E+03  1.13043E+03 -2.23277E+03  4.54058E+03 -9.35835E+02  3.96821E+03  9.81993E+02
  4.05778E+03  1.61974E+03  1.20595E+03  3.38542E+03 -1.60982E+03  3.45754E+03 -5.16026E+03  2.68963E+03
 -4.31612E+03 -1.63211E+03 -1.86541E+03 -2.89106E+03  1.48845E+03 -4.73819E+03  4.09427E+03 -4.72406E+03
  4.69750E+03 -3.59356E+03  6.01026E+03 -4.52511E+02  5.96342E+03  3.63444E+03  1.56515E+03  6.55224E+03
 -2.38550E+03  5.80929E+03 -2.78908E+03  1.79950E+03 -2.13933E+03 -1.33235E+03  1.05230E+03 -2.83256E+02
  1.54371E+02  2.05786E+02 -1.02420E+03  2.25559E+03 -3.31743E+03  1.79017E+03 -5.12617E+03  5.30515E+02
 -1.53368E+03 -3.36725E+03  8.37770E+02 -3.97837E+03  3.57884E+03 -5.31137E+03  3.00112E+03 -1.01136E+03
  4.04163E+03  2.87488E+03  1.83591E+03  3.45604E+03 -8.65614E+02  4.75221E+03 -2.17943E+03  3.24843E+03
 -4.27231E+03  1.52910E+03 -2.99691E+03 -2.41947E+03 -3.17401E+02 -2.19579E+03  2.61482E+03 -3.29906E+03
  2.79062E+03 -1.63124E+03  2.14162E+03  4.94360E+02  5.62209E+02  6.42863E+02  7.46384E+02  2.25380E+02
  1.47982E+03  3.70515E+02  1.84431E+03  7.47983E+02  1.85548E+03  2.73967E+03  1.17242E+03  1.01459E+03
 -1.09983E+03  1.90903E+03 -3.01792E+03  3.84538E+03 -3.21056E+03  1.37685E+03 -4.38199E+03  4.08911E+02
 -2.09904E+03 -2.98987E+03 -1.27245E+02 -4.98820E+03  1.90736E+03 -3.68453E+03  2.31426E+03 -1.29162E+02
  2.04121E+03  2.20399E+03  5.13903E+02  1.99041E+03 -4.09024E+02  4.16953E+02 -1.80566E+03  6.34925E+02
 -2.09406E+03 -1.89041E+03  1.97492E+03 -1.08157E+03  1.37873E+03 -5.36035E+02  1.00382E+03  1.07630E+02
  7.53424E+02  7.73116E+02  3.65959E+02 -3.15951E+02 -1.05015E+02  6.11204E+01  9.94083E+02 -8.02639E+02
  7.40823E+02  2.12255E+02  1.39189E+03  6.54255E+02 -5.33629E+02  1.98285E+03 -2.65624E+02  3.39442E+03
 -2.29696E+03  1.74125E+03 -2.12027E+03  6.69500E+02 -1.87608E+03  9.22703E+02 -1.47157E+02 -9.67189E+02
  3.58315E+02 -1.74512E+03  1.39417E+03 -6.74021E+02  6.98364E+01  1.20513E+03 -7.40659E+02  1.68991E+03
 -4.57479E+02  1.41164E+03 -9.46334E+02 -1.68541E+03 -5.03368E+02 -2.32868E+03  1.21340E+03 -1.89707E+03
  1.25456E+02 -8.41462E+02  1.05991E+03 -1.24650E+01  7.55477E+02 -8.14158E+02  6.46670E+02  5.48216E+02
  2.94801E+02 -1.00028E+03 -1.03721E+03 -6.34333E+02  7.06155E+02 -4.04620E+02  2.16115E+03 -1.17038E+03
  3.02282E+02  3.56944E+02  2.28885E+03  2.26859E+03  6.42687E+02  2.09487E+03  2.10815E+02  2.67129E+03
 -1.12662E+03  1.30047E+02 -1.87941E+03  7.43449E+02 -7.01147E+02 -1.03239E+03  1.14644E+03 -6.18161E+02
  1.64060E+03 -8.19670E+01  5.37066E+02  6.05515E+02  2.93300E+02  1.56218E+03  9.53597E+01  8.73167E+02
 -2.41408E+02  1.49540E+03  3.84990E+02  4.51360E+02 -2.31606E+02  4.56314E+02 -7.23317E+02  1.54480E+02
  4.25195E+02  2.30478E+03 -1.85343E+03  2.23429E+01 -2.79903E+03  7.30948E+01 -3.07373E+03 -1.53467E+03
 -1.55235E+03 -2.31733E+03  4.97778E+02 -3.41031E+03  1.46180E+03 -3.62657E+03  2.22388E+03 -5.00059E+02
  2.62322E+03 -1.18272E+02  1.82024E+03  2.14710E+03 -3.69920E+02  1.32894E+03 -3.96961E+02  1.81140E+03
 -3.43548E+02  1.45946E+03 -1.03356E+03  2.47841E+01 -7.66230E+02  3.57451E+02 -6.47506E+02  1.41307E+01
 -7.74898E+02 -3.69656E+02 -3.16170E+02  3.69955E+02 -4.64012E+02 -1.26081E+03  9.81574E+01 -4.85262E+02
  1.00363E+03 -1.11885E+03  1.69927E+03  7.30408E+02  1.65981E+03  1.00196E+03  1.62335E+02  1.38004E+03
 -4.09886E+02  2.57572E+03 -1.35238E+03  5.26082E+02 -1.19259E+03  2.33263E+02 -8.43375E+02 -6.44290E+02
 -5.23337E+02 -1.54622E+03  4.47283E+02 -1.84279E+03  6.28093E+02 -1.27051E+03  4.48932E+02  1.32474E+03
  7.46389E+02  4.19007E+02  2.61139E+02  1.56215E+03 -2.02241E+02 -1.32010E+02 -1.37901E+02  1.40936E+02
  9.42322E+02 -1.19605E+03 -2.69690E+02  8.81553E+02  5.40776E+02 -1.12920E+02 -3.13786E+02 -2.95009E+02
 -1.72973E+03  1.02147E+03 -1.02974E+03 -5.59312E+02 -7.78415E+02 -6.07804E+02  8.14819E+02 -1.14380E+03
  1.34116E+03 -1.55880E+03  7.48963E+02 -2.70166E+02  2.13395E+03 -9.06203E+02 -1.67668E+00  5.53812E+02
  1.42848E+03  1.20477E+03 -5.03230E+02  5.27557E+02 -7.13759E+02  7.93871E+02 -4.37581E+02  2.85517E+02
 -1.25617E+01 -5.57469E+02 -6.89661E+02  3.16301E+02  4.68048E+02 -6.45645E+02 -8.55030E+02 -7.64897E+01
 -1.08616E+03 -6.04167E+02  7.80683E+01 -1.23988E+03 -7.47417E+01 -2.43152E+03 -1.87715E+02 -1.41700E+02
  1.73057E+03 -5.46280E+02  1.94238E+02  1.71690E+03 -1.08148E+03  1.09865E+03 -1.10172E+03  1.26535E+03
