 $NMID ID='MM_0lb_SNR200_14hz_g50_35.RAW', FMTDAT='(8E13.5)'
 TRAMP=1., VOLUME=1. $END
  3.09790E+05  5.07462E+02  3.37555E+05  2.50690E+05  8.48248E+04  3.37206E+05 -1.32993E+05  2.52118E+05
 -1.90634E+05  8.35826E+04 -1.12059E+05 -3.30148E+04  1.05491E+03 -5.18071E+04  5.41570E+04 -6.97037E+01
  3.59182E+04  5.20093E+04 -1.69724E+04  7.65268E+04 -6.03036E+04  6.33013E+04 -8.55653E+04  3.21719E+04
 -8.15645E+04 -1.19567E+04 -5.70585E+04 -5.07120E+04 -1.48884E+04 -6.93295E+04  2.68129E+04 -4.62939E+04
  3.96447E+04  3.84479E+03  1.76593E+04  4.75285E+04 -3.42296E+04  4.68363E+04 -6.72548E+04 -3.35510E+02
 -5.32904E+04 -5.79069E+04 -6.39732E+03 -7.66127E+04  3.27507E+04 -5.57530E+04  4.95758E+04 -1.94744E+04
  4.36168E+04  1.19929E+04  3.09790E+04  2.54614E+04  1.54738E+04  2.96657E+04 -4.98819E+03  2.72410E+04
 -2.22534E+04  1.36036E+04 -1.89274E+04 -5.16841E+03  4.53586E+03 -7.97602E+03  2.25459E+04  1.23302E+04
  6.46919E+03  3.60698E+04 -3.21069E+04  3.50543E+04 -6.34687E+04  1.95029E+03 -5.68772E+04 -4.37279E+04
 -1.31314E+04 -6.34969E+04  3.92447E+04 -4.45133E+04  5.73599E+04 -1.71269E+03  3.41538E+04  3.18189E+04
 -7.05179E+03  3.69130E+04 -2.93778E+04  1.64739E+04 -3.14372E+04 -3.63072E+03 -1.70402E+04 -1.08006E+04
 -9.37213E+03 -1.37435E+04 -1.41022E+03 -1.78960E+04  6.90809E+03 -2.43904E+04  1.66254E+04 -1.27966E+04
  1.15930E+04  6.32555E+03 -9.17650E+03  1.21784E+04 -2.17234E+04 -5.23261E+03 -9.48844E+03 -3.42708E+04
  2.25760E+04 -4.36252E+04  4.73088E+04 -2.03556E+04  4.59296E+04  1.90419E+04  1.53111E+04  4.38017E+04
 -1.58376E+04  3.50241E+04 -2.64151E+04  2.15460E+03 -1.05898E+04 -2.80616E+04  2.09478E+04 -3.42198E+04
  4.10659E+04 -8.02558E+03  3.57321E+04  2.30308E+04  1.80419E+04  4.62070E+04 -8.71956E+03  4.96864E+04
 -3.22618E+04  3.32966E+04 -4.21717E+04  9.69129E+03 -4.28690E+04 -1.71552E+04 -2.36964E+04 -3.87288E+04
  7.61838E+03 -3.79779E+04  3.07556E+04 -1.39975E+04  2.94856E+04  1.15289E+04  3.48694E+03  1.94459E+04
 -1.18879E+04  7.81774E+03 -1.03224E+04 -7.53271E+03  6.18592E+03 -1.12475E+04  1.90997E+04  5.58655E+03
  1.30480E+04  2.21215E+04 -6.74586E+03  2.53333E+04 -2.26165E+04  1.22710E+04 -2.76712E+04 -5.06187E+03
 -2.11668E+04 -1.76147E+04 -9.24002E+03 -1.94849E+04  3.27394E+03 -2.00530E+04  1.53475E+04 -1.81182E+04
  2.58407E+04 -1.16700E+04  3.27723E+04  4.66968E+03  2.35879E+04  1.98698E+04  4.32027E+03  3.73171E+04
 -1.79964E+04  3.07936E+04 -2.92040E+04  9.59042E+03 -1.90243E+04 -1.03165E+04 -3.42073E+03 -1.33871E+04
  2.39811E+03 -3.09334E+03 -5.80937E+03  7.16444E+03 -1.49366E+04  5.61265E+03 -1.66678E+04 -5.70270E+03
 -1.06850E+04 -1.78178E+04  6.18296E+03 -2.25176E+04  1.68906E+04 -1.69045E+04  1.83552E+04 -6.40573E+02
  1.06986E+04  1.25621E+04 -8.58128E+02  1.97738E+04 -1.31932E+04  1.10340E+04 -1.89341E+04 -3.42615E+03
 -1.40788E+04 -1.67968E+04 -1.92551E+03 -2.20132E+04  1.06204E+04 -1.91960E+04  1.94435E+04 -9.25911E+03
  1.87593E+04 -1.75564E+02  1.18866E+04  5.07287E+03  6.85901E+03  1.56842E+03  9.45101E+03 -8.03509E+02
  1.76152E+04  2.81006E+03  2.04950E+04  1.45112E+04  1.19712E+04  3.01043E+04 -2.32536E+03  3.40122E+04
 -1.87964E+04  2.79067E+04 -3.06126E+04  1.40038E+04 -3.38482E+04 -2.54234E+03 -2.70118E+04 -1.88085E+04
 -1.25338E+04 -2.78067E+04  9.42743E+03 -2.61202E+04  2.16435E+04 -1.30563E+04  1.96224E+04  5.61756E+03
  6.86922E+03  1.46510E+04 -9.74262E+03  1.22883E+04 -1.41113E+04  3.22443E+03 -1.22834E+04 -9.94454E+03
  4.48319E+02 -1.62344E+04  7.63138E+03 -1.11191E+04  1.08027E+04 -2.07362E+03  1.96445E+03  6.77078E+03
 -7.11728E+03  2.13345E+03 -6.02338E+03 -5.84806E+03 -1.76020E+03 -1.29540E+04  8.70536E+03 -1.37249E+04
  1.70289E+04 -7.21959E+03  1.99728E+04  3.62358E+03  1.61518E+04  1.30098E+04  7.18508E+03  2.14919E+04
 -3.18300E+03  2.22330E+04 -1.37539E+04  1.54765E+04 -1.52025E+04  3.43999E+03 -1.20107E+04 -3.77630E+03
 -4.70076E+03 -4.82242E+03 -1.65552E+03  1.39710E+02 -2.00748E+03  2.71620E+03 -4.72108E+03  3.49502E+03
 -1.09874E+04 -1.62388E+03 -1.17867E+04 -9.05762E+03 -4.78167E+03 -1.58737E+04  4.69002E+03 -1.18841E+04
  9.46166E+03 -5.48677E+03  7.33773E+03  1.93450E+03  2.52126E+02  4.80936E+03 -4.15181E+03  2.97897E+02
 -5.37225E+03 -6.19879E+03 -4.38165E+02 -1.04190E+04  7.28055E+03 -1.03902E+04  1.37778E+04 -6.95116E+03
  1.59430E+04  1.69344E+03  1.17535E+04  9.86751E+03  2.74565E+03  1.26434E+04 -6.28909E+03  1.09846E+04
 -9.13665E+03  3.18573E+03 -4.97384E+03 -2.20546E+03  1.75784E+03 -2.01017E+03  6.18331E+03 -1.45664E+03
  4.82651E+03  3.75786E+03  4.14863E+02  8.87245E+03 -6.13668E+03  7.77963E+03 -9.90418E+03  8.30335E+02
 -8.15893E+03 -4.92327E+03 -1.13054E+03 -9.72825E+03  5.01229E+03 -5.84902E+03  5.60205E+03  2.62483E+03
  2.60714E+03  6.33307E+03 -6.18467E+03  6.49490E+03 -8.75540E+03  3.17869E+03 -6.55013E+03 -3.14564E+03
 -4.41959E+03 -9.37442E+03  1.49330E+03 -1.15408E+04  1.02013E+04 -6.65791E+03  1.11266E+04  2.80292E+03
  6.22648E+03  8.39660E+03 -4.36185E+01  1.07303E+04 -7.70956E+03  6.25145E+03 -7.68216E+03 -1.51311E+03
 -7.08619E+03 -7.27581E+03 -1.33761E+03 -7.33517E+03  5.21159E+03 -7.19324E+03  5.37919E+03 -2.81888E+03
  3.08224E+03  8.11871E+02  1.38556E+02  1.56953E+03  5.30511E+02 -9.03514E+02  1.47194E+03 -3.44874E+03
  6.70778E+03 -1.51931E+03  1.00282E+04  1.36913E+03  8.05659E+03  5.42428E+03  6.36798E+03  1.25176E+04
 -2.25247E+03  1.40723E+04 -1.29677E+04  1.20805E+04 -1.50217E+04  1.63007E+03 -1.14885E+04 -5.86786E+03
 -5.58819E+03 -1.23046E+04  4.98436E+02 -9.23212E+03  4.58260E+03 -4.26155E+03  2.36366E+03 -2.89788E+03
  2.68436E+03 -1.40561E+03  4.26287E+03 -3.94858E+03  5.60290E+03 -2.41184E+03  5.38517E+03  2.72113E+03
  6.63572E+03  3.30957E+03  3.30568E+03  4.37578E+03 -1.91662E+03  5.68924E+03 -6.37559E+03  5.14793E+03
 -9.01734E+03 -7.99026E+02 -4.74832E+03 -5.87773E+03 -3.83153E+02 -8.57620E+03  5.43654E+03 -9.54189E+03
  8.52070E+03 -4.92914E+03  1.20116E+04  1.57666E+03  8.07270E+03  6.43575E+03  1.79466E+03  1.09831E+04
 -3.77501E+03  1.01036E+04 -5.16282E+03  3.88008E+03 -4.09870E+03 -1.67903E+03 -2.02892E+03 -6.02272E+01
 -2.21456E+03  9.98314E+02 -1.59888E+03  2.43771E+03 -4.14829E+03  5.56037E+02 -6.50749E+03  1.18746E+02
 -2.64852E+03 -6.10218E+03  1.04233E+02 -7.69017E+03  4.53566E+03 -7.66946E+03  6.89477E+03 -2.15721E+03
  7.78281E+03  3.47345E+03  3.15684E+03  7.46326E+03 -1.89420E+03  8.16563E+03 -5.66846E+03  5.83583E+03
 -8.00617E+03  8.94646E+02 -6.21152E+03 -4.41177E+03 -2.92632E+02 -7.12183E+03  4.19125E+03 -4.90751E+03
  4.67484E+03 -2.29886E+03  3.58288E+03  1.04126E+03  7.07942E+02  2.24476E+03  1.80590E+03  6.07797E+02
  1.35400E+03  1.37143E+03  1.34301E+03  1.49353E+03  3.83980E+03  1.74607E+03  1.93043E+03  4.60831E+03
 -2.00738E+03  5.69903E+03 -5.05537E+03  6.95080E+03 -6.15487E+03  2.56190E+03 -8.61764E+03 -1.22089E+03
 -4.33849E+03 -7.19111E+03  1.81901E+03 -8.28868E+03  4.91941E+03 -6.20658E+03  6.81301E+03 -1.95260E+03
  6.20547E+03  3.24919E+03  4.93528E+01  3.50678E+03 -5.11224E+02  1.21865E+03 -2.88463E+03  2.59392E+02
 -2.18155E+03 -3.43593E+03  7.72737E+02 -2.98976E+03  3.18765E+03 -1.46564E+03  3.92693E+03  5.88416E+02
  2.38563E+03  1.68515E+03 -1.16337E+02  7.75031E+02 -1.22639E+03  7.83833E+02  1.27875E+03 -1.98398E+02
  7.12932E+02  1.13713E+02  3.78832E+03  6.20103E+02  1.71578E+03  4.23999E+03 -7.72386E+01  5.82080E+03
 -2.21345E+03  3.15619E+03 -4.95593E+03  1.59383E+03 -4.55263E+03 -1.28720E+03 -1.77848E+02 -2.24889E+03
  1.71736E+02 -3.23351E+03  1.00128E+03 -2.04968E+03  1.11235E+03  2.13748E+03 -1.08098E+03  1.54793E+03
 -2.82672E+03  1.64472E+03 -3.25701E+03 -1.76971E+03 -1.04559E+03 -4.18799E+03 -9.31446E+01 -4.35508E+03
  1.92599E+03 -2.26168E+03  2.90478E+03  6.13588E+02  2.18324E+03  9.57116E+02  8.99085E+02  1.86723E+03
 -1.24784E+03  6.15175E+02 -1.38593E+03 -2.11438E+02  2.52117E+02 -2.87492E+03  3.53520E+03 -2.41425E+03
  3.47940E+03 -7.48585E+01  5.47684E+03  2.95907E+03  9.79113E+02  4.43777E+03 -1.31024E+03  3.96580E+03
 -3.70575E+03  2.54164E+03 -3.57273E+03 -8.60659E+02 -2.70553E+03 -2.28240E+03  5.79588E+02 -2.72595E+03
  2.74648E+03 -1.77429E+03  2.28772E+03  2.47721E+03  1.21482E+03  2.92790E+03  9.70026E+02  2.80536E+03
 -1.44344E+03  8.15829E+02 -1.01555E+03  2.77208E+03 -6.29437E+02 -1.28953E+03 -5.85498E+02  2.15048E+03
 -1.07273E+03  2.55296E+03 -3.19036E+03  2.55084E+03 -3.44407E+03  1.47958E+02 -4.81894E+03 -1.44884E+03
 -2.36386E+03 -5.76968E+03  1.09041E+03 -6.78751E+03  3.50027E+03 -5.42710E+03  6.36256E+03 -2.30205E+03
  4.81255E+03  8.81475E+02  2.97407E+03  3.49557E+03  1.14990E+03  3.20436E+03 -1.80292E+03  3.37793E+03
 -2.42858E+03  6.40663E+02 -1.20572E+03 -6.45252E+02 -1.01574E+03 -1.83529E+02 -1.82414E+03 -1.52135E+00
 -6.62015E+02 -4.73974E+02 -1.10234E+03  6.75603E+02  1.57328E+01 -2.18602E+03 -7.78564E+02 -1.87901E+03
  1.78962E+03 -2.12532E+03  2.61070E+03  8.26500E+02  1.48785E+03  2.36054E+03  3.81168E+02  4.49425E+03
 -2.95092E+03  4.61615E+03 -3.12194E+03  2.33319E+03 -4.81169E+03 -2.18575E+03 -2.39783E+03 -3.04834E+03
 -3.82605E+02 -4.77671E+03  1.31964E+03 -5.10426E+03  2.11075E+03 -1.88330E+03  2.37465E+03  6.52149E+02
  1.50816E+03  1.75625E+03 -4.90054E+02  1.86918E+03 -2.69285E+02 -5.57609E+02 -2.86807E+02 -1.18753E+03
  1.89093E+03 -9.43074E+02  7.70989E+02  5.56117E+02  1.85651E+03  1.55727E+03  6.67209E+02  1.98572E+03
 -1.43271E+03  1.65105E+03 -3.20555E+03  2.24099E+02 -2.66979E+03 -2.01071E+03 -2.78640E+02 -2.91585E+03
  1.52449E+03 -2.35115E+03  1.48343E+03 -1.41681E+03  3.37036E+03  2.77977E+02  1.58000E+03  2.97030E+03
  8.67877E+02  1.41471E+03 -5.17225E+02  2.62057E+03 -2.22136E+03  1.19553E+03 -1.10297E+03 -4.32043E+01
 -2.30876E+02 -7.22641E+02 -3.57399E+02  2.43064E+02 -8.14836E+02  1.36688E+01 -2.91270E+03 -1.49158E+03
 -2.63395E+03 -1.41972E+03 -9.12129E+02 -2.69956E+03  9.89702E+02 -2.77509E+03  2.38184E+03 -1.83744E+03
  1.69259E+03 -2.25094E+02  9.32465E+02  1.86600E+03  3.08588E+02  1.76567E+03 -1.72393E+03  1.23502E+03
