 $NMID ID='MM_0lb_SNR200_8hz_g40_97.RAW', FMTDAT='(8E13.5)'
 TRAMP=1., VOLUME=1. $END
  3.09660E+05  8.72377E+02  3.38455E+05  2.51172E+05  8.44574E+04  3.37365E+05 -1.31616E+05  2.51904E+05
 -1.88925E+05  8.27415E+04 -1.13246E+05 -3.25975E+04  1.45430E+03 -4.93067E+04  5.32906E+04 -1.94421E+03
  3.51707E+04  5.27986E+04 -1.81666E+04  7.57172E+04 -6.10210E+04  6.60167E+04 -8.52519E+04  3.36690E+04
 -8.14830E+04 -1.11835E+04 -5.87469E+04 -5.21045E+04 -1.54394E+04 -7.16557E+04  2.83507E+04 -4.61053E+04
  4.07996E+04  4.03548E+03  1.61577E+04  4.90247E+04 -3.52223E+04  4.81996E+04 -6.72681E+04  1.40727E+03
 -5.51363E+04 -5.73466E+04 -6.36917E+03 -8.08430E+04  3.45284E+04 -5.85336E+04  5.05826E+04 -1.80035E+04
  4.60445E+04  1.18016E+04  3.28267E+04  2.54260E+04  1.48256E+04  3.14978E+04 -5.52254E+03  2.76919E+04
 -2.24975E+04  1.19991E+04 -1.96205E+04 -5.78166E+03  7.72178E+03 -6.73537E+03  2.39259E+04  1.36233E+04
  6.38112E+03  3.80018E+04 -3.28682E+04  3.60169E+04 -6.74957E+04  3.10586E+03 -5.88707E+04 -4.44337E+04
 -1.30744E+04 -6.65572E+04  4.15483E+04 -4.62950E+04  5.89731E+04 -3.26178E+03  3.62962E+04  3.40350E+04
 -5.18427E+03  3.84790E+04 -3.32117E+04  1.98042E+04 -3.35774E+04 -2.91314E+03 -1.88444E+04 -1.32848E+04
 -9.98681E+03 -1.44714E+04 -3.22602E+02 -1.95711E+04  8.55271E+03 -2.24721E+04  1.57801E+04 -1.32710E+04
  1.12157E+04  6.60865E+03 -1.15238E+04  1.31090E+04 -2.37555E+04 -6.48124E+03 -9.21606E+03 -3.94377E+04
  2.53634E+04 -4.60157E+04  5.03493E+04 -2.11207E+04  4.92594E+04  2.11499E+04  1.97123E+04  4.87095E+04
 -1.50225E+04  3.53790E+04 -2.71530E+04  3.34100E+03 -1.26613E+04 -2.86289E+04  2.03364E+04 -3.69351E+04
  4.27344E+04 -1.09676E+04  3.96245E+04  2.46787E+04  2.23712E+04  5.05438E+04 -8.48276E+03  5.61184E+04
 -3.44950E+04  3.76722E+04 -4.85365E+04  1.21105E+04 -4.72605E+04 -1.79814E+04 -2.48426E+04 -4.27384E+04
  8.63529E+03 -4.27238E+04  3.40259E+04 -1.74922E+04  3.36678E+04  1.23111E+04  4.73392E+03  2.19050E+04
 -1.35635E+04  1.00749E+04 -1.09591E+04 -6.91646E+03  5.00041E+03 -1.03110E+04  1.84660E+04  6.99792E+03
  1.43229E+04  2.29221E+04 -3.07404E+03  2.91226E+04 -2.37796E+04  1.50075E+04 -3.15324E+04 -4.14775E+03
 -2.38060E+04 -1.61461E+04 -1.07899E+04 -2.30452E+04  5.64774E+03 -2.50769E+04  1.94338E+04 -2.27564E+04
  3.27694E+04 -1.46030E+04  3.86063E+04  4.45413E+03  2.70229E+04  2.25311E+04  5.58806E+03  4.12567E+04
 -1.98130E+04  3.30616E+04 -2.89363E+04  1.31115E+04 -2.19725E+04 -9.20881E+03 -4.57564E+03 -1.33105E+04
 -7.19695E+02 -1.51522E+03 -7.95449E+03  7.74965E+03 -1.98235E+04  6.95577E+03 -1.90595E+04 -9.63486E+03
 -1.28848E+04 -2.37686E+04  6.04137E+03 -2.77671E+04  1.90559E+04 -1.94616E+04  2.28117E+04 -2.26366E+03
  1.38984E+04  1.71024E+04 -2.79670E+03  2.31173E+04 -1.64938E+04  1.31651E+04 -2.39836E+04 -4.37898E+03
 -1.82627E+04 -2.04196E+04 -3.75441E+03 -2.72389E+04  1.42258E+04 -2.37996E+04  2.49413E+04 -1.08345E+04
  2.12410E+04 -8.82305E+02  1.47916E+04  5.89667E+03  1.01651E+04  1.73953E+03  1.16622E+04 -1.24923E+03
  2.33062E+04  1.74716E+03  2.50551E+04  1.93987E+04  1.78487E+04  3.77783E+04 -3.66199E+03  4.49975E+04
 -2.53749E+04  3.84754E+04 -4.24432E+04  1.81621E+04 -4.46082E+04 -3.93159E+03 -3.73560E+04 -2.65238E+04
 -1.61064E+04 -3.86481E+04  1.21859E+04 -3.16053E+04  2.81807E+04 -1.73821E+04  2.27757E+04  8.24321E+03
  7.98437E+03  1.87026E+04 -1.31759E+04  1.65670E+04 -2.14602E+04  1.51527E+03 -1.60386E+04 -1.31595E+04
  1.78650E+03 -1.88930E+04  1.13221E+04 -1.45532E+04  1.34226E+04 -1.84845E+03  3.99529E+03  1.04123E+04
 -7.98463E+03  5.20200E+03 -8.97359E+03 -7.77230E+03 -3.37967E+03 -1.90235E+04  1.13343E+04 -2.14065E+04
  2.47244E+04 -1.02579E+04  2.66864E+04  2.64464E+03  2.27951E+04  1.80120E+04  9.84290E+03  2.94862E+04
 -5.39856E+03  2.89138E+04 -2.04235E+04  1.94470E+04 -2.23030E+04  5.26854E+03 -1.66485E+04 -4.96331E+03
 -5.39268E+03 -6.73023E+03 -4.08737E+02  1.08507E+03 -2.51082E+03  5.09807E+03 -7.51182E+03  4.96871E+03
 -1.51823E+04 -2.11550E+03 -1.49264E+04 -1.20613E+04 -5.66229E+03 -1.88232E+04  6.08319E+03 -1.52530E+04
  1.35932E+04 -7.45208E+03  9.19421E+03  4.32931E+03 -5.45662E+02  5.97393E+03 -7.48443E+03  6.68355E+02
 -7.13531E+03 -9.87540E+03 -2.70920E+03 -1.50281E+04  9.91355E+03 -1.64806E+04  2.08171E+04 -8.98377E+03
  2.44030E+04  2.22476E+03  1.70766E+04  1.39661E+04  2.42059E+03  2.02189E+04 -1.04992E+04  1.55445E+04
 -1.40843E+04  4.92341E+03 -6.40211E+03 -4.49715E+03  1.91587E+03 -3.59769E+03  9.38921E+03 -2.65026E+02
  5.78331E+03  6.12013E+03  8.85424E+02  1.32522E+04 -8.91572E+03  1.23361E+04 -1.43304E+04  2.70189E+03
 -1.14561E+04 -8.79949E+03  2.24079E+03 -1.26781E+04  9.03877E+03 -7.71768E+03  1.04199E+04  3.42960E+03
  2.79881E+03  1.13494E+04 -7.52885E+03  1.20548E+04 -1.41753E+04  5.02304E+03 -1.39211E+04 -4.19079E+03
 -7.71931E+03 -1.60241E+04  4.20955E+03 -1.89718E+04  1.64027E+04 -1.12686E+04  1.86545E+04  4.22162E+03
  1.03732E+04  1.34608E+04 -4.44839E+03  1.71009E+04 -1.13524E+04  8.49502E+03 -1.37822E+04 -1.26138E+03
 -1.03792E+04 -9.91796E+03 -1.20938E+03 -1.31740E+04  6.85208E+03 -1.04268E+04  6.71255E+03 -2.82489E+03
  5.61964E+03  1.92165E+03 -2.05126E+03  1.07436E+03 -1.08387E+03 -5.53708E+03  2.82792E+03 -8.84911E+03
  1.10798E+04 -4.65629E+03  1.70608E+04  1.77630E+03  1.74597E+04  1.02190E+04  1.16898E+04  2.21933E+04
 -4.17788E+03  2.27066E+04 -2.16117E+04  1.83611E+04 -2.64571E+04  4.00844E+03 -2.17207E+04 -1.11974E+04
 -1.18178E+04 -1.72914E+04  3.57721E+02 -1.56650E+04  4.96698E+03 -8.15881E+03  5.15418E+03 -6.58433E+03
  3.37111E+03 -3.78208E+03  3.85022E+03 -1.69137E+03  6.05588E+03 -4.01646E+03  8.90354E+03 -1.42949E+03
  1.08388E+04  2.43321E+03  6.31864E+03  9.28427E+03 -1.75272E+03  1.15057E+04 -1.27170E+04  9.84738E+03
 -1.47042E+04 -3.30656E+03 -9.90079E+03 -1.14618E+04 -2.82007E+03 -1.74176E+04  8.60612E+03 -1.69459E+04
  1.80126E+04 -8.36527E+03  1.92412E+04  2.13753E+03  1.23512E+04  1.40962E+04  2.86119E+03  1.75862E+04
 -8.36233E+03  1.54062E+04 -1.14208E+04  4.97886E+03 -6.33687E+03 -4.16112E+03 -3.91483E+03 -1.61593E+03
 -7.71312E+02  6.33021E+02 -1.52010E+03  3.35909E+03 -7.11454E+03  3.00825E+03 -1.08782E+04 -1.26021E+03
 -9.21112E+03 -1.20381E+04 -1.03791E+02 -1.54199E+04  1.01007E+04 -1.55757E+04  1.51599E+04 -4.73139E+03
  1.50895E+04  7.45092E+03  6.96566E+03  1.42505E+04 -2.63145E+03  1.57083E+04 -1.21887E+04  1.00181E+04
 -1.61164E+04  1.42994E+03 -1.08091E+04 -9.63565E+03 -4.90801E+02 -1.28441E+04  7.88831E+03 -1.00530E+04
  9.13074E+03 -3.09082E+03  6.65356E+03  4.14770E+03  2.08771E+03  4.49838E+03  2.86417E+03  7.86036E+02
  9.18187E+02  1.48676E+03  3.22324E+03  2.93612E+03  6.40680E+03  6.11862E+03  3.96635E+03  9.63958E+03
 -4.01202E+03  1.39513E+04 -1.19841E+04  1.35714E+04 -1.67918E+04  2.95996E+03 -1.68672E+04 -7.27172E+03
 -9.18790E+03 -1.77844E+04  1.33119E+03 -1.63758E+04  9.77043E+03 -1.17862E+04  1.13015E+04 -1.95967E+03
  8.71006E+03  6.92358E+03  3.18222E+03  9.09453E+03 -4.12879E+03  4.67281E+03 -7.60771E+03 -1.87260E+03
 -4.45699E+03 -5.22797E+03  2.91824E+03 -7.86704E+03  6.92334E+03 -3.19943E+03  7.38294E+03 -1.64696E+03
  6.12561E+03  3.18987E+03  4.01248E+02  9.52367E+02 -2.55799E+03  2.15174E+03  2.92143E+03 -3.80143E+02
  2.13235E+03 -1.90762E+03  6.76622E+03  1.93371E+03  3.47104E+03  8.38652E+03 -1.24100E+03  1.26086E+04
 -8.58936E+03  8.46134E+03 -9.20664E+03  2.37501E+03 -9.24337E+03 -3.78869E+03 -4.03835E+03 -6.95670E+03
 -7.31839E+02 -5.24159E+03  4.80130E+03 -3.70981E+03  4.81557E+03  2.15605E+03 -1.94317E+03  3.79602E+03
 -7.30745E+03  2.89683E+03 -6.60832E+03 -3.20301E+03 -4.29814E+03 -9.68411E+03  2.40397E+03 -1.04751E+04
  4.42321E+03 -5.85720E+03  6.47974E+03  3.81704E+02  5.48138E+03  3.58907E+03  8.51500E+02  5.63063E+03
 -4.80418E+03  2.39680E+03 -5.98617E+03 -2.04115E+03  1.27525E+03 -6.65271E+03  6.69067E+03 -5.31718E+03
  9.76662E+03  1.47015E+03  1.00435E+04  6.26608E+03  3.56761E+03  1.12036E+04 -5.41664E+03  1.14487E+04
 -8.17020E+03  2.59367E+03 -9.46503E+03 -1.64861E+03 -5.33405E+03 -7.90411E+03  8.21409E+02 -7.42881E+03
  6.24688E+03 -1.65312E+03  5.01281E+03  2.51319E+03  2.53036E+03  5.24749E+03 -1.23521E+03  5.75770E+03
 -2.26218E+03  1.37731E+03 -2.04579E+03  9.81046E+02 -3.08795E+02 -4.46885E+02 -1.55455E+03  2.44883E+03
 -2.57522E+03  5.97058E+03 -7.49360E+03  3.16283E+03 -1.13459E+04  6.34301E+02 -1.26538E+04 -7.74108E+03
 -6.91542E+03 -1.48222E+04  4.25324E+03 -1.87669E+04  1.10097E+04 -1.41986E+04  1.56931E+04 -5.92489E+03
  1.52828E+04  2.62007E+03  8.06615E+03  1.13330E+04  2.56492E+03  1.15172E+04 -3.59620E+03  9.33944E+03
 -6.41274E+03  2.93878E+03 -3.01298E+03  1.71608E+02 -2.32106E+03 -1.82022E+03 -1.26424E+03 -2.99997E+02
 -4.01416E+02 -2.97828E+02 -2.67251E+03 -5.14509E+02 -1.56282E+03 -2.11628E+03  7.57433E+02 -6.06349E+03
  4.70738E+03 -2.20080E+03  6.75736E+03  3.67585E+02  8.23523E+03  5.71593E+03  2.56448E+03  1.19207E+04
 -6.51026E+03  1.31140E+04 -1.15288E+04  8.52979E+03 -1.38992E+04 -6.38616E+02 -1.22501E+04 -9.95749E+03
 -3.83499E+03 -1.22550E+04  3.61673E+03 -1.11526E+04  7.44158E+03 -6.50455E+03  7.87991E+03  7.32190E+02
  5.50575E+03  2.83379E+03  1.32201E+02  2.93758E+03 -2.53244E+03 -5.54832E+02  2.70971E+02 -2.97212E+03
  3.88947E+03 -2.75476E+03  4.93936E+03  9.96257E+02  3.45819E+03  4.49825E+03  6.63534E+02  5.69194E+03
 -4.43074E+03  5.93686E+03 -6.49433E+03  1.34643E+03 -6.74651E+03 -5.75511E+03 -8.18756E+02 -1.10995E+04
  6.06896E+03 -7.20480E+03  9.62378E+03 -5.30344E+03  1.04404E+04  1.72898E+03  5.71927E+03  6.99747E+03
  8.37531E+02  7.86065E+03 -4.84545E+03  7.32394E+03 -5.49153E+03  3.53503E+03 -4.38099E+03 -2.08227E+02
 -1.16550E+03  7.26267E+02 -3.97650E+03  9.58432E+02 -4.19032E+03  1.54517E+03 -4.64985E+03 -1.69561E+03
 -6.73026E+03 -3.91559E+03 -1.48327E+03 -8.20113E+03  3.86391E+03 -7.31194E+03  7.64652E+03 -6.11650E+03
  6.26990E+03 -2.21198E+02  6.01427E+03  5.55138E+03 -1.40168E+03  9.52987E+03 -6.79089E+03  4.25938E+03
