 $NMID ID='MM_0lb_SNR200_16hz_g40_63.RAW', FMTDAT='(8E13.5)'
 TRAMP=1., VOLUME=1. $END
  3.10664E+05  3.91028E+02  3.36312E+05  2.50805E+05  8.51003E+04  3.38482E+05 -1.31322E+05  2.50550E+05
 -1.89782E+05  8.30988E+04 -1.11014E+05 -3.35798E+04  2.40676E+03 -4.91305E+04  5.36766E+04  3.23953E+02
  3.57960E+04  5.30626E+04 -1.65779E+04  7.56371E+04 -6.09689E+04  6.26955E+04 -8.34308E+04  3.13636E+04
 -8.04767E+04 -1.12198E+04 -5.66853E+04 -5.02012E+04 -1.47209E+04 -6.92445E+04  2.66853E+04 -4.38137E+04
  4.01475E+04  3.58874E+03  1.60007E+04  4.79930E+04 -3.47240E+04  4.60582E+04 -6.50151E+04 -1.56429E+02
 -5.21623E+04 -5.59633E+04 -7.39225E+03 -7.63324E+04  3.27583E+04 -5.30365E+04  4.79112E+04 -1.60657E+04
  4.18197E+04  1.11167E+04  3.02884E+04  2.54979E+04  1.64690E+04  2.85773E+04 -4.92080E+03  2.65193E+04
 -2.16022E+04  1.27261E+04 -1.88842E+04 -4.34935E+03  5.03872E+03 -8.48668E+03  2.24924E+04  1.23135E+04
  7.70385E+03  3.37415E+04 -3.05742E+04  3.44242E+04 -6.15872E+04  2.02537E+03 -5.57145E+04 -4.17395E+04
 -1.28042E+04 -6.10892E+04  3.83596E+04 -4.41838E+04  5.54334E+04 -1.88814E+03  3.34769E+04  2.98462E+04
 -6.13620E+03  3.37904E+04 -2.84124E+04  1.35518E+04 -2.78423E+04 -4.33823E+03 -1.54700E+04 -1.05936E+04
 -8.89882E+03 -1.15457E+04 -1.25601E+03 -1.75120E+04  7.15406E+03 -2.26196E+04  1.47387E+04 -1.37443E+04
  1.18601E+04  4.59655E+03 -7.33707E+03  1.28512E+04 -1.92744E+04 -2.26873E+03 -8.35285E+03 -3.27820E+04
  2.09005E+04 -4.05659E+04  4.51541E+04 -1.90208E+04  4.33422E+04  1.89721E+04  1.39618E+04  4.18325E+04
 -1.55449E+04  3.18795E+04 -2.37883E+04  4.91034E+02 -8.72809E+03 -2.62887E+04  1.94097E+04 -3.19227E+04
  3.80860E+04 -9.41415E+03  3.23027E+04  2.35219E+04  1.53530E+04  4.39095E+04 -8.21226E+03  4.67964E+04
 -2.86271E+04  3.10855E+04 -3.91534E+04  8.49997E+03 -3.78939E+04 -1.51009E+04 -2.19106E+04 -3.69111E+04
  6.27934E+03 -3.40667E+04  2.80370E+04 -1.29428E+04  2.72797E+04  1.16233E+04  3.25524E+03  1.75699E+04
 -1.29797E+04  8.15873E+03 -9.26672E+03 -7.01443E+03  4.68051E+03 -9.40052E+03  1.70151E+04  6.03854E+03
  1.31359E+04  2.15177E+04 -6.21283E+03  2.39858E+04 -2.20089E+04  8.33930E+03 -2.57556E+04 -5.29347E+03
 -1.87657E+04 -1.67854E+04 -6.65919E+03 -1.73794E+04  3.48499E+03 -1.51918E+04  1.36206E+04 -1.58772E+04
  2.30763E+04 -1.26584E+04  2.99223E+04  1.40857E+03  2.09988E+04  1.71770E+04  3.41918E+03  3.32814E+04
 -1.75755E+04  2.90264E+04 -2.69825E+04  9.71008E+03 -1.93438E+04 -1.08981E+04 -4.55511E+03 -1.24807E+04
  1.21430E+03 -3.69165E+03 -3.61171E+03  5.93789E+03 -1.26484E+04  5.49805E+03 -1.53558E+04 -5.51271E+03
 -1.03503E+04 -1.66976E+04  4.98612E+03 -2.05450E+04  1.34367E+04 -1.47911E+04  1.55623E+04 -1.21085E+03
  1.04913E+04  1.13318E+04  6.56225E+01  1.78785E+04 -1.24004E+04  9.49922E+03 -1.72579E+04 -3.77494E+03
 -1.17026E+04 -1.47947E+04 -2.19041E+03 -2.11861E+04  8.71465E+03 -1.63361E+04  1.88004E+04 -7.97354E+03
  1.55475E+04  4.95100E+02  1.01188E+04  4.06804E+03  6.26660E+03  5.93649E+02  8.66111E+03 -7.67950E+01
  1.55113E+04  1.98714E+03  1.60638E+04  1.41852E+04  1.04976E+04  2.83978E+04 -3.25283E+03  2.95259E+04
 -1.65057E+04  2.20919E+04 -2.73161E+04  1.11990E+04 -2.80099E+04 -1.62664E+03 -2.27024E+04 -1.66839E+04
 -1.17841E+04 -2.31396E+04  8.62927E+03 -2.21674E+04  1.90516E+04 -1.16940E+04  1.77769E+04  3.24365E+03
  6.58362E+03  1.16473E+04 -8.07957E+03  1.16997E+04 -1.41012E+04  2.48921E+03 -1.20234E+04 -9.05920E+03
  1.72502E+02 -1.26132E+04  6.03048E+03 -9.86952E+03  8.33465E+03 -1.89053E+03  1.33565E+03  4.86051E+03
 -6.55922E+03  2.13695E+03 -4.33854E+03 -5.35272E+03  6.08422E+02 -1.11256E+04  8.61653E+03 -1.22508E+04
  1.26009E+04 -5.16117E+03  1.51248E+04  2.97612E+03  1.36442E+04  1.11014E+04  7.04963E+03  1.65578E+04
 -2.17418E+03  1.88985E+04 -1.12098E+04  1.09718E+04 -1.19877E+04  2.61469E+03 -9.41885E+03 -3.14509E+03
 -5.74599E+03 -3.60627E+03 -8.97314E+02  2.04355E+03 -1.28965E+03  2.54205E+03 -3.57102E+03  3.25660E+03
 -7.79183E+03  4.21548E+02 -9.35572E+03 -8.25955E+03 -4.10855E+03 -1.30429E+04  4.01879E+03 -9.05195E+03
  8.63890E+03 -3.51001E+03  6.68697E+03  1.63658E+03  2.07777E+02  3.53756E+03 -3.01535E+03  2.97464E+02
 -3.93041E+03 -6.32257E+03  4.52249E+02 -8.85860E+03  3.60918E+03 -9.20207E+03  1.13466E+04 -5.16041E+03
  1.34404E+04  4.15224E+02  1.00216E+04  7.06378E+03  1.41632E+03  1.05336E+04 -5.86195E+03  9.91905E+03
 -8.25460E+03  3.35934E+03 -4.79930E+03 -1.44048E+03  2.17883E+03 -2.81978E+03  6.93749E+03 -1.63494E+03
  4.24216E+03  2.48688E+03  1.05846E+03  5.85517E+03 -5.42634E+03  7.22095E+03 -9.69647E+03  1.53229E+03
 -5.92249E+03 -4.47930E+03  5.84121E+02 -6.88405E+03  5.03496E+03 -4.73501E+03  3.92971E+03  1.29095E+03
  1.08645E+03  5.00327E+03 -4.77961E+03  5.75940E+03 -6.44356E+03  2.91154E+03 -6.44511E+03 -1.78418E+03
 -3.86242E+03 -8.23965E+03  1.07750E+03 -9.18297E+03  7.30987E+03 -5.69595E+03  7.31576E+03  1.50641E+03
  4.72792E+03  7.17612E+03  3.78224E+02  7.99606E+03 -6.74536E+03  5.58876E+03 -7.01293E+03 -1.02804E+03
 -4.86756E+03 -5.78095E+03 -1.27659E+03 -7.32717E+03  3.78729E+03 -5.45748E+03  2.55101E+03 -2.69684E+03
  2.08136E+03  1.28234E+03 -8.60943E+01  1.46053E+03  1.50225E+03 -6.15985E+02  8.23485E+02 -3.40913E+03
  5.41006E+03 -1.00730E+03  5.98181E+03  7.39230E+02  6.23975E+03  3.12999E+03  5.84379E+03  8.54874E+03
 -1.31074E+03  1.11527E+04 -8.27963E+03  8.35257E+03 -1.28125E+04  8.84689E+02 -9.30068E+03 -4.00998E+03
 -7.04023E+03 -8.77771E+03 -9.01257E+02 -6.35594E+03  1.96381E+03 -3.67570E+03  2.34422E+03 -2.28103E+03
  9.68975E+02 -2.69532E+03  2.22455E+03 -2.58185E+03  3.82489E+03 -1.46714E+03  3.90131E+03 -5.18992E+02
  5.50474E+03  1.67301E+03  1.35526E+03  4.87860E+03 -1.74265E+03  2.63932E+03 -4.60375E+03  2.52386E+03
 -7.10157E+03 -6.60531E+02 -2.95274E+03 -4.41522E+03  2.71245E+01 -5.06484E+03  4.30655E+03 -8.12387E+03
  6.62376E+03 -4.76069E+03  7.99477E+03  2.41229E+02  5.24387E+03  6.33574E+03  9.40101E+02  6.99098E+03
 -2.50846E+03  7.13432E+03 -4.20456E+03  1.98069E+03 -2.82000E+03 -4.49058E+02 -1.87520E+03 -6.08687E+02
 -8.34655E+02  1.39292E+03 -9.57475E+01  2.56173E+03 -3.06192E+03  1.91262E+03 -5.58178E+03  8.99499E+01
 -2.32067E+03 -5.48945E+03  3.99098E+02 -7.13628E+03  4.28572E+03 -5.77656E+03  4.26143E+03 -1.63819E+03
  5.53006E+03  3.77538E+03  3.70710E+03  4.41196E+03 -9.96607E+02  6.84360E+03 -3.89804E+03  4.14745E+03
 -5.52204E+03 -4.05477E+02 -5.19437E+03 -3.01547E+03 -5.80007E+02 -4.83332E+03  2.50350E+03 -3.32654E+03
  4.07318E+03 -2.47772E+03  2.77974E+03 -5.47970E+02  5.14754E+02  1.02874E+03  2.21422E+02  1.17706E+03
  1.87058E+03  2.49531E+02  9.59552E+02  2.28390E+03  2.29402E+03  1.63929E+03  1.14352E+03  2.94983E+03
 -1.73126E+03  4.55387E+03 -3.54493E+03  4.27842E+03 -5.66048E+03  3.10101E+03 -5.65255E+03 -1.21197E+03
 -1.68365E+03 -5.09410E+03  9.86365E+02 -6.81073E+03  3.16364E+03 -3.65983E+03  4.05247E+03 -1.26016E+03
  2.97611E+03  3.06576E+03  9.64032E+02  3.20966E+03 -1.13797E+03  1.69828E+03 -2.23650E+03 -9.41709E+02
 -5.65971E+02 -3.00012E+03  2.07989E+03 -2.43232E+03  2.74250E+03 -1.00079E+03  1.80017E+03  6.05938E+02
 -3.01363E+02  6.12534E+02  6.34856E+02 -8.17888E+02 -1.53513E+03  3.77015E+02  1.29660E+03 -1.72369E+03
 -4.42138E+02 -5.68508E+02  2.58551E+03 -2.07236E+02 -1.15370E+03  2.92509E+03  4.97349E+02  4.07938E+03
 -3.78962E+03  1.85627E+03 -2.36726E+03  1.39593E+03 -2.38710E+03 -1.20287E+03 -6.57735E+02  5.65033E+01
  4.77560E+02 -2.86857E+03  1.35442E+03 -1.47712E+02  1.55189E+03  2.58278E+03 -1.60375E+03  7.48590E+02
 -3.20438E+03  2.11904E+02 -2.52627E+03 -1.76656E+03 -1.51923E+03 -2.95546E+03  4.81122E+01 -2.78570E+03
  5.79354E+02 -1.13516E+03  5.91412E+02 -4.35581E+02  1.50627E+03 -1.83290E+02 -3.51287E+02  2.40576E+03
 -1.35486E+03  4.09713E+02 -2.75333E+03  2.32415E+02  1.16639E+03 -2.10101E+03  2.33979E+03 -1.26637E+03
  3.15205E+03  1.24950E+02  3.30067E+03  3.96616E+02  1.49479E+03  3.26807E+03 -3.39837E+02  2.59779E+03
 -2.30520E+03  1.85421E+02 -2.50605E+03 -9.62926E+01 -1.47957E+03 -3.16680E+03  3.68727E+02 -3.86574E+02
  2.49158E+03 -1.50668E+03  6.46371E+02  5.67191E+02  5.90921E+02  6.17655E+02  4.66723E+02  2.13306E+03
  2.70158E+02  1.46691E+03 -4.68175E+02  7.31206E+02 -1.11379E+03  1.17987E+03  8.83495E+00  1.28239E+03
 -3.03306E+02  1.31851E+03 -2.32850E+03  1.67189E+03 -3.06337E+03  2.72069E+01 -3.36672E+03 -1.39954E+03
 -2.14013E+03 -2.94658E+03  3.36730E+01 -4.10936E+03  1.80101E+03 -3.83782E+03  5.21844E+03 -1.78912E+03
  2.77923E+03 -4.90657E+02  2.53748E+03  2.42014E+03 -1.73607E+01  2.72734E+03 -1.27129E+03  3.95470E+03
 -1.78294E+03  4.92192E+02 -1.04609E+02 -1.23519E+03  1.31573E+02 -4.29847E+02 -4.14999E+02 -1.94971E+02
 -1.38724E+03 -2.40301E+01 -1.36717E+03  9.84153E+02  8.89307E+02  9.46866E+01 -8.67540E+02  7.27272E+01
  7.27299E+02 -1.94701E+02  5.48995E+02  6.16664E+02  2.44935E+03  4.51599E+02  1.78234E+01  2.29320E+03
 -1.86979E+03  3.44609E+03 -2.85103E+03  1.41434E+03 -2.29714E+03 -2.30052E+02 -2.57975E+03 -2.66805E+03
 -2.41195E+03 -2.43973E+03 -3.46205E+02 -2.20595E+03  1.46366E+03 -4.66485E+02  1.75471E+03 -5.53809E+02
  8.51200E+02  1.31259E+03 -9.25991E+01  4.23067E+02  3.51134E+02 -1.20737E+02  8.28898E+02 -6.86332E+02
 -2.14130E+02 -6.11059E+02  6.71357E+02  1.08407E+03  5.76312E+02  5.56278E+02  4.48521E+02  2.69472E+02
 -1.73440E+03  1.08504E+03 -1.90824E+03 -6.92389E+01 -1.49645E+03 -8.12118E+02 -1.17730E+03 -2.66179E+03
 -7.16751E+01 -2.19413E+03  1.90791E+03  2.12636E+02  2.78610E+03  8.27731E+02  1.04219E+03  8.25034E+02
  5.93993E+00 -6.22554E+01  5.52584E+02  1.67094E+03 -1.00251E+02  1.05725E+03  4.78068E+02  1.66828E+02
 -4.26551E+02  1.27779E+01 -6.11297E+02 -4.54154E+02 -7.09311E+02  9.05495E+02 -1.43091E+03 -6.84349E+02
 -1.64688E+03 -2.82052E+02 -6.72480E+02 -1.67642E+03  1.60512E+03 -2.34823E+03  2.00745E+03  1.48538E+02
  2.85106E+03  8.59139E+02  1.37068E+02  1.37175E+03  1.06485E+03  2.43937E+03 -1.45002E+03  2.68441E+02
