 $NMID ID='MM_0lb_SNR200_15hz_g40_100.RAW', FMTDAT='(8E13.5)'
 TRAMP=1., VOLUME=1. $END
  3.10268E+05  1.85915E+03  3.39200E+05  2.51101E+05  8.43526E+04  3.37641E+05 -1.31185E+05  2.50365E+05
 -1.89321E+05  8.32039E+04 -1.12370E+05 -3.37757E+04  8.86970E+02 -5.06271E+04  5.37496E+04 -1.99310E+02
  3.59348E+04  5.23826E+04 -1.67205E+04  7.60604E+04 -6.03479E+04  6.29046E+04 -8.33785E+04  3.19677E+04
 -7.98068E+04 -1.15270E+04 -5.66488E+04 -5.13307E+04 -1.51263E+04 -6.88091E+04  2.72771E+04 -4.56978E+04
  4.01503E+04  4.00358E+03  1.63823E+04  4.70888E+04 -3.33829E+04  4.66707E+04 -6.72397E+04 -6.46980E+02
 -5.24674E+04 -5.65373E+04 -6.59258E+03 -7.68380E+04  3.36647E+04 -5.32824E+04  4.71541E+04 -1.58652E+04
  4.35036E+04  1.13751E+04  3.15308E+04  2.44565E+04  1.56555E+04  2.91249E+04 -5.03936E+03  2.75370E+04
 -2.10276E+04  1.25545E+04 -1.81039E+04 -4.54562E+03  5.52808E+03 -7.95447E+03  2.22726E+04  1.10521E+04
  6.43997E+03  3.42323E+04 -3.04586E+04  3.47500E+04 -6.19989E+04  2.94476E+03 -5.64502E+04 -4.15884E+04
 -1.25770E+04 -6.23234E+04  3.91457E+04 -4.43911E+04  5.70005E+04 -2.51265E+03  3.31441E+04  3.15589E+04
 -6.21751E+03  3.40377E+04 -2.88695E+04  1.57284E+04 -2.91137E+04 -4.15302E+03 -1.58412E+04 -9.87607E+03
 -8.61394E+03 -1.30992E+04 -1.50696E+03 -1.77046E+04  6.65234E+03 -2.37894E+04  1.49918E+04 -1.27100E+04
  1.22673E+04  5.59080E+03 -6.76555E+03  1.30633E+04 -2.14478E+04 -3.57613E+03 -8.27917E+03 -3.05997E+04
  2.30746E+04 -4.29197E+04  4.71671E+04 -1.87612E+04  4.34998E+04  1.87404E+04  1.40076E+04  4.24746E+04
 -1.57087E+04  3.15903E+04 -2.51655E+04  2.42574E+03 -9.43683E+03 -2.64569E+04  1.97682E+04 -3.33244E+04
  3.96713E+04 -8.66446E+03  3.38241E+04  2.26621E+04  1.72363E+04  4.48115E+04 -7.51216E+03  4.84612E+04
 -2.88097E+04  3.12891E+04 -4.01733E+04  9.25770E+03 -4.15475E+04 -1.59477E+04 -2.26979E+04 -3.80123E+04
  8.56883E+03 -3.57955E+04  3.04458E+04 -1.27341E+04  2.86221E+04  1.02227E+04  4.11132E+03  1.94572E+04
 -1.33952E+04  7.97413E+03 -9.54127E+03 -7.78091E+03  6.63741E+03 -1.00667E+04  1.75870E+04  5.22850E+03
  1.25997E+04  2.21369E+04 -6.76486E+03  2.48519E+04 -2.24176E+04  1.08281E+04 -2.70728E+04 -5.62985E+03
 -1.88406E+04 -1.66064E+04 -7.46663E+03 -1.79670E+04  4.66695E+03 -1.70507E+04  1.40703E+04 -1.66479E+04
  2.57217E+04 -1.16846E+04  3.09836E+04  2.11012E+03  2.30902E+04  1.82033E+04  4.76318E+03  3.42471E+04
 -1.72266E+04  2.84478E+04 -2.71332E+04  1.10338E+04 -2.14836E+04 -9.84358E+03 -3.04003E+03 -1.49926E+04
  1.49934E+03 -2.97548E+03 -4.00930E+03  7.55568E+03 -1.52580E+04  5.35111E+03 -1.56045E+04 -6.44786E+03
 -9.64759E+03 -1.80647E+04  4.91684E+03 -2.17844E+04  1.32906E+04 -1.49445E+04  1.66903E+04 -2.01061E+03
  1.02101E+04  1.19118E+04 -7.85435E+02  1.84543E+04 -1.16454E+04  9.81906E+03 -1.80167E+04 -3.60287E+03
 -1.21022E+04 -1.54423E+04 -1.92857E+03 -2.13378E+04  8.94060E+03 -1.75855E+04  1.65094E+04 -8.87180E+03
  1.58333E+04  1.22249E+02  1.14066E+04  3.71210E+03  5.84908E+03  1.11967E+03  8.80507E+03 -1.91897E+03
  1.63843E+04  3.40295E+03  1.86546E+04  1.44199E+04  1.09511E+04  2.71997E+04 -2.17760E+03  3.16365E+04
 -1.79638E+04  2.38477E+04 -2.92324E+04  1.33327E+04 -2.97817E+04 -1.69056E+03 -2.50959E+04 -1.70657E+04
 -1.05352E+04 -2.44531E+04  6.67844E+03 -2.13948E+04  1.96736E+04 -1.15109E+04  1.75375E+04  4.73467E+03
  7.79806E+03  1.31490E+04 -9.08362E+03  1.07687E+04 -1.50536E+04  4.31492E+03 -1.08659E+04 -8.99140E+03
 -7.38977E+02 -1.40523E+04  8.23086E+03 -1.08517E+04  9.91970E+03 -8.10340E+02  2.15033E+03  6.40646E+03
 -6.94130E+03  1.98227E+03 -6.42573E+03 -5.27816E+03 -6.61132E+02 -1.22368E+04  8.86103E+03 -1.22593E+04
  1.46461E+04 -5.65348E+03  1.63547E+04  2.14620E+03  1.40489E+04  1.21201E+04  6.54686E+03  1.77071E+04
 -3.24727E+03  1.86565E+04 -1.20540E+04  1.23974E+04 -1.52985E+04  3.55562E+03 -1.00275E+04 -3.90066E+03
 -5.39637E+03 -4.90003E+03 -1.63203E+02  5.97035E+02 -1.60431E+03  2.64900E+03 -5.16058E+03  5.19042E+03
 -9.93843E+03  1.00897E+01 -9.90051E+03 -9.22381E+03 -3.36572E+03 -1.42760E+04  4.05543E+03 -1.12045E+04
  8.34664E+03 -5.05035E+03  5.32248E+03  2.18625E+03  4.81917E+02  4.33227E+03 -4.07520E+03 -9.69276E+02
 -4.07923E+03 -6.59201E+03 -1.34698E+03 -1.00314E+04  4.39420E+03 -9.59096E+03  1.12319E+04 -4.15302E+03
  1.49535E+04  1.82230E+03  1.10429E+04  8.00759E+03  2.25510E+03  1.11008E+04 -7.19180E+03  1.07606E+04
 -8.29570E+03  3.00744E+03 -3.35008E+03 -1.23066E+03  1.84879E+03 -3.05193E+03  5.06894E+03 -2.17909E+03
  5.48449E+03  2.77224E+03  6.41833E+02  7.77310E+03 -6.05973E+03  7.50150E+03 -9.54480E+03  1.56444E+03
 -6.20705E+03 -3.57151E+03  4.59084E+02 -8.78619E+03  4.65355E+03 -3.52902E+03  4.86457E+03  1.34376E+03
  1.24168E+03  4.65435E+03 -5.41390E+03  4.99754E+03 -6.90972E+03  2.69475E+03 -5.78964E+03 -2.09452E+03
 -4.52577E+03 -8.27865E+03  2.97507E+03 -9.73563E+03  7.87504E+03 -5.68917E+03  8.60906E+03  1.21631E+03
  5.82160E+03  7.66314E+03 -5.58698E+02  8.67919E+03 -6.89511E+03  5.26598E+03 -7.35079E+03 -7.90967E+02
 -7.07640E+03 -5.64644E+03 -1.19629E+03 -6.70753E+03  4.48544E+03 -4.99030E+03  3.49029E+03 -3.45825E+03
  2.90195E+03  3.46705E+02 -4.69783E+02  7.56290E+02 -9.53046E+02 -2.13875E+03 -1.08946E+02 -2.84121E+03
  6.11505E+03 -1.41701E+03  7.20492E+03  1.88707E+03  8.09175E+03  6.09245E+03  6.48928E+03  1.00636E+04
 -1.40186E+03  1.22477E+04 -1.01637E+04  8.93316E+03 -1.32695E+04  2.03799E+03 -1.17686E+04 -4.92117E+03
 -5.69229E+03 -9.61557E+03 -1.76120E+03 -7.48927E+03  2.47802E+03 -2.05495E+03  1.59099E+03 -2.33447E+03
  1.27295E+03 -2.24469E+03  1.92421E+03 -2.75042E+03  2.87601E+03 -1.96766E+03  3.61696E+03 -2.15619E+02
  6.75964E+03  7.19045E+01  1.77515E+03  5.11211E+03 -1.68934E+03  4.60445E+03 -5.88761E+03  4.56242E+03
 -6.43237E+03 -8.32070E+02 -2.86243E+03 -5.18823E+03 -8.66030E+01 -6.04855E+03  4.33930E+03 -7.95946E+03
  8.00912E+03 -5.89304E+03  8.79779E+03  1.16955E+03  8.04041E+03  5.74766E+03  6.37463E+02  8.29304E+03
 -2.94443E+03  7.81968E+03 -5.18273E+03  2.89217E+03 -3.96528E+03 -1.54332E+03 -1.21954E+03  5.33361E+01
 -2.12375E+02  1.95013E+02  1.92615E+02  2.10579E+03 -3.11353E+03  1.57284E+03 -5.88385E+03 -1.14027E+03
 -3.08741E+03 -5.42796E+03  9.98161E+02 -6.92373E+03  4.09853E+03 -6.77639E+03  5.75924E+03 -2.30453E+03
  6.67711E+03  3.98940E+03  2.52476E+03  6.29526E+03 -1.57005E+03  7.00357E+03 -4.00924E+03  4.86201E+03
 -5.58619E+03  2.68591E+02 -4.07648E+03 -4.20282E+03 -3.01818E+02 -5.34774E+03  2.10064E+03 -5.33335E+03
  4.80011E+03 -2.67723E+03  2.97143E+03  1.63915E+02  1.02397E+03  2.32425E+03  1.58913E+03  8.16287E+02
  1.61094E+03  2.69190E+02  1.83292E+03  8.30524E+02  1.72400E+03  3.80308E+03  1.71066E+03  3.37862E+03
 -2.20783E+03  4.65120E+03 -3.60880E+03  6.09482E+03 -5.22836E+03  1.23058E+03 -7.85082E+03 -1.36728E+03
 -4.22534E+03 -6.44174E+03  1.09122E+03 -7.28108E+03  3.39710E+03 -4.32169E+03  5.21768E+03 -2.05247E+03
  4.31821E+03  3.19841E+03  1.76793E+03  2.85747E+03 -1.04296E+03  2.22200E+03 -1.13056E+03 -2.16989E+02
 -1.85074E+03 -3.10441E+03  1.33320E+03 -2.18161E+03  2.44252E+03 -1.14974E+03  1.98425E+03  6.28680E+02
  2.29058E+03  5.44485E+02  4.77390E+02  4.51344E+02 -6.19066E+01  1.07099E+03  1.27689E+03 -7.34502E+02
  4.18734E+02  4.58420E+02  2.98138E+03  7.36064E+02  5.27780E+02  3.60146E+03  1.18021E+02  4.95685E+03
 -2.53592E+03  1.93722E+03 -4.14422E+03 -4.36995E+02 -3.86356E+03 -9.58627E+00 -3.90239E+02 -7.38047E+02
  6.86867E+02 -1.72789E+03  5.56652E+02 -1.68380E+03  1.19635E+03  2.45612E+03 -1.29824E+03  2.31334E+03
 -2.62913E+03  1.61049E+03 -1.81396E+03 -2.50084E+03 -1.91309E+03 -3.34013E+03  2.23382E+02 -2.33023E+03
  1.31850E+03 -1.66205E+03  3.04667E+03  5.13643E+02  1.83307E+03  1.38646E+03 -2.86971E+01  2.82486E+03
 -1.07305E+03 -7.58391E+02 -2.00734E+03 -1.73211E+03  1.88886E+03 -2.92480E+03  2.97472E+03 -1.57532E+03
  2.46794E+03  2.27929E+02  3.37564E+03  2.70786E+03  9.49559E+02  3.05969E+03 -1.22116E+03  4.38533E+03
 -2.51072E+03  7.74936E+02 -3.80976E+03 -9.33798E+02 -1.61495E+03 -1.95072E+03  4.98553E+02 -2.63229E+03
  2.33569E+03 -7.52958E+02  1.31265E+03  1.83351E+03  1.02816E+03  3.17914E+03  1.20603E+03  1.88563E+03
 -6.96037E+02  2.20725E+03  1.39729E+02 -6.66985E+02  4.64448E+02  2.80302E+01 -5.06115E+02 -2.13805E+02
 -1.76113E+03  1.60068E+03 -4.02799E+03  1.57495E+03 -1.74089E+03 -1.01616E+02 -4.17803E+03 -1.72073E+03
 -2.54405E+03 -3.68443E+03  1.64401E+03 -6.27016E+03  2.48975E+03 -3.38329E+03  4.60368E+03 -2.03648E+03
  4.28704E+03  2.24000E+01  3.18094E+03  3.97534E+03  4.97897E+02  2.51562E+03 -1.02188E+02  3.25133E+03
 -1.89217E+03  1.85688E+03 -1.32464E+03 -1.25291E+02 -1.05899E+03 -9.17414E+02 -1.84224E+02  7.29935E+02
 -2.14935E+03  1.32971E+02 -1.12368E+03  5.90024E+02 -5.10062E+02 -4.79174E+02 -1.71051E+02 -1.39259E+03
  2.17514E+03 -1.49145E+03  1.03606E+03  8.62562E+02  1.49536E+03  1.93871E+03 -1.03399E+03  2.50741E+03
 -1.92381E+03  3.74534E+03 -3.46429E+03  2.64307E+03 -4.56582E+03  8.90636E+01 -3.17675E+03 -2.35599E+03
 -1.41499E+03 -3.19562E+03  6.93492E+02 -2.44800E+03  1.36276E+03 -1.33125E+03  2.16458E+03 -5.24143E+02
  1.91362E+03  4.09030E+02 -7.59632E+02  6.51821E+02  1.42131E+02 -7.99595E+02  5.10597E+02 -4.42040E+02
  1.82830E+03  3.21061E+02  8.84084E+02  9.57783E+02  2.12392E+03  1.71475E+03  6.74181E+02  8.14219E+02
 -2.37882E+03  2.85883E+02 -8.78308E+02  6.98007E+02 -1.63629E+03 -7.56684E+02 -7.85132E+02 -1.40746E+03
  1.01232E+03 -1.99417E+03  1.50858E+03 -2.46208E+01  2.12007E+03  6.42134E+02  5.88101E+02  8.59333E+02
 -1.18797E+02 -3.76041E+01 -6.01895E+02  7.74872E+02 -6.26238E+02  7.38099E+02 -3.57823E+02  5.45144E+02
 -3.33608E+02  1.25894E+02 -7.72631E+02  9.77143E+02 -1.73217E+02  3.71719E+01 -1.03562E+03  9.84855E+02
 -1.83567E+03 -1.23058E+03 -3.70555E+01 -1.50918E+03  1.81503E+03 -1.48092E+03  1.95173E+03 -1.06610E+03
  1.75796E+03  1.21536E+03  5.18385E+02  1.39283E+02 -9.99375E+02  2.20757E+03 -1.46434E+03  8.16422E+02
