 $NMID ID='MM_0lb_SNR200_7hz_g60_12.RAW', FMTDAT='(8E13.5)'
 TRAMP=1., VOLUME=1. $END
  3.08429E+05  2.11782E+03  3.37542E+05  2.51099E+05  8.55423E+04  3.36493E+05 -1.32059E+05  2.51614E+05
 -1.90532E+05  8.51832E+04 -1.13937E+05 -3.16442E+04  1.31896E+03 -5.13016E+04  5.42632E+04 -1.92918E+03
  3.44927E+04  5.30239E+04 -1.69079E+04  7.61461E+04 -6.28368E+04  6.38099E+04 -8.54836E+04  3.34616E+04
 -8.24099E+04 -1.20246E+04 -5.94464E+04 -5.47490E+04 -1.62546E+04 -7.18814E+04  2.80096E+04 -4.81139E+04
  4.05526E+04  4.00770E+03  1.69153E+04  5.00064E+04 -3.48631E+04  4.68187E+04 -7.05783E+04 -4.62606E+02
 -5.71484E+04 -6.05148E+04 -7.56045E+03 -7.96503E+04  3.54693E+04 -5.86508E+04  5.07477E+04 -1.79489E+04
  4.45771E+04  1.08490E+04  3.24089E+04  2.67300E+04  1.49506E+04  3.32427E+04 -6.91873E+03  2.83819E+04
 -2.42293E+04  1.35094E+04 -2.01657E+04 -5.38722E+03  7.50139E+03 -7.81453E+03  2.38843E+04  1.53959E+04
  8.04420E+03  3.92985E+04 -3.46449E+04  4.04220E+04 -6.75222E+04  2.35663E+03 -5.82569E+04 -4.52236E+04
 -1.14292E+04 -6.69523E+04  4.29728E+04 -4.90756E+04  6.26840E+04 -2.03010E+03  3.91928E+04  3.55563E+04
 -4.90575E+03  4.17456E+04 -3.27358E+04  1.98108E+04 -3.40610E+04 -2.66876E+03 -2.03695E+04 -1.28794E+04
 -1.09396E+04 -1.55936E+04 -2.49631E+02 -2.25479E+04  8.18652E+03 -2.49110E+04  1.43440E+04 -1.09606E+04
  9.35687E+03  5.20615E+03 -1.12095E+04  1.27791E+04 -2.37886E+04 -7.45684E+03 -9.02271E+03 -3.82938E+04
  2.61338E+04 -4.82146E+04  5.38355E+04 -2.20725E+04  5.12355E+04  2.01285E+04  1.93080E+04  4.73335E+04
 -1.78993E+04  3.73165E+04 -2.92877E+04  3.76116E+03 -1.25223E+04 -3.20098E+04  2.24951E+04 -3.95547E+04
  4.69076E+04 -1.29819E+04  4.13932E+04  2.68005E+04  2.00399E+04  5.20928E+04 -9.55099E+03  6.05832E+04
 -3.59309E+04  4.27278E+04 -5.06351E+04  1.29142E+04 -5.11692E+04 -1.97764E+04 -2.74342E+04 -4.64798E+04
  9.78863E+03 -4.69309E+04  3.53984E+04 -1.70822E+04  3.59942E+04  1.15707E+04  5.90048E+03  2.09835E+04
 -1.44100E+04  9.71076E+03 -1.31024E+04 -8.54663E+03  4.09469E+03 -1.29065E+04  1.78194E+04  3.40904E+03
  1.54822E+04  2.29257E+04 -2.83747E+03  2.74436E+04 -2.31193E+04  1.43842E+04 -3.39801E+04 -3.08727E+03
 -2.81401E+04 -1.88180E+04 -1.04606E+04 -2.82581E+04  2.66629E+03 -2.83157E+04  2.10543E+04 -2.42854E+04
  3.65860E+04 -1.54968E+04  4.09023E+04  7.07224E+03  2.98434E+04  2.71940E+04  3.59571E+03  4.45137E+04
 -2.07853E+04  3.69488E+04 -3.16928E+04  1.37259E+04 -2.20185E+04 -1.11473E+04 -4.45589E+03 -1.27878E+04
  3.26313E+00 -5.88814E+02 -1.05617E+04  8.08953E+03 -2.20261E+04  4.72815E+03 -2.29870E+04 -1.14311E+04
 -1.14741E+04 -2.57758E+04  6.14089E+03 -2.99815E+04  1.99838E+04 -2.26293E+04  2.46926E+04  4.98101E+02
  1.67622E+04  1.90009E+04 -1.24975E+03  2.73645E+04 -1.82539E+04  1.42668E+04 -2.60433E+04 -3.97510E+03
 -1.72868E+04 -2.21052E+04 -1.56972E+03 -3.21780E+04  1.29622E+04 -2.70280E+04  2.62396E+04 -1.21169E+04
  2.31454E+04 -1.27452E+03  1.92815E+04  4.88212E+03  9.55307E+03  2.59027E+03  1.39135E+04 -2.02039E+03
  2.53068E+04  2.88602E+03  2.78006E+04  1.95192E+04  1.99031E+04  4.26395E+04 -3.13161E+03  5.11232E+04
 -2.97252E+04  4.37687E+04 -4.82756E+04  2.16880E+04 -5.06763E+04 -4.29858E+03 -4.35547E+04 -2.91251E+04
 -1.58231E+04 -4.30129E+04  1.44000E+04 -3.87955E+04  3.39387E+04 -1.67859E+04  2.55582E+04  8.41461E+03
  1.09779E+04  2.28935E+04 -1.19983E+04  1.91946E+04 -2.20231E+04  1.07427E+03 -1.60001E+04 -1.62871E+04
 -4.04756E+02 -2.29478E+04  1.37072E+04 -1.57553E+04  1.53766E+04 -1.85958E+03  5.54646E+03  9.84391E+03
 -8.37207E+03  5.72075E+03 -1.08218E+04 -6.30307E+03 -3.90998E+03 -2.15631E+04  1.37160E+04 -2.18013E+04
  2.77440E+04 -1.41979E+04  3.16626E+04  4.75510E+03  2.90074E+04  2.32418E+04  1.35346E+04  3.40143E+04
 -7.93012E+03  3.66346E+04 -2.41220E+04  2.31489E+04 -2.83710E+04  4.45603E+03 -1.73851E+04 -7.62022E+03
 -9.48400E+03 -8.53259E+03 -1.50991E+03  1.92897E+03 -4.39150E+03  5.88800E+03 -7.25219E+03  5.70313E+03
 -1.86659E+04 -8.69994E+02 -1.64455E+04 -1.22801E+04 -6.32220E+03 -2.24051E+04  8.55800E+03 -1.81672E+04
  1.55570E+04 -8.03464E+03  1.23621E+04  4.50655E+03 -4.79955E+02  8.19323E+03 -1.08243E+04 -1.63580E+03
 -1.04316E+04 -1.27340E+04 -1.85815E+03 -1.76037E+04  1.12891E+04 -1.97116E+04  2.50288E+04 -1.09484E+04
  2.78122E+04  2.60307E+03  1.81093E+04  1.69634E+04  4.90157E+03  2.49760E+04 -1.15401E+04  1.99220E+04
 -1.39923E+04  5.11784E+03 -7.30398E+03 -2.75152E+03  2.41841E+03 -3.83619E+03  1.00518E+04  8.02678E+01
  7.79823E+03  8.45581E+03  2.37752E+03  1.60624E+04 -1.15453E+04  1.56510E+04 -1.93089E+04  2.52781E+03
 -1.39887E+04 -1.15670E+04  7.52286E+02 -1.54829E+04  9.71843E+03 -7.92127E+03  1.17348E+04  4.11881E+03
  3.67196E+03  1.45318E+04 -9.08752E+03  1.58089E+04 -1.68640E+04  7.12830E+03 -1.81150E+04 -7.05704E+03
 -1.07913E+04 -1.91414E+04  4.09522E+03 -2.31006E+04  1.88809E+04 -1.37645E+04  2.24826E+04  4.28119E+03
  1.30741E+04  1.65893E+04 -2.88143E+03  1.90744E+04 -1.50601E+04  1.15272E+04 -1.55863E+04 -8.68182E+02
 -1.22048E+04 -1.18245E+04 -4.32005E+03 -1.44240E+04  9.29047E+03 -1.30285E+04  1.06426E+04 -3.93610E+03
  4.01661E+03  3.17195E+03 -4.94949E+02 -4.35182E+01 -1.39976E+03 -6.24492E+03  4.06697E+03 -1.20164E+04
  1.65271E+04 -7.71483E+03  1.97770E+04  7.85451E+02  1.98266E+04  1.27555E+04  1.21943E+04  2.62152E+04
 -5.47771E+03  3.05222E+04 -2.45982E+04  2.25650E+04 -3.17285E+04  5.93116E+03 -2.79195E+04 -1.21423E+04
 -1.25202E+04 -2.27738E+04 -1.62324E+03 -1.92618E+04  6.60394E+03 -1.16590E+04  5.99555E+03 -8.47450E+03
  7.07222E+03 -2.55925E+03  6.11378E+03 -4.96132E+03  7.88194E+03 -1.63533E+03  1.11968E+04 -3.04559E+03
  1.46839E+04  2.24044E+03  8.45994E+03  1.29219E+04 -3.68025E+03  1.61571E+04 -1.43007E+04  1.32005E+04
 -1.96427E+04 -9.52595E+02 -1.30476E+04 -1.40221E+04 -8.22195E+02 -1.94682E+04  1.23154E+04 -2.04013E+04
  2.06016E+04 -1.17245E+04  2.57869E+04  4.22561E+03  1.79949E+04  1.70929E+04  3.33189E+03  2.35096E+04
 -9.96674E+03  1.94685E+04 -1.34910E+04  7.53245E+03 -1.02944E+04 -4.15615E+03 -4.25416E+03 -2.99395E+03
 -3.96253E+02 -7.46229E+02 -4.51395E+03  1.21122E+03 -7.82476E+03  2.33598E+03 -1.21004E+04 -2.52324E+03
 -8.38306E+03 -1.27119E+04  5.95609E+02 -1.94863E+04  1.37349E+04 -1.80573E+04  1.92312E+04 -5.50827E+03
  2.01329E+04  7.35867E+03  6.89971E+03  1.71972E+04 -3.67978E+03  2.06706E+04 -1.51580E+04  1.19247E+04
 -1.96676E+04  2.01391E+03 -1.49020E+04 -1.31778E+04 -2.14067E+03 -1.73815E+04  8.74165E+03 -1.06444E+04
  1.07866E+04 -3.36901E+03  8.67202E+03  4.11132E+03  3.80539E+03  5.15745E+03  7.48489E+02  3.15155E+03
  3.52165E+03  2.72207E+03  4.28219E+03  3.56370E+03  7.63429E+03  7.37431E+03  5.86643E+03  9.21365E+03
 -5.55288E+03  1.51590E+04 -1.43640E+04  1.53496E+04 -2.13022E+04  2.65861E+03 -2.11417E+04 -8.27530E+03
 -1.08678E+04 -1.97986E+04  3.29862E+03 -2.13955E+04  1.26481E+04 -1.41359E+04  1.61587E+04 -3.58208E+03
  1.34717E+04  7.79799E+03  2.98974E+03  1.18372E+04 -7.27309E+03  6.57289E+03 -7.82876E+03 -3.77333E+03
 -2.70470E+03 -8.93907E+03  3.78185E+03 -9.67580E+03  8.83968E+03 -4.72430E+03  6.66777E+03  2.11813E+03
  4.03913E+03  4.07883E+03  9.34529E+02  3.81311E+03 -2.74264E+02  1.87085E+03  3.33409E+02 -1.94794E+03
  5.62054E+03 -8.86439E+02  7.43772E+03  4.97309E+03  5.41778E+03  1.17749E+04 -2.47146E+03  1.35011E+04
 -1.10477E+04  1.01114E+04 -1.59096E+04  4.11197E+03 -1.23108E+04 -4.36764E+03 -4.47242E+03 -9.04645E+03
  3.09327E+03 -6.70981E+03  5.55541E+03 -4.19268E+03  5.18452E+03  2.87705E+03  9.84076E+01  8.17472E+03
 -9.81922E+03  3.60444E+03 -9.78601E+03 -4.74224E+03 -6.24788E+03 -1.20372E+04  3.38415E+03 -1.42501E+04
  7.27059E+03 -7.50800E+03  8.88012E+03 -9.45214E+02  8.03564E+03  3.98523E+03  1.01434E+03  7.08491E+03
 -5.53201E+03  3.46224E+03 -4.85853E+03 -4.19098E+03  2.20841E+03 -1.19421E+04  1.12530E+04 -7.65476E+03
  1.38780E+04  1.13768E+03  1.41407E+04  1.15859E+04  3.43129E+03  1.53035E+04 -4.40488E+03  1.23083E+04
 -1.06317E+04  8.54245E+03 -1.28542E+04 -2.42425E+03 -7.33164E+03 -9.19047E+03  2.12023E+03 -9.27788E+03
  8.97511E+03 -4.79204E+03  7.30859E+03  6.40229E+03  2.05214E+03  7.89832E+03 -3.44984E+03  8.34432E+03
 -2.66394E+03  5.32349E+03 -5.12002E+03  3.44741E+02 -1.57404E+03  4.42112E+02 -3.01204E+02  3.30977E+03
 -2.48957E+03  4.36151E+03 -9.13880E+03  4.38078E+03 -1.56472E+04  2.07772E+03 -1.67176E+04 -1.19167E+04
 -9.54313E+03 -1.99048E+04  3.80301E+03 -2.25529E+04  1.55145E+04 -1.57385E+04  2.10164E+04 -6.53554E+03
  2.02169E+04  3.76670E+03  1.12725E+04  1.42532E+04  1.44597E+03  1.57713E+04 -5.89977E+03  1.31147E+04
 -9.74342E+03  4.01082E+03 -5.31321E+03 -2.70621E+02 -1.80811E+03 -9.79438E+02 -1.48800E+03 -7.97937E+02
 -1.58042E+03  1.72162E+03 -1.99170E+03 -6.88809E+02 -1.47060E+03 -3.27259E+03 -7.67641E+02 -6.86871E+03
  6.41635E+03 -6.58455E+03  9.44778E+03 -5.41938E+02  1.06484E+04  6.18636E+03  3.90211E+03  1.70504E+04
 -7.43265E+03  1.80489E+04 -1.75821E+04  1.20861E+04 -1.85048E+04 -1.39353E+03 -1.46789E+04 -1.29679E+04
 -5.63834E+03 -1.77705E+04  6.10774E+03 -1.70004E+04  1.08336E+04 -1.03115E+04  1.26495E+04 -6.27887E+02
  2.36147E+03  5.80490E+03 -1.08480E+03  4.57132E+03 -2.15379E+03  2.23733E+02  6.76891E+01 -3.20428E+03
  5.07873E+03 -2.07796E+03  8.01224E+03  8.11102E+02  4.82830E+03  6.85088E+03  4.87625E+02  8.19318E+03
 -5.95134E+03  8.18793E+03 -1.08913E+04  2.21522E+02 -9.47772E+03 -6.77965E+03 -1.09621E+03 -1.37313E+04
  1.00558E+04 -9.41086E+03  1.27050E+04 -3.70727E+03  1.18087E+04  3.74172E+03  8.00235E+03  1.10383E+04
  2.80932E+02  1.23273E+04 -3.43146E+03  7.71225E+03 -6.94796E+03  2.73407E+03 -5.62724E+03  1.89997E+03
 -9.05122E+02  6.70623E+01 -3.81862E+03  1.31901E+03 -4.28576E+03  2.65528E+03 -9.80116E+03 -4.69879E+02
 -7.88331E+03 -6.88077E+03 -2.23250E+03 -1.02470E+04  3.96500E+03 -1.11841E+04  9.62301E+03 -4.76753E+03
  1.06317E+04  7.07678E+02  6.06964E+03  9.04224E+03 -1.02999E+03  1.05869E+04 -9.05174E+03  7.72611E+03
