 $NMID ID='MM_0lb_SNR200_13hz_g60_52.RAW', FMTDAT='(8E13.5)'
 TRAMP=1., VOLUME=1. $END
  3.09800E+05  1.38350E+03  3.37134E+05  2.51306E+05  8.50222E+04  3.38508E+05 -1.32372E+05  2.51807E+05
 -1.90819E+05  8.42328E+04 -1.12642E+05 -3.17817E+04  8.48496E+01 -5.11953E+04  5.34197E+04 -1.21859E+03
  3.59624E+04  5.24225E+04 -1.81394E+04  7.54386E+04 -6.08999E+04  6.26691E+04 -8.46222E+04  3.21521E+04
 -8.21239E+04 -1.05504E+04 -5.69908E+04 -5.23886E+04 -1.49338E+04 -6.96749E+04  2.81127E+04 -4.63692E+04
  4.11956E+04  3.06642E+03  1.56825E+04  4.89007E+04 -3.42628E+04  4.81078E+04 -6.77730E+04 -1.33509E+02
 -5.50818E+04 -5.86716E+04 -5.91109E+03 -7.71330E+04  3.35316E+04 -5.76908E+04  4.74211E+04 -1.77573E+04
  4.34363E+04  1.12439E+04  3.29451E+04  2.47917E+04  1.46382E+04  3.02046E+04 -5.64768E+03  2.69735E+04
 -2.27600E+04  1.06953E+04 -1.83994E+04 -4.19874E+03  5.76406E+03 -7.40895E+03  2.34352E+04  1.22275E+04
  7.65293E+03  3.56303E+04 -3.26001E+04  3.70408E+04 -6.51219E+04  1.67695E+03 -5.76172E+04 -4.27563E+04
 -1.29729E+04 -6.39716E+04  3.94263E+04 -4.69550E+04  5.94045E+04 -1.52433E+03  3.64117E+04  3.30884E+04
 -6.62949E+03  3.82651E+04 -3.23457E+04  1.62864E+04 -3.23114E+04 -4.31158E+03 -1.92453E+04 -1.04268E+04
 -9.42275E+03 -1.45769E+04 -3.14904E+02 -1.80506E+04  6.43411E+03 -2.40354E+04  1.65928E+04 -1.24591E+04
  1.23613E+04  5.88364E+03 -1.07804E+04  1.34207E+04 -2.27727E+04 -5.20983E+03 -7.90168E+03 -3.61809E+04
  2.40540E+04 -4.59149E+04  4.98431E+04 -1.91681E+04  4.74426E+04  2.01033E+04  1.72581E+04  4.55429E+04
 -1.69830E+04  3.48074E+04 -2.56355E+04  1.69924E+03 -1.12605E+04 -2.87156E+04  2.09682E+04 -3.36205E+04
  4.40304E+04 -1.02483E+04  3.92722E+04  2.55561E+04  2.03407E+04  4.77059E+04 -8.73073E+03  5.28876E+04
 -3.40681E+04  3.58805E+04 -4.43758E+04  1.06316E+04 -4.51714E+04 -1.60712E+04 -2.62703E+04 -4.00158E+04
  6.18742E+03 -4.09750E+04  3.38772E+04 -1.71587E+04  3.06905E+04  1.01297E+04  4.12253E+03  2.06002E+04
 -1.40764E+04  9.92691E+03 -1.28367E+04 -7.33990E+03  5.40778E+03 -1.04075E+04  1.83983E+04  6.05798E+03
  1.32896E+04  2.21078E+04 -6.31957E+03  2.57630E+04 -2.34940E+04  1.24792E+04 -2.95578E+04 -3.56592E+03
 -2.32292E+04 -1.73091E+04 -9.71836E+03 -2.22657E+04  3.51438E+03 -2.31012E+04  1.75927E+04 -2.04640E+04
  2.94253E+04 -1.30575E+04  3.71996E+04  4.13429E+03  2.52028E+04  2.26710E+04  3.94110E+03  3.92108E+04
 -1.83532E+04  3.20471E+04 -2.91455E+04  1.03441E+04 -2.19145E+04 -1.01009E+04 -4.87374E+03 -1.24454E+04
  8.06644E+02 -2.08128E+03 -6.88587E+03  6.97940E+03 -1.77310E+04  4.49975E+03 -1.87253E+04 -8.37756E+03
 -1.06511E+04 -2.10792E+04  6.82476E+03 -2.40531E+04  1.73779E+04 -1.76765E+04  1.99923E+04 -2.41947E+02
  1.19658E+04  1.42283E+04 -1.36186E+02  2.04628E+04 -1.43937E+04  1.09030E+04 -2.09264E+04 -4.95145E+03
 -1.55275E+04 -1.96942E+04 -1.50993E+03 -2.34224E+04  1.12660E+04 -1.92606E+04  2.10055E+04 -1.12745E+04
  1.95665E+04 -1.82501E+03  1.41547E+04  5.95801E+03  7.50734E+03  2.27153E+03  1.04490E+04 -1.27413E+03
  1.93416E+04  1.11497E+03  2.28395E+04  1.82529E+04  1.58973E+04  3.41896E+04 -2.60977E+03  3.96650E+04
 -2.25886E+04  3.13822E+04 -3.55576E+04  1.49817E+04 -3.86467E+04 -4.09134E+03 -3.10796E+04 -2.17313E+04
 -1.30568E+04 -3.19313E+04  1.12728E+04 -2.79610E+04  2.38878E+04 -1.42220E+04  2.14418E+04  5.80049E+03
  7.90622E+03  1.58808E+04 -1.11942E+04  1.29127E+04 -1.78675E+04  3.86027E+03 -1.40863E+04 -1.05682E+04
  2.00966E+02 -1.72248E+04  9.32238E+03 -1.33769E+04  1.09621E+04 -7.25167E+02  2.26591E+03  7.26793E+03
 -7.76525E+03  3.25806E+03 -7.99645E+03 -5.03830E+03 -1.26915E+03 -1.51996E+04  1.01276E+04 -1.67286E+04
  1.86163E+04 -9.31978E+03  2.16377E+04  2.46818E+03  1.77546E+04  1.59432E+04  8.74716E+03  2.51715E+04
 -3.75677E+03  2.55766E+04 -1.67348E+04  1.61852E+04 -1.90073E+04  3.74814E+03 -1.26427E+04 -5.23863E+03
 -6.47682E+03 -6.10190E+03 -1.91978E+03  1.04212E+02 -2.86708E+03  3.26799E+03 -5.69528E+03  3.98714E+03
 -1.08082E+04 -5.14504E+02 -1.22309E+04 -9.57871E+03 -6.03488E+03 -1.70315E+04  5.77135E+03 -1.37312E+04
  1.08126E+04 -6.13066E+03  8.61585E+03  3.02758E+03  5.06107E+01  5.43718E+03 -5.79084E+03 -9.54048E+01
 -4.89500E+03 -7.69643E+03 -5.78852E+02 -1.15497E+04  6.23227E+03 -1.30287E+04  1.53513E+04 -7.24955E+03
  2.01272E+04  1.83310E+03  1.28610E+04  1.04900E+04  2.28937E+03  1.52346E+04 -8.56670E+03  1.28629E+04
 -1.16975E+04  4.66011E+03 -6.24327E+03 -3.26722E+03  2.44315E+03 -3.43812E+03  8.52671E+03 -1.10953E+03
  6.12568E+03  5.98576E+03  8.59993E+02  9.88809E+03 -6.71997E+03  9.33716E+03 -1.12908E+04  1.52943E+03
 -8.39765E+03 -5.81830E+03  1.69872E+03 -8.92438E+03  6.36649E+03 -5.82572E+03  4.88309E+03  3.03411E+03
  1.67379E+03  7.60812E+03 -6.76059E+03  9.25714E+03 -9.92543E+03  2.55293E+03 -9.84186E+03 -3.68485E+03
 -5.11676E+03 -1.16646E+04  2.73759E+03 -1.33907E+04  1.19106E+04 -8.07713E+03  1.31789E+04  3.27337E+03
  7.02720E+03  1.03896E+04 -2.84972E+02  1.29133E+04 -8.80755E+03  6.33309E+03 -9.92012E+03 -4.67965E+02
 -8.23494E+03 -7.66249E+03 -3.05958E+03 -9.30643E+03  4.85875E+03 -7.00142E+03  5.72951E+03 -3.32048E+03
  4.62347E+03  1.80970E+02 -1.05669E+03  2.46790E+03 -1.30408E+03 -1.56220E+03  1.92250E+03 -4.44959E+03
  7.48573E+03 -2.58806E+03  1.09369E+04  5.27330E+02  1.08853E+04  7.36447E+03  7.63123E+03  1.55740E+04
 -3.42354E+03  1.87910E+04 -1.43856E+04  1.29956E+04 -1.90887E+04  1.86093E+03 -1.66337E+04 -5.65119E+03
 -7.56177E+03 -1.37625E+04 -2.10302E+02 -1.06489E+04  3.83549E+03 -5.21804E+03  4.31464E+03 -4.63029E+03
  3.96830E+03 -1.49906E+03  4.39484E+03 -1.70519E+03  3.92238E+03 -2.51691E+03  6.25857E+03  3.01180E+02
  7.41298E+03  1.83589E+03  4.24835E+03  6.89439E+03 -2.73325E+03  7.01710E+03 -9.00234E+03  6.84405E+03
 -9.60355E+03 -1.48509E+03 -5.72760E+03 -6.93496E+03 -9.30802E+02 -1.11685E+04  6.39468E+03 -1.10314E+04
  1.16499E+04 -6.15324E+03  1.38148E+04  1.40831E+03  1.00319E+04  9.63706E+03  1.68510E+03  1.20955E+04
 -4.97597E+03  1.06824E+04 -5.89334E+03  2.97033E+03 -5.38207E+03 -3.98011E+02 -1.32489E+03 -1.41902E+03
 -1.42223E+03  4.62718E+02 -1.25524E+03  1.97614E+03 -5.65874E+03  1.60787E+03 -6.64053E+03 -2.08951E+03
 -4.07813E+03 -6.40727E+03  2.13869E+02 -9.57163E+03  5.98564E+03 -9.75609E+03  9.60953E+03 -2.40065E+03
  9.96531E+03  3.52852E+03  5.45196E+03  8.12458E+03 -2.43768E+03  9.13685E+03 -6.16654E+03  6.28691E+03
 -8.53182E+03 -5.65185E+02 -7.95299E+03 -5.56567E+03 -4.32865E+02 -7.97337E+03  4.31982E+03 -5.22078E+03
  5.46122E+03 -2.03961E+03  3.49417E+03  1.20019E+03  1.96021E+03  3.35541E+03  1.01709E+03  1.34332E+03
  1.64443E+03 -1.61881E+02  3.56592E+03  2.02829E+03  2.31732E+03  3.02581E+03  2.72945E+03  5.27766E+03
 -2.51158E+03  8.48552E+03 -6.86263E+03  6.66674E+03 -1.13326E+04  2.05512E+03 -1.11476E+04 -3.79488E+03
 -4.99213E+03 -8.94514E+03  4.58080E+02 -1.12347E+04  4.79965E+03 -8.22176E+03  8.88977E+03 -2.14426E+03
  6.97142E+03  3.27983E+03  1.21960E+03  4.73707E+03 -2.95254E+03  4.31171E+03 -3.25724E+03 -6.49168E+02
 -1.67167E+03 -4.32631E+03  2.54534E+03 -4.79942E+03  5.55483E+03 -2.55250E+03  3.59971E+03  9.48739E+02
  2.38476E+03  3.52865E+02  7.85718E+02  1.01370E+03 -6.64164E+02  1.15573E+03  9.86702E+02 -5.83497E+02
  1.49203E+03 -2.14497E+02  4.18370E+03  1.56513E+03  3.33920E+03  5.46724E+03 -1.91930E+01  6.48526E+03
 -4.54563E+03  3.40323E+03 -6.26753E+03  2.29098E+03 -6.39460E+03 -2.23710E+03 -1.77758E+03 -3.24385E+03
  9.30446E+02 -2.36355E+03  2.81024E+03 -1.52103E+03  1.39313E+03  1.96050E+03  6.02853E+02  2.70626E+03
 -3.61287E+03  1.86794E+03 -5.45546E+03 -1.85334E+03 -2.58927E+03 -5.37158E+03  2.16739E+03 -3.52254E+03
  1.49707E+03 -1.84065E+03  4.52464E+03 -1.02157E+03  2.12145E+03  1.31576E+03  2.20664E+02  2.75716E+03
 -4.81328E+02 -7.30452E+02 -3.09242E+03  3.46010E+01  1.39797E+03 -3.94202E+03  4.89574E+03 -9.11508E+02
  6.21206E+03  1.19540E+03  6.76417E+03  3.06611E+03  1.49034E+03  5.19234E+03 -2.64786E+03  4.58127E+03
 -5.70491E+03  1.82135E+03 -3.94448E+03 -2.35171E+02 -2.93687E+03 -3.01939E+03  9.26974E+02 -2.37166E+03
  5.19143E+03 -1.72923E+03  1.96461E+03  6.00844E+02  1.10052E+03  1.88953E+03  8.89290E+02  3.62948E+03
 -2.04788E+03  1.21765E+03 -2.31343E+03  7.53728E+02 -1.59808E+02  1.27652E+03 -2.37015E+03  9.26468E+02
 -1.19454E+03  3.06357E+03 -3.85978E+03  1.75610E+03 -5.76202E+03  1.27164E+02 -6.13715E+03 -1.91167E+03
 -3.94074E+03 -7.46442E+03  1.08779E+03 -8.25557E+03  4.27408E+03 -7.16239E+03  7.81994E+03 -2.75563E+03
  6.84471E+03  1.21801E+03  3.57911E+03  5.75583E+03  3.49472E+02  4.59292E+03 -2.23349E+03  4.03928E+03
 -3.26246E+03  8.85640E+02 -2.11865E+03 -2.32194E+03 -1.13533E+03 -1.01748E+03 -8.99403E+02 -2.45212E+02
 -3.70121E+02 -1.00217E+03 -1.94739E+03 -4.79513E+02 -1.45195E+03 -1.82439E+03 -4.19438E+02 -7.99147E+02
  3.05483E+03 -1.07830E+03  3.34812E+03  1.40254E+03  4.02246E+03  2.82225E+03  5.03003E+02  4.21417E+03
 -2.72126E+03  6.37740E+03 -5.77896E+03  3.11755E+03 -5.05765E+03 -7.42151E+02 -4.48108E+03 -3.12151E+03
 -1.58514E+03 -4.75163E+03  8.59355E+02 -3.51096E+03  3.94575E+03 -1.63115E+03  2.54249E+03  1.91630E+03
  2.65898E+03  1.66771E+03  6.75369E+02  9.43561E+02 -3.50349E+02 -1.79139E+03 -1.20286E+03 -1.71154E+03
  8.79913E+02 -1.45665E+03  2.25386E+03  1.58499E+03  1.10741E+03  2.71262E+03 -5.10806E+01  2.57556E+03
 -1.81106E+03  1.96649E+03 -3.07415E+03 -1.20895E+03 -2.44819E+03 -6.63243E+02  8.73711E+01 -3.58528E+03
  2.28305E+03 -3.02746E+03  2.66493E+03 -3.76890E+02  3.50796E+03  1.19617E+03  2.39618E+03  3.43598E+03
 -4.76422E+02  3.13723E+03 -1.24428E+03  2.95713E+03 -2.43664E+03  7.40189E+02 -7.32498E+02  9.06626E+02
 -5.18089E+02  2.98570E+02  4.15884E+02  1.21602E+03 -1.62502E+03  1.29887E+03 -1.83345E+03 -6.76403E+02
 -7.17100E+02 -9.22597E+02 -1.96176E+03 -3.00332E+03  2.35670E+03 -4.33142E+03  1.67465E+03 -9.57404E+02
  2.14092E+03  7.17381E+02  1.10596E+03  2.83906E+03  2.46644E+02  1.96021E+03 -2.16972E+03  2.68389E+03
