 $NMID ID='MM_0lb_SNR200_10hz_g45_59.RAW', FMTDAT='(8E13.5)'
 TRAMP=1., VOLUME=1. $END
  3.10476E+05  7.21503E+02  3.37127E+05  2.50772E+05  8.51392E+04  3.38615E+05 -1.32293E+05  2.51704E+05
 -1.91696E+05  8.34911E+04 -1.12028E+05 -2.98007E+04 -5.03320E+01 -5.22587E+04  5.47621E+04  4.70267E+02
  3.42108E+04  5.44990E+04 -1.71466E+04  7.59966E+04 -6.05408E+04  6.37565E+04 -8.57995E+04  3.34273E+04
 -8.20768E+04 -1.36643E+04 -5.85285E+04 -5.08256E+04 -1.63922E+04 -6.95477E+04  2.73888E+04 -4.54656E+04
  4.12683E+04  3.21581E+03  1.63807E+04  4.77243E+04 -3.43586E+04  4.98502E+04 -6.66143E+04  1.00174E+03
 -5.40435E+04 -5.71935E+04 -8.39146E+03 -7.86882E+04  3.56288E+04 -5.67373E+04  4.91369E+04 -1.66281E+04
  4.61515E+04  1.15113E+04  3.13604E+04  2.75792E+04  1.60235E+04  2.89642E+04 -4.80242E+03  2.73367E+04
 -2.39169E+04  1.32744E+04 -1.91782E+04 -5.16888E+03  6.00966E+03 -6.92159E+03  2.27535E+04  1.28036E+04
  7.30664E+03  3.79723E+04 -3.39850E+04  3.64183E+04 -6.49564E+04  1.45662E+03 -6.08349E+04 -4.46325E+04
 -1.32068E+04 -6.45541E+04  4.08560E+04 -4.74653E+04  5.96854E+04 -2.49465E+03  3.62838E+04  3.41135E+04
 -4.76244E+03  3.84357E+04 -3.11636E+04  1.86396E+04 -3.14372E+04 -2.85413E+03 -1.88718E+04 -1.27155E+04
 -8.35231E+03 -1.50334E+04 -5.97486E+02 -1.83075E+04  8.03242E+03 -2.26313E+04  1.55168E+04 -1.14772E+04
  1.06122E+04  5.31661E+03 -8.69467E+03  1.28727E+04 -2.23160E+04 -6.11486E+03 -9.53310E+03 -3.67165E+04
  2.48336E+04 -4.63590E+04  5.26860E+04 -1.98458E+04  4.71179E+04  1.98659E+04  1.67843E+04  4.66144E+04
 -1.59359E+04  3.64456E+04 -2.55368E+04  1.37820E+03 -1.07178E+04 -2.80675E+04  2.23857E+04 -3.56699E+04
  4.31775E+04 -1.18897E+04  3.91029E+04  2.49946E+04  2.05262E+04  4.81126E+04 -8.40471E+03  5.43692E+04
 -3.53218E+04  3.62185E+04 -4.56664E+04  1.08761E+04 -4.53333E+04 -1.86212E+04 -2.47593E+04 -4.03469E+04
  7.14685E+03 -4.16064E+04  3.38589E+04 -1.47843E+04  3.05045E+04  1.03561E+04  5.51653E+03  1.92177E+04
 -1.30668E+04  9.35384E+03 -1.03756E+04 -7.98006E+03  4.99709E+03 -1.29605E+04  1.78819E+04  6.68118E+03
  1.47785E+04  2.07461E+04 -5.14500E+03  2.75938E+04 -2.32975E+04  1.40720E+04 -2.97322E+04 -2.34275E+03
 -2.34449E+04 -1.90138E+04 -1.08864E+04 -2.34630E+04  5.51093E+03 -2.42385E+04  2.02336E+04 -2.11888E+04
  3.02883E+04 -1.47528E+04  3.77371E+04  4.35350E+03  2.61807E+04  2.35174E+04  2.54371E+03  3.97745E+04
 -1.96217E+04  3.25039E+04 -2.86547E+04  1.13248E+04 -2.32131E+04 -9.28040E+03 -5.61880E+03 -1.30972E+04
  1.42142E+03 -2.79368E+03 -5.90183E+03  7.51322E+03 -2.04041E+04  5.80803E+03 -1.85903E+04 -8.87015E+03
 -1.07526E+04 -2.21573E+04  6.55104E+03 -2.59845E+04  1.64430E+04 -2.00146E+04  2.08473E+04 -1.64280E+02
  1.36266E+04  1.59858E+04 -5.90117E+02  2.21057E+04 -1.67785E+04  1.24290E+04 -2.13270E+04 -5.18311E+03
 -1.57183E+04 -1.92410E+04 -1.38061E+03 -2.64827E+04  1.25788E+04 -2.33313E+04  2.22162E+04 -1.26404E+04
  2.13991E+04  9.00449E+02  1.58916E+04  5.86489E+03  8.04112E+03  6.83241E+02  1.10584E+04 -1.78703E+03
  1.84584E+04  3.47990E+03  2.36935E+04  1.86442E+04  1.51610E+04  3.47196E+04 -3.17175E+03  4.31951E+04
 -2.26392E+04  3.34491E+04 -3.90339E+04  1.63837E+04 -4.11616E+04 -4.69277E+03 -3.38455E+04 -2.45485E+04
 -1.33189E+04 -3.53869E+04  1.18683E+04 -2.95762E+04  2.54418E+04 -1.34683E+04  2.28942E+04  8.99128E+03
  8.13918E+03  1.66222E+04 -1.11675E+04  1.48292E+04 -1.91440E+04  3.08461E+03 -1.33939E+04 -1.09660E+04
  2.62938E+02 -1.89451E+04  9.12260E+03 -1.32046E+04  1.20286E+04 -2.14174E+03  3.88601E+03  9.05702E+03
 -8.20219E+03  2.62585E+03 -7.72416E+03 -7.85451E+03  2.77472E+02 -1.63066E+04  1.10628E+04 -1.72325E+04
  2.11849E+04 -8.39355E+03  2.45212E+04  3.24709E+03  2.12565E+04  1.69667E+04  8.38350E+03  2.60167E+04
 -4.29793E+03  2.91733E+04 -1.69328E+04  1.65275E+04 -2.13701E+04  3.66322E+03 -1.46064E+04 -5.32681E+03
 -5.14403E+03 -7.00444E+03 -1.30428E+03  1.18029E+03 -1.67979E+03  2.72684E+03 -5.63627E+03  5.23316E+03
 -1.37300E+04 -1.02589E+02 -1.32882E+04 -1.13103E+04 -5.34082E+03 -1.76944E+04  5.81575E+03 -1.33869E+04
  1.05125E+04 -5.46209E+03  9.23000E+03  4.32237E+03  2.01865E+02  5.70636E+03 -6.49674E+03  4.58160E+01
 -6.14420E+03 -9.15667E+03 -1.35940E+02 -1.40583E+04  9.59834E+03 -1.54410E+04  1.83486E+04 -8.53278E+03
  2.01453E+04  1.62616E+03  1.70775E+04  1.30008E+04  1.76267E+03  1.72623E+04 -9.41338E+03  1.46454E+04
 -1.11384E+04  4.17921E+03 -5.79331E+03 -2.66179E+03  1.68645E+03 -3.93098E+03  7.28005E+03 -1.05788E+03
  7.20639E+03  5.55728E+03  3.68878E+02  1.26075E+04 -8.12786E+03  1.07125E+04 -1.41402E+04  3.76537E+03
 -9.85938E+03 -7.17930E+03  8.02609E+02 -1.23147E+04  9.02104E+03 -6.10983E+03  9.33969E+03  2.54990E+03
  8.06440E+02  9.39415E+03 -5.79672E+03  9.57774E+03 -1.25868E+04  5.62952E+03 -1.21984E+04 -4.03757E+03
 -8.00696E+03 -1.41309E+04  3.61531E+03 -1.65118E+04  1.36973E+04 -9.79539E+03  1.54831E+04  2.54842E+03
  9.79638E+03  1.24234E+04 -2.05076E+03  1.37500E+04 -9.36529E+03  9.28414E+03 -1.15002E+04 -1.22808E+03
 -1.10529E+04 -1.05278E+04 -2.72534E+03 -1.03176E+04  6.94142E+03 -9.00592E+03  5.42402E+03 -3.10556E+03
  5.16436E+03  1.86615E+03 -8.85887E+02  3.60988E+03 -1.05854E+02 -1.68029E+03  1.84196E+03 -5.70116E+03
  9.24103E+03 -4.11235E+03  1.40357E+04  7.53596E+02  1.49870E+04  9.56351E+03  9.26089E+03  1.74878E+04
 -3.99794E+03  2.20823E+04 -1.61764E+04  1.65524E+04 -2.25870E+04  2.90010E+03 -1.78620E+04 -7.02281E+03
 -9.55407E+03 -1.47103E+04  1.02067E+02 -1.28004E+04  6.09433E+03 -6.34736E+03  5.28432E+03 -3.83149E+03
  2.44548E+03 -2.42080E+03  3.20337E+03 -4.19298E+03  5.09280E+03 -2.06124E+03  7.15891E+03 -9.13477E+01
  8.37671E+03  1.42727E+03  4.80062E+03  8.68949E+03 -1.09935E+03  1.02756E+04 -1.03620E+04  9.40549E+03
 -1.21790E+04 -2.54941E+03 -6.20004E+03 -9.05011E+03  7.60945E+02 -1.31093E+04  7.95011E+03 -1.37162E+04
  1.47901E+04 -6.78987E+03  1.66515E+04  1.88483E+03  1.10659E+04  1.03702E+04  1.49494E+03  1.39648E+04
 -6.61202E+03  1.30156E+04 -8.94107E+03  3.97508E+03 -5.90172E+03 -4.89753E+02 -2.54448E+03 -1.46373E+03
 -2.17697E+03 -1.26606E+01 -3.00069E+03  4.54626E+03 -4.86711E+03  3.47651E+03 -8.89058E+03 -4.56584E+02
 -5.99974E+03 -8.42228E+03 -4.64698E+02 -1.33657E+04  9.28102E+03 -1.23239E+04  1.22178E+04 -3.84174E+03
  1.25889E+04  7.11270E+03  6.67506E+03  1.15783E+04 -2.34575E+03  1.28367E+04 -7.97633E+03  8.53461E+03
 -1.09224E+04  3.50345E+02 -9.40726E+03 -9.40420E+03 -8.50534E+02 -1.12617E+04  6.06698E+03 -8.96824E+03
  6.65091E+03 -3.87457E+03  5.50546E+03  2.48644E+03  1.79958E+03  4.00063E+03  2.50742E+03  1.17247E+03
  1.30886E+03  5.59795E+02  3.00068E+03  2.35765E+03  4.14942E+03  4.38152E+03  4.04162E+03  5.97911E+03
 -3.43309E+03  9.81213E+03 -8.62558E+03  1.09672E+04 -1.23188E+04  3.28896E+03 -1.27203E+04 -4.83195E+03
 -5.84674E+03 -1.24629E+04  7.01453E+02 -1.43164E+04  8.83162E+03 -8.24384E+03  1.13963E+04 -2.16474E+03
  8.29127E+03  4.25615E+03  2.15341E+03  7.92915E+03 -2.63848E+03  4.11743E+03 -4.28342E+03 -1.16549E+03
 -2.73919E+03 -5.72025E+03  4.51734E+03 -6.67222E+03  5.66982E+03 -3.10320E+03  4.75889E+03  2.53176E+02
  3.80553E+03  2.96201E+03  1.27222E+03  1.88968E+03 -9.60178E+02  1.94797E+03  1.87697E+03 -1.72600E+03
  2.35806E+03 -7.49481E+02  6.73366E+03  2.63713E+03  1.26885E+03  7.41120E+03 -2.34287E+03  9.04532E+03
 -6.94711E+03  4.09526E+03 -8.63368E+03  1.64254E+03 -7.21599E+03 -3.11190E+03 -2.01987E+03 -5.59811E+03
  8.66512E+01 -5.46129E+03  2.80721E+03 -2.22336E+03  1.93089E+03  1.57245E+03 -1.62493E+03  3.52868E+03
 -4.82180E+03  2.53127E+03 -5.72996E+03 -3.24647E+03 -4.85151E+03 -5.24904E+03  3.15742E+02 -6.77907E+03
  2.47801E+03 -4.38072E+03  5.25844E+03 -3.02172E+02  3.73648E+03  1.17419E+03 -8.26812E+02  3.54149E+03
 -9.44743E+02  1.05444E+03 -3.43104E+03 -3.77376E+03  1.98217E+03 -6.66015E+03  6.05254E+03 -3.57441E+03
  6.79176E+03  7.45642E+01  8.35689E+03  6.02713E+03  2.45711E+03  9.13681E+03 -3.54326E+03  7.26310E+03
 -6.35978E+03  3.25422E+03 -6.36362E+03 -7.78430E+02 -4.88037E+03 -6.54107E+03  2.27393E+03 -5.62985E+03
  5.18805E+03 -1.74398E+03  6.02594E+03  1.51371E+03  1.06786E+03  4.03356E+03 -1.25305E+03  4.15246E+03
 -2.01993E+03  3.07950E+03 -1.07403E+03  1.78903E+01  6.75930E+02  1.43374E+03 -1.22802E+03  1.82544E+03
 -8.42631E+02  3.76784E+03 -5.86834E+03  3.79773E+03 -7.00180E+03 -9.42747E+02 -1.04548E+04 -5.81420E+03
 -3.73643E+03 -1.10387E+04  2.12305E+03 -1.37659E+04  8.10923E+03 -1.04834E+04  1.13476E+04 -2.80312E+03
  1.05686E+04  3.03212E+03  7.19518E+03  6.78529E+03  1.25591E+03  9.12170E+03 -3.58006E+03  6.48296E+03
 -5.59855E+03  2.92567E+03 -2.98394E+03 -2.51969E+03 -4.05635E+02 -1.45497E+03  7.94710E+01  3.54976E+02
  2.15293E+02 -1.12822E+02 -2.49722E+03  1.24777E+03 -7.14042E+02 -9.90394E+01  1.93772E+02 -2.42809E+03
  5.09276E+03 -2.70618E+03  5.85152E+03 -3.58517E+01  6.11182E+03  5.86625E+03  1.67938E+03  7.82605E+03
 -3.20766E+03  9.32773E+03 -9.57861E+03  5.85617E+03 -1.11614E+04 -4.15672E+02 -7.03655E+03 -5.37985E+03
 -2.49439E+03 -8.01750E+03  7.54779E+02 -7.77818E+03  5.09343E+03 -3.25494E+03  5.85768E+03 -3.83291E+02
  3.29667E+03  2.70848E+03  1.66081E+03  2.73108E+03 -7.31575E+02  4.31669E+02 -4.71809E+02 -1.85383E+03
  3.54847E+03 -4.94663E+02  4.53533E+03  1.04137E+03  2.56276E+03  3.62704E+03 -1.01791E+03  2.78041E+03
 -4.70677E+03  3.58329E+03 -7.37328E+03  9.50584E+01 -4.55393E+03 -4.41459E+03 -1.49208E+03 -6.60325E+03
  4.60580E+03 -6.26320E+03  7.55344E+03 -1.40486E+03  6.07474E+03  1.55011E+03  4.62177E+03  5.26219E+03
  5.60669E+02  6.08722E+03 -2.18101E+03  5.26918E+03 -2.67005E+03  3.02481E+03 -9.68235E+02 -1.05927E+02
 -5.05705E+02 -4.82601E+02 -1.65041E+03  6.18184E+02 -4.11759E+03  7.57735E+02 -4.87710E+03 -6.63077E+02
 -4.00041E+03 -2.35570E+03 -1.97749E+03 -5.90364E+03  2.55654E+03 -5.76561E+03  4.80714E+03 -2.19132E+03
  3.93409E+03  1.12357E+03  1.91257E+03  3.12287E+03  1.27389E+01  5.35458E+03 -3.51584E+03  2.71776E+03
