 $NMID ID='MM_0lb_SNR200_17hz_g45_3.RAW', FMTDAT='(8E13.5)'
 TRAMP=1., VOLUME=1. $END
  3.09986E+05  4.94165E+02  3.38300E+05  2.50075E+05  8.47132E+04  3.36902E+05 -1.31985E+05  2.50008E+05
 -1.91166E+05  8.22791E+04 -1.11697E+05 -3.29668E+04  1.75895E+03 -5.03008E+04  5.44014E+04  7.98650E+01
  3.54379E+04  5.31471E+04 -1.74047E+04  7.51101E+04 -5.89973E+04  6.27910E+04 -8.27723E+04  3.25665E+04
 -8.01310E+04 -1.12769E+04 -5.61791E+04 -5.00611E+04 -1.53262E+04 -6.92715E+04  2.79462E+04 -4.40733E+04
  3.93768E+04  3.87897E+03  1.53528E+04  4.73357E+04 -3.39343E+04  4.71010E+04 -6.50041E+04  5.39569E+00
 -5.27249E+04 -5.52785E+04 -7.05291E+03 -7.55988E+04  3.42346E+04 -5.37287E+04  4.73762E+04 -1.57190E+04
  4.12409E+04  1.11857E+04  3.01473E+04  2.38074E+04  1.54422E+04  3.01010E+04 -4.08616E+03  2.67450E+04
 -2.09174E+04  1.24771E+04 -1.90037E+04 -5.19416E+03  4.66842E+03 -7.52697E+03  2.16448E+04  1.10656E+04
  7.47605E+03  3.40157E+04 -3.04320E+04  3.41465E+04 -6.14724E+04  1.57861E+03 -5.58358E+04 -4.24006E+04
 -1.16499E+04 -6.09504E+04  3.81449E+04 -4.38697E+04  5.60320E+04 -2.28735E+03  3.40135E+04  3.07311E+04
 -6.76842E+03  3.35857E+04 -2.80637E+04  1.41205E+04 -2.99579E+04 -4.39768E+03 -1.46723E+04 -1.15765E+04
 -6.95821E+03 -1.14035E+04 -8.85791E+02 -1.80047E+04  5.76584E+03 -2.22851E+04  1.55647E+04 -1.43180E+04
  1.26652E+04  4.09409E+03 -5.85042E+03  1.33379E+04 -1.92649E+04 -2.26311E+03 -7.46578E+03 -3.22936E+04
  2.05206E+04 -4.05216E+04  4.60171E+04 -1.83207E+04  4.26870E+04  1.86033E+04  1.43816E+04  4.20638E+04
 -1.46311E+04  3.09550E+04 -2.51846E+04  4.14986E+02 -8.88472E+03 -2.72829E+04  2.07415E+04 -3.21405E+04
  3.83307E+04 -6.77370E+03  3.22828E+04  2.28171E+04  1.51441E+04  4.31377E+04 -8.41032E+03  4.61258E+04
 -3.01598E+04  3.03926E+04 -3.94043E+04  9.63075E+03 -3.89539E+04 -1.63049E+04 -2.14858E+04 -3.53669E+04
  7.42548E+03 -3.52183E+04  3.07455E+04 -1.36132E+04  2.79143E+04  1.10803E+04  4.01042E+03  1.79629E+04
 -1.21469E+04  7.97746E+03 -9.83899E+03 -6.27154E+03  6.96224E+03 -1.05734E+04  1.76352E+04  5.47293E+03
  1.27207E+04  2.30202E+04 -6.22599E+03  2.37855E+04 -2.21304E+04  9.95647E+03 -2.53475E+04 -4.68207E+03
 -1.75918E+04 -1.71170E+04 -6.53907E+03 -1.84738E+04  3.84019E+03 -1.64729E+04  1.42020E+04 -1.49326E+04
  2.18929E+04 -1.20168E+04  2.87414E+04  1.17452E+03  2.22239E+04  1.71127E+04  4.67104E+03  3.26156E+04
 -1.68025E+04  2.86217E+04 -2.67030E+04  1.06950E+04 -2.07468E+04 -1.01971E+04 -4.33799E+03 -1.35874E+04
  2.75753E+03 -3.82996E+03 -2.84576E+03  5.55284E+03 -1.31526E+04  6.32447E+03 -1.47144E+04 -5.80317E+03
 -9.35873E+03 -1.62620E+04  4.99723E+03 -2.01851E+04  1.44987E+04 -1.49099E+04  1.59041E+04 -2.11741E+03
  1.02585E+04  1.08343E+04 -1.17369E+03  1.65756E+04 -1.14854E+04  8.76914E+03 -1.65909E+04 -3.93774E+03
 -1.19102E+04 -1.47954E+04 -1.41554E+03 -2.02309E+04  8.65775E+03 -1.57556E+04  1.61882E+04 -7.29155E+03
  1.54086E+04  5.06462E+02  1.14910E+04  3.73713E+03  6.49423E+03  1.11316E+03  8.40455E+03 -3.62051E+02
  1.51421E+04  3.22773E+03  1.59343E+04  1.23392E+04  9.99718E+03  2.57562E+04 -1.96983E+03  2.79641E+04
 -1.71688E+04  2.22084E+04 -2.63253E+04  1.14008E+04 -2.68656E+04 -8.79927E+02 -2.29544E+04 -1.54712E+04
 -1.02092E+04 -2.24978E+04  8.15906E+03 -2.14516E+04  1.75099E+04 -1.18759E+04  1.52752E+04  4.81565E+03
  7.57905E+03  1.29054E+04 -6.97788E+03  1.14256E+04 -1.55216E+04  3.14148E+03 -1.14326E+04 -8.95077E+03
 -9.00452E+01 -1.23438E+04  6.90125E+03 -9.82243E+03  8.62125E+03 -4.43726E+01  1.63363E+03  5.04439E+03
 -5.35174E+03  2.15915E+03 -3.98623E+03 -3.96697E+03 -2.77585E+01 -1.11090E+04  9.10544E+03 -1.18263E+04
  1.37423E+04 -4.61079E+03  1.41362E+04  2.66449E+03  1.08752E+04  1.09476E+04  6.19748E+03  1.55014E+04
 -1.73515E+03  1.67466E+04 -1.14390E+04  1.01586E+04 -1.31597E+04  2.63637E+03 -9.67083E+03 -1.79353E+03
 -4.28441E+03 -2.67402E+03 -7.05348E+02  1.39875E+03 -2.80920E+03  2.48816E+03 -4.87274E+03  2.75376E+03
 -8.48596E+03 -7.42479E+02 -9.11895E+03 -8.92541E+03 -3.89211E+03 -1.16105E+04  4.28522E+03 -8.81537E+03
  7.54390E+03 -4.21628E+03  5.88439E+03  1.41882E+03  5.21768E+02  2.58497E+03 -3.85645E+03 -3.35921E+01
 -3.66318E+03 -5.96330E+03 -4.67432E+02 -8.64325E+03  4.81562E+03 -7.85930E+03  1.09001E+04 -5.03691E+03
  1.34095E+04  5.84853E+02  9.59361E+03  6.51353E+03  2.92366E+03  9.42033E+03 -6.85643E+03  8.31296E+03
 -6.85682E+03  3.47089E+03 -3.77634E+03 -1.21976E+03  6.93095E+02 -1.90033E+03  4.17104E+03 -1.60446E+03
  3.59566E+03  3.75271E+03  8.44309E+02  6.63283E+03 -3.97005E+03  7.29498E+03 -8.50286E+03  1.72788E+03
 -4.96840E+03 -3.10829E+03  4.32712E+02 -6.51173E+03  4.83763E+03 -3.70419E+03  3.82295E+03  2.52316E+03
  6.34432E+02  2.59553E+03 -3.90874E+03  4.04339E+03 -5.44831E+03  2.59654E+03 -5.88422E+03 -1.64270E+03
 -4.33839E+03 -6.33688E+03  2.11840E+03 -8.54612E+03  6.76722E+03 -5.56892E+03  6.35597E+03 -6.04421E+02
  5.24101E+03  6.26513E+03  3.72852E+02  8.71035E+03 -6.20835E+03  4.51775E+03 -6.76068E+03  3.07743E+02
 -6.90601E+03 -5.57285E+03 -2.12937E+03 -5.51256E+03  2.21913E+03 -5.08052E+03  3.38643E+03 -2.10136E+03
  3.82589E+03 -3.09235E+02 -1.26388E+03  1.36289E+03  1.24400E+02 -1.41631E+03  5.01924E+02 -1.96176E+03
  4.49951E+03 -4.80097E+02  7.02710E+03  9.47266E+02  5.26068E+03  4.71011E+03  6.25260E+03  8.81920E+03
 -5.63811E+02  1.07175E+04 -9.53953E+03  8.23522E+03 -1.18585E+04  1.30383E+03 -8.66690E+03 -4.01443E+03
 -3.70304E+03 -7.70968E+03 -9.81087E+02 -5.11757E+03  2.71687E+03 -2.94625E+03  1.41055E+03 -2.43685E+03
  1.08923E+03 -1.87461E+03  2.23026E+03 -3.06122E+03  4.01126E+03 -8.57408E+02  3.83529E+03  2.56590E+02
  4.57834E+03  1.93816E+03  2.33949E+03  3.82164E+03 -1.93336E+03  4.09106E+03 -4.56720E+03  3.68548E+03
 -6.57191E+03 -2.60469E+03 -2.77500E+03 -4.26188E+03  1.55249E+03 -6.32827E+03  3.78504E+03 -6.35153E+03
  6.48354E+03 -4.00750E+03  8.77165E+03  4.02362E+02  5.24089E+03  4.73431E+03  7.82937E+02  7.68728E+03
 -3.52369E+03  5.36963E+03 -3.81282E+03  2.23539E+03 -2.53369E+03 -9.53717E+02 -4.79587E+02 -2.95045E+02
 -1.63359E+03  1.31407E+02 -2.36407E+02  2.12672E+03 -1.12550E+03  9.94858E+02 -4.96375E+03 -7.00314E+02
 -1.83935E+03 -5.11033E+03  1.28234E+02 -5.03441E+03  3.29254E+03 -4.61775E+03  4.60390E+03 -3.42815E+02
  4.41050E+03  3.22757E+03  1.53444E+03  3.67553E+03 -1.60292E+03  4.98646E+03 -2.87672E+03  3.54335E+03
 -4.51459E+03  4.83741E+02 -2.95988E+03 -2.35513E+03 -5.35849E+02 -3.92907E+03  2.02577E+03 -3.33193E+03
  3.86983E+03 -2.49810E+03  3.17601E+03  3.63343E+02  7.81185E+02  1.80407E+03 -1.76881E+02  4.50958E+02
  2.74698E+03  6.58107E+02  1.60496E+03  1.61780E+03  2.06247E+03  2.07930E+03  1.79276E+03  2.54306E+03
 -9.91402E+02  3.10332E+03 -4.47553E+03  3.74277E+03 -3.84143E+03  6.39890E+02 -4.95622E+03 -7.82337E+02
 -2.08439E+03 -4.17032E+03  2.06613E+03 -5.89470E+03  2.95282E+03 -2.38411E+03  3.94141E+03 -1.99575E+03
  3.28831E+03  1.18408E+03 -1.07285E+02  3.15001E+03 -1.36614E+03  6.31845E+02 -7.21332E+02  1.65618E+02
 -7.18312E+02 -1.89126E+03  2.58095E+03 -6.33698E+02  1.72615E+03 -3.58166E+02  1.88603E+03 -8.57691E+02
  1.02731E+03  1.42097E+03  7.99197E+02 -1.48254E+03  6.00190E+01  1.50266E+03  7.84168E+02  1.94979E+02
 -4.08634E+02 -5.06109E+02  2.03146E+03  2.29852E+02  7.74028E+01  3.55550E+03  5.51328E+02  1.67641E+03
 -1.56182E+03  1.72826E+03 -2.75988E+03  3.83335E+02 -3.00486E+03 -1.09467E+03  1.48777E+02 -4.47809E+02
 -9.33495E+02 -1.10722E+03  2.03471E+03 -5.19909E+02  3.63540E+02  2.08311E+03 -1.48328E+03  7.60876E+02
 -1.53155E+03  3.11081E+02 -2.21601E+03 -7.78935E+02 -1.58617E+03 -3.15530E+03 -3.70612E+02 -2.70504E+03
  1.92562E+03 -5.63950E+02  1.31990E+02 -2.98565E+02  1.67906E+03 -4.37995E+02  1.79391E+02  1.13139E+03
 -6.78891E+02  3.68502E+01 -7.42419E+02 -1.88428E+03  5.85390E+02 -1.22656E+03  1.05923E+03 -1.49040E+03
  8.41359E+02 -6.56073E+02  3.88224E+03  1.26998E+03  2.33441E+03  1.81752E+03 -3.71654E+02  2.09168E+03
 -2.40746E+03 -6.41986E+02 -1.96026E+03  4.62754E+01 -1.39869E+03 -1.21243E+03  3.00225E+02 -9.61626E+02
  1.84788E+03 -1.29704E+03  1.16243E+03  6.35297E+02 -5.85531E+02  2.06485E+03 -7.36690E+02  1.42657E+03
 -1.83038E+02  1.44167E+03 -4.45330E+02  2.15306E+02 -6.95351E+01 -1.71780E+01 -8.74548E+02  9.16460E+02
 -5.32637E+02  1.11834E+03 -2.37783E+03  6.14018E+01 -2.20329E+03  1.29515E+03 -2.02552E+03 -1.26327E+03
 -1.85961E+03 -2.83354E+03  5.54060E+02 -3.65598E+03  1.97928E+03 -3.28020E+03  3.87299E+03 -1.56119E+03
  3.71491E+03 -6.79994E+02  8.20241E+02  1.71140E+03 -3.36209E+01  2.03109E+03 -1.01987E+03  1.79549E+03
 -5.30728E+02  1.55408E+03 -5.87755E+02 -1.48289E+02  7.39557E+01  9.34587E+01 -7.76481E+02 -3.69427E+02
 -1.88143E+03 -4.27027E+02 -1.56685E+02  7.03043E+02 -4.91447E+02  5.16944E+02 -6.24623E+02 -9.55172E+02
  1.04742E+03 -7.83562E+02  2.33651E+02  5.29310E+02  1.22667E+03  1.45107E+03 -6.21835E+02  1.68136E+03
 -1.41555E+03  2.08399E+03 -2.29537E+03  1.31067E+03 -2.93202E+03 -3.16658E+02 -1.50735E+03 -1.94647E+03
 -8.66875E+02 -1.57439E+03  1.56225E+03 -2.05398E+03  1.61439E+03 -1.00583E+03  6.11268E+02 -7.15996E+02
  1.17830E+03  1.31549E+01 -3.25069E+02  1.31333E+03 -3.31384E+02 -3.10540E+02  3.77764E+02 -5.45089E+02
 -2.22951E+02  8.23347E+01  6.11246E+02  5.76056E+01  1.34636E+03  7.08804E+02  5.75408E+02  4.65565E+02
 -8.61396E+02 -5.54781E+02 -1.35610E+03 -8.91336E+02 -2.25332E+03 -7.81561E+02  1.33973E+03 -2.93332E+03
  8.75747E+02 -1.59784E+03  2.21153E+03 -4.82292E+02  1.33529E+03  1.11370E+03  1.39859E+03  1.84135E+03
  3.29400E+02  1.54654E+03  3.06673E+01  4.67824E+02 -8.56957E+02  1.21278E+03 -1.35460E+03 -6.65368E+01
  5.11646E+02  1.12026E+02 -1.00734E+03  7.24467E+02 -1.33735E+03  9.24411E+01 -1.26865E+03  3.48321E+02
 -1.58358E+03  7.01654E+02 -3.94653E+02 -5.99057E+02  4.55204E+02 -2.44786E+03  4.39569E+02 -7.63494E+02
  1.20848E+03 -3.93745E+02  6.09355E+02  1.65121E+02  1.57429E+02  1.54054E+03 -1.52565E+03  9.61793E+02
