 $NMID ID='MM_0lb_SNR200_10hz_g60_43.RAW', FMTDAT='(8E13.5)'
 TRAMP=1., VOLUME=1. $END
  3.09862E+05 -5.87717E+00  3.37358E+05  2.50275E+05  8.51353E+04  3.38201E+05 -1.32002E+05  2.53195E+05
 -1.89779E+05  8.27713E+04 -1.11720E+05 -3.18401E+04  1.39121E+03 -5.19025E+04  5.29117E+04  5.67571E+02
  3.57222E+04  5.29999E+04 -1.66133E+04  7.69604E+04 -5.99801E+04  6.36261E+04 -8.59308E+04  3.26085E+04
 -8.14895E+04 -1.25337E+04 -6.01995E+04 -5.29242E+04 -1.48590E+04 -7.16251E+04  2.83515E+04 -4.78188E+04
  3.96906E+04  2.19815E+03  1.70557E+04  4.86575E+04 -3.19010E+04  4.77794E+04 -6.88352E+04  5.10392E+02
 -5.53357E+04 -5.87822E+04 -5.94263E+03 -7.83511E+04  3.54537E+04 -5.69532E+04  5.00576E+04 -1.92650E+04
  4.50651E+04  1.25225E+04  3.35186E+04  2.70093E+04  1.68752E+04  3.06595E+04 -6.62065E+03  2.72507E+04
 -2.39905E+04  1.21967E+04 -1.90017E+04 -5.41252E+03  6.92564E+03 -7.98234E+03  2.53026E+04  1.25251E+04
  6.74074E+03  3.80904E+04 -3.38654E+04  3.78373E+04 -6.56978E+04  2.11970E+03 -5.91315E+04 -4.54111E+04
 -1.24505E+04 -6.50172E+04  4.25032E+04 -4.77721E+04  6.09198E+04 -1.72074E+03  3.78023E+04  3.27257E+04
 -6.40220E+03  4.03843E+04 -3.17245E+04  1.91936E+04 -3.37325E+04 -3.58101E+03 -2.10874E+04 -1.13981E+04
 -1.04070E+04 -1.48409E+04  1.16456E+03 -2.04095E+04  8.75905E+03 -2.30983E+04  1.45008E+04 -1.28034E+04
  1.11260E+04  5.29601E+03 -1.00273E+04  1.34253E+04 -2.24022E+04 -6.61272E+03 -9.67199E+03 -3.83521E+04
  2.64189E+04 -4.75936E+04  5.25835E+04 -2.16470E+04  4.99215E+04  2.42534E+04  1.70265E+04  4.59224E+04
 -1.74975E+04  3.65895E+04 -2.82911E+04  2.20795E+03 -1.25343E+04 -3.02260E+04  2.25265E+04 -3.68419E+04
  4.53804E+04 -9.39156E+03  3.97717E+04  2.50102E+04  2.12839E+04  5.30762E+04 -8.17651E+03  5.69846E+04
 -3.53391E+04  3.77876E+04 -4.64255E+04  1.03292E+04 -4.71202E+04 -1.79489E+04 -2.58336E+04 -4.25111E+04
  7.71993E+03 -4.23338E+04  3.54055E+04 -1.91334E+04  3.19708E+04  1.02582E+04  5.78183E+03  2.13299E+04
 -1.54605E+04  1.07921E+04 -1.08415E+04 -8.86786E+03  4.71271E+03 -1.14615E+04  1.78207E+04  5.36704E+03
  1.41357E+04  2.19621E+04 -4.77038E+03  2.72567E+04 -2.35469E+04  1.44975E+04 -3.11886E+04 -3.15127E+03
 -2.46745E+04 -1.84869E+04 -1.07909E+04 -2.55299E+04  4.80000E+03 -2.55861E+04  1.99693E+04 -2.24047E+04
  3.15548E+04 -1.40436E+04  3.99932E+04  5.40796E+03  2.68191E+04  2.48820E+04  3.49352E+03  4.11526E+04
 -2.04435E+04  3.28892E+04 -2.95231E+04  1.13093E+04 -2.21525E+04 -9.43687E+03 -5.97551E+03 -1.22929E+04
  1.42793E+03 -1.02395E+03 -7.84803E+03  8.55696E+03 -2.03728E+04  5.09582E+03 -2.01094E+04 -8.91304E+03
 -1.05267E+04 -2.45683E+04  7.15623E+03 -2.96351E+04  1.68847E+04 -2.06151E+04  2.38823E+04 -1.93159E+03
  1.32953E+04  1.53012E+04 -1.98067E+03  2.34561E+04 -1.64645E+04  1.43379E+04 -2.29191E+04 -5.74225E+03
 -1.82723E+04 -2.16977E+04 -1.98798E+03 -2.76441E+04  1.23729E+04 -2.50841E+04  2.06256E+04 -1.09315E+04
  2.37048E+04  1.54564E+02  1.66770E+04  5.10054E+03  8.73984E+03  7.21274E+02  1.22125E+04 -2.44642E+02
  2.16869E+04  2.01388E+03  2.55795E+04  1.86019E+04  1.58673E+04  3.77843E+04 -3.43227E+03  4.46621E+04
 -2.39989E+04  3.80711E+04 -4.24243E+04  1.80642E+04 -4.55331E+04 -2.40869E+03 -3.74147E+04 -2.60113E+04
 -1.39128E+04 -3.60413E+04  1.15438E+04 -3.24818E+04  2.66380E+04 -1.54223E+04  2.50936E+04  7.60381E+03
  6.85933E+03  1.97402E+04 -1.17932E+04  1.57652E+04 -2.02734E+04  9.01732E+02 -1.59103E+04 -1.41722E+04
 -1.39931E+03 -2.09265E+04  1.03230E+04 -1.33719E+04  1.27270E+04 -6.79054E+02  4.00174E+03  8.65972E+03
 -7.83508E+03  4.74204E+03 -8.67622E+03 -4.83460E+03 -1.66180E+03 -1.84643E+04  1.12359E+04 -1.86088E+04
  2.31633E+04 -1.19530E+04  2.61354E+04  4.09389E+03  2.27430E+04  1.67333E+04  1.05128E+04  2.94750E+04
 -4.50186E+03  3.09136E+04 -1.96319E+04  1.90383E+04 -2.13084E+04  5.02405E+03 -1.43592E+04 -5.52331E+03
 -6.43158E+03 -8.46255E+03 -3.70828E+02 -1.07002E+02 -2.83883E+03  3.02301E+03 -9.67137E+03  5.61107E+03
 -1.31149E+04 -7.72890E+02 -1.37440E+04 -1.02287E+04 -7.57021E+03 -2.02037E+04  7.05234E+03 -1.71325E+04
  1.23446E+04 -6.23488E+03  9.23472E+03  5.84808E+03 -4.41420E+02  6.09825E+03 -8.42536E+03 -3.43697E+02
 -8.33603E+03 -8.92893E+03 -2.02588E+03 -1.55065E+04  9.37263E+03 -1.59883E+04  2.07703E+04 -8.72111E+03
  2.40822E+04  2.44065E+03  1.74351E+04  1.47829E+04  2.53780E+03  1.80295E+04 -9.63462E+03  1.64424E+04
 -1.33103E+04  3.37654E+03 -6.76205E+03 -3.31401E+03  2.30135E+03 -3.09404E+03  6.94652E+03 -4.51252E+02
  8.01920E+03  6.59800E+03 -5.07487E+02  1.30043E+04 -9.45489E+03  1.08746E+04 -1.64541E+04  3.25869E+03
 -9.48684E+03 -9.65029E+03 -9.75006E+02 -1.36707E+04  8.88647E+03 -7.30769E+03  8.18950E+03  3.84997E+03
  2.45197E+03  9.63150E+03 -7.80971E+03  1.16963E+04 -1.33188E+04  6.04077E+03 -1.41683E+04 -4.61755E+03
 -9.03470E+03 -1.49314E+04  4.10067E+03 -1.64922E+04  1.61173E+04 -1.05151E+04  1.66293E+04  2.90519E+03
  9.31405E+03  1.29097E+04 -1.42016E+03  1.59422E+04 -1.35811E+04  7.47232E+03 -1.31973E+04 -1.78875E+03
 -1.01364E+04 -1.03502E+04 -4.10435E+03 -1.25488E+04  5.49889E+03 -1.04514E+04  7.34689E+03 -4.18361E+03
  5.83320E+03  1.70339E+03 -2.35028E+03  1.35476E+03 -1.55231E+03 -3.76774E+03  3.13104E+03 -5.61072E+03
  1.15232E+04 -4.37504E+03  1.70021E+04  1.87282E+03  1.50562E+04  1.14226E+04  8.20514E+03  2.01898E+04
 -5.84516E+03  2.35037E+04 -1.97121E+04  1.68193E+04 -2.47332E+04  4.25624E+03 -2.10062E+04 -7.92388E+03
 -1.00149E+04 -1.80198E+04 -1.34829E+03 -1.42067E+04  3.89703E+03 -9.07569E+03  5.24975E+03 -2.44353E+03
  1.85389E+03 -3.75576E+03  2.98853E+03 -5.38195E+03  6.86132E+03 -4.21106E+03  7.69058E+03 -1.42310E+03
  1.05077E+04  2.57999E+03  5.58467E+03  1.04787E+04 -1.01916E+03  1.00562E+04 -8.35034E+03  1.15809E+04
 -1.36218E+04 -1.32444E+03 -8.71766E+03 -9.90872E+03 -7.22228E+02 -1.54494E+04  1.01782E+04 -1.59538E+04
  1.54408E+04 -8.62432E+03  1.78802E+04  3.04997E+03  1.40258E+04  1.33673E+04  2.06524E+03  1.73891E+04
 -7.78397E+03  1.45465E+04 -9.29468E+03  5.59558E+03 -6.96087E+03 -2.59359E+03 -3.98114E+03 -1.81700E+03
 -1.59108E+03  1.40497E+03 -2.47108E+03  2.62719E+03 -5.93987E+03  1.03705E+03 -8.84738E+03 -1.04052E+03
 -6.12126E+03 -9.97430E+03  5.35429E+02 -1.30086E+04  7.49708E+03 -1.48069E+04  1.42279E+04 -2.79432E+03
  1.41507E+04  7.10224E+03  6.54306E+03  1.27504E+04 -4.38389E+03  1.39714E+04 -1.15425E+04  9.37003E+03
 -1.38159E+04  7.26758E+02 -1.11091E+04 -9.08215E+03 -2.18376E+03 -1.22018E+04  7.02257E+03 -1.02534E+04
  1.01955E+04 -2.78007E+03  5.82845E+03  2.23760E+03  2.07650E+03  4.46166E+03  2.05591E+03  1.55445E+03
  3.49421E+03  1.47322E+03  3.87689E+03  2.73571E+03  4.03203E+03  4.64908E+03  4.45640E+03  7.62800E+03
 -1.77840E+03  1.12733E+04 -9.46340E+03  1.17246E+04 -1.43132E+04  1.45277E+03 -1.45554E+04 -6.25905E+03
 -5.34437E+03 -1.51747E+04  2.11625E+03 -1.60500E+04  8.64244E+03 -1.00462E+04  1.22379E+04 -1.66001E+03
  9.29805E+03  4.64440E+03  3.19199E+03  7.11666E+03 -3.19864E+03  5.72102E+03 -4.63699E+03 -1.75253E+03
 -3.25810E+03 -6.89279E+03  3.57017E+03 -4.91520E+03  4.60527E+03 -2.97828E+03  5.74963E+03  1.53865E+02
  4.95221E+03  2.26778E+03  2.22263E+03  2.78848E+03 -3.49294E+02  3.16643E+03  5.59798E+02 -1.97166E+03
  1.66897E+03 -1.85864E+03  5.51428E+03  2.51960E+03  3.96106E+03  7.82743E+03 -2.29777E+03  8.62786E+03
 -5.92008E+03  6.81637E+03 -9.53495E+03  1.87093E+03 -8.20415E+03 -2.75731E+03 -3.38425E+03 -5.45760E+03
  1.74211E+03 -4.59895E+03  2.49832E+03 -2.64986E+03  2.60682E+03  2.22684E+03 -3.54685E+02  5.13316E+03
 -6.71226E+03  3.89686E+03 -6.93874E+03 -4.25697E+03 -4.26469E+03 -7.63118E+03  3.63249E+02 -7.43100E+03
  5.97259E+03 -3.18714E+03  4.78497E+03  7.49705E+00  3.25657E+03  2.23111E+03  5.70582E+02  4.41295E+03
 -1.88663E+03  9.12614E+02 -2.91016E+03 -2.02119E+03  1.47557E+03 -6.99490E+03  7.70166E+03 -5.36844E+03
  8.02979E+03  1.40217E+03  6.33118E+03  6.02787E+03  3.48188E+03  9.64544E+03 -2.59071E+03  9.48545E+03
 -7.07428E+03  2.33790E+03 -8.15403E+03 -2.08801E+01 -3.67186E+03 -7.25906E+03  1.18192E+03 -5.21426E+03
  5.50044E+03 -2.02579E+03  4.45926E+03  2.05821E+03  1.19267E+03  3.95020E+03 -6.44777E+02  4.74317E+03
 -2.77413E+03  3.71206E+03 -1.42216E+03  1.13395E+03 -1.59194E+03  1.16930E+03 -2.59537E+03  2.60585E+03
 -1.69826E+03  3.42422E+03 -6.56329E+03  4.96436E+03 -9.50510E+03  6.43942E+02 -1.05721E+04 -5.72185E+03
 -5.10037E+03 -1.26945E+04  4.65023E+03 -1.38498E+04  7.37025E+03 -9.26803E+03  1.31408E+04 -4.38905E+03
  1.27758E+04  1.91135E+03  7.85621E+03  8.79969E+03  1.07233E+03  1.07912E+04 -4.78887E+03  7.24371E+03
 -5.89117E+03  1.65216E+03 -2.90344E+03 -1.48776E+03 -1.55409E+03 -2.21325E+03 -1.02164E+03 -5.39254E+02
 -1.40893E+03  3.20807E+02 -1.39555E+03 -7.43322E+02  3.96071E+02 -3.22411E+03 -2.03616E+02 -2.84438E+03
  4.06728E+03 -8.30889E+02  7.02112E+03 -4.05976E+02  8.14037E+03  4.16074E+03  1.55770E+03  1.01194E+04
 -4.45096E+03  1.24584E+04 -8.83413E+03  6.00542E+03 -1.11628E+04  6.31569E+02 -9.28101E+03 -5.70373E+03
 -2.30095E+03 -1.09312E+04  3.47320E+03 -8.57718E+03  6.10427E+03 -5.15734E+03  6.85692E+03  3.69363E+02
  3.33827E+03  2.46198E+03  2.83796E+01  3.35656E+03 -1.58491E+03  8.41922E+02 -8.12353E+02 -3.69653E+03
  3.47344E+03 -1.25426E+03  3.59799E+03  7.27620E+02  1.20002E+03  2.48052E+03  1.46401E+02  4.68797E+03
 -4.27606E+03  3.73769E+03 -5.23227E+03 -9.93287E+02 -5.90503E+03 -2.95126E+03  2.93438E+02 -7.32212E+03
  3.13691E+03 -6.01143E+03  8.60243E+03 -2.18212E+03  6.34701E+03  2.60169E+03  5.73899E+03  4.89058E+03
  1.12193E+03  5.76219E+03 -1.91314E+03  3.90895E+03 -3.88780E+03  2.60644E+03 -3.26321E+03  8.81557E+02
 -1.85646E+03  7.28172E+02 -1.21817E+03  8.16851E+02 -3.42263E+03  1.19525E+03 -5.44798E+03 -4.05608E+02
 -5.04816E+03 -2.25421E+03 -3.19113E+02 -5.97426E+03  4.44039E+03 -6.01043E+03  8.13161E+03 -3.18335E+03
  6.09104E+03 -2.84791E+02  4.38522E+03  4.69481E+03 -1.25865E+03  6.69482E+03 -4.89044E+03  3.85762E+03
