 $NMID ID='MM_0lb_SNR200_18hz_g50_3.RAW', FMTDAT='(8E13.5)'
 TRAMP=1., VOLUME=1. $END
  3.09315E+05 -4.42942E+02  3.36567E+05  2.51577E+05  8.52446E+04  3.37689E+05 -1.30879E+05  2.49874E+05
 -1.91018E+05  8.22379E+04 -1.12136E+05 -3.36480E+04  2.11045E+03 -5.01835E+04  5.33545E+04  1.08732E+03
  3.51396E+04  5.27901E+04 -1.59199E+04  7.43649E+04 -6.00829E+04  6.30562E+04 -8.30071E+04  3.13790E+04
 -8.04522E+04 -1.07366E+04 -5.57287E+04 -5.06339E+04 -1.46213E+04 -6.83207E+04  2.66238E+04 -4.48739E+04
  3.96238E+04  3.87295E+03  1.53693E+04  4.71241E+04 -3.30932E+04  4.67202E+04 -6.65620E+04 -1.10285E+02
 -5.18961E+04 -5.69586E+04 -5.03799E+03 -7.55498E+04  3.34849E+04 -5.29373E+04  4.72689E+04 -1.62274E+04
  4.28443E+04  9.26215E+03  3.18015E+04  2.39009E+04  1.60494E+04  2.94568E+04 -4.08151E+03  2.68446E+04
 -2.29990E+04  1.26417E+04 -1.91785E+04 -4.08480E+03  5.25374E+03 -6.89077E+03  2.13038E+04  1.03543E+04
  7.38662E+03  3.39005E+04 -3.13284E+04  3.50690E+04 -6.23073E+04  2.88911E+03 -5.62599E+04 -4.26405E+04
 -1.26113E+04 -6.16218E+04  3.85631E+04 -4.21980E+04  5.67678E+04 -1.55720E+03  3.21756E+04  3.26036E+04
 -6.46346E+03  3.39867E+04 -2.87616E+04  1.42798E+04 -2.83508E+04 -5.36536E+03 -1.47716E+04 -9.35661E+03
 -7.91532E+03 -1.22911E+04 -1.23120E+03 -1.85314E+04  6.40081E+03 -2.33585E+04  1.43372E+04 -1.36275E+04
  1.21223E+04  3.96444E+03 -6.64216E+03  1.40802E+04 -2.01501E+04 -1.88599E+03 -8.03870E+03 -3.04365E+04
  2.20508E+04 -4.12805E+04  4.49736E+04 -1.87054E+04  4.34128E+04  1.81018E+04  1.53671E+04  4.18930E+04
 -1.57992E+04  3.03913E+04 -2.36965E+04  2.28832E+03 -7.57973E+03 -2.67750E+04  1.94879E+04 -3.29689E+04
  3.80915E+04 -8.22849E+03  3.26426E+04  2.34660E+04  1.62253E+04  4.31606E+04 -7.81763E+03  4.54788E+04
 -2.95896E+04  3.08698E+04 -3.87534E+04  9.34455E+03 -3.97689E+04 -1.45135E+04 -2.17537E+04 -3.54498E+04
  7.33262E+03 -3.51322E+04  3.04549E+04 -1.34798E+04  2.80701E+04  1.21566E+04  3.72605E+03  1.92323E+04
 -1.34561E+04  7.48868E+03 -9.24901E+03 -8.40236E+03  6.23726E+03 -1.02525E+04  1.81181E+04  5.94055E+03
  1.30889E+04  2.22136E+04 -6.34373E+03  2.40989E+04 -2.19635E+04  1.03725E+04 -2.59217E+04 -6.03819E+03
 -1.70067E+04 -1.77681E+04 -5.86872E+03 -1.69866E+04  3.21326E+03 -1.54288E+04  1.29891E+04 -1.56959E+04
  2.30120E+04 -1.32624E+04  2.88114E+04  1.34023E+03  2.17595E+04  1.72725E+04  4.39061E+03  3.28916E+04
 -1.56046E+04  2.88698E+04 -2.63704E+04  1.00084E+04 -2.02008E+04 -1.12733E+04 -4.33721E+03 -1.39152E+04
  3.36226E+03 -4.26902E+03 -3.05410E+03  5.35903E+03 -1.28527E+04  4.53872E+03 -1.53241E+04 -5.08330E+03
 -8.59768E+03 -1.60528E+04  4.48579E+03 -2.02636E+04  1.37660E+04 -1.45208E+04  1.49643E+04 -2.13452E+03
  9.08246E+03  1.09713E+04 -1.11433E+03  1.60774E+04 -1.09993E+04  9.20639E+03 -1.63711E+04 -3.20726E+03
 -1.13076E+04 -1.39066E+04 -2.38316E+03 -1.96269E+04  9.18341E+03 -1.52681E+04  1.69683E+04 -8.51666E+03
  1.46998E+04 -2.76314E+02  1.11457E+04  4.55154E+03  5.51673E+03  8.98610E+02  7.49354E+03 -6.65215E+02
  1.37498E+04  1.97235E+03  1.56649E+04  1.29975E+04  1.07122E+04  2.43791E+04 -3.24263E+03  2.82023E+04
 -1.59791E+04  2.10071E+04 -2.63768E+04  9.96278E+03 -2.58885E+04 -1.25412E+03 -2.27588E+04 -1.42981E+04
 -9.97811E+03 -2.11587E+04  7.49052E+03 -2.01451E+04  1.70783E+04 -1.11175E+04  1.53513E+04  3.57554E+03
  6.78791E+03  1.19620E+04 -6.76997E+03  1.16788E+04 -1.39549E+04  3.09246E+03 -1.08373E+04 -8.93695E+03
 -2.10527E+02 -1.30874E+04  6.75640E+03 -9.74073E+03  9.38358E+03 -1.82698E+03  1.17715E+03  6.09772E+03
 -5.33643E+03  1.66848E+03 -4.41555E+03 -4.39377E+03  1.22448E+02 -1.12896E+04  8.21138E+03 -1.08485E+04
  1.30843E+04 -5.09565E+03  1.30860E+04  3.66325E+03  1.04465E+04  1.10097E+04  5.01089E+03  1.50739E+04
 -1.69498E+03  1.62894E+04 -1.06484E+04  1.10518E+04 -1.29314E+04  3.41315E+03 -8.12547E+03 -2.03838E+03
 -5.05273E+03 -4.12154E+03 -2.67887E+02  1.88112E+03 -1.87090E+03  1.87195E+03 -3.34631E+03  4.20199E+03
 -7.79339E+03 -4.22932E+02 -9.75988E+03 -7.31435E+03 -4.05604E+03 -1.19261E+04  4.04664E+03 -8.83777E+03
  7.12708E+03 -3.32981E+03  5.29710E+03  2.10359E+03  8.02320E+02  3.09080E+03 -3.55216E+03 -3.23602E+02
 -2.60656E+03 -5.56015E+03 -6.43946E+02 -7.99936E+03  5.49273E+03 -7.81970E+03  1.02042E+04 -4.16831E+03
  1.15909E+04  9.23335E+02  8.75866E+03  7.22326E+03  1.55471E+03  9.79370E+03 -5.59573E+03  9.32796E+03
 -7.44191E+03  3.05040E+03 -3.54056E+03 -9.24782E+02  1.96788E+03 -1.80532E+03  5.57701E+03 -1.05452E+03
  4.23872E+03  2.93453E+03  2.06749E+03  5.90703E+03 -4.42566E+03  6.94183E+03 -8.27521E+03  5.99202E+02
 -5.72185E+03 -4.39596E+03  3.29574E+02 -6.40032E+03  4.80204E+03 -3.43714E+03  4.44382E+03  1.00474E+03
  4.10262E+02  2.11756E+03 -3.98333E+03  5.32691E+03 -5.63489E+03  3.03746E+03 -5.25346E+03 -7.15535E+02
 -2.97273E+03 -6.42588E+03  1.62218E+03 -8.07400E+03  6.64942E+03 -5.74047E+03  6.13498E+03  1.36372E+03
  4.16653E+03  5.96851E+03 -1.34263E+02  6.52934E+03 -4.50365E+03  3.97242E+03 -5.07150E+03 -3.81227E+02
 -6.83598E+03 -5.54874E+03 -8.12300E+02 -4.80210E+03  2.45196E+03 -4.65584E+03  3.05502E+03 -2.82972E+03
  3.07610E+03  1.96420E+02 -2.38876E+02  9.18324E+02  2.85799E+02 -2.34611E+02 -4.14322E+01 -7.25051E+02
  4.60759E+03 -8.77079E+02  5.67169E+03  5.42359E+02  6.50851E+03  4.14318E+03  5.61423E+03  7.73816E+03
 -2.33183E+02  9.35786E+03 -7.66518E+03  7.22404E+03 -1.06614E+04  1.80408E+03 -9.06398E+03 -3.07078E+03
 -4.83527E+03 -7.53711E+03 -4.85973E+02 -5.04772E+03  2.62719E+03 -3.45783E+03  2.41185E+03 -3.55377E+03
  1.79209E+03 -8.58395E+02  2.64867E+03 -2.53842E+03  3.16350E+03 -1.15534E+03  3.88024E+03  4.71374E+02
  5.13186E+03  1.35376E+03  1.84388E+03  4.55087E+03 -1.07248E+03  1.92121E+03 -4.14053E+03  3.55256E+03
 -6.07940E+03 -1.30054E+03 -2.28522E+03 -3.65761E+03 -1.03663E+02 -4.94819E+03  3.44619E+03 -5.20217E+03
  4.60785E+03 -3.64777E+03  7.89611E+03  6.60984E+01  4.72043E+03  4.95697E+03  7.84945E+02  6.06367E+03
 -2.68674E+03  6.48807E+03 -3.80668E+03  1.97389E+03 -2.17999E+03 -2.40405E+03 -2.87511E+02 -4.19986E+02
  3.63614E+02 -1.16103E+02 -2.31192E+03  1.24811E+03 -3.91591E+03  1.28347E+03 -4.07696E+03 -2.53268E+02
 -8.50881E+02 -3.93288E+03  9.43512E+02 -4.67814E+03  3.50634E+03 -4.56707E+03  3.62547E+03 -2.83505E+02
  4.03153E+03  2.00741E+03  1.59483E+03  4.88200E+03 -6.73852E+02  5.14932E+03 -2.50003E+03  4.24277E+03
 -4.05784E+03  1.08974E+03 -3.28940E+03 -2.29702E+03 -5.35998E+02 -3.19046E+03  1.84232E+03 -2.04520E+03
  2.85371E+03 -1.46814E+03  3.49825E+03  7.86027E+02  1.16265E+03  1.67614E+03  8.98194E+02  8.85177E+02
  3.05693E+03  1.19083E+03  1.07322E+03  1.34773E+03  7.80870E+02  2.54963E+03  1.10820E+03  1.38705E+03
 -2.08057E+03  3.26805E+03 -2.66741E+03  4.12974E+03 -3.30748E+03  1.32046E+03 -4.12360E+03 -1.05389E+03
 -1.92373E+03 -3.44907E+03  3.32575E+00 -4.94934E+03  1.75212E+03 -3.64125E+03  3.45999E+03 -3.10435E+02
  2.71657E+03  1.46852E+03  6.93645E+02  1.54762E+03 -7.46913E+02  5.26781E+02 -1.11856E+03 -8.07303E+02
 -2.05404E+02 -2.09945E+03  1.39538E+03 -1.59748E+03  2.02928E+03 -1.81376E+03  1.97379E+03 -4.87673E+02
  4.52137E+02  6.30566E+02  1.13106E+03  4.98337E+02 -1.17093E+03  1.12395E+03  1.28598E+03 -1.31876E+03
  7.44873E+02 -6.15911E+02  2.31994E+03  4.25452E+02  1.10914E+03  1.57555E+03 -6.49788E+02  3.02187E+03
 -1.90750E+03  1.82072E+03 -2.12925E+03  8.09058E+01 -1.91430E+03 -5.27572E+02  1.19857E+03 -9.80730E+02
 -8.01358E+02 -1.27271E+03  1.10412E+03 -9.92360E+02  2.09244E+03  1.23389E+03 -3.32377E+02  9.33169E+02
 -1.49054E+03  9.77277E+02 -4.50000E+02 -1.91273E+03 -6.13506E+02 -1.94782E+03 -5.78150E+02 -2.16508E+03
  7.64125E+02  2.12794E+01  9.60005E+02  2.95802E+02  4.78296E+02  3.82842E+01  1.21871E+03  1.33726E+03
 -7.48394E+02 -1.07653E+02 -1.30155E+03 -6.39059E+02  1.53284E+02 -1.21640E+03  1.16222E+03 -9.32071E+01
  2.49414E+02 -3.09192E+02  2.34447E+03 -2.00845E+02  3.93563E+02  1.03816E+03 -2.89597E+02  2.25325E+03
 -2.31303E+03  1.77803E+02 -1.04455E+03 -1.30152E+03 -1.39014E+03 -2.30316E+03 -1.10238E+02 -1.02438E+03
  2.24895E+03 -1.81259E+03  8.92879E+02  1.07964E+03  7.13781E+02  1.10499E+03 -1.07209E+02  1.67903E+03
 -9.06261E+02  1.92232E+03 -2.26607E+02  8.70776E+02 -1.38722E+03  3.32198E+02 -9.40765E+02 -3.50615E+02
  1.44072E+02  1.73327E+03 -1.96799E+03  8.72497E+02 -2.61716E+03  6.21960E+01 -2.83144E+03 -1.83687E+03
 -1.30676E+03 -2.13941E+03 -1.15578E+03 -3.02417E+03  1.50934E+03 -3.43679E+03  2.97063E+03 -9.63772E+02
  2.45967E+03  4.71116E+02  6.06110E+02  1.45076E+03 -1.28125E+03  1.25202E+03 -8.78871E+02  1.74284E+03
 -1.63268E+03  1.12305E+03 -6.78154E+02 -3.96574E+02  1.25909E+02 -9.33337E+02 -2.55179E+02  4.78715E+01
  7.91317E+01  7.88049E+02 -1.31013E+03 -5.32026E+02  2.56534E+02 -5.59666E+02  1.53225E+02 -5.29920E+02
  1.27450E+03  6.23152E+02  1.11600E+03  2.90842E+02  1.81106E+02  1.04174E+03  3.97163E+01  1.35297E+03
 -1.32923E+03  1.80365E+03 -1.37999E+03  2.26815E+03 -2.03995E+03 -1.14300E+02 -2.24291E+03 -8.18059E+02
 -1.18776E+03 -4.95408E+02 -3.04057E+02 -1.32300E+03 -7.77267E+02 -1.25880E+03  1.08123E+03  3.65970E+02
  8.88048E+02  5.40335E+00 -5.28948E+02  9.02006E+02 -2.85961E+02  8.18203E+00 -2.37858E+02  4.43875E+01
  1.46099E+03 -7.11974E+02  2.36611E+02  6.70350E+02  7.34681E+02 -1.03534E+03  6.10513E+02  1.18531E+03
 -6.34786E+02  1.27278E+03 -2.82829E+02 -4.78708E+02 -1.48515E+03 -1.46614E+02  7.86096E+02 -1.53165E+03
 -1.59453E+02 -4.62171E+02  8.13179E+02 -1.11062E+03  1.52590E+03 -2.43236E+02  2.13783E+02  8.25345E+02
  7.14943E+02  1.73146E+03  1.42222E+02  1.88041E+03 -9.73084E+02  9.81322E+02 -8.80022E+02 -8.32722E+01
  2.71361E+02 -7.44355E+02 -8.02843E+02  3.28461E+02 -9.21750E+02  1.27994E+03 -1.47820E+03 -1.00803E+03
 -1.62514E+03  9.32832E+02 -9.54155E+01 -2.06409E+03  7.81587E+02 -1.69418E+03  7.93998E+02 -5.78199E+02
  4.45858E+02  3.60788E+02  1.07357E+02 -2.46769E+01  1.80029E+02  1.00050E+03 -3.48300E+02  6.30783E+02
