 $NMID ID='MM_0lb_SNR200_10hz_g40_30.RAW', FMTDAT='(8E13.5)'
 TRAMP=1., VOLUME=1. $END
  3.08710E+05 -6.03015E+02  3.37734E+05  2.51439E+05  8.32899E+04  3.37861E+05 -1.32522E+05  2.52008E+05
 -1.91452E+05  8.39924E+04 -1.13272E+05 -3.19882E+04  6.94811E+02 -4.91572E+04  5.27559E+04 -6.43652E+02
  3.44585E+04  5.27670E+04 -1.72647E+04  7.50419E+04 -6.01178E+04  6.51015E+04 -8.38009E+04  3.27917E+04
 -8.35409E+04 -1.11078E+04 -5.62517E+04 -5.12355E+04 -1.65037E+04 -7.04195E+04  2.74014E+04 -4.59196E+04
  4.02051E+04  4.92802E+03  1.65493E+04  4.99313E+04 -3.49698E+04  4.71036E+04 -6.81046E+04 -6.51339E+02
 -5.55684E+04 -5.62142E+04 -7.45911E+03 -7.85612E+04  3.44280E+04 -5.63437E+04  5.11910E+04 -1.72967E+04
  4.36375E+04  1.17052E+04  3.37218E+04  2.69175E+04  1.59279E+04  3.26569E+04 -6.83214E+03  2.64831E+04
 -2.12840E+04  1.17754E+04 -1.66717E+04 -5.85904E+03  6.25789E+03 -8.42164E+03  2.21061E+04  1.24043E+04
  6.44481E+03  3.58257E+04 -3.31494E+04  3.68090E+04 -6.57114E+04  3.69707E+03 -5.68873E+04 -4.28412E+04
 -1.34280E+04 -6.49163E+04  4.20458E+04 -4.75860E+04  6.09963E+04 -1.50890E+03  3.53721E+04  3.22457E+04
 -4.08525E+03  3.94121E+04 -3.04839E+04  1.74403E+04 -3.17711E+04 -4.37356E+03 -1.93824E+04 -1.17508E+04
 -8.30913E+03 -1.37285E+04  5.02490E+02 -1.97454E+04  6.51748E+03 -2.34800E+04  1.56201E+04 -1.07268E+04
  1.05625E+04  6.19080E+03 -8.53642E+03  1.29340E+04 -2.30730E+04 -5.14074E+03 -8.75300E+03 -3.58283E+04
  2.42368E+04 -4.51317E+04  5.02070E+04 -2.05135E+04  4.69530E+04  2.05232E+04  1.71623E+04  4.54933E+04
 -1.61656E+04  3.61940E+04 -2.62511E+04  2.83154E+03 -1.06851E+04 -2.82649E+04  2.24547E+04 -3.47864E+04
  4.29212E+04 -9.91180E+03  3.83103E+04  2.41327E+04  2.06589E+04  4.86585E+04 -7.45644E+03  5.40710E+04
 -3.37030E+04  3.77960E+04 -4.52619E+04  1.08229E+04 -4.42811E+04 -1.67252E+04 -2.53972E+04 -4.01360E+04
  6.94318E+03 -4.14683E+04  3.36086E+04 -1.57555E+04  3.01502E+04  1.05503E+04  4.25437E+03  1.97770E+04
 -1.47944E+04  8.24396E+03 -1.18513E+04 -8.57743E+03  6.63150E+03 -1.08623E+04  1.80906E+04  4.51351E+03
  1.32210E+04  2.20675E+04 -5.69039E+03  2.66172E+04 -2.29061E+04  1.36396E+04 -3.08531E+04 -4.39526E+03
 -2.14797E+04 -1.73577E+04 -1.06436E+04 -2.41310E+04  3.75339E+03 -2.30532E+04  1.71190E+04 -2.08720E+04
  2.94595E+04 -1.45096E+04  3.71227E+04  4.20408E+03  2.44269E+04  2.28204E+04  2.87975E+03  4.00490E+04
 -1.87161E+04  3.28147E+04 -2.86085E+04  1.07055E+04 -2.24105E+04 -1.00417E+04 -5.20559E+03 -1.23995E+04
  1.76204E+02 -1.73518E+03 -6.37005E+03  7.74721E+03 -1.87137E+04  4.98206E+03 -1.90935E+04 -7.62085E+03
 -1.11182E+04 -2.10138E+04  5.96183E+03 -2.60739E+04  1.77262E+04 -1.86088E+04  2.15321E+04 -2.18388E+03
  1.37970E+04  1.42460E+04 -1.17952E+03  2.11775E+04 -1.42554E+04  1.33600E+04 -2.19795E+04 -4.43896E+03
 -1.57136E+04 -1.89464E+04 -2.63797E+03 -2.68316E+04  1.26808E+04 -2.08347E+04  2.25415E+04 -1.18254E+04
  2.03487E+04  5.56180E+01  1.51544E+04  4.45604E+03  8.17414E+03  7.94687E+02  1.01424E+04 -1.80642E+03
  2.09265E+04  1.67545E+03  2.38869E+04  1.57786E+04  1.40496E+04  3.40611E+04 -3.86987E+03  3.98417E+04
 -2.29814E+04  3.19866E+04 -3.90662E+04  1.63672E+04 -4.04891E+04 -3.26855E+03 -3.31191E+04 -2.29028E+04
 -1.41690E+04 -3.40520E+04  1.09758E+04 -2.92090E+04  2.47317E+04 -1.51584E+04  2.23900E+04  6.63828E+03
  8.63901E+03  1.72701E+04 -1.02282E+04  1.34283E+04 -1.78425E+04  2.35824E+03 -1.40272E+04 -1.24390E+04
 -5.86912E+02 -1.80875E+04  9.81376E+03 -1.34444E+04  1.20891E+04 -1.10883E+02  2.56207E+03  5.62903E+03
 -7.80795E+03  3.61640E+03 -6.65801E+03 -6.07503E+03 -1.58738E+03 -1.67663E+04  1.02151E+04 -1.81063E+04
  2.03932E+04 -1.04531E+04  2.25383E+04  4.28227E+03  2.17443E+04  1.70436E+04  9.29278E+03  2.42743E+04
 -3.91556E+03  2.74764E+04 -1.69739E+04  1.61398E+04 -2.15586E+04  4.24931E+03 -1.54505E+04 -3.64780E+03
 -4.53725E+03 -6.83824E+03  2.39267E+03  1.07006E+03 -2.48327E+03  3.43698E+03 -5.69547E+03  4.73952E+03
 -1.08915E+04 -1.89841E+02 -1.39291E+04 -1.06569E+04 -5.90478E+03 -1.80295E+04  5.85677E+03 -1.33071E+04
  1.16945E+04 -5.84391E+03  7.87953E+03  1.82067E+03 -6.33371E+02  5.76161E+03 -5.71414E+03  4.24030E+02
 -6.04532E+03 -9.25251E+03 -6.88878E+02 -1.31385E+04  9.26855E+03 -1.45482E+04  1.74307E+04 -8.52881E+03
  2.00891E+04  2.18319E+03  1.47342E+04  1.13301E+04  4.00400E+03  1.62098E+04 -9.25759E+03  1.43907E+04
 -1.15578E+04  4.76384E+03 -5.40095E+03 -3.73115E+03  3.68430E+03 -2.52169E+03  6.15423E+03 -3.02363E+03
  5.93720E+03  7.19405E+03  1.59632E+03  1.22524E+04 -8.45500E+03  1.04733E+04 -1.31987E+04  3.99021E+03
 -1.01532E+04 -7.72716E+03  4.96110E+02 -1.17893E+04  6.69695E+03 -6.72697E+03  7.91922E+03  3.33631E+03
  2.00282E+03  7.06044E+03 -7.10596E+03  1.03429E+04 -1.20488E+04  5.26010E+03 -1.15572E+04 -4.93411E+03
 -6.64830E+03 -1.15017E+04  4.56101E+03 -1.74126E+04  1.34437E+04 -8.88575E+03  1.41198E+04  2.61635E+03
  8.53089E+03  1.08238E+04 -7.54223E+02  1.48840E+04 -8.66493E+03  6.52179E+03 -1.15039E+04 -1.63085E+03
 -9.72920E+03 -8.24336E+03 -1.27687E+03 -1.04587E+04  6.77132E+03 -8.96003E+03  6.69318E+03 -4.02546E+03
  3.95317E+03  1.25213E+03 -1.17385E+03  2.27224E+03  1.11471E+01 -2.62776E+03  2.65978E+03 -4.87433E+03
  1.09556E+04 -4.21044E+03  1.36357E+04  1.05469E+03  1.42519E+04  8.66530E+03  9.20307E+03  1.79867E+04
 -3.93209E+03  1.96255E+04 -1.52332E+04  1.46058E+04 -2.20219E+04  7.35747E+02 -1.60692E+04 -7.43346E+03
 -9.72470E+03 -1.43967E+04  3.90246E+02 -1.32150E+04  4.49142E+03 -6.71177E+03  4.63141E+03 -5.83048E+03
  4.32272E+03 -2.54735E+03  2.15520E+03 -3.13512E+03  6.65759E+03 -2.96214E+03  8.44644E+03 -1.02639E+03
  9.60541E+03  1.69639E+03  5.84401E+03  6.71924E+03 -2.91288E+03  9.67561E+03 -9.49030E+03  8.59579E+03
 -1.35247E+04 -5.58350E+02 -7.78065E+03 -9.43061E+03 -1.04839E+02 -1.45444E+04  6.67509E+03 -1.23898E+04
  1.33476E+04 -8.70172E+03  1.66502E+04  1.40465E+03  1.06337E+04  1.13468E+04  3.05161E+03  1.52063E+04
 -5.82114E+03  1.10715E+04 -8.77874E+03  4.44067E+03 -6.30799E+03 -2.36272E+03 -2.09013E+03 -2.33863E+03
 -2.17516E+03 -1.40210E+02 -3.33853E+03  2.17614E+03 -5.42522E+03  3.71299E+03 -1.00593E+04 -5.37425E+02
 -5.99058E+03 -7.35874E+03  1.13323E+03 -1.15089E+04  7.08682E+03 -1.23126E+04  1.19955E+04 -4.45882E+03
  1.14534E+04  5.85739E+03  5.56836E+03  1.08052E+04 -1.94719E+03  1.35664E+04 -8.85227E+03  9.03844E+03
 -9.74745E+03  1.32400E+03 -7.44384E+03 -7.92444E+03 -1.11562E+03 -1.07849E+04  5.98404E+03 -8.09296E+03
  8.42143E+03 -1.26519E+03  5.76093E+03  2.27904E+03  2.64456E+03  4.22506E+03  1.65409E+03  2.74003E+03
  2.10541E+03  2.36358E+02  2.96337E+03  2.38160E+03  2.95131E+03  5.02341E+03  3.99235E+03  7.00227E+03
 -1.80395E+03  9.33435E+03 -8.03399E+03  1.07918E+04 -1.21945E+04  1.73341E+03 -1.33371E+04 -4.81468E+03
 -6.24090E+03 -1.35460E+04  1.32131E+02 -1.27006E+04  6.16066E+03 -7.51786E+03  1.01023E+04 -2.55641E+03
  8.18803E+03  4.34410E+03  6.72738E+02  7.67994E+03 -3.42173E+03  4.12946E+03 -5.79086E+03 -7.01731E+02
 -1.59778E+03 -5.83240E+03  3.69550E+03 -5.70265E+03  4.52760E+03 -2.19479E+03  4.25319E+03  1.46710E+03
  3.04391E+03  1.76533E+03  1.19575E+03  1.53096E+03 -1.81599E+03  2.08602E+03  1.17049E+03 -2.80661E+02
  2.39504E+03 -8.90169E+02  4.76377E+03  2.66635E+03  1.22762E+03  6.80368E+03 -1.81068E+03  8.55095E+03
 -5.29253E+03  4.70064E+03 -8.18018E+03  5.96555E+02 -7.33082E+03 -2.14940E+03 -2.25241E+03 -6.88458E+03
  9.51710E+02 -7.38843E+03  2.84016E+03 -2.49474E+03  2.95558E+03  2.61638E+03 -1.54798E+03  3.82312E+03
 -6.31503E+03  2.08175E+03 -4.92463E+03 -2.93508E+03 -2.74698E+03 -6.65628E+03  1.21062E+03 -6.40949E+03
  4.54396E+03 -3.48091E+03  5.39072E+03 -2.53753E+02  3.93601E+03  1.57511E+03  4.36259E+02  3.38640E+03
 -2.35815E+03  1.15989E+03 -3.33941E+03 -1.72414E+03  1.35749E+03 -5.65063E+03  5.49114E+03 -3.22264E+03
  8.65094E+03  2.10146E+03  8.03506E+03  7.03445E+03  2.14241E+03  1.03189E+04 -4.03969E+03  8.79594E+03
 -6.31977E+03  2.99878E+03 -7.47672E+03 -1.90275E+02 -3.43671E+03 -5.41858E+03  8.65723E+02 -5.14612E+03
  4.83723E+03 -2.12698E+03  3.53777E+03  2.09933E+03  1.12515E+03  4.33713E+03 -3.09237E+02  3.85409E+03
 -3.17347E+03  3.84598E+03 -1.38459E+03  6.54193E+02 -1.53476E+03  1.09269E+02 -1.28730E+03  9.07560E+02
 -1.05147E+03  3.83340E+03 -4.55188E+03  2.77521E+03 -9.00712E+03 -9.11519E+02 -9.61619E+03 -4.09082E+03
 -3.85881E+03 -1.15418E+04  1.73056E+03 -1.14166E+04  7.41941E+03 -1.02859E+04  1.05517E+04 -5.01115E+03
  1.24226E+04  1.76389E+03  6.22310E+03  8.76159E+03  2.09771E+02  7.37183E+03 -3.02662E+03  7.34597E+03
 -4.39204E+03  1.26142E+03 -3.55791E+03 -1.49609E+03 -5.51356E+02 -4.09451E+02 -3.80931E+02  1.08073E+02
 -1.60742E+03  1.86505E+02 -1.74060E+03 -1.74836E+03  7.52743E+02 -3.07086E+03 -7.52355E+02 -2.48997E+03
  3.56267E+03 -3.75856E+03  6.74981E+03  1.01922E+03  5.81437E+03  4.21827E+03  7.86384E+02  8.02132E+03
 -4.81694E+03  9.72429E+03 -8.85548E+03  4.16315E+03 -9.06665E+03  1.05520E+02 -6.47496E+03 -6.51655E+03
 -4.20170E+03 -7.45803E+03  3.64182E+03 -8.23587E+03  4.09886E+03 -3.49158E+03  3.94600E+03 -1.26815E+03
  3.09370E+03  1.47561E+03  5.32818E+02  2.84151E+03 -2.44398E+03  3.13153E+02  2.98617E+02 -1.95610E+03
  3.03922E+03 -1.40979E+03  3.11806E+03  2.30200E+03  1.04425E+03  3.60264E+03 -2.43524E+00  5.56075E+03
 -5.23227E+03  5.34746E+03 -5.39846E+03 -1.09262E+02 -5.71465E+03 -2.40560E+03 -1.06463E+03 -7.84261E+03
  2.83288E+03 -4.51880E+03  7.02237E+03  3.73696E+01  6.43881E+03  1.91574E+02  4.64140E+03  5.09384E+03
  8.29843E+02  5.32350E+03 -7.83007E+02  4.97194E+03 -4.63832E+03  2.40816E+03 -3.72656E+03  9.66709E+02
 -1.73953E+03 -6.70159E+00 -8.84908E+02  1.47215E+03 -3.04112E+03 -1.82888E+02 -4.68050E+03 -7.63036E+02
 -4.50308E+03 -2.30427E+03 -1.71796E+03 -6.41837E+03  4.19698E+03 -6.49609E+03  6.12157E+03 -4.05618E+03
  5.66674E+03  1.87066E+02  2.73087E+03  3.14243E+03 -9.64127E+02  4.68653E+03 -4.13118E+03  3.21776E+03
