 $NMID ID='MM_0lb_SNR200_13hz_g55_87.RAW', FMTDAT='(8E13.5)'
 TRAMP=1., VOLUME=1. $END
  3.10798E+05  1.75701E+03  3.38133E+05  2.51852E+05  8.39641E+04  3.36902E+05 -1.32737E+05  2.51080E+05
 -1.89472E+05  8.22579E+04 -1.11863E+05 -3.29391E+04  6.07251E+02 -4.97053E+04  5.38067E+04 -8.00638E+02
  3.56847E+04  5.29126E+04 -1.70241E+04  7.58326E+04 -6.04936E+04  6.32401E+04 -8.49121E+04  3.23019E+04
 -8.24582E+04 -1.14318E+04 -5.68051E+04 -5.33321E+04 -1.66682E+04 -7.07213E+04  2.84242E+04 -4.61939E+04
  4.10455E+04  3.63536E+03  1.67644E+04  4.88766E+04 -3.46250E+04  4.79982E+04 -6.71184E+04 -8.47316E+02
 -5.53601E+04 -5.59347E+04 -8.20505E+03 -7.80685E+04  3.37758E+04 -5.49143E+04  4.90187E+04 -1.64345E+04
  4.41539E+04  1.10684E+04  3.12497E+04  2.57996E+04  1.47558E+04  2.81332E+04 -5.83177E+03  2.64360E+04
 -2.16729E+04  1.19312E+04 -1.86344E+04 -6.26446E+03  6.11278E+03 -9.60292E+03  2.20938E+04  1.33175E+04
  7.54655E+03  3.65369E+04 -3.23978E+04  3.60828E+04 -6.46429E+04  2.35070E+03 -5.87946E+04 -4.31168E+04
 -1.35315E+04 -6.42501E+04  4.03370E+04 -4.52795E+04  5.93639E+04 -1.40398E+03  3.64575E+04  3.34446E+04
 -5.80983E+03  3.72706E+04 -2.92285E+04  1.76131E+04 -3.16926E+04 -4.86092E+03 -1.84237E+04 -1.16039E+04
 -8.05573E+03 -1.37694E+04  2.52264E+02 -2.01807E+04  8.09075E+03 -2.27321E+04  1.54978E+04 -1.46451E+04
  9.65226E+03  6.42811E+03 -9.97185E+03  1.38126E+04 -2.10000E+04 -5.27158E+03 -8.48495E+03 -3.56210E+04
  2.24035E+04 -4.57063E+04  4.96429E+04 -2.04253E+04  4.68845E+04  1.92840E+04  1.64502E+04  4.41710E+04
 -1.65928E+04  3.38016E+04 -2.57514E+04  2.49690E+03 -1.07104E+04 -2.77891E+04  2.18305E+04 -3.40927E+04
  4.28807E+04 -1.02867E+04  3.71218E+04  2.47927E+04  1.89517E+04  4.67335E+04 -7.54170E+03  5.11944E+04
 -3.28487E+04  3.51248E+04 -4.40174E+04  1.01213E+04 -4.45269E+04 -1.65201E+04 -2.51552E+04 -3.82863E+04
  8.26502E+03 -3.86119E+04  3.28320E+04 -1.52609E+04  3.15463E+04  1.11899E+04  4.53868E+03  1.84527E+04
 -1.35788E+04  9.33056E+03 -1.01513E+04 -7.70553E+03  5.13087E+03 -1.13515E+04  1.92957E+04  5.29291E+03
  1.29985E+04  2.20997E+04 -5.69005E+03  2.64083E+04 -2.38032E+04  1.20324E+04 -2.90781E+04 -3.37450E+03
 -2.12748E+04 -1.76985E+04 -9.79668E+03 -2.22131E+04  3.71434E+03 -2.15360E+04  1.69869E+04 -2.03112E+04
  2.79814E+04 -1.20495E+04  3.48222E+04  3.86692E+03  2.55776E+04  2.11678E+04  4.50105E+03  3.74866E+04
 -1.76321E+04  3.17333E+04 -2.93243E+04  1.10434E+04 -2.10020E+04 -9.50943E+03 -3.57420E+03 -1.38861E+04
  2.86014E+03 -1.93838E+03 -5.32678E+03  7.44392E+03 -1.67250E+04  5.77379E+03 -1.76880E+04 -7.77090E+03
 -1.10155E+04 -2.04616E+04  5.06800E+03 -2.44746E+04  1.55521E+04 -1.79078E+04  2.06839E+04 -1.56676E+03
  1.30343E+04  1.37495E+04 -1.49537E+03  2.00475E+04 -1.46332E+04  1.11867E+04 -1.91761E+04 -4.80973E+03
 -1.45096E+04 -1.78582E+04 -2.15385E+03 -2.36916E+04  1.08216E+04 -1.96075E+04  2.03049E+04 -1.07511E+04
  1.89083E+04 -6.60073E+02  1.42638E+04  4.87044E+03  7.43094E+03  1.34797E+03  9.64146E+03 -3.65238E+03
  1.72578E+04  3.95456E+03  2.20663E+04  1.63323E+04  1.33042E+04  3.31097E+04 -2.82345E+03  3.77798E+04
 -2.21907E+04  2.91505E+04 -3.56138E+04  1.46132E+04 -3.74473E+04 -2.87534E+03 -3.09277E+04 -2.13535E+04
 -1.26236E+04 -3.10288E+04  1.00742E+04 -2.64156E+04  2.33217E+04 -1.26124E+04  2.04528E+04  6.66669E+03
  7.22168E+03  1.64034E+04 -9.36872E+03  1.38340E+04 -1.71217E+04  1.90098E+03 -1.34270E+04 -1.06235E+04
  3.92178E+01 -1.64883E+04  8.16875E+03 -1.24390E+04  1.25801E+04 -1.90625E+03  2.64696E+03  9.01140E+03
 -8.42477E+03  2.21893E+03 -6.74843E+03 -6.40825E+03 -2.52460E+03 -1.37703E+04  9.97771E+03 -1.70682E+04
  1.90145E+04 -8.67423E+03  2.03901E+04  4.43127E+03  1.71808E+04  1.46745E+04  8.73966E+03  2.24670E+04
 -4.11287E+03  2.51398E+04 -1.59270E+04  1.44765E+04 -1.74155E+04  4.20581E+03 -1.15493E+04 -5.20896E+03
 -5.09505E+03 -6.70213E+03 -8.35861E+02  1.96993E+02 -3.16815E+03  2.44453E+03 -6.14423E+03  5.16645E+03
 -1.22505E+04 -2.16243E+02 -1.14547E+04 -8.07511E+03 -4.83466E+03 -1.64746E+04  6.06001E+03 -1.22863E+04
  9.63069E+03 -6.50421E+03  6.72682E+03  3.51272E+03  5.51281E+02  4.13614E+03 -5.52654E+03  2.64348E+02
 -5.92706E+03 -8.07013E+03 -1.97652E+03 -1.15521E+04  6.22070E+03 -1.33472E+04  1.65823E+04 -7.35319E+03
  1.89662E+04  1.50724E+03  1.37187E+04  1.01780E+04  3.00395E+03  1.46314E+04 -7.43742E+03  1.38788E+04
 -8.90923E+03  5.34587E+03 -6.28286E+03 -2.65365E+03  3.16822E+03 -3.88306E+03  7.13543E+03 -6.53257E+02
  7.13182E+03  5.43512E+03  1.99447E+02  1.00029E+04 -7.42422E+03  9.94467E+03 -1.20553E+04  2.80356E+03
 -7.98379E+03 -5.05292E+03 -6.15693E+02 -9.82385E+03  6.54159E+03 -4.45898E+03  7.11411E+03  2.23376E+03
  1.80212E+03  7.71922E+03 -6.85802E+03  8.80269E+03 -8.79324E+03  3.49854E+03 -9.82926E+03 -2.80710E+03
 -4.75078E+03 -1.10816E+04  2.29235E+03 -1.35780E+04  9.84993E+03 -8.77131E+03  1.25143E+04  1.60934E+03
  8.08744E+03  1.11627E+04 -2.21349E+02  1.13233E+04 -8.79693E+03  6.95346E+03 -1.04173E+04 -1.71282E+03
 -9.04484E+03 -7.71897E+03 -2.13246E+03 -7.77858E+03  5.82641E+03 -7.30290E+03  5.27381E+03 -2.38463E+03
  4.35488E+03  2.52590E+03 -8.66237E+02  1.48373E+03  8.02079E+02 -1.99456E+03  2.65472E+03 -5.69758E+03
  7.22500E+03 -2.94071E+03  1.04320E+04  1.18702E+03  1.05566E+04  7.70956E+03  9.66226E+03  1.51563E+04
 -3.22203E+03  1.60196E+04 -1.48774E+04  1.17089E+04 -1.90359E+04  3.45266E+03 -1.49730E+04 -5.72932E+03
 -8.42157E+03 -1.25840E+04 -1.57043E+03 -1.13146E+04  4.33552E+03 -5.17988E+03  3.24330E+03 -3.90131E+03
  2.13819E+03 -2.72704E+03  2.81778E+03 -4.49150E+03  3.97113E+03 -3.65750E+03  7.02426E+03  7.93285E+01
  7.76538E+03  1.53917E+03  4.75687E+03  6.75213E+03 -2.81990E+03  8.18004E+03 -9.75613E+03  5.41118E+03
 -9.67020E+03 -1.76370E+03 -5.13094E+03 -6.78586E+03 -4.84128E+02 -1.08760E+04  5.65609E+03 -9.70806E+03
  1.12017E+04 -6.70466E+03  1.33934E+04  1.49595E+03  1.04210E+04  9.00877E+03  1.37967E+03  1.19222E+04
 -5.40679E+03  9.35523E+03 -7.43479E+03  3.01451E+03 -5.02921E+03  1.30681E+01 -1.49381E+03 -1.01704E+03
 -1.70439E+03 -3.23645E+02 -3.73965E+02  2.57890E+03 -4.66309E+03  1.04143E+03 -7.21106E+03 -1.12474E+03
 -5.11508E+03 -6.94561E+03 -2.43210E+02 -9.09573E+03  6.00092E+03 -9.88114E+03  8.44507E+03 -2.66592E+03
  8.49840E+03  5.40252E+03  5.19600E+03  8.32883E+03 -1.65090E+03  8.95488E+03 -6.83889E+03  5.31155E+03
 -7.97498E+03  7.82853E+02 -6.34223E+03 -6.53754E+03 -1.05613E+03 -8.37282E+03  4.32242E+03 -6.45515E+03
  5.48557E+03 -1.79285E+03  3.18496E+03 -9.39525E+02  2.11563E+03  2.70305E+03 -1.25336E+02 -1.73973E+02
  2.31295E+03 -1.40077E+02  2.96452E+03  9.36957E+02  1.86257E+03  3.33058E+03  2.60704E+03  4.97635E+03
 -2.59433E+03  7.63135E+03 -5.95327E+03  7.30967E+03 -9.03811E+03  2.91365E+03 -7.64106E+03 -3.42861E+03
 -4.95870E+03 -9.99745E+03  8.73072E+02 -1.18170E+04  6.62026E+03 -5.97083E+03  7.37624E+03 -4.42926E+02
  5.58940E+03  3.64275E+03 -1.51849E+02  5.67978E+03 -2.57477E+03  1.78718E+03 -3.16726E+03 -7.68665E+02
 -1.93046E+03 -2.56650E+03  2.26116E+03 -3.93920E+03  5.07252E+03 -2.17390E+03  3.47087E+03  8.60109E+02
  3.01922E+03  2.16865E+03  1.33865E+03  1.92625E+03 -1.22344E+03  1.28078E+03  1.50553E+03 -1.44996E+03
  8.21642E+02  2.07909E+02  2.99007E+03  1.51324E+03  3.18481E+02  5.09109E+03  2.09506E+02  5.92714E+03
 -3.84898E+03  3.17264E+03 -4.73492E+03  1.85740E+03 -5.00971E+03 -2.34182E+03 -1.82141E+03 -2.80533E+03
  8.45840E+02 -3.58648E+03  2.19777E+03 -1.31688E+03  2.15687E+03  1.59183E+03 -1.25140E+03  2.32378E+03
 -4.30300E+03  2.11249E+03 -4.90773E+03 -3.05267E+03 -1.94930E+03 -4.95271E+03 -8.90954E+02 -3.62185E+03
  2.16121E+03 -3.34920E+03  4.02760E+03 -4.73610E+01  3.46266E+03  1.73518E+03  2.01264E+02  3.71340E+03
 -2.33572E+03 -4.77407E+01 -2.95375E+03 -1.33780E+03  1.03918E+03 -3.46608E+03  4.13128E+03 -3.09949E+03
  5.25669E+03  5.19901E+02  4.39101E+03  2.58156E+03  2.05694E+03  5.26112E+03 -2.12247E+03  6.34843E+03
 -4.33133E+03  2.26702E+03 -5.71549E+03  3.64163E+02 -2.12887E+03 -3.18285E+03  1.16406E+03 -2.58288E+03
  3.28967E+03 -1.21550E+03  2.98346E+03  8.09195E+02  1.07080E+03  2.73863E+03 -4.68671E+02  2.61775E+03
 -1.57312E+03  2.21625E+03 -1.60083E+03 -4.29358E+02  1.69903E+02  3.98897E+01 -8.85406E+02  8.15061E+02
 -1.46379E+03  2.33112E+03 -2.74035E+03  1.40269E+03 -5.90681E+03  3.28278E+02 -5.32770E+03 -2.87820E+03
 -3.64134E+03 -5.37266E+03  2.01707E+03 -6.54310E+03  3.73171E+03 -5.77669E+03  8.38965E+03 -2.99466E+03
  7.37702E+03  1.96917E+03  4.67056E+03  4.73573E+03  5.71894E+02  4.60766E+03 -2.25298E+03  3.49409E+03
 -3.41331E+03  1.97851E+03 -2.21519E+03 -1.36633E+03  1.06557E+02  1.02988E+01  2.51653E+02  4.90419E+02
 -2.44100E+03  5.05083E+02 -1.57337E+02 -5.81339E+02 -6.74175E+02 -1.12064E+03 -4.89067E+02 -2.53676E+03
  3.10772E+03 -2.45429E+03  3.50922E+03 -2.42579E+02  2.41547E+03  2.15803E+03 -4.36708E+02  4.18134E+03
 -2.44209E+03  6.50921E+03 -5.52072E+03  3.31774E+03 -6.41706E+03 -1.46150E+03 -4.40631E+03 -4.47389E+03
 -2.64848E+03 -5.01084E+03  2.57135E+01 -4.21835E+03  2.42634E+03 -2.41744E+03  2.79573E+03  8.48250E+02
  1.22401E+03  1.48331E+03 -1.28114E+03  1.40788E+03 -6.83778E+02 -6.97791E+02  1.22383E+03 -1.08832E+02
  1.45952E+03 -6.11689E+02  1.74118E+03  2.96591E+01 -3.19479E+02  6.27232E+02  7.79757E+02  2.07546E+03
 -3.23243E+03  2.27631E+03 -2.54085E+03  8.83834E+01 -3.20625E+03 -1.66675E+03 -1.19148E+03 -4.88680E+03
  2.15782E+03 -3.06395E+03  2.77202E+03 -2.58091E+02  3.66009E+03 -6.54626E+01  2.56831E+03  3.36259E+03
  1.56091E+03  2.40491E+03 -6.93250E+02  3.13411E+03 -2.32014E+01  9.22826E+02 -1.70696E+03  3.38598E+02
 -9.15447E+02 -1.87068E+02 -1.61780E+03  7.64249E+02 -1.54787E+03  1.60274E+03 -2.38210E+03 -3.51618E+02
 -2.65744E+03 -5.93233E+02 -3.99739E+02 -2.77779E+03  1.75393E+03 -3.14759E+03  2.99126E+03 -3.37731E+03
  3.54582E+03  6.03385E+02  2.99143E+02  1.90884E+03 -1.26399E+03  1.88198E+03 -3.41290E+03  3.48488E+03
