 $NMID ID='MM_0lb_SNR200_10hz_g45_41.RAW', FMTDAT='(8E13.5)'
 TRAMP=1., VOLUME=1. $END
  3.09355E+05  6.86693E+02  3.37161E+05  2.49942E+05  8.43598E+04  3.38087E+05 -1.33204E+05  2.50112E+05
 -1.91379E+05  8.24185E+04 -1.11564E+05 -3.30218E+04 -4.06063E+01 -5.04899E+04  5.31535E+04 -7.64075E+02
  3.51056E+04  5.31535E+04 -1.59682E+04  7.50973E+04 -6.17519E+04  6.50433E+04 -8.38528E+04  3.32399E+04
 -8.26443E+04 -9.81548E+03 -5.80002E+04 -5.29228E+04 -1.43393E+04 -6.94554E+04  2.68880E+04 -4.55337E+04
  4.05755E+04  3.16541E+03  1.64626E+04  4.76866E+04 -3.48688E+04  4.85157E+04 -6.76462E+04  3.98618E+01
 -5.43600E+04 -5.78906E+04 -6.69353E+03 -7.84215E+04  3.35514E+04 -5.56644E+04  4.87232E+04 -1.83905E+04
  4.61356E+04  1.19255E+04  3.26518E+04  2.54098E+04  1.49616E+04  3.04427E+04 -4.92198E+03  2.70122E+04
 -2.17395E+04  1.22831E+04 -1.73986E+04 -5.37125E+03  6.89886E+03 -7.30905E+03  2.24310E+04  1.34600E+04
  7.47572E+03  3.74154E+04 -3.40246E+04  3.66000E+04 -6.44478E+04  8.71175E+02 -5.84852E+04 -4.43465E+04
 -1.31121E+04 -6.55306E+04  3.98773E+04 -4.70751E+04  6.06553E+04 -2.15916E+03  3.66309E+04  3.32008E+04
 -6.03840E+03  3.88709E+04 -3.04895E+04  1.65505E+04 -3.14761E+04 -5.04493E+03 -1.78259E+04 -1.19496E+04
 -8.55241E+03 -1.39418E+04 -8.08037E+01 -1.84258E+04  9.24512E+03 -2.30799E+04  1.64195E+04 -1.19677E+04
  1.02732E+04  5.47532E+03 -9.75735E+03  1.30015E+04 -2.30439E+04 -6.28351E+03 -7.69322E+03 -3.71917E+04
  2.50588E+04 -4.64920E+04  5.15068E+04 -1.93554E+04  4.70982E+04  1.99443E+04  1.57593E+04  4.59062E+04
 -1.56749E+04  3.74607E+04 -2.70246E+04  2.41286E+03 -1.20798E+04 -2.99714E+04  2.16123E+04 -3.84681E+04
  4.34942E+04 -1.03254E+04  3.89931E+04  2.33501E+04  1.98432E+04  4.90217E+04 -9.37265E+03  5.70401E+04
 -3.44325E+04  3.63104E+04 -4.56127E+04  1.03671E+04 -4.66061E+04 -1.89958E+04 -2.48247E+04 -4.00932E+04
  8.26691E+03 -4.22854E+04  3.44418E+04 -1.68908E+04  3.03440E+04  1.03461E+04  3.42890E+03  2.05768E+04
 -1.38605E+04  1.03204E+04 -1.08035E+04 -8.83264E+03  6.33529E+03 -1.19775E+04  1.78616E+04  5.45624E+03
  1.49709E+04  2.14960E+04 -5.03184E+03  2.57184E+04 -2.21260E+04  1.27434E+04 -3.07688E+04 -3.19577E+03
 -2.45193E+04 -1.87196E+04 -8.42412E+03 -2.34863E+04  4.28903E+03 -2.34251E+04  1.69843E+04 -2.15583E+04
  2.88672E+04 -1.37642E+04  3.61874E+04  4.25871E+03  2.51580E+04  2.30078E+04  4.73045E+03  3.93933E+04
 -2.01953E+04  3.28666E+04 -3.02706E+04  1.16230E+04 -2.35175E+04 -1.12934E+04 -5.31073E+03 -1.31055E+04
  1.91169E+03 -1.30857E+03 -7.36258E+03  8.40766E+03 -1.94597E+04  4.33399E+03 -1.78386E+04 -9.07579E+03
 -1.31624E+04 -2.24622E+04  5.18436E+03 -2.57671E+04  1.76593E+04 -1.78399E+04  2.17142E+04 -1.48893E+03
  1.34269E+04  1.58749E+04 -2.91130E+03  2.12908E+04 -1.60558E+04  1.21999E+04 -2.26982E+04 -4.92507E+03
 -1.66980E+04 -1.95058E+04 -2.18222E+03 -2.58060E+04  1.20662E+04 -2.19036E+04  2.44945E+04 -1.12322E+04
  2.02778E+04  1.06480E+01  1.53555E+04  4.76811E+03  7.37791E+03  1.07082E+03  1.18758E+04 -1.47820E+03
  2.05415E+04  3.11596E+03  2.34137E+04  1.85530E+04  1.57330E+04  3.51771E+04 -2.50693E+03  4.30022E+04
 -2.37953E+04  3.48388E+04 -3.92426E+04  1.73717E+04 -4.02914E+04 -2.33368E+03 -3.59983E+04 -2.44670E+04
 -1.27548E+04 -3.54974E+04  1.35438E+04 -3.07577E+04  2.68482E+04 -1.42319E+04  2.36161E+04  7.83466E+03
  7.88242E+03  1.90514E+04 -1.17198E+04  1.51489E+04 -1.89906E+04  1.90384E+03 -1.47028E+04 -1.19399E+04
 -1.87108E+02 -1.69906E+04  9.39827E+03 -1.41003E+04  1.27061E+04 -1.23743E+03  3.88472E+03  8.65732E+03
 -7.77105E+03  3.75375E+03 -8.11652E+03 -7.41926E+03 -9.87971E+02 -1.65510E+04  1.18657E+04 -1.86096E+04
  2.16087E+04 -1.03064E+04  2.38571E+04  3.40311E+03  2.06565E+04  1.72528E+04  8.68738E+03  2.51960E+04
 -4.44344E+03  2.84259E+04 -1.80065E+04  1.73582E+04 -2.16132E+04  3.52027E+03 -1.65030E+04 -4.38537E+03
 -5.83856E+03 -6.43814E+03 -1.09298E+03  5.72563E+01 -1.42498E+03  3.17890E+03 -7.37072E+03  5.04903E+03
 -1.25990E+04 -8.50439E+02 -1.35286E+04 -9.83145E+03 -6.00958E+03 -1.68270E+04  6.47324E+03 -1.32211E+04
  1.28270E+04 -5.94104E+03  7.53900E+03  3.84235E+03 -5.18856E+01  3.36017E+03 -5.89635E+03 -1.19266E+03
 -7.18081E+03 -9.32979E+03 -9.45497E+02 -1.22071E+04  8.68680E+03 -1.44198E+04  1.91119E+04 -8.08507E+03
  2.10933E+04  1.61611E+03  1.63553E+04  1.33087E+04  3.85177E+03  1.68493E+04 -8.67283E+03  1.43839E+04
 -1.05900E+04  5.37822E+03 -5.73705E+03 -3.96071E+03  1.63770E+03 -3.96438E+03  8.67332E+03 -2.08154E+03
  5.87280E+03  7.10254E+03  1.12179E+02  1.08845E+04 -7.54350E+03  9.97417E+03 -1.44056E+04  3.30856E+03
 -9.00140E+03 -7.56984E+03  9.12474E+02 -1.24299E+04  8.66216E+03 -8.16753E+03  8.75533E+03  2.89528E+03
  2.07381E+03  8.36325E+03 -7.88967E+03  1.03238E+04 -1.05931E+04  6.19749E+03 -1.18745E+04 -3.94930E+03
 -8.05047E+03 -1.48402E+04  4.17657E+03 -1.64326E+04  1.34322E+04 -1.02742E+04  1.50786E+04  2.71145E+03
  7.95866E+03  1.18796E+04 -2.94281E+02  1.49349E+04 -1.10683E+04  6.53528E+03 -1.02069E+04  5.28620E+02
 -1.08331E+04 -9.03925E+03 -8.49766E+02 -1.20451E+04  4.75435E+03 -9.86790E+03  5.81639E+03 -4.89994E+03
  5.46055E+03  5.48644E+02 -1.74148E+03  1.39123E+03 -2.57434E+02 -3.29018E+03  2.77868E+03 -5.91752E+03
  1.01052E+04 -3.35396E+03  1.39380E+04  1.88925E+03  1.38863E+04  1.18039E+04  8.51154E+03  1.78011E+04
 -3.85994E+03  2.03136E+04 -1.71166E+04  1.53277E+04 -2.18775E+04  2.59037E+03 -1.91359E+04 -7.61919E+03
 -1.02370E+04 -1.43136E+04  5.58182E+02 -1.19572E+04  4.54707E+03 -6.47650E+03  3.72596E+03 -5.33554E+03
  4.73131E+03 -4.25719E+03  3.58810E+03 -4.45792E+03  6.18802E+03 -2.97043E+03  6.75257E+03 -6.89139E+02
  7.57141E+03  3.53499E+03  4.91251E+03  8.52933E+03 -3.14520E+03  1.01902E+04 -1.04952E+04  6.89794E+03
 -1.24566E+04 -4.75137E+02 -9.06300E+03 -1.02085E+04 -1.25399E+03 -1.42021E+04  7.34834E+03 -1.44854E+04
  1.31922E+04 -7.59277E+03  1.63035E+04  3.32557E+03  1.23996E+04  1.30264E+04  3.17652E+03  1.49759E+04
 -6.94798E+03  1.14916E+04 -8.44139E+03  4.64028E+03 -7.53937E+03 -8.15840E+01 -2.51206E+03 -1.75259E+03
 -1.84970E+03  6.22065E+02 -1.76121E+03  1.52709E+03 -3.49343E+03  3.27688E+03 -9.52720E+03 -1.01093E+03
 -6.34908E+03 -9.62104E+03 -5.04552E+01 -1.19828E+04  6.81305E+03 -1.36353E+04  1.31834E+04 -2.79505E+03
  1.33130E+04  5.79335E+03  6.06316E+03  1.25084E+04 -2.51724E+03  1.25686E+04 -8.17187E+03  7.75842E+03
 -1.23475E+04  6.97428E+02 -1.05142E+04 -7.43169E+03 -4.87490E+02 -1.15436E+04  5.61360E+03 -7.16907E+03
  8.70640E+03 -1.90067E+03  5.35274E+03  2.02435E+03  2.77765E+03  4.35771E+03  5.95318E+02  2.78018E+03
  3.15403E+03  9.58916E+02  2.73330E+03  3.01682E+03  3.86594E+03  3.95095E+03  5.28548E+03  6.49790E+03
 -1.65304E+03  1.00922E+04 -9.02365E+03  9.22652E+03 -1.10338E+04  3.97980E+03 -1.22422E+04 -6.02217E+03
 -6.13549E+03 -1.44449E+04  3.91059E+03 -1.48830E+04  6.93484E+03 -9.43687E+03  1.08016E+04 -2.20852E+03
  7.99415E+03  4.91503E+03  7.72942E+02  8.24104E+03 -3.51460E+03  3.01913E+03 -4.17463E+03 -1.36953E+03
 -6.42166E+02 -5.68562E+03  3.31693E+03 -4.57153E+03  6.38261E+03 -2.16950E+03  5.57485E+03  1.32838E+03
  3.24528E+03  2.54086E+03  1.37635E+02  2.36792E+03 -1.33902E+03 -7.51900E+01  1.12267E+03  4.99149E+02
  2.32449E+03 -1.56294E+03  4.18397E+03  2.21356E+03  2.81079E+03  6.90310E+03  5.75865E+02  9.08537E+03
 -5.04462E+03  6.50343E+03 -8.51986E+03  9.35183E+02 -7.10190E+03 -1.85394E+03 -8.58459E+02 -4.60066E+03
  3.83019E+02 -5.47940E+03  1.56670E+03 -3.02296E+03  3.54497E+03  3.32475E+03 -1.77152E+03  3.23747E+03
 -6.13922E+03  1.15020E+03 -6.41896E+03 -3.42031E+03 -2.31760E+03 -6.06186E+03  5.82950E+02 -7.31050E+03
  4.42749E+03 -4.39632E+03  5.02400E+03 -3.03838E+01  3.13375E+03  3.46100E+03  1.23959E+03  4.05970E+03
 -2.30512E+03  1.45841E+02 -4.30352E+03 -2.63593E+03  1.01593E+03 -4.08224E+03  5.70764E+03 -3.59815E+03
  8.37721E+03 -4.44489E+02  7.59021E+03  4.30687E+03  2.15174E+03  8.96238E+03 -4.61724E+03  9.44580E+03
 -6.92283E+03  3.21744E+03 -8.68032E+03 -4.36133E+02 -4.32123E+03 -4.17946E+03  1.59535E+03 -7.48970E+03
  3.72386E+03 -2.37805E+03  5.37748E+03  2.41594E+03  1.12719E+03  3.89413E+03 -7.53744E+02  3.25114E+03
 -1.76988E+03  4.36211E+03 -1.66115E+03  2.23085E+03 -1.28865E+03  6.33625E+02 -1.89583E+03  1.41760E+03
 -2.75366E+03  4.70200E+03 -6.49019E+03  2.84622E+03 -8.65855E+03  1.31647E+03 -8.93162E+03 -5.68644E+03
 -4.58217E+03 -1.08891E+04  2.61425E+03 -1.23755E+04  7.49964E+03 -1.13291E+04  1.16627E+04 -3.87396E+03
  1.15811E+04  1.64696E+03  7.00339E+03  8.21340E+03  2.31054E+02  8.86342E+03 -3.02665E+03  6.07569E+03
 -4.63873E+03  2.29035E+03 -3.75403E+03 -4.87325E+02 -1.31880E+03 -1.33140E+03 -2.09379E+02  1.89507E+02
 -2.58442E+03 -4.53221E+02 -8.10009E+02  4.48581E+02 -4.77495E+02 -1.98895E+03  1.50643E+03 -3.55787E+03
  3.26647E+03 -1.95089E+03  5.73448E+03 -5.92394E+01  4.22266E+03  4.62939E+03  1.40506E+03  8.55363E+03
 -4.01434E+03  1.00757E+04 -9.25482E+03  6.26892E+03 -1.06781E+04 -7.19980E+02 -8.93717E+03 -6.21140E+03
 -2.53953E+03 -6.39119E+03  2.76571E+03 -5.82025E+03  5.64028E+03 -4.65278E+03  6.38686E+03  6.53379E+02
  3.65948E+03  1.65032E+03 -2.95763E+02  1.37721E+03 -2.80519E+03 -1.89646E+02  1.17758E+03 -1.96740E+03
  3.56920E+03 -5.44444E+02  3.26801E+03  1.54598E+03  2.70233E+03  3.17306E+03  5.34727E+02  5.43629E+03
 -2.84415E+03  4.52338E+03 -4.17788E+03  6.74235E+02 -5.38084E+03 -4.79596E+03 -9.97944E+02 -6.18397E+03
  3.58007E+03 -5.68266E+03  6.80790E+03 -3.20131E+03  6.92049E+03  1.59329E+03  3.56695E+03  5.73020E+03
  1.31578E+03  6.77824E+03 -1.36357E+03  5.43605E+03 -1.89318E+03  1.63290E+03 -2.12714E+03 -1.73196E+02
 -1.19181E+03 -2.90047E+02 -3.66887E+03 -1.07358E+03 -3.28288E+03  8.48657E+02 -3.74650E+03 -2.69285E+03
 -4.11001E+03 -3.77541E+03  9.81767E+02 -5.78261E+03  2.56938E+03 -6.98842E+03  4.60684E+03 -2.29928E+03
  5.84656E+03 -3.77056E+02  2.76703E+03  4.72782E+03  3.89661E+02  6.21492E+03 -3.89869E+03  3.72513E+03
