 $NMID ID='MM_0lb_SNR200_8hz_g60_34.RAW', FMTDAT='(8E13.5)'
 TRAMP=1., VOLUME=1. $END
  3.09348E+05  2.49365E+03  3.38783E+05  2.52004E+05  8.48811E+04  3.40409E+05 -1.33586E+05  2.52413E+05
 -1.92551E+05  8.61885E+04 -1.13606E+05 -3.22812E+04 -6.62436E+01 -5.08984E+04  5.31543E+04  3.53434E+02
  3.59917E+04  5.34453E+04 -1.57678E+04  7.55565E+04 -6.05258E+04  6.45962E+04 -8.73562E+04  3.30494E+04
 -8.28478E+04 -1.38022E+04 -5.81475E+04 -5.43800E+04 -1.42296E+04 -7.11271E+04  2.83931E+04 -4.65458E+04
  4.15255E+04  3.69156E+03  1.65500E+04  4.91367E+04 -3.71577E+04  4.90315E+04 -6.81000E+04  1.60799E+03
 -5.49391E+04 -5.85814E+04 -7.41107E+03 -7.78740E+04  3.54249E+04 -5.80070E+04  5.15027E+04 -1.82445E+04
  4.68746E+04  1.03738E+04  3.51498E+04  2.82236E+04  1.64670E+04  3.11127E+04 -5.41415E+03  2.69388E+04
 -2.25156E+04  1.07313E+04 -1.74773E+04 -6.83698E+03  7.46422E+03 -7.44427E+03  2.40147E+04  1.42858E+04
  9.14001E+03  4.00183E+04 -3.56113E+04  3.96374E+04 -6.81164E+04  1.06279E+03 -5.89469E+04 -4.50123E+04
 -1.31789E+04 -6.58662E+04  4.23547E+04 -4.87088E+04  6.30289E+04 -3.20642E+03  3.92901E+04  3.71087E+04
 -5.04729E+03  4.03887E+04 -3.33713E+04  1.87588E+04 -3.32266E+04 -3.99854E+03 -2.00525E+04 -1.16626E+04
 -9.32009E+03 -1.59721E+04  7.61484E+02 -2.05305E+04  9.17053E+03 -2.49436E+04  1.73326E+04 -1.15754E+04
  1.02213E+04  7.36489E+03 -9.33902E+03  1.23081E+04 -2.52801E+04 -6.14958E+03 -8.64881E+03 -3.82941E+04
  2.55425E+04 -4.76529E+04  5.34924E+04 -2.14256E+04  5.03312E+04  2.02736E+04  1.72677E+04  4.73101E+04
 -1.52270E+04  3.55956E+04 -2.82323E+04  2.44111E+03 -1.23084E+04 -2.83726E+04  2.37117E+04 -3.77566E+04
  4.40542E+04 -1.22659E+04  4.28470E+04  2.73016E+04  2.37556E+04  5.17237E+04 -9.62159E+03  5.88868E+04
 -3.75004E+04  3.93142E+04 -5.09886E+04  1.23885E+04 -4.98737E+04 -1.81484E+04 -2.73443E+04 -4.25418E+04
  8.25855E+03 -4.52859E+04  3.48356E+04 -1.86911E+04  3.28933E+04  1.01832E+04  6.48666E+03  2.15693E+04
 -1.29015E+04  1.06028E+04 -1.14730E+04 -6.61244E+03  7.47179E+03 -1.17425E+04  2.05099E+04  5.83972E+03
  1.58134E+04  2.24916E+04 -5.21454E+03  2.74136E+04 -2.48641E+04  1.61807E+04 -3.42517E+04 -3.05997E+03
 -2.68507E+04 -1.84867E+04 -1.43608E+04 -2.93405E+04  3.26827E+03 -2.78762E+04  2.24933E+04 -2.47528E+04
  3.57533E+04 -1.51263E+04  4.10733E+04  5.07434E+03  2.70583E+04  2.76099E+04  6.83467E+03  4.07172E+04
 -1.98593E+04  3.59876E+04 -3.13130E+04  1.38572E+04 -2.34507E+04 -1.11022E+04 -5.94631E+03 -1.22411E+04
 -5.47729E+02  1.85929E+03 -8.54848E+03  9.20128E+03 -2.21253E+04  5.31163E+03 -2.03049E+04 -9.30122E+03
 -1.35118E+04 -2.37455E+04  7.29246E+03 -3.04047E+04  2.05701E+04 -2.07857E+04  2.43454E+04 -1.73882E+03
  1.53208E+04  1.57009E+04 -3.48949E+03  2.40624E+04 -1.93498E+04  1.41579E+04 -2.57375E+04 -4.52461E+03
 -1.74771E+04 -2.43947E+04 -4.59815E+03 -3.15324E+04  1.51289E+04 -2.64634E+04  2.35271E+04 -1.46675E+04
  2.39586E+04 -1.51918E+03  1.75042E+04  6.10176E+03  9.83307E+03  2.95486E+03  1.26043E+04 -5.64765E+02
  2.32676E+04  2.70928E+03  2.82272E+04  1.84137E+04  2.08086E+04  4.00996E+04 -3.96157E+03  4.81733E+04
 -2.92009E+04  4.07877E+04 -4.60161E+04  2.04974E+04 -4.93121E+04 -3.96798E+03 -3.86150E+04 -2.87537E+04
 -1.65439E+04 -4.27137E+04  1.47947E+04 -3.38339E+04  3.02261E+04 -1.75960E+04  2.66638E+04  9.15205E+03
  9.05054E+03  2.04343E+04 -1.32274E+04  1.71407E+04 -2.17506E+04  5.34276E+03 -1.68194E+04 -1.50786E+04
  3.49399E+02 -2.16231E+04  1.18897E+04 -1.50049E+04  1.48262E+04 -2.03450E+03  3.55256E+03  1.06423E+04
 -9.76361E+03  5.56240E+03 -1.11463E+04 -6.05724E+03 -2.21843E+03 -2.07936E+04  1.39053E+04 -1.97247E+04
  2.42901E+04 -1.21953E+04  3.03260E+04  3.74174E+03  2.66977E+04  2.05536E+04  1.33010E+04  3.45599E+04
 -6.03347E+03  3.66126E+04 -2.19780E+04  1.99096E+04 -2.69816E+04  5.92124E+03 -1.96878E+04 -7.68137E+03
 -7.04968E+03 -8.42908E+03  4.51785E+02 -1.25138E+01 -1.59959E+03  3.62853E+03 -8.86982E+03  7.07935E+03
 -1.48770E+04 -3.71203E+02 -1.69328E+04 -1.27003E+04 -6.63962E+03 -2.16510E+04  8.14315E+03 -1.80261E+04
  1.57760E+04 -7.65966E+03  1.04645E+04  3.24705E+03 -3.45464E+02  7.57871E+03 -8.19699E+03  4.33719E+02
 -1.03530E+04 -1.08813E+04 -2.43778E+03 -1.62498E+04  1.05287E+04 -2.01104E+04  2.35294E+04 -9.11565E+03
  2.58368E+04  3.03598E+03  1.78034E+04  1.79705E+04  2.21651E+03  2.14034E+04 -1.06096E+04  1.86668E+04
 -1.36180E+04  4.99688E+03 -8.45532E+03 -3.75289E+03  3.98491E+03 -4.69313E+03  9.43930E+03 -1.83999E+03
  6.42416E+03  7.74095E+03  9.83194E+02  1.48263E+04 -1.14315E+04  1.32968E+04 -1.88715E+04  4.47571E+03
 -1.35773E+04 -8.72356E+03 -8.96166E+02 -1.45687E+04  1.04221E+04 -7.75096E+03  9.84493E+03  4.04070E+03
  3.90986E+03  1.28639E+04 -7.83265E+03  1.27537E+04 -1.61224E+04  7.14723E+03 -1.72863E+04 -6.45604E+03
 -1.16672E+04 -1.77483E+04  4.70684E+03 -2.33043E+04  1.72237E+04 -1.36511E+04  1.96184E+04  3.37375E+03
  9.42212E+03  1.73354E+04 -8.04290E+02  1.78316E+04 -1.34795E+04  9.88922E+03 -1.40931E+04 -2.58647E+03
 -1.24565E+04 -1.26510E+04 -2.11935E+03 -1.36256E+04  9.07893E+03 -1.21965E+04  1.06387E+04 -3.98067E+03
  5.63589E+03  2.73423E+03 -8.60076E+02  3.28379E+03 -7.64814E+02 -5.07222E+03  2.95276E+03 -9.71329E+03
  1.39835E+04 -4.37025E+03  1.92080E+04  4.88446E+02  1.85238E+04  1.29053E+04  1.16715E+04  2.62765E+04
 -5.78149E+03  2.86694E+04 -2.27588E+04  1.96606E+04 -3.03956E+04  5.02137E+03 -2.49908E+04 -1.05227E+04
 -1.19351E+04 -1.98632E+04  1.84055E+03 -1.85998E+04  5.09647E+03 -1.07770E+04  5.92248E+03 -4.90880E+03
  3.96720E+03 -4.41617E+03  3.37746E+03 -4.58036E+03  8.15144E+03 -2.99659E+03  1.01763E+04 -1.05880E+03
  1.25336E+04  3.77234E+03  8.00284E+03  1.23628E+04 -2.82971E+03  1.38857E+04 -1.45301E+04  9.12325E+03
 -1.97156E+04 -1.25448E+03 -1.11017E+04 -1.09365E+04 -8.66073E+02 -1.89206E+04  1.10755E+04 -1.91211E+04
  1.89436E+04 -1.05555E+04  2.35190E+04  2.22443E+03  1.78570E+04  1.72248E+04  3.07154E+03  2.01485E+04
 -8.69498E+03  1.73600E+04 -1.35080E+04  5.58363E+03 -9.06567E+03 -1.27542E+03 -2.92918E+03 -3.04547E+03
 -6.49356E+02  3.20832E+02 -3.11690E+03  4.67579E+03 -6.24361E+03  2.75089E+03 -9.93828E+03 -1.75503E+03
 -8.69088E+03 -1.34994E+04  6.77266E+02 -1.85907E+04  1.08110E+04 -1.62078E+04  1.89882E+04 -6.07140E+03
  1.75742E+04  7.99202E+03  8.63974E+03  1.61620E+04 -3.01364E+03  1.86756E+04 -1.36541E+04  1.16903E+04
 -1.57938E+04  1.16290E+03 -1.26427E+04 -1.03780E+04 -2.23366E+03 -1.52306E+04  9.50622E+03 -9.45197E+03
  1.14508E+04 -4.66463E+03  7.55060E+03  2.41792E+03  2.32958E+03  4.43394E+03  2.30369E+03  1.28469E+03
  4.90666E+03  3.01236E+03  3.01671E+03  8.81436E+02  4.55334E+03  7.67793E+03  3.49056E+03  8.26509E+03
 -3.46005E+03  1.50933E+04 -1.34811E+04  1.38137E+04 -1.78345E+04  3.94972E+03 -1.87400E+04 -9.36013E+03
 -8.42628E+03 -1.84720E+04  3.31493E+03 -2.12556E+04  1.13631E+04 -1.23293E+04  1.79801E+04 -2.33432E+03
  1.06588E+04  6.45255E+03  1.98277E+03  1.00960E+04 -4.76845E+03  7.88124E+03 -7.86402E+03 -2.78197E+03
 -2.68083E+03 -6.15868E+03  5.44020E+03 -8.62167E+03  8.40387E+03 -4.22990E+03  7.87656E+03  9.17771E+02
  3.23828E+03  3.74350E+03  3.50289E+03  2.46890E+03 -2.53094E+02  1.87456E+03  1.76840E+02  9.70987E+02
  3.03203E+03 -5.36320E+02  8.07188E+03  4.99726E+03  4.66672E+03  9.61887E+03 -2.53770E+03  1.40521E+04
 -7.88205E+03  8.83830E+03 -1.32129E+04  1.46112E+03 -1.12601E+04 -6.13127E+03 -4.63553E+03 -8.24064E+03
  2.97722E+02 -8.70987E+03  4.64044E+03 -4.35463E+03  2.56546E+03  4.26423E+03 -1.32807E+03  7.31653E+03
 -7.14852E+03  4.58183E+03 -8.54510E+03 -5.17045E+03 -5.53197E+03 -8.47972E+03  2.65513E+03 -1.14107E+04
  5.34491E+03 -7.96875E+03  6.90872E+03 -1.22724E+03  5.24190E+03  3.04601E+03  6.56807E+01  5.40709E+03
 -4.01290E+03  2.43660E+03 -4.48124E+03 -3.99414E+03  8.26534E+02 -7.23418E+03  1.04438E+04 -7.39641E+03
  1.33433E+04  8.51722E+02  1.20771E+04  8.57146E+03  3.43046E+03  1.15167E+04 -6.18186E+03  1.15971E+04
 -9.66981E+03  5.66353E+03 -1.18698E+04 -2.28579E+03 -6.31278E+03 -8.83145E+03  2.00681E+03 -8.44383E+03
  7.65158E+03 -2.76561E+03  8.82984E+03  3.20810E+03  1.87435E+03  5.47755E+03 -2.42929E+03  5.20775E+03
 -3.76109E+03  4.25181E+03 -3.12070E+03  1.98491E+03 -2.49488E+03  5.33207E+02 -2.70817E+03  2.07164E+03
 -3.28359E+03  4.57854E+03 -7.64331E+03  5.64627E+03 -1.29080E+04 -1.37550E+03 -1.51535E+04 -9.75408E+03
 -6.66991E+03 -1.64520E+04  3.25501E+03 -1.83593E+04  1.28753E+04 -1.62922E+04  1.78851E+04 -6.55913E+03
  1.72122E+04  5.39433E+03  1.15289E+04  1.20802E+04  2.15425E+03  1.41896E+04 -6.54135E+03  1.10470E+04
 -7.33182E+03  4.31470E+03 -4.88732E+03 -1.75627E+03 -1.63813E+03 -1.81854E+03 -1.84072E+03 -2.60040E+02
 -2.17098E+03  1.19349E+03 -3.26307E+03 -5.59846E+02  9.79692E+00 -4.07103E+03  2.77258E+03 -5.54014E+03
  6.43316E+03 -3.39158E+03  7.27344E+03  1.44285E+03  1.10707E+04  6.63532E+03  1.49950E+03  1.52665E+04
 -5.84423E+03  1.39182E+04 -1.37562E+04  1.04611E+04 -1.77044E+04 -1.11077E+03 -1.32702E+04 -1.18634E+04
 -6.49213E+03 -1.50373E+04  2.28863E+03 -1.39818E+04  8.07976E+03 -6.95470E+03  9.17403E+03  5.43354E+02
  4.95430E+03  3.69551E+03 -5.63574E+02  3.31903E+03 -4.56970E+03 -6.53632E+02  1.51524E+02 -2.73690E+03
  3.07561E+03 -1.00387E+03  5.76377E+03  9.39106E+02  1.41304E+03  5.39445E+03 -1.07234E+03  7.12228E+03
 -5.57796E+03  4.17314E+03 -9.90157E+03  6.34381E+02 -7.97335E+03 -7.39844E+03 -1.62900E+03 -1.09751E+04
  6.75414E+03 -9.63991E+03  1.34764E+04 -2.23964E+03  1.05032E+04  1.53247E+03  6.57035E+03  1.04692E+04
  1.51342E+03  9.88116E+03 -3.93358E+03  7.41471E+03 -6.00293E+03  2.68153E+03 -5.33596E+03  1.49714E+03
 -2.74426E+03 -1.47562E+02 -3.54353E+03  9.17897E+02 -3.03210E+03  1.12185E+03 -5.96378E+03 -1.89400E+02
 -7.13610E+03 -4.90970E+03 -2.29612E+03 -1.00754E+04  4.93538E+03 -8.39142E+03  8.85101E+03 -5.02353E+03
  8.63320E+03  2.01675E+03  5.78446E+03  9.25720E+03 -2.69356E+03  9.39111E+03 -8.84267E+03  7.59380E+03
