 $NMID ID='MM_0lb_SNR200_13hz_g40_5.RAW', FMTDAT='(8E13.5)'
 TRAMP=1., VOLUME=1. $END
  3.09331E+05  2.64924E+02  3.37536E+05  2.51148E+05  8.52226E+04  3.37392E+05 -1.31609E+05  2.51318E+05
 -1.90751E+05  8.27870E+04 -1.12388E+05 -3.27159E+04 -8.67545E+01 -4.97516E+04  5.46760E+04  7.79619E+02
  3.59661E+04  5.23384E+04 -1.80580E+04  7.63137E+04 -6.06886E+04  6.34528E+04 -8.37722E+04  3.23389E+04
 -8.14134E+04 -1.05818E+04 -5.70188E+04 -4.99961E+04 -1.56939E+04 -6.92296E+04  2.77743E+04 -4.60433E+04
  3.87269E+04  3.52398E+03  1.65347E+04  4.70706E+04 -3.35896E+04  4.72545E+04 -6.60288E+04  6.36418E+02
 -5.26438E+04 -5.64276E+04 -6.00196E+03 -7.66370E+04  3.44095E+04 -5.62080E+04  4.75142E+04 -1.61927E+04
  4.24992E+04  1.15999E+04  3.05174E+04  2.51652E+04  1.69810E+04  2.92221E+04 -4.51904E+03  2.66951E+04
 -2.17514E+04  1.22852E+04 -1.80740E+04 -5.21225E+03  5.01740E+03 -9.01280E+03  2.34778E+04  1.24115E+04
  7.94057E+03  3.58577E+04 -3.14964E+04  3.53087E+04 -6.21403E+04  2.29492E+03 -5.58732E+04 -4.31357E+04
 -1.25133E+04 -6.25833E+04  4.08026E+04 -4.48559E+04  5.75970E+04 -1.76634E+03  3.30399E+04  3.21420E+04
 -5.94499E+03  3.63857E+04 -2.97388E+04  1.57741E+04 -3.07789E+04 -5.23008E+03 -1.70221E+04 -1.05829E+04
 -9.01726E+03 -1.20098E+04 -1.16280E+02 -1.68637E+04  7.45332E+03 -2.22923E+04  1.54888E+04 -1.37157E+04
  1.10770E+04  7.10239E+03 -8.28022E+03  1.29543E+04 -2.09686E+04 -5.10283E+03 -8.90621E+03 -3.51800E+04
  2.28444E+04 -4.37534E+04  4.83152E+04 -2.06505E+04  4.60509E+04  2.08129E+04  1.61565E+04  4.42279E+04
 -1.48438E+04  3.31006E+04 -2.54473E+04  2.36562E+03 -9.27299E+03 -2.78900E+04  2.12296E+04 -3.38753E+04
  4.15537E+04 -9.30044E+03  3.56316E+04  2.24765E+04  1.66423E+04  4.63982E+04 -7.47906E+03  5.02963E+04
 -3.18145E+04  3.36289E+04 -4.20630E+04  9.65756E+03 -4.34578E+04 -1.64239E+04 -2.40541E+04 -3.84690E+04
  5.75601E+03 -3.84902E+04  3.10362E+04 -1.51033E+04  3.05033E+04  9.79597E+03  3.58764E+03  1.91893E+04
 -1.45330E+04  9.30523E+03 -1.04093E+04 -7.46199E+03  7.01960E+03 -1.15517E+04  1.74810E+04  6.62279E+03
  1.23997E+04  2.15754E+04 -6.15371E+03  2.62291E+04 -2.23936E+04  1.24165E+04 -2.87307E+04 -5.59235E+03
 -2.01413E+04 -1.82558E+04 -7.34318E+03 -2.06128E+04  4.15023E+03 -1.92799E+04  1.58049E+04 -1.89958E+04
  2.67317E+04 -1.23711E+04  3.21575E+04  3.72443E+03  2.30926E+04  1.94357E+04  4.71173E+03  3.58939E+04
 -1.76809E+04  2.94416E+04 -2.85443E+04  9.71012E+03 -2.09043E+04 -1.12855E+04 -4.89279E+03 -1.39323E+04
  2.50546E+03 -3.05056E+03 -5.01384E+03  7.88350E+03 -1.68840E+04  5.15495E+03 -1.73114E+04 -7.04122E+03
 -9.34671E+03 -1.98329E+04  5.64982E+03 -2.40151E+04  1.55371E+04 -1.68602E+04  1.91255E+04  3.57775E+02
  1.13891E+04  1.23535E+04 -1.76452E+03  1.88980E+04 -1.19618E+04  1.14830E+04 -1.97980E+04 -4.04594E+03
 -1.36486E+04 -1.60215E+04 -1.00383E+03 -2.43105E+04  9.52965E+03 -1.95242E+04  1.90503E+04 -9.96169E+03
  1.77154E+04 -6.10898E+02  1.18750E+04  5.56499E+03  5.28689E+03  1.16232E+03  9.56654E+03 -3.11491E+03
  1.61807E+04  3.69002E+03  2.03325E+04  1.56655E+04  1.38453E+04  3.16321E+04 -3.16828E+03  3.37258E+04
 -2.07591E+04  2.79541E+04 -3.26545E+04  1.38312E+04 -3.43678E+04 -2.84033E+03 -2.76976E+04 -1.84143E+04
 -1.21874E+04 -2.84119E+04  8.89399E+03 -2.43017E+04  2.19870E+04 -1.28648E+04  1.87189E+04  5.24462E+03
  5.89084E+03  1.42971E+04 -8.47268E+03  1.19423E+04 -1.68967E+04  3.93271E+03 -1.11238E+04 -1.08836E+04
 -1.22988E+03 -1.51813E+04  9.22198E+03 -1.21305E+04  9.22270E+03 -8.18392E+02  2.37728E+03  7.17786E+03
 -7.18075E+03  2.84753E+03 -5.61368E+03 -6.10790E+03 -5.44100E+02 -1.47372E+04  9.78002E+03 -1.38254E+04
  1.71733E+04 -6.65346E+03  1.76771E+04  2.77082E+03  1.56366E+04  1.33457E+04  7.98771E+03  1.98720E+04
 -3.27085E+03  2.21142E+04 -1.50273E+04  1.35216E+04 -1.55295E+04  2.73065E+03 -1.21900E+04 -3.68522E+03
 -5.00648E+03 -4.30610E+03 -1.38632E+03  1.89114E+03 -2.48578E+03  1.36348E+03 -5.65003E+03  3.60887E+03
 -1.05219E+04 -8.30437E+02 -1.16962E+04 -8.83338E+03 -3.89090E+03 -1.36382E+04  4.24216E+03 -1.17196E+04
  1.01158E+04 -5.48527E+03  6.90494E+03  1.99404E+03 -4.33672E+02  5.00339E+03 -6.00082E+03 -1.74178E+03
 -3.58101E+03 -7.47393E+03 -1.74823E+02 -1.16212E+04  5.48605E+03 -1.15768E+04  1.36323E+04 -6.86962E+03
  1.71428E+04  2.31777E+03  1.21611E+04  1.03968E+04  2.11328E+03  1.30102E+04 -7.26198E+03  1.18238E+04
 -9.87415E+03  2.94054E+03 -4.94290E+03 -1.45827E+03  1.72271E+03 -3.42142E+03  6.75828E+03 -1.35808E+03
  5.51117E+03  6.38346E+03  1.38308E+03  1.02217E+04 -5.43485E+03  9.17281E+03 -1.13080E+04  2.56611E+03
 -6.68993E+03 -5.04164E+03  4.11687E+02 -1.03131E+04  4.74090E+03 -4.28915E+03  6.21335E+03  2.23510E+03
  1.67276E+03  5.29094E+03 -5.59248E+03  7.85027E+03 -8.69440E+03  2.67694E+03 -9.82586E+03 -1.66314E+03
 -5.65536E+03 -1.06978E+04  2.59408E+03 -1.18969E+04  1.01805E+04 -8.00662E+03  9.94795E+03  2.92477E+03
  8.40634E+03  1.03497E+04 -7.63022E+02  1.10496E+04 -7.89908E+03  5.22444E+03 -8.24003E+03 -1.09289E+03
 -7.77931E+03 -6.63663E+03 -2.02918E+03 -8.18590E+03  4.45477E+03 -7.20513E+03  4.18494E+03 -3.28147E+03
  4.51310E+03  5.53367E+02 -8.11985E+02  2.10160E+03 -1.93263E+02 -2.77484E+03  2.98093E+02 -3.60083E+03
  6.53968E+03 -1.98574E+03  1.00150E+04  1.03898E+03  1.07799E+04  6.49559E+03  7.90015E+03  1.19846E+04
 -4.24160E+03  1.46483E+04 -1.28724E+04  1.11678E+04 -1.76708E+04  1.92505E+03 -1.44449E+04 -4.96543E+03
 -7.06368E+03 -1.09931E+04 -1.16015E+02 -9.22384E+03  3.68439E+03 -5.06073E+03  4.58758E+03 -3.57722E+03
  1.70693E+03 -1.93165E+03  3.32090E+03 -3.07558E+03  4.71488E+03 -1.78228E+03  5.52039E+03 -4.22007E+02
  7.87002E+03  1.79613E+03  3.67004E+03  5.26237E+03 -1.65322E+03  7.59828E+03 -7.84850E+03  6.90005E+03
 -9.61645E+03 -2.05323E+03 -3.77725E+03 -5.79352E+03 -1.00328E+03 -9.47991E+03  6.89500E+03 -7.42259E+03
  9.71971E+03 -6.32693E+03  1.19214E+04  7.22311E+02  8.36728E+03  8.86476E+03  1.61217E+03  1.14687E+04
 -3.94896E+03  8.97004E+03 -4.84591E+03  3.67775E+03 -3.56668E+03 -4.45117E+02 -1.41159E+03 -1.25138E+03
 -1.75212E+03  4.51835E+02 -2.01470E+03  2.97315E+03 -3.86479E+03  2.06695E+03 -6.21241E+03 -1.38706E+03
 -4.81817E+03 -7.20451E+03  2.95338E+02 -8.75929E+03  5.60046E+03 -8.18234E+03  6.80433E+03 -2.00300E+03
  8.43494E+03  4.63007E+03  4.36136E+03  7.91565E+03 -1.05275E+03  7.78437E+03 -5.11803E+03  5.15333E+03
 -8.96525E+03  1.45377E+03 -6.39211E+03 -5.25560E+03 -6.58630E+02 -8.02038E+03  3.18659E+03 -5.42009E+03
  4.91744E+03 -1.65283E+03  4.38604E+03 -1.22499E+02  1.55820E+03  3.54426E+03  5.64047E+02  4.21980E+02
  2.51874E+03  9.50182E+02  1.65225E+03  7.09500E+02  2.87069E+03  4.44215E+03  2.02058E+03  3.87601E+03
 -1.86387E+03  6.72113E+03 -5.08304E+03  7.17631E+03 -7.90275E+03  2.29909E+03 -1.00211E+04 -2.77851E+03
 -4.24985E+03 -7.74989E+03  1.70520E+03 -9.25779E+03  5.14912E+03 -6.61187E+03  7.29892E+03 -2.32717E+03
  5.03953E+03  3.86866E+03  1.32203E+03  2.98426E+03 -2.18158E+03  2.67773E+03 -4.00390E+03 -7.17943E+02
 -6.16699E+02 -4.95075E+03  1.49945E+03 -2.93947E+03  4.39524E+03 -1.21492E+03  2.76075E+03  9.62776E+02
  2.43673E+03  1.75381E+03  3.48608E+02  1.28556E+03 -9.58786E+02  1.53157E+03  1.68239E+03  3.68649E+02
  1.11952E+03 -5.56933E+02  4.93907E+03  7.36280E+02  2.35257E+03  4.72253E+03  9.02788E+02  5.35279E+03
 -5.07933E+03  2.72928E+03 -4.94510E+03  6.14101E+02 -5.12975E+03 -1.45596E+03 -4.04947E+02 -2.17768E+03
  1.22346E+03 -2.54954E+03  1.22366E+03 -1.57496E+03  2.74867E+03  2.55254E+03 -5.31009E+02  3.33218E+03
 -4.04721E+03  1.17700E+03 -2.90734E+03 -2.07951E+03 -2.35623E+03 -4.66368E+03  1.23627E+03 -4.57187E+03
  1.78464E+03 -2.28251E+03  2.75666E+03 -6.92833E+01  3.08664E+03  6.64455E+02 -7.95618E+02  3.45904E+03
 -2.60384E+03  9.80732E+02 -2.11118E+03 -3.11919E+02  1.66592E+03 -3.44994E+03  4.61784E+03 -3.17089E+03
  3.90638E+03 -3.57219E+02  5.19754E+03  3.06189E+03  1.66937E+03  4.46305E+03 -1.64011E+03  6.68124E+03
 -5.09342E+03  2.13081E+03 -4.36471E+03 -4.80612E+02 -2.19556E+03 -3.04625E+03  6.48311E+00 -2.28572E+03
  4.60364E+03 -1.40038E+03  2.17617E+03  6.14020E+02  1.72479E+03  2.83218E+03  1.99182E+02  2.40522E+03
 -1.14205E+03  1.34882E+03 -1.05467E+03 -8.03225E+01 -7.63521E+02  1.51888E+03  1.15816E+02  2.53046E+03
 -1.52788E+03  2.12969E+03 -2.58931E+03  9.40807E+02 -5.09601E+03 -1.10577E+03 -5.05865E+03 -3.00062E+03
 -3.12147E+03 -6.55855E+03  1.57689E+03 -8.15830E+03  2.90197E+03 -4.57055E+03  7.05695E+03 -2.12348E+03
  5.36584E+03  3.55900E+02  5.53961E+03  4.16880E+03  5.59397E+02  3.74593E+03 -1.73526E+03  3.11548E+03
 -3.70820E+03  2.12964E+03 -1.03247E+03  1.03173E+02 -1.57070E+03  5.02782E+02 -1.18226E+03 -7.12471E+02
 -2.14427E+02 -3.12787E+02 -1.40419E+03  9.22408E+02  1.03080E+03 -5.00683E+02 -4.50382E+02 -1.63781E+03
  1.89780E+03 -1.75573E+03  3.54548E+03 -7.41731E+02  4.48950E+03  2.05048E+03 -7.69123E+01  5.53702E+03
 -2.41296E+03  6.69076E+03 -5.02708E+03  3.02261E+03 -5.43297E+03 -1.57301E+03 -4.19619E+03 -3.87808E+03
 -1.89792E+03 -5.02953E+03  9.07171E+02 -4.03435E+03  4.60381E+03 -1.11629E+03  4.29440E+03  9.22001E+02
  1.77690E+03  3.78215E+02 -2.87877E+02  1.47599E+03 -1.77031E+02  8.66329E+02 -3.05516E+01 -1.27081E+03
  1.53635E+03  2.00842E+02  7.25750E+02 -2.46965E+02  1.99082E+03  9.59367E+02 -1.41242E+02  2.37579E+03
 -2.59847E+03  1.06277E+03 -2.14413E+03  1.38717E+03 -2.81924E+03 -2.00763E+03  6.05183E+02 -3.00363E+03
  2.62624E+03 -3.08210E+03  4.38622E+03 -7.32245E+02  2.91469E+03  7.73058E+02  2.46128E+03  2.66328E+03
  3.46923E+02  3.71627E+03 -5.20976E+02  1.48998E+03 -1.66569E+03  9.31306E+02 -1.60177E+03  6.36967E+01
 -1.61341E+03 -2.14776E+02 -4.52603E+02  8.91252E+02 -1.74782E+03  1.26136E+02 -2.97594E+03 -4.11866E+02
 -2.57920E+03 -1.88337E+03 -8.04625E+02 -2.73525E+03  7.59700E+02 -4.41585E+03  2.53472E+03 -1.71543E+03
  3.36039E+03  1.71346E+03  2.17712E+03  2.37133E+03  4.44858E+01  1.73814E+03 -2.93370E+03  2.56524E+03
