 $NMID ID='MM_0lb_SNR200_9hz_g60_56.RAW', FMTDAT='(8E13.5)'
 TRAMP=1., VOLUME=1. $END
  3.09864E+05 -7.16461E+02  3.36829E+05  2.50922E+05  8.49299E+04  3.38579E+05 -1.33837E+05  2.51110E+05
 -1.90358E+05  8.34757E+04 -1.13072E+05 -3.33145E+04  1.19015E+03 -4.96195E+04  5.32845E+04 -1.23012E+03
  3.50445E+04  5.31712E+04 -1.63743E+04  7.69833E+04 -6.20222E+04  6.41172E+04 -8.57012E+04  3.16774E+04
 -8.35362E+04 -1.18160E+04 -5.92985E+04 -5.34069E+04 -1.60059E+04 -7.18947E+04  2.83099E+04 -4.63058E+04
  4.16236E+04  3.51387E+03  1.77261E+04  4.78062E+04 -3.53943E+04  4.90649E+04 -6.76192E+04 -9.21748E+02
 -5.50367E+04 -5.92351E+04 -7.23774E+03 -8.03455E+04  3.46206E+04 -5.77225E+04  5.07693E+04 -1.88680E+04
  4.53804E+04  1.13529E+04  3.39800E+04  2.55332E+04  1.67430E+04  3.28756E+04 -5.50425E+03  2.96784E+04
 -2.35252E+04  1.01763E+04 -1.91362E+04 -6.75518E+03  7.82348E+03 -7.21893E+03  2.19518E+04  1.52720E+04
  8.98881E+03  4.05515E+04 -3.39687E+04  3.79444E+04 -6.71357E+04  2.14122E+03 -5.98515E+04 -4.40005E+04
 -1.24622E+04 -6.69444E+04  4.28446E+04 -4.78209E+04  6.11094E+04 -3.05294E+03  3.68911E+04  3.41467E+04
 -6.49700E+03  4.10663E+04 -3.10298E+04  1.95051E+04 -3.48087E+04 -4.11906E+03 -1.96690E+04 -1.28120E+04
 -9.26624E+03 -1.48947E+04 -6.15548E+02 -1.95718E+04  8.58074E+03 -2.34820E+04  1.62126E+04 -1.13986E+04
  1.05968E+04  6.67323E+03 -1.15530E+04  1.26405E+04 -2.51355E+04 -7.88322E+03 -9.96097E+03 -3.71799E+04
  2.53906E+04 -4.80619E+04  5.18682E+04 -2.08898E+04  5.12322E+04  2.14592E+04  1.67602E+04  4.75485E+04
 -1.72476E+04  3.72640E+04 -2.83126E+04  2.02884E+03 -1.25823E+04 -2.98172E+04  2.31358E+04 -3.63335E+04
  4.58543E+04 -1.11928E+04  4.25148E+04  2.63989E+04  2.21658E+04  5.31026E+04 -8.56487E+03  5.76971E+04
 -3.62121E+04  3.72830E+04 -4.83433E+04  1.17540E+04 -4.89125E+04 -1.89290E+04 -2.63175E+04 -4.33722E+04
  8.07877E+03 -4.27985E+04  3.54056E+04 -1.75410E+04  3.35577E+04  1.17537E+04  5.28574E+03  2.26280E+04
 -1.36490E+04  1.02852E+04 -1.05419E+04 -8.91592E+03  7.61296E+03 -1.11730E+04  1.80863E+04  4.58441E+03
  1.49200E+04  2.22770E+04 -5.99843E+03  2.69759E+04 -2.27988E+04  1.45791E+04 -3.17020E+04 -2.66929E+03
 -2.69155E+04 -1.95760E+04 -1.21871E+04 -2.50276E+04  3.97947E+03 -2.78097E+04  1.97138E+04 -2.44930E+04
  3.28505E+04 -1.32016E+04  4.14172E+04  5.63406E+03  2.65943E+04  2.60940E+04  4.76052E+03  4.13340E+04
 -1.94148E+04  3.40888E+04 -3.04441E+04  1.25586E+04 -2.31053E+04 -9.01810E+03 -4.87717E+03 -1.24317E+04
  1.80946E+03 -2.35739E+03 -8.33119E+03  9.74636E+03 -1.97989E+04  4.83742E+03 -2.03538E+04 -8.75277E+03
 -1.23727E+04 -2.33268E+04  8.31329E+03 -2.87828E+04  1.91673E+04 -2.09407E+04  2.48927E+04 -1.07034E+03
  1.45839E+04  1.70585E+04 -2.06904E+03  2.37389E+04 -1.66746E+04  1.35072E+04 -2.32567E+04 -4.76102E+03
 -1.73325E+04 -2.15524E+04 -2.15163E+03 -2.81808E+04  1.38335E+04 -2.41109E+04  2.36656E+04 -1.33074E+04
  2.34444E+04 -7.84204E+02  1.65387E+04  7.05486E+03  8.60950E+03  2.19920E+03  1.12682E+04 -2.59194E+03
  2.20700E+04  2.29273E+03  2.62515E+04  1.91650E+04  1.80944E+04  3.93628E+04 -2.87884E+03  4.73062E+04
 -2.58311E+04  3.90536E+04 -4.30142E+04  1.98242E+04 -4.59075E+04 -4.60336E+03 -3.90516E+04 -2.84986E+04
 -1.40738E+04 -3.98335E+04  1.47925E+04 -3.53368E+04  3.00590E+04 -1.63479E+04  2.55065E+04  9.41869E+03
  9.40354E+03  1.87496E+04 -1.20779E+04  1.59017E+04 -2.18408E+04  4.32357E+03 -1.51333E+04 -1.37791E+04
 -3.46420E+02 -1.98224E+04  1.04034E+04 -1.31990E+04  1.42844E+04 -2.02564E+03  2.71569E+03  9.81670E+03
 -9.37243E+03  4.70403E+03 -1.06789E+04 -5.63491E+03 -1.44052E+03 -1.88418E+04  1.33086E+04 -2.15940E+04
  2.45522E+04 -1.12047E+04  2.74277E+04  4.18028E+03  2.40724E+04  1.93520E+04  1.10090E+04  3.03900E+04
 -6.07642E+03  3.34611E+04 -2.02254E+04  2.09054E+04 -2.37572E+04  3.75161E+03 -1.64480E+04 -5.63015E+03
 -7.66240E+03 -7.37332E+03 -2.75855E+03 -4.88000E+02 -2.66137E+03  1.93677E+03 -7.82011E+03  5.61978E+03
 -1.42781E+04 -6.23980E+02 -1.53540E+04 -1.23877E+04 -5.36144E+03 -2.05021E+04  4.63722E+03 -1.71546E+04
  1.19759E+04 -7.05429E+03  1.02142E+04  5.33486E+03 -1.75469E+03  5.87355E+03 -8.79021E+03  1.41321E+03
 -8.45540E+03 -1.19231E+04 -2.28418E+03 -1.72942E+04  8.33350E+03 -1.68367E+04  2.19564E+04 -1.02644E+04
  2.52084E+04  2.73901E+03  1.80349E+04  1.38741E+04  2.61565E+03  1.88554E+04 -1.09759E+04  1.72897E+04
 -1.30378E+04  5.29002E+03 -7.31468E+03 -4.37017E+03  2.12816E+03 -3.88125E+03  8.34973E+03 -1.61777E+03
  9.22573E+03  6.28812E+03  9.72503E+02  1.24366E+04 -1.01064E+04  1.14152E+04 -1.63703E+04  3.31945E+03
 -1.17999E+04 -8.96375E+03  1.12711E+02 -1.52291E+04  9.26727E+03 -7.46192E+03  1.00791E+04  2.74273E+03
  1.73293E+03  1.16470E+04 -7.67053E+03  1.27343E+04 -1.40237E+04  5.36375E+03 -1.55098E+04 -5.02600E+03
 -7.47125E+03 -1.72481E+04  3.95256E+03 -1.81032E+04  1.63478E+04 -1.28634E+04  1.82649E+04  3.35653E+03
  1.15046E+04  1.59333E+04 -3.17261E+03  1.58259E+04 -1.25031E+04  9.82459E+03 -1.23347E+04 -2.21493E+02
 -1.06743E+04 -1.04990E+04 -2.46166E+03 -1.38237E+04  7.92449E+03 -9.98806E+03  7.70830E+03 -4.56076E+03
  5.20938E+03  2.24963E+03 -9.67973E+02  3.31450E+03 -6.45580E+02 -2.82326E+03  2.52038E+03 -8.79046E+03
  1.28642E+04 -4.54734E+03  1.70494E+04  1.05266E+03  1.61966E+04  1.02343E+04  9.68944E+03  2.11063E+04
 -5.01875E+03  2.53425E+04 -2.11160E+04  1.91886E+04 -2.69891E+04  2.18199E+03 -2.14395E+04 -1.03002E+04
 -8.99079E+03 -1.82802E+04  7.66151E+02 -1.47647E+04  6.24548E+03 -9.22176E+03  7.59279E+03 -4.74650E+03
  3.81399E+03 -5.40869E+03  2.70504E+03 -4.09727E+03  6.34359E+03 -2.83254E+03  8.64791E+03 -2.50838E+03
  1.12934E+04  2.08997E+03  6.07904E+03  1.04627E+04 -2.83822E+03  1.49021E+04 -1.35465E+04  1.02319E+04
 -1.59042E+04  5.57656E+02 -1.13965E+04 -1.10675E+04 -2.54961E+03 -1.75045E+04  9.04526E+03 -1.63247E+04
  1.80398E+04 -1.05581E+04  2.04040E+04  3.78287E+03  1.43035E+04  1.55725E+04  1.69956E+03  1.81647E+04
 -8.90616E+03  1.55564E+04 -9.53734E+03  4.91746E+03 -9.56876E+03 -2.15685E+03 -2.71658E+03 -4.01815E+02
  1.06790E+02 -9.76758E+02 -1.82125E+03  2.86793E+03 -7.31752E+03  4.34079E+03 -1.08922E+04  1.75704E+01
 -6.67755E+03 -9.19558E+03 -5.62292E+02 -1.58690E+04  9.67177E+03 -1.43740E+04  1.62547E+04 -4.08866E+03
  1.62580E+04  7.23773E+03  6.62971E+03  1.57382E+04 -2.73697E+03  1.63761E+04 -1.22685E+04  1.11967E+04
 -1.63598E+04 -5.67321E+02 -1.04188E+04 -8.33313E+03 -1.43734E+03 -1.33229E+04  6.95999E+03 -1.07769E+04
  1.05233E+04 -4.43470E+03  8.34900E+03  2.32791E+03  1.44698E+03  6.08463E+03  8.48867E+02  3.21967E+03
  7.30393E+02  2.96765E+03  4.50088E+03  3.92396E+03  4.32221E+03  5.66945E+03  4.61638E+03  7.59297E+03
 -4.02272E+03  1.35356E+04 -1.15589E+04  1.16000E+04 -1.90828E+04  4.03819E+03 -1.79240E+04 -6.14754E+03
 -7.91941E+03 -1.64852E+04  2.83594E+03 -1.92904E+04  9.96468E+03 -1.28820E+04  1.39252E+04 -2.93423E+03
  9.44552E+03  5.43624E+03  3.08193E+03  1.09721E+04 -4.05483E+03  5.92232E+03 -6.49644E+03  2.16525E+02
 -3.60994E+03 -7.22060E+03  3.86550E+03 -7.33022E+03  8.18231E+03 -2.63668E+03  7.00880E+03  1.06143E+03
  3.25396E+03  3.52091E+03  1.46393E+03  2.53939E+03 -7.61956E+02  3.05475E+03  1.66812E+03 -1.05048E+03
  2.26146E+03 -8.52536E+02  8.07208E+03  2.55250E+03  1.14265E+03  8.11926E+03 -1.04128E+03  1.20852E+04
 -5.46418E+03  8.09401E+03 -1.00871E+04  1.90413E+03 -9.87669E+03 -4.39365E+03 -2.12704E+03 -4.05866E+03
  2.31788E+03 -6.91633E+03  5.33202E+03 -2.96968E+03  5.06903E+03  4.58554E+03  3.38641E+02  5.71435E+03
 -7.72159E+03  2.38409E+03 -8.61514E+03 -3.29036E+03 -3.07956E+03 -8.47863E+03  1.65614E+03 -9.45772E+03
  4.77762E+03 -6.94373E+03  7.12483E+03 -1.43375E+03  3.37612E+03  3.10475E+03  1.51073E+03  2.67169E+03
 -3.53133E+03  1.20059E+03 -5.14936E+03 -4.28021E+03  9.60111E+02 -7.04289E+03  1.02039E+04 -4.87609E+03
  1.01299E+04  1.24385E+03  1.13938E+04  7.10411E+03  4.01456E+03  9.96158E+03 -5.38648E+03  9.02341E+03
 -9.58937E+03  5.76584E+03 -9.53819E+03 -1.27746E+03 -5.17630E+03 -4.85450E+03  2.43138E+03 -6.11501E+03
  4.56047E+03 -3.18210E+03  5.32338E+03  3.05454E+03  3.46792E+03  7.84614E+03  8.18967E+02  3.60054E+03
 -3.20631E+03  4.23527E+03 -2.26554E+03  9.56534E+01 -2.26378E+03  7.90438E+02 -1.90281E+03  3.13381E+03
 -3.50783E+03  3.57388E+03 -8.16135E+03  2.67778E+03 -1.08277E+04  4.24611E+02 -1.27329E+04 -5.97660E+03
 -6.85027E+03 -1.40033E+04  1.63164E+03 -1.65439E+04  9.83324E+03 -1.29082E+04  1.54943E+04 -4.17615E+03
  1.37292E+04  2.92464E+03  9.74482E+03  9.85896E+03  8.03276E+02  1.19203E+04 -3.69154E+03  8.13693E+03
 -6.38929E+03  4.48859E+03 -3.51866E+03 -1.05450E+03 -1.80584E+03 -2.39910E+01 -7.61471E+02 -5.83199E+02
 -4.27660E+02 -3.28924E+02 -2.61378E+03 -6.18379E+02 -1.22774E+03 -2.64140E+03  1.15075E+03 -4.54301E+03
  6.53017E+03 -3.51035E+03  7.17559E+03 -2.43172E+02  7.92151E+03  6.48124E+03  1.16207E+03  1.10868E+04
 -4.55439E+03  1.04066E+04 -1.22755E+04  8.02828E+03 -1.31736E+04 -9.95693E+02 -1.12917E+04 -7.38460E+03
 -4.77932E+03 -1.20997E+04  4.56387E+03 -1.11116E+04  7.61496E+03 -5.63178E+03  8.15106E+03 -6.20898E+02
  4.27263E+03  4.21873E+03 -2.63622E+02  4.21466E+03 -2.89264E+03 -1.63132E+03  1.17555E+03 -2.94473E+03
  3.46336E+03 -1.85229E+02  4.03955E+03  1.93842E+03  1.92861E+03  3.75820E+03  1.16654E+02  5.66164E+03
 -5.11224E+03  5.31047E+03 -5.93118E+03  2.35641E+02 -8.42979E+03 -5.72316E+03 -1.93057E+03 -8.33353E+03
  6.74919E+03 -6.66753E+03  9.22896E+03 -4.80266E+03  8.83282E+03  2.94086E+03  6.28865E+03  7.89592E+03
  4.23355E+02  8.15803E+03 -2.46476E+03  5.46350E+03 -5.17030E+03  3.67094E+03 -3.30972E+03  3.99621E+02
 -7.09957E+02  7.75544E+02 -4.43945E+02  5.92365E+02 -3.33638E+03  2.34251E+03 -5.33752E+03  1.13914E+03
 -6.03354E+03 -4.56198E+03 -1.51132E+03 -7.83679E+03  4.04846E+03 -7.02737E+03  6.96495E+03 -5.03354E+03
  7.60448E+03  3.14302E+02  4.20734E+03  6.00144E+03 -1.14686E+03  6.67813E+03 -6.17024E+03  3.82444E+03
