 $NMID ID='MM_0lb_SNR200_7hz_g45_20.RAW', FMTDAT='(8E13.5)'
 TRAMP=1., VOLUME=1. $END
  3.10120E+05  2.32144E+03  3.38141E+05  2.49925E+05  8.59504E+04  3.37652E+05 -1.31382E+05  2.51626E+05
 -1.90992E+05  8.50529E+04 -1.12782E+05 -3.29584E+04  1.13970E+03 -5.09260E+04  5.52990E+04 -1.68094E+03
  3.69607E+04  5.27989E+04 -1.53683E+04  7.68097E+04 -5.88424E+04  6.44062E+04 -8.63884E+04  3.40774E+04
 -8.34161E+04 -1.11847E+04 -5.86683E+04 -5.21301E+04 -1.52937E+04 -7.15744E+04  2.81560E+04 -4.64432E+04
  4.12077E+04  2.70497E+03  1.64364E+04  4.79888E+04 -3.58936E+04  4.78092E+04 -7.02797E+04  7.47753E+02
 -5.45018E+04 -5.75430E+04 -8.04706E+03 -7.96687E+04  3.58255E+04 -5.86269E+04  5.13193E+04 -1.79696E+04
  4.53255E+04  1.17886E+04  3.41818E+04  2.62087E+04  1.63992E+04  3.07422E+04 -7.47406E+03  2.92734E+04
 -2.25630E+04  1.23312E+04 -1.90107E+04 -5.69492E+03  7.27226E+03 -7.47691E+03  2.40627E+04  1.31558E+04
  5.02335E+03  3.69760E+04 -3.46730E+04  3.74177E+04 -6.77020E+04  1.88171E+03 -6.03009E+04 -4.59209E+04
 -1.45858E+04 -6.67570E+04  4.00414E+04 -4.83118E+04  6.17905E+04 -9.54667E+02  3.76107E+04  3.53068E+04
 -4.25440E+03  4.09111E+04 -2.96131E+04  1.76529E+04 -3.42969E+04 -2.24482E+03 -2.15113E+04 -1.03748E+04
 -9.68850E+03 -1.64443E+04 -2.24420E+03 -1.97481E+04  9.46106E+03 -2.46530E+04  1.58437E+04 -1.12899E+04
  9.85295E+03  6.04354E+03 -8.75136E+03  1.05466E+04 -2.58361E+04 -7.97949E+03 -1.00789E+04 -3.73618E+04
  2.64810E+04 -4.93961E+04  5.52406E+04 -2.12627E+04  5.01203E+04  2.25894E+04  1.97055E+04  5.04539E+04
 -1.78616E+04  3.59832E+04 -2.73426E+04  3.10704E+03 -1.30696E+04 -3.11800E+04  2.25127E+04 -3.97209E+04
  4.50994E+04 -1.26886E+04  4.12659E+04  2.64365E+04  2.30517E+04  5.21823E+04 -6.95572E+03  5.72659E+04
 -3.63803E+04  4.24634E+04 -4.78255E+04  1.22132E+04 -4.73772E+04 -1.98982E+04 -2.72766E+04 -4.56171E+04
  7.20597E+03 -4.37749E+04  3.50363E+04 -1.79721E+04  3.35034E+04  1.01324E+04  4.46877E+03  2.16330E+04
 -1.22201E+04  9.76562E+03 -1.16584E+04 -8.61019E+03  5.69429E+03 -1.15000E+04  1.83835E+04  6.59386E+03
  1.50527E+04  2.35664E+04 -4.57654E+03  2.78213E+04 -2.37362E+04  1.41737E+04 -3.13147E+04 -3.61335E+03
 -2.66421E+04 -1.75972E+04 -1.39587E+04 -2.62423E+04  3.32699E+03 -2.85249E+04  2.09378E+04 -2.63871E+04
  3.34932E+04 -1.32622E+04  4.05077E+04  3.65290E+03  2.88719E+04  2.52013E+04  4.53691E+03  4.22883E+04
 -2.18740E+04  3.43359E+04 -3.06758E+04  1.22479E+04 -2.17114E+04 -9.31942E+03 -5.37880E+03 -1.27566E+04
  1.16483E+03 -1.74286E+03 -6.52692E+03  8.49457E+03 -2.17563E+04  6.29645E+03 -2.27243E+04 -1.03168E+04
 -1.21793E+04 -2.66755E+04  6.55776E+03 -3.17945E+04  1.94118E+04 -2.13369E+04  2.50318E+04 -3.62350E+03
  1.49806E+04  1.68023E+04 -2.28189E+03  2.71977E+04 -1.76445E+04  1.46105E+04 -2.55539E+04 -6.28533E+03
 -1.86040E+04 -2.16841E+04 -1.85509E+03 -3.08622E+04  1.30528E+04 -2.48655E+04  2.45249E+04 -1.19244E+04
  2.25731E+04 -8.44531E+02  1.65975E+04  4.96465E+03  9.68368E+03  1.58668E+03  1.17492E+04 -2.11903E+03
  2.36782E+04  2.90094E+03  2.73104E+04  1.97400E+04  1.78248E+04  4.01828E+04 -2.28714E+03  5.04606E+04
 -2.90806E+04  3.91399E+04 -4.74333E+04  2.10342E+04 -4.90319E+04 -1.68388E+03 -3.84101E+04 -2.82682E+04
 -1.52040E+04 -3.92145E+04  1.45896E+04 -3.55846E+04  3.08872E+04 -1.59529E+04  2.70205E+04  8.15464E+03
  8.52857E+03  2.13674E+04 -1.21487E+04  1.68966E+04 -2.15415E+04  3.04687E+03 -1.75145E+04 -1.32318E+04
 -1.42818E+03 -2.12711E+04  1.02122E+04 -1.60532E+04  1.22750E+04 -1.85555E+03  3.55446E+03  1.04997E+04
 -8.18367E+03  5.35738E+03 -9.98382E+03 -9.07074E+03 -1.93299E+03 -1.85629E+04  1.21856E+04 -2.27351E+04
  2.41855E+04 -1.33278E+04  2.87743E+04  4.06377E+03  2.58140E+04  2.09236E+04  1.20605E+04  3.29839E+04
 -6.86039E+03  3.29180E+04 -2.21793E+04  2.30057E+04 -2.43702E+04  3.18935E+03 -1.62460E+04 -7.08894E+03
 -6.23696E+03 -8.74486E+03 -1.86490E+03 -6.05265E+02 -2.55042E+03  4.73879E+03 -7.99967E+03  5.28249E+03
 -1.45597E+04 -2.83909E+03 -1.48616E+04 -1.33657E+04 -8.48335E+03 -2.26042E+04  6.16217E+03 -1.70184E+04
  1.32913E+04 -7.66528E+03  9.86125E+03  5.40827E+03 -1.17846E+03  5.23901E+03 -7.91202E+03 -4.86471E+02
 -7.61977E+03 -1.15548E+04 -7.54247E+02 -1.94028E+04  1.00044E+04 -1.78255E+04  2.11791E+04 -9.91890E+03
  2.64659E+04  1.65909E+03  1.99773E+04  1.77423E+04  3.14742E+03  1.94714E+04 -1.28968E+04  1.73543E+04
 -1.47507E+04  5.25232E+03 -7.78875E+03 -3.23320E+03  2.01175E+03 -3.61200E+03  1.09516E+04 -5.04162E+02
  6.95121E+03  7.93232E+03 -1.07692E+03  1.21941E+04 -1.26717E+04  1.43733E+04 -1.73935E+04  4.19566E+03
 -1.23155E+04 -1.22284E+04  6.14275E+01 -1.64376E+04  9.43830E+03 -9.19837E+03  1.14002E+04  4.21244E+03
  2.11974E+03  1.21210E+04 -9.22182E+03  1.16056E+04 -1.43999E+04  5.55372E+03 -1.63791E+04 -5.34652E+03
 -8.82955E+03 -1.86524E+04  3.49856E+03 -2.13555E+04  1.83326E+04 -1.28586E+04  2.04780E+04  7.44817E+02
  1.15461E+04  1.65363E+04 -1.56135E+03  1.94137E+04 -1.23095E+04  1.15631E+04 -1.37544E+04 -2.53346E+03
 -1.38946E+04 -1.24408E+04 -1.20907E+03 -1.52324E+04  6.48588E+03 -9.92496E+03  1.05892E+04 -5.59530E+03
  5.17049E+03  2.63556E+03 -1.58404E+03  4.20852E+03  2.99249E+02 -3.84866E+03  3.72592E+03 -8.84974E+03
  1.51435E+04 -7.97637E+03  1.88526E+04  2.69658E+03  1.71306E+04  1.42948E+04  8.80843E+03  2.57199E+04
 -5.66847E+03  2.80102E+04 -2.23500E+04  1.93717E+04 -3.02087E+04  5.92315E+03 -2.27973E+04 -1.20692E+04
 -1.24238E+04 -1.88921E+04  4.01513E+02 -1.57679E+04  6.71074E+03 -7.82720E+03  5.66614E+03 -5.54001E+03
  4.30471E+03 -2.86973E+03  5.88202E+03 -4.45242E+03  6.72587E+03 -4.20429E+03  7.62800E+03 -1.61289E+03
  1.20598E+04  2.87271E+03  9.11003E+03  1.23572E+04 -3.11357E+03  1.37228E+04 -1.40553E+04  1.08072E+04
 -1.59973E+04 -3.20712E+03 -1.17556E+04 -1.36931E+04 -1.71883E+03 -2.06052E+04  1.11174E+04 -2.00440E+04
  2.02222E+04 -1.12783E+04  2.34805E+04  3.33386E+03  1.61794E+04  1.61280E+04  2.57853E+03  2.09203E+04
 -9.76407E+03  1.71514E+04 -1.19182E+04  5.84147E+03 -1.13632E+04 -1.15725E+03 -3.88832E+03 -1.62650E+03
 -1.87450E+03 -2.51917E+02 -3.63395E+03  3.54643E+03 -6.99157E+03  3.28373E+03 -1.26113E+04 -1.81123E+03
 -9.15284E+03 -1.12923E+04  5.55991E+01 -1.85518E+04  1.11929E+04 -1.57743E+04  1.74495E+04 -4.93054E+03
  2.00752E+04  8.70236E+03  7.47413E+03  1.70844E+04 -3.32389E+03  1.86511E+04 -1.45381E+04  1.28997E+04
 -1.71543E+04 -7.50149E+01 -1.31687E+04 -1.20491E+04 -3.75738E+02 -1.45052E+04  8.62448E+03 -1.30761E+04
  1.15737E+04 -3.64741E+03  7.43978E+03  2.97597E+03  2.79140E+03  5.64116E+03  2.94350E+03  1.83971E+03
  4.58570E+03  3.66382E+02  4.86790E+03  2.73279E+03  6.01815E+03  8.39086E+03  4.32603E+03  9.83633E+03
 -5.04283E+03  1.50955E+04 -1.32353E+04  1.37697E+04 -1.92782E+04  4.62688E+03 -2.00109E+04 -9.65139E+03
 -7.75344E+03 -1.99429E+04  2.67876E+03 -2.08920E+04  1.41515E+04 -1.36684E+04  1.66633E+04 -3.16369E+03
  1.24044E+04  6.91202E+03  2.36284E+03  1.16889E+04 -4.72332E+03  6.74771E+03 -8.50556E+03 -1.43378E+03
 -4.98721E+03 -7.74173E+03  4.19047E+03 -8.20800E+03  8.80376E+03 -2.73536E+03  6.87350E+03  6.65001E+02
  6.57843E+03  5.67820E+03  2.21646E+03  4.23041E+03 -9.35020E+02  4.55802E+03  2.69105E+03 -2.91066E+02
  4.46728E+03 -1.96249E+02  8.98121E+03  2.89520E+03  2.60634E+03  1.06417E+04 -2.54798E+03  1.44561E+04
 -8.60593E+03  9.22363E+03 -1.24351E+04  2.67072E+03 -1.09709E+04 -3.14481E+03 -4.93483E+03 -8.00243E+03
  2.36172E+03 -8.82062E+03  5.74691E+03 -3.46829E+03  5.60664E+03  5.36071E+03 -5.88111E+02  6.48121E+03
 -8.05984E+03  3.47773E+03 -7.95298E+03 -5.43802E+03 -6.47778E+03 -9.91772E+03  2.75770E+03 -1.18347E+04
  7.37832E+03 -7.52682E+03  6.58996E+03 -8.43220E+02  5.74440E+03  3.76081E+03  3.32395E+02  7.30320E+03
 -5.98626E+03  2.27266E+03 -5.73070E+03 -4.67896E+03  1.29313E+01 -9.26146E+03  1.20734E+04 -6.50438E+03
  1.33372E+04  1.13142E+03  1.00842E+04  8.32603E+03  3.20710E+03  1.47910E+04 -4.94291E+03  1.17958E+04
 -1.20455E+04  6.33836E+03 -1.00539E+04 -2.13722E+03 -6.72748E+03 -8.30223E+03  2.44032E+03 -9.03509E+03
  8.84072E+03 -4.22930E+03  6.91734E+03  5.50508E+03  1.59151E+03  8.68150E+03 -1.55593E+03  7.76427E+03
 -4.30234E+03  3.23070E+03 -2.74999E+03  2.27185E+03 -9.66965E+02  2.09225E+03 -1.38366E+03  1.84421E+03
 -4.40565E+03  4.33518E+03 -6.63973E+03  4.73470E+03 -1.43494E+04  1.57181E+03 -1.38763E+04 -9.40834E+03
 -7.50807E+03 -1.88821E+04  3.30121E+03 -1.93177E+04  1.40973E+04 -1.63242E+04  1.74605E+04 -6.23656E+03
  1.72766E+04  4.00842E+03  9.85397E+03  1.22688E+04  1.96975E+03  1.43486E+04 -4.63550E+03  1.05056E+04
 -7.57948E+03  3.26076E+03 -5.04954E+03 -2.71586E+03 -2.32374E+03 -1.71215E+03 -5.29689E+02 -1.63810E+03
 -1.41556E+03 -5.18953E+02 -3.07420E+03 -8.54399E+02  1.03317E+03 -3.49025E+03  3.71121E+02 -7.28112E+03
  3.14121E+03 -6.24041E+03  9.68961E+03 -3.28336E+01  8.93374E+03  6.86615E+03  4.15349E+03  1.55513E+04
 -7.60596E+03  1.71150E+04 -1.62004E+04  8.16022E+03 -1.89224E+04 -4.52205E+01 -1.20388E+04 -9.58253E+03
 -5.22968E+03 -1.40649E+04  2.27099E+03 -1.32763E+04  1.00814E+04 -8.77890E+03  8.43624E+03  1.29575E+03
  5.37529E+03  4.89296E+03  1.68283E+02  3.65399E+03 -2.32037E+03  8.96903E+00 -2.27670E+02 -4.93753E+03
  3.54714E+03  2.54551E+02  5.18944E+03  1.60456E+03  3.43820E+03  6.49890E+03  1.50328E+03  8.33740E+03
 -7.56218E+03  5.69391E+03 -9.04453E+03  1.23204E+03 -9.97440E+03 -8.02096E+03 -1.16056E+03 -1.10001E+04
  5.88797E+03 -1.04652E+04  1.32902E+04 -3.12505E+03  1.13802E+04  3.15594E+03  4.65033E+03  8.50863E+03
 -6.12854E+02  1.05872E+04 -3.70758E+03  7.22181E+03 -5.79720E+03  4.02971E+03 -6.30575E+03  1.45258E+03
 -1.32044E+03 -7.06144E+02 -2.40834E+03 -7.90430E+01 -6.16253E+03  6.70662E+02 -8.24696E+03 -2.34536E+03
 -5.22716E+03 -5.73827E+03 -2.29592E+03 -1.07594E+04  5.60374E+03 -1.02138E+04  8.81254E+03 -5.53987E+03
  1.03158E+04  1.35237E+03  5.14772E+03  8.02585E+03 -1.24748E+03  1.03300E+04 -8.22750E+03  6.04217E+03
