 $NMID ID='MM_0lb_SNR200_18hz_g60_37.RAW', FMTDAT='(8E13.5)'
 TRAMP=1., VOLUME=1. $END
  3.10338E+05  8.38253E+02  3.37933E+05  2.50439E+05  8.48325E+04  3.36453E+05 -1.31959E+05  2.50263E+05
 -1.89503E+05  8.32731E+04 -1.10888E+05 -3.20378E+04 -6.70646E+01 -4.94815E+04  5.38302E+04 -1.46075E+02
  3.61515E+04  5.27837E+04 -1.65885E+04  7.60751E+04 -6.07406E+04  6.39070E+04 -8.33481E+04  3.20334E+04
 -8.04583E+04 -1.14634E+04 -5.67461E+04 -5.10849E+04 -1.37823E+04 -7.04438E+04  2.67232E+04 -4.47084E+04
  3.99854E+04  3.55939E+03  1.57440E+04  4.72935E+04 -3.52482E+04  4.72498E+04 -6.64889E+04  6.39523E+02
 -5.30512E+04 -5.74031E+04 -6.56965E+03 -7.64072E+04  3.20988E+04 -5.51942E+04  4.78545E+04 -1.64553E+04
  4.33327E+04  1.11629E+04  3.14941E+04  2.47569E+04  1.69362E+04  2.86529E+04 -4.30731E+03  2.70111E+04
 -2.28000E+04  1.25496E+04 -1.92848E+04 -4.42143E+03  5.75270E+03 -8.19207E+03  2.18825E+04  1.19014E+04
  6.32927E+03  3.47506E+04 -3.03288E+04  3.52276E+04 -6.26088E+04  2.45120E+03 -5.71962E+04 -4.29964E+04
 -1.21829E+04 -6.17837E+04  3.87762E+04 -4.45250E+04  5.70611E+04 -1.80807E+03  3.35181E+04  3.23393E+04
 -6.28623E+03  3.46934E+04 -3.01632E+04  1.44565E+04 -2.86493E+04 -4.50575E+03 -1.58564E+04 -1.04216E+04
 -8.51848E+03 -1.23365E+04 -1.85909E+02 -1.75927E+04  7.41427E+03 -2.35588E+04  1.59012E+04 -1.37128E+04
  1.18258E+04  4.96385E+03 -7.91409E+03  1.32199E+04 -2.01986E+04 -3.65043E+03 -8.85915E+03 -3.30191E+04
  2.26726E+04 -4.16310E+04  4.84210E+04 -1.94747E+04  4.36101E+04  1.99992E+04  1.43685E+04  4.32610E+04
 -1.59974E+04  3.24479E+04 -2.42767E+04  1.58591E+03 -8.75873E+03 -2.80752E+04  2.11851E+04 -3.25425E+04
  4.09589E+04 -8.30696E+03  3.27709E+04  2.39227E+04  1.64772E+04  4.51081E+04 -8.69508E+03  4.88497E+04
 -2.94655E+04  3.32442E+04 -4.13318E+04  8.86288E+03 -4.08822E+04 -1.59764E+04 -2.29885E+04 -3.58828E+04
  7.50036E+03 -3.59554E+04  3.07189E+04 -1.41107E+04  2.81431E+04  1.13849E+04  3.08671E+03  1.88758E+04
 -1.35908E+04  8.72849E+03 -9.23795E+03 -7.86223E+03  5.89126E+03 -9.60128E+03  1.79202E+04  5.49526E+03
  1.22547E+04  2.24901E+04 -6.29830E+03  2.46495E+04 -2.14155E+04  1.11408E+04 -2.67841E+04 -5.78719E+03
 -1.88659E+04 -1.73347E+04 -6.52041E+03 -1.75630E+04  4.91653E+03 -1.67511E+04  1.41814E+04 -1.74227E+04
  2.27694E+04 -1.21975E+04  2.99512E+04  2.18051E+03  2.19573E+04  1.82535E+04  4.72532E+03  3.43620E+04
 -1.64759E+04  2.87312E+04 -2.75898E+04  1.10491E+04 -2.06191E+04 -1.02703E+04 -5.57778E+03 -1.23670E+04
  2.62753E+03 -3.44938E+03 -4.16082E+03  4.98607E+03 -1.52630E+04  4.83314E+03 -1.48089E+04 -6.46497E+03
 -9.50388E+03 -1.65579E+04  4.51159E+03 -2.22409E+04  1.36934E+04 -1.64248E+04  1.62413E+04 -1.21651E+03
  9.70969E+03  1.25814E+04 -1.44232E+03  1.84460E+04 -1.11981E+04  1.02749E+04 -1.71625E+04 -3.35632E+03
 -1.19480E+04 -1.60777E+04 -1.11213E+03 -2.09688E+04  9.19579E+03 -1.80408E+04  1.76903E+04 -6.75379E+03
  1.60429E+04 -3.42907E+02  1.08472E+04  5.11596E+03  6.31580E+03  1.22083E+03  7.85835E+03 -2.40943E+03
  1.51529E+04  3.81327E+03  1.69171E+04  1.29112E+04  1.05978E+04  2.75369E+04 -3.28055E+03  3.02903E+04
 -1.70714E+04  2.28328E+04 -2.60946E+04  1.15474E+04 -2.88326E+04 -1.91817E+03 -2.48411E+04 -1.62839E+04
 -1.14127E+04 -2.52026E+04  8.84178E+03 -2.19679E+04  1.87553E+04 -1.23451E+04  1.66235E+04  4.59249E+03
  5.16111E+03  1.27862E+04 -7.48737E+03  1.06660E+04 -1.44135E+04  3.62087E+03 -1.14280E+04 -8.86561E+03
 -9.51718E+02 -1.39221E+04  8.04694E+03 -1.06744E+04  9.11536E+03 -9.27182E+01  2.07384E+03  5.86892E+03
 -6.22610E+03  8.91682E+02 -5.29935E+03 -4.39584E+03  7.17844E+02 -1.15448E+04  9.09660E+03 -1.17135E+04
  1.43097E+04 -5.67577E+03  1.38577E+04  3.58723E+03  1.21297E+04  1.17701E+04  6.20742E+03  1.55133E+04
 -1.39867E+03  1.82774E+04 -1.18830E+04  1.11238E+04 -1.36697E+04  3.73610E+03 -9.14067E+03 -1.73100E+03
 -5.08933E+03 -3.82269E+03 -4.88059E+02  1.11685E+03 -2.76230E+03  1.90822E+03 -4.70032E+03  3.93916E+03
 -9.25728E+03 -1.77098E+03 -8.10175E+03 -6.44395E+03 -4.17049E+03 -1.20318E+04  4.23409E+03 -8.26488E+03
  6.66670E+03 -3.18026E+03  6.02097E+03  1.16190E+03  6.19108E+01  3.13469E+03 -4.30974E+03  5.65948E+02
 -4.15832E+03 -6.00934E+03 -1.57232E+03 -8.34403E+03  4.49554E+03 -1.01130E+04  1.20453E+04 -4.91765E+03
  1.38968E+04  8.65953E+02  9.93941E+03  7.74966E+03  1.55435E+03  1.04860E+04 -5.91166E+03  9.42958E+03
 -7.42934E+03  2.15720E+03 -4.71359E+03 -6.49360E+02  1.65120E+03 -3.16038E+03  5.65092E+03 -1.33625E+03
  5.19995E+03  3.97530E+03  1.00318E+03  7.61052E+03 -4.87486E+03  6.99424E+03 -8.81222E+03  1.66187E+03
 -6.15497E+03 -4.15439E+03  2.58298E+02 -7.10691E+03  4.21255E+03 -3.89660E+03  4.46177E+03  2.00326E+03
  1.55730E+03  3.69039E+03 -4.36483E+03  4.89052E+03 -5.45850E+03  3.16308E+03 -5.67121E+03 -2.18343E+02
 -2.90168E+03 -6.41730E+03  1.44781E+03 -8.80991E+03  6.91275E+03 -5.22141E+03  7.31839E+03  1.29860E+03
  4.50941E+03  6.18975E+03 -1.08937E+01  9.19023E+03 -5.61837E+03  4.57219E+03 -7.07206E+03 -7.28365E+02
 -5.95023E+03 -5.92844E+03 -4.23455E+02 -5.93473E+03  2.72319E+03 -6.22022E+03  3.69705E+03 -2.86332E+03
  2.09726E+03  8.14581E+02  4.39521E+02  1.50527E+03  7.05384E+02 -5.19751E+02 -6.66973E+02 -2.18918E+03
  4.66700E+03 -1.38552E+03  5.82929E+03 -1.18959E+02  7.10634E+03  3.23183E+03  6.36999E+03  7.87431E+03
 -1.64907E+03  1.02214E+04 -8.49415E+03  7.63031E+03 -1.23634E+04  1.34323E+03 -9.86314E+03 -3.41190E+03
 -5.67175E+03 -6.63978E+03  6.12367E+02 -6.46374E+03  2.34304E+03 -3.14528E+03  1.22040E+03 -2.90829E+03
  1.70797E+03 -1.63714E+03  1.63751E+03 -2.37907E+03  3.02570E+03 -1.56757E+03  3.41766E+03  3.64681E+02
  5.27123E+03  5.85498E+02  8.79068E+02  4.06295E+03 -1.62584E+03  3.63680E+03 -5.60265E+03  3.41872E+03
 -6.29297E+03 -9.57052E+02 -1.99016E+03 -3.85498E+03 -1.18823E+01 -4.86485E+03  3.49606E+03 -5.80680E+03
  6.12378E+03 -3.03708E+03  7.36030E+03 -4.34933E+02  5.90476E+03  5.59889E+03  1.23501E+03  6.48131E+03
 -1.53066E+03  6.12416E+03 -3.77457E+03  2.64244E+03 -2.40880E+03 -1.44249E+02 -2.69120E+02 -1.30136E+03
 -2.44721E+02  1.33462E+02 -8.68674E+02  2.29574E+03 -2.13810E+03  1.63786E+03 -4.67027E+03 -1.08391E+03
 -2.65524E+03 -3.95724E+03  1.32382E+03 -5.55140E+03  2.86164E+03 -5.43335E+03  4.76470E+03 -7.43410E+02
  3.84878E+03  1.99644E+03  2.05197E+03  4.46161E+03 -5.27324E+02  4.32154E+03 -2.94373E+03  3.28484E+03
 -3.10433E+03  1.53008E+02 -4.47777E+03 -3.31557E+03 -7.23532E+02 -4.06062E+03  1.86994E+03 -3.28638E+03
  3.48903E+03 -3.71106E+03  1.49444E+03  7.09957E+02  9.26045E+02  1.61450E+03  8.14266E+02  2.33457E+03
  9.78967E+02  5.02604E+02  4.48230E+02  2.48066E+02  1.81107E+02  1.71712E+03  1.98296E+03  1.61876E+03
 -1.74487E+03  3.22737E+03 -3.11528E+03  5.21949E+03 -3.63621E+03  2.40488E+03 -5.08661E+03 -7.48802E+02
 -1.59502E+03 -4.37010E+03  1.92381E+03 -5.19919E+03  1.97464E+03 -2.20910E+03  3.24277E+03 -1.17913E+03
  1.10355E+03  1.09014E+03  1.59286E+02  1.90111E+03 -1.20183E+03  1.92570E+03  3.73903E+02 -2.67479E+01
 -1.03375E+03 -2.18989E+03  1.37737E+03 -2.25285E+03  1.86353E+02 -1.56782E+03  1.15778E+03  1.43761E+02
  5.17585E+02  5.22983E+02  9.57484E+01 -1.47460E+02  6.71492E+01  2.01497E+02  8.93045E+02  1.36505E+02
  1.48163E+03  2.19761E+02  2.38691E+03 -5.80863E+02  6.79056E+02  1.56244E+03 -7.79630E+02  4.26503E+03
 -2.66204E+03  1.98509E+03 -2.26503E+03 -1.50626E+02 -2.75066E+03 -8.48409E+02 -9.09605E+02 -5.20755E+02
  5.91347E+02 -7.95204E+02  2.07767E+03 -8.54023E+02  1.34133E+03  1.03415E+03 -2.53115E+02  1.46081E+03
 -7.17296E+02  9.99838E+02 -1.33887E+03 -2.02979E+03 -5.70592E+02 -8.45727E+02  6.76358E+02 -7.86955E+02
  2.17824E+02  4.83202E+02  1.45928E+03  7.31594E+02  8.68463E+02 -5.71108E+02 -6.09867E+02  1.76744E+03
 -1.18930E+03  1.28416E+02 -2.11940E+03 -5.29961E+02  7.11474E+02 -7.12293E+02  1.48980E+03 -1.74746E+03
  2.47995E+03 -3.04666E+02  2.75554E+03  1.54678E+03  1.66317E+03  1.39908E+03 -1.40178E+02  2.88057E+03
 -1.20625E+03  2.36560E+02 -1.39903E+03 -3.94637E+01  7.31487E+01 -8.60585E+02  1.69148E+03 -4.90530E+02
  1.48466E+03 -3.83216E+02  1.30868E+03  2.86145E+02 -1.38820E+02  1.66343E+03 -7.02124E+01  1.02521E+03
  7.55035E+02  4.01449E+02 -4.54770E+02  5.09462E+02  7.35725E+02  1.07399E+02 -5.65257E+02  6.40154E+02
 -9.50879E+02  2.76132E+03 -2.19322E+03 -1.89505E+02 -1.09400E+03 -3.98381E+01 -2.75259E+03 -1.20790E+03
 -9.89114E+01 -2.35011E+03  2.89680E+02 -2.57435E+03 -2.05115E+02 -1.72523E+03  3.43994E+03 -1.23372E+03
  2.39336E+03  5.41384E+02  9.32781E+02  1.47127E+03 -1.08413E+03  1.69478E+03 -9.08127E+02  1.14266E+03
 -1.19290E+03  1.03191E+03 -7.98098E+02  1.39939E+00 -2.25564E+02 -4.23942E+01  1.21380E+02  5.91377E+02
 -1.36405E+03  1.15355E+03 -3.07686E+02 -2.64226E+02 -9.10668E+01 -1.14636E+03  4.67788E+02 -1.08973E+03
  4.73668E+02 -1.11850E+03  6.57531E+02 -2.09478E+02  2.09620E+03  1.09107E+03 -9.58756E+02  1.51924E+03
 -8.22427E+02  2.16120E+03 -1.41663E+03  9.50374E+02 -1.60786E+03 -1.18762E+03 -1.61647E+03 -1.18472E+03
 -7.12729E+02 -9.41854E+02  3.40358E+02 -1.33684E+03  1.78939E+01  5.24196E+01  1.02416E+02 -4.33704E+02
 -2.13852E+01  9.47724E+02 -6.87573E+01  8.60021E+01 -8.51688E+02 -5.21998E+02 -2.09598E+02 -4.05387E+02
  2.91392E+02 -5.13062E+02 -8.07256E+02  2.01347E+02  1.86096E+02  6.30085E+02  2.14763E+02 -9.08898E+00
  8.03325E+02 -1.88747E+02 -2.70528E+02  2.38724E+01 -2.25476E+02  9.19349E+01 -6.45987E+02 -2.26818E+03
 -7.51064E+01 -8.57916E+02  1.45349E+02 -7.46307E+02 -5.45864E+02  1.29471E+02  2.94916E+02  1.29636E+03
  8.02269E+02 -1.04042E+01 -3.66578E+02  7.93819E+02  1.50629E+01  8.77841E+02  2.95556E+02  5.45427E+02
 -6.93072E+01  4.37450E+02  2.93022E+02 -5.11850E+02 -1.53957E+03  1.96556E+02 -2.51950E+02 -1.02191E+03
 -1.48856E+03 -3.98967E+02 -6.13102E+02 -6.09523E+02  1.11541E+02 -1.17094E+03  1.44049E+03 -3.05261E+01
  9.92003E+02  7.81805E+01 -9.05385E+02  4.85640E+02 -8.06843E+02 -1.89797E+01 -4.09565E+02  5.95025E+02
