 $NMID ID='MM_0lb_SNR200_11hz_g50_60.RAW', FMTDAT='(8E13.5)'
 TRAMP=1., VOLUME=1. $END
  3.10025E+05  5.44585E+02  3.37840E+05  2.50307E+05  8.61961E+04  3.39813E+05 -1.32758E+05  2.52188E+05
 -1.90549E+05  8.32300E+04 -1.12069E+05 -3.26346E+04 -1.30199E+02 -5.09724E+04  5.45094E+04 -9.56801E+02
  3.45979E+04  5.31852E+04 -1.69543E+04  7.65122E+04 -6.17536E+04  6.45707E+04 -8.54806E+04  3.11931E+04
 -8.14954E+04 -1.05315E+04 -5.82189E+04 -5.16320E+04 -1.38379E+04 -7.00691E+04  2.67880E+04 -4.61319E+04
  4.02180E+04  3.47120E+03  1.51621E+04  4.86631E+04 -3.42646E+04  4.69374E+04 -6.73201E+04 -1.39968E+03
 -5.34530E+04 -5.75541E+04 -6.40843E+03 -7.81833E+04  3.51537E+04 -5.58417E+04  4.84227E+04 -1.86702E+04
  4.44564E+04  1.16446E+04  3.34526E+04  2.71546E+04  1.69961E+04  2.89693E+04 -5.89336E+03  2.73928E+04
 -2.15520E+04  1.11193E+04 -1.93191E+04 -4.50566E+03  6.01523E+03 -7.88291E+03  2.21746E+04  1.25806E+04
  7.17139E+03  3.70516E+04 -3.22384E+04  3.57530E+04 -6.55888E+04  2.44354E+03 -5.72731E+04 -4.38130E+04
 -1.37184E+04 -6.58088E+04  4.09286E+04 -4.64498E+04  6.02263E+04 -1.14490E+03  3.51286E+04  3.33230E+04
 -5.13251E+03  3.77322E+04 -2.96993E+04  1.60444E+04 -3.11879E+04 -4.12051E+03 -1.98066E+04 -1.20963E+04
 -9.57769E+03 -1.31498E+04 -2.83626E+03 -1.83867E+04  8.29073E+03 -2.29749E+04  1.39065E+04 -1.20093E+04
  1.12638E+04  4.36521E+03 -1.05222E+04  1.42982E+04 -2.20280E+04 -5.93760E+03 -7.04970E+03 -3.46944E+04
  2.51597E+04 -4.59991E+04  4.93743E+04 -2.12617E+04  4.65618E+04  1.93142E+04  1.72253E+04  4.69260E+04
 -1.42229E+04  3.58021E+04 -2.61968E+04  2.18107E+03 -1.14865E+04 -2.77407E+04  2.17213E+04 -3.63358E+04
  4.21738E+04 -1.05762E+04  3.76892E+04  2.43114E+04  1.97991E+04  5.00525E+04 -6.92854E+03  5.27792E+04
 -3.36701E+04  3.75822E+04 -4.57838E+04  1.11600E+04 -4.70649E+04 -1.87738E+04 -2.53680E+04 -4.17873E+04
  6.72241E+03 -3.92414E+04  3.40214E+04 -1.80493E+04  3.06574E+04  1.07438E+04  4.73314E+03  1.99879E+04
 -1.41589E+04  8.47632E+03 -1.20753E+04 -7.51630E+03  5.78688E+03 -1.19783E+04  1.82076E+04  5.29581E+03
  1.60136E+04  2.29194E+04 -5.29377E+03  2.62400E+04 -2.28910E+04  1.30246E+04 -2.99533E+04 -3.70768E+03
 -2.24164E+04 -1.83736E+04 -1.03216E+04 -2.28096E+04  5.59107E+03 -2.40840E+04  1.88606E+04 -2.09862E+04
  2.92109E+04 -1.40760E+04  3.65253E+04  4.03186E+03  2.66943E+04  2.21729E+04  4.81603E+03  3.82380E+04
 -1.91246E+04  3.28218E+04 -2.99025E+04  1.10751E+04 -2.29252E+04 -1.01688E+04 -4.60103E+03 -1.24289E+04
  7.59156E+02 -5.23636E+02 -6.01479E+03  8.80398E+03 -1.89170E+04  4.82887E+03 -1.81179E+04 -9.12984E+03
 -1.11154E+04 -2.14413E+04  5.69696E+03 -2.67116E+04  1.70657E+04 -1.95171E+04  2.16327E+04 -3.29299E+02
  1.31059E+04  1.56963E+04 -9.43930E+02  2.15448E+04 -1.59149E+04  1.30702E+04 -2.18155E+04 -4.07909E+03
 -1.60679E+04 -1.83602E+04 -2.75664E+03 -2.62601E+04  1.19294E+04 -2.08101E+04  2.30665E+04 -1.03845E+04
  2.06274E+04  6.57349E+02  1.47134E+04  3.78723E+03  8.50528E+03  1.21877E+03  1.01343E+04 -1.54330E+03
  1.99848E+04  2.32711E+03  2.29993E+04  1.58392E+04  1.55266E+04  3.33358E+04 -2.90688E+03  3.93362E+04
 -2.19313E+04  3.42088E+04 -3.82524E+04  1.78844E+04 -4.06630E+04 -2.83089E+03 -3.23223E+04 -2.37175E+04
 -1.40546E+04 -3.19642E+04  1.07001E+04 -3.00159E+04  2.46893E+04 -1.38207E+04  2.22680E+04  5.46023E+03
  9.30641E+03  1.56226E+04 -1.04554E+04  1.48379E+04 -1.79535E+04  1.35966E+03 -1.42571E+04 -1.20089E+04
 -8.87579E+02 -1.65932E+04  1.02425E+04 -1.24505E+04  1.15291E+04 -1.92329E+03  2.48680E+03  9.88267E+03
 -7.59415E+03  3.20000E+03 -8.91102E+03 -7.59900E+03 -1.93422E+03 -1.66441E+04  1.02971E+04 -1.69990E+04
  2.11933E+04 -8.40882E+03  2.29990E+04  2.31308E+03  1.97269E+04  1.62390E+04  9.33130E+03  2.49648E+04
 -4.86218E+03  2.77746E+04 -1.62108E+04  1.77738E+04 -1.95623E+04  3.99038E+03 -1.48309E+04 -4.10871E+03
 -4.74843E+03 -5.85656E+03 -1.04697E+03  1.41574E+03 -1.37289E+03  2.63576E+03 -6.76752E+03  5.91369E+03
 -1.29716E+04 -2.63265E+03 -1.48101E+04 -9.10323E+03 -4.80372E+03 -1.75377E+04  4.82303E+03 -1.45631E+04
  1.12580E+04 -6.97283E+03  7.46442E+03  4.67444E+03 -4.44660E+02  6.36740E+03 -6.70258E+03  1.81375E+03
 -7.56016E+03 -9.81739E+03 -5.35996E+02 -1.15935E+04  6.65711E+03 -1.34257E+04  1.65170E+04 -7.32575E+03
  2.12589E+04  1.57292E+03  1.56916E+04  1.20740E+04  1.80742E+03  1.71137E+04 -8.86632E+03  1.32175E+04
 -1.15905E+04  3.25486E+03 -5.54070E+03 -3.57777E+03  2.20777E+03 -2.71574E+03  7.02376E+03 -2.47336E+03
  6.72384E+03  5.17074E+03  1.77299E+03  1.02119E+04 -7.58681E+03  1.00629E+04 -1.34815E+04  1.74212E+03
 -9.58982E+03 -7.44679E+03 -6.66527E+02 -1.18758E+04  6.31956E+03 -6.72868E+03  7.16567E+03  1.95681E+03
 -7.12621E+02  6.65715E+03 -6.19384E+03  8.55881E+03 -1.21605E+04  3.46684E+03 -1.17574E+04 -2.21862E+03
 -7.79417E+03 -1.44651E+04  2.61189E+03 -1.61329E+04  1.45336E+04 -8.57168E+03  1.44912E+04  2.30953E+03
  8.65857E+03  1.20195E+04 -1.63128E+03  1.44793E+04 -9.47217E+03  8.53617E+03 -1.05024E+04 -1.26425E+03
 -8.06838E+03 -8.78234E+03 -1.21169E+03 -9.80084E+03  5.63860E+03 -7.33283E+03  5.21927E+03 -3.88854E+03
  5.47710E+03  1.02532E+03 -3.79005E+02  1.41286E+03 -1.12784E+02 -2.11433E+03  2.21045E+03 -4.37410E+03
  9.32958E+03 -3.59336E+03  1.28267E+04  2.04878E+03  1.28518E+04  8.33395E+03  9.52765E+03  1.76203E+04
 -2.77994E+03  1.96305E+04 -1.73897E+04  1.48431E+04 -2.24228E+04  3.53147E+03 -1.62729E+04 -8.42610E+03
 -7.67094E+03 -1.42650E+04 -9.93827E+02 -1.15895E+04  3.74464E+03 -6.94927E+03  3.07437E+03 -3.16957E+03
  3.61406E+03 -3.10159E+03  1.78634E+03 -3.04400E+03  6.12237E+03 -2.19733E+03  7.17788E+03  3.81679E+02
  8.69708E+03  1.78161E+03  4.53325E+03  7.52755E+03 -1.46993E+03  8.00393E+03 -8.91814E+03  5.78482E+03
 -1.39906E+04 -4.45379E+02 -7.42411E+03 -9.36382E+03 -1.10979E+03 -1.18499E+04  6.49983E+03 -1.33133E+04
  1.25871E+04 -7.60402E+03  1.74181E+04  1.82555E+03  1.02255E+04  1.17355E+04  1.65490E+03  1.49108E+04
 -5.34660E+03  1.14552E+04 -7.65097E+03  3.66413E+03 -5.43072E+03 -1.74755E+03 -3.12728E+03 -1.51869E+03
 -3.41638E+02  9.31468E+02 -1.94466E+03  2.84468E+03 -3.30938E+03  1.60419E+03 -7.67990E+03 -2.24449E+02
 -4.81003E+03 -8.08991E+03  2.15854E+02 -1.01370E+04  7.45544E+03 -1.01401E+04  1.03719E+04 -3.73602E+03
  1.10479E+04  5.03851E+03  5.97390E+03  9.16910E+03 -1.54648E+03  1.14901E+04 -8.42480E+03  6.70798E+03
 -1.01635E+04  7.78107E+02 -6.96988E+03 -7.65649E+03 -7.23109E+02 -9.05367E+03  4.97440E+03 -7.04329E+03
  7.92422E+03 -2.60407E+03  4.32569E+03  1.01013E+03  3.11343E+03  4.03377E+03  5.50101E+01  1.43576E+03
  1.26713E+03  1.55862E+03  3.51353E+03  8.52921E+02  3.10833E+03  5.53218E+03  2.47807E+03  5.21765E+03
 -3.88084E+03  8.72545E+03 -7.80564E+03  9.23413E+03 -1.04804E+04  4.10501E+03 -1.11034E+04 -5.02153E+03
 -5.90118E+03 -1.15256E+04  2.68711E+03 -1.22580E+04  4.97047E+03 -7.82933E+03  9.36581E+03 -2.25801E+03
  7.53967E+03  3.66383E+03  1.96332E+03  7.64776E+03 -3.38231E+03  5.21103E+03 -5.04848E+03  1.65416E+02
 -2.79989E+03 -5.37248E+03  4.42409E+03 -4.69584E+03  5.84227E+03 -3.29377E+03  5.08417E+03  5.04252E+02
  2.77939E+03  2.32059E+03  1.84626E+03  5.42169E+02 -5.43817E+01  6.09939E+02  1.47447E+03 -4.27617E+02
  1.25226E+03 -2.97451E+02  4.38578E+03  3.72695E+03  2.42831E+03  7.35067E+03 -2.99834E+02  9.01318E+03
 -4.90423E+03  5.06315E+03 -8.39005E+03  9.26325E+02 -6.54827E+03 -2.76266E+03 -2.08075E+03 -2.53973E+03
  2.96135E+02 -3.89164E+03  3.86082E+03 -2.44867E+03  2.78321E+03  1.43255E+03 -1.34686E+03  3.64350E+03
 -4.55567E+03  1.95967E+03 -5.04353E+03 -3.32780E+03 -4.27265E+03 -7.67169E+03  1.26453E+03 -6.01869E+03
  3.15668E+03 -3.96120E+03  6.24165E+03 -6.44685E+02  4.44427E+03  1.31496E+03  5.45405E+02  3.36091E+03
 -2.64537E+03  4.75298E+02 -2.57821E+03 -1.85286E+03 -2.36886E+02 -3.51472E+03  5.15839E+03 -4.57615E+03
  6.82108E+03  8.81697E+02  6.32363E+03  4.49941E+03  2.00670E+03  8.58996E+03 -2.25796E+03  6.57890E+03
 -5.75722E+03  3.35077E+03 -4.66426E+03 -2.77675E+02 -2.79575E+03 -4.33613E+03  1.91094E+03 -3.54406E+03
  4.40893E+03 -1.69003E+03  2.54521E+03  2.16022E+03  6.21524E+02  4.27639E+03  5.57403E+00  4.00576E+03
 -4.24701E+03  3.24717E+03 -2.10474E+03  3.32513E+02  1.02983E+02  1.68161E+03 -1.47544E+03  2.46156E+03
 -7.66628E+02  2.60499E+03 -5.66765E+03  3.28695E+03 -7.07354E+03  4.81593E+02 -7.96999E+03 -4.68588E+03
 -3.36919E+03 -1.09454E+04  1.67097E+03 -1.23681E+04  6.83727E+03 -7.62852E+03  9.13165E+03 -3.51510E+03
  9.29410E+03  2.42167E+03  6.40852E+03  6.25458E+03  1.80457E+02  6.16244E+03 -3.87928E+03  4.89491E+03
 -4.69577E+03  1.10245E+03 -2.38559E+03  9.28434E+02 -1.10204E+03 -7.65321E+02 -2.98427E+02 -3.47431E+01
 -7.99196E+02  7.96587E+02 -1.29407E+03  5.16855E+02 -8.32838E+02 -2.88725E+03  1.24844E+03 -2.23271E+03
  3.85912E+03 -1.91137E+03  3.86692E+03  1.91373E+03  5.06790E+03  3.04152E+03  1.36486E+03  7.65603E+03
 -3.68213E+03  7.43208E+03 -7.79645E+03  4.35099E+03 -8.75348E+03 -2.91105E+03 -6.50826E+03 -6.28785E+03
 -3.41752E+03 -6.48352E+03  2.78167E+03 -6.99176E+03  3.55871E+03 -2.91048E+03  5.37253E+03  5.43672E+02
  1.90422E+03  2.06432E+03 -6.43026E+02  9.66305E+02 -2.76241E+03 -8.30665E+02  1.92352E+01 -2.05871E+03
  3.19873E+03 -3.81472E+02  2.49733E+03  3.77326E+02  8.27843E+02  3.20019E+03  7.16089E+02  4.48899E+03
 -2.97296E+03  2.73278E+03 -4.93342E+03 -3.88818E+02 -4.23043E+03 -2.55413E+03 -1.60104E+03 -3.24656E+03
  3.39249E+03 -4.57072E+03  4.69571E+03 -2.57189E+03  6.16738E+03  5.84516E+02  3.67675E+03  6.09934E+03
  1.55002E+03  5.06622E+03 -1.12537E+03  4.72991E+03 -3.35820E+03  2.98136E+03 -1.67251E+03  6.55037E+02
 -3.12229E+02  7.77765E+02 -2.30266E+03 -6.80748E+02 -3.09485E+03  6.94066E+02 -4.33008E+03 -1.45371E+03
 -3.91990E+03 -3.34177E+03 -1.56424E+03 -4.71777E+03  2.01457E+03 -4.89250E+03  4.76218E+03 -3.58970E+03
  4.72529E+03 -1.12267E+03  1.52375E+03  3.00236E+03 -1.93724E+02  4.31286E+03 -3.67174E+03  2.38308E+03
