 $NMID ID='MM_0lb_SNR200_13hz_g55_5.RAW', FMTDAT='(8E13.5)'
 TRAMP=1., VOLUME=1. $END
  3.08851E+05  9.15611E+00  3.37131E+05  2.50415E+05  8.48811E+04  3.38276E+05 -1.31859E+05  2.50335E+05
 -1.90306E+05  8.38992E+04 -1.12686E+05 -3.26608E+04 -6.08902E+00 -5.04177E+04  5.40166E+04 -8.63431E+02
  3.57759E+04  5.21282E+04 -1.74409E+04  7.63804E+04 -6.05699E+04  6.40308E+04 -8.54591E+04  3.14340E+04
 -8.10342E+04 -1.22355E+04 -5.80611E+04 -5.26133E+04 -1.45678E+04 -7.12441E+04  2.76502E+04 -4.58200E+04
  4.12718E+04  2.78401E+03  1.71144E+04  4.67984E+04 -3.41835E+04  4.62767E+04 -6.64811E+04  1.33429E+03
 -5.37672E+04 -5.68678E+04 -7.60171E+03 -7.84167E+04  3.35710E+04 -5.55195E+04  4.84977E+04 -1.73463E+04
  4.51386E+04  1.10340E+04  3.23470E+04  2.60421E+04  1.57880E+04  2.84860E+04 -5.32041E+03  2.70498E+04
 -2.28769E+04  1.30780E+04 -1.83064E+04 -4.69742E+03  5.68798E+03 -7.99330E+03  2.33792E+04  1.19458E+04
  6.52132E+03  3.54259E+04 -3.28657E+04  3.68856E+04 -6.51650E+04  1.57009E+03 -5.70039E+04 -4.32551E+04
 -1.28648E+04 -6.33501E+04  4.02142E+04 -4.70202E+04  5.87992E+04 -2.04072E+03  3.49345E+04  3.31913E+04
 -5.93825E+03  3.78937E+04 -3.06187E+04  1.72551E+04 -3.21769E+04 -3.13127E+03 -1.86857E+04 -1.07847E+04
 -9.25758E+03 -1.40678E+04 -1.03558E+03 -1.88035E+04  8.03858E+03 -2.38299E+04  1.61343E+04 -1.40950E+04
  1.04779E+04  6.38653E+03 -9.28651E+03  1.29952E+04 -2.12644E+04 -5.73004E+03 -8.43381E+03 -3.47273E+04
  2.44978E+04 -4.53310E+04  4.87134E+04 -1.92720E+04  4.58245E+04  1.89117E+04  1.67490E+04  4.51505E+04
 -1.65506E+04  3.37934E+04 -2.70927E+04  3.07449E+03 -1.09186E+04 -2.90922E+04  2.20009E+04 -3.48053E+04
  4.26319E+04 -9.43299E+03  3.77744E+04  2.46971E+04  1.90209E+04  4.75120E+04 -8.22798E+03  5.20657E+04
 -3.52124E+04  3.53028E+04 -4.45077E+04  9.00487E+03 -4.55269E+04 -1.73931E+04 -2.47196E+04 -3.86213E+04
  5.90749E+03 -3.83181E+04  3.31813E+04 -1.61426E+04  3.10666E+04  1.18346E+04  4.69438E+03  1.91796E+04
 -1.50834E+04  9.07614E+03 -1.04520E+04 -8.59978E+03  6.78733E+03 -1.11712E+04  1.87168E+04  4.97902E+03
  1.38060E+04  2.14157E+04 -4.59778E+03  2.58061E+04 -2.42040E+04  1.27947E+04 -2.86994E+04 -4.70683E+03
 -2.25617E+04 -1.74165E+04 -1.11223E+04 -2.22779E+04  5.18812E+03 -2.12977E+04  1.68669E+04 -2.05914E+04
  2.92824E+04 -1.34701E+04  3.51503E+04  2.91649E+03  2.41026E+04  2.17219E+04  4.59789E+03  3.83239E+04
 -1.83200E+04  3.15968E+04 -2.79985E+04  1.10029E+04 -2.08591E+04 -1.06500E+04 -4.99553E+03 -1.35082E+04
  9.14364E+01 -5.03913E+02 -5.48763E+03  7.00180E+03 -1.69352E+04  6.18215E+03 -1.80256E+04 -6.68176E+03
 -1.02612E+04 -1.90639E+04  5.45816E+03 -2.47332E+04  1.58075E+04 -1.74025E+04  2.10164E+04 -7.04389E+02
  1.27343E+04  1.47190E+04 -2.23532E+03  2.02560E+04 -1.36395E+04  1.17546E+04 -2.04157E+04 -4.02662E+03
 -1.50851E+04 -1.91060E+04 -2.06319E+03 -2.48629E+04  1.20924E+04 -2.02983E+04  2.04586E+04 -1.10014E+04
  1.91083E+04  3.19446E+02  1.50380E+04  5.05530E+03  7.60528E+03  1.46210E+03  1.04579E+04 -1.43258E+03
  1.88554E+04  3.70340E+03  2.09531E+04  1.69917E+04  1.38928E+04  3.21542E+04 -2.13371E+03  3.65198E+04
 -2.22368E+04  2.94581E+04 -3.52254E+04  1.51784E+04 -3.75298E+04 -3.05333E+03 -2.93350E+04 -2.20762E+04
 -1.25894E+04 -3.07824E+04  1.10798E+04 -2.82100E+04  2.45097E+04 -1.40419E+04  2.09508E+04  6.62179E+03
  7.75522E+03  1.46753E+04 -8.93470E+03  1.37883E+04 -1.73175E+04  3.51968E+03 -1.38279E+04 -1.18114E+04
 -9.99526E+02 -1.70798E+04  9.06672E+03 -1.16650E+04  9.91889E+03 -8.41606E+02  2.67860E+03  6.02148E+03
 -7.73263E+03  2.13254E+03 -6.31204E+03 -5.72106E+03 -1.15214E+03 -1.58048E+04  9.67327E+03 -1.64404E+04
  1.79464E+04 -8.43247E+03  1.97884E+04  3.44314E+03  1.76226E+04  1.52800E+04  8.60364E+03  2.32644E+04
 -4.66773E+03  2.44729E+04 -1.56090E+04  1.47841E+04 -1.85183E+04  3.10991E+03 -1.32030E+04 -2.92187E+03
 -5.71162E+03 -5.65263E+03 -1.29117E+03  6.14094E+02 -3.47289E+03  3.23990E+03 -5.48330E+03  4.58258E+03
 -1.13128E+04 -9.86377E+02 -1.16206E+04 -1.02730E+04 -6.11561E+03 -1.54670E+04  4.90821E+03 -1.23345E+04
  9.24536E+03 -4.23014E+03  7.63891E+03  3.40720E+03  1.61809E+03  4.84658E+03 -6.80655E+03  2.72054E+02
 -5.68354E+03 -8.17055E+03 -1.41778E+03 -1.23469E+04  7.02467E+03 -1.21118E+04  1.66325E+04 -5.65954E+03
  1.81010E+04  1.33864E+03  1.26133E+04  1.03088E+04  3.39583E+03  1.44228E+04 -6.75172E+03  1.16298E+04
 -1.00219E+04  3.75714E+03 -4.90427E+03 -3.19302E+03  2.69014E+03 -3.38213E+03  6.38609E+03 -3.32543E+02
  7.12669E+03  5.50923E+03  6.72692E+02  1.06345E+04 -6.75773E+03  8.91366E+03 -1.24268E+04  2.39329E+03
 -8.00156E+03 -5.59080E+03 -1.32584E+03 -1.10950E+04  6.20030E+03 -5.17364E+03  6.53155E+03  2.66397E+03
  1.65990E+03  7.76986E+03 -5.07505E+03  8.97460E+03 -9.66533E+03  2.64821E+03 -9.79021E+03 -1.28633E+03
 -4.89337E+03 -1.03722E+04  1.85455E+03 -1.30554E+04  1.16110E+04 -8.48405E+03  1.12888E+04  1.72097E+03
  7.31213E+03  9.54122E+03 -2.10688E+03  1.14999E+04 -7.93399E+03  5.60637E+03 -9.20702E+03 -1.32354E+03
 -8.85437E+03 -8.01493E+03 -1.24442E+03 -8.84945E+03  3.90975E+03 -8.19995E+03  7.46631E+03 -2.76105E+03
  3.57571E+03  5.81855E+02  4.45215E+02  1.73219E+03 -2.99741E+02 -2.55425E+03  2.07868E+03 -4.14055E+03
  8.37674E+03 -2.71724E+03  1.12949E+04  1.45160E+03  1.12696E+04  8.24511E+03  7.15855E+03  1.47796E+04
 -3.84495E+03  1.66831E+04 -1.37337E+04  1.17203E+04 -1.89164E+04  2.10135E+03 -1.54752E+04 -5.67804E+03
 -7.99307E+03 -1.08650E+04 -2.07269E+02 -1.13741E+04  2.68806E+03 -5.69172E+03  4.02429E+03 -4.20865E+03
  3.39802E+03 -2.85111E+03  3.56588E+03 -1.83240E+03  3.72619E+03 -2.81198E+03  5.97834E+03 -9.10441E+02
  7.54163E+03  1.60892E+03  3.99236E+03  5.47331E+03 -2.95078E+03  6.55611E+03 -8.87523E+03  5.69632E+03
 -9.74605E+03 -4.49783E+02 -6.68824E+03 -7.46613E+03 -1.99448E+02 -1.08197E+04  5.22878E+03 -1.08860E+04
  1.17294E+04 -4.77179E+03  1.41024E+04  2.37340E+03  9.34841E+03  9.90709E+03  2.07528E+03  1.34130E+04
 -4.54614E+03  9.56791E+03 -6.15375E+03  3.26604E+03 -4.04943E+03 -2.44176E+03 -2.84027E+03 -5.70874E+02
 -6.99928E+02 -5.47686E+02 -1.29289E+03  2.29988E+03 -4.36578E+03 -2.62103E+02 -7.64740E+03 -1.32101E+03
 -6.21101E+03 -8.39309E+03  3.36183E+02 -1.05929E+04  4.32159E+03 -9.17243E+03  8.48082E+03 -1.83819E+03
  9.45177E+03  4.35178E+03  4.50438E+03  7.90116E+03 -1.60483E+03  8.77488E+03 -7.88397E+03  5.44819E+03
 -8.33505E+03  2.09557E+03 -7.09844E+03 -4.72012E+03 -8.33639E+02 -7.56155E+03  3.38327E+03 -5.28142E+03
  6.67927E+03 -3.11877E+03  3.64397E+03  5.95838E+02  1.70183E+03  3.95545E+03  1.57862E+03  2.39947E+03
  1.56632E+03 -3.56403E+02  2.45077E+03  9.15225E+02  3.20277E+03  4.11448E+03  2.07602E+03  3.66899E+03
 -2.52964E+03  6.84306E+03 -7.28857E+03  7.92752E+03 -7.55064E+03  8.53181E+02 -8.23594E+03 -2.63183E+03
 -4.42981E+03 -8.65744E+03  1.16974E+03 -9.65047E+03  4.97433E+03 -7.14349E+03  5.82139E+03 -1.16950E+03
  6.00965E+03  4.12075E+03  2.31139E+02  6.18469E+03 -2.27281E+03  4.13627E+03 -2.82011E+03 -1.36172E+03
 -9.56444E+02 -4.70321E+03  2.28263E+03 -3.51950E+03  5.47813E+03 -2.16268E+03  3.26470E+03 -1.42075E+01
  9.14044E+02  2.04829E+02  1.06064E+03  1.53103E+03  2.39090E+02  1.57181E+03  2.37732E+03 -6.90064E+02
  2.14892E+03  2.90203E+02  5.01669E+03  1.83158E+03  1.95306E+03  4.40407E+03 -1.61352E+03  6.05586E+03
 -3.55480E+03  3.12197E+03 -5.71078E+03  1.95331E+03 -5.70088E+03 -6.61107E+02 -1.63613E+03 -3.05069E+03
  9.26688E+02 -4.50542E+03  1.07620E+03 -5.21714E+01 -1.74684E+02  1.38476E+03 -4.94513E+02  2.21900E+03
 -2.40792E+03  2.99558E+03 -4.49313E+03 -2.67161E+03 -2.79803E+03 -6.40070E+03  1.78208E+02 -4.25034E+03
  3.45992E+03 -3.82434E+03  2.76199E+03  5.98753E+02  3.07537E+03  1.10957E+03  9.34497E+02  2.19979E+03
 -9.50112E+02 -7.66398E+01 -1.79051E+03 -2.26420E+03 -2.00544E+02 -4.82479E+03  4.51125E+03 -2.84152E+03
  5.22251E+03  2.08235E+02  6.25925E+03  2.71934E+03  2.04604E+03  5.77683E+03 -7.79917E+02  4.10350E+03
 -3.84722E+03  1.15121E+03 -4.32053E+03 -9.19024E+02 -2.19852E+03 -4.10336E+03  8.48861E+02 -3.24999E+03
  2.73666E+03 -1.24029E+03  4.15602E+03  1.87496E+03  1.28350E+03  3.69231E+03  6.06357E+02  1.73227E+03
  8.88914E+02  1.18845E+03 -3.00212E+02  2.62312E+02 -5.52816E+02  1.27599E+03 -1.69696E+03  1.19454E+03
 -4.90329E+02  1.58404E+03 -2.90338E+03  2.81799E+03 -4.36940E+03  9.70725E+02 -4.98734E+03 -2.98718E+03
 -2.53518E+03 -6.92248E+03  1.21190E+03 -7.99172E+03  4.35710E+03 -5.63435E+03  7.88779E+03 -1.19142E+03
  7.73541E+03  1.16039E+03  3.74775E+03  5.76588E+03 -8.64675E+01  6.71273E+03 -1.21107E+03  3.29821E+03
 -2.79406E+03  1.29562E+03 -8.81346E+02 -1.60369E+03 -8.84883E+02  2.27590E+02 -1.76282E+03 -7.91094E+02
 -1.58633E+03 -1.56867E+02 -1.28548E+03  3.18035E+02  5.44145E+02 -7.21451E+02  9.92273E+02 -2.11868E+03
  2.59664E+03 -1.83505E+03  3.27883E+03  7.04600E+02  4.66814E+03  1.92359E+03  3.47552E+02  4.99123E+03
 -2.00901E+03  6.37459E+03 -4.15500E+03  2.86838E+03 -6.41158E+03 -1.26867E+03 -5.06276E+03 -1.82167E+03
 -1.35126E+03 -3.26937E+03  1.67733E+03 -3.64322E+03  2.51488E+03 -3.01731E+03  2.06627E+03 -6.25051E+02
  7.59206E+02  1.48599E+03 -3.94652E+02  2.01685E+03 -1.61737E+03 -1.16796E+03 -3.65626E+02 -1.02448E+03
  1.01857E+03 -7.89905E+02  2.00542E+03  1.39557E+03 -1.86479E+02  1.16157E+03 -5.11639E+02  1.66359E+03
 -2.49940E+03  1.89133E+03 -3.35904E+03  2.82988E+01 -3.58179E+03 -1.42050E+03 -8.78363E+02 -3.01068E+03
  9.15856E+02 -5.05260E+03  3.93829E+03 -3.44550E+02  3.92074E+03  3.53948E+02  1.63736E+03  1.76151E+03
  1.44853E+03  2.54061E+03 -2.45281E+02  1.25743E+03 -2.39479E+03  8.46545E+02 -1.21973E+03  3.28587E+02
 -6.27608E+01 -5.80349E+02 -1.66387E+03  5.03130E+02 -1.81311E+03  2.69365E+03 -1.77859E+03 -2.92913E+02
 -1.04109E+03 -5.28113E+02 -1.55285E+03 -4.30535E+03  1.48320E+03 -2.88928E+03  2.77130E+03 -1.15485E+02
  4.36835E+03  9.99904E+02  1.41925E+03  2.58768E+03  1.18776E+02  1.65261E+03 -2.54297E+03  4.42060E+02
