 $NMID ID='MM_0lb_SNR200_20hz_g40_99.RAW', FMTDAT='(8E13.5)'
 TRAMP=1., VOLUME=1. $END
  3.11187E+05  1.00703E+03  3.36911E+05  2.50975E+05  8.40030E+04  3.36669E+05 -1.32417E+05  2.48994E+05
 -1.89115E+05  8.19242E+04 -1.10463E+05 -3.32657E+04  1.61747E+03 -4.94888E+04  5.38437E+04  9.04162E+02
  3.51778E+04  5.24381E+04 -1.70193E+04  7.51923E+04 -5.95864E+04  6.23067E+04 -8.13483E+04  3.06971E+04
 -7.77110E+04 -1.11368E+04 -5.65939E+04 -4.98788E+04 -1.57055E+04 -6.74008E+04  2.65594E+04 -4.38503E+04
  3.84648E+04  5.18134E+03  1.63624E+04  4.62538E+04 -3.41141E+04  4.56045E+04 -6.47672E+04 -1.03687E+03
 -5.22577E+04 -5.61324E+04 -5.97000E+03 -7.44199E+04  3.18921E+04 -5.25140E+04  4.45281E+04 -1.58286E+04
  4.14287E+04  1.10237E+04  3.13024E+04  2.34956E+04  1.61986E+04  2.90840E+04 -4.49126E+03  2.57093E+04
 -2.22333E+04  1.27758E+04 -1.95845E+04 -3.70119E+03  4.31911E+03 -7.73194E+03  2.00117E+04  1.03638E+04
  8.60848E+03  3.20163E+04 -3.05802E+04  3.33907E+04 -6.07110E+04  1.91867E+03 -5.40645E+04 -3.95385E+04
 -1.16455E+04 -5.99252E+04  3.75073E+04 -4.15858E+04  5.53655E+04 -2.13365E+03  3.07669E+04  2.89020E+04
 -7.06247E+03  3.11168E+04 -2.73856E+04  1.24131E+04 -2.55202E+04 -5.39777E+03 -1.45631E+04 -9.66237E+03
 -6.30352E+03 -1.13175E+04 -7.90958E+02 -1.60820E+04  6.24480E+03 -2.22776E+04  1.50521E+04 -1.48567E+04
  1.23875E+04  4.91951E+03 -5.38927E+03  1.27706E+04 -1.93315E+04 -1.06894E+03 -8.65149E+03 -2.84852E+04
  2.02181E+04 -3.90244E+04  4.28733E+04 -1.82297E+04  4.07309E+04  1.77072E+04  1.28527E+04  4.01627E+04
 -1.47109E+04  2.91981E+04 -2.25359E+04  2.71688E+02 -7.82121E+03 -2.66681E+04  2.01761E+04 -2.92968E+04
  3.68508E+04 -7.43802E+03  2.97543E+04  2.25019E+04  1.33198E+04  4.05021E+04 -7.68772E+03  4.24600E+04
 -2.75194E+04  2.85140E+04 -3.47928E+04  7.71559E+03 -3.60292E+04 -1.41665E+04 -1.98885E+04 -3.24924E+04
  6.02894E+03 -3.24042E+04  2.76579E+04 -1.15745E+04  2.62490E+04  1.10279E+04  1.99673E+03  1.76139E+04
 -1.20362E+04  6.85473E+03 -8.84958E+03 -7.65553E+03  5.16047E+03 -1.03587E+04  1.71312E+04  6.82422E+03
  1.20564E+04  2.10664E+04 -6.57470E+03  2.28841E+04 -2.13564E+04  8.24795E+03 -2.50763E+04 -6.87923E+03
 -1.42929E+04 -1.51358E+04 -3.50701E+03 -1.52455E+04  3.94394E+03 -1.25340E+04  1.13317E+04 -1.18110E+04
  1.93667E+04 -1.15805E+04  2.56565E+04  6.55390E+02  2.07183E+04  1.51866E+04  4.10177E+03  3.05040E+04
 -1.58011E+04  2.56704E+04 -2.41055E+04  8.88151E+03 -1.91032E+04 -1.05954E+04 -3.59915E+03 -1.35719E+04
  3.07397E+03 -4.40647E+03 -2.54464E+03  4.36938E+03 -1.10285E+04  4.84731E+03 -1.21145E+04 -2.99884E+03
 -8.31343E+03 -1.39339E+04  3.78059E+03 -1.91001E+04  1.15009E+04 -1.25398E+04  1.22933E+04 -1.19293E+03
  7.58468E+03  1.08415E+04 -9.88695E+02  1.38880E+04 -9.83370E+03  8.30283E+03 -1.36975E+04 -3.39853E+03
 -1.04463E+04 -1.31007E+04 -1.72699E+03 -1.76187E+04  8.55857E+03 -1.32501E+04  1.38560E+04 -6.56426E+03
  1.38452E+04  1.59631E+02  8.66093E+03  3.76604E+03  4.52903E+03  4.20711E+02  6.09640E+03 -8.98750E+02
  1.23157E+04  3.39180E+03  1.28690E+04  1.15385E+04  7.85070E+03  2.30914E+04 -3.24602E+03  2.39749E+04
 -1.40239E+04  1.72775E+04 -2.27548E+04  8.55023E+03 -2.14099E+04 -1.44540E+03 -1.95811E+04 -1.15189E+04
 -9.59992E+03 -1.83116E+04  5.65572E+03 -1.68045E+04  1.50455E+04 -1.13019E+04  1.43275E+04  3.80440E+03
  7.03153E+03  9.56432E+03 -6.17932E+03  1.00822E+04 -1.14416E+04  2.77280E+03 -9.69836E+03 -6.56454E+03
  1.57671E+02 -1.19998E+04  5.99169E+03 -8.10529E+03  7.72552E+03 -1.42599E+03  2.07336E+02  4.53726E+03
 -4.90411E+03  1.30599E+03 -2.99752E+03 -4.37817E+03  1.07796E+03 -8.39141E+03  7.32367E+03 -8.90410E+03
  1.04784E+04 -3.69948E+03  9.51824E+03  3.03594E+03  7.29505E+03  7.67836E+03  3.49629E+03  1.12966E+04
 -1.61121E+03  1.29526E+04 -7.70773E+03  8.84750E+03 -8.74866E+03  2.77799E+03 -5.88604E+03 -7.82812E+02
 -2.65125E+03 -2.67604E+03 -8.74304E+02  1.30871E+03 -1.60606E+03  1.61892E+03 -3.37363E+03  3.34534E+03
 -6.91637E+03 -1.84712E+02 -7.90182E+03 -6.15104E+03 -2.92945E+03 -1.02893E+04  3.74487E+03 -7.81803E+03
  6.39572E+03 -2.96182E+03  4.78240E+03  2.60014E+03  4.37069E+02  2.55583E+03 -3.63361E+03  4.75057E+01
 -3.17691E+03 -4.79484E+03 -1.10270E+03 -5.59754E+03  3.35117E+03 -7.86191E+03  9.49979E+03 -3.39173E+03
  1.05617E+04  4.35947E+02  7.21568E+03  5.32029E+03  1.25787E+03  7.63157E+03 -5.51388E+03  6.21234E+03
 -6.56058E+03  4.21896E+03 -2.90078E+03 -3.53469E+02  9.84629E+02 -1.84761E+03  3.42699E+03 -1.12382E+03
  4.34346E+03  3.02285E+03  1.06295E+03  5.51667E+03 -4.09791E+03  6.23990E+03 -6.52492E+03  1.64896E+03
 -3.56171E+03 -2.59588E+03  1.33501E+03 -6.24180E+03  3.36793E+03 -4.00874E+03  2.69418E+03  4.16106E+02
  2.89020E+02  1.65752E+03 -3.49185E+03  4.63839E+03 -3.61317E+03  2.45109E+03 -3.17079E+03 -5.25113E+01
 -2.38907E+03 -3.86696E+03  1.48115E+03 -4.77960E+03  4.39011E+03 -4.45455E+03  5.00839E+03  1.67773E+03
  3.12932E+03  3.96429E+03  3.80649E+02  5.57770E+03 -4.25387E+03  3.11841E+03 -3.88775E+03 -8.36712E+02
 -5.30295E+03 -3.80686E+03 -6.10272E+02 -5.07207E+03  1.76010E+03 -3.75646E+03  2.43456E+03 -2.74907E+03
  3.37482E+03  3.03288E+01  1.10545E+03  1.28856E+03  1.06532E+02  1.13425E+02  6.04418E+02 -1.34456E+03
  3.66884E+03 -7.93519E+02  3.14928E+03  1.23470E+01  4.73902E+03  3.68207E+03  5.20037E+03  5.63332E+03
 -1.39483E+03  7.60442E+03 -6.69280E+03  5.47083E+03 -8.60423E+03 -1.52364E+02 -5.75744E+03 -2.23607E+03
 -3.41967E+03 -5.75067E+03 -3.84321E+01 -4.21123E+03  2.31059E+03 -2.70942E+03  1.28792E+03 -2.96045E+02
  1.07713E+03 -1.33970E+03  2.35787E+03 -2.19051E+03  3.82743E+03 -9.78858E+02  2.89586E+03  6.82750E+02
  4.10013E+03  1.15160E+02 -4.62137E+02  1.84035E+03 -4.49711E+02  1.79487E+03 -3.81488E+03  1.85580E+03
 -3.02643E+03 -1.21457E+03 -1.41333E+03 -3.39426E+03  7.12419E+02 -4.16755E+03  2.61861E+03 -4.69745E+03
  4.74387E+03 -2.24532E+03  5.32725E+03 -2.43860E+02  4.56248E+03  2.73920E+03  4.90953E+02  5.48777E+03
 -2.29760E+03  4.47394E+03 -2.97307E+03  1.63927E+03 -1.99473E+03 -1.09959E+03 -6.21282E+02 -2.23142E+02
 -2.87017E+02  8.03802E+02 -7.45848E+02  2.28289E+03 -1.72499E+03  1.78991E+03 -2.95689E+03  5.44485E+02
 -1.59427E+03 -3.79802E+03  1.66565E+03 -3.12129E+03  1.61272E+03 -3.04177E+03  3.74872E+03 -9.60473E+02
  2.51503E+03  2.64126E+03  1.20343E+03  2.53040E+03 -4.27207E+02  3.00611E+03 -1.41518E+03  2.13546E+03
 -2.90825E+03  7.90662E+02 -2.37570E+03 -1.89019E+03  2.14213E+02 -2.18295E+03  5.92996E+02 -1.76424E+03
  1.07619E+03 -1.75234E+03  1.54173E+03 -8.41104E+02 -8.09257E+01  1.47041E+03  4.40385E+02  1.05082E+03
  2.59873E+03  5.54123E+02  3.69864E+02  1.05017E+03  7.35489E+02  1.90603E+03  2.20197E+02  1.09659E+03
 -1.84862E+03  1.75209E+03 -1.07022E+03  3.41796E+03 -3.00776E+03  5.55680E+02 -2.99723E+03  7.77685E+02
 -1.19311E+03 -2.13944E+03  3.57910E+02 -2.87508E+03  1.02046E+03 -2.21622E+03  2.33423E+03 -1.64728E+03
  1.98119E+03  1.24497E+03  5.93647E+02  2.52737E+03 -1.40562E+02  4.40635E+02 -1.02893E+03 -4.05977E+02
 -7.36310E+02 -1.10681E+03  1.16387E+02 -1.96738E+03  2.57404E+02 -1.15647E+03  3.87238E+02 -6.12435E+02
  3.83593E+02  1.31249E+03  6.98514E+02 -3.47568E+02  5.05266E+02  5.51356E+02  9.31355E+02  5.01460E+02
  5.75552E+01  1.21669E+03  1.52784E+03  3.05330E+02  1.05509E+02  1.56217E+03 -2.58024E+01  2.02858E+03
 -1.09608E+03  6.15302E+02 -1.00515E+03  9.98704E+02 -2.20313E+03 -5.50312E+02 -7.75191E+02  9.92948E+01
  1.07516E+03 -1.02260E+03  6.57672E+02 -4.92072E+02  6.68898E+02  1.21497E+03 -1.70910E+03  1.07223E+03
 -9.25265E+02  1.45332E+03 -3.59157E+02 -1.68424E+03 -7.98094E+02 -2.52683E+03  1.46424E+02 -8.70190E+02
  1.95510E+02 -8.77782E+02  2.31169E+02  2.42238E+02  6.50615E+02 -6.46929E+02  8.62777E+02  8.80077E+02
 -4.75928E+02 -5.25787E+02 -2.74171E+02 -7.66681E+02 -1.54851E+02 -1.53546E+02  1.54417E+03 -1.36911E+03
  9.73431E+02  7.99235E+02  2.61298E+03  1.10960E+03  8.80002E+02  1.03331E+03  5.26273E+02  1.64902E+03
 -1.65940E+03 -3.93800E+01 -1.24132E+03 -3.26900E+02 -6.88831E+02 -1.07814E+03  9.74302E+02 -4.69151E+02
  1.76669E+03 -5.58189E+02  6.94331E+02  7.88097E+02  1.49713E+02  1.42586E+03  5.45306E+02  4.73421E+02
 -8.05973E+02  1.28607E+03 -1.29748E+03  4.35781E+01  1.50565E+03  7.34212E+01  5.61179E+01 -7.26552E+01
 -3.40168E+02  9.28714E+02 -1.52058E+03  1.70747E+03 -2.61050E+03  2.13739E+01 -2.34928E+03 -2.52899E+02
 -2.88545E+02 -1.29769E+03 -3.34053E+01 -1.18789E+03  1.16086E+03 -1.90457E+03  1.76469E+03 -6.92302E+02
  2.01575E+03 -6.93553E+02  1.01500E+03  8.26484E+02 -3.86809E+02  8.89215E+02 -9.28821E+02 -1.13757E+02
 -4.44584E+02  9.76747E+00 -2.08216E+02 -1.75274E+02 -6.27517E+02  5.79197E+02  3.53829E+01 -7.47282E+02
 -2.10967E+03  1.73368E+02 -1.28440E+03  4.82191E+02 -2.35649E+02 -8.72035E+02 -6.24456E+02 -1.90402E+03
  1.67642E+03 -2.70026E+01  5.50236E+01  6.58680E+02  1.34582E+02  1.10365E+03 -9.73013E+02  1.07556E+03
 -1.29759E+03  1.62276E+03 -9.61234E+02  3.40927E+02 -2.53890E+03  1.21045E+03 -1.40912E+03 -1.09528E+03
 -2.01473E+02 -4.33174E+02  2.44014E+02 -1.46033E+03  8.37985E+01 -1.01470E+03  7.78507E+02 -2.48050E+02
  1.01149E+03 -8.21559E+02 -4.24269E+02 -3.05229E+02 -1.64475E+02  2.85865E+02 -1.66646E+02  1.20530E+02
  9.06965E+01  1.01780E+03  4.50288E+02 -1.02916E+02 -1.08268E+02 -3.00819E+02  2.96568E+02 -6.05938E+02
  2.63353E+02  8.90449E+01 -2.55607E+02 -1.13333E+03 -3.04464E+02 -1.32865E+02 -4.01681E+02 -1.21069E+03
  1.16425E+03 -9.67812E+02  1.53234E+02 -7.89416E+02  1.93059E+02 -5.90204E+02 -4.64207E+01 -5.40412E+01
  5.99004E+02  4.04369E+02  2.09383E+02  5.70062E+02 -6.00657E+01  9.33129E+02 -3.40501E+02  8.27074E+02
 -7.62022E+02  1.14697E+02 -9.48452E+02  6.65042E+02 -1.89339E+02 -1.80088E+02  6.00509E+01 -6.54388E+02
  1.34306E+02  1.53732E+03  4.73751E+02 -7.85684E+02  1.35320E+03 -1.19146E+03  6.79445E+02 -2.11398E+02
 -1.88283E+02 -2.29702E+02 -7.31711E+02  1.62500E+03  6.04347E+02  1.08991E+03  5.26557E+02  7.41560E+02
