 $NMID ID='MM_0lb_SNR200_11hz_g45_46.RAW', FMTDAT='(8E13.5)'
 TRAMP=1., VOLUME=1. $END
  3.09993E+05  5.41621E+02  3.37487E+05  2.51572E+05  8.50005E+04  3.39020E+05 -1.33145E+05  2.50308E+05
 -1.89716E+05  8.27796E+04 -1.11873E+05 -3.18083E+04  6.11305E+02 -4.99607E+04  5.34836E+04 -5.69329E+02
  3.52938E+04  5.33481E+04 -1.66039E+04  7.57188E+04 -6.00219E+04  6.38541E+04 -8.46706E+04  3.35048E+04
 -8.27258E+04 -1.08886E+04 -5.79300E+04 -5.23409E+04 -1.41819E+04 -7.04906E+04  2.73917E+04 -4.63129E+04
  4.08117E+04  4.51680E+03  1.75284E+04  4.83832E+04 -3.62987E+04  4.79269E+04 -6.79252E+04  1.53084E+03
 -5.35682E+04 -5.62177E+04 -7.36846E+03 -7.89342E+04  3.32074E+04 -5.57169E+04  4.81343E+04 -1.83181E+04
  4.34675E+04  1.08899E+04  3.29110E+04  2.47034E+04  1.55046E+04  3.07450E+04 -5.21122E+03  2.78892E+04
 -2.23205E+04  1.25526E+04 -1.76571E+04 -5.55100E+03  5.97327E+03 -7.00000E+03  2.21985E+04  1.20055E+04
  7.91249E+03  3.67158E+04 -3.21276E+04  3.58940E+04 -6.38390E+04  2.23583E+03 -5.73861E+04 -4.36068E+04
 -1.27039E+04 -6.49063E+04  4.13465E+04 -4.52813E+04  5.88337E+04 -3.15822E+03  3.59022E+04  3.49489E+04
 -6.15461E+03  3.75139E+04 -3.08222E+04  1.78057E+04 -3.17404E+04 -4.74828E+03 -1.84640E+04 -1.16157E+04
 -8.72533E+03 -1.46759E+04 -9.51683E+02 -1.93492E+04  7.63020E+03 -2.34616E+04  1.63726E+04 -1.35886E+04
  1.13282E+04  5.24330E+03 -9.17000E+03  1.48122E+04 -2.09070E+04 -6.11158E+03 -9.05589E+03 -3.60342E+04
  2.28390E+04 -4.64776E+04  5.18574E+04 -1.97872E+04  4.77590E+04  2.05054E+04  1.61448E+04  4.65010E+04
 -1.67220E+04  3.45539E+04 -2.69973E+04  2.02152E+03 -1.10260E+04 -2.77176E+04  2.10665E+04 -3.52118E+04
  4.24619E+04 -1.09200E+04  3.72965E+04  2.48694E+04  1.96246E+04  4.83419E+04 -8.58166E+03  5.39068E+04
 -3.42630E+04  3.54433E+04 -4.44912E+04  9.56105E+03 -4.48699E+04 -1.72480E+04 -2.55986E+04 -4.02323E+04
  7.86836E+03 -3.97818E+04  3.39911E+04 -1.58205E+04  2.99133E+04  1.08692E+04  5.03928E+03  1.96690E+04
 -1.27935E+04  9.22474E+03 -1.07143E+04 -5.90401E+03  6.20437E+03 -1.16655E+04  1.82780E+04  4.73827E+03
  1.24333E+04  2.31866E+04 -5.68466E+03  2.54598E+04 -2.36051E+04  1.09825E+04 -2.92534E+04 -4.88151E+03
 -2.36187E+04 -1.85668E+04 -1.05495E+04 -2.21513E+04  3.22117E+03 -2.24471E+04  1.74608E+04 -2.18376E+04
  2.90438E+04 -1.27856E+04  3.40358E+04  2.87757E+03  2.46146E+04  2.27264E+04  4.86525E+03  3.85303E+04
 -1.99276E+04  3.44290E+04 -2.99664E+04  1.13799E+04 -2.17791E+04 -9.94023E+03 -4.49204E+03 -1.31399E+04
  1.81874E+03 -6.32765E+02 -6.14881E+03  6.58506E+03 -1.85096E+04  4.89147E+03 -1.85512E+04 -8.10210E+03
 -1.02065E+04 -1.87041E+04  5.40575E+03 -2.53285E+04  1.59048E+04 -1.77574E+04  2.00467E+04 -2.13589E+03
  1.25982E+04  1.49840E+04  1.58605E+02  2.08662E+04 -1.54096E+04  1.26097E+04 -2.16117E+04 -4.25990E+03
 -1.50174E+04 -1.95908E+04 -1.92097E+03 -2.43801E+04  1.14374E+04 -2.14470E+04  2.10572E+04 -9.74591E+03
  2.06436E+04 -3.79724E+02  1.39948E+04  5.72714E+03  7.53220E+03 -2.07012E+02  1.10565E+04 -2.49355E+03
  1.86849E+04  4.01468E+03  2.42100E+04  1.60314E+04  1.52790E+04  3.38535E+04 -2.98583E+03  4.01681E+04
 -2.25109E+04  3.19877E+04 -3.73482E+04  1.63631E+04 -3.76663E+04 -2.99886E+03 -3.14282E+04 -2.39901E+04
 -1.33354E+04 -3.30245E+04  1.17081E+04 -2.78989E+04  2.43890E+04 -1.49864E+04  2.19874E+04  5.67796E+03
  7.17137E+03  1.71047E+04 -1.07227E+04  1.46459E+04 -1.73192E+04  3.15089E+03 -1.28854E+04 -1.04407E+04
  7.68974E+02 -1.76417E+04  1.02761E+04 -1.31775E+04  1.21820E+04  6.18455E+01  2.57303E+03  7.94292E+03
 -7.71858E+03  3.08216E+03 -7.08203E+03 -7.14960E+03 -1.11321E+01 -1.57214E+04  1.08097E+04 -1.70321E+04
  2.01650E+04 -9.24261E+03  2.18394E+04  2.86362E+03  2.09365E+04  1.50573E+04  1.02999E+04  2.51120E+04
 -4.85887E+03  2.59900E+04 -1.66571E+04  1.67475E+04 -1.90657E+04  4.91336E+03 -1.11859E+04 -3.56199E+03
 -5.06937E+03 -6.03623E+03  3.44308E+02  6.81310E+02 -2.78570E+03  3.77516E+03 -7.67413E+03  3.11163E+03
 -1.05488E+04  5.42866E+02 -1.19434E+04 -1.02502E+04 -5.30545E+03 -1.69281E+04  5.43300E+03 -1.20444E+04
  9.69467E+03 -6.62548E+03  8.53975E+03  3.45797E+03  5.05423E+02  3.86689E+03 -6.41249E+03  4.22932E+02
 -6.31478E+03 -8.34638E+03 -8.94844E+02 -1.26292E+04  9.31227E+03 -1.37441E+04  1.59370E+04 -8.53328E+03
  2.07887E+04  2.20016E+03  1.41131E+04  1.14802E+04  3.06006E+03  1.71797E+04 -8.93099E+03  1.32531E+04
 -1.23697E+04  3.61598E+03 -6.18617E+03 -2.41054E+03  1.91835E+03 -4.57852E+03  7.13549E+03 -7.50710E+02
  6.44496E+03  5.40461E+03 -8.21025E+02  9.15909E+03 -7.76567E+03  1.00435E+04 -1.34525E+04  2.40882E+03
 -8.36846E+03 -6.98990E+03  5.19565E+02 -1.19993E+04  7.15112E+03 -5.17493E+03  6.71139E+03  3.40668E+03
  2.97301E+03  8.03396E+03 -7.15455E+03  8.58210E+03 -1.11898E+04  4.27441E+03 -1.29443E+04 -3.65813E+03
 -5.24546E+03 -1.24566E+04  3.24235E+03 -1.42552E+04  1.37571E+04 -9.47581E+03  1.38647E+04  1.28334E+03
  8.36015E+03  9.97914E+03 -1.57026E+03  1.32320E+04 -9.55349E+03  6.61616E+03 -1.04267E+04 -1.10154E+03
 -9.11557E+03 -1.05482E+04 -1.60438E+03 -9.34228E+03  5.20525E+03 -6.71644E+03  6.02938E+03 -3.47946E+03
  4.34659E+03  1.76129E+03 -1.18645E+03  1.51612E+03 -1.32470E+03 -2.04064E+03  1.90023E+03 -6.07174E+03
  9.50459E+03 -3.86938E+03  1.31236E+04  1.54802E+03  1.19288E+04  8.98602E+03  8.72146E+03  1.58087E+04
 -3.09566E+03  1.98833E+04 -1.70638E+04  1.42355E+04 -2.19850E+04  1.88999E+03 -1.63496E+04 -6.47311E+03
 -9.34640E+03 -1.35076E+04  5.64351E+02 -1.12797E+04  3.94249E+03 -5.86617E+03  4.41960E+03 -5.37029E+03
  2.00666E+03 -2.91655E+03  2.75245E+03 -3.25481E+03  4.66664E+03 -5.21019E+03  5.94455E+03 -1.28345E+03
  8.44592E+03  1.63647E+03  6.00961E+03  7.03272E+03 -7.55893E+02  7.69803E+03 -8.59127E+03  6.30350E+03
 -1.05571E+04 -6.49330E+01 -7.25620E+03 -8.34831E+03 -1.34053E+03 -1.19430E+04  6.49146E+03 -1.17465E+04
  1.26361E+04 -6.97477E+03  1.64221E+04  1.65795E+03  1.02719E+04  1.14406E+04  1.96495E+03  1.36669E+04
 -6.03319E+03  1.20284E+04 -8.46887E+03  2.04764E+03 -6.29937E+03 -1.77629E+03 -2.41345E+03 -1.15110E+03
 -6.70863E+02  7.02427E+02 -1.53328E+03  2.35155E+03 -5.81000E+03  1.51155E+03 -8.08914E+03 -1.52138E+03
 -5.44919E+03 -8.21230E+03 -6.21263E+02 -1.21142E+04  7.50646E+03 -1.03109E+04  1.15210E+04 -2.15889E+03
  1.02348E+04  6.07026E+03  5.12465E+03  1.12256E+04 -1.38078E+03  1.27799E+04 -7.64429E+03  6.68166E+03
 -1.11055E+04  1.14301E+03 -8.03073E+03 -6.54122E+03 -6.64034E+02 -8.70352E+03  4.43071E+03 -7.11544E+03
  4.82073E+03 -2.47499E+03  5.57812E+03  8.43609E+02  1.24780E+03  3.76038E+03  1.37550E+03  1.86565E+03
  4.04802E+03  1.53769E+03  3.29251E+03 -9.82274E+02  3.11052E+03  3.85858E+03  2.45630E+03  6.73472E+03
 -2.22638E+03  9.31223E+03 -7.95606E+03  9.85890E+03 -1.09405E+04  1.66961E+03 -1.07879E+04 -4.01425E+03
 -5.28059E+03 -1.16096E+04  1.93925E+03 -1.13299E+04  6.79396E+03 -7.61029E+03  1.03494E+04 -5.63860E+02
  7.34274E+03  3.05461E+03  2.24947E+03  6.95476E+03 -2.23276E+03  4.49155E+03 -3.85607E+03 -6.12678E+02
 -1.49087E+03 -4.87846E+03  2.14656E+03 -5.12915E+03  6.00661E+03 -2.73042E+03  3.38037E+03  6.45647E+02
  3.95051E+03  1.65848E+03  2.48821E+03  1.35413E+03 -3.39733E+02  2.26031E+03  1.14750E+03 -8.73223E+02
  1.45060E+03  5.83181E+02  4.21806E+03  2.68846E+03  3.11275E+03  6.52150E+03 -1.75803E+02  9.18171E+03
 -5.92024E+03  4.20412E+03 -7.98106E+03  1.85718E+03 -5.43778E+03 -2.48386E+03 -3.48854E+03 -3.54043E+03
  1.80162E+03 -4.41852E+03  4.01374E+03 -3.09412E+03  1.97501E+03  1.86690E+03 -1.04809E+03  3.68600E+03
 -3.65983E+03  1.65846E+03 -4.95382E+03 -2.96677E+03 -2.90032E+03 -5.33742E+03 -6.54092E+02 -7.13760E+03
  2.53484E+03 -4.86629E+03  3.89506E+03 -9.18147E+02  3.80951E+03  1.99419E+03  3.41264E+02  2.61575E+03
 -2.51129E+03 -4.18522E+02 -3.58418E+03 -4.53284E+03  1.66197E+03 -5.51628E+03  5.05258E+03 -3.73169E+03
  7.04241E+03  8.00606E+01  6.78621E+03  4.53682E+03  1.64469E+03  7.08885E+03 -2.38104E+03  6.29370E+03
 -5.03042E+03  2.16527E+03 -6.09181E+03 -6.00205E+02 -4.28231E+03 -5.11173E+03  8.39200E+02 -4.55319E+03
  4.56578E+03 -1.55602E+03  4.94550E+03  1.86267E+03 -4.33773E+02  4.38681E+03 -4.72415E+01  2.53809E+03
 -2.58086E+03  2.78089E+03 -1.71225E+03  9.88441E+02 -1.35555E+03  1.68182E+03 -1.28970E+03  1.29369E+03
 -1.81791E+03  2.54792E+03 -4.81428E+03  1.63066E+03 -6.73044E+03 -2.38486E+01 -7.76247E+03 -5.65799E+03
 -3.99233E+03 -9.74992E+03  2.48676E+03 -9.84107E+03  7.01131E+03 -7.86937E+03  1.11258E+04 -2.37349E+03
  9.90293E+03  2.94780E+03  7.21728E+03  6.45157E+03  2.43965E+02  6.52179E+03 -2.59929E+03  5.54127E+03
 -4.03377E+03  3.45473E+03 -3.33417E+03  2.22095E+02 -1.68152E+03 -8.71203E+02 -8.86745E+02 -8.18856E+02
 -1.16934E+03  5.84005E+02 -7.98500E+02 -4.71681E+02 -7.24530E+02 -7.67595E+02  1.06371E+03 -3.30367E+03
  3.33300E+03 -2.97375E+03  4.46177E+03  1.53948E+02  4.03073E+03  3.20456E+03  1.67980E+03  6.56168E+03
 -3.35844E+03  8.53698E+03 -7.57900E+03  4.10953E+03 -8.47777E+03 -1.05975E+03 -6.26434E+03 -3.88379E+03
 -2.87530E+03 -6.80938E+03  2.90591E+03 -6.29513E+03  4.26525E+03 -4.13249E+03  4.58537E+03  2.97009E+02
  2.73602E+03  2.47094E+03  1.05204E+03  4.17270E+03  2.15139E+02  3.01045E+02  1.17112E+03 -1.95856E+03
  2.00103E+03  3.71980E+02  3.06552E+03  1.23009E+03  3.19134E+03  3.08274E+03  8.05498E+02  2.85722E+03
 -3.15827E+03  3.70774E+03 -5.60623E+03  2.35707E+02 -3.81994E+03 -3.84672E+03 -4.16488E+02 -5.20368E+03
  3.80486E+03 -6.14884E+03  6.17580E+03 -1.75723E+03  5.09009E+03  1.67318E+03  3.48660E+03  5.03909E+03
  4.03489E+02  4.50600E+03 -3.02409E+03  2.24223E+03 -2.87097E+03  2.59091E+03 -2.59497E+03  1.32123E+03
 -1.13538E+03 -1.34269E+02 -1.25218E+03  1.38741E+03 -2.74732E+03  1.22098E+03 -2.98273E+03 -2.53902E+03
 -3.98058E+03 -2.62304E+03 -1.28233E+03 -4.25808E+03  1.54651E+03 -5.58055E+03  2.62392E+03 -1.45904E+03
  3.98557E+03  1.29687E+03  2.25754E+03  1.89016E+03 -8.04891E+02  4.88472E+03 -4.26992E+03  2.04263E+03
