 $NMID ID='MM_0lb_SNR200_16hz_g60_6.RAW', FMTDAT='(8E13.5)'
 TRAMP=1., VOLUME=1. $END
  3.09971E+05  8.75162E+02  3.38789E+05  2.49771E+05  8.48340E+04  3.38761E+05 -1.32455E+05  2.51526E+05
 -1.89714E+05  8.37897E+04 -1.10979E+05 -3.40952E+04  1.13428E+03 -5.05621E+04  5.33255E+04 -7.46285E+02
  3.45492E+04  5.31716E+04 -1.66447E+04  7.49272E+04 -6.03883E+04  6.27026E+04 -8.38352E+04  3.17587E+04
 -8.10878E+04 -1.07819E+04 -5.73786E+04 -5.07226E+04 -1.53105E+04 -7.03250E+04  2.82887E+04 -4.54536E+04
  4.07063E+04  3.49187E+03  1.58530E+04  4.72372E+04 -3.52712E+04  4.72671E+04 -6.62473E+04  7.97468E+02
 -5.35817E+04 -5.77458E+04 -6.43930E+03 -7.76465E+04  3.40030E+04 -5.41051E+04  4.70908E+04 -1.79015E+04
  4.24739E+04  1.09858E+04  3.15756E+04  2.60023E+04  1.52568E+04  2.91112E+04 -4.90837E+03  2.77459E+04
 -2.16536E+04  1.29637E+04 -1.76217E+04 -4.84398E+03  6.76756E+03 -8.26293E+03  2.36793E+04  1.10140E+04
  7.22503E+03  3.57740E+04 -3.16550E+04  3.62858E+04 -6.34719E+04  2.69780E+03 -5.74048E+04 -4.25328E+04
 -1.32950E+04 -6.36996E+04  3.95145E+04 -4.60012E+04  5.75681E+04 -2.66940E+03  3.43436E+04  3.25380E+04
 -6.49510E+03  3.60548E+04 -2.96765E+04  1.69081E+04 -2.91498E+04 -3.59530E+03 -1.83453E+04 -1.09162E+04
 -7.99884E+03 -1.27031E+04 -4.63951E+02 -1.90977E+04  6.81967E+03 -2.31904E+04  1.45898E+04 -1.44816E+04
  1.09218E+04  5.74027E+03 -8.98705E+03  1.23680E+04 -2.14220E+04 -4.83316E+03 -8.48320E+03 -3.42694E+04
  2.27465E+04 -4.27282E+04  4.76126E+04 -1.90031E+04  4.55406E+04  1.97964E+04  1.53547E+04  4.25272E+04
 -1.55851E+04  3.34683E+04 -2.51317E+04  2.50257E+03 -9.79329E+03 -2.80631E+04  2.04573E+04 -3.30150E+04
  4.02846E+04 -9.61347E+03  3.59539E+04  2.40530E+04  1.87705E+04  4.72951E+04 -7.96811E+03  5.00409E+04
 -3.14303E+04  3.31763E+04 -4.11270E+04  9.10281E+03 -4.32116E+04 -1.67210E+04 -2.34648E+04 -3.73527E+04
  6.84944E+03 -3.71582E+04  3.06493E+04 -1.48694E+04  2.91818E+04  1.03511E+04  3.51608E+03  1.98113E+04
 -1.38231E+04  8.03217E+03 -1.02933E+04 -6.73461E+03  4.61240E+03 -1.09226E+04  1.90386E+04  5.70375E+03
  1.19779E+04  2.13499E+04 -7.40856E+03  2.59824E+04 -2.19186E+04  1.17841E+04 -2.69100E+04 -4.74408E+03
 -2.05578E+04 -1.62876E+04 -7.41226E+03 -2.03954E+04  2.84809E+03 -2.01151E+04  1.70676E+04 -1.79336E+04
  2.64851E+04 -1.28306E+04  3.17122E+04  2.19675E+03  2.29838E+04  2.01643E+04  5.28926E+03  3.69093E+04
 -1.74261E+04  2.99385E+04 -2.80631E+04  1.02736E+04 -2.15723E+04 -1.13960E+04 -4.02692E+03 -1.35574E+04
  7.65864E+02 -2.16705E+03 -5.17678E+03  5.60340E+03 -1.63036E+04  4.40479E+03 -1.60646E+04 -6.83296E+03
 -1.04665E+04 -1.77831E+04  5.00994E+03 -2.36351E+04  1.46451E+04 -1.62383E+04  1.87692E+04 -1.46550E+03
  1.02003E+04  1.26966E+04 -8.35204E+02  1.88334E+04 -1.21052E+04  1.04445E+04 -1.88868E+04 -3.85464E+03
 -1.49087E+04 -1.74782E+04 -1.93957E+03 -2.32957E+04  1.06431E+04 -1.76405E+04  1.91715E+04 -8.01095E+03
  1.65360E+04  6.33455E+01  1.23628E+04  4.77283E+03  7.28964E+03  3.74048E+02  1.02106E+04 -2.03230E+03
  1.73493E+04  2.58166E+03  1.93627E+04  1.58550E+04  1.25450E+04  2.89539E+04 -4.45802E+03  3.43367E+04
 -1.87998E+04  2.77611E+04 -3.09638E+04  1.32959E+04 -3.25722E+04 -2.17495E+03 -2.65576E+04 -1.85126E+04
 -1.12668E+04 -2.64971E+04  9.93015E+03 -2.40456E+04  1.93214E+04 -1.24685E+04  1.76042E+04  5.46204E+03
  6.65060E+03  1.35099E+04 -8.48020E+03  1.13198E+04 -1.57127E+04  3.50905E+03 -1.26503E+04 -9.76147E+03
 -3.45804E+02 -1.54303E+04  7.93411E+03 -1.05546E+04  1.01110E+04 -7.86129E+02  3.30457E+03  5.59308E+03
 -6.45089E+03  8.63396E+02 -5.48330E+03 -5.72873E+03  5.31198E+02 -1.37949E+04  9.41745E+03 -1.34932E+04
  1.59566E+04 -7.00366E+03  1.61082E+04  3.44548E+03  1.47339E+04  1.29303E+04  7.82084E+03  1.85213E+04
 -3.53441E+03  2.07204E+04 -1.26984E+04  1.24695E+04 -1.45439E+04  2.03133E+03 -1.07876E+04 -3.22153E+03
 -4.23466E+03 -3.24499E+03 -6.68616E+02  6.23740E+02 -2.32462E+03  2.35175E+03 -5.14161E+03  4.78250E+03
 -9.16450E+03 -2.69433E+02 -1.02334E+04 -8.31041E+03 -3.48445E+03 -1.33456E+04  4.58818E+03 -1.05268E+04
  8.74200E+03 -5.26570E+03  6.93778E+03  1.72245E+03 -8.19240E+02  4.93706E+03 -4.76911E+03 -8.26064E+02
 -3.99406E+03 -5.77458E+03 -5.57887E+02 -1.12868E+04  4.39860E+03 -1.03953E+04  1.34220E+04 -6.32243E+03
  1.59303E+04  9.65224E+02  1.13086E+04  9.01147E+03  2.06191E+03  1.20575E+04 -6.46103E+03  1.08360E+04
 -8.05590E+03  3.42676E+03 -4.81670E+03 -1.43834E+03  2.19583E+03 -2.30389E+03  4.83718E+03 -9.60716E+02
  4.60899E+03  5.40920E+03  9.65874E+02  8.06917E+03 -5.35127E+03  6.49512E+03 -1.05349E+04  3.25442E+03
 -7.94628E+03 -5.66352E+03  4.83580E+02 -9.23509E+03  5.40951E+03 -3.37224E+03  5.68924E+03  1.76566E+03
  1.28920E+03  5.07949E+03 -4.47707E+03  7.14080E+03 -7.63055E+03  3.92965E+03 -7.01294E+03 -1.70155E+03
 -4.08912E+03 -9.09121E+03  1.31036E+03 -1.00223E+04  9.04957E+03 -6.17053E+03  8.92351E+03  1.56521E+03
  6.05751E+03  7.93773E+03 -2.30030E+02  9.04122E+03 -5.46319E+03  4.76253E+03 -8.13183E+03 -1.35464E+03
 -6.35186E+03 -6.37521E+03 -1.54798E+03 -7.51566E+03  2.80757E+03 -6.00182E+03  2.25051E+03 -2.56270E+03
  3.72054E+03  7.06451E+02 -9.07736E+02  1.46403E+03 -1.07073E+03 -2.00947E+03 -6.76351E+02 -4.14281E+03
  5.63659E+03 -2.46142E+03  8.61580E+03  5.90636E+02  8.25757E+03  4.59347E+03  7.79359E+03  1.18971E+04
 -2.74698E+03  1.33794E+04 -1.13152E+04  9.50518E+03 -1.44300E+04  1.90131E+03 -1.12997E+04 -5.08666E+03
 -6.04107E+03 -9.33046E+03 -5.75720E+02 -7.01232E+03  2.22720E+03 -4.11797E+03  2.82523E+03 -3.96312E+03
  1.48778E+03 -3.06737E+03  2.90303E+03 -3.25601E+03  4.43805E+03 -2.66556E+03  4.49210E+03 -2.53956E+02
  4.66993E+03  1.06206E+03  1.96331E+03  5.30196E+03 -8.25746E+02  4.33105E+03 -6.52565E+03  5.11973E+03
 -7.96764E+03 -1.36905E+03 -3.72574E+03 -4.99217E+03  3.12297E+02 -7.00319E+03  4.32317E+03 -7.56648E+03
  7.58721E+03 -3.54890E+03  9.88325E+03 -4.13295E+02  6.72105E+03  6.37466E+03  8.62020E+02  9.64105E+03
 -3.74210E+03  6.91580E+03 -4.60390E+03  2.06400E+03 -3.40958E+03 -2.32936E+03 -1.59194E+03 -2.00063E+03
 -1.70768E+03 -5.15018E+02 -1.86158E+03  2.31279E+03 -3.61840E+03  1.94965E+03 -5.07755E+03 -5.84251E+02
 -2.19700E+03 -5.09918E+03 -2.84760E+02 -5.90323E+03  3.31159E+03 -6.96205E+03  5.24859E+03 -1.77954E+03
  6.13585E+03  3.15970E+03  2.42139E+03  6.19135E+03 -1.55794E+03  6.27176E+03 -5.54255E+03  3.57965E+03
 -7.08670E+03  2.57017E+02 -4.34962E+03 -4.13060E+03 -1.01056E+03 -5.86345E+03  2.31077E+03 -3.30603E+03
  3.48922E+03 -1.72132E+03  3.22570E+03  1.41989E+03  8.79930E+02  2.96316E+03  5.04490E+01  6.86110E+02
  2.34652E+03  1.22345E+03  1.80335E+03  1.22716E+03  1.47780E+03  2.57942E+03  2.15602E+03  2.38375E+03
 -1.50321E+03  4.42990E+03 -3.93844E+03  6.12605E+03 -6.45240E+03  2.09556E+03 -6.11974E+03 -1.19422E+03
 -2.98992E+03 -5.02330E+03  1.57369E+03 -6.13452E+03  3.60098E+03 -3.45536E+03  4.80818E+03 -1.77869E+03
  3.28480E+03  2.59354E+03  3.58874E+02  3.17055E+03 -1.80373E+03  1.69635E+03 -1.63052E+03 -8.73763E+02
 -1.23619E+03 -1.48626E+03  2.82179E+03 -3.00855E+03  2.74918E+03 -1.34739E+03  1.92883E+03  1.23035E+03
  9.53995E+02  6.78429E+02  1.55446E+03 -4.38106E+02 -5.09655E+02  8.94126E+02  1.64244E+03  6.63132E+02
  7.17730E+02 -9.09553E+00  3.15211E+03  1.96355E+02 -2.99546E+02  3.72664E+03  1.24020E+03  4.17233E+03
 -3.10145E+03  2.02194E+03 -3.38646E+03  8.48296E+02 -3.42453E+03  2.76386E+01 -2.52452E+01 -3.69334E+02
  9.16967E+02 -2.30774E+03  1.56863E+03 -2.04876E+03  4.77866E+02  1.92946E+03 -5.81766E+02  2.55926E+03
 -1.65228E+03  8.43244E+02 -2.62967E+03 -2.05195E+03 -1.98152E+03 -4.15065E+03  6.38438E+02 -3.12583E+03
  2.01558E+03 -1.26749E+03  1.61336E+03  1.30680E+03  2.05593E+03  4.04608E+02  2.64801E+02  3.24543E+03
 -1.24967E+03  5.77955E+02 -1.82751E+03 -7.75775E+02  1.58775E+03 -2.43818E+03  1.81993E+03 -1.49568E+03
  2.25241E+03  2.69826E+02  4.02839E+03  9.20645E+02  2.44175E+03  1.62994E+03 -7.65042E+02  2.70380E+03
 -2.56209E+03 -2.93235E+01 -2.03173E+03 -3.37264E+02 -1.30756E+03 -1.74444E+03  8.43399E+02 -8.91327E+02
  3.65002E+03  4.49544E+02  1.73176E+02  7.01411E+02  5.87406E+02  2.07050E+03  4.95246E+02  1.96089E+03
 -1.00106E+03  8.39745E+02  2.69867E+02 -1.56798E+02 -7.71429E+02  1.88647E+03 -1.60683E+03  2.32560E+03
 -1.95440E+03  1.52958E+03 -2.71855E+03  1.54019E+03 -2.39863E+03  1.41742E+02 -4.24790E+03 -1.44864E+03
 -2.66761E+03 -3.12911E+03  1.45033E+03 -4.18312E+03  2.50802E+03 -3.96866E+03  4.01313E+03 -1.98742E+03
  4.73079E+03 -4.40388E+02  2.80075E+03  2.27574E+03 -1.15160E+03  2.80965E+03 -1.27791E+03  1.84368E+03
 -1.60055E+03  1.13987E+03 -1.07862E+03 -5.01188E+01 -6.07217E+02 -3.67871E+01 -1.55425E+03 -4.96471E+02
 -5.28951E+02  2.97164E+02 -3.40594E+02 -7.68829E+01 -9.95280E+02 -1.83511E+03 -1.35067E+02 -1.44297E+03
  1.64362E+03 -1.09049E+03  6.66898E+02  2.04074E+02  2.29312E+03  1.41626E+03 -8.87305E+02  3.48781E+03
 -1.50081E+03  3.82315E+03 -2.87030E+03  1.23624E+03 -2.60270E+03 -1.05034E+03 -1.55386E+03 -2.36951E+03
 -1.02597E+03 -2.04737E+03  2.54823E+02 -1.36230E+03  1.84238E+03 -9.16168E+02  1.28408E+03  4.47147E+02
  1.18689E+03  1.38545E+03 -1.35340E+02  8.37590E+02 -4.84165E+02 -8.11844E+02  9.44601E+02 -2.13676E+02
  2.60703E+03 -3.76690E+02  8.84810E+02  5.69827E+01 -5.67635E+02  1.94915E+03  4.43495E+01  7.02986E+02
 -1.01889E+03  5.61996E+02  4.91584E+02  5.78372E+02 -9.60496E+02 -4.21265E+02  7.06260E+01 -6.97608E+02
  7.15861E+02 -1.65745E+03  1.68126E+03 -5.23580E+02  1.36307E+03 -6.94962E+02  7.09880E+02  1.07023E+03
  4.43073E+02  9.12002E+02 -1.31448E+03 -1.03085E+02 -6.77032E+02  8.59990E+02 -9.13050E+02  6.79567E+01
 -9.04520E+02 -1.11648E+03 -7.46538E+02 -3.16717E+02 -4.01223E+02  3.78948E+02 -7.52457E+02 -7.65882E+02
 -1.99892E+03 -1.18800E+01 -6.77448E+02 -1.25824E+03  2.49759E+03 -1.45567E+03  7.12664E+02 -1.07564E+03
  9.82624E+02 -4.37203E+02 -2.96748E+02  8.13481E+01 -3.03572E+02  2.17221E+03 -1.45674E+03  6.58774E+02
