 $NMID ID='MM_0lb_SNR200_16hz_g45_100.RAW', FMTDAT='(8E13.5)'
 TRAMP=1., VOLUME=1. $END
  3.09865E+05 -2.43547E+02  3.36877E+05  2.49413E+05  8.39365E+04  3.38036E+05 -1.32548E+05  2.50888E+05
 -1.89924E+05  8.16746E+04 -1.12058E+05 -3.27707E+04  7.12579E+02 -4.97781E+04  5.42297E+04 -9.77081E+01
  3.54058E+04  5.31584E+04 -1.49945E+04  7.54129E+04 -6.18685E+04  6.38257E+04 -8.28260E+04  3.22118E+04
 -7.97681E+04 -1.08898E+04 -5.85549E+04 -4.96418E+04 -1.44176E+04 -6.84063E+04  2.61935E+04 -4.47270E+04
  3.95359E+04  5.54612E+03  1.59972E+04  4.55304E+04 -3.45038E+04  4.79354E+04 -6.61957E+04 -2.37616E+02
 -5.34742E+04 -5.74621E+04 -6.77571E+03 -7.58274E+04  3.44586E+04 -5.41245E+04  4.77027E+04 -1.58282E+04
  4.23532E+04  1.13018E+04  3.13615E+04  2.46508E+04  1.52487E+04  2.90940E+04 -4.37943E+03  2.76360E+04
 -2.13629E+04  1.23140E+04 -1.96121E+04 -5.11080E+03  5.13096E+03 -6.21797E+03  2.21110E+04  1.07125E+04
  7.94681E+03  3.53433E+04 -3.08441E+04  3.55563E+04 -6.17908E+04  2.47934E+03 -5.70575E+04 -4.19770E+04
 -1.30790E+04 -6.12685E+04  3.86161E+04 -4.35568E+04  5.60429E+04 -2.19419E+03  3.19777E+04  3.20681E+04
 -6.32113E+03  3.41240E+04 -2.79339E+04  1.46898E+04 -2.91054E+04 -4.63117E+03 -1.64109E+04 -9.76192E+03
 -7.92253E+03 -1.24812E+04 -6.51554E+02 -1.76495E+04  7.38875E+03 -2.31708E+04  1.57229E+04 -1.36242E+04
  1.20647E+04  5.43576E+03 -6.26474E+03  1.18861E+04 -1.95291E+04 -2.80091E+03 -8.79919E+03 -3.09345E+04
  2.13205E+04 -4.09818E+04  4.63330E+04 -1.98561E+04  4.38071E+04  1.86988E+04  1.52125E+04  4.37177E+04
 -1.54255E+04  3.21954E+04 -2.38946E+04  9.79902E+02 -8.25776E+03 -2.60176E+04  2.16591E+04 -3.33467E+04
  3.90005E+04 -8.14011E+03  3.46744E+04  2.33020E+04  1.76083E+04  4.36701E+04 -8.02395E+03  4.68904E+04
 -2.96152E+04  3.16041E+04 -3.91487E+04  8.77366E+03 -3.98158E+04 -1.63164E+04 -2.26500E+04 -3.63941E+04
  6.04228E+03 -3.69099E+04  3.11620E+04 -1.26479E+04  2.83530E+04  1.08498E+04  3.96878E+03  1.80809E+04
 -1.32659E+04  8.55082E+03 -9.17693E+03 -7.36570E+03  7.44932E+03 -1.01821E+04  1.81611E+04  7.33641E+03
  1.27875E+04  2.21929E+04 -6.63017E+03  2.36903E+04 -2.25604E+04  1.04211E+04 -2.55039E+04 -5.53956E+03
 -1.88338E+04 -1.74104E+04 -6.52592E+03 -1.84056E+04  4.86046E+03 -1.57975E+04  1.36114E+04 -1.49183E+04
  2.35745E+04 -1.32205E+04  2.98864E+04  1.95745E+03  2.25622E+04  1.76320E+04  4.24233E+03  3.47642E+04
 -1.77320E+04  2.85332E+04 -2.72436E+04  9.71561E+03 -2.09964E+04 -1.01169E+04 -5.40538E+03 -1.32166E+04
  2.28490E+03 -3.00981E+03 -2.29221E+03  6.06422E+03 -1.41341E+04  4.88054E+03 -1.53915E+04 -5.53336E+03
 -1.03210E+04 -1.71102E+04  4.98147E+03 -2.00938E+04  1.34134E+04 -1.59230E+04  1.63374E+04 -1.58777E+03
  9.63912E+03  1.18216E+04 -1.79930E+03  1.70254E+04 -1.17479E+04  1.02037E+04 -1.71476E+04 -4.11912E+03
 -1.16677E+04 -1.49126E+04 -1.42667E+03 -2.01526E+04  9.36436E+03 -1.65374E+04  1.76900E+04 -7.62576E+03
  1.61051E+04  1.81426E+02  1.19579E+04  4.47233E+03  5.50968E+03  1.38643E+03  8.55131E+03 -1.50318E+03
  1.60942E+04  2.27983E+03  1.76952E+04  1.41616E+04  1.15274E+04  2.74451E+04 -3.47505E+03  3.05652E+04
 -1.85668E+04  2.30415E+04 -2.77680E+04  1.24118E+04 -2.91400E+04 -3.18204E+03 -2.35577E+04 -1.64991E+04
 -1.20589E+04 -2.44972E+04  8.88519E+03 -2.17896E+04  1.82158E+04 -1.28989E+04  1.81832E+04  5.05515E+03
  8.05892E+03  1.23049E+04 -7.33451E+03  1.14769E+04 -1.41138E+04  1.72333E+03 -1.26542E+04 -9.00378E+03
  2.86992E+02 -1.33459E+04  6.87343E+03 -1.13174E+04  9.38050E+03 -2.31951E+03  2.22126E+03  5.57378E+03
 -7.07358E+03  8.01537E+02 -5.27552E+03 -5.06029E+03  5.81516E+02 -1.18848E+04  8.93518E+03 -1.14160E+04
  1.45119E+04 -5.27855E+03  1.47119E+04  2.59756E+03  1.25697E+04  1.07901E+04  5.97065E+03  1.73050E+04
 -2.26840E+03  1.83968E+04 -1.08160E+04  1.21381E+04 -1.24062E+04  3.72168E+03 -1.04156E+04 -1.59996E+03
 -4.49026E+03 -4.53255E+03  6.91872E+02  2.16411E+03 -2.29923E+03  7.56989E+02 -5.11170E+03  3.96885E+03
 -9.99265E+03 -1.37334E+03 -1.07917E+04 -8.18187E+03 -4.07267E+03 -1.15485E+04  3.54027E+03 -1.07872E+04
  8.26701E+03 -4.35291E+03  5.11507E+03  3.30562E+03  5.14538E+02  4.40157E+03 -5.42012E+03  7.39665E+02
 -3.93321E+03 -5.38712E+03 -2.11987E+03 -9.04597E+03  4.85250E+03 -1.07618E+04  1.16683E+04 -4.85678E+03
  1.42661E+04  7.08390E+02  9.88589E+03  8.17874E+03  1.46069E+03  1.12164E+04 -6.05887E+03  9.20787E+03
 -8.42725E+03  1.81436E+03 -4.77077E+03 -1.79020E+03  1.63546E+03 -2.84996E+03  5.63451E+03 -1.42871E+03
  4.65806E+03  2.87209E+03  1.66487E+03  7.70565E+03 -5.39152E+03  5.91166E+03 -9.14655E+03  1.55834E+03
 -5.15160E+03 -3.71701E+03  2.39016E+02 -7.09248E+03  4.31596E+03 -3.10476E+03  4.98943E+03  1.14311E+03
  1.69549E+02  3.95187E+03 -6.21663E+03  7.01961E+03 -6.87656E+03  2.97330E+03 -5.59394E+03 -2.11624E+03
 -3.79931E+03 -8.61719E+03  1.15492E+03 -8.65138E+03  6.84329E+03 -6.22773E+03  7.40904E+03  1.20103E+03
  5.66693E+03  5.43772E+03 -2.21946E+02  9.04596E+03 -5.23780E+03  5.08728E+03 -7.01455E+03 -1.70143E+03
 -6.03185E+03 -6.01534E+03 -1.21804E+03 -6.42593E+03  3.31138E+03 -6.08437E+03  4.00496E+03 -4.16197E+03
  3.41379E+03  1.07818E+03 -3.08547E+02  1.82898E+03 -5.49897E+02 -3.55123E+02  7.45375E+02 -2.68531E+03
  5.03172E+03 -1.75097E+03  6.62878E+03  8.19122E+02  7.17832E+03  4.22089E+03  6.90718E+03  1.01116E+04
 -2.46138E+03  1.08198E+04 -8.96235E+03  8.36022E+03 -1.22120E+04  6.91036E+02 -1.03850E+04 -3.26492E+03
 -5.28397E+03 -9.01975E+03 -1.20036E+03 -6.79155E+03  2.16539E+03 -2.64082E+03  1.55524E+03 -2.11183E+03
  9.95626E+02 -1.96922E+03  2.96290E+03 -1.94310E+03  3.40630E+03 -2.39725E+03  4.55631E+03  1.03187E+03
  5.39893E+03  1.42029E+03  2.04045E+03  4.80959E+03 -1.91626E+03  4.41832E+03 -5.51185E+03  3.79299E+03
 -7.61830E+03 -9.72053E+02 -3.63600E+03 -3.34239E+03 -7.81534E+02 -5.78910E+03  4.29084E+03 -6.91110E+03
  6.75548E+03 -4.00109E+03  9.56033E+03  6.72970E+02  7.44204E+03  5.70251E+03  1.30443E+03  8.39978E+03
 -3.51008E+03  6.39953E+03 -4.50574E+03  3.86710E+03 -3.12595E+03 -7.04804E+02 -1.29120E+03 -7.11154E+02
 -3.12891E+02 -4.52936E+02 -2.11362E+03  1.60722E+03 -3.55644E+03  6.96043E+01 -4.91618E+03 -1.25627E+02
 -2.30596E+03 -5.48747E+03  1.02703E+03 -6.62395E+03  3.76927E+03 -7.12820E+03  5.64250E+03 -2.68183E+03
  5.77945E+03  4.09101E+03  2.35063E+03  5.57651E+03  3.79376E+02  6.66652E+03 -3.90279E+03  3.17984E+03
 -5.64628E+03  5.96915E+02 -3.52396E+03 -3.61679E+03 -5.24172E+02 -4.90506E+03  1.56065E+03 -3.49115E+03
  2.92146E+03 -1.45582E+03  1.96858E+03  1.31256E+03  1.75538E+03  2.64225E+03  1.56225E+03  1.55442E+03
  1.88442E+03 -1.96999E+02  2.05543E+03  9.38513E+02  1.84362E+03  3.53475E+03  1.14866E+03  2.91288E+03
 -8.07750E+02  3.49200E+03 -3.63255E+03  5.04703E+03 -3.60698E+03  9.06724E+02 -5.54758E+03 -1.84950E+03
 -3.26059E+03 -4.50349E+03  9.87063E+02 -6.46936E+03  3.45592E+03 -2.93516E+03  4.30603E+03 -1.11452E+03
  3.08143E+03  1.68237E+03  8.23751E+02  4.00529E+03 -2.65328E+03  1.54664E+03 -2.97165E+03 -5.35823E+02
 -1.23588E+03 -1.47192E+03  1.53961E+03 -8.60177E+02  3.16182E+03 -2.55385E+03  2.38109E+03  1.63069E+02
  1.50268E+03  1.09824E+03  7.46784E+02  9.48511E+02 -4.12416E+02  5.36387E+02  1.80051E+03 -7.56192E+02
  2.15429E+02 -1.37604E+03  2.25761E+03  1.07428E+03  2.08492E+03  2.56456E+03 -1.05291E+02  3.47024E+03
 -1.81080E+03  1.30015E+03 -2.34232E+03  8.26539E+02 -2.89658E+03 -1.67459E+03 -1.30770E+02 -2.56643E+03
 -4.66164E+02 -3.22118E+03  1.42685E+03 -3.83934E+02  2.17738E+03  2.48277E+03 -1.34405E+03  2.02525E+03
 -2.89686E+03  1.66959E+03 -2.08972E+03 -1.46206E+03 -1.71227E+03 -2.92581E+03  4.00310E+02 -1.22583E+03
  1.08646E+03 -1.03709E+03  1.50033E+03 -2.01321E+02  2.39407E+03  1.50843E+02  1.34115E+03  2.00802E+03
 -5.59840E+02 -1.06199E+03 -1.20566E+03 -8.82937E+01  3.29353E+02 -1.88782E+03  1.95270E+03 -1.87784E+03
  1.51631E+03  7.32245E+02  3.17189E+03  9.98679E+02  6.20261E+02  3.94174E+03 -8.02326E+02  2.06550E+03
 -1.63280E+03  6.96685E+02 -2.44701E+03  1.50814E+02 -1.18162E+03 -3.11483E+03  1.22124E+03 -1.28020E+03
  2.28408E+03 -2.10105E+02  1.37809E+03 -3.35234E+01  7.23800E+02  1.44351E+03  1.31672E+03  6.98731E+02
 -6.32899E+02  2.61887E+03 -1.40278E+03  2.08562E+03  3.82806E+02 -5.51342E+02 -2.11712E+02  1.47739E+03
 -1.06996E+03  9.62592E+02 -3.46405E+03  8.96176E+02 -3.43291E+03  5.57883E+02 -2.57422E+03 -2.54526E+03
 -8.91564E+02 -3.58925E+03  9.66674E+02 -4.30901E+03  1.45431E+03 -2.64395E+03  4.59119E+03 -1.44186E+03
  4.07299E+03 -1.17410E+02  1.95769E+03  2.91988E+03 -1.28971E+03  2.04661E+03 -2.23683E+02  1.55624E+03
 -2.31235E+03  2.30578E+02 -4.28230E+02 -7.66938E+02  3.67290E+02 -1.26213E+02 -1.24516E+03  3.12574E+02
 -2.42072E+03  1.24623E+03 -5.60799E+02  3.76005E+00  4.44720E+02 -5.01237E+02 -1.02314E+03 -1.12593E+03
  1.26287E+03  7.81450E+02  1.33129E+03  1.07677E-01  1.53748E+03  2.86041E+03 -6.41445E+02  2.27859E+03
 -1.33986E+03  3.44075E+03 -2.07814E+03  1.47023E+03 -3.78739E+03 -6.49514E+02 -1.65006E+03 -2.00581E+03
 -2.03843E+03 -1.37226E+03 -2.49401E+02 -2.21600E+03  1.65341E+03 -1.33663E+03  1.68440E+03  6.34223E+02
  4.14714E+02  2.26087E+02  7.90024E+02 -1.04133E+02 -5.22474E+02  7.17297E+02 -4.52044E+02 -1.02315E+03
  1.44371E+03  6.09452E+02  4.00776E+02  1.94764E+03  5.25381E+02  1.72488E+03  8.56023E+01  2.34143E+02
 -1.25605E+03  9.92338E+02 -1.64129E+03  1.29695E+03 -4.28163E+02 -3.17712E+02  1.79019E+02 -1.64803E+03
  8.58090E+02 -2.03870E+03  2.01711E+03 -6.05268E+02  2.83318E+03  6.27605E+02  3.05265E+02  1.24376E+03
  1.43887E+03  1.64263E+03  2.53261E+02  1.87037E+03 -6.30771E+02  6.11745E+02 -8.53072E+02  3.61021E+02
 -4.71279E+02 -8.53474E+00  2.18434E+02  2.00217E+02 -5.87643E+02  9.29540E+02 -7.74408E+02 -4.02932E+02
 -2.06218E+03  2.22726E+02 -9.79087E+02 -2.15631E+03  4.34002E+02 -3.32645E+03  9.27811E+02 -1.76693E+03
  1.90066E+03  6.14983E+02 -4.12868E+02  4.78324E+02 -1.56897E+02  6.41666E+02 -9.91445E+02 -5.01858E+02
