 $NMID ID='MM_0lb_SNR200_15hz_g50_80.RAW', FMTDAT='(8E13.5)'
 TRAMP=1., VOLUME=1. $END
  3.10594E+05  1.16388E+03  3.38085E+05  2.49055E+05  8.36600E+04  3.38543E+05 -1.32802E+05  2.51511E+05
 -1.89367E+05  8.37970E+04 -1.11395E+05 -3.19897E+04  1.02852E+03 -5.12220E+04  5.26383E+04 -5.20145E+02
  3.51714E+04  5.20252E+04 -1.68699E+04  7.40521E+04 -6.12400E+04  6.23349E+04 -8.36372E+04  3.19692E+04
 -8.12616E+04 -1.14889E+04 -5.74513E+04 -5.04876E+04 -1.44630E+04 -6.83459E+04  2.66722E+04 -4.68665E+04
  3.99434E+04  3.49656E+03  1.49484E+04  4.65302E+04 -3.33932E+04  4.62550E+04 -6.58080E+04 -8.59871E+02
 -5.28296E+04 -5.67764E+04 -5.21712E+03 -7.72464E+04  3.30120E+04 -5.44039E+04  4.79911E+04 -1.78607E+04
  4.30150E+04  1.08015E+04  3.02467E+04  2.46618E+04  1.66662E+04  2.91471E+04 -5.10658E+03  2.68079E+04
 -2.28982E+04  1.28958E+04 -1.83796E+04 -3.76357E+03  4.81106E+03 -8.25009E+03  2.28397E+04  1.15166E+04
  6.54107E+03  3.60950E+04 -3.15603E+04  3.56725E+04 -6.45386E+04  1.89545E+03 -5.65888E+04 -4.22688E+04
 -1.25057E+04 -6.28441E+04  4.00261E+04 -4.47292E+04  5.86492E+04 -2.97375E+03  3.39674E+04  3.21429E+04
 -6.01965E+03  3.55558E+04 -3.02901E+04  1.57613E+04 -3.12018E+04 -4.15253E+03 -1.66636E+04 -1.08093E+04
 -8.52898E+03 -1.28337E+04 -1.08429E+03 -1.69129E+04  8.58352E+03 -2.18341E+04  1.65077E+04 -1.38650E+04
  1.20848E+04  4.90659E+03 -7.01986E+03  1.26343E+04 -2.17055E+04 -3.41872E+03 -9.14122E+03 -3.24587E+04
  2.15817E+04 -4.16571E+04  4.73532E+04 -1.85924E+04  4.55573E+04  1.90871E+04  1.52942E+04  4.47297E+04
 -1.54707E+04  3.41710E+04 -2.48712E+04  1.56546E+03 -9.71048E+03 -2.80696E+04  2.07139E+04 -3.34795E+04
  4.01527E+04 -7.56418E+03  3.48632E+04  2.37264E+04  1.78225E+04  4.59253E+04 -7.54976E+03  5.02883E+04
 -2.96127E+04  3.26010E+04 -4.16529E+04  9.11946E+03 -4.16596E+04 -1.58601E+04 -2.33349E+04 -3.80187E+04
  6.71150E+03 -3.81219E+04  3.10215E+04 -1.35516E+04  2.89251E+04  1.13484E+04  3.13402E+03  1.80664E+04
 -1.42129E+04  7.86552E+03 -9.52212E+03 -7.46198E+03  5.20724E+03 -1.02055E+04  1.71931E+04  6.39927E+03
  1.30357E+04  2.16417E+04 -6.53726E+03  2.51516E+04 -2.25244E+04  9.86926E+03 -2.76184E+04 -5.56148E+03
 -1.91295E+04 -1.71024E+04 -7.16135E+03 -1.98861E+04  3.50765E+03 -1.86334E+04  1.55448E+04 -1.76050E+04
  2.42260E+04 -1.28426E+04  3.25922E+04  8.56601E+02  2.28942E+04  1.91238E+04  5.32641E+03  3.61367E+04
 -1.74211E+04  2.93997E+04 -2.74742E+04  1.01851E+04 -2.09139E+04 -9.53060E+03 -4.10918E+03 -1.44552E+04
  4.38961E+02 -2.47231E+03 -3.13814E+03  7.02459E+03 -1.57811E+04  4.93991E+03 -1.61280E+04 -6.37728E+03
 -1.06860E+04 -1.81587E+04  4.14612E+03 -2.24953E+04  1.62473E+04 -1.58479E+04  1.72031E+04 -9.41395E+02
  1.17475E+04  1.21409E+04 -1.14509E+03  1.96678E+04 -1.23174E+04  1.09031E+04 -1.79710E+04 -3.48169E+03
 -1.40296E+04 -1.67191E+04 -1.59915E+03 -2.20406E+04  9.61212E+03 -1.71523E+04  1.85074E+04 -9.08960E+03
  1.73458E+04  3.08759E+02  1.23568E+04  3.55653E+03  6.36665E+03  4.82725E+02  8.61601E+03  1.55616E+02
  1.67650E+04  2.67913E+03  1.74095E+04  1.44731E+04  1.14318E+04  3.04071E+04 -2.15742E+03  3.26981E+04
 -1.85436E+04  2.55136E+04 -3.04357E+04  1.23583E+04 -3.17308E+04 -3.69974E+03 -2.50850E+04 -1.81108E+04
 -1.06850E+04 -2.58505E+04  8.89373E+03 -2.36830E+04  2.06830E+04 -1.22963E+04  1.82304E+04  5.31996E+03
  8.41192E+03  1.35073E+04 -9.53273E+03  1.14486E+04 -1.61307E+04  2.89930E+03 -1.15681E+04 -8.88520E+03
  1.34329E+02 -1.53188E+04  8.37665E+03 -1.15537E+04  9.37487E+03 -1.48307E+03  1.95025E+03  7.26052E+03
 -6.49067E+03  1.62365E+03 -5.64071E+03 -5.54109E+03  6.29214E+02 -1.21923E+04  8.84787E+03 -1.27898E+04
  1.59043E+04 -6.78698E+03  1.61264E+04  2.76884E+03  1.41888E+04  1.16688E+04  6.84200E+03  1.93176E+04
 -2.90806E+03  2.10246E+04 -1.39345E+04  1.23256E+04 -1.48026E+04  4.40199E+03 -1.02213E+04 -2.97526E+03
 -6.36731E+03 -4.57020E+03 -7.66409E+02  4.00514E+02 -1.64728E+03  2.44507E+03 -4.25269E+03  3.36606E+03
 -9.84569E+03 -8.14108E+01 -1.05918E+04 -9.06421E+03 -4.83924E+03 -1.35467E+04  4.39672E+03 -1.05510E+04
  8.45372E+03 -4.45480E+03  6.51151E+03  3.55521E+03  2.18417E+02  3.82437E+03 -6.56628E+03  7.21432E+02
 -5.59977E+03 -7.31954E+03 -3.37858E+02 -1.03796E+04  4.95838E+03 -1.03768E+04  1.27894E+04 -4.41866E+03
  1.51118E+04  2.99615E+03  1.24430E+04  9.10895E+03  2.19847E+03  1.18847E+04 -7.41050E+03  1.19973E+04
 -8.57072E+03  3.78909E+03 -4.91654E+03 -2.17517E+03  1.38699E+03 -3.93864E+03  5.20048E+03 -1.67089E+03
  4.54715E+03  4.98979E+03  2.52992E+03  8.86543E+03 -6.86945E+03  7.44566E+03 -9.01021E+03  7.88872E+02
 -6.48180E+03 -4.63994E+03  1.01630E+03 -8.98735E+03  5.43230E+03 -4.82504E+03  4.80874E+03  5.55763E+02
  5.31574E+02  5.67619E+03 -4.58916E+03  6.09828E+03 -6.79910E+03  2.94036E+03 -8.64323E+03 -3.00832E+03
 -4.47307E+03 -8.54528E+03  1.63803E+03 -8.74665E+03  8.73398E+03 -5.36932E+03  9.51406E+03  1.54159E+03
  5.82286E+03  7.75888E+03 -9.66271E+02  9.33325E+03 -6.64007E+03  5.71590E+03 -8.37080E+03 -8.43974E+02
 -6.35236E+03 -6.56914E+03 -1.46525E+03 -5.95368E+03  3.39193E+03 -6.91457E+03  4.19098E+03 -2.45695E+03
  3.63461E+03  1.33007E+03  6.58308E+02  1.13832E+03 -5.44668E+02 -8.84566E+02  1.31066E+03 -3.41189E+03
  6.88604E+03 -2.73439E+03  7.78938E+03  3.68262E+02  8.75280E+03  4.34522E+03  5.88384E+03  1.08063E+04
 -2.38192E+03  1.32760E+04 -1.16397E+04  9.80693E+03 -1.40042E+04  3.35649E+03 -1.27287E+04 -4.09242E+03
 -7.27881E+03 -9.02520E+03 -9.52260E+02 -7.76696E+03  4.14493E+03 -5.18929E+03  2.50236E+03 -3.51423E+03
  1.33135E+03 -2.03472E+03  2.16631E+03 -3.01506E+03  3.95138E+03 -1.99191E+03  5.60932E+03  1.25412E+03
  7.22556E+03  1.80870E+03  1.86185E+03  5.13109E+03 -2.07459E+03  5.30754E+03 -5.99902E+03  3.29776E+03
 -7.54943E+03 -1.08909E+03 -5.21398E+03 -5.51739E+03 -1.38591E+03 -7.64554E+03  4.22224E+03 -8.54387E+03
  7.23199E+03 -4.60902E+03  9.19819E+03  3.77628E+02  7.63593E+03  5.61075E+03  1.33229E+03  8.57125E+03
 -2.79510E+03  7.72102E+03 -4.15337E+03  3.77366E+03 -3.80691E+03 -1.94098E+03 -1.18184E+03 -9.57959E+02
 -2.31845E+02 -3.12617E+02 -1.43467E+03  3.13546E+03 -3.41987E+03  5.74060E+02 -5.22289E+03 -1.02568E+02
 -2.64978E+03 -5.76557E+03  3.64431E+02 -6.61229E+03  3.73915E+03 -5.49578E+03  5.81740E+03 -2.16949E+03
  6.98232E+03  4.22200E+03  4.49420E+03  5.34873E+03 -1.80455E+03  8.14243E+03 -4.78450E+03  4.98935E+03
 -5.92492E+03  1.09291E+03 -5.73677E+03 -4.78203E+03 -4.48162E+02 -6.00492E+03  3.08608E+03 -3.85428E+03
  4.48832E+03 -2.28057E+03  3.97959E+03  7.41188E+02  6.96266E+02  3.16098E+03 -4.19491E+01  5.24399E+02
  2.21950E+03  8.70750E+02  5.16366E+02  9.28808E+02  1.97170E+03  3.27972E+03  2.23820E+03  3.19433E+03
 -1.54287E+03  5.04593E+03 -4.30506E+03  6.47624E+03 -6.45852E+03  1.83843E+02 -6.93195E+03 -1.27279E+03
 -3.94469E+03 -5.94984E+03  9.87214E+02 -7.82162E+03  4.43790E+03 -5.06834E+03  4.67990E+03 -2.93429E+02
  4.51227E+03  3.54070E+03  7.61753E+02  5.25328E+03 -1.32582E+03  3.17413E+03 -1.61682E+03  1.56419E+02
 -7.41244E+02 -3.55381E+03  1.22394E+03 -2.47607E+03  2.84105E+03  9.88387E+01  2.37785E+03  1.03597E+03
  2.43895E+03  1.31513E+03  1.87873E+03  5.27404E+02 -7.30366E+02  7.04441E+02  9.72156E+02 -6.77749E+02
  1.57904E+03 -2.63016E+02  3.94077E+03  1.09084E+03  8.52942E+02  3.99715E+03 -7.92999E+02  4.69279E+03
 -3.88499E+03  2.45078E+03 -3.90154E+03  6.27792E+02 -5.17160E+03 -2.64699E+03 -3.90775E+02 -8.76567E+02
 -3.76271E+02 -2.47556E+03  2.18497E+03  3.66076E+02  9.43544E+02  1.39537E+03 -5.81988E+02  1.52441E+03
 -1.85541E+03  1.27497E+03 -2.77947E+03 -1.62781E+03 -2.00923E+03 -2.75391E+03  2.20893E+03 -3.33027E+03
  1.33969E+03 -1.84202E+02  1.55707E+03  1.11419E+03  2.42973E+03 -3.56467E+01  1.10667E+03  1.34481E+03
  4.42387E+02  2.70276E+02 -1.59120E+03 -3.99437E+02  2.41010E+02 -2.70077E+03  3.25516E+03 -1.61557E+03
  2.45945E+03  1.30599E+03  4.38607E+03  2.19909E+03  2.34779E+03  2.94506E+03 -1.48451E+03  4.27267E+03
 -2.61663E+03  9.48610E+02 -2.56351E+03 -4.41491E+02 -1.90138E+03 -3.68334E+03  8.53567E+02 -2.41887E+03
  2.92924E+03 -1.36942E+03  1.96104E+03  1.60801E+03  5.89686E+01  3.02324E+03  2.97292E+02  1.83536E+03
 -9.91020E+02  1.88765E+03 -9.11632E+02  8.94139E+02 -6.07162E+02  1.06647E+03 -1.19345E+03  9.78824E+02
 -1.25786E+03  1.97405E+02 -2.28390E+03  2.28369E+03 -4.26726E+03 -9.12105E+01 -4.20811E+03 -1.98915E+03
 -2.09129E+03 -4.32242E+03  3.25883E+02 -4.79180E+03  2.44352E+03 -4.78711E+03  4.85928E+03 -3.84118E+02
  4.02524E+03  8.71893E+02  2.38425E+03  3.46222E+03 -5.12073E+02  3.72133E+03 -2.04197E+02  2.16541E+03
 -2.71242E+03  1.44542E+03 -1.19804E+03 -2.87056E+02 -6.50682E+02  2.51197E+02 -2.20619E+02  6.04733E+02
 -8.90884E+02  4.75980E+02 -6.07116E+02 -3.97984E+02  2.29972E+01 -1.46283E+03 -7.53526E+01 -1.05383E+03
  2.41375E+03 -5.89814E+02  1.34624E+03  9.37602E+02  2.32710E+03  1.87403E+03  6.39941E+01  2.90188E+03
 -5.30595E+02  4.77951E+03 -3.46856E+03  2.31562E+03 -4.73161E+03 -2.15824E+01 -3.01864E+03 -3.08845E+03
 -9.14222E+02 -2.64515E+03  1.18469E+03 -3.88174E+03  2.09499E+03 -1.57083E+03  1.63142E+03 -4.85788E+00
  2.28268E+03  1.18244E+03 -3.19558E+02  1.03441E+03 -9.90293E+02 -8.00914E+02  1.16210E+02 -1.06425E+03
  2.74056E+02 -6.52771E+02  1.21627E+03  8.77642E+02  3.15967E+02  1.12157E+03  1.97817E+02  6.80116E+02
 -1.11996E+03  2.56708E+03 -1.79058E+03  3.23244E+01 -1.33253E+03 -2.15954E+03  2.46882E+00 -3.49903E+03
  1.24210E+03 -6.43749E+02  2.05975E+03 -9.84449E+02  1.00064E+03 -2.68358E+02  1.05162E+03  2.43406E+03
  7.98945E+02  1.03433E+03 -2.08721E+01  6.97584E+02 -1.90572E+03  1.03761E+03 -4.10974E+02 -2.42461E+02
 -3.38762E+02  1.65557E+01 -9.46683E+02  4.00612E+02 -7.57112E+02 -6.70408E+02 -1.70033E+03 -1.59933E+03
 -1.39598E+03 -3.96248E+02  8.80121E+01 -1.49536E+03  9.12266E+02 -1.74034E+03  1.66338E+03 -1.89833E+03
  2.70610E+03  4.74853E+02  1.23438E+02  8.88220E+02  2.63940E+02  2.36926E+03 -4.09876E+02  5.45852E+02
