 $NMID ID='MM_0lb_SNR200_9hz_g55_74.RAW', FMTDAT='(8E13.5)'
 TRAMP=1., VOLUME=1. $END
  3.10991E+05  1.03896E+03  3.36814E+05  2.51614E+05  8.41999E+04  3.38166E+05 -1.33555E+05  2.51976E+05
 -1.91450E+05  8.43441E+04 -1.12123E+05 -3.24379E+04  9.81342E+02 -4.96846E+04  5.26883E+04 -8.73382E+02
  3.40683E+04  5.28203E+04 -1.66725E+04  7.51837E+04 -6.29931E+04  6.34642E+04 -8.55776E+04  3.34154E+04
 -8.12998E+04 -1.13597E+04 -5.89905E+04 -5.16760E+04 -1.59686E+04 -7.13407E+04  2.74269E+04 -4.77835E+04
  4.13157E+04  3.12186E+03  1.58008E+04  5.01422E+04 -3.43189E+04  4.73058E+04 -6.77332E+04  1.00265E+03
 -5.31369E+04 -5.66905E+04 -7.44704E+03 -7.89313E+04  3.55789E+04 -5.75818E+04  5.16145E+04 -1.88961E+04
  4.60041E+04  1.17341E+04  3.20449E+04  2.60196E+04  1.56697E+04  3.07937E+04 -5.93289E+03  2.80823E+04
 -2.30825E+04  1.02467E+04 -1.67917E+04 -5.74375E+03  7.85636E+03 -6.35237E+03  2.35979E+04  1.49330E+04
  7.63868E+03  3.72977E+04 -3.40766E+04  3.79120E+04 -6.73633E+04  2.38494E+03 -5.84507E+04 -4.61975E+04
 -1.18580E+04 -6.54655E+04  4.20176E+04 -4.62396E+04  6.16774E+04 -3.10385E+03  3.85192E+04  3.52993E+04
 -5.62290E+03  4.04438E+04 -3.17384E+04  1.97851E+04 -3.44913E+04 -3.69007E+03 -1.99660E+04 -1.35098E+04
 -1.00479E+04 -1.50385E+04 -9.94884E+02 -2.08959E+04  8.06973E+03 -2.25607E+04  1.56347E+04 -1.27217E+04
  8.50909E+03  7.85311E+03 -1.00389E+04  1.24067E+04 -2.38654E+04 -7.58427E+03 -8.09755E+03 -3.84748E+04
  2.62340E+04 -4.74087E+04  5.21159E+04 -2.09141E+04  4.88501E+04  2.14943E+04  1.78718E+04  4.81550E+04
 -1.67020E+04  3.73270E+04 -2.77127E+04  2.73906E+03 -1.04676E+04 -3.11555E+04  2.04101E+04 -3.85088E+04
  4.42191E+04 -1.17782E+04  4.21082E+04  2.49200E+04  2.11442E+04  5.08241E+04 -9.20341E+03  5.83839E+04
 -3.71195E+04  3.98678E+04 -4.89148E+04  9.49902E+03 -5.02808E+04 -1.87669E+04 -2.73086E+04 -4.03543E+04
  8.51780E+03 -4.30075E+04  3.57209E+04 -1.84197E+04  3.33441E+04  1.21631E+04  6.54842E+03  2.11795E+04
 -1.20475E+04  1.04917E+04 -1.11828E+04 -6.54282E+03  6.08703E+03 -1.14522E+04  1.97134E+04  3.94595E+03
  1.46483E+04  2.22201E+04 -5.53361E+03  2.58152E+04 -2.47177E+04  1.45902E+04 -3.34861E+04 -8.78105E+02
 -2.68577E+04 -1.82713E+04 -1.18847E+04 -2.48838E+04  5.06622E+03 -2.56390E+04  2.14118E+04 -2.30961E+04
  3.21715E+04 -1.45331E+04  3.77357E+04  4.46506E+03  2.79208E+04  2.61155E+04  4.16382E+03  4.25664E+04
 -1.92349E+04  3.33582E+04 -3.16521E+04  1.13961E+04 -2.25420E+04 -1.23775E+04 -5.09901E+03 -1.22888E+04
 -2.06259E+01 -3.44885E+02 -8.17527E+03  9.57831E+03 -2.05321E+04  6.23721E+03 -2.15399E+04 -1.03988E+04
 -1.27807E+04 -2.29907E+04  6.56534E+03 -2.96177E+04  1.81658E+04 -1.89895E+04  2.20218E+04 -3.01043E+03
  1.20922E+04  1.55502E+04 -1.75037E+03  2.34999E+04 -1.70725E+04  1.38705E+04 -2.25596E+04 -5.96684E+03
 -1.71843E+04 -2.00036E+04 -3.16482E+03 -2.90891E+04  1.39544E+04 -2.46071E+04  2.42353E+04 -1.32139E+04
  2.34651E+04  2.38355E+03  1.57486E+04  5.13589E+03  8.65991E+03  1.97024E+03  1.16442E+04 -1.10141E+03
  2.25154E+04  2.15250E+03  2.75329E+04  1.85728E+04  1.75393E+04  3.80026E+04 -3.18567E+03  4.57337E+04
 -2.62712E+04  3.83730E+04 -4.15251E+04  1.91121E+04 -4.57664E+04 -3.52626E+03 -3.86462E+04 -2.50943E+04
 -1.49522E+04 -3.84801E+04  1.47678E+04 -3.34961E+04  2.80235E+04 -1.56645E+04  2.45721E+04  7.21702E+03
  7.59075E+03  1.89873E+04 -1.16716E+04  1.60944E+04 -2.03328E+04  7.74731E+02 -1.49723E+04 -1.27939E+04
 -1.08586E+03 -1.93112E+04  9.40523E+03 -1.59563E+04  1.38238E+04 -9.42951E+02  2.73209E+03  9.18855E+03
 -7.00311E+03  3.12966E+03 -1.00149E+04 -7.93129E+03 -2.07625E+03 -1.76694E+04  1.19649E+04 -1.96678E+04
  2.24631E+04 -1.17646E+04  2.80960E+04  2.79012E+03  2.35566E+04  1.86332E+04  1.03058E+04  3.00759E+04
 -6.00849E+03  3.25147E+04 -2.15756E+04  1.97281E+04 -2.37443E+04  3.88139E+03 -1.51507E+04 -5.74524E+03
 -7.75861E+03 -8.28368E+03 -1.10425E+03  5.11692E+02 -1.61663E+03  3.98816E+03 -8.55555E+03  5.01825E+03
 -1.46683E+04 -1.22058E+03 -1.49559E+04 -1.15039E+04 -5.89533E+03 -1.99790E+04  5.74404E+03 -1.50909E+04
  1.27759E+04 -6.62820E+03  8.99981E+03  4.96294E+03 -8.26703E+02  7.45555E+03 -9.74292E+03 -9.05424E+01
 -7.72921E+03 -1.23305E+04 -6.45903E+02 -1.70929E+04  1.04874E+04 -1.70215E+04  2.09286E+04 -9.23072E+03
  2.30085E+04  2.93271E+03  1.69944E+04  1.45741E+04  3.08478E+03  2.08566E+04 -7.99534E+03  1.55388E+04
 -1.38168E+04  3.64289E+03 -6.82453E+03 -1.72010E+03  2.64818E+03 -2.98201E+03  9.04960E+03 -1.11394E+03
  7.26942E+03  6.20114E+03  1.72315E+03  1.27312E+04 -1.02256E+04  1.22024E+04 -1.60724E+04  2.21334E+03
 -1.25358E+04 -9.26576E+03 -1.04438E+03 -1.39402E+04  1.05033E+04 -6.61527E+03  9.61790E+03  2.96070E+03
  2.28402E+03  8.99658E+03 -8.47419E+03  1.17756E+04 -1.53567E+04  5.02151E+03 -1.39609E+04 -5.23821E+03
 -8.76092E+03 -1.58159E+04  3.77698E+03 -1.92906E+04  1.69335E+04 -1.07280E+04  1.79859E+04  2.49776E+03
  9.65657E+03  1.35664E+04 -1.29287E+03  1.53904E+04 -1.22145E+04  8.17154E+03 -1.30203E+04 -6.57626E+01
 -1.14784E+04 -1.03017E+04 -3.31711E+03 -1.26652E+04  5.82379E+03 -1.17263E+04  8.13210E+03 -4.70724E+03
  4.35242E+03  1.51988E+03 -3.16423E+03  6.23502E+02 -2.26575E+03 -2.77711E+03  1.88369E+03 -9.69300E+03
  1.26623E+04 -5.43195E+03  1.65806E+04  1.31116E+03  1.75167E+04  1.05604E+04  9.66382E+03  2.20361E+04
 -4.36548E+03  2.55655E+04 -2.11904E+04  1.90700E+04 -2.59882E+04  3.19067E+03 -2.13516E+04 -1.05238E+04
 -1.12561E+04 -1.68028E+04 -1.05487E+02 -1.59783E+04  6.15229E+03 -9.62745E+03  6.77780E+03 -5.27674E+03
  3.82148E+03 -3.76572E+03  5.04920E+03 -2.75282E+03  6.87147E+03 -3.79391E+03  8.11714E+03 -7.47839E+02
  1.15657E+04  3.28495E+03  5.68217E+03  9.14176E+03 -1.75929E+03  1.20598E+04 -1.19098E+04  9.53706E+03
 -1.45397E+04 -1.68422E+03 -9.33033E+03 -1.13138E+04 -3.64520E+02 -1.60399E+04  7.55966E+03 -1.68261E+04
  1.71224E+04 -8.60863E+03  2.10994E+04  2.61921E+03  1.42753E+04  1.39145E+04  1.02059E+03  1.92817E+04
 -6.41565E+03  1.48042E+04 -1.19662E+04  6.33850E+03 -5.80147E+03 -2.61870E+03 -3.44496E+03 -2.26628E+03
 -2.99101E+03 -2.35045E+02 -2.49689E+03  1.74435E+03 -7.63869E+03  2.40638E+03 -1.00770E+04 -8.52498E+02
 -8.57292E+03 -9.55990E+03  5.82038E+02 -1.46281E+04  9.68381E+03 -1.38449E+04  1.54304E+04 -3.87157E+03
  1.54651E+04  8.66642E+03  7.10852E+03  1.26083E+04 -2.22567E+03  1.51960E+04 -1.07734E+04  1.09134E+04
 -1.28047E+04  9.94321E+02 -1.15827E+04 -9.92362E+03 -1.72217E+03 -1.36232E+04  8.14536E+03 -1.08384E+04
  1.11388E+04 -3.36759E+03  6.90626E+03  2.43051E+03  2.01122E+03  6.16038E+03  1.68186E+03  2.25871E+03
  4.12323E+03  6.15199E+02  3.87369E+03  1.95706E+03  3.23453E+03  4.63202E+03  5.84192E+03  8.44923E+03
 -4.16181E+03  1.35731E+04 -9.46894E+03  1.06724E+04 -1.64840E+04  4.72732E+03 -1.75681E+04 -7.44223E+03
 -7.66132E+03 -1.45131E+04  1.21248E+03 -1.73658E+04  9.52446E+03 -1.09068E+04  1.33310E+04 -1.55295E+03
  8.99115E+03  6.44711E+03  1.83462E+03  9.37885E+03 -3.49772E+03  6.63705E+03 -7.53124E+03 -3.02277E+02
 -1.99439E+03 -6.02913E+03  3.86495E+03 -8.11528E+03  7.43880E+03 -4.04615E+03  7.30666E+03  1.00622E+03
  3.09493E+03  4.78976E+03  1.15706E+03  3.52635E+03 -1.50606E+03  1.68911E+03  1.62022E+03 -1.80246E+03
  3.18875E+03  3.36116E+02  6.02110E+03  4.40352E+03  2.70670E+03  6.79670E+03 -1.44226E+03  1.17069E+04
 -8.65621E+03  7.49694E+03 -1.11404E+04  1.25288E+03 -8.93093E+03 -2.84669E+03 -3.98645E+03 -7.96933E+03
  1.78509E+03 -6.66019E+03  4.84407E+03 -3.17017E+03  3.58643E+03  3.72983E+03 -2.33323E+03  4.96978E+03
 -7.80041E+03  1.24749E+03 -5.20570E+03 -1.88350E+03 -4.29270E+03 -8.42846E+03  6.60416E+02 -8.26203E+03
  5.51582E+03 -4.93837E+03  6.29435E+03 -5.71362E+02  5.49611E+03  5.54554E+02  6.48144E+02  5.47706E+03
 -3.00621E+03  1.59656E+03 -4.00521E+03 -3.66671E+03  2.73789E+03 -6.23313E+03  7.54748E+03 -7.36210E+03
  9.58127E+03  1.33342E+03  9.89289E+03  7.42204E+03  2.47866E+03  1.04828E+04 -3.29119E+03  8.54779E+03
 -8.36645E+03  4.87486E+03 -6.93642E+03 -1.12852E+03 -3.68647E+03 -7.56325E+03  2.93343E+03 -6.88952E+03
  7.30938E+03 -2.08787E+03  5.57533E+03  2.05720E+03  3.31881E+03  5.92943E+03 -1.52451E+03  5.88989E+03
 -2.21927E+03  3.71554E+03 -2.69453E+03  2.33669E+02  1.87119E+02 -2.68602E+02 -8.59486E+02  1.44801E+03
 -3.25398E+03  4.31314E+03 -7.36223E+03  3.42747E+03 -1.11145E+04 -4.59953E+02 -1.21339E+04 -7.24555E+03
 -6.72272E+03 -1.41572E+04  1.82582E+03 -1.46191E+04  9.24446E+03 -1.36722E+04  1.56549E+04 -4.99518E+03
  1.63320E+04  2.11552E+03  7.87824E+03  9.86693E+03  3.89073E+02  1.04711E+04 -2.91792E+03  7.45999E+03
 -6.86735E+03  1.70052E+03 -3.64699E+03 -2.04330E+03 -8.92399E+02  5.47356E+00  4.45207E+02  1.87671E+01
 -2.97413E+03 -5.08542E+02 -1.78675E+03 -4.73005E+02  3.43458E+02 -3.66429E+03 -8.80103E+02 -4.40296E+03
  6.41639E+03 -2.64797E+03  7.54468E+03  9.04320E+01  8.26077E+03  6.29814E+03  2.37934E+03  9.98016E+03
 -5.62897E+03  1.08600E+04 -1.18822E+04  7.68096E+03 -1.38759E+04  6.49964E+01 -1.12833E+04 -9.00376E+03
 -3.95591E+03 -1.27528E+04  1.56802E+03 -9.49564E+03  7.18801E+03 -5.60036E+03  8.90120E+03  1.37606E+03
  3.40392E+03  1.67282E+03 -3.51894E+02  3.26760E+03 -2.86153E+03  1.54671E+03  7.84568E+02 -2.90181E+03
  3.14731E+03 -1.43041E+03  4.31239E+03  1.94284E+03  2.88573E+03  4.53071E+03  6.53561E+01  6.44607E+03
 -3.80679E+03  3.94718E+03 -7.16073E+03  5.02072E+02 -6.97053E+03 -3.27882E+03 -1.98375E+03 -8.11274E+03
  3.86355E+03 -8.37529E+03  8.88553E+03 -1.51995E+03  8.85887E+03  2.34311E+03  5.11064E+03  6.28290E+03
  1.97107E+03  7.02310E+03 -3.27643E+03  6.18753E+03 -5.69107E+03  3.31604E+03 -4.12984E+03  6.05747E+02
 -1.33518E+03 -3.71729E+02 -1.52533E+03 -1.09022E+03 -3.19854E+03  8.22264E+02 -4.88072E+03 -1.39438E+03
 -4.36975E+03 -6.50639E+03 -1.59418E+03 -7.71850E+03  3.82031E+03 -6.20886E+03  7.15182E+03 -3.61820E+03
  6.38244E+03  1.02469E+03  2.78702E+03  6.56564E+03 -1.75031E+03  7.40987E+03 -6.18140E+03  7.31525E+03
