 $NMID ID='MM_0lb_SNR200_18hz_g60_84.RAW', FMTDAT='(8E13.5)'
 TRAMP=1., VOLUME=1. $END
  3.09262E+05  6.22901E+02  3.37840E+05  2.51103E+05  8.45836E+04  3.38194E+05 -1.32538E+05  2.50252E+05
 -1.90559E+05  8.25910E+04 -1.12277E+05 -3.25995E+04  1.04151E+03 -4.97811E+04  5.24932E+04  3.89270E+02
  3.53345E+04  5.28527E+04 -1.71521E+04  7.49765E+04 -6.13497E+04  6.48084E+04 -8.37430E+04  3.10582E+04
 -8.19613E+04 -1.10716E+04 -5.63930E+04 -5.09071E+04 -1.36253E+04 -6.92914E+04  2.74924E+04 -4.61523E+04
  4.11221E+04  3.73578E+03  1.64460E+04  4.78004E+04 -3.35311E+04  4.57471E+04 -6.53921E+04 -5.58293E+02
 -5.31803E+04 -5.58718E+04 -7.41173E+03 -7.73015E+04  3.31022E+04 -5.54421E+04  4.87308E+04 -1.70113E+04
  4.30770E+04  1.08519E+04  3.11414E+04  2.58410E+04  1.51156E+04  2.90901E+04 -4.93333E+03  2.61953E+04
 -2.29673E+04  1.23043E+04 -1.91334E+04 -5.41576E+03  5.37787E+03 -8.53216E+03  2.20397E+04  1.11774E+04
  7.81389E+03  3.51499E+04 -3.10737E+04  3.46530E+04 -6.29641E+04  1.65423E+03 -5.65831E+04 -4.18432E+04
 -1.23788E+04 -6.13775E+04  3.91799E+04 -4.48649E+04  5.69219E+04 -1.93010E+03  3.31502E+04  3.13053E+04
 -5.51002E+03  3.50714E+04 -2.90364E+04  1.45163E+04 -2.96105E+04 -5.62820E+03 -1.65030E+04 -1.02703E+04
 -7.44557E+03 -1.23912E+04 -7.40183E+02 -1.74299E+04  7.70615E+03 -2.26707E+04  1.49651E+04 -1.38891E+04
  1.18705E+04  5.64082E+03 -6.60180E+03  1.18801E+04 -2.08884E+04 -3.13969E+03 -8.35607E+03 -3.27544E+04
  2.12323E+04 -4.32543E+04  4.74635E+04 -1.95450E+04  4.37445E+04  1.74654E+04  1.47901E+04  4.30880E+04
 -1.65834E+04  3.18151E+04 -2.43024E+04  1.55657E+03 -8.89891E+03 -2.68430E+04  2.01345E+04 -3.28696E+04
  4.01650E+04 -7.27144E+03  3.32704E+04  2.38512E+04  1.66124E+04  4.54061E+04 -7.94534E+03  4.74252E+04
 -2.94926E+04  3.18406E+04 -3.90421E+04  9.12136E+03 -3.98245E+04 -1.67733E+04 -2.27407E+04 -3.75238E+04
  6.60026E+03 -3.56964E+04  3.04048E+04 -1.32723E+04  2.83603E+04  1.13320E+04  2.59014E+03  1.85416E+04
 -1.32656E+04  6.80135E+03 -1.08808E+04 -7.60516E+03  6.25199E+03 -1.05140E+04  1.79475E+04  5.24928E+03
  1.18978E+04  2.10625E+04 -5.37231E+03  2.42560E+04 -2.15327E+04  1.04296E+04 -2.68876E+04 -5.90185E+03
 -1.87356E+04 -1.63198E+04 -7.36072E+03 -1.91368E+04  3.77528E+03 -1.75837E+04  1.35647E+04 -1.60850E+04
  2.38432E+04 -1.14768E+04  3.05196E+04  1.56143E+03  2.17913E+04  1.70313E+04  3.99745E+03  3.46594E+04
 -1.74752E+04  2.92974E+04 -2.69895E+04  1.00491E+04 -1.92393E+04 -9.60385E+03 -4.14789E+03 -1.33512E+04
  2.11969E+03 -3.76625E+03 -2.74776E+03  5.97943E+03 -1.45021E+04  5.11286E+03 -1.54154E+04 -5.36942E+03
 -8.62982E+03 -1.80261E+04  4.48857E+03 -2.13307E+04  1.36610E+04 -1.41466E+04  1.51582E+04 -2.10997E+03
  1.09595E+04  1.06211E+04 -2.85940E+02  1.72436E+04 -1.13927E+04  1.04550E+04 -1.71894E+04 -4.41146E+03
 -1.31799E+04 -1.54492E+04 -1.79200E+03 -2.09375E+04  9.29809E+03 -1.74717E+04  1.76265E+04 -8.95644E+03
  1.55286E+04  1.97503E+03  1.24556E+04  3.63802E+03  6.47810E+03  4.42994E+02  8.38369E+03 -1.32457E+02
  1.50327E+04  3.34398E+03  1.79112E+04  1.41163E+04  1.02430E+04  2.77099E+04 -3.72517E+03  3.02988E+04
 -1.80276E+04  2.35970E+04 -2.84024E+04  1.32562E+04 -2.84646E+04 -2.04385E+03 -2.39699E+04 -1.57582E+04
 -1.23012E+04 -2.34665E+04  7.23575E+03 -2.17935E+04  1.89850E+04 -1.15599E+04  1.71636E+04  4.02784E+03
  7.66838E+03  1.22510E+04 -8.08068E+03  1.10400E+04 -1.44774E+04  3.52331E+03 -1.18714E+04 -8.98329E+03
 -6.84278E+02 -1.31679E+04  5.93306E+03 -9.27292E+03  9.01985E+03 -1.72396E+03  2.28431E+03  6.10711E+03
 -6.35779E+03  1.52213E+03 -4.68459E+03 -5.68825E+03  1.34719E+03 -1.09147E+04  8.51295E+03 -1.19540E+04
  1.44109E+04 -6.25179E+03  1.48361E+04  1.91083E+03  1.18824E+04  1.00692E+04  5.40152E+03  1.68296E+04
 -2.21176E+03  1.80420E+04 -1.11341E+04  1.10711E+04 -1.29804E+04  3.57863E+03 -1.00923E+04 -2.84907E+03
 -4.68066E+03 -3.99226E+03 -4.86301E+02  1.63193E+03 -2.78529E+03  1.50396E+03 -3.70528E+03  4.49225E+03
 -8.32942E+03 -1.14731E+03 -9.91234E+03 -7.50126E+03 -3.53177E+03 -1.28180E+04  4.62313E+03 -9.77205E+03
  8.01525E+03 -4.64024E+03  6.78579E+03  2.88010E+03  3.02653E+02  3.81477E+03 -4.39193E+03  8.49950E+02
 -4.36358E+03 -5.46050E+03 -5.44276E+02 -7.50172E+03  4.46547E+03 -1.02661E+04  1.22240E+04 -4.83624E+03
  1.30286E+04 -1.14038E+02  9.53039E+03  7.60143E+03  2.70665E+03  1.07426E+04 -4.89333E+03  9.47409E+03
 -7.22952E+03  3.31426E+03 -3.86620E+03 -1.36913E+03  6.70474E+02 -2.42998E+03  6.22171E+03 -1.01906E+03
  4.45101E+03  2.68418E+03  2.14768E+03  6.90158E+03 -4.23334E+03  7.75481E+03 -7.35052E+03  2.02700E+03
 -6.23953E+03 -3.76556E+03 -6.35646E+02 -8.49229E+03  3.79901E+03 -4.68817E+03  4.19811E+03  7.40515E+02
  7.58037E+01  5.12088E+03 -4.27532E+03  5.71807E+03 -6.12344E+03  3.16018E+03 -5.52231E+03 -1.00596E+03
 -3.21721E+03 -7.02361E+03  2.20936E+03 -9.29934E+03  6.49625E+03 -5.23338E+03  7.62320E+03  1.06739E+03
  6.19346E+03  5.92216E+03 -1.34732E+02  8.02586E+03 -6.21047E+03  4.12525E+03 -5.76646E+03 -6.99077E+02
 -6.74022E+03 -5.94024E+03 -6.08381E+02 -5.34015E+03  2.82086E+03 -6.11325E+03  2.81790E+03 -2.71938E+03
  2.91589E+03  5.28856E+02 -9.23903E+02  8.74191E+02 -2.16485E+02  1.39315E+02  9.63527E+01 -2.50692E+03
  5.99946E+03 -1.98025E+03  6.07795E+03  1.05530E+03  6.69148E+03  3.23260E+03  6.15355E+03  8.33578E+03
 -1.55727E+03  8.91951E+03 -8.34830E+03  7.66716E+03 -1.06585E+04  1.06829E+03 -1.01249E+04 -3.08568E+03
 -5.00213E+03 -7.36284E+03 -4.16709E+02 -6.15958E+03  2.18931E+03 -2.35457E+03  1.75212E+03 -2.80866E+03
  8.25013E+02 -1.19823E+03  1.33108E+03 -1.34158E+03  3.70180E+03 -2.48411E+03  4.51058E+03 -1.66230E+02
  5.35589E+03  1.47737E+03  1.69452E+03  3.24736E+03 -1.79623E+03  3.50834E+03 -5.56842E+03  2.89871E+03
 -5.69301E+03 -1.34443E+03 -2.02475E+03 -3.66274E+03  6.03559E+02 -4.70103E+03  3.26440E+03 -6.57526E+03
  4.72468E+03 -3.91965E+03  7.20237E+03 -4.65058E+02  5.36575E+03  5.10793E+03  1.58261E+03  8.32324E+03
 -2.71785E+03  5.04238E+03 -3.14395E+03  1.88711E+03 -2.30484E+03 -1.19715E+03 -3.00110E+02 -5.50891E+02
 -2.35046E+02  2.26755E+02 -2.79157E+02  1.84380E+03 -3.51631E+03  4.53424E+02 -3.92039E+03 -3.18110E+02
 -1.68841E+03 -3.11763E+03  3.23838E+02 -5.21804E+03  4.38369E+03 -4.84762E+03  3.49773E+03  6.09623E+02
  4.43706E+03  2.43185E+03  1.60141E+03  3.84010E+03 -1.63235E+03  5.76835E+03 -3.75403E+03  3.18498E+03
 -4.83965E+03  8.96263E+02 -4.45448E+03 -2.61058E+03 -5.07783E+02 -3.02418E+03  3.07856E+03 -4.74706E+03
  2.67802E+03 -9.04565E+02  1.29784E+03  1.86870E+02  5.24065E+02  2.36613E+03  2.22552E+03  1.07180E+03
  2.17355E+03  1.18038E+02  1.29521E+03  1.44357E+03  1.34128E+03  1.30557E+03  1.18045E+03  1.93029E+03
 -6.67596E+02  3.22079E+03 -3.46834E+03  3.97422E+03 -4.58014E+03  1.47245E+03 -4.72954E+03 -4.56210E+02
 -1.95981E+03 -4.32953E+03 -1.31921E+01 -4.85382E+03  1.79314E+03 -2.88965E+03  2.29343E+03 -1.83980E+03
  3.44324E+03  1.64254E+03  1.98926E+03  3.20820E+03 -1.56390E+02  1.84282E+03 -4.42437E+02 -2.47938E+02
 -3.57804E+02 -1.71234E+03  6.84892E+02 -1.77706E+03  1.85087E+03 -8.66259E+01  1.23203E+03  1.22588E+03
  1.04964E+03  5.44221E+02  1.54736E+03  4.16532E+02 -7.84609E+02  2.01353E+03 -3.24465E+01 -4.19005E+02
  1.50505E+02 -9.02484E+02  1.91674E+03  9.35682E+02 -2.25978E+02  2.79565E+03 -5.88831E+02  3.23895E+03
 -2.22508E+03  1.05379E+03 -2.54058E+03  1.80688E+03 -2.85266E+03 -1.37735E+03 -1.44354E+02 -5.73680E+02
  9.46711E+01 -1.01684E+03  1.44338E+03 -2.49955E+02  2.23537E+03  5.71360E+02  1.13107E+03  1.22534E+03
 -1.89225E+03  8.97155E+02 -1.09259E+03 -1.17035E+03 -1.22440E+03 -1.46132E+03  3.38043E+02 -1.86329E+03
  1.43571E+03 -8.75508E+02  1.13942E+03  2.55809E+02  2.40463E+03 -5.50396E+00  1.16579E+03  1.25693E+03
 -3.91758E+01 -2.78748E+01 -8.35009E+02 -8.46623E+02  1.42532E+03 -1.46735E+03  1.95627E+03 -7.47777E+02
  1.07767E+03  5.65486E+02  2.55083E+03  8.90708E+02  1.86445E+03  2.49016E+03 -7.16471E+02  2.25810E+03
 -1.16412E+03  1.67099E+03 -9.45959E+02  4.53706E+02 -5.09408E+02 -1.39912E+03  8.64022E+02 -1.33122E+02
  9.59026E+02 -1.57758E+03  1.92762E+03  1.27932E+03  7.46007E+02  1.62855E+03  2.29907E+02  1.60061E+03
  4.14812E+02  1.29264E+03 -1.22677E+03  1.62044E+02 -3.77007E+02  8.76962E+02  8.07590E+01  7.21057E+02
 -4.88919E+02  1.25928E+03 -1.77821E+03  9.97384E+00 -2.10001E+03  9.29786E+02 -2.07242E+03 -1.93648E+03
 -1.57210E+03 -2.83505E+03  6.69438E+01 -3.52638E+03  9.16504E+02 -3.69609E+03  2.33041E+03 -1.75169E+03
  2.94991E+03  4.58107E+02  1.30634E+03  1.17128E+03 -7.10485E+02  2.58084E+03 -5.55474E+02  2.15516E+03
 -1.50775E+03  1.12554E+03 -9.62403E+02 -8.49156E+02 -8.16796E+01 -7.14316E+02 -1.05001E+03 -1.42274E+02
 -1.35040E+03 -9.61283E+02 -6.89935E+02 -2.47747E+02 -2.64512E+02 -1.48217E+03 -6.43843E+02 -1.49817E+03
  1.01792E+03 -7.45596E+02 -4.12091E+01 -6.08697E+02  2.24820E+03  1.12151E+03 -8.40389E+02  2.70279E+03
 -1.21566E+03  1.25964E+03 -1.38783E+03  1.35513E+03 -9.32838E+02  8.32398E+02 -1.11502E+03 -1.72336E+03
 -6.78940E+02 -1.91439E+03  8.16114E+02 -3.40094E+02  8.17103E+02 -1.99126E+02  5.19363E+02  6.07681E+02
 -1.15243E+03  9.36132E+01 -3.20239E+02  8.98821E+02 -1.37984E+03 -7.77967E+02 -2.49056E+02  3.44835E+02
  1.59481E+03  4.32571E+02  7.94445E+02  8.18642E+02  3.26909E+02  1.00920E+03  3.09125E+02  4.15983E+02
 -1.77401E+02 -4.51201E+02 -5.52762E+02 -9.21065E+02 -5.15481E+02  4.98694E+02  5.01647E+01 -2.05599E+03
  8.34307E+02 -9.65751E+02  5.51868E+02  2.69960E+02  1.57608E+03  2.73967E+02  8.63581E+02  7.65462E+02
 -1.86163E+02  7.19692E+02 -6.82845E+02  6.58965E+02 -1.34806E+03  6.11395E+02 -1.49919E+03  3.61752E+02
  4.20819E+00 -3.75489E+02 -8.65866E+02 -4.25960E-01 -7.70084E+02 -1.57723E+03 -7.16276E+02 -1.37288E+02
 -1.09791E+03  4.50057E+02 -1.14499E+03 -1.97028E+03 -8.07635E+01 -2.18376E+03  4.03164E+02  6.32694E+02
  1.18357E+03 -1.01780E+03 -1.41805E+03 -2.15813E+02  8.10088E+01  6.21280E+02 -3.49762E+02  2.21889E+02
