 $NMID ID='MM_0lb_SNR200_10hz_g40_64.RAW', FMTDAT='(8E13.5)'
 TRAMP=1., VOLUME=1. $END
  3.10433E+05  4.97710E+02  3.38231E+05  2.52241E+05  8.56534E+04  3.37527E+05 -1.32462E+05  2.51917E+05
 -1.90568E+05  8.31079E+04 -1.11464E+05 -3.21295E+04  4.61041E+02 -4.99256E+04  5.32672E+04 -6.89233E+02
  3.68935E+04  5.32140E+04 -1.57590E+04  7.47185E+04 -6.15675E+04  6.41049E+04 -8.46986E+04  3.24342E+04
 -8.22316E+04 -1.24029E+04 -5.65557E+04 -5.23595E+04 -1.54136E+04 -7.16995E+04  2.81576E+04 -4.50507E+04
  3.88544E+04  4.76562E+03  1.66741E+04  4.80329E+04 -3.46720E+04  4.81274E+04 -6.65794E+04  1.58048E+03
 -5.50858E+04 -5.71230E+04 -7.45437E+03 -7.83937E+04  3.21758E+04 -5.54533E+04  4.88812E+04 -1.74630E+04
  4.37492E+04  1.04490E+04  3.10973E+04  2.59257E+04  1.70102E+04  2.95284E+04 -5.30358E+03  2.64078E+04
 -2.23522E+04  1.31387E+04 -1.77955E+04 -4.68831E+03  5.49469E+03 -8.27558E+03  2.22435E+04  1.43800E+04
  8.27240E+03  3.66252E+04 -3.29190E+04  3.65699E+04 -6.55562E+04  1.82625E+03 -5.84244E+04 -4.40456E+04
 -1.28858E+04 -6.36712E+04  4.16081E+04 -4.61848E+04  5.91495E+04 -2.60572E+03  3.38452E+04  3.32505E+04
 -4.58153E+03  3.79732E+04 -3.14919E+04  1.57100E+04 -3.21957E+04 -4.53603E+03 -1.81883E+04 -1.17574E+04
 -1.01986E+04 -1.31479E+04 -1.65405E+02 -1.92962E+04  8.18193E+03 -2.24155E+04  1.64666E+04 -1.19269E+04
  1.08086E+04  5.16616E+03 -8.99903E+03  1.42118E+04 -2.26355E+04 -5.26058E+03 -7.37085E+03 -3.54930E+04
  2.38449E+04 -4.50864E+04  4.96759E+04 -2.03393E+04  4.72228E+04  2.07813E+04  1.75281E+04  4.53127E+04
 -1.64915E+04  3.46688E+04 -2.77943E+04  2.12629E+03 -8.82564E+03 -2.91457E+04  1.97498E+04 -3.43803E+04
  4.31715E+04 -1.19936E+04  3.96252E+04  2.57638E+04  2.07429E+04  4.98746E+04 -9.49221E+03  5.37057E+04
 -3.42036E+04  3.75903E+04 -4.63328E+04  1.02306E+04 -4.58551E+04 -1.77434E+04 -2.38200E+04 -3.86701E+04
  8.69065E+03 -4.04185E+04  3.29214E+04 -1.62592E+04  3.12017E+04  1.09596E+04  4.01187E+03  1.96877E+04
 -1.40999E+04  9.70887E+03 -1.13305E+04 -8.22759E+03  5.67735E+03 -9.06207E+03  1.89845E+04  7.27715E+03
  1.34667E+04  2.29162E+04 -5.79462E+03  2.69754E+04 -2.40794E+04  1.34830E+04 -3.04920E+04 -4.47596E+03
 -2.19610E+04 -1.83714E+04 -8.19857E+03 -2.14601E+04  3.39109E+03 -2.32596E+04  1.95559E+04 -2.10830E+04
  2.92052E+04 -1.40643E+04  3.57719E+04  4.00874E+03  2.69799E+04  2.21334E+04  3.95593E+03  3.86435E+04
 -1.96996E+04  3.11310E+04 -3.01661E+04  1.29174E+04 -2.12611E+04 -1.09210E+04 -4.26830E+03 -1.34666E+04
  1.02589E+03 -1.95032E+03 -6.94493E+03  7.55917E+03 -2.02911E+04  4.15413E+03 -1.95740E+04 -8.39886E+03
 -1.20730E+04 -2.18113E+04  6.68069E+03 -2.69205E+04  1.79447E+04 -1.86356E+04  1.94004E+04 -3.37673E+03
  1.29814E+04  1.49245E+04 -5.28957E+01  2.12299E+04 -1.50735E+04  1.20767E+04 -2.17413E+04 -5.19882E+03
 -1.61150E+04 -1.96873E+04 -4.89691E+02 -2.66053E+04  1.13567E+04 -2.11979E+04  2.26576E+04 -1.20093E+04
  1.99889E+04  3.10489E+02  1.57295E+04  4.37391E+03  8.78946E+03  4.88815E+02  1.12997E+04 -3.08254E+03
  2.00366E+04  2.20289E+03  2.35541E+04  1.70423E+04  1.65791E+04  3.58338E+04 -4.61980E+02  4.12388E+04
 -2.28528E+04  3.36941E+04 -3.87603E+04  1.72627E+04 -4.09620E+04 -2.01032E+03 -3.32740E+04 -2.29363E+04
 -1.25679E+04 -3.33768E+04  1.12387E+04 -2.92387E+04  2.46711E+04 -1.34145E+04  2.35788E+04  6.86258E+03
  8.89307E+03  1.75786E+04 -1.03651E+04  1.47835E+04 -1.81428E+04  1.79889E+03 -1.30741E+04 -1.17345E+04
 -6.12298E+02 -1.93504E+04  9.06673E+03 -1.32947E+04  1.19782E+04 -7.55897E+02  3.10959E+03  6.51455E+03
 -7.29429E+03  3.33706E+03 -7.84396E+03 -6.42896E+03 -1.29031E+03 -1.71895E+04  1.22152E+04 -1.93410E+04
  1.98449E+04 -9.62342E+03  2.33697E+04  3.36637E+03  2.05408E+04  1.57113E+04  8.50212E+03  2.55963E+04
 -4.89892E+03  2.80683E+04 -1.83501E+04  1.52083E+04 -1.95501E+04  2.97052E+03 -1.40803E+04 -3.29399E+03
 -6.28244E+03 -5.36714E+03 -2.33975E+03 -5.00465E+02 -3.84728E+03  2.85614E+03 -6.24278E+03  6.85862E+03
 -1.44172E+04 -1.29093E+03 -1.27705E+04 -1.02230E+04 -4.26953E+03 -1.80247E+04  7.05774E+03 -1.43677E+04
  1.25446E+04 -5.61755E+03  7.42325E+03  2.61623E+03 -9.91477E+02  4.40249E+03 -7.02921E+03 -1.34083E+02
 -7.35458E+03 -7.98090E+03 -1.04960E+03 -1.31051E+04  6.90338E+03 -1.36171E+04  1.65421E+04 -6.53087E+03
  2.09103E+04  2.61439E+03  1.36743E+04  1.18733E+04  3.25445E+03  1.62382E+04 -9.97568E+03  1.58361E+04
 -1.04931E+04  3.47496E+03 -6.34347E+03 -3.62706E+03  1.86166E+03 -4.28009E+03  7.86008E+03 -1.48483E+03
  6.55486E+03  5.84710E+03 -9.77977E+01  1.13703E+04 -8.52785E+03  1.13165E+04 -1.35875E+04  2.02607E+03
 -9.83000E+03 -7.56146E+03 -9.36494E+02 -1.16952E+04  8.20812E+03 -5.89451E+03  6.29862E+03  1.59912E+03
  2.01241E+03  8.47903E+03 -8.21427E+03  1.05008E+04 -1.13401E+04  6.00682E+03 -1.06938E+04 -4.85938E+03
 -6.16555E+03 -1.33997E+04  3.00720E+03 -1.60097E+04  1.30078E+04 -7.89290E+03  1.49199E+04  2.62916E+03
  9.54591E+03  1.06550E+04 -1.09753E+03  1.37874E+04 -1.11103E+04  7.11395E+03 -1.06949E+04 -1.66877E+03
 -9.15995E+03 -8.38877E+03  3.44764E+02 -9.10544E+03  7.10547E+03 -7.88512E+03  6.16475E+03 -3.63318E+03
  4.47122E+03  2.64565E+03  2.32468E+02  3.54823E+03  3.51521E+02 -3.61663E+03  1.83747E+03 -5.99370E+03
  1.03576E+04 -4.97126E+03  1.24270E+04  1.28565E+03  1.45262E+04  9.90427E+03  1.07819E+04  1.75267E+04
 -3.92445E+03  2.06988E+04 -1.66883E+04  1.49369E+04 -2.24483E+04  3.09095E+03 -1.77327E+04 -7.50852E+03
 -7.96931E+03 -1.55610E+04 -6.76331E+02 -1.23041E+04  4.58239E+03 -6.47733E+03  3.84847E+03 -5.87720E+03
  3.71903E+03 -2.05663E+03  4.28064E+03 -3.30397E+03  3.72403E+03 -3.28908E+03  6.49343E+03 -4.25912E+02
  1.03017E+04  1.07164E+03  5.32649E+03  6.99748E+03 -2.60108E+03  9.12410E+03 -1.04811E+04  7.67026E+03
 -1.23434E+04 -1.86826E+03 -6.65962E+03 -9.76679E+03 -2.21337E+02 -1.16454E+04  7.17545E+03 -1.31781E+04
  1.48224E+04 -7.09067E+03  1.64572E+04  8.70073E+02  1.19015E+04  1.12199E+04  1.78204E+03  1.36705E+04
 -5.28814E+03  1.32921E+04 -9.92429E+03  5.02455E+03 -5.52601E+03 -2.21014E+03 -2.85834E+03 -1.90482E+03
 -5.27952E+02 -1.05195E+03 -1.79157E+03  3.11254E+03 -4.76842E+03  2.12364E+03 -8.51080E+03 -7.65337E+02
 -5.28043E+03 -8.74210E+03 -7.31164E+02 -1.29334E+04  7.19036E+03 -1.23778E+04  1.35993E+04 -3.59781E+03
  1.28564E+04  6.46762E+03  4.50736E+03  1.12696E+04 -1.84735E+03  1.13237E+04 -8.42845E+03  9.12674E+03
 -1.13516E+04  1.94589E+02 -1.03820E+04 -8.23296E+03 -6.38950E+02 -9.95952E+03  4.68554E+03 -8.89734E+03
  7.30203E+03 -2.27118E+03  5.59885E+03  2.54482E+03  2.48516E+03  2.25719E+03  1.52304E+03  1.71375E+03
  3.30638E+03  1.87411E+03  3.67118E+03  1.17747E+03  4.07751E+03  5.08290E+03  4.12319E+03  6.46885E+03
 -1.88784E+03  9.69763E+03 -7.75074E+03  9.12597E+03 -1.16966E+04  2.09005E+03 -1.32213E+04 -4.70067E+03
 -6.35027E+03 -1.14616E+04  2.02651E+03 -1.44513E+04  7.20266E+03 -9.15217E+03  9.07855E+03 -2.61442E+03
  7.50031E+03  3.85446E+03  1.72298E+03  6.47518E+03 -1.77251E+03  6.02508E+03 -6.30095E+03 -8.53938E+02
 -2.01776E+03 -3.66792E+03  1.10794E+03 -5.61322E+03  5.40705E+03 -2.51516E+03  6.19632E+03  3.26975E+03
  1.91068E+03  1.21118E+03  1.29837E+03  2.81223E+03 -1.83790E+03  2.24889E+03 -4.38161E+02 -1.08329E+03
  1.20108E+03 -1.38274E+03  5.41599E+03  1.11218E+03  1.01761E+03  6.93697E+03  9.44047E+01  1.02729E+04
 -5.91530E+03  4.10442E+03 -7.70870E+03  1.62852E+03 -6.88182E+03 -3.05865E+03 -3.07620E+03 -3.80403E+03
  5.86254E+02 -5.22984E+03  2.10925E+03 -2.35647E+03  2.82010E+03  1.06512E+03 -1.30478E+03  4.36008E+03
 -6.37997E+03  2.25215E+03 -3.68863E+03 -3.48276E+03 -3.28994E+03 -6.37467E+03  1.64124E+03 -6.36669E+03
  5.89213E+03 -3.91493E+03  5.77295E+03 -1.35676E+03  4.23541E+03  2.47384E+03 -2.88682E+02  1.96924E+03
 -1.93821E+03  1.46583E+03 -3.04976E+03 -2.70091E+03  1.75901E+03 -4.40895E+03  7.25131E+03 -4.33632E+03
  7.37690E+03 -8.74541E+02  8.75460E+03  4.18038E+03  1.40515E+03  8.23986E+03 -4.69318E+03  6.17781E+03
 -7.30514E+03  2.51449E+03 -8.12518E+03 -1.70354E+03 -5.20292E+03 -4.26780E+03  1.44370E+03 -5.79229E+03
  5.02618E+03 -3.83723E+03  3.27178E+03  2.88001E+03  2.02450E+03  5.17555E+03  4.28286E+02  4.36206E+03
 -5.54714E+02  3.22890E+03 -2.63195E+03  1.68604E+03 -1.48023E+03  4.36177E+02 -3.04867E+03 -3.47799E+02
 -2.41598E+03  4.49074E+03 -5.47409E+03  3.20712E+03 -8.81156E+03  5.34722E+02 -1.01832E+04 -6.11443E+03
 -5.49937E+03 -1.08198E+04  1.25808E+03 -1.28940E+04  7.03734E+03 -9.05371E+03  1.08870E+04 -4.18806E+03
  1.03104E+04  3.09442E+03  8.26603E+03  6.72573E+03  1.64868E+03  8.15232E+03 -3.64903E+03  6.42712E+03
 -4.49152E+03  3.10986E+03 -3.32088E+03 -1.06859E+03 -3.59520E+02 -1.90350E+03 -1.31661E+02 -7.25640E+01
 -1.29559E+03  8.48622E+02 -2.21852E+03 -7.02880E+02 -9.99454E+02 -3.47456E+03 -3.96850E+02 -3.69459E+03
  3.63722E+03 -2.86232E+03  5.54735E+03  1.53371E+03  6.86451E+03  4.32461E+03  1.53700E+03  7.41992E+03
 -3.29098E+03  8.89891E+03 -9.45287E+03  5.85953E+03 -1.04121E+04 -8.77106E+02 -7.71056E+03 -6.35475E+03
 -2.71163E+03 -6.74842E+03  1.73076E+03 -8.33381E+03  5.15368E+03 -3.43453E+03  6.29568E+03  2.04096E+02
  2.67520E+03  2.10422E+03 -1.12693E+03  2.10797E+03 -2.01230E+03 -2.21468E+02  2.82206E+02 -2.92865E+03
  2.61488E+03 -9.99832E+02  3.05679E+03  2.12220E+03  2.37125E+03  2.99769E+03 -1.97199E+02  4.73671E+03
 -3.78571E+03  3.27031E+03 -6.68089E+03  1.54185E+03 -5.31158E+03 -2.93738E+03 -1.75897E+03 -6.38575E+03
  5.04475E+03 -4.83307E+03  6.86327E+03 -1.22296E+03  6.67553E+03  8.15454E+02  3.79799E+03  3.73343E+03
  8.82398E+02  6.49685E+03 -1.98962E+03  4.58701E+03 -2.27540E+03  2.95660E+03 -7.08820E+02 -6.97695E+02
 -1.77218E+03 -7.53209E+02 -1.27647E+03  1.01171E+02 -3.51299E+03  2.22039E+03 -4.66252E+03  4.85916E+01
 -4.12098E+03 -2.95136E+03 -1.04296E+03 -6.64940E+03  3.30041E+03 -6.85560E+03  4.86446E+03 -3.27401E+03
  5.81940E+03  9.93356E+02  2.04748E+03  3.29017E+03 -5.26692E+02  5.15891E+03 -4.54803E+03  4.02606E+03
