 $NMID ID='MM_0lb_SNR200_9hz_g55_63.RAW', FMTDAT='(8E13.5)'
 TRAMP=1., VOLUME=1. $END
  3.08951E+05  8.09093E+02  3.37306E+05  2.50788E+05  8.39730E+04  3.39405E+05 -1.32585E+05  2.52053E+05
 -1.92112E+05  8.27489E+04 -1.12242E+05 -3.33848E+04  9.58293E+02 -5.24093E+04  5.30797E+04 -1.58536E+03
  3.49032E+04  5.17937E+04 -1.57101E+04  7.75948E+04 -6.17163E+04  6.54914E+04 -8.52771E+04  3.20067E+04
 -8.21764E+04 -1.17575E+04 -5.84763E+04 -5.27961E+04 -1.56450E+04 -7.16687E+04  2.74710E+04 -4.74298E+04
  4.08383E+04  5.15837E+03  1.63480E+04  4.93691E+04 -3.38928E+04  4.88844E+04 -6.87537E+04 -3.30255E+02
 -5.56530E+04 -5.80662E+04 -6.41478E+03 -8.07205E+04  3.56309E+04 -5.81734E+04  5.07770E+04 -1.92938E+04
  4.61937E+04  1.21195E+04  3.28203E+04  2.69596E+04  1.74482E+04  2.97861E+04 -6.51132E+03  2.95402E+04
 -2.34358E+04  1.01849E+04 -1.93882E+04 -5.72541E+03  5.74635E+03 -7.26991E+03  2.48266E+04  1.42431E+04
  7.71699E+03  3.71772E+04 -3.28244E+04  3.79689E+04 -6.65637E+04  3.87987E+03 -5.88970E+04 -4.50706E+04
 -1.32438E+04 -6.64400E+04  4.17928E+04 -4.76097E+04  6.35438E+04 -2.78633E+03  3.61123E+04  3.56946E+04
 -4.95305E+03  3.95828E+04 -3.21483E+04  1.94642E+04 -3.27643E+04 -2.13266E+03 -1.97885E+04 -1.18327E+04
 -8.78460E+03 -1.52827E+04  5.44422E+02 -2.00087E+04  6.88567E+03 -2.35923E+04  1.61034E+04 -1.29327E+04
  1.05834E+04  7.22664E+03 -1.05318E+04  1.24365E+04 -2.38961E+04 -5.49566E+03 -7.74405E+03 -3.67630E+04
  2.51214E+04 -4.66886E+04  5.34357E+04 -2.00306E+04  4.78362E+04  1.92691E+04  1.78274E+04  4.68115E+04
 -1.56766E+04  3.77788E+04 -2.71127E+04  1.57042E+03 -1.13220E+04 -2.87913E+04  2.11445E+04 -3.75574E+04
  4.54821E+04 -1.01520E+04  4.03473E+04  2.59606E+04  2.24852E+04  4.97989E+04 -8.37284E+03  5.67631E+04
 -3.60178E+04  3.92682E+04 -4.89915E+04  1.15083E+04 -4.89148E+04 -1.79165E+04 -2.59934E+04 -4.19320E+04
  7.04179E+03 -4.22822E+04  3.35688E+04 -1.69803E+04  3.23310E+04  1.26691E+04  6.54800E+03  2.01741E+04
 -1.47270E+04  9.58618E+03 -1.00282E+04 -7.38363E+03  6.64542E+03 -1.16278E+04  1.83582E+04  5.17760E+03
  1.33101E+04  2.24829E+04 -5.29234E+03  2.56376E+04 -2.37844E+04  1.30616E+04 -3.04995E+04 -2.18880E+03
 -2.40049E+04 -1.99368E+04 -1.27072E+04 -2.49018E+04  6.69011E+03 -2.73261E+04  2.10709E+04 -2.31008E+04
  3.29009E+04 -1.40783E+04  3.86789E+04  4.57183E+03  2.56616E+04  2.38708E+04  5.08774E+03  4.23712E+04
 -2.03747E+04  3.28487E+04 -3.09842E+04  1.17867E+04 -2.25436E+04 -9.87780E+03 -6.10243E+03 -1.29586E+04
  1.59668E+03  2.54966E+01 -8.53087E+03  7.67572E+03 -2.15113E+04  2.41480E+03 -2.10069E+04 -8.41264E+03
 -1.13788E+04 -2.33484E+04  6.63924E+03 -2.73982E+04  2.01808E+04 -2.09402E+04  2.15578E+04 -2.00369E+03
  1.52379E+04  1.63791E+04 -1.85783E+03  2.38400E+04 -1.65782E+04  1.32299E+04 -2.55678E+04 -4.84962E+03
 -1.76851E+04 -2.20221E+04 -2.85417E+03 -2.87736E+04  1.17877E+04 -2.46278E+04  2.42875E+04 -1.36789E+04
  2.30282E+04 -1.75223E+03  1.71606E+04  5.68828E+03  8.37674E+03  2.88322E+03  1.27770E+04 -3.06023E+03
  1.99210E+04  1.73390E+03  2.56986E+04  1.76695E+04  1.83987E+04  3.91105E+04 -1.52563E+03  4.36380E+04
 -2.59332E+04  3.76546E+04 -4.29906E+04  1.96205E+04 -4.56188E+04 -5.18991E+03 -3.77461E+04 -2.44143E+04
 -1.39926E+04 -3.77453E+04  1.38742E+04 -3.29521E+04  2.75667E+04 -1.36043E+04  2.44324E+04  8.34936E+03
  6.96005E+03  1.88116E+04 -1.14346E+04  1.47200E+04 -2.10804E+04  3.98108E+03 -1.54319E+04 -1.14115E+04
 -4.85599E+02 -2.00821E+04  9.43277E+03 -1.42831E+04  1.24361E+04 -2.55300E+03  2.74583E+03  7.90158E+03
 -9.73363E+03  4.02491E+03 -9.68738E+03 -7.60967E+03 -2.68536E+03 -2.06465E+04  1.27211E+04 -1.94249E+04
  2.38600E+04 -1.32587E+04  2.80035E+04  3.16228E+03  2.29214E+04  1.94856E+04  1.15236E+04  3.05977E+04
 -6.81382E+03  3.25651E+04 -2.06111E+04  2.00204E+04 -2.33671E+04  3.10547E+03 -1.45028E+04 -4.13606E+03
 -7.03216E+03 -8.57036E+03 -1.49108E+03 -4.32508E+02 -3.57092E+03  3.05290E+03 -8.10496E+03  5.20425E+03
 -1.33824E+04 -1.07833E+03 -1.52484E+04 -1.26963E+04 -6.62095E+03 -2.04892E+04  5.51549E+03 -1.56175E+04
  1.36773E+04 -7.11031E+03  1.00467E+04  4.95201E+03  9.05941E+02  3.98586E+03 -8.28824E+03 -9.25532E+01
 -7.97397E+03 -8.95095E+03 -2.20633E+03 -1.50971E+04  8.84817E+03 -1.70593E+04  2.00863E+04 -9.96022E+03
  2.36903E+04  2.43880E+03  1.64536E+04  1.57582E+04  2.97350E+03  2.23817E+04 -1.07874E+04  1.65293E+04
 -1.17880E+04  3.55037E+03 -6.75696E+03 -4.12987E+03  2.32447E+03 -5.77852E+03  9.19950E+03 -2.28301E+03
  6.88823E+03  6.77591E+03 -4.62903E+02  1.19190E+04 -9.24964E+03  1.13192E+04 -1.54426E+04  3.47607E+03
 -1.19619E+04 -7.56869E+03  4.99831E+02 -1.27805E+04  8.81217E+03 -8.11454E+03  1.01042E+04  4.28311E+03
  2.27226E+03  9.49408E+03 -8.22455E+03  1.19221E+04 -1.45104E+04  5.36208E+03 -1.36842E+04 -4.78902E+03
 -6.76801E+03 -1.60909E+04  3.35976E+03 -1.92010E+04  1.61091E+04 -1.06301E+04  1.82120E+04  2.97876E+03
  1.24121E+04  1.23298E+04 -1.03040E+03  1.65765E+04 -1.16265E+04  9.34277E+03 -1.34621E+04 -1.33776E+03
 -1.05571E+04 -1.03834E+04 -2.58410E+03 -1.15790E+04  6.03677E+03 -1.20433E+04  9.76328E+03 -4.62304E+03
  7.76527E+03  2.67332E+03 -5.66460E+02  2.41348E+03 -3.05836E+03 -2.76270E+03  2.20876E+03 -8.16710E+03
  1.01487E+04 -4.84255E+03  1.80967E+04  1.17114E+03  1.56734E+04  1.26156E+04  1.08638E+04  2.15219E+04
 -4.89374E+03  2.59009E+04 -1.87394E+04  1.67908E+04 -2.64175E+04  3.61136E+03 -2.20841E+04 -1.00227E+04
 -1.08686E+04 -1.64192E+04  3.00051E+02 -1.56996E+04  5.62679E+03 -9.53730E+03  6.34558E+03 -5.93164E+03
  4.49944E+03 -2.40100E+03  3.80453E+03 -3.71442E+03  6.99407E+03 -4.31785E+03  9.27031E+03 -9.95586E+02
  9.83334E+03  1.26249E+03  5.93014E+03  1.07893E+04 -2.03894E+02  1.09026E+04 -1.33604E+04  8.12102E+03
 -1.66592E+04 -3.10584E+03 -1.05926E+04 -1.00682E+04 -1.12930E+03 -1.60896E+04  9.56140E+03 -1.62044E+04
  1.72524E+04 -9.63972E+03  2.07655E+04  3.28454E+03  1.30476E+04  1.42417E+04  1.60691E+03  1.82470E+04
 -8.04049E+03  1.37344E+04 -1.21415E+04  6.17093E+03 -6.83129E+03 -2.48856E+03 -3.19326E+03 -3.90204E+03
 -6.03017E+02 -7.76495E+02 -2.27582E+03  3.61182E+03 -6.43522E+03  3.63694E+03 -1.05736E+04 -1.75859E+03
 -8.11200E+03 -1.05047E+04 -1.00189E+03 -1.45842E+04  1.14911E+04 -1.42804E+04  1.58798E+04 -4.48012E+03
  1.48079E+04  8.05949E+03  7.26766E+03  1.42612E+04 -2.37193E+03  1.58365E+04 -1.11765E+04  9.82109E+03
 -1.30976E+04 -1.33748E+03 -1.09358E+04 -9.67436E+03 -1.58756E+03 -1.41748E+04  8.04952E+03 -9.36871E+03
  1.02502E+04 -3.98385E+03  8.39592E+03  3.22026E+03  2.26934E+03  5.49231E+03  1.23242E+03  2.15099E+03
  3.24147E+03  8.70701E+02  2.42227E+03  2.83795E+03  4.03745E+03  5.05581E+03  4.52867E+03  7.55966E+03
 -1.96192E+03  1.15280E+04 -1.00388E+04  1.23116E+04 -1.48458E+04  2.31763E+03 -1.71020E+04 -5.57134E+03
 -5.75449E+03 -1.65521E+04  1.99188E+03 -1.64661E+04  8.48220E+03 -1.00938E+04  1.27619E+04 -2.92819E+03
  8.85128E+03  5.33905E+03  2.53664E+03  9.27422E+03 -4.11851E+03  6.46833E+03 -6.37133E+03 -1.60085E+03
 -1.47223E+03 -6.24517E+03  2.86153E+03 -5.56742E+03  4.14971E+03 -1.94905E+03  5.97210E+03  3.12467E+03
  4.97576E+03  2.67946E+03  1.53077E+03  1.85289E+03  1.33166E+02  9.04119E+02  1.08511E+03  2.81523E+02
  3.34210E+03  1.16835E+03  5.61961E+03  2.45280E+03  2.61156E+03  7.80071E+03 -1.14731E+03  1.15391E+04
 -5.91234E+03  9.30802E+03 -1.19689E+04  1.69604E+03 -7.56659E+03 -4.32940E+03 -5.04586E+03 -4.80117E+03
  1.79750E+02 -6.43063E+03  3.86900E+03 -3.83836E+03  3.34169E+03  1.38725E+03 -2.32276E+03  5.93024E+03
 -8.15796E+03  2.72573E+03 -7.01461E+03 -3.28753E+03 -4.20798E+03 -1.05592E+04  1.30715E+03 -9.40845E+03
  5.94674E+03 -5.93290E+03  6.20668E+03 -1.02349E+03  5.04034E+03  2.49095E+03 -1.30995E+03  4.30910E+03
 -5.37708E+03  8.37542E+02 -3.60629E+03 -4.53144E+03  8.58159E+02 -8.09468E+03  7.88970E+03 -3.42167E+03
  1.05882E+04 -5.24765E+02  9.74431E+03  6.02731E+03  4.31900E+03  1.03460E+04 -2.43014E+03  8.37189E+03
 -7.38761E+03  3.98529E+03 -9.91926E+03 -1.53271E+03 -5.44927E+03 -4.88489E+03  2.36270E+03 -6.74327E+03
  6.02527E+03 -1.81163E+03  5.41616E+03  4.01285E+03  1.78352E+03  5.90143E+03 -2.77031E+03  4.39352E+03
 -2.17009E+03  2.59354E+02 -2.52663E+03  1.53645E+03 -2.37072E+03  1.81500E+03 -9.39850E+02  2.10685E+03
 -2.98452E+03  3.84059E+03 -6.61092E+03  4.11581E+03 -8.96575E+03  7.56733E+02 -1.21868E+04 -5.96653E+03
 -6.52144E+03 -1.32957E+04  1.75312E+03 -1.29299E+04  1.12175E+04 -1.31993E+04  1.40546E+04 -5.83135E+03
  1.41845E+04  3.91617E+03  8.02083E+03  8.92037E+03  1.70341E+03  1.15075E+04 -5.10448E+03  7.71491E+03
 -7.06908E+03  4.41850E+03 -4.38393E+03 -9.31485E+02 -1.62399E+03 -1.25215E+03  4.35999E+02 -8.86323E+02
 -9.44374E+02 -3.44861E+02 -1.34349E+03 -9.74036E+02 -2.15762E+03 -2.11653E+03 -1.82719E+01 -3.86138E+03
  4.93898E+03 -4.03695E+03  6.77066E+03  4.65771E+02  8.45646E+03  5.05979E+03  1.64130E+03  9.44445E+03
 -3.85393E+03  1.34875E+04 -1.31534E+04  7.12105E+03 -1.21614E+04 -1.92207E+03 -9.20751E+03 -7.24531E+03
 -3.90194E+03 -1.16449E+04  3.34293E+03 -1.02890E+04  7.31406E+03 -3.56132E+03  6.41714E+03  3.55448E+02
  4.44397E+03  2.18736E+03 -4.41408E+02  2.80130E+03 -1.99241E+03  6.97590E+02 -7.11976E+01 -2.33040E+03
  3.49980E+03 -1.55890E+03  5.28458E+03 -3.73007E+02  3.07972E+03  2.66997E+03  5.92369E+02  4.67154E+03
 -6.51026E+03  3.97174E+03 -6.75796E+03  1.72642E+03 -5.77760E+03 -6.05221E+03 -2.17998E+03 -1.02663E+04
  3.90752E+03 -7.29838E+03  9.56892E+03 -3.34141E+03  9.02363E+03  2.33640E+03  4.27396E+03  6.00317E+03
  4.39862E+02  7.58614E+03 -1.79035E+03  5.38994E+03 -3.32296E+03  3.17173E+03 -3.70714E+03 -3.57894E+02
 -1.59273E+03 -8.30410E+02 -4.33767E+02  1.30950E+03 -3.52780E+03 -5.99408E+02 -7.47869E+03 -1.43033E+03
 -4.20728E+03 -3.73017E+03 -2.24540E+03 -6.59792E+03  3.77092E+03 -6.77108E+03  6.91491E+03 -5.72436E+03
  7.32439E+03  2.80891E+03  4.30272E+03  6.43622E+03 -1.92793E+03  6.98670E+03 -5.50219E+03  5.77120E+03
