 $NMID ID='MM_0lb_SNR200_16hz_g55_51.RAW', FMTDAT='(8E13.5)'
 TRAMP=1., VOLUME=1. $END
  3.10608E+05  1.00006E+03  3.38147E+05  2.51007E+05  8.51609E+04  3.37360E+05 -1.32730E+05  2.51126E+05
 -1.89488E+05  8.25990E+04 -1.12300E+05 -3.28528E+04  1.00172E+03 -5.05680E+04  5.42034E+04  3.26479E+02
  3.52375E+04  5.22729E+04 -1.74764E+04  7.61605E+04 -6.00540E+04  6.25736E+04 -8.36846E+04  3.23638E+04
 -8.11523E+04 -1.16857E+04 -5.76846E+04 -5.16821E+04 -1.54166E+04 -6.96300E+04  2.73730E+04 -4.56229E+04
  3.97101E+04  3.89376E+03  1.50275E+04  4.79831E+04 -3.26680E+04  4.66940E+04 -6.61390E+04 -7.86153E+00
 -5.35996E+04 -5.57306E+04 -6.40158E+03 -7.69740E+04  3.30484E+04 -5.40359E+04  4.76144E+04 -1.64677E+04
  4.24838E+04  1.19538E+04  3.15955E+04  2.46481E+04  1.75522E+04  2.98511E+04 -5.86551E+03  2.72203E+04
 -2.13670E+04  1.24209E+04 -1.92696E+04 -5.68032E+03  6.44675E+03 -7.51614E+03  2.14635E+04  1.19940E+04
  7.26910E+03  3.60386E+04 -3.15040E+04  3.45817E+04 -6.31674E+04  1.19602E+03 -5.76388E+04 -4.16568E+04
 -1.30225E+04 -6.06754E+04  3.97754E+04 -4.48746E+04  5.78286E+04 -3.36625E+03  3.35973E+04  3.23280E+04
 -5.95192E+03  3.64166E+04 -2.90365E+04  1.59991E+04 -2.96492E+04 -4.38689E+03 -1.64246E+04 -9.95489E+03
 -8.18532E+03 -1.28275E+04 -4.94097E+02 -1.69179E+04  7.43179E+03 -2.23949E+04  1.55360E+04 -1.35962E+04
  1.09464E+04  4.63252E+03 -7.70978E+03  1.36004E+04 -2.08215E+04 -4.06911E+03 -8.43719E+03 -3.35175E+04
  2.22552E+04 -4.27009E+04  4.75529E+04 -2.13436E+04  4.44004E+04  1.90991E+04  1.57562E+04  4.36663E+04
 -1.59668E+04  3.33519E+04 -2.52692E+04  1.24781E+03 -8.86968E+03 -2.87113E+04  2.09809E+04 -3.43732E+04
  3.97208E+04 -8.04155E+03  3.41482E+04  2.38772E+04  1.78065E+04  4.49938E+04 -7.60466E+03  4.92980E+04
 -3.18860E+04  3.12250E+04 -4.17233E+04  1.04184E+04 -4.15069E+04 -1.57624E+04 -2.31704E+04 -3.72704E+04
  6.29735E+03 -3.63428E+04  3.09340E+04 -1.45048E+04  2.89935E+04  1.05808E+04  3.29842E+03  1.94284E+04
 -1.44870E+04  7.81481E+03 -1.01861E+04 -7.96806E+03  4.87156E+03 -1.08017E+04  1.81422E+04  5.07534E+03
  1.25425E+04  2.09668E+04 -4.98674E+03  2.47625E+04 -2.30475E+04  1.17516E+04 -2.76378E+04 -5.19768E+03
 -1.95724E+04 -1.82829E+04 -8.05790E+03 -1.91866E+04  3.53898E+03 -1.93321E+04  1.49211E+04 -1.69401E+04
  2.59522E+04 -1.24711E+04  3.12340E+04  1.80281E+03  2.38967E+04  1.94045E+04  4.24024E+03  3.50798E+04
 -1.74468E+04  2.94766E+04 -2.72866E+04  9.92199E+03 -2.13002E+04 -1.03126E+04 -5.24293E+03 -1.37194E+04
  3.21962E+03 -3.66079E+03 -4.75760E+03  6.96611E+03 -1.51593E+04  5.28384E+03 -1.64425E+04 -6.54663E+03
 -1.11193E+04 -1.89564E+04  4.13243E+03 -2.13950E+04  1.43862E+04 -1.53302E+04  1.76567E+04 -2.59300E+03
  1.07999E+04  1.29895E+04  3.19921E+01  1.80120E+04 -1.22732E+04  1.09772E+04 -1.91354E+04 -3.54718E+03
 -1.20924E+04 -1.59651E+04 -1.12280E+03 -2.22762E+04  9.39091E+03 -1.78293E+04  1.92775E+04 -7.73229E+03
  1.73660E+04  3.55359E+02  1.15343E+04  5.15601E+03  6.03924E+03  7.33619E+02  8.70187E+03 -2.44865E+03
  1.65562E+04  2.60707E+03  1.83512E+04  1.29398E+04  1.20107E+04  2.84276E+04 -2.76055E+03  3.32529E+04
 -1.91416E+04  2.58421E+04 -3.01275E+04  1.32740E+04 -3.05646E+04 -3.15443E+03 -2.57732E+04 -1.83100E+04
 -9.27940E+03 -2.46119E+04  8.52955E+03 -2.34731E+04  1.96209E+04 -1.19368E+04  1.88262E+04  4.34935E+03
  7.30615E+03  1.26143E+04 -9.47688E+03  1.07533E+04 -1.64223E+04  1.70468E+03 -1.10440E+04 -9.76344E+03
 -9.18430E+02 -1.45579E+04  6.94247E+03 -1.07253E+04  8.54237E+03 -2.31427E+03  2.43945E+03  7.66960E+03
 -6.28102E+03  2.05602E+03 -5.62434E+03 -4.90220E+03 -8.65081E+02 -1.27792E+04  8.97411E+03 -1.35993E+04
  1.52521E+04 -6.18286E+03  1.67264E+04  2.68849E+03  1.41369E+04  1.29148E+04  6.87489E+03  1.88921E+04
 -1.70465E+03  1.97613E+04 -1.24794E+04  1.27052E+04 -1.37052E+04  2.99767E+03 -1.02937E+04 -2.64108E+03
 -6.09744E+03 -4.70291E+03 -1.39537E+02  1.73588E+03 -2.86203E+03  2.61352E+03 -4.46133E+03  4.29717E+03
 -8.61654E+03 -6.47415E+02 -1.00064E+04 -9.22589E+03 -3.13540E+03 -1.38560E+04  4.93241E+03 -1.11075E+04
  8.78658E+03 -5.08224E+03  7.26570E+03  3.23213E+03  1.41292E+03  3.62763E+03 -6.01568E+03  3.61204E+02
 -5.71697E+03 -7.06873E+03 -4.49900E+01 -1.02402E+04  5.74138E+03 -9.86631E+03  1.24443E+04 -5.68594E+03
  1.58340E+04  1.14745E+03  1.08993E+04  7.44082E+03  1.20686E+03  1.24689E+04 -6.10450E+03  1.00370E+04
 -8.97782E+03  3.76490E+03 -3.76852E+03 -1.17139E+03  1.63449E+03 -2.45355E+03  6.34268E+03 -2.57266E+02
  5.03471E+03  4.57186E+03  6.70559E+02  7.37259E+03 -5.44010E+03  8.14675E+03 -9.66381E+03  2.36574E+03
 -6.33022E+03 -4.61983E+03  2.51334E+02 -8.30483E+03  3.95117E+03 -4.89093E+03  5.31271E+03  1.11854E+03
  1.09887E+03  6.35965E+03 -5.98234E+03  7.19660E+03 -6.43871E+03  3.17751E+03 -7.24989E+03 -2.18331E+03
 -3.09870E+03 -8.55915E+03  1.43835E+03 -9.43377E+03  8.14216E+03 -6.07239E+03  7.88826E+03  2.02863E+03
  6.33018E+03  7.10709E+03 -2.62680E+02  9.27879E+03 -6.55349E+03  5.62692E+03 -6.85876E+03 -4.21628E+02
 -6.49989E+03 -6.83128E+03 -1.53244E+03 -7.74713E+03  4.09839E+03 -4.60321E+03  3.24011E+03 -3.56390E+03
  4.29371E+03  6.16278E+02 -1.26487E+03  1.29934E+03  1.22919E+02 -1.17450E+03  7.82749E+02 -3.66525E+03
  5.10748E+03 -1.10378E+03  7.52060E+03  1.86121E+03  8.51512E+03  3.39288E+03  7.13748E+03  1.05137E+04
 -2.53325E+03  1.17964E+04 -1.07053E+04  8.00436E+03 -1.49198E+04  1.89001E+03 -1.12356E+04 -4.85353E+03
 -5.27884E+03 -8.94468E+03 -1.29046E+03 -7.57332E+03  2.41863E+03 -3.25920E+03  2.50345E+03 -3.01352E+03
  2.94732E+03 -1.87194E+03  2.87965E+03 -2.02123E+03  3.50142E+03 -1.34963E+03  4.09708E+03  2.69524E+02
  5.45307E+03  1.90726E+03  1.90043E+03  4.63560E+03 -2.41121E+03  4.41858E+03 -5.95083E+03  3.45044E+03
 -7.00559E+03 -7.32457E+01 -2.95468E+03 -5.81354E+03  1.28137E+03 -7.55010E+03  4.78709E+03 -8.64242E+03
  8.43232E+03 -4.47733E+03  9.15352E+03  1.07116E+03  5.42362E+03  6.16568E+03 -2.50841E+02  9.17031E+03
 -2.46742E+03  8.28835E+03 -4.74798E+03  2.24098E+03 -2.59893E+03 -1.43331E+02 -1.66544E+03 -1.21116E+02
 -2.33430E+02  5.32605E+02 -1.93363E+03  2.39311E+03 -3.32836E+03  8.02268E+02 -4.73102E+03 -7.20188E+02
 -1.71563E+03 -5.67332E+03  6.01001E+02 -6.52988E+03  5.41856E+03 -5.97018E+03  4.76537E+03 -1.87284E+03
  4.89197E+03  3.15225E+03  1.87985E+03  6.07876E+03 -1.46231E+03  4.60680E+03 -3.10145E+03  4.11525E+03
 -7.36403E+03  1.41574E+03 -3.86999E+03 -3.61605E+03  1.20273E+01 -5.45544E+03  4.23293E+03 -3.11953E+03
  3.88046E+03 -1.58528E+03  1.91306E+03  1.85319E+03  2.84544E+03  2.05703E+03  1.07220E+03  2.12959E+02
  1.49582E+03 -1.10859E+02  1.52527E+03  1.00934E+03  1.44159E+03  3.93132E+03  1.19007E+03  1.27080E+03
 -1.26041E+03  4.37256E+03 -3.91738E+03  5.57940E+03 -4.57908E+03  1.62162E+03 -6.29872E+03 -1.26091E+03
 -3.12755E+03 -6.50825E+03  6.40417E+02 -6.20504E+03  3.18731E+03 -4.60236E+03  5.10160E+03 -5.67760E+02
  4.28838E+03  2.66829E+03  6.98512E+02  3.03565E+03 -1.85252E+03  1.74095E+03 -2.10683E+03 -2.64899E+02
 -1.71603E+03 -2.19642E+03  2.19403E+03 -2.11381E+03  2.50828E+03 -2.91768E+02  2.48273E+03  1.20415E+03
  2.14959E+03 -7.34918E+01  1.61892E+03  1.41014E+02  2.14555E+01  3.01402E+02  2.01549E+03 -8.27978E+02
  1.26804E+03 -1.12353E+03  2.64553E+03  1.74979E+03  2.63544E+02  2.29342E+03 -6.85971E+02  4.03443E+03
 -1.89677E+03  1.04028E+03 -2.33806E+03  3.12451E+02 -1.90547E+03 -7.64864E+02  4.25250E+02 -2.05400E+03
  2.04629E+02 -2.13997E+03  1.50662E+03 -1.05284E+03  8.93842E+02  3.21888E+03 -1.29655E+03  2.20755E+03
 -2.70534E+03  1.05975E+03 -2.21417E+03 -2.08438E+02 -2.49234E+03 -2.15763E+03  1.36783E+03 -2.20861E+03
  1.65140E+03 -2.05995E+03  1.37558E+03 -7.11647E+02  2.67111E+03 -1.99084E+02  7.74235E+02  2.08556E+03
 -7.25781E+02 -3.34216E+01 -1.56061E+03  1.32406E+02  1.06237E+03 -1.81974E+03  2.24269E+03 -2.50194E+03
  3.24776E+03  1.00256E+03  3.06118E+03  1.63231E+03  2.78132E+03  2.85650E+03 -3.68101E+02  1.79175E+03
 -2.59356E+03  2.02817E+03 -2.05930E+03  1.20331E+02 -2.45403E+03 -2.17625E+03  1.18657E+03 -7.08540E+02
  2.10390E+03 -8.01206E+02  9.20973E+02  3.06360E+02  6.53449E+02  2.93710E+03  6.62542E+02  1.01049E+03
 -8.92105E+02  1.20791E+03  3.48594E+02  5.86962E+01 -6.80807E+02  1.01650E+03 -5.56902E+02  1.58619E+03
 -1.11208E+03  1.19333E+03 -2.71440E+03  2.04784E+03 -2.74148E+03  1.92082E+02 -3.55063E+03 -1.83736E+03
 -1.68949E+03 -3.16322E+03  3.90535E+02 -3.26131E+03  2.27183E+03 -3.85340E+03  4.60553E+03 -1.71609E+03
  3.20335E+03  7.73356E+02  2.58206E+03  2.92903E+03 -1.61635E+03  2.95204E+03 -1.17064E+03  2.68443E+03
 -5.93209E+02  1.25551E+03 -6.47253E+01  8.55411E+02 -9.24657E+02  8.89113E+02 -1.55159E+03 -1.67797E+02
 -9.21087E+02  2.88017E+02 -9.97902E+02  4.56453E+02 -2.29201E+02 -4.13256E+02  1.60203E+02 -1.81169E+03
  2.71622E+03 -4.49062E+02  8.61231E+02  1.94464E+03  2.57705E+03  1.13576E+03  3.22907E+02  8.53348E+02
 -2.19596E+03  3.03139E+03 -1.65916E+03  2.25114E+03 -3.02145E+03 -1.03171E+03 -2.20526E+03 -2.50604E+03
 -3.40697E+02 -2.54264E+03  8.23415E+02 -1.54770E+03  5.35923E+02 -4.58736E+02  1.01694E+03 -3.85799E+02
  1.28616E+03 -6.66901E+02  4.45297E+02 -4.95295E+02 -7.36077E+02  1.62623E+02 -3.39941E+02 -2.88675E+02
  1.63040E+03 -9.20184E+02  8.91770E+01  1.92370E+02 -6.13627E+01  1.23258E+03 -2.11768E+02  1.40344E+03
 -2.18308E+03  7.65848E+02 -2.51366E+03 -2.79111E+02 -1.00721E+03 -1.76155E+03 -1.14642E+02 -1.59306E+03
  1.29334E+03 -2.08895E+03  1.59609E+03  6.55252E+02  2.17848E+03 -9.82475E+00  1.70058E+02  2.19566E+03
  1.61513E+03  1.24589E+03 -1.73194E+03  2.24091E+03 -7.28244E+02  1.59132E+03 -1.17593E+03  6.22666E+02
  1.51951E+02 -6.35982E+02 -1.03717E+02  7.53832E+01 -1.18832E+03 -2.51971E+02 -1.23898E+03 -9.71487E+02
  3.81945E+02 -4.32664E+02 -7.27012E+02 -8.04138E+02  1.35040E+03 -1.65876E+03  6.78532E+02  7.22710E+01
  1.72164E+03 -3.62963E+02 -1.28531E+03 -3.32127E+02 -1.93048E+02  1.16742E+03 -3.26253E+02  8.52567E+02
