 $NMID ID='MM_0lb_SNR200_9hz_g40_50.RAW', FMTDAT='(8E13.5)'
 TRAMP=1., VOLUME=1. $END
  3.10806E+05  2.74699E+03  3.38964E+05  2.49674E+05  8.53002E+04  3.37657E+05 -1.33065E+05  2.52566E+05
 -1.92137E+05  8.47645E+04 -1.11505E+05 -3.26413E+04 -1.72707E+02 -4.96638E+04  5.38720E+04 -3.01056E+03
  3.55638E+04  5.41370E+04 -1.77719E+04  7.44203E+04 -6.16601E+04  6.43756E+04 -8.43017E+04  3.21468E+04
 -8.14401E+04 -1.07024E+04 -5.74690E+04 -5.27051E+04 -1.41447E+04 -7.10595E+04  2.98209E+04 -4.46942E+04
  4.12693E+04  3.46685E+03  1.71213E+04  4.85809E+04 -3.43268E+04  4.94093E+04 -6.88025E+04  7.74737E+01
 -5.56381E+04 -5.72720E+04 -7.15964E+03 -7.86866E+04  3.42924E+04 -5.67655E+04  4.83118E+04 -1.83376E+04
  4.51542E+04  1.07701E+04  3.27589E+04  2.84364E+04  1.72885E+04  3.07602E+04 -5.18523E+03  2.69648E+04
 -2.26274E+04  1.20002E+04 -1.90711E+04 -6.87891E+03  6.72858E+03 -8.77726E+03  2.34984E+04  1.31183E+04
  7.56027E+03  3.51819E+04 -3.23149E+04  3.63330E+04 -6.48881E+04  2.37397E+03 -5.85007E+04 -4.31673E+04
 -1.29096E+04 -6.58931E+04  4.19761E+04 -4.64845E+04  6.06499E+04 -2.35782E+03  3.69879E+04  3.28721E+04
 -5.66299E+03  3.75344E+04 -3.19679E+04  1.71367E+04 -3.39638E+04 -3.21214E+03 -1.91976E+04 -1.03724E+04
 -9.10308E+03 -1.54830E+04  1.24969E+03 -2.00082E+04  8.28275E+03 -2.37322E+04  1.58710E+04 -1.07378E+04
  1.06525E+04  5.77750E+03 -8.47788E+03  1.18396E+04 -2.29078E+04 -5.22551E+03 -8.72319E+03 -3.67730E+04
  2.53407E+04 -4.76513E+04  5.17573E+04 -2.17332E+04  4.68273E+04  2.04652E+04  1.66091E+04  4.59487E+04
 -1.56404E+04  3.64469E+04 -2.84570E+04  3.16224E+03 -1.17301E+04 -2.90225E+04  2.29226E+04 -3.54713E+04
  4.33696E+04 -1.16343E+04  3.80274E+04  2.57663E+04  2.12233E+04  5.22418E+04 -8.69323E+03  5.59195E+04
 -3.48589E+04  3.67464E+04 -4.66577E+04  9.99435E+03 -4.64576E+04 -1.88422E+04 -2.55281E+04 -4.21519E+04
  6.96421E+03 -4.02184E+04  3.32823E+04 -1.61911E+04  3.14802E+04  1.04075E+04  4.56809E+03  2.22963E+04
 -1.53553E+04  7.94687E+03 -1.21374E+04 -7.43822E+03  6.51363E+03 -1.32717E+04  1.96814E+04  4.53527E+03
  1.51152E+04  2.33664E+04 -6.70143E+03  2.69734E+04 -2.33110E+04  1.43301E+04 -3.15146E+04 -3.48222E+03
 -2.47739E+04 -1.79576E+04 -1.22717E+04 -2.39778E+04  4.33880E+03 -2.27366E+04  1.81112E+04 -2.40883E+04
  2.93005E+04 -1.37097E+04  3.81027E+04  4.85999E+03  2.67707E+04  2.40690E+04  4.95939E+03  4.04822E+04
 -2.02382E+04  3.17374E+04 -3.03693E+04  1.22413E+04 -2.28463E+04 -9.80351E+03 -4.63653E+03 -1.13793E+04
  6.87796E+02 -2.60017E+03 -7.39967E+03  7.54795E+03 -1.92940E+04  4.06375E+03 -2.04726E+04 -9.97745E+03
 -1.16210E+04 -2.37387E+04  7.16958E+03 -2.55424E+04  1.91917E+04 -1.75379E+04  2.15778E+04 -4.73056E+02
  1.54555E+04  1.37649E+04 -1.96401E+03  2.44954E+04 -1.60535E+04  1.24467E+04 -2.33503E+04 -4.98706E+03
 -1.64153E+04 -2.13035E+04 -3.50660E+03 -2.54454E+04  1.16824E+04 -2.20160E+04  2.26454E+04 -1.25260E+04
  1.85736E+04  1.33114E+03  1.60568E+04  6.00587E+03  7.84079E+03  1.73618E+03  1.14924E+04 -2.70964E+03
  1.97042E+04  1.97787E+03  2.37605E+04  1.70982E+04  1.68881E+04  3.51446E+04 -3.10818E+03  4.34994E+04
 -2.54553E+04  3.42850E+04 -4.07013E+04  1.93639E+04 -4.27012E+04 -4.25706E+03 -3.40655E+04 -2.52377E+04
 -1.52307E+04 -3.42482E+04  1.16384E+04 -3.09430E+04  2.74352E+04 -1.53609E+04  2.40847E+04  8.96335E+03
  9.61421E+03  1.89433E+04 -1.22122E+04  1.63353E+04 -1.95176E+04  2.09040E+03 -1.48760E+04 -1.17592E+04
  6.55560E+02 -1.87281E+04  1.02282E+04 -1.34239E+04  1.46472E+04 -1.26561E+03  3.99138E+03  7.68201E+03
 -9.51960E+03  3.88553E+03 -8.88517E+03 -7.37045E+03 -4.23116E+02 -1.57811E+04  1.17773E+04 -1.90904E+04
  2.25771E+04 -1.10332E+04  2.46578E+04  1.78204E+03  2.16734E+04  1.65240E+04  1.09948E+04  2.85383E+04
 -5.17959E+03  2.92801E+04 -1.83300E+04  1.80753E+04 -2.22214E+04  4.22972E+03 -1.53536E+04 -5.61182E+03
 -6.82035E+03 -7.93179E+03 -9.78255E+02  1.09433E+03 -1.96809E+03  5.19456E+03 -7.91932E+03  4.11043E+03
 -1.38968E+04 -7.02137E+02 -1.40163E+04 -1.06224E+04 -5.58688E+03 -1.90122E+04  5.21364E+03 -1.55336E+04
  1.09678E+04 -6.83980E+03  8.90231E+03  4.35958E+03 -1.20002E+03  6.34380E+03 -7.91054E+03 -7.08815E+02
 -6.39548E+03 -9.58876E+03 -5.70174E+02 -1.54738E+04  7.80451E+03 -1.54043E+04  2.01566E+04 -8.84970E+03
  2.31633E+04  1.58217E+03  1.69131E+04  1.51728E+04  3.05476E+03  1.76901E+04 -1.08029E+04  1.47991E+04
 -1.21116E+04  3.83477E+03 -6.84650E+03 -4.60128E+03  1.91896E+03 -5.00666E+03  9.68723E+03 -2.70096E+02
  6.76866E+03  4.41255E+03  1.70269E+03  1.09278E+04 -7.90271E+03  1.11171E+04 -1.63648E+04  2.80925E+03
 -9.98983E+03 -7.28595E+03  5.34742E+02 -1.21556E+04  1.05935E+04 -5.42906E+03  8.48464E+03  2.31567E+03
  2.36522E+03  1.01619E+04 -7.34419E+03  1.20124E+04 -1.23947E+04  4.74141E+03 -1.26671E+04 -3.31625E+03
 -8.18373E+03 -1.40206E+04  3.91670E+03 -1.66037E+04  1.44445E+04 -1.10598E+04  1.49887E+04  2.97551E+03
  9.75302E+03  1.38666E+04 -2.55429E+03  1.42881E+04 -1.18776E+04  7.96068E+03 -1.28871E+04  4.01566E+02
 -1.00328E+04 -1.03138E+04 -1.04816E+03 -1.03819E+04  5.99544E+03 -7.61773E+03  8.25684E+03 -5.26190E+03
  5.08156E+03  2.76272E+03 -7.48655E+02  2.71098E+03  4.46247E+02 -2.42656E+03  1.68799E+03 -7.44300E+03
  1.13602E+04 -4.99504E+03  1.64994E+04  2.40213E+02  1.40189E+04  1.08620E+04  8.88230E+03  2.02795E+04
 -5.67067E+03  2.29882E+04 -1.80713E+04  1.76235E+04 -2.42584E+04  2.99332E+03 -2.06199E+04 -7.92884E+03
 -1.04527E+04 -1.54667E+04 -5.15515E+02 -1.35960E+04  4.71599E+03 -7.59965E+03  5.12701E+03 -4.36253E+03
  2.55143E+03 -3.36983E+03  2.84274E+03 -3.84546E+03  5.67289E+03 -2.27622E+03  7.04752E+03 -5.63984E+02
  1.12437E+04  2.62457E+03  6.46358E+03  8.88123E+03 -2.70004E+03  1.16784E+04 -1.07373E+04  6.67995E+03
 -1.27921E+04 -8.31942E+02 -1.03157E+04 -9.37677E+03 -2.84256E+03 -1.61684E+04  8.76748E+03 -1.56874E+04
  1.43764E+04 -7.62911E+03  1.78456E+04  2.10352E+03  1.36356E+04  1.23092E+04  1.66839E+03  1.61859E+04
 -6.94020E+03  1.47670E+04 -9.30701E+03  6.71705E+03 -6.78731E+03 -1.64155E+03 -2.98076E+03 -2.02385E+03
 -1.60907E+03 -1.29132E+03 -1.56954E+03  2.74272E+03 -4.76026E+03  2.97410E+03 -1.06508E+04 -8.16066E+02
 -8.42364E+03 -9.90969E+03 -2.27277E+02 -1.34923E+04  9.96937E+03 -1.36166E+04  1.38755E+04 -3.48716E+03
  1.18054E+04  8.51937E+03  7.24507E+03  1.10251E+04 -2.84945E+03  1.52212E+04 -1.01037E+04  8.17424E+03
 -1.57207E+04 -2.96352E+02 -1.00725E+04 -8.03061E+03 -9.53503E+02 -1.24462E+04  6.73617E+03 -9.00132E+03
  8.16730E+03 -4.17488E+03  6.95796E+03  1.50293E+03  2.53105E+03  4.53209E+03  2.00575E+03  1.18890E+03
  1.39070E+03  6.15601E+02  3.70683E+03  2.35184E+03  4.90617E+03  4.62668E+03  4.44053E+03  8.58576E+03
 -3.17370E+03  1.16081E+04 -1.02825E+04  1.17785E+04 -1.34067E+04  4.14728E+03 -1.53053E+04 -5.16500E+03
 -5.55612E+03 -1.46438E+04  9.31199E+02 -1.58852E+04  8.73919E+03 -8.92691E+03  1.02245E+04 -3.01789E+03
  9.56940E+03  5.01274E+03  7.58614E+02  8.08890E+03 -4.83517E+03  6.26402E+03 -5.16724E+03 -2.84508E+02
 -3.94231E+03 -5.97237E+03  3.52467E+03 -7.45286E+03  5.78071E+03 -1.14330E+03  4.52195E+03  2.90666E+03
  4.53634E+03  2.61546E+03  7.11790E+02  3.47405E+03 -7.90771E+02  2.11433E+03  1.60867E+03 -1.49041E+03
  3.54306E+03 -2.84984E+02  6.58156E+03  3.29518E+03  4.41503E+03  8.57952E+03 -1.92340E+03  8.92613E+03
 -7.50549E+03  4.37406E+03 -9.09452E+03  2.43801E+03 -6.60824E+03 -1.84752E+03 -3.28404E+03 -7.40439E+03
  7.40580E+02 -5.25976E+03  3.25044E+03 -2.90384E+03  5.37218E+03  8.21541E+02 -2.21593E+02  5.29885E+03
 -4.89409E+03  2.45762E+03 -5.69242E+03 -1.48117E+03 -2.81006E+03 -8.55355E+03  1.87712E+03 -8.34295E+03
  4.14465E+03 -3.35091E+03  6.10665E+03 -5.23614E+02  4.19534E+03  1.20591E+03  7.17851E+02  4.09369E+03
 -3.40088E+03  2.01447E+03 -3.75353E+03 -2.41136E+03  6.43019E+02 -7.47244E+03  7.12004E+03 -4.34444E+03
  9.56809E+03  1.23053E+03  8.43904E+03  6.26096E+03  2.51641E+03  8.83079E+03 -3.16130E+03  8.97078E+03
 -8.06634E+03  4.21450E+03 -8.81915E+03 -1.09352E+03 -5.44252E+03 -6.55537E+03  7.13928E+02 -6.43944E+03
  7.33255E+03 -1.12755E+03  5.10030E+03  3.46276E+03  2.46442E+03  4.99711E+03 -1.63719E+03  4.53656E+03
 -2.77326E+03  2.93815E+03 -2.24249E+03  1.52721E+03 -2.03759E+03  2.38812E+03 -1.89272E+03  1.00227E+03
 -2.43119E+03  2.33411E+03 -6.58662E+03  3.74934E+03 -1.03400E+04  2.21972E+02 -1.01110E+04 -5.60565E+03
 -4.20059E+03 -1.22951E+04  2.38443E+03 -1.42954E+04  9.92493E+03 -1.01994E+04  1.42943E+04 -3.30035E+03
  1.37835E+04  1.78674E+03  8.47663E+03  6.38193E+03  3.47351E+02  1.00060E+04 -4.03022E+03  7.35794E+03
 -5.33060E+03  3.01962E+03 -4.18334E+03 -2.05518E+03 -9.94728E+02 -1.08312E+02 -3.69178E+02 -5.20043E+02
 -2.71705E+03 -5.37487E+02 -3.17267E+03  7.97608E+02  1.91874E+02 -3.50843E+03  8.62014E+02 -3.43485E+03
  3.25583E+03 -3.68698E+03  4.92975E+03 -5.33143E+02  5.81094E+03  5.17674E+03  2.52462E+03  9.47658E+03
 -4.34062E+03  1.03307E+04 -9.08219E+03  5.78583E+03 -1.01149E+04 -6.59379E+02 -8.60017E+03 -5.55882E+03
 -4.27680E+03 -1.03753E+04  2.79537E+03 -8.64479E+03  5.96934E+03 -4.82571E+03  7.56555E+03  1.42755E+03
  2.95411E+03  3.96625E+03  3.42406E+02  2.40885E+03 -1.45882E+03 -1.01945E+03  1.82422E+02 -2.19439E+03
  2.13935E+03 -1.09882E+03  4.82166E+03  3.98771E+02  2.77812E+03  3.71845E+03 -4.07599E+02  5.26158E+03
 -4.77197E+03  4.82048E+03 -6.50156E+03 -5.41730E+02 -6.10532E+03 -4.72784E+03 -2.31725E+03 -8.51048E+03
  4.59942E+03 -6.52651E+03  6.79503E+03 -1.81991E+03  7.18542E+03  2.44555E+03  3.62894E+03  7.27675E+03
  1.69153E+03  6.52847E+03 -2.35153E+03  5.27969E+03 -3.18244E+03  3.49892E+03 -3.42674E+03  6.33641E+02
 -2.66873E+03 -4.82072E+02 -2.17778E+03  1.40186E+03 -3.44656E+03  2.51626E+03 -4.16229E+03 -4.98169E+02
 -5.36367E+03 -3.92095E+03 -1.98291E+03 -6.78676E+03  4.06225E+03 -8.14633E+03  5.24773E+03 -4.08501E+03
  6.55024E+03  2.17488E+02  3.68776E+03  4.54906E+03 -3.84672E+02  7.18648E+03 -6.50389E+03  4.42518E+03
