 $NMID ID='MM_0lb_SNR200_17hz_g45_17.RAW', FMTDAT='(8E13.5)'
 TRAMP=1., VOLUME=1. $END
  3.09573E+05  2.04572E+03  3.37311E+05  2.50727E+05  8.43932E+04  3.37620E+05 -1.31810E+05  2.51238E+05
 -1.90051E+05  8.27440E+04 -1.11714E+05 -3.19794E+04  1.40578E+03 -5.09101E+04  5.32462E+04  8.83428E+02
  3.52100E+04  5.21558E+04 -1.67207E+04  7.47435E+04 -6.11316E+04  6.26494E+04 -8.28658E+04  3.06387E+04
 -7.95396E+04 -1.11456E+04 -5.66540E+04 -5.01408E+04 -1.53867E+04 -6.79726E+04  2.68831E+04 -4.45013E+04
  3.96415E+04  3.28308E+03  1.57128E+04  4.61502E+04 -3.42036E+04  4.55485E+04 -6.51264E+04 -3.96790E+02
 -5.37688E+04 -5.68258E+04 -5.27789E+03 -7.57769E+04  3.30312E+04 -5.36421E+04  4.60637E+04 -1.57264E+04
  4.22787E+04  1.24762E+04  3.19183E+04  2.47412E+04  1.62343E+04  2.89831E+04 -4.52475E+03  2.72945E+04
 -2.16224E+04  1.19155E+04 -1.85807E+04 -4.18259E+03  4.09805E+03 -7.19952E+03  2.06396E+04  1.11408E+04
  7.17175E+03  3.35411E+04 -3.02919E+04  3.37767E+04 -6.12857E+04  2.16528E+03 -5.53668E+04 -4.08099E+04
 -1.13660E+04 -6.10841E+04  3.84627E+04 -4.40002E+04  5.75861E+04 -1.88454E+03  3.21292E+04  3.07915E+04
 -5.92521E+03  3.42428E+04 -2.91012E+04  1.38206E+04 -2.86334E+04 -4.42518E+03 -1.54269E+04 -1.05628E+04
 -7.09512E+03 -1.27790E+04 -1.73402E+03 -1.69542E+04  7.12324E+03 -2.36107E+04  1.58220E+04 -1.43401E+04
  1.15729E+04  5.36737E+03 -6.48127E+03  1.36802E+04 -1.89866E+04 -3.91306E+03 -7.60791E+03 -3.13868E+04
  2.19609E+04 -4.17675E+04  4.54283E+04 -1.88366E+04  4.42626E+04  1.98377E+04  1.42308E+04  4.26511E+04
 -1.56092E+04  3.18025E+04 -2.38469E+04  1.53707E+03 -8.09150E+03 -2.70651E+04  2.06072E+04 -3.31470E+04
  3.89983E+04 -8.72277E+03  3.21402E+04  2.25959E+04  1.60562E+04  4.31684E+04 -7.63732E+03  4.56416E+04
 -2.94827E+04  3.10626E+04 -3.92546E+04  8.41035E+03 -4.03022E+04 -1.64049E+04 -2.14807E+04 -3.40354E+04
  7.26576E+03 -3.50089E+04  2.95587E+04 -1.27505E+04  2.76894E+04  1.14053E+04  2.96616E+03  1.93688E+04
 -1.23081E+04  8.42663E+03 -9.06870E+03 -6.77499E+03  5.65749E+03 -1.09441E+04  1.73304E+04  6.88125E+03
  1.31094E+04  2.22819E+04 -6.79332E+03  2.41813E+04 -2.10947E+04  9.34526E+03 -2.53478E+04 -5.04997E+03
 -1.71543E+04 -1.69684E+04 -6.82891E+03 -1.85247E+04  4.59124E+03 -1.62089E+04  1.34776E+04 -1.59163E+04
  2.21779E+04 -1.35510E+04  2.94004E+04  2.10315E+03  2.13433E+04  1.74510E+04  3.70086E+03  3.23446E+04
 -1.65159E+04  2.73499E+04 -2.57647E+04  9.56483E+03 -1.94806E+04 -1.14738E+04 -3.78509E+03 -1.34707E+04
  2.55337E+03 -3.30691E+03 -2.99568E+03  5.54091E+03 -1.39667E+04  4.36841E+03 -1.44744E+04 -5.20180E+03
 -7.82104E+03 -1.58714E+04  5.01890E+03 -2.05459E+04  1.35558E+04 -1.48037E+04  1.57589E+04 -1.74219E+03
  9.99576E+03  1.09477E+04 -1.85525E+03  1.68007E+04 -1.04457E+04  1.01579E+04 -1.59481E+04 -3.81368E+03
 -1.23797E+04 -1.42051E+04 -1.34439E+03 -1.99627E+04  8.59292E+03 -1.67727E+04  1.63648E+04 -7.89313E+03
  1.55117E+04  5.02474E+02  1.10658E+04  4.77000E+03  5.26319E+03  5.88831E+01  8.26013E+03 -2.27018E+03
  1.47164E+04  1.79981E+03  1.66989E+04  1.44107E+04  1.01809E+04  2.54267E+04 -2.77463E+03  2.92628E+04
 -1.73153E+04  2.23337E+04 -2.56879E+04  1.10380E+04 -2.82133E+04 -1.43422E+03 -2.28645E+04 -1.45231E+04
 -1.09574E+04 -2.17894E+04  6.32152E+03 -2.04267E+04  1.74645E+04 -1.14589E+04  1.63504E+04  3.71977E+03
  5.61623E+03  1.27589E+04 -7.04768E+03  1.15245E+04 -1.41409E+04  2.61258E+03 -1.10216E+04 -8.58743E+03
  3.40597E+02 -1.36620E+04  5.98109E+03 -1.05850E+04  8.64754E+03 -2.37752E+03  1.91042E+03  5.06575E+03
 -6.04813E+03  1.75743E+03 -4.06192E+03 -5.15681E+03  5.94485E+01 -1.17721E+04  7.75401E+03 -1.05468E+04
  1.33351E+04 -5.60136E+03  1.33157E+04  2.70585E+03  1.10988E+04  1.08619E+04  5.29043E+03  1.52317E+04
 -2.58793E+03  1.72021E+04 -1.00671E+04  1.16687E+04 -1.31346E+04  3.21121E+03 -8.83093E+03 -2.52173E+03
 -4.20733E+03 -3.49625E+03 -9.51630E+02  9.38757E+02 -2.49131E+03  2.84172E+03 -3.21080E+03  3.18946E+03
 -8.08705E+03 -1.13034E+02 -9.82707E+03 -9.39547E+03 -3.77380E+03 -1.33266E+04  3.65917E+03 -1.00506E+04
  7.97235E+03 -3.69794E+03  6.10438E+03  3.08720E+03  8.68331E+02  4.45563E+03 -3.68159E+03 -9.23574E+02
 -4.48706E+03 -5.96531E+03 -1.50294E+03 -7.32906E+03  4.57440E+03 -9.13429E+03  1.00852E+04 -3.88520E+03
  1.35399E+04  5.63197E+02  8.56690E+03  7.36955E+03  1.83994E+03  9.38755E+03 -6.23636E+03  8.76189E+03
 -7.51905E+03  3.86490E+03 -3.78795E+03 -1.03485E+03  1.97129E+03 -2.19138E+03  5.42823E+03 -1.04963E+03
  4.95606E+03  3.67998E+03  1.79162E+03  6.70568E+03 -4.34396E+03  7.05670E+03 -8.30906E+03  1.25948E+03
 -5.37412E+03 -3.93492E+03 -9.25649E+02 -6.89183E+03  4.70310E+03 -3.35475E+03  4.39127E+03  8.60698E+02
  1.93479E+03  3.66281E+03 -4.10740E+03  5.17694E+03 -4.70998E+03  2.51057E+03 -6.56632E+03 -1.31525E+03
 -3.10394E+03 -5.96900E+03  1.39674E+03 -8.28432E+03  5.90817E+03 -5.02450E+03  7.21605E+03  1.44066E+03
  4.59570E+03  5.23962E+03 -4.96117E+02  8.15937E+03 -6.83765E+03  4.84076E+03 -5.63450E+03 -9.61143E+02
 -6.72280E+03 -5.24881E+03 -6.98892E+02 -7.24545E+03  2.91309E+03 -5.94165E+03  2.79893E+03 -2.65167E+03
  1.85587E+03  9.32286E+02 -2.85493E+02  1.73629E+03  2.77502E+02 -2.91463E+02  1.54707E+02 -1.55039E+03
  5.21401E+03 -1.67436E+03  6.59804E+03  4.02926E+02  6.56324E+03  4.27237E+03  5.74106E+03  8.37822E+03
 -1.59630E+03  9.96459E+03 -8.60535E+03  6.99893E+03 -1.10496E+04  1.11380E+03 -8.87922E+03 -2.32637E+03
 -4.20191E+03 -7.93536E+03 -7.15570E+02 -5.72545E+03  2.43597E+03 -2.68024E+03  1.84853E+03 -2.73907E+03
  9.55611E+02 -2.79104E+03  1.39205E+03 -2.81018E+03  2.83782E+03 -1.77713E+03  3.91488E+03 -9.38893E+02
  6.06337E+03  1.07556E+03  5.63073E+02  2.87427E+03 -1.10802E+03  2.90415E+03 -5.23912E+03  2.13923E+03
 -6.30604E+03 -1.88347E+03 -2.01510E+03 -3.33159E+03  2.52825E+02 -6.27050E+03  4.01962E+03 -7.02394E+03
  5.79111E+03 -3.96012E+03  7.79149E+03  1.39745E+02  5.52613E+03  5.55529E+03  1.09678E+03  6.80289E+03
 -2.87784E+03  5.32678E+03 -5.26759E+03  1.51521E+03 -1.85130E+03 -1.03008E+03 -1.33258E+03 -1.00229E+03
  6.03800E+02  2.00665E+03 -1.83457E+03  2.68220E+03 -2.38450E+03  1.10464E+03 -4.05077E+03 -1.98652E+03
 -1.59216E+03 -4.68116E+03  1.19819E+03 -5.97975E+03  3.19855E+03 -6.03645E+03  4.34856E+03 -1.14915E+03
  4.18350E+03  4.07602E+03  2.89080E+03  5.31790E+03 -1.15768E+03  5.79851E+03 -3.26748E+03  3.09335E+03
 -4.82539E+03  9.46472E+01 -3.85320E+03 -3.09238E+03 -1.00796E+02 -3.06502E+03  1.89349E+03 -3.13113E+03
  2.99670E+03 -1.14658E+03  2.48989E+03  2.31651E+02 -3.10734E+02  1.44857E+03  7.24107E+02  6.73364E+02
  8.70746E+02 -3.98360E+02  1.72272E+03  4.94653E+02  1.71538E+02  2.03185E+03  9.64484E+02  2.13000E+03
 -5.36022E+02  3.22737E+03 -2.62729E+03  5.22587E+03 -3.54938E+03  9.75402E+02 -6.05768E+03 -1.17659E+03
 -2.59521E+03 -4.09517E+03  2.11218E+03 -6.05057E+03  1.91848E+03 -3.87957E+03  3.57447E+03 -1.28142E+03
  3.58643E+03  1.99461E+03 -5.50436E+02  2.66720E+03 -4.39117E+02  1.39418E+03 -2.18052E+03 -1.96836E+03
 -1.15126E+03 -1.61213E+03  1.08450E+03 -2.05264E+03  1.38488E+03 -1.46679E+03  1.25925E+03 -8.27000E+02
  9.05460E+02  1.16598E+02  1.36017E+03  2.65080E+02 -1.88310E+02  1.03407E+03  1.48172E+03 -9.27654E+01
  4.56590E+02 -1.58529E+03  2.19878E+03  1.27826E+03  8.10260E+02  3.59698E+03 -7.47602E+02  3.25731E+03
 -2.72090E+03  1.87052E+03 -2.33958E+03  1.31346E+02 -1.91138E+03 -6.52460E+02 -6.81329E+02  6.91168E+01
  5.18117E+02 -1.61994E+03  1.61110E+03 -2.01704E+03  6.73161E+02  5.40457E+02 -7.03774E+02  8.26568E+02
 -2.28954E+03  7.65796E+02 -1.32411E+03 -1.25084E+03 -1.02993E+03 -1.83661E+03 -6.96880E+02 -1.90464E+03
  7.08724E+01 -1.31740E+03  1.84977E+03 -2.27832E+02  2.22872E+03 -4.81517E+01  1.06489E+03  1.65333E+03
  7.07465E+01  8.66430E+02 -1.44877E+03 -8.30651E+02  1.05312E+03 -4.09261E+02  2.01046E+03 -2.90043E+02
  2.38096E+03  6.89122E+02  2.64983E+03  1.45269E+03  9.59336E+02  2.89944E+03 -7.35503E+02  3.44106E+03
 -1.97838E+03 -3.09264E+02 -1.59522E+03 -1.35658E+03 -7.23177E+02 -1.24234E+03  8.28065E+02 -6.81030E+02
  1.60167E+03 -8.95970E+02  1.34270E+03  3.62180E+02  8.05118E+02  2.06894E+03 -7.06278E+02  1.11280E+02
 -4.02875E+02  1.32572E+03  1.69467E+02  2.32556E+02 -8.76971E+02  8.04540E+02 -7.17531E+02  2.01660E+02
  2.76454E+02  9.19690E+02 -2.25307E+03  1.49350E+02 -2.49280E+03  8.73351E+01 -4.37236E+03 -1.33097E+03
 -9.30098E+02 -4.26073E+03  8.55401E+02 -3.06530E+03  5.33563E+02 -2.98818E+03  4.23306E+03 -7.68076E+02
  3.39541E+03 -1.24370E+03  6.67582E+02  2.05922E+03  1.07766E+01  2.06023E+03 -8.33395E+02  2.05261E+03
 -8.49384E+02  1.49304E+03 -1.31402E+02 -1.57141E+02 -9.34123E+02 -8.07330E+02  2.94619E+02  1.98813E+02
 -1.16458E+03 -3.07757E+01 -2.74752E+03  7.75561E+02  6.25306E+02 -9.76036E+02 -1.00483E+03 -1.37613E+03
  1.14996E+03 -6.95656E+02 -7.64208E+00 -1.00508E+03  9.30208E+02  1.18005E+03  1.97988E+02  2.38281E+03
 -2.23981E+03  2.85089E+03 -1.77906E+03  1.03124E+03 -3.31980E+03  2.22437E+02 -1.74638E+03 -1.87490E+03
 -6.89023E+02 -2.15393E+03  4.85429E+02 -2.83916E+03  6.10656E+02 -7.47877E+02  1.89551E+03 -5.54361E+02
  1.59104E+03  9.04428E+01  6.75320E+02 -4.00613E+02  5.63311E+02  1.24338E+02 -1.98268E+02  2.23538E+02
  1.19631E+03  1.45818E+02 -1.28073E+03 -4.92401E+02 -1.86187E+02  9.41923E+02  1.79109E+02  4.26806E+02
 -7.34450E+02  6.29860E+02 -1.46282E+03 -7.34710E+02 -2.79094E+02 -7.43921E+02  8.27610E+02 -1.56274E+03
  1.06262E+03 -7.87577E+02 -2.42756E+01 -4.28477E+02  1.31527E+03 -2.88102E+02  1.25397E+03  1.42726E+03
  9.95518E+02  6.46230E+02  8.04616E+02  1.06981E+03 -5.99088E+02  2.40213E+02 -1.24146E+03  4.44487E+01
  4.15310E+02 -5.68197E+02 -7.85251E+02  1.22881E+02 -7.65170E+02 -4.70035E+01 -1.41462E+03  2.73395E+02
 -1.78734E+03 -4.37906E+02 -7.74645E+02  3.23406E+01  8.88056E+02 -1.26353E+03  2.02951E+02  1.77856E+02
  1.02892E+03  1.31528E+03 -3.94087E+02  3.93834E+02  1.36138E+02  1.06850E+03 -8.78280E+02  1.21480E+03
