 $NMID ID='MM_0lb_SNR200_17hz_g50_80.RAW', FMTDAT='(8E13.5)'
 TRAMP=1., VOLUME=1. $END
  3.09955E+05  2.89815E+02  3.38024E+05  2.50569E+05  8.47798E+04  3.38036E+05 -1.32214E+05  2.51048E+05
 -1.91332E+05  8.18748E+04 -1.12086E+05 -3.31227E+04  2.10335E+03 -5.04248E+04  5.37870E+04  3.13579E+02
  3.62646E+04  5.27787E+04 -1.67256E+04  7.68537E+04 -6.04877E+04  6.35899E+04 -8.38990E+04  3.15071E+04
 -8.01933E+04 -1.04250E+04 -5.69647E+04 -5.07374E+04 -1.56195E+04 -6.87916E+04  2.72775E+04 -4.53957E+04
  3.94364E+04  3.39903E+03  1.55047E+04  4.70781E+04 -3.43707E+04  4.54679E+04 -6.51481E+04 -7.21125E+02
 -5.24287E+04 -5.47142E+04 -6.49121E+03 -7.52699E+04  3.29568E+04 -5.34314E+04  4.66462E+04 -1.74535E+04
  4.25559E+04  1.14831E+04  3.16026E+04  2.56957E+04  1.66323E+04  2.82477E+04 -4.57800E+03  2.72906E+04
 -2.17377E+04  1.31404E+04 -1.84675E+04 -5.86337E+03  5.94438E+03 -6.24056E+03  2.14665E+04  1.32086E+04
  8.35751E+03  3.38498E+04 -3.09344E+04  3.39251E+04 -6.17037E+04  2.58587E+03 -5.59229E+04 -4.26050E+04
 -1.23026E+04 -6.19590E+04  3.87913E+04 -4.46915E+04  5.63383E+04 -2.03222E+03  3.19374E+04  3.15275E+04
 -6.12942E+03  3.33764E+04 -2.92565E+04  1.42376E+04 -2.92841E+04 -4.06628E+03 -1.62840E+04 -1.09139E+04
 -7.98418E+03 -1.17526E+04 -1.01392E+03 -1.74205E+04  8.24731E+03 -2.33195E+04  1.52231E+04 -1.31139E+04
  1.20277E+04  4.59535E+03 -7.57991E+03  1.19666E+04 -2.03942E+04 -3.29339E+03 -8.89821E+03 -3.21910E+04
  2.07616E+04 -4.30714E+04  4.61811E+04 -1.90904E+04  4.48359E+04  1.98338E+04  1.44559E+04  4.26293E+04
 -1.58864E+04  3.23068E+04 -2.40044E+04  1.27693E+03 -8.69671E+03 -2.74368E+04  1.95481E+04 -3.20674E+04
  3.96544E+04 -8.77137E+03  3.22867E+04  2.40029E+04  1.64073E+04  4.38449E+04 -8.56723E+03  4.64688E+04
 -2.98581E+04  3.13769E+04 -3.97185E+04  8.34262E+03 -4.00033E+04 -1.58009E+04 -2.14387E+04 -3.68766E+04
  8.44415E+03 -3.52397E+04  3.04043E+04 -1.30417E+04  2.73461E+04  9.65431E+03  2.38524E+03  1.85289E+04
 -1.39224E+04  7.03609E+03 -1.05597E+04 -8.18162E+03  4.75628E+03 -8.99650E+03  1.72658E+04  6.81156E+03
  1.11630E+04  2.16203E+04 -6.98770E+03  2.48835E+04 -2.21793E+04  9.74704E+03 -2.65623E+04 -6.45772E+03
 -1.88937E+04 -1.73852E+04 -7.20069E+03 -1.84947E+04  3.98687E+03 -1.64231E+04  1.38281E+04 -1.63449E+04
  2.31779E+04 -1.18115E+04  2.95750E+04  3.37379E+02  2.24360E+04  1.78995E+04  4.29703E+03  3.43660E+04
 -1.60703E+04  2.83979E+04 -2.79078E+04  9.15166E+03 -2.06428E+04 -1.06271E+04 -4.24876E+03 -1.35409E+04
  2.03809E+03 -4.20050E+03 -3.93827E+03  5.44634E+03 -1.46502E+04  5.70520E+03 -1.47032E+04 -6.29091E+03
 -9.13189E+03 -1.64169E+04  4.75158E+03 -2.10696E+04  1.42858E+04 -1.45700E+04  1.62350E+04 -1.42245E+03
  9.20458E+03  1.14371E+04 -7.71757E+02  1.73008E+04 -1.17579E+04  1.03881E+04 -1.80249E+04 -4.62677E+03
 -1.16465E+04 -1.45124E+04 -2.95899E+03 -2.00761E+04  9.79489E+03 -1.65125E+04  1.68459E+04 -7.24412E+03
  1.46420E+04  7.75643E+02  1.29320E+04  3.94478E+03  5.87911E+03  7.42185E+02  8.98482E+03 -6.41174E+01
  1.54146E+04  2.38799E+03  1.63085E+04  1.43915E+04  9.96688E+03  2.70089E+04 -3.03097E+03  2.92268E+04
 -1.71587E+04  2.32598E+04 -2.65010E+04  1.01411E+04 -2.89951E+04 -2.29784E+03 -2.35879E+04 -1.57923E+04
 -1.04299E+04 -2.36302E+04  8.69681E+03 -2.18654E+04  1.79387E+04 -1.17122E+04  1.73372E+04  3.32520E+03
  6.94864E+03  1.27316E+04 -8.74555E+03  1.07391E+04 -1.44768E+04  2.55812E+03 -1.11424E+04 -8.36261E+03
 -6.16960E+02 -1.29758E+04  5.77538E+03 -1.07615E+04  9.84464E+03 -1.13154E+03  1.39560E+03  6.86963E+03
 -5.06151E+03  2.25781E+03 -5.18280E+03 -6.11250E+03  7.69439E+02 -1.11892E+04  7.99989E+03 -1.10092E+04
  1.36737E+04 -5.08304E+03  1.42849E+04  3.53304E+03  1.27477E+04  1.12476E+04  5.32238E+03  1.66293E+04
 -2.58718E+03  1.81619E+04 -1.23348E+04  1.21165E+04 -1.31829E+04  2.96808E+03 -1.01710E+04 -2.57394E+03
 -4.85350E+03 -3.46755E+03  2.04795E+02  1.98365E+03 -1.51992E+03  2.34942E+03 -3.72016E+03  3.17182E+03
 -8.17163E+03 -5.19399E+02 -9.29072E+03 -7.47511E+03 -3.27802E+03 -1.30271E+04  3.90545E+03 -1.02578E+04
  8.71388E+03 -3.92474E+03  5.75964E+03  1.69772E+03  3.29081E+02  2.90886E+03 -4.44324E+03 -9.57011E+02
 -4.41520E+03 -5.49384E+03 -2.41574E+02 -8.17961E+03  5.01251E+03 -8.47841E+03  1.16148E+04 -3.14474E+03
  1.36142E+04  1.95267E+03  8.89482E+03  6.74559E+03  2.71416E+03  1.01803E+04 -5.20729E+03  9.42963E+03
 -7.79551E+03  2.70454E+03 -4.68858E+03 -1.27312E+03  1.90726E+03 -2.97911E+03  5.41668E+03  1.59044E+02
  4.34536E+03  3.56306E+03  1.45211E+03  7.50083E+03 -4.99183E+03  7.10608E+03 -1.00707E+04  2.91141E+03
 -5.74793E+03 -4.85513E+03  8.56149E+02 -7.89645E+03  4.13298E+03 -3.07020E+03  4.73131E+03  8.48334E+02
  4.80712E+02  4.94743E+03 -4.49079E+03  4.75217E+03 -5.69440E+03  3.97297E+03 -5.01420E+03 -1.57675E+03
 -3.46030E+03 -7.99840E+03  1.13538E+03 -8.64873E+03  6.89218E+03 -6.17676E+03  8.07201E+03  8.47672E+02
  5.04512E+03  5.42716E+03  2.91642E+02  7.57855E+03 -5.62182E+03  5.34075E+03 -7.13646E+03 -2.58921E+02
 -6.55618E+03 -5.92928E+03 -4.40159E+02 -5.55417E+03  4.18899E+03 -4.93137E+03  3.70656E+03 -2.86935E+03
  2.74079E+03  5.88285E+02 -2.70570E+02  1.59678E+03  3.43815E+02 -7.52862E+02  2.72979E+02 -1.86734E+03
  4.59394E+03 -1.16158E+03  6.97783E+03  1.09997E+03  6.37951E+03  3.93402E+03  5.43028E+03  1.00357E+04
 -1.01344E+03  1.06680E+04 -8.10992E+03  6.11572E+03 -1.20115E+04  1.18738E+03 -9.01578E+03 -3.43633E+03
 -4.88376E+03 -8.63022E+03 -1.10181E+03 -6.82495E+03  2.69665E+03 -3.11126E+03  2.20529E+03 -1.97153E+03
  2.95047E+03 -1.46399E+03  2.07485E+03 -2.17965E+03  3.11068E+03 -1.02247E+03  3.21369E+03  6.91749E+00
  5.29834E+03  1.48301E+03  1.30351E+03  2.09640E+03 -9.34671E+02  3.25117E+03 -4.76848E+03  2.97301E+03
 -5.48603E+03 -2.44224E+03 -1.98696E+03 -4.38788E+03 -4.77373E+02 -6.43375E+03  4.49085E+03 -5.34317E+03
  6.82326E+03 -3.50436E+03  8.17364E+03  7.15508E+02  6.90334E+03  5.56706E+03  2.09915E+03  7.40956E+03
 -1.58345E+03  6.47066E+03 -4.54925E+03  2.65200E+03 -1.96232E+03 -1.06321E+03 -1.73743E+03 -9.65741E+02
 -6.61814E+02  1.04534E+02 -1.49611E+03  2.72985E+03 -2.80819E+03  1.54411E+03 -4.05206E+03 -1.57939E+03
 -2.62073E+03 -3.66903E+03  3.27830E+02 -5.20865E+03  2.47585E+03 -5.58436E+03  4.23921E+03 -1.54901E+03
  3.67810E+03  2.65597E+03  2.19366E+03  4.36616E+03  7.50097E+01  4.74725E+03 -3.57502E+03  2.86331E+03
 -5.05067E+03  5.04572E+02 -4.27897E+03 -3.44962E+03  4.61075E+01 -3.63068E+03  1.13378E+03 -3.58689E+03
  4.74985E+03 -1.96858E+03  2.76101E+03  1.33557E+03 -3.36698E+02  2.50555E+03  7.42170E+02  7.79857E+02
  1.51134E+03  1.06084E+03  3.75015E+02  1.08740E+03  6.19720E+02  2.49249E+03  9.91991E+02  1.88067E+03
 -2.13868E+03  3.61437E+03 -4.11036E+03  5.29862E+03 -3.27423E+03  1.62214E+03 -5.56392E+03 -6.50407E+02
 -2.32542E+03 -4.82522E+03  1.03448E+03 -5.91601E+03  2.81403E+03 -4.35218E+03  4.06124E+03 -1.53128E+03
  3.49791E+03  3.08580E+03 -2.62522E+02  3.07683E+03 -1.66157E+03  2.08009E+03 -2.03123E+03 -1.94428E+02
 -1.60049E+03 -1.96924E+03  2.65922E+02 -1.83388E+03  2.03279E+03 -3.72174E+02  1.97105E+03  2.44478E+02
  1.78501E+03  8.26333E+02  1.24684E+03  4.21077E+02 -5.19395E+02 -3.10803E+02  1.53780E+03 -4.89153E+02
  7.61762E+02 -2.01084E+02  2.92479E+03  5.12858E+02  3.47566E+02  2.79419E+03 -4.70236E+02  2.61344E+03
 -2.28231E+03  9.54926E+02 -3.09139E+03  1.98756E+02 -2.93889E+03 -1.05275E+03 -4.33855E+02 -1.15919E+03
  7.50732E+02 -2.12309E+03  6.48197E+02 -5.36137E+02  1.55141E+03  1.45018E+03 -7.95581E+02  2.17766E+03
 -1.81159E+03  1.71212E+03 -1.04501E+03 -1.08201E+03 -8.26005E+02 -2.14577E+03 -3.72071E+02 -2.26043E+03
  8.23437E+02 -1.32210E+03  1.86080E+03  6.59232E+02  1.38745E+03  2.65701E+02  5.22739E+02  1.09540E+03
 -9.65378E+02  9.55571E+02 -1.33352E+03 -7.62671E+02  1.97617E+03 -1.26827E+03  2.25771E+03 -6.69680E+02
  2.05782E+03  5.52485E+02  3.67158E+03  7.50143E+02  1.56009E+03  2.88320E+03  1.26431E+03  2.35292E+03
 -9.56533E+02  7.35214E+02 -1.83491E+03  6.28838E+01 -4.22757E+02 -2.35528E+03  2.66076E+02  1.64764E+02
  1.90621E+03 -9.02710E+02  1.88054E+03  1.11342E+03  4.85666E+02  1.89807E+03  8.77058E+02  1.31788E+03
 -3.37050E+02  1.93490E+03 -1.27898E+03  1.60681E+03 -5.88655E+02  1.95921E+02 -9.96364E+02  1.31436E+03
 -3.83264E+02  1.32078E+03 -2.88024E+03  6.01754E+02 -2.79976E+03 -9.30991E+00 -3.02611E+03 -8.70392E+02
 -7.28724E+02 -2.25661E+03  1.43253E+03 -3.59434E+03  1.47080E+03 -2.16431E+03  2.84788E+03 -1.41623E+03
  3.50305E+03 -5.60810E+02  9.01785E+02  2.82467E+03 -8.45899E+02  1.81871E+03 -9.30124E+02  1.75523E+03
 -8.01162E+02 -2.83743E+02 -1.17561E+02 -4.07910E+02 -5.88014E+01 -3.47433E+02 -9.64927E+02 -3.99243E+02
 -6.35524E+02  3.80378E+02 -1.96355E+03 -1.73796E+03 -8.59245E+02 -4.79391E+02  1.88948E+02 -1.56061E+03
  7.19657E+02 -5.89135E+02  2.77129E+02  3.35557E+02  1.32631E+03  2.36345E+03 -2.13754E+02  1.07194E+03
 -9.95305E+02  2.98525E+03 -1.03531E+03  1.73725E+03 -2.55011E+03  2.11656E+03 -1.92119E+03 -2.53767E+03
 -1.66573E+03 -2.22394E+03  1.51098E+02 -1.55860E+03  6.34760E+02 -7.99775E+02  1.68925E+03  2.06848E+02
  4.00559E+02  8.04323E+02 -3.03226E+00  1.15778E+03 -7.09087E+01  3.58948E+02 -6.16039E+02  3.93226E+02
  1.00937E+03  3.62295E+01  7.86834E+02  1.40328E+03  2.58602E+02  1.06280E+03 -2.14588E+02  1.01754E+03
 -1.26153E+03  1.98479E+02 -5.05353E+02  4.05095E+02 -3.99232E+02 -9.33576E+02  5.56664E+02 -1.65682E+03
  1.77437E+03 -1.68889E+03  1.12327E+03 -8.53651E+02  1.98986E+03 -2.06805E+02  2.79969E+02  1.78547E+03
  5.74737E+02 -3.30842E+02 -9.62812E+02  9.76763E+02 -6.15182E+02  8.98518E+02 -5.49626E+02 -7.44237E+02
 -1.38636E+03 -8.42600E+02 -4.16302E+02  6.14044E+00  2.86423E+02  1.53711E+02 -1.30203E+03 -4.91254E+02
 -1.25726E+03  3.44233E+02 -6.00954E+02 -1.66517E+03  1.61995E+03 -1.29133E+03  1.16621E+03  1.15805E+02
  6.14565E+02 -3.44283E+02  5.55260E+02  1.84401E+02  1.02324E+02  7.63497E+02 -4.22319E+02  7.74604E+02
