 $NMID ID='MM_0lb_SNR200_17hz_g45_63.RAW', FMTDAT='(8E13.5)'
 TRAMP=1., VOLUME=1. $END
  3.09294E+05  2.03863E+02  3.36976E+05  2.50636E+05  8.51498E+04  3.37751E+05 -1.31729E+05  2.49971E+05
 -1.89683E+05  8.21006E+04 -1.11012E+05 -3.39256E+04  7.90152E+02 -5.03302E+04  5.37013E+04  1.28591E+03
  3.41698E+04  5.28122E+04 -1.67540E+04  7.56989E+04 -6.12864E+04  6.24363E+04 -8.46991E+04  3.05003E+04
 -8.05639E+04 -1.05918E+04 -5.68269E+04 -5.00269E+04 -1.49785E+04 -6.77711E+04  2.69938E+04 -4.47956E+04
  3.90979E+04  4.02467E+03  1.60009E+04  4.78583E+04 -3.38662E+04  4.60397E+04 -6.56367E+04 -8.98964E+02
 -5.20206E+04 -5.67707E+04 -7.10045E+03 -7.56377E+04  3.23486E+04 -5.38811E+04  4.75773E+04 -1.58912E+04
  4.28287E+04  1.05361E+04  3.10514E+04  2.47259E+04  1.73828E+04  2.76183E+04 -4.43819E+03  2.55501E+04
 -2.23354E+04  1.41186E+04 -1.91984E+04 -3.79621E+03  5.17939E+03 -6.98356E+03  2.24913E+04  1.12785E+04
  7.64738E+03  3.32836E+04 -3.12704E+04  3.45676E+04 -6.21534E+04  2.65044E+03 -5.52235E+04 -4.27064E+04
 -1.04179E+04 -6.17469E+04  3.72320E+04 -4.35692E+04  5.66989E+04 -2.10507E+03  3.32663E+04  3.07370E+04
 -7.62395E+03  3.26985E+04 -2.79034E+04  1.25978E+04 -2.79790E+04 -5.74944E+03 -1.49111E+04 -9.68398E+03
 -7.78693E+03 -1.18239E+04 -3.61905E+02 -1.69920E+04  6.77493E+03 -2.31016E+04  1.55008E+04 -1.42655E+04
  1.16374E+04  3.98905E+03 -7.67092E+03  1.25671E+04 -2.03223E+04 -2.46272E+03 -7.59655E+03 -3.04988E+04
  2.19253E+04 -4.19065E+04  4.58718E+04 -1.89276E+04  4.34139E+04  1.92041E+04  1.38645E+04  4.21506E+04
 -1.65761E+04  3.20790E+04 -2.39466E+04  1.17802E+03 -7.52012E+03 -2.62171E+04  1.96487E+04 -3.19456E+04
  3.81891E+04 -8.44746E+03  3.21458E+04  2.23877E+04  1.56879E+04  4.52480E+04 -8.21098E+03  4.61034E+04
 -3.01851E+04  3.15577E+04 -3.89360E+04  9.76127E+03 -4.03586E+04 -1.53167E+04 -2.19968E+04 -3.49863E+04
  6.11712E+03 -3.43108E+04  2.95098E+04 -1.21517E+04  2.71129E+04  1.05432E+04  2.80738E+03  1.80825E+04
 -1.30342E+04  7.09401E+03 -1.00719E+04 -8.76531E+03  6.64574E+03 -1.00382E+04  1.69304E+04  6.17740E+03
  1.21689E+04  2.16581E+04 -6.51270E+03  2.40142E+04 -2.26505E+04  9.02985E+03 -2.66350E+04 -5.20090E+03
 -1.75802E+04 -1.65950E+04 -7.24111E+03 -1.71694E+04  4.71800E+03 -1.56248E+04  1.37313E+04 -1.48792E+04
  2.24625E+04 -1.19039E+04  2.93225E+04  1.89400E+03  2.18410E+04  1.68864E+04  4.31406E+03  3.39708E+04
 -1.61598E+04  2.78563E+04 -2.47267E+04  9.80793E+03 -1.98798E+04 -1.04348E+04 -4.89246E+03 -1.39705E+04
  2.82655E+03 -3.23810E+03 -3.66908E+03  5.99110E+03 -1.48110E+04  5.65461E+03 -1.44563E+04 -6.33070E+03
 -8.25818E+03 -1.63471E+04  5.46293E+03 -2.03816E+04  1.33145E+04 -1.48376E+04  1.57797E+04 -8.47344E+02
  9.50830E+03  1.15495E+04 -1.23360E+03  1.60550E+04 -1.06580E+04  8.78211E+03 -1.70546E+04 -3.53837E+03
 -1.27137E+04 -1.50475E+04 -1.72433E+03 -2.08567E+04  8.85681E+03 -1.68715E+04  1.62578E+04 -7.63231E+03
  1.56717E+04  1.01047E+03  1.12385E+04  3.95610E+03  5.65776E+03  8.46601E+02  9.10759E+03 -1.60900E+03
  1.48528E+04  2.46723E+03  1.53662E+04  1.29520E+04  1.05258E+04  2.61557E+04 -3.48037E+03  2.86089E+04
 -1.81833E+04  2.22240E+04 -2.58563E+04  1.17650E+04 -2.61627E+04 -2.70756E+03 -2.29016E+04 -1.50252E+04
 -1.15580E+04 -2.22544E+04  8.01209E+03 -1.94978E+04  1.88620E+04 -1.16824E+04  1.65653E+04  4.39057E+03
  6.38410E+03  1.26796E+04 -7.07368E+03  1.13521E+04 -1.40850E+04  2.60513E+03 -1.05867E+04 -8.65746E+03
 -6.00555E+01 -1.30647E+04  5.56605E+03 -9.75135E+03  7.74045E+03 -2.17128E+03  1.90172E+03  5.58618E+03
 -5.88071E+03  1.20143E+03 -3.78976E+03 -4.58918E+03 -4.23725E+02 -1.00951E+04  8.94494E+03 -1.13278E+04
  1.35981E+04 -4.27581E+03  1.31029E+04  1.85839E+03  1.09398E+04  1.11736E+04  5.56012E+03  1.57399E+04
 -1.35417E+03  1.70277E+04 -1.07856E+04  1.18362E+04 -1.21506E+04  2.64379E+03 -8.86110E+03 -2.01414E+03
 -5.20776E+03 -3.82226E+03 -6.13568E+02  1.36361E+03 -1.35108E+03  2.03437E+03 -4.17688E+03  4.26678E+03
 -8.47038E+03 -3.20004E+02 -9.63625E+03 -6.90360E+03 -3.62968E+03 -1.34370E+04  5.69720E+03 -9.00721E+03
  7.04649E+03 -3.76706E+03  6.05474E+03  2.01423E+03  8.74246E+02  3.61089E+03 -4.05960E+03 -2.05484E+02
 -3.60843E+03 -6.00459E+03 -8.28092E+02 -9.13793E+03  3.89541E+03 -6.58067E+03  1.20181E+04 -4.74639E+03
  1.24003E+04  2.04493E+02  1.06836E+04  6.81520E+03  1.02499E+03  1.04691E+04 -5.81964E+03  9.76051E+03
 -7.63218E+03  3.51900E+03 -3.42535E+03 -2.29707E+03  9.07975E+02 -1.73786E+03  4.54156E+03 -2.12816E+03
  3.55962E+03  4.60641E+03  6.02430E+02  5.56527E+03 -5.06298E+03  7.66554E+03 -8.13159E+03  1.82924E+03
 -7.07072E+03 -5.02492E+03  9.18945E+02 -7.94284E+03  4.16987E+03 -3.64892E+03  4.13138E+03  2.29982E+03
  5.33418E+02  4.16553E+03 -5.06690E+03  5.97099E+03 -5.93894E+03  3.80614E+03 -3.76671E+03 -1.37834E+03
 -3.98375E+03 -8.06811E+03  1.51540E+03 -7.44209E+03  7.03437E+03 -5.37011E+03  7.39157E+03  1.40490E+03
  4.85503E+03  6.51779E+03  3.49920E+02  8.20621E+03 -5.06689E+03  4.30539E+03 -5.78474E+03  3.81535E+02
 -5.07248E+03 -5.61491E+03 -1.04064E+03 -5.71153E+03  2.88040E+03 -5.97287E+03  3.76866E+03 -4.09016E+03
  3.48387E+03  4.19544E+02 -8.57005E+01  1.77066E+03 -4.31778E+02 -3.79803E+02 -6.73341E+02 -2.63633E+03
  3.63163E+03 -2.94329E-01  6.18655E+03  9.27636E+02  7.24709E+03  4.01862E+03  6.06331E+03  9.24840E+03
 -1.58433E+03  9.91872E+03 -8.87162E+03  8.02810E+03 -1.23793E+04  1.22496E+03 -8.45792E+03 -3.35403E+03
 -4.70063E+03 -5.88314E+03 -4.74655E+02 -5.53974E+03  2.72673E+03 -2.58629E+03  2.36711E+03 -2.59513E+03
  1.29670E+03 -1.63269E+03  2.11167E+03 -1.08499E+03  4.10818E+03 -1.86892E+03  4.91793E+03 -6.24373E+01
  4.74864E+03  1.15117E+03  1.25737E+03  3.22946E+03 -2.29420E+03  3.87587E+03 -4.31808E+03  3.52289E+03
 -4.89547E+03 -5.29570E+02 -2.98969E+03 -3.08745E+03 -3.86118E+01 -6.49877E+03  3.69048E+03 -6.35712E+03
  5.39848E+03 -4.45814E+03  7.74984E+03  5.02453E+02  6.10533E+03  5.56427E+03  1.00192E+03  7.03420E+03
 -2.94780E+03  5.77264E+03 -4.16787E+03  2.19778E+03 -3.14401E+03 -1.14769E+03  3.94152E+02 -1.47694E+03
 -4.32481E+02  6.55505E+02 -9.60516E+02  1.72051E+03 -3.86894E+03  1.11974E+03 -4.94347E+03 -5.21913E+02
 -2.40754E+03 -5.84378E+03  9.59663E+02 -6.05121E+03  2.64840E+03 -4.95559E+03  4.30454E+03 -9.77123E+02
  5.89450E+03  3.02220E+03  1.99651E+03  2.99259E+03 -1.36733E+03  6.19370E+03 -3.85222E+03  3.64708E+03
 -4.30611E+03  9.29308E+02 -4.55929E+03 -3.28970E+03 -5.57736E+02 -4.42735E+03  1.30673E+03 -3.78235E+03
  3.26631E+03 -1.12477E+03  1.57410E+03  2.59530E+02 -3.97371E+02  1.48805E+03  1.32399E+02  8.13977E+02
  9.95632E+02  6.62913E+00  8.25054E+02  1.73748E+03  1.87037E+03  2.37369E+03  1.10924E+03  1.60438E+03
 -3.96096E+02  4.00159E+03 -3.41534E+03  4.61504E+03 -2.78231E+03  9.04911E+02 -5.35469E+03 -1.80954E+03
 -1.60366E+03 -5.02631E+03 -4.14034E+01 -6.15283E+03  2.57624E+03 -3.06917E+03  4.98708E+03 -1.18273E+03
  3.11216E+03  2.87223E+03  1.55415E+03  3.60363E+03 -1.94356E+03  1.70794E+03 -8.48706E+02 -3.68679E+02
  3.10553E+02 -1.73642E+03  1.63615E+03 -1.97340E+03  2.23456E+03 -7.99199E+02  7.93864E+02  1.04888E+02
  1.53653E+03  1.24386E+03  9.84036E+01 -2.30764E+02 -6.66514E+02  6.20371E+02  1.38429E+03 -7.22784E+02
  1.51832E+02 -3.50924E+02  2.39095E+03  4.79805E+02  4.01671E+02  2.82208E+03 -1.05686E+03  4.37399E+03
 -2.58524E+03  1.00273E+03 -2.47627E+03  4.56056E+02 -2.10782E+03 -1.21341E+03  1.09486E+01 -2.28270E+03
  9.51483E+02 -2.42960E+03  1.31960E+03 -9.54042E+02  1.54806E+03  1.36375E+03 -6.91882E+02  1.30617E+03
 -1.00062E+03 -4.73696E+01 -1.44116E+03 -2.04357E+03 -1.65768E+02 -2.85956E+03  5.20045E+02 -2.26671E+03
  1.45426E+03 -1.04979E+03  1.56642E+03  8.03893E+02  2.24031E+03 -5.93148E+02  2.97865E+02  2.07659E+03
 -5.62352E+02  1.22116E+03 -1.79334E+03  3.91511E+02  1.18251E+03 -9.94249E+02  2.56176E+03 -2.46946E+03
  1.60488E+03 -7.14704E+02  2.84574E+03  1.17249E+03  1.41131E+03  1.52980E+03 -7.55391E+02  3.07222E+03
 -1.25512E+03  2.28430E+02 -2.48552E+03  1.38111E+02 -1.29901E+03 -1.74389E+03  1.58234E+03  3.88655E+02
  1.45914E+03 -5.60672E+02  1.83000E+03  2.00861E+03  7.96454E+01  2.12997E+03 -3.81620E+02  1.75273E+03
 -1.00805E+03  4.05937E+02 -8.38236E+02  1.19792E+03 -1.49585E+02 -3.63694E+02 -2.28931E+03  3.60230E+02
 -1.08085E+03  1.31056E+03 -2.10835E+03  2.61697E+02 -2.42607E+03  5.63781E+02 -2.40634E+03 -1.38747E+03
 -1.21729E+03 -2.35109E+03  2.88701E+02 -3.11838E+03  1.68535E+03 -3.40469E+03  3.43948E+03 -8.88760E+02
  3.70984E+03  8.55036E+02  1.97758E+03  1.42834E+03 -1.09552E+02  1.44109E+03  6.16038E+02  2.02942E+03
 -8.83368E+02  1.05230E+03 -4.39923E+01 -5.06791E+02 -1.49448E+02  2.40712E+02 -1.07093E+02  6.26247E+02
 -1.01028E+03 -6.39072E+02 -4.89322E+02 -3.42886E+01  6.25912E+02 -9.19896E+02 -1.79953E+02 -1.48669E+03
  1.57519E+03  2.21389E+02  1.05466E+03 -6.55277E+02  1.75055E+03  8.03623E+02  1.34492E+02  2.33115E+03
 -1.82023E+02  3.02313E+03 -2.18417E+03  2.07120E+03 -9.44874E+02 -4.69239E+01 -1.04459E+03 -1.14058E+03
 -2.34453E+03 -1.46018E+03 -6.02267E+02 -2.56965E+03  1.86377E+03 -3.43748E+02  1.72428E+03 -1.72582E+02
  4.23039E+02 -4.04999E+01  3.99979E+02  7.00150E+01 -7.84276E+02  4.43007E+02  9.64153E+02 -1.21230E+02
  8.69428E+02 -5.43499E+02  3.93242E+02  1.38642E+02  1.95606E+03  9.59668E+02  1.45754E+03  9.49573E+02
 -1.02056E+03  1.29005E+03 -1.08738E+03  4.61152E+02 -7.03692E+02 -2.73859E+02  7.27380E+02 -1.59261E+03
 -1.73066E+02 -1.86997E+02  4.42579E+02  1.02692E+02  1.63606E+03  8.54979E+02  2.40840E+02  9.55941E+02
  3.68325E+02  1.25081E+03  9.11074E+01  2.41126E+02 -5.89302E+02  1.27696E+03 -2.02314E+02 -4.95714E+02
 -1.45051E+03  1.02204E+03 -8.55556E+02 -4.91797E+02 -1.32655E+03  6.87720E+00 -1.00558E+03  4.26528E+02
 -2.93165E+02  1.77384E+02  8.73910E+02 -9.03864E+02  1.08762E+03 -2.40528E+03  1.85366E+03 -4.03612E+02
  1.47884E+03  9.14056E+01 -2.59362E+02  4.88607E+02 -5.62234E+02  9.93225E+02 -9.73036E+02  1.51189E+03
