 $NMID ID='MM_0lb_SNR200_12hz_g50_46.RAW', FMTDAT='(8E13.5)'
 TRAMP=1., VOLUME=1. $END
  3.09921E+05  8.91723E+01  3.37050E+05  2.50663E+05  8.53039E+04  3.38253E+05 -1.34184E+05  2.51481E+05
 -1.90577E+05  8.43145E+04 -1.12847E+05 -3.21213E+04  1.20110E+03 -5.03789E+04  5.37603E+04 -7.52413E+02
  3.64203E+04  5.28880E+04 -1.76993E+04  7.51264E+04 -6.05320E+04  6.44767E+04 -8.30051E+04  3.11012E+04
 -8.21599E+04 -1.29104E+04 -5.81275E+04 -5.18224E+04 -1.56113E+04 -7.04571E+04  2.78384E+04 -4.63068E+04
  4.03974E+04  3.25136E+03  1.75837E+04  4.70966E+04 -3.59770E+04  4.71211E+04 -6.57329E+04 -7.25658E+01
 -5.50726E+04 -5.56028E+04 -8.28770E+03 -7.81129E+04  3.37313E+04 -5.63978E+04  4.84661E+04 -1.76110E+04
  4.46245E+04  1.09624E+04  3.32838E+04  2.67562E+04  1.42619E+04  2.92946E+04 -5.16187E+03  2.75110E+04
 -2.21544E+04  1.22136E+04 -1.88123E+04 -5.71666E+03  5.64422E+03 -6.83723E+03  2.36195E+04  1.27930E+04
  7.19717E+03  3.41099E+04 -3.42160E+04  3.60156E+04 -6.34825E+04  1.08157E+03 -5.68040E+04 -4.30398E+04
 -1.32271E+04 -6.39940E+04  3.98342E+04 -4.59914E+04  5.90384E+04 -1.71330E+03  3.45567E+04  3.28592E+04
 -5.12637E+03  3.65457E+04 -3.01302E+04  1.71133E+04 -3.14420E+04 -4.80220E+03 -1.82607E+04 -1.19949E+04
 -8.08008E+03 -1.33602E+04 -1.02552E+03 -1.83423E+04  8.34630E+03 -2.36657E+04  1.71095E+04 -1.33307E+04
  9.43738E+03  5.30956E+03 -7.36406E+03  1.32576E+04 -2.22061E+04 -5.97805E+03 -8.97199E+03 -3.58702E+04
  2.46613E+04 -4.49610E+04  4.86907E+04 -2.01999E+04  4.66448E+04  2.13676E+04  1.67528E+04  4.57706E+04
 -1.71352E+04  3.50130E+04 -2.67985E+04  8.94021E+02 -1.06429E+04 -2.76382E+04  2.09012E+04 -3.48852E+04
  4.26626E+04 -9.90777E+03  3.71189E+04  2.52390E+04  2.05983E+04  4.77984E+04 -8.58713E+03  5.22098E+04
 -3.29090E+04  3.73727E+04 -4.41952E+04  1.02293E+04 -4.35470E+04 -1.81960E+04 -2.48078E+04 -3.93035E+04
  7.85957E+03 -3.90531E+04  3.26566E+04 -1.55171E+04  3.03051E+04  9.91971E+03  4.09204E+03  2.05745E+04
 -1.39484E+04  9.11144E+03 -9.75065E+03 -7.59610E+03  6.04529E+03 -1.07593E+04  1.83945E+04  5.66539E+03
  1.48983E+04  2.15827E+04 -5.08720E+03  2.64123E+04 -2.37847E+04  1.31284E+04 -2.95721E+04 -4.39651E+03
 -2.34285E+04 -1.74875E+04 -9.76321E+03 -2.36745E+04  3.53979E+03 -2.25147E+04  1.70557E+04 -2.05358E+04
  2.88236E+04 -1.29443E+04  3.38404E+04  3.27730E+03  2.60914E+04  2.17504E+04  3.60312E+03  3.70953E+04
 -1.93872E+04  3.15379E+04 -2.79985E+04  1.09248E+04 -2.02787E+04 -1.02134E+04 -4.72382E+03 -1.16265E+04
  2.28076E+03 -3.30870E+03 -5.84469E+03  8.65815E+03 -1.72720E+04  6.45188E+03 -1.81254E+04 -7.43353E+03
 -1.02240E+04 -2.11026E+04  7.39919E+03 -2.43765E+04  1.67069E+04 -1.83681E+04  2.00290E+04 -1.65559E+03
  1.26638E+04  1.32212E+04 -2.04694E+03  2.17294E+04 -1.49885E+04  1.28071E+04 -2.07862E+04 -3.45349E+03
 -1.58747E+04 -1.69854E+04 -1.23260E+03 -2.54766E+04  1.10432E+04 -1.96209E+04  1.98141E+04 -1.05678E+04
  1.90305E+04 -7.54491E+02  1.42939E+04  4.81019E+03  7.68825E+03  1.28077E+03  9.31557E+03 -7.36850E+02
  1.94618E+04  1.91912E+03  2.13438E+04  1.61630E+04  1.36998E+04  3.22607E+04 -3.48120E+03  3.83785E+04
 -2.33947E+04  3.04711E+04 -3.57352E+04  1.58640E+04 -3.81001E+04 -3.13092E+03 -3.15100E+04 -2.32788E+04
 -1.27005E+04 -3.06973E+04  1.03206E+04 -2.81413E+04  2.41215E+04 -1.40029E+04  2.12527E+04  5.93878E+03
  8.21018E+03  1.67446E+04 -8.71965E+03  1.36134E+04 -1.90027E+04  2.54970E+03 -1.26832E+04 -1.13166E+04
  4.55812E+02 -1.74843E+04  8.25522E+03 -1.21213E+04  1.23822E+04 -1.89376E+03  2.07775E+03  7.02389E+03
 -7.71714E+03  2.89980E+03 -6.02197E+03 -5.52535E+03 -1.12063E+03 -1.53226E+04  9.92449E+03 -1.60570E+04
  1.95357E+04 -8.45546E+03  2.02089E+04  3.00876E+03  1.77427E+04  1.57688E+04  8.25430E+03  2.35707E+04
 -2.03119E+03  2.49557E+04 -1.55798E+04  1.73960E+04 -1.85841E+04  3.64822E+03 -1.44726E+04 -4.04444E+03
 -5.76695E+03 -5.43341E+03 -4.84416E+02  1.64312E+03 -3.12620E+03  2.37408E+03 -5.88092E+03  5.03827E+03
 -1.40523E+04 -6.24003E+02 -1.24359E+04 -9.93599E+03 -6.03523E+03 -1.64894E+04  6.03391E+03 -1.39482E+04
  1.05455E+04 -4.61894E+03  7.60532E+03  4.02043E+03  6.18260E+02  6.10859E+03 -6.97006E+03  1.64490E+02
 -5.68004E+03 -9.52913E+03 -5.62354E+02 -1.16863E+04  6.81736E+03 -1.33201E+04  1.65229E+04 -7.68716E+03
  1.92411E+04  9.76993E+02  1.41668E+04  1.21721E+04  2.95548E+03  1.57949E+04 -6.84543E+03  1.26432E+04
 -1.04002E+04  3.67273E+03 -5.97945E+03 -2.03695E+03  2.54127E+03 -3.42204E+03  8.55790E+03 -3.43961E+02
  5.86763E+03  5.07552E+03  1.76591E+03  1.01501E+04 -7.40662E+03  9.88877E+03 -1.24358E+04  2.31687E+03
 -8.30413E+03 -3.87288E+03  1.30830E+03 -1.06324E+04  7.62789E+03 -4.73126E+03  7.13667E+03  1.65898E+03
  1.45002E+03  7.84829E+03 -5.75187E+03  8.54588E+03 -1.10492E+04  3.38014E+03 -1.17010E+04 -2.86381E+03
 -4.72847E+03 -1.20433E+04  3.09288E+03 -1.19036E+04  1.18864E+04 -6.86351E+03  1.32048E+04  1.64558E+03
  7.98941E+03  1.02585E+04 -9.16022E+02  1.18347E+04 -8.87275E+03  7.07057E+03 -1.03806E+04 -1.93141E+03
 -9.20162E+03 -8.32834E+03 -9.38393E+01 -9.83132E+03  5.84268E+03 -8.87660E+03  5.90705E+03 -5.32960E+03
  3.45770E+03  1.93560E+03 -3.84816E+02  9.07567E+02  6.42916E+02 -1.71209E+03  1.70417E+03 -5.27463E+03
  8.87604E+03 -4.14660E+03  1.19423E+04  1.69887E+03  1.07823E+04  7.13487E+03  7.79193E+03  1.53087E+04
 -3.25710E+03  1.62630E+04 -1.50523E+04  1.34873E+04 -2.01604E+04  3.05637E+03 -1.52647E+04 -6.28265E+03
 -7.67490E+03 -1.26438E+04  1.62434E+02 -1.12778E+04  4.45063E+03 -5.11200E+03  4.46617E+03 -4.01010E+03
  3.00064E+03 -1.82029E+03  3.14642E+03 -1.73452E+03  4.04536E+03 -2.52295E+03  7.43093E+03 -1.05563E+03
  8.95716E+03  2.53452E+03  6.15754E+03  7.07372E+03 -1.83008E+03  8.23501E+03 -1.01773E+04  5.84093E+03
 -1.14519E+04 -1.59651E+03 -6.55901E+03 -7.70361E+03 -1.30894E+03 -1.01036E+04  7.35444E+03 -1.12735E+04
  1.23872E+04 -5.96579E+03  1.41136E+04  1.52099E+03  1.07440E+04  8.70396E+03  1.55371E+03  1.33517E+04
 -5.20280E+03  1.17914E+04 -7.07961E+03  3.69117E+03 -5.20269E+03 -1.31717E+03 -2.21579E+03 -1.69878E+03
 -2.32988E+01 -9.53431E+02 -2.29529E+03  2.99566E+03 -3.25964E+03  2.88449E+03 -7.40281E+03 -1.11458E+03
 -5.59943E+03 -7.03479E+03  1.81832E+03 -1.07891E+04  6.25681E+03 -8.69226E+03  1.00839E+04 -3.22799E+03
  1.01983E+04  4.59217E+03  5.41912E+03  9.80663E+03 -6.08755E+02  1.00234E+04 -7.11418E+03  7.80849E+03
 -1.10159E+04  1.16557E+03 -7.35128E+03 -6.34174E+03 -1.51273E+03 -8.96831E+03  4.94798E+03 -5.21366E+03
  5.89601E+03 -8.61293E+02  4.60751E+03  9.88192E+02  1.93701E+03  3.46552E+03  1.00043E+03  1.53755E+03
  2.11143E+03  1.16867E+03  2.84403E+03  8.92682E+02  2.91943E+03  3.40612E+03  3.29570E+03  4.61456E+03
 -2.58773E+03  8.21538E+03 -6.49825E+03  8.17909E+03 -1.07607E+04  1.37044E+03 -1.14303E+04 -3.29237E+03
 -4.11122E+03 -8.68295E+03  1.82573E+03 -1.16749E+04  5.45655E+03 -7.71695E+03  7.94580E+03 -9.72333E+02
  4.72529E+03  4.12849E+03  1.56751E+03  6.75434E+03 -2.35733E+03  3.78889E+03 -3.86309E+03  2.15051E+02
 -1.11444E+03 -4.74782E+03  3.02186E+03 -3.72269E+03  4.07706E+03 -2.62347E+03  2.57934E+03  1.33906E+03
  1.65003E+03  5.36197E+02  8.88461E+02  1.36633E+03 -1.54647E+02  1.86827E+03  2.33684E+03  1.30459E+03
  9.96554E+02 -2.00752E+02  5.09581E+03  1.59824E+03  1.90199E+03  6.29486E+03 -7.95617E+02  6.05146E+03
 -4.21754E+03  3.58638E+03 -6.21817E+03  4.44779E+02 -5.22105E+03 -2.74869E+03 -1.41851E+03 -3.58856E+03
  1.16834E+03 -3.58387E+03  1.99400E+03 -1.33414E+03  2.57596E+03  2.61130E+03 -2.21311E+03  2.65145E+03
 -5.31670E+03  1.63443E+03 -4.61516E+03 -2.16440E+03 -7.70850E+02 -4.63052E+03  1.84374E+03 -4.83806E+03
  2.36930E+03 -1.88457E+03  3.61908E+03 -5.28672E+02  3.57205E+03  1.57953E+03  1.44161E+03  4.75896E+03
 -1.26148E+03  8.61716E+02 -3.92127E+03 -1.15628E+03  2.06024E+03 -4.88596E+03  4.26427E+03 -2.55746E+03
  5.90242E+03  8.67118E+02  4.44263E+03  4.99015E+03  1.39152E+03  6.32140E+03 -1.42866E+03  6.77783E+03
 -4.60466E+03  1.74348E+03 -5.00268E+03 -6.67856E+02 -2.29600E+03 -3.14349E+03  1.44381E+03 -2.33541E+03
  3.89765E+03 -3.08690E+03  3.08882E+03  1.41171E+03 -4.78055E+02  4.16443E+03  9.08096E+02  4.25907E+03
 -1.43686E+03  2.86784E+03 -1.17693E+03 -1.85327E+02 -8.61675E+02  3.33709E+02 -8.80091E+02  3.87304E+02
 -2.41323E+03  3.63107E+03 -4.44875E+03  1.27504E+03 -6.28957E+03  7.84946E+02 -7.40146E+03 -4.28234E+03
 -5.28903E+03 -8.22570E+03  2.63904E+03 -9.62082E+03  6.04912E+03 -6.27332E+03  8.49604E+03 -2.07273E+03
  1.00440E+04  7.92902E+02  4.36385E+03  5.78618E+03  2.04699E+02  5.44796E+03 -2.07632E+03  4.81987E+03
 -3.94447E+03  2.28165E+03 -1.36881E+03  5.90986E+00 -9.01587E+02  1.29633E+02 -8.11627E+02 -3.67844E+02
 -9.73538E+02  3.60811E+02 -1.45848E+03  1.92711E+03 -2.35328E+02 -1.76772E+03 -1.46061E+01 -2.06267E+03
  1.22365E+03 -1.39556E+03  2.80667E+03  2.52405E+02  4.41406E+03  4.12209E+03  1.74070E+03  6.20738E+03
 -1.41255E+03  6.74700E+03 -5.25582E+03  5.00390E+03 -6.71113E+03 -1.77696E+03 -4.86364E+03 -3.64618E+03
 -2.24142E+03 -6.00202E+03  1.13253E+03 -4.97416E+03  3.52124E+03 -2.14030E+03  4.43358E+03  1.38788E+02
  2.30168E+03  1.04316E+03 -3.54465E+02  1.25811E+03 -8.02452E+02  1.12188E+03 -2.05911E+02 -8.79938E+02
  2.34563E+02 -2.22101E+02  2.11936E+03  8.72858E+02  1.64700E+03  2.93833E+03  1.26637E+03  4.09212E+03
 -2.10657E+03  2.03691E+03 -3.73075E+03  2.65498E+02 -2.80149E+03 -3.58144E+03 -1.57370E+03 -4.96677E+03
  2.20128E+03 -4.27074E+03  4.32811E+03 -9.75383E+02  3.93799E+03  5.06317E+02  2.89550E+03  4.25435E+03
  9.25430E+02  4.58142E+03 -2.30925E+03  3.82321E+03 -2.79346E+03  8.55430E+02 -2.11860E+03  6.90469E+02
 -5.86131E+02 -1.86346E+02 -1.77448E+03 -8.36926E+02 -2.52207E+03  2.37067E+03 -2.77148E+03 -3.91428E+02
 -3.08957E+03 -2.24774E+03 -1.45061E+03 -3.53326E+03  1.42260E+03 -3.64829E+03  4.21023E+03 -1.09492E+03
  3.93912E+03  3.76434E+00  1.47927E+03  2.97942E+03 -6.57144E+01  3.21738E+03 -2.28855E+03  2.14681E+03
