 $NMID ID='MM_0lb_SNR200_10hz_g55_83.RAW', FMTDAT='(8E13.5)'
 TRAMP=1., VOLUME=1. $END
  3.09311E+05 -1.56964E+02  3.37461E+05  2.50488E+05  8.40423E+04  3.40661E+05 -1.33386E+05  2.52733E+05
 -1.90973E+05  8.41912E+04 -1.12626E+05 -3.10064E+04  1.02958E+03 -5.18478E+04  5.48807E+04 -1.43034E+03
  3.62550E+04  5.23493E+04 -1.68289E+04  7.55396E+04 -6.22197E+04  6.39466E+04 -8.51971E+04  3.29185E+04
 -8.34774E+04 -1.14672E+04 -5.94805E+04 -5.48371E+04 -1.58157E+04 -7.03115E+04  2.94968E+04 -4.71830E+04
  3.88153E+04  3.22196E+03  1.64298E+04  4.96357E+04 -3.64397E+04  4.83879E+04 -6.67720E+04 -6.71584E+02
 -5.49746E+04 -5.67325E+04 -5.75263E+03 -7.79922E+04  3.51931E+04 -5.73291E+04  4.92719E+04 -1.79230E+04
  4.51571E+04  9.84605E+03  3.33811E+04  2.45975E+04  1.56225E+04  3.03155E+04 -5.07129E+03  2.88866E+04
 -2.36736E+04  1.20636E+04 -1.72123E+04 -5.99853E+03  6.79845E+03 -7.16780E+03  2.34075E+04  1.42843E+04
  8.89681E+03  3.75046E+04 -3.27017E+04  3.60004E+04 -6.65163E+04  1.81443E+03 -5.90663E+04 -4.47084E+04
 -1.32249E+04 -6.46943E+04  4.03458E+04 -4.58135E+04  6.12947E+04 -3.83639E+03  3.82801E+04  3.52421E+04
 -4.58750E+03  3.91131E+04 -3.17306E+04  1.89077E+04 -3.31619E+04 -3.70636E+03 -1.99191E+04 -1.20894E+04
 -8.02979E+03 -1.43132E+04  4.19962E+02 -1.92669E+04  7.72892E+03 -2.29534E+04  1.72814E+04 -1.21810E+04
  1.19006E+04  7.03690E+03 -1.15504E+04  1.41248E+04 -2.30646E+04 -5.26958E+03 -8.88705E+03 -3.56076E+04
  2.48130E+04 -4.72738E+04  5.09304E+04 -1.90171E+04  4.91231E+04  2.08345E+04  1.64404E+04  4.64842E+04
 -1.72478E+04  3.56062E+04 -2.85204E+04  1.77478E+03 -1.19452E+04 -2.79766E+04  2.27213E+04 -3.70093E+04
  4.34240E+04 -1.10018E+04  4.09631E+04  2.44061E+04  2.26582E+04  5.06867E+04 -9.27334E+03  5.57577E+04
 -3.60306E+04  3.81891E+04 -4.76164E+04  9.69435E+03 -4.73096E+04 -1.79828E+04 -2.55798E+04 -4.07319E+04
  7.22710E+03 -4.23790E+04  3.42097E+04 -1.63189E+04  3.29593E+04  1.11370E+04  5.19325E+03  2.20361E+04
 -1.46220E+04  8.19416E+03 -1.08837E+04 -7.60282E+03  4.24400E+03 -1.07976E+04  1.90381E+04  3.60073E+03
  1.44639E+04  2.23231E+04 -5.87869E+03  2.67876E+04 -2.28468E+04  1.31650E+04 -3.07432E+04 -5.19729E+03
 -2.47691E+04 -1.98161E+04 -1.09817E+04 -2.49469E+04  4.39202E+03 -2.52909E+04  1.93973E+04 -2.16692E+04
  3.18331E+04 -1.42097E+04  3.84354E+04  4.19382E+03  2.51393E+04  2.47690E+04  3.52131E+03  4.16295E+04
 -1.96551E+04  3.41936E+04 -3.09147E+04  1.18776E+04 -2.22332E+04 -9.46848E+03 -2.69791E+03 -1.19259E+04
  7.36739E+02 -9.94983E+02 -9.52506E+03  7.71408E+03 -2.01112E+04  5.39899E+03 -2.05334E+04 -9.02326E+03
 -1.27362E+04 -2.23180E+04  6.52722E+03 -2.73993E+04  1.84643E+04 -2.05970E+04  2.13863E+04 -1.82341E+03
  1.30435E+04  1.63085E+04 -1.16210E+03  2.33427E+04 -1.65997E+04  1.18964E+04 -2.31363E+04 -4.42545E+03
 -1.62348E+04 -2.04874E+04 -3.77123E+03 -2.69598E+04  1.18659E+04 -2.31469E+04  2.30000E+04 -1.15920E+04
  2.20316E+04 -3.90287E+02  1.53590E+04  5.44315E+03  7.24275E+03  1.65430E+03  1.22267E+04 -2.03551E+03
  2.15273E+04  1.17357E+03  2.36037E+04  1.75188E+04  1.60399E+04  3.70607E+04 -2.89152E+03  4.30585E+04
 -2.32682E+04  3.65840E+04 -4.21252E+04  1.92592E+04 -4.32912E+04 -4.20925E+03 -3.61813E+04 -2.41195E+04
 -1.55025E+04 -3.61292E+04  1.37192E+04 -3.12849E+04  2.79879E+04 -1.58985E+04  2.48196E+04  8.87795E+03
  9.68580E+03  1.89927E+04 -1.16217E+04  1.36861E+04 -2.20158E+04  3.28412E+03 -1.41778E+04 -1.33307E+04
  3.24484E+02 -1.90354E+04  1.07528E+04 -1.36322E+04  1.30039E+04 -1.14332E+03  1.49055E+03  8.58548E+03
 -7.91436E+03  3.62042E+03 -9.41902E+03 -7.73368E+03 -2.55503E+03 -1.65566E+04  1.20453E+04 -1.88696E+04
  2.20439E+04 -1.11343E+04  2.46840E+04  2.74464E+03  2.12702E+04  1.81869E+04  8.63222E+03  2.69550E+04
 -4.15474E+03  3.11581E+04 -1.96786E+04  1.84755E+04 -2.22461E+04  2.51541E+03 -1.42782E+04 -5.96719E+03
 -5.34805E+03 -5.62052E+03 -6.96574E+02  4.44533E+02 -2.30644E+03  3.63672E+03 -6.03629E+03  4.57940E+03
 -1.46997E+04 -2.55971E+03 -1.41800E+04 -1.18073E+04 -6.37977E+03 -1.90379E+04  4.79179E+03 -1.49258E+04
  1.17986E+04 -7.12639E+03  9.32247E+03  4.36248E+03  6.21349E-01  6.19688E+03 -6.46899E+03  4.61897E+02
 -6.84605E+03 -1.01334E+04 -1.28631E+03 -1.48326E+04  9.00926E+03 -1.53974E+04  1.91616E+04 -7.58392E+03
  2.20491E+04  2.64772E+03  1.51909E+04  1.22091E+04  2.64808E+03  1.64407E+04 -9.92282E+03  1.49985E+04
 -1.17730E+04  4.78716E+03 -5.75026E+03 -3.82605E+03  2.76050E+03 -3.19187E+03  7.80359E+03 -3.23048E+03
  6.16559E+03  6.12308E+03  1.55399E+03  1.44388E+04 -8.90194E+03  1.34699E+04 -1.56825E+04  3.75393E+03
 -1.08327E+04 -8.40015E+03  3.95687E+02 -1.21497E+04  7.51839E+03 -5.15422E+03  9.57770E+03  2.91202E+03
  2.27879E+03  9.12705E+03 -7.36011E+03  1.11142E+04 -1.31285E+04  5.08250E+03 -1.34862E+04 -3.60060E+03
 -7.50729E+03 -1.42848E+04  4.50046E+03 -1.73408E+04  1.48423E+04 -1.08723E+04  1.53855E+04  1.11455E+03
  9.39125E+03  1.34693E+04 -1.98156E+03  1.63094E+04 -1.03077E+04  8.28667E+03 -1.37076E+04 -9.82657E+02
 -1.06976E+04 -8.92655E+03 -2.25623E+03 -1.02059E+04  6.06227E+03 -1.03331E+04  7.43341E+03 -2.98475E+03
  4.61323E+03  2.01620E+03 -2.76656E+03  2.57845E+03 -2.58806E+02 -3.44002E+03  2.47822E+03 -7.68569E+03
  1.03615E+04 -4.92345E+03  1.46951E+04  7.08401E+02  1.60004E+04  1.08855E+04  8.58620E+03  2.13380E+04
 -3.73075E+03  2.32291E+04 -1.89204E+04  1.57720E+04 -2.41125E+04  4.66699E+03 -2.06904E+04 -9.56116E+03
 -1.04767E+04 -1.68605E+04  1.25987E+03 -1.32660E+04  6.22811E+03 -6.60389E+03  5.53807E+03 -4.25244E+03
  3.03595E+03 -4.29662E+03  4.43947E+03 -5.05315E+03  5.84232E+03 -5.14052E+03  9.01161E+03 -1.23968E+03
  1.03673E+04  2.89630E+03  5.77700E+03  8.38930E+03 -2.31551E+03  9.71699E+03 -1.03905E+04  9.31043E+03
 -1.24406E+04 -3.81142E+02 -9.37205E+03 -8.58710E+03 -1.49712E+03 -1.51859E+04  8.83393E+03 -1.48380E+04
  1.51494E+04 -6.68421E+03  1.72225E+04  1.16656E+03  1.23665E+04  1.37891E+04  2.18146E+03  1.74465E+04
 -6.76018E+03  1.30358E+04 -9.92400E+03  6.81046E+03 -6.55541E+03 -1.56170E+03 -2.95159E+03  1.03786E+01
 -1.66507E+03  3.78145E+02 -2.26013E+03  3.55423E+03 -5.24042E+03  2.64785E+03 -8.63539E+03 -1.28529E+03
 -7.52799E+03 -9.03974E+03  1.60057E+03 -1.33757E+04  8.75380E+03 -1.27554E+04  1.37151E+04 -4.45113E+03
  1.28996E+04  6.45546E+03  6.89447E+03  1.28945E+04 -1.94277E+03  1.48916E+04 -1.05444E+04  8.30100E+03
 -1.31922E+04 -3.44825E+02 -9.39193E+03 -8.81175E+03 -6.68835E+02 -1.02924E+04  5.96241E+03 -8.88778E+03
  7.46511E+03 -2.53068E+03  7.35445E+03  1.57394E+03  2.25470E+03  3.79622E+03  1.97383E+03  3.32514E+03
  1.70329E+03  1.27061E+03  3.10709E+03  2.12419E+03  2.16097E+03  4.99384E+03  2.89359E+03  6.62158E+03
 -1.13917E+03  1.15796E+04 -9.53634E+03  1.13161E+04 -1.41202E+04  3.45268E+03 -1.48463E+04 -4.67231E+03
 -6.56776E+03 -1.48940E+04  1.77705E+03 -1.50328E+04  8.62986E+03 -1.03469E+04  1.25779E+04 -1.52775E+03
  9.16867E+03  4.48688E+03  2.71069E+03  8.46272E+03 -4.07807E+03  5.37787E+03 -6.00221E+03 -2.22245E+03
 -1.00094E+03 -5.61532E+03  3.24948E+03 -6.00532E+03  4.22012E+03 -2.75390E+03  5.92240E+03  1.33326E+03
  3.12341E+03  3.47761E+03  1.56902E+03  1.04509E+03 -1.77507E+03  2.13428E+03  1.76870E+03 -1.00399E+03
  1.70917E+03 -8.17548E+02  5.31967E+03  1.50309E+03  2.05055E+03  5.90392E+03  3.90678E+02  1.13553E+04
 -7.32757E+03  5.50329E+03 -8.68640E+03  2.24233E+03 -8.44223E+03 -2.76895E+03 -3.33700E+03 -5.76582E+03
  1.63274E+03 -6.22287E+03  3.28651E+03 -2.59104E+03  2.48334E+03  3.83160E+03 -1.65369E+03  3.93893E+03
 -5.58784E+03  2.43822E+03 -7.11391E+03 -3.51299E+03 -3.46468E+03 -8.35303E+03  4.04693E+02 -8.81361E+03
  3.56579E+03 -4.65679E+03  5.54110E+03  5.31473E+01  4.26334E+03  2.94419E+03  1.43751E+03  4.88247E+03
 -4.18028E+03  2.05908E+01 -2.39816E+03 -2.52413E+03  1.41815E+03 -5.94290E+03  6.62229E+03 -5.38081E+03
  8.02526E+03  4.84363E+02  9.02631E+03  6.50966E+03  3.19484E+03  9.44033E+03 -3.77163E+03  8.76822E+03
 -7.35911E+03  4.62565E+03 -8.40558E+03 -1.02666E+03 -5.80907E+03 -6.38555E+03  2.97924E+03 -6.91432E+03
  6.24247E+03 -1.93823E+03  4.94252E+03  8.61034E+02 -5.48895E+02  3.78298E+03 -5.18437E+02  2.72150E+03
 -3.01700E+03  1.31212E+03 -8.73345E+02  1.19341E+03  6.83318E+02  6.22433E+02 -2.02867E+03  2.73772E+03
 -1.92449E+03  3.48619E+03 -5.41004E+03  2.51566E+03 -9.33398E+03  5.29553E+02 -7.92963E+03 -7.17461E+03
 -4.44283E+03 -1.18371E+04  2.75040E+03 -1.23641E+04  7.89011E+03 -1.01049E+04  1.18923E+04 -3.94312E+03
  1.28415E+04  8.40007E+02  6.52146E+03  7.26620E+03  1.44732E+03  9.52054E+03 -3.21511E+03  6.44203E+03
 -5.65883E+03  1.76792E+03 -2.28996E+03 -1.87788E+03 -2.74308E+03  2.35069E+02 -6.32581E+02  3.96420E+01
 -1.51246E+03  4.65569E+02 -2.84871E+03 -1.18252E+03 -2.53558E+02 -1.64344E+03  2.03631E+02 -2.77118E+03
  3.74495E+03 -2.30955E+03  5.37898E+03  8.58818E+01  6.26577E+03  4.90241E+03  1.60802E+03  9.95113E+03
 -3.22751E+03  1.01069E+04 -9.29045E+03  5.99661E+03 -1.02900E+04 -2.30360E+03 -7.39949E+03 -6.00566E+03
 -2.90026E+03 -9.38991E+03  2.92704E+03 -9.29016E+03  6.75270E+03 -5.12318E+03  5.12999E+03  4.00664E+02
  4.42291E+03  3.05213E+03 -7.01454E+02  3.65727E+03 -2.22126E+03 -3.67907E+02 -2.53170E+02 -7.88674E+02
  4.05835E+03 -2.59175E+03  3.67437E+03  5.70805E+02  2.24798E+03  4.00992E+03  1.92851E+03  3.72437E+03
 -4.87663E+03  3.72124E+03 -4.82652E+03  1.93546E+03 -4.47182E+03 -2.14191E+03  1.24480E+02 -7.24983E+03
  3.91736E+03 -5.60941E+03  6.88829E+03 -1.35340E+03  7.09693E+03  9.90394E+02  3.50324E+03  3.92040E+03
  2.30729E+03  4.18563E+03 -2.20969E+03  5.20555E+03 -3.03225E+03  2.39317E+03 -3.64510E+03  4.58311E+02
 -9.86984E+02 -5.61925E+02 -1.31131E+03  7.54025E+02 -1.90117E+03  1.19270E+03 -4.61887E+03 -9.18286E+02
 -4.20514E+03 -2.34489E+03 -1.71898E+03 -6.08021E+03  3.11996E+03 -8.51189E+03  4.95035E+03 -2.33593E+03
  6.14271E+03  4.33808E+02  2.23335E+03  4.18307E+03 -1.33328E+01  5.57311E+03 -5.03276E+03  4.45963E+03
