 $NMID ID='MM_0lb_SNR200_19hz_g40_29.RAW', FMTDAT='(8E13.5)'
 TRAMP=1., VOLUME=1. $END
  3.09464E+05  1.35807E+03  3.37139E+05  2.50806E+05  8.36812E+04  3.37655E+05 -1.31511E+05  2.49691E+05
 -1.89398E+05  8.17584E+04 -1.10608E+05 -3.17361E+04  1.47610E+03 -5.01520E+04  5.43841E+04  7.81745E+02
  3.50674E+04  5.24842E+04 -1.73766E+04  7.48134E+04 -6.01229E+04  6.17567E+04 -8.25172E+04  3.20553E+04
 -8.00270E+04 -1.07279E+04 -5.68769E+04 -5.00168E+04 -1.53145E+04 -6.80067E+04  2.73246E+04 -4.43901E+04
  3.85368E+04  4.25999E+03  1.58761E+04  4.69679E+04 -3.39207E+04  4.64072E+04 -6.57243E+04 -1.14041E+03
 -5.14252E+04 -5.40446E+04 -6.14230E+03 -7.47760E+04  3.30673E+04 -5.14248E+04  4.57760E+04 -1.53848E+04
  4.07013E+04  1.08042E+04  3.07258E+04  2.48988E+04  1.62508E+04  2.78584E+04 -4.87651E+03  2.78296E+04
 -2.11439E+04  1.35235E+04 -1.97010E+04 -3.55775E+03  4.83116E+03 -6.91975E+03  2.05636E+04  1.09588E+04
  7.57277E+03  3.19507E+04 -2.99996E+04  3.42322E+04 -6.03079E+04  2.23279E+03 -5.51271E+04 -4.01348E+04
 -1.27083E+04 -6.08508E+04  3.81950E+04 -4.11029E+04  5.48535E+04 -1.29310E+03  3.08968E+04  3.10728E+04
 -6.69854E+03  3.18696E+04 -2.76716E+04  1.30069E+04 -2.70130E+04 -5.58513E+03 -1.35703E+04 -1.02263E+04
 -7.94123E+03 -1.15423E+04 -1.98113E+03 -1.60017E+04  6.39482E+03 -2.27434E+04  1.45081E+04 -1.36077E+04
  1.27729E+04  3.82463E+03 -5.31532E+03  1.30240E+04 -1.89120E+04 -3.04819E+03 -7.81582E+03 -2.91155E+04
  1.93315E+04 -3.94951E+04  4.35083E+04 -1.79666E+04  4.09032E+04  1.73244E+04  1.46629E+04  4.10956E+04
 -1.51895E+04  2.95351E+04 -2.27529E+04  1.15190E+03 -6.93256E+03 -2.57585E+04  2.02553E+04 -3.10219E+04
  3.81197E+04 -6.74871E+03  3.03574E+04  2.35337E+04  1.51319E+04  4.09349E+04 -6.96072E+03  4.27648E+04
 -2.67697E+04  2.86773E+04 -3.59697E+04  8.46984E+03 -3.67934E+04 -1.37108E+04 -2.07287E+04 -3.33249E+04
  7.18242E+03 -3.38729E+04  2.77059E+04 -1.25550E+04  2.51413E+04  1.05638E+04  2.18448E+03  1.76426E+04
 -1.39714E+04  6.91560E+03 -9.67295E+03 -7.41713E+03  5.83219E+03 -1.03201E+04  1.59427E+04  6.71510E+03
  1.19017E+04  2.18017E+04 -5.81692E+03  2.30500E+04 -2.04552E+04  9.69178E+03 -2.48743E+04 -7.56403E+03
 -1.59566E+04 -1.68576E+04 -4.69783E+03 -1.50281E+04  3.68127E+03 -1.31293E+04  1.19440E+04 -1.35291E+04
  2.03559E+04 -1.09336E+04  2.58405E+04  9.50140E+02  2.12463E+04  1.57398E+04  3.99128E+03  3.07987E+04
 -1.49831E+04  2.66806E+04 -2.56433E+04  9.67600E+03 -2.02619E+04 -1.10002E+04 -3.64941E+03 -1.39743E+04
  2.72357E+03 -4.90575E+03 -1.49014E+03  4.75121E+03 -1.23858E+04  5.23140E+03 -1.18766E+04 -5.00210E+03
 -8.46065E+03 -1.55682E+04  5.35480E+03 -1.76070E+04  1.15418E+04 -1.33473E+04  1.38341E+04 -1.90700E+03
  7.79734E+03  1.07805E+04 -5.79300E+02  1.43365E+04 -9.69318E+03  8.05425E+03 -1.33803E+04 -3.07368E+03
 -1.06849E+04 -1.44772E+04 -2.54375E+03 -1.79595E+04  7.55130E+03 -1.42657E+04  1.50856E+04 -6.46184E+03
  1.27509E+04  1.48829E+03  9.74138E+03  3.77146E+03  3.98972E+03  1.74754E+03  7.09524E+03 -2.22401E+03
  1.21832E+04  2.45903E+03  1.42952E+04  1.09209E+04  8.17746E+03  2.26675E+04 -3.00872E+03  2.50428E+04
 -1.51714E+04  1.94044E+04 -2.30665E+04  9.17738E+03 -2.27823E+04 -8.12371E+02 -1.99943E+04 -1.22299E+04
 -9.67320E+03 -1.82916E+04  6.41765E+03 -1.68105E+04  1.64569E+04 -1.09023E+04  1.47060E+04  2.97908E+03
  5.65494E+03  1.09893E+04 -5.53815E+03  1.09934E+04 -1.22099E+04  2.02798E+03 -9.33616E+03 -7.80929E+03
 -7.49969E+02 -1.20130E+04  5.93882E+03 -8.88969E+03  6.95224E+03 -1.66952E+03  9.02405E+02  4.09223E+03
 -5.15399E+03  1.26550E+03 -3.38702E+03 -4.60902E+03  1.03794E+03 -9.75537E+03  7.77357E+03 -9.78404E+03
  1.15816E+04 -4.42743E+03  9.80303E+03  2.30797E+03  8.88594E+03  8.09507E+03  4.62041E+03  1.27209E+04
 -1.54344E+03  1.47886E+04 -8.69308E+03  1.00826E+04 -1.01584E+04  2.55626E+03 -6.95989E+03 -1.20846E+03
 -4.89603E+03 -3.09205E+03 -9.16223E+02  2.60591E+03 -2.19964E+03  1.36663E+03 -3.76868E+03  3.45042E+03
 -8.03507E+03 -1.23560E+03 -7.86128E+03 -6.73020E+03 -3.93133E+03 -1.11978E+04  3.72498E+03 -8.52166E+03
  6.54518E+03 -3.80014E+03  5.03154E+03  2.21407E+03  7.58577E+02  2.07857E+03 -2.69114E+03 -1.07964E+02
 -3.35404E+03 -4.70602E+03 -2.06225E+02 -6.98114E+03  3.66858E+03 -7.02152E+03  9.57261E+03 -4.57202E+03
  1.07597E+04  5.21423E+02  7.05572E+03  5.88006E+03  2.01561E+03  7.42160E+03 -5.79722E+03  8.33288E+03
 -6.48036E+03  2.73111E+03 -3.57542E+03 -1.61564E+03  1.19572E+03 -2.10967E+03  4.22232E+03 -9.17043E+02
  4.69934E+03  3.21768E+03  6.10158E+02  5.55113E+03 -4.07517E+03  5.93318E+03 -7.74491E+03  7.58507E+02
 -3.81511E+03 -2.76605E+03  1.06846E+02 -6.03902E+03  4.25988E+03 -2.83485E+03  2.15089E+03  3.48880E+01
  6.97907E+02  4.00731E+03 -4.37185E+03  5.95638E+03 -4.61032E+03  2.13058E+03 -4.33991E+03 -1.83559E+03
 -2.29711E+03 -4.58562E+03  9.87878E+02 -7.01126E+03  5.14487E+03 -4.37587E+03  6.61812E+03  4.31466E+02
  4.52115E+03  5.53941E+03  1.58281E+03  6.62081E+03 -4.99963E+03  3.42542E+03 -5.32465E+03  1.01450E+02
 -6.14307E+03 -5.38821E+03 -4.57013E+02 -5.77104E+03  3.02579E+03 -4.17553E+03  2.49623E+03 -2.09448E+03
  2.33874E+03  5.66522E+02  3.62931E+02  1.09192E+03  7.24474E+02  6.10461E+02 -6.50498E+02 -1.16551E+03
  3.34842E+03 -1.32799E+03  5.30413E+03  7.96605E+02  4.39427E+03  2.27146E+03  5.44946E+03  6.46729E+03
 -1.04260E+03  6.82623E+03 -6.32380E+03  5.17583E+03 -8.48486E+03  7.48629E+02 -7.14583E+03 -2.13308E+03
 -4.85907E+03 -7.14627E+03 -8.27796E+02 -4.96800E+03  2.16295E+03 -1.82974E+03  1.63889E+03 -6.73147E+02
  1.63868E+03 -1.34888E+03  2.28345E+03 -2.73337E+03  3.99993E+03 -1.95652E+03  3.91944E+03  1.03861E+03
  3.92480E+03  1.70479E+03  1.23197E+02  3.86723E+03 -1.80926E+03  1.70319E+03 -4.58494E+03  2.48635E+03
 -4.23770E+03 -7.56503E+02 -2.08952E+03 -3.14601E+03  2.78743E+02 -3.22242E+03  2.52305E+03 -4.98507E+03
  5.50006E+03 -3.35460E+03  6.05803E+03 -3.23593E+02  4.04610E+03  3.59964E+03  4.88518E+02  7.05865E+03
 -2.78211E+03  5.07914E+03 -2.55297E+03  1.17915E+03 -1.32487E+03 -2.01669E+03 -5.77793E+02 -6.78262E+02
 -7.16053E+02 -4.78733E+02 -1.18306E+03  1.43575E+03 -2.04313E+03  1.52739E+02 -3.32691E+03 -1.28165E+03
 -1.08564E+03 -3.59304E+03  1.68126E+03 -3.98206E+03  2.01620E+03 -4.27110E+03  3.46311E+03 -9.47419E+02
  3.18410E+03  1.45122E+03  2.12491E+03  2.29751E+03 -5.12738E+02  4.56839E+03 -2.74443E+03  3.66813E+03
 -3.27910E+03  1.38865E+03 -2.46899E+03 -2.29206E+03 -1.60533E+02 -3.08973E+03  1.96387E+03 -2.89694E+03
  2.74230E+03 -2.43566E+03  9.04581E+02  2.40279E+02  1.19076E+03  8.88140E+02 -1.38434E+01  5.88680E+02
  1.48874E+03  5.93464E+02  1.48647E+03  1.27372E+03  3.43338E+02  1.00686E+03  9.63966E+02  4.36981E+02
 -2.74617E+03  3.02399E+03 -1.39207E+03  3.79908E+03 -3.36406E+03  8.63352E+02 -3.80495E+03 -2.13276E+02
 -2.31050E+03 -3.41716E+03 -3.45647E+01 -3.88191E+03  9.94937E+02 -1.23393E+03  2.59776E+03 -6.96233E+02
  1.94332E+03  1.42214E+03  1.02933E+03  2.74851E+03 -1.68031E+03  8.75323E+02 -1.03362E+03 -7.69435E+02
 -3.89993E+02 -2.14587E+03  1.22579E+03 -1.60559E+03  1.48697E+03 -2.52457E+02  6.69516E+02 -4.87527E+02
  9.34564E+02  9.65721E+02  4.04199E+02 -6.49648E+02 -9.08725E+02  1.00171E+03  1.36302E+03 -5.97552E+02
  2.33541E+02  1.20369E+02  2.51017E+03  7.04124E+02  9.78240E+02  1.53538E+03 -8.66589E+02  2.37149E+03
 -2.24636E+03  2.15458E+02 -2.32196E+03  1.79056E+02 -1.76644E+03 -1.32882E+03  1.09691E+03 -6.34094E+02
 -4.96466E+02 -1.33686E+03  4.55275E+02 -4.29126E+02  9.35125E+02  6.09224E+02 -1.82209E+03  2.47134E+02
 -7.68986E+02  7.57817E+02 -1.16255E+03 -1.23748E+03 -5.46756E+02 -2.44063E+03 -6.63733E+02 -1.96199E+03
  4.04815E+02  4.46065E+02  9.09129E+02 -4.18880E+02  1.75530E+03  7.23379E+02  2.24655E+02  1.49136E+03
 -4.13739E+02  1.51683E+02 -7.41839E+02  2.95424E+01 -2.01036E+02 -4.62863E+02  1.98729E+03 -1.71343E+03
  1.06219E+03  4.22071E+02  4.06799E+03  1.25116E+03  1.39458E+03  1.95085E+03 -4.40869E+02  1.65433E+03
 -4.55976E+02  1.37901E+03 -2.29280E+03 -2.07543E+02 -7.85491E+02 -1.05578E+03  8.83567E+02 -1.67896E+02
  1.23000E+03  2.67210E+01  1.30869E+03  4.98295E+02  4.48311E+02  3.10095E+02  6.41754E+02  1.23460E+03
 -1.91467E+02  8.80691E+02  4.95570E+02 -1.20845E+02  7.15585E+01 -1.01748E+02 -1.05193E+03  5.74523E+02
 -4.16569E+02  6.61799E+02 -8.42088E+02 -2.84887E+02 -2.19184E+03  1.10283E+03 -1.61024E+03 -2.98795E+02
 -1.23061E+03 -2.15225E+03  1.14978E+03 -1.82793E+03  8.20301E+02 -2.44586E+03  2.51601E+03 -1.46958E+03
  1.87436E+03  3.18415E+02  7.90949E+02  1.14733E+03 -1.02125E+02  1.24730E+03 -6.17138E+02  6.70577E+02
 -9.39334E+02  3.76051E+02 -2.97564E+02  3.31811E+02 -6.73642E+02 -3.73012E+00 -6.78209E+02  1.24057E+02
 -1.84660E+03  7.47181E+02 -4.29267E+02  6.54174E+02  2.85936E+02 -2.49122E+02 -1.07045E+03 -1.41488E+03
  1.01366E+03 -3.82849E+01  3.11224E+02 -5.23877E+02  1.28662E+03  9.32045E+02 -1.20684E+03  1.00870E+03
 -1.41948E+03  2.59937E+03 -2.02078E+03  4.67423E+02 -1.01326E+03 -3.67683E+00 -2.64569E+02 -1.01075E+03
 -8.90981E+02 -1.19639E+03 -6.23576E+02 -1.54578E+03  6.55017E+01  1.31141E+02  2.94265E+02 -7.68712E+02
  4.29887E+02 -6.76462E+02 -1.90294E+02  7.00159E+02 -7.87892E+02  5.83951E+02  6.84746E+02  2.23507E+02
  1.12471E+03 -2.66139E+02  7.00012E+02  5.93474E+02 -1.32271E+03 -1.97944E+02  8.91821E+02  2.13834E+02
 -1.89798E+02  1.18478E+02  5.13420E+02 -1.49878E+02 -1.40530E+03 -8.72211E+02 -6.94646E+00 -7.24245E+02
  3.42365E+02  3.05727E+02  2.78318E+02 -7.16686E+02  1.38830E+03 -1.92511E+03  3.89350E+02 -5.32438E+02
 -5.29026E+01  6.83226E+02  9.86153E+00  1.20065E+03 -4.29738E+02 -7.54822E+01 -7.26283E+02  3.41412E+02
 -1.26902E+03 -7.68949E+02 -7.37855E+02  7.54209E+02 -1.55601E+02  6.74680E+02 -1.10408E+03  1.49673E+02
 -9.76341E+02  6.35188E+02 -3.74675E+02 -1.40596E+03  7.27201E+02 -8.04257E+02  1.14187E+03  4.19393E+01
  4.05396E+02  1.68905E+02  3.24813E+02  2.80258E+00  2.19958E+02  3.71747E+02 -2.01155E+02  8.29308E+02
