 $NMID ID='MM_0lb_SNR200_10hz_g60_84.RAW', FMTDAT='(8E13.5)'
 TRAMP=1., VOLUME=1. $END
  3.09172E+05  6.66889E+02  3.37858E+05  2.51506E+05  8.44368E+04  3.38147E+05 -1.32090E+05  2.51236E+05
 -1.91030E+05  8.42942E+04 -1.10847E+05 -3.33350E+04  7.22488E+02 -4.96791E+04  5.49240E+04 -1.02801E+03
  3.58325E+04  5.29320E+04 -1.60596E+04  7.55652E+04 -6.02340E+04  6.44251E+04 -8.41669E+04  3.33966E+04
 -8.29264E+04 -1.07887E+04 -5.92678E+04 -5.19765E+04 -1.48733E+04 -7.01232E+04  2.94237E+04 -4.62657E+04
  4.07202E+04  3.29607E+03  1.71309E+04  4.76960E+04 -3.51875E+04  4.73683E+04 -6.88818E+04  2.34886E+02
 -5.54858E+04 -5.84313E+04 -6.12027E+03 -7.97914E+04  3.46377E+04 -5.77705E+04  4.94423E+04 -1.83544E+04
  4.51801E+04  1.04834E+04  3.43983E+04  2.65920E+04  1.60948E+04  3.04827E+04 -5.27455E+03  2.67220E+04
 -2.27788E+04  1.33288E+04 -1.80433E+04 -4.98716E+03  6.49146E+03 -6.95326E+03  2.40663E+04  1.28912E+04
  6.36127E+03  3.71724E+04 -3.40107E+04  3.83774E+04 -6.61042E+04  1.48753E+03 -5.89109E+04 -4.36699E+04
 -1.25575E+04 -6.51610E+04  4.02050E+04 -4.69958E+04  6.21803E+04 -1.37119E+03  3.47810E+04  3.37759E+04
 -6.38159E+03  4.05140E+04 -3.11244E+04  1.91591E+04 -3.31636E+04 -3.15600E+03 -1.93371E+04 -1.30365E+04
 -9.21323E+03 -1.46096E+04  1.26752E+03 -1.86715E+04  8.15303E+03 -2.38159E+04  1.59758E+04 -1.24871E+04
  1.16573E+04  6.70730E+03 -1.00888E+04  1.26237E+04 -2.44024E+04 -6.66212E+03 -7.43296E+03 -3.75506E+04
  2.50788E+04 -4.76413E+04  5.34651E+04 -2.10523E+04  4.78985E+04  2.07273E+04  1.77671E+04  4.78608E+04
 -1.58620E+04  3.60882E+04 -2.75980E+04  1.55044E+03 -1.05944E+04 -3.05235E+04  2.07460E+04 -3.65805E+04
  4.51795E+04 -1.22277E+04  3.98281E+04  2.51688E+04  2.06329E+04  5.15394E+04 -7.49008E+03  5.67926E+04
 -3.52257E+04  3.77830E+04 -4.79777E+04  1.02628E+04 -4.81613E+04 -1.82832E+04 -2.67517E+04 -4.22080E+04
  8.79300E+03 -4.16638E+04  3.37427E+04 -1.62806E+04  3.34950E+04  1.18908E+04  7.17745E+03  2.06304E+04
 -1.32561E+04  9.81854E+03 -1.17278E+04 -7.81898E+03  5.76649E+03 -1.26826E+04  1.82239E+04  5.12523E+03
  1.49193E+04  2.34779E+04 -4.13597E+03  2.67116E+04 -2.20949E+04  1.51524E+04 -3.23725E+04 -2.63197E+03
 -2.61199E+04 -1.89120E+04 -1.18034E+04 -2.62780E+04  4.80539E+03 -2.56148E+04  2.19511E+04 -2.35055E+04
  3.27116E+04 -1.38631E+04  3.80112E+04  5.56006E+03  2.81203E+04  2.41824E+04  2.42951E+03  4.09693E+04
 -1.89085E+04  3.28824E+04 -3.25652E+04  1.23961E+04 -2.09825E+04 -8.70812E+03 -5.06676E+03 -1.11187E+04
  1.92899E+03 -8.92621E+01 -9.91746E+03  7.77077E+03 -1.99586E+04  5.94801E+03 -1.92268E+04 -9.04129E+03
 -1.18400E+04 -2.25066E+04  6.44611E+03 -2.78896E+04  1.87173E+04 -1.99703E+04  2.33684E+04 -7.16436E+02
  1.45529E+04  1.54196E+04 -1.37178E+03  2.35832E+04 -1.56503E+04  1.32272E+04 -2.48121E+04 -4.67183E+03
 -1.77282E+04 -2.11019E+04 -1.40788E+03 -2.85203E+04  1.33736E+04 -2.23625E+04  2.38713E+04 -1.17100E+04
  2.08495E+04  1.16605E+03  1.63967E+04  6.52279E+03  8.39552E+03  1.63406E+03  1.23841E+04 -4.59748E+02
  2.32182E+04  2.79719E+03  2.60174E+04  1.86646E+04  1.74340E+04  3.76137E+04 -2.21059E+03  4.46771E+04
 -2.51327E+04  3.83299E+04 -4.26858E+04  1.90452E+04 -4.54634E+04 -2.20266E+03 -3.58971E+04 -2.62841E+04
 -1.41118E+04 -3.69523E+04  1.23741E+04 -3.23894E+04  2.68758E+04 -1.53691E+04  2.46685E+04  6.49361E+03
  8.10045E+03  1.86590E+04 -1.16247E+04  1.42603E+04 -1.95538E+04  5.03246E+03 -1.55308E+04 -1.28838E+04
 -9.19441E+02 -1.82923E+04  9.97334E+03 -1.32535E+04  1.36417E+04 -1.37168E+03  2.11199E+03  8.39027E+03
 -9.60047E+03  3.54686E+03 -9.84167E+03 -7.93865E+03 -1.93189E+03 -1.88194E+04  1.20442E+04 -1.97188E+04
  2.38378E+04 -1.02611E+04  2.64776E+04  3.28706E+03  2.42072E+04  2.02175E+04  1.01575E+04  2.78793E+04
 -5.58994E+03  2.94933E+04 -2.19549E+04  1.79280E+04 -2.24282E+04  3.86835E+03 -1.53576E+04 -6.29005E+03
 -6.03294E+03 -7.80568E+03 -1.01355E+03  4.98330E+02 -1.67428E+03  3.92009E+03 -6.02340E+03  6.26600E+03
 -1.41126E+04 -4.46228E+02 -1.33834E+04 -1.11411E+04 -6.63531E+03 -2.04287E+04  6.71485E+03 -1.50861E+04
  1.30980E+04 -5.08228E+03  1.03585E+04  3.95877E+03 -5.65463E+02  6.74283E+03 -7.28540E+03  6.54968E+02
 -7.61690E+03 -9.45461E+03 -1.19100E+03 -1.55227E+04  9.09989E+03 -1.84492E+04  2.03609E+04 -9.72090E+03
  2.40345E+04  2.83042E+03  1.51827E+04  1.56045E+04  2.36288E+03  1.99838E+04 -9.51243E+03  1.45437E+04
 -1.14589E+04  4.45172E+03 -6.49852E+03 -3.44362E+03  1.79555E+03 -3.77561E+03  7.34033E+03 -2.64215E+02
  7.85591E+03  6.60386E+03  1.24238E+03  1.37685E+04 -9.42293E+03  1.18289E+04 -1.60023E+04  3.04787E+03
 -1.11077E+04 -7.39193E+03  3.69868E+02 -1.33134E+04  9.25970E+03 -5.59503E+03  9.00611E+03  2.44415E+03
  3.32611E+03  1.13492E+04 -7.71309E+03  1.07865E+04 -1.21824E+04  5.51914E+03 -1.52253E+04 -4.78470E+03
 -9.39430E+03 -1.46280E+04  4.01058E+03 -1.78954E+04  1.51194E+04 -1.14254E+04  1.81769E+04  3.26354E+03
  9.72294E+03  1.31325E+04 -1.59128E+03  1.53831E+04 -1.18473E+04  8.31260E+03 -1.38095E+04 -1.68310E+03
 -1.00598E+04 -1.02027E+04 -2.26283E+03 -1.27925E+04  6.52364E+03 -8.58026E+03  6.01153E+03 -3.28692E+03
  5.72425E+03  1.03022E+03 -1.75671E+03  3.98100E+03  1.13579E+03 -4.51811E+03  2.54106E+03 -7.41816E+03
  1.03231E+04 -5.26842E+03  1.53012E+04  2.42734E+03  1.58876E+04  1.08999E+04  1.02177E+04  2.09317E+04
 -5.07550E+03  2.33494E+04 -1.99414E+04  1.70300E+04 -2.48320E+04  2.91855E+03 -2.28476E+04 -9.35576E+03
 -1.09235E+04 -1.55655E+04 -1.22075E+02 -1.47711E+04  5.01845E+03 -7.34367E+03  5.79752E+03 -5.85230E+03
  4.51224E+03 -3.16094E+03  4.83663E+03 -3.49968E+03  5.64532E+03 -5.29414E+03  8.39815E+03 -2.37893E+03
  9.41142E+03  1.58255E+03  5.13905E+03  7.66963E+03 -1.92404E+03  1.17371E+04 -1.05521E+04  8.34713E+03
 -1.29563E+04 -2.65685E+02 -8.80886E+03 -1.09549E+04 -1.40870E+03 -1.43906E+04  9.26356E+03 -1.51198E+04
  1.52944E+04 -8.10165E+03  1.86976E+04  9.34330E+02  1.32023E+04  1.28691E+04  3.92249E+03  1.67899E+04
 -6.32466E+03  1.41393E+04 -8.66808E+03  4.12200E+03 -6.05661E+03 -2.75356E+03 -3.25922E+03 -1.71251E+03
 -8.72100E+02 -1.47957E+02 -1.66725E+03  3.62851E+03 -4.79538E+03  3.00836E+03 -9.59077E+03 -2.55971E+01
 -8.31600E+03 -8.49992E+03  8.61119E+02 -1.40797E+04  8.15460E+03 -1.34372E+04  1.16544E+04 -4.02994E+03
  1.45422E+04  6.90694E+03  7.00101E+03  1.29401E+04 -1.64317E+03  1.37852E+04 -1.12252E+04  9.60828E+03
 -1.32764E+04  2.44917E+03 -1.02244E+04 -8.29490E+03 -1.02073E+03 -1.11368E+04  6.40653E+03 -9.62368E+03
  1.05148E+04 -3.41822E+03  5.75365E+03  2.58809E+03  2.80506E+03  4.76605E+03  2.72270E+03  1.48594E+03
  2.30898E+03  1.43838E+03  4.20639E+03  2.18420E+03  2.55329E+03  4.64480E+03  3.91373E+03  6.36641E+03
 -3.02498E+03  1.17033E+04 -9.83139E+03  1.20902E+04 -1.41781E+04  2.09649E+03 -1.30992E+04 -6.65212E+03
 -7.21093E+03 -1.58697E+04  1.96647E+03 -1.43097E+04  9.10352E+03 -8.82183E+03  9.65441E+03 -3.26268E+03
  9.03939E+03  5.93978E+03  2.40110E+03  7.84237E+03 -3.52708E+03  6.09678E+03 -5.80826E+03 -5.97860E+02
 -3.70407E+03 -6.58288E+03  2.87426E+03 -6.74279E+03  6.28680E+03 -1.84802E+03  6.84856E+03  1.81173E+03
  3.38218E+03  6.93566E+02  1.93314E+03  2.02112E+03 -6.46603E+02  2.10464E+03  3.56373E+03  4.98181E+02
  2.57661E+03  4.10529E+02  5.97212E+03  4.11032E+03  3.80156E+03  8.62177E+03 -6.02782E+02  1.02359E+04
 -8.73238E+03  5.82991E+03 -8.22311E+03  1.09561E+03 -8.68368E+03 -3.32825E+03 -3.30843E+03 -5.22713E+03
  1.01410E+03 -6.47391E+03  2.82134E+03 -2.71785E+03  2.65549E+03  3.38150E+03 -1.09106E+03  3.73497E+03
 -5.48913E+03  3.27609E+03 -5.84797E+03 -3.87358E+03 -4.67407E+03 -7.49658E+03  1.57249E+03 -7.91153E+03
  3.66582E+03 -3.06688E+03  5.60659E+03 -1.81016E+03  5.74152E+03  1.95036E+03  5.23778E+02  4.96927E+03
 -7.83232E+02  1.42621E+03 -3.49110E+03 -3.50582E+03  1.47540E+03 -5.65581E+03  7.28505E+03 -5.42933E+03
  7.45779E+03  2.24726E+02  8.82678E+03  7.04256E+03  3.10202E+03  1.04732E+04 -3.09815E+03  9.38670E+03
 -8.17581E+03  3.07095E+03 -1.00156E+04 -8.28983E+02 -4.75071E+03 -5.97486E+03  1.23821E+03 -5.99128E+03
  7.09647E+03 -3.16100E+03  5.88635E+03  1.69620E+03  2.20712E+03  7.02323E+03 -1.72194E+01  4.05707E+03
 -2.88423E+03  3.37742E+03 -1.49170E+03  3.77302E+02 -6.88262E+02  1.57008E+03 -2.26862E+03  2.01620E+03
 -2.12964E+03  2.94316E+03 -5.39352E+03  4.42618E+03 -9.22401E+03 -1.07583E+03 -1.10284E+04 -5.51632E+03
 -4.60343E+03 -1.04293E+04  1.90418E+03 -1.41154E+04  9.54773E+03 -1.10157E+04  1.23039E+04 -4.51459E+03
  1.18292E+04  3.81430E+02  8.48494E+03  8.96555E+03  6.26357E+01  1.11000E+04 -3.28338E+03  6.69921E+03
 -4.81047E+03  2.25558E+03 -3.00417E+03 -1.42750E+03 -7.62416E+02 -9.20796E+02 -2.24817E+02 -8.88663E+02
 -2.14731E+03 -5.28596E+02 -2.97944E+03 -1.90009E+03 -1.41549E+03 -2.34624E+03  2.54145E+02 -4.32654E+03
  3.74982E+03 -2.67532E+03  4.89489E+03 -1.39181E+03  6.80216E+03  5.29931E+03  1.62001E+03  1.05062E+04
 -3.14324E+03  1.03521E+04 -1.09982E+04  8.26766E+03 -1.17551E+04 -1.53101E+03 -8.58512E+03 -6.93575E+03
 -4.73594E+03 -1.02788E+04  1.53239E+03 -8.77607E+03  6.30454E+03 -4.15896E+03  5.56860E+03 -6.54600E+02
  2.76313E+03  1.82725E+03 -1.93214E+02  2.77303E+03 -3.48925E+02 -1.40961E+03 -5.43364E+02 -2.53351E+03
  2.73027E+03 -1.14566E+03  3.32970E+03  4.00719E+02  2.32105E+03  3.42026E+03  1.30983E+03  5.60959E+03
 -3.64127E+03  4.28400E+03 -6.27208E+03  1.15183E+03 -5.89855E+03 -4.82380E+03  4.40868E+02 -7.73803E+03
  2.79204E+03 -6.77315E+03  5.69016E+03 -1.90193E+03  6.90561E+03  1.15596E+03  4.02450E+03  4.59409E+03
  9.81862E+02  6.61593E+03 -2.56367E+03  4.54833E+03 -2.86905E+03  1.91689E+03 -3.53108E+03  1.11118E+03
 -1.48977E+03 -1.02227E+03 -2.41054E+03  1.08454E+03 -3.46168E+03  1.15544E+03 -3.51623E+03 -1.93675E+03
 -3.71588E+03 -3.38918E+03 -1.51998E+03 -6.36220E+03  2.67471E+03 -6.13601E+03  4.83245E+03 -2.06974E+03
  7.63836E+03  7.84382E+02  3.05038E+03  4.05568E+03  8.51049E+01  5.31039E+03 -3.55850E+03  3.30777E+03
