 $NMID ID='MM_0lb_SNR200_12hz_g45_18.RAW', FMTDAT='(8E13.5)'
 TRAMP=1., VOLUME=1. $END
  3.10132E+05  1.86933E+03  3.37190E+05  2.50336E+05  8.41640E+04  3.39102E+05 -1.31884E+05  2.50236E+05
 -1.91451E+05  8.38407E+04 -1.12090E+05 -3.27115E+04  1.11408E+03 -5.17109E+04  5.46497E+04  3.85337E+02
  3.48788E+04  5.29597E+04 -1.61973E+04  7.61144E+04 -6.20844E+04  6.31490E+04 -8.46089E+04  3.21688E+04
 -8.13498E+04 -1.22345E+04 -5.65065E+04 -5.03112E+04 -1.42073E+04 -6.99708E+04  2.79416E+04 -4.85529E+04
  4.11653E+04  4.71276E+03  1.69399E+04  4.85645E+04 -3.28710E+04  4.72712E+04 -6.76821E+04 -6.13470E+02
 -5.43178E+04 -5.76162E+04 -6.04747E+03 -7.69924E+04  3.43200E+04 -5.51863E+04  4.83851E+04 -1.80753E+04
  4.41344E+04  1.17862E+04  3.14883E+04  2.62470E+04  1.69307E+04  2.99236E+04 -5.18095E+03  2.76196E+04
 -2.15638E+04  1.23461E+04 -1.84844E+04 -5.09442E+03  5.09985E+03 -6.93409E+03  2.20062E+04  1.30673E+04
  5.84797E+03  3.66999E+04 -3.30294E+04  3.64784E+04 -6.35516E+04  6.62952E+02 -5.77447E+04 -4.29893E+04
 -1.31376E+04 -6.39950E+04  3.91740E+04 -4.50748E+04  5.91871E+04 -2.03660E+03  3.39954E+04  3.17626E+04
 -6.29783E+03  3.73823E+04 -2.92146E+04  1.57722E+04 -3.06017E+04 -3.56561E+03 -1.77077E+04 -1.16520E+04
 -8.56017E+03 -1.24432E+04 -5.17506E+01 -1.99330E+04  7.48637E+03 -2.31464E+04  1.59451E+04 -1.20952E+04
  1.19235E+04  5.33779E+03 -9.63378E+03  1.32674E+04 -2.22472E+04 -6.23894E+03 -8.58309E+03 -3.46334E+04
  2.39574E+04 -4.44400E+04  4.97993E+04 -2.03375E+04  4.59746E+04  1.89620E+04  1.61564E+04  4.49048E+04
 -1.65846E+04  3.46935E+04 -2.70806E+04  1.58268E+03 -1.07686E+04 -2.80079E+04  2.12167E+04 -3.52285E+04
  4.21589E+04 -8.89458E+03  3.82498E+04  2.52564E+04  1.82220E+04  4.86767E+04 -8.09976E+03  5.22377E+04
 -3.28863E+04  3.59354E+04 -4.31953E+04  9.45938E+03 -4.52354E+04 -1.71762E+04 -2.46056E+04 -3.92841E+04
  6.57834E+03 -3.79930E+04  3.35646E+04 -1.54095E+04  2.90791E+04  1.17561E+04  4.56092E+03  1.97925E+04
 -1.45228E+04  8.91281E+03 -9.17576E+03 -8.65779E+03  5.17792E+03 -1.15076E+04  1.89044E+04  5.40526E+03
  1.44345E+04  2.37125E+04 -5.75852E+03  2.57420E+04 -2.20269E+04  1.27377E+04 -2.89767E+04 -3.25495E+03
 -2.27063E+04 -1.79146E+04 -9.26049E+03 -2.19662E+04  3.25339E+03 -2.25520E+04  1.61571E+04 -1.94511E+04
  2.76935E+04 -1.31302E+04  3.33724E+04  2.98973E+03  2.43668E+04  2.10753E+04  4.16061E+03  3.81419E+04
 -1.92345E+04  3.18534E+04 -2.90913E+04  1.12669E+04 -1.96565E+04 -1.00140E+04 -4.03806E+03 -1.27557E+04
  3.06245E+02 -2.43447E+03 -6.20302E+03  6.40174E+03 -1.85204E+04  4.48789E+03 -1.74985E+04 -7.81101E+03
 -9.92566E+03 -1.99875E+04  6.25878E+03 -2.43246E+04  1.70424E+04 -1.62051E+04  1.99359E+04 -1.87726E+03
  1.19818E+04  1.28607E+04 -1.21791E+03  2.09264E+04 -1.43136E+04  1.22247E+04 -1.89470E+04 -3.85696E+03
 -1.58385E+04 -1.74699E+04 -2.47191E+03 -2.56632E+04  1.04121E+04 -1.99597E+04  1.97737E+04 -9.05103E+03
  1.94033E+04 -7.66761E+01  1.34600E+04  5.24176E+03  7.96699E+03  6.46006E+01  1.12049E+04 -2.11732E+03
  1.94822E+04  3.28783E+03  2.08445E+04  1.72393E+04  1.44783E+04  3.30117E+04 -2.88174E+03  3.75193E+04
 -2.08037E+04  2.90487E+04 -3.44596E+04  1.65660E+04 -3.69854E+04 -2.79114E+03 -2.95167E+04 -2.12446E+04
 -1.23447E+04 -3.12899E+04  1.11525E+04 -2.62498E+04  2.30118E+04 -1.44794E+04  2.07368E+04  5.66892E+03
  6.19652E+03  1.60128E+04 -1.01368E+04  1.31572E+04 -1.75918E+04  3.96457E+03 -1.30789E+04 -1.00328E+04
 -5.66768E+02 -1.70171E+04  9.40443E+03 -1.29264E+04  1.17984E+04 -2.09770E+02  4.40512E+03  8.15323E+03
 -7.53017E+03  2.56959E+03 -6.34563E+03 -4.73072E+03 -2.49077E+03 -1.56837E+04  9.06585E+03 -1.56031E+04
  1.71021E+04 -8.40195E+03  2.04128E+04  4.38036E+03  1.75248E+04  1.46904E+04  6.67479E+03  2.23245E+04
 -3.88562E+03  2.42415E+04 -1.50354E+04  1.67123E+04 -1.80840E+04  4.30585E+03 -1.12323E+04 -3.24982E+03
 -5.02851E+03 -5.07989E+03 -2.44995E+03  2.38585E+01 -2.51133E+03  3.45976E+03 -5.85148E+03  4.21451E+03
 -1.08517E+04 -1.40446E+02 -1.25562E+04 -1.02611E+04 -3.96693E+03 -1.59677E+04  5.82043E+03 -1.18276E+04
  1.06579E+04 -5.70125E+03  6.67450E+03  3.78983E+03 -2.63082E+02  4.25724E+03 -5.63667E+03 -5.38120E+02
 -6.25211E+03 -7.97880E+03 -8.27131E+02 -1.14502E+04  7.39150E+03 -1.23661E+04  1.53040E+04 -6.94458E+03
  1.92883E+04  7.27797E+02  1.39225E+04  1.01320E+04  1.48639E+03  1.49790E+04 -7.90759E+03  1.24269E+04
 -1.05419E+04  3.59282E+03 -5.34937E+03 -2.30816E+03  1.15536E+03 -2.52344E+03  7.27981E+03 -6.14424E+02
  6.38621E+03  5.67604E+03  8.34527E+02  1.06296E+04 -7.52857E+03  8.47032E+03 -1.16553E+04  2.80810E+03
 -8.54482E+03 -6.91797E+03 -3.26992E+01 -9.15996E+03  8.38574E+03 -5.47927E+03  6.95337E+03  3.16123E+03
  2.05521E+03  6.42621E+03 -5.76298E+03  8.74417E+03 -9.21650E+03  2.65737E+03 -1.16771E+04 -3.90422E+03
 -6.20840E+03 -1.04414E+04  3.42005E+03 -1.29053E+04  1.18978E+04 -8.08185E+03  1.09270E+04  1.42285E+03
  8.58441E+03  9.63672E+03 -1.28807E+03  1.23088E+04 -8.62562E+03  6.65812E+03 -9.81462E+03 -1.45602E+03
 -9.55747E+03 -8.76016E+03 -1.75888E+03 -8.13688E+03  5.01851E+03 -6.85225E+03  6.07062E+03 -3.76309E+03
  4.01620E+03  2.07490E+03 -8.69390E+02  2.65050E+03  1.14619E+02 -2.76322E+03  1.56395E+03 -5.87227E+03
  8.01006E+03 -3.79302E+03  1.09581E+04  8.67810E+02  1.05033E+04  6.82808E+03  8.30378E+03  1.41992E+04
 -4.57066E+03  1.71987E+04 -1.46248E+04  1.30224E+04 -1.86819E+04  2.09250E+03 -1.57060E+04 -6.15206E+03
 -8.00462E+03 -1.27373E+04  6.34212E+02 -1.06233E+04  2.24736E+03 -5.57143E+03  4.48720E+03 -2.68269E+03
  8.60409E+02 -1.70512E+03  3.09311E+03 -3.59828E+03  5.14114E+03 -1.68506E+03  7.07087E+03 -1.93041E+03
  6.65444E+03  5.39770E+02  4.99732E+03  7.87906E+03 -2.07807E+03  7.33815E+03 -8.14092E+03  6.49422E+03
 -1.08820E+04 -2.75797E+02 -6.09767E+03 -7.99820E+03  1.64972E+02 -1.01761E+04  6.62125E+03 -1.00922E+04
  1.03750E+04 -6.21503E+03  1.35044E+04  1.19609E+03  1.00429E+04  1.02597E+04  1.61524E+03  1.23278E+04
 -4.78920E+03  9.92375E+03 -7.12360E+03  4.17292E+03 -5.42915E+03 -1.31406E+03 -2.05989E+03 -2.20153E+03
 -8.87438E+02 -9.58796E+01 -2.27312E+03  2.05276E+03 -5.24309E+03  1.68116E+03 -6.18493E+03  2.79343E+01
 -5.33330E+03 -8.06378E+03 -4.10258E+01 -9.93715E+03  5.65537E+03 -1.05050E+04  9.40068E+03 -1.76849E+03
  9.01226E+03  5.02760E+03  4.94683E+03  9.39015E+03 -1.25667E+03  9.39071E+03 -6.40562E+03  5.53577E+03
 -8.97156E+03  1.23180E+03 -7.01495E+03 -6.81102E+03 -1.60125E+03 -8.81377E+03  3.58816E+03 -6.04095E+03
  7.05888E+03 -2.53599E+03  3.50234E+03  1.03285E+03  1.25171E+03  2.93692E+03  1.33215E+03  8.36693E+02
  3.31312E+03  8.92592E+02  2.15097E+03  1.69372E+03  2.99183E+03  4.07834E+03  2.96016E+03  4.81735E+03
 -1.68783E+03  6.64504E+03 -5.05580E+03  9.07313E+03 -1.05616E+04  2.38351E+03 -1.18226E+04 -2.64407E+03
 -4.93923E+03 -8.99139E+03  2.44100E+03 -1.09183E+04  5.91449E+03 -6.82029E+03  7.08763E+03 -2.14078E+03
  4.99005E+03  3.64205E+03  2.14829E+03  5.46331E+03 -2.16908E+03  2.75758E+03 -3.53551E+03  2.03414E+02
 -2.37393E+03 -3.19242E+03  2.14801E+03 -4.24063E+03  4.62627E+03 -2.16751E+03  4.32246E+03  1.29895E+03
  2.34332E+03  2.35447E+03  1.47584E+03  2.75655E+02 -1.62505E+03  1.92271E+03  1.90808E+03  3.32498E+02
  6.14577E+02 -4.16570E+02  4.54907E+03  2.13864E+03  1.81098E+03  4.27983E+03 -1.82495E+02  5.90582E+03
 -3.15180E+03  4.42231E+03 -6.15465E+03  1.48969E+03 -5.25096E+03 -1.51727E+03 -1.95036E+03 -3.57443E+03
  8.35088E+02 -4.29542E+03  2.59355E+03 -1.33031E+03  2.28194E+03  2.49123E+03 -7.93356E+02  3.82624E+03
 -3.13189E+03  1.61219E+03 -3.64548E+03 -3.25244E+03 -3.72529E+03 -4.74505E+03 -1.39416E+02 -3.32001E+03
  2.31143E+03 -2.29635E+03  3.12420E+03  8.57900E+02  3.31127E+03  5.51976E+02  6.37801E+02  2.89878E+03
 -2.34358E+03  4.50190E+02 -2.78105E+03 -2.30360E+03  8.30112E+02 -3.95154E+03  4.53692E+03 -2.69236E+03
  5.30603E+03  1.02307E+03  6.74653E+03  2.99933E+03  5.17502E+02  5.82921E+03 -2.84252E+03  5.41856E+03
 -3.72721E+03  1.45743E+03 -5.45616E+03 -6.03890E+02 -3.28995E+03 -3.44411E+03  2.03506E+03 -4.30879E+03
  4.08644E+03 -1.83328E+03  2.94508E+03  1.06479E+03  1.84739E+03  3.55151E+03 -1.24363E+03  3.44436E+03
 -2.32131E+03  2.23802E+03 -7.21274E+02  7.49782E+02 -6.99134E+02  1.99649E+03 -1.10901E+03  2.24054E+03
 -2.38333E+03  3.31155E+03 -4.84493E+03  3.63043E+03 -5.55585E+03  8.43363E+02 -6.58495E+03 -4.47507E+03
 -5.36618E+03 -7.40437E+03  5.69566E+02 -9.16534E+03  5.13985E+03 -7.26272E+03  9.77760E+03 -2.39024E+03
  8.43834E+03  5.29202E+02  4.06160E+03  5.94159E+03  2.35983E+02  4.87039E+03 -2.59555E+03  3.06996E+03
 -3.09864E+03  1.64353E+03 -2.30697E+03 -3.58862E+02 -9.68084E+02 -1.76398E+02  3.86567E+02  6.87768E+02
 -6.65687E+02  1.26174E+02 -1.29527E+03  1.43809E+03 -7.51251E+02 -2.91149E+03  8.24628E+02 -1.78439E+03
  2.19084E+03 -1.60344E+03  2.60404E+03 -2.06206E+02  3.16877E+03  2.21162E+03  8.36199E+02  6.77627E+03
 -2.43245E+03  6.77152E+03 -5.88163E+03  3.59055E+03 -6.92414E+03 -1.84820E+03 -5.61444E+03 -4.48751E+03
 -2.48709E+03 -5.61177E+03  5.13410E+02 -6.04029E+03  3.62871E+03 -4.72786E+03  3.68125E+03  7.74349E+02
  2.87104E+03  1.16472E+03 -2.10981E+02  2.31490E+03 -2.18563E+03  1.78697E+02  1.16695E+03 -1.43800E+03
  2.25236E+03 -1.24746E+03  1.35134E+03  8.72076E+01  3.06446E+03  1.22564E+02  2.34953E+02  2.93353E+03
 -2.66286E+03  3.07508E+03 -4.00624E+03 -4.28184E+01 -2.79642E+03 -2.24042E+03 -1.90390E+02 -5.07741E+03
  3.46050E+03 -3.66599E+03  4.61483E+03 -1.59203E+03  4.16987E+03  1.41365E+03  3.53770E+03  3.87458E+03
  9.14134E+02  2.86703E+03 -1.44422E+03  2.47265E+03 -3.01356E+03  1.85966E+03 -2.16967E+03 -7.71251E+02
 -1.13953E+03 -1.39808E+02 -1.57910E+03  6.62252E+02 -1.24455E+03  1.48823E+03 -2.67385E+03 -9.69417E+02
 -2.75214E+03 -7.58364E+02 -1.73459E+03 -3.35570E+03  1.08318E+03 -4.59712E+03  2.18133E+03 -8.01014E+02
  3.66549E+03 -3.07244E+02  2.07244E+03  1.80085E+03 -1.36885E+03  3.30605E+03 -3.05803E+03  3.98301E+03
