 $NMID ID='MM_0lb_SNR200_10hz_g60_12.RAW', FMTDAT='(8E13.5)'
 TRAMP=1., VOLUME=1. $END
  3.11204E+05 -6.81794E+02  3.36836E+05  2.51128E+05  8.55805E+04  3.39245E+05 -1.30757E+05  2.50410E+05
 -1.90466E+05  8.35008E+04 -1.13173E+05 -3.34505E+04  6.16668E+02 -5.17237E+04  5.41747E+04 -1.40549E+03
  3.68257E+04  5.32135E+04 -1.68101E+04  7.66449E+04 -6.09719E+04  6.25162E+04 -8.48471E+04  3.32838E+04
 -8.30092E+04 -9.76981E+03 -5.75633E+04 -5.16013E+04 -1.56353E+04 -7.16305E+04  2.91230E+04 -4.76749E+04
  4.07659E+04  3.76811E+03  1.74381E+04  4.93284E+04 -3.50963E+04  4.79828E+04 -6.67839E+04  5.74992E+02
 -5.44933E+04 -5.65656E+04 -8.56067E+03 -7.88555E+04  3.63197E+04 -5.64815E+04  4.98124E+04 -1.80136E+04
  4.48325E+04  1.07719E+04  3.23829E+04  2.60151E+04  1.55840E+04  3.02406E+04 -5.05853E+03  2.92998E+04
 -2.23973E+04  1.24670E+04 -1.82660E+04 -7.18205E+03  5.82395E+03 -6.52806E+03  2.23139E+04  1.36829E+04
  7.18576E+03  3.73548E+04 -3.48120E+04  3.64104E+04 -6.54448E+04  4.01568E+03 -5.94419E+04 -4.45070E+04
 -1.29666E+04 -6.50406E+04  4.15001E+04 -4.87099E+04  6.27308E+04 -3.60023E+03  3.68621E+04  3.38146E+04
 -5.93748E+03  3.99323E+04 -3.15903E+04  1.93481E+04 -3.46388E+04 -2.32003E+03 -1.90768E+04 -1.19637E+04
 -1.12645E+04 -1.46310E+04 -1.82931E+03 -1.95727E+04  8.95865E+03 -2.29199E+04  1.49545E+04 -1.21350E+04
  1.11143E+04  5.26611E+03 -1.15521E+04  1.23246E+04 -2.27749E+04 -7.41026E+03 -8.38064E+03 -3.68536E+04
  2.40893E+04 -4.74888E+04  5.13416E+04 -2.07297E+04  4.94624E+04  2.05265E+04  1.78283E+04  4.85142E+04
 -1.60234E+04  3.57862E+04 -2.74515E+04  4.06350E+03 -1.28077E+04 -3.05793E+04  1.99443E+04 -3.67557E+04
  4.44159E+04 -1.07444E+04  4.13196E+04  2.65086E+04  2.21541E+04  5.12224E+04 -8.83159E+03  5.56689E+04
 -3.58809E+04  3.54456E+04 -4.90625E+04  1.11498E+04 -4.72750E+04 -1.77084E+04 -2.58131E+04 -4.29882E+04
  7.13883E+03 -4.26637E+04  3.42995E+04 -1.75003E+04  3.23842E+04  1.15009E+04  4.55658E+03  1.87961E+04
 -1.50291E+04  1.00077E+04 -1.02042E+04 -6.32667E+03  4.58060E+03 -1.27436E+04  2.01840E+04  5.54881E+03
  1.50252E+04  2.46840E+04 -5.35266E+03  2.81219E+04 -2.24060E+04  1.44692E+04 -3.13328E+04 -1.67009E+03
 -2.57231E+04 -1.91937E+04 -1.10968E+04 -2.63287E+04  4.01055E+03 -2.56946E+04  2.09092E+04 -2.34212E+04
  3.28370E+04 -1.45802E+04  3.73184E+04  3.74137E+03  2.73817E+04  2.52038E+04  5.00894E+03  4.09680E+04
 -2.18778E+04  3.42699E+04 -2.97907E+04  1.13549E+04 -2.10714E+04 -1.08978E+04 -3.96279E+03 -1.24386E+04
  1.19592E+03 -6.93809E+02 -6.77352E+03  7.63099E+03 -2.12126E+04  3.97805E+03 -2.03977E+04 -1.01125E+04
 -1.32188E+04 -2.40306E+04  5.37541E+03 -2.86177E+04  1.98439E+04 -2.01077E+04  2.22612E+04 -2.32864E+03
  1.56857E+04  1.67292E+04 -1.21733E+03  2.21914E+04 -1.65324E+04  1.52091E+04 -2.54388E+04 -5.26135E+03
 -1.53063E+04 -2.25073E+04 -1.60359E+03 -2.79559E+04  1.17875E+04 -2.33838E+04  2.24745E+04 -1.21715E+04
  2.27494E+04  1.29405E+03  1.42419E+04  5.69114E+03  9.29101E+03  1.51846E+03  1.36693E+04 -1.89274E+03
  2.32630E+04  3.19663E+03  2.44281E+04  1.85149E+04  1.66793E+04  3.74983E+04 -2.00882E+03  4.38386E+04
 -2.54067E+04  3.67746E+04 -4.09984E+04  1.92393E+04 -4.44824E+04 -2.64990E+03 -3.67475E+04 -2.49069E+04
 -1.33378E+04 -3.88023E+04  1.26541E+04 -3.39122E+04  2.70219E+04 -1.42473E+04  2.35359E+04  8.34141E+03
  9.25255E+03  1.84938E+04 -1.09555E+04  1.56421E+04 -1.97278E+04  1.80063E+03 -1.39741E+04 -1.16881E+04
 -1.19835E+03 -1.98579E+04  9.95414E+03 -1.46343E+04  1.27676E+04 -1.77642E+03  3.05900E+03  8.53078E+03
 -8.91503E+03  6.29868E+03 -7.62388E+03 -7.07497E+03 -2.80580E+03 -1.86592E+04  1.11714E+04 -1.97500E+04
  2.39667E+04 -1.16176E+04  2.66188E+04  3.24860E+03  2.26855E+04  1.95246E+04  1.15286E+04  2.91824E+04
 -6.86358E+03  3.06922E+04 -2.06636E+04  1.91553E+04 -2.19162E+04  4.30147E+03 -1.51645E+04 -4.85119E+03
 -6.40170E+03 -6.59789E+03 -1.56146E+02 -2.70380E+02 -2.85663E+03  2.97413E+03 -7.54024E+03  6.93199E+03
 -1.39748E+04 -1.38768E+03 -1.50491E+04 -1.14997E+04 -5.11009E+03 -1.87973E+04  5.57920E+03 -1.53228E+04
  1.34322E+04 -5.53003E+03  9.22420E+03  4.42926E+03 -2.79381E+03  5.86290E+03 -8.36286E+03 -1.32413E+03
 -5.69979E+03 -1.19279E+04  1.21202E+02 -1.56134E+04  8.92251E+03 -1.57665E+04  2.04379E+04 -8.72319E+03
  2.34605E+04  1.96027E+03  1.73700E+04  1.52460E+04  1.69796E+03  1.97215E+04 -8.65195E+03  1.45007E+04
 -1.21296E+04  4.84299E+03 -6.32705E+03 -1.95959E+03  2.31282E+03 -5.28990E+03  7.27519E+03 -3.28114E+02
  5.98024E+03  7.08544E+03  1.05949E+03  1.11338E+04 -9.97232E+03  1.21619E+04 -1.55196E+04  1.67604E+03
 -1.09186E+04 -7.46862E+03  2.47062E+03 -1.38733E+04  9.03831E+03 -8.81490E+03  9.41298E+03  4.67059E+03
  4.22521E+03  9.39573E+03 -8.04855E+03  1.02296E+04 -1.23326E+04  5.37934E+03 -1.32487E+04 -4.29161E+03
 -8.69558E+03 -1.58115E+04  3.19222E+03 -1.79635E+04  1.50032E+04 -9.59333E+03  1.59821E+04  2.94252E+03
  1.04629E+04  1.54552E+04 -1.72335E+03  1.51035E+04 -1.28866E+04  7.97376E+03 -1.35163E+04 -2.13347E+03
 -1.06292E+04 -1.09344E+04 -2.13143E+03 -1.15424E+04  5.16475E+03 -1.01270E+04  8.16125E+03 -5.33010E+03
  5.19079E+03  3.34679E+03 -6.01258E+02  2.86911E+03 -1.39605E+03 -3.33798E+03  3.51462E+03 -7.79376E+03
  1.15155E+04 -5.37839E+03  1.67232E+04  1.52351E+03  1.60201E+04  1.07853E+04  8.09024E+03  1.97176E+04
 -6.76934E+03  2.33039E+04 -1.99081E+04  1.89425E+04 -2.49698E+04  3.90132E+03 -2.08129E+04 -8.92441E+03
 -8.89751E+03 -1.56985E+04 -8.47908E+02 -1.52875E+04  5.48980E+03 -8.87515E+03  4.59453E+03 -4.84003E+03
  2.56573E+03 -2.63911E+03  4.30519E+03 -2.49664E+03  5.48273E+03 -4.54183E+03  8.11621E+03 -1.27504E+03
  9.62921E+03  1.79717E+03  6.45275E+03  8.84367E+03 -1.34638E+03  1.16485E+04 -1.06650E+04  8.84159E+03
 -1.40096E+04 -1.38148E+03 -9.52228E+03 -1.06167E+04 -7.77627E+02 -1.63768E+04  8.29253E+03 -1.60193E+04
  1.59951E+04 -8.38953E+03  1.90769E+04  2.71993E+03  1.21445E+04  1.22308E+04  3.10814E+03  1.55882E+04
 -5.88675E+03  1.53500E+04 -1.08414E+04  4.30570E+03 -7.88556E+03 -1.56169E+03 -2.73150E+03 -4.31134E+02
 -1.04009E+03 -2.81297E+02 -2.64302E+03  2.83660E+03 -5.60712E+03  2.66828E+03 -1.00348E+04 -1.29855E+03
 -6.27419E+03 -8.83345E+03  1.44085E+03 -1.36729E+04  8.46628E+03 -1.32187E+04  1.49803E+04 -2.89463E+03
  1.44724E+04  5.23476E+03  7.58365E+03  1.33826E+04 -2.39102E+03  1.44760E+04 -9.71393E+03  8.38474E+03
 -1.41811E+04  1.04641E+03 -1.07169E+04 -7.52402E+03 -6.94427E+02 -1.12620E+04  6.69376E+03 -8.97055E+03
  8.71045E+03 -2.94973E+03  5.13225E+03  3.23688E+03  2.16086E+03  4.19000E+03  4.41462E+02  1.75420E+03
  2.13513E+03  8.21865E+02  3.28628E+03  1.86064E+03  5.17137E+03  3.89842E+03  3.97065E+03  8.25882E+03
 -3.82463E+03  1.13292E+04 -8.08831E+03  1.09084E+04 -1.43675E+04  3.30592E+03 -1.50163E+04 -5.51007E+03
 -7.60160E+03 -1.34810E+04  2.16540E+03 -1.76492E+04  8.44055E+03 -1.06950E+04  1.23001E+04 -3.37558E+03
  1.05795E+04  5.48311E+03  2.32828E+03  9.05888E+03 -4.31393E+03  7.14066E+03 -5.34998E+03 -1.15258E+03
 -2.59495E+03 -6.42411E+03  3.56388E+03 -5.28103E+03  5.99984E+03 -3.20441E+03  5.95721E+03  1.40655E+03
  2.87547E+03  4.14482E+03  1.67958E+03  4.43364E+03 -2.19640E+02  1.36590E+03  5.92364E+02  2.41199E+02
  3.18911E+03 -1.05400E+03  4.57163E+03  1.92697E+03  3.22461E+03  8.20938E+03 -2.03912E+03  1.05753E+04
 -5.42889E+03  7.54658E+03 -8.66912E+03  3.75466E+03 -8.92686E+03 -3.07020E+03 -1.62107E+03 -5.71720E+03
  1.55679E+03 -6.57810E+03  4.44188E+03 -1.28299E+03  3.41577E+03  2.15794E+03 -5.25648E+02  3.21864E+03
 -5.59069E+03  2.27883E+03 -6.18773E+03 -4.45836E+03 -3.38801E+03 -7.63218E+03  1.12634E+03 -6.17973E+03
  5.15417E+03 -5.55588E+03  6.22222E+03 -1.03901E+03  3.58847E+03  3.57111E+03  9.02492E+02  3.94821E+03
 -4.66072E+03  2.38522E+03 -2.92840E+03 -3.39844E+03  2.09898E+03 -6.65405E+03  8.03792E+03 -6.22989E+03
  8.90133E+03  3.95329E+02  7.15174E+03  5.83701E+03  2.42100E+03  9.70877E+03 -3.01190E+03  7.68188E+03
 -6.74539E+03  3.67472E+03 -8.16818E+03 -3.65633E+02 -4.83396E+03 -5.25990E+03  2.95048E+03 -6.23218E+03
  5.38306E+03 -3.76911E+03  5.81287E+03  2.47960E+03  1.26625E+03  4.54563E+03 -2.80213E+03  5.06691E+03
 -8.20795E+02  2.97596E+03 -2.66097E+03 -2.09443E+02  5.34348E+01  1.56442E+03 -2.60294E+03  1.84556E+03
 -1.37457E+03  1.77007E+03 -6.27519E+03  2.61224E+03 -9.73534E+03 -1.90197E+03 -8.82335E+03 -6.29609E+03
 -7.32399E+03 -1.32635E+04  2.19754E+03 -1.40797E+04  8.94925E+03 -1.06385E+04  1.28595E+04 -3.16930E+03
  1.15332E+04  2.01083E+03  8.45075E+03  8.97233E+03  6.64786E+02  8.02363E+03 -3.50099E+03  7.13032E+03
 -5.57371E+03  2.89472E+03 -2.76408E+03  1.33072E+02 -1.91145E+03 -1.07476E+03 -1.09469E+03  1.19341E+03
 -2.51912E+03 -8.86318E+02 -1.91874E+03 -7.75387E+02  4.66689E+02 -2.01247E+03 -4.03529E+02 -4.60433E+03
  5.11759E+03 -3.35283E+03  6.33523E+03  5.88194E+02  8.10248E+03  4.67582E+03  1.30823E+03  8.48081E+03
 -4.38886E+03  1.05880E+04 -1.04762E+04  7.56702E+03 -1.12947E+04 -4.79601E+02 -9.44156E+03 -7.71975E+03
 -3.20296E+03 -9.57993E+03  2.60023E+03 -1.04424E+04  5.83019E+03 -4.92757E+03  5.59798E+03 -3.90140E+02
  4.13820E+03  3.19421E+03 -1.15090E+03  2.12584E+03 -8.88114E+02  5.41225E+02  7.48356E+02 -2.91596E+03
  3.63638E+03 -1.19183E+03  3.57228E+03  4.60260E+02  2.52864E+03  4.05864E+03 -6.32501E+02  5.45976E+03
 -3.75688E+03  5.33790E+03 -7.65568E+03 -5.53386E+02 -5.68975E+03 -4.67632E+03 -9.49810E+02 -7.47978E+03
  3.93936E+03 -6.82193E+03  5.30391E+03 -1.86306E+03  6.15078E+03  1.56938E+03  4.32876E+03  5.12406E+03
 -5.62374E+02  7.01704E+03 -2.13650E+03  6.05055E+03 -4.79575E+03  2.70716E+03 -3.51732E+03  1.59296E+03
 -1.96090E+03 -1.54145E+03 -2.67401E+03  1.65222E+03 -3.09933E+03  8.38296E+02 -6.09764E+03 -2.15870E+03
 -4.92101E+03 -2.12588E+03 -2.02251E+02 -6.60073E+03  3.09438E+03 -6.90473E+03  6.13610E+03 -3.78617E+03
  6.57722E+03 -5.32199E+02  3.56943E+03  3.86021E+03 -5.49563E+01  6.84187E+03 -3.84824E+03  5.69738E+03
