 $NMID ID='MM_0lb_SNR200_12hz_g50_59.RAW', FMTDAT='(8E13.5)'
 TRAMP=1., VOLUME=1. $END
  3.09601E+05 -6.61672E+02  3.37292E+05  2.50738E+05  8.45783E+04  3.36807E+05 -1.32528E+05  2.50245E+05
 -1.91484E+05  8.39689E+04 -1.11821E+05 -3.24326E+04 -9.75248E+02 -5.06511E+04  5.40834E+04 -1.64163E+02
  3.67600E+04  5.41029E+04 -1.63770E+04  7.61295E+04 -6.11601E+04  6.41656E+04 -8.46788E+04  3.14613E+04
 -8.13912E+04 -1.08738E+04 -5.77753E+04 -5.20787E+04 -1.54397E+04 -7.12794E+04  2.76757E+04 -4.59777E+04
  4.21740E+04  3.49892E+03  1.65821E+04  4.70111E+04 -3.49419E+04  4.74392E+04 -6.63407E+04 -9.78608E+02
 -5.44604E+04 -5.72375E+04 -6.74567E+03 -7.82449E+04  3.48638E+04 -5.72957E+04  4.91698E+04 -1.73435E+04
  4.40716E+04  1.13155E+04  3.10626E+04  2.50319E+04  1.60923E+04  3.04335E+04 -5.38378E+03  2.79436E+04
 -2.16960E+04  1.25358E+04 -1.81217E+04 -5.38797E+03  6.32445E+03 -7.29187E+03  2.31838E+04  1.29336E+04
  6.16547E+03  3.69811E+04 -3.31966E+04  3.71931E+04 -6.34198E+04  2.35143E+03 -5.74292E+04 -4.35505E+04
 -1.19684E+04 -6.43121E+04  4.11762E+04 -4.58840E+04  5.86082E+04 -2.76082E+03  3.46403E+04  3.07172E+04
 -5.86307E+03  3.65363E+04 -3.13473E+04  1.62750E+04 -3.08864E+04 -4.69318E+03 -1.73362E+04 -1.24360E+04
 -9.37285E+03 -1.35231E+04  1.13621E+02 -1.71254E+04  8.49803E+03 -2.37155E+04  1.58751E+04 -1.11319E+04
  9.84719E+03  5.80677E+03 -8.72885E+03  1.35294E+04 -2.28285E+04 -4.40010E+03 -8.11924E+03 -3.45090E+04
  2.36957E+04 -4.53812E+04  4.91664E+04 -1.96998E+04  4.56144E+04  1.86888E+04  1.55853E+04  4.49559E+04
 -1.76301E+04  3.37829E+04 -2.69827E+04  2.35961E+03 -1.05400E+04 -2.79104E+04  2.14188E+04 -3.62347E+04
  4.08084E+04 -1.09234E+04  3.75317E+04  2.46667E+04  1.90767E+04  4.87839E+04 -8.50095E+03  5.23002E+04
 -3.26525E+04  3.52845E+04 -4.38811E+04  1.14119E+04 -4.40269E+04 -1.78388E+04 -2.40587E+04 -3.76036E+04
  6.14991E+03 -3.92344E+04  3.29652E+04 -1.58301E+04  3.10387E+04  1.19744E+04  4.32164E+03  2.01319E+04
 -1.35035E+04  7.82675E+03 -1.01201E+04 -6.83275E+03  5.20269E+03 -1.17985E+04  1.80289E+04  5.62807E+03
  1.33224E+04  2.33003E+04 -5.42550E+03  2.52893E+04 -2.24064E+04  1.26843E+04 -2.87994E+04 -4.05703E+03
 -2.29932E+04 -1.86516E+04 -9.05158E+03 -2.18562E+04  3.10811E+03 -2.32133E+04  1.82397E+04 -1.92368E+04
  2.88353E+04 -1.43062E+04  3.50170E+04  4.77001E+03  2.44575E+04  2.13466E+04  4.30102E+03  3.99675E+04
 -2.06029E+04  3.15764E+04 -2.89197E+04  1.16783E+04 -2.10786E+04 -9.88180E+03 -3.85707E+03 -1.50563E+04
  1.90996E+03 -1.27402E+03 -5.74481E+03  6.22833E+03 -1.76884E+04  5.48711E+03 -1.76224E+04 -7.34530E+03
 -1.03325E+04 -2.01010E+04  5.49975E+03 -2.45669E+04  1.66256E+04 -1.87882E+04  1.91359E+04 -1.56278E+03
  1.35897E+04  1.57545E+04 -5.08116E+02  2.16533E+04 -1.56847E+04  1.08586E+04 -2.04919E+04 -3.49573E+03
 -1.62598E+04 -1.81791E+04 -2.56096E+03 -2.49923E+04  1.15241E+04 -2.01346E+04  2.03597E+04 -8.53443E+03
  1.94768E+04  3.29736E+02  1.32144E+04  5.02810E+03  7.76596E+03 -3.40165E+01  9.98701E+03 -2.01950E+03
  1.85327E+04  3.17359E+03  2.16136E+04  1.78688E+04  1.51557E+04  3.36060E+04 -2.19609E+03  3.92638E+04
 -2.22107E+04  3.07036E+04 -3.59655E+04  1.54946E+04 -3.66245E+04 -1.49621E+03 -2.97187E+04 -2.14080E+04
 -1.40428E+04 -3.26808E+04  1.03814E+04 -2.76094E+04  2.33610E+04 -1.35926E+04  2.13256E+04  6.04637E+03
  7.87738E+03  1.61316E+04 -9.43525E+03  1.38914E+04 -1.72158E+04  3.96893E+03 -1.49111E+04 -1.04291E+04
 -9.13484E+02 -1.53927E+04  9.52803E+03 -1.16216E+04  1.07652E+04 -1.31630E+03  2.05805E+03  6.56832E+03
 -7.72262E+03  3.34326E+03 -7.68370E+03 -6.09311E+03 -1.18597E+03 -1.51787E+04  1.11466E+04 -1.54350E+04
  1.92429E+04 -7.53147E+03  2.01371E+04  2.98804E+03  1.83037E+04  1.49238E+04  9.89565E+03  2.41089E+04
 -2.56035E+03  2.56350E+04 -1.58460E+04  1.70950E+04 -1.85632E+04  3.87059E+03 -1.32650E+04 -5.00872E+03
 -5.75463E+03 -6.87534E+03 -9.32782E+02  4.00958E+01 -2.32254E+03  2.23330E+03 -5.51963E+03  5.42611E+03
 -1.07575E+04 -1.29881E+03 -1.31347E+04 -1.07795E+04 -4.81865E+03 -1.63408E+04  5.26251E+03 -1.32548E+04
  1.04278E+04 -6.54126E+03  7.46263E+03  3.58056E+03 -1.84597E+03  4.91774E+03 -5.85742E+03  1.47891E+03
 -5.83108E+03 -7.87959E+03 -7.16112E+01 -1.31791E+04  5.40825E+03 -1.29915E+04  1.67923E+04 -8.28973E+03
  1.89077E+04  2.33708E+03  1.38697E+04  1.18342E+04  2.42865E+03  1.55647E+04 -8.53820E+03  1.35931E+04
 -1.03549E+04  3.22971E+03 -6.54739E+03 -1.35747E+03  2.70634E+03 -4.42299E+03  6.87803E+03 -4.12449E+02
  5.04563E+03  6.50400E+03  2.47745E+03  1.15835E+04 -7.22819E+03  1.09308E+04 -1.23215E+04  2.79094E+03
 -8.77749E+03 -6.55004E+03  6.68032E+01 -1.13648E+04  5.04420E+03 -4.74828E+03  8.34770E+03  2.53274E+03
  2.77161E+02  9.62127E+03 -8.74814E+03  9.79210E+03 -9.05898E+03  4.44636E+03 -1.18476E+04 -3.37204E+03
 -5.73050E+03 -1.25972E+04  2.79877E+03 -1.40876E+04  9.63318E+03 -9.49741E+03  1.26562E+04  3.06548E+03
  8.07160E+03  1.06501E+04 -2.63734E+03  1.19095E+04 -8.21482E+03  6.45460E+03 -1.02138E+04 -2.55552E+02
 -8.85743E+03 -8.56859E+03 -1.76076E+03 -8.53510E+03  4.68849E+03 -6.76415E+03  4.16434E+03 -3.40148E+03
  3.98114E+03 -3.81214E+02 -7.20378E+02  6.03647E+02 -6.53913E+02 -2.20369E+03  1.81970E+03 -4.73789E+03
  8.44297E+03 -3.06997E+03  1.21009E+04  1.01696E+03  1.07481E+04  6.90207E+03  8.49910E+03  1.59948E+04
 -3.38855E+03  1.89868E+04 -1.47197E+04  1.42172E+04 -2.02824E+04  2.83122E+03 -1.55410E+04 -5.70244E+03
 -8.79556E+03 -1.24670E+04 -4.31554E+02 -1.05927E+04  4.98325E+03 -5.27834E+03  3.32443E+03 -3.08001E+03
  3.14132E+03 -1.79744E+03  3.79483E+03 -2.78962E+03  5.71191E+03 -2.48301E+03  5.70775E+03 -9.42615E+02
  9.13173E+03  1.30920E+03  3.93817E+03  7.75895E+03 -1.30726E+03  7.54455E+03 -8.19609E+03  6.40059E+03
 -1.04648E+04  1.35653E+02 -5.97626E+03 -8.32127E+03  5.70118E+01 -1.06280E+04  4.51422E+03 -1.10388E+04
  1.27930E+04 -6.23650E+03  1.53091E+04  2.14726E+03  1.15995E+04  9.94547E+03  1.33099E+03  1.32560E+04
 -5.40339E+03  1.10533E+04 -7.09174E+03  4.17162E+03 -5.57478E+03 -4.15071E+02 -1.43878E+03 -9.29940E+02
 -1.01513E+03 -5.71543E+02 -2.08682E+03  2.91654E+03 -5.38035E+03  1.83224E+03 -8.23512E+03 -1.47216E+02
 -5.41726E+03 -8.72249E+03  2.22421E+02 -8.91071E+03  5.60069E+03 -9.85884E+03  1.09242E+04 -2.90403E+03
  1.01603E+04  5.92972E+03  4.87507E+03  9.21942E+03 -1.67487E+03  1.01207E+04 -7.01438E+03  6.72924E+03
 -9.55454E+03  1.51138E+03 -7.19793E+03 -6.07738E+03 -8.84648E+02 -8.43875E+03  5.39343E+03 -7.27902E+03
  6.33900E+03 -1.17416E+03  5.81890E+03  8.86335E+02  7.59153E+02  2.96228E+03  3.07155E+02  8.75605E+02
  3.53295E+02  1.42986E+03  2.64326E+03  2.01835E+03  1.70418E+03  2.47889E+03  2.46576E+03  4.99631E+03
 -2.26493E+03  8.60087E+03 -6.78313E+03  8.59170E+03 -9.92610E+03  1.01184E+03 -1.12445E+04 -3.18159E+03
 -4.73290E+03 -1.03702E+04  2.07803E+03 -1.11949E+04  5.65252E+03 -5.61847E+03  7.94053E+03 -2.52670E+03
  6.44840E+03  5.12482E+03  2.15216E+03  5.78451E+03 -2.74277E+03  4.21443E+03 -3.42366E+03 -1.63733E+03
 -2.13499E+03 -2.66492E+03  2.37485E+03 -4.98863E+03  4.32171E+03 -1.99809E+03  3.69968E+03 -3.59916E+02
  2.67600E+03  1.61996E+03  8.51153E+02  4.47896E+02 -7.76195E+02  1.06144E+03  1.07612E+03 -7.28191E+02
  6.85014E+02 -6.24314E+02  3.55403E+03  1.12296E+03  1.39439E+03  6.01084E+03 -1.17938E+03  5.89011E+03
 -3.55719E+03  3.99174E+03 -6.09581E+03  7.08871E+02 -4.97780E+03 -2.39939E+03 -2.69518E+03 -4.07700E+03
  8.61724E+02 -3.77916E+03  3.58518E+03 -3.20205E+03  2.25992E+03  1.90400E+03 -4.36896E+02  3.53728E+03
 -5.02845E+03  1.38382E+03 -5.20355E+03 -3.31409E+03 -3.30063E+03 -5.57185E+03  1.63381E+03 -4.37736E+03
  3.23473E+03 -4.29958E+03  3.24749E+03  1.27136E+02  2.24631E+03  1.68203E+03  8.71350E+02  1.74957E+03
 -3.14139E+03  1.15983E+03 -1.67867E+03 -1.52557E+03  1.49008E+03 -3.46412E+03  3.35438E+03 -3.38019E+03
  5.88893E+03  7.14233E+02  5.94723E+03  3.66474E+03  1.98610E+03  6.64117E+03 -2.09530E+03  5.84224E+03
 -4.17811E+03  2.12766E+03 -4.84219E+03 -1.93971E+03 -3.39347E+03 -3.55413E+03  1.43526E+03 -2.54766E+03
  3.49077E+03 -2.68109E+03  2.72395E+03  3.48399E+03  4.08596E+01  3.68420E+03 -2.20922E+02  3.64170E+03
 -1.33945E+03  1.81694E+03 -2.72048E+02  3.93468E+02 -9.36940E+02  1.10234E+03 -5.45092E+02  1.23752E+03
 -7.33601E+02  1.29100E+03 -4.69700E+03  3.19668E+03 -5.89703E+03  1.18208E+03 -6.89377E+03 -3.56079E+03
 -2.95263E+03 -7.11086E+03  2.48608E+03 -1.00112E+04  3.96417E+03 -7.76089E+03  8.78602E+03 -3.35715E+03
  7.31002E+03  1.08461E+03  3.81138E+03  5.48741E+03  5.26297E+02  6.60371E+03 -2.38360E+03  4.39500E+03
 -2.45764E+03  1.37424E+03 -1.05380E+03 -2.50318E+02 -8.12491E+02 -1.40772E+03 -1.50961E+03  6.07328E+02
 -1.43351E+03  3.82049E+02 -3.67050E+02 -7.48388E+02 -1.16973E+03 -1.13509E+03  1.43117E+03 -2.37468E+03
  3.49807E+03 -2.31599E+03  3.39993E+03 -1.35721E+01  4.89933E+03  2.90747E+03  1.78492E+03  5.35015E+03
 -2.71827E+03  7.45165E+03 -6.24572E+03  4.22114E+03 -7.22334E+03 -1.53334E+01 -6.24696E+03 -4.64867E+03
 -1.92039E+03 -4.79366E+03  1.39044E+03 -5.51079E+03  4.38597E+03 -2.64279E+03  2.72227E+03  1.91484E+02
  5.11114E+02  1.86447E+03  1.75684E+03  9.76695E+02 -2.10647E+03  5.40158E+02  4.44227E+02 -1.04619E+03
  2.67240E+03 -8.25385E+02  2.58728E+03  4.71870E+02  9.17465E+02  3.70015E+03 -9.48900E+01  1.45796E+03
 -3.28560E+03  3.58501E+03 -2.65881E+03  9.03228E+02 -4.72150E+03 -2.17153E+03 -1.52023E+03 -4.89436E+03
  2.57542E+03 -3.92182E+03  4.00420E+03 -5.60699E+02  3.88991E+03  1.91803E+03  1.11798E+03  5.31899E+03
 -2.17842E+01  3.54111E+03 -2.21720E+03  3.38961E+03 -2.49018E+03  2.26079E+03 -3.12395E+03 -8.33517E+02
  5.07747E+02 -1.60772E+02 -1.08128E+03  1.33257E+03 -1.98294E+03  1.61367E+02 -1.43734E+03  4.87598E+02
 -3.55335E+03 -2.04823E+03 -6.36489E+02 -4.31062E+03  2.94255E+03 -3.80138E+03  2.78934E+03 -1.94367E+03
  4.06817E+03  5.00630E+02  1.88849E+03  1.90984E+03 -6.89320E+02  3.84773E+03 -3.39229E+03  3.95917E+03
