 $NMID ID='MM_0lb_SNR200_12hz_g40_53.RAW', FMTDAT='(8E13.5)'
 TRAMP=1., VOLUME=1. $END
  3.09907E+05  2.68638E+03  3.39251E+05  2.49843E+05  8.41801E+04  3.38131E+05 -1.32538E+05  2.50157E+05
 -1.90743E+05  8.45736E+04 -1.11557E+05 -3.36897E+04 -1.26026E+02 -5.17699E+04  5.31066E+04 -2.17931E+02
  3.56065E+04  5.39421E+04 -1.57312E+04  7.51606E+04 -6.13844E+04  6.24432E+04 -8.33471E+04  3.37417E+04
 -8.24774E+04 -1.17540E+04 -5.69697E+04 -5.04850E+04 -1.36214E+04 -7.02323E+04  2.80201E+04 -4.63921E+04
  3.99590E+04  3.36098E+03  1.66947E+04  4.77261E+04 -3.57031E+04  4.67240E+04 -6.75890E+04 -7.39273E+02
 -5.35964E+04 -5.64495E+04 -6.45905E+03 -7.72057E+04  3.37773E+04 -5.58542E+04  4.79205E+04 -1.74357E+04
  4.31497E+04  1.10910E+04  3.22834E+04  2.57694E+04  1.54902E+04  2.99000E+04 -3.63187E+03  2.66699E+04
 -2.38896E+04  1.16239E+04 -1.75797E+04 -5.22414E+03  5.63418E+03 -7.67939E+03  2.30047E+04  1.33405E+04
  8.76996E+03  3.51608E+04 -3.22788E+04  3.45365E+04 -6.33375E+04  2.92819E+03 -5.75599E+04 -4.20490E+04
 -1.12188E+04 -6.41987E+04  4.04819E+04 -4.61319E+04  5.88638E+04 -1.00582E+03  3.40428E+04  3.27053E+04
 -6.37664E+03  3.78330E+04 -3.01284E+04  1.69718E+04 -2.90521E+04 -4.26545E+03 -1.68379E+04 -1.23249E+04
 -9.09580E+03 -1.34464E+04 -5.76271E+02 -1.83756E+04  6.43862E+03 -2.18461E+04  1.46785E+04 -1.40799E+04
  1.05153E+04  4.71940E+03 -9.07188E+03  1.28397E+04 -2.18270E+04 -3.71567E+03 -8.17948E+03 -3.46861E+04
  2.29350E+04 -4.45755E+04  4.84858E+04 -1.96465E+04  4.51828E+04  1.95977E+04  1.58465E+04  4.47112E+04
 -1.59413E+04  3.42295E+04 -2.53872E+04  1.97989E+03 -9.77189E+03 -2.70072E+04  2.08382E+04 -3.38275E+04
  4.10934E+04 -9.13554E+03  3.67964E+04  2.49738E+04  1.90841E+04  4.79944E+04 -7.96662E+03  5.08480E+04
 -3.19445E+04  3.51447E+04 -4.32356E+04  1.05628E+04 -4.23717E+04 -1.66159E+04 -2.41681E+04 -3.77707E+04
  6.40875E+03 -3.77796E+04  3.20889E+04 -1.42988E+04  2.93719E+04  1.13142E+04  5.20365E+03  1.93613E+04
 -1.30409E+04  9.28057E+03 -1.01328E+04 -6.36720E+03  5.27039E+03 -1.03691E+04  1.77095E+04  6.32593E+03
  1.33037E+04  2.15259E+04 -5.16314E+03  2.51751E+04 -2.28754E+04  1.32022E+04 -2.92674E+04 -5.30036E+03
 -2.24897E+04 -1.92934E+04 -9.93930E+03 -2.09427E+04  3.67576E+03 -1.96805E+04  1.62844E+04 -1.92798E+04
  2.70672E+04 -1.29948E+04  3.26755E+04  2.94605E+03  2.48644E+04  2.10718E+04  3.72355E+03  3.78488E+04
 -1.65936E+04  3.18826E+04 -2.88890E+04  1.03033E+04 -2.15959E+04 -1.10339E+04 -3.42372E+03 -1.40839E+04
  1.30796E+03 -1.89807E+03 -6.17719E+03  8.07654E+03 -1.70440E+04  5.17941E+03 -1.73463E+04 -6.21095E+03
 -1.19557E+04 -1.90662E+04  5.29898E+03 -2.42563E+04  1.43289E+04 -1.75765E+04  1.87644E+04 -5.34341E+02
  1.29410E+04  1.38085E+04 -1.06225E+03  2.02442E+04 -1.38615E+04  1.27742E+04 -2.05709E+04 -4.78856E+03
 -1.40433E+04 -1.80392E+04 -2.56395E+03 -2.46080E+04  1.04660E+04 -1.97500E+04  1.92515E+04 -8.06993E+03
  1.79789E+04  9.41886E+02  1.41135E+04  5.00056E+03  7.52358E+03  9.78161E+02  1.07147E+04 -1.89232E+03
  1.75158E+04  2.45726E+03  2.14696E+04  1.49101E+04  1.51365E+04  3.24497E+04 -3.54056E+03  3.69850E+04
 -1.93306E+04  2.90069E+04 -3.26207E+04  1.44518E+04 -3.70992E+04 -2.46508E+03 -2.91726E+04 -2.12428E+04
 -1.22223E+04 -3.06002E+04  9.88476E+03 -2.62026E+04  2.37849E+04 -1.44911E+04  2.03430E+04  5.53454E+03
  7.69090E+03  1.64264E+04 -8.73431E+03  1.24357E+04 -1.74367E+04  2.72747E+03 -1.20088E+04 -1.03933E+04
  1.93164E+02 -1.62557E+04  7.51375E+03 -1.33328E+04  9.65133E+03 -1.81833E+03  2.28618E+03  6.84055E+03
 -6.24919E+03  2.64508E+03 -5.44717E+03 -5.12511E+03 -1.89821E+03 -1.46851E+04  1.05940E+04 -1.52932E+04
  1.89503E+04 -8.14485E+03  2.02152E+04  3.64894E+03  1.62514E+04  1.41155E+04  7.64278E+03  2.15456E+04
 -3.67974E+03  2.36315E+04 -1.53829E+04  1.57356E+04 -1.87495E+04  3.02190E+03 -1.21675E+04 -3.88496E+03
 -5.78618E+03 -5.43180E+03 -2.41219E+03  1.94029E+03 -3.14835E+03  3.40861E+03 -5.27135E+03  4.50568E+03
 -1.23725E+04 -1.30353E+03 -1.26847E+04 -1.02705E+04 -4.06774E+03 -1.51096E+04  5.59671E+03 -1.33769E+04
  1.00317E+04 -4.98863E+03  6.01304E+03  2.49109E+03  1.00993E+03  5.29173E+03 -5.86101E+03 -8.33363E+02
 -5.91156E+03 -8.40817E+03 -5.77558E+02 -1.19285E+04  6.29163E+03 -1.29913E+04  1.42470E+04 -7.70174E+03
  1.87393E+04  3.90660E+02  1.25800E+04  1.03328E+04  1.78192E+03  1.51179E+04 -6.81694E+03  1.30756E+04
 -9.89195E+03  4.16541E+03 -6.75831E+03 -1.94820E+03  2.26725E+03 -3.99623E+03  6.19392E+03 -2.24255E+03
  5.89515E+03  4.82529E+03  8.13902E+02  1.05314E+04 -8.01156E+03  9.91635E+03 -1.09797E+04  2.79952E+03
 -8.44563E+03 -5.61546E+03  1.00688E+03 -1.14401E+04  5.07692E+03 -4.10706E+03  6.82900E+03  1.36783E+03
  1.84734E+03  6.79552E+03 -4.89018E+03  7.63347E+03 -9.24152E+03  4.56493E+03 -1.01600E+04 -3.46917E+03
 -5.15214E+03 -1.16940E+04  1.49861E+03 -1.20905E+04  1.06724E+04 -7.88159E+03  1.22476E+04  1.23037E+03
  7.35182E+03  8.57561E+03 -1.56725E+03  1.22471E+04 -8.70822E+03  7.29323E+03 -8.88699E+03  7.43246E+02
 -8.22797E+03 -7.12728E+03 -2.12486E+03 -9.35165E+03  5.64630E+03 -8.17414E+03  5.33310E+03 -3.93132E+03
  3.14413E+03  1.52430E+03 -3.01169E+02  5.35640E+02 -1.13340E+03 -7.32091E+02 -2.92841E+02 -6.49561E+03
  6.55132E+03 -2.92215E+03  1.11370E+04  1.18894E+03  1.10720E+04  6.35882E+03  8.00472E+03  1.40582E+04
 -3.40965E+03  1.74053E+04 -1.45939E+04  1.27127E+04 -1.78306E+04  2.72822E+03 -1.35295E+04 -5.73430E+03
 -7.74003E+03 -1.19730E+04 -6.04077E+02 -1.15933E+04  2.57327E+03 -7.49939E+03  3.49559E+03 -4.86110E+03
  3.40516E+03 -2.57367E+03  4.40106E+03 -3.24981E+03  4.14525E+03 -3.89976E+03  6.84023E+03 -2.30085E+03
  7.50318E+03  1.16571E+03  4.73889E+03  6.54179E+03 -1.33038E+03  6.51754E+03 -8.26129E+03  6.44003E+03
 -1.05850E+04 -9.49163E+02 -5.17506E+03 -8.19791E+03  1.80001E+02 -1.02894E+04  6.27871E+03 -9.65417E+03
  1.08910E+04 -5.28382E+03  1.38500E+04  1.46812E+03  7.22175E+03  7.53536E+03  2.59270E+03  1.16884E+04
 -5.55208E+03  9.73590E+03 -7.38567E+03  3.71118E+03 -3.93114E+03 -2.14036E+03 -1.31735E+03 -1.62553E+03
 -4.07461E+02 -7.36252E+02 -1.51631E+03  3.32872E+03 -4.08457E+03  2.58219E+03 -7.82623E+03  1.14343E+01
 -4.78994E+03 -7.40680E+03  3.95828E+02 -9.64612E+03  5.69667E+03 -9.17988E+03  1.02245E+04 -1.10734E+03
  8.64485E+03  5.32829E+03  4.13843E+03  8.45612E+03 -2.33436E+03  1.01991E+04 -6.15940E+03  5.44618E+03
 -8.52576E+03  1.67293E+03 -7.47939E+03 -5.95926E+03 -2.87401E+02 -7.03955E+03  3.62909E+03 -6.89348E+03
  6.43488E+03 -3.40788E+03  3.48849E+03  1.58214E+03  1.36013E+02  2.72565E+03  8.50151E+02  2.71845E+02
  6.57010E+02  1.17326E+03  1.69703E+03  2.08409E+03  2.20838E+03  4.38466E+03  3.03309E+03  4.28403E+03
 -9.10093E+02  7.88960E+03 -6.90269E+03  6.29457E+03 -9.06466E+03  1.01024E+03 -1.06533E+04 -3.82341E+03
 -5.16586E+03 -8.34552E+03  2.07281E+03 -1.02011E+04  4.97162E+03 -5.30646E+03  9.04302E+03 -2.24154E+03
  5.67920E+03  4.71603E+03  1.13573E+03  5.16098E+03 -2.42783E+03  3.24303E+03 -4.38233E+03 -1.21675E+03
 -1.85225E+03 -3.93830E+03  1.76393E+03 -4.05511E+03  3.08519E+03 -2.66658E+03  4.16859E+03  1.76231E+03
  2.82412E+03  1.16470E+03  2.28264E+03  1.35447E+03 -4.99135E+02  1.62646E+03  5.73871E+02  3.58515E+01
  1.46269E+03 -6.00925E+02  4.94320E+03  1.65738E+03  2.81311E+03  4.06622E+03 -1.07164E+03  6.35941E+03
 -3.67486E+03  3.52763E+03 -5.69762E+03  1.24573E+03 -5.27700E+03 -1.76460E+03 -1.80845E+03 -3.10178E+03
  1.53394E+03 -4.06540E+03  2.67281E+03 -1.53155E+03  1.99001E+03  3.35309E+03 -6.87306E+02  3.55195E+03
 -3.38799E+03  2.51707E+03 -4.45883E+03 -2.56332E+03 -3.84276E+03 -4.73844E+03  1.50902E+03 -3.82163E+03
  2.67816E+03 -2.68903E+03  3.04455E+03  6.24283E+02  1.64860E+03  2.29461E+02 -4.64730E+02  2.49458E+03
 -1.65728E+03  1.67137E+03 -1.93107E+03 -2.43847E+03  1.86384E+03 -2.80248E+03  4.94338E+03 -3.00025E+03
  6.50113E+03 -1.20076E+03  6.77337E+03  3.06647E+03  1.76172E+03  5.95862E+03 -1.22871E+03  5.15827E+03
 -5.42781E+03  3.38124E+03 -3.98199E+03  2.58816E+02 -3.90850E+03 -4.80425E+03  6.79466E+02 -2.33896E+03
  3.78341E+03 -1.57661E+03  4.03935E+03  1.18114E+03  1.31285E+03  4.07401E+03  6.96101E+02  2.50487E+03
 -1.84751E+03  1.41488E+03 -1.16644E+03  1.93618E+02 -2.39408E+03  1.66708E+03 -5.77751E+02  2.45375E+02
 -8.98164E+02  1.97695E+03 -4.30279E+03  1.59651E+03 -6.39033E+03  9.56424E+02 -6.53403E+03 -3.31534E+03
 -2.98292E+03 -7.19908E+03  1.66782E+03 -8.88006E+03  4.21481E+03 -6.56023E+03  8.11049E+03 -4.06600E+03
  8.05396E+03 -2.46932E+02  4.46891E+03  3.91701E+03  1.37372E+02  6.37996E+03 -2.31404E+03  4.47851E+03
 -2.03616E+03  2.28145E+03 -9.21228E+02 -6.83812E+02 -8.24300E+02 -5.48592E+02 -6.79879E+02 -3.25758E+02
 -4.42543E+02 -8.42585E+02 -2.36551E+03  3.10036E+02  5.09942E+02 -2.07385E+03 -1.33856E+03 -2.05535E+03
  3.01690E+03 -2.59617E+03  2.36249E+03  9.88128E+02  5.05593E+03  3.08995E+03  2.62227E+02  5.49280E+03
 -3.24266E+03  8.94084E+03 -6.33201E+03  2.84925E+03 -6.79422E+03 -8.90727E+02 -5.06926E+03 -4.48829E+03
 -2.45561E+03 -6.64740E+03  1.72369E+03 -4.88478E+03  2.25155E+03 -3.93593E+03  3.90320E+03  7.42875E+02
  2.45580E+03  1.95709E+03  2.02758E+03  1.27492E+03 -1.52217E+03  6.54954E+02  4.50799E+02 -1.01894E+03
  1.37605E+03 -1.13605E+03  1.87407E+03 -4.42621E+02  2.60372E+02  2.32438E+03 -8.37311E+02  1.96668E+03
 -2.22468E+03  3.25437E+03 -5.52289E+03  6.35416E+02 -3.09160E+03 -2.46811E+03 -8.93785E+02 -5.16742E+03
  4.19578E+03 -5.40692E+03  4.63076E+03 -7.50399E+02  4.06817E+03  1.59531E+03  1.96321E+03  3.63910E+03
  4.04874E+02  3.51863E+03 -1.42047E+03  2.78025E+03 -1.37969E+03  2.51779E+03 -1.42456E+03  1.26754E+02
 -2.02603E+02 -1.99229E+02 -7.65315E+02 -1.42293E+03 -1.80105E+03 -2.72034E+02 -3.59762E+03 -7.50628E+02
 -3.71472E+03 -1.80296E+03 -1.72686E+03 -3.12181E+03  2.46250E+03 -3.24690E+03  3.34879E+03 -2.56424E+03
  2.73770E+03 -1.21603E+02  2.36178E+02  2.51849E+03 -6.58302E+02  3.89916E+03 -2.65904E+03  1.75179E+03
