 $NMID ID='MM_0lb_SNR200_10hz_g45_88.RAW', FMTDAT='(8E13.5)'
 TRAMP=1., VOLUME=1. $END
  3.10028E+05  1.69356E+03  3.37976E+05  2.50013E+05  8.43371E+04  3.38462E+05 -1.33379E+05  2.51945E+05
 -1.88913E+05  8.39591E+04 -1.12074E+05 -3.28675E+04 -6.17206E+02 -5.09253E+04  5.45347E+04 -9.42163E+02
  3.44468E+04  5.34229E+04 -1.53878E+04  7.65441E+04 -6.09489E+04  6.32275E+04 -8.59842E+04  3.14133E+04
 -8.20966E+04 -1.12397E+04 -5.74698E+04 -5.20463E+04 -1.58964E+04 -7.00056E+04  2.79639E+04 -4.62633E+04
  4.25366E+04  3.10572E+03  1.86483E+04  4.82803E+04 -3.38435E+04  4.79134E+04 -6.73460E+04 -5.25471E+02
 -5.45287E+04 -5.72659E+04 -7.73362E+03 -7.80055E+04  3.33968E+04 -5.62213E+04  4.75252E+04 -1.76143E+04
  4.41632E+04  1.19131E+04  3.29555E+04  2.69146E+04  1.64072E+04  2.96348E+04 -5.80315E+03  2.69687E+04
 -2.13591E+04  1.21614E+04 -1.70485E+04 -6.08140E+03  7.17588E+03 -7.48920E+03  2.23755E+04  1.23839E+04
  8.60903E+03  3.73660E+04 -3.37133E+04  3.56857E+04 -6.62426E+04  2.30561E+03 -5.79575E+04 -4.29236E+04
 -1.26361E+04 -6.58218E+04  4.11613E+04 -4.61105E+04  6.13939E+04 -9.42832E+02  3.53941E+04  3.49169E+04
 -4.42693E+03  3.92923E+04 -3.20612E+04  1.70055E+04 -3.18307E+04 -3.87018E+03 -1.90075E+04 -1.00797E+04
 -9.53982E+03 -1.52359E+04 -1.15296E+03 -2.04791E+04  7.90283E+03 -2.32387E+04  1.62702E+04 -1.37525E+04
  1.15385E+04  5.95343E+03 -9.61979E+03  1.24524E+04 -2.27703E+04 -5.51639E+03 -9.81361E+03 -3.45594E+04
  2.29382E+04 -4.48194E+04  5.02140E+04 -1.91092E+04  4.95081E+04  2.03962E+04  1.56333E+04  4.64439E+04
 -1.72276E+04  3.59711E+04 -2.77318E+04  2.67410E+03 -1.05744E+04 -2.88886E+04  2.00901E+04 -3.55170E+04
  4.35305E+04 -1.16264E+04  3.95216E+04  2.48839E+04  1.96536E+04  4.98101E+04 -9.21852E+03  5.37795E+04
 -3.28721E+04  3.77727E+04 -4.53969E+04  1.13449E+04 -4.68635E+04 -1.72140E+04 -2.58207E+04 -4.03457E+04
  7.31923E+03 -3.93249E+04  3.50054E+04 -1.56704E+04  3.17554E+04  1.03046E+04  4.17481E+03  2.07781E+04
 -1.39666E+04  8.70291E+03 -1.09413E+04 -9.12480E+03  4.96450E+03 -1.13061E+04  1.89833E+04  5.23373E+03
  1.29641E+04  2.37472E+04 -5.62685E+03  2.60227E+04 -2.24889E+04  1.31336E+04 -3.27191E+04 -3.65866E+03
 -2.37490E+04 -1.90513E+04 -1.01345E+04 -2.41708E+04  6.16978E+03 -2.30743E+04  1.87042E+04 -2.19087E+04
  3.01073E+04 -1.43218E+04  3.60232E+04  3.89396E+03  2.62171E+04  2.29716E+04  4.99745E+03  4.03361E+04
 -1.94668E+04  3.33666E+04 -2.84527E+04  1.06592E+04 -2.36255E+04 -1.07159E+04 -4.77652E+03 -1.23930E+04
  8.04919E+02 -2.51871E+03 -6.99447E+03  8.40699E+03 -1.85306E+04  4.22998E+03 -1.97787E+04 -9.86512E+03
 -1.11912E+04 -2.17346E+04  7.28270E+03 -2.72140E+04  1.74084E+04 -1.85459E+04  2.02419E+04 -2.26616E+03
  1.39196E+04  1.44329E+04 -1.48489E+03  2.08457E+04 -1.41276E+04  1.23045E+04 -2.18341E+04 -4.98275E+03
 -1.55013E+04 -2.08374E+04 -1.86567E+03 -2.68056E+04  1.35720E+04 -2.13219E+04  2.18129E+04 -1.26727E+04
  2.12573E+04 -5.68575E+02  1.61552E+04  5.06044E+03  7.91355E+03  1.56499E+03  1.00555E+04 -2.34104E+03
  2.00974E+04  3.08170E+03  2.50209E+04  1.76264E+04  1.65329E+04  3.48390E+04 -2.52039E+03  4.24644E+04
 -2.25663E+04  3.34389E+04 -3.79518E+04  1.74936E+04 -4.12666E+04 -2.95957E+03 -3.32516E+04 -2.34342E+04
 -1.33874E+04 -3.46046E+04  1.12747E+04 -3.06884E+04  2.44158E+04 -1.45332E+04  2.29118E+04  7.35300E+03
  7.72111E+03  1.69645E+04 -1.09084E+04  1.41549E+04 -1.92184E+04  1.52366E+03 -1.41615E+04 -1.22214E+04
  1.63452E+02 -1.89501E+04  9.07465E+03 -1.19422E+04  1.27343E+04 -9.83243E+02  4.24240E+03  8.90857E+03
 -9.07839E+03  3.45437E+03 -9.37590E+03 -6.54185E+03 -2.22268E+03 -1.71686E+04  1.11841E+04 -1.86595E+04
  2.02453E+04 -1.04412E+04  2.28427E+04  2.71111E+03  2.13305E+04  1.62425E+04  1.01759E+04  2.65585E+04
 -4.39622E+03  2.89410E+04 -1.91373E+04  1.71762E+04 -2.02867E+04  2.63144E+03 -1.39833E+04 -5.53517E+03
 -6.55253E+03 -5.87093E+03 -1.81999E+03  8.89801E+02 -3.64814E+03  4.78144E+03 -7.63071E+03  4.53856E+03
 -1.23408E+04 -1.30907E+03 -1.15440E+04 -1.04555E+04 -6.53737E+03 -1.80567E+04  6.09860E+03 -1.41659E+04
  1.17552E+04 -5.29362E+03  8.48627E+03  3.41320E+03  5.78508E+02  4.69273E+03 -6.99167E+03 -6.66155E+02
 -7.75986E+03 -8.91998E+03 -1.53878E+03 -1.35737E+04  7.02184E+03 -1.48681E+04  1.75093E+04 -9.85974E+03
  2.08654E+04  2.65685E+03  1.56647E+04  1.19812E+04  1.31605E+03  1.64508E+04 -8.45326E+03  1.35230E+04
 -1.02558E+04  4.41787E+03 -6.88619E+03 -2.53476E+03  2.61706E+03 -2.83095E+03  8.27422E+03 -4.73387E+02
  8.47085E+03  5.98961E+03 -3.15184E+02  1.23922E+04 -9.17303E+03  1.12255E+04 -1.44105E+04  3.20688E+03
 -1.01954E+04 -9.11754E+03 -5.73465E+02 -1.27413E+04  7.43980E+03 -5.91033E+03  7.85264E+03  2.10902E+03
  1.55311E+03  8.72017E+03 -8.40743E+03  9.03264E+03 -1.17823E+04  5.11984E+03 -1.23531E+04 -3.77813E+03
 -6.36029E+03 -1.35948E+04  4.18844E+03 -1.53020E+04  1.28426E+04 -9.63623E+03  1.41314E+04  2.03024E+03
  9.18959E+03  1.14945E+04 -1.74971E+03  1.43895E+04 -1.03513E+04  8.91793E+03 -1.19006E+04 -1.82195E+03
 -8.25276E+03 -9.88769E+03 -2.41178E+03 -1.07779E+04  7.06842E+03 -8.65879E+03  7.15067E+03 -4.46027E+03
  3.64915E+03  1.55089E+03 -7.13864E+02  1.59797E+03 -1.10445E+03 -4.32897E+03  2.11342E+03 -6.16613E+03
  8.98936E+03 -3.97440E+03  1.54447E+04  2.16222E+03  1.43780E+04  1.00592E+04  8.23698E+03  1.73592E+04
 -5.28179E+03  2.33291E+04 -1.72648E+04  1.54967E+04 -2.24095E+04  2.78515E+03 -1.93182E+04 -9.55287E+03
 -9.08390E+03 -1.60637E+04 -1.41472E+03 -1.25885E+04  5.17221E+03 -7.93379E+03  4.16007E+03 -4.89208E+03
  3.75402E+03 -3.03173E+03  2.93203E+03 -2.46342E+03  5.19551E+03 -4.41460E+03  8.14265E+03 -5.72501E+02
  1.03108E+04  9.16757E+02  5.21592E+03  7.46449E+03 -2.71225E+03  9.18187E+03 -1.08170E+04  7.75638E+03
 -1.26980E+04 -2.10116E+03 -9.38945E+03 -9.79177E+03 -7.55251E+02 -1.26362E+04  8.55331E+03 -1.30143E+04
  1.33101E+04 -7.33222E+03  1.60284E+04  3.25589E+03  1.17807E+04  1.21218E+04  1.57240E+03  1.59473E+04
 -5.68252E+03  1.29260E+04 -8.39921E+03  4.09675E+03 -6.93402E+03 -6.83317E+02 -2.48704E+03 -1.03133E+03
 -2.39760E+03 -1.91963E+02 -5.50004E+02  1.87725E+03 -5.84519E+03  2.48795E+03 -8.61274E+03 -1.45268E+03
 -6.46035E+03 -9.40559E+03  9.56777E+02 -1.27308E+04  8.88230E+03 -1.23300E+04  1.24696E+04 -2.76111E+03
  1.25569E+04  6.90878E+03  4.91329E+03  1.05154E+04 -1.67728E+03  1.34239E+04 -9.89800E+03  9.75637E+03
 -1.20653E+04 -6.67550E+02 -9.55297E+03 -8.04198E+03 -1.62772E+03 -1.10824E+04  5.32097E+03 -8.46070E+03
  8.23389E+03 -3.06877E+03  5.83194E+03  2.43555E+03  5.82926E+02  3.44805E+03  1.11227E+03  2.35215E+03
  2.66704E+03  6.13484E+02  3.10951E+03  1.89666E+03  3.69785E+03  5.66472E+03  3.72641E+03  6.80561E+03
 -2.61052E+03  9.57297E+03 -8.23927E+03  9.66503E+03 -1.22108E+04  1.85565E+03 -1.56571E+04 -6.60586E+03
 -6.22827E+03 -1.18820E+04  1.61480E+03 -1.41151E+04  7.49426E+03 -8.65433E+03  9.40424E+03 -2.78575E+03
  7.59561E+03  4.24231E+03  1.48082E+03  7.25711E+03 -4.73403E+03  5.22604E+03 -5.08697E+03 -1.95502E+03
 -3.75421E+03 -6.40830E+03  3.24719E+03 -4.88917E+03  5.27307E+03 -2.44179E+03  5.87041E+03  2.98360E+02
  3.05950E+03  2.19512E+03  1.43846E+03  1.96973E+03 -6.48165E+01  1.84055E+03  2.60578E+03 -5.15494E+02
  3.25173E+03 -1.66431E+03  4.36523E+03  5.49344E+02  3.41574E+03  6.91335E+03  1.15968E+02  7.15454E+03
 -6.87408E+03  5.96661E+03 -9.52243E+03  2.66353E+03 -6.32558E+03 -2.66599E+03 -2.59191E+03 -5.04027E+03
  1.79440E+03 -6.20452E+03  4.73869E+03 -3.26821E+03  3.41942E+03  1.76923E+03 -6.86241E+02  4.03723E+03
 -4.21401E+03  3.36154E+03 -6.37324E+03 -2.35317E+03 -4.04386E+03 -7.31125E+03  1.65712E+03 -7.18119E+03
  4.15528E+03 -5.13418E+03  4.98366E+03 -1.47564E+03  5.04497E+03  2.96261E+02  4.67896E+02  2.84189E+03
 -2.53051E+03  1.63668E+03 -3.71663E+03 -3.00264E+03  6.34661E+02 -5.08540E+03  5.54271E+03 -5.54995E+03
  8.17398E+03  1.10999E+03  7.51483E+03  4.39612E+03  2.36513E+03  8.30693E+03 -2.52153E+03  8.86945E+03
 -6.26406E+03  3.57637E+03 -7.89598E+03 -1.47199E+03 -4.29544E+03 -6.48206E+03  2.70371E+03 -6.97493E+03
  4.23737E+03 -2.22923E+03  3.52562E+03  3.53945E+03  2.40933E+03  4.13237E+03  8.45538E+02  4.82623E+03
 -2.89371E+03  1.55140E+03 -2.01023E+03 -5.87119E+02 -8.05483E+02  6.72407E+02 -1.43279E+03  2.01907E+03
 -2.87659E+03  4.57986E+03 -6.77668E+03  2.99420E+03 -7.93070E+03  4.41545E+02 -8.55511E+03 -6.15318E+03
 -3.84695E+03 -1.15348E+04  2.59941E+03 -1.40417E+04  7.76395E+03 -9.28312E+03  1.15364E+04 -3.26992E+03
  1.03576E+04  2.83804E+03  7.02984E+03  6.56114E+03  2.44119E+02  9.12277E+03 -3.03145E+03  6.81456E+03
 -5.06344E+03  2.70715E+03 -2.81242E+03  5.41481E+02 -1.10561E+03 -5.56960E+02 -4.35756E+02 -1.52935E+03
 -2.56258E+03 -6.97715E+02 -1.47392E+03 -5.79770E+02 -6.48291E+02 -1.16441E+03  4.12885E+02 -4.00362E+03
  3.13834E+03 -3.78246E+03  5.27405E+03  2.52861E+02  6.30122E+03  3.93727E+03  1.43174E+03  5.61369E+03
 -4.43522E+03  9.42756E+03 -9.82628E+03  5.35227E+03 -9.95827E+03 -7.98865E+02 -6.65071E+03 -6.25972E+03
 -3.03651E+03 -9.84821E+03  2.96206E+03 -7.48513E+03  4.49717E+03 -5.77668E+03  6.07763E+03 -6.23170E+01
  2.97192E+03  4.84784E+03  3.23466E+02  2.52283E+03 -1.68666E+03  3.87077E+02  1.32551E+03 -1.62929E+03
  3.06630E+03 -2.48041E+03  1.70106E+03  1.55359E+03  1.78710E+03  2.85572E+03 -1.38871E+03  4.81735E+03
 -3.90215E+03  2.94041E+03 -4.94924E+03  1.31206E+03 -5.24113E+03 -4.70291E+03 -1.76376E+03 -6.77364E+03
  4.58385E+03 -6.01715E+03  6.45757E+03 -1.82955E+03  4.18000E+03  5.92096E+02  2.35144E+03  5.66096E+03
  1.13821E+03  6.83592E+03 -3.44097E+03  5.44338E+03 -2.93807E+03  2.18719E+03 -4.26827E+03  1.35192E+03
 -1.20814E+03  1.43226E+02 -6.52808E+02  5.80394E+02 -3.05791E+03  1.88717E+03 -5.31897E+03 -3.53736E+02
 -4.11690E+03 -2.46149E+03 -2.14608E+03 -6.22970E+03  2.45441E+03 -6.65764E+03  5.98847E+03 -3.51018E+03
  5.91331E+03  1.23571E+03  2.48244E+03  4.76654E+03  8.92297E+02  6.08310E+03 -4.67032E+03  4.05960E+03
