 $NMID ID='MM_0lb_SNR200_7hz_g45_96.RAW', FMTDAT='(8E13.5)'
 TRAMP=1., VOLUME=1. $END
  3.10289E+05  8.58794E+02  3.39932E+05  2.50621E+05  8.45386E+04  3.39426E+05 -1.31746E+05  2.50398E+05
 -1.91471E+05  8.33149E+04 -1.12729E+05 -3.33501E+04 -1.72056E+03 -5.03540E+04  5.24904E+04 -8.23276E+02
  3.56095E+04  5.17063E+04 -1.78255E+04  7.64606E+04 -5.95481E+04  6.31038E+04 -8.63985E+04  3.45086E+04
 -8.18942E+04 -1.14674E+04 -5.82560E+04 -5.56429E+04 -1.40096E+04 -7.05231E+04  2.97981E+04 -4.71301E+04
  4.17830E+04  2.33193E+03  1.89435E+04  5.00958E+04 -3.50930E+04  4.92872E+04 -6.86591E+04  1.44440E+02
 -5.42991E+04 -6.03671E+04 -9.07329E+03 -7.87595E+04  3.48866E+04 -5.63783E+04  5.14304E+04 -1.96136E+04
  4.35612E+04  9.47946E+03  3.48661E+04  2.66034E+04  1.50185E+04  3.19881E+04 -5.02176E+03  2.90440E+04
 -2.22514E+04  1.10300E+04 -1.89065E+04 -6.93948E+03  7.75286E+03 -7.97366E+03  2.23145E+04  1.52935E+04
  5.69455E+03  4.03325E+04 -3.37100E+04  3.89285E+04 -6.58977E+04  3.00516E+02 -5.83754E+04 -4.39893E+04
 -1.35316E+04 -6.84422E+04  4.19330E+04 -4.75727E+04  6.37638E+04 -2.09871E+03  3.82741E+04  3.54311E+04
 -3.84352E+03  3.92967E+04 -3.21583E+04  2.04846E+04 -3.38036E+04 -2.02000E+03 -1.94563E+04 -1.12494E+04
 -8.72893E+03 -1.54007E+04 -1.86547E+02 -2.03256E+04  8.80857E+03 -2.42480E+04  1.76305E+04 -1.26918E+04
  1.07121E+04  6.06683E+03 -1.16951E+04  1.21283E+04 -2.51913E+04 -8.07592E+03 -9.98535E+03 -3.91187E+04
  2.67055E+04 -4.91498E+04  5.29913E+04 -2.02517E+04  4.89203E+04  2.14111E+04  1.78040E+04  4.85126E+04
 -1.74841E+04  3.64918E+04 -2.87299E+04  1.75555E+03 -1.11882E+04 -3.15010E+04  2.21988E+04 -3.70186E+04
  4.60772E+04 -1.11075E+04  4.24136E+04  2.65311E+04  2.25742E+04  5.38698E+04 -8.55570E+03  5.93543E+04
 -3.54167E+04  3.97856E+04 -4.89178E+04  1.08282E+04 -4.78290E+04 -1.99733E+04 -2.65016E+04 -4.55428E+04
  7.07551E+03 -4.27823E+04  3.39751E+04 -1.65748E+04  3.21372E+04  1.30750E+04  4.75192E+03  2.31246E+04
 -1.31526E+04  1.07494E+04 -1.21472E+04 -6.92155E+03  5.44853E+03 -1.16985E+04  1.87876E+04  4.34475E+03
  1.40129E+04  2.34027E+04 -5.53440E+03  2.97269E+04 -2.47075E+04  1.63893E+04 -3.30119E+04 -3.47400E+03
 -2.61550E+04 -1.92992E+04 -1.32928E+04 -2.70059E+04  4.05592E+03 -2.81891E+04  2.06326E+04 -2.50900E+04
  3.51191E+04 -1.57058E+04  3.99995E+04  4.51409E+03  2.84393E+04  2.62672E+04  5.76528E+03  4.28744E+04
 -1.88250E+04  3.45362E+04 -3.13038E+04  1.38509E+04 -2.31865E+04 -9.67462E+03 -4.25933E+03 -1.24968E+04
 -6.14000E+02  8.09602E+02 -9.52558E+03  8.23800E+03 -2.04834E+04  4.43032E+03 -2.37056E+04 -1.01209E+04
 -1.19556E+04 -2.44478E+04  6.75298E+03 -2.93779E+04  1.81096E+04 -2.00720E+04  2.50359E+04 -2.45275E+03
  1.43585E+04  1.61435E+04 -1.43957E+03  2.58700E+04 -1.84039E+04  1.47500E+04 -2.64523E+04 -4.87895E+03
 -1.74619E+04 -2.20889E+04 -3.41802E+03 -2.95275E+04  1.43599E+04 -2.33125E+04  2.38681E+04 -1.37342E+04
  2.24401E+04 -3.34634E+02  1.67919E+04  5.97446E+03  8.60119E+03  9.13399E+02  1.43052E+04 -1.16662E+03
  2.42036E+04  3.10645E+03  2.55288E+04  2.09781E+04  1.80978E+04  3.97969E+04 -2.97426E+03  4.67855E+04
 -2.73832E+04  4.05423E+04 -4.42453E+04  2.21348E+04 -4.83053E+04 -3.23434E+03 -3.86248E+04 -2.81541E+04
 -1.48930E+04 -4.11059E+04  1.48759E+04 -3.68069E+04  3.34296E+04 -1.84529E+04  2.61577E+04  8.24186E+03
  8.37227E+03  2.16158E+04 -1.34604E+04  1.58626E+04 -2.11875E+04  1.62187E+03 -1.78019E+04 -1.42371E+04
 -1.19998E+03 -2.09707E+04  1.12401E+04 -1.59442E+04  1.37145E+04 -1.47092E+03  2.21743E+03  9.49809E+03
 -8.73430E+03  4.12505E+03 -1.04809E+04 -7.69938E+03 -8.19745E+02 -2.14564E+04  1.31614E+04 -2.23990E+04
  2.77298E+04 -1.19768E+04  2.98926E+04  4.81788E+03  2.55427E+04  1.91765E+04  1.05366E+04  3.29713E+04
 -6.97733E+03  3.46651E+04 -2.14618E+04  2.31114E+04 -2.46087E+04  4.83989E+03 -1.61156E+04 -5.68280E+03
 -7.80691E+03 -8.21364E+03 -8.83782E+02 -8.55330E+02 -4.33558E+03  5.67941E+03 -7.33448E+03  6.70336E+03
 -1.58600E+04 -6.57068E+02 -1.61114E+04 -1.48482E+04 -6.41280E+03 -2.18178E+04  5.94702E+03 -1.76601E+04
  1.34795E+04 -6.91476E+03  1.18128E+04  4.28619E+03 -1.25304E+03  7.67642E+03 -9.63753E+03  1.67630E+02
 -9.81864E+03 -1.28800E+04 -1.64277E+03 -1.80164E+04  1.04649E+04 -1.76329E+04  2.35939E+04 -1.17965E+04
  2.60217E+04  2.87847E+03  2.03716E+04  1.48185E+04  4.22821E+03  1.96504E+04 -9.82614E+03  1.56889E+04
 -1.46187E+04  4.16594E+03 -7.60779E+03 -3.42604E+03  3.56815E+03 -6.18794E+03  9.69366E+03 -3.61718E+02
  8.25529E+03  7.84123E+03  7.42261E+02  1.36539E+04 -9.23203E+03  1.33122E+04 -1.66183E+04  3.77594E+03
 -1.14586E+04 -1.04962E+04  2.60267E+03 -1.44912E+04  1.04001E+04 -6.83107E+03  1.07391E+04  3.28385E+03
  1.38032E+03  1.12885E+04 -8.92040E+03  1.24864E+04 -1.64607E+04  6.10314E+03 -1.71976E+04 -5.79139E+03
 -8.80288E+03 -1.83263E+04  6.52083E+03 -2.18830E+04  1.81105E+04 -1.15891E+04  2.04749E+04  3.75838E+03
  1.13184E+04  1.41342E+04 -1.93446E+03  1.94078E+04 -1.21559E+04  9.13483E+03 -1.59628E+04 -1.63767E+03
 -1.25449E+04 -1.17328E+04 -2.39183E+03 -1.22095E+04  8.01989E+03 -1.16434E+04  9.57075E+03 -2.55084E+03
  5.51796E+03  2.80757E+03 -1.77905E+03  2.40345E+03 -1.34117E+03 -5.17266E+03  3.26893E+03 -1.05593E+04
  1.32480E+04 -7.27544E+03  1.85335E+04  1.75358E+03  1.97646E+04  1.25093E+04  9.50418E+03  2.57719E+04
 -5.10323E+03  2.70455E+04 -2.24773E+04  1.98461E+04 -2.95314E+04  4.68989E+03 -2.31489E+04 -1.15684E+04
 -1.27756E+04 -2.09119E+04 -3.28983E+02 -1.62632E+04  6.15326E+03 -9.59145E+03  6.83276E+03 -5.48120E+03
  5.40797E+03 -2.85692E+03  4.07411E+03 -4.61070E+03  6.15211E+03 -5.15887E+03  1.04812E+04 -1.59661E+03
  1.16691E+04  2.78580E+03  5.16888E+03  1.18135E+04 -2.32050E+03  1.23714E+04 -1.42034E+04  1.14679E+04
 -1.68842E+04 -2.34915E+03 -1.00273E+04 -1.32957E+04 -7.77641E+02 -2.08553E+04  1.14043E+04 -1.82460E+04
  1.83202E+04 -9.57258E+03  2.31579E+04  4.04665E+03  1.63219E+04  1.74017E+04  3.28531E+03  2.20402E+04
 -9.08909E+03  1.57609E+04 -1.26117E+04  6.59584E+03 -7.40919E+03 -1.22610E+03 -4.35839E+03 -3.47615E+03
 -1.47719E+03 -1.19420E+02 -5.03777E+03  4.47007E+03 -6.27129E+03  2.45336E+03 -1.31291E+04  1.04223E+02
 -9.70693E+03 -1.07435E+04 -5.13972E+02 -1.63559E+04  1.17822E+04 -1.65347E+04  2.05325E+04 -4.34214E+03
  1.77115E+04  9.39460E+03  7.85567E+03  1.55066E+04 -4.52107E+03  1.86418E+04 -1.31764E+04  1.09913E+04
 -1.80415E+04 -3.94233E+02 -1.26155E+04 -1.08637E+04 -4.57746E+02 -1.47790E+04  7.14406E+03 -9.55292E+03
  1.14382E+04 -4.14274E+03  6.87447E+03  2.90675E+03  3.47396E+03  4.45599E+03  1.83627E+03  1.41026E+03
  3.63672E+03  2.24440E+03  3.39715E+03  1.78636E+03  4.55525E+03  6.96898E+03  3.56456E+03  1.15629E+04
 -4.93522E+03  1.51594E+04 -1.17193E+04  1.45389E+04 -1.96212E+04  3.80396E+03 -2.04668E+04 -8.50970E+03
 -9.02199E+03 -1.93165E+04  3.76246E+03 -2.06287E+04  1.04783E+04 -1.28151E+04  1.52292E+04 -2.56128E+03
  1.42240E+04  7.07179E+03  2.20417E+03  1.11282E+04 -5.83087E+03  8.05321E+03 -7.97275E+03 -9.94233E+02
 -2.22822E+03 -7.30514E+03  4.57623E+03 -8.78859E+03  7.64888E+03 -4.38391E+03  7.15564E+03  1.59363E+03
  4.70798E+03  5.60914E+03  2.84304E+03  3.89387E+03 -1.20300E+03  2.22801E+03  4.88398E+02 -3.52845E+02
  3.77260E+03 -3.98340E+03  6.86533E+03  4.84072E+03  4.00898E+03  1.00540E+04 -1.80553E+03  1.23463E+04
 -9.13022E+03  7.30387E+03 -1.09597E+04  3.46484E+03 -1.02723E+04 -4.06452E+03 -4.51988E+03 -6.85350E+03
  2.09141E+03 -7.52755E+03  5.32260E+03 -3.69137E+03  4.53864E+03  3.66750E+03 -2.76115E+03  6.69034E+03
 -8.89487E+03  4.04842E+03 -9.22981E+03 -6.44969E+03 -5.09763E+03 -1.02232E+04  2.82222E+03 -9.95040E+03
  6.61807E+03 -5.83139E+03  6.66571E+03 -2.58373E+03  7.04304E+03  4.05482E+03  1.17364E+03  5.90006E+03
 -2.84694E+03  1.53234E+03 -4.28217E+03 -5.29739E+03  2.21543E+03 -7.25135E+03  9.98327E+03 -7.92248E+03
  1.42426E+04  2.34050E+03  1.04397E+04  8.55584E+03  3.29836E+03  1.07420E+04 -3.77274E+03  1.22580E+04
 -1.21541E+04  6.79724E+03 -1.21024E+04 -2.83303E+03 -5.49382E+03 -7.23188E+03  2.23689E+03 -7.52998E+03
  7.24412E+03 -3.73801E+03  7.74089E+03  2.28688E+03  1.64209E+03  6.94012E+03 -2.40651E+03  6.98014E+03
 -4.85358E+03  4.21138E+03 -3.79461E+03  1.28444E+03 -2.40881E+03  1.67067E+01 -2.49545E+03  3.34722E+03
 -2.86530E+03  4.49752E+03 -8.87388E+03  5.24914E+03 -1.42737E+04  8.60713E+02 -1.37134E+04 -9.56380E+03
 -7.18473E+03 -1.81112E+04  3.34226E+03 -2.12820E+04  1.17444E+04 -1.60851E+04  1.96299E+04 -5.35974E+03
  1.89147E+04  3.30718E+03  1.16722E+04  1.25436E+04  3.56965E+03  1.37188E+04 -4.93310E+03  9.08339E+03
 -8.08218E+03  3.04230E+03 -4.50581E+03 -2.79013E+03 -1.42475E+03  1.83742E+02 -1.18829E+03  4.45433E+02
 -8.53097E+02  4.74778E+02 -2.88702E+03 -9.60447E+02 -9.74864E+02 -3.49492E+03 -1.48094E+03 -6.76584E+03
  6.78991E+03 -6.34154E+03  8.83853E+03  5.47621E+02  9.38678E+03  7.04550E+03  2.45511E+03  1.56900E+04
 -8.31993E+03  1.66519E+04 -1.63952E+04  1.09705E+04 -1.64113E+04 -1.74817E+03 -1.44550E+04 -9.53366E+03
 -5.05288E+03 -1.59921E+04  4.30267E+03 -1.38005E+04  1.10277E+04 -6.96342E+03  1.04482E+04  1.39188E+03
  6.57754E+03  4.77593E+03 -1.07684E+03  2.43111E+03 -3.03140E+03 -7.76948E+02 -1.98480E+02 -4.67724E+03
  5.30093E+03 -2.54998E+03  6.27249E+03  2.46056E+03  4.04379E+03  5.03352E+03 -6.99030E+01  7.27887E+03
 -8.13536E+03  7.42079E+03 -1.09176E+04  8.23894E+02 -9.01902E+03 -6.44182E+03 -2.32176E+03 -1.38762E+04
  7.42306E+03 -1.09278E+04  9.40559E+03 -2.33549E+03  1.44385E+04  4.66720E+03  8.56463E+03  7.69565E+03
  2.19381E+03  8.61815E+03 -2.48910E+03  7.48881E+03 -6.37124E+03  3.32855E+03 -5.51141E+03 -1.02799E+03
 -4.84508E+03 -8.41888E+02 -3.16537E+03  1.94478E+03 -5.79672E+03  1.41439E+03 -7.34662E+03 -1.60552E+03
 -5.62642E+03 -5.13472E+03 -1.27586E+03 -9.80511E+03  4.68278E+03 -1.02218E+04  8.71331E+03 -4.67887E+03
  9.96067E+03 -1.37144E+03  6.31328E+03  6.45303E+03 -9.20325E+02  9.12047E+03 -8.21446E+03  7.31997E+03
