 $NMID ID='MM_0lb_SNR200_7hz_g60_58.RAW', FMTDAT='(8E13.5)'
 TRAMP=1., VOLUME=1. $END
  3.11103E+05  1.22005E+03  3.37945E+05  2.50604E+05  8.47897E+04  3.36848E+05 -1.32276E+05  2.52688E+05
 -1.89176E+05  8.55063E+04 -1.13363E+05 -3.16629E+04 -2.14074E+03 -5.18499E+04  5.41372E+04  5.04325E+02
  3.66577E+04  5.35491E+04 -1.58115E+04  7.60655E+04 -6.05926E+04  6.56529E+04 -8.61378E+04  3.35124E+04
 -8.46821E+04 -1.31103E+04 -5.91918E+04 -5.09257E+04 -1.65345E+04 -7.12328E+04  2.93272E+04 -4.72751E+04
  4.19558E+04  2.74307E+03  1.52719E+04  4.89335E+04 -3.42403E+04  4.83573E+04 -6.73656E+04 -5.90956E+02
 -5.72344E+04 -5.82749E+04 -7.04757E+03 -8.00588E+04  3.46131E+04 -5.68424E+04  5.00774E+04 -2.05010E+04
  4.60751E+04  1.14149E+04  3.30889E+04  2.66623E+04  1.64721E+04  3.19211E+04 -6.79145E+03  2.88218E+04
 -2.30279E+04  1.05011E+04 -1.67243E+04 -5.32219E+03  5.75076E+03 -4.58681E+03  2.36929E+04  1.55763E+04
  6.82451E+03  4.02672E+04 -3.39391E+04  3.67911E+04 -6.67308E+04  1.21504E+03 -5.86189E+04 -4.65428E+04
 -1.28322E+04 -6.64962E+04  4.06502E+04 -4.99355E+04  6.40757E+04 -4.33686E+03  3.96130E+04  3.59526E+04
 -6.31698E+03  4.15082E+04 -3.48054E+04  2.09752E+04 -3.34048E+04 -2.13842E+03 -2.27846E+04 -1.15510E+04
 -1.15948E+04 -1.55935E+04 -7.60497E+01 -2.12893E+04  7.70992E+03 -2.29976E+04  1.69563E+04 -1.07183E+04
  9.14167E+03  7.34012E+03 -1.15508E+04  1.21338E+04 -2.49047E+04 -7.14052E+03 -6.94883E+03 -4.02993E+04
  2.64773E+04 -4.89448E+04  5.56415E+04 -2.19644E+04  5.25647E+04  2.06269E+04  1.82630E+04  4.96938E+04
 -1.77649E+04  3.86609E+04 -3.01234E+04  3.80638E+03 -1.31619E+04 -3.23123E+04  2.22086E+04 -3.84486E+04
  4.81598E+04 -1.25988E+04  4.26625E+04  2.64306E+04  2.42417E+04  5.40456E+04 -9.12361E+03  5.93549E+04
 -3.55339E+04  4.19577E+04 -5.00116E+04  1.22362E+04 -5.04713E+04 -1.85765E+04 -2.82865E+04 -4.65862E+04
  8.44912E+03 -4.42940E+04  3.65493E+04 -1.89063E+04  3.43139E+04  1.21214E+04  7.16443E+03  2.33848E+04
 -1.40380E+04  9.75451E+03 -1.09501E+04 -7.22532E+03  5.67262E+03 -1.15979E+04  1.92331E+04  5.53819E+03
  1.70824E+04  2.46118E+04 -5.70824E+03  2.98969E+04 -2.42480E+04  1.65018E+04 -3.35980E+04 -3.56741E+03
 -2.71330E+04 -2.01827E+04 -1.59549E+04 -2.85861E+04  5.33258E+03 -3.15407E+04  2.10997E+04 -2.45522E+04
  3.65110E+04 -1.62462E+04  4.23738E+04  2.85247E+03  2.91533E+04  2.57690E+04  6.52003E+03  4.31136E+04
 -1.87244E+04  3.76498E+04 -3.16660E+04  1.43445E+04 -2.19212E+04 -1.23557E+04 -4.17928E+03 -1.14795E+04
  7.39412E+01  9.26150E+02 -8.99975E+03  7.88717E+03 -2.13468E+04  7.20134E+03 -2.17223E+04 -1.37718E+04
 -1.31340E+04 -2.60485E+04  8.34738E+03 -3.24290E+04  1.95687E+04 -2.35875E+04  2.52280E+04 -2.35656E+02
  1.81236E+04  1.72249E+04 -8.80460E+02  2.73060E+04 -1.71597E+04  1.60455E+04 -2.67062E+04 -5.82716E+03
 -1.78609E+04 -2.29310E+04 -2.18945E+03 -3.20953E+04  1.35049E+04 -2.76829E+04  2.71145E+04 -1.35812E+04
  2.49144E+04 -2.35170E+02  1.71328E+04  4.74167E+03  1.01270E+04  1.22617E+03  1.41273E+04 -2.02183E+03
  2.71938E+04  2.82112E+03  2.97461E+04  2.07895E+04  2.04057E+04  4.27625E+04 -2.85442E+03  5.05810E+04
 -2.82306E+04  4.43761E+04 -4.84856E+04  2.21493E+04 -5.10723E+04 -4.02966E+03 -4.22543E+04 -3.07431E+04
 -1.78605E+04 -4.33681E+04  1.54100E+04 -3.62372E+04  3.20885E+04 -1.54440E+04  2.79088E+04  1.13376E+04
  8.76268E+03  2.19174E+04 -1.33700E+04  1.77962E+04 -2.07008E+04  2.37558E+03 -1.74852E+04 -1.42839E+04
 -1.42505E+03 -2.16909E+04  1.15195E+04 -1.60591E+04  1.65306E+04 -4.06435E+02  2.89585E+03  9.08782E+03
 -9.72957E+03  6.19348E+03 -1.09963E+04 -8.78541E+03 -3.67040E+03 -2.04298E+04  1.42238E+04 -2.38412E+04
  2.63726E+04 -1.42170E+04  3.20110E+04  3.72237E+03  2.76702E+04  2.09234E+04  1.21920E+04  3.38926E+04
 -8.80112E+03  3.60268E+04 -2.40875E+04  2.37551E+04 -2.68112E+04  3.91115E+03 -1.94084E+04 -8.83569E+03
 -6.41259E+03 -8.45041E+03 -3.53556E+01  6.26355E+02 -9.48902E+02  4.75574E+03 -1.01732E+04  6.80914E+03
 -1.59158E+04  1.11350E+03 -1.64074E+04 -1.35165E+04 -7.46714E+03 -2.38197E+04  8.79649E+03 -1.78618E+04
  1.34270E+04 -8.53728E+03  8.57168E+03  6.73186E+03  4.46608E+02  7.23594E+03 -1.04550E+04 -3.70450E+02
 -8.71974E+03 -1.16519E+04 -4.97496E+02 -1.64270E+04  1.22175E+04 -2.01363E+04  2.52478E+04 -1.14145E+04
  2.68146E+04  2.51388E+03  2.01055E+04  1.97427E+04  3.95272E+03  2.34152E+04 -1.17887E+04  1.87346E+04
 -1.48053E+04  5.05196E+03 -9.04980E+03 -4.05220E+03  1.68627E+03 -6.36483E+03  1.02457E+04 -8.00303E+02
  9.33262E+03  9.15906E+03 -1.46346E+02  1.47330E+04 -1.26671E+04  1.29241E+04 -1.82876E+04  3.01920E+03
 -1.29423E+04 -8.77249E+03 -1.65201E+02 -1.77692E+04  1.17232E+04 -1.00921E+04  1.15629E+04  3.38146E+03
  1.84809E+03  1.26872E+04 -1.00195E+04  1.52606E+04 -1.74589E+04  6.65752E+03 -1.69378E+04 -5.93296E+03
 -1.06738E+04 -2.02413E+04  4.16831E+03 -2.20548E+04  2.06318E+04 -1.24038E+04  2.08025E+04  4.32778E+03
  1.21320E+04  1.51621E+04 -2.74817E+03  2.04930E+04 -1.42249E+04  1.04663E+04 -1.69440E+04 -1.28644E+03
 -1.08367E+04 -1.50346E+04 -1.78788E+03 -1.34038E+04  7.82588E+03 -1.19895E+04  8.84945E+03 -2.80031E+03
  6.02917E+03  2.47069E+03 -2.24442E+03  2.90884E+03 -1.02297E+03 -4.69911E+03  5.57542E+03 -9.80237E+03
  1.59182E+04 -7.40668E+03  2.01559E+04  4.84312E+03  2.09482E+04  1.25772E+04  1.18223E+04  2.80124E+04
 -7.26481E+03  2.97874E+04 -2.51224E+04  2.08123E+04 -3.23062E+04  2.04831E+03 -2.41796E+04 -1.06478E+04
 -1.37835E+04 -2.18806E+04 -5.33083E+02 -1.94326E+04  5.71638E+03 -1.18678E+04  6.08916E+03 -6.44729E+03
  6.26700E+03 -3.33772E+03  5.41091E+03 -4.89332E+03  6.90238E+03 -3.86495E+03  1.17661E+04 -1.91396E+03
  1.17984E+04  2.03112E+03  7.05741E+03  1.22933E+04 -2.12696E+03  1.71650E+04 -1.51022E+04  1.10226E+04
 -1.92600E+04 -1.01844E+03 -1.16135E+04 -1.20852E+04 -2.64612E+03 -2.23760E+04  8.77569E+03 -1.92331E+04
  2.20143E+04 -1.18920E+04  2.42295E+04  4.18338E+03  1.72341E+04  1.85566E+04  1.23015E+03  2.20653E+04
 -1.12545E+04  1.96320E+04 -1.37991E+04  7.68938E+03 -1.14055E+04 -1.15501E+03 -3.62167E+03 -2.70497E+03
 -1.96786E+03  3.39494E+02 -5.00198E+03  2.33816E+03 -8.21730E+03  2.33791E+03 -1.19238E+04 -7.55419E+02
 -9.59146E+03 -1.37738E+04  8.36806E+02 -2.05457E+04  1.14819E+04 -1.59151E+04  2.08944E+04 -6.67013E+03
  1.75887E+04  1.03892E+04  1.04365E+04  1.95086E+04 -2.36023E+03  1.85988E+04 -1.36380E+04  1.20878E+04
 -1.79520E+04  1.99496E+03 -1.33929E+04 -1.22205E+04  2.08528E+02 -1.80436E+04  8.83830E+03 -1.34765E+04
  1.23208E+04 -4.04783E+03  8.76759E+03  3.07327E+03  3.22963E+03  5.95285E+03  2.08983E+03  3.16177E+03
  3.42381E+03  8.92802E+02  5.91892E+03  2.60183E+03  5.90860E+03  7.33355E+03  3.04994E+03  1.11348E+04
 -5.39647E+03  1.59937E+04 -1.36151E+04  1.48733E+04 -2.15100E+04  4.34302E+03 -2.05075E+04 -1.11417E+04
 -1.22084E+04 -1.95595E+04  3.71017E+03 -2.32366E+04  1.39762E+04 -1.52234E+04  1.72329E+04 -3.96747E+03
  1.36716E+04  6.22905E+03  3.13541E+03  1.36184E+04 -6.59480E+03  6.17104E+03 -8.39430E+03 -1.70389E+03
 -4.80972E+03 -9.48999E+03  3.69917E+03 -1.01803E+04  7.00150E+03 -3.20859E+03  7.25695E+03  3.78595E+02
  6.95784E+03  5.38105E+03  1.66343E+03  3.04743E+03 -1.46006E+03  3.08847E+03  1.58708E+03 -4.49985E+02
  4.32013E+03 -1.56056E+03  8.79730E+03  3.90800E+03  5.74547E+03  1.21038E+04 -1.81316E+03  1.54394E+04
 -8.37679E+03  1.09731E+04 -1.30855E+04  4.38795E+03 -1.18786E+04 -2.65103E+03 -3.50013E+03 -7.68327E+03
  9.12924E+02 -9.26088E+03  6.45296E+03 -4.15555E+03  3.67490E+03  3.51553E+03 -3.72152E+03  9.04955E+03
 -8.50962E+03  3.41031E+03 -9.23630E+03 -4.35860E+03 -5.39391E+03 -1.13482E+04  3.04412E+03 -1.16564E+04
  9.09002E+03 -6.88899E+03  7.65878E+03 -1.33687E+03  8.52265E+03  3.02046E+03 -5.22393E+02  5.94206E+03
 -5.61696E+03  1.09053E+03 -5.36237E+03 -5.15858E+03  1.99962E+03 -8.68861E+03  9.99692E+03 -6.90055E+03
  1.56159E+04  2.47542E+03  1.25098E+04  1.27551E+04  3.85553E+03  1.53737E+04 -6.17312E+03  1.51840E+04
 -1.16469E+04  7.12145E+03 -1.16519E+04 -1.61505E+03 -7.60684E+03 -9.88530E+03  2.74901E+03 -1.12490E+04
  8.84426E+03 -3.86726E+03  8.14979E+03  5.12960E+03  3.07743E+03  1.03965E+04  2.19953E+02  6.76305E+03
 -2.95342E+03  2.85773E+03 -3.95082E+03  1.00300E+03 -9.93165E+02  2.74841E+03 -2.15271E+03  2.30880E+03
 -4.66602E+03  5.73414E+03 -8.77284E+03  4.70928E+03 -1.58211E+04 -1.61644E+03 -1.62960E+04 -1.15329E+04
 -7.89745E+03 -2.06097E+04  4.74619E+03 -2.36938E+04  1.47101E+04 -1.80521E+04  2.19228E+04 -8.38346E+03
  2.01191E+04  4.39367E+03  1.10924E+04  1.39953E+04  2.25381E+03  1.57806E+04 -6.87637E+03  1.21094E+04
 -7.24185E+03  5.99098E+03 -5.99578E+03 -2.30565E+03 -2.30102E+03 -2.49639E+03 -5.59499E+02 -2.11117E+03
 -2.55591E+03 -3.25626E+02 -3.68697E+03 -1.88077E+03  1.64531E+02 -2.93691E+03  8.75147E+02 -6.03298E+03
  5.95662E+03 -3.55158E+03  9.03429E+03 -2.17743E+03  1.06966E+04  9.52098E+03  1.86532E+03  1.58450E+04
 -6.75058E+03  1.78417E+04 -1.74836E+04  9.83004E+03 -1.95864E+04 -5.24766E+02 -1.29523E+04 -1.28756E+04
 -9.37918E+03 -1.50896E+04  2.69960E+03 -1.49072E+04  1.05696E+04 -7.43668E+03  1.18574E+04  2.41949E+02
  3.98483E+03  6.96778E+03 -3.13165E+02  5.15956E+03 -2.28737E+03  5.52665E+02  1.44610E+03 -4.21127E+03
  4.35961E+03 -1.33988E+03  5.97519E+03  2.04564E+03  5.00636E+03  5.78897E+03 -7.09531E+00  8.11114E+03
 -6.48133E+03  7.73929E+03 -1.25095E+04  8.74380E+02 -9.99618E+03 -8.76902E+03 -2.05515E+03 -1.39321E+04
  5.82966E+03 -1.27391E+04  1.37133E+04 -4.18447E+03  1.25148E+04  3.84046E+03  8.04808E+03  1.06585E+04
  1.33763E+02  1.18756E+04 -5.14138E+03  1.03149E+04 -6.83471E+03  3.62329E+03 -6.51211E+03 -8.97609E+02
 -3.25348E+03 -1.21981E+03 -2.72691E+03  3.46189E+02 -7.05972E+03  4.23212E+02 -9.16353E+03 -2.12830E+03
 -8.07812E+03 -6.29620E+03 -1.31417E+03 -1.43490E+04  3.82714E+03 -1.07598E+04  1.23932E+04 -5.55390E+03
  1.10697E+04  1.43160E+03  8.41671E+03  9.05651E+03 -1.34133E+03  1.03296E+04 -8.64980E+03  7.29023E+03
