 $NMID ID='MM_0lb_SNR200_17hz_g55_79.RAW', FMTDAT='(8E13.5)'
 TRAMP=1., VOLUME=1. $END
  3.09161E+05  1.20974E+02  3.37032E+05  2.49890E+05  8.32836E+04  3.38362E+05 -1.32044E+05  2.50345E+05
 -1.89318E+05  8.32640E+04 -1.11306E+05 -3.17853E+04  7.51501E+02 -4.95114E+04  5.37396E+04 -3.01159E+02
  3.60838E+04  5.17634E+04 -1.69415E+04  7.63430E+04 -6.05370E+04  6.28222E+04 -8.51215E+04  3.24965E+04
 -8.05793E+04 -1.12938E+04 -5.75613E+04 -5.12242E+04 -1.48504E+04 -6.85118E+04  2.70963E+04 -4.45791E+04
  3.97105E+04  3.44658E+03  1.45622E+04  4.78384E+04 -3.35561E+04  4.75345E+04 -6.53494E+04 -6.92850E+01
 -5.29361E+04 -5.62442E+04 -6.75243E+03 -7.67474E+04  3.38925E+04 -5.38706E+04  4.82975E+04 -1.71307E+04
  4.27212E+04  1.15107E+04  3.19550E+04  2.49660E+04  1.54657E+04  2.86860E+04 -5.46865E+03  2.67138E+04
 -2.14540E+04  1.16949E+04 -1.82187E+04 -4.90154E+03  4.39249E+03 -8.06575E+03  2.11200E+04  1.13657E+04
  6.73775E+03  3.43003E+04 -3.04130E+04  3.54307E+04 -6.22948E+04  1.03095E+03 -5.67424E+04 -4.30701E+04
 -1.28117E+04 -6.14527E+04  4.00626E+04 -4.50746E+04  5.72133E+04 -3.03049E+03  3.30205E+04  3.18960E+04
 -6.20731E+03  3.56958E+04 -2.86992E+04  1.54097E+04 -2.90569E+04 -4.82301E+03 -1.54474E+04 -9.94817E+03
 -6.85337E+03 -1.43768E+04 -3.75700E+02 -1.80296E+04  6.98799E+03 -2.30384E+04  1.60490E+04 -1.39715E+04
  1.16233E+04  5.02520E+03 -7.56747E+03  1.33181E+04 -2.04099E+04 -3.72161E+03 -8.80167E+03 -3.23896E+04
  2.18885E+04 -4.36042E+04  4.72677E+04 -1.85509E+04  4.35396E+04  1.95664E+04  1.58884E+04  4.41037E+04
 -1.59359E+04  3.41317E+04 -2.39167E+04  1.84877E+03 -9.26780E+03 -2.69810E+04  2.02156E+04 -3.19823E+04
  3.94014E+04 -8.44803E+03  3.45177E+04  2.28013E+04  1.69859E+04  4.42822E+04 -7.76350E+03  4.88375E+04
 -2.96630E+04  3.32976E+04 -4.00788E+04  7.99263E+03 -4.00801E+04 -1.71844E+04 -2.14115E+04 -3.60870E+04
  7.56371E+03 -3.56672E+04  3.01429E+04 -1.40384E+04  2.92338E+04  1.09506E+04  2.76296E+03  2.04152E+04
 -1.35055E+04  8.36181E+03 -9.72551E+03 -7.49475E+03  6.41695E+03 -1.04383E+04  1.70375E+04  6.57464E+03
  1.40534E+04  2.34319E+04 -6.61600E+03  2.44190E+04 -2.17578E+04  1.09272E+04 -2.78829E+04 -5.76740E+03
 -1.85417E+04 -1.68933E+04 -6.81991E+03 -1.86243E+04  3.29932E+03 -1.83778E+04  1.38596E+04 -1.69027E+04
  2.32880E+04 -1.25745E+04  3.15532E+04  1.62718E+03  2.32612E+04  1.80452E+04  4.44184E+03  3.54902E+04
 -1.72199E+04  3.00324E+04 -2.70246E+04  1.07369E+04 -1.93427E+04 -9.85978E+03 -4.05277E+03 -1.46368E+04
  2.31842E+03 -2.94494E+03 -3.99304E+03  7.10164E+03 -1.47886E+04  5.42128E+03 -1.47988E+04 -5.97442E+03
 -9.10241E+03 -1.73871E+04  4.11882E+03 -2.20354E+04  1.43744E+04 -1.61148E+04  1.59889E+04 -1.75549E+03
  1.03652E+04  1.25058E+04 -3.90761E+02  1.75178E+04 -1.13813E+04  9.47637E+03 -1.74740E+04 -2.98477E+03
 -1.26588E+04 -1.50770E+04 -1.89648E+03 -2.06398E+04  8.90879E+03 -1.70756E+04  1.79184E+04 -7.90402E+03
  1.70364E+04  1.92106E+02  1.17131E+04  3.75949E+03  6.36213E+03  1.15988E+02  7.93041E+03 -1.75626E+03
  1.43521E+04  2.18199E+03  1.64211E+04  1.37934E+04  1.07182E+04  2.79503E+04 -2.97976E+03  2.92777E+04
 -1.88166E+04  2.40157E+04 -2.84527E+04  1.09070E+04 -2.85587E+04 -2.55514E+03 -2.42000E+04 -1.73716E+04
 -1.04360E+04 -2.41893E+04  7.81222E+03 -2.19435E+04  1.95325E+04 -1.15688E+04  1.74984E+04  5.01072E+03
  6.74345E+03  1.30039E+04 -8.30268E+03  1.19429E+04 -1.50821E+04  3.97279E+02 -1.01317E+04 -8.42926E+03
 -2.39137E+02 -1.40862E+04  7.56616E+03 -1.01965E+04  9.55504E+03 -1.33988E+03  3.16805E+03  6.53004E+03
 -6.25980E+03  1.70648E+03 -4.48012E+03 -5.17810E+03  7.85297E+02 -1.17527E+04  9.95975E+03 -1.26814E+04
  1.48774E+04 -6.40406E+03  1.52855E+04  2.51617E+03  1.30287E+04  1.08280E+04  5.80684E+03  1.65908E+04
 -2.26202E+03  1.93758E+04 -1.17649E+04  1.07393E+04 -1.32344E+04  3.44834E+03 -9.36674E+03 -2.66935E+03
 -5.23278E+03 -5.06225E+03 -1.22259E+03  1.69094E+03 -2.45213E+03  2.79908E+03 -3.79857E+03  5.09359E+03
 -8.99272E+03 -1.02786E+03 -9.27507E+03 -8.79613E+03 -3.99039E+03 -1.26213E+04  3.91841E+03 -9.42690E+03
  8.53603E+03 -3.83142E+03  5.33129E+03  2.99880E+03 -2.72794E+01  3.63687E+03 -5.07964E+03 -1.51293E+02
 -4.69039E+03 -6.51799E+03 -7.68801E+02 -7.50463E+03  5.17721E+03 -9.76124E+03  1.19921E+04 -4.25043E+03
  1.41873E+04  1.15592E+03  9.79371E+03  7.20459E+03  3.22049E+03  1.16184E+04 -5.01857E+03  9.92001E+03
 -9.20050E+03  3.79730E+03 -3.69695E+03 -2.06895E+03  2.26964E+03 -2.34115E+03  4.96103E+03 -1.32141E+03
  5.61485E+03  3.30359E+03  8.49909E+02  7.18884E+03 -5.51335E+03  7.07527E+03 -9.74386E+03  1.23807E+03
 -4.85011E+03 -5.06643E+03  1.24939E+03 -7.73221E+03  5.11165E+03 -4.11229E+03  4.21503E+03  1.97564E+03
  1.77788E+03  3.62129E+03 -4.81286E+03  5.93040E+03 -5.78316E+03  3.47227E+03 -5.81480E+03 -1.54764E+03
 -3.71080E+03 -8.07897E+03  1.60376E+03 -8.62959E+03  6.89827E+03 -6.00039E+03  7.90510E+03  2.57380E+03
  5.15158E+03  6.11190E+03  1.15057E+03  9.64646E+03 -4.69097E+03  4.39920E+03 -6.74299E+03 -5.86533E+02
 -6.67474E+03 -5.75909E+03 -2.02917E+03 -6.22829E+03  2.79250E+03 -4.96972E+03  3.87590E+03 -1.38990E+03
  3.56597E+03  1.36582E+03  1.57475E+02  1.59206E+03 -4.44165E+02 -9.06230E+02  4.12718E+02 -2.50222E+03
  4.88980E+03 -1.31508E+03  6.62761E+03 -9.38247E+01  7.29562E+03  3.70024E+03  5.93109E+03  8.32292E+03
 -1.87382E+03  1.13662E+04 -8.79730E+03  8.32869E+03 -1.28752E+04  1.25775E+03 -9.73710E+03 -3.82032E+03
 -6.72581E+03 -7.68965E+03  1.49513E+02 -5.49903E+03  2.83643E+03 -1.91362E+03  1.64379E+03 -1.96003E+03
  1.38465E+03 -8.53826E+02  2.79996E+03 -2.51289E+03  3.93864E+03 -1.81466E+03  4.37727E+03 -5.05270E+02
  3.54128E+03  1.98555E+03  1.98846E+03  3.56217E+03 -1.98441E+03  3.60471E+03 -6.72058E+03  3.25983E+03
 -6.18575E+03 -7.39612E+02 -2.54555E+03 -3.68299E+03  1.25084E+03 -6.58916E+03  3.73682E+03 -6.43958E+03
  6.18799E+03 -3.52745E+03  8.69656E+03  7.66335E+02  5.79590E+03  6.02616E+03  2.20244E+02  7.41699E+03
 -4.19059E+03  6.68124E+03 -3.25296E+03  1.17822E+03 -2.30194E+03 -7.31255E+02 -1.53954E+03 -9.48585E+02
 -1.81575E+02  1.45264E+03 -7.97984E+02  2.73573E+03 -2.39707E+03  1.45370E+03 -4.09496E+03 -5.98558E+02
 -2.65851E+03 -4.51917E+03  8.16719E+02 -5.13281E+03  4.65289E+03 -4.87971E+03  4.20208E+03 -8.86691E+02
  4.54084E+03  3.79084E+03  1.98215E+03  4.65818E+03 -1.26797E+03  5.03895E+03 -3.44974E+03  4.26207E+03
 -5.64304E+03  5.53725E+02 -3.82991E+03 -3.59627E+03 -4.99515E+02 -3.11288E+03  2.04434E+03 -2.79348E+03
  3.45881E+03 -1.55308E+03  2.12893E+03 -8.48548E+02  3.85237E+01  2.47623E+03  2.08325E+03 -2.53886E+02
  8.28647E+02 -8.87658E+02  1.12949E+03  1.50388E+03  1.08802E+03  2.82252E+03  1.80341E+03  2.44141E+03
 -1.39132E+03  3.62039E+03 -2.04154E+03  4.18653E+03 -4.32527E+03  1.13074E+03 -5.14345E+03 -1.70338E+03
 -9.29506E+02 -4.72574E+03  2.28007E+03 -6.15354E+03  3.28042E+03 -3.31712E+03  4.61229E+03 -8.66471E+02
  2.49791E+03  3.02063E+03  1.34062E+03  3.02074E+03 -6.25751E+02  1.20551E+03 -6.10770E+02 -1.32341E+02
  2.47181E+02 -2.51351E+03  1.39768E+03 -1.26802E+03  2.56825E+03 -1.84459E+03  2.78152E+03  5.20724E+02
  4.99814E+02  1.91069E+02  3.05321E+01  1.21968E+02 -9.32701E+02  1.19267E+03  1.21048E+03 -2.45996E+01
 -1.54316E+02 -1.12319E+03  2.46994E+03 -5.55946E+01  1.74606E+03  1.22949E+03 -3.37382E+02  3.19405E+03
 -2.17836E+03  2.69410E+03 -2.18957E+03 -1.29670E+03 -2.98972E+03  2.74729E+02 -9.50861E+02 -5.80886E+02
  1.57793E+02 -1.50567E+03  1.69834E+03 -1.44019E+03  7.67157E+02  1.12063E+03 -3.95926E+01  1.85978E+03
 -2.30422E+03 -3.32558E+02 -2.01518E+03 -1.95126E+03 -5.87011E+01 -3.08597E+03  1.04597E+03 -8.97543E+02
  1.39595E+03 -1.25136E+03  1.89095E+03 -6.07070E+02  2.19964E+03 -1.97247E+02  1.11884E+03  1.35486E+03
 -6.01722E+02  1.13362E+03 -7.85357E+02 -3.26083E+02  1.04834E+03 -1.90293E+03  1.83326E+03 -1.26356E+03
  1.86479E+03 -7.45262E+02  3.79736E+03  2.78252E+02  9.56789E+02  2.70824E+03 -6.26695E+02  2.98276E+03
 -1.94273E+03 -3.04834E+02 -1.81388E+03 -1.00021E+03 -1.34418E+03 -2.23766E+03  2.39938E+02 -4.59663E+02
  1.20458E+03 -8.78051E+02  1.45408E+03  9.11349E+02  1.78375E+03  2.25652E+03 -5.51368E+01  1.48629E+03
 -1.02149E+03  1.10387E+03 -4.86191E+02  2.73792E+01 -2.63413E+02  1.00265E+03 -6.71467E+02  7.53581E+02
 -2.28229E+02  2.22036E+03 -1.91878E+03  5.11680E+02 -2.00997E+03  1.77752E+02 -4.22127E+03 -1.13064E+03
 -2.13651E+03 -3.23847E+03  1.45482E+02 -3.72737E+03  2.11977E+03 -2.93897E+03  3.14921E+03 -9.96485E+02
  3.22565E+03 -8.15719E+02  1.19323E+03  7.45400E+02 -8.46182E+02  2.25971E+03 -1.54947E+03  2.14694E+03
 -1.84786E+03  1.71873E+03  6.32743E+01 -1.17272E+03  5.38198E+02  5.18216E+02 -1.31716E+03  2.96558E+02
 -7.43505E+02  1.24961E+02 -5.75486E+02  5.46087E+02 -4.36827E+02 -6.36321E+02  2.19435E+02 -5.55607E+02
  2.31193E+03 -9.04804E+02  1.03155E+03  1.52641E+02  2.73543E+03  1.45448E+03  1.57481E+02  1.59769E+03
 -2.64576E+03  3.45519E+03 -1.05235E+03  1.39811E+03 -2.42849E+03 -8.46417E+00 -2.01253E+03 -1.75769E+03
 -1.25540E+03 -2.24955E+03  9.59577E+02 -2.63421E+03  1.78077E+03 -4.45256E+02  1.58708E+03  2.15636E+02
  9.02188E+02 -9.39582E+00  1.14752E+02  3.95720E+02 -7.85364E+02  5.86236E+02  7.29067E+02 -2.13458E+01
  2.33773E+02 -3.23990E+01  7.02071E+00  1.22561E+03  2.68298E+02  4.27184E+01 -5.95613E+02  1.43507E+03
 -1.23137E+03  6.32257E+02 -9.57468E+02  1.33863E+02 -9.82683E+02 -1.16678E+03 -5.62435E+02 -2.61277E+03
  2.50205E+01 -6.59168E+02  5.47450E+02  3.86726E+02  1.70214E+03 -4.18110E+02  2.19646E+03  1.75089E+03
 -1.05700E+02  1.78562E+03 -4.35785E+02  1.66895E+03 -8.41810E+02  6.56731E+02 -1.91587E+03 -3.29804E+02
  3.95742E+02 -1.83975E+02 -4.93454E+02 -2.37014E+02 -3.73303E+02 -6.82196E-01 -1.02158E+03  5.64592E+01
 -2.33192E+02 -8.24407E+01 -1.06415E+03 -1.13168E+03  1.14885E+03 -1.36928E+03  1.58167E+03 -9.32573E+02
  7.36225E+02 -6.37170E+02  3.96226E+02 -2.58109E+02  3.60924E+02  1.13225E+03 -6.49238E+02  9.12705E+02
