 $NMID ID='MM_0lb_SNR200_19hz_g50_53.RAW', FMTDAT='(8E13.5)'
 TRAMP=1., VOLUME=1. $END
  3.09092E+05  5.06799E+02  3.37532E+05  2.49721E+05  8.43706E+04  3.38123E+05 -1.32423E+05  2.50172E+05
 -1.89560E+05  8.24046E+04 -1.11554E+05 -3.31084E+04  1.34611E+03 -5.09477E+04  5.33986E+04 -2.82649E+02
  3.54581E+04  5.33153E+04 -1.70879E+04  7.48482E+04 -5.99617E+04  6.23535E+04 -8.34583E+04  3.24295E+04
 -8.00928E+04 -1.11319E+04 -5.68657E+04 -5.01930E+04 -1.54029E+04 -6.79491E+04  2.56574E+04 -4.60088E+04
  3.96135E+04  4.22831E+03  1.64293E+04  4.79138E+04 -3.37670E+04  4.59783E+04 -6.40523E+04  6.73460E+02
 -5.25162E+04 -5.65218E+04 -6.86122E+03 -7.46359E+04  3.26716E+04 -5.29546E+04  4.64871E+04 -1.72627E+04
  4.13758E+04  1.08397E+04  3.06298E+04  2.42794E+04  1.65796E+04  2.88072E+04 -4.57409E+03  2.65540E+04
 -2.15392E+04  1.26271E+04 -1.88140E+04 -4.21781E+03  4.57797E+03 -7.25475E+03  2.17047E+04  1.02967E+04
  6.24930E+03  3.41445E+04 -3.01496E+04  3.50883E+04 -6.05557E+04  1.95765E+03 -5.54901E+04 -4.21601E+04
 -1.22853E+04 -6.06781E+04  3.82886E+04 -4.21040E+04  5.49464E+04 -1.79281E+03  3.18492E+04  3.06139E+04
 -6.62982E+03  3.24037E+04 -2.84955E+04  1.36879E+04 -2.68601E+04 -6.09990E+03 -1.43488E+04 -9.50666E+03
 -7.05068E+03 -1.16661E+04 -1.05670E+03 -1.63485E+04  7.47183E+03 -2.28204E+04  1.58902E+04 -1.40781E+04
  1.23562E+04  4.80096E+03 -5.76965E+03  1.27915E+04 -1.82085E+04 -1.55300E+03 -8.05777E+03 -3.03636E+04
  2.10880E+04 -4.08335E+04  4.51022E+04 -1.83820E+04  4.24788E+04  1.85344E+04  1.46002E+04  4.01883E+04
 -1.54956E+04  3.05389E+04 -2.40823E+04 -3.59203E+02 -8.16950E+03 -2.62087E+04  2.01891E+04 -3.14234E+04
  3.85716E+04 -7.33183E+03  3.13802E+04  2.33590E+04  1.52852E+04  4.18368E+04 -7.52245E+03  4.51733E+04
 -2.82976E+04  3.04140E+04 -3.79066E+04  8.59010E+03 -3.89917E+04 -1.58220E+04 -2.04986E+04 -3.43419E+04
  6.71151E+03 -3.44510E+04  2.91445E+04 -1.30857E+04  2.69457E+04  1.02276E+04  3.33297E+03  1.66812E+04
 -1.34327E+04  7.32085E+03 -9.25026E+03 -7.08772E+03  6.04564E+03 -1.08410E+04  1.72388E+04  6.12307E+03
  1.13159E+04  2.08885E+04 -5.93921E+03  2.26601E+04 -2.18370E+04  8.90312E+03 -2.51495E+04 -6.10417E+03
 -1.76745E+04 -1.63140E+04 -5.80870E+03 -1.76904E+04  3.91440E+03 -1.49832E+04  1.25414E+04 -1.46270E+04
  2.12356E+04 -1.27138E+04  2.87205E+04  9.84077E+02  1.99092E+04  1.60663E+04  4.10609E+03  3.12458E+04
 -1.69168E+04  2.71567E+04 -2.61057E+04  1.03448E+04 -1.95029E+04 -1.06568E+04 -3.35168E+03 -1.44587E+04
  2.53673E+03 -4.43538E+03 -2.83446E+03  4.32922E+03 -1.30692E+04  5.72152E+03 -1.33925E+04 -4.95309E+03
 -1.01359E+04 -1.52254E+04  5.39241E+03 -1.97937E+04  1.19159E+04 -1.38085E+04  1.34568E+04 -1.68711E+03
  9.40385E+03  1.07130E+04 -9.02205E+02  1.53386E+04 -9.51949E+03  8.76806E+03 -1.59638E+04 -2.95500E+03
 -1.25191E+04 -1.33156E+04 -1.90755E+03 -1.80031E+04  8.65521E+03 -1.53581E+04  1.67965E+04 -6.95644E+03
  1.40044E+04  8.84985E+02  8.92230E+03  3.06605E+03  5.78181E+03  4.66497E+02  8.34956E+03 -1.51381E+03
  1.40041E+04  3.25767E+03  1.45693E+04  1.25386E+04  8.36031E+03  2.47513E+04 -2.91895E+03  2.62423E+04
 -1.54678E+04  2.05197E+04 -2.26652E+04  9.43015E+03 -2.45477E+04 -2.40903E+03 -2.16875E+04 -1.38487E+04
 -1.00879E+04 -2.07507E+04  7.33746E+03 -1.94800E+04  1.58908E+04 -1.15248E+04  1.52519E+04  3.27679E+03
  6.92619E+03  1.15995E+04 -6.32894E+03  1.04150E+04 -1.43264E+04  2.55063E+03 -1.03472E+04 -7.35603E+03
  7.07208E+00 -1.14752E+04  5.34296E+03 -9.32187E+03  7.84529E+03 -1.40211E+03  2.72103E+03  4.20480E+03
 -5.81501E+03  1.49746E+03 -3.12751E+03 -5.03880E+03  5.81062E+02 -9.77842E+03  8.38519E+03 -1.06848E+04
  1.21058E+04 -3.51011E+03  1.29513E+04  3.12257E+03  1.03862E+04  9.02818E+03  5.08035E+03  1.30885E+04
 -2.50241E+03  1.44488E+04 -9.09501E+03  1.02528E+04 -1.16826E+04  2.48226E+03 -8.07022E+03 -1.27512E+03
 -4.16525E+03 -2.92013E+03 -2.66072E+02  1.34601E+03 -1.99081E+03  2.49671E+03 -4.12468E+03  2.66017E+03
 -8.69435E+03  5.35890E+01 -9.06079E+03 -6.84962E+03 -3.63752E+03 -1.16153E+04  4.20683E+03 -8.27482E+03
  6.58602E+03 -4.31969E+03  5.40672E+03  1.65259E+03 -1.74424E+02  1.86833E+03 -2.64973E+03 -1.18220E+03
 -4.10039E+03 -4.93027E+03 -5.78447E+02 -6.18684E+03  3.85195E+03 -7.15330E+03  9.67366E+03 -4.39923E+03
  1.19308E+04  3.21894E+02  8.22966E+03  5.71617E+03  1.82360E+03  8.09145E+03 -4.72364E+03  7.22260E+03
 -6.36120E+03  2.75634E+03 -3.17997E+03 -1.56638E+03  2.11767E+03 -1.67482E+03  4.28948E+03 -1.34532E+03
  3.72487E+03  3.54635E+03  1.26152E+03  6.91765E+03 -4.86574E+03  5.96756E+03 -7.59092E+03  1.13817E+03
 -6.05978E+03 -3.63036E+03  3.26747E+02 -6.33449E+03  4.29214E+03 -2.03852E+03  3.01138E+03 -1.54396E+02
  3.20592E+02  2.07218E+03 -4.02007E+03  4.83352E+03 -4.63357E+03  1.60429E+03 -4.41516E+03 -9.80578E+02
 -1.33069E+03 -4.79731E+03  1.06243E+03 -6.20168E+03  5.25714E+03 -4.75600E+03  5.98770E+03  1.53140E+03
  5.53745E+03  4.95014E+03  4.55633E+02  6.98717E+03 -4.77852E+03  3.51404E+03 -5.38780E+03 -3.11876E+02
 -5.60267E+03 -5.15194E+03 -2.06443E+03 -4.63049E+03  1.68327E+03 -4.74323E+03  3.32540E+03 -3.72769E+03
  2.42207E+03 -2.10099E+02  1.06136E+03  2.24850E+03  6.47142E+02 -3.85691E+02  3.85267E+02 -1.97554E+03
  3.71499E+03  1.03864E+02  5.62156E+03  1.06061E+03  4.70579E+03  2.50159E+03  5.71681E+03  6.36610E+03
  4.78612E+02  7.43625E+03 -7.18441E+03  6.89098E+03 -9.26876E+03  6.99400E+02 -6.82857E+03 -2.82771E+03
 -3.57653E+03 -5.95947E+03 -4.47000E+02 -4.65788E+03  1.92048E+03 -2.37571E+03  2.58278E+03 -9.66729E+02
  1.25192E+03 -1.88166E+03  2.11491E+03 -1.55709E+03  3.00366E+03 -1.70632E+03  3.70589E+03  2.90745E+02
  3.83536E+03  7.10344E+02  1.87013E+03  2.22185E+03  5.71581E+02  2.69855E+03 -4.45946E+03  2.84845E+03
 -6.08795E+03 -1.90758E+03 -1.22786E+03 -3.08962E+03  9.55111E+01 -4.31557E+03  2.55439E+03 -4.81997E+03
  4.46525E+03 -3.35109E+03  6.36919E+03  1.74993E+02  4.00967E+03  3.50971E+03  1.27001E+03  5.75347E+03
 -1.76234E+03  5.75722E+03 -3.70783E+03  1.61973E+03 -2.39751E+03  2.90853E+02 -7.88300E+02 -1.06472E+03
 -1.18197E+03  2.95375E+02 -2.11444E+02  3.30701E+03 -2.80914E+03  1.71284E+03 -2.98469E+03  7.04314E+02
 -1.73127E+03 -3.65578E+03  1.20841E+02 -4.47914E+03  2.24665E+03 -4.05764E+03  3.00244E+03 -9.85039E+02
  3.35666E+03  2.88719E+03  1.21465E+03  3.79223E+03 -9.97976E+02  3.71328E+03 -2.78920E+03  2.08112E+03
 -4.78938E+03  3.88235E+02 -3.72726E+03 -2.52162E+03 -7.47470E+02 -3.11976E+03  1.79536E+03 -3.26325E+03
  3.34210E+03 -1.90794E+03  2.03927E+03  1.11459E+03  5.69373E+02  1.77200E+03  1.59957E+03  2.15243E+02
  2.04417E+03  4.52212E+02  1.19943E+03  1.82526E+03  1.46199E+03  2.07229E+03  1.55849E+03  1.61079E+03
 -1.39625E+03  1.95588E+03 -2.67066E+03  6.01322E+03 -3.57386E+03  1.09489E+02 -4.27790E+03  4.81022E+02
 -1.36089E+03 -2.98116E+03  4.65365E+02 -4.79344E+03  2.15820E+03 -2.62448E+03  3.96119E+03 -7.34894E+02
  2.89262E+03  2.35336E+03  6.10179E+02  2.18322E+03 -9.51274E+02  1.12496E+03 -9.97522E+02 -1.33338E+02
 -2.24936E+02 -1.23610E+03  2.06116E+03 -4.27445E+02  2.12004E+03 -1.93775E+03  3.44884E+02 -1.62277E+02
  1.93593E+03  1.03862E+03  4.97825E+02 -1.00640E+03 -1.89349E+02 -8.67254E+01  2.13771E+02 -2.87098E+02
 -8.11631E+02 -8.65650E+02  1.18980E+03  2.75322E+02  5.12328E+02  1.38904E+03 -3.96519E+02  2.58185E+03
 -1.38693E+03  7.06451E+02 -2.28724E+03  9.00123E+01 -2.59302E+03 -5.66414E+02  9.42018E+02 -3.39237E+02
 -2.68136E+02 -6.43931E+02  6.18558E+02 -8.90403E+02  8.85219E+02  2.41030E+03 -6.15376E+02  8.75380E+02
 -1.98457E+03  9.52433E+02 -5.01171E+02 -6.39529E+02 -3.99220E+02 -2.57542E+03  3.88660E+02 -2.87050E+03
  3.11833E+02  3.58158E+02  7.21261E+02 -2.37618E+02  7.83085E+02  1.15991E+03  9.80360E+01  7.34363E+02
 -6.17765E+02  5.28770E+01 -1.78078E+02 -2.94584E+01  7.40643E+02 -1.83694E+03  1.65547E+03 -2.47400E+03
  6.57695E+02 -1.93959E+02  2.58237E+03  2.19566E+03  6.83814E+02  1.80750E+03 -6.20521E+02  1.89335E+03
 -1.55991E+03  1.14391E+03 -1.13607E+03 -1.07226E+03  1.73812E+02 -4.98304E+02  4.59261E+02 -5.03035E+02
  5.14246E+02 -9.46129E+02  5.61377E+02  1.54372E+03 -4.06553E+02  1.44371E+03  1.45088E+03  4.22950E+02
 -3.54913E+02  1.23529E+03 -8.14206E+02 -3.37736E+02  1.45047E+02  6.89799E+02 -1.82167E+03  7.76442E+02
 -8.17732E+02  1.31540E+03 -1.27860E+03  1.25636E+03 -1.12361E+03 -1.06038E+02 -2.73417E+03 -2.23284E+02
 -2.57877E+03 -1.99012E+03  5.70141E+02 -2.94165E+03  1.29082E+03 -2.92241E+03  2.17119E+03 -1.81015E+03
  1.42757E+03 -5.96875E+02 -2.63755E+02  1.77970E+03 -1.66603E+03  7.53877E+02 -5.88396E+01  8.81183E+02
 -4.54269E+02  3.17367E+02 -4.41230E+02 -4.55092E+02 -4.07358E+02  3.67139E+02 -1.09190E+03 -4.49412E+02
 -1.76061E+03 -1.04020E+02 -5.64856E+02  4.43423E+02  6.77773E+02 -4.14527E+02 -3.00168E+02 -5.07746E+02
  1.80296E+03  9.25100E+02 -1.35857E+01 -1.74329E+02  1.36398E+02  9.75465E+02 -1.22700E+03  1.23307E+03
 -8.05786E+02  1.84404E+03 -1.64473E+03  2.50898E+03 -1.27635E+03 -1.07958E+03 -1.20651E+03 -2.14015E+02
 -7.11614E+02 -1.12769E+03  4.91158E+02 -1.52814E+03  1.08328E+03 -1.17299E+02  4.18511E+02 -1.91116E+02
  1.04169E+03 -1.12991E+03  8.03008E+02  3.86742E+02  1.55442E+02 -1.37451E+02  1.06493E+03 -6.89545E+02
  3.49072E+02 -3.16659E+02 -2.93354E+02  2.03886E+02 -2.90197E+01 -3.73438E+02  7.82183E+02  7.35351E+02
 -3.15092E+02  5.29592E+02 -1.14515E+02  1.81106E+02  1.04557E+02  8.85531E+02  7.02079E+02 -1.50339E+02
 -4.92756E+02 -5.64814E+02  9.92988E+02 -6.01736E+01  9.98621E+02 -2.47283E+02  1.22751E+03  1.40637E+03
  9.31596E+02  7.04659E+02 -2.47844E+02 -4.13127E+02 -2.94339E+02 -1.98893E+02  8.14591E+01  1.08035E+03
 -9.44666E+02  1.15251E+03 -5.94312E+02  1.39204E+03 -1.06666E+02  9.66389E+02  6.96771E+00 -3.12049E+02
  4.40154E+01  7.21671E+02 -1.19394E+03 -1.07995E+03  5.80994E+02 -1.13688E+03  1.14346E+03 -3.20138E+02
  8.61045E+02  6.62042E+02 -3.04129E+02  3.94702E+02  5.61316E+01  8.66365E+02 -4.56676E+00  7.50839E+02
