 $NMID ID='MM_0lb_SNR200_15hz_g55_19.RAW', FMTDAT='(8E13.5)'
 TRAMP=1., VOLUME=1. $END
  3.09631E+05  3.66265E+02  3.37905E+05  2.50584E+05  8.44777E+04  3.38263E+05 -1.32542E+05  2.50636E+05
 -1.90661E+05  8.28851E+04 -1.11601E+05 -3.31095E+04 -5.26620E+02 -5.10079E+04  5.42849E+04  4.83059E+02
  3.43820E+04  5.32876E+04 -1.70726E+04  7.54860E+04 -6.05370E+04  6.26689E+04 -8.43116E+04  3.27603E+04
 -8.06893E+04 -1.09005E+04 -5.65364E+04 -5.16786E+04 -1.57962E+04 -6.96307E+04  2.76682E+04 -4.58366E+04
  4.03575E+04  4.81411E+03  1.53585E+04  4.71487E+04 -3.47482E+04  4.65542E+04 -6.60464E+04 -4.40455E+02
 -5.42363E+04 -5.77280E+04 -8.02055E+03 -7.69442E+04  3.47599E+04 -5.55210E+04  4.78157E+04 -1.86911E+04
  4.26457E+04  1.17898E+04  3.10843E+04  2.52320E+04  1.37305E+04  2.98495E+04 -5.52189E+03  2.63954E+04
 -2.21804E+04  1.29044E+04 -1.94043E+04 -4.64651E+03  6.47196E+03 -9.28059E+03  2.26470E+04  1.14451E+04
  8.12926E+03  3.52896E+04 -3.19534E+04  3.59188E+04 -6.32711E+04  1.54885E+03 -5.68550E+04 -4.36914E+04
 -1.23597E+04 -6.30962E+04  3.94832E+04 -4.54361E+04  5.73624E+04 -2.72668E+03  3.34744E+04  3.23937E+04
 -5.85771E+03  3.61807E+04 -3.11452E+04  1.62279E+04 -2.91054E+04 -4.41209E+03 -1.80197E+04 -1.16803E+04
 -7.35813E+03 -1.17890E+04 -1.15358E+03 -1.72751E+04  7.90829E+03 -2.29763E+04  1.46562E+04 -1.37407E+04
  1.09649E+04  4.03394E+03 -8.47362E+03  1.32192E+04 -2.13871E+04 -4.58692E+03 -7.22261E+03 -3.29476E+04
  2.30130E+04 -4.40003E+04  4.78579E+04 -1.95136E+04  4.54535E+04  1.94820E+04  1.57163E+04  4.42470E+04
 -1.55806E+04  3.36470E+04 -2.60405E+04  1.52084E+03 -9.42865E+03 -2.76242E+04  2.16205E+04 -3.41364E+04
  4.16327E+04 -7.93629E+03  3.55719E+04  2.45562E+04  1.81548E+04  4.71919E+04 -7.71487E+03  5.08031E+04
 -3.10967E+04  3.30959E+04 -4.22877E+04  1.00521E+04 -4.23234E+04 -1.58488E+04 -2.26832E+04 -3.82546E+04
  6.89905E+03 -3.78883E+04  3.17706E+04 -1.48534E+04  2.89377E+04  1.01849E+04  3.66323E+03  1.96822E+04
 -1.38568E+04  7.62187E+03 -9.87858E+03 -7.64424E+03  4.48425E+03 -1.00918E+04  1.80122E+04  5.69439E+03
  1.33739E+04  2.15182E+04 -5.64800E+03  2.64404E+04 -2.34304E+04  1.14325E+04 -2.84487E+04 -4.26513E+03
 -2.01125E+04 -1.67857E+04 -8.53241E+03 -2.01105E+04  3.37791E+03 -1.82977E+04  1.64126E+04 -1.80161E+04
  2.67083E+04 -1.23219E+04  3.11021E+04  3.34790E+03  2.41742E+04  1.95406E+04  3.69724E+03  3.63081E+04
 -1.80489E+04  3.04989E+04 -2.65087E+04  1.11790E+04 -2.15555E+04 -1.08027E+04 -4.31718E+03 -1.23952E+04
  1.64138E+03 -3.45294E+03 -4.54327E+03  6.78815E+03 -1.63944E+04  4.68066E+03 -1.63297E+04 -5.08381E+03
 -8.21354E+03 -1.79681E+04  4.67599E+03 -2.21010E+04  1.57160E+04 -1.62569E+04  1.69197E+04 -1.99138E+03
  1.17149E+04  1.35736E+04 -1.04964E+03  1.80704E+04 -1.27509E+04  1.08734E+04 -1.79940E+04 -5.41880E+03
 -1.36359E+04 -1.70897E+04 -3.14581E+03 -2.19689E+04  1.03990E+04 -1.90725E+04  1.80525E+04 -9.45986E+03
  1.80038E+04  4.47523E+02  1.24957E+04  3.44493E+03  6.54615E+03  8.77312E+02  8.30777E+03 -1.54804E+02
  1.74092E+04  2.04822E+03  2.01231E+04  1.33451E+04  1.32219E+04  2.95310E+04 -2.79953E+03  3.36866E+04
 -2.05500E+04  2.65298E+04 -3.12325E+04  1.43711E+04 -3.20482E+04 -1.54450E+03 -2.71172E+04 -1.84124E+04
 -1.13609E+04 -2.77204E+04  9.20065E+03 -2.54702E+04  2.18388E+04 -1.17132E+04  1.85951E+04  4.92294E+03
  7.42545E+03  1.23802E+04 -8.29630E+03  1.25413E+04 -1.51000E+04  3.13306E+03 -1.25629E+04 -9.16031E+03
 -1.19910E+03 -1.56973E+04  7.94061E+03 -1.14106E+04  9.27463E+03 -3.97123E+02  2.58896E+03  6.31792E+03
 -7.36806E+03  2.85816E+03 -5.36350E+03 -5.75436E+03 -9.66085E+02 -1.25318E+04  1.00757E+04 -1.40727E+04
  1.73989E+04 -7.51584E+03  1.71024E+04  1.83425E+03  1.53735E+04  1.27342E+04  6.54351E+03  2.00029E+04
 -2.17051E+03  2.14859E+04 -1.39539E+04  1.34564E+04 -1.53697E+04  3.31808E+03 -1.09302E+04 -2.99120E+03
 -5.54081E+03 -5.48989E+03  3.14510E+02  1.85176E+02 -2.13253E+03  3.02910E+03 -4.55818E+03  4.34920E+03
 -1.00971E+04 -8.01311E+02 -1.15281E+04 -8.52596E+03 -2.61796E+03 -1.43634E+04  4.90743E+03 -1.06706E+04
  8.57441E+03 -3.96210E+03  7.22574E+03  3.80701E+03  8.77605E+02  3.58475E+03 -4.09582E+03  1.51498E+02
 -5.90947E+03 -6.72723E+03 -6.26088E+02 -1.05911E+04  4.81492E+03 -1.06460E+04  1.38802E+04 -5.94487E+03
  1.58389E+04  1.38065E+03  1.05486E+04  9.68667E+03  2.80527E+03  1.23136E+04 -6.50473E+03  1.10668E+04
 -8.72151E+03  3.90259E+03 -2.85352E+03 -1.86712E+03  1.71711E+03 -3.09555E+03  7.17871E+03 -7.62596E+02
  5.52660E+03  4.32505E+03  1.71833E+03  8.12694E+03 -4.93446E+03  8.65541E+03 -1.09411E+04  1.49152E+03
 -6.84657E+03 -5.20186E+03 -9.16812E+01 -9.40852E+03  5.44301E+03 -5.56784E+03  4.91094E+03  2.21131E+03
  1.41331E+03  5.63366E+03 -5.33745E+03  7.27275E+03 -8.01410E+03  3.34888E+03 -6.96029E+03 -1.54194E+03
 -4.72405E+03 -1.05122E+04  1.52512E+03 -1.14592E+04  9.07736E+03 -6.19364E+03  1.01334E+04  9.47164E+02
  6.34177E+03  7.17312E+03 -1.72213E+02  1.06602E+04 -7.12218E+03  3.66845E+03 -8.67956E+03 -1.48577E+03
 -8.21246E+03 -7.05038E+03 -1.82579E+03 -6.44847E+03  5.41201E+03 -6.70731E+03  3.43028E+03 -2.60380E+03
  3.38329E+03  1.10170E+03 -4.35613E+02  2.50661E+03 -9.19323E+02 -2.66484E+03  8.45716E+02 -4.12628E+03
  5.67172E+03 -2.06400E+03  8.56955E+03  8.96780E+02  1.02254E+04  5.07798E+03  6.46056E+03  1.16762E+04
 -2.81934E+03  1.30665E+04 -1.05136E+04  1.01567E+04 -1.56622E+04  2.32939E+03 -1.08990E+04 -3.99600E+03
 -6.35266E+03 -8.60195E+03  1.26340E+00 -7.72488E+03  2.01840E+03 -3.85129E+03  2.57563E+03 -3.41982E+03
  1.30479E+03 -3.45122E+03  3.24346E+03 -3.44599E+03  3.09218E+03 -2.09532E+03  4.79805E+03 -5.36140E+02
  6.05680E+03  2.28682E+02  1.90932E+03  5.18883E+03 -6.16243E+02  6.08593E+03 -7.30745E+03  5.63072E+03
 -8.47797E+03 -1.14422E+03 -3.94638E+03 -6.13654E+03  5.47140E+01 -8.29477E+03  5.40116E+03 -8.50165E+03
  8.77353E+03 -5.11221E+03  1.06021E+04  6.39163E+02  6.19972E+03  8.18780E+03  1.22410E+03  9.31212E+03
 -2.94296E+03  6.72879E+03 -3.98899E+03  2.92785E+03 -3.10756E+03 -1.29424E+03 -1.02924E+03 -6.92873E+02
 -1.43575E+03 -8.08576E+01 -2.41968E+03  3.07619E+03 -3.70464E+03  1.01902E+03 -5.94195E+03 -9.77908E+02
 -3.39180E+03 -6.06428E+03  1.75306E+02 -8.29672E+03  4.07521E+03 -6.10197E+03  6.96633E+03 -2.12801E+03
  6.72822E+03  4.12541E+03  3.04835E+03  5.83882E+03 -7.25887E+02  8.17728E+03 -5.62861E+03  4.85460E+03
 -6.39544E+03  1.59077E+02 -5.99975E+03 -4.04898E+03  2.68280E+01 -6.20330E+03  2.62506E+03 -4.33298E+03
  5.27571E+03 -2.28495E+03  4.68055E+03  8.62047E+02  1.20224E+03  1.42144E+03  1.42762E+03 -4.10873E+02
  2.67336E+03  3.23471E+02  2.73606E+03  1.25430E+03  1.77727E+03  2.87909E+03  1.83917E+03  3.47823E+03
 -1.40610E+03  4.53658E+03 -4.81850E+03  4.99204E+03 -7.19565E+03  8.88863E+02 -6.77375E+03 -5.32417E+02
 -3.63216E+03 -5.93276E+03 -4.05326E+02 -8.21690E+03  3.77495E+03 -4.77335E+03  5.89847E+03 -1.30558E+03
  3.73261E+03  2.58466E+03  7.31647E+02  5.26155E+03 -1.89791E+03  2.89040E+03 -2.52231E+03 -6.82347E+02
 -1.60023E+03 -2.39190E+03  1.28008E+03 -3.53387E+03  2.57606E+03 -4.42771E+02  2.95006E+03  7.10705E+02
  1.95983E+03  2.96182E+02  1.32145E+03 -7.89177E+02 -4.22515E+02 -2.64234E+02  1.47884E+03 -9.47865E+02
 -1.44552E+02 -3.80321E+02  3.61378E+03  2.39976E+03  1.05759E+03  3.19747E+03  2.62995E+02  4.14616E+03
 -4.02230E+03  2.85732E+03 -2.55518E+03  1.84827E+03 -2.53345E+03 -1.50523E+03 -5.42514E+02 -2.34601E+03
  7.01193E+01 -3.38917E+03  1.01525E+03 -5.59651E+02  1.22753E+03  2.03926E+03 -1.20466E+03  3.26142E+03
 -3.84137E+03  1.28603E+03 -3.49301E+03 -1.68083E+03 -1.74292E+03 -4.05914E+03  7.57709E+02 -3.16636E+03
  2.31641E+03 -1.64538E+03  2.80930E+03 -4.10451E+02  2.55546E+03  1.79069E+02  1.31900E+03  1.48962E+03
 -1.33644E+03 -5.55391E+01 -1.72266E+03 -1.14156E+03  7.90867E+02 -2.78231E+03  3.62848E+03 -2.46943E+03
  2.00232E+03 -3.51638E+02  2.77782E+03  2.35226E+03  8.56578E+02  3.50347E+03 -7.71160E+02  3.22713E+03
 -3.52220E+03  1.83094E+03 -2.45493E+03 -1.73269E+02 -2.05011E+03 -1.99370E+03  4.75680E+02 -1.51530E+03
  2.16328E+03 -2.13144E+03  1.89633E+03 -5.34815E+02  1.17236E+03  2.87669E+03  1.87919E+02  2.15230E+03
 -5.21070E+01  1.26572E+03 -1.06390E+03  1.25270E+03  2.14943E+02 -1.46890E+02 -1.66969E+03  5.16986E+02
 -1.05489E+03  2.15842E+03 -3.07811E+03 -1.81890E+02 -3.78071E+03  2.26985E+02 -3.92268E+03 -1.88135E+03
 -1.29177E+03 -5.23834E+03  1.27048E+03 -5.19270E+03  2.75852E+03 -3.54123E+03  5.90842E+03 -1.57039E+03
  5.67337E+03  5.24898E+02  2.24120E+03  2.04438E+03 -7.42883E+02  3.72387E+03 -1.82633E+03  2.49483E+03
 -1.26457E+03  1.71949E+03 -1.61915E+03 -5.69570E+02 -4.34946E+02 -2.90750E+02 -1.95957E+02 -1.34940E+03
 -1.42152E+03 -1.82972E+03 -1.41699E+03  4.04469E+02  1.58194E+03 -5.81809E+02 -1.26402E+03 -1.63049E+03
  2.25237E+03 -4.34873E+02  1.01449E+03  1.57193E+02  1.79991E+03  2.08226E+03 -6.05300E+02  2.81724E+03
 -2.33169E+03  4.41512E+03 -3.51520E+03  7.85600E+02 -3.13520E+03  5.90833E+02 -2.88764E+03 -2.92452E+03
 -1.29811E+03 -2.63056E+03  9.71874E+02 -3.05854E+03  1.74475E+03 -1.90275E+03  2.83215E+03  1.28775E+03
  5.27254E+02  1.48065E+03 -6.71563E+02  9.50460E+02 -8.43544E+02 -1.70216E+02 -4.80596E+02 -7.96544E+02
  9.09280E+02 -3.96631E+02 -4.02682E+01 -1.99124E+02  4.41120E+02  2.22044E+03  1.33393E+03  2.76642E+03
 -2.47399E+02  2.07978E+03 -1.90726E+03  5.58888E+02 -1.53716E+03 -1.62448E+03 -6.38400E+01 -3.11410E+03
  1.18767E+03 -2.20616E+03  2.05457E+03 -1.09727E+03  1.48663E+03 -5.17448E+02  4.19379E+02  9.67232E+02
  9.41295E+02  1.29180E+03 -1.29733E+03  1.86266E+03 -1.16158E+03  1.18104E+03 -6.15985E+02  2.88893E+02
 -1.13301E+03 -5.86907E+02 -1.57752E+02  7.15010E+01 -1.21705E+03  1.39930E+03 -2.26318E+03 -1.34294E+03
 -1.76151E+03  4.85278E+02 -4.15116E+02 -2.59152E+03  1.40583E+03 -3.21065E+03  2.31178E+03 -1.07370E+03
  1.53778E+03 -5.50892E+01  1.07870E+03  8.88603E+02  5.13200E+02  1.59191E+03 -1.30806E+03  1.10748E+03
