 $NMID ID='MM_0lb_SNR200_7hz_g40_11.RAW', FMTDAT='(8E13.5)'
 TRAMP=1., VOLUME=1. $END
  3.10786E+05 -1.74522E+01  3.38384E+05  2.50457E+05  8.46810E+04  3.37734E+05 -1.30530E+05  2.51389E+05
 -1.91442E+05  8.36775E+04 -1.14157E+05 -3.31628E+04  1.61780E+03 -5.15702E+04  5.29034E+04 -3.82370E+02
  3.71308E+04  5.31857E+04 -1.55599E+04  7.54814E+04 -6.20345E+04  6.40377E+04 -8.40814E+04  3.22068E+04
 -8.21704E+04 -1.38489E+04 -5.88587E+04 -5.22772E+04 -1.56113E+04 -7.10341E+04  2.85104E+04 -4.70592E+04
  4.27952E+04  5.25570E+03  1.67465E+04  5.02777E+04 -3.56334E+04  4.78845E+04 -6.87140E+04 -1.31613E+03
 -5.41592E+04 -5.94215E+04 -8.11511E+03 -7.85605E+04  3.40533E+04 -5.67864E+04  5.03590E+04 -1.86956E+04
  4.47639E+04  9.02374E+03  3.18989E+04  2.65795E+04  1.64693E+04  2.98096E+04 -6.31495E+03  2.75023E+04
 -2.40504E+04  1.22432E+04 -1.63511E+04 -6.04104E+03  8.75790E+03 -8.70029E+03  2.49249E+04  1.35825E+04
  8.19923E+03  3.69737E+04 -3.34902E+04  3.76282E+04 -6.59515E+04  2.49822E+03 -5.89373E+04 -4.59696E+04
 -1.34149E+04 -6.49709E+04  4.24916E+04 -4.95715E+04  6.19047E+04 -3.10635E+03  3.67909E+04  3.49022E+04
 -6.13647E+03  4.00069E+04 -3.11219E+04  1.98385E+04 -3.37430E+04 -3.73622E+03 -2.03134E+04 -1.29804E+04
 -7.97397E+03 -1.55928E+04 -1.02011E+03 -1.99741E+04  8.49587E+03 -2.27896E+04  1.71476E+04 -1.35683E+04
  9.56884E+03  5.16451E+03 -9.96327E+03  1.25978E+04 -2.26792E+04 -5.39658E+03 -8.71069E+03 -3.71331E+04
  2.62467E+04 -4.86232E+04  5.49503E+04 -2.15997E+04  4.86906E+04  2.12980E+04  1.56758E+04  4.83677E+04
 -1.71291E+04  3.67158E+04 -3.00711E+04  2.86382E+03 -1.27893E+04 -2.90202E+04  2.25989E+04 -3.82507E+04
  4.57442E+04 -1.14940E+04  4.19824E+04  2.58187E+04  2.12809E+04  5.16030E+04 -8.18724E+03  5.79121E+04
 -3.64885E+04  3.84759E+04 -4.83972E+04  1.25741E+04 -4.79864E+04 -1.70571E+04 -2.53227E+04 -4.33861E+04
  1.01178E+04 -4.50311E+04  3.57452E+04 -1.99846E+04  3.29004E+04  1.02311E+04  7.08843E+03  2.27683E+04
 -1.46011E+04  9.79033E+03 -1.15640E+04 -8.56897E+03  4.15245E+03 -1.23670E+04  2.01603E+04  6.91804E+03
  1.40025E+04  2.25468E+04 -5.40590E+03  2.86331E+04 -2.32052E+04  1.57284E+04 -3.07119E+04 -2.95658E+03
 -2.70138E+04 -1.97995E+04 -1.21378E+04 -2.45597E+04  5.88812E+03 -2.75706E+04  2.03266E+04 -2.47243E+04
  3.32853E+04 -1.42972E+04  3.84726E+04  6.34123E+03  2.94013E+04  2.58233E+04  5.31728E+03  4.22885E+04
 -2.14557E+04  3.51003E+04 -3.22920E+04  1.23186E+04 -2.35598E+04 -9.44471E+03 -6.74801E+03 -1.20535E+04
  4.56461E+02 -2.54168E+02 -1.04261E+04  8.56340E+03 -2.27869E+04  5.71085E+03 -2.12637E+04 -8.54663E+03
 -1.36718E+04 -2.39175E+04  6.10322E+03 -2.91123E+04  1.99077E+04 -2.05806E+04  2.26512E+04 -2.18154E+03
  1.49604E+04  1.73134E+04 -1.60701E+03  2.42727E+04 -1.87715E+04  1.45988E+04 -2.55627E+04 -5.25352E+03
 -1.91501E+04 -2.07986E+04 -1.44894E+03 -3.02802E+04  1.53377E+04 -2.60444E+04  2.51016E+04 -1.31305E+04
  2.39695E+04  4.24991E+02  1.57609E+04  5.75933E+03  8.54643E+03  2.36973E+03  1.37934E+04 -4.22290E+03
  2.56223E+04  2.67393E+03  2.79308E+04  1.84538E+04  2.01333E+04  4.08073E+04 -3.08056E+03  4.61394E+04
 -2.76408E+04  3.99485E+04 -4.57567E+04  2.11654E+04 -4.67905E+04 -4.15229E+03 -3.94424E+04 -2.76101E+04
 -1.60204E+04 -3.97014E+04  1.53391E+04 -3.53172E+04  3.09723E+04 -1.80848E+04  2.68079E+04  8.99887E+03
  7.87292E+03  1.93023E+04 -1.21329E+04  1.66424E+04 -2.17993E+04  1.85605E+03 -1.67744E+04 -1.24976E+04
  8.82329E+02 -2.13415E+04  1.13838E+04 -1.40671E+04  1.37217E+04  1.47974E+03  3.04930E+03  8.88135E+03
 -1.01459E+04  5.79998E+03 -1.06339E+04 -7.32845E+03 -3.54759E+03 -1.84901E+04  1.16418E+04 -2.11825E+04
  2.44886E+04 -1.25936E+04  2.73557E+04  2.31876E+03  2.37540E+04  2.14359E+04  1.03752E+04  3.19404E+04
 -6.51423E+03  3.30655E+04 -2.18064E+04  2.01216E+04 -2.50897E+04  4.87573E+03 -1.57783E+04 -6.40246E+03
 -7.19606E+03 -9.86177E+03 -1.90812E+03  2.04274E+03 -1.78317E+03  5.18022E+03 -7.96905E+03  5.26370E+03
 -1.64617E+04 -1.62760E+03 -1.54004E+04 -1.25531E+04 -4.90493E+03 -1.99532E+04  7.85249E+03 -1.68760E+04
  1.47492E+04 -6.58813E+03  8.89595E+03  5.70344E+03 -1.21190E+03  7.96911E+03 -8.47857E+03 -1.40365E+03
 -6.27051E+03 -1.08430E+04 -2.00641E+03 -1.45747E+04  9.98514E+03 -1.71859E+04  2.21655E+04 -1.17648E+04
  2.63998E+04  2.88178E+03  2.02526E+04  1.71089E+04  3.41879E+03  2.10988E+04 -9.61766E+03  1.66057E+04
 -1.46075E+04  6.00380E+03 -5.74032E+03 -3.86256E+03  2.39225E+03 -5.08546E+03  7.95237E+03 -6.54764E+02
  7.68824E+03  8.41524E+03  1.37707E+03  1.40819E+04 -9.65029E+03  1.29029E+04 -1.70757E+04  1.51882E+03
 -1.24467E+04 -9.89075E+03  2.73312E+03 -1.43527E+04  1.11588E+04 -8.61728E+03  8.33826E+03  3.76470E+03
  1.81868E+03  1.11994E+04 -9.52470E+03  1.32352E+04 -1.51088E+04  6.09425E+03 -1.62394E+04 -4.50971E+03
 -1.09891E+04 -1.91813E+04  4.12089E+03 -1.95152E+04  1.82041E+04 -1.01322E+04  1.91012E+04  4.57297E+03
  1.08597E+04  1.56407E+04 -1.40852E+03  1.87131E+04 -1.31838E+04  1.19988E+04 -1.50720E+04 -2.31140E+03
 -1.28685E+04 -1.24972E+04 -1.94472E+03 -1.34348E+04  7.43246E+03 -9.54596E+03  8.54579E+03 -3.97303E+03
  6.11017E+03  1.98712E+03 -1.98073E+03  1.02202E+03 -1.02715E+03 -5.08862E+03  3.21437E+03 -9.01171E+03
  1.23926E+04 -8.61573E+03  1.90192E+04  2.06222E+03  1.93960E+04  1.19514E+04  1.22491E+04  2.40164E+04
 -4.97723E+03  2.69555E+04 -2.18961E+04  2.12661E+04 -3.06153E+04  2.73563E+03 -2.21991E+04 -1.15781E+04
 -1.13107E+04 -2.12074E+04  2.47858E+03 -1.63239E+04  5.53798E+03 -1.04107E+04  6.35930E+03 -6.34287E+03
  5.82845E+03 -6.21907E+03  1.95152E+03 -3.80027E+03  5.98189E+03 -3.85014E+03  9.76204E+03 -1.89319E+03
  1.25610E+04  2.80129E+03  6.01466E+03  9.76270E+03 -2.20625E+03  1.24275E+04 -1.30433E+04  1.00402E+04
 -1.46048E+04 -1.08948E+03 -1.07527E+04 -1.15873E+04 -1.23372E+03 -2.00386E+04  9.96977E+03 -1.98010E+04
  2.02337E+04 -1.06296E+04  2.34983E+04  3.62002E+03  1.71795E+04  1.58540E+04  2.65069E+03  2.22381E+04
 -9.71194E+03  1.51031E+04 -1.29878E+04  3.56323E+03 -6.94165E+03 -2.79632E+03 -3.45624E+03 -2.35203E+03
 -2.72730E+03 -5.17435E+02 -2.33651E+03  3.88584E+03 -7.94499E+03  3.40319E+03 -1.13660E+04 -1.32252E+03
 -7.92002E+03 -1.20679E+04 -4.84768E+02 -1.86263E+04  1.11143E+04 -1.70935E+04  1.78648E+04 -6.02065E+03
  1.72948E+04  8.92389E+03  7.71249E+03  1.72542E+04 -4.41176E+03  1.97569E+04 -1.35932E+04  1.19604E+04
 -1.60264E+04  6.75594E+02 -1.23390E+04 -1.05109E+04 -1.24040E+03 -1.65508E+04  9.17616E+03 -9.19086E+03
  1.13596E+04 -4.05976E+03  9.66063E+03  3.74529E+03  3.49007E+03  5.05254E+03  1.92402E+03  4.55626E+03
  4.58886E+03  2.57196E+03  3.16650E+03  2.12032E+03  6.60342E+03  7.55980E+03  3.80387E+03  9.91009E+03
 -1.76673E+03  1.29171E+04 -1.13232E+04  1.43461E+04 -1.72332E+04  3.38036E+03 -1.87429E+04 -5.64210E+03
 -9.55637E+03 -1.85079E+04  3.23080E+03 -1.96675E+04  1.20538E+04 -1.07899E+04  1.57395E+04 -3.13031E+03
  1.20555E+04  8.18329E+03  1.51757E+03  9.79391E+03 -6.46171E+03  6.10323E+03 -5.79601E+03 -4.86395E+02
 -4.41402E+03 -6.45047E+03  5.13056E+03 -7.95861E+03  7.39806E+03 -3.91522E+03  6.65395E+03 -5.07182E+02
  3.77250E+03  3.96199E+03  1.05251E+03  3.97239E+03 -2.31789E+03  1.61798E+03  1.27654E+03 -3.58642E+02
  2.74377E+03 -1.12466E+02  7.65461E+03  7.97111E+02  4.62007E+03  1.10049E+04 -5.68090E+02  1.22693E+04
 -7.03291E+03  7.99133E+03 -1.32150E+04  3.26716E+03 -1.13936E+04 -4.78838E+03 -4.53570E+03 -8.65331E+03
  6.51083E+02 -7.81022E+03  5.23755E+03 -3.46611E+03  2.58081E+03  3.53640E+03 -1.52428E+03  7.29370E+03
 -6.71624E+03  5.67124E+03 -8.88137E+03 -4.33625E+03 -5.36056E+03 -9.67177E+03  1.12777E+03 -9.72878E+03
  6.08548E+03 -8.16815E+03  7.84783E+03 -2.05240E+03  4.98099E+03  3.34822E+03  2.24127E+03  3.99800E+03
 -2.30653E+03 -2.98617E+02 -4.62815E+03 -1.69610E+03  9.22469E+02 -8.10125E+03  9.17436E+03 -6.22074E+03
  1.34900E+04  1.73730E+03  1.15260E+04  9.11446E+03  3.78429E+03  1.47156E+04 -4.45377E+03  1.22404E+04
 -1.13619E+04  7.01709E+03 -1.26068E+04 -2.10942E+03 -7.66582E+03 -7.26411E+03  3.49341E+03 -7.61214E+03
  8.56610E+03 -3.99747E+03  8.00346E+03  3.57829E+03  2.20510E+03  7.12462E+03 -1.29449E+03  6.28530E+03
 -2.61928E+03  4.20951E+03 -3.78073E+03  3.25372E+03 -2.64363E+03  2.64993E+03 -5.36462E+02  1.95876E+03
 -3.85386E+03  4.83623E+03 -8.05831E+03  4.25740E+03 -1.32210E+04 -9.27316E+00 -1.43238E+04 -1.07614E+04
 -7.49272E+03 -1.57788E+04  2.53943E+03 -1.96984E+04  1.40047E+04 -1.56401E+04  1.96999E+04 -5.20639E+03
  1.64179E+04  2.89229E+03  9.70206E+03  1.15779E+04  1.43820E+03  1.47089E+04 -6.16404E+03  9.88975E+03
 -7.69875E+03  4.67071E+03 -5.08785E+03 -1.61498E+03 -1.33412E+03 -1.12906E+03 -8.26332E+02  1.51076E+03
 -1.12974E+03  1.19249E+03 -3.32131E+03 -1.59028E+03 -9.44813E+02 -2.54459E+03 -1.99929E+02 -4.36203E+03
  5.94117E+03 -6.13993E+03  9.67948E+03  6.26624E+02  1.01610E+04  8.21594E+03  3.07915E+03  1.39055E+04
 -7.16180E+03  1.52228E+04 -1.54900E+04  1.01753E+04 -1.76431E+04 -1.44991E+03 -1.39442E+04 -1.02222E+04
 -4.79797E+03 -1.52650E+04  3.53359E+03 -1.32440E+04  9.06477E+03 -8.07631E+03  8.47947E+03  2.00342E+03
  4.53091E+03  6.65389E+03  2.09788E+02  4.64655E+03 -1.89419E+03  5.30234E+02  1.39442E+01 -3.42069E+03
  3.34542E+03 -2.47608E+03  6.22940E+03  9.73793E+02  3.91889E+03  4.18179E+03  3.08208E+02  7.73429E+03
 -6.22974E+03  7.18623E+03 -9.85641E+03  7.06278E+02 -1.00185E+04 -4.71947E+03 -2.14321E+02 -1.26371E+04
  6.54596E+03 -1.08781E+04  1.04071E+04 -3.32678E+03  1.07023E+04  3.17789E+03  8.08268E+03  9.58451E+03
  4.04964E+02  9.56757E+03 -2.67185E+03  8.99129E+03 -6.22914E+03  3.81336E+03 -2.95721E+03  1.27558E+03
 -3.81849E+03 -7.94688E+02 -2.24876E+03  1.80287E+02 -6.49465E+03  1.42039E+03 -8.33487E+03 -1.01253E+03
 -7.31440E+03 -5.07736E+03  1.01946E+03 -9.50047E+03  4.55680E+03 -9.13325E+03  8.66207E+03 -4.58549E+03
  1.03418E+04  1.67446E+03  4.54734E+03  6.20625E+03 -2.79367E+02  9.92536E+03 -9.03104E+03  6.27512E+03
