 $NMID ID='MM_0lb_SNR200_18hz_g60_48.RAW', FMTDAT='(8E13.5)'
 TRAMP=1., VOLUME=1. $END
  3.09767E+05  4.54670E+01  3.37476E+05  2.50977E+05  8.47168E+04  3.37734E+05 -1.32269E+05  2.50615E+05
 -1.91102E+05  8.33606E+04 -1.11992E+05 -3.24681E+04  8.04665E+02 -5.11308E+04  5.33225E+04  7.02854E+02
  3.47599E+04  5.28364E+04 -1.56564E+04  7.50899E+04 -6.09556E+04  6.29143E+04 -8.41531E+04  3.23466E+04
 -7.98139E+04 -1.18906E+04 -5.71731E+04 -5.12526E+04 -1.44457E+04 -6.91646E+04  2.65934E+04 -4.53465E+04
  3.96067E+04  4.49686E+03  1.67560E+04  4.82581E+04 -3.39863E+04  4.74039E+04 -6.61226E+04  3.71402E+02
 -5.40058E+04 -5.53878E+04 -5.95759E+03 -7.62668E+04  3.27283E+04 -5.59448E+04  4.87522E+04 -1.67493E+04
  4.29587E+04  1.04970E+04  3.18936E+04  2.51002E+04  1.60928E+04  2.87714E+04 -5.56026E+03  2.73663E+04
 -2.20690E+04  1.23715E+04 -1.98526E+04 -5.59241E+03  4.59117E+03 -8.52425E+03  2.32965E+04  1.12821E+04
  7.30903E+03  3.31114E+04 -3.17704E+04  3.50367E+04 -6.32034E+04  1.69857E+03 -5.71403E+04 -4.22121E+04
 -1.30780E+04 -6.26279E+04  3.91762E+04 -4.44908E+04  5.64431E+04 -2.33682E+03  3.33537E+04  3.13918E+04
 -5.61516E+03  3.52155E+04 -2.92678E+04  1.66615E+04 -2.95084E+04 -4.50376E+03 -1.46423E+04 -1.07314E+04
 -8.23145E+03 -1.35424E+04 -1.33236E+03 -1.61861E+04  7.49556E+03 -2.30533E+04  1.47013E+04 -1.22769E+04
  1.26900E+04  5.22965E+03 -8.26139E+03  1.34927E+04 -2.09709E+04 -3.45423E+03 -7.74679E+03 -3.20126E+04
  2.18075E+04 -4.18869E+04  4.61056E+04 -1.79104E+04  4.32786E+04  1.85948E+04  1.46516E+04  4.37069E+04
 -1.66482E+04  3.20515E+04 -2.50505E+04  1.26585E+03 -1.04436E+04 -2.82083E+04  1.99457E+04 -3.39686E+04
  3.97765E+04 -7.42823E+03  3.37771E+04  2.30580E+04  1.71777E+04  4.57297E+04 -7.77920E+03  4.79428E+04
 -2.84065E+04  3.12665E+04 -4.11484E+04  8.46038E+03 -4.05647E+04 -1.54670E+04 -2.22406E+04 -3.59386E+04
  7.35145E+03 -3.51103E+04  3.06669E+04 -1.45924E+04  2.80559E+04  1.09845E+04  4.28858E+03  1.98914E+04
 -1.35414E+04  8.70597E+03 -9.81232E+03 -6.49515E+03  5.19902E+03 -1.06765E+04  1.69456E+04  6.74134E+03
  1.27617E+04  2.04739E+04 -5.88861E+03  2.34191E+04 -2.06680E+04  9.59120E+03 -2.69987E+04 -5.80240E+03
 -1.83766E+04 -1.68841E+04 -7.64090E+03 -1.88283E+04  3.19526E+03 -1.74780E+04  1.45286E+04 -1.67589E+04
  2.40025E+04 -1.34472E+04  3.17807E+04  2.52244E+03  2.28876E+04  1.83110E+04  4.32919E+03  3.56295E+04
 -1.79021E+04  2.81087E+04 -2.60222E+04  9.90862E+03 -2.09075E+04 -1.11977E+04 -3.93427E+03 -1.38975E+04
  2.16540E+03 -2.15440E+03 -3.73028E+03  6.04440E+03 -1.44767E+04  5.90081E+03 -1.48275E+04 -5.88776E+03
 -1.05429E+04 -1.67633E+04  5.25569E+03 -2.11131E+04  1.37285E+04 -1.44075E+04  1.63680E+04 -2.50098E+03
  1.08141E+04  1.19698E+04 -9.83594E+02  1.81369E+04 -1.25550E+04  1.03533E+04 -1.75191E+04 -3.27499E+03
 -1.15300E+04 -1.54625E+04 -1.56792E+03 -2.09438E+04  9.62016E+03 -1.71278E+04  1.76082E+04 -8.98217E+03
  1.62207E+04  1.00286E+03  1.22999E+04  3.77977E+03  6.62676E+03  9.12059E+02  8.34883E+03 -5.73893E+02
  1.52574E+04  3.43462E+03  1.60894E+04  1.34321E+04  1.18196E+04  2.71634E+04 -3.04649E+03  2.93957E+04
 -1.72693E+04  2.36304E+04 -2.78610E+04  1.22768E+04 -2.78080E+04 -1.57260E+03 -2.42652E+04 -1.71970E+04
 -1.11486E+04 -2.36677E+04  7.72696E+03 -2.20615E+04  1.81481E+04 -1.24640E+04  1.54570E+04  5.12865E+03
  6.07925E+03  1.31902E+04 -7.73491E+03  1.19099E+04 -1.46728E+04  1.99395E+03 -1.26597E+04 -8.64337E+03
  6.18666E+02 -1.37152E+04  6.37559E+03 -1.06708E+04  9.84165E+03 -1.97197E+03  1.54317E+03  5.77040E+03
 -5.20058E+03  1.32856E+03 -4.64213E+03 -4.76628E+03  1.15098E+03 -1.09250E+04  8.08643E+03 -1.18854E+04
  1.42023E+04 -6.06529E+03  1.43657E+04  1.99262E+03  1.23222E+04  1.01847E+04  5.87700E+03  1.62016E+04
 -2.38723E+03  1.78378E+04 -1.18890E+04  1.20422E+04 -1.42482E+04  3.97867E+03 -8.80202E+03 -2.09506E+03
 -5.29174E+03 -3.94026E+03 -1.09379E+03  2.07753E+03 -2.61321E+03  2.27649E+03 -3.71069E+03  4.02242E+03
 -8.54651E+03  3.84685E+02 -9.58351E+03 -9.00267E+03 -4.04480E+03 -1.27714E+04  4.54368E+03 -9.04754E+03
  8.99237E+03 -3.63465E+03  6.40678E+03  1.39026E+03  9.53037E+02  3.32037E+03 -5.23221E+03  2.37372E+02
 -3.61877E+03 -6.18514E+03 -1.00623E+03 -7.44716E+03  3.76591E+03 -8.55567E+03  1.05354E+04 -3.98398E+03
  1.33350E+04  6.65720E+02  9.60732E+03  8.74897E+03  9.57420E+02  8.98159E+03 -4.86933E+03  8.97629E+03
 -7.99074E+03  2.35477E+03 -4.63208E+03 -2.05803E+03  1.29729E+03 -1.34612E+03  5.58932E+03 -7.32541E+02
  4.31925E+03  4.21635E+03  1.05870E+03  7.04129E+03 -5.68537E+03  6.07210E+03 -8.06535E+03  2.02296E+03
 -4.75054E+03 -4.34538E+03  1.84283E+02 -7.61327E+03  3.97831E+03 -3.85952E+03  3.52704E+03  1.17441E+03
  1.18835E+03  3.85127E+03 -4.30411E+03  4.98987E+03 -5.20232E+03  2.73731E+03 -6.23876E+03 -1.79685E+03
 -3.62569E+03 -6.63495E+03  1.76017E+03 -8.65884E+03  7.46837E+03 -6.13204E+03  7.08074E+03  1.25539E+03
  4.60628E+03  6.18275E+03  7.88940E+02  8.37701E+03 -5.41396E+03  4.47138E+03 -5.95352E+03  7.61623E+01
 -5.24613E+03 -5.81735E+03 -9.15329E+02 -6.48480E+03  3.27414E+03 -5.43540E+03  4.18239E+03 -1.67833E+03
  3.47477E+03  5.67770E+02  4.91646E+02  1.36615E+03  4.30319E+02 -2.09258E+02  1.17124E+03 -2.33364E+03
  5.48836E+03 -2.24396E+03  5.11833E+03  9.27546E+02  6.14729E+03  4.03723E+03  6.23960E+03  8.04814E+03
 -1.94146E+03  9.41166E+03 -9.01791E+03  7.07276E+03 -1.18422E+04  1.46268E+03 -7.87217E+03 -3.73688E+03
 -4.58399E+03 -8.35388E+03 -2.04628E+02 -4.48908E+03  2.11691E+03 -2.58939E+03  2.50906E+03 -2.74951E+03
  3.02655E+03 -1.17126E+03  2.83657E+03 -2.45365E+03  4.06828E+03 -8.80571E+02  3.62742E+03  4.79404E+02
  5.64785E+03  3.42768E+02  2.26190E+03  3.81825E+03 -1.58790E+03  3.59903E+03 -3.96923E+03  3.27335E+03
 -5.05552E+03 -4.65952E+02 -2.10088E+03 -3.95580E+03  1.29357E+03 -5.77664E+03  2.94818E+03 -6.56545E+03
  7.03714E+03 -4.45991E+03  7.30459E+03  3.33964E+02  5.23383E+03  4.72471E+03  1.46161E+03  7.02282E+03
 -2.18489E+03  6.77009E+03 -4.44812E+03  1.67817E+03 -2.77315E+03 -9.35074E+02 -1.48169E+02 -3.02334E+02
  2.01773E+02 -4.27591E+02 -1.36831E+03  3.18827E+03 -3.16906E+03  2.74957E+02 -2.96396E+03 -3.75679E+02
 -1.27687E+03 -3.85910E+03 -3.29735E+02 -5.75645E+03  2.06814E+03 -4.31140E+03  3.96151E+03 -6.49317E+02
  4.04204E+03  2.08372E+03  1.96018E+03  3.99661E+03 -8.86144E+02  4.29755E+03 -3.64457E+03  2.89037E+03
 -5.01502E+03 -1.35315E+02 -3.54247E+03 -3.71569E+03 -7.38676E+02 -4.63741E+03  1.62692E+03 -3.39916E+03
  2.84994E+03 -8.97957E+02  2.85354E+03  1.67045E+01  1.11261E+03  7.16526E+02  1.26838E+03  1.27039E+03
  1.77807E+03 -6.50072E+01  1.39234E+03  1.88524E+03  1.35321E+03  2.26418E+03 -1.69281E+02  2.08194E+03
 -1.18226E+03  2.96428E+03 -2.95428E+03  3.82688E+03 -4.36710E+03  2.14686E+03 -4.63832E+03 -7.94021E+02
 -1.57947E+03 -4.32059E+03  8.72755E+02 -5.78010E+03  3.57824E+03 -3.64505E+03  3.84877E+03 -4.56308E+02
  3.55463E+03  2.43742E+03 -1.07266E+02  2.30186E+03 -9.40122E+02  1.83648E+03 -7.27226E+02 -1.27888E+03
 -1.37131E+03 -1.72446E+03  1.06834E+03 -6.20994E+02  3.40948E+02 -4.95790E+02 -4.83297E+02  5.30539E+02
  7.28686E+02 -1.21665E+03  1.14334E+03  5.29600E+02 -7.64114E+02  1.30822E+03  1.86153E+03  2.49352E+02
 -5.53970E+02  5.31124E+02  2.09989E+03  3.46288E+02  1.13731E+03  3.09103E+03 -4.25747E+02  3.62585E+03
 -2.00596E+03  1.57314E+03 -2.31059E+03  5.33695E+01 -2.24059E+03 -1.10811E+03  1.31257E+02 -1.48155E+03
  5.49134E+00 -1.44507E+03  7.00076E+02 -6.61087E+02 -1.43978E+02  2.55593E+03 -2.35421E+02  6.84390E+02
 -2.45234E+03 -4.52373E+01 -2.82248E+01 -1.79937E+03 -1.32795E+03 -1.88170E+03  2.86561E+02 -2.61016E+03
 -6.73914E+01 -1.29010E+03  2.21909E+03  1.13246E+02  8.57717E+02 -2.17220E+02  3.99515E+02  1.16679E+03
  4.03933E+02 -3.98007E+02 -1.80691E+03 -6.60166E+02 -2.08619E+02 -1.82255E+03  2.13174E+03 -1.86834E+03
  1.52079E+03  5.49538E+02  2.64764E+03  1.29245E+03  1.32675E+03  1.58312E+03 -1.18084E+03  1.73006E+03
 -2.23126E+03 -4.98711E+01 -2.08440E+03  1.90249E+02 -1.55807E+03 -1.61038E+03 -9.96999E+01 -8.04887E+02
  2.02040E+03 -5.82454E+02 -1.40229E+02  1.22283E+03  6.28493E+02  8.69012E+02  4.03877E+02  3.00608E+02
 -3.73691E+01  1.99068E+02  4.59937E+02 -1.72213E+02 -9.54733E+02  9.10644E+02 -1.89474E+02  4.48838E+02
 -1.05792E+02  3.21069E+02 -2.25808E+03  5.64991E+02 -2.45488E+03  1.11236E+01 -2.25715E+03 -1.30411E+03
 -1.46817E+03 -3.73562E+03  1.57566E+03 -3.86258E+03  1.43408E+03 -2.93084E+03  2.57674E+03 -4.33250E+02
  2.61822E+03  1.29948E+03  7.02515E+02  2.19395E+03 -1.08261E+03  1.68658E+03 -9.81224E+02  1.39749E+03
 -9.40930E+02  1.84752E+03 -3.34034E+02 -9.13733E+02 -1.23614E+03  3.36399E+02  1.87849E+02 -4.33162E+02
 -6.84254E+02  2.94129E+02 -2.03158E+03  1.01441E+02 -3.10005E+02 -2.32094E+03  1.38033E+02 -8.43371E+02
  1.32204E+03 -3.03055E+02  4.57038E+02 -4.92201E+02  1.81115E+03  1.51147E+03 -6.23691E+02  1.57340E+03
  4.01100E+02  1.77165E+03 -2.41862E+03  1.46021E+03 -2.81314E+03 -4.92523E+02 -4.66816E+02 -1.77898E+03
 -1.47619E+03 -2.82031E+02  8.09581E+02 -1.40980E+03  1.25983E+03  4.88333E+02  8.17687E+02  5.52986E+01
  7.19227E+02  1.15333E+03  1.00614E+03  3.81952E+02 -2.78433E+02  1.26779E+02 -1.00509E+03 -1.34707E+03
  1.94475E+03  4.03249E+02 -1.47706E+02  1.07550E+03  1.20246E+03  1.63909E+02  1.28291E+02  4.79643E+02
 -7.54193E+02  8.85637E+02 -2.67773E+02  4.48152E+02 -3.49535E+02 -4.83792E+02  1.54496E+03 -5.67475E+00
  9.96064E+02 -6.37982E+01  8.98477E+02  4.04266E+01  1.55314E+03 -9.67505E+02  1.80795E+02  1.03970E+03
  4.73813E+02  1.27225E+03  7.94978E+02  8.85666E+02 -3.87894E+02 -2.70332E+02  2.21959E+02  5.81215E+02
 -5.55687E+02 -7.92243E+02 -2.19004E+02  1.11209E+03 -1.24283E+03  1.17700E+03 -6.04379E+02 -8.43995E+02
 -1.68706E+03  4.95249E+02 -4.73776E+02  4.20274E+02  2.75676E+02 -8.72251E+02  2.49751E+02  8.95470E+02
  8.49406E+02  3.23488E+02 -6.01468E+02  3.31587E+02 -6.38108E+02 -1.79546E+02 -1.69583E+02  1.27141E+03
