 $NMID ID='MM_0lb_SNR200_17hz_g60_27.RAW', FMTDAT='(8E13.5)'
 TRAMP=1., VOLUME=1. $END
  3.09496E+05  1.01386E+03  3.37856E+05  2.50311E+05  8.42471E+04  3.37463E+05 -1.32284E+05  2.50673E+05
 -1.90474E+05  8.31915E+04 -1.10882E+05 -3.13556E+04  3.71035E+02 -4.98553E+04  5.32921E+04  6.24352E+02
  3.53315E+04  5.23242E+04 -1.78494E+04  7.48904E+04 -6.06856E+04  6.37167E+04 -8.37794E+04  3.23660E+04
 -8.03876E+04 -1.18880E+04 -5.65949E+04 -5.18836E+04 -1.38520E+04 -6.94944E+04  2.66005E+04 -4.61641E+04
  3.91910E+04  4.55419E+03  1.52051E+04  4.76649E+04 -3.52226E+04  4.70720E+04 -6.72750E+04 -8.31468E+02
 -5.34505E+04 -5.63047E+04 -6.80037E+03 -7.72140E+04  3.42690E+04 -5.51434E+04  4.69968E+04 -1.67366E+04
  4.21689E+04  1.18814E+04  3.20717E+04  2.47273E+04  1.67058E+04  2.90391E+04 -5.33651E+03  2.72392E+04
 -2.27199E+04  1.15929E+04 -1.83584E+04 -5.06304E+03  5.09201E+03 -6.74830E+03  2.23769E+04  1.22655E+04
  6.85106E+03  3.44745E+04 -3.12496E+04  3.50137E+04 -6.30693E+04  2.76456E+03 -5.62837E+04 -4.23107E+04
 -1.17995E+04 -6.23422E+04  3.88399E+04 -4.52132E+04  5.87412E+04 -2.06648E+03  3.51792E+04  3.23401E+04
 -6.91682E+03  3.48039E+04 -3.11456E+04  1.54736E+04 -3.06756E+04 -4.35376E+03 -1.65286E+04 -1.07178E+04
 -8.13700E+03 -1.46667E+04  1.51267E+02 -1.84011E+04  6.55585E+03 -2.30151E+04  1.54355E+04 -1.35399E+04
  1.16867E+04  4.65681E+03 -6.62799E+03  1.21327E+04 -2.07640E+04 -4.44151E+03 -7.29796E+03 -3.34394E+04
  2.29134E+04 -4.30757E+04  4.69517E+04 -1.98826E+04  4.50066E+04  1.81758E+04  1.60389E+04  4.41991E+04
 -1.58272E+04  3.10606E+04 -2.42192E+04  1.69688E+03 -9.43531E+03 -2.82469E+04  1.99945E+04 -3.31543E+04
  4.17300E+04 -8.92158E+03  3.48255E+04  2.37745E+04  1.84037E+04  4.61438E+04 -8.25113E+03  4.87381E+04
 -3.10427E+04  3.37031E+04 -4.20348E+04  8.91235E+03 -4.24300E+04 -1.55703E+04 -2.26858E+04 -3.64709E+04
  7.57721E+03 -3.76165E+04  3.12252E+04 -1.46247E+04  2.83287E+04  1.11468E+04  4.40259E+03  1.98967E+04
 -1.36666E+04  7.60952E+03 -9.92097E+03 -6.72329E+03  6.59166E+03 -1.08543E+04  1.81446E+04  6.12678E+03
  1.27183E+04  2.15722E+04 -6.14823E+03  2.53097E+04 -2.34984E+04  1.08922E+04 -2.77763E+04 -5.48258E+03
 -1.98231E+04 -1.67061E+04 -7.89329E+03 -1.97805E+04  4.17162E+03 -1.69880E+04  1.50242E+04 -1.65860E+04
  2.42778E+04 -1.27174E+04  3.23303E+04  3.33252E+03  2.29102E+04  1.79702E+04  4.82355E+03  3.52554E+04
 -1.79409E+04  2.82815E+04 -2.63523E+04  1.01549E+04 -2.10921E+04 -1.06980E+04 -4.32807E+03 -1.32788E+04
  2.13385E+03 -3.70797E+03 -5.12456E+03  6.25231E+03 -1.46948E+04  4.81635E+03 -1.59316E+04 -5.57977E+03
 -8.14310E+03 -1.67438E+04  4.78653E+03 -2.12457E+04  1.49308E+04 -1.60361E+04  1.72816E+04 -2.96376E+03
  1.08330E+04  1.17067E+04 -1.59358E+03  1.78348E+04 -1.23626E+04  1.07740E+04 -1.75044E+04 -3.67873E+03
 -1.44840E+04 -1.50084E+04 -1.70315E+03 -2.16566E+04  1.00209E+04 -1.80057E+04  1.86281E+04 -8.81995E+03
  1.68867E+04 -3.21313E+02  1.16486E+04  4.37902E+03  5.69919E+03  1.70973E+03  8.67309E+03 -1.99225E+03
  1.65812E+04  2.12254E+03  1.92834E+04  1.46994E+04  1.01270E+04  2.92372E+04 -4.32235E+03  3.22673E+04
 -1.85753E+04  2.54864E+04 -2.79751E+04  1.28457E+04 -3.15629E+04 -2.71669E+03 -2.68158E+04 -1.85316E+04
 -1.15111E+04 -2.42861E+04  9.72654E+03 -2.21488E+04  1.94089E+04 -1.09560E+04  1.73327E+04  4.49026E+03
  7.01058E+03  1.32512E+04 -7.64034E+03  1.17115E+04 -1.57273E+04  2.94320E+03 -1.14684E+04 -9.40864E+03
 -3.03379E+02 -1.40384E+04  6.83324E+03 -1.08905E+04  1.05464E+04 -1.14798E+03  2.44452E+03  5.71102E+03
 -6.26006E+03  7.65233E+02 -6.00608E+03 -4.90759E+03  4.09726E+02 -1.22785E+04  8.93313E+03 -1.18001E+04
  1.51646E+04 -6.92935E+03  1.54945E+04  1.83456E+03  1.25650E+04  1.20555E+04  5.73820E+03  1.73697E+04
 -2.54484E+03  2.03687E+04 -1.20600E+04  1.17509E+04 -1.29678E+04  4.14743E+03 -9.53197E+03 -3.70259E+03
 -5.38710E+03 -4.65162E+03 -1.03081E+03  2.70573E+02 -2.83613E+03  2.18817E+03 -4.03051E+03  4.39315E+03
 -9.16845E+03 -2.77196E+02 -1.07218E+04 -8.97009E+03 -3.96262E+03 -1.30316E+04  6.00990E+03 -9.27213E+03
  8.31691E+03 -4.50699E+03  6.66978E+03  2.24210E+03 -1.14272E+03  5.17904E+03 -4.39458E+03  1.75155E+02
 -3.61026E+03 -5.67144E+03 -1.13974E+03 -8.71074E+03  4.07721E+03 -1.00160E+04  1.26026E+04 -3.66551E+03
  1.43368E+04  1.58091E+03  1.09933E+04  7.17017E+03  2.49586E+03  1.15894E+04 -7.16954E+03  7.89475E+03
 -8.42196E+03  1.94861E+03 -4.00580E+03 -2.15229E+03  8.19295E+02 -2.53612E+03  5.52840E+03 -1.90166E+03
  4.48403E+03  3.81996E+03  1.03948E+03  7.53012E+03 -6.14242E+03  8.13046E+03 -9.32694E+03  2.23785E+03
 -5.58682E+03 -3.90551E+03  8.85689E+02 -8.03810E+03  4.90087E+03 -5.42832E+03  4.84779E+03  2.42989E+03
  1.32477E+03  5.16219E+03 -4.64597E+03  6.17979E+03 -6.28119E+03  2.10138E+03 -6.18414E+03 -2.44745E+03
 -5.74247E+03 -8.01610E+03  1.15394E+03 -9.21031E+03  8.06376E+03 -5.74387E+03  7.55209E+03  1.74085E+03
  5.52432E+03  6.93867E+03  1.05101E+03  8.92750E+03 -6.92951E+03  4.82679E+03 -6.49964E+03  1.78614E+02
 -7.46956E+03 -7.02274E+03 -7.57559E+02 -6.49614E+03  4.30337E+03 -5.77772E+03  4.87225E+03 -2.22547E+03
  3.61591E+03  7.37934E+02 -3.75509E+02  1.62183E+03  4.02694E+02 -4.97217E+02  2.79824E+01 -2.81872E+03
  5.73569E+03 -5.52902E+02  6.89197E+03  1.06699E+03  7.56120E+03  4.31428E+03  5.41307E+03  9.61018E+03
 -1.00505E+03  9.71172E+03 -9.85587E+03  7.62520E+03 -1.33836E+04  1.56735E+03 -1.04199E+04 -2.71542E+03
 -4.57320E+03 -7.87923E+03 -1.33432E+03 -6.35600E+03  3.30309E+03 -2.80963E+03  1.57326E+03 -3.59538E+03
  1.13570E+03 -1.90987E+03  2.44483E+03 -1.37431E+03  3.15594E+03 -1.86338E+03  4.07629E+03 -1.33241E+03
  6.64421E+03  6.45374E+02  2.42084E+03  4.33652E+03 -2.18001E+03  3.61388E+03 -5.49383E+03  3.46936E+03
 -6.14658E+03 -2.63504E+02 -3.55520E+03 -4.56338E+03  6.40958E+02 -6.38498E+03  3.47957E+03 -6.87564E+03
  7.33433E+03 -4.48857E+03  8.74310E+03  1.27408E+03  5.84146E+03  4.10215E+03  1.11280E+03  6.99797E+03
 -3.93385E+03  7.24644E+03 -4.78174E+03  2.61208E+03 -2.71959E+03 -3.86141E+02 -1.95190E+03 -1.35107E+03
 -7.90532E+02  8.76062E+01 -1.50914E+03  2.73955E+03 -3.05172E+03  3.23510E+02 -4.51578E+03 -6.76050E+02
 -2.40938E+03 -5.36281E+03  2.03535E+03 -5.96619E+03  3.61998E+03 -5.45879E+03  4.70443E+03 -1.91421E+03
  5.28267E+03  3.56181E+03  2.40707E+03  3.89950E+03 -1.19797E+03  5.87353E+03 -3.73642E+03  3.82959E+03
 -4.60359E+03  3.48312E+02 -4.37413E+03 -3.80783E+03  2.16195E+02 -5.46813E+03  1.94753E+03 -3.69434E+03
  2.95955E+03 -1.44515E+03  3.18794E+03  7.91414E+02 -1.35877E+02  2.41605E+03  3.74842E+02 -2.72535E+02
  6.65117E+02 -8.84206E+01  8.08144E+02  1.33486E+03  1.81825E+03  3.01939E+03  1.76010E+03  1.95330E+03
 -1.99889E+03  4.67491E+03 -2.87442E+03  5.68434E+03 -4.75186E+03  2.65120E+02 -5.47683E+03 -2.14504E+03
 -1.88682E+03 -4.64180E+03  3.62806E+02 -6.60917E+03  2.49595E+03 -3.36663E+03  3.49846E+03 -5.54554E+02
  3.62917E+03  2.36677E+03  1.80597E+02  3.47759E+03  1.63782E+02  1.04609E+03 -8.63712E+02 -3.59570E+02
 -1.07792E+02 -3.24928E+03  8.16994E+02 -2.42378E+03  2.73114E+03 -1.16559E+03  1.90221E+03  8.70845E+02
  1.29847E+03  4.74364E+01  1.32002E+03 -5.47518E+02  4.18858E+02  1.41197E+03  1.41283E+03 -9.53544E+02
  1.30400E+02  3.22254E+02  2.01342E+03  1.19201E+03  1.37153E+03  2.18916E+03  4.03189E+02  3.98300E+03
 -2.03104E+03  1.23233E+03 -2.00791E+03  1.80533E+03 -2.35947E+03  1.56991E+02 -8.49186E+02 -1.95423E+03
  3.41018E+02 -1.36644E+03  2.69081E+02 -1.10410E+03  8.46683E+01  1.67044E+03 -6.21067E+02  4.97328E+02
 -2.86621E+03  9.87834E+02 -8.29349E+02 -2.08935E+03 -1.38167E+03 -3.22580E+03 -1.83638E+02 -1.71773E+03
  1.13474E+03 -1.31185E+03 -3.28273E+01 -9.51685E+01  1.01605E+03  1.38278E+03  5.58742E+02  2.23957E+03
 -7.75137E+02  1.41346E+03 -1.76518E+03 -4.01981E+02  4.59151E+02 -1.82691E+03  2.60866E+03 -1.72528E+03
  9.43853E+02  1.35921E+03  3.01031E+03  1.64666E+03  2.19865E+03  1.54819E+03 -1.11484E+03  3.18323E+03
 -1.85763E+03  1.11402E+03 -1.38668E+03  2.01506E+02 -5.62308E+01 -1.70005E+03 -1.09368E+03 -1.49242E+03
  2.22303E+03 -1.09238E+03  1.17203E+03 -1.54273E+02  2.16026E+02  1.22677E+03  7.51666E+02  1.52743E+03
 -8.39796E+02  1.72138E+03 -7.37603E+02  1.35403E+03 -4.81257E+02 -1.74186E+02 -9.45614E+01  9.30723E+02
 -1.91365E+03  1.33085E+03 -2.38443E+03  3.39135E+02 -1.39779E+03  1.42458E+03 -3.72905E+03 -1.80897E+03
 -1.03588E+03 -2.96742E+03  1.09458E+03 -4.58346E+03  1.30559E+03 -3.19026E+03  3.82607E+03 -1.57922E+03
  3.15334E+03  9.77166E+01  2.36775E+03  1.29811E+03 -1.50907E+02  1.77158E+03 -2.02514E+03  1.76058E+03
 -1.06584E+03 -5.28117E+01 -6.95478E+02 -1.11022E+03 -5.36131E+02  4.64036E+02 -1.39127E+03  9.85593E+01
 -4.88957E+02 -6.83947E+02 -9.69927E+02 -9.64924E+02  7.04711E+01  3.46051E+02 -1.46449E+01 -5.02148E+02
  1.57644E+03 -9.66483E+02  7.50489E+02 -1.88911E+02  1.37768E+03  1.09190E+03  5.87472E+02  7.05100E+02
 -1.45532E+03  2.36851E+03 -2.82774E+03  1.23364E+03 -2.30346E+03 -3.25264E+02 -1.94674E+03 -2.14400E+03
 -1.43665E+03 -1.39885E+03  3.31392E+02 -2.09797E+03  1.07501E+03 -3.18323E+02  1.25969E+03  7.14980E+02
  6.06394E+02  1.12541E+03 -9.51887E+01  1.23401E+02 -5.43421E+01 -2.97589E+02 -2.17722E+02 -1.20990E+03
  2.15290E+03 -4.08802E+02  2.76277E+02  4.71324E+02  3.31436E+02  1.68885E+03  1.22608E+03  1.64918E+03
 -7.22912E+02  1.04000E+03 -1.18226E+03  8.98600E+02 -6.45067E+02 -5.25330E+02 -8.12525E+02 -7.86015E+02
  6.55975E+02 -1.29999E+03  2.54636E+02 -2.34441E+02  6.34807E+02  1.02904E+03 -7.93906E+02  1.31092E+03
 -5.40572E+02  2.24316E+03 -1.13880E+03  7.23473E+02 -1.02701E+03  4.24465E+02 -2.33629E+02  5.77751E+02
 -4.62732E+02 -6.24155E+02  3.83297E+02 -2.27208E+02 -1.08029E+03  5.72847E+02 -1.55598E+03 -1.33847E+03
 -1.63702E+03  6.79113E+02 -5.73802E+02 -1.31626E+03 -1.04868E+02 -2.92224E+03  1.24558E+03  7.01256E+02
  1.51037E+03  1.17665E+03 -7.99329E+00 -2.36320E+02  6.98167E+02  3.28239E+02 -7.90000E+02  4.48497E+02
