 $NMID ID='MM_0lb_SNR200_15hz_g50_75.RAW', FMTDAT='(8E13.5)'
 TRAMP=1., VOLUME=1. $END
  3.09081E+05 -3.76537E+02  3.37221E+05  2.50795E+05  8.45785E+04  3.36942E+05 -1.32181E+05  2.49580E+05
 -1.91779E+05  8.33203E+04 -1.11072E+05 -3.30001E+04  9.46824E+02 -5.08777E+04  5.33353E+04 -8.94451E+02
  3.74088E+04  5.30881E+04 -1.63242E+04  7.64157E+04 -6.06974E+04  6.48967E+04 -8.37156E+04  3.22581E+04
 -8.06456E+04 -1.29063E+04 -5.65374E+04 -5.07810E+04 -1.56522E+04 -7.02513E+04  2.76493E+04 -4.53795E+04
  3.98719E+04  2.97051E+03  1.59528E+04  4.72441E+04 -3.49743E+04  4.65250E+04 -6.58904E+04  2.80202E+02
 -5.35700E+04 -5.71098E+04 -6.80475E+03 -7.69846E+04  3.38792E+04 -5.43414E+04  4.80076E+04 -1.75322E+04
  4.21592E+04  1.10705E+04  3.03258E+04  2.58014E+04  1.71594E+04  2.92228E+04 -5.63527E+03  2.68475E+04
 -2.08772E+04  1.31588E+04 -1.97496E+04 -4.56830E+03  4.90227E+03 -8.83238E+03  2.15798E+04  1.22741E+04
  6.68869E+03  3.57399E+04 -3.19292E+04  3.54310E+04 -6.29066E+04  1.77545E+03 -5.72542E+04 -4.18413E+04
 -1.24329E+04 -6.37367E+04  4.01864E+04 -4.54944E+04  5.74721E+04 -2.16623E+03  3.44800E+04  3.19422E+04
 -6.62379E+03  3.61376E+04 -2.96290E+04  1.53750E+04 -2.97105E+04 -5.02683E+03 -1.57808E+04 -1.05959E+04
 -9.44033E+03 -1.30138E+04 -1.34030E+03 -1.79822E+04  9.00791E+03 -2.32202E+04  1.52284E+04 -1.29843E+04
  1.18821E+04  4.18713E+03 -8.07350E+03  1.30721E+04 -2.08478E+04 -4.50238E+03 -9.08782E+03 -3.36542E+04
  2.32787E+04 -4.37123E+04  4.72496E+04 -1.98916E+04  4.47558E+04  1.95492E+04  1.44208E+04  4.42868E+04
 -1.62702E+04  3.28880E+04 -2.32604E+04  2.12430E+03 -9.65760E+03 -2.67758E+04  2.12295E+04 -3.23848E+04
  4.07999E+04 -8.93544E+03  3.51764E+04  2.33139E+04  1.73110E+04  4.55288E+04 -7.35941E+03  5.02966E+04
 -2.98450E+04  3.30856E+04 -4.16164E+04  9.63753E+03 -4.34071E+04 -1.54167E+04 -2.46672E+04 -3.64438E+04
  6.55905E+03 -3.66080E+04  3.07313E+04 -1.42334E+04  2.83588E+04  1.16199E+04  4.56032E+03  1.98657E+04
 -1.30177E+04  8.07390E+03 -1.06416E+04 -7.37034E+03  6.10806E+03 -1.09654E+04  1.89445E+04  5.79892E+03
  1.38060E+04  2.21084E+04 -6.66773E+03  2.55598E+04 -2.22230E+04  1.04629E+04 -2.73117E+04 -3.68694E+03
 -1.90703E+04 -1.65136E+04 -8.33506E+03 -1.92625E+04  4.03740E+03 -1.81249E+04  1.56689E+04 -1.82975E+04
  2.53070E+04 -1.22659E+04  3.19438E+04  2.18155E+03  2.40597E+04  1.96579E+04  4.43936E+03  3.50165E+04
 -1.61653E+04  2.95186E+04 -2.71612E+04  9.15184E+03 -2.16507E+04 -9.71045E+03 -4.33527E+03 -1.24719E+04
  2.33501E+03 -4.38264E+03 -4.83985E+03  5.50830E+03 -1.59071E+04  5.03925E+03 -1.54103E+04 -6.49643E+03
 -1.12398E+04 -1.93131E+04  4.01058E+03 -2.18631E+04  1.46875E+04 -1.60628E+04  1.64910E+04 -1.28538E+03
  1.06667E+04  1.21707E+04 -4.85395E+02  1.88431E+04 -1.21247E+04  1.09113E+04 -1.86798E+04 -3.73283E+03
 -1.43259E+04 -1.55559E+04 -1.24072E+03 -2.04300E+04  9.58792E+03 -1.81413E+04  1.98828E+04 -9.23209E+03
  1.79138E+04  8.19140E+02  1.18088E+04  4.74872E+03  6.10563E+03  8.50921E+02  8.86882E+03 -1.93429E+03
  1.63905E+04  3.25042E+03  1.78894E+04  1.36356E+04  1.08440E+04  2.96229E+04 -2.95696E+03  3.29828E+04
 -1.82987E+04  2.47370E+04 -3.13927E+04  1.38511E+04 -3.20034E+04 -2.27803E+03 -2.59067E+04 -1.73717E+04
 -1.13043E+04 -2.68137E+04  9.01731E+03 -2.38432E+04  2.05784E+04 -1.24521E+04  1.78987E+04  5.58739E+03
  8.04150E+03  1.45807E+04 -7.85074E+03  1.14997E+04 -1.55244E+04  2.43562E+03 -1.22052E+04 -9.04461E+03
 -3.73199E+02 -1.43239E+04  7.40826E+03 -1.09409E+04  8.96671E+03 -6.48933E+02  1.83113E+03  6.18015E+03
 -7.27635E+03  1.58290E+03 -4.36535E+03 -4.40345E+03 -2.39352E+02 -1.20530E+04  8.99837E+03 -1.30205E+04
  1.62819E+04 -6.97332E+03  1.57342E+04  3.72444E+03  1.48810E+04  1.18346E+04  7.36239E+03  1.79122E+04
 -3.82318E+03  2.08446E+04 -1.27593E+04  1.23224E+04 -1.49270E+04  3.08025E+03 -1.09636E+04 -3.12590E+03
 -5.42454E+03 -5.05786E+03 -8.91638E+01  2.29230E+03 -2.48653E+03  2.64612E+03 -5.21065E+03  2.38312E+03
 -9.82645E+03  1.47645E+02 -1.05077E+04 -8.35973E+03 -3.92608E+03 -1.35768E+04  5.12410E+03 -1.14550E+04
  1.00750E+04 -4.67153E+03  5.86990E+03  2.11949E+03  5.56956E+02  3.90925E+03 -4.16336E+03 -2.49639E+02
 -4.13543E+03 -7.26938E+03 -2.27497E+02 -1.06198E+04  5.35114E+03 -1.00993E+04  1.34488E+04 -5.73023E+03
  1.50386E+04  1.56629E+03  1.11204E+04  8.54440E+03  2.54481E+03  1.13647E+04 -5.94020E+03  1.00568E+04
 -8.44225E+03  4.13310E+03 -4.23054E+03 -1.97971E+03  2.00180E+03 -3.16182E+03  5.82443E+03 -1.28714E+03
  4.42064E+03  4.26462E+03  9.90457E+02  8.58732E+03 -6.21144E+03  7.36823E+03 -1.02697E+04  1.75002E+03
 -7.33983E+03 -5.24018E+03  3.57051E+02 -8.98416E+03  5.10155E+03 -2.96252E+03  5.32493E+03  2.73464E+03
  1.37376E+03  5.05327E+03 -4.71483E+03  7.25018E+03 -7.46008E+03  3.62275E+03 -7.35209E+03 -2.77681E+03
 -4.56650E+03 -9.01779E+03  2.39050E+03 -9.88483E+03  9.15486E+03 -6.99911E+03  9.51497E+03  1.45431E+03
  5.94657E+03  6.97568E+03  4.95323E+01  9.60862E+03 -8.10516E+03  6.30800E+03 -7.39138E+03 -6.64703E+01
 -7.59716E+03 -6.27888E+03 -1.57850E+03 -5.88941E+03  3.67173E+03 -6.06822E+03  3.32840E+03 -3.05567E+03
  4.65131E+03  9.20305E+02 -3.96970E+02  7.84544E+02  3.12218E+02 -1.25335E+03  1.33445E+03 -2.81218E+03
  5.17363E+03 -1.15963E+03  9.35180E+03  9.98231E+02  8.20735E+03  5.08657E+03  6.11195E+03  1.13995E+04
 -2.35071E+03  1.34131E+04 -1.06237E+04  9.71994E+03 -1.38522E+04  1.50443E+03 -1.10530E+04 -4.78075E+03
 -6.09377E+03 -9.52996E+03 -5.71096E+02 -7.98399E+03  3.66865E+03 -4.15570E+03  4.62914E+03 -4.88354E+03
  2.43883E+03 -2.32349E+03  3.31813E+03 -3.07249E+03  4.03723E+03 -2.47015E+03  4.19780E+03 -5.77785E+01
  5.58106E+03  1.65099E+03  2.11666E+03  5.25554E+03 -2.20238E+03  5.69830E+03 -7.11369E+03  4.18551E+03
 -6.22601E+03 -8.16443E+02 -3.10401E+03 -5.62937E+03 -4.65385E+02 -7.99460E+03  4.17719E+03 -8.49127E+03
  8.78475E+03 -4.78782E+03  1.00137E+04  1.45517E+03  7.67361E+03  6.03066E+03  8.77350E+02  9.03003E+03
 -3.58385E+03  8.71456E+03 -5.21287E+03  3.24675E+03 -3.72430E+03 -2.81939E+03 -9.63386E+01 -1.38639E+03
 -4.05388E+02  1.56269E+02 -9.12555E+02  1.39033E+03 -3.22524E+03  1.23652E+03 -5.10527E+03 -1.52925E+03
 -3.43184E+03 -4.94336E+03  3.56132E+02 -7.77754E+03  3.63691E+03 -6.70192E+03  5.57322E+03 -5.82478E+02
  6.56444E+03  2.77373E+03  3.68161E+03  5.74560E+03 -1.67144E+03  6.65486E+03 -4.88475E+03  4.70067E+03
 -6.31404E+03  1.06168E+03 -5.27157E+03 -5.76231E+03 -1.11883E+03 -5.00572E+03  2.70814E+03 -3.70624E+03
  4.23693E+03 -1.31417E+03  3.78030E+03  7.48450E+02  2.07230E+02  2.86171E+03  2.05212E+03 -4.48753E+00
  1.85216E+03  7.82888E+01  2.60831E+03  1.19817E+03  1.37327E+03  3.51906E+03  1.37292E+03  3.76917E+03
 -1.03035E+03  5.39806E+03 -4.17604E+03  6.08971E+03 -5.92224E+03  1.48471E+03 -7.02699E+03 -2.63052E+03
 -2.22046E+03 -5.85042E+03  6.09838E+02 -8.81004E+03  3.87863E+03 -3.73836E+03  5.47035E+03 -2.57446E+03
  4.05972E+03  3.28912E+03  9.43393E+02  3.98227E+03 -1.00026E+03  3.38531E+03 -2.96652E+03  5.81389E+02
 -1.43622E+03 -2.63373E+03  2.58223E+03 -3.04457E+03  1.73574E+03 -1.03522E+03  2.17016E+03 -4.59791E+02
  1.50672E+03  1.21969E+03  1.57302E+03  1.11264E+03 -1.12180E+03  1.47371E+03  1.27949E+03 -3.64959E+02
  1.75534E+03  7.00020E+02  3.59500E+03 -5.86611E+02  1.18414E+03  3.54906E+03 -7.05478E+02  5.67118E+03
 -3.16151E+03  1.55069E+03 -4.68829E+03 -8.03283E+02 -4.20844E+03 -1.40983E+03 -6.63856E+02 -2.09147E+03
  9.76690E+02 -1.82976E+03  1.36322E+03 -1.91376E+03  1.67180E+03  1.60181E+03 -2.20421E+02  1.50484E+03
 -2.73225E+03  1.40360E+03 -2.71705E+03 -1.85672E+03 -5.66931E+02 -2.72629E+03  3.84196E+02 -3.87822E+03
  1.39744E+03 -2.49668E+03  1.86638E+03 -6.12768E+01  2.44167E+03  7.56378E+02  1.09631E+03  2.27808E+03
 -1.34345E+03  3.38075E+01 -1.44890E+03 -1.82360E+02  1.07941E+03 -1.90354E+03  3.17448E+03 -1.62938E+03
  2.47791E+03  1.38999E+03  4.23215E+03  2.50915E+03  1.15199E+03  3.65163E+03 -8.27200E+02  3.40971E+03
 -3.38946E+03  1.87657E+03 -2.37448E+03 -7.02571E+02 -1.88909E+03 -3.16680E+03  1.14047E+03 -2.56134E+03
  1.74122E+03 -1.60584E+03  2.32157E+03  1.38854E+03  9.65498E+02  2.51899E+03  7.40668E+02  2.40211E+03
 -5.38929E+02  1.21102E+03 -4.52694E+02 -1.24983E+03 -5.91838E+02 -1.59898E+02 -3.63659E+02  1.73267E+03
  5.06097E+02  2.07399E+03 -3.45840E+03  1.31282E+03 -4.07817E+03 -2.30295E+02 -4.74980E+03 -1.25596E+03
 -2.73377E+03 -3.19872E+03 -1.13873E+02 -4.95255E+03  2.00905E+03 -3.52085E+03  6.01211E+03 -1.56465E+03
  5.23375E+03  6.84863E+02  3.14105E+03  3.13789E+03 -3.53047E+02  2.79680E+03 -1.11460E+03  2.52549E+03
 -2.42741E+03  1.76237E+03 -1.11008E+03 -7.85514E+02 -7.34742E+02 -6.11348E+02 -1.09092E+03  1.45360E+02
 -2.67177E+02  5.14527E+02 -1.56126E+03  1.18916E+02 -9.27109E+02 -1.31116E+03 -5.05566E+02 -2.51493E+03
  1.57633E+03 -1.26639E+03  6.66938E+02 -1.25266E+03  1.46841E+03  2.13346E+03 -2.55054E+02  2.30869E+03
 -3.09469E+03  3.64039E+03 -3.61290E+03  3.31575E+03 -3.01844E+03  1.06128E+03 -3.36002E+03 -1.91859E+03
 -2.56537E+03 -3.35039E+03  7.81063E+02 -3.33685E+03  2.08361E+03 -1.95798E+03  2.53146E+03  4.61415E+02
  2.23288E+03  2.09609E+02 -2.38349E+02  1.20642E+02 -2.43511E+03  1.07373E+03  8.70933E+02  4.30259E+02
  6.15343E+02  4.29633E+02  1.41402E+03  8.76870E+02  4.03582E+02  1.33870E+03  6.32766E+02  4.49459E+02
 -1.23363E+03  1.99159E+03 -1.22407E+03  1.05174E+03 -1.78784E+03 -1.66207E+03  1.37393E+02 -1.90656E+03
  1.76287E+03 -2.59700E+03  2.55244E+03 -1.48958E+02  1.34195E+03  4.81475E+02  9.41536E+02  1.83212E+03
  4.16921E+02  1.65185E+03 -8.51376E+02  1.14548E+03 -8.83857E+02  1.21045E+03  2.99788E+01  3.25328E+01
  2.80892E+01  1.88617E+02 -1.09091E+03  2.03642E+02 -5.80383E+02 -1.39392E+02 -1.83123E+03 -7.19071E+01
 -1.42505E+03 -1.16356E+03  3.47357E+01 -3.64633E+03  7.95140E+02 -3.02971E+03  1.42742E+03 -6.37562E+01
  2.80040E+03  8.00028E+02  8.53449E+02  1.45707E+03 -6.95086E+02  2.00944E+03 -1.90399E+03  1.11372E+03
