 $NMID ID='MM_0lb_SNR200_11hz_g40_33.RAW', FMTDAT='(8E13.5)'
 TRAMP=1., VOLUME=1. $END
  3.09791E+05 -4.37528E+02  3.37052E+05  2.51484E+05  8.46648E+04  3.36747E+05 -1.33454E+05  2.51094E+05
 -1.90411E+05  8.14830E+04 -1.12385E+05 -3.23870E+04  1.39935E+03 -5.02431E+04  5.47862E+04  4.41711E+01
  3.70770E+04  5.27887E+04 -1.64089E+04  7.63424E+04 -6.06487E+04  6.41692E+04 -8.50872E+04  3.27456E+04
 -8.18587E+04 -1.04730E+04 -5.84621E+04 -5.24149E+04 -1.43349E+04 -7.17322E+04  2.75779E+04 -4.64374E+04
  3.95641E+04  2.68972E+03  1.73457E+04  4.61910E+04 -3.37119E+04  4.76590E+04 -6.70570E+04  5.15925E+02
 -5.32879E+04 -5.67234E+04 -5.85092E+03 -7.77108E+04  3.47768E+04 -5.64463E+04  4.81720E+04 -1.90961E+04
  4.48619E+04  1.22551E+04  3.34086E+04  2.67188E+04  1.68955E+04  2.93707E+04 -5.07724E+03  2.71374E+04
 -2.31375E+04  1.23421E+04 -1.86467E+04 -6.32869E+03  6.00062E+03 -6.90793E+03  2.18601E+04  1.37745E+04
  6.97302E+03  3.54756E+04 -3.31325E+04  3.63028E+04 -6.34342E+04  2.12026E+03 -5.85401E+04 -4.31375E+04
 -1.20125E+04 -6.52355E+04  3.95730E+04 -4.44541E+04  5.92077E+04 -2.92849E+03  3.64804E+04  3.37753E+04
 -6.38785E+03  3.83822E+04 -3.03869E+04  1.84986E+04 -3.18591E+04 -4.81747E+03 -1.74366E+04 -1.05586E+04
 -9.76637E+03 -1.37899E+04  2.47563E+02 -1.81682E+04  8.18434E+03 -2.34709E+04  1.60721E+04 -1.36906E+04
  1.04813E+04  4.45535E+03 -8.72479E+03  1.12567E+04 -2.25731E+04 -5.39694E+03 -9.62728E+03 -3.51480E+04
  2.37516E+04 -4.43696E+04  5.01858E+04 -2.02784E+04  4.55931E+04  1.98164E+04  1.60471E+04  4.42331E+04
 -1.66676E+04  3.59370E+04 -2.59394E+04  1.56281E+03 -9.53294E+03 -3.08021E+04  2.13994E+04 -3.49247E+04
  4.24453E+04 -9.35326E+03  3.73074E+04  2.53241E+04  1.98643E+04  4.80119E+04 -8.20607E+03  5.27314E+04
 -3.30124E+04  3.57264E+04 -4.33262E+04  1.00985E+04 -4.36877E+04 -1.79895E+04 -2.62133E+04 -3.97960E+04
  8.13474E+03 -4.06235E+04  3.28903E+04 -1.55999E+04  2.96327E+04  1.07518E+04  3.33479E+03  1.87430E+04
 -1.42430E+04  8.75380E+03 -1.10050E+04 -6.41621E+03  5.21185E+03 -1.26063E+04  1.90632E+04  5.79772E+03
  1.34795E+04  2.36166E+04 -3.70828E+03  2.66624E+04 -2.32936E+04  1.26029E+04 -2.99486E+04 -2.74682E+03
 -2.23252E+04 -1.84239E+04 -9.53300E+03 -2.33607E+04  4.46601E+03 -2.19628E+04  1.68827E+04 -1.98445E+04
  2.95065E+04 -1.35578E+04  3.31786E+04  3.90351E+03  2.60771E+04  2.03944E+04  3.98319E+03  3.84206E+04
 -1.81466E+04  3.05811E+04 -2.94224E+04  1.21240E+04 -2.14719E+04 -1.04845E+04 -4.30060E+03 -1.31440E+04
  1.16140E+03 -1.29536E+03 -6.15917E+03  6.98307E+03 -1.87536E+04  3.95202E+03 -1.78070E+04 -7.74645E+03
 -1.11697E+04 -2.04827E+04  6.32121E+03 -2.39758E+04  1.71784E+04 -1.81346E+04  1.97930E+04 -8.28974E+02
  1.24428E+04  1.46249E+04 -2.32058E+03  2.12496E+04 -1.36783E+04  1.22035E+04 -2.08329E+04 -3.24659E+03
 -1.52162E+04 -1.89047E+04 -1.86328E+03 -2.49773E+04  1.09422E+04 -1.92734E+04  1.90787E+04 -1.02074E+04
  1.79133E+04  5.83801E+02  1.41950E+04  6.43711E+03  7.62205E+03  7.71283E+02  1.04380E+04 -2.04547E+03
  1.94781E+04  3.93683E+03  2.19213E+04  1.71290E+04  1.48318E+04  3.29757E+04 -3.42549E+03  3.77113E+04
 -2.11893E+04  3.19439E+04 -3.55479E+04  1.51574E+04 -3.72135E+04 -2.08239E+03 -3.03615E+04 -2.20837E+04
 -1.24237E+04 -3.09541E+04  1.16647E+04 -2.81198E+04  2.40289E+04 -1.41488E+04  2.19398E+04  7.12986E+03
  7.37520E+03  1.58141E+04 -1.11143E+04  1.47014E+04 -1.77501E+04  2.07220E+03 -1.32389E+04 -1.27475E+04
 -1.25861E+03 -1.71730E+04  9.08858E+03 -1.19633E+04  1.15254E+04 -1.38518E+03  3.17176E+03  8.26207E+03
 -7.71556E+03  4.08557E+03 -6.80449E+03 -6.64003E+03 -1.81024E+03 -1.55749E+04  9.93408E+03 -1.65295E+04
  2.03743E+04 -9.75003E+03  2.26693E+04  4.11521E+03  1.82538E+04  1.60459E+04  9.12660E+03  2.37669E+04
 -5.30690E+03  2.55713E+04 -1.68554E+04  1.64954E+04 -1.88597E+04  4.17467E+03 -1.22674E+04 -3.90841E+03
 -6.39429E+03 -5.50132E+03 -6.60298E+02  6.59650E+02 -3.02003E+03  3.10035E+03 -7.17457E+03  3.84597E+03
 -1.20255E+04 -1.10717E+03 -1.30589E+04 -1.02074E+04 -4.23360E+03 -1.70195E+04  5.04150E+03 -1.36371E+04
  1.06999E+04 -6.01299E+03  6.60182E+03  3.12654E+03  1.08747E+03  5.43876E+03 -6.75169E+03  4.29801E+02
 -6.51946E+03 -8.00195E+03 -1.26376E+03 -1.25302E+04  7.40553E+03 -1.30984E+04  1.78584E+04 -7.70598E+03
  1.99146E+04  1.75718E+03  1.41880E+04  1.19474E+04  2.18749E+03  1.51292E+04 -7.84533E+03  1.26894E+04
 -1.18258E+04  2.32713E+03 -4.99876E+03 -6.57776E+02  1.64841E+03 -4.33116E+03  6.08752E+03 -1.98495E+03
  6.36004E+03  5.81811E+03  1.23554E+03  9.98126E+03 -7.09733E+03  9.98659E+03 -1.25007E+04  2.47567E+03
 -8.22467E+03 -7.25855E+03  3.87938E+02 -1.04140E+04  6.95126E+03 -6.15397E+03  7.67815E+03  2.79986E+03
  3.08637E+03  9.03959E+03 -7.31343E+03  9.61022E+03 -1.00033E+04  4.22097E+03 -1.05385E+04 -3.06285E+03
 -6.04201E+03 -1.07342E+04  2.40340E+03 -1.37044E+04  1.23959E+04 -7.60200E+03  1.34855E+04  2.55345E+03
  7.90829E+03  1.13270E+04 -8.49463E+01  1.21416E+04 -8.72175E+03  6.72777E+03 -1.11185E+04 -2.04538E+02
 -8.20145E+03 -8.61863E+03 -1.12146E+03 -9.25412E+03  3.85542E+03 -7.84130E+03  4.79711E+03 -3.41017E+03
  3.78774E+03  2.77259E+03 -3.49565E+02  5.79402E+02 -7.11222E+02 -2.17515E+03  2.02656E+03 -4.85803E+03
  9.68317E+03 -2.55480E+03  1.00529E+04  8.07665E+02  1.17563E+04  9.44421E+03  9.05823E+03  1.47581E+04
 -3.56553E+03  1.80261E+04 -1.70127E+04  1.30397E+04 -1.98736E+04  2.52620E+03 -1.67745E+04 -6.51212E+03
 -9.38484E+03 -1.30561E+04 -7.94634E+02 -1.17044E+04  3.83714E+03 -5.78199E+03  3.94412E+03 -3.36266E+03
  3.80355E+03 -2.29868E+03  2.42739E+03 -3.44265E+03  4.52738E+03 -2.36969E+03  5.77749E+03 -2.61872E+03
  7.77293E+03  1.99919E+03  3.77112E+03  9.01274E+03 -1.19031E+03  8.52987E+03 -7.63486E+03  8.01730E+03
 -9.67367E+03 -4.05148E+02 -6.66900E+03 -7.62372E+03  6.94369E+02 -1.29555E+04  7.00356E+03 -1.25352E+04
  1.07638E+04 -7.42442E+03  1.53871E+04  1.65360E+03  9.96172E+03  1.06368E+04  1.54668E+03  1.31161E+04
 -5.37506E+03  1.21041E+04 -8.20902E+03  5.14846E+03 -5.50888E+03 -1.09377E+03 -2.18151E+03 -8.28679E+02
 -7.02095E+02  2.26747E+02 -1.52088E+03  2.29621E+03 -6.38406E+03  2.05270E+03 -9.12426E+03  1.03070E+03
 -5.57618E+03 -8.78761E+03 -1.40839E+02 -1.13627E+04  5.82431E+03 -1.00721E+04  1.10873E+04 -2.09668E+03
  1.08415E+04  5.87063E+03  5.25511E+03  9.33909E+03 -2.40091E+03  1.03193E+04 -6.79043E+03  6.62237E+03
 -1.04184E+04  4.28710E+02 -8.55665E+03 -6.43147E+03 -2.27954E+03 -8.95358E+03  5.14590E+03 -7.87422E+03
  9.36447E+03 -1.83840E+03  4.02055E+03  2.59978E+03  9.00104E+02  1.36284E+03  1.58032E+03  1.73438E+03
  3.31617E+03  1.23628E+02  2.22120E+03  1.14113E+03  3.67257E+03  4.39973E+03  2.98509E+03  6.56077E+03
 -1.56720E+03  8.75591E+03 -6.50653E+03  9.63866E+03 -1.15680E+04  2.34972E+03 -1.00283E+04 -4.72732E+03
 -5.12129E+03 -9.98499E+03  6.12314E+02 -1.12011E+04  6.25400E+03 -7.67813E+03  8.70441E+03 -3.31791E+03
  7.17088E+03  2.83819E+03  1.91767E+03  6.68410E+03 -4.02587E+03  3.87730E+03 -4.37776E+03  1.49539E+02
 -2.15653E+03 -4.88901E+03  1.96574E+03 -5.69679E+03  4.90704E+03 -1.97849E+03  5.36626E+03  8.90857E+02
  2.51196E+03  2.89941E+03  9.34770E+02  1.20478E+02  4.46412E+02  1.77408E+03  2.33303E+03  1.50992E+02
  2.59783E+03 -3.06637E+02  5.04854E+03  3.25031E+03  2.84910E+03  5.87784E+03 -1.68216E+03  8.06454E+03
 -5.34067E+03  6.05991E+03 -6.32637E+03  1.98440E+03 -6.62013E+03 -1.92631E+03 -2.39903E+03 -3.52690E+03
  1.80009E+03 -4.06881E+03  2.05240E+03 -3.25855E+03  2.38573E+03  3.17517E+03 -1.48767E+03  3.29140E+03
 -3.14411E+03  2.00153E+03 -5.67676E+03 -3.57881E+03 -3.17116E+03 -6.11180E+03  9.38160E+02 -5.33000E+03
  5.44810E+03 -3.43775E+03  4.38503E+03 -1.13787E+03  3.70130E+03  8.48721E+02  3.01284E+02  3.89392E+03
 -2.95955E+03  1.17263E+03 -4.46218E+03 -3.15266E+03  6.43024E+02 -3.70531E+03  5.66029E+03 -4.58199E+03
  7.90822E+03 -2.78760E+02  6.71296E+03  4.75856E+03  1.34898E+03  7.40161E+03 -4.26536E+03  6.16602E+03
 -4.69872E+03  3.13547E+03 -4.63513E+03 -2.64271E+03 -2.16622E+03 -4.21764E+03  8.74863E+02 -5.25566E+03
  4.22272E+03 -2.29638E+03  3.67787E+03  7.94226E+02  7.46280E+02  3.02638E+03  3.04757E+02  2.63509E+03
 -8.13205E+02  2.57104E+03 -1.34361E+02  5.97312E+02 -3.56002E+02  9.04913E+02 -1.71598E+03  4.45538E+02
 -1.70140E+03  1.39660E+03 -4.57129E+03  2.05232E+03 -7.78570E+03  1.39940E+03 -8.07675E+03 -4.45082E+03
 -3.46884E+03 -9.44031E+03  1.44568E+03 -1.06195E+04  6.11674E+03 -8.39515E+03  9.48160E+03 -3.45788E+03
  8.42021E+03  1.73876E+03  5.32345E+03  6.70740E+03  2.31121E+02  6.82881E+03 -2.88503E+03  4.45094E+03
 -4.54330E+03  1.73814E+03 -2.45821E+03 -1.74303E+03 -1.15611E+03  2.57894E+02 -1.16520E+03 -4.00324E+02
 -1.74551E+03 -6.07625E+02 -1.32063E+03 -1.39975E+03  1.55671E+03 -1.01907E+03 -9.70788E+02 -2.50532E+03
  9.95210E+02 -2.83158E+03  3.68192E+03  1.28653E+03  4.59260E+03  4.21550E+03  6.93132E+01  7.26035E+03
 -3.77223E+03  7.45503E+03 -8.10096E+03  4.71384E+03 -8.29569E+03  2.57994E+02 -5.24718E+03 -3.87733E+03
 -2.78105E+03 -6.64927E+03  9.72572E+01 -6.35137E+03  3.41405E+03 -3.94412E+03  4.68535E+03  6.54061E+02
  1.97603E+03  2.81222E+03 -1.45544E+03  1.54899E+03 -1.45117E+03  7.56366E+02  2.37616E+02 -1.28222E+03
  2.13601E+03 -1.77365E+03  1.45968E+03 -1.33644E+02  1.93438E+03  3.57369E+03  2.90488E+02  3.10004E+03
 -3.17436E+03  3.88200E+03 -4.78826E+03  9.03515E+02 -4.55354E+03 -4.19261E+03 -7.49218E+02 -5.79199E+03
  3.43998E+03 -5.27149E+03  4.47262E+03 -1.02910E+03  4.97303E+03  4.96632E+02  3.30147E+03  4.34575E+03
  5.29592E+02  5.14122E+03 -1.53826E+03  2.86525E+03 -1.88126E+03  1.39041E+03 -6.18269E+02 -7.30241E+02
 -2.83914E+03  1.06406E+03 -1.64224E+02  2.84902E+01 -2.73388E+03  1.49477E+03 -5.76723E+03 -2.03704E+03
 -3.75260E+03 -1.78994E+03 -1.01388E+03 -4.87720E+03  3.06784E+03 -4.29518E+03  3.81353E+03 -2.02707E+03
  4.83318E+03 -4.03367E+02  1.50956E+03  4.07196E+03 -1.23698E+03  4.67875E+03 -1.80834E+03  3.48569E+03
