 $NMID ID='MM_0lb_SNR200_20hz_g60_13.RAW', FMTDAT='(8E13.5)'
 TRAMP=1., VOLUME=1. $END
  3.09770E+05  4.95010E+02  3.37491E+05  2.50733E+05  8.40836E+04  3.36363E+05 -1.32758E+05  2.50181E+05
 -1.89423E+05  8.35689E+04 -1.11399E+05 -3.36286E+04  5.65307E+02 -5.11908E+04  5.35454E+04 -4.88980E+02
  3.46479E+04  5.19642E+04 -1.63310E+04  7.50400E+04 -6.03486E+04  6.25270E+04 -8.29682E+04  3.16408E+04
 -8.02018E+04 -1.18896E+04 -5.72872E+04 -5.05364E+04 -1.53693E+04 -6.79030E+04  2.60260E+04 -4.58671E+04
  3.88254E+04  3.84138E+03  1.63891E+04  4.78745E+04 -3.37668E+04  4.70948E+04 -6.65023E+04 -3.31840E+02
 -5.33754E+04 -5.67806E+04 -7.30241E+03 -7.60537E+04  3.31957E+04 -5.37479E+04  4.62599E+04 -1.66146E+04
  4.15701E+04  1.15307E+04  3.17436E+04  2.47266E+04  1.54986E+04  2.81112E+04 -4.19054E+03  2.73891E+04
 -2.20273E+04  1.29980E+04 -1.86307E+04 -5.01878E+03  4.69669E+03 -7.34852E+03  2.21295E+04  1.21311E+04
  7.69382E+03  3.43516E+04 -3.15554E+04  3.45735E+04 -6.21011E+04  2.26225E+03 -5.65343E+04 -4.17174E+04
 -1.30107E+04 -6.11691E+04  3.86832E+04 -4.25598E+04  5.61138E+04 -1.83621E+03  3.31685E+04  3.22605E+04
 -7.35662E+03  3.41499E+04 -2.88050E+04  1.35712E+04 -2.87092E+04 -4.00718E+03 -1.48244E+04 -9.56446E+03
 -7.88382E+03 -1.27641E+04 -9.27507E+02 -1.77502E+04  7.50015E+03 -2.19751E+04  1.60534E+04 -1.48170E+04
  1.18818E+04  4.87779E+03 -5.83659E+03  1.32815E+04 -1.98551E+04 -3.14171E+03 -8.80266E+03 -3.11358E+04
  2.06684E+04 -4.04404E+04  4.52002E+04 -1.86267E+04  4.22205E+04  1.84919E+04  1.53327E+04  4.24199E+04
 -1.67657E+04  3.18694E+04 -2.36862E+04  9.62665E+02 -8.16983E+03 -2.70273E+04  2.03458E+04 -3.11068E+04
  3.81966E+04 -7.44240E+03  3.15182E+04  2.36647E+04  1.56173E+04  4.33434E+04 -8.30680E+03  4.60978E+04
 -2.91236E+04  3.01526E+04 -3.88817E+04  9.55471E+03 -3.94827E+04 -1.53431E+04 -2.23625E+04 -3.55741E+04
  7.64461E+03 -3.44933E+04  2.94289E+04 -1.32631E+04  2.70525E+04  1.14994E+04  3.21249E+03  1.80014E+04
 -1.34971E+04  7.33842E+03 -9.53497E+03 -8.31610E+03  5.50161E+03 -9.77292E+03  1.72877E+04  6.30341E+03
  1.23737E+04  2.19174E+04 -5.98651E+03  2.32105E+04 -2.20563E+04  9.42444E+03 -2.55996E+04 -5.05130E+03
 -1.71700E+04 -1.65313E+04 -7.37532E+03 -1.74030E+04  3.86115E+03 -1.48886E+04  1.23207E+04 -1.56621E+04
  2.16603E+04 -1.19103E+04  2.94705E+04  1.70974E+03  2.24370E+04  1.67076E+04  4.64426E+03  3.32881E+04
 -1.58032E+04  2.86487E+04 -2.53438E+04  9.15017E+03 -2.08111E+04 -1.05360E+04 -5.48659E+03 -1.50459E+04
  2.23619E+03 -5.23894E+03 -2.02731E+03  5.85421E+03 -1.34458E+04  5.04858E+03 -1.33492E+04 -4.35081E+03
 -8.27278E+03 -1.62457E+04  4.96885E+03 -1.92836E+04  1.17930E+04 -1.38866E+04  1.45072E+04 -1.20687E+03
  8.07246E+03  1.19867E+04 -8.65057E+02  1.58403E+04 -1.13731E+04  8.06937E+03 -1.65127E+04 -4.72888E+03
 -1.07875E+04 -1.31361E+04 -1.56850E+03 -1.88318E+04  9.25092E+03 -1.51732E+04  1.64806E+04 -8.45917E+03
  1.51254E+04  1.87817E+03  1.14042E+04  4.15253E+03  5.85223E+03  6.15431E+02  8.44549E+03 -1.81202E+03
  1.41792E+04  2.49228E+03  1.46288E+04  1.27514E+04  1.01279E+04  2.56366E+04 -2.16230E+03  2.73660E+04
 -1.66113E+04  2.01594E+04 -2.55470E+04  9.95205E+03 -2.62621E+04 -1.75562E+03 -2.10908E+04 -1.56025E+04
 -1.06446E+04 -2.05843E+04  6.34249E+03 -1.96042E+04  1.74457E+04 -1.08038E+04  1.56123E+04  4.89954E+03
  6.42724E+03  1.13377E+04 -7.25143E+03  1.01767E+04 -1.44231E+04  2.51801E+03 -1.02390E+04 -7.99090E+03
  2.65496E+02 -1.28764E+04  7.40364E+03 -9.42220E+03  8.17853E+03 -2.21264E+03  1.19365E+03  5.38452E+03
 -5.57548E+03  1.52390E+03 -3.81032E+03 -3.83727E+03  5.77245E+02 -1.04016E+04  7.23413E+03 -9.74545E+03
  1.14098E+04 -4.25598E+03  1.33536E+04  2.48511E+03  1.08258E+04  9.77940E+03  4.42292E+03  1.38909E+04
 -1.49464E+03  1.59680E+04 -9.71503E+03  1.03123E+04 -1.08543E+04  3.30545E+03 -6.89407E+03 -2.09246E+03
 -4.71168E+03 -3.10979E+03 -8.68799E+02  1.81475E+03 -1.73604E+03  2.73547E+03 -4.07997E+03  1.77293E+03
 -8.88520E+03 -6.87344E+02 -9.32959E+03 -7.00064E+03 -2.52398E+03 -1.19106E+04  3.67298E+03 -8.18070E+03
  7.23065E+03 -3.93196E+03  5.68439E+03  1.59852E+03  1.39631E+02  3.16216E+03 -3.45165E+03 -8.06837E+01
 -3.76799E+03 -5.73065E+03 -8.62877E+02 -5.69109E+03  3.89732E+03 -8.04280E+03  9.39009E+03 -3.40534E+03
  1.11525E+04  6.50767E+02  7.46770E+03  6.15208E+03  9.78405E+02  9.30734E+03 -4.97112E+03  8.39202E+03
 -6.35684E+03  2.22631E+03 -3.55373E+03 -1.06915E+03  2.06331E+03 -1.29125E+03  4.43104E+03 -1.96350E+03
  4.06605E+03  2.41919E+03  2.47384E+02  5.97170E+03 -4.49731E+03  5.24109E+03 -6.48645E+03  1.89723E+03
 -6.02788E+03 -4.03825E+03  7.08440E+01 -7.45326E+03  3.35219E+03 -2.74157E+03  3.70991E+03  7.01942E+02
  9.27432E+02  3.71089E+03 -4.31843E+03  4.58010E+03 -5.10398E+03  2.00114E+03 -3.02753E+03 -1.05835E+03
 -3.52163E+03 -5.31988E+03  1.40938E+03 -6.48173E+03  5.66467E+03 -4.34412E+03  6.10586E+03  1.81201E+03
  4.69783E+03  4.75469E+03  4.38672E+01  8.00399E+03 -5.02327E+03  3.75407E+03 -5.67098E+03 -5.31880E+02
 -4.49546E+03 -4.25422E+03 -1.66164E+03 -6.30984E+03  2.07708E+03 -3.94011E+03  2.78922E+03 -2.71535E+03
  3.34892E+03 -8.22697E+01  6.26433E+02  2.83699E+03 -2.54592E+02  1.51058E+02 -2.18818E+02 -1.75149E+03
  2.97301E+03 -7.87362E+02  5.05955E+03  1.01044E+03  4.87243E+03  2.20239E+03  5.53297E+03  6.44513E+03
 -1.45078E+03  7.65817E+03 -7.04340E+03  6.02568E+03 -8.31788E+03  1.62084E+03 -5.56419E+03 -3.66132E+03
 -4.32950E+03 -5.62931E+03 -1.00477E+03 -3.61091E+03  1.81758E+03 -1.22573E+03  7.03568E+02 -1.81674E+03
  4.92662E+02 -1.09742E+03  1.47931E+03 -2.14760E+03  3.59162E+03 -9.88927E+02  3.92032E+03 -6.92284E+01
  2.95066E+03 -2.11037E+02  7.84134E+02  3.56632E+03 -2.41808E+03  2.21108E+03 -3.91806E+03  2.23186E+03
 -4.72010E+03 -5.45096E+02 -7.94776E+02 -2.81730E+03  1.13766E+03 -4.18683E+03  2.22065E+03 -4.45128E+03
  4.02101E+03 -2.87550E+03  5.75236E+03  3.18859E+02  3.83353E+03  3.28372E+03  1.27301E+03  3.65183E+03
 -2.48643E+03  5.18027E+03 -2.33105E+03  1.38417E+03 -2.40219E+02 -1.18240E+03 -5.37780E+02  2.81326E+02
  2.37578E+02  1.18614E+03 -4.92448E+02  1.52005E+03 -2.53123E+03  1.87906E+02 -1.92704E+03 -5.08352E+02
 -8.22039E+01 -2.54256E+03  9.09213E+02 -4.23309E+03  2.32366E+03 -4.02926E+03  2.11499E+03 -7.35612E+02
  4.60042E+03  1.38585E+03  2.26922E+03  2.80019E+03  3.88245E+02  3.84139E+03 -2.19342E+03  1.99226E+03
 -2.95122E+03  6.61168E+02 -2.46805E+03 -2.07077E+03  8.26651E+01 -3.35350E+03  2.61981E+02 -1.75361E+03
  1.96895E+03 -3.18896E+02  2.25763E+03 -5.80535E+02  8.77476E+02  8.74841E+02 -2.43451E+02 -4.70394E+02
  1.13006E+03 -2.26539E+02  1.55367E+03  1.65096E+02  1.56204E+03  1.89522E+03  1.37307E+03  1.62973E+03
 -8.36882E+02  1.33435E+03 -1.53748E+03  3.87218E+03 -1.80490E+03  1.12828E+03 -2.66914E+03  1.55986E+02
 -1.05761E+03 -3.58866E+03  4.09024E+02 -3.42182E+03  1.02117E+03 -2.11904E+03  2.69360E+03 -1.25660E+03
  1.39530E+03  2.75109E+03  6.54930E+01  1.86594E+03 -9.65804E+02  1.15571E+03 -1.24091E+02  1.72236E+02
 -3.44207E+02 -5.30218E+02  1.15755E+03 -2.04700E+03  1.27084E+03 -3.25499E+02  1.86635E+03  5.16562E+02
  3.74375E+02  6.56987E+01  2.63133E+02 -3.85197E+02  3.07390E+02  1.30924E+03  1.57154E+03  1.84918E+01
 -5.33755E+02 -6.91776E+02  1.65017E+03  1.05286E+03 -2.17661E+02  1.63377E+03  1.34606E+03  2.97055E+03
 -1.00034E+03  3.57100E+02 -2.60564E+03  8.91093E+02 -2.13615E+03 -9.01940E+02 -2.27585E+02 -2.15230E+02
 -1.37505E+02 -9.05701E+02  9.29834E+02  4.74341E+01  6.29498E+02  1.04446E+03  1.52809E+02  1.62450E+03
 -1.64323E+03  3.15935E+01 -1.52855E+03 -1.48656E+03  4.19151E+01 -2.66909E+03 -2.14053E+02 -2.25260E+02
 -8.03923E+02  6.11307E+02  1.34095E+03  1.05524E+03  1.31696E+03 -7.42734E+02  1.04466E+02  1.41844E+03
  4.71667E+01 -5.60038E+02 -6.78664E+02  1.20638E+02  3.89470E+02  5.42438E+02  8.90515E+02 -9.38148E+02
  4.23027E+02  2.26541E+02  1.74932E+03 -9.90182E+02  1.05786E+02  7.96675E+02  6.46753E+01  1.01173E+03
 -6.27182E+02 -6.98980E+02 -1.66966E+02  3.16628E+02  1.32681E+02 -1.16280E+03  5.49256E+02  8.71206E+02
  2.33579E+03 -9.50022E+00 -3.79040E+01  5.68414E+02  7.43576E+02  1.43081E+03 -1.98815E+03  4.35571E+02
 -2.26724E+02  7.13611E+02 -7.09579E+02 -2.93495E+02  6.50751E+02  3.05045E+02 -9.59599E+02  1.60816E+02
 -7.93909E+02  3.52497E+02 -1.94451E+03  1.82746E+02 -2.45076E+03  4.77723E+02 -1.60133E+03 -4.89135E+02
 -2.69588E+02 -7.40005E+02  7.26600E+02 -2.81984E+03  6.18013E+02 -1.77590E+03  2.12848E+03 -1.41514E+02
  1.11707E+03 -1.63810E+03  8.05933E+02  3.18428E+02 -1.70911E+03  6.42632E+02 -1.82639E+03  1.05895E+03
 -8.18418E+02  2.17522E+03  2.00061E+01 -3.44626E+02 -3.90838E+02 -4.70299E+02 -1.20791E+03 -2.37180E+02
 -1.11705E+03  4.37542E+01 -1.33213E+03  1.10406E+03  8.05541E+02 -3.35366E+02 -1.19247E+03 -1.56024E+03
 -7.24092E+01 -3.74859E+01 -3.33416E+02  1.65757E+02  8.59485E+01  9.33547E+02 -5.10511E+02  1.31861E+03
  2.83626E+02  2.60949E+03 -8.96727E+02  1.17903E+03 -1.27276E+03  3.79632E+02 -7.65337E+02  6.39047E+02
 -1.14231E+03 -6.92555E+02  1.35546E+03 -4.94543E+02 -2.55773E+02  7.25794E+02 -3.73450E+02  8.51109E+02
  2.66808E+02  3.23011E+01 -4.11651E+02 -6.43023E+02 -7.90752E+02 -2.55605E+02  5.36568E+02 -1.14776E+01
 -1.31681E+02  3.98960E+02  9.34239E+02 -5.64259E+01 -1.04081E+03 -1.45166E+02  6.16804E+02 -5.29505E+01
  2.39283E+02  8.01208E+02 -3.21876E+02 -4.07593E+02  2.11127E+01 -8.20725E+01 -7.34141E+02  4.58616E+01
  3.37141E+02  9.27529E+01 -1.64961E+02  1.56015E+01 -5.39056E+01 -1.02441E+03 -2.72949E+02  5.66287E+02
  5.91122E+02 -7.19166E+02  9.38677E+02 -2.94177E+02  4.68979E+02  9.30523E+02 -5.13011E+02 -1.14451E+02
 -4.70730E+02  4.25974E+01 -5.33919E+02 -1.04434E+01 -4.35757E+02  2.17046E+02 -1.83620E+01  1.14146E+03
 -1.40383E+03 -9.65517E+01  3.76651E+02 -6.07357E+02  1.35849E+02 -1.19114E+03  3.93359E+02 -8.84491E+02
 -1.26121E+02 -3.93663E+02 -6.60990E+02 -7.55819E+02 -2.29392E+02  3.74112E+02 -7.52755E+02  1.10503E+03
