 $NMID ID='MM_0lb_SNR200_19hz_g40_89.RAW', FMTDAT='(8E13.5)'
 TRAMP=1., VOLUME=1. $END
  3.09597E+05  8.36331E+02  3.37175E+05  2.51088E+05  8.43130E+04  3.36331E+05 -1.32299E+05  2.51226E+05
 -1.89719E+05  8.25246E+04 -1.11182E+05 -3.36159E+04  1.26639E+03 -5.02031E+04  5.39556E+04  5.69875E+02
  3.49280E+04  5.26185E+04 -1.64528E+04  7.49878E+04 -5.98891E+04  6.26274E+04 -8.28306E+04  3.04476E+04
 -8.04017E+04 -1.17392E+04 -5.62859E+04 -4.98098E+04 -1.49421E+04 -6.70100E+04  2.66773E+04 -4.43705E+04
  3.89871E+04  4.99846E+03  1.50797E+04  4.70986E+04 -3.36186E+04  4.64659E+04 -6.51441E+04 -9.82474E+02
 -5.15924E+04 -5.52866E+04 -6.10959E+03 -7.43298E+04  3.21781E+04 -5.28748E+04  4.53528E+04 -1.56583E+04
  4.04725E+04  1.08285E+04  2.95429E+04  2.36978E+04  1.52657E+04  2.84478E+04 -4.17731E+03  2.66818E+04
 -2.22957E+04  1.21202E+04 -1.92859E+04 -3.98890E+03  4.45362E+03 -8.59482E+03  2.10287E+04  1.04094E+04
  7.75623E+03  3.29199E+04 -2.89997E+04  3.27317E+04 -6.08790E+04  1.56780E+03 -5.49666E+04 -4.01268E+04
 -1.28706E+04 -5.98360E+04  3.85385E+04 -4.33118E+04  5.40428E+04 -1.86538E+03  3.09278E+04  3.03485E+04
 -6.23677E+03  3.12852E+04 -2.70538E+04  1.17683E+04 -2.62542E+04 -5.22362E+03 -1.38180E+04 -9.85751E+03
 -7.36112E+03 -1.08724E+04 -1.21000E+03 -1.50936E+04  6.62515E+03 -2.18215E+04  1.47713E+04 -1.46496E+04
  1.23411E+04  3.68132E+03 -4.61064E+03  1.40873E+04 -1.81344E+04 -1.11201E+03 -8.74236E+03 -2.95890E+04
  1.95385E+04 -3.96821E+04  4.38870E+04 -1.84292E+04  4.06832E+04  1.78074E+04  1.36367E+04  4.10427E+04
 -1.42152E+04  3.05732E+04 -2.35295E+04  2.07181E+03 -7.41189E+03 -2.67243E+04  2.02711E+04 -3.00547E+04
  3.73337E+04 -5.81173E+03  3.08655E+04  2.23317E+04  1.41911E+04  4.12352E+04 -6.76471E+03  4.29923E+04
 -2.76191E+04  2.97153E+04 -3.57531E+04  7.13999E+03 -3.68047E+04 -1.43961E+04 -2.07996E+04 -3.31801E+04
  7.52571E+03 -3.33998E+04  2.88132E+04 -1.25732E+04  2.58510E+04  1.00571E+04  2.97989E+03  1.68657E+04
 -1.25064E+04  7.19319E+03 -8.39047E+03 -9.07889E+03  6.10886E+03 -9.56468E+03  1.79771E+04  7.13098E+03
  1.14837E+04  2.25302E+04 -6.50871E+03  2.33181E+04 -2.04320E+04  7.75309E+03 -2.42122E+04 -6.07726E+03
 -1.52847E+04 -1.62870E+04 -5.09173E+03 -1.56679E+04  4.10608E+03 -1.34346E+04  1.18073E+04 -1.39998E+04
  1.94174E+04 -1.11229E+04  2.79536E+04  1.35066E+03  2.04096E+04  1.50853E+04  3.74083E+03  3.19138E+04
 -1.55292E+04  2.77374E+04 -2.58728E+04  8.36086E+03 -2.05559E+04 -1.06704E+04 -4.41046E+03 -1.39926E+04
  3.78509E+03 -3.53943E+03 -2.23196E+03  6.11680E+03 -1.20523E+04  5.66224E+03 -1.27981E+04 -4.27364E+03
 -8.59419E+03 -1.46315E+04  3.87012E+03 -1.79828E+04  1.21432E+04 -1.20906E+04  1.39859E+04 -1.36130E+03
  8.89723E+03  1.07897E+04 -1.41271E+03  1.51173E+04 -9.81126E+03  8.70721E+03 -1.55544E+04 -2.90252E+03
 -1.04299E+04 -1.31496E+04 -7.99476E+02 -1.88642E+04  7.16480E+03 -1.42790E+04  1.50665E+04 -6.62068E+03
  1.46889E+04  1.16690E+03  9.45313E+03  3.28014E+03  3.63927E+03 -5.39481E+02  6.54252E+03 -6.98968E+02
  1.34685E+04  2.62666E+03  1.37763E+04  1.21034E+04  8.30256E+03  2.37859E+04 -3.56978E+03  2.48533E+04
 -1.41003E+04  1.89017E+04 -2.31258E+04  8.30988E+03 -2.26568E+04 -1.78020E+03 -1.98927E+04 -1.39641E+04
 -1.03483E+04 -1.91059E+04  5.82632E+03 -1.71412E+04  1.59844E+04 -1.02434E+04  1.47990E+04  3.20031E+03
  6.64209E+03  1.05489E+04 -6.36840E+03  1.05404E+04 -1.28888E+04  1.33041E+03 -9.89251E+03 -7.38205E+03
  5.00412E+02 -1.29503E+04  5.93861E+03 -1.01604E+04  6.97930E+03 -1.11760E+03  8.86847E+02  3.71612E+03
 -5.88892E+03  1.18801E+03 -3.05511E+03 -3.98473E+03  1.32127E+03 -8.87299E+03  7.48947E+03 -9.26273E+03
  1.05418E+04 -4.36213E+03  9.75988E+03  3.50330E+03  9.37173E+03  8.33411E+03  5.17287E+03  1.18058E+04
 -1.64097E+03  1.40157E+04 -9.47745E+03  9.45459E+03 -1.00656E+04  2.53269E+03 -7.34798E+03 -8.02592E+02
 -5.12041E+03 -3.56204E+03 -7.41220E+02  1.35080E+03 -1.40179E+03  1.57303E+03 -3.49042E+03  3.39957E+03
 -8.61735E+03 -8.10926E+02 -8.73629E+03 -6.98482E+03 -2.89739E+03 -1.13708E+04  3.19574E+03 -8.63060E+03
  5.95252E+03 -3.40922E+03  6.26914E+03  1.90764E+03  6.89900E+02  3.36168E+03 -3.05750E+03  5.66821E+02
 -3.15244E+03 -4.74971E+03 -7.46292E+00 -7.38137E+03  2.79784E+03 -6.82440E+03  8.42047E+03 -3.86700E+03
  1.00300E+04  1.57684E+03  9.29455E+03  6.32515E+03  2.85683E+03  9.15383E+03 -5.60174E+03  7.91610E+03
 -6.56421E+03  1.83962E+03 -4.53701E+03 -1.98560E+03  1.10555E+03 -2.26915E+03  5.40035E+03 -1.30028E+03
  4.24939E+03  4.17594E+03  1.27048E+03  5.25997E+03 -4.65460E+03  6.67667E+03 -6.89813E+03  1.15346E+03
 -4.27603E+03 -2.75100E+03  2.62417E+02 -5.45028E+03  4.31326E+03 -3.29133E+03  3.01021E+03  2.15709E+03
 -3.32534E+02  3.14837E+03 -3.45669E+03  4.80631E+03 -4.80186E+03  2.36153E+03 -3.30250E+03 -6.60500E+02
 -3.24293E+03 -4.21322E+03  7.02056E+02 -6.41307E+03  5.05955E+03 -4.36803E+03  5.77366E+03  8.67902E+02
  5.42237E+03  4.51047E+03  9.92763E+02  7.18689E+03 -4.30898E+03  3.58093E+03 -3.71325E+03  7.87734E+01
 -5.05198E+03 -3.70101E+03 -4.11554E+02 -5.03957E+03  3.16819E+03 -3.85318E+03  1.95517E+03 -2.95092E+03
  2.47707E+03  1.05197E+03  4.57641E+00  1.33009E+03  6.54514E+02 -1.29278E+03 -4.02637E+02 -9.48819E+02
  4.35936E+03 -1.52821E+03  4.38436E+03  1.82902E+03  4.31107E+03  2.07414E+03  5.04353E+03  6.56877E+03
 -5.29810E+02  7.51101E+03 -7.26029E+03  5.75333E+03 -8.38594E+03  1.47634E+03 -6.16431E+03 -1.30883E+03
 -4.36682E+03 -5.45519E+03 -4.77014E+02 -4.53286E+03  2.16116E+03 -1.53257E+03  2.04787E+03 -3.39656E+03
  1.47794E+03 -1.86654E+03  1.76424E+03 -1.37923E+03  3.03612E+03 -7.02508E+02  3.55920E+03  6.79250E+02
  3.75039E+03 -4.08503E+02  6.36796E+02  3.44812E+03 -4.17393E+02  2.84835E+03 -2.81069E+03  2.45606E+03
 -4.63463E+03 -9.26388E+02 -1.32967E+03 -2.54751E+03  6.79208E+01 -5.26179E+03  4.15100E+03 -3.76654E+03
  3.31661E+03 -2.82874E+03  6.21343E+03  1.58071E+02  4.60269E+03  3.83265E+03  1.26951E+03  5.41838E+03
 -3.15635E+03  6.04431E+03 -1.95948E+03  1.23527E+03 -2.54267E+03 -6.85537E+02 -4.66408E+02  1.72239E+02
 -6.82007E+02  2.23128E+02 -1.40555E+03  2.53736E+03 -2.38553E+03  6.87982E+02 -3.61032E+03  4.04193E+02
 -7.51135E+02 -3.36573E+03  1.17495E+03 -4.56867E+03  2.20576E+03 -5.12235E+03  2.67404E+03 -1.44456E+03
  2.91796E+03  1.52481E+03  2.30140E+03  3.62230E+03 -1.05793E+03  4.75105E+03 -2.15710E+03  2.90543E+03
 -3.28268E+03  9.22745E+02 -3.58239E+03 -1.13170E+03 -6.83409E+01 -3.42255E+03  1.32668E+03 -2.12008E+03
  2.30815E+03  2.45678E+02  2.10077E+03  1.28279E+03  6.58896E+02  1.55803E+03  3.95391E+02  1.25218E+03
  1.63492E+03 -3.54228E+02  1.41259E+03 -2.00716E+02  1.76740E+03  3.56118E+03  1.92117E+03  2.15058E+03
 -1.29968E+03  2.50092E+03 -1.91705E+03  3.32762E+03 -2.56514E+03  1.80821E+03 -2.73406E+03  7.60359E+01
 -1.83279E+03 -4.22286E+03  9.94873E+02 -4.63079E+03  1.90579E+03 -2.01235E+03  1.83847E+03 -1.48034E+03
  2.52575E+03  1.89094E+03 -4.54636E+02  1.15139E+03  6.61007E+02  9.21973E+02 -9.76177E+02 -9.14520E+00
 -3.03087E+02 -1.46076E+03  1.61872E+03 -1.95316E+03  1.65741E+03  2.75189E+02  3.73725E+02  6.31762E+02
  8.20163E+02  2.00355E+02  4.04713E+02 -6.58199E+02  6.66405E+02  1.43063E+03  1.64665E+03 -1.80659E+02
 -3.59905E+02  5.87335E+02  1.29999E+03 -1.03687E+03  2.18839E+02  1.80821E+03 -8.51030E+02  2.22385E+03
 -1.33494E+03  1.02917E+03 -2.19172E+03  1.43456E+03 -2.08119E+03 -1.11699E+03  3.03316E+02 -6.32515E+02
  7.93918E+01 -1.90522E+03 -2.38411E+02 -9.19565E+01 -1.10450E+03  1.41123E+03 -1.84985E+02  8.72631E+02
 -1.88717E+03  8.87297E+02 -9.66975E+02 -1.26513E+03 -1.24631E+03 -2.01510E+03  7.99970E+02 -1.57323E+03
 -7.00847E+02 -7.98262E+02  8.45060E+02  3.47139E+02  8.48609E+02 -3.53703E+01  7.53420E+02  1.26605E+03
  1.35056E+02  7.81331E+02 -3.74540E+02 -5.11013E+02 -2.30297E+02 -4.49148E+02  1.26936E+03 -7.39081E+02
  1.06272E+03  8.04432E+02  1.90721E+03 -2.48134E+02  6.49697E+02  1.28313E+03 -7.43558E+02  2.43402E+03
 -1.61554E+03  6.03155E+02 -1.86047E+03  1.80285E+02 -1.02959E+03 -1.97779E+03 -1.01042E+03 -8.56772E+02
  1.29866E+03 -1.39365E+03 -2.48238E+01  3.63515E+02 -7.14579E+02  1.27243E+03 -6.49799E+02  1.68409E+03
 -2.01219E+02  1.37157E+03 -2.30655E+01  5.33393E+02 -2.86062E+01  1.01343E+02 -1.56303E+03  3.35433E+02
 -1.21480E+03  4.01148E+02 -1.37524E+03 -8.53455E+01 -1.31600E+03 -4.79934E+02 -2.10523E+03  2.26000E+02
 -1.51214E+03 -1.35641E+03  1.57606E+03 -3.45927E+03  4.46973E+02 -1.75971E+03  2.56237E+03 -5.47235E+02
  1.64496E+03 -2.67476E+02  1.74554E+03  2.40329E+03 -4.95010E+02  1.89986E+03  1.26323E+02  1.12533E+03
 -3.22673E+01  8.56167E+02 -1.08503E+03  5.34410E+02 -1.36966E+03  1.38921E+02 -3.60156E+02 -1.38363E+02
 -1.51341E+03 -5.14692E+00 -6.74513E+02  5.20241E+02 -3.42887E+02 -7.97641E+01 -1.15189E+03 -1.02884E+03
  1.14478E+03 -1.50584E+02 -5.53614E+01 -6.90340E+02  1.68740E+03  6.62090E+02 -1.54675E+02  2.10410E+03
 -1.27032E+03  2.20445E+03 -1.69249E+03  1.50304E+03 -1.66697E+03 -1.00970E+02 -1.63187E+03 -1.00324E+03
 -4.83802E+02 -3.88626E+02 -6.07363E+02 -5.40296E+02  1.55473E+02 -2.87920E+02  1.10071E+03  3.98231E+00
 -4.90451E+02  4.31815E+02 -5.72499E+02  5.99761E+02 -2.66272E+02 -7.36384E+02  3.04325E+02  4.98338E+01
  6.87335E+02  4.75664E+02  1.29948E+02  8.80831E+02  7.13621E+01  1.67856E+02  4.54795E+02  5.67776E+02
 -7.31939E+02  2.04875E+02 -1.05469E+03  4.51010E+02 -1.21955E+03  2.45218E+02 -4.58296E+02 -1.39277E+03
  3.63596E+02  4.57412E+01  9.20296E+02 -4.93631E+02  2.10984E+03 -2.43405E+01  1.92910E+02  8.88445E+02
  5.57749E+02  9.47424E+02 -6.91426E+02  1.92330E+02 -1.15991E+03  6.35647E+02 -4.88410E+02  1.05510E+03
 -1.36022E+03  4.82403E+02 -7.45869E+02  3.07684E+02  6.27883E+02 -8.41550E+02  4.28707E+02  2.67099E+02
 -1.46591E+03 -6.50689E+02 -1.50075E+03 -2.75307E+02  7.00460E+02 -1.36094E+03  1.77104E+03 -5.36185E+02
  1.46740E+03 -3.21413E+02 -1.69929E+03 -7.23325E+02 -2.09654E+02 -3.52466E+01  1.00516E+03 -3.30496E+01
