 $NMID ID='MM_0lb_SNR200_19hz_g50_73.RAW', FMTDAT='(8E13.5)'
 TRAMP=1., VOLUME=1. $END
  3.09479E+05 -5.86813E+01  3.37170E+05  2.51117E+05  8.38868E+04  3.37643E+05 -1.32449E+05  2.49872E+05
 -1.89656E+05  8.17591E+04 -1.11438E+05 -3.23895E+04  2.65205E+03 -4.96063E+04  5.31204E+04 -5.23932E+01
  3.51708E+04  5.33598E+04 -1.69879E+04  7.57294E+04 -6.09727E+04  6.26639E+04 -8.27369E+04  3.14609E+04
 -8.09356E+04 -1.07628E+04 -5.65088E+04 -5.00340E+04 -1.57428E+04 -6.78970E+04  2.69804E+04 -4.41310E+04
  3.86229E+04  3.56976E+03  1.48066E+04  4.76038E+04 -3.32592E+04  4.51172E+04 -6.47449E+04 -6.37571E+02
 -5.19560E+04 -5.59288E+04 -5.57653E+03 -7.63914E+04  3.20606E+04 -5.36146E+04  4.78175E+04 -1.62915E+04
  4.20673E+04  1.07495E+04  3.05546E+04  2.53152E+04  1.51692E+04  2.84716E+04 -3.53720E+03  2.81960E+04
 -2.16955E+04  1.23005E+04 -1.88608E+04 -4.35160E+03  3.25911E+03 -7.98561E+03  2.06803E+04  9.77058E+03
  7.51245E+03  3.29383E+04 -3.15613E+04  3.40702E+04 -6.13438E+04  2.64873E+03 -5.55848E+04 -4.07434E+04
 -1.20432E+04 -6.10029E+04  3.80183E+04 -4.41714E+04  5.51096E+04 -2.21181E+03  3.21149E+04  3.08230E+04
 -6.70447E+03  3.34438E+04 -2.94796E+04  1.42453E+04 -2.88313E+04 -5.53755E+03 -1.37231E+04 -1.05359E+04
 -8.00755E+03 -1.11953E+04 -1.39837E+03 -1.65047E+04  5.85168E+03 -2.29614E+04  1.49940E+04 -1.40497E+04
  1.22850E+04  4.07026E+03 -5.59603E+03  1.26191E+04 -1.95734E+04 -2.32068E+03 -8.02012E+03 -3.04570E+04
  2.15101E+04 -4.11128E+04  4.40934E+04 -1.76057E+04  4.27936E+04  1.83434E+04  1.29003E+04  4.14707E+04
 -1.57084E+04  3.08912E+04 -2.35555E+04  5.53714E+02 -8.42998E+03 -2.69187E+04  2.04889E+04 -3.08107E+04
  3.82615E+04 -7.80985E+03  3.15501E+04  2.23437E+04  1.55045E+04  4.18844E+04 -7.63545E+03  4.44075E+04
 -2.91284E+04  3.12740E+04 -3.76142E+04  8.58138E+03 -3.88927E+04 -1.54338E+04 -2.05501E+04 -3.43667E+04
  8.16788E+03 -3.43111E+04  2.89119E+04 -1.20198E+04  2.65544E+04  1.05273E+04  3.33658E+03  1.83420E+04
 -1.38114E+04  7.30758E+03 -9.39732E+03 -7.49620E+03  5.65119E+03 -9.93245E+03  1.67034E+04  7.01832E+03
  1.29027E+04  2.09795E+04 -6.58071E+03  2.36380E+04 -2.09041E+04  9.65795E+03 -2.63342E+04 -6.11175E+03
 -1.66202E+04 -1.55390E+04 -5.91723E+03 -1.72760E+04  3.64941E+03 -1.49539E+04  1.24507E+04 -1.39413E+04
  2.02352E+04 -1.23339E+04  2.80860E+04  2.51940E+03  2.11185E+04  1.74009E+04  3.69130E+03  3.14274E+04
 -1.58190E+04  2.67215E+04 -2.46032E+04  9.79600E+03 -1.89002E+04 -1.04856E+04 -4.31645E+03 -1.47145E+04
  1.75708E+03 -3.52347E+03 -3.14974E+03  5.85700E+03 -1.23591E+04  4.84943E+03 -1.32020E+04 -5.68127E+03
 -8.52544E+03 -1.49069E+04  3.91549E+03 -1.90474E+04  1.20978E+04 -1.43365E+04  1.43074E+04 -1.28974E+03
  9.22634E+03  1.02356E+04  2.33532E+02  1.59979E+04 -1.09278E+04  9.71536E+03 -1.55904E+04 -2.75948E+03
 -1.23117E+04 -1.45526E+04 -9.46607E+02 -1.82511E+04  7.35725E+03 -1.49108E+04  1.57022E+04 -6.67352E+03
  1.48297E+04  1.04265E+03  1.01681E+04  4.05145E+03  4.83597E+03  5.08706E+02  7.05153E+03 -1.53924E+03
  1.41460E+04  2.83940E+03  1.47341E+04  1.35350E+04  8.99390E+03  2.45119E+04 -2.93235E+03  2.61718E+04
 -1.69190E+04  2.04090E+04 -2.42681E+04  9.36432E+03 -2.52393E+04 -2.40446E+03 -2.01716E+04 -1.37093E+04
 -9.84505E+03 -1.97938E+04  7.40595E+03 -1.90303E+04  1.53704E+04 -1.03936E+04  1.50952E+04  4.44574E+03
  6.61330E+03  1.09096E+04 -6.90559E+03  1.08622E+04 -1.25318E+04  2.73946E+03 -9.43369E+03 -6.95087E+03
 -2.45283E+02 -1.28459E+04  7.06758E+03 -9.38544E+03  7.07292E+03 -1.74722E+03 -3.29864E+01  5.32488E+03
 -5.92168E+03  2.03145E+03 -3.98619E+03 -4.96300E+03  7.23648E+02 -1.06702E+04  6.68355E+03 -1.02528E+04
  1.15174E+04 -4.25870E+03  1.26743E+04  3.37776E+03  9.73761E+03  9.38846E+03  5.67748E+03  1.38271E+04
 -1.55414E+03  1.59862E+04 -1.01272E+04  1.00636E+04 -1.03841E+04  2.81362E+03 -9.13664E+03 -1.39503E+03
 -4.89258E+03 -3.20256E+03 -2.11692E+02  2.60529E+03 -1.76717E+03  1.37052E+03 -3.87546E+03  2.56640E+03
 -8.40196E+03  8.52498E+02 -7.89705E+03 -6.75889E+03 -2.99699E+03 -1.11240E+04  2.71211E+03 -8.55613E+03
  5.87025E+03 -3.13843E+03  6.36698E+03  3.04942E+03  9.96358E+02  2.61076E+03 -3.04879E+03  1.57577E+02
 -2.93787E+03 -5.25946E+03 -9.54762E+02 -7.99022E+03  4.18672E+03 -7.62367E+03  9.69978E+03 -5.47021E+03
  1.02717E+04  8.01033E+02  8.51028E+03  4.43261E+03  5.56448E+02  8.12044E+03 -5.07486E+03  8.41299E+03
 -7.20340E+03  2.00448E+03 -3.41806E+03 -1.16869E+03  1.68391E+03 -2.26644E+03  4.28484E+03 -5.45172E+02
  4.15287E+03  3.83000E+03  8.48760E+02  5.68073E+03 -3.72074E+03  5.80473E+03 -8.23692E+03  1.73952E+03
 -4.71676E+03 -4.15118E+03  1.00795E+03 -5.89062E+03  3.09984E+03 -3.93392E+03  3.46564E+03  1.56919E+03
 -2.42620E+02  3.62842E+03 -3.76789E+03  4.98103E+03 -4.07936E+03  1.46549E+03 -4.89187E+03 -1.08998E+03
 -2.43013E+03 -5.58807E+03  1.46763E+03 -7.60894E+03  5.86918E+03 -4.67637E+03  5.93179E+03  7.15443E+02
  4.23684E+03  5.54948E+03  3.94822E+02  7.66678E+03 -5.46953E+03  3.69937E+03 -6.52107E+03 -2.25475E+02
 -5.23663E+03 -4.75596E+03 -8.54584E+02 -4.46446E+03  1.53529E+03 -5.15896E+03  1.88593E+03 -3.19880E+03
  3.05756E+03  7.08481E+02  5.27734E+02  1.65139E+03  7.07158E+02  2.16172E+02  1.66030E+02 -2.48534E+03
  3.38676E+03 -7.12694E+02  4.83637E+03  2.55149E+01  5.75863E+03  3.29658E+03  4.75141E+03  6.40965E+03
 -1.37061E+03  7.84510E+03 -6.89388E+03  5.41317E+03 -8.01709E+03  1.23720E+03 -7.60267E+03 -2.06923E+03
 -4.25526E+03 -6.12178E+03  6.56020E+02 -4.76995E+03  3.09389E+03 -1.77731E+03  1.87496E+03 -1.09578E+03
  1.88822E+03 -1.17592E+03  1.62056E+03 -3.31565E+03  3.75214E+03 -6.94671E+02  4.11437E+03  5.36847E+02
  3.59626E+03  7.77187E+02  1.58256E+03  2.84741E+03 -2.43582E+03  2.90581E+03 -3.60773E+03  2.73796E+03
 -4.59186E+03 -1.57242E+03 -1.67489E+03 -2.85501E+03 -4.56839E+02 -5.02238E+03  3.06696E+03 -4.81715E+03
  4.21028E+03 -3.34358E+03  6.43337E+03 -8.89844E+02  4.79475E+03  3.98990E+03  9.60963E+02  5.21068E+03
 -2.34957E+03  5.19014E+03 -3.73252E+03  1.27453E+03 -2.37370E+03 -1.03944E+03 -6.57650E+02  1.05894E+03
  1.37534E+02  1.15699E+03 -1.50750E+02  1.78917E+03 -2.73018E+03  3.46848E+02 -3.74833E+03 -6.28864E+02
 -1.37791E+03 -3.70334E+03  8.37666E+02 -4.25969E+03  2.13102E+03 -3.13420E+03  4.35369E+03 -1.18412E+02
  3.17949E+03  1.96474E+03  2.45447E+03  2.83502E+03 -7.00971E+02  4.36076E+03 -3.53225E+03  2.31652E+03
 -2.98850E+03  3.63542E+02 -3.93002E+03 -2.14634E+03 -1.34964E+03 -3.92015E+03  2.24385E+03 -1.93342E+03
  3.02302E+03 -8.35598E+02  2.55963E+03  7.42336E+02  2.94568E+02  1.21177E+03  5.24451E+02  4.09653E+02
  6.93203E+02  1.83537E+02  3.20203E+02  1.35900E+03  1.55127E+03  1.61848E+03  1.24379E+03  1.89643E+03
 -2.67980E+03  3.14440E+03 -1.78191E+03  3.47696E+03 -2.55552E+03  7.45250E+02 -4.14390E+03 -4.20777E+02
 -1.22899E+03 -2.91349E+03  2.47201E+02 -4.41402E+03  2.38293E+03 -2.72394E+03  1.79885E+03 -1.74266E+03
  2.39257E+03  1.55007E+03 -3.65073E+02  2.92322E+03 -5.07203E+02  2.28010E+02 -1.65406E+03 -4.33426E+02
 -2.11320E+03 -1.68175E+03  1.55247E+03 -1.64220E+03  8.84003E+02 -4.45457E+02  1.26321E+03  9.40128E+02
  8.79797E+01  6.36769E+02  1.41166E+03 -1.18488E+03  2.55400E+02  1.05815E+03 -2.85140E+02  3.15224E+01
  5.20920E+02 -9.20187E+02  2.31363E+03 -4.47102E+02 -7.05399E+01  1.78761E+03 -8.57522E+02  2.18944E+03
 -6.62620E+02  1.42716E+03 -2.29170E+03  3.22162E+02 -1.12788E+03 -1.12829E+03  1.16167E+03 -1.18712E+03
 -5.59698E+01 -4.99982E+02  8.78544E+02 -1.22038E+03  2.21283E+02  2.03206E+03 -2.52045E+02  7.55222E+02
 -7.05497E+02  4.96097E+02 -1.62238E+03 -1.33809E+03 -1.22285E+03 -1.85932E+03  2.57419E+02 -1.77542E+03
  1.49151E+03  3.74604E+02  1.39559E+02 -2.56058E+01  9.34708E+02 -1.24555E+03  4.87098E+02 -4.83564E+02
  6.12773E+02 -1.37325E+03  5.84752E+00 -8.45766E+02  4.42829E+02 -1.75592E+03  2.05629E+03 -9.33111E+02
  1.49066E+03  3.04805E+02  1.66958E+03 -6.99204E+02  5.63369E+02  1.42467E+03  8.34837E+01  1.42346E+03
 -1.93404E+03  5.21053E+02 -3.87216E+02  2.04963E+02 -9.67532E+02 -6.06795E+02  1.89274E+02 -1.56968E+03
  1.40497E+02 -1.33627E+01 -4.06351E+02  2.02599E+02 -6.02075E+01  5.41999E+02  4.80271E+02  1.30797E+03
 -1.34039E+02  1.78660E+03  7.35588E+01  4.71424E+02 -2.18144E+01  1.10828E+03 -6.24923E+02  1.36980E+03
  2.67055E+02  6.18170E+02 -1.53663E+03  1.12219E+03 -1.57832E+03  5.31317E+02 -2.15398E+03 -8.03782E+02
 -3.97128E+02 -1.93414E+03  5.93535E+02 -3.43066E+03  1.49109E+03 -2.14871E+03  1.77325E+03 -1.69500E+03
  1.72757E+03 -3.23352E+02  1.19796E+03  1.70964E+03 -6.63641E+02  8.14036E+01 -1.15122E+03  7.33256E+02
 -7.35422E+02  3.86733E+01  1.29638E+02  6.77793E+02 -7.75965E+02 -1.85665E+02  7.20339E+01 -3.39571E+02
 -1.29513E+03 -2.84186E+02 -1.52399E+03  2.32660E+02  4.53562E+01 -7.46444E+02 -1.01704E+03 -1.99769E+03
  1.16611E+03 -6.20460E+02  3.14254E+01  1.16138E+03  1.52238E+03  4.93655E+02  1.24684E+02  1.80083E+03
 -8.22022E+02  1.97698E+03 -2.71559E+03  1.42126E+03 -1.69841E+03 -2.30095E+01 -1.16552E+03 -1.13356E+03
 -1.16244E+03 -9.44078E+02 -7.66663E+01 -5.19002E+01 -1.45397E+02 -1.86047E+03  9.29637E+02  7.75894E+02
  1.22355E+03  1.26462E+03 -2.86694E+02 -2.30795E+02 -2.79299E+02 -9.42988E+02 -2.74340E+02 -1.45961E+02
 -6.08492E+02  6.03718E+02  7.17266E+02 -1.52514E+02  2.94491E+02  1.04973E+03  8.53919E+02  2.79882E+02
 -2.51631E+02  5.38095E+02 -4.75058E+02  1.33245E+03 -1.21795E+03  7.23021E+02  4.94478E+02 -6.07715E+02
 -3.58037E+02 -1.18852E+03  1.44216E+03 -6.83950E+02  5.20137E+01 -4.51172E+02  1.09609E+02  6.87553E+02
  3.95207E+02  1.09121E+03 -8.76200E+02  1.57918E+02 -7.87317E+02  6.37925E+01 -1.37363E+01  1.23229E+03
 -6.37016E+01  3.52475E+02 -1.22151E+03  8.09505E+02 -2.99101E+02  3.20046E+02 -2.05416E+03 -2.01331E+03
 -7.02935E+02  2.19034E+01  3.65950E+02 -1.28347E+02  8.97054E+02 -9.26168E+02  5.86529E+02 -1.30818E+02
  3.82665E+02 -1.31198E+02  3.17492E+02  4.28583E+02 -1.45729E+03  9.35038E+02  9.21124E+01  1.23253E+00
