 $NMID ID='MM_0lb_SNR200_15hz_g60_8.RAW', FMTDAT='(8E13.5)'
 TRAMP=1., VOLUME=1. $END
  3.09847E+05  1.07747E+03  3.38387E+05  2.50017E+05  8.56974E+04  3.38667E+05 -1.32366E+05  2.51349E+05
 -1.90971E+05  8.33317E+04 -1.12044E+05 -3.22406E+04  1.35786E+03 -4.92846E+04  5.38264E+04 -3.76771E+02
  3.38765E+04  5.22747E+04 -1.77698E+04  7.54982E+04 -6.13153E+04  6.43913E+04 -8.36294E+04  3.13574E+04
 -8.13849E+04 -1.24581E+04 -5.86064E+04 -5.18009E+04 -1.59831E+04 -7.10742E+04  2.83772E+04 -4.56111E+04
  4.07589E+04  3.64732E+03  1.67686E+04  4.67939E+04 -3.47354E+04  4.69447E+04 -6.72334E+04  8.75436E+01
 -5.44838E+04 -5.71771E+04 -7.38029E+03 -7.83362E+04  3.39511E+04 -5.54810E+04  4.94621E+04 -1.71378E+04
  4.48148E+04  1.19256E+04  3.25032E+04  2.59458E+04  1.55968E+04  2.94078E+04 -4.14392E+03  2.71295E+04
 -2.17698E+04  1.34087E+04 -1.93025E+04 -6.17063E+03  5.78986E+03 -8.31250E+03  2.23545E+04  1.21877E+04
  5.55286E+03  3.62101E+04 -3.32543E+04  3.53009E+04 -6.45956E+04  2.59334E+03 -5.64003E+04 -4.28235E+04
 -1.20130E+04 -6.30924E+04  3.87660E+04 -4.63975E+04  5.85618E+04 -1.85065E+03  3.48138E+04  3.25568E+04
 -4.91288E+03  3.65463E+04 -2.97261E+04  1.75529E+04 -3.08215E+04 -3.84037E+03 -1.75071E+04 -1.15753E+04
 -8.32230E+03 -1.34281E+04 -2.97701E+02 -1.75918E+04  7.76133E+03 -2.30321E+04  1.62975E+04 -1.28844E+04
  1.13112E+04  6.29787E+03 -9.18307E+03  1.32507E+04 -2.15436E+04 -5.34251E+03 -9.40379E+03 -3.44198E+04
  2.29894E+04 -4.43763E+04  4.88902E+04 -1.96039E+04  4.59775E+04  1.99782E+04  1.69001E+04  4.41251E+04
 -1.64342E+04  3.34622E+04 -2.46128E+04  2.45550E+03 -9.27086E+03 -2.83584E+04  2.03538E+04 -3.42841E+04
  4.18656E+04 -9.11212E+03  3.67360E+04  2.44575E+04  1.84393E+04  4.68767E+04 -8.86356E+03  5.14641E+04
 -3.16036E+04  3.45515E+04 -4.27391E+04  8.87859E+03 -4.34342E+04 -1.64778E+04 -2.29443E+04 -3.77731E+04
  8.54820E+03 -3.76672E+04  3.11518E+04 -1.49928E+04  3.00421E+04  1.11905E+04  5.06023E+03  2.03909E+04
 -1.41900E+04  8.58385E+03 -9.34665E+03 -6.17650E+03  5.05349E+03 -1.10389E+04  1.76116E+04  5.57175E+03
  1.40303E+04  2.33080E+04 -5.31638E+03  2.62309E+04 -2.05470E+04  1.12706E+04 -2.90011E+04 -5.16529E+03
 -2.06434E+04 -1.66760E+04 -9.70667E+03 -2.19941E+04  4.15788E+03 -1.97238E+04  1.64095E+04 -1.84605E+04
  2.70191E+04 -1.22129E+04  3.45620E+04  2.17140E+03  2.46248E+04  2.13648E+04  4.86265E+03  3.67394E+04
 -1.78748E+04  2.95090E+04 -2.97662E+04  1.02879E+04 -2.15158E+04 -1.16348E+04 -4.83299E+03 -1.35408E+04
  2.91055E+03 -1.52638E+03 -5.08818E+03  7.15556E+03 -1.59391E+04  5.00888E+03 -1.71703E+04 -6.88200E+03
 -9.09891E+03 -1.92299E+04  4.35269E+03 -2.45669E+04  1.58446E+04 -1.68358E+04  1.78130E+04 -1.42645E+03
  1.13249E+04  1.44258E+04 -1.38676E+03  1.83190E+04 -1.40505E+04  1.20083E+04 -1.87775E+04 -3.02077E+03
 -1.43782E+04 -1.68440E+04 -1.89204E+03 -2.30218E+04  1.22369E+04 -1.89389E+04  2.00772E+04 -1.05740E+04
  1.82579E+04 -6.22774E+02  1.30266E+04  3.77760E+03  7.37667E+03  4.77697E+02  1.02802E+04 -2.26740E+03
  1.83087E+04  2.39729E+03  2.07809E+04  1.54527E+04  1.29848E+04  2.93843E+04 -4.05576E+03  3.50510E+04
 -2.17516E+04  2.74686E+04 -3.17506E+04  1.53167E+04 -3.42498E+04 -2.41861E+03 -3.03228E+04 -2.03316E+04
 -1.18110E+04 -2.79111E+04  1.00470E+04 -2.53532E+04  2.08071E+04 -1.26943E+04  2.02714E+04  4.20317E+03
  6.99942E+03  1.36680E+04 -9.94943E+03  1.37168E+04 -1.60414E+04  2.84907E+03 -1.34056E+04 -1.01946E+04
  9.40975E+02 -1.47923E+04  8.37463E+03 -1.15567E+04  1.02823E+04 -4.08746E+02  3.56437E+03  5.46548E+03
 -6.43332E+03  2.76012E+03 -6.12128E+03 -5.81436E+03  4.20276E+01 -1.42564E+04  8.69764E+03 -1.50556E+04
  1.70963E+04 -7.92762E+03  1.82382E+04  3.04852E+03  1.55119E+04  1.41870E+04  6.64244E+03  2.10766E+04
 -3.74102E+03  2.14583E+04 -1.54168E+04  1.41629E+04 -1.59132E+04  2.97867E+03 -1.17345E+04 -2.84491E+03
 -5.98161E+03 -4.19966E+03 -1.85309E+03  1.31727E+03 -2.71560E+03  2.07763E+03 -5.38072E+03  4.96206E+03
 -1.06171E+04 -1.91186E+03 -1.11815E+04 -8.04969E+03 -3.66351E+03 -1.47246E+04  4.80074E+03 -9.97660E+03
  8.91425E+03 -4.90116E+03  6.90675E+03  3.15742E+03 -9.88521E+02  4.79605E+03 -4.77476E+03 -2.48860E+02
 -4.67803E+03 -6.71259E+03 -1.42234E+03 -1.21771E+04  5.68292E+03 -1.03749E+04  1.47999E+04 -7.02297E+03
  1.67963E+04  1.38548E+03  1.21941E+04  9.80045E+03  3.03013E+03  1.25830E+04 -7.36497E+03  1.13148E+04
 -1.00045E+04  3.81895E+03 -4.23687E+03 -2.88936E+03  7.35227E+02 -2.64429E+03  6.25533E+03 -9.45713E+02
  6.45408E+03  5.39805E+03  4.41802E+02  8.86271E+03 -6.41145E+03  8.63973E+03 -9.99547E+03  1.50769E+03
 -7.03950E+03 -5.18129E+03  1.57919E+03 -8.71227E+03  4.69223E+03 -4.41248E+03  5.47524E+03  1.76792E+03
  1.20032E+03  7.10769E+03 -7.17083E+03  8.36201E+03 -9.44942E+03  4.31825E+03 -9.00506E+03 -2.54586E+03
 -4.21785E+03 -9.02153E+03  2.45502E+03 -1.17227E+04  8.17946E+03 -5.78794E+03  9.58798E+03  1.74816E+03
  6.99464E+03  8.21105E+03 -6.48078E+02  1.04646E+04 -7.44421E+03  5.19448E+03 -8.52661E+03 -4.72841E+01
 -6.93257E+03 -7.62884E+03 -1.71466E+03 -6.66858E+03  4.88311E+03 -7.63659E+03  5.62535E+03 -3.67157E+03
  3.65584E+03  2.71712E+03  1.54849E+02  1.04961E+03 -6.87126E+02 -1.80090E+03 -3.33227E+02 -3.80854E+03
  7.38638E+03 -1.95197E+03  9.99192E+03  1.61324E+03  8.10317E+03  6.90011E+03  7.57592E+03  1.06259E+04
 -2.79238E+03  1.39799E+04 -1.18038E+04  1.07799E+04 -1.48296E+04  3.22754E+03 -1.27241E+04 -5.25698E+03
 -4.71409E+03 -9.36087E+03 -6.76739E+02 -9.59716E+03  4.00295E+03 -3.40618E+03  2.63361E+03 -3.79348E+03
  2.88045E+03 -1.79683E+03  2.87999E+03 -2.41947E+03  4.98791E+03 -2.99067E+03  5.57522E+03  5.30794E+02
  7.49984E+03  2.49569E+03  2.32138E+03  5.18500E+03 -2.29148E+03  6.55108E+03 -6.93558E+03  3.72767E+03
 -8.50358E+03 -1.54501E+03 -3.50290E+03 -5.37391E+03  3.93393E+02 -8.59587E+03  5.40896E+03 -7.70381E+03
  9.50617E+03 -6.32266E+03  9.91691E+03 -6.37304E+02  7.37216E+03  7.27613E+03  1.70593E+03  1.02810E+04
 -4.76313E+03  8.79133E+03 -5.79607E+03  2.60347E+03 -4.42443E+03 -1.89756E+03 -8.54207E+02 -9.53496E+02
 -1.25230E+03  1.37751E+02 -2.37677E+03  1.96540E+03 -4.09284E+03  1.18061E+03 -6.12052E+03 -5.32989E+02
 -3.22671E+03 -4.34002E+03  3.51836E+02 -7.31547E+03  5.52639E+03 -6.56034E+03  6.62547E+03 -2.05905E+03
  6.45418E+03  3.44461E+03  3.40384E+03  6.84280E+03 -8.74330E+02  6.93429E+03 -6.57211E+03  3.73557E+03
 -6.67749E+03  1.08727E+03 -5.29080E+03 -5.01256E+03  6.69546E+02 -6.42762E+03  3.24450E+03 -4.24048E+03
  3.32064E+03 -1.33870E+03  2.58306E+03  3.46830E+02  3.04855E+02  2.33013E+03  4.04397E+02  7.92675E+02
  2.52385E+03  5.77270E+02  1.48549E+03  7.95093E+02  1.96790E+03  2.30872E+03  1.10298E+03  4.15052E+03
 -2.28868E+03  4.19493E+03 -3.79222E+03  6.84064E+03 -5.45320E+03  2.70609E+03 -7.22358E+03 -1.60847E+03
 -3.73714E+03 -7.33609E+03  6.53561E+02 -7.66608E+03  3.12717E+03 -5.26221E+03  5.25062E+03 -2.14137E+03
  4.18318E+03  3.36517E+03  5.62421E+02  4.51402E+03 -4.89624E+02  7.03435E+02 -2.77037E+03 -1.41712E+03
 -1.41481E+03 -2.39694E+03  2.80436E+03 -3.50699E+03  2.15853E+03 -2.78567E+03  2.98794E+03  1.10993E+03
  1.16026E+03  1.37792E+03  5.96019E+02  8.40949E+01 -4.59395E+02  5.14170E+02  1.60555E+03 -1.46115E+03
  6.51434E+02 -1.23843E+03  1.92999E+03  1.58245E+03  1.95124E+03  5.36749E+03 -4.14990E+02  3.62168E+03
 -1.70768E+03  2.10279E+03 -3.57778E+03  5.19173E+02 -5.17708E+03 -5.39592E+02 -1.40084E+03 -1.25356E+03
  4.36979E+02 -2.89443E+03  1.28013E+03 -1.53690E+03  1.29386E+03  1.86064E+03 -1.51036E+03  3.50387E+03
 -1.74368E+03  1.49134E+03 -1.62968E+03 -2.30347E+03 -2.40123E+03 -3.92750E+03  1.51876E+03 -3.10091E+03
  2.70245E+03 -2.32757E+03  2.71389E+03 -1.76360E+02  8.36612E+02  5.04507E+02 -2.03506E+02  2.90975E+03
  4.73891E+02  2.58646E+02 -3.00833E+03 -1.69349E+02  5.41540E+02 -2.71453E+03  2.62050E+03 -1.72874E+03
  2.20127E+03  1.60033E+03  4.15234E+03  1.77580E+03  1.50148E+03  3.37134E+03 -1.03152E+03  3.60940E+03
 -2.44349E+03  6.53537E+02 -3.71319E+03  1.16382E+03 -2.89612E+03 -2.81833E+03  1.18765E+03 -2.26123E+03
  2.21771E+03 -1.64464E+03  1.79609E+03  1.93864E+03 -1.24190E+02  2.32205E+03  6.10027E+02  1.36391E+03
 -1.27911E+03  1.33730E+03 -1.36595E+03  1.05470E+03 -1.61085E+03 -2.10459E+02 -1.67620E+03 -2.02426E+00
 -8.02002E+02  1.98604E+03 -3.22250E+03  6.46263E+02 -3.99854E+03  2.46523E+02 -5.18590E+03 -2.37327E+03
 -3.04779E+03 -3.61021E+03  3.23094E+02 -5.38597E+03  2.94705E+03 -5.22065E+03  7.11297E+03 -2.35669E+03
  4.41765E+03  1.18756E+03  2.46922E+03  3.25602E+03  4.14585E+02  3.94175E+03 -2.08207E+03  3.93912E+03
 -1.42558E+03  1.07645E+03 -1.74501E+03  2.10077E+02 -1.55389E+03 -3.08812E+02 -2.65393E+02 -2.89625E+02
  8.08103E+01  4.45885E+02 -7.10055E+02 -4.34104E+01  6.30535E+01 -8.35099E+02 -4.53520E+02 -1.82508E+03
  2.67315E+03 -2.01728E+03  2.96164E+03  4.08452E+02  3.18961E+03  3.16133E+03 -9.62096E+02  2.81628E+03
 -1.86970E+03  4.46951E+03 -3.30569E+03  2.13940E+03 -3.16603E+03  2.22322E+02 -1.91208E+03 -2.83535E+03
 -2.27164E+03 -2.64706E+03  5.26395E+02 -3.35128E+03  1.07010E+03 -3.36996E+02  2.06927E+03 -1.81514E+01
  1.42617E+03  9.36665E+02 -8.36835E+01  1.08444E+03  6.17653E+02 -7.71834E+02  5.53415E+02 -1.29830E+03
  8.45885E+02 -3.88213E+02  1.55239E+03  1.40480E+03  5.12661E+02  1.67820E+03 -8.66720E+02  1.15294E+03
 -7.72380E+02  1.96293E+03 -2.23585E+03  7.45906E+02 -1.14114E+03 -1.12414E+03 -1.16503E+03 -2.47794E+03
  1.91259E+03 -1.26221E+03  1.32570E+03  2.41191E+02  7.08526E+02 -6.51047E+02  1.70194E+03  2.27215E+03
  8.25021E+02  1.46094E+03  1.60486E+02  6.27037E+02 -1.23471E+03  8.66271E+02 -1.95910E+03  5.77436E+02
  4.21203E+02 -1.05665E+02 -6.82947E+02  1.75681E+02 -5.50395E+02 -4.57486E+01 -1.64280E+03 -6.64168E+02
 -1.29931E+03 -4.18738E+02 -1.25083E+02 -1.60703E+03  1.34428E+03 -3.05012E+03  8.76799E+02 -5.28269E+02
  2.13222E+03  5.84618E+02  7.23294E+02  2.16854E+03 -1.87424E+02  2.03406E+03 -8.83549E+02  5.79627E+02
