 $NMID ID='MM_0lb_SNR200_20hz_g40_37.RAW', FMTDAT='(8E13.5)'
 TRAMP=1., VOLUME=1. $END
  3.10689E+05  3.43174E+02  3.36460E+05  2.49661E+05  8.49784E+04  3.37892E+05 -1.31795E+05  2.50916E+05
 -1.89034E+05  8.18960E+04 -1.10484E+05 -3.31343E+04  1.64997E+03 -5.03479E+04  5.50255E+04  1.23144E+03
  3.47028E+04  5.28804E+04 -1.69871E+04  7.44018E+04 -6.11343E+04  6.29560E+04 -8.21367E+04  3.19221E+04
 -7.77655E+04 -1.09493E+04 -5.58375E+04 -5.00570E+04 -1.45877E+04 -6.73128E+04  2.63159E+04 -4.47970E+04
  3.91360E+04  4.74590E+03  1.49830E+04  4.65522E+04 -3.38507E+04  4.48067E+04 -6.44759E+04 -2.14282E+03
 -5.10687E+04 -5.52675E+04 -5.53632E+03 -7.40764E+04  3.34292E+04 -5.24844E+04  4.50852E+04 -1.52236E+04
  4.08647E+04  1.02512E+04  3.08766E+04  2.37548E+04  1.52206E+04  2.72879E+04 -5.37866E+03  2.69286E+04
 -2.15234E+04  1.36257E+04 -1.95556E+04 -3.56421E+03  3.55533E+03 -7.24986E+03  2.09933E+04  1.00676E+04
  7.00430E+03  3.18665E+04 -2.89980E+04  3.35713E+04 -5.92367E+04  3.12803E+03 -5.46104E+04 -4.01910E+04
 -1.18812E+04 -5.96714E+04  3.81186E+04 -4.17011E+04  5.50547E+04 -1.08263E+03  3.08462E+04  2.87976E+04
 -6.27748E+03  3.23506E+04 -2.67419E+04  1.15858E+04 -2.61268E+04 -5.17639E+03 -1.33348E+04 -1.01230E+04
 -7.31002E+03 -1.06536E+04 -1.04336E+03 -1.55543E+04  4.51711E+03 -2.26365E+04  1.58332E+04 -1.51840E+04
  1.24715E+04  4.16452E+03 -5.05324E+03  1.39385E+04 -1.77945E+04 -8.93487E+02 -8.55555E+03 -2.86743E+04
  2.02406E+04 -3.94552E+04  4.28561E+04 -1.73745E+04  4.05477E+04  1.79554E+04  1.47066E+04  3.91022E+04
 -1.56700E+04  2.91291E+04 -2.33716E+04  3.37947E+02 -6.77678E+03 -2.58769E+04  1.94923E+04 -2.93085E+04
  3.68539E+04 -6.51144E+03  2.88841E+04  2.21874E+04  1.42430E+04  4.01363E+04 -7.14362E+03  4.33202E+04
 -2.65330E+04  2.80848E+04 -3.47287E+04  7.33907E+03 -3.67078E+04 -1.43901E+04 -2.02819E+04 -3.32229E+04
  6.45071E+03 -3.18993E+04  2.70336E+04 -1.29170E+04  2.59607E+04  9.86755E+03  1.90289E+03  1.72145E+04
 -1.26423E+04  7.62486E+03 -1.01332E+04 -7.72543E+03  6.32664E+03 -9.43826E+03  1.72192E+04  6.93881E+03
  1.12126E+04  2.09549E+04 -6.35959E+03  2.34771E+04 -2.12485E+04  8.08192E+03 -2.39239E+04 -6.36667E+03
 -1.47834E+04 -1.45770E+04 -4.12485E+03 -1.44655E+04  2.95713E+03 -1.26152E+04  1.08378E+04 -1.12400E+04
  1.93642E+04 -1.15653E+04  2.59135E+04  6.75888E+02  1.92566E+04  1.45294E+04  4.85880E+03  3.12530E+04
 -1.45026E+04  2.62982E+04 -2.54492E+04  9.28162E+03 -1.85244E+04 -1.00534E+04 -3.46649E+03 -1.35985E+04
  2.18466E+03 -4.90409E+03 -1.36617E+03  5.14374E+03 -1.24257E+04  5.01869E+03 -1.17801E+04 -3.09665E+03
 -7.87696E+03 -1.44128E+04  3.36912E+03 -1.79153E+04  1.12593E+04 -1.34986E+04  1.34926E+04 -1.10776E+03
  6.97416E+03  8.77270E+03 -3.78636E+01  1.48896E+04 -8.89753E+03  7.79485E+03 -1.35838E+04 -2.49828E+03
 -1.01583E+04 -1.30924E+04 -1.43498E+03 -1.78395E+04  5.94294E+03 -1.38149E+04  1.36575E+04 -6.33944E+03
  1.26531E+04  1.92595E+03  8.99616E+03  3.54301E+03  5.09832E+03  3.08921E+02  6.69210E+03 -9.98098E+02
  1.25219E+04  3.00449E+03  1.24653E+04  1.09988E+04  7.84312E+03  2.25308E+04 -2.76807E+03  2.32489E+04
 -1.42160E+04  1.81132E+04 -2.10790E+04  8.17469E+03 -2.14461E+04 -1.88100E+03 -1.93746E+04 -1.23117E+04
 -8.83661E+03 -1.80751E+04  5.02319E+03 -1.70791E+04  1.50048E+04 -1.06213E+04  1.50218E+04  2.74379E+03
  7.44124E+03  1.01976E+04 -6.78843E+03  1.01426E+04 -1.16416E+04  1.21761E+03 -8.34686E+03 -7.16698E+03
  2.99244E+02 -1.06572E+04  5.33746E+03 -8.14789E+03  7.32830E+03 -9.70301E+02  1.77063E+03  4.50148E+03
 -4.65024E+03  1.25650E+03 -2.90562E+03 -3.71170E+03  5.36508E+02 -8.52376E+03  6.51024E+03 -9.30821E+03
  1.09888E+04 -3.09190E+03  8.91058E+03  2.06339E+03  8.99715E+03  8.60224E+03  4.28396E+03  1.20311E+04
 -2.06347E+03  1.43832E+04 -8.36193E+03  8.59347E+03 -9.84673E+03  2.95089E+03 -7.34769E+03 -1.66729E+03
 -3.59258E+03 -2.24197E+03 -1.44175E+03  1.04383E+03 -1.00106E+03  1.08480E+03 -2.99665E+03  2.94192E+03
 -8.00090E+03  3.14926E+02 -8.20204E+03 -6.58919E+03 -4.25099E+03 -1.05131E+04  2.77089E+03 -7.54038E+03
  5.95840E+03 -4.26963E+03  3.47425E+03  1.97452E+03  7.74264E+02  2.43419E+03 -3.71474E+03 -5.93951E+02
 -3.10827E+03 -4.21579E+03  3.80481E+01 -6.38009E+03  2.76291E+03 -6.60760E+03  8.80453E+03 -2.83222E+03
  9.19392E+03  1.32505E+03  8.39662E+03  4.72718E+03  1.35406E+03  7.08156E+03 -4.34392E+03  6.90612E+03
 -6.95866E+03  2.47109E+03 -3.10800E+03 -5.73156E+02  7.75879E+02 -1.20362E+03  3.95714E+03 -2.20276E+02
  3.86430E+03  2.29453E+03 -1.87205E+02  5.26044E+03 -3.27386E+03  5.76611E+03 -6.58565E+03  1.82829E+03
 -4.23494E+03 -2.32541E+03  2.22329E+02 -5.42645E+03  3.76156E+03 -2.81050E+03  2.14665E+03  1.15193E+03
  5.78005E+02  2.99824E+03 -3.24233E+03  3.73587E+03 -4.43148E+03  6.68153E+02 -3.07194E+03 -9.09390E+02
 -2.49282E+03 -4.30096E+03  1.28010E+03 -5.78218E+03  4.34327E+03 -3.64436E+03  4.18581E+03 -4.17849E+02
  3.70286E+03  3.65917E+03  8.41117E+02  6.64821E+03 -3.95223E+03  4.18047E+03 -4.92885E+03  2.41366E+02
 -4.66406E+03 -4.61075E+03 -1.05189E+03 -4.46444E+03  1.73012E+03 -3.77978E+03  2.16194E+03 -1.73453E+03
  3.05466E+03 -2.02869E+02  8.20936E+02  1.93878E+03  6.67678E+02  3.26683E+02 -8.14772E+02 -9.48191E+02
  3.53401E+03  6.47771E+02  4.51528E+03  4.61153E+02  5.46744E+03  2.30633E+03  5.08213E+03  6.96544E+03
 -8.18639E+02  6.91908E+03 -6.40047E+03  4.55232E+03 -9.02958E+03  4.93475E+02 -6.49997E+03 -2.31824E+03
 -3.17265E+03 -5.08219E+03 -7.95397E+02 -4.30394E+03  1.76807E+03 -6.29410E+02  8.21051E+02 -1.18421E+03
  3.64579E+02 -6.82336E+02  1.04652E+03 -2.40448E+03  2.80350E+03 -1.31309E+03  3.92136E+03  4.51523E+02
  3.94965E+03  1.15289E+03  1.44469E+03  2.48207E+03 -1.14901E+03  1.50291E+03 -3.82246E+03  1.80545E+03
 -4.22295E+03 -1.51512E+03 -1.54036E+03 -2.51479E+03  4.48649E+02 -4.12123E+03  3.24834E+03 -3.56262E+03
  3.82245E+03 -4.32375E+03  5.74832E+03 -4.35356E+02  5.28466E+03  3.36125E+03  4.71312E+02  4.81847E+03
 -1.45555E+03  5.81776E+03 -2.32717E+03  2.51025E+03 -9.48111E+02 -1.47197E+03 -3.00809E+02 -5.18807E+02
 -6.66315E+02  7.82702E+02 -2.42740E+03  6.84823E+02 -1.99520E+03  1.03460E+02 -3.07823E+03 -3.31501E+02
 -9.10919E+02 -3.51269E+03  3.41650E+02 -3.31580E+03  1.91217E+03 -4.57728E+03  2.67107E+03  6.73217E+02
  3.22655E+03  2.59916E+03 -6.58507E+01  2.06200E+03 -5.09743E+02  4.28622E+03 -1.57853E+03  1.92270E+03
 -3.81198E+03  9.28339E+02 -2.81402E+03 -1.59701E+03  1.14837E+01 -3.48719E+03  2.18843E+03 -1.96445E+03
  2.44130E+03 -7.17862E+02  1.10293E+03 -2.87848E+01  2.39319E+02  6.34685E+02 -1.05736E+03 -2.27761E+02
  2.59461E+03 -2.76451E+02  1.59004E+03  7.50473E+02  3.97590E+02  2.42285E+03  1.95395E+03  1.39017E+03
 -1.36725E+03  1.90925E+03 -1.23219E+03  3.44818E+03 -2.41559E+03  1.61629E+03 -3.37173E+03  4.76216E+02
 -1.18873E+03 -2.71636E+03 -2.32580E+02 -4.22252E+03  1.85111E+03 -2.85154E+03  2.11501E+03 -1.09862E+03
  1.04257E+03  1.88974E+03  5.53986E+02  2.58065E+03 -3.17632E+02  4.88281E+02 -4.22495E+02 -2.18018E+02
 -1.17227E+03 -1.70804E+03  2.11699E+03 -5.63608E+02 -4.46367E+02 -1.14384E+03  1.61530E+03 -5.14415E+01
  6.72637E+02  3.59334E+02  6.81210E+02  8.71279E+01 -5.60320E+02  1.70838E+03  1.27873E+03 -7.71880E+02
  1.11710E+02 -6.33422E+01  1.84999E+03  5.95283E+02  3.28553E+02  1.41565E+03  5.43410E+02  2.33453E+03
 -9.90891E+02  2.26485E+03 -1.17451E+03  3.19186E+02 -1.33374E+03  2.91900E+02 -4.16709E+02 -3.06800E+02
  3.35962E+02 -7.51866E+02  1.02267E+03  3.09072E+02  3.65498E+01  5.94484E+02 -8.88182E+01  3.07968E+02
 -1.14542E+03  1.51096E+03 -1.24100E+03 -2.07797E+03 -4.97497E+02 -1.85449E+03 -4.38814E+02 -1.84552E+03
 -4.19319E+02  5.45142E+02  6.39182E+02 -1.50495E+02  1.27281E+03 -1.36650E+02  2.63131E+02  8.78966E+02
  5.01174E+02 -5.50686E+02  3.52969E+02 -3.81153E+02  6.78215E+02 -8.76078E+01  2.06735E+03 -9.89798E+02
  7.41586E+02  2.25788E+02  3.68294E+03  8.75087E+02  1.12732E+03  3.87078E+02 -2.51099E+02  9.10814E+02
 -8.28793E+02  3.81302E+02 -3.05888E+03  2.37680E+02 -1.70938E+03 -1.14582E+03  4.85077E+02  1.95531E+02
  1.73437E+03 -7.61246E+02  5.45091E+02  7.01407E+02 -6.17996E+02  1.31887E+03 -3.09871E+02  1.29700E+03
 -6.75307E+02  1.60033E+03 -4.30360E+02 -4.61861E+02  4.76907E+02 -1.57228E+02 -4.97329E+02  1.42356E+02
 -1.17169E+03  8.71801E+02 -8.93679E+02  6.22143E+02 -9.04021E+02  3.42981E+02 -2.48840E+03 -1.26838E+03
 -1.03406E+03 -2.14467E+03  6.10039E+02 -2.04100E+03  1.62775E+02 -2.04982E+03  1.33243E+03 -9.93305E+02
  9.32824E+02 -6.99611E+02  1.60791E+03  1.32982E+03 -4.15506E+02  8.71278E+02 -1.06365E+03  5.55774E+02
 -3.06321E+02  1.38882E+03 -1.39070E+03 -6.84515E+02 -6.63792E+02  5.81316E+02  3.30888E+02 -3.38877E+02
 -1.44165E+03  7.33409E+01 -2.90115E+02  9.32957E+02  1.02233E+03 -9.19199E+02 -3.31789E+02 -7.84933E+02
  2.09454E+03 -1.77349E+02  1.01169E+03  6.28500E+01  1.80410E+03  2.37634E+02 -1.31494E+03  1.12597E+03
 -4.07052E+02  1.73915E+03 -2.04997E+03  5.04329E+02 -1.24817E+03  9.94230E+01 -1.45468E+03 -4.23952E+02
 -1.42044E+03  5.73633E+01  1.73322E+02 -2.11172E+03  2.26252E+02  7.07153E+02  5.20144E+02  1.14990E+03
  9.13978E+02  1.57644E+02  5.32129E+02  9.98960E+02 -2.75231E+02 -5.85370E+02 -1.16307E+03  5.59969E+02
  3.46674E+02  1.84666E+02  1.15918E+01 -5.02780E+02  1.01285E+02  7.03244E+01  1.52805E+02  5.54053E+01
  2.79941E+01  2.92383E+00 -5.80354E+02 -3.89178E+01 -6.46646E+02 -1.25906E+03  1.51696E+02 -5.83467E+02
 -1.35666E+02 -1.53297E+03  7.53498E+02 -3.86295E+02  5.42032E+02 -1.18550E+03  9.34377E+02  1.36894E+03
  1.87727E+02  1.32806E+01 -4.70259E+02  2.51021E+02 -6.80868E+02  1.22724E+03 -6.95738E+02  8.04658E+01
  5.09929E+02 -9.60174E+02 -2.98057E+02 -1.55083E+02 -9.05411E+02 -2.83900E+02 -4.71541E+02  1.76071E+02
 -1.29244E+03  9.05703E+01 -7.15283E+02 -1.25846E+03 -4.02106E+02 -1.87072E+03  5.89351E+02  1.66838E+03
  1.02010E+03  3.30010E+02  9.00592E+02  1.40716E+03  7.57581E+02 -6.39836E+01 -7.28432E+02  1.50431E+03
