 $NMID ID='MM_0lb_SNR200_20hz_g55_76.RAW', FMTDAT='(8E13.5)'
 TRAMP=1., VOLUME=1. $END
  3.10073E+05  3.84206E+02  3.36801E+05  2.50440E+05  8.44116E+04  3.38780E+05 -1.31904E+05  2.50031E+05
 -1.90058E+05  8.31899E+04 -1.11623E+05 -3.24078E+04  1.72785E+03 -5.06285E+04  5.45744E+04 -1.15788E+03
  3.58203E+04  5.29251E+04 -1.64098E+04  7.37677E+04 -6.04111E+04  6.26648E+04 -8.33304E+04  3.17465E+04
 -8.04329E+04 -1.08538E+04 -5.55692E+04 -5.05885E+04 -1.43382E+04 -6.82848E+04  2.65848E+04 -4.37425E+04
  3.90257E+04  4.36879E+03  1.56659E+04  4.72134E+04 -3.42097E+04  4.53619E+04 -6.51172E+04 -4.61765E+02
 -5.26754E+04 -5.56150E+04 -5.21155E+03 -7.56712E+04  3.28885E+04 -5.33682E+04  4.71372E+04 -1.68732E+04
  4.07795E+04  1.07293E+04  3.06103E+04  2.54875E+04  1.69162E+04  2.96451E+04 -6.14626E+03  2.54624E+04
 -2.21111E+04  1.28852E+04 -1.84817E+04 -3.86610E+03  4.71014E+03 -7.15726E+03  2.11908E+04  1.18955E+04
  6.56722E+03  3.36965E+04 -3.07305E+04  3.47797E+04 -6.11816E+04  2.47632E+03 -5.65006E+04 -4.06441E+04
 -1.15224E+04 -6.19523E+04  3.84333E+04 -4.44004E+04  5.57727E+04 -2.53843E+03  3.21557E+04  3.13735E+04
 -6.12731E+03  3.22210E+04 -2.86755E+04  1.42189E+04 -2.81676E+04 -3.87936E+03 -1.48011E+04 -1.02847E+04
 -7.21984E+03 -1.20611E+04 -1.04549E+03 -1.73093E+04  6.96096E+03 -2.14452E+04  1.51560E+04 -1.34266E+04
  1.26044E+04  4.03633E+03 -6.28668E+03  1.32602E+04 -1.99883E+04 -2.99536E+03 -8.98514E+03 -3.01559E+04
  2.15849E+04 -4.09213E+04  4.52380E+04 -1.98375E+04  4.16100E+04  1.85087E+04  1.48084E+04  4.10703E+04
 -1.53544E+04  3.10244E+04 -2.36852E+04  1.41292E+03 -7.46455E+03 -2.57314E+04  2.04647E+04 -3.06416E+04
  3.85252E+04 -7.47914E+03  3.21360E+04  2.31984E+04  1.50630E+04  4.23395E+04 -8.69207E+03  4.41647E+04
 -2.71843E+04  2.96393E+04 -3.77622E+04  8.12375E+03 -3.80916E+04 -1.55184E+04 -2.14670E+04 -3.38513E+04
  6.69001E+03 -3.43017E+04  2.86794E+04 -1.37801E+04  2.62097E+04  1.04090E+04  2.91273E+03  1.77742E+04
 -1.27706E+04  6.88770E+03 -9.51233E+03 -7.05293E+03  6.22163E+03 -1.04574E+04  1.69728E+04  6.65416E+03
  1.28559E+04  2.17010E+04 -6.81184E+03  2.29848E+04 -2.16432E+04  9.43207E+03 -2.50736E+04 -6.40085E+03
 -1.63571E+04 -1.62013E+04 -5.28101E+03 -1.73372E+04  4.71287E+03 -1.52273E+04  1.10191E+04 -1.40865E+04
  2.07841E+04 -1.16026E+04  2.83983E+04  1.17560E+03  2.20463E+04  1.69616E+04  4.59624E+03  3.25428E+04
 -1.53684E+04  2.67303E+04 -2.55735E+04  8.70499E+03 -1.82899E+04 -1.10273E+04 -3.22619E+03 -1.48373E+04
  2.78234E+03 -3.59322E+03 -3.47023E+03  5.13055E+03 -1.27108E+04  5.46492E+03 -1.36956E+04 -4.74742E+03
 -7.92565E+03 -1.49791E+04  3.57193E+03 -1.94615E+04  1.27604E+04 -1.48953E+04  1.57119E+04 -5.33893E+02
  9.52239E+03  1.05434E+04  1.15730E+03  1.52074E+04 -9.87155E+03  8.25102E+03 -1.44166E+04 -3.16266E+03
 -1.02310E+04 -1.40949E+04 -3.04160E+03 -1.97216E+04  7.81949E+03 -1.44259E+04  1.62615E+04 -7.59824E+03
  1.41503E+04  5.57375E+02  1.06922E+04  3.48441E+03  4.50295E+03 -5.57908E+01  6.93717E+03 -1.45261E+03
  1.29092E+04  2.90070E+03  1.37691E+04  1.33534E+04  8.73133E+03  2.33630E+04 -3.84412E+03  2.62602E+04
 -1.52768E+04  2.05104E+04 -2.31941E+04  8.80458E+03 -2.40643E+04 -2.10240E+03 -2.13933E+04 -1.39840E+04
 -1.02958E+04 -1.99451E+04  5.23885E+03 -1.84726E+04  1.65667E+04 -1.09505E+04  1.59550E+04  2.75262E+03
  6.94774E+03  1.08251E+04 -7.00733E+03  9.36789E+03 -1.37611E+04  3.71404E+03 -9.99197E+03 -7.82255E+03
  1.71376E+02 -1.16969E+04  5.28355E+03 -9.89562E+03  7.49964E+03 -1.13559E+03  1.41128E+03  3.99896E+03
 -6.07631E+03  9.43979E+02 -3.29813E+03 -4.02568E+03  1.60911E+03 -8.82146E+03  7.49039E+03 -9.22841E+03
  1.14991E+04 -3.85411E+03  1.13847E+04  3.39251E+03  9.85604E+03  9.35100E+03  3.73832E+03  1.38924E+04
 -2.22004E+03  1.42008E+04 -9.33409E+03  1.02184E+04 -1.09597E+04  3.23009E+03 -8.49109E+03 -1.21373E+03
 -4.24455E+03 -2.88543E+03 -3.91947E+01  2.06894E+03 -2.09593E+03  3.39634E+03 -3.91238E+03  4.41752E+03
 -7.29105E+03 -1.62122E+02 -8.03939E+03 -7.09326E+03 -3.56901E+03 -1.10425E+04  2.70718E+03 -7.64387E+03
  7.45757E+03 -4.07725E+03  4.45904E+03  1.59895E+03  6.73695E+02  2.40829E+03 -3.06866E+03 -4.28945E+02
 -2.35506E+03 -4.52719E+03  5.96698E+01 -7.08968E+03  4.61970E+03 -7.16569E+03  9.60157E+03 -3.72756E+03
  1.12519E+04  9.61210E+02  7.49173E+03  5.89817E+03  1.57986E+03  7.76002E+03 -5.33466E+03  8.57756E+03
 -6.48760E+03  2.19167E+03 -3.42512E+03 -7.40121E+02  8.13594E+02 -2.38596E+03  4.83022E+03 -8.11209E+02
  4.11996E+03  3.07408E+03  1.12260E+03  6.37886E+03 -4.43923E+03  5.99047E+03 -7.43294E+03  2.29026E+03
 -3.68031E+03 -3.70580E+03  6.19465E+02 -5.35365E+03  3.64905E+03 -3.46614E+03  2.64012E+03  7.54149E+02
  6.57549E+02  3.27697E+03 -4.46061E+03  4.40685E+03 -4.40807E+03  2.03232E+03 -3.97561E+03 -1.33943E+03
 -2.88264E+03 -4.70732E+03  5.71469E+02 -6.28712E+03  4.23122E+03 -4.03771E+03  4.91365E+03  7.17888E+02
  5.32254E+03  5.35431E+03 -2.51079E+02  6.38948E+03 -4.92684E+03  3.58213E+03 -3.05965E+03  6.07598E+02
 -4.67665E+03 -5.43548E+03 -1.94041E+03 -5.83454E+03  2.28278E+03 -4.61972E+03  3.52824E+03 -2.65248E+03
  3.55664E+03  5.91195E+02  7.14552E+02  1.61725E+03  1.44326E+03  5.37977E+02  5.11592E+02 -1.57515E+03
  3.40841E+03  2.24928E+02  4.92214E+03  6.63353E+02  4.59122E+03  5.88398E+02  5.40448E+03  6.42698E+03
 -1.71614E+03  7.29856E+03 -6.60830E+03  5.82421E+03 -8.38534E+03  4.92369E+02 -6.55526E+03 -2.00959E+03
 -3.61276E+03 -5.93774E+03 -7.48918E+02 -5.28053E+03  9.53486E+02 -1.64035E+03  1.83981E+03 -6.30760E+02
  3.60524E+02 -1.12314E+03  1.76102E+03 -1.91507E+03  4.20129E+03 -3.30592E+02  3.45832E+03  6.11631E+02
  4.38485E+03  6.12008E+02 -7.12447E+02  2.83756E+03 -1.43197E+03  3.80161E+03 -4.27446E+03  1.80138E+03
 -4.94628E+03  5.49018E+02 -1.05917E+03 -3.14685E+03 -1.03879E+03 -4.44153E+03  1.20356E+03 -5.13367E+03
  4.31602E+03 -2.68379E+03  4.92820E+03 -1.31582E+03  4.25491E+03  4.40929E+03  1.60931E+03  4.76644E+03
 -5.70280E+02  3.90287E+03 -2.87934E+03  1.76364E+03 -5.21189E+02 -4.54622E+02  5.71792E+02 -1.46236E+02
 -7.56780E+02  6.86059E+02 -5.70989E+02  1.79091E+03 -2.83440E+03  4.12795E+02 -2.99518E+03  4.90406E+02
 -1.47886E+03 -3.02512E+03  1.68632E+03 -3.40026E+03  1.97580E+03 -3.71750E+03  2.51926E+03 -1.42143E+03
  2.73469E+03  1.44862E+03  1.51744E+03  2.40120E+03 -8.18005E+02  3.42100E+03 -2.11398E+03  1.89325E+03
 -2.83916E+03  7.68745E+02 -2.92933E+03 -6.69247E+02 -1.19452E+03 -2.44486E+03  2.46852E+03 -2.37453E+03
  2.07956E+03 -2.02997E+03  3.47125E+02  2.76682E+02  3.65776E+02  1.02840E+03  4.91361E+02  1.46718E+02
  5.98805E+02 -2.33050E+02  4.88408E+02  1.91902E+03  5.48772E+02  3.00616E+03  1.99014E+03  1.52518E+03
 -1.07265E+02  2.29633E+03 -1.84921E+03  2.90019E+03 -4.79091E+02  1.05617E+03 -2.23034E+03  2.88600E+02
 -1.06521E+03 -2.59739E+03  7.82828E+02 -3.06426E+03  1.14886E+03 -2.26504E+03  2.00891E+03 -1.40255E+02
  2.33152E+03  1.77920E+03  4.11318E+01  1.65478E+03 -9.38920E+02  1.14372E+03 -5.69399E+01  2.27498E+02
 -4.66839E+02 -1.20019E+03  1.08604E+03 -2.12092E+02  6.60270E+02 -1.08836E+03  2.14674E+03 -1.95321E+02
  1.61558E+03  4.04360E+02  8.25235E+02 -7.13883E+02  6.02158E+02  1.56032E+03  2.52880E+03 -8.28862E+02
 -6.23952E+02 -8.41304E+01  1.10238E+03  6.91950E+02  1.21761E+03  2.18371E+03 -1.04207E+03  2.40683E+03
 -8.66410E+02  6.15977E+02 -1.76105E+03  3.76494E+02 -1.94473E+03 -1.26234E+03  8.35455E+02 -1.32991E+02
 -4.71810E+02 -7.64938E+02  1.06898E+03 -1.11064E+03 -3.09056E+02  4.26450E+02 -9.28742E+02  1.02414E+03
 -1.02357E+03  7.76337E+02 -1.12709E+03 -1.73601E+03  2.38691E+02 -2.07152E+03  2.15158E+02 -1.48975E+02
  5.12651E+01  6.13664E+02  5.41500E+02  9.51299E+02  9.78274E+02  4.13034E+02  1.76049E+02  1.77749E+03
 -2.89802E+02  7.29644E+02 -7.23649E+02  6.35754E+02  1.53142E+03 -8.54570E+02  1.93172E+03  3.93456E+02
  8.35556E+02  4.47439E+02  1.32646E+03  9.43133E+02  2.84686E+02 -3.78642E+02 -1.16957E+02  3.72481E+01
 -1.29391E+03  2.20970E+02 -1.80423E+03 -3.38394E+01 -1.39607E+03 -2.02560E+02 -2.23770E+02  3.59396E+02
  6.13763E+02 -1.60019E+02  2.85290E+02  6.65183E+02  4.20452E+02  3.06997E+02 -1.41222E+01  6.39854E+02
 -4.65607E+02  1.30321E+03 -9.18044E+02  5.45863E+02  4.47588E+01  1.26102E+03 -2.14850E+02  9.79200E+02
 -6.32878E+02  9.30934E+02 -1.10556E+03  1.49260E+03 -8.28929E+02 -2.41506E+02 -2.02435E+03  1.50568E+02
 -1.23490E+03 -1.90631E+03  1.04139E+03 -2.68421E+03  5.84751E+02 -2.06282E+03  2.47682E+03 -1.51380E+03
  2.57049E+03  4.59687E+02  1.13801E+03  1.00984E+03 -8.34018E+02  7.40362E+02 -9.49063E+02  7.53852E+02
 -1.45271E+03  5.91798E+02 -3.96789E+02  3.33174E+02 -8.72122E+02 -3.86402E+02 -1.79467E+03 -8.42500E+02
 -3.14518E+02 -1.17665E+02 -1.00537E+03  5.69527E+02 -3.96083E+02 -3.85314E+02 -4.52124E+02 -5.27558E+02
 -3.07560E+02  2.55215E+02  4.20594E+02  1.27381E+02  1.42377E+03  3.79386E+02  7.81893E+02  2.36248E+02
 -3.63186E+02  2.29134E+03 -8.97085E+02  6.47829E+02 -5.28085E+02  1.29443E+02 -1.78070E+03 -1.38151E+03
 -5.64217E+02 -1.06119E+03  6.34391E+02 -2.17695E+03  7.75019E+01 -5.93049E+02  7.96385E+01 -4.02232E+02
  7.14126E+01 -5.64512E+02 -1.11913E+02  8.32060E+01 -6.97895E+02 -1.74092E+03  7.29320E+02 -3.82341E+02
 -8.66098E+02 -1.14602E+02  9.38177E+02  9.01035E+02  1.60321E+03  1.65317E+02  2.21684E+02  1.15654E+03
 -8.17803E+01 -1.01166E+02  1.68193E+02  4.23468E+01 -1.35774E+03 -5.17060E+02 -1.08339E+02 -5.43486E+02
  3.91054E+02  1.34103E+02 -1.83001E+02 -1.47866E+02  7.52786E+02 -7.64150E+01  1.39489E+02  6.56159E+01
  1.41379E+03  5.52597E+02  4.74690E+02  4.05343E+02 -1.76464E+03  4.18812E+02  4.48416E+01  1.22239E+02
 -6.11831E+02  6.19602E+02 -6.89297E+01  4.22150E+02 -1.41030E+03 -2.41068E+01 -1.06249E+03 -1.55021E+02
 -2.20060E+02  1.72027E+02 -9.71565E+02  4.83349E+01  7.96032E+02 -1.69289E+03  8.63667E+02 -3.53897E+02
  7.42016E+02 -2.84438E+02 -1.69823E+03 -8.49139E+02 -5.09418E+02  1.15302E+03 -1.16993E+02  7.49674E+02
