 $NMID ID='MM_0lb_SNR200_18hz_g50_60.RAW', FMTDAT='(8E13.5)'
 TRAMP=1., VOLUME=1. $END
  3.09380E+05  3.40007E+02  3.36815E+05  2.50105E+05  8.39085E+04  3.37723E+05 -1.33098E+05  2.50245E+05
 -1.90130E+05  8.34231E+04 -1.11675E+05 -3.37918E+04  2.35669E+03 -5.03126E+04  5.47916E+04 -1.31707E+02
  3.54986E+04  5.28139E+04 -1.73136E+04  7.58524E+04 -6.00859E+04  6.28202E+04 -8.25590E+04  3.10980E+04
 -8.01629E+04 -1.12271E+04 -5.62739E+04 -5.08960E+04 -1.44957E+04 -6.80035E+04  2.75989E+04 -4.57115E+04
  3.94446E+04  2.91668E+03  1.58711E+04  4.65241E+04 -3.33898E+04  4.63736E+04 -6.56341E+04 -1.00029E+03
 -5.25183E+04 -5.57653E+04 -6.28042E+03 -7.52114E+04  3.32491E+04 -5.29856E+04  4.63530E+04 -1.66358E+04
  4.15910E+04  1.10258E+04  3.02191E+04  2.43179E+04  1.54939E+04  2.87748E+04 -4.58236E+03  2.62043E+04
 -2.08125E+04  1.27093E+04 -1.84631E+04 -3.98441E+03  5.70512E+03 -7.65860E+03  2.04309E+04  1.05071E+04
  7.43237E+03  3.39703E+04 -2.97296E+04  3.46819E+04 -6.14048E+04  1.89444E+03 -5.68820E+04 -4.18866E+04
 -1.39995E+04 -6.12127E+04  3.89912E+04 -4.34670E+04  5.61141E+04 -2.59423E+03  3.20316E+04  3.09558E+04
 -6.45355E+03  3.36942E+04 -2.84394E+04  1.41760E+04 -2.80905E+04 -5.28933E+03 -1.49143E+04 -1.00062E+04
 -7.91619E+03 -1.07329E+04 -1.50154E+03 -1.74034E+04  7.30526E+03 -2.16495E+04  1.50482E+04 -1.29144E+04
  1.39773E+04  4.44008E+03 -6.82099E+03  1.23207E+04 -1.91684E+04 -2.85095E+03 -7.52844E+03 -3.05542E+04
  2.11027E+04 -4.12237E+04  4.52401E+04 -1.94637E+04  4.29618E+04  1.87127E+04  1.50201E+04  4.28415E+04
 -1.52380E+04  3.22228E+04 -2.46341E+04  8.10085E+02 -8.93096E+03 -2.75649E+04  2.07427E+04 -3.14196E+04
  3.84839E+04 -6.38671E+03  3.31099E+04  2.29940E+04  1.64295E+04  4.32875E+04 -8.53806E+03  4.59058E+04
 -2.91945E+04  3.00130E+04 -3.77500E+04  9.00467E+03 -3.99603E+04 -1.52742E+04 -2.16190E+04 -3.52155E+04
  7.89108E+03 -3.39958E+04  2.85500E+04 -1.22314E+04  2.72804E+04  1.05190E+04  3.29619E+03  1.86192E+04
 -1.24165E+04  6.65433E+03 -9.33147E+03 -7.80079E+03  6.54054E+03 -1.05784E+04  1.63347E+04  5.85465E+03
  1.29697E+04  2.25940E+04 -6.13155E+03  2.30497E+04 -2.25324E+04  8.25095E+03 -2.54327E+04 -4.85600E+03
 -1.68437E+04 -1.54755E+04 -5.60056E+03 -1.78491E+04  4.13977E+03 -1.58001E+04  1.39724E+04 -1.53748E+04
  2.11263E+04 -1.28481E+04  2.91053E+04  1.12271E+03  2.16242E+04  1.72976E+04  4.12643E+03  3.37886E+04
 -1.71718E+04  2.93812E+04 -2.56130E+04  9.42816E+03 -1.95498E+04 -1.01524E+04 -3.34554E+03 -1.43398E+04
  9.60709E+02 -4.10505E+03 -2.39029E+03  4.18382E+03 -1.34717E+04  4.98496E+03 -1.42335E+04 -5.45171E+03
 -1.01328E+04 -1.55257E+04  4.71727E+03 -2.00016E+04  1.35523E+04 -1.53466E+04  1.47599E+04 -1.65831E+03
  9.31860E+03  1.07142E+04 -5.69830E+02  1.65843E+04 -1.15400E+04  9.84983E+03 -1.68947E+04 -3.36031E+03
 -1.13339E+04 -1.46587E+04 -1.59054E+03 -2.01587E+04  8.33684E+03 -1.60198E+04  1.65037E+04 -7.04340E+03
  1.50100E+04  7.47079E+02  1.01048E+04  3.59148E+03  5.87576E+03 -3.03228E+02  8.25440E+03 -5.79870E+02
  1.45750E+04  1.67845E+03  1.56115E+04  1.42811E+04  9.92476E+03  2.51057E+04 -3.90407E+03  2.80993E+04
 -1.64252E+04  2.12914E+04 -2.56547E+04  1.13567E+04 -2.65370E+04 -1.97312E+03 -2.26434E+04 -1.57564E+04
 -1.10042E+04 -2.07010E+04  7.47558E+03 -2.04103E+04  1.81163E+04 -1.08199E+04  1.59321E+04  4.59479E+03
  7.26234E+03  1.23122E+04 -6.61972E+03  8.83631E+03 -1.23124E+04  3.87218E+03 -1.05114E+04 -7.29823E+03
 -3.25357E+00 -1.34038E+04  5.89641E+03 -9.29857E+03  9.26989E+03 -2.60882E+03  2.05122E+03  4.40323E+03
 -5.65256E+03  1.34910E+03 -4.71311E+03 -4.25295E+03  6.08503E+02 -1.02870E+04  8.89794E+03 -1.05989E+04
  1.21607E+04 -5.59996E+03  1.25346E+04  2.77577E+03  1.08189E+04  1.02745E+04  5.55124E+03  1.48181E+04
 -1.67060E+03  1.65064E+04 -9.78521E+03  1.18042E+04 -1.20440E+04  3.41707E+03 -9.67635E+03 -1.74525E+03
 -4.73896E+03 -4.74030E+03 -1.04688E+03  1.21221E+03 -2.09863E+03  1.70789E+03 -3.61183E+03  4.07077E+03
 -7.90139E+03 -7.69224E+02 -8.09588E+03 -7.80826E+03 -3.65342E+03 -1.13193E+04  4.56021E+03 -8.29333E+03
  7.24370E+03 -4.19486E+03  4.39465E+03  2.10852E+03  1.23953E+03  4.19701E+03 -4.92385E+03  1.12511E+02
 -3.42536E+03 -5.53243E+03 -8.62232E+02 -7.10899E+03  3.81820E+03 -8.76767E+03  1.01072E+04 -5.01827E+03
  1.21428E+04  8.05308E+02  9.36091E+03  8.09761E+03  8.49899E+02  8.43857E+03 -5.67679E+03  9.09301E+03
 -7.20781E+03  3.06505E+03 -4.64619E+03 -1.37877E+03  1.99582E+03 -1.48673E+03  4.62987E+03 -1.22826E+03
  4.83530E+03  2.57968E+03  5.83365E+02  6.37338E+03 -4.55118E+03  6.95493E+03 -9.52931E+03  2.06366E+03
 -4.68595E+03 -4.65429E+03  8.00009E+02 -7.24620E+03  4.20350E+03 -3.41581E+03  3.93707E+03  1.02650E+03
  8.32947E+02  3.07109E+03 -4.18720E+03  5.46822E+03 -4.82197E+03  3.29559E+03 -3.54752E+03 -1.68401E+03
 -3.04852E+03 -6.91434E+03  1.35814E+03 -6.65606E+03  6.32568E+03 -5.45456E+03  6.62376E+03  5.90196E+02
  3.58802E+03  5.53153E+03  3.50133E+02  7.39431E+03 -5.79493E+03  4.20481E+03 -6.65123E+03 -9.23593E+02
 -5.98783E+03 -6.47805E+03 -5.93028E+02 -4.81579E+03  3.15958E+03 -5.13575E+03  3.93348E+03 -2.69966E+03
  2.97361E+03  6.33967E+02 -8.35944E+02  1.20180E+03  5.83380E+02  8.95746E+02 -6.40020E+01 -2.46080E+03
  4.17137E+03 -3.34153E+02  4.87635E+03  6.64198E+02  6.29644E+03  3.41525E+03  6.04214E+03  8.07253E+03
 -1.41756E+03  9.65407E+03 -7.94151E+03  7.38366E+03 -1.08128E+04  1.38258E+03 -9.35300E+03 -3.48591E+03
 -4.07130E+03 -5.55022E+03 -7.69045E+02 -5.58964E+03  2.26600E+03 -2.81572E+03  1.90024E+03 -2.37735E+03
  1.23916E+03 -1.63843E+03  1.68385E+03 -1.86711E+03  3.47637E+03 -2.46962E+03  2.93376E+03  1.30008E+03
  4.80843E+03  1.46457E+03  2.24986E+03  4.19272E+03 -9.51345E+02  2.59968E+03 -5.02915E+03  2.01145E+03
 -5.16927E+03 -1.42785E+03 -2.44592E+03 -4.16518E+03 -4.69958E+02 -4.73804E+03  3.60243E+03 -5.36592E+03
  6.07743E+03 -4.10510E+03  7.03395E+03  6.81422E+01  5.22926E+03  6.00490E+03  1.07230E+03  6.00404E+03
 -2.47427E+03  5.88954E+03 -3.19376E+03  2.09702E+03 -2.18939E+03 -8.65865E+02 -8.98004E+02 -1.17025E+03
 -3.76371E+02  1.26152E+03 -1.40981E+03  2.40775E+03 -1.31593E+03  1.45560E+03 -4.76138E+03  3.69427E+02
 -2.61412E+03 -4.33111E+03  1.76891E+03 -5.84505E+03  2.37721E+03 -4.86889E+03  4.24105E+03 -6.02620E+02
  4.71527E+03  2.09312E+03  2.46228E+03  3.47284E+03 -1.13478E+03  5.00109E+03 -2.16125E+03  3.90927E+03
 -3.13259E+03  4.13277E+01 -3.11432E+03 -2.84832E+03  3.98590E+02 -3.43574E+03  2.16483E+03 -3.33072E+03
  3.20437E+03 -1.57790E+03  1.81309E+03  4.15239E+01 -3.27053E+02  1.89393E+03  1.56718E+03  2.76685E+02
  6.40135E+02  4.34389E+02  9.81254E+02  1.12800E+03  4.09362E+01  2.56330E+03  2.48745E+03  2.01292E+03
 -2.15255E+03  3.07414E+03 -2.89480E+03  3.63769E+03 -3.23417E+03  1.63818E+03 -3.92183E+03 -3.21412E+02
 -1.61174E+03 -3.59333E+03 -3.91434E+02 -4.82184E+03  1.12770E+03 -3.70219E+03  2.89955E+03 -1.58371E+03
  1.60151E+03  2.11274E+03  1.46780E+03  2.46826E+03 -6.04831E+02  6.63035E+02 -1.23781E+03 -2.07371E+02
 -1.28682E+03 -1.97653E+03  1.34191E+03 -1.21010E+03  2.48188E+03 -8.01938E+02  1.12707E+03 -1.35937E+02
  4.55034E+02  3.51470E+02  2.43255E+02  7.81413E+02  4.31636E+02  3.21637E+02  1.51434E+03 -1.32259E+03
  7.69329E+02  1.44464E+02  1.40310E+03  1.90721E+03  7.24281E+01  2.99464E+03  3.50876E+02  2.16599E+03
 -1.29119E+03  8.15254E+02 -2.93218E+03 -7.11994E+02 -3.68036E+03 -9.55505E+02 -2.51170E+02 -1.12089E+03
  9.68236E+02 -1.69265E+03  1.63263E+03 -6.77021E+02  8.19192E+02  1.23658E+03 -8.08395E+02  2.57072E+03
 -1.95852E+03  1.09797E+03 -1.73223E+03 -1.27387E+03 -5.69883E+02 -1.59509E+03  5.06356E+01 -2.01611E+03
 -2.70628E+02 -1.08123E+03 -5.66574E+02  4.22972E+02  1.83770E+03 -1.96951E+02  6.54758E+02  1.23305E+03
 -1.78468E+02 -3.95289E+01 -1.69962E+03 -3.06173E+02  7.79096E+02 -5.18337E+02  1.17911E+03 -1.31677E+03
  2.03335E+03  6.57597E+02  2.33122E+03  6.55593E+02  1.17794E+03  1.28136E+03 -4.37749E+02  8.57687E+02
 -1.09433E+03  3.00949E+01 -5.55059E+02  3.00280E+02 -9.91401E+02 -1.35932E+03 -3.30557E+02 -1.33738E+03
  1.47367E+03 -1.47567E+03  1.25567E+03  6.56687E+02 -3.61227E+02  1.08535E+03 -8.05099E+02  8.31736E+02
  1.27741E+01  1.39177E+03 -1.14754E+03 -7.22805E+02 -1.51482E+02 -3.59131E+02  1.69723E+02  9.63034E+02
 -9.86591E+02  2.95133E+03 -1.12360E+03  6.97664E+02 -2.18882E+03 -1.18056E+02 -2.57325E+03 -1.56740E+03
 -7.85373E+02 -1.54533E+03  4.05437E+02 -3.51815E+03  3.79016E+02 -2.70451E+03  2.97838E+03 -1.03240E+03
  2.78657E+03 -8.76327E+02  6.74396E+02  2.06397E+03 -5.76441E+02  1.74309E+03 -4.10370E+01  1.62050E+03
 -1.45910E+03  1.02899E+03  1.03533E+02 -1.01682E+03 -1.58500E+03 -3.25336E+02 -1.13546E+03  4.82302E+01
 -1.31390E+03  5.69649E+02 -9.15703E+02  4.66637E+02  4.94606E+02 -3.04011E+02  7.49437E+01 -3.59756E+02
  7.42740E+02 -3.60207E+02  1.17626E+03  3.86558E+02  1.22810E+03  9.54429E+01  3.47415E+02  1.66532E+03
 -8.32345E+02  2.16996E+03 -2.05323E+03  5.93178E+02 -2.29942E+03 -1.96666E+02 -7.42299E+02 -9.00337E+02
 -1.56006E+03 -2.17377E+03  3.41739E+02 -1.53081E+03 -1.03257E+02  3.40730E+02  3.90339E+02 -4.94254E+02
  1.13181E+03 -2.76791E+01 -3.54377E+02  3.86294E+01  9.77936E+01  8.94930E+01  9.85583E+00 -6.47504E+02
  4.79506E+02  9.92381E+02  3.78876E+02  8.73411E+02 -8.59219E+02  2.62263E+02 -1.77716E+02  8.79586E+02
  2.08996E+02  1.18372E+03 -3.67672E+02 -4.41147E+02 -3.93190E+02 -7.36384E+02 -1.52640E+02 -3.06363E+02
  1.00191E+03 -1.25459E+03  2.17604E+03 -1.74878E+02  1.65601E+03 -1.09855E+03  1.39459E+02  1.24543E+03
  1.22205E+02  8.51317E+02  2.38102E+02  7.90856E+02 -6.76975E+02 -2.62031E+02  1.57523E+02  4.05287E+02
 -1.72516E+00  5.83620E+02 -1.30705E+03 -9.80007E+01 -6.70554E+02  6.79228E+02 -1.03281E+03 -1.34775E+03
 -9.93736E+02  1.08651E+03 -1.19901E+03 -8.98681E+02  5.80688E+02 -1.80084E+03  8.01113E+02 -7.55810E+02
 -4.73136E+02  1.50943E+03 -1.25597E+03 -2.66968E+02 -7.79115E+02  1.31182E+03 -3.36847E+02  7.74323E+01
