 $NMID ID='MM_0lb_SNR200_19hz_g60_13.RAW', FMTDAT='(8E13.5)'
 TRAMP=1., VOLUME=1. $END
  3.10826E+05 -8.11687E+01  3.37329E+05  2.50481E+05  8.39470E+04  3.38293E+05 -1.31488E+05  2.51394E+05
 -1.91280E+05  8.29835E+04 -1.12080E+05 -3.35383E+04  1.33792E+03 -5.17554E+04  5.35964E+04 -2.47478E+02
  3.47182E+04  5.21917E+04 -1.73964E+04  7.55752E+04 -6.01531E+04  6.25976E+04 -8.34158E+04  3.14482E+04
 -8.07778E+04 -1.18709E+04 -5.59770E+04 -5.07238E+04 -1.54637E+04 -6.94852E+04  2.66258E+04 -4.66292E+04
  3.93787E+04  2.68755E+03  1.55989E+04  4.82260E+04 -3.45873E+04  4.61980E+04 -6.60452E+04  2.40537E+02
 -5.34581E+04 -5.64302E+04 -6.63263E+03 -7.59410E+04  3.36086E+04 -5.32161E+04  4.71149E+04 -1.79110E+04
  4.31668E+04  1.15317E+04  3.01779E+04  2.46630E+04  1.50753E+04  2.77804E+04 -4.78611E+03  2.62722E+04
 -2.21240E+04  1.28671E+04 -1.93576E+04 -5.05383E+03  5.73170E+03 -6.94553E+03  2.21272E+04  1.16582E+04
  6.92997E+03  3.53263E+04 -3.21835E+04  3.43197E+04 -6.33162E+04  2.62299E+03 -5.56513E+04 -4.07058E+04
 -1.31093E+04 -6.32028E+04  3.97137E+04 -4.34302E+04  5.75938E+04 -1.29317E+03  3.32773E+04  3.15085E+04
 -6.42879E+03  3.33220E+04 -2.89316E+04  1.39955E+04 -2.90911E+04 -4.63101E+03 -1.48681E+04 -1.10520E+04
 -8.27064E+03 -1.18311E+04 -1.30544E+03 -1.67259E+04  7.25976E+03 -2.27398E+04  1.55763E+04 -1.29487E+04
  1.11351E+04  4.30312E+03 -6.70744E+03  1.29002E+04 -1.99786E+04 -3.76960E+03 -7.47458E+03 -3.14891E+04
  2.11812E+04 -4.19081E+04  4.66203E+04 -1.95454E+04  4.28120E+04  1.86815E+04  1.47969E+04  4.24963E+04
 -1.53494E+04  3.22814E+04 -2.39355E+04  6.13456E+02 -8.05927E+03 -2.79514E+04  2.14345E+04 -3.24638E+04
  3.97004E+04 -8.35828E+03  3.36627E+04  2.29731E+04  1.59840E+04  4.35321E+04 -6.96903E+03  4.77265E+04
 -3.04427E+04  3.03830E+04 -3.90293E+04  8.79768E+03 -3.94745E+04 -1.61070E+04 -2.34974E+04 -3.63574E+04
  7.32010E+03 -3.38349E+04  2.94913E+04 -1.44110E+04  2.83769E+04  9.96646E+03  2.48887E+03  1.88597E+04
 -1.30858E+04  7.71742E+03 -9.40313E+03 -8.26811E+03  6.23031E+03 -9.46714E+03  1.75686E+04  5.56196E+03
  1.26559E+04  2.21495E+04 -5.98528E+03  2.35711E+04 -2.33069E+04  1.08387E+04 -2.54539E+04 -5.41332E+03
 -1.76073E+04 -1.64708E+04 -6.43759E+03 -1.86911E+04  3.65472E+03 -1.60935E+04  1.38291E+04 -1.65263E+04
  2.26801E+04 -1.20365E+04  2.91599E+04  1.61830E+03  2.16157E+04  1.72048E+04  4.16165E+03  3.42192E+04
 -1.83069E+04  2.82372E+04 -2.56591E+04  9.82809E+03 -2.05042E+04 -9.63180E+03 -4.63609E+03 -1.28979E+04
  2.64058E+03 -4.38519E+03 -3.52376E+03  5.10850E+03 -1.34572E+04  5.74034E+03 -1.44806E+04 -5.71169E+03
 -9.68602E+03 -1.75874E+04  3.82933E+03 -1.97207E+04  1.37112E+04 -1.48844E+04  1.58621E+04 -1.63969E+03
  1.06471E+04  1.20748E+04 -3.22640E+02  1.70375E+04 -1.06678E+04  1.11217E+04 -1.58932E+04 -3.74714E+03
 -1.20706E+04 -1.33730E+04 -1.48639E+03 -2.02867E+04  9.71404E+03 -1.64082E+04  1.57213E+04 -7.56220E+03
  1.52900E+04  1.16405E+03  1.12482E+04  4.69194E+03  5.20939E+03 -9.46913E+02  7.35882E+03 -1.46599E+03
  1.45898E+04  2.67433E+03  1.64298E+04  1.33530E+04  1.02274E+04  2.61966E+04 -3.07718E+03  2.82749E+04
 -1.66800E+04  2.24716E+04 -2.48798E+04  1.00078E+04 -2.73041E+04 -1.79918E+03 -2.40313E+04 -1.54047E+04
 -1.08831E+04 -2.17256E+04  6.93705E+03 -2.11144E+04  1.75809E+04 -1.10567E+04  1.65597E+04  4.04215E+03
  6.58987E+03  1.23619E+04 -7.41640E+03  1.04254E+04 -1.42530E+04  2.33048E+03 -1.16003E+04 -7.66264E+03
 -4.35703E+02 -1.20720E+04  6.32645E+03 -9.74867E+03  7.87040E+03 -1.36153E+03  1.38045E+03  4.38163E+03
 -5.18998E+03  1.26359E+03 -4.32780E+03 -5.11164E+03  2.49236E+02 -1.03496E+04  8.12814E+03 -1.06130E+04
  1.27978E+04 -4.91968E+03  1.29907E+04  2.22325E+03  1.21459E+04  9.60668E+03  5.51226E+03  1.51372E+04
 -3.11385E+03  1.72061E+04 -9.06239E+03  9.59468E+03 -1.28660E+04  3.11690E+03 -8.17978E+03 -2.01245E+03
 -4.81116E+03 -3.24086E+03 -8.90878E+02  1.53670E+03 -1.55733E+03  2.43331E+03 -4.85305E+03  3.73327E+03
 -7.72310E+03 -8.83198E+02 -9.84278E+03 -7.00989E+03 -4.21037E+03 -1.23774E+04  2.79367E+03 -8.66683E+03
  7.44048E+03 -3.66204E+03  5.54273E+03  2.07096E+03  9.42551E+02  4.30977E+03 -3.23296E+03 -3.35837E+02
 -3.92762E+03 -5.91889E+03  1.30093E+02 -7.62442E+03  4.59948E+03 -9.54049E+03  1.10974E+04 -3.20000E+03
  1.25001E+04  1.22711E+03  8.87264E+03  6.08603E+03  8.75076E+02  9.33530E+03 -6.01840E+03  8.44516E+03
 -7.77472E+03  1.93605E+03 -4.18449E+03 -5.61160E+02  1.95427E+03 -1.19286E+03  5.92350E+03 -1.57556E+03
  3.58072E+03  2.92640E+03  1.02800E+03  7.05499E+03 -4.61870E+03  5.72652E+03 -8.77976E+03  2.10888E+03
 -5.47177E+03 -4.77938E+03 -9.47108E+01 -7.38678E+03  3.70693E+03 -3.12991E+03  3.10584E+03  1.43261E+03
  1.01707E+03  3.95137E+03 -3.85074E+03  4.36589E+03 -4.53569E+03  3.81654E+03 -5.39910E+03 -1.23458E+03
 -2.99349E+03 -6.38929E+03  1.28664E+03 -7.91156E+03  5.99640E+03 -4.34297E+03  5.87531E+03  1.05045E+03
  4.18981E+03  5.29737E+03 -1.59578E+03  7.69102E+03 -4.53840E+03  4.15878E+03 -4.29149E+03 -1.22845E+03
 -5.77925E+03 -5.14818E+03 -1.72723E+03 -6.84066E+03  3.69601E+03 -3.22628E+03  3.18984E+03 -2.29035E+03
  3.21003E+03  1.14728E+03  1.12262E+03  8.18779E+02 -7.43341E+01  2.77339E+02  6.94171E+02 -2.61175E+03
  3.66086E+03 -1.14823E+03  4.55051E+03  1.61478E+03  5.72972E+03  3.85435E+03  5.19709E+03  6.51135E+03
 -1.75364E+03  9.66622E+03 -7.80792E+03  4.94077E+03 -1.04171E+04  8.55051E+02 -8.04382E+03 -2.28710E+03
 -4.78691E+03 -6.53326E+03  5.62136E+02 -5.68758E+03  1.44898E+03 -2.08033E+03  2.02285E+03 -1.82950E+03
  1.48659E+03 -1.65723E+03  1.53152E+03 -1.39384E+03  2.76298E+03 -1.84480E+03  4.71812E+03  4.61117E+02
  4.26345E+03  1.61516E+03  7.14444E+02  4.07753E+03 -7.87681E+02  2.80473E+03 -4.64926E+03  2.50476E+03
 -5.82639E+03 -6.53073E+02 -1.21371E+03 -3.83073E+03 -4.05236E+01 -3.51663E+03  3.36259E+03 -6.29934E+03
  4.91121E+03 -3.26326E+03  6.63400E+03 -3.87017E+02  5.68585E+03  5.00520E+03  2.30535E+03  5.90254E+03
 -2.00283E+03  5.97071E+03 -2.72228E+03  1.50756E+03 -2.15990E+03 -1.61351E+03 -5.37728E+02 -1.52458E+03
 -1.00676E+02  5.81678E+02 -1.09043E+03  1.56310E+03 -2.64581E+03  2.05286E+02 -3.22604E+03 -6.66349E+02
 -1.28426E+03 -4.00532E+03  1.71153E+03 -4.41362E+03  2.65249E+03 -3.50192E+03  4.25650E+03 -6.36960E+01
  3.91114E+03  1.29993E+03  1.17190E+03  4.11647E+03 -1.21795E+03  5.45549E+03 -2.70120E+03  1.93641E+03
 -4.82081E+03  8.04786E+02 -2.95101E+03 -2.48334E+03  1.00424E+03 -3.81077E+03  1.21634E+03 -2.01259E+03
  3.31622E+03 -1.09586E+03  1.22008E+03  6.04109E+02  5.82230E+02  8.78974E+02  9.62256E+02  2.18117E+02
  1.65449E+03 -2.58871E+02  1.77445E+03  2.31404E+02  5.95082E+02  2.55265E+03  1.41860E+03  1.35036E+03
 -7.21215E+02  3.65359E+03 -2.09143E+03  4.06102E+03 -3.23236E+03  7.94744E+02 -3.07571E+03 -6.48908E+02
 -1.52050E+03 -2.67224E+03  2.87804E+02 -3.81406E+03  2.71044E+03 -2.55448E+03  3.71297E+03 -5.23511E+02
  2.26693E+03  1.17944E+03 -3.28759E+02  1.51270E+03 -1.25285E+03  1.37804E+03 -9.89256E+02  1.28305E+02
 -9.57434E+01 -1.95838E+03  1.34325E+03 -1.33135E+03  1.84556E+03 -1.39258E+03  7.98858E+02  1.04383E+02
  6.56064E+02  1.52255E+03  1.15224E+03 -1.89130E+03 -1.46746E+03  6.80206E+02  2.08132E+03 -5.58428E+02
  2.00982E+01  7.62295E+00  1.18938E+03  2.48340E+02  2.78303E+02  2.73065E+03 -7.52418E+02  3.88091E+03
 -4.39397E+02  1.24259E+03 -2.19027E+03 -2.73873E+02 -1.89750E+03  1.98594E+02  7.53959E+02 -2.21841E+03
  4.91284E+02  9.36397E+01  5.00358E+02 -2.24911E+02  5.13101E+02  1.54364E+03 -9.75839E+02  2.17006E+03
 -2.07516E+03  5.49861E+02 -8.71877E+02 -9.28519E+02  2.06504E+02 -7.57996E+02  1.73694E+03 -1.59087E+03
 -1.65468E+02 -8.56935E+02  5.77237E+02  2.41744E+01  1.01692E+03  1.97085E+02  1.06125E+03  1.09116E+03
  6.39194E+02 -5.21200E+01 -1.99275E+03 -2.16091E+02  4.44641E+02 -1.63192E+03  9.85922E+02  2.49430E+01
  9.04838E+02 -6.41361E+02  2.70778E+03  9.61439E+02  1.93581E+03  1.80971E+03 -2.71008E+00  1.90551E+03
 -1.67565E+03  3.22465E+02 -2.15695E+03 -7.33994E+02 -1.48254E+03 -1.40746E+03  1.39633E+02 -3.91370E+02
  1.09063E+03 -5.90611E+02  1.52299E+03  9.76520E+02  1.39736E+02  1.11555E+03  7.55250E+02  6.79584E+02
  6.74579E+02  7.22771E+02 -1.22262E+03  9.21922E+02 -4.20114E+02  1.37249E+03 -1.30235E+03  1.85623E+03
 -7.82362E+02  2.60920E+02 -1.40633E+03  1.52993E+02 -9.94860E+02  6.62316E+02 -1.84387E+03 -1.54649E+02
 -1.10409E+03 -1.43254E+03  1.51213E+03 -2.00227E+03  4.97613E+02 -2.41588E+03  1.92610E+03 -1.50059E+03
  2.81952E+03 -4.16108E+02  1.32085E+03  1.86883E+03 -3.86184E+02  8.07572E+02 -6.32826E+02  2.30409E+02
 -7.17231E+02  1.36919E+03 -8.58334E+02 -1.41862E+03 -4.32053E+02 -1.45781E+01 -1.77520E+03 -4.40947E+02
 -2.06339E+03  8.37748E+02 -7.55907E+02  4.74657E+02  6.02624E+02 -3.73131E+02 -1.79735E+02 -1.31488E+02
  6.21546E+02 -7.36910E+02  1.20152E+03 -3.50208E+01  5.17509E+02  1.69593E+03  7.43273E+02  1.95292E+03
 -1.96633E+03  2.93526E+03 -1.97488E+03  1.28707E+03 -8.98554E+02 -9.19906E+01 -1.11469E+03 -1.10477E+03
 -1.02050E+03 -1.69500E+03 -1.47744E+03 -5.98552E+02 -2.67672E+02 -7.09103E+02  8.27969E+02  9.60986E+02
  1.63932E+03  3.00058E+02  1.93075E+01  9.18346E+02 -5.60696E+02 -4.67071E+02 -5.88579E+02  5.02853E+02
 -1.92221E+01  6.04329E+02 -1.21808E+02 -1.13568E+02 -4.11587E+02  1.40452E+03 -2.53609E+02  3.62786E+02
 -4.23787E+02  4.94978E+02 -4.93880E+02  2.27004E+02 -1.58015E+03 -2.90079E+01 -6.32123E+01 -6.53741E+02
  7.19974E+01 -3.86575E+02  9.40809E+02 -8.83740E+02  1.02762E+03 -4.44381E+02 -1.43822E+02  1.73868E+02
  4.08410E+02  3.30047E+02  1.04438E+02  1.03024E+03 -2.50065E+02  3.15601E+02 -7.17042E+02 -1.11776E+02
  7.94107E+02 -2.84441E+02 -9.82000E+02  1.38387E+02 -8.43145E+01 -2.69970E+02  7.13153E+01  1.62926E+02
 -1.63977E+02 -8.79514E+02 -1.53677E+03 -7.80349E+02  1.32293E+03 -1.48853E+03  7.46524E+02 -1.62366E+01
  1.50680E+03 -7.00855E+02  1.58263E+02 -6.23048E+02  4.86639E+02  1.29109E+03 -1.60095E+02  2.88049E+02
