 $NMID ID='MM_0lb_SNR200_12hz_g50_32.RAW', FMTDAT='(8E13.5)'
 TRAMP=1., VOLUME=1. $END
  3.09236E+05  5.22489E+02  3.37152E+05  2.50312E+05  8.43017E+04  3.37402E+05 -1.32508E+05  2.52018E+05
 -1.90434E+05  8.23963E+04 -1.11917E+05 -3.25479E+04  1.18960E+03 -5.07824E+04  5.49939E+04 -2.65160E+02
  3.77872E+04  5.25911E+04 -1.64014E+04  7.63348E+04 -6.18485E+04  6.35343E+04 -8.63138E+04  3.25429E+04
 -8.20843E+04 -1.10540E+04 -5.73225E+04 -5.11341E+04 -1.49664E+04 -7.07811E+04  2.70013E+04 -4.64024E+04
  4.06209E+04  4.47886E+03  1.68692E+04  4.81547E+04 -3.49918E+04  4.74459E+04 -6.78668E+04 -2.17982E+02
 -5.25778E+04 -5.81451E+04 -7.23569E+03 -7.68083E+04  3.39141E+04 -5.62096E+04  4.86931E+04 -1.73328E+04
  4.38426E+04  1.09538E+04  3.17148E+04  2.63500E+04  1.67852E+04  2.95708E+04 -6.14911E+03  2.74949E+04
 -2.12771E+04  1.33364E+04 -1.83969E+04 -5.53742E+03  6.23670E+03 -6.92992E+03  2.31591E+04  1.24132E+04
  6.95299E+03  3.58655E+04 -3.28018E+04  3.63450E+04 -6.48411E+04  2.06658E+03 -5.81986E+04 -4.29227E+04
 -1.32380E+04 -6.35923E+04  4.01695E+04 -4.64493E+04  5.89531E+04 -2.54847E+03  3.59935E+04  3.35436E+04
 -5.32520E+03  3.79062E+04 -3.02811E+04  1.64717E+04 -3.27159E+04 -3.84472E+03 -1.86727E+04 -9.95997E+03
 -9.60074E+03 -1.34499E+04 -1.58156E+03 -1.90858E+04  8.41108E+03 -2.23389E+04  1.38025E+04 -1.32391E+04
  1.07361E+04  5.14478E+03 -8.14393E+03  1.30637E+04 -2.09987E+04 -4.89727E+03 -8.45168E+03 -3.57103E+04
  2.47108E+04 -4.45793E+04  4.84891E+04 -2.18672E+04  4.75065E+04  1.97135E+04  1.74302E+04  4.49713E+04
 -1.64294E+04  3.55142E+04 -2.44057E+04  1.51591E+03 -9.55907E+03 -2.98991E+04  2.20319E+04 -3.55665E+04
  4.26910E+04 -8.49083E+03  3.72340E+04  2.29256E+04  2.09356E+04  4.90727E+04 -8.13371E+03  5.26208E+04
 -3.42362E+04  3.49658E+04 -4.62289E+04  1.16465E+04 -4.47941E+04 -1.64977E+04 -2.45308E+04 -4.03255E+04
  8.08147E+03 -3.94384E+04  3.09853E+04 -1.71761E+04  2.99737E+04  1.04283E+04  5.51546E+03  1.85323E+04
 -1.39196E+04  9.67159E+03 -8.64995E+03 -7.50488E+03  5.36656E+03 -1.06913E+04  1.74288E+04  4.23596E+03
  1.48958E+04  2.11371E+04 -5.27836E+03  2.48683E+04 -2.27424E+04  1.18722E+04 -2.92915E+04 -4.58995E+03
 -2.29587E+04 -1.77001E+04 -9.64119E+03 -2.22356E+04  5.47739E+03 -2.18322E+04  1.66036E+04 -1.99706E+04
  2.80335E+04 -1.39094E+04  3.47851E+04  2.81831E+03  2.47263E+04  2.17060E+04  4.88663E+03  3.72918E+04
 -1.94745E+04  3.23451E+04 -2.96599E+04  1.11491E+04 -2.06042E+04 -1.05181E+04 -3.75403E+03 -1.37497E+04
  6.64722E+02 -1.71621E+03 -6.15197E+03  7.37931E+03 -1.80690E+04  5.91671E+03 -1.67827E+04 -9.09590E+03
 -1.10629E+04 -2.12845E+04  5.24263E+03 -2.54416E+04  1.66725E+04 -1.72583E+04  1.95616E+04 -1.55880E+03
  1.33302E+04  1.49462E+04 -1.91286E+03  2.01608E+04 -1.48311E+04  9.84640E+03 -1.99301E+04 -4.69131E+03
 -1.42935E+04 -1.82487E+04 -2.41744E+03 -2.53585E+04  1.01897E+04 -2.01404E+04  2.14431E+04 -1.08009E+04
  1.88250E+04 -4.73670E+02  1.26894E+04  5.31701E+03  7.27258E+03  2.07883E+02  1.13814E+04 -1.46165E+03
  1.97776E+04  3.92146E+03  2.08801E+04  1.59057E+04  1.43364E+04  3.26357E+04 -1.92649E+03  3.80353E+04
 -2.25678E+04  3.08654E+04 -3.62601E+04  1.55729E+04 -3.78651E+04 -2.31152E+03 -3.11849E+04 -2.25447E+04
 -1.25817E+04 -3.00404E+04  1.05254E+04 -2.88946E+04  2.49219E+04 -1.29452E+04  2.15605E+04  5.50335E+03
  7.72258E+03  1.63607E+04 -1.03829E+04  1.30871E+04 -1.88987E+04  2.71947E+03 -1.38330E+04 -1.17786E+04
 -1.13616E+03 -1.66176E+04  1.02860E+04 -1.19284E+04  1.11938E+04 -2.02129E+03  3.57956E+03  7.54569E+03
 -8.08994E+03  3.35156E+03 -8.07603E+03 -6.85378E+03 -1.84670E+03 -1.54298E+04  1.05138E+04 -1.60667E+04
  2.03463E+04 -7.19358E+03  2.23777E+04  3.64227E+03  1.85419E+04  1.48301E+04  7.94333E+03  2.34311E+04
 -4.94873E+03  2.72432E+04 -1.51569E+04  1.56224E+04 -1.80823E+04  4.48306E+03 -1.26451E+04 -4.17062E+03
 -7.26704E+03 -6.04707E+03 -3.46964E+02  1.91961E+03 -2.10505E+03  2.22266E+03 -6.48565E+03  4.91678E+03
 -1.14151E+04  3.16051E+02 -1.32544E+04 -9.89828E+03 -4.16453E+03 -1.66538E+04  4.52678E+03 -1.25308E+04
  1.02146E+04 -5.86634E+03  8.00166E+03  3.68680E+03  3.74572E+02  4.60048E+03 -4.74985E+03  1.46481E+02
 -6.04107E+03 -8.08215E+03 -1.17054E+03 -1.27326E+04  6.89266E+03 -1.16874E+04  1.66413E+04 -7.38389E+03
  2.14361E+04  1.68375E+03  1.35173E+04  1.18567E+04  2.51403E+03  1.29557E+04 -7.49601E+03  1.15818E+04
 -1.11736E+04  4.13743E+03 -4.22240E+03 -2.28491E+03  1.43828E+03 -2.44359E+03  7.30288E+03 -1.19249E+03
  7.05756E+03  5.82927E+03  1.26231E+03  1.06334E+04 -7.98283E+03  9.41469E+03 -1.26406E+04  2.01107E+03
 -8.46145E+03 -6.65169E+03 -3.80493E+02 -1.01387E+04  4.98126E+03 -5.61910E+03  8.31793E+03  2.90685E+03
  7.58334E+02  7.73780E+03 -7.09710E+03  9.86541E+03 -1.00100E+04  4.22924E+03 -1.05287E+04 -4.03368E+03
 -6.59034E+03 -1.17527E+04  2.69487E+03 -1.38355E+04  1.21093E+04 -9.55429E+03  1.23955E+04  1.35713E+03
  7.90885E+03  1.10348E+04 -1.06625E+03  1.27850E+04 -8.08389E+03  6.86268E+03 -1.05880E+04 -1.45344E+03
 -9.42753E+03 -6.83764E+03 -1.76951E+03 -1.05037E+04  5.61073E+03 -7.82906E+03  4.57240E+03 -3.02594E+03
  4.94215E+03  1.04941E+03 -1.76961E+03  2.25668E+03 -1.72587E+01 -2.88162E+03  8.65974E+02 -4.99559E+03
  8.57155E+03 -2.88682E+03  1.15573E+04  1.33387E+03  1.26641E+04  7.81313E+03  8.43879E+03  1.51429E+04
 -3.40541E+03  1.80229E+04 -1.49260E+04  1.36159E+04 -1.92745E+04  3.09544E+03 -1.57695E+04 -6.39642E+03
 -7.64768E+03 -1.39699E+04 -9.72248E+02 -1.07486E+04  4.12194E+03 -5.60827E+03  3.89463E+03 -4.13446E+03
  2.35852E+03 -2.32867E+03  3.33721E+03 -2.98025E+03  4.23613E+03 -3.34173E+03  6.93335E+03 -9.53991E+02
  7.10439E+03  2.69670E+03  2.51239E+03  7.29805E+03 -2.34365E+03  8.32331E+03 -8.17072E+03  5.34619E+03
 -8.97878E+03  2.08814E+02 -5.19366E+03 -8.19082E+03 -1.46967E+02 -1.17799E+04  7.07700E+03 -1.15013E+04
  1.20614E+04 -7.71535E+03  1.48466E+04  2.25735E+03  9.77951E+03  1.03745E+04  1.99964E+03  1.33662E+04
 -5.25730E+03  1.15443E+04 -6.76296E+03  2.86131E+03 -5.27104E+03 -1.16966E+03 -2.76092E+03 -1.95629E+03
 -4.29482E+02 -7.58915E+02 -3.44732E+03  2.38253E+03 -4.36021E+03  2.61887E+03 -7.09290E+03  6.17363E+02
 -5.43727E+03 -8.43815E+03  8.02054E+02 -1.11594E+04  5.98369E+03 -8.52709E+03  9.69709E+03 -2.77869E+03
  1.11742E+04  4.48804E+03  3.99576E+03  8.58671E+03 -1.56359E+03  9.75348E+03 -7.48618E+03  6.36599E+03
 -1.00437E+04 -5.91480E+02 -7.61908E+03 -5.48931E+03 -7.01371E+02 -9.44712E+03  2.95844E+03 -6.53065E+03
  6.82231E+03 -2.44989E+03  4.55200E+03  2.17206E+03  1.13213E+03  1.25290E+03  1.58519E+03  4.75443E+02
  1.46893E+03  1.16879E+03  2.24516E+03  1.72071E+03  3.06103E+03  3.92966E+03  3.64526E+03  4.19686E+03
 -2.41676E+03  6.89288E+03 -7.28493E+03  8.31166E+03 -1.06474E+04  2.15392E+03 -1.11240E+04 -4.28844E+03
 -5.47336E+03 -9.80951E+03  1.52152E+03 -1.11337E+04  5.77004E+03 -7.37926E+03  7.59621E+03 -3.30145E+03
  6.53027E+03  2.93479E+03  1.36050E+03  6.75217E+03 -2.15127E+03  3.19116E+03 -3.89528E+03 -1.26984E+03
 -1.28392E+03 -4.66477E+03  3.52482E+03 -3.87247E+03  4.01617E+03 -2.58085E+03  3.68954E+03  1.38075E+03
  1.80203E+03  1.65360E+03  5.76468E+02  6.25794E+02 -2.12473E+03  6.73217E+02  1.07189E+03 -4.10178E+02
  1.25484E+02 -4.79205E+02  4.86897E+03  2.25873E+03  2.84193E+03  6.68191E+03 -8.88413E+02  5.48086E+03
 -4.24868E+03  3.33148E+03 -5.89338E+03  1.48726E+03 -6.38859E+03 -1.86655E+03 -9.56538E+02 -4.39047E+03
  6.66530E+01 -3.37266E+03  2.26732E+03 -1.92272E+03  2.36069E+03  1.19820E+03 -2.58242E+03  2.88235E+03
 -5.22391E+03  2.90085E+03 -2.90868E+03 -2.24422E+03 -2.85456E+03 -6.13922E+03  1.17103E+03 -5.67002E+03
  2.92893E+03 -1.23596E+03  4.35013E+03 -7.78825E+02  3.08313E+03  2.21339E+02 -7.56138E+02  2.49149E+03
 -3.52332E+03  1.43374E+03 -2.08669E+03 -2.70970E+03  7.47638E+02 -3.04737E+03  6.58575E+03 -3.29371E+03
  5.66736E+03  1.11937E+03  6.28765E+03  2.84561E+03  2.46433E+03  6.05204E+03 -1.42653E+03  5.89039E+03
 -5.27208E+03  1.87075E+03 -6.33089E+03 -7.68691E+02 -3.67397E+03 -3.98943E+03  1.62531E+03 -3.55897E+03
  5.17455E+03 -2.44160E+03  2.98610E+03  1.38462E+03  1.14882E+03  2.73433E+03 -1.95017E+03  2.67391E+03
 -2.17725E+03  1.42176E+03 -9.30410E+02  3.55902E+02  8.06982E+02  1.93007E+03 -2.50673E+03  1.40644E+03
 -1.04739E+03  3.66258E+03 -5.24444E+03  2.37137E+03 -4.79843E+03  1.51696E+03 -6.72113E+03 -3.64817E+03
 -2.62716E+03 -7.22995E+03  1.55196E+03 -1.00664E+04  4.87299E+03 -6.83417E+03  8.01932E+03 -3.46644E+03
  7.99941E+03  7.48926E+02  5.60329E+03  5.96837E+03  7.46746E+02  7.64624E+03 -2.76998E+03  4.99322E+03
 -3.12001E+03  5.27521E+02 -2.71036E+03 -8.25291E+02 -1.91754E+03  6.46132E+02 -1.45861E+03 -2.67751E+02
 -8.31270E+02 -1.18111E+03 -1.15120E+03  3.81229E+02  8.54393E+01 -5.82988E+02 -5.98222E+02 -2.49940E+03
  2.04146E+03 -1.34263E+03  2.86885E+03  8.06970E+02  3.97750E+03  5.96243E+03  8.29928E+02  6.29338E+03
 -3.17561E+03  6.87182E+03 -6.27876E+03  3.67138E+03 -7.04170E+03 -1.22372E+03 -5.12114E+03 -4.79018E+03
 -2.05793E+03 -6.35565E+03  1.08970E+03 -3.92842E+03  2.92061E+03 -2.66970E+03  4.03371E+03 -5.77092E+02
  3.87431E+03  2.22843E+03 -3.20533E+02  5.74116E+02 -2.22305E+03 -5.34822E+02 -5.07742E+02 -2.30654E+03
  1.40160E+03 -1.33596E+03  2.04608E+03  5.93667E+02  2.20397E+03  2.20577E+03 -2.19037E+02  3.04076E+03
 -3.45562E+03  2.67354E+03 -3.67219E+03  3.70642E+02 -3.07951E+03 -1.28378E+03 -1.69295E+03 -3.27132E+03
  2.53329E+03 -4.44563E+03  3.55205E+03 -1.09731E+02  3.76481E+03  9.88791E+02  1.95426E+03  3.95389E+03
  1.03483E+03  4.51778E+03 -2.17791E+03  1.72369E+03 -2.22857E+03  3.07636E+03 -2.15057E+03  1.27921E+03
 -1.79601E+03  6.42406E+02 -2.03896E+03  2.00633E+03 -1.47131E+03  6.48378E+02 -4.08204E+03 -1.13509E+03
 -2.66030E+03 -2.39605E+03 -5.82651E+02 -4.67735E+03  1.27150E+03 -3.70502E+03  3.60576E+03 -1.86959E+03
  3.29995E+03 -2.66049E+02  1.49866E+03  1.12000E+03 -4.01189E+02  3.33470E+03 -1.88520E+03  2.66051E+03
