 $NMID ID='MM_0lb_SNR200_18hz_g55_46.RAW', FMTDAT='(8E13.5)'
 TRAMP=1., VOLUME=1. $END
  3.10097E+05  3.96922E+02  3.36609E+05  2.49742E+05  8.46826E+04  3.38080E+05 -1.31614E+05  2.50271E+05
 -1.90322E+05  8.18568E+04 -1.11299E+05 -3.32555E+04  1.97347E+03 -5.08016E+04  5.39314E+04 -7.84447E+01
  3.57500E+04  5.31150E+04 -1.75154E+04  7.54961E+04 -5.97674E+04  6.40527E+04 -8.46427E+04  3.19726E+04
 -7.98712E+04 -1.08304E+04 -5.57681E+04 -5.14730E+04 -1.49276E+04 -6.87408E+04  2.76613E+04 -4.56210E+04
  3.94496E+04  2.46892E+03  1.51603E+04  4.70292E+04 -3.46612E+04  4.69856E+04 -6.66216E+04 -4.13470E+02
 -5.41993E+04 -5.67222E+04 -5.66753E+03 -7.66448E+04  3.21600E+04 -5.42131E+04  4.69410E+04 -1.63070E+04
  4.24785E+04  1.17037E+04  3.14575E+04  2.53311E+04  1.60984E+04  2.87190E+04 -5.14484E+03  2.62655E+04
 -2.08869E+04  1.17829E+04 -1.83542E+04 -4.15800E+03  3.91940E+03 -7.87585E+03  2.20656E+04  1.25713E+04
  7.94841E+03  3.38542E+04 -3.14088E+04  3.43471E+04 -6.19936E+04  1.45106E+03 -5.54866E+04 -4.19274E+04
 -1.18574E+04 -6.32389E+04  3.96399E+04 -4.37357E+04  5.67704E+04 -1.05126E+03  3.27385E+04  3.23760E+04
 -6.54908E+03  3.48685E+04 -3.05754E+04  1.43208E+04 -2.95712E+04 -5.00747E+03 -1.66079E+04 -1.19017E+04
 -6.97392E+03 -1.00245E+04 -1.09581E+03 -1.65468E+04  6.73026E+03 -2.16402E+04  1.42456E+04 -1.42996E+04
  1.21683E+04  3.53300E+03 -6.88887E+03  1.29891E+04 -1.94835E+04 -3.77489E+03 -8.25001E+03 -3.11814E+04
  2.12266E+04 -4.17002E+04  4.72537E+04 -1.99066E+04  4.33272E+04  1.75331E+04  1.47415E+04  4.20442E+04
 -1.56494E+04  3.19944E+04 -2.53723E+04  9.45342E+02 -8.10568E+03 -2.74688E+04  2.09724E+04 -3.24350E+04
  3.98211E+04 -7.21481E+03  3.34060E+04  2.42611E+04  1.65282E+04  4.47649E+04 -7.92428E+03  4.52349E+04
 -2.93246E+04  3.11255E+04 -3.97519E+04  9.13437E+03 -3.99435E+04 -1.51459E+04 -2.16901E+04 -3.59376E+04
  7.36532E+03 -3.60968E+04  2.87034E+04 -1.38333E+04  2.73939E+04  1.07075E+04  4.12152E+03  1.82854E+04
 -1.39730E+04  7.27676E+03 -1.09217E+04 -8.03790E+03  5.97697E+03 -1.02923E+04  1.75356E+04  7.13298E+03
  1.20388E+04  2.29288E+04 -5.84168E+03  2.53894E+04 -2.14379E+04  1.00378E+04 -2.60731E+04 -5.25828E+03
 -1.82974E+04 -1.73758E+04 -6.25630E+03 -1.86645E+04  3.75753E+03 -1.63759E+04  1.28888E+04 -1.61417E+04
  2.16368E+04 -1.18574E+04  2.88928E+04  3.13000E+03  2.21628E+04  1.77371E+04  4.79853E+03  3.47247E+04
 -1.59577E+04  2.82827E+04 -2.71386E+04  9.36191E+03 -2.12685E+04 -1.10578E+04 -4.33018E+03 -1.40428E+04
  2.37994E+03 -2.81705E+03 -2.63701E+03  5.67876E+03 -1.41243E+04  5.20036E+03 -1.38276E+04 -4.34769E+03
 -1.04513E+04 -1.66145E+04  6.00387E+03 -1.95972E+04  1.27455E+04 -1.52454E+04  1.44809E+04 -1.40620E+03
  1.00587E+04  1.15414E+04 -1.44902E+03  1.59247E+04 -1.18906E+04  1.00129E+04 -1.66296E+04 -2.76913E+03
 -1.24519E+04 -1.54615E+04 -2.28590E+03 -2.02407E+04  9.08580E+03 -1.64427E+04  1.69264E+04 -6.82096E+03
  1.60337E+04  1.98624E+03  1.07991E+04  4.71229E+03  6.49788E+03  1.30460E+02  8.50577E+03 -7.84338E+02
  1.49354E+04  2.70076E+03  1.68936E+04  1.38692E+04  9.76265E+03  2.52277E+04 -2.84967E+03  2.90529E+04
 -1.70468E+04  2.18733E+04 -2.69099E+04  1.15056E+04 -2.72992E+04 -7.58908E+02 -2.32138E+04 -1.64871E+04
 -1.08618E+04 -2.24886E+04  7.34546E+03 -2.16687E+04  1.87748E+04 -1.15004E+04  1.68915E+04  4.18473E+03
  7.00783E+03  1.25840E+04 -6.96992E+03  1.15876E+04 -1.45797E+04  1.76373E+03 -1.12775E+04 -7.64467E+03
 -9.97637E+02 -1.34925E+04  6.40376E+03 -1.01295E+04  8.56476E+03 -1.74700E+03  1.75928E+03  5.41052E+03
 -5.88198E+03  1.89772E+03 -3.51651E+03 -3.78779E+03  5.31823E+02 -1.07121E+04  8.54823E+03 -1.08065E+04
  1.35194E+04 -4.07542E+03  1.31152E+04  2.49913E+03  1.11629E+04  1.03943E+04  5.64899E+03  1.54444E+04
 -1.56715E+03  1.69255E+04 -1.11573E+04  1.12382E+04 -1.36073E+04  3.49253E+03 -9.16218E+03 -1.60975E+03
 -4.36005E+03 -3.68914E+03 -1.67807E+02  9.04203E+02 -1.74853E+03  2.55777E+03 -3.51972E+03  3.71827E+03
 -8.39101E+03 -7.60124E+02 -9.65056E+03 -5.68114E+03 -3.71139E+03 -1.29802E+04  3.99740E+03 -9.12464E+03
  7.88050E+03 -4.09113E+03  4.82036E+03  1.27539E+03  1.02346E+03  3.59394E+03 -4.19975E+03 -9.28198E+02
 -4.31373E+03 -5.14597E+03 -7.63684E+02 -8.20455E+03  4.57215E+03 -8.12761E+03  1.01921E+04 -4.09967E+03
  1.25233E+04  6.11769E+02  9.86012E+03  6.79001E+03  1.67381E+03  9.42289E+03 -6.39832E+03  8.12709E+03
 -6.91996E+03  2.18340E+03 -4.04042E+03 -1.99350E+03  1.51247E+03 -1.62776E+03  5.68971E+03 -1.09762E+03
  4.55979E+03  3.89964E+03  4.65827E+02  6.51417E+03 -4.48340E+03  6.85304E+03 -8.27069E+03  2.25390E+03
 -4.49193E+03 -3.80901E+03  3.02625E+02 -5.99933E+03  4.87475E+03 -3.44122E+03  3.00986E+03  1.44518E+03
  1.96112E+03  2.40740E+03 -4.25688E+03  5.55803E+03 -7.06165E+03  2.69873E+03 -5.19788E+03 -5.85359E+02
 -3.59560E+03 -6.03020E+03  2.18571E+02 -8.15605E+03  6.15230E+03 -4.71398E+03  7.86349E+03  1.61988E+03
  4.57368E+03  5.11709E+03  8.77149E+02  6.60005E+03 -4.52225E+03  3.48268E+03 -6.45466E+03 -2.47483E+01
 -6.16929E+03 -6.61872E+03 -1.65102E+03 -6.43330E+03  3.74446E+03 -4.50319E+03  2.91297E+03 -2.88191E+03
  3.12193E+03 -2.30783E+02  6.80754E+01  1.66913E+03  2.37996E+02 -4.62563E+02  3.61105E+02 -2.61999E+03
  4.68420E+03 -9.35918E+02  6.45569E+03  2.13402E+02  6.31752E+03  4.34237E+03  6.08499E+03  8.17718E+03
 -1.57832E+03  1.02058E+04 -8.27755E+03  6.21881E+03 -9.96352E+03  2.62573E+02 -8.82090E+03 -3.23323E+03
 -3.65283E+03 -6.39653E+03 -2.80905E+02 -5.97078E+03  2.22888E+03 -2.50413E+03  1.04747E+03 -3.78718E+03
  6.22557E+02 -1.22170E+03  2.17149E+03 -2.17048E+03  3.76779E+03 -1.89854E+03  5.05462E+03  2.63764E+02
  4.83874E+03  1.82836E+03  2.37289E+03  3.20007E+03 -1.95241E+03  3.77347E+03 -5.59733E+03  3.44127E+03
 -5.77754E+03 -7.45961E+02 -1.11377E+03 -3.47898E+03 -2.38512E+02 -4.71327E+03  3.46112E+03 -5.02666E+03
  6.65063E+03 -3.49026E+03  7.43840E+03  9.02618E+02  4.77200E+03  4.52191E+03  2.48585E+03  6.55678E+03
 -2.78869E+03  5.88676E+03 -3.32527E+03  2.93955E+03  3.21908E+01 -4.85135E+02 -3.98244E+02 -8.54842E+02
 -1.23673E+03  9.57207E+02 -1.43612E+03  1.72335E+03 -2.61809E+03  5.06901E+02 -4.78091E+03 -2.23530E+03
 -1.67826E+03 -4.97134E+03  1.80178E+03 -5.35749E+03  2.75830E+03 -4.63499E+03  4.29192E+03 -8.11818E+02
  4.23476E+03  2.35843E+03  2.07857E+03  3.34106E+03 -9.35363E+02  4.99969E+03 -3.33410E+03  2.78124E+03
 -4.95781E+03  1.71042E+03 -3.55645E+03 -1.47592E+03  3.53327E+02 -3.69459E+03  1.80782E+03 -3.23091E+03
  3.52540E+03 -1.50994E+03  2.22619E+03  1.57536E+03  9.14647E+01  1.99810E+03  1.16670E+03 -4.82593E+02
  1.40099E+03 -7.36676E+02  1.51488E+03  1.24656E+03  1.51768E+02  2.38269E+03  1.25060E+03  1.82476E+03
 -1.66356E+03  3.30724E+03 -3.64882E+03  4.61266E+03 -4.91850E+03  1.47051E+03 -5.14992E+03 -6.61826E+02
 -2.16806E+03 -4.00538E+03  1.14229E+02 -5.08751E+03  2.50748E+03 -3.04837E+03  2.87363E+03 -1.38272E+03
  1.74744E+03  1.47780E+03  1.48751E+02  3.42653E+03 -1.09729E+03  7.90372E+02 -7.29757E+02 -4.35436E+01
 -7.71925E+02 -1.95589E+03  8.97646E+02 -2.35482E+03  1.19025E+03 -8.07177E+02  1.24703E+03 -5.42892E+02
  1.77845E+03 -4.46951E+02  8.72683E+02 -2.59648E+02 -9.08633E+02  7.83757E+02  2.79764E+03 -3.84584E+02
  9.57273E+01  2.50857E+02  1.89452E+03  1.07302E+03  2.10508E+02  3.00961E+03  7.23356E+02  2.84991E+03
 -2.27329E+03  1.02430E+03 -1.08933E+03 -7.77276E+02 -1.58250E+03 -9.17837E+02 -4.58829E+02 -1.65866E+03
  1.26378E+03 -1.38761E+03  6.75740E+02 -2.06324E+02  9.97659E+02  9.67780E+02  1.50184E+02  2.32945E+03
 -2.02650E+03  6.77187E+01 -2.52530E+03 -2.25799E+03 -3.21948E+02 -8.78499E+02  1.11221E+03 -1.88991E+03
  1.40718E+03 -7.06806E+02  9.72734E+02 -6.67757E+02  1.21495E+03  1.54253E+02  1.14414E+03  2.33121E+03
 -6.14699E+02  1.18834E+02 -1.48534E+03 -3.37309E+02  4.76084E+02 -4.16858E+02  2.18340E+03 -5.07449E+02
  8.32323E+02  7.09444E+02  3.32213E+03  8.68750E+02  1.93769E+03  2.63550E+03  3.20738E+01  1.87076E+03
 -2.73806E+03  1.32552E+02 -1.26688E+03  2.27206E+00 -9.90357E+02 -1.00453E+03  2.44133E+02 -6.32443E+02
  2.69012E+03 -5.44116E+02  1.11087E+03  7.14430E+02 -9.32761E+02  1.30781E+03  4.96821E+02  1.04589E+03
  2.94380E+02  1.66455E+03 -1.52170E+03 -9.30350E+02 -6.01706E+01  6.76634E+02 -3.05590E+02  1.56579E+03
  5.04894E+02  5.52374E+02 -2.11531E+03  1.26564E+03 -1.90923E+03 -5.31526E+02 -1.53133E+03 -2.15006E+03
 -9.72137E+02 -2.57089E+03  1.74765E+02 -2.25476E+03  1.12669E+03 -1.50997E+03  2.25162E+03 -1.25651E+03
  2.79176E+03 -7.34329E+02  1.21689E+03  1.88641E+03 -1.11656E+03  1.72150E+03 -1.18955E+03  1.02469E+03
 -1.38295E+02  3.66344E+02 -1.74357E+03 -3.49136E+02 -8.09626E+01  4.58104E+02 -2.19042E+02  2.99741E+02
 -3.39875E+00  5.48207E+01 -1.99079E+02 -1.57167E+02  7.69355E+02 -6.46554E+02 -1.04902E+03  8.87619E+02
  5.14336E+02 -4.57737E+02  3.89780E+02 -2.45894E+01  2.04540E+03  1.53624E+03 -1.38955E+02  1.63221E+03
 -9.06455E+02  2.64728E+03 -1.99224E+03  5.77017E+02 -2.26923E+03 -2.24489E+02 -9.89736E+02 -2.07143E+03
 -1.84217E+03 -1.91256E+03  7.44844E+02 -8.29263E+02  7.90591E+02 -3.70710E+02  7.81694E+02  1.17759E+02
  4.17429E+02  1.19566E+03 -3.58997E+02 -6.59556E+02  2.03325E+01  1.23473E+03  4.31071E+02  4.41154E+02
  9.40582E+02  8.73864E+02  4.83680E+02  8.23057E+02  3.75688E+02  9.62528E+01 -2.48843E+02  5.14273E+02
 -1.54646E+03  1.19831E+03 -4.29660E+02 -9.17440E+01 -2.03849E+03 -4.17649E+02  3.43807E+02 -2.38244E+03
  8.64277E+02 -4.62520E+02 -3.10138E+02 -6.58207E+02  1.61194E+03 -5.44063E+01  1.27913E+03  8.91104E+02
  2.29770E+02  3.05734E+02 -3.39399E+01  2.67455E+02 -2.28035E+02  1.55670E+03 -2.06167E+02 -1.39776E+03
 -9.79074E+02  1.13939E+03 -4.40256E+02 -3.86380E+02 -1.06512E+03 -1.02161E+03 -1.05577E+03  9.38408E+02
 -2.09646E+03  5.88829E+02 -5.24213E+02 -6.61544E+02  8.85179E+02 -2.00013E+03  2.07549E+03  2.17308E+02
  6.57942E+02 -8.29477E+02  1.51380E+02 -9.42272E+02 -2.37295E+02  1.43691E+03 -5.06880E+02  9.61572E+02
