 $NMID ID='MM_0lb_SNR200_11hz_g60_97.RAW', FMTDAT='(8E13.5)'
 TRAMP=1., VOLUME=1. $END
  3.09474E+05 -3.55575E+02  3.37648E+05  2.51460E+05  8.62110E+04  3.39470E+05 -1.32712E+05  2.51745E+05
 -1.88714E+05  8.30567E+04 -1.11212E+05 -3.17336E+04  3.77260E+01 -4.96655E+04  5.32569E+04  2.39802E+02
  3.43834E+04  5.22096E+04 -1.71296E+04  7.56356E+04 -6.13624E+04  6.45071E+04 -8.60878E+04  3.27040E+04
 -8.26500E+04 -1.22674E+04 -5.81107E+04 -5.23577E+04 -1.50140E+04 -7.11986E+04  2.80778E+04 -4.60098E+04
  4.09946E+04  3.54135E+03  1.61410E+04  4.89298E+04 -3.51021E+04  4.90154E+04 -6.77587E+04 -6.84058E+02
 -5.47674E+04 -5.79565E+04 -7.40855E+03 -7.96201E+04  3.44776E+04 -5.60752E+04  4.96569E+04 -1.81078E+04
  4.45885E+04  1.08915E+04  3.22411E+04  2.76508E+04  1.58897E+04  3.07399E+04 -6.56450E+03  2.71616E+04
 -2.21027E+04  1.15584E+04 -1.99824E+04 -6.27640E+03  7.12499E+03 -6.34152E+03  2.29576E+04  1.34931E+04
  6.25608E+03  3.66376E+04 -3.28849E+04  3.65013E+04 -6.60389E+04  3.13080E+03 -5.78936E+04 -4.45793E+04
 -1.15564E+04 -6.52334E+04  4.23026E+04 -4.73259E+04  6.01993E+04 -1.87851E+03  3.65843E+04  3.38647E+04
 -4.18359E+03  3.84657E+04 -3.05558E+04  1.82277E+04 -3.21369E+04 -2.95599E+03 -1.92838E+04 -1.14210E+04
 -9.46086E+03 -1.42134E+04  1.19926E+03 -1.94401E+04  7.44812E+03 -2.39895E+04  1.55959E+04 -1.23305E+04
  9.91607E+03  4.59638E+03 -9.23792E+03  1.27919E+04 -2.34411E+04 -5.34250E+03 -9.64568E+03 -3.76354E+04
  2.45893E+04 -4.59741E+04  5.22747E+04 -2.07637E+04  4.87303E+04  2.12856E+04  1.65494E+04  4.75597E+04
 -1.63998E+04  3.66337E+04 -2.60949E+04  3.93370E+03 -1.21405E+04 -3.00955E+04  2.17089E+04 -3.53925E+04
  4.41281E+04 -1.09940E+04  4.05788E+04  2.45752E+04  2.13043E+04  5.01566E+04 -7.73843E+03  5.59130E+04
 -3.54547E+04  3.68144E+04 -4.64250E+04  1.08696E+04 -4.67739E+04 -1.87043E+04 -2.50917E+04 -4.23031E+04
  8.05576E+03 -4.08574E+04  3.33931E+04 -1.62188E+04  3.27357E+04  1.24861E+04  5.00552E+03  2.05925E+04
 -1.35101E+04  9.79802E+03 -1.07536E+04 -7.41774E+03  4.96865E+03 -1.09788E+04  2.03982E+04  4.41660E+03
  1.34989E+04  2.32037E+04 -5.93646E+03  2.46103E+04 -2.40151E+04  1.34050E+04 -3.10979E+04 -3.30087E+03
 -2.33916E+04 -1.89271E+04 -1.18508E+04 -2.46430E+04  3.51249E+03 -2.38124E+04  1.79941E+04 -2.18986E+04
  3.13916E+04 -1.36538E+04  3.77193E+04  4.95064E+03  2.76399E+04  2.41906E+04  4.20430E+03  3.99585E+04
 -2.03498E+04  3.29785E+04 -3.04533E+04  1.18364E+04 -2.11645E+04 -1.26668E+04 -4.26016E+03 -1.24270E+04
 -1.23747E+03 -1.39703E+03 -7.40243E+03  8.68875E+03 -1.97376E+04  4.78777E+03 -2.09135E+04 -8.47681E+03
 -1.09389E+04 -2.22172E+04  6.80209E+03 -2.55735E+04  1.84884E+04 -2.06172E+04  2.22431E+04 -2.73614E+03
  1.43767E+04  1.57158E+04 -1.23356E+03  2.29957E+04 -1.49222E+04  1.25725E+04 -2.37170E+04 -3.82243E+03
 -1.64017E+04 -2.02034E+04 -1.84965E+03 -2.60819E+04  1.17854E+04 -2.25087E+04  2.26222E+04 -1.10259E+04
  2.16259E+04  3.39908E+02  1.68124E+04  3.93214E+03  6.68512E+03  1.28265E+03  1.15224E+04 -1.50836E+03
  2.10872E+04  1.87247E+03  2.45315E+04  1.77281E+04  1.71325E+04  3.69785E+04 -1.38229E+03  4.25073E+04
 -2.33883E+04  3.47898E+04 -3.91710E+04  1.86515E+04 -4.36437E+04 -3.64723E+03 -3.51195E+04 -2.59197E+04
 -1.31072E+04 -3.69304E+04  1.34028E+04 -3.13367E+04  2.53405E+04 -1.45601E+04  2.52253E+04  6.44352E+03
  9.11366E+03  1.85794E+04 -1.09335E+04  1.47620E+04 -1.96880E+04  4.06381E+03 -1.54517E+04 -1.32373E+04
  4.50123E+02 -1.81271E+04  9.60681E+03 -1.33812E+04  1.36673E+04 -7.88119E+02  4.15461E+03  6.95233E+03
 -8.44086E+03  2.74178E+03 -8.42669E+03 -5.76635E+03 -1.69525E+03 -1.73103E+04  1.05188E+04 -1.72524E+04
  2.18638E+04 -1.07877E+04  2.39799E+04  3.77872E+03  2.15877E+04  1.71532E+04  9.32591E+03  2.73513E+04
 -5.16654E+03  2.69533E+04 -1.77926E+04  1.66969E+04 -2.17783E+04  3.58088E+03 -1.43055E+04 -4.78882E+03
 -7.15415E+03 -6.54248E+03 -1.60255E+03  9.25453E+02 -2.59733E+03  2.82042E+03 -7.45408E+03  4.90033E+03
 -1.33415E+04 -8.52360E+02 -1.37288E+04 -1.15327E+04 -5.91172E+03 -1.86160E+04  6.44701E+03 -1.50134E+04
  1.18131E+04 -5.66689E+03  8.73068E+03  1.86781E+03  6.02163E+02  6.45178E+03 -8.03598E+03 -2.96035E+02
 -6.30264E+03 -9.77588E+03 -2.58381E+03 -1.58119E+04  9.07807E+03 -1.54224E+04  1.89176E+04 -7.72951E+03
  2.16617E+04  2.50224E+03  1.64895E+04  1.40231E+04  3.00177E+03  1.87220E+04 -8.88508E+03  1.51790E+04
 -1.19455E+04  3.36272E+03 -5.97894E+03 -2.26297E+03  2.14171E+03 -4.49985E+03  8.79616E+03  2.73232E+02
  7.33359E+03  7.09959E+03  1.58519E+03  1.17546E+04 -8.43971E+03  1.00528E+04 -1.36795E+04  3.14146E+03
 -1.07810E+04 -6.39503E+03 -7.87991E+02 -1.33640E+04  6.99236E+03 -6.67796E+03  9.13403E+03  1.89179E+03
  2.93354E+03  8.44849E+03 -8.82028E+03  1.13345E+04 -1.20748E+04  4.42000E+03 -1.21778E+04 -5.11890E+03
 -7.67711E+03 -1.41552E+04  3.84975E+03 -1.68860E+04  1.39599E+04 -9.88421E+03  1.60375E+04  3.13677E+03
  7.60025E+03  1.12582E+04 -1.49890E+03  1.33615E+04 -9.63987E+03  7.59727E+03 -9.98615E+03 -8.22606E+02
 -1.13728E+04 -1.03442E+04 -7.18517E+02 -1.14019E+04  7.59271E+03 -8.50519E+03  6.56186E+03 -3.05473E+03
  4.43039E+03  1.39755E+03 -6.62572E+02  3.37878E+03 -4.90460E+02 -2.85560E+03  2.73857E+03 -6.64666E+03
  1.03644E+04 -4.80583E+03  1.42748E+04  1.15871E+03  1.29703E+04  1.06414E+04  1.07037E+04  1.86588E+04
 -4.36031E+03  2.12145E+04 -1.75041E+04  1.51746E+04 -2.33710E+04  2.41578E+03 -1.83994E+04 -8.81931E+03
 -7.54544E+03 -1.62514E+04 -2.70977E+01 -1.42701E+04  3.22046E+03 -8.03239E+03  6.05798E+03 -3.06846E+03
  2.66118E+03 -3.19984E+03  3.34102E+03 -4.40286E+03  6.36267E+03 -4.31092E+03  7.50503E+03 -2.23882E+03
  9.20665E+03  3.16380E+03  3.91247E+03  8.21043E+03 -1.44611E+03  9.74246E+03 -8.55664E+03  9.02166E+03
 -1.31341E+04 -2.22465E+03 -9.22116E+03 -9.30073E+03 -4.19474E+02 -1.34402E+04  7.75624E+03 -1.36169E+04
  1.50867E+04 -6.79639E+03  1.74709E+04  3.34694E+03  1.16881E+04  1.11224E+04  3.10210E+03  1.56886E+04
 -6.75916E+03  1.38841E+04 -7.84109E+03  2.97285E+03 -6.52821E+03 -6.57368E+02 -3.62792E+03 -1.63622E+03
 -1.06845E+03 -9.79047E+02 -1.94941E+03  2.18965E+03 -4.74730E+03  3.12048E+03 -9.83367E+03 -2.99149E+03
 -6.80002E+03 -1.04514E+04 -4.74555E+02 -1.46068E+04  8.40929E+03 -1.20807E+04  1.26591E+04 -3.74966E+03
  1.24209E+04  4.51203E+03  6.88665E+03  1.00568E+04 -2.73574E+03  1.18958E+04 -9.60161E+03  7.73221E+03
 -1.21176E+04  8.61452E+02 -1.01776E+04 -8.30737E+03 -1.90063E+03 -1.08902E+04  4.01165E+03 -8.33671E+03
  7.95123E+03 -1.85281E+03  4.16132E+03  2.17738E+03  3.08195E+03  3.50872E+03  2.18846E+03  1.15720E+03
  2.74296E+03  4.65978E+02  4.43593E+03  2.92833E+03  4.52858E+03  4.34978E+03  4.60783E+03  5.92758E+03
 -1.07116E+03  9.58634E+03 -8.19126E+03  9.49810E+03 -1.29058E+04  1.56785E+03 -1.34212E+04 -4.72758E+03
 -6.50568E+03 -1.19505E+04  1.56079E+03 -1.43747E+04  7.79917E+03 -1.00078E+04  8.93702E+03 -1.39029E+03
  9.03991E+03  4.06709E+03  1.48158E+03  8.66151E+03 -2.98851E+03  4.07532E+03 -5.09940E+03 -1.55680E+03
 -3.08635E+03 -5.79538E+03  2.81544E+03 -7.57747E+03  5.19084E+03 -2.07103E+03  7.05843E+03  2.23556E+03
  3.98671E+03  2.62505E+03  1.35583E+03  1.76027E+03 -1.11714E+03  1.59077E+03  1.54619E+03  3.37870E+02
  3.13364E+03 -1.30659E+03  6.02958E+03  3.08629E+03  3.09691E+03  5.42547E+03 -3.50158E+02  1.04466E+04
 -5.57332E+03  6.22643E+03 -7.64216E+03  1.03930E+03 -6.00926E+03 -2.20561E+03 -2.99572E+03 -6.20417E+03
  2.71600E+03 -5.80767E+03  3.98396E+03 -1.44266E+03  2.66918E+03  2.00769E+03  2.94477E+02  4.76803E+03
 -5.14902E+03  3.14342E+03 -5.49876E+03 -3.59682E+03 -3.00245E+03 -6.10608E+03  4.12475E+02 -6.66241E+03
  4.73513E+03 -3.78775E+03  6.04946E+03  1.10271E+02  3.33589E+03  1.12901E+03  2.13041E+03  2.97292E+03
 -3.22741E+03  5.31138E+02 -2.58161E+03 -1.83725E+03  1.54288E+03 -4.92463E+03  6.20544E+03 -4.23003E+03
  7.77500E+03  1.53727E+03  7.40805E+03  4.33457E+03  7.97411E+02  8.50757E+03 -2.61775E+03  7.68240E+03
 -6.87351E+03  4.02069E+03 -7.75949E+03  3.67034E+02 -3.94932E+03 -4.18480E+03  6.83685E+02 -3.99318E+03
  4.76701E+03 -2.73809E+03  3.58428E+03  1.94317E+03  9.49887E+02  4.93084E+03 -1.28143E+03  4.63336E+03
 -8.86193E+02  2.38378E+03 -2.57186E+03  6.42958E+02 -1.60742E+03  7.42961E+02  6.52833E+02  1.18426E+03
 -2.09567E+03  2.59700E+03 -4.81566E+03  3.30781E+03 -7.72167E+03  4.99055E+02 -1.04400E+04 -4.31748E+03
 -6.00075E+03 -9.18101E+03  1.77422E+03 -1.18267E+04  7.22648E+03 -9.25143E+03  1.01443E+04 -3.42103E+03
  1.00552E+04  3.69664E+03  6.48477E+03  7.74722E+03 -1.12598E+03  7.82910E+03 -2.74852E+03  5.99754E+03
 -4.83293E+03  2.15853E+03 -2.61393E+03 -1.28023E+03 -1.05483E+03 -4.38816E+02 -2.32633E+03 -1.33425E+03
 -1.39442E+02  5.40992E+02 -2.37489E+03  1.08878E+02 -7.62784E+02 -1.68970E+03  7.27870E+02 -3.85094E+03
  2.94699E+03 -3.50146E+03  5.30658E+03 -1.79373E+03  5.13654E+03  5.56760E+03  9.60509E+02  6.40135E+03
 -3.62108E+03  7.91147E+03 -7.58881E+03  5.30811E+03 -9.75998E+03 -1.94480E+03 -6.30920E+03 -5.69073E+03
 -2.25306E+03 -8.53137E+03  2.13646E+03 -6.61704E+03  6.06278E+03 -3.89469E+03  5.89449E+03  1.39818E+03
  1.76065E+03  3.38401E+03 -7.36819E+02  7.70762E+02 -1.68891E+03 -2.12607E+02  1.19010E+02 -2.58054E+03
  3.12153E+03 -1.28523E+03  2.81359E+03  1.18274E+03  2.27825E+03  2.45504E+03 -2.14530E+02  4.13698E+03
 -4.03216E+03  2.93274E+03 -4.56291E+03 -9.61649E+02 -3.89684E+03 -3.80018E+03 -1.30201E+03 -6.51478E+03
  3.46572E+03 -3.93761E+03  4.55661E+03 -1.09536E+03  6.38170E+03  2.71263E+03  2.16390E+03  5.03295E+03
  2.68646E+03  4.30800E+03 -1.78964E+03  2.71763E+03 -3.69051E+03  2.48924E+03 -2.78597E+03  3.58031E+02
 -1.42036E+03  3.48565E+02 -1.54828E+03  8.24252E+02 -2.25590E+03  1.95039E+03 -3.05572E+03 -1.97435E+02
 -3.75055E+03 -1.56495E+03 -2.22420E+03 -5.11046E+03  2.19725E+03 -6.59782E+03  5.69220E+03 -3.77140E+03
  5.05655E+03 -1.06575E+02  2.29687E+03  4.22317E+03 -7.34646E+02  5.57098E+03 -4.18225E+03  3.52668E+03
