 $NMID ID='MM_0lb_SNR200_8hz_g55_72.RAW', FMTDAT='(8E13.5)'
 TRAMP=1., VOLUME=1. $END
  3.08354E+05  1.83206E+03  3.38033E+05  2.50373E+05  8.62151E+04  3.37948E+05 -1.31928E+05  2.51986E+05
 -1.89728E+05  8.41088E+04 -1.12629E+05 -3.22412E+04  1.79289E+03 -5.15461E+04  5.36167E+04 -1.47403E+03
  3.69156E+04  5.37103E+04 -1.77694E+04  7.53065E+04 -6.31227E+04  6.50168E+04 -8.66775E+04  3.39066E+04
 -8.22968E+04 -1.07097E+04 -5.81818E+04 -5.20038E+04 -1.36291E+04 -7.20982E+04  2.65984E+04 -4.67155E+04
  4.00800E+04  4.19183E+03  1.70521E+04  4.85113E+04 -3.50276E+04  4.77393E+04 -6.72655E+04  2.02499E+02
 -5.41870E+04 -5.91038E+04 -7.69177E+03 -7.98017E+04  3.43382E+04 -5.66962E+04  4.94060E+04 -1.82464E+04
  4.56399E+04  1.20304E+04  3.39564E+04  2.89391E+04  1.60043E+04  3.19925E+04 -5.01780E+03  2.87408E+04
 -2.32498E+04  1.17701E+04 -1.84657E+04 -6.28546E+03  6.71716E+03 -7.38671E+03  2.30561E+04  1.45769E+04
  6.68503E+03  3.98121E+04 -3.49218E+04  3.75664E+04 -6.66173E+04  1.18586E+03 -6.05581E+04 -4.43251E+04
 -1.41121E+04 -6.62463E+04  4.35122E+04 -4.60321E+04  6.16690E+04 -2.90328E+03  3.62919E+04  3.57411E+04
 -4.07246E+03  3.96159E+04 -3.24819E+04  1.89574E+04 -3.39821E+04 -5.06051E+03 -1.96874E+04 -1.20512E+04
 -9.62820E+03 -1.53237E+04 -1.32891E+03 -2.05221E+04  8.50510E+03 -2.51899E+04  1.49251E+04 -1.18562E+04
  9.43297E+03  6.99270E+03 -1.05784E+04  1.09857E+04 -2.22147E+04 -8.47690E+03 -9.96745E+03 -3.66483E+04
  2.65448E+04 -4.84828E+04  5.25803E+04 -2.05067E+04  5.00717E+04  2.10017E+04  1.82255E+04  5.04895E+04
 -1.62393E+04  3.77666E+04 -2.82793E+04  2.77462E+03 -1.19736E+04 -2.88123E+04  2.44757E+04 -3.80963E+04
  4.63397E+04 -1.13637E+04  4.04114E+04  2.55635E+04  2.26391E+04  5.35919E+04 -6.92098E+03  5.84798E+04
 -3.73911E+04  3.96795E+04 -4.88735E+04  1.11756E+04 -4.93147E+04 -1.91745E+04 -2.68861E+04 -4.39640E+04
  8.35794E+03 -4.37322E+04  3.43248E+04 -1.55181E+04  3.47967E+04  1.25532E+04  6.00039E+03  2.13076E+04
 -1.59394E+04  9.70503E+03 -1.11349E+04 -6.68287E+03  4.59848E+03 -1.14652E+04  1.86699E+04  4.31973E+03
  1.45873E+04  2.16752E+04 -4.60804E+03  2.85964E+04 -2.45506E+04  1.36745E+04 -3.32155E+04 -2.66104E+03
 -2.59941E+04 -1.88992E+04 -1.20628E+04 -2.85147E+04  3.94514E+03 -2.74673E+04  2.26616E+04 -2.46118E+04
  3.40574E+04 -1.30703E+04  4.15317E+04  5.10519E+03  2.63594E+04  2.41864E+04  4.86084E+03  4.29185E+04
 -1.98130E+04  3.43703E+04 -3.04285E+04  1.21663E+04 -2.23152E+04 -9.98855E+03 -6.01839E+03 -1.35930E+04
  1.34879E+03 -3.52501E+02 -6.10684E+03  1.00890E+04 -2.01537E+04  5.66713E+03 -2.09598E+04 -9.84906E+03
 -1.24230E+04 -2.25051E+04  6.51393E+03 -2.88851E+04  1.98889E+04 -2.07636E+04  2.32029E+04 -1.03333E+03
  1.54561E+04  1.62869E+04 -7.88256E+02  2.44894E+04 -1.76142E+04  1.43610E+04 -2.62827E+04 -7.39501E+03
 -2.01632E+04 -2.09645E+04 -2.56842E+03 -2.99320E+04  1.28455E+04 -2.49944E+04  2.57665E+04 -1.33766E+04
  2.48062E+04 -7.03921E+02  1.66354E+04  6.36525E+03  9.50530E+03  9.59850E+02  1.22654E+04 -1.05517E+03
  2.35581E+04  3.57858E+03  2.65685E+04  1.89862E+04  1.83428E+04  3.91736E+04 -3.94531E+02  4.75850E+04
 -2.66106E+04  3.95572E+04 -4.58440E+04  2.04119E+04 -4.87308E+04 -2.57210E+03 -3.85855E+04 -2.79601E+04
 -1.41795E+04 -4.09670E+04  1.49567E+04 -3.40319E+04  3.12507E+04 -1.42851E+04  2.62662E+04  7.81106E+03
  8.01910E+03  1.91430E+04 -1.33623E+04  1.66229E+04 -2.25585E+04  2.35471E+03 -1.73328E+04 -1.42384E+04
 -6.58749E+02 -2.14192E+04  1.03809E+04 -1.52649E+04  1.41384E+04 -1.13107E+03  3.65197E+03  8.64666E+03
 -8.75206E+03  4.20205E+03 -9.60257E+03 -6.25103E+03 -2.60025E+03 -1.77903E+04  1.30373E+04 -2.10840E+04
  2.51467E+04 -1.07903E+04  2.97371E+04  4.58322E+03  2.66973E+04  2.06123E+04  1.03248E+04  3.37378E+04
 -6.72223E+03  3.41309E+04 -2.19607E+04  2.18799E+04 -2.49174E+04  4.72782E+03 -1.47687E+04 -6.81770E+03
 -7.13132E+03 -7.27628E+03 -8.56227E+02  1.23662E+03 -4.97940E+03  2.80549E+03 -8.18349E+03  5.67834E+03
 -1.54315E+04 -2.67286E+03 -1.38848E+04 -1.21278E+04 -7.43738E+03 -2.05149E+04  5.64974E+03 -1.66602E+04
  1.40462E+04 -4.74190E+03  9.59902E+03  5.45435E+03 -2.12189E+03  6.08787E+03 -8.19279E+03  1.69663E+02
 -9.54581E+03 -1.00776E+04 -4.91495E+02 -1.74764E+04  1.15564E+04 -1.95416E+04  2.14964E+04 -1.04270E+04
  2.78976E+04  1.94025E+03  1.90626E+04  1.69917E+04  1.85766E+03  2.28807E+04 -1.14675E+04  1.62721E+04
 -1.32750E+04  3.92288E+03 -7.43392E+03 -3.32229E+03  1.70773E+03 -6.83747E+03  8.27273E+03 -5.47294E+02
  8.54856E+03  7.68795E+03  2.35495E+03  1.49125E+04 -1.09859E+04  1.41588E+04 -1.63107E+04  2.03985E+03
 -1.09020E+04 -9.89049E+03 -1.16674E+03 -1.45115E+04  1.10682E+04 -7.32623E+03  1.12740E+04  3.63695E+03
  1.83388E+03  1.09284E+04 -1.00744E+04  1.36156E+04 -1.66606E+04  5.53666E+03 -1.62018E+04 -4.57196E+03
 -9.74419E+03 -1.85307E+04  4.42901E+03 -2.02976E+04  1.75950E+04 -1.21554E+04  1.75912E+04  3.67394E+03
  1.12789E+04  1.34742E+04 -1.40785E+03  1.76520E+04 -1.31758E+04  1.06846E+04 -1.41394E+04 -1.58520E+03
 -1.08099E+04 -1.11177E+04 -1.66058E+03 -1.30564E+04  7.39647E+03 -1.03929E+04  7.78946E+03 -4.86343E+03
  5.12095E+03  3.24605E+03 -1.22850E+03  1.59952E+03 -2.19136E+03 -4.53963E+03  2.47037E+03 -9.36419E+03
  1.30451E+04 -7.29156E+03  1.91299E+04  3.34729E+03  1.75137E+04  1.16297E+04  1.08429E+04  2.40231E+04
 -6.27903E+03  2.64840E+04 -2.25751E+04  2.05204E+04 -2.92211E+04  4.64592E+03 -2.33343E+04 -1.05568E+04
 -1.09735E+04 -2.03064E+04 -1.66884E+03 -1.67300E+04  6.59478E+03 -8.96305E+03  5.56462E+03 -6.89764E+03
  5.09532E+03 -2.52700E+03  3.86875E+03 -1.66478E+03  6.98943E+03 -4.76814E+03  8.27998E+03 -1.73689E+03
  1.16924E+04  2.92892E+03  7.61004E+03  1.18555E+04 -1.95359E+03  1.44773E+04 -1.22916E+04  9.63552E+03
 -1.79203E+04 -1.44753E+03 -1.09585E+04 -1.27299E+04  4.57805E+02 -1.82474E+04  1.01215E+04 -1.85477E+04
  2.00294E+04 -9.51516E+03  2.18903E+04  2.42902E+03  1.62343E+04  1.61676E+04  2.81276E+03  1.97288E+04
 -9.70084E+03  1.59851E+04 -1.25182E+04  4.79571E+03 -8.09839E+03 -1.22804E+03 -4.72872E+03 -2.54532E+03
 -2.68178E+03 -9.47963E+01 -2.89352E+03  4.11232E+03 -8.57193E+03  3.87344E+03 -1.18796E+04 -2.69143E+03
 -7.71397E+03 -1.24183E+04 -2.21218E+03 -1.73794E+04  1.22006E+04 -1.65768E+04  1.65606E+04 -4.56375E+03
  1.65771E+04  6.91611E+03  8.68090E+03  1.59538E+04 -4.21537E+03  1.64277E+04 -1.23885E+04  1.00464E+04
 -1.60725E+04  6.82159E+02 -1.29733E+04 -1.04738E+04 -1.88612E+03 -1.54231E+04  6.91804E+03 -1.11845E+04
  1.08929E+04 -4.24196E+03  7.11206E+03  2.46157E+03  3.60467E+03  3.96405E+03  1.61386E+03  1.55182E+03
  2.49472E+03  2.20663E+03  4.74010E+03  1.91747E+03  4.78348E+03  5.31844E+03  5.19755E+03  1.03342E+04
 -4.62059E+03  1.37847E+04 -1.23879E+04  1.34123E+04 -1.93348E+04  4.13403E+03 -1.70868E+04 -8.76698E+03
 -9.37134E+03 -1.69611E+04  2.89831E+03 -1.93038E+04  1.15452E+04 -1.24695E+04  1.47103E+04 -2.65279E+03
  1.09831E+04  6.87083E+03  6.10844E+02  9.76340E+03 -3.35252E+03  7.29556E+03 -7.61203E+03 -6.14190E+02
 -4.86036E+03 -7.94706E+03  2.98536E+03 -8.85966E+03  7.25313E+03 -3.40564E+03  8.24232E+03  2.87627E+03
  4.85215E+03  4.86795E+03  1.25670E+02  3.68078E+03 -1.26521E+03  2.39572E+03  9.10115E+02 -2.84937E+03
  2.83308E+03 -8.22668E+02  6.98805E+03  2.47611E+03  4.31857E+03  9.23408E+03 -1.68025E+03  1.42588E+04
 -7.31870E+03  7.92706E+03 -1.12908E+04  4.24143E+03 -1.27909E+04 -3.04208E+03 -4.25244E+03 -7.46681E+03
  1.44360E+03 -6.76551E+03  3.24979E+03 -2.82942E+03  3.35217E+03  3.91493E+03 -2.01086E+03  6.34446E+03
 -6.89877E+03  2.62383E+03 -8.94535E+03 -4.21964E+03 -4.89502E+03 -8.65365E+03  2.37226E+03 -9.60940E+03
  5.19347E+03 -4.64676E+03  9.83481E+03 -9.65370E+02  6.35715E+03  4.34616E+03  8.38647E+02  5.19822E+03
 -3.87714E+03  3.07125E+03 -3.63794E+03 -3.82933E+03  1.64242E+03 -7.19116E+03  8.29261E+03 -6.58840E+03
  1.22829E+04  3.03883E+02  9.37376E+03  8.40790E+03  3.33971E+03  1.34862E+04 -3.02645E+03  1.12284E+04
 -9.44071E+03  6.36911E+03 -1.01769E+04 -1.63519E+03 -6.69905E+03 -9.19588E+03  1.09550E+03 -7.88355E+03
  7.89390E+03 -2.95594E+03  6.45390E+03  4.49009E+03  1.68331E+03  7.40734E+03 -1.14283E+03  6.97518E+03
 -3.60578E+03  4.83403E+03 -3.79654E+03  1.79329E+02 -2.24983E+03  8.03688E+02 -2.54422E+03  2.78165E+03
 -4.00551E+03  3.19970E+03 -1.00669E+04  3.21970E+03 -1.22584E+04  7.15639E+02 -1.40416E+04 -7.88645E+03
 -7.45399E+03 -1.63443E+04  2.58786E+03 -1.80355E+04  1.11269E+04 -1.37194E+04  1.78530E+04 -6.10181E+03
  1.65347E+04  2.19124E+03  9.84194E+03  1.09640E+04  1.42764E+03  1.34108E+04 -3.02753E+03  8.79922E+03
 -6.54419E+03  2.15489E+03 -3.97264E+03 -6.25114E+02 -2.81570E+03 -1.47819E+03 -1.49695E+03  9.74116E+02
 -2.90431E+03  1.33146E+03 -5.16609E+02  5.14770E+02 -4.06906E+02 -1.70515E+03  1.62901E+02 -4.92455E+03
  5.64958E+03 -4.33457E+03  8.88484E+03  2.86406E+02  9.37612E+03  8.32990E+03  2.69821E+03  1.35578E+04
 -5.97621E+03  1.55570E+04 -1.30488E+04  7.96886E+03 -1.49955E+04 -1.64582E+03 -1.12989E+04 -9.40458E+03
 -3.42466E+03 -1.36530E+04  4.48899E+03 -1.19031E+04  7.69627E+03 -6.11576E+03  9.50158E+03 -2.27169E+03
  4.55585E+03  5.06034E+03 -2.42800E+03  1.81670E+03 -3.96049E+03 -1.04398E+03  1.73496E+02 -4.17050E+03
  4.07543E+03 -6.74218E+02  4.70781E+03  1.30893E+03  3.24018E+03  5.65168E+03 -3.63060E+01  8.51339E+03
 -5.21463E+03  4.51691E+03 -7.22256E+03  4.41745E+02 -6.30752E+03 -4.19924E+03  1.40530E+02 -1.16196E+04
  6.08120E+03 -8.63315E+03  1.02825E+04 -2.07625E+03  1.02024E+04  3.84672E+03  6.49728E+03  6.08108E+03
  1.23623E+03  9.41371E+03 -3.49735E+03  7.97172E+03 -5.69390E+03  3.69162E+03 -3.55315E+03  3.28950E+02
 -3.82459E+03 -5.21713E+00 -1.41162E+03  9.68009E+02 -5.75103E+03  2.14866E+03 -5.75131E+03 -2.22779E+03
 -6.01553E+03 -4.61681E+03 -2.88470E+03 -1.10152E+04  6.86307E+03 -1.11607E+04  7.25171E+03 -6.67564E+03
  9.78373E+03  2.11868E+03  5.83529E+03  5.93572E+03 -6.18401E+02  9.18879E+03 -6.97384E+03  5.54339E+03
