 $NMID ID='MM_0lb_SNR200_11hz_g50_8.RAW', FMTDAT='(8E13.5)'
 TRAMP=1., VOLUME=1. $END
  3.09656E+05  2.92511E+02  3.37592E+05  2.51917E+05  8.61762E+04  3.38921E+05 -1.31895E+05  2.50422E+05
 -1.90987E+05  8.44126E+04 -1.12893E+05 -3.32517E+04  2.21153E+02 -5.03311E+04  5.45676E+04 -9.27027E+02
  3.50909E+04  5.11559E+04 -1.66196E+04  7.67925E+04 -6.15725E+04  6.45596E+04 -8.46126E+04  3.27002E+04
 -8.27921E+04 -1.11274E+04 -5.76963E+04 -5.11325E+04 -1.47329E+04 -6.99364E+04  2.81786E+04 -4.65945E+04
  4.09885E+04  3.50433E+03  1.74313E+04  4.79866E+04 -3.47753E+04  4.79759E+04 -6.70661E+04  1.07809E+03
 -5.47682E+04 -5.75165E+04 -6.51706E+03 -7.90242E+04  3.49166E+04 -5.74402E+04  4.86144E+04 -1.80478E+04
  4.40954E+04  1.15088E+04  3.29387E+04  2.64520E+04  1.69316E+04  2.96160E+04 -5.50260E+03  2.77746E+04
 -2.21576E+04  1.28504E+04 -1.91005E+04 -3.21795E+03  7.30723E+03 -7.59544E+03  2.25846E+04  1.37807E+04
  7.73937E+03  3.54841E+04 -3.29304E+04  3.55591E+04 -6.45980E+04  2.01922E+03 -5.82564E+04 -4.33988E+04
 -1.06959E+04 -6.50550E+04  4.05909E+04 -4.59590E+04  5.98250E+04 -3.58962E+03  3.63921E+04  3.30015E+04
 -4.91519E+03  3.78031E+04 -3.08773E+04  1.80948E+04 -3.32949E+04 -3.76184E+03 -1.77470E+04 -1.04577E+04
 -9.71727E+03 -1.55084E+04 -8.17927E+02 -1.86712E+04  7.45117E+03 -2.49165E+04  1.64500E+04 -1.11762E+04
  1.09211E+04  4.63147E+03 -9.29485E+03  1.27784E+04 -2.24569E+04 -6.55697E+03 -8.87645E+03 -3.51812E+04
  2.37689E+04 -4.55948E+04  5.05751E+04 -2.08139E+04  4.77647E+04  2.06407E+04  1.62543E+04  4.66381E+04
 -1.54691E+04  3.61994E+04 -2.66027E+04  2.91181E+03 -9.39694E+03 -2.82748E+04  2.14860E+04 -3.48151E+04
  4.28511E+04 -1.05186E+04  3.80777E+04  2.37378E+04  1.97630E+04  4.85242E+04 -8.37364E+03  5.34879E+04
 -3.25646E+04  3.55342E+04 -4.42455E+04  1.04152E+04 -4.52391E+04 -1.84087E+04 -2.46966E+04 -3.90546E+04
  8.20342E+03 -4.06437E+04  3.17299E+04 -1.63114E+04  3.05974E+04  1.10069E+04  4.73180E+03  1.99488E+04
 -1.48278E+04  8.60404E+03 -1.07149E+04 -7.28978E+03  5.28804E+03 -1.10226E+04  1.84960E+04  6.02088E+03
  1.43193E+04  2.28740E+04 -5.39267E+03  2.66085E+04 -2.27991E+04  1.22507E+04 -3.00208E+04 -3.72242E+03
 -2.35755E+04 -1.71591E+04 -1.06862E+04 -2.26429E+04  4.14931E+03 -2.31184E+04  1.80841E+04 -2.08317E+04
  2.88300E+04 -1.53311E+04  3.56914E+04  3.52797E+03  2.58219E+04  2.24979E+04  4.39636E+03  3.91486E+04
 -1.88733E+04  3.14693E+04 -2.80471E+04  1.17128E+04 -2.13477E+04 -8.67873E+03 -5.08041E+03 -1.27511E+04
  2.17988E+03 -1.89475E+03 -7.66111E+03  6.85282E+03 -1.85403E+04  5.29413E+03 -1.96802E+04 -8.49636E+03
 -1.20828E+04 -2.15525E+04  5.40407E+03 -2.55497E+04  1.69721E+04 -2.01238E+04  2.11381E+04 -1.38271E+03
  1.25752E+04  1.54326E+04 -1.92203E+03  2.35384E+04 -1.53503E+04  1.27127E+04 -2.23201E+04 -4.09126E+03
 -1.60226E+04 -2.03006E+04 -2.94878E+03 -2.67898E+04  1.14307E+04 -2.13004E+04  2.01287E+04 -1.03814E+04
  2.02837E+04  2.37803E+02  1.46754E+04  5.01693E+03  8.54125E+03  2.08743E+03  1.09212E+04 -1.77228E+03
  2.01696E+04  3.36628E+03  2.15140E+04  1.81205E+04  1.53672E+04  3.39029E+04 -1.55195E+03  4.09179E+04
 -2.40764E+04  3.30346E+04 -3.82648E+04  1.64229E+04 -3.90454E+04 -3.24207E+03 -3.22409E+04 -2.28242E+04
 -1.44516E+04 -3.31891E+04  1.19597E+04 -3.03729E+04  2.57286E+04 -1.44264E+04  2.13263E+04  6.55859E+03
  7.94168E+03  1.69053E+04 -1.10625E+04  1.41269E+04 -1.87282E+04  3.45794E+03 -1.33000E+04 -1.15079E+04
  1.26121E+03 -1.67655E+04  1.05757E+04 -1.36609E+04  1.16952E+04 -1.83600E+03  4.31702E+03  8.67921E+03
 -8.13828E+03  4.52673E+03 -7.93265E+03 -7.08609E+03 -5.01138E+02 -1.64518E+04  1.09481E+04 -1.76742E+04
  1.98782E+04 -1.08139E+04  2.26408E+04  3.41089E+03  2.13301E+04  1.57657E+04  8.47458E+03  2.57987E+04
 -4.23400E+03  2.72913E+04 -1.70509E+04  1.65930E+04 -1.91002E+04  1.81340E+03 -1.51595E+04 -4.73699E+03
 -5.39243E+03 -6.86222E+03 -1.70299E+02  6.25577E+02 -2.65933E+03  2.09174E+03 -8.20795E+03  4.72802E+03
 -1.15659E+04 -1.17082E+03 -1.28895E+04 -1.11688E+04 -5.36218E+03 -1.86339E+04  4.96998E+03 -1.37684E+04
  1.15345E+04 -5.96539E+03  8.01211E+03  3.50760E+03 -6.29079E+02  4.69896E+03 -6.78872E+03 -2.14799E+03
 -6.81302E+03 -9.18089E+03 -2.67598E+02 -1.46665E+04  8.39681E+03 -1.36979E+04  1.72300E+04 -5.10566E+03
  2.17222E+04  1.84370E+03  1.56042E+04  1.17696E+04  2.95795E+03  1.66142E+04 -9.29706E+03  1.33203E+04
 -1.13379E+04  4.15021E+03 -6.24453E+03 -2.38110E+03  2.46706E+03 -3.87658E+03  7.83844E+03 -1.73636E+03
  6.73430E+03  5.09168E+03  1.29329E+03  1.03598E+04 -9.37161E+03  9.82069E+03 -1.25805E+04  2.46838E+03
 -8.75272E+03 -7.68237E+03  3.36227E+02 -1.12901E+04  8.18431E+03 -6.21085E+03  7.20944E+03  1.83736E+03
  1.17332E+03  8.68410E+03 -8.23660E+03  1.04714E+04 -1.16351E+04  3.41740E+03 -1.16827E+04 -3.76849E+03
 -6.48488E+03 -1.28752E+04  3.72966E+03 -1.58190E+04  1.30859E+04 -8.47213E+03  1.31674E+04  2.11045E+03
  8.26579E+03  1.15593E+04 -1.05620E+03  1.41089E+04 -1.09580E+04  7.45660E+03 -1.06303E+04 -7.37591E+02
 -1.06293E+04 -9.26372E+03 -1.47806E+03 -1.06658E+04  5.53212E+03 -7.85064E+03  4.97746E+03 -1.56131E+03
  5.18879E+03  1.20486E+03 -1.22838E+03  2.68856E+03 -7.65811E+02 -9.16345E+02  2.84197E+03 -4.98263E+03
  9.47375E+03 -4.06722E+03  1.33277E+04  2.46524E+03  1.39909E+04  8.77628E+03  9.30141E+03  1.73074E+04
 -4.48553E+03  1.92278E+04 -1.64602E+04  1.54904E+04 -2.10797E+04  2.88339E+03 -1.80198E+04 -7.38987E+03
 -8.96169E+03 -1.30972E+04  1.05354E+02 -1.29741E+04  4.11703E+03 -6.73050E+03  4.17088E+03 -4.00758E+03
  4.11043E+03 -2.25904E+03  3.37626E+03 -5.00059E+03  5.38162E+03 -1.80039E+03  8.20941E+03 -9.90551E+02
  9.76251E+03  1.59878E+03  2.77594E+03  7.67605E+03 -1.23452E+03  9.85631E+03 -1.07224E+04  8.27042E+03
 -1.20747E+04 -9.64352E+02 -6.95486E+03 -7.09971E+03 -2.12247E+03 -1.23475E+04  6.21898E+03 -1.35461E+04
  1.33441E+04 -5.53761E+03  1.63228E+04  1.77100E+03  1.12536E+04  1.23350E+04  1.25378E+03  1.44150E+04
 -5.99974E+03  1.15134E+04 -8.17906E+03  4.67879E+03 -4.96832E+03 -1.66183E+03 -2.99774E+03 -1.56259E+03
 -1.33512E+03  3.16527E+02 -2.03139E+03  2.62010E+03 -5.79576E+03  2.12773E+03 -8.10661E+03 -6.68378E+02
 -5.28908E+03 -8.18663E+03  2.85736E+02 -1.22537E+04  6.77054E+03 -1.09650E+04  1.20467E+04 -3.78640E+03
  1.15281E+04  6.12991E+03  4.32248E+03  1.01178E+04 -1.89078E+03  1.27065E+04 -7.54107E+03  6.39943E+03
 -1.14564E+04 -3.96628E+01 -1.07703E+04 -7.77767E+03 -6.63129E+02 -9.49723E+03  4.14620E+03 -8.41957E+03
  7.29167E+03 -2.69728E+03  5.33098E+03  1.68983E+03  1.15030E+03  2.89149E+03  2.07644E+02  1.20850E+03
  1.88949E+03  5.42526E+02  3.23035E+03  1.83464E+03  4.08764E+03  5.00761E+03  2.70694E+03  5.80329E+03
 -1.87530E+03  7.88233E+03 -6.85214E+03  1.07078E+04 -1.23891E+04  3.16641E+03 -1.25734E+04 -3.34671E+03
 -4.72956E+03 -1.11791E+04  1.28744E+03 -1.25924E+04  7.35147E+03 -8.33531E+03  9.59284E+03 -2.04884E+03
  8.95702E+03  4.99666E+03  2.66605E+03  7.49163E+03 -3.50707E+03  5.30969E+03 -4.26064E+03  1.01855E+03
 -5.02453E+03 -4.19570E+03  3.06466E+03 -4.23545E+03  4.02349E+03 -2.90472E+03  4.97743E+03  1.07431E+03
  4.13260E+03  3.38121E+03  2.58260E+03  1.04107E+03 -1.09506E+03  1.16933E+03  4.82615E+02 -1.63981E+03
  1.22143E+03 -1.37854E+03  6.27688E+03  1.63629E+03  2.77616E+03  6.46218E+03 -1.76046E+03  7.77986E+03
 -5.23531E+03  5.31178E+03 -6.80323E+03  1.92144E+03 -5.91782E+03 -3.78098E+03 -1.55086E+03 -4.61850E+03
  9.46581E+02 -4.61386E+03  1.70633E+03 -1.49199E+03  2.44100E+03  3.76335E+03 -9.56509E+02  4.18456E+03
 -4.59159E+03  3.23880E+03 -5.21304E+03 -4.28098E+03 -3.47933E+03 -5.51346E+03  4.65301E+02 -6.24156E+03
  4.58953E+03 -2.46242E+03  3.63021E+03 -1.41133E+03  3.60609E+03  2.25052E+03 -4.01886E+01  3.34235E+03
 -1.70994E+03  1.77199E+03 -3.96159E+03 -1.87534E+03  1.77599E+03 -3.80703E+03  6.67462E+03 -2.92131E+03
  6.37573E+03  4.81542E+02  8.13770E+03  4.27781E+03  3.64822E+03  7.35781E+03 -1.68787E+03  8.14397E+03
 -6.10567E+03  3.47017E+03 -6.51544E+03 -6.88972E+02 -2.27456E+03 -3.85898E+03  1.63062E+03 -4.92297E+03
  4.61728E+03 -3.67130E+03  4.30443E+03  3.49998E+03  2.31052E+03  3.81684E+03 -7.03837E+02  3.35305E+03
 -1.12319E+03  2.79471E+03 -2.75765E+03 -4.48220E+02  2.97815E+02  1.02406E+03 -2.47141E+03  2.31086E+03
 -1.73143E+03  2.15038E+03 -5.15833E+03  3.41648E+03 -6.05254E+03 -1.54912E+02 -8.75148E+03 -4.56655E+03
 -3.72814E+03 -1.04178E+04  2.17770E+03 -1.17384E+04  5.79926E+03 -8.91196E+03  9.84861E+03 -4.30416E+03
  9.36717E+03  2.40375E+03  6.40076E+03  5.65279E+03  1.93975E+01  8.54726E+03 -2.85404E+03  5.54131E+03
 -5.60396E+03  1.85563E+03 -2.82499E+03  1.28220E+02 -7.16959E+02 -6.24570E+02  4.01358E+02 -4.75944E+02
 -1.59729E+03  1.11806E+02 -5.24902E+02 -5.69576E+02  4.27218E+02 -1.65610E+03 -5.25067E+02 -3.03075E+03
  3.39107E+03 -2.03885E+03  3.57043E+03 -4.18464E+02  5.13704E+03  4.38278E+03 -8.53498E+01  7.48851E+03
 -2.93613E+03  8.37014E+03 -7.67150E+03  3.85843E+03 -9.18219E+03 -1.70508E+03 -5.42942E+03 -7.31298E+03
 -3.52135E+03 -7.18259E+03  2.58441E+03 -6.57823E+03  4.47458E+03 -4.53244E+03  5.70519E+03  8.36317E+01
  2.02643E+03  2.42411E+03 -8.58802E+01  2.46419E+03 -2.21788E+03 -1.96926E+02 -1.49616E+03 -1.70822E+03
  1.34705E+03 -2.92598E+02  2.61118E+03  8.17756E+02  1.35493E+03  3.17490E+03 -4.44281E+02  3.57270E+03
 -3.05688E+03  3.71816E+03 -4.63478E+03  2.44270E+02 -4.03617E+03 -3.57371E+03 -4.31030E+02 -6.07760E+03
  3.26870E+03 -5.28012E+03  7.13659E+03 -1.66300E+03  4.77734E+03 -2.31223E+02  2.87095E+03  5.16081E+03
  3.31681E+02  6.63248E+03 -5.37183E+02  3.54422E+03 -3.91631E+03  1.78695E+03 -3.01200E+03 -4.92353E+02
 -4.67934E+02 -2.22433E+02 -1.16193E+03  1.39341E+02 -2.88912E+03  9.06724E+02 -2.94699E+03 -1.26402E+03
 -3.04234E+03 -1.48765E+03 -9.93142E+02 -5.88490E+03  1.54298E+03 -6.82118E+03  5.65541E+03 -1.64928E+03
  4.65108E+03  3.40111E+02  2.31490E+03  2.44815E+03 -4.18700E+02  4.82505E+03 -2.95060E+03  2.99506E+03
