 $NMID ID='MM_0lb_SNR200_16hz_g60_7.RAW', FMTDAT='(8E13.5)'
 TRAMP=1., VOLUME=1. $END
  3.09667E+05  1.21044E+03  3.37797E+05  2.49186E+05  8.42083E+04  3.37266E+05 -1.31736E+05  2.50389E+05
 -1.90325E+05  8.38262E+04 -1.11350E+05 -3.25413E+04  1.33183E+03 -5.06066E+04  5.38042E+04  4.18164E+01
  3.66793E+04  5.32167E+04 -1.65652E+04  7.53506E+04 -6.09201E+04  6.34082E+04 -8.50258E+04  3.31942E+04
 -8.02908E+04 -1.19967E+04 -5.82053E+04 -5.10262E+04 -1.46918E+04 -6.91732E+04  2.71350E+04 -4.56474E+04
  3.93250E+04  3.13407E+03  1.61465E+04  4.74313E+04 -3.47509E+04  4.54660E+04 -6.67935E+04 -1.00320E+03
 -5.44755E+04 -5.77504E+04 -7.50352E+03 -7.66545E+04  3.26628E+04 -5.51291E+04  4.73892E+04 -1.79726E+04
  4.35337E+04  1.18161E+04  3.14569E+04  2.39787E+04  1.58323E+04  3.04989E+04 -5.14579E+03  2.74554E+04
 -2.07513E+04  1.27130E+04 -1.86574E+04 -4.70196E+03  6.43439E+03 -8.39669E+03  2.42164E+04  1.25803E+04
  8.01337E+03  3.73815E+04 -3.32989E+04  3.53284E+04 -6.37078E+04  2.44648E+03 -5.69101E+04 -4.35125E+04
 -1.21244E+04 -6.27772E+04  4.03155E+04 -4.51461E+04  5.90229E+04 -3.02844E+03  3.51479E+04  3.24176E+04
 -6.25385E+03  3.58072E+04 -3.03758E+04  1.56718E+04 -3.00804E+04 -4.53638E+03 -1.65280E+04 -1.18889E+04
 -9.06613E+03 -1.38801E+04 -9.07969E+02 -1.87518E+04  7.34106E+03 -2.25582E+04  1.50921E+04 -1.45471E+04
  1.14092E+04  5.20000E+03 -8.29410E+03  1.23659E+04 -1.97488E+04 -5.96008E+03 -8.63891E+03 -3.32686E+04
  2.40617E+04 -4.34925E+04  4.71462E+04 -1.90123E+04  4.41455E+04  2.03759E+04  1.57925E+04  4.49002E+04
 -1.69156E+04  3.21124E+04 -2.56973E+04  1.38477E+03 -9.09341E+03 -2.78091E+04  2.14693E+04 -3.39435E+04
  4.02538E+04 -8.84068E+03  3.42729E+04  2.36701E+04  1.76140E+04  4.68088E+04 -8.24539E+03  4.96231E+04
 -3.17816E+04  3.41856E+04 -4.06910E+04  9.07184E+03 -4.22480E+04 -1.61782E+04 -2.29856E+04 -3.70782E+04
  7.60682E+03 -3.79497E+04  3.11508E+04 -1.50491E+04  2.80680E+04  1.10621E+04  4.63547E+03  1.92068E+04
 -1.29887E+04  9.51415E+03 -1.04563E+04 -8.22085E+03  5.68781E+03 -1.03947E+04  1.70128E+04  6.04590E+03
  1.33674E+04  2.27392E+04 -5.06806E+03  2.44519E+04 -2.34943E+04  1.15666E+04 -2.76182E+04 -4.56853E+03
 -2.04923E+04 -1.78512E+04 -7.18788E+03 -2.03237E+04  3.42048E+03 -1.97153E+04  1.59542E+04 -1.82961E+04
  2.55266E+04 -1.30207E+04  3.23524E+04  2.44767E+03  2.35989E+04  1.90078E+04  4.53219E+03  3.65477E+04
 -1.70406E+04  2.83636E+04 -2.75596E+04  1.08471E+04 -2.11399E+04 -1.07086E+04 -3.19721E+03 -1.34810E+04
  1.49898E+03 -2.10980E+03 -4.05161E+03  7.34396E+03 -1.59685E+04  4.65760E+03 -1.54082E+04 -6.48758E+03
 -1.10008E+04 -1.84732E+04  4.79147E+03 -2.23001E+04  1.50889E+04 -1.57571E+04  1.68199E+04 -2.66327E+03
  1.08543E+04  1.34745E+04 -1.27921E+03  1.90827E+04 -1.29884E+04  1.00073E+04 -1.91046E+04 -3.52154E+03
 -1.41021E+04 -1.64462E+04 -2.08774E+03 -2.23036E+04  9.59248E+03 -1.83830E+04  1.83392E+04 -8.72814E+03
  1.80393E+04 -5.12443E+01  1.14714E+04  3.81538E+03  6.03044E+03  8.96495E+02  9.82785E+03 -5.27567E+02
  1.68190E+04  2.66504E+03  1.98584E+04  1.43104E+04  1.14816E+04  2.99289E+04 -4.84030E+03  3.33193E+04
 -1.92833E+04  2.65961E+04 -3.03007E+04  1.29704E+04 -3.22806E+04 -2.41964E+03 -2.64869E+04 -1.73644E+04
 -1.08729E+04 -2.73033E+04  9.37093E+03 -2.36193E+04  2.04711E+04 -1.28269E+04  1.82951E+04  4.99803E+03
  7.18011E+03  1.35515E+04 -8.71704E+03  1.21670E+04 -1.57173E+04  3.37006E+03 -1.18388E+04 -9.83750E+03
 -8.12925E+02 -1.49457E+04  7.39645E+03 -1.13341E+04  9.45648E+03 -1.15986E+03  2.34342E+03  6.34904E+03
 -7.71433E+03  3.04927E+03 -5.32882E+03 -6.09642E+03  2.84672E+02 -1.25182E+04  8.02440E+03 -1.31862E+04
  1.54902E+04 -5.99285E+03  1.75320E+04  3.02016E+03  1.54492E+04  1.32707E+04  6.91354E+03  1.92754E+04
 -2.52840E+03  2.10771E+04 -1.35930E+04  1.35932E+04 -1.47784E+04  3.23442E+03 -1.18235E+04 -2.61802E+03
 -4.16875E+03 -4.27031E+03 -1.33778E+01  1.78666E+03 -1.94802E+03  3.47332E+03 -4.54142E+03  4.21434E+03
 -1.09230E+04  6.45046E+02 -1.10418E+04 -9.13144E+03 -4.26143E+03 -1.38274E+04  4.60594E+03 -1.17015E+04
  9.51509E+03 -5.11250E+03  5.78288E+03  3.32543E+03  1.86488E+02  4.80005E+03 -4.68172E+03 -4.12998E+02
 -3.65673E+03 -5.86592E+03  4.47246E+02 -8.96002E+03  5.74297E+03 -1.08972E+04  1.24085E+04 -4.97184E+03
  1.47005E+04  2.74467E+02  1.20542E+04  8.22343E+03  2.94027E+03  1.09251E+04 -6.72016E+03  1.06804E+04
 -1.01905E+04  3.50199E+03 -4.72709E+03 -2.11711E+03  1.93764E+03 -2.95410E+03  5.25011E+03 -2.17732E+03
  4.67516E+03  4.15038E+03  1.20157E+03  8.16000E+03 -6.56801E+03  7.86782E+03 -8.63399E+03  2.49049E+03
 -6.36405E+03 -5.53974E+03 -6.50043E+02 -9.38493E+03  3.95305E+03 -4.64481E+03  5.46354E+03  1.76654E+03
  4.88543E+02  5.92871E+03 -6.63855E+03  6.74098E+03 -7.18758E+03  2.97485E+03 -6.35737E+03 -1.54439E+03
 -4.44423E+03 -9.76095E+03  1.62504E+03 -1.13883E+04  8.37020E+03 -6.11307E+03  8.61954E+03  8.09647E+02
  5.96655E+03  7.33175E+03 -7.38427E+01  8.89296E+03 -7.53426E+03  4.55224E+03 -7.69882E+03 -7.57679E+01
 -7.62196E+03 -6.41845E+03 -1.15468E+03 -6.73940E+03  3.87692E+03 -6.28034E+03  4.72171E+03 -2.95423E+03
  3.00131E+03  5.48454E+02  3.18709E+02  1.22669E+03 -3.35991E+01 -2.31926E+03  2.56745E+02 -3.57318E+03
  6.65236E+03 -9.50284E+02  7.34970E+03  4.84487E+02  7.24676E+03  4.64965E+03  6.99380E+03  1.15428E+04
 -3.11255E+03  1.26305E+04 -1.06491E+04  9.40372E+03 -1.46418E+04  1.94732E+03 -1.07198E+04 -5.15465E+03
 -5.26759E+03 -8.85683E+03  3.51593E+02 -6.30622E+03  2.56510E+03 -4.67331E+03  3.17703E+03 -3.05494E+03
  9.65838E+02 -1.52268E+03  2.16224E+03 -2.23490E+03  4.06882E+03 -1.56048E+03  3.22264E+03  5.68862E+02
  6.18824E+03  2.73796E+03  2.04061E+03  5.38471E+03 -2.10065E+03  5.32536E+03 -6.97159E+03  5.20753E+03
 -8.15786E+03 -2.46931E+03 -3.23212E+03 -5.09251E+03 -2.58310E+02 -7.84013E+03  4.16392E+03 -7.46401E+03
  9.18118E+03 -5.57116E+03  8.94691E+03  5.79946E+02  6.95293E+03  6.37765E+03  3.09901E+02  9.46069E+03
 -2.95394E+03  8.35639E+03 -4.54318E+03  2.32751E+03 -2.47465E+03 -1.26249E+03  6.67541E+01 -7.45476E+02
 -8.00735E+02  5.64999E+02 -1.69199E+03  1.46174E+03 -3.38771E+03  1.17511E+03 -5.00169E+03 -1.08540E+03
 -4.22315E+03 -5.21935E+03  1.35048E+03 -6.06558E+03  3.07208E+03 -7.09959E+03  6.21945E+03 -1.35024E+03
  7.68785E+03  3.40046E+03  3.26338E+03  4.23666E+03 -1.73843E+03  6.14734E+03 -4.60667E+03  4.73105E+03
 -5.69492E+03 -2.29697E+02 -3.99732E+03 -4.19481E+03  3.75866E+02 -3.85495E+03  1.89360E+03 -3.16635E+03
  4.96116E+03 -1.23504E+03  2.41909E+03  1.31934E+03  4.90784E+02  2.83757E+03  9.41817E+02  1.08501E+03
  2.29196E+03  6.75676E+02  1.31703E+03  1.98444E+03  1.98080E+03  3.70492E+03  1.80710E+03  2.94837E+03
 -1.18530E+03  4.27587E+03 -4.01325E+03  4.89308E+03 -4.55460E+03  2.77479E+03 -5.35010E+03 -1.92616E+03
 -3.41588E+03 -5.96908E+03  1.08355E+03 -7.24252E+03  3.78230E+03 -4.92319E+03  4.79362E+03 -1.77888E+03
  4.21672E+03  2.69681E+03  1.63134E+03  2.82604E+03 -1.14482E+03  1.66560E+03 -2.14239E+03 -5.50356E+02
 -1.52337E+03 -9.67654E+02  1.09701E+03 -2.17000E+03  2.76131E+03 -1.91753E+03  2.15387E+03  6.58218E+02
  5.97859E+02 -2.61663E+02  1.90267E+02 -2.32051E+02 -1.14815E+03  1.09821E+03  2.77062E+03 -7.12780E+02
  3.52473E+02 -6.75803E+02  2.36064E+03  1.00453E+03  1.09052E+03  2.82961E+03 -5.88573E+02  5.19814E+03
 -2.76792E+03  2.80272E+03 -1.95364E+03  2.22821E+02 -3.63210E+03 -2.30009E+03 -7.18360E+02 -1.45228E+03
  4.93952E+02 -1.58740E+03  1.66225E+03 -1.09925E+03 -3.74514E+02  1.39590E+03  6.40320E+02  2.46849E+03
 -2.75098E+03  9.21903E+00 -2.87090E+03 -2.64988E+03 -8.89298E+02 -3.87079E+03 -4.14505E+02 -2.02007E+03
  1.69402E+03 -1.31080E+03  2.05334E+03 -2.33805E+02  1.74959E+03 -7.39931E+02  2.47185E+01  1.72242E+03
 -1.01670E+03 -4.75238E+02 -3.07127E+02 -5.94164E+02  7.83817E+02 -1.75282E+03  2.09768E+03 -1.91069E+03
  3.24427E+03 -2.81268E+02  4.04193E+03  1.62538E+03  1.04495E+02  3.13713E+03  1.18735E+01  3.12490E+03
 -3.06875E+03  1.65516E+03 -2.85671E+03 -5.83566E+02 -1.89591E+03 -2.22900E+03 -1.12098E+02 -1.44633E+03
  8.04913E+02 -7.28747E+02  1.41229E+03  6.56398E+02  5.15178E+02  2.26690E+03  6.37184E+01  1.84678E+03
 -2.99863E+02  2.00596E+03 -9.46853E+02  7.90350E+01 -1.10701E+03  3.17861E+02 -1.15074E+03  1.83202E+03
 -5.42419E+02  2.45773E+03 -2.12451E+03  2.29494E+03 -4.30006E+03  4.86753E+02 -4.09375E+03 -1.84007E+03
 -1.40986E+03 -3.37625E+03  1.98561E+03 -4.43365E+03  2.26261E+03 -3.22214E+03  4.25219E+03 -1.09858E+03
  5.03028E+03  1.18688E+03  3.61010E+03  2.03101E+03 -6.87480E+02  3.11952E+03 -1.92473E+03  1.54628E+03
 -1.98161E+03  9.90752E+02 -1.19159E+03 -9.43175E+02 -7.30469E+02  1.67871E+02  3.60788E+02  2.08313E+02
 -2.25882E+02 -2.32731E+02 -1.54741E+02 -3.63676E+02  2.89720E+02 -6.14515E+02  4.13618E+02 -1.62601E+03
  2.04606E+03 -8.14872E+02  1.05310E+03  1.61301E+02  1.93296E+03  1.85904E+03 -1.29179E+03  2.76878E+03
 -1.23288E+03  2.92375E+03 -1.92516E+03  1.56374E+03 -2.43593E+03 -2.92370E+02 -9.64486E+02 -3.06333E+03
 -2.20175E+03 -4.19778E+03  1.26394E+03 -2.00700E+03  2.04074E+03 -6.15836E+02  1.62675E+02  1.24499E+02
  1.25935E+03  1.57798E+03 -2.74781E+02  7.30705E+02  2.53531E+02  2.30276E+02  1.70195E+02 -2.40722E+03
 -1.58684E+02 -7.93550E+02  5.19203E+02  2.63399E+03 -4.61348E+02  9.44678E+02 -2.63752E+02  2.06298E+02
 -1.59079E+03  1.21801E+03 -7.82244E+02  3.46909E+01 -1.01588E+03 -1.85714E+03  1.20090E+02 -9.13828E+02
  9.47628E+02 -7.31812E+02  2.28016E+03 -3.61546E+02  1.80455E+03 -9.90878E+02  1.41731E+03  1.87631E+03
 -4.52348E+02  1.89350E+03 -9.98932E+02 -7.61391E+01 -1.16209E+03  4.35404E+02 -5.75339E+02  1.22678E+02
 -1.97736E+01  3.51244E+01 -5.79021E+02 -9.07377E+02 -6.39423E+02 -6.46068E+02 -1.62528E+03 -4.09093E+01
 -9.25904E+02 -1.20692E+02 -9.53085E+02 -2.36668E+03  8.52241E+02 -2.04558E+03  1.30686E+03 -1.03770E+03
  1.38920E+03  1.21645E+03  6.41467E+02  1.00822E+03  4.91202E+02  1.05165E+03  3.91464E+02  2.82428E+03
