 $NMID ID='MM_0lb_SNR200_17hz_g40_74.RAW', FMTDAT='(8E13.5)'
 TRAMP=1., VOLUME=1. $END
  3.09556E+05  2.47122E+02  3.37487E+05  2.50858E+05  8.43521E+04  3.36843E+05 -1.33036E+05  2.49887E+05
 -1.89776E+05  8.32718E+04 -1.10639E+05 -3.24638E+04  1.07941E+03 -5.00285E+04  5.33300E+04  1.48306E+03
  3.59069E+04  5.26200E+04 -1.68454E+04  7.47956E+04 -6.07706E+04  6.21948E+04 -8.29357E+04  3.23763E+04
 -7.94238E+04 -1.24767E+04 -5.61956E+04 -4.97495E+04 -1.50011E+04 -6.71844E+04  2.62336E+04 -4.49361E+04
  3.91550E+04  4.01821E+03  1.51716E+04  4.69110E+04 -3.44183E+04  4.68968E+04 -6.54910E+04 -6.78982E+02
 -5.24762E+04 -5.63980E+04 -4.90831E+03 -7.56584E+04  3.38859E+04 -5.28230E+04  4.64541E+04 -1.71703E+04
  4.06158E+04  1.07090E+04  3.09975E+04  2.47813E+04  1.64556E+04  2.80452E+04 -4.49820E+03  2.74692E+04
 -2.19431E+04  1.27543E+04 -1.95311E+04 -3.54221E+03  3.57232E+03 -7.23377E+03  2.09561E+04  1.05328E+04
  7.83315E+03  3.32365E+04 -3.05639E+04  3.38807E+04 -6.21467E+04  1.61324E+03 -5.64492E+04 -4.25250E+04
 -1.17177E+04 -6.10737E+04  3.85402E+04 -4.30705E+04  5.54181E+04 -1.84644E+03  3.19183E+04  3.07359E+04
 -6.93306E+03  3.36166E+04 -2.81762E+04  1.31340E+04 -2.85997E+04 -4.98742E+03 -1.45948E+04 -9.78656E+03
 -7.52060E+03 -1.13669E+04 -2.46527E+02 -1.68077E+04  7.42499E+03 -2.24954E+04  1.36249E+04 -1.45069E+04
  1.17846E+04  4.90816E+03 -6.18841E+03  1.21166E+04 -1.97395E+04 -3.00172E+03 -8.22149E+03 -3.18341E+04
  2.15080E+04 -4.04131E+04  4.47425E+04 -1.87437E+04  4.25979E+04  1.82404E+04  1.47725E+04  4.21769E+04
 -1.55614E+04  3.13258E+04 -2.44837E+04  1.09216E+03 -8.38974E+03 -2.59571E+04  1.92246E+04 -3.26553E+04
  3.90608E+04 -8.74167E+03  3.21451E+04  2.20469E+04  1.55448E+04  4.23588E+04 -8.68467E+03  4.60663E+04
 -2.80557E+04  3.01282E+04 -3.83151E+04  9.46604E+03 -3.91792E+04 -1.41945E+04 -2.15755E+04 -3.49583E+04
  7.00419E+03 -3.51706E+04  2.89209E+04 -1.24561E+04  2.72922E+04  1.12646E+04  1.57766E+03  1.81251E+04
 -1.43021E+04  8.91289E+03 -1.01907E+04 -6.47373E+03  5.40178E+03 -1.01594E+04  1.76221E+04  5.74620E+03
  1.25560E+04  2.15611E+04 -7.00908E+03  2.36516E+04 -2.00808E+04  1.03373E+04 -2.57260E+04 -6.20286E+03
 -1.67814E+04 -1.67744E+04 -6.28672E+03 -1.67002E+04  4.59196E+03 -1.47541E+04  1.27757E+04 -1.53571E+04
  2.23566E+04 -1.27296E+04  2.85749E+04  6.99648E+02  2.17923E+04  1.68725E+04  3.04435E+03  3.34951E+04
 -1.63526E+04  2.86845E+04 -2.61709E+04  9.17015E+03 -2.10422E+04 -1.13086E+04 -3.85116E+03 -1.42781E+04
  2.30233E+03 -4.28231E+03 -4.01563E+03  5.47167E+03 -1.33162E+04  6.08998E+03 -1.47527E+04 -5.86360E+03
 -9.42604E+03 -1.66765E+04  4.84377E+03 -1.94915E+04  1.34200E+04 -1.39372E+04  1.50877E+04 -2.05195E+03
  9.05279E+03  1.15501E+04 -6.03706E+02  1.72086E+04 -1.09228E+04  8.67828E+03 -1.55433E+04 -3.74237E+03
 -1.15812E+04 -1.43687E+04 -5.12468E+02 -1.96443E+04  9.39265E+03 -1.57783E+04  1.59601E+04 -6.92635E+03
  1.50688E+04  1.21260E+03  9.45857E+03  4.04654E+03  5.81124E+03 -1.16222E+02  7.75120E+03 -1.54568E+03
  1.42217E+04  3.04350E+03  1.50057E+04  1.30378E+04  9.86287E+03  2.47648E+04 -2.95848E+03  2.83717E+04
 -1.61489E+04  2.15225E+04 -2.57031E+04  1.13179E+04 -2.65370E+04 -1.84152E+03 -2.36844E+04 -1.53050E+04
 -1.06123E+04 -2.15779E+04  7.26001E+03 -1.84703E+04  1.57324E+04 -1.10315E+04  1.55838E+04  4.46337E+03
  6.58905E+03  1.13701E+04 -8.30608E+03  1.16657E+04 -1.31785E+04  3.15740E+03 -1.05281E+04 -8.84943E+03
 -9.85238E+02 -1.30164E+04  6.27807E+03 -9.42179E+03  8.75765E+03 -2.70998E+03  1.99091E+03  4.77162E+03
 -6.03226E+03  1.25948E+03 -4.98254E+03 -4.20278E+03  5.26282E+02 -1.11952E+04  9.13960E+03 -1.18067E+04
  1.30023E+04 -5.54832E+03  1.28756E+04  2.64843E+03  1.13814E+04  9.61095E+03  5.89468E+03  1.48462E+04
 -1.76400E+03  1.57910E+04 -1.03423E+04  1.04684E+04 -1.25843E+04  2.75246E+03 -9.10700E+03 -2.33840E+03
 -3.73794E+03 -3.52460E+03 -4.44179E+02  8.24165E+02 -1.94767E+03  1.35087E+03 -4.66679E+03  3.58805E+03
 -9.18275E+03 -2.93957E+02 -9.38440E+03 -6.90217E+03 -4.04356E+03 -1.31071E+04  3.91233E+03 -9.33198E+03
  7.50319E+03 -3.91599E+03  5.87414E+03  2.55620E+03  4.37848E+02  3.78856E+03 -3.52783E+03  6.38557E+02
 -3.65543E+03 -6.39312E+03 -8.82330E+02 -6.87731E+03  5.44457E+03 -8.73007E+03  1.00759E+04 -4.07866E+03
  1.21666E+04  4.56421E+02  9.97661E+03  5.95566E+03  2.61328E+03  9.17513E+03 -4.65349E+03  9.14592E+03
 -7.26998E+03  3.57806E+03 -3.07756E+03 -1.52964E+03  1.44469E+03 -1.86134E+03  4.31387E+03  2.56712E+01
  4.51361E+03  3.07346E+03  1.31125E+03  7.05334E+03 -4.04666E+03  7.46047E+03 -8.57888E+03  3.29314E+03
 -5.12934E+03 -5.43447E+03 -4.24400E+02 -6.13512E+03  4.88170E+03 -3.17841E+03  4.30993E+03  1.35531E+03
  8.90146E+02  2.97785E+03 -5.39081E+03  4.99021E+03 -6.03154E+03  3.29923E+03 -4.75705E+03 -1.76251E+03
 -4.07695E+03 -6.75690E+03  1.20383E+03 -7.42929E+03  7.44718E+03 -5.13394E+03  6.40920E+03  9.45624E+02
  4.64148E+03  5.69321E+03 -1.28925E+03  7.27386E+03 -5.30282E+03  3.72797E+03 -4.29722E+03 -5.21047E+02
 -7.11949E+03 -6.27086E+03 -1.95821E+03 -5.60147E+03  2.13212E+03 -6.00533E+03  3.35271E+03 -3.43099E+03
  3.38065E+03  8.82624E+02  9.58974E+02  1.49950E+03 -3.94814E+02 -2.86599E+02 -9.36825E+02 -2.23253E+03
  3.90038E+03 -2.44964E+02  6.01079E+03  1.89129E+03  5.16253E+03  3.57442E+03  6.02600E+03  7.31375E+03
 -9.96782E+02  1.05186E+04 -7.92349E+03  6.66788E+03 -1.06249E+04  7.28233E+02 -9.72606E+03 -3.11014E+03
 -4.32589E+03 -6.99137E+03 -5.54675E+02 -6.86575E+03  2.81661E+03 -3.78638E+03  1.72989E+03 -2.99935E+03
  1.34525E+03 -1.09013E+03  2.93043E+03 -2.37992E+03  4.82284E+03 -1.50533E+03  4.70635E+03  1.01987E+03
  6.36875E+03  2.04369E+03  7.61113E+02  3.58393E+03 -3.57485E+02  4.01749E+03 -5.21809E+03  3.63421E+03
 -5.95565E+03 -1.78154E+03 -2.09944E+03 -4.12880E+03  1.27699E+03 -5.92910E+03  4.32264E+03 -5.52315E+03
  7.09540E+03 -3.66666E+03  7.78416E+03  4.70087E+02  5.44952E+03  5.53064E+03  1.40197E+03  5.55488E+03
 -2.46318E+03  7.22796E+03 -2.80676E+03  2.33163E+03 -2.36165E+03 -8.53020E+02 -8.31940E+02 -7.42601E+02
  6.10891E+02  1.92228E+02 -1.50709E+03  1.14532E+03 -1.38793E+03  1.48425E+03 -4.09223E+03 -1.43748E+02
 -1.28179E+03 -5.20860E+03  1.34012E+03 -5.40170E+03  3.30058E+03 -5.41861E+03  4.60316E+03 -1.39742E+03
  4.30773E+03  1.25086E+03  2.12635E+03  4.01043E+03 -6.41417E+02  4.28634E+03 -3.86202E+03  2.66681E+03
 -4.95079E+03 -5.32389E+02 -3.99396E+03 -2.58215E+03  3.96725E+02 -4.07112E+03  2.37251E+03 -2.85749E+03
  3.77135E+03 -9.24318E+02  2.69107E+03  9.81688E+02  2.29682E+03  1.55890E+03 -1.03081E+02  2.51611E+02
  2.59454E+03  7.99645E+02  2.52306E+03  5.05166E+02  1.01177E+03  2.45618E+03  1.43640E+03  2.99969E+03
 -1.31980E+03  3.58547E+03 -2.76549E+03  5.50531E+03 -4.46990E+03  2.57316E+03 -5.06810E+03 -1.00036E+03
 -1.61950E+03 -5.11122E+03  4.46499E+02 -5.96401E+03  1.04123E+03 -4.17692E+03  3.28548E+03 -1.26977E+03
  3.20945E+03  2.47348E+03  4.71694E+02  2.20939E+03 -9.68019E+02  1.25445E+03 -1.65924E+03 -6.77735E+02
 -1.69776E+03 -2.41033E+03  1.28779E+03 -1.76306E+03  8.76277E+02 -1.14598E+03  1.56237E+03  2.56643E+02
  6.09523E+02  2.55468E+02  1.46245E+03  6.65830E+01 -2.78015E+02  1.11971E+03  5.07357E+02 -8.86106E+02
 -6.28158E+02  1.01807E+02  1.64458E+03  1.00199E+02  2.12372E+02  3.23414E+03 -8.76486E+02  2.22425E+03
 -3.18085E+03  7.38328E+02 -2.91365E+03  5.07668E+02 -2.45218E+03 -1.82082E+03 -1.31332E+02 -2.11212E+03
  1.45946E+02 -8.45250E+02  9.69783E+02 -4.57859E+02  1.40028E+03  8.27363E+02 -9.00292E+02  4.83025E+02
 -2.05126E+03  3.36835E+02 -1.13418E+03 -8.71969E+02 -8.90908E+02 -2.70615E+03 -5.57805E+02 -1.77870E+03
  1.01840E+03 -1.27178E+03  1.29208E+03  1.03035E+03  1.85225E+03 -1.18375E+02  9.83105E+02  1.07877E+03
 -2.40476E+02  3.21371E+02 -1.14733E+03 -4.20444E+02  1.43048E+02 -4.75777E+02  2.36356E+03 -1.71086E+03
  1.76911E+03  1.54621E+03  2.79106E+03  1.60024E+03  1.31083E+03  1.52039E+03 -1.30219E+03  1.77269E+03
 -1.57244E+03  5.68637E+02 -1.78326E+03 -1.23057E+03 -9.57199E+02 -1.80899E+03  6.59230E+02 -7.61602E+02
  2.33839E+03 -1.29628E+03  1.65672E+03  8.59474E+02 -3.86985E+02  7.23033E+02 -2.69362E+02  2.67292E+03
 -3.32376E+02  1.20441E+03 -5.96415E+02  5.80240E+02 -3.45441E+02  1.22473E+03 -1.46188E+03  4.05997E+02
 -1.43784E+03  1.30682E+03 -2.79743E+03  5.99751E+02 -2.65643E+03  8.76259E+02 -3.48668E+03 -1.41818E+03
 -7.31594E+02 -3.10348E+03  1.21734E+03 -2.97328E+03  4.46780E+02 -3.35007E+03  3.41501E+03 -1.78660E+03
  2.62401E+03  6.98666E+02  1.41076E+03  2.24641E+03 -9.55024E+02  1.53881E+03 -1.72143E+03  2.38218E+02
 -9.56439E+02  4.46899E+02 -9.63303E+02 -9.65458E+02  3.17801E+02  4.40486E+02 -2.15735E+02 -7.08446E+02
 -4.95690E+02 -7.65078E+02 -1.07379E+03  3.00676E+02  2.56541E+02 -9.54510E+02 -1.21466E+03 -1.40121E+03
  1.24864E+03 -1.31882E+03  1.31529E+03 -4.44576E+02  1.79747E+03  1.03852E+03  2.83368E+02  1.68888E+03
 -2.46662E+03  3.54819E+03 -1.43799E+03  2.13150E+03 -3.56743E+03 -1.07010E+02 -1.68045E+03 -9.64618E+02
 -8.00861E+02 -1.80302E+03 -2.22932E+02 -1.17980E+03  4.24443E+02 -1.90133E+03  3.59259E+02 -4.17610E+02
  1.70129E+03  1.02676E+03  4.01840E+02  3.05051E+02 -1.16449E+02 -3.04009E+02  1.67297E+02 -6.87316E+02
  8.78638E+02  3.05080E+02  1.58035E+03  1.38934E+02 -1.41102E+03 -7.21194E+01  2.90246E+02 -8.79353E+02
 -1.56571E+03 -8.45043E+02 -1.83927E+03  3.65198E+02  7.18082E+01 -1.04101E+03  4.96332E+01 -2.29498E+03
  7.28379E+02 -9.19490E+02  1.42121E+03 -4.91625E+02  1.30122E+03  8.74054E+01  5.36701E+02  6.00138E+02
  1.28140E+03  1.44410E+03 -4.58347E+02 -7.82090E+02 -1.35109E+03  8.45339E+02 -9.40519E+02 -1.42705E+02
 -2.37961E+02 -1.46651E+03 -2.33462E+02  8.74879E+02 -1.18373E+02  2.37049E+02 -4.91119E+02 -1.28781E+02
 -9.97157E+02  6.19553E+02  3.29343E+02 -1.03652E+03  6.96376E+02 -2.18337E+03  1.01323E+03 -4.58269E+02
  3.88929E+02 -1.34701E+03  2.05730E+02  4.95573E+02  5.55590E+02  1.65447E+03 -7.32780E+01  1.31627E+03
