 $NMID ID='MM_0lb_SNR200_18hz_g55_5.RAW', FMTDAT='(8E13.5)'
 TRAMP=1., VOLUME=1. $END
  3.09046E+05 -3.84373E+02  3.37655E+05  2.51374E+05  8.37309E+04  3.36806E+05 -1.32253E+05  2.49873E+05
 -1.89360E+05  8.29809E+04 -1.11837E+05 -3.26014E+04  5.53523E+02 -5.05528E+04  5.40287E+04  8.83151E+02
  3.46273E+04  5.38212E+04 -1.62827E+04  7.57273E+04 -6.05797E+04  6.34651E+04 -8.28966E+04  3.18987E+04
 -8.08076E+04 -1.17173E+04 -5.63674E+04 -5.03819E+04 -1.53995E+04 -6.92785E+04  2.64458E+04 -4.56702E+04
  3.93041E+04  3.63201E+03  1.63691E+04  4.70278E+04 -3.32435E+04  4.65282E+04 -6.56492E+04  1.62472E+02
 -5.30437E+04 -5.63185E+04 -6.00260E+03 -7.59077E+04  3.34908E+04 -5.37846E+04  4.64741E+04 -1.58981E+04
  4.30171E+04  1.21835E+04  3.08029E+04  2.53628E+04  1.45151E+04  2.90024E+04 -3.78549E+03  2.71525E+04
 -2.27916E+04  1.28541E+04 -1.86845E+04 -4.82589E+03  4.31470E+03 -7.35277E+03  2.17447E+04  1.07092E+04
  7.49832E+03  3.48652E+04 -3.20669E+04  3.46231E+04 -6.29058E+04  1.91476E+03 -5.54747E+04 -4.23995E+04
 -1.27536E+04 -6.14662E+04  3.86907E+04 -4.36264E+04  5.65077E+04 -2.69510E+03  3.34622E+04  3.17558E+04
 -5.89763E+03  3.43979E+04 -2.86850E+04  1.36973E+04 -2.97546E+04 -5.26608E+03 -1.58442E+04 -1.04249E+04
 -6.95751E+03 -1.29217E+04 -1.29636E+03 -1.81008E+04  7.29592E+03 -2.22934E+04  1.50103E+04 -1.35903E+04
  1.25144E+04  4.62285E+03 -7.12594E+03  1.28796E+04 -2.07451E+04 -3.57508E+03 -7.53317E+03 -3.18713E+04
  2.13534E+04 -4.11670E+04  4.60775E+04 -1.94008E+04  4.28176E+04  1.83416E+04  1.51883E+04  4.30731E+04
 -1.59487E+04  3.15068E+04 -2.41002E+04  2.33767E+02 -8.94805E+03 -2.59023E+04  2.17173E+04 -3.14026E+04
  3.89815E+04 -7.84845E+03  3.23114E+04  2.21901E+04  1.58368E+04  4.39717E+04 -8.02180E+03  4.67611E+04
 -2.84309E+04  3.18939E+04 -3.94506E+04  9.38726E+03 -4.08574E+04 -1.56176E+04 -2.14253E+04 -3.71212E+04
  6.32552E+03 -3.51781E+04  3.02503E+04 -1.34841E+04  2.82237E+04  1.00511E+04  4.68641E+03  1.78283E+04
 -1.31472E+04  7.87797E+03 -1.03113E+04 -7.09425E+03  5.51831E+03 -1.06205E+04  1.79412E+04  5.47594E+03
  1.30020E+04  2.14566E+04 -7.38575E+03  2.46859E+04 -2.14778E+04  9.93674E+03 -2.55603E+04 -5.34998E+03
 -1.78579E+04 -1.71020E+04 -5.53716E+03 -1.77156E+04  3.49018E+03 -1.62018E+04  1.32608E+04 -1.69031E+04
  2.31343E+04 -1.26038E+04  2.97309E+04  2.11627E+03  2.14179E+04  1.66322E+04  4.02674E+03  3.26923E+04
 -1.61869E+04  2.80835E+04 -2.62971E+04  9.12621E+03 -1.98268E+04 -9.43207E+03 -4.77314E+03 -1.45260E+04
  2.36559E+03 -3.44810E+03 -2.62020E+03  5.23001E+03 -1.29101E+04  6.25899E+03 -1.50701E+04 -5.26494E+03
 -9.18528E+03 -1.76897E+04  3.93520E+03 -2.09333E+04  1.36462E+04 -1.38656E+04  1.54136E+04 -1.63450E+03
  1.10850E+04  1.23714E+04 -7.46273E+02  1.75840E+04 -1.21149E+04  9.16201E+03 -1.73583E+04 -3.81977E+03
 -1.15040E+04 -1.49566E+04 -1.81241E+03 -2.02744E+04  9.32861E+03 -1.66367E+04  1.72056E+04 -7.67770E+03
  1.51924E+04  7.12242E+02  1.13311E+04  4.01270E+03  5.81137E+03  1.36074E+03  7.97573E+03 -1.12184E+03
  1.49095E+04  2.27852E+03  1.60762E+04  1.41351E+04  9.93611E+03  2.67211E+04 -3.18644E+03  2.84176E+04
 -1.59133E+04  2.21698E+04 -2.63486E+04  1.11611E+04 -2.64228E+04 -2.43853E+03 -2.31088E+04 -1.53313E+04
 -1.06153E+04 -2.21745E+04  7.64460E+03 -2.09233E+04  1.87561E+04 -1.12843E+04  1.71951E+04  3.77499E+03
  6.11914E+03  1.15640E+04 -7.41385E+03  1.04486E+04 -1.38146E+04  1.88918E+03 -1.07633E+04 -8.08658E+03
 -2.06073E+01 -1.40075E+04  6.85591E+03 -1.06107E+04  8.93565E+03 -1.35802E+03  1.19324E+03  5.80163E+03
 -6.41025E+03  1.94033E+03 -2.99145E+03 -4.15288E+03  8.82452E+02 -1.09866E+04  8.29117E+03 -1.16750E+04
  1.31769E+04 -5.35166E+03  1.36689E+04  3.78052E+03  1.20334E+04  1.12628E+04  4.71742E+03  1.60994E+04
 -2.45140E+03  1.63788E+04 -1.04601E+04  1.02781E+04 -1.17649E+04  2.78459E+03 -8.94450E+03 -1.22393E+03
 -4.71605E+03 -2.89385E+03 -8.11181E+02  1.29382E+03 -6.97948E+02  3.30008E+03 -4.53803E+03  4.14749E+03
 -9.42081E+03  9.23531E+02 -1.09142E+04 -6.71479E+03 -3.90053E+03 -1.19815E+04  4.35309E+03 -9.05573E+03
  7.76586E+03 -4.07436E+03  6.02669E+03  2.55885E+03  4.87000E+02  3.10214E+03 -3.80870E+03 -1.49971E+02
 -5.92854E+03 -4.85453E+03 -5.34950E+02 -7.63582E+03  3.71493E+03 -7.46199E+03  1.11083E+04 -4.93111E+03
  1.29194E+04  3.92610E+02  9.97858E+03  7.51823E+03  2.12427E+03  9.75021E+03 -6.12681E+03  8.35862E+03
 -7.52034E+03  3.58100E+03 -3.84993E+03 -2.00407E+03  3.37467E+02 -2.74212E+03  4.27628E+03  1.40767E+02
  4.73104E+03  3.78356E+03  9.33338E+02  7.31740E+03 -3.58374E+03  7.37604E+03 -8.60852E+03  3.22897E+03
 -6.17520E+03 -4.09759E+03 -9.09207E+02 -6.95451E+03  3.29525E+03 -3.63916E+03  4.77288E+03  9.39376E+02
  9.08150E+02  3.97338E+03 -5.03969E+03  5.35813E+03 -6.07819E+03  1.40274E+03 -5.29478E+03 -1.52601E+03
 -4.43073E+03 -8.54698E+03  9.51216E+02 -7.47252E+03  5.86192E+03 -5.44450E+03  6.74233E+03  1.24093E+03
  4.54657E+03  6.35853E+03 -9.62207E+02  7.76111E+03 -5.85356E+03  5.40609E+03 -5.68709E+03 -1.48515E+03
 -5.95311E+03 -4.15438E+03 -5.04758E+02 -4.33940E+03  2.29223E+03 -4.96817E+03  3.40685E+03 -3.75744E+03
  2.30381E+03  1.28677E+03  1.66501E+01  1.21405E+03 -3.75352E+02 -9.53018E+02  2.78908E+00 -2.96814E+03
  3.95646E+03 -8.44281E+02  6.23700E+03  1.40890E+02  7.11738E+03  3.86248E+03  5.80274E+03  8.23346E+03
 -1.01653E+03  1.03160E+04 -7.86934E+03  6.66026E+03 -1.11564E+04  1.37673E+03 -8.14446E+03 -2.64892E+03
 -3.88895E+03 -7.72397E+03 -1.36485E+03 -5.86662E+03  2.65645E+03 -1.95559E+03  2.17164E+03 -2.06000E+03
  6.72946E+02 -1.64603E+03  1.56738E+03 -3.11588E+03  3.12790E+03 -1.79681E+03  2.83979E+03  2.49989E+02
  4.40394E+03  1.38193E+03  2.46385E+03  2.51916E+03 -2.05690E+03  2.00266E+03 -4.11831E+03  2.78112E+03
 -5.46388E+03 -1.50399E+03 -1.92058E+03 -3.70750E+03 -3.88104E+02 -5.53750E+03  3.14469E+03 -5.99049E+03
  5.77789E+03 -4.19477E+03  6.54023E+03  6.04568E+01  4.96929E+03  4.12225E+03  2.63911E+03  7.11608E+03
 -2.45643E+03  5.92720E+03 -3.46457E+03  1.69454E+03 -3.22033E+03 -2.16687E+03 -8.94841E+02 -2.02238E+02
 -1.02889E+03  6.47578E+01 -1.28028E+03  1.53598E+03 -2.82523E+03  9.17039E+02 -4.24706E+03  2.73429E+02
 -2.54833E+03 -4.16025E+03  1.18891E+03 -5.29261E+03  3.43392E+03 -4.67479E+03  4.17278E+03 -1.98220E+03
  4.09242E+03  3.31327E+03  1.82068E+03  3.67180E+03 -1.06815E+03  5.44561E+03 -2.60021E+03  2.72205E+03
 -4.03791E+03  4.16101E+02 -3.77713E+03 -3.92122E+03 -1.22136E+03 -4.19377E+03  2.38487E+03 -2.19331E+03
  2.95597E+03 -1.35074E+03  2.19510E+03  1.41008E+03 -2.65276E+01  2.16392E+03  1.97311E+03 -1.94222E+02
  1.23862E+03  3.80073E+02  5.01520E+02  5.86326E+02  1.61097E+03  2.50026E+03  1.65616E+03  1.79743E+03
 -2.65562E+02  2.20988E+03 -3.31900E+03  4.29771E+03 -3.73230E+03  5.40916E+02 -3.97411E+03 -1.10165E+03
 -1.93245E+03 -3.31511E+03  5.45142E+02 -5.60613E+03  2.43849E+03 -4.12916E+03  3.79223E+03 -1.26644E+03
  3.56330E+03  2.47727E+03 -1.76454E+02  2.11407E+03 -1.34739E+03  4.90838E+02 -9.97629E+02  8.44108E+02
 -2.61966E+02 -1.70092E+03  1.87460E+03 -1.90331E+03  9.54772E+02 -1.58636E+02  1.12291E+03  2.31686E+02
  4.83665E+02 -4.14411E+02  1.48573E+03 -1.64484E+02 -4.01051E+02  1.54647E+03  1.01712E+03 -5.49245E+02
 -8.02279E+02  6.83190E+02  9.54571E+02  5.79732E+02  1.67519E+02  3.01617E+03 -1.99761E+02  3.23079E+03
 -2.04650E+03  1.08891E+03 -1.78389E+03 -5.20752E+02 -2.78488E+03 -1.27168E+03 -6.54135E+02 -1.19093E+03
  6.92894E+01 -1.21569E+03  2.97756E+02 -1.29419E+03 -2.90286E+02  1.69972E+03 -7.06298E+02  1.44234E+02
 -3.02405E+02 -3.81102E+02 -1.80977E+03 -1.03974E+03 -6.02776E+02 -1.77226E+03  1.49381E+03 -2.64321E+03
  3.30899E+02 -1.07136E+03  7.63839E+02  2.13364E+01  1.18249E+03 -5.42043E+02  1.15164E+03  9.25768E+02
 -2.64449E+02 -4.35344E+02 -8.70414E+02  3.99892E+02  1.59695E+03 -2.17411E+03  1.60988E+03 -5.04607E+02
  1.57792E+03  8.15946E+02  2.39755E+03  6.51720E+02  5.98966E+02  1.96231E+03 -7.74974E+02  2.31209E+03
 -1.39949E+03  1.89189E+03 -1.56597E+03 -4.03962E+02 -6.07685E+02 -1.97500E+03 -1.63794E+02 -5.01676E+02
  1.01817E+03 -2.66671E+02  1.32628E+03  1.52472E+03  7.15920E+02  2.25597E+03  3.03717E+02  1.75656E+03
 -4.61130E+02  9.65873E+02  3.66171E+01  2.48045E+02  5.52926E+02  2.22345E+02 -1.26749E+03  1.55883E+03
 -1.00700E+03  6.79092E+02 -2.56921E+03  9.51452E+02 -2.86449E+03 -5.30345E+02 -2.24968E+03 -1.19045E+03
 -8.57526E+02 -1.62032E+03  8.38368E+02 -3.59066E+03  9.71612E+02 -2.39495E+03  2.88952E+03 -1.93320E+03
  2.87289E+03 -3.52587E+02  2.19986E+03  2.68574E+03 -4.85583E+02  1.14640E+03  5.09470E+02  1.12564E+03
 -1.03722E+03 -5.49774E+02 -2.24581E+03 -2.85458E+02 -6.22802E+02  1.78586E+01 -3.80254E+02 -3.43521E+02
 -9.22115E+02 -1.84195E+02 -1.28378E+03 -1.78603E+02 -8.35620E+02 -2.10960E+02 -1.70468E+02 -1.62562E+03
  9.45683E+02  4.01649E+02  3.58350E+02 -3.73816E+02  7.52908E+02  1.73771E+03 -9.89561E+02  1.79213E+03
 -5.75575E+02  1.76080E+03 -1.45450E+03  1.09032E+03 -1.86319E+03 -1.07658E+02 -1.83869E+03 -1.18727E+03
  4.73989E+02 -9.99872E+02 -6.53142E+02 -1.10744E+03 -2.54571E+02 -1.27164E+02 -2.21640E+02 -8.23449E+01
  1.01334E+03  5.67966E+02 -4.57799E+02  8.55726E+02 -4.56137E+02 -7.16019E+02 -9.15377E+01  2.36442E+02
  9.72041E+02 -2.12150E+02  4.93207E+02 -5.59500E+02  7.73604E+02  7.55410E+02  3.64611E+02  3.21675E+02
 -5.39635E+02  1.38576E+02 -1.03741E+03 -3.92512E+02 -3.41650E+02 -6.91089E+02  1.38722E+02 -1.17417E+03
  1.93455E+01 -2.76162E+02 -4.09615E+02 -5.44200E+02  4.84859E+02  1.02287E+02  3.42946E+02  1.86782E+03
  9.15910E+02  1.29520E+03 -1.88443E+01  1.02842E+03 -4.80917E+02  5.61678E+02 -9.39114E+02 -5.62216E+01
 -5.86482E+02 -7.31489E+01 -3.01229E+02  6.56880E+02 -6.00956E+02 -7.57954E+02 -6.42339E+02 -9.21654E+02
 -1.71278E+02 -5.37602E+02 -4.24179E+02 -1.67941E+03  3.43329E+02 -1.69458E+03  1.57336E+03 -1.07311E+02
 -1.58001E+02  2.00094E+02  6.05876E+02  8.10018E+02  7.06131E+02  9.44649E+01 -9.04909E+02 -9.53675E+01
