 $NMID ID='MM_0lb_SNR200_8hz_g55_2.RAW', FMTDAT='(8E13.5)'
 TRAMP=1., VOLUME=1. $END
  3.09190E+05  1.20682E+03  3.38180E+05  2.52235E+05  8.42885E+04  3.37999E+05 -1.32965E+05  2.52668E+05
 -1.91354E+05  8.46071E+04 -1.14233E+05 -3.22077E+04  1.77827E+03 -5.04833E+04  5.19570E+04  6.83026E+02
  3.65101E+04  5.10184E+04 -1.76229E+04  7.72253E+04 -6.13204E+04  6.56059E+04 -8.57069E+04  3.26164E+04
 -8.16862E+04 -1.16272E+04 -5.84029E+04 -5.24476E+04 -1.66749E+04 -7.29694E+04  2.83846E+04 -4.75873E+04
  4.03537E+04  4.97043E+03  1.42415E+04  4.96315E+04 -3.57635E+04  4.79139E+04 -6.94556E+04 -3.49112E+02
 -5.70959E+04 -5.78883E+04 -7.47062E+03 -7.82036E+04  3.41774E+04 -5.81625E+04  4.96096E+04 -2.01946E+04
  4.71640E+04  1.18340E+04  3.44527E+04  2.50451E+04  1.62749E+04  3.02535E+04 -5.67925E+03  2.76141E+04
 -2.19892E+04  1.20591E+04 -1.70316E+04 -7.14645E+03  7.76056E+03 -6.19621E+03  2.42245E+04  1.41535E+04
  6.36209E+03  3.83218E+04 -3.53982E+04  3.56605E+04 -6.71762E+04  1.85276E+03 -5.84271E+04 -4.65048E+04
 -1.47533E+04 -6.65204E+04  4.21177E+04 -4.73706E+04  6.31270E+04 -1.71874E+03  3.85664E+04  3.37266E+04
 -4.41904E+03  4.20239E+04 -3.19873E+04  1.93798E+04 -3.32496E+04 -2.29525E+03 -1.92252E+04 -1.30712E+04
 -8.98780E+03 -1.62301E+04 -3.50600E+02 -1.96224E+04  8.55368E+03 -2.27488E+04  1.56209E+04 -1.32221E+04
  8.56298E+03  6.60532E+03 -1.13887E+04  1.10035E+04 -2.37995E+04 -7.77822E+03 -8.35475E+03 -3.69279E+04
  2.61041E+04 -4.65752E+04  5.25312E+04 -2.28267E+04  5.00397E+04  2.06862E+04  1.89207E+04  4.85446E+04
 -1.61461E+04  3.82267E+04 -2.72835E+04  2.44032E+03 -1.24358E+04 -3.03948E+04  2.14154E+04 -3.80673E+04
  4.39681E+04 -1.02251E+04  4.21876E+04  2.51970E+04  2.32669E+04  5.22518E+04 -9.30366E+03  5.90553E+04
 -3.64305E+04  3.89543E+04 -4.83108E+04  1.23876E+04 -5.09659E+04 -2.01904E+04 -2.83737E+04 -4.19946E+04
  7.47500E+03 -4.39957E+04  3.45786E+04 -1.98991E+04  3.27425E+04  1.09827E+04  3.57489E+03  2.18251E+04
 -1.34769E+04  9.20218E+03 -1.21025E+04 -7.66276E+03  7.33893E+03 -9.64830E+03  2.16579E+04  5.75103E+03
  1.47775E+04  2.27639E+04 -5.72080E+03  2.78918E+04 -2.23152E+04  1.51919E+04 -3.27955E+04 -7.63025E+02
 -2.76055E+04 -1.98926E+04 -1.28188E+04 -2.49538E+04  6.56067E+03 -2.73488E+04  2.22248E+04 -2.49765E+04
  3.36636E+04 -1.46107E+04  3.93541E+04  5.12730E+03  2.92972E+04  2.64553E+04  6.27846E+03  4.40291E+04
 -1.92004E+04  3.38771E+04 -3.24165E+04  1.12234E+04 -2.42141E+04 -8.82674E+03 -5.36330E+03 -1.24640E+04
 -3.64421E+02 -1.78157E+03 -8.82184E+03  1.03011E+04 -2.24162E+04  5.74431E+03 -2.30117E+04 -1.15023E+04
 -1.12323E+04 -2.46036E+04  8.63101E+03 -3.00725E+04  1.86782E+04 -2.01468E+04  2.61409E+04 -2.03618E+03
  1.60850E+04  1.71870E+04 -4.49059E+02  2.53298E+04 -1.81513E+04  1.43381E+04 -2.52096E+04 -5.09278E+03
 -1.70086E+04 -2.16981E+04 -1.16357E+03 -3.03771E+04  1.42205E+04 -2.41981E+04  2.56289E+04 -1.27676E+04
  2.45813E+04 -4.52239E+02  1.66289E+04  4.44145E+03  8.83147E+03  5.15562E+02  1.44189E+04 -8.39943E+02
  2.40896E+04  3.73025E+03  2.76637E+04  1.91757E+04  1.68066E+04  4.01613E+04 -3.77820E+03  4.78150E+04
 -2.62702E+04  3.95519E+04 -4.56128E+04  2.22657E+04 -4.87291E+04 -2.51681E+03 -3.93259E+04 -2.85653E+04
 -1.54200E+04 -4.14316E+04  1.39782E+04 -3.55468E+04  2.87835E+04 -1.59739E+04  2.49133E+04  8.99213E+03
  9.10942E+03  1.96876E+04 -1.21901E+04  1.50813E+04 -2.26732E+04  2.64602E+03 -1.41377E+04 -1.23816E+04
  9.29898E+02 -1.95522E+04  1.03459E+04 -1.65431E+04  1.41626E+04 -2.22407E+03  2.30472E+03  8.00051E+03
 -8.74862E+03  5.58034E+03 -8.81734E+03 -7.56806E+03 -2.50952E+03 -1.83605E+04  1.26395E+04 -2.10446E+04
  2.11614E+04 -1.17811E+04  2.74535E+04  3.64058E+03  2.62667E+04  2.04281E+04  1.30771E+04  3.10832E+04
 -6.76644E+03  3.32732E+04 -2.29733E+04  1.99124E+04 -2.43110E+04  6.02988E+03 -1.66804E+04 -6.90930E+03
 -7.11680E+03 -8.51180E+03 -4.86886E+02 -2.36584E+02 -3.74183E+03  4.44738E+03 -7.37280E+03  4.61072E+03
 -1.39649E+04 -1.46213E+03 -1.68064E+04 -1.23253E+04 -6.57085E+03 -1.85209E+04  5.98046E+03 -1.57140E+04
  1.46109E+04 -6.50726E+03  9.14475E+03  4.11650E+03 -1.72999E+03  7.24364E+03 -9.01193E+03 -3.10308E+02
 -8.32934E+03 -1.07901E+04 -4.95227E+02 -1.57631E+04  1.04374E+04 -1.86754E+04  2.33939E+04 -1.08741E+04
  2.43389E+04  2.26170E+03  1.90540E+04  1.46900E+04  5.13251E+03  2.24260E+04 -1.11271E+04  1.70339E+04
 -1.22869E+04  4.59676E+03 -6.50939E+03 -3.31719E+03  2.07734E+03 -4.50826E+03  9.43476E+03 -1.47717E+03
  7.89730E+03  7.56785E+03  1.33088E+03  1.34071E+04 -9.64726E+03  1.31384E+04 -1.55882E+04  2.95865E+03
 -1.18940E+04 -9.64230E+03  6.47809E+02 -1.51955E+04  1.22805E+04 -6.89349E+03  9.42205E+03  2.70640E+03
  1.98456E+03  1.01783E+04 -7.66530E+03  1.32548E+04 -1.61388E+04  6.56407E+03 -1.61902E+04 -6.00519E+03
 -8.62966E+03 -1.59559E+04  5.88437E+03 -1.94496E+04  1.76079E+04 -1.27437E+04  1.94878E+04  3.32624E+03
  1.12919E+04  1.72197E+04 -1.78711E+03  1.72480E+04 -1.33836E+04  8.72471E+03 -1.42608E+04 -9.19253E+02
 -1.15413E+04 -1.04553E+04  1.62604E+02 -1.39894E+04  8.91296E+03 -1.24736E+04  9.61840E+03 -4.22936E+03
  6.22691E+03  2.84360E+03 -1.50684E+03  1.54364E+03 -9.08045E+02 -4.23418E+03  3.90201E+03 -1.03288E+04
  1.50859E+04 -5.27250E+03  1.86137E+04  2.33617E+03  1.82536E+04  1.26586E+04  1.01743E+04  2.40308E+04
 -4.80002E+03  2.64367E+04 -2.22367E+04  2.08137E+04 -2.98260E+04  3.34070E+03 -2.41362E+04 -1.09625E+04
 -1.17204E+04 -2.09340E+04 -3.23331E+02 -1.64960E+04  7.07660E+03 -8.89375E+03  6.13967E+03 -5.99554E+03
  2.80608E+03 -3.63512E+03  5.63494E+03 -4.14207E+03  7.30939E+03 -4.13209E+03  8.70853E+03 -3.14427E+02
  1.19318E+04  3.46300E+03  6.01490E+03  8.54361E+03 -3.80944E+03  1.31687E+04 -1.31978E+04  1.18754E+04
 -1.49344E+04 -1.68185E+03 -1.12505E+04 -1.25720E+04 -2.88177E+03 -1.88410E+04  1.04287E+04 -1.82866E+04
  1.94742E+04 -9.03108E+03  2.39452E+04  3.09262E+03  1.34780E+04  1.51085E+04  2.49084E+03  1.95700E+04
 -8.53662E+03  1.77186E+04 -1.02375E+04  5.37258E+03 -6.89345E+03 -4.85541E+02 -3.27766E+03 -2.52718E+03
 -4.20265E+02  8.41339E+02 -3.41233E+03  2.69232E+03 -7.72506E+03  1.07845E+03 -1.07464E+04 -3.32610E+03
 -8.12783E+03 -1.25585E+04  2.81813E+01 -1.48933E+04  1.07490E+04 -1.79926E+04  1.67055E+04 -6.61267E+03
  1.70777E+04  8.39821E+03  7.21343E+03  1.72019E+04 -4.73391E+03  1.86648E+04 -1.13202E+04  9.15438E+03
 -1.80747E+04  1.68817E+02 -1.17599E+04 -1.15163E+04 -1.14710E+03 -1.31711E+04  9.29118E+03 -9.59502E+03
  1.15889E+04 -1.86201E+03  8.71234E+03  1.77339E+03  2.49343E+03  5.47746E+03  5.84620E+02  2.90211E+03
  4.88189E+03 -1.77302E+03  2.37422E+03  1.34415E+03  3.22744E+03  5.63195E+03  4.30087E+03  8.93060E+03
 -3.61802E+03  1.52986E+04 -1.27041E+04  1.29654E+04 -1.70633E+04  5.91698E+02 -1.88874E+04 -7.23134E+03
 -8.09589E+03 -1.75069E+04  2.28162E+03 -1.93810E+04  1.13343E+04 -1.30756E+04  1.33662E+04 -4.17506E+03
  1.15547E+04  5.03551E+03  2.49080E+03  1.09880E+04 -5.97275E+03  7.09821E+03 -8.58302E+03 -7.68082E+02
 -1.91923E+03 -7.68102E+03  3.73713E+03 -7.88468E+03  7.12775E+03 -3.32460E+03  6.02893E+03  2.24007E+03
  4.77493E+03  3.60369E+03  7.87708E+02  3.95402E+03 -3.18612E+03  2.37616E+03  2.39790E+03 -1.30793E+03
  4.41092E+03 -1.87646E+03  7.66999E+03  3.49023E+03  2.67883E+03  7.98568E+03 -3.45436E+03  1.36949E+04
 -8.36144E+03  8.67678E+03 -1.20769E+04  2.35326E+03 -1.10363E+04 -4.13665E+03 -4.55457E+03 -7.17576E+03
  1.23003E+03 -6.54030E+03  3.17735E+03 -3.08606E+03  4.40633E+03  3.26482E+03 -1.72203E+03  5.50033E+03
 -7.68718E+03  4.00917E+03 -9.43345E+03 -4.19846E+03 -5.54844E+03 -9.73790E+03  1.17561E+03 -1.06016E+04
  5.77831E+03 -5.79174E+03  8.21647E+03 -1.18159E+03  5.35515E+03  3.45116E+03  1.16005E+03  4.42724E+03
 -3.77271E+03  1.27015E+03 -4.87378E+03 -4.86968E+03  2.84452E+03 -7.70989E+03  7.35579E+03 -6.44689E+03
  1.04563E+04  6.41119E+02  1.16036E+04  8.64453E+03  3.54736E+03  1.25895E+04 -3.70527E+03  1.19070E+04
 -1.03123E+04  5.39772E+03 -8.98606E+03 -1.02322E+03 -5.37392E+03 -7.72094E+03  4.28583E+03 -6.70392E+03
  8.44729E+03 -4.68170E+03  6.87213E+03  3.39280E+03  2.61700E+03  6.35809E+03 -2.09210E+03  5.61975E+03
 -3.71554E+03  3.63318E+03 -2.72384E+03  1.43879E+02 -3.26368E+02  1.73966E+02 -9.11420E+02  2.89415E+03
 -3.95668E+03  3.30263E+03 -7.25519E+03  4.83042E+03 -1.18773E+04 -4.47258E+02 -1.29207E+04 -8.33501E+03
 -7.42540E+03 -1.69071E+04  3.39423E+03 -1.82003E+04  1.14155E+04 -1.36820E+04  1.69009E+04 -5.85717E+03
  1.48397E+04  4.74365E+03  9.47037E+03  1.22865E+04  1.54405E+03  1.28798E+04 -4.94455E+03  9.66025E+03
 -6.73258E+03  1.23876E+03 -4.12710E+03 -1.34792E+03 -1.51522E+03 -8.09071E+02  1.88326E+02  1.65648E+03
 -2.83570E+03  5.18646E+02 -2.81580E+03 -1.77464E+03  9.19953E+02 -2.39904E+03  7.50969E+02 -4.64471E+03
  6.15875E+03 -4.10150E+03  7.87578E+03 -1.91401E+02  1.06990E+04  6.36442E+03  4.24596E+03  1.28380E+04
 -4.44135E+03  1.54462E+04 -1.37946E+04  8.31332E+03 -1.64242E+04 -1.50956E+03 -1.31178E+04 -9.19814E+03
 -6.16067E+03 -1.32659E+04  3.97856E+03 -1.25107E+04  9.73552E+03 -5.15014E+03  8.32457E+03  1.33692E+03
  4.63505E+03  4.59567E+03  3.84598E+02  3.04058E+03 -4.03784E+03 -1.66405E+03 -8.80650E+02 -3.02774E+03
  2.04925E+03 -2.36988E+03  3.65489E+03 -1.06217E+03  3.49878E+03  6.43203E+03  5.36108E+02  7.38127E+03
 -5.99717E+03  5.71324E+03 -1.07250E+04  1.37689E+03 -7.80091E+03 -8.58201E+03 -1.22731E+03 -9.76185E+03
  6.93042E+03 -9.50221E+03  9.29669E+03 -4.39744E+03  9.11059E+03  4.06224E+03  6.25320E+03  7.98984E+03
  6.29978E+02  9.57114E+03 -3.69509E+03  5.48017E+03 -4.22109E+03  4.12246E+03 -4.60656E+03  9.78307E+02
 -2.95295E+03  1.58119E+03 -2.44998E+03  1.50404E+03 -4.80764E+03  1.86175E+03 -7.35892E+03 -4.52838E+02
 -6.74417E+03 -3.41721E+03 -3.12486E+03 -9.47958E+03  6.91250E+03 -8.62809E+03  7.50083E+03 -4.26169E+03
  9.74378E+03  2.35632E+03  3.86245E+03  6.62040E+03 -1.41521E+03  1.06696E+04 -6.52973E+03  5.17546E+03
