 $NMID ID='MM_0lb_SNR200_18hz_g55_43.RAW', FMTDAT='(8E13.5)'
 TRAMP=1., VOLUME=1. $END
  3.09063E+05  1.32928E+03  3.38215E+05  2.52170E+05  8.46942E+04  3.38011E+05 -1.33014E+05  2.50871E+05
 -1.89920E+05  8.31161E+04 -1.12697E+05 -3.17484E+04  9.86162E+02 -5.16304E+04  5.35318E+04  4.18657E+02
  3.50106E+04  5.20329E+04 -1.77256E+04  7.50818E+04 -6.08209E+04  6.22201E+04 -8.37100E+04  3.14283E+04
 -7.89995E+04 -1.15974E+04 -5.62955E+04 -4.95495E+04 -1.60392E+04 -6.96440E+04  2.72215E+04 -4.64021E+04
  3.96842E+04  3.69882E+03  1.44683E+04  4.64151E+04 -3.41087E+04  4.82173E+04 -6.59934E+04  7.09855E+02
 -5.24110E+04 -5.72463E+04 -6.05446E+03 -7.56207E+04  3.34362E+04 -5.47002E+04  4.66780E+04 -1.61321E+04
  4.32021E+04  1.06332E+04  3.18826E+04  2.47002E+04  1.54329E+04  2.84411E+04 -4.58888E+03  2.60934E+04
 -2.10416E+04  1.25921E+04 -1.93752E+04 -4.48075E+03  5.61768E+03 -7.70600E+03  2.16533E+04  1.17921E+04
  6.83026E+03  3.41482E+04 -3.03638E+04  3.42017E+04 -6.14425E+04  1.42006E+03 -5.67658E+04 -4.14948E+04
 -1.24716E+04 -6.14879E+04  3.93649E+04 -4.46027E+04  5.59279E+04 -2.76149E+03  3.28310E+04  3.17234E+04
 -5.86162E+03  3.37002E+04 -2.95118E+04  1.53073E+04 -2.96574E+04 -5.70145E+03 -1.62512E+04 -1.11181E+04
 -7.48397E+03 -1.17831E+04 -1.62488E+03 -1.73618E+04  6.83151E+03 -2.30526E+04  1.48850E+04 -1.36925E+04
  1.28726E+04  3.45019E+03 -7.56528E+03  1.30708E+04 -2.12959E+04 -3.02806E+03 -8.16290E+03 -3.15009E+04
  2.13842E+04 -4.16251E+04  4.67150E+04 -1.81815E+04  4.44227E+04  1.84376E+04  1.50744E+04  4.20727E+04
 -1.61108E+04  3.20669E+04 -2.34653E+04  1.89483E+03 -8.65924E+03 -2.67695E+04  2.09758E+04 -3.23992E+04
  3.93448E+04 -8.36459E+03  3.29007E+04  2.29609E+04  1.64471E+04  4.39448E+04 -7.90424E+03  4.70635E+04
 -3.06055E+04  3.24197E+04 -4.00113E+04  9.67363E+03 -3.91321E+04 -1.64271E+04 -2.19061E+04 -3.57601E+04
  6.91079E+03 -3.49917E+04  3.04494E+04 -1.38762E+04  2.79944E+04  1.14583E+04  4.12499E+03  1.71622E+04
 -1.34394E+04  7.25980E+03 -9.37296E+03 -6.80007E+03  5.81056E+03 -1.03859E+04  1.82712E+04  6.24805E+03
  1.22130E+04  2.06763E+04 -6.55414E+03  2.44090E+04 -2.18180E+04  1.04766E+04 -2.58439E+04 -4.73311E+03
 -1.77359E+04 -1.64178E+04 -7.28422E+03 -1.82976E+04  4.43077E+03 -1.59086E+04  1.40052E+04 -1.50925E+04
  2.32623E+04 -1.10428E+04  2.93569E+04  1.01609E+03  2.15870E+04  1.76305E+04  3.52359E+03  3.29177E+04
 -1.66402E+04  2.69804E+04 -2.61337E+04  9.23414E+03 -2.01641E+04 -1.04022E+04 -4.03114E+03 -1.32409E+04
  9.89069E+02 -4.14390E+03 -3.89950E+03  6.52926E+03 -1.35194E+04  6.36073E+03 -1.42765E+04 -5.33775E+03
 -8.77825E+03 -1.61585E+04  5.15615E+03 -2.05914E+04  1.37890E+04 -1.59342E+04  1.65789E+04 -2.11193E+03
  9.55584E+03  1.18957E+04 -1.13340E+03  1.63739E+04 -1.11311E+04  8.75307E+03 -1.74102E+04 -3.65875E+03
 -1.23310E+04 -1.54317E+04 -2.08980E+03 -2.07304E+04  9.56757E+03 -1.64412E+04  1.61693E+04 -8.82561E+03
  1.61772E+04  1.04974E+02  1.10597E+04  4.29863E+03  5.91135E+03  1.50705E+03  8.25597E+03 -8.02895E+02
  1.50783E+04  2.32959E+03  1.55335E+04  1.35614E+04  1.18051E+04  2.69666E+04 -3.25156E+03  2.85007E+04
 -1.66294E+04  2.26217E+04 -2.64894E+04  1.30511E+04 -2.70854E+04 -1.42952E+03 -2.27720E+04 -1.62504E+04
 -1.09292E+04 -2.21743E+04  7.40952E+03 -2.15495E+04  1.71985E+04 -1.11240E+04  1.68917E+04  3.81246E+03
  7.20224E+03  1.13318E+04 -6.90796E+03  1.09140E+04 -1.41644E+04  2.66715E+03 -9.78109E+03 -8.08303E+03
 -8.23473E+01 -1.25772E+04  6.45667E+03 -9.47952E+03  8.50960E+03 -1.30318E+03  1.43222E+03  4.49838E+03
 -6.15208E+03  3.54429E+03 -4.22816E+03 -5.13295E+03  3.53943E+02 -1.07870E+04  7.54838E+03 -1.21276E+04
  1.34770E+04 -6.53679E+03  1.29622E+04  3.61461E+03  1.18347E+04  1.12027E+04  5.68846E+03  1.52371E+04
 -1.33955E+03  1.60970E+04 -1.08484E+04  9.60484E+03 -1.26103E+04  3.10623E+03 -8.32749E+03 -1.41222E+03
 -4.49142E+03 -3.91818E+03 -1.76846E+03  2.41463E+03 -8.66665E+02  2.26371E+03 -2.91156E+03  2.69560E+03
 -9.21653E+03 -2.62012E+02 -9.33395E+03 -7.14296E+03 -4.25206E+03 -1.22524E+04  4.14404E+03 -8.69255E+03
  7.62331E+03 -4.95352E+03  4.90609E+03  2.08418E+03  8.02090E+01  3.09739E+03 -4.21261E+03 -9.16233E+01
 -5.65322E+03 -5.84022E+03 -1.38279E+03 -8.57649E+03  4.71690E+03 -1.03477E+04  1.14025E+04 -4.84219E+03
  1.32989E+04  1.04739E+03  9.94852E+03  7.41984E+03  1.67661E+03  9.97165E+03 -6.14503E+03  8.76254E+03
 -7.12355E+03  2.47870E+03 -4.20515E+03 -1.68783E+03  1.78890E+03 -1.91998E+03  5.07920E+03 -7.54252E+02
  4.67589E+03  4.15714E+03  1.49452E+03  6.77684E+03 -4.81224E+03  6.62913E+03 -9.28636E+03  2.27972E+03
 -4.88435E+03 -4.76679E+03 -1.77105E+02 -6.82584E+03  3.94728E+03 -3.03987E+03  4.41834E+03  2.22438E+03
 -9.79376E+02  3.81372E+03 -4.13665E+03  4.95346E+03 -6.47947E+03  3.10272E+03 -4.73102E+03 -1.42661E+03
 -3.39976E+03 -7.20743E+03  1.87725E+03 -7.89522E+03  7.72754E+03 -3.91307E+03  7.39488E+03  5.98072E+02
  5.50621E+03  6.13266E+03 -1.06711E+03  6.99350E+03 -6.38246E+03  5.95306E+03 -5.28649E+03 -1.19479E+03
 -7.18123E+03 -5.25335E+03 -1.54539E+03 -5.82498E+03  2.40332E+03 -5.36384E+03  4.29121E+03 -2.34807E+03
  2.91399E+03  6.48113E+02  4.35608E+02  1.53411E+03  1.73112E+03 -1.21073E+03  6.90612E+02 -2.52799E+03
  4.95703E+03 -4.72152E+02  7.38316E+03  1.40293E+03  6.88468E+03  4.10557E+03  5.46181E+03  7.83916E+03
 -2.11228E+03  9.30020E+03 -7.89985E+03  7.83818E+03 -1.06553E+04  1.44269E+03 -9.72633E+03 -2.43783E+03
 -4.80565E+03 -6.76705E+03 -1.37322E+03 -5.93355E+03  1.70573E+03 -2.84715E+03  2.42835E+03 -1.20801E+03
  1.42724E+03 -1.40109E+03  3.14833E+03 -3.24284E+03  4.51632E+03 -1.22017E+03  3.92665E+03 -1.66916E+02
  4.47313E+03  7.93658E+02  1.81654E+03  4.24440E+03 -2.64015E+03  3.15631E+03 -5.30463E+03  3.08479E+03
 -5.16592E+03 -4.90975E+02 -3.59270E+03 -3.19539E+03  7.13035E+02 -5.23335E+03  4.10278E+03 -6.83718E+03
  6.98137E+03 -3.63666E+03  7.94148E+03  2.22607E+02  5.90983E+03  5.27665E+03  1.07636E+03  6.69177E+03
 -1.81830E+03  6.59355E+03 -3.90167E+03  2.37206E+03 -1.39813E+03 -1.22135E+03 -1.98173E+03 -4.10630E+02
  2.99484E+02 -3.21011E+02 -5.53770E+02  1.58957E+03 -2.05279E+03  1.22536E+03 -5.01595E+03 -7.01162E+02
 -1.76633E+03 -4.45100E+03 -3.74515E+02 -5.06767E+03  2.98202E+03 -6.32287E+03  3.81710E+03 -1.96889E+03
  6.03262E+03  2.73025E+03  1.78626E+03  2.86041E+03 -1.90172E+03  4.99143E+03 -2.37950E+03  2.86129E+03
 -4.45405E+03  7.88898E+02 -4.61441E+03 -3.35381E+03  5.48766E+01 -3.76313E+03  2.35615E+03 -2.32410E+03
  2.47084E+03 -1.79284E+02  1.94712E+03  1.85185E+02 -1.62939E+02  2.14189E+03  1.65383E+03  4.63402E+02
  1.99055E+03  5.90161E+02  8.82883E+02  1.52617E+03  7.19729E+02  2.82156E+03  1.51597E+03  2.98800E+03
 -4.55669E+02  3.56506E+03 -2.39483E+03  3.03906E+03 -3.41661E+03  1.13098E+03 -4.91589E+03 -5.55477E+02
 -2.08184E+03 -4.81032E+03  5.30912E+02 -6.19935E+03  2.40382E+03 -2.12216E+03  3.28937E+03 -1.59600E+03
  3.15299E+03  2.30904E+03  6.03515E+02  3.63150E+03 -1.10395E+03  1.57534E+03 -5.51952E+02 -6.25728E+02
 -9.20982E+02 -7.95814E+02  1.97278E+03 -1.59165E+03 -5.57952E+02 -1.63232E+03  1.61088E+03  3.53216E+02
  1.07109E+03  3.86945E+02  6.57729E+02  8.60117E+02 -2.68846E+02  1.11245E+03  1.59225E+03  5.11444E+02
  3.85078E+02 -6.49538E+02  1.30444E+03  7.85328E+02  1.21837E+03  2.02451E+03 -1.10618E+02  2.83839E+03
 -1.61269E+03  1.49233E+03 -2.07344E+03  1.49713E+03 -3.42251E+03 -7.22132E+02 -6.17834E+02 -1.27415E+03
  6.57883E+02 -1.79599E+03  8.48496E+02 -6.86155E+02  2.33889E+03  9.98986E+02 -8.54491E+02  1.36253E+03
 -2.23947E+03 -7.57104E+02 -6.62186E+02 -2.15540E+03 -9.07345E+02 -2.22596E+03  2.19840E+02 -1.38740E+03
  1.13801E+03 -1.55399E+03  1.12821E+03  5.81375E+02  3.34646E+02  6.14397E+02  5.59404E+02 -1.46782E+02
 -5.67919E+02  6.91087E+02 -1.40446E+03  7.42225E+01  1.25664E+03 -9.78774E+02  1.54603E+03 -2.70141E+02
  2.92218E+03 -4.44422E+02  2.54298E+03  4.32811E+02  2.17643E+03  5.42153E+02 -2.80878E+02  2.04507E+03
 -1.64579E+03  5.82921E+02 -1.63053E+03 -1.28552E+03 -7.06310E+02 -1.19754E+03  1.15942E+03 -4.21758E+02
  2.12847E+03 -3.93661E+02  4.57309E+02 -6.50618E+02  9.32776E+02  1.72772E+03  4.83641E+02  9.46951E+02
  4.82551E+02  2.74285E+02 -1.21449E+02  7.79224E+02  5.03488E+02  7.43851E+02 -6.24812E+02 -1.35443E+02
 -2.61710E+02  1.55101E+02 -2.54368E+03  1.28479E+03 -2.50376E+03  1.20447E+03 -3.57479E+03 -7.53567E+02
 -6.71537E+02 -2.11562E+03  2.01103E+03 -2.94456E+03  4.82993E+02 -3.12068E+03  3.44086E+03 -1.89726E+03
  2.89455E+03 -1.04364E+03  1.32908E+03  1.53040E+03 -2.10896E+03  2.01359E+03 -9.05272E+02  9.82274E+02
 -1.70095E+03  1.46574E+03 -2.86137E+02 -1.10131E+03 -7.40160E+02  1.10599E+03 -1.19458E+03 -8.36406E+02
 -5.29799E+02 -1.27782E+01 -1.06254E+03 -3.77949E+02  1.14352E+03 -7.19848E+02 -1.33262E+02 -4.86414E+02
  1.80087E+03 -1.12857E+02 -2.67156E+02 -4.83778E+02  2.23212E+03  1.34821E+03 -7.88655E+02  1.68217E+03
 -1.75540E+03  2.87830E+03 -1.14385E+03  2.44118E+03 -1.91888E+03 -4.54746E+02 -1.62274E+03 -1.42968E+03
 -6.71061E+02 -5.54827E+02 -4.75350E+02 -1.41989E+03  1.04612E+03 -1.87468E+03  2.30242E+02 -8.46424E+02
  1.07937E+03  2.24287E+02 -1.10572E+03  1.06851E+03 -9.08538E+02 -8.15737E+02  4.26547E+02 -1.14115E+03
 -1.59806E+01  3.69373E+02  3.88164E+02  2.10877E+02  1.58991E+02  4.60845E+02  7.40446E+02  9.58328E+02
 -1.76782E+03  1.77832E+03 -2.31530E+02  4.77296E+02 -1.15247E+03 -3.56079E+02 -7.52613E+02 -1.74383E+03
  4.84575E+02 -1.50045E+03 -6.35848E+02  2.92181E+01  4.49471E+02 -8.35447E+02 -3.68977E+02  1.20069E+03
  9.14118E+01  4.45295E+02 -3.01484E+01  1.40643E+03  4.42131E+02  1.91101E+02 -4.22829E+02 -1.63107E+02
 -9.29637E+02 -2.01207E+02  7.35325E+01  3.06740E+02 -1.19419E+03 -3.31564E+01 -1.46415E+03 -1.60018E+03
 -1.14000E+03 -1.53373E+03  7.43455E+02 -1.76521E+03  8.21916E+02 -2.15651E+02  8.75352E+02 -9.94063E+02
  6.00410E+02  1.29765E+03 -1.25421E+03  6.23072E+02 -6.08027E+02  1.03935E+03 -3.53440E+02  3.13628E+02
