 $NMID ID='MM_0lb_SNR200_12hz_g55_53.RAW', FMTDAT='(8E13.5)'
 TRAMP=1., VOLUME=1. $END
  3.10090E+05  2.90116E+03  3.37326E+05  2.50132E+05  8.42097E+04  3.37294E+05 -1.32165E+05  2.50448E+05
 -1.91150E+05  8.31132E+04 -1.13112E+05 -3.12093E+04  1.43308E+03 -5.07246E+04  5.45797E+04 -7.48269E+02
  3.56551E+04  5.22474E+04 -1.60686E+04  7.60671E+04 -6.10102E+04  6.37362E+04 -8.54686E+04  3.12861E+04
 -8.17865E+04 -1.24505E+04 -5.81421E+04 -5.17524E+04 -1.43266E+04 -7.20439E+04  2.77105E+04 -4.56542E+04
  4.05917E+04  3.46916E+03  1.69752E+04  4.81672E+04 -3.51957E+04  4.67132E+04 -6.66944E+04 -7.43761E+02
 -5.54422E+04 -5.81775E+04 -6.42049E+03 -7.82298E+04  3.52316E+04 -5.56913E+04  4.90509E+04 -1.68217E+04
  4.39487E+04  1.21592E+04  3.37297E+04  2.58691E+04  1.57929E+04  2.92722E+04 -5.41182E+03  2.84096E+04
 -2.01633E+04  1.25674E+04 -1.83034E+04 -5.58785E+03  4.85118E+03 -7.26643E+03  2.35402E+04  1.16751E+04
  7.77744E+03  3.70772E+04 -3.34450E+04  3.62229E+04 -6.51176E+04  2.65732E+03 -5.96580E+04 -4.26203E+04
 -1.26360E+04 -6.37246E+04  4.02683E+04 -4.72155E+04  5.94326E+04 -3.42078E+03  3.54610E+04  3.41099E+04
 -5.52586E+03  3.85742E+04 -3.06781E+04  1.90273E+04 -3.23745E+04 -5.18182E+03 -1.82696E+04 -1.20455E+04
 -9.64993E+03 -1.47201E+04  2.04201E+02 -1.85906E+04  8.08575E+03 -2.33621E+04  1.46352E+04 -1.25776E+04
  1.06821E+04  6.76755E+03 -8.67700E+03  1.37179E+04 -2.38965E+04 -4.63206E+03 -8.65709E+03 -3.50582E+04
  2.42620E+04 -4.59953E+04  5.00115E+04 -2.01801E+04  4.69423E+04  1.96854E+04  1.75122E+04  4.61055E+04
 -1.59682E+04  3.38342E+04 -2.61083E+04  2.06915E+03 -1.04485E+04 -2.95761E+04  2.16194E+04 -3.61026E+04
  4.18297E+04 -9.77295E+03  3.84255E+04  2.33137E+04  2.13412E+04  4.81980E+04 -6.93335E+03  5.39053E+04
 -3.46414E+04  3.61275E+04 -4.35502E+04  1.02360E+04 -4.50167E+04 -1.74142E+04 -2.32924E+04 -3.96792E+04
  6.21914E+03 -4.05655E+04  3.29335E+04 -1.53118E+04  3.12298E+04  1.10143E+04  4.74346E+03  2.04898E+04
 -1.53214E+04  8.50894E+03 -1.10085E+04 -7.80445E+03  5.41606E+03 -1.13875E+04  1.78630E+04  5.38574E+03
  1.53978E+04  2.24229E+04 -5.30087E+03  2.53623E+04 -2.37614E+04  1.27340E+04 -2.97663E+04 -3.48301E+03
 -2.30248E+04 -1.84205E+04 -9.31811E+03 -2.24767E+04  4.95250E+03 -2.41655E+04  1.83540E+04 -2.06634E+04
  3.04922E+04 -1.42553E+04  3.55708E+04  4.16950E+03  2.55197E+04  2.35442E+04  4.25602E+03  3.84176E+04
 -1.86609E+04  3.26302E+04 -2.97073E+04  9.45750E+03 -2.15500E+04 -1.18469E+04 -5.18664E+03 -1.23209E+04
  1.74487E+03 -3.15676E+03 -6.73650E+03  7.82195E+03 -1.80749E+04  4.06148E+03 -1.81923E+04 -8.43726E+03
 -1.10238E+04 -2.15025E+04  5.39103E+03 -2.50016E+04  1.73991E+04 -1.75675E+04  2.07149E+04 -1.48120E+03
  1.28124E+04  1.49509E+04 -1.71529E+03  2.17736E+04 -1.47808E+04  1.19116E+04 -2.26025E+04 -4.49252E+03
 -1.59128E+04 -1.82916E+04 -2.38771E+03 -2.52406E+04  1.11341E+04 -2.01414E+04  2.13499E+04 -1.07544E+04
  2.12333E+04  1.74080E+02  1.35222E+04  5.50831E+03  7.37535E+03  2.22480E+03  1.02912E+04 -2.21041E+03
  2.02089E+04  3.04260E+03  2.29905E+04  1.71755E+04  1.64437E+04  3.42821E+04 -2.46979E+03  3.87923E+04
 -2.32548E+04  3.16577E+04 -3.65376E+04  1.66522E+04 -3.81065E+04 -3.20931E+03 -3.15114E+04 -2.30847E+04
 -1.42271E+04 -3.20660E+04  1.02773E+04 -2.91306E+04  2.58504E+04 -1.40953E+04  2.10049E+04  7.16862E+03
  6.89580E+03  1.68822E+04 -9.81441E+03  1.47834E+04 -1.69754E+04  1.28468E+03 -1.38299E+04 -1.25569E+04
 -6.65984E+02 -1.75255E+04  9.20889E+03 -1.35532E+04  1.15857E+04 -9.26504E+02  2.91038E+03  6.97331E+03
 -8.50392E+03  3.17537E+03 -6.45101E+03 -7.53903E+03 -1.66800E+03 -1.45597E+04  1.02377E+04 -1.57878E+04
  1.88127E+04 -8.91768E+03  2.14159E+04  3.43881E+03  1.94555E+04  1.42416E+04  9.05353E+03  2.30858E+04
 -4.56427E+03  2.46489E+04 -1.75058E+04  1.65329E+04 -1.95804E+04  4.06448E+03 -1.31348E+04 -5.53570E+03
 -6.48268E+03 -6.44062E+03 -9.78900E+02  4.45765E+01 -2.83614E+03  3.99494E+03 -6.28474E+03  4.61556E+03
 -1.30981E+04  2.22849E+02 -1.32477E+04 -1.10566E+04 -6.20227E+03 -1.67903E+04  4.63304E+03 -1.41780E+04
  1.00713E+04 -4.55833E+03  6.39661E+03  2.62586E+03 -7.40370E+02  5.02837E+03 -6.49558E+03 -3.43887E+02
 -6.87507E+03 -8.57726E+03 -1.37148E+03 -1.30437E+04  6.27300E+03 -1.43340E+04  1.53316E+04 -6.77998E+03
  1.98481E+04  2.18817E+03  1.24876E+04  1.29389E+04  3.82922E+03  1.48555E+04 -9.69728E+03  1.28363E+04
 -1.09682E+04  4.74836E+03 -6.51183E+03 -2.21002E+03  1.39881E+03 -4.88591E+03  7.15855E+03 -1.14223E+03
  7.93076E+03  6.76485E+03  1.46794E+03  9.71749E+03 -9.70790E+03  1.14629E+04 -1.34817E+04  1.25516E+03
 -8.12061E+03 -7.16348E+03  4.37832E+01 -1.11070E+04  6.16418E+03 -5.59790E+03  7.77464E+03  2.39764E+03
  2.07811E+03  7.52444E+03 -5.64456E+03  9.88761E+03 -9.89145E+03  2.85862E+03 -8.31718E+03 -5.47901E+03
 -6.41286E+03 -1.35342E+04  4.03036E+03 -1.28148E+04  1.17960E+04 -8.01453E+03  1.37098E+04  1.32034E+03
  8.89103E+03  1.08780E+04 -2.33075E+03  1.22489E+04 -9.92095E+03  7.97924E+03 -1.08281E+04 -1.47850E+03
 -8.26830E+03 -9.42110E+03 -1.83616E+03 -8.74031E+03  5.42086E+03 -8.62701E+03  6.07333E+03 -4.60021E+03
  3.45917E+03  1.48453E+03 -2.33680E+02  1.24599E+03  3.15238E+02 -1.58753E+03  1.90532E+03 -6.68886E+03
  9.32722E+03 -3.83368E+03  1.15111E+04  1.43312E+03  1.24981E+04  7.57349E+03  7.58188E+03  1.56332E+04
 -4.19890E+03  1.75579E+04 -1.61043E+04  1.32429E+04 -2.07123E+04  2.48293E+03 -1.50133E+04 -6.96432E+03
 -7.87285E+03 -1.42041E+04  5.61697E+02 -1.13427E+04  3.61496E+03 -5.30828E+03  4.03728E+03 -3.46418E+03
  2.54432E+03 -3.88527E+03  3.31994E+03 -3.99742E+03  4.96099E+03 -2.05540E+03  7.25967E+03 -1.44884E+02
  7.67752E+03  2.94620E+03  3.91815E+03  7.22681E+03 -2.16165E+03  9.98869E+03 -9.09592E+03  6.34255E+03
 -1.21477E+04 -2.11139E+03 -6.55256E+03 -7.43902E+03 -7.72387E+01 -1.10669E+04  6.69634E+03 -1.20248E+04
  1.20950E+04 -5.81965E+03  1.53542E+04  1.31158E+03  1.05291E+04  1.17713E+04  1.31933E+03  1.39058E+04
 -4.45594E+03  1.09420E+04 -8.54720E+03  3.78369E+03 -4.98678E+03 -2.32675E+03 -2.02608E+03 -1.22553E+03
 -2.05569E+03 -6.10581E+02 -1.88365E+03  4.03681E+03 -4.64356E+03  1.25799E+03 -8.70298E+03 -4.48444E+02
 -5.40143E+03 -6.39467E+03  1.20291E+03 -1.25771E+04  6.36327E+03 -1.00954E+04  1.13613E+04 -2.47276E+03
  1.19252E+04  4.71404E+03  3.96120E+03  8.94131E+03 -1.69713E+03  1.07927E+04 -9.23336E+03  5.29768E+03
 -9.77895E+03  1.19218E+03 -8.37806E+03 -7.26291E+03 -5.04115E+02 -8.13753E+03  6.61726E+03 -8.60172E+03
  7.53003E+03 -2.87877E+03  4.37784E+03  8.10886E+02  1.42652E+03  2.55240E+03  1.42453E+03  2.11779E+03
  1.76980E+03  1.34210E+03  1.53167E+03  1.70988E+03  2.70052E+03  4.23711E+03  2.91817E+03  6.34581E+03
 -2.05745E+03  9.37393E+03 -7.83066E+03  8.28794E+03 -9.61217E+03  2.32822E+03 -1.03570E+04 -4.91646E+03
 -5.38441E+03 -9.65683E+03  1.55682E+03 -1.21357E+04  5.34941E+03 -7.18431E+03  8.36777E+03 -2.78311E+03
  7.58078E+03  3.64031E+03  3.93574E+02  6.61676E+03 -3.84730E+03  2.57170E+03 -3.75068E+03 -7.77055E+00
 -2.87951E+03 -6.42534E+03  3.27388E+03 -4.98643E+03  4.33796E+03 -1.86084E+03  5.40633E+03  1.21491E+03
  3.20096E+03  1.75985E+03  1.74526E+03 -3.96648E+01 -5.68151E+02  1.71799E+03  2.43681E+03 -1.68945E+03
  2.02655E+03  3.75554E+02  3.64103E+03  2.42248E+03  2.61574E+03  4.96803E+03 -5.77716E+02  6.86065E+03
 -5.01838E+03  5.20092E+03 -7.28763E+03  2.41710E+03 -7.85361E+03 -2.87131E+03 -1.10204E+03 -4.99267E+03
 -1.18087E+02 -4.60590E+03  3.44488E+03 -1.08299E+03  1.99521E+03  2.09074E+03 -2.00395E+03  3.32561E+03
 -5.31061E+03  2.79469E+03 -6.11444E+03 -2.93109E+03 -2.39209E+03 -6.10539E+03  1.22568E+03 -5.77583E+03
  3.58147E+03 -3.62644E+03  3.20567E+03  7.35522E+02  2.57444E+03  2.05931E+03  1.10805E+03  1.44781E+03
 -1.09906E+03  5.13668E+02 -2.10872E+03 -2.13716E+03  1.53741E+01 -3.69566E+03  3.53488E+03 -3.77945E+03
  6.64980E+03  8.63309E+02  6.54803E+03  4.38021E+03  2.44853E+03  7.36593E+03 -2.28089E+03  6.53713E+03
 -5.16355E+03  1.31850E+03 -6.73789E+03 -1.25936E+02 -3.68572E+03 -3.39483E+03  2.10610E+03 -3.40963E+03
  3.43052E+03 -1.81639E+03  2.18688E+03  5.97063E+02  2.76187E+03  1.88895E+03 -3.59668E+02  2.99202E+03
 -9.37369E+02  1.73653E+03 -9.56998E+02 -6.17664E+02  1.28441E+02 -3.56194E+02 -1.99865E+02  7.02095E+02
 -1.72483E+03  2.81577E+03 -3.31185E+03  1.71153E+03 -6.69455E+03 -9.99946E+02 -9.34687E+03 -4.30872E+03
 -4.72568E+03 -7.82052E+03  1.66861E+03 -8.99685E+03  4.60079E+03 -6.90003E+03  8.05328E+03 -3.39588E+03
  8.63934E+03  7.52558E+02  3.35127E+03  4.94222E+03  1.33409E+02  4.63659E+03 -2.78600E+03  4.54341E+03
 -3.75975E+03  3.07201E+03 -3.72449E+03 -1.00302E+03 -1.29002E+03 -7.22035E+02 -1.85310E+03 -1.10709E+02
 -3.29382E+03 -8.01686E+02 -2.32560E+03  4.20270E+02 -6.78608E+02 -1.12953E+03 -6.19789E+02 -3.98310E+03
  2.01596E+03 -2.32432E+02  3.72544E+03 -2.69033E+02  4.41230E+03  2.88831E+03  1.29591E+03  4.51445E+03
 -3.69817E+03  6.74283E+03 -7.55628E+03  3.01505E+03 -6.28313E+03 -6.52057E+02 -4.63059E+03 -4.21462E+03
 -1.41052E+03 -6.50853E+03  1.38808E+03 -4.19971E+03  4.08060E+03 -4.13000E+03  4.48849E+03  2.58208E+02
  3.26924E+03  2.10904E+03 -4.98193E+02  1.36788E+03 -6.17043E+02 -1.63167E+02  3.45610E+02 -4.69933E+02
  2.66865E+03 -5.75587E+02  1.88636E+03  1.17167E+03  3.07441E+03  1.81385E+03  4.66264E+02  2.59225E+03
 -2.79789E+03  2.69174E+03 -2.33328E+03 -4.97185E+01 -2.82904E+03 -3.35617E+03 -3.67542E+02 -4.99636E+03
  4.22340E+03 -3.51581E+03  5.16774E+03 -1.79651E+03  5.33103E+03 -2.48034E+01  4.12399E+03  3.18427E+03
  1.48134E+03  3.38141E+03 -1.20205E+03  4.24507E+03 -8.75916E+02  2.41561E+03 -2.43440E+03 -1.12793E+03
 -8.73274E+02 -1.97212E+02 -1.46961E+03  8.17924E+02 -8.16530E+02  1.35010E+03 -1.67849E+03  5.71109E+02
 -3.79927E+03 -1.94488E+03  4.35490E+01 -2.33830E+03  1.45450E+03 -4.79187E+03  3.58004E+03 -2.04247E+03
  4.02423E+03  2.97403E+02  1.39066E+02  2.32740E+03 -3.40365E+02  4.13121E+03 -2.66917E+03  3.41159E+03
