 $NMID ID='MM_0lb_SNR200_18hz_g60_54.RAW', FMTDAT='(8E13.5)'
 TRAMP=1., VOLUME=1. $END
  3.08946E+05  4.26090E+02  3.38450E+05  2.51602E+05  8.47957E+04  3.37928E+05 -1.32321E+05  2.51012E+05
 -1.89691E+05  8.26144E+04 -1.11462E+05 -3.34845E+04  1.39053E+03 -5.08870E+04  5.50760E+04 -3.06465E+02
  3.48432E+04  5.24972E+04 -1.72616E+04  7.50396E+04 -6.01868E+04  6.46817E+04 -8.45537E+04  3.28376E+04
 -8.08855E+04 -1.10268E+04 -5.80038E+04 -4.99919E+04 -1.49206E+04 -6.86567E+04  2.73881E+04 -4.59732E+04
  3.86944E+04  3.86224E+03  1.64560E+04  4.70895E+04 -3.42192E+04  4.75091E+04 -6.60373E+04  8.64143E+01
 -5.31293E+04 -5.61394E+04 -7.19667E+03 -7.67912E+04  3.33051E+04 -5.43621E+04  4.78921E+04 -1.68373E+04
  4.19397E+04  1.10960E+04  3.08123E+04  2.54411E+04  1.50187E+04  2.89682E+04 -5.76462E+03  2.69493E+04
 -2.19697E+04  1.23700E+04 -1.92588E+04 -4.51137E+03  6.01730E+03 -6.43543E+03  2.20348E+04  1.15272E+04
  7.19361E+03  3.42039E+04 -3.17349E+04  3.52841E+04 -6.23944E+04  3.11740E+03 -5.55534E+04 -4.22945E+04
 -1.26772E+04 -6.22921E+04  4.03291E+04 -4.42744E+04  5.73862E+04 -3.13377E+03  3.35882E+04  3.18756E+04
 -6.56055E+03  3.50750E+04 -3.05597E+04  1.46975E+04 -3.00138E+04 -4.99257E+03 -1.61672E+04 -1.08159E+04
 -8.16029E+03 -1.33464E+04 -7.10615E+02 -1.74921E+04  6.93199E+03 -2.22593E+04  1.53102E+04 -1.42412E+04
  1.22747E+04  4.13448E+03 -7.52025E+03  1.29006E+04 -2.07507E+04 -3.50410E+03 -8.86046E+03 -3.31437E+04
  2.22745E+04 -4.26036E+04  4.57187E+04 -1.82373E+04  4.48907E+04  1.96093E+04  1.43778E+04  4.28429E+04
 -1.56510E+04  3.25408E+04 -2.48887E+04  1.43894E+03 -1.04332E+04 -2.82593E+04  2.08968E+04 -3.28089E+04
  3.93420E+04 -9.30831E+03  3.46757E+04  2.30491E+04  1.70100E+04  4.41775E+04 -7.41542E+03  4.78113E+04
 -2.94665E+04  3.29445E+04 -3.90817E+04  9.87691E+03 -4.12421E+04 -1.62098E+04 -2.32872E+04 -3.71620E+04
  5.77985E+03 -3.58404E+04  3.04384E+04 -1.30372E+04  2.82527E+04  1.12169E+04  2.49609E+03  1.84388E+04
 -1.27677E+04  8.10224E+03 -1.03935E+04 -7.99510E+03  5.80329E+03 -1.03203E+04  1.73357E+04  6.84969E+03
  1.33980E+04  2.18589E+04 -6.00567E+03  2.45386E+04 -2.13742E+04  1.02158E+04 -2.62358E+04 -5.44844E+03
 -1.86449E+04 -1.69384E+04 -7.12883E+03 -1.87116E+04  3.32402E+03 -1.71498E+04  1.53384E+04 -1.57358E+04
  2.34479E+04 -1.28166E+04  3.08842E+04  1.18554E+03  2.41690E+04  1.81715E+04  4.92285E+03  3.41852E+04
 -1.67147E+04  2.78686E+04 -2.70005E+04  1.08963E+04 -1.99603E+04 -9.74655E+03 -4.25177E+03 -1.39367E+04
  2.39297E+03 -3.53705E+03 -4.04072E+03  6.23225E+03 -1.41387E+04  5.44885E+03 -1.33605E+04 -5.91575E+03
 -9.80635E+03 -1.84975E+04  4.47432E+03 -2.12250E+04  1.40776E+04 -1.52738E+04  1.69321E+04 -2.13271E+03
  1.08118E+04  1.23194E+04 -1.37276E+03  1.73054E+04 -1.03031E+04  1.07051E+04 -1.70444E+04 -3.19569E+03
 -1.27358E+04 -1.56554E+04 -2.37746E+03 -2.14362E+04  8.85690E+03 -1.79226E+04  1.84175E+04 -8.10194E+03
  1.63111E+04  4.30107E+02  1.18568E+04  4.01851E+03  5.95858E+03  5.60367E+02  9.53454E+03 -1.71625E+03
  1.53054E+04  3.15570E+03  1.75427E+04  1.35862E+04  1.05987E+04  2.78292E+04 -2.69596E+03  2.98355E+04
 -1.81249E+04  2.31260E+04 -2.76380E+04  1.08231E+04 -2.85221E+04 -3.13050E+03 -2.45050E+04 -1.66511E+04
 -9.92996E+03 -2.34853E+04  8.29895E+03 -2.10127E+04  1.97220E+04 -1.20020E+04  1.73266E+04  4.00759E+03
  7.52247E+03  1.32349E+04 -9.35240E+03  1.11115E+04 -1.37869E+04  3.39331E+03 -1.01510E+04 -8.91890E+03
 -6.60335E+02 -1.34087E+04  6.04267E+03 -1.00328E+04  9.38131E+03 -1.60574E+03  1.58084E+03  5.39107E+03
 -6.67884E+03  2.12968E+03 -5.26935E+03 -5.59903E+03  1.71139E+02 -1.25855E+04  9.89337E+03 -1.23821E+04
  1.33070E+04 -5.60122E+03  1.42551E+04  4.02346E+03  1.22922E+04  1.10875E+04  5.31511E+03  1.57469E+04
 -3.33163E+03  1.76181E+04 -1.15323E+04  1.20115E+04 -1.39161E+04  2.75608E+03 -9.37141E+03 -1.58794E+03
 -4.87923E+03 -3.62574E+03 -1.54298E+03  8.83214E+02 -1.95406E+03  2.66889E+03 -3.95440E+03  3.17525E+03
 -8.46088E+03 -2.58002E+02 -8.61974E+03 -8.53547E+03 -4.98520E+03 -1.28576E+04  3.65660E+03 -9.36475E+03
  7.44354E+03 -4.53972E+03  4.37834E+03  3.00630E+03 -4.05468E+02  3.68904E+03 -4.20673E+03  1.42752E+03
 -4.73462E+03 -4.59604E+03 -1.33517E+03 -9.36043E+03  4.34055E+03 -8.46056E+03  1.08305E+04 -4.18873E+03
  1.34662E+04  8.23849E+02  8.03188E+03  7.41190E+03  1.90882E+03  1.02001E+04 -4.90830E+03  9.32012E+03
 -7.32657E+03  1.92418E+03 -3.67640E+03 -1.47885E+03  1.17133E+03 -2.60107E+03  4.97896E+03 -9.79833E+02
  4.13904E+03  4.31465E+03  6.87779E+02  6.10248E+03 -4.47486E+03  7.63987E+03 -9.41212E+03  1.74861E+03
 -5.53706E+03 -5.23471E+03 -4.23676E+02 -6.72333E+03  4.74536E+03 -3.82031E+03  4.95488E+03  1.90593E+03
  9.90758E+02  3.69393E+03 -4.79244E+03  6.24468E+03 -5.18599E+03  2.19162E+03 -4.54429E+03 -1.92575E+03
 -3.25024E+03 -6.85253E+03  1.36483E+03 -8.43338E+03  6.13694E+03 -5.77259E+03  7.66295E+03  8.49695E+02
  6.18089E+03  6.25482E+03 -8.71094E+02  7.24548E+03 -5.86416E+03  4.78220E+03 -6.00981E+03  3.11837E+02
 -5.96528E+03 -5.52961E+03 -7.40122E+02 -5.79400E+03  3.85472E+03 -5.40310E+03  3.53832E+03 -3.29844E+03
  3.15445E+03  1.37293E+03  4.59035E+01  1.96152E+03  6.03828E+02 -8.06961E+01  1.26855E+03 -3.37554E+03
  4.03516E+03 -5.20231E+02  6.38271E+03  5.89085E+02  6.25769E+03  3.00011E+03  5.76693E+03  9.53365E+03
 -1.20844E+03  1.07674E+04 -1.03561E+04  6.99175E+03 -1.13620E+04  1.82882E+03 -9.12100E+03 -4.22283E+03
 -4.31541E+03 -6.90248E+03 -1.48302E+03 -5.24362E+03  1.85227E+03 -3.07608E+03  1.91276E+03 -2.63896E+03
  8.78388E+02 -2.50870E+03  1.67601E+03 -2.41253E+03  2.70701E+03 -1.63410E+03  3.28517E+03  6.24174E+02
  4.74040E+03  4.67467E+02  1.43892E+03  3.94550E+03 -1.75206E+03  2.96854E+03 -4.29018E+03  3.80698E+03
 -5.97610E+03 -1.37863E+03 -3.44962E+03 -3.44458E+03  1.26303E+03 -6.22362E+03  3.73151E+03 -6.53707E+03
  6.02461E+03 -3.57776E+03  7.49018E+03 -9.46781E+02  5.33785E+03  5.10858E+03  1.00976E+03  7.04189E+03
 -2.10926E+03  5.32006E+03 -3.51706E+03  2.74481E+03 -1.74334E+03 -1.26951E+03 -1.64143E+03 -2.55766E+02
  1.04951E+02  6.98999E+02 -5.12611E+02  1.13339E+03 -2.65665E+03  1.75837E+03 -4.24736E+03 -1.24159E+03
 -9.50062E+02 -3.15725E+03  1.73987E+03 -4.71984E+03  2.50211E+03 -5.23532E+03  4.65599E+03 -1.05184E+03
  4.17620E+03  2.00661E+03  1.89205E+03  4.23358E+03 -6.51598E+02  5.11006E+03 -3.33541E+03  3.25699E+03
 -5.40602E+03  9.87010E+02 -2.67920E+03 -2.64343E+03 -6.72986E+02 -3.54886E+03  1.56052E+03 -3.69826E+03
  2.90644E+03 -1.46385E+03  2.14306E+03  1.39889E+03 -2.08876E+01  1.56668E+03  2.01926E+03 -4.37209E+02
  1.92292E+03 -3.77719E+02  1.45478E+03  2.09411E+03  1.78185E+03  2.28722E+03  1.07381E+03  1.76335E+03
 -1.28193E+03  3.82725E+03 -2.58164E+03  5.73750E+03 -3.43256E+03  1.79723E+03 -4.87357E+03 -4.29699E+02
 -1.84709E+03 -3.89148E+03  5.78395E+02 -5.68993E+03  1.72325E+03 -1.83678E+03  3.17728E+03 -7.07879E+02
  3.27570E+03  1.60371E+03  6.90079E+02  3.17976E+03 -6.93227E+02  2.06292E+03 -1.88738E+03 -1.55820E+02
 -8.47922E+02 -1.19539E+03  1.44809E+03 -1.62237E+03  1.07488E+03 -1.34406E+02  2.03466E+03  7.59069E+02
  7.01256E+02  3.25288E+01 -1.28590E+02 -5.06020E+02 -5.34029E+02  9.14318E+02  3.98964E+02 -2.10744E+02
 -2.26872E+02 -5.32761E+02  1.62326E+03  1.13472E+03  2.10835E+02  3.33943E+03 -4.28376E+02  3.54605E+03
 -1.42277E+03  1.10310E+03 -2.81993E+03  5.80577E+02 -3.64633E+03 -1.08919E+03 -5.11659E+02 -1.14480E+03
  6.47229E+02 -1.05809E+03  1.41833E+03 -6.39306E+02  7.10209E+02  6.07005E+02 -9.58147E+02  1.79176E+03
 -1.65764E+03  2.05800E+02 -1.32157E+03 -1.25938E+03 -7.04433E+01 -1.53607E+03 -3.04722E+02 -2.72278E+03
  1.50203E+03 -4.15396E+02  9.97049E+02  3.47890E+02  1.04847E+03 -6.45661E+02  1.24837E+03  8.59646E+02
 -5.71860E+02  7.66562E+02 -1.04854E+03 -8.16612E+02 -5.84123E+02 -2.04420E+03  2.40488E+03 -1.02874E+03
  1.57374E+03  9.56938E+02  3.91847E+03  3.45598E+02  3.75435E+02  3.15150E+03 -3.95102E+02  1.18974E+03
 -1.36894E+03  3.99950E+02 -1.71642E+03  5.28440E+02 -9.90138E+02 -1.69254E+03 -4.82867E+02 -1.65571E+03
  1.56398E+03 -6.45340E+02  1.12799E+03  3.68958E+01 -9.21234E+02  1.84455E+03 -3.49983E+02  5.77065E+02
 -1.37380E+03  9.19816E+02 -9.77481E+02 -1.19103E+03 -1.76297E+03  1.17919E+03 -9.35627E+02  1.63789E+03
 -1.70978E+02  1.86154E+03 -1.31631E+03 -1.54103E+02 -2.00952E+03  8.08214E+02 -2.62739E+03 -1.43845E+03
 -1.35130E+03 -1.94675E+03  6.48432E+02 -2.94170E+03  1.86546E+03 -3.06181E+03  1.76457E+03 -1.35353E+03
  3.23766E+03  6.99005E+01  1.51138E+03  2.68633E+03  5.23249E+01  1.38638E+03 -1.25081E+03  1.39118E+03
 -2.31932E+02  8.49576E+02 -1.08052E+03 -2.05600E+02 -4.79685E+02  1.29109E+02  3.53070E+02  3.44162E+01
 -8.85830E+02 -1.29478E+03  4.13769E+02 -1.60278E+02 -4.27142E+02 -8.11770E+02  2.91600E+02 -2.04869E+03
  4.09949E+02 -4.38658E+02 -1.44307E+02  1.37705E+02  1.88245E+03  6.49264E+02 -7.81245E+02  1.04209E+03
 -1.86374E+03  3.59243E+03 -2.40014E+03  1.66063E+03 -7.29220E+02  4.07026E+02 -1.21352E+03 -1.60664E+03
 -1.02430E+02 -1.42154E+03  1.94876E+02 -5.08519E+02  8.70819E+02 -1.08612E+03  3.34545E+02  9.71400E+01
  1.46341E+03 -6.12472E+02  2.90628E+02 -5.60194E+02 -5.95643E+02  1.64355E+02 -5.08521E+02  1.27417E+02
  1.07891E+03 -2.46150E+02  2.88425E+02  1.42369E+03  8.95936E+02  6.01726E+02  6.21820E+02  7.51188E+02
 -9.94499E+02  6.06447E+02  1.63593E+02 -4.00268E+02 -6.84179E+02 -1.16726E+03 -5.08306E+02 -1.25816E+03
  3.11966E+02 -1.36887E+02  9.37153E+02  8.04468E+02  5.88865E+02 -3.40767E+01 -1.02745E+03 -1.48934E+02
 -8.92381E+01  2.22657E+02 -4.21341E+02  3.26317E+01 -1.37179E+03  1.47863E+03 -1.47566E+03  7.18746E+02
  8.70380E+02 -1.24125E+03 -4.66720E+02 -4.10206E+02  5.06231E+02  5.31056E+00 -1.16826E+03  4.74696E+02
 -1.29510E+03 -7.07540E+02 -3.55033E+02 -4.15356E+02  6.57939E+02 -1.51539E+03  1.37573E+03  5.27865E+02
  1.40572E+03  8.38929E+02 -5.74493E+02  6.75179E+01  1.00144E+02  7.40427E+02 -5.92001E+02  1.17058E+03
