 $NMID ID='MM_0lb_SNR200_9hz_g60_41.RAW', FMTDAT='(8E13.5)'
 TRAMP=1., VOLUME=1. $END
  3.10354E+05 -2.90970E+02  3.37982E+05  2.51477E+05  8.58377E+04  3.38483E+05 -1.32952E+05  2.51699E+05
 -1.92215E+05  8.21835E+04 -1.12969E+05 -3.38417E+04 -1.63828E+01 -5.09429E+04  5.28324E+04 -6.18652E+02
  3.58022E+04  5.23417E+04 -1.69652E+04  7.46677E+04 -6.31108E+04  6.42279E+04 -8.50730E+04  3.22223E+04
 -8.32563E+04 -1.20337E+04 -5.76348E+04 -5.22613E+04 -1.49610E+04 -7.16996E+04  2.70706E+04 -4.80992E+04
  4.34239E+04  2.32828E+03  1.73966E+04  4.88419E+04 -3.54165E+04  4.81980E+04 -6.97862E+04  3.25310E+02
 -5.40559E+04 -5.81899E+04 -7.04267E+03 -8.05499E+04  3.45734E+04 -5.76666E+04  5.04374E+04 -1.95500E+04
  4.56252E+04  1.11221E+04  3.25402E+04  2.66250E+04  1.61286E+04  3.09982E+04 -3.52885E+03  2.70623E+04
 -2.32153E+04  1.14711E+04 -1.68085E+04 -4.67034E+03  9.15955E+03 -7.38316E+03  2.22279E+04  1.40509E+04
  7.27594E+03  3.71559E+04 -3.49166E+04  3.67308E+04 -6.64436E+04  1.79580E+03 -5.97803E+04 -4.59759E+04
 -1.24176E+04 -6.57924E+04  4.41107E+04 -4.84238E+04  6.17576E+04 -2.41906E+03  3.72954E+04  3.44373E+04
 -5.26636E+03  3.98804E+04 -3.37797E+04  1.78973E+04 -3.48192E+04 -3.70356E+03 -1.91768E+04 -1.13837E+04
 -1.05217E+04 -1.53700E+04 -1.06492E+03 -2.02101E+04  8.09665E+03 -2.42437E+04  1.57343E+04 -1.39906E+04
  1.08558E+04  7.08678E+03 -1.15069E+04  1.39450E+04 -2.27913E+04 -5.66311E+03 -9.74111E+03 -3.78662E+04
  2.56588E+04 -4.71218E+04  5.25788E+04 -2.14518E+04  5.09090E+04  1.99634E+04  1.82109E+04  4.73369E+04
 -1.68466E+04  3.70117E+04 -2.91207E+04  1.58720E+03 -1.17341E+04 -3.06851E+04  2.15454E+04 -3.84571E+04
  4.48384E+04 -1.21519E+04  4.12799E+04  2.47998E+04  2.25311E+04  5.05760E+04 -8.04429E+03  5.88727E+04
 -3.56171E+04  3.94474E+04 -4.86399E+04  1.18743E+04 -4.93700E+04 -2.03301E+04 -2.46066E+04 -4.36416E+04
  7.25572E+03 -4.44673E+04  3.56165E+04 -1.74373E+04  3.11404E+04  1.06061E+04  4.18982E+03  2.15527E+04
 -1.33989E+04  1.07860E+04 -1.06060E+04 -6.81839E+03  5.98846E+03 -1.10975E+04  1.96355E+04  5.57707E+03
  1.52526E+04  2.28885E+04 -5.84955E+03  2.79941E+04 -2.35820E+04  1.47027E+04 -3.22025E+04 -3.28821E+03
 -2.76729E+04 -1.81339E+04 -1.46204E+04 -2.55927E+04  3.06052E+03 -2.72899E+04  1.83752E+04 -2.42448E+04
  3.34584E+04 -1.42627E+04  3.99822E+04  4.94583E+03  2.94795E+04  2.81298E+04  4.71141E+03  4.10648E+04
 -2.04705E+04  3.40893E+04 -3.05562E+04  1.37238E+04 -2.26187E+04 -1.10895E+04 -5.24522E+03 -1.24640E+04
  3.34541E+02  2.30692E+02 -8.60688E+03  1.04148E+04 -2.02724E+04  5.78533E+03 -2.05656E+04 -1.03452E+04
 -1.26636E+04 -2.43446E+04  6.85114E+03 -2.86658E+04  1.98728E+04 -2.12159E+04  2.32132E+04 -2.83197E+03
  1.44992E+04  1.58628E+04 -1.44943E+03  2.46217E+04 -1.77199E+04  1.46097E+04 -2.39049E+04 -5.50510E+03
 -1.63909E+04 -2.10707E+04 -3.68144E+03 -2.92201E+04  1.35377E+04 -2.34492E+04  2.43921E+04 -1.32954E+04
  2.19492E+04 -4.19004E+02  1.68709E+04  5.61748E+03  9.20719E+03  2.79317E+02  1.30995E+04 -1.71411E+03
  2.33349E+04  2.97171E+03  2.75624E+04  2.06391E+04  1.74920E+04  4.10311E+04 -4.93577E+03  4.74479E+04
 -2.63447E+04  3.85158E+04 -4.31828E+04  2.10591E+04 -4.72936E+04 -2.70088E+03 -3.73468E+04 -2.89034E+04
 -1.62976E+04 -3.78553E+04  1.45433E+04 -3.41588E+04  2.96625E+04 -1.54239E+04  2.57841E+04  6.96281E+03
  9.94417E+03  2.05055E+04 -1.27166E+04  1.51791E+04 -2.14877E+04  1.65261E+03 -1.59133E+04 -1.24928E+04
  6.40667E+02 -2.07853E+04  9.93729E+03 -1.47760E+04  1.39255E+04  8.21647E+02  3.43296E+03  9.00195E+03
 -9.52680E+03  4.26562E+03 -1.19186E+04 -8.08704E+03 -3.75454E+03 -2.05420E+04  1.34618E+04 -2.20821E+04
  2.40900E+04 -1.10450E+04  2.74764E+04  4.00227E+03  2.59397E+04  1.95045E+04  1.21600E+04  3.18088E+04
 -5.19489E+03  3.26448E+04 -2.16795E+04  2.14019E+04 -2.47061E+04  5.90693E+03 -1.49292E+04 -5.71724E+03
 -8.49434E+03 -8.61635E+03 -1.36503E+03  7.64125E+02 -2.31962E+03  4.32617E+03 -7.57425E+03  6.60756E+03
 -1.51643E+04 -4.32185E+02 -1.51663E+04 -1.27826E+04 -7.39603E+03 -2.16262E+04  5.89628E+03 -1.60708E+04
  1.23186E+04 -7.77023E+03  9.56080E+03  4.01469E+03 -4.79410E+02  7.73484E+03 -9.96841E+03  2.08136E+03
 -8.16215E+03 -9.89866E+03 -1.25551E+03 -1.65834E+04  1.11697E+04 -1.76223E+04  2.13691E+04 -7.44247E+03
  2.54146E+04  2.47419E+03  1.70143E+04  1.41869E+04  3.14733E+03  1.88899E+04 -1.06168E+04  1.85588E+04
 -1.50980E+04  5.86451E+03 -6.39355E+03 -3.48971E+03  1.85400E+03 -4.28148E+03  9.14598E+03 -1.17405E+03
  8.22826E+03  7.95008E+03  1.15625E+03  1.38814E+04 -1.03525E+04  1.27063E+04 -1.85612E+04  1.16864E+03
 -1.12960E+04 -7.99127E+03 -1.41765E+02 -1.52293E+04  7.82042E+03 -8.04487E+03  1.08181E+04  3.72052E+03
  2.09336E+03  1.07139E+04 -9.65437E+03  1.14483E+04 -1.44972E+04  5.78514E+03 -1.50105E+04 -6.35263E+03
 -1.00543E+04 -1.53872E+04  4.13575E+03 -1.95196E+04  1.57800E+04 -9.99522E+03  1.92980E+04  2.18064E+03
  1.09871E+04  1.28793E+04 -8.56808E+02  1.62470E+04 -1.23244E+04  9.52073E+03 -1.27014E+04 -1.80441E+03
 -1.17908E+04 -1.09319E+04 -1.62658E+03 -1.35988E+04  5.85336E+03 -1.21767E+04  9.53445E+03 -3.93554E+03
  4.20376E+03  3.08174E+03  9.17859E+02  1.02036E+03 -4.84189E+02 -2.70289E+03  3.08670E+03 -7.86878E+03
  1.29514E+04 -4.47762E+03  1.61745E+04  1.06274E+03  1.57389E+04  1.10653E+04  1.04510E+04  2.38053E+04
 -5.37864E+03  2.58115E+04 -2.12479E+04  1.89779E+04 -2.85266E+04  3.68135E+03 -2.18161E+04 -9.82291E+03
 -1.11653E+04 -1.76999E+04 -4.56673E+02 -1.53469E+04  5.79216E+03 -9.36899E+03  4.98660E+03 -5.48535E+03
  5.10168E+03 -3.53039E+03  4.33435E+03 -2.07795E+03  7.69108E+03 -3.23075E+03  8.28421E+03 -1.49691E+03
  1.28680E+04  2.89833E+03  6.42578E+03  9.51910E+03 -2.05315E+03  1.18809E+04 -1.16823E+04  9.65774E+03
 -1.50638E+04 -3.09500E+03 -1.03292E+04 -1.13915E+04 -1.99237E+03 -1.69621E+04  8.88875E+03 -1.73464E+04
  1.74552E+04 -1.11370E+04  2.11130E+04  3.38696E+03  1.36863E+04  1.43366E+04  1.99393E+03  1.91501E+04
 -8.48629E+03  1.53565E+04 -1.22562E+04  5.57791E+03 -7.06586E+03 -1.93914E+03 -3.24772E+03 -2.12752E+03
 -2.85646E+03 -2.10551E+02 -2.38677E+03  3.52367E+03 -5.82565E+03  2.02636E+03 -1.21088E+04 -1.79843E+03
 -7.77622E+03 -1.21477E+04 -9.26885E+02 -1.64857E+04  1.03432E+04 -1.55617E+04  1.77370E+04 -4.52680E+03
  1.66546E+04  7.33570E+03  8.11237E+03  1.39260E+04 -3.26304E+03  1.42747E+04 -1.00294E+04  8.75575E+03
 -1.45220E+04 -5.18585E+02 -1.18682E+04 -8.95713E+03 -2.79859E+03 -1.44451E+04  8.50318E+03 -8.77074E+03
  1.09604E+04 -4.32899E+03  7.99066E+03  1.00391E+03  9.92801E+02  4.57174E+03  1.79557E+03  1.41292E+03
  2.19948E+03  2.02214E+03  3.70829E+03  2.92812E+03  5.71801E+03  6.61275E+03  4.11329E+03  7.86498E+03
 -1.79439E+03  1.14353E+04 -1.03460E+04  1.36097E+04 -1.86099E+04  1.76128E+03 -1.65814E+04 -8.06186E+03
 -7.10537E+03 -1.58742E+04  1.51644E+03 -1.92428E+04  9.40173E+03 -1.07561E+04  1.49442E+04 -3.77419E+03
  1.08720E+04  5.48880E+03  1.27339E+03  8.40212E+03 -4.69037E+03  6.05362E+03 -6.07113E+03 -1.57973E+03
 -2.39304E+03 -7.48955E+03  3.48889E+03 -7.64250E+03  6.20344E+03 -2.99633E+03  8.10695E+03  5.88688E+02
  4.47516E+03  3.17469E+03  1.42076E+03  4.11469E+03 -3.69699E+02  1.69796E+03  6.03004E+02  8.14321E+02
  3.48386E+03  1.89647E+02  6.05831E+03  2.58874E+03  3.99026E+03  9.62326E+03 -2.00915E+03  1.14161E+04
 -6.21818E+03  8.16575E+03 -1.17030E+04  2.82453E+03 -1.00068E+04 -3.67817E+03 -4.16212E+03 -6.96085E+03
  2.41055E+03 -6.38549E+03  2.91697E+03 -2.64721E+03  4.09849E+03  3.90692E+03 -2.03440E+03  6.24412E+03
 -6.64476E+03  3.51145E+03 -9.87624E+03 -3.35577E+03 -3.07285E+03 -8.31474E+03  8.84621E+02 -9.32279E+03
  4.95289E+03 -5.52711E+03  6.55317E+03 -1.14117E+03  5.35168E+03  1.76032E+03  6.58295E+02  5.56666E+03
 -2.30612E+03  1.92433E+03 -3.00503E+03 -3.87079E+03  5.20311E+02 -8.08954E+03  9.19833E+03 -5.44093E+03
  1.15626E+04 -3.11837E+01  1.01128E+04  6.94174E+03  3.08657E+03  1.07404E+04 -4.76712E+03  8.83942E+03
 -7.89236E+03  3.55977E+03 -9.32553E+03 -1.67596E+03 -6.05573E+03 -6.66842E+03  9.57711E+02 -6.38400E+03
  7.50880E+03 -2.52442E+03  6.29922E+03  2.59848E+03  1.40385E+03  6.97016E+03 -4.73025E+02  4.79019E+03
 -2.03242E+03  3.77596E+03 -7.43993E+02  1.58994E+03 -1.21617E+03  1.77051E+03 -1.98733E+03  2.85639E+03
 -2.92211E+03  4.15326E+03 -7.74205E+03  3.78911E+03 -1.17656E+04  2.45868E+02 -1.38238E+04 -7.35627E+03
 -6.43759E+03 -1.40273E+04  2.97125E+03 -1.71015E+04  1.26320E+04 -1.35540E+04  1.62444E+04 -4.29047E+03
  1.59844E+04  4.28496E+03  9.14399E+03  1.11708E+04 -1.01619E+03  9.95451E+03 -4.62166E+03  8.67908E+03
 -5.34892E+03  2.42416E+03 -2.74717E+03 -2.63521E+03 -1.28571E+03 -1.64326E+03  9.71995E+02 -7.52248E+02
 -2.70494E+03  6.51566E+02 -2.47730E+03 -3.95963E+02 -2.50694E+02 -2.49925E+03 -6.11095E+02 -3.00854E+03
  6.20347E+03 -2.74058E+03  7.21164E+03  2.02524E+03  8.53099E+03  4.84823E+03  2.65130E+03  1.28431E+04
 -5.75624E+03  1.20967E+04 -1.10053E+04  8.68742E+03 -1.33866E+04 -1.35686E+03 -1.05063E+04 -8.88490E+03
 -4.69139E+03 -1.05250E+04  1.86876E+03 -1.23376E+04  7.00957E+03 -8.05988E+03  9.70047E+03 -9.96318E+02
  4.15289E+03  3.77322E+03 -3.04794E+02  3.67191E+03 -1.17260E+03 -1.22649E+02 -1.80364E+02 -1.16071E+03
  3.75813E+03 -1.97313E+02  4.57548E+03  2.51818E+03  4.79668E+03  4.98305E+03  2.24969E+02  5.68869E+03
 -4.40936E+03  5.18784E+03 -7.64786E+03  5.56516E+02 -7.34835E+03 -7.19599E+03 -1.81341E+03 -8.59490E+03
  5.10525E+03 -8.66688E+03  9.60173E+03 -8.69278E+02  7.51688E+03  2.48068E+03  5.75387E+03  8.21854E+03
  5.13691E+02  6.32377E+03 -4.99063E+02  5.94845E+03 -3.65686E+03  3.35679E+03 -3.93485E+03  3.70207E+02
 -3.34668E+03  3.76771E+00 -2.65855E+03  1.90439E+03 -3.03524E+03  2.27358E+03 -6.28919E+03 -7.04103E+02
 -4.45210E+03 -3.44707E+03 -1.45959E+03 -9.35850E+03  4.69315E+03 -9.40269E+03  6.24661E+03 -5.60160E+03
  7.09958E+03 -1.91124E+02  4.69798E+03  3.85869E+03 -8.00945E+02  6.68538E+03 -5.67474E+03  5.97905E+03
