 $NMID ID='MM_0lb_SNR200_11hz_g50_48.RAW', FMTDAT='(8E13.5)'
 TRAMP=1., VOLUME=1. $END
  3.10801E+05  6.54584E+02  3.37940E+05  2.50260E+05  8.42270E+04  3.39140E+05 -1.32734E+05  2.52010E+05
 -1.90164E+05  8.31401E+04 -1.12361E+05 -3.30055E+04  2.38165E+03 -5.09720E+04  5.31873E+04  6.39242E+02
  3.48502E+04  5.19503E+04 -1.68046E+04  7.57127E+04 -6.21711E+04  6.44908E+04 -8.41912E+04  3.11110E+04
 -8.09994E+04 -1.21321E+04 -5.83680E+04 -5.15183E+04 -1.43891E+04 -6.95173E+04  2.73868E+04 -4.69416E+04
  4.07974E+04  3.46334E+03  1.64796E+04  4.68620E+04 -3.46543E+04  4.72725E+04 -6.87029E+04  1.29912E+01
 -5.44401E+04 -5.85118E+04 -6.59889E+03 -7.86993E+04  3.51359E+04 -5.73958E+04  4.97155E+04 -1.76968E+04
  4.50776E+04  1.15657E+04  3.22600E+04  2.52157E+04  1.61175E+04  3.08296E+04 -4.64579E+03  2.86347E+04
 -2.24439E+04  1.21473E+04 -1.72907E+04 -5.16339E+03  6.20620E+03 -8.48800E+03  2.38464E+04  1.45501E+04
  6.82714E+03  3.65795E+04 -3.43611E+04  3.55868E+04 -6.55785E+04  1.43122E+03 -5.71390E+04 -4.27151E+04
 -1.22069E+04 -6.49529E+04  4.18119E+04 -4.56447E+04  6.11326E+04 -3.82798E+03  3.62323E+04  3.32528E+04
 -6.53962E+03  3.85216E+04 -3.09672E+04  1.82774E+04 -3.21896E+04 -5.31198E+03 -1.85757E+04 -1.11731E+04
 -8.65177E+03 -1.35937E+04 -2.28964E+02 -1.95013E+04  8.55355E+03 -2.36068E+04  1.47320E+04 -1.34991E+04
  1.04586E+04  4.65324E+03 -1.03967E+04  1.37265E+04 -2.30411E+04 -5.80467E+03 -8.12786E+03 -3.47987E+04
  2.27431E+04 -4.54629E+04  5.10946E+04 -2.00564E+04  4.78884E+04  2.03525E+04  1.75822E+04  4.56363E+04
 -1.63732E+04  3.41527E+04 -2.72431E+04  2.53852E+03 -9.94878E+03 -2.91700E+04  2.13408E+04 -3.58339E+04
  4.38006E+04 -8.12701E+03  3.85279E+04  2.39702E+04  1.88947E+04  4.86681E+04 -7.84401E+03  5.37272E+04
 -3.24434E+04  3.69267E+04 -4.44971E+04  9.49504E+03 -4.60103E+04 -1.75136E+04 -2.52002E+04 -4.12027E+04
  7.92915E+03 -4.05379E+04  3.22241E+04 -1.65940E+04  3.12087E+04  1.12076E+04  3.60801E+03  1.99051E+04
 -1.49067E+04  1.02148E+04 -1.23361E+04 -7.88546E+03  5.51067E+03 -1.22514E+04  1.82353E+04  5.04241E+03
  1.49737E+04  2.31833E+04 -5.89907E+03  2.59500E+04 -2.33335E+04  1.34745E+04 -3.01187E+04 -4.46414E+03
 -2.36719E+04 -1.68959E+04 -9.12683E+03 -2.38774E+04  3.76821E+03 -2.30487E+04  1.84743E+04 -2.16702E+04
  2.94112E+04 -1.24243E+04  3.57140E+04  3.34465E+03  2.60560E+04  2.30220E+04  4.50747E+03  3.98426E+04
 -1.94010E+04  3.27714E+04 -2.99099E+04  1.08076E+04 -2.15050E+04 -1.00621E+04 -4.09362E+03 -1.31912E+04
  1.56030E+02 -2.04142E+03 -6.33088E+03  6.23084E+03 -1.81661E+04  6.15216E+03 -1.87838E+04 -8.72677E+03
 -1.10972E+04 -2.07063E+04  5.14185E+03 -2.67278E+04  1.67970E+04 -1.77974E+04  2.08510E+04 -1.37092E+03
  1.16412E+04  1.47784E+04 -2.11024E+03  2.21974E+04 -1.56356E+04  1.10825E+04 -2.07240E+04 -3.91711E+03
 -1.61710E+04 -1.89888E+04 -3.15533E+03 -2.57467E+04  1.19060E+04 -1.99483E+04  2.24645E+04 -1.08209E+04
  2.08599E+04 -6.14926E+02  1.64747E+04  4.38092E+03  8.18886E+03  6.46233E+02  1.10080E+04 -2.12101E+03
  2.03462E+04  3.17861E+03  2.36554E+04  1.58461E+04  1.58336E+04  3.51386E+04 -2.96285E+03  4.08184E+04
 -2.27474E+04  3.31698E+04 -3.67584E+04  1.62811E+04 -3.91918E+04 -3.30654E+03 -3.38074E+04 -2.37044E+04
 -1.47983E+04 -3.23878E+04  1.09732E+04 -3.04460E+04  2.66770E+04 -1.38213E+04  2.18544E+04  7.34764E+03
  8.36849E+03  1.62714E+04 -1.02956E+04  1.49605E+04 -1.86916E+04  1.63691E+03 -1.47063E+04 -1.06074E+04
 -2.83864E+02 -1.71753E+04  9.74789E+03 -1.21447E+04  1.19130E+04 -3.65988E+02  3.13479E+03  8.92740E+03
 -7.67747E+03  2.89054E+03 -7.33602E+03 -5.56501E+03 -1.16238E+03 -1.62317E+04  1.14815E+04 -1.69999E+04
  1.91778E+04 -8.62505E+03  2.34969E+04  3.72660E+03  2.00646E+04  1.49732E+04  7.99040E+03  2.62346E+04
 -5.51712E+03  2.70713E+04 -1.85003E+04  1.70269E+04 -1.87425E+04  2.71500E+03 -1.29102E+04 -5.91631E+03
 -7.21213E+03 -5.54875E+03 -8.45995E+02  2.82819E+02 -3.27409E+03  2.82706E+03 -6.92863E+03  5.54055E+03
 -1.15729E+04 -1.57491E+03 -1.38320E+04 -1.00756E+04 -5.41865E+03 -1.77293E+04  4.81986E+03 -1.30137E+04
  1.16921E+04 -4.89924E+03  7.62314E+03  3.15695E+03  2.79379E+01  5.37596E+03 -5.81957E+03  6.25252E+02
 -6.32840E+03 -8.05297E+03  4.39203E+02 -1.30124E+04  6.51813E+03 -1.44987E+04  1.84161E+04 -7.73987E+03
  2.03284E+04  1.96813E+03  1.63730E+04  1.27542E+04  2.54921E+03  1.73926E+04 -7.36689E+03  1.35425E+04
 -1.03750E+04  4.07868E+03 -6.36028E+03 -4.51736E+03  3.66796E+03 -3.60236E+03  6.90378E+03 -3.13722E+02
  6.45354E+03  5.78969E+03  2.67199E+03  1.01726E+04 -8.00453E+03  9.92572E+03 -1.43525E+04  2.13471E+03
 -8.38941E+03 -7.78846E+03  3.17140E+02 -1.16344E+04  6.55254E+03 -6.08352E+03  7.92772E+03  3.15694E+03
  1.83790E+03  8.33415E+03 -7.01232E+03  8.93987E+03 -9.77041E+03  3.99033E+03 -1.12513E+04 -4.76091E+03
 -6.10523E+03 -1.33252E+04  2.03023E+03 -1.48296E+04  1.40105E+04 -8.67238E+03  1.35769E+04  2.38114E+03
  8.58459E+03  1.13691E+04 -4.56792E+02  1.23023E+04 -1.05890E+04  7.89532E+03 -9.99113E+03 -1.97061E+02
 -8.67722E+03 -8.42857E+03 -1.70442E+03 -9.79836E+03  5.77921E+03 -8.63268E+03  5.09011E+03 -3.04232E+03
  4.64574E+03  2.98514E+03 -1.01371E+03  2.07888E+03  2.25265E+02 -3.31577E+03  3.14593E+03 -5.77655E+03
  8.97825E+03 -4.65006E+03  1.20781E+04  2.24134E+03  1.22097E+04  9.44758E+03  7.97968E+03  1.72133E+04
 -4.34462E+03  1.97998E+04 -1.65980E+04  1.34503E+04 -2.12264E+04  1.41873E+03 -1.79813E+04 -8.11842E+03
 -8.96509E+03 -1.41271E+04 -1.19522E+03 -1.02620E+04  6.62739E+03 -6.92172E+03  5.30305E+03 -2.22533E+03
  2.95838E+03 -2.38846E+03  4.74962E+03 -2.26231E+03  5.60359E+03 -3.76117E+03  5.58674E+03  2.35287E+01
  9.71815E+03  3.29208E+03  4.54539E+03  7.05862E+03 -1.77689E+03  9.04281E+03 -9.69768E+03  6.15868E+03
 -1.22224E+04 -1.14966E+03 -6.79976E+03 -8.49117E+03 -1.88559E+03 -1.26755E+04  7.22160E+03 -1.29719E+04
  1.27986E+04 -5.87766E+03  1.65192E+04  1.70326E+03  1.07081E+04  1.09918E+04  1.14347E+03  1.45643E+04
 -4.90955E+03  1.22024E+04 -8.99284E+03  3.80901E+03 -5.52084E+03 -1.14179E+03 -1.65918E+03 -2.12935E+03
 -1.06813E+03 -9.15262E+00 -2.58586E+02  1.76176E+03 -5.38640E+03  1.82830E+03 -8.40479E+03 -7.68318E+02
 -4.81994E+03 -1.04836E+04 -6.50791E+02 -1.08781E+04  8.25076E+03 -1.00377E+04  1.15462E+04 -2.14342E+03
  1.12816E+04  5.29384E+03  5.02637E+03  1.05823E+04 -2.36487E+03  1.22279E+04 -7.77138E+03  8.33106E+03
 -1.12000E+04  6.24280E+02 -8.52674E+03 -8.03545E+03 -2.12562E+03 -9.75334E+03  5.31003E+03 -6.46086E+03
  8.54236E+03 -3.05288E+03  5.98954E+03  3.37844E+03  1.53613E+03  3.57931E+03  1.85248E+03  3.29827E+03
  2.30600E+03  9.09839E+02  2.36216E+03  1.94255E+03  4.34425E+03  5.42704E+03  2.78423E+03  5.07031E+03
 -2.53392E+03  8.33428E+03 -8.22414E+03  1.01917E+04 -1.17342E+04  2.74664E+03 -1.16538E+04 -4.89442E+03
 -6.54886E+03 -1.39559E+04  2.36258E+03 -1.30094E+04  6.00917E+03 -7.86598E+03  9.43504E+03 -3.27657E+03
  6.64887E+03  4.95748E+03  2.03261E+03  5.59851E+03 -4.40199E+03  4.41862E+03 -5.70571E+03 -2.75598E+02
 -3.52593E+03 -5.32352E+03  3.18415E+03 -5.58593E+03  5.09130E+03 -3.17142E+03  6.33097E+03  1.37810E+02
  3.37103E+03  1.66652E+03  1.52798E+03  2.38901E+03  4.04068E+02  1.79957E+03  2.80050E+03 -5.17364E+02
  1.17956E+03 -1.10132E+03  5.18150E+03  2.55453E+03  2.99156E+03  4.63681E+03  1.31141E+02  8.83896E+03
 -5.26080E+03  4.94004E+03 -7.10321E+03  1.20908E+03 -6.46871E+03 -1.70420E+03 -2.95422E+03 -5.43623E+03
  4.53022E+02 -5.20217E+03  3.04105E+03 -2.44687E+03  2.16807E+03  1.49176E+03 -1.27104E+03  4.84923E+03
 -4.43193E+03  2.66899E+03 -5.27392E+03 -2.54145E+03 -2.95104E+03 -5.76150E+03  7.90918E+02 -6.42531E+03
  4.83849E+03 -4.11359E+03  4.27384E+03  1.48649E+03  3.74010E+03  1.90979E+03  2.39061E+02  4.64039E+03
 -2.67827E+03  1.13003E+03 -4.56609E+03 -2.30874E+03  1.58372E+03 -5.40994E+03  4.34995E+03 -3.21215E+03
  6.92909E+03  2.58211E+03  6.67743E+03  5.02083E+03  2.97095E+03  7.28981E+03 -3.03843E+03  6.63452E+03
 -5.30189E+03  2.64124E+03 -5.05464E+03 -4.72463E+02 -2.18868E+03 -5.32253E+03  1.61786E+03 -5.81189E+03
  4.73381E+03 -1.50863E+03  3.61524E+03  2.38379E+03  1.41402E+03  5.94827E+03 -1.25225E+03  3.56474E+03
 -1.56507E+03  2.16955E+03 -2.60018E+03  5.12965E+02 -1.09118E+03  1.30753E+02 -1.85596E+03  8.70375E+02
 -3.35530E+03  3.88734E+03 -5.21383E+03  1.29256E+03 -7.53647E+03  7.61494E+02 -7.55312E+03 -5.56580E+03
 -4.23707E+03 -9.64371E+03  1.36421E+03 -1.20182E+04  6.48989E+03 -7.84414E+03  1.12901E+04 -3.29331E+03
  7.88755E+03  1.82249E+03  6.06266E+03  6.72790E+03  2.12676E+03  7.46210E+03 -2.97866E+03  6.09326E+03
 -3.05021E+03  1.71256E+03 -1.69506E+03  1.39601E+02 -7.98990E+02 -1.05236E+03  1.16818E+03 -1.09442E+03
 -1.38953E+03 -1.23354E+03 -1.02594E+03  3.15054E+02  2.12099E+02 -2.15183E+03 -5.27592E+02 -2.78398E+03
  4.86870E+03 -2.16012E+03  4.33509E+03  5.72185E+02  5.31321E+03  3.73899E+03  1.19925E+03  8.33771E+03
 -3.31682E+03  8.35471E+03 -6.98807E+03  3.86981E+03 -8.88164E+03 -6.00401E+01 -8.49238E+03 -5.43720E+03
 -2.00391E+03 -7.53896E+03  8.33617E+02 -6.31749E+03  5.55221E+03 -4.63122E+03  3.94133E+03 -5.05200E+02
  2.53947E+03  4.09308E+03  3.40887E+02  2.66046E+03 -3.10203E+03  1.27204E+03  4.14332E+02 -1.31793E+03
  1.08833E+03 -1.38469E+02  3.04183E+03  1.04176E+03  2.41621E+03  1.56321E+03  7.01692E+02  3.04991E+03
 -3.05226E+03  3.50288E+03 -5.33231E+03 -2.29730E+02 -3.95825E+03 -2.97803E+03  5.20432E+01 -5.65822E+03
  3.26104E+03 -6.15062E+03  5.51190E+03 -2.30008E+03  6.41749E+03  6.47527E+02  3.87237E+03  5.56654E+03
  1.14941E+03  4.67747E+03 -1.44439E+03  3.83543E+03 -3.04384E+03  3.17031E+03 -4.02463E+03  9.19536E+02
 -1.32391E+03  3.38124E+02 -2.09875E+03  3.03539E+02 -2.94374E+03  2.25423E+03 -4.77503E+03 -2.80073E+02
 -4.36195E+03 -3.17382E+03 -1.08222E+03 -3.89591E+03  1.84195E+03 -5.26227E+03  4.39530E+03 -3.20961E+03
  4.28494E+03 -9.63925E+02  2.24690E+03  2.00141E+03 -6.32656E+02  5.13509E+03 -3.36999E+03  3.36447E+03
