 $NMID ID='MM_0lb_SNR200_15hz_g40_6.RAW', FMTDAT='(8E13.5)'
 TRAMP=1., VOLUME=1. $END
  3.10370E+05  8.49099E+02  3.38627E+05  2.49863E+05  8.44587E+04  3.36898E+05 -1.31762E+05  2.50128E+05
 -1.91073E+05  8.30062E+04 -1.11178E+05 -3.28250E+04  1.07801E+03 -5.12938E+04  5.41687E+04  1.27915E+03
  3.47643E+04  5.20223E+04 -1.77915E+04  7.43346E+04 -5.95944E+04  6.27118E+04 -8.28692E+04  3.14548E+04
 -8.03062E+04 -1.14914E+04 -5.62477E+04 -5.12020E+04 -1.45173E+04 -6.88025E+04  2.59829E+04 -4.51628E+04
  3.97298E+04  3.20973E+03  1.62320E+04  4.68571E+04 -3.47039E+04  4.77050E+04 -6.51939E+04  3.40159E+02
 -5.29483E+04 -5.62401E+04 -6.85199E+03 -7.66238E+04  3.35042E+04 -5.38048E+04  4.66806E+04 -1.70960E+04
  4.24554E+04  1.06295E+04  3.08991E+04  2.43329E+04  1.49094E+04  2.94163E+04 -5.63974E+03  2.70526E+04
 -2.21999E+04  1.32185E+04 -1.80183E+04 -4.84025E+03  5.75901E+03 -8.39216E+03  2.20599E+04  1.21628E+04
  6.98339E+03  3.38650E+04 -3.17095E+04  3.55234E+04 -6.32648E+04  1.78140E+03 -5.61862E+04 -4.23351E+04
 -1.14866E+04 -6.19564E+04  3.99012E+04 -4.53047E+04  5.73142E+04 -1.70595E+03  3.33643E+04  3.14126E+04
 -6.25559E+03  3.34194E+04 -2.90961E+04  1.45835E+04 -2.82070E+04 -4.49876E+03 -1.64191E+04 -1.07454E+04
 -9.23003E+03 -1.15129E+04 -1.21280E+02 -1.80432E+04  7.23682E+03 -2.33473E+04  1.48305E+04 -1.33950E+04
  1.20083E+04  5.59529E+03 -8.77129E+03  1.29180E+04 -1.92984E+04 -4.12074E+03 -7.28454E+03 -3.18805E+04
  2.20833E+04 -4.10973E+04  4.60083E+04 -1.86477E+04  4.38041E+04  1.86465E+04  1.44079E+04  4.40461E+04
 -1.53342E+04  3.13556E+04 -2.40605E+04  9.74585E+02 -9.45424E+03 -2.61307E+04  2.04613E+04 -3.25433E+04
  3.92863E+04 -7.85928E+03  3.38008E+04  2.28986E+04  1.70758E+04  4.46394E+04 -8.33140E+03  4.72940E+04
 -2.99614E+04  3.25290E+04 -3.99022E+04  9.99233E+03 -4.00085E+04 -1.65610E+04 -2.23211E+04 -3.60474E+04
  6.49311E+03 -3.71070E+04  2.90124E+04 -1.40188E+04  2.76639E+04  1.11707E+04  3.72669E+03  1.91622E+04
 -1.23301E+04  7.01628E+03 -8.12330E+03 -8.19449E+03  4.85033E+03 -9.49017E+03  1.73140E+04  7.69811E+03
  1.16840E+04  2.18436E+04 -5.53795E+03  2.42208E+04 -2.21707E+04  1.02110E+04 -2.76444E+04 -6.24223E+03
 -1.85217E+04 -1.72359E+04 -6.83954E+03 -1.97542E+04  2.91792E+03 -1.73510E+04  1.30321E+04 -1.57960E+04
  2.34097E+04 -1.08134E+04  3.07819E+04  2.92927E+03  2.24387E+04  1.80706E+04  3.52298E+03  3.45146E+04
 -1.78149E+04  2.99522E+04 -2.76315E+04  1.03816E+04 -2.06311E+04 -1.10469E+04 -4.88681E+03 -1.31391E+04
  1.35436E+03 -2.95968E+03 -4.42309E+03  5.63054E+03 -1.55263E+04  5.50516E+03 -1.51729E+04 -6.90987E+03
 -1.03604E+04 -1.79511E+04  5.35863E+03 -2.12467E+04  1.44216E+04 -1.39638E+04  1.73396E+04 -1.89162E+03
  1.14571E+04  1.06424E+04 -1.92384E+03  1.67045E+04 -1.12090E+04  9.08304E+03 -1.68830E+04 -4.08211E+03
 -1.20693E+04 -1.69750E+04 -1.48613E+03 -2.14551E+04  9.87932E+03 -1.78944E+04  1.83305E+04 -8.01036E+03
  1.59312E+04  4.73351E+02  1.23650E+04  4.43119E+03  6.73618E+03  7.87076E+02  8.06881E+03 -9.15420E+02
  1.61516E+04  2.76990E+03  1.67161E+04  1.32708E+04  9.85985E+03  2.86192E+04 -2.22763E+03  3.11240E+04
 -1.75330E+04  2.58465E+04 -2.91051E+04  1.03458E+04 -3.02349E+04 -1.55199E+03 -2.46930E+04 -1.67773E+04
 -1.08265E+04 -2.43095E+04  8.51524E+03 -2.21541E+04  1.94173E+04 -1.16997E+04  1.82429E+04  5.42728E+03
  7.30945E+03  1.23137E+04 -7.54923E+03  1.13496E+04 -1.39416E+04  2.17994E+03 -1.10043E+04 -9.99475E+03
  1.81618E+02 -1.36245E+04  7.07810E+03 -1.19272E+04  9.00146E+03 -1.01339E+03  1.00161E+03  5.43857E+03
 -6.08158E+03  2.93055E+03 -3.67506E+03 -5.73268E+03  9.20291E+00 -1.24529E+04  8.73003E+03 -1.27559E+04
  1.60114E+04 -5.62322E+03  1.47547E+04  3.68021E+03  1.32676E+04  1.12460E+04  6.32009E+03  1.70516E+04
 -1.45602E+03  1.88570E+04 -1.10144E+04  1.23420E+04 -1.38277E+04  2.60935E+03 -9.86605E+03 -3.00621E+03
 -4.90043E+03 -4.09836E+03 -1.21322E+03  1.18225E+03 -2.01827E+03  3.03171E+03 -4.93567E+03  3.74536E+03
 -1.02095E+04 -7.27693E+02 -8.67939E+03 -9.56850E+03 -3.71128E+03 -1.40070E+04  4.77247E+03 -1.00009E+04
  9.09152E+03 -3.77718E+03  5.52639E+03  2.99071E+03 -4.42612E+02  4.06248E+03 -4.87228E+03 -4.66534E+02
 -5.13357E+03 -6.44812E+03 -1.16402E+03 -1.02643E+04  5.63023E+03 -1.03033E+04  1.30499E+04 -5.58939E+03
  1.45277E+04  1.11877E+03  1.05777E+04  8.00092E+03  2.61500E+03  1.20562E+04 -5.95324E+03  9.53169E+03
 -8.05062E+03  3.19701E+03 -3.39857E+03 -1.65024E+03  1.99353E+03 -1.61907E+03  6.12481E+03 -9.53111E+02
  5.05040E+03  4.06287E+03  1.56215E+03  8.07471E+03 -5.31721E+03  7.43915E+03 -1.09854E+04  2.44340E+03
 -6.98413E+03 -5.21099E+03 -8.70071E+01 -8.00872E+03  5.88826E+03 -3.40121E+03  4.92273E+03  8.62572E+02
  4.61404E+02  4.69828E+03 -6.25629E+03  6.53795E+03 -6.59454E+03  3.84672E+03 -7.10573E+03 -1.88789E+03
 -5.36561E+03 -8.08392E+03  1.88936E+03 -8.42591E+03  8.50213E+03 -5.56441E+03  9.07134E+03  1.48084E+03
  5.88167E+03  7.67582E+03 -1.19867E+02  8.74360E+03 -6.27067E+03  6.06178E+03 -6.39614E+03 -3.84898E+02
 -8.31437E+03 -4.58530E+03 -3.90835E+02 -7.01476E+03  4.31727E+03 -4.59326E+03  4.80250E+03 -2.27450E+03
  2.36922E+03  3.87933E+02 -1.75913E+02  1.90433E+03  1.03969E+03 -1.35634E+03  9.85143E+02 -2.73706E+03
  5.82620E+03 -1.61176E+03  7.69109E+03  1.51209E+03  8.25250E+03  5.62874E+03  6.70096E+03  9.33419E+03
 -2.46292E+03  1.16825E+04 -1.02027E+04  8.51256E+03 -1.34974E+04  2.51851E+03 -1.03333E+04 -4.37787E+03
 -5.00527E+03 -9.52689E+03  2.05465E+02 -6.81999E+03  2.27604E+03 -4.10754E+03  1.60961E+03 -3.06628E+03
  1.34900E+03 -2.72890E+03  2.58483E+03 -1.90692E+03  3.47737E+03 -3.00134E+03  4.04246E+03  4.00179E+02
  5.96898E+03  2.90388E+02  2.06946E+03  4.57537E+03 -1.90129E+03  4.17754E+03 -5.56268E+03  3.70035E+03
 -6.26932E+03 -5.37731E+02 -3.71019E+03 -4.29617E+03 -4.80320E+02 -7.36780E+03  4.10427E+03 -7.67236E+03
  7.48677E+03 -4.38097E+03  1.01928E+04  2.03480E+03  7.33615E+03  7.10969E+03  1.96529E+03  8.51515E+03
 -2.99703E+03  8.41573E+03 -5.01221E+03  2.42736E+03 -3.90008E+03 -1.17167E+03 -7.92105E+02 -1.22251E+03
 -2.59784E+02  6.03579E+02 -1.69445E+03  2.60826E+03 -2.40019E+03  2.37670E+02 -5.64126E+03 -5.69200E+02
 -3.98407E+03 -5.40197E+03  1.67930E+03 -8.00090E+03  5.73294E+03 -5.64485E+03  6.29410E+03 -9.48119E+02
  5.75314E+03  2.87564E+03  3.25841E+03  6.31340E+03 -9.36726E+02  5.94279E+03 -4.84009E+03  4.19307E+03
 -5.98097E+03  1.17172E+03 -5.71899E+03 -4.66341E+03 -6.67582E+02 -4.51454E+03  2.03566E+03 -3.89093E+03
  4.13646E+03 -1.45191E+02  2.16319E+03  4.61362E+02  9.93656E+02  2.97221E+03  1.49647E+03  8.56649E+02
  2.02202E+03  9.35046E+02  1.00768E+03  1.58743E+03  1.18958E+03  3.44641E+03  1.38283E+03  3.78171E+03
 -1.83493E+03  5.43306E+03 -3.74531E+03  5.89723E+03 -5.71577E+03  1.13582E+03 -7.70393E+03 -1.16672E+03
 -3.31128E+03 -6.90098E+03  1.33616E+03 -7.59521E+03  3.77898E+03 -3.67261E+03  5.07281E+03 -1.41137E+03
  3.09228E+03  2.22170E+03  1.28202E+03  3.08106E+03 -1.89676E+03  2.55590E+03 -2.07351E+03  3.92659E+02
 -1.39589E+03 -2.44961E+03  1.05379E+03 -2.97669E+03  2.00689E+03 -4.72728E+02  2.16390E+03  7.79955E+02
 -1.06689E+02  2.02579E+03  9.47911E+02  6.86237E+02 -3.72138E+02  1.77795E+03  2.16401E+02 -1.20084E+03
  1.44457E+03 -4.83232E+02  2.97346E+03  1.46081E+03  1.21659E+03  3.52742E+03 -2.48211E+02  4.18025E+03
 -3.45277E+03  3.00553E+03 -4.58242E+03 -7.52408E+02 -2.58372E+03 -2.86035E+03 -8.59361E+02 -1.01454E+03
  4.35998E+02 -3.38222E+03  9.88277E+02 -1.03733E+03  2.13509E+03  1.82736E+03 -1.16597E+03  2.41257E+03
 -2.16497E+03  1.79286E+03 -1.65227E+03 -2.99813E+03 -1.66737E+03 -2.96089E+03  1.52850E+03 -4.05525E+03
  2.39441E+03 -8.43878E+02  2.99923E+03 -1.76878E+03  3.07845E+03  4.25377E+02  1.28532E+03  1.93059E+03
 -3.78221E+02  5.29839E+02 -1.79578E+03 -1.82806E+03  8.32787E+02 -2.29198E+03  2.71735E+03 -2.91194E+03
  1.88273E+03  1.48022E+03  4.09153E+03  2.44937E+03  8.33383E+02  3.89229E+03 -1.40249E+03  3.33932E+03
 -2.17939E+03  3.57678E+02 -2.37951E+03 -2.98244E+02 -1.95681E+03 -1.56797E+03  2.24743E+02 -1.64202E+03
  2.42296E+03 -1.30806E+03  2.20553E+03  8.41874E+02  4.42751E+02  2.83948E+03  1.03657E+03  1.97702E+03
 -9.08708E+02  8.84982E+02 -1.28549E+03  2.16538E+03  3.27944E+02  6.95936E+02 -7.17347E+02 -1.48820E+02
 -1.76312E+02  1.50897E+03 -3.21366E+03  1.60215E+03 -3.61554E+03  3.83366E+02 -5.09255E+03 -2.20778E+03
 -2.77639E+03 -5.66737E+03  1.32061E+03 -5.85221E+03  2.97394E+03 -4.52412E+03  4.58024E+03 -1.57918E+03
  5.14449E+03  1.45357E+02  1.69485E+03  1.27956E+03 -5.60518E+02  2.78437E+03 -1.99836E+03  2.40075E+03
 -1.81299E+03  8.04135E+02 -3.88244E+02 -9.47404E+02 -3.99666E+02  1.21117E+02 -8.29574E+02  3.86417E+01
 -6.15188E+02  2.85876E+02 -6.07910E+02  7.94533E+02  2.91180E+01 -1.03301E+03 -1.60172E+02 -2.07007E+03
  1.79447E+03 -6.18212E+02  2.79709E+03  1.08731E+03  1.78312E+03  2.67155E+03 -5.44286E+02  3.80133E+03
 -1.35529E+03  3.69148E+03 -3.26159E+03  1.58352E+03 -4.25294E+03 -1.48837E+03 -2.86543E+03 -2.63559E+03
 -1.92643E+03 -2.79256E+03  4.77654E+02 -3.57607E+03  1.86084E+03 -1.79845E+03  1.74985E+03  2.50118E+01
  9.96094E+01  1.15912E+03 -3.44711E+02  1.89928E+03 -3.16021E+02 -1.18967E+03  1.08328E+03 -1.15029E+03
  6.48777E+02  6.13063E+02  8.58520E+02  1.16021E+03  2.50954E+02  1.23271E+03  3.43991E+02  1.51166E+03
 -1.23520E+03  1.59481E+03 -1.45540E+03  7.89426E+02 -1.76173E+03 -5.93492E+02 -1.20280E+03 -2.76742E+03
  1.40170E+03 -2.52901E+03  1.43905E+03 -6.63270E+02  2.25255E+03  9.49467E+02  1.53477E+03  1.66373E+03
  9.40262E+01  1.34696E+03 -4.26292E+02  9.31522E+02 -1.78964E+03  1.30789E+03 -1.48903E+03  1.10838E+03
 -4.27602E+02  8.62965E+01 -9.67231E+02  1.03380E+03 -5.78454E+02  6.13586E+02 -1.54773E+03 -9.21862E+02
 -1.88233E+03 -6.41542E+02 -5.08640E+02 -2.75084E+03  1.05293E+03 -3.22344E+03  2.03199E+03 -1.14539E+03
  1.77275E+03  1.29682E+03  1.16709E+03  1.16632E+03  1.11923E+03  9.37683E+02 -7.66632E+02  5.85307E+02
