 $NMID ID='MM_0lb_SNR200_8hz_g40_43.RAW', FMTDAT='(8E13.5)'
 TRAMP=1., VOLUME=1. $END
  3.09911E+05  1.60262E+03  3.37548E+05  2.49932E+05  8.45448E+04  3.38969E+05 -1.31504E+05  2.50446E+05
 -1.92092E+05  8.22702E+04 -1.12492E+05 -3.22939E+04 -8.71538E+01 -5.10772E+04  5.42134E+04 -8.46584E+01
  3.59411E+04  5.20757E+04 -1.75513E+04  7.68177E+04 -6.10363E+04  6.60838E+04 -8.51831E+04  3.16374E+04
 -8.12639E+04 -1.14082E+04 -5.97035E+04 -5.26447E+04 -1.32930E+04 -7.04229E+04  2.88561E+04 -4.75976E+04
  4.16741E+04  4.70704E+03  1.67050E+04  4.77340E+04 -3.41157E+04  4.77347E+04 -6.76452E+04  1.28236E+01
 -5.51696E+04 -5.89322E+04 -8.01362E+03 -7.68435E+04  3.49291E+04 -5.71273E+04  4.93183E+04 -1.74064E+04
  4.41393E+04  1.04165E+04  3.31412E+04  2.51468E+04  1.48728E+04  3.04441E+04 -6.37346E+03  2.66994E+04
 -2.32581E+04  1.28411E+04 -1.77018E+04 -5.55176E+03  6.63563E+03 -8.27654E+03  2.38247E+04  1.35656E+04
  7.95850E+03  3.84396E+04 -3.40214E+04  3.74463E+04 -6.59668E+04  3.42634E+03 -5.87762E+04 -4.52076E+04
 -1.22331E+04 -6.55041E+04  4.13224E+04 -4.70116E+04  6.00416E+04 -4.10206E+03  3.68385E+04  3.27932E+04
 -5.51114E+03  4.05410E+04 -3.13437E+04  1.82847E+04 -3.31666E+04 -4.00882E+03 -2.13849E+04 -1.21153E+04
 -8.08257E+03 -1.42426E+04  5.69474E+02 -1.90392E+04  9.06014E+03 -2.22834E+04  1.50252E+04 -1.37470E+04
  8.61931E+03  6.84130E+03 -1.14472E+04  1.12389E+04 -2.32975E+04 -6.02322E+03 -8.62873E+03 -3.80699E+04
  2.41754E+04 -4.79717E+04  5.31102E+04 -2.11699E+04  4.83450E+04  1.95404E+04  1.68358E+04  4.78959E+04
 -1.78046E+04  3.73381E+04 -2.56994E+04  2.36112E+03 -1.00380E+04 -3.00447E+04  1.96086E+04 -3.64828E+04
  4.46662E+04 -1.15401E+04  4.02853E+04  2.44656E+04  2.14073E+04  5.34549E+04 -7.90514E+03  5.68720E+04
 -3.68549E+04  3.70736E+04 -4.67745E+04  1.07149E+04 -4.79050E+04 -1.83025E+04 -2.49623E+04 -4.20686E+04
  7.84219E+03 -4.12571E+04  3.60289E+04 -1.65921E+04  3.24733E+04  1.07082E+04  4.80454E+03  2.06063E+04
 -1.28889E+04  1.01748E+04 -9.63704E+03 -5.44442E+03  6.00362E+03 -1.22073E+04  1.92984E+04  5.43162E+03
  1.57923E+04  2.21744E+04 -4.76643E+03  2.78491E+04 -2.41550E+04  1.34418E+04 -3.14988E+04 -2.07361E+03
 -2.61369E+04 -1.80753E+04 -1.09700E+04 -2.45663E+04  5.15020E+03 -2.52435E+04  1.96715E+04 -2.39439E+04
  3.27611E+04 -1.57253E+04  3.93072E+04  6.60965E+03  2.78471E+04  2.40755E+04  3.85982E+03  4.13909E+04
 -1.93574E+04  3.47278E+04 -3.00414E+04  1.01556E+04 -2.25781E+04 -9.42779E+03 -4.88361E+03 -1.28811E+04
 -1.73949E+02 -2.04343E+03 -7.82198E+03  1.01323E+04 -2.11519E+04  5.42009E+03 -1.99746E+04 -1.00017E+04
 -1.20292E+04 -2.42775E+04  6.96970E+03 -2.80047E+04  1.76808E+04 -2.01484E+04  2.13844E+04 -3.39701E+03
  1.53534E+04  1.43540E+04 -1.02205E+03  2.30339E+04 -1.51431E+04  1.24693E+04 -2.30461E+04 -4.27549E+03
 -1.70097E+04 -2.13503E+04 -1.20160E+03 -2.82623E+04  1.21400E+04 -2.46756E+04  2.38485E+04 -1.32205E+04
  2.17115E+04 -7.86125E+02  1.66118E+04  5.46081E+03  9.86105E+03  2.80668E+02  1.36662E+04 -2.06087E+03
  2.12228E+04  3.16327E+03  2.43935E+04  1.69577E+04  1.65233E+04  3.82654E+04 -3.10097E+03  4.39648E+04
 -2.66898E+04  3.76767E+04 -4.27143E+04  1.87303E+04 -4.52219E+04 -2.59652E+03 -3.57190E+04 -2.75932E+04
 -1.39911E+04 -3.87074E+04  1.32981E+04 -3.33043E+04  2.88138E+04 -1.39879E+04  2.26294E+04  8.60355E+03
  7.99490E+03  1.81934E+04 -1.17468E+04  1.47826E+04 -1.98099E+04  1.41847E+03 -1.65036E+04 -1.31419E+04
 -7.70158E+02 -2.08835E+04  1.04870E+04 -1.42433E+04  1.30243E+04  6.62344E+02  5.56412E+03  8.41046E+03
 -7.17518E+03  4.31308E+03 -8.80247E+03 -8.52112E+03 -1.95835E+03 -1.84849E+04  1.24880E+04 -2.11224E+04
  2.26185E+04 -9.59861E+03  2.77589E+04  3.86406E+03  2.27863E+04  1.81101E+04  9.77864E+03  3.16888E+04
 -3.64513E+03  3.15944E+04 -2.04572E+04  1.97257E+04 -2.32644E+04  4.16467E+03 -1.60648E+04 -5.28380E+03
 -7.25991E+03 -8.10679E+03 -1.33400E+03  7.82360E+02 -2.61195E+03  5.65610E+03 -7.73317E+03  6.14746E+03
 -1.55576E+04 -2.47357E+03 -1.72638E+04 -1.16078E+04 -6.31756E+03 -1.88445E+04  7.63281E+03 -1.62657E+04
  1.40585E+04 -6.08880E+03  8.82356E+03  2.94520E+03 -4.30531E+02  4.43321E+03 -8.26897E+03  9.37212E+01
 -7.48097E+03 -9.56354E+03 -1.95779E+03 -1.55421E+04  8.45268E+03 -1.64939E+04  2.02975E+04 -7.90020E+03
  2.26118E+04  2.83941E+03  1.96588E+04  1.37922E+04  2.22367E+03  2.06634E+04 -1.02423E+04  1.53379E+04
 -1.28528E+04  3.80122E+03 -5.86289E+03 -3.41364E+03  2.65210E+03 -6.28661E+03  8.69255E+03 -1.58661E+03
  7.42795E+03  7.52363E+03  2.17792E+03  1.33741E+04 -9.75733E+03  1.37858E+04 -1.59616E+04  2.58275E+03
 -1.20504E+04 -8.18852E+03  8.31917E+02 -1.41213E+04  8.42864E+03 -8.42333E+03  8.96855E+03  3.76313E+03
  3.36101E+03  1.05469E+04 -8.10839E+03  1.15848E+04 -1.35748E+04  4.50339E+03 -1.57427E+04 -4.42708E+03
 -8.57848E+03 -1.68157E+04  4.29187E+03 -1.83902E+04  1.56761E+04 -9.73389E+03  1.68854E+04  2.58232E+03
  1.06961E+04  1.39542E+04 -6.94336E+02  1.53952E+04 -1.34170E+04  8.23248E+03 -1.12532E+04 -1.22652E+03
 -1.18531E+04 -8.72022E+03 -1.42287E+02 -1.42547E+04  7.14001E+03 -1.01517E+04  8.16558E+03 -5.65364E+03
  5.31782E+03  2.29615E+03 -1.67054E+03  1.39062E+03 -3.20712E+02 -3.59349E+03  3.70582E+03 -7.75655E+03
  1.30407E+04 -5.90417E+03  1.67360E+04  2.73105E+03  1.72215E+04  1.26986E+04  1.15182E+04  2.33467E+04
 -5.72164E+03  2.43552E+04 -2.17366E+04  1.80108E+04 -2.68009E+04  2.16202E+03 -2.30454E+04 -8.62103E+03
 -8.50482E+03 -1.93842E+04 -1.41136E+03 -1.50548E+04  4.35819E+03 -6.92327E+03  5.21462E+03 -5.85039E+03
  3.27368E+03 -3.09220E+03  3.62487E+03 -4.89176E+03  5.42510E+03 -4.91123E+03  7.59761E+03  2.41095E+02
  1.25985E+04  3.00124E+03  3.80524E+03  7.85365E+03 -5.37224E+02  1.14083E+04 -1.12783E+04  1.07527E+04
 -1.49702E+04 -1.09428E+03 -1.18385E+04 -1.22551E+04 -2.19517E+03 -1.77802E+04  7.49574E+03 -1.69691E+04
  1.66530E+04 -7.99022E+03  1.91320E+04  4.45275E+03  1.34829E+04  1.31364E+04  7.94105E+02  1.93865E+04
 -8.11353E+03  1.51997E+04 -1.19192E+04  7.62865E+03 -7.37260E+03 -1.56399E+03 -3.02308E+03 -2.15601E+03
 -2.97599E+03  1.33236E+03 -4.12979E+03  3.40774E+03 -8.21172E+03  3.75830E+03 -1.08219E+04 -1.71571E+03
 -6.31295E+03 -9.87879E+03 -8.29197E+02 -1.41842E+04  9.54628E+03 -1.32458E+04  1.60865E+04 -2.59418E+03
  1.52931E+04  8.86436E+03  8.28356E+03  1.33408E+04 -4.81434E+03  1.69908E+04 -1.08608E+04  1.02322E+04
 -1.43141E+04 -8.02901E+02 -1.07871E+04 -9.60734E+03 -1.13802E+03 -1.28856E+04  5.44799E+03 -1.06852E+04
  1.00015E+04 -3.88812E+03  5.58059E+03  3.21979E+03  1.83740E+03  5.93099E+03  3.34931E+03 -3.27007E+02
  2.13573E+03  7.41574E+02  3.69399E+03  1.95564E+03  5.05437E+03  6.33141E+03  4.86874E+03  8.49368E+03
 -2.37872E+03  1.18204E+04 -1.16574E+04  1.22227E+04 -1.65706E+04  3.02113E+03 -1.57824E+04 -5.73307E+03
 -9.20738E+03 -1.56738E+04  3.93727E+03 -1.73568E+04  1.05757E+04 -1.18842E+04  1.26757E+04 -3.34724E+03
  1.00392E+04  4.97540E+03  1.83550E+03  8.98270E+03 -4.10380E+03  8.01896E+03 -7.89480E+03 -5.30113E+02
 -3.42767E+03 -6.45652E+03  3.80802E+03 -7.27967E+03  6.94935E+03 -4.85732E+03  6.76282E+03  2.27602E+03
  3.32250E+03  3.28714E+03  1.32613E+03  3.54832E+03 -2.14502E+03  8.37469E+02  2.44752E+02 -9.53047E+02
  3.02391E+03  4.21216E+02  5.02519E+03  1.52769E+03  4.90918E+03  7.86548E+03 -6.84616E+02  1.05659E+04
 -7.29678E+03  7.96049E+03 -1.08650E+04  1.47348E+03 -8.71487E+03 -4.28958E+03 -3.36731E+03 -8.56080E+03
  2.39513E+03 -5.97808E+03  5.37625E+03 -2.44664E+03  3.27454E+03  3.67086E+03 -2.24357E+03  5.92899E+03
 -6.47039E+03  3.24804E+03 -8.07226E+03 -3.48128E+03 -5.80180E+03 -8.52175E+03  2.75360E+02 -9.29616E+03
  5.84726E+03 -5.55577E+03  5.19844E+03  2.32195E+02  3.89250E+03  9.68293E+02  5.43804E+02  5.27803E+03
 -2.57474E+03  1.50577E+03 -4.82896E+03 -1.91097E+03  1.76774E+03 -7.55959E+03  9.11311E+03 -6.53297E+03
  8.90389E+03 -2.61300E+02  1.07458E+04  6.06668E+03  2.01118E+03  1.11362E+04 -2.73220E+03  9.80313E+03
 -8.61561E+03  4.15879E+03 -8.28734E+03 -1.03621E+03 -7.04179E+03 -8.04615E+03  2.43952E+03 -7.38817E+03
  7.13880E+03 -4.68757E+03  6.54608E+03  3.44254E+03  2.04801E+03  5.69761E+03 -9.31066E+02  5.48553E+03
 -3.20279E+03  4.38211E+03 -3.07886E+03  1.91043E+03 -2.08414E+03  6.50877E+02 -3.25144E+03  2.61765E+03
 -2.56197E+03  4.96704E+03 -6.48050E+03  3.98434E+03 -1.04271E+04  1.06218E+03 -1.28675E+04 -6.14124E+03
 -6.04007E+03 -1.40671E+04  2.35235E+03 -1.63966E+04  1.26299E+04 -1.38650E+04  1.66377E+04 -5.14576E+03
  1.38946E+04  2.86954E+03  8.93201E+03  1.01115E+04  8.36774E+01  1.13509E+04 -5.93317E+03  9.63207E+03
 -5.94670E+03  4.03009E+03 -4.78026E+03 -2.27525E+03 -1.29369E+03 -1.53644E+03 -5.38881E+02 -1.13700E+02
 -2.65275E+03 -6.20262E+02 -1.80767E+03 -2.50745E+03 -2.97340E+01 -2.67264E+03 -1.85445E+02 -3.93445E+03
  4.39345E+03 -3.33283E+03  7.52700E+03 -1.21545E+03  8.32649E+03  6.77700E+03  1.52496E+03  1.12518E+04
 -6.84593E+03  1.28202E+04 -1.34651E+04  9.04307E+03 -1.48866E+04 -7.86963E+02 -9.90737E+03 -8.45970E+03
 -5.96234E+03 -1.25699E+04  2.95034E+03 -9.90197E+03  8.47727E+03 -4.53685E+03  8.79261E+03 -4.84734E+02
  4.48659E+03  3.20970E+03 -5.03313E+02  3.68383E+03 -1.91347E+03 -7.43524E+02  1.12330E+03 -7.31059E+02
  4.37564E+03 -2.27677E+03  4.49549E+03  1.88954E+03  3.66800E+03  5.26483E+03  5.44392E+02  5.49379E+03
 -4.27444E+03  5.93336E+03 -9.23244E+03  1.45340E+03 -9.07076E+03 -5.64588E+03 -1.14189E+03 -1.00267E+04
  5.19695E+03 -7.79715E+03  9.28047E+03 -2.49186E+03  8.18531E+03  2.53911E+03  5.13779E+03  7.20455E+03
  1.85884E+03  6.63292E+03 -2.58296E+03  5.73057E+03 -5.09720E+03  4.01126E+03 -4.16934E+03  9.05395E+02
 -2.94878E+03 -2.32976E+03 -2.42609E+03  4.99996E+02 -3.93134E+03  1.81116E+03 -5.41098E+03 -1.92591E+03
 -7.24166E+03 -3.31948E+03 -1.57990E+03 -8.79252E+03  1.42996E+03 -8.82209E+03  6.93857E+03 -5.07529E+03
  9.50497E+03  1.85793E+03  4.00556E+03  6.82411E+03 -1.65575E+03  9.05276E+03 -7.73417E+03  4.98472E+03
