 $NMID ID='MM_0lb_SNR200_10hz_g45_76.RAW', FMTDAT='(8E13.5)'
 TRAMP=1., VOLUME=1. $END
  3.08964E+05  3.50481E+02  3.38822E+05  2.51534E+05  8.44883E+04  3.37483E+05 -1.33593E+05  2.50932E+05
 -1.90287E+05  8.29249E+04 -1.12340E+05 -3.33600E+04  4.30343E+02 -5.11518E+04  5.42167E+04 -5.53545E+02
  3.63008E+04  5.34069E+04 -1.65047E+04  7.53448E+04 -6.22959E+04  6.45418E+04 -8.55164E+04  3.18319E+04
 -8.17535E+04 -1.13819E+04 -5.80358E+04 -5.22148E+04 -1.42197E+04 -6.96961E+04  2.80489E+04 -4.59254E+04
  4.12085E+04  1.75702E+03  1.60439E+04  4.71110E+04 -3.48924E+04  4.78730E+04 -6.82083E+04  8.60199E+02
 -5.46618E+04 -5.80278E+04 -7.54203E+03 -7.77165E+04  3.41624E+04 -5.75554E+04  5.04478E+04 -1.88856E+04
  4.36506E+04  1.15055E+04  3.32450E+04  2.54108E+04  1.57797E+04  2.99435E+04 -6.49451E+03  2.70740E+04
 -2.16074E+04  1.19894E+04 -1.86131E+04 -4.97146E+03  5.00621E+03 -6.55556E+03  2.32980E+04  1.35645E+04
  6.04370E+03  3.59551E+04 -3.40680E+04  3.72668E+04 -6.57424E+04  1.60418E+03 -5.93494E+04 -4.49248E+04
 -1.35270E+04 -6.58022E+04  3.87952E+04 -4.56197E+04  5.95661E+04 -2.37335E+03  3.59898E+04  3.38811E+04
 -5.72615E+03  3.84089E+04 -3.10265E+04  1.78245E+04 -3.38777E+04 -3.64203E+03 -1.76666E+04 -1.21412E+04
 -8.69664E+03 -1.51906E+04 -1.49391E+03 -1.90813E+04  8.29551E+03 -2.25391E+04  1.56835E+04 -1.33161E+04
  1.20479E+04  5.83880E+03 -9.94557E+03  1.19603E+04 -2.24639E+04 -6.39688E+03 -9.38837E+03 -3.54015E+04
  2.49686E+04 -4.63808E+04  4.99723E+04 -2.00298E+04  4.68316E+04  2.10666E+04  1.61584E+04  4.71941E+04
 -1.56347E+04  3.67605E+04 -2.71352E+04  2.00708E+03 -1.07890E+04 -2.85414E+04  2.15232E+04 -3.58599E+04
  4.19953E+04 -9.23961E+03  3.64724E+04  2.56944E+04  2.06469E+04  5.03555E+04 -8.89556E+03  5.46268E+04
 -3.34260E+04  3.65343E+04 -4.55034E+04  1.01979E+04 -4.54243E+04 -1.79344E+04 -2.64416E+04 -4.13288E+04
  7.89322E+03 -3.95833E+04  3.35308E+04 -1.64892E+04  3.17532E+04  1.08293E+04  4.68474E+03  2.08821E+04
 -1.42410E+04  8.37447E+03 -1.01140E+04 -7.48642E+03  6.32131E+03 -9.27495E+03  1.83714E+04  5.71927E+03
  1.47185E+04  2.13543E+04 -6.25488E+03  2.67498E+04 -2.34692E+04  1.28233E+04 -3.18641E+04 -4.50141E+03
 -2.40070E+04 -1.72770E+04 -1.17640E+04 -2.42731E+04  4.16491E+03 -2.41200E+04  1.95669E+04 -2.06268E+04
  3.03501E+04 -1.37475E+04  3.54769E+04  3.66183E+03  2.55062E+04  2.37351E+04  5.34994E+03  3.99796E+04
 -1.96683E+04  3.22142E+04 -3.03249E+04  1.19435E+04 -2.24254E+04 -9.52717E+03 -3.51783E+03 -1.42936E+04
  8.94769E+02 -2.71570E+03 -5.86092E+03  7.23266E+03 -1.78968E+04  4.28611E+03 -2.02358E+04 -9.27306E+03
 -1.26460E+04 -2.29221E+04  6.91389E+03 -2.63263E+04  1.76249E+04 -1.83362E+04  2.12455E+04 -1.37955E+03
  1.26474E+04  1.54897E+04 -2.01990E+03  2.26825E+04 -1.46323E+04  1.35359E+04 -2.21436E+04 -4.53314E+03
 -1.65058E+04 -1.95304E+04 -1.48367E+03 -2.66652E+04  1.07301E+04 -2.14716E+04  2.21268E+04 -1.18067E+04
  2.00017E+04 -4.51547E+02  1.45603E+04  4.87591E+03  7.96552E+03  1.15344E+03  1.08455E+04 -2.71218E+03
  2.19405E+04  3.01973E+03  2.18799E+04  1.67388E+04  1.62561E+04  3.45418E+04  8.05857E+01  4.15912E+04
 -2.44984E+04  3.35710E+04 -4.04829E+04  1.69431E+04 -4.17509E+04 -3.40787E+03 -3.24718E+04 -2.43730E+04
 -1.49446E+04 -3.31201E+04  1.14013E+04 -3.03541E+04  2.45565E+04 -1.37731E+04  2.34933E+04  7.41184E+03
  7.03998E+03  1.88376E+04 -9.18909E+03  1.41098E+04 -1.85734E+04  1.20450E+03 -1.39661E+04 -1.23228E+04
 -6.94403E+01 -1.84440E+04  9.53420E+03 -1.32337E+04  1.17888E+04 -4.09172E+02  2.49607E+03  8.51837E+03
 -8.14489E+03  4.83705E+03 -8.27405E+03 -6.22815E+03 -1.73058E+03 -1.70286E+04  1.07745E+04 -1.83558E+04
  2.00310E+04 -1.05321E+04  2.25343E+04  2.70445E+03  2.22333E+04  1.78176E+04  9.66918E+03  2.60372E+04
 -4.73063E+03  2.90854E+04 -1.89185E+04  1.67510E+04 -2.12231E+04  3.44516E+03 -1.39498E+04 -6.17198E+03
 -5.83006E+03 -7.09629E+03 -2.01431E+03  1.15363E+03 -1.68365E+03  2.43553E+03 -6.26688E+03  5.42184E+03
 -1.45285E+04 -4.26483E+02 -1.45255E+04 -1.12671E+04 -3.16619E+03 -1.76565E+04  5.05825E+03 -1.44746E+04
  1.05450E+04 -4.93484E+03  7.62221E+03  4.20291E+03  6.98568E+02  5.20139E+03 -6.16163E+03 -9.06524E+01
 -7.33388E+03 -8.63813E+03 -8.60425E+02 -1.28240E+04  7.75668E+03 -1.62075E+04  1.98073E+04 -8.14626E+03
  2.06809E+04  3.29188E+03  1.65492E+04  1.34517E+04  3.01489E+03  1.79236E+04 -8.47480E+03  1.44896E+04
 -1.21907E+04  4.13661E+03 -6.90527E+03 -2.52668E+03  9.22967E+02 -2.56985E+03  7.69916E+03 -1.49129E+03
  5.63505E+03  6.26268E+03  1.60414E+03  1.23582E+04 -7.48795E+03  1.24359E+04 -1.32735E+04  2.31712E+03
 -9.68991E+03 -6.95171E+03 -6.98139E+02 -1.30708E+04  5.99811E+03 -5.95728E+03  8.86840E+03  2.53898E+03
  2.10177E+03  9.56659E+03 -8.66129E+03  9.62597E+03 -1.19752E+04  4.55528E+03 -1.17768E+04 -3.50660E+03
 -6.59423E+03 -1.44180E+04  3.44569E+03 -1.65341E+04  1.35215E+04 -9.21587E+03  1.36032E+04  3.18854E+03
  8.89945E+03  1.21874E+04 -5.32017E+02  1.42635E+04 -9.77842E+03  7.03739E+03 -1.22005E+04 -4.11615E+02
 -9.00007E+03 -8.92823E+03 -1.81280E+03 -1.09301E+04  5.26003E+03 -7.69733E+03  7.89752E+03 -2.60254E+03
  3.48108E+03  2.21458E+03 -6.99165E+01  2.50476E+03 -2.17815E+03 -1.93522E+03  2.40027E+03 -7.99059E+03
  9.99717E+03 -3.76568E+03  1.32055E+04  1.52300E+03  1.26293E+04  8.19466E+03  1.04218E+04  1.82731E+04
 -2.17544E+03  2.20153E+04 -1.83697E+04  1.48523E+04 -2.12954E+04  3.74575E+03 -1.86934E+04 -6.93270E+03
 -1.09026E+04 -1.58299E+04 -1.83612E+02 -1.37349E+04  4.29264E+03 -7.60575E+03  5.69641E+03 -4.99049E+03
  4.41829E+03 -3.80039E+03  3.61196E+03 -4.19833E+03  5.77681E+03 -2.32985E+03  5.55198E+03 -7.59814E+02
  9.42887E+03  2.16252E+03  4.26146E+03  8.80776E+03 -2.62201E+03  8.20693E+03 -9.46889E+03  7.18525E+03
 -1.10728E+04 -2.02160E+02 -6.86531E+03 -8.10488E+03 -7.91124E+02 -1.44442E+04  9.42198E+03 -1.27800E+04
  1.33538E+04 -7.82085E+03  1.65096E+04  1.21899E+03  1.11504E+04  1.19799E+04  4.76629E+02  1.53294E+04
 -6.59198E+03  1.26714E+04 -9.02910E+03  4.46533E+03 -4.17347E+03 -1.20567E+02 -2.46476E+03 -1.83654E+03
 -1.56168E+03  1.56031E+02 -1.38235E+03  2.04206E+03 -6.21349E+03  3.21636E+03 -7.66456E+03 -2.19747E+03
 -6.55783E+03 -9.48086E+03  1.80491E+02 -1.35808E+04  8.17145E+03 -1.30950E+04  1.22323E+04 -3.98484E+03
  1.23155E+04  6.73810E+03  4.69895E+03  1.07502E+04 -3.80593E+03  1.19821E+04 -8.88770E+03  8.72624E+03
 -1.34647E+04  1.83613E+03 -9.99748E+03 -8.77385E+03 -2.21750E+03 -1.04051E+04  5.39818E+03 -7.67588E+03
  7.61491E+03 -2.80347E+03  5.33937E+03  2.27552E+03  1.39020E+03  3.96452E+03  1.39624E+03  1.65424E+03
  2.23833E+03  6.96135E+02  3.06850E+03  3.52005E+03  4.60978E+03  3.26077E+03  3.00948E+03  5.52924E+03
 -2.85429E+03  1.01383E+04 -9.06454E+03  9.59392E+03 -1.21326E+04  3.46495E+03 -1.32129E+04 -6.20303E+03
 -6.41590E+03 -1.26364E+04  9.63997E+02 -1.36340E+04  7.92157E+03 -8.51675E+03  9.82295E+03 -4.02819E+03
  7.54597E+03  5.83380E+03  2.71670E+03  7.69729E+03 -4.93347E+03  4.73853E+03 -5.19611E+03  6.87769E+02
 -3.95671E+03 -4.27029E+03  3.16027E+03 -6.49683E+03  5.94241E+03 -2.36507E+03  5.37432E+03  9.60899E+02
  3.76010E+03  2.40692E+03  1.01518E+03  2.11202E+03 -7.51500E+02  6.71723E+02  2.20318E+03 -1.05359E+02
  2.68398E+03 -7.56741E+02  5.85212E+03  2.48771E+03  3.45685E+03  8.60767E+03 -2.06570E+03  9.22148E+03
 -5.75052E+03  7.73665E+03 -8.45616E+03  1.89617E+03 -6.76466E+03 -1.53279E+03 -3.32477E+03 -5.21543E+03
 -2.10290E+02 -6.32050E+03  3.65339E+03 -2.32943E+03  3.58692E+03  1.91628E+03 -1.92359E+03  3.92584E+03
 -6.15013E+03  2.36435E+03 -6.03500E+03 -3.21732E+03 -3.61183E+03 -7.89619E+03  5.53670E+02 -7.29781E+03
  4.20122E+03 -5.50858E+03  4.71177E+03 -2.43876E+02  3.88706E+03  2.11074E+03 -7.22351E+02  3.86965E+03
 -3.20658E+03  1.32170E+03 -2.81704E+03 -1.84695E+03  1.40187E+03 -4.78521E+03  5.49566E+03 -5.09575E+03
  6.48566E+03  9.33607E+02  7.69245E+03  5.16258E+03  2.48288E+03  8.85116E+03 -3.07596E+03  8.52491E+03
 -5.70872E+03  4.27864E+03 -5.82182E+03 -1.14610E+03 -3.29956E+03 -5.81622E+03  7.69751E+02 -4.23874E+03
  4.52455E+03 -4.71428E+03  3.59983E+03  2.00835E+03  1.51693E+03  4.65901E+03 -6.54807E+02  3.59258E+03
 -2.15427E+03  3.68322E+03 -2.69220E+03 -5.67302E+01 -1.69642E+03  9.95355E+02 -6.48892E+02  5.82870E+02
 -3.61240E+03  2.24550E+03 -6.91803E+03  1.94064E+03 -9.35564E+03  6.24779E+02 -1.08844E+04 -4.96096E+03
 -5.87140E+03 -9.91752E+03  9.12671E+02 -1.26710E+04  7.75214E+03 -1.01271E+04  1.06815E+04 -3.48476E+03
  1.07151E+04  1.60676E+03  6.08105E+03  8.73660E+03  4.32630E+02  7.63302E+03 -2.34843E+03  5.05702E+03
 -4.63855E+03  3.34567E+03 -3.57125E+03  1.55451E+02 -1.21421E+03 -2.90103E+01 -6.32451E+02 -3.31278E+02
 -1.95072E+03  4.88137E+02 -2.40490E+03 -1.83112E+03 -9.81508E+02 -3.72073E+03  1.24898E+03 -2.17067E+03
  5.41430E+03 -2.61666E+03  5.04647E+03 -8.28469E+01  5.69329E+03  4.79710E+03  7.20347E+02  6.10415E+03
 -4.80021E+03  7.34625E+03 -8.60305E+03  4.95600E+03 -1.00354E+04 -2.56327E+03 -8.35254E+03 -5.40853E+03
 -3.65421E+03 -9.73148E+03  1.97012E+03 -9.41130E+03  5.64800E+03 -2.73227E+03  5.05947E+03 -9.67846E+02
  3.24681E+03  1.44456E+03  1.15494E+03  3.61617E+03 -1.90127E+03 -1.73869E+02 -2.99756E+03 -3.04833E+03
  1.29854E+03 -2.85535E+03  3.39286E+03  3.13436E+02  1.39765E+03  2.73427E+03  1.20960E+03  5.01163E+03
 -2.64487E+03  4.29894E+03 -4.66649E+03  1.54640E+03 -5.18186E+03 -3.89599E+03  1.56253E+02 -6.74493E+03
  5.17441E+03 -4.96265E+03  7.13549E+03 -1.14768E+03  6.75697E+03  1.44955E+03  1.53051E+03  3.28969E+03
  1.61875E+03  5.93386E+03 -3.16836E+03  4.85272E+03 -3.63641E+03  3.52201E+03 -3.20772E+03 -3.14908E+02
 -1.02486E+03  5.09330E+02 -2.74964E+03 -8.94904E+01 -3.54776E+03  1.26971E+03 -4.60613E+03 -1.94536E+03
 -2.71061E+03 -1.84399E+03 -1.57245E+03 -6.35965E+03  4.64379E+03 -5.24310E+03  5.03960E+03 -1.77870E+03
  7.10727E+03  7.30788E+02  4.04288E+03  3.25093E+03 -8.22685E+02  5.71780E+03 -5.30781E+03  3.68800E+03
