 $NMID ID='MM_0lb_SNR200_12hz_g60_77.RAW', FMTDAT='(8E13.5)'
 TRAMP=1., VOLUME=1. $END
  3.09320E+05 -3.50555E+02  3.36399E+05  2.51250E+05  8.55123E+04  3.38054E+05 -1.33561E+05  2.51267E+05
 -1.90288E+05  8.47350E+04 -1.12054E+05 -3.33085E+04 -1.76361E+02 -4.97712E+04  5.41685E+04  2.57617E+02
  3.59440E+04  5.20738E+04 -1.64107E+04  7.69310E+04 -6.08396E+04  6.45029E+04 -8.46727E+04  3.17656E+04
 -8.24189E+04 -1.24427E+04 -5.78747E+04 -5.23629E+04 -1.47660E+04 -7.08069E+04  2.73671E+04 -4.68674E+04
  4.03128E+04  3.01645E+03  1.68862E+04  4.80704E+04 -3.55567E+04  4.80894E+04 -6.92672E+04 -6.61841E+02
 -5.42225E+04 -5.65978E+04 -7.66743E+03 -7.76186E+04  3.45678E+04 -5.66633E+04  4.92452E+04 -1.72370E+04
  4.45067E+04  1.13718E+04  3.27205E+04  2.61018E+04  1.67968E+04  2.95987E+04 -5.94080E+03  2.74786E+04
 -2.25855E+04  1.31405E+04 -1.88198E+04 -5.21786E+03  6.81121E+03 -7.07721E+03  2.35037E+04  1.37556E+04
  6.26080E+03  3.62308E+04 -3.37475E+04  3.71340E+04 -6.55968E+04  2.57244E+03 -5.89661E+04 -4.42806E+04
 -1.20396E+04 -6.49926E+04  4.20302E+04 -4.57638E+04  5.88662E+04 -1.14619E+03  3.57788E+04  3.48106E+04
 -4.21596E+03  3.80719E+04 -3.20970E+04  1.89401E+04 -3.18494E+04 -4.34338E+03 -1.79788E+04 -1.15478E+04
 -9.67506E+03 -1.28249E+04 -1.44598E+03 -1.98258E+04  8.68963E+03 -2.23031E+04  1.54220E+04 -1.32284E+04
  1.19917E+04  4.75922E+03 -1.00040E+04  1.24052E+04 -2.24729E+04 -6.18754E+03 -8.38003E+03 -3.68827E+04
  2.51555E+04 -4.70234E+04  5.05451E+04 -2.08915E+04  4.69250E+04  2.10570E+04  1.72657E+04  4.70518E+04
 -1.51699E+04  3.52713E+04 -2.57886E+04  3.64217E+03 -1.10945E+04 -2.90644E+04  2.17633E+04 -3.61890E+04
  4.34382E+04 -9.06961E+03  3.91682E+04  2.33362E+04  1.96071E+04  5.07161E+04 -7.17490E+03  5.40079E+04
 -3.43086E+04  3.61939E+04 -4.65431E+04  1.11774E+04 -4.61370E+04 -1.81539E+04 -2.59266E+04 -4.05253E+04
  8.53543E+03 -4.05143E+04  3.40591E+04 -1.67938E+04  3.09162E+04  9.89570E+03  5.21279E+03  2.04490E+04
 -1.37629E+04  8.40644E+03 -1.07387E+04 -7.08869E+03  5.49317E+03 -1.14812E+04  1.86609E+04  5.49093E+03
  1.48770E+04  2.38837E+04 -6.25313E+03  2.70011E+04 -2.27203E+04  1.33212E+04 -3.08845E+04 -2.97036E+03
 -2.46178E+04 -1.77860E+04 -1.20584E+04 -2.41082E+04  5.01440E+03 -2.35593E+04  1.93971E+04 -2.07818E+04
  2.96159E+04 -1.35982E+04  3.42635E+04  4.50890E+03  2.47165E+04  2.31425E+04  4.23662E+03  4.02435E+04
 -1.88982E+04  3.16508E+04 -2.87640E+04  1.25831E+04 -2.22292E+04 -9.35671E+03 -3.02307E+03 -1.37801E+04
  9.83246E+02 -2.11855E+03 -6.76408E+03  7.12104E+03 -1.85315E+04  4.49479E+03 -1.69690E+04 -9.36993E+03
 -1.13560E+04 -2.13054E+04  6.01843E+03 -2.64552E+04  1.85787E+04 -1.83056E+04  2.14800E+04 -1.35737E+03
  1.30712E+04  1.47693E+04 -1.61086E+03  2.19381E+04 -1.50609E+04  1.29122E+04 -2.08250E+04 -4.47293E+03
 -1.52321E+04 -2.05526E+04 -2.84733E+03 -2.66012E+04  1.07596E+04 -2.12812E+04  2.03751E+04 -1.02398E+04
  2.00476E+04 -2.95305E+02  1.52462E+04  5.04845E+03  8.33566E+03  1.69705E+03  1.04346E+04 -1.68823E+03
  2.05653E+04  3.26776E+03  2.35071E+04  1.73023E+04  1.70975E+04  3.57907E+04 -3.24744E+03  3.91995E+04
 -2.27947E+04  3.33997E+04 -3.86620E+04  1.78387E+04 -4.06074E+04 -3.07031E+03 -3.19484E+04 -2.32953E+04
 -1.41948E+04 -3.35361E+04  1.18104E+04 -2.93825E+04  2.48040E+04 -1.44442E+04  2.16958E+04  6.34782E+03
  7.33938E+03  1.81388E+04 -1.04601E+04  1.37668E+04 -1.81571E+04  1.64918E+03 -1.56634E+04 -1.14599E+04
 -9.23128E+02 -1.76545E+04  9.28983E+03 -1.31462E+04  1.24822E+04 -1.91539E+03  2.03278E+03  7.51751E+03
 -7.70602E+03  4.02892E+03 -8.18351E+03 -7.07382E+03 -3.09272E+02 -1.74249E+04  1.09191E+04 -1.62384E+04
  2.17981E+04 -9.61331E+03  2.33257E+04  2.88007E+03  1.88195E+04  1.79347E+04  8.48933E+03  2.57789E+04
 -5.60286E+03  2.67405E+04 -1.75204E+04  1.59673E+04 -1.95034E+04  4.89571E+03 -1.41311E+04 -6.03621E+03
 -5.80592E+03 -6.65704E+03 -3.63556E+02  8.67296E+02 -2.56852E+03  3.95168E+03 -5.87269E+03  4.95562E+03
 -1.32664E+04 -1.43460E+03 -1.24287E+04 -1.02914E+04 -4.59001E+03 -1.78683E+04  4.47804E+03 -1.59949E+04
  1.12342E+04 -5.13871E+03  9.75154E+03  2.93219E+03  1.03760E+03  4.98651E+03 -5.99548E+03 -6.44102E+01
 -6.61746E+03 -9.16152E+03 -1.05181E+03 -1.28574E+04  8.38988E+03 -1.41457E+04  1.79656E+04 -7.92405E+03
  1.86755E+04  1.75383E+03  1.50234E+04  1.22836E+04  1.83897E+03  1.56436E+04 -7.59932E+03  1.37180E+04
 -1.13480E+04  3.98777E+03 -6.77396E+03 -1.98259E+03  2.37730E+03 -3.13026E+03  7.72874E+03 -2.78609E+03
  6.77748E+03  6.81169E+03  2.18455E+03  1.22264E+04 -8.84780E+03  1.10410E+04 -1.37127E+04  2.77837E+03
 -7.53030E+03 -8.47371E+03 -4.63900E+02 -1.10093E+04  8.02022E+03 -5.54601E+03  6.71011E+03  1.92971E+03
  1.74302E+03  8.03907E+03 -6.14968E+03  1.05643E+04 -9.35804E+03  4.64787E+03 -1.08859E+04 -3.38583E+03
 -6.03688E+03 -1.35932E+04  4.13919E+03 -1.51232E+04  1.31056E+04 -9.02337E+03  1.31937E+04  3.85070E+02
  8.05015E+03  1.13669E+04 -6.05094E+02  1.28203E+04 -8.54572E+03  7.77939E+03 -1.09788E+04 -5.88533E+02
 -8.77408E+03 -8.85232E+03 -1.35383E+03 -1.05851E+04  4.90761E+03 -7.80765E+03  8.86003E+03 -2.59807E+03
  5.45449E+03  1.37574E+03 -1.49770E+03  1.11247E+03 -1.15624E+02 -1.53948E+03  2.58749E+03 -4.99840E+03
  9.03673E+03 -3.13262E+03  1.31536E+04  1.25647E+03  1.22871E+04  7.84369E+03  8.96867E+03  1.53546E+04
 -3.61476E+03  1.99173E+04 -1.56980E+04  1.41396E+04 -2.10726E+04  3.22564E+03 -1.61891E+04 -7.59282E+03
 -9.31219E+03 -1.34727E+04 -2.12375E+02 -1.14290E+04  5.75074E+03 -6.43700E+03  4.89404E+03 -4.86615E+03
  2.98707E+03 -2.48081E+03  3.56438E+03 -3.11506E+03  4.65804E+03 -2.67580E+03  6.30217E+03 -7.21958E+02
  1.01939E+04  3.53735E+03  4.36924E+03  6.29185E+03 -1.45950E+03  9.49254E+03 -8.26310E+03  6.03968E+03
 -1.16106E+04 -8.64565E+02 -7.22174E+03 -8.23170E+03 -9.99588E+02 -1.24739E+04  6.41504E+03 -1.29449E+04
  1.36203E+04 -6.31679E+03  1.56769E+04  2.10189E+03  1.12392E+04  1.04016E+04  1.60040E+03  1.37396E+04
 -5.74478E+03  1.09977E+04 -7.69723E+03  3.53435E+03 -6.33153E+03 -1.26802E+03 -2.56803E+03 -2.27217E+03
 -2.51822E+03 -1.31651E+02 -1.22882E+03  3.84231E+03 -4.70743E+03  1.90132E+03 -8.35974E+03 -7.90038E+02
 -4.90523E+03 -9.12505E+03  5.03099E+02 -1.13867E+04  7.24446E+03 -1.08812E+04  1.13986E+04 -2.65429E+03
  1.05720E+04  6.24735E+03  5.82772E+03  9.54127E+03 -5.18707E+02  1.09546E+04 -6.41043E+03  6.13301E+03
 -1.09633E+04  8.26463E+01 -8.45378E+03 -6.15274E+03 -2.09471E+03 -9.42063E+03  4.06048E+03 -6.62140E+03
  7.89161E+03 -1.96604E+03  5.19428E+03  8.55975E+02  6.73160E+02  2.77857E+03  1.19011E+03  1.61167E+03
  2.92647E+03  2.17853E+03  3.32492E+03  1.38159E+03  3.38256E+03  4.20329E+03  2.66913E+03  5.11131E+03
 -8.47205E+02  9.54754E+03 -7.78948E+03  8.87169E+03 -1.21547E+04  2.25044E+03 -1.26450E+04 -4.21387E+03
 -6.66958E+03 -1.14187E+04  1.15492E+03 -1.16417E+04  6.51343E+03 -8.11263E+03  1.05024E+04 -2.22916E+03
  8.18650E+03  2.72476E+03  1.28023E+03  6.84047E+03 -3.27269E+03  5.26539E+03 -4.44644E+03 -8.85247E+02
 -2.41953E+03 -4.36251E+03  2.61809E+03 -3.71407E+03  4.37283E+03 -2.62450E+03  5.13849E+03  8.50197E+01
  3.15817E+03  4.04576E+03  4.11470E+02  1.80700E+03 -1.47739E+02  2.24352E+03  7.49962E+02  1.06616E+02
  1.17968E+03 -6.82529E+02  3.29392E+03  1.68574E+03  2.92430E+03  5.94967E+03 -2.95875E+02  6.79217E+03
 -5.02002E+03  2.93650E+03 -6.89968E+03  8.33246E+02 -6.21307E+03 -4.04117E+03 -1.90429E+03 -4.76635E+03
  1.00279E+03 -2.95999E+03  1.51899E+03 -3.08256E+03  1.92032E+03  2.40525E+03 -7.19918E+02  4.74302E+03
 -5.51514E+03  1.79010E+03 -4.56973E+03 -2.86689E+03 -3.18333E+03 -5.97249E+03  1.49187E+03 -5.14233E+03
  5.06892E+03 -2.92739E+03  4.07096E+03 -9.50357E+01  3.28711E+03  5.92741E+02  1.21349E+03  1.26141E+03
 -1.51595E+03  1.42474E+03 -1.44484E+03 -1.13572E+03  2.03024E+03 -5.43060E+03  5.58957E+03 -2.95755E+03
  6.35207E+03  5.18090E+02  6.47094E+03  4.72071E+03  1.25420E+03  5.88526E+03 -2.45836E+03  7.10309E+03
 -3.91105E+03  1.74563E+03 -6.73281E+03 -2.69185E+03 -2.91174E+03 -2.99454E+03  1.11818E+03 -4.06888E+03
  3.41599E+03 -1.67143E+03  3.06235E+03  2.40011E+03  7.03732E+01  3.23767E+03  7.31704E+02  2.82678E+03
 -6.47743E+01  4.22733E+03 -1.50401E+03  9.34425E+02 -7.00204E+02  5.08806E+02 -4.33521E+02  1.99671E+03
 -2.34861E+03  2.66253E+03 -3.74181E+03  1.83682E+03 -6.02821E+03 -1.21627E+03 -7.62138E+03 -4.76786E+03
 -4.03010E+03 -9.04562E+03  1.69205E+03 -1.01601E+04  5.76833E+03 -6.43275E+03  1.00329E+04 -2.07951E+03
  7.85182E+03  1.42226E+03  4.88516E+03  6.74427E+03 -7.50848E+02  6.78584E+03 -2.95706E+03  6.18468E+03
 -3.13347E+03  3.91964E+03 -2.77314E+03 -2.05427E+03 -1.44097E+03 -4.36432E+02 -1.14542E+02  2.30912E+02
 -1.64073E+03  1.11075E+03 -1.48658E+03 -5.18291E+02 -3.61001E+02 -2.48140E+03 -4.92874E+02 -2.36818E+03
  3.67112E+03 -7.01552E+02  5.13039E+03 -3.83172E+02  4.01977E+03  2.01591E+03  1.64154E+03  7.18587E+03
 -3.63838E+03  7.65747E+03 -5.32543E+03  5.08451E+03 -6.99972E+03 -7.96830E+02 -6.14306E+03 -4.91004E+03
 -1.94422E+03 -6.61552E+03  1.38327E+03 -6.02091E+03  3.27559E+03 -2.87884E+03  4.68739E+03  9.19539E+01
  1.99953E+03  2.06487E+03 -7.35336E+02  1.83161E+03 -2.31378E+03 -1.37240E+03 -1.24098E+03 -1.82753E+03
  2.70264E+03 -1.69510E+03  1.93072E+03 -2.01090E+01  2.59496E+03  2.56841E+03  9.22249E+02  2.75078E+03
 -3.08679E+03  3.74877E+03 -4.18753E+03  1.17089E+03 -3.45772E+03 -3.35602E+03  9.01321E+02 -4.54983E+03
  3.62688E+03 -4.14018E+03  5.66357E+03 -9.11016E+02  5.06614E+03  1.83886E+01  2.52555E+03  3.30849E+03
  8.10770E+02  3.62524E+03 -1.57036E+03  1.91720E+03 -2.83020E+03  2.09235E+03 -1.67270E+03 -9.03912E+02
 -7.59304E+02 -3.68464E+02 -8.83044E+02  1.13234E+03 -2.74398E+03  8.53450E+02 -3.56323E+03 -1.06830E+03
 -3.34205E+03 -2.03241E+03 -6.32749E+02 -3.81390E+03  3.00286E+03 -4.27876E+03  3.77487E+03 -2.60218E+03
  2.59577E+03  1.84945E+03  2.51517E+03  2.49595E+03  1.33646E+02  5.66441E+03 -1.87921E+03  2.70712E+03
