 $NMID ID='MM_0lb_SNR200_15hz_g55_44.RAW', FMTDAT='(8E13.5)'
 TRAMP=1., VOLUME=1. $END
  3.09163E+05  2.18125E+02  3.37274E+05  2.50244E+05  8.59272E+04  3.37650E+05 -1.32558E+05  2.50187E+05
 -1.91762E+05  8.24513E+04 -1.12812E+05 -3.28838E+04  1.43300E+03 -5.15232E+04  5.38108E+04 -9.72191E+02
  3.50527E+04  5.19126E+04 -1.72389E+04  7.56470E+04 -6.01451E+04  6.31813E+04 -8.46734E+04  3.23363E+04
 -8.19765E+04 -1.13255E+04 -5.84174E+04 -5.18604E+04 -1.54859E+04 -6.92572E+04  2.72613E+04 -4.67930E+04
  3.92608E+04  3.91630E+03  1.56335E+04  4.69395E+04 -3.40347E+04  4.73361E+04 -6.74459E+04 -1.32876E+03
 -5.40761E+04 -5.67349E+04 -6.39338E+03 -7.70878E+04  3.48005E+04 -5.40762E+04  4.78458E+04 -1.76363E+04
  4.39383E+04  1.17019E+04  3.29347E+04  2.61118E+04  1.60482E+04  2.94596E+04 -5.26355E+03  2.83759E+04
 -2.14433E+04  1.28232E+04 -1.77828E+04 -3.54444E+03  5.71219E+03 -7.08468E+03  2.07118E+04  1.19630E+04
  7.15637E+03  3.63975E+04 -3.13935E+04  3.49262E+04 -6.42186E+04  2.68891E+03 -5.64842E+04 -4.21818E+04
 -1.13921E+04 -6.39553E+04  3.93749E+04 -4.49926E+04  5.86519E+04 -2.30649E+03  3.50197E+04  3.25353E+04
 -5.99970E+03  3.56961E+04 -3.02619E+04  1.58468E+04 -3.02659E+04 -4.60581E+03 -1.67963E+04 -1.16065E+04
 -8.62195E+03 -1.27308E+04 -1.00341E+03 -1.77909E+04  6.86827E+03 -2.21161E+04  1.53058E+04 -1.33996E+04
  1.17170E+04  5.64153E+03 -8.92958E+03  1.32121E+04 -2.09561E+04 -5.18891E+03 -8.15842E+03 -3.46639E+04
  2.30103E+04 -4.43425E+04  4.73876E+04 -2.07213E+04  4.51506E+04  1.95978E+04  1.56012E+04  4.59617E+04
 -1.55595E+04  3.23783E+04 -2.47300E+04  8.25198E+02 -8.67674E+03 -2.81079E+04  2.07346E+04 -3.42461E+04
  4.15964E+04 -9.03013E+03  3.63174E+04  2.48689E+04  1.92539E+04  4.51403E+04 -7.19364E+03  4.98232E+04
 -3.22015E+04  3.49968E+04 -4.24560E+04  1.07611E+04 -4.16081E+04 -1.70532E+04 -2.36582E+04 -3.77042E+04
  4.59810E+03 -3.80458E+04  3.15081E+04 -1.57165E+04  2.98179E+04  1.07705E+04  2.21012E+03  1.88732E+04
 -1.39856E+04  8.57964E+03 -1.08896E+04 -7.86512E+03  5.77429E+03 -1.17796E+04  1.85743E+04  6.70946E+03
  1.33239E+04  2.17760E+04 -5.48962E+03  2.40133E+04 -2.27289E+04  1.14130E+04 -2.86072E+04 -6.03341E+03
 -1.92893E+04 -1.67819E+04 -8.20265E+03 -2.15902E+04  4.76897E+03 -1.97238E+04  1.53151E+04 -1.87507E+04
  2.54449E+04 -1.40335E+04  3.21254E+04  2.92945E+03  2.40962E+04  2.06100E+04  4.00810E+03  3.67242E+04
 -1.75260E+04  2.98968E+04 -2.72084E+04  1.14768E+04 -2.05567E+04 -1.05368E+04 -4.58835E+03 -1.25584E+04
  2.75683E+03 -4.00353E+03 -4.15519E+03  7.02119E+03 -1.68922E+04  5.21802E+03 -1.55725E+04 -7.54422E+03
 -9.78750E+03 -1.94662E+04  5.17803E+03 -2.39634E+04  1.43033E+04 -1.60552E+04  1.78907E+04 -1.15554E+03
  1.23130E+04  1.19645E+04 -1.82229E+03  1.97681E+04 -1.20890E+04  1.13567E+04 -1.97857E+04 -4.15108E+03
 -1.40055E+04 -1.55305E+04 -5.09580E+02 -2.33824E+04  1.11395E+04 -1.98357E+04  1.94320E+04 -9.86415E+03
  1.82041E+04  1.21178E+03  1.15023E+04  5.57960E+03  6.70502E+03  9.02206E+02  9.59382E+03 -1.95019E+03
  1.67683E+04  2.05689E+03  1.96534E+04  1.41937E+04  1.22434E+04  2.91507E+04 -2.99523E+03  3.34208E+04
 -1.89683E+04  2.67709E+04 -3.18732E+04  1.44601E+04 -3.21835E+04 -1.54652E+03 -2.59954E+04 -1.88905E+04
 -1.19583E+04 -2.77246E+04  9.81894E+03 -2.32476E+04  2.16722E+04 -1.25915E+04  1.97153E+04  4.75540E+03
  7.08720E+03  1.41392E+04 -9.39883E+03  1.15297E+04 -1.54802E+04  2.54529E+03 -1.24073E+04 -9.38936E+03
  3.23704E+02 -1.45305E+04  8.14656E+03 -1.17837E+04  1.05216E+04 -1.65298E+03  4.20828E+03  6.14759E+03
 -6.73488E+03  2.38889E+03 -5.04745E+03 -5.41598E+03 -2.67467E+02 -1.35126E+04  9.01269E+03 -1.36923E+04
  1.60585E+04 -6.36714E+03  1.56394E+04  3.79241E+03  1.57182E+04  1.32670E+04  7.33017E+03  2.05008E+04
 -3.30450E+03  2.05168E+04 -1.38615E+04  1.47954E+04 -1.60911E+04  2.63860E+03 -9.98794E+03 -3.68111E+03
 -5.57308E+03 -5.16020E+03 -5.66268E+02  1.34800E+03 -2.29541E+03  2.67269E+03 -4.50238E+03  3.77097E+03
 -1.15022E+04  3.78212E+02 -9.49435E+03 -8.65868E+03 -5.21829E+03 -1.45172E+04  6.15699E+03 -1.04257E+04
  9.03415E+03 -4.45894E+03  5.97211E+03  4.00074E+03  2.30750E+02  3.89733E+03 -5.50946E+03  4.55100E+02
 -3.61189E+03 -7.92440E+03 -2.37574E+03 -1.09636E+04  5.20305E+03 -1.07883E+04  1.29768E+04 -5.66336E+03
  1.52574E+04 -4.79549E+02  1.08710E+04  9.19039E+03  2.24055E+03  1.22328E+04 -6.83949E+03  1.18450E+04
 -8.82341E+03  3.06184E+03 -5.26528E+03 -1.86789E+02  9.74636E+02 -3.02916E+03  6.03410E+03 -1.20479E+03
  4.57525E+03  4.00113E+03  1.29829E+03  7.72632E+03 -6.18519E+03  7.11365E+03 -9.95884E+03  1.56060E+03
 -6.89273E+03 -4.97562E+03  1.97173E+02 -9.96878E+03  3.76998E+03 -4.42957E+03  4.67184E+03  1.86422E+03
  1.04860E+03  5.78368E+03 -5.22367E+03  7.01237E+03 -7.21251E+03  3.25494E+03 -7.36458E+03 -2.85159E+03
 -5.62626E+03 -1.03088E+04  2.16106E+03 -1.05788E+04  1.06745E+04 -6.74982E+03  1.00668E+04  1.71898E+03
  5.54372E+03  8.19937E+03 -5.82314E+02  9.49727E+03 -7.66033E+03  5.30068E+03 -7.88831E+03 -1.68103E+03
 -7.21659E+03 -7.53455E+03 -2.44912E+01 -7.26035E+03  4.21198E+03 -6.74350E+03  4.61865E+03 -3.64662E+03
  3.03263E+03  1.57790E+03 -1.08645E+03  1.52739E+03  1.35702E+02 -1.95792E+03  1.49010E+03 -3.22075E+03
  7.46817E+03 -1.38439E+03  9.15260E+03  1.59809E+03  7.50466E+03  5.82424E+03  6.73659E+03  1.12453E+04
 -3.70080E+03  1.33237E+04 -1.22294E+04  1.04364E+04 -1.51076E+04  1.74304E+03 -1.03349E+04 -4.59826E+03
 -5.00327E+03 -1.08324E+04  9.54675E+02 -8.63461E+03  3.47478E+03 -3.50437E+03  2.38756E+03 -3.95489E+03
  2.41950E+03 -2.30626E+03  2.58082E+03 -2.74549E+03  5.03018E+03 -1.69591E+03  4.88778E+03  5.43157E+02
  6.52533E+03  3.01423E+03  3.38264E+03  5.78960E+03 -3.26613E+03  5.79135E+03 -6.25346E+03  4.30051E+03
 -6.33025E+03 -1.22401E+03 -4.34132E+03 -5.90349E+03 -1.01192E+03 -7.07855E+03  3.93907E+03 -8.96846E+03
  8.41690E+03 -4.95797E+03  1.09640E+04  1.53995E+02  7.08917E+03  7.54805E+03  5.23089E+02  9.70060E+03
 -3.91877E+03  7.84483E+03 -5.53045E+03  2.12488E+03 -3.16026E+03 -1.15685E+01 -1.02199E+03 -1.38163E+03
  3.80803E+02 -2.30195E+02 -2.22419E+03  2.86967E+03 -3.46938E+03  1.76487E+03 -6.74260E+03 -1.59748E+02
 -2.97406E+03 -5.23416E+03  1.80582E+03 -8.74273E+03  4.86446E+03 -6.46477E+03  5.98179E+03 -1.11306E+03
  7.03024E+03  3.28530E+03  2.64529E+03  6.64670E+03 -9.67477E+02  6.95826E+03 -4.50136E+03  5.00244E+03
 -6.47764E+03  1.15457E+03 -5.73932E+03 -5.05538E+03  3.39170E+01 -5.43811E+03  3.33915E+03 -3.00225E+03
  5.55743E+03 -2.44391E+03  2.47439E+03 -6.65557E+01  2.29156E+03  1.88871E+03  1.18391E+03  1.19925E+03
  1.81489E+03  2.85975E+02  1.62055E+03  6.25374E+02  1.76265E+03  2.88338E+03  2.16573E+03  2.50374E+03
 -7.73082E+02  4.82125E+03 -5.57648E+03  6.05722E+03 -6.17176E+03  2.28177E+03 -8.26328E+03 -2.77858E+03
 -3.40774E+03 -7.54404E+03  1.07533E+03 -8.45187E+03  3.83392E+03 -4.33315E+03  6.24948E+03 -1.17597E+03
  4.44124E+03  2.71601E+03  1.50283E+03  3.61658E+03 -1.35980E+03  1.40453E+03 -2.66419E+03  2.10971E+02
 -4.70596E+02 -3.37670E+03  1.97399E+03 -4.43915E+03  3.10495E+03 -1.93255E+03  1.99311E+03  4.54197E+02
  1.67885E+03  1.98212E+03 -7.85541E+02 -1.91303E+02  4.03074E+02  4.21180E+02  2.62567E+03 -6.19014E+00
  1.00048E+03 -1.31461E+03  1.74155E+03  1.16585E+03  1.81066E+03  3.31945E+03 -5.82993E+02  4.04124E+03
 -1.99299E+03  2.86878E+03 -3.62060E+03  1.10755E+03 -4.16156E+03  4.34645E+02 -6.86603E+02 -2.64531E+03
  1.18794E+03 -1.35112E+03  1.33796E+03 -1.14431E+03  1.17032E+03  6.32368E+02 -5.63472E+02  1.66446E+03
 -2.77285E+03  5.73079E+02 -1.63256E+03 -2.29768E+03 -2.41932E+03 -2.34213E+03  2.07019E+03 -3.72913E+03
  1.75953E+03 -1.12007E+03  2.74500E+03 -8.17712E+01  2.48183E+03  1.50816E+03 -4.03951E+02  2.75229E+03
 -1.17414E+03  5.46655E+02 -2.87481E+03 -1.05401E+03  9.09616E+02 -2.27052E+03  2.81757E+03 -4.94759E+02
  3.26524E+03  2.31130E+02  4.37882E+03  1.99328E+03  2.70022E+03  4.74600E+03 -2.56041E+03  3.34376E+03
 -3.51236E+03  1.87666E+03 -2.90865E+03 -8.40892E+02 -2.83573E+03 -2.09184E+03  3.13002E+02 -1.68312E+03
  1.91454E+03 -1.83753E+03  1.08112E+03  6.39368E+02  1.00937E+03  2.05338E+03 -1.60443E+03  1.81391E+03
 -3.50976E+02  9.29134E+02 -9.64570E+01 -1.11882E+02  6.28830E+02  1.33501E+03 -4.92859E+02  3.90343E+02
 -9.24304E+02  1.59416E+03 -2.44715E+03  1.73059E+03 -4.46293E+03  4.73760E+02 -4.53662E+03 -6.74804E+02
 -2.02106E+03 -3.63081E+03  5.69354E+02 -5.01294E+03  2.64102E+03 -4.47554E+03  5.96933E+03 -1.39204E+03
  4.80281E+03 -1.27622E+02  2.12113E+03  3.82906E+03 -2.22904E+02  4.83363E+03 -1.63991E+03  1.63868E+03
 -2.69451E+03  3.54453E+02  2.00062E+02 -8.49796E+02 -1.88492E+03  9.11557E+01 -5.31197E+02  7.68222E+01
 -1.61824E+03 -1.87752E+02 -2.02258E+03 -2.38189E+02  1.24280E+02 -1.54062E+03 -3.98385E+02 -1.22259E+03
  2.30893E+03 -1.01698E+03  2.85855E+03  2.81638E+02  1.89311E+03  1.36005E+03  6.03519E+01  3.28411E+03
 -1.94139E+03  5.21353E+03 -4.66606E+03  2.11371E+03 -3.39245E+03  3.79879E+02 -2.62477E+03 -3.43827E+03
 -2.64825E+03 -2.23946E+03  3.44690E+02 -2.52303E+03  1.87937E+03 -6.24518E+02  2.50997E+03 -1.40736E+01
  8.71870E+02  9.47656E+02 -5.01110E+02  1.43345E+03 -2.31914E+02  1.50205E+02  9.18422E+02  5.82995E+02
  3.81622E+02  4.28236E+02  2.05531E+03  7.23517E+02  4.86266E+02  8.60450E+02  2.86990E+02  7.73237E+02
 -1.59792E+03  1.54510E+03 -1.49420E+03  5.29622E+02 -1.99519E+03 -1.69540E+02  2.27687E+01 -1.17580E+03
  1.69881E+03 -1.59922E+03  1.91668E+03 -1.50565E+03  2.48849E+03 -5.19304E+02  1.09313E+03  2.08488E+03
  8.47258E+01  1.17228E+03 -1.01045E+03  2.57912E+03 -1.55192E+03  1.25444E+03 -7.19296E+02  1.24366E+03
 -1.14753E+03  8.55325E+02 -3.09489E+02  6.82339E+01 -5.26373E+02 -2.73646E+02 -1.24672E+03  7.39853E+02
 -2.12193E+03  3.04830E+01 -1.08508E+03 -2.54177E+03  1.21594E+03 -2.27455E+03  1.95440E+03 -9.57673E+02
  1.49320E+03  4.15859E+02  7.76747E+02  1.07720E+03 -8.93893E+02  2.18674E+03 -3.96101E+02  2.29342E+03
