 $NMID ID='MM_0lb_SNR200_20hz_g55_46.RAW', FMTDAT='(8E13.5)'
 TRAMP=1., VOLUME=1. $END
  3.09284E+05 -4.47473E+02  3.38601E+05  2.51122E+05  8.32416E+04  3.37325E+05 -1.32799E+05  2.50479E+05
 -1.88935E+05  8.27139E+04 -1.10120E+05 -3.33011E+04  1.28777E+03 -5.12383E+04  5.45463E+04 -9.58730E+01
  3.45929E+04  5.31835E+04 -1.71729E+04  7.46917E+04 -5.99374E+04  6.28435E+04 -8.31845E+04  3.11643E+04
 -8.07901E+04 -1.22292E+04 -5.68347E+04 -4.91976E+04 -1.48748E+04 -6.78265E+04  2.69213E+04 -4.49421E+04
  3.88893E+04  3.41947E+03  1.59153E+04  4.59689E+04 -3.42754E+04  4.70700E+04 -6.56309E+04 -6.83949E+02
 -5.20116E+04 -5.68266E+04 -7.47063E+03 -7.51751E+04  3.28847E+04 -5.31518E+04  4.63449E+04 -1.73140E+04
  4.05451E+04  1.07621E+04  3.01109E+04  2.49238E+04  1.63207E+04  2.80763E+04 -5.17229E+03  2.64457E+04
 -2.15226E+04  1.30283E+04 -1.88352E+04 -5.05378E+03  4.75959E+03 -6.99268E+03  2.15575E+04  1.12157E+04
  8.40055E+03  3.33129E+04 -3.10279E+04  3.38839E+04 -6.08364E+04  2.22617E+03 -5.60075E+04 -4.13869E+04
 -1.35794E+04 -6.10634E+04  3.84628E+04 -4.43072E+04  5.63192E+04 -1.27709E+03  3.20673E+04  3.10755E+04
 -7.64665E+03  3.48569E+04 -2.84794E+04  1.33439E+04 -2.78162E+04 -5.09428E+03 -1.41442E+04 -1.03586E+04
 -7.99795E+03 -1.05011E+04 -1.38987E+03 -1.60957E+04  6.08823E+03 -2.20656E+04  1.43010E+04 -1.33964E+04
  1.23493E+04  4.26982E+03 -7.61124E+03  1.35526E+04 -1.93725E+04 -3.41103E+03 -8.92287E+03 -2.98936E+04
  2.15241E+04 -4.03137E+04  4.40535E+04 -1.86337E+04  4.21644E+04  1.78960E+04  1.48137E+04  4.13495E+04
 -1.56115E+04  3.06754E+04 -2.32323E+04  6.51228E+02 -8.15970E+03 -2.71024E+04  2.04791E+04 -3.09440E+04
  3.75493E+04 -8.28127E+03  3.07950E+04  2.25426E+04  1.58452E+04  4.32831E+04 -8.57925E+03  4.52421E+04
 -2.97732E+04  2.95774E+04 -3.70924E+04  8.33475E+03 -3.69115E+04 -1.48086E+04 -2.09071E+04 -3.54689E+04
  7.81760E+03 -3.38180E+04  2.99377E+04 -1.26943E+04  2.70981E+04  1.09489E+04  3.38167E+03  1.71290E+04
 -1.34332E+04  6.54074E+03 -1.00021E+04 -8.14025E+03  6.02804E+03 -9.65448E+03  1.72456E+04  6.43525E+03
  1.11029E+04  2.18012E+04 -6.24447E+03  2.38352E+04 -2.18504E+04  9.42034E+03 -2.49010E+04 -6.10484E+03
 -1.55428E+04 -1.61989E+04 -6.17850E+03 -1.46813E+04  4.57859E+03 -1.38765E+04  1.21426E+04 -1.38415E+04
  2.10124E+04 -1.16021E+04  2.76768E+04  7.47751E+02  2.05882E+04  1.54488E+04  3.61332E+03  3.20517E+04
 -1.55700E+04  2.71860E+04 -2.68503E+04  7.93338E+03 -1.94256E+04 -9.59894E+03 -4.35802E+03 -1.30291E+04
  1.39004E+03 -4.92992E+03 -2.44830E+03  5.29942E+03 -1.26355E+04  5.15093E+03 -1.31667E+04 -3.87367E+03
 -8.01231E+03 -1.55181E+04  5.25062E+03 -1.95227E+04  1.14907E+04 -1.36483E+04  1.43936E+04 -1.24603E+02
  8.66345E+03  1.14068E+04 -4.45346E+02  1.51101E+04 -1.01985E+04  7.63476E+03 -1.58662E+04 -1.99725E+03
 -1.11462E+04 -1.50285E+04 -7.68707E+02 -1.93435E+04  8.23734E+03 -1.50506E+04  1.61759E+04 -7.64317E+03
  1.44794E+04  6.06868E+00  1.12013E+04  3.29847E+03  4.79352E+03  6.00964E+02  8.79836E+03 -1.35945E+03
  1.35429E+04  1.48247E+03  1.40218E+04  1.23152E+04  9.60745E+03  2.46093E+04 -3.54143E+03  2.55098E+04
 -1.50644E+04  2.00796E+04 -2.34773E+04  9.88428E+03 -2.37059E+04 -1.92057E+03 -1.98173E+04 -1.35251E+04
 -1.01178E+04 -1.90671E+04  6.13935E+03 -1.77655E+04  1.59942E+04 -1.11146E+04  1.55193E+04  2.77840E+03
  7.07177E+03  1.14676E+04 -6.50964E+03  9.89078E+03 -1.42817E+04  2.93024E+03 -1.00990E+04 -7.72257E+03
 -5.30258E+02 -1.31070E+04  6.72637E+03 -8.53786E+03  8.55419E+03 -1.10106E+03  7.54100E+02  3.93932E+03
 -5.75767E+03  1.41264E+03 -3.16924E+03 -3.89110E+03  1.54515E+02 -1.02242E+04  7.43659E+03 -1.00661E+04
  1.15550E+04 -3.07838E+03  1.17094E+04  3.53252E+03  1.02222E+04  8.45965E+03  5.05464E+03  1.29162E+04
 -1.79852E+03  1.51350E+04 -8.51854E+03  9.88857E+03 -1.09279E+04  2.94055E+03 -8.76397E+03 -2.10991E+03
 -4.67266E+03 -2.62522E+03  3.17731E+02  8.67030E+02 -2.67065E+03  2.11175E+03 -3.60630E+03  2.93002E+03
 -8.18521E+03 -9.29067E+02 -9.11143E+03 -6.67383E+03 -4.34157E+03 -1.15962E+04  1.99301E+03 -8.58345E+03
  7.39175E+03 -3.71821E+03  4.73744E+03  1.43913E+03  2.63737E+02  3.48186E+03 -2.65375E+03 -1.79235E+02
 -3.24057E+03 -4.98856E+03  2.84069E+02 -6.56320E+03  4.22000E+03 -7.46784E+03  9.25379E+03 -3.61585E+03
  1.04772E+04  8.72689E+02  8.29328E+03  4.76250E+03  1.76797E+03  8.44349E+03 -5.66163E+03  9.21254E+03
 -7.34408E+03  2.60741E+03 -4.06149E+03 -2.07449E+03  1.72317E+03 -2.02635E+03  4.77875E+03 -4.90501E+02
  3.51036E+03  2.40304E+03  7.82444E+02  5.95790E+03 -4.16593E+03  5.92962E+03 -7.11277E+03  2.17731E+03
 -4.46216E+03 -3.98433E+03  9.04867E+02 -6.46563E+03  3.20212E+03 -4.04289E+03  2.55077E+03  8.46168E+02
 -5.47840E+01  3.09847E+03 -4.47975E+03  4.45478E+03 -3.51564E+03  1.33516E+03 -4.20229E+03 -1.90291E+03
 -3.21870E+03 -5.22886E+03  2.68531E+02 -6.15298E+03  4.44336E+03 -3.46057E+03  5.91956E+03  4.88192E+02
  4.45984E+03  3.97961E+03  6.31713E+02  6.73961E+03 -4.55115E+03  3.42964E+03 -4.37333E+03 -9.50059E+02
 -5.23764E+03 -4.82473E+03 -1.15374E+03 -4.27073E+03  2.16375E+03 -4.01377E+03  2.56834E+03 -3.94532E+03
  2.63191E+03 -8.71876E+02  5.14763E+02  1.52090E+03  3.28580E+02 -7.23156E+02  7.80669E+00 -1.50537E+03
  1.93220E+03 -1.09542E+03  3.71552E+03  1.07502E+03  5.35677E+03  3.18368E+03  5.16574E+03  7.06943E+03
 -6.93448E+02  8.82094E+03 -5.71875E+03  5.96149E+03 -8.96625E+03  1.43657E+03 -6.18257E+03 -2.02318E+03
 -3.37049E+03 -6.58101E+03 -6.58321E+02 -5.20283E+03  1.68171E+03 -1.72399E+03  2.65286E+03 -1.70871E+03
  1.18573E+03 -2.19713E+03  2.42655E+03 -2.25823E+03  3.11479E+03 -1.32374E+03  4.03382E+03  1.27360E+03
  4.42403E+03  5.41633E+02  2.71453E+02  2.73336E+03 -1.00604E+03  2.72330E+03 -4.68425E+03  2.07638E+03
 -4.51910E+03 -8.89276E+02 -9.13853E+02 -2.61618E+03  6.06611E+02 -3.79981E+03  1.97848E+03 -4.56359E+03
  5.69403E+03 -2.70888E+03  5.31690E+03  1.98778E+02  4.82479E+03  3.64833E+03  1.43359E+03  4.74896E+03
 -2.79979E+03  5.80253E+03 -3.65918E+03  6.71583E+02 -2.22912E+03 -2.43684E+03 -1.61445E+03  1.07596E+01
 -1.97197E+02  8.24812E+02 -7.87676E+02  2.02744E+03 -1.51232E+03  8.23607E+02 -2.79438E+03 -5.87003E+02
 -1.41787E+03 -4.14504E+03  7.47523E+02 -3.68265E+03  2.09251E+03 -3.23699E+03  2.74015E+03 -6.18845E+02
  3.64862E+03  2.04044E+03  1.47614E+03  3.02513E+03 -1.49851E+03  4.02201E+03 -2.06381E+03  1.63274E+03
 -3.77211E+03  4.07709E+02 -4.09718E+03 -1.92727E+03 -9.91624E+02 -2.87839E+03  1.78033E+03 -1.68792E+03
  2.18510E+03 -1.02210E+03  1.92778E+03  9.75709E+02  8.16078E+01  2.13764E+03  1.75305E+03  2.30855E+02
  1.62848E+03 -6.90439E+02  3.03588E+01  9.28087E+02  1.03251E+03  2.59080E+03  9.80413E+02  1.16537E+03
 -1.59594E+03  1.56818E+03 -2.37408E+03  3.49030E+03 -1.97239E+03  1.50371E+03 -3.32941E+03 -5.17028E+02
 -1.77247E+03 -3.07272E+03  1.23580E+03 -3.50065E+03  2.24199E+03 -2.25381E+03  3.03339E+03 -2.32948E+02
  4.28185E+02  1.49852E+03  3.92545E+02  1.84386E+03 -1.28759E+03  1.44489E+03 -1.06994E+03  2.76325E+02
 -2.25874E+02 -1.46241E+03  1.45528E+02 -1.60557E+03  1.20794E+03 -3.54942E+02  1.59215E+02 -1.68994E+01
  8.91711E+02  2.04210E+02  6.88307E+02 -7.41601E+02 -3.71252E+02  9.13787E+02  1.90873E+03  2.80630E+02
  3.86080E+02 -2.39967E+02  4.19533E+02  1.15889E+03  5.44608E+02  1.67092E+03 -3.99250E+02  1.74601E+03
 -6.53780E+02  5.16216E+02 -1.45700E+03 -9.84117E+02 -1.25058E+03 -1.04235E+03  7.76281E+02  4.87604E+02
  8.86906E+02 -3.05255E+02  8.78966E+02  1.64721E+02  5.67840E+02  9.12773E+02 -1.76187E+03  6.79922E+02
 -1.05142E+03  2.32862E+02 -1.08105E+03 -3.49790E+02 -1.74404E+03 -1.66463E+03 -2.82111E+02 -7.80122E+02
  8.12342E+02 -8.76757E+02  5.32655E+02 -2.40753E+02  2.06031E+03 -9.07846E+02  4.00452E+02  1.22661E+03
  5.59763E+02 -1.43223E+02  2.56199E+02  5.39801E+02 -2.72185E+01 -1.71517E+02  1.80144E+03 -2.28515E+02
  9.10553E+02  7.28052E+02  2.66967E+03  1.06162E+03  1.03384E+03  1.67192E+03  5.27144E+02  1.82795E+03
 -2.76784E+02 -1.99162E+02 -1.78261E+03 -9.08830E+02 -2.26481E+02  4.99798E+01  2.20722E+02  9.62679E+01
  1.89875E+03 -1.06444E+03 -5.14431E+01 -5.28048E+02  1.71622E+02  2.91135E+02 -2.45632E+02  5.10027E+02
 -3.38089E+02  1.12420E+03 -6.71772E+02  4.00916E+02  1.01234E+03 -5.88836E+02  2.26172E+02  5.21251E+02
 -5.85988E+02  8.17407E+02 -1.69263E+03  3.92902E+02 -1.27332E+03 -2.24486E+02 -2.14184E+03  4.95047E+02
 -1.47949E+03 -2.00505E+03  3.40616E+02 -9.19287E+02  5.63132E+02 -2.02703E+03  9.39464E+02 -3.51717E+02
  2.17254E+03 -7.05888E+02  6.00682E+02  1.28248E+03 -1.12750E+03  1.18182E+03  5.07280E+02  1.81748E+03
 -6.34330E+02  3.20512E+02  2.91365E+02  4.45456E+02 -5.50287E+02  1.08900E+03 -5.95723E+02 -1.04613E+03
 -8.28779E+02  2.31033E+02 -9.09837E+02  3.24938E+02  1.22447E+03 -1.43897E+03 -5.12410E+02 -1.19064E+03
  4.77302E+02 -1.88508E+02 -6.98374E+02 -8.04492E+02  1.54452E+03  4.78382E+02 -6.01931E+02  1.40041E+03
 -5.80192E+02  2.82159E+03 -7.67449E+02  2.09072E+02 -7.16489E+02  9.15602E+02  1.43439E+01 -4.60566E+02
 -4.22682E+02 -8.10683E+02  9.75964E+02 -8.60504E+02  1.70168E+02 -4.97143E+02  9.57584E+02  5.88710E+02
  7.17596E+02  7.60838E+01 -1.31653E+01  4.15768E+02 -2.07219E+02  1.51727E+01 -4.10901E+01  7.10261E+02
 -3.47445E+02  5.28107E+02  4.29850E+01  9.64739E+02 -2.05472E+02  3.42444E+01  2.43586E+02  3.78310E+02
  7.76108E+02 -2.89299E+01 -3.30124E+02 -3.34553E+02 -9.12864E+01  1.33584E+03  2.66045E+02 -7.30214E+02
  1.88405E+01 -6.37857E+02  6.93992E+02 -5.51834E+00  7.12147E+02 -5.21407E+02  3.46387E+02 -3.96990E+02
  1.32795E+03 -3.34741E+02 -1.18700E+03  1.49913E+03  2.11748E+02  1.51330E+03 -1.23666E+03 -2.64222E+01
  4.11542E+02 -6.15948E+01 -3.70014E+02  2.35628E+02 -1.21851E+03  1.72725E+02  4.46090E+02 -3.21913E+02
 -1.49557E+03  1.10997E+03 -5.94754E+02 -9.81326E+01 -3.64102E+02 -7.92873E+02 -1.69685E+02  8.06853E+02
  9.33759E+02 -5.27336E+02 -1.64067E+02  3.74681E+02 -2.25499E+02  1.16896E+03  7.00266E+02  2.51183E+02
