 $NMID ID='MM_0lb_SNR200_13hz_g40_43.RAW', FMTDAT='(8E13.5)'
 TRAMP=1., VOLUME=1. $END
  3.09916E+05  1.03279E+03  3.36687E+05  2.50416E+05  8.35181E+04  3.36768E+05 -1.31749E+05  2.51269E+05
 -1.88875E+05  8.15858E+04 -1.12127E+05 -3.22764E+04  1.21273E+03 -5.06512E+04  5.33623E+04  1.54105E+03
  3.45218E+04  5.17877E+04 -1.57816E+04  7.55402E+04 -6.18957E+04  6.33725E+04 -8.32427E+04  3.11172E+04
 -8.13590E+04 -1.15355E+04 -5.80300E+04 -5.11700E+04 -1.54189E+04 -6.90357E+04  2.83142E+04 -4.50680E+04
  4.03189E+04  4.24141E+03  1.61332E+04  4.85397E+04 -3.39770E+04  4.69520E+04 -6.61155E+04 -7.93311E+02
 -5.30723E+04 -5.79805E+04 -6.75465E+03 -7.59414E+04  3.42442E+04 -5.43385E+04  4.80513E+04 -1.74782E+04
  4.37667E+04  1.23058E+04  3.16613E+04  2.66021E+04  1.49318E+04  3.00430E+04 -5.74287E+03  2.92130E+04
 -2.25956E+04  1.40235E+04 -1.96781E+04 -4.01372E+03  4.61439E+03 -6.86731E+03  2.14633E+04  1.29040E+04
  7.31748E+03  3.54739E+04 -3.25868E+04  3.61971E+04 -6.39252E+04  1.83761E+03 -5.63988E+04 -4.20917E+04
 -1.26837E+04 -6.35955E+04  3.91401E+04 -4.56870E+04  5.77577E+04 -1.95179E+03  3.31717E+04  3.01894E+04
 -4.84655E+03  3.56676E+04 -2.95488E+04  1.65545E+04 -3.18685E+04 -4.93864E+03 -1.71011E+04 -1.15238E+04
 -7.94415E+03 -1.22084E+04 -8.83869E+02 -1.86058E+04  7.34895E+03 -2.20474E+04  1.53759E+04 -1.44047E+04
  9.94501E+03  4.68036E+03 -7.62537E+03  1.26945E+04 -2.27488E+04 -5.11507E+03 -8.14464E+03 -3.38767E+04
  2.15231E+04 -4.36266E+04  4.84245E+04 -1.92313E+04  4.50617E+04  2.13112E+04  1.36615E+04  4.49773E+04
 -1.60093E+04  3.39082E+04 -2.51179E+04  1.68844E+03 -9.56742E+03 -2.80925E+04  2.12951E+04 -3.40612E+04
  4.04954E+04 -8.22767E+03  3.54200E+04  2.47196E+04  1.92991E+04  4.66745E+04 -6.82062E+03  4.94546E+04
 -3.18415E+04  3.32672E+04 -4.28154E+04  9.23388E+03 -4.39344E+04 -1.60040E+04 -2.22547E+04 -3.75757E+04
  7.40400E+03 -3.76595E+04  3.13647E+04 -1.45726E+04  3.03696E+04  1.01455E+04  4.44667E+03  2.04396E+04
 -1.28044E+04  8.84403E+03 -9.32873E+03 -8.08042E+03  6.84560E+03 -1.03990E+04  1.72238E+04  6.13625E+03
  1.36339E+04  2.27156E+04 -5.84391E+03  2.55593E+04 -2.25522E+04  1.11018E+04 -2.76141E+04 -5.28568E+03
 -2.11990E+04 -1.66484E+04 -7.78377E+03 -2.03975E+04  4.13376E+03 -1.93828E+04  1.64115E+04 -1.88982E+04
  2.68419E+04 -1.26172E+04  3.30441E+04  3.39105E+03  2.43439E+04  2.02817E+04  4.00290E+03  3.62787E+04
 -1.81586E+04  3.14696E+04 -2.79667E+04  1.00227E+04 -2.11612E+04 -9.32453E+03 -4.17191E+03 -1.35452E+04
  2.43918E+03 -3.90279E+03 -6.27225E+03  7.69158E+03 -1.65376E+04  5.99079E+03 -1.60450E+04 -6.99319E+03
 -9.73449E+03 -2.01001E+04  6.40355E+03 -2.31355E+04  1.60373E+04 -1.65023E+04  1.85525E+04 -2.11624E+03
  1.06847E+04  1.30607E+04 -4.60173E+02  1.90654E+04 -1.29145E+04  1.17108E+04 -1.90116E+04 -3.36980E+03
 -1.36595E+04 -1.84701E+04 -1.80418E+03 -2.31042E+04  1.04878E+04 -1.94750E+04  1.94022E+04 -8.52475E+03
  1.73803E+04  1.42895E+03  1.37375E+04  5.02246E+03  6.43784E+03  6.41435E+01  1.07483E+04  6.42935E+00
  1.78813E+04  2.85293E+03  1.87950E+04  1.57816E+04  1.33211E+04  3.05581E+04 -2.51496E+03  3.43915E+04
 -1.99318E+04  2.66248E+04 -3.14349E+04  1.39859E+04 -3.39743E+04 -1.12100E+03 -2.77714E+04 -1.98841E+04
 -1.33069E+04 -2.85205E+04  8.81491E+03 -2.57772E+04  2.13703E+04 -1.27875E+04  1.95868E+04  5.91285E+03
  7.32569E+03  1.41191E+04 -9.71269E+03  1.24773E+04 -1.68537E+04  2.01854E+03 -1.30600E+04 -9.11088E+03
 -2.64912E+02 -1.57594E+04  8.14796E+03 -1.20493E+04  1.04864E+04 -1.46464E+03  2.23537E+03  6.79967E+03
 -7.47782E+03  2.49378E+03 -6.20735E+03 -4.76388E+03 -3.47600E+02 -1.43479E+04  1.11990E+04 -1.50421E+04
  1.67765E+04 -8.29056E+03  1.65652E+04  3.92272E+03  1.55609E+04  1.30710E+04  7.48831E+03  1.99643E+04
 -3.69998E+03  2.31916E+04 -1.40610E+04  1.41523E+04 -1.53996E+04  3.28234E+03 -1.15584E+04 -3.35764E+03
 -6.44101E+03 -5.57809E+03 -6.65111E+02  8.12544E+02 -1.78027E+03  2.09741E+03 -5.55144E+03  5.38149E+03
 -1.06957E+04 -3.36172E+02 -1.11214E+04 -9.43330E+03 -4.45277E+03 -1.59437E+04  3.87384E+03 -1.08428E+04
  9.68602E+03 -5.68737E+03  6.79542E+03  2.47159E+03  9.83088E+01  4.39135E+03 -6.49430E+03 -1.04957E+03
 -4.53180E+03 -6.85993E+03 -5.28472E+02 -1.06629E+04  5.96523E+03 -1.17932E+04  1.33073E+04 -6.66243E+03
  1.60401E+04  1.81243E+03  1.16308E+04  9.42457E+03  2.47728E+03  1.35245E+04 -6.62648E+03  1.18850E+04
 -9.03237E+03  3.65422E+03 -5.72058E+03 -3.42880E+03  1.49678E+03 -4.90595E+03  5.46961E+03 -1.04141E+03
  5.84181E+03  5.23202E+03 -1.97012E+02  9.06446E+03 -6.51512E+03  9.58295E+03 -1.01633E+04  1.77975E+03
 -7.43846E+03 -6.95464E+03  3.60425E+02 -9.49098E+03  5.74307E+03 -5.75218E+03  5.28220E+03  3.10417E+03
 -1.54849E+02  6.36589E+03 -6.01054E+03  7.80441E+03 -8.49079E+03  3.45847E+03 -7.62782E+03 -4.38809E+03
 -5.02503E+03 -1.01562E+04  3.23269E+03 -1.14778E+04  9.06227E+03 -8.21552E+03  1.09177E+04  1.72328E+03
  6.34391E+03  8.86272E+03 -1.52588E+03  1.10429E+04 -8.43119E+03  4.51814E+03 -8.33047E+03 -1.13292E+03
 -7.57001E+03 -6.47764E+03 -9.07999E+02 -7.68152E+03  4.75999E+03 -6.87799E+03  3.73989E+03 -3.87558E+03
  5.17911E+03  1.96907E+03 -1.01541E+03  1.23132E+03 -2.75487E+02 -3.53410E+03  8.07382E+02 -4.24002E+03
  8.12588E+03 -2.45522E+03  1.10753E+04  4.82753E+02  9.63536E+03  5.45424E+03  7.07674E+03  1.30024E+04
 -2.42346E+03  1.52742E+04 -1.32863E+04  1.08944E+04 -1.62741E+04  1.56260E+03 -1.32565E+04 -4.53634E+03
 -7.32535E+03 -1.10930E+04 -6.34408E+02 -8.24008E+03  4.00310E+03 -6.16325E+03  4.49851E+03 -3.99768E+03
  3.42177E+03 -1.06219E+03  2.17565E+03 -2.24588E+03  4.48992E+03 -3.03082E+03  5.83897E+03 -7.39382E+01
  7.34333E+03  2.13449E+03  3.64968E+03  6.14093E+03 -2.11539E+03  5.83852E+03 -6.37888E+03  4.26275E+03
 -1.03218E+04 -1.43982E+03 -5.26421E+03 -6.41573E+03 -3.48602E+01 -9.09784E+03  5.80722E+03 -1.06243E+04
  9.53506E+03 -4.85853E+03  1.24566E+04  1.06492E+03  8.85883E+03  8.83474E+03  1.13423E+03  1.23208E+04
 -3.85132E+03  8.39636E+03 -5.59809E+03  3.03231E+03 -4.90715E+03 -1.10996E+03 -1.65441E+03 -1.35081E+03
 -1.17781E+03  6.00734E+02 -9.07771E+02  2.89188E+03 -3.94817E+03  1.12216E+03 -6.02121E+03 -9.37354E+02
 -3.96526E+03 -6.67258E+03  2.11089E+02 -8.60535E+03  6.42272E+03 -7.26616E+03  7.86766E+03 -1.35921E+03
  7.41976E+03  4.47111E+03  4.47016E+03  6.74890E+03 -1.25087E+03  7.89289E+03 -5.93871E+03  5.74112E+03
 -8.05176E+03  7.87738E+02 -5.65180E+03 -5.70209E+03 -1.15343E+03 -8.33090E+03  4.16690E+03 -4.69753E+03
  5.71113E+03 -2.99215E+03  4.90015E+03  1.74498E+03  2.00017E+02  2.01380E+03  1.29987E+03  1.01315E+03
  3.40127E+03  2.78068E+02  2.24250E+03  2.68732E+03  1.94038E+03  3.61670E+03  2.46480E+03  4.33309E+03
 -1.38082E+03  7.59500E+03 -5.84530E+03  6.45610E+03 -7.55210E+03  1.58186E+03 -7.52233E+03 -3.18466E+03
 -5.65071E+03 -8.68144E+03  2.14143E+03 -1.05610E+04  4.97472E+03 -5.76762E+03  6.08294E+03 -1.39112E+03
  4.71087E+03  4.33531E+03  9.17981E+02  4.86208E+03 -1.62356E+03  3.15728E+03 -4.27651E+03 -1.03766E+03
 -1.60869E+03 -4.16190E+03  1.66035E+03 -3.05642E+03  3.40773E+03 -1.88262E+03  5.07399E+03  1.04376E+03
  1.99217E+03  2.70029E+02  1.09837E+03  1.18952E+03 -1.08491E+02  1.31842E+03  3.94400E+02 -1.22514E+03
  1.44508E+03 -9.88489E+01  3.21217E+03  1.86922E+03  1.48818E+03  4.33478E+03  5.21599E+01  6.15218E+03
 -3.90301E+03  3.19810E+03 -5.45122E+03  1.28919E+03 -5.09861E+03 -2.18340E+03 -1.81343E+03 -4.43122E+03
 -1.55853E+02 -3.49906E+03  1.75713E+03 -1.21076E+03  2.36356E+03  2.39932E+03 -1.91727E+02  2.56698E+03
 -2.36066E+03  2.38858E+03 -4.80735E+03 -1.85743E+03 -3.24132E+03 -5.25480E+03  6.50950E+02 -4.02053E+03
  2.68565E+03 -1.60167E+03  2.70598E+03  5.46037E+02  3.12446E+03  6.68980E+02  7.58895E+02  2.46423E+03
 -1.59453E+03  1.55226E+03 -1.75481E+03 -2.08904E+03  1.29638E+03 -2.09012E+03  2.71043E+03 -2.61810E+03
  4.08117E+03  3.27287E+02  4.04249E+03  2.63745E+03  1.57503E+03  4.86563E+03 -2.18733E+03  4.43860E+03
 -4.80980E+03  1.23232E+03 -3.73475E+03 -7.96986E+02 -2.57103E+03 -3.31610E+03  8.47311E+02 -2.93391E+03
  3.28311E+03 -1.56461E+03  6.70567E+02  9.69421E+02  5.04956E+02  3.34912E+03  1.81664E+02  1.60226E+03
 -1.64626E+03  1.73575E+03 -1.15727E+03 -7.37907E+01  8.39561E+01  7.79452E+02 -1.22933E+03 -5.18108E+02
 -9.08611E+02  1.43281E+03 -1.96763E+03  2.90380E+03 -5.43679E+03 -2.78592E+02 -5.15304E+03 -3.13411E+03
 -2.71419E+03 -6.47781E+03  2.04738E+03 -6.64758E+03  4.04555E+03 -6.52080E+03  6.26965E+03 -2.74285E+03
  7.57267E+03  5.79459E+02  2.74728E+03  4.45302E+03  1.34380E+02  5.55348E+03 -1.33081E+03  5.14354E+03
 -3.87196E+03  1.25373E+03 -1.40982E+03 -5.37291E+02 -1.02500E+03 -4.82689E+02 -3.72538E+02 -7.62807E+01
 -1.78050E+03 -5.39019E+02 -8.74138E+02 -3.81715E+02 -1.12780E+03 -1.35888E+03  7.31730E+02 -2.64347E+03
  1.85909E+03 -1.68478E+03  2.52282E+03 -1.08151E+03  3.12218E+03  3.23954E+03  3.49030E+00  6.16014E+03
 -3.32305E+03  5.72355E+03 -4.12392E+03  3.73561E+03 -5.76604E+03 -3.27391E+02 -4.25868E+03 -3.85117E+03
 -6.96882E+02 -5.07275E+03  1.36673E+03 -2.70922E+03  2.76351E+03 -2.72371E+03  2.64127E+03  9.74829E+01
  2.56639E+03  1.92794E+03 -7.24030E+01  8.03332E+02 -7.62050E+02  3.68033E+02 -7.26575E+02 -7.03237E+02
  1.93468E+03 -1.09081E+03  1.18935E+03  7.13583E+02  1.28888E+02  1.57528E+03  1.61524E+02  1.89399E+03
 -1.18179E+03  1.85714E+03 -2.66189E+03  2.10433E+02 -3.33913E+03 -1.29817E+03  2.84257E+00 -3.42163E+03
  1.08196E+03 -3.89360E+03  3.38029E+03  2.02246E+02  2.71882E+03 -2.87087E+02  1.69817E+03  2.88608E+03
  7.45875E+01  2.57627E+03 -1.14303E+03  2.01446E+03 -2.25782E+03  1.11612E+03 -2.27026E+03  7.08396E+02
 -1.50719E+02 -2.35784E+02 -7.58205E+02  2.16751E+02 -4.95817E+02 -4.15127E+01 -2.23658E+03 -6.33848E+02
 -3.11138E+03 -1.58586E+03 -9.27285E+02 -3.47902E+03  1.79452E+03 -3.99680E+03  4.20440E+03 -1.18901E+03
  2.75154E+03 -8.77388E+02  1.52838E+03  2.39229E+03  1.83544E+02  3.22439E+03 -1.78802E+03  1.63337E+03
