 $NMID ID='MM_0lb_SNR200_20hz_g50_38.RAW', FMTDAT='(8E13.5)'
 TRAMP=1., VOLUME=1. $END
  3.09964E+05  6.25488E+02  3.37195E+05  2.51282E+05  8.46857E+04  3.36314E+05 -1.33163E+05  2.50518E+05
 -1.89884E+05  8.20502E+04 -1.10587E+05 -3.29063E+04  1.02761E+03 -5.00897E+04  5.28936E+04 -6.79822E+01
  3.51381E+04  5.34593E+04 -1.68607E+04  7.55325E+04 -5.95573E+04  6.24916E+04 -8.34298E+04  3.07541E+04
 -7.94241E+04 -1.09843E+04 -5.58340E+04 -4.97171E+04 -1.52515E+04 -6.77196E+04  2.75097E+04 -4.48618E+04
  3.80289E+04  3.48911E+03  1.56222E+04  4.76367E+04 -3.35239E+04  4.57706E+04 -6.48945E+04 -6.20682E+02
 -5.17746E+04 -5.55406E+04 -6.83848E+03 -7.51386E+04  3.36766E+04 -5.26834E+04  4.61146E+04 -1.75005E+04
  4.07412E+04  1.07906E+04  3.04671E+04  2.45290E+04  1.52747E+04  2.78527E+04 -4.51775E+03  2.73939E+04
 -2.20035E+04  1.29721E+04 -1.88063E+04 -4.24700E+03  4.32474E+03 -6.45851E+03  2.09610E+04  9.60802E+03
  7.42543E+03  3.29011E+04 -3.03732E+04  3.36507E+04 -6.05664E+04  2.50128E+03 -5.55383E+04 -4.11603E+04
 -1.23614E+04 -6.04125E+04  3.77864E+04 -4.16629E+04  5.45454E+04 -9.03078E+02  3.16280E+04  3.15131E+04
 -6.95570E+03  3.23399E+04 -2.78937E+04  1.25712E+04 -2.69120E+04 -4.79835E+03 -1.31220E+04 -1.04057E+04
 -6.73435E+03 -1.22707E+04 -1.24087E+03 -1.69244E+04  6.69025E+03 -2.29214E+04  1.44708E+04 -1.42328E+04
  1.24218E+04  4.44737E+03 -5.65583E+03  1.37364E+04 -1.91837E+04 -1.91083E+03 -7.70438E+03 -3.04244E+04
  1.99584E+04 -3.98652E+04  4.47676E+04 -1.82413E+04  4.05253E+04  1.84572E+04  1.43972E+04  4.09895E+04
 -1.63379E+04  3.20315E+04 -2.37499E+04  6.54735E+02 -7.90920E+03 -2.64886E+04  2.05163E+04 -3.19184E+04
  3.75158E+04 -7.67047E+03  3.11390E+04  2.32143E+04  1.50303E+04  4.21422E+04 -9.16429E+03  4.34044E+04
 -2.86244E+04  2.95628E+04 -3.61763E+04  8.06995E+03 -3.77586E+04 -1.49497E+04 -2.12161E+04 -3.39966E+04
  6.69916E+03 -3.34266E+04  2.94043E+04 -1.22744E+04  2.59604E+04  1.03295E+04  2.39661E+03  1.69900E+04
 -1.29877E+04  7.01216E+03 -9.85383E+03 -8.06907E+03  5.98080E+03 -9.81494E+03  1.68760E+04  6.33750E+03
  1.32506E+04  2.10599E+04 -6.00298E+03  2.17816E+04 -2.14062E+04  8.61286E+03 -2.49727E+04 -5.93308E+03
 -1.55666E+04 -1.67501E+04 -4.38220E+03 -1.49950E+04  3.78419E+03 -1.36621E+04  1.17722E+04 -1.30116E+04
  1.99943E+04 -1.08969E+04  2.72201E+04 -6.36288E+01  2.02977E+04  1.54871E+04  3.89547E+03  3.11365E+04
 -1.50292E+04  2.79778E+04 -2.58409E+04  9.64952E+03 -1.95950E+04 -9.70833E+03 -3.25937E+03 -1.43718E+04
  3.10799E+03 -4.75519E+03 -1.64668E+03  4.15252E+03 -1.26567E+04  4.50183E+03 -1.22698E+04 -3.74466E+03
 -8.70018E+03 -1.44767E+04  4.34323E+03 -1.90021E+04  1.24603E+04 -1.35901E+04  1.43162E+04 -4.55454E+02
  9.74111E+03  1.03356E+04 -2.54263E+02  1.49367E+04 -9.88563E+03  9.27313E+03 -1.36975E+04 -5.03507E+03
 -1.14053E+04 -1.38784E+04 -7.10508E+02 -1.85820E+04  7.52807E+03 -1.47800E+04  1.56850E+04 -7.05508E+03
  1.40909E+04  6.18913E+02  1.00644E+04  4.10601E+03  4.72249E+03  1.07159E+03  7.71413E+03 -7.82220E+02
  1.27748E+04  2.69203E+03  1.51935E+04  1.28652E+04  7.77410E+03  2.41972E+04 -3.31481E+03  2.44346E+04
 -1.51913E+04  1.83386E+04 -2.18794E+04  8.89990E+03 -2.30579E+04 -1.41204E+03 -1.90502E+04 -1.41466E+04
 -9.20991E+03 -1.78809E+04  6.55318E+03 -1.76479E+04  1.54320E+04 -1.05510E+04  1.61912E+04  2.42760E+03
  6.79378E+03  9.96371E+03 -6.40807E+03  1.02801E+04 -1.20849E+04  3.29860E+03 -9.19820E+03 -8.04115E+03
  1.17216E+02 -1.12447E+04  5.62950E+03 -1.04378E+04  6.43821E+03 -1.76717E+03  1.88975E+03  4.09394E+03
 -5.44861E+03  1.28782E+03 -2.88362E+03 -3.55155E+03  1.41782E+03 -9.53567E+03  8.34975E+03 -9.47367E+03
  1.19043E+04 -4.97116E+03  1.10009E+04  3.40012E+03  9.22876E+03  9.54239E+03  4.68669E+03  1.30964E+04
 -1.49892E+03  1.44465E+04 -8.16775E+03  9.95523E+03 -9.39397E+03  2.75676E+03 -6.80606E+03 -1.17805E+03
 -3.61102E+03 -2.75098E+03 -9.18039E+02  1.05622E+03 -1.50927E+03  2.43066E+03 -2.71997E+03  3.09892E+03
 -7.83194E+03 -3.07561E+02 -9.04423E+03 -5.49997E+03 -3.18800E+03 -9.58484E+03  3.35829E+03 -8.69344E+03
  6.61920E+03 -3.90685E+03  4.78960E+03  1.60498E+03 -1.74029E+02  3.31841E+03 -2.77166E+03 -4.69987E+02
 -2.20189E+03 -6.03973E+03 -2.62974E+02 -6.40147E+03  3.74761E+03 -7.77027E+03  8.32628E+03 -3.73332E+03
  9.88934E+03 -5.25664E+01  9.15435E+03  6.44963E+03  9.09012E+02  7.18361E+03 -3.67611E+03  6.81967E+03
 -5.71151E+03  2.72310E+03 -3.13856E+03 -1.30873E+03  1.37546E+03 -1.37298E+03  4.31138E+03 -2.68131E+02
  4.38405E+03  3.33914E+03  2.15263E+03  6.69925E+03 -3.68263E+03  5.45644E+03 -5.98336E+03  1.65893E+03
 -4.44293E+03 -3.24552E+03  8.19445E+01 -6.16654E+03  3.09286E+03 -2.68696E+03  2.98678E+03  8.35580E+02
 -5.43864E+02  3.85056E+03 -3.93992E+03  4.45860E+03 -3.58921E+03  2.48730E+03 -3.17732E+03 -1.00269E+03
 -3.24251E+03 -4.52871E+03 -1.20998E+02 -5.51934E+03  5.00044E+03 -4.14986E+03  5.20777E+03  1.18441E+03
  4.69347E+03  4.78219E+03 -4.92818E+02  5.03771E+03 -5.71359E+03  2.34280E+03 -4.33735E+03 -4.67026E+02
 -4.69140E+03 -4.25996E+03 -1.32771E+03 -4.71914E+03  1.82859E+03 -3.66968E+03  2.18248E+03 -2.81577E+03
  2.52060E+03 -1.19425E+02 -7.85474E+02  7.39344E+02  1.08226E+03 -2.21504E+02 -9.40432E+02 -2.70062E+03
  2.65525E+03  4.08729E+02  4.90401E+03 -3.15332E+02  5.26303E+03  1.66530E+03  5.24802E+03  5.28589E+03
 -1.63947E+03  6.80766E+03 -6.58000E+03  5.14683E+03 -8.21222E+03  7.86288E+02 -6.94438E+03 -1.28605E+03
 -5.30382E+03 -6.62038E+03 -2.65944E+02 -4.68171E+03  2.82933E+03 -1.23427E+03  1.24050E+03 -1.67333E+03
  2.80567E+02 -1.96957E+03  2.15289E+03 -1.81950E+03  3.29180E+03 -5.76133E+02  3.11206E+03 -6.21148E+02
  3.87166E+03  9.94717E+02  3.37116E+02  3.81785E+03 -2.56949E+03  2.72142E+03 -4.79772E+03  2.38601E+03
 -3.67072E+03 -8.22556E+02 -1.48398E+03 -1.76643E+03  1.99328E+03 -3.76859E+03  2.73429E+03 -4.72906E+03
  3.74010E+03 -2.10493E+03  6.38266E+03  5.26770E+02  4.48559E+03  2.68684E+03  1.39807E+03  5.62898E+03
 -9.17617E+02  5.28209E+03 -2.57226E+03  1.63133E+03 -6.93292E+02 -2.05464E+03  4.59358E+02 -1.08982E+03
 -5.93579E+02 -1.67235E+02 -1.01767E+03  3.64927E+03 -2.20454E+03  1.02893E+03 -4.29619E+03 -1.06346E+03
 -1.57044E+03 -3.55931E+03  1.02331E+03 -4.26454E+03  2.40736E+03 -3.44795E+03  2.20333E+03 -9.28282E+02
  2.50765E+03  2.29627E+03  1.39969E+03  2.64915E+03 -1.13911E+03  2.70926E+03 -2.84217E+03  2.30514E+03
 -2.49061E+03  1.03102E+03 -3.02428E+03 -1.65829E+03  4.75226E+02 -2.17494E+03  1.37706E+03 -1.14629E+03
  2.21227E+03 -8.10306E+02  1.49277E+03  1.00075E+03  1.19848E+03  1.49301E+03  1.07028E+03  4.12962E+02
  1.92923E+03  1.16792E+03  1.94928E+03  9.15558E+00  1.08284E+03  8.18599E+02  1.03027E+03  1.05157E+03
 -1.25850E+03  1.55220E+03 -2.03135E+03  4.36929E+03 -2.00272E+03  2.18957E+02 -2.23334E+03  5.46852E+02
 -1.24096E+03 -2.69673E+03  1.07444E+03 -5.64401E+03  1.15966E+03 -8.02859E+02  1.70587E+03 -3.21995E+02
  2.22652E+03  3.47995E+02 -5.69923E+02  2.02489E+03 -6.76885E+02  4.91243E+02 -3.50119E+02 -6.83281E+01
  3.37799E+01 -1.18681E+03  1.08650E+03 -4.38360E+02  1.29688E+03 -1.54740E+03  9.58923E+02  4.36410E+02
  1.10012E+03  2.53741E+02  3.52763E+02  1.53922E+02  8.40303E+02  1.05437E+03  1.44269E+03  4.61597E+01
 -2.47139E+02 -6.54802E+02  1.74436E+03  2.56840E+02  3.36272E+02  1.65736E+03 -6.07697E+02  1.59039E+03
 -1.57181E+03  2.33913E+02 -7.21347E+02  3.91968E+02 -1.15004E+03 -8.01258E+02  1.02902E+03 -9.22919E+02
  6.43346E+02 -1.16814E+03  1.47739E+02 -7.71392E+02  1.10740E+03  2.29674E+03 -5.39219E+02  3.83728E+02
 -1.69396E+03 -1.72786E+02  7.44620E+02 -1.97939E+03 -1.10797E+03 -1.91524E+03  7.40645E+02 -7.55724E+02
 -1.10234E+02 -1.03643E+03  9.43905E+02  6.86707E+02  1.87430E+03  6.42410E+02  6.68915E+02 -1.50018E+02
  5.97998E+02 -2.86948E+02 -1.29260E+03  8.60035E+02  5.14280E+02 -4.88410E+02  1.11978E+03  3.24606E+02
  4.04997E+02 -6.06512E+02  2.21262E+03  1.81224E+03  3.51929E+02  1.88686E+03  2.35252E+02  1.22446E+03
 -1.66748E+03  6.20343E+02 -7.61745E+02 -2.12386E+02 -7.33704E+02 -1.73513E+03 -1.37594E+02  7.74221E+01
  2.99160E+02  5.48098E+02  8.80268E+02  9.61020E+02 -5.48926E+01  1.37799E+03  3.32486E+01  1.11319E+03
 -3.48003E+02  1.45891E+03 -3.40394E+02  3.23096E+02 -3.89682E+02 -8.53860E+00  1.24408E+02  8.09674E+02
 -9.47636E+02  9.78499E+02 -7.78814E+02  8.42385E+02 -1.21501E+03 -2.54762E+02 -1.65174E+03  1.82136E+02
 -1.16908E+03 -1.39971E+03 -2.51302E+02 -2.41402E+03  4.61834E+02 -2.29094E+03  2.79523E+03 -1.64053E+02
  1.42782E+03 -1.35513E+03  4.17719E+02  7.98736E+02 -7.89358E+02  6.08450E+02 -1.57550E+03  1.23981E+03
 -4.82432E+02 -5.51834E+01 -9.84611E+02  7.59635E+02 -5.12521E+02  5.81694E+02 -9.02284E+02  8.27985E+01
 -1.68245E+03 -6.09444E+02 -1.10831E+03 -4.54206E+02 -3.05082E+02  2.99958E+02 -2.79873E+02 -1.37783E+03
  1.29578E+03 -3.75029E+02  2.86576E+02  4.13800E+02  5.66896E+02  6.24984E+02 -4.25575E+02  9.51323E+02
 -6.94993E+02  1.36636E+03 -2.24673E+03  1.28493E+03 -6.41395E+02 -1.18614E+03 -1.53675E+03 -1.74944E+03
 -3.73456E+02 -1.65230E+03 -1.98421E+02 -4.17291E+01  1.01414E+03 -2.68123E+02 -9.89569E+01 -8.73317E+01
  7.25181E+02 -4.20712E+02  5.46252E+02  6.26457E+01  5.68978E+02 -8.00335E+02 -4.64967E+02  7.30058E+02
 -2.09922E+02  1.37955E+03  5.29239E+02  1.04709E+03 -7.97825E+02  1.17563E+03 -3.60155E+02  4.43738E+02
 -1.00847E+03 -1.06554E+02 -5.20912E+02  1.61517E+02 -7.03071E+02 -4.73170E+02 -4.50700E+02 -3.04353E+02
  2.90095E+02  8.37371E+01  1.16812E+03 -1.80040E+02  1.38152E+03 -3.95332E+02  3.39743E+02  1.33037E+03
  3.15686E+02  1.23164E+03  5.20076E+02  1.59468E+03 -6.31445E+01  1.33963E+02  2.69344E+02  8.66934E+02
 -1.68819E+02  4.62235E+02 -6.94571E+02 -1.53678E+03 -8.48665E+02  1.22654E-01 -6.47486E+02  2.07481E+02
 -1.03651E+03  2.32891E+02 -1.41262E+03 -1.08445E+03  4.59789E+02 -1.38796E+03  5.17641E+02 -4.87757E+02
  8.56990E+02  7.15086E+02 -1.81562E+02  2.60540E+02 -4.87948E+01  9.54826E+02  8.45941E+02  1.09970E+03
