 $NMID ID='MM_0lb_SNR200_10hz_g50_14.RAW', FMTDAT='(8E13.5)'
 TRAMP=1., VOLUME=1. $END
  3.09958E+05 -5.39223E+01  3.38670E+05  2.49855E+05  8.43214E+04  3.38190E+05 -1.32763E+05  2.51423E+05
 -1.91442E+05  8.41386E+04 -1.12978E+05 -3.33112E+04  7.71724E+02 -5.16134E+04  5.42395E+04 -8.71988E+02
  3.53867E+04  5.37308E+04 -1.69239E+04  7.49350E+04 -6.11385E+04  6.37704E+04 -8.55075E+04  3.09587E+04
 -8.26670E+04 -1.32383E+04 -5.95750E+04 -5.23255E+04 -1.49018E+04 -7.24009E+04  2.74751E+04 -4.67102E+04
  4.20264E+04  3.51206E+03  1.51069E+04  4.93093E+04 -3.61663E+04  4.82120E+04 -6.63708E+04 -3.36675E+02
 -5.32777E+04 -5.83183E+04 -7.64245E+03 -7.89615E+04  3.35925E+04 -5.44894E+04  4.88415E+04 -1.84823E+04
  4.38681E+04  1.16278E+04  3.31271E+04  2.58084E+04  1.45275E+04  2.87535E+04 -5.99113E+03  2.59925E+04
 -2.19011E+04  1.27431E+04 -1.92851E+04 -6.06957E+03  5.45013E+03 -6.61711E+03  2.37653E+04  1.34870E+04
  7.95363E+03  3.60087E+04 -3.34199E+04  3.71773E+04 -6.52052E+04  3.02159E+03 -5.76455E+04 -4.37356E+04
 -1.26374E+04 -6.49545E+04  4.15549E+04 -4.68356E+04  6.06206E+04 -3.54643E+03  3.66578E+04  3.38942E+04
 -7.83595E+03  3.86686E+04 -3.22078E+04  1.86513E+04 -3.22070E+04 -3.58916E+03 -1.87276E+04 -1.09927E+04
 -9.59871E+03 -1.62904E+04 -1.23781E+03 -1.84902E+04  8.64709E+03 -2.47091E+04  1.65842E+04 -1.33778E+04
  9.65949E+03  6.02401E+03 -1.14839E+04  1.37103E+04 -2.31982E+04 -6.19171E+03 -7.71698E+03 -3.55139E+04
  2.35484E+04 -4.68898E+04  5.16414E+04 -2.01760E+04  4.90735E+04  1.99326E+04  1.80953E+04  4.51653E+04
 -1.55196E+04  3.53947E+04 -2.53678E+04  2.24161E+03 -9.93617E+03 -2.96356E+04  1.94683E+04 -3.51153E+04
  4.41898E+04 -1.20448E+04  3.96065E+04  2.53181E+04  2.20165E+04  5.02832E+04 -9.24102E+03  5.55483E+04
 -3.45922E+04  3.85943E+04 -4.63214E+04  1.06129E+04 -4.59423E+04 -1.71874E+04 -2.44331E+04 -4.10183E+04
  7.46725E+03 -4.00363E+04  3.35126E+04 -1.65497E+04  3.21680E+04  1.14896E+04  6.12060E+03  2.11352E+04
 -1.40579E+04  9.07325E+03 -9.83541E+03 -6.31974E+03  5.25033E+03 -1.03395E+04  1.95734E+04  5.23237E+03
  1.56541E+04  2.14916E+04 -6.42159E+03  2.68249E+04 -2.34120E+04  1.34155E+04 -3.12460E+04 -3.88050E+03
 -2.40983E+04 -1.65699E+04 -1.08249E+04 -2.39710E+04  4.10859E+03 -2.38170E+04  1.99161E+04 -2.11544E+04
  3.08091E+04 -1.44195E+04  3.79994E+04  4.24073E+03  2.72672E+04  2.43767E+04  5.76380E+03  3.88660E+04
 -1.90169E+04  3.35157E+04 -3.04498E+04  1.22382E+04 -2.15260E+04 -1.04537E+04 -4.69765E+03 -1.30697E+04
  2.52080E+03 -1.14206E+03 -6.39790E+03  7.76549E+03 -2.03704E+04  5.59352E+03 -1.92013E+04 -8.74378E+03
 -1.12181E+04 -2.29256E+04  6.45945E+03 -2.77808E+04  1.77609E+04 -1.96034E+04  2.29034E+04 -1.55930E+03
  1.42897E+04  1.44633E+04 -1.46927E+03  2.21557E+04 -1.57821E+04  1.41261E+04 -2.16779E+04 -5.07440E+03
 -1.64844E+04 -2.09453E+04 -1.03134E+03 -2.65066E+04  1.22537E+04 -2.29089E+04  2.08267E+04 -1.05818E+04
  2.15994E+04  2.95824E+02  1.55989E+04  3.85403E+03  8.65191E+03  3.42276E+02  1.23294E+04 -2.11370E+03
  2.07291E+04  2.56499E+03  2.41252E+04  1.82462E+04  1.76718E+04  3.58026E+04 -3.39988E+03  4.15895E+04
 -2.46642E+04  3.56029E+04 -3.85120E+04  1.87487E+04 -4.16885E+04 -9.19961E+02 -3.49196E+04 -2.44578E+04
 -1.58466E+04 -3.54341E+04  1.31742E+04 -3.02217E+04  2.66158E+04 -1.44019E+04  2.14554E+04  7.43166E+03
  7.26559E+03  1.86033E+04 -1.02690E+04  1.42588E+04 -2.05471E+04  2.93780E+03 -1.50776E+04 -1.24079E+04
 -1.39380E+03 -1.91762E+04  9.93737E+03 -1.46075E+04  1.25004E+04 -1.00928E+03  2.81142E+03  7.58994E+03
 -8.33308E+03  4.90598E+03 -8.35909E+03 -6.48543E+03 -2.28529E+03 -1.70418E+04  1.19735E+04 -1.95780E+04
  2.08945E+04 -9.91008E+03  2.48704E+04  3.43169E+03  2.11787E+04  1.78979E+04  1.04197E+04  2.73140E+04
 -4.37617E+03  2.77199E+04 -1.82387E+04  1.84107E+04 -2.08979E+04  5.10719E+03 -1.57053E+04 -5.56299E+03
 -6.73791E+03 -7.25692E+03 -5.35590E+02  6.12835E+02 -1.74813E+03  2.05403E+03 -6.89499E+03  5.31215E+03
 -1.29916E+04 -2.18414E+03 -1.26311E+04 -1.08680E+04 -6.51294E+03 -1.83527E+04  5.80477E+03 -1.47885E+04
  1.31611E+04 -6.17680E+03  8.51155E+03  3.68283E+03 -9.34926E+02  6.19302E+03 -7.25901E+03  3.99350E+02
 -6.17786E+03 -8.93804E+03 -1.94817E+03 -1.53400E+04  8.53598E+03 -1.63468E+04  1.72591E+04 -7.00028E+03
  2.22711E+04  2.75279E+03  1.63982E+04  1.46346E+04  1.52137E+03  1.77173E+04 -8.14902E+03  1.36454E+04
 -1.13574E+04  4.35606E+03 -5.16789E+03 -1.70491E+03  3.49155E+03 -4.57198E+03  7.47432E+03  2.00753E+03
  5.92883E+03  6.57415E+03  1.73706E+03  1.04172E+04 -8.53353E+03  1.06133E+04 -1.39778E+04  2.70034E+03
 -9.62665E+03 -8.06035E+03  3.77744E+01 -1.18345E+04  8.66084E+03 -7.01399E+03  7.63888E+03  2.49738E+03
  3.36281E+02  9.12027E+03 -8.47274E+03  1.21560E+04 -1.32284E+04  4.45187E+03 -1.36064E+04 -4.16358E+03
 -5.90672E+03 -1.50686E+04  3.91864E+03 -1.59314E+04  1.35921E+04 -1.11878E+04  1.53871E+04  1.87390E+03
  9.02944E+03  1.18585E+04 -1.38444E+03  1.50394E+04 -1.08322E+04  7.53521E+03 -1.22039E+04 -2.23337E+03
 -9.36578E+03 -1.15948E+04 -1.73751E+03 -1.10165E+04  5.61326E+03 -8.67923E+03  6.82492E+03 -2.66750E+03
  4.71018E+03  9.48317E+02 -2.80914E+02  1.51003E+03  1.82144E+02 -2.87729E+03  2.39553E+03 -6.35229E+03
  1.03670E+04 -5.64746E+03  1.60359E+04  1.69748E+03  1.24889E+04  9.02148E+03  8.82942E+03  1.92444E+04
 -4.13625E+03  2.19324E+04 -1.83622E+04  1.57030E+04 -2.39067E+04  2.78568E+03 -1.84683E+04 -9.21397E+03
 -9.02352E+03 -1.56481E+04  5.14505E+02 -1.47592E+04  6.87286E+03 -6.90256E+03  5.07636E+03 -3.78646E+03
  2.39086E+03 -3.97189E+03  3.61047E+03 -2.93699E+03  6.88045E+03 -4.16530E+03  7.84534E+03 -1.51518E+02
  1.06045E+04  2.20456E+03  3.66835E+03  6.68855E+03 -2.94176E+03  1.05085E+04 -9.31094E+03  7.38213E+03
 -1.34454E+04  4.05490E+02 -1.05590E+04 -8.46386E+03 -9.08367E+01 -1.47532E+04  8.28667E+03 -1.45819E+04
  1.41136E+04 -8.24967E+03  1.77178E+04  2.78652E+03  1.21839E+04  1.28957E+04  1.89927E+03  1.63647E+04
 -7.36956E+03  1.36217E+04 -9.63568E+03  3.39442E+03 -6.21389E+03 -7.60813E+02 -4.76781E+02 -1.33759E+03
 -2.39842E+03 -3.20370E+01 -3.03937E+03  3.93105E+03 -6.31702E+03  3.12758E+03 -1.17361E+04 -1.13767E+03
 -6.55801E+03 -9.78608E+03 -6.42198E+02 -1.39747E+04  7.96943E+03 -1.32584E+04  1.29609E+04 -3.91402E+03
  1.31225E+04  4.10309E+03  5.86877E+03  1.16461E+04 -1.62409E+03  1.32617E+04 -8.40294E+03  8.10080E+03
 -1.33113E+04 -8.21187E+01 -1.04976E+04 -6.63194E+03 -2.01932E+03 -9.67336E+03  6.23671E+03 -8.67435E+03
  7.23945E+03 -2.86896E+03  4.87968E+03  2.35670E+03  1.55484E+03  3.21072E+03  1.85556E+03  1.59074E+03
  4.32970E+03  1.56431E+02  3.86405E+03  2.66838E+03  3.52653E+03  5.65506E+03  3.75525E+03  6.81246E+03
 -3.07687E+03  9.03131E+03 -9.53164E+03  1.26251E+04 -1.25060E+04  2.73365E+03 -1.41883E+04 -6.03999E+03
 -5.92573E+03 -1.43251E+04  7.35977E+02 -1.39887E+04  9.35127E+03 -8.21739E+03  1.01520E+04 -1.99404E+03
  8.93629E+03  4.67030E+03  1.27238E+03  5.53123E+03 -4.40231E+03  5.15114E+03 -4.33838E+03 -8.55611E+02
 -2.26469E+03 -6.12724E+03  2.23654E+03 -7.27670E+03  3.77052E+03 -2.97994E+03  5.62528E+03  1.51341E+03
  3.73164E+03  2.43612E+03  8.91190E+02  2.12492E+03 -7.25203E+02  1.37532E+03  5.64623E+02 -4.98318E+02
  1.38651E+03 -6.53789E+02  6.26078E+03  1.44216E+03  2.69501E+03  7.32839E+03 -2.88099E+03  8.45155E+03
 -5.76202E+03  8.03277E+03 -8.77476E+03  6.74771E+02 -6.73531E+03 -4.75940E+03 -3.07451E+03 -4.91848E+03
  8.96959E+02 -5.94740E+03  2.38537E+03 -1.32349E+03  2.86112E+03  1.61955E+03 -1.86617E+02  3.52761E+03
 -4.06940E+03  2.88712E+03 -6.15682E+03 -2.84543E+03 -2.47363E+03 -6.82129E+03 -4.30832E+02 -9.03500E+03
  3.83536E+03 -5.10830E+03  5.63448E+03 -2.90712E+02  3.51412E+03  2.28381E+03  2.40178E+03  4.29244E+03
 -2.40759E+03  4.12718E+02 -4.29906E+03 -2.46354E+03 -2.11702E+00 -6.05326E+03  5.68128E+03 -5.01107E+03
  8.07439E+03  5.74791E+02  8.79623E+03  5.47841E+03  2.47739E+03  8.45878E+03 -1.48289E+03  8.50974E+03
 -5.93769E+03  3.33033E+03 -8.99107E+03 -1.73524E+03 -4.39628E+03 -5.90430E+03  2.22322E+03 -3.81287E+03
  4.27006E+03 -2.55983E+03  2.82525E+03  3.38081E+03  2.94396E+02  4.39530E+03 -3.33443E+02  3.56331E+03
 -1.43856E+03  3.21456E+03 -2.22883E+03 -2.09090E+02 -4.04732E+02 -2.39964E+02 -1.19852E+03  1.89794E+03
 -2.25062E+03  3.79587E+03 -4.75052E+03  3.20626E+03 -9.08162E+03  1.28064E+03 -9.88726E+03 -5.78407E+03
 -6.71127E+03 -1.11033E+04  1.64109E+03 -1.43563E+04  8.80588E+03 -9.50024E+03  1.26549E+04 -2.73675E+03
  1.19876E+04 -8.79064E+01  6.99966E+03  8.72600E+03  1.51780E+03  9.47587E+03 -2.84571E+03  6.72764E+03
 -4.06294E+03  1.76635E+03 -3.81856E+03 -1.88301E+02 -1.01706E+03 -4.31355E+02 -1.13958E+03 -1.27692E+03
 -2.98787E+03 -2.73932E+02 -2.00381E+03  2.74077E+02 -1.23003E+03 -4.35749E+03 -1.06772E+03 -3.76903E+03
  2.50059E+03 -1.79653E+03  4.98500E+03  7.34968E+01  6.69602E+03  5.06463E+03  1.36982E+03  8.84687E+03
 -3.37015E+03  9.14137E+03 -1.06239E+04  5.72970E+03 -1.25532E+04 -1.89591E+03 -8.25897E+03 -7.47440E+03
 -2.40600E+03 -7.50549E+03  2.18508E+03 -8.34857E+03  4.71989E+03 -5.26574E+03  6.96282E+03  3.23132E+02
  3.04154E+03  1.17248E+03 -1.36832E+02  2.57316E+03 -1.89114E+03  5.84691E+02  2.58132E+02 -7.37878E+02
  3.19027E+03 -3.34767E+03  3.57380E+03  2.39464E+03  5.07541E+03  2.55263E+03  6.05036E+02  5.20564E+03
 -4.84440E+03  4.59273E+03 -5.05753E+03 -4.25914E+02 -5.13905E+03 -4.06975E+03 -2.34174E+03 -7.85764E+03
  2.98256E+03 -7.03763E+03  5.95042E+03 -2.76321E+03  6.12817E+03  7.55817E+02  4.33628E+03  6.04252E+03
  6.74037E+02  5.64050E+03 -1.11175E+03  3.17844E+03 -2.81346E+03  1.93813E+03 -2.80246E+03  6.68233E+02
 -3.08175E+03  6.59371E+02 -1.19080E+03  4.12632E+02 -2.74672E+03  1.12665E+03 -5.13274E+03 -1.52726E+03
 -2.95123E+03 -1.95235E+03 -1.20517E+03 -6.90049E+03  1.59218E+03 -6.07313E+03  5.52682E+03 -3.99776E+03
  5.64088E+03  1.91574E+03  3.21428E+03  3.79666E+03 -1.48556E+03  6.14039E+03 -4.65353E+03  2.69794E+03
