 $NMID ID='MM_0lb_SNR200_8hz_g55_98.RAW', FMTDAT='(8E13.5)'
 TRAMP=1., VOLUME=1. $END
  3.10362E+05  2.36480E+03  3.38091E+05  2.51395E+05  8.30500E+04  3.37461E+05 -1.32796E+05  2.52440E+05
 -1.89916E+05  8.46500E+04 -1.11696E+05 -3.09049E+04 -1.24313E+03 -5.02251E+04  5.29379E+04 -1.78740E+01
  3.64042E+04  5.22647E+04 -1.70563E+04  7.68691E+04 -6.31876E+04  6.64224E+04 -8.66555E+04  3.36967E+04
 -8.29967E+04 -1.02399E+04 -5.79608E+04 -5.42969E+04 -1.50820E+04 -7.07178E+04  2.78727E+04 -4.65900E+04
  4.12758E+04  1.31575E+03  1.66688E+04  4.93051E+04 -3.39548E+04  4.83104E+04 -6.89617E+04  1.87806E+03
 -5.45147E+04 -5.77432E+04 -7.15275E+03 -7.86595E+04  3.65353E+04 -5.76924E+04  4.95288E+04 -1.91285E+04
  4.54633E+04  1.23783E+04  3.31829E+04  2.66299E+04  1.50127E+04  3.08108E+04 -6.99605E+03  2.85708E+04
 -2.34431E+04  1.18879E+04 -1.73253E+04 -5.20620E+03  7.55964E+03 -7.46552E+03  2.34673E+04  1.44750E+04
  7.92755E+03  3.77072E+04 -3.42692E+04  3.79504E+04 -6.76961E+04  2.67176E+03 -5.77812E+04 -4.49489E+04
 -1.26082E+04 -6.57310E+04  4.31338E+04 -4.75371E+04  6.38893E+04 -2.48073E+03  3.75067E+04  3.47655E+04
 -6.60796E+03  3.91383E+04 -3.23866E+04  2.09568E+04 -3.38546E+04 -3.15558E+03 -2.18885E+04 -1.22378E+04
 -1.11419E+04 -1.61218E+04 -5.08659E+02 -2.03205E+04  7.94261E+03 -2.36574E+04  1.61484E+04 -9.64100E+03
  1.02963E+04  4.43531E+03 -1.06326E+04  1.14824E+04 -2.48121E+04 -6.38007E+03 -9.44055E+03 -3.82263E+04
  2.65002E+04 -4.68621E+04  5.31259E+04 -2.35291E+04  4.88603E+04  2.33710E+04  1.89691E+04  4.89047E+04
 -1.82081E+04  3.80939E+04 -2.73654E+04  3.92562E+03 -1.09082E+04 -2.77628E+04  2.17680E+04 -3.70220E+04
  4.48680E+04 -1.28179E+04  4.12783E+04  2.52753E+04  2.09915E+04  5.34203E+04 -7.70786E+03  5.66580E+04
 -3.68489E+04  3.80709E+04 -4.98306E+04  1.06317E+04 -4.89451E+04 -2.00586E+04 -2.56741E+04 -4.40569E+04
  8.60044E+03 -4.30888E+04  3.51976E+04 -1.96386E+04  3.24218E+04  1.22449E+04  5.11202E+03  2.02554E+04
 -1.40735E+04  8.31358E+03 -1.16145E+04 -7.81311E+03  5.43768E+03 -1.15106E+04  1.97639E+04  5.42800E+03
  1.48962E+04  2.33869E+04 -5.21689E+03  2.93096E+04 -2.27022E+04  1.42420E+04 -3.26809E+04 -2.28599E+03
 -2.61274E+04 -1.95538E+04 -1.31465E+04 -2.47505E+04  4.88431E+03 -2.78433E+04  2.06975E+04 -2.43762E+04
  3.35430E+04 -1.52135E+04  4.02389E+04  5.84948E+03  2.73096E+04  2.54060E+04  5.55506E+03  4.46473E+04
 -2.09595E+04  3.43031E+04 -3.05906E+04  1.03963E+04 -2.35550E+04 -1.20125E+04 -4.04728E+03 -1.10760E+04
  7.70058E+02 -8.00633E+02 -8.52557E+03  8.85632E+03 -2.21645E+04  6.32048E+03 -1.87755E+04 -1.05786E+04
 -1.10038E+04 -2.43809E+04  6.05401E+03 -2.94859E+04  1.98856E+04 -2.10660E+04  2.26698E+04 -4.76802E+02
  1.63643E+04  1.88400E+04 -1.91332E+03  2.40746E+04 -1.86733E+04  1.27646E+04 -2.44978E+04 -4.22142E+03
 -1.87022E+04 -2.20400E+04 -3.84668E+03 -3.02211E+04  1.32445E+04 -2.62532E+04  2.41869E+04 -1.34024E+04
  2.39711E+04 -8.44298E+02  1.46471E+04  4.61230E+03  9.68836E+03  7.60074E+02  1.22373E+04 -1.34429E+03
  2.27596E+04  2.43608E+03  2.88398E+04  1.82735E+04  1.82141E+04  4.12452E+04 -2.99328E+03  4.60355E+04
 -2.56883E+04  3.92866E+04 -4.64482E+04  2.10433E+04 -4.90893E+04 -3.69032E+03 -3.75707E+04 -2.76747E+04
 -1.60068E+04 -3.97024E+04  1.44092E+04 -3.23623E+04  2.97588E+04 -1.64170E+04  2.56071E+04  8.64652E+03
  7.82672E+03  1.95740E+04 -1.23071E+04  1.84362E+04 -2.27413E+04  2.43633E+03 -1.64764E+04 -1.40882E+04
  5.93272E+02 -2.02279E+04  1.12771E+04 -1.55696E+04  1.60935E+04  2.91299E+02  2.64615E+03  7.19742E+03
 -8.97303E+03  4.73727E+03 -9.95819E+03 -6.44384E+03 -5.44102E+02 -2.03337E+04  1.17641E+04 -2.17896E+04
  2.63417E+04 -1.17853E+04  2.79754E+04  1.63367E+03  2.43477E+04  1.97611E+04  1.25762E+04  3.13337E+04
 -5.73585E+03  3.42479E+04 -2.30152E+04  1.92849E+04 -2.47634E+04  4.12351E+03 -1.68048E+04 -7.03173E+03
 -7.41628E+03 -7.70833E+03 -2.53588E+02  2.13128E+02 -2.50402E+03  1.90340E+03 -1.02212E+04  5.93480E+03
 -1.66043E+04 -1.28583E+03 -1.59737E+04 -1.40821E+04 -6.57914E+03 -2.04780E+04  6.14837E+03 -1.78161E+04
  1.46709E+04 -6.72392E+03  9.18643E+03  4.44678E+03 -1.17703E+02  7.00722E+03 -8.94592E+03 -1.39548E+03
 -9.08332E+03 -1.06141E+04 -2.54819E+03 -1.85495E+04  1.04328E+04 -1.60752E+04  2.23116E+04 -1.03337E+04
  2.50484E+04  3.05276E+03  1.99160E+04  1.67737E+04  2.66811E+03  2.14086E+04 -1.18773E+04  1.62362E+04
 -1.49002E+04  4.23178E+03 -6.06812E+03 -2.86490E+03  1.74456E+03 -3.33748E+03  8.99022E+03 -1.76181E+02
  7.07027E+03  7.44647E+03  1.02151E+03  1.41055E+04 -1.12563E+04  1.44731E+04 -1.78734E+04  3.47296E+03
 -1.20949E+04 -1.00729E+04  2.19357E+02 -1.55162E+04  9.46020E+03 -6.85557E+03  1.10180E+04  2.92572E+03
  2.84490E+03  1.15570E+04 -9.29149E+03  1.22922E+04 -1.40294E+04  8.07604E+03 -1.55904E+04 -5.87323E+03
 -9.83396E+03 -1.75292E+04  4.57150E+03 -2.33634E+04  1.66703E+04 -1.15455E+04  2.06455E+04  5.16292E+03
  1.08338E+04  1.55783E+04 -2.62513E+03  1.77535E+04 -1.18153E+04  1.10910E+04 -1.54490E+04 -9.78008E+02
 -1.28224E+04 -1.15341E+04 -9.00548E+02 -1.36978E+04  6.55472E+03 -9.49725E+03  7.34625E+03 -3.77255E+03
  5.11476E+03  3.28796E+03 -1.59609E+03  2.39950E+03 -2.60906E+03 -4.93113E+03  1.97289E+03 -6.75630E+03
  1.07750E+04 -6.78641E+03  1.66167E+04  2.98433E+03  1.60234E+04  1.32053E+04  1.21486E+04  2.35571E+04
 -5.63129E+03  2.86030E+04 -2.20966E+04  2.07043E+04 -3.01316E+04  4.00641E+03 -2.39826E+04 -1.03467E+04
 -1.09663E+04 -1.77166E+04 -8.29319E+02 -1.80823E+04  5.32572E+03 -8.70200E+03  5.67204E+03 -6.45737E+03
  3.26560E+03 -2.83710E+03  2.53419E+03 -4.87841E+03  6.83882E+03 -4.92776E+03  8.31903E+03 -1.58816E+03
  1.25743E+04  1.75963E+03  7.90191E+03  1.07642E+04 -2.26324E+03  1.26989E+04 -1.26676E+04  1.08713E+04
 -1.79296E+04 -2.73107E+03 -1.02236E+04 -1.23567E+04 -2.28070E+03 -1.89766E+04  1.19870E+04 -1.81322E+04
  1.94037E+04 -1.06266E+04  2.20440E+04  2.36388E+03  1.60018E+04  1.47901E+04  2.14880E+03  2.09738E+04
 -8.66250E+03  1.58515E+04 -1.09917E+04  4.86268E+03 -8.44900E+03 -1.50442E+03 -4.50217E+03 -2.10046E+03
 -1.30551E+03  1.03456E+03 -3.01846E+03  2.13662E+03 -6.21353E+03  3.10077E+03 -1.29952E+04 -9.50395E+02
 -8.71360E+03 -1.12950E+04  2.21625E+02 -1.69947E+04  1.12423E+04 -1.61265E+04  1.66620E+04 -3.22602E+03
  1.71614E+04  7.64371E+03  7.99726E+03  1.64004E+04 -4.08874E+03  1.77481E+04 -1.17944E+04  9.14834E+03
 -1.67289E+04  1.74524E+03 -1.26210E+04 -1.06016E+04 -1.46370E+03 -1.45134E+04  7.62264E+03 -1.04556E+04
  1.03166E+04 -2.20640E+03  6.78175E+03  3.30493E+03  3.40414E+03  6.33516E+03  4.66219E+02  3.52329E+03
  1.17125E+03  7.22978E+02  4.18712E+03  2.81033E+03  7.51159E+03  6.25769E+03  5.13528E+03  1.17622E+04
 -4.80021E+03  1.33688E+04 -1.21794E+04  1.37967E+04 -1.61256E+04  3.41154E+03 -1.70551E+04 -9.08112E+03
 -1.00458E+04 -1.84953E+04  3.33453E+03 -2.04771E+04  1.14442E+04 -1.24087E+04  1.53566E+04 -2.94052E+03
  1.09072E+04  6.74322E+03  3.50137E+03  1.20857E+04 -5.97274E+03  6.24342E+03 -6.28604E+03  3.09059E+02
 -2.17704E+03 -7.01384E+03  5.29895E+03 -9.46417E+03  7.42344E+03 -3.55641E+03  7.40776E+03 -3.51959E+02
  4.09981E+03  5.58944E+03  3.26027E+03  1.76625E+03 -1.80811E+03  3.06936E+03  1.64853E+03 -5.39499E+01
  2.97768E+03 -9.82429E+02  9.13760E+03  2.84836E+03  4.13543E+03  9.36326E+03 -1.65318E+03  1.28144E+04
 -9.03957E+03  7.82429E+03 -1.23215E+04  1.96632E+03 -1.07556E+04 -3.03913E+03 -4.13410E+03 -6.22017E+03
  1.79733E+03 -7.54245E+03  3.43336E+03 -4.31762E+03  4.90901E+03  4.32836E+03 -2.83562E+03  6.59784E+03
 -6.91438E+03  5.19031E+03 -8.92579E+03 -3.49005E+03 -4.69152E+03 -1.03490E+04  1.94622E+03 -1.13924E+04
  6.73933E+03 -6.18407E+03  8.70679E+03 -2.60155E+03  6.23029E+03  1.34336E+03  9.77419E+02  5.15271E+03
 -3.60075E+03  1.39873E+03 -2.58283E+03 -3.76529E+03  8.69843E+02 -7.27751E+03  9.50229E+03 -5.99925E+03
  9.81471E+03  3.20613E+02  9.71482E+03  8.92560E+03  3.79453E+03  1.17637E+04 -3.81187E+03  1.04319E+04
 -9.14136E+03  5.29982E+03 -1.08146E+04 -2.78130E+03 -5.74348E+03 -9.48531E+03  1.42791E+03 -8.66532E+03
  8.48232E+03 -3.42962E+03  6.33630E+03  3.08846E+03  2.97863E+03  6.74146E+03 -2.42909E+02  6.22097E+03
 -2.32747E+03  5.01983E+03 -1.64976E+03  2.80876E+03  1.11280E+03  1.52665E+03 -2.04133E+03  4.00132E+03
 -4.76068E+03  5.18979E+03 -6.51763E+03  4.31371E+03 -1.23860E+04 -1.47622E+03 -1.36911E+04 -8.40717E+03
 -7.65804E+03 -1.69519E+04  2.18762E+03 -1.92117E+04  1.11573E+04 -1.53222E+04  1.75746E+04 -5.52425E+03
  1.67053E+04  3.06119E+03  8.52020E+03  1.09656E+04  9.64990E+02  1.30135E+04 -6.61186E+03  9.12670E+03
 -8.12258E+03  4.95218E+03 -5.37492E+03 -2.75168E+03 -1.12800E+03 -1.31728E+03 -8.88052E+02  6.12243E+02
 -1.72583E+03  2.25681E+03 -5.30639E+03 -6.63081E+02 -4.70484E+02 -3.14241E+03 -8.31270E+01 -4.80188E+03
  6.56310E+03 -3.22109E+03  6.65886E+03  1.07772E+03  8.63365E+03  6.74195E+03  4.19309E+03  1.23044E+04
 -6.65285E+03  1.55083E+04 -1.31320E+04  8.28992E+03 -1.61957E+04 -1.37918E+03 -1.07366E+04 -8.31030E+03
 -3.85189E+03 -1.36840E+04  2.26767E+03 -1.00291E+04  9.33672E+03 -8.83197E+03  7.57494E+03  1.26075E+03
  5.76365E+03  4.98963E+03  2.85832E+00  4.08516E+03 -1.91519E+03 -8.96774E+02  6.43148E+02 -2.57337E+03
  5.68755E+03 -6.68121E+02  4.45818E+03  1.30209E+03  3.50504E+03  6.20886E+03 -1.74881E+03  4.56942E+03
 -4.38440E+03  5.26082E+03 -8.30334E+03  1.38940E+03 -8.61208E+03 -6.09124E+03 -9.99565E+02 -1.02970E+04
  6.30087E+03 -1.07596E+04  1.01154E+04 -2.33942E+03  1.01199E+04  3.67104E+03  6.39747E+03  8.02036E+03
  5.32290E+02  8.99496E+03 -4.54316E+03  7.72331E+03 -4.72009E+03  2.56815E+03 -4.34912E+03  2.64771E+02
 -3.45278E+03  7.50870E+02 -3.91473E+03  1.51766E+03 -4.66986E+03  2.96834E+02 -7.75169E+03 -7.43001E+02
 -7.47555E+03 -5.66196E+03 -7.33122E+02 -7.31725E+03  4.38304E+03 -8.69384E+03  8.66798E+03 -5.87677E+03
  8.89839E+03  1.98459E+03  5.29685E+03  7.26937E+03 -1.85055E+03  7.33503E+03 -5.73948E+03  5.36295E+03
