 $NMID ID='MM_0lb_SNR200_10hz_g40_57.RAW', FMTDAT='(8E13.5)'
 TRAMP=1., VOLUME=1. $END
  3.08571E+05 -5.57697E+02  3.37305E+05  2.50136E+05  8.52421E+04  3.38883E+05 -1.32180E+05  2.51340E+05
 -1.89835E+05  8.34552E+04 -1.10714E+05 -3.02770E+04  9.49497E+02 -4.95353E+04  5.37841E+04  8.30198E+02
  3.43382E+04  5.27480E+04 -1.60138E+04  7.54231E+04 -5.88903E+04  6.33989E+04 -8.45879E+04  3.25089E+04
 -8.19700E+04 -1.28716E+04 -5.68348E+04 -5.20713E+04 -1.53984E+04 -7.00256E+04  2.78411E+04 -4.53223E+04
  4.04572E+04  2.73984E+03  1.60203E+04  4.66479E+04 -3.37070E+04  4.92842E+04 -6.71613E+04  8.12590E+02
 -5.42558E+04 -5.73121E+04 -8.51099E+03 -7.60857E+04  3.37357E+04 -5.50765E+04  5.02375E+04 -1.75619E+04
  4.48565E+04  9.20525E+03  3.25384E+04  2.67053E+04  1.66503E+04  3.11375E+04 -6.52755E+03  2.84006E+04
 -2.22108E+04  1.12676E+04 -1.89389E+04 -5.13978E+03  5.43605E+03 -6.98452E+03  2.34561E+04  1.37245E+04
  6.65950E+03  3.68946E+04 -3.29244E+04  3.67187E+04 -6.43639E+04  4.45271E+03 -5.74057E+04 -4.41450E+04
 -1.22236E+04 -6.61468E+04  4.08084E+04 -4.62809E+04  5.95830E+04 -3.11657E+03  3.78522E+04  3.32898E+04
 -5.43200E+03  3.70906E+04 -3.03077E+04  1.62105E+04 -3.11315E+04 -3.37422E+03 -1.87328E+04 -1.22078E+04
 -8.99862E+03 -1.42206E+04  1.89314E+01 -1.83606E+04  7.23254E+03 -2.43177E+04  1.57305E+04 -1.25481E+04
  1.03007E+04  6.74434E+03 -8.29288E+03  1.20382E+04 -2.27811E+04 -5.02085E+03 -9.11324E+03 -3.61949E+04
  2.44656E+04 -4.57457E+04  5.18042E+04 -2.03489E+04  4.79658E+04  2.18517E+04  1.57481E+04  4.65579E+04
 -1.56516E+04  3.57065E+04 -2.37129E+04  1.66970E+03 -1.16520E+04 -2.79986E+04  2.10330E+04 -3.69748E+04
  4.51164E+04 -9.98876E+03  3.85224E+04  2.25864E+04  1.91861E+04  4.98330E+04 -8.26747E+03  5.52662E+04
 -3.48780E+04  3.64892E+04 -4.69252E+04  1.20756E+04 -4.49101E+04 -1.70815E+04 -2.53298E+04 -4.01743E+04
  8.27244E+03 -4.01566E+04  3.16175E+04 -1.46736E+04  3.01696E+04  1.13097E+04  5.20765E+03  2.04959E+04
 -1.30328E+04  7.97662E+03 -1.10004E+04 -7.73570E+03  5.75848E+03 -1.01742E+04  1.79328E+04  6.40797E+03
  1.32286E+04  2.24733E+04 -5.95150E+03  2.59574E+04 -2.31078E+04  1.32913E+04 -2.89756E+04 -4.17492E+03
 -2.40059E+04 -1.80040E+04 -1.12223E+04 -2.33296E+04  4.35016E+03 -2.47354E+04  1.91076E+04 -2.09353E+04
  3.16453E+04 -1.44103E+04  3.44585E+04  5.08082E+03  2.48818E+04  2.29642E+04  4.11487E+03  3.92155E+04
 -1.68951E+04  3.22791E+04 -2.79148E+04  1.18602E+04 -2.27261E+04 -1.05014E+04 -5.92138E+03 -1.29029E+04
 -1.55987E+03 -4.61949E+02 -6.53478E+03  7.97838E+03 -1.86592E+04  6.45759E+03 -1.90006E+04 -9.78315E+03
 -1.16275E+04 -2.06215E+04  6.13292E+03 -2.64074E+04  1.74779E+04 -1.93406E+04  2.09889E+04 -1.61379E+03
  1.24204E+04  1.44944E+04 -1.67697E+03  2.18809E+04 -1.68155E+04  1.20740E+04 -2.30131E+04 -5.47259E+03
 -1.65155E+04 -2.06581E+04 -2.91659E+03 -2.62094E+04  1.23564E+04 -2.15364E+04  2.25135E+04 -1.09989E+04
  2.08945E+04  6.40973E+02  1.37068E+04  5.33235E+03  7.88704E+03  1.20112E+03  1.08485E+04 -1.37139E+03
  2.02302E+04  4.07997E+03  2.42598E+04  1.76503E+04  1.50982E+04  3.44870E+04 -2.37415E+03  4.02522E+04
 -2.43533E+04  3.41722E+04 -3.89010E+04  1.66335E+04 -4.02589E+04 -1.97659E+03 -3.34317E+04 -2.37750E+04
 -1.51105E+04 -3.31231E+04  1.03419E+04 -2.92537E+04  2.55499E+04 -1.41067E+04  2.13337E+04  5.29480E+03
  7.58351E+03  1.73094E+04 -1.09573E+04  1.45712E+04 -1.97096E+04  1.14532E+03 -1.36079E+04 -1.16191E+04
 -1.02660E+03 -1.69943E+04  1.02723E+04 -1.29265E+04  1.14160E+04 -2.51951E+03  4.46430E+03  6.96431E+03
 -8.62408E+03  3.55454E+03 -6.80246E+03 -6.51573E+03 -2.85394E+03 -1.71515E+04  1.12272E+04 -1.78347E+04
  2.09522E+04 -9.68954E+03  2.30079E+04  3.94051E+03  2.11104E+04  1.61268E+04  1.03596E+04  2.55248E+04
 -4.81643E+03  2.78886E+04 -1.76497E+04  1.67134E+04 -2.00888E+04  2.99367E+03 -1.54215E+04 -3.60909E+03
 -6.78776E+03 -5.89444E+03 -2.76454E+03  1.69628E+03 -2.53486E+03  2.99574E+03 -6.69617E+03  5.16155E+03
 -1.37856E+04 -4.07656E+02 -1.30035E+04 -1.06697E+04 -4.38721E+03 -1.81232E+04  6.93425E+03 -1.40896E+04
  1.19511E+04 -6.01262E+03  8.85340E+03  3.10968E+03  5.98903E+02  5.24494E+03 -6.50941E+03 -4.29772E+02
 -6.10054E+03 -9.41955E+03 -2.07574E+03 -1.36771E+04  8.95299E+03 -1.44876E+04  1.87149E+04 -7.07463E+03
  2.00055E+04  3.26821E+03  1.53050E+04  1.29213E+04  3.84488E+03  1.57222E+04 -8.55096E+03  1.41465E+04
 -1.08873E+04  4.87437E+03 -5.07906E+03 -1.74151E+03  1.48078E+03 -3.07086E+03  7.97249E+03 -5.32095E+02
  8.83964E+03  6.94783E+03  4.73043E+02  1.18915E+04 -7.54831E+03  1.04236E+04 -1.37679E+04  2.62964E+03
 -9.05310E+03 -6.95028E+03 -3.89875E+02 -1.22863E+04  7.80554E+03 -6.87693E+03  8.51898E+03  2.44538E+03
  1.94412E+03  9.19650E+03 -7.56353E+03  1.11418E+04 -1.13591E+04  3.91866E+03 -1.18471E+04 -3.90826E+03
 -6.06518E+03 -1.41658E+04  4.10501E+03 -1.65951E+04  1.46556E+04 -9.77326E+03  1.41164E+04  1.77822E+03
  8.35978E+03  1.09379E+04 -5.20347E+02  1.43237E+04 -1.05151E+04  7.19795E+03 -1.10448E+04 -2.97586E+03
 -8.47700E+03 -1.04881E+04 -2.03703E+03 -1.02556E+04  5.56001E+03 -8.17884E+03  6.06116E+03 -3.38164E+03
  3.99004E+03  3.08681E+03 -9.00804E+02  1.87118E+03  2.84182E+00 -3.18553E+03  2.74710E+03 -6.14455E+03
  9.32793E+03 -4.80247E+03  1.33941E+04  3.00988E+02  1.29640E+04  9.63615E+03  8.24294E+03  1.82460E+04
 -4.70214E+03  1.98420E+04 -1.79404E+04  1.61141E+04 -2.12842E+04  1.17978E+03 -1.78638E+04 -7.21028E+03
 -7.74105E+03 -1.61146E+04  1.22155E+02 -1.29249E+04  4.63027E+03 -5.21628E+03  3.50746E+03 -4.28044E+03
  3.77344E+03 -1.46389E+03  3.18317E+03 -4.43444E+03  7.24824E+03 -2.94375E+03  8.22750E+03 -2.53541E+03
  8.76721E+03  8.49006E+02  4.99233E+03  7.15133E+03 -8.54074E+02  8.34922E+03 -9.70722E+03  8.01480E+03
 -1.35609E+04 -1.61542E+03 -9.16578E+03 -9.50927E+03 -6.84750E+02 -1.33600E+04  8.12820E+03 -1.37481E+04
  1.36894E+04 -7.82193E+03  1.61917E+04  2.48927E+03  1.11296E+04  1.15802E+04  1.52165E+03  1.43891E+04
 -6.16075E+03  1.15969E+04 -7.73559E+03  4.03850E+03 -5.15686E+03  2.30928E+01 -1.26443E+03 -9.27929E+02
 -1.80297E+02  1.93863E+02 -2.91976E+03  1.95220E+03 -3.93224E+03  1.98141E+03 -9.35502E+03 -1.86708E+03
 -5.37343E+03 -9.04554E+03 -9.73978E+02 -1.20008E+04  5.83035E+03 -1.05827E+04  1.32279E+04 -3.68336E+03
  1.32469E+04  5.22093E+03  7.34289E+03  1.01030E+04 -2.46365E+03  1.21954E+04 -8.62957E+03  8.06792E+03
 -1.08800E+04  9.02528E+02 -1.02185E+04 -6.21507E+03 -4.83398E+02 -1.07610E+04  5.06794E+03 -7.52025E+03
  8.52711E+03 -2.52449E+03  6.49825E+03  2.12176E+03  1.61906E+03  4.51209E+03  1.17230E+03  1.59735E+03
  1.49316E+03  1.02250E+03  3.48152E+03  2.21195E+03  5.07375E+03  4.68788E+03  3.52256E+03  8.11031E+03
 -2.93893E+03  1.01249E+04 -9.45158E+03  1.06036E+04 -1.27481E+04  3.52593E+03 -1.21477E+04 -5.09854E+03
 -6.71564E+03 -1.19897E+04  2.29279E+03 -1.28614E+04  6.82698E+03 -9.05429E+03  9.89223E+03 -2.82276E+03
  7.15128E+03  3.74232E+03  3.19150E+03  6.88425E+03 -3.37457E+03  3.17386E+03 -5.86388E+03 -8.18867E+02
 -3.09090E+03 -5.02376E+03  2.73519E+03 -6.64802E+03  5.53159E+03 -3.80985E+03  4.13410E+03  6.16844E+02
  1.30359E+03  2.63942E+03  1.14615E+03  4.98434E+02  7.18809E+01  1.85063E+03  4.20795E+02  2.50989E+02
  2.76208E+03  4.34824E+02  2.86416E+03  1.58507E+03  1.84980E+03  8.08616E+03 -8.65594E+02  8.84248E+03
 -6.26161E+03  5.56934E+03 -7.93689E+03  1.09972E+03 -6.60976E+03 -3.33194E+03 -3.30354E+03 -4.15677E+03
  5.39027E+02 -4.17700E+03  3.05697E+03 -1.88963E+03  3.02951E+03  1.69106E+03 -1.28351E+03  3.96348E+03
 -4.13307E+03  2.99745E+03 -5.32589E+03 -3.04397E+03 -1.50089E+03 -8.24208E+03  1.08707E+03 -6.86257E+03
  4.14269E+03 -4.47627E+03  6.76070E+03 -3.73540E+02  4.29330E+03  1.08184E+03  6.21790E+02  3.91216E+03
 -2.91981E+03  7.94243E+02 -3.76923E+03 -3.16486E+03  3.27605E+02 -5.40478E+03  5.99656E+03 -4.28601E+03
  7.00096E+03  9.56298E+02  6.28163E+03  4.35394E+03  3.07080E+03  8.74659E+03 -2.66884E+03  6.87809E+03
 -7.02919E+03  2.28735E+03 -5.98059E+03 -1.11132E+03 -3.26831E+03 -5.05947E+03  5.35057E+02 -4.53814E+03
  4.92175E+03 -2.58838E+03  4.79009E+03  2.94902E+03  2.42740E+03  4.97141E+03 -1.01535E+03  3.51171E+03
 -2.42254E+03  2.70568E+03 -1.86331E+03  7.69606E+02  1.33785E+02  2.48047E+02 -6.50474E+02  9.14184E+02
 -2.33797E+03  1.95774E+03 -4.99936E+03  2.13775E+03 -6.75557E+03 -1.35504E+02 -8.43272E+03 -7.39115E+03
 -3.56284E+03 -1.06563E+04  7.31715E+02 -1.20070E+04  8.36258E+03 -9.63322E+03  1.24650E+04 -5.33848E+03
  1.08874E+04  1.38500E+03  6.73786E+03  6.93466E+03 -6.78222E+02  8.52069E+03 -2.81243E+03  6.35640E+03
 -4.17066E+03  1.49180E+03 -3.93739E+03 -1.32209E+03 -3.64058E+02 -1.78515E+02 -8.74724E+02  1.60951E+03
 -1.04448E+03 -1.56147E+02 -1.93017E+03  1.61564E+02 -1.78614E+02 -2.52860E+03  2.21410E+02 -2.57014E+03
  5.17706E+03 -3.71718E+03  5.08680E+03  1.03719E+03  6.33954E+03  4.38285E+03  7.08261E+02  6.94733E+03
 -4.28846E+03  9.03439E+03 -7.23334E+03  5.42101E+03 -9.06968E+03  3.84803E+02 -6.56963E+03 -5.55287E+03
 -2.45262E+03 -8.07599E+03  2.12633E+03 -7.63513E+03  4.69980E+03 -3.48257E+03  3.32815E+03  5.37375E+02
  3.12416E+03  2.05469E+03 -3.52106E+01  1.93749E+03 -2.85131E+03 -1.10561E+03  2.77946E+02 -1.94800E+03
  2.63483E+03 -1.79460E+03  2.34247E+03  3.84829E+02  3.71730E+03  4.72632E+03  2.86951E+02  3.34996E+03
 -3.12201E+03  4.49024E+03 -4.99516E+03 -1.88467E+00 -5.16019E+03 -3.87351E+03  1.64374E+02 -4.63479E+03
  5.00171E+03 -5.67900E+03  6.54266E+03 -3.52680E+03  6.67489E+03  2.46384E+03  4.05945E+03  5.13996E+03
  1.13668E+03  5.67427E+03 -1.87027E+03  3.11633E+03 -4.61108E+03  3.90579E+03 -2.79990E+03  1.64147E+03
 -1.41893E+03  9.55999E+02 -1.52377E+03  7.42005E+02 -3.03313E+03  1.41183E+03 -4.58923E+03  1.18275E+01
 -4.72300E+03 -3.17763E+03 -1.57668E+03 -4.38916E+03  2.42535E+03 -6.04479E+03  4.91877E+03 -2.52057E+03
  6.59931E+03  8.97329E+02  4.61294E+03  4.68598E+03  1.24832E+03  4.19775E+03 -4.11590E+03  4.54297E+03
