 $NMID ID='MM_0lb_SNR200_12hz_g55_84.RAW', FMTDAT='(8E13.5)'
 TRAMP=1., VOLUME=1. $END
  3.10716E+05  7.97559E+01  3.37913E+05  2.51150E+05  8.56864E+04  3.38711E+05 -1.32973E+05  2.51804E+05
 -1.89979E+05  8.31623E+04 -1.11130E+05 -3.31447E+04  8.41816E+02 -5.09080E+04  5.49810E+04 -5.66403E+02
  3.66673E+04  5.22004E+04 -1.54761E+04  7.56367E+04 -6.18662E+04  6.46538E+04 -8.57922E+04  3.29646E+04
 -8.23348E+04 -1.15420E+04 -5.83476E+04 -5.20310E+04 -1.42648E+04 -7.11074E+04  2.50368E+04 -4.71842E+04
  3.98388E+04  2.22408E+03  1.69128E+04  4.90298E+04 -3.41484E+04  4.72714E+04 -6.82266E+04  1.39545E+03
 -5.44399E+04 -5.79045E+04 -7.76108E+03 -7.87502E+04  3.42724E+04 -5.48871E+04  4.85066E+04 -1.77170E+04
  4.37503E+04  1.15604E+04  3.18827E+04  2.66445E+04  1.59638E+04  2.95710E+04 -5.89360E+03  2.87861E+04
 -2.15370E+04  1.23671E+04 -1.85292E+04 -5.12602E+03  6.36388E+03 -7.50776E+03  2.41407E+04  1.28043E+04
  6.77429E+03  3.66899E+04 -3.19075E+04  3.71419E+04 -6.38994E+04  2.85484E+03 -5.71601E+04 -4.36253E+04
 -1.24871E+04 -6.36441E+04  4.02632E+04 -4.71346E+04  5.98279E+04 -3.65538E+03  3.59207E+04  3.28987E+04
 -3.85711E+03  3.75314E+04 -3.01819E+04  1.80396E+04 -3.26739E+04 -4.34595E+03 -1.82858E+04 -1.24129E+04
 -8.24801E+03 -1.38283E+04 -1.04936E+03 -1.88874E+04  9.02266E+03 -2.27985E+04  1.52105E+04 -1.26969E+04
  9.05806E+03  6.00484E+03 -9.17708E+03  1.26607E+04 -2.31817E+04 -5.62077E+03 -7.42182E+03 -3.54056E+04
  2.47401E+04 -4.54469E+04  5.03398E+04 -2.04278E+04  4.69534E+04  2.03576E+04  1.77254E+04  4.66327E+04
 -1.63232E+04  3.36447E+04 -2.54363E+04  1.15736E+03 -9.01298E+03 -2.81746E+04  2.14530E+04 -3.53454E+04
  4.35651E+04 -1.03912E+04  3.93440E+04  2.45669E+04  1.91333E+04  4.93650E+04 -8.12067E+03  5.33204E+04
 -3.29398E+04  3.65369E+04 -4.44785E+04  1.14394E+04 -4.46803E+04 -1.70762E+04 -2.47942E+04 -4.18843E+04
  7.81521E+03 -3.95917E+04  3.25456E+04 -1.65343E+04  3.08213E+04  1.09609E+04  3.37569E+03  2.11591E+04
 -1.55519E+04  9.47905E+03 -1.05771E+04 -7.43866E+03  5.74702E+03 -1.13935E+04  1.85953E+04  5.62309E+03
  1.51162E+04  2.04111E+04 -4.42296E+03  2.61353E+04 -2.26741E+04  1.41508E+04 -2.86563E+04 -4.27397E+03
 -2.27804E+04 -1.67371E+04 -1.02016E+04 -2.25093E+04  4.20938E+03 -2.26773E+04  1.80106E+04 -2.09637E+04
  2.95590E+04 -1.31619E+04  3.57446E+04  4.92995E+03  2.55914E+04  2.31061E+04  4.09180E+03  3.85751E+04
 -1.99877E+04  3.16809E+04 -3.05650E+04  1.09654E+04 -2.16652E+04 -9.82836E+03 -4.95350E+03 -1.38970E+04
  2.18521E+03 -2.59230E+03 -5.24872E+03  7.08056E+03 -1.93365E+04  5.07206E+03 -1.73462E+04 -8.62336E+03
 -1.17939E+04 -2.13380E+04  5.99139E+03 -2.55434E+04  1.71464E+04 -1.85154E+04  2.01188E+04 -1.76907E+03
  1.41889E+04  1.41449E+04 -2.96117E+03  2.24598E+04 -1.45381E+04  1.26431E+04 -2.17169E+04 -4.22327E+03
 -1.51818E+04 -1.78721E+04 -6.17188E+02 -2.48505E+04  1.18982E+04 -2.07750E+04  2.23145E+04 -9.87478E+03
  1.93790E+04 -9.76126E+02  1.37277E+04  4.56630E+03  7.80919E+03  1.97143E+02  1.08546E+04 -2.37734E+03
  1.97093E+04  2.67213E+03  2.26890E+04  1.72311E+04  1.50316E+04  3.38611E+04 -3.97979E+03  3.83386E+04
 -2.42705E+04  3.30297E+04 -3.49814E+04  1.57118E+04 -3.96252E+04 -3.10144E+03 -3.29049E+04 -2.39408E+04
 -1.25953E+04 -3.29121E+04  1.13527E+04 -2.65991E+04  2.49943E+04 -1.40325E+04  2.11916E+04  6.23437E+03
  8.72622E+03  1.67526E+04 -9.44974E+03  1.42574E+04 -1.85408E+04  2.73697E+03 -1.49447E+04 -1.18912E+04
  4.96216E+02 -1.76067E+04  1.01649E+04 -1.25216E+04  1.13064E+04 -1.57925E+03  2.77227E+03  6.55231E+03
 -8.13058E+03  3.76372E+03 -8.05353E+03 -7.44694E+03 -2.27159E+03 -1.56219E+04  1.07106E+04 -1.57236E+04
  1.92095E+04 -9.98321E+03  2.15830E+04  1.65082E+03  2.05593E+04  1.51934E+04  8.51185E+03  2.41300E+04
 -4.84744E+03  2.73304E+04 -1.68806E+04  1.63585E+04 -1.87648E+04  4.18344E+03 -1.33786E+04 -5.58082E+03
 -5.98295E+03 -5.91335E+03 -1.69154E+03  5.30771E+02 -2.61354E+03  3.66070E+03 -5.62615E+03  5.06796E+03
 -1.18463E+04 -1.57242E+03 -1.29490E+04 -1.18176E+04 -4.08853E+03 -1.64830E+04  5.66514E+03 -1.27726E+04
  1.16432E+04 -5.28586E+03  7.75584E+03  3.18571E+03 -3.45821E+02  4.22698E+03 -6.92724E+03 -8.11683E+01
 -5.95095E+03 -7.96199E+03 -5.53952E+02 -1.30290E+04  6.81882E+03 -1.31307E+04  1.82811E+04 -6.59614E+03
  1.89523E+04  2.28975E+03  1.35578E+04  1.19345E+04  3.02643E+03  1.55653E+04 -8.81007E+03  1.29040E+04
 -1.04422E+04  4.88282E+03 -4.91223E+03 -3.81729E+03  1.37317E+03 -3.15604E+03  8.69976E+03 -1.60769E+03
  6.43226E+03  5.79235E+03  1.31743E+03  8.24395E+03 -7.92124E+03  1.08396E+04 -1.24866E+04  9.23385E+02
 -8.26585E+03 -4.73893E+03  8.39568E+02 -1.18146E+04  7.09292E+03 -6.49575E+03  6.83817E+03  2.50615E+03
  5.53975E+02  8.03708E+03 -7.12198E+03  1.03221E+04 -1.01454E+04  4.44624E+03 -1.06453E+04 -3.85378E+03
 -6.06467E+03 -1.29682E+04  3.51296E+03 -1.54338E+04  1.08896E+04 -8.12695E+03  1.40156E+04  2.15938E+03
  8.46387E+03  9.74319E+03  7.17025E+02  1.28737E+04 -9.50948E+03  7.55223E+03 -9.14051E+03 -2.14363E+03
 -9.34031E+03 -8.71724E+03 -2.48243E+03 -1.07021E+04  4.20634E+03 -7.76492E+03  5.34910E+03 -3.37084E+03
  5.63813E+03  2.96842E+03 -1.21816E+03  1.15919E+03  1.21219E+02 -1.90290E+03  1.87680E+03 -4.05909E+03
  7.60764E+03 -4.10943E+03  1.20383E+04  1.22936E+03  1.14755E+04  6.72074E+03  8.35516E+03  1.56149E+04
 -4.87998E+03  1.97598E+04 -1.63650E+04  1.35704E+04 -1.96207E+04  2.19419E+03 -1.55461E+04 -8.46176E+03
 -8.07599E+03 -1.33450E+04  6.72032E+02 -1.03192E+04  5.44067E+03 -6.86222E+03  3.89281E+03 -4.17019E+03
  2.90106E+03 -2.60209E+03  1.84764E+03 -2.06049E+03  4.46292E+03 -1.92688E+03  6.42557E+03 -1.62689E+02
  9.94462E+03  3.05048E+03  2.13172E+03  7.46589E+03 -1.88447E+03  7.93927E+03 -9.54400E+03  6.05177E+03
 -1.11276E+04 -9.74485E+02 -5.69651E+03 -8.23738E+03 -1.25932E+03 -1.23433E+04  6.70143E+03 -1.13328E+04
  1.28401E+04 -7.08537E+03  1.41232E+04  1.88145E+03  9.59166E+03  1.03715E+04  1.68513E+03  1.31324E+04
 -6.15721E+03  1.11339E+04 -8.52530E+03  6.43782E+03 -6.22969E+03 -1.84044E+02 -2.12908E+03 -1.44199E+03
 -3.64115E+02  1.11774E+03 -1.28453E+03  2.87500E+03 -4.83336E+03  1.89537E+03 -8.50231E+03 -1.53751E+03
 -4.33226E+03 -7.61594E+03 -6.61936E+02 -1.14322E+04  5.86460E+03 -8.97522E+03  1.06649E+04 -4.72916E+03
  1.06039E+04  6.21006E+03  3.74160E+03  8.96939E+03 -1.97646E+03  1.16331E+04 -9.28139E+03  5.48898E+03
 -9.72628E+03  6.40066E+02 -7.34422E+03 -5.95249E+03 -1.10576E+03 -8.97724E+03  5.10828E+03 -5.81835E+03
  5.53340E+03 -1.03368E+03  4.28256E+03  2.46083E+03  1.89465E+03  3.08256E+03  2.59341E+03  3.53797E+03
  2.47614E+03  1.49274E+03  4.02292E+03  8.53040E+02  4.24233E+03  2.40328E+03  2.71462E+03  6.63198E+03
 -3.10436E+03  7.46334E+03 -6.34865E+03  8.37750E+03 -1.05388E+04  2.26623E+03 -1.08027E+04 -4.72808E+03
 -4.91395E+03 -1.01298E+04  2.86383E+03 -8.50096E+03  6.34440E+03 -6.49673E+03  1.09183E+04 -1.98196E+03
  6.12971E+03  3.61670E+03  1.13031E+03  6.29621E+03 -2.46838E+03  4.12376E+03 -3.89886E+03 -1.72264E+03
 -2.37396E+03 -4.70815E+03  2.54936E+03 -4.51633E+03  3.51231E+03 -3.43872E+03  4.28804E+03  2.22514E+02
  2.30771E+03  2.34563E+03  1.23568E+03  1.65596E+03 -6.65166E+02  1.16393E+03  2.60850E+03 -6.55150E+02
  2.73960E+03 -1.80099E+03  5.21181E+03  2.09682E+03  1.37538E+03  5.75032E+03 -1.57597E+03  7.85432E+03
 -4.78551E+03  4.51972E+03 -6.67903E+03  6.87149E+02 -5.75383E+03 -1.90090E+03  1.80444E+02 -4.38032E+03
  1.59074E+03 -4.07937E+03  1.72923E+03 -1.65466E+03  2.72347E+03  8.21389E+02 -2.67756E+02  2.61183E+03
 -4.90582E+03  1.80806E+03 -4.80781E+03 -2.74584E+03 -2.94037E+03 -5.52229E+03  4.34598E+02 -4.81664E+03
  3.43497E+03 -3.95519E+03  2.93368E+03 -8.34464E+02  1.07601E+03  8.42312E+02  3.05258E+02  3.29681E+03
 -1.22524E+03  1.75291E+03 -6.90017E+02 -1.82772E+03  1.33937E+03 -3.60880E+03  5.80284E+03 -4.67197E+03
  3.29951E+03  1.88558E+03  5.52030E+03  3.40751E+03  1.63185E+03  6.64535E+03 -2.54381E+03  7.01068E+03
 -5.02832E+03  3.62400E+03 -4.25303E+03 -1.38198E+03 -3.05387E+03 -4.89962E+03  1.62107E+03 -3.78288E+03
  4.69783E+03 -2.01127E+03  3.11774E+03  2.68252E+03  3.42255E+02  3.08308E+03 -3.10009E+02  2.70750E+03
 -2.90828E+03  2.37386E+03 -2.42149E+03  4.00348E+02  7.27175E+01  5.04858E+02  2.50868E+02  1.02110E+03
 -2.98072E+03  3.22182E+03 -4.59606E+03  3.29123E+03 -5.60927E+03  1.15799E+02 -6.80998E+03 -5.11681E+03
 -3.16495E+03 -7.46598E+03  9.45229E+02 -9.40832E+03  6.88284E+03 -8.35293E+03  8.55983E+03 -2.53456E+03
  8.21811E+03  3.74446E+02  4.54316E+03  6.09611E+03 -2.98837E+02  6.04228E+03 -1.25509E+03  3.85618E+03
 -1.66042E+03  7.05595E+02 -1.43513E+03  3.10128E+02 -2.00776E+02 -7.29813E+02 -4.54090E+02  9.54938E+02
 -6.17569E+02 -4.29590E+02 -8.65421E+02 -7.61940E+02  1.64127E+02 -1.08496E+03 -1.28997E+02 -2.13591E+03
  2.45833E+03 -1.82541E+03  2.79318E+03 -2.06685E+02  4.25927E+03  3.49870E+03  7.73328E+02  4.86616E+03
 -2.35514E+03  8.42018E+03 -5.84287E+03  4.37147E+03 -7.39464E+03 -1.31035E+03 -4.44853E+03 -5.06861E+03
 -1.94822E+03 -6.69058E+03  2.02868E+03 -4.18075E+03  3.49418E+03 -3.44493E+03  4.41358E+03 -5.40191E+02
  1.88414E+03  2.01872E+03 -3.92705E+02  7.05109E+02 -1.41644E+02 -1.26461E+03 -2.11092E+02 -1.42185E+03
  1.53409E+03  4.40047E+02  1.40196E+03  1.28194E+03  2.17241E+02  2.29725E+03  1.03091E+03  2.26226E+03
 -2.10582E+03  2.86123E+03 -3.57457E+03 -5.02728E+01 -3.50145E+03 -2.25206E+03 -9.03937E+02 -5.32280E+03
  3.56008E+03 -3.46529E+03  3.29353E+03 -1.75850E+03  3.40722E+03  9.71168E+02  3.36457E+03  4.29152E+03
 -6.97394E+02  5.03659E+03 -1.62437E+03  2.88897E+03 -2.42275E+03  2.71255E+03 -2.71960E+03  8.31531E+02
 -1.10790E+03 -4.87701E+02  2.02447E+02  1.08633E+03 -2.54879E+03  9.46245E+02 -1.69821E+03 -9.26549E+02
 -3.58544E+03 -2.75450E+03 -2.25462E+02 -3.99891E+03  2.10260E+03 -5.23014E+03  3.74792E+03 -8.23719E+02
  4.37787E+03  3.77606E+01  2.16611E+03  2.62300E+03 -5.05250E+02  4.57162E+03 -3.46194E+03  2.96268E+03
