 $NMID ID='MM_0lb_SNR200_15hz_g45_92.RAW', FMTDAT='(8E13.5)'
 TRAMP=1., VOLUME=1. $END
  3.08943E+05  1.61494E+03  3.37593E+05  2.48626E+05  8.38213E+04  3.36052E+05 -1.32785E+05  2.49683E+05
 -1.89691E+05  8.22847E+04 -1.10902E+05 -3.27682E+04  2.04785E+03 -5.18346E+04  5.30833E+04  1.42865E+03
  3.63338E+04  5.32560E+04 -1.72281E+04  7.56364E+04 -6.05566E+04  6.36352E+04 -8.40879E+04  3.19835E+04
 -8.05457E+04 -1.12355E+04 -5.75742E+04 -5.14151E+04 -1.38063E+04 -6.99451E+04  2.73265E+04 -4.59867E+04
  3.82360E+04  3.55563E+03  1.66420E+04  4.80593E+04 -3.29277E+04  4.68768E+04 -6.63800E+04 -9.46966E+02
 -5.30140E+04 -5.65894E+04 -6.71394E+03 -7.57212E+04  3.34430E+04 -5.42425E+04  4.70966E+04 -1.67724E+04
  4.30264E+04  1.02642E+04  3.19665E+04  2.55216E+04  1.62632E+04  2.90179E+04 -5.75411E+03  2.71410E+04
 -2.20452E+04  1.15034E+04 -1.83991E+04 -3.94054E+03  5.19841E+03 -8.33333E+03  2.13767E+04  1.12876E+04
  6.84143E+03  3.44513E+04 -3.23253E+04  3.60888E+04 -6.27172E+04  3.08073E+03 -5.48348E+04 -4.29654E+04
 -1.10277E+04 -6.23633E+04  3.98172E+04 -4.50416E+04  5.74073E+04 -1.97355E+03  3.48506E+04  3.08721E+04
 -5.68360E+03  3.56988E+04 -2.92980E+04  1.46760E+04 -2.93118E+04 -4.55926E+03 -1.55033E+04 -1.15702E+04
 -7.96845E+03 -1.24516E+04 -1.12675E+03 -1.71579E+04  7.21660E+03 -2.30572E+04  1.57362E+04 -1.34162E+04
  1.25864E+04  5.62355E+03 -8.06782E+03  1.32015E+04 -2.08187E+04 -4.31214E+03 -8.11325E+03 -3.26312E+04
  2.34122E+04 -4.33121E+04  4.67096E+04 -1.96753E+04  4.41303E+04  1.85961E+04  1.55893E+04  4.31610E+04
 -1.61837E+04  3.28635E+04 -2.55014E+04  1.20494E+03 -1.04263E+04 -2.72451E+04  2.11448E+04 -3.26377E+04
  4.05306E+04 -9.18451E+03  3.38665E+04  2.34856E+04  1.68282E+04  4.50068E+04 -7.00424E+03  4.91436E+04
 -3.03865E+04  3.26573E+04 -4.16376E+04  7.15438E+03 -4.19378E+04 -1.63743E+04 -2.19276E+04 -3.64208E+04
  6.55391E+03 -3.62334E+04  3.11123E+04 -1.38858E+04  2.79156E+04  1.12678E+04  4.02861E+03  1.78033E+04
 -1.34395E+04  7.95289E+03 -1.07906E+04 -6.18138E+03  5.44004E+03 -1.12699E+04  1.68777E+04  6.68064E+03
  1.50130E+04  2.18397E+04 -6.14399E+03  2.41041E+04 -2.16463E+04  9.88139E+03 -2.70835E+04 -4.84104E+03
 -1.85147E+04 -1.67425E+04 -6.99626E+03 -1.78597E+04  3.97412E+03 -1.86704E+04  1.43483E+04 -1.74112E+04
  2.36942E+04 -1.25912E+04  3.20922E+04  2.82522E+03  2.25599E+04  1.98370E+04  3.32361E+03  3.53457E+04
 -1.80726E+04  2.95192E+04 -2.62702E+04  9.64219E+03 -2.13718E+04 -1.01087E+04 -5.20472E+03 -1.40547E+04
  2.03378E+03 -2.64025E+03 -4.07309E+03  6.15834E+03 -1.55664E+04  3.63888E+03 -1.50452E+04 -5.83164E+03
 -1.02300E+04 -1.86044E+04  5.23859E+03 -2.21853E+04  1.38023E+04 -1.59136E+04  1.59729E+04 -1.32920E+03
  1.06152E+04  1.19752E+04 -3.38430E+02  1.68928E+04 -1.20754E+04  9.22356E+03 -1.82832E+04 -3.66293E+03
 -1.39835E+04 -1.58489E+04 -6.32865E+02 -2.13991E+04  9.61025E+03 -1.77623E+04  1.79570E+04 -9.16092E+03
  1.77124E+04  6.97563E+02  1.17674E+04  4.16921E+03  5.92611E+03 -5.07707E+02  9.05472E+03 -1.23015E+03
  1.59578E+04  3.77688E+03  1.79243E+04  1.39664E+04  1.01921E+04  2.82677E+04 -3.00782E+03  3.21218E+04
 -1.85221E+04  2.51923E+04 -2.90817E+04  1.24204E+04 -3.10488E+04 -1.74373E+03 -2.60723E+04 -1.67723E+04
 -1.08444E+04 -2.42119E+04  9.14732E+03 -2.34661E+04  1.91492E+04 -1.21261E+04  1.85839E+04  4.28730E+03
  7.34317E+03  1.35449E+04 -6.81266E+03  1.21965E+04 -1.58032E+04  1.80262E+03 -1.23050E+04 -9.74648E+03
 -1.93762E+02 -1.41984E+04  7.40378E+03 -9.39065E+03  9.12327E+03 -1.65088E+03  2.22336E+03  6.55252E+03
 -6.40003E+03  3.25343E+03 -5.14740E+03 -5.22645E+03  2.86162E+02 -1.30811E+04  9.79492E+03 -1.34005E+04
  1.55903E+04 -6.30376E+03  1.51312E+04  3.47294E+03  1.47111E+04  1.29984E+04  6.07472E+03  1.76055E+04
 -2.88534E+03  2.06907E+04 -1.35079E+04  1.17113E+04 -1.52028E+04  3.96436E+03 -1.02703E+04 -2.87212E+03
 -5.10988E+03 -4.38836E+03 -7.81342E+02  2.52841E+03 -2.74935E+03  3.75457E+03 -3.76179E+03  3.58571E+03
 -8.97897E+03 -1.26788E+03 -9.73500E+03 -8.82205E+03 -4.18688E+03 -1.32051E+04  2.99190E+03 -1.10664E+04
  8.59725E+03 -4.48869E+03  5.70253E+03  3.69872E+03  7.66807E+02  2.90528E+03 -4.21378E+03  1.49736E+02
 -4.98559E+03 -6.39013E+03 -8.22660E+01 -1.01814E+04  6.33344E+03 -1.06681E+04  1.18545E+04 -4.27126E+03
  1.40138E+04  1.71453E+03  1.15730E+04  8.45284E+03  2.76607E+03  1.24780E+04 -7.16940E+03  1.08260E+04
 -7.18692E+03  3.62258E+03 -4.45566E+03 -2.41000E+03  2.37215E+03 -3.49266E+03  6.27866E+03 -9.88323E+02
  5.46527E+03  3.66999E+03  9.81952E+02  7.97885E+03 -6.17343E+03  9.00197E+03 -9.91894E+03  3.86469E+02
 -6.50210E+03 -4.54157E+03 -1.37380E+02 -8.34562E+03  5.04736E+03 -5.06237E+03  4.11269E+03  8.24489E+02
  9.92769E+01  5.82742E+03 -4.08948E+03  6.45829E+03 -7.69930E+03  3.37274E+03 -6.67856E+03 -3.00542E+03
 -4.32605E+03 -9.33947E+03  2.34891E+03 -1.00144E+04  8.15646E+03 -5.73240E+03  8.57024E+03  2.45048E+03
  5.98631E+03  8.58819E+03 -5.78155E+02  9.04628E+03 -7.08248E+03  4.84288E+03 -7.29539E+03 -9.73385E+02
 -7.74666E+03 -6.24508E+03 -1.11564E+03 -6.15073E+03  3.21977E+03 -4.63259E+03  3.94703E+03 -2.44417E+03
  4.17098E+03 -3.47119E+02  3.77914E+02  2.61092E+03 -1.19512E+03 -2.46052E+02  8.41795E+02 -3.50236E+03
  6.69987E+03 -2.03099E+03  7.83672E+03  1.23679E+03  9.44242E+03  4.53916E+03  6.84094E+03  1.04941E+04
 -1.96831E+03  1.24386E+04 -1.12764E+04  8.18828E+03 -1.29780E+04  1.63440E+03 -1.06299E+04 -4.52229E+03
 -5.16668E+03 -9.52954E+03 -7.20682E+02 -7.09334E+03  2.62153E+03 -4.29383E+03  2.97274E+03 -1.81227E+03
  2.97459E+03 -1.43909E+03  2.70370E+03 -3.00174E+03  4.41649E+03 -3.03921E+03  4.79249E+03 -5.48866E+02
  4.57064E+03  2.27098E+03  2.38040E+03  5.31683E+03 -1.21895E+03  4.21065E+03 -5.55793E+03  3.81510E+03
 -6.68530E+03 -1.25802E+03 -4.19439E+03 -5.25196E+03  5.11801E+02 -7.39128E+03  4.29290E+03 -9.11157E+03
  8.11766E+03 -4.80692E+03  9.93914E+03  1.39891E+03  7.78259E+03  6.71899E+03  6.67204E+02  8.40377E+03
 -4.66710E+03  6.84371E+03 -5.51016E+03  1.75569E+03 -3.39221E+03 -1.83980E+03 -1.14007E+03 -1.52871E+03
 -5.61855E+02  1.47654E+03 -1.37242E+03  1.93047E+03 -3.44908E+03  1.74112E+03 -6.48832E+03 -2.20123E+02
 -2.71369E+03 -6.27218E+03 -7.97561E+02 -5.35874E+03  5.09000E+03 -6.74105E+03  5.79736E+03 -2.49828E+03
  7.21813E+03  2.63919E+03  3.65729E+03  4.81208E+03 -1.52150E+03  7.07579E+03 -3.81424E+03  3.65339E+03
 -5.63859E+03 -5.76456E+01 -5.29751E+03 -3.78104E+03 -3.74937E+02 -5.04364E+03  1.58211E+03 -4.75950E+03
  5.04317E+03 -1.48219E+03  2.21743E+03  7.75080E+02  7.06036E+02  2.34833E+03 -1.84018E+02  4.44226E+02
  2.25224E+03  1.39736E+03  1.77691E+03  1.36259E+03  1.68398E+03  2.46158E+03  2.38762E+03  4.58894E+03
 -2.28529E+03  6.34622E+03 -5.00554E+03  5.52551E+03 -5.48669E+03  1.52335E+03 -7.23759E+03 -1.81956E+03
 -3.16705E+03 -7.73498E+03  1.42217E+03 -6.40934E+03  3.15768E+03 -5.20375E+03  5.52326E+03 -2.54983E+02
  5.29542E+03  1.87907E+03  3.22850E+02  3.73737E+03 -1.28784E+03  3.17600E+03 -2.90085E+03 -3.53856E+01
 -1.65100E+03 -2.73705E+03  1.18773E+03 -3.40429E+03  1.92257E+03 -8.46327E+02  2.54756E+03  1.62868E+03
  2.46809E+03  1.25339E+03 -4.50954E+02  4.00877E+02  9.61026E+02  8.60191E+02  1.05407E+03 -1.33950E+03
  1.97383E+02 -7.21954E+02  1.70839E+03  2.05079E+03  1.49114E+03  2.53551E+03 -5.68102E+02  5.12867E+03
 -1.71918E+03  1.26917E+03 -3.28775E+03  1.08298E+02 -3.47716E+03 -1.76312E+03 -4.48162E+02 -1.95858E+03
  1.41235E+02 -2.11134E+03  1.59080E+03 -1.72963E+03  1.06992E+03  1.44111E+03 -1.77973E+03  1.49187E+03
 -1.81159E+03  5.21483E+02 -2.05446E+03 -1.63185E+03 -9.89155E+02 -4.51797E+03  1.10378E+03 -1.71451E+03
  1.02669E+03 -2.20370E+03  1.23562E+03 -3.28381E+02  2.34027E+03  5.35889E+02  5.17543E+02  1.80061E+03
 -7.71379E+02 -6.21744E+02 -6.06137E+02 -1.30857E+03  9.47454E+02 -1.48867E+03  3.74942E+03 -1.13695E+03
  2.52642E+03  5.59249E+02  3.47315E+03  1.40048E+03  5.12026E+02  3.87729E+03 -8.24139E+02  2.93245E+03
 -2.16868E+03  8.92470E+02 -3.42717E+03 -9.96541E+02 -1.10759E+03 -2.31360E+03 -8.58120E+02 -2.35177E+03
  2.06680E+03 -1.81394E+03  1.13421E+03  1.20294E+03  5.56274E+02  1.94040E+03 -6.69945E+02  1.30231E+03
 -1.71247E+03  7.71165E+02 -4.53712E+02 -5.72481E+02 -8.47408E+02  8.39264E+01 -7.34775E+02  7.57566E+02
 -4.00124E+02  1.21393E+03 -3.05083E+03  1.45231E+03 -3.25584E+03  4.28033E+02 -3.40039E+03 -2.06374E+03
 -3.13219E+03 -4.69987E+03  1.06885E+03 -5.90191E+03  1.74478E+03 -5.59179E+03  4.44380E+03 -1.19833E+03
  3.58220E+03 -4.38370E+01  2.35919E+03  3.24291E+03 -3.38469E+02  3.49613E+03 -1.05076E+03  2.43470E+03
 -1.23993E+03  2.17465E+03 -1.27588E+03 -6.79526E+02 -1.44447E+02 -3.43175E+02 -7.25246E+01 -5.45789E+02
 -9.78016E+02  4.28932E+02 -1.67557E+03 -5.91236E+01  1.41763E+02 -1.54942E+03 -1.51989E+03 -1.29984E+03
  1.60430E+03 -3.72934E+02  2.14710E+02  1.29542E+03  2.09980E+03  1.32380E+03 -1.05383E+03  3.21343E+03
 -2.21294E+03  4.45214E+03 -2.86244E+03  2.09176E+03 -2.75651E+03 -3.83662E+02 -2.85365E+03 -2.83872E+03
 -1.33566E+03 -3.12249E+03  1.17150E+03 -3.09440E+03  1.97782E+03 -6.25668E+02  2.10357E+03 -1.01504E+03
  1.46231E+03  3.01429E+02  3.08874E+02  1.21438E+03 -4.05297E+02 -5.06821E+02 -2.05509E+02  4.31258E+02
  6.28474E+02  2.20717E+02  1.17811E+03  5.40202E+02 -1.35657E+02 -7.62811E-01  1.61231E+03  1.25798E+02
 -1.37135E+03  2.25447E+03 -9.21678E+02 -5.80551E+02 -2.08706E+03 -2.42620E+03  2.23660E+02 -2.05942E+03
  1.51559E+03 -1.42757E+03  1.50397E+03 -1.01799E+03  1.86386E+03 -7.66246E+02  6.72499E+02  1.77359E+03
  1.00634E+03  5.72959E+02 -1.01932E+03  2.35178E+03 -7.39662E+02  3.21889E+02 -1.42949E+03 -1.17767E+02
  4.66891E+02 -6.71447E+02 -2.58996E+02 -3.82828E+01 -1.73562E+03  8.94194E+02 -1.62616E+03 -5.70763E+01
 -1.99433E+03 -1.74992E+02 -4.93350E+01 -1.29423E+03  6.26295E+02 -2.47721E+03  1.36128E+03 -1.05342E+03
  1.70045E+03 -3.68679E+02 -1.74316E+02  1.05489E+03  2.87308E+01  2.01985E+03 -4.07392E+02  1.79135E+03
