 $NMID ID='MM_0lb_SNR200_19hz_g60_83.RAW', FMTDAT='(8E13.5)'
 TRAMP=1., VOLUME=1. $END
  3.10392E+05  6.85662E+02  3.37627E+05  2.49648E+05  8.49349E+04  3.37995E+05 -1.31295E+05  2.49630E+05
 -1.90533E+05  8.33235E+04 -1.10956E+05 -3.23336E+04  9.78100E+02 -5.04898E+04  5.38588E+04 -8.42886E+01
  3.57472E+04  5.35366E+04 -1.70459E+04  7.43700E+04 -6.07987E+04  6.28273E+04 -8.36524E+04  3.09642E+04
 -8.05911E+04 -1.22517E+04 -5.72194E+04 -4.98042E+04 -1.46616E+04 -6.92807E+04  2.73537E+04 -4.45932E+04
  3.99732E+04  4.02062E+03  1.54296E+04  4.82589E+04 -3.42973E+04  4.75003E+04 -6.69979E+04 -1.19749E+01
 -5.36484E+04 -5.65008E+04 -7.12379E+03 -7.65998E+04  3.30961E+04 -5.48232E+04  4.78904E+04 -1.70519E+04
  4.29298E+04  1.11746E+04  3.05463E+04  2.47014E+04  1.57901E+04  2.87300E+04 -5.06961E+03  2.69332E+04
 -2.13385E+04  1.24169E+04 -1.95193E+04 -4.55349E+03  5.43338E+03 -6.46766E+03  2.13084E+04  1.20741E+04
  7.12201E+03  3.39686E+04 -3.10390E+04  3.46105E+04 -6.21253E+04  1.58569E+03 -5.57702E+04 -4.20880E+04
 -1.19029E+04 -6.18378E+04  3.94735E+04 -4.42791E+04  5.59033E+04 -2.80524E+03  3.36789E+04  3.18677E+04
 -6.52332E+03  3.41303E+04 -2.97575E+04  1.39452E+04 -2.89062E+04 -3.81153E+03 -1.61420E+04 -9.72834E+03
 -6.45523E+03 -1.25906E+04 -5.32224E+02 -1.68436E+04  6.75080E+03 -2.29882E+04  1.55700E+04 -1.34245E+04
  1.31877E+04  5.57663E+03 -7.76075E+03  1.35882E+04 -2.03462E+04 -2.31131E+03 -8.16450E+03 -3.20863E+04
  2.06992E+04 -4.24486E+04  4.60127E+04 -1.87794E+04  4.42919E+04  1.86858E+04  1.40325E+04  4.17094E+04
 -1.51556E+04  3.17114E+04 -2.50392E+04  1.82189E+03 -9.56040E+03 -2.55061E+04  1.96066E+04 -3.23397E+04
  3.89105E+04 -7.74783E+03  3.34532E+04  2.26873E+04  1.64946E+04  4.50030E+04 -8.14505E+03  4.81778E+04
 -2.99149E+04  3.17568E+04 -4.01909E+04  8.19966E+03 -4.10834E+04 -1.49652E+04 -2.11154E+04 -3.68591E+04
  7.84480E+03 -3.55494E+04  2.94659E+04 -1.33943E+04  2.70885E+04  1.29412E+04  3.38220E+03  1.83266E+04
 -1.41536E+04  7.31234E+03 -9.18168E+03 -6.62720E+03  5.14874E+03 -9.69086E+03  1.77973E+04  6.55535E+03
  1.16162E+04  2.11126E+04 -5.35693E+03  2.38621E+04 -2.13867E+04  1.07336E+04 -2.55380E+04 -4.98554E+03
 -1.84236E+04 -1.61372E+04 -7.28161E+03 -1.95461E+04  4.40876E+03 -1.61659E+04  1.45102E+04 -1.44626E+04
  2.27363E+04 -1.05130E+04  2.94801E+04  1.89927E+03  2.18254E+04  1.69779E+04  3.71832E+03  3.38962E+04
 -1.66960E+04  2.85935E+04 -2.58925E+04  8.94355E+03 -2.16792E+04 -1.03787E+04 -3.39740E+03 -1.45314E+04
  2.26108E+03 -2.65047E+03 -3.17106E+03  4.81018E+03 -1.38243E+04  5.76920E+03 -1.52119E+04 -5.09050E+03
 -9.30083E+03 -1.63434E+04  4.32581E+03 -1.97777E+04  1.28350E+04 -1.40503E+04  1.60392E+04 -1.88803E+03
  9.29255E+03  1.28510E+04 -1.52304E+03  1.67700E+04 -1.13681E+04  8.66959E+03 -1.67699E+04 -3.35269E+03
 -1.36180E+04 -1.39001E+04 -1.91407E+03 -2.12128E+04  9.62119E+03 -1.61601E+04  1.59254E+04 -8.05212E+03
  1.54671E+04  3.55642E+02  1.12904E+04  3.92248E+03  4.97217E+03  4.52605E+01  7.61789E+03 -1.42316E+03
  1.46873E+04  2.37975E+03  1.69797E+04  1.35212E+04  9.71671E+03  2.61053E+04 -3.61877E+03  2.74553E+04
 -1.73675E+04  2.11360E+04 -2.65026E+04  1.05871E+04 -2.72177E+04 -2.43781E+03 -2.37137E+04 -1.60386E+04
 -1.15819E+04 -2.13352E+04  8.18884E+03 -1.93695E+04  1.72397E+04 -1.13722E+04  1.62044E+04  3.57449E+03
  7.28071E+03  1.22102E+04 -7.69959E+03  1.06768E+04 -1.46401E+04  2.97066E+03 -1.02900E+04 -8.07129E+03
 -1.35362E+03 -1.18872E+04  6.20067E+03 -9.49288E+03  8.60391E+03 -1.28000E+03  1.80875E+03  5.08091E+03
 -6.57962E+03  2.30054E+03 -4.67192E+03 -5.34146E+03 -1.16052E+02 -1.04147E+04  8.65998E+03 -1.05704E+04
  1.29168E+04 -6.04156E+03  1.35950E+04  3.28815E+03  1.15019E+04  9.87185E+03  6.01033E+03  1.45219E+04
 -1.15405E+03  1.71877E+04 -9.53661E+03  1.14214E+04 -1.24267E+04  2.59584E+03 -8.72971E+03 -2.85067E+03
 -4.61303E+03 -3.31324E+03  1.71888E+02  6.33092E+02 -1.38021E+03  2.12786E+03 -3.34219E+03  3.38186E+03
 -7.80982E+03  4.31272E+02 -9.04349E+03 -8.19061E+03 -4.48857E+03 -1.16991E+04  3.60867E+03 -9.22811E+03
  7.33848E+03 -3.57744E+03  5.55419E+03  2.30456E+03  1.80526E+03  4.26584E+03 -3.56044E+03  5.47267E+01
 -3.26667E+03 -5.63306E+03 -1.61476E+03 -8.11217E+03  4.83851E+03 -9.04630E+03  1.03114E+04 -4.15381E+03
  1.16870E+04  4.11813E+02  9.04538E+03  6.62765E+03  1.58389E+03  9.20649E+03 -5.95158E+03  8.59282E+03
 -8.54366E+03  3.63108E+03 -4.19256E+03 -7.91632E+02  7.47975E+02 -3.06208E+03  4.77976E+03 -8.46179E+02
  3.48513E+03  3.61390E+03  9.23208E+02  7.84442E+03 -4.75828E+03  6.93084E+03 -8.68774E+03  1.43797E+03
 -4.60868E+03 -2.79280E+03  6.55702E+02 -6.63897E+03  3.53338E+03 -3.15663E+03  3.80184E+03  7.92751E+02
  4.86481E+02  2.63199E+03 -4.73830E+03  4.89065E+03 -5.09133E+03  2.08429E+03 -4.64533E+03 -9.29953E+02
 -2.60790E+03 -5.29698E+03  2.32418E+02 -8.31716E+03  5.68126E+03 -4.04688E+03  6.13891E+03  1.62056E+03
  5.02745E+03  4.55010E+03  3.27936E+02  6.91890E+03 -5.27698E+03  4.33430E+03 -5.58887E+03 -3.89765E+02
 -5.73716E+03 -5.11558E+03 -6.77493E+02 -5.22692E+03  1.43229E+03 -4.65425E+03  2.27671E+03 -2.05494E+03
  2.99997E+03 -1.88038E+02 -4.49520E+02  2.71623E+03  9.80057E+02 -2.63134E+00  1.70910E+03 -2.15525E+03
  2.94798E+03 -5.05013E+02  5.19065E+03  5.49300E+02  6.11369E+03  2.93247E+03  5.35551E+03  6.69038E+03
  1.68998E+01  8.87118E+03 -7.41373E+03  6.17127E+03 -1.08973E+04  1.15795E+03 -7.44525E+03 -3.45172E+03
 -3.66478E+03 -6.03046E+03  2.09539E+02 -4.66449E+03  1.54653E+03 -1.80897E+03  1.03564E+03 -2.49408E+03
 -6.41260E+01 -1.31882E+03  2.46119E+03 -1.00843E+03  3.43340E+03 -1.16378E+03  3.49981E+03  7.53078E+01
  4.18960E+03  1.27566E+03  1.60277E+03  2.85949E+03 -2.03301E+03  2.63907E+03 -3.59097E+03  1.77319E+03
 -5.31169E+03 -7.82149E+02 -1.24974E+03 -3.45894E+03  1.51767E+03 -4.54570E+03  3.88854E+03 -6.12089E+03
  4.72583E+03 -3.02403E+03  5.01591E+03  7.89690E+02  4.42410E+03  4.22915E+03  1.17252E+03  6.14506E+03
 -2.30663E+03  4.77445E+03 -3.23237E+03  2.62285E+03 -9.02970E+02 -6.62664E+00 -8.57419E+02 -1.01018E+03
 -2.08607E+02  2.45741E+02 -1.50418E+03  2.25623E+03 -2.00826E+03  6.72095E+02 -3.26788E+03 -1.04866E+02
 -1.71312E+03 -3.00537E+03  7.45811E+02 -5.28752E+03  3.09965E+03 -4.89375E+03  3.93654E+03 -1.32846E+03
  4.29114E+03  2.33215E+03  1.48879E+03  2.92923E+03 -2.15883E+02  3.80318E+03 -2.55869E+03  2.71777E+03
 -3.28453E+03  8.20138E+02 -2.72655E+03 -7.37043E+02  2.74490E+02 -3.07935E+03  4.81820E+02 -2.95061E+03
  2.82510E+03 -8.05189E+02  1.31954E+03 -4.83425E+02  4.73323E+02  2.40886E+03  1.66020E+03  3.53593E+02
  1.67893E+03  5.34986E+02  1.30968E+03  1.46982E+03  1.72400E+03  2.83879E+03  1.77240E+03  2.28471E+03
 -2.00936E+03  3.42065E+03 -2.76660E+03  3.80795E+03 -4.63142E+03  1.60084E+03 -4.75492E+03 -3.42154E+01
 -9.71310E+02 -2.60564E+03  3.68549E+02 -4.35276E+03  1.23959E+03 -2.27972E+03  2.46136E+03 -1.57173E+03
  3.03882E+03  2.67368E+03  5.91253E+01  1.44727E+03  1.68665E+02  8.66183E+02 -1.74334E+03 -8.22022E+01
 -1.78433E+02 -1.77954E+03  1.49649E+03 -9.36046E+02  1.80747E+03 -1.23333E+03  1.83480E+03 -2.95101E+02
  5.66006E+02  9.51422E+02  1.04029E+02  3.55601E+02 -2.30061E+02  1.13919E+03  1.49195E+03 -4.49871E+02
 -5.37481E+02  5.76467E+02  1.98763E+03  1.13132E+03 -6.60920E+02  1.45564E+03 -2.31933E+02  3.20988E+03
 -8.48911E+02  3.59962E+02 -7.21849E+02  3.73607E+02 -2.31094E+03 -1.39723E+03 -5.18441E+02 -8.50065E+02
  1.92864E+03 -1.40845E+03  1.32119E+03  7.70914E+01  1.08311E+03  6.43086E+02 -9.25583E+02  1.55245E+03
 -5.00382E+02  1.27552E+03 -9.02954E+02 -1.66488E+03 -2.52838E+02 -1.04705E+03  3.50859E+02 -1.12958E+03
  1.04289E+02 -1.39672E+03 -6.03075E+02 -2.94596E+02  1.49094E+02  8.75294E+02  8.29075E+02  1.01200E+03
 -5.83390E+02 -4.03143E+02 -2.11590E+03 -4.30551E+02  8.61904E+02 -9.13308E+02  1.17962E+03  7.73722E+01
  9.03443E+02  5.25044E+02  3.17756E+03  1.82704E+01  3.49793E+02  1.51625E+03 -2.36800E+02  1.72159E+03
 -4.83388E+02  6.77088E+02 -1.10716E+03  2.58428E+02 -1.83658E+02 -2.04600E+03  3.95304E+02 -6.12749E+02
  2.10210E+03 -1.72843E+03  3.33998E+02  1.10617E+03  2.24674E+02  1.89609E+03  4.84424E+02  6.48007E+02
  3.18613E+02  1.08126E+03 -2.77962E+02 -1.21977E+03 -3.18333E+02  1.19603E+03 -9.79582E+02 -8.48178E+02
 -8.52996E+02  4.90418E+02 -9.26407E+02  7.01436E+02 -8.44154E+02 -9.12500E+02 -2.05668E+03 -7.45724E+02
 -6.25705E+02 -9.61631E+02  4.02651E+02 -2.00482E+03  8.83304E+02 -3.70254E+03  2.42194E+03 -5.83961E+02
  2.93979E+03  9.45907E+02  6.58854E+02  3.26713E+02 -5.18160E+02  1.74965E+03 -1.98447E+02  1.52960E+03
 -1.45191E+03  5.51589E+01 -5.01317E+02  3.24292E+02 -8.39836E+02  1.14749E+03  1.94853E+02 -2.10819E+02
 -8.07428E+02 -7.87112E+02 -8.94677E+02  6.20377E+02 -8.15211E+02 -8.10818E+02 -1.84311E+02 -1.79942E+03
  1.57929E+03 -8.74184E+02  7.60969E+02  1.32468E+02  5.00750E+02  4.05086E+02 -1.56296E+03  1.71867E+03
 -1.17091E+03  1.89664E+03 -1.26105E+03 -2.29981E+02 -1.56647E+03  1.04001E+03 -8.88816E+02 -1.09360E+03
 -1.53042E+03 -1.01560E+03  1.85404E+03 -2.64863E+02  1.03716E+03 -2.99649E+02  3.64778E+02 -3.91008E+02
  3.58856E+02 -3.43425E+02  2.48321E+01  3.51673E+02 -1.43359E+02  1.47140E+02 -1.11686E+02  2.54237E+02
  1.41417E+03  6.79416E+02 -8.90690E+01 -3.35066E+02 -1.09344E+03  9.69956E+02  1.05629E+03 -9.04791E+02
  5.71432E+01  2.07052E+02 -5.41563E+02 -6.52691E+02 -1.84433E+02  3.12104E+02  1.64767E+02 -1.18626E+03
 -8.80913E+01 -1.56497E+02  1.27769E+03 -2.29364E+02  4.05663E+02 -4.33331E+02  5.14303E+02  5.57494E+02
  2.17932E+02  1.06742E+03 -3.99311E+02 -4.07662E+02 -3.87764E+01  4.04311E+02 -8.01468E+02  5.00222E+02
 -6.78887E+02 -7.82363E+02 -7.40365E+02 -1.61712E+01 -7.70140E+02 -1.33242E+03 -3.77675E+02 -4.36011E+02
 -7.31867E+02 -4.50139E+02 -1.23937E+03 -1.11422E+03  5.39765E+02 -1.54671E+03  4.21177E+02  4.01991E+02
  8.25699E+02 -6.65477E+02 -1.04756E+03 -9.04563E+01 -5.58995E+02  1.63949E+03  2.88401E+02 -5.31653E+01
