 $NMID ID='MM_0lb_SNR200_18hz_g60_31.RAW', FMTDAT='(8E13.5)'
 TRAMP=1., VOLUME=1. $END
  3.09918E+05  7.46544E+01  3.38418E+05  2.50553E+05  8.52780E+04  3.37961E+05 -1.31852E+05  2.51385E+05
 -1.90441E+05  8.25785E+04 -1.11392E+05 -3.31275E+04  5.12297E+02 -5.00201E+04  5.29989E+04 -8.79477E+02
  3.49369E+04  5.29553E+04 -1.72923E+04  7.56155E+04 -5.97140E+04  6.36178E+04 -8.39152E+04  3.16574E+04
 -8.21944E+04 -1.04312E+04 -5.77134E+04 -5.08851E+04 -1.45689E+04 -6.89032E+04  2.76752E+04 -4.54231E+04
  3.98879E+04  4.84537E+03  1.64810E+04  4.79029E+04 -3.25521E+04  4.75981E+04 -6.63835E+04 -3.02774E+02
 -5.36490E+04 -5.55953E+04 -6.37274E+03 -7.65238E+04  3.43683E+04 -5.58551E+04  4.78317E+04 -1.71032E+04
  4.35265E+04  1.10615E+04  3.18755E+04  2.49588E+04  1.57873E+04  2.90680E+04 -4.66601E+03  2.70040E+04
 -2.27940E+04  1.17741E+04 -1.94918E+04 -4.93359E+03  5.64465E+03 -8.11771E+03  2.17333E+04  1.15778E+04
  6.98126E+03  3.50895E+04 -3.22115E+04  3.46780E+04 -6.16528E+04  1.78444E+03 -5.66285E+04 -4.23761E+04
 -1.21161E+04 -6.19801E+04  3.96001E+04 -4.61808E+04  5.64917E+04 -2.70938E+03  3.27078E+04  3.17414E+04
 -5.60697E+03  3.62915E+04 -3.00862E+04  1.52384E+04 -2.88023E+04 -3.93287E+03 -1.57479E+04 -9.89258E+03
 -7.19923E+03 -1.32290E+04 -1.93745E+03 -1.83214E+04  6.86449E+03 -2.31357E+04  1.52668E+04 -1.33730E+04
  1.17543E+04  4.98024E+03 -7.78213E+03  1.44105E+04 -2.10896E+04 -4.04925E+03 -7.58061E+03 -3.17658E+04
  2.14680E+04 -4.13645E+04  4.62417E+04 -1.94098E+04  4.38936E+04  1.92583E+04  1.48427E+04  4.32625E+04
 -1.59850E+04  3.22868E+04 -2.45101E+04  1.11052E+03 -8.71198E+03 -2.73059E+04  2.09875E+04 -3.33271E+04
  3.92828E+04 -9.52024E+03  3.41753E+04  2.29349E+04  1.71771E+04  4.46131E+04 -7.30075E+03  4.82901E+04
 -3.00771E+04  3.18984E+04 -3.97811E+04  9.97575E+03 -4.13066E+04 -1.58304E+04 -2.27748E+04 -3.65573E+04
  6.68505E+03 -3.53840E+04  3.09352E+04 -1.25043E+04  2.77426E+04  1.04338E+04  3.36133E+03  1.86667E+04
 -1.38539E+04  8.05986E+03 -1.01645E+04 -7.23537E+03  5.76759E+03 -1.07090E+04  1.77854E+04  5.86422E+03
  1.24432E+04  2.24439E+04 -7.35398E+03  2.44276E+04 -2.15555E+04  1.10637E+04 -2.72600E+04 -5.92089E+03
 -1.91045E+04 -1.61035E+04 -7.81108E+03 -1.91435E+04  2.27429E+03 -1.80381E+04  1.41818E+04 -1.60137E+04
  2.40891E+04 -1.31984E+04  3.15355E+04  1.40511E+03  2.25686E+04  1.87442E+04  3.71207E+03  3.50356E+04
 -1.60395E+04  2.82276E+04 -2.83528E+04  9.65915E+03 -2.04372E+04 -9.95391E+03 -3.16617E+03 -1.39167E+04
  1.54953E+03 -3.20286E+03 -3.02772E+03  5.72133E+03 -1.45671E+04  5.66879E+03 -1.44002E+04 -5.88781E+03
 -9.58855E+03 -1.74619E+04  4.58278E+03 -2.19723E+04  1.54174E+04 -1.48188E+04  1.60287E+04 -1.13201E+03
  1.09222E+04  1.23133E+04 -1.58324E+03  1.74093E+04 -1.19543E+04  1.02509E+04 -1.74905E+04 -3.75755E+03
 -1.27544E+04 -1.53877E+04 -1.52007E+03 -2.04693E+04  8.28646E+03 -1.66171E+04  1.73111E+04 -7.95756E+03
  1.60442E+04  4.39560E+02  1.21281E+04  4.85953E+03  6.17977E+03  4.31103E+02  8.09995E+03 -1.81513E+03
  1.56168E+04  2.80061E+03  1.58614E+04  1.38508E+04  1.08322E+04  2.67542E+04 -4.20134E+03  2.93719E+04
 -1.61334E+04  2.26983E+04 -2.78423E+04  1.04597E+04 -2.96487E+04 -1.27125E+03 -2.41171E+04 -1.61738E+04
 -1.01901E+04 -2.43309E+04  7.98896E+03 -2.17764E+04  1.99278E+04 -1.14549E+04  1.67818E+04  4.81053E+03
  6.43543E+03  1.28991E+04 -8.13145E+03  1.03175E+04 -1.49741E+04  3.37185E+03 -1.01160E+04 -8.77482E+03
  3.38806E+02 -1.34376E+04  7.69740E+03 -9.94070E+03  9.30670E+03 -1.48102E+03  2.10237E+03  4.98330E+03
 -6.56975E+03  1.18938E+03 -5.20986E+03 -4.50864E+03  1.99114E+03 -1.23021E+04  8.13585E+03 -1.11401E+04
  1.37129E+04 -5.55445E+03  1.39026E+04  3.25985E+03  1.31421E+04  9.41850E+03  6.92110E+03  1.59142E+04
 -1.83834E+03  1.84099E+04 -1.24565E+04  1.23352E+04 -1.27295E+04  3.71743E+03 -9.59715E+03 -3.05684E+03
 -4.95559E+03 -4.29087E+03 -2.35803E+02  1.57022E+03 -2.21853E+03  2.20407E+03 -4.50102E+03  4.15908E+03
 -9.49905E+03 -1.29402E+03 -9.05078E+03 -7.29884E+03 -4.85739E+03 -1.25989E+04  4.20653E+03 -9.32308E+03
  7.87450E+03 -4.35807E+03  6.16165E+03  2.79027E+03 -4.52953E+02  4.15115E+03 -4.17863E+03  3.21646E+02
 -3.83768E+03 -5.82402E+03 -1.19408E+03 -8.28085E+03  3.86313E+03 -9.39143E+03  1.18866E+04 -5.41245E+03
  1.20642E+04  5.07184E+02  9.31947E+03  6.60300E+03  2.70341E+03  9.37854E+03 -6.97673E+03  9.43417E+03
 -7.45317E+03  4.59076E+03 -4.16841E+03 -1.01319E+03  1.72405E+03 -1.88697E+03  6.18014E+03 -1.13428E+03
  5.28827E+03  3.67736E+03  5.79004E+02  8.05356E+03 -6.51984E+03  7.24407E+03 -7.61220E+03  1.50025E+03
 -4.48977E+03 -3.65842E+03  2.81212E+02 -5.88879E+03  3.96348E+03 -3.91806E+03  3.67440E+03  1.36130E+03
  3.38886E+02  4.41447E+03 -4.51778E+03  5.04505E+03 -6.39460E+03  2.71504E+03 -6.07376E+03 -2.02241E+03
 -3.83057E+03 -5.96663E+03  1.66580E+03 -8.49995E+03  6.77676E+03 -5.49644E+03  7.97188E+03  1.07960E+03
  4.93877E+03  6.47079E+03 -1.28759E+01  8.60131E+03 -6.70252E+03  4.91755E+03 -6.11832E+03 -1.73389E+03
 -6.48291E+03 -6.43670E+03 -1.68733E+03 -7.10723E+03  2.67332E+03 -5.40682E+03  2.10660E+03 -1.64049E+03
  3.40701E+03 -4.14694E+02 -1.50896E+02  1.10266E+03 -2.85877E+02 -1.21876E+02 -8.54388E+01 -2.81364E+03
  4.66533E+03 -1.14715E+03  6.49651E+03  4.96650E+02  5.71911E+03  4.08969E+03  6.15720E+03  7.97748E+03
 -5.57025E+02  1.01657E+04 -8.89513E+03  7.29967E+03 -1.05619E+04  2.14385E+03 -9.03442E+03 -3.55764E+03
 -4.01301E+03 -7.33934E+03  2.14486E+02 -6.22910E+03  1.26683E+03 -2.81102E+03  1.04244E+03 -2.52870E+03
  1.13614E+03 -2.51841E+03  1.70373E+03 -2.19347E+03  3.41499E+03 -2.02641E+03  4.06699E+03 -4.90448E+01
  4.73528E+03  1.60834E+03  1.86736E+03  3.57392E+03 -2.82545E+03  3.04386E+03 -5.19915E+03  2.53983E+03
 -6.24230E+03 -1.61256E+03 -2.47726E+03 -4.66331E+03  1.45029E+03 -5.95259E+03  3.89041E+03 -7.14355E+03
  5.90212E+03 -3.42217E+03  7.69935E+03  1.03345E+03  5.87294E+03  4.54080E+03  1.27281E+03  7.09023E+03
 -2.95881E+03  5.71396E+03 -5.09878E+03  2.12095E+03 -2.22247E+03 -1.88457E+03 -1.37069E+03 -1.43450E+03
  4.22203E+02  1.57281E+03 -9.87688E+02  2.35194E+03 -2.62610E+03  7.90925E+02 -5.02371E+03 -8.78530E+02
 -2.64612E+03 -4.43291E+03  9.16296E+02 -4.48501E+03  3.28814E+03 -3.57225E+03  4.16585E+03 -2.40662E+03
  4.54538E+03  1.91058E+03  1.70535E+03  3.16027E+03 -1.73954E+03  6.10987E+03 -4.34410E+03  3.36866E+03
 -3.13170E+03  5.68408E+02 -4.25289E+03 -2.11796E+03  6.71025E+02 -4.03328E+03  1.05614E+03 -2.95302E+03
  2.97608E+03 -1.77059E+03  1.93616E+03  1.06271E+03  9.48431E+02  1.02776E+03  8.44323E+01  4.87312E+02
  2.04443E+02  7.11642E+02  2.40394E+03  7.74512E+02  1.35080E+03  2.08809E+03  2.08349E+03  1.20332E+03
 -1.86321E+03  3.39187E+03 -3.02572E+03  4.00425E+03 -2.70245E+03  4.89389E+02 -5.88906E+03 -1.65458E+03
 -2.52407E+03 -3.87113E+03  6.95830E+02 -5.62076E+03  2.31621E+03 -3.32303E+03  3.12768E+03 -1.60635E+03
  3.09601E+03  2.42922E+03  3.13623E+02  2.81534E+03  5.58052E+02  6.05380E+02 -9.31047E+02 -1.17470E+03
  7.74112E+02 -2.36589E+03  1.34515E+03 -6.83726E+02  1.67665E+03 -7.43939E+02  2.14600E+03  5.43881E+02
  5.12490E+02  9.23282E+02  4.12174E+02  2.76676E+02  4.73233E+01  1.37145E+02  6.59096E+02 -2.86555E+02
  6.54135E+02 -9.42481E+02  1.69510E+03  3.64830E+02 -2.52726E+02  2.32392E+03 -1.65732E+02  4.65842E+03
 -1.34336E+03  1.58046E+03 -2.66978E+03 -2.95704E+02 -1.50797E+03 -1.12652E+03  2.13563E+02 -5.67303E+02
  7.37962E+02 -1.82844E+03 -8.74730E+00 -4.23668E+02  8.90424E+02  1.59878E+03 -7.93388E+02  1.25235E+03
 -1.89561E+03  1.14809E+03 -1.26286E+03 -1.38243E+03 -1.36148E+02 -2.89767E+03  3.75088E+01 -1.77849E+03
  1.28672E+03 -1.27467E+03  1.23786E+03  7.05726E+02  1.38305E+03 -1.77453E+02  9.15696E+02  1.17303E+03
  3.31867E+02 -4.46622E+01 -4.59946E+02 -7.83772E+02  7.57949E+02 -7.83033E+02  2.95273E+03 -1.03506E+03
  1.75883E+03 -1.12951E+03  2.63526E+03  6.30965E+02  1.63435E+03  2.03929E+03 -1.29252E+03  1.29332E+03
 -1.44579E+03 -3.01671E+02 -1.73700E+03  7.51121E+01 -1.26942E+03 -2.18407E+03  8.15111E+02 -4.68174E+02
  1.52192E+03 -6.59416E+02 -4.45675E+02  9.96811E+02  4.90736E+02  7.81653E+02  2.07350E+02  1.10815E+03
 -4.82515E+02  1.12078E+03 -1.03160E+03 -3.66164E+02 -3.94660E+02 -8.69792E+01 -1.05721E+03  2.57339E+02
 -8.23113E+02  1.18602E+03 -3.17845E+02  7.37106E+02 -2.00830E+03 -9.59651E+02 -1.39533E+03 -2.26934E+03
 -9.68703E+02 -2.77713E+03  5.19199E+02 -3.81957E+03  1.75467E+03 -1.54254E+03  2.46439E+03 -2.14026E+02
  3.22943E+03  9.20315E+02  1.15891E+03  1.72979E+03 -1.46662E+03  5.27781E+02  3.69200E+00  1.74529E+03
 -1.26254E+03  9.08155E+02 -2.86832E+02  1.08178E+03  1.55135E+01 -4.09021E+01 -1.01501E+03 -1.95921E+02
 -1.11482E+03  3.09093E+02 -3.96544E+02 -3.29609E+02  7.29389E+02 -7.06006E+02 -2.39829E+02 -1.62329E+03
  1.25302E+03  4.31208E+02  5.67446E+02  6.99466E+02 -2.65666E+02  2.61543E+02  1.87534E+02  1.83451E+03
 -4.81805E+02  2.11817E+03 -1.27729E+03  2.04550E+03 -2.22321E+03 -3.30366E+02 -1.51436E+03 -7.09938E+02
  3.09640E+02 -1.51429E+03 -7.13345E+01 -7.47288E+02  2.54849E+02 -6.54111E+01  1.94477E+03  9.37039E+02
  5.38049E+02  2.03430E+02  1.12184E+02  3.42171E+02 -5.52484E+02 -3.71174E+02  4.93537E+02 -6.07282E+02
  3.31028E+02  5.47215E+02  9.28430E+01  9.21805E+02 -1.90286E+01  1.51044E+03  7.35107E+02 -2.47773E+01
 -9.48577E+02  3.93631E+02 -1.60683E+03  3.02236E+02 -3.59083E+02 -8.46079E+02 -1.12692E+02 -8.27705E+02
  1.37396E+03 -4.31365E+01  2.41998E+02  1.25134E+02  6.25918E+02 -8.50734E+02  6.96536E+02  2.89587E+02
  5.60765E+02  2.14367E+02 -1.74171E+02  5.40382E+02 -2.46482E+02  5.30747E+02 -5.46008E+02  8.17013E+02
  5.90588E+02 -1.66444E+02  1.97757E+02 -6.34164E+01 -2.63257E+02  7.35904E+02 -1.22144E+02 -3.95370E+02
 -3.09548E+02  1.39207E+03  7.57706E+02 -1.51275E+03  7.81209E+02 -2.17219E+03  1.01249E+03 -1.14856E+03
  4.31079E+01 -2.29487E+02 -4.44105E+02  2.78427E+02  7.15658E+02  1.28068E+03  1.45519E+02  1.34803E+03
