 $NMID ID='MM_0lb_SNR200_7hz_g55_28.RAW', FMTDAT='(8E13.5)'
 TRAMP=1., VOLUME=1. $END
  3.09418E+05  1.86871E+03  3.37515E+05  2.49106E+05  8.55587E+04  3.39327E+05 -1.32312E+05  2.50988E+05
 -1.90377E+05  8.28035E+04 -1.14065E+05 -3.38131E+04  8.59472E+02 -5.15795E+04  5.50494E+04 -2.03363E+03
  3.58003E+04  5.32334E+04 -1.68683E+04  7.67707E+04 -6.16339E+04  6.51481E+04 -8.62139E+04  3.23305E+04
 -8.28956E+04 -1.17793E+04 -5.98418E+04 -5.40112E+04 -1.50412E+04 -7.36035E+04  2.90586E+04 -4.72772E+04
  4.15989E+04  3.59542E+03  1.64254E+04  4.80747E+04 -3.42804E+04  4.80917E+04 -6.77198E+04 -9.29111E+02
 -5.65351E+04 -5.89189E+04 -8.74206E+03 -8.02383E+04  3.48695E+04 -5.84618E+04  5.30164E+04 -1.77536E+04
  4.59981E+04  1.00767E+04  3.31729E+04  2.74610E+04  1.68160E+04  3.19931E+04 -7.07563E+03  2.81440E+04
 -2.52813E+04  1.10243E+04 -1.62680E+04 -4.00328E+03  8.90066E+03 -7.53528E+03  2.49149E+04  1.36606E+04
  6.24406E+03  4.00133E+04 -3.57556E+04  3.96002E+04 -6.63294E+04  1.33417E+03 -5.83273E+04 -4.64145E+04
 -1.22384E+04 -6.72897E+04  4.11568E+04 -4.74833E+04  6.16012E+04 -2.33704E+03  3.77972E+04  3.47407E+04
 -4.83644E+03  4.16486E+04 -3.21550E+04  2.07797E+04 -3.48973E+04 -2.58443E+03 -1.99635E+04 -1.08462E+04
 -1.00119E+04 -1.35712E+04 -1.72482E+03 -1.93210E+04  1.12318E+04 -2.25422E+04  1.66448E+04 -1.32482E+04
  9.32452E+03  6.88337E+03 -1.00926E+04  1.27914E+04 -2.37994E+04 -7.05820E+03 -1.01024E+04 -3.71516E+04
  2.66888E+04 -4.83412E+04  5.44013E+04 -2.21430E+04  5.00240E+04  2.07409E+04  1.89167E+04  4.82693E+04
 -1.63895E+04  3.63991E+04 -2.75819E+04  5.28890E+03 -1.31910E+04 -3.19604E+04  2.39744E+04 -3.74811E+04
  4.63269E+04 -1.14481E+04  4.31154E+04  2.51969E+04  2.31814E+04  5.37025E+04 -8.15128E+03  5.80946E+04
 -3.80914E+04  4.09132E+04 -5.13712E+04  1.13634E+04 -4.90180E+04 -2.00776E+04 -2.86037E+04 -4.61452E+04
  8.83011E+03 -4.43819E+04  3.49602E+04 -1.80178E+04  3.27579E+04  1.24840E+04  6.96821E+03  2.22902E+04
 -1.37499E+04  1.07249E+04 -1.01612E+04 -5.82328E+03  4.87132E+03 -1.13939E+04  1.99356E+04  7.58839E+03
  1.52484E+04  2.29202E+04 -3.87585E+03  2.81522E+04 -2.51056E+04  1.64576E+04 -3.34970E+04 -3.98703E+03
 -2.83632E+04 -1.73117E+04 -1.32431E+04 -2.79081E+04  3.60709E+03 -2.77086E+04  2.09311E+04 -2.66892E+04
  3.49956E+04 -1.67957E+04  4.26882E+04  7.30888E+03  2.91540E+04  2.77697E+04  5.97071E+03  4.48272E+04
 -2.01089E+04  3.55846E+04 -3.36600E+04  1.34423E+04 -2.29607E+04 -9.46547E+03 -4.14333E+03 -1.26604E+04
  7.20818E+02  2.33962E+02 -7.93148E+03  8.93832E+03 -2.18066E+04  4.61023E+03 -1.93508E+04 -1.07001E+04
 -1.14843E+04 -2.56047E+04  7.27447E+03 -2.85692E+04  1.98913E+04 -2.14447E+04  2.71028E+04 -1.25415E+03
  1.51227E+04  1.71940E+04 -1.84091E+03  2.57761E+04 -1.83477E+04  1.41554E+04 -2.68252E+04 -6.42841E+03
 -1.86713E+04 -2.51045E+04 -1.82712E+03 -3.01997E+04  1.32380E+04 -2.48547E+04  2.68035E+04 -1.40992E+04
  2.50028E+04 -1.24721E+03  1.67636E+04  6.29815E+03  1.19408E+04  3.03695E+03  1.46961E+04 -1.03107E+03
  2.47091E+04  3.65098E+03  2.90411E+04  1.86547E+04  1.98054E+04  4.00140E+04 -2.45226E+03  4.94787E+04
 -2.76134E+04  4.17685E+04 -4.69183E+04  2.20330E+04 -5.15077E+04 -3.83552E+03 -4.22072E+04 -3.04704E+04
 -1.80452E+04 -4.23319E+04  1.65379E+04 -3.85271E+04  3.15920E+04 -1.57974E+04  2.46532E+04  9.58909E+03
  7.77846E+03  2.11131E+04 -1.28916E+04  1.54874E+04 -2.23892E+04  4.85755E+03 -1.67467E+04 -1.43005E+04
 -1.69281E+03 -2.11166E+04  1.11401E+04 -1.43368E+04  1.60268E+04 -1.17602E+03  4.66130E+03  9.96323E+03
 -9.08255E+03  5.80953E+03 -9.08364E+03 -8.48691E+03 -2.24533E+03 -2.03623E+04  1.47685E+04 -2.31531E+04
  2.62868E+04 -1.39394E+04  2.98335E+04  3.09184E+03  2.76926E+04  2.11901E+04  1.30670E+04  3.55881E+04
 -6.86567E+03  3.58725E+04 -2.37278E+04  2.21175E+04 -2.60807E+04  4.42637E+03 -1.76838E+04 -7.70677E+03
 -5.90926E+03 -8.47330E+03  6.60233E+02  6.42454E+02 -2.73467E+03  3.81704E+03 -9.40910E+03  7.26838E+03
 -1.57462E+04 -4.24534E+02 -1.50864E+04 -1.43144E+04 -8.75596E+03 -2.20291E+04  5.60456E+03 -1.71445E+04
  1.51861E+04 -6.87082E+03  1.10827E+04  4.61436E+03 -7.03659E+02  6.50268E+03 -8.35134E+03  9.47502E+02
 -7.86918E+03 -1.22893E+04 -2.22151E+03 -1.96358E+04  9.59501E+03 -1.87930E+04  2.17903E+04 -1.04391E+04
  2.74296E+04  2.82962E+03  1.92512E+04  1.58340E+04  5.11878E+03  2.41423E+04 -1.09096E+04  1.88392E+04
 -1.34311E+04  4.88593E+03 -6.71584E+03 -4.16023E+03  3.62490E+03 -4.91382E+03  1.00274E+04  8.00452E+02
  7.18022E+03  7.63897E+03  1.21036E+03  1.51411E+04 -1.35343E+04  1.56204E+04 -1.74446E+04  4.14068E+03
 -1.20921E+04 -8.96993E+03  7.94010E+02 -1.43449E+04  1.02454E+04 -7.95840E+03  1.03989E+04  4.36817E+03
  1.17226E+03  1.32137E+04 -9.67762E+03  1.49197E+04 -1.80391E+04  5.82060E+03 -1.60418E+04 -5.01210E+03
 -1.14575E+04 -1.94849E+04  4.27319E+03 -2.28894E+04  1.89096E+04 -1.26070E+04  2.06402E+04  3.74635E+03
  1.15331E+04  1.72885E+04 -1.58744E+03  2.02091E+04 -1.47065E+04  1.08319E+04 -1.63997E+04 -2.64409E+03
 -1.22919E+04 -1.24681E+04 -2.10773E+03 -1.49546E+04  6.96576E+03 -1.27601E+04  8.78485E+03 -5.42941E+03
  7.92643E+03  2.77790E+03 -1.75898E+03  1.51220E+03 -1.81550E+03 -5.80318E+03  3.47687E+03 -1.02052E+04
  1.43615E+04 -6.69909E+03  1.97138E+04  2.28436E+03  1.89903E+04  1.36228E+04  1.19444E+04  2.78189E+04
 -5.59864E+03  3.11502E+04 -2.55137E+04  2.21147E+04 -3.20844E+04  3.14747E+03 -2.66866E+04 -1.15735E+04
 -1.36381E+04 -2.00396E+04 -7.51039E+01 -1.89727E+04  5.46739E+03 -1.23212E+04  7.86164E+03 -6.93579E+03
  4.02493E+03 -4.41060E+03  4.53117E+03 -3.58219E+03  6.75002E+03 -5.20012E+03  1.00507E+04 -2.54254E+03
  1.34975E+04  3.28488E+03  8.82393E+03  1.16466E+04 -2.71140E+03  1.48687E+04 -1.24619E+04  1.07788E+04
 -2.00290E+04 -1.21331E+03 -1.29293E+04 -1.25482E+04 -3.05318E+03 -1.80401E+04  8.26130E+03 -1.83546E+04
  2.08677E+04 -1.18106E+04  2.62823E+04  4.15509E+03  1.49910E+04  1.78925E+04  2.39196E+03  2.34703E+04
 -6.59326E+03  1.63725E+04 -1.48990E+04  5.43994E+03 -8.37041E+03 -2.10207E+03 -4.71974E+03 -3.29519E+03
 -2.40869E+03  8.91360E+02 -1.13796E+03  4.47931E+03 -6.84895E+03  1.19622E+03 -1.27760E+04 -1.76248E+03
 -9.23802E+03 -1.23173E+04  7.93941E+02 -1.95532E+04  1.25277E+04 -1.64102E+04  1.88628E+04 -6.17866E+03
  1.89738E+04  1.04136E+04  9.75478E+03  1.68238E+04 -4.36648E+03  2.05934E+04 -1.52881E+04  1.00490E+04
 -1.83671E+04 -8.09672E+02 -1.41433E+04 -1.28736E+04 -1.11857E+03 -1.82691E+04  1.07925E+04 -1.03941E+04
  1.12796E+04 -3.10236E+03  7.43792E+03  6.23475E+03  3.80310E+03  5.57966E+03 -1.46527E+02  6.04731E+02
  3.46130E+03  5.23646E+02  6.64310E+03  1.01027E+03  4.35142E+03  5.90753E+03  5.10794E+03  1.08056E+04
 -2.73256E+03  1.62050E+04 -1.27782E+04  1.42339E+04 -1.88159E+04  4.28640E+03 -1.97059E+04 -9.21230E+03
 -9.96815E+03 -2.03158E+04  2.55515E+03 -2.25165E+04  1.13060E+04 -1.40032E+04  1.70881E+04 -5.92554E+03
  1.05879E+04  8.46506E+03  9.60421E+02  1.32031E+04 -5.33413E+03  7.65496E+03 -7.98823E+03 -2.24280E+03
 -4.84783E+03 -8.18861E+03  3.36488E+03 -7.77436E+03  9.41428E+03 -3.89764E+03  9.45814E+03  2.90327E+03
  6.11966E+03  4.22260E+03  2.09414E+03  4.23100E+03  9.10783E+02  2.39983E+03  4.11654E+03 -1.14113E+03
  3.64575E+03  6.60462E+02  8.66045E+03  3.88425E+03  5.73361E+03  1.08810E+04 -1.96095E+03  1.33269E+04
 -1.08988E+04  1.06324E+04 -1.29380E+04  1.07878E+03 -1.28028E+04 -4.17621E+03 -7.04163E+03 -8.90972E+03
 -6.31677E+01 -8.27401E+03  4.78871E+03 -4.09437E+03  4.67411E+03  3.83819E+03 -1.91061E+03  6.36635E+03
 -6.37839E+03  4.24842E+03 -9.03055E+03 -3.88189E+03 -7.16707E+03 -1.13377E+04  6.74405E+02 -1.23756E+04
  7.59710E+03 -7.67163E+03  1.03741E+04 -9.70574E+02  5.49924E+03  4.57612E+03  3.41833E+02  6.33371E+03
 -4.47050E+03  3.61171E+03 -4.70249E+03 -5.00593E+03  2.21081E+03 -8.75420E+03  8.36389E+03 -8.35610E+03
  1.28211E+04  1.77397E+03  1.24537E+04  9.72129E+03  2.44733E+03  1.25951E+04 -7.46600E+03  1.49272E+04
 -1.12953E+04  6.52105E+03 -1.39358E+04 -3.09683E+03 -6.43054E+03 -1.02123E+04  1.48411E+03 -1.00936E+04
  7.33185E+03 -4.39747E+03  7.22876E+03  3.22341E+03  2.82830E+03  6.39732E+03 -1.35118E+02  5.10782E+03
 -5.40006E+03  3.13902E+03 -3.82225E+03  1.62337E+03 -1.44575E+03  1.36533E+03  1.08234E+02  7.96668E+02
 -4.61112E+03  4.95046E+03 -1.09106E+04  5.98958E+03 -1.35718E+04 -2.23065E+03 -1.63617E+04 -1.01136E+04
 -6.63433E+03 -1.94808E+04  3.94733E+03 -2.32358E+04  1.30277E+04 -1.87699E+04  2.13623E+04 -5.84124E+03
  1.89940E+04  4.36186E+03  1.31629E+04  1.42837E+04  3.21766E+03  1.61244E+04 -5.40901E+03  1.06584E+04
 -8.40599E+03  2.53727E+03 -5.21104E+03 -9.77833E+02 -2.45787E+03 -1.21454E+02 -1.25285E+03 -1.18783E+03
 -1.13172E+03  9.57734E+00 -2.82061E+03 -1.24939E+03 -1.55617E+03 -2.73227E+03  9.60164E+02 -6.57818E+03
  5.79711E+03 -4.43458E+03  1.05643E+04  8.04329E+02  1.00272E+04  8.06556E+03  3.65723E+03  1.50920E+04
 -6.88979E+03  1.60695E+04 -1.61735E+04  1.03709E+04 -1.90544E+04  1.31690E+03 -1.43800E+04 -1.10419E+04
 -4.24797E+03 -1.64362E+04  5.57099E+03 -1.28970E+04  9.46927E+03 -8.35901E+03  1.08430E+04  1.54013E+03
  5.30475E+03  5.78355E+03 -1.27346E+03  4.47477E+03 -2.54316E+03 -6.00374E+02  6.26018E+02 -3.85560E+03
  3.97889E+03 -2.47909E+03  5.60737E+03  1.80854E+03  5.88018E+03  7.91428E+03  1.20533E+03  1.10816E+04
 -6.78331E+03  6.41080E+03 -1.01282E+04  6.95751E+02 -9.20939E+03 -7.69232E+03 -2.55575E+03 -1.27310E+04
  8.53686E+03 -1.13158E+04  1.30546E+04 -3.25676E+03  1.26683E+04  1.86544E+03  6.86623E+03  1.02852E+04
  6.99232E+02  1.04915E+04 -4.35964E+03  1.02808E+04 -8.63160E+03  4.72947E+03 -4.73111E+03  1.74657E+02
 -3.65349E+03 -4.90414E+02 -2.83241E+03  1.25650E+03 -5.06488E+03  1.59165E+03 -9.06567E+03 -1.89783E+03
 -7.76965E+03 -5.04315E+03 -1.65830E+03 -1.18308E+04  6.28202E+03 -1.08521E+04  1.00692E+04 -5.76544E+03
  1.11921E+04  2.35502E+03  6.15083E+03  8.41500E+03 -1.06667E+03  1.20314E+04 -9.31159E+03  8.34924E+03
