 $NMID ID='MM_0lb_SNR200_19hz_g60_43.RAW', FMTDAT='(8E13.5)'
 TRAMP=1., VOLUME=1. $END
  3.10037E+05 -4.28923E+02  3.37708E+05  2.51556E+05  8.45031E+04  3.37804E+05 -1.31832E+05  2.50475E+05
 -1.89934E+05  8.42017E+04 -1.11699E+05 -3.29886E+04  1.22264E+03 -5.19374E+04  5.32331E+04 -5.88171E+02
  3.44740E+04  5.26121E+04 -1.74056E+04  7.52648E+04 -6.09662E+04  6.37504E+04 -8.43677E+04  3.23633E+04
 -7.96565E+04 -1.05663E+04 -5.59350E+04 -5.07286E+04 -1.49827E+04 -6.92612E+04  2.74742E+04 -4.49951E+04
  4.01806E+04  3.06994E+03  1.68755E+04  4.64637E+04 -3.43780E+04  4.74527E+04 -6.76575E+04 -1.37926E+03
 -5.25205E+04 -5.71299E+04 -6.31017E+03 -7.56824E+04  3.33837E+04 -5.50855E+04  4.74410E+04 -1.63037E+04
  4.23950E+04  1.02927E+04  3.09951E+04  2.49266E+04  1.56217E+04  2.85221E+04 -4.70927E+03  2.70427E+04
 -2.12501E+04  1.19046E+04 -1.85121E+04 -4.80192E+03  5.17663E+03 -7.74580E+03  2.22643E+04  1.17840E+04
  7.86370E+03  3.42564E+04 -3.05993E+04  3.43349E+04 -6.17260E+04  2.37489E+03 -5.55256E+04 -4.15789E+04
 -1.21680E+04 -6.17795E+04  3.90442E+04 -4.55168E+04  5.67064E+04 -2.22914E+03  3.40320E+04  3.18999E+04
 -7.02901E+03  3.55859E+04 -2.85102E+04  1.52790E+04 -2.95904E+04 -4.06751E+03 -1.44486E+04 -1.04747E+04
 -8.46305E+03 -1.23763E+04 -1.00646E+03 -1.78256E+04  7.60755E+03 -2.16308E+04  1.48734E+04 -1.43703E+04
  1.20073E+04  3.42791E+03 -6.94494E+03  1.30615E+04 -2.09542E+04 -3.53620E+03 -8.01192E+03 -3.12629E+04
  2.20237E+04 -4.12900E+04  4.64507E+04 -1.98481E+04  4.35929E+04  1.91759E+04  1.47717E+04  4.27805E+04
 -1.54493E+04  3.27759E+04 -2.35330E+04  1.22861E+03 -8.72944E+03 -2.72180E+04  2.07404E+04 -3.25255E+04
  4.03604E+04 -7.99527E+03  3.31759E+04  2.30849E+04  1.69906E+04  4.38105E+04 -8.46980E+03  4.78545E+04
 -2.92123E+04  3.15316E+04 -3.76690E+04  9.25755E+03 -3.94947E+04 -1.40250E+04 -2.31723E+04 -3.68988E+04
  6.47533E+03 -3.55593E+04  3.01122E+04 -1.34764E+04  2.83857E+04  1.05776E+04  3.10133E+03  1.93593E+04
 -1.25342E+04  6.74866E+03 -1.03115E+04 -6.86626E+03  6.20402E+03 -1.09506E+04  1.67579E+04  6.77958E+03
  1.28026E+04  2.05451E+04 -5.92339E+03  2.42766E+04 -2.21288E+04  8.86079E+03 -2.59806E+04 -5.57351E+03
 -1.71478E+04 -1.63158E+04 -6.53087E+03 -1.80720E+04  4.56669E+03 -1.67362E+04  1.29168E+04 -1.56544E+04
  2.24731E+04 -1.21826E+04  3.02475E+04  2.35058E+03  2.24007E+04  1.76907E+04  4.57731E+03  3.33602E+04
 -1.71494E+04  2.89131E+04 -2.74451E+04  9.55868E+03 -2.04859E+04 -1.11965E+04 -5.72833E+03 -1.39501E+04
  1.47587E+03 -3.97814E+03 -3.56864E+03  5.89207E+03 -1.34209E+04  6.16890E+03 -1.40679E+04 -5.17899E+03
 -7.92828E+03 -1.63106E+04  4.86510E+03 -2.02081E+04  1.40619E+04 -1.55588E+04  1.49184E+04 -1.40550E+03
  8.98892E+03  1.05727E+04 -3.85331E+02  1.66394E+04 -1.13340E+04  8.42081E+03 -1.60010E+04 -4.06498E+03
 -1.24699E+04 -1.27026E+04 -1.26843E+03 -1.96054E+04  9.24331E+03 -1.67600E+04  1.64320E+04 -7.93278E+03
  1.51667E+04  4.33177E+02  1.13172E+04  4.12875E+03  5.46109E+03  5.31667E+02  7.95122E+03 -1.30235E+03
  1.53172E+04  2.29668E+03  1.50030E+04  1.30674E+04  9.14170E+03  2.63251E+04 -3.23333E+03  2.75928E+04
 -1.63074E+04  2.28866E+04 -2.61468E+04  1.02845E+04 -2.69655E+04 -1.82132E+03 -2.29280E+04 -1.54115E+04
 -1.06715E+04 -2.18545E+04  6.10129E+03 -2.06466E+04  1.72918E+04 -1.05899E+04  1.63023E+04  2.77392E+03
  5.40203E+03  1.20592E+04 -7.88414E+03  1.12371E+04 -1.44627E+04  2.91289E+03 -1.05046E+04 -8.96607E+03
  4.19644E+02 -1.33736E+04  5.98933E+03 -9.77521E+03  8.16890E+03 -1.39059E+03  1.22043E+03  4.99441E+03
 -6.25363E+03  1.78064E+03 -4.69854E+03 -3.75157E+03  6.27804E+02 -1.05478E+04  7.65743E+03 -1.16079E+04
  1.23935E+04 -5.73156E+03  1.35176E+04  3.20973E+03  1.10914E+04  9.83326E+03  5.59872E+03  1.64092E+04
 -2.02184E+03  1.73728E+04 -1.03650E+04  1.09509E+04 -1.15655E+04  3.27576E+03 -9.37713E+03 -2.10871E+03
 -4.16475E+03 -3.90600E+03 -6.15715E+02 -1.40608E+02 -2.37123E+03  1.82194E+03 -3.65969E+03  3.30167E+03
 -8.08248E+03 -1.74350E+03 -9.15257E+03 -8.23719E+03 -3.37972E+03 -1.05017E+04  3.59998E+03 -8.61123E+03
  7.35346E+03 -3.33197E+03  5.37452E+03  2.46542E+03  6.23975E+02  3.52090E+03 -3.42121E+03 -8.82420E+02
 -3.44824E+03 -5.63873E+03 -1.49024E+02 -8.46983E+03  3.86125E+03 -8.70050E+03  1.04751E+04 -3.95858E+03
  1.22134E+04  2.83144E+02  7.79169E+03  6.43247E+03  7.17804E+02  9.64805E+03 -6.36164E+03  8.55646E+03
 -7.69094E+03  2.71266E+03 -4.18876E+03 -2.31268E+03 -4.40949E+02 -2.10115E+03  4.93239E+03 -1.01595E+03
  4.17257E+03  3.23547E+03  1.44071E+03  7.57796E+03 -4.40711E+03  6.88690E+03 -9.75653E+03  2.08738E+03
 -5.81095E+03 -3.61359E+03 -1.52889E+02 -6.24450E+03  3.98673E+03 -3.14016E+03  4.36263E+03  1.58983E+03
  1.12926E+02  4.08043E+03 -3.61146E+03  5.50787E+03 -4.94115E+03  2.28978E+03 -5.14091E+03 -1.04822E+03
 -3.96811E+03 -7.16056E+03  1.27559E+03 -8.21678E+03  6.38750E+03 -3.95381E+03  6.94087E+03  1.40730E+03
  5.03559E+03  5.70790E+03 -2.53548E+02  7.42973E+03 -4.79656E+03  3.97885E+03 -5.60687E+03 -5.70375E+02
 -5.75185E+03 -5.63702E+03 -1.77057E+03 -5.44475E+03  2.37563E+03 -5.12604E+03  4.67923E+03 -2.97988E+03
  3.20377E+03 -3.19251E+00 -5.71086E+02  1.57096E+03  6.31619E+00  1.67620E+02  5.08105E+02 -1.31102E+03
  4.77651E+03 -2.30857E+03  6.18900E+03 -1.34326E+02  5.21249E+03  2.69703E+03  2.96930E+03  6.82064E+03
 -5.96199E+02  9.65996E+03 -7.81861E+03  6.29976E+03 -1.02010E+04  1.10424E+03 -7.02691E+03 -2.92519E+03
 -2.65200E+03 -6.47599E+03 -4.64697E+02 -5.98146E+03  2.19156E+03 -1.71580E+03  2.26485E+03 -2.73803E+03
  2.21663E+03 -1.11641E+03  1.35980E+03 -2.75127E+03  3.39776E+03 -1.40666E+03  4.08104E+03  1.00905E+03
  4.61616E+03  9.71146E+02  1.40582E+03  4.49909E+03 -2.43306E+03  2.83372E+03 -4.25523E+03  2.68909E+03
 -5.24609E+03 -1.17619E+03 -1.40075E+03 -2.73376E+03  1.24653E+03 -5.82462E+03  3.97390E+03 -4.89042E+03
  5.79928E+03 -3.25686E+03  6.59550E+03  9.33057E+02  4.97382E+03  3.46314E+03  2.01980E+03  5.87089E+03
 -3.00664E+03  4.76306E+03 -3.68292E+03  1.61499E+03 -1.61584E+03  4.59025E+02 -4.83630E+02 -2.09284E+02
  3.86613E+02 -5.66833E+02 -1.95662E+03  2.20683E+03 -2.48992E+03  5.73176E+02 -3.37226E+03  4.20357E+02
 -1.58084E+03 -4.92009E+03  1.81924E+03 -5.26355E+03  2.34864E+03 -3.99531E+03  3.31921E+03 -1.60595E+03
  3.57616E+03  3.94558E+03  1.16580E+03  3.50506E+03 -1.25986E+02  4.12982E+03 -1.97320E+03  1.89145E+03
 -2.95565E+03  6.06097E+02 -3.15446E+03 -2.67530E+03 -3.81907E+02 -2.72852E+03  1.72017E+03 -2.81048E+03
  2.33974E+03 -1.33087E+03  2.21175E+03 -5.59687E+02  3.82380E+02  1.34245E+03  5.25172E+02 -5.29878E+01
  1.48184E+03  7.27709E+02  1.32348E+03  9.88412E+02  1.51340E+03  1.60069E+03  1.41220E+03  2.46174E+03
 -1.37449E+03  3.26618E+03 -1.75030E+03  3.61451E+03 -2.48299E+03  1.28099E+03 -4.55765E+03 -8.40704E+01
 -2.04269E+03 -3.92900E+03  9.74318E+02 -5.43219E+03  1.85035E+03 -3.31965E+03  2.98434E+03 -1.65552E+03
  2.76607E+03  1.88747E+03 -5.81984E+02  1.86220E+03  3.56699E+01  8.14905E+02 -1.31628E+03 -1.50161E+02
 -5.95214E+02 -1.74790E+03  5.78885E+02 -1.56023E+03  9.88550E+02 -6.17187E+02  9.20752E+02  4.68239E+02
  8.07857E+02  6.26108E+01  8.34982E+02 -7.36093E+01 -5.19847E+02  1.52628E+03  1.44541E+03 -1.63666E+02
 -3.08474E+02  2.41121E+02  1.29925E+03  9.36922E+02  3.10154E+02  2.68490E+03 -4.07403E+02  2.96517E+03
 -2.70597E+03  5.15399E+02 -7.86594E+02  4.05471E+02 -1.60562E+03 -7.73459E+02  3.68058E+02 -1.71905E+03
 -1.17981E+00 -8.04972E+02  9.75177E+02 -8.86013E+02  1.49879E+02  1.68625E+03 -3.08918E+02  1.41100E+03
 -1.79587E+03  3.52422E+02 -1.14434E+03 -1.69415E+03 -4.90103E+02 -1.82697E+03 -2.70095E+02 -1.44610E+03
  1.18613E+02  4.53504E+02  4.85102E+02  2.24278E+02  8.72859E+02 -6.10899E+02 -5.75438E+02  7.75884E+02
 -4.97735E+02  6.34538E+02 -1.01554E+03 -5.51396E+02  1.30473E+03 -5.50584E+02  1.52205E+03  3.89846E+02
  2.19516E+03  1.74317E+02  2.62709E+03 -1.08171E+02  1.74807E+03  1.53074E+03  1.76602E+02  2.87860E+03
 -2.11347E+03  1.06566E+03 -1.80573E+03  8.31764E+02  1.40601E+02 -5.89212E+02 -3.60643E+02 -1.16429E+03
  9.40011E+02 -6.09009E+02  7.15650E+02  6.03411E+02  7.64831E+02  7.69650E+02  9.43798E+02  6.15229E+02
 -3.72744E+02  6.53617E+02 -4.74791E+02 -1.16665E+03 -4.37641E+02 -1.20614E+03 -3.62287E+02  4.60861E+02
 -6.93925E+02  1.71229E+03 -1.53762E+03  1.24848E+03 -2.09582E+03  5.54293E+02 -7.62287E+02 -7.99030E+02
 -7.33353E+02 -2.31801E+03  1.69215E+03 -3.29462E+03  2.94410E+02 -2.67985E+03  2.49410E+03 -1.82609E+03
  2.04044E+03 -1.54743E+02  1.50883E+03  1.15861E+03 -1.34805E+03 -2.78633E+01 -8.42180E+02  2.29698E+02
 -1.28590E+03  1.89678E+02 -9.18284E+02 -2.92001E+02 -5.45159E+02  1.72054E+02 -4.11088E+02 -9.13206E+01
 -8.96310E+02  1.07763E+02 -3.75138E+02  2.18446E+02  1.79336E+02 -7.25423E+02 -1.32622E+03  8.19700E+01
  1.11766E+02 -2.86660E+02  1.25959E+02 -2.13605E+02  1.22290E+03  1.41895E+03 -6.46701E+02  8.72978E+02
 -2.01958E+03  1.94227E+03 -1.71561E+03  1.68618E+03 -4.96238E+02  1.40458E+02 -1.17751E+03  9.95041E+01
  1.05995E+02  2.05988E+01  9.74515E+02 -9.99787E+02  1.04084E+03  8.56502E+02  1.75004E+03 -5.42762E+02
  1.51766E+02  4.26967E+02  4.84108E+02  1.13814E+03 -7.88988E+01 -2.89891E+02  7.21785E+01  1.12105E+02
  7.21295E+02 -2.85216E+02  2.00537E+02 -9.74977E+01  5.47198E+02  3.96142E+02  4.34452E+02  7.00028E+02
 -1.41506E+03  1.48709E+01  2.51056E+02  7.29569E+02  3.04057E+02  3.59185E+02 -4.59032E+02 -1.00941E+03
  8.45049E+02 -6.80289E+02 -3.91709E+02 -4.37307E+02  6.06325E+02 -4.63504E+02  2.22949E+02  1.22790E+03
  4.98814E+02 -3.25011E+02 -3.30175E+02  1.01416E+03 -4.98190E+02  1.65788E+03  1.28144E+02  2.23301E+02
 -1.65768E+02 -9.22898E+02 -3.89556E+02  1.01095E+03 -2.89855E+02  9.76939E+02 -7.99808E+02 -8.69624E+02
 -1.26606E+03  3.51106E+01 -9.13389E+02 -1.04833E+03 -9.64039E+02 -9.00164E+02  8.37307E+02  1.49436E+02
  1.11056E+03  1.93080E+02  5.84399E+02 -8.80482E+01 -3.66564E+02  1.77107E+02 -9.63564E+02  7.01711E+01
