 $NMID ID='MM_0lb_SNR200_11hz_g50_53.RAW', FMTDAT='(8E13.5)'
 TRAMP=1., VOLUME=1. $END
  3.09474E+05  8.66852E+02  3.36785E+05  2.51522E+05  8.57527E+04  3.37625E+05 -1.30732E+05  2.50857E+05
 -1.89608E+05  8.34438E+04 -1.13730E+05 -3.31494E+04 -1.95909E+02 -5.22076E+04  5.31027E+04 -1.95086E+03
  3.54065E+04  5.24756E+04 -1.70995E+04  7.56311E+04 -6.10998E+04  6.42146E+04 -8.45516E+04  3.18991E+04
 -8.16952E+04 -1.23613E+04 -5.79760E+04 -5.12423E+04 -1.56326E+04 -6.99577E+04  2.71540E+04 -4.67503E+04
  4.17908E+04  3.89156E+03  1.57639E+04  4.88238E+04 -3.39682E+04  4.66929E+04 -6.73459E+04  3.50483E+02
 -5.39276E+04 -5.59401E+04 -6.85865E+03 -7.74942E+04  3.46918E+04 -5.47206E+04  4.77752E+04 -1.76741E+04
  4.48046E+04  1.15473E+04  3.38005E+04  2.55329E+04  1.51193E+04  3.12728E+04 -5.01504E+03  2.83047E+04
 -2.04038E+04  1.07620E+04 -1.73116E+04 -5.26925E+03  6.72044E+03 -8.58371E+03  2.35473E+04  1.26171E+04
  7.43650E+03  3.56613E+04 -3.29876E+04  3.68406E+04 -6.58232E+04  2.30636E+03 -5.74043E+04 -4.32877E+04
 -1.29377E+04 -6.44301E+04  4.10974E+04 -4.62569E+04  6.00723E+04 -2.92667E+03  3.59265E+04  3.36005E+04
 -5.76501E+03  3.89142E+04 -3.12902E+04  1.80326E+04 -3.11148E+04 -4.28451E+03 -1.84145E+04 -1.17545E+04
 -8.75754E+03 -1.42673E+04 -1.12070E+03 -1.97005E+04  9.01194E+03 -2.27185E+04  1.57511E+04 -1.23144E+04
  1.22710E+04  6.35838E+03 -9.42957E+03  1.09984E+04 -2.21764E+04 -5.71466E+03 -7.19621E+03 -3.57994E+04
  2.46068E+04 -4.43648E+04  4.98483E+04 -1.94142E+04  4.55983E+04  1.98522E+04  1.65992E+04  4.68297E+04
 -1.79169E+04  3.40802E+04 -2.60032E+04  1.62316E+03 -1.01412E+04 -2.76563E+04  2.18331E+04 -3.68273E+04
  4.38865E+04 -1.00946E+04  3.92583E+04  2.33566E+04  1.92754E+04  4.84658E+04 -8.95546E+03  5.37990E+04
 -3.36341E+04  3.58491E+04 -4.41086E+04  1.00998E+04 -4.66336E+04 -1.73342E+04 -2.51215E+04 -4.16170E+04
  6.58295E+03 -4.03705E+04  3.49005E+04 -1.54497E+04  2.94385E+04  1.07225E+04  5.94900E+03  2.04036E+04
 -1.32565E+04  9.75657E+03 -1.12621E+04 -7.75104E+03  6.38959E+03 -1.13527E+04  1.88089E+04  4.94152E+03
  1.44487E+04  2.15094E+04 -5.93370E+03  2.66212E+04 -2.29410E+04  1.38798E+04 -2.93796E+04 -3.59895E+03
 -2.30263E+04 -1.79350E+04 -9.35453E+03 -2.27321E+04  3.36958E+03 -2.31844E+04  1.78053E+04 -2.12122E+04
  3.02498E+04 -1.42729E+04  3.50991E+04  5.37969E+03  2.51579E+04  2.25000E+04  4.18944E+03  4.03945E+04
 -1.82738E+04  3.32642E+04 -3.09374E+04  1.26099E+04 -2.21755E+04 -1.06435E+04 -5.04654E+03 -1.16808E+04
  1.29008E+03 -1.40272E+03 -5.50543E+03  7.31161E+03 -1.85607E+04  5.03674E+03 -1.96959E+04 -8.21476E+03
 -1.26585E+04 -2.15197E+04  4.07480E+03 -2.56650E+04  1.59863E+04 -1.97499E+04  2.06487E+04 -7.60906E+02
  1.22911E+04  1.54687E+04 -1.90601E+03  2.10662E+04 -1.61259E+04  1.16814E+04 -2.13176E+04 -4.44846E+03
 -1.62026E+04 -1.83390E+04 -1.55410E+03 -2.41332E+04  1.19275E+04 -2.15094E+04  2.12922E+04 -1.07041E+04
  2.04558E+04 -8.95814E+01  1.51861E+04  5.48304E+03  8.31905E+03  1.74194E+03  1.00828E+04 -2.04634E+03
  2.02789E+04  2.17015E+03  2.34486E+04  1.62686E+04  1.56299E+04  3.56242E+04 -2.33613E+03  3.99965E+04
 -2.34656E+04  3.31717E+04 -3.85283E+04  1.63100E+04 -3.95506E+04 -2.71639E+03 -3.31859E+04 -2.23405E+04
 -1.28969E+04 -3.32021E+04  1.20504E+04 -2.82539E+04  2.60230E+04 -1.36281E+04  2.31579E+04  7.15243E+03
  8.96437E+03  1.73968E+04 -1.09291E+04  1.48346E+04 -1.83143E+04  3.76896E+03 -1.34537E+04 -1.28242E+04
 -6.22193E+02 -1.63671E+04  9.20502E+03 -1.20439E+04  1.22151E+04 -2.05401E+03  4.24105E+03  8.42593E+03
 -6.78248E+03  4.23790E+03 -7.91052E+03 -4.55926E+03 -1.41564E+03 -1.51080E+04  1.12459E+04 -1.81637E+04
  2.09295E+04 -1.00841E+04  2.33115E+04  4.09071E+03  2.00571E+04  1.76978E+04  7.95713E+03  2.52073E+04
 -5.23729E+03  2.59179E+04 -1.71827E+04  1.65182E+04 -1.98788E+04  3.74106E+03 -1.38316E+04 -4.82858E+03
 -5.80274E+03 -6.43727E+03 -2.47777E+03  5.14683E+02 -1.20495E+03  2.57417E+03 -6.37303E+03  3.71401E+03
 -1.38185E+04 -3.52884E+02 -1.33265E+04 -1.05624E+04 -5.98737E+03 -1.73079E+04  5.67599E+03 -1.34559E+04
  1.27255E+04 -6.81396E+03  5.15771E+03  3.82567E+03  6.51563E+02  4.22407E+03 -7.07004E+03  3.82796E+02
 -5.27027E+03 -8.32420E+03 -1.65098E+03 -1.29960E+04  6.97374E+03 -1.47527E+04  1.69432E+04 -8.11036E+03
  2.12613E+04  1.45119E+03  1.52989E+04  1.19393E+04  2.47645E+03  1.64710E+04 -7.69572E+03  1.42035E+04
 -1.15348E+04  4.26131E+03 -5.02488E+03 -3.93403E+03  1.09988E+03 -4.44390E+03  7.78031E+03 -1.08089E+03
  7.71976E+03  7.09754E+03  1.91949E+03  1.05942E+04 -8.59142E+03  1.06494E+04 -1.45903E+04  1.45208E+03
 -9.51566E+03 -9.01513E+03 -4.25086E+02 -1.26555E+04  7.60872E+03 -6.54208E+03  8.32913E+03  2.39406E+03
  2.09347E+03  7.76856E+03 -6.04519E+03  9.63878E+03 -1.13286E+04  3.28031E+03 -1.02890E+04 -3.17706E+03
 -6.83576E+03 -1.32832E+04  3.07717E+03 -1.48407E+04  1.28187E+04 -9.47175E+03  1.38094E+04  2.24968E+03
  8.71834E+03  1.10626E+04 -1.16134E+03  1.20405E+04 -8.67955E+03  6.09887E+03 -1.07994E+04 -2.24702E+03
 -9.77371E+03 -1.05284E+04 -1.70812E+03 -9.79014E+03  5.41699E+03 -8.59641E+03  8.12934E+03 -4.48296E+03
  3.51690E+03  2.66352E+03 -1.48285E+03  1.85975E+03 -3.36804E+01 -2.67187E+03  2.48044E+03 -6.62147E+03
  8.68117E+03 -2.39899E+03  1.31768E+04  2.17425E+03  1.34370E+04  9.07626E+03  7.84423E+03  1.69745E+04
 -4.44506E+03  1.94545E+04 -1.70674E+04  1.41172E+04 -2.30218E+04  3.58301E+03 -1.91109E+04 -7.56053E+03
 -8.37010E+03 -1.32750E+04 -6.21758E+02 -1.26347E+04  4.06874E+03 -7.78453E+03  2.16055E+03 -5.05059E+03
  3.29860E+03 -2.33175E+03  3.98941E+03 -3.91044E+03  3.79244E+03 -3.80141E+03  7.81952E+03 -1.17301E+03
  1.00285E+04  1.48083E+03  4.07871E+03  7.43758E+03 -4.51887E+02  9.40010E+03 -9.75978E+03  6.85121E+03
 -1.23283E+04 -7.37458E+02 -6.48039E+03 -7.51033E+03 -1.48720E+03 -1.29724E+04  6.65846E+03 -1.36219E+04
  1.38749E+04 -7.65498E+03  1.55052E+04  9.00200E+02  1.03425E+04  1.04449E+04 -5.18995E+02  1.43449E+04
 -5.96330E+03  1.22261E+04 -8.19846E+03  5.15977E+03 -6.27215E+03  1.89609E+02 -3.12325E+03 -2.80249E+03
 -4.09437E+02 -1.45081E+02 -8.66471E+02  1.95512E+03 -5.55414E+03  2.60470E+03 -9.15773E+03 -1.74423E+03
 -5.30436E+03 -8.56793E+03  2.13035E+03 -1.07968E+04  6.65588E+03 -1.06183E+04  1.17226E+04 -3.50037E+03
  1.08281E+04  4.83624E+03  5.07308E+03  1.09561E+04 -3.91994E+03  1.18896E+04 -8.37357E+03  6.54243E+03
 -1.05465E+04  1.00091E+03 -8.78693E+03 -7.59002E+03  1.15590E+03 -9.50962E+03  5.20359E+03 -6.24170E+03
  7.54043E+03 -2.93543E+03  5.82737E+03  2.30563E+03  9.48689E+02  4.20779E+03  9.78507E+01  6.26731E+02
  2.10989E+03  5.14004E+02  3.17359E+03  9.02911E+02  2.70464E+03  5.41687E+03  2.59404E+03  4.82619E+03
 -2.21828E+03  9.80484E+03 -8.22324E+03  9.66949E+03 -1.22005E+04  2.77727E+03 -1.25978E+04 -4.18346E+03
 -5.90018E+03 -1.23568E+04  3.04615E+03 -1.34731E+04  7.63441E+03 -7.71347E+03  9.14086E+03 -2.75851E+03
  7.39169E+03  4.23409E+03  2.17569E+03  5.77079E+03 -3.03942E+03  4.74895E+03 -4.22285E+03 -1.87542E+03
 -2.05527E+03 -3.66293E+03  3.72189E+03 -5.66394E+03  5.81351E+03 -2.83316E+03  4.09929E+03  1.49718E+03
  3.86229E+03  3.43812E+03 -4.86605E+02  2.37819E+03 -3.43584E+02  1.90645E+03  2.44982E+03 -2.49952E+02
  3.68369E+03 -1.74718E+03  4.97513E+03  3.76854E+03  3.40522E+03  5.44999E+03 -5.31444E+02  8.80679E+03
 -4.49337E+03  4.38233E+03 -7.63772E+03  1.60320E+03 -7.21218E+03 -2.64253E+03 -2.18019E+03 -4.71758E+03
  2.40610E+02 -4.01456E+03  2.41233E+03 -2.12930E+03  2.43178E+03  3.48533E+03 -7.47349E+02  4.00397E+03
 -3.51110E+03  3.47446E+03 -3.14091E+03 -2.83571E+03 -3.06996E+03 -6.60883E+03  1.19777E+03 -6.88930E+03
  3.84771E+03 -3.87226E+03  4.89759E+03 -6.16152E+02  3.77507E+03  1.33703E+03  7.77428E+02  2.69716E+03
 -2.09503E+03 -3.86430E+02 -1.89385E+03 -2.43846E+03  2.12923E+03 -5.81474E+03  5.68802E+03 -3.24753E+03
  7.34020E+03  2.44225E+02  7.76762E+03  3.72028E+03  1.79890E+03  6.77350E+03 -8.13064E+02  6.37040E+03
 -6.17466E+03  2.35958E+03 -7.33426E+03 -2.15762E+03 -2.35946E+03 -4.58030E+03  1.43991E+03 -4.60805E+03
  5.13281E+03 -2.68426E+03  4.19989E+03  7.56212E+02  9.39623E+02  3.89126E+03 -1.07288E+03  1.89778E+03
 -7.92031E+02  2.44191E+03 -1.30558E+03  2.04196E+02 -4.37100E+01  4.13837E+02 -2.33226E+02  2.62906E+03
 -3.05296E+03  3.14052E+03 -4.39937E+03  2.54598E+03 -6.47199E+03  2.03123E+03 -9.13133E+03 -4.81888E+03
 -2.77439E+03 -1.06302E+04  1.29273E+03 -9.99859E+03  5.26130E+03 -1.00832E+04  1.04361E+04 -3.70714E+03
  9.81390E+03  1.39830E+03  6.41998E+03  8.73879E+03  1.13586E+03  7.10254E+03 -3.11107E+03  4.70826E+03
 -5.85043E+03  6.34016E+02 -2.62124E+03 -8.29618E+02 -5.87121E+02 -7.18436E+02 -2.48277E+01  9.57592E+02
 -1.06433E+03  3.46756E+02 -1.50975E+03 -2.23877E+02 -2.77536E+02 -2.13856E+03  7.97626E+02 -3.19715E+03
  3.65184E+03 -1.67439E+03  5.70552E+03  4.40324E+01  5.53381E+03  3.52029E+03  2.27093E+03  6.06036E+03
 -2.52895E+03  8.82159E+03 -8.74329E+03  5.48081E+03 -8.02313E+03 -2.03960E+03 -6.00893E+03 -4.85724E+03
 -3.90256E+03 -7.73468E+03  1.49369E+03 -6.53934E+03  5.51768E+03 -3.37824E+03  5.26763E+03  9.61330E+02
  2.93989E+03  2.65593E+03 -3.82471E+02  1.44679E+03 -2.14296E+03 -1.16372E+02  1.16937E+01 -8.35727E+01
  3.42198E+03 -3.33584E+02  2.18948E+03 -9.40765E+02  2.72955E+03  2.75992E+03  1.25890E+02  3.44221E+03
 -3.72603E+03  3.82337E+03 -4.51601E+03  5.56222E+02 -5.33279E+03 -3.51832E+03  1.25984E+02 -5.52982E+03
  4.03736E+03 -4.66171E+03  4.92109E+03 -1.84917E+03  6.16281E+03  8.36349E+02  1.36443E+03  3.44510E+03
 -3.56121E+02  4.76796E+03 -4.86696E+02  3.17899E+03 -3.56705E+03  2.41029E+03 -1.79697E+03 -1.38890E+03
 -1.92566E+03 -3.42917E+02 -1.84522E+03  4.22907E+02 -2.35732E+02  8.46002E+02 -5.05374E+03 -1.40122E+03
 -4.21402E+03 -1.81452E+03 -3.49605E+03 -4.46070E+03  1.63380E+03 -5.52815E+03  4.12393E+03 -3.65717E+02
  4.39158E+03 -3.12784E+02  2.87642E+03  3.04324E+03 -4.65344E+02  4.87990E+03 -3.99465E+03  2.70416E+03
