 $NMID ID='MM_0lb_SNR200_10hz_g40_80.RAW', FMTDAT='(8E13.5)'
 TRAMP=1., VOLUME=1. $END
  3.10225E+05  2.75286E+03  3.37825E+05  2.49394E+05  8.33026E+04  3.38618E+05 -1.33746E+05  2.50790E+05
 -1.90615E+05  8.29128E+04 -1.12354E+05 -3.23887E+04  4.78459E+02 -5.28486E+04  5.33997E+04  5.77686E+02
  3.51505E+04  5.23575E+04 -1.69729E+04  7.71028E+04 -6.09101E+04  6.26891E+04 -8.32941E+04  3.43993E+04
 -7.94944E+04 -1.15141E+04 -5.81478E+04 -5.36604E+04 -1.44463E+04 -7.15787E+04  2.79749E+04 -4.75416E+04
  4.01175E+04  4.35979E+03  1.58276E+04  4.91261E+04 -3.34747E+04  4.67812E+04 -6.68065E+04 -3.50962E+01
 -5.40281E+04 -5.73953E+04 -8.78446E+03 -7.69217E+04  3.38572E+04 -5.75147E+04  4.85994E+04 -1.70430E+04
  4.49442E+04  1.19051E+04  3.15803E+04  2.69058E+04  1.49812E+04  2.95736E+04 -4.26949E+03  2.79696E+04
 -2.30588E+04  1.38159E+04 -2.02472E+04 -4.85927E+03  6.55574E+03 -6.18731E+03  2.36031E+04  1.45814E+04
  6.06391E+03  3.65622E+04 -3.21785E+04  3.62042E+04 -6.46692E+04  7.52172E+02 -5.83688E+04 -4.30161E+04
 -1.16431E+04 -6.50976E+04  4.06618E+04 -4.66724E+04  5.92910E+04  9.05823E+02  3.60156E+04  3.36281E+04
 -6.13955E+03  3.96798E+04 -2.97260E+04  1.64766E+04 -3.21222E+04 -2.79792E+03 -1.75714E+04 -1.09498E+04
 -8.39463E+03 -1.53586E+04  5.70745E+02 -1.91472E+04  7.86252E+03 -2.31014E+04  1.52862E+04 -1.41555E+04
  1.24270E+04  5.51751E+03 -9.04097E+03  1.19840E+04 -2.08354E+04 -5.03690E+03 -6.57267E+03 -3.75064E+04
  2.36295E+04 -4.54608E+04  4.97310E+04 -2.03351E+04  4.73199E+04  2.00251E+04  1.72347E+04  4.62657E+04
 -1.64247E+04  3.34895E+04 -2.63759E+04  3.74049E+03 -1.18571E+04 -2.99110E+04  2.03902E+04 -3.49810E+04
  4.43233E+04 -9.97198E+03  3.84697E+04  2.44753E+04  1.93059E+04  4.98647E+04 -8.13167E+03  5.41499E+04
 -3.32532E+04  3.60172E+04 -4.58710E+04  1.09974E+04 -4.53854E+04 -1.73018E+04 -2.61301E+04 -4.08284E+04
  6.31509E+03 -3.90182E+04  3.36048E+04 -1.55725E+04  3.08032E+04  1.00547E+04  4.71402E+03  2.01483E+04
 -1.32121E+04  9.78856E+03 -1.10419E+04 -6.34021E+03  3.99224E+03 -1.04612E+04  1.90343E+04  5.55433E+03
  1.40847E+04  2.25443E+04 -4.98834E+03  2.53542E+04 -2.43767E+04  1.17457E+04 -2.97990E+04 -3.45876E+03
 -2.31848E+04 -1.90008E+04 -9.75326E+03 -2.19913E+04  3.33585E+03 -2.23974E+04  1.85368E+04 -2.22271E+04
  2.91217E+04 -1.35218E+04  3.57161E+04  3.48879E+03  2.54450E+04  2.20313E+04  2.86454E+03  3.99063E+04
 -1.85806E+04  3.38774E+04 -2.90806E+04  1.16532E+04 -2.22151E+04 -1.06376E+04 -4.35397E+03 -1.26055E+04
  1.77056E+03 -3.31051E+03 -5.82201E+03  7.67782E+03 -1.83331E+04  6.01241E+03 -1.69097E+04 -7.61828E+03
 -1.02257E+04 -2.17981E+04  6.86376E+03 -2.63663E+04  1.78863E+04 -1.83569E+04  2.09615E+04 -3.51307E+03
  1.36953E+04  1.46472E+04 -8.91061E+02  2.32555E+04 -1.56039E+04  1.19690E+04 -2.08565E+04 -4.37621E+03
 -1.62509E+04 -1.98903E+04 -1.00511E+03 -2.65725E+04  1.21291E+04 -2.18009E+04  2.13544E+04 -1.17314E+04
  2.05298E+04  7.41391E+02  1.43221E+04  5.47801E+03  9.25678E+03  1.88823E+03  1.08182E+04 -1.73512E+03
  2.01820E+04  2.10262E+03  2.32024E+04  1.60247E+04  1.50914E+04  3.52352E+04 -3.78861E+03  4.10088E+04
 -2.35794E+04  3.40787E+04 -3.78537E+04  1.63690E+04 -4.14473E+04 -2.28578E+03 -3.14196E+04 -2.29429E+04
 -1.29389E+04 -3.37831E+04  1.12996E+04 -3.01318E+04  2.58023E+04 -1.48416E+04  2.21724E+04  7.80435E+03
  8.02141E+03  1.60036E+04 -1.07551E+04  1.32210E+04 -1.90203E+04  1.33690E+03 -1.48482E+04 -1.11563E+04
 -6.50730E+02 -1.82142E+04  8.13668E+03 -1.31503E+04  1.15821E+04 -8.55437E+01  1.94860E+03  7.94708E+03
 -7.26745E+03  3.44127E+03 -9.17295E+03 -6.99454E+03 -1.03975E+03 -1.62791E+04  1.07906E+04 -1.76667E+04
  1.94852E+04 -1.01669E+04  2.29524E+04  2.08821E+03  2.11378E+04  1.61933E+04  8.60898E+03  2.61891E+04
 -4.44203E+03  2.73364E+04 -1.73051E+04  1.54769E+04 -1.97932E+04  4.77626E+03 -1.33025E+04 -5.61332E+03
 -6.32152E+03 -6.99693E+03 -3.55256E+02  1.91317E+03 -3.19608E+03  3.38139E+03 -6.17331E+03  3.74120E+03
 -1.31031E+04 -1.53862E+03 -1.42417E+04 -1.07434E+04 -5.82864E+03 -1.99888E+04  6.28209E+03 -1.44291E+04
  1.26809E+04 -5.27815E+03  8.62693E+03  3.34287E+03  1.02430E+03  7.37251E+03 -7.90794E+03  1.48247E+03
 -6.25984E+03 -8.48776E+03 -1.15687E+03 -1.32815E+04  7.59557E+03 -1.43352E+04  1.68776E+04 -7.50694E+03
  2.09634E+04  1.80761E+03  1.48050E+04  1.24451E+04  2.29824E+03  1.59262E+04 -8.05407E+03  1.41720E+04
 -1.15388E+04  4.30250E+03 -5.69972E+03 -3.47061E+03  2.11583E+03 -3.16279E+03  7.67736E+03 -7.79186E+02
  7.49476E+03  5.93313E+03  1.25581E+03  1.05798E+04 -7.34314E+03  1.11995E+04 -1.39624E+04  2.94928E+03
 -1.14353E+04 -8.42002E+03 -6.95208E+01 -1.28860E+04  8.35280E+03 -6.77562E+03  8.61233E+03  3.37402E+03
  2.45228E+03  9.11731E+03 -7.25954E+03  9.88953E+03 -1.06210E+04  4.37320E+03 -1.22181E+04 -3.57545E+03
 -6.96483E+03 -1.29951E+04  3.50203E+03 -1.45354E+04  1.45443E+04 -1.00575E+04  1.44216E+04  1.86545E+03
  8.79532E+03  1.22090E+04 -2.11715E+03  1.52173E+04 -1.14454E+04  7.70670E+03 -1.05259E+04 -1.17481E+03
 -1.04045E+04 -8.54263E+03 -2.19590E+03 -1.17356E+04  5.84069E+03 -7.50163E+03  6.53179E+03 -4.20168E+03
  5.13885E+03  1.32767E+02 -1.14221E+03  1.82100E+03 -8.10820E+02 -1.71187E+03  2.43606E+03 -5.53581E+03
  1.00007E+04 -4.37455E+03  1.35163E+04  2.30252E+03  1.33203E+04  9.36371E+03  8.94522E+03  1.83458E+04
 -4.46330E+03  2.01426E+04 -1.70803E+04  1.48725E+04 -2.26930E+04  4.10796E+03 -1.81289E+04 -9.49079E+03
 -8.22995E+03 -1.59843E+04  2.43589E+02 -1.10432E+04  3.73540E+03 -7.26880E+03  4.67752E+03 -5.36183E+03
  4.22655E+03 -3.78826E+03  3.50655E+03 -3.41332E+03  6.23848E+03 -4.83594E+03  6.57627E+03 -3.41666E+01
  7.88298E+03  2.37665E+03  4.25159E+03  7.53878E+03 -1.52817E+03  1.01615E+04 -9.97010E+03  7.28043E+03
 -1.30567E+04 -1.24073E+03 -6.46499E+03 -1.05583E+04 -2.26963E+03 -1.48361E+04  6.67620E+03 -1.25360E+04
  1.36293E+04 -6.55991E+03  1.67278E+04  1.55345E+03  1.08627E+04  1.11313E+04  1.77843E+03  1.54343E+04
 -6.55526E+03  1.26819E+04 -9.50793E+03  4.09052E+03 -6.00155E+03 -5.40935E+02 -2.48579E+03 -1.97979E+03
 -2.02868E+03  7.19848E+02 -9.62183E+02  3.21387E+03 -6.43873E+03  2.02378E+03 -7.71326E+03 -1.55954E+03
 -7.28504E+03 -7.70619E+03  4.81073E+02 -1.23198E+04  8.21810E+03 -1.20345E+04  1.29844E+04 -3.98205E+03
  1.17626E+04  7.11202E+03  6.17129E+03  1.22792E+04 -1.08285E+03  1.27476E+04 -9.82837E+03  6.97113E+03
 -1.15436E+04  2.85204E+02 -9.25512E+03 -7.93972E+03  5.13848E+01 -1.03116E+04  5.00400E+03 -9.02519E+03
  7.49316E+03 -2.66089E+03  6.06323E+03  2.40668E+03  2.04879E+03  4.88951E+03  7.87854E+02  1.06316E+03
  2.69284E+03  9.13184E+02  3.20672E+03  1.88765E+03  2.93586E+03  3.44898E+03  4.23098E+03  6.30439E+03
 -2.17852E+03  1.00111E+04 -8.02981E+03  1.07452E+04 -1.37831E+04  2.43632E+03 -1.37545E+04 -3.91404E+03
 -5.31564E+03 -1.18182E+04  1.91123E+03 -1.45237E+04  6.45235E+03 -8.83371E+03  1.08661E+04 -2.56945E+03
  8.02767E+03  5.20215E+03  1.79919E+03  5.97537E+03 -1.81493E+03  6.40907E+03 -6.86828E+03 -2.50281E+03
 -2.50611E+03 -5.46374E+03  3.57434E+03 -6.75344E+03  4.59830E+03 -2.83457E+03  4.82729E+03 -1.46195E+02
  8.30621E+02  1.82445E+03  1.32352E+03  1.16793E+03 -6.71787E+02  1.82976E+03  1.31714E+03 -1.07957E+03
  1.95392E+03 -2.67335E+02  5.38210E+03  3.10040E+03  2.23981E+03  6.71437E+03 -1.15942E+03  9.40287E+03
 -6.56720E+03  5.27154E+03 -7.61512E+03  7.16207E+02 -7.22926E+03 -2.55682E+03 -3.11033E+03 -5.58952E+03
  9.73656E+02 -4.53005E+03  3.14819E+03 -2.80841E+03  2.89411E+03  1.82290E+03 -3.65104E+02  3.83276E+03
 -5.04696E+03  2.63542E+03 -6.12872E+03 -3.20999E+03 -3.41778E+03 -6.73410E+03  2.46263E+03 -6.50404E+03
  4.35309E+03 -2.15710E+03  5.91641E+03 -5.37265E+02  4.83522E+03  6.65648E+02  6.79355E+02  3.75028E+03
 -2.81585E+03  1.13202E+03 -2.76177E+03 -2.57080E+03  1.05407E+03 -4.57998E+03  5.35834E+03 -3.81202E+03
  8.07976E+03  3.71279E+02  7.99621E+03  4.71012E+03  4.17661E+03  8.64154E+03 -3.53029E+03  6.09872E+03
 -4.64663E+03  3.00876E+03 -5.92200E+03 -1.27031E+03 -3.47310E+03 -3.45427E+03  1.47415E+03 -4.84147E+03
  5.20782E+03 -1.26631E+03  2.61854E+03  2.58897E+03  7.72333E+02  5.08518E+03 -1.10503E+02  4.15399E+03
 -2.73462E+03  2.33756E+03 -2.36924E+03  1.34644E+03 -1.51477E+03  1.65138E+03 -2.11947E+03  9.47968E+02
 -1.38829E+03  2.09221E+03 -6.71983E+03  2.99842E+03 -7.33344E+03  1.16575E+02 -9.64362E+03 -4.24559E+03
 -2.43265E+03 -9.74148E+03  1.71727E+03 -1.18004E+04  7.63151E+03 -9.97770E+03  1.16142E+04 -4.02128E+03
  1.01728E+04  1.28871E+03  5.64363E+03  6.97781E+03  2.24078E+03  6.95903E+03 -3.14763E+03  5.84124E+03
 -4.47050E+03  1.21626E+03 -1.44953E+03 -1.28726E+03 -8.62535E+01 -6.44032E+02 -6.70446E+02  2.34034E+02
 -2.97365E+02  1.25854E+03 -2.15290E+03 -7.39710E+01 -1.51177E+03 -2.79646E+03 -2.12856E+02 -4.43658E+03
  4.16873E+03 -2.81942E+03  4.96543E+03 -2.00684E+02  5.92234E+03  2.89270E+03  1.03740E+02  8.56818E+03
 -4.51463E+03  9.58824E+03 -8.40925E+03  5.70912E+03 -1.08405E+04 -1.13339E+03 -7.82344E+03 -6.35802E+03
 -3.30617E+03 -7.69844E+03  2.35152E+03 -7.63376E+03  4.60784E+03 -3.48544E+03  5.14914E+03  9.34903E+02
  1.78127E+03  1.70451E+03  5.82296E+02  1.73406E+03 -2.71162E+03 -6.80524E+02  3.55187E+02 -1.82424E+03
  2.28055E+03 -1.63209E+03  4.89868E+03  1.77769E+03  1.78565E+03  2.86767E+03 -2.78645E+02  4.15291E+03
 -4.43096E+03  3.62672E+03 -5.38930E+03 -6.20827E+02 -4.29549E+03 -3.91463E+03 -8.18726E+02 -7.37865E+03
  2.01237E+03 -5.96682E+03  5.99072E+03 -2.01430E+03  5.93659E+03  1.93372E+03  4.61649E+03  5.35775E+03
  1.00059E+03  6.78670E+03 -1.42869E+03  4.64266E+03 -2.61996E+03  1.63446E+03 -2.49650E+03  1.46142E+02
 -2.46250E+03  3.23119E+02 -1.21099E+03 -4.26837E+01 -3.38230E+03  1.21707E+03 -5.27654E+03 -1.34391E+03
 -4.02541E+03 -2.00033E+03 -4.09992E+02 -3.78796E+03  2.55231E+03 -6.42064E+03  5.70012E+03 -2.17689E+03
  5.80373E+03  1.07870E+03  3.54588E+03  3.67322E+03 -7.03222E+01  3.67529E+03 -3.36044E+03  2.86613E+03
