 $NMID ID='MM_0lb_SNR200_17hz_g60_91.RAW', FMTDAT='(8E13.5)'
 TRAMP=1., VOLUME=1. $END
  3.09996E+05 -4.42963E+02  3.38040E+05  2.50725E+05  8.36499E+04  3.37532E+05 -1.32463E+05  2.51839E+05
 -1.90676E+05  8.26108E+04 -1.12409E+05 -3.17778E+04  1.57842E+03 -5.04102E+04  5.29104E+04 -8.44317E+02
  3.53649E+04  5.20219E+04 -1.67413E+04  7.47532E+04 -5.99192E+04  6.26802E+04 -8.30777E+04  3.21835E+04
 -8.04365E+04 -1.14427E+04 -5.77824E+04 -5.00498E+04 -1.46011E+04 -7.07241E+04  2.77152E+04 -4.59319E+04
  4.07628E+04  3.78954E+03  1.59885E+04  4.81050E+04 -3.43149E+04  4.76047E+04 -6.56153E+04 -8.62144E+01
 -5.30521E+04 -5.60746E+04 -6.93985E+03 -7.61244E+04  3.34865E+04 -5.42324E+04  4.81579E+04 -1.68780E+04
  4.41391E+04  1.20709E+04  3.24542E+04  2.62375E+04  1.69002E+04  2.93077E+04 -4.43766E+03  2.74154E+04
 -2.28184E+04  1.31533E+04 -1.89727E+04 -5.54322E+03  6.23897E+03 -8.14937E+03  2.31966E+04  1.16916E+04
  7.04387E+03  3.37944E+04 -3.25617E+04  3.48950E+04 -6.29714E+04  3.88704E+03 -5.66695E+04 -4.24465E+04
 -1.36773E+04 -6.32837E+04  4.04763E+04 -4.62825E+04  5.72937E+04 -2.04909E+03  3.31808E+04  3.28604E+04
 -5.82999E+03  3.53475E+04 -2.97815E+04  1.54077E+04 -3.09165E+04 -4.72161E+03 -1.51554E+04 -1.06586E+04
 -8.98467E+03 -1.15623E+04 -1.03187E+03 -1.74104E+04  7.73132E+03 -2.25625E+04  1.53221E+04 -1.33274E+04
  1.14008E+04  5.93041E+03 -8.19146E+03  1.36530E+04 -2.00832E+04 -3.57338E+03 -9.13783E+03 -3.28603E+04
  2.23380E+04 -4.30247E+04  4.82338E+04 -1.88711E+04  4.48017E+04  1.95725E+04  1.50194E+04  4.33852E+04
 -1.57366E+04  3.30000E+04 -2.42696E+04  1.39039E+03 -9.68353E+03 -2.87130E+04  2.08606E+04 -3.30925E+04
  4.09985E+04 -8.39412E+03  3.44613E+04  2.22773E+04  1.66831E+04  4.46268E+04 -8.34139E+03  4.95977E+04
 -3.15711E+04  3.33320E+04 -4.11588E+04  9.87155E+03 -4.16607E+04 -1.58354E+04 -2.40489E+04 -3.77943E+04
  7.56204E+03 -3.74359E+04  3.24849E+04 -1.51292E+04  2.85902E+04  1.07766E+04  4.29947E+03  1.92551E+04
 -1.31993E+04  7.31958E+03 -1.06085E+04 -7.64074E+03  5.33178E+03 -1.01839E+04  1.70007E+04  6.31789E+03
  1.22917E+04  2.19314E+04 -6.83421E+03  2.62021E+04 -2.11930E+04  1.06941E+04 -2.64386E+04 -4.42959E+03
 -1.87527E+04 -1.65943E+04 -7.48042E+03 -2.02043E+04  3.59746E+03 -1.87286E+04  1.42766E+04 -1.74195E+04
  2.61051E+04 -1.13699E+04  3.09810E+04  2.34692E+03  2.21710E+04  2.04079E+04  4.47531E+03  3.52592E+04
 -1.62553E+04  3.02394E+04 -2.69077E+04  9.99145E+03 -2.07630E+04 -1.02666E+04 -4.23413E+03 -1.29955E+04
  1.71366E+03 -2.60214E+03 -5.11366E+03  5.96503E+03 -1.58460E+04  5.36380E+03 -1.57946E+04 -6.94040E+03
 -9.66291E+03 -1.73984E+04  4.89102E+03 -2.31689E+04  1.57230E+04 -1.51587E+04  1.73913E+04 -2.75054E+03
  1.13653E+04  1.13244E+04 -2.99827E+02  1.84834E+04 -1.24898E+04  9.91396E+03 -1.88169E+04 -3.52329E+03
 -1.35031E+04 -1.66345E+04 -3.32236E+03 -2.07005E+04  9.94847E+03 -1.61181E+04  1.83880E+04 -9.48132E+03
  1.71675E+04  8.20706E+02  1.14498E+04  3.78349E+03  6.21860E+03  1.12002E+03  8.81443E+03 -2.35993E+03
  1.65615E+04  2.42841E+03  1.81762E+04  1.49499E+04  1.14698E+04  2.87249E+04 -2.93881E+03  3.05020E+04
 -1.72916E+04  2.62121E+04 -2.99019E+04  1.13105E+04 -3.07364E+04 -3.24286E+03 -2.51781E+04 -1.76495E+04
 -1.16503E+04 -2.48387E+04  9.11031E+03 -2.25240E+04  1.96444E+04 -1.34158E+04  1.77770E+04  6.67172E+03
  7.08716E+03  1.26939E+04 -7.64285E+03  1.22326E+04 -1.58171E+04  2.86118E+03 -1.18095E+04 -9.33397E+03
  3.88306E+01 -1.37408E+04  6.89471E+03 -1.06348E+04  8.76726E+03 -1.96251E+03  1.82654E+03  6.27331E+03
 -8.04166E+03  1.77255E+03 -4.66322E+03 -4.63525E+03  2.39502E+02 -1.16405E+04  8.96554E+03 -1.19526E+04
  1.49681E+04 -7.18456E+03  1.62820E+04  2.04716E+03  1.37417E+04  1.15711E+04  6.75509E+03  1.71574E+04
 -3.60744E+03  1.92499E+04 -1.28667E+04  1.16848E+04 -1.42726E+04  3.24772E+03 -1.06480E+04 -3.32700E+03
 -4.93984E+03 -4.15622E+03 -2.50691E+02  2.17692E+03 -2.92992E+03  3.41164E+03 -4.25629E+03  4.18506E+03
 -8.93384E+03 -5.23483E+02 -1.01071E+04 -7.85704E+03 -4.25850E+03 -1.30864E+04  4.51854E+03 -1.07556E+04
  8.76722E+03 -5.14037E+03  5.61923E+03  2.31372E+03  6.45115E+02  3.88646E+03 -5.14061E+03  2.73164E+02
 -5.22448E+03 -5.63758E+03 -8.18995E+02 -8.73315E+03  4.49747E+03 -9.93260E+03  1.20734E+04 -4.31193E+03
  1.50377E+04  1.59243E+03  1.10508E+04  7.88451E+03  1.84902E+03  9.88982E+03 -5.43211E+03  1.04358E+04
 -6.90647E+03  1.79917E+03 -3.70412E+03 -2.97369E+03  3.17084E+03 -2.59533E+03  4.48774E+03 -1.16677E+03
  5.12975E+03  4.46964E+03  1.02339E+03  6.90693E+03 -5.25172E+03  7.66950E+03 -8.93513E+03  1.92290E+03
 -5.15364E+03 -4.88511E+03 -4.52184E+01 -8.30679E+03  4.12414E+03 -3.73448E+03  3.72522E+03  1.30090E+03
  1.99943E+03  4.67617E+03 -5.59211E+03  6.40856E+03 -6.84888E+03  3.14589E+03 -5.97302E+03 -2.26895E+03
 -2.19492E+03 -7.65581E+03  2.24011E+03 -8.99448E+03  6.85701E+03 -5.66133E+03  8.19667E+03  8.14344E+02
  6.08359E+03  6.16202E+03 -4.54168E+02  6.96210E+03 -7.05317E+03  4.14866E+03 -6.83666E+03 -9.72006E+02
 -6.83501E+03 -4.93729E+03 -7.97249E+02 -6.47202E+03  3.03014E+03 -5.90047E+03  3.45751E+03 -3.22500E+03
  2.93354E+03  1.33224E+03 -4.80931E+02  1.58121E+03  9.95679E+02  1.75239E+02  2.33366E+03 -2.26688E+03
  5.79596E+03 -1.87708E+03  6.74118E+03  6.36345E+02  7.91486E+03  5.21879E+03  6.27290E+03  9.26996E+03
 -1.77433E+03  1.10144E+04 -9.66751E+03  8.74576E+03 -1.21198E+04  1.81754E+03 -1.05264E+04 -2.96730E+03
 -5.26383E+03 -8.21713E+03 -1.05108E+03 -6.79086E+03  2.93491E+03 -2.40029E+03  2.00657E+03 -2.75863E+03
  1.27258E+03 -1.71774E+03  2.74214E+03 -3.13959E+03  4.12833E+03 -1.29141E+03  3.96508E+03 -1.07939E+03
  4.96152E+03  2.03662E+03  8.08039E+02  3.88947E+03 -1.22238E+03  5.32967E+03 -5.71961E+03  4.43076E+03
 -6.34380E+03 -1.06735E+03 -3.37520E+03 -4.64141E+03 -9.83766E+02 -6.67227E+03  4.32834E+03 -7.17351E+03
  7.49360E+03 -4.50026E+03  8.59653E+03 -2.45827E+02  6.44538E+03  5.92478E+03  6.69771E+02  7.50794E+03
 -2.79620E+03  6.47891E+03 -4.08807E+03  2.71688E+03 -2.97252E+03 -4.77563E+02 -1.63555E+03 -2.01865E+03
 -8.00942E+02 -6.84475E+01 -1.92710E+02  1.89060E+03 -3.55090E+03  8.68036E+02 -5.39605E+03 -5.88533E+02
 -1.63321E+03 -5.47994E+03  7.57079E+02 -6.68227E+03  4.56472E+03 -5.09125E+03  5.27808E+03 -1.16391E+03
  4.90987E+03  2.78095E+03  2.85593E+03  5.45104E+03 -7.22538E+02  6.35123E+03 -3.46743E+03  2.57035E+03
 -5.43151E+03  1.93671E+02 -3.74456E+03 -2.04141E+03 -5.30516E+02 -4.57139E+03  2.65132E+03 -3.08498E+03
  2.88139E+03 -6.41002E+02  2.61883E+03  8.24989E+02  1.11588E+03  1.18914E+03  1.45652E+03  7.47807E+02
  1.55068E+03  2.40899E+02  2.01535E+03  1.42668E+03  1.83195E+03  2.49859E+03  8.17261E+02  2.23803E+03
 -1.52984E+03  4.11434E+03 -2.84126E+03  5.00761E+03 -3.54036E+03  1.42003E+03 -4.98874E+03 -5.79228E+02
 -2.45149E+03 -3.57505E+03 -2.25224E+02 -6.42890E+03  2.64029E+03 -3.98877E+03  4.28942E+03 -1.10658E+03
  3.77680E+03  1.57736E+03 -6.11215E+02  3.63083E+03 -4.05270E+02  1.53985E+03 -1.80787E+03 -1.06315E+03
 -1.33607E+03 -2.99557E+03  1.52941E+02 -2.15082E+03  1.20970E+03 -1.20356E+03  2.42015E+03  3.94601E+02
  1.74349E+03  7.66280E+02  9.20144E+02 -7.04616E+02 -5.27935E+02  1.14741E+03  1.99951E+03 -2.01048E+03
 -4.40134E+01 -6.57294E+02  2.49065E+03  1.61142E+03 -3.29728E+01  1.60786E+03  1.88469E+02  4.11123E+03
 -1.95336E+03  2.80676E+03 -3.67828E+03  6.04276E+02 -3.17006E+03 -9.96042E+02  1.59480E+03 -2.18544E+03
  1.14375E+03 -1.95765E+03  1.70636E+03 -4.47519E+02  4.12229E+02  1.48235E+03  2.17429E+01  1.83511E+03
 -2.02277E+03  1.77825E+03 -2.37079E+03 -1.51400E+03 -1.33685E+03 -3.27521E+03  3.45721E+02 -2.00134E+03
  1.31897E+03 -1.13085E+03  1.34836E+03  1.91409E+02  1.99075E+03  7.84001E+02  9.27461E+02  1.21158E+03
 -7.04614E+02 -1.31460E+03 -6.64315E+02 -1.05971E+02  7.38769E+02 -1.08329E+03  1.50429E+03 -1.34908E+03
  2.28701E+03  1.70560E+02  4.69227E+03  1.58000E+03  8.82019E+02  2.39312E+03  1.05775E+02  1.90702E+03
 -2.32024E+03  6.67190E+02 -2.55700E+03 -1.94678E+02  4.50677E+02 -2.30409E+03  2.66934E+02 -1.95577E+03
  2.48605E+03 -1.12309E+02  9.65035E+02  1.94981E+03 -4.10986E+02  2.45023E+03 -2.10905E+02  7.96597E+02
 -1.28188E+03  1.23079E+03 -4.44916E+02  1.37110E+02  6.83659E+02 -5.56468E+02 -5.04385E+02  2.40604E+02
  1.22503E+02  8.58308E+02 -2.90604E+03 -8.38203E+01 -2.81469E+03 -3.88680E+02 -3.66934E+03 -1.24073E+03
 -1.27270E+03 -2.76023E+03  2.54566E+02 -3.73532E+03  1.27432E+03 -3.69828E+03  3.31711E+03 -1.68426E+03
  2.87598E+03  5.40927E+02  1.62396E+03  2.46749E+03  3.92404E+02  2.42818E+03 -7.58110E+02  2.63796E+03
 -1.15568E+03  1.53781E+03 -1.46341E+03 -1.22244E+03 -2.50479E+03  6.61038E+02 -6.44360E+02 -5.50030E+02
 -1.27892E+03 -3.85512E+01 -1.17975E+03 -1.21718E+03  3.24790E+02 -1.14310E+03 -1.40523E+02 -8.82237E+02
  9.93295E+02  4.37043E+02  1.17057E+03  6.98347E+01  1.32174E+03  2.19932E+03  9.99579E+02  1.20976E+03
 -1.62561E+03  2.69177E+03 -2.14810E+03  1.65748E+03 -3.81797E+03 -2.77110E+02 -1.82936E+03 -1.16928E+03
 -1.13105E+03 -2.59091E+03  3.04224E+02 -2.23253E+03  1.04531E+03 -1.19710E+03  4.21507E+02 -1.15223E+03
  1.23806E+03  5.26424E+02  3.99543E+02  2.20672E+02 -6.85196E+02  6.66029E+02 -3.44919E+02  3.65096E+02
  1.06301E+03  1.01705E+03  9.66580E+02 -2.99189E+02  4.58489E+02  9.12176E+02  1.26265E+02  1.26804E+02
 -7.37052E+02  7.40382E+02 -6.73442E+01  6.36905E+02 -1.89319E+03 -1.31451E+02  7.29278E+02 -1.05269E+03
  9.07820E+02 -2.08105E+03  9.97576E+02  5.09025E+02  2.72396E+03 -4.10225E+02  1.56046E+03  2.60719E+03
  8.23953E+02  1.95214E+03  4.44997E+01  4.35183E+02 -3.72688E+02  4.79437E+02 -1.25490E+03  7.38327E+02
 -1.01093E+03 -3.70120E+02 -6.09519E+02  1.01860E+03 -1.78513E+03  6.48505E+02 -4.86219E+02 -6.93656E+02
 -1.83880E+03 -5.66317E+01  9.62224E+02 -1.32444E+03  1.50972E+03 -1.34185E+03  4.20418E+02  5.57487E+02
 -3.82275E+02 -9.21390E+00 -9.56886E+01  1.28484E+03 -3.44283E+02  7.67712E+02 -7.28211E+02  1.87250E+03
