 $NMID ID='MM_0lb_SNR200_14hz_g60_71.RAW', FMTDAT='(8E13.5)'
 TRAMP=1., VOLUME=1. $END
  3.09034E+05  9.23790E+02  3.37645E+05  2.50322E+05  8.38238E+04  3.38112E+05 -1.32004E+05  2.51326E+05
 -1.91290E+05  8.33642E+04 -1.12084E+05 -3.16626E+04 -5.70929E+02 -5.15832E+04  5.30264E+04 -1.78325E+03
  3.51047E+04  5.40995E+04 -1.58758E+04  7.51059E+04 -6.12807E+04  6.44328E+04 -8.58043E+04  3.18920E+04
 -8.17784E+04 -1.06920E+04 -5.84932E+04 -5.11117E+04 -1.40210E+04 -7.12249E+04  2.81183E+04 -4.80380E+04
  3.98846E+04  3.86654E+03  1.65001E+04  4.73505E+04 -3.49267E+04  4.68259E+04 -6.84632E+04 -1.16903E+02
 -5.34271E+04 -5.64412E+04 -6.60533E+03 -7.75185E+04  3.34878E+04 -5.65208E+04  4.90296E+04 -1.72657E+04
  4.37647E+04  1.11802E+04  3.33984E+04  2.60120E+04  1.52445E+04  2.98213E+04 -6.36421E+03  2.72965E+04
 -2.12873E+04  1.13584E+04 -1.86031E+04 -6.24141E+03  5.85357E+03 -7.01211E+03  2.17244E+04  1.13912E+04
  8.18854E+03  3.53780E+04 -3.36576E+04  3.67733E+04 -6.59887E+04  2.29438E+03 -5.64151E+04 -4.37325E+04
 -1.20327E+04 -6.28324E+04  3.98868E+04 -4.62293E+04  5.80106E+04 -1.80317E+03  3.52548E+04  3.21057E+04
 -5.42066E+03  3.71466E+04 -3.04500E+04  1.93740E+04 -3.14685E+04 -5.26952E+03 -1.84883E+04 -1.08184E+04
 -8.62286E+03 -1.31121E+04 -1.40395E+03 -1.82959E+04  7.58841E+03 -2.27347E+04  1.51382E+04 -1.17532E+04
  1.03079E+04  5.50388E+03 -8.69518E+03  1.31603E+04 -2.28491E+04 -5.65526E+03 -8.55286E+03 -3.63980E+04
  2.32695E+04 -4.42933E+04  4.96076E+04 -1.88778E+04  4.70950E+04  2.00500E+04  1.69690E+04  4.49317E+04
 -1.66625E+04  3.48442E+04 -2.55569E+04  1.74575E+03 -9.98739E+03 -2.82986E+04  2.06571E+04 -3.54766E+04
  4.17899E+04 -1.00305E+04  3.65039E+04  2.47005E+04  1.97861E+04  4.80265E+04 -6.55509E+03  5.08835E+04
 -3.23853E+04  3.59137E+04 -4.37922E+04  9.39370E+03 -4.31741E+04 -1.73588E+04 -2.38043E+04 -4.03068E+04
  7.58172E+03 -3.93141E+04  3.22613E+04 -1.47728E+04  3.17468E+04  1.06154E+04  3.02969E+03  1.96338E+04
 -1.20500E+04  9.33073E+03 -1.00257E+04 -7.27602E+03  6.39909E+03 -1.05203E+04  1.84258E+04  5.91855E+03
  1.36094E+04  2.07148E+04 -6.04466E+03  2.54824E+04 -2.23265E+04  1.29216E+04 -2.89744E+04 -5.04393E+03
 -2.11892E+04 -1.84344E+04 -8.71405E+03 -2.25967E+04  3.14529E+03 -2.13847E+04  1.72555E+04 -1.98458E+04
  2.71061E+04 -1.44288E+04  3.36065E+04  1.04280E+03  2.53012E+04  2.11241E+04  3.72909E+03  3.82284E+04
 -1.86980E+04  3.14981E+04 -2.85529E+04  1.15878E+04 -2.18781E+04 -1.00392E+04 -5.20908E+03 -1.23803E+04
  6.53777E+02 -2.51152E+03 -6.36896E+03  6.35556E+03 -1.82255E+04  5.36114E+03 -1.77550E+04 -7.42267E+03
 -1.15360E+04 -2.12633E+04  4.26258E+03 -2.45341E+04  1.64434E+04 -1.71565E+04  1.90401E+04 -1.68200E+03
  1.03219E+04  1.39693E+04 -1.11183E+03  1.83122E+04 -1.32511E+04  1.24916E+04 -2.05193E+04 -4.11388E+03
 -1.46627E+04 -1.81110E+04 -2.15842E+03 -2.38763E+04  1.05147E+04 -1.97972E+04  1.98957E+04 -1.01730E+04
  1.84009E+04 -8.41215E+02  1.35285E+04  5.70692E+03  7.14130E+03  1.53166E+03  1.09580E+04 -7.42536E+02
  1.90221E+04  3.49737E+03  2.11956E+04  1.59803E+04  1.27698E+04  3.30911E+04 -2.71605E+03  3.68570E+04
 -2.14337E+04  2.95322E+04 -3.39734E+04  1.47127E+04 -3.58389E+04 -2.62672E+03 -2.86878E+04 -2.03491E+04
 -1.16839E+04 -3.07056E+04  9.86440E+03 -2.73529E+04  2.24902E+04 -1.38646E+04  1.93824E+04  6.89209E+03
  7.57392E+03  1.52160E+04 -8.72093E+03  1.34989E+04 -1.85089E+04  2.00579E+03 -1.32767E+04 -1.07897E+04
 -5.41912E+02 -1.52983E+04  7.69779E+03 -1.23815E+04  1.02584E+04 -1.37774E+03  2.40187E+03  7.43035E+03
 -7.11080E+03  2.79466E+03 -6.41736E+03 -5.47510E+03 -1.15101E+03 -1.39110E+04  8.94925E+03 -1.46764E+04
  1.81082E+04 -8.20398E+03  1.96395E+04  4.01358E+03  1.72286E+04  1.42873E+04  7.64142E+03  2.18989E+04
 -4.79351E+03  2.51034E+04 -1.47140E+04  1.49721E+04 -1.82375E+04  3.76888E+03 -1.12547E+04 -3.71569E+03
 -4.93232E+03 -4.96953E+03 -6.44897E+02  1.35182E+03 -1.39649E+03  2.00544E+03 -5.82971E+03  5.12030E+03
 -1.10964E+04 -8.83414E+02 -1.25999E+04 -8.60857E+03 -6.00676E+03 -1.50453E+04  4.53737E+03 -1.30174E+04
  1.05560E+04 -6.00285E+03  7.13535E+03  2.79947E+03 -2.52980E+02  4.42782E+03 -6.35121E+03 -1.70125E+02
 -5.07827E+03 -6.35699E+03 -4.22867E+02 -1.21959E+04  4.51874E+03 -1.21481E+04  1.55360E+04 -6.49428E+03
  1.80038E+04  5.88253E+02  1.29633E+04  1.09704E+04  2.20624E+03  1.32427E+04 -6.46537E+03  1.10851E+04
 -7.79582E+03  3.15099E+03 -4.51262E+03 -1.55983E+03  2.52723E+03 -3.04628E+03  6.70652E+03 -3.39637E+02
  5.27824E+03  4.98066E+03  3.48018E+02  9.05891E+03 -7.22836E+03  9.29323E+03 -1.15745E+04  3.36571E+03
 -8.97468E+03 -5.02991E+03 -1.97455E+02 -1.01094E+04  5.22077E+03 -4.89055E+03  6.34982E+03  1.82350E+03
  8.27112E+02  7.37741E+03 -6.52935E+03  7.82247E+03 -9.04086E+03  3.21790E+03 -7.93462E+03 -3.29351E+03
 -5.54466E+03 -1.01684E+04  2.39370E+03 -1.28449E+04  1.11899E+04 -9.18111E+03  1.25722E+04  2.18345E+03
  6.60102E+03  8.39245E+03 -8.47163E+02  1.15351E+04 -8.37600E+03  7.41460E+03 -8.72418E+03 -7.03170E+02
 -9.52679E+03 -8.06497E+03 -1.61322E+03 -8.25724E+03  2.77970E+03 -6.53229E+03  4.33497E+03 -2.40258E+03
  4.07364E+03  1.53412E+03  2.69065E+02  2.40621E+02  2.33829E+02 -6.37444E+02  1.13890E+02 -5.25570E+03
  7.30764E+03 -2.18413E+03  1.10247E+04  1.33332E+03  1.03512E+04  7.21397E+03  6.20323E+03  1.18835E+04
 -2.27773E+03  1.62057E+04 -1.21556E+04  1.28308E+04 -1.74298E+04  1.78920E+03 -1.33324E+04 -6.05046E+03
 -6.72841E+03 -1.24813E+04 -2.59193E+02 -1.01387E+04  2.61678E+03 -4.20752E+03  3.67598E+03 -3.87923E+03
  2.96787E+03 -3.16516E+03  2.86725E+03 -2.56527E+03  4.00780E+03 -2.50973E+03  6.46119E+03  1.32746E+02
  8.09925E+03  2.16447E+03  2.94740E+03  6.15302E+03 -1.68993E+03  6.20212E+03 -7.49389E+03  5.07149E+03
 -1.07336E+04 -8.14103E+02 -3.96331E+03 -6.97513E+03 -6.46996E+02 -9.27371E+03  5.25337E+03 -9.49184E+03
  1.03735E+04 -5.72759E+03  1.28797E+04  1.44351E+03  9.55044E+03  9.05948E+03  1.75783E+03  1.16068E+04
 -3.80854E+03  9.16436E+03 -6.20885E+03  3.29580E+03 -4.20514E+03 -2.03365E+03 -1.37896E+03 -1.23592E+03
 -2.18231E+02  1.54963E+03 -3.02166E+03  1.61636E+03 -4.12813E+03  1.80309E+03 -6.74692E+03 -8.59708E+02
 -4.10509E+03 -6.95860E+03  5.68715E+01 -8.91625E+03  5.92552E+03 -8.10365E+03  9.19912E+03 -2.30003E+03
  8.71638E+03  4.92045E+03  3.54584E+03  6.04385E+03 -2.08229E+03  8.75343E+03 -6.03940E+03  5.54815E+03
 -7.45321E+03  2.01616E+03 -6.12980E+03 -4.01688E+03  2.36526E+02 -7.65970E+03  4.89022E+03 -4.42003E+03
  5.70620E+03 -1.31759E+03  3.90723E+03  2.31026E+03  1.32702E+03  3.22227E+03  1.68985E+03  9.11545E+02
  2.53120E+03  1.95381E+03  2.85715E+03  2.55152E+03  3.15632E+03  3.59833E+03  3.30788E+03  6.21486E+03
 -2.35257E+03  6.30274E+03 -6.35294E+03  6.04330E+03 -6.77920E+03  1.73666E+03 -8.52352E+03 -2.94158E+03
 -4.29466E+03 -7.02688E+03  8.51335E+02 -9.66179E+03  4.24187E+03 -5.77550E+03  8.22748E+03 -7.20421E+02
  4.73275E+03  4.04369E+03  6.03088E+02  3.87943E+03 -2.82035E+03  3.13305E+03 -3.35381E+03 -5.06785E+02
 -8.14191E+02 -3.63960E+03  1.84575E+03 -3.21441E+03  3.08701E+03 -1.82094E+03  2.56245E+03  7.05871E+02
  1.64288E+03  1.15948E+03  1.04801E+03  8.88205E+02 -9.00251E+02  1.03229E+03  1.11888E+03  2.97370E+02
 -5.44945E+02 -1.49922E+02  3.51666E+03  6.11862E+02  8.61396E+01  4.83345E+03 -1.58899E+03  5.16324E+03
 -2.88135E+03  3.53358E+03 -6.49099E+03  5.01727E+02 -6.28464E+03 -1.33001E+03 -5.83548E+02 -2.89099E+03
  1.17446E+03 -2.65135E+03  2.75554E+03 -8.91648E+02  3.11037E+03  1.71610E+03 -2.09200E+03  1.93501E+03
 -4.29964E+03  1.43512E+03 -2.58952E+03 -2.08356E+03 -1.05501E+03 -5.37406E+03  3.99318E+02 -4.23163E+03
  1.94584E+03 -2.26686E+03  3.16257E+03  2.02562E+01  1.05437E+03  4.05619E+02  8.17062E+02  2.71068E+03
 -1.18390E+03  1.15311E+03 -2.92488E+03 -9.41788E+02  9.96775E+02 -1.89731E+03  4.71178E+03 -2.86476E+03
  4.85998E+03  3.28111E+02  3.90716E+03  1.27060E+03  1.43332E+03  3.71342E+03 -2.12088E+03  4.54408E+03
 -3.19100E+03  3.74841E+03 -4.23667E+03 -2.14791E+03 -2.48756E+03 -3.36104E+03  7.57341E+02 -2.15082E+03
  2.66024E+03 -7.99690E+02  3.63653E+03  6.89768E+02 -1.11691E+02  2.06773E+03 -6.51982E+02  2.40406E+03
 -1.70383E+03  1.07789E+03 -1.19031E+03 -9.25468E+01  5.62025E+01  5.68257E+02 -1.37401E+02  2.14627E+03
 -8.52715E+02  1.37438E+03 -2.48619E+03  1.25964E+03 -5.75011E+03 -1.63777E+03 -4.13891E+03 -1.90389E+03
 -1.10265E+03 -5.82235E+03  1.62817E+03 -6.16732E+03  3.92038E+03 -4.63996E+03  7.24562E+03 -1.86259E+03
  6.32205E+03  1.48465E+03  4.37484E+03  4.93071E+03  1.44667E+02  3.98371E+03 -1.30107E+03  2.54367E+03
 -2.75478E+03  2.08216E+03 -2.37296E+03 -1.16096E+03 -1.03550E+03 -8.91670E+02 -4.49598E+02 -9.19584E+02
 -1.14585E+03  7.30577E+02 -1.52753E+03 -5.84770E+02 -2.11766E+02 -2.20431E+03  7.75091E+01 -1.34567E+03
  2.36268E+03 -1.39371E+03  1.68380E+03  2.16772E+02  3.52226E+03  3.27722E+03  1.24009E+02  4.11994E+03
 -2.81294E+03  5.91655E+03 -3.85862E+03  2.84599E+03 -5.31422E+03 -1.08973E+03 -3.82280E+03 -3.90583E+03
 -9.02043E+02 -4.77522E+03  2.13228E+03 -4.41478E+03  2.22037E+03 -2.84709E+03  3.21877E+03 -2.31260E+02
  1.20385E+03  1.45976E+03  1.58994E+02  9.64653E+02 -1.25916E+03 -7.11728E+02 -7.92620E+02 -6.03150E+02
  1.09320E+03  5.08177E+02 -1.11001E+02  1.75863E+02 -7.59437E+02  9.02983E+02  1.77728E+03  2.13204E+03
 -2.21879E+03  2.08471E+03 -3.13465E+03  8.62179E+02 -2.73717E+03 -7.04937E+02 -1.05341E+03 -2.48119E+03
  1.90619E+03 -2.73995E+03  1.84575E+03 -1.41697E+02  3.72237E+03  5.09399E+01  4.08634E+02  2.08373E+03
  1.22352E+03  2.21613E+03 -8.96480E+02  2.47409E+03 -2.21210E+03  2.77168E+03 -1.82062E+03  1.29980E+03
 -1.80991E+02  3.51314E+02 -7.13561E+02 -1.06035E+03 -1.66854E+03  1.45622E+03 -1.61340E+03 -1.29962E+03
 -2.93792E+03 -1.54906E+03 -1.09298E+03 -1.35505E+03  6.08447E+02 -2.82462E+03  9.60467E+02 -1.29391E+03
  1.66294E+03 -1.57230E+02  8.55320E+02  1.01877E+03  1.61539E+02  1.81726E+03 -2.16061E+03  1.25199E+03
