 $NMID ID='MM_0lb_SNR200_11hz_g60_47.RAW', FMTDAT='(8E13.5)'
 TRAMP=1., VOLUME=1. $END
  3.10218E+05 -7.43582E+01  3.37888E+05  2.51050E+05  8.46789E+04  3.38202E+05 -1.33120E+05  2.52032E+05
 -1.89619E+05  8.49665E+04 -1.11412E+05 -3.24356E+04 -1.00877E+03 -5.11478E+04  5.25775E+04 -3.86631E+02
  3.62140E+04  5.27885E+04 -1.73712E+04  7.55727E+04 -6.04897E+04  6.39193E+04 -8.54072E+04  3.04352E+04
 -8.14252E+04 -1.22816E+04 -5.77227E+04 -5.29644E+04 -1.43624E+04 -7.15619E+04  2.79364E+04 -4.63963E+04
  4.22908E+04  4.53819E+03  1.66497E+04  5.03102E+04 -3.44535E+04  4.85314E+04 -6.76885E+04 -4.03603E+02
 -5.47687E+04 -5.65404E+04 -7.54483E+03 -7.90300E+04  3.46402E+04 -5.72230E+04  4.86952E+04 -1.87444E+04
  4.77529E+04  1.10087E+04  3.13770E+04  2.69597E+04  1.57388E+04  3.10280E+04 -5.45001E+03  2.68125E+04
 -2.25108E+04  1.10746E+04 -1.64544E+04 -5.18566E+03  6.31476E+03 -7.21283E+03  2.35533E+04  1.47283E+04
  7.99134E+03  3.76171E+04 -3.31022E+04  3.66715E+04 -6.58570E+04  1.80349E+03 -5.97841E+04 -4.43111E+04
 -1.21457E+04 -6.67945E+04  4.19302E+04 -4.93424E+04  6.00654E+04 -2.09123E+03  3.64379E+04  3.43709E+04
 -4.30896E+03  3.79461E+04 -3.25470E+04  1.89622E+04 -3.20928E+04 -1.88845E+03 -1.86266E+04 -1.17946E+04
 -9.23351E+03 -1.42973E+04  6.02681E+02 -1.98994E+04  7.66289E+03 -2.31601E+04  1.65252E+04 -1.14202E+04
  1.03636E+04  7.75864E+03 -1.09611E+04  1.21641E+04 -2.41087E+04 -5.75356E+03 -8.57083E+03 -3.61690E+04
  2.52127E+04 -4.69812E+04  5.03706E+04 -2.08080E+04  4.82995E+04  2.07240E+04  1.61743E+04  4.75756E+04
 -1.66801E+04  3.70712E+04 -2.76329E+04  2.51317E+03 -1.08293E+04 -3.01318E+04  2.13502E+04 -3.71711E+04
  4.50303E+04 -1.04179E+04  3.96343E+04  2.67461E+04  2.10795E+04  5.11567E+04 -8.57965E+03  5.43686E+04
 -3.38501E+04  3.66290E+04 -4.63741E+04  1.10562E+04 -4.74360E+04 -1.89430E+04 -2.53313E+04 -4.18076E+04
  7.58463E+03 -3.98109E+04  3.54561E+04 -1.63329E+04  3.15972E+04  1.18747E+04  6.13723E+03  2.03342E+04
 -1.25160E+04  1.04355E+04 -1.15842E+04 -8.31767E+03  6.11228E+03 -1.25965E+04  1.92269E+04  5.08867E+03
  1.45508E+04  2.40619E+04 -6.12223E+03  2.70231E+04 -2.32599E+04  1.37597E+04 -3.09169E+04 -3.19905E+03
 -2.41634E+04 -1.92499E+04 -1.12379E+04 -2.40618E+04  5.61262E+03 -2.47155E+04  1.90353E+04 -2.26524E+04
  3.26139E+04 -1.36059E+04  3.64833E+04  5.43139E+03  2.65122E+04  2.32177E+04  3.88848E+03  3.94226E+04
 -1.93645E+04  3.38009E+04 -3.00368E+04  1.07694E+04 -2.23126E+04 -1.01664E+04 -3.55402E+03 -1.29343E+04
  1.43415E+03  7.26041E+00 -6.72418E+03  8.10775E+03 -1.87819E+04  5.61313E+03 -1.93801E+04 -7.64672E+03
 -1.24681E+04 -2.19642E+04  6.22177E+03 -2.74255E+04  1.84075E+04 -1.93310E+04  2.30156E+04 -2.37662E+03
  1.42695E+04  1.53764E+04  6.75872E+02  2.35003E+04 -1.69420E+04  1.22582E+04 -2.17022E+04 -4.75380E+03
 -1.75507E+04 -2.02763E+04 -2.28142E+03 -2.78213E+04  1.22659E+04 -2.19578E+04  2.35431E+04 -1.06360E+04
  2.14168E+04 -1.16666E+03  1.43229E+04  4.42505E+03  7.13124E+03  2.17752E+03  1.26005E+04 -1.76567E+03
  2.19146E+04  2.02824E+03  2.35152E+04  1.82476E+04  1.55356E+04  3.58083E+04 -2.67973E+03  4.36304E+04
 -2.34723E+04  3.51394E+04 -3.93260E+04  1.78914E+04 -4.21226E+04 -3.50103E+03 -3.46318E+04 -2.34856E+04
 -1.36933E+04 -3.50325E+04  1.25114E+04 -3.02643E+04  2.62233E+04 -1.39472E+04  2.39996E+04  7.04791E+03
  9.63696E+03  1.79317E+04 -1.16585E+04  1.54162E+04 -1.85212E+04  2.68540E+03 -1.45414E+04 -1.29349E+04
 -6.68812E+02 -1.80319E+04  9.74241E+03 -1.38507E+04  1.24358E+04 -7.60950E+02  3.02358E+03  9.25093E+03
 -7.24794E+03  3.32561E+03 -8.60982E+03 -7.40180E+03 -1.24500E+03 -1.70918E+04  1.07738E+04 -1.86228E+04
  1.98815E+04 -1.11113E+04  2.30656E+04  2.18190E+03  2.11921E+04  1.96342E+04  9.46333E+03  2.79064E+04
 -4.92792E+03  2.91800E+04 -1.75654E+04  1.78428E+04 -2.24571E+04  4.70865E+03 -1.47378E+04 -4.43508E+03
 -5.90880E+03 -7.48777E+03 -8.42702E+02  8.40194E+01 -3.54593E+03  3.07674E+03 -7.86351E+03  5.43070E+03
 -1.36575E+04 -1.44663E+03 -1.32148E+04 -1.07776E+04 -6.07379E+03 -1.84744E+04  5.31853E+03 -1.44973E+04
  1.31448E+04 -5.86301E+03  8.65676E+03  4.40553E+03 -1.56349E+03  5.39485E+03 -7.10339E+03  4.52431E+02
 -6.85148E+03 -9.08247E+03 -4.21818E+02 -1.43421E+04  9.55096E+03 -1.58595E+04  1.96585E+04 -9.39080E+03
  2.06766E+04  1.53511E+03  1.56364E+04  1.36877E+04  2.98347E+03  1.81795E+04 -8.72602E+03  1.34319E+04
 -1.27032E+04  5.80799E+03 -5.79168E+03 -4.51836E+03  1.57710E+03 -3.14354E+03  7.15289E+03 -7.63572E+02
  6.32606E+03  6.34345E+03  1.61184E+03  1.12510E+04 -8.22401E+03  1.09401E+04 -1.33079E+04  3.67586E+03
 -9.23858E+03 -7.22937E+03  5.80139E+02 -1.17011E+04  6.54655E+03 -5.65250E+03  8.13238E+03  4.45512E+03
  2.92256E+03  9.09313E+03 -7.65934E+03  9.97395E+03 -1.20877E+04  3.32423E+03 -1.21257E+04 -4.38248E+03
 -6.52493E+03 -1.43171E+04  3.24958E+03 -1.68955E+04  1.46447E+04 -1.13750E+04  1.51426E+04  2.99644E+03
  1.06588E+04  1.29809E+04 -2.92129E+03  1.36336E+04 -9.92215E+03  7.98266E+03 -1.21783E+04 -2.27273E+03
 -9.55115E+03 -7.56040E+03 -1.59346E+03 -1.15058E+04  5.71134E+03 -8.79164E+03  8.31053E+03 -2.70596E+03
  4.54493E+03  2.81547E+03 -9.31333E+02  3.43821E+03 -1.01592E+03 -3.06923E+03  1.17266E+03 -5.86810E+03
  9.42370E+03 -4.96959E+03  1.30486E+04  3.68897E+02  1.35536E+04  1.01968E+04  1.11624E+04  1.85019E+04
 -4.66861E+03  1.97503E+04 -1.68438E+04  1.54607E+04 -2.26551E+04  3.56560E+03 -1.86980E+04 -7.04021E+03
 -8.38979E+03 -1.61154E+04 -3.30291E+02 -1.29712E+04  3.65220E+03 -5.16447E+03  5.06348E+03 -3.38333E+03
  3.77868E+03 -4.03070E+03  2.06045E+03 -4.25153E+03  6.27713E+03 -3.60116E+03  6.85287E+03 -1.21876E+03
  1.03907E+04  4.05450E+03  3.89951E+03  8.18476E+03 -2.05641E+03  1.18275E+04 -1.00103E+04  7.33974E+03
 -1.23017E+04 -2.50683E+03 -7.08834E+03 -9.02270E+03 -1.06078E+03 -1.46306E+04  7.22806E+03 -1.35615E+04
  1.38768E+04 -7.81125E+03  1.67380E+04  1.23663E+03  1.18000E+04  1.17114E+04  1.98950E+03  1.62536E+04
 -7.34350E+03  1.27919E+04 -8.75247E+03  3.02377E+03 -7.12939E+03 -4.93138E+02 -3.52202E+03 -1.52427E+03
 -1.24517E+03  4.26054E+02 -1.44147E+03  2.18101E+03 -4.91169E+03  1.19519E+03 -7.39161E+03 -1.83073E+03
 -6.67717E+03 -9.44542E+03 -7.33019E+01 -1.32353E+04  7.39778E+03 -1.14874E+04  1.16722E+04 -3.45480E+03
  1.32717E+04  6.39373E+03  4.58252E+03  9.33945E+03 -1.68768E+03  1.24961E+04 -9.57494E+03  8.81191E+03
 -1.23245E+04  2.13356E+02 -7.56652E+03 -7.89561E+03 -7.75924E+02 -1.07997E+04  7.37555E+03 -6.44493E+03
  8.29122E+03 -2.33832E+03  6.37133E+03  1.45442E+03  3.24255E+03  3.79967E+03  1.38405E+03  5.32904E+02
  3.83058E+02  1.87509E+03  2.26711E+03  2.13589E+03  3.72666E+03  4.87284E+03  3.17298E+03  6.29223E+03
 -2.89431E+03  8.37770E+03 -9.73186E+03  1.07835E+04 -1.15145E+04  3.64158E+03 -1.40847E+04 -6.13115E+03
 -6.97492E+03 -1.22137E+04  1.51208E+03 -1.47458E+04  8.25394E+03 -8.33057E+03  1.09510E+04 -1.48284E+03
  8.47303E+03  5.61737E+03  9.26572E+02  7.08808E+03 -3.34643E+03  5.46252E+03 -5.77961E+03  1.44819E+02
 -2.68535E+03 -6.85966E+03  3.10244E+03 -5.58221E+03  4.62048E+03 -1.90532E+03  5.15869E+03  1.00977E+03
  4.33812E+03  1.92119E+03  1.54421E+03  1.02093E+03 -1.96158E+02  2.50628E+03  1.89275E+03 -8.87610E+02
  1.89128E+03 -2.55056E+02  5.65499E+03  1.84762E+03  8.39198E+02  7.39079E+03 -1.13305E+03  8.00093E+03
 -6.52139E+03  5.65482E+03 -7.88578E+03  2.81349E+03 -6.30278E+03 -3.14476E+03 -4.11582E+03 -5.21590E+03
  1.53756E+03 -4.27724E+03  3.75473E+03 -3.01686E+03  3.58514E+03  3.51420E+03 -8.19062E+02  3.65632E+03
 -4.63661E+03  2.09232E+03 -6.84621E+03 -3.35502E+03 -3.85566E+03 -6.59780E+03  6.46911E+01 -7.95032E+03
  3.42886E+03 -3.56266E+03  4.41498E+03  4.69991E+02  2.86881E+03  1.80062E+03  1.06071E+03  3.43323E+03
 -1.60151E+03  1.91527E+03 -4.29286E+03 -2.43918E+03  7.18447E+02 -6.29058E+03  5.46281E+03 -3.06585E+03
  8.19912E+03  6.60040E+02  6.29184E+03  5.26566E+03  3.40670E+03  7.36725E+03 -1.85553E+03  7.67504E+03
 -6.14967E+03  2.81844E+03 -7.54826E+03 -6.22376E+02 -3.43119E+03 -3.24231E+03  3.05714E+03 -4.83480E+03
  4.65471E+03 -2.28116E+03  4.03961E+03  2.34678E+03  1.13832E+03  4.67907E+03 -2.21922E+02  3.88994E+03
 -1.78110E+03  1.87939E+03 -2.38537E+03  7.52317E+01 -1.74102E+03  1.29938E+03  1.01168E+03  1.34702E+03
 -1.14443E+03  3.69594E+03 -4.94995E+03  1.32664E+03 -7.20922E+03  8.51802E+01 -1.02664E+04 -3.83744E+03
 -4.82332E+03 -8.92496E+03  2.29324E+03 -1.09610E+04  5.92652E+03 -9.68526E+03  1.13206E+04 -3.45265E+03
  1.08045E+04  4.94308E+02  7.33279E+03  7.49413E+03  1.28272E+03  7.77889E+03 -2.73782E+03  4.51954E+03
 -4.30608E+03  2.70522E+03 -1.56829E+03 -6.99280E+02 -1.64914E+03 -1.25048E+03 -1.93007E+03 -1.25946E+02
 -8.96598E+02  2.08485E+02 -8.02506E+02 -4.50649E+02 -3.14908E+02 -2.50613E+03  2.40603E+02 -2.66191E+03
  3.63848E+03 -2.53362E+03  5.46147E+03 -9.18564E+02  5.19214E+03  4.54538E+03  1.86956E+03  9.22767E+03
 -5.67151E+03  8.86304E+03 -9.08147E+03  5.92880E+03 -9.42591E+03 -8.77418E+02 -8.21562E+03 -6.27573E+03
 -1.97370E+03 -8.22422E+03  2.47608E+03 -7.60833E+03  3.79744E+03 -4.04380E+03  5.58447E+03  1.09550E+03
  1.96850E+03  2.26293E+03 -6.34815E+02  2.89893E+03 -9.14754E+02  9.59646E+01 -3.64871E+01 -8.60420E+02
  3.09432E+03 -3.58132E+01  1.81698E+03  1.13755E+03  1.19626E+03  3.70231E+03 -1.07536E+03  3.30314E+03
 -2.44480E+03  3.36143E+03 -4.63485E+03 -9.47165E+02 -4.08963E+03 -3.32066E+03 -1.18353E+03 -5.16654E+03
  2.60879E+03 -5.86305E+03  5.20042E+03  1.11470E+02  6.91357E+03  2.18895E+03  3.39183E+03  3.74924E+03
  1.83528E+03  4.90593E+03 -2.32052E+03  3.90196E+03 -3.41466E+03  9.57069E+02 -2.32639E+03  3.35501E+02
 -1.28710E+03 -9.10005E+02 -4.45872E+02  2.17758E+03 -2.88949E+03 -3.64997E+01 -4.04774E+03  4.62572E+01
 -2.72639E+03 -2.93776E+03  7.59478E+02 -4.02959E+03  2.68835E+03 -4.47773E+03  3.81022E+03 -3.86877E+03
  4.23892E+03 -1.57647E+02  1.97640E+03  3.48240E+03 -1.97263E+03  5.00301E+03 -3.34063E+03  4.34950E+03
