 $NMID ID='MM_0lb_SNR200_18hz_g40_60.RAW', FMTDAT='(8E13.5)'
 TRAMP=1., VOLUME=1. $END
  3.09681E+05  2.63843E+02  3.38142E+05  2.51653E+05  8.52039E+04  3.37670E+05 -1.31967E+05  2.49567E+05
 -1.89717E+05  8.28646E+04 -1.11171E+05 -3.33212E+04  2.22154E+03 -5.03101E+04  5.42513E+04  1.06200E+03
  3.44208E+04  5.20394E+04 -1.64776E+04  7.47638E+04 -6.09250E+04  6.21761E+04 -8.32901E+04  3.13410E+04
 -7.75895E+04 -1.03998E+04 -5.78480E+04 -4.93578E+04 -1.46714E+04 -6.73209E+04  2.68211E+04 -4.37529E+04
  3.93879E+04  4.06259E+03  1.61567E+04  4.69608E+04 -3.34653E+04  4.57763E+04 -6.62677E+04 -2.02907E+02
 -5.16399E+04 -5.59942E+04 -5.48691E+03 -7.60668E+04  3.27673E+04 -5.38867E+04  4.66266E+04 -1.58320E+04
  4.16951E+04  1.16743E+04  3.08953E+04  2.41647E+04  1.49574E+04  2.84325E+04 -5.35521E+03  2.57167E+04
 -2.14418E+04  1.21414E+04 -1.89622E+04 -5.37689E+03  4.01214E+03 -8.39282E+03  2.12069E+04  1.06228E+04
  6.82578E+03  3.35422E+04 -3.12359E+04  3.26020E+04 -5.94163E+04  2.18504E+03 -5.54109E+04 -4.08328E+04
 -1.24937E+04 -6.04663E+04  3.85445E+04 -4.33453E+04  5.47812E+04 -2.13123E+03  3.24763E+04  2.97854E+04
 -7.39027E+03  3.25581E+04 -2.82961E+04  1.26731E+04 -2.82544E+04 -5.77323E+03 -1.47896E+04 -9.02866E+03
 -7.04157E+03 -1.12853E+04 -1.78242E+03 -1.69645E+04  6.70579E+03 -2.24071E+04  1.48762E+04 -1.41227E+04
  1.19860E+04  5.67286E+03 -6.31227E+03  1.31362E+04 -1.94419E+04 -2.60938E+03 -8.71637E+03 -2.97113E+04
  1.99687E+04 -4.06445E+04  4.45363E+04 -1.81270E+04  4.11944E+04  1.79048E+04  1.54832E+04  4.18951E+04
 -1.49838E+04  3.05442E+04 -2.42157E+04  9.84446E+02 -9.00095E+03 -2.53333E+04  2.08655E+04 -3.16492E+04
  3.79070E+04 -6.91225E+03  3.04289E+04  2.24023E+04  1.41687E+04  4.21784E+04 -7.82243E+03  4.46130E+04
 -2.90427E+04  2.90123E+04 -3.74312E+04  9.21117E+03 -3.85318E+04 -1.47261E+04 -2.18836E+04 -3.40467E+04
  7.17537E+03 -3.37931E+04  2.88759E+04 -1.30508E+04  2.67559E+04  1.01380E+04  2.70291E+03  1.76951E+04
 -1.28220E+04  7.85699E+03 -9.30970E+03 -8.38899E+03  5.85127E+03 -1.03393E+04  1.70927E+04  6.51359E+03
  1.21204E+04  2.25821E+04 -8.18106E+03  2.40589E+04 -2.16349E+04  9.71692E+03 -2.52675E+04 -6.55238E+03
 -1.63275E+04 -1.61872E+04 -5.26021E+03 -1.60020E+04  2.18205E+03 -1.41671E+04  1.23264E+04 -1.43970E+04
  2.13145E+04 -1.10138E+04  2.75843E+04  2.02664E+03  2.13330E+04  1.60042E+04  3.87849E+03  3.17444E+04
 -1.68819E+04  2.75778E+04 -2.57635E+04  8.73281E+03 -1.91964E+04 -9.99579E+03 -3.84844E+03 -1.44226E+04
  2.35848E+03 -4.67431E+03 -1.38250E+03  5.48683E+03 -1.30987E+04  2.98632E+03 -1.28321E+04 -3.69615E+03
 -8.30044E+03 -1.43390E+04  3.80225E+03 -1.95677E+04  1.14469E+04 -1.39407E+04  1.44016E+04 -7.32377E+02
  9.04668E+03  1.12332E+04 -8.46355E+01  1.63526E+04 -9.73676E+03  8.38498E+03 -1.55943E+04 -3.14436E+03
 -1.20646E+04 -1.38925E+04 -1.40124E+03 -1.90828E+04  7.73733E+03 -1.52904E+04  1.60983E+04 -7.30584E+03
  1.43987E+04 -6.07839E+02  1.07303E+04  4.42961E+03  4.14162E+03  1.20642E+03  7.07175E+03 -1.49101E+03
  1.36430E+04  2.39343E+03  1.48591E+04  1.27338E+04  8.54223E+03  2.37403E+04 -2.65544E+03  2.65010E+04
 -1.66157E+04  2.01356E+04 -2.43537E+04  9.72119E+03 -2.40124E+04 -1.91067E+03 -2.15994E+04 -1.50899E+04
 -1.01779E+04 -1.94586E+04  7.13648E+03 -1.84540E+04  1.69585E+04 -1.09807E+04  1.52258E+04  4.69975E+03
  5.94417E+03  1.07020E+04 -6.39169E+03  1.02158E+04 -1.41494E+04  2.56868E+03 -9.96938E+03 -7.42533E+03
  2.25010E+02 -1.28705E+04  5.96850E+03 -9.48435E+03  7.33947E+03 -1.80497E+03  1.95888E+03  5.74426E+03
 -6.00260E+03  1.17562E+03 -4.02832E+03 -4.72496E+03  1.09629E+03 -1.05710E+04  7.51237E+03 -9.23644E+03
  1.18302E+04 -3.81265E+03  1.24486E+04  2.36750E+03  1.02348E+04  9.52753E+03  4.63654E+03  1.38840E+04
 -1.39506E+03  1.68310E+04 -1.01620E+04  1.06839E+04 -1.11535E+04  2.65053E+03 -8.41849E+03 -1.20861E+03
 -5.03541E+03 -2.17338E+03 -2.41938E+02  1.67554E+03 -2.47140E+03  1.56379E+03 -2.68300E+03  2.95623E+03
 -7.72843E+03 -9.66074E+02 -8.59340E+03 -6.97422E+03 -3.99203E+03 -1.21534E+04  3.78476E+03 -8.92001E+03
  7.13365E+03 -3.14072E+03  4.04300E+03  1.41439E+03  5.96104E+00  3.23188E+03 -3.23067E+03  1.20096E+01
 -3.16007E+03 -5.57993E+03  2.74242E+02 -6.22140E+03  4.10378E+03 -8.20793E+03  1.06012E+04 -4.36913E+03
  1.21689E+04  3.14699E+02  9.49026E+03  6.99024E+03  2.03717E+03  9.25033E+03 -5.67009E+03  7.56429E+03
 -6.12898E+03  4.19389E+03 -3.69471E+03 -6.35571E+02  1.21216E+03 -1.81351E+03  4.74248E+03  1.52756E+02
  3.26592E+03  3.93459E+03  2.48833E+03  6.41009E+03 -5.44519E+03  7.72144E+03 -8.64170E+03  2.83197E+03
 -4.38896E+03 -2.57951E+03  2.57564E+02 -5.60767E+03  3.79426E+03 -3.48981E+03  5.31343E+03  1.73150E+03
  1.08394E+03  3.49167E+03 -3.42009E+03  4.40636E+03 -6.53814E+03  2.02391E+03 -4.96496E+03 -1.51383E+03
 -1.81213E+03 -5.85312E+03  1.71818E+03 -7.09562E+03  6.17446E+03 -4.20756E+03  6.06654E+03  2.62359E+02
  5.75407E+03  5.03461E+03  2.60784E+02  6.72530E+03 -5.22987E+03  3.88956E+03 -5.21797E+03 -1.30488E+03
 -6.01473E+03 -5.90401E+03 -1.23572E+03 -4.54176E+03  2.19854E+03 -4.07778E+03  1.84768E+03 -2.73142E+03
  3.92394E+03  1.01062E+03  1.18558E+03  1.26941E+03 -3.14998E+01  1.71596E+02 -1.02854E+03 -1.60895E+03
  4.18374E+03 -1.87578E+03  5.12775E+03  4.55572E+02  4.91400E+03  4.00858E+03  5.33652E+03  6.87228E+03
 -1.28835E+03  8.57400E+03 -8.14194E+03  6.46410E+03 -1.04234E+04  1.64711E+03 -7.65536E+03 -2.44690E+03
 -4.61773E+03 -6.43776E+03  3.09480E+02 -5.60857E+03  1.38343E+03 -3.02871E+03  2.51859E+03 -2.03538E+03
  1.38143E+03 -1.73728E+03  2.20186E+03 -1.63527E+03  4.40674E+03 -1.26048E+03  3.72013E+03  2.57123E+02
  4.59272E+03  1.89852E+03  1.98918E+03  3.34587E+03 -2.02830E+03  2.88045E+03 -3.69349E+03  2.93133E+03
 -3.82661E+03 -5.18915E+02 -2.14901E+03 -4.77887E+03  7.53445E+02 -5.30250E+03  2.89901E+03 -4.62828E+03
  5.46213E+03 -3.68081E+03  5.37320E+03 -3.07337E+02  5.63666E+03  4.35503E+03  3.52241E+02  5.85065E+03
 -3.40236E+03  5.76186E+03 -2.91946E+03  1.42359E+03 -1.35352E+03 -1.37538E+03  3.88565E+02 -8.46000E+02
 -6.72080E+01  6.29100E+02 -1.02704E+03  1.61847E+03 -2.94061E+03  9.23395E+02 -4.01459E+03 -1.61217E+03
 -1.76774E+03 -4.58591E+03  5.06781E+02 -4.41262E+03  2.96768E+03 -4.42759E+03  4.23127E+03 -1.67211E+03
  3.70353E+03  2.63469E+03  2.16947E+03  3.66599E+03 -1.93928E+03  3.62581E+03 -2.00392E+03  3.07999E+03
 -2.74195E+03  6.55183E+02 -2.63916E+03 -2.84607E+03 -1.08616E+03 -3.62290E+03  2.07956E+03 -2.54506E+03
  3.18343E+03 -1.34717E+03  1.17759E+03  8.66391E+02  6.43133E+02  2.36442E+03  6.15134E+02 -7.01548E+02
  9.62915E+02  1.32512E+03  1.63278E+03  1.17683E+03  1.68485E+03  1.89846E+03  2.18550E+03  1.44120E+03
 -1.33226E+03  2.66205E+03 -2.71061E+03  4.08330E+03 -3.06849E+03  9.82537E+02 -4.04110E+03 -7.09180E+02
 -1.67222E+03 -4.48860E+03  1.51796E+03 -4.52944E+03  1.15677E+03 -2.70743E+03  2.78220E+03 -1.31486E+03
  2.65669E+03  2.19530E+03 -1.56183E+02  2.45438E+03 -1.20169E+03  2.27391E+03 -5.02384E+02 -6.64192E+01
 -1.72727E+03 -1.77686E+03  1.38415E+03 -1.37592E+03  1.13289E+03 -1.48959E+03  8.98004E+02  9.32033E+01
  1.33248E+03  2.60236E+02  1.29293E+03 -6.24232E+02  5.83036E+02 -3.33737E+02  1.60263E+03  1.71840E+03
  1.58912E+01 -6.29348E+02  2.04978E+03  8.55067E+02 -2.61544E+02  2.72448E+03 -5.30584E+02  2.56491E+03
 -1.47326E+03  5.46084E+02 -1.58772E+03  3.09753E+02 -2.20593E+03 -9.74819E+02  1.11687E+02 -1.75347E+03
  7.74061E+02 -1.36391E+03  9.15858E+02 -8.41308E+02  1.80515E+03  9.49235E+02 -1.14010E+03  1.40448E+03
 -1.39023E+03  7.29209E+02 -2.00003E+03 -1.10703E+03 -1.91423E+03 -2.51742E+03 -4.01679E+02 -1.97788E+03
  9.71778E+02 -1.75816E+03  5.25145E+02 -1.87305E+02  1.98710E+03 -1.42465E+02 -5.11210E+02  6.43356E+02
 -1.65652E+03 -2.91345E+02 -1.58517E+03  2.27898E+02  7.69161E+01 -8.00481E+02  2.47286E+03 -1.03751E+02
  2.36226E+03  9.26656E+02  2.20914E+03  4.97030E+02  5.85359E+02  1.78552E+03 -1.10893E+03  1.47868E+03
 -9.53594E+02  4.38232E+02 -2.39995E+03 -2.25136E+02 -1.80614E+03 -2.56417E+03  1.13311E+02 -1.37770E+03
  2.38532E+03 -2.88333E+02  8.96211E+02  1.19163E+02  7.54964E+02  1.14939E+03  8.39291E+02  1.59728E+03
 -3.58838E+02  9.21005E+02 -7.97348E+02  8.65619E+02 -5.80099E+02  4.02083E+02 -4.28746E+02  6.75314E+01
  1.24886E+02  1.68041E+03 -2.28797E+03  1.34279E+02 -2.65225E+03  2.22693E+02 -3.07400E+03 -1.48592E+03
 -9.96649E+02 -1.89929E+03  8.97771E+02 -2.47783E+03  6.18668E+02 -2.75811E+03  2.79642E+03 -2.22173E+03
  2.05148E+03 -7.87566E+01  9.51065E+02  1.82366E+03 -1.45676E+03  1.51583E+03 -3.47699E+02  1.28168E+03
 -1.50325E+03  1.22944E+03 -6.44674E+02 -7.04016E+02 -1.04214E+03  8.93912E+02 -9.94505E+02 -8.46711E+02
 -1.67662E+03  3.18099E+02 -1.65664E+03  6.33208E+02  5.97931E+02 -6.06673E+02 -9.51193E+02 -6.80497E+02
  1.74253E+03  3.84611E+02  1.22267E+03  5.10446E+02  1.68491E+03  6.75726E+02 -5.96476E+02  2.74649E+03
 -1.59322E+03  3.69945E+03 -1.22742E+03  1.88484E+03 -1.79657E+03  2.64226E+02 -3.92041E+02 -1.45609E+03
 -1.06382E+02 -1.27964E+03  7.19542E+01 -1.73502E+03  9.46539E+01  2.05339E+02  4.86327E+02  1.26871E+03
  4.10231E+02 -7.91887E+02 -4.42524E+02 -8.95936E+02 -2.80958E+02  1.06963E+03 -4.97114E+02 -3.09093E+02
  1.02220E+03 -2.57050E+02  1.25053E+03  1.49099E+03  4.84439E+02  4.85280E+02  8.87052E+02  1.46923E+03
 -2.23815E+03  1.95568E+02 -8.45515E+02 -2.79612E+02 -1.29900E+03 -1.02440E+03 -7.20894E+02 -1.03082E+03
  1.07597E+03 -1.68208E+03  6.78093E+02  2.48534E+02  1.83531E+03  7.70417E+02 -7.43234E+02 -8.57993E+01
 -1.14363E+03  4.97917E+02 -4.08895E+02  5.16997E+02 -1.39004E+03  9.04186E+02 -1.12657E+03  1.17826E+02
 -3.75856E+02 -1.62420E+01  1.16841E+02 -1.70440E+02 -7.52904E+02  7.23260E+02 -5.07754E+02 -1.03706E+03
 -7.08002E+02  2.61340E+02 -2.59418E+01 -2.28242E+02  1.41990E+02 -3.05020E+03  8.91907E+02 -6.11598E+02
  9.42028E+02  7.24019E+02  9.20078E+02 -2.49893E+02 -8.55452E+02  1.88473E+03 -8.10181E+02  9.38593E+02
