 $NMID ID='MM_0lb_SNR200_11hz_g60_70.RAW', FMTDAT='(8E13.5)'
 TRAMP=1., VOLUME=1. $END
  3.10032E+05  6.60001E+02  3.38238E+05  2.52017E+05  8.31073E+04  3.38681E+05 -1.32463E+05  2.49750E+05
 -1.90955E+05  8.48690E+04 -1.13356E+05 -3.10171E+04 -2.44990E+02 -5.00580E+04  5.32742E+04  6.73060E+02
  3.43681E+04  5.29518E+04 -1.65652E+04  7.60560E+04 -6.09348E+04  6.30340E+04 -8.43674E+04  3.28542E+04
 -8.38470E+04 -1.06711E+04 -5.56968E+04 -5.19832E+04 -1.60334E+04 -7.14332E+04  2.85118E+04 -4.69681E+04
  4.24995E+04  3.74606E+03  1.76023E+04  4.89592E+04 -3.40589E+04  4.82338E+04 -6.84311E+04  4.48171E+02
 -5.43202E+04 -5.83570E+04 -6.72906E+03 -7.95897E+04  3.47095E+04 -5.60643E+04  5.11723E+04 -1.73703E+04
  4.60022E+04  1.19569E+04  3.17133E+04  2.65533E+04  1.51717E+04  3.07672E+04 -5.82027E+03  2.75395E+04
 -2.24457E+04  1.21868E+04 -1.71119E+04 -7.25193E+03  5.81075E+03 -6.86008E+03  2.35363E+04  1.18955E+04
  6.62535E+03  3.71685E+04 -3.36342E+04  3.70628E+04 -6.53136E+04  1.83538E+03 -5.77316E+04 -4.54465E+04
 -1.34947E+04 -6.42911E+04  4.10065E+04 -4.74445E+04  6.07889E+04 -2.22854E+03  3.62881E+04  3.28611E+04
 -5.64052E+03  4.03955E+04 -3.10136E+04  1.77262E+04 -3.11736E+04 -2.90358E+03 -2.05474E+04 -1.23141E+04
 -8.73211E+03 -1.68670E+04 -3.83029E+02 -1.91148E+04  8.35153E+03 -2.25599E+04  1.54110E+04 -1.24261E+04
  1.03788E+04  6.83364E+03 -7.75456E+03  1.31658E+04 -2.20713E+04 -7.31329E+03 -8.30230E+03 -3.72863E+04
  2.39748E+04 -4.59466E+04  5.21688E+04 -2.15131E+04  4.67000E+04  1.99709E+04  1.78462E+04  4.65423E+04
 -1.71612E+04  3.62742E+04 -2.91012E+04  2.36296E+03 -1.19521E+04 -2.99832E+04  2.08954E+04 -3.70397E+04
  4.35785E+04 -1.13969E+04  4.02018E+04  2.49721E+04  2.12139E+04  5.07332E+04 -1.01449E+04  5.50865E+04
 -3.46181E+04  3.77959E+04 -4.71762E+04  1.02116E+04 -4.60780E+04 -1.73594E+04 -2.60271E+04 -4.09695E+04
  7.37241E+03 -4.21761E+04  3.49568E+04 -1.72687E+04  3.23929E+04  1.15303E+04  5.04534E+03  2.12194E+04
 -1.36602E+04  9.83451E+03 -1.11555E+04 -7.61564E+03  5.12892E+03 -1.08750E+04  1.83256E+04  6.07596E+03
  1.43945E+04  2.16597E+04 -6.29610E+03  2.70078E+04 -2.23552E+04  1.48942E+04 -3.26294E+04 -3.59390E+03
 -2.56530E+04 -1.90640E+04 -1.18051E+04 -2.37466E+04  4.71086E+03 -2.32713E+04  1.88284E+04 -2.25320E+04
  3.13517E+04 -1.39051E+04  3.67580E+04  3.52996E+03  2.60491E+04  2.39481E+04  3.50326E+03  4.01133E+04
 -1.94551E+04  3.37575E+04 -3.05060E+04  1.15065E+04 -2.20142E+04 -9.41327E+03 -6.82829E+03 -1.18623E+04
  7.44139E+00 -1.92961E+03 -7.48919E+03  9.24765E+03 -1.90703E+04  6.97703E+03 -1.92757E+04 -1.07302E+04
 -1.16221E+04 -2.23606E+04  6.19841E+03 -2.71437E+04  1.78048E+04 -1.91977E+04  2.21975E+04 -2.36301E+03
  1.36504E+04  1.55179E+04 -1.04861E+03  2.44614E+04 -1.68250E+04  1.29559E+04 -2.32346E+04 -5.68978E+03
 -1.65188E+04 -1.92010E+04 -1.65718E+03 -2.68609E+04  1.28393E+04 -2.18966E+04  2.31691E+04 -1.14541E+04
  1.97706E+04 -3.31551E+02  1.51102E+04  4.40874E+03  8.29157E+03  1.50239E+03  1.20430E+04 -1.13125E+03
  2.18130E+04  3.36091E+03  2.39596E+04  1.77427E+04  1.54645E+04  3.79324E+04 -1.72406E+03  4.24904E+04
 -2.39990E+04  3.56387E+04 -3.97715E+04  1.85344E+04 -4.22223E+04 -2.87468E+03 -3.50008E+04 -2.52833E+04
 -1.25413E+04 -3.48044E+04  1.29980E+04 -3.07810E+04  2.63261E+04 -1.41928E+04  2.35119E+04  6.19620E+03
  9.39529E+03  1.80603E+04 -9.42392E+03  1.43689E+04 -1.95552E+04  1.93530E+03 -1.41980E+04 -1.17342E+04
  1.16132E+03 -1.80679E+04  9.70305E+03 -1.25992E+04  1.25416E+04 -1.72631E+03  4.70765E+03  9.11296E+03
 -9.75475E+03  4.31169E+03 -7.57491E+03 -7.32974E+03 -9.40244E+02 -1.76829E+04  1.22758E+04 -1.88810E+04
  2.23795E+04 -1.12752E+04  2.38870E+04  4.37493E+03  2.14918E+04  1.76870E+04  1.01861E+04  2.75470E+04
 -5.62486E+03  2.95988E+04 -1.89092E+04  1.81442E+04 -2.07733E+04  4.02546E+03 -1.54187E+04 -4.20858E+03
 -6.92464E+03 -7.06952E+03 -1.39030E+03  2.87122E+02 -2.58651E+03  3.84310E+03 -7.64865E+03  4.54329E+03
 -1.37451E+04  5.38788E+02 -1.51046E+04 -1.24975E+04 -5.47369E+03 -1.77558E+04  5.09821E+03 -1.47939E+04
  1.11107E+04 -4.60960E+03  9.60445E+03  4.55544E+03 -6.68312E+02  6.63394E+03 -5.25328E+03  1.00613E+02
 -7.70566E+03 -9.43636E+03 -1.83915E+03 -1.41168E+04  7.21568E+03 -1.38457E+04  1.90271E+04 -7.35109E+03
  2.26836E+04  2.88306E+03  1.58389E+04  1.27301E+04  1.39492E+03  1.66103E+04 -8.43846E+03  1.57635E+04
 -1.27093E+04  3.19637E+03 -6.51058E+03 -3.23436E+03  2.47878E+03 -4.57965E+03  8.87992E+03 -1.16188E+03
  6.58007E+03  7.14758E+03  9.69702E+02  1.02512E+04 -7.87651E+03  1.06191E+04 -1.39284E+04  1.51518E+03
 -9.01288E+03 -7.40988E+03  4.29536E+02 -1.26083E+04  8.56471E+03 -7.13818E+03  7.37430E+03  2.56475E+03
  1.24334E+03  7.44150E+03 -8.49329E+03  1.08156E+04 -1.18758E+04  5.31051E+03 -1.37759E+04 -3.76036E+03
 -7.67497E+03 -1.35091E+04  4.22038E+03 -1.75590E+04  1.35854E+04 -9.94965E+03  1.47568E+04  1.33259E+03
  8.41917E+03  1.13219E+04 -1.68595E+03  1.58022E+04 -8.69512E+03  8.47264E+03 -9.93842E+03 -9.60419E+02
 -9.12453E+03 -9.12734E+03 -2.60191E+03 -1.24932E+04  7.00489E+03 -9.32354E+03  8.73150E+03 -3.11082E+03
  3.78538E+03  1.76821E+03 -2.01604E+02  1.58517E+03 -1.96705E+02 -2.67688E+03  2.14375E+03 -7.02076E+03
  1.01172E+04 -4.85499E+03  1.53146E+04  1.45327E+03  1.40741E+04  9.61963E+03  8.68462E+03  1.96002E+04
 -4.80110E+03  2.10819E+04 -1.94437E+04  1.47427E+04 -2.32377E+04  3.89153E+03 -1.87056E+04 -8.48508E+03
 -1.00765E+04 -1.43421E+04 -1.17096E+03 -1.19343E+04  4.30480E+03 -7.18641E+03  5.90369E+03 -4.92257E+03
  4.28013E+03 -3.24656E+03  4.38353E+03 -2.94762E+03  4.92636E+03 -3.50659E+03  5.26397E+03 -5.21598E+02
  9.66315E+03  1.93893E+03  3.94228E+03  9.79767E+03 -3.05809E+03  1.03908E+04 -1.03703E+04  5.58380E+03
 -1.33869E+04 -1.23767E+03 -6.94258E+03 -1.03168E+04 -1.08340E+03 -1.52196E+04  6.06265E+03 -1.34541E+04
  1.45290E+04 -9.15785E+03  1.58168E+04  1.07059E+03  1.14477E+04  1.14610E+04  2.02286E+03  1.60046E+04
 -8.13103E+03  1.30121E+04 -9.87008E+03  5.71427E+03 -5.62761E+03 -1.00723E+03 -3.12528E+03 -5.24166E+02
 -7.31664E+02  5.45027E+02 -1.69973E+03  3.17384E+03 -5.38121E+03  2.44884E+03 -9.22081E+03 -1.08091E+02
 -6.10866E+03 -9.40951E+03  5.29972E+02 -1.24204E+04  7.60531E+03 -1.16165E+04  1.14169E+04 -2.91559E+03
  1.11433E+04  5.46782E+03  4.62365E+03  1.01812E+04 -2.37479E+03  1.25562E+04 -8.96791E+03  7.84234E+03
 -1.17292E+04  8.58205E+02 -8.83528E+03 -6.17773E+03  2.46149E+02 -9.97359E+03  4.26444E+03 -6.80702E+03
  9.37710E+03 -2.30332E+03  6.17984E+03  2.60089E+03  1.93402E+03  3.63127E+03  9.13400E+02  3.26227E+03
  2.13247E+03  4.28627E+02  2.30234E+03  1.11539E+03  3.13278E+03  5.83350E+03  2.48539E+03  6.21157E+03
 -4.13231E+03  8.81159E+03 -8.77339E+03  8.93291E+03 -1.17638E+04  2.82879E+03 -1.23779E+04 -4.78395E+03
 -5.44520E+03 -1.30595E+04  2.21161E+03 -1.37144E+04  9.25085E+03 -7.13397E+03  1.23626E+04 -1.84564E+03
  8.04930E+03  5.27439E+03  2.24305E+03  6.42056E+03 -2.06875E+03  3.96224E+03 -5.77884E+03 -2.94259E+02
 -2.53562E+03 -5.33097E+03  3.21189E+03 -6.14737E+03  5.73498E+03 -1.10516E+03  4.70915E+03 -3.91975E+02
  3.93709E+03  1.96397E+03  7.41887E+02  9.91858E+02 -1.17794E+03  1.52717E+03  8.58720E+02  3.35690E+01
  2.09274E+03  4.51659E+02  5.93789E+03  1.76958E+03  2.09893E+03  5.48090E+03 -4.78534E+02  7.96789E+03
 -6.22126E+03  6.39047E+03 -6.84436E+03  3.38279E+03 -7.63251E+03 -2.47210E+03 -3.33943E+03 -5.10903E+03
 -6.71396E+00 -4.48223E+03  3.62798E+03 -1.04707E+03  2.40366E+03  1.55140E+03 -1.03002E+03  4.75924E+03
 -4.81495E+03  2.45084E+03 -5.04257E+03 -2.69467E+03 -3.95778E+03 -7.75141E+03 -1.79783E+02 -6.04780E+03
  3.87016E+03 -3.68434E+03  4.97070E+03 -1.28508E+03  3.42972E+03  1.45643E+03  1.98357E+02  2.38355E+03
 -2.23513E+03  4.10368E+02 -2.29485E+03 -2.39357E+03  3.08212E+02 -4.91186E+03  5.19091E+03 -4.03823E+03
  8.57380E+03 -6.45549E+02  7.32310E+03  5.12821E+03  1.55180E+03  8.24360E+03 -4.20555E+03  8.06611E+03
 -6.35840E+03  3.26977E+03 -7.82572E+03 -1.19540E+03 -4.69442E+03 -6.08058E+03  9.54541E+02 -4.76381E+03
  5.83064E+03 -1.84482E+03  3.73010E+03  2.90265E+03  1.16909E+03  4.87740E+03 -1.58248E+02  3.57375E+03
 -2.63515E+03  3.50387E+03 -1.95111E+03 -7.62177E+02 -3.44057E+02  5.37173E+02  2.07297E+02  1.76888E+03
 -1.84167E+03  2.22068E+03 -5.47971E+03  2.87530E+03 -7.80440E+03 -8.29244E+02 -8.86376E+03 -4.91735E+03
 -5.23620E+03 -1.18886E+04  1.89527E+03 -1.13138E+04  8.07448E+03 -9.13177E+03  1.10481E+04 -2.95415E+03
  9.55649E+03  2.04472E+03  5.65598E+03  6.99553E+03 -2.16585E+03  9.64716E+03 -4.82769E+03  4.99822E+03
 -4.92399E+03  2.80201E+03 -2.82562E+03 -5.11423E+02 -8.27625E+02 -9.89108E+02 -1.18183E+03 -1.54535E+03
 -5.37356E+02 -8.02539E+02 -1.70839E+03 -1.65066E+03 -3.25038E+02 -4.28261E+03  1.36689E+03 -2.96589E+03
  3.60922E+03 -2.12207E+03  4.51723E+03  2.90657E+02  5.46837E+03  5.41456E+03 -2.29311E+01  8.17488E+03
 -4.53787E+03  9.44248E+03 -9.32908E+03  5.81980E+03 -1.02987E+04  1.22604E+02 -7.24815E+03 -6.87842E+03
 -2.43552E+03 -7.78861E+03  2.42259E+03 -7.52212E+03  5.34511E+03 -3.64446E+03  5.08815E+03  3.69243E+02
  3.24132E+03  1.58329E+03 -6.72522E+02  1.91079E+03 -4.57593E+02  1.90600E+02 -5.63154E+02 -1.77498E+03
  3.65180E+03 -4.31299E+02  2.89714E+03  1.65307E+03  1.48160E+03  2.64505E+03  6.74747E+02  4.49678E+03
 -3.90704E+03  4.19966E+03 -5.02478E+03  1.75852E+03 -4.45700E+03 -3.56571E+03 -1.79647E+03 -6.59980E+03
  2.67873E+03 -6.17702E+03  5.89104E+03 -1.26023E+03  5.80599E+03 -1.35091E+02  4.08201E+03  3.74814E+03
  2.04352E+02  3.70843E+03 -2.25395E+03  2.72189E+03 -4.79400E+03  3.73663E+03 -2.62703E+03 -6.90784E+02
 -1.06834E+03  3.97975E+02 -2.28101E+03  9.52248E+02 -3.44109E+03 -3.34862E+02 -3.51250E+03 -1.07379E+03
 -3.67533E+03 -2.36583E+03 -9.24247E+02 -4.27769E+03  2.12667E+03 -5.44618E+03  3.98585E+03 -3.31232E+03
  4.57441E+03  8.32871E+02  2.63111E+03  1.42676E+03  6.03046E+01  6.48240E+03 -4.55942E+03  3.91175E+03
