 $NMID ID='MM_0lb_SNR200_10hz_g55_10.RAW', FMTDAT='(8E13.5)'
 TRAMP=1., VOLUME=1. $END
  3.09052E+05 -3.49049E+02  3.37802E+05  2.50485E+05  8.39440E+04  3.38999E+05 -1.33589E+05  2.51433E+05
 -1.91303E+05  8.45459E+04 -1.12742E+05 -3.20714E+04 -2.35620E+02 -5.01245E+04  5.36045E+04 -1.37080E+03
  3.65380E+04  5.27286E+04 -1.57144E+04  7.74377E+04 -6.08778E+04  6.38479E+04 -8.56042E+04  3.20425E+04
 -8.32010E+04 -1.28457E+04 -5.86845E+04 -5.34159E+04 -1.45566E+04 -7.07971E+04  2.82030E+04 -4.82134E+04
  4.12355E+04  3.79443E+03  1.68987E+04  4.81541E+04 -3.39355E+04  4.83098E+04 -6.80048E+04  1.56111E+02
 -5.37973E+04 -5.72284E+04 -7.55314E+03 -7.82764E+04  3.51628E+04 -5.57075E+04  5.19188E+04 -1.83337E+04
  4.46733E+04  1.30365E+04  3.15999E+04  2.74211E+04  1.59445E+04  3.12365E+04 -5.58174E+03  2.66535E+04
 -2.20579E+04  1.00108E+04 -1.87258E+04 -8.21915E+03  7.92717E+03 -8.73888E+03  2.50759E+04  1.34625E+04
  5.79090E+03  3.65651E+04 -3.34300E+04  3.64028E+04 -6.42316E+04  8.86076E+02 -5.92242E+04 -4.37957E+04
 -1.19566E+04 -6.43048E+04  4.08456E+04 -4.77163E+04  6.07342E+04 -2.59573E+03  3.68450E+04  3.42112E+04
 -4.71251E+03  3.82915E+04 -3.24359E+04  1.90702E+04 -3.26556E+04 -4.19142E+03 -2.00457E+04 -1.16115E+04
 -8.76645E+03 -1.50242E+04 -8.87628E+02 -1.90053E+04  1.01983E+04 -2.38167E+04  1.49689E+04 -1.07433E+04
  1.13234E+04  6.53258E+03 -1.05659E+04  1.31165E+04 -2.37364E+04 -7.21536E+03 -9.44649E+03 -3.81142E+04
  2.55783E+04 -4.61648E+04  5.22425E+04 -2.10943E+04  4.94446E+04  2.29059E+04  1.75038E+04  4.64038E+04
 -1.64876E+04  3.57981E+04 -2.64083E+04  3.87903E+03 -1.09275E+04 -2.78227E+04  2.10727E+04 -3.62381E+04
  4.30100E+04 -9.49047E+03  4.04922E+04  2.41141E+04  2.12642E+04  5.15939E+04 -9.51223E+03  5.52617E+04
 -3.64239E+04  3.72925E+04 -4.80855E+04  1.07974E+04 -4.74973E+04 -1.67311E+04 -2.48191E+04 -4.20052E+04
  8.28413E+03 -4.27168E+04  3.34095E+04 -1.66319E+04  3.17355E+04  1.16743E+04  5.33486E+03  2.04387E+04
 -1.55046E+04  9.71116E+03 -1.01522E+04 -7.70307E+03  5.55992E+03 -1.18165E+04  1.97068E+04  4.59122E+03
  1.46019E+04  2.10853E+04 -6.54408E+03  2.81136E+04 -2.35222E+04  1.42559E+04 -3.16511E+04 -4.09316E+03
 -2.58424E+04 -1.76149E+04 -1.19775E+04 -2.48246E+04  4.60447E+03 -2.65739E+04  2.00127E+04 -2.22958E+04
  3.04302E+04 -1.26063E+04  3.76551E+04  4.94104E+03  2.69258E+04  2.37030E+04  5.30732E+03  3.98748E+04
 -1.99218E+04  3.36288E+04 -2.95867E+04  1.07040E+04 -2.18473E+04 -9.01192E+03 -5.50333E+03 -1.18924E+04
  1.11311E+03 -1.41071E+03 -6.78331E+03  8.57627E+03 -1.93733E+04  4.95743E+03 -2.03909E+04 -8.99025E+03
 -1.08336E+04 -2.23487E+04  6.82897E+03 -2.74489E+04  1.89295E+04 -2.03999E+04  2.24754E+04 -2.85901E+03
  1.44554E+04  1.45185E+04 -1.92540E+03  2.21476E+04 -1.74969E+04  1.24433E+04 -2.26281E+04 -4.78767E+03
 -1.67889E+04 -2.10457E+04 -2.95786E+03 -2.84287E+04  1.43026E+04 -2.34330E+04  2.26265E+04 -1.18974E+04
  2.12460E+04 -4.18551E+01  1.62521E+04  5.85836E+03  7.52847E+03  1.82635E+03  1.31871E+04 -1.59465E+03
  2.35106E+04  2.66589E+03  2.53360E+04  1.61341E+04  1.76011E+04  3.58165E+04 -2.52306E+03  4.25376E+04
 -2.46675E+04  3.64374E+04 -4.03849E+04  1.90619E+04 -4.17196E+04 -4.42898E+03 -3.48640E+04 -2.48188E+04
 -1.41134E+04 -3.62774E+04  1.28938E+04 -3.29160E+04  2.54189E+04 -1.55702E+04  2.31120E+04  6.35204E+03
  7.49805E+03  1.78515E+04 -9.91853E+03  1.41428E+04 -2.00911E+04  3.28383E+03 -1.40418E+04 -1.23287E+04
  6.22660E+02 -1.95904E+04  9.61255E+03 -1.37547E+04  1.44445E+04 -2.00076E+03  3.84028E+03  7.28558E+03
 -9.11136E+03  4.49292E+03 -8.19241E+03 -6.92660E+03 -2.93879E+03 -1.85818E+04  1.17856E+04 -1.88338E+04
  2.29841E+04 -1.02180E+04  2.45433E+04  5.65070E+03  2.21713E+04  1.71909E+04  1.16237E+04  2.64626E+04
 -4.24510E+03  2.98563E+04 -2.03135E+04  1.95369E+04 -2.16721E+04  4.35206E+03 -1.47761E+04 -7.14221E+03
 -5.61125E+03 -7.09882E+03 -1.91602E+03 -9.26725E+02 -8.63029E+02  3.27644E+03 -6.48918E+03  4.29531E+03
 -1.39904E+04 -5.32198E+02 -1.42262E+04 -1.11952E+04 -6.50244E+03 -1.79059E+04  5.29440E+03 -1.48289E+04
  1.32473E+04 -8.25440E+03  9.19252E+03  3.69806E+03 -9.30748E+02  5.74976E+03 -8.69075E+03  2.00612E+02
 -7.26709E+03 -1.03500E+04 -2.37947E+03 -1.53725E+04  8.95002E+03 -1.54570E+04  1.96421E+04 -9.27784E+03
  2.25991E+04  2.77094E+03  1.58921E+04  1.32521E+04  2.41685E+03  1.98898E+04 -1.06607E+04  1.58139E+04
 -1.15059E+04  4.73963E+03 -6.49112E+03 -3.17694E+03  1.52434E+03 -3.51956E+03  7.88452E+03 -1.17518E+03
  8.01510E+03  7.43753E+03  1.14922E+03  1.13547E+04 -8.72516E+03  1.22179E+04 -1.48472E+04  2.68460E+03
 -1.07832E+04 -8.87065E+03  3.67515E+02 -1.31490E+04  7.16155E+03 -7.37086E+03  8.74283E+03  3.44661E+03
  3.16320E+03  9.29951E+03 -8.16223E+03  1.06195E+04 -1.18295E+04  4.19229E+03 -1.50310E+04 -3.65053E+03
 -8.03960E+03 -1.68614E+04  4.69687E+03 -1.68925E+04  1.21881E+04 -1.07600E+04  1.57327E+04  2.80496E+03
  9.19545E+03  1.21539E+04 -1.64772E+03  1.51298E+04 -1.07670E+04  9.09821E+03 -1.32846E+04 -4.54996E+02
 -1.06178E+04 -1.09780E+04 -2.57908E+03 -1.15144E+04  5.80348E+03 -1.04511E+04  6.33613E+03 -2.59909E+03
  4.56992E+03  1.54129E+03 -9.83294E+02  8.92865E+02 -4.11793E+02 -2.92003E+03  2.68862E+03 -6.79566E+03
  1.10315E+04 -4.70093E+03  1.64154E+04  2.24853E+03  1.59132E+04  1.15339E+04  1.00349E+04  2.03375E+04
 -3.97094E+03  2.16571E+04 -1.89308E+04  1.57795E+04 -2.35954E+04  2.14549E+03 -1.87648E+04 -7.89733E+03
 -8.48833E+03 -1.68199E+04  9.78644E+02 -1.39510E+04  3.96506E+03 -8.10042E+03  5.93370E+03 -4.07550E+03
  2.96549E+03 -2.86287E+03  2.45001E+03 -3.99393E+03  6.00187E+03 -3.88533E+03  7.34161E+03 -7.47150E+02
  9.82234E+03  2.20231E+03  5.44555E+03  1.00590E+04 -1.43045E+03  1.06508E+04 -1.15285E+04  7.53307E+03
 -1.50473E+04 -3.72838E+03 -8.96119E+03 -8.48602E+03 -1.37581E+03 -1.47828E+04  9.95859E+03 -1.34901E+04
  1.62677E+04 -8.80322E+03  1.69564E+04  2.65642E+03  1.27530E+04  1.37108E+04  2.67970E+03  1.56757E+04
 -6.05256E+03  1.52936E+04 -1.06346E+04  5.18360E+03 -6.59583E+03 -1.85086E+03 -4.28735E+03 -1.56412E+03
 -2.93189E+03 -1.19990E+03 -3.71333E+03  1.52354E+03 -5.93167E+03  1.77641E+03 -9.51621E+03 -9.40238E+02
 -7.66240E+03 -9.34051E+03 -4.80421E+02 -1.47880E+04  8.73809E+03 -1.25686E+04  1.34121E+04 -6.11304E+03
  1.34917E+04  6.12309E+03  6.74197E+03  1.31650E+04 -2.70653E+03  1.45409E+04 -8.83103E+03  8.04638E+03
 -1.38719E+04 -3.37728E+02 -9.75336E+03 -8.57884E+03 -1.52163E+03 -1.08185E+04  5.80256E+03 -7.96769E+03
  7.38163E+03 -2.56056E+03  7.03320E+03  3.85909E+03  2.66918E+03  3.83219E+03  1.15639E+03  1.48941E+03
  2.90698E+03  1.32983E+03  2.28189E+03  2.73597E+03  4.13742E+03  4.41226E+03  2.61592E+03  7.18406E+03
 -3.20197E+03  1.14080E+04 -9.38914E+03  1.14193E+04 -1.25423E+04  2.81649E+03 -1.54311E+04 -6.95467E+03
 -7.06337E+03 -1.22657E+04  3.71648E+03 -1.58018E+04  8.08591E+03 -9.50343E+03  1.00018E+04 -1.98977E+03
  9.71705E+03  3.38720E+03  2.52498E+03  8.63399E+03 -3.85916E+03  3.91564E+03 -6.03956E+03 -2.33490E+03
 -1.31748E+03 -6.23237E+03  3.41693E+03 -5.25239E+03  6.21501E+03 -3.65454E+03  5.04620E+03  2.61882E+03
  3.61832E+03  3.64460E+03  1.53983E+03  3.63149E+03 -3.90480E+02  2.20953E+03  7.07915E+02  4.22013E+02
  3.42803E+03 -4.33988E+02  5.01544E+03  2.77913E+03  3.96751E+03  9.07554E+03 -1.95295E+03  1.03361E+04
 -6.13285E+03  6.13008E+03 -9.22966E+03  2.75492E+03 -7.33133E+03 -3.19778E+03 -4.82801E+03 -3.81470E+03
  6.72349E+02 -7.09556E+03  1.53410E+03 -3.31373E+03  2.70891E+03  1.65071E+03 -2.13151E+03  6.38147E+03
 -6.59182E+03  2.39901E+03 -6.44513E+03 -3.52782E+03 -4.64161E+03 -7.28729E+03  1.50221E+03 -8.52707E+03
  4.12224E+03 -5.08638E+03  4.29009E+03 -3.15479E+02  5.44214E+03  2.06993E+03  2.24257E+03  4.80983E+03
 -4.08805E+03  9.26492E+02 -4.27340E+03 -3.40703E+03  6.70350E+02 -6.12628E+03  6.79150E+03 -5.22528E+03
  8.88860E+03  1.28907E+03  7.59409E+03  4.78189E+03  4.24990E+03  9.13359E+03 -2.24925E+03  7.54508E+03
 -7.17654E+03  1.97385E+03 -6.44663E+03 -1.07287E+03 -3.72838E+03 -6.68951E+03 -1.50202E+02 -5.98429E+03
  7.21301E+03 -2.07010E+03  5.22859E+03  2.47826E+03  2.84316E+03  4.41471E+03 -6.89969E+02  5.51775E+03
 -2.54946E+03  4.81069E+03 -2.42923E+03  6.91177E+01 -8.74059E+02 -8.22705E+01 -4.00135E+02  2.79185E+03
 -2.58071E+03  2.46759E+03 -6.85636E+03  1.33950E+03 -9.77895E+03 -6.06421E+02 -1.19847E+04 -4.56110E+03
 -5.37600E+03 -1.20114E+04  2.42495E+03 -1.36315E+04  8.52011E+03 -9.48485E+03  1.13103E+04 -3.50628E+03
  1.28766E+04  2.12822E+03  8.01777E+03  8.83654E+03  9.25762E+02  8.76235E+03 -3.89602E+03  6.74970E+03
 -4.86815E+03  1.18258E+03 -2.83880E+03 -8.60620E+02 -1.52864E+03 -1.95151E+02 -1.74789E+03 -1.41119E+03
 -1.28808E+03  8.77035E+02 -2.19515E+03 -1.12799E+03 -7.87041E+01 -9.09977E+02 -2.18407E+02 -4.14000E+03
  3.98731E+03 -3.88468E+03  6.08116E+03  7.89622E+02  6.72144E+03  4.00642E+03  9.37135E+02  7.64530E+03
 -4.40582E+03  1.10095E+04 -9.01689E+03  5.14586E+03 -1.10059E+04 -7.80220E+02 -7.76936E+03 -7.58041E+03
 -4.52726E+03 -1.02494E+04  2.14501E+03 -8.63735E+03  7.43938E+03 -3.76406E+03  5.29367E+03  3.23466E+02
  3.61614E+03  2.24890E+03  2.67187E+03  4.22841E+03 -1.71672E+03  2.24052E+02 -2.92478E+02 -1.92015E+03
  2.82156E+03 -1.10327E+03  3.95714E+03  9.21970E+02  3.29818E+03  3.68482E+03  2.38319E+02  5.33630E+03
 -4.46475E+03  4.19174E+03 -7.36499E+03  4.11466E+02 -6.46249E+03 -4.49580E+03 -1.19187E+03 -8.15643E+03
  4.27203E+03 -7.21487E+03  7.42349E+03 -2.26789E+03  6.16155E+03  1.04172E+02  3.27921E+03  5.77224E+03
 -1.05272E+02  5.67508E+03 -3.01562E+03  4.10027E+03 -4.18049E+03  3.30424E+03 -3.08974E+03 -7.63268E+01
 -2.10563E+03 -8.81789E+02 -1.25022E+03 -7.21247E+02 -3.77310E+03  4.75161E+02 -4.13724E+03 -6.98421E+01
 -6.14111E+03 -3.62101E+03 -2.66684E+03 -7.75581E+03  3.63265E+03 -6.09200E+03  6.56333E+03 -2.31697E+03
  6.35902E+03  1.10255E+03  3.81163E+03  4.74550E+03 -7.20988E+02  6.57573E+03 -4.49260E+03  3.86630E+03
