 $NMID ID='MM_0lb_SNR200_18hz_g55_48.RAW', FMTDAT='(8E13.5)'
 TRAMP=1., VOLUME=1. $END
  3.10399E+05  3.87672E+02  3.37498E+05  2.50499E+05  8.50310E+04  3.37501E+05 -1.33094E+05  2.50760E+05
 -1.89924E+05  8.24031E+04 -1.10722E+05 -3.20558E+04  2.10674E+03 -5.10921E+04  5.33862E+04 -2.20028E+02
  3.63878E+04  5.18749E+04 -1.58847E+04  7.55473E+04 -6.05053E+04  6.25193E+04 -8.28750E+04  3.17443E+04
 -8.07166E+04 -1.16806E+04 -5.63024E+04 -4.97735E+04 -1.47305E+04 -6.91234E+04  2.73476E+04 -4.47277E+04
  3.91544E+04  3.37054E+03  1.48330E+04  4.79962E+04 -3.39997E+04  4.66521E+04 -6.49431E+04 -1.07993E+03
 -5.19078E+04 -5.67560E+04 -7.43727E+03 -7.55941E+04  3.31577E+04 -5.41447E+04  4.73428E+04 -1.65541E+04
  4.27536E+04  1.06457E+04  3.02740E+04  2.46559E+04  1.63904E+04  2.90190E+04 -4.58269E+03  2.70156E+04
 -2.19445E+04  1.17628E+04 -1.82745E+04 -4.06486E+03  3.87069E+03 -7.68375E+03  2.17846E+04  1.10852E+04
  6.65983E+03  3.54912E+04 -3.15737E+04  3.49074E+04 -6.22017E+04  2.00257E+03 -5.50883E+04 -4.13687E+04
 -1.27704E+04 -6.20452E+04  3.85653E+04 -4.45291E+04  5.71982E+04 -1.58346E+03  3.16629E+04  3.01185E+04
 -5.76439E+03  3.38807E+04 -2.85175E+04  1.42796E+04 -2.85669E+04 -5.12138E+03 -1.60414E+04 -9.49425E+03
 -7.84366E+03 -1.24162E+04 -6.37673E+02 -1.66336E+04  6.83434E+03 -2.30233E+04  1.46546E+04 -1.36810E+04
  1.17767E+04  5.63557E+03 -7.31476E+03  1.27816E+04 -2.04800E+04 -2.42046E+03 -8.33865E+03 -3.19143E+04
  2.11397E+04 -4.22466E+04  4.61312E+04 -1.91095E+04  4.34637E+04  1.81600E+04  1.50974E+04  4.28416E+04
 -1.51195E+04  3.14792E+04 -2.40927E+04  8.87182E+02 -8.43242E+03 -2.77303E+04  2.06330E+04 -3.20619E+04
  4.01186E+04 -7.77245E+03  3.30475E+04  2.28705E+04  1.67825E+04  4.44228E+04 -9.01525E+03  4.74569E+04
 -2.98518E+04  3.21326E+04 -3.90603E+04  7.60774E+03 -3.94281E+04 -1.48955E+04 -2.21849E+04 -3.49654E+04
  5.48702E+03 -3.64422E+04  2.98756E+04 -1.34942E+04  2.74215E+04  1.18725E+04  3.33513E+03  1.85997E+04
 -1.35124E+04  8.17900E+03 -9.10196E+03 -7.62161E+03  5.90292E+03 -1.02355E+04  1.69110E+04  5.67936E+03
  1.28989E+04  2.20673E+04 -5.46809E+03  2.58355E+04 -2.21716E+04  1.08927E+04 -2.56756E+04 -5.59282E+03
 -1.78929E+04 -1.70641E+04 -5.05730E+03 -1.81880E+04  2.80754E+03 -1.71858E+04  1.39833E+04 -1.52437E+04
  2.27190E+04 -1.23054E+04  2.84657E+04  1.03406E+03  2.28219E+04  1.80188E+04  4.20749E+03  3.44238E+04
 -1.65132E+04  2.79720E+04 -2.51056E+04  9.49101E+03 -1.92153E+04 -9.48362E+03 -4.96854E+03 -1.37126E+04
  1.72762E+03 -2.54786E+03 -4.24431E+03  5.57237E+03 -1.41953E+04  5.02025E+03 -1.38657E+04 -5.61569E+03
 -9.10229E+03 -1.56899E+04  4.83561E+03 -2.08836E+04  1.25063E+04 -1.50370E+04  1.50997E+04 -1.30282E+03
  1.02462E+04  1.13696E+04 -8.63196E+02  1.64037E+04 -1.17525E+04  9.94351E+03 -1.80345E+04 -4.42246E+03
 -1.04868E+04 -1.48282E+04 -1.14270E+03 -2.02517E+04  9.70254E+03 -1.63597E+04  1.67545E+04 -8.15850E+03
  1.51462E+04  1.27653E+03  1.10181E+04  4.89336E+03  5.81298E+03  1.28587E+02  8.01256E+03 -1.33213E+03
  1.46061E+04  2.22768E+03  1.61151E+04  1.17440E+04  1.12781E+04  2.62759E+04 -2.80289E+03  2.93631E+04
 -1.80847E+04  2.18101E+04 -2.60126E+04  1.07314E+04 -2.71237E+04 -1.70207E+03 -2.29958E+04 -1.56408E+04
 -1.11525E+04 -2.37651E+04  7.49668E+03 -2.06986E+04  1.82353E+04 -1.19377E+04  1.67748E+04  4.91851E+03
  7.90674E+03  1.22552E+04 -7.17802E+03  1.12742E+04 -1.40276E+04  3.38049E+03 -1.10803E+04 -8.25022E+03
 -2.10577E+02 -1.42170E+04  6.76147E+03 -1.07508E+04  9.32735E+03 -1.53442E+03  1.94683E+03  6.19577E+03
 -6.34637E+03  1.90839E+03 -4.37044E+03 -5.00524E+03  1.65532E+03 -1.07389E+04  8.51673E+03 -1.15268E+04
  1.35584E+04 -4.84288E+03  1.28976E+04  2.98115E+03  1.18070E+04  9.78366E+03  5.65129E+03  1.56784E+04
 -1.64219E+03  1.79170E+04 -1.09240E+04  1.00136E+04 -1.26572E+04  2.52894E+03 -8.87211E+03 -1.39168E+03
 -4.96189E+03 -3.66622E+03 -1.28924E+03  1.60163E+02 -1.75591E+03  2.05175E+03 -4.90056E+03  4.72758E+03
 -8.58913E+03 -1.50577E+03 -1.01364E+04 -7.65790E+03 -3.72429E+03 -1.26377E+04  3.03363E+03 -9.23836E+03
  7.91068E+03 -3.39973E+03  5.31321E+03  1.97995E+03  9.93381E+02  3.65628E+03 -4.38467E+03 -2.46246E+02
 -4.55923E+03 -5.04048E+03 -8.54776E+02 -7.47217E+03  4.58562E+03 -9.45935E+03  1.04210E+04 -3.98526E+03
  1.15474E+04  1.05443E+02  9.18651E+03  6.56287E+03  2.66378E+03  1.01766E+04 -5.82990E+03  8.30543E+03
 -7.05159E+03  2.11352E+03 -4.04701E+03 -6.07399E+02  1.45995E+03 -1.98401E+03  5.28075E+03 -7.08910E+02
  5.15014E+03  4.53351E+03  1.13235E+03  6.55696E+03 -4.96705E+03  7.02448E+03 -8.24870E+03  2.75384E+03
 -5.23074E+03 -3.72560E+03 -2.33275E+02 -7.27779E+03  4.00370E+03 -4.06812E+03  4.26933E+03  1.00486E+03
  1.21529E+03  4.31241E+03 -3.14001E+03  6.31827E+03 -5.34016E+03  2.23369E+03 -5.54798E+03 -1.42956E+03
 -3.73966E+03 -6.74896E+03  1.62950E+03 -7.44370E+03  7.99186E+03 -5.79282E+03  6.10357E+03  1.54452E+03
  4.47153E+03  6.18526E+03 -4.09362E+02  7.24001E+03 -5.36675E+03  3.07630E+03 -5.81236E+03 -8.90159E+02
 -5.41244E+03 -5.10174E+03 -5.60365E+02 -6.21458E+03  2.12654E+03 -5.08250E+03  4.13449E+03 -2.59182E+03
  2.69020E+03  4.80954E+02  4.54837E+02  1.31142E+03  2.69408E+01 -1.05520E+03  2.39473E+02 -2.14196E+03
  3.68967E+03 -8.37144E+02  7.30392E+03  1.18924E+03  7.76979E+03  4.10134E+03  5.61452E+03  7.65050E+03
 -1.44395E+03  8.20369E+03 -9.48848E+03  8.74990E+03 -1.17439E+04  1.67631E+03 -8.80578E+03 -3.09231E+03
 -3.51591E+03 -6.31361E+03 -6.59218E+02 -6.52203E+03  2.43581E+03 -1.92218E+03  1.35725E+03 -2.66534E+03
  2.00975E+03 -2.68692E+03  2.78749E+03 -3.19806E+03  3.26213E+03 -1.85132E+03  3.01317E+03  1.19659E+03
  4.49960E+03  1.83107E+03  1.22586E+03  3.09626E+03 -1.51108E+03  2.72753E+03 -4.97832E+03  2.55865E+03
 -5.39088E+03 -1.59642E+03 -2.51617E+03 -3.45494E+03 -1.57371E+02 -5.02896E+03  2.63894E+03 -6.77986E+03
  6.00676E+03 -3.42290E+03  7.08242E+03  3.43465E+02  4.86940E+03  4.25917E+03  2.20183E+03  7.28730E+03
 -2.00685E+03  6.21257E+03 -3.51645E+03  2.08416E+03 -1.20024E+03 -1.23909E+03 -4.87041E+02 -4.01610E+02
  1.06465E+03 -4.27450E+02 -5.03717E+02  1.45678E+03 -2.57542E+03  1.85574E+03 -4.90452E+03 -8.43014E+02
 -1.26202E+03 -3.78228E+03  2.84888E+02 -3.56198E+03  4.02376E+03 -3.25543E+03  4.61097E+03 -1.15930E+03
  4.38045E+03  3.72835E+03  2.06579E+03  4.19301E+03  4.87576E+02  4.20141E+03 -4.22004E+03  3.25917E+03
 -5.91589E+03  1.06598E+03 -1.44044E+03 -2.75581E+03  8.03260E+02 -3.29619E+03  1.55562E+03 -2.06753E+03
  2.56399E+03 -9.30526E+02  2.73359E+03  9.87240E+02  7.23896E+02  1.45102E+03  1.33261E+03  5.32365E+02
  1.44336E+03  1.04206E+03  8.20237E+02  8.40703E+02  5.89874E+02  1.70445E+03  8.03638E+02  2.33559E+03
 -2.03760E+03  2.94484E+03 -3.59566E+03  4.14580E+03 -3.72507E+03  1.41080E+03 -3.51891E+03 -3.97333E+02
 -3.38571E+03 -3.82483E+03  1.14911E+03 -4.34092E+03  3.09612E+03 -2.94278E+03  4.15863E+03 -1.44062E+03
  3.09236E+03  1.82796E+03  4.88585E+02  2.15678E+03 -8.10169E+02  1.21585E+03 -8.28271E+02 -1.23574E+03
 -1.43892E+03 -1.63727E+03  9.09647E+02 -1.02471E+03  5.46219E+02 -1.92078E+03  1.85375E+03 -5.71236E+01
  6.69964E+02  1.04095E+03  2.65210E+02 -2.89651E+02  5.76410E+02  1.37897E+03  2.52441E+03 -1.85649E+02
  6.69235E+02  9.77749E+01  1.17274E+03  1.01866E+03  2.30125E+02  2.36318E+03 -1.31456E+03  2.29671E+03
 -2.33405E+03  5.08461E+02 -3.14488E+03  9.23440E+02 -2.58089E+03  5.67424E+02 -5.81962E+02 -1.62792E+03
  2.16621E+02 -2.65925E+03  1.26101E+03 -4.51313E+02  9.05722E+02  2.16939E+03 -1.32854E+03  6.62918E+02
 -2.08064E+03  1.32780E+03 -9.58255E+02 -1.86867E+03 -2.80364E+02 -2.82854E+03  7.39820E+02 -1.51352E+03
  3.27088E+01 -8.41749E+02  7.96513E+02  1.96049E+02  1.24395E+03 -4.28105E+02  4.37666E+02  1.72019E+03
 -5.25252E+02 -1.41828E+03 -2.05768E+03 -6.33754E+01  2.84649E+02 -1.52420E+03  2.08973E+03 -9.32825E+02
  1.06342E+03  1.15110E+03  2.38169E+03  8.64318E+01  1.05457E+03  1.28705E+03 -1.47051E+03  1.90881E+03
 -1.35433E+03  1.06370E+03 -1.61028E+03 -3.17728E+02 -5.67230E+02 -2.04478E+03  5.18344E+02 -8.21487E+02
  1.60692E+03  9.19864E+01  1.10431E+03  8.58042E+02 -1.95205E+02  7.54769E+02  3.44830E+02  1.63676E+03
 -8.09105E+02  1.28083E+03 -9.39062E+02  1.87798E+02  5.82144E+02 -2.92846E+02 -7.36851E+02  7.45474E+02
 -6.77705E+02  1.07797E+03 -1.92869E+03  8.25148E+02 -2.25646E+03  2.96566E+02 -2.30217E+03 -1.16874E+03
 -1.31140E+03 -3.43862E+03 -6.88912E+02 -3.64668E+03  2.93924E+01 -2.61718E+03  2.43094E+03 -2.33588E+03
  2.77848E+03  8.89250E+01  9.24610E+02  1.15365E+03 -1.08786E+02  2.70871E+03 -1.45707E+03  2.33257E+03
 -1.17358E+03  4.30021E+02  2.64130E+02 -4.12600E+02 -7.93650E+02  2.27272E+02 -9.02798E+02  1.97299E+02
 -9.64395E+02 -5.21663E+02 -8.87741E+02  3.65701E+02  1.36588E+03 -8.23935E+02 -8.50456E+02 -1.28869E+03
  2.30381E+03 -5.86752E+02  1.13524E+02 -1.11445E+03  5.16279E+02  2.11026E+03  1.79533E+02  1.92632E+03
 -8.19240E+02  3.12512E+03 -1.97650E+03  1.11530E+03 -1.27804E+03  2.36504E+02 -1.73714E+03 -1.62307E+03
 -8.36242E+02 -9.66219E+02 -9.51005E+00 -1.87646E+03  1.43222E+03 -1.87551E+02  8.40288E+00 -2.75704E+02
  1.46717E+03  5.26338E+02  2.66030E+02  8.55503E+02 -1.36309E+03 -3.77139E+02  5.13595E+02  3.04094E+02
  9.12529E+02 -6.03144E+02  6.93409E+01  3.34802E+02  2.55521E+02  5.84397E+02 -3.10828E+01  9.01775E+02
 -5.21965E+02  1.87357E+03  1.47857E+02  1.57684E+02 -9.23867E+02 -1.85188E+03  8.10715E+02 -6.46658E+02
  7.63552E+02 -1.61552E+03 -1.02537E+02  6.33896E+02  9.60427E+02  6.20719E+01  1.24739E+03  1.34459E+03
  2.78752E+02  4.45648E+02 -2.96504E+02  3.19108E+02 -8.08295E+02 -2.73289E+02 -4.88612E+02  9.96322E+02
 -3.38151E+02 -1.20850E+03 -1.47420E+03 -1.08940E+02 -1.08937E+03  6.54976E+02 -1.72641E+03 -6.36117E+02
 -1.31140E+03  9.45396E+02 -2.63020E+02 -1.24745E+03  1.17900E+03 -1.88140E+03  9.38243E+02 -1.00159E+03
  7.79370E+02 -2.31679E+02 -9.53772E+02  3.08320E+02  6.43155E+01  1.35523E+03 -3.50788E+02  9.43159E+02
