 $NMID ID='MM_0lb_SNR200_18hz_g50_67.RAW', FMTDAT='(8E13.5)'
 TRAMP=1., VOLUME=1. $END
  3.10251E+05  1.07693E+03  3.37281E+05  2.50201E+05  8.48463E+04  3.37205E+05 -1.32755E+05  2.50775E+05
 -1.89207E+05  8.26033E+04 -1.12002E+05 -3.26673E+04  1.04139E+03 -5.07618E+04  5.40332E+04  1.81319E+02
  3.52550E+04  5.33525E+04 -1.65711E+04  7.57669E+04 -5.96981E+04  6.38942E+04 -8.33272E+04  3.11418E+04
 -7.95879E+04 -1.01194E+04 -5.71900E+04 -5.03274E+04 -1.53907E+04 -6.92454E+04  2.71526E+04 -4.50490E+04
  3.94394E+04  3.46377E+03  1.62785E+04  4.73340E+04 -3.43720E+04  4.62980E+04 -6.52990E+04 -8.09109E+01
 -5.25452E+04 -5.64631E+04 -5.96372E+03 -7.37899E+04  3.36420E+04 -5.37798E+04  4.67984E+04 -1.70669E+04
  4.11607E+04  1.12331E+04  3.05971E+04  2.50171E+04  1.59066E+04  2.90789E+04 -5.94494E+03  2.77570E+04
 -2.09509E+04  1.20099E+04 -1.91007E+04 -4.40479E+03  4.05096E+03 -7.62456E+03  2.22936E+04  1.12422E+04
  6.31475E+03  3.41430E+04 -3.02169E+04  3.54805E+04 -6.14212E+04  1.73407E+03 -5.61987E+04 -4.11384E+04
 -1.34691E+04 -6.19779E+04  3.85999E+04 -4.41696E+04  5.58059E+04 -2.31670E+03  3.26954E+04  3.15009E+04
 -6.73549E+03  3.43570E+04 -2.93125E+04  1.28422E+04 -2.92006E+04 -5.49761E+03 -1.60263E+04 -9.52400E+03
 -7.41158E+03 -1.07979E+04 -1.67277E+03 -1.67498E+04  5.71646E+03 -2.19943E+04  1.50241E+04 -1.36561E+04
  1.18745E+04  4.82573E+03 -7.18138E+03  1.22048E+04 -2.02391E+04 -2.93439E+03 -8.35485E+03 -3.08221E+04
  2.16534E+04 -4.20839E+04  4.47978E+04 -1.95935E+04  4.27225E+04  1.84962E+04  1.39642E+04  4.22447E+04
 -1.63437E+04  3.13840E+04 -2.48552E+04  7.73190E+02 -8.90126E+03 -2.54499E+04  2.05233E+04 -3.03162E+04
  3.94091E+04 -6.97111E+03  3.21273E+04  2.27551E+04  1.62224E+04  4.23297E+04 -7.77832E+03  4.64584E+04
 -2.91292E+04  3.00730E+04 -3.80273E+04  7.76774E+03 -3.98196E+04 -1.53538E+04 -2.30075E+04 -3.52728E+04
  6.89696E+03 -3.46456E+04  2.99732E+04 -1.40511E+04  2.73790E+04  1.05005E+04  3.88476E+03  1.74897E+04
 -1.34743E+04  8.26019E+03 -9.74723E+03 -7.99723E+03  6.52046E+03 -1.11501E+04  1.69489E+04  6.62003E+03
  1.26570E+04  2.10736E+04 -7.39067E+03  2.38868E+04 -2.18199E+04  1.02758E+04 -2.59965E+04 -5.23347E+03
 -1.58107E+04 -1.70107E+04 -6.83739E+03 -1.74358E+04  3.77454E+03 -1.56865E+04  1.30167E+04 -1.53501E+04
  2.38829E+04 -1.18042E+04  2.87907E+04  1.63278E+03  2.09736E+04  1.68084E+04  4.00887E+03  3.32580E+04
 -1.57092E+04  2.81667E+04 -2.59742E+04  1.09032E+04 -2.01759E+04 -1.13412E+04 -5.08825E+03 -1.30924E+04
  2.84091E+03 -3.38162E+03 -2.35905E+03  5.52147E+03 -1.39593E+04  5.28937E+03 -1.43556E+04 -6.02736E+03
 -9.03902E+03 -1.65194E+04  4.09379E+03 -1.98765E+04  1.30412E+04 -1.53176E+04  1.47421E+04 -1.14222E+03
  9.35169E+03  1.07220E+04 -3.04114E+02  1.59724E+04 -9.41787E+03  8.74195E+03 -1.60774E+04 -3.99952E+03
 -1.26388E+04 -1.52775E+04 -8.67430E+02 -1.98441E+04  1.00816E+04 -1.62554E+04  1.68316E+04 -7.52662E+03
  1.63436E+04  1.39637E+02  1.10241E+04  3.29626E+03  5.10484E+03  4.52564E+02  7.98938E+03 -8.35776E+02
  1.40086E+04  2.82187E+03  1.52736E+04  1.16997E+04  9.46905E+03  2.60448E+04 -3.72308E+03  2.85615E+04
 -1.57753E+04  2.20116E+04 -2.60792E+04  1.09905E+04 -2.71197E+04 -2.05416E+03 -2.33423E+04 -1.40495E+04
 -1.08395E+04 -2.06084E+04  7.91685E+03 -1.97207E+04  1.70092E+04 -1.10344E+04  1.51782E+04  5.05486E+03
  7.28103E+03  1.10516E+04 -7.19995E+03  1.12834E+04 -1.37656E+04  2.22258E+03 -1.09532E+04 -7.78429E+03
  7.37576E+02 -1.19205E+04  6.45519E+03 -9.21215E+03  8.92895E+03 -1.80441E+03  5.39849E+02  5.57331E+03
 -5.71163E+03  9.24419E+02 -3.50804E+03 -6.05717E+03  3.95552E+01 -1.02122E+04  9.12453E+03 -1.04570E+04
  1.35112E+04 -4.85678E+03  1.37353E+04  2.42525E+03  1.14287E+04  1.10488E+04  6.02376E+03  1.57953E+04
 -1.86081E+03  1.62691E+04 -9.44605E+03  1.05840E+04 -1.03707E+04  2.64461E+03 -9.20292E+03 -2.00365E+03
 -4.45147E+03 -3.93497E+03 -8.01626E+02  1.68382E+03 -1.77364E+03  1.47860E+03 -3.44231E+03  2.65268E+03
 -7.77093E+03 -1.03156E+03 -9.62262E+03 -7.76607E+03 -3.63031E+03 -1.17941E+04  3.05413E+03 -9.16206E+03
  6.44754E+03 -3.77981E+03  4.34649E+03  2.61862E+03  5.76115E+02  3.24296E+03 -3.92458E+03  7.16305E+02
 -3.74396E+03 -6.82192E+03 -1.17558E+03 -8.84414E+03  4.85844E+03 -7.43737E+03  9.93310E+03 -4.01957E+03
  1.23990E+04  9.83183E+02  7.54069E+03  7.66751E+03  2.86413E+03  9.06992E+03 -5.98817E+03  8.30229E+03
 -6.98143E+03  3.10641E+03 -3.29296E+03 -2.50254E+03  1.09241E+03 -1.89163E+03  4.39732E+03 -1.91911E+03
  4.38707E+03  3.89716E+03  4.61849E+02  6.03428E+03 -3.47327E+03  6.96660E+03 -8.38914E+03  1.36086E+03
 -5.30600E+03 -4.66228E+03 -8.73701E+02 -6.76109E+03  5.06847E+03 -4.11243E+03  3.63132E+03  1.83342E+02
  6.07648E+02  3.46505E+03 -4.10542E+03  6.21300E+03 -6.17017E+03  2.66945E+03 -4.78464E+03 -1.52961E+03
 -3.69506E+03 -6.61907E+03  1.33241E+03 -8.64066E+03  7.64473E+03 -4.22961E+03  6.67118E+03  3.35240E+02
  4.33324E+03  5.49966E+03  1.04975E+03  6.50037E+03 -5.51223E+03  4.45168E+03 -5.61888E+03 -8.76355E+02
 -5.93822E+03 -5.92347E+03 -1.81527E+03 -5.00116E+03  3.21406E+03 -4.53281E+03  3.18372E+03 -3.33055E+03
  2.89791E+03  1.32470E+01  3.25498E+02  9.21642E+02  1.09839E+03 -6.19370E+02  6.24244E+02 -2.98007E+03
  4.21945E+03 -2.27803E+03  4.89767E+03  5.27423E+02  5.94803E+03  2.63535E+03  6.60551E+03  8.32976E+03
 -1.60973E+03  1.02386E+04 -8.28742E+03  6.89030E+03 -1.08102E+04  2.32202E+03 -8.07173E+03 -2.64628E+03
 -4.41667E+03 -6.70213E+03  3.28930E+02 -5.85718E+03  2.75494E+03 -2.71280E+03  1.71835E+03 -1.99564E+03
  1.45570E+03 -1.17986E+03  1.05843E+03 -1.42482E+03  2.74343E+03 -6.38935E+02  3.62549E+03  1.72666E+02
  4.86135E+03  1.55294E+03  1.38844E+03  3.45782E+03 -1.33129E+03  3.50923E+03 -5.01746E+03  2.49760E+03
 -4.76060E+03 -8.87979E+02 -3.02151E+03 -3.15400E+03  6.98503E+02 -4.99879E+03  3.19738E+03 -5.65243E+03
  5.70649E+03 -2.35990E+03  7.63608E+03 -1.23829E+03  3.33115E+03  4.02096E+03  3.39409E+02  6.68635E+03
 -2.45651E+03  5.37449E+03 -3.41395E+03  2.74411E+03 -2.00370E+03 -1.26080E+03  1.53608E+02  3.30766E+02
  1.30414E+03  5.83871E+02 -1.84883E+01  2.43245E+03 -2.55367E+03  1.71952E+03 -5.00652E+03 -6.91150E+02
 -2.11473E+03 -4.36848E+03  3.44347E+02 -5.91308E+03  2.36279E+03 -5.86755E+03  3.38699E+03 -1.65467E+03
  3.81982E+03  2.09816E+03  2.50648E+03  3.27850E+03 -4.87555E+02  5.82682E+03 -2.54267E+03  3.23442E+03
 -4.68127E+03 -2.30760E+02 -4.26220E+03 -2.42827E+03 -7.50627E+02 -3.64185E+03  2.58894E+03 -2.25412E+03
  1.83573E+03 -1.36578E+03  2.23247E+02 -1.47800E+02  9.94795E+02  1.09197E+03  1.76083E+03  1.17029E+03
  1.17041E+03  1.13817E+03  9.38914E+02  8.12529E+02  7.70097E+02  1.06828E+03  1.71150E+03  1.89873E+03
 -1.45550E+03  3.30700E+03 -3.25655E+03  4.45526E+03 -3.90379E+03  1.75143E+03 -4.55648E+03  7.05600E+01
 -3.82850E+02 -3.44185E+03  1.12394E+03 -3.62334E+03  2.31364E+03 -2.68626E+03  2.56935E+03 -7.16014E+02
  1.74648E+03  1.04931E+03 -2.23107E+02  3.09971E+03  3.75958E+02  1.46147E+03 -4.92201E+02 -1.04678E+03
 -3.26276E+02 -1.63532E+03  2.23624E+03 -2.45337E+03  1.42844E+03 -8.67496E+02  1.87777E+03  3.28200E+02
  3.33904E+02  3.49823E+02  7.96699E+02  8.15902E+02 -3.32229E+02  1.30295E+03  5.41661E+02 -4.73425E+02
  4.03037E+02 -6.16023E+02  1.61041E+03  8.64250E+02  8.97249E+02  2.98188E+03  2.91200E+02  2.97660E+03
 -1.11638E+03  2.02847E+03 -2.30916E+03  7.83025E+02 -1.99964E+03 -1.12448E+03 -6.43128E+02 -1.26732E+03
  7.51880E+02 -4.18223E+02 -7.57705E+01 -8.31916E+02  6.79734E+02  2.04373E+03 -4.29825E+02  1.30272E+03
 -1.39280E+03  8.26465E+02 -1.88910E+03  2.55926E+02 -1.50179E+03 -2.53891E+03 -1.37157E+03 -1.57148E+03
  1.35365E+02 -1.58867E+03  9.39532E+02  7.45402E+01  7.63547E+02 -8.94461E+02  7.40716E+02  2.11043E+03
  5.40167E+02  4.46713E+01 -8.63597E+02 -4.69896E+02  5.61949E+02 -9.73898E+02  1.44950E+03  7.34386E+02
  1.88216E+03 -3.87941E+02  2.63296E+03  8.18461E+02  2.48942E+03  2.19328E+03 -2.10277E+02  1.74028E+03
 -3.08371E+02  7.10969E+02 -2.65460E+03 -7.22487E+02 -1.39155E+03 -1.67249E+03  1.28941E+00 -7.76187E+02
  8.35484E+02 -1.25048E+03  5.35329E+02  5.50251E+02 -3.72565E+02  1.54206E+03 -2.70555E+02 -1.29200E+02
 -5.46509E+02  6.56376E+02  7.25842E+02  3.27702E+01 -5.78229E+02  6.16345E+02 -7.81751E+02  5.53942E+02
 -4.40658E+02  9.58118E+02 -1.20253E+03  5.64060E+02 -6.32244E+02  2.81760E+02 -1.96237E+03 -7.56856E+02
 -1.63305E+02 -2.27077E+03  2.36828E+02 -2.60053E+03  1.13391E+03 -2.36334E+03  2.14830E+03 -1.03611E+03
  2.00839E+03 -9.24933E+02  9.48674E+02  1.31181E+03  6.40631E+02  8.72281E+02 -1.14536E+03  1.32700E+03
 -1.91928E+03  1.36755E+03 -7.93890E+02 -7.31108E+01 -1.46341E+03  1.02135E+03 -7.64419E+02  1.28127E+02
 -6.87619E+02 -2.01334E+02 -9.82774E+02  6.62643E+02 -6.14728E+02 -9.73670E+02 -9.56043E+02 -1.80172E+03
  2.35795E+02  4.11786E+02 -2.51627E+02 -4.15672E+02  1.39967E+03  7.42954E+02 -8.71200E+02  1.15468E+03
 -1.91945E+03  3.18286E+03 -1.66736E+03  1.59434E+03 -2.10274E+03  3.08069E+02 -1.96846E+03 -5.88765E+02
 -8.68196E+02 -2.02282E+03  7.67144E+02 -1.84858E+03  1.31422E+03 -9.55232E+01  8.46638E+02  2.21102E+02
  7.83668E+02  7.54214E+01 -2.21746E+02 -2.57478E+01 -5.92015E+02  1.83475E+02 -7.82794E+02  3.95886E+02
  9.04822E+02 -2.44068E+02  6.97402E+01 -7.28120E+02  9.23033E+01  1.87128E+02  4.58456E+02  1.17906E+02
 -2.38709E+02  1.37945E+03  7.45223E+01 -1.19161E+03 -1.43829E+03  9.60109E+02  6.78198E+02 -1.34367E+03
  1.08430E+03 -1.64560E+03  9.08313E+02 -5.68317E+01  1.01781E+03 -1.72405E+03  1.11522E+03  1.86564E+03
  8.28127E+02 -5.14032E+02 -5.35186E+02  3.91998E+02 -2.07618E+02  7.79221E+02 -1.09217E+03 -5.23941E+02
 -5.17758E+02 -2.96792E+02  3.03577E+02 -4.96890E+02 -1.50646E+03  4.79894E+02 -1.10029E+03 -5.32278E+02
 -1.18691E+03 -8.35394E+01  2.85403E+01 -7.49641E+02  3.09474E+02 -1.59779E+03  6.99746E+01 -4.33500E+02
  6.27343E+02 -5.40544E+02  5.81910E+01  1.12022E+03 -8.96389E+02  1.24339E+03  3.21994E+02  2.20677E+03
