 $NMID ID='MM_0lb_SNR200_20hz_g40_62.RAW', FMTDAT='(8E13.5)'
 TRAMP=1., VOLUME=1. $END
  3.09986E+05  8.02802E+02  3.37457E+05  2.50033E+05  8.40997E+04  3.36899E+05 -1.31871E+05  2.49849E+05
 -1.89422E+05  8.21093E+04 -1.10373E+05 -3.34670E+04  2.04682E+03 -5.04601E+04  5.31024E+04 -1.76335E+02
  3.48768E+04  5.39635E+04 -1.70315E+04  7.42992E+04 -6.03080E+04  6.20605E+04 -8.15751E+04  3.13299E+04
 -7.78555E+04 -1.05682E+04 -5.54677E+04 -4.89924E+04 -1.35283E+04 -6.74578E+04  2.63110E+04 -4.42875E+04
  3.78777E+04  4.72707E+03  1.49005E+04  4.56918E+04 -3.33576E+04  4.59363E+04 -6.49752E+04 -6.43896E+02
 -5.04722E+04 -5.54593E+04 -6.30708E+03 -7.48395E+04  3.26251E+04 -5.13718E+04  4.45693E+04 -1.61991E+04
  4.10701E+04  1.11992E+04  3.06526E+04  2.44961E+04  1.70028E+04  2.72586E+04 -3.91697E+03  2.64747E+04
 -2.12133E+04  1.29910E+04 -1.99004E+04 -3.56220E+03  3.99242E+03 -7.57682E+03  2.04735E+04  1.04146E+04
  6.19306E+03  3.12008E+04 -2.92108E+04  3.32331E+04 -5.94382E+04  2.75301E+03 -5.46667E+04 -4.07580E+04
 -1.28993E+04 -5.93577E+04  3.71969E+04 -4.29608E+04  5.42603E+04 -3.16095E+03  3.05235E+04  2.97248E+04
 -6.83565E+03  3.16542E+04 -2.76881E+04  1.28307E+04 -2.67179E+04 -5.23882E+03 -1.32791E+04 -1.00780E+04
 -7.33092E+03 -1.00904E+04 -6.94706E+02 -1.54183E+04  6.10715E+03 -2.31225E+04  1.41524E+04 -1.44176E+04
  1.28159E+04  4.25793E+03 -4.79263E+03  1.24561E+04 -1.80925E+04 -1.76785E+03 -7.31105E+03 -2.91611E+04
  2.01574E+04 -3.94455E+04  4.26603E+04 -1.80964E+04  4.03855E+04  1.74966E+04  1.27269E+04  4.05340E+04
 -1.49709E+04  2.96687E+04 -2.22792E+04  6.78766E+02 -7.44675E+03 -2.51169E+04  2.00513E+04 -3.00409E+04
  3.59437E+04 -7.48224E+03  2.95817E+04  2.12636E+04  1.40060E+04  3.96181E+04 -6.89594E+03  4.27156E+04
 -2.63127E+04  2.88479E+04 -3.42400E+04  8.44793E+03 -3.66833E+04 -1.42431E+04 -1.96449E+04 -3.29462E+04
  5.99423E+03 -3.32568E+04  2.83178E+04 -1.20902E+04  2.61868E+04  1.00520E+04  2.01875E+03  1.70840E+04
 -1.25584E+04  6.90983E+03 -8.47120E+03 -6.58498E+03  5.54460E+03 -8.65349E+03  1.65365E+04  7.44807E+03
  1.22625E+04  2.14428E+04 -7.61112E+03  2.21057E+04 -2.04432E+04  7.52088E+03 -2.36961E+04 -6.87388E+03
 -1.52641E+04 -1.51569E+04 -3.18866E+03 -1.52329E+04  2.19019E+03 -1.29133E+04  1.17576E+04 -1.32592E+04
  1.92615E+04 -1.03114E+04  2.59610E+04  1.90364E+01  1.89536E+04  1.41527E+04  3.58477E+03  3.09830E+04
 -1.48926E+04  2.54974E+04 -2.56157E+04  9.53090E+03 -1.88213E+04 -1.01013E+04 -3.40023E+03 -1.51482E+04
  3.22892E+03 -5.61377E+03 -1.80369E+03  4.76557E+03 -1.07836E+04  4.85196E+03 -1.15757E+04 -3.63538E+03
 -7.45145E+03 -1.33530E+04  3.93298E+03 -1.91392E+04  1.06161E+04 -1.34098E+04  1.29747E+04 -1.10113E+03
  8.00406E+03  1.00573E+04 -1.23149E+03  1.45571E+04 -8.88053E+03  7.63437E+03 -1.29941E+04 -4.05880E+03
 -9.69888E+03 -1.29088E+04 -1.53716E+03 -1.74587E+04  8.10873E+03 -1.37608E+04  1.48100E+04 -5.77103E+03
  1.36772E+04  2.26023E+02  9.40175E+03  3.51293E+03  4.27375E+03  3.87168E+02  7.06284E+03 -5.05914E+02
  1.24021E+04  2.33295E+03  1.31928E+04  1.22458E+04  8.55793E+03  2.29113E+04 -3.18860E+03  2.39081E+04
 -1.51455E+04  1.81209E+04 -2.12421E+04  7.49944E+03 -2.14103E+04 -1.41988E+03 -1.94285E+04 -1.23598E+04
 -9.39753E+03 -1.78683E+04  5.86489E+03 -1.66634E+04  1.58454E+04 -1.03602E+04  1.41365E+04  3.69670E+03
  5.57712E+03  1.02740E+04 -6.77767E+03  9.72154E+03 -1.13246E+04  2.38785E+03 -1.00375E+04 -6.85992E+03
 -1.11349E+02 -1.14348E+04  6.30242E+03 -9.23814E+03  6.89335E+03 -2.09330E+03  2.38993E+02  4.96408E+03
 -4.29856E+03  7.13764E+02 -3.27965E+03 -3.31037E+03  1.62697E+03 -9.17687E+03  8.32967E+03 -8.55122E+03
  1.08311E+04 -3.09701E+03  1.01191E+04  2.58355E+03  7.90129E+03  8.54882E+03  4.20817E+03  1.23450E+04
 -1.05374E+03  1.37050E+04 -7.81303E+03  9.23159E+03 -9.99869E+03  1.29877E+03 -7.18569E+03 -8.04615E+02
 -4.03624E+03 -2.33475E+03 -1.84336E+03  1.59340E+03 -2.86497E+03  1.35795E+03 -3.65473E+03  3.49186E+03
 -7.53811E+03 -9.11635E+02 -7.54202E+03 -6.30100E+03 -4.23411E+03 -1.07437E+04  2.90509E+03 -7.01196E+03
  6.69846E+03 -3.61354E+03  5.47810E+03  1.59226E+03  4.83293E+02  2.97797E+03 -2.13815E+03 -3.69895E+02
 -2.67603E+03 -4.74808E+03 -1.00853E+03 -5.67752E+03  2.05249E+03 -6.41939E+03  8.46042E+03 -2.71277E+03
  1.04603E+04  1.25586E+02  8.04747E+03  5.10118E+03  2.07693E+03  7.41734E+03 -5.88779E+03  7.32269E+03
 -5.16911E+03  3.10112E+03 -3.61312E+03  7.63005E+01  1.78462E+03 -1.49505E+03  3.24907E+03 -9.86470E+02
  2.87183E+03  2.67175E+03  1.18334E+03  5.43683E+03 -4.17142E+03  5.46355E+03 -6.94244E+03  1.37777E+03
 -3.47480E+03 -3.22167E+03  1.70354E+03 -6.63693E+03  3.21368E+03 -3.18639E+03  3.39099E+03 -1.03296E+02
 -3.29149E+02  2.80931E+03 -2.89719E+03  2.83106E+03 -3.45408E+03  1.89530E+03 -2.85138E+03 -5.18433E+02
 -3.28954E+03 -5.31248E+03 -1.04636E+03 -6.74885E+03  5.28199E+03 -3.82143E+03  5.00000E+03  3.03688E+02
  4.56836E+03  3.94608E+03  3.29466E+02  6.57825E+03 -5.21169E+03  2.70065E+03 -4.55337E+03 -3.88518E+02
 -4.76557E+03 -5.05663E+03 -6.64659E+02 -4.55041E+03  1.19011E+03 -4.60940E+03  2.03373E+03 -3.12925E+03
  2.29745E+03 -1.06861E+03  4.86400E+02  1.58880E+03  1.24143E+03 -5.78054E+02 -3.80607E+02 -1.60894E+03
  2.86523E+03  3.24035E+02  3.49939E+03 -4.70929E+02  4.22891E+03  1.85380E+03  4.60470E+03  5.56715E+03
 -5.07527E+02  6.47615E+03 -6.26579E+03  4.88979E+03 -8.00365E+03  7.31519E+02 -7.04901E+03 -1.46791E+03
 -2.34531E+03 -4.99706E+03 -3.37713E+02 -5.00534E+03  2.06315E+03 -1.66324E+03  1.62300E+03 -9.57683E+02
  1.33946E+03 -6.78102E+02  2.26741E+03 -2.68205E+03  2.80904E+03 -6.32687E+02  3.38985E+03 -2.41518E+02
  4.01895E+03  5.22342E+02  3.48057E+02  2.77034E+03 -2.15006E+03  2.05333E+03 -3.78980E+03  1.92926E+03
 -4.24572E+03 -6.21308E+02 -8.80095E+02 -2.22052E+03  2.06295E+02 -4.71993E+03  2.08465E+03 -4.11332E+03
  4.49652E+03 -1.93985E+03  5.41931E+03 -5.57139E+02  3.79623E+03  3.43463E+03  1.69425E+03  4.94432E+03
 -1.78476E+03  3.45424E+03 -1.97550E+03  1.92722E+03 -8.67715E+02 -2.24080E+02 -4.54573E+02 -1.67076E+03
  3.82803E+02  6.53621E+02 -2.17776E+03  3.47413E+03 -1.78393E+03  6.06099E+02 -3.67641E+03  7.71165E+02
 -4.17131E+01 -3.74839E+03  8.64814E+02 -4.17939E+03  1.73829E+03 -4.05886E+03  2.56383E+03 -1.92822E+03
  4.47153E+03  7.09824E+02  1.76405E+03  3.25464E+03 -1.99740E+03  4.17043E+03 -2.95951E+03  3.08196E+03
 -2.16180E+03  1.23742E+03 -2.20194E+03 -1.05095E+03 -4.12039E+02 -2.14270E+03  5.55789E+02 -1.46109E+03
  1.86155E+03 -1.49110E+03  9.22181E+02  1.01707E+02  3.24749E+02  4.34937E+02  5.14186E+02  1.00325E+03
  1.44692E+03 -1.00057E+03  7.27366E+02  8.18117E+02  1.32586E+02  1.54680E+03  1.88622E+03  1.63391E+03
 -1.38428E+03  2.47539E+03 -2.02742E+03  3.18110E+03 -1.85303E+03  1.21695E+03 -3.53196E+03  9.58742E+02
 -1.55607E+03 -2.94845E+03  8.98421E+02 -3.42161E+03  1.50184E+03 -1.97080E+03  1.87279E+03 -1.34342E+03
  2.66978E+03  1.71226E+03  1.07844E+03  2.26176E+03 -1.09089E+03  1.62192E+03 -1.18347E+03  5.49217E+02
 -3.14378E+02 -1.92389E+03  5.92474E+02 -8.65768E+02  1.11478E+03 -7.21105E+01  7.72915E+02 -1.20420E+03
  1.10104E+03 -3.55058E+02  3.88683E+01 -1.14188E+03 -5.99230E+02  6.44039E+02  8.36081E+02 -3.27683E+02
 -7.50105E+02 -5.40315E+02  8.41105E+02  1.13797E+03  3.08962E+02  2.33951E+03  5.44077E+01  2.56793E+03
 -1.41977E+03  8.48955E+02 -8.12073E+02 -3.41117E+02 -1.22759E+03 -1.91195E+02  4.65200E+02 -9.97511E+02
  1.20070E+03 -1.25474E+03 -1.28595E+02 -1.40663E+03  7.52634E+02  1.49063E+03 -1.17597E+03  9.95086E+02
 -1.80991E+03  8.88491E+02 -9.94913E+02 -1.60608E+03 -5.65208E+02 -1.66570E+03 -1.72819E+02 -2.32634E+02
 -3.57884E+02 -1.13989E+03 -5.52576E+01  2.56805E+02  1.34587E+03  2.36644E+02  2.53841E+02  1.86748E+03
 -2.49955E+02  4.36108E+02  8.68510E+01  5.25206E+02 -3.06120E+02 -6.53360E+02  1.98876E+03 -7.33306E+02
  7.49176E+02 -2.41131E+02  1.62718E+03  4.54889E+02  1.29696E+03  4.47551E+02 -7.56175E+02  9.58233E+02
 -1.31444E+03  2.91535E+02 -1.62428E+03  6.79549E+02 -4.70047E+02 -6.35575E+02  2.38596E+02 -6.15887E+02
  1.00362E+03 -8.88256E+02  3.94945E+02  9.07652E+02  1.02556E+03  7.20363E+02  6.25729E+02  1.40553E+03
 -3.36317E+02  7.55582E+02 -6.79334E+02  4.14760E+02 -4.34533E+02 -2.66620E+01 -8.97794E+02 -4.04497E+02
 -6.79399E+02  1.24063E+03 -1.79429E+03  1.17589E+02 -2.08619E+03 -8.89980E+02 -1.26319E+03  5.19778E+02
 -1.03874E+03 -1.18215E+03  9.48347E+02 -2.54531E+03  1.24347E+03 -1.86689E+03  3.06876E+03 -2.50462E+02
  1.29211E+03 -3.41154E+02 -3.17383E+02  1.03603E+03  3.16381E+01 -2.84422E+02 -8.36837E+02  1.72802E+03
 -8.08816E+02  6.31534E+02  8.25886E+01 -3.82451E+02 -8.19079E+02 -5.07181E+02 -4.19156E+02  7.18891E+02
 -1.54256E+03 -1.26550E+03 -6.21364E+02 -5.60810E+02 -2.33675E+02 -4.29148E+02 -2.38592E+02 -8.77658E+02
  4.06818E+02 -3.08988E+02 -4.30199E+02  6.39058E+02  3.81074E+02  8.47085E+02 -1.46134E+02  1.13921E+03
 -5.16705E+02  1.55171E+03 -5.88323E+02  1.22449E+03 -1.65760E+03 -7.49875E+02  2.96022E+02  3.24649E+02
 -1.27939E+03 -7.37823E+02  1.22249E+03 -6.43383E+02  5.84117E+02 -7.57781E+02  1.09178E+03  9.84393E+02
  1.58399E+02  1.84077E+02 -5.95120E+02  1.97683E+02 -2.07609E+02 -4.93702E+02 -4.95337E+01  4.21431E+02
  8.48874E+02  4.43838E+01  4.14540E+02  5.82997E+02  2.03487E+01  1.01996E+03 -1.05180E+02 -4.56678E+02
 -6.98010E+02  4.65837E+02 -9.43247E+02 -3.69215E+02 -1.37288E+03 -3.46711E+02  1.59278E+03 -4.52914E+02
 -6.12809E+02  4.82799E+02  3.51556E+02 -4.90305E+02  7.53570E+02 -1.80555E+03  7.75926E+02  2.65407E+02
 -8.88995E+02 -4.52420E+02 -4.26969E+02  8.93563E+02  9.33383E+01  3.79221E+02 -5.67527E+02  1.98112E+01
 -4.37510E+02  8.24131E+02  5.94361E+00 -5.67030E+02 -1.06895E+03  5.81514E+01 -3.24339E+02 -8.63562E+02
 -2.01697E+02  2.66494E+02 -4.19819E+02 -1.59257E+03  6.53608E+02 -1.10703E+03  5.10540E+02 -2.67742E+02
  6.68818E+02  4.71515E+01 -1.04191E+03  2.72293E+02 -1.00861E+03  1.28925E+03 -1.33277E+03  3.38539E+02
