 $NMID ID='MM_0lb_SNR200_11hz_g50_87.RAW', FMTDAT='(8E13.5)'
 TRAMP=1., VOLUME=1. $END
  3.09561E+05  9.07728E+02  3.37437E+05  2.51488E+05  8.57488E+04  3.40255E+05 -1.32808E+05  2.52237E+05
 -1.91082E+05  8.36623E+04 -1.12642E+05 -3.19642E+04  1.26106E+03 -5.12812E+04  5.29800E+04 -9.86718E+02
  3.57474E+04  5.28564E+04 -1.60162E+04  7.67125E+04 -6.08451E+04  6.32207E+04 -8.57291E+04  3.16541E+04
 -8.10733E+04 -1.11405E+04 -5.75224E+04 -5.31400E+04 -1.59138E+04 -6.98356E+04  2.86374E+04 -4.59666E+04
  4.10316E+04  2.95859E+03  1.71706E+04  4.82653E+04 -3.56180E+04  4.81034E+04 -6.77833E+04 -1.03443E+03
 -5.47520E+04 -5.75690E+04 -5.85900E+03 -7.85703E+04  3.43918E+04 -5.61639E+04  4.95268E+04 -1.79543E+04
  4.37436E+04  1.22587E+04  3.32780E+04  2.68353E+04  1.54613E+04  3.07729E+04 -5.61698E+03  2.68635E+04
 -2.18032E+04  1.12673E+04 -1.81866E+04 -5.95205E+03  6.36815E+03 -7.70890E+03  2.25707E+04  1.43759E+04
  6.49373E+03  3.65581E+04 -3.28330E+04  3.72543E+04 -6.43958E+04  1.84508E+03 -5.93003E+04 -4.37392E+04
 -1.28021E+04 -6.44095E+04  4.08382E+04 -4.57688E+04  6.00960E+04 -2.11571E+03  3.47696E+04  3.29072E+04
 -5.83997E+03  3.82652E+04 -3.13585E+04  1.76448E+04 -3.19391E+04 -3.54393E+03 -1.82789E+04 -1.20319E+04
 -8.33423E+03 -1.42966E+04  6.87296E+02 -2.05383E+04  7.70247E+03 -2.26701E+04  1.63224E+04 -1.32916E+04
  1.07921E+04  6.24029E+03 -8.79650E+03  1.24915E+04 -2.24404E+04 -5.72946E+03 -7.73257E+03 -3.64044E+04
  2.30158E+04 -4.51421E+04  4.87599E+04 -2.00805E+04  4.54869E+04  1.94700E+04  1.63214E+04  4.51978E+04
 -1.68617E+04  3.63120E+04 -2.79598E+04  2.49907E+03 -1.04004E+04 -2.77696E+04  2.18030E+04 -3.66413E+04
  4.29658E+04 -1.11877E+04  3.92700E+04  2.60026E+04  2.18569E+04  4.88413E+04 -7.73618E+03  5.41514E+04
 -3.39334E+04  3.68382E+04 -4.51393E+04  1.03583E+04 -4.43553E+04 -1.71722E+04 -2.44955E+04 -3.93479E+04
  8.10073E+03 -4.00260E+04  3.29271E+04 -1.50685E+04  3.19793E+04  1.19531E+04  4.67600E+03  1.89056E+04
 -1.51114E+04  9.81795E+03 -1.06029E+04 -8.19939E+03  6.11252E+03 -1.23775E+04  1.88344E+04  4.80630E+03
  1.29389E+04  2.09450E+04 -5.78932E+03  2.62035E+04 -2.34269E+04  1.33216E+04 -3.03479E+04 -4.30032E+03
 -2.34785E+04 -1.83658E+04 -9.85744E+03 -2.32057E+04  3.37645E+03 -2.26367E+04  1.84674E+04 -2.00669E+04
  2.92301E+04 -1.46048E+04  3.57769E+04  4.17693E+03  2.54002E+04  2.33199E+04  4.14841E+03  3.94430E+04
 -1.84781E+04  3.22610E+04 -2.93974E+04  1.19674E+04 -2.16749E+04 -9.68739E+03 -4.68680E+03 -1.53097E+04
  1.17078E+03 -1.53375E+03 -7.49795E+03  7.75127E+03 -1.81638E+04  5.37648E+03 -1.83585E+04 -8.57508E+03
 -1.11578E+04 -2.20528E+04  4.70092E+03 -2.52929E+04  1.67804E+04 -1.87230E+04  2.24641E+04 -1.74246E+02
  1.18777E+04  1.67516E+04 -1.06094E+03  2.07787E+04 -1.53730E+04  1.39908E+04 -2.00289E+04 -4.91198E+03
 -1.59721E+04 -1.88059E+04 -2.12983E+03 -2.54923E+04  1.24987E+04 -2.16761E+04  2.24856E+04 -1.05243E+04
  2.06756E+04 -9.33282E+02  1.39907E+04  5.19873E+03  7.74916E+03  1.40618E+03  1.03327E+04 -2.71229E+03
  2.09217E+04  2.83620E+03  2.33538E+04  1.71369E+04  1.56424E+04  3.53974E+04 -1.70343E+03  4.06974E+04
 -2.32354E+04  3.35570E+04 -3.84373E+04  1.75538E+04 -3.88212E+04 -2.17936E+03 -3.36916E+04 -2.19649E+04
 -1.33689E+04 -3.51512E+04  9.53550E+03 -2.89445E+04  2.41234E+04 -1.30167E+04  2.39631E+04  7.26858E+03
  8.89785E+03  1.74439E+04 -1.14044E+04  1.38119E+04 -1.87312E+04  2.06534E+03 -1.41090E+04 -1.24836E+04
 -6.24384E+02 -1.70657E+04  1.08971E+04 -1.31556E+04  1.11105E+04 -1.79358E+03  3.58016E+03  7.28139E+03
 -8.78733E+03  4.08443E+03 -8.01216E+03 -5.97011E+03 -4.03248E+02 -1.58123E+04  1.07337E+04 -1.70067E+04
  2.05688E+04 -9.56827E+03  2.11227E+04  2.96024E+03  2.03092E+04  1.53557E+04  8.71890E+03  2.50001E+04
 -5.33655E+03  2.73611E+04 -1.80498E+04  1.68546E+04 -1.89560E+04  2.30574E+03 -1.36806E+04 -4.74795E+03
 -5.35534E+03 -6.47486E+03 -2.10316E+02  4.11965E+02 -3.36740E+03  2.35927E+03 -4.97723E+03  4.32339E+03
 -1.12788E+04 -2.33883E+03 -1.32140E+04 -1.13467E+04 -5.15344E+03 -1.64869E+04  7.33949E+03 -1.34152E+04
  9.53147E+03 -6.28357E+03  7.95903E+03  4.13255E+03  1.06102E+03  5.29121E+03 -8.64135E+03 -3.21072E+02
 -5.70528E+03 -9.74457E+03  9.19904E+02 -1.37807E+04  7.73019E+03 -1.62395E+04  1.86204E+04 -6.83631E+03
  2.01531E+04  1.81989E+03  1.38146E+04  1.24163E+04  2.44504E+03  1.47011E+04 -8.75568E+03  1.39422E+04
 -1.05633E+04  4.39510E+03 -5.83397E+03 -2.45683E+03 -5.63364E+02 -3.04594E+03  7.87860E+03 -8.53148E+02
  7.09168E+03  7.08138E+03 -1.04580E+03  9.85663E+03 -7.84383E+03  1.18224E+04 -1.33842E+04  1.80914E+03
 -9.30885E+03 -5.67392E+03 -8.89180E+02 -1.02822E+04  8.30927E+03 -6.94687E+03  8.08688E+03  2.54415E+03
  2.13331E+03  8.15333E+03 -7.10070E+03  1.04611E+04 -1.05005E+04  3.38463E+03 -1.22791E+04 -3.46505E+03
 -6.78172E+03 -1.22445E+04  3.81447E+03 -1.52676E+04  1.36748E+04 -9.59456E+03  1.39240E+04  3.14624E+03
  9.31526E+03  1.03977E+04 -2.55738E+03  1.30519E+04 -8.33491E+03  8.29462E+03 -1.12453E+04 -2.27669E+02
 -1.02116E+04 -9.11292E+03 -7.95905E+02 -1.03533E+04  5.16439E+03 -7.71457E+03  5.35063E+03 -2.81116E+03
  5.20509E+03  2.60046E+03 -1.53344E+03  1.62411E+03 -3.28175E+02 -2.07129E+03  1.87458E+03 -6.33721E+03
  7.92684E+03 -2.75528E+03  1.36827E+04  1.26922E+03  1.15185E+04  1.05805E+04  8.19352E+03  1.70355E+04
 -4.41268E+03  1.95452E+04 -1.71387E+04  1.53185E+04 -2.12167E+04  3.52465E+03 -1.78435E+04 -7.46188E+03
 -8.68970E+03 -1.41999E+04 -1.49561E+03 -1.26029E+04  5.40634E+03 -6.15678E+03  3.13923E+03 -3.96164E+03
  2.79726E+03 -2.37113E+03  2.89047E+03 -4.06842E+03  5.33076E+03 -2.48705E+03  6.03177E+03 -5.92949E+02
  9.24606E+03  1.82931E+03  4.60916E+03  8.48784E+03 -2.29579E+03  9.25473E+03 -9.61621E+03  6.57565E+03
 -1.31202E+04 -1.41948E+03 -7.49391E+03 -8.54045E+03 -8.43365E+02 -1.24595E+04  7.55977E+03 -1.27973E+04
  1.33219E+04 -7.54708E+03  1.59583E+04  1.66997E+03  1.08016E+04  1.18119E+04  1.58836E+03  1.54687E+04
 -6.10466E+03  1.28860E+04 -7.42882E+03  4.13845E+03 -6.83813E+03 -1.61321E+03 -9.18770E+02 -7.93560E+02
 -6.49909E+02  1.08924E+03 -1.82385E+03  2.36863E+03 -3.99778E+03  1.43573E+03 -8.42954E+03 -1.65430E+03
 -6.40839E+03 -8.36139E+03  9.87017E+02 -1.24847E+04  8.93595E+03 -1.07259E+04  1.18483E+04 -3.00368E+03
  1.17784E+04  5.78214E+03  5.88790E+03  1.13215E+04 -2.15229E+03  1.09860E+04 -8.45188E+03  7.45893E+03
 -1.18613E+04  1.80708E+02 -1.01654E+04 -6.71820E+03 -1.60356E+03 -1.09821E+04  5.73785E+03 -8.04115E+03
  7.20410E+03 -2.54473E+03  5.13119E+03  1.42097E+03  1.43898E+03  3.52651E+03  8.10365E+02  7.06088E+02
  1.47226E+03  2.52300E+03  2.58523E+03  2.67166E+03  3.75251E+03  4.99468E+03  2.83605E+03  4.71579E+03
 -2.44090E+03  8.36943E+03 -7.74275E+03  9.87446E+03 -1.06211E+04  2.59137E+03 -1.24777E+04 -6.43525E+03
 -4.67385E+03 -1.08573E+04  2.20444E+03 -1.30339E+04  6.98752E+03 -8.62875E+03  1.03760E+04 -2.85672E+03
  7.96738E+03  5.02688E+03  2.57380E+03  6.21423E+03 -3.50449E+03  6.17211E+03 -5.06034E+03 -6.76382E+02
 -2.44366E+03 -4.70662E+03  2.90214E+03 -4.27811E+03  4.34945E+03 -2.28782E+03  5.38891E+03  7.25373E+02
  3.85995E+03  4.17972E+03  1.22732E+03  1.88114E+03 -8.70447E+02  2.52945E+02  3.08149E+03 -2.91660E+02
  3.15537E+02 -2.14701E+03  4.49003E+03  1.99242E+03  3.24030E+03  7.54978E+03 -1.00134E+03  8.54110E+03
 -4.62848E+03  4.71410E+03 -7.01755E+03  2.66719E+03 -7.82631E+03 -3.20066E+03 -2.40543E+03 -5.61676E+03
  5.79789E+02 -4.04768E+03  2.36897E+03 -2.05232E+03  2.36410E+03  8.80134E+02 -2.36297E+03  3.89073E+03
 -4.07602E+03  2.32370E+03 -5.83595E+03 -1.95806E+03 -4.84892E+03 -6.68781E+03  1.84203E+03 -7.06764E+03
  2.94022E+03 -3.20281E+03  5.17518E+03 -1.13300E+03  5.51375E+03  3.21990E+02  8.54136E+02  4.85294E+03
 -2.24927E+03  1.55281E+03 -1.70150E+03 -1.79264E+03  2.07814E+03 -4.35779E+03  5.26756E+03 -3.55385E+03
  6.41713E+03  6.31855E+02  8.61369E+03  4.48700E+03  2.72595E+03  7.08898E+03 -1.85086E+03  6.40961E+03
 -5.49657E+03  2.77939E+03 -6.73765E+03 -1.38747E+03 -3.65002E+03 -5.06946E+03  1.39111E+03 -4.88202E+03
  4.45938E+03 -2.44301E+03  3.44338E+03  1.35502E+03 -3.03625E+02  3.93654E+03 -5.83549E+02  4.04460E+03
 -4.58168E+02  9.04733E+02 -2.34925E+03  1.58334E+03 -7.56620E+02  6.91055E+02 -1.04590E+03  1.88068E+03
 -2.31688E+03  3.97515E+03 -5.73164E+03  2.46396E+03 -7.66117E+03  1.72544E+03 -8.35989E+03 -6.19000E+03
 -4.21692E+03 -9.46297E+03  2.75272E+03 -1.04645E+04  5.92027E+03 -9.36066E+03  9.80083E+03 -3.24433E+03
  9.72137E+03  6.97803E+02  5.38024E+03  6.90171E+03  3.31114E+02  8.31918E+03 -3.05040E+03  3.71341E+03
 -3.83840E+03  1.95642E+03 -2.84882E+03 -3.07788E+02 -1.44394E+03  4.63615E+02 -5.58993E+02 -2.13201E+02
 -1.61518E+03 -6.58274E+02 -5.81635E+02 -1.86997E+03  3.52730E+02 -2.99217E+03  2.30744E+02 -3.16206E+03
  4.03257E+03 -2.26926E+03  3.98017E+03 -2.07056E+02  4.60701E+03  4.59491E+03  1.44941E+03  7.19323E+03
 -3.41647E+03  8.26777E+03 -7.13569E+03  4.94886E+03 -8.90411E+03 -2.63082E+02 -7.77005E+03 -6.40993E+03
 -2.51760E+03 -7.80036E+03  2.03918E+03 -7.13856E+03  4.29262E+03 -2.39992E+03  5.95978E+03  9.63094E+02
  3.69700E+03  3.29020E+03 -2.23557E+02  2.42823E+03 -8.39833E+02  2.99477E+02  1.04398E+01 -2.34454E+03
  2.22348E+03 -9.38394E+02  2.38697E+03  7.71460E+02  2.09436E+03  2.75589E+03  4.99987E+01  3.07045E+03
 -2.62162E+03  4.58173E+03 -4.68343E+03  6.74848E+02 -4.08896E+03 -3.05388E+03 -8.53175E+02 -6.25864E+03
  3.27647E+03 -3.21913E+03  7.03650E+03 -2.26388E+03  6.05930E+03  1.71483E+03  4.02666E+03  4.82260E+03
  7.54564E+02  4.07004E+03 -1.71574E+03  2.22904E+03 -2.45998E+03  2.25667E+03 -2.51007E+03  2.44114E+03
 -2.24077E+02 -6.48611E+01 -2.01456E+03  4.08843E+02 -2.55042E+03  6.53580E+02 -3.56259E+03  4.64449E+02
 -2.93413E+03 -2.50956E+03 -6.13821E+02 -4.68457E+03  2.40852E+03 -5.46527E+03  4.39498E+03 -3.04057E+03
  4.90426E+03  7.30460E+01  6.08998E+02  2.14220E+03 -3.00624E+02  4.86647E+03 -4.72588E+03  3.79284E+03
