 $NMID ID='MM_0lb_SNR200_13hz_g60_74.RAW', FMTDAT='(8E13.5)'
 TRAMP=1., VOLUME=1. $END
  3.08804E+05  1.39475E+03  3.37949E+05  2.49372E+05  8.59237E+04  3.36786E+05 -1.32597E+05  2.51217E+05
 -1.91179E+05  8.42654E+04 -1.12221E+05 -3.22713E+04  2.38256E+02 -4.99682E+04  5.37180E+04 -5.00426E+02
  3.50298E+04  5.13556E+04 -1.62567E+04  7.61232E+04 -6.11111E+04  6.50242E+04 -8.46014E+04  3.23408E+04
 -8.28715E+04 -1.10668E+04 -5.70582E+04 -5.23971E+04 -1.48183E+04 -7.09291E+04  2.61627E+04 -4.57932E+04
  3.98367E+04  3.59228E+03  1.67899E+04  4.79725E+04 -3.49776E+04  4.74024E+04 -6.83198E+04  6.00011E+02
 -5.43704E+04 -5.84066E+04 -7.19772E+03 -7.80127E+04  3.50282E+04 -5.52771E+04  4.93630E+04 -1.79606E+04
  4.47467E+04  1.19200E+04  3.18998E+04  2.57256E+04  1.50899E+04  2.96694E+04 -5.77688E+03  2.70536E+04
 -2.28265E+04  1.06444E+04 -1.60623E+04 -6.04082E+03  7.26355E+03 -6.28952E+03  2.38007E+04  1.25682E+04
  8.11393E+03  3.68390E+04 -3.34592E+04  3.76092E+04 -6.41232E+04  2.26328E+03 -5.87479E+04 -4.35877E+04
 -1.25634E+04 -6.62100E+04  4.09201E+04 -4.66557E+04  6.08946E+04 -2.94961E+03  3.35958E+04  3.47222E+04
 -5.52727E+03  3.82526E+04 -3.06480E+04  1.80765E+04 -3.23184E+04 -4.48787E+03 -1.68031E+04 -1.00329E+04
 -9.13488E+03 -1.36648E+04  1.58509E+02 -1.91392E+04  7.77757E+03 -2.37482E+04  1.62660E+04 -1.20511E+04
  1.11652E+04  5.82929E+03 -9.85124E+03  1.30754E+04 -2.19756E+04 -5.97404E+03 -8.57902E+03 -3.49671E+04
  2.45349E+04 -4.66849E+04  5.07173E+04 -1.90588E+04  4.74838E+04  1.94396E+04  1.74724E+04  4.48633E+04
 -1.55112E+04  3.40331E+04 -2.62045E+04  1.98866E+03 -1.10831E+04 -2.85376E+04  2.07900E+04 -3.54198E+04
  4.33109E+04 -1.03704E+04  3.79352E+04  2.51283E+04  1.97647E+04  4.86125E+04 -7.33094E+03  5.37638E+04
 -3.44220E+04  3.44590E+04 -4.65774E+04  9.93732E+03 -4.44545E+04 -1.81968E+04 -2.39795E+04 -3.93567E+04
  7.28351E+03 -3.90935E+04  3.28239E+04 -1.58870E+04  3.10413E+04  1.06791E+04  3.36817E+03  1.97201E+04
 -1.45997E+04  9.71714E+03 -1.01895E+04 -8.23930E+03  5.78570E+03 -1.06581E+04  1.91668E+04  5.74904E+03
  1.57051E+04  2.32565E+04 -6.58381E+03  2.52608E+04 -2.29505E+04  1.26343E+04 -3.03994E+04 -3.31143E+03
 -2.27870E+04 -1.81035E+04 -8.76444E+03 -2.20168E+04  4.36278E+03 -2.45619E+04  1.75388E+04 -1.88618E+04
  3.00306E+04 -1.45334E+04  3.51736E+04  4.09072E+03  2.67333E+04  2.26847E+04  4.91772E+03  3.74902E+04
 -1.98274E+04  3.13901E+04 -2.95625E+04  1.10482E+04 -2.15850E+04 -8.99287E+03 -4.60999E+03 -1.34243E+04
  2.57042E+03 -1.87438E+03 -6.47836E+03  7.81075E+03 -1.78624E+04  5.84211E+03 -1.64339E+04 -9.35229E+03
 -9.74879E+03 -2.11421E+04  6.18116E+03 -2.46968E+04  1.69866E+04 -1.83577E+04  1.92305E+04 -2.18374E+03
  1.16287E+04  1.48672E+04 -1.50687E+03  2.06420E+04 -1.40743E+04  1.15389E+04 -2.01936E+04 -3.25086E+03
 -1.61884E+04 -1.99126E+04 -2.45336E+03 -2.55796E+04  1.18925E+04 -2.05543E+04  2.12378E+04 -1.04872E+04
  2.00948E+04  2.29599E+02  1.36188E+04  5.19504E+03  7.69116E+03  1.73740E+03  1.11692E+04 -3.69213E+03
  1.93884E+04  2.72799E+03  2.13474E+04  1.69898E+04  1.48019E+04  3.18565E+04 -1.00370E+03  3.85553E+04
 -2.19057E+04  3.12431E+04 -3.47778E+04  1.68330E+04 -3.92980E+04 -2.85439E+03 -3.19273E+04 -2.22140E+04
 -1.37235E+04 -3.24252E+04  1.10141E+04 -2.90769E+04  2.49388E+04 -1.29989E+04  2.02234E+04  6.79412E+03
  6.48130E+03  1.47360E+04 -1.10885E+04  1.44595E+04 -1.78095E+04  3.53183E+03 -1.22778E+04 -1.16367E+04
 -1.01079E+03 -1.57278E+04  9.54882E+03 -1.15334E+04  1.07574E+04 -3.01342E+03  3.57176E+03  8.31608E+03
 -8.21264E+03  2.04160E+03 -7.08660E+03 -4.83691E+03 -1.87467E+03 -1.46645E+04  8.42168E+03 -1.64754E+04
  1.88805E+04 -9.47622E+03  2.14571E+04  3.39194E+03  1.90671E+04  1.48977E+04  8.58200E+03  2.33595E+04
 -3.19914E+03  2.73884E+04 -1.69567E+04  1.43012E+04 -1.92760E+04  2.49423E+03 -1.13045E+04 -4.19429E+03
 -6.24282E+03 -5.29528E+03 -1.07263E+03  1.48179E+03 -1.87357E+03  2.37697E+03 -6.51920E+03  3.52169E+03
 -1.30487E+04 -9.86187E+02 -1.27253E+04 -1.03869E+04 -4.98978E+03 -1.73976E+04  5.82536E+03 -1.34871E+04
  1.08682E+04 -6.66878E+03  8.52946E+03  3.91021E+03 -2.06288E+02  5.36904E+03 -7.17988E+03  3.39967E+02
 -6.05559E+03 -8.42115E+03 -8.36784E+02 -1.23308E+04  7.04149E+03 -1.28065E+04  1.56407E+04 -7.40450E+03
  1.80807E+04  2.68623E+03  1.44797E+04  1.24159E+04  2.93750E+03  1.47363E+04 -8.03250E+03  1.24105E+04
 -1.19439E+04  4.12321E+03 -4.48905E+03 -1.63836E+03  1.46802E+03 -4.02268E+03  7.22122E+03 -2.75340E+03
  5.55233E+03  3.92764E+03  2.07016E+03  1.11324E+04 -7.49057E+03  1.06621E+04 -1.19434E+04  1.40180E+03
 -6.97057E+03 -6.50131E+03 -7.23903E+02 -1.19555E+04  7.39734E+03 -4.79937E+03  6.57287E+03  1.73401E+03
  2.13398E+03  6.83799E+03 -5.67812E+03  9.42360E+03 -1.05026E+04  4.22931E+03 -1.04346E+04 -4.86751E+03
 -4.74738E+03 -1.17939E+04  2.86602E+03 -1.31019E+04  1.17481E+04 -8.48627E+03  1.28502E+04  4.06445E+03
  7.80176E+03  9.33106E+03 -8.40163E+02  1.09711E+04 -9.58406E+03  6.87293E+03 -1.17718E+04 -7.32256E+02
 -8.01939E+03 -9.28971E+03 -7.91283E+02 -9.30956E+03  5.93378E+03 -7.06823E+03  5.49683E+03 -3.47529E+03
  4.05751E+03  1.60624E+03 -2.39317E+03  1.43687E+03 -1.15922E+03 -1.27825E+03  1.64339E+03 -4.47167E+03
  7.89309E+03 -4.88297E+03  1.12597E+04  5.13075E+02  1.22813E+04  6.90851E+03  6.90595E+03  1.55656E+04
 -3.10468E+03  1.84274E+04 -1.52810E+04  1.29549E+04 -1.95947E+04  1.35161E+03 -1.73318E+04 -5.21532E+03
 -7.71648E+03 -1.33068E+04 -1.05890E+03 -1.09167E+04  4.85733E+03 -6.44207E+03  5.02178E+03 -3.84985E+03
  3.35069E+03 -3.67558E+03  4.07616E+03 -1.83301E+03  4.37691E+03 -2.05899E+03  5.53731E+03 -1.05085E+02
  7.60124E+03  1.90683E+03  2.57034E+03  6.62894E+03 -2.38657E+03  7.37885E+03 -8.10462E+03  5.64455E+03
 -1.05335E+04 -1.66392E+03 -6.29522E+03 -8.24772E+03 -6.17232E+02 -1.15884E+04  6.42820E+03 -1.08184E+04
  1.16198E+04 -5.61019E+03  1.35891E+04  4.52728E+02  8.97787E+03  8.91816E+03  1.27843E+03  1.23527E+04
 -5.21801E+03  1.10657E+04 -6.93409E+03  3.76663E+03 -5.51463E+03 -1.31915E+03 -2.43126E+03 -2.83989E+03
 -9.11468E+02 -6.86317E+01 -2.28986E+03  2.27634E+03 -2.80742E+03  1.82521E+03 -7.78914E+03 -4.94991E+02
 -4.71825E+03 -7.81758E+03  9.64244E+02 -9.24222E+03  6.55374E+03 -9.96282E+03  9.93775E+03 -1.64601E+03
  1.03600E+04  5.25919E+03  3.97775E+03  9.14910E+03 -3.15289E+03  1.00650E+04 -7.99539E+03  4.67069E+03
 -8.49602E+03  6.20565E+02 -5.47265E+03 -5.45581E+03  2.65790E+01 -8.14883E+03  3.99505E+03 -5.70253E+03
  4.26520E+03 -3.64184E+03  5.94105E+03  1.66349E+03  1.13537E+03  3.32612E+03  9.41244E+02  6.49863E+02
  2.73668E+03  3.37896E+02  2.73300E+03  7.94750E+02  1.97879E+03  4.33166E+03  4.88297E+03  5.74048E+03
 -2.83008E+03  7.15069E+03 -6.14030E+03  7.79386E+03 -1.08629E+04  2.38604E+03 -8.84670E+03 -2.48931E+03
 -3.07927E+03 -7.81523E+03  1.84923E+03 -1.00917E+04  5.03374E+03 -6.56180E+03  7.12540E+03 -2.96567E+03
  4.76027E+03  3.19543E+03  1.62089E+03  3.80603E+03 -9.73562E+02  3.25284E+03 -3.81937E+03  1.30365E+03
 -1.31954E+03 -4.20176E+03  2.15859E+03 -4.64651E+03  4.17105E+03 -1.43837E+03  3.15407E+03  1.88164E+03
  1.96743E+03  2.94899E+03  8.39642E+02 -3.72256E+02 -9.80154E+02  2.21392E+03  1.40614E+03 -7.99343E+02
  2.08390E+03 -7.01108E+02  2.53965E+03  1.16074E+03  2.67859E+03  5.10494E+03  2.85815E+02  7.64592E+03
 -4.07754E+03  4.82521E+03 -7.63276E+03  7.18854E+02 -6.89875E+03 -6.01810E+02 -1.55118E+03 -4.12616E+03
  2.41788E+03 -2.95996E+03  2.40458E+03 -2.66114E+03  2.49821E+03  1.99021E+03 -1.63175E+03  3.03999E+03
 -4.89559E+03  1.56341E+03 -4.21868E+03 -2.21762E+03 -3.14608E+03 -5.12865E+03  1.23946E+03 -5.08509E+03
  1.74541E+03 -4.68520E+03  4.33844E+03  3.96791E+02  3.29772E+03  1.55014E+03 -2.22758E+01  2.64799E+03
 -1.62942E+03  4.74355E+02 -2.28480E+03 -7.07176E+02  8.26268E+02 -2.81181E+03  4.99538E+03 -2.91146E+03
  5.27299E+03  9.51958E+02  5.93255E+03  3.53997E+03  2.08728E+03  5.25325E+03 -2.07198E+03  5.17458E+03
 -4.00339E+03  1.55476E+03 -4.47111E+03 -4.92604E+02 -2.41902E+03 -3.49159E+03  3.35735E+02 -2.50055E+03
  1.81828E+03 -1.22365E+03  2.17556E+03  1.21853E+03 -1.45910E+02  2.71875E+03  1.27030E+02  3.17303E+03
 -3.71151E+03  2.25011E+03 -1.81004E+03  1.74892E+03 -3.83478E+02  7.27577E+02  7.45202E+01  2.08988E+03
 -1.92060E+03  3.22019E+02 -3.83088E+03  2.70080E+03 -5.37168E+03 -6.14573E+02 -6.22240E+03 -3.42433E+03
 -3.66042E+03 -7.29666E+03  2.20510E+03 -9.14462E+03  5.50285E+03 -6.89083E+03  7.93656E+03 -2.14021E+03
  6.57560E+03  1.90387E+03  5.24386E+03  4.03026E+03  3.29921E+02  4.86784E+03 -7.22897E+02  4.64815E+03
 -3.31666E+03  2.01452E+03 -1.66544E+03 -1.52293E+03 -3.23443E+02  1.09404E+03 -1.17096E+03 -6.08517E+02
 -1.32011E+03 -1.01121E+02 -2.76019E+03 -4.21153E+01  4.37991E+02 -6.37246E+02  6.25610E+02 -9.18967E+02
  1.62754E+03 -1.05987E+03  2.13191E+03  4.66807E+02  3.72636E+03  3.23500E+03  9.06187E+02  4.99921E+03
 -2.09917E+03  5.75744E+03 -6.26216E+03  3.58752E+03 -6.31584E+03 -6.50254E+01 -4.96395E+03 -5.08560E+03
 -2.70031E+03 -6.82869E+03  1.38163E+02 -4.11768E+03  4.55336E+03 -1.68025E+03  3.26179E+03  7.38799E+02
  3.16409E+03  2.06544E+03 -1.17942E+01  6.40926E+02 -1.20579E+03 -1.51531E+03  1.55151E+03 -1.88836E+03
  7.05251E+02 -5.67956E+02  2.03230E+03  7.66473E+02  8.31314E+02  2.25721E+03  1.07162E+03  2.38204E+03
 -3.04682E+03  3.66627E+03 -2.64486E+03  8.56484E+02 -2.57477E+03 -3.36904E+03 -1.22224E+03 -3.72445E+03
  2.43579E+03 -4.27641E+03  3.26333E+03 -8.65294E+02  3.38172E+03  1.94339E+03  9.05903E+01  3.10277E+03
  5.06708E+02  3.25630E+03 -1.28277E+03  1.02256E+03 -1.81926E+03  2.32346E+03 -1.15679E+03  3.98779E+02
  6.34864E+02 -7.93446E+02 -3.49475E+02  1.30820E+02 -1.46097E+03  8.27838E+02 -2.88772E+03 -5.10627E+02
 -2.68558E+03 -2.03586E+03  1.32475E+03 -2.52384E+03  6.43977E+02 -3.34494E+03  2.83093E+03 -1.00109E+03
  2.86346E+03  6.72403E+02  1.97498E+03  8.65217E+02  7.43755E+01  2.48011E+03 -1.17181E+03  2.29266E+03
