 $NMID ID='MM_0lb_SNR200_7hz_g40_84.RAW', FMTDAT='(8E13.5)'
 TRAMP=1., VOLUME=1. $END
  3.10867E+05  8.90135E+02  3.39003E+05  2.50842E+05  8.47746E+04  3.39653E+05 -1.31257E+05  2.52444E+05
 -1.92194E+05  8.21886E+04 -1.12243E+05 -3.33705E+04  7.52562E+02 -5.28282E+04  5.30608E+04 -2.00270E+03
  3.70936E+04  5.23003E+04 -1.58327E+04  7.49215E+04 -6.11366E+04  6.40005E+04 -8.38252E+04  3.32124E+04
 -8.29395E+04 -1.16027E+04 -5.82733E+04 -5.27499E+04 -1.52165E+04 -7.22377E+04  2.87402E+04 -4.78813E+04
  4.20821E+04  4.97247E+03  1.82986E+04  4.95201E+04 -3.42460E+04  4.77445E+04 -6.87491E+04 -6.87461E+02
 -5.72145E+04 -5.88407E+04 -6.86178E+03 -7.79447E+04  3.55849E+04 -5.70934E+04  5.00106E+04 -1.80917E+04
  4.53410E+04  1.28730E+04  3.27003E+04  2.72586E+04  1.63604E+04  3.15643E+04 -5.46169E+03  2.77031E+04
 -2.16729E+04  1.14999E+04 -1.69631E+04 -5.91211E+03  6.79019E+03 -6.27700E+03  2.38372E+04  1.37500E+04
  5.48700E+03  3.79179E+04 -3.44918E+04  3.68253E+04 -6.55851E+04  1.32449E+03 -5.89346E+04 -4.48935E+04
 -1.25859E+04 -6.53834E+04  4.15515E+04 -4.89866E+04  6.20263E+04 -2.94661E+03  3.79709E+04  3.57679E+04
 -4.92432E+03  4.10295E+04 -3.33866E+04  1.95531E+04 -3.34513E+04 -3.94064E+03 -2.08940E+04 -1.35188E+04
 -9.82794E+03 -1.53558E+04 -9.88875E+02 -1.92286E+04  7.84940E+03 -2.44310E+04  1.67695E+04 -1.53640E+04
  9.78685E+03  7.39889E+03 -1.07092E+04  1.40478E+04 -2.43302E+04 -5.66565E+03 -1.02553E+04 -3.78764E+04
  2.65896E+04 -4.84487E+04  5.11203E+04 -2.12759E+04  5.05328E+04  1.86733E+04  1.78490E+04  4.85378E+04
 -1.59966E+04  3.56767E+04 -2.79526E+04  2.86509E+03 -1.15157E+04 -2.98555E+04  2.29959E+04 -3.82868E+04
  4.47940E+04 -1.19538E+04  4.25724E+04  2.54371E+04  2.18976E+04  5.24297E+04 -9.03366E+03  5.74089E+04
 -3.70634E+04  3.87575E+04 -4.99144E+04  1.07938E+04 -4.88965E+04 -1.82490E+04 -2.41627E+04 -4.46599E+04
  9.43998E+03 -4.30431E+04  3.52491E+04 -1.68354E+04  3.33799E+04  1.06583E+04  4.72681E+03  2.07964E+04
 -1.44067E+04  9.27076E+03 -1.17152E+04 -6.87483E+03  6.08390E+03 -1.36179E+04  1.92785E+04  6.02788E+03
  1.47038E+04  2.34050E+04 -4.84478E+03  2.71601E+04 -2.33353E+04  1.39413E+04 -3.11526E+04 -1.49343E+03
 -2.62981E+04 -1.89693E+04 -1.20807E+04 -2.69033E+04  4.89542E+03 -2.59529E+04  2.15361E+04 -2.26116E+04
  3.30584E+04 -1.34266E+04  4.00708E+04  4.19213E+03  2.79359E+04  2.68719E+04  5.06611E+03  4.18416E+04
 -2.14976E+04  3.53704E+04 -3.22442E+04  1.21072E+04 -2.11556E+04 -9.30433E+03 -6.29644E+03 -1.23743E+04
  1.75002E+03 -1.85866E+03 -7.94553E+03  9.66688E+03 -1.99615E+04  4.21531E+03 -1.99780E+04 -9.77302E+03
 -1.02773E+04 -2.67393E+04  6.12405E+03 -2.92030E+04  1.85906E+04 -2.10361E+04  2.48362E+04 -2.12478E+03
  1.62529E+04  1.65855E+04 -1.06315E+03  2.40006E+04 -1.82572E+04  1.60609E+04 -2.43181E+04 -4.07304E+03
 -1.81442E+04 -2.19831E+04 -2.45643E+03 -2.75961E+04  1.43431E+04 -2.43896E+04  2.36159E+04 -1.32136E+04
  2.43191E+04 -8.37796E+02  1.54467E+04  4.43965E+03  9.37332E+03  1.39990E+03  1.17917E+04 -1.71830E+03
  2.43263E+04  3.85691E+03  2.74972E+04  1.82027E+04  1.90283E+04  3.80105E+04 -2.30215E+03  4.82669E+04
 -2.39404E+04  3.94296E+04 -4.47569E+04  1.92848E+04 -4.53826E+04 -4.42049E+03 -3.79385E+04 -2.78974E+04
 -1.62233E+04 -3.94990E+04  1.43876E+04 -3.45566E+04  2.90634E+04 -1.41227E+04  2.60154E+04  9.18570E+03
  7.12957E+03  1.91090E+04 -1.36287E+04  1.70117E+04 -2.21840E+04  6.92099E+02 -1.70347E+04 -1.17789E+04
  5.82289E+02 -2.05228E+04  1.20933E+04 -1.55162E+04  1.41636E+04 -5.08570E+02  4.47399E+03  9.17123E+03
 -9.19061E+03  4.63154E+03 -9.63673E+03 -7.88381E+03 -1.21721E+03 -1.88252E+04  1.24695E+04 -1.95678E+04
  2.46045E+04 -1.38269E+04  2.95483E+04  4.50734E+03  2.38227E+04  2.00732E+04  9.68895E+03  3.16045E+04
 -6.01361E+03  3.57198E+04 -2.29874E+04  1.92028E+04 -2.37240E+04  4.53375E+03 -1.88586E+04 -5.64571E+03
 -5.85534E+03 -7.20987E+03 -2.14849E+02  9.45913E+02 -3.05230E+03  4.94448E+03 -8.89404E+03  6.47133E+03
 -1.61424E+04  1.35356E+02 -1.80365E+04 -1.22309E+04 -7.41814E+03 -2.12496E+04  6.30167E+03 -1.72001E+04
  1.42244E+04 -5.63733E+03  1.09353E+04  3.72398E+03 -1.75662E+03  6.44653E+03 -1.00064E+04 -2.36374E+02
 -7.58655E+03 -1.12270E+04 -8.55118E+02 -1.60438E+04  9.75734E+03 -1.77907E+04  2.16524E+04 -9.34841E+03
  2.60655E+04  4.15681E+03  1.86659E+04  1.54298E+04  2.83340E+03  2.03195E+04 -9.04970E+03  1.81184E+04
 -1.36367E+04  4.63399E+03 -8.70497E+03 -4.44605E+03  1.62297E+03 -4.09400E+03  8.13173E+03 -7.64523E+02
  7.11133E+03  6.38547E+03  5.58697E+02  1.39022E+04 -1.06995E+04  1.23983E+04 -1.61802E+04  4.21819E+03
 -1.16811E+04 -9.82222E+03 -1.70649E+03 -1.47827E+04  1.17570E+04 -8.84361E+03  1.06103E+04  3.25322E+03
  2.14965E+03  1.25326E+04 -8.69344E+03  1.43731E+04 -1.59598E+04  6.66933E+03 -1.61615E+04 -5.35336E+03
 -8.19673E+03 -1.80714E+04  1.83197E+03 -2.10346E+04  1.64298E+04 -1.25900E+04  1.91141E+04  2.53955E+03
  1.06805E+04  1.52320E+04 -1.67678E+03  1.59656E+04 -1.30642E+04  1.00187E+04 -1.42391E+04 -2.26685E+03
 -1.12466E+04 -1.27912E+04 -2.18346E+03 -1.33659E+04  7.44929E+03 -8.83211E+03  7.15289E+03 -5.01949E+03
  4.86621E+03  2.51631E+03 -2.48956E+03  3.69094E+03  2.92170E+02 -4.08905E+03  2.08118E+03 -9.60166E+03
  1.36796E+04 -5.51673E+03  1.89884E+04  4.03484E+03  1.74754E+04  1.34355E+04  1.10523E+04  2.41257E+04
 -6.01955E+03  2.73303E+04 -2.38928E+04  2.03443E+04 -3.04517E+04  3.45686E+03 -2.27905E+04 -1.04089E+04
 -1.23181E+04 -1.93150E+04  1.08618E+02 -1.69449E+04  6.00281E+03 -8.45181E+03  6.75989E+03 -6.55864E+03
  4.73562E+03 -2.05123E+03  5.56393E+03 -4.14057E+03  6.46296E+03 -3.09090E+03  8.27283E+03 -1.01780E+03
  1.26481E+04  1.71945E+03  6.80031E+03  1.20166E+04 -3.01005E+03  1.40662E+04 -1.33711E+04  1.05455E+04
 -1.82586E+04 -2.57981E+03 -1.08943E+04 -1.09694E+04 -4.06946E+02 -1.72009E+04  1.00742E+04 -1.71743E+04
  1.96949E+04 -8.78303E+03  2.32476E+04  2.34857E+03  1.47285E+04  1.75153E+04  3.34879E+03  2.07420E+04
 -6.11103E+03  1.58925E+04 -1.34752E+04  5.49725E+03 -8.95695E+03 -4.10064E+02 -4.20200E+03 -3.93189E+03
 -2.40972E+03 -1.54300E+03 -2.06534E+03  2.94049E+03 -7.83137E+03  1.75751E+03 -1.12686E+04 -2.66941E+03
 -9.07186E+03 -1.23486E+04 -7.06931E+02 -1.79893E+04  1.07074E+04 -1.56461E+04  1.66575E+04 -4.75592E+03
  1.74194E+04  9.16944E+03  9.81702E+03  1.53492E+04 -1.65622E+03  1.68928E+04 -1.25795E+04  1.16339E+04
 -1.61235E+04 -6.10375E+02 -1.36647E+04 -1.07072E+04 -1.02693E+03 -1.41222E+04  8.30471E+03 -1.26947E+04
  1.26520E+04 -3.60052E+03  7.45844E+03  4.81537E+03  3.30068E+03  6.46031E+03  8.59921E+02  1.88068E+03
  2.84081E+03  1.17455E+03  3.65721E+03  1.34847E+03  3.06302E+03  7.16934E+03  4.99225E+03  9.54119E+03
 -2.62989E+03  1.46853E+04 -1.32544E+04  1.26873E+04 -1.84278E+04  2.80499E+03 -1.99477E+04 -8.67644E+03
 -8.14376E+03 -1.80516E+04  2.12859E+03 -2.06894E+04  1.01343E+04 -1.39574E+04  1.60525E+04 -3.85176E+03
  1.15069E+04  7.20167E+03  1.03743E+03  9.12146E+03 -4.46597E+03  7.41452E+03 -7.83123E+03 -5.07051E+02
 -3.02042E+03 -8.41265E+03  2.81097E+03 -8.71646E+03  8.20110E+03 -3.81531E+03  7.51459E+03  1.20309E+03
  4.96349E+03  1.95465E+03  1.03051E+03  2.82367E+03 -1.38544E+03  3.66391E+03  1.02743E+03  3.99873E+02
  3.87543E+03 -2.50754E+02  8.03591E+03  3.31462E+03  2.18630E+03  8.88124E+03 -2.67019E+03  1.43377E+04
 -8.56742E+03  1.05243E+04 -1.23915E+04  2.61574E+03 -9.13258E+03 -4.71735E+03 -6.05146E+03 -7.25162E+03
  6.23489E+02 -8.82714E+03  4.75109E+03 -2.20578E+03  4.14446E+03  3.65358E+03 -1.10403E+02  5.58345E+03
 -8.01685E+03  2.54208E+03 -1.08803E+04 -4.43439E+03 -4.66529E+03 -9.91395E+03  2.43428E+03 -9.77345E+03
  5.10026E+03 -7.04796E+03  7.40029E+03  6.72729E+02  6.70781E+03  3.92395E+03 -1.11564E+02  6.29476E+03
 -2.30183E+03  2.44952E+03 -5.02084E+03 -3.37257E+03  2.95372E+03 -7.78185E+03  8.53492E+03 -7.60459E+03
  1.23493E+04  1.18295E+03  1.21158E+04  9.11617E+03  4.05035E+03  1.21534E+04 -3.81293E+03  1.32557E+04
 -9.99217E+03  5.75803E+03 -1.17225E+04 -2.34124E+03 -5.68236E+03 -7.45082E+03  1.58280E+03 -8.40246E+03
  8.65357E+03 -5.03988E+03  7.74695E+03  3.27276E+03  1.71757E+03  7.28420E+03 -1.31541E+03  6.16863E+03
 -2.69969E+03  3.86866E+03 -2.84190E+03  6.96996E+02 -1.30202E+03  8.23796E+02 -1.10194E+03  1.17084E+03
 -2.43380E+03  5.70346E+03 -9.81101E+03  4.17528E+03 -1.30178E+04  6.25393E+02 -1.42743E+04 -1.10992E+04
 -7.00383E+03 -1.74354E+04  3.56582E+03 -1.99398E+04  1.15229E+04 -1.35489E+04  1.72283E+04 -4.02770E+03
  1.61008E+04  5.49664E+03  1.25576E+04  1.31479E+04  2.78539E+03  1.40714E+04 -4.46688E+03  9.94853E+03
 -8.61519E+03  2.99692E+03 -5.79648E+03 -1.57620E+03  1.13431E+02 -8.45350E+02 -7.75359E+02 -5.55603E+02
 -2.08028E+03  1.26184E+03 -2.58375E+03 -8.01300E+02  5.20382E+02 -3.62593E+03 -1.07098E+03 -6.40458E+03
  5.28793E+03 -2.97928E+03  9.30330E+03  5.55932E+02  9.73228E+03  8.16171E+03  3.79795E+03  1.25059E+04
 -7.01463E+03  1.61439E+04 -1.18541E+04  8.31078E+03 -1.72230E+04 -9.95723E+02 -1.31151E+04 -1.19994E+04
 -4.81211E+03 -1.38488E+04  3.41892E+03 -1.42663E+04  8.47543E+03 -7.82109E+03  9.33435E+03  1.24661E+03
  6.24802E+03  4.12353E+03  5.15239E+02  3.10178E+03 -1.67245E+03 -1.46025E+03 -5.89438E+02 -2.37895E+03
  4.20732E+03 -7.90326E+01  4.79339E+03  2.73339E+03  2.88927E+03  5.75281E+03 -1.12381E+03  7.57762E+03
 -6.28809E+03  7.06875E+03 -8.98091E+03  1.10089E+03 -8.11441E+03 -6.60973E+03 -1.84634E+03 -1.25464E+04
  7.16122E+03 -1.00299E+04  1.08126E+04 -1.78340E+03  1.06104E+04  3.53641E+03  6.36467E+03  8.84845E+03
  4.76496E+02  8.84804E+03 -5.30543E+03  7.96631E+03 -6.21048E+03  3.75602E+03 -4.55300E+03  1.02901E+03
 -1.72670E+03  5.06637E+02 -1.86438E+03  2.50342E+03 -4.24666E+03  1.52941E+03 -8.25771E+03 -4.00410E+03
 -6.79263E+03 -6.09724E+03 -9.95989E+02 -8.63045E+03  4.62752E+03 -8.94132E+03  7.58556E+03 -3.80329E+03
  9.24853E+03  2.61989E+02  4.85773E+03  6.85052E+03  8.16488E+02  1.16865E+04 -6.53472E+03  7.80988E+03
