 $NMID ID='MM_0lb_SNR200_9hz_g45_100.RAW', FMTDAT='(8E13.5)'
 TRAMP=1., VOLUME=1. $END
  3.09277E+05  1.79941E+03  3.37738E+05  2.51639E+05  8.53920E+04  3.37735E+05 -1.32790E+05  2.50888E+05
 -1.90580E+05  8.30264E+04 -1.12842E+05 -3.24985E+04 -3.93049E+01 -4.96291E+04  5.31942E+04  4.36013E+02
  3.61558E+04  5.27004E+04 -1.58673E+04  7.56916E+04 -6.11685E+04  6.43480E+04 -8.53018E+04  3.00183E+04
 -8.29509E+04 -1.11911E+04 -5.77192E+04 -5.12528E+04 -1.40153E+04 -6.97157E+04  2.74506E+04 -4.79812E+04
  4.13582E+04  4.47610E+03  1.51136E+04  4.85467E+04 -3.48855E+04  4.67702E+04 -6.73338E+04  9.25350E+02
 -5.49284E+04 -5.78870E+04 -6.55855E+03 -7.89529E+04  3.48472E+04 -5.74101E+04  4.92237E+04 -1.79557E+04
  4.46490E+04  1.24387E+04  3.37813E+04  2.65826E+04  1.53011E+04  3.17118E+04 -6.63297E+03  2.57498E+04
 -2.15664E+04  1.26404E+04 -1.81661E+04 -5.97549E+03  7.30885E+03 -7.63725E+03  2.31382E+04  1.37660E+04
  6.63152E+03  3.68986E+04 -3.34675E+04  3.51811E+04 -6.63929E+04  9.94541E+02 -5.89080E+04 -4.47488E+04
 -1.21794E+04 -6.43802E+04  4.02446E+04 -4.74166E+04  6.09561E+04 -2.29676E+03  3.69414E+04  3.38547E+04
 -5.34804E+03  3.86466E+04 -3.25956E+04  1.70886E+04 -3.27659E+04 -3.82577E+03 -1.88989E+04 -1.14121E+04
 -9.94478E+03 -1.54577E+04 -2.44211E+02 -2.05327E+04  6.63822E+03 -2.21170E+04  1.77160E+04 -1.13312E+04
  1.01400E+04  7.14892E+03 -9.23464E+03  1.17175E+04 -2.25542E+04 -6.61516E+03 -8.45615E+03 -3.59139E+04
  2.42635E+04 -4.62167E+04  5.20680E+04 -2.14046E+04  4.78221E+04  1.90306E+04  1.72655E+04  4.54907E+04
 -1.57418E+04  3.53791E+04 -2.95044E+04  3.13578E+03 -1.06937E+04 -2.72871E+04  2.14319E+04 -3.67365E+04
  4.40831E+04 -1.10879E+04  3.92971E+04  2.52326E+04  2.17604E+04  5.05919E+04 -8.83029E+03  5.54849E+04
 -3.41475E+04  3.74638E+04 -4.64278E+04  1.02291E+04 -4.64351E+04 -1.77459E+04 -2.60168E+04 -4.16488E+04
  6.74882E+03 -4.09659E+04  3.50271E+04 -1.70056E+04  3.15123E+04  1.07633E+04  4.01487E+03  1.94207E+04
 -1.40824E+04  9.66920E+03 -1.03881E+04 -7.06603E+03  4.70934E+03 -1.09236E+04  1.79961E+04  4.98812E+03
  1.39773E+04  2.31092E+04 -6.32964E+03  2.67111E+04 -2.36530E+04  1.21860E+04 -3.12150E+04 -1.77191E+03
 -2.49397E+04 -1.75200E+04 -1.04425E+04 -2.40347E+04  3.38736E+03 -2.54818E+04  2.17314E+04 -2.22170E+04
  3.20720E+04 -1.39723E+04  3.55832E+04  6.24707E+03  2.73789E+04  2.31924E+04  4.53145E+03  4.18229E+04
 -2.13105E+04  3.25933E+04 -3.01295E+04  1.09718E+04 -2.15878E+04 -8.46742E+03 -3.84810E+03 -1.33450E+04
  1.69896E+03 -1.71156E+03 -7.64066E+03  8.41175E+03 -2.08282E+04  3.21625E+03 -1.94341E+04 -1.13620E+04
 -1.33845E+04 -2.36113E+04  5.98349E+03 -2.64379E+04  1.82428E+04 -1.98900E+04  2.14826E+04 -1.42839E+03
  1.41477E+04  1.61050E+04 -1.87081E+03  2.26028E+04 -1.62798E+04  1.29384E+04 -2.24036E+04 -5.68616E+03
 -1.73766E+04 -2.09361E+04 -1.03425E+03 -2.83807E+04  1.31695E+04 -2.19572E+04  2.20646E+04 -1.20437E+04
  2.17702E+04 -9.77518E+02  1.49618E+04  3.48475E+03  9.93995E+03  1.05918E+03  1.32599E+04 -1.92574E+03
  2.10590E+04  7.09695E+02  2.56653E+04  1.70816E+04  1.66948E+04  3.81075E+04 -2.22127E+03  4.38806E+04
 -2.55206E+04  3.47817E+04 -4.17372E+04  1.77736E+04 -4.29407E+04 -1.88861E+03 -3.53931E+04 -2.47862E+04
 -1.37113E+04 -3.52824E+04  1.36742E+04 -3.27825E+04  2.72710E+04 -1.37629E+04  2.45488E+04  8.27394E+03
  7.06515E+03  1.86025E+04 -1.24162E+04  1.46370E+04 -1.91547E+04  4.90988E+03 -1.42895E+04 -1.32922E+04
 -2.95389E+02 -1.89476E+04  1.18123E+04 -1.49278E+04  1.26967E+04 -2.46737E+03  3.01798E+03  9.55793E+03
 -9.50350E+03  6.19624E+03 -8.45238E+03 -7.88184E+03 -2.63637E+03 -1.90914E+04  1.16271E+04 -2.06869E+04
  2.23102E+04 -1.00921E+04  2.57849E+04  5.26255E+03  2.23068E+04  1.92191E+04  1.18446E+04  2.76682E+04
 -5.49670E+03  2.98611E+04 -2.15246E+04  1.98608E+04 -2.04115E+04  5.99688E+03 -1.49775E+04 -7.43148E+03
 -6.12043E+03 -7.02551E+03 -5.28981E+02  2.33185E+01 -3.59158E+03  2.23521E+03 -6.74604E+03  5.04091E+03
 -1.48479E+04 -1.42517E+03 -1.53937E+04 -1.04681E+04 -6.59592E+03 -1.79765E+04  7.16268E+03 -1.67245E+04
  1.25342E+04 -5.40855E+03  1.00860E+04  4.87026E+03 -2.15424E+02  6.57805E+03 -8.28046E+03  4.32543E+02
 -7.12872E+03 -1.11992E+04 -1.51646E+03 -1.51796E+04  8.24163E+03 -1.55923E+04  1.97240E+04 -1.03161E+04
  2.34219E+04  3.85451E+03  1.61141E+04  1.36183E+04  2.58255E+03  1.81945E+04 -8.68162E+03  1.44732E+04
 -1.37376E+04  3.92844E+03 -5.35287E+03 -3.32465E+03  3.05311E+03 -3.43673E+03  9.15887E+03 -1.57085E+03
  6.97030E+03  7.00170E+03  2.90557E+03  1.15860E+04 -7.65979E+03  1.02832E+04 -1.46582E+04  4.06769E+03
 -9.42704E+03 -7.28927E+03  1.08262E+03 -1.34180E+04  8.89597E+03 -5.82425E+03  8.73888E+03  4.52739E+03
  2.72167E+03  8.33645E+03 -8.32859E+03  1.27609E+04 -1.33994E+04  3.21251E+03 -1.27811E+04 -5.49600E+03
 -6.54328E+03 -1.44849E+04  4.90937E+03 -1.74058E+04  1.60310E+04 -9.56718E+03  1.77343E+04  2.74022E+03
  9.88707E+03  1.21218E+04 -1.27056E+03  1.60491E+04 -1.09905E+04  8.83795E+03 -1.17437E+04  1.91898E+01
 -1.12622E+04 -1.04726E+04 -1.97229E+03 -1.08022E+04  5.53912E+03 -8.65973E+03  7.96053E+03 -3.75038E+03
  4.09182E+03  1.67842E+03 -6.66394E+02  3.28839E+03 -9.82074E+02 -3.57355E+03  3.04205E+03 -7.08126E+03
  1.07071E+04 -5.37545E+03  1.62518E+04  2.11937E+03  1.44439E+04  1.00172E+04  1.06774E+04  1.92654E+04
 -3.58025E+03  2.33893E+04 -1.95432E+04  1.82952E+04 -2.67036E+04  3.90473E+03 -2.05966E+04 -8.23208E+03
 -8.84413E+03 -1.58009E+04 -9.63369E+02 -1.64948E+04  4.34449E+03 -7.01641E+03  5.39144E+03 -4.41219E+03
  2.80660E+03 -1.79704E+03  3.93535E+03 -4.84077E+03  5.16724E+03 -1.38165E+03  9.62527E+03 -2.37178E+03
  1.10378E+04  6.60446E+02  5.58515E+03  9.09051E+03 -2.40928E+03  1.12637E+04 -1.17661E+04  8.88129E+03
 -1.35042E+04 -2.06060E+03 -9.20514E+03 -1.04135E+04 -6.61904E+02 -1.57881E+04  9.68655E+03 -1.48338E+04
  1.60737E+04 -7.46150E+03  1.83189E+04  2.53165E+03  1.26143E+04  1.27750E+04  1.80828E+03  1.60740E+04
 -5.88817E+03  1.26285E+04 -1.02599E+04  3.83244E+03 -6.63996E+03 -1.89501E+03 -3.05408E+03 -3.76138E+03
 -2.38806E+03  6.86839E+02 -1.13963E+03  2.23844E+03 -5.05075E+03  2.23338E+03 -8.88862E+03 -1.91314E+03
 -7.55723E+03 -7.95449E+03  4.35088E+02 -1.49624E+04  8.87176E+03 -1.20345E+04  1.50624E+04 -3.05681E+03
  1.34173E+04  5.91881E+03  7.32935E+03  1.43163E+04 -1.20215E+03  1.40531E+04 -1.03112E+04  1.01662E+04
 -1.42448E+04  1.14011E+03 -1.03705E+04 -8.01759E+03 -3.44198E+03 -1.20923E+04  6.52282E+03 -9.17988E+03
  9.53551E+03 -3.17903E+03  6.77638E+03  2.93442E+03  1.30545E+03  5.01393E+03  1.94612E+03  2.56622E+03
  2.93376E+03  6.07797E+02  4.42926E+03  2.34820E+03  4.33291E+03  4.44192E+03  4.16221E+03  6.76090E+03
 -3.75418E+03  1.07895E+04 -1.21569E+04  1.29163E+04 -1.52963E+04  3.80932E+03 -1.35970E+04 -7.69418E+03
 -5.28501E+03 -1.44492E+04  1.05619E+03 -1.56142E+04  7.83605E+03 -1.16893E+04  1.32824E+04 -3.40529E+03
  8.30355E+03  3.84999E+03  2.60254E+03  8.95154E+03 -4.18013E+03  4.79270E+03 -4.74260E+03 -1.25304E+03
 -2.25003E+03 -6.18505E+03  2.36051E+03 -6.10838E+03  4.81280E+03 -3.72177E+03  5.39203E+03 -6.11065E+01
  2.51098E+03  3.72453E+03  1.87150E+03  3.42718E+03 -2.65716E+03  3.15895E+03  2.08166E+03 -1.04420E+03
  2.13498E+03 -1.28580E+03  6.98824E+03  4.08532E+03  3.95204E+03  8.60580E+03  3.20313E+02  1.07282E+04
 -5.66514E+03  4.01693E+03 -9.89798E+03  2.96477E+02 -8.04465E+03 -3.83192E+03 -2.10222E+03 -5.45028E+03
  2.26867E+03 -6.23729E+03  3.58665E+03 -2.48923E+03  2.66576E+03  2.78187E+03 -1.44058E+03  5.35649E+03
 -5.35518E+03  3.86441E+03 -5.64371E+03 -3.80982E+03 -3.65600E+03 -7.86936E+03  2.00163E+02 -8.69444E+03
  6.39313E+03 -4.96295E+03  5.08452E+03 -6.62553E+02  5.82416E+03  1.67337E+03  3.32337E+02  4.33657E+03
 -3.31519E+03  2.85853E+03 -2.77032E+03 -3.39077E+03  1.47841E+03 -6.24608E+03  9.61681E+03 -4.60582E+03
  9.50094E+03  7.75000E+02  1.10170E+04  6.74562E+03  2.58824E+03  1.08568E+04 -5.96666E+03  8.62094E+03
 -8.72485E+03  3.18844E+03 -8.03082E+03 -1.37317E+03 -5.43376E+03 -5.72232E+03  2.99824E+03 -6.77469E+03
  6.34227E+03 -3.68063E+03  6.08700E+03  1.73224E+03  2.11690E+03  5.44444E+03 -4.29946E+01  3.06727E+03
 -3.24533E+03  2.26511E+03 -2.22404E+03  3.41963E+03 -1.26894E+03  1.27598E+03 -1.93749E+03  3.30497E+03
 -1.29189E+03  4.47610E+03 -6.67354E+03  3.18792E+03 -8.75657E+03  8.08471E+02 -1.06395E+04 -6.40381E+03
 -6.22425E+03 -1.28317E+04  2.11241E+03 -1.39682E+04  9.88267E+03 -1.16899E+04  1.30651E+04 -5.10377E+03
  1.32083E+04  2.09040E+03  8.05045E+03  9.03163E+03  1.26749E+03  1.03882E+04 -6.12871E+03  6.77589E+03
 -5.26234E+03  1.68841E+03 -4.23328E+03 -8.05548E+02 -1.04271E+03 -1.63435E+03 -2.66134E+03  5.54792E+02
 -1.46536E+03  2.55359E+02 -1.15476E+03 -7.00336E+02  5.84779E+02 -1.40005E+03 -6.03888E+02 -4.29146E+03
  6.19169E+03 -3.79164E+03  5.60408E+03  1.03310E+03  7.13644E+03  4.32515E+03  1.86845E+03  1.11180E+04
 -6.07240E+03  1.18764E+04 -1.03191E+04  7.79377E+03 -1.23894E+04 -1.37753E+03 -9.32700E+03 -7.62155E+03
 -2.01418E+03 -9.52350E+03  3.80601E+03 -8.89075E+03  6.03586E+03 -5.61177E+03  6.47001E+03 -6.79700E+02
  3.27598E+03  2.81855E+03  3.02087E+02  2.72375E+03 -1.07751E+03 -8.14640E+02  3.00279E+02 -2.96556E+03
  3.71887E+03 -2.59548E+03  3.70064E+03  1.19203E+03  7.34364E+02  3.29104E+03 -4.56730E+02  4.24104E+03
 -2.87041E+03  4.99571E+03 -6.25477E+03  4.38216E+02 -5.18868E+03 -4.88617E+03 -1.41183E+03 -7.17743E+03
  5.40811E+03 -7.60780E+03  7.92036E+03 -2.44743E+03  6.40679E+03  3.05065E+03  5.13670E+03  7.25709E+03
  1.66138E+03  5.44792E+03 -2.52326E+03  5.41208E+03 -3.03277E+03  2.10142E+03 -3.69310E+03  3.46791E+02
 -1.13375E+03  1.36530E+03 -6.40488E+02  1.65290E+02 -3.27730E+03  2.14545E+02 -6.26435E+03 -1.43997E+02
 -5.62496E+03 -4.15760E+03 -6.22576E+02 -7.72254E+03  2.25652E+03 -7.55566E+03  5.86191E+03 -2.98139E+03
  6.37494E+03  8.32974E+02  4.47158E+03  6.11857E+03 -8.05480E+01  8.18257E+03 -5.69269E+03  5.14606E+03
