 $NMID ID='MM_0lb_SNR200_18hz_g40_2.RAW', FMTDAT='(8E13.5)'
 TRAMP=1., VOLUME=1. $END
  3.10151E+05 -2.81075E+01  3.36405E+05  2.50030E+05  8.48053E+04  3.37309E+05 -1.33778E+05  2.49727E+05
 -1.89897E+05  8.21591E+04 -1.10127E+05 -3.21676E+04  2.36353E+03 -5.04750E+04  5.35725E+04 -4.24131E+02
  3.45046E+04  5.28479E+04 -1.66035E+04  7.52284E+04 -5.89547E+04  6.16463E+04 -8.35446E+04  3.09143E+04
 -7.97015E+04 -1.07876E+04 -5.55270E+04 -4.94396E+04 -1.53224E+04 -6.83675E+04  2.63401E+04 -4.53862E+04
  3.95393E+04  4.38275E+03  1.59834E+04  4.63722E+04 -3.48459E+04  4.63368E+04 -6.51697E+04 -6.90618E+02
 -5.16573E+04 -5.52616E+04 -6.54040E+03 -7.49956E+04  3.35683E+04 -5.20735E+04  4.52105E+04 -1.72694E+04
  4.28875E+04  1.08885E+04  3.04712E+04  2.45176E+04  1.51229E+04  2.85493E+04 -4.23866E+03  2.56133E+04
 -2.24192E+04  1.33851E+04 -1.94622E+04 -4.10942E+03  3.85442E+03 -6.43503E+03  2.15270E+04  1.12130E+04
  7.43487E+03  3.22537E+04 -2.97952E+04  3.36205E+04 -6.10135E+04  2.53745E+03 -5.52298E+04 -4.10348E+04
 -1.14480E+04 -5.91310E+04  3.76176E+04 -4.25100E+04  5.60509E+04 -1.71185E+03  3.10257E+04  3.04974E+04
 -7.50973E+03  3.39048E+04 -2.91195E+04  1.28127E+04 -2.80815E+04 -5.50103E+03 -1.42279E+04 -9.27131E+03
 -7.22424E+03 -1.13533E+04  4.07180E+02 -1.67612E+04  6.67494E+03 -2.26644E+04  1.49934E+04 -1.39161E+04
  1.23586E+04  4.08921E+03 -6.25323E+03  1.20336E+04 -1.84457E+04 -1.85450E+03 -6.90468E+03 -2.98874E+04
  2.00722E+04 -4.14472E+04  4.42728E+04 -1.81616E+04  4.19466E+04  1.81281E+04  1.39403E+04  4.05340E+04
 -1.50319E+04  3.02890E+04 -2.35628E+04  2.51044E+03 -8.16184E+03 -2.59210E+04  1.93994E+04 -3.29990E+04
  3.77986E+04 -7.35702E+03  3.11031E+04  2.26924E+04  1.50891E+04  4.18048E+04 -7.34529E+03  4.47257E+04
 -2.84767E+04  2.94698E+04 -3.73923E+04  6.66315E+03 -3.73732E+04 -1.38884E+04 -2.05521E+04 -3.42355E+04
  6.45038E+03 -3.41104E+04  2.79533E+04 -1.32372E+04  2.68025E+04  1.05760E+04  3.54838E+03  1.75775E+04
 -1.28187E+04  7.67158E+03 -1.00796E+04 -8.29310E+03  5.73484E+03 -1.12114E+04  1.69976E+04  6.35200E+03
  1.18803E+04  2.23889E+04 -6.64204E+03  2.32289E+04 -2.04084E+04  8.85177E+03 -2.50033E+04 -5.85715E+03
 -1.57598E+04 -1.66383E+04 -5.54735E+03 -1.62181E+04  3.77567E+03 -1.46350E+04  1.31112E+04 -1.48353E+04
  2.12244E+04 -1.14323E+04  2.73920E+04  1.42423E+03  2.11339E+04  1.60621E+04  4.02525E+03  3.18782E+04
 -1.60975E+04  2.68448E+04 -2.57242E+04  9.35993E+03 -1.88780E+04 -1.03870E+04 -4.36906E+03 -1.37532E+04
  2.36163E+03 -4.08473E+03 -2.34682E+03  5.38429E+03 -1.31193E+04  6.35585E+03 -1.27648E+04 -5.97005E+03
 -9.10111E+03 -1.52581E+04  4.00091E+03 -1.85570E+04  1.28629E+04 -1.32038E+04  1.42183E+04 -1.78490E+02
  8.88763E+03  1.04336E+04 -1.33954E+03  1.50481E+04 -9.60376E+03  7.73044E+03 -1.53595E+04 -4.63665E+03
 -1.12076E+04 -1.37587E+04 -7.57634E+02 -1.86248E+04  8.25215E+03 -1.53383E+04  1.64643E+04 -6.51729E+03
  1.41157E+04  7.68984E+01  1.06538E+04  3.91337E+03  4.56976E+03  2.74622E+01  8.13709E+03 -1.80647E+03
  1.29648E+04  3.06852E+03  1.51223E+04  1.17908E+04  9.56788E+03  2.55386E+04 -2.95875E+03  2.70866E+04
 -1.53287E+04  1.98999E+04 -2.40668E+04  9.52469E+03 -2.53196E+04 -1.74685E+03 -2.02078E+04 -1.33557E+04
 -1.01011E+04 -1.99343E+04  6.18865E+03 -1.88314E+04  1.58928E+04 -1.08145E+04  1.55356E+04  4.67741E+03
  7.70193E+03  1.06439E+04 -7.23961E+03  9.79622E+03 -1.41756E+04  2.01508E+03 -1.08686E+04 -8.15847E+03
  3.96384E+02 -1.18036E+04  6.37235E+03 -9.83632E+03  8.49277E+03 -1.33003E+03  1.82307E+03  4.35893E+03
 -5.11404E+03  1.79572E+03 -2.22082E+03 -4.35001E+03  7.21663E+02 -9.86656E+03  7.68365E+03 -9.99139E+03
  1.23097E+04 -4.85669E+03  1.07943E+04  3.91614E+03  9.77130E+03  8.67043E+03  4.82900E+03  1.31170E+04
 -1.80107E+03  1.53409E+04 -9.00618E+03  1.08778E+04 -1.07502E+04  3.37027E+03 -8.54978E+03 -2.19291E+03
 -4.08241E+03 -4.21604E+03 -9.73058E+02  2.07541E+03 -2.24957E+03  1.48373E+03 -3.35131E+03  3.98906E+03
 -7.63769E+03 -1.60151E+02 -8.58793E+03 -6.91379E+03 -4.23409E+03 -1.21883E+04  2.94630E+03 -8.69616E+03
  6.50343E+03 -3.86329E+03  4.52551E+03  1.85828E+03  4.65594E+02  2.76848E+03 -3.29445E+03 -5.07029E+02
 -2.98468E+03 -4.85321E+03 -8.52104E+02 -8.08307E+03  3.67374E+03 -7.71559E+03  9.22568E+03 -4.05410E+03
  1.09673E+04  8.49158E+00  8.69071E+03  6.88477E+03  1.63237E+03  8.99717E+03 -4.30781E+03  7.81293E+03
 -7.22459E+03  1.63012E+03 -3.04860E+03 -1.52423E+03  1.23659E+03 -2.90703E+03  4.47997E+03 -1.17713E+03
  3.05391E+03  3.67697E+03  7.06587E+02  5.53845E+03 -4.36821E+03  5.29458E+03 -7.63853E+03  1.61666E+03
 -4.77305E+03 -3.33691E+03 -4.07129E+02 -6.69249E+03  3.44867E+03 -3.51816E+03  3.04801E+03  4.94537E+02
  2.14485E+02  3.60246E+03 -4.02169E+03  5.08867E+03 -4.75938E+03  2.22356E+03 -5.30729E+03 -2.37150E+03
 -2.55115E+03 -6.42605E+03  7.74534E+00 -8.47448E+03  5.46527E+03 -5.17134E+03  6.32028E+03  5.40172E+02
  4.47139E+03  5.20876E+03  4.48430E+02  8.19397E+03 -4.39811E+03  3.97539E+03 -4.33477E+03 -4.78224E+02
 -5.60789E+03 -5.44582E+03 -1.58180E+03 -5.33854E+03  2.24238E+03 -4.69151E+03  3.43887E+03 -2.83502E+03
  3.77850E+03 -1.16434E+02  9.37407E+01  1.30979E+03  1.34655E+03 -3.02177E+02  1.15426E+03 -7.54882E+02
  4.36955E+03 -1.47440E+03  5.29691E+03  9.78400E+02  5.24294E+03  2.30874E+03  5.65749E+03  7.00260E+03
 -2.06362E+03  9.66504E+03 -8.17043E+03  5.12645E+03 -9.69132E+03  9.71832E+02 -7.62510E+03 -2.54921E+03
 -4.61621E+03 -7.07651E+03 -6.93407E+02 -5.31837E+03  2.26216E+03 -2.68029E+03  6.94039E+02 -1.49024E+03
  1.22449E+03 -1.90838E+03  2.23334E+03 -2.32391E+03  3.27845E+03 -1.27330E+03  2.79227E+03 -5.66331E+02
  4.75254E+03  6.74277E+02  6.19475E+02  4.66513E+03 -7.57570E+02  2.51664E+03 -4.22894E+03  2.43328E+03
 -5.06865E+03 -1.46821E+03 -1.49981E+03 -3.89912E+03  7.52189E+02 -4.82565E+03  2.63430E+03 -5.70402E+03
  6.54034E+03 -3.00288E+03  5.57852E+03  5.07169E+02  4.44856E+03  3.35839E+03  6.65908E+02  4.87023E+03
 -2.62675E+03  4.73558E+03 -2.35933E+03  1.47814E+03 -1.40303E+02 -5.31633E+02  4.30281E+02 -1.82366E+02
 -6.23413E+01 -7.10219E+02 -1.79731E+03  2.57055E+03 -2.78544E+03  1.12831E+03 -4.11154E+03 -7.00014E+02
 -1.83541E+03 -3.91330E+03  8.53732E+02 -4.60942E+03  3.27012E+03 -5.12067E+03  2.96121E+03 -1.11994E+03
  3.88552E+03  2.24005E+03  2.00001E+03  2.30733E+03 -5.12239E+02  5.05479E+03 -2.35866E+03  3.75911E+03
 -4.50224E+03 -3.17179E+02 -3.07922E+03 -2.95222E+03 -4.43044E+01 -3.34576E+03  1.92192E+03 -1.75889E+03
  1.36267E+03 -1.20516E+03  2.00117E+03 -2.40205E+02 -6.03519E+02  1.74407E+03  3.69375E+02  7.06888E+02
  1.40410E+03  3.60564E+02  9.43208E+02  1.12166E+03  3.63022E+02  2.82801E+03  1.35653E+03  2.72722E+03
 -1.09488E+03  3.04396E+03 -2.31252E+03  4.05756E+03 -3.88542E+03  1.89809E+03 -4.89189E+03 -1.49401E+03
 -2.06583E+03 -2.07376E+03 -7.06173E+01 -5.67956E+03  2.47091E+03 -2.89239E+03  2.97496E+03 -1.34842E+02
  2.59850E+03  2.30621E+03  6.31865E+02  1.69515E+03  2.95792E+02  1.12606E+03 -9.22180E+02 -1.09566E+02
  4.26341E+02 -1.19073E+03  1.20267E+03 -2.10243E+03  1.21979E+03 -1.82942E+03  1.69309E+03  1.10876E+03
  8.94684E+02  7.05456E+02  1.72579E+03  4.00094E+02 -6.10218E+02  1.73771E+03  1.69066E+03  1.12113E+02
 -3.94502E+02 -3.78668E+02  2.02761E+03  1.79109E+02  5.39252E+02  2.10187E+03 -8.92470E+02  3.53813E+03
 -1.70974E+03  1.25482E+03 -1.95813E+03  8.38801E+01 -1.68132E+03 -5.57176E+02 -4.43316E+02 -1.99321E+03
  1.23522E+03 -1.50242E+03 -4.91509E+02 -1.09378E+03  1.33832E+03  1.30256E+03 -8.84993E+01  1.13864E+03
 -1.13546E+03  1.86366E+03 -1.99759E+03 -1.16448E+02 -1.31488E+03 -2.40793E+03 -1.67344E+02 -1.87525E+03
  1.41862E+02 -5.64474E+02  6.26389E+02  1.49019E+02  1.89203E+03 -2.46663E+02  5.08598E+02  1.41131E+03
 -8.25404E+02  6.17221E+02 -2.00026E+03  1.04299E+03  3.93714E+02 -1.01235E+03  2.53524E+03 -1.14007E+02
  1.44411E+03 -8.85470E+01  2.99624E+03  1.99041E+03  1.89670E+03  2.58512E+03 -5.44404E+02  1.93222E+03
 -2.29512E+03  1.63476E+02 -1.88181E+03  2.93768E+02 -1.30514E+03 -1.61073E+03  1.77389E+02 -8.97319E+01
  2.50080E+03 -1.18642E+03  2.20031E+02  6.09861E+02 -8.29559E+01  1.89721E+03  3.08153E+02  1.57970E+03
  2.28985E+02  9.26413E+02 -5.77935E+02  2.08130E+03 -8.47547E+02  2.79594E+02 -1.68210E+03 -8.27975E+02
 -1.19883E+03  9.49487E+02 -2.15838E+03  2.31317E+02 -1.79869E+03 -2.25048E+02 -1.23208E+03 -1.70386E+03
 -7.03799E+02 -1.85892E+03  3.53303E+02 -4.02509E+03  3.67986E+02 -2.85123E+03  3.76901E+03 -1.28937E+03
  3.49840E+03  1.84436E+02  8.97699E+02  2.26560E+03  3.26021E+01  2.60717E+03 -7.36881E+02  6.41422E+02
 -5.83216E+02  8.21938E+02 -5.70531E+02  2.06039E+02 -4.53671E+02  7.61894E+02 -1.49600E+03  4.92715E+02
 -1.18120E+03 -3.34187E+02 -4.15555E+02 -2.54218E+02 -2.49557E+01 -1.08030E+03  1.81242E+02  1.15191E+02
  1.04378E+03  1.78472E+02  5.67397E+02  7.34221E+02  2.15241E+03  1.00562E+03 -1.01535E+03  1.08649E+03
 -9.53973E+02  2.21711E+03 -1.42104E+03  1.05450E+03 -1.43557E+03 -4.90374E+02 -7.57655E+02 -1.12227E+03
 -7.62146E+02 -8.36303E+02  8.02996E+02 -1.22679E+03  1.22899E+03 -1.29938E+03  5.02507E+02 -4.98724E+02
  1.16746E+03 -2.71741E+01 -8.09965E+02  7.71322E+02 -4.54062E+02  2.47106E+02 -2.24136E+02  8.28732E+02
  1.59963E+03  7.48348E+02 -9.51720E+00  1.88814E+02  2.28556E+02  7.38267E+02  8.52392E+01  9.70140E+02
 -1.54495E+03  2.03901E+02 -1.55944E+03  4.31929E+02 -2.27910E+02 -1.15031E+03  2.09626E+02 -6.66058E+02
  7.69592E+01 -1.01231E+03  1.00391E+03 -6.78148E+02  1.49951E+03 -3.20096E+02  3.31547E+02  2.30954E+03
 -2.47884E+02  6.31553E+02  4.14722E+02  9.60940E+02 -1.06004E+03  2.06762E+02  3.01365E+02  5.65932E+02
 -9.13931E+01 -1.47840E+02 -1.72576E+02  4.86806E+01 -2.27174E+02  1.14443E+03 -1.37890E+02 -6.85592E+01
 -8.48714E+02  1.13741E+03 -1.42124E+03 -1.63249E+03  7.72025E+02 -1.81236E+03  8.56729E+02  9.70793E+01
  1.32733E+03  6.22002E+02 -1.30340E+03 -1.36352E+02 -2.71297E+02  6.51355E+02 -9.96919E+02  5.80482E+01
