 $NMID ID='MM_0lb_SNR200_17hz_g45_42.RAW', FMTDAT='(8E13.5)'
 TRAMP=1., VOLUME=1. $END
  3.10912E+05 -4.32893E+01  3.37200E+05  2.51114E+05  8.36695E+04  3.38071E+05 -1.32253E+05  2.50802E+05
 -1.89496E+05  8.21616E+04 -1.10902E+05 -3.36768E+04  7.78518E+02 -4.96360E+04  5.36578E+04  7.06678E+02
  3.63231E+04  5.18932E+04 -1.72848E+04  7.50464E+04 -6.00617E+04  6.20271E+04 -8.28529E+04  3.20075E+04
 -8.00865E+04 -9.99645E+03 -5.64609E+04 -5.09918E+04 -1.41232E+04 -6.88107E+04  2.74517E+04 -4.56617E+04
  4.00741E+04  4.26033E+03  1.55577E+04  4.64917E+04 -3.44670E+04  4.59258E+04 -6.55310E+04  3.01081E+02
 -5.35603E+04 -5.59025E+04 -6.05052E+03 -7.46972E+04  3.28522E+04 -5.32746E+04  4.67922E+04 -1.64567E+04
  4.27521E+04  1.08664E+04  3.12034E+04  2.47292E+04  1.58464E+04  2.83429E+04 -4.06174E+03  2.74644E+04
 -2.21347E+04  1.27386E+04 -1.89514E+04 -5.46365E+03  5.25043E+03 -8.30253E+03  2.08627E+04  1.11374E+04
  6.95588E+03  3.31077E+04 -3.11226E+04  3.43292E+04 -6.07445E+04  1.98495E+03 -5.54280E+04 -4.06224E+04
 -1.31393E+04 -6.23246E+04  3.80482E+04 -4.37377E+04  5.59690E+04 -1.86482E+03  3.25455E+04  3.02318E+04
 -5.94923E+03  3.39932E+04 -2.77710E+04  1.38363E+04 -2.99198E+04 -4.40456E+03 -1.32693E+04 -9.96928E+03
 -8.54969E+03 -1.06476E+04 -1.92615E+03 -1.66153E+04  8.13093E+03 -2.27842E+04  1.56251E+04 -1.51220E+04
  1.26332E+04  5.20781E+03 -5.87060E+03  1.35586E+04 -1.95759E+04 -2.92999E+03 -8.33365E+03 -3.07712E+04
  2.18384E+04 -4.20191E+04  4.47086E+04 -1.92447E+04  4.23182E+04  1.92828E+04  1.34476E+04  4.23343E+04
 -1.64783E+04  3.15482E+04 -2.42317E+04  2.15066E+03 -8.36237E+03 -2.67166E+04  2.03970E+04 -3.25866E+04
  3.90852E+04 -8.83933E+03  3.32119E+04  2.26578E+04  1.61587E+04  4.30955E+04 -6.82022E+03  4.70088E+04
 -3.06026E+04  3.19580E+04 -3.94161E+04  7.57393E+03 -3.88860E+04 -1.68120E+04 -2.11579E+04 -3.52814E+04
  6.58736E+03 -3.60530E+04  3.05799E+04 -1.34416E+04  2.82758E+04  9.98689E+03  2.90327E+03  1.81226E+04
 -1.28371E+04  7.05805E+03 -1.02152E+04 -8.42862E+03  5.66205E+03 -9.78051E+03  1.66199E+04  5.84493E+03
  1.26374E+04  2.12120E+04 -6.81692E+03  2.43839E+04 -2.16381E+04  9.53983E+03 -2.57981E+04 -5.51962E+03
 -1.81999E+04 -1.55979E+04 -6.53549E+03 -1.79788E+04  4.81720E+03 -1.57330E+04  1.32268E+04 -1.44174E+04
  2.22317E+04 -1.32512E+04  2.91982E+04  7.81466E+02  2.16793E+04  1.57620E+04  4.50678E+03  3.24008E+04
 -1.67463E+04  2.85642E+04 -2.63031E+04  9.66132E+03 -1.88317E+04 -1.04503E+04 -4.24943E+03 -1.44986E+04
  3.90848E+03 -5.35894E+03 -3.28712E+03  4.50661E+03 -1.34341E+04  5.27270E+03 -1.42721E+04 -5.87361E+03
 -9.28187E+03 -1.55421E+04  4.10081E+03 -1.97762E+04  1.34180E+04 -1.59496E+04  1.46177E+04 -1.37098E+03
  9.30129E+03  1.13675E+04 -1.05673E+03  1.62991E+04 -1.16365E+04  1.00953E+04 -1.58220E+04 -4.20280E+03
 -1.33185E+04 -1.51780E+04 -1.94611E+03 -2.01747E+04  9.47640E+03 -1.61695E+04  1.56207E+04 -7.83510E+03
  1.46709E+04  4.28994E+02  1.09689E+04  3.15857E+03  6.62880E+03  1.04029E+03  8.34363E+03 -7.41409E+02
  1.41852E+04  2.57135E+03  1.53703E+04  1.34542E+04  9.99500E+03  2.64617E+04 -3.85107E+03  2.77534E+04
 -1.62841E+04  2.23324E+04 -2.58649E+04  1.09985E+04 -2.87625E+04 -1.71423E+03 -2.32855E+04 -1.57548E+04
 -1.11574E+04 -2.30515E+04  8.20240E+03 -2.02937E+04  1.78824E+04 -1.08200E+04  1.74705E+04  3.86955E+03
  7.55955E+03  1.28602E+04 -7.85118E+03  1.22925E+04 -1.43526E+04  2.44662E+03 -1.19565E+04 -8.21238E+03
  1.41354E+02 -1.35166E+04  6.53413E+03 -1.02860E+04  8.19651E+03 -1.01449E+03  1.73234E+03  5.55977E+03
 -5.71842E+03  2.21794E+03 -4.21257E+03 -4.45447E+03 -5.35979E+02 -1.08691E+04  7.85373E+03 -1.03083E+04
  1.36350E+04 -6.45477E+03  1.37016E+04  2.34550E+03  1.17311E+04  9.88727E+03  5.03279E+03  1.57844E+04
 -2.28604E+03  1.65130E+04 -1.08329E+04  1.09896E+04 -1.30424E+04  3.36647E+03 -9.79993E+03 -1.94444E+03
 -4.28134E+03 -3.98422E+03 -2.58551E+02  9.68119E+02 -1.91092E+03  2.79570E+03 -4.01553E+03  2.98892E+03
 -9.38598E+03 -6.74040E+02 -9.06712E+03 -6.61446E+03 -3.65603E+03 -1.15398E+04  3.45267E+03 -8.54578E+03
  8.25305E+03 -4.21812E+03  6.94290E+03  1.47882E+03  5.44106E+02  3.24188E+03 -3.31219E+03 -3.82572E+02
 -3.15744E+03 -5.43787E+03 -9.20488E+01 -8.10607E+03  3.97391E+03 -9.57340E+03  1.09334E+04 -3.78611E+03
  1.33063E+04  3.87363E+01  9.22081E+03  6.81332E+03  2.41771E+03  8.84769E+03 -5.53926E+03  8.62305E+03
 -7.48709E+03  2.21039E+03 -3.75795E+03 -3.48957E+03  1.60733E+03 -1.71805E+03  5.83796E+03 -8.69642E+02
  4.27419E+03  4.63534E+03  1.40148E+03  6.41965E+03 -4.56198E+03  7.84723E+03 -8.67776E+03  2.32698E+03
 -6.48789E+03 -5.04036E+03  1.19227E+03 -6.78967E+03  4.32602E+03 -3.95621E+03  4.78640E+03  1.93907E+03
  4.90255E+02  4.87807E+03 -4.96134E+03  4.63001E+03 -6.14023E+03  3.53405E+03 -5.04248E+03 -5.44908E+02
 -2.75685E+03 -6.46267E+03  1.92406E+03 -9.53544E+03  6.90603E+03 -5.83697E+03  7.41488E+03  1.17435E+02
  4.67655E+03  6.89235E+03  7.76575E+02  7.59011E+03 -5.51807E+03  4.65485E+03 -4.56808E+03 -5.87895E+02
 -6.71248E+03 -6.14069E+03 -1.14914E+03 -5.03525E+03  4.11280E+03 -5.62871E+03  3.87536E+03 -3.68085E+03
  1.98786E+03 -1.15021E+02  6.56358E+02  1.93064E+03  6.09711E+01 -3.50269E+02  5.23562E+02 -3.06315E+03
  2.99593E+03 -1.54587E+03  5.96590E+03  9.78670E+02  7.31122E+03  3.84525E+03  5.56357E+03  8.68503E+03
 -1.62072E+03  8.85765E+03 -7.87181E+03  6.51960E+03 -1.28277E+04  1.66025E+03 -9.30398E+03 -3.02033E+03
 -4.56682E+03 -8.02706E+03  5.01089E+02 -5.91832E+03  2.10073E+03 -3.06994E+03  1.92165E+03 -1.78326E+03
  1.35272E+03 -2.05821E+03  2.38776E+03 -2.34286E+03  5.13343E+03 -1.50205E+02  2.96642E+03  3.98783E+02
  6.04599E+03  1.20116E+03  1.10586E+03  3.67708E+03 -2.14965E+03  4.39845E+03 -4.19489E+03  2.91367E+03
 -5.20086E+03 -1.89006E+03 -3.67894E+03 -3.47484E+03  3.40740E+02 -5.96636E+03  2.91499E+03 -6.57518E+03
  5.71352E+03 -4.75319E+03  8.11097E+03  1.52215E+03  5.43831E+03  4.45853E+03  2.66874E+03  6.84367E+03
 -2.42178E+03  5.76023E+03 -4.58419E+03  2.75631E+03 -2.76327E+03 -8.96199E+02 -9.35703E+02 -5.24282E+02
 -3.49668E+02  6.31327E+02 -5.00960E+02  2.82673E+03 -2.93973E+03  1.20713E+03 -5.61323E+03 -4.06687E+02
 -2.10419E+03 -4.87215E+03  2.85173E+02 -5.03446E+03  3.02913E+03 -3.61544E+03  4.55336E+03 -1.78223E+03
  4.88195E+03  3.25208E+03  2.10605E+03  4.13818E+03 -1.79177E+02  5.31533E+03 -5.17464E+03  2.64965E+03
 -4.36090E+03  1.37349E+03 -3.82129E+03 -3.49059E+03 -2.61586E+02 -4.39663E+03  3.38418E+03 -3.97712E+03
  2.67412E+03 -2.13222E+03  2.29050E+03 -4.22524E+02  2.58072E+02  7.89798E+02  6.75533E+02 -2.53247E+02
  2.02160E+03 -2.28780E+02  1.34594E+03  4.39517E+02  2.28061E+03  3.12482E+03  1.92902E+03  3.03097E+03
 -1.38507E+03  3.66268E+03 -3.59628E+03  4.68854E+03 -4.21547E+03  6.40538E+02 -5.10212E+03 -5.55084E+02
 -2.53037E+03 -4.08912E+03  3.31028E+02 -6.16468E+03  2.18752E+03 -2.58097E+03  4.38649E+03 -1.75069E+03
  2.22716E+03  2.89674E+03  9.77422E+02  2.12308E+03 -1.80510E+03  1.37520E+03 -2.10611E+03  4.31735E+02
 -7.15618E+01 -1.31707E+03  2.42012E+03 -1.26798E+03  2.03323E+03 -5.42949E+02  2.57954E+03  8.36639E+02
  2.13115E+03  9.42029E+02  9.50107E+02  1.84331E+02 -2.95642E+01  1.49423E+03  1.73250E+03  6.83479E+01
  2.04450E+02 -4.69050E+02  2.00674E+03  1.44912E+03  1.29152E+03  2.77246E+03  3.28865E+02  4.38287E+03
 -1.49716E+03  1.21131E+03 -2.55234E+03  1.15765E+03 -2.28298E+03  2.65800E+02 -1.16975E+02 -1.64731E+03
 -2.43307E+02 -9.14228E+02  4.09250E+02 -9.94183E+02  1.12837E+03  1.78482E+03  2.45998E+00  6.11308E+02
 -2.38438E+03  1.04267E+03 -1.14838E+03 -1.29488E+03 -6.64123E+02 -2.56581E+03  6.36025E+02 -1.27816E+03
  8.50346E+02 -1.10015E+03  1.32408E+03  1.13998E+02  6.28068E+02  1.28182E+03  6.98529E+02  2.27529E+02
 -5.18323E+02  5.31463E+01 -1.11859E+03 -5.49484E+02 -5.54525E+02 -9.04121E+02  2.50554E+03 -1.73035E+03
  1.23396E+03  9.56331E+02  4.11808E+03  1.15928E+03  8.00251E+02  2.93694E+03  3.46703E+02  3.15815E+03
 -1.81348E+03  1.17336E+03 -1.04265E+03 -2.91020E+02 -1.37915E+03 -1.14455E+03  1.08280E+03 -1.08008E+03
  2.49558E+03 -1.16391E+03  2.96364E+01  6.54395E+02  2.23014E+02  2.69486E+03  1.11476E+03  1.76665E+03
 -7.09870E+02  1.12900E+03  2.90223E+02  9.70426E+02 -3.46644E+02  2.31777E+03 -2.62588E+02  1.73359E+03
 -1.20353E+03  9.00972E+02 -1.95547E+03 -8.77231E+01 -2.71909E+03  9.85001E+01 -2.96898E+03 -1.24356E+03
 -1.44906E+03 -3.04889E+03  2.70865E+02 -3.56063E+03  2.18965E+03 -2.69123E+03  4.33485E+03 -2.05356E+03
  3.66790E+03  2.33257E+02  8.46445E+02  1.74924E+03 -1.06713E+03  2.27895E+03 -1.04919E+03  2.76528E+03
 -1.09004E+03  1.22790E+03 -6.01449E+02  1.28627E+02 -8.17601E+02  1.17241E+02 -3.53315E+02  3.41118E+02
 -1.18751E+03  3.92334E+02 -6.06492E+02 -1.55926E+02 -2.13803E+02 -1.20999E+03 -3.63326E+02 -1.69511E+03
  1.59616E+03 -7.00227E+02  6.82734E+02  5.51834E+02  2.00201E+03  1.48338E+03 -1.83063E+02  1.74118E+03
 -1.34273E+03  2.95277E+03 -3.72248E+03  2.42155E+03 -2.91698E+03 -3.93978E+02 -1.39329E+03 -1.70227E+03
 -2.07883E+03 -2.22247E+03  2.18975E+02 -1.28461E+03  1.39124E+03 -3.64237E+01  9.10730E+02 -8.02407E+02
  5.53928E+02  3.31673E+02 -2.37261E+02  9.56772E+02  7.95341E+02  2.24662E+02  2.81093E+02 -1.21101E+02
  8.91465E+02  4.20054E+02  4.48527E+02  2.43196E+02  1.29839E+02  6.21085E+02  2.59220E+02  5.82478E+02
 -1.59242E+01 -2.13529E+02 -1.87064E+03  1.51143E+03 -9.92980E+02 -7.79010E+01 -3.36249E+02 -1.80683E+03
  9.16695E+02 -1.90350E+03 -2.94919E+02 -2.58641E+02  1.49315E+03 -1.07320E+03  1.35869E+02  1.44941E+03
  4.04851E+02  9.11254E+02  4.66180E+02  7.66051E+02 -1.42496E+02  8.10809E+02 -1.44643E+03  4.47678E+02
  6.11844E+02 -3.28390E+02 -1.11770E+03  2.86999E+02 -7.27050E+02  2.74442E+02 -1.01781E+03 -7.78591E+02
 -1.48579E+03  1.11954E+03 -2.52259E+02 -1.65889E+03  1.53754E+03 -2.81024E+03  3.29363E+02 -5.93673E+02
  1.03846E+03 -9.72539E+01 -7.29027E+02 -3.72473E+02  2.64121E+02  5.37356E+02 -1.47660E+03  8.27039E+02
