 $NMID ID='MM_0lb_SNR200_20hz_g40_13.RAW', FMTDAT='(8E13.5)'
 TRAMP=1., VOLUME=1. $END
  3.09998E+05  6.81905E+02  3.36381E+05  2.49458E+05  8.44677E+04  3.36929E+05 -1.33211E+05  2.50017E+05
 -1.89409E+05  8.22512E+04 -1.10990E+05 -3.31717E+04  2.03582E+03 -5.06378E+04  5.41728E+04  2.60168E+01
  3.68618E+04  5.34218E+04 -1.64213E+04  7.39866E+04 -6.03104E+04  6.23690E+04 -8.26508E+04  3.16605E+04
 -7.94104E+04 -1.03063E+04 -5.55339E+04 -4.85851E+04 -1.45425E+04 -6.68076E+04  2.52013E+04 -4.38252E+04
  3.81911E+04  3.58993E+03  1.49950E+04  4.64897E+04 -3.30893E+04  4.60549E+04 -6.52943E+04 -3.47226E+02
 -5.14771E+04 -5.54156E+04 -7.12700E+03 -7.52599E+04  3.19839E+04 -5.18009E+04  4.56325E+04 -1.61873E+04
  3.99037E+04  1.06287E+04  3.06853E+04  2.43802E+04  1.53958E+04  2.78645E+04 -4.92034E+03  2.62695E+04
 -2.14015E+04  1.28265E+04 -1.83484E+04 -2.91431E+03  3.41098E+03 -8.05946E+03  2.00888E+04  1.07841E+04
  8.51165E+03  3.26311E+04 -2.96409E+04  3.18936E+04 -6.05306E+04  2.51411E+03 -5.38883E+04 -4.14091E+04
 -1.25769E+04 -5.94941E+04  3.73440E+04 -4.15312E+04  5.43915E+04 -1.13756E+03  3.21757E+04  3.00427E+04
 -5.96319E+03  3.18274E+04 -2.80192E+04  1.19336E+04 -2.67738E+04 -7.11678E+03 -1.26117E+04 -8.98207E+03
 -5.52789E+03 -1.07484E+04  2.95213E+02 -1.65205E+04  6.36759E+03 -2.25615E+04  1.42779E+04 -1.48631E+04
  1.38033E+04  3.86300E+03 -5.21678E+03  1.31838E+04 -1.84599E+04 -1.80450E+03 -7.00373E+03 -2.89117E+04
  2.05817E+04 -3.93661E+04  4.29135E+04 -1.83693E+04  3.99308E+04  1.76013E+04  1.35270E+04  4.02894E+04
 -1.48025E+04  3.04745E+04 -2.30443E+04  1.06988E+03 -8.12095E+03 -2.66046E+04  2.11703E+04 -3.10541E+04
  3.69359E+04 -7.39866E+03  2.88427E+04  2.17598E+04  1.39225E+04  4.06083E+04 -6.76977E+03  4.20742E+04
 -2.60926E+04  2.79836E+04 -3.54006E+04  7.89578E+03 -3.66152E+04 -1.40373E+04 -1.88757E+04 -3.26818E+04
  6.56687E+03 -3.19720E+04  2.77060E+04 -1.08895E+04  2.63783E+04  1.04299E+04  2.39822E+03  1.75372E+04
 -1.25921E+04  5.67319E+03 -9.75473E+03 -8.12570E+03  6.34830E+03 -9.77098E+03  1.76049E+04  7.43886E+03
  1.21836E+04  2.16839E+04 -6.83666E+03  2.21726E+04 -2.19300E+04  8.55988E+03 -2.32309E+04 -7.18337E+03
 -1.58672E+04 -1.63909E+04 -4.23959E+03 -1.55530E+04  3.09405E+03 -1.18196E+04  1.14468E+04 -1.25051E+04
  1.90603E+04 -1.06792E+04  2.76916E+04 -7.77991E+02  1.95351E+04  1.48895E+04  4.54076E+03  3.09625E+04
 -1.56602E+04  2.61007E+04 -2.57322E+04  8.48145E+03 -1.86773E+04 -1.14273E+04 -3.58220E+03 -1.49325E+04
  3.70053E+03 -4.36380E+03 -1.82607E+03  4.90970E+03 -1.11985E+04  6.13600E+03 -1.23362E+04 -3.66338E+03
 -8.11034E+03 -1.38779E+04  5.06201E+03 -1.71859E+04  1.18957E+04 -1.19602E+04  1.26665E+04 -1.31758E+03
  8.33203E+03  9.98081E+03 -4.81881E+02  1.44967E+04 -9.60986E+03  8.33456E+03 -1.38252E+04 -3.54213E+03
 -1.09758E+04 -1.33498E+04  2.06698E+02 -1.64058E+04  7.34049E+03 -1.38360E+04  1.51452E+04 -6.71049E+03
  1.38734E+04  5.30068E+02  9.39335E+03  3.64134E+03  4.75880E+03  6.00035E+02  6.04383E+03 -2.02900E+03
  1.16664E+04  1.90089E+03  1.37497E+04  1.13113E+04  7.28084E+03  2.20027E+04 -3.97385E+03  2.31666E+04
 -1.44351E+04  1.75825E+04 -2.16208E+04  7.32048E+03 -2.20258E+04 -2.90695E+03 -2.02396E+04 -1.16460E+04
 -1.02394E+04 -1.69794E+04  5.79973E+03 -1.69549E+04  1.46273E+04 -9.82054E+03  1.48361E+04  3.82498E+03
  6.29543E+03  1.00179E+04 -6.57132E+03  9.42404E+03 -1.20991E+04  2.91958E+03 -9.87931E+03 -7.55847E+03
 -2.79349E+02 -1.08252E+04  4.03060E+03 -8.19645E+03  6.75667E+03 -2.04661E+03  1.31812E+03  4.73834E+03
 -4.67976E+03  7.93127E+02 -3.24581E+03 -4.11772E+03  1.21162E+03 -9.55942E+03  7.53410E+03 -8.12945E+03
  1.14095E+04 -3.26238E+03  1.03178E+04  3.64323E+03  7.90613E+03  7.91803E+03  4.61442E+03  1.17881E+04
 -9.58950E+02  1.36085E+04 -7.42752E+03  8.47205E+03 -9.12397E+03  2.61752E+03 -7.87201E+03 -1.08971E+03
 -4.12825E+03 -3.08278E+03 -1.27644E+03  1.07900E+03 -1.58705E+03  1.18085E+03 -3.76497E+03  3.16723E+03
 -5.92641E+03 -1.80164E+03 -8.11439E+03 -6.61953E+03 -3.14314E+03 -9.08600E+03  3.40079E+03 -8.51824E+03
  5.74089E+03 -3.31785E+03  4.53485E+03  1.51930E+03  1.12608E+02  1.82334E+03 -3.53072E+03  4.93408E+02
 -2.37442E+03 -5.11684E+03  6.57367E+02 -6.33607E+03  3.85140E+03 -6.00767E+03  7.92462E+03 -2.96892E+03
  9.48879E+03  6.44730E+02  8.08070E+03  5.13635E+03  1.74913E+03  7.26942E+03 -4.82424E+03  7.57507E+03
 -5.88055E+03  2.31391E+03 -3.10428E+03 -9.57824E+02  1.46694E+03 -1.74697E+03  4.45365E+03 -6.94277E+02
  3.23827E+03  2.96623E+03 -1.07195E+02  5.85865E+03 -4.45052E+03  6.13353E+03 -7.69871E+03  1.91973E+03
 -3.56712E+03 -2.70601E+03  5.38503E+02 -6.87446E+03  2.32635E+03 -1.99442E+03  2.38358E+03  9.58450E+02
 -3.60077E+02  1.61706E+03 -3.10898E+03  4.42102E+03 -3.30546E+03  2.58744E+03 -2.79790E+03 -5.57993E+02
 -1.97379E+03 -4.90264E+03  7.90746E+02 -5.75806E+03  5.11359E+03 -3.71873E+03  5.24138E+03  1.53371E+03
  3.78028E+03  3.14374E+03  9.72380E+00  6.58964E+03 -3.83613E+03  3.76716E+03 -4.75232E+03  8.09896E+01
 -5.53659E+03 -4.33920E+03 -1.09081E+03 -3.27476E+03  2.10711E+03 -4.67545E+03  1.38211E+03 -2.10493E+03
  3.60285E+03  4.34431E+02  4.93717E+01  1.80393E+03  7.69307E+02  3.94377E+02 -5.01702E+02 -2.01976E+03
  2.39695E+03 -1.07421E+03  4.04664E+03  3.62447E+02  4.21649E+03  1.94645E+03  4.54400E+03  5.46181E+03
 -1.11279E+03  6.92294E+03 -6.53845E+03  4.28308E+03 -8.45061E+03  1.61857E+03 -6.33542E+03 -1.50688E+03
 -3.08237E+03 -5.34431E+03 -2.87629E+02 -5.08599E+03  1.87140E+03 -1.25544E+03  2.46489E+03 -1.69593E+03
  8.34221E+02 -1.67280E+03  1.47371E+03 -2.03395E+03  3.91778E+03 -1.80077E+03  3.15007E+03 -1.51509E+02
  3.70699E+03  6.58319E+02  4.08164E+02  2.29029E+03 -2.10516E+03  1.85372E+03 -3.62575E+03  1.93892E+03
 -4.23815E+03 -1.67865E+03 -1.31909E+03 -3.64957E+03 -1.79688E+02 -2.71829E+03  3.19222E+03 -4.20662E+03
  4.40809E+03 -3.00494E+03  5.34589E+03 -1.62452E+02  4.09772E+03  3.16387E+03  1.98169E+03  4.94825E+03
 -5.19613E+02  4.93488E+03 -2.20833E+03  1.20183E+03 -5.43551E+02 -1.32795E+03  2.11970E+01 -1.27649E+03
 -1.08193E+03  1.64483E+03 -2.82721E+02  1.21593E+03 -1.80496E+03  1.48864E+03 -3.62522E+03 -8.26189E+02
 -1.64865E+03 -2.91204E+03  6.83379E+02 -5.09992E+03  1.12850E+03 -3.58017E+03  2.28097E+03 -9.09271E+02
  3.19046E+03  1.01021E+03  1.12150E+03  2.09136E+03 -1.05123E+03  4.20630E+03 -1.41511E+03  2.49520E+03
 -2.58774E+03  2.82647E+02 -1.80850E+03 -1.92452E+03 -1.25573E+03 -3.68844E+03  9.07798E+02 -1.14199E+03
  1.85119E+03 -1.42920E+03  3.69479E+02  9.43651E+01  7.89523E+02  1.45928E+03  8.00188E+02  1.01016E+03
  2.19723E+03  9.98651E+02  9.53278E+02  4.90295E+02  5.82513E+02  1.82959E+03  1.12166E+03  7.76580E+02
 -1.24113E+03  7.26463E+02 -1.52477E+03  4.48399E+03 -1.28566E+03  1.62246E+03 -2.84325E+03  2.31954E+02
 -2.15320E+03 -2.62878E+03  7.01090E+02 -3.33839E+03  1.83575E+03 -1.55299E+03  1.12038E+03 -5.07639E+02
  2.20347E+03  1.13926E+03  1.28691E+03  1.15370E+03 -4.22133E+02  7.72911E+02 -2.52793E+02  5.84546E+02
 -3.65189E+02 -6.51026E+02  1.47646E+03 -1.58138E+03  9.45675E+02  2.04551E+01  1.05542E+03  3.12426E+02
  1.02808E+03 -2.82052E+02  1.44122E+03 -1.91682E+02 -1.12437E+02  9.36314E+02  7.03474E+02 -1.57071E+02
  1.05216E+02 -6.15324E+00  1.11681E+03 -2.31847E+02 -5.92460E+02  2.01763E+03 -3.29461E+02  2.04624E+03
 -2.49021E+03  2.33664E+02 -1.07952E+03  3.56229E+01 -1.07192E+03 -3.18251E+02 -5.71372E+01 -3.65203E+02
  4.46165E+02 -4.96865E+02  1.26565E+03 -8.44829E+02  5.03800E+02 -2.46829E+02 -6.52725E+01  3.43455E+02
 -2.49209E+03  3.64409E+02 -3.07334E+02 -8.20238E+02 -1.73438E+02 -2.00220E+03 -2.77045E+02 -1.78967E+03
 -5.07332E+02 -1.70598E+02  5.83829E+02  8.28793E+02  1.14677E+03 -1.35656E+03 -2.79632E+02  1.21390E+03
  7.78663E+02  5.51299E+02 -4.18791E+02 -6.33859E+02  7.12915E+02 -4.94216E+02  2.20020E+03 -4.42891E+02
  1.23755E+03  8.44157E+01  3.14320E+03  7.91917E+02  1.07586E+03  1.01624E+03 -7.07018E+01  1.24653E+03
 -1.48166E+03 -3.17381E+02 -1.57043E+03  2.00549E+02  4.38266E+02 -7.08649E+02  1.52917E+02  6.80517E+02
  1.55945E+03 -5.60918E+02  7.02734E+02  1.32956E+02  4.13018E+02  5.44047E+02  2.67120E+02  4.51052E+02
  2.03121E+02  4.00618E+02  1.41122E+03  5.72590E+01 -4.92995E+01 -2.46410E+02 -3.52105E+02 -1.06321E+02
 -2.08988E+02  1.41109E+03 -9.90447E+02  8.20081E+01 -1.60628E+03 -3.06762E+02 -1.57326E+03  2.70332E+01
 -4.56869E+01 -1.67811E+03 -1.43923E+02 -1.39608E+03  1.70154E+03 -1.07131E+03  2.74451E+03 -3.95919E+02
  1.74045E+03  6.29873E+02  1.15592E+03  9.42180E+02  6.49524E+02  1.45581E+03 -6.49735E+02  5.81681E+02
 -6.22718E+02  6.47509E+02  4.00900E+02  1.57979E+02 -9.37564E+02  1.27360E+03 -3.52686E+02  6.42362E+02
 -4.81694E+01  2.30433E+02 -1.28174E+03 -2.76722E+02  1.80651E+02 -9.98988E+02 -4.22129E+02 -1.09474E+02
  1.04570E+01 -6.57708E+02 -4.90440E+02 -1.29398E+02  1.05918E+03  9.88893E+02 -5.65692E+02  1.06320E+03
 -1.24933E+03  1.90480E+03 -9.81010E+02  1.38277E+03 -1.64347E+03 -7.30429E+02 -1.02013E+03 -1.29442E+03
 -7.06115E+01 -6.68884E+02  1.61714E+03 -8.25850E+02  5.71527E+02 -2.98212E+02  4.94695E+02 -2.40690E+02
 -8.80079E+02  4.88218E+02 -1.06223E+02  5.95848E+02 -1.99438E+02  1.84246E+01  3.15347E+02  6.11270E+02
  3.32317E+02  4.99703E+02  2.24084E+02  4.39406E+02  3.49459E+02  1.81520E+02  3.04280E+02 -7.24453E+02
 -6.97257E+02  1.06840E+03  8.48564E+02  2.14618E+02 -7.32887E+02 -8.67400E+02  4.34988E+02 -4.90908E+01
  5.31954E+01 -1.08016E+03  4.03705E+02 -9.86205E+01  9.01819E+02 -8.45939E+02  1.47717E+02  7.56196E+02
  9.34558E+02  9.56398E+02 -5.40928E+02  5.77140E+02 -1.02835E+03  4.32534E+02  1.08281E+03 -2.47368E+02
  2.19764E+02  5.92517E+02 -6.41874E+02 -6.96528E+02 -8.52363E+02 -4.63967E+02 -4.77683E+02  3.15904E+02
 -5.82212E+02  4.78422E+02 -4.07393E+02 -2.20136E+03  9.60235E+02 -7.21006E+02  7.37777E+02  1.32474E+03
  4.82385E+02  2.48996E+02 -3.04832E+02 -4.10613E+02  7.68124E+02  1.36439E+03 -1.03914E+02  2.10886E+03
