 $NMID ID='MM_0lb_SNR200_19hz_g40_57.RAW', FMTDAT='(8E13.5)'
 TRAMP=1., VOLUME=1. $END
  3.09437E+05  3.94045E+02  3.36450E+05  2.49962E+05  8.47002E+04  3.37191E+05 -1.32412E+05  2.50364E+05
 -1.88808E+05  8.08792E+04 -1.11771E+05 -3.17306E+04  1.67230E+03 -4.86626E+04  5.36537E+04  6.14190E+02
  3.58186E+04  5.23744E+04 -1.65710E+04  7.35977E+04 -6.04573E+04  6.30099E+04 -8.20222E+04  3.12809E+04
 -7.85915E+04 -1.07502E+04 -5.56442E+04 -4.89368E+04 -1.47213E+04 -6.79543E+04  2.60681E+04 -4.50706E+04
  3.88029E+04  3.85892E+03  1.50059E+04  4.71592E+04 -3.42451E+04  4.64804E+04 -6.36637E+04 -3.45939E+02
 -5.18700E+04 -5.55150E+04 -6.63366E+03 -7.34242E+04  3.38207E+04 -5.21084E+04  4.48813E+04 -1.51462E+04
  4.01943E+04  1.18923E+04  3.03447E+04  2.38134E+04  1.55329E+04  2.76738E+04 -4.51590E+03  2.74160E+04
 -2.15673E+04  1.21558E+04 -1.98679E+04 -4.67552E+03  3.56622E+03 -8.04873E+03  2.11386E+04  1.07068E+04
  6.91996E+03  3.25216E+04 -2.99101E+04  3.42054E+04 -6.13272E+04  2.50663E+03 -5.39527E+04 -4.02117E+04
 -1.30506E+04 -6.02617E+04  3.80512E+04 -4.18885E+04  5.42709E+04 -2.00803E+03  3.13378E+04  2.95961E+04
 -6.66265E+03  3.24954E+04 -2.87834E+04  1.29002E+04 -2.71099E+04 -5.03719E+03 -1.35196E+04 -1.02369E+04
 -6.28465E+03 -1.10615E+04 -1.02592E+03 -1.59757E+04  6.22345E+03 -2.19627E+04  1.51683E+04 -1.34333E+04
  1.22880E+04  3.39932E+03 -5.83529E+03  1.31604E+04 -1.87385E+04 -1.62528E+03 -7.54923E+03 -2.90514E+04
  2.00539E+04 -3.88606E+04  4.27789E+04 -1.74989E+04  4.12811E+04  1.78147E+04  1.39899E+04  4.09773E+04
 -1.49747E+04  2.89592E+04 -2.27408E+04  6.68392E+02 -9.30594E+03 -2.62401E+04  2.04297E+04 -2.98842E+04
  3.65064E+04 -7.15022E+03  3.09765E+04  2.38527E+04  1.46241E+04  4.20979E+04 -7.69266E+03  4.36811E+04
 -2.66804E+04  2.85470E+04 -3.56705E+04  7.87795E+03 -3.78040E+04 -1.44468E+04 -2.05431E+04 -3.32987E+04
  6.59960E+03 -3.39499E+04  2.83899E+04 -1.31005E+04  2.61575E+04  1.03176E+04  2.25584E+03  1.72866E+04
 -1.33501E+04  6.13993E+03 -9.18916E+03 -7.84823E+03  5.25194E+03 -9.89736E+03  1.72755E+04  6.81043E+03
  1.21005E+04  2.23665E+04 -5.81999E+03  2.30399E+04 -2.09278E+04  9.11647E+03 -2.55274E+04 -6.41677E+03
 -1.55441E+04 -1.57422E+04 -4.11421E+03 -1.59406E+04  3.86227E+03 -1.31633E+04  1.26803E+04 -1.41765E+04
  1.98760E+04 -1.11669E+04  2.70409E+04  1.64946E+03  2.11955E+04  1.66893E+04  4.56082E+03  3.26908E+04
 -1.51379E+04  2.66734E+04 -2.55435E+04  9.48028E+03 -1.93187E+04 -1.10457E+04 -3.31473E+03 -1.40980E+04
  2.44674E+03 -4.26903E+03 -2.06533E+03  4.90593E+03 -1.22034E+04  5.68729E+03 -1.26657E+04 -4.46720E+03
 -8.82124E+03 -1.46819E+04  4.18366E+03 -1.93489E+04  1.15151E+04 -1.40261E+04  1.36108E+04 -7.21269E+02
  8.60035E+03  9.57546E+03 -6.73647E+02  1.49770E+04 -9.47456E+03  8.79963E+03 -1.45953E+04 -3.42245E+03
 -1.01577E+04 -1.24387E+04 -7.76488E+02 -1.83321E+04  9.11060E+03 -1.48600E+04  1.52874E+04 -6.99918E+03
  1.34714E+04  2.69147E+02  9.04572E+03  3.97485E+03  5.24916E+03 -1.37818E+02  7.27580E+03 -7.25449E+02
  1.38043E+04  3.12348E+03  1.39378E+04  1.24887E+04  8.32428E+03  2.29431E+04 -2.68463E+03  2.54545E+04
 -1.42321E+04  1.82429E+04 -2.19835E+04  9.57333E+03 -2.35295E+04 -2.02979E+03 -2.01083E+04 -1.35724E+04
 -9.41137E+03 -1.85461E+04  5.99449E+03 -1.85439E+04  1.61306E+04 -1.00783E+04  1.44932E+04  3.38808E+03
  6.95773E+03  1.02964E+04 -7.25204E+03  1.03585E+04 -1.29249E+04  3.48805E+03 -9.61060E+03 -6.93824E+03
 -3.32330E+02 -1.13217E+04  5.60662E+03 -9.28148E+03  7.61557E+03 -1.56242E+03  1.38463E+03  5.15090E+03
 -4.39760E+03  1.14852E+03 -2.69743E+03 -3.45273E+03  1.68099E+03 -9.75117E+03  7.08184E+03 -9.70887E+03
  1.10409E+04 -3.81065E+03  1.13732E+04  3.35740E+03  1.00865E+04  8.32339E+03  4.78900E+03  1.24942E+04
 -3.05983E+03  1.48624E+04 -8.14850E+03  9.13480E+03 -9.71808E+03  3.58713E+03 -8.06886E+03 -7.49670E+02
 -3.68972E+03 -3.42279E+03 -1.57479E+03  1.59435E+03 -1.34891E+03  1.53245E+03 -3.45018E+03  3.31463E+03
 -8.14280E+03 -2.30967E+02 -8.01938E+03 -7.33604E+03 -2.74198E+03 -1.13138E+04  2.83899E+03 -8.45651E+03
  6.34612E+03 -3.77600E+03  4.44932E+03  2.36012E+03  1.02463E+02  2.80388E+03 -2.74648E+03  9.47316E+01
 -3.09800E+03 -4.78261E+03 -4.05413E+02 -6.20343E+03  3.14019E+03 -6.46283E+03  9.21859E+03 -3.36574E+03
  1.11217E+04 -5.98525E+02  8.53850E+03  5.68663E+03  8.19628E+02  7.97031E+03 -5.05196E+03  7.84425E+03
 -7.59699E+03  3.34712E+03 -2.87782E+03 -1.03027E+03  1.01532E+03 -9.25053E+02  4.35171E+03 -8.72916E+02
  3.06275E+03  2.94376E+03  8.03644E+02  7.32436E+03 -3.82041E+03  5.82671E+03 -6.71456E+03  1.57623E+03
 -5.34147E+03 -3.06096E+03 -4.49845E+02 -6.50049E+03  3.30837E+03 -3.38206E+03  3.28373E+03  3.56029E+02
  6.15501E+02  2.13909E+03 -4.60432E+03  3.76300E+03 -4.38066E+03  2.40700E+03 -4.86056E+03 -6.24753E+02
 -3.20738E+03 -5.11642E+03  9.33611E+02 -6.61020E+03  5.07812E+03 -4.33156E+03  6.44754E+03  1.18361E+03
  4.82944E+03  5.29626E+03 -4.71506E+01  7.62644E+03 -4.66371E+03  3.16103E+03 -5.44447E+03  3.40305E+01
 -5.45309E+03 -4.70987E+03 -3.79630E+02 -4.64461E+03  1.89761E+03 -4.33088E+03  2.58475E+03 -3.05391E+03
  3.20888E+03 -8.40293E+01  4.32291E+02  9.77882E+02  3.36884E+02 -2.38775E+02  7.82592E+02 -2.20327E+03
  2.12477E+03 -3.78710E+02  4.26843E+03  3.03134E+02  4.37932E+03  2.80121E+03  5.83070E+03  6.05350E+03
 -1.09319E+03  7.49143E+03 -6.64706E+03  6.12388E+03 -9.59230E+03  8.15827E+02 -6.64884E+03 -1.57183E+03
 -4.34756E+03 -5.65176E+03 -6.82988E+02 -4.51765E+03  1.40154E+03 -2.35540E+03  1.66675E+03 -2.54741E+03
  2.25065E+03 -2.25931E+03  2.04774E+03 -2.01357E+03  4.21968E+03 -1.02777E+03  2.79115E+03  1.63958E+03
  4.56758E+03  1.68991E+03 -1.14134E+02  3.31703E+03 -2.20308E+03  2.89782E+03 -3.56088E+03  2.46572E+03
 -4.09685E+03 -4.65509E+02 -1.56885E+03 -2.87901E+03  2.02653E+02 -5.41084E+03  2.61368E+03 -5.92281E+03
  4.46775E+03 -2.89890E+03  5.78133E+03 -4.88910E+02  4.14379E+03  3.84072E+03  1.97294E+03  6.07593E+03
 -1.65659E+03  4.54578E+03 -3.45642E+03  1.88530E+03 -1.28016E+03 -2.58916E+02 -1.75659E+02  1.00695E+02
 -8.57217E+02  6.73417E+02 -2.94830E+02  2.34313E+03 -1.61095E+03  1.27078E+03 -3.87836E+03 -1.19170E+03
 -2.26003E+03 -3.72862E+03  1.48099E+03 -4.49482E+03  2.63717E+03 -3.64949E+03  2.41316E+03  1.62434E+01
  3.12035E+03  2.14199E+03  1.95831E+03  3.36817E+03 -7.25786E+02  3.83921E+03 -2.27777E+03  2.17511E+03
 -3.63704E+03  1.81152E+03 -2.68020E+03 -2.55547E+03  1.21887E+02 -2.18742E+03  1.25312E+03 -2.26995E+03
  2.59146E+03 -1.27993E+03  9.52532E+02 -5.94155E+02 -3.37372E+02  2.30218E+03  8.03118E+02 -5.14272E+02
  1.21715E+03  7.55993E+02  9.63139E+02  9.46495E+02  7.99597E+02  1.98735E+03  1.25964E+03  1.58112E+03
  5.74671E+01  1.97486E+03 -2.23042E+03  3.87419E+03 -2.09744E+03  1.41055E+03 -4.84949E+03 -1.33526E+03
 -1.75003E+03 -3.35756E+03  9.58979E+02 -4.60026E+03  4.78896E+02 -2.58669E+03  3.20705E+03  5.28687E+01
  1.77918E+03  1.21153E+03 -2.85204E+02  1.77355E+03  8.23319E+00  1.94947E+03 -7.07769E+02 -3.59936E+02
 -5.53902E+02 -1.19859E+03  1.71470E+03 -1.84653E+03  6.52446E+02 -8.67300E+02  1.34332E+02  8.64808E+02
 -1.78812E+02  2.08984E+01  5.46081E+02 -5.96782E+02  1.01036E+03  1.22203E+03  1.61444E+03  2.03933E+02
  1.69209E+02 -2.88974E+02  2.78372E+03  1.01747E+03  5.43545E+02  2.22780E+03 -1.09476E+03  2.34972E+03
 -2.25262E+03  3.18476E+00 -3.14413E+03  4.23497E+02 -3.18794E+03 -8.15542E+02 -1.44906E+02 -5.51727E+02
  1.13552E+03 -1.53066E+03  3.98841E+02 -4.21047E+02  6.49617E+02  1.74207E+03 -6.58249E+02  1.28217E+03
 -2.47368E+02  4.53325E+02 -1.31876E+02 -1.51075E+03 -3.75039E+02 -2.42272E+03  7.72412E+02 -8.07642E+02
  3.70134E+02 -1.75022E+03  7.42808E+02 -1.60972E+02  1.24736E+03 -3.47106E+02 -1.23728E+02  1.28419E+02
  8.23584E+02  2.69793E+02 -1.19642E+03  4.05437E+02  5.79121E+02  3.59952E+02  2.56674E+03 -1.05147E+03
  4.26955E+02 -9.13363E+02  2.50962E+03  3.81831E+02  6.14165E+02  1.37675E+03 -1.95422E+03  1.37078E+03
 -2.25191E+03 -6.90257E+02 -1.11331E+03 -2.41987E+02 -1.66343E+03 -5.02949E+02  8.49949E+02  6.77760E+02
  9.78072E+02  3.19842E+02  2.04917E+03  5.92558E+02 -1.02091E+02  1.78928E+03  8.31794E+01  1.76232E+03
 -3.21515E+02  9.98783E+02 -4.12753E+02 -1.67291E+02  5.76267E+02  7.08670E+02 -1.71618E+02 -6.32514E+00
 -1.29386E+03  9.72261E+02 -2.07770E+03 -4.13208E+02 -2.35602E+03  1.14398E+03 -2.11831E+03 -1.03789E+03
 -7.26017E+02 -2.52996E+03  1.69185E+01 -2.53602E+03  7.94850E+02 -2.10593E+03  2.01728E+03 -8.28017E+02
  2.47042E+03  7.13612E+02  1.32266E+03  2.53987E+03 -5.75233E+02  7.77844E+02 -5.36603E+02  7.81939E+02
 -1.49744E+03  1.01121E+03 -7.87793E+02 -5.67440E+02 -4.34108E+02  1.37542E+03 -5.73348E+02  1.10176E+03
 -5.69051E+02  2.86662E+02 -1.11148E+03 -5.27504E+02 -2.51077E+02  4.87107E+01  5.68101E+02 -9.52022E+01
  1.47820E+03 -2.39747E+02 -1.87570E+02  1.11746E+01  1.34520E+03 -1.73017E+02  1.50683E+02  1.69655E+03
 -9.62711E+02  1.01424E+03 -1.39874E+03  1.38316E+03 -1.17632E+03 -7.10802E+02 -1.13017E+03 -1.54816E+03
 -9.58568E+02 -1.00818E+03 -3.50820E+02 -6.10825E+02  4.76627E+02 -6.14149E+02  6.89262E+02  6.82202E+02
  2.26688E+02  1.09193E+03 -1.26218E+03  8.51086E+02 -7.30045E+02 -8.91129E+02  5.09933E+02 -3.38361E+02
 -2.29690E+01 -2.97576E+02  7.22526E+02  6.55542E+02 -8.38873E+02  3.03886E+02  5.96176E+02  5.90416E+02
 -7.60686E+02  2.61456E+02 -4.00540E+02  6.30366E+02 -1.36247E+02 -3.28456E+02  4.34054E+01 -1.47514E+03
  8.74103E+02 -8.40066E+02 -3.23170E+02 -1.27288E+02  9.71887E+02 -5.39767E+02  5.51210E+02  5.25999E+02
  2.21560E+02  1.64453E+02 -8.94351E+02  5.15516E+02  1.22986E+02  1.35457E+03  4.27982E+02  1.09308E+02
 -7.08251E+02  5.03299E+00 -4.38802E+02  7.42419E+01 -5.54384E+01  4.08742E+01 -1.37106E+03 -1.21287E+03
 -7.27942E+02 -4.75642E+02  3.16181E+02 -1.53413E+03  6.66703E+02 -9.56322E+02  9.34879E+02 -3.46505E+02
  8.30595E+02  5.77981E+02 -6.90811E+02  1.34040E+03  1.45143E+03  1.09395E+03 -4.47869E+01  2.58137E+02
