 $NMID ID='MM_0lb_SNR200_17hz_g45_18.RAW', FMTDAT='(8E13.5)'
 TRAMP=1., VOLUME=1. $END
  3.10171E+05  4.56893E+02  3.37425E+05  2.49706E+05  8.43097E+04  3.37171E+05 -1.32010E+05  2.50652E+05
 -1.91139E+05  8.22809E+04 -1.10964E+05 -3.35840E+04  1.90877E+03 -5.05382E+04  5.35654E+04  8.57891E+02
  3.47674E+04  5.29603E+04 -1.69085E+04  7.56628E+04 -5.99709E+04  6.31938E+04 -8.37004E+04  3.19863E+04
 -8.08991E+04 -1.14902E+04 -5.59301E+04 -4.99929E+04 -1.40076E+04 -6.87486E+04  2.70935E+04 -4.47563E+04
  3.97371E+04  3.97940E+03  1.54612E+04  4.82588E+04 -3.39065E+04  4.57075E+04 -6.52040E+04 -1.00695E+03
 -5.34817E+04 -5.60211E+04 -8.19904E+03 -7.49494E+04  3.39357E+04 -5.40959E+04  4.67041E+04 -1.62309E+04
  4.29155E+04  1.20174E+04  3.09208E+04  2.49357E+04  1.61852E+04  2.84132E+04 -3.40053E+03  2.70505E+04
 -2.14775E+04  1.28493E+04 -1.98286E+04 -4.74528E+03  4.27723E+03 -8.27230E+03  2.21277E+04  1.09789E+04
  7.99235E+03  3.47696E+04 -3.05537E+04  3.44820E+04 -6.18050E+04  2.63966E+03 -5.59195E+04 -4.14340E+04
 -1.27163E+04 -6.08077E+04  3.89365E+04 -4.35702E+04  5.61188E+04 -2.62251E+03  3.14714E+04  3.12987E+04
 -6.27343E+03  3.31837E+04 -2.92942E+04  1.37566E+04 -2.91702E+04 -4.78215E+03 -1.60873E+04 -1.00912E+04
 -8.37145E+03 -1.12981E+04 -1.65141E+03 -1.66795E+04  6.71610E+03 -2.29856E+04  1.45381E+04 -1.42199E+04
  1.19465E+04  3.79480E+03 -7.17393E+03  1.34347E+04 -1.89875E+04 -3.86187E+03 -8.37446E+03 -3.10643E+04
  2.17483E+04 -4.15149E+04  4.50475E+04 -1.85981E+04  4.25418E+04  1.77943E+04  1.44550E+04  4.26805E+04
 -1.58678E+04  3.14954E+04 -2.33366E+04  4.97172E+02 -8.49879E+03 -2.62023E+04  2.06466E+04 -3.23743E+04
  3.87029E+04 -8.87073E+03  3.29969E+04  2.34600E+04  1.47580E+04  4.39416E+04 -7.45753E+03  4.60995E+04
 -2.92324E+04  3.03566E+04 -3.75575E+04  9.86896E+03 -3.97793E+04 -1.61381E+04 -2.27637E+04 -3.54471E+04
  7.15298E+03 -3.56444E+04  3.04327E+04 -1.34431E+04  2.72745E+04  9.37370E+03  3.13436E+03  1.83493E+04
 -1.38285E+04  6.75079E+03 -9.18556E+03 -7.64987E+03  6.35947E+03 -9.90835E+03  1.81333E+04  5.78827E+03
  1.22796E+04  2.14131E+04 -5.63559E+03  2.28067E+04 -2.15866E+04  9.16799E+03 -2.58476E+04 -6.67364E+03
 -1.89013E+04 -1.57296E+04 -6.41591E+03 -1.78385E+04  3.94358E+03 -1.57336E+04  1.41176E+04 -1.45213E+04
  2.25152E+04 -1.24396E+04  2.77381E+04  2.40329E+03  2.15959E+04  1.87158E+04  3.72462E+03  3.34667E+04
 -1.68396E+04  2.74749E+04 -2.62270E+04  1.07987E+04 -1.96745E+04 -1.02205E+04 -3.27171E+03 -1.47234E+04
  1.44017E+03 -3.63387E+03 -3.96126E+03  6.06954E+03 -1.30637E+04  5.68400E+03 -1.45467E+04 -5.60911E+03
 -9.44875E+03 -1.56952E+04  4.42358E+03 -2.01965E+04  1.34513E+04 -1.33878E+04  1.48251E+04 -1.74296E+03
  9.48168E+03  1.11624E+04 -1.15024E+03  1.61525E+04 -1.04538E+04  7.70739E+03 -1.79132E+04 -3.28127E+03
 -1.28116E+04 -1.40173E+04 -2.17625E+03 -1.94322E+04  9.35980E+03 -1.60334E+04  1.71491E+04 -7.96798E+03
  1.47774E+04  4.45276E+02  9.14419E+03  3.17974E+03  5.61726E+03  9.80755E+02  7.23056E+03 -8.66280E+02
  1.37890E+04  2.16628E+03  1.54938E+04  1.38399E+04  9.51599E+03  2.63834E+04 -4.04984E+03  2.86671E+04
 -1.78036E+04  2.20742E+04 -2.64433E+04  1.16013E+04 -2.67576E+04 -1.75103E+03 -2.27741E+04 -1.51425E+04
 -1.11559E+04 -2.18794E+04  7.25505E+03 -2.10248E+04  1.78178E+04 -1.14369E+04  1.74810E+04  4.57024E+03
  6.07385E+03  1.21604E+04 -7.00998E+03  1.14784E+04 -1.43837E+04  2.83175E+03 -1.17199E+04 -8.69883E+03
 -4.98780E+02 -1.35668E+04  5.40639E+03 -9.81211E+03  8.71988E+03 -5.73348E+02  5.62623E+02  6.38211E+03
 -6.07548E+03  1.30366E+03 -3.39562E+03 -4.78116E+03  6.57936E+01 -1.17975E+04  7.68148E+03 -1.10694E+04
  1.30523E+04 -5.39701E+03  1.25284E+04  1.97047E+03  1.19013E+04  9.96131E+03  5.18644E+03  1.54882E+04
 -1.77548E+03  1.59927E+04 -1.11264E+04  1.06689E+04 -1.28601E+04  2.66131E+03 -8.69041E+03 -9.11759E+02
 -4.79324E+03 -3.61985E+03  2.56020E+02  1.71247E+03 -1.28589E+03  2.91349E+03 -3.74983E+03  3.86836E+03
 -8.91789E+03 -9.79284E+02 -9.60367E+03 -8.57255E+03 -5.27832E+03 -1.13356E+04  4.59880E+03 -1.02734E+04
  8.01760E+03 -2.76746E+03  5.39745E+03  2.48757E+03  5.91767E+02  3.11976E+03 -3.98557E+03 -4.81526E+02
 -3.10381E+03 -5.52162E+03 -2.73847E+02 -8.14907E+03  4.80484E+03 -8.97246E+03  9.44205E+03 -4.30630E+03
  1.25960E+04  5.53841E+01  9.66714E+03  7.28949E+03  1.76816E+03  8.82668E+03 -6.14625E+03  9.46396E+03
 -7.86621E+03  3.42478E+03 -3.63483E+03 -1.17754E+03  1.39232E+03 -2.06130E+03  4.86034E+03 -1.64415E+03
  4.22279E+03  3.39265E+03  1.92380E+03  5.96324E+03 -5.38026E+03  7.47580E+03 -8.47380E+03  2.13770E+03
 -5.24089E+03 -4.11103E+03 -2.24717E+01 -8.86867E+03  4.69856E+03 -2.56165E+03  3.82902E+03  8.60098E+02
  7.23668E+02  4.16172E+03 -4.00543E+03  4.97695E+03 -5.72040E+03  2.66568E+03 -5.86992E+03 -2.36056E+03
 -3.48820E+03 -6.78196E+03  1.93163E+03 -7.93235E+03  7.00124E+03 -4.41497E+03  8.57093E+03  1.29314E+03
  5.64325E+03  5.31149E+03 -8.99852E+01  8.15506E+03 -5.85581E+03  4.37922E+03 -5.65937E+03 -1.03318E+03
 -6.17294E+03 -6.77554E+03 -5.71677E+02 -5.45540E+03  3.16166E+03 -4.77912E+03  3.30168E+03 -3.57726E+03
  2.93322E+03  1.31426E+03  6.39418E+02  1.57846E+03 -2.04678E+02 -4.79314E+02 -3.01416E+01 -1.99231E+03
  4.28308E+03 -1.01897E+03  6.25618E+03  2.26854E+02  6.61166E+03  3.88494E+03  5.67827E+03  8.01076E+03
 -7.45478E+02  9.89246E+03 -9.10431E+03  8.10353E+03 -1.07207E+04  1.12839E+03 -9.14750E+03 -2.26500E+03
 -3.68901E+03 -7.99285E+03 -1.07662E+03 -6.15182E+03  1.39950E+03 -1.73847E+03  1.66046E+03 -2.07841E+03
  1.26901E+03 -1.58124E+03  1.50762E+03 -3.75522E+03  4.32555E+03 -1.39499E+03  4.27446E+03  4.89854E+02
  5.46839E+03  3.68104E+02  5.88519E+02  4.67435E+03 -1.38470E+03  2.80481E+03 -4.82773E+03  4.11411E+03
 -6.88235E+03 -2.51541E+03 -4.07852E+03 -4.09335E+03 -2.29426E+01 -6.66446E+03  3.42118E+03 -5.25888E+03
  5.82656E+03 -3.59879E+03  8.26005E+03  1.37767E+03  6.74408E+03  5.47344E+03  1.30220E+03  7.66133E+03
 -2.04232E+03  6.59645E+03 -3.56558E+03  2.27533E+03 -2.27949E+03 -1.35566E+03 -1.73283E+02  1.49126E+02
 -4.66952E+02  4.35608E+02 -1.09636E+03  6.76381E+02 -3.35049E+03  9.43022E+02 -3.76737E+03 -3.05477E+01
 -3.22564E+03 -4.22323E+03  1.19230E+03 -6.32613E+03  2.65212E+03 -5.79607E+03  4.86281E+03 -6.08842E+02
  4.66651E+03  3.14442E+03  3.28765E+03  4.19310E+03 -2.30507E+03  5.62424E+03 -3.98058E+03  2.90444E+03
 -4.34058E+03  2.89626E+02 -4.28870E+03 -2.70384E+03 -6.08984E+02 -3.98381E+03  1.97981E+03 -3.18632E+03
  4.35546E+03 -1.56511E+03  2.46527E+03  5.72937E+02  2.27688E+02  2.90734E+03  1.77273E+03  1.13246E+02
  2.11344E+03  1.22159E+02  1.52249E+03  6.48235E+02  2.10265E+03  2.26090E+03  1.69765E+03  2.00563E+03
 -1.68773E+03  4.46876E+03 -3.23994E+03  3.63866E+03 -4.50298E+03  6.85271E+02 -5.44300E+03 -1.26847E+03
 -2.49092E+03 -3.70328E+03  8.78376E+02 -4.47464E+03  2.54509E+03 -2.48420E+03  3.94483E+03 -2.31816E+03
  2.68145E+03  2.47058E+03  8.89603E+02  2.20766E+03 -7.99511E+02  1.43657E+03 -1.14911E+03  4.74534E+02
 -1.05020E+03 -2.35330E+03  1.06476E+03 -1.33430E+03  1.34617E+03 -1.63239E+02  1.66388E+03  4.22171E+02
  1.17845E+03  5.41155E+01  4.00554E+02 -2.52111E+02 -1.19192E+03  1.25617E+03  1.99445E+03 -1.33358E+03
  2.12091E+02 -2.17959E+03  2.02389E+03  1.90179E+03  2.33119E+02  2.91730E+03  4.46358E+02  2.24295E+03
 -1.93827E+03  1.18087E+03 -2.08290E+03  4.50058E+02 -2.27242E+03 -8.40745E+02 -1.14556E+03 -2.14036E+03
  1.06856E+03 -1.20134E+03  1.25252E+03 -2.83934E+02  7.58866E+02  1.94649E+03  8.26483E+01  1.67655E+03
 -1.59006E+03 -8.62363E+00 -1.73021E+03 -1.41117E+03  5.18748E+01 -2.26648E+03  5.57600E+02 -1.94299E+03
  8.52098E+02 -1.21712E+02  1.91320E+02 -4.96613E+02  1.10801E+03 -2.47938E+02 -2.93950E+02  1.73221E+03
 -1.00531E+03 -8.44754E+01 -2.40880E+03 -3.38568E+02  2.12381E+02 -1.39304E+03  6.54415E+02 -1.32824E+03
  2.18009E+03 -1.31526E+02  2.80716E+03  1.02335E+03  6.73992E+01  3.36169E+03 -1.82286E+03  2.96908E+03
 -1.76717E+03  5.54528E+02 -2.79912E+03 -6.18247E+02 -2.38246E+03 -1.37820E+03  2.78009E+02 -2.46848E+03
  1.79749E+03 -1.61701E+03  1.04245E+02 -8.83507E+02  1.97902E+02  9.88530E+02  8.92811E+02  1.43301E+03
 -9.90665E+02  2.12752E+03 -2.49325E+02  2.84507E+02 -2.09612E+02  6.44004E+02 -1.30003E+03  3.46443E+02
 -8.57734E+01  3.74345E+02 -2.30811E+03  5.33408E+01 -2.42529E+03  4.60288E+02 -2.93550E+03 -9.10849E+02
 -1.97508E+03 -2.67818E+03  8.60714E+02 -3.07003E+03  8.54963E+02 -3.16253E+03  4.01028E+03 -1.95410E+03
  3.59060E+03  3.81140E+02  2.23031E+03  1.61256E+03  5.84037E+02  2.61489E+03 -5.05714E+02  7.58986E+02
 -1.24913E+03  7.79209E+02  1.57877E+02  1.87436E+02 -5.14987E+02  4.45620E+01 -6.40659E+02  9.03466E+01
 -1.33352E+03 -3.95029E+02 -1.22769E+03  7.22567E+02  2.06346E+02 -3.83308E+02  9.21689E+02 -8.59657E+02
  2.31013E+03 -5.39618E+02  1.28041E+03  4.92433E+02  1.18187E+03  9.99904E+02 -6.68568E+01  1.04054E+03
 -6.99674E+02  3.38671E+03 -2.01160E+03  1.84881E+03 -1.81685E+03 -1.91086E+02 -4.74224E+02 -2.06547E+03
 -1.07593E+03 -1.63940E+03 -3.46724E+02 -2.32187E+03  1.75278E+03 -8.83837E+02  3.06627E+02 -3.20201E+02
  1.86779E+03  2.87887E+02 -6.33271E+02  3.45816E+02 -1.56368E+03  2.44810E+01 -1.81859E+02 -3.58237E+02
  1.33263E+03  4.54434E+02  8.08930E+02  1.84113E+02 -1.92659E+02  6.86634E+02  6.37789E+02  1.71821E+02
 -1.66200E+03  1.38628E+03 -6.79873E+02 -7.19423E+02 -5.88977E+02  3.48707E+02  3.63548E+02 -1.79414E+03
  1.80256E+02 -1.07143E+03  1.73781E+03  9.95549E+01  1.42774E+03  6.52926E+02  5.42850E+02  8.49734E+02
 -1.84222E+02  5.40298E+02 -1.96050E+03  9.79173E+02 -7.63936E+01  2.46417E+02 -3.94865E+02  1.12670E+03
 -6.34527E+02  3.53389E+02 -1.62153E+02 -5.03285E+02 -1.16176E+02 -2.84231E+02 -2.08773E+03 -3.62329E+02
 -1.89077E+03 -1.37245E+03 -1.00339E+03  1.72295E+01  1.47031E+03 -1.03331E+03  1.02562E+03 -6.30119E+02
  1.80988E+03 -6.25851E+02 -4.05423E+02  9.76608E+02  2.92113E+02  4.61355E+02 -3.20132E+02  7.63341E+02
