 $NMID ID='MM_0lb_SNR200_19hz_g50_80.RAW', FMTDAT='(8E13.5)'
 TRAMP=1., VOLUME=1. $END
  3.10643E+05  7.55373E+02  3.38247E+05  2.49695E+05  8.32507E+04  3.37094E+05 -1.31890E+05  2.51280E+05
 -1.90036E+05  8.31231E+04 -1.11196E+05 -3.28513E+04  2.66309E+02 -5.00532E+04  5.35371E+04 -4.22858E+02
  3.48098E+04  5.35902E+04 -1.70336E+04  7.45723E+04 -5.96927E+04  6.29430E+04 -8.37538E+04  3.10926E+04
 -7.95260E+04 -1.09413E+04 -5.56625E+04 -5.07679E+04 -1.45638E+04 -6.85574E+04  2.54538E+04 -4.44867E+04
  3.86133E+04  3.22675E+03  1.55260E+04  4.65911E+04 -3.33576E+04  4.60158E+04 -6.43600E+04  9.62986E+02
 -5.12721E+04 -5.68560E+04 -5.94944E+03 -7.56683E+04  3.36088E+04 -5.38849E+04  4.61757E+04 -1.60772E+04
  4.08040E+04  1.05139E+04  3.03038E+04  2.39617E+04  1.62942E+04  2.83302E+04 -4.41391E+03  2.72768E+04
 -2.08704E+04  1.27468E+04 -1.96038E+04 -3.45894E+03  4.56797E+03 -6.94815E+03  2.07188E+04  1.14278E+04
  7.33814E+03  3.34955E+04 -3.06668E+04  3.48289E+04 -6.11184E+04  3.01196E+03 -5.50374E+04 -4.07516E+04
 -1.25238E+04 -6.21688E+04  3.90065E+04 -4.18732E+04  5.61841E+04 -1.58199E+03  3.12631E+04  2.92679E+04
 -6.03210E+03  3.35085E+04 -2.88364E+04  1.29920E+04 -2.88345E+04 -5.28849E+03 -1.49177E+04 -9.99792E+03
 -7.11285E+03 -1.26503E+04  2.44385E+02 -1.69581E+04  6.95024E+03 -2.25265E+04  1.42099E+04 -1.36387E+04
  1.08759E+04  4.56254E+03 -5.77232E+03  1.25141E+04 -1.85564E+04 -2.20480E+03 -8.23448E+03 -3.00017E+04
  2.05902E+04 -4.08218E+04  4.52413E+04 -1.82776E+04  4.23403E+04  1.84018E+04  1.48245E+04  4.25778E+04
 -1.52595E+04  3.10968E+04 -2.42258E+04  7.69709E+02 -7.88092E+03 -2.70016E+04  2.05155E+04 -3.20344E+04
  3.89343E+04 -7.25298E+03  3.04079E+04  2.31420E+04  1.62160E+04  4.28749E+04 -7.46319E+03  4.56142E+04
 -2.75758E+04  2.96709E+04 -3.73690E+04  9.56841E+03 -3.84651E+04 -1.43652E+04 -2.19030E+04 -3.55441E+04
  7.13589E+03 -3.38160E+04  3.02110E+04 -1.38187E+04  2.62204E+04  1.07573E+04  2.33002E+03  1.78196E+04
 -1.39905E+04  7.25608E+03 -9.35400E+03 -7.34900E+03  6.25282E+03 -1.00831E+04  1.70329E+04  5.78870E+03
  1.23373E+04  2.22395E+04 -5.74733E+03  2.42290E+04 -2.17060E+04  9.00004E+03 -2.53546E+04 -6.26057E+03
 -1.72688E+04 -1.72130E+04 -6.32784E+03 -1.77243E+04  3.95473E+03 -1.49228E+04  1.24847E+04 -1.35371E+04
  2.12856E+04 -1.20073E+04  2.84876E+04  5.41822E+02  2.06618E+04  1.66106E+04  3.93375E+03  3.20562E+04
 -1.60755E+04  2.67152E+04 -2.52252E+04  9.29357E+03 -2.01980E+04 -1.05632E+04 -3.25681E+03 -1.39377E+04
  3.15031E+03 -4.44595E+03 -2.67881E+03  4.99066E+03 -1.28008E+04  5.53530E+03 -1.36721E+04 -4.32093E+03
 -7.60726E+03 -1.56306E+04  4.89616E+03 -1.85133E+04  1.29625E+04 -1.34105E+04  1.55570E+04 -7.68485E+02
  9.45302E+03  1.05558E+04 -1.61975E+03  1.53008E+04 -1.07938E+04  8.70714E+03 -1.47092E+04 -4.15837E+03
 -1.13566E+04 -1.40828E+04 -2.07626E+03 -1.86488E+04  7.52868E+03 -1.71513E+04  1.54087E+04 -7.11484E+03
  1.44369E+04  8.83550E+02  1.02547E+04  3.64492E+03  4.99628E+03  1.97218E+03  7.54211E+03 -5.87183E+02
  1.25710E+04  1.79984E+03  1.35026E+04  1.25389E+04  7.92158E+03  2.40589E+04 -3.40697E+03  2.68009E+04
 -1.48578E+04  2.04475E+04 -2.40322E+04  9.29008E+03 -2.51909E+04 -2.39269E+03 -2.14059E+04 -1.46467E+04
 -8.79824E+03 -2.06572E+04  5.70331E+03 -1.89887E+04  1.68142E+04 -1.02310E+04  1.63497E+04  3.83080E+03
  6.18136E+03  1.08813E+04 -6.94053E+03  1.11861E+04 -1.29791E+04  2.11899E+03 -1.04378E+04 -8.23204E+03
 -1.06403E+02 -1.31077E+04  6.17580E+03 -9.46019E+03  9.33637E+03 -1.49828E+03  1.12319E+03  5.41130E+03
 -5.39993E+03  2.24707E+03 -4.70397E+03 -4.05761E+03 -5.70557E+02 -9.43755E+03  7.67793E+03 -1.04479E+04
  1.21483E+04 -6.01686E+03  1.14181E+04  2.35690E+03  9.92773E+03  9.22571E+03  3.54820E+03  1.44228E+04
 -3.08757E+03  1.52154E+04 -1.07338E+04  1.07105E+04 -1.10691E+04  2.67890E+03 -8.76526E+03 -1.70358E+03
 -4.01510E+03 -2.44048E+03 -8.88698E+02  1.82516E+03 -2.01605E+03  1.55196E+03 -3.08704E+03  2.63506E+03
 -8.04292E+03 -4.36703E+02 -7.69032E+03 -7.87393E+03 -3.66364E+03 -1.17913E+04  3.04840E+03 -8.11586E+03
  7.63209E+03 -3.35358E+03  6.22258E+03  2.39971E+03  1.22344E+03  3.00740E+03 -2.10884E+03 -7.57867E+02
 -3.08549E+03 -3.81240E+03 -7.14220E+02 -7.87501E+03  4.02205E+03 -8.58485E+03  9.08419E+03 -2.98245E+03
  1.10421E+04  8.55156E+02  9.13512E+03  6.83310E+03  1.29507E+03  8.43165E+03 -4.81162E+03  8.59420E+03
 -6.95259E+03  2.56941E+03 -3.26418E+03 -2.00684E+03  1.41629E+03 -1.68315E+03  5.43367E+03 -1.20494E+03
  3.67108E+03  3.91919E+03  1.19800E+03  7.39477E+03 -4.17069E+03  7.04142E+03 -8.54389E+03  2.45842E+03
 -5.04881E+03 -2.92131E+03  6.90546E+02 -7.35969E+03  2.53798E+03 -3.20084E+03  2.61295E+03  7.15771E+02
  7.58863E+02  2.92131E+03 -3.86208E+03  5.53761E+03 -5.09283E+03  2.53596E+03 -3.10648E+03 -1.15414E+03
 -2.15013E+03 -5.71315E+03  1.22469E+03 -6.89252E+03  5.72245E+03 -5.13992E+03  6.03315E+03 -2.39831E+02
  4.43408E+03  5.11159E+03 -1.12788E+02  6.00209E+03 -5.19950E+03  4.20911E+03 -5.40240E+03 -1.56176E+01
 -5.51075E+03 -5.78665E+03 -1.55311E+03 -5.06114E+03  1.90663E+03 -4.19184E+03  2.26093E+03 -2.25170E+03
  2.25230E+03 -2.61459E+02  3.96441E+02  1.28430E+03  4.63346E+02 -2.51860E+02  4.94381E+02 -2.13386E+03
  3.30443E+03  2.11504E+01  4.97897E+03 -1.35677E+02  6.29274E+03  2.42449E+03  4.90232E+03  6.55404E+03
 -6.16358E+02  8.58084E+03 -7.41215E+03  6.69385E+03 -9.07684E+03  1.64479E+03 -6.91226E+03 -2.04115E+03
 -4.69214E+03 -5.89976E+03 -9.36648E+02 -5.12506E+03  2.53551E+03 -1.68135E+03  2.21554E+03 -2.12634E+03
  1.33977E+03 -2.16930E+03  2.36828E+03 -2.22553E+03  2.71619E+03 -1.75265E+03  3.59038E+03  5.19921E+02
  4.37234E+03  7.38508E+02  1.11573E+03  3.30150E+03 -1.37514E+03  2.26250E+03 -4.89212E+03  2.39110E+03
 -5.17128E+03 -4.14416E+02 -1.72618E+03 -2.86788E+03 -1.24517E+01 -4.75209E+03  4.04624E+03 -5.43960E+03
  4.80688E+03 -3.24259E+03  7.13326E+03  3.13658E+02  5.79409E+03  3.21452E+03  7.58868E+02  5.25594E+03
 -1.94129E+03  5.10019E+03 -2.13712E+03  1.72664E+03 -1.05177E+03 -1.81028E+03 -8.86474E+02 -1.16360E+02
  2.17300E+02  1.66407E+02 -1.34094E+03  2.29541E+03 -3.55889E+03  1.05397E+03 -3.68674E+03  6.86611E+02
 -1.04825E+03 -4.70365E+03  6.68550E+01 -4.69689E+03  1.76355E+03 -3.85913E+03  2.65359E+03 -1.09367E+03
  3.61175E+03  2.04609E+03  1.54356E+03  3.43510E+03 -5.06331E+02  3.86971E+03 -2.16476E+03  2.55614E+03
 -3.40764E+03  5.89451E+02 -2.42716E+03 -2.42680E+03 -1.69999E+02 -3.35838E+03  2.42586E+03 -1.88642E+03
  2.77869E+03 -4.29103E+02  1.37534E+03  5.20621E+02 -3.44495E+01  1.23714E+03  1.91383E+03 -3.62725E+01
  1.45619E+03  1.10749E+03  1.29496E+03  4.39948E+02  3.18853E+02  2.01465E+03  1.49856E+03  2.69161E+03
 -2.04333E+03  2.40807E+03 -1.91707E+03  3.24355E+03 -1.93425E+03  1.41491E+03 -3.18732E+03 -4.77285E+02
 -1.11024E+03 -3.31317E+03  5.19522E+02 -4.30878E+03  1.63872E+03 -2.41793E+03  3.12150E+03 -1.92480E+03
  2.28618E+03  1.28325E+03  3.32978E+02  1.21294E+03 -1.10700E+02  8.84728E+02 -1.75041E+03  2.00695E+02
 -3.54412E+02 -1.47384E+03  1.62646E+03 -2.21073E+03  1.29027E+03 -1.50629E+03  1.91822E+03 -2.13433E+02
  5.68551E+02  5.58866E+01  8.06373E+02  1.45324E+03  5.08170E+01  1.10170E+03  1.22903E+03 -6.18858E+02
  2.06927E+02  9.80587E+01  1.30105E+03 -6.43955E+02  3.50379E+02  1.98885E+03  1.31071E+02  2.18026E+03
 -1.27246E+03  1.39005E+03 -2.92951E+03  1.00437E+03 -2.40431E+03  3.94281E+02 -4.18289E+02 -1.15055E+03
  5.83983E+02 -1.55246E+03  5.69763E+02  4.97750E+01  1.05094E+03  8.26071E+02 -1.21869E+03  1.08051E+03
  2.54119E+02 -5.85990E+01 -8.77773E+02 -1.89075E+03 -1.06293E+03 -1.44207E+03 -1.23689E+02 -2.18610E+03
 -4.87180E+02  4.10183E+02  4.33313E+02  1.80585E+02  9.59446E+02  5.35291E+01  5.37928E+02  3.31649E+02
 -7.12697E+02  8.79761E+02 -1.13293E+03 -8.02952E+02  1.63814E+02 -2.85677E+03  1.11920E+03 -6.38186E+02
  9.82187E+02  7.53201E+02  1.75996E+03  1.01371E+02  1.90283E+03  9.80291E+02 -1.60431E+03  1.80115E+03
 -1.51383E+03  1.48524E+02 -2.03630E+03 -5.49810E+02 -3.49510E+02 -1.92975E+03  6.40847E+02  4.82406E+02
  1.36268E+03 -5.44512E+02  2.85137E+02  8.31019E+02 -2.31920E+01  1.17293E+03 -7.12950E+01  1.86740E+03
 -1.02670E+03  9.47086E+02 -7.16895E+02  5.96636E+02  9.82270E+02  5.69257E+02 -5.95160E+02 -3.14992E+02
 -8.26639E+02  1.44882E+03 -1.85728E+03  7.14427E+01 -1.85305E+03  2.95049E+02 -1.96119E+03 -3.53049E+02
 -1.27311E+03 -2.92028E+03 -6.26256E+01 -3.82307E+03  1.01434E+03 -2.15854E+03  3.19012E+03 -7.65395E+02
  2.25067E+03  2.10985E+02  1.64674E+03  2.03399E+03  1.45548E+02  7.68546E+02 -1.27864E+03  9.63969E+02
 -7.12500E+02  1.03355E+03 -3.23983E+02  3.55542E+02 -6.31949E+02  1.47980E+02 -5.05851E+02  1.01966E+03
 -1.15609E+03  7.34757E+02  3.45876E+02 -7.51698E+02 -1.91561E+02 -5.53614E+02 -8.54481E+02 -2.66713E+02
  1.15469E+03  2.79755E+02 -3.61056E+02  1.03397E+03  7.31331E+02  1.47216E+03 -7.79024E+02  2.05815E+03
 -4.07012E+02  2.70554E+03 -1.28061E+03  1.13325E+03 -1.14722E+03  5.44285E+02 -8.88459E+02 -1.16178E+03
 -7.48306E+02 -1.66028E+03  7.68085E+02 -1.20788E+03 -1.41021E+02 -1.00880E+03  9.91331E+02 -1.01860E+02
  6.46250E+02  3.86721E+02 -1.39317E+02  3.06945E+02  4.23856E+01  1.63583E+02  3.51785E+02  7.23039E+02
  8.12984E+02  8.91099E+02 -3.67178E+02  1.89284E+03 -1.66044E+02  2.49476E+01  6.91841E+02  1.35773E+03
  3.23678E+01  1.07192E+03 -6.50572E+02  2.55590E+02 -1.42226E+03 -9.03868E+02 -7.15968E+02 -9.57560E+02
  1.09111E+03  1.60610E+02  1.01200E+03 -8.94765E+01  1.59588E+02 -8.25529E+02  8.16721E+02  1.23481E+03
  1.29426E+03  5.63688E+01 -4.97526E+02  3.89990E+02 -3.01497E+02  3.71931E+02 -2.98443E+02  2.05944E+01
  4.53278E+02  6.30713E+02  6.57293E+01  6.39777E+02 -7.65190E+02  1.95696E+02 -9.19780E+02 -6.54474E+02
 -5.61547E+02  6.20885E+02 -1.00049E+03 -3.95192E+02  1.66431E+03 -2.21665E+03  4.69467E+02 -2.79985E+01
 -7.38970E+02 -5.75902E+02  5.81181E+01  3.82761E+02 -6.52303E+02  2.76486E+02 -3.79504E+02 -1.89534E+02
