 $NMID ID='MM_0lb_SNR200_20hz_g40_5.RAW', FMTDAT='(8E13.5)'
 TRAMP=1., VOLUME=1. $END
  3.10574E+05 -8.67022E+00  3.37420E+05  2.49906E+05  8.43829E+04  3.37868E+05 -1.30317E+05  2.50317E+05
 -1.89541E+05  8.19524E+04 -1.10741E+05 -3.30426E+04  1.44740E+03 -4.97641E+04  5.32579E+04  8.31304E+02
  3.42106E+04  5.23868E+04 -1.69695E+04  7.52619E+04 -6.00537E+04  6.20229E+04 -8.17370E+04  3.15887E+04
 -7.80494E+04 -1.07145E+04 -5.60960E+04 -4.92492E+04 -1.47375E+04 -6.75233E+04  2.73198E+04 -4.44675E+04
  3.90058E+04  4.28610E+03  1.53239E+04  4.69321E+04 -3.44328E+04  4.47550E+04 -6.35869E+04 -4.55007E+01
 -5.18458E+04 -5.50461E+04 -5.94243E+03 -7.29521E+04  3.15039E+04 -5.17117E+04  4.49311E+04 -1.52484E+04
  4.19970E+04  1.10317E+04  2.95181E+04  2.38876E+04  1.61413E+04  2.71591E+04 -5.09074E+03  2.73212E+04
 -2.14314E+04  1.15576E+04 -1.96935E+04 -4.24070E+03  4.55595E+03 -7.66421E+03  2.12407E+04  9.92931E+03
  7.53809E+03  3.25720E+04 -3.01895E+04  3.21700E+04 -6.00275E+04  2.14703E+03 -5.43156E+04 -4.01692E+04
 -1.26110E+04 -5.96491E+04  3.79316E+04 -4.25761E+04  5.44861E+04 -1.82950E+03  2.99416E+04  2.93810E+04
 -7.26678E+03  3.13362E+04 -2.76192E+04  1.15266E+04 -2.53372E+04 -5.35581E+03 -1.33905E+04 -9.29789E+03
 -5.94206E+03 -1.06280E+04 -1.58038E+03 -1.70829E+04  6.79028E+03 -2.17451E+04  1.49841E+04 -1.50598E+04
  1.18601E+04  3.08994E+03 -6.38734E+03  1.25433E+04 -1.82483E+04 -1.77345E+03 -9.39439E+03 -2.86055E+04
  1.98274E+04 -3.89510E+04  4.28471E+04 -1.84242E+04  4.05138E+04  1.73250E+04  1.39864E+04  4.10395E+04
 -1.48068E+04  2.97499E+04 -2.21438E+04  1.43867E+03 -7.11389E+03 -2.52802E+04  2.00830E+04 -2.98135E+04
  3.67732E+04 -6.00810E+03  2.94720E+04  2.25215E+04  1.38438E+04  4.03257E+04 -7.07343E+03  4.22587E+04
 -2.65060E+04  2.71701E+04 -3.51461E+04  7.84883E+03 -3.60187E+04 -1.41942E+04 -1.96501E+04 -3.24538E+04
  6.97798E+03 -3.16506E+04  2.86490E+04 -1.25798E+04  2.55297E+04  1.07892E+04  1.89590E+03  1.66369E+04
 -1.31058E+04  7.31334E+03 -8.67227E+03 -8.24776E+03  7.04365E+03 -9.23665E+03  1.65131E+04  6.94998E+03
  1.31594E+04  2.20269E+04 -7.20215E+03  2.27595E+04 -2.07899E+04  8.48113E+03 -2.44909E+04 -7.84043E+03
 -1.42218E+04 -1.64216E+04 -5.36355E+03 -1.48495E+04  2.93589E+03 -1.17896E+04  1.07583E+04 -1.25841E+04
  1.91407E+04 -1.09289E+04  2.65179E+04  2.88517E+02  1.99154E+04  1.44801E+04  3.72539E+03  3.01272E+04
 -1.47220E+04  2.64774E+04 -2.58873E+04  8.98992E+03 -1.93240E+04 -9.82963E+03 -2.72541E+03 -1.36700E+04
  2.81384E+03 -5.58816E+03 -1.85694E+03  4.48016E+03 -1.19513E+04  5.83746E+03 -1.20214E+04 -4.00138E+03
 -7.29935E+03 -1.45726E+04  4.95795E+03 -1.77594E+04  1.10162E+04 -1.35863E+04  1.26874E+04 -4.35079E+02
  8.07573E+03  9.40380E+03 -1.06036E+03  1.41432E+04 -9.94046E+03  8.89304E+03 -1.42216E+04 -3.42696E+03
 -1.05673E+04 -1.19092E+04 -1.43182E+03 -1.73163E+04  8.85990E+03 -1.32581E+04  1.50635E+04 -6.81418E+03
  1.35404E+04  7.74429E+02  1.06366E+04  3.75536E+03  5.50895E+03  3.76973E+02  6.52250E+03 -6.38124E+02
  1.21184E+04  3.21934E+03  1.19474E+04  1.20088E+04  6.71379E+03  2.28420E+04 -1.65484E+03  2.42978E+04
 -1.38243E+04  1.75425E+04 -2.03717E+04  7.57573E+03 -2.15958E+04 -8.93256E+02 -1.98482E+04 -1.11803E+04
 -9.61399E+03 -1.78283E+04  5.48706E+03 -1.66060E+04  1.41631E+04 -9.72230E+03  1.40589E+04  3.08168E+03
  6.08502E+03  1.01457E+04 -6.80470E+03  9.35517E+03 -1.20705E+04  2.96728E+03 -9.29708E+03 -6.93459E+03
  1.38549E+02 -1.15670E+04  5.08264E+03 -8.75725E+03  7.01169E+03 -1.32879E+03  9.88127E+02  3.83654E+03
 -4.22640E+03  9.66276E+02 -1.62683E+03 -4.11002E+03  6.59452E+02 -9.00494E+03  7.48934E+03 -9.85213E+03
  1.09139E+04 -3.59616E+03  9.07392E+03  2.66653E+03  7.73206E+03  7.96843E+03  4.31586E+03  1.04810E+04
 -6.72062E+02  1.33599E+04 -8.37936E+03  9.60262E+03 -9.53302E+03  2.01401E+03 -6.26457E+03 -4.33846E+02
 -4.72565E+03 -3.45597E+03 -1.75784E+03  1.09180E+03 -2.17863E+03  1.92814E+03 -3.48411E+03  2.58479E+03
 -7.50833E+03  1.92307E+02 -6.91281E+03 -5.61333E+03 -3.17915E+03 -1.12289E+04  3.80174E+03 -7.38451E+03
  6.28882E+03 -3.58707E+03  4.34472E+03  1.67535E+03  7.23371E+02  3.30826E+03 -2.03864E+03 -2.42787E+02
 -3.17878E+03 -3.81437E+03  3.64857E+02 -6.23638E+03  3.07821E+03 -6.03845E+03  8.42108E+03 -3.07840E+03
  1.05038E+04  6.59283E+02  7.90422E+03  5.23163E+03  2.13660E+03  6.53308E+03 -4.59588E+03  7.79114E+03
 -5.77878E+03  2.41495E+03 -2.84501E+03 -6.93318E+02  2.01260E+03 -2.09954E+03  4.54952E+03 -7.47812E+02
  4.08138E+03  3.10458E+03  2.09358E+03  6.04802E+03 -3.54856E+03  5.68133E+03 -6.65361E+03  2.21721E+03
 -4.06488E+03 -2.66454E+03 -1.82337E+02 -5.51097E+03  3.50152E+03 -1.58951E+03  2.47326E+03  6.12357E+02
  6.38726E+01  2.44850E+03 -3.67480E+03  4.16026E+03 -4.35923E+03  1.43686E+03 -2.66848E+03 -8.98003E+02
 -1.62985E+03 -5.59473E+03  8.34431E+02 -5.39178E+03  4.85027E+03 -3.89184E+03  5.26058E+03  6.25791E+02
  4.21294E+03  4.66452E+03  3.00542E+02  6.53491E+03 -3.96761E+03  3.14394E+03 -3.84729E+03 -6.07499E+02
 -4.29648E+03 -4.87900E+03 -1.49282E+03 -5.28007E+03  1.91067E+03 -4.24831E+03  1.39434E+03 -2.62093E+03
  3.30669E+03  3.35195E+02 -5.72331E+02  9.23519E+02  1.98238E+03 -3.82717E+02 -1.33034E+02 -1.09603E+03
  3.55037E+03  1.94249E+02  4.77191E+03  9.58052E+02  4.63785E+03  1.84067E+03  4.35536E+03  5.17037E+03
  3.34222E+02  6.34830E+03 -6.72707E+03  5.73525E+03 -8.92733E+03  8.77014E+02 -5.86557E+03 -1.75852E+03
 -3.35156E+03 -5.14420E+03 -1.26018E+03 -3.54488E+03  1.40044E+03 -1.95284E+03  1.22277E+03 -1.61579E+03
  1.06360E+03 -1.54417E+03  9.47798E+02 -1.14682E+03  3.42018E+03 -7.06507E+02  2.91163E+03  1.12486E+02
  4.18612E+03  1.54853E+03  1.06024E+03  2.84053E+03 -2.18849E+03  2.11453E+03 -2.93437E+03  1.61485E+03
 -5.29852E+03 -1.98793E+03 -1.31661E+03 -2.97653E+03  3.23109E+02 -3.15428E+03  3.44602E+03 -5.18738E+03
  3.31536E+03 -3.66729E+03  5.74760E+03  3.25238E+02  4.24234E+03  2.97449E+03  2.18094E+03  5.24580E+03
 -1.48460E+03  4.60837E+03 -1.78738E+03  8.14353E+02 -1.70281E+03 -7.31351E+02 -9.71807E+00  3.68262E+02
  3.84486E+02 -1.85312E+02 -6.92740E+02  5.94142E+02 -2.72433E+03  9.10160E+02 -3.58234E+03 -2.13553E+02
 -1.34049E+03 -2.90127E+03  7.45543E+01 -3.75712E+03  1.93201E+03 -3.95739E+03  3.15094E+03 -3.52480E+02
  3.44018E+03  2.16716E+03  1.13858E+03  1.96715E+03 -1.20933E+03  3.96660E+03 -1.87235E+03  1.61104E+03
 -2.67269E+03  1.37641E+03 -2.62289E+03 -1.92032E+03 -9.06348E+01 -2.06575E+03  2.24359E+03 -1.85353E+03
  1.29656E+03 -1.38287E+03  1.57215E+03  5.33437E+02 -7.80083E+02  5.77909E+02  7.38232E+02  1.07189E+03
  2.51235E+03  8.85849E+02  1.25550E+03  1.42935E+03  1.44176E+03  1.82624E+03  9.98719E+02  1.31893E+03
 -8.23819E+02  1.73745E+03 -1.56023E+03  4.65824E+03 -1.86744E+03  2.61013E+01 -3.72026E+03 -6.17885E+02
 -1.57552E+03 -2.81556E+03  1.14556E+02 -3.65735E+03  1.58767E+03 -1.59015E+03  3.33733E+03 -1.93538E+03
  3.33430E+03  1.77182E+03  4.02943E+02  1.30253E+03 -1.51834E+03  8.25492E+02 -4.78516E+02 -6.92206E+01
  1.04245E+03 -1.07390E+03  1.31096E+03 -8.60169E+02  3.48714E+02 -6.27319E+02  6.40948E+02  2.25185E+02
  6.03042E+02 -4.91985E+02  1.50449E+02  2.72364E+02 -5.68547E+02  1.00014E+03  1.40876E+03  2.33889E+02
  1.38139E+02 -2.39800E+02  1.43857E+03  3.97276E+02  1.78882E+02  2.45930E+03 -4.44619E+02  2.20167E+03
 -1.18080E+03 -8.46598E+01 -1.90807E+03  5.73338E+02 -1.73479E+03 -3.83503E+02 -4.64805E+02 -6.12848E+02
  3.01311E+01 -6.75624E+02  2.01081E+03 -4.83065E+02  7.22920E+01  1.39310E+03 -7.02509E+02  3.22987E+02
 -9.23266E+02  2.26576E+02 -6.81988E+01 -2.91429E+02 -5.54634E+02 -2.26393E+03  8.77203E+02 -1.89669E+03
  2.87304E+01  1.41130E+02  1.27281E+03  4.23256E+02  1.28287E+03 -1.89323E+02 -1.38732E+02  8.18334E+02
 -7.15618E+02  1.27376E+02 -9.98688E+02 -7.65710E+02  9.50717E+02 -3.21248E+02  1.40235E+03 -1.08675E+03
  1.57810E+03  9.08295E+02  2.07779E+03 -9.24704E+01  8.92591E+02  1.87616E+03 -9.53777E+02  9.63602E+02
 -1.47377E+03 -5.46783E+02 -7.35530E+02 -4.62280E+02 -7.76342E+02 -3.67719E+02  6.25619E+01  1.62361E+02
  1.36403E+03  3.02511E+01 -2.18002E+02  4.77254E+02  6.83297E+02  1.04957E+03  2.73172E+02  1.13327E+03
 -5.74670E+02  1.28057E+03 -4.90932E+02  1.29780E+03 -1.93479E+02  6.50746E+02 -5.88492E+02  1.15062E+03
 -1.76123E+03  1.78951E+03 -1.92469E+03  6.47992E+02 -2.77969E+02  7.52760E+02 -1.30526E+03 -3.45948E+02
 -1.30779E+03 -2.10977E+03  3.72965E+01 -1.67675E+03  1.04814E+03 -2.10367E+03  1.50241E+03 -5.31479E+02
  1.80795E+03 -2.49937E+02  5.62198E+02  1.62180E+03 -1.01819E+03  3.17059E+02 -9.28911E+02  8.13954E+02
 -1.15797E+03  4.28888E+02  4.37664E+02 -3.23624E+02 -2.20258E+02  5.39423E+02 -7.51765E+02 -8.41138E+02
 -1.32920E+03  3.29565E+02 -4.91059E+02 -3.76921E+02 -1.11332E+02 -1.00379E+03 -6.72557E+02 -8.24504E+02
  1.24759E+03  1.86193E+02  5.61108E+02 -1.66561E+02  1.19079E+03  1.31251E+03 -1.94569E+02  1.52536E+03
 -1.49213E+03  1.63051E+03 -1.56197E+03  4.42129E+02 -2.15849E+03 -5.96525E+02 -7.17229E+02 -6.55130E+02
 -5.22049E+02 -1.75055E+03  6.55647E+02 -1.34466E+03 -7.44856E+02 -5.34209E+02  3.43226E+02  7.19040E+02
  1.50564E+03  3.46938E+00 -2.87125E+02 -1.69579E+01 -4.89900E+02 -6.07077E+02 -5.44569E+02  1.08416E+02
  6.14179E+02  9.04966E-01  5.76502E+02 -1.82528E+02  9.90021E+01 -2.76513E+02 -6.01695E+01 -4.38131E+02
 -1.39685E+02  1.53523E+03  3.44915E+01  2.54970E+02 -6.91457E+02 -3.53449E+02  3.62290E+02 -4.62694E+02
  9.78887E+01  5.90220E+02  6.14842E+02  3.99166E+01 -1.51996E+02 -8.10351E+02  2.07169E+03  5.45116E+02
  8.00616E+02  6.51670E+02 -1.75526E+02  7.35901E+02  5.73697E+02  1.33337E+02 -6.21276E+02  7.26296E+02
  3.59057E+02  2.97364E+02 -1.29017E+01  3.06025E+02 -9.13067E+02 -7.95256E+02 -9.30019E+02 -3.28007E+01
 -2.97805E+02  1.13233E+02 -8.56421E+02  3.09032E+02 -5.58109E+01 -1.35005E+03  3.04139E+02  3.69044E+02
 -2.65220E+02 -4.43605E+02 -7.39019E+02 -3.98874E+02 -4.89751E+02  1.46511E+03 -6.45152E+02  1.37858E+03
