 $NMID ID='MM_0lb_SNR200_14hz_g55_3.RAW', FMTDAT='(8E13.5)'
 TRAMP=1., VOLUME=1. $END
  3.09852E+05  1.09197E+03  3.38443E+05  2.51060E+05  8.61893E+04  3.37601E+05 -1.31525E+05  2.49903E+05
 -1.90689E+05  8.24865E+04 -1.11437E+05 -3.42121E+04 -4.24458E+02 -4.87517E+04  5.41506E+04 -1.10199E+03
  3.57639E+04  5.28750E+04 -1.59848E+04  7.71607E+04 -6.04175E+04  6.31613E+04 -8.43363E+04  3.21545E+04
 -8.15703E+04 -1.19143E+04 -5.73231E+04 -5.06340E+04 -1.58227E+04 -6.92479E+04  2.88578E+04 -4.61290E+04
  4.08994E+04  2.65473E+03  1.58014E+04  4.68941E+04 -3.29319E+04  4.77187E+04 -6.57443E+04 -7.20387E+02
 -5.34974E+04 -5.72302E+04 -7.29831E+03 -7.84009E+04  3.43600E+04 -5.51793E+04  4.78402E+04 -1.67337E+04
  4.39843E+04  1.13687E+04  3.24187E+04  2.45509E+04  1.70424E+04  3.04235E+04 -6.09491E+03  2.63179E+04
 -2.25480E+04  1.18057E+04 -1.75285E+04 -5.41712E+03  4.76980E+03 -7.59322E+03  2.21780E+04  1.34545E+04
  7.88197E+03  3.51084E+04 -3.31160E+04  3.56305E+04 -6.39482E+04  2.19658E+03 -5.87654E+04 -4.34097E+04
 -1.29121E+04 -6.30220E+04  4.06025E+04 -4.58128E+04  5.77491E+04 -2.02136E+03  3.49129E+04  3.15844E+04
 -5.73817E+03  3.65543E+04 -3.19760E+04  1.63075E+04 -3.14085E+04 -3.57383E+03 -1.68433E+04 -1.18864E+04
 -9.20890E+03 -1.22822E+04 -1.37143E+03 -1.73171E+04  7.96997E+03 -2.32598E+04  1.51699E+04 -1.24952E+04
  1.13488E+04  5.14251E+03 -8.19834E+03  1.07552E+04 -2.10678E+04 -5.67624E+03 -9.16247E+03 -3.40013E+04
  2.34426E+04 -4.40025E+04  4.86509E+04 -1.89435E+04  4.64668E+04  1.88605E+04  1.59722E+04  4.39334E+04
 -1.78259E+04  3.28442E+04 -2.54230E+04  1.87749E+03 -1.06713E+04 -2.80366E+04  2.12406E+04 -3.36850E+04
  4.07638E+04 -7.99750E+03  3.64830E+04  2.51067E+04  1.89896E+04  4.72899E+04 -8.15447E+03  5.19344E+04
 -3.18161E+04  3.53100E+04 -4.29794E+04  9.62839E+03 -4.40352E+04 -1.65019E+04 -2.39499E+04 -3.84631E+04
  7.99885E+03 -3.90244E+04  3.14440E+04 -1.58265E+04  3.03341E+04  1.03961E+04  2.79930E+03  2.07661E+04
 -1.46466E+04  8.84188E+03 -9.46224E+03 -6.49637E+03  6.09263E+03 -1.13394E+04  1.69212E+04  6.49370E+03
  1.38183E+04  2.08668E+04 -4.38611E+03  2.50460E+04 -2.23186E+04  1.17371E+04 -2.85357E+04 -4.43698E+03
 -2.07610E+04 -1.75279E+04 -6.96564E+03 -2.13579E+04  3.13084E+03 -2.01379E+04  1.65137E+04 -1.90362E+04
  2.65096E+04 -1.38984E+04  3.40462E+04  3.74077E+03  2.54505E+04  2.09582E+04  4.35929E+03  3.68505E+04
 -1.82953E+04  3.11311E+04 -2.87777E+04  1.11310E+04 -2.19081E+04 -9.92199E+03 -5.48631E+03 -1.28411E+04
  8.53695E+02 -2.96918E+03 -4.66753E+03  6.55407E+03 -1.61200E+04  5.41183E+03 -1.63035E+04 -6.58282E+03
 -1.14941E+04 -1.92596E+04  6.09519E+03 -2.32972E+04  1.62422E+04 -1.69598E+04  1.91140E+04 -2.36162E+03
  1.10203E+04  1.32752E+04 -1.74456E+03  2.03230E+04 -1.48437E+04  1.05740E+04 -1.97588E+04 -4.80045E+03
 -1.55983E+04 -1.78322E+04 -2.02802E+03 -2.29682E+04  1.07704E+04 -1.86723E+04  1.89796E+04 -9.94359E+03
  1.79455E+04  1.03817E+03  1.36228E+04  4.44115E+03  8.05615E+03  5.60203E+02  9.67231E+03 -1.73146E+03
  1.83411E+04  2.66142E+03  1.98014E+04  1.47396E+04  1.31827E+04  3.15550E+04 -2.87208E+03  3.58243E+04
 -2.07874E+04  2.86037E+04 -3.21579E+04  1.39445E+04 -3.54026E+04 -2.38442E+03 -2.82669E+04 -2.03300E+04
 -1.10984E+04 -2.91235E+04  1.10914E+04 -2.62001E+04  2.39365E+04 -1.32407E+04  2.09472E+04  5.50443E+03
  6.79667E+03  1.42395E+04 -1.02845E+04  1.42237E+04 -1.74006E+04  2.22547E+03 -1.38671E+04 -1.10343E+04
  5.14996E+02 -1.57584E+04  7.43062E+03 -1.17379E+04  1.00060E+04 -1.60654E+03  2.95981E+03  6.64232E+03
 -6.52909E+03  2.91062E+03 -5.79929E+03 -6.43558E+03 -8.26684E+02 -1.35715E+04  9.33852E+03 -1.55543E+04
  1.82625E+04 -6.74952E+03  1.87580E+04  4.14487E+03  1.69745E+04  1.46920E+04  7.73057E+03  2.17619E+04
 -3.16334E+03  2.23792E+04 -1.53071E+04  1.31329E+04 -1.52613E+04  2.15383E+03 -1.16333E+04 -4.88061E+03
 -5.27725E+03 -5.69890E+03 -3.80103E+02  7.92977E+02 -2.44302E+03  2.27230E+03 -4.96974E+03  4.20391E+03
 -1.23351E+04 -4.00425E+02 -1.14641E+04 -9.36743E+03 -4.03940E+03 -1.53133E+04  5.50510E+03 -1.18229E+04
  1.05658E+04 -5.17162E+03  7.87313E+03  3.31258E+03 -5.12033E+02  3.89368E+03 -5.17222E+03 -6.28335E+02
 -4.09363E+03 -7.64746E+03 -1.61735E+03 -1.03089E+04  7.50947E+03 -1.13277E+04  1.45602E+04 -4.80174E+03
  1.76775E+04  1.05581E+03  1.31575E+04  1.08377E+04  1.89579E+03  1.37710E+04 -7.72194E+03  1.15053E+04
 -9.52274E+03  2.56814E+03 -4.96916E+03 -1.50601E+03  1.20837E+03 -2.84740E+03  6.19909E+03 -7.30181E+02
  7.70200E+03  4.49394E+03  1.01527E+03  9.33142E+03 -5.53454E+03  9.66910E+03 -1.10700E+04  2.72076E+03
 -7.12977E+03 -5.07727E+03  1.75530E+02 -9.05216E+03  6.23509E+03 -4.66595E+03  6.49918E+03  1.19478E+03
  9.33407E+02  6.33383E+03 -4.97454E+03  8.27265E+03 -8.23935E+03  2.85111E+03 -8.77134E+03 -2.57045E+03
 -4.41339E+03 -1.08773E+04  3.38450E+03 -1.31412E+04  9.60777E+03 -6.85557E+03  1.21219E+04  8.74023E+02
  6.86037E+03  9.82919E+03 -2.10035E+03  8.98279E+03 -8.53644E+03  6.32710E+03 -8.78597E+03 -8.45729E+02
 -7.77513E+03 -7.37098E+03 -2.49727E+03 -6.88376E+03  3.84272E+03 -7.15491E+03  4.42603E+03 -2.39236E+03
  4.01154E+03  1.73805E+03 -1.15133E+03  9.70033E+02 -1.24229E+03 -5.89580E+02  1.56104E+03 -4.33752E+03
  7.68106E+03 -2.14383E+03  1.00971E+04  8.82876E+02  8.72855E+03  6.44700E+03  9.64426E+03  1.24949E+04
 -3.17948E+03  1.53572E+04 -1.37093E+04  1.03672E+04 -1.56103E+04  1.82071E+03 -1.48701E+04 -5.35627E+03
 -7.96921E+03 -1.06263E+04  1.23096E+02 -8.76511E+03  2.64003E+03 -4.43221E+03  3.10429E+03 -4.57189E+03
  1.12163E+03 -2.98452E+03  3.34981E+03 -2.56164E+03  4.34167E+03 -3.24607E+03  4.81486E+03 -3.79223E+02
  7.27481E+03  2.55970E+03  3.39744E+03  5.27405E+03 -2.44593E+03  5.63926E+03 -8.24885E+03  6.38991E+03
 -7.63605E+03 -2.79659E+02 -5.09653E+03 -6.54174E+03 -2.88757E+02 -9.38342E+03  5.43650E+03 -9.45116E+03
  9.16484E+03 -5.25402E+03  1.04117E+04  1.29923E+03  8.88277E+03  8.06091E+03  5.41814E+02  1.06302E+04
 -4.05288E+03  9.42315E+03 -6.47286E+03  2.18696E+03 -4.84505E+03 -8.66719E+02 -2.47281E+03 -1.00430E+03
 -1.21077E+03  8.76102E+02 -1.21678E+03  3.17327E+03 -4.96688E+03  1.44441E+03 -6.93546E+03  3.48380E+02
 -3.78401E+03 -5.28664E+03  1.19307E+02 -9.06558E+03  5.62524E+03 -7.30692E+03  8.05541E+03 -3.82452E+03
  8.23116E+03  2.89115E+03  3.53158E+03  6.51913E+03 -1.09289E+03  8.23975E+03 -6.12387E+03  5.08846E+03
 -7.24254E+03  7.83724E+01 -7.33475E+03 -3.90283E+03 -7.19158E+02 -7.39890E+03  4.67911E+03 -4.90979E+03
  4.46871E+03 -1.49068E+03  2.51321E+03  1.85116E+03  1.70196E+03  2.24884E+03  9.00069E+02  8.05520E+02
  3.31918E+03  4.98789E+02  1.44560E+03  2.22461E+03  2.70528E+03  2.76588E+03  2.31879E+03  4.54632E+03
 -2.28769E+03  7.08738E+03 -3.73696E+03  6.91384E+03 -7.95707E+03  1.29304E+03 -8.13414E+03 -1.96119E+03
 -5.23569E+03 -8.17579E+03  2.82145E+03 -8.97294E+03  3.86327E+03 -6.37481E+03  7.49169E+03 -2.03507E+03
  5.42280E+03  2.58480E+03  7.33274E+02  3.93529E+03 -2.35571E+03  2.55887E+03 -3.52116E+03  1.96585E+02
 -1.89646E+03 -3.08442E+03  1.68934E+03 -3.12769E+03  2.80878E+03 -1.32292E+03  3.87984E+03  4.98092E+02
  2.23500E+03  1.84330E+03  1.09830E+02  3.05914E+02 -4.37822E+02  4.90815E+02  4.49485E+02 -3.80681E+00
  1.11230E+03 -1.42257E+03  3.27366E+03  1.49392E+03  6.75491E+02  4.49505E+03 -1.68697E+02  6.08295E+03
 -2.51167E+03  3.21297E+03 -4.84491E+03  7.30947E+02 -4.15674E+03 -1.84435E+03 -2.00029E+03 -2.31005E+03
  1.49577E+03 -2.27490E+03  1.56260E+03 -8.81648E+02  9.32633E+02  2.70788E+03 -1.85779E+03  1.80189E+03
 -2.93262E+03  1.08601E+03 -4.34158E+03 -2.25048E+03 -1.66180E+03 -2.91553E+03  4.95692E+02 -4.56538E+03
  1.06596E+03 -2.02274E+03  1.13953E+03 -4.03181E+02  1.33643E+03  5.65891E+02  4.60531E+02  4.52831E+02
 -4.82059E+02  5.53605E+02 -2.73044E+03 -2.37876E+03  1.63412E+02 -2.73751E+03  3.47396E+03 -3.93535E+03
  3.50958E+03  1.24163E+03  4.86182E+03  3.16233E+03  2.24013E+03  4.92351E+03 -1.61913E+03  4.62105E+03
 -3.43185E+03  2.15947E+03 -4.10108E+03  2.08946E+02 -1.33903E+03 -3.92102E+03  1.16940E+03 -2.69644E+03
  2.17850E+03 -1.56682E+03  2.89101E+03  1.39199E+03  7.38431E+02  3.23073E+03  3.51944E+02  2.60723E+03
 -6.04451E+01  1.82893E+03 -2.70325E+02  1.87741E+02 -2.42765E+02  1.07304E+03 -8.17637E+02  1.05205E+03
 -9.94051E+02  3.47814E+03 -2.53936E+03  5.37078E+02 -3.90890E+03  2.54116E+02 -4.67534E+03 -2.57451E+03
 -4.04644E+03 -5.18606E+03  1.18176E+03 -7.59864E+03  3.03233E+03 -3.98178E+03  6.64649E+03 -1.48359E+03
  6.81850E+03  1.49176E+02  3.43582E+03  3.26173E+03 -1.40630E+03  4.81105E+03 -1.63350E+03  2.83655E+03
 -3.51516E+03  1.36713E+03 -1.47747E+03 -6.01902E+02 -1.46314E+01 -7.49212E+02 -1.72286E+03  5.53367E+02
 -1.59969E+03 -2.42543E+02 -2.69907E+03 -1.29852E+03  6.24431E+02 -1.63556E+03  6.42676E+01 -1.61033E+03
  2.72417E+03 -2.43171E+03  2.48826E+03 -3.29918E+02  3.10951E+03  1.75282E+03 -9.61662E+02  3.94922E+03
 -3.28997E+03  4.55360E+03 -3.38448E+03  3.41144E+03 -5.29947E+03  3.15769E+01 -3.42874E+03 -2.92554E+03
 -2.82400E+03 -3.57112E+03  1.71115E+03 -4.16290E+03  2.39616E+03 -2.60447E+03  2.25879E+03 -3.63498E+02
  2.57357E+03  3.38379E+02  9.27610E+02  9.97071E+02 -1.83389E+02 -8.02518E+01 -9.10405E+02 -5.76621E+02
  9.67199E+02 -8.77590E+02  1.51096E+03  2.32850E+02  2.54983E+03  2.34610E+03  1.04567E+03  2.36535E+03
 -2.71952E+03  3.25757E+03 -1.11691E+03  3.63746E+02 -1.54226E+03 -1.10809E+03 -9.46058E+01 -2.98904E+03
  1.56824E+03 -3.55368E+03  4.92064E+02 -1.93646E+02  2.71807E+03 -3.57455E+02  1.96558E+03  2.61849E+03
  6.58928E+02  1.95374E+03 -1.19383E+03  1.01454E+03 -2.40385E+03  1.13191E+03 -1.81819E+03  3.26973E+02
 -1.41397E+03 -5.17396E+02 -5.73757E+02  1.09453E+03 -1.61397E+03  3.04214E+02 -2.31190E+03 -3.91802E+02
 -2.02628E+03 -1.46023E+03 -9.62120E+02 -2.59954E+03  1.59940E+03 -2.78251E+03  6.01632E+02 -5.84195E+02
  7.69461E+02  1.42292E+03  1.64580E+03  2.34555E+03 -6.49680E+02  2.95484E+03 -1.57328E+03  1.74368E+03
