 $NMID ID='MM_0lb_SNR200_16hz_g45_95.RAW', FMTDAT='(8E13.5)'
 TRAMP=1., VOLUME=1. $END
  3.08572E+05 -2.89240E+02  3.36920E+05  2.50609E+05  8.52725E+04  3.36437E+05 -1.30702E+05  2.51573E+05
 -1.89442E+05  8.26642E+04 -1.11523E+05 -3.19460E+04  5.54148E+02 -5.05889E+04  5.40559E+04  4.54194E+02
  3.53515E+04  5.21142E+04 -1.73953E+04  7.45007E+04 -6.04284E+04  6.43445E+04 -8.33684E+04  3.24454E+04
 -8.06523E+04 -1.05586E+04 -5.60752E+04 -5.12462E+04 -1.45995E+04 -6.92363E+04  2.72304E+04 -4.43323E+04
  3.84956E+04  3.73990E+03  1.64192E+04  4.74775E+04 -3.34758E+04  4.73142E+04 -6.58904E+04 -8.09530E+02
 -5.36609E+04 -5.62646E+04 -5.88970E+03 -7.56856E+04  3.41159E+04 -5.29845E+04  4.77102E+04 -1.60074E+04
  4.18453E+04  1.22318E+04  3.08485E+04  2.52056E+04  1.53405E+04  2.87091E+04 -4.10321E+03  2.67230E+04
 -2.18504E+04  1.21329E+04 -1.93321E+04 -5.07521E+03  4.73694E+03 -8.54288E+03  2.16594E+04  1.20231E+04
  6.57277E+03  3.48475E+04 -3.02254E+04  3.35929E+04 -6.17513E+04  2.03086E+03 -5.53551E+04 -4.15879E+04
 -1.32105E+04 -6.17804E+04  3.92773E+04 -4.43147E+04  5.67848E+04 -2.67278E+03  3.23662E+04  3.16652E+04
 -6.00268E+03  3.43264E+04 -2.95394E+04  1.46869E+04 -2.92548E+04 -6.07572E+03 -1.51517E+04 -1.14801E+04
 -7.96116E+03 -1.24631E+04 -1.89248E+03 -1.74303E+04  6.60531E+03 -2.17698E+04  1.49957E+04 -1.37039E+04
  1.12990E+04  4.70731E+03 -7.28907E+03  1.28524E+04 -2.07720E+04 -3.26511E+03 -8.27522E+03 -3.27338E+04
  2.12650E+04 -4.09813E+04  4.65367E+04 -2.02863E+04  4.34591E+04  1.89582E+04  1.50086E+04  4.24623E+04
 -1.60294E+04  3.27964E+04 -2.46588E+04  1.70610E+03 -9.22689E+03 -2.77844E+04  2.08659E+04 -3.22144E+04
  3.89063E+04 -7.86585E+03  3.44256E+04  2.40533E+04  1.68339E+04  4.52664E+04 -8.72941E+03  4.87362E+04
 -2.98708E+04  3.19881E+04 -4.00351E+04  8.42644E+03 -4.00917E+04 -1.64443E+04 -2.22871E+04 -3.55391E+04
  6.90127E+03 -3.55460E+04  3.09214E+04 -1.41116E+04  2.76198E+04  8.49936E+03  4.40561E+03  1.79564E+04
 -1.35464E+04  6.91512E+03 -9.62980E+03 -7.70484E+03  6.33890E+03 -9.09792E+03  1.70594E+04  5.72217E+03
  1.23069E+04  2.12519E+04 -6.28634E+03  2.46170E+04 -2.23774E+04  1.09424E+04 -2.62300E+04 -4.76292E+03
 -1.90124E+04 -1.70680E+04 -7.31407E+03 -1.91414E+04  4.96657E+03 -1.74732E+04  1.45708E+04 -1.63129E+04
  2.24011E+04 -1.26160E+04  2.87661E+04  2.37487E+03  2.16562E+04  1.85214E+04  3.86425E+03  3.49833E+04
 -1.77489E+04  2.82440E+04 -2.71818E+04  9.10711E+03 -2.01539E+04 -1.06942E+04 -4.86052E+03 -1.38079E+04
  2.23821E+03 -3.67216E+03 -3.14580E+03  5.49205E+03 -1.40770E+04  4.74700E+03 -1.38896E+04 -6.24035E+03
 -9.25837E+03 -1.75731E+04  4.32891E+03 -2.05201E+04  1.30819E+04 -1.50960E+04  1.62835E+04 -2.25024E+03
  1.08481E+04  1.14456E+04 -5.42891E+02  1.75114E+04 -1.12947E+04  9.73940E+03 -1.69837E+04 -4.52392E+03
 -1.22675E+04 -1.58101E+04 -1.71457E+03 -2.06964E+04  9.78374E+03 -1.56413E+04  1.67201E+04 -8.36816E+03
  1.67003E+04 -6.04308E+02  1.10755E+04  4.25226E+03  5.56540E+03  5.05723E+02  8.67616E+03 -9.28771E+02
  1.46690E+04  1.87042E+03  1.59593E+04  1.43233E+04  1.10982E+04  2.75378E+04 -3.33886E+03  3.04831E+04
 -1.72769E+04  2.35481E+04 -2.73909E+04  1.20485E+04 -2.96313E+04 -1.79372E+03 -2.39355E+04 -1.68803E+04
 -1.06381E+04 -2.37140E+04  8.44392E+03 -2.15156E+04  1.81954E+04 -1.18772E+04  1.70469E+04  4.71114E+03
  7.11821E+03  1.23631E+04 -8.60876E+03  1.17810E+04 -1.51397E+04  3.07461E+03 -1.15261E+04 -8.42813E+03
 -6.65289E+01 -1.27459E+04  6.69390E+03 -1.08520E+04  9.61845E+03 -3.04901E+02  1.55283E+03  4.74550E+03
 -6.07372E+03  1.70689E+03 -5.04542E+03 -5.04578E+03  1.83186E+02 -1.27203E+04  9.44077E+03 -1.19884E+04
  1.41833E+04 -5.93784E+03  1.56610E+04  2.22942E+03  1.25752E+04  1.19439E+04  5.55267E+03  1.72892E+04
 -1.78459E+03  1.95138E+04 -1.20253E+04  1.14120E+04 -1.24783E+04  3.77135E+03 -1.00333E+04 -3.30401E+03
 -4.38195E+03 -4.61609E+03 -6.95668E+02  1.35923E+03 -2.84589E+03  1.64580E+03 -3.98841E+03  4.34659E+03
 -9.18046E+03 -8.75224E+02 -9.44143E+03 -7.98548E+03 -4.52796E+03 -1.31055E+04  3.91477E+03 -9.46658E+03
  8.99439E+03 -4.63366E+03  5.80747E+03  2.09824E+03  9.18998E+02  4.78540E+03 -4.54402E+03 -1.30715E+03
 -4.11831E+03 -7.42071E+03  3.27686E+02 -7.50768E+03  5.52886E+03 -1.00880E+04  1.12350E+04 -5.05680E+03
  1.32652E+04  3.98115E+02  1.06250E+04  7.63078E+03  1.62590E+03  1.14159E+04 -5.47090E+03  1.02591E+04
 -8.47359E+03  2.99151E+03 -3.45028E+03 -1.45338E+03  7.69067E+02 -2.26897E+03  5.33091E+03 -1.42759E+03
  4.79391E+03  4.51993E+03  1.63194E+03  6.86988E+03 -6.12626E+03  7.34143E+03 -8.91511E+03  1.27373E+03
 -5.22558E+03 -5.21628E+03  1.09742E+03 -7.19413E+03  4.09820E+03 -2.07474E+03  4.63624E+03  1.47593E+03
 -7.36924E+02  5.21175E+03 -3.08023E+03  6.56761E+03 -5.45880E+03  2.27367E+03 -6.55533E+03 -4.56485E+02
 -4.66349E+03 -7.31792E+03  1.61741E+03 -8.31324E+03  7.32524E+03 -5.75909E+03  7.60797E+03  1.15949E+03
  5.23450E+03  7.18109E+03 -3.99924E+02  8.84757E+03 -5.60660E+03  4.60510E+03 -6.61200E+03 -1.41923E+03
 -5.33100E+03 -6.52972E+03 -1.50709E+03 -7.18630E+03  4.64386E+03 -5.14960E+03  3.10890E+03 -3.60053E+03
  3.60168E+03 -5.20047E+02  5.24586E+02  1.75968E+03 -5.65099E+01 -7.85698E+02  3.83045E+02 -2.65289E+03
  5.12299E+03 -1.66192E+03  7.55015E+03  8.80691E+02  8.82928E+03  6.09287E+03  5.63499E+03  9.26251E+03
 -1.50963E+03  1.13299E+04 -1.03607E+04  9.02804E+03 -1.26144E+04  1.73474E+03 -1.01249E+04 -3.80391E+03
 -4.20190E+03 -7.92410E+03 -6.26056E+02 -6.61342E+03  3.10795E+03 -3.60502E+03  2.99143E+03 -3.49005E+03
  2.12279E+03 -2.02324E+03  1.51133E+03 -2.46623E+03  3.71690E+03 -1.60170E+03  3.80714E+03  1.61846E+02
  6.51679E+03  2.15933E+03  1.14494E+03  4.75293E+03 -1.77687E+03  3.79628E+03 -5.68197E+03  2.94068E+03
 -6.32025E+03 -8.79605E+02 -3.61858E+03 -3.69844E+03 -2.30897E+02 -6.65792E+03  5.32419E+03 -7.66256E+03
  7.41785E+03 -3.91699E+03  8.75868E+03  4.28166E+02  6.33027E+03  4.77396E+03  9.44378E+02  7.93107E+03
 -3.84319E+03  7.43790E+03 -4.61590E+03  2.62799E+03 -3.64458E+03 -7.34985E+02 -9.75627E+01 -7.39050E+02
 -2.54626E+02  9.36534E+02 -1.58571E+03  2.85876E+03 -4.11163E+03  1.82770E+03 -5.73603E+03 -1.13671E+03
 -1.48259E+03 -4.51431E+03  3.48766E+02 -7.00143E+03  2.88903E+03 -7.63352E+03  5.14720E+03 -1.07191E+03
  5.90834E+03  1.98614E+03  2.79391E+03  5.30066E+03 -1.32990E+03  5.42960E+03 -3.39388E+03  4.05759E+03
 -4.75184E+03  8.72202E+02 -5.23301E+03 -3.01207E+03  7.64518E+00 -4.92585E+03  3.81535E+03 -3.58899E+03
  2.33476E+03 -1.33643E+03  3.00327E+03  1.44772E+03  1.80891E+03  1.61727E+03  6.17503E+02  1.77995E+03
  1.34569E+03  4.79864E+02  1.19534E+03  1.28891E+03  1.06586E+03  2.45480E+03  4.87596E+02  1.70258E+03
 -1.85810E+03  4.17451E+03 -3.31712E+03  4.97941E+03 -4.93184E+03  2.12947E+03 -5.69652E+03 -1.30096E+03
 -2.11864E+03 -5.08599E+03  1.05451E+03 -6.31052E+03  2.48534E+03 -3.41569E+03  3.43671E+03 -2.53303E+03
  3.78548E+03  3.24557E+03  1.49822E+03  2.68585E+03 -1.05321E+03  2.29855E+03 -2.59824E+03 -8.09067E+02
 -1.27049E+03 -3.35152E+03  1.97759E+03 -2.36997E+03  2.95869E+03 -1.37435E+03  2.14252E+03  1.98740E+02
  1.34810E+03  2.26508E+03  1.60914E+02 -2.82569E+02 -1.16447E+03  6.16794E+02  2.09474E+03  1.07113E+02
 -6.17953E+01 -4.82152E+02  2.56550E+03  1.10438E+03  1.61235E+03  3.07519E+03 -3.92836E+01  3.51157E+03
 -2.77944E+03  1.34437E+03 -3.67489E+03  4.27434E+02 -3.85451E+03 -9.47984E+02 -4.24507E+02 -1.94408E+03
  2.37684E+02 -1.10453E+03  1.01752E+03  4.39457E+02  3.52128E+02  2.08176E+03 -1.24831E+03  1.18265E+03
 -1.26055E+03  4.59328E+02 -2.34796E+03 -6.71367E+02 -1.00406E+03 -2.52275E+03  7.80725E+02 -3.62273E+03
  1.30730E+03 -1.39882E+03  1.64920E+03 -8.17512E+00  1.32661E+03 -6.85872E+02 -5.26331E+01  1.20275E+03
 -1.67780E+03  5.37645E+02 -1.38722E+03 -5.13475E+02  1.59512E+03 -2.67014E+03  1.84761E+03 -1.38327E+03
  2.60143E+03 -3.59169E+02  3.19633E+03  1.46316E+03  1.03766E+03  3.09324E+03 -6.10175E+02  3.10353E+03
 -1.71326E+03  2.75383E+02 -1.59017E+03 -3.04096E+01 -1.49996E+03 -1.51715E+03 -1.31597E+02 -1.52141E+03
  2.26498E+03 -5.37379E+02  1.96367E+03  5.86100E+02  3.84976E+01  1.66297E+03 -8.06266E+02  1.25276E+03
 -2.23666E+03  1.88595E+03 -2.92715E+02 -4.54061E+02 -4.54345E+02 -3.65077E+02 -9.80776E+02  1.61196E+03
  3.79851E+02  8.78931E+02 -1.86575E+03  3.93707E+02 -2.38391E+03 -5.42594E+02 -3.56194E+03 -2.64908E+03
 -2.38133E+03 -3.19290E+03  8.05537E+02 -4.10264E+03  1.41360E+03 -3.65048E+03  4.34483E+03 -1.96419E+03
  3.67617E+03 -1.24970E+02  2.00216E+03  2.99001E+03 -9.93591E+01  3.01501E+03  4.97762E+01  1.97474E+03
 -1.17436E+03  1.68408E+03  8.69173E+00 -4.97022E+01 -2.00043E+02 -8.25787E+02  1.57543E+02  5.78784E+02
 -1.43284E+03 -7.15942E+02 -1.53087E+03  3.65881E+02  9.65964E+02 -1.19160E+03 -4.29480E+02 -1.68147E+03
  2.05185E+03 -9.28774E+02  8.10860E+02 -3.36589E+02  2.40324E+03  1.45322E+03 -1.36718E+02  1.98975E+03
 -2.83266E+02  3.11494E+03 -2.16262E+03  2.97647E+03 -3.09066E+03 -3.37905E+02 -2.13015E+03 -3.23767E+03
 -2.86163E+02 -1.63046E+03  1.30930E+03 -1.87359E+03  1.25530E+03 -6.08011E+02  2.13850E+02  1.89674E+02
  8.81269E+02  2.32566E+02 -3.76580E+02  1.57722E+03 -1.32943E+03 -8.49587E+01 -1.10100E+03  1.21666E+03
  8.93497E+02 -5.78568E+02  6.89145E+02  3.85603E+02 -1.68360E+02  1.13730E+03  5.79094E+01  1.01652E+03
 -6.15196E+02  8.88258E+02 -9.12973E+02  1.41641E+03 -1.13757E+03 -8.91821E+02  1.59454E+03 -7.78076E+02
  5.20457E+02 -1.03249E+03  1.17191E+03 -1.36301E+03  2.24778E+03 -1.53334E+03  8.83635E+02  1.39163E+03
  9.87799E+02  1.68341E+03 -6.71929E+02  1.35562E+02 -2.03452E+03  1.05919E+03 -1.31475E+02  5.55637E+01
 -7.24909E+02 -6.30893E+02  5.89753E+02 -2.60678E+01 -1.05179E+03  5.43988E+02 -1.45338E+03 -4.42701E+02
 -8.80608E+02 -2.63227E+02 -9.21390E+02 -2.08350E+03  8.27825E+02 -3.64225E+03  1.63230E+03 -1.95950E+03
  1.11873E+03  2.38300E+02  9.12855E+02  6.54503E+02  2.87689E+02  7.68774E+02 -1.07581E+03  1.10057E+03
