 $NMID ID='MM_0lb_SNR200_12hz_g40_21.RAW', FMTDAT='(8E13.5)'
 TRAMP=1., VOLUME=1. $END
  3.08700E+05  7.74468E+02  3.37390E+05  2.50521E+05  8.38543E+04  3.37510E+05 -1.33350E+05  2.51209E+05
 -1.90021E+05  8.32348E+04 -1.11748E+05 -3.27489E+04  1.46034E+03 -5.09314E+04  5.32234E+04 -7.06817E+02
  3.48396E+04  5.25611E+04 -1.89498E+04  7.54717E+04 -6.05960E+04  6.41268E+04 -8.29180E+04  3.26351E+04
 -8.15450E+04 -1.08886E+04 -5.61364E+04 -5.10517E+04 -1.47684E+04 -6.88680E+04  2.73924E+04 -4.56853E+04
  3.87350E+04  4.18943E+03  1.61475E+04  4.87363E+04 -3.37390E+04  4.72866E+04 -6.52772E+04 -1.62500E+03
 -5.34750E+04 -5.69456E+04 -7.60007E+03 -7.75795E+04  3.37787E+04 -5.39693E+04  4.86488E+04 -1.71154E+04
  4.36720E+04  1.03368E+04  3.14770E+04  2.62284E+04  1.66224E+04  2.96557E+04 -6.08940E+03  2.59365E+04
 -2.23772E+04  1.23616E+04 -1.87598E+04 -4.58645E+03  5.86832E+03 -7.67601E+03  2.24954E+04  1.30457E+04
  8.08437E+03  3.55166E+04 -3.40510E+04  3.56151E+04 -6.41314E+04  1.86555E+03 -5.66060E+04 -4.28935E+04
 -1.19345E+04 -6.28323E+04  4.02927E+04 -4.67801E+04  5.96286E+04 -2.15303E+03  3.36374E+04  3.17721E+04
 -6.75217E+03  3.64819E+04 -3.15038E+04  1.60210E+04 -3.18970E+04 -3.97233E+03 -1.63315E+04 -1.08920E+04
 -9.28262E+03 -1.35015E+04 -1.72311E+03 -1.98029E+04  7.84342E+03 -2.22706E+04  1.45992E+04 -1.26273E+04
  1.06927E+04  6.38420E+03 -7.46187E+03  1.11833E+04 -2.15640E+04 -4.89184E+03 -7.22912E+03 -3.40739E+04
  2.32431E+04 -4.43705E+04  4.81374E+04 -2.11662E+04  4.60310E+04  2.01314E+04  1.69210E+04  4.51973E+04
 -1.56955E+04  3.54219E+04 -2.78306E+04  1.91186E+03 -1.01466E+04 -2.82812E+04  2.17708E+04 -3.37819E+04
  4.07612E+04 -9.95452E+03  3.57078E+04  2.35725E+04  1.98249E+04  4.68971E+04 -6.74589E+03  5.14570E+04
 -3.24396E+04  3.48616E+04 -4.29910E+04  9.99421E+03 -4.23956E+04 -1.74897E+04 -2.39329E+04 -3.98065E+04
  7.10765E+03 -3.92275E+04  3.08898E+04 -1.52059E+04  2.97670E+04  1.07647E+04  4.35449E+03  1.97853E+04
 -1.27839E+04  9.14075E+03 -1.11834E+04 -8.59832E+03  6.40441E+03 -1.21767E+04  1.89920E+04  7.49739E+03
  1.40291E+04  2.14289E+04 -7.36722E+03  2.57356E+04 -2.26561E+04  1.14326E+04 -2.95368E+04 -4.52852E+03
 -2.20939E+04 -1.73020E+04 -8.55584E+03 -2.06855E+04  2.95912E+03 -2.15099E+04  1.67701E+04 -1.91880E+04
  2.64093E+04 -1.29890E+04  3.37951E+04  3.15451E+03  2.56047E+04  2.08597E+04  4.61362E+03  3.74190E+04
 -1.73765E+04  3.17783E+04 -2.82894E+04  1.07338E+04 -2.09908E+04 -1.09292E+04 -5.24299E+03 -1.28112E+04
  7.77415E+02 -2.40042E+03 -4.78396E+03  6.52171E+03 -1.79112E+04  5.15900E+03 -1.79929E+04 -7.83832E+03
 -1.04071E+04 -1.80137E+04  4.30904E+03 -2.54404E+04  1.47021E+04 -1.69937E+04  1.98324E+04 -8.23618E+02
  1.19856E+04  1.40126E+04 -9.44883E+02  2.03955E+04 -1.30429E+04  1.28205E+04 -1.95193E+04 -4.06767E+03
 -1.61585E+04 -1.70264E+04 -9.31431E+02 -2.39120E+04  1.14096E+04 -1.81071E+04  2.05611E+04 -9.12723E+03
  1.94678E+04  5.35012E+02  1.29567E+04  4.24596E+03  7.58547E+03  2.88764E+03  9.23912E+03 -2.17728E+03
  1.79367E+04  2.16562E+03  2.11216E+04  1.52947E+04  1.19535E+04  3.34368E+04 -2.53722E+03  3.56505E+04
 -2.11766E+04  2.98322E+04 -3.30612E+04  1.43978E+04 -3.63743E+04 -1.38304E+03 -3.00156E+04 -2.13194E+04
 -1.15640E+04 -2.99137E+04  1.07441E+04 -2.63280E+04  2.29403E+04 -1.38676E+04  1.94383E+04  5.01556E+03
  7.63187E+03  1.47438E+04 -8.94227E+03  1.33207E+04 -1.73597E+04  2.80145E+03 -1.24720E+04 -9.84501E+03
 -7.28023E+02 -1.51384E+04  7.94437E+03 -1.17131E+04  1.10406E+04 -2.20531E+03  1.84650E+03  8.06534E+03
 -6.87167E+03  2.20802E+03 -5.82591E+03 -5.85371E+03 -1.09635E+03 -1.50457E+04  9.48737E+03 -1.60801E+04
  1.72592E+04 -8.31922E+03  1.94416E+04  3.42148E+03  1.63581E+04  1.38708E+04  8.49091E+03  2.13531E+04
 -3.99452E+03  2.36066E+04 -1.50533E+04  1.59708E+04 -1.71410E+04  2.08069E+03 -1.21272E+04 -3.24248E+03
 -6.42590E+03 -5.39980E+03 -1.49634E+03  7.17654E+02 -2.91591E+03  4.49611E+03 -4.94336E+03  4.89453E+03
 -1.14701E+04 -8.03767E+02 -1.31688E+04 -8.57386E+03 -5.72816E+03 -1.44235E+04  3.96956E+03 -1.25701E+04
  9.61928E+03 -3.71819E+03  7.19260E+03  2.43758E+03  2.94409E+02  4.73467E+03 -6.63343E+03  7.43078E+00
 -5.03784E+03 -8.44878E+03 -1.59836E+03 -1.18010E+04  6.63321E+03 -1.21482E+04  1.43387E+04 -7.03138E+03
  1.71914E+04  1.24570E+03  1.38936E+04  1.11448E+04  2.70535E+03  1.40480E+04 -7.69628E+03  1.29861E+04
 -1.04154E+04  2.94739E+03 -4.57267E+03 -2.91524E+03  2.07060E+03 -2.43563E+03  6.21927E+03 -1.24118E+03
  6.14818E+03  5.26111E+03  1.81505E+03  1.06744E+04 -6.98266E+03  9.38814E+03 -1.14078E+04  3.19158E+03
 -9.22545E+03 -6.29596E+03 -5.42714E+02 -1.06053E+04  7.01615E+03 -5.41529E+03  6.85188E+03  5.96958E+02
  1.58721E+03  6.97714E+03 -6.68125E+03  6.29943E+03 -8.95060E+03  2.62637E+03 -9.82339E+03 -2.51516E+03
 -5.65773E+03 -1.03961E+04  3.02754E+03 -1.30778E+04  1.12692E+04 -8.15338E+03  1.24763E+04  2.35741E+03
  7.31756E+03  9.50121E+03 -1.34105E+03  1.15810E+04 -8.43162E+03  6.94535E+03 -1.02364E+04 -5.85424E+02
 -7.88764E+03 -7.70564E+03 -1.14671E+03 -9.09312E+03  4.40913E+03 -6.42037E+03  4.97305E+03 -3.41288E+03
  3.96639E+03  4.32300E+02  4.39474E+02  1.56891E+03 -1.64384E+03 -1.69915E+03  1.22580E+03 -4.36210E+03
  8.94210E+03 -2.41174E+03  1.08701E+04  1.12483E+03  1.21537E+04  7.03456E+03  8.17252E+03  1.48686E+04
 -3.96065E+03  1.57916E+04 -1.40042E+04  1.23323E+04 -1.88068E+04  2.56801E+03 -1.52499E+04 -5.54157E+03
 -8.81241E+03 -1.18539E+04 -5.86859E+02 -1.06292E+04  3.52314E+03 -5.90931E+03  4.22812E+03 -4.46238E+03
  2.70989E+03 -3.46146E+03  2.40646E+03 -3.78425E+03  3.85409E+03 -1.27125E+03  5.16804E+03 -1.07241E+03
  6.31203E+03  1.49084E+03  2.24214E+03  7.57098E+03 -2.26648E+03  8.20090E+03 -6.81082E+03  4.06076E+03
 -9.11667E+03 -1.23822E+03 -5.80379E+03 -7.85480E+03 -6.26596E+02 -1.17014E+04  6.45648E+03 -1.11766E+04
  1.03087E+04 -5.66447E+03  1.30636E+04  8.36438E+02  9.57652E+03  7.78355E+03  1.85150E+03  1.25272E+04
 -4.04225E+03  1.10054E+04 -5.89235E+03  4.82603E+03 -4.86020E+03 -1.23113E+03 -1.62037E+03 -7.08309E+02
  3.03666E+02 -3.14094E+02 -1.50841E+03  2.95860E+03 -5.44368E+03  3.08664E+03 -6.81498E+03 -1.64792E+03
 -5.21680E+03 -6.08768E+03  9.15391E+02 -9.47800E+03  6.94391E+03 -8.70818E+03  9.84109E+03 -1.50994E+03
  9.84892E+03  5.24786E+03  4.73159E+03  7.89982E+03 -2.08735E+03  9.27955E+03 -6.50326E+03  6.69855E+03
 -8.68458E+03 -6.13747E+02 -7.04943E+03 -5.79737E+03 -7.40351E+02 -7.45397E+03  3.13955E+03 -6.04303E+03
  6.05625E+03 -2.88363E+03  5.14859E+03  1.95339E+03  1.38542E+03  4.08576E+03  1.40569E+03  5.86136E+02
  2.99861E+03  7.26931E+02  2.67390E+03  3.27246E+03  3.16210E+03  3.49606E+03  3.47960E+03  6.08929E+03
 -2.80335E+03  6.85571E+03 -6.10042E+03  7.48589E+03 -8.68620E+03  2.72849E+03 -1.11726E+04 -3.16744E+03
 -4.92398E+03 -9.17721E+03  1.76578E+03 -1.04580E+04  4.89361E+03 -7.24137E+03  6.73249E+03 -2.57081E+03
  6.35063E+03  3.82936E+03  9.98193E+02  5.61713E+03 -3.55221E+03  3.92156E+03 -4.22642E+03 -1.03632E+03
 -1.15314E+03 -4.59434E+03  2.35304E+03 -4.78833E+03  3.69835E+03 -1.50103E+03  2.29754E+03  7.03329E+02
  2.49631E+03  1.72184E+03  2.04113E+03  1.66796E+03 -7.88875E+02  2.14447E+03  9.76771E+02  1.22773E+02
  1.81055E+03 -1.48532E+03  2.36094E+03  1.79109E+03  1.83876E+03  5.26630E+03 -7.75281E+02  6.80288E+03
 -4.78039E+03  3.78064E+03 -5.57136E+03  1.47027E+03 -6.08673E+03 -1.51152E+03 -8.16631E+02 -2.83437E+03
  7.14740E+02 -3.27569E+03  2.45474E+03 -2.93246E+03  2.67282E+03  1.34372E+03 -9.97109E+02  2.72439E+03
 -3.62276E+03  3.02576E+03 -4.49382E+03 -1.90606E+03 -3.28128E+03 -5.28699E+03  4.46372E+00 -5.28225E+03
  1.53574E+03 -1.97030E+03  4.12973E+03  8.68575E+01  3.25695E+03  3.59710E+02 -2.21044E+02  2.92782E+03
 -1.46605E+03 -7.58325E+02 -2.30855E+03 -2.31159E+03  8.07251E+02 -2.67894E+03  3.50628E+03 -3.33371E+03
  4.69047E+03  1.39160E+03  6.37436E+03  3.92350E+03  5.59958E+02  5.65478E+03 -8.71656E+01  5.67456E+03
 -4.78669E+03  2.00214E+03 -5.45429E+03 -1.24769E+03 -6.84940E+02 -4.21453E+03  1.25939E+03 -2.77401E+03
  3.62999E+03 -1.63205E+03  1.59943E+03  1.88632E+03  9.33902E+02  2.98896E+03 -8.26127E+02  1.96465E+03
 -8.89842E+02  1.69244E+03 -2.01116E+03  1.54382E+03 -2.21406E+03  3.23228E+02 -3.67048E+02  7.29567E+02
 -3.50430E+02  2.96621E+03 -4.02951E+03  1.82813E+03 -5.66464E+03  3.16663E+02 -6.34368E+03 -3.73503E+03
 -4.07061E+03 -7.92440E+03  1.31271E+03 -7.58556E+03  4.47749E+03 -7.58882E+03  9.74294E+03 -2.09999E+03
  9.35073E+03  9.38956E+02  4.22603E+03  5.62069E+03 -5.59581E+02  6.34081E+03 -2.54872E+03  3.84098E+03
 -4.11087E+03  1.92017E+03 -2.06311E+03 -1.49550E+03 -1.73604E+02 -1.47311E+00 -1.27115E+03 -8.59932E+02
 -8.31147E+02  1.28613E+03 -1.91516E+03  6.33554E+01 -3.65974E+02 -2.25523E+03  5.67548E+02 -2.34984E+03
  2.96794E+03 -2.33996E+03  3.24833E+03  3.49585E+02  5.15557E+03  2.52965E+03  1.66674E+03  4.73236E+03
 -2.89764E+03  6.14644E+03 -5.64809E+03  4.51101E+03 -7.09931E+03  8.36955E+02 -5.41288E+03 -2.40657E+03
 -2.14635E+03 -5.38005E+03 -2.35552E+02 -4.10658E+03  2.86236E+03 -2.40626E+03  3.50599E+03  1.21391E+03
  2.68988E+03  2.21307E+03 -7.20785E+01  2.67826E+03 -8.27568E+02  1.09028E+03 -3.60395E+02 -8.44736E+02
  1.36850E+03 -1.32529E+02  2.04159E+03  8.29240E+02  9.54145E+02  2.15795E+03 -5.68551E+02  1.15688E+03
 -2.76257E+03  1.30488E+03 -3.39668E+03  4.12760E+02 -2.55018E+03 -1.51194E+03 -1.37555E+03 -5.34734E+03
  3.21336E+03 -3.68812E+03  2.68291E+03 -2.06241E+03  3.41095E+03  1.45088E+03  9.93543E+02  3.17180E+03
  1.06623E+03  3.15597E+03 -1.11107E+03  2.95061E+03 -2.05611E+03  1.54097E+03 -2.28864E+03  9.08310E+02
 -1.62293E+03 -3.55701E+01 -1.46655E+03  1.46802E+03 -2.41055E+03 -7.94729E+01 -3.15752E+03 -1.39754E+02
 -2.98337E+03 -2.37391E+03 -8.38737E+02 -3.52998E+03  1.52784E+03 -4.00202E+03  3.13809E+03 -1.60541E+03
  2.80469E+03 -1.38596E+02  1.15463E+03  2.89328E+03 -1.54547E+02  4.50858E+03 -3.50815E+03  3.09571E+03
