 $NMID ID='MM_0lb_SNR200_16hz_g55_2.RAW', FMTDAT='(8E13.5)'
 TRAMP=1., VOLUME=1. $END
  3.10626E+05  1.88880E+02  3.36833E+05  2.50745E+05  8.41855E+04  3.37868E+05 -1.33059E+05  2.50995E+05
 -1.89889E+05  8.23201E+04 -1.10196E+05 -3.33827E+04  8.75381E+02 -5.00009E+04  5.39581E+04  5.25466E+02
  3.55231E+04  5.21243E+04 -1.61753E+04  7.46993E+04 -6.04019E+04  6.34055E+04 -8.31164E+04  3.32861E+04
 -8.02729E+04 -1.16112E+04 -5.71047E+04 -5.10633E+04 -1.47250E+04 -7.00232E+04  2.82429E+04 -4.46123E+04
  4.03100E+04  3.24591E+03  1.56934E+04  4.79967E+04 -3.39187E+04  4.61457E+04 -6.60396E+04 -7.23627E+02
 -5.31200E+04 -5.63734E+04 -7.28564E+03 -7.64135E+04  3.49604E+04 -5.54708E+04  4.70152E+04 -1.71924E+04
  4.33503E+04  1.21933E+04  3.11194E+04  2.60193E+04  1.62321E+04  2.81225E+04 -4.00993E+03  2.63885E+04
 -2.26144E+04  1.26639E+04 -1.94524E+04 -4.34246E+03  5.03020E+03 -7.31719E+03  2.21727E+04  1.14768E+04
  8.06152E+03  3.58927E+04 -3.26814E+04  3.54048E+04 -6.27056E+04  2.53470E+03 -5.54513E+04 -4.33198E+04
 -1.25071E+04 -6.25250E+04  3.87426E+04 -4.47829E+04  5.76135E+04 -1.69111E+03  3.27525E+04  3.19912E+04
 -6.69585E+03  3.58510E+04 -2.95633E+04  1.54002E+04 -3.03153E+04 -4.66491E+03 -1.60991E+04 -1.06013E+04
 -8.52229E+03 -1.29022E+04 -7.93637E+02 -1.71673E+04  7.97124E+03 -2.36655E+04  1.46480E+04 -1.38268E+04
  1.22009E+04  3.88165E+03 -8.53487E+03  1.27654E+04 -2.07225E+04 -3.95495E+03 -7.48822E+03 -3.29360E+04
  2.33226E+04 -4.37782E+04  4.83826E+04 -1.91235E+04  4.50852E+04  1.89655E+04  1.48591E+04  4.42533E+04
 -1.56791E+04  3.24589E+04 -2.39217E+04  2.42412E+03 -9.03059E+03 -2.78988E+04  2.09888E+04 -3.33323E+04
  3.94922E+04 -8.33589E+03  3.35881E+04  2.35206E+04  1.71212E+04  4.53766E+04 -7.85505E+03  4.91528E+04
 -3.11260E+04  3.17367E+04 -4.12535E+04  9.91605E+03 -4.30242E+04 -1.67475E+04 -2.29716E+04 -3.79590E+04
  8.51781E+03 -3.76601E+04  3.11158E+04 -1.41059E+04  2.84737E+04  1.08126E+04  3.65242E+03  1.93208E+04
 -1.45929E+04  8.09878E+03 -9.39728E+03 -8.85038E+03  6.49815E+03 -1.01755E+04  1.81587E+04  6.31099E+03
  1.36047E+04  2.23560E+04 -5.79624E+03  2.45852E+04 -2.22413E+04  1.08645E+04 -2.74522E+04 -3.74638E+03
 -1.96992E+04 -1.74360E+04 -7.36300E+03 -2.04204E+04  3.28356E+03 -1.84440E+04  1.51266E+04 -1.62242E+04
  2.48916E+04 -1.42185E+04  3.23358E+04  2.32296E+03  2.22918E+04  1.94288E+04  3.52275E+03  3.53101E+04
 -1.82302E+04  2.97302E+04 -2.76053E+04  9.75283E+03 -1.95889E+04 -1.08785E+04 -3.36028E+03 -1.35831E+04
  1.29867E+03 -3.93476E+03 -4.59573E+03  5.70988E+03 -1.49821E+04  4.08661E+03 -1.51465E+04 -7.41734E+03
 -1.02393E+04 -1.93888E+04  4.89495E+03 -2.30163E+04  1.61937E+04 -1.53459E+04  1.76022E+04 -8.30813E+02
  9.83373E+03  1.22537E+04 -7.17940E+02  1.84134E+04 -1.33395E+04  9.98701E+03 -1.80149E+04 -3.81689E+03
 -1.15402E+04 -1.55037E+04 -2.47033E+03 -2.21825E+04  9.98888E+03 -1.63983E+04  1.88348E+04 -9.18616E+03
  1.66770E+04 -1.77973E+02  1.24941E+04  3.67942E+03  7.21131E+03  1.16089E+03  8.32279E+03 -2.29747E+03
  1.53236E+04  2.86025E+03  1.80452E+04  1.57155E+04  1.22192E+04  2.90714E+04 -3.71010E+03  3.02140E+04
 -1.86542E+04  2.62383E+04 -3.01309E+04  1.18093E+04 -3.03569E+04 -2.65826E+03 -2.55019E+04 -1.75384E+04
 -1.07531E+04 -2.58535E+04  8.26561E+03 -2.25852E+04  1.89201E+04 -1.20657E+04  1.67913E+04  5.48303E+03
  7.75948E+03  1.36928E+04 -8.85468E+03  1.08535E+04 -1.60241E+04  2.87022E+03 -1.18706E+04 -8.98949E+03
  6.33554E+02 -1.47750E+04  7.55637E+03 -1.12725E+04  9.53696E+03 -1.20327E+03  2.12763E+03  6.02360E+03
 -6.83427E+03  1.82430E+03 -5.21470E+03 -5.62895E+03 -3.04748E+01 -1.29071E+04  8.28544E+03 -1.28703E+04
  1.68151E+04 -7.03350E+03  1.67136E+04  2.96189E+03  1.36991E+04  1.12062E+04  5.46508E+03  1.87542E+04
 -3.60625E+03  1.99761E+04 -1.39193E+04  1.28779E+04 -1.49163E+04  3.80209E+03 -1.01630E+04 -3.51121E+03
 -4.53890E+03 -4.34542E+03 -8.84732E+01  1.30622E+03 -2.10035E+03  3.45948E+03 -5.86416E+03  3.99503E+03
 -9.60247E+03 -1.04181E+03 -1.04955E+04 -9.04202E+03 -2.80556E+03 -1.36845E+04  4.18834E+03 -1.06705E+04
  8.50329E+03 -5.05107E+03  7.38274E+03  1.91409E+03  7.52007E+02  5.44925E+03 -5.28373E+03 -5.84168E+02
 -4.39600E+03 -7.81690E+03 -7.91120E+02 -1.01317E+04  5.98081E+03 -1.01224E+04  1.27592E+04 -5.88587E+03
  1.49982E+04  1.07239E+02  1.02158E+04  8.31200E+03  2.23379E+03  1.04499E+04 -6.70787E+03  9.84056E+03
 -8.62730E+03  3.07515E+03 -5.30591E+03 -1.98901E+03  1.14247E+03 -2.59833E+03  5.73625E+03 -8.67332E+02
  5.31702E+03  2.91619E+03  9.03055E+02  7.37684E+03 -5.16405E+03  7.02012E+03 -1.00897E+04  1.44715E+03
 -6.34933E+03 -4.56505E+03  4.03008E+02 -8.91982E+03  5.10432E+03 -4.49591E+03  5.85358E+03  1.82596E+03
  1.01822E+03  4.10483E+03 -5.57231E+03  6.71466E+03 -6.67674E+03  2.52437E+03 -7.77352E+03 -2.16420E+03
 -3.17461E+03 -8.43047E+03  2.30844E+03 -1.03722E+04  8.38228E+03 -6.20355E+03  8.37701E+03  1.35761E+03
  6.01525E+03  7.20045E+03  1.40632E+01  1.01072E+04 -6.69760E+03  4.44859E+03 -6.61522E+03 -1.14186E+03
 -8.11075E+03 -8.04634E+03 -2.12729E+03 -6.94801E+03  2.19560E+03 -5.95560E+03  3.98205E+03 -2.57658E+03
  3.97922E+03  5.61929E+02 -1.53835E+03  1.51262E+03  2.71499E+02 -1.01359E+03  1.05668E+03 -2.87452E+03
  5.49182E+03 -1.13665E+03  8.29654E+03  4.82593E+02  8.04019E+03  4.46336E+03  5.97129E+03  1.05031E+04
 -1.37710E+03  1.17260E+04 -9.10320E+03  9.16086E+03 -1.35387E+04  2.63563E+03 -1.06618E+04 -3.28438E+03
 -7.03503E+03 -8.86399E+03 -1.39966E+03 -7.69121E+03  1.99908E+03 -3.92924E+03  2.39174E+03 -3.49585E+03
  2.00391E+03 -2.58165E+03  1.66932E+03 -4.12937E+03  4.25188E+03 -1.27195E+03  3.68059E+03  5.51407E+02
  4.45409E+03  1.90755E+03  2.03103E+03  5.01941E+03 -2.01584E+03  4.46721E+03 -5.47941E+03  4.26390E+03
 -7.80532E+03 -6.01458E+02 -3.53653E+03 -4.09288E+03 -1.07061E+02 -7.08390E+03  5.15672E+03 -7.32637E+03
  8.20205E+03 -4.86502E+03  9.00671E+03  8.53100E+02  6.68770E+03  4.93277E+03  1.86839E+03  8.33877E+03
 -4.31690E+03  6.69504E+03 -5.54323E+03  2.51809E+03 -3.03082E+03 -1.27946E+03 -8.44209E+02 -8.94226E+02
 -8.63883E+02 -2.85315E+02  3.19586E+02  1.83720E+03 -3.58632E+03  1.80284E+03 -4.74725E+03 -1.42249E+03
 -2.16903E+03 -5.96925E+03  8.23828E+02 -7.46235E+03  4.25864E+03 -5.98413E+03  6.37981E+03 -1.79271E+03
  6.99400E+03  2.60517E+03  2.33483E+03  5.09326E+03 -1.41760E+03  6.23064E+03 -4.49087E+03  3.42107E+03
 -5.54805E+03  1.08750E+03 -4.67669E+03 -2.67167E+03  9.45358E+01 -5.59143E+03  3.21125E+03 -5.12299E+03
  4.03396E+03 -1.15543E+03  2.81658E+03  1.53494E+03  1.14926E+03  1.97387E+03 -1.14077E+02  7.75137E+02
  2.26117E+03 -2.49211E+02  1.16207E+03  1.46375E+03  1.65335E+03  2.81126E+03  9.25167E+02  2.80641E+03
 -1.45842E+03  4.98202E+03 -5.04839E+03  6.15496E+03 -4.87033E+03  9.62440E+02 -5.97126E+03 -1.99302E+03
 -2.45685E+03 -5.83907E+03  9.37362E+02 -6.61626E+03  2.76605E+03 -3.37029E+03  4.19572E+03 -1.49820E+03
  4.20191E+03  1.91711E+03  1.50504E+03  3.41753E+03 -4.08216E+02  2.03284E+03 -1.75558E+03  7.31012E+01
 -2.04338E+03 -1.88853E+03  1.88222E+03 -2.68977E+03  1.43910E+03 -1.63583E+03  3.73371E+03  9.22334E+02
  1.00811E+03  1.78344E+03  5.26963E+02  5.27494E+02 -5.75815E+02  1.63295E+03  1.12907E+03  1.35382E+02
  6.30676E+02 -6.74696E+02  3.10432E+03  6.52819E+02  4.16460E+02  3.33572E+03 -8.13194E+01  3.62449E+03
 -2.76696E+03  2.41618E+03 -2.32897E+03  6.04783E+02 -3.12441E+03 -2.02790E+03  2.90677E+02 -2.54395E+03
 -1.59938E+02 -1.24831E+03  1.30855E+03 -1.36306E+03  2.01088E+03  1.55961E+03 -1.37466E+02  1.15984E+03
 -1.20559E+03  1.05390E+03 -2.70913E+03 -9.61624E+02 -1.49992E+03 -3.31124E+03  9.13068E+02 -3.03386E+03
  7.84508E+02 -3.01671E+02  1.87514E+03  1.97221E+02  1.82123E+03  2.24507E+02  3.81973E+02  3.03485E+03
  2.60556E+02  6.49085E+02 -1.13018E+03 -1.33476E+03  1.01341E+03 -2.33512E+03  3.79711E+03 -1.12006E+03
  2.61736E+03  8.42588E+01  4.39171E+03  2.45890E+03  1.90300E+03  2.49498E+03 -1.08319E+03  1.64686E+03
 -3.01391E+03  1.01322E+02 -3.16003E+03 -7.51269E+02 -1.95970E+03 -1.67883E+03  8.96214E+02 -1.70009E+03
  2.84212E+03 -1.14177E+03  1.80350E+03  1.51979E+03 -7.85307E+01  1.73192E+03 -4.64906E+02  3.32743E+03
 -1.05010E+03  4.79812E+02 -4.78014E+02  8.50977E+02 -1.18097E+03 -1.31126E+02 -1.84233E+03  1.28517E+03
 -9.88117E+02  8.28967E+02 -2.49821E+03 -2.06686E+02 -2.67130E+03 -5.85170E+02 -3.43434E+03 -2.44609E+03
 -2.99716E+03 -4.13168E+03  3.17940E+02 -5.09136E+03  1.87324E+03 -4.10882E+03  5.48892E+03 -4.34799E+02
  4.57844E+03  9.82643E+01  1.83577E+03  2.54844E+03  8.55002E+02  2.35496E+03 -3.88759E+02  1.54646E+03
 -2.15747E+03  1.62494E+03 -5.19521E+02 -1.37386E+02 -1.92851E+03 -1.09507E+03 -1.20092E+03  6.03853E+02
  3.69451E+02 -1.17400E+03 -2.00995E+03 -9.51342E+02  8.60600E+02 -2.63947E+02 -2.98479E+02 -1.26173E+03
  9.02886E+02  2.74760E+02  1.64768E+03 -3.15264E+02  1.71415E+03  7.66828E+02 -1.83768E+01  3.32468E+03
 -1.78287E+03  3.18778E+03 -2.61447E+03  3.13875E+03 -2.94465E+03 -1.27825E+03 -2.31716E+03 -1.71874E+03
 -1.25962E+03 -2.09671E+03 -8.20933E+02 -2.19122E+03  1.28403E+03 -1.78132E+03  2.20509E+03  1.04870E+03
  1.10554E+03  1.21079E+03 -4.02295E+02 -6.30888E+02  4.82881E+02 -6.42186E+02 -8.87524E+02 -7.25322E+02
  1.17194E+03  1.61144E+02  6.24530E+02  3.60664E+02  3.26353E+02  2.06188E+03  1.33317E+02  3.62061E+02
 -1.40150E+03  1.89057E+03 -1.80441E+03  4.29035E+02 -1.69586E+03 -1.56953E+03 -3.64140E+01 -1.42794E+03
  7.76753E+02 -2.03866E+03  2.99126E+03 -3.22876E+02  6.22033E+02 -7.32042E+02  1.57678E+03  1.59147E+03
  4.07453E+02  1.03448E+03 -9.08954E+02  1.77311E+03 -1.27326E+03  1.01956E+03 -2.44930E+02  4.09738E+01
  9.68630E+02 -1.05256E+03  5.64995E+02  7.88322E+01 -9.74620E+02 -3.23144E+02 -1.14338E+03 -1.38699E+03
 -1.55838E+03 -4.77126E+02 -4.40130E+02 -1.93409E+03  1.14249E+03 -2.28850E+03  1.69834E+03 -8.09138E+02
  2.03920E+03  6.61685E+02  7.63580E+02  7.89140E+02 -1.93259E+02  9.23178E+02 -1.06546E+03  1.69693E+03
