 $NMID ID='MM_0lb_SNR200_7hz_g40_17.RAW', FMTDAT='(8E13.5)'
 TRAMP=1., VOLUME=1. $END
  3.10488E+05  2.33474E+02  3.37250E+05  2.50720E+05  8.60080E+04  3.37764E+05 -1.30045E+05  2.51287E+05
 -1.89365E+05  8.32460E+04 -1.14618E+05 -3.16026E+04  8.54341E+02 -5.02899E+04  5.58514E+04 -7.70970E+02
  3.54499E+04  5.28286E+04 -1.68749E+04  7.68713E+04 -6.04942E+04  6.35007E+04 -8.60509E+04  3.05134E+04
 -8.33786E+04 -1.12853E+04 -5.91571E+04 -5.38912E+04 -1.39926E+04 -7.23141E+04  2.95859E+04 -4.66219E+04
  4.20649E+04  3.95137E+03  1.72019E+04  4.67828E+04 -3.54220E+04  4.54347E+04 -6.92601E+04  3.01901E+02
 -5.49087E+04 -5.75938E+04 -9.15155E+03 -7.81838E+04  3.35586E+04 -5.62956E+04  5.05593E+04 -1.69177E+04
  4.60143E+04  1.24588E+04  3.26534E+04  2.60966E+04  1.71049E+04  2.98926E+04 -5.46831E+03  2.77056E+04
 -2.26772E+04  1.11199E+04 -1.67850E+04 -5.80815E+03  7.34054E+03 -8.21984E+03  2.37793E+04  1.55108E+04
  7.21393E+03  3.67342E+04 -3.36039E+04  3.73364E+04 -6.67025E+04  1.46884E+03 -5.89280E+04 -4.59416E+04
 -1.19109E+04 -6.54608E+04  4.24142E+04 -4.85047E+04  6.07972E+04 -4.57078E+03  3.78885E+04  3.37455E+04
 -4.63320E+03  4.14468E+04 -3.16733E+04  1.94878E+04 -3.39521E+04 -4.50798E+03 -1.92315E+04 -1.16304E+04
 -1.06076E+04 -1.68186E+04 -8.89116E+02 -2.14445E+04  5.67719E+03 -2.30518E+04  1.70590E+04 -1.20933E+04
  1.06317E+04  7.32466E+03 -1.22000E+04  1.10294E+04 -2.34124E+04 -7.19878E+03 -9.47663E+03 -3.78799E+04
  2.46042E+04 -4.94333E+04  5.40822E+04 -2.24796E+04  4.93828E+04  2.27923E+04  1.72580E+04  4.86867E+04
 -1.83473E+04  3.64011E+04 -2.65468E+04  2.21241E+03 -1.33525E+04 -3.02955E+04  2.13382E+04 -3.68161E+04
  4.62133E+04 -1.10071E+04  3.95525E+04  2.64577E+04  2.28668E+04  5.06578E+04 -8.49546E+03  5.81402E+04
 -3.71100E+04  3.95149E+04 -4.93292E+04  1.05796E+04 -4.91016E+04 -1.86202E+04 -2.62772E+04 -4.24564E+04
  8.29368E+03 -4.18217E+04  3.55470E+04 -1.78013E+04  3.40086E+04  1.06313E+04  5.44185E+03  2.08871E+04
 -1.36403E+04  9.50682E+03 -1.03922E+04 -6.40182E+03  3.76377E+03 -1.15422E+04  2.01750E+04  4.51193E+03
  1.75645E+04  2.24200E+04 -5.70807E+03  2.72136E+04 -2.46129E+04  1.78012E+04 -3.18106E+04 -2.10445E+03
 -2.60682E+04 -1.86726E+04 -1.15883E+04 -2.59302E+04  5.85360E+03 -2.72605E+04  2.06341E+04 -2.42686E+04
  3.22643E+04 -1.66564E+04  3.85541E+04  5.84263E+03  2.78343E+04  2.56951E+04  4.32870E+03  4.41778E+04
 -2.08352E+04  3.45642E+04 -3.14571E+04  1.22297E+04 -2.09678E+04 -1.06188E+04 -5.56499E+03 -1.28990E+04
  2.20482E+03  5.21298E+02 -7.45573E+03  9.54636E+03 -2.17712E+04  6.14023E+03 -2.09778E+04 -1.13735E+04
 -1.13181E+04 -2.44347E+04  6.51594E+03 -2.89675E+04  1.97890E+04 -2.04786E+04  2.48527E+04 -1.55253E+03
  1.50306E+04  1.60669E+04 -1.40041E+03  2.47240E+04 -1.55088E+04  1.41822E+04 -2.46570E+04 -3.68481E+03
 -1.71849E+04 -2.07853E+04 -2.20057E+03 -2.91760E+04  1.29934E+04 -2.36062E+04  2.32282E+04 -1.22292E+04
  2.25182E+04 -9.72705E+01  1.75788E+04  4.29596E+03  8.27739E+03  3.07646E+03  1.30648E+04 -8.60703E+02
  2.27586E+04  1.30547E+03  2.74334E+04  1.95904E+04  1.69284E+04  3.90680E+04 -4.78339E+03  4.71362E+04
 -2.61032E+04  3.99942E+04 -4.53200E+04  2.04753E+04 -4.77525E+04 -3.73334E+03 -3.74599E+04 -2.72040E+04
 -1.61842E+04 -3.99209E+04  1.32329E+04 -3.51222E+04  3.00282E+04 -1.58559E+04  2.66668E+04  7.58111E+03
  8.89034E+03  1.95092E+04 -1.08314E+04  1.58301E+04 -2.05156E+04  2.18173E+03 -1.77352E+04 -1.39815E+04
 -2.22191E+02 -2.13697E+04  1.02058E+04 -1.42931E+04  1.41039E+04 -1.72117E+03  4.36347E+03  9.87104E+03
 -1.05632E+04  6.10861E+03 -9.84020E+03 -8.01641E+03 -1.09686E+03 -2.18904E+04  1.17376E+04 -2.25682E+04
  2.48634E+04 -1.33049E+04  2.89992E+04  3.86669E+03  2.86122E+04  2.28556E+04  1.14925E+04  3.10356E+04
 -9.17039E+03  3.35771E+04 -2.30850E+04  2.08784E+04 -2.58081E+04  4.30027E+03 -1.64162E+04 -7.80722E+03
 -8.82347E+03 -8.39230E+03  1.78816E+02 -7.02284E+02 -2.30130E+03  3.04555E+03 -8.16430E+03  6.30413E+03
 -1.66590E+04 -2.00939E+03 -1.60282E+04 -1.26289E+04 -4.77385E+03 -1.98038E+04  6.67337E+03 -1.76604E+04
  1.28646E+04 -7.98770E+03  1.03005E+04  4.48076E+03  3.33135E+01  5.41051E+03 -7.27555E+03  9.73895E+02
 -7.81368E+03 -1.16300E+04 -3.98291E+02 -1.72698E+04  9.79535E+03 -1.88391E+04  2.42101E+04 -9.36986E+03
  2.52171E+04  3.52478E+03  1.85863E+04  1.46777E+04  2.37797E+03  2.16294E+04 -1.00458E+04  1.51107E+04
 -1.34453E+04  4.85931E+03 -7.45292E+03 -6.59272E+03  2.85057E+03 -4.53965E+03  8.03312E+03  1.61040E+03
  8.01621E+03  7.28950E+03  8.25649E+02  1.23190E+04 -1.00030E+04  1.38517E+04 -1.70048E+04  2.65098E+03
 -1.25523E+04 -7.90911E+03  6.62532E+02 -1.46290E+04  8.18286E+03 -5.02027E+03  1.00114E+04  2.85215E+03
  1.56487E+03  1.18796E+04 -8.23380E+03  1.33951E+04 -1.47017E+04  5.90483E+03 -1.52526E+04 -5.70109E+03
 -9.89171E+03 -1.67049E+04  5.23239E+03 -2.02380E+04  1.56191E+04 -1.22634E+04  1.78293E+04  3.89208E+03
  1.22023E+04  1.56130E+04 -1.95775E+03  2.02408E+04 -1.29637E+04  1.09230E+04 -1.34877E+04 -2.11570E+03
 -1.22244E+04 -1.13171E+04 -6.76762E+02 -1.28798E+04  7.42714E+03 -1.02002E+04  8.70903E+03 -5.73795E+03
  6.19936E+03  2.02014E+03 -1.12441E+03  2.30723E+02  1.17616E+02 -3.22936E+03  1.44439E+03 -8.62944E+03
  1.41179E+04 -6.15238E+03  1.64040E+04  2.21500E+03  1.78119E+04  1.36135E+04  1.05269E+04  2.18302E+04
 -6.85396E+03  2.82563E+04 -2.20302E+04  1.92484E+04 -3.06302E+04  2.26354E+03 -2.43720E+04 -1.19348E+04
 -1.35301E+04 -1.91937E+04 -1.84695E+03 -1.66397E+04  5.01521E+03 -9.72244E+03  4.65959E+03 -6.28188E+03
  5.63268E+03 -4.40992E+03  4.50365E+03 -5.29389E+03  5.80023E+03 -3.61301E+03  1.11894E+04 -1.98858E+03
  1.22710E+04  3.63081E+03  7.63771E+03  1.12197E+04 -2.24097E+03  1.35535E+04 -1.41337E+04  1.16936E+04
 -1.69091E+04 -3.06563E+03 -1.16248E+04 -1.18944E+04 -2.95664E+03 -1.87071E+04  1.08480E+04 -1.65464E+04
  1.96261E+04 -9.17677E+03  2.25535E+04  3.28395E+03  1.53457E+04  1.60455E+04  3.87079E+03  2.05989E+04
 -8.75044E+03  1.72554E+04 -1.26226E+04  5.65805E+03 -7.96922E+03 -1.03512E+02 -2.49754E+03 -2.29699E+03
 -1.81594E+03 -7.43274E+02 -2.54858E+03  3.91539E+03 -6.83607E+03  3.80059E+03 -1.29164E+04 -2.94251E+03
 -7.68506E+03 -1.13483E+04 -1.64090E+02 -1.75632E+04  1.24746E+04 -1.59168E+04  1.75721E+04 -4.48273E+03
  1.69391E+04  8.94048E+03  8.28578E+03  1.37699E+04 -4.19495E+03  1.84776E+04 -1.19356E+04  1.15099E+04
 -1.66720E+04  1.58954E+03 -1.38832E+04 -9.54815E+03 -2.54986E+03 -1.49280E+04  8.97880E+03 -1.00215E+04
  1.08435E+04 -2.55939E+03  9.77892E+03  6.03698E+03  6.34045E+03  5.79399E+03  3.38458E+03  3.10396E+03
  2.55888E+03  1.77037E+03  6.13634E+03  1.25160E+03  5.91654E+03  7.42115E+03  5.63102E+03  1.01477E+04
 -4.08624E+03  1.35821E+04 -1.26385E+04  1.49748E+04 -1.85207E+04  5.30265E+03 -1.90832E+04 -9.50095E+03
 -9.06921E+03 -1.83132E+04  3.73870E+03 -2.03601E+04  1.29756E+04 -1.23500E+04  1.63782E+04 -2.98209E+03
  1.31601E+04  5.95676E+03  2.80086E+03  1.02124E+04 -4.12821E+03  7.46001E+03 -7.81767E+03  1.43649E+03
 -4.27256E+03 -5.32101E+03  3.56076E+03 -9.01141E+03  7.62925E+03 -3.71156E+03  8.45228E+03  2.97315E+03
  3.61580E+03  5.00609E+03  2.33252E+03  4.35288E+03 -1.62531E+03 -1.68464E+02  1.51605E+03 -7.44331E+02
  4.00813E+03 -1.84108E+03  7.45468E+03  3.91852E+03  6.85001E+03  8.96053E+03 -1.27976E+03  1.18018E+04
 -1.10011E+04  8.76834E+03 -1.08383E+04  1.94322E+03 -1.20402E+04 -3.28170E+03 -3.06742E+03 -7.90731E+03
  2.39508E+03 -6.56618E+03  4.33743E+03 -5.22444E+03  4.51355E+03  5.23600E+03 -1.95991E+03  5.64233E+03
 -8.93027E+03  3.24386E+03 -8.98164E+03 -3.66267E+03 -7.08406E+03 -9.51242E+03  1.73359E+03 -9.66558E+03
  5.62609E+03 -7.06304E+03  9.41868E+03 -1.46661E+03  7.15522E+03  3.14882E+03  2.86633E+03  6.27813E+03
 -4.35157E+03  2.28749E+03 -5.78986E+03 -3.18216E+03  2.66375E+03 -8.45133E+03  1.01977E+04 -6.39419E+03
  1.21308E+04  2.38644E+03  9.73253E+03  9.85621E+03  5.49935E+03  1.33022E+04 -3.50100E+03  1.25245E+04
 -1.30569E+04  5.49787E+03 -1.04546E+04 -1.61947E+03 -5.93569E+03 -7.73220E+03  3.67718E+03 -8.39242E+03
  9.03355E+03 -4.56316E+03  7.46694E+03  3.21518E+03  1.92068E+03  6.55425E+03 -2.90720E+03  6.21919E+03
 -3.08134E+03  3.34862E+03 -1.29651E+03  5.64206E+02 -1.40185E+03  1.13969E+03 -1.36487E+03  2.50865E+03
 -3.09894E+03  2.97960E+03 -9.10576E+03  4.52899E+03 -1.38844E+04 -7.19380E+01 -1.40150E+04 -1.00375E+04
 -8.84554E+03 -1.90919E+04  3.28304E+03 -1.94909E+04  1.43886E+04 -1.56090E+04  1.92925E+04 -3.07652E+03
  1.82154E+04  4.07811E+03  1.21837E+04  1.24273E+04  3.92292E+02  1.42192E+04 -4.39061E+03  8.03818E+03
 -7.30386E+03  4.32741E+03 -4.86812E+03 -1.47978E+03 -1.82526E+02  7.28127E+02 -1.12809E+03 -4.96090E+02
 -3.29684E+03 -2.49163E+02 -3.81505E+03 -8.97120E+02  1.64647E+02 -2.11356E+03  1.87164E+02 -4.99489E+03
  7.35841E+03 -4.85369E+03  8.11597E+03 -4.94254E+02  9.74103E+03  6.44252E+03  1.56284E+03  1.25076E+04
 -6.73916E+03  1.58089E+04 -1.40859E+04  1.04716E+04 -1.72953E+04 -6.25097E+01 -1.28069E+04 -1.05479E+04
 -4.70647E+03 -1.50723E+04  4.61101E+03 -1.42338E+04  1.03693E+04 -7.39969E+03  9.48058E+03 -6.47989E+01
  5.11433E+03  5.90451E+03 -1.77629E+03  2.37972E+03 -2.73997E+03 -5.88818E+02  1.26496E+03 -3.25256E+03
  4.75796E+03 -2.03333E+03  4.86461E+03  8.62594E+02  3.44872E+03  5.55321E+03  3.77824E+00  6.73090E+03
 -7.64749E+03  6.35281E+03 -9.92104E+03  9.30766E+02 -6.99847E+03 -7.05330E+03 -2.11880E+03 -1.32558E+04
  6.41184E+03 -1.12391E+04  9.32356E+03 -3.95281E+03  1.14427E+04  4.58496E+03  7.30292E+03  9.86861E+03
  1.64725E+03  1.04583E+04 -4.02217E+03  8.55948E+03 -6.20439E+03  4.64204E+03 -3.14856E+03  5.17933E+02
 -8.50745E+02 -2.18571E+03 -8.32317E+02  2.30379E+03 -4.71057E+03  5.72928E+02 -6.17752E+03 -2.46865E+03
 -6.23550E+03 -4.92453E+03 -1.58641E+03 -8.93274E+03  3.74322E+03 -1.06092E+04  8.07708E+03 -5.82251E+03
  1.02286E+04  2.55917E+03  5.73546E+03  9.47675E+03 -1.78108E+02  9.37760E+03 -7.87834E+03  5.57602E+03
