 $NMID ID='MM_0lb_SNR200_10hz_g60_58.RAW', FMTDAT='(8E13.5)'
 TRAMP=1., VOLUME=1. $END
  3.10174E+05  2.67370E+02  3.39161E+05  2.50217E+05  8.61729E+04  3.37029E+05 -1.32202E+05  2.51901E+05
 -1.90930E+05  8.37658E+04 -1.12972E+05 -3.15737E+04 -4.62778E+02 -5.11670E+04  5.36652E+04  1.49554E+02
  3.57351E+04  5.36532E+04 -1.66217E+04  7.50977E+04 -6.07092E+04  6.44042E+04 -8.41638E+04  3.22984E+04
 -8.28994E+04 -1.18117E+04 -5.88104E+04 -5.21771E+04 -1.50053E+04 -7.18812E+04  2.69817E+04 -4.60777E+04
  4.11522E+04  3.64460E+03  1.55592E+04  4.86617E+04 -3.35512E+04  4.81611E+04 -6.81806E+04 -1.24283E+02
 -5.48500E+04 -5.87303E+04 -8.22615E+03 -8.04191E+04  3.53872E+04 -5.62077E+04  4.85706E+04 -1.75499E+04
  4.59063E+04  1.11505E+04  3.15042E+04  2.82582E+04  1.57282E+04  3.13255E+04 -5.45265E+03  2.65896E+04
 -2.23501E+04  1.07212E+04 -1.79073E+04 -5.26387E+03  7.12470E+03 -7.15059E+03  2.39183E+04  1.33447E+04
  6.94197E+03  3.82174E+04 -3.40160E+04  3.81505E+04 -6.56555E+04  3.06071E+03 -5.82808E+04 -4.48154E+04
 -1.26013E+04 -6.69674E+04  4.16982E+04 -4.94478E+04  6.22541E+04 -2.30511E+03  3.51458E+04  3.47868E+04
 -6.26013E+03  3.94055E+04 -3.10824E+04  1.79485E+04 -3.40699E+04 -4.39360E+03 -1.78977E+04 -1.22288E+04
 -9.01216E+03 -1.39575E+04 -3.03907E+02 -1.99078E+04  8.73240E+03 -2.23591E+04  1.51386E+04 -1.10879E+04
  1.02337E+04  6.53207E+03 -1.03223E+04  1.14177E+04 -2.28238E+04 -7.06901E+03 -7.31395E+03 -3.77229E+04
  2.60855E+04 -4.71590E+04  5.20593E+04 -2.07253E+04  5.00443E+04  2.09658E+04  1.67651E+04  4.79622E+04
 -1.44115E+04  3.65851E+04 -2.70186E+04  2.34131E+03 -1.06116E+04 -3.10922E+04  2.07144E+04 -3.75010E+04
  4.46799E+04 -9.00039E+03  4.11074E+04  2.58967E+04  2.11486E+04  5.10994E+04 -8.53010E+03  5.67203E+04
 -3.57108E+04  3.73806E+04 -4.78981E+04  1.20272E+04 -4.71329E+04 -2.06094E+04 -2.73619E+04 -4.12035E+04
  7.32881E+03 -4.23689E+04  3.43047E+04 -1.69826E+04  3.16848E+04  1.15664E+04  5.08033E+03  2.05975E+04
 -1.38560E+04  9.57583E+03 -1.14330E+04 -6.78257E+03  5.77461E+03 -1.23351E+04  2.03643E+04  5.61110E+03
  1.55341E+04  2.31071E+04 -4.17723E+03  2.85253E+04 -2.33454E+04  1.35047E+04 -3.00039E+04 -3.28803E+03
 -2.71957E+04 -1.76037E+04 -1.20357E+04 -2.51663E+04  3.08853E+03 -2.65583E+04  2.02582E+04 -2.22979E+04
  3.19188E+04 -1.48310E+04  3.99101E+04  5.89547E+03  3.03573E+04  2.29353E+04  3.65869E+03  4.27262E+04
 -2.00523E+04  3.49470E+04 -3.08922E+04  1.15685E+04 -2.15352E+04 -1.05916E+04 -4.43614E+03 -1.20952E+04
 -7.03170E+02 -2.29935E+03 -8.53972E+03  7.28276E+03 -2.10003E+04  4.44902E+03 -1.99622E+04 -1.02035E+04
 -1.21186E+04 -2.30757E+04  7.19886E+03 -2.77889E+04  1.93425E+04 -2.03974E+04  2.08210E+04 -3.58096E+03
  1.44079E+04  1.74991E+04 -1.38993E+03  2.36922E+04 -1.74048E+04  1.32865E+04 -2.41928E+04 -4.49458E+03
 -1.76627E+04 -2.09503E+04 -1.84945E+03 -2.75040E+04  1.26491E+04 -2.43467E+04  2.37517E+04 -1.18923E+04
  2.21694E+04 -1.87560E+03  1.69512E+04  5.52871E+03  8.48607E+03  1.48939E+03  1.16349E+04 -1.13708E+03
  2.15122E+04  1.82875E+03  2.52215E+04  1.86730E+04  1.73228E+04  3.58841E+04 -2.24536E+03  4.54302E+04
 -2.52966E+04  3.72357E+04 -4.24080E+04  1.99543E+04 -4.32105E+04 -3.73425E+03 -3.58402E+04 -2.50927E+04
 -1.39034E+04 -3.64437E+04  1.39298E+04 -3.21293E+04  2.72636E+04 -1.57947E+04  2.52649E+04  7.44332E+03
  7.13757E+03  1.84800E+04 -1.08491E+04  1.46133E+04 -1.93223E+04  2.35759E+03 -1.37040E+04 -1.38958E+04
  2.57368E+03 -1.95317E+04  1.00480E+04 -1.60571E+04  1.47838E+04 -9.71320E+02  3.59446E+03  7.42643E+03
 -9.22616E+03  3.74875E+03 -1.03349E+04 -7.28130E+03 -2.10726E+03 -1.74896E+04  1.15415E+04 -1.96787E+04
  2.24744E+04 -1.10537E+04  2.75748E+04  4.21633E+03  2.35288E+04  1.78562E+04  1.14413E+04  2.86971E+04
 -4.90537E+03  3.17745E+04 -2.04599E+04  1.88848E+04 -2.27875E+04  5.49877E+03 -1.62661E+04 -5.17107E+03
 -5.29133E+03 -7.75256E+03 -1.01351E+03 -9.94414E+02 -2.73486E+03  3.38383E+03 -5.43454E+03  5.59259E+03
 -1.46203E+04 -1.24417E+03 -1.46144E+04 -1.25714E+04 -7.22278E+03 -1.88279E+04  5.47293E+03 -1.44884E+04
  1.20732E+04 -6.11819E+03  9.64997E+03  5.13732E+03 -1.32969E+02  5.78965E+03 -9.13591E+03 -7.62069E+02
 -6.14393E+03 -1.26605E+04 -4.66670E+02 -1.64977E+04  1.00048E+04 -1.51778E+04  2.13983E+04 -8.87148E+03
  2.31303E+04  2.36480E+03  1.76284E+04  1.34034E+04  4.17009E+03  1.78325E+04 -9.28017E+03  1.54521E+04
 -1.49044E+04  4.64280E+03 -6.65545E+03 -3.76283E+03  1.74082E+03 -4.77331E+03  7.23733E+03 -2.83240E+01
  7.61555E+03  6.55117E+03  1.89830E+03  1.28081E+04 -9.71079E+03  1.17803E+04 -1.59227E+04  3.63577E+03
 -1.11537E+04 -8.24321E+03 -1.88300E+03 -1.34600E+04  9.10688E+03 -5.48560E+03  1.01699E+04  3.31417E+03
  1.45495E+03  1.00005E+04 -8.79096E+03  1.15582E+04 -1.32495E+04  6.36842E+03 -1.20544E+04 -5.21473E+03
 -7.35439E+03 -1.70870E+04  3.43647E+03 -1.68790E+04  1.48553E+04 -1.01742E+04  1.67499E+04  1.67513E+03
  8.70471E+03  1.34610E+04  1.04072E+03  1.58055E+04 -1.15095E+04  7.81518E+03 -1.34914E+04 -2.62098E+03
 -1.05435E+04 -9.51016E+03 -1.11941E+03 -1.15460E+04  6.05632E+03 -8.98666E+03  7.63812E+03 -3.08256E+03
  4.23238E+03  4.42815E+02 -5.11219E+02  1.21833E+03 -8.27517E+02 -2.65993E+03  2.84221E+03 -7.66065E+03
  1.22488E+04 -6.97703E+03  1.61817E+04  2.56948E+03  1.46719E+04  1.09468E+04  1.00150E+04  2.04198E+04
 -5.71142E+03  2.26299E+04 -1.98544E+04  1.74219E+04 -2.60625E+04  2.56299E+03 -1.99179E+04 -1.11469E+04
 -9.38287E+03 -1.73927E+04 -9.13151E+02 -1.47120E+04  3.70638E+03 -9.78249E+03  4.87112E+03 -5.17098E+03
  2.28246E+03 -4.78656E+03  3.36612E+03 -3.05853E+03  6.26909E+03 -1.46365E+03  6.68681E+03  9.45563E+02
  1.00737E+04  1.05502E+03  4.98633E+03  8.09270E+03 -2.18580E+03  9.97568E+03 -1.07899E+04  6.57199E+03
 -1.41040E+04 -8.75084E+02 -1.08883E+04 -1.08483E+04 -1.89904E+03 -1.56752E+04  9.05776E+03 -1.57883E+04
  1.47696E+04 -6.94202E+03  1.98361E+04  7.53477E+02  1.27690E+04  1.28081E+04  3.11314E+03  1.78077E+04
 -7.80167E+03  1.41071E+04 -9.42370E+03  5.49698E+03 -7.82976E+03 -1.39853E+03 -2.43566E+03 -2.95194E+03
 -3.28115E+03  3.11552E+02 -3.54425E+03  2.14527E+03 -5.48328E+03  2.54739E+03 -9.87024E+03 -2.21104E+03
 -6.50937E+03 -9.51466E+03 -3.86331E+02 -1.25741E+04  6.19232E+03 -1.47890E+04  1.44138E+04 -5.53374E+03
  1.40220E+04  7.72002E+03  6.65640E+03  1.08687E+04 -2.79423E+03  1.50808E+04 -1.08338E+04  8.07227E+03
 -1.37830E+04  1.28978E+03 -9.34834E+03 -6.81003E+03 -1.56738E+03 -1.16297E+04  4.62838E+03 -8.88040E+03
  9.19695E+03 -3.37404E+03  6.99999E+03  2.12583E+03  2.71187E+03  4.13103E+03  1.24348E+03  5.09363E+02
  2.54894E+03  8.87267E+02  4.63898E+03  2.02259E+02  4.35723E+03  5.60463E+03  5.02351E+03  8.97856E+03
 -3.57535E+03  1.23686E+04 -9.29378E+03  1.14673E+04 -1.35173E+04  2.65001E+03 -1.49831E+04 -7.28899E+03
 -7.98240E+03 -1.35649E+04  2.42462E+03 -1.57776E+04  8.84733E+03 -1.03614E+04  1.15894E+04 -2.71098E+03
  8.65400E+03  6.12755E+03  1.17826E+03  8.45300E+03 -5.62102E+03  3.93518E+03 -4.96470E+03 -1.36372E+03
 -2.86224E+03 -5.24516E+03  9.56521E+02 -6.59991E+03  7.39865E+03 -5.41244E+03  5.44512E+03  1.85789E+03
  3.70429E+03  3.10439E+03  2.06828E+03  1.41942E+03 -7.68795E+02  2.53728E+03  1.63708E+03 -2.84441E+02
  1.99629E+03 -1.30389E+03  6.87755E+03  2.80202E+03  2.26001E+03  5.87914E+03 -2.09727E+03  1.02379E+04
 -7.13663E+03  7.46504E+03 -8.30015E+03  1.60147E+03 -9.96685E+03 -3.33045E+03 -2.95814E+03 -4.08727E+03
  7.61460E+02 -5.62988E+03  2.98360E+03 -2.48824E+03  2.44188E+03  3.65681E+03 -1.07786E+03  5.21686E+03
 -7.25944E+03  3.79553E+03 -5.31943E+03 -4.28991E+03 -3.26694E+03 -7.70615E+03  9.66539E+02 -8.45137E+03
  3.26374E+03 -5.49930E+03  6.03437E+03 -6.13830E+02  4.03391E+03  2.40270E+03 -5.89514E+01  4.24729E+03
 -3.50055E+03  1.00483E+03 -3.98377E+03 -3.87980E+03  6.03433E+02 -5.37799E+03  6.70024E+03 -5.28155E+03
  8.87851E+03  1.15676E+03  6.91984E+03  5.63840E+03  2.39264E+03  1.02203E+04 -4.06556E+03  9.24481E+03
 -8.19451E+03  3.19584E+03 -7.27367E+03 -1.47539E+03 -3.80737E+03 -6.56430E+03  2.36614E+03 -5.75236E+03
  5.80458E+03 -2.69090E+03  4.53871E+03  8.90026E+02  1.98485E+03  6.83757E+03 -4.48597E+01  4.05087E+03
 -3.05945E+03  4.20209E+03 -2.03623E+03 -2.60589E+01 -6.27035E+02  2.15991E+03 -9.88262E+02  3.17408E+03
 -1.09255E+03  2.21952E+03 -7.30266E+03  3.72941E+03 -1.02270E+04  6.56409E+02 -1.02249E+04 -5.77128E+03
 -5.00524E+03 -1.19975E+04  3.05964E+03 -1.42711E+04  9.62912E+03 -1.16233E+04  1.51860E+04 -5.34612E+03
  1.41221E+04  1.82993E+03  6.35741E+03  8.38810E+03 -1.51079E+02  9.50222E+03 -3.63170E+03  6.84843E+03
 -4.88679E+03  2.63393E+03 -2.90718E+03 -1.02441E+03 -1.14066E+02 -5.42287E+01 -9.53620E+02  7.42737E+02
 -2.80918E+03  9.33059E+02 -3.19034E+03 -1.40051E+01 -5.18859E+02 -3.43542E+03  1.39180E+03 -3.17912E+03
  5.92259E+03 -2.36327E+03  8.53041E+03 -3.86746E+01  6.98960E+03  5.63265E+03  3.46400E+02  9.55118E+03
 -5.01350E+03  1.28859E+04 -9.12148E+03  7.80561E+03 -1.23005E+04 -7.88892E+02 -8.08765E+03 -7.23124E+03
 -4.98266E+03 -9.00317E+03  3.80124E+03 -8.29268E+03  5.00197E+03 -5.83470E+03  7.97666E+03  1.05901E+03
  2.46577E+03  2.56007E+03  9.21914E+01  2.84507E+03 -1.71830E+03 -1.67662E+03 -1.65617E+03 -2.57263E+03
  2.40553E+03 -1.11308E+03  3.07289E+03  1.71814E+03  2.24120E+03  2.62545E+03  8.34107E+02  3.75635E+03
 -5.14396E+03  2.23293E+03 -5.96362E+03  1.58768E+03 -5.25367E+03 -4.11093E+03 -2.11059E+03 -6.76277E+03
  4.32420E+03 -6.16667E+03  7.54620E+03 -3.09371E+03  7.96289E+03  2.10384E+01  5.04088E+03  6.62763E+03
  2.02083E+03  8.24791E+03 -3.26930E+03  4.90871E+03 -1.66199E+03  2.81862E+03 -3.46215E+03 -3.71443E+02
 -1.77177E+03 -6.61209E+02 -1.74910E+02  9.49384E+02 -2.86920E+03  1.99419E+03 -3.76842E+03 -1.97007E+01
 -3.65883E+03 -2.40486E+03 -5.31453E+02 -5.99163E+03  3.39049E+03 -6.81679E+03  4.30053E+03 -2.75897E+03
  6.74615E+03  7.80504E+02  2.33390E+03  4.58511E+03 -5.33917E+02  6.22474E+03 -5.95305E+03  3.67773E+03
