 $NMID ID='MM_0lb_SNR200_19hz_g55_71.RAW', FMTDAT='(8E13.5)'
 TRAMP=1., VOLUME=1. $END
  3.10193E+05  1.28411E+03  3.38978E+05  2.50575E+05  8.38368E+04  3.38555E+05 -1.33021E+05  2.50316E+05
 -1.89180E+05  8.33567E+04 -1.10762E+05 -3.25971E+04  1.28874E+03 -5.04834E+04  5.32026E+04 -4.12072E+01
  3.51040E+04  5.21596E+04 -1.59523E+04  7.44557E+04 -6.01833E+04  6.31602E+04 -8.33885E+04  3.20851E+04
 -8.11129E+04 -1.15478E+04 -5.58037E+04 -5.01160E+04 -1.52997E+04 -6.83553E+04  2.71555E+04 -4.51577E+04
  3.95229E+04  3.28421E+03  1.59886E+04  4.71362E+04 -3.40050E+04  4.60298E+04 -6.62799E+04  9.97613E+02
 -5.28031E+04 -5.63816E+04 -6.26236E+03 -7.66439E+04  3.36456E+04 -5.31959E+04  4.74783E+04 -1.53524E+04
  4.25355E+04  1.12598E+04  3.11429E+04  2.36572E+04  1.50408E+04  2.87314E+04 -4.78201E+03  2.74824E+04
 -2.16645E+04  1.20497E+04 -1.84292E+04 -4.91172E+03  4.84767E+03 -7.22726E+03  2.11469E+04  1.02131E+04
  7.19393E+03  3.35768E+04 -3.05648E+04  3.41960E+04 -6.22454E+04  2.67691E+03 -5.63859E+04 -4.22423E+04
 -1.24847E+04 -6.16344E+04  3.88968E+04 -4.37304E+04  5.59646E+04 -2.05471E+03  3.27986E+04  3.16344E+04
 -6.17234E+03  3.41061E+04 -2.88488E+04  1.42905E+04 -2.79120E+04 -5.53213E+03 -1.50512E+04 -1.05559E+04
 -6.51755E+03 -1.20372E+04 -5.66621E+02 -1.60175E+04  6.82189E+03 -2.26351E+04  1.46650E+04 -1.39518E+04
  1.22148E+04  5.28682E+03 -6.01278E+03  1.36098E+04 -2.01673E+04 -3.62763E+03 -7.25299E+03 -3.15779E+04
  2.08356E+04 -4.15514E+04  4.50067E+04 -1.89759E+04  4.22099E+04  1.86166E+04  1.49294E+04  4.20636E+04
 -1.47951E+04  3.13835E+04 -2.41028E+04  3.29310E+02 -8.11324E+03 -2.78952E+04  2.05795E+04 -3.18572E+04
  3.82942E+04 -7.06521E+03  3.28421E+04  2.36633E+04  1.55568E+04  4.27542E+04 -8.52633E+03  4.64553E+04
 -2.88212E+04  3.01512E+04 -3.78473E+04  9.01017E+03 -3.95530E+04 -1.50173E+04 -2.21980E+04 -3.49901E+04
  6.21098E+03 -3.47427E+04  3.04219E+04 -1.29093E+04  2.67850E+04  1.04312E+04  4.24409E+03  1.79044E+04
 -1.33085E+04  6.88283E+03 -8.65088E+03 -8.20007E+03  5.36379E+03 -9.41044E+03  1.69713E+04  5.98655E+03
  1.19710E+04  2.13014E+04 -5.43325E+03  2.42122E+04 -2.16572E+04  1.00421E+04 -2.54543E+04 -5.11009E+03
 -1.84380E+04 -1.63972E+04 -5.57817E+03 -1.80767E+04  3.41093E+03 -1.58492E+04  1.32305E+04 -1.46579E+04
  2.21295E+04 -1.08164E+04  2.94258E+04  1.16459E+03  2.16871E+04  1.76305E+04  4.23771E+03  3.35625E+04
 -1.70862E+04  2.82035E+04 -2.53884E+04  1.07703E+04 -1.92670E+04 -1.13213E+04 -4.74683E+03 -1.38318E+04
  3.02166E+03 -4.37030E+03 -3.61356E+03  4.74197E+03 -1.43929E+04  4.28497E+03 -1.40018E+04 -3.60163E+03
 -8.72916E+03 -1.60510E+04  4.10633E+03 -2.03935E+04  1.27596E+04 -1.41623E+04  1.52235E+04 -7.10873E+02
  9.17183E+03  1.11277E+04 -2.55013E+03  1.58034E+04 -9.96530E+03  8.80642E+03 -1.61410E+04 -3.08871E+03
 -1.09859E+04 -1.35219E+04 -1.87715E+03 -1.98023E+04  8.20257E+03 -1.62880E+04  1.56231E+04 -7.69182E+03
  1.51022E+04  1.26847E+02  1.02789E+04  4.23975E+03  6.11460E+03  7.42809E+02  8.15641E+03 -1.87373E+03
  1.43827E+04  2.88443E+03  1.58542E+04  1.23291E+04  9.98205E+03  2.58536E+04 -2.92417E+03  2.75020E+04
 -1.70147E+04  2.20205E+04 -2.49580E+04  1.07768E+04 -2.57192E+04 -1.60076E+03 -2.13336E+04 -1.40940E+04
 -9.85340E+03 -2.10412E+04  7.98758E+03 -1.97092E+04  1.67533E+04 -1.08749E+04  1.57850E+04  4.68411E+03
  7.13935E+03  1.28051E+04 -6.40967E+03  1.00423E+04 -1.45193E+04  2.78446E+03 -9.93652E+03 -7.71714E+03
  6.42458E+02 -1.25272E+04  6.56902E+03 -8.34603E+03  8.34021E+03 -7.57550E+02  1.11678E+03  6.01741E+03
 -5.40737E+03  9.95806E+02 -4.29214E+03 -4.65802E+03  9.03984E+02 -9.38353E+03  8.45974E+03 -9.87836E+03
  1.28394E+04 -5.17346E+03  1.23826E+04  2.61115E+03  1.04257E+04  8.54127E+03  4.89996E+03  1.43612E+04
 -1.27464E+03  1.63247E+04 -1.00282E+04  1.11811E+04 -1.14916E+04  3.07777E+03 -8.25045E+03 -1.19286E+03
 -4.80074E+03 -3.71326E+03 -4.67929E+02  2.23760E+03 -2.80476E+03  1.94845E+03 -4.30152E+03  3.74629E+03
 -8.15048E+03  3.10081E+01 -9.17561E+03 -6.04980E+03 -3.23104E+03 -1.17575E+04  3.76840E+03 -8.64829E+03
  7.33088E+03 -3.24199E+03  5.50194E+03  2.03932E+03  3.57402E+02  2.97660E+03 -2.77006E+03  7.54854E+02
 -3.70348E+03 -5.42486E+03 -1.60154E+03 -7.10840E+03  3.41809E+03 -9.10865E+03  9.53539E+03 -3.60022E+03
  1.18308E+04  1.12791E+03  8.60686E+03  5.17688E+03  1.90365E+03  9.05253E+03 -5.53370E+03  7.86082E+03
 -7.99694E+03  2.51520E+03 -2.70406E+03 -1.78382E+03  1.55071E+03 -1.33881E+03  5.13686E+03 -1.95586E+03
  4.62435E+03  2.87327E+03  1.29962E+03  6.05542E+03 -4.92484E+03  7.06441E+03 -6.62812E+03  9.06789E+02
 -4.57091E+03 -4.25507E+03  6.62687E+02 -6.33991E+03  3.67482E+03 -2.75486E+03  4.23470E+03  1.38191E+03
  4.73820E+02  3.30113E+03 -4.94887E+03  5.18393E+03 -4.76829E+03  2.44341E+03 -4.23710E+03 -7.82403E+02
 -3.33950E+03 -5.60053E+03  1.59620E+03 -7.45566E+03  5.32656E+03 -4.30578E+03  6.66653E+03  1.00514E+03
  3.95729E+03  5.97039E+03  7.36733E+02  7.04593E+03 -5.10139E+03  3.92383E+03 -5.68429E+03 -9.01760E+01
 -5.87240E+03 -4.68567E+03 -1.12744E+03 -5.81352E+03  2.10590E+03 -4.62911E+03  3.15697E+03 -2.18116E+03
  3.62314E+03  8.82026E+02  5.86061E+02  6.74292E+02  2.96870E+02  3.50934E+02  1.63252E+03 -1.17601E+03
  4.26479E+03 -9.24265E+02  5.03525E+03  4.06927E+02  5.52722E+03  2.23838E+03  5.25353E+03  7.04544E+03
 -7.21469E+02  8.26291E+03 -8.29064E+03  7.18823E+03 -1.05195E+04  9.41958E+02 -8.97671E+03 -2.93440E+03
 -4.71203E+03 -7.16453E+03 -6.39895E+02 -4.19189E+03  2.49350E+03 -2.68866E+03  3.84383E+02 -2.51399E+03
  1.72391E+03 -9.79733E+02  1.56862E+03 -2.60129E+03  3.32859E+03 -2.45057E+03  3.34364E+03 -5.10240E+02
  3.96279E+03  1.06805E+03  1.43685E+03  3.46498E+03 -1.03475E+03  3.65694E+03 -4.15439E+03  2.77400E+03
 -5.23081E+03 -1.63338E+02 -2.40722E+03 -3.59131E+03 -4.16707E+02 -4.27738E+03  3.37267E+03 -5.23882E+03
  6.57321E+03 -3.31058E+03  6.51750E+03 -8.69886E+02  5.34771E+03  3.36504E+03  1.24187E+03  6.41964E+03
 -1.47445E+03  5.35343E+03 -2.75641E+03  1.88544E+03 -2.34791E+03 -1.00211E+03 -8.62184E+02 -4.05192E+02
 -5.37522E+02 -1.06474E+02 -1.50623E+03  2.20769E+03 -1.62281E+03  1.33221E+03 -3.84726E+03 -5.13211E+02
 -2.03521E+03 -4.39707E+03  3.31212E+02 -4.86362E+03  2.77208E+03 -4.89068E+03  3.52636E+03 -9.41070E+02
  3.24181E+03  3.48636E+03  1.72492E+03  3.35024E+03 -8.42515E+02  5.01685E+03 -2.17470E+03  2.37000E+03
 -3.82377E+03  3.56958E+02 -2.94969E+03 -2.65170E+03 -1.19894E+03 -3.43638E+03  1.64009E+03 -2.16376E+03
  3.47009E+03 -1.20309E+03  1.70851E+03  4.74213E+02  1.15393E+03  1.94518E+03  1.64646E+03  1.41291E+03
  6.36417E+02  1.14731E+03  2.26063E+03  1.78711E+03  1.12332E+01  2.88232E+03  7.34582E+02  1.99605E+03
 -1.20601E+03  3.10300E+03 -2.00309E+03  3.34940E+03 -3.05345E+03  1.34101E+03 -4.04215E+03 -6.49552E+02
 -2.17053E+03 -2.99275E+03 -3.43646E+02 -4.21897E+03  2.33037E+03 -2.42914E+03  3.25774E+03 -1.92508E+03
  2.38037E+03  1.56044E+03  4.95023E+02  2.11363E+03 -8.13817E+02  1.19656E+03 -1.93369E+03  1.66098E+01
 -1.25299E+03 -5.28737E+02  2.84756E+03 -1.67397E+03  5.76472E+02 -1.24432E+03  1.47521E+03  3.65517E+01
 -6.60337E+02 -7.58276E+01  1.17688E+03  5.70115E+02 -5.11667E+02  1.08949E+03  1.59283E+03 -6.16318E+02
 -1.28794E+03 -1.11969E+03  1.14144E+03  5.54789E+02  4.68473E+02  2.98534E+03 -1.15286E+03  3.00791E+03
 -9.53249E+02  1.58612E+03 -1.95313E+03  1.25882E+03 -1.22884E+03 -5.29620E+02 -1.77758E+02 -1.05319E+03
 -5.08488E+02 -1.42275E+03  5.25782E+02 -2.09282E+02  1.12062E+03  8.43485E+02 -1.39321E+02  1.29748E+03
 -1.94278E+03  5.19507E+02 -2.68037E+02 -3.27469E+02 -9.22027E+02 -1.93216E+03  2.41813E+02 -6.16970E+02
  4.64243E+02 -8.74280E+02 -2.00541E+02  2.89152E+02  1.13700E+03 -7.72230E+02  1.01046E+03  9.72598E+02
  6.59863E+02 -1.02356E+03 -1.00642E+03 -3.87906E+02  1.16189E+03 -8.36417E+02  2.40692E+03 -1.69579E+01
  1.56548E+03  5.24828E+02  2.20487E+03  2.25485E+02  1.15366E+03  1.12857E+03  2.54474E+02  7.11471E+02
  8.58414E+01 -4.03381E+02 -1.32270E+03 -1.13730E+02 -1.96727E+03 -2.12963E+03  5.23806E+02  3.53362E+01
  1.10452E+03 -1.45741E+03  3.30661E+02  1.33706E+03 -7.80656E+02  1.43029E+03  6.93473E+02 -4.78234E+01
 -1.38861E+02  9.95950E+02  3.12802E+01  1.93274E+02  9.39793E+01  1.62634E+02 -1.46959E+03  2.67981E+02
 -7.31354E+02  1.20953E+03 -2.21180E+03  2.91042E+02 -1.18796E+03 -4.70473E+02 -2.75754E+03 -8.89882E+02
 -8.70233E+02 -2.04227E+03  1.99649E+02 -1.49049E+03  5.99570E+02 -1.81619E+03  2.71845E+03 -1.42767E+03
  1.76371E+03  1.80164E+02  6.47718E+02  7.32348E+02  1.65633E+02  8.44239E+02 -8.82536E+02  1.63142E+03
 -2.09804E+02  7.80868E+02 -3.52614E+02  3.00606E+02  5.55993E+01 -4.48964E+02 -1.17905E+03 -1.25258E+02
 -1.58567E+03  5.17997E+02 -1.87394E+03  5.65633E+02  2.44552E+02 -3.34669E+02  3.01828E+02 -1.81380E+02
  1.81386E+03 -1.52371E+01 -1.81529E+02  1.11345E+02  9.38446E+02  6.79631E+02  1.71162E+02  1.27305E+03
 -6.01698E+02  2.34458E+03 -4.93268E+02  9.01888E+02 -6.60819E+02 -8.40216E+02 -1.25293E+03 -4.03774E+02
 -7.89024E+02 -9.91392E+02  2.30708E+02 -1.20860E+03  6.02868E+02 -1.19761E+03 -6.13582E+01  5.35920E+02
  1.59508E+03  3.31269E+02  3.71819E+02  2.88939E+02 -3.73343E+01 -1.32356E+02  1.00810E+02  6.51062E+01
  5.67846E+02  8.38906E+02  9.72287E+01  7.54601E+02 -7.05930E+02 -3.07210E+02 -1.60802E+02  3.59867E+02
 -7.39269E+02  2.33181E+02 -1.28116E+03  7.59849E+02 -1.39049E+03 -4.47489E+02  4.45581E+02 -1.51137E+03
  3.44295E+02 -4.85669E+02 -4.80868E+02 -1.17313E+03  5.46690E+02 -1.38548E+03  1.01716E+03  1.35318E+02
  1.28074E+03  7.67015E+02  2.83450E+02  3.59476E+01  3.51101E+01  1.13723E+02 -2.06583E+02  7.27361E+02
  9.92081E+02 -9.56862E+01 -1.25177E+02 -1.04440E+02  3.18095E+01  1.05503E+03 -6.83673E+02 -1.89367E+02
  4.63264E+02  2.56982E+02 -6.89784E+02 -6.83824E+02  5.17094E+02 -1.64148E+03  8.24070E+02 -5.28572E+01
  8.67694E+02  6.01082E+02 -2.87052E+02  1.36697E+03  1.64536E+02 -5.11515E+01  1.93732E+02  7.13656E+02
