 $NMID ID='MM_0lb_SNR200_17hz_g40_78.RAW', FMTDAT='(8E13.5)'
 TRAMP=1., VOLUME=1. $END
  3.08851E+05  8.68310E+02  3.37733E+05  2.50355E+05  8.41584E+04  3.38097E+05 -1.31464E+05  2.50401E+05
 -1.88821E+05  8.24490E+04 -1.10230E+05 -3.31176E+04  1.73327E+03 -5.02963E+04  5.46547E+04 -6.57313E+02
  3.43938E+04  5.24942E+04 -1.71098E+04  7.47491E+04 -6.13972E+04  6.32292E+04 -8.39228E+04  3.27384E+04
 -7.97563E+04 -1.07029E+04 -5.60993E+04 -4.96704E+04 -1.50935E+04 -6.77675E+04  2.69174E+04 -4.43834E+04
  3.83405E+04  2.61383E+03  1.56262E+04  4.71389E+04 -3.39922E+04  4.61010E+04 -6.50247E+04  7.84283E+02
 -5.17823E+04 -5.49724E+04 -6.31708E+03 -7.48804E+04  3.35307E+04 -5.33420E+04  4.62091E+04 -1.71376E+04
  4.31370E+04  1.23156E+04  3.15156E+04  2.42539E+04  1.61481E+04  2.80643E+04 -5.19397E+03  2.62803E+04
 -2.25964E+04  1.22697E+04 -1.98790E+04 -4.51846E+03  3.66479E+03 -7.54001E+03  2.16734E+04  1.15117E+04
  7.63740E+03  3.37221E+04 -3.09624E+04  3.35097E+04 -6.11546E+04  2.17635E+03 -5.57593E+04 -4.10432E+04
 -1.20360E+04 -6.15762E+04  3.75534E+04 -4.26541E+04  5.53389E+04 -2.59851E+03  3.26796E+04  3.14505E+04
 -7.63682E+03  3.26653E+04 -2.86823E+04  1.34177E+04 -2.72585E+04 -6.61316E+03 -1.53168E+04 -1.00986E+04
 -6.85126E+03 -1.12259E+04 -8.79866E+02 -1.72131E+04  6.55504E+03 -2.28182E+04  1.47283E+04 -1.30333E+04
  1.24424E+04  3.69487E+03 -6.99820E+03  1.35998E+04 -1.95964E+04 -2.55601E+03 -8.31364E+03 -3.09556E+04
  2.11933E+04 -4.04694E+04  4.62579E+04 -1.78371E+04  4.21892E+04  1.84863E+04  1.39330E+04  4.24979E+04
 -1.43532E+04  3.10838E+04 -2.35151E+04  1.11592E+03 -9.40607E+03 -2.64505E+04  2.06451E+04 -3.07771E+04
  3.85386E+04 -7.92856E+03  3.29345E+04  2.19176E+04  1.73942E+04  4.27717E+04 -8.33400E+03  4.50016E+04
 -2.83497E+04  2.97354E+04 -3.80045E+04  8.57204E+03 -3.79088E+04 -1.54467E+04 -2.16735E+04 -3.45317E+04
  6.07141E+03 -3.50576E+04  2.95354E+04 -1.22522E+04  2.68556E+04  9.10424E+03  3.36542E+03  1.78337E+04
 -1.28801E+04  7.47283E+03 -1.02569E+04 -6.52167E+03  5.46869E+03 -9.61544E+03  1.85057E+04  6.25387E+03
  1.25159E+04  2.14537E+04 -6.43829E+03  2.34414E+04 -2.17389E+04  9.20131E+03 -2.48402E+04 -5.78145E+03
 -1.77927E+04 -1.70615E+04 -6.25934E+03 -1.68336E+04  4.35282E+03 -1.54771E+04  1.33532E+04 -1.45771E+04
  2.26053E+04 -1.08343E+04  2.87916E+04  1.72367E+03  2.23614E+04  1.66946E+04  3.84058E+03  3.29379E+04
 -1.59376E+04  2.70627E+04 -2.53690E+04  9.84701E+03 -1.99269E+04 -9.91453E+03 -4.26278E+03 -1.37991E+04
  3.29166E+03 -4.17783E+03 -3.62457E+03  4.19003E+03 -1.32567E+04  3.75206E+03 -1.42416E+04 -4.49720E+03
 -7.63888E+03 -1.62154E+04  3.50782E+03 -2.08044E+04  1.35701E+04 -1.39252E+04  1.42104E+04 -1.17155E+03
  9.72963E+03  1.08196E+04 -2.53962E+02  1.62299E+04 -9.51642E+03  7.65213E+03 -1.46354E+04 -3.46110E+03
 -1.12806E+04 -1.46201E+04 -1.95046E+03 -1.98236E+04  9.49814E+03 -1.59743E+04  1.59760E+04 -7.62717E+03
  1.51616E+04  9.05002E+02  1.07741E+04  3.34638E+03  6.38140E+03  3.02742E+01  7.28602E+03 -1.45252E+03
  1.40905E+04  3.77356E+03  1.52253E+04  1.20982E+04  9.35851E+03  2.57113E+04 -3.23235E+03  2.80663E+04
 -1.69666E+04  2.07932E+04 -2.47479E+04  9.68137E+03 -2.56723E+04 -1.35787E+03 -2.19742E+04 -1.46925E+04
 -1.07758E+04 -2.08065E+04  6.80386E+03 -2.06660E+04  1.77398E+04 -1.09565E+04  1.62744E+04  4.06966E+03
  7.34778E+03  1.09430E+04 -6.99067E+03  1.17753E+04 -1.43943E+04  2.33442E+03 -1.12523E+04 -8.01574E+03
 -3.94129E+02 -1.24021E+04  6.19518E+03 -1.04603E+04  7.32526E+03 -1.52377E+03  7.79796E+02  4.44874E+03
 -5.31109E+03  2.29655E+03 -4.82779E+03 -5.13608E+03  6.16371E+02 -1.05683E+04  7.67630E+03 -1.08476E+04
  1.26357E+04 -6.15564E+03  1.26304E+04  3.02568E+03  1.13768E+04  8.75330E+03  5.98442E+03  1.47404E+04
 -2.43248E+03  1.76888E+04 -1.04247E+04  1.04020E+04 -1.23243E+04  3.34414E+03 -9.13686E+03 -2.88167E+03
 -5.15992E+03 -4.16464E+03 -1.75934E+03  1.24816E+03 -1.68063E+03  2.76498E+03 -3.41061E+03  3.87606E+03
 -8.51788E+03 -4.87764E+02 -9.93586E+03 -7.55471E+03 -3.67206E+03 -1.28622E+04  3.75279E+03 -8.25345E+03
  7.43176E+03 -2.79363E+03  6.92607E+03  3.04469E+03  8.17607E+02  3.18172E+03 -3.90968E+03 -1.97704E+02
 -3.36607E+03 -6.78964E+03 -2.47282E+02 -6.10136E+03  4.31012E+03 -9.90274E+03  1.07818E+04 -5.34716E+03
  1.11206E+04  1.63935E+03  9.31654E+03  7.05486E+03  2.02729E+03  1.04344E+04 -5.80905E+03  8.38947E+03
 -7.81070E+03  3.36345E+03 -3.01785E+03 -1.73188E+03  1.16511E+03 -2.19867E+03  5.51835E+03 -8.92137E+02
  3.92090E+03  3.52555E+03  3.34882E+02  8.12582E+03 -4.86191E+03  6.95002E+03 -9.27029E+03  1.30445E+03
 -5.48150E+03 -4.47187E+03  1.20962E+03 -6.74225E+03  3.87856E+03 -3.64510E+03  4.68373E+03  1.79789E+03
  1.20185E+03  2.91160E+03 -3.96588E+03  3.97020E+03 -5.73275E+03  3.07734E+03 -4.56379E+03 -8.31547E+02
 -2.60049E+03 -6.77120E+03  7.40723E+02 -8.35447E+03  7.09663E+03 -5.20835E+03  7.52123E+03  1.72649E+03
  6.22479E+03  6.04095E+03 -3.11231E+02  7.81779E+03 -5.20784E+03  4.30146E+03 -6.21541E+03  1.16847E+02
 -5.84580E+03 -5.28696E+03 -7.79379E+02 -5.74860E+03  2.07609E+03 -5.65661E+03  2.61054E+03 -3.28288E+03
  2.84641E+03  7.84809E+02  5.45183E+02  5.27548E+02  1.48333E+03 -3.98989E+01 -1.28289E+03 -2.35012E+03
  4.54280E+03 -1.79279E+03  6.54472E+03  1.26890E+02  6.92712E+03  3.34016E+03  6.53559E+03  8.07281E+03
 -5.99333E+02  9.41398E+03 -8.50564E+03  7.22811E+03 -9.82923E+03  7.12670E+02 -9.21708E+03 -3.83709E+03
 -4.80529E+03 -6.76842E+03 -5.82903E+01 -5.68795E+03  2.22276E+03 -2.66420E+03  2.44108E+03 -3.12094E+03
  6.57128E+02 -1.75163E+03  2.20858E+03 -2.25393E+03  4.82457E+03 -5.68901E+02  4.62235E+03  9.84011E+02
  4.41860E+03  1.27418E+03  9.67507E+02  3.68455E+03 -7.86853E+02  3.89544E+03 -4.99531E+03  2.56777E+03
 -5.82227E+03 -1.09169E+03 -3.06447E+03 -4.17403E+03  1.39322E+03 -5.18280E+03  4.76196E+03 -6.03036E+03
  5.63106E+03 -3.34076E+03  6.68326E+03 -2.51046E+02  6.42540E+03  5.64812E+03  1.51103E+03  6.83665E+03
 -1.42662E+03  6.58852E+03 -3.66375E+03  2.34087E+03 -3.07221E+03 -7.74119E+02 -9.74417E+01 -2.33547E+03
 -4.79268E+02  2.77686E+02 -8.29067E+02  2.37962E+03 -3.55558E+03  1.34372E+03 -5.21762E+03 -2.35819E+02
 -2.36770E+03 -3.76442E+03  9.49658E+02 -5.88351E+03  3.29657E+03 -4.98792E+03  4.00442E+03  1.32640E+02
  4.44736E+03  3.42345E+03  1.83820E+03  4.30361E+03 -1.13750E+03  4.98618E+03 -3.26020E+03  3.39037E+03
 -4.53466E+03  1.33534E+02 -4.03025E+03 -2.89267E+03 -3.22458E+01 -3.20732E+03  2.62293E+03 -1.58960E+03
  3.61714E+03 -1.04112E+03  2.72524E+03  2.30977E+01  4.95680E+02  2.32258E+03  8.49040E+02  9.93251E+02
  1.09377E+03  1.15753E+03  2.19590E+03  1.16846E+03  5.76630E+02  2.65558E+03  1.70500E+03  2.74031E+03
 -1.87126E+03  3.66817E+03 -2.43119E+03  3.49913E+03 -4.40345E+03  1.42042E+03 -4.54898E+03 -1.15845E+02
 -3.22211E+03 -4.32687E+03  8.83923E+01 -6.10737E+03  1.65438E+03 -3.71554E+03  4.85174E+03 -1.58855E+03
  2.93809E+03  2.20592E+03  3.01752E+02  3.46024E+03 -9.73128E+02  2.72682E+03 -7.71204E+02  2.70260E+02
 -6.93772E+02 -1.84516E+03  5.78305E+02 -2.80841E+03  2.95740E+03 -1.42288E+03  1.74909E+03  6.65321E+02
  1.74443E+03 -7.75866E+01  1.04059E+03  1.40346E+01 -2.48277E+01  1.74983E+03  2.44814E+03  5.48590E+02
  2.57325E+02  3.42217E+02  3.10489E+03  2.81234E+02  1.59589E+03  3.51435E+03 -3.11268E+02  2.58338E+03
 -2.43689E+03  1.33714E+03 -2.52082E+03 -4.39413E+02 -3.44686E+03 -6.51224E+02 -2.38567E+02 -1.68907E+03
  7.54505E+02 -7.02408E+02  1.36982E+03 -4.46180E+02  1.31430E+03  1.09912E+03 -4.00514E+02  2.25975E+02
 -2.05623E+03  1.18842E+03 -1.74563E+03 -1.96927E+03 -5.75919E+02 -1.97298E+03 -4.67006E+02 -1.57520E+03
  5.80633E+02 -2.46252E+02  9.64129E+02  7.08639E+02  1.24962E+03  2.94268E+02  8.19242E+02  2.09024E+03
 -5.91153E+02  7.33060E+02 -9.87318E+02  2.12689E+01  8.55861E+02 -1.70838E+03  1.94154E+03 -7.81876E+02
  2.31392E+03 -4.18638E+02  3.44149E+03  1.68477E+03  1.69184E+03  1.70343E+03 -9.29156E+02  2.82791E+03
 -1.35110E+03  1.00443E+03 -1.13091E+03 -4.01795E+02 -8.18710E+02 -2.36327E+03  1.37147E+03 -3.26685E+02
  1.43689E+03 -1.99277E+03  1.49128E+03  8.64379E+02  4.54798E+02  1.62979E+03  7.35955E+01  1.70086E+03
 -7.30303E+02  1.93090E+03  3.87875E+02  3.43408E+02 -5.23493E+02  3.70969E+02 -8.54482E+02  1.84267E+01
 -5.65651E+02  1.54367E+03 -2.27474E+03  6.05103E+02 -3.68221E+03  6.71712E+01 -3.48270E+03 -1.66704E+03
 -1.36809E+03 -3.84243E+03  4.14389E+02 -3.13141E+03  2.29665E+03 -4.07281E+03  4.03336E+03 -1.22003E+03
  3.36960E+03  7.63659E+01  3.78890E+03  2.52930E+03 -1.14621E+03  3.49032E+03 -7.26362E+02  2.58719E+03
 -1.17519E+03  9.50624E+02 -8.17846E+02  7.87594E+02 -6.16383E+02  4.33535E+02 -1.18016E+03  5.86502E+02
 -1.47670E+03  9.24752E+02 -1.40394E+03  2.65466E+02  1.03433E+02 -7.33740E+02 -8.18009E+02 -1.07389E+03
  1.10910E+03 -1.37650E+03  4.63636E+02  1.23968E+03  2.92495E+03  6.29814E+02  3.67052E+02  1.61979E+03
 -1.34634E+03  2.16742E+03 -1.66787E+03  9.81209E+02 -2.73275E+03 -9.82288E+02 -2.66822E+03 -2.66501E+03
 -3.30332E+02 -2.53556E+03  3.38985E+02 -1.56414E+03  7.99212E+02 -3.44595E+01  1.62986E+03 -8.25161E+02
  5.59503E+02  1.07433E+03  8.63793E+02  1.27961E+03 -7.55050E+02 -6.56001E+02  2.71989E+02  4.09710E+02
  1.55756E+03 -3.81347E+01  1.92616E+02  8.67509E+02  7.71759E+02  4.56548E+02  2.71896E+02  4.17434E+02
 -1.23512E+02  1.52785E+03 -2.15641E+01 -8.91007E+01 -3.79392E+02 -5.71757E+02 -8.52748E+02 -1.61564E+03
  9.66578E+02 -1.42881E+03  9.53579E+02  2.29351E+02  1.67930E+03  4.82241E+02  8.73674E+02  1.18764E+03
 -1.02311E+02  6.62917E+02 -1.73145E+03  7.49777E+02 -4.63550E+02  5.25746E+02 -9.81898E+02  2.85148E+02
  2.90646E+02 -3.61534E+02 -2.56744E+03  4.33181E+02 -1.58416E+03  8.54282E+02 -2.06114E+03 -2.48982E+02
 -1.87955E+03  8.90081E+02 -9.56823E+02 -9.98669E+02  8.02407E+02 -1.90666E+03  1.21061E+03  6.31082E+01
  1.90764E+02 -7.48269E+02 -1.30171E+01  8.89515E+02  2.14928E+02  9.71876E+02 -8.02418E+02  7.32921E+02
