 $NMID ID='MM_0lb_SNR200_8hz_g45_83.RAW', FMTDAT='(8E13.5)'
 TRAMP=1., VOLUME=1. $END
  3.07936E+05 -5.17794E+01  3.38097E+05  2.51112E+05  8.63084E+04  3.38409E+05 -1.31983E+05  2.51793E+05
 -1.91608E+05  8.24877E+04 -1.14390E+05 -3.29386E+04  4.32995E+02 -5.27654E+04  5.46926E+04 -1.19642E+03
  3.48900E+04  5.34915E+04 -1.67904E+04  7.52667E+04 -6.17346E+04  6.41878E+04 -8.47496E+04  3.34084E+04
 -8.23236E+04 -1.25379E+04 -5.85465E+04 -5.22803E+04 -1.46643E+04 -7.12945E+04  2.81010E+04 -4.75413E+04
  4.13303E+04  3.14755E+03  1.79838E+04  4.81807E+04 -3.54617E+04  4.70838E+04 -6.81557E+04  4.04031E+02
 -5.46084E+04 -5.85730E+04 -7.97232E+03 -7.94571E+04  3.58603E+04 -5.90755E+04  5.10016E+04 -1.81131E+04
  4.45242E+04  1.21340E+04  3.29317E+04  2.72757E+04  1.55200E+04  3.13525E+04 -5.98810E+03  2.69137E+04
 -2.20940E+04  1.19679E+04 -1.80985E+04 -6.71234E+03  7.11609E+03 -5.87953E+03  2.31376E+04  1.42573E+04
  7.32411E+03  3.76438E+04 -3.52415E+04  3.76994E+04 -6.49805E+04  1.48250E+03 -5.94502E+04 -4.31330E+04
 -1.43925E+04 -6.53432E+04  4.26102E+04 -4.79129E+04  6.20016E+04 -2.53560E+03  3.79624E+04  3.48304E+04
 -4.32065E+03  3.99792E+04 -3.32850E+04  2.05164E+04 -3.40713E+04 -4.41350E+03 -2.03246E+04 -1.16629E+04
 -8.07709E+03 -1.55370E+04 -8.72133E+02 -1.99928E+04  9.36700E+03 -2.28972E+04  1.62464E+04 -1.21022E+04
  8.86909E+03  6.01803E+03 -1.06579E+04  1.19060E+04 -2.33181E+04 -6.56247E+03 -8.46096E+03 -3.71033E+04
  2.63179E+04 -4.84215E+04  5.18467E+04 -2.06311E+04  4.72685E+04  2.13938E+04  1.74482E+04  4.71830E+04
 -1.57054E+04  3.78061E+04 -2.91399E+04  2.78530E+03 -1.08401E+04 -2.97072E+04  1.92075E+04 -3.72960E+04
  4.63605E+04 -1.32455E+04  3.97254E+04  2.61122E+04  2.22147E+04  5.20049E+04 -8.76724E+03  5.59056E+04
 -3.56176E+04  3.87290E+04 -4.81169E+04  1.14584E+04 -4.83591E+04 -1.93316E+04 -2.42875E+04 -4.26079E+04
  8.60928E+03 -4.09179E+04  3.51040E+04 -1.71816E+04  3.23596E+04  8.95243E+03  6.42317E+03  2.20648E+04
 -1.44817E+04  1.02776E+04 -1.01260E+04 -9.17402E+03  6.84066E+03 -1.16834E+04  1.96374E+04  5.46300E+03
  1.62913E+04  2.28817E+04 -4.40408E+03  2.73963E+04 -2.28290E+04  1.45601E+04 -3.22634E+04 -2.59406E+03
 -2.46923E+04 -1.93397E+04 -1.21148E+04 -2.47612E+04  3.38478E+03 -2.71146E+04  2.04234E+04 -2.30863E+04
  3.48710E+04 -1.41218E+04  3.89017E+04  5.81918E+03  2.77404E+04  2.48746E+04  5.44257E+03  4.12882E+04
 -2.08136E+04  3.29455E+04 -3.16194E+04  1.17244E+04 -2.21864E+04 -1.06623E+04 -3.84414E+03 -1.15067E+04
 -1.05813E+03 -2.34634E+03 -8.26879E+03  1.00013E+04 -2.03909E+04  3.38348E+03 -2.14920E+04 -1.00295E+04
 -1.13644E+04 -2.22499E+04  5.99790E+03 -2.75299E+04  1.83124E+04 -2.12373E+04  2.40762E+04 -1.38950E+03
  1.39180E+04  1.79715E+04 -7.94964E+02  2.37607E+04 -1.66200E+04  1.26778E+04 -2.34503E+04 -4.75587E+03
 -1.73927E+04 -2.09186E+04 -2.73659E+03 -2.74557E+04  1.35433E+04 -2.50597E+04  2.40738E+04 -1.10585E+04
  2.28196E+04 -4.02228E+02  1.71414E+04  6.94659E+03  8.18634E+03  2.11427E+03  1.39404E+04 -2.12051E+03
  2.33852E+04  2.74006E+03  2.67122E+04  1.82448E+04  1.90911E+04  3.72808E+04 -2.97879E+03  4.32175E+04
 -2.71063E+04  3.71940E+04 -4.32387E+04  1.97376E+04 -4.60496E+04 -4.28678E+03 -3.70522E+04 -2.61228E+04
 -1.51245E+04 -3.91684E+04  1.29220E+04 -3.53689E+04  2.92888E+04 -1.58846E+04  2.58670E+04  8.37347E+03
  1.03190E+04  1.86920E+04 -1.14898E+04  1.57177E+04 -2.12506E+04  1.90473E+03 -1.50212E+04 -1.24420E+04
  1.00099E+03 -1.93054E+04  8.92711E+03 -1.55361E+04  1.47330E+04 -3.28878E+03  2.33886E+03  9.64246E+03
 -7.43286E+03  6.09901E+03 -9.29984E+03 -7.73998E+03 -1.41149E+03 -1.81445E+04  1.23791E+04 -2.14672E+04
  2.25530E+04 -1.03416E+04  2.71382E+04  2.87923E+03  2.57279E+04  2.10030E+04  1.12153E+04  3.07518E+04
 -6.57179E+03  3.19440E+04 -2.20350E+04  1.95970E+04 -2.42045E+04  2.96460E+03 -1.66512E+04 -7.27281E+03
 -6.61394E+03 -8.00346E+03 -1.59672E+03 -6.90705E+01 -2.74575E+03  3.84371E+03 -7.66159E+03  5.98720E+03
 -1.55634E+04 -1.23983E+03 -1.39881E+04 -1.31305E+04 -6.49640E+03 -2.16166E+04  6.46675E+03 -1.79727E+04
  1.54085E+04 -4.50016E+03  6.10136E+03  4.51834E+03  1.20302E+03  7.28627E+03 -7.26039E+03 -8.68988E+02
 -6.76825E+03 -1.09182E+04  1.90977E+02 -1.70524E+04  1.20690E+04 -1.79328E+04  2.05909E+04 -8.65140E+03
  2.33864E+04  1.87210E+03  1.63103E+04  1.50498E+04  2.49680E+03  2.00319E+04 -1.09739E+04  1.56299E+04
 -1.21865E+04  3.42669E+03 -5.64952E+03 -4.46755E+03  4.36315E+03 -4.45485E+03  1.00791E+04 -1.19534E+03
  8.33290E+03  6.02173E+03  1.14055E+03  1.23677E+04 -9.84111E+03  1.24567E+04 -1.59881E+04  9.97094E+02
 -1.21626E+04 -1.17789E+04  9.57715E+02 -1.37391E+04  8.90064E+03 -8.97827E+03  9.91740E+03  4.30040E+03
  3.03997E+03  9.97843E+03 -9.06249E+03  1.24050E+04 -1.28894E+04  5.71041E+03 -1.50194E+04 -5.33675E+03
 -8.46240E+03 -1.78796E+04  5.30976E+03 -2.12778E+04  1.75637E+04 -9.46790E+03  1.90446E+04  3.95000E+03
  1.10346E+04  1.35934E+04 -1.11425E+03  1.78834E+04 -1.26344E+04  1.06035E+04 -1.52005E+04 -2.32490E+03
 -1.10396E+04 -1.18075E+04 -1.32751E+03 -1.35778E+04  6.28976E+03 -1.13937E+04  8.26323E+03 -3.28915E+03
  5.58139E+03  1.60621E+03 -1.53030E+03  2.41750E+03  6.94489E+02 -3.34649E+03  3.46863E+03 -9.26923E+03
  1.30694E+04 -4.55668E+03  1.66368E+04  1.51245E+03  1.62062E+04  1.24547E+04  1.02712E+04  2.28677E+04
 -5.16616E+03  2.42610E+04 -1.95739E+04  1.82277E+04 -2.82204E+04  3.61909E+03 -2.23064E+04 -1.00314E+04
 -1.09962E+04 -1.66761E+04  5.84385E+02 -1.53846E+04  5.63695E+03 -7.16031E+03  5.15678E+03 -4.58736E+03
  3.94306E+03 -3.10719E+03  2.54448E+03 -5.35212E+03  5.34377E+03 -4.16617E+03  8.23687E+03 -1.84990E+03
  1.18148E+04  2.55397E+03  5.21878E+03  9.96750E+03 -2.72164E+03  1.27265E+04 -1.17971E+04  9.71729E+03
 -1.60108E+04 -3.75492E+03 -1.01502E+04 -9.84017E+03 -1.04204E+03 -1.80199E+04  9.51455E+03 -1.78294E+04
  1.88861E+04 -1.00247E+04  2.18034E+04  2.04269E+03  1.39422E+04  1.67314E+04  8.07972E+02  1.87977E+04
 -6.34471E+03  1.59084E+04 -1.18447E+04  7.06048E+03 -9.30519E+03 -2.60033E+03 -3.58716E+03 -2.43005E+03
 -3.07817E+03 -2.16650E+03 -3.49204E+03  4.10247E+03 -5.85104E+03  2.04018E+03 -1.17298E+04 -3.55636E+02
 -7.76336E+03 -1.05666E+04  3.57026E+02 -1.56148E+04  1.17887E+04 -1.36598E+04  1.72002E+04 -4.53145E+03
  1.48555E+04  9.49586E+03  7.11040E+03  1.54454E+04 -2.81948E+03  1.56111E+04 -9.44917E+03  1.12958E+04
 -1.54607E+04  1.61734E+03 -1.15879E+04 -1.04793E+04 -1.50243E+03 -1.29782E+04  7.50233E+03 -1.03466E+04
  1.00476E+04 -2.95908E+03  6.05455E+03  1.82162E+03  4.44872E+03  4.47677E+03  2.56822E+03  2.53454E+03
  2.73273E+03  1.87363E+03  3.52853E+03  2.81084E+01  5.74342E+03  5.90291E+03  3.59150E+03  8.54902E+03
 -3.85119E+03  1.23971E+04 -1.13486E+04  1.27638E+04 -1.79557E+04  3.78828E+03 -1.78879E+04 -6.38119E+03
 -8.48090E+03 -1.69987E+04  2.20985E+03 -1.80229E+04  1.11157E+04 -1.19728E+04  1.48586E+04 -2.12538E+03
  1.07125E+04  5.57597E+03  2.11855E+03  1.05352E+04 -3.44273E+03  4.38011E+03 -7.08427E+03 -2.53741E+03
 -3.63407E+03 -8.01922E+03  4.44794E+03 -8.62758E+03  7.12059E+03 -2.31276E+03  6.65596E+03  9.02864E+02
  4.06962E+03  3.16031E+03  2.01922E+03  1.97590E+03 -1.10945E+03  1.78206E+03  2.45161E+03 -5.45150E+02
  2.17576E+03 -1.20778E+02  6.42433E+03  2.83407E+03  4.44823E+03  8.81645E+03 -1.19924E+03  1.19569E+04
 -8.79914E+03  6.91611E+03 -1.11763E+04  1.79228E+03 -9.31714E+03 -4.10354E+03 -4.38614E+03 -5.72349E+03
  3.63707E+02 -6.37712E+03  3.42187E+03 -4.27043E+03  4.63933E+03  3.40448E+03 -2.10366E+03  4.93569E+03
 -6.29540E+03  3.03855E+03 -6.08525E+03 -4.14556E+03 -4.10257E+03 -9.02317E+03  2.43624E+03 -8.43527E+03
  6.73609E+03 -6.18522E+03  5.98999E+03 -5.23085E+02  5.88658E+03  1.83415E+03  2.08366E+03  5.82467E+03
 -3.16322E+03  9.04602E+02 -4.23746E+03 -4.78327E+03 -4.17499E+01 -7.06185E+03  9.11618E+03 -6.05088E+03
  9.76489E+03  7.32745E+02  1.12081E+04  8.70054E+03  3.24508E+03  9.90992E+03 -3.97346E+03  1.10655E+04
 -9.74600E+03  3.89774E+03 -9.91780E+03 -2.17881E+03 -5.25624E+03 -7.91267E+03  1.96327E+03 -6.58657E+03
  6.75471E+03 -3.33932E+03  5.24467E+03  3.80629E+03  2.41846E+03  6.55236E+03 -1.86761E+03  5.97046E+03
 -2.52469E+03  3.71952E+03 -1.89905E+03  1.29366E+03 -1.66834E+03  2.07623E+03 -1.94175E+03  2.67689E+03
 -9.84428E+02  5.13189E+03 -8.11358E+03  1.59498E+03 -1.18768E+04 -7.28458E+02 -1.27250E+04 -6.23083E+03
 -6.77190E+03 -1.57103E+04  2.70467E+03 -1.87570E+04  1.16639E+04 -1.36119E+04  1.84432E+04 -5.17687E+03
  1.67216E+04  3.47934E+03  1.02453E+04  1.06312E+04  1.24576E+03  1.29049E+04 -5.43980E+03  1.06639E+04
 -7.81151E+03  1.74566E+03 -3.58897E+03 -1.02142E+03 -1.09557E+03 -2.50766E+03 -6.35925E+02  1.75727E+03
 -2.89676E+03  1.96645E+02 -1.08288E+03  7.90602E+02 -2.07394E+03 -2.42773E+03  1.25061E+03 -4.59731E+03
  4.66549E+03 -2.43261E+03  7.88594E+03 -4.27965E+02  8.44870E+03  9.46896E+03  1.39800E+03  1.21365E+04
 -6.75545E+03  1.23901E+04 -1.48520E+04  7.90878E+03 -1.47017E+04 -6.42003E+02 -1.12753E+04 -8.77825E+03
 -5.62413E+03 -1.08600E+04  3.09833E+03 -1.05290E+04  7.94934E+03 -6.58580E+03  8.68615E+03  1.38114E+02
  5.76140E+03  4.33104E+03 -1.10992E+03  4.57288E+03 -2.34979E+03  1.13302E+03 -1.15567E+03 -2.84931E+03
  3.67666E+03 -2.69990E+03  5.72842E+03  1.13249E+03  4.06113E+03  3.02003E+03  4.67806E+02  5.05150E+03
 -6.36352E+03  5.54849E+03 -8.29680E+03 -1.08083E+03 -6.41417E+03 -6.73738E+03 -2.06353E+03 -9.72101E+03
  4.28568E+03 -9.11073E+03  9.36757E+03 -4.36533E+03  8.46112E+03  2.72922E+03  5.08861E+03  6.96157E+03
  9.24440E+02  9.16119E+03 -4.27227E+03  5.73493E+03 -3.81116E+03  3.65559E+03 -5.14140E+03 -5.64330E+02
 -1.96387E+03 -1.50030E+03 -9.52245E+02  1.21529E+03 -3.67292E+03  1.06661E+03 -7.48536E+03 -3.30242E+02
 -5.00882E+03 -3.92410E+03 -1.53481E+03 -8.14542E+03  2.90291E+03 -8.79262E+03  7.97693E+03 -4.26550E+03
  6.89394E+03  1.18977E+03  4.12151E+03  6.83819E+03 -5.91115E+02  8.32127E+03 -7.09493E+03  5.81779E+03
