 $NMID ID='MM_0lb_SNR200_16hz_g60_83.RAW', FMTDAT='(8E13.5)'
 TRAMP=1., VOLUME=1. $END
  3.09345E+05 -4.65367E+02  3.37406E+05  2.51276E+05  8.49855E+04  3.38341E+05 -1.33226E+05  2.52205E+05
 -1.89244E+05  8.29093E+04 -1.10729E+05 -3.26609E+04  1.33792E+03 -5.01779E+04  5.31555E+04  4.57930E+02
  3.44146E+04  5.31352E+04 -1.66239E+04  7.55548E+04 -6.04555E+04  6.36483E+04 -8.33575E+04  3.20775E+04
 -8.11199E+04 -1.10889E+04 -5.77572E+04 -5.15688E+04 -1.41802E+04 -7.12733E+04  2.84350E+04 -4.64077E+04
  4.07472E+04  3.51580E+03  1.63719E+04  4.83726E+04 -3.37823E+04  4.76144E+04 -6.62241E+04 -2.12820E+02
 -5.40169E+04 -5.63687E+04 -8.24682E+03 -7.74772E+04  3.42466E+04 -5.43383E+04  4.75070E+04 -1.80172E+04
  4.33480E+04  1.08276E+04  3.21206E+04  2.60992E+04  1.53173E+04  2.94617E+04 -4.71183E+03  2.70934E+04
 -2.23737E+04  1.18017E+04 -1.70990E+04 -4.67540E+03  6.18877E+03 -6.85405E+03  2.20979E+04  1.23443E+04
  8.45119E+03  3.56035E+04 -3.20105E+04  3.58376E+04 -6.30509E+04  2.56613E+03 -5.60619E+04 -4.37088E+04
 -1.29189E+04 -6.38586E+04  3.96021E+04 -4.48913E+04  5.89941E+04 -2.08256E+03  3.32637E+04  3.43640E+04
 -6.19242E+03  3.60175E+04 -3.09403E+04  1.61076E+04 -3.00426E+04 -4.36221E+03 -1.67926E+04 -1.02516E+04
 -9.16446E+03 -1.39197E+04 -5.93818E+02 -1.77902E+04  7.78502E+03 -2.28374E+04  1.62662E+04 -1.28014E+04
  1.10537E+04  5.84975E+03 -8.51756E+03  1.33750E+04 -2.04961E+04 -4.21474E+03 -8.96346E+03 -3.37292E+04
  2.19740E+04 -4.29451E+04  4.82749E+04 -1.96728E+04  4.50871E+04  1.97724E+04  1.55919E+04  4.48472E+04
 -1.64249E+04  3.40641E+04 -2.55958E+04  1.95258E+03 -1.09379E+04 -2.83460E+04  2.15359E+04 -3.38392E+04
  3.96354E+04 -1.01698E+04  3.50479E+04  2.33523E+04  1.85378E+04  4.72132E+04 -7.19585E+03  5.03092E+04
 -3.24367E+04  3.38232E+04 -4.21169E+04  1.10107E+04 -4.23590E+04 -1.67660E+04 -2.49340E+04 -3.78359E+04
  6.66603E+03 -3.68964E+04  3.09606E+04 -1.63427E+04  2.85908E+04  1.16656E+04  3.26330E+03  1.91489E+04
 -1.38908E+04  8.95669E+03 -1.08499E+04 -8.02114E+03  5.90774E+03 -1.05670E+04  1.81468E+04  5.65094E+03
  1.37367E+04  2.07349E+04 -4.97501E+03  2.37426E+04 -2.24492E+04  1.05113E+04 -2.72960E+04 -4.44132E+03
 -2.02933E+04 -1.77293E+04 -8.84997E+03 -2.08552E+04  5.01166E+03 -1.93072E+04  1.68026E+04 -1.84314E+04
  2.53861E+04 -1.29010E+04  3.25002E+04  2.99242E+03  2.36056E+04  2.05518E+04  3.71934E+03  3.47339E+04
 -1.79356E+04  3.10125E+04 -2.91125E+04  1.06507E+04 -2.04976E+04 -1.01746E+04 -4.03733E+03 -1.39505E+04
  3.36694E+03 -3.50578E+03 -5.60403E+03  5.54538E+03 -1.54419E+04  5.36762E+03 -1.59065E+04 -7.21201E+03
 -9.47520E+03 -1.70381E+04  5.58692E+03 -2.33995E+04  1.52157E+04 -1.67307E+04  1.88427E+04 -1.32361E+03
  1.04859E+04  1.14309E+04  2.11113E+01  1.90205E+04 -1.21145E+04  1.16946E+04 -1.80065E+04 -3.74772E+03
 -1.40602E+04 -1.62680E+04 -1.89763E+03 -2.21547E+04  9.30446E+03 -1.88337E+04  1.81221E+04 -8.00151E+03
  1.68442E+04  4.16304E+02  1.23517E+04  4.33655E+03  6.86030E+03  1.88069E+03  9.19050E+03 -9.47110E+02
  1.57836E+04  3.28306E+03  1.72705E+04  1.47585E+04  1.29251E+04  2.91600E+04 -2.65676E+03  3.32467E+04
 -1.86215E+04  2.69157E+04 -3.12013E+04  1.22552E+04 -3.12612E+04 -2.14994E+03 -2.76770E+04 -1.81878E+04
 -1.13755E+04 -2.63691E+04  9.19592E+03 -2.41904E+04  2.09829E+04 -1.30392E+04  1.86464E+04  3.52786E+03
  6.32510E+03  1.40093E+04 -9.53862E+03  1.25089E+04 -1.61530E+04  1.14921E+03 -1.23595E+04 -9.92797E+03
 -1.19667E+03 -1.35452E+04  7.65000E+03 -1.16916E+04  9.36790E+03 -1.09753E+03  3.33038E+03  6.21653E+03
 -6.60096E+03  1.71454E+03 -5.61356E+03 -5.64175E+03  9.01074E+02 -1.35216E+04  9.89255E+03 -1.31065E+04
  1.64747E+04 -7.55026E+03  1.54984E+04  3.44299E+03  1.39407E+04  1.19986E+04  7.61427E+03  1.90514E+04
 -3.12615E+03  2.07270E+04 -1.35242E+04  1.36193E+04 -1.43557E+04  3.40550E+03 -1.07799E+04 -4.04720E+03
 -4.78680E+03 -4.78937E+03 -8.23361E+02  1.53845E+02 -2.86192E+03  2.79385E+03 -5.49110E+03  3.25412E+03
 -1.03051E+04 -7.22266E+02 -1.16491E+04 -8.29030E+03 -4.09409E+03 -1.45217E+04  4.65403E+03 -1.03265E+04
  8.70275E+03 -5.21921E+03  7.65622E+03  4.11288E+02  6.40591E+02  3.55643E+03 -4.72296E+03  3.16568E+02
 -4.76398E+03 -7.15994E+03 -1.05024E+03 -9.16423E+03  4.20971E+03 -1.12971E+04  1.37872E+04 -5.98816E+03
  1.47096E+04  1.30724E+03  1.07717E+04  9.08243E+03  2.50433E+03  1.22462E+04 -6.91646E+03  9.50351E+03
 -8.65665E+03  5.23902E+03 -2.78667E+03 -2.06287E+03  2.44839E+03 -2.75568E+03  6.36806E+03 -1.51959E+03
  5.72065E+03  4.21425E+03  1.63010E+03  8.69239E+03 -5.21191E+03  8.62115E+03 -1.11706E+04  1.76282E+03
 -5.69923E+03 -5.04181E+03  7.58977E+02 -9.34019E+03  5.96833E+03 -4.69383E+03  5.04082E+03  2.37987E+03
  1.06809E+03  5.39266E+03 -5.52376E+03  6.99762E+03 -7.82903E+03  2.26381E+03 -6.61656E+03 -2.38036E+03
 -5.01255E+03 -9.60748E+03  1.81675E+03 -1.04996E+04  8.76333E+03 -6.10433E+03  9.64669E+03  1.56925E+03
  6.45316E+03  7.26865E+03  2.99637E+01  9.14576E+03 -6.88474E+03  5.88670E+03 -7.28444E+03  9.43021E+01
 -6.84788E+03 -6.72410E+03  1.38243E+02 -6.86812E+03  4.04649E+03 -6.22512E+03  4.82330E+03 -3.41272E+03
  2.89454E+03  1.98544E+02 -2.78317E+02  1.11034E+03  1.47459E+03 -1.72842E+03  8.09179E+02 -2.51430E+03
  5.61743E+03 -2.16003E+03  8.11285E+03  4.07700E+02  7.58754E+03  4.43801E+03  6.65788E+03  1.12819E+04
 -2.13370E+03  1.30572E+04 -1.03634E+04  9.97294E+03 -1.42172E+04  1.99738E+03 -1.18233E+04 -4.80250E+03
 -5.11952E+03 -1.04438E+04 -1.55322E+01 -7.82614E+03  1.82716E+03 -3.37845E+03  2.46357E+03 -2.27500E+03
  2.48514E+03 -2.28730E+03  2.67763E+03 -2.42055E+03  5.36019E+03 -1.98527E+03  5.13545E+03  1.13850E+01
  6.16887E+03  1.57006E+03  2.23326E+03  3.69488E+03 -2.46835E+03  6.33496E+03 -6.56843E+03  4.68252E+03
 -8.14686E+03 -1.66647E+03 -3.76597E+03 -4.78345E+03 -8.39229E+01 -8.90706E+03  4.70840E+03 -7.70783E+03
  8.18778E+03 -4.37908E+03  8.93223E+03  8.48394E+02  6.85463E+03  7.10712E+03  1.66945E+03  9.58797E+03
 -3.32409E+03  8.46682E+03 -5.57993E+03  2.51627E+03 -1.67682E+03 -1.96266E+03 -1.42895E+03 -1.16035E+03
  1.55484E+02 -8.17401E+02 -1.61438E+03  2.55376E+03 -3.16116E+03  3.90130E+01 -4.19114E+03 -8.52568E+02
 -3.56879E+03 -5.50101E+03  9.89997E+02 -6.24639E+03  3.24358E+03 -6.37349E+03  7.13334E+03 -1.11071E+02
  6.67969E+03  3.47302E+03  1.83764E+03  5.55773E+03 -1.97790E+03  6.75260E+03 -4.79928E+03  3.31164E+03
 -6.26410E+03  8.85124E+02 -3.91841E+03 -3.58396E+03  7.06207E+02 -5.70720E+03  1.78521E+03 -2.97000E+03
  5.71279E+03 -3.56034E+02  2.54517E+03  1.19511E+03  9.88655E+02  2.63807E+03  1.42159E+03  9.90979E+02
  1.74369E+03  1.09741E+03  1.34778E+03  1.03190E+03  1.34343E+03  3.16253E+03  2.39707E+03  2.47589E+03
 -2.06150E+03  5.06397E+03 -4.68886E+03  6.31738E+03 -6.00973E+03  1.81384E+03 -7.14017E+03 -1.72403E+03
 -2.44681E+03 -5.09798E+03  8.97875E+02 -6.24858E+03  2.44437E+03 -3.74631E+03  4.44446E+03 -1.53332E+03
  3.95304E+03  2.97049E+03 -2.93207E+02  5.16632E+03 -2.33681E+03  2.17729E+03 -1.17498E+03  3.34772E+02
 -8.62443E+02 -2.31576E+03  2.64931E+03 -3.31246E+03  2.11876E+03 -1.87401E+03  1.80533E+03  1.04464E+03
  2.15773E+03  1.85996E+03  1.72426E+03  2.85916E+02  6.48597E+02  3.40649E+02  1.20480E+03 -2.59037E+02
 -1.05446E+02 -9.25827E+02  2.34882E+03 -5.08403E+02  1.60163E+03  1.33477E+03 -3.04699E+02  3.96131E+03
 -3.17758E+03  2.41578E+03 -3.20095E+03  1.54799E+03 -3.29792E+03 -7.32663E+02 -1.54224E+03 -2.12583E+03
  9.35280E+02 -2.07623E+03  1.13097E+03 -6.51486E+02  2.69410E+02  1.54119E+03 -3.24618E+02  2.01796E+03
 -3.03098E+03  1.97776E+02 -1.61830E+03 -1.09213E+03 -2.38520E+03 -2.91003E+03 -9.32695E+01 -4.06213E+03
  1.10587E+03 -1.60389E+03  2.05624E+03 -2.15217E+02  8.59443E+02  1.31763E+03  9.58858E+02  1.39211E+03
 -1.09352E+03  6.50111E+02 -1.47839E+03 -4.16221E+02  1.00909E+03 -1.71306E+03  2.48974E+03 -1.49726E+03
  3.43004E+03  1.22206E+03  3.42982E+03  7.37550E+02  1.36971E+03  2.80690E+03 -9.51127E+02  2.92460E+03
 -2.96301E+03  1.18917E+03 -3.12752E+03  9.64335E+01 -2.33133E+03 -2.46578E+03  1.63001E+03 -2.14549E+03
  1.49099E+03 -9.03561E+02  1.49465E+03  1.14517E+03  1.68345E+03  2.38053E+03  8.81534E+02  2.23637E+03
 -1.13149E+03  1.48545E+03 -1.32607E+03 -5.77216E+02 -1.32916E+03  7.89033E+02 -3.59156E+02  2.08984E+03
 -1.34847E+03  1.68877E+03 -3.36850E+03  8.44494E+02 -2.56299E+03 -2.35485E+02 -3.13410E+03 -1.85823E+03
 -1.51093E+03 -4.39648E+03  5.18687E+02 -4.25165E+03  2.07508E+03 -3.25414E+03  3.92260E+03 -7.18232E+02
  5.75370E+03  1.06375E+03  1.87832E+03  3.24268E+03 -4.43861E+02  3.67886E+03 -7.23736E+02  5.41383E+02
 -2.70347E+03  8.54588E+02 -6.61326E+02  6.34649E+02 -7.71399E+02  1.00632E+03  4.03735E+02 -9.30951E+02
 -1.89713E+02 -6.31904E+01 -1.35610E+03 -2.81110E+01 -9.42350E+02 -5.06159E+02 -4.87244E+01 -1.32610E+03
  1.26929E+03 -5.41332E+02  8.40027E+02 -1.75718E+02  1.53753E+03  2.55634E+03 -2.54789E+02  3.40287E+03
 -1.31234E+03  3.66599E+03 -2.68673E+03  2.41872E+03 -3.32309E+03  1.16373E+03 -2.48433E+03 -1.50253E+03
 -2.21828E+03 -3.31370E+03  1.16037E+03 -2.72245E+03  1.96323E+03 -8.44383E+02  1.31901E+03  7.10862E+02
  1.36721E+03  3.12652E+02  1.41773E+02  2.63493E+02 -8.26644E+02 -1.06664E+03 -1.43312E+03  4.82040E+02
  1.24157E+03 -7.75054E+02 -1.01804E+03  1.31471E+03 -3.27839E+02  1.31865E+02  3.91068E+02  7.44048E+02
 -1.28688E+03  1.38131E+03 -1.82993E+03  1.13397E+02 -1.71903E+03 -1.39709E+03 -1.05578E+03 -2.68049E+03
  1.16448E+03 -1.68846E+01  1.57490E+03  5.05207E+02  1.88058E+03 -5.68060E+02  4.49843E+02  1.58842E+03
  5.53300E+01  2.48472E+02 -1.04321E+03  1.55084E+03 -2.28102E+03  1.26331E+03 -1.13472E+03  1.56196E+01
  1.56159E+02 -1.13012E+03 -6.33216E+02  9.39533E+02 -1.13402E+03  6.62812E+02 -3.10332E+03 -4.41184E+02
 -2.28315E+03  7.88308E+01 -1.10599E+03 -1.57983E+03  3.05246E+02 -1.90630E+03  1.39155E+03  1.89788E+02
  7.01175E+02 -6.08543E+02 -1.17210E+02  6.09556E+02  2.24284E+02  1.20052E+03 -1.94784E+03  7.42725E+02
