 $NMID ID='MM_0lb_SNR200_8hz_g55_36.RAW', FMTDAT='(8E13.5)'
 TRAMP=1., VOLUME=1. $END
  3.09676E+05  9.38674E+01  3.37827E+05  2.51215E+05  8.54331E+04  3.40417E+05 -1.32037E+05  2.52077E+05
 -1.93122E+05  8.37193E+04 -1.13963E+05 -3.34534E+04 -4.23495E+02 -5.00660E+04  5.49656E+04 -4.49026E+02
  3.52155E+04  5.42792E+04 -1.47730E+04  7.67113E+04 -6.25663E+04  6.30280E+04 -8.64741E+04  3.26275E+04
 -8.22927E+04 -1.22562E+04 -5.90064E+04 -5.18313E+04 -1.52012E+04 -7.05546E+04  2.74277E+04 -4.77440E+04
  4.17923E+04  3.69839E+03  1.76071E+04  4.81811E+04 -3.41751E+04  4.92612E+04 -6.86339E+04 -1.36342E+03
 -5.60640E+04 -5.87578E+04 -8.73629E+03 -8.08039E+04  3.43419E+04 -5.85042E+04  4.94224E+04 -1.83608E+04
  4.61016E+04  1.13613E+04  3.23081E+04  2.59200E+04  1.40670E+04  3.07390E+04 -6.62694E+03  2.63695E+04
 -2.08086E+04  1.17281E+04 -1.72556E+04 -5.09618E+03  6.17671E+03 -8.65288E+03  2.43049E+04  1.53241E+04
  5.72807E+03  3.80899E+04 -3.41768E+04  3.66386E+04 -6.63508E+04  1.99142E+03 -5.87950E+04 -4.35478E+04
 -1.18763E+04 -6.56866E+04  4.10694E+04 -4.81355E+04  6.27420E+04 -2.58864E+03  3.53774E+04  3.57691E+04
 -4.46913E+03  3.99781E+04 -3.30630E+04  2.03392E+04 -3.51777E+04 -3.73228E+03 -2.09024E+04 -1.03510E+04
 -7.93241E+03 -1.61680E+04 -5.66848E+01 -1.96592E+04  8.77901E+03 -2.43425E+04  1.57875E+04 -1.18982E+04
  1.01894E+04  5.84579E+03 -9.88204E+03  1.29892E+04 -2.40096E+04 -8.64569E+03 -8.05133E+03 -3.90474E+04
  2.62747E+04 -4.91248E+04  5.24013E+04 -2.17073E+04  4.96138E+04  2.04961E+04  1.80927E+04  4.72057E+04
 -1.64849E+04  3.68362E+04 -2.82546E+04  3.12198E+03 -1.28027E+04 -2.97524E+04  2.12801E+04 -3.79864E+04
  4.46997E+04 -1.02261E+04  4.23443E+04  2.54886E+04  2.11042E+04  5.27838E+04 -9.02616E+03  5.75964E+04
 -3.65148E+04  3.92670E+04 -4.94960E+04  1.11200E+04 -4.89035E+04 -2.02929E+04 -2.74810E+04 -4.11442E+04
  7.58163E+03 -4.36109E+04  3.54545E+04 -1.70566E+04  3.34210E+04  1.08415E+04  7.40321E+03  2.13263E+04
 -1.45267E+04  1.13432E+04 -1.21382E+04 -7.15175E+03  5.42290E+03 -1.31458E+04  1.91896E+04  5.67186E+03
  1.43973E+04  2.30960E+04 -4.88277E+03  2.79834E+04 -2.32778E+04  1.66794E+04 -3.34207E+04 -2.47741E+03
 -2.64677E+04 -1.87284E+04 -1.25627E+04 -2.63528E+04  4.78087E+03 -2.84131E+04  2.04521E+04 -2.36787E+04
  3.26457E+04 -1.53457E+04  3.75969E+04  5.36079E+03  2.61579E+04  2.52515E+04  3.74243E+03  4.37231E+04
 -2.01463E+04  3.28724E+04 -3.11795E+04  1.11293E+04 -2.31879E+04 -1.00575E+04 -4.38556E+03 -1.16483E+04
  1.54915E+03 -1.57796E+02 -9.75330E+03  8.89849E+03 -2.17690E+04  3.01709E+03 -2.04990E+04 -9.68086E+03
 -1.45099E+04 -2.49409E+04  7.17208E+03 -2.93246E+04  1.94159E+04 -1.92855E+04  2.31860E+04 -2.35790E+03
  1.45375E+04  1.43057E+04 -9.78374E+02  2.33061E+04 -1.86269E+04  1.25118E+04 -2.45494E+04 -5.39841E+03
 -1.78119E+04 -2.30294E+04 -1.37623E+03 -2.98746E+04  1.44316E+04 -2.45150E+04  2.44747E+04 -1.46710E+04
  2.28010E+04 -2.20800E+02  1.60350E+04  5.60249E+03  8.91157E+03  1.31036E+03  1.24679E+04 -2.90629E+03
  2.30562E+04  1.77174E+03  2.88690E+04  1.79208E+04  1.97305E+04  3.99684E+04 -2.00792E+03  4.85366E+04
 -2.61124E+04  3.82796E+04 -4.36284E+04  1.93940E+04 -4.77754E+04 -2.51160E+03 -4.18463E+04 -2.89329E+04
 -1.55868E+04 -3.94152E+04  1.28126E+04 -3.50855E+04  2.79590E+04 -1.57345E+04  2.65656E+04  8.47719E+03
  5.70355E+03  2.15469E+04 -1.22438E+04  1.41885E+04 -2.16141E+04  2.53834E+03 -1.59421E+04 -1.24312E+04
 -9.91508E+02 -2.23194E+04  9.97178E+03 -1.54073E+04  1.49489E+04 -1.21329E+03  4.63105E+03  8.05899E+03
 -9.13571E+03  4.94259E+03 -1.32011E+04 -9.50450E+03 -5.27680E+02 -2.04612E+04  1.31562E+04 -2.13039E+04
  2.53245E+04 -1.24721E+04  2.97453E+04  3.44644E+03  2.56666E+04  2.07547E+04  1.10481E+04  3.18647E+04
 -5.35933E+03  3.48342E+04 -2.30552E+04  2.22133E+04 -2.38762E+04  3.36863E+03 -1.62403E+04 -8.62868E+03
 -7.39499E+03 -8.44621E+03 -1.04972E+03  2.70745E+02 -1.79453E+03  4.46982E+03 -8.50623E+03  6.02656E+03
 -1.49619E+04 -5.68460E+02 -1.59418E+04 -1.38362E+04 -8.29862E+03 -2.07227E+04  6.45316E+03 -1.66155E+04
  1.48768E+04 -8.29003E+03  9.33966E+03  6.11559E+03  8.91107E+02  8.60507E+03 -8.04519E+03 -1.88677E+03
 -8.27832E+03 -1.15266E+04 -1.56659E+03 -1.62724E+04  9.39321E+03 -1.83604E+04  2.09225E+04 -1.08891E+04
  2.71998E+04  2.61865E+03  1.96832E+04  1.75888E+04  4.53629E+03  2.05028E+04 -1.12601E+04  1.50931E+04
 -1.33647E+04  5.27528E+03 -7.95929E+03 -5.25762E+03  1.71951E+03 -4.36181E+03  7.22385E+03 -2.31254E+03
  7.16980E+03  8.06247E+03  2.92187E+03  1.42076E+04 -1.14249E+04  1.24072E+04 -1.73062E+04  3.40491E+03
 -9.01219E+03 -8.89862E+03  5.40681E+02 -1.49682E+04  8.38969E+03 -7.51961E+03  1.04194E+04  5.01205E+03
  2.99444E+03  1.01490E+04 -7.88526E+03  1.16585E+04 -1.57493E+04  6.04900E+03 -1.49589E+04 -6.20881E+03
 -1.04053E+04 -1.74479E+04  5.39123E+03 -2.05868E+04  1.62039E+04 -1.23368E+04  1.68463E+04  3.49519E+03
  1.14713E+04  1.40661E+04 -2.33636E+03  1.67616E+04 -1.24108E+04  9.28333E+03 -1.30602E+04 -5.49556E+02
 -1.13039E+04 -1.08793E+04 -1.10653E+03 -1.29879E+04  7.66216E+03 -1.12317E+04  8.31243E+03 -3.79565E+03
  5.42259E+03  2.33229E+03 -8.78327E+02  3.49589E+03 -6.49493E+02 -3.56952E+03  3.19579E+03 -8.36464E+03
  1.29782E+04 -5.76461E+03  1.89430E+04  3.10882E+03  1.77571E+04  1.23306E+04  1.40006E+04  2.48067E+04
 -8.14136E+03  2.77908E+04 -2.20822E+04  1.81065E+04 -3.10202E+04  4.58014E+03 -2.40067E+04 -1.03771E+04
 -1.08801E+04 -2.03206E+04 -3.93480E+02 -1.81771E+04  6.07181E+03 -1.07382E+04  7.58019E+03 -5.67784E+03
  3.43188E+03 -3.98554E+03  4.50545E+03 -2.26886E+03  6.31240E+03 -4.01589E+03  9.96978E+03 -1.40797E+03
  1.31597E+04  3.07331E+03  6.71260E+03  1.02912E+04 -1.32352E+03  1.17724E+04 -1.24865E+04  9.93812E+03
 -1.77817E+04 -1.60696E+03 -1.01083E+04 -1.29725E+04 -1.81993E+03 -1.91299E+04  9.72920E+03 -1.71532E+04
  1.96900E+04 -1.02521E+04  2.13575E+04  3.21630E+03  1.47516E+04  1.55776E+04  3.21992E+03  1.93769E+04
 -9.03700E+03  1.54275E+04 -1.13086E+04  8.15201E+03 -7.23679E+03 -1.88107E+03 -3.53462E+03 -3.52756E+03
 -2.27785E+03 -1.55163E+03 -6.72541E+02  2.66235E+03 -6.74050E+03  2.42845E+03 -1.04586E+04 -2.67274E+03
 -7.86973E+03 -1.17063E+04  3.45536E+02 -1.45915E+04  1.09594E+04 -1.51161E+04  1.68066E+04 -4.52647E+03
  1.72897E+04  6.86745E+03  9.16817E+03  1.34384E+04 -2.76984E+03  1.69208E+04 -1.36868E+04  9.84003E+03
 -1.47624E+04  2.26567E+02 -1.10571E+04 -9.65143E+03 -2.08135E+03 -1.24674E+04  6.81944E+03 -1.23681E+04
  1.03779E+04 -3.46968E+03  7.43428E+03  3.82184E+03  3.76852E+03  5.16397E+03  2.23686E+03  2.87713E+03
  3.26228E+03  1.10647E+03  3.36920E+03  2.55938E+03  5.87961E+03  5.03855E+03  4.32124E+03  7.13377E+03
 -1.88091E+03  1.50442E+04 -1.12590E+04  1.49824E+04 -1.74200E+04  4.14977E+03 -1.92338E+04 -6.08760E+03
 -8.50996E+03 -1.90022E+04  2.02114E+03 -1.90503E+04  1.03520E+04 -1.41974E+04  1.51044E+04 -4.20996E+03
  9.80739E+03  7.58900E+03  9.53475E+02  1.00213E+04 -3.81445E+03  7.22623E+03 -5.97950E+03  3.83745E+02
 -4.04028E+03 -9.16150E+03  4.83993E+03 -8.26743E+03  6.38139E+03 -3.40722E+03  8.37347E+03  3.24175E+03
  3.30786E+03  3.58015E+03  2.32662E+03  2.28395E+03  1.50857E+02  2.19126E+03  3.04157E+03  1.69191E+02
  1.66694E+03 -4.98254E+02  7.40815E+03  1.52334E+03  5.60155E+03  9.52781E+03 -1.71460E+03  1.31916E+04
 -7.24858E+03  7.05520E+03 -1.16902E+04  2.33117E+03 -1.00025E+04 -3.17940E+03 -4.61999E+03 -7.24395E+03
  9.30198E+02 -7.17278E+03  5.25527E+03 -2.60604E+03  3.95537E+03  2.80490E+03  2.46668E+01  5.27644E+03
 -7.57323E+03  3.53588E+03 -8.93373E+03 -4.17596E+03 -5.05507E+03 -1.11177E+04  2.71741E+03 -1.13581E+04
  6.12213E+03 -6.06585E+03  7.37816E+03 -3.37608E+02  5.73151E+03  2.40858E+03  1.89137E+02  5.77340E+03
 -2.73906E+03  8.13413E+01 -4.00511E+03 -4.85710E+03  2.90976E+03 -7.52321E+03  9.31714E+03 -5.06684E+03
  1.17097E+04 -1.15167E+03  1.18110E+04  5.78622E+03  1.80640E+03  1.37001E+04 -3.56025E+03  1.18872E+04
 -9.47488E+03  5.73156E+03 -1.08223E+04 -1.64409E+03 -6.62285E+03 -8.98426E+03  2.62370E+03 -7.45212E+03
  8.17259E+03 -2.90432E+03  5.14602E+03  2.38996E+03  2.18173E+03  7.69312E+03 -1.88757E+03  5.42855E+03
 -4.70184E+03  3.93255E+03 -1.37907E+03  9.72162E+02 -1.66585E+03  9.62008E+02 -1.55504E+03  2.33754E+03
 -2.05735E+03  2.68736E+03 -6.90703E+03  4.96236E+03 -1.19312E+04  7.20474E+02 -1.41731E+04 -9.46709E+03
 -6.91936E+03 -1.48511E+04  2.08852E+03 -1.95124E+04  1.17769E+04 -1.41557E+04  1.65892E+04 -5.01630E+03
  1.67610E+04  2.60022E+03  1.17736E+04  1.21154E+04  3.03143E+03  1.14775E+04 -4.22289E+03  1.02162E+04
 -8.84189E+03  2.26637E+03 -3.28095E+03 -2.11815E+03 -1.62409E+02 -1.58179E+03 -6.34674E+02  2.45137E+02
 -2.57561E+03 -5.73706E+02 -1.89344E+03 -5.77793E+02 -8.90323E+02 -3.20208E+03  9.98923E+00 -4.67508E+03
  6.96912E+03 -5.20064E+03  5.90200E+03 -8.25307E+01  8.22372E+03  6.63231E+03  2.62115E+03  1.37041E+04
 -5.20787E+03  1.51986E+04 -1.57315E+04  7.98850E+03 -1.53028E+04 -1.06825E+03 -1.25389E+04 -1.03597E+04
 -5.16234E+03 -1.18478E+04  2.07780E+03 -1.09502E+04  9.30519E+03 -6.30095E+03  1.05429E+04  3.72104E+02
  4.82221E+03  4.58634E+03  1.33773E+02  2.15213E+03 -3.64323E+03 -3.09920E+02  4.92484E+02 -3.80026E+03
  5.70460E+03 -2.48532E+03  6.00322E+03  1.28525E+03  2.17119E+03  3.28486E+03  2.52593E+03  7.49128E+03
 -7.35389E+03  6.10442E+03 -1.06192E+04  2.20343E+03 -6.69544E+03 -7.71980E+03 -1.55397E+03 -1.13915E+04
  5.28200E+03 -1.02949E+04  1.04550E+04 -2.39348E+03  8.88737E+03  2.68103E+03  6.84672E+03  7.37955E+03
  1.43342E+03  8.75260E+03 -3.93500E+03  6.78658E+03 -5.54758E+03  3.48046E+03 -3.58528E+03 -1.28494E+02
 -3.77291E+03  3.43565E+02 -3.35979E+03  1.18778E+03 -5.30717E+03  2.43445E+03 -6.94040E+03 -1.84156E+03
 -7.22623E+03 -5.06213E+03 -1.40084E+03 -7.17976E+03  3.45707E+03 -8.47312E+03  8.02163E+03 -4.71971E+03
  9.56653E+03  1.93830E+03  4.55949E+03  6.98752E+03 -9.42294E+01  9.00345E+03 -7.08684E+03  6.82406E+03
