 $NMID ID='MM_0lb_SNR200_8hz_g40_2.RAW', FMTDAT='(8E13.5)'
 TRAMP=1., VOLUME=1. $END
  3.10333E+05 -3.10388E+02  3.37726E+05  2.49939E+05  8.60349E+04  3.39494E+05 -1.34156E+05  2.51376E+05
 -1.90289E+05  8.22043E+04 -1.12572E+05 -3.11072E+04 -5.36954E+02 -5.03104E+04  5.36995E+04 -1.43503E+01
  3.55832E+04  5.30111E+04 -1.73529E+04  7.72217E+04 -6.02223E+04  6.55623E+04 -8.48741E+04  3.22568E+04
 -8.26531E+04 -1.25886E+04 -5.77684E+04 -5.34141E+04 -1.57400E+04 -7.06384E+04  2.88015E+04 -4.53765E+04
  4.07684E+04  5.81042E+03  1.70436E+04  4.95459E+04 -3.38302E+04  4.97988E+04 -6.77204E+04 -1.29758E+03
 -5.44540E+04 -5.78991E+04 -6.47369E+03 -7.90162E+04  3.52259E+04 -5.58646E+04  4.98910E+04 -1.82571E+04
  4.55671E+04  1.11970E+04  3.34753E+04  2.67295E+04  1.52977E+04  3.11600E+04 -5.28603E+03  2.99091E+04
 -2.37756E+04  1.32668E+04 -1.86666E+04 -6.05363E+03  7.49620E+03 -9.21785E+03  2.38703E+04  1.51500E+04
  6.46065E+03  3.80817E+04 -3.48915E+04  3.71819E+04 -6.48282E+04  2.46374E+03 -5.93009E+04 -4.62939E+04
 -1.22930E+04 -6.54396E+04  4.16945E+04 -4.66265E+04  6.20428E+04 -2.25888E+03  3.54724E+04  3.34525E+04
 -4.08094E+03  3.93744E+04 -3.07526E+04  1.89251E+04 -3.34369E+04 -4.42989E+03 -1.92143E+04 -1.20377E+04
 -7.70817E+03 -1.57608E+04 -1.01501E+03 -1.96748E+04  9.65201E+03 -2.31886E+04  1.58439E+04 -1.16191E+04
  1.09896E+04  5.48947E+03 -8.76472E+03  1.36152E+04 -2.29382E+04 -5.85089E+03 -8.91905E+03 -3.74520E+04
  2.56943E+04 -4.53283E+04  5.14553E+04 -2.09876E+04  4.77628E+04  2.01309E+04  1.67300E+04  4.70410E+04
 -1.74576E+04  3.64255E+04 -2.69344E+04  2.70518E+03 -1.13321E+04 -2.90086E+04  2.00683E+04 -3.84002E+04
  4.49402E+04 -1.03029E+04  3.93117E+04  2.41305E+04  2.17705E+04  5.11267E+04 -1.02170E+04  5.57715E+04
 -3.62608E+04  3.86967E+04 -4.72479E+04  1.24867E+04 -4.75156E+04 -1.81652E+04 -2.62990E+04 -4.18669E+04
  8.33380E+03 -4.24771E+04  3.23837E+04 -1.76000E+04  3.42534E+04  1.07233E+04  4.06017E+03  2.02655E+04
 -1.42401E+04  1.12620E+04 -1.05448E+04 -8.59510E+03  6.36660E+03 -1.17708E+04  1.81354E+04  5.42797E+03
  1.43783E+04  2.34511E+04 -3.74968E+03  2.71946E+04 -2.29720E+04  1.51799E+04 -3.24508E+04 -2.03832E+03
 -2.68002E+04 -1.90879E+04 -1.17623E+04 -2.52687E+04  5.85684E+03 -2.42021E+04  1.95253E+04 -2.18488E+04
  3.28643E+04 -1.40791E+04  3.68645E+04  4.41759E+03  2.74707E+04  2.37482E+04  5.27743E+03  4.32630E+04
 -2.05045E+04  3.42389E+04 -3.16777E+04  1.16866E+04 -2.18863E+04 -1.09903E+04 -5.47045E+03 -1.26675E+04
 -2.47299E+02  8.76781E+02 -8.43131E+03  7.11743E+03 -1.95263E+04  6.27876E+03 -1.96000E+04 -9.09709E+03
 -1.13126E+04 -2.62909E+04  6.06209E+03 -2.88614E+04  1.79845E+04 -2.05353E+04  2.26189E+04 -1.79499E+03
  1.50246E+04  1.49050E+04 -8.15956E+02  2.41861E+04 -1.71661E+04  1.43992E+04 -2.31754E+04 -4.55696E+03
 -1.84646E+04 -2.21638E+04 -3.19313E+03 -2.63845E+04  1.30222E+04 -2.34777E+04  2.34647E+04 -1.21247E+04
  2.04101E+04 -1.59060E+03  1.61056E+04  4.36947E+03  1.02053E+04  1.63751E+03  1.11620E+04 -3.20552E+03
  2.19178E+04  3.55280E+03  2.64316E+04  1.88487E+04  1.59744E+04  3.78365E+04 -2.59844E+03  4.28694E+04
 -2.39578E+04  3.72595E+04 -4.08005E+04  1.95361E+04 -4.47810E+04 -3.29653E+03 -3.69262E+04 -2.55277E+04
 -1.38438E+04 -4.07416E+04  1.32996E+04 -3.15825E+04  2.74487E+04 -1.58971E+04  2.47616E+04  6.48206E+03
  9.66498E+03  2.01531E+04 -1.21410E+04  1.52732E+04 -1.87468E+04  2.27100E+03 -1.55259E+04 -1.29633E+04
 -8.90735E+02 -2.04919E+04  1.21703E+04 -1.41037E+04  1.34312E+04 -6.48883E+02  4.07065E+03  7.59916E+03
 -8.59908E+03  2.02490E+03 -8.15157E+03 -7.11368E+03 -2.42375E+03 -1.89646E+04  1.07265E+04 -1.93707E+04
  2.31072E+04 -1.08562E+04  2.66385E+04  2.93358E+03  2.32383E+04  1.81915E+04  1.19247E+04  2.89747E+04
 -5.51470E+03  3.30620E+04 -1.97474E+04  1.90006E+04 -2.57116E+04  2.91636E+03 -1.52053E+04 -6.08182E+03
 -7.79781E+03 -4.79295E+03 -1.03716E+03  2.22670E+03 -2.60095E+03  3.04302E+03 -6.31816E+03  5.13313E+03
 -1.42664E+04 -2.55458E+03 -1.58166E+04 -1.23724E+04 -6.02586E+03 -1.96513E+04  5.53585E+03 -1.51512E+04
  1.11091E+04 -5.59217E+03  8.81735E+03  3.70020E+03 -7.74049E+01  5.42796E+03 -8.01110E+03  9.10679E+02
 -6.93809E+03 -1.15006E+04 -9.42262E+02 -1.63050E+04  1.00179E+04 -1.63233E+04  2.05222E+04 -9.67455E+03
  2.55475E+04  2.01491E+03  1.69334E+04  1.67154E+04  3.58985E+03  2.05048E+04 -9.29898E+03  1.60968E+04
 -1.32172E+04  5.47075E+03 -5.35281E+03 -4.57411E+03  3.11358E+03 -4.51439E+03  7.75310E+03 -6.14081E+02
  8.74656E+03  8.78217E+03  1.11334E+03  1.36009E+04 -9.24414E+03  1.25733E+04 -1.57349E+04  2.85569E+03
 -1.11119E+04 -7.92536E+03 -2.08939E+02 -1.47077E+04  7.62188E+03 -7.76774E+03  9.45562E+03  3.21440E+03
  3.95594E+03  1.08385E+04 -9.53508E+03  1.30489E+04 -1.41934E+04  4.14293E+03 -1.48527E+04 -4.27278E+03
 -8.75769E+03 -1.76401E+04  2.69615E+03 -1.80105E+04  1.62537E+04 -1.20978E+04  1.55765E+04  3.97972E+03
  1.09241E+04  1.12697E+04 -2.91133E+03  1.61110E+04 -1.43962E+04  1.03981E+04 -1.28989E+04 -1.25022E+03
 -9.79633E+03 -1.07018E+04 -2.25971E+03 -1.24741E+04  7.40318E+03 -9.79591E+03  8.17791E+03 -3.92584E+03
  4.94055E+03  2.30954E+03 -5.89110E+02  1.83031E+03 -5.84768E+02 -2.29381E+03  3.65338E+03 -8.33685E+03
  1.28145E+04 -5.27297E+03  1.78038E+04  2.02472E+03  1.69031E+04  1.04149E+04  1.07274E+04  2.23397E+04
 -4.24845E+03  2.43804E+04 -1.93037E+04  1.81354E+04 -2.55355E+04  3.41581E+03 -2.16938E+04 -1.01193E+04
 -1.06364E+04 -1.62309E+04 -7.22775E+02 -1.53777E+04  5.70527E+03 -9.18549E+03  4.90259E+03 -6.19573E+03
  5.64520E+03 -1.93276E+03  4.66997E+03 -3.73269E+03  5.41185E+03 -3.58365E+03  8.22133E+03 -1.75408E+03
  1.13814E+04  1.42610E+03  6.92926E+03  1.06746E+04 -1.72664E+03  1.31128E+04 -1.34908E+04  7.87248E+03
 -1.58589E+04 -9.12079E+02 -1.05468E+04 -1.01118E+04 -2.18497E+03 -1.73263E+04  8.19188E+03 -1.84016E+04
  1.74143E+04 -9.68347E+03  2.22476E+04  3.28209E+03  1.34174E+04  1.42198E+04  3.08793E+03  1.84895E+04
 -6.54418E+03  1.69220E+04 -1.26545E+04  5.51482E+03 -6.61720E+03 -2.19549E+03 -3.28422E+03 -2.08868E+03
 -9.90061E+02  2.27745E+03 -2.33764E+03  3.88761E+03 -6.81939E+03  2.11519E+03 -1.05453E+04 -1.72958E+03
 -8.05892E+03 -1.04862E+04 -4.92774E+02 -1.39737E+04  8.64477E+03 -1.27878E+04  1.76026E+04 -5.69021E+03
  1.43064E+04  6.09690E+03  6.49990E+03  1.46701E+04 -3.13873E+03  1.65165E+04 -9.33617E+03  9.48652E+03
 -1.62279E+04 -7.30558E+00 -1.01734E+04 -1.00909E+04 -3.59881E+03 -1.39394E+04  7.71453E+03 -1.02250E+04
  9.92497E+03 -1.93071E+03  5.58790E+03  4.40885E+03  1.88512E+03  4.31159E+03  1.85149E+03  2.16666E+03
  3.80199E+03  1.25933E+01  4.74185E+03  1.09662E+03  4.53905E+03  4.99609E+03  3.37927E+03  9.25502E+03
 -3.28623E+03  1.24302E+04 -1.16391E+04  1.13948E+04 -1.67776E+04  4.06697E+03 -1.64197E+04 -5.52656E+03
 -9.52017E+03 -1.62648E+04  2.11013E+03 -1.67330E+04  9.88486E+03 -1.11141E+04  1.41879E+04 -2.32033E+03
  1.03587E+04  5.31218E+03  2.61009E+03  1.26496E+04 -3.81870E+03  5.63703E+03 -6.17817E+03 -1.16275E+03
 -3.47938E+03 -5.96890E+03  2.94630E+03 -7.94220E+03  7.04485E+03 -2.84740E+03  5.64697E+03  1.04780E+03
  1.06371E+03  3.81408E+03  2.58631E+03  2.13645E+03  2.49208E+02  2.61623E+03  7.87482E+02  1.72953E+02
  3.64711E+03  4.02926E+02  6.29425E+03  3.09652E+03  2.34082E+03  8.14735E+03 -2.55446E+03  1.17187E+04
 -7.10709E+03  5.86671E+03 -1.11101E+04  3.79373E+03 -9.00415E+03 -4.20892E+03 -3.24376E+03 -7.86225E+03
  2.16170E+03 -5.85368E+03  4.60793E+03 -2.35039E+03  4.66794E+03  1.46976E+03 -2.23907E+03  6.39295E+03
 -7.07003E+03  3.54227E+03 -9.01071E+03 -3.89560E+03 -4.06648E+03 -8.06542E+03  7.27346E+02 -1.05851E+04
  5.12532E+03 -5.21827E+03  7.45115E+03 -1.03072E+03  4.69120E+03  3.62609E+03  2.06193E+03  3.54654E+03
 -3.44511E+03  1.77969E+03 -3.32776E+03 -2.04382E+03 -8.44860E+02 -7.90455E+03  8.29372E+03 -6.98504E+03
  1.08382E+04  1.06134E+03  9.38672E+03  7.72134E+03  1.62006E+03  1.19018E+04 -3.01191E+03  8.41842E+03
 -9.46933E+03  4.91805E+03 -8.99521E+03 -1.39578E+03 -5.86472E+03 -8.87087E+03  2.58685E+03 -5.85528E+03
  7.03235E+03 -2.40381E+03  6.52636E+03  3.18050E+03  5.62178E+02  5.94501E+03 -2.02993E+03  3.42073E+03
 -2.27742E+03  3.16382E+03 -3.20551E+03  1.44360E+03 -8.10789E+02  7.06083E+02 -2.28903E+03  3.21503E+03
 -4.24850E+03  3.84969E+03 -8.56605E+03  3.74687E+03 -1.11873E+04 -2.62516E+02 -1.09382E+04 -6.82990E+03
 -6.52304E+03 -1.47867E+04  3.27767E+03 -1.68824E+04  1.08698E+04 -1.33961E+04  1.58904E+04 -4.14072E+03
  1.45649E+04  2.76841E+03  9.17086E+03  1.12785E+04  7.89585E+02  1.08639E+04 -5.35990E+03  9.34864E+03
 -5.22353E+03  2.83654E+03 -2.43459E+03 -1.18275E+03 -1.23219E+03 -2.43311E+03 -6.88561E+02 -8.75832E+02
 -1.54928E+03  1.11746E+03 -3.96853E+03 -2.99352E+02 -1.08708E+02 -2.49081E+03  1.16106E+03 -4.69155E+03
  3.53681E+03 -4.73123E+03  6.96975E+03  1.06621E+03  7.90704E+03  5.14952E+03  3.86189E+03  1.04366E+04
 -5.32116E+03  1.23086E+04 -1.35190E+04  8.35840E+03 -1.42897E+04  7.26172E+02 -1.03665E+04 -8.16194E+03
 -5.36953E+03 -1.10441E+04  3.89499E+03 -1.16458E+04  6.84594E+03 -5.75656E+03  8.39249E+03 -3.46710E+02
  4.03065E+03  3.26536E+03 -1.91294E+02  4.49877E+03 -1.02022E+03 -1.37809E+03 -4.04715E+02 -2.57701E+03
  4.60500E+03 -1.06202E+03  4.31133E+03  8.82391E+02  2.57221E+03  5.47606E+03 -1.10853E+03  5.17322E+03
 -6.91790E+03  6.28269E+03 -7.72350E+03  4.47679E+02 -7.48498E+03 -4.41333E+03 -6.73638E+02 -1.04540E+04
  3.17597E+03 -8.39276E+03  9.40808E+03 -3.57299E+03  9.07269E+03  3.54168E+03  4.63147E+03  7.33001E+03
  8.88221E+02  8.31262E+03 -3.78266E+03  7.32206E+03 -4.42039E+03  3.15439E+03 -5.08033E+03 -6.86354E+02
 -2.65036E+03  4.04699E+02 -2.43028E+03  6.01823E+02 -4.85006E+03  5.16280E+02 -6.99962E+03  2.58481E+02
 -5.54615E+03 -4.77044E+03 -2.05483E+03 -7.48842E+03  4.01983E+03 -6.89460E+03  7.08022E+03 -4.56736E+03
  7.31302E+03 -9.77555E+01  5.22156E+03  5.54871E+03 -7.55586E+02  7.54776E+03 -5.96462E+03  5.75583E+03
