 $NMID ID='MM_0lb_SNR200_15hz_g60_9.RAW', FMTDAT='(8E13.5)'
 TRAMP=1., VOLUME=1. $END
  3.11150E+05  7.40970E+02  3.37614E+05  2.50316E+05  8.47667E+04  3.37748E+05 -1.31396E+05  2.51054E+05
 -1.90203E+05  8.35217E+04 -1.11523E+05 -3.20880E+04  1.74633E+03 -5.06241E+04  5.30281E+04 -5.21172E+02
  3.61169E+04  5.31818E+04 -1.71054E+04  7.66681E+04 -6.04543E+04  6.38077E+04 -8.49526E+04  3.30297E+04
 -8.20854E+04 -1.24009E+04 -5.82827E+04 -5.25434E+04 -1.41167E+04 -7.10675E+04  2.65156E+04 -4.53801E+04
  4.13440E+04  4.51651E+03  1.68408E+04  4.78906E+04 -3.46098E+04  4.72029E+04 -6.77897E+04 -1.26484E+01
 -5.41054E+04 -5.61197E+04 -7.81956E+03 -7.72893E+04  3.46598E+04 -5.56851E+04  4.81610E+04 -1.68138E+04
  4.38385E+04  1.14301E+04  3.14116E+04  2.48176E+04  1.57785E+04  2.93832E+04 -5.93133E+03  2.73125E+04
 -2.17730E+04  1.28991E+04 -1.79522E+04 -5.01444E+03  5.99512E+03 -7.46466E+03  2.39297E+04  1.34222E+04
  7.12738E+03  3.73243E+04 -3.22726E+04  3.54182E+04 -6.42618E+04  2.94576E+03 -5.68836E+04 -4.23373E+04
 -1.17826E+04 -6.40008E+04  4.03508E+04 -4.47803E+04  5.89081E+04 -3.69136E+03  3.39599E+04  3.30034E+04
 -5.60750E+03  3.73238E+04 -3.08852E+04  1.62310E+04 -3.13225E+04 -5.34650E+03 -1.83237E+04 -1.18048E+04
 -8.00848E+03 -1.35955E+04 -4.93582E+02 -1.88051E+04  9.26373E+03 -2.28471E+04  1.48707E+04 -1.41596E+04
  1.22790E+04  5.38385E+03 -8.97931E+03  1.16458E+04 -2.18142E+04 -4.68830E+03 -8.82902E+03 -3.29190E+04
  2.24121E+04 -4.30950E+04  4.82473E+04 -2.09366E+04  4.68297E+04  1.90017E+04  1.62404E+04  4.36171E+04
 -1.61183E+04  3.30920E+04 -2.56119E+04  1.78280E+03 -1.07439E+04 -2.83706E+04  2.03458E+04 -3.48876E+04
  4.13375E+04 -9.52380E+03  3.75023E+04  2.42226E+04  1.94074E+04  4.77027E+04 -7.78918E+03  5.06840E+04
 -3.19590E+04  3.41907E+04 -4.43679E+04  8.93447E+03 -4.32902E+04 -1.70944E+04 -2.42447E+04 -3.95516E+04
  8.90788E+03 -3.80839E+04  3.24389E+04 -1.45555E+04  2.97546E+04  1.15054E+04  4.10738E+03  1.78856E+04
 -1.34622E+04  8.31735E+03 -9.42786E+03 -7.53237E+03  4.94891E+03 -1.06515E+04  1.79037E+04  6.18402E+03
  1.39871E+04  2.15713E+04 -6.79958E+03  2.46352E+04 -2.31481E+04  1.03254E+04 -2.74742E+04 -4.25264E+03
 -2.16831E+04 -1.69573E+04 -8.90443E+03 -2.08933E+04  4.12066E+03 -2.11042E+04  1.52741E+04 -1.92632E+04
  2.54967E+04 -1.33142E+04  3.19737E+04  3.44952E+03  2.39798E+04  2.11017E+04  5.13701E+03  3.59424E+04
 -1.74454E+04  3.09367E+04 -2.84775E+04  9.80459E+03 -2.19072E+04 -1.09510E+04 -4.87416E+03 -1.40194E+04
  1.48802E+03 -2.39216E+03 -5.09901E+03  6.29646E+03 -1.64596E+04  5.79232E+03 -1.75269E+04 -6.90828E+03
 -9.38823E+03 -1.84595E+04  5.11417E+03 -2.30401E+04  1.60554E+04 -1.70107E+04  1.94453E+04 -1.33851E+03
  1.18605E+04  1.35408E+04 -2.49556E+03  1.81304E+04 -1.27341E+04  1.02393E+04 -1.84927E+04 -4.07377E+03
 -1.49790E+04 -1.68182E+04 -1.15798E+03 -2.31648E+04  1.05167E+04 -1.94302E+04  1.94258E+04 -8.93981E+03
  1.69426E+04 -1.08726E+03  1.38731E+04  3.34268E+03  7.85175E+03  4.98846E+01  9.17177E+03 -1.35229E+03
  1.68904E+04  2.82287E+03  2.01728E+04  1.52673E+04  1.34950E+04  3.13013E+04 -1.98105E+03  3.54933E+04
 -1.89599E+04  2.80893E+04 -3.27744E+04  1.38165E+04 -3.42712E+04 -1.56421E+03 -2.79749E+04 -2.08481E+04
 -1.18995E+04 -2.82013E+04  9.85704E+03 -2.57307E+04  2.20188E+04 -1.24268E+04  1.97105E+04  5.57039E+03
  7.51397E+03  1.51488E+04 -8.39048E+03  1.28870E+04 -1.62543E+04  2.65101E+03 -1.29432E+04 -1.02100E+04
 -8.94431E+02 -1.51939E+04  7.02342E+03 -1.20040E+04  1.04634E+04  5.54845E+01  2.14149E+03  6.83081E+03
 -6.76370E+03  2.95441E+03 -5.58119E+03 -5.22279E+03 -1.28171E+03 -1.37041E+04  9.94565E+03 -1.41223E+04
  1.66025E+04 -7.88972E+03  1.77082E+04  3.42428E+03  1.54852E+04  1.37115E+04  8.16991E+03  1.96838E+04
 -3.56698E+03  2.33425E+04 -1.37019E+04  1.48516E+04 -1.63819E+04  3.24699E+03 -1.19515E+04 -4.16266E+03
 -5.56899E+03 -6.12756E+03 -1.49122E+03  1.54544E+03 -2.97154E+03  2.50286E+03 -4.88597E+03  3.80317E+03
 -1.24543E+04 -9.16864E+02 -1.12884E+04 -1.01129E+04 -5.24852E+03 -1.51293E+04  5.33714E+03 -1.22090E+04
  9.19015E+03 -5.75880E+03  7.42055E+03  2.10232E+03  6.01949E+02  4.33479E+03 -6.57185E+03  1.05835E+03
 -5.89009E+03 -6.72013E+03 -9.53573E+02 -1.11547E+04  6.43187E+03 -1.00788E+04  1.43366E+04 -5.68822E+03
  1.64304E+04  7.69240E+02  1.12696E+04  9.36126E+03  3.11024E+03  1.25037E+04 -6.57930E+03  1.14182E+04
 -8.44535E+03  3.26194E+03 -5.11089E+03 -2.60351E+03  9.04186E+02 -3.00232E+03  5.75668E+03 -1.58456E+03
  5.13785E+03  5.56308E+03  8.79584E+02  7.99338E+03 -6.67949E+03  8.43707E+03 -1.11472E+04  1.97249E+03
 -6.89289E+03 -6.46080E+03 -8.62049E+01 -8.35913E+03  4.87838E+03 -4.97861E+03  6.59165E+03  2.02313E+03
  6.58613E+02  6.46001E+03 -6.23461E+03  6.80789E+03 -8.69671E+03  4.33499E+03 -7.66913E+03 -3.96384E+03
 -6.14456E+03 -9.57168E+03  1.43969E+03 -1.14152E+04  9.13048E+03 -6.68940E+03  9.90731E+03  2.55734E+03
  6.35609E+03  8.48350E+03  3.69078E+02  1.13526E+04 -7.41224E+03  5.38566E+03 -7.71434E+03 -6.51190E+02
 -7.34784E+03 -7.02815E+03 -7.14780E+02 -6.82633E+03  4.94092E+03 -7.43822E+03  4.67594E+03 -2.66890E+03
  4.16970E+03  2.43622E+02 -8.76764E+02  1.27696E+03  4.73176E+02 -6.84598E+02  3.00938E+02 -3.60050E+03
  7.12985E+03 -3.26047E+03  9.03331E+03  7.96885E+02  8.34556E+03  7.28191E+03  7.47104E+03  1.11677E+04
 -3.51088E+03  1.43972E+04 -1.22696E+04  1.07584E+04 -1.56791E+04  3.01382E+03 -1.24296E+04 -5.80372E+03
 -6.46420E+03 -9.84305E+03 -3.00281E+02 -9.21335E+03  3.02421E+03 -4.17043E+03  2.43313E+03 -3.86896E+03
  2.58535E+03 -1.80425E+03  2.30548E+03 -2.68533E+03  5.47540E+03 -1.54608E+03  4.15676E+03  6.50603E+02
  7.21640E+03  2.16885E+03  2.67201E+03  6.43026E+03 -1.67764E+03  5.39859E+03 -6.67116E+03  4.77004E+03
 -9.33256E+03 -1.51504E+03 -4.50043E+03 -5.65034E+03  1.55360E+02 -9.28381E+03  4.59900E+03 -8.42126E+03
  9.67365E+03 -6.25733E+03  1.09354E+04  2.25399E+03  7.21730E+03  7.40050E+03  2.07386E+03  9.96832E+03
 -2.85597E+03  8.92877E+03 -4.19766E+03  2.11932E+03 -4.35120E+03 -1.24850E+03 -1.80692E+03 -1.89427E+03
 -8.21950E+02 -5.50686E+02 -9.83335E+02  1.94238E+03 -4.05475E+03  1.65895E+03 -5.45276E+03 -3.46406E+02
 -3.99121E+03 -4.88802E+03  2.39764E+03 -8.19173E+03  5.28255E+03 -6.95302E+03  5.91626E+03 -3.04300E+03
  7.53270E+03  5.12374E+03  3.61611E+03  6.33152E+03  1.98901E+02  8.12467E+03 -4.48070E+03  4.49988E+03
 -6.84130E+03  1.55628E+03 -6.01606E+03 -4.24911E+03 -9.08405E+02 -6.57995E+03  2.59769E+03 -3.96921E+03
  5.29126E+03 -2.71298E+03  4.50162E+03  7.59476E+02  6.09617E+02  2.18777E+03  1.24517E+03  1.44055E+03
  2.28666E+03  1.14750E+03  1.69920E+03  1.18883E+03  2.44644E+03  3.51716E+03  1.08869E+03  3.02022E+03
 -1.89174E+03  4.15716E+03 -4.97876E+03  6.65547E+03 -5.83800E+03  2.71743E+03 -6.72879E+03 -2.88292E+03
 -2.65458E+03 -6.42830E+03  5.33368E+02 -7.88614E+03  4.13956E+03 -4.29248E+03  6.00760E+03 -2.75437E+03
  3.84312E+03  3.89990E+03 -5.47334E+02  3.85432E+03 -8.55625E+02  3.20622E+03 -1.84603E+03  3.34486E+02
 -7.77310E+01 -1.81018E+03  1.90012E+03 -2.57933E+03  2.81478E+03 -1.75632E+03  2.02138E+03  5.93003E+01
  1.35770E+03  3.60802E+02  3.05980E+02  4.25982E+02 -1.40351E+03  2.68249E+02  2.80059E+03 -5.98868E+02
  1.07865E+03  1.86238E-01  2.32835E+03  4.33188E+02  1.04007E+03  4.65341E+03 -5.07640E+02  5.47625E+03
 -3.26250E+03  3.08649E+03 -3.58989E+03  1.07246E+03 -3.84906E+03 -9.35231E+02 -1.20874E+03 -1.34584E+03
  4.54463E+02 -1.92132E+03  1.31198E+03 -1.91420E+03  9.63899E+02  1.63986E+03 -1.39516E+03  2.12038E+03
 -2.42174E+03  2.93581E+02 -1.26435E+03 -2.35428E+03 -2.06302E+03 -5.09827E+03  8.92791E+02 -3.81302E+03
  1.20080E+03 -1.74179E+03  3.10421E+03 -2.52386E+02  1.54358E+03 -7.39729E+02  1.32848E+02  5.37718E+02
 -5.77831E+02  7.95499E+02 -1.81934E+03 -7.97834E+02 -4.86214E+02 -3.11893E+03  3.19039E+03 -1.35361E+03
  3.17358E+03  1.44823E+02  5.06149E+03  1.29869E+03  3.69551E+02  3.77012E+03 -1.05747E+03  4.14918E+03
 -3.28676E+03  1.83882E+03 -3.88343E+03  3.41786E+02 -8.92978E+02 -2.75332E+03 -7.90969E+01 -1.73510E+03
  2.37757E+03 -6.62860E+02  2.31591E+03  1.55313E+02  1.65979E+03  1.66622E+03 -3.74597E+02  2.29511E+03
 -1.55478E+02  2.78017E+03 -1.33181E+03  3.95764E+02  4.64671E+02  5.47372E+02  3.95544E+02  7.50886E+02
 -1.61769E+03  2.62256E+03 -3.46317E+03  1.91658E+03 -4.64495E+03  1.32797E+03 -5.03581E+03 -3.24278E+03
 -3.27440E+03 -6.16588E+03  7.81763E+02 -5.08706E+03  2.89742E+03 -3.88959E+03  3.46758E+03 -2.05646E+03
  4.82908E+03  1.61196E+03  1.88504E+03  2.81601E+03  1.26046E+02  3.30490E+03 -9.21374E+02  1.40151E+03
 -1.29760E+03  1.30243E+03 -6.47801E+02 -5.39767E+02 -1.13157E+03  1.11944E+02  2.55467E+02  1.09022E+03
 -1.88687E+03  2.42951E+02 -4.64401E+02 -4.47651E+02 -2.66866E+02 -7.29709E+02 -3.24046E+02 -1.65471E+03
  3.13934E+03 -1.18521E+03  2.20803E+03 -3.05778E+02  3.52291E+03  2.51518E+03  1.34015E+02  3.07070E+03
  1.96564E+02  3.50010E+03 -3.65311E+03  1.82265E+03 -3.96942E+03 -1.48228E+03 -2.33449E+03 -3.56274E+03
 -1.42396E+03 -3.23101E+03  1.59512E+03 -3.43216E+03  1.54170E+03 -1.87822E+03  1.58533E+03  7.30938E+02
  1.76609E+03  1.33000E+03 -1.95791E+03  1.20556E+03 -1.59571E+03  1.59466E+01 -1.14632E+03 -1.09697E+03
  1.79986E+03  3.14765E+01  2.35946E+03  1.15548E+03  1.77494E+03  2.10894E+02  5.29546E+02  2.01094E+03
 -2.11103E+03  1.09331E+03 -3.54208E+02 -3.69175E+02 -1.36313E+03 -2.03011E+03 -8.77546E+02 -2.36772E+03
  1.72765E+03 -2.37104E+03  2.01549E+03 -1.23186E+03  3.33384E+03 -1.49125E+03  9.88264E+02  1.19579E+03
 -3.07118E+02  2.29518E+03  7.04192E+02  1.14891E+03 -1.86831E+03  7.36224E+02  1.19306E+03  4.50276E+02
 -1.64759E+02  1.31483E+02 -1.73748E+02  1.24767E+03 -7.00231E+02  1.79496E+03 -1.75602E+03  9.76277E+01
 -3.44402E+03  4.49003E+02  4.52168E+01 -2.34784E+03  2.13301E+03 -3.44293E+03  1.38464E+03 -1.23675E+03
  2.29611E+03  8.69828E+01  4.56094E+02 -1.32150E+02  9.85873E+02  2.21072E+03 -1.19330E+03  2.08402E+03
