 $NMID ID='MM_0lb_SNR200_19hz_g40_61.RAW', FMTDAT='(8E13.5)'
 TRAMP=1., VOLUME=1. $END
  3.08407E+05  8.48410E+02  3.36823E+05  2.50699E+05  8.38922E+04  3.37610E+05 -1.32494E+05  2.50183E+05
 -1.89152E+05  8.31527E+04 -1.11740E+05 -3.33891E+04  2.41298E+03 -5.03550E+04  5.41362E+04  1.17469E+03
  3.49483E+04  5.09824E+04 -1.66317E+04  7.45115E+04 -5.99344E+04  6.28346E+04 -8.24429E+04  3.12974E+04
 -7.85153E+04 -1.01163E+04 -5.61818E+04 -5.00851E+04 -1.57831E+04 -6.75291E+04  2.71605E+04 -4.47480E+04
  3.82568E+04  3.99277E+03  1.45276E+04  4.63806E+04 -3.37158E+04  4.61279E+04 -6.39946E+04 -2.76774E+02
 -5.24954E+04 -5.51722E+04 -5.43656E+03 -7.46539E+04  3.34924E+04 -5.15656E+04  4.56278E+04 -1.48664E+04
  4.20640E+04  1.11687E+04  3.01488E+04  2.38713E+04  1.50868E+04  2.77917E+04 -3.71344E+03  2.61833E+04
 -2.18890E+04  1.22152E+04 -1.95590E+04 -4.75997E+03  3.32768E+03 -8.13661E+03  2.02979E+04  1.07024E+04
  8.33520E+03  3.21089E+04 -2.97819E+04  3.28238E+04 -6.00049E+04  2.86318E+03 -5.59184E+04 -3.97725E+04
 -1.19063E+04 -5.89094E+04  3.75338E+04 -4.17837E+04  5.38551E+04 -2.14202E+03  3.13445E+04  2.96232E+04
 -7.72181E+03  3.18827E+04 -2.75058E+04  1.34748E+04 -2.71589E+04 -6.31895E+03 -1.35385E+04 -1.00283E+04
 -6.54259E+03 -1.13176E+04 -7.38090E+02 -1.55689E+04  6.06694E+03 -2.28662E+04  1.52465E+04 -1.28994E+04
  1.32927E+04  3.97967E+03 -5.39106E+03  1.35280E+04 -1.91335E+04 -1.93777E+03 -8.23791E+03 -2.90667E+04
  1.98441E+04 -3.97170E+04  4.36090E+04 -1.84113E+04  4.18502E+04  1.84165E+04  1.48404E+04  4.15854E+04
 -1.48307E+04  3.09511E+04 -2.15787E+04  7.26053E+02 -8.13412E+03 -2.64699E+04  2.07612E+04 -3.03778E+04
  3.69331E+04 -6.99163E+03  2.93603E+04  2.26202E+04  1.54541E+04  4.20820E+04 -8.02627E+03  4.41797E+04
 -2.83581E+04  2.86903E+04 -3.63059E+04  8.45695E+03 -3.71478E+04 -1.53047E+04 -2.07603E+04 -3.45143E+04
  6.35434E+03 -3.27691E+04  2.88416E+04 -1.21376E+04  2.61693E+04  1.15986E+04  3.57725E+03  1.71321E+04
 -1.34366E+04  6.05355E+03 -1.04426E+04 -8.16889E+03  5.69763E+03 -1.00273E+04  1.68332E+04  7.65487E+03
  1.22050E+04  2.04704E+04 -6.63980E+03  2.34164E+04 -2.13565E+04  7.99056E+03 -2.45391E+04 -7.14947E+03
 -1.60236E+04 -1.60140E+04 -4.77812E+03 -1.67678E+04  3.97176E+03 -1.40713E+04  1.08644E+04 -1.38876E+04
  1.84021E+04 -1.07661E+04  2.76467E+04 -2.48048E+02  2.07013E+04  1.52365E+04  4.09756E+03  3.22149E+04
 -1.46097E+04  2.70184E+04 -2.55785E+04  9.96767E+03 -1.99130E+04 -1.05119E+04 -2.62553E+03 -1.40703E+04
  2.52026E+03 -4.89587E+03 -2.61878E+03  5.16206E+03 -1.21263E+04  5.54132E+03 -1.25279E+04 -4.30488E+03
 -7.76021E+03 -1.40549E+04  4.30919E+03 -1.84468E+04  1.11687E+04 -1.43835E+04  1.40325E+04 -1.44038E+03
  8.55589E+03  1.02583E+04 -3.45106E+02  1.42654E+04 -1.05500E+04  7.72162E+03 -1.44949E+04 -2.95574E+03
 -1.13125E+04 -1.38289E+04 -1.57307E+03 -1.78883E+04  8.47455E+03 -1.44438E+04  1.57290E+04 -6.60709E+03
  1.37688E+04 -4.84127E+01  9.18815E+03  3.78392E+03  4.79977E+03  3.89047E+02  8.08739E+03 -1.61799E+03
  1.29915E+04  2.48821E+03  1.30339E+04  1.30737E+04  8.00595E+03  2.34068E+04 -2.85420E+03  2.41550E+04
 -1.36583E+04  1.85497E+04 -2.20515E+04  8.24294E+03 -2.36017E+04 -1.63619E+03 -1.97732E+04 -1.33495E+04
 -8.15122E+03 -1.93199E+04  5.35580E+03 -1.89471E+04  1.56170E+04 -9.56872E+03  1.53282E+04  2.23216E+03
  5.93157E+03  1.12898E+04 -7.34715E+03  9.48857E+03 -1.26661E+04  2.30441E+03 -9.90191E+03 -7.69731E+03
 -1.07412E+03 -1.19978E+04  6.46719E+03 -8.04430E+03  7.47335E+03 -1.67706E+03  9.52187E+02  5.55238E+03
 -3.88262E+03 -1.89324E+02 -3.53346E+03 -3.84883E+03  9.01654E+02 -1.00320E+04  8.45316E+03 -9.29773E+03
  1.19497E+04 -4.27354E+03  1.08817E+04  2.89406E+03  8.86072E+03  8.34115E+03  5.52283E+03  1.26353E+04
 -2.02640E+03  1.39228E+04 -9.02936E+03  9.07734E+03 -1.05786E+04  2.80626E+03 -7.65966E+03 -3.07492E+03
 -4.47636E+03 -3.42105E+03 -3.95679E+02  1.88919E+03 -2.91895E+03  1.77124E+03 -3.15736E+03  3.11873E+03
 -7.81475E+03 -3.46865E+02 -8.81570E+03 -6.28880E+03 -3.14705E+03 -1.06590E+04  3.89991E+03 -7.88341E+03
  6.93439E+03 -3.92147E+03  4.79397E+03  2.26988E+03  7.40142E+02  2.19337E+03 -2.87113E+03 -4.81768E+01
 -2.32854E+03 -4.69419E+03 -4.56967E+02 -6.30180E+03  4.10436E+03 -7.30590E+03  8.56470E+03 -2.40129E+03
  9.87733E+03  1.57476E+02  7.79918E+03  5.01362E+03  1.33768E+03  8.12172E+03 -5.08634E+03  8.16382E+03
 -6.15898E+03  3.09920E+03 -3.36301E+03 -2.46119E+03  1.16688E+03 -2.98380E+03  4.83600E+03 -1.58186E+03
  4.41095E+03  3.35277E+03  7.76232E+02  6.15417E+03 -4.31282E+03  6.13704E+03 -7.99474E+03  1.78048E+03
 -4.32125E+03 -3.99192E+03  3.31225E+02 -6.45216E+03  3.00729E+03 -3.33830E+03  2.74920E+03  9.88066E+02
  7.52902E+02  2.96209E+03 -3.89522E+03  4.06151E+03 -4.32567E+03  2.23599E+03 -3.97665E+03 -1.29813E+03
 -2.03055E+03 -5.36744E+03  4.03057E+02 -6.39580E+03  4.37515E+03 -4.41340E+03  5.88473E+03  5.82821E+02
  3.14858E+03  5.57843E+03  8.86971E+02  7.27629E+03 -6.33979E+03  3.78466E+03 -5.68081E+03 -2.93301E+02
 -5.35096E+03 -4.50479E+03 -1.45239E+03 -4.09601E+03  3.08236E+03 -2.75120E+03  3.25718E+03 -2.72523E+03
  2.68297E+03 -4.98658E+01  1.08358E+03  8.94093E+02  2.34958E+02 -6.96004E+02  8.36285E+02 -2.09071E+03
  2.89784E+03 -5.01541E+02  5.40409E+03  8.20068E+02  6.05214E+03  2.90914E+03  5.64126E+03  7.41906E+03
 -2.40251E+03  7.35004E+03 -7.27781E+03  6.63288E+03 -9.30996E+03  7.95540E+02 -6.81523E+03 -1.49370E+03
 -3.66921E+03 -5.43265E+03  2.09007E+02 -4.48686E+03  1.64956E+03 -2.63822E+03  2.71373E+03 -2.29816E+03
  1.01804E+03 -2.21799E+03  2.75784E+03 -3.00409E+03  4.10860E+03 -9.55084E+02  3.20520E+03  5.17681E+02
  3.09601E+03  1.83595E+03  1.55472E+03  2.39038E+03 -1.34454E+03  2.55616E+03 -4.23231E+03  2.36369E+03
 -4.33400E+03 -8.41978E+02 -1.14388E+03 -3.79797E+03 -1.49498E+02 -4.94350E+03  3.50116E+03 -5.59293E+03
  3.72082E+03 -3.64385E+03  5.04638E+03  1.12312E+03  3.83191E+03  3.30662E+03  1.27172E+03  4.80509E+03
 -6.94482E+02  6.20828E+03 -3.98343E+03  2.20366E+03 -1.45664E+03 -3.24569E+02 -4.71760E+00 -2.88702E+02
 -8.88247E+02  1.91531E+02 -2.01362E+03  1.52659E+03 -2.33129E+03 -5.79428E+01 -4.12626E+03  1.15669E+02
 -8.79449E+02 -4.63488E+03  1.60683E+03 -4.39196E+03  2.29406E+03 -3.50281E+03  3.37292E+03 -4.33082E+02
  3.14718E+03  2.21970E+03  2.31525E+03  2.88971E+03 -1.68282E+02  4.94326E+03 -1.84281E+03  1.92181E+03
 -3.04397E+03  1.56777E+03 -3.87240E+03 -2.46082E+03 -6.25240E+02 -2.95118E+03  1.45119E+03 -6.63546E+02
  1.93643E+03 -1.68139E+03  1.13151E+03  7.18165E+02  1.27013E+02  1.41101E+03  1.13843E+03  1.11108E+02
  1.44777E+03  9.18018E+02  1.06042E+03  1.08218E+03 -3.16454E+01  3.13359E+03  1.20444E+03  2.23834E+03
 -8.33236E+02  2.34074E+03 -2.28699E+03  4.67470E+03 -2.61004E+03  1.07722E+03 -3.76329E+03  4.69071E+02
 -1.34357E+03 -3.45812E+03  5.68144E+02 -4.74260E+03  8.46000E+02 -2.09163E+03  1.95394E+03 -1.43174E+03
  1.57727E+03  8.43719E+02 -2.20895E+02  1.66156E+03 -1.22251E+03  2.04823E+03 -1.86452E+03  4.25007E+02
  5.19050E+02 -1.52226E+03  2.16897E+03 -4.70281E+02  5.21105E+02 -1.62488E+03  1.49826E+03  3.46205E+02
  2.09434E+03 -6.82845E+02  1.26053E+03  1.13866E+02 -8.45978E+02  8.46557E+01  1.50082E+03 -1.10254E+03
  6.63229E+02 -3.57329E+02  1.46977E+03 -9.95962E+01 -7.74376E+01  2.60696E+03 -1.92378E+01  1.96008E+03
 -8.94937E+02  5.64429E+02 -2.02811E+03  7.90523E+01 -2.29773E+03 -5.82266E+02 -3.99692E+02 -1.52347E+03
 -1.24966E+03 -1.06080E+03  1.48453E+03 -1.37653E+03  8.64735E+02  1.49741E+03 -1.35407E+03  8.63926E+02
 -1.00559E+03  1.27189E+03 -9.95117E+02 -1.12861E+03 -5.22723E+02 -1.40133E+03  9.63803E+01 -1.11468E+03
  5.15999E+01 -8.26228E+01  4.18441E+02  8.37937E+02  2.57192E+02 -9.37987E+02  6.64449E+02  1.62729E+03
 -6.84032E+02  1.42221E+02 -8.96088E+02 -3.35714E+02  2.85842E+02 -9.60086E+02  1.73203E+03 -1.21576E+03
  1.19730E+03 -1.72570E+02  2.88205E+03  1.18393E+03  2.46335E+03  1.51223E+03 -1.11656E+02  1.87924E+03
 -4.39952E+02 -2.32188E+02 -1.25701E+03 -2.21866E+02 -1.20270E+03 -1.60644E+03  1.61763E+03 -3.02425E+02
  1.25401E+03 -6.62505E+01  1.04263E+03  1.54001E+03  4.82908E+02  1.94527E+03  8.46580E+02  1.06517E+03
  1.37355E+01  1.60734E+03 -6.71497E+02  2.23242E+02 -1.00051E+03  5.94318E+02 -6.28304E+02  5.74172E+02
  1.52093E+03  1.82487E+03 -2.17881E+03  6.14969E+02 -1.24489E+03  2.60245E+01 -2.62683E+03 -1.00641E+03
 -6.73112E+02 -1.94542E+03  1.41728E+03 -2.22434E+03  9.02511E+02 -2.01799E+03  2.51325E+03 -8.69085E+02
  2.14316E+03  4.65963E+02  6.47186E+02  1.18877E+03 -5.70828E+02  1.25291E+03  1.12917E+02  5.34966E+02
 -9.57011E+02  8.22481E+02  3.05360E+02 -7.09033E+02 -3.81914E+02  8.61277E+02 -4.11306E+02  4.83139E+02
 -1.75345E+03 -4.52379E+02 -1.12915E+03 -3.19155E+01  9.40390E+01  2.08331E+02 -5.88222E+02 -1.46165E+03
  5.96045E+02 -8.82238E+02  2.46955E+02 -6.35753E+01  6.28093E+02  1.51850E+03 -2.41074E+02  1.77713E+03
  1.28021E+02  2.10753E+03 -1.50399E+03  1.54224E+03 -5.61459E+02 -5.07889E+02 -7.08445E+02 -7.85832E+02
 -8.60120E+02 -1.77472E+03  6.71320E+02 -9.11076E+02 -3.39953E+02 -5.00560E+02  7.01210E+02 -3.13496E+02
  1.21273E+03  6.83204E+01 -2.83674E+01  2.04804E+03  7.70513E+01  1.24027E+03  6.17962E+01 -3.02154E+02
  9.79078E+02 -4.72306E+02 -4.54119E+02 -7.63332E+01  7.21855E+02 -2.25374E+02  4.17669E+02  1.21071E+03
 -6.90450E+02  1.29162E+02 -6.32908E+02  4.66457E+02 -1.69498E+02 -8.39851E+02  6.50565E+02 -1.48009E+03
  9.75554E+02  8.27035E+00 -3.03657E+02 -3.05616E+02  1.22878E+03 -1.05090E+03  9.39058E+02  6.04110E+02
  2.60575E+02  4.28640E+02 -2.46425E+02 -4.18892E+02 -3.24072E+02  1.00504E+03 -9.94880E+02 -7.05776E+02
  6.54971E+02 -3.61716E+02  1.95934E+02  1.28661E+02 -1.71103E+03 -1.37219E+02 -9.88920E+02  5.56244E+02
 -6.24560E+02  2.47618E+02 -6.33502E+02 -1.12706E+03  8.34853E+02 -1.40209E+03  1.32411E+02  7.39521E+01
  7.48243E+02  1.04495E+03 -1.13886E+03  1.72691E+03 -5.57429E+02  1.51324E+03 -9.40851E+02  4.24764E+02
