 $NMID ID='MM_0lb_SNR200_12hz_g60_17.RAW', FMTDAT='(8E13.5)'
 TRAMP=1., VOLUME=1. $END
  3.09426E+05  8.79686E+02  3.37858E+05  2.50410E+05  8.57206E+04  3.38207E+05 -1.32631E+05  2.52192E+05
 -1.91381E+05  8.28561E+04 -1.12805E+05 -3.15948E+04  1.44382E+03 -4.93847E+04  5.38559E+04 -8.58170E+02
  3.57952E+04  5.19734E+04 -1.62695E+04  7.56780E+04 -6.06859E+04  6.37214E+04 -8.51769E+04  3.05844E+04
 -8.11777E+04 -1.11498E+04 -5.86715E+04 -5.09738E+04 -1.44616E+04 -7.08214E+04  2.70823E+04 -4.59958E+04
  4.11588E+04  4.16546E+03  1.65048E+04  4.77318E+04 -3.50278E+04  4.71193E+04 -6.74375E+04  9.30038E+02
 -5.45083E+04 -5.69502E+04 -8.05039E+03 -7.87229E+04  3.42333E+04 -5.60421E+04  4.86893E+04 -1.88530E+04
  4.53168E+04  1.43044E+04  3.35031E+04  2.63923E+04  1.57700E+04  3.15204E+04 -5.00223E+03  2.70165E+04
 -2.15988E+04  1.23558E+04 -1.68008E+04 -4.49889E+03  6.73505E+03 -6.90749E+03  2.30157E+04  1.45327E+04
  6.20950E+03  3.76077E+04 -3.30733E+04  3.66311E+04 -6.49422E+04  2.35204E+03 -5.87577E+04 -4.39470E+04
 -1.17104E+04 -6.50675E+04  4.10318E+04 -4.61577E+04  5.97027E+04 -2.25782E+03  3.72806E+04  3.25210E+04
 -5.29733E+03  3.80714E+04 -3.19530E+04  1.70669E+04 -3.13638E+04 -3.84329E+03 -1.85958E+04 -1.30928E+04
 -8.67432E+03 -1.50598E+04 -1.77073E+03 -1.71613E+04  8.42567E+03 -2.44216E+04  1.60261E+04 -1.37130E+04
  1.18545E+04  5.17552E+03 -9.81495E+03  1.30280E+04 -2.25611E+04 -5.71179E+03 -7.47541E+03 -3.62014E+04
  2.46469E+04 -4.51580E+04  5.11183E+04 -2.04519E+04  4.79290E+04  2.00786E+04  1.64575E+04  4.64782E+04
 -1.52891E+04  3.55463E+04 -2.73052E+04  1.89091E+03 -1.13087E+04 -2.80435E+04  2.13427E+04 -3.74901E+04
  4.24729E+04 -1.09569E+04  3.95893E+04  2.44452E+04  2.15648E+04  4.96473E+04 -7.50435E+03  5.49109E+04
 -3.35793E+04  3.75140E+04 -4.54528E+04  1.09984E+04 -4.60301E+04 -1.81909E+04 -2.64632E+04 -4.10930E+04
  6.78834E+03 -4.14924E+04  3.39266E+04 -1.66398E+04  3.06364E+04  1.15320E+04  4.03803E+03  2.16062E+04
 -1.12165E+04  1.10847E+04 -1.01984E+04 -7.00209E+03  5.87921E+03 -1.06064E+04  1.83771E+04  3.99496E+03
  1.37781E+04  2.37958E+04 -5.98555E+03  2.68719E+04 -2.24631E+04  1.24306E+04 -3.00177E+04 -3.13139E+03
 -2.43614E+04 -1.78444E+04 -1.10068E+04 -2.45146E+04  4.90717E+03 -2.31473E+04  2.01420E+04 -2.09824E+04
  3.01775E+04 -1.37256E+04  3.57790E+04  3.98425E+03  2.60262E+04  2.16308E+04  5.09644E+03  3.90287E+04
 -1.84366E+04  3.20785E+04 -3.06026E+04  1.06991E+04 -2.09658E+04 -1.09455E+04 -5.19404E+03 -1.34065E+04
  1.92841E+03 -2.75585E+03 -7.61727E+03  7.07668E+03 -1.95517E+04  5.05197E+03 -1.81104E+04 -8.75675E+03
 -1.05498E+04 -2.16529E+04  5.96184E+03 -2.54438E+04  1.90484E+04 -1.92300E+04  2.14461E+04 -1.62347E+03
  1.31305E+04  1.50285E+04 -1.01263E+03  2.24490E+04 -1.49827E+04  1.28796E+04 -2.21100E+04 -3.34463E+03
 -1.42308E+04 -1.94669E+04 -2.06105E+03 -2.66406E+04  1.19790E+04 -2.14308E+04  2.15104E+04 -1.11911E+04
  2.09635E+04  7.57310E+02  1.38977E+04  4.23953E+03  7.19822E+03  1.31422E+03  1.12215E+04 -2.04889E+03
  2.14961E+04  3.22452E+03  2.39843E+04  1.67839E+04  1.50652E+04  3.58986E+04 -3.01430E+03  3.99454E+04
 -2.39103E+04  3.37596E+04 -3.90280E+04  1.57500E+04 -3.99530E+04 -1.92572E+03 -3.25818E+04 -2.42438E+04
 -1.21993E+04 -3.38043E+04  1.15219E+04 -2.87716E+04  2.53308E+04 -1.42825E+04  2.15935E+04  6.74143E+03
  8.08672E+03  1.59670E+04 -1.09285E+04  1.35794E+04 -1.93368E+04  3.35759E+03 -1.43005E+04 -1.20960E+04
  1.16715E+03 -1.80175E+04  1.03083E+04 -1.26247E+04  1.13504E+04 -2.04532E+03  1.17607E+03  8.86103E+03
 -7.74347E+03  3.87395E+03 -7.87660E+03 -6.70082E+03 -1.17259E+03 -1.76680E+04  1.05452E+04 -1.83552E+04
  2.00814E+04 -9.27750E+03  2.34877E+04  3.35813E+03  2.03230E+04  1.66692E+04  9.12430E+03  2.60595E+04
 -4.34652E+03  2.71359E+04 -1.75252E+04  1.70880E+04 -1.98723E+04  2.71803E+03 -1.32620E+04 -4.58033E+03
 -6.06596E+03 -7.38081E+03 -1.48399E+02  4.19522E+01 -3.15907E+03  2.94804E+03 -6.70959E+03  5.50984E+03
 -1.40825E+04 -1.10670E+02 -1.32765E+04 -9.37661E+03 -5.06866E+03 -1.65349E+04  6.77441E+03 -1.35070E+04
  1.04402E+04 -6.22392E+03  7.80707E+03  3.89305E+03 -1.04466E+03  4.83712E+03 -7.65768E+03 -5.51323E+01
 -7.32894E+03 -9.31672E+03 -9.05844E+02 -1.35031E+04  6.70250E+03 -1.35597E+04  1.72743E+04 -8.40940E+03
  2.00973E+04  2.15469E+03  1.42085E+04  1.21866E+04  3.74845E+03  1.60549E+04 -9.67645E+03  1.32692E+04
 -1.00620E+04  4.96471E+03 -5.96578E+03 -3.66985E+03  1.79000E+03 -3.89504E+03  7.54188E+03 -1.04107E+03
  7.00200E+03  5.88504E+03  1.59201E+03  1.09067E+04 -6.71333E+03  9.46229E+03 -1.45528E+04  1.30759E+03
 -8.28366E+03 -7.27415E+03  4.73386E+02 -1.09481E+04  6.92409E+03 -5.45148E+03  8.92922E+03  2.22673E+03
  1.75210E+03  7.10905E+03 -6.28421E+03  9.49565E+03 -1.13813E+04  5.11052E+03 -1.02542E+04 -3.43573E+03
 -5.88146E+03 -1.31509E+04  3.09315E+03 -1.61443E+04  1.21411E+04 -8.41529E+03  1.48165E+04  2.26210E+03
  8.03008E+03  1.25294E+04 -1.90735E+03  1.29599E+04 -9.83835E+03  7.26397E+03 -1.12852E+04 -1.45401E+03
 -9.29339E+03 -9.07578E+03 -1.68635E+03 -8.36461E+03  5.34263E+03 -8.72804E+03  7.04243E+03 -3.41342E+03
  3.53165E+03  1.38325E+03  1.31730E+03  1.28938E+03 -5.70416E+01 -2.05485E+03  3.59560E+03 -6.66840E+03
  9.78046E+03 -3.93226E+03  1.29128E+04  1.48473E+02  1.30352E+04  7.60692E+03  8.61870E+03  1.76012E+04
 -5.24005E+03  2.00001E+04 -1.61529E+04  1.44608E+04 -2.05808E+04  3.20964E+03 -1.71791E+04 -7.02024E+03
 -8.70105E+03 -1.38862E+04  4.23045E+01 -1.17318E+04  4.00000E+03 -6.27680E+03  5.40616E+03 -4.92512E+03
  3.03409E+03 -2.44319E+03  3.46099E+03 -3.07116E+03  3.75656E+03 -2.88708E+03  5.10821E+03 -1.35415E+03
  9.37173E+03  1.43590E+03  4.74239E+03  7.80458E+03 -1.42787E+03  8.95456E+03 -1.06608E+04  7.73380E+03
 -1.16366E+04 -2.01373E+03 -7.95997E+03 -7.36856E+03 -4.62001E+02 -1.22863E+04  8.13031E+03 -1.37878E+04
  1.26098E+04 -7.75774E+03  1.44587E+04  1.44246E+03  1.08465E+04  9.58379E+03  2.70629E+03  1.34184E+04
 -6.05286E+03  1.15088E+04 -6.57817E+03  4.23540E+03 -5.12591E+03  1.95648E+02 -3.15211E+03 -1.32884E+03
 -1.54408E+03 -1.59157E+01 -2.06166E+03  1.73170E+03 -4.36971E+03  2.62400E+03 -9.25304E+03  1.12620E+02
 -5.68868E+03 -6.59802E+03 -2.81090E+02 -1.14489E+04  6.99852E+03 -1.08442E+04  1.06709E+04 -3.54876E+03
  1.25107E+04  4.37023E+03  5.51248E+03  8.71257E+03 -2.77603E+03  1.17690E+04 -7.62835E+03  7.69613E+03
 -9.95184E+03  9.20301E+02 -8.70979E+03 -6.89693E+03 -1.09614E+03 -9.87805E+03  5.20930E+03 -6.46764E+03
  6.91920E+03 -2.45131E+03  5.09225E+03  1.32609E+03  1.78473E+03  2.77866E+03  1.83803E+03  2.82958E+03
  2.07970E+03  1.34727E+03  1.72714E+03  1.60868E+03  3.25708E+03  3.54901E+03  2.67873E+03  5.29293E+03
 -2.64669E+03  6.82115E+03 -7.76698E+03  1.04357E+04 -1.11417E+04  3.00641E+03 -1.08545E+04 -4.73241E+03
 -6.00152E+03 -9.54924E+03  1.71815E+03 -1.25199E+04  6.51856E+03 -7.73089E+03  8.48159E+03 -1.94995E+03
  5.48871E+03  4.90237E+03  2.52174E+03  5.78001E+03 -2.65438E+03  4.48568E+03 -4.63920E+03 -1.37742E+03
 -2.00443E+03 -4.02942E+03  1.95405E+03 -3.22337E+03  3.98813E+03 -2.33114E+03  4.98594E+03  2.59495E+03
  3.71700E+03  2.77181E+03  1.19020E+03  2.92920E+03 -1.08592E+03  2.37865E+03  2.58213E+03 -1.96711E+03
  1.79391E+03  2.25509E+02  4.58356E+03  2.64619E+03  2.53843E+03  4.15058E+03 -3.64298E+02  7.82930E+03
 -6.51786E+03  5.36278E+03 -6.53573E+03  2.05271E+03 -6.30683E+03 -2.16730E+03 -1.96034E+03 -3.68412E+03
  5.53787E+02 -2.73683E+03  2.31034E+03 -1.65958E+03  2.01765E+03  1.51255E+03 -1.24844E+03  3.58240E+03
 -4.60949E+03  1.90471E+03 -5.18556E+03 -2.52896E+03 -2.45214E+03 -6.10274E+03  6.02716E+02 -5.40241E+03
  2.37028E+03 -3.02848E+03  4.44966E+03  4.23059E+02  3.82856E+03  1.52772E+03  1.20292E+02  4.27987E+03
 -1.19290E+03  1.54799E+03 -2.20228E+03 -1.17455E+03  1.40067E+03 -4.77691E+03  5.28941E+03 -3.58127E+03
  5.53746E+03 -4.54884E+02  6.91612E+03  3.37929E+03  3.20422E+03  6.82048E+03 -2.37602E+03  7.34985E+03
 -3.94639E+03  2.15908E+03 -6.32314E+03 -9.95549E+02 -3.22216E+03 -3.10084E+03  1.60497E+03 -2.80991E+03
  4.22714E+03 -2.10775E+03  2.54312E+03  1.65467E+03  6.29852E+02  3.16150E+03  1.23259E+03  3.56823E+03
 -2.59410E+03  3.73652E+03 -1.05137E+03  4.22749E+02 -9.19989E+02  1.42213E+03 -1.99610E+03  4.98444E+02
 -2.35853E+03  2.60131E+03 -5.38128E+03  2.80844E+03 -7.23805E+03 -7.97389E+02 -6.28879E+03 -4.76893E+03
 -3.94230E+03 -9.00709E+03  7.99642E+02 -1.06906E+04  4.80643E+03 -6.00932E+03  7.85518E+03 -2.87694E+03
  9.44123E+03  1.90477E+03  5.40710E+03  4.14440E+03 -6.39186E+02  4.65437E+03 -3.58485E+03  4.43538E+03
 -4.12119E+03  1.34705E+03 -2.66884E+03 -2.24755E+03 -1.28132E+03 -3.86124E+02 -3.63953E+02 -6.36614E+01
 -1.02549E+03  1.73690E+02 -2.47506E+03 -1.71102E+03 -1.76560E+03 -1.43304E+03 -1.57798E+02 -1.08218E+03
  4.04454E+03 -1.90063E+03  4.41580E+03  3.63452E+02  5.38893E+03  2.60356E+03  9.45343E+02  7.43849E+03
 -3.17160E+03  6.48985E+03 -6.74811E+03  3.81237E+03 -6.57512E+03 -3.56272E+02 -4.77284E+03 -5.96522E+03
 -3.86679E+03 -5.55477E+03  9.08922E+02 -5.66197E+03  3.31304E+03 -1.90282E+03  3.59517E+03 -3.26212E+02
  1.80319E+03  3.17840E+03  1.75974E+03  1.71461E+03 -8.72739E+02  4.75193E+02 -5.12744E+02 -1.75331E+02
  1.90029E+03 -6.06963E+02  2.47331E+03  8.50366E+02  2.03577E+03  1.71837E+03 -1.27567E+02  4.07659E+03
 -1.86155E+03  2.47033E+03 -4.39707E+03 -7.54981E+02 -3.21941E+03 -1.74987E+03 -3.21217E+01 -4.97248E+03
  4.04767E+03 -4.93070E+03  5.15873E+03 -9.10928E+02  3.97731E+03  1.81785E+03  1.91384E+03  4.03673E+03
  1.91382E+03  3.39794E+03 -1.47876E+03  2.90405E+03 -3.80028E+03  1.52888E+03 -3.79621E+03  9.76150E+02
 -8.06693E+02 -7.73209E+02 -9.83182E+02  3.73619E+02 -1.81666E+03  1.25358E+03 -2.19520E+03 -6.81324E+01
 -2.78027E+03 -3.88602E+02  4.14674E+02 -3.64003E+03  9.06928E+02 -3.90389E+03  5.13245E+03 -1.81835E+03
  2.79679E+03  1.81226E+03  2.14260E+02  2.35279E+03 -1.05058E+03  3.04668E+03 -1.48296E+03  1.68286E+03
