 $NMID ID='MM_0lb_SNR200_13hz_g55_98.RAW', FMTDAT='(8E13.5)'
 TRAMP=1., VOLUME=1. $END
  3.10309E+05  4.60782E+02  3.37358E+05  2.51503E+05  8.42646E+04  3.37319E+05 -1.33726E+05  2.51250E+05
 -1.90215E+05  8.48710E+04 -1.11427E+05 -3.23703E+04  2.15253E+03 -5.15806E+04  5.39314E+04 -1.99611E+02
  3.65751E+04  5.23122E+04 -1.74503E+04  7.53661E+04 -6.11881E+04  6.42899E+04 -8.42573E+04  3.19599E+04
 -8.12808E+04 -1.24512E+04 -5.67523E+04 -5.18207E+04 -1.53231E+04 -7.04685E+04  2.76842E+04 -4.67437E+04
  4.03109E+04  3.79345E+03  1.55785E+04  4.77182E+04 -3.41931E+04  4.77016E+04 -6.60148E+04 -9.65158E+01
 -5.58955E+04 -5.76814E+04 -6.71701E+03 -7.77787E+04  3.43597E+04 -5.56440E+04  4.92256E+04 -1.78609E+04
  4.44294E+04  1.17103E+04  3.16748E+04  2.63135E+04  1.57322E+04  2.94544E+04 -6.05750E+03  2.76463E+04
 -2.26422E+04  1.25442E+04 -1.99198E+04 -5.03428E+03  6.09007E+03 -7.21981E+03  2.24655E+04  1.18024E+04
  6.43265E+03  3.50420E+04 -3.35205E+04  3.50606E+04 -6.40059E+04  2.86838E+03 -5.74291E+04 -4.38350E+04
 -1.30933E+04 -6.47685E+04  4.08680E+04 -4.53278E+04  5.95826E+04 -8.42030E+02  3.58539E+04  3.43528E+04
 -4.92848E+03  3.66700E+04 -2.95183E+04  1.80034E+04 -3.22073E+04 -4.40574E+03 -1.74627E+04 -1.12790E+04
 -9.20254E+03 -1.44589E+04 -2.72900E+03 -1.99507E+04  8.40039E+03 -2.26652E+04  1.47875E+04 -1.31656E+04
  1.27541E+04  6.31048E+03 -8.83418E+03  1.16630E+04 -2.19946E+04 -5.46163E+03 -8.48592E+03 -3.57126E+04
  2.35791E+04 -4.61144E+04  5.03779E+04 -1.87539E+04  4.67866E+04  2.09311E+04  1.56750E+04  4.57088E+04
 -1.69511E+04  3.48535E+04 -2.61046E+04  1.80880E+03 -1.12337E+04 -2.75536E+04  2.00321E+04 -3.56221E+04
  4.34682E+04 -1.09316E+04  3.68035E+04  2.43919E+04  1.97480E+04  4.73452E+04 -7.65118E+03  5.14797E+04
 -3.39225E+04  3.58459E+04 -4.59896E+04  9.48986E+03 -4.58653E+04 -1.68531E+04 -2.43588E+04 -3.80356E+04
  7.22491E+03 -3.89262E+04  3.12713E+04 -1.67156E+04  3.05245E+04  1.04620E+04  4.95345E+03  1.98750E+04
 -1.40410E+04  8.24283E+03 -1.20139E+04 -8.44791E+03  6.34462E+03 -1.22436E+04  1.91552E+04  6.60449E+03
  1.34319E+04  2.38870E+04 -5.19017E+03  2.46771E+04 -2.34553E+04  1.24318E+04 -2.85559E+04 -4.35062E+03
 -2.30551E+04 -1.79251E+04 -9.45772E+03 -2.12616E+04  3.06406E+03 -2.19461E+04  1.62695E+04 -1.98230E+04
  2.84125E+04 -1.18797E+04  3.34574E+04  5.00864E+03  2.60947E+04  2.22220E+04  3.93048E+03  3.83090E+04
 -1.82790E+04  3.34940E+04 -2.86217E+04  1.15508E+04 -2.13942E+04 -8.85397E+03 -5.48143E+03 -1.33843E+04
  1.15768E+03 -2.39567E+03 -4.96601E+03  7.43166E+03 -1.74880E+04  5.40651E+03 -1.81586E+04 -7.96291E+03
 -1.09877E+04 -2.01559E+04  6.21764E+03 -2.43377E+04  1.66718E+04 -1.74971E+04  1.99325E+04 -1.43988E+03
  1.18657E+04  1.43421E+04 -2.58311E+03  2.04736E+04 -1.36366E+04  1.22936E+04 -2.18990E+04 -5.28742E+03
 -1.45468E+04 -2.02557E+04 -2.37182E+03 -2.40910E+04  1.00069E+04 -1.98072E+04  2.05872E+04 -1.01937E+04
  1.92513E+04  1.62779E+02  1.32922E+04  5.66452E+03  6.41062E+03  1.12791E+03  9.65548E+03 -1.46245E+03
  2.02912E+04  3.80928E+03  2.10329E+04  1.59406E+04  1.42042E+04  3.26801E+04 -3.25406E+03  3.72250E+04
 -2.03364E+04  2.98652E+04 -3.54767E+04  1.49320E+04 -3.67033E+04 -3.67454E+03 -3.02778E+04 -2.04747E+04
 -1.26672E+04 -3.08049E+04  1.16666E+04 -2.76614E+04  2.27167E+04 -1.46913E+04  2.17497E+04  6.55190E+03
  6.95005E+03  1.49076E+04 -1.00337E+04  1.39964E+04 -1.82929E+04  3.29290E+03 -1.38736E+04 -1.01652E+04
 -1.23434E+03 -1.70788E+04  8.77249E+03 -1.18951E+04  1.21414E+04 -1.02970E+03  2.78837E+03  7.34946E+03
 -6.87256E+03  2.61665E+03 -6.47198E+03 -5.58214E+03 -7.15831E+01 -1.45557E+04  1.02554E+04 -1.60041E+04
  1.72417E+04 -8.76744E+03  2.08584E+04  2.31586E+03  1.82027E+04  1.32373E+04  7.43350E+03  2.26116E+04
 -4.22788E+03  2.48093E+04 -1.50077E+04  1.52112E+04 -1.80499E+04  3.41752E+03 -1.29352E+04 -4.10239E+03
 -6.27566E+03 -5.46620E+03 -6.07128E+02  8.05325E+02 -1.97658E+03  2.27975E+03 -5.02181E+03  5.30225E+03
 -1.24165E+04 -9.71701E+02 -1.14204E+04 -9.90655E+03 -5.45079E+03 -1.66262E+04  4.79043E+03 -1.19803E+04
  9.95243E+03 -5.17934E+03  8.68328E+03  3.31438E+03 -8.95524E+02  5.59693E+03 -7.27289E+03 -1.13630E+02
 -6.17943E+03 -8.10112E+03  7.59638E+02 -1.16954E+04  6.63309E+03 -1.31965E+04  1.72296E+04 -6.07142E+03
  1.69931E+04  1.27409E+03  1.32218E+04  9.32739E+03  2.95144E+03  1.53013E+04 -7.73686E+03  1.23597E+04
 -1.06119E+04  3.92742E+03 -4.90054E+03 -2.44996E+03  1.78846E+03 -2.57042E+03  7.53848E+03 -2.94912E+02
  6.47650E+03  5.63660E+03  9.10768E+02  8.86552E+03 -6.33322E+03  9.72278E+03 -1.16460E+04  8.69056E+02
 -8.24286E+03 -6.50711E+03 -5.08560E+01 -1.06688E+04  5.74644E+03 -5.76446E+03  8.06170E+03  1.56024E+03
  1.85399E+03  6.14727E+03 -6.56357E+03  8.55104E+03 -9.54986E+03  4.02200E+03 -9.15753E+03 -3.14414E+03
 -4.52711E+03 -1.13238E+04  3.61049E+03 -1.28004E+04  1.27084E+04 -8.22630E+03  1.29941E+04  2.88808E+03
  7.54773E+03  9.71945E+03 -8.14060E+01  1.19611E+04 -8.56343E+03  7.34883E+03 -1.08881E+04 -9.96541E+02
 -8.99889E+03 -7.26719E+03 -1.28300E+03 -9.22277E+03  4.27079E+03 -7.12629E+03  5.39818E+03 -3.91661E+03
  3.77258E+03  7.28990E+02 -4.71320E+02  1.32819E+03  6.94748E+01 -1.64227E+03  2.19687E+03 -4.81193E+03
  8.78152E+03 -2.34072E+03  1.01656E+04  1.54066E+03  1.22762E+04  6.55691E+03  7.60381E+03  1.58447E+04
 -3.56436E+03  1.73399E+04 -1.43910E+04  1.15419E+04 -1.86855E+04  1.93211E+03 -1.48891E+04 -5.65249E+03
 -7.65845E+03 -1.27849E+04 -1.45353E+03 -1.03460E+04  3.44569E+03 -5.18719E+03  2.99347E+03 -4.78250E+03
  3.43101E+03 -2.85241E+03  3.66853E+03 -2.63115E+03  5.64986E+03 -2.39676E+03  5.35190E+03 -1.51410E+03
  8.10582E+03  1.95149E+03  4.30708E+03  7.19729E+03 -2.55815E+03  8.11407E+03 -7.04335E+03  5.20552E+03
 -9.51632E+03 -7.36120E+02 -5.21226E+03 -7.11116E+03 -1.70340E+03 -1.02325E+04  5.61440E+03 -1.11188E+04
  1.04520E+04 -6.44147E+03  1.34537E+04  1.59636E+03  8.00934E+03  8.83572E+03  4.12175E+02  1.26975E+04
 -5.65299E+03  1.09603E+04 -7.32975E+03  4.51494E+03 -3.84797E+03 -1.34856E+03 -1.72442E+03 -9.45537E+01
 -2.73115E+02  9.71350E+02 -6.53074E+02  2.05712E+03 -5.52922E+03  1.40817E+03 -6.43775E+03 -1.65892E+03
 -4.96785E+03 -7.17794E+03  5.62469E+02 -9.09957E+03  6.75032E+03 -9.28992E+03  8.57080E+03 -3.79873E+03
  8.34584E+03  4.32608E+03  5.18267E+03  8.52407E+03 -2.80431E+03  9.46458E+03 -5.92589E+03  6.46442E+03
 -8.56850E+03  6.92374E+01 -6.53211E+03 -5.41738E+03 -7.44808E+02 -7.52612E+03  3.65801E+03 -4.20470E+03
  5.52858E+03 -2.20730E+03  4.65592E+03  1.49465E+03  1.79099E+03  2.81948E+03  6.55533E+02  1.87997E+03
  1.94957E+03  7.41830E+02  2.31537E+03  2.48125E+03  2.87361E+03  4.34842E+03  2.62662E+03  6.17758E+03
 -1.02041E+03  7.18139E+03 -5.72771E+03  7.18005E+03 -8.26065E+03  2.57946E+03 -9.74650E+03 -3.36843E+03
 -4.12882E+03 -8.80246E+03  1.43941E+03 -8.72697E+03  4.43992E+03 -5.80054E+03  7.08972E+03 -2.30586E+03
  7.53699E+03  3.21028E+03  6.78416E+02  4.33110E+03 -2.67998E+03  3.22302E+03 -4.45742E+03  1.41166E+02
 -1.36416E+03 -3.32340E+03  2.20211E+03 -3.65342E+03  4.24684E+03 -2.16181E+03  3.06789E+03  1.35981E+03
  1.79161E+03  1.92523E+03  7.47977E+02  3.35296E+02 -1.51888E+03  1.29809E+03  2.62975E+02  2.32646E+02
  9.43959E+02 -9.57712E+02  3.52342E+03  1.11632E+03  2.15928E+03  4.27985E+03 -5.35359E+02  5.28911E+03
 -3.95097E+03  4.73686E+03 -5.41107E+03  1.33417E+03 -4.58388E+03 -1.71649E+03 -1.70303E+03 -2.67406E+03
  4.03700E+02 -3.68772E+03  2.15659E+03 -1.04981E+03  3.27751E+03  1.97758E+03  1.34316E+02  1.90014E+03
 -4.31716E+03  5.34788E+02 -3.90577E+03 -2.56153E+03 -1.48336E+03 -4.89308E+03  1.12855E+03 -5.09889E+03
  3.27108E+03 -3.53370E+03  3.40365E+03 -6.31389E+02  3.76257E+03  1.15190E+03  1.35557E+03  2.95276E+03
 -8.86846E+02  1.91086E+03 -1.15978E+03 -1.74987E+03  7.58087E+02 -3.52575E+03  5.40806E+03 -2.47904E+03
  5.74720E+03  1.14978E+03  4.92598E+03  3.17686E+03  2.74121E+03  5.23076E+03 -1.91178E+03  5.32089E+03
 -4.58601E+03  1.79988E+03 -5.16472E+03  4.16529E+01 -2.12055E+03 -3.72074E+03  6.04480E+02 -3.42734E+03
  3.22058E+03 -1.53648E+03  3.14668E+03  3.68119E+02  2.49711E+02  3.04688E+03 -1.07660E+02  3.56204E+03
 -6.56709E+02  2.02624E+03 -1.00792E+03  1.72275E+03 -1.12523E+03  2.29393E+03 -7.38370E+02  6.61131E+02
 -7.85247E+02  1.15744E+03 -3.53605E+03  1.92512E+03 -4.64533E+03 -9.84600E+02 -6.14409E+03 -2.60944E+03
 -3.50223E+03 -7.14846E+03  1.44662E+03 -7.35905E+03  5.01823E+03 -7.43311E+03  8.36618E+03 -1.94248E+03
  7.50783E+03  9.57224E+02  3.10626E+03  4.53887E+03 -9.91595E+02  4.41416E+03 -1.57268E+03  3.19168E+03
 -3.22755E+03  5.47855E+02 -1.06495E+03 -9.25124E+02 -1.18753E+03 -1.86671E+03 -1.54661E+01  3.14794E+02
 -5.02914E+02 -3.22515E+02 -2.33818E+03 -8.43017E+02 -6.46408E+02 -1.15194E+03 -4.86802E+02 -2.57133E+03
  1.71415E+03 -1.54177E+03  2.56222E+03 -2.63374E+01  2.85523E+03  2.04509E+03  9.26606E+02  4.20453E+03
 -2.74328E+03  4.79736E+03 -3.67292E+03  3.81112E+03 -6.64591E+03  6.25224E+02 -3.11431E+03 -3.89630E+03
 -3.01165E+03 -4.22524E+03  1.22162E+03 -4.95929E+03  3.10865E+03 -3.25278E+03  2.66223E+03  1.92641E+03
  2.55829E+03  2.43318E+03 -5.32889E+01  1.44885E+03  1.04362E+02  1.59743E+02  9.15524E+01 -2.82238E+02
  1.78567E+03 -6.00063E+02  1.59758E+03  7.52532E+02  2.40810E+03  2.68162E+03  3.19597E+02  1.51382E+03
 -1.80757E+03  2.33993E+03 -2.53074E+03  1.12990E+02 -2.25173E+03 -1.93239E+03  9.41532E+02 -2.72110E+03
  2.97779E+03 -4.52593E+03  2.97805E+03 -6.80448E+02  5.69101E+03 -8.29465E+01  1.58571E+03  2.13156E+03
  1.32456E+02  2.83681E+03 -1.16743E+03  1.00906E+03 -3.30404E+03  2.48850E+03 -2.08175E+03  1.49978E+03
 -1.19819E+03  2.44569E+02 -3.29490E+03  4.89787E+02 -1.82078E+03  1.22618E+03 -9.98334E+02  1.21317E+02
 -1.65316E+03 -4.61914E+02 -6.74394E+02 -3.31419E+03  1.99285E+03 -1.81559E+03  2.98956E+03 -1.37777E+03
  2.81405E+03  1.19153E+03  1.40772E+03  1.72239E+03 -6.41945E+02  3.23827E+03 -3.30994E+03  2.50868E+03
