 $NMID ID='MM_0lb_SNR200_16hz_g60_40.RAW', FMTDAT='(8E13.5)'
 TRAMP=1., VOLUME=1. $END
  3.09074E+05  4.35584E+02  3.37525E+05  2.51425E+05  8.44305E+04  3.36200E+05 -1.32193E+05  2.51051E+05
 -1.91432E+05  8.39300E+04 -1.12251E+05 -3.25378E+04  4.72052E+02 -5.15477E+04  5.25011E+04 -8.40410E+02
  3.48758E+04  5.20332E+04 -1.75762E+04  7.50334E+04 -6.11373E+04  6.39376E+04 -8.39195E+04  3.23498E+04
 -8.17247E+04 -1.04945E+04 -5.67885E+04 -5.17390E+04 -1.56793E+04 -6.89950E+04  2.65596E+04 -4.60587E+04
  4.02815E+04  2.92478E+03  1.66090E+04  4.75844E+04 -3.37420E+04  4.60113E+04 -6.70858E+04 -1.89272E+02
 -5.32444E+04 -5.72109E+04 -7.90442E+03 -7.85045E+04  3.49622E+04 -5.47124E+04  4.82429E+04 -1.64822E+04
  4.46699E+04  1.11461E+04  3.24967E+04  2.47447E+04  1.42396E+04  3.05592E+04 -5.31389E+03  2.78828E+04
 -2.32963E+04  1.26211E+04 -1.87450E+04 -4.74066E+03  4.39318E+03 -7.06170E+03  2.21273E+04  1.30477E+04
  7.38943E+03  3.34493E+04 -3.27872E+04  3.63980E+04 -6.41135E+04  1.96509E+03 -5.78294E+04 -4.30207E+04
 -1.23200E+04 -6.42653E+04  4.03920E+04 -4.49561E+04  5.83005E+04 -2.04098E+03  3.42944E+04  3.18991E+04
 -5.83674E+03  3.53146E+04 -3.02756E+04  1.69240E+04 -2.97268E+04 -4.77046E+03 -1.75563E+04 -9.59537E+03
 -7.96350E+03 -1.36640E+04 -4.28097E+02 -1.74158E+04  7.11262E+03 -2.35431E+04  1.67171E+04 -1.36886E+04
  1.13195E+04  4.45353E+03 -8.18874E+03  1.31134E+04 -2.10692E+04 -4.07631E+03 -7.81810E+03 -3.41010E+04
  2.22119E+04 -4.43056E+04  4.79255E+04 -1.88338E+04  4.55924E+04  1.95947E+04  1.61566E+04  4.47803E+04
 -1.55573E+04  3.39364E+04 -2.47241E+04  9.18515E+02 -1.05620E+04 -2.70891E+04  2.07204E+04 -3.37377E+04
  4.10177E+04 -9.43172E+03  3.56855E+04  2.35772E+04  1.82427E+04  4.69296E+04 -7.72755E+03  5.01358E+04
 -3.12299E+04  3.43185E+04 -4.25887E+04  8.78353E+03 -4.34356E+04 -1.73271E+04 -2.34175E+04 -3.69984E+04
  6.77424E+03 -3.78599E+04  3.16450E+04 -1.42777E+04  2.89488E+04  1.07173E+04  2.90142E+03  1.97827E+04
 -1.40931E+04  8.83432E+03 -1.07156E+04 -7.69086E+03  5.40349E+03 -1.02169E+04  1.85218E+04  5.73158E+03
  1.33828E+04  2.16595E+04 -6.62693E+03  2.46448E+04 -2.31654E+04  1.15929E+04 -2.78780E+04 -4.49207E+03
 -2.03656E+04 -1.82562E+04 -8.57976E+03 -2.03745E+04  3.14130E+03 -1.97492E+04  1.58952E+04 -1.85182E+04
  2.62079E+04 -1.29494E+04  3.21739E+04  2.12517E+03  2.26613E+04  1.92432E+04  4.49296E+03  3.49729E+04
 -1.71368E+04  2.91556E+04 -2.67707E+04  9.87291E+03 -1.97580E+04 -1.04095E+04 -3.44958E+03 -1.40064E+04
  2.07692E+03 -2.66178E+03 -4.50317E+03  6.81850E+03 -1.67228E+04  5.81434E+03 -1.54238E+04 -5.99462E+03
 -9.97665E+03 -1.86390E+04  5.98150E+03 -2.29377E+04  1.53920E+04 -1.60327E+04  1.76098E+04 -1.19577E+03
  1.04675E+04  1.39229E+04 -6.00266E+02  1.83824E+04 -1.31097E+04  1.02528E+04 -1.84633E+04 -5.05798E+03
 -1.34225E+04 -1.89583E+04 -1.68233E+03 -2.26599E+04  9.65064E+03 -1.88041E+04  1.97600E+04 -8.57829E+03
  1.73930E+04  1.19261E+03  1.18092E+04  3.94297E+03  5.15598E+03  7.93799E+02  9.50900E+03 -1.29060E+03
  1.76487E+04  3.26806E+03  1.75791E+04  1.55302E+04  1.11736E+04  3.08286E+04 -2.22817E+03  3.35623E+04
 -1.86602E+04  2.70858E+04 -3.13405E+04  1.32629E+04 -3.17434E+04 -1.19818E+03 -2.76083E+04 -1.72371E+04
 -1.21670E+04 -2.65457E+04  9.61464E+03 -2.50620E+04  2.01321E+04 -1.36880E+04  1.88435E+04  5.10546E+03
  7.10942E+03  1.45737E+04 -9.25296E+03  1.08214E+04 -1.55239E+04  2.46639E+03 -1.18443E+04 -9.54292E+03
 -2.54240E+02 -1.50423E+04  8.31242E+03 -1.14111E+04  9.88340E+03 -1.96418E+03  2.06088E+03  5.62482E+03
 -5.81242E+03  2.84027E+03 -4.95593E+03 -5.05782E+03 -1.97728E+02 -1.36677E+04  8.58160E+03 -1.39848E+04
  1.56802E+04 -7.17390E+03  1.70338E+04  2.67613E+03  1.37400E+04  1.26092E+04  7.17093E+03  1.95726E+04
 -3.35301E+03  2.05486E+04 -1.24409E+04  1.26524E+04 -1.47779E+04  3.79204E+03 -1.12308E+04 -2.61053E+03
 -4.19637E+03 -4.66221E+03 -7.11754E+02  3.63802E+02 -1.33228E+03  2.63883E+03 -4.24861E+03  4.24086E+03
 -9.84078E+03 -7.01240E+02 -1.06751E+04 -8.31331E+03 -4.88853E+03 -1.33224E+04  5.97040E+03 -1.21685E+04
  8.75849E+03 -4.27799E+03  5.83683E+03  2.22489E+03  1.59594E+02  3.78131E+03 -4.75064E+03  3.89305E+02
 -4.15590E+03 -6.59097E+03 -8.46149E+02 -9.73499E+03  6.04028E+03 -9.66428E+03  1.36419E+04 -5.98518E+03
  1.48984E+04  9.07355E+02  1.19244E+04  7.91283E+03  2.44603E+03  1.31150E+04 -7.45195E+03  1.19442E+04
 -8.29501E+03  3.15814E+03 -3.86866E+03 -1.97847E+03  7.33212E+02 -2.66740E+03  6.81126E+03 -1.47498E+03
  5.73576E+03  4.39778E+03  5.70047E+02  8.69217E+03 -5.26212E+03  8.38751E+03 -1.06132E+04  2.23935E+03
 -6.00591E+03 -6.01123E+03 -2.78159E+02 -8.42835E+03  4.98900E+03 -4.31171E+03  5.27660E+03  1.56597E+03
  1.07709E+03  5.38053E+03 -4.73490E+03  6.75862E+03 -7.87893E+03  2.26508E+03 -6.24919E+03 -3.46777E+03
 -5.50390E+03 -8.20272E+03  1.47032E+03 -9.76323E+03  9.68065E+03 -7.40813E+03  9.16050E+03  9.06360E+02
  6.19396E+03  7.95017E+03 -5.93132E+02  9.74659E+03 -6.88630E+03  5.55763E+03 -6.53490E+03 -1.22696E+03
 -7.47378E+03 -6.47246E+03 -1.79339E+03 -6.90259E+03  3.78937E+03 -5.49455E+03  4.54293E+03 -3.50802E+03
  2.93648E+03  1.73543E+03 -1.03230E+02  1.71757E+03 -8.75471E+01 -6.18881E+02  7.59903E+02 -3.62467E+03
  6.05049E+03 -3.00495E+03  8.00937E+03  1.06230E+03  8.89548E+03  5.30504E+03  6.58015E+03  1.02087E+04
 -2.58144E+03  1.18486E+04 -1.10178E+04  9.88865E+03 -1.49030E+04  1.68330E+03 -1.03725E+04 -3.88055E+03
 -6.04022E+03 -7.52548E+03 -4.66187E+02 -6.83111E+03  2.25088E+03 -3.84614E+03  2.65857E+03 -2.50165E+03
  2.29178E+03 -5.74646E+02  2.93970E+03 -2.95656E+03  4.46545E+03 -1.32974E+03  4.33229E+03  6.08389E+02
  6.09751E+03  2.41618E+03  1.47448E+03  5.64964E+03 -2.03470E+03  4.35710E+03 -5.91562E+03  2.91265E+03
 -7.08358E+03 -4.82331E+02 -3.64034E+03 -4.47014E+03  1.71437E+02 -7.95870E+03  5.50365E+03 -8.44702E+03
  7.51961E+03 -4.46487E+03  9.35427E+03  6.51514E+02  6.82049E+03  6.75583E+03  9.76559E+02  8.79465E+03
 -2.51007E+03  7.09360E+03 -4.23466E+03  1.84450E+03 -2.32596E+03 -9.35050E+02 -3.98347E+02 -1.09764E+03
 -1.12723E+01 -1.63594E+02 -1.43360E+03  2.06950E+03 -2.40557E+03  8.90948E+02 -6.12871E+03 -2.00345E+03
 -3.37565E+03 -5.46151E+03  5.76428E+02 -5.24427E+03  4.55985E+03 -6.25238E+03  6.63602E+03 -3.17821E+03
  5.79777E+03  3.64142E+03  3.19119E+03  5.20249E+03 -6.28172E+02  7.59325E+03 -4.10301E+03  1.59332E+03
 -5.35796E+03  1.15572E+03 -5.00038E+03 -4.56365E+03 -5.09716E+02 -4.91118E+03  2.78992E+03 -3.99655E+03
  2.80968E+03 -5.14590E+01  2.57679E+03  2.00802E+03  5.10852E+02  2.22092E+03  1.42348E+03  7.63477E+01
  2.95048E+03  6.01709E+02  2.29170E+03  1.21566E+03  3.15440E+02  3.43471E+03  9.80934E+02  2.71707E+03
 -2.09246E+03  4.33468E+03 -2.83063E+03  6.82869E+03 -6.97745E+03  2.90178E+03 -5.89453E+03 -1.13213E+03
 -2.49464E+03 -6.21932E+03  1.36558E+03 -7.78433E+03  3.20993E+03 -4.96562E+03  4.74236E+03 -3.03687E+02
  4.62180E+03  2.95250E+03  4.45382E+02  3.48720E+03 -1.32719E+03  1.76081E+03 -1.61470E+03 -1.71279E+02
 -1.32108E+03 -2.62344E+03  1.96328E+03 -1.95228E+03  2.26367E+03 -1.84133E+03  1.88147E+03  3.22982E+02
  1.52471E+03  1.20582E+03  9.24389E+02  9.93710E+02 -1.94013E+02  1.14194E+03  7.54987E+02 -7.25098E+02
  1.13271E+03  4.95219E+02  3.48678E+03  8.90071E+02  6.35065E+02  3.13584E+03 -1.26976E+03  3.97829E+03
 -3.47510E+03  1.80936E+03 -4.57725E+03  6.58181E+02 -2.94047E+03 -9.34510E+02 -5.86896E+02 -1.46621E+03
 -3.68839E+02 -2.86061E+03  4.75992E+02 -1.26878E+03  3.14472E+02  7.07229E+02 -4.12743E+02  1.91504E+03
 -2.67342E+03  6.95935E+02 -2.52246E+03 -2.70909E+03 -3.46995E+02 -2.58662E+03 -5.62782E+02 -1.69862E+03
  1.12578E+03 -1.03620E+03  7.57740E+02  7.86275E+02  7.12429E+02  6.66404E+02  5.61903E+01  2.06150E+03
  3.01964E+02  7.90904E+02 -2.20559E+03 -5.96313E+02  3.32107E+02 -1.50221E+03  2.21059E+03 -6.35109E+02
  1.04980E+03  3.62125E+02  2.56820E+03  1.96841E+03  4.55592E+02  3.65870E+03 -1.35962E+03  4.19420E+03
 -2.51224E+03  8.49237E+02 -3.08908E+03 -1.36911E+03 -2.51786E+02 -2.32758E+03  1.69669E+02 -1.91213E+03
  1.64096E+03 -1.57351E+03  1.63621E+03  1.30386E+03  3.38254E+02  1.49656E+03  1.34881E+02  1.49034E+03
 -1.38470E+02  6.65628E+02 -1.08801E+03 -1.09804E+02 -2.68627E+02  1.07140E+03 -5.05916E+02  1.31639E+03
 -7.94293E+01  5.19415E+02 -1.63039E+03  3.81631E+02 -3.40864E+03 -8.85847E+01 -1.96794E+03 -1.57754E+03
 -1.27705E+03 -3.98344E+03  1.78619E+03 -4.51345E+03  1.62535E+03 -3.86653E+03  4.57716E+03 -1.93809E+03
  3.86985E+03 -4.13017E+02  1.93224E+03  1.84069E+03 -4.61744E+02  3.27082E+03 -1.79855E+03  1.77797E+03
 -1.65641E+03  6.22673E+02 -1.37371E+03 -9.41973E+02 -1.41781E+02 -7.78222E+02 -5.36869E+02  1.25258E+03
 -1.21423E+03 -5.09587E+02 -1.63798E+03  5.05739E+02  1.34019E+03 -2.04385E+03 -5.43010E+00 -1.98748E+03
  1.66794E+03 -1.75491E+03  9.59610E+02 -2.86682E+02  1.73564E+03  1.71061E+03  3.33293E+02  2.65785E+03
 -6.76225E+02  3.90177E+03 -1.90252E+03  1.43041E+03 -2.80188E+03 -1.51682E+03 -3.21706E+03 -2.53897E+03
 -1.61975E+03 -1.86652E+03  1.03172E+03 -2.21128E+03  5.89396E+02 -9.66854E+02  2.10414E+03 -2.12845E+03
  6.28529E+02  1.75109E+02 -1.85394E+03  1.47082E+03 -1.71230E+03 -1.57509E+02 -4.97686E+02 -1.08328E+03
  1.24669E+03  3.35062E+02  3.39019E+01  1.15495E+03  9.44247E+02  9.21261E+02 -4.75298E+02  1.81790E+03
 -1.06009E+03  1.63726E+03 -2.09379E+03  1.66675E+03 -1.26895E+03 -6.12013E+02 -5.08187E+02 -1.40979E+03
  9.37595E+02 -2.40645E+03  2.30417E+03  6.61797E+02  2.18685E+03 -2.08034E+02  2.50529E+03  3.31789E+02
  8.13876E+01  1.71728E+03 -5.85490E+02  6.21375E+02 -1.82437E+03  1.61388E+03 -3.93973E+02 -4.32172E+02
 -3.33858E+02 -1.30738E+03 -5.09902E+02  3.18486E+01 -1.01338E+03 -1.97430E+02 -1.49464E+03 -6.91699E+02
 -2.93417E+03 -4.11631E+02 -3.32905E+02 -9.71850E+02  6.52937E+02 -1.51500E+03  1.22085E+03 -1.89671E+03
  1.28197E+03  5.34372E+02  1.35090E+02  1.61282E+03 -1.03215E+03  1.97009E+03 -1.58680E+03  1.94019E+03
