 $NMID ID='MM_0lb_SNR200_9hz_g60_63.RAW', FMTDAT='(8E13.5)'
 TRAMP=1., VOLUME=1. $END
  3.08656E+05 -1.50156E+03  3.37940E+05  2.51241E+05  8.44401E+04  3.37541E+05 -1.33526E+05  2.51964E+05
 -1.90513E+05  8.39047E+04 -1.11985E+05 -3.16068E+04  1.10008E+03 -5.09261E+04  5.44074E+04  9.62055E+02
  3.58975E+04  5.21690E+04 -1.67030E+04  7.69396E+04 -6.21939E+04  6.46516E+04 -8.43437E+04  3.18193E+04
 -8.39810E+04 -1.17255E+04 -5.89510E+04 -5.31295E+04 -1.30556E+04 -7.07493E+04  2.79079E+04 -4.61060E+04
  4.12418E+04  4.02427E+03  1.64812E+04  4.84120E+04 -3.47237E+04  4.77849E+04 -6.91034E+04  1.11621E+03
 -5.55603E+04 -5.72199E+04 -7.98328E+03 -7.91960E+04  3.52925E+04 -5.81859E+04  4.90509E+04 -1.85277E+04
  4.57419E+04  1.10818E+04  3.27043E+04  2.51954E+04  1.45089E+04  3.22111E+04 -5.28352E+03  2.69669E+04
 -2.20125E+04  1.17094E+04 -1.82525E+04 -5.47746E+03  7.55965E+03 -9.45482E+03  2.30367E+04  1.38978E+04
  7.69257E+03  3.74362E+04 -3.45808E+04  3.72076E+04 -6.75940E+04  1.79945E+03 -6.10826E+04 -4.41950E+04
 -1.19753E+04 -6.87861E+04  4.27107E+04 -4.80510E+04  6.31324E+04 -3.15353E+03  3.68128E+04  3.39427E+04
 -5.07145E+03  3.90524E+04 -3.21880E+04  1.83480E+04 -3.40921E+04 -2.86790E+03 -1.92964E+04 -1.28402E+04
 -8.82790E+03 -1.60366E+04  5.49760E+02 -2.08607E+04  7.97301E+03 -2.35466E+04  1.66227E+04 -1.26266E+04
  9.55436E+03  5.99190E+03 -1.13095E+04  1.11009E+04 -2.34765E+04 -5.70779E+03 -8.89464E+03 -3.72415E+04
  2.66876E+04 -4.84957E+04  5.31088E+04 -2.02683E+04  4.94436E+04  2.17803E+04  1.76766E+04  4.83494E+04
 -1.69418E+04  3.73436E+04 -2.77930E+04  3.18739E+03 -1.18362E+04 -3.02766E+04  2.16218E+04 -3.72509E+04
  4.56951E+04 -9.56428E+03  3.92913E+04  2.41665E+04  2.26787E+04  5.02958E+04 -8.21344E+03  5.66204E+04
 -3.54847E+04  3.82884E+04 -4.96920E+04  1.07433E+04 -4.85464E+04 -2.05724E+04 -2.68484E+04 -4.41662E+04
  7.99933E+03 -4.37073E+04  3.54267E+04 -1.78864E+04  3.27427E+04  1.05205E+04  4.96984E+03  2.25324E+04
 -1.44522E+04  1.05437E+04 -1.21510E+04 -8.70363E+03  4.95379E+03 -1.32090E+04  1.77288E+04  6.34698E+03
  1.45727E+04  2.24630E+04 -5.94726E+03  2.70549E+04 -2.24721E+04  1.61589E+04 -3.15745E+04 -3.85727E+03
 -2.73743E+04 -1.97740E+04 -1.13626E+04 -2.72836E+04  4.26151E+03 -2.76244E+04  1.96350E+04 -2.37951E+04
  3.44263E+04 -1.48092E+04  3.81332E+04  4.41858E+03  2.86379E+04  2.49088E+04  4.06055E+03  4.25092E+04
 -1.92999E+04  3.62810E+04 -3.16834E+04  1.18302E+04 -2.33163E+04 -9.40354E+03 -5.51310E+03 -1.44625E+04
  1.51840E+03 -1.05316E+03 -7.95642E+03  8.79573E+03 -2.05416E+04  4.50922E+03 -2.25716E+04 -1.03125E+04
 -1.20780E+04 -2.43808E+04  5.64307E+03 -2.91035E+04  1.92664E+04 -2.09738E+04  2.31625E+04 -9.76212E+02
  1.58990E+04  1.56950E+04 -2.48956E+03  2.41958E+04 -1.74275E+04  1.41186E+04 -2.57072E+04 -5.16485E+03
 -1.68957E+04 -2.26201E+04 -1.03936E+03 -2.70872E+04  1.30597E+04 -2.26796E+04  2.29520E+04 -1.29839E+04
  2.31134E+04 -5.65243E+01  1.67509E+04  4.89376E+03  9.11656E+03  1.29051E+03  1.27385E+04 -1.87189E+03
  2.58532E+04  1.97028E+03  2.73475E+04  1.88325E+04  1.88827E+04  3.92219E+04 -2.04917E+03  4.73169E+04
 -2.81500E+04  4.01954E+04 -4.33173E+04  1.98683E+04 -4.68265E+04 -4.28806E+03 -3.87877E+04 -2.95720E+04
 -1.39184E+04 -3.91917E+04  1.40957E+04 -3.58047E+04  2.92062E+04 -1.57620E+04  2.43120E+04  8.95024E+03
  7.97735E+03  2.07479E+04 -1.13680E+04  1.69018E+04 -2.13745E+04  3.42570E+03 -1.61543E+04 -1.21534E+04
  3.47130E+01 -1.93454E+04  1.02833E+04 -1.54114E+04  1.55276E+04 -2.41781E+03  2.28324E+03  1.03215E+04
 -9.19390E+03  5.19613E+03 -1.19347E+04 -8.27792E+03 -7.34224E+02 -1.99182E+04  1.27738E+04 -1.89617E+04
  2.47465E+04 -1.33960E+04  2.84244E+04  2.77429E+03  2.42853E+04  2.06451E+04  1.11783E+04  3.12937E+04
 -7.35048E+03  3.21914E+04 -2.17398E+04  2.18473E+04 -2.41939E+04  3.22755E+03 -1.57254E+04 -7.15700E+03
 -6.60930E+03 -7.93675E+03 -1.43079E+03  3.81519E+02 -3.97732E+03  5.14660E+03 -8.69802E+03  6.47033E+03
 -1.56432E+04  1.29292E+03 -1.38072E+04 -1.16006E+04 -5.71056E+03 -1.97953E+04  4.49185E+03 -1.69174E+04
  1.35041E+04 -7.25538E+03  8.81659E+03  4.88229E+03 -6.69016E+02  6.34995E+03 -6.80190E+03 -7.17714E+02
 -7.54691E+03 -1.19234E+04 -2.21037E+03 -1.72529E+04  8.51446E+03 -1.82353E+04  2.07586E+04 -8.70793E+03
  2.63317E+04  2.90264E+03  1.66788E+04  1.57428E+04  3.25397E+03  1.97398E+04 -9.27358E+03  1.60342E+04
 -1.44665E+04  3.39276E+03 -5.75571E+03 -4.12185E+03  2.21765E+03 -4.58602E+03  9.16042E+03 -3.22838E+03
  8.91166E+03  6.26722E+03  2.36241E+02  1.30633E+04 -9.51314E+03  1.23950E+04 -1.57710E+04  2.50910E+03
 -1.21204E+04 -7.94758E+03 -1.77988E+03 -1.50919E+04  1.02263E+04 -5.96787E+03  9.45625E+03  3.30560E+03
  2.60211E+03  1.15993E+04 -7.98907E+03  1.24167E+04 -1.45662E+04  4.33641E+03 -1.54642E+04 -6.09862E+03
 -8.63107E+03 -1.71778E+04  4.66108E+03 -1.81097E+04  1.47517E+04 -9.60673E+03  1.82835E+04  2.43311E+03
  9.61470E+03  1.45007E+04 -3.80998E+03  1.58981E+04 -1.35321E+04  9.76178E+03 -1.38022E+04  4.96462E+02
 -1.30295E+04 -1.07350E+04 -1.87359E+03 -1.33362E+04  6.74814E+03 -1.10728E+04  8.46941E+03 -2.71421E+03
  5.27900E+03  3.11775E+03 -1.39481E+03  1.54654E+03 -3.54152E+02 -3.71110E+03  5.06053E+03 -9.07208E+03
  1.34764E+04 -5.15435E+03  1.80014E+04  2.44789E+03  1.64932E+04  1.22881E+04  1.09506E+04  2.33214E+04
 -4.63171E+03  2.58789E+04 -2.03338E+04  1.85730E+04 -2.82129E+04  3.00269E+03 -2.23083E+04 -9.15703E+03
 -9.34671E+03 -1.86043E+04 -2.17027E+02 -1.61727E+04  5.48504E+03 -1.06351E+04  5.10273E+03 -5.13683E+03
  3.72190E+03 -4.29562E+03  2.22985E+03 -5.10470E+03  6.02715E+03 -3.52998E+03  1.07766E+04  5.16380E+01
  1.23023E+04  1.70477E+03  7.28304E+03  1.04877E+04 -1.91537E+03  1.42788E+04 -1.29867E+04  8.97263E+03
 -1.61094E+04 -2.96070E+03 -1.06661E+04 -1.21156E+04 -1.19763E+03 -1.64280E+04  1.01646E+04 -1.64128E+04
  1.85874E+04 -1.02599E+04  2.21069E+04  3.65311E+03  1.57417E+04  1.39069E+04  2.42272E+03  1.79070E+04
 -7.10174E+03  1.53082E+04 -1.22903E+04  5.18877E+03 -8.00212E+03 -2.30928E+03 -2.56029E+03 -3.31741E+03
 -7.44212E+02 -7.61285E+02 -2.28205E+03  1.59390E+03 -7.43087E+03  1.94154E+03 -1.24320E+04 -1.49591E+03
 -7.97600E+03 -1.25521E+04  5.91596E+02 -1.65315E+04  9.83435E+03 -1.45450E+04  1.78191E+04 -5.48942E+03
  1.43534E+04  8.03158E+03  6.29847E+03  1.49366E+04 -3.29255E+03  1.53596E+04 -1.21945E+04  1.10526E+04
 -1.45772E+04  1.25747E+02 -1.25006E+04 -1.02410E+04 -9.07034E+02 -1.20868E+04  7.09958E+03 -1.02908E+04
  9.86063E+03 -3.16495E+03  7.18501E+03  2.50256E+03  3.06560E+03  5.51647E+03  1.46343E+03  1.94105E+03
  3.12037E+03  2.72045E+03  2.67575E+03  8.58248E+02  4.47491E+03  4.78501E+03  5.52405E+03  7.72860E+03
 -2.66895E+03  1.24649E+04 -1.11201E+04  1.36688E+04 -1.72657E+04  2.89736E+03 -1.66759E+04 -6.54948E+03
 -7.26566E+03 -1.63157E+04  1.51143E+03 -1.62882E+04  1.00059E+04 -1.14649E+04  1.29291E+04 -2.71887E+03
  9.50526E+03  5.57369E+03  2.39613E+03  9.58199E+03 -2.99211E+03  6.70890E+03 -7.68312E+03 -1.10290E+03
 -1.78232E+03 -8.07006E+03  2.67334E+03 -7.16887E+03  6.80238E+03 -3.24619E+03  5.26176E+03  1.39561E+03
  4.37747E+03  4.69773E+03  2.72783E+03  3.20131E+03 -5.97272E+02  1.38189E+03  1.66918E+03 -2.04623E+03
  3.73797E+03  6.01509E+02  6.92009E+03  2.22850E+03  2.08941E+03  9.19365E+03 -2.53043E+03  1.11377E+04
 -8.72548E+03  7.16309E+03 -1.01330E+04  2.23285E+03 -8.41775E+03 -3.76512E+03 -4.44581E+03 -6.02530E+03
  1.75167E+03 -6.42912E+03  4.07538E+03 -5.05165E+03  2.37905E+03  4.43714E+03 -1.43867E+03  4.54796E+03
 -7.54632E+03  4.06165E+03 -7.70323E+03 -5.77058E+03 -4.97690E+03 -9.66177E+03 -4.33993E+01 -8.75307E+03
  5.78599E+03 -4.80392E+03  6.58276E+03 -2.27022E+03  5.19124E+03  1.52671E+03  2.60353E+02  4.05840E+03
 -2.73189E+03  2.20129E+03 -4.38952E+03 -3.17187E+03  1.84312E+03 -6.80259E+03  8.98669E+03 -5.14111E+03
  1.13146E+04  4.70096E+02  9.36864E+03  7.58873E+03  4.88795E+03  1.19471E+04 -6.39401E+03  1.17259E+04
 -9.44947E+03  5.88959E+03 -9.80106E+03 -5.43353E+02 -3.22624E+03 -6.69834E+03  2.53158E+03 -5.90090E+03
  5.51987E+03 -3.19914E+03  4.69013E+03  3.07407E+03  1.65985E+03  8.54194E+03 -1.41356E+03  3.69216E+03
 -3.10837E+03  3.44385E+03 -3.38618E+03  1.60868E+03  9.80120E+02  1.26320E+03 -2.28764E+03  1.37389E+03
 -2.17927E+03  4.45719E+03 -7.14119E+03  3.46516E+03 -1.08837E+04  3.82883E+02 -1.34333E+04 -8.05311E+03
 -6.02277E+03 -1.31156E+04  2.33370E+03 -1.52429E+04  1.10144E+04 -1.28434E+04  1.71473E+04 -6.41906E+03
  1.46055E+04  1.99436E+03  8.40699E+03  1.10793E+04  3.98853E+02  1.08137E+04 -7.21875E+03  9.06143E+03
 -7.05857E+03  4.16790E+03 -3.12147E+03 -2.97833E+03 -4.16027E+02 -5.00171E+02 -1.06609E+03  3.24046E+02
 -1.69712E+03 -1.43961E+02 -2.26055E+03  3.13707E+02 -4.61778E+02 -1.87903E+03 -5.87879E+02 -4.74449E+03
  6.45000E+03 -3.92814E+03  6.86888E+03 -1.28837E+03  8.28580E+03  5.69885E+03  2.14015E+03  1.06358E+04
 -4.98370E+03  1.29103E+04 -1.18655E+04  8.60232E+03 -1.33447E+04 -9.72143E+02 -1.06664E+04 -8.17915E+03
 -4.05677E+03 -1.22820E+04  4.62500E+03 -1.02495E+04  5.85989E+03 -5.90714E+03  6.75597E+03  1.71151E+03
  4.71073E+03  4.58038E+03 -1.39155E+03  4.02786E+03 -2.20736E+03  1.26714E+03 -3.58561E+02 -3.97334E+03
  3.39528E+03 -2.84012E+03  5.45606E+03  8.72763E+02  3.12818E+03  4.17599E+03  2.26921E+02  6.52037E+03
 -6.34555E+03  5.65178E+03 -6.48521E+03  1.15008E+03 -7.09686E+03 -6.86808E+03 -1.92915E+02 -9.87664E+03
  5.68757E+03 -8.57940E+03  8.75189E+03 -2.45259E+03  9.66129E+03  2.58171E+03  5.21385E+03  7.44824E+03
  3.64814E+03  6.99561E+03 -3.45893E+03  6.04603E+03 -2.54804E+03  2.63924E+03 -3.79415E+03 -3.68929E+02
 -1.24280E+03  2.05164E+02 -2.66227E+03  2.80008E+03 -3.37076E+03 -1.86576E+02 -6.06424E+03  1.02899E+03
 -4.11485E+03 -3.31659E+03 -8.45506E+02 -7.98424E+03  3.08537E+03 -8.94782E+03  6.28456E+03 -2.71258E+03
  7.24878E+03  2.59991E+03  2.54308E+03  5.34897E+03 -1.20283E+02  6.47816E+03 -6.32533E+03  6.10588E+03
