 $NMID ID='MM_0lb_SNR200_7hz_g50_54.RAW', FMTDAT='(8E13.5)'
 TRAMP=1., VOLUME=1. $END
  3.08244E+05  2.50308E+03  3.37286E+05  2.50491E+05  8.36962E+04  3.37277E+05 -1.33113E+05  2.52326E+05
 -1.91550E+05  8.49771E+04 -1.10429E+05 -3.08456E+04 -1.08638E+03 -5.02975E+04  5.22915E+04  8.51449E+01
  3.65231E+04  5.29910E+04 -1.59272E+04  7.55772E+04 -6.16853E+04  6.38618E+04 -8.65972E+04  3.09015E+04
 -8.45195E+04 -1.21497E+04 -5.93795E+04 -5.38648E+04 -1.56910E+04 -7.22264E+04  2.91433E+04 -4.79326E+04
  3.96204E+04  2.62036E+03  1.65772E+04  4.93568E+04 -3.42151E+04  4.81546E+04 -6.88818E+04 -2.26533E+03
 -5.37004E+04 -5.71881E+04 -6.73644E+03 -7.96396E+04  3.49968E+04 -5.84490E+04  5.12216E+04 -2.09892E+04
  4.71651E+04  1.21350E+04  3.34639E+04  2.84605E+04  1.58358E+04  3.10874E+04 -5.03362E+03  2.79141E+04
 -2.25399E+04  1.34749E+04 -1.90781E+04 -8.17675E+03  7.20118E+03 -6.85460E+03  2.40800E+04  1.41297E+04
  6.27627E+03  3.86634E+04 -3.39415E+04  3.68741E+04 -6.74650E+04  3.76712E+03 -5.94401E+04 -4.57328E+04
 -1.39641E+04 -6.66149E+04  4.18031E+04 -4.78720E+04  6.23367E+04 -3.65711E+03  3.65402E+04  3.71499E+04
 -5.70484E+03  4.13320E+04 -3.14235E+04  2.08942E+04 -3.36731E+04 -3.05178E+03 -2.01408E+04 -1.20564E+04
 -9.95189E+03 -1.65136E+04 -4.71318E+01 -2.15731E+04  8.60453E+03 -2.44084E+04  1.55023E+04 -1.19070E+04
  8.13050E+03  7.28763E+03 -1.09779E+04  1.32145E+04 -2.33014E+04 -5.19065E+03 -8.59447E+03 -3.81896E+04
  2.57991E+04 -4.81761E+04  5.39719E+04 -2.17098E+04  4.98585E+04  1.97605E+04  1.90793E+04  4.71632E+04
 -1.60325E+04  3.64177E+04 -2.87581E+04  2.95377E+03 -1.26105E+04 -3.21444E+04  2.19864E+04 -4.04414E+04
  4.49943E+04 -1.03650E+04  4.29888E+04  2.56705E+04  1.97728E+04  5.19410E+04 -6.89883E+03  5.85344E+04
 -3.76165E+04  4.05476E+04 -4.99275E+04  1.07538E+04 -5.07324E+04 -1.98441E+04 -2.70162E+04 -4.42796E+04
  7.83249E+03 -4.50926E+04  3.62983E+04 -1.97750E+04  3.31974E+04  1.19214E+04  5.25677E+03  2.18487E+04
 -1.39047E+04  1.04190E+04 -1.00825E+04 -8.06809E+03  6.58875E+03 -1.26185E+04  1.95674E+04  5.72084E+03
  1.67577E+04  2.27290E+04 -3.86601E+03  2.84339E+04 -2.52978E+04  1.75294E+04 -3.29919E+04 -1.66062E+03
 -2.73679E+04 -1.94066E+04 -1.21542E+04 -2.69495E+04  4.42879E+03 -2.90872E+04  2.27047E+04 -2.46951E+04
  3.61418E+04 -1.51216E+04  4.16935E+04  5.51348E+03  2.91917E+04  2.63719E+04  3.79473E+03  4.49233E+04
 -2.05690E+04  3.45238E+04 -3.07271E+04  1.25935E+04 -2.40410E+04 -8.90687E+03 -4.37990E+03 -1.25236E+04
  4.48816E+02  1.76664E+02 -7.86758E+03  6.45681E+03 -2.41323E+04  5.32067E+03 -2.15224E+04 -1.05582E+04
 -1.46777E+04 -2.40456E+04  5.48208E+03 -3.04701E+04  1.87734E+04 -2.30063E+04  2.46284E+04 -1.52313E+03
  1.84804E+04  1.77862E+04 -2.00745E+03  2.35261E+04 -1.81721E+04  1.22536E+04 -2.50352E+04 -4.81004E+03
 -1.80038E+04 -2.14156E+04 -2.29258E+03 -3.02594E+04  1.47037E+04 -2.47517E+04  2.45814E+04 -1.23260E+04
  2.33876E+04 -8.39254E+02  1.63160E+04  6.50050E+03  1.08814E+04  1.09494E+03  1.32482E+04 -3.04060E+03
  2.41737E+04  2.04396E+03  2.75154E+04  1.95169E+04  2.04138E+04  4.12518E+04 -1.63126E+03  4.92817E+04
 -2.78915E+04  4.11248E+04 -4.48467E+04  2.09388E+04 -4.91244E+04 -4.13669E+03 -4.06968E+04 -2.96598E+04
 -1.59991E+04 -4.10078E+04  1.36073E+04 -3.41743E+04  2.79508E+04 -1.73290E+04  2.59827E+04  1.16151E+04
  9.53070E+03  2.02110E+04 -1.25010E+04  1.65850E+04 -2.15979E+04  2.20150E+03 -1.69932E+04 -1.57355E+04
  5.18815E+02 -2.15917E+04  1.07461E+04 -1.41504E+04  1.40295E+04 -1.99553E+03  6.07767E+03  9.97927E+03
 -8.45952E+03  5.37476E+03 -1.11176E+04 -7.44501E+03 -1.86323E+03 -1.93110E+04  1.20845E+04 -2.16014E+04
  2.51266E+04 -1.27162E+04  3.01132E+04  3.61192E+03  2.82435E+04  2.11944E+04  1.18682E+04  3.31066E+04
 -5.32801E+03  3.51228E+04 -2.13624E+04  2.34514E+04 -2.57104E+04  4.01976E+03 -1.72194E+04 -5.79724E+03
 -6.50175E+03 -6.28567E+03  1.80371E+02  3.90284E+02 -1.83415E+02  3.69924E+03 -8.47432E+03  3.40172E+03
 -1.53731E+04 -2.31388E+03 -1.50916E+04 -1.28971E+04 -5.68458E+03 -2.22897E+04  8.35930E+03 -1.93060E+04
  1.36223E+04 -7.22845E+03  9.74658E+03  2.09485E+03 -7.11999E+02  7.32251E+03 -8.80685E+03  1.44864E+03
 -8.65117E+03 -1.10688E+04 -1.83273E+03 -1.90021E+04  1.28835E+04 -1.88400E+04  2.30869E+04 -1.14400E+04
  2.54576E+04  2.97464E+03  1.97411E+04  1.60386E+04  3.70318E+03  2.28728E+04 -1.07880E+04  1.84025E+04
 -1.41683E+04  5.02952E+03 -7.79791E+03 -4.72109E+03  2.50850E+03 -5.45769E+03  1.03205E+04 -2.18360E+03
  7.61053E+03  7.65194E+03  7.33072E+02  1.23085E+04 -1.24593E+04  1.15687E+04 -1.82653E+04  2.46862E+03
 -1.26524E+04 -1.09094E+04  8.88033E+02 -1.43034E+04  1.12720E+04 -8.81822E+03  1.20325E+04  4.01296E+03
  1.47737E+03  1.39168E+04 -9.46550E+03  1.42690E+04 -1.66206E+04  4.02190E+03 -1.82232E+04 -6.71603E+03
 -9.23930E+03 -1.94406E+04  5.11462E+03 -2.01030E+04  1.93016E+04 -1.43943E+04  1.96960E+04  3.94173E+03
  1.22607E+04  1.47725E+04 -3.18447E+03  2.02141E+04 -1.39030E+04  1.06574E+04 -1.43386E+04 -1.48031E+03
 -1.12508E+04 -1.09430E+04 -2.33874E+03 -1.39671E+04  8.38605E+03 -1.22398E+04  7.57069E+03 -4.50608E+03
  8.83332E+03  2.00391E+03 -3.90145E+03  2.85616E+03 -1.60571E+03 -4.63305E+03  4.03950E+03 -7.98837E+03
  1.39624E+04 -7.22701E+03  1.82280E+04  5.05154E+03  1.68569E+04  1.21441E+04  1.14586E+04  2.46157E+04
 -6.19216E+03  2.83603E+04 -2.23676E+04  2.10421E+04 -3.08613E+04  2.47365E+03 -2.38965E+04 -1.24924E+04
 -1.28990E+04 -1.76257E+04 -8.51922E+02 -1.74368E+04  7.50366E+03 -9.56832E+03  3.55804E+03 -6.21991E+03
  3.19726E+03 -3.89244E+03  3.92295E+03 -4.06153E+03  6.32942E+03 -4.30545E+03  9.06420E+03  4.05332E+02
  1.25768E+04  3.64682E+03  6.75871E+03  1.28561E+04 -3.50625E+03  1.52954E+04 -1.45297E+04  1.04772E+04
 -1.90678E+04 -1.51338E+03 -1.15841E+04 -1.27841E+04 -1.53310E+03 -1.87298E+04  1.03341E+04 -1.78603E+04
  1.99156E+04 -1.08482E+04  2.33892E+04  3.58497E+03  1.45415E+04  1.69737E+04  1.30833E+03  2.10273E+04
 -9.97337E+03  1.82488E+04 -1.32545E+04  5.11765E+03 -8.58701E+03 -2.68361E+03 -4.78224E+03 -7.85401E+02
 -1.96548E+03 -3.64809E+02 -1.73710E+03  2.41836E+03 -8.22905E+03  3.01839E+03 -1.26267E+04 -2.46374E+02
 -7.57191E+03 -1.44556E+04  1.01951E+03 -1.81961E+04  1.28153E+04 -1.62200E+04  1.76214E+04 -5.54936E+03
  1.70830E+04  1.02160E+04  1.01848E+04  1.76828E+04 -3.30691E+03  1.80901E+04 -1.17567E+04  1.25638E+04
 -1.94073E+04 -1.05753E+03 -1.45196E+04 -1.16748E+04 -8.69686E+02 -1.52510E+04  7.86103E+03 -1.17138E+04
  1.14232E+04 -3.06213E+03  7.69649E+03  1.69684E+03  2.69663E+03  5.84328E+03  1.58032E+03  1.45630E+03
  4.20177E+03  6.17232E+02  3.56062E+03  3.29300E+03  5.08307E+03  7.25066E+03  4.39027E+03  1.13177E+04
 -1.19261E+03  1.51303E+04 -1.39408E+04  1.51595E+04 -1.96538E+04  3.61849E+03 -2.02836E+04 -7.60831E+03
 -9.86543E+03 -1.96945E+04  2.01857E+03 -1.93782E+04  1.11680E+04 -1.46809E+04  1.62317E+04 -4.98199E+03
  1.38602E+04  3.85681E+03  3.43920E+03  1.23554E+04 -6.31280E+03  6.37739E+03 -8.23353E+03 -7.64875E+02
 -4.57575E+03 -8.85489E+03  3.30838E+03 -7.76731E+03  9.26971E+03 -5.12515E+03  7.96893E+03  3.23118E+03
  5.50717E+03  3.68728E+03 -3.53262E+02  4.31657E+03 -9.09973E+02  2.23896E+03  5.64010E+02 -2.02689E+03
  4.57633E+03 -2.42068E+03  8.63532E+03  2.61610E+03  6.35606E+03  8.59837E+03 -2.84891E+03  1.43286E+04
 -9.41329E+03  5.70039E+03 -1.30988E+04  3.73583E+03 -1.18283E+04 -3.06640E+03 -4.19381E+03 -8.08691E+03
  4.88055E+02 -8.19098E+03  5.85060E+03 -4.51557E+03  5.03769E+03  4.02281E+03 -2.61573E+03  7.91928E+03
 -9.26498E+03  4.51439E+03 -1.01357E+04 -4.96459E+03 -5.65708E+03 -1.15817E+04  1.36593E+03 -1.20768E+04
  8.51505E+03 -7.72283E+03  6.89642E+03 -2.24705E+03  6.33103E+03  6.54119E+03  8.44379E+02  4.79985E+03
 -7.03774E+03  1.62440E+03 -5.30862E+03 -5.20657E+03  2.31920E+03 -7.58553E+03  9.25315E+03 -6.76664E+03
  1.40151E+04 -1.33186E+02  1.37151E+04  8.06786E+03  5.26891E+03  1.35632E+04 -6.03499E+03  1.34237E+04
 -1.14827E+04  5.38815E+03 -1.20180E+04 -2.29777E+03 -7.02184E+03 -1.09575E+04  3.39904E+03 -9.89809E+03
  6.87264E+03 -3.75455E+03  6.65896E+03  3.58767E+03  3.07884E+03  7.92269E+03 -2.25616E+03  5.88382E+03
 -4.13546E+03  3.04615E+03 -5.16157E+03  2.02112E+03 -1.69311E+03  1.53125E+03  1.07016E+02  3.51059E+03
 -2.06901E+03  3.79310E+03 -8.18452E+03  5.69314E+03 -1.36891E+04  6.59897E+02 -1.55194E+04 -1.00939E+04
 -8.22031E+03 -1.64924E+04  3.50168E+03 -2.26139E+04  1.47023E+04 -1.85504E+04  2.13926E+04 -6.50059E+03
  1.86509E+04  3.73116E+03  1.04649E+04  1.22481E+04  4.50863E+02  1.48706E+04 -5.57598E+03  9.65045E+03
 -9.12947E+03  4.65252E+03 -4.59816E+03 -2.25345E+03 -2.89538E+03  2.22795E+02 -1.48358E+02  1.91906E+02
 -2.79363E+03 -4.59928E+02 -4.14106E+03 -1.35095E+03 -1.60445E+03 -2.30690E+03  9.40343E+02 -5.79013E+03
  7.92194E+03 -5.58879E+03  1.14044E+04  3.18309E+02  1.07664E+04  7.55147E+03  2.11514E+03  1.35908E+04
 -7.82675E+03  1.76179E+04 -1.44988E+04  1.17640E+04 -1.90734E+04 -4.61290E+02 -1.39391E+04 -1.15894E+04
 -4.44559E+03 -1.48958E+04  4.01135E+03 -1.42839E+04  8.86537E+03 -6.77106E+03  1.19681E+04  1.33206E+03
  5.71034E+03  3.07578E+03 -8.03100E+02  5.08248E+03 -2.22076E+03  4.71337E+02 -2.54640E+02 -2.96443E+03
  4.39160E+03 -1.44557E+03  4.23587E+03  9.71679E+02  4.10439E+03  5.92781E+03  1.09293E+02  6.66477E+03
 -7.21763E+03  7.28655E+03 -1.02343E+04 -1.52620E+03 -9.14397E+03 -6.78364E+03 -6.74677E+02 -1.17167E+04
  6.25056E+03 -1.03411E+04  1.28293E+04 -3.63163E+03  1.35140E+04  5.08209E+03  5.95656E+03  1.07554E+04
  7.90838E+02  9.29711E+03 -4.11257E+03  7.52876E+03 -7.31428E+03  5.82927E+03 -7.70524E+03  5.79790E+02
 -2.80015E+03 -1.55660E+03 -5.36122E+03  9.52283E+02 -4.88908E+03  1.44504E+03 -8.91740E+03 -2.44890E+03
 -8.97878E+03 -5.78095E+03 -2.78098E+03 -1.08477E+04  4.91698E+03 -1.13958E+04  1.10262E+04 -6.30682E+03
  1.02617E+04  1.34743E+03  5.04570E+03  8.76736E+03 -2.00178E+02  1.03236E+04 -6.39132E+03  6.79568E+03
