 $NMID ID='MM_0lb_SNR200_7hz_g45_88.RAW', FMTDAT='(8E13.5)'
 TRAMP=1., VOLUME=1. $END
  3.09247E+05  2.20988E+03  3.36653E+05  2.51653E+05  8.53811E+04  3.40300E+05 -1.33393E+05  2.52211E+05
 -1.92376E+05  8.51672E+04 -1.14274E+05 -3.34743E+04  5.95703E+02 -5.10852E+04  5.42198E+04 -6.41917E+02
  3.48006E+04  5.31481E+04 -1.77555E+04  7.73236E+04 -6.18420E+04  6.48130E+04 -8.52807E+04  3.19317E+04
 -8.09584E+04 -1.22603E+04 -5.72243E+04 -5.31772E+04 -1.59775E+04 -7.20213E+04  2.78925E+04 -4.75784E+04
  4.06642E+04  4.58729E+03  1.59378E+04  4.71070E+04 -3.63737E+04  4.64174E+04 -7.01268E+04  1.65984E+03
 -5.29315E+04 -5.87750E+04 -7.85157E+03 -8.01221E+04  3.47954E+04 -5.65165E+04  5.05479E+04 -1.75810E+04
  4.57902E+04  1.21227E+04  3.32864E+04  2.76205E+04  1.67376E+04  3.25292E+04 -5.18488E+03  2.93543E+04
 -2.26366E+04  1.19041E+04 -1.77844E+04 -8.38700E+03  7.67749E+03 -9.49563E+03  2.40748E+04  1.50086E+04
  8.44738E+03  3.65764E+04 -3.52566E+04  3.87511E+04 -6.77849E+04  3.39829E+02 -5.76263E+04 -4.60613E+04
 -1.29713E+04 -6.54830E+04  4.14748E+04 -5.03130E+04  6.22720E+04 -2.13435E+03  3.59715E+04  3.36694E+04
 -5.29750E+03  4.10313E+04 -3.39147E+04  1.98336E+04 -3.44664E+04 -2.60109E+03 -2.02807E+04 -1.22039E+04
 -9.77470E+03 -1.59743E+04 -1.61940E+03 -2.09339E+04  8.89752E+03 -2.30959E+04  1.61385E+04 -1.25803E+04
  8.12634E+03  7.08260E+03 -1.26613E+04  1.22374E+04 -2.22460E+04 -5.85729E+03 -9.05814E+03 -3.79708E+04
  2.49793E+04 -4.99249E+04  5.23586E+04 -1.96579E+04  5.10216E+04  2.10690E+04  1.74732E+04  4.80359E+04
 -1.71153E+04  3.63160E+04 -2.88137E+04  3.63965E+03 -1.18208E+04 -3.07368E+04  2.26191E+04 -3.74850E+04
  4.71286E+04 -1.05051E+04  3.98743E+04  2.63009E+04  2.31837E+04  5.22594E+04 -8.35631E+03  5.76034E+04
 -3.71680E+04  4.03068E+04 -4.83607E+04  1.03241E+04 -4.87752E+04 -1.54304E+04 -2.78655E+04 -4.33429E+04
  9.00899E+03 -4.16127E+04  3.33335E+04 -1.96467E+04  3.26828E+04  1.24209E+04  5.59316E+03  2.28419E+04
 -1.60407E+04  1.03417E+04 -1.04740E+04 -6.97203E+03  7.80934E+03 -1.10566E+04  1.79150E+04  5.97675E+03
  1.52656E+04  2.21643E+04 -4.73092E+03  2.75741E+04 -2.26360E+04  1.48030E+04 -3.31111E+04 -2.93816E+03
 -2.66275E+04 -1.83973E+04 -1.26049E+04 -2.62311E+04  2.76802E+03 -2.68739E+04  2.15311E+04 -2.41980E+04
  3.53122E+04 -1.60209E+04  3.96678E+04  4.96039E+03  2.93945E+04  2.67484E+04  5.66279E+03  4.20115E+04
 -2.18917E+04  3.47879E+04 -3.18969E+04  1.18100E+04 -2.35869E+04 -9.98639E+03 -4.53873E+03 -1.37096E+04
  1.64216E+03 -7.36179E+02 -9.18465E+03  7.72429E+03 -2.13892E+04  5.32070E+03 -2.23571E+04 -1.09279E+04
 -1.24627E+04 -2.56043E+04  6.07700E+03 -2.90360E+04  2.09273E+04 -2.00820E+04  2.25343E+04 -3.89764E+02
  1.59513E+04  1.73286E+04 -1.55240E+03  2.47075E+04 -1.69508E+04  1.45110E+04 -2.45247E+04 -5.22409E+03
 -1.93160E+04 -2.19182E+04 -2.50550E+03 -2.92189E+04  1.35003E+04 -2.59679E+04  2.46628E+04 -1.34714E+04
  2.31751E+04 -1.14994E+03  1.65965E+04  4.75715E+03  1.00330E+04  4.37568E+02  1.37499E+04 -1.43291E+03
  2.40206E+04  2.14736E+03  2.85176E+04  2.10696E+04  1.98392E+04  3.93757E+04 -1.84329E+03  4.61303E+04
 -2.68130E+04  4.07296E+04 -4.45671E+04  2.19048E+04 -5.22937E+04 -4.35102E+03 -3.70229E+04 -2.96066E+04
 -1.72217E+04 -3.96876E+04  1.40036E+04 -3.55365E+04  3.00560E+04 -1.61268E+04  2.56765E+04  7.29989E+03
  8.01163E+03  1.88281E+04 -1.14304E+04  1.71003E+04 -2.15335E+04  2.44590E+03 -1.83309E+04 -1.41928E+04
  6.87672E+02 -2.23491E+04  1.14701E+04 -1.58079E+04  1.45764E+04 -2.66669E+03  2.49604E+03  9.63768E+03
 -9.42202E+03  5.50244E+03 -1.20620E+04 -7.98717E+03 -2.43938E+03 -2.04187E+04  1.08873E+04 -2.25621E+04
  2.42397E+04 -1.10242E+04  2.89714E+04  3.59151E+03  2.50243E+04  2.08256E+04  1.10156E+04  3.37850E+04
 -5.26167E+03  3.40572E+04 -2.16135E+04  2.14027E+04 -2.54739E+04  5.50705E+03 -1.57793E+04 -6.34481E+03
 -6.04529E+03 -8.44373E+03 -3.14115E+02 -1.21731E+03 -4.50684E+03  2.85991E+03 -8.31800E+03  7.15909E+03
 -1.56305E+04 -8.25487E+02 -1.77696E+04 -1.33432E+04 -4.34194E+03 -2.03259E+04  6.78914E+03 -1.66681E+04
  1.40045E+04 -7.31537E+03  1.13272E+04  5.82420E+03  1.00180E+02  7.65554E+03 -1.06506E+04  6.79734E+02
 -7.14767E+03 -1.16163E+04 -1.80433E+03 -1.69551E+04  1.03594E+04 -1.73283E+04  2.23805E+04 -1.18239E+04
  2.60089E+04  2.93221E+03  2.09047E+04  1.62175E+04  3.40468E+03  2.35508E+04 -9.17422E+03  1.88844E+04
 -1.37203E+04  4.02010E+03 -4.90897E+03 -4.22823E+03  1.41199E+03 -4.57400E+03  9.23549E+03 -1.31521E+03
  9.78918E+03  8.41036E+03  1.13643E+03  1.40118E+04 -9.90887E+03  1.09833E+04 -1.80194E+04  2.70939E+03
 -1.14180E+04 -9.51707E+03  4.32986E+02 -1.52652E+04  1.05767E+04 -8.01865E+03  1.23972E+04  4.25136E+03
  3.19549E+03  1.24518E+04 -8.32387E+03  1.22222E+04 -1.61732E+04  4.87772E+03 -1.63352E+04 -5.54345E+03
 -7.88173E+03 -1.86783E+04  4.51699E+03 -2.18354E+04  1.68312E+04 -1.28231E+04  1.93991E+04  3.76772E+03
  1.08458E+04  1.45087E+04 -8.16761E+02  2.00977E+04 -1.10743E+04  1.10554E+04 -1.56389E+04 -5.45862E+02
 -1.15412E+04 -1.30604E+04 -2.92822E+03 -1.47623E+04  7.83031E+03 -1.01030E+04  8.11057E+03 -5.46789E+03
  6.17018E+03  3.03226E+03 -1.40797E+03  2.15087E+03 -1.65068E+03 -5.41070E+03  4.28282E+03 -9.34616E+03
  1.25681E+04 -6.42039E+03  1.98302E+04  2.41643E+03  1.86392E+04  1.42618E+04  1.06091E+04  2.24985E+04
 -4.55311E+03  2.78163E+04 -2.30679E+04  2.04721E+04 -2.82945E+04  3.49292E+03 -2.39117E+04 -1.17042E+04
 -1.23471E+04 -2.07748E+04 -1.78699E+03 -1.74120E+04  6.63647E+03 -1.13263E+04  6.53096E+03 -5.63953E+03
  3.41154E+03 -4.18785E+03  4.48638E+03 -3.85439E+03  5.43110E+03 -4.56737E+03  8.06810E+03 -1.04016E+03
  1.24740E+04  2.69778E+03  7.60877E+03  1.17035E+04 -3.14599E+03  1.48266E+04 -1.42148E+04  1.04924E+04
 -1.98052E+04 -1.89610E+03 -7.88690E+03 -1.25085E+04 -2.86327E+03 -2.06717E+04  1.07831E+04 -1.79299E+04
  1.95237E+04 -1.14985E+04  2.35129E+04  3.12153E+03  1.78674E+04  1.78154E+04  2.20694E+03  2.28353E+04
 -9.83004E+03  1.62693E+04 -1.34398E+04  3.90504E+03 -9.54282E+03 -2.37770E+03 -3.49523E+03 -3.41158E+03
 -3.09297E+03  1.01513E+02 -2.39234E+03  3.25024E+03 -6.07355E+03  2.39231E+03 -1.03948E+04 -3.13442E+03
 -9.88443E+03 -1.10131E+04  9.90653E+02 -1.94721E+04  1.22380E+04 -1.70674E+04  1.67783E+04 -5.63228E+03
  1.82655E+04  9.27958E+03  8.05498E+03  1.60509E+04 -4.20519E+03  1.76205E+04 -1.18237E+04  1.18783E+04
 -1.76853E+04 -3.19645E+02 -9.75090E+03 -1.00311E+04 -6.28310E+02 -1.54494E+04  9.43307E+03 -1.16312E+04
  1.13921E+04 -1.70060E+03  8.31170E+03  2.75688E+03  3.03683E+03  6.77980E+03  8.33994E+02  2.24932E+03
  2.93238E+03  2.66600E+02  4.67037E+03  1.33278E+03  6.14208E+03  5.58420E+03  5.20044E+03  8.40057E+03
 -2.98531E+03  1.44139E+04 -1.42693E+04  1.11382E+04 -2.00750E+04  2.78108E+03 -1.87321E+04 -9.59015E+03
 -8.60288E+03 -1.92160E+04  3.18012E+03 -1.99533E+04  1.11672E+04 -1.14830E+04  1.40980E+04 -5.95877E+03
  1.23236E+04  6.92370E+03  1.20785E+03  1.10422E+04 -6.58206E+03  7.67842E+03 -7.64800E+03 -7.85520E+02
 -5.11977E+03 -7.03910E+03  2.32855E+03 -9.26243E+03  8.32671E+03 -3.19555E+03  8.46359E+03  1.60795E+03
  3.77970E+03  3.64787E+03  1.23497E+03  3.67422E+03  1.10979E+03  2.40485E+03  1.64780E+03 -1.53882E+03
  3.07075E+03 -1.84488E+03  8.99628E+03  4.19653E+03  5.31442E+03  1.06213E+04 -9.93244E+02  1.59876E+04
 -7.84884E+03  9.11695E+03 -1.28481E+04  2.29221E+03 -1.10433E+04 -2.77902E+03 -5.00864E+03 -7.45385E+03
  1.06645E+02 -7.19593E+03  3.97250E+03 -3.28711E+03  5.51255E+03  2.53947E+03 -2.16331E+03  6.80989E+03
 -7.92060E+03  4.22470E+03 -8.60730E+03 -5.88659E+03 -5.50448E+03 -8.31938E+03  1.99040E+03 -1.08935E+04
  6.86404E+03 -7.18221E+03  8.82005E+03 -1.80204E+02  7.30891E+03  3.04733E+03  1.83938E+03  4.74185E+03
 -3.91214E+03  4.27551E+03 -6.71131E+03 -3.00460E+03  2.16928E+03 -8.71886E+03  1.01475E+04 -6.82976E+03
  1.29061E+04  4.62822E+02  1.32223E+04  8.68206E+03  3.52476E+03  1.31666E+04 -4.09247E+03  1.22774E+04
 -1.10114E+04  3.94539E+03 -1.05137E+04 -2.25435E+03 -7.45746E+03 -8.48183E+03  1.89695E+03 -7.10073E+03
  8.16242E+03 -3.94053E+03  7.77471E+03  3.89108E+03  1.60585E+03  8.06333E+03 -3.23001E+02  5.09142E+03
 -4.31285E+03  2.20728E+03 -1.46091E+03  1.80620E+03 -1.85708E+03  3.03771E+03 -1.27298E+03  3.13265E+03
 -4.98892E+03  5.49252E+03 -8.70295E+03  4.38788E+03 -1.20446E+04  1.95047E+00 -1.26337E+04 -9.69155E+03
 -1.03633E+04 -1.79083E+04  3.61365E+03 -1.76113E+04  1.16467E+04 -1.50734E+04  1.94932E+04 -6.69808E+03
  1.87384E+04  5.28329E+03  1.14999E+04  1.36715E+04  6.41110E+02  1.41985E+04 -6.16034E+03  1.01777E+04
 -8.48737E+03  4.52929E+03 -4.81634E+03 -3.18387E+03  3.68136E+02 -2.37742E+03  3.24460E+02 -6.12347E+02
 -8.29777E+02  1.55797E+03 -4.44880E+03  3.45811E+02 -2.17025E+02 -2.88980E+03  6.49479E+02 -3.32304E+03
  5.62529E+03 -5.09750E+03  7.98033E+03 -2.34101E+02  9.91104E+03  8.09350E+03  2.44025E+03  1.39278E+04
 -6.95169E+03  1.87474E+04 -1.55383E+04  9.00535E+03 -1.60198E+04 -2.01965E+03 -1.24149E+04 -1.10142E+04
 -5.45728E+03 -1.41892E+04  2.26359E+03 -1.57416E+04  1.14501E+04 -8.38588E+03  1.03460E+04  1.82868E+02
  4.69461E+03  4.24685E+03 -5.89302E+02  3.68085E+03 -3.53769E+03  1.35668E+02  9.25807E+02 -4.42036E+03
  2.92992E+03 -4.58768E+03  6.09820E+03  4.85978E+02  3.71797E+03  6.09333E+03  1.34944E+03  8.30001E+03
 -6.19129E+03  7.25176E+03 -1.03272E+04  6.87516E+02 -9.29767E+03 -7.36890E+03 -2.07484E+03 -1.18420E+04
  6.82475E+03 -1.15169E+04  1.17372E+04 -1.90667E+03  1.18623E+04  2.08428E+03  5.72887E+03  9.12359E+03
  1.93995E+03  1.08708E+04 -3.36088E+03  7.22982E+03 -5.79829E+03  4.11229E+03 -5.89561E+03 -2.07239E+02
 -3.41140E+03 -1.11883E+03 -3.69227E+03  1.30397E+03 -2.98249E+03  3.06292E+03 -8.93206E+03 -2.86092E+03
 -7.52121E+03 -5.04161E+03 -2.44971E+03 -1.19097E+04  3.72887E+03 -9.79510E+03  8.58808E+03 -4.93199E+03
  9.96371E+03 -4.04540E+02  5.93578E+03  5.46581E+03 -1.45900E+03  9.28365E+03 -8.86878E+03  7.07541E+03
