 $NMID ID='MM_0lb_SNR200_19hz_g45_6.RAW', FMTDAT='(8E13.5)'
 TRAMP=1., VOLUME=1. $END
  3.08645E+05  1.52796E+03  3.36866E+05  2.48837E+05  8.40408E+04  3.37788E+05 -1.32537E+05  2.50417E+05
 -1.89370E+05  8.23636E+04 -1.12015E+05 -3.24813E+04  1.88535E+03 -4.99126E+04  5.40347E+04 -6.96001E+02
  3.44671E+04  5.34029E+04 -1.65508E+04  7.46197E+04 -6.10730E+04  6.28439E+04 -8.27620E+04  3.15601E+04
 -7.91947E+04 -1.11101E+04 -5.58914E+04 -4.97963E+04 -1.50281E+04 -6.88161E+04  2.68527E+04 -4.45963E+04
  3.97377E+04  3.23742E+03  1.48748E+04  4.76834E+04 -3.40067E+04  4.53376E+04 -6.45193E+04 -1.08770E+03
 -5.23476E+04 -5.61547E+04 -6.23505E+03 -7.45447E+04  3.31603E+04 -5.34647E+04  4.51088E+04 -1.61082E+04
  4.04659E+04  1.07622E+04  3.10125E+04  2.39863E+04  1.59986E+04  2.71338E+04 -5.47919E+03  2.65349E+04
 -2.14761E+04  1.22438E+04 -1.86637E+04 -3.74824E+03  3.69127E+03 -8.47161E+03  2.18592E+04  1.04933E+04
  7.45312E+03  3.31832E+04 -3.02759E+04  3.38653E+04 -6.02682E+04  2.97652E+03 -5.58896E+04 -4.15780E+04
 -1.24333E+04 -6.08074E+04  3.68395E+04 -4.25714E+04  5.64191E+04 -2.85268E+03  3.14396E+04  2.94193E+04
 -5.77349E+03  3.31019E+04 -2.86617E+04  1.35571E+04 -2.77427E+04 -5.48231E+03 -1.48686E+04 -9.72465E+03
 -7.81877E+03 -1.18171E+04 -1.29202E+03 -1.59041E+04  7.18546E+03 -2.20685E+04  1.46466E+04 -1.45420E+04
  1.24891E+04  4.22193E+03 -5.68941E+03  1.26961E+04 -1.97034E+04 -1.83656E+03 -8.28113E+03 -2.90083E+04
  2.11215E+04 -3.98277E+04  4.45119E+04 -1.83150E+04  4.15550E+04  1.83552E+04  1.46571E+04  4.12920E+04
 -1.49401E+04  3.10848E+04 -2.38502E+04  5.44144E+02 -7.21216E+03 -2.65630E+04  1.92282E+04 -3.06370E+04
  3.75073E+04 -6.32075E+03  3.01484E+04  2.31035E+04  1.41618E+04  4.23938E+04 -9.22744E+03  4.28431E+04
 -2.83104E+04  2.92204E+04 -3.68827E+04  9.30415E+03 -3.79960E+04 -1.48142E+04 -2.03210E+04 -3.38969E+04
  6.70166E+03 -3.45067E+04  2.77129E+04 -1.25846E+04  2.69086E+04  1.11718E+04  2.68852E+03  1.74845E+04
 -1.31049E+04  6.22283E+03 -9.87885E+03 -7.91440E+03  6.42805E+03 -8.91703E+03  1.75428E+04  6.75254E+03
  1.15629E+04  2.07764E+04 -6.99345E+03  2.30945E+04 -2.15498E+04  8.39040E+03 -2.53739E+04 -7.21789E+03
 -1.59951E+04 -1.66994E+04 -5.10810E+03 -1.53353E+04  3.84974E+03 -1.39247E+04  1.28684E+04 -1.37136E+04
  1.98084E+04 -1.20654E+04  2.72861E+04  9.18204E+02  2.09587E+04  1.53577E+04  3.57499E+03  3.21601E+04
 -1.70969E+04  2.65720E+04 -2.61761E+04  9.44424E+03 -1.92581E+04 -1.16910E+04 -3.87626E+03 -1.38238E+04
  3.26354E+03 -3.37355E+03 -1.97398E+03  6.18546E+03 -1.23598E+04  4.38431E+03 -1.24612E+04 -4.73553E+03
 -8.18781E+03 -1.53424E+04  4.15888E+03 -1.88487E+04  1.24659E+04 -1.38554E+04  1.48611E+04 -1.38115E+03
  9.29575E+03  1.01131E+04 -3.27508E+02  1.54060E+04 -1.00932E+04  8.23880E+03 -1.40382E+04 -2.96772E+03
 -1.11260E+04 -1.40284E+04  9.59385E+00 -1.87374E+04  8.58887E+03 -1.47081E+04  1.59746E+04 -7.69187E+03
  1.49200E+04  6.15064E+02  1.05006E+04  3.80090E+03  4.77880E+03  6.33040E+02  6.75154E+03 -1.76078E+03
  1.33135E+04  2.93751E+03  1.47323E+04  1.26271E+04  8.37487E+03  2.32866E+04 -2.47992E+03  2.72095E+04
 -1.46878E+04  1.97613E+04 -2.38520E+04  9.55334E+03 -2.33620E+04 -1.77073E+03 -2.00977E+04 -1.34801E+04
 -9.99740E+03 -2.01146E+04  5.24670E+03 -1.82917E+04  1.59360E+04 -1.10127E+04  1.54402E+04  3.24155E+03
  6.07774E+03  9.24605E+03 -6.40855E+03  1.01598E+04 -1.18958E+04  2.34597E+03 -1.00344E+04 -7.55918E+03
 -1.31259E+03 -1.21542E+04  5.85768E+03 -8.77527E+03  7.90058E+03 -3.44164E+02  1.40402E+03  5.75407E+03
 -5.11667E+03  1.33560E+03 -3.00198E+03 -4.73700E+03  1.15558E+02 -8.73674E+03  5.93879E+03 -9.17198E+03
  1.20540E+04 -3.82591E+03  1.12071E+04  2.28702E+03  9.66513E+03  8.82646E+03  5.12161E+03  1.32070E+04
 -1.51028E+03  1.42233E+04 -9.49029E+03  9.40044E+03 -1.11501E+04  3.41411E+03 -8.56800E+03 -1.91634E+03
 -4.24502E+03 -4.24293E+03 -7.93861E+02  1.65433E+03 -2.16737E+03  1.62964E+03 -2.81214E+03  3.57394E+03
 -8.56811E+03  2.07166E+02 -8.69405E+03 -6.24967E+03 -3.24384E+03 -1.09719E+04  3.56232E+03 -7.39432E+03
  7.83950E+03 -2.82042E+03  5.42786E+03  2.08824E+03  3.68964E+02  2.55156E+03 -3.40149E+03 -1.00090E+03
 -3.17640E+03 -3.90774E+03 -1.63206E+03 -7.41049E+03  4.24502E+03 -8.09755E+03  9.17609E+03 -3.06556E+03
  1.09450E+04  7.72392E+02  7.59043E+03  5.24441E+03  3.00463E+03  8.09874E+03 -5.73475E+03  7.24358E+03
 -6.17582E+03  3.96169E+03 -3.97500E+03 -9.17066E+02  1.17218E+03 -1.80947E+03  4.52180E+03 -6.49064E+02
  4.18787E+03  2.98338E+03  1.42094E+03  6.39231E+03 -4.56480E+03  5.50617E+03 -6.48285E+03  1.58076E+03
 -4.67758E+03 -2.66110E+03  4.07666E+02 -6.60156E+03  3.73522E+03 -1.97827E+03  2.37490E+03 -1.92705E+00
 -2.37705E+02  2.64308E+03 -2.99993E+03  4.33700E+03 -5.00101E+03  2.13890E+03 -5.46977E+03  2.38147E+02
 -2.26935E+03 -5.99029E+03  1.65870E+03 -6.36784E+03  5.75471E+03 -5.14405E+03  6.47921E+03  1.09680E+03
  4.14813E+03  4.51831E+03  1.19019E+02  7.36644E+03 -4.68931E+03  4.22309E+03 -5.02106E+03 -2.66197E+02
 -5.64127E+03 -3.67016E+03  1.92739E+02 -6.24489E+03  1.99434E+03 -5.22214E+03  2.41181E+03 -3.09823E+03
  2.47486E+03 -1.98876E+02  2.85957E+02  1.11044E+03 -1.47527E+02 -1.47851E+02 -1.20723E+03 -2.74902E+03
  3.53132E+03 -1.20586E+02  4.55976E+03  8.42277E+02  5.50946E+03  2.54876E+03  4.21205E+03  6.68342E+03
 -1.07482E+03  8.02381E+03 -8.08243E+03  5.03857E+03 -7.49575E+03  1.40498E+03 -6.45111E+03 -1.93060E+03
 -3.72853E+03 -6.26450E+03  1.01901E+02 -6.21800E+03  2.33069E+03 -1.05552E+03  1.25705E+03 -2.03141E+03
  1.27699E+03 -7.14041E+02  1.57241E+03 -1.70392E+03  2.68032E+03 -9.31556E+02  3.18827E+03  2.94959E+02
  4.48632E+03  1.40042E+03  6.60026E+01  3.27230E+03 -1.96725E+03  1.90481E+03 -3.70857E+03  2.39482E+03
 -4.39335E+03 -2.49317E+03 -9.29306E+02 -2.50212E+03  9.40097E+02 -4.39019E+03  3.08971E+03 -5.10109E+03
  4.51210E+03 -2.41514E+03  5.35286E+03 -3.98554E+02  4.44439E+03  4.34466E+03  1.39034E+03  6.46767E+03
 -2.05619E+03  6.47455E+03 -2.81859E+03  2.21030E+03 -1.45373E+03  1.59252E+02 -8.23808E+02 -1.40892E+03
  3.55860E+02  1.28503E+03 -1.49915E+03  2.62119E+03 -1.87714E+03  7.20781E+02 -4.74616E+03  7.12682E+02
 -6.60600E+02 -4.05151E+03  7.75225E+02 -4.54375E+03  2.87514E+03 -3.18833E+03  3.00281E+03 -6.89362E+02
  3.96876E+03  2.19427E+03  1.31265E+03  3.66021E+03  1.34998E+02  4.20795E+03 -2.67773E+03  2.29871E+03
 -4.75303E+03  4.87743E+02 -3.24324E+03 -2.09920E+03 -4.27394E+02 -4.10397E+03 -2.76496E+02 -1.27600E+03
  1.34200E+03 -1.74540E+03  1.72269E+03  6.92988E+02  7.06156E+02  9.55716E+02  1.15748E+03  4.68064E+02
  1.91810E+03  9.29712E+02  6.39338E+02  9.22659E+02 -2.37449E+02  2.85774E+03  4.52204E+02  1.98827E+03
 -8.86160E+02  2.20533E+03 -2.79932E+03  3.14237E+03 -2.43030E+03  1.32220E+03 -4.37938E+03 -6.88331E+02
 -1.01988E+03 -2.99097E+03  1.04744E+03 -3.71985E+03  1.12609E+03 -2.75813E+03  2.12397E+03 -1.15064E+03
  2.77921E+03  1.58710E+03  1.49652E+02  2.64950E+03  1.77818E+02  6.21985E+02  2.13636E+02 -6.62589E+02
 -9.81390E+02 -1.14065E+03  1.31256E+03 -2.09763E+03  1.76336E+03 -1.39583E+03  6.30094E+02  5.31111E+02
  1.47243E+02  2.78939E+02 -1.41737E+02  5.53955E+02 -4.50875E+02 -5.37139E+02  1.71982E+03  7.30181E+01
 -1.98095E+02  3.01365E+02  1.68683E+03  6.07898E+02  1.56528E+02  2.54417E+03 -3.40695E+02  2.21087E+03
 -1.17938E+03  5.67487E+02 -2.28628E+03  3.93978E+01 -1.96049E+03 -3.28444E+02  9.82129E-01 -6.45953E+02
  1.21217E+03 -1.66019E+03  9.74795E+02  7.61898E+00  1.15819E+03  2.70032E+03 -4.28240E+02  1.43380E+03
 -1.89258E+03  1.36657E+03 -9.11255E+02 -7.08342E+02  8.62444E+01 -2.68024E+03  8.85732E+02 -1.51529E+03
  8.18672E+02 -6.47497E+02  1.42440E+03  5.32818E+02  1.36327E+03  3.51144E+02  1.42347E+02  1.48393E+03
  3.23575E+02  2.09171E+02 -1.18251E+03  4.24157E+02  2.87748E+02 -2.98031E+02  1.35838E+03 -1.21707E+03
  1.87032E+02 -7.88142E+02  3.72911E+03  1.07909E+03  8.97478E+02  1.31096E+03  2.25005E+02  1.59715E+03
 -2.06526E+02 -5.47103E+02 -1.35064E+03  4.34281E+02 -4.29195E+02 -1.86657E+03 -7.05666E+02 -9.76792E+02
  1.04084E+03 -4.34219E+01  7.34401E+02  1.01597E+03 -2.63079E+02  1.07770E+03  4.29636E+02  9.51866E+02
  2.86032E+02  1.33308E+03 -1.09862E+03  7.52508E+02 -3.29256E+02  3.98006E+02 -7.37389E+02  6.44391E+02
 -1.49351E+02  1.15628E+03 -1.04697E+03  4.69516E+02 -6.75390E+02 -6.15137E+02 -2.08292E+03 -6.16048E+02
 -1.75461E+03 -2.61660E+03  5.71843E+02 -2.45505E+03  4.05758E+02 -1.87289E+03  2.67904E+03 -9.09135E+02
  1.95016E+03 -7.89630E+02  1.46558E+03  1.84473E+03 -1.09838E+03  1.46985E+03 -1.50038E+03  1.04095E+03
 -7.69294E+02  5.33478E+02 -1.39147E+03 -6.77206E+02 -2.32665E+02 -2.57630E+02 -7.40734E+01  4.18776E+02
 -1.16625E+03  1.62594E+02 -1.36372E+02 -6.12387E+01  1.00341E+03 -7.89501E+02  1.27644E+02  8.01047E+02
  3.26203E+02 -1.88260E+02 -1.74712E+02  4.14364E+02  8.63636E+02  8.31148E+02 -1.32670E+03  8.19559E+02
 -1.62141E+03  6.87206E+02 -7.88967E+02  1.10686E+02 -1.14838E+03  9.65266E+02 -8.59183E+02 -1.03809E+03
  8.00642E+01 -1.30503E+03  6.38323E+02 -8.56981E+02 -5.11146E+02 -5.16453E+01  9.17578E+02 -4.16808E+02
  9.20924E+02  2.34821E+02  2.53622E+02  9.38039E+02  1.03613E+01  3.98454E+02  7.33926E+02  4.13123E+02
  6.19074E+01  9.21630E+02 -2.25620E+02  6.13754E+01  7.20338E+02  5.19059E+02  7.99101E+02 -9.25163E+02
 -6.14340E+02  1.24360E+03 -5.24131E+02 -3.95304E+02 -2.23916E+03 -1.17946E+02 -2.91293E+02 -7.27700E+02
 -3.86005E+02 -7.26946E+02 -1.47682E+02 -2.96820E+02  1.36248E+03 -6.86269E+02  1.54708E+02  1.13804E+03
  4.56151E+02 -9.66593E+01 -5.67077E+02  1.98171E+02  4.00532E+02  8.04203E+02 -4.67309E+02 -6.23530E+02
  1.40661E+03  5.99726E+02 -5.39416E+02 -1.33765E+02 -7.35520E+02  3.66918E+02 -4.08547E+02 -5.12461E+02
 -1.04022E+03  1.13904E+03 -2.70451E+01 -1.50398E+03  1.84113E+03 -9.92541E+02  2.25030E+02 -4.19865E+02
  1.56568E+03  4.42890E+02 -9.66906E+01 -3.84356E+02  3.65954E+01  1.68139E+03 -1.07432E+03  2.83109E+02
