 $NMID ID='MM_0lb_SNR200_7hz_g45_59.RAW', FMTDAT='(8E13.5)'
 TRAMP=1., VOLUME=1. $END
  3.09201E+05 -5.62082E+02  3.38474E+05  2.51243E+05  8.64889E+04  3.39164E+05 -1.34552E+05  2.52442E+05
 -1.90132E+05  8.44120E+04 -1.12383E+05 -3.26413E+04 -7.89841E+02 -5.00656E+04  5.41027E+04 -8.35242E+01
  3.46741E+04  5.41129E+04 -1.71124E+04  7.65733E+04 -6.08108E+04  6.39916E+04 -8.67080E+04  3.24192E+04
 -8.24175E+04 -1.09437E+04 -5.77231E+04 -5.54393E+04 -1.47773E+04 -7.16370E+04  2.75660E+04 -4.79526E+04
  4.20505E+04  3.58984E+03  1.63204E+04  4.97877E+04 -3.35585E+04  4.82507E+04 -6.83679E+04 -3.04851E+02
 -5.29519E+04 -5.85785E+04 -7.17988E+03 -7.96044E+04  3.41506E+04 -5.71183E+04  5.08774E+04 -1.88143E+04
  4.58409E+04  1.13709E+04  3.24667E+04  2.79328E+04  1.53110E+04  3.14097E+04 -7.53837E+03  2.80040E+04
 -2.31426E+04  1.09975E+04 -1.87070E+04 -4.54773E+03  8.31746E+03 -7.81937E+03  2.20327E+04  1.50363E+04
  7.91871E+03  3.82442E+04 -3.44219E+04  3.66000E+04 -6.68021E+04  1.86210E+03 -6.08062E+04 -4.40765E+04
 -1.25042E+04 -6.59822E+04  4.00454E+04 -4.90708E+04  6.17684E+04 -2.15010E+03  3.76929E+04  3.53266E+04
 -5.79821E+03  4.16701E+04 -3.25025E+04  1.89313E+04 -3.30839E+04 -2.97469E+03 -1.95029E+04 -1.35960E+04
 -1.01874E+04 -1.75404E+04 -7.68939E+02 -1.93081E+04  9.30039E+03 -2.42244E+04  1.47561E+04 -1.16310E+04
  1.08380E+04  5.88806E+03 -1.22316E+04  1.27070E+04 -2.38965E+04 -9.97135E+03 -8.82868E+03 -3.96495E+04
  2.61527E+04 -4.77079E+04  5.35412E+04 -1.94273E+04  5.03731E+04  2.00707E+04  1.69012E+04  4.91538E+04
 -1.75187E+04  3.71003E+04 -2.70869E+04  8.00098E+02 -1.24392E+04 -2.95193E+04  2.27241E+04 -3.73876E+04
  4.50188E+04 -1.11620E+04  4.12744E+04  2.54553E+04  2.36057E+04  5.40901E+04 -8.34282E+03  5.73094E+04
 -3.67392E+04  3.98429E+04 -4.94534E+04  1.15850E+04 -5.04297E+04 -1.89987E+04 -2.64813E+04 -4.15146E+04
  1.02478E+04 -4.25858E+04  3.47428E+04 -2.02426E+04  3.39364E+04  1.16374E+04  5.73806E+03  2.10854E+04
 -1.49941E+04  1.18529E+04 -1.11886E+04 -7.49281E+03  6.35608E+03 -1.16198E+04  1.92317E+04  4.02258E+03
  1.52987E+04  2.45905E+04 -4.81079E+03  2.84111E+04 -2.57380E+04  1.43769E+04 -3.30573E+04 -3.64250E+03
 -2.66054E+04 -1.95459E+04 -1.10213E+04 -2.60380E+04  4.30154E+03 -2.80410E+04  2.16863E+04 -2.40670E+04
  3.35982E+04 -1.40376E+04  3.88445E+04  5.15969E+03  2.82938E+04  2.62917E+04  4.20883E+03  4.44492E+04
 -2.11112E+04  3.41050E+04 -3.08739E+04  9.79881E+03 -2.21480E+04 -1.05278E+04 -4.55567E+03 -1.26178E+04
  2.32710E+02  1.50903E+02 -9.00254E+03  9.85310E+03 -2.36958E+04  5.47153E+03 -2.23522E+04 -1.03099E+04
 -1.16049E+04 -2.35532E+04  6.12571E+03 -3.05303E+04  2.03128E+04 -2.05265E+04  2.39137E+04 -3.61341E+01
  1.59462E+04  1.65932E+04 -1.52971E+03  2.73001E+04 -1.85632E+04  1.49151E+04 -2.45148E+04 -4.90223E+03
 -1.96469E+04 -2.29875E+04 -2.12941E+03 -2.88468E+04  1.42280E+04 -2.55138E+04  2.56602E+04 -1.45038E+04
  2.50616E+04 -4.68849E+02  1.63473E+04  7.17904E+03  9.44720E+03  1.08221E+03  1.24506E+04 -6.95485E+02
  2.53579E+04  2.96813E+03  2.90428E+04  1.82138E+04  1.83662E+04  3.95764E+04 -2.57554E+03  4.82739E+04
 -2.78813E+04  4.25607E+04 -4.49583E+04  2.04068E+04 -4.86370E+04 -3.89928E+03 -3.72955E+04 -2.94765E+04
 -1.40052E+04 -4.06096E+04  1.58131E+04 -3.48502E+04  3.03042E+04 -1.69028E+04  2.55028E+04  9.53824E+03
  9.36127E+03  1.88966E+04 -1.18939E+04  1.63389E+04 -2.22603E+04  2.55513E+03 -1.62243E+04 -1.36397E+04
 -1.51454E+02 -1.91062E+04  1.19320E+04 -1.36001E+04  1.55154E+04 -7.10646E+02  1.10632E+03  1.05732E+04
 -9.15666E+03  5.70545E+03 -1.09508E+04 -8.52821E+03 -2.17315E+03 -2.13925E+04  1.30329E+04 -2.29856E+04
  2.37731E+04 -1.38571E+04  3.03665E+04  4.37525E+03  2.64585E+04  2.05314E+04  1.08559E+04  3.45183E+04
 -5.64516E+03  3.40514E+04 -2.24955E+04  1.99883E+04 -2.53838E+04  4.57634E+03 -1.87854E+04 -8.27303E+03
 -7.14109E+03 -8.36111E+03 -1.48435E+03 -1.44856E+02 -3.25192E+03  5.51251E+03 -7.99613E+03  5.24849E+03
 -1.48570E+04 -1.44756E+03 -1.62560E+04 -1.24619E+04 -5.26801E+03 -2.06197E+04  5.13985E+03 -1.99215E+04
  1.39843E+04 -7.45435E+03  9.74399E+03  4.99039E+03 -4.60146E+02  6.68803E+03 -9.56400E+03  2.19566E+02
 -9.07161E+03 -1.09736E+04 -9.41951E+02 -1.75924E+04  8.23935E+03 -1.88544E+04  2.10191E+04 -1.00877E+04
  2.67020E+04  4.70601E+03  1.85813E+04  1.50463E+04  3.00110E+03  2.26474E+04 -1.00124E+04  1.65955E+04
 -1.45304E+04  4.39003E+03 -8.36222E+03 -4.36089E+03  2.96177E+03 -5.99875E+03  8.00267E+03  7.78802E+02
  7.42686E+03  8.01484E+03  8.80281E+02  1.47573E+04 -1.11169E+04  1.24429E+04 -1.64241E+04  3.22350E+03
 -1.12213E+04 -1.03778E+04  4.88109E+01 -1.52327E+04  1.06358E+04 -7.81813E+03  1.07051E+04  4.18708E+03
  4.16928E+03  1.17124E+04 -8.11782E+03  1.48472E+04 -1.61977E+04  7.13023E+03 -1.63585E+04 -5.08476E+03
 -8.57978E+03 -1.83523E+04  2.58632E+03 -2.10201E+04  1.80089E+04 -1.20173E+04  1.98532E+04  2.66264E+03
  1.35330E+04  1.62258E+04 -1.57386E+03  1.83943E+04 -1.50643E+04  9.42740E+03 -1.67104E+04 -9.84935E+02
 -1.20778E+04 -1.18578E+04 -2.74615E+02 -1.41688E+04  7.80104E+03 -1.01962E+04  1.09659E+04 -4.47424E+03
  6.15249E+03  8.02312E+02  9.85199E+02  2.70795E+03  1.20363E+02 -4.84472E+03  7.83659E+02 -9.28929E+03
  1.62377E+04 -6.02154E+03  1.95072E+04  2.22578E+03  1.82571E+04  1.12213E+04  1.04528E+04  2.36999E+04
 -5.85508E+03  3.01686E+04 -2.41608E+04  2.03720E+04 -3.11994E+04  2.86837E+03 -2.71260E+04 -1.06601E+04
 -1.24895E+04 -2.01177E+04  2.00222E+02 -1.84599E+04  6.86819E+03 -1.12328E+04  6.77900E+03 -7.91473E+03
  7.11284E+03 -2.57831E+03  5.06764E+03 -4.84898E+03  6.06648E+03 -4.25645E+03  7.55149E+03  3.46423E+01
  1.24451E+04  2.21587E+03  9.09735E+03  1.20759E+04 -1.69108E+03  1.45064E+04 -1.41953E+04  1.27990E+04
 -1.63387E+04  5.91731E+02 -1.19815E+04 -1.35810E+04 -1.89222E+03 -1.85902E+04  8.98468E+03 -1.91070E+04
  2.08098E+04 -1.07469E+04  2.38678E+04  4.69196E+03  1.57245E+04  1.59705E+04  2.19269E+03  2.03288E+04
 -8.35149E+03  1.77122E+04 -1.16484E+04  4.80733E+03 -8.62140E+03 -1.50508E+03 -3.23685E+03 -1.43200E+03
 -1.43809E+03 -1.19002E+03 -2.80340E+03  3.63958E+03 -8.59612E+03  4.15397E+03 -1.17287E+04 -1.56971E+03
 -8.95627E+03 -1.09878E+04 -8.81888E+02 -1.69329E+04  1.25244E+04 -1.53141E+04  1.87555E+04 -4.87059E+03
  1.80099E+04  8.86176E+03  8.34339E+03  1.64524E+04 -3.48436E+03  1.92221E+04 -1.23020E+04  1.06836E+04
 -1.75825E+04  1.29762E+03 -1.30632E+04 -1.17323E+04 -1.65690E+03 -1.52081E+04  7.26258E+03 -1.19211E+04
  1.01626E+04 -4.56131E+03  7.73066E+03  7.49312E+02  2.64335E+03  4.21729E+03  2.51644E+03  2.37414E+03
  3.31262E+03  4.46460E+02  3.96450E+03  3.25283E+03  5.33956E+03  6.16843E+03  5.39799E+03  1.00861E+04
 -8.77852E+02  1.19041E+04 -1.23242E+04  1.48459E+04 -1.88713E+04  4.01750E+03 -2.02252E+04 -7.27389E+03
 -9.04699E+03 -1.77232E+04  3.26005E+03 -2.07113E+04  1.11935E+04 -1.27913E+04  1.55377E+04 -3.87385E+03
  1.22992E+04  7.73848E+03  3.94405E+03  1.14029E+04 -4.14690E+03  6.34600E+03 -8.33069E+03 -1.49442E+03
 -4.46483E+03 -9.40536E+03  4.34561E+03 -9.33985E+03  7.90345E+03 -4.69266E+03  7.68526E+03  2.80603E+03
  3.15430E+03  3.12347E+03  1.43157E+03  3.36844E+03 -1.02018E+03  4.08297E+03  1.53924E+03 -6.40055E+02
  2.32044E+03  6.24665E+02  7.98449E+03  2.64944E+03  3.34078E+03  1.03450E+04 -2.15794E+03  1.49338E+04
 -9.03242E+03  9.82485E+03 -1.20457E+04  2.02446E+03 -1.03667E+04 -3.11580E+03 -3.86666E+03 -7.99742E+03
  1.43228E+03 -9.30947E+03  4.57700E+03 -3.08126E+03  3.58041E+03  3.64947E+03 -1.52699E+03  5.47170E+03
 -4.96524E+03  5.14356E+03 -8.69177E+03 -4.34128E+03 -4.88086E+03 -9.88758E+03  1.95453E+03 -1.08427E+04
  5.72203E+03 -6.85014E+03  6.91593E+03 -1.79477E+03  6.91431E+03  3.37403E+03 -9.64082E+02  5.82227E+03
 -4.86549E+03  2.00135E+03 -5.40866E+03 -5.59390E+03  2.74541E+03 -8.58683E+03  1.03376E+04 -7.39124E+03
  1.21303E+04  1.39021E+03  1.25258E+04  9.57677E+03  3.81515E+03  1.19872E+04 -4.80012E+03  1.32313E+04
 -1.22392E+04  5.55211E+03 -1.07847E+04 -1.56487E+03 -6.15379E+03 -9.70903E+03  1.85649E+03 -8.46523E+03
  8.61963E+03 -3.90086E+03  6.78006E+03  3.21728E+03  1.70681E+03  7.45569E+03 -4.39891E+02  6.58101E+03
 -3.94480E+03  2.98433E+03 -2.98255E+03  7.75238E+02 -2.76386E+03  2.05992E+03 -2.51823E+03  3.41000E+03
 -4.70682E+03  5.89175E+03 -9.75556E+03  4.32393E+03 -1.31317E+04 -2.40305E+02 -1.47758E+04 -9.58149E+03
 -8.09955E+03 -2.05480E+04  2.94278E+03 -1.95257E+04  1.41905E+04 -1.62409E+04  2.01600E+04 -5.22246E+03
  1.78711E+04  1.64613E+03  1.09946E+04  1.11026E+04  3.02668E+03  1.40724E+04 -5.21928E+03  9.76939E+03
 -7.36276E+03  3.54914E+03 -3.97702E+03  7.48978E+02 -2.67379E+03 -1.61822E+03 -8.26727E+02  7.77648E+01
 -2.39453E+03  1.08283E+03 -1.99920E+03 -3.11020E+02 -1.83112E+03 -3.39788E+03  1.31268E+03 -4.25095E+03
  6.19986E+03 -5.38293E+03  1.06353E+04 -5.99827E+02  8.47580E+03  9.16630E+03  2.33273E+03  1.57924E+04
 -4.96156E+03  1.50217E+04 -1.55308E+04  6.77646E+03 -1.73798E+04 -1.36569E+03 -1.46353E+04 -1.16794E+04
 -5.73741E+03 -1.55699E+04  3.25960E+03 -1.43114E+04  1.04179E+04 -7.48359E+03  9.59244E+03 -8.81595E+02
  6.92941E+03  5.20842E+03 -9.99575E+02  3.94550E+03 -2.36986E+03  1.35166E+03  9.77478E+02 -4.02439E+03
  2.30022E+03 -3.66231E+03  5.27657E+03  3.29362E+03  3.21668E+03  5.53884E+03 -8.93215E+02  8.45515E+03
 -7.63129E+03  5.40533E+03 -1.09690E+04  7.15193E+02 -7.26037E+03 -7.85377E+03 -2.54436E+02 -1.26722E+04
  7.92444E+03 -1.13269E+04  1.11076E+04 -4.65143E+03  1.10177E+04  3.14397E+03  7.07978E+03  8.80008E+03
  8.67772E+02  1.18196E+04 -3.68663E+03  8.54734E+03 -6.96300E+03  3.71291E+03 -7.00864E+03 -2.43508E+02
 -3.10872E+03 -7.89049E+02 -3.52881E+03  1.78531E+03 -4.10195E+03  2.28729E+03 -7.42855E+03 -2.66231E+03
 -6.32398E+03 -4.06183E+03 -2.14994E+03 -7.96192E+03  5.17329E+03 -9.94590E+03  8.22242E+03 -4.68377E+03
  1.17776E+04  4.54440E+02  5.46764E+03  7.03964E+03 -8.44126E+02  8.67480E+03 -8.15699E+03  6.76069E+03
