 $NMID ID='MM_0lb_SNR200_19hz_g45_5.RAW', FMTDAT='(8E13.5)'
 TRAMP=1., VOLUME=1. $END
  3.10665E+05  6.60819E+02  3.36937E+05  2.51107E+05  8.40824E+04  3.37021E+05 -1.31659E+05  2.50864E+05
 -1.90594E+05  8.18605E+04 -1.09338E+05 -3.30953E+04  1.83395E+03 -5.02656E+04  5.56910E+04  4.12581E+01
  3.49450E+04  5.36601E+04 -1.73698E+04  7.55907E+04 -5.97493E+04  6.26074E+04 -8.30060E+04  3.05106E+04
 -7.95505E+04 -1.06230E+04 -5.68022E+04 -5.01220E+04 -1.39687E+04 -6.69509E+04  2.60298E+04 -4.46007E+04
  3.84730E+04  4.16021E+03  1.49959E+04  4.82052E+04 -3.38232E+04  4.56938E+04 -6.42358E+04 -2.42401E+02
 -5.16915E+04 -5.57489E+04 -6.29453E+03 -7.49908E+04  3.34220E+04 -5.34742E+04  4.67605E+04 -1.74919E+04
  4.17667E+04  1.15442E+04  2.97143E+04  2.38595E+04  1.60357E+04  2.72263E+04 -4.40372E+03  2.66656E+04
 -2.21276E+04  1.30194E+04 -2.01720E+04 -3.97274E+03  4.07162E+03 -7.81349E+03  2.13784E+04  9.37938E+03
  6.44920E+03  3.18023E+04 -2.85980E+04  3.30057E+04 -6.14062E+04  2.21940E+03 -5.35879E+04 -4.12859E+04
 -1.19651E+04 -6.02821E+04  3.79891E+04 -4.32881E+04  5.45513E+04 -1.26664E+03  3.18974E+04  2.95740E+04
 -7.29315E+03  3.28625E+04 -2.76762E+04  1.23059E+04 -2.68260E+04 -5.20205E+03 -1.40631E+04 -9.53099E+03
 -7.23195E+03 -1.03556E+04 -2.52420E+03 -1.60490E+04  7.28632E+03 -2.28444E+04  1.50648E+04 -1.48399E+04
  1.24413E+04  4.27432E+03 -6.19305E+03  1.30272E+04 -1.91465E+04 -2.32311E+03 -8.33548E+03 -2.95979E+04
  2.01282E+04 -4.00942E+04  4.43719E+04 -1.87403E+04  4.13489E+04  1.78847E+04  1.30856E+04  4.21494E+04
 -1.48844E+04  3.19581E+04 -2.40995E+04  1.38127E+03 -6.93139E+03 -2.59721E+04  1.97941E+04 -3.08371E+04
  3.71165E+04 -7.53878E+03  3.02620E+04  2.21324E+04  1.51495E+04  4.20792E+04 -6.94293E+03  4.51934E+04
 -2.75202E+04  2.87899E+04 -3.66080E+04  7.77551E+03 -3.77597E+04 -1.51107E+04 -2.15107E+04 -3.42501E+04
  6.16267E+03 -3.43209E+04  2.77057E+04 -1.26416E+04  2.66387E+04  1.02597E+04  2.97362E+03  1.70144E+04
 -1.26734E+04  7.45753E+03 -8.09831E+03 -7.81272E+03  6.16571E+03 -1.03730E+04  1.75625E+04  5.60001E+03
  1.13238E+04  2.06751E+04 -7.25059E+03  2.33344E+04 -2.19092E+04  9.31238E+03 -2.52241E+04 -6.46890E+03
 -1.64832E+04 -1.60237E+04 -5.27364E+03 -1.60954E+04  2.63106E+03 -1.33965E+04  1.17408E+04 -1.32195E+04
  2.06652E+04 -1.20564E+04  2.68878E+04  1.09856E+03  2.21724E+04  1.55836E+04  4.28998E+03  3.14797E+04
 -1.61184E+04  2.72917E+04 -2.45626E+04  9.80277E+03 -2.02180E+04 -1.02084E+04 -4.46714E+03 -1.50243E+04
  3.41154E+03 -3.72910E+03 -2.12357E+03  4.93428E+03 -1.17868E+04  5.44848E+03 -1.30947E+04 -4.45049E+03
 -9.32161E+03 -1.54538E+04  5.75109E+03 -1.84321E+04  1.25974E+04 -1.39204E+04  1.37398E+04 -1.56211E+03
  7.63189E+03  1.05566E+04 -4.46432E+02  1.51293E+04 -9.01104E+03  8.86205E+03 -1.40266E+04 -3.08742E+03
 -1.17425E+04 -1.40709E+04 -1.56228E+03 -1.82061E+04  8.16714E+03 -1.47490E+04  1.57893E+04 -7.28559E+03
  1.38111E+04  1.64509E+03  1.05620E+04  3.45654E+03  5.01849E+03  4.64736E+02  6.51144E+03 -1.41252E+03
  1.37054E+04  2.83492E+03  1.36149E+04  1.13049E+04  1.03282E+04  2.37377E+04 -3.80303E+03  2.65000E+04
 -1.54943E+04  1.91299E+04 -2.35055E+04  8.72770E+03 -2.33360E+04 -2.06629E+03 -2.07340E+04 -1.31251E+04
 -9.88893E+03 -2.04489E+04  6.32154E+03 -1.82776E+04  1.63085E+04 -1.06134E+04  1.44483E+04  4.06714E+03
  6.43373E+03  1.04535E+04 -7.80971E+03  9.90849E+03 -1.31247E+04  3.41698E+03 -1.05139E+04 -6.98389E+03
 -2.42175E+02 -1.13203E+04  6.02555E+03 -8.42504E+03  8.50455E+03 -1.01284E+03  8.12617E+02  4.95236E+03
 -5.02791E+03  8.39126E+02 -3.52181E+03 -3.82154E+03  9.15310E+02 -1.00985E+04  8.10063E+03 -9.45956E+03
  1.07692E+04 -4.23870E+03  1.15104E+04  2.11660E+03  9.50753E+03  8.17540E+03  3.91577E+03  1.27374E+04
 -9.23172E+02  1.51948E+04 -8.53180E+03  9.31591E+03 -1.03930E+04  2.63716E+03 -8.28699E+03 -2.39818E+03
 -3.38453E+03 -2.89320E+03 -1.27170E+03  1.46371E+03 -8.02547E+02  2.36925E+03 -3.17660E+03  3.69838E+03
 -7.79828E+03 -5.72271E+02 -7.95490E+03 -6.94489E+03 -4.02942E+03 -1.08327E+04  3.33131E+03 -8.00483E+03
  6.89540E+03 -4.06367E+03  5.07119E+03  2.46349E+03  1.51697E+03  2.60821E+03 -3.30294E+03 -8.31135E+01
 -3.10634E+03 -4.45838E+03 -1.16703E+03 -6.43308E+03  3.72363E+03 -6.08390E+03  8.76937E+03 -3.73460E+03
  1.06359E+04  8.82911E+02  8.79577E+03  6.12788E+03  1.80172E+03  8.29614E+03 -5.86278E+03  8.58041E+03
 -5.38692E+03  3.42365E+03 -3.56600E+03 -9.83913E+02  6.88795E+02 -1.93735E+03  4.08011E+03 -1.34251E+03
  3.86668E+03  3.81222E+03  7.59900E+02  5.80604E+03 -3.99698E+03  6.14459E+03 -7.56641E+03  9.35486E+02
 -5.77901E+03 -2.98421E+03  1.31725E+00 -5.54577E+03  3.66567E+03 -3.59543E+03  4.06609E+03  3.71953E+02
  5.47966E+02  3.01139E+03 -3.95275E+03  5.06631E+03 -4.44377E+03  3.43545E+03 -3.12100E+03 -4.69315E+01
 -3.05823E+03 -5.57178E+03  9.09401E+02 -6.20114E+03  4.84063E+03 -4.80521E+03  6.41562E+03 -2.88743E+02
  3.18761E+03  4.13437E+03  5.60603E+02  7.58119E+03 -5.48332E+03  3.69940E+03 -4.89959E+03 -1.21814E+03
 -5.25129E+03 -5.13808E+03 -2.96438E+02 -4.80682E+03  2.51652E+03 -3.73960E+03  2.04188E+03 -3.31492E+03
  3.10401E+03 -5.13227E+02  2.84058E+02  9.11081E+02  9.98614E+02  1.16723E+02  2.43687E+02 -1.03516E+03
  2.58107E+03 -3.27609E+02  5.83698E+03  2.56298E+02  5.11198E+03  2.50692E+03  4.75273E+03  6.04236E+03
 -1.73497E+02  6.68997E+03 -7.58478E+03  5.87146E+03 -9.68009E+03  6.11213E+02 -7.20290E+03 -2.21455E+03
 -3.12980E+03 -5.11859E+03  2.26514E+01 -5.83392E+03  1.83554E+03 -1.56976E+03  1.02376E+03 -2.39249E+03
  1.06066E+03 -1.25189E+03  2.97835E+03 -1.76416E+03  4.91906E+03 -8.29070E+02  2.58920E+03  1.23096E+03
  4.01663E+03  1.63687E+03  2.28178E+03  2.95141E+03 -9.54682E+02  2.78108E+03 -3.89965E+03  2.70010E+03
 -4.15206E+03 -3.99042E+02 -2.35050E+03 -2.82631E+03 -7.53581E+01 -4.24876E+03  4.50908E+03 -5.02000E+03
  4.42667E+03 -3.85385E+03  5.92359E+03  7.84158E+02  4.64488E+03  3.52849E+03  1.16262E+03  4.45171E+03
 -2.24786E+03  5.47658E+03 -3.51005E+03  2.24836E+03 -1.40607E+03 -2.43628E+03  1.41354E+02  7.30459E+02
 -9.30344E+02  3.18436E+02 -9.49383E+02  1.60953E+03 -2.26731E+03  1.42786E+03 -3.22550E+03 -5.30713E+02
 -4.08691E+02 -4.45550E+03  1.04224E+03 -4.57772E+03  3.16679E+03 -3.67587E+03  3.05138E+03 -8.01254E+02
  4.04939E+03  2.18322E+03  1.01369E+03  3.29466E+03 -1.55801E+03  3.74175E+03 -2.06103E+03  1.82553E+03
 -4.50120E+03  9.48876E+02 -3.14293E+03 -1.90877E+03 -8.14747E+02 -2.57399E+03  8.10307E+02 -2.81129E+03
  2.30727E+03 -1.50913E+03  2.19032E+03  2.84791E+02  1.05438E+03  1.60137E+03  5.44107E+02  9.23985E+02
  1.85925E+03  7.37418E+02 -1.34043E+02  1.59548E+03  1.20805E+03  2.08707E+03  6.76840E+02  2.20105E+03
 -5.08029E+02  2.10342E+03 -2.88639E+03  3.77492E+03 -2.23171E+03  1.44862E+03 -4.23743E+03 -1.11770E+03
 -1.18934E+03 -3.37438E+03 -6.14148E+00 -4.20025E+03  2.60250E+03 -2.07586E+03  2.38322E+03  5.76251E+02
  2.78903E+03  1.81717E+03 -8.43807E+02  2.06584E+03 -8.81077E+02  1.33364E+03 -1.14813E+03 -1.69760E+02
 -6.10331E+02 -1.51805E+03  1.79602E+03 -1.56865E+03  5.50692E+02 -1.09910E+03  1.58508E+03  7.28317E+02
  9.55397E+02  5.51102E+02  5.84907E+02 -1.73618E+02 -5.37527E+02  1.10653E+03  1.40733E+03  3.63167E+02
  5.57013E+02 -3.52774E+02  1.08858E+03 -3.00443E+02 -3.18581E+02  2.01217E+03  1.51452E+01  2.43399E+03
 -2.20222E+03  8.60258E+02 -2.44974E+03  4.03243E+02 -2.23626E+03 -1.28088E+03  1.51938E+02 -1.17318E+03
 -5.95958E+02 -1.12397E+03  1.64988E+03 -4.42661E+02  3.35560E+02  1.00392E+03  2.72845E+02  1.08438E+03
 -1.06629E+03  3.32253E+02 -7.04508E+02 -1.34332E+03 -6.98638E+02 -1.41108E+03 -9.24782E+02 -1.98034E+03
  1.04569E+03 -2.83554E+02 -6.24192E+02  1.16406E+02  1.91670E+03  2.24744E+02  2.32495E+02  1.59110E+03
 -8.64727E+02  8.70311E+02 -1.17953E+03  1.78208E+02  2.85697E+02 -1.75802E+02  1.49272E+03 -9.38050E+02
  8.19797E+02  2.42659E+02  2.96106E+03  7.08051E+02  1.61443E+03  4.15066E+02  1.07276E+02  1.85803E+03
 -3.51750E+02  1.14863E+03 -1.16127E+03 -4.61023E+02 -4.17081E+02 -5.52008E+02  7.19023E+02 -5.51048E+02
  7.22785E+02 -4.48872E+02  9.15615E+02  5.05772E+02  1.76105E+02  7.41945E+02  3.51076E+02  1.32742E+03
 -2.86229E+02  1.12071E+03 -6.25734E+02 -6.24997E+02 -7.99553E+01  1.09772E+03 -1.12083E+03  1.23059E+03
  4.87268E+02  9.49860E+02 -1.88325E+03  2.88276E+02 -1.48294E+02 -3.82588E+02 -2.00521E+03 -8.61182E+02
 -1.08649E+03 -2.26759E+03  3.07519E+02 -2.26515E+03  1.67939E+03 -2.13185E+03  2.39194E+03 -1.46483E+03
  2.05981E+03 -8.08076E+02  1.66676E+03  1.73858E+03 -1.26062E+03  5.80452E+02 -1.02717E+03  1.66196E+03
 -1.03636E+03  3.98374E+02 -1.98896E+02 -1.03237E+03 -7.54068E+02 -2.03779E+02 -7.90035E+02  2.55823E+02
 -1.02606E+03 -8.21942E+02 -1.03240E+03 -7.94136E+00  8.81553E+01 -2.54535E+03 -2.10551E+03 -7.98977E+02
  5.25524E+02 -5.82737E+02  8.42055E+02  7.95280E+02  2.28087E+03  1.27179E+03 -5.76544E+02  2.00828E+03
 -1.22665E+03  3.72667E+03 -1.74792E+03  1.51420E+03 -1.05458E+03  1.11933E+02 -1.52612E+03 -7.62023E+02
 -3.53030E+02 -1.40618E+03  9.82146E+02 -9.13688E+02 -1.22259E+02 -4.63924E+01 -3.23057E-01  4.37428E+02
 -1.53371E+02  1.93877E+02  1.57947E+02 -5.14698E+02 -2.32438E+02 -1.95167E+02  1.19419E+02 -1.16649E+02
  5.79598E+02 -9.91618E+02 -2.16090E+02  1.94042E+02  1.28466E+03  6.62967E+02 -3.62492E+02 -3.97174E+02
 -1.06277E+03  1.17360E+03 -7.59501E+02  9.63489E+02 -7.67744E+02  4.28259E+02  2.55797E+02 -7.65688E+02
  7.10776E+02 -8.82035E+02  5.52496E+02  3.56354E+02 -4.78898E+02 -5.30345E+02  4.99939E+02 -3.41525E+02
  6.49492E+02 -7.58355E+02 -7.93498E+02  6.69368E+02  4.17938E+02  2.60375E+02  7.57340E+02 -6.35988E+01
 -1.23169E+03  2.29189E+02  5.43990E+02 -1.41096E+03 -2.21949E+02 -6.43900E+02  9.07699E+01 -1.48232E+03
 -3.40221E+02 -2.28557E+02 -4.02600E+02 -1.02640E+02  6.48714E+02 -1.72857E+03  6.87579E+02  1.02289E+02
  1.47498E+03  3.98407E+02 -1.41583E+01 -3.54407E+02  6.86634E+02  1.63954E+03 -1.78879E+02  2.15271E+02
