 $NMID ID='MM_0lb_SNR200_18hz_g50_74.RAW', FMTDAT='(8E13.5)'
 TRAMP=1., VOLUME=1. $END
  3.09033E+05 -7.25315E+02  3.36748E+05  2.50034E+05  8.46796E+04  3.38003E+05 -1.32941E+05  2.49525E+05
 -1.90265E+05  8.23198E+04 -1.10539E+05 -3.26924E+04  2.62558E+03 -5.00887E+04  5.38613E+04  6.42108E+02
  3.58889E+04  5.27545E+04 -1.73466E+04  7.51310E+04 -6.02205E+04  6.30874E+04 -8.25995E+04  3.23026E+04
 -7.96189E+04 -1.10601E+04 -5.68911E+04 -5.03266E+04 -1.51808E+04 -6.79996E+04  2.66860E+04 -4.45811E+04
  3.86801E+04  3.42160E+03  1.60302E+04  4.68336E+04 -3.51467E+04  4.66520E+04 -6.63255E+04  3.36268E+02
 -5.21715E+04 -5.72933E+04 -6.97442E+03 -7.62084E+04  3.44189E+04 -5.31435E+04  4.61941E+04 -1.65224E+04
  4.13161E+04  1.11113E+04  3.09439E+04  2.50196E+04  1.60514E+04  2.84181E+04 -4.64746E+03  2.66393E+04
 -2.04537E+04  1.32480E+04 -1.97300E+04 -5.32258E+03  4.77157E+03 -6.88302E+03  2.13586E+04  1.13030E+04
  7.86873E+03  3.36379E+04 -3.08594E+04  3.46391E+04 -6.28309E+04  2.44702E+03 -5.54330E+04 -4.19206E+04
 -1.17636E+04 -6.25056E+04  3.89271E+04 -4.35819E+04  5.55975E+04 -2.12089E+03  3.18808E+04  3.27412E+04
 -6.29941E+03  3.27559E+04 -2.77457E+04  1.50017E+04 -2.91350E+04 -5.37788E+03 -1.47809E+04 -1.11504E+04
 -8.08647E+03 -1.27054E+04 -1.73242E+03 -1.69589E+04  7.09726E+03 -2.19946E+04  1.57997E+04 -1.45371E+04
  1.01867E+04  4.82281E+03 -6.60908E+03  1.20032E+04 -2.05079E+04 -4.32904E+03 -8.64995E+03 -3.02759E+04
  2.08722E+04 -4.15159E+04  4.54268E+04 -1.74039E+04  4.30074E+04  1.83116E+04  1.50294E+04  4.15752E+04
 -1.46741E+04  3.11033E+04 -2.32319E+04  1.30746E+03 -8.61311E+03 -2.59159E+04  1.96359E+04 -3.15475E+04
  3.89313E+04 -8.49298E+03  3.23024E+04  2.34562E+04  1.59993E+04  4.33633E+04 -7.91145E+03  4.57125E+04
 -2.81563E+04  3.10848E+04 -3.85237E+04  8.69421E+03 -3.94648E+04 -1.50923E+04 -2.24089E+04 -3.55034E+04
  6.87864E+03 -3.48337E+04  2.92471E+04 -1.29512E+04  2.70752E+04  1.10043E+04  2.89830E+03  1.81580E+04
 -1.24685E+04  7.05760E+03 -1.06569E+04 -8.29246E+03  5.72338E+03 -9.27607E+03  1.73915E+04  5.66329E+03
  1.30833E+04  2.23503E+04 -6.00787E+03  2.40668E+04 -2.18157E+04  9.83390E+03 -2.56419E+04 -6.17063E+03
 -1.73637E+04 -1.60008E+04 -6.82353E+03 -1.81749E+04  4.36061E+03 -1.64291E+04  1.32269E+04 -1.64885E+04
  2.34768E+04 -1.03394E+04  2.94688E+04  8.78229E+02  2.25554E+04  1.75190E+04  3.94814E+03  3.29686E+04
 -1.63990E+04  2.82063E+04 -2.58148E+04  9.71441E+03 -1.94652E+04 -1.08525E+04 -3.84179E+03 -1.40633E+04
  2.85044E+03 -3.54010E+03 -3.10568E+03  5.32194E+03 -1.19881E+04  5.36639E+03 -1.29459E+04 -5.34048E+03
 -8.19245E+03 -1.54453E+04  5.26879E+03 -2.10538E+04  1.34418E+04 -1.45161E+04  1.60712E+04 -8.86533E+02
  9.80297E+03  1.15606E+04 -3.96586E+02  1.64623E+04 -1.10188E+04  9.19916E+03 -1.68753E+04 -3.08264E+03
 -1.17880E+04 -1.55706E+04 -8.45515E+02 -1.98866E+04  9.79362E+03 -1.65369E+04  1.71635E+04 -7.88791E+03
  1.55132E+04  7.67980E+02  1.02264E+04  4.11350E+03  4.85104E+03  1.54946E+03  8.55101E+03 -1.04842E+03
  1.40865E+04  2.51477E+03  1.53673E+04  1.31328E+04  9.33113E+03  2.63142E+04 -2.25141E+03  2.82756E+04
 -1.62460E+04  2.15347E+04 -2.62602E+04  1.07553E+04 -2.54659E+04 -2.21915E+03 -2.25416E+04 -1.58019E+04
 -8.88358E+03 -2.21887E+04  6.79323E+03 -1.90411E+04  1.74824E+04 -1.06272E+04  1.63598E+04  3.36787E+03
  5.99011E+03  1.22027E+04 -7.49721E+03  1.07830E+04 -1.34868E+04  3.54475E+03 -1.01866E+04 -9.03425E+03
 -1.00386E+03 -1.30183E+04  6.47771E+03 -1.07244E+04  7.58218E+03 -8.29934E+02  3.71786E+02  5.46352E+03
 -6.78237E+03  2.19271E+03 -4.18616E+03 -4.51550E+03  2.28555E+02 -1.12553E+04  7.87018E+03 -1.08223E+04
  1.33308E+04 -4.92974E+03  1.35392E+04  2.57951E+03  1.23196E+04  9.63983E+03  4.83795E+03  1.56752E+04
 -2.32895E+03  1.60064E+04 -9.71185E+03  1.12002E+04 -1.20610E+04  3.06945E+03 -8.18011E+03 -1.68940E+03
 -4.59642E+03 -4.77242E+03 -6.35485E+02  1.49722E+03 -2.53995E+03  1.50779E+03 -4.15223E+03  3.81168E+03
 -8.23476E+03 -8.21150E+02 -8.56537E+03 -7.56000E+03 -3.33633E+03 -1.19556E+04  3.71407E+03 -8.95965E+03
  8.19373E+03 -4.29925E+03  5.44240E+03  2.08305E+03  6.08652E+01  3.71180E+03 -4.95224E+03 -4.39445E+02
 -3.34809E+03 -5.33970E+03 -7.63139E+02 -7.67754E+03  4.21138E+03 -9.76509E+03  9.61832E+03 -3.54274E+03
  1.19805E+04  1.04827E+03  9.08746E+03  6.77918E+03  1.53730E+03  1.00557E+04 -6.30548E+03  8.19279E+03
 -7.57239E+03  2.29337E+03 -2.95711E+03 -1.69538E+03  1.09097E+03 -2.68327E+03  4.82696E+03 -2.14726E+03
  5.04484E+03  4.35291E+03  1.15626E+03  7.25262E+03 -3.93986E+03  6.78262E+03 -8.59704E+03  1.87166E+03
 -6.95542E+03 -4.56064E+03 -1.96379E+02 -7.57950E+03  3.83004E+03 -3.00588E+03  4.68788E+03  1.76183E+03
  1.82750E+03  4.95336E+03 -4.11820E+03  5.23845E+03 -6.29274E+03  3.58547E+03 -4.52646E+03 -1.45351E+03
 -2.63178E+03 -6.01025E+03  4.98400E+02 -7.70904E+03  6.40990E+03 -4.97388E+03  7.15996E+03  1.46733E+03
  6.35405E+03  5.55599E+03 -7.03728E+02  8.34125E+03 -5.56676E+03  4.77177E+03 -4.94128E+03 -9.00747E+02
 -6.40120E+03 -5.65444E+03  5.42957E+00 -5.55502E+03  3.00704E+03 -4.58549E+03  3.42418E+03 -3.75625E+03
  3.60639E+03 -3.75253E+02 -1.35755E+01  1.99012E+03 -7.45557E+02 -8.53158E+01  6.02613E+02 -2.30261E+03
  4.29432E+03 -1.41347E+03  6.34081E+03  1.77742E+03  5.84802E+03  3.58948E+03  4.85331E+03  7.28599E+03
 -1.03955E+03  9.22832E+03 -8.23288E+03  6.98973E+03 -1.03071E+04  3.73718E+02 -8.32676E+03 -2.46317E+03
 -4.24291E+03 -7.62521E+03 -9.65086E+02 -4.49036E+03  2.61691E+03 -1.11276E+03  1.12643E+03 -1.98867E+03
  1.66541E+03 -1.36934E+03  2.51448E+03 -2.16563E+03  3.79895E+03 -8.59322E+02  3.19667E+03  1.41836E+03
  4.78700E+03  1.71750E+03  2.35690E+03  3.83504E+03 -1.80101E+03  2.58033E+03 -5.42317E+03  2.27958E+03
 -5.03441E+03 -9.29526E+02 -2.84538E+03 -3.06693E+03  2.83334E+00 -5.50168E+03  3.16398E+03 -6.95082E+03
  5.49410E+03 -2.99776E+03  6.68389E+03  1.78030E+03  5.27239E+03  4.46816E+03  1.51812E+03  6.49630E+03
 -3.09426E+03  6.41871E+03 -4.87575E+03  1.73272E+03 -1.20476E+03 -8.72554E+02 -1.89107E+02 -1.01238E+03
  2.70356E+02  3.47146E+02 -5.34249E+02  2.23251E+03 -3.00495E+03  1.92154E+03 -4.52709E+03 -2.41120E+02
 -2.12502E+03 -3.93058E+03  1.27001E+03 -5.39712E+03  2.38447E+03 -4.65707E+03  3.17234E+03 -1.19709E+03
  3.77560E+03  3.01287E+03  5.48969E+02  4.12104E+03 -8.49839E+02  4.37846E+03 -2.57417E+03  3.16411E+03
 -3.73848E+03 -1.77528E+02 -3.94182E+03 -2.61302E+03 -6.35091E+02 -3.89579E+03  3.21223E+03 -2.51956E+03
  4.20066E+03 -2.67742E+02  1.93994E+03  6.43659E+02 -4.34822E+02  1.02215E+03  5.41487E+02  6.94938E+02
  9.63327E+02  1.40221E+03  1.09312E+03  1.00465E+03  1.61164E+03  1.63085E+03  1.10152E+03  1.32768E+03
 -1.53451E+03  3.29844E+03 -3.11006E+03  3.25746E+03 -4.32274E+03  5.16850E+02 -4.28408E+03 -6.25588E+02
 -2.58304E+03 -4.01066E+03  1.13555E+02 -5.29385E+03  2.24655E+03 -1.65536E+03  3.12102E+03 -1.05142E+01
  3.14979E+03  1.98228E+03  7.78996E+02  1.84617E+03 -1.58600E+03  9.91969E+02 -9.16798E+02  1.30506E+01
 -1.10456E+03 -1.50323E+03  1.14866E+03 -1.97575E+03  9.16033E+02 -4.64015E+02  1.30409E+03 -7.64190E+02
  1.11524E+03  7.37821E+02  8.63456E+02 -7.00657E+02  2.19440E+02  2.43652E+03  2.09065E+03 -8.79404E+01
 -6.14411E+02 -1.39740E+03  1.16816E+03  6.01883E+02  3.32674E+02  3.08400E+03 -3.28713E+02  2.21081E+03
 -9.74393E+02  1.32342E+03 -2.25994E+03 -5.28540E+02 -2.57967E+03 -8.15769E+02 -9.00020E-01 -8.82258E+02
  5.76959E+01 -1.35937E+03  8.83224E+02 -5.78942E+02  4.60963E+02  9.79377E+02 -1.92749E+03  1.11129E+03
 -1.17930E+03  3.74576E+02 -1.65546E+03 -1.28674E+03 -6.16422E+02 -2.71352E+03  2.62813E+01 -1.29960E+03
  4.92252E+02 -4.40163E+02  1.74520E+03 -3.91138E+02  1.54249E+03 -1.62442E+01  9.30174E+02  1.42984E+03
 -6.35941E+02 -4.83502E+01 -1.16736E+03 -3.27689E+02  1.28856E+03 -6.93820E+02  2.24673E+03 -7.34800E+02
  8.70198E+02  2.08646E+02  3.69237E+03  8.30292E+02  1.49040E+03  1.26454E+03 -5.47112E+02  2.69484E+03
 -3.27534E+03  1.12484E+03 -1.87868E+03 -8.67291E+02 -4.53044E+02 -1.46365E+03  5.28431E+02 -4.93537E+02
  1.49801E+03 -2.89160E+02  1.60394E+03  9.10326E+02 -1.11018E+02  8.60775E+02  2.68320E+01  1.06690E+03
 -8.88525E+02  3.00691E+01 -1.03938E+03 -3.70736E+02  3.34203E+01 -2.43345E+02  9.19068E+01  8.75742E+02
 -1.28921E+03  4.23190E+02 -1.18916E+03  1.01340E+03 -1.67025E+03  1.48174E+02 -2.84076E+03 -1.07997E+03
 -1.04198E+03 -2.18746E+03  1.71851E+02 -3.24891E+03  1.42125E+03 -3.12221E+03  3.28927E+03 -1.36823E+03
  2.09794E+03 -9.00244E+02  5.60312E+02  2.07743E+03 -4.94439E+02  8.02581E+02 -6.17344E+02  2.10566E+02
 -3.71618E+02  8.25150E+02 -1.11291E+03 -6.82385E+02 -1.06104E+03  4.54631E+02  5.44262E+01 -5.99735E+02
 -1.79860E+03  7.67044E+02 -1.19484E+03  1.03382E+02  3.42881E+02 -8.49116E+01 -2.88430E+02 -1.28080E+03
  1.35786E+03 -9.27046E+02  2.37097E+02  3.55204E+02  1.54403E+03  2.47948E+03 -1.15793E+03  1.76954E+03
 -2.23814E+03  2.40299E+03 -1.46760E+03  1.03051E+03 -2.03170E+03  9.53475E+02 -1.03393E+03 -1.75121E+03
 -7.08464E+02 -1.72637E+03  8.22475E+02 -1.58112E+03  2.06041E+03 -1.52694E+03  1.93276E+03  9.19569E+02
  2.72368E+02  1.09790E+03 -8.80676E-03  7.05445E+02  1.49775E+02  8.81635E+01 -5.85227E+02 -3.93027E+02
  3.47233E+02  2.06655E+02  3.35563E+02  1.52146E+02  6.66820E+02  4.10260E+02  4.59299E+01  4.24851E+01
 -4.04502E+02  1.49292E+03  1.79183E+02  8.18069E+01 -3.78522E+01 -5.48891E+02 -1.42575E+02 -1.82085E+03
  1.72428E+03 -6.40189E+02  1.21774E+03  5.41526E+02  1.31954E+03 -2.27125E+02  3.84601E+02  1.05675E+03
  8.85152E+02 -1.96286E+02 -4.52956E+02  2.70819E+02 -1.28632E+03  4.83504E+02 -1.88125E+02  2.07380E+02
  7.99336E+02  2.20301E+02 -4.10103E+02 -1.67929E+02 -1.26664E+03 -5.37199E+02 -1.75674E+03 -4.90955E+02
 -1.20023E+03  1.49972E+03 -4.04300E+02 -8.86688E+02 -1.14507E+02 -1.47875E+03  6.81070E+02 -1.21789E+02
  1.00582E+03  5.56517E+02  5.52066E+02  7.96095E+02 -6.89331E+02  1.58813E+03 -7.21467E+02  8.22137E+02
