 $NMID ID='MM_0lb_SNR200_8hz_g50_5.RAW', FMTDAT='(8E13.5)'
 TRAMP=1., VOLUME=1. $END
  3.10790E+05  1.75687E+03  3.37210E+05  2.51996E+05  8.23665E+04  3.38427E+05 -1.33012E+05  2.51837E+05
 -1.90094E+05  8.51141E+04 -1.13156E+05 -3.09682E+04  4.43354E+02 -5.08704E+04  5.52578E+04 -8.81109E+02
  3.54640E+04  5.43109E+04 -1.70092E+04  7.44674E+04 -6.13797E+04  6.37806E+04 -8.58641E+04  3.32001E+04
 -8.26482E+04 -1.07920E+04 -6.02229E+04 -5.28644E+04 -1.46975E+04 -7.16096E+04  2.72794E+04 -4.70794E+04
  4.07584E+04  2.83471E+03  1.64941E+04  4.93700E+04 -3.50545E+04  4.83297E+04 -6.85980E+04 -6.23458E+02
 -5.53422E+04 -5.84149E+04 -6.33563E+03 -7.90999E+04  3.55842E+04 -5.66893E+04  5.03242E+04 -1.80376E+04
  4.53695E+04  1.10055E+04  3.14997E+04  2.63765E+04  1.63848E+04  3.20051E+04 -4.35886E+03  2.61668E+04
 -2.16247E+04  1.08950E+04 -1.73837E+04 -4.80944E+03  7.09396E+03 -7.90090E+03  2.39192E+04  1.18081E+04
  7.77685E+03  3.70183E+04 -3.35150E+04  3.77139E+04 -6.57485E+04  1.84755E+03 -5.90751E+04 -4.33199E+04
 -1.35536E+04 -6.65046E+04  4.23017E+04 -4.93217E+04  6.17250E+04 -2.86768E+03  3.61234E+04  3.50774E+04
 -6.24773E+03  3.96224E+04 -3.11810E+04  1.96164E+04 -3.44083E+04 -2.91348E+03 -2.14483E+04 -1.20418E+04
 -8.46077E+03 -1.62176E+04 -5.75083E+02 -2.00108E+04  1.00893E+04 -2.38142E+04  1.44975E+04 -1.25389E+04
  1.13239E+04  6.53081E+03 -1.15827E+04  1.20195E+04 -2.32695E+04 -7.41210E+03 -9.25300E+03 -3.75188E+04
  2.55773E+04 -4.59093E+04  5.41544E+04 -2.14253E+04  4.97974E+04  2.06571E+04  1.72618E+04  4.72553E+04
 -1.52449E+04  3.58306E+04 -2.84954E+04  1.84078E+03 -1.18672E+04 -2.80051E+04  2.18313E+04 -3.83684E+04
  4.68793E+04 -1.17088E+04  4.10398E+04  2.55719E+04  2.20379E+04  5.28404E+04 -7.01471E+03  5.75760E+04
 -3.44320E+04  4.05619E+04 -4.87530E+04  9.90422E+03 -4.74586E+04 -1.85607E+04 -2.77249E+04 -4.28699E+04
  9.48689E+03 -4.46044E+04  3.51681E+04 -1.87903E+04  3.27832E+04  1.12217E+04  6.30040E+03  2.01566E+04
 -1.28369E+04  1.13466E+04 -1.17889E+04 -7.34482E+03  7.23258E+03 -1.06244E+04  1.69157E+04  4.81496E+03
  1.41663E+04  2.34916E+04 -6.26484E+03  2.61450E+04 -2.27395E+04  1.43218E+04 -3.09595E+04 -2.10862E+03
 -2.61261E+04 -2.06111E+04 -1.18946E+04 -2.50054E+04  1.54397E+03 -2.47673E+04  2.04504E+04 -2.42311E+04
  3.34740E+04 -1.23215E+04  3.97021E+04  5.76691E+03  2.75036E+04  2.50416E+04  5.36290E+03  4.28716E+04
 -2.23764E+04  3.27792E+04 -3.02709E+04  1.20464E+04 -2.29994E+04 -9.59406E+03 -5.36119E+03 -1.16225E+04
  1.68817E+03 -1.04656E+03 -7.32626E+03  8.17431E+03 -1.94993E+04  4.42802E+03 -2.26060E+04 -1.09428E+04
 -1.18950E+04 -2.40217E+04  6.61180E+03 -2.93839E+04  1.97841E+04 -1.95828E+04  2.45815E+04 -1.95776E+03
  1.48861E+04  1.63384E+04 -1.54303E+03  2.51755E+04 -1.56885E+04  1.47111E+04 -2.47514E+04 -6.87013E+03
 -1.75359E+04 -2.19682E+04 -2.25278E+03 -2.72673E+04  1.30460E+04 -2.40659E+04  2.44604E+04 -1.27990E+04
  2.27889E+04 -3.51977E+02  1.65838E+04  4.48702E+03  1.01183E+04  4.79492E+02  1.39921E+04 -2.94172E+03
  2.22579E+04  2.91405E+03  2.39275E+04  1.85765E+04  1.88406E+04  3.90821E+04 -3.95148E+03  4.55799E+04
 -2.54895E+04  3.86114E+04 -4.45988E+04  2.07091E+04 -4.66849E+04 -3.87953E+03 -3.88626E+04 -2.78829E+04
 -1.43115E+04 -3.84614E+04  1.57624E+04 -3.31926E+04  3.07187E+04 -1.70939E+04  2.51637E+04  8.04813E+03
  8.61492E+03  2.02357E+04 -1.35636E+04  1.63213E+04 -2.18871E+04  2.38750E+03 -1.56999E+04 -1.31175E+04
  1.70051E+03 -2.00358E+04  1.19371E+04 -1.46873E+04  1.25279E+04 -1.26742E+02  3.16113E+03  9.28463E+03
 -8.52192E+03  3.29196E+03 -7.98766E+03 -8.28194E+03 -1.91448E+03 -1.75530E+04  1.39395E+04 -2.14774E+04
  2.38907E+04 -1.23603E+04  2.63451E+04  3.06634E+03  2.45462E+04  1.93533E+04  1.01526E+04  3.13920E+04
 -4.64149E+03  3.32892E+04 -2.13590E+04  1.94450E+04 -2.39444E+04  5.20142E+03 -1.66057E+04 -7.57787E+03
 -6.01362E+03 -7.24547E+03 -1.79148E+03 -1.71519E+03 -2.84943E+03  3.91971E+03 -7.98575E+03  5.80501E+03
 -1.50633E+04  2.69360E+02 -1.56768E+04 -1.30508E+04 -7.86895E+03 -2.13290E+04  6.61444E+03 -1.71902E+04
  1.39748E+04 -6.89646E+03  1.07934E+04  3.36562E+03 -9.76661E+02  5.02219E+03 -7.86829E+03  3.31599E+02
 -6.70618E+03 -1.06582E+04 -1.55099E+03 -1.53773E+04  9.00599E+03 -1.76369E+04  2.09298E+04 -8.90533E+03
  2.43541E+04  2.77999E+03  1.83373E+04  1.45066E+04  4.01054E+03  2.05945E+04 -1.07340E+04  1.66374E+04
 -1.08529E+04  4.59723E+03 -6.70534E+03 -3.93895E+03  2.49612E+03 -4.10312E+03  9.93517E+03 -1.37322E+03
  8.08395E+03  7.48769E+03  8.97292E+02  1.43594E+04 -1.12905E+04  1.30561E+04 -1.71748E+04  1.97104E+03
 -1.28174E+04 -8.92290E+03 -1.18776E+03 -1.45240E+04  8.94013E+03 -9.49594E+03  1.02042E+04  4.58767E+03
  2.69954E+03  1.28584E+04 -9.10493E+03  1.16478E+04 -1.48858E+04  7.46161E+03 -1.54261E+04 -5.65515E+03
 -8.53111E+03 -1.68863E+04  3.20114E+03 -1.87229E+04  1.72056E+04 -1.08042E+04  1.82284E+04  3.52588E+03
  1.10581E+04  1.35648E+04 -1.78045E+02  1.94777E+04 -1.36849E+04  8.92427E+03 -1.39995E+04 -1.97827E+03
 -1.20902E+04 -9.71699E+03 -1.25817E+03 -1.32361E+04  6.51264E+03 -1.07450E+04  8.36736E+03 -2.82952E+03
  6.32773E+03  1.58578E+03 -2.45914E+03  2.28548E+03 -1.40740E+02 -4.15200E+03  1.83489E+03 -8.76170E+03
  1.12494E+04 -4.19732E+03  1.69719E+04  2.09089E+03  1.74750E+04  1.18389E+04  1.23587E+04  2.22891E+04
 -5.80056E+03  2.54551E+04 -2.21823E+04  2.03522E+04 -2.77401E+04  3.18747E+03 -2.45904E+04 -9.06395E+03
 -9.81942E+03 -1.93856E+04 -1.21220E+03 -1.55308E+04  6.75466E+03 -9.48510E+03  5.60081E+03 -7.52579E+03
  3.99044E+03 -3.54979E+03  4.75130E+03 -5.33146E+03  6.25149E+03 -3.97051E+03  8.21855E+03 -1.92112E+03
  1.18100E+04  3.26494E+03  6.42055E+03  9.91748E+03 -1.81699E+03  1.28580E+04 -1.36580E+04  1.02378E+04
 -1.63302E+04  1.19210E+03 -9.35100E+03 -1.20791E+04 -1.89568E+03 -1.78972E+04  9.78267E+03 -1.74876E+04
  1.79125E+04 -8.91169E+03  2.01460E+04  2.64568E+03  1.49863E+04  1.57662E+04  1.28813E+03  1.79546E+04
 -8.44320E+03  1.54920E+04 -1.06143E+04  5.07182E+03 -7.95165E+03 -2.46805E+03 -2.71153E+03 -3.40041E+03
 -1.12039E+03 -8.95944E+02 -1.77733E+03  3.19688E+03 -8.41097E+03  2.32579E+03 -1.24215E+04 -4.01056E+03
 -9.10961E+03 -1.07863E+04  4.32689E+02 -1.79373E+04  1.17173E+04 -1.65392E+04  1.66421E+04 -3.85349E+03
  1.64719E+04  7.10566E+03  6.46689E+03  1.42404E+04 -2.82667E+03  1.68687E+04 -1.16762E+04  1.08043E+04
 -1.50480E+04  9.66681E+02 -1.28179E+04 -1.19438E+04 -6.29308E+02 -1.37458E+04  7.64472E+03 -1.17302E+04
  1.17910E+04 -2.74647E+03  6.93617E+03  3.88489E+03  2.71543E+03  4.92743E+03  1.44184E+03  3.22476E+03
  1.36923E+03  2.10128E+03  4.56487E+03  2.08853E+03  6.07354E+03  5.70343E+03  4.02935E+03  8.42251E+03
 -4.37823E+03  1.34107E+04 -1.10287E+04  1.39051E+04 -1.65277E+04  2.39879E+03 -1.95848E+04 -8.16041E+03
 -8.81118E+03 -1.54712E+04  1.61594E+03 -1.82104E+04  1.11213E+04 -1.25937E+04  1.36759E+04 -4.40371E+03
  1.10249E+04  4.67877E+03  2.42539E+03  8.94977E+03 -4.96771E+03  7.47585E+03 -6.75898E+03 -4.31507E+02
 -4.19369E+03 -7.83405E+03  4.62401E+03 -9.24111E+03  6.95540E+03 -3.67826E+03  7.82094E+03  2.78969E+03
  5.03425E+03  3.93165E+03  8.53977E+02  4.18878E+03 -1.88772E+03  3.18857E+03  2.36951E+03 -1.02841E+03
  1.50723E+03 -1.50563E+03  7.28275E+03  3.54936E+03  3.33819E+03  8.78461E+03 -4.00479E+03  1.29436E+04
 -7.22773E+03  9.59147E+03 -1.31465E+04  3.54191E+03 -9.54168E+03 -2.87536E+03 -4.36956E+03 -6.31915E+03
  4.01177E+02 -6.79243E+03  3.85207E+03 -3.21200E+03  4.44518E+03  4.99312E+03 -1.04642E+03  5.56047E+03
 -6.01871E+03  4.67120E+03 -1.00692E+04 -3.69372E+03 -4.95169E+03 -9.04979E+03  1.74879E+03 -1.02831E+04
  6.86391E+03 -6.66384E+03  6.49690E+03 -7.58431E+02  6.18111E+03  2.59864E+03  6.50436E+02  5.23692E+03
 -5.11766E+03  2.21224E+03 -4.52469E+03 -4.51989E+03  1.46782E+03 -7.62932E+03  8.66356E+03 -6.44186E+03
  1.10589E+04  1.05497E+03  1.01973E+04  8.97706E+03  3.29930E+03  1.30909E+04 -3.57455E+03  9.96515E+03
 -9.90009E+03  5.56096E+03 -8.35218E+03 -1.50076E+03 -7.05318E+03 -6.16400E+03  2.67778E+03 -8.26689E+03
  4.83994E+03 -3.42499E+03  6.34050E+03  2.31434E+03  8.84973E+02  5.18947E+03 -4.37939E+02  5.28006E+03
 -2.94240E+03  4.66086E+03 -3.31562E+03  4.94893E+02 -8.60904E+02  6.85944E+02 -1.17492E+03  1.96490E+03
 -2.16594E+03  4.60327E+03 -6.18123E+03  3.80251E+03 -1.14144E+04 -3.12223E+02 -1.47319E+04 -6.34238E+03
 -7.17379E+03 -1.54651E+04  1.51273E+03 -1.81985E+04  1.15952E+04 -1.33075E+04  1.88870E+04 -4.12460E+03
  1.51145E+04  4.14050E+03  1.02919E+04  1.08445E+04  4.78845E+02  1.15909E+04 -4.01889E+03  9.39102E+03
 -7.12099E+03  4.42593E+03 -3.86172E+03 -2.65775E+03 -9.80426E+02 -1.59633E+03 -9.97456E+02 -8.93356E+02
 -3.34421E+03  9.11199E+02 -3.30097E+03 -1.15013E+03 -1.96042E+02 -4.57497E+02 -2.19745E+02 -2.54487E+03
  4.82494E+03 -2.57531E+03  8.57573E+03  5.34709E+02  7.34342E+03  5.66654E+03  3.44283E+03  1.23280E+04
 -5.28038E+03  1.61831E+04 -1.19673E+04  7.95417E+03 -1.50288E+04 -1.42546E+03 -1.16006E+04 -1.20403E+04
 -4.42984E+03 -1.37507E+04  2.20711E+03 -1.23266E+04  8.70998E+03 -7.13916E+03  9.89176E+03 -1.99247E+03
  4.55491E+03  5.07044E+03  8.17540E+01  3.39447E+03 -3.25362E+03  5.91014E+02 -9.35711E+02 -4.22823E+03
  2.99578E+03 -2.31566E+03  3.39126E+03  4.35308E+02  4.18070E+03  4.82322E+03  5.79635E+02  5.77817E+03
 -5.72341E+03  5.89648E+03 -9.05951E+03 -3.55028E+02 -8.19310E+03 -6.50872E+03 -6.22124E+02 -9.48346E+03
  7.24874E+03 -8.24571E+03  1.04129E+04 -1.54101E+03  9.38192E+03  1.03592E+03  7.09687E+03  7.43930E+03
  1.88312E+03  1.00309E+04 -4.57127E+03  7.48415E+03 -6.67366E+03  3.21799E+03 -3.21739E+03  1.85137E+02
 -2.92430E+03  4.18301E+02 -2.26589E+03 -8.08869E+02 -4.97403E+03  1.37287E+03 -7.26471E+03 -2.40215E+03
 -6.89920E+03 -4.94545E+03 -1.26899E+03 -7.71669E+03  4.40418E+03 -6.51396E+03  6.46263E+03 -3.27428E+03
  9.71532E+03  1.19807E+03  4.02943E+03  7.26264E+03  5.36665E+02  7.05558E+03 -7.93687E+03  6.87538E+03
