 $NMID ID='MM_0lb_SNR200_10hz_g40_14.RAW', FMTDAT='(8E13.5)'
 TRAMP=1., VOLUME=1. $END
  3.08714E+05  1.04367E+03  3.37233E+05  2.52315E+05  8.32068E+04  3.38899E+05 -1.32254E+05  2.50341E+05
 -1.90794E+05  8.36675E+04 -1.12635E+05 -3.13798E+04  1.04671E+03 -5.05077E+04  5.48990E+04 -2.66888E+02
  3.37549E+04  5.15204E+04 -1.60527E+04  7.60629E+04 -6.15482E+04  6.29813E+04 -8.48326E+04  3.28526E+04
 -8.00369E+04 -1.11028E+04 -5.81334E+04 -5.03081E+04 -1.55690E+04 -7.00440E+04  2.79539E+04 -4.54214E+04
  3.85499E+04  4.25650E+03  1.68488E+04  4.77533E+04 -3.42480E+04  4.59864E+04 -6.70614E+04  8.97396E+02
 -5.43837E+04 -5.83499E+04 -8.06258E+03 -7.74230E+04  3.29060E+04 -5.60171E+04  4.90857E+04 -1.82261E+04
  4.45343E+04  1.14127E+04  3.32671E+04  2.59356E+04  1.63020E+04  3.09763E+04 -4.12915E+03  2.75380E+04
 -2.30885E+04  1.23477E+04 -1.87409E+04 -4.65176E+03  4.52929E+03 -8.90650E+03  2.31366E+04  1.37497E+04
  6.95688E+03  3.58885E+04 -3.32439E+04  3.64116E+04 -6.46133E+04  3.07702E+03 -5.91237E+04 -4.35282E+04
 -1.20463E+04 -6.44506E+04  4.10377E+04 -4.54985E+04  6.06481E+04 -2.14739E+03  3.46719E+04  3.21905E+04
 -4.91657E+03  3.70631E+04 -3.16002E+04  1.63469E+04 -3.27216E+04 -4.26950E+03 -1.91236E+04 -1.12888E+04
 -9.15672E+03 -1.34735E+04 -1.70171E+03 -2.01599E+04  7.19120E+03 -2.29323E+04  1.56725E+04 -1.35697E+04
  1.15126E+04  7.21433E+03 -9.35018E+03  1.22872E+04 -2.27252E+04 -5.85887E+03 -8.56173E+03 -3.52778E+04
  2.44494E+04 -4.47589E+04  4.98470E+04 -1.91712E+04  4.62558E+04  1.95083E+04  1.68273E+04  4.67633E+04
 -1.55166E+04  3.54410E+04 -2.59784E+04  9.63885E+02 -1.11726E+04 -2.95151E+04  2.12732E+04 -3.47630E+04
  4.15360E+04 -9.61763E+03  3.77391E+04  2.45911E+04  1.78792E+04  4.97119E+04 -9.15984E+03  5.24285E+04
 -3.28869E+04  3.70572E+04 -4.48869E+04  1.00083E+04 -4.58552E+04 -1.76968E+04 -2.35656E+04 -4.04940E+04
  6.15862E+03 -4.13209E+04  3.42394E+04 -1.72395E+04  3.10342E+04  1.19667E+04  3.73941E+03  2.23154E+04
 -1.50610E+04  1.02067E+04 -9.86603E+03 -7.36131E+03  4.66016E+03 -1.33365E+04  1.87367E+04  6.10079E+03
  1.34429E+04  2.44300E+04 -6.01048E+03  2.70000E+04 -2.28806E+04  1.21537E+04 -3.08347E+04 -3.51166E+03
 -2.38158E+04 -1.81703E+04 -1.00499E+04 -2.24719E+04  4.53115E+03 -2.29526E+04  1.81336E+04 -2.05649E+04
  2.97329E+04 -1.39382E+04  3.50488E+04  3.90851E+03  2.56406E+04  2.33537E+04  5.03652E+03  3.84777E+04
 -1.76219E+04  3.25750E+04 -2.90437E+04  1.14873E+04 -2.05358E+04 -1.09213E+04 -5.39992E+03 -1.29398E+04
  7.05220E+02 -1.78563E+03 -6.19330E+03  6.77187E+03 -1.82895E+04  6.44548E+03 -1.96163E+04 -9.56190E+03
 -1.21147E+04 -2.11028E+04  7.67070E+03 -2.53704E+04  1.73438E+04 -1.89432E+04  2.09594E+04 -2.48958E+03
  1.32505E+04  1.47671E+04 -3.90475E+02  2.13293E+04 -1.66468E+04  1.11031E+04 -2.16135E+04 -4.95552E+03
 -1.70130E+04 -1.96377E+04 -1.88950E+03 -2.61819E+04  1.21747E+04 -1.98074E+04  1.98393E+04 -1.15592E+04
  2.03684E+04 -4.22014E+02  1.40454E+04  3.96406E+03  9.16221E+03  1.32833E+03  1.08545E+04 -1.34470E+03
  2.09086E+04  1.88798E+03  2.31072E+04  1.65859E+04  1.58721E+04  3.45672E+04 -1.28692E+03  3.92722E+04
 -2.32343E+04  3.29179E+04 -3.86198E+04  1.64987E+04 -4.07097E+04 -3.56328E+03 -3.37573E+04 -2.26257E+04
 -1.28391E+04 -3.37935E+04  1.08932E+04 -2.91250E+04  2.53307E+04 -1.43601E+04  2.25450E+04  6.18984E+03
  8.37990E+03  1.69497E+04 -1.03956E+04  1.38648E+04 -1.69274E+04  2.77868E+03 -1.22643E+04 -1.20133E+04
  3.88612E+02 -1.86633E+04  9.60654E+03 -1.30787E+04  1.11471E+04 -1.13940E+03  2.86050E+03  8.15636E+03
 -8.34071E+03  2.73437E+03 -8.27698E+03 -6.64293E+03 -1.18628E+03 -1.44207E+04  1.03111E+04 -1.73746E+04
  2.04790E+04 -1.03871E+04  2.26819E+04  3.11385E+03  2.08091E+04  1.56812E+04  8.31345E+03  2.57989E+04
 -3.63454E+03  2.73296E+04 -1.77648E+04  1.73463E+04 -1.94587E+04  3.23390E+03 -1.31171E+04 -4.21702E+03
 -6.30954E+03 -6.37340E+03 -9.14510E+02  5.18123E+02 -3.16219E+03  2.31467E+03 -6.07343E+03  5.06623E+03
 -1.26049E+04 -2.55576E+03 -1.26956E+04 -1.12178E+04 -4.91015E+03 -1.63714E+04  5.71935E+03 -1.39893E+04
  1.14514E+04 -7.05793E+03  7.84007E+03  4.65626E+03  5.89958E+02  4.42140E+03 -5.57293E+03  2.41335E+02
 -5.68726E+03 -9.20782E+03 -1.31258E+03 -1.37637E+04  7.56684E+03 -1.57435E+04  1.68595E+04 -8.01585E+03
  1.99618E+04  2.67177E+03  1.48228E+04  1.25841E+04  2.73714E+03  1.55498E+04 -8.06457E+03  1.52096E+04
 -1.14045E+04  5.10399E+03 -4.89669E+03 -4.38630E+03  2.83422E+03 -3.86705E+03  7.44004E+03 -1.94391E+03
  7.70963E+03  5.96428E+03  2.99573E+03  1.25445E+04 -7.88991E+03  1.18024E+04 -1.44031E+04  2.33205E+03
 -9.45189E+03 -7.04601E+03  1.08372E+03 -1.09427E+04  8.19220E+03 -6.95158E+03  8.41349E+03  2.28745E+03
  1.55576E+03  7.72244E+03 -6.70507E+03  1.12421E+04 -9.87286E+03  5.34003E+03 -1.09210E+04 -3.56616E+03
 -5.96142E+03 -1.34694E+04  2.39821E+03 -1.59603E+04  1.27388E+04 -1.02421E+04  1.37941E+04  3.49165E+03
  1.06058E+04  1.18956E+04 -2.08455E+03  1.38189E+04 -9.87158E+03  6.90725E+03 -1.14445E+04 -1.20984E+03
 -1.01221E+04 -8.16984E+03 -9.35047E+02 -1.07115E+04  6.16356E+03 -8.68513E+03  6.68757E+03 -4.12128E+03
  5.28181E+03  9.60393E+02 -1.35815E+03  2.16081E+03 -8.09721E+01 -4.31454E+03  9.31686E+02 -5.77265E+03
  8.29447E+03 -3.50093E+03  1.36868E+04  2.60672E+03  1.27934E+04  9.63313E+03  8.66558E+03  1.72512E+04
 -2.89023E+03  2.10415E+04 -1.80679E+04  1.46670E+04 -2.40770E+04  2.56761E+03 -1.68705E+04 -8.52944E+03
 -8.21115E+03 -1.43236E+04 -1.66013E+03 -1.32083E+04  4.35306E+03 -6.65967E+03  3.91915E+03 -4.33726E+03
  3.14165E+03 -2.38492E+03  4.62744E+03 -4.79647E+03  6.44850E+03 -2.78775E+03  7.24993E+03 -4.27887E+02
  1.05235E+04  1.96782E+03  4.52962E+03  6.74187E+03 -1.30709E+03  1.03146E+04 -1.04079E+04  7.56759E+03
 -1.30496E+04  8.03458E+02 -8.44063E+03 -8.25761E+03 -1.05453E+03 -1.27416E+04  8.93059E+03 -1.37145E+04
  1.40559E+04 -8.08003E+03  1.68508E+04  2.86159E+03  1.13139E+04  1.11058E+04  2.19675E+03  1.45037E+04
 -6.35998E+03  1.22360E+04 -8.74183E+03  4.94946E+03 -7.17443E+03 -2.75402E+02 -2.44973E+03 -1.57310E+03
 -1.73828E+02  1.00871E+02 -2.24962E+03  2.59514E+03 -4.71144E+03  1.41545E+03 -8.49276E+03 -1.49700E+03
 -6.53955E+03 -7.67520E+03 -1.64167E+03 -1.18952E+04  8.98957E+03 -1.05299E+04  1.14131E+04 -2.10552E+03
  1.38436E+04  6.26340E+03  4.66252E+03  1.04117E+04 -1.96134E+03  1.27864E+04 -8.28050E+03  7.07258E+03
 -1.15683E+04  7.11780E+02 -8.54150E+03 -7.12340E+03  4.94882E+00 -9.96950E+03  4.65667E+03 -8.12684E+03
  7.64525E+03 -3.55093E+03  4.27888E+03  2.29368E+03  2.20939E+03  4.03467E+03  1.08162E+03  3.12347E+03
  1.50957E+03  2.08232E+03  1.90916E+03  1.21602E+02  2.75127E+03  5.02377E+03  3.62872E+03  5.53547E+03
 -2.47101E+03  1.02521E+04 -7.67249E+03  1.04279E+04 -1.20580E+04  2.21436E+03 -1.37136E+04 -5.76253E+03
 -5.93247E+03 -1.40276E+04  1.54112E+03 -1.47440E+04  6.91298E+03 -7.89765E+03  1.00429E+04 -2.11127E+03
  7.03723E+03  5.91219E+03 -2.16908E+02  7.18175E+03 -3.08722E+03  4.47387E+03 -4.08684E+03 -8.51520E+02
 -2.56120E+03 -5.39311E+03  2.23707E+03 -3.38212E+03  4.67127E+03 -4.39702E+03  5.15451E+03  8.41676E+02
  3.27114E+03  2.23597E+03  1.80869E+03  1.85391E+03 -4.34895E+02  4.19573E+03  2.65330E+03  2.19197E+02
  2.86986E+03 -1.32359E+03  6.51917E+03  2.06669E+03  2.23589E+03  5.57710E+03 -7.61309E+02  8.10995E+03
 -5.20344E+03  6.67969E+03 -7.20566E+03  1.09359E+03 -8.26420E+03 -2.10388E+03 -1.93913E+03 -5.07028E+03
  1.68347E+03 -5.33930E+03  3.47275E+03 -2.37879E+03  2.43370E+03  2.82977E+03 -3.51598E+02  4.08234E+03
 -5.24567E+03  8.68294E+02 -6.29632E+03 -4.07281E+03 -3.33852E+03 -8.11331E+03  1.18470E+03 -7.64380E+03
  4.73913E+03 -5.15831E+03  5.53518E+03 -5.91509E+02  5.14664E+03  2.32325E+03  1.31264E+03  3.68510E+03
 -1.99148E+03  3.07713E+03 -3.39384E+03 -2.71011E+03  1.48049E+03 -5.41169E+03  5.73825E+03 -4.28585E+03
  7.28865E+03  6.65221E+02  7.68947E+03  5.41942E+03  1.48706E+03  7.20827E+03 -3.29895E+03  8.91040E+03
 -6.21265E+03  2.43799E+03 -7.03640E+03 -2.38290E+03 -4.31244E+03 -4.40983E+03  1.18720E+03 -5.00310E+03
  5.48430E+03 -1.26491E+03  3.92510E+03  2.82789E+03  7.91686E+02  3.62128E+03  8.49510E+01  3.71684E+03
  1.02011E+02  2.03825E+03 -7.48307E+02  2.22173E+03 -5.49580E+02  9.69513E+02 -3.69035E+02  1.88348E+03
 -2.54898E+03  3.24658E+03 -4.99804E+03  2.74056E+03 -8.65274E+03  7.75004E+02 -9.98330E+03 -5.21840E+03
 -6.19279E+03 -1.14674E+04  2.23756E+03 -1.28254E+04  6.67583E+03 -9.66835E+03  1.06813E+04 -3.89589E+03
  9.37065E+03  2.10858E+03  6.08913E+03  7.40582E+03  5.10233E+02  9.07474E+03 -3.39299E+03  7.63601E+03
 -5.65535E+03  1.69850E+03 -2.86766E+03 -1.54744E+03 -1.67987E+03 -6.50071E+02  1.13677E+03 -7.21477E+02
 -3.35886E+03  6.32702E+02 -1.70656E+01  6.95817E+02 -1.02666E+03 -2.36227E+03 -1.18366E+03 -3.36199E+03
  4.31013E+03 -2.04167E+03  5.87366E+03 -5.43175E+02  4.84853E+03  3.94298E+03  1.66858E+03  6.82388E+03
 -4.16914E+03  9.08067E+03 -8.40301E+03  5.40585E+03 -9.60424E+03 -1.26057E+03 -6.76981E+03 -5.80185E+03
 -3.73961E+03 -8.63330E+03  2.01806E+03 -8.83593E+03  4.37454E+03 -5.90277E+03  4.34681E+03  1.28712E+03
  3.63358E+03  2.08423E+03 -1.21262E+03  2.92363E+03 -1.82425E+03  3.55289E+02 -7.05663E+02 -1.04479E+03
  3.47880E+03 -9.49318E+02  3.42668E+03  1.76786E+03  2.88245E+03  4.28444E+03  7.88346E+02  6.01640E+03
 -3.92355E+03  4.31889E+03 -5.71753E+03  6.95091E+02 -4.25864E+03 -4.42765E+03 -2.11314E+03 -8.14656E+03
  3.39705E+03 -5.64429E+03  5.90086E+03 -2.32815E+03  7.16841E+03  1.77276E+03  3.50551E+03  6.44334E+03
  1.56245E+03  4.98554E+03 -1.74205E+03  4.97029E+03 -3.07942E+03  2.97600E+03 -2.07404E+03  1.48409E+03
 -9.16847E+02  1.28389E+03 -2.52134E+03  9.89626E+02 -2.67146E+03  8.27752E+02 -4.14689E+03 -6.37147E+02
 -5.43132E+03 -1.98953E+03 -5.36930E+02 -4.79643E+03  4.52391E+03 -5.06153E+03  4.06971E+03 -2.87554E+03
  4.12479E+03  1.08125E+03  3.86556E+03  4.76678E+03  1.15965E+02  5.79430E+03 -3.92449E+03  3.61542E+03
