 $NMID ID='MM_0lb_SNR200_18hz_g55_74.RAW', FMTDAT='(8E13.5)'
 TRAMP=1., VOLUME=1. $END
  3.09998E+05  1.47700E+03  3.37427E+05  2.50547E+05  8.35098E+04  3.37739E+05 -1.32508E+05  2.50625E+05
 -1.90102E+05  8.28521E+04 -1.11481E+05 -3.14492E+04  6.37084E+02 -5.03449E+04  5.30582E+04 -1.36048E+02
  3.55571E+04  5.33884E+04 -1.66934E+04  7.53352E+04 -5.94201E+04  6.29940E+04 -8.48866E+04  3.15544E+04
 -7.90532E+04 -1.09566E+04 -5.69408E+04 -5.02221E+04 -1.43097E+04 -6.83853E+04  2.77810E+04 -4.40389E+04
  4.02823E+04  3.65799E+03  1.56508E+04  4.74000E+04 -3.42962E+04  4.66446E+04 -6.60316E+04  1.05262E+03
 -5.23231E+04 -5.68351E+04 -6.69326E+03 -7.60139E+04  3.37136E+04 -5.42913E+04  4.75026E+04 -1.70088E+04
  4.34775E+04  1.07464E+04  3.01178E+04  2.47469E+04  1.69310E+04  2.91759E+04 -4.68922E+03  2.69282E+04
 -2.14504E+04  1.39163E+04 -1.80475E+04 -4.05218E+03  4.68459E+03 -8.67237E+03  2.09838E+04  1.23035E+04
  8.18505E+03  3.35861E+04 -3.12949E+04  3.41755E+04 -6.23912E+04  2.76335E+03 -5.65134E+04 -4.10552E+04
 -1.24392E+04 -6.20329E+04  3.90510E+04 -4.40338E+04  5.73084E+04 -1.60442E+03  3.28429E+04  3.13159E+04
 -6.24136E+03  3.39113E+04 -2.96419E+04  1.44537E+04 -2.91514E+04 -4.53413E+03 -1.54739E+04 -9.10350E+03
 -7.97139E+03 -1.27409E+04 -1.11495E+03 -1.74345E+04  7.06081E+03 -2.23704E+04  1.50535E+04 -1.45824E+04
  1.04933E+04  4.82539E+03 -6.24791E+03  1.38922E+04 -1.99204E+04 -4.05636E+03 -8.08853E+03 -3.22756E+04
  2.22708E+04 -4.21276E+04  4.65655E+04 -1.79422E+04  4.34239E+04  1.76837E+04  1.46999E+04  4.24732E+04
 -1.62132E+04  3.29463E+04 -2.37563E+04  1.95396E+03 -9.52526E+03 -2.70894E+04  2.08081E+04 -3.20419E+04
  3.89967E+04 -8.50260E+03  3.20771E+04  2.33682E+04  1.68671E+04  4.40239E+04 -7.79080E+03  4.75588E+04
 -2.98281E+04  3.09187E+04 -3.88132E+04  9.64310E+03 -4.04811E+04 -1.54189E+04 -2.37192E+04 -3.67878E+04
  5.57350E+03 -3.53281E+04  2.99874E+04 -1.25023E+04  2.88743E+04  1.08611E+04  3.62494E+03  1.79512E+04
 -1.35962E+04  7.86270E+03 -9.51967E+03 -7.55139E+03  5.29974E+03 -9.78171E+03  1.75890E+04  7.33314E+03
  1.30755E+04  2.15537E+04 -7.34675E+03  2.39544E+04 -2.08681E+04  9.23303E+03 -2.66693E+04 -6.15701E+03
 -1.80775E+04 -1.73370E+04 -6.54283E+03 -1.80028E+04  4.63072E+03 -1.68942E+04  1.48460E+04 -1.63720E+04
  2.39605E+04 -1.22199E+04  2.98546E+04  1.35178E+03  2.26395E+04  1.72566E+04  3.78103E+03  3.44862E+04
 -1.60743E+04  2.85998E+04 -2.65387E+04  1.05825E+04 -1.99567E+04 -1.12197E+04 -4.32663E+03 -1.35719E+04
  2.73569E+03 -4.57816E+03 -3.81130E+03  5.86188E+03 -1.22092E+04  5.26694E+03 -1.47481E+04 -6.41137E+03
 -9.71430E+03 -1.62505E+04  4.81757E+03 -2.11203E+04  1.50745E+04 -1.50272E+04  1.61544E+04 -1.79968E+03
  9.50094E+03  1.21520E+04 -1.06481E+03  1.70381E+04 -1.21790E+04  9.36077E+03 -1.68915E+04 -3.32912E+03
 -1.27421E+04 -1.62135E+04 -1.19778E+03 -2.00012E+04  1.00303E+04 -1.70244E+04  1.77322E+04 -8.05942E+03
  1.64982E+04  1.76679E+02  1.00962E+04  4.05583E+03  5.53276E+03  2.09776E+02  7.21240E+03 -1.02974E+03
  1.50746E+04  1.87234E+03  1.65672E+04  1.27758E+04  1.02613E+04  2.50075E+04 -3.48376E+03  2.80506E+04
 -1.76961E+04  2.20401E+04 -2.71373E+04  1.12473E+04 -2.74727E+04 -1.94560E+03 -2.35397E+04 -1.56917E+04
 -1.10803E+04 -2.32364E+04  6.81165E+03 -2.03465E+04  1.79217E+04 -1.12800E+04  1.69821E+04  3.53303E+03
  6.68749E+03  1.16620E+04 -8.03904E+03  1.02075E+04 -1.45840E+04  2.54932E+03 -1.08128E+04 -8.15701E+03
 -3.76806E+02 -1.39009E+04  5.71479E+03 -9.23303E+03  7.45564E+03 -2.07041E+03  4.96560E+02  5.27850E+03
 -6.68486E+03  1.84836E+03 -3.18216E+03 -5.25271E+03  3.78041E+02 -1.11311E+04  7.22964E+03 -1.15970E+04
  1.38158E+04 -5.95264E+03  1.28140E+04  3.00038E+03  1.09249E+04  1.03929E+04  5.55268E+03  1.62207E+04
 -1.83265E+03  1.66192E+04 -1.13502E+04  1.03826E+04 -1.18868E+04  3.57458E+03 -7.84075E+03 -3.42014E+03
 -4.78625E+03 -5.35280E+03 -2.56482E+02  1.66124E+03 -1.66756E+03  2.44166E+03 -5.32365E+03  3.82112E+03
 -8.67905E+03 -3.51908E+02 -9.01392E+03 -7.57487E+03 -3.17039E+03 -1.17586E+04  3.49801E+03 -9.15897E+03
  7.58546E+03 -3.38232E+03  5.03924E+03  3.17853E+03  1.19639E+03  3.22259E+03 -3.61525E+03  2.22390E+01
 -3.66713E+03 -4.71319E+03 -1.70209E+03 -7.16789E+03  4.29563E+03 -8.37081E+03  1.10942E+04 -4.84928E+03
  1.17481E+04  1.30964E+03  8.98749E+03  6.39477E+03  2.27893E+03  1.02038E+04 -4.93080E+03  8.95649E+03
 -7.48508E+03  2.95132E+03 -3.75972E+03 -1.41664E+03  8.95477E+02 -2.16196E+03  5.66526E+03  2.65860E+00
  4.56514E+03  2.96237E+03  3.13985E+02  6.99154E+03 -5.99085E+03  6.54902E+03 -8.39381E+03  2.08170E+03
 -4.62573E+03 -3.54282E+03  9.88664E+02 -6.52810E+03  3.64443E+03 -3.58111E+03  3.82560E+03  1.70304E+03
  4.42919E+02  3.25107E+03 -4.46953E+03  4.99466E+03 -6.13586E+03  2.90409E+03 -5.08797E+03 -2.04605E+03
 -2.91535E+03 -7.31331E+03  1.35330E+03 -8.26451E+03  5.45189E+03 -4.90402E+03  7.44095E+03  9.59915E+02
  5.31986E+03  6.05614E+03 -3.86626E+02  9.06305E+03 -4.38291E+03  4.63738E+03 -6.07191E+03  4.96048E+02
 -6.28019E+03 -4.55777E+03  5.61161E+01 -5.57283E+03  3.06755E+03 -4.73219E+03  3.77213E+03 -3.80594E+03
  4.17803E+03  2.28478E+02 -5.69261E+02  1.80575E+03 -8.31213E+01  3.45332E+02 -4.26047E+02 -7.98215E+02
  4.70852E+03 -1.02533E+03  5.94188E+03  1.41879E+03  6.08062E+03  4.51878E+03  6.36056E+03  7.27294E+03
 -1.05070E+03  9.52570E+03 -8.44513E+03  6.93638E+03 -1.09296E+04  1.36036E+03 -8.22295E+03 -3.30531E+03
 -4.33296E+03 -7.91801E+03  1.35404E+01 -5.65820E+03  2.96287E+03 -2.31331E+03  2.21761E+03 -1.91479E+03
  2.16148E+03 -2.12788E+03  2.70907E+03 -2.62630E+03  3.82976E+03 -9.76920E+02  3.24609E+03 -2.34260E+02
  4.45943E+03  4.11094E+02  9.03179E+02  3.67956E+03 -1.37034E+03  3.58675E+03 -3.98158E+03  3.70912E+03
 -4.34224E+03 -5.02202E+02 -1.30989E+03 -3.31825E+03  1.15469E+03 -5.80648E+03  3.77062E+03 -5.27534E+03
  5.52076E+03 -4.54657E+03  7.38434E+03 -1.21462E+03  5.83911E+03  3.50129E+03  2.69201E+02  6.64374E+03
 -2.49088E+03  5.69693E+03 -4.41338E+03  1.00282E+03 -2.31914E+02 -1.67461E+03  1.65714E+02 -9.16084E+02
 -7.48375E+02 -8.66821E+02 -1.43926E+03  2.42957E+03 -3.21595E+03  2.13377E+03 -5.22668E+03 -2.01066E+02
 -7.12865E+02 -4.58327E+03 -2.20318E+02 -5.87978E+03  3.40175E+03 -4.27412E+03  4.44539E+03 -1.68447E+03
  5.34215E+03  2.83731E+03  2.20694E+03  3.94941E+03 -1.37174E+03  4.42698E+03 -2.71499E+03  3.36492E+03
 -4.20734E+03  2.58322E+02 -3.87684E+03 -2.50344E+03 -2.88784E+02 -3.15770E+03  1.52887E+03 -2.43018E+03
  2.86222E+03 -1.83381E+03  2.76820E+03  9.69736E+02  1.77183E+02  9.39049E+02  3.77776E+02 -3.32847E+02
  9.59914E+02  1.04641E+03  1.67557E+03  1.06487E+03  1.71108E+03  2.85687E+03  1.48099E+03  2.40858E+03
 -1.72312E+03  2.52597E+03 -2.85667E+03  5.84492E+03 -3.69427E+03  7.54390E+02 -4.90366E+03 -5.38931E+02
 -2.57609E+03 -3.87262E+03  4.92919E+02 -4.83295E+03  1.46220E+03 -2.73493E+03  4.17681E+03 -1.23084E+03
  3.44039E+03  1.73586E+03 -5.52277E+02  1.95170E+03 -9.26566E+02  1.32328E+03 -1.90663E+03  4.44469E+02
 -1.12162E+03 -1.32913E+03  2.04893E+03 -2.87968E+03  1.36013E+03 -2.02854E+03  5.83903E+02  1.90323E+03
  1.08322E+03  6.85895E+02  1.96446E+02  1.70398E+02 -2.28339E+02  3.78214E+02  2.50393E+03  1.58432E+02
  1.41807E+02  6.52514E+02  1.55486E+03  4.28787E+02  1.47511E+03  2.47245E+03 -1.15255E+03  2.92046E+03
 -1.36230E+03  4.34049E+02 -2.58317E+03 -5.86789E+02 -2.68830E+03 -1.94476E+03 -4.44135E+02 -2.48602E+02
  5.47998E+02 -2.63170E+03  1.75559E+03 -1.09175E+02 -4.37649E+02  1.57374E+03 -1.10922E+03  1.81396E+03
 -1.98547E+03  4.81591E+02 -1.58421E+03 -1.69029E+03 -5.52705E+01 -1.53582E+03 -9.75562E+02 -3.02635E+03
 -3.99097E+02  3.77720E+02  1.22372E+03  6.99958E+02  2.03314E+03 -7.15950E+02  3.55621E+02  5.94611E+02
  6.57491E+02 -4.49223E+02 -8.99035E+02 -2.58795E+02  1.36482E+03 -1.29609E+03  2.01136E+03 -1.49040E+01
  1.63824E+03 -4.34860E+02  3.46180E+03  1.22689E+03  1.63901E+02  1.90125E+03 -4.58261E+02  1.56897E+03
 -9.39132E+02  2.31386E+02 -1.24567E+03 -5.99347E+02 -1.10776E+03 -1.38052E+03  4.58927E+02 -8.93998E+02
 -1.55546E+02 -6.86365E+02  1.02645E+03 -3.03873E+02  1.40308E+02  7.43704E+02  7.72662E+02  1.02553E+03
 -1.91286E+02  4.43144E+02 -9.00231E+01 -1.12212E+03 -6.43106E+01  8.46659E+02 -1.71446E+03  9.64520E+01
 -4.40394E+02  6.14278E+02 -2.10933E+03  7.76588E+02 -1.42230E+03  4.86361E+02 -3.67448E+03 -1.11117E+03
 -1.10389E+03 -2.19753E+03 -2.86046E+01 -3.50535E+03  1.25171E+03 -2.21202E+03  3.05055E+03 -1.26053E+03
  2.45711E+03  1.08515E+03  7.16564E+02  1.19597E+03 -3.95631E+02  1.82197E+03 -9.88864E+02  2.56622E+03
 -1.30503E+03  1.25132E+03  2.03188E+01  5.67458E+02  6.30221E+02 -1.28798E+03 -2.51269E+02 -6.62607E+02
 -9.90513E+02 -4.82686E+02 -8.60833E+02 -5.53526E+02  5.22385E+02 -3.05941E+02 -7.78894E+02 -1.87147E+02
  2.54784E+03  2.92374E+01 -4.40797E+02  3.98348E+02 -4.37495E+00  1.18528E+03 -1.27083E+03  2.46432E+03
 -1.84657E+03  1.76291E+03 -1.93686E+03  3.30979E+02 -2.03044E+03  4.86900E+02 -1.16809E+03 -1.48289E+03
 -1.85132E+02 -2.25091E+03  7.30025E+02 -1.88277E+03  1.21817E+03 -5.46273E+02  1.85166E+03  1.18156E+03
  9.39957E+02  6.83790E+02 -4.43828E+02  7.37539E+02 -1.35084E+02 -9.78614E+01 -2.06715E+02  2.17851E+02
 -4.14172E+02  3.29469E+00  4.96722E+02 -7.98811E+02  1.94014E+02 -2.53922E+02 -3.94257E+02  1.52977E+03
 -6.11244E+02  1.25722E+03  3.92549E+02  7.55483E+02 -9.40270E+02 -3.82907E+02 -1.23639E+03 -1.03944E+03
 -4.01099E+01 -1.12886E+03  3.51342E+02 -9.73753E+02  2.41221E+03 -3.95021E+02 -4.51365E+02  4.14588E+02
 -5.74916E+02  7.50386E+02 -1.17830E+03  1.74416E+03  7.01990E+02  7.50828E+02  4.94942E+00 -2.19222E+02
 -6.41899E+00  1.56761E+03 -9.54828E+02 -2.69057E+01 -8.94693E+01  7.88292E+02  4.41395E+01 -4.64633E+02
 -1.20584E+03 -4.81525E+01 -3.04760E+02 -1.20511E+03  1.55398E+03 -1.53674E+03  9.24325E+02  1.52809E+03
  4.21701E+02 -6.63440E+02  5.24843E+02  4.42812E+02  4.29626E+02  1.29794E+03 -1.15759E+01  3.46946E+02
