 $NMID ID='MM_0lb_SNR200_16hz_g60_76.RAW', FMTDAT='(8E13.5)'
 TRAMP=1., VOLUME=1. $END
  3.10258E+05 -4.16135E+02  3.37104E+05  2.50684E+05  8.47956E+04  3.37164E+05 -1.32441E+05  2.51854E+05
 -1.90713E+05  8.23980E+04 -1.12370E+05 -3.32204E+04  7.91661E+02 -5.00676E+04  5.49273E+04 -3.93383E+02
  3.47059E+04  5.22447E+04 -1.60372E+04  7.48767E+04 -6.05650E+04  6.48287E+04 -8.36267E+04  3.20356E+04
 -8.14880E+04 -1.06579E+04 -5.59058E+04 -5.22213E+04 -1.42464E+04 -7.01002E+04  2.79968E+04 -4.53208E+04
  4.01001E+04  4.37898E+03  1.68244E+04  4.73999E+04 -3.36096E+04  4.58300E+04 -6.74309E+04 -3.91924E+02
 -5.23086E+04 -5.71021E+04 -7.51511E+03 -7.67790E+04  3.42909E+04 -5.42147E+04  4.80613E+04 -1.79694E+04
  4.32348E+04  1.11764E+04  3.20645E+04  2.51130E+04  1.61556E+04  2.88531E+04 -4.31608E+03  2.81191E+04
 -2.15714E+04  1.21485E+04 -1.78907E+04 -3.73868E+03  4.86248E+03 -8.36561E+03  2.26868E+04  1.33581E+04
  7.30110E+03  3.56034E+04 -3.20417E+04  3.48426E+04 -6.43441E+04  1.57703E+03 -5.63848E+04 -4.31060E+04
 -1.17662E+04 -6.49482E+04  3.99521E+04 -4.49847E+04  5.82167E+04 -2.45061E+03  3.43826E+04  3.30358E+04
 -5.58188E+03  3.59790E+04 -3.01534E+04  1.65064E+04 -3.17639E+04 -3.87281E+03 -1.69974E+04 -1.15668E+04
 -8.05037E+03 -1.26604E+04 -6.69342E+02 -1.76996E+04  7.88186E+03 -2.43935E+04  1.53563E+04 -1.38470E+04
  1.14311E+04  5.92491E+03 -8.23394E+03  1.31649E+04 -2.17099E+04 -4.35613E+03 -9.23406E+03 -3.32974E+04
  2.34212E+04 -4.33386E+04  4.98911E+04 -1.96551E+04  4.45645E+04  2.02753E+04  1.49247E+04  4.44790E+04
 -1.67579E+04  3.38272E+04 -2.54396E+04  2.87744E+03 -1.12873E+04 -2.83535E+04  2.13888E+04 -3.29278E+04
  3.99851E+04 -9.11331E+03  3.52968E+04  2.42088E+04  1.79442E+04  4.63391E+04 -7.93891E+03  4.93735E+04
 -3.20293E+04  3.42110E+04 -4.12203E+04  1.03931E+04 -4.26518E+04 -1.76332E+04 -2.34399E+04 -3.80801E+04
  6.97140E+03 -3.69798E+04  3.19978E+04 -1.49727E+04  2.96729E+04  1.08704E+04  4.48833E+03  1.85623E+04
 -1.29913E+04  8.85690E+03 -9.72132E+03 -7.52538E+03  6.31152E+03 -9.77699E+03  1.77210E+04  6.44535E+03
  1.32778E+04  2.17592E+04 -6.18720E+03  2.50085E+04 -2.27017E+04  1.25386E+04 -2.85507E+04 -5.17770E+03
 -2.08592E+04 -1.66961E+04 -8.56875E+03 -2.06311E+04  4.12938E+03 -1.89848E+04  1.60605E+04 -1.86635E+04
  2.57528E+04 -1.30993E+04  3.18149E+04  3.86526E+03  2.36445E+04  1.84501E+04  4.45552E+03  3.59617E+04
 -1.78934E+04  3.02642E+04 -2.80543E+04  1.01439E+04 -2.19452E+04 -9.62309E+03 -3.93202E+03 -1.31301E+04
  2.13237E+03 -2.87149E+03 -4.83791E+03  6.62136E+03 -1.63510E+04  5.27790E+03 -1.62395E+04 -6.76661E+03
 -1.02467E+04 -1.95274E+04  6.50171E+03 -2.34054E+04  1.41445E+04 -1.56241E+04  1.74892E+04 -1.32645E+03
  1.09690E+04  1.35379E+04 -1.39684E+03  1.83281E+04 -1.25949E+04  1.00545E+04 -1.81249E+04 -3.67318E+03
 -1.43282E+04 -1.65209E+04 -2.28680E+03 -2.25459E+04  1.03498E+04 -1.78426E+04  1.88993E+04 -9.93485E+03
  1.69696E+04  4.95332E+02  1.29625E+04  5.83448E+03  7.42102E+03  1.18183E+03  9.68741E+03 -1.43787E+03
  1.77757E+04  2.12961E+03  1.80022E+04  1.39208E+04  1.20018E+04  3.03062E+04 -1.09997E+03  3.40868E+04
 -1.99620E+04  2.62672E+04 -3.16736E+04  1.27224E+04 -3.41401E+04 -2.69134E+03 -2.76290E+04 -1.87001E+04
 -1.17304E+04 -2.63400E+04  9.35129E+03 -2.30149E+04  2.07349E+04 -1.19618E+04  1.93426E+04  4.28041E+03
  7.65811E+03  1.44236E+04 -8.39694E+03  1.40450E+04 -1.53731E+04  2.23502E+03 -1.19963E+04 -9.75193E+03
  1.85404E+02 -1.52300E+04  8.37466E+03 -1.11231E+04  9.10544E+03 -8.37211E+02  1.33336E+03  5.12305E+03
 -5.22280E+03  2.55653E+03 -6.03863E+03 -5.73417E+03  4.63091E+02 -1.34448E+04  8.87766E+03 -1.32615E+04
  1.54695E+04 -7.30109E+03  1.68032E+04  1.94424E+03  1.42991E+04  1.21283E+04  6.58875E+03  2.01211E+04
 -2.08779E+03  2.19770E+04 -1.44098E+04  1.27526E+04 -1.52465E+04  3.21881E+03 -1.06990E+04 -3.06901E+03
 -3.99733E+03 -4.00044E+03 -9.24179E+02  7.24993E+02 -2.49343E+03  2.47288E+03 -4.45292E+03  4.64403E+03
 -9.98793E+03 -5.53027E+02 -1.09225E+04 -9.48675E+03 -4.01796E+03 -1.32279E+04  4.90534E+03 -1.20296E+04
  9.39798E+03 -3.46389E+03  5.51630E+03  2.77371E+03 -7.49246E+02  3.19369E+03 -5.48481E+03  3.74231E+02
 -3.93966E+03 -7.25635E+03 -2.00933E+02 -1.01191E+04  3.76436E+03 -1.08726E+04  1.38403E+04 -5.17755E+03
  1.66992E+04  1.71872E+03  1.09962E+04  8.63541E+03  1.60162E+03  1.11532E+04 -5.86146E+03  9.85812E+03
 -8.00793E+03  4.64383E+03 -5.07209E+03 -1.07986E+03  1.60002E+03 -3.87023E+03  5.57789E+03 -5.49688E+02
  3.97772E+03  4.52263E+03  7.79028E+02  7.40351E+03 -5.44755E+03  7.20337E+03 -1.00688E+04  2.82848E+03
 -7.50430E+03 -5.87815E+03  1.96484E+02 -8.91997E+03  4.92654E+03 -3.27822E+03  4.88332E+03  1.66373E+03
  8.20515E+02  4.57799E+03 -3.99743E+03  6.70774E+03 -6.92576E+03  3.49273E+03 -7.32655E+03 -2.79528E+03
 -5.59111E+03 -8.98339E+03  1.67560E+03 -1.02966E+04  8.92394E+03 -6.66086E+03  8.82107E+03  2.14393E+03
  6.61954E+03  6.39667E+03 -1.14201E+02  1.13293E+04 -6.97075E+03  5.00474E+03 -8.10851E+03  3.40942E+02
 -8.18325E+03 -6.49158E+03 -2.54164E+03 -8.02742E+03  4.16743E+03 -5.02705E+03  4.03999E+03 -3.66898E+03
  3.55171E+03  6.43980E+02 -1.02373E+03  1.96999E+03  4.61264E+02 -8.83891E+02  3.92198E+02 -5.01704E+03
  5.76769E+03 -2.53732E+03  8.20747E+03  1.28727E+03  8.58526E+03  4.87420E+03  6.46466E+03  1.02194E+04
 -2.73698E+03  1.26948E+04 -1.26194E+04  8.79039E+03 -1.45918E+04  2.02633E+03 -1.11470E+04 -4.30663E+03
 -5.60094E+03 -1.03490E+04 -1.79638E+02 -8.28354E+03  3.18249E+03 -3.60032E+03  1.59857E+03 -1.99348E+03
  1.04483E+03 -1.62684E+03  2.30864E+03 -2.80202E+03  2.79813E+03 -5.88155E+02  4.79731E+03  1.01010E+02
  5.78719E+03  7.73824E+02  2.49080E+03  4.44175E+03 -2.05853E+03  4.67431E+03 -5.96942E+03  4.22365E+03
 -7.21533E+03 -9.10512E+02 -4.44804E+03 -4.87045E+03  1.26136E+03 -7.14219E+03  4.82795E+03 -7.75151E+03
  8.24775E+03 -4.03780E+03  9.85914E+03  8.40204E+01  6.51278E+03  6.57018E+03  5.03099E+02  8.98990E+03
 -3.68872E+03  7.37633E+03 -5.89106E+03  1.97540E+03 -3.33777E+03 -1.23324E+03 -1.84601E+03 -1.03169E+03
 -9.07311E+02  1.24028E+03 -2.11013E+03  1.20785E+03 -2.41388E+03  5.66726E+02 -5.21618E+03 -7.16087E+02
 -2.13532E+03 -5.92245E+03  1.21571E+03 -6.52703E+03  4.40483E+03 -5.37144E+03  6.51819E+03 -1.88416E+03
  6.65499E+03  2.68910E+03  3.31179E+03  5.08232E+03 -1.81462E+03  5.93183E+03 -4.59757E+03  5.53810E+03
 -6.68844E+03  1.06389E+03 -4.91120E+03 -3.70114E+03 -6.66221E+02 -5.89920E+03  3.06814E+03 -3.85122E+03
  4.37300E+03 -2.04796E+03  1.85373E+03  9.60070E+02  8.42003E+02  3.02201E+03  1.20773E+03  1.36783E+03
  9.34788E+02 -1.36051E+02  1.90592E+03  9.41001E+02  1.46971E+03  2.79267E+03  2.43536E+03  2.65681E+03
 -9.65601E+02  5.46328E+03 -3.38006E+03  6.47553E+03 -4.49964E+03  2.31781E+03 -6.26369E+03 -8.17002E+02
 -3.56136E+03 -6.96731E+03  6.13678E+02 -6.73700E+03  2.77388E+03 -4.80587E+03  4.24927E+03 -2.31569E+03
  4.16722E+03  2.04402E+03  4.98656E+02  4.14971E+03 -1.48698E+03  1.46828E+03 -1.85392E+03  1.05639E+02
 -1.86268E+03 -2.12845E+03  3.92719E+03 -1.83071E+03  1.61852E+03 -1.48720E+03  6.86857E+02  1.38821E+03
  2.22849E+03 -2.94944E+02  6.33517E+02 -2.91134E+02  1.11426E+02  1.15615E+03  1.09675E+03 -3.65813E+02
  6.99149E+02  3.30352E+01  2.25659E+03  6.48369E+02  3.72447E+02  3.62486E+03 -3.42991E+02  4.72245E+03
 -3.33046E+03  2.30187E+03 -3.35788E+03  2.04830E+03 -4.05644E+03 -8.45525E+02 -8.98296E+02 -2.35463E+03
  2.73284E+02 -2.17330E+03  6.86574E+02 -1.48258E+03  4.18654E+02  2.39984E+03 -1.86142E+03  1.64039E+03
 -3.40491E+03  1.31687E+03 -1.45426E+03 -1.27400E+03 -1.65693E+03 -2.62839E+03  5.61066E+01 -2.19058E+03
  1.80111E+03 -1.22185E+03  3.17288E+03 -1.02055E+03  1.82917E+03 -2.41855E+02  1.21703E+03  2.08924E+03
 -5.65049E+02  1.05479E+03 -1.27857E+03  9.34366E+01  1.45803E+03 -1.36245E+03  3.00132E+03 -1.89181E+03
  2.17580E+03  1.60113E+03  4.61763E+03 -2.46978E+02  2.34267E+03  3.04778E+03 -8.34423E+02  3.79624E+03
 -3.49434E+03  1.46461E+03 -1.47360E+03 -4.85846E+02 -2.06534E+03 -2.28058E+03 -9.64374E+02 -1.86296E+03
  1.90980E+03 -2.08999E+02  1.16673E+03  1.39773E+03  1.34264E+02  2.37329E+03 -1.29479E+03  3.89184E+02
 -3.04355E+02  1.74103E+03 -2.39650E+02  6.80041E+01  9.33088E+02  1.16295E+03 -4.81356E+02  7.96094E+02
 -1.25809E+02  1.75623E+03 -1.83588E+03  2.21166E+03 -2.09372E+03  1.45104E+02 -4.47398E+03 -1.01984E+03
 -1.34812E+03 -5.09164E+03  1.26233E+03 -3.15321E+03  1.94048E+03 -4.36229E+03  4.38829E+03 -1.54459E+03
  4.10173E+03  7.87710E+02  1.75492E+03  1.15383E+03 -1.51044E+03  3.72668E+03 -9.38539E+02  3.26262E+03
 -1.30022E+03  1.69007E+03  6.90072E+02  2.24927E+02 -8.21488E+02 -5.94415E+02 -5.10455E+02  1.12376E+02
 -8.70494E+02 -2.76559E+02 -3.02629E+02 -1.02848E+03  6.76288E+02 -2.20254E+03  6.02597E+02 -1.33772E+03
  8.33002E+02 -3.10867E+02  2.66959E+03  7.18800E+02  1.64034E+03  2.68339E+03  4.94646E+01  2.50095E+03
 -1.24746E+03  2.69246E+03 -3.13888E+03  1.89835E+03 -2.84853E+03 -6.29483E+02 -3.03889E+03 -2.39024E+03
 -1.69799E+03 -1.60288E+03 -2.15359E+00 -2.05909E+03  8.57125E+02  7.08981E+01  1.03307E+03 -4.18525E+02
  1.52274E+03 -4.79030E+02  8.45773E+02  1.52699E+03 -5.90623E+02  1.17367E+03  2.85940E+02  1.58975E+02
  7.17018E+02  4.76900E+02  1.13560E+03 -2.65807E+01  1.53839E+02  4.44818E+02 -9.21886E+02  2.91409E+02
 -1.07244E+03  1.05401E+03 -2.85568E+02 -2.35302E+02 -8.03618E+02 -1.54644E+03  1.73317E+00 -1.75487E+03
  7.00918E+02 -1.56611E+03  2.33884E+03  1.75165E+02  1.04638E+03 -7.96459E+02  6.59309E+02  1.58170E+03
  8.51792E+01  1.43582E+03 -8.22213E+02  1.32519E+03  1.47121E+02  1.05969E+03 -7.13229E+02 -4.59575E+02
  4.18064E+02 -3.50894E+01 -4.28861E+02  1.11385E+02 -1.75060E+03  5.80073E+02 -1.45983E+03 -7.05253E+02
 -6.21718E+01 -7.64847E+02 -1.61395E+03 -2.50393E+03  1.49207E+03 -1.59925E+03  1.15237E+03  7.87681E+01
  1.05871E+03 -5.22784E+01 -5.23331E+02  5.54684E+02  2.28593E+02  1.65319E+03  3.02687E+02  2.33674E+02
