 $NMID ID='MM_0lb_SNR200_14hz_g40_25.RAW', FMTDAT='(8E13.5)'
 TRAMP=1., VOLUME=1. $END
  3.09614E+05  3.85798E+02  3.38232E+05  2.51263E+05  8.29137E+04  3.38309E+05 -1.32019E+05  2.50720E+05
 -1.90639E+05  8.25296E+04 -1.11298E+05 -3.10309E+04  2.53482E+03 -5.01076E+04  5.36501E+04 -3.30752E+02
  3.49207E+04  5.39521E+04 -1.71390E+04  7.66103E+04 -5.97158E+04  6.29368E+04 -8.33940E+04  3.22104E+04
 -8.10302E+04 -9.89227E+03 -5.60530E+04 -5.08954E+04 -1.43312E+04 -6.87465E+04  2.74608E+04 -4.44596E+04
  3.94897E+04  3.01109E+03  1.50037E+04  4.81380E+04 -3.39416E+04  4.72381E+04 -6.73087E+04 -1.19798E+03
 -5.26354E+04 -5.57799E+04 -6.94410E+03 -7.69527E+04  3.22506E+04 -5.43591E+04  4.73783E+04 -1.66240E+04
  4.27403E+04  1.16689E+04  3.05844E+04  2.63517E+04  1.64555E+04  2.91230E+04 -4.86858E+03  2.63625E+04
 -2.23502E+04  1.26107E+04 -1.82591E+04 -5.50918E+03  5.14895E+03 -6.92831E+03  2.10263E+04  1.17844E+04
  6.87938E+03  3.50100E+04 -3.10178E+04  3.47542E+04 -6.33558E+04  1.70095E+03 -5.71838E+04 -4.21419E+04
 -1.29468E+04 -6.22002E+04  3.91734E+04 -4.49143E+04  5.76783E+04 -2.17062E+03  3.29895E+04  3.22529E+04
 -6.30832E+03  3.43828E+04 -2.82460E+04  1.45605E+04 -2.96407E+04 -4.97864E+03 -1.60057E+04 -1.22234E+04
 -8.02325E+03 -1.29529E+04 -1.45822E+03 -1.77156E+04  8.14172E+03 -2.27304E+04  1.51337E+04 -1.51338E+04
  1.08358E+04  5.46068E+03 -7.83650E+03  1.28126E+04 -2.11649E+04 -3.85817E+03 -7.33126E+03 -3.17393E+04
  2.24993E+04 -4.26168E+04  4.72368E+04 -1.99923E+04  4.43978E+04  1.85060E+04  1.53402E+04  4.41955E+04
 -1.57133E+04  3.23475E+04 -2.54832E+04  2.12286E+03 -8.71163E+03 -2.75037E+04  2.10986E+04 -3.43562E+04
  4.08186E+04 -9.18289E+03  3.39869E+04  2.40539E+04  1.61387E+04  4.67135E+04 -7.32296E+03  4.98589E+04
 -3.06386E+04  3.32688E+04 -4.12750E+04  1.02081E+04 -4.13576E+04 -1.70934E+04 -2.30711E+04 -3.71630E+04
  4.88589E+03 -3.67652E+04  3.11491E+04 -1.29781E+04  2.98432E+04  1.04798E+04  4.33983E+03  2.03360E+04
 -1.42638E+04  7.20098E+03 -9.79304E+03 -6.85790E+03  5.89996E+03 -9.58539E+03  1.90009E+04  6.99690E+03
  1.35584E+04  2.13299E+04 -6.30720E+03  2.40461E+04 -2.09738E+04  1.01801E+04 -2.73217E+04 -6.42772E+03
 -1.83250E+04 -1.69575E+04 -7.24535E+03 -1.96465E+04  3.70494E+03 -1.80171E+04  1.51326E+04 -1.68633E+04
  2.39784E+04 -1.27156E+04  3.19052E+04  2.31176E+03  2.24671E+04  1.91667E+04  4.86788E+03  3.56415E+04
 -1.80172E+04  2.83751E+04 -2.70524E+04  1.04217E+04 -2.08296E+04 -1.00544E+04 -4.09371E+03 -1.40712E+04
  1.55418E+03 -3.44839E+03 -3.70079E+03  6.34658E+03 -1.55166E+04  4.43274E+03 -1.59673E+04 -7.36065E+03
 -9.96784E+03 -1.71137E+04  4.75569E+03 -2.28039E+04  1.43393E+04 -1.63573E+04  1.70077E+04 -1.99792E+03
  9.20693E+03  1.24602E+04 -5.08930E+02  1.76627E+04 -1.37854E+04  1.15286E+04 -1.83506E+04 -4.69858E+03
 -1.23244E+04 -1.64028E+04 -2.18090E+03 -2.24193E+04  9.04210E+03 -1.77313E+04  1.80678E+04 -9.24122E+03
  1.70347E+04  4.62214E+02  1.23257E+04  3.27404E+03  7.34420E+03  4.27675E+02  8.87214E+03 -1.17804E+03
  1.64928E+04  2.94187E+03  1.86813E+04  1.49220E+04  1.21363E+04  2.95707E+04 -3.35074E+03  3.27624E+04
 -1.95532E+04  2.71608E+04 -3.02287E+04  1.26679E+04 -3.18895E+04 -1.49442E+03 -2.66063E+04 -1.88771E+04
 -1.19317E+04 -2.71733E+04  9.64041E+03 -2.40001E+04  1.97909E+04 -1.27433E+04  1.96002E+04  3.70754E+03
  6.91833E+03  1.37304E+04 -7.59113E+03  1.21200E+04 -1.62748E+04  3.00291E+03 -1.18739E+04 -8.78448E+03
 -1.24522E+03 -1.57784E+04  7.18358E+03 -1.17500E+04  9.67663E+03 -5.14757E+02  3.37198E+03  5.00070E+03
 -8.07648E+03  2.11911E+03 -5.71332E+03 -5.45178E+03 -8.62662E+02 -1.21910E+04  9.79832E+03 -1.31048E+04
  1.46966E+04 -7.52724E+03  1.67422E+04  2.74874E+03  1.43852E+04  1.15426E+04  5.95886E+03  2.02011E+04
 -2.59110E+03  2.08743E+04 -1.27673E+04  1.23918E+04 -1.48427E+04  4.08211E+03 -1.00754E+04 -3.56595E+03
 -5.03314E+03 -3.43831E+03 -3.31078E+02  1.05435E+03 -1.93437E+03  2.69825E+03 -5.58693E+03  3.89752E+03
 -1.06454E+04  5.88582E+01 -1.22423E+04 -9.72275E+03 -5.28632E+03 -1.43089E+04  5.00487E+03 -1.21107E+04
  7.90329E+03 -4.65953E+03  6.80293E+03  2.06135E+03 -8.59210E+01  4.37023E+03 -5.59724E+03 -5.68356E+01
 -6.64955E+03 -6.47790E+03 -5.67654E+02 -1.02957E+04  6.03984E+03 -9.76253E+03  1.25967E+04 -6.24694E+03
  1.44766E+04  1.01575E+03  1.10569E+04  8.87905E+03  2.89212E+03  1.18896E+04 -5.91339E+03  1.12110E+04
 -9.01482E+03  2.60122E+03 -4.33376E+03 -1.76675E+03  2.01451E+03 -3.72675E+03  5.48388E+03 -1.12242E+03
  5.23351E+03  3.60825E+03  1.18733E+03  8.15517E+03 -5.01678E+03  7.82713E+03 -1.15393E+04  3.27756E+03
 -8.37340E+03 -5.08420E+03 -3.47428E+02 -8.29318E+03  6.28996E+03 -4.03010E+03  4.98212E+03  2.60568E+03
  4.53760E+02  5.98237E+03 -5.72177E+03  7.05421E+03 -8.03380E+03  2.93716E+03 -6.92059E+03 -1.76366E+03
 -4.56806E+03 -8.30694E+03  2.04794E+03 -1.03639E+04  9.99607E+03 -6.81274E+03  1.10848E+04  1.83566E+03
  6.24504E+03  7.29936E+03 -9.79631E+02  1.08418E+04 -7.59760E+03  4.93532E+03 -7.95731E+03 -8.87325E+02
 -7.48890E+03 -7.27059E+03 -8.96258E+02 -6.77783E+03  3.92514E+03 -6.61425E+03  3.99104E+03 -2.37553E+03
  3.35155E+03  2.10544E+03 -8.30851E+02  7.21723E+02 -9.96869E+02 -1.69023E+02  8.22975E+02 -3.76250E+03
  5.58183E+03 -1.94154E+03  8.79479E+03  9.52921E+02  9.22463E+03  5.55335E+03  7.20241E+03  1.23604E+04
 -3.34565E+03  1.38406E+04 -1.16858E+04  8.90911E+03 -1.43322E+04  2.22601E+03 -1.22875E+04 -4.58042E+03
 -5.96506E+03 -9.73733E+03 -1.76525E+03 -8.40226E+03  2.20965E+03 -4.48065E+03  2.51252E+03 -3.26187E+03
  2.16684E+03 -2.99205E+03  3.00871E+03 -1.82541E+03  4.91230E+03 -1.53550E+03  4.56141E+03  7.38989E+02
  6.54009E+03  1.89359E+03  1.98627E+03  4.94421E+03 -1.45744E+03  4.82743E+03 -7.65499E+03  5.02346E+03
 -6.92216E+03 -1.15757E+03 -4.17152E+03 -5.61703E+03 -8.77828E+02 -9.28703E+03  3.95911E+03 -8.83186E+03
  8.14654E+03 -5.22414E+03  1.04452E+04  1.95671E+03  6.77370E+03  6.74513E+03  2.16540E+03  9.56707E+03
 -2.78005E+03  8.10481E+03 -6.72251E+03  2.09811E+03 -3.10390E+03 -1.14081E+03 -2.29110E+03 -1.23994E+03
 -1.47739E+03  3.11794E+02 -1.78259E+03  3.05236E+03 -3.93554E+03  1.12014E+03 -5.88704E+03 -5.16420E+02
 -4.12134E+03 -4.82123E+03  9.75185E+02 -8.98569E+03  4.63490E+03 -7.24729E+03  7.91192E+03 -1.74553E+03
  6.54031E+03  3.52740E+03  2.82996E+03  6.46581E+03 -1.71749E+03  7.75081E+03 -3.95014E+03  5.68403E+03
 -6.95630E+03  7.62741E+02 -5.62046E+03 -3.45976E+03 -8.65823E+01 -6.53974E+03  3.03505E+03 -4.37070E+03
  5.07168E+03 -1.19378E+03  2.92008E+03  6.57066E+02  8.83578E+02  2.14844E+03  7.21813E+02  7.23843E+02
  2.59908E+03  1.70523E+02  1.02043E+03  1.37772E+03  2.40647E+03  2.86482E+03  1.34758E+03  4.33796E+03
 -9.67201E+02  5.38309E+03 -4.78051E+03  5.66283E+03 -6.25113E+03  1.08269E+03 -7.51772E+03 -2.45824E+03
 -3.28899E+03 -6.65644E+03  7.44284E+02 -9.17356E+03  4.18160E+03 -4.50272E+03  4.93681E+03 -7.30434E+02
  5.03262E+03  3.00407E+03  1.94910E+03  3.89683E+03 -2.97227E+03  3.06575E+03 -3.72604E+03  7.92801E+02
 -7.28545E+02 -3.22885E+03  2.10072E+03 -3.22144E+03  3.15117E+03 -1.81922E+03  3.11424E+03 -9.10873E+02
  1.79223E+03  3.01084E+03  2.45686E+03  8.41407E+02 -5.45877E+01  1.82731E+03  7.78884E+02 -2.76908E+02
  1.65702E+03 -7.55537E+02  4.17406E+03  1.29105E+03  1.33763E+03  3.21202E+03 -5.03450E+02  4.28643E+03
 -3.58985E+03  2.39214E+03 -4.09578E+03  1.53760E+03 -4.01684E+03 -7.27559E+02 -1.29755E+03 -9.24763E+02
  8.95009E+02 -2.45416E+03  1.42364E+03 -1.11013E+03  2.15433E+03  2.47099E+03 -1.98902E+03  1.48869E+03
 -1.56116E+03  2.70964E+02 -3.60481E+03 -1.71206E+03 -1.43050E+03 -4.61352E+03  8.63631E+02 -1.89089E+03
  1.85210E+03 -1.06708E+03  2.82550E+03 -2.91151E+02  1.25137E+03 -2.78865E+02  1.58508E+03  1.89312E+03
 -1.09585E+03  1.30388E+03 -1.72406E+03 -7.94047E+02  5.83979E+02 -3.31988E+03  2.95590E+03 -2.48230E+03
  3.93275E+03  4.57727E+02  4.66224E+03  2.82298E+03  2.92471E+03  3.05753E+03 -1.60490E+03  5.14160E+03
 -3.68229E+03  1.28996E+03 -4.19781E+03 -7.30297E+02 -1.97304E+03 -2.98824E+03 -4.66052E+02 -1.85141E+03
  1.24589E+03 -2.63883E+02  2.07028E+03  2.23711E+02 -4.28620E+02  2.57404E+03  1.02108E+03  2.38898E+03
 -6.20160E+02  2.62402E+03 -1.86906E+03  1.00803E+03 -1.75848E+02  6.50577E+02 -4.89186E+02  1.82166E+02
 -7.91799E+02  1.68090E+03 -4.40734E+03  1.84443E+03 -4.32144E+03  4.94719E+02 -5.08315E+03 -2.55614E+03
 -2.70419E+03 -4.07750E+03  1.03555E+03 -5.68295E+03  3.26227E+03 -5.78338E+03  5.79284E+03 -1.80120E+03
  5.93682E+03  2.76905E+02  3.34705E+03  3.64000E+03  2.91212E+02  2.97182E+03 -1.35344E+03  2.45780E+03
 -1.92982E+03  2.13363E+02 -1.00519E+03 -2.04696E+03 -8.39332E+02  4.09325E+02 -9.63056E+02  3.57025E+02
 -1.09832E+03  3.55970E+02 -1.99103E+03  5.55438E+01 -3.43778E+02 -3.44871E+02 -8.10687E+02 -2.14924E+03
  1.16061E+03 -1.66499E+03  1.78531E+03 -6.46982E+02  3.43672E+03  2.36107E+03  6.99665E+01  3.22775E+03
 -6.27441E+02  4.45069E+03 -3.71002E+03  2.67984E+03 -5.28309E+03 -3.66152E+02 -3.76791E+03 -3.48131E+03
 -9.59626E+02 -4.04519E+03  7.01889E+02 -3.41003E+03  1.89397E+03 -2.95081E+03  2.76863E+03  3.58552E+01
  2.39693E+02  5.88252E+02  1.78387E+02  2.67214E+02 -1.78966E+03 -1.54027E+03  3.19724E+02 -9.81874E+02
  1.94756E+03 -6.99654E+02  1.58546E+03  9.28375E+02  1.35268E+03  7.30508E+02 -2.92531E+02  3.15719E+03
 -1.60709E+03  2.21671E+03 -1.92511E+03  4.41048E+02 -1.43225E+03 -7.21521E+02 -2.30682E+02 -3.12664E+03
  1.12286E+03 -2.64849E+03  5.37132E+02 -2.62780E+02  2.42805E+03 -1.39775E+02  2.41391E+03  2.78158E+03
 -4.41483E+02  2.40729E+03 -1.91690E+02  2.39802E+03 -6.16080E+02  1.61747E+03 -1.73665E+03 -3.64533E+02
 -1.20840E+02 -5.96525E+02 -1.19017E+03  3.61053E+01 -1.16340E+03  5.38568E+02 -8.95710E+02 -5.12272E+02
 -1.61498E+03 -1.18481E+03 -5.12981E+02 -2.38820E+03  1.01019E+03 -3.71616E+03  1.76787E+03 -1.24362E+03
  2.48756E+03 -7.17721E+02  3.52657E+02  1.75076E+03 -5.50972E+02  2.26142E+03 -1.61047E+03  2.95137E+03
