 $NMID ID='MM_0lb_SNR200_13hz_g50_73.RAW', FMTDAT='(8E13.5)'
 TRAMP=1., VOLUME=1. $END
  3.09409E+05  8.87930E+02  3.37467E+05  2.52225E+05  8.53391E+04  3.39809E+05 -1.32579E+05  2.51659E+05
 -1.90307E+05  8.34761E+04 -1.12662E+05 -3.32780E+04  2.26773E+02 -5.07699E+04  5.36718E+04 -5.68669E+02
  3.55287E+04  5.30100E+04 -1.64308E+04  7.54691E+04 -6.09591E+04  6.29352E+04 -8.48182E+04  3.26362E+04
 -8.04544E+04 -1.09951E+04 -5.66159E+04 -5.25318E+04 -1.55085E+04 -6.99151E+04  2.82674E+04 -4.66682E+04
  4.01408E+04  2.79801E+03  1.63101E+04  4.67065E+04 -3.57015E+04  4.74206E+04 -6.75264E+04 -4.63588E+02
 -5.43673E+04 -5.73987E+04 -7.00691E+03 -7.75588E+04  3.53400E+04 -5.54181E+04  4.82190E+04 -1.76133E+04
  4.51814E+04  1.23393E+04  3.13142E+04  2.54357E+04  1.72950E+04  2.95153E+04 -4.44786E+03  2.79333E+04
 -2.19582E+04  1.09807E+04 -1.80763E+04 -6.83738E+03  6.98147E+03 -6.47235E+03  2.34532E+04  1.29052E+04
  7.71801E+03  3.56302E+04 -3.25652E+04  3.62484E+04 -6.40926E+04  2.41882E+03 -5.72999E+04 -4.20943E+04
 -1.30300E+04 -6.34078E+04  3.95505E+04 -4.59137E+04  5.84720E+04 -3.04475E+03  3.41623E+04  3.30902E+04
 -6.42643E+03  3.74097E+04 -3.11788E+04  1.71809E+04 -3.10923E+04 -4.75932E+03 -1.83011E+04 -1.02769E+04
 -7.88433E+03 -1.30020E+04 -6.33748E+02 -1.69596E+04  8.08603E+03 -2.28286E+04  1.53780E+04 -1.37434E+04
  1.15406E+04  4.01658E+03 -1.02615E+04  1.24653E+04 -2.01072E+04 -4.36967E+03 -9.44562E+03 -3.50535E+04
  2.17788E+04 -4.27700E+04  4.98150E+04 -2.03181E+04  4.62051E+04  2.03013E+04  1.64593E+04  4.54341E+04
 -1.60858E+04  3.43996E+04 -2.64356E+04  4.99613E+02 -1.16587E+04 -2.72725E+04  2.19505E+04 -3.52003E+04
  4.26774E+04 -8.68175E+03  3.66656E+04  2.38362E+04  1.67481E+04  4.82020E+04 -8.74041E+03  4.98595E+04
 -3.22619E+04  3.40586E+04 -4.22600E+04  9.80105E+03 -4.34926E+04 -1.70597E+04 -2.50282E+04 -3.88478E+04
  8.83067E+03 -3.88616E+04  3.22857E+04 -1.47395E+04  2.98021E+04  1.02560E+04  3.78712E+03  1.96668E+04
 -1.26011E+04  8.12713E+03 -9.70489E+03 -8.85210E+03  5.36178E+03 -1.04813E+04  1.73577E+04  5.91267E+03
  1.40580E+04  2.33801E+04 -5.82234E+03  2.57713E+04 -2.37280E+04  1.21762E+04 -2.96616E+04 -3.45996E+03
 -2.18598E+04 -1.81408E+04 -9.49604E+03 -2.06777E+04  3.29514E+03 -2.06857E+04  1.62916E+04 -1.78171E+04
  2.78369E+04 -1.42330E+04  3.41084E+04  3.11688E+03  2.45350E+04  1.99598E+04  4.69159E+03  3.68052E+04
 -1.77019E+04  3.13150E+04 -2.87992E+04  1.08563E+04 -1.99314E+04 -9.35984E+03 -5.46372E+03 -1.35494E+04
  9.46114E+02 -3.18545E+03 -6.80317E+03  5.97629E+03 -1.73127E+04  4.82516E+03 -1.58084E+04 -8.25872E+03
 -1.04328E+04 -2.01441E+04  5.29982E+03 -2.39648E+04  1.72906E+04 -1.65242E+04  1.88900E+04 -1.08246E+03
  1.17131E+04  1.27764E+04 -8.48633E+02  1.99058E+04 -1.35019E+04  1.14986E+04 -1.88573E+04 -6.05866E+03
 -1.45118E+04 -1.74676E+04 -2.40220E+03 -2.41317E+04  1.04846E+04 -1.99118E+04  2.10090E+04 -9.58295E+03
  1.78393E+04 -1.18142E+03  1.27745E+04  4.56958E+03  6.52862E+03  1.81809E+03  9.84908E+03 -1.69503E+03
  1.86199E+04  3.59169E+03  2.14414E+04  1.53298E+04  1.30094E+04  3.21897E+04 -2.32622E+03  3.64524E+04
 -2.22691E+04  3.14744E+04 -3.51862E+04  1.50525E+04 -3.61387E+04 -3.42273E+03 -2.75755E+04 -2.12986E+04
 -1.17034E+04 -2.97282E+04  9.68405E+03 -2.66827E+04  2.34599E+04 -1.20828E+04  1.98872E+04  5.57692E+03
  8.04433E+03  1.36794E+04 -9.51429E+03  1.35716E+04 -1.65130E+04  3.46284E+03 -1.29794E+04 -1.04067E+04
 -1.11581E+03 -1.64343E+04  9.47533E+03 -1.12610E+04  1.05233E+04 -1.01478E+03  2.12956E+03  7.34380E+03
 -7.07243E+03  2.62548E+03 -5.97743E+03 -5.35044E+03 -8.10727E+02 -1.45106E+04  9.82433E+03 -1.49142E+04
  1.93801E+04 -9.12743E+03  1.94135E+04  3.25873E+03  1.55212E+04  1.24367E+04  9.11939E+03  2.26649E+04
 -3.61239E+03  2.42297E+04 -1.59516E+04  1.50034E+04 -1.85973E+04  4.17770E+03 -1.19827E+04 -4.14043E+03
 -6.91267E+03 -4.89152E+03  6.86776E+01  1.94121E+02 -2.16689E+03  2.97991E+03 -5.90175E+03  3.60045E+03
 -1.15234E+04 -1.91548E+03 -1.09227E+04 -1.01851E+04 -3.86441E+03 -1.67180E+04  5.40450E+03 -1.33453E+04
  1.02428E+04 -5.30706E+03  6.77748E+03  4.05570E+03 -2.85850E+02  3.96555E+03 -5.94492E+03 -6.43312E+02
 -6.29037E+03 -8.73861E+03 -4.07110E+02 -1.13517E+04  7.20394E+03 -1.18252E+04  1.45407E+04 -6.97842E+03
  1.78685E+04  1.88981E+03  1.24387E+04  1.02567E+04  2.40712E+03  1.40626E+04 -7.29031E+03  1.27549E+04
 -9.37609E+03  4.76837E+03 -3.69425E+03 -3.97474E+03  1.67233E+03 -3.72669E+03  7.89442E+03 -1.82747E+03
  6.36998E+03  4.28226E+03  1.32361E+03  9.04469E+03 -8.35236E+03  1.05377E+04 -1.26131E+04  2.92833E+03
 -7.19943E+03 -6.08203E+03 -4.34220E+02 -9.91710E+03  6.09550E+03 -3.85383E+03  5.56408E+03  2.11902E+03
  2.53377E+03  5.75443E+03 -6.15697E+03  6.90594E+03 -9.13343E+03  2.65487E+03 -8.54868E+03 -3.42550E+03
 -4.86665E+03 -1.15232E+04  2.18508E+03 -1.15176E+04  1.09824E+04 -9.40159E+03  1.13049E+04  2.76591E+03
  8.49545E+03  9.00628E+03 -4.28792E+02  1.14479E+04 -7.52790E+03  5.24450E+03 -7.68647E+03 -2.39993E+03
 -7.33476E+03 -7.30822E+03 -9.28129E+02 -9.26257E+03  3.88995E+03 -7.34064E+03  3.70103E+03 -3.02504E+03
  3.35357E+03  8.56398E+02 -1.21344E+03  5.23790E+02 -8.59428E+02 -1.78253E+03  1.05703E+03 -4.29215E+03
  7.03740E+03 -3.30143E+03  9.47162E+03  9.59621E+02  1.05585E+04  6.60173E+03  7.84439E+03  1.42314E+04
 -2.46699E+03  1.59869E+04 -1.36184E+04  1.28515E+04 -1.76192E+04  1.83733E+03 -1.34008E+04 -6.39667E+03
 -7.99491E+03 -1.21975E+04  8.54034E+02 -9.76639E+03  3.99611E+03 -6.31297E+03  3.87913E+03 -3.55184E+03
  1.47647E+03 -2.16231E+03  4.71582E+03 -3.37789E+03  5.97680E+03 -1.76867E+03  5.23020E+03 -4.91765E+01
  8.14075E+03  1.07280E+03  3.42184E+03  5.94726E+03 -1.75012E+03  6.15278E+03 -8.05511E+03  4.51283E+03
 -1.08406E+04 -1.42739E+03 -5.96936E+03 -7.10582E+03 -2.01952E+03 -1.07671E+04  5.76977E+03 -1.02391E+04
  9.27037E+03 -4.84981E+03  1.23427E+04  1.18099E+03  9.05589E+03  8.73226E+03  1.80620E+03  1.19181E+04
 -4.02189E+03  1.00180E+04 -6.75475E+03  2.70322E+03 -4.19866E+03 -2.32805E+03 -5.85383E+02 -6.70900E+02
 -1.07013E+02  7.37190E+02 -2.02566E+03  2.63432E+03 -4.09437E+03  2.80756E+02 -5.97502E+03 -9.80221E+02
 -4.49867E+03 -6.27533E+03  7.93008E+02 -9.02992E+03  5.84787E+03 -7.89351E+03  8.86934E+03 -2.60003E+03
  9.47038E+03  4.78694E+03  3.55757E+03  7.48238E+03 -1.79261E+03  7.68675E+03 -7.08098E+03  6.38087E+03
 -8.21608E+03 -8.67853E+02 -6.25480E+03 -4.69077E+03 -1.10938E+03 -7.10788E+03  4.75590E+03 -5.55505E+03
  5.17036E+03 -1.44136E+03  4.55905E+03  1.10937E+03  6.77379E+02  3.42984E+03  4.93611E+02  2.34244E+03
  1.52750E+03  1.21804E+03  2.13881E+03  1.01336E+03  1.85370E+03  4.37514E+03  1.63606E+03  4.91814E+03
 -2.44657E+03  7.02879E+03 -6.60905E+03  6.60452E+03 -7.82690E+03  1.63125E+03 -9.22978E+03 -3.86669E+03
 -4.61624E+03 -8.55594E+03  6.37291E+02 -1.01944E+04  4.89565E+03 -6.17140E+03  7.38348E+03 -1.03843E+03
  4.90817E+03  2.82089E+03  2.69721E+03  6.43592E+03 -3.10501E+03  4.49363E+03 -1.28289E+03  6.88190E+02
 -1.67667E+03 -4.64197E+03  2.12496E+03 -4.28600E+03  3.97536E+03 -1.98856E+03  3.24674E+03 -3.46440E+01
  1.90234E+03  2.08063E+03  7.10404E+02  1.13807E+03 -2.51480E+02  9.60193E+02  1.01001E+03  1.16756E+02
  1.04566E+03 -1.79716E+03  3.61491E+03  1.90676E+03  2.55675E+03  4.83505E+03 -1.39933E+03  8.07223E+03
 -4.46726E+03  3.39517E+03 -3.90694E+03  9.76311E+02 -5.49550E+03 -1.32751E+03 -2.82025E+03 -3.85303E+03
 -9.88453E+01 -3.23210E+03  1.91053E+03 -1.15024E+03  2.48408E+03  7.17625E+02 -3.72327E+02  2.92827E+03
 -3.14565E+03  2.09124E+03 -4.25592E+03 -1.92929E+03 -1.48136E+03 -4.98469E+03  1.23701E+03 -4.80224E+03
  2.53182E+03 -2.65424E+03  3.19950E+03  4.57190E+01  3.10001E+03  1.00453E+03 -6.36797E+02  2.85787E+03
 -1.08835E+03  8.58036E+02 -9.41847E+02 -1.43689E+03  8.97224E+01 -2.63801E+03  4.68755E+03 -2.85896E+03
  3.91302E+03  1.35797E+03  4.73454E+03  2.12646E+03  3.33544E+03  6.22922E+03 -1.20773E+03  4.48971E+03
 -2.45000E+03  3.10097E+02 -4.41669E+03 -2.99441E+02 -3.59900E+03 -3.08801E+03  1.46070E+03 -3.31879E+03
  2.92192E+03 -2.15170E+03  3.23977E+03 -1.25025E+03  7.41722E+02  2.68312E+03 -2.03060E+03  2.95373E+03
 -1.34465E+03  1.30578E+03 -1.54511E+03  6.94238E+02 -1.11491E+03  9.00845E+02 -8.77984E+02  1.11193E+03
 -8.55307E+02  1.52869E+03 -3.91230E+03  1.44609E+03 -5.58670E+03 -6.46045E+02 -5.88088E+03 -3.33332E+03
 -3.46591E+03 -7.02778E+03  8.09353E+02 -5.29656E+03  4.45151E+03 -5.86019E+03  7.98556E+03 -1.63416E+03
  6.07533E+03  1.92902E+03  5.31990E+03  4.07388E+03  8.84003E+02  5.76920E+03 -2.07798E+03  3.80523E+03
 -2.54037E+03  2.88626E+03 -1.39323E+03  2.95214E+02 -2.25222E+03 -1.22209E+03 -8.71257E+02 -4.61083E+02
 -1.22833E+02  8.41599E+02 -1.28930E+03  2.18834E+02 -9.61684E+02 -8.88620E+02 -8.74991E+02 -2.17365E+03
  1.60724E+03 -1.23604E+03  3.65221E+03 -2.90228E+02  3.69799E+03  2.89794E+03  1.89706E+02  4.23429E+03
 -1.65574E+03  6.06088E+03 -5.68104E+03  3.79741E+03 -6.31188E+03  1.83477E+02 -4.96672E+03 -3.09874E+03
 -1.74808E+03 -5.09143E+03  3.44925E+02 -4.63714E+03  2.21875E+03 -3.48388E+03  2.11448E+03  1.06766E+02
 -5.70665E+02  1.71656E+03  9.59477E+02  2.43865E+02 -2.19187E+03  3.67319E+02  6.78452E+02 -7.63343E+02
  1.80273E+03 -6.80636E+01  1.23204E+03  5.45909E+02  8.80084E+02  3.35078E+03 -1.01228E+02  3.91849E+03
 -1.14500E+03  3.53629E+03 -3.75539E+03  5.14687E+02 -2.53693E+03 -1.82871E+03  1.35486E+00 -3.18200E+03
  2.08403E+03 -3.48983E+03  3.04237E+03  4.32926E+02  5.78870E+03  5.56000E+02  2.05760E+03  2.46347E+03
  8.02038E+02  3.72435E+03 -1.42525E+03  3.08687E+03 -1.89866E+03  4.93257E+02 -1.42880E+03 -5.28224E+02
 -9.56196E+02  6.13459E+02 -1.91816E+02  1.24707E+03 -1.85459E+03  6.67831E+02 -3.11182E+03 -4.06191E+02
 -2.37169E+03 -1.34588E+03 -9.89015E+02 -3.80394E+03  2.71697E+03 -3.64679E+03  1.37917E+03 -2.33833E+03
  2.76349E+03  1.99229E+02  5.79401E+02  2.46779E+03 -6.59095E+02  3.82621E+03 -1.67295E+03  9.98637E+02
