 $NMID ID='MM_0lb_SNR200_17hz_g60_82.RAW', FMTDAT='(8E13.5)'
 TRAMP=1., VOLUME=1. $END
  3.09921E+05  5.90386E+02  3.37167E+05  2.51826E+05  8.46700E+04  3.38790E+05 -1.32263E+05  2.51695E+05
 -1.90489E+05  8.24235E+04 -1.11545E+05 -3.29479E+04  4.46838E+02 -5.06565E+04  5.36482E+04 -1.49416E+02
  3.57740E+04  5.28865E+04 -1.73134E+04  7.64101E+04 -6.07891E+04  6.31631E+04 -8.38197E+04  3.25350E+04
 -8.09849E+04 -1.15375E+04 -5.73947E+04 -5.09401E+04 -1.53442E+04 -6.90635E+04  2.77144E+04 -4.58844E+04
  4.05161E+04  5.27251E+03  1.61804E+04  4.74992E+04 -3.46085E+04  4.80937E+04 -6.71654E+04  3.89548E+02
 -5.27481E+04 -5.60693E+04 -6.72590E+03 -7.72051E+04  3.36310E+04 -5.52882E+04  4.85530E+04 -1.78144E+04
  4.32595E+04  1.08441E+04  3.18762E+04  2.55061E+04  1.53792E+04  2.86203E+04 -5.40401E+03  2.75857E+04
 -2.17406E+04  1.17131E+04 -1.86300E+04 -4.92131E+03  5.01140E+03 -7.05324E+03  2.23934E+04  1.27667E+04
  7.47613E+03  3.48354E+04 -3.13599E+04  3.57303E+04 -6.25315E+04  2.90661E+03 -5.65466E+04 -4.28993E+04
 -1.23371E+04 -6.20444E+04  3.98118E+04 -4.53489E+04  5.90900E+04 -5.75900E+02  3.34208E+04  3.13434E+04
 -5.98028E+03  3.60732E+04 -3.00185E+04  1.58020E+04 -3.03554E+04 -3.58799E+03 -1.59035E+04 -1.12741E+04
 -8.74052E+03 -1.21835E+04 -1.32346E+03 -1.67932E+04  7.48510E+03 -2.31222E+04  1.56253E+04 -1.29301E+04
  1.08036E+04  4.88687E+03 -8.38554E+03  1.30008E+04 -2.08387E+04 -4.46391E+03 -7.77231E+03 -3.20886E+04
  2.39361E+04 -4.33171E+04  4.62442E+04 -1.87532E+04  4.54388E+04  1.92586E+04  1.51184E+04  4.36804E+04
 -1.51238E+04  3.18016E+04 -2.52863E+04  2.57941E+03 -1.01243E+04 -2.77003E+04  1.90231E+04 -3.25542E+04
  4.06718E+04 -7.38698E+03  3.31037E+04  2.22104E+04  1.62794E+04  4.62600E+04 -6.93594E+03  4.90273E+04
 -3.11438E+04  3.31444E+04 -4.06686E+04  9.49934E+03 -4.20689E+04 -1.64941E+04 -2.26545E+04 -3.68984E+04
  8.07882E+03 -3.59992E+04  3.07981E+04 -1.54082E+04  2.77162E+04  1.09577E+04  3.50779E+03  1.93856E+04
 -1.38689E+04  9.70132E+03 -1.07299E+04 -7.24486E+03  5.32830E+03 -1.07915E+04  1.80929E+04  6.92834E+03
  1.31630E+04  2.17522E+04 -5.42545E+03  2.35923E+04 -2.28622E+04  1.07077E+04 -2.71850E+04 -5.31181E+03
 -1.90070E+04 -1.69986E+04 -7.45162E+03 -1.87237E+04  2.77465E+03 -1.89044E+04  1.48054E+04 -1.71624E+04
  2.50070E+04 -1.31538E+04  3.15278E+04  2.21706E+03  2.20857E+04  1.96788E+04  4.22301E+03  3.58628E+04
 -1.72987E+04  3.05520E+04 -2.72505E+04  1.04939E+04 -2.01110E+04 -1.02559E+04 -4.11153E+03 -1.42704E+04
  2.39293E+03 -3.19054E+03 -3.65529E+03  7.69325E+03 -1.55233E+04  5.54785E+03 -1.51381E+04 -7.76193E+03
 -9.46042E+03 -1.85121E+04  5.92787E+03 -2.27058E+04  1.47505E+04 -1.66029E+04  1.66196E+04 -1.90807E+03
  1.00751E+04  1.18205E+04 -1.06345E+03  1.73661E+04 -1.31488E+04  9.61900E+03 -1.70023E+04 -3.84077E+03
 -1.28476E+04 -1.57836E+04 -9.08262E+02 -2.14531E+04  1.03774E+04 -1.85800E+04  1.75613E+04 -8.08790E+03
  1.64335E+04  3.02855E+02  1.25199E+04  5.07724E+03  6.23176E+03  1.11114E+03  9.34059E+03 -1.63157E+03
  1.68493E+04  2.98569E+03  1.70566E+04  1.47097E+04  1.11239E+04  2.89375E+04 -3.90309E+03  3.04149E+04
 -1.87162E+04  2.43137E+04 -2.95065E+04  1.26931E+04 -3.07028E+04 -1.45637E+03 -2.69200E+04 -1.72574E+04
 -1.18900E+04 -2.48663E+04  8.86202E+03 -2.26375E+04  1.98513E+04 -1.20428E+04  1.86082E+04  5.23183E+03
  6.54924E+03  1.18986E+04 -7.52327E+03  1.25193E+04 -1.49422E+04  2.51834E+03 -1.09517E+04 -9.20439E+03
 -4.14443E+02 -1.43178E+04  6.99051E+03 -9.82269E+03  8.05928E+03 -6.22036E+02  2.03788E+03  6.78299E+03
 -6.37493E+03  1.91289E+03 -5.45743E+03 -5.87430E+03  1.35147E+00 -1.15432E+04  8.99316E+03 -1.23699E+04
  1.51530E+04 -6.07966E+03  1.56805E+04  2.18234E+03  1.32065E+04  1.17009E+04  6.81586E+03  1.65840E+04
 -2.65821E+03  2.03326E+04 -1.30546E+04  1.23605E+04 -1.33173E+04  3.68590E+03 -1.06311E+04 -3.72368E+03
 -5.32781E+03 -4.67832E+03  4.08256E+01  1.08079E+03 -7.29744E+02  2.20284E+03 -4.67441E+03  4.67492E+03
 -1.07117E+04 -1.75209E+03 -9.73559E+03 -7.99743E+03 -3.74661E+03 -1.23691E+04  4.68233E+03 -1.01738E+04
  7.97812E+03 -5.07596E+03  5.12916E+03  4.26197E+03  1.78216E+02  3.64865E+03 -3.53066E+03 -2.84427E+02
 -4.41525E+03 -6.90345E+03 -1.33496E+03 -9.08900E+03  3.79312E+03 -9.27180E+03  1.14980E+04 -5.42424E+03
  1.43311E+04  5.28239E+02  1.08744E+04  7.49000E+03  1.80192E+03  1.12378E+04 -5.82551E+03  9.90189E+03
 -8.51177E+03  2.74356E+03 -3.93807E+03 -1.71048E+03  1.49403E+03 -2.72763E+03  5.89983E+03  1.97443E+02
  5.47094E+03  3.72993E+03  2.54394E+02  8.51606E+03 -5.14141E+03  7.04969E+03 -9.11959E+03  2.16640E+03
 -6.70186E+03 -4.04303E+03 -9.29074E+02 -7.66408E+03  4.67623E+03 -3.71484E+03  5.24415E+03  1.48028E+03
  7.85599E+02  4.85703E+03 -5.28451E+03  6.90949E+03 -7.88669E+03  3.15892E+03 -5.70373E+03 -1.24119E+03
 -3.48426E+03 -7.58239E+03  9.00344E+02 -8.76366E+03  7.54173E+03 -6.37840E+03  8.54214E+03  1.47434E+03
  4.85363E+03  7.11481E+03 -6.40708E+02  9.40354E+03 -5.52011E+03  6.01171E+03 -6.19543E+03  3.22705E+02
 -5.79261E+03 -5.94900E+03 -1.73090E+03 -6.49539E+03  2.34678E+03 -5.96974E+03  4.32786E+03 -3.30038E+03
  2.89072E+03  1.81997E+03 -1.03233E+03  1.12357E+03  7.71131E+02  5.36180E+02  9.14221E+02 -1.89992E+03
  5.07304E+03 -1.31063E+03  7.12964E+03  1.68732E+03  7.27369E+03  3.93956E+03  5.66653E+03  1.03292E+04
 -1.97737E+03  1.03184E+04 -1.02088E+04  8.69033E+03 -1.20582E+04  2.35789E+03 -8.87934E+03 -2.38272E+03
 -5.55994E+03 -7.57942E+03 -4.60963E+02 -6.46245E+03  2.88024E+03 -2.80644E+03  2.57930E+03 -4.09517E+03
  2.15883E+03 -1.18921E+03  2.31783E+03 -2.23857E+03  5.08300E+03 -1.10973E+03  4.17682E+03  2.62038E+02
  6.49933E+03  8.74235E+02  2.70931E+03  4.50406E+03 -2.24916E+03  4.56418E+03 -5.26673E+03  3.75983E+03
 -6.70442E+03 -9.23242E+02 -1.95712E+03 -4.11323E+03  2.04138E+02 -5.89991E+03  5.06928E+03 -6.54952E+03
  7.19967E+03 -3.44228E+03  8.10027E+03 -2.18141E+02  6.02549E+03  5.91552E+03  1.18492E+03  6.33827E+03
 -2.53410E+03  7.93158E+03 -3.25788E+03  2.68358E+03 -1.83724E+03 -1.44780E+03 -1.29915E+02 -3.06259E+02
  5.93725E+02  8.33808E+02  3.29546E+02  2.08015E+03 -3.24197E+03  6.28145E+01 -4.35923E+03 -8.68966E+02
 -2.31193E+03 -5.14035E+03  3.00405E+02 -5.97392E+03  3.37887E+03 -6.24703E+03  5.10415E+03 -1.20992E+03
  6.37797E+03  2.80000E+03  3.02183E+03  5.09387E+03 -6.70954E+02  5.66947E+03 -2.91941E+03  3.17459E+03
 -5.43829E+03  6.46032E+02 -4.70856E+03 -3.59221E+03 -3.85998E+02 -4.48817E+03  1.91058E+03 -3.55236E+03
  2.53438E+03 -7.74908E+02  2.54494E+03  1.17371E+03  1.62352E+03  1.71035E+03 -2.13016E+02 -7.77579E+01
  2.18648E+03  1.60329E+03  2.65514E+03  1.81564E+03  2.30378E+03  2.60904E+03  1.01967E+03  1.50876E+03
 -9.20369E+02  4.02700E+03 -3.13418E+03  4.51706E+03 -3.44417E+03  5.02737E+02 -5.43117E+03 -9.41583E+02
 -1.80352E+03 -5.34312E+03  5.58878E+02 -6.22490E+03  2.30142E+03 -2.63820E+03  3.96808E+03 -6.83611E+02
  4.02901E+03  1.84395E+03  5.28201E+02  2.76201E+03 -1.11515E+03  1.31376E+03 -1.21749E+03 -2.55877E+02
 -1.69017E+03 -2.29908E+03  1.17190E+03 -1.81739E+03  1.34245E+03 -2.36556E+03  1.52405E+03  9.72768E+02
  3.62908E+02  1.76574E+02  5.65037E+02  1.33234E+03  2.68416E+02  1.38897E+03  2.00635E+03 -6.75082E+02
  1.18731E+03 -1.92625E+02  1.66905E+03  1.64206E+02 -7.77369E+02  1.72125E+03 -2.60031E+02  3.99871E+03
 -2.80480E+03  1.80368E+03 -1.49932E+03  1.67862E+02 -3.92025E+03 -8.24322E+02  9.79482E+02 -2.15011E+03
  1.40398E+03 -1.33524E+03  6.78668E+02 -1.05357E+03  4.43778E+02  2.19378E+03  5.51857E+02  1.82947E+03
 -2.03436E+03  1.77731E+03 -1.70720E+03 -2.20233E+03 -1.33575E+03 -2.69406E+03 -6.90661E+02 -9.86765E+02
  2.05497E+03 -2.66722E+02  1.22969E+03  5.44340E+02  1.84405E+03  3.85908E+02  1.33839E+03  1.37616E+03
 -6.00743E+02  1.28311E+02 -7.47035E+02 -4.59564E+01  9.46639E+02  4.18680E+01  2.06341E+03 -1.03243E+03
  1.82855E+03  2.44573E+02  3.37364E+03  1.00211E+03  1.46534E+03  2.39108E+03 -1.11889E+03  1.69525E+03
 -1.84283E+03  7.54669E-01 -1.78755E+03  4.24072E+00 -1.22566E+03 -9.89550E+02 -2.70326E+02 -1.00677E+03
  2.56218E+03 -5.91292E+02  1.30012E+03  7.88752E+02  1.89076E+02  2.20378E+03 -1.48606E+02  1.09984E+03
 -1.18519E+03  1.03571E+03  3.38361E+02  5.48650E+02 -8.58052E+02  9.58077E+02 -1.86574E+03  7.04868E+02
 -4.93559E+02  1.45004E+02 -2.15724E+03  5.08947E+02 -1.80482E+03  4.64135E+02 -2.17242E+03 -9.73000E+02
 -9.93658E+02 -3.36869E+03 -2.04458E+02 -3.63541E+03  2.01113E+03 -2.65000E+03  2.56139E+03 -1.89505E+03
  3.15549E+03 -1.87878E+02  1.32753E+03  1.61743E+03 -1.64655E+02  7.81252E+02  1.45312E+02  1.77696E+03
 -8.59549E+02  1.41565E+03 -2.54892E+01 -1.08768E+03 -1.26236E+03  1.17760E+03 -1.00817E+03  6.94832E+02
 -2.17914E+03 -3.59116E+02 -1.55731E+03 -9.71970E+02 -1.53993E+03 -8.24021E+02  1.30754E+03 -2.28556E+03
  1.49378E+03 -3.89252E+02  3.93969E+02  1.11302E+02  1.47483E+03  1.15059E+03 -1.35677E+03  2.23699E+03
 -9.85070E+02  3.62719E+03 -2.11369E+03  1.91806E+03 -2.77430E+03 -5.38226E+02 -2.14006E+03 -2.00444E+03
 -2.09073E+03 -2.77239E+03  6.69493E+02 -2.99670E+03  7.50773E+01 -1.51624E+03  2.27009E+02 -4.02453E+02
  1.94900E+03 -4.16138E+02 -5.72363E+02  1.22252E+03 -2.64061E+02 -1.39252E+03 -7.18133E+00 -6.95017E+02
  2.79473E+02 -2.75508E+02  1.28609E+03  4.30999E+02  9.94680E+02  7.14881E+02  4.17788E+02  7.10569E+02
 -1.41177E+03  2.76769E+02 -1.26125E+02 -3.42597E+02 -1.77178E+03 -1.72840E+02 -7.39849E+01 -1.97034E+03
  1.86759E+03 -7.04751E+02  6.98824E+02  1.92891E+02  1.33283E+03 -1.01950E+03  9.26871E+02  1.16348E+03
 -2.49652E+02  3.69199E+02 -6.26798E+02  1.78334E+03 -1.20341E+03  1.56392E+03 -1.94701E+02  1.98095E+02
 -2.79521E+02 -3.80273E+02 -7.20410E+02  8.23590E+02 -1.09619E+03  1.23319E+02 -1.87416E+03 -4.86738E+02
 -2.30312E+02  1.15464E+03 -9.91688E+02 -6.62921E+02 -3.29861E+02 -2.17859E+03  3.91299E+02 -9.06445E+02
  2.07705E+02  8.59534E+02  2.28929E+02  7.85592E+02 -1.23944E+01  1.04238E+03 -8.55902E+02  1.02833E+03
