 $NMID ID='MM_0lb_SNR200_15hz_g40_2.RAW', FMTDAT='(8E13.5)'
 TRAMP=1., VOLUME=1. $END
  3.10242E+05 -1.19396E+01  3.37857E+05  2.51016E+05  8.45439E+04  3.38698E+05 -1.34081E+05  2.50034E+05
 -1.90109E+05  8.19411E+04 -1.11212E+05 -3.37773E+04  2.04071E+03 -5.03531E+04  5.30968E+04 -3.33675E+02
  3.44914E+04  5.43480E+04 -1.65252E+04  7.63667E+04 -5.92716E+04  6.31469E+04 -8.31801E+04  3.09008E+04
 -8.02796E+04 -1.21206E+04 -5.68383E+04 -5.00370E+04 -1.52042E+04 -6.69885E+04  2.73618E+04 -4.50110E+04
  3.94089E+04  4.79893E+03  1.57276E+04  4.72332E+04 -3.39890E+04  4.70473E+04 -6.63183E+04 -4.05812E+02
 -5.20004E+04 -5.60420E+04 -5.44800E+03 -7.67829E+04  3.38792E+04 -5.43561E+04  4.70287E+04 -1.65069E+04
  4.31009E+04  1.15559E+04  3.05806E+04  2.41468E+04  1.72443E+04  2.86755E+04 -5.28870E+03  2.73080E+04
 -2.17705E+04  1.27589E+04 -1.89909E+04 -5.63237E+03  4.96289E+03 -6.92742E+03  2.19449E+04  1.22214E+04
  8.33681E+03  3.49624E+04 -3.16237E+04  3.57280E+04 -6.13944E+04  2.33664E+03 -5.56034E+04 -4.30634E+04
 -1.17908E+04 -6.18220E+04  3.85057E+04 -4.40501E+04  5.79792E+04 -1.71190E+03  3.31012E+04  3.02938E+04
 -7.24950E+03  3.45407E+04 -2.90564E+04  1.53264E+04 -3.00081E+04 -3.85902E+03 -1.65440E+04 -1.02426E+04
 -7.40777E+03 -1.30356E+04 -1.71370E+03 -1.75744E+04  8.52866E+03 -2.28374E+04  1.50606E+04 -1.34078E+04
  1.27938E+04  4.69242E+03 -6.24913E+03  1.34940E+04 -2.20950E+04 -3.19493E+03 -8.73383E+03 -3.22947E+04
  2.15098E+04 -4.22313E+04  4.62895E+04 -1.94307E+04  4.29134E+04  1.98717E+04  1.47346E+04  4.34620E+04
 -1.52848E+04  3.22954E+04 -2.41181E+04  1.35554E+03 -9.24567E+03 -2.62371E+04  1.89999E+04 -3.14783E+04
  3.89720E+04 -6.74524E+03  3.27646E+04  2.25734E+04  1.71336E+04  4.48248E+04 -8.15995E+03  4.78284E+04
 -2.97952E+04  3.17894E+04 -4.14874E+04  8.57542E+03 -4.03075E+04 -1.60566E+04 -2.24872E+04 -3.53685E+04
  6.48616E+03 -3.53110E+04  2.99807E+04 -1.40792E+04  2.67391E+04  1.09334E+04  3.91003E+03  1.94418E+04
 -1.39284E+04  6.93881E+03 -9.56036E+03 -7.77901E+03  5.85240E+03 -1.04280E+04  1.73318E+04  5.71859E+03
  1.19872E+04  2.30762E+04 -5.61304E+03  2.37225E+04 -2.11489E+04  9.90688E+03 -2.86945E+04 -5.34722E+03
 -1.88363E+04 -1.56019E+04 -7.66927E+03 -1.86293E+04  4.61939E+03 -1.65299E+04  1.48740E+04 -1.58339E+04
  2.44485E+04 -1.31068E+04  3.02127E+04  2.24553E+03  2.33696E+04  1.83531E+04  3.36393E+03  3.61391E+04
 -1.61762E+04  2.92693E+04 -2.63023E+04  1.02846E+04 -2.09470E+04 -1.03982E+04 -3.78650E+03 -1.32342E+04
  2.42705E+03 -2.91680E+03 -3.65778E+03  7.15817E+03 -1.48459E+04  3.51825E+03 -1.46244E+04 -6.46437E+03
 -9.20371E+03 -1.72616E+04  4.82674E+03 -2.12593E+04  1.45469E+04 -1.44794E+04  1.65470E+04 -1.34693E+03
  1.05026E+04  1.23551E+04 -1.64499E+03  1.68711E+04 -1.05809E+04  1.01927E+04 -1.71483E+04 -3.49822E+03
 -1.22812E+04 -1.60995E+04 -1.31456E+03 -2.16327E+04  1.02083E+04 -1.69827E+04  1.77619E+04 -8.45452E+03
  1.74440E+04  1.68657E+03  1.13386E+04  4.88496E+03  6.82085E+03  1.27864E+03  9.05143E+03 -1.57655E+03
  1.62385E+04  2.95272E+03  1.73621E+04  1.43069E+04  1.03625E+04  2.79831E+04 -3.26808E+03  3.12623E+04
 -1.89007E+04  2.36545E+04 -2.77719E+04  1.30254E+04 -2.99167E+04 -1.97498E+03 -2.44704E+04 -1.71597E+04
 -1.08547E+04 -2.52587E+04  7.98831E+03 -2.19077E+04  1.87790E+04 -1.28560E+04  1.73366E+04  4.17032E+03
  7.29188E+03  1.26277E+04 -9.45824E+03  1.10825E+04 -1.54401E+04  3.38960E+03 -1.11432E+04 -8.73428E+03
 -9.22976E+01 -1.35064E+04  7.56633E+03 -1.06925E+04  8.90239E+03 -1.63836E+03  9.49782E+02  5.81627E+03
 -6.34204E+03  2.39669E+03 -3.89616E+03 -5.06129E+03 -7.37305E+02 -1.20396E+04  9.11778E+03 -1.23652E+04
  1.57809E+04 -6.60955E+03  1.54051E+04  2.79208E+03  1.28115E+04  1.19440E+04  7.14341E+03  1.72166E+04
 -1.56767E+03  1.91105E+04 -1.18851E+04  1.20314E+04 -1.39034E+04  3.00742E+03 -9.32579E+03 -2.59580E+03
 -4.80118E+03 -4.93795E+03 -1.50522E+03  1.63498E+03 -3.32363E+03  1.53348E+03 -5.51823E+03  3.90342E+03
 -9.38902E+03  9.68791E+02 -1.15452E+04 -7.65350E+03 -3.99396E+03 -1.30326E+04  4.34781E+03 -9.91300E+03
  8.36247E+03 -5.57228E+03  6.37758E+03  2.28993E+03  7.14511E+01  3.38567E+03 -4.58727E+03  1.51033E+02
 -5.11987E+03 -6.32992E+03 -1.10778E+03 -8.06603E+03  5.07446E+03 -1.07017E+04  1.22895E+04 -4.25298E+03
  1.39705E+04  1.71797E+03  1.11917E+04  8.15022E+03  3.69691E+03  1.07329E+04 -5.68030E+03  9.73625E+03
 -6.93580E+03  3.21373E+03 -4.46852E+03 -1.59684E+03  2.08749E+03 -2.10873E+03  6.14849E+03 -7.63996E+02
  5.55720E+03  4.71934E+03  1.08962E+03  7.43356E+03 -5.42828E+03  7.13916E+03 -9.37075E+03  2.11118E+03
 -4.87282E+03 -4.88341E+03  8.73199E+02 -7.89177E+03  4.53485E+03 -3.82894E+03  5.19506E+03  2.06701E+03
  7.81922E+02  4.60419E+03 -5.20083E+03  6.86388E+03 -5.88864E+03  2.08105E+03 -6.35918E+03 -2.13374E+03
 -3.34724E+03 -8.35109E+03  8.98023E+02 -8.95465E+03  9.05625E+03 -6.95008E+03  8.97070E+03  2.64550E+03
  5.64405E+03  7.11309E+03 -3.63963E+02  8.78984E+03 -6.08190E+03  4.45197E+03 -7.18353E+03  2.65754E+02
 -6.34261E+03 -6.25625E+03 -1.62471E+03 -6.09800E+03  2.96080E+03 -4.56715E+03  4.08377E+03 -2.21406E+03
  2.33605E+03  1.59246E+03 -1.10422E+03  1.18054E+03  6.15882E+02 -1.18195E+03 -1.45811E+02 -3.70031E+03
  5.58150E+03 -2.12483E+03  6.50410E+03  1.33306E+03  7.19268E+03  5.22342E+03  6.92281E+03  9.39316E+03
 -2.38848E+03  1.10486E+04 -9.44015E+03  9.68226E+03 -1.22254E+04  1.82048E+03 -1.05169E+04 -4.32347E+03
 -5.54161E+03 -9.25073E+03 -1.15715E+03 -6.79259E+03  2.84095E+03 -3.80240E+03  2.22654E+03 -1.99160E+03
  2.02582E+03 -1.70838E+03  3.21914E+03 -2.90087E+03  3.89877E+03 -9.24709E+02  4.29287E+03  3.15489E+02
  5.36749E+03  1.32975E+03  2.27994E+03  3.80200E+03 -1.81404E+03  6.05954E+03 -7.27084E+03  2.86447E+03
 -7.47658E+03 -1.06435E+03 -4.32073E+03 -4.31099E+03 -7.81609E+02 -6.68311E+03  4.94376E+03 -7.78256E+03
  7.04404E+03 -4.03861E+03  9.04560E+03  1.22444E+03  5.78759E+03  6.55096E+03  1.33643E+03  8.83331E+03
 -3.16081E+03  7.37489E+03 -4.73868E+03  3.17411E+03 -3.26003E+03 -1.43890E+03 -5.39385E+02 -1.14168E+03
 -1.24527E+03  4.34445E+02 -5.79025E+02  3.23664E+03 -3.70555E+03  4.19502E+02 -5.29349E+03  6.14193E+02
 -3.52778E+03 -5.62117E+03 -6.35803E+02 -6.71511E+03  4.76429E+03 -7.32156E+03  6.20783E+03 -2.74410E+03
  7.08701E+03  4.18329E+03  2.13313E+03  4.73533E+03 -1.87311E+03  7.36141E+03 -3.09210E+03  3.66726E+03
 -5.88088E+03  1.92779E+01 -5.16962E+03 -3.65283E+03 -8.78975E+01 -5.70800E+03  2.14932E+03 -4.11913E+03
  4.29750E+03 -4.83380E+02  3.25386E+03  8.39775E+02  1.30942E+03  2.60756E+03  1.31717E+03  4.28908E+02
  1.16784E+03  9.50064E+02  3.14616E+02  1.52634E+03  2.11136E+03  4.22308E+03  1.78439E+03  2.54774E+03
 -2.21063E+03  4.81217E+03 -3.47280E+03  6.43227E+03 -4.85824E+03  1.59484E+03 -6.13603E+03 -1.97737E+03
 -3.01608E+03 -5.81379E+03  2.29497E+03 -7.78749E+03  4.13445E+03 -3.90283E+03  4.62511E+03 -5.65150E+02
  3.41918E+03  2.90663E+03  7.71067E+02  4.04773E+03 -1.30645E+03  2.41445E+03 -1.24797E+03  1.46054E+02
 -1.14034E+03 -3.30296E+03  1.91585E+03 -2.72803E+03  2.45783E+03 -2.44659E+03  2.20368E+03  3.65199E+01
  1.89967E+03 -1.50297E+02  7.50789E+02  2.21719E+02 -1.36779E+03  8.21578E+02  1.36542E+03 -3.25561E+02
 -5.03030E+01  4.74343E+02  2.18639E+03  2.04755E+03 -2.26994E+02  4.00594E+03 -1.29057E+03  4.36091E+03
 -2.30353E+03  3.05256E+03 -4.18868E+03  1.71128E+03 -3.31503E+03 -1.11517E+03 -1.24227E+03 -3.30452E+03
  1.80583E+03 -1.82907E+03  1.34054E+03 -1.59049E+03  7.98361E+02  1.93276E+03 -1.77497E+03  1.67663E+03
 -1.46398E+03  1.91014E+03 -2.93657E+03 -2.26183E+03 -1.41880E+03 -3.13316E+03  1.11148E+03 -2.59614E+03
  1.77867E+03 -1.62417E+03  1.26169E+03 -8.51860E+01  2.01041E+03  5.91182E+02 -8.55461E+01  2.90410E+03
 -1.63035E+03  7.35329E+02 -1.04976E+03 -1.27455E+03 -9.64784E+02 -1.32655E+03  2.80298E+03 -1.48628E+03
  2.75968E+03  5.19074E+02  3.82954E+03  1.58467E+03  7.30093E+02  3.04060E+03 -1.05432E+03  2.13518E+03
 -3.17183E+03  1.65463E+03 -1.48824E+03 -5.45817E+02 -1.93138E+03 -3.44209E+03 -6.55846E+02 -1.21261E+03
  2.41865E+03 -1.59203E+03  1.81907E+03  2.59891E+02 -1.00682E+03  1.76306E+03  1.08649E+03  1.87521E+03
  2.64215E+01  1.19810E+03 -2.24805E+02 -2.18758E+02 -6.83277E+02  6.20142E+01 -1.31717E+03  1.56751E+02
 -1.51696E+03  1.80100E+03 -3.21223E+03  4.68453E+02 -3.35043E+03 -7.76342E+01 -3.81133E+03 -2.68242E+03
 -3.38628E+03 -4.04904E+03  1.22736E+02 -5.32168E+03  2.31356E+03 -3.85962E+03  4.29026E+03 -2.00174E+03
  4.20032E+03  9.98365E+02  2.75413E+03  3.98516E+03 -1.39567E+03  3.23786E+03 -8.37717E+02  2.61356E+03
 -7.70784E+02  1.54754E+03 -1.19681E+03 -1.50660E+01  9.01020E+02 -2.89633E+02 -3.59149E+02 -8.20134E+02
 -4.65779E+02  1.35757E+03 -2.19433E+03 -4.44704E+02 -7.73651E+01  3.68190E+02  4.21395E+02 -1.70073E+03
  5.89133E+02 -5.89583E+02  8.19245E+02 -5.56466E+02  1.18956E+03  1.62548E+03 -2.66915E+02  3.11959E+03
 -1.46118E+03  4.16967E+03 -3.47371E+03  2.51570E+03 -3.65486E+03  7.67474E+02 -3.28445E+03 -3.24334E+03
 -1.69812E+03 -2.16105E+03  8.33898E+02 -1.92058E+03  2.52946E+03 -1.39563E+03  1.73749E+03 -3.14919E+01
  3.55940E+02  1.76915E+03 -1.33475E+03 -1.97255E+02 -5.32187E+02  4.44040E+01 -6.01699E+01 -4.38850E+02
  1.37329E+03  9.87835E+02 -1.66825E+02  1.13605E+03  6.36193E+02  8.50184E+02  6.07227E+01  2.44381E+03
 -6.18747E+02  2.34121E+03 -2.85751E+03  1.09001E+03 -2.58853E+03 -1.44039E+03 -7.76023E+02 -3.49003E+03
  1.72625E+03 -3.38806E+03  2.27738E+03  2.24435E+02  2.11951E+03 -8.19275E+01 -8.65585E+01  1.62727E+03
  1.47297E+02  1.54603E+03 -1.48488E+03  2.09762E+03 -1.66931E+03  1.70336E+03 -8.44096E+02  1.04665E+03
 -8.17444E+02 -7.15980E+02 -6.08905E+02  2.05346E+02 -1.83507E+03 -3.58866E+02 -2.20260E+03 -1.42539E+03
 -1.58998E+03 -4.45996E+02 -8.27337E+02 -9.31911E+02  6.03593E+02 -2.45808E+03  1.62987E+03 -5.38665E+02
  2.51279E+03  7.62653E+02  2.43861E+03  1.08973E+03  5.17159E+02  3.00334E+03 -1.49671E+03  1.41761E+03
