 $NMID ID='MM_0lb_SNR200_11hz_g45_36.RAW', FMTDAT='(8E13.5)'
 TRAMP=1., VOLUME=1. $END
  3.08579E+05  1.22023E+03  3.37249E+05  2.50890E+05  8.43274E+04  3.37901E+05 -1.32232E+05  2.53217E+05
 -1.90439E+05  8.37547E+04 -1.11727E+05 -3.18419E+04  1.50700E+03 -5.08133E+04  5.40440E+04 -5.97735E+01
  3.56665E+04  5.11968E+04 -1.60998E+04  7.66432E+04 -6.18081E+04  6.29184E+04 -8.41964E+04  3.22535E+04
 -8.01810E+04 -1.05742E+04 -5.81021E+04 -5.12461E+04 -1.68385E+04 -7.11250E+04  2.79183E+04 -4.60710E+04
  3.90261E+04  4.28328E+03  1.64769E+04  4.81747E+04 -3.53579E+04  4.83231E+04 -6.80290E+04  1.12738E+03
 -5.57074E+04 -5.75609E+04 -6.96508E+03 -7.73363E+04  3.54827E+04 -5.66788E+04  4.81637E+04 -1.78489E+04
  4.59580E+04  1.13424E+04  3.17960E+04  2.67188E+04  1.51331E+04  2.93511E+04 -5.28931E+03  2.85794E+04
 -2.13997E+04  1.34912E+04 -1.78655E+04 -5.45240E+03  5.28993E+03 -7.34681E+03  2.36659E+04  1.15486E+04
  7.58040E+03  3.51362E+04 -3.20730E+04  3.67554E+04 -6.43852E+04  1.44763E+03 -5.74132E+04 -4.32066E+04
 -1.28405E+04 -6.58681E+04  4.15195E+04 -4.70391E+04  5.96513E+04 -3.52488E+03  3.46741E+04  3.26892E+04
 -5.69429E+03  3.58077E+04 -3.07748E+04  1.69273E+04 -3.13034E+04 -3.61857E+03 -1.75065E+04 -1.11740E+04
 -9.26930E+03 -1.33972E+04 -2.88357E+02 -1.92025E+04  7.55442E+03 -2.22528E+04  1.46830E+04 -1.46771E+04
  1.11430E+04  4.97435E+03 -9.59768E+03  1.26759E+04 -2.19007E+04 -4.91667E+03 -8.09103E+03 -3.61872E+04
  2.41553E+04 -4.49004E+04  5.06924E+04 -1.98837E+04  4.71633E+04  1.99777E+04  1.65803E+04  4.67306E+04
 -1.53241E+04  3.38974E+04 -2.64980E+04  2.37496E+03 -8.54405E+03 -2.90130E+04  2.11264E+04 -3.51870E+04
  4.34202E+04 -1.02861E+04  3.74724E+04  2.45021E+04  1.92878E+04  4.74810E+04 -8.91633E+03  5.10182E+04
 -3.34506E+04  3.66259E+04 -4.41393E+04  9.98297E+03 -4.58257E+04 -1.77652E+04 -2.38423E+04 -3.96759E+04
  6.08971E+03 -3.96025E+04  3.39022E+04 -1.55499E+04  3.12801E+04  1.08467E+04  4.13010E+03  1.87415E+04
 -1.37815E+04  1.02131E+04 -1.09917E+04 -7.94652E+03  5.17084E+03 -1.08452E+04  1.91819E+04  5.49363E+03
  1.47783E+04  2.17095E+04 -6.15931E+03  2.55161E+04 -2.22823E+04  1.34398E+04 -2.99210E+04 -5.01848E+03
 -2.18596E+04 -1.57130E+04 -1.08249E+04 -2.30601E+04  3.76618E+03 -2.32321E+04  1.71627E+04 -1.93393E+04
  2.96870E+04 -1.39160E+04  3.49820E+04  3.27948E+03  2.58730E+04  2.20769E+04  3.72646E+03  3.79002E+04
 -1.86568E+04  3.16625E+04 -2.83754E+04  1.05660E+04 -2.24696E+04 -9.68858E+03 -4.29910E+03 -1.24425E+04
  6.87777E+02 -2.49273E+03 -6.92246E+03  7.59644E+03 -1.71473E+04  3.91494E+03 -1.81899E+04 -8.47537E+03
 -1.08471E+04 -2.08236E+04  4.80812E+03 -2.56725E+04  1.81843E+04 -1.91310E+04  2.05641E+04 -3.11015E+03
  1.37585E+04  1.54453E+04 -9.71662E+01  1.91764E+04 -1.54228E+04  1.32276E+04 -2.04700E+04 -3.90432E+03
 -1.52548E+04 -1.82754E+04 -1.53432E+03 -2.70934E+04  1.09080E+04 -2.16128E+04  2.19449E+04 -1.01920E+04
  2.05153E+04  2.19383E+02  1.41196E+04  6.37734E+03  8.66001E+03  8.23026E+02  1.19326E+04 -7.27135E+02
  1.90740E+04  3.95238E+03  2.30794E+04  1.53965E+04  1.62622E+04  3.46164E+04 -1.50073E+03  3.92246E+04
 -2.34796E+04  3.21639E+04 -3.72030E+04  1.84384E+04 -3.91238E+04 -3.56732E+03 -3.20519E+04 -2.30556E+04
 -1.53374E+04 -3.12078E+04  1.12596E+04 -2.86217E+04  2.52722E+04 -1.41420E+04  2.17443E+04  5.40921E+03
  7.70441E+03  1.79049E+04 -9.94072E+03  1.29584E+04 -1.92652E+04  1.78112E+03 -1.44310E+04 -1.05821E+04
 -3.23951E+02 -1.75904E+04  9.87457E+03 -1.34555E+04  1.17390E+04 -6.46425E+01  3.24951E+03  7.06125E+03
 -9.26570E+03  1.78829E+03 -7.50085E+03 -6.37339E+03 -1.21186E+03 -1.67318E+04  1.04924E+04 -1.77202E+04
  2.04667E+04 -9.03879E+03  2.25101E+04  3.72973E+03  1.91128E+04  1.69151E+04  9.26508E+03  2.35693E+04
 -3.92660E+03  2.60341E+04 -1.73379E+04  1.65127E+04 -1.90232E+04  3.19977E+03 -1.34322E+04 -5.19115E+03
 -7.23264E+03 -6.44454E+03 -1.05571E+03 -2.55335E+02 -2.72890E+03  3.41235E+03 -6.30169E+03  5.09603E+03
 -1.15398E+04 -1.08028E+03 -1.21339E+04 -1.10777E+04 -4.09055E+03 -1.70082E+04  5.85466E+03 -1.21787E+04
  1.25605E+04 -6.20047E+03  8.70708E+03  2.95560E+03  4.05577E+02  6.75511E+03 -7.16951E+03  5.13400E+02
 -6.84315E+03 -8.44142E+03 -1.23721E+03 -1.20609E+04  7.40718E+03 -1.38890E+04  1.75041E+04 -5.62398E+03
  1.89875E+04  1.98849E+03  1.59021E+04  1.09808E+04  3.64058E+03  1.48563E+04 -8.67079E+03  1.43307E+04
 -1.24147E+04  3.06217E+03 -5.95106E+03 -3.77258E+03  3.19725E+03 -2.83055E+03  7.46888E+03 -6.20649E+02
  4.40105E+03  5.92774E+03  2.11069E+03  1.02239E+04 -8.29896E+03  1.08034E+04 -1.33348E+04  2.61467E+03
 -8.04577E+03 -7.02629E+03  2.10660E+03 -1.00359E+04  7.97503E+03 -4.55745E+03  9.36905E+03  2.58925E+03
  3.60790E+03  8.00740E+03 -5.77903E+03  9.24086E+03 -1.04613E+04  3.29403E+03 -1.07817E+04 -2.84452E+03
 -6.55130E+03 -1.26523E+04  3.29012E+03 -1.53391E+04  1.25545E+04 -7.26688E+03  1.38898E+04  2.44825E+03
  9.37364E+03  1.13307E+04 -1.46010E+03  1.49682E+04 -9.11593E+03  7.56220E+03 -1.01414E+04 -1.11356E+03
 -7.61408E+03 -9.13974E+03 -3.09457E+03 -1.07445E+04  5.03807E+03 -8.03680E+03  5.52162E+03 -3.38362E+03
  4.67952E+03  1.20852E+03 -5.88590E+02  1.53429E+03 -1.24750E+03 -3.15162E+03  2.89962E+03 -4.67546E+03
  8.86943E+03 -4.38705E+03  1.22785E+04  1.37281E+03  1.29723E+04  9.59570E+03  1.00602E+04  1.65913E+04
 -2.93780E+03  1.81535E+04 -1.56864E+04  1.43958E+04 -2.05419E+04  3.37842E+03 -1.50441E+04 -8.10297E+03
 -9.03332E+03 -1.32718E+04  4.65375E+02 -1.21345E+04  2.28195E+03 -6.15541E+03  5.26666E+03 -5.24704E+03
  4.00117E+03 -2.29176E+03  4.53267E+03 -3.63531E+03  5.02972E+03 -2.02088E+03  7.03820E+03  4.01262E+02
  6.74153E+03  2.11173E+03  5.02383E+03  7.24363E+03 -1.13224E+03  8.32012E+03 -9.82023E+03  6.13555E+03
 -1.10683E+04 -1.12508E+03 -6.69676E+03 -7.74901E+03 -1.21593E+03 -1.02609E+04  6.61561E+03 -1.29675E+04
  1.27432E+04 -8.74212E+03  1.54194E+04  1.80995E+03  1.19924E+04  1.08263E+04  1.31674E+03  1.35122E+04
 -6.18918E+03  1.16363E+04 -7.96188E+03  4.53268E+03 -5.14939E+03 -1.43934E+03 -2.12450E+03 -1.61700E+03
 -6.78184E+02 -3.01551E+02 -1.89688E+03  2.94424E+03 -4.73591E+03  2.08217E+03 -8.49001E+03 -2.12425E+03
 -5.03033E+03 -8.09906E+03  6.15781E+02 -1.23674E+04  6.51392E+03 -9.59490E+03  1.05988E+04 -3.78413E+03
  1.11427E+04  7.35744E+03  4.99367E+03  9.19330E+03 -3.25641E+03  1.02924E+04 -8.82063E+03  7.21970E+03
 -9.74032E+03  1.47543E+02 -9.24962E+03 -6.90778E+03 -9.47584E+02 -9.94253E+03  4.47277E+03 -6.04428E+03
  7.42263E+03 -2.73977E+03  5.23729E+03  1.38558E+03  8.10090E+02  5.05672E+03  7.72694E+02  1.66483E+03
  1.84559E+03  1.24077E+03  3.13313E+03  1.59717E+03  3.47392E+03  4.20257E+03  2.00748E+03  5.63453E+03
 -2.39555E+03  7.45573E+03 -8.77414E+03  9.36931E+03 -1.04694E+04  2.11719E+03 -1.09844E+04 -4.17067E+03
 -4.96584E+03 -1.11913E+04  9.81444E+02 -1.14333E+04  7.76023E+03 -8.49228E+03  1.13297E+04 -2.13589E+03
  7.36766E+03  3.39574E+03  2.58359E+03  5.00201E+03 -3.56699E+03  3.89836E+03 -3.79133E+03  2.86666E+02
 -2.21701E+03 -5.07252E+03  3.21500E+03 -6.19087E+03  3.15286E+03 -3.00305E+03  5.40564E+03  1.08705E+03
  1.13577E+03  1.85858E+03  1.36261E+03  1.16041E+03 -3.45243E+02  1.67296E+03  2.07139E+03 -8.58099E+02
  2.18198E+03  1.17884E+03  5.18341E+03  2.73889E+03  2.22066E+03  6.84615E+03 -1.80306E+03  7.36929E+03
 -4.70848E+03  3.99199E+03 -7.84796E+03  2.63700E+03 -6.96594E+03 -2.74968E+03 -1.79743E+03 -3.74695E+03
  2.13455E+03 -3.96492E+03  3.68734E+03 -2.15549E+03  2.79862E+03  3.39818E+03 -2.00854E+03  4.29598E+03
 -3.88314E+03  1.78227E+03 -5.56370E+03 -3.40501E+03 -3.59001E+03 -5.16729E+03  4.46308E+02 -7.30836E+03
  2.53901E+03 -3.62114E+03  3.58032E+03 -7.73824E+02  2.52304E+03  1.17804E+02 -6.55000E+01  2.72987E+03
 -2.23844E+03  6.41177E+02 -2.12019E+03 -1.16750E+03 -2.08066E+02 -5.30850E+03  5.76989E+03 -4.12887E+03
  7.80130E+03  2.74261E+02  7.93929E+03  3.51345E+03  3.01424E+03  6.46834E+03 -2.25812E+03  5.77628E+03
 -5.66128E+03  2.30964E+03 -5.65078E+03 -8.44218E+02 -3.00889E+03 -4.53552E+03  1.93796E+03 -3.86243E+03
  3.50550E+03 -2.72621E+03  3.62879E+03  3.04725E+03  1.59896E+03  3.15957E+03 -1.04420E+03  4.28254E+03
 -2.05535E+03  1.21870E+03 -1.55449E+03 -5.62738E+02 -2.06734E+03 -9.25390E+01 -1.61839E+03  1.75706E+03
 -1.86748E+03  3.29426E+03 -4.52658E+03  1.39112E+03 -7.00129E+03  1.57769E+03 -8.10189E+03 -4.54212E+03
 -2.57344E+03 -8.20078E+03  2.02906E+03 -9.79330E+03  6.48444E+03 -8.52759E+03  1.00213E+04 -2.97571E+03
  9.43142E+03  1.11455E+03  5.78102E+03  6.32898E+03 -5.39080E+01  7.78206E+03 -3.60901E+03  5.46909E+03
 -5.23490E+03  1.55027E+03 -2.63519E+03 -1.10865E+03 -6.03967E+02 -4.00728E+02 -1.49148E+03  8.23390E+02
 -1.45103E+03 -3.91842E+02 -6.80996E+02 -6.53495E+02 -1.45328E+03 -2.45386E+03 -7.40744E+02 -3.42135E+03
  3.01638E+03 -4.13736E+03  2.60379E+03  4.75686E+02  4.38347E+03  3.97329E+03  7.04989E+01  7.77144E+03
 -4.89087E+03  8.25092E+03 -6.78656E+03  6.34918E+03 -8.28072E+03 -1.35724E+03 -6.32061E+03 -4.29927E+03
 -2.81177E+03 -6.80589E+03  2.59761E+03 -5.90335E+03  3.42189E+03 -1.78531E+03  3.69027E+03 -9.14550E+02
  3.15492E+03  2.27852E+03 -3.31093E+02  2.92944E+03 -1.22196E+03 -3.10401E+02 -7.98577E+02 -2.51638E+03
  2.24036E+03 -1.44055E+03  2.98350E+03  1.09489E+03  4.09986E+01  3.42385E+03  4.28820E+02  5.15457E+03
 -2.21576E+03  3.97796E+03 -3.61761E+03 -9.68215E+02 -3.35885E+03 -3.44120E+03 -1.10631E+03 -4.22430E+03
  2.72421E+03 -4.73520E+03  4.53539E+03 -3.03299E+03  5.35179E+03  1.30973E+03  3.79921E+03  3.78140E+03
  1.39730E+03  5.60573E+03 -1.75539E+03  3.09561E+03 -3.80404E+03  1.82923E+03 -2.79396E+03  1.23585E+02
 -5.99108E+02 -1.06866E+00 -1.25048E+03  2.75862E+03 -2.86723E+03  1.29575E+03 -2.82947E+03 -1.45891E+03
 -2.38504E+03 -2.41677E+03 -2.27912E+03 -4.43410E+03  3.11615E+03 -4.35088E+03  3.62219E+03 -8.70200E+02
  3.98391E+03  8.07441E+02  3.00623E+03  3.49136E+03 -1.31033E+02  5.25146E+03 -2.50268E+03  2.90515E+03
