 $NMID ID='MM_0lb_SNR200_10hz_g60_75.RAW', FMTDAT='(8E13.5)'
 TRAMP=1., VOLUME=1. $END
  3.09794E+05 -9.77543E+02  3.39106E+05  2.51611E+05  8.43318E+04  3.38414E+05 -1.33408E+05  2.51981E+05
 -1.92020E+05  8.42662E+04 -1.12033E+05 -3.17281E+04  6.65805E+02 -4.96944E+04  5.28291E+04 -1.44188E+02
  3.60181E+04  5.21595E+04 -1.70495E+04  7.61747E+04 -6.13512E+04  6.41208E+04 -8.69651E+04  3.24095E+04
 -8.22300E+04 -1.20218E+04 -5.86602E+04 -5.23306E+04 -1.58773E+04 -7.16251E+04  2.82175E+04 -4.63057E+04
  4.25657E+04  3.60756E+03  1.68478E+04  4.79436E+04 -3.43386E+04  4.89248E+04 -6.79957E+04 -4.66995E+02
 -5.52171E+04 -5.76527E+04 -5.87090E+03 -7.76300E+04  3.44184E+04 -5.79334E+04  5.06700E+04 -1.76761E+04
  4.64552E+04  1.09482E+04  3.36180E+04  2.70512E+04  1.57090E+04  3.12167E+04 -5.70214E+03  2.74174E+04
 -2.23314E+04  1.30246E+04 -1.86146E+04 -6.18754E+03  5.02507E+03 -6.65166E+03  2.37206E+04  1.42378E+04
  7.04442E+03  3.74547E+04 -3.24573E+04  3.74725E+04 -6.65631E+04  2.43100E+03 -5.75309E+04 -4.34790E+04
 -1.26805E+04 -6.68855E+04  4.02383E+04 -4.75517E+04  6.10197E+04 -2.62676E+03  3.73246E+04  3.51649E+04
 -6.27456E+03  3.91533E+04 -3.17833E+04  2.04838E+04 -3.45448E+04 -2.87351E+03 -1.80150E+04 -1.21765E+04
 -1.03986E+04 -1.40609E+04 -5.14612E+02 -1.91741E+04  8.67461E+03 -2.30086E+04  1.59247E+04 -1.20061E+04
  9.36375E+03  8.12540E+03 -1.12309E+04  1.33912E+04 -2.45408E+04 -7.76460E+03 -1.00497E+04 -3.73897E+04
  2.49068E+04 -4.58811E+04  5.32857E+04 -2.08812E+04  4.88086E+04  2.05086E+04  1.66593E+04  4.67734E+04
 -1.72881E+04  3.72838E+04 -2.82310E+04  2.52669E+03 -1.19655E+04 -2.99475E+04  2.06830E+04 -3.59942E+04
  4.47498E+04 -1.11710E+04  4.03833E+04  2.55722E+04  2.07167E+04  5.30016E+04 -8.75596E+03  5.60127E+04
 -3.49536E+04  3.92912E+04 -4.80002E+04  1.17356E+04 -4.88551E+04 -1.76426E+04 -2.57121E+04 -4.20682E+04
  7.52866E+03 -4.40042E+04  3.52445E+04 -1.79842E+04  3.27635E+04  1.08126E+04  5.34766E+03  1.97875E+04
 -1.37853E+04  8.32364E+03 -1.02200E+04 -5.89895E+03  5.49956E+03 -1.23245E+04  1.80012E+04  6.05398E+03
  1.45917E+04  2.20932E+04 -3.93679E+03  2.59634E+04 -2.24515E+04  1.44144E+04 -3.13034E+04 -3.54502E+03
 -2.64024E+04 -1.88450E+04 -1.27520E+04 -2.52817E+04  4.72448E+03 -2.57447E+04  2.06800E+04 -2.39545E+04
  3.13958E+04 -1.29468E+04  3.69069E+04  5.18481E+03  2.82668E+04  2.47710E+04  3.88145E+03  4.21420E+04
 -2.02896E+04  3.39388E+04 -3.08024E+04  1.19077E+04 -2.16064E+04 -1.03768E+04 -3.74499E+03 -1.36545E+04
  1.56948E+03  7.22379E+02 -6.66227E+03  9.62164E+03 -1.92773E+04  5.93565E+03 -2.10516E+04 -9.72838E+03
 -1.33284E+04 -2.37832E+04  6.15212E+03 -2.89024E+04  1.93682E+04 -1.90215E+04  2.46806E+04 -1.59213E+03
  1.60070E+04  1.45294E+04 -1.27254E+03  2.41480E+04 -1.67336E+04  1.30509E+04 -2.44688E+04 -4.20445E+03
 -1.68265E+04 -2.18768E+04 -1.88642E+03 -2.79198E+04  1.37760E+04 -2.33441E+04  2.34140E+04 -1.26718E+04
  2.26767E+04  4.15082E+02  1.56691E+04  5.48269E+03  1.04089E+04  1.59128E+03  1.21389E+04 -2.02780E+03
  2.14263E+04  3.48314E+03  2.70286E+04  1.80562E+04  1.79836E+04  3.63196E+04 -4.10991E+03  4.54621E+04
 -2.62652E+04  3.49718E+04 -4.24583E+04  1.92149E+04 -4.55817E+04 -2.84177E+03 -3.54391E+04 -2.56334E+04
 -1.55532E+04 -3.68297E+04  1.27858E+04 -3.27602E+04  2.83169E+04 -1.55177E+04  2.40836E+04  7.04166E+03
  9.48417E+03  1.82313E+04 -1.24808E+04  1.55842E+04 -2.03832E+04  2.35740E+03 -1.63648E+04 -1.16847E+04
 -8.87553E+02 -1.86197E+04  1.14168E+04 -1.50418E+04  1.18164E+04 -8.85495E+02  2.17373E+03  1.00780E+04
 -8.35970E+03  3.65577E+03 -8.69763E+03 -8.45723E+03 -1.49829E+03 -1.79555E+04  1.12601E+04 -1.83298E+04
  2.27144E+04 -1.25561E+04  2.57890E+04  2.98312E+03  2.27102E+04  1.85226E+04  1.18421E+04  3.00290E+04
 -4.11995E+03  3.07232E+04 -2.03674E+04  1.91941E+04 -2.26015E+04  4.61018E+03 -1.40467E+04 -5.42916E+03
 -7.18186E+03 -8.15125E+03 -4.86104E+02  1.75689E+02 -3.58924E+03  5.15352E+03 -8.57404E+03  5.97146E+03
 -1.34917E+04 -8.59535E+02 -1.48362E+04 -1.06916E+04 -5.83919E+03 -1.92432E+04  6.58871E+03 -1.58503E+04
  1.32885E+04 -6.98718E+03  9.25301E+03  4.77897E+03 -1.57520E+02  5.71707E+03 -8.26841E+03  2.98269E+02
 -7.88325E+03 -9.36035E+03 -1.57753E+03 -1.80604E+04  9.39671E+03 -1.60766E+04  1.95558E+04 -8.43429E+03
  2.35170E+04  2.02609E+03  1.64237E+04  1.42551E+04  3.73075E+03  1.94065E+04 -9.64891E+03  1.65711E+04
 -1.27405E+04  3.24638E+03 -7.90812E+03 -4.21431E+03  2.69710E+03 -3.42232E+03  9.51331E+03 -1.89064E+03
  8.40538E+03  7.55905E+03  9.43965E+02  1.28694E+04 -9.09347E+03  1.14554E+04 -1.55553E+04  3.03151E+03
 -1.01712E+04 -8.16444E+03 -2.41785E+01 -1.26764E+04  9.37127E+03 -7.63685E+03  1.04812E+04  2.49555E+03
  2.38046E+03  9.08981E+03 -7.86428E+03  1.18601E+04 -1.29145E+04  4.24064E+03 -1.45246E+04 -4.72861E+03
 -7.44542E+03 -1.52285E+04  4.63768E+03 -1.77053E+04  1.58372E+04 -1.11739E+04  1.64033E+04  3.64676E+03
  9.47528E+03  1.34221E+04 -9.31117E+02  1.57310E+04 -1.14167E+04  9.46382E+03 -1.18343E+04 -5.97336E+02
 -1.05368E+04 -1.03080E+04 -1.93047E+03 -1.21533E+04  8.17303E+03 -8.07024E+03  8.22626E+03 -4.23546E+03
  5.40945E+03  1.88071E+03 -1.62684E+03  1.81061E+03 -1.31802E+03 -1.83570E+03  3.76621E+03 -6.74417E+03
  1.04521E+04 -4.90867E+03  1.54888E+04  1.32348E+03  1.43178E+04  1.14530E+04  9.12144E+03  2.05622E+04
 -5.65606E+03  2.30401E+04 -2.08885E+04  1.69673E+04 -2.61581E+04  1.88190E+03 -2.13463E+04 -1.03617E+04
 -8.60748E+03 -1.54386E+04 -4.24711E+02 -1.49052E+04  6.35419E+03 -7.37765E+03  2.91469E+03 -4.62730E+03
  4.43789E+03 -3.83291E+03  4.98296E+03 -4.05025E+03  8.38554E+03 -3.55345E+03  7.42880E+03 -1.22468E+03
  1.01894E+04  2.65522E+03  6.03637E+03  9.62700E+03 -2.34804E+03  9.65885E+03 -1.19589E+04  8.53081E+03
 -1.41284E+04 -1.02332E+03 -9.89292E+03 -1.03328E+04 -7.71576E+02 -1.48756E+04  9.60680E+03 -1.49728E+04
  1.44169E+04 -8.04375E+03  1.90568E+04  3.37128E+03  1.34408E+04  1.22229E+04  2.16645E+03  1.78189E+04
 -7.46289E+03  1.50326E+04 -9.11286E+03  6.37394E+03 -6.59260E+03 -6.94573E+02 -1.96975E+03 -2.92690E+03
 -2.30795E+03 -9.50143E+02 -1.30337E+03  2.76144E+03 -6.03580E+03  3.45897E+03 -1.03521E+04 -1.80672E+03
 -7.14376E+03 -1.04148E+04  5.43577E+01 -1.39131E+04  8.23232E+03 -1.37357E+04  1.46867E+04 -2.61045E+03
  1.49060E+04  6.75229E+03  6.88641E+03  1.28709E+04 -3.44959E+03  1.45161E+04 -1.17867E+04  7.87513E+03
 -1.30175E+04  1.51014E+03 -1.07955E+04 -9.81701E+03 -1.97389E+03 -1.14024E+04  7.16699E+03 -9.33095E+03
  9.16007E+03 -2.53303E+03  6.57997E+03  1.77200E+03  2.07491E+03  3.58850E+03 -9.56373E+01  1.98167E+03
  3.11469E+03  2.94124E+02  2.34916E+03  8.40987E+02  3.95308E+03  4.85460E+03  3.56495E+03  7.14099E+03
 -2.55099E+03  1.01904E+04 -1.15328E+04  1.09805E+04 -1.49742E+04  2.38636E+03 -1.46694E+04 -7.07228E+03
 -7.62497E+03 -1.46547E+04  4.13708E+03 -1.48348E+04  7.51438E+03 -1.00558E+04  1.07747E+04 -1.88968E+03
  9.13619E+03  5.78128E+03  1.60389E+03  8.95356E+03 -3.02891E+03  5.71958E+03 -6.11448E+03  1.79063E+02
 -3.48323E+03 -6.03171E+03  3.07377E+03 -6.15113E+03  6.42291E+03 -3.44473E+03  6.16508E+03 -2.18853E+01
  4.14797E+03  3.04421E+03  5.99239E+02  2.44742E+03 -1.63966E+03  2.58307E+03  6.75543E+02 -5.83390E+02
  1.72897E+03 -9.81609E+02  6.74760E+03  1.63352E+03  2.81955E+03  7.76520E+03 -1.21440E+03  1.00851E+04
 -7.11446E+03  6.42933E+03 -8.35823E+03  1.92110E+03 -8.22525E+03 -4.01729E+03 -2.37327E+03 -6.32117E+03
  2.24499E+03 -5.59133E+03  3.49726E+03 -3.55470E+03  3.89581E+03  2.18909E+03 -2.21350E+03  4.22342E+03
 -6.81807E+03  3.15576E+03 -9.28904E+03 -3.28873E+03 -4.99542E+03 -7.40211E+03  1.45192E+03 -6.72079E+03
  4.58974E+03 -6.22197E+03  4.59741E+03  2.42257E+02  4.28763E+03  1.42787E+03  1.25279E+03  3.64390E+03
 -2.79764E+03  1.06615E+03 -4.42881E+03 -3.27712E+03  6.16721E+02 -6.31333E+03  6.92758E+03 -4.46310E+03
  8.56154E+03  6.89172E+02  9.73256E+03  5.06768E+03  2.73019E+03  1.04873E+04 -3.38737E+03  1.03820E+04
 -6.83963E+03  4.76045E+03 -8.57799E+03 -7.75014E+02 -4.29744E+03 -5.50004E+03  4.86843E+02 -6.29268E+03
  4.64496E+03 -3.73326E+03  4.61376E+03  3.06327E+03  2.09195E+03  6.23307E+03 -5.34374E+02  4.68941E+03
 -2.45056E+03  3.32019E+03 -4.27597E+03  1.67054E+03 -1.55087E+03  6.38922E+02 -6.81830E+02  2.76103E+03
 -1.26167E+03  2.59208E+03 -6.62210E+03  3.92770E+03 -9.83497E+03  3.41245E+02 -9.93720E+03 -7.52637E+03
 -4.03690E+03 -1.24315E+04  6.18234E+02 -1.60949E+04  9.26812E+03 -1.17577E+04  1.33705E+04 -3.50518E+03
  1.24927E+04  2.18551E+03  7.02104E+03  8.22002E+03  1.30752E+03  9.43929E+03 -4.40313E+03  7.38366E+03
 -6.84023E+03  3.84503E+03 -2.91376E+03 -1.65539E+03 -2.14434E+03 -2.20306E+03  4.52194E+02  6.49345E+02
 -2.05487E+03 -6.57885E+02 -2.13074E+03 -9.64127E+02 -1.71194E+03 -3.75797E+03  2.15725E+02 -2.87292E+03
  4.30109E+03 -1.23024E+03  5.80910E+03  1.22556E+03  6.81648E+03  3.65903E+03  3.05506E+03  8.13291E+03
 -4.50119E+03  1.07082E+04 -1.05854E+04  6.21588E+03 -1.18964E+04  8.43348E+02 -8.95835E+03 -6.62947E+03
 -3.91280E+03 -9.55604E+03  2.96079E+03 -8.82372E+03  6.24854E+03 -4.08797E+03  5.66542E+03 -5.95384E+01
  3.92111E+03  1.30385E+03 -1.09182E+03  2.04463E+03 -1.67361E+03  8.23842E+02  6.86306E+02 -2.07129E+03
  3.73120E+03 -5.80445E+02  3.11577E+03  2.15083E+03  1.02620E+03  4.56156E+03 -1.35774E+03  5.18176E+03
 -5.49822E+03  5.05038E+03 -7.13911E+03  7.10310E+02 -6.37700E+03 -4.73681E+03 -2.54458E+03 -7.97203E+03
  4.55698E+03 -7.07749E+03  8.07929E+03 -3.66353E+03  7.03772E+03  2.18949E+03  4.61683E+03  5.00556E+03
 -5.72466E+02  6.73071E+03 -1.65080E+03  4.89272E+03 -3.34524E+03  2.47695E+03 -1.45230E+03 -4.37746E+02
 -2.97577E+03 -1.11343E+03 -2.32673E+02  2.94392E+03 -4.66763E+03 -4.01567E+02 -3.62364E+03 -9.08485E+02
 -6.02593E+03 -2.83898E+03 -1.18914E+03 -7.24390E+03  4.67697E+03 -5.96576E+03  5.49457E+03 -3.42762E+03
  4.49295E+03  7.57305E+02  2.81053E+03  5.27429E+03  9.65109E+02  6.85342E+03 -6.47713E+03  4.11684E+03
