 $NMID ID='MM_0lb_SNR200_9hz_g45_34.RAW', FMTDAT='(8E13.5)'
 TRAMP=1., VOLUME=1. $END
  3.10786E+05 -1.09016E+03  3.37891E+05  2.50201E+05  8.34427E+04  3.38155E+05 -1.33123E+05  2.49670E+05
 -1.90124E+05  8.33188E+04 -1.12844E+05 -3.12385E+04 -7.05522E+02 -4.95106E+04  5.52875E+04  4.43722E+02
  3.54863E+04  5.33653E+04 -1.72189E+04  7.59392E+04 -6.08286E+04  6.48052E+04 -8.51738E+04  3.15812E+04
 -8.37148E+04 -1.20744E+04 -5.97901E+04 -5.08757E+04 -1.61694E+04 -7.06805E+04  2.84521E+04 -4.67867E+04
  4.25342E+04  3.36616E+03  1.52289E+04  4.81575E+04 -3.52248E+04  4.89690E+04 -6.95229E+04 -1.37746E+02
 -5.42134E+04 -5.70576E+04 -6.31838E+03 -7.87315E+04  3.50517E+04 -5.70781E+04  4.85211E+04 -2.00396E+04
  4.59069E+04  1.01294E+04  3.32801E+04  2.61317E+04  1.48479E+04  3.04757E+04 -6.97884E+03  2.54231E+04
 -2.36152E+04  1.09018E+04 -1.77466E+04 -6.29242E+03  7.71191E+03 -7.27641E+03  2.33173E+04  1.29695E+04
  7.47768E+03  3.72047E+04 -3.43486E+04  3.68399E+04 -6.45687E+04  6.19032E+02 -5.97991E+04 -4.47215E+04
 -1.31523E+04 -6.59780E+04  4.13421E+04 -4.78448E+04  6.01123E+04 -3.66968E+03  3.74949E+04  3.47114E+04
 -4.68358E+03  3.88955E+04 -3.13663E+04  1.73100E+04 -3.25200E+04 -3.27951E+03 -1.91888E+04 -1.19072E+04
 -1.03292E+04 -1.42446E+04 -6.15065E+02 -2.02201E+04  8.18509E+03 -2.09790E+04  1.71133E+04 -1.19210E+04
  9.54838E+03  6.09794E+03 -9.81435E+03  1.34165E+04 -2.15466E+04 -6.83931E+03 -7.29085E+03 -3.60545E+04
  2.46390E+04 -4.50770E+04  5.24836E+04 -2.11104E+04  4.96185E+04  2.03038E+04  1.68372E+04  4.61128E+04
 -1.67473E+04  3.62116E+04 -2.64942E+04  8.77015E+02 -1.16888E+04 -3.05055E+04  2.19150E+04 -3.86354E+04
  4.62869E+04 -1.06710E+04  4.03145E+04  2.55961E+04  2.05431E+04  5.07503E+04 -6.98558E+03  5.59809E+04
 -3.53948E+04  3.77677E+04 -4.61037E+04  1.06548E+04 -4.59749E+04 -1.73918E+04 -2.54281E+04 -4.08202E+04
  7.08027E+03 -4.11381E+04  3.29236E+04 -1.68946E+04  3.26612E+04  1.26797E+04  4.82428E+03  2.08972E+04
 -1.53877E+04  9.80797E+03 -1.12846E+04 -7.02870E+03  5.89480E+03 -1.19442E+04  1.73511E+04  4.85162E+03
  1.42001E+04  2.17833E+04 -3.63327E+03  2.80638E+04 -2.27038E+04  1.53368E+04 -3.00474E+04 -2.88532E+03
 -2.43950E+04 -1.83563E+04 -1.07465E+04 -2.39126E+04  4.19355E+03 -2.36161E+04  1.89178E+04 -2.22449E+04
  3.24660E+04 -1.22731E+04  3.71624E+04  6.70811E+03  2.67437E+04  2.47196E+04  4.54790E+03  4.11745E+04
 -1.99679E+04  3.49223E+04 -3.04983E+04  1.20888E+04 -2.31622E+04 -9.58448E+03 -5.37923E+03 -1.38685E+04
 -1.16809E+01 -2.07860E+03 -5.53777E+03  8.47280E+03 -1.99592E+04  5.24480E+03 -2.04424E+04 -9.88071E+03
 -1.46353E+04 -2.36479E+04  4.09589E+03 -2.73796E+04  1.94116E+04 -1.76555E+04  2.23361E+04 -1.62300E+03
  1.35229E+04  1.63430E+04 -1.47005E+03  2.14848E+04 -1.65704E+04  1.10745E+04 -2.30045E+04 -4.61092E+03
 -1.68395E+04 -2.23485E+04 -2.08503E+03 -2.70976E+04  1.15605E+04 -2.17189E+04  2.36240E+04 -1.22570E+04
  2.06384E+04  1.82995E+02  1.56149E+04  4.88799E+03  9.13340E+03  1.66041E+03  1.07619E+04 -1.56325E+03
  2.27562E+04  2.54775E+03  2.48567E+04  1.65252E+04  1.54442E+04  3.76211E+04 -2.82608E+03  4.18583E+04
 -2.49591E+04  3.53229E+04 -4.01033E+04  2.00143E+04 -4.37167E+04 -3.84801E+03 -3.58654E+04 -2.63367E+04
 -1.47204E+04 -3.68569E+04  1.22030E+04 -3.15896E+04  2.76748E+04 -1.46927E+04  2.41711E+04  6.74304E+03
  7.13157E+03  1.86527E+04 -1.08007E+04  1.49989E+04 -2.00151E+04  2.05591E+03 -1.53623E+04 -1.26397E+04
 -5.42910E+02 -1.86254E+04  1.10993E+04 -1.36560E+04  1.40604E+04 -6.05132E+02  4.38247E+03  7.88851E+03
 -7.98264E+03  3.08808E+03 -9.22027E+03 -6.95799E+03 -1.74715E+03 -1.76849E+04  1.10287E+04 -1.87838E+04
  2.14988E+04 -1.20495E+04  2.53236E+04  3.28045E+03  2.28623E+04  1.84942E+04  9.83807E+03  2.98563E+04
 -5.43587E+03  3.13642E+04 -1.88171E+04  1.96219E+04 -2.09044E+04  3.77311E+03 -1.51445E+04 -4.93548E+03
 -7.49318E+03 -7.79237E+03 -1.70394E+03  1.95368E+03 -4.82337E+03  3.56224E+03 -7.32168E+03  5.79201E+03
 -1.28493E+04 -1.17837E+03 -1.63165E+04 -1.02064E+04 -6.16432E+03 -2.07456E+04  6.85838E+03 -1.42108E+04
  1.32390E+04 -5.71768E+03  8.95660E+03  3.51815E+03 -6.84261E+02  5.97256E+03 -8.97260E+03  5.33832E+02
 -8.48342E+03 -8.94679E+03 -1.53136E+03 -1.54117E+04  1.00336E+04 -1.74024E+04  1.84089E+04 -8.00850E+03
  2.38038E+04  2.41819E+03  1.70633E+04  1.51849E+04  2.31775E+03  1.80725E+04 -9.91527E+03  1.73601E+04
 -1.24257E+04  4.53891E+03 -5.14619E+03 -4.05915E+03  2.09134E+03 -5.15185E+03  7.79013E+03 -1.66568E+03
  6.71535E+03  8.04551E+03  3.00457E+03  1.29009E+04 -9.64234E+03  1.19105E+04 -1.60891E+04  3.32587E+03
 -1.03535E+04 -8.61364E+03 -7.11040E+02 -1.37081E+04  9.84766E+03 -8.24543E+03  9.91247E+03  2.40150E+03
  1.42062E+03  9.66307E+03 -7.01915E+03  1.24908E+04 -1.38246E+04  4.36399E+03 -1.32819E+04 -4.55935E+03
 -7.84353E+03 -1.59775E+04  3.29973E+03 -1.71260E+04  1.41699E+04 -1.02298E+04  1.75881E+04  1.92972E+03
  9.46032E+03  1.40360E+04  3.60844E+01  1.49045E+04 -1.19979E+04  7.58133E+03 -1.14140E+04 -1.03449E+03
 -9.60264E+03 -1.01332E+04 -1.43962E+03 -1.09333E+04  5.78418E+03 -1.01899E+04  8.31511E+03 -5.32417E+03
  5.04018E+03  2.00925E+03 -2.69011E+03  1.84843E+03 -5.17437E+02 -4.25254E+03  3.84156E+03 -5.77505E+03
  1.19026E+04 -4.73378E+03  1.57042E+04  1.41854E+03  1.55561E+04  1.02095E+04  1.16637E+04  2.02591E+04
 -5.19644E+03  2.14221E+04 -1.91668E+04  1.58926E+04 -2.33601E+04  3.27959E+03 -2.08036E+04 -7.63884E+03
 -8.84554E+03 -1.66176E+04 -1.24392E+03 -1.39648E+04  5.48590E+03 -9.52201E+03  5.49486E+03 -4.61964E+03
  2.66712E+03 -1.88540E+03  5.21436E+03 -4.59696E+03  5.44401E+03 -4.30725E+03  8.61186E+03 -3.73951E+02
  9.51473E+03  2.12008E+03  5.24410E+03  9.14661E+03 -2.06596E+03  1.21336E+04 -1.13626E+04  8.31815E+03
 -1.45304E+04 -1.38613E+03 -9.10475E+03 -1.03191E+04 -2.36699E+03 -1.54836E+04  8.95514E+03 -1.50736E+04
  1.53828E+04 -8.62160E+03  1.99459E+04  2.72547E+03  1.34044E+04  1.39204E+04  1.36431E+03  1.52511E+04
 -8.20459E+03  1.36689E+04 -9.92639E+03  3.21897E+03 -6.68561E+03 -2.07502E+03 -2.40482E+03 -1.77998E+03
 -1.45244E+03 -3.36061E+02 -2.53797E+03  4.47922E+03 -6.05705E+03  2.22461E+03 -9.37995E+03 -2.35970E+03
 -5.98336E+03 -1.03613E+04 -1.07377E+03 -1.36701E+04  8.76869E+03 -1.27235E+04  1.48785E+04 -2.65550E+03
  1.33822E+04  7.92052E+03  6.59185E+03  1.19835E+04 -2.69788E+03  1.39592E+04 -1.01224E+04  8.35978E+03
 -1.42024E+04  2.41778E+03 -9.49682E+03 -6.91905E+03 -4.68277E+02 -1.22280E+04  4.55775E+03 -8.43640E+03
  9.19412E+03 -2.97780E+03  6.27233E+03  2.14148E+03  1.61478E+03  5.07540E+03  7.13264E+02  2.40204E+03
  3.25397E+03 -2.39752E+02  4.15051E+03  3.37115E+03  3.78870E+03  4.34365E+03  3.14232E+03  7.40743E+03
 -3.12281E+03  1.25242E+04 -9.96114E+03  1.09393E+04 -1.36890E+04  4.95410E+03 -1.62377E+04 -6.37592E+03
 -6.63832E+03 -1.48612E+04  1.72490E+03 -1.65307E+04  1.01939E+04 -9.85583E+03  1.12001E+04 -2.46500E+03
  9.76302E+03  6.16533E+03  1.76745E+03  9.43292E+03 -4.62062E+03  5.66278E+03 -5.78345E+03 -1.39490E+03
 -2.34265E+03 -7.58876E+03  3.82540E+03 -5.76566E+03  7.47715E+03 -3.19949E+03  7.13685E+03  1.27913E+03
  2.84718E+03  1.66712E+03  1.23649E+03  3.85375E+03 -1.82814E+03  2.15967E+03  2.67500E+03 -7.30671E+02
  1.00455E+03  6.12900E+02  5.17267E+03  1.21883E+03  3.23117E+03  6.85489E+03  1.34253E+02  1.09755E+04
 -7.76676E+03  6.34518E+03 -9.90313E+03  2.34736E+03 -8.73636E+03 -4.03208E+03 -3.26200E+03 -6.11752E+03
  1.18116E+03 -5.18848E+03  4.76392E+03 -3.89178E+03  2.52357E+03  4.57264E+03 -1.53485E+03  5.44168E+03
 -6.25314E+03  2.38805E+03 -6.06586E+03 -3.59317E+03 -3.12292E+03 -8.92151E+03  1.28681E+03 -7.02715E+03
  5.40359E+03 -4.93478E+03  4.72936E+03 -3.41258E+02  5.24278E+03  1.58596E+03 -3.16796E+02  3.42630E+03
 -3.87012E+03  1.02001E+03 -4.09394E+03 -3.48254E+03  2.40474E+03 -5.26193E+03  8.48290E+03 -5.81718E+03
  8.80544E+03  5.60343E+02  1.02081E+04  7.30719E+03  3.44243E+03  7.58045E+03 -3.21359E+03  9.45353E+03
 -6.75495E+03  4.50282E+03 -7.25483E+03 -1.88866E+03 -4.10110E+03 -7.23391E+03  9.96210E+02 -5.82475E+03
  4.15349E+03 -2.54546E+03  5.23478E+03  1.63918E+03  2.15772E+03  5.17691E+03 -2.50167E+02  4.35049E+03
 -2.18822E+03  2.93245E+03 -1.72831E+03 -1.28592E+03 -9.90570E+02  1.13896E+03 -1.14465E+03  1.27867E+03
 -1.70703E+03  2.49940E+03 -6.19421E+03  2.58891E+03 -1.07310E+04 -6.65533E+01 -1.13807E+04 -7.69887E+03
 -5.20709E+03 -1.22824E+04  1.40279E+03 -1.43498E+04  1.05295E+04 -1.18933E+04  1.38215E+04 -5.94687E+03
  1.12828E+04  2.06694E+03  8.21531E+03  8.90461E+03  5.15328E+02  1.05518E+04 -4.43519E+03  6.45445E+03
 -6.88566E+03  2.79879E+03 -4.50091E+03 -1.61863E+03 -7.28988E+02 -4.79273E+02  2.01960E+02 -6.64350E+02
 -1.19223E+03  1.19998E+03 -1.48494E+03 -1.19502E+03 -6.71377E+02 -2.23951E+03 -5.54110E+02 -3.45226E+03
  4.76381E+03 -1.49173E+03  5.75252E+03 -8.11483E+02  6.20860E+03  4.92339E+03  2.45465E+03  9.41986E+03
 -4.24618E+03  1.10810E+04 -1.03122E+04  6.10154E+03 -1.40961E+04  2.36239E+02 -1.04328E+04 -8.08081E+03
 -5.22932E+03 -1.12438E+04  2.82826E+03 -9.87394E+03  6.44391E+03 -3.91536E+03  7.20182E+03  1.63786E+03
  4.32854E+03  4.73721E+03  1.31198E+03  2.46875E+03 -2.32603E+03 -1.01629E+03  1.16874E+02 -2.73331E+03
  2.96135E+03 -9.01708E+02  4.26428E+03  1.93983E+03  3.27104E+03  4.10783E+03  1.41117E+03  4.79482E+03
 -4.60487E+03  4.65290E+03 -7.06098E+03  5.72372E+02 -6.20377E+03 -5.03797E+03 -1.87374E+03 -8.84814E+03
  3.38940E+03 -7.51131E+03  8.58372E+03 -2.60267E+03  7.85903E+03  2.40468E+03  2.87541E+03  7.53553E+03
  2.75057E+03  6.40796E+03 -1.61698E+03  7.70631E+03 -3.78934E+03  3.46242E+03 -3.29243E+03  8.64334E+02
 -3.57462E+03  1.58939E+02 -2.55037E+03  1.20544E+03 -4.05380E+03  1.08039E+02 -6.48334E+03 -1.87413E+03
 -5.84483E+03 -4.23999E+03 -1.00068E+03 -6.63290E+03  4.21621E+03 -6.80854E+03  5.47134E+03 -2.91894E+03
  6.71434E+03  1.62668E+03  2.96887E+03  5.10232E+03 -7.51651E+02  7.55942E+03 -4.44107E+03  3.46298E+03
