 $NMID ID='MM_0lb_SNR200_16hz_g40_88.RAW', FMTDAT='(8E13.5)'
 TRAMP=1., VOLUME=1. $END
  3.09527E+05  1.09359E+03  3.37417E+05  2.51734E+05  8.48429E+04  3.37752E+05 -1.32468E+05  2.49538E+05
 -1.89150E+05  8.24336E+04 -1.11262E+05 -3.28119E+04  1.48318E+03 -4.96227E+04  5.39608E+04  3.72115E+02
  3.38180E+04  5.27053E+04 -1.67136E+04  7.51763E+04 -6.04768E+04  6.28819E+04 -8.30771E+04  3.31016E+04
 -8.12114E+04 -9.89043E+03 -5.63319E+04 -5.18164E+04 -1.42758E+04 -6.89448E+04  2.62770E+04 -4.53708E+04
  3.94775E+04  3.94366E+03  1.54404E+04  4.67201E+04 -3.36633E+04  4.63090E+04 -6.47292E+04 -8.40189E+01
 -5.23247E+04 -5.67101E+04 -6.14871E+03 -7.59335E+04  3.36960E+04 -5.39065E+04  4.74375E+04 -1.64257E+04
  4.26954E+04  1.09026E+04  3.10871E+04  2.50427E+04  1.55354E+04  2.93447E+04 -5.17616E+03  2.70088E+04
 -2.09287E+04  1.26771E+04 -1.93740E+04 -4.88416E+03  5.62197E+03 -8.02773E+03  2.16783E+04  1.09523E+04
  7.23774E+03  3.35952E+04 -3.03350E+04  3.45219E+04 -6.09723E+04  1.73823E+03 -5.60146E+04 -4.17304E+04
 -1.26832E+04 -6.06674E+04  3.91865E+04 -4.41939E+04  5.65622E+04 -1.75906E+03  3.25234E+04  3.17770E+04
 -6.66283E+03  3.44723E+04 -2.88263E+04  1.46114E+04 -2.82953E+04 -5.80219E+03 -1.46054E+04 -9.33081E+03
 -7.47022E+03 -1.17864E+04 -7.14044E+02 -1.71463E+04  7.27428E+03 -2.25218E+04  1.51571E+04 -1.31017E+04
  1.04855E+04  4.09989E+03 -6.95948E+03  1.43341E+04 -1.98282E+04 -2.86589E+03 -7.99008E+03 -3.06734E+04
  2.21828E+04 -4.15324E+04  4.66371E+04 -1.80933E+04  4.29085E+04  1.79491E+04  1.42796E+04  4.30127E+04
 -1.56050E+04  3.01459E+04 -2.43894E+04  4.53906E+02 -8.42719E+03 -2.69144E+04  1.95311E+04 -3.18347E+04
  3.92027E+04 -7.34127E+03  3.22671E+04  2.37601E+04  1.69194E+04  4.35764E+04 -8.16225E+03  4.60567E+04
 -2.88688E+04  3.00486E+04 -3.81998E+04  7.75520E+03 -3.92938E+04 -1.47080E+04 -2.15027E+04 -3.57832E+04
  7.12675E+03 -3.38744E+04  2.95436E+04 -1.36092E+04  2.81048E+04  9.94806E+03  4.48026E+03  1.75260E+04
 -1.32084E+04  6.93708E+03 -9.28184E+03 -6.48071E+03  5.51130E+03 -9.87387E+03  1.70005E+04  5.18960E+03
  1.14345E+04  2.20079E+04 -6.91347E+03  2.37523E+04 -2.14047E+04  8.37033E+03 -2.66840E+04 -5.95916E+03
 -1.69722E+04 -1.67051E+04 -6.36361E+03 -1.84653E+04  3.96615E+03 -1.61425E+04  1.29659E+04 -1.58842E+04
  2.23000E+04 -1.22050E+04  2.81902E+04  2.27866E+03  2.19750E+04  1.76559E+04  4.25434E+03  3.41408E+04
 -1.60246E+04  2.85170E+04 -2.58629E+04  1.01819E+04 -2.05370E+04 -1.01783E+04 -3.97180E+03 -1.32225E+04
  2.51265E+03 -4.07594E+03 -2.80798E+03  5.24012E+03 -1.41596E+04  5.28812E+03 -1.50946E+04 -6.53888E+03
 -9.99521E+03 -1.78806E+04  4.87538E+03 -2.09120E+04  1.37102E+04 -1.37918E+04  1.60883E+04 -2.49700E+03
  9.88848E+03  1.26188E+04 -1.66569E+03  1.80497E+04 -1.13888E+04  9.57892E+03 -1.64850E+04 -4.95206E+03
 -1.28307E+04 -1.48746E+04 -2.09569E+03 -1.97959E+04  1.04152E+04 -1.72133E+04  1.74491E+04 -8.36446E+03
  1.71519E+04  2.73145E+02  1.11294E+04  4.13036E+03  4.90711E+03  6.08359E+02  9.15407E+03 -1.00213E+03
  1.51989E+04  2.63029E+03  1.62591E+04  1.51140E+04  8.82943E+03  2.76127E+04 -4.09772E+03  2.89157E+04
 -1.68048E+04  2.32822E+04 -2.86247E+04  1.32014E+04 -2.80628E+04 -2.50414E+03 -2.29553E+04 -1.51523E+04
 -1.16486E+04 -2.36062E+04  7.57052E+03 -2.16993E+04  1.84957E+04 -1.25079E+04  1.77547E+04  3.59747E+03
  6.88362E+03  1.23378E+04 -7.79106E+03  1.15375E+04 -1.34619E+04  2.45943E+03 -1.16015E+04 -8.04622E+03
 -3.63831E+02 -1.32495E+04  7.19730E+03 -9.85176E+03  8.74975E+03 -1.75193E+03  1.17949E+03  6.10083E+03
 -5.83277E+03  1.83998E+03 -3.81718E+03 -5.30081E+03 -2.91685E+02 -1.08047E+04  9.23808E+03 -1.15832E+04
  1.40167E+04 -5.55972E+03  1.54312E+04  2.90747E+03  1.27717E+04  1.07678E+04  4.56122E+03  1.58885E+04
 -2.01527E+03  1.86928E+04 -1.07980E+04  1.07985E+04 -1.34728E+04  2.86326E+03 -9.28123E+03 -2.74163E+03
 -4.79253E+03 -3.40692E+03 -3.67243E+01  6.25274E+02 -1.51475E+03  2.50027E+03 -4.14805E+03  3.34902E+03
 -8.51089E+03  3.02304E+02 -1.01687E+04 -8.40506E+03 -2.98801E+03 -1.26282E+04  3.67556E+03 -9.39254E+03
  7.79967E+03 -3.58023E+03  5.83852E+03  2.85707E+03 -3.08694E+02  4.05765E+03 -4.40479E+03  4.84684E+02
 -4.00251E+03 -5.16084E+03 -2.87770E+02 -7.85588E+03  4.28232E+03 -8.77686E+03  1.06169E+04 -3.38367E+03
  1.42866E+04  2.94697E+02  1.05562E+04  6.86075E+03  2.07293E+03  1.06858E+04 -4.56328E+03  9.41693E+03
 -7.86488E+03  3.53104E+03 -5.12477E+03 -2.17364E+03  1.33948E+03 -2.09631E+03  4.66377E+03  2.07462E+02
  4.61659E+03  4.03180E+03  6.98978E+02  6.46245E+03 -5.14989E+03  7.33669E+03 -9.76962E+03  1.74593E+03
 -5.96290E+03 -3.95079E+03 -3.49584E+02 -6.83325E+03  4.81614E+03 -3.91323E+03  4.09330E+03  9.37130E+02
  1.06107E+03  4.44775E+03 -5.75728E+03  5.64339E+03 -6.25235E+03  2.46361E+03 -5.41190E+03 -1.75549E+03
 -3.13880E+03 -7.17562E+03  1.32630E+03 -8.76831E+03  6.85400E+03 -5.49171E+03  7.22633E+03  1.11177E+03
  5.49474E+03  7.22204E+03  2.15892E+02  7.80048E+03 -6.44803E+03  5.31249E+03 -7.54164E+03 -1.31212E+03
 -5.91978E+03 -4.85557E+03 -2.01561E+03 -4.56017E+03  3.66498E+03 -4.96227E+03  4.14350E+03 -2.74129E+03
  4.06564E+03  6.50793E+02 -2.38564E+02  1.54623E+03  8.31405E+02 -2.59232E+02 -7.97018E+02 -3.31764E+03
  3.85100E+03 -6.54632E+02  6.01262E+03  6.91150E+02  8.12371E+03  4.82944E+03  6.06154E+03  9.32236E+03
 -2.71785E+03  9.61670E+03 -1.04130E+04  9.30317E+03 -1.26497E+04  3.92885E+02 -9.76761E+03 -4.67890E+03
 -6.80740E+03 -7.58037E+03 -1.68106E+02 -6.28935E+03  1.50873E+03 -3.23731E+03  1.72013E+03 -2.16635E+03
  1.91983E+03 -6.77819E+02  2.02366E+03 -2.31882E+03  4.17277E+03 -2.05493E+03  5.03455E+03  2.07199E+03
  5.10067E+03  2.27064E+03  1.81510E+03  4.62067E+03 -1.80501E+03  4.63328E+03 -5.80533E+03  4.19278E+03
 -6.41127E+03 -1.26206E+03 -2.99706E+03 -4.11143E+03 -5.92368E+02 -7.95892E+03  3.79670E+03 -7.76093E+03
  6.82153E+03 -4.55659E+03  8.09320E+03  1.24208E+03  5.18843E+03  4.32880E+03  2.59273E+03  8.77774E+03
 -3.08289E+03  6.37139E+03 -4.17021E+03  3.29234E+03 -3.24655E+03 -2.57610E+02 -1.93321E+02 -1.15618E+02
  9.68038E+01  2.28367E+02 -5.46990E+02  1.32956E+03 -2.72798E+03  1.82540E+03 -5.31379E+03 -6.51977E+02
 -2.41588E+03 -4.00483E+03  7.34870E+02 -5.75449E+03  3.59004E+03 -6.42720E+03  4.61704E+03 -1.28171E+03
  6.08055E+03  4.22938E+03  2.27330E+03  4.73807E+03 -6.76036E+02  7.07421E+03 -4.31567E+03  3.20154E+03
 -4.92146E+03  2.51153E+02 -4.33381E+03 -3.04869E+03 -1.27044E+03 -4.75942E+03  2.14575E+03 -4.07325E+03
  3.53475E+03 -2.35850E+03  1.38146E+03  9.49021E+02  1.01239E+03  2.48954E+03  1.01776E+03  5.29591E+02
  1.39976E+03  1.34457E+03  1.31881E+03  2.26948E+03  2.90746E+03  3.64874E+03  1.76062E+03  2.88019E+03
 -2.37931E+03  4.77132E+03 -1.83202E+03  5.11991E+03 -4.48896E+03  2.05893E+03 -3.94353E+03 -1.47499E+02
 -1.88321E+03 -5.28255E+03  8.48416E+02 -5.46311E+03  2.91944E+03 -2.57276E+03  3.34048E+03 -1.87751E+02
  2.27214E+03  3.30411E+03  5.39453E+02  3.92069E+03 -1.76018E+03  2.24426E+03 -2.32815E+03  8.42150E+02
 -2.05835E+03 -1.83781E+03  1.59734E+03 -2.29161E+03  2.88030E+03 -1.24444E+03  1.82734E+03  6.55703E+02
 -3.08445E+01  6.10894E+02  6.90097E+02 -4.76751E+01 -5.61569E+02  1.45356E+03  1.52172E+03 -3.73234E+02
  1.33289E+03 -1.04157E+03  2.29168E+03  5.38948E+02  4.20741E+02  4.01617E+03 -2.72986E+02  4.45068E+03
 -1.66880E+03  1.21430E+03 -4.10047E+03  1.07582E+03 -3.26566E+03 -1.33315E+03 -3.96557E+02 -2.67623E+03
 -7.54211E+02 -1.65804E+03  6.04036E+02 -1.44590E+03  1.60284E+03  1.39219E+03 -8.02926E+02  1.69603E+03
 -2.36425E+03  1.25336E+03 -2.35316E+03 -1.41380E+03 -1.66588E+03 -3.47357E+03  2.38081E+02 -3.00432E+03
  8.73384E+02 -3.74980E+02  1.06504E+03  8.57193E+02  1.21516E+03 -2.59293E+02  6.17741E+02  6.83251E+02
 -2.03141E+02  1.42923E+02 -4.94509E+02  2.04484E+02  9.63074E+02 -4.93655E+02  1.90858E+03 -8.39969E+02
  3.68155E+03 -7.30808E+02  4.06121E+03  1.01342E+03  1.50162E+03  2.15757E+03 -1.29426E+03  3.24868E+03
 -1.00659E+03  5.28292E+02 -3.02624E+03  7.48799E+02 -1.17873E+03 -1.71853E+03  1.12973E+03 -1.73134E+03
  1.89779E+03 -1.32645E+03  1.25820E+03  4.70071E+02  3.39676E+02  1.55896E+03  2.49192E+02  1.85625E+03
 -1.38440E+03  1.03844E+03 -5.81108E+02 -5.48269E+02  4.70642E+02  1.93253E+02 -7.90483E+02  7.10045E+02
 -6.71716E+02  1.21667E+03 -2.38100E+03  2.28174E+02 -1.73761E+03 -1.08789E+02 -4.43148E+03 -2.58452E+03
 -1.64098E+03 -3.39093E+03 -5.30745E+01 -4.27003E+03  1.51153E+03 -4.18117E+03  5.21911E+03 -1.14084E+03
  3.01523E+03  2.58751E+01  6.65901E+02  3.52867E+03 -3.18124E+02  2.48347E+03 -9.60031E+02  1.62865E+03
 -2.38077E+03  7.20842E+02 -7.22974E+02 -9.92152E+02  3.30451E+02  9.10129E+02 -1.81211E+03 -3.92264E+01
 -1.52529E+03 -7.32189E+02 -3.26341E+02 -6.64831E+02 -1.19523E+03 -1.46377E+02  2.82431E+02 -1.17829E+03
  7.33668E+02  5.18286E+02  1.29697E+03 -1.00882E+03  2.50116E+03  8.26379E+02  1.52280E+02  2.93373E+03
 -1.51608E+03  4.09529E+03 -4.01154E+03  1.83172E+03 -3.01574E+03 -1.36834E+02 -1.84470E+03 -2.76083E+03
 -9.89596E+02 -2.89189E+03  5.91938E+02 -2.54440E+03  1.45612E+03 -8.61866E+02  1.58901E+03  3.44410E+02
  1.01193E+03  3.75833E+02  1.22486E+03  1.31121E+01 -5.40269E+02 -1.29620E+03 -1.01825E+03 -1.14819E+02
  3.56001E+02 -5.83002E+02 -2.56349E+01  1.27145E+03 -1.29813E+02  1.59993E+03  1.26938E+03  1.80832E+03
 -8.26253E+02  7.60777E+02 -6.99134E+02 -3.80076E+02 -8.25305E+02 -1.07044E+03  7.45128E+02 -2.29112E+03
  7.67658E+02 -1.44744E+03  8.34596E+02 -1.30887E+02  1.41499E+03 -7.27988E+02  6.04378E+01  1.50205E+03
  6.97644E+02  7.32339E+02 -1.76080E+03  1.47646E+03 -9.95843E+02  6.34481E+02 -3.82792E+02  5.49714E+02
 -2.27105E+01  7.50768E+02 -1.21317E+03  1.43375E+03 -1.18255E+03  1.94159E+02 -1.80018E+03 -5.05575E+02
 -1.91316E+03 -1.52733E+03 -1.61453E+03 -1.53205E+03  1.28747E+03 -2.71426E+03  7.85322E+02  2.36395E+02
  1.78704E+03 -2.00053E+02  4.43309E+02  1.92805E+02  5.51694E+01  1.67905E+03 -1.82672E+03  1.53495E+03
