 $NMID ID='MM_0lb_SNR200_20hz_g55_86.RAW', FMTDAT='(8E13.5)'
 TRAMP=1., VOLUME=1. $END
  3.10117E+05  1.11434E+03  3.38017E+05  2.50866E+05  8.42023E+04  3.36717E+05 -1.32222E+05  2.50444E+05
 -1.89560E+05  8.27555E+04 -1.11019E+05 -3.39809E+04  8.26966E+02 -4.95858E+04  5.53100E+04  2.57805E+01
  3.55561E+04  5.24043E+04 -1.62832E+04  7.52436E+04 -6.11075E+04  6.30803E+04 -8.28796E+04  3.05254E+04
 -7.93198E+04 -1.19423E+04 -5.69539E+04 -5.01094E+04 -1.46665E+04 -6.90279E+04  2.59060E+04 -4.50664E+04
  3.95855E+04  3.63958E+03  1.62065E+04  4.64407E+04 -3.41542E+04  4.62316E+04 -6.49263E+04 -1.61840E+03
 -5.28418E+04 -5.45618E+04 -5.82133E+03 -7.52624E+04  3.24217E+04 -5.29525E+04  4.56430E+04 -1.64743E+04
  4.19835E+04  9.87065E+03  3.03234E+04  2.51061E+04  1.50903E+04  2.92151E+04 -4.10564E+03  2.59792E+04
 -2.09857E+04  1.28561E+04 -1.86560E+04 -5.08556E+03  4.60200E+03 -8.75524E+03  2.15215E+04  1.14110E+04
  7.69730E+03  3.39446E+04 -3.08953E+04  3.36346E+04 -6.12771E+04  2.95555E+03 -5.57072E+04 -4.27299E+04
 -1.27165E+04 -6.17836E+04  3.73301E+04 -4.34878E+04  5.54017E+04 -2.46016E+03  3.24358E+04  3.08168E+04
 -7.25810E+03  3.41491E+04 -2.88465E+04  1.36137E+04 -2.86756E+04 -5.84515E+03 -1.40076E+04 -9.04884E+03
 -6.71805E+03 -1.23050E+04 -7.45673E+02 -1.73898E+04  6.60968E+03 -2.23909E+04  1.57248E+04 -1.27625E+04
  1.21639E+04  4.22682E+03 -6.06206E+03  1.29038E+04 -1.92279E+04 -2.95789E+03 -7.62307E+03 -2.94556E+04
  2.11660E+04 -4.06913E+04  4.50218E+04 -1.83361E+04  4.30288E+04  1.84668E+04  1.41385E+04  4.15118E+04
 -1.50763E+04  3.06948E+04 -2.41662E+04  8.10429E+02 -8.21944E+03 -2.62019E+04  1.98640E+04 -3.06139E+04
  3.85021E+04 -7.20447E+03  3.11615E+04  2.35135E+04  1.60442E+04  4.43467E+04 -7.91047E+03  4.52932E+04
 -2.78412E+04  3.01902E+04 -3.71291E+04  8.72740E+03 -3.84462E+04 -1.53445E+04 -2.21923E+04 -3.58618E+04
  7.07857E+03 -3.33463E+04  2.94894E+04 -1.25127E+04  2.58409E+04  1.03474E+04  2.86403E+03  1.81123E+04
 -1.27393E+04  7.46328E+03 -1.06392E+04 -8.58813E+03  5.29944E+03 -1.04163E+04  1.74768E+04  7.28948E+03
  1.27876E+04  2.07851E+04 -6.72953E+03  2.33238E+04 -2.15307E+04  8.69567E+03 -2.52762E+04 -5.75170E+03
 -1.64576E+04 -1.63871E+04 -5.94979E+03 -1.65251E+04  3.56234E+03 -1.39910E+04  1.14823E+04 -1.46207E+04
  2.05559E+04 -1.26815E+04  2.87335E+04  1.87920E+03  2.16072E+04  1.58637E+04  4.81159E+03  3.15629E+04
 -1.60233E+04  2.70340E+04 -2.49709E+04  9.46384E+03 -1.84669E+04 -1.01017E+04 -4.44870E+03 -1.41651E+04
  2.00583E+03 -4.63800E+03 -2.82228E+03  6.02595E+03 -1.16845E+04  5.41281E+03 -1.34657E+04 -5.50591E+03
 -8.50710E+03 -1.48756E+04  3.90492E+03 -1.93153E+04  1.18540E+04 -1.48449E+04  1.41985E+04 -1.09761E+03
  8.79226E+03  9.75289E+03 -1.90049E+03  1.37443E+04 -1.09257E+04  8.20098E+03 -1.48380E+04 -2.82670E+03
 -1.11317E+04 -1.48358E+04 -1.68020E+03 -1.87365E+04  8.56432E+03 -1.59528E+04  1.57264E+04 -6.57643E+03
  1.38194E+04  5.60976E+02  1.07440E+04  4.31978E+03  5.91365E+03  2.61687E+02  7.23426E+03 -1.63664E+03
  1.43849E+04  2.36022E+03  1.49697E+04  1.24160E+04  8.54835E+03  2.39764E+04 -3.10231E+03  2.54258E+04
 -1.48985E+04  1.99596E+04 -2.36226E+04  9.82325E+03 -2.39155E+04 -1.88128E+03 -2.17110E+04 -1.30672E+04
 -9.95519E+03 -1.94413E+04  6.51059E+03 -1.87095E+04  1.62541E+04 -1.22442E+04  1.55268E+04  3.35349E+03
  6.55972E+03  1.15225E+04 -7.99436E+03  1.00013E+04 -1.30495E+04  3.15770E+03 -1.01259E+04 -7.53767E+03
 -3.26432E+02 -1.21200E+04  5.46888E+03 -9.83262E+03  7.71199E+03  9.98519E+01  1.79498E+03  5.34117E+03
 -4.45537E+03  1.58578E+03 -2.49968E+03 -3.87760E+03  8.26287E+02 -9.65591E+03  8.54295E+03 -9.30203E+03
  1.18488E+04 -4.65149E+03  1.13815E+04  3.30903E+03  9.26650E+03  7.69401E+03  5.23064E+03  1.30248E+04
 -1.07286E+03  1.50846E+04 -9.37242E+03  1.07602E+04 -1.14999E+04  2.69421E+03 -7.73904E+03 -1.92525E+03
 -4.83865E+03 -2.90616E+03 -3.97256E+02  2.27114E+03 -2.38810E+03  1.50293E+03 -3.12396E+03  3.83964E+03
 -7.51073E+03  5.19587E+01 -7.32988E+03 -6.25108E+03 -4.13931E+03 -1.06674E+04  3.30796E+03 -8.09352E+03
  6.71152E+03 -4.17219E+03  6.69211E+03  1.49717E+03  8.54737E+02  1.87459E+03 -4.04969E+03 -5.83195E+02
 -3.03228E+03 -5.66869E+03 -6.53147E+02 -6.16210E+03  3.64960E+03 -7.84361E+03  9.38114E+03 -4.03661E+03
  1.11951E+04  7.17169E+02  8.27822E+03  5.73453E+03  2.12873E+03  8.26438E+03 -4.67991E+03  6.90176E+03
 -6.26696E+03  2.05113E+03 -3.55257E+03 -2.57381E+02  1.69128E+03 -1.86854E+03  4.44850E+03 -1.91191E+03
  4.00611E+03  3.55983E+03  4.99210E+02  6.35647E+03 -3.91697E+03  5.50060E+03 -7.39997E+03  1.40263E+03
 -3.27851E+03 -3.10745E+03 -6.92531E+01 -6.26540E+03  3.56741E+03 -2.97655E+03  3.63374E+03  5.70618E+02
 -5.53265E+02  2.47328E+03 -3.50922E+03  3.69613E+03 -4.05947E+03  2.37243E+03 -4.16781E+03 -9.55424E+02
 -2.19091E+03 -5.36739E+03  5.68255E+02 -6.17977E+03  5.11115E+03 -4.55728E+03  5.45959E+03 -7.28476E+02
  4.90449E+03  5.18186E+03 -2.74025E+02  6.39378E+03 -4.23813E+03  5.17056E+03 -4.86304E+03  5.01083E+02
 -5.30557E+03 -3.91673E+03 -2.10838E+03 -3.91821E+03  2.14893E+03 -4.15952E+03  2.11705E+03 -1.68696E+03
  3.76854E+03  2.28838E+01 -4.60451E+02  9.90572E+02 -4.85658E+02 -1.66964E+02 -7.02557E+02 -1.87176E+03
  4.11148E+03  1.58492E+02  5.40903E+03  1.87839E+03  4.46264E+03  1.73123E+03  4.07190E+03  5.92155E+03
 -1.19057E+03  8.98353E+03 -6.69349E+03  6.25928E+03 -9.17262E+03  2.10328E+03 -6.71613E+03 -1.53469E+03
 -4.12447E+03 -6.19331E+03  7.90684E+00 -4.33794E+03  1.40828E+03 -2.23876E+03  1.03720E+03 -1.48845E+03
  8.16748E+02 -1.51454E+03  2.22868E+03 -1.33982E+03  3.88444E+03 -1.13936E+03  3.17133E+03  2.14052E+02
  3.77622E+03  1.16868E+03  2.97368E+02  2.51089E+03 -1.27359E+03  1.72823E+03 -4.33233E+03  8.90159E+02
 -4.15724E+03 -1.22347E+03 -2.66704E+02 -3.12130E+03  2.82514E+02 -3.93139E+03  2.61738E+03 -4.03621E+03
  3.62324E+03 -2.70809E+03  6.65447E+03 -4.52758E+02  4.07133E+03  3.49783E+03  1.56456E+03  4.28816E+03
 -1.82811E+03  5.29081E+03 -1.76821E+03  2.17888E+03  4.55295E+00 -1.13517E+03 -6.57351E+02 -8.90966E+02
 -1.02290E+03  3.44381E+02 -8.54790E+02  1.55173E+03 -1.24861E+03  9.98893E+02 -4.76505E+03  7.55627E+01
 -1.72327E+03 -3.12576E+03  1.26634E+03 -3.43646E+03  1.56706E+03 -3.82306E+03  2.92087E+03 -8.17930E+02
  2.78811E+03  1.83522E+03  2.21119E+03  2.85239E+03 -5.16792E+02  3.24710E+03 -2.11086E+03  2.27620E+03
 -3.67331E+03  1.16997E+03 -2.59017E+03 -1.84232E+03 -1.54964E+02 -2.80967E+03  1.98534E+03 -2.41926E+03
  1.74653E+03 -1.12697E+02  7.85760E+02  5.51015E+02 -1.33873E+02  2.00092E+03  1.27552E+03 -7.58199E+01
  1.33637E+03  9.45265E+02  1.88865E+03  1.18500E+03 -2.07289E+02  1.85443E+03  1.67860E+03  1.83416E+03
 -3.77341E+02  1.58937E+03 -1.59925E+03  2.87162E+03 -2.82407E+03  5.77760E+02 -2.78423E+03  7.52124E+02
 -8.51408E+02 -3.12124E+03  7.27512E+02 -2.81882E+03  2.09769E+03 -2.47088E+03  2.10496E+03 -3.27890E+02
  1.72957E+03  1.77205E+03  5.63545E+02  2.91522E+03 -3.22562E+02  1.19301E+03 -3.97382E+02 -1.04199E+03
 -8.22785E+02 -1.53683E+03  3.88942E+02 -2.32833E+03  8.29084E+02 -1.91245E+03  1.73057E+03  1.01843E+03
  9.71244E+02 -5.72141E+01  9.69827E+02  2.03920E+02 -1.54390E+02  3.31534E+02  9.95416E+02  4.68082E+02
  9.36346E+01 -4.42542E+01  1.21053E+03  9.78904E+01 -5.00059E+02  2.02171E+03 -1.29861E+03  2.79810E+03
 -1.62771E+03  1.38149E+03 -8.64995E+02  2.16791E+02 -2.26514E+03  8.66385E+00  3.51090E+02 -4.34039E+02
  1.03950E+03  5.77857E+02  3.76527E+02 -5.11088E+02  7.40716E+02  7.48431E+02 -5.86800E+02  9.32332E+02
 -1.76099E+03  3.26931E+02 -2.74892E+02 -1.07675E+03 -2.36860E+02 -1.81691E+03 -6.59777E+02 -1.44130E+03
  9.19577E+02 -3.75290E+02 -1.90713E+01 -4.55098E+02  5.38654E+02  1.75333E+02 -3.69259E+01  5.24241E+02
 -1.12458E+03  6.18428E+01 -8.57281E+02  4.02597E+02 -1.26131E+02 -2.19847E+02  1.92904E+03 -6.12695E+02
  1.46762E+03  3.38566E+02  1.72144E+03 -5.90836E+02  8.59983E+02 -2.01082E+02 -4.40587E+02  1.09693E+03
 -3.57308E+02  2.51128E+02 -1.13654E+03  6.73933E+02 -6.45264E+02 -3.83374E+02 -8.36872E+01 -1.43549E+03
  1.71494E+03  4.18016E+02 -5.42426E+02  5.09512E+02 -1.24636E+01  8.42636E+02  8.38778E+02 -3.11774E+02
 -2.80146E+02  1.52347E+03 -1.27581E+03  1.96925E+02  1.36966E+02  1.07364E+02 -5.56991E+02  1.29549E+03
 -9.74409E+02  1.73382E+03 -7.22115E+02  3.51235E+02 -1.21683E+03 -1.20674E+02 -3.03051E+03 -9.09129E+01
 -1.13028E+03 -6.15243E+02 -1.80664E+02 -2.11998E+03 -2.34054E+02 -1.56756E+03  1.75253E+03 -1.09453E+03
  2.13949E+03 -6.87988E+02  5.66653E+02  1.57699E+03 -2.48208E+02  1.20126E+03  2.17498E+02  1.15865E+02
 -9.90263E+02  1.40694E+03 -7.07296E+01 -6.52445E+02 -3.67102E+02  8.04590E+02 -7.29449E+01  1.37335E+03
 -1.19666E+03  4.17209E+02 -2.58384E+02  4.36846E+01  1.06242E+03  4.29202E+02 -3.00625E+02 -7.62309E+02
  1.08551E+03 -5.36101E+02  1.09936E+03 -4.53757E+02  7.11794E+02 -4.36675E+02 -4.93588E+02  5.35242E+02
  3.61905E+02  1.35153E+03 -1.17347E+03  1.38044E+03 -1.84775E+03  9.72584E+01 -7.97743E+02 -1.26435E+03
 -7.02056E+02 -1.42111E+03  4.21324E+01 -5.77807E+02 -7.99161E+01 -3.88296E+02  2.47709E+02  4.25329E+02
 -4.91215E+02  5.76419E+02 -7.62743E+01  5.92262E+02 -4.45843E+02 -2.35194E+02  1.01198E+03  3.72530E+02
  4.52400E+02  2.90024E+02 -8.53242E+02  7.47731E+00  1.44209E+03  9.13297E+01  2.96440E+02  3.11148E+02
 -3.20910E+02  9.33783E+02  9.72805E+02  5.28742E+02 -5.40482E+02 -2.15856E+03  3.07884E+02 -9.34303E+02
 -1.01240E+03 -7.79430E+02 -6.67340E+02 -6.41342E+02  1.20638E+03 -8.18217E+01 -2.49789E+02  1.38637E+03
  1.85646E+02 -1.17273E+02 -1.15356E+03  1.21257E+03 -2.60777E+02  6.64731E+02  1.95590E+02  2.04086E+02
  8.17422E+02 -8.78464E+02 -4.91677E+02  1.78970E+02 -4.49373E+02  4.76888E+02 -1.43968E+02  3.94078E+02
 -5.10948E+02  4.84730E+02 -5.47644E+02 -1.37970E+03  9.82069E+02 -1.05799E+03  6.81754E+02 -1.58518E+02
 -1.44147E+02  6.87510E+02  5.68231E+02  6.22291E+02 -5.00435E+02 -9.67595E+01 -1.00198E+03  6.58741E+02
