 $NMID ID='MM_0lb_SNR200_16hz_g60_79.RAW', FMTDAT='(8E13.5)'
 TRAMP=1., VOLUME=1. $END
  3.09310E+05 -5.03109E+02  3.38042E+05  2.50915E+05  8.52592E+04  3.37355E+05 -1.32628E+05  2.51345E+05
 -1.89839E+05  8.30180E+04 -1.12959E+05 -3.23125E+04  1.25710E+03 -4.97037E+04  5.54690E+04  3.45795E+01
  3.62501E+04  5.29870E+04 -1.73739E+04  7.52719E+04 -6.08379E+04  6.44239E+04 -8.48718E+04  3.18303E+04
 -8.07376E+04 -1.21806E+04 -5.75814E+04 -5.12781E+04 -1.57921E+04 -6.97042E+04  2.73084E+04 -4.52671E+04
  4.06737E+04  4.34791E+03  1.73901E+04  4.79427E+04 -3.56299E+04  4.67295E+04 -6.85784E+04 -3.40481E+02
 -5.36411E+04 -5.72577E+04 -6.24497E+03 -7.66925E+04  3.50603E+04 -5.37212E+04  4.72512E+04 -1.78828E+04
  4.38689E+04  1.11004E+04  3.08286E+04  2.57769E+04  1.59055E+04  2.94058E+04 -4.45928E+03  2.68664E+04
 -2.15336E+04  1.19325E+04 -1.81658E+04 -4.68580E+03  5.94841E+03 -7.61558E+03  2.30904E+04  1.17381E+04
  7.16425E+03  3.61734E+04 -3.16150E+04  3.60040E+04 -6.37346E+04  2.48191E+03 -5.69697E+04 -4.21325E+04
 -1.22405E+04 -6.28848E+04  3.98096E+04 -4.57310E+04  5.74581E+04 -2.59685E+03  3.42866E+04  3.22368E+04
 -6.20262E+03  3.58900E+04 -2.99194E+04  1.64553E+04 -3.14598E+04 -5.44300E+03 -1.69729E+04 -1.16715E+04
 -9.31049E+03 -1.30147E+04 -1.29203E+03 -1.82949E+04  6.82328E+03 -2.25907E+04  1.50457E+04 -1.32007E+04
  1.14798E+04  4.84145E+03 -7.34210E+03  1.29100E+04 -2.09346E+04 -4.53098E+03 -9.63308E+03 -3.42221E+04
  2.33552E+04 -4.33562E+04  4.70697E+04 -2.05008E+04  4.50176E+04  1.99973E+04  1.43860E+04  4.41307E+04
 -1.59139E+04  3.35491E+04 -2.55384E+04  1.31649E+03 -9.13774E+03 -2.80639E+04  1.94403E+04 -3.32500E+04
  4.08158E+04 -9.12003E+03  3.55589E+04  2.41530E+04  1.85591E+04  4.63299E+04 -8.06488E+03  4.98672E+04
 -3.11515E+04  3.31470E+04 -4.17632E+04  9.95026E+03 -4.33422E+04 -1.73847E+04 -2.31031E+04 -3.71861E+04
  7.57123E+03 -3.78924E+04  3.16700E+04 -1.51093E+04  2.95970E+04  1.01818E+04  3.91254E+03  1.84980E+04
 -1.44014E+04  8.60818E+03 -1.06605E+04 -6.96515E+03  6.05412E+03 -1.11432E+04  1.90942E+04  6.84508E+03
  1.42414E+04  2.17731E+04 -5.37320E+03  2.39524E+04 -2.18087E+04  1.08933E+04 -2.68051E+04 -4.51615E+03
 -1.94599E+04 -1.78425E+04 -8.43168E+03 -1.98031E+04  4.44806E+03 -1.93062E+04  1.59233E+04 -1.72719E+04
  2.50588E+04 -1.33748E+04  3.20937E+04  3.48180E+03  2.41973E+04  1.82841E+04  4.66998E+03  3.61608E+04
 -1.83703E+04  3.05102E+04 -2.78868E+04  9.34213E+03 -2.04345E+04 -9.71087E+03 -4.33174E+03 -1.34182E+04
  2.79278E+03 -2.63467E+03 -5.08151E+03  7.68869E+03 -1.57673E+04  5.92485E+03 -1.63342E+04 -5.59986E+03
 -1.00480E+04 -2.00084E+04  5.27196E+03 -2.30004E+04  1.57621E+04 -1.58505E+04  1.85923E+04 -2.65741E+03
  1.04966E+04  1.21719E+04 -3.18681E+02  2.01158E+04 -1.30470E+04  9.80595E+03 -1.78380E+04 -3.71864E+03
 -1.28425E+04 -1.64701E+04 -1.01284E+03 -2.15350E+04  9.14572E+03 -1.76869E+04  1.91008E+04 -9.26413E+03
  1.81063E+04 -2.06803E+02  1.35453E+04  4.54607E+03  6.24163E+03  6.65764E+02  9.27622E+03 -1.36324E+03
  1.69782E+04  3.38708E+03  1.89395E+04  1.54603E+04  1.37588E+04  3.06700E+04 -2.21590E+03  3.36220E+04
 -1.90217E+04  2.71732E+04 -3.15370E+04  1.22281E+04 -3.14652E+04 -2.62647E+03 -2.67456E+04 -1.84456E+04
 -1.08020E+04 -2.66554E+04  1.06820E+04 -2.53326E+04  2.05040E+04 -1.29390E+04  1.85123E+04  4.62370E+03
  7.71006E+03  1.49160E+04 -8.30103E+03  1.27244E+04 -1.50908E+04  3.53179E+03 -1.22483E+04 -9.28762E+03
 -1.95084E+03 -1.54727E+04  7.71588E+03 -1.20177E+04  9.28999E+03 -9.56806E+02  2.29307E+03  7.54610E+03
 -7.20129E+03  2.20179E+03 -5.72148E+03 -5.46790E+03 -4.59921E+02 -1.25382E+04  7.90223E+03 -1.34341E+04
  1.66946E+04 -7.42503E+03  1.62858E+04  9.99544E+02  1.45315E+04  1.20784E+04  8.18070E+03  1.95139E+04
 -3.34151E+03  2.10386E+04 -1.34240E+04  1.28437E+04 -1.54129E+04  4.39186E+03 -9.76121E+03 -2.44133E+03
 -5.13170E+03 -4.78955E+03 -5.00155E+02  4.57127E+02 -7.56671E+02  2.39784E+03 -5.41819E+03  4.72235E+03
 -8.97751E+03 -1.02204E+03 -9.45910E+03 -8.46908E+03 -4.56911E+03 -1.39063E+04  4.64263E+03 -1.01521E+04
  8.39264E+03 -5.75282E+03  5.94226E+03  2.79072E+03  8.67357E+02  3.04802E+03 -3.57651E+03  8.20082E+02
 -5.02011E+03 -6.47078E+03 -1.77121E+03 -7.73702E+03  5.41150E+03 -1.13851E+04  1.30856E+04 -6.31340E+03
  1.57453E+04  1.35570E+03  1.05852E+04  9.83193E+03  1.56048E+03  1.10839E+04 -5.52906E+03  1.02297E+04
 -9.37839E+03  3.51990E+03 -3.44139E+03 -2.61676E+03  1.00996E+03 -2.85217E+03  5.24190E+03 -1.06528E+03
  5.80529E+03  5.08194E+03  1.39972E+03  7.45007E+03 -7.23693E+03  8.36314E+03 -9.07967E+03  2.18348E+03
 -6.18363E+03 -4.20358E+03  3.55673E+02 -8.93166E+03  4.47939E+03 -4.65138E+03  5.44984E+03  1.44622E+03
  8.97585E+02  5.42632E+03 -5.36383E+03  7.43528E+03 -8.25435E+03  1.64601E+03 -7.06832E+03 -5.72691E+02
 -4.54694E+03 -9.17777E+03  1.66201E+03 -1.17217E+04  9.49112E+03 -7.45114E+03  8.85060E+03  8.23849E+02
  6.14382E+03  9.23443E+03 -8.51169E+02  7.81424E+03 -6.13812E+03  5.86103E+03 -7.66280E+03 -1.47755E+03
 -7.06482E+03 -6.46428E+03 -1.40537E+02 -6.15926E+03  3.67288E+03 -5.40716E+03  3.53604E+03 -3.25194E+03
  3.77488E+03  5.63971E+02 -4.48207E+02  1.30781E+03 -3.24146E+02  1.00317E+02  7.98264E+02 -3.00596E+03
  5.92479E+03 -2.62925E+03  8.67451E+03  1.13805E+03  8.35312E+03  5.67051E+03  6.30984E+03  1.10353E+04
 -2.58378E+03  1.13865E+04 -1.08464E+04  9.77503E+03 -1.43729E+04  3.22212E+03 -1.16132E+04 -3.86840E+03
 -5.87892E+03 -8.23410E+03 -1.29537E+03 -6.22567E+03  3.36534E+03 -3.22889E+03  1.43023E+03 -2.34083E+03
  1.11678E+03 -2.13641E+03  2.29782E+03 -2.38130E+03  4.39250E+03 -1.18944E+03  3.79231E+03 -6.05743E+02
  5.50383E+03  1.09165E+03  3.31003E+03  4.16973E+03 -7.61952E+02  5.31572E+03 -6.79590E+03  4.35653E+03
 -6.51083E+03 -8.54977E+02 -4.05739E+03 -5.99562E+03  6.32882E+02 -5.67103E+03  3.50740E+03 -8.01207E+03
  7.31496E+03 -4.39868E+03  9.43034E+03  1.18927E+03  6.71448E+03  5.74110E+03  1.86624E+03  7.08627E+03
 -3.12129E+03  7.79993E+03 -4.32341E+03  3.09038E+03 -3.49195E+03 -5.09314E+02 -3.31905E+02 -1.42182E+03
 -1.53865E+03 -3.25780E+02 -1.65413E+03  8.84614E+02 -3.79632E+03  1.58887E+03 -5.09047E+03 -1.59048E+03
 -3.62316E+03 -5.73682E+03 -9.10237E+01 -7.01473E+03  2.53198E+03 -6.98645E+03  6.50918E+03 -2.10847E+03
  5.42044E+03  3.25090E+03  1.72095E+03  5.35215E+03 -1.52703E+03  6.98806E+03 -5.09629E+03  4.16792E+03
 -5.15672E+03  1.10434E+03 -5.42678E+03 -4.31918E+03  5.44124E+01 -5.93133E+03  3.79209E+03 -4.06224E+03
  4.25078E+03 -2.39141E+03  2.49683E+03  1.21343E+02 -5.82768E+02  3.10537E+03 -1.63831E+02  1.31055E+03
  1.31374E+03  6.33659E+02  1.15997E+03  8.93581E+02  1.99444E+03  2.30912E+03  2.13341E+03  3.35391E+03
 -1.79844E+03  3.91046E+03 -5.36795E+03  6.37973E+03 -5.14101E+03  1.65875E+03 -7.08062E+03 -1.11504E+03
 -3.17560E+03 -5.96335E+03  1.34314E+03 -5.93744E+03  3.23279E+03 -4.01191E+03  4.97473E+03 -2.46143E+03
  4.16042E+03  3.84195E+03  5.62009E+02  3.38859E+03 -1.43448E+03  1.18125E+03 -1.51933E+03 -1.17221E+03
 -8.25444E+02 -2.10485E+03  1.72749E+03 -2.88527E+03  1.40801E+03 -1.11336E+03  2.41345E+03 -1.96484E+01
  1.04478E+03 -4.17279E+01  1.92113E+03 -5.57606E+01 -1.95869E+02  6.67411E+02  2.76443E+03 -1.71333E+02
  3.29486E+02 -6.72721E+02  2.85230E+03  7.94469E+02  1.26293E+03  4.24715E+03  8.87252E+02  4.23103E+03
 -1.63566E+03  1.90100E+03 -4.34659E+03  1.96486E+03 -3.73910E+03 -7.25733E+02 -1.13548E+03 -1.28579E+03
  1.54575E+03 -2.47322E+03  1.26355E+03 -9.82594E+02  1.80880E+01  8.21097E+02  2.90407E+02  1.72998E+03
 -2.77229E+03  7.21199E+02 -1.63390E+03 -8.59578E+02 -2.76673E+03 -2.52744E+03 -1.59992E+02 -3.30806E+03
  2.58579E+03 -1.47027E+03  1.98597E+03 -5.86864E+02  2.36844E+03 -1.24060E+03  1.17456E+02  1.70214E+03
 -5.92071E+02  6.10578E+02 -2.31312E+02 -1.20514E+03  6.17954E+02 -2.15175E+03  3.69678E+03 -1.98485E+03
  2.42789E+03  4.40550E+02  4.33565E+03  3.63219E+03  1.36117E+03  3.96925E+03 -2.74435E+02  3.37397E+03
 -1.69351E+03  1.79460E+03 -2.76683E+03 -5.43831E+02 -1.50568E+03 -1.96391E+03  1.14359E+03 -2.34467E+03
  9.46549E+02 -1.28924E+03  4.65292E+02  1.21533E+03  1.94693E+03  1.63820E+03  2.75344E+02  2.41465E+03
 -4.86260E+02  3.01319E+03 -6.31042E+02  9.40890E+02 -1.14855E+02 -1.63471E+02 -1.08914E+03  1.09542E+03
 -1.31665E+02  1.02121E+03 -2.22748E+03  3.96114E+02 -3.36084E+03  6.82237E+02 -5.20224E+03 -2.27891E+03
 -9.46414E+02 -3.80298E+03  7.57497E+02 -2.98346E+03  2.67880E+03 -4.06460E+03  3.44988E+03 -1.71101E+03
  4.41810E+03 -1.47491E+02  1.46187E+03  2.80579E+03  6.28179E+02  4.04443E+03 -2.75207E+02  1.80514E+03
 -1.23542E+03  2.33780E+03 -1.02180E+03 -1.69372E+03 -8.61546E+02  4.99836E+02  1.03238E+02  2.17052E+02
 -1.71463E+03 -7.95788E+02 -1.77250E+02 -1.30505E+02  3.99152E+02 -5.89330E+02 -7.00913E+02 -1.80781E+03
  2.91825E+03 -6.44849E+02  9.05382E+02 -3.92591E+02  1.47690E+03  2.75182E+03 -4.62211E+01  2.86733E+03
 -1.28260E+03  2.84908E+03 -2.29691E+03  2.34567E+03 -3.28915E+03 -2.56428E+02 -2.91672E+03 -2.96796E+03
 -1.67482E+03 -1.81588E+03  1.25632E+03 -2.69976E+03  1.39916E+03 -4.59300E+02  2.27330E+03  5.22840E+02
 -1.56115E+03  3.68213E+02  6.09806E+02  7.64071E+02  4.17608E+02 -1.39308E+03  4.58025E+02 -1.93993E+03
  1.90823E+03  1.33961E+03  5.53272E+02  7.18733E+02  1.29432E+02  1.32445E+03  1.00708E+03  7.16812E+02
 -1.64725E+03  1.48792E+03 -1.54147E+03  7.99810E+02 -1.63139E+03 -1.27289E+03 -5.76132E+02 -2.26474E+03
  1.07200E+03 -1.37421E+03 -1.24222E+01  8.27549E+02  1.58304E+03  2.29462E+02  1.14523E+03  1.09057E+03
  7.32404E+02  6.16122E+02 -1.58415E+03  8.42769E+02 -1.66272E+03  1.00924E+03 -4.83797E+01  3.56866E+02
 -3.08361E+02 -3.41043E+02 -5.54293E+02  6.22411E+02  9.53854E+01  9.28407E+02 -1.50469E+03 -2.51221E+02
 -2.11770E+03  3.69060E+02  7.37787E+01 -6.67563E+02  6.82220E+02 -3.71789E+03  9.51084E+02 -6.38169E+02
  1.69693E+03  4.79631E+02  6.42728E+02 -4.89851E+02  1.05028E+03  1.48111E+03 -1.13953E+02  1.33836E+03
