 $NMID ID='MM_0lb_SNR200_16hz_g40_100.RAW', FMTDAT='(8E13.5)'
 TRAMP=1., VOLUME=1. $END
  3.11569E+05  9.55783E+02  3.37306E+05  2.50340E+05  8.42817E+04  3.36991E+05 -1.33113E+05  2.50140E+05
 -1.89114E+05  8.19053E+04 -1.11484E+05 -3.25614E+04  1.93985E+03 -5.12032E+04  5.44568E+04 -1.46661E+02
  3.51173E+04  5.35955E+04 -1.63348E+04  7.48189E+04 -6.04353E+04  6.35663E+04 -8.25638E+04  3.15239E+04
 -8.02502E+04 -1.15854E+04 -5.63079E+04 -5.02348E+04 -1.59084E+04 -6.89269E+04  2.77552E+04 -4.54268E+04
  3.81499E+04  4.61489E+03  1.51964E+04  4.78572E+04 -3.38571E+04  4.63006E+04 -6.59225E+04  2.69292E+02
 -5.22897E+04 -5.57045E+04 -6.38115E+03 -7.60280E+04  3.42390E+04 -5.29417E+04  4.60183E+04 -1.70389E+04
  4.13727E+04  1.09391E+04  3.03328E+04  2.57883E+04  1.56343E+04  2.87056E+04 -4.10156E+03  2.72028E+04
 -2.13887E+04  1.22577E+04 -1.97650E+04 -4.72000E+03  5.93145E+03 -8.42079E+03  2.23209E+04  1.12591E+04
  7.98825E+03  3.34684E+04 -3.04301E+04  3.38909E+04 -6.23628E+04  2.45215E+03 -5.56950E+04 -4.22204E+04
 -1.28358E+04 -6.13930E+04  3.96680E+04 -4.46236E+04  5.60163E+04 -2.93976E+03  3.22972E+04  3.05788E+04
 -5.73045E+03  3.34072E+04 -2.90514E+04  1.39149E+04 -2.89435E+04 -5.19000E+03 -1.38865E+04 -1.03845E+04
 -7.84658E+03 -1.29470E+04 -1.13654E+03 -1.72014E+04  7.51238E+03 -2.35697E+04  1.56877E+04 -1.43973E+04
  1.22719E+04  4.34595E+03 -6.92049E+03  1.38855E+04 -2.10155E+04 -3.99508E+03 -8.88339E+03 -3.17328E+04
  2.16859E+04 -4.08043E+04  4.57012E+04 -1.78259E+04  4.35771E+04  1.85204E+04  1.51007E+04  4.23797E+04
 -1.43438E+04  3.28206E+04 -2.44426E+04  5.58035E+02 -9.32858E+03 -2.58688E+04  2.13966E+04 -3.21478E+04
  3.90086E+04 -8.47124E+03  3.35290E+04  2.29886E+04  1.63255E+04  4.39025E+04 -7.05845E+03  4.71861E+04
 -3.01941E+04  3.15128E+04 -3.82218E+04  8.44522E+03 -4.00567E+04 -1.54810E+04 -2.25163E+04 -3.55007E+04
  7.81927E+03 -3.52790E+04  2.95374E+04 -1.38381E+04  2.80190E+04  1.11349E+04  2.84848E+03  1.90361E+04
 -1.23124E+04  7.96795E+03 -8.65454E+03 -7.12780E+03  5.37830E+03 -1.05920E+04  1.87382E+04  7.22534E+03
  1.26645E+04  2.21610E+04 -5.87223E+03  2.21220E+04 -2.23265E+04  9.85459E+03 -2.70590E+04 -5.56103E+03
 -1.85372E+04 -1.59301E+04 -7.47040E+03 -1.81603E+04  4.40780E+03 -1.45633E+04  1.43412E+04 -1.54198E+04
  2.36210E+04 -1.23277E+04  2.97396E+04  2.21932E+03  2.11301E+04  1.86196E+04  4.62211E+03  3.45442E+04
 -1.71440E+04  2.88419E+04 -2.64559E+04  9.00019E+03 -2.11715E+04 -1.08034E+04 -3.57426E+03 -1.41042E+04
  1.61442E+03 -3.38539E+03 -2.18237E+03  5.43042E+03 -1.43792E+04  5.09501E+03 -1.48660E+04 -6.17793E+03
 -8.93638E+03 -1.68666E+04  4.60100E+03 -2.18009E+04  1.26158E+04 -1.46247E+04  1.63950E+04 -7.34004E+02
  8.19199E+03  1.13576E+04 -2.10553E+03  1.70380E+04 -1.20330E+04  9.00645E+03 -1.59156E+04 -3.49657E+03
 -1.18550E+04 -1.53029E+04 -4.18312E+02 -2.14420E+04  9.67254E+03 -1.67995E+04  1.79371E+04 -7.67409E+03
  1.60432E+04  5.85717E+02  1.19011E+04  3.78411E+03  6.32507E+03 -4.75226E+02  8.70453E+03 -1.42348E+03
  1.53826E+04  3.45732E+03  1.54340E+04  1.34497E+04  9.50943E+03  2.64243E+04 -2.83712E+03  2.90988E+04
 -1.76264E+04  2.20144E+04 -2.83621E+04  1.24552E+04 -2.82170E+04 -1.45061E+03 -2.41504E+04 -1.66071E+04
 -1.10982E+04 -2.28559E+04  7.47870E+03 -2.26335E+04  1.80113E+04 -1.11773E+04  1.66434E+04  4.78914E+03
  7.15097E+03  1.24076E+04 -7.58189E+03  1.16878E+04 -1.35650E+04  2.84566E+03 -1.13339E+04 -7.91329E+03
 -9.66334E+02 -1.29536E+04  7.29026E+03 -1.06778E+04  8.60541E+03 -1.39701E+03  8.65751E+02  5.80869E+03
 -4.77609E+03  3.15989E+03 -4.18666E+03 -5.76628E+03 -7.73457E+01 -1.05797E+04  8.40769E+03 -1.08128E+04
  1.39840E+04 -5.46676E+03  1.37229E+04  2.78682E+03  1.11990E+04  1.10499E+04  6.81100E+03  1.61606E+04
 -1.44463E+03  1.76751E+04 -1.12054E+04  1.07618E+04 -1.46426E+04  2.88945E+03 -8.91233E+03 -3.19314E+03
 -3.90387E+03 -4.48302E+03 -1.36613E+03  1.72159E+03 -2.37402E+03  3.31998E+03 -4.36197E+03  4.85702E+03
 -8.79843E+03 -4.48704E+02 -8.78161E+03 -7.93608E+03 -4.04782E+03 -1.31857E+04  4.31335E+03 -9.16694E+03
  7.97786E+03 -4.42787E+03  6.02852E+03  2.16954E+03  1.18841E+03  4.06911E+03 -4.53935E+03 -4.91936E+02
 -3.65917E+03 -5.85273E+03 -1.29952E+03 -7.07444E+03  4.64556E+03 -9.07397E+03  1.18857E+04 -4.92552E+03
  1.45137E+04  7.72156E+02  9.26534E+03  7.35886E+03  1.71194E+03  1.04879E+04 -7.12599E+03  9.01761E+03
 -6.87573E+03  2.74615E+03 -3.93055E+03 -9.62890E+02  7.50359E+02 -1.62360E+03  4.28348E+03 -1.32542E+03
  4.15013E+03  3.88686E+03  1.91436E+03  7.26646E+03 -5.19671E+03  6.95112E+03 -8.40626E+03  1.71775E+03
 -6.53079E+03 -4.28350E+03  4.26523E+02 -6.90532E+03  5.35917E+03 -4.12311E+03  5.26298E+03  1.34323E+03
  6.91646E+02  3.73496E+03 -5.40522E+03  6.29244E+03 -5.49129E+03  2.26515E+03 -6.19047E+03 -2.44297E+03
 -4.49934E+03 -6.74243E+03  1.26094E+03 -8.77879E+03  6.85629E+03 -4.49007E+03  7.92115E+03  2.53987E+02
  5.12781E+03  6.29156E+03  1.86960E+02  9.11835E+03 -7.15314E+03  4.93575E+03 -6.03439E+03 -1.81985E+02
 -5.50429E+03 -6.03021E+03 -2.55776E+03 -6.73250E+03  2.26580E+03 -4.36623E+03  3.82014E+03 -2.18344E+03
  3.50836E+03  6.04182E+02  1.61480E+02  2.08038E+03  5.50538E+02 -5.83195E+02  6.08628E+00 -3.47223E+03
  5.17682E+03 -2.66885E+02  6.60430E+03  1.62497E+03  5.78331E+03  3.83641E+03  5.96566E+03  1.01612E+04
 -1.81747E+03  1.13408E+04 -9.42302E+03  8.66677E+03 -1.24811E+04  8.45962E+02 -1.04162E+04 -3.41122E+03
 -4.59013E+03 -8.24531E+03 -1.31348E+03 -5.50130E+03  2.11061E+03 -3.66983E+03  3.13414E+03 -3.15556E+03
  1.66187E+03 -2.68204E+03  2.20423E+03 -2.98907E+03  4.05737E+03 -2.17060E+03  4.95624E+03  1.67178E+02
  5.23254E+03  1.36737E+03  2.55156E+03  4.19189E+03 -1.51168E+03  4.08257E+03 -5.24106E+03  4.28194E+03
 -6.40277E+03 -6.46249E+02 -3.25656E+03 -3.49887E+03 -9.61347E+01 -5.97918E+03  3.93503E+03 -6.93566E+03
  7.95139E+03 -3.62353E+03  9.23095E+03  1.76890E+03  5.78515E+03  6.19570E+03  1.40519E+03  7.48399E+03
 -2.75793E+03  7.27858E+03 -3.74916E+03  2.45073E+03 -2.01634E+03 -8.74545E+02 -3.44876E+02 -9.68902E+02
 -9.81965E+02  5.08441E+02 -1.07877E+03  3.40619E+03 -2.73304E+03  1.75277E+03 -4.91655E+03 -2.04338E+02
 -3.17459E+03 -4.61886E+03  8.12429E+02 -6.11086E+03  4.80652E+03 -5.12543E+03  5.22896E+03 -5.69707E+02
  5.01688E+03  3.51628E+03  3.37244E+03  4.36021E+03 -1.02973E+03  5.41566E+03 -2.67962E+03  3.31556E+03
 -5.56687E+03 -6.20780E+00 -4.83055E+03 -3.51848E+03 -5.16120E+02 -4.55532E+03  4.33772E+03 -3.45681E+03
  4.08074E+03 -7.02688E+02  2.35706E+03  5.44714E+02 -2.15108E+01  2.77209E+03  1.62627E+03  3.51278E+01
  1.53205E+03  5.65025E+02  1.14912E+03  2.09740E+02  1.51259E+03  2.83296E+03  1.54287E+03  2.73483E+03
 -1.45676E+03  4.22307E+03 -3.56861E+03  5.05702E+03 -5.49772E+03  9.03804E+02 -5.13236E+03 -1.63223E+03
 -2.17219E+03 -5.00116E+03  6.13693E+02 -5.63177E+03  3.87864E+03 -3.80403E+03  4.55301E+03 -8.03619E+02
  3.46965E+03  1.75225E+03  1.81388E+03  3.12363E+03 -1.27164E+03  1.69346E+03 -2.19947E+03  6.33778E+02
 -1.37305E+03 -3.12224E+03  2.47365E+03 -2.02383E+03  1.39477E+03 -1.81189E+03  3.00828E+03  8.49994E+02
  1.63767E+03  1.37738E+03  1.71538E+03 -5.04674E+01 -1.98038E+03  6.17993E+02  1.81889E+03  1.05292E+03
  2.44676E+02 -2.80645E+01  2.37045E+03  1.25929E+03  1.96310E+02  3.01663E+03 -1.06892E+03  3.62090E+03
 -2.23024E+03  2.84065E+03 -3.38024E+03  3.61378E+02 -2.44456E+03 -7.07459E+02  1.94420E+02 -1.37742E+03
  5.35975E+02 -1.14572E+03  1.88008E+03 -1.16608E+03  1.09116E+03  8.01729E+02 -8.27422E+02  1.59272E+03
 -2.04959E+03  1.35689E+03 -2.01364E+03 -4.42063E+02 -1.05151E+02 -2.55982E+03  4.76614E+02 -1.95728E+03
  1.30257E+03 -1.08681E+03  1.36020E+03  2.95412E+02  2.16353E+03  5.59950E+02  1.06922E+03  1.49201E+03
 -1.04406E+03  1.04254E+03 -5.42162E+02 -1.64397E+03  5.59333E+02 -8.80547E+02  1.92224E+03 -1.36749E+03
  1.63878E+03  2.92387E+02  2.93100E+03  1.58154E+03  6.21015E+02  2.19076E+03 -5.52916E+02  3.65290E+03
 -2.13569E+03  9.43939E+02 -2.27519E+03 -1.97885E+02 -5.22827E+02 -1.69922E+03  1.13794E+02 -5.89009E+02
  2.59027E+03 -1.02612E+03  1.50524E+03  6.90713E+02  7.46645E+02  1.90654E+03 -5.76196E+02  1.11351E+03
  6.77608E+02  9.39774E+02 -1.32823E+03  6.87135E+02  4.61596E+02 -1.49314E+02  4.37524E+02 -6.50785E+01
 -3.21343E+02  1.11396E+03 -2.12363E+03  1.78623E+03 -2.88140E+03  1.18209E+03 -2.57550E+03 -1.98830E+03
 -1.42618E+03 -3.38421E+03  1.31558E+03 -4.96341E+03  2.82251E+03 -3.85846E+03  5.62391E+03 -1.97260E+03
  4.44224E+03  1.71046E+02  2.76270E+03  2.73020E+03  6.60864E+02  2.99119E+03 -5.12659E+02  2.69793E+03
 -1.35589E+03  1.78136E+03  8.87337E+01 -2.03198E+03 -8.26335E+02 -1.72034E+03 -1.39691E+02  7.32727E+02
 -1.60333E+03  1.63695E+02 -1.37906E+03  5.56400E+02  4.56988E+02  8.23020E+02 -1.63731E+01 -2.33941E+03
  3.12237E+03 -9.92920E+02  1.36673E+03  7.25503E+02  1.69255E+03  1.99818E+03 -6.89062E+02  2.86333E+03
 -1.24844E+03  3.19910E+03 -1.29411E+03  1.70650E+03 -2.54518E+03 -6.09509E+02 -1.65062E+03 -2.31417E+03
 -9.73606E+02 -2.10497E+03  1.57349E+03 -1.67090E+03  1.20036E+03 -7.07893E+02  1.19465E+03  3.54876E+02
  1.79526E+03  1.15620E+03 -6.52627E+02  8.79903E+02 -1.17654E+02 -5.03198E+02 -4.01204E+02 -3.16012E+02
  6.09000E+02 -5.90054E+02  1.75398E+03  5.80849E+02  8.96317E+02  1.64891E+03  1.86609E+02  3.22220E+02
 -5.41843E+02  9.48173E+01 -2.08847E+03  4.56092E+02 -1.14924E+03 -2.11559E+02  1.85107E+02 -1.81375E+03
  1.05695E+03 -8.09824E+02  3.15331E+02 -1.88866E+02  1.75237E+03 -5.52968E+01  1.35624E+02  9.77028E+02
  2.75372E+02  1.25554E+03 -3.54869E+02  3.93985E+02 -3.43921E+02  7.93450E+02 -7.66341E+02 -4.93866E+02
 -1.83567E+03 -1.45953E+03 -1.77513E+03  1.67016E+02 -1.31499E+03 -2.36383E+02 -5.65150E+02 -2.79442E+02
 -1.45469E+03  3.03685E+02  3.01495E+02 -2.04475E+03  5.32848E+02 -1.03121E+03  1.71744E+03 -2.42973E+02
  1.27890E+03  5.95791E+01  8.32935E+02  1.48719E+03 -3.24660E+02  1.59138E+03 -8.53413E+02  7.69991E+02
