 $NMID ID='MM_0lb_SNR200_11hz_g55_19.RAW', FMTDAT='(8E13.5)'
 TRAMP=1., VOLUME=1. $END
  3.10350E+05  1.86590E+02  3.39141E+05  2.50987E+05  8.40678E+04  3.37396E+05 -1.32758E+05  2.52160E+05
 -1.90223E+05  8.44898E+04 -1.12557E+05 -3.23357E+04  2.61592E+02 -5.19022E+04  5.37644E+04 -5.48638E+02
  3.61303E+04  5.24147E+04 -1.74077E+04  7.53251E+04 -6.15701E+04  6.33645E+04 -8.51778E+04  3.20013E+04
 -8.23219E+04 -1.15992E+04 -5.73158E+04 -5.26794E+04 -1.64184E+04 -7.06955E+04  2.87958E+04 -4.55543E+04
  4.06188E+04  4.61954E+03  1.62461E+04  4.81786E+04 -3.32012E+04  4.83561E+04 -6.68915E+04 -8.25440E+02
 -5.51467E+04 -5.75281E+04 -7.16367E+03 -7.77081E+04  3.33777E+04 -5.55915E+04  4.91890E+04 -1.90745E+04
  4.36542E+04  1.11512E+04  3.19491E+04  2.59892E+04  1.55534E+04  3.08428E+04 -4.22908E+03  2.62807E+04
 -2.36022E+04  1.04861E+04 -1.82036E+04 -7.61698E+03  6.28812E+03 -6.73857E+03  2.29525E+04  1.17065E+04
  6.12010E+03  3.72015E+04 -3.27130E+04  3.74347E+04 -6.58869E+04  2.78528E+03 -5.82860E+04 -4.44667E+04
 -1.21718E+04 -6.54879E+04  4.08880E+04 -4.64769E+04  6.11074E+04 -2.43126E+03  3.53086E+04  3.43864E+04
 -4.79834E+03  3.84035E+04 -3.14201E+04  1.86311E+04 -3.23307E+04 -5.38588E+03 -1.92501E+04 -1.19831E+04
 -8.16140E+03 -1.48279E+04 -3.43633E+02 -1.89454E+04  1.05356E+04 -2.42256E+04  1.62467E+04 -1.26417E+04
  9.23902E+03  5.39765E+03 -9.82441E+03  1.27208E+04 -2.29609E+04 -5.82208E+03 -8.56467E+03 -3.61808E+04
  2.29406E+04 -4.58953E+04  5.30881E+04 -1.96860E+04  4.81348E+04  2.05007E+04  1.63862E+04  4.61443E+04
 -1.66323E+04  3.45911E+04 -2.70981E+04  1.43438E+03 -9.73983E+03 -2.87793E+04  2.03687E+04 -3.66272E+04
  4.32010E+04 -1.08262E+04  3.86040E+04  2.41734E+04  2.00398E+04  5.02416E+04 -8.47102E+03  5.40386E+04
 -3.46379E+04  3.75049E+04 -4.53547E+04  1.14715E+04 -4.51170E+04 -1.70471E+04 -2.59259E+04 -3.94093E+04
  7.38723E+03 -4.13761E+04  3.42911E+04 -1.62843E+04  3.11992E+04  1.17539E+04  4.38351E+03  2.06079E+04
 -1.32917E+04  9.17879E+03 -1.09342E+04 -6.90467E+03  6.90177E+03 -1.10858E+04  1.78911E+04  6.97028E+03
  1.36769E+04  2.30804E+04 -6.14087E+03  2.72876E+04 -2.33248E+04  1.39918E+04 -3.06395E+04 -3.68346E+03
 -2.46739E+04 -1.81455E+04 -1.02635E+04 -2.37240E+04  3.57480E+03 -2.31624E+04  1.96193E+04 -2.13860E+04
  3.07534E+04 -1.49110E+04  3.70087E+04  4.12914E+03  2.58927E+04  2.25538E+04  4.13273E+03  4.04533E+04
 -1.94896E+04  3.36355E+04 -2.93937E+04  1.17834E+04 -2.22299E+04 -1.04066E+04 -4.89279E+03 -1.36526E+04
  5.40060E+02 -2.22611E+03 -7.78732E+03  9.06741E+03 -1.93437E+04  3.77974E+03 -1.78011E+04 -8.33126E+03
 -9.74222E+03 -2.32050E+04  4.48691E+03 -2.64473E+04  1.84692E+04 -1.93919E+04  2.13901E+04 -2.74543E+03
  1.36551E+04  1.59449E+04  1.26611E+02  2.20901E+04 -1.55690E+04  1.26743E+04 -2.28352E+04 -4.85816E+03
 -1.58740E+04 -1.88785E+04 -1.70773E+03 -2.65760E+04  1.23024E+04 -2.28339E+04  2.21543E+04 -1.12461E+04
  2.09187E+04 -1.86366E+02  1.50641E+04  5.34494E+03  6.76295E+03  1.71814E+03  1.25434E+04 -1.60177E+03
  2.04467E+04  3.24594E+03  2.44341E+04  1.75196E+04  1.61271E+04  3.59584E+04 -3.42642E+03  4.18912E+04
 -2.47614E+04  3.38455E+04 -3.84091E+04  1.82789E+04 -4.20269E+04 -2.76300E+03 -3.37440E+04 -2.21815E+04
 -1.34781E+04 -3.54516E+04  1.17269E+04 -3.03230E+04  2.65790E+04 -1.38913E+04  2.33813E+04  7.71658E+03
  7.12771E+03  1.61575E+04 -1.09458E+04  1.56102E+04 -1.79520E+04  3.94389E+03 -1.53003E+04 -1.04494E+04
 -1.08700E+03 -1.64963E+04  9.23748E+03 -1.31551E+04  1.20008E+04 -5.96765E+02  2.84066E+03  7.37858E+03
 -8.90578E+03  4.00294E+03 -9.15059E+03 -7.26660E+03 -6.24132E+02 -1.64405E+04  1.13366E+04 -1.81438E+04
  1.98691E+04 -9.82101E+03  2.25440E+04  3.44682E+03  2.14300E+04  1.50761E+04  9.97140E+03  2.55848E+04
 -4.56665E+03  2.91151E+04 -1.76897E+04  1.86245E+04 -1.97305E+04  4.80610E+03 -1.44451E+04 -4.98631E+03
 -6.45276E+03 -6.51420E+03 -2.34270E+02 -1.78519E+01 -2.68559E+03  2.47123E+03 -6.03311E+03  5.40425E+03
 -1.21562E+04 -3.00505E+02 -1.33034E+04 -1.04901E+04 -5.50444E+03 -1.72667E+04  6.61021E+03 -1.42457E+04
  1.18361E+04 -6.18287E+03  8.91070E+03  3.24976E+03 -3.73203E+02  5.04661E+03 -7.12660E+03 -1.08491E+02
 -7.59796E+03 -8.69744E+03 -9.06031E+02 -1.31605E+04  7.81036E+03 -1.53897E+04  1.81411E+04 -7.26188E+03
  2.13864E+04  1.09078E+03  1.41910E+04  1.26672E+04  3.27287E+03  1.57651E+04 -8.45845E+03  1.32484E+04
 -1.25998E+04  4.40761E+03 -6.81514E+03 -1.72106E+03  1.52617E+03 -4.58352E+03  7.06887E+03 -1.11226E+03
  6.27004E+03  5.72528E+03  3.85690E+02  1.26985E+04 -7.78822E+03  1.20024E+04 -1.39750E+04  2.05645E+03
 -8.53538E+03 -6.69648E+03 -4.93368E+02 -1.23904E+04  9.52181E+03 -5.35023E+03  7.73853E+03  2.08394E+03
  4.58993E+02  8.42840E+03 -7.29951E+03  9.44706E+03 -1.14570E+04  4.83622E+03 -1.16677E+04 -4.89770E+03
 -5.64580E+03 -1.34846E+04  2.28371E+03 -1.63443E+04  1.30543E+04 -1.00863E+04  1.50085E+04  2.65053E+03
  8.64331E+03  1.28706E+04 -1.35133E+03  1.46850E+04 -1.03626E+04  7.96295E+03 -1.18950E+04 -1.78448E+03
 -1.06689E+04 -9.19962E+03 -1.21546E+03 -1.02207E+04  5.83439E+03 -8.86725E+03  5.56825E+03 -5.03440E+03
  5.89132E+03  7.12370E+02 -2.67874E+02  5.34805E+02  1.06025E+03 -2.05797E+03  2.85709E+03 -5.76857E+03
  9.98691E+03 -3.19461E+03  1.41272E+04  6.53833E+02  1.30513E+04  1.06430E+04  8.15089E+03  1.72157E+04
 -4.28114E+03  2.09223E+04 -1.67790E+04  1.58394E+04 -2.36936E+04  3.37951E+03 -1.74555E+04 -9.16893E+03
 -8.46043E+03 -1.47394E+04 -1.09573E+03 -1.19320E+04  5.09855E+03 -8.18108E+03  4.17540E+03 -6.29985E+03
  2.97896E+03 -2.58596E+03  4.04983E+03 -2.92098E+03  6.18354E+03 -1.73584E+03  6.74169E+03 -2.29028E+03
  8.80682E+03  1.09531E+03  4.10802E+03  8.75783E+03 -2.49814E+03  9.48093E+03 -9.61073E+03  7.94847E+03
 -1.19385E+04 -9.13236E+02 -7.92047E+03 -8.20572E+03  7.31342E+02 -1.26335E+04  7.47850E+03 -1.39412E+04
  1.37914E+04 -7.23069E+03  1.73209E+04  1.65348E+03  1.02934E+04  9.93984E+03  8.75511E+02  1.59796E+04
 -6.39471E+03  1.25771E+04 -8.93926E+03  2.60981E+03 -5.43339E+03 -6.76990E+02 -2.66883E+03 -8.04408E+02
 -1.00835E+03  1.70225E+03 -2.04951E+03  2.48820E+03 -5.38903E+03  1.74209E+03 -8.23535E+03 -3.54758E+02
 -5.89912E+03 -8.69700E+03 -8.36528E+02 -1.19738E+04  8.15259E+03 -1.28506E+04  1.13995E+04 -3.74995E+03
  1.14138E+04  5.30083E+03  5.05022E+03  1.16553E+04 -3.34087E+03  1.23551E+04 -9.07699E+03  7.53407E+03
 -1.17745E+04 -7.22552E+02 -7.59821E+03 -8.60682E+03 -1.46227E+03 -1.00479E+04  5.62058E+03 -6.30548E+03
  7.08899E+03 -2.99581E+03  5.83404E+03  2.48976E+03  9.90521E+02  2.84886E+03  1.61262E+03  5.39181E+02
  2.43148E+03  5.59655E+02  4.11106E+03  1.93450E+03  3.53432E+03  3.08138E+03  2.72825E+03  7.00801E+03
 -9.27049E+02  1.11280E+04 -8.25704E+03  9.69543E+03 -1.28208E+04  2.66700E+03 -1.26075E+04 -4.77042E+03
 -4.98883E+03 -1.15353E+04  9.98655E+02 -1.21686E+04  6.44993E+03 -9.05418E+03  1.00659E+04 -1.78604E+03
  8.15235E+03  4.25752E+03  9.67476E+02  7.10499E+03 -4.21744E+03  5.51886E+03 -4.36699E+03 -6.65709E+02
 -2.19163E+03 -5.54699E+03  2.07160E+03 -5.00548E+03  5.14177E+03 -2.36338E+03  5.16764E+03  2.11383E+03
  2.02024E+03  2.44712E+03  8.40431E+02  7.82300E+02 -4.97641E+02  3.08010E+03  3.13104E+03 -3.85805E+02
  2.64518E+03 -3.27386E+02  5.18881E+03  2.48350E+03  1.09221E+03  6.28139E+03 -7.10385E+02  8.17842E+03
 -5.20764E+03  5.05481E+03 -9.21626E+03  1.36403E+03 -7.41860E+03 -1.89816E+03 -8.51083E+02 -6.06111E+03
  1.50129E+03 -5.38530E+03  3.47178E+03 -1.71717E+03  2.16618E+03  3.29718E+03 -1.98101E+03  2.75329E+03
 -4.17650E+03  3.31080E+03 -5.72314E+03 -2.88780E+03 -2.49435E+03 -7.10802E+03  2.50854E+03 -5.78031E+03
  4.33453E+03 -2.99608E+03  4.16371E+03 -1.64668E+03  3.36972E+03  2.75995E+02  1.28177E+01  2.39918E+03
 -3.18547E+03  1.03504E+03 -2.48903E+03  1.85103E+01  1.24335E+03 -4.40344E+03  5.69192E+03 -3.64933E+03
  6.63336E+03  5.50642E+02  7.50798E+03  4.88459E+03  1.85526E+03  6.68813E+03 -3.63050E+03  7.05268E+03
 -7.40980E+03  2.67223E+03 -6.15388E+03 -1.17679E+03 -4.63303E+03 -4.36412E+03  6.03352E+02 -4.50873E+03
  4.36571E+03 -2.90937E+03  3.58915E+03  1.78279E+03  2.91352E+02  3.71374E+03 -1.94432E+02  3.37780E+03
 -9.48294E+02  2.73101E+03 -2.53789E+01 -2.03533E+03  9.91436E+02  1.26984E+03 -1.19988E+03  1.64290E+03
 -2.22345E+03  2.86247E+03 -5.08642E+03  2.63188E+03 -6.57112E+03 -1.04977E+02 -7.36022E+03 -6.08538E+03
 -6.10796E+03 -1.01991E+04  2.38127E+03 -1.13301E+04  7.31599E+03 -1.00908E+04  1.09756E+04 -3.32057E+03
  1.04838E+04  9.77598E+02  6.53979E+03  6.86021E+03  4.20573E+02  7.32988E+03 -3.34047E+03  7.00570E+03
 -2.88688E+03  1.75212E+03 -2.07849E+03 -1.23704E+03 -1.03382E+03 -1.56290E+03 -8.37742E+02  1.53569E+03
 -2.28391E+03 -1.08743E+03 -1.88712E+03  5.69779E+02 -3.48246E+02 -2.82309E+03 -4.35688E+02 -2.46258E+03
  3.46357E+03 -1.86214E+03  3.82503E+03  1.18838E+03  6.13311E+03  4.70270E+03  9.15292E+02  9.43849E+03
 -3.08761E+03  8.89595E+03 -7.33827E+03  4.76256E+03 -1.03751E+04 -2.54613E+03 -6.16894E+03 -5.00309E+03
 -2.52623E+03 -7.81813E+03  8.93540E+02 -6.38702E+03  5.01760E+03 -5.30047E+03  4.48947E+03  1.24732E+01
  2.67249E+03  1.63139E+03  2.23138E+02  2.40197E+03 -7.57873E+02  3.69623E+02  1.45071E+02 -3.24037E+03
  2.18704E+03 -1.38968E+03  2.80965E+03  1.74016E+03  1.67224E+03  4.09755E+03  1.03897E+03  3.75382E+03
 -2.71710E+03  2.35573E+03 -4.18457E+03  5.27298E+02 -4.16802E+03 -2.98941E+03 -1.67644E+03 -5.90830E+03
  3.70134E+03 -3.44291E+03  4.51521E+03 -1.25962E+03  5.28496E+03 -2.57589E+02  2.65780E+03  4.68653E+03
  5.31409E+01  4.77984E+03 -2.48804E+03  4.28487E+03 -3.89315E+03  1.67824E+03 -1.14576E+03 -2.26121E+02
 -4.14052E+03 -1.20027E+03 -2.21528E+03  1.26565E+03 -1.33292E+03  9.09767E+02 -2.95998E+03  8.98859E+02
 -4.19702E+03 -3.36493E+03 -1.91227E+03 -4.16116E+03  2.43669E+03 -4.75279E+03  3.78057E+03 -6.51929E+02
  4.15063E+03 -1.43705E+02  1.79619E+03  2.67484E+03 -2.39001E+02  4.26914E+03 -2.00641E+03  3.34229E+03
