 $NMID ID='MM_0lb_SNR200_11hz_g55_58.RAW', FMTDAT='(8E13.5)'
 TRAMP=1., VOLUME=1. $END
  3.07909E+05  5.33580E+02  3.37574E+05  2.49140E+05  8.57968E+04  3.37832E+05 -1.31966E+05  2.52941E+05
 -1.89274E+05  8.40105E+04 -1.12771E+05 -3.25718E+04  7.08300E+02 -5.04336E+04  5.32185E+04  1.38598E+03
  3.59406E+04  5.41506E+04 -1.72920E+04  7.53862E+04 -6.04167E+04  6.35278E+04 -8.52694E+04  3.15161E+04
 -8.16011E+04 -1.14181E+04 -5.89390E+04 -5.32400E+04 -1.52944E+04 -7.01897E+04  2.94283E+04 -4.65585E+04
  3.99828E+04  2.47147E+03  1.60113E+04  5.05670E+04 -3.39464E+04  4.80781E+04 -6.74739E+04  1.42859E+03
 -5.37176E+04 -5.86378E+04 -7.01112E+03 -7.79548E+04  3.56157E+04 -5.57565E+04  4.84855E+04 -1.75155E+04
  4.61297E+04  1.20613E+04  3.34789E+04  2.62900E+04  1.66542E+04  2.96082E+04 -4.69781E+03  2.80849E+04
 -2.13485E+04  1.26095E+04 -1.77153E+04 -4.35891E+03  8.11576E+03 -5.91483E+03  2.39122E+04  1.38780E+04
  6.91019E+03  3.77324E+04 -3.45486E+04  3.61843E+04 -6.58563E+04  2.77631E+03 -5.80332E+04 -4.40092E+04
 -1.27677E+04 -6.44198E+04  4.18562E+04 -4.57074E+04  6.03124E+04 -1.55333E+03  3.71671E+04  3.39557E+04
 -5.76559E+03  3.83231E+04 -3.09543E+04  1.64070E+04 -3.19082E+04 -3.55244E+03 -1.88241E+04 -1.10938E+04
 -8.01015E+03 -1.49200E+04 -2.24476E+02 -1.96129E+04  8.60640E+03 -2.49720E+04  1.58855E+04 -1.25740E+04
  9.68006E+03  7.05176E+03 -1.07230E+04  1.27347E+04 -2.18126E+04 -6.04652E+03 -1.01323E+04 -3.66127E+04
  2.38827E+04 -4.75617E+04  5.14725E+04 -1.98404E+04  4.77352E+04  1.96336E+04  1.62074E+04  4.65691E+04
 -1.58670E+04  3.54788E+04 -2.83314E+04  2.32544E+03 -1.11336E+04 -3.03267E+04  2.09730E+04 -3.53931E+04
  4.42772E+04 -1.13450E+04  3.89155E+04  2.52171E+04  2.11045E+04  4.96232E+04 -5.97233E+03  5.56312E+04
 -3.49884E+04  3.73548E+04 -4.68724E+04  1.03566E+04 -4.69227E+04 -1.95066E+04 -2.56896E+04 -4.17199E+04
  7.41166E+03 -4.15844E+04  3.47229E+04 -1.55519E+04  3.14805E+04  1.09973E+04  4.80368E+03  1.93090E+04
 -1.39442E+04  1.15126E+04 -1.10106E+04 -7.12019E+03  4.97851E+03 -1.04850E+04  1.83910E+04  6.66128E+03
  1.50666E+04  2.20535E+04 -4.87604E+03  2.58175E+04 -2.22138E+04  1.35270E+04 -3.14029E+04 -3.79725E+03
 -2.52240E+04 -1.73517E+04 -1.00597E+04 -2.28343E+04  3.88349E+03 -2.51192E+04  1.94975E+04 -2.16405E+04
  3.07072E+04 -1.31567E+04  3.68088E+04  4.07682E+03  2.52942E+04  2.28504E+04  3.88274E+03  3.90177E+04
 -1.80275E+04  3.25160E+04 -2.90783E+04  1.11967E+04 -2.34308E+04 -1.13829E+04 -4.26535E+03 -1.31991E+04
  1.11851E+03 -2.18367E+03 -6.83674E+03  7.24376E+03 -1.84396E+04  5.42480E+03 -1.94634E+04 -1.00290E+04
 -1.26898E+04 -2.10698E+04  6.14450E+03 -2.72103E+04  1.83797E+04 -1.82012E+04  2.20229E+04 -3.09853E+03
  1.32033E+04  1.53595E+04 -3.74507E+02  2.28651E+04 -1.52823E+04  1.23434E+04 -2.08847E+04 -4.20161E+03
 -1.57019E+04 -2.08798E+04 -1.91689E+03 -2.55501E+04  1.28120E+04 -2.16623E+04  2.20644E+04 -1.17861E+04
  2.07998E+04  5.16029E+02  1.64965E+04  6.57101E+03  9.29893E+03  2.08388E+03  1.15731E+04 -2.98687E+03
  2.06574E+04  2.61955E+03  2.36267E+04  1.71359E+04  1.56453E+04  3.56626E+04 -3.20499E+03  4.00058E+04
 -2.37482E+04  3.52466E+04 -3.79631E+04  1.63238E+04 -4.04081E+04 -2.99866E+03 -3.50038E+04 -2.42766E+04
 -1.52524E+04 -3.43134E+04  1.14343E+04 -3.00315E+04  2.57403E+04 -1.55698E+04  2.28253E+04  7.32549E+03
  8.00843E+03  1.80236E+04 -9.99898E+03  1.52238E+04 -1.81937E+04  1.26435E+03 -1.48408E+04 -1.31621E+04
 -3.38807E+02 -1.71571E+04  8.55875E+03 -1.39141E+04  1.22966E+04 -1.15004E+03  4.00683E+03  8.10408E+03
 -7.98683E+03  4.25495E+03 -7.43346E+03 -6.59846E+03 -9.00283E+02 -1.69601E+04  9.98026E+03 -1.95776E+04
  2.05649E+04 -9.83759E+03  2.20509E+04  5.05054E+03  2.02838E+04  1.59606E+04  9.26209E+03  2.59949E+04
 -4.48577E+03  2.81536E+04 -1.86610E+04  1.73687E+04 -2.04307E+04  4.35187E+03 -1.40434E+04 -4.98610E+03
 -6.31181E+03 -6.73572E+03 -8.37623E+02  6.80127E+02 -3.11744E+03  4.07358E+03 -6.89455E+03  5.31792E+03
 -1.29827E+04 -1.21770E+02 -1.26987E+04 -1.08121E+04 -5.76930E+03 -1.84348E+04  5.23228E+03 -1.38028E+04
  1.20973E+04 -5.11782E+03  8.73221E+03  3.47675E+03 -6.21648E+02  5.54418E+03 -6.85319E+03 -1.30270E+03
 -5.74902E+03 -8.90352E+03 -1.64293E+03 -1.47385E+04  7.59896E+03 -1.46692E+04  1.95766E+04 -6.40170E+03
  1.98620E+04  8.80145E+02  1.56779E+04  1.31090E+04  2.88619E+03  1.65914E+04 -8.40452E+03  1.28299E+04
 -1.15293E+04  3.52987E+03 -5.25273E+03 -2.31227E+03  2.56436E+03 -2.73596E+03  7.93172E+03 -2.89101E+02
  7.18771E+03  6.19666E+03  2.06461E+03  1.13316E+04 -7.69050E+03  1.08274E+04 -1.44701E+04  1.60527E+03
 -9.61690E+03 -7.78354E+03 -7.24487E+02 -1.16459E+04  8.26998E+03 -6.26350E+03  8.06561E+03  2.09425E+03
  1.32176E+03  8.03539E+03 -7.12549E+03  1.04830E+04 -1.12069E+04  4.32947E+03 -1.10836E+04 -3.14966E+03
 -6.51710E+03 -1.41150E+04  3.34439E+03 -1.50533E+04  1.27388E+04 -1.11940E+04  1.30320E+04  2.59177E+03
  9.21455E+03  1.21782E+04 -1.13230E+03  1.28229E+04 -9.67266E+03  8.67661E+03 -9.91153E+03 -2.08942E+03
 -1.07361E+04 -8.85932E+03 -2.02084E+03 -1.02530E+04  4.57243E+03 -7.80544E+03  7.75605E+03 -3.70265E+03
  4.83975E+03  1.32930E+03 -1.67221E+03  7.23505E+02  6.05191E+02 -2.53852E+03  2.10682E+03 -6.39619E+03
  9.78630E+03 -4.89845E+03  1.33551E+04  3.01212E+03  1.26219E+04  9.49050E+03  9.47851E+03  1.78484E+04
 -3.68058E+03  2.07045E+04 -1.78050E+04  1.41424E+04 -2.18222E+04  2.35384E+03 -1.82748E+04 -8.07618E+03
 -1.06449E+04 -1.57836E+04 -1.15206E+03 -1.34710E+04  4.78890E+03 -6.70433E+03  3.51639E+03 -4.61858E+03
  2.65972E+03 -4.36131E+03  3.40156E+03 -3.80263E+03  6.38834E+03 -3.35717E+03  6.06359E+03 -2.56175E+02
  9.76221E+03  2.43748E+03  4.39841E+03  7.69272E+03 -2.36737E+03  1.02541E+04 -9.66830E+03  7.29737E+03
 -1.22417E+04 -5.73227E+02 -8.55517E+03 -8.75432E+03 -1.42889E+03 -1.37698E+04  7.76892E+03 -1.42740E+04
  1.53174E+04 -7.15507E+03  1.73878E+04  1.41283E+03  1.16881E+04  1.22227E+04  3.48323E+03  1.43919E+04
 -4.44242E+03  1.24374E+04 -8.83785E+03  4.26282E+03 -6.65048E+03 -2.33627E+03 -2.78683E+03 -1.99429E+03
 -8.72585E+02 -4.43992E+02 -1.75266E+03  1.78504E+03 -5.84495E+03 -3.27577E+01 -7.18085E+03 -1.07537E+03
 -4.73251E+03 -9.08558E+03 -1.37594E+02 -1.22908E+04  9.22645E+03 -1.26273E+04  1.16241E+04 -1.97560E+03
  1.14128E+04  6.89384E+03  4.73088E+03  9.94399E+03 -1.41053E+03  1.27352E+04 -9.52479E+03  7.30473E+03
 -1.07906E+04  5.57679E+02 -1.02309E+04 -7.62946E+03 -1.82715E+03 -9.29277E+03  4.47614E+03 -7.17213E+03
  7.77435E+03 -1.36185E+03  5.49383E+03  2.65040E+03  2.02346E+03  2.57484E+03  2.68735E+02  1.81105E+03
  3.24580E+03  4.95078E+02  3.09038E+03  9.90823E+02  6.62924E+02  4.96704E+03  3.93395E+03  6.80930E+03
 -2.29368E+03  9.59400E+03 -8.54829E+03  9.05072E+03 -1.11267E+04  1.63599E+03 -1.21770E+04 -5.46593E+03
 -5.63387E+03 -1.20037E+04  2.02892E+03 -1.26547E+04  7.56921E+03 -9.84583E+03  9.87464E+03 -2.53164E+03
  8.41402E+03  4.52804E+03  3.10619E+03  6.53083E+03 -4.15735E+03  4.87679E+03 -6.16684E+03 -1.24132E+03
 -2.81694E+03 -4.81032E+03  2.19506E+03 -5.50434E+03  5.90783E+03 -2.86436E+03  4.90051E+03  2.31374E+03
  3.31704E+03  4.31972E+03  9.22693E+02  7.76733E+02 -1.79346E+03  1.06314E+02  1.29159E+03  1.02627E+03
  1.65871E+03 -1.13333E+03  4.69055E+03  1.84115E+03  2.50972E+03  6.14483E+03 -1.96048E+03  8.67289E+03
 -5.42914E+03  5.79828E+03 -8.29066E+03  2.40202E+03 -8.00165E+03 -1.45971E+03 -1.64838E+03 -3.78556E+03
  5.44401E+02 -5.79355E+03  2.98279E+03 -3.21481E+03  2.92377E+03  2.90246E+03  4.73030E+02  4.42541E+03
 -5.56408E+03  2.80210E+03 -5.31757E+03 -4.30835E+03 -2.82903E+03 -6.60956E+03  7.83535E+02 -5.44852E+03
  4.56702E+03 -5.21723E+03  4.02630E+03 -4.07200E+02  3.68980E+03  2.73511E+03 -8.60679E+01  4.89517E+03
 -1.70202E+03  1.02680E+03 -2.05834E+03 -2.13202E+03  1.58194E+03 -3.93343E+03  5.61640E+03 -3.55513E+03
  7.41597E+03  4.15287E+02  7.06626E+03  4.77703E+03  2.16422E+03  7.36063E+03 -2.81893E+03  7.34290E+03
 -5.94194E+03  3.06661E+03 -6.01861E+03 -1.33666E+03 -3.27556E+03 -4.99881E+03  1.01030E+03 -4.92901E+03
  4.17632E+03 -1.41397E+03  4.36494E+03  1.37992E+03  1.36828E+03  4.77274E+03  3.93754E+02  3.78105E+03
 -5.31462E+02  4.15473E+03 -1.32534E+03  1.22250E+03 -7.54083E+01  8.39167E+01 -1.19501E+03  9.91561E+02
 -3.48710E+03  1.93329E+03 -4.94586E+03  3.82416E+03 -5.65321E+03 -6.24476E+01 -7.79153E+03 -5.45642E+03
 -4.96916E+03 -9.59151E+03  1.73943E+03 -1.14376E+04  6.69356E+03 -9.02675E+03  9.70766E+03 -4.18746E+03
  1.08052E+04  1.59076E+03  5.67195E+03  7.04253E+03  1.78584E+03  7.37089E+03 -2.56378E+03  5.55543E+03
 -5.40991E+03  1.57817E+03 -1.75959E+03 -1.11576E+03 -1.30115E+03 -1.66731E+03 -1.29557E+03  1.20033E+03
 -1.14533E+03 -4.96509E+02 -2.29870E+03 -1.02949E+03 -1.88013E+03 -2.31270E+03  2.26752E+02 -3.05907E+03
  3.36530E+03 -1.28222E+03  6.17893E+03  6.37776E+02  7.56119E+03  5.99972E+03  1.15554E+03  7.27909E+03
 -4.07915E+03  8.77752E+03 -7.68007E+03  4.82273E+03 -9.62408E+03 -9.48721E+02 -6.15101E+03 -3.97975E+03
 -2.62724E+03 -7.59474E+03  1.89386E+03 -5.87764E+03  4.29192E+03 -3.59781E+03  4.64059E+03  7.60979E+02
  2.43727E+03  2.53621E+03 -3.84659E+02  1.99160E+03  3.83514E+02  5.95476E+02 -3.09104E+01 -1.74086E+03
  1.36121E+03  6.91616E+02  1.12975E+03  9.82105E+02  1.56921E+03  2.40745E+03 -7.23887E+02  4.10856E+03
 -2.86023E+03  4.66176E+03 -3.97902E+03  8.39956E+02 -4.03151E+03 -2.52381E+03 -1.59708E+03 -7.84356E+03
  4.12353E+03 -4.71191E+03  6.15118E+03 -1.55860E+03  5.86563E+03 -4.70675E+02  2.34505E+03  3.32283E+03
  1.06436E+03  3.81280E+03 -2.92012E+03  3.43088E+03 -3.08394E+03  2.41185E+03 -1.53016E+03 -4.22516E+02
 -1.56899E+03 -2.01762E+02 -1.68139E+03  1.18597E+03 -2.60217E+03  1.05761E+02 -3.70445E+03 -1.72664E+03
 -3.52023E+03 -3.55960E+03 -1.07876E+03 -4.12608E+03  1.90491E+03 -6.01173E+03  5.14451E+03 -1.61501E+03
  4.32572E+03  7.59601E+01  1.34246E+03  2.11121E+03 -1.67260E+03  4.44810E+03 -5.42020E+03  2.35574E+03
