 $NMID ID='MM_0lb_SNR200_15hz_g40_5.RAW', FMTDAT='(8E13.5)'
 TRAMP=1., VOLUME=1. $END
  3.10227E+05  8.02682E+02  3.37322E+05  2.50841E+05  8.46970E+04  3.36683E+05 -1.32255E+05  2.49546E+05
 -1.89728E+05  8.34165E+04 -1.11122E+05 -3.22276E+04  1.09035E+03 -5.13209E+04  5.43190E+04  2.40375E+02
  3.42188E+04  5.31198E+04 -1.73250E+04  7.54874E+04 -6.03347E+04  6.32650E+04 -8.24728E+04  3.25316E+04
 -7.99037E+04 -1.19679E+04 -5.70047E+04 -5.05879E+04 -1.54795E+04 -6.90271E+04  2.71535E+04 -4.50439E+04
  3.97385E+04  3.75694E+03  1.48020E+04  4.72141E+04 -3.41656E+04  4.72145E+04 -6.59675E+04  5.29881E+02
 -5.30354E+04 -5.61762E+04 -6.40559E+03 -7.56480E+04  3.43319E+04 -5.37621E+04  4.77834E+04 -1.63787E+04
  4.36306E+04  1.03072E+04  3.14725E+04  2.36660E+04  1.58281E+04  2.86562E+04 -5.06552E+03  2.71256E+04
 -2.07742E+04  1.16900E+04 -1.80277E+04 -4.67930E+03  3.92677E+03 -7.13156E+03  2.06940E+04  1.15102E+04
  6.54150E+03  3.35714E+04 -3.11614E+04  3.52731E+04 -6.25009E+04  2.86579E+03 -5.79828E+04 -4.18917E+04
 -1.15876E+04 -6.11802E+04  3.81239E+04 -4.41654E+04  5.67620E+04 -1.38701E+03  3.25520E+04  3.12298E+04
 -6.95505E+03  3.47458E+04 -3.01246E+04  1.51510E+04 -2.84481E+04 -4.24656E+03 -1.72238E+04 -1.00314E+04
 -8.05982E+03 -1.34248E+04 -3.29175E+02 -1.70914E+04  8.96021E+03 -2.24086E+04  1.52772E+04 -1.36854E+04
  1.01677E+04  4.22430E+03 -7.28730E+03  1.34589E+04 -1.96317E+04 -3.28307E+03 -8.29965E+03 -3.25594E+04
  2.26771E+04 -4.26361E+04  4.69392E+04 -1.86597E+04  4.25317E+04  1.81828E+04  1.56397E+04  4.37283E+04
 -1.48729E+04  3.18601E+04 -2.36629E+04  1.14497E+02 -9.70310E+03 -2.72164E+04  2.11759E+04 -3.37298E+04
  4.00637E+04 -8.09114E+03  3.51244E+04  2.30871E+04  1.79291E+04  4.52817E+04 -8.12858E+03  4.72145E+04
 -3.07115E+04  3.22331E+04 -3.97276E+04  9.44821E+03 -4.10945E+04 -1.52253E+04 -2.13156E+04 -3.70386E+04
  7.09374E+03 -3.56723E+04  2.98190E+04 -1.32724E+04  2.90744E+04  9.93078E+03  3.06733E+03  1.92024E+04
 -1.22348E+04  8.41060E+03 -9.01678E+03 -7.38881E+03  5.03646E+03 -1.04884E+04  1.71028E+04  6.21313E+03
  1.29643E+04  2.23877E+04 -6.15465E+03  2.33375E+04 -2.22714E+04  1.08317E+04 -2.68649E+04 -5.37476E+03
 -1.89638E+04 -1.67566E+04 -7.05801E+03 -1.89104E+04  4.52996E+03 -1.74878E+04  1.53126E+04 -1.61889E+04
  2.34998E+04 -1.25182E+04  3.01261E+04  2.35077E+03  2.28365E+04  1.84607E+04  4.48049E+03  3.40909E+04
 -1.75166E+04  2.99019E+04 -2.65921E+04  1.02394E+04 -2.00771E+04 -9.81032E+03 -5.59215E+03 -1.31152E+04
  2.27240E+03 -2.85482E+03 -3.67735E+03  6.70631E+03 -1.46714E+04  3.90223E+03 -1.33595E+04 -6.37455E+03
 -9.55119E+03 -1.66582E+04  4.78504E+03 -2.02580E+04  1.34061E+04 -1.50959E+04  1.62999E+04 -2.13136E+03
  1.04243E+04  1.20386E+04 -1.34112E+03  1.81445E+04 -1.25602E+04  9.31548E+03 -1.71479E+04 -4.03284E+03
 -1.31465E+04 -1.68432E+04 -1.61828E+03 -2.15824E+04  1.12166E+04 -1.73875E+04  1.74616E+04 -8.90992E+03
  1.58950E+04  2.72510E+02  1.20438E+04  3.47675E+03  4.88803E+03  1.27159E+03  8.51430E+03 -1.71018E+03
  1.49686E+04  3.35628E+03  1.72892E+04  1.37253E+04  1.13704E+04  2.72258E+04 -3.03306E+03  3.10722E+04
 -1.72787E+04  2.48530E+04 -2.98488E+04  1.14131E+04 -3.17701E+04 -1.12381E+03 -2.37688E+04 -1.74313E+04
 -1.20469E+04 -2.40882E+04  9.70743E+03 -2.22620E+04  1.98058E+04 -1.24436E+04  1.84724E+04  4.70971E+03
  7.77733E+03  1.37798E+04 -7.37347E+03  1.21862E+04 -1.50031E+04  2.78347E+03 -1.16447E+04 -9.38290E+03
 -5.14680E+02 -1.55133E+04  8.06613E+03 -1.06990E+04  8.26580E+03 -1.09423E+03  1.34460E+03  6.09229E+03
 -5.82265E+03  2.33756E+03 -4.10659E+03 -5.78370E+03 -2.81687E+02 -1.18025E+04  7.55894E+03 -1.34052E+04
  1.53531E+04 -6.89286E+03  1.47247E+04  2.95841E+03  1.21948E+04  1.03244E+04  6.53753E+03  1.75295E+04
 -2.26119E+03  2.00297E+04 -1.23215E+04  1.38096E+04 -1.42583E+04  3.52885E+03 -1.13246E+04 -2.26875E+03
 -4.49029E+03 -4.53236E+03 -5.19130E+02  1.38360E+03 -2.12811E+03  2.26308E+03 -3.31449E+03  4.13172E+03
 -1.02895E+04  4.16021E+02 -9.29815E+03 -8.28697E+03 -4.46627E+03 -1.40283E+04  5.16758E+03 -9.94883E+03
  8.20501E+03 -4.88901E+03  6.83833E+03  3.27935E+03 -3.28547E+02  3.53924E+03 -4.33035E+03 -6.77174E+02
 -3.51188E+03 -5.69967E+03 -1.08491E+02 -8.84795E+03  4.43525E+03 -9.09940E+03  1.26816E+04 -5.20455E+03
  1.58454E+04  1.70170E+03  1.18632E+04  7.33922E+03  1.46959E+03  1.09069E+04 -5.13893E+03  9.56912E+03
 -8.87817E+03  2.62830E+03 -5.25942E+03 -9.38192E+02  2.16141E+03 -3.21559E+03  6.30783E+03 -9.56857E+02
  6.02622E+03  3.30547E+03  9.58669E+02  8.23890E+03 -4.96584E+03  6.84166E+03 -9.94500E+03  2.54957E+03
 -5.94991E+03 -4.28449E+03  7.26440E+02 -8.91386E+03  5.35968E+03 -5.16943E+03  5.35314E+03  2.59185E+03
  2.60105E+02  5.21086E+03 -4.97561E+03  5.89121E+03 -7.80049E+03  4.35327E+03 -6.66969E+03 -1.57724E+03
 -2.96197E+03 -8.98048E+03  2.20097E+03 -9.49307E+03  8.78118E+03 -6.41672E+03  9.27059E+03  3.00943E+03
  6.88870E+03  7.11533E+03 -3.31977E+02  9.61208E+03 -6.04322E+03  5.29515E+03 -6.81074E+03 -3.30353E+01
 -6.85369E+03 -7.33774E+03 -1.19983E+03 -7.30500E+03  4.00346E+03 -4.50194E+03  2.70279E+03 -3.31261E+03
  3.12844E+03 -3.69519E+00 -2.34645E+02  4.16734E+02  8.32729E+01 -1.15589E+03  1.47200E+03 -3.29238E+03
  5.85419E+03 -1.96335E+02  8.02512E+03 -1.11730E+02  9.07596E+03  5.28353E+03  6.46920E+03  9.51204E+03
 -2.22128E+03  1.35854E+04 -1.04980E+04  1.02476E+04 -1.41351E+04  9.20416E+02 -1.04264E+04 -4.26091E+03
 -5.36154E+03 -8.54738E+03 -3.79536E+02 -7.82746E+03  1.74322E+03 -2.55878E+03  8.48373E+02 -2.02840E+03
  1.73274E+03 -1.08424E+03  2.81980E+03 -3.90851E+03  4.29208E+03 -2.11274E+03  5.17113E+03 -4.08011E+02
  4.96898E+03  1.37286E+03  3.33817E+03  4.18597E+03 -9.95073E+02  4.55831E+03 -5.57795E+03  2.59693E+03
 -8.14943E+03 -1.70249E+03 -3.58653E+03 -4.76473E+03  2.04448E+02 -7.16722E+03  4.71320E+03 -6.88538E+03
  7.95439E+03 -4.24503E+03  1.01723E+04  6.40592E+02  7.64218E+03  5.99516E+03  1.19132E+03  9.88040E+03
 -3.75044E+03  8.11797E+03 -4.48010E+03  2.67773E+03 -3.38803E+03 -8.43546E+02 -1.01829E+03 -1.11102E+03
 -1.12001E+03  5.78831E+02 -9.44334E+02  1.25827E+03 -4.01379E+03  1.90226E+03 -5.84957E+03  8.63502E+02
 -2.28406E+03 -5.05675E+03  1.16000E+03 -7.25469E+03  4.82725E+03 -7.18255E+03  6.45088E+03 -2.21609E+03
  7.01440E+03  3.10212E+03  3.98415E+03  5.54686E+03 -1.11011E+03  6.55990E+03 -4.58902E+03  4.66783E+03
 -6.07172E+03 -7.78912E+00 -5.11867E+03 -4.11383E+03  7.13933E+02 -5.73787E+03  2.99469E+03 -2.84052E+03
  4.72058E+03 -1.08619E+03  3.38845E+03  6.80287E+02 -3.19676E+02  1.73909E+03  3.85337E+02  1.49122E+03
  1.51907E+03  4.29919E+02  8.70358E+02  3.80278E+01  2.56143E+03  2.63013E+03  2.52210E+03  3.07242E+03
 -2.53236E+03  4.31381E+03 -4.70528E+03  5.99806E+03 -6.72689E+03  2.09502E+03 -7.54894E+03 -1.86246E+03
 -2.86619E+03 -5.57739E+03  7.25200E+02 -6.87371E+03  4.12058E+03 -4.82874E+03  4.92903E+03 -2.05731E+03
  5.01642E+03  3.06539E+03  1.31044E+03  4.16989E+03 -1.27362E+03  2.69544E+03 -2.66256E+03  3.95060E+02
 -1.01365E+03 -2.39310E+03  1.61968E+03 -2.90244E+03  1.94922E+03 -2.13594E+02  1.99952E+03  1.09717E+03
  1.57263E+03  2.56010E+02  1.38209E+03 -3.10697E+01  9.37206E+01  3.02068E+02  2.22002E+03  3.43194E+02
  1.26552E+03 -2.42718E+02  2.45320E+03  5.97741E+02  1.00923E+03  3.05104E+03 -4.97505E+02  6.38702E+03
 -3.05402E+03  2.39429E+03 -2.01456E+03  1.17945E+03 -4.02088E+03 -2.15906E+03 -1.49835E+03 -3.04191E+03
  7.35257E+02 -1.47998E+03  2.01315E+03 -1.39494E+03 -4.32632E+02  2.91177E+03 -3.63685E+02  2.58754E+03
 -1.87292E+03  1.46854E+03 -1.68358E+03 -1.42957E+03 -1.59320E+03 -3.29617E+03  5.63687E+02 -4.30332E+03
 -1.17825E+01 -1.38301E+03  1.80606E+03  7.10128E+02  2.06024E+03  9.72026E+02 -4.12485E+02  1.24781E+03
 -7.46770E+02  7.04257E+02 -1.22867E+03 -3.07723E+02  1.26786E+03 -2.40758E+03  3.00259E+03 -2.72713E+03
  3.16275E+03  8.47346E+02  2.74004E+03  4.33111E+03  1.42496E+03  3.55168E+03 -9.00950E+02  2.49504E+03
 -2.69925E+03  2.19610E+03 -3.46554E+03  3.90160E+02 -7.50559E+02 -2.18325E+03  3.01135E+02 -1.40534E+03
  2.66752E+03 -2.59346E+03  1.52923E+03  7.01193E+02  2.07903E+02  9.43224E+02  9.31332E+02  1.82016E+03
 -3.71183E+02  3.20646E+03 -7.68978E+02  8.51828E+02 -3.09740E+02  1.03712E+02 -1.17756E+03  2.28486E+02
  1.32217E+02  2.27397E+03 -2.48071E+03  7.90279E+02 -3.81859E+03 -8.23806E+01 -5.05466E+03 -2.18276E+03
 -1.34151E+03 -5.03954E+03  6.03482E+02 -5.10041E+03  3.25419E+03 -3.60139E+03  4.78622E+03 -5.03102E+02
  4.04818E+03  3.62188E+00  2.93543E+03  3.32381E+03 -2.22158E+02  3.38140E+03 -1.94391E+03  1.52070E+03
 -4.62155E+02  7.35498E+02 -1.66744E+03 -9.32971E+01  6.80746E+01 -1.69526E+02 -6.43263E+02 -1.02600E+03
 -2.23254E+03 -6.59168E+02 -5.41292E+02 -1.09501E+03  2.03873E+02 -1.11229E+03 -7.23426E+02 -1.18095E+03
  2.08530E+03 -1.26424E+03  1.00841E+03  8.89488E+02  1.90818E+03  1.65334E+03 -1.98535E+01  3.09007E+03
 -1.58087E+03  4.77465E+03 -4.49952E+03  2.90937E+03 -4.27620E+03  9.80720E+02 -2.66157E+03 -2.04935E+03
 -1.99884E+03 -2.91541E+03  7.57842E+02 -3.60876E+03  9.22209E+02 -2.21345E+03  1.97378E+03  5.92528E+02
  1.40033E+03  6.71063E+02 -1.57699E+02  1.09996E+03 -9.25441E+01  2.13989E+01 -3.93004E+02 -1.47730E+03
  8.51625E+02  2.63067E+02  9.31500E+02 -5.71489E+02  6.93728E+02  1.10548E+03  6.65322E+02  9.54770E+02
 -1.92138E+03  5.63007E+01 -9.54275E+02  7.46612E+02 -1.69032E+03 -1.48975E+03  1.99585E+02 -2.84355E+03
  1.42067E+03 -1.90262E+03  1.26188E+03  2.18050E+02  1.02026E+03 -1.08710E+03  1.17178E+03  1.97956E+03
  1.96638E+03  1.81279E+03 -1.03704E+03  1.26662E+03 -5.88250E+02  6.42641E+02 -1.12587E+03 -1.05486E+03
  7.69743E+02  6.38720E+02  3.26695E+02  2.00750E+02 -2.44208E+03 -4.28537E+02 -1.14241E+03 -1.52001E+03
 -1.22451E+03  3.02119E+01 -1.82054E+02 -1.31835E+03  9.53180E+02 -2.65337E+03  2.52641E+03 -4.25688E+02
  2.27248E+03 -2.41785E+02  2.81559E+02  2.03861E+03 -6.49712E+02  1.85798E+03 -6.01127E+02  1.54202E+03
