 $NMID ID='MM_0lb_SNR200_11hz_g50_1.RAW', FMTDAT='(8E13.5)'
 TRAMP=1., VOLUME=1. $END
  3.10563E+05  1.09683E+03  3.36983E+05  2.52453E+05  8.51272E+04  3.38581E+05 -1.32678E+05  2.53045E+05
 -1.91133E+05  8.30705E+04 -1.11718E+05 -3.19644E+04  1.53162E+03 -5.04359E+04  5.46062E+04 -3.40450E+02
  3.52944E+04  5.25320E+04 -1.71110E+04  7.53176E+04 -6.29548E+04  6.42673E+04 -8.40000E+04  3.15640E+04
 -8.19549E+04 -1.28305E+04 -5.86869E+04 -5.05713E+04 -1.47241E+04 -7.07075E+04  2.71756E+04 -4.56085E+04
  4.01641E+04  3.97851E+03  1.77554E+04  4.87370E+04 -3.42975E+04  4.98163E+04 -6.68194E+04  1.49127E+03
 -5.31271E+04 -5.61048E+04 -7.53175E+03 -7.93055E+04  3.56158E+04 -5.60398E+04  4.79083E+04 -1.79748E+04
  4.37132E+04  1.06567E+04  3.14757E+04  2.62761E+04  1.56120E+04  3.11004E+04 -6.19464E+03  2.75904E+04
 -2.18809E+04  1.23858E+04 -1.72264E+04 -5.00797E+03  7.16526E+03 -7.09829E+03  2.33396E+04  1.25150E+04
  7.15253E+03  3.67513E+04 -3.39749E+04  3.64490E+04 -6.39697E+04  1.12204E+03 -5.86461E+04 -4.42847E+04
 -1.16195E+04 -6.52012E+04  3.95159E+04 -4.54749E+04  6.03287E+04 -1.40587E+03  3.54732E+04  3.20943E+04
 -3.88681E+03  3.80804E+04 -3.18894E+04  1.70135E+04 -3.27335E+04 -3.33122E+03 -1.78585E+04 -1.20052E+04
 -9.87772E+03 -1.51787E+04 -1.03089E+03 -1.92796E+04  8.18552E+03 -2.41649E+04  1.48729E+04 -1.19859E+04
  1.10560E+04  5.79788E+03 -9.84107E+03  1.28337E+04 -2.25468E+04 -6.10507E+03 -9.03351E+03 -3.58666E+04
  2.44898E+04 -4.63563E+04  5.01083E+04 -2.03654E+04  4.69763E+04  1.97490E+04  1.72963E+04  4.55291E+04
 -1.81863E+04  3.65719E+04 -2.65529E+04  1.32887E+03 -1.01742E+04 -2.92726E+04  2.28038E+04 -3.63237E+04
  4.33397E+04 -9.83129E+03  3.68942E+04  2.41588E+04  2.01553E+04  4.94074E+04 -6.29014E+03  5.21947E+04
 -3.37009E+04  3.72241E+04 -4.57497E+04  1.24156E+04 -4.55696E+04 -1.81645E+04 -2.58159E+04 -4.07649E+04
  8.37072E+03 -3.98361E+04  3.46343E+04 -1.62614E+04  3.21755E+04  9.46847E+03  4.80359E+03  1.98122E+04
 -1.40812E+04  7.86017E+03 -9.03304E+03 -8.07372E+03  6.06765E+03 -1.10308E+04  1.87931E+04  7.10965E+03
  1.35597E+04  2.24414E+04 -5.03586E+03  2.60063E+04 -2.11453E+04  1.33768E+04 -2.95697E+04 -4.42329E+03
 -2.34006E+04 -1.93481E+04 -9.06942E+03 -2.30400E+04  4.82314E+03 -2.39114E+04  1.76616E+04 -2.04096E+04
  2.91607E+04 -1.45568E+04  3.64953E+04  5.06911E+03  2.60865E+04  2.20211E+04  4.77343E+03  4.01948E+04
 -1.86373E+04  3.22114E+04 -2.97028E+04  1.18167E+04 -2.29098E+04 -1.04404E+04 -4.40809E+03 -1.29703E+04
  1.20425E+03 -1.97400E+03 -6.23401E+03  8.32084E+03 -1.81626E+04  3.55048E+03 -1.91073E+04 -1.00708E+04
 -1.05759E+04 -2.16268E+04  7.14254E+03 -2.58691E+04  1.59606E+04 -1.83827E+04  2.12560E+04 -1.40273E+03
  1.39167E+04  1.63897E+04 -1.18589E+03  2.05066E+04 -1.46906E+04  1.24504E+04 -2.21668E+04 -4.19181E+03
 -1.57846E+04 -1.86213E+04 -1.21655E+03 -2.53405E+04  1.20429E+04 -2.19072E+04  2.18993E+04 -1.12819E+04
  1.96646E+04 -1.27377E+03  1.53801E+04  3.96732E+03  7.05962E+03  2.43849E+03  1.07725E+04 -2.39985E+03
  2.09788E+04  2.11634E+03  2.32424E+04  1.71034E+04  1.61359E+04  3.33385E+04 -2.18240E+03  3.95155E+04
 -2.27896E+04  3.25308E+04 -3.86288E+04  1.82524E+04 -4.09400E+04 -3.01880E+03 -3.22792E+04 -2.19152E+04
 -1.32928E+04 -3.30328E+04  1.16516E+04 -2.91308E+04  2.58144E+04 -1.43113E+04  2.21021E+04  7.87355E+03
  8.35393E+03  1.51677E+04 -1.14719E+04  1.41565E+04 -1.88052E+04  2.12978E+03 -1.44468E+04 -1.26256E+04
  8.41735E+02 -1.79375E+04  9.22884E+03 -1.29122E+04  1.15924E+04 -3.24676E+03  3.16147E+03  7.05143E+03
 -7.65560E+03  2.33321E+03 -8.17684E+03 -6.79282E+03 -7.89457E+02 -1.56734E+04  1.19316E+04 -1.75393E+04
  2.10821E+04 -1.02698E+04  2.23623E+04  2.01700E+03  2.00175E+04  1.70569E+04  8.59691E+03  2.54914E+04
 -3.76178E+03  2.81361E+04 -1.77044E+04  1.81115E+04 -1.84961E+04  3.41656E+03 -1.41145E+04 -5.07258E+03
 -6.19073E+03 -6.62205E+03 -1.63853E+03  2.02209E+03 -2.58179E+03  2.92964E+03 -5.40906E+03  4.76087E+03
 -1.16714E+04 -7.73180E+02 -1.37081E+04 -1.06150E+04 -5.68381E+03 -1.74587E+04  4.41638E+03 -1.45914E+04
  1.19857E+04 -5.15505E+03  9.79225E+03  3.09956E+03  5.25727E+02  5.99711E+03 -6.27952E+03  4.50178E+01
 -6.83031E+03 -8.49246E+03 -1.38578E+03 -1.53045E+04  7.84279E+03 -1.54932E+04  1.87723E+04 -7.84136E+03
  2.17099E+04  1.72225E+03  1.56507E+04  1.21559E+04  2.79071E+03  1.67512E+04 -7.31120E+03  1.16352E+04
 -1.17771E+04  3.38741E+03 -4.90392E+03 -1.97733E+03  2.17441E+03 -4.22116E+03  8.52746E+03 -1.43250E+03
  7.29348E+03  6.00549E+03  1.37818E+03  1.07755E+04 -8.81786E+03  1.04191E+04 -1.47004E+04  2.69704E+03
 -9.03984E+03 -8.10770E+03 -4.74983E+01 -1.14609E+04  9.42662E+03 -6.82558E+03  8.13013E+03  2.08816E+03
  1.16582E+03  8.08738E+03 -7.22546E+03  9.46447E+03 -1.18559E+04  3.92896E+03 -1.18064E+04 -4.33206E+03
 -6.83133E+03 -1.39196E+04  2.15577E+03 -1.55534E+04  1.39333E+04 -8.57432E+03  1.32216E+04  2.09977E+03
  8.24075E+03  1.13932E+04 -1.77549E+03  1.40301E+04 -9.96466E+03  6.26964E+03 -1.05432E+04 -1.52878E+03
 -9.34436E+03 -9.01237E+03 -1.87184E+03 -1.08988E+04  5.37837E+03 -6.92644E+03  4.43238E+03 -4.19657E+03
  4.17021E+03  1.61119E+03  1.31089E+02  1.12161E+03 -1.00045E+03 -2.84540E+03  2.87439E+03 -5.76295E+03
  1.05317E+04 -4.32699E+03  1.40192E+04  1.00844E+03  1.18129E+04  7.53880E+03  7.28107E+03  1.60219E+04
 -2.54819E+03  1.89062E+04 -1.70419E+04  1.50985E+04 -2.13404E+04  2.81586E+03 -1.67220E+04 -8.37482E+03
 -1.00971E+04 -1.44455E+04  6.47258E+02 -1.28376E+04  4.35336E+03 -5.92426E+03  4.83175E+03 -4.65660E+03
  2.60081E+03 -2.51016E+03  4.26641E+03 -5.09047E+03  5.35197E+03 -2.04943E+03  6.62844E+03 -1.14591E+03
  9.30075E+03  1.97471E+03  4.25840E+03  7.09726E+03 -1.46740E+03  8.21191E+03 -9.68285E+03  6.95199E+03
 -1.11355E+04 -1.55818E+03 -7.38376E+03 -8.47936E+03 -1.08266E+03 -1.28374E+04  5.89214E+03 -1.15940E+04
  1.36887E+04 -6.84141E+03  1.53668E+04  1.72863E+03  1.02188E+04  1.03544E+04  2.84754E+03  1.53365E+04
 -6.80547E+03  1.15563E+04 -7.73646E+03  5.27550E+03 -7.81732E+03 -1.54982E+03 -1.85070E+03 -1.64622E+03
 -2.42991E+03  6.57496E+02 -1.28689E+03  1.98833E+03 -5.51846E+03  3.16348E+03 -9.11683E+03 -8.72949E+02
 -5.75767E+03 -7.83424E+03  6.67703E+02 -1.25630E+04  7.15422E+03 -1.02889E+04  1.02898E+04 -2.78282E+03
  1.16067E+04  5.86296E+03  5.57705E+03  1.12722E+04 -3.52888E+03  1.12269E+04 -9.02478E+03  7.71375E+03
 -1.09531E+04  4.33923E+02 -9.12895E+03 -6.53116E+03 -9.10019E+02 -9.04050E+03  4.76389E+03 -6.88150E+03
  6.88813E+03 -2.86594E+03  5.79462E+03  3.27281E+02  3.57924E+03  3.89639E+03 -3.74621E+02  1.75968E+03
  1.45967E+03  1.04586E+03  3.84316E+03  3.09274E+03  4.43711E+03  5.01559E+03  2.42410E+03  5.65353E+03
 -2.92155E+03  9.11345E+03 -7.94991E+03  1.00287E+04 -1.16073E+04  3.46997E+03 -1.16120E+04 -4.74311E+03
 -5.16410E+03 -1.05879E+04  2.11782E+03 -1.30196E+04  9.02331E+03 -7.83745E+03  9.06891E+03 -1.84191E+03
  7.99061E+03  4.26008E+03  2.39172E+03  7.05225E+03 -2.96935E+03  3.19695E+03 -5.42525E+03  1.18697E+03
 -2.20702E+03 -5.55536E+03  3.10541E+03 -6.62177E+03  5.26022E+03 -2.77788E+03  6.92387E+03  4.02314E+02
  2.65976E+03  1.96562E+03  1.51965E+03  2.80255E+03 -4.11772E+02  2.65483E+03  1.80060E+03 -1.12336E+02
  1.10300E+03 -1.70392E+03  4.11080E+03  1.05036E+03  3.61602E+03  5.76517E+03 -7.89643E+02  8.67561E+03
 -5.75689E+03  4.83781E+03 -7.20771E+03  1.46918E+03 -6.04764E+03 -7.04103E+02 -2.85781E+03 -4.96497E+03
  9.00267E+02 -4.44450E+03  1.11030E+03 -2.23130E+03  2.07694E+03  1.74779E+03  5.37134E+01  5.00699E+03
 -4.65087E+03  2.97917E+03 -3.37294E+03 -2.82770E+03 -1.87365E+03 -7.33376E+03  6.89086E+02 -5.31346E+03
  3.37013E+03 -3.31869E+03  4.02840E+03  3.35062E+02  4.47315E+03  1.76744E+03  2.85279E+02  2.79214E+03
 -2.38727E+03  1.57420E+03 -2.26884E+03 -2.41836E+03  6.20689E+02 -4.79123E+03  6.60225E+03 -2.82599E+03
  7.01212E+03  1.24202E+03  6.34598E+03  5.65431E+03  2.58052E+03  8.25207E+03 -2.37703E+03  6.94863E+03
 -5.73810E+03  4.01686E+03 -6.24627E+03 -1.09395E+03 -2.26718E+03 -4.46984E+03  2.08262E+03 -5.42129E+03
  5.19788E+03 -1.06755E+03  3.93403E+03  2.66044E+03  1.92984E+02  3.58272E+03 -1.75882E+03  4.04419E+03
 -1.68577E+03  3.28631E+03 -2.67227E+03  5.83354E+02 -1.02522E+03  6.55440E+02 -1.97112E+03  1.78700E+03
 -1.72403E+03  2.25503E+03 -5.47556E+03  3.40819E+03 -7.18894E+03  1.37723E+03 -7.65975E+03 -4.63436E+03
 -4.66117E+03 -8.14571E+03  1.45983E+03 -1.20623E+04  8.13344E+03 -8.52817E+03  9.65339E+03 -4.25571E+03
  1.01258E+04  2.09587E+03  5.32089E+03  6.27134E+03 -5.55184E+02  8.37951E+03 -2.75927E+03  3.76717E+03
 -5.33708E+03  1.77921E+03 -2.88319E+03 -2.75161E+03 -3.63188E+02 -9.14738E+01 -1.23509E+03  1.31765E+03
 -2.99456E+03  7.69410E+02 -2.25626E+03 -1.19080E+03 -1.81192E+02 -2.26100E+03  2.60335E+02 -3.31303E+03
  4.55043E+03 -2.94596E+03  3.36624E+03 -6.51276E+02  4.06820E+03  4.74791E+03  7.07674E+02  6.69453E+03
 -4.70021E+03  7.77109E+03 -8.24266E+03  4.96879E+03 -9.06517E+03 -1.09730E+03 -6.87681E+03 -4.77850E+03
 -2.83203E+03 -6.76466E+03  1.54590E+03 -6.91441E+03  3.74378E+03 -2.51853E+03  4.17558E+03  6.22450E+02
  4.04556E+03  1.99210E+03  1.41499E+03  3.56861E+03 -2.93690E+03  4.05632E+02  4.69147E+02 -1.52946E+03
  1.47231E+03 -2.89467E+03  3.17415E+03  7.38601E+02  3.51243E+03  3.08920E+03  3.16763E+02  2.48774E+03
 -1.04250E+03  2.73575E+03 -5.36679E+03 -1.68091E+02 -4.34591E+03 -3.50573E+03 -6.44493E+02 -5.84425E+03
  2.94226E+03 -5.22794E+03  5.61727E+03 -1.63212E+03  5.80059E+03 -1.08144E+03  1.87195E+03  4.23546E+03
 -5.76332E+02  4.25380E+03 -1.27098E+03  2.11411E+03 -2.99798E+03  2.52756E+03 -3.92649E+03  4.47656E+01
 -1.37512E+03 -1.61852E+03 -1.60442E+03 -4.01456E+02 -1.62270E+03  1.19012E+02 -3.53174E+03 -9.96803E+02
 -3.77687E+03 -2.13668E+03 -8.41275E+02 -3.89894E+03  2.44295E+03 -6.18652E+03  5.40412E+03 -3.03459E+03
  3.87570E+03  1.97578E+02  1.11464E+03  3.55582E+03 -1.61482E+02  4.50015E+03 -4.47321E+03  3.76148E+03
