 $NMID ID='MM_0lb_SNR200_8hz_g60_96.RAW', FMTDAT='(8E13.5)'
 TRAMP=1., VOLUME=1. $END
  3.09550E+05 -1.12005E+03  3.38908E+05  2.50514E+05  8.65523E+04  3.37474E+05 -1.32726E+05  2.51587E+05
 -1.91439E+05  8.37856E+04 -1.12374E+05 -3.32496E+04 -5.94312E+02 -5.13792E+04  5.42893E+04  5.89831E+02
  3.37827E+04  5.20894E+04 -1.71082E+04  7.78819E+04 -6.11367E+04  6.69034E+04 -8.49416E+04  3.27019E+04
 -8.32767E+04 -1.12477E+04 -5.80566E+04 -5.51562E+04 -1.44651E+04 -7.23890E+04  2.92720E+04 -4.82229E+04
  4.03733E+04  3.43148E+03  1.73016E+04  4.88238E+04 -3.56142E+04  4.78118E+04 -7.03727E+04  4.99871E+02
 -5.38708E+04 -5.84942E+04 -6.72297E+03 -8.03435E+04  3.27851E+04 -5.82927E+04  5.08089E+04 -1.89493E+04
  4.53633E+04  1.25401E+04  3.15649E+04  2.84093E+04  1.76492E+04  3.18860E+04 -5.18587E+03  2.90418E+04
 -2.32082E+04  1.17305E+04 -1.98257E+04 -7.23180E+03  7.35399E+03 -7.13736E+03  2.43338E+04  1.43013E+04
  7.54668E+03  3.76739E+04 -3.68253E+04  3.94596E+04 -6.69630E+04  1.74256E+03 -5.80460E+04 -4.51740E+04
 -1.32451E+04 -6.51647E+04  4.39740E+04 -4.87832E+04  6.41118E+04 -3.27933E+03  3.71703E+04  3.56319E+04
 -5.52507E+03  4.12904E+04 -3.21323E+04  1.93077E+04 -3.32846E+04 -4.77004E+03 -2.08871E+04 -1.18367E+04
 -9.89076E+03 -1.64852E+04  7.92367E+01 -2.25779E+04  8.83991E+03 -2.42615E+04  1.74140E+04 -1.29372E+04
  8.78613E+03  6.69976E+03 -1.26295E+04  1.17221E+04 -2.52953E+04 -7.33193E+03 -9.98540E+03 -3.88236E+04
  2.62501E+04 -4.92239E+04  5.43107E+04 -2.02490E+04  5.02945E+04  2.05416E+04  1.84360E+04  4.73414E+04
 -1.79944E+04  3.63547E+04 -2.98413E+04  3.80767E+03 -1.26600E+04 -3.10538E+04  2.23565E+04 -3.76087E+04
  4.60466E+04 -1.31271E+04  4.21836E+04  2.51881E+04  2.19628E+04  5.39119E+04 -9.03938E+03  5.76657E+04
 -3.49567E+04  4.00414E+04 -5.11471E+04  1.02124E+04 -4.86332E+04 -1.83734E+04 -2.70322E+04 -4.21013E+04
  8.59617E+03 -4.45152E+04  3.87493E+04 -1.82765E+04  3.17295E+04  1.12493E+04  6.01955E+03  2.16519E+04
 -1.32612E+04  1.27399E+04 -1.09282E+04 -7.38330E+03  5.84752E+03 -1.15803E+04  1.90933E+04  5.90345E+03
  1.35530E+04  2.15565E+04 -3.23216E+03  2.84223E+04 -2.33781E+04  1.56755E+04 -3.37001E+04 -1.15366E+03
 -2.64317E+04 -1.99959E+04 -1.37858E+04 -2.68804E+04  3.78419E+03 -2.75073E+04  2.23935E+04 -2.52662E+04
  3.66940E+04 -1.47920E+04  4.18088E+04  5.20021E+03  2.78703E+04  2.58120E+04  5.02336E+03  4.53028E+04
 -2.09768E+04  3.63141E+04 -3.04189E+04  1.43688E+04 -2.20670E+04 -9.36641E+03 -4.40743E+03 -1.24216E+04
  7.04806E+02 -1.45778E+03 -8.46704E+03  7.26085E+03 -2.00963E+04  3.97206E+03 -2.18032E+04 -1.07569E+04
 -1.18958E+04 -2.56789E+04  7.41560E+03 -2.99648E+04  2.06115E+04 -2.00142E+04  2.52203E+04 -7.70442E+02
  1.64162E+04  1.68623E+04 -1.41101E+03  2.48551E+04 -1.60560E+04  1.30816E+04 -2.59165E+04 -4.50284E+03
 -1.94047E+04 -2.12838E+04 -1.66410E+03 -2.79137E+04  1.56120E+04 -2.51523E+04  2.45170E+04 -1.39439E+04
  2.49294E+04  1.44640E+02  1.63358E+04  5.58131E+03  1.11566E+04  2.58971E+03  1.21461E+04 -3.48742E+03
  2.31490E+04  2.29974E+03  2.58911E+04  2.01768E+04  1.97546E+04  4.21660E+04 -2.09901E+03  4.64431E+04
 -2.77415E+04  3.95650E+04 -4.73599E+04  2.19767E+04 -5.16739E+04 -3.42636E+03 -3.91016E+04 -3.00972E+04
 -1.60100E+04 -4.03334E+04  1.48804E+04 -3.67321E+04  2.73447E+04 -1.67172E+04  2.77645E+04  9.09134E+03
  7.20017E+03  2.13622E+04 -1.21686E+04  1.59541E+04 -2.17129E+04  3.72984E+03 -1.61017E+04 -1.47699E+04
 -2.89534E+02 -2.23304E+04  1.23987E+04 -1.55352E+04  1.62540E+04 -1.80858E+03  4.19457E+03  1.02558E+04
 -9.63280E+03  6.89371E+03 -1.27097E+04 -6.73050E+03 -2.85671E+03 -2.05606E+04  1.31405E+04 -2.16332E+04
  2.56395E+04 -1.29079E+04  2.97462E+04  2.91965E+03  2.56098E+04  2.03877E+04  1.13244E+04  3.21938E+04
 -6.05336E+03  3.60053E+04 -2.48460E+04  2.29721E+04 -2.59986E+04  4.43570E+03 -1.71890E+04 -5.21641E+03
 -8.40274E+03 -7.63928E+03  9.46143E+02  1.85165E+02 -3.56605E+03  5.00129E+03 -7.27340E+03  6.21719E+03
 -1.64080E+04 -1.03129E+03 -1.73492E+04 -1.29698E+04 -7.16568E+03 -2.04035E+04  8.49449E+03 -1.73527E+04
  1.55225E+04 -6.71329E+03  1.07862E+04  4.04240E+03 -9.34807E+02  6.57915E+03 -7.47718E+03  4.39733E+02
 -9.32887E+03 -1.09553E+04 -2.84426E+03 -1.86070E+04  9.55702E+03 -1.83727E+04  2.13478E+04 -1.04936E+04
  2.46054E+04  2.84170E+03  2.00949E+04  1.64820E+04  4.72343E+03  2.14164E+04 -1.13415E+04  1.81601E+04
 -1.51517E+04  5.47611E+03 -8.35467E+03 -2.89207E+03  3.41078E+03 -4.55395E+03  8.40226E+03 -2.09038E+03
  8.06244E+03  8.84423E+03  4.13057E+03  1.37547E+04 -8.87831E+03  1.58995E+04 -1.77729E+04  4.81666E+03
 -1.16055E+04 -7.51026E+03  5.07879E+02 -1.47607E+04  1.10681E+04 -7.57448E+03  1.07081E+04  4.03853E+03
  4.69144E+03  1.06130E+04 -8.70627E+03  1.25857E+04 -1.53866E+04  6.17032E+03 -1.62494E+04 -5.20249E+03
 -7.97736E+03 -1.81072E+04  3.89999E+03 -1.94735E+04  1.76367E+04 -1.24697E+04  2.00620E+04  2.19545E+03
  1.02311E+04  1.57812E+04 -2.96613E+03  1.91536E+04 -1.31408E+04  1.15132E+04 -1.44044E+04 -2.02770E+03
 -1.26501E+04 -1.35816E+04 -3.25746E+03 -1.34211E+04  7.08932E+03 -1.10629E+04  8.22891E+03 -3.72071E+03
  6.24495E+03  3.92496E+03 -1.76164E+03  1.73851E+03 -1.55235E+03 -3.38328E+03  4.32008E+03 -9.47129E+03
  1.30707E+04 -6.30749E+03  1.88388E+04  2.31807E+03  1.79960E+04  1.25922E+04  1.10676E+04  2.47830E+04
 -7.32661E+03  2.83263E+04 -2.44211E+04  2.01953E+04 -3.04659E+04  4.73136E+03 -2.61206E+04 -1.06109E+04
 -1.13210E+04 -1.95140E+04  1.28045E+02 -1.77478E+04  7.21453E+03 -1.02715E+04  6.75343E+03 -7.42748E+03
  4.70339E+03 -2.01154E+03  6.31612E+03 -3.63963E+03  4.55944E+03 -4.06240E+03  9.28762E+03 -2.45076E+03
  1.36974E+04  1.89809E+03  6.77569E+03  9.78517E+03 -1.14148E+03  1.31330E+04 -1.27739E+04  1.13057E+04
 -1.70998E+04 -7.29337E+02 -1.12902E+04 -1.24940E+04 -1.54230E+03 -1.91410E+04  1.11928E+04 -2.06621E+04
  1.98431E+04 -1.15224E+04  2.30501E+04  4.75953E+03  1.48811E+04  1.66366E+04  2.85659E+03  1.96241E+04
 -7.09250E+03  1.73033E+04 -1.31698E+04  4.86064E+03 -8.30052E+03 -1.46581E+03 -2.84326E+03 -3.93049E+03
 -1.54218E+03 -2.90316E+02 -2.70330E+03  3.50315E+03 -6.94550E+03  3.48855E+03 -1.21794E+04 -1.91898E+03
 -8.44796E+03 -1.18469E+04  2.41048E+02 -1.79100E+04  1.11301E+04 -1.65938E+04  1.91087E+04 -5.48581E+03
  1.73520E+04  8.14579E+03  7.00230E+03  1.70284E+04 -4.54539E+03  1.75734E+04 -1.29043E+04  1.17107E+04
 -1.78660E+04 -8.97340E+02 -1.36627E+04 -1.08000E+04 -1.26966E+03 -1.64697E+04  6.48494E+03 -1.12463E+04
  1.23517E+04 -2.20481E+03  6.93096E+03  8.78761E+02  3.24557E+03  6.68916E+03  1.11345E+03  1.18350E+03
  4.54584E+03  3.32579E+03  5.18020E+03  2.64294E+02  4.62276E+03  7.79377E+03  3.01362E+03  7.83360E+03
 -3.69321E+03  1.49513E+04 -1.24692E+04  1.57382E+04 -1.89144E+04  4.70677E+03 -1.96566E+04 -7.97977E+03
 -9.66477E+03 -1.76619E+04  1.48177E+03 -1.88883E+04  1.33230E+04 -1.32352E+04  1.52612E+04 -5.51877E+03
  1.03976E+04  6.70346E+03  4.72351E+03  1.02695E+04 -6.58691E+03  8.63560E+03 -7.42429E+03 -9.93349E+02
 -3.96658E+03 -7.55106E+03  5.39851E+03 -9.45404E+03  8.50969E+03 -4.67290E+03  9.72771E+03  3.54475E+02
  4.22335E+03  5.02943E+03  3.83475E+03  4.12351E+03 -1.43739E+03  3.42737E+03  2.60855E+03 -5.93992E+02
  3.19705E+03 -8.66901E+02  8.79142E+03  1.55713E+03  4.30000E+03  1.10322E+04 -2.73100E+03  1.11094E+04
 -7.21501E+03  8.59887E+03 -1.34251E+04  2.83383E+03 -1.00948E+04 -4.32482E+03 -5.19935E+03 -7.20409E+03
  2.22490E+02 -6.82432E+03  5.92647E+03 -3.47941E+03  5.02418E+03  2.71093E+03 -2.09738E+03  4.89306E+03
 -7.51262E+03  3.66478E+03 -9.67845E+03 -4.02554E+03 -3.51387E+03 -1.36366E+04  3.35265E+03 -9.88572E+03
  4.93688E+03 -6.61588E+03  6.50814E+03 -1.41533E+03  6.21114E+03  2.97032E+03 -4.89802E+02  4.71846E+03
 -4.02796E+03  1.35827E+03 -3.95311E+03 -3.28832E+03  1.63064E+03 -9.58597E+03  8.73827E+03 -6.51593E+03
  1.26652E+04  2.12336E+03  1.09592E+04  9.72238E+03  2.97205E+03  1.32352E+04 -3.59894E+03  1.22971E+04
 -9.52526E+03  6.78742E+03 -9.99479E+03 -1.96380E+03 -4.86403E+03 -8.44238E+03  2.54628E+03 -9.36793E+03
  7.13856E+03 -4.48330E+03  7.32992E+03  3.48635E+03  2.12445E+03  6.69473E+03 -9.83077E+02  5.58849E+03
 -1.78342E+03  4.38927E+03 -2.53698E+03  1.85993E+03 -2.22946E+03  2.41026E+03 -1.60579E+03  1.06718E+03
 -2.78401E+03  4.77893E+03 -9.76293E+03  4.87088E+03 -1.15080E+04 -6.95607E+02 -1.39007E+04 -9.44636E+03
 -7.86001E+03 -1.96505E+04  3.58519E+03 -1.80670E+04  1.22895E+04 -1.32338E+04  1.96010E+04 -5.39019E+03
  1.85204E+04  3.99802E+03  1.22473E+04  1.32253E+04  7.14195E+02  1.28749E+04 -6.37307E+03  1.11463E+04
 -7.72315E+03  3.01093E+03 -4.82496E+03 -3.13982E+03 -5.57088E+02 -2.06296E+02 -6.92736E+01 -1.17377E+03
 -3.42274E+03 -3.15313E+02 -4.02251E+03  1.19703E+03 -2.02308E+03 -2.95628E+03 -3.76308E+02 -2.97692E+03
  5.79523E+03 -5.36704E+03  9.19622E+03  9.16434E+01  9.73176E+03  8.71969E+03  2.85838E+03  1.34321E+04
 -7.39276E+03  1.56684E+04 -1.42141E+04  9.69368E+03 -1.68424E+04 -1.18307E+03 -1.20614E+04 -1.01563E+04
 -4.61410E+03 -1.43115E+04  1.83609E+03 -1.23822E+04  8.25240E+03 -6.59778E+03  8.14526E+03  3.15076E+02
  7.29511E+03  5.08784E+03 -1.11834E+03  2.77870E+03 -2.88115E+03 -3.59975E+02  5.78110E+02 -2.51148E+03
  2.74526E+03 -2.73307E+03  5.70177E+03  2.83945E+03  5.19064E+03  4.57025E+03 -2.06098E+02  7.69424E+03
 -5.39985E+03  8.08866E+03 -7.95503E+03  6.60955E+02 -8.00622E+03 -7.57978E+03 -3.16695E+03 -1.20423E+04
  5.80652E+03 -9.78817E+03  1.02639E+04 -3.79479E+03  1.19402E+04  2.18291E+03  6.22426E+03  9.64838E+03
  1.17015E+02  1.01556E+04 -3.54026E+03  7.21803E+03 -5.35576E+03  3.65760E+03 -3.85436E+03  7.93566E+02
 -2.93850E+03 -1.24215E+03 -3.07635E+03  3.15057E+02 -4.54790E+03  1.02126E+03 -7.13420E+03 -1.27028E+03
 -7.77704E+03 -4.81248E+03 -2.21015E+03 -9.06802E+03  6.36745E+03 -9.39150E+03  8.78049E+03 -5.36023E+03
  9.53202E+03 -4.32191E+00  5.43675E+03  5.87533E+03 -1.54201E+03  1.01574E+04 -6.53113E+03  6.30886E+03
