 $NMID ID='MM_0lb_SNR200_15hz_g60_19.RAW', FMTDAT='(8E13.5)'
 TRAMP=1., VOLUME=1. $END
  3.10617E+05  1.89537E+03  3.37998E+05  2.50809E+05  8.59803E+04  3.37742E+05 -1.33452E+05  2.52502E+05
 -1.91117E+05  8.32156E+04 -1.11941E+05 -3.37865E+04  1.12544E+03 -5.08442E+04  5.36512E+04  2.17146E+01
  3.52397E+04  5.22225E+04 -1.57647E+04  7.58568E+04 -5.96556E+04  6.36483E+04 -8.46249E+04  3.17562E+04
 -8.15239E+04 -1.08325E+04 -5.79937E+04 -5.12105E+04 -1.60253E+04 -6.94125E+04  2.73849E+04 -4.56321E+04
  4.04047E+04  4.33532E+03  1.76960E+04  4.70734E+04 -3.40161E+04  4.86084E+04 -6.58029E+04 -1.08168E+03
 -5.28747E+04 -5.72354E+04 -6.39701E+03 -7.75567E+04  3.38538E+04 -5.50196E+04  4.89750E+04 -1.72675E+04
  4.44171E+04  1.12827E+04  3.26035E+04  2.55933E+04  1.64028E+04  3.06003E+04 -5.93681E+03  2.75272E+04
 -2.17696E+04  1.26456E+04 -1.87431E+04 -4.50516E+03  4.69876E+03 -7.50483E+03  2.31400E+04  1.27132E+04
  7.16931E+03  3.43772E+04 -3.21198E+04  3.55183E+04 -6.39609E+04  1.79217E+03 -5.91601E+04 -4.29803E+04
 -1.24878E+04 -6.42546E+04  4.03733E+04 -4.60643E+04  6.02417E+04 -2.80598E+03  3.43898E+04  3.42264E+04
 -6.00116E+03  3.58409E+04 -2.94210E+04  1.59080E+04 -2.97095E+04 -3.48534E+03 -1.83885E+04 -1.16568E+04
 -8.78671E+03 -1.29407E+04 -1.39742E+03 -1.77330E+04  7.74146E+03 -2.32011E+04  1.46744E+04 -1.32007E+04
  1.16940E+04  6.18125E+03 -7.64504E+03  1.30798E+04 -2.13729E+04 -4.52503E+03 -8.94932E+03 -3.26996E+04
  2.34318E+04 -4.44238E+04  4.96104E+04 -2.01498E+04  4.52580E+04  1.91510E+04  1.55947E+04  4.51631E+04
 -1.70119E+04  3.43635E+04 -2.51879E+04  2.67082E+03 -9.79464E+03 -2.71754E+04  2.14730E+04 -3.43173E+04
  4.17780E+04 -8.40816E+03  3.69332E+04  2.42945E+04  1.84750E+04  4.85519E+04 -7.39079E+03  5.12966E+04
 -3.17976E+04  3.38303E+04 -4.25532E+04  9.15462E+03 -4.46180E+04 -1.63274E+04 -2.36776E+04 -3.82868E+04
  7.59963E+03 -3.92258E+04  3.23020E+04 -1.48543E+04  2.99820E+04  1.15381E+04  4.06356E+03  1.95014E+04
 -1.39735E+04  7.74608E+03 -9.38269E+03 -8.32762E+03  6.56725E+03 -1.13304E+04  1.80574E+04  6.54772E+03
  1.41471E+04  2.17780E+04 -6.50224E+03  2.61525E+04 -2.21196E+04  1.32091E+04 -2.84678E+04 -4.32918E+03
 -2.18260E+04 -1.71353E+04 -8.65154E+03 -2.12634E+04  5.00878E+03 -2.03377E+04  1.62387E+04 -1.90341E+04
  2.76932E+04 -1.33188E+04  3.39778E+04  2.82673E+03  2.42280E+04  2.11259E+04  4.00904E+03  3.73943E+04
 -1.88316E+04  3.13627E+04 -2.75742E+04  1.09533E+04 -2.11519E+04 -1.13166E+04 -4.63651E+03 -1.28825E+04
  1.34805E+03 -1.71042E+03 -5.52020E+03  6.27880E+03 -1.73224E+04  3.34907E+03 -1.71953E+04 -7.13650E+03
 -1.11896E+04 -1.87276E+04  5.61214E+03 -2.33085E+04  1.58164E+04 -1.57295E+04  1.71256E+04 -2.00536E+03
  1.07605E+04  1.33962E+04 -1.42556E+03  1.97638E+04 -1.35320E+04  1.10354E+04 -1.92976E+04 -3.54811E+03
 -1.37880E+04 -1.74769E+04 -1.87283E+03 -2.26435E+04  1.05990E+04 -1.86509E+04  1.92467E+04 -1.00539E+04
  1.79217E+04  1.10007E+02  1.41278E+04  3.43545E+03  7.09609E+03  1.09226E+03  9.76946E+03 -1.20020E+03
  1.73107E+04  3.44008E+03  1.92820E+04  1.58284E+04  1.26377E+04  3.06955E+04 -2.03165E+03  3.45100E+04
 -2.02205E+04  2.79569E+04 -3.30927E+04  1.36334E+04 -3.29221E+04 -2.51626E+03 -2.84124E+04 -2.03031E+04
 -1.12370E+04 -2.82263E+04  1.00434E+04 -2.60486E+04  2.14471E+04 -1.23488E+04  1.97956E+04  4.89977E+03
  7.93344E+03  1.33017E+04 -8.43648E+03  1.30473E+04 -1.61970E+04  3.48156E+03 -1.30811E+04 -1.09467E+04
  2.75474E+01 -1.49516E+04  8.10015E+03 -1.07290E+04  9.78065E+03 -4.43119E+02  2.76571E+03  6.70989E+03
 -7.11088E+03  2.67827E+03 -6.68491E+03 -5.72501E+03 -1.13215E+03 -1.28996E+04  9.32671E+03 -1.42280E+04
  1.86423E+04 -8.23620E+03  1.77183E+04  2.22832E+03  1.58791E+04  1.33187E+04  7.80037E+03  2.08072E+04
 -3.23115E+03  2.25496E+04 -1.38666E+04  1.34122E+04 -1.69106E+04  2.39588E+03 -1.18380E+04 -3.93246E+03
 -5.18219E+03 -5.08787E+03  5.84873E+02  1.84796E+03 -1.78923E+03  1.92220E+03 -5.19340E+03  5.05555E+03
 -9.63450E+03 -7.03670E+02 -1.02699E+04 -8.13810E+03 -4.49271E+03 -1.45293E+04  3.91806E+03 -1.17116E+04
  7.81235E+03 -3.21466E+03  6.92607E+03  3.31103E+03 -9.27005E+02  4.37007E+03 -5.29937E+03 -7.59430E+02
 -5.01512E+03 -6.73189E+03 -4.08347E+02 -9.84229E+03  6.45925E+03 -1.08800E+04  1.36335E+04 -6.50531E+03
  1.64248E+04  1.37411E+03  1.16153E+04  9.14527E+03  3.40539E+03  1.28720E+04 -6.00783E+03  1.13396E+04
 -9.77408E+03  3.52629E+03 -5.58382E+03 -2.09101E+03  2.07673E+03 -2.43887E+03  6.09533E+03 -9.60147E+02
  5.49793E+03  5.93204E+03  2.08476E+03  8.33790E+03 -7.43864E+03  8.56063E+03 -1.09278E+04  2.26219E+03
 -8.37154E+03 -5.96297E+03  8.20592E+02 -9.15765E+03  6.57017E+03 -7.55492E+03  5.71561E+03  3.25505E+03
  1.18578E+03  5.89607E+03 -5.41349E+03  7.68519E+03 -7.65741E+03  4.07938E+03 -9.45523E+03 -1.68008E+03
 -3.70329E+03 -9.33622E+03  2.21417E+03 -1.11336E+04  9.62855E+03 -6.74470E+03  1.06121E+04  1.72923E+03
  6.45566E+03  8.77261E+03 -8.42125E+02  8.44886E+03 -7.28779E+03  5.31770E+03 -7.59026E+03 -1.43486E+03
 -8.07402E+03 -7.45875E+03 -1.64223E+03 -7.65272E+03  3.58532E+03 -5.58613E+03  4.87360E+03 -5.27619E+03
  3.37393E+03  3.04579E+02 -1.39345E+02  1.65524E+03  6.10702E+02 -2.25957E+03  2.30955E+03 -4.90078E+03
  6.69924E+03 -2.55694E+03  1.01602E+04  1.70152E+03  1.02574E+04  6.12394E+03  6.11921E+03  1.29246E+04
 -2.88365E+03  1.35254E+04 -1.23013E+04  1.00507E+04 -1.43880E+04  3.03894E+03 -1.27237E+04 -4.55301E+03
 -7.05327E+03 -1.03648E+04  1.14504E+02 -8.37470E+03  3.54094E+03 -4.57045E+03  1.58106E+03 -4.71381E+03
  1.76125E+03 -1.66274E+03  3.23517E+03 -2.32907E+03  4.05878E+03 -1.59172E+03  6.47492E+03  6.96492E+02
  7.69977E+03  2.47220E+03  2.45287E+03  4.89055E+03 -2.15249E+03  5.41286E+03 -6.56074E+03  4.35730E+03
 -8.34267E+03 -1.68613E+03 -4.90140E+03 -6.37607E+03 -5.18834E+01 -8.83111E+03  4.23028E+03 -7.44038E+03
  7.45667E+03 -4.91599E+03  1.12652E+04  1.48142E+03  7.56126E+03  7.44931E+03  1.86036E+03  1.01450E+04
 -4.21430E+03  8.74235E+03 -6.31151E+03  2.52323E+03 -2.74491E+03 -7.25241E+02 -1.02233E+03 -1.75895E+03
 -6.61320E+02 -6.52521E+01 -6.20193E+02  2.79708E+03 -4.66039E+03  9.35792E+02 -6.50505E+03 -1.19428E+03
 -3.18503E+03 -5.75413E+03  1.04733E+03 -7.58763E+03  5.57434E+03 -7.08215E+03  6.80538E+03 -1.09477E+03
  6.98877E+03  4.42736E+03  3.13648E+03  5.01835E+03 -8.47756E+02  6.46240E+03 -5.47206E+03  5.31402E+03
 -5.87438E+03 -1.06706E+03 -5.16532E+03 -3.50234E+03 -8.02268E+02 -6.87628E+03  2.84578E+03 -5.12051E+03
  4.98422E+03 -1.31953E+03  3.25321E+03  7.64287E+02 -1.52221E+02  6.67780E+02  2.06094E+03  1.70847E+02
  3.38282E+03  4.23288E+02  3.30648E+03  6.59279E+02  2.62215E+03  3.37132E+03  2.98387E+03  2.42119E+03
  2.14522E+02  5.97972E+03 -5.00959E+03  6.17451E+03 -6.35609E+03  2.34371E+03 -7.91814E+03 -3.11022E+03
 -3.57428E+03 -6.53330E+03  4.86920E+02 -8.41691E+03  5.28565E+03 -5.35450E+03  6.66957E+03 -1.04105E+03
  4.75703E+03  3.30283E+03  5.83945E+02  3.27598E+03 -3.82063E+02  1.88398E+03 -2.86547E+03  7.08780E+02
 -1.17912E+03 -2.63663E+03  1.88611E+03 -3.62337E+03  2.35192E+03 -9.26499E+02  1.91276E+03  1.36030E+03
  1.13007E+03  1.13134E+03  8.24683E+02  5.89124E+02 -7.50507E+02  9.47559E+02  1.42735E+03  9.25362E+02
 -7.99503E+01 -4.95696E+02  3.86291E+03  2.42180E+02  1.72354E+03  3.94488E+03 -1.17092E+03  5.22457E+03
 -3.77284E+03  2.74670E+03 -3.61530E+03  3.96951E+02 -3.42776E+03 -1.77047E+03 -5.70115E+02 -2.17869E+03
 -7.98135E+01 -2.96171E+03  2.38291E+03 -1.60556E+03  2.05390E+03  2.25410E+03 -6.68926E+02  2.04027E+03
 -2.45648E+03  5.67303E+02 -3.82770E+03 -1.81359E+03  3.24054E+02 -3.18726E+03  7.11885E+02 -3.23725E+03
  1.27548E+03 -2.52342E+03  1.71394E+03 -9.05042E+02  2.65828E+03  2.98036E+02  5.67194E+01  1.91012E+03
 -6.08346E+02  2.87019E+02 -2.60686E+03 -6.81137E+02  1.03916E+03 -1.26555E+03  3.03982E+03 -1.74648E+03
  3.24889E+03 -6.70859E+02  4.29044E+03  1.81982E+03  4.45089E+02  2.59431E+03 -7.59925E+02  2.85548E+03
 -2.82547E+03  7.72061E+02 -3.43391E+03 -1.10309E+02 -2.30187E+03 -2.98671E+03 -9.25217E+02 -1.43281E+03
  2.57860E+03 -1.90995E+03  7.81571E+02  1.35234E+03 -8.30707E+02  1.82892E+03  3.00861E+02  2.13757E+03
 -4.16797E+02  1.97806E+03 -1.36858E+03  7.25274E+02 -7.75333E+02  3.33691E+02 -1.60680E+03  7.11816E+02
 -7.53766E+02  2.57118E+03 -2.71969E+03  9.05577E+02 -2.62868E+03  1.17769E+01 -4.15605E+03 -1.60172E+03
 -1.16524E+03 -4.84242E+03  1.08347E+03 -6.61466E+03  3.17856E+03 -4.54470E+03  5.92344E+03 -1.24369E+03
  5.79299E+03  1.61887E+03  4.01222E+03  3.64087E+03  7.14770E+02  2.04700E+03 -1.47776E+03  2.05876E+03
 -2.53206E+03  1.21000E+03 -7.14732E+02 -7.67468E+02 -4.58831E+02  8.16102E+02 -2.29618E+03 -3.07182E+02
 -7.80415E+02 -1.36141E+03 -2.21863E+03 -3.31615E+02 -1.15788E+03 -3.67205E+02 -1.28335E+02 -1.00412E+03
  2.49594E+03 -9.70322E+02  1.07440E+03  3.04582E+02  2.64591E+03  2.09201E+03  3.37146E+02  3.90656E+03
 -1.18808E+03  4.01978E+03 -3.25137E+03  3.07591E+03 -4.06893E+03 -7.73331E+02 -3.18159E+03 -3.07956E+03
 -1.14388E+03 -3.20979E+03  9.59620E+02 -2.78542E+03  2.97763E+03 -1.09982E+03  1.88480E+03  3.89281E+02
  1.48477E+03  1.92243E+03 -6.01830E+02  7.20024E+02 -3.44269E+02 -7.44868E+02 -9.60909E+01 -2.75132E+02
  1.79098E+03 -1.62711E+02 -1.06472E+02  6.08848E+02  7.59009E+02  1.08974E+03  1.02536E+02  1.45205E+03
 -9.68299E+02  1.86812E+03 -2.88000E+03  3.32563E+02 -2.91804E+03 -1.44985E+03  1.08431E+03 -2.55433E+03
  1.54813E+03 -1.90616E+03  4.34705E+02 -3.45646E+02  2.17895E+03 -5.86658E+02  1.33950E+03  2.26129E+03
  1.28844E+03  1.72208E+03 -1.02242E+03  6.53803E+01 -7.20699E+01  1.40832E+03 -1.60771E+03  2.98637E+02
  8.48479E+01  2.34688E+02 -1.39689E+03 -1.37996E+02 -3.50809E+02 -1.39636E+02 -8.94640E+02 -4.46888E+02
 -2.09325E+03 -4.02194E+02  6.53712E+00 -2.41535E+03  1.41441E+03 -2.58467E+03  2.90262E+03 -9.48427E+02
  9.43727E+02 -1.36974E+03  1.27564E+03  9.57874E+02 -9.32895E+02  8.36960E+02 -1.55504E+03  1.64660E+03
