 $NMID ID='MM_0lb_SNR200_20hz_g50_72.RAW', FMTDAT='(8E13.5)'
 TRAMP=1., VOLUME=1. $END
  3.10302E+05 -7.28809E+02  3.37566E+05  2.50621E+05  8.32887E+04  3.37267E+05 -1.32377E+05  2.50819E+05
 -1.89541E+05  8.25942E+04 -1.10514E+05 -3.29012E+04  1.95705E+03 -4.91457E+04  5.43113E+04  1.30356E+03
  3.59341E+04  5.26566E+04 -1.65037E+04  7.47827E+04 -6.12152E+04  6.23977E+04 -8.27678E+04  3.09732E+04
 -7.93761E+04 -1.03487E+04 -5.56710E+04 -4.97718E+04 -1.48578E+04 -6.77746E+04  2.63774E+04 -4.47688E+04
  3.98306E+04  3.61181E+03  1.54006E+04  4.64882E+04 -3.41405E+04  4.59394E+04 -6.50501E+04 -1.63311E+02
 -5.23486E+04 -5.54378E+04 -5.41514E+03 -7.44923E+04  3.31071E+04 -5.27224E+04  4.64370E+04 -1.62117E+04
  4.05461E+04  1.09188E+04  2.99460E+04  2.49492E+04  1.56512E+04  2.91876E+04 -4.43487E+03  2.60112E+04
 -2.24920E+04  1.27718E+04 -1.98853E+04 -4.87831E+03  5.07243E+03 -8.15173E+03  2.17045E+04  1.10152E+04
  7.18600E+03  3.27189E+04 -2.92469E+04  3.37347E+04 -6.13888E+04  2.34102E+03 -5.52498E+04 -4.10534E+04
 -1.15694E+04 -5.99101E+04  3.82528E+04 -4.42924E+04  5.52246E+04 -1.52133E+03  3.14012E+04  3.08250E+04
 -7.00371E+03  3.31930E+04 -2.72503E+04  1.27844E+04 -2.78299E+04 -5.68828E+03 -1.32171E+04 -9.76356E+03
 -6.87761E+03 -1.09840E+04 -1.24778E+03 -1.57616E+04  6.21742E+03 -2.29456E+04  1.50075E+04 -1.44264E+04
  1.22001E+04  3.32569E+03 -5.39603E+03  1.29754E+04 -1.88586E+04 -1.71179E+03 -9.10161E+03 -3.09735E+04
  1.97895E+04 -4.12466E+04  4.49647E+04 -1.88362E+04  4.08991E+04  1.80665E+04  1.38105E+04  4.23175E+04
 -1.58798E+04  3.01747E+04 -2.34135E+04  1.06245E+03 -7.92731E+03 -2.64546E+04  1.99902E+04 -3.12077E+04
  3.66400E+04 -7.04322E+03  3.03208E+04  2.21635E+04  1.47360E+04  4.12837E+04 -7.39773E+03  4.36366E+04
 -2.89730E+04  2.89125E+04 -3.71956E+04  8.02550E+03 -3.84520E+04 -1.44414E+04 -2.03272E+04 -3.34143E+04
  6.08423E+03 -3.20546E+04  2.85039E+04 -1.22430E+04  2.68953E+04  1.04698E+04  2.72259E+03  1.73143E+04
 -1.27530E+04  6.47831E+03 -9.64257E+03 -6.72763E+03  6.30401E+03 -1.09024E+04  1.69275E+04  6.17291E+03
  1.19827E+04  2.21739E+04 -7.14439E+03  2.29016E+04 -2.15718E+04  9.39328E+03 -2.44967E+04 -6.04781E+03
 -1.51834E+04 -1.62410E+04 -5.03792E+03 -1.62875E+04  4.09830E+03 -1.39891E+04  1.08569E+04 -1.37214E+04
  2.10326E+04 -1.07837E+04  2.70915E+04  1.87901E+02  2.02761E+04  1.69414E+04  3.60569E+03  3.21040E+04
 -1.47257E+04  2.71812E+04 -2.53709E+04  9.41227E+03 -2.01676E+04 -1.01431E+04 -3.04805E+03 -1.39401E+04
  3.90528E+03 -4.99387E+03 -2.77344E+03  4.33803E+03 -1.22065E+04  4.92976E+03 -1.27099E+04 -5.02873E+03
 -8.06920E+03 -1.44379E+04  4.92742E+03 -1.77793E+04  1.22564E+04 -1.28785E+04  1.36827E+04 -1.23596E+03
  8.53999E+03  9.99707E+03 -1.00748E+03  1.47557E+04 -1.04913E+04  8.45105E+03 -1.44037E+04 -2.58206E+03
 -1.05829E+04 -1.36856E+04 -1.24110E+03 -1.82877E+04  8.05202E+03 -1.52334E+04  1.52908E+04 -6.60190E+03
  1.39980E+04  1.38025E+02  1.03009E+04  4.53086E+03  4.76263E+03  2.31012E+02  6.98734E+03 -1.79229E+03
  1.34144E+04  1.94695E+03  1.36366E+04  1.21871E+04  6.96001E+03  2.31376E+04 -3.19451E+03  2.52219E+04
 -1.49886E+04  1.93924E+04 -2.25257E+04  7.80745E+03 -2.26571E+04 -1.91932E+03 -2.04308E+04 -1.33176E+04
 -9.44380E+03 -1.74944E+04  7.05936E+03 -1.79673E+04  1.56530E+04 -1.16239E+04  1.47960E+04  2.64747E+03
  6.80266E+03  1.07081E+04 -6.64856E+03  1.00539E+04 -1.32342E+04  2.74647E+03 -9.98603E+03 -7.64159E+03
 -5.16362E+02 -1.24464E+04  5.44477E+03 -8.90524E+03  5.98928E+03 -1.06538E+02  1.99466E+03  4.50136E+03
 -4.51077E+03  9.48915E+02 -3.43128E+03 -4.81460E+03  4.15732E+02 -9.50203E+03  7.15200E+03 -9.38251E+03
  1.23472E+04 -4.21482E+03  1.00782E+04  2.03089E+03  9.54430E+03  8.51010E+03  4.43106E+03  1.24583E+04
 -1.99759E+03  1.54288E+04 -7.74715E+03  9.16979E+03 -9.02890E+03  3.52219E+03 -7.42443E+03 -1.26208E+03
 -4.87115E+03 -3.66827E+03 -7.27659E+02  1.01989E+03 -3.56159E+02  2.17556E+03 -4.02716E+03  3.50118E+03
 -7.79252E+03 -4.95915E+02 -8.16224E+03 -6.88218E+03 -2.15581E+03 -9.68777E+03  4.06587E+03 -7.49370E+03
  6.20631E+03 -4.35973E+03  4.98959E+03  2.14283E+03  1.19092E+03  2.46299E+03 -2.60280E+03 -9.16106E+02
 -2.66804E+03 -5.13796E+03 -1.34088E+03 -6.30632E+03  4.30214E+03 -7.65662E+03  7.91522E+03 -2.81696E+03
  1.01437E+04 -3.82685E+02  7.79769E+03  4.30758E+03  7.25185E+02  8.25239E+03 -5.29968E+03  9.40426E+03
 -6.57756E+03  2.45026E+03 -2.47629E+03 -1.39180E+03  2.45956E+03 -1.70976E+03  3.93431E+03 -1.16809E+03
  4.09513E+03  3.30775E+03  5.47670E+02  4.40828E+03 -3.66488E+03  5.02819E+03 -6.30880E+03  1.40970E+03
 -4.96835E+03 -3.18095E+03  9.63257E+02 -5.44116E+03  3.98395E+03 -4.43428E+03  3.50280E+03  8.31749E+02
  1.80265E+02  2.36421E+03 -3.33137E+03  4.01802E+03 -4.57098E+03  1.43513E+03 -3.97036E+03 -5.32030E+02
 -3.25660E+03 -5.94680E+03  2.19874E+03 -6.32255E+03  5.51522E+03 -4.28552E+03  5.68970E+03  1.30333E+03
  3.97675E+03  4.52086E+03  3.33524E+02  6.10816E+03 -3.81430E+03  4.08842E+03 -5.65626E+03 -5.87631E+02
 -5.76815E+03 -3.22250E+03 -1.43435E+03 -5.60044E+03  2.13558E+03 -2.99224E+03  2.74192E+03 -3.43725E+03
  3.64681E+03  1.20960E+03  4.66866E+02  7.29039E+02  5.77510E+02  3.17762E+02 -2.33732E+02 -1.31067E+03
  2.15734E+03 -1.49889E+02  4.67238E+03  9.43587E+01  4.86677E+03  1.89601E+03  3.48884E+03  5.59432E+03
 -1.45021E+03  6.29124E+03 -7.40142E+03  5.48867E+03 -9.16480E+03  5.32969E+02 -6.53072E+03 -3.30923E+03
 -4.04857E+03 -6.03654E+03 -2.92574E+01 -5.12653E+03  1.71343E+03 -4.73602E+02  1.37782E+03 -1.58551E+03
  7.09007E+02 -6.05718E+02  1.40403E+03 -2.47458E+03  3.65313E+03 -1.02914E+03  2.88539E+03 -4.80448E+01
  3.60445E+03  9.64165E+02 -1.11603E+02  2.70838E+03 -1.86896E+03  1.31016E+03 -3.87538E+03  2.56574E+03
 -3.42448E+03 -5.80083E+02 -2.34760E+03 -3.19357E+03  7.46349E+02 -3.29395E+03  2.71860E+03 -4.31156E+03
  4.44305E+03 -4.09617E+03  5.72909E+03 -1.02303E+03  3.31121E+03  2.81274E+03  1.10321E+03  4.90917E+03
 -1.27389E+03  5.12896E+03 -2.49262E+03  1.80969E+03 -2.76013E+03 -1.36759E+03 -4.55479E+02 -1.98127E+02
 -9.20441E+02  9.17927E+02  4.24376E+02  2.19885E+03 -2.14345E+03  1.16624E+02 -3.00796E+03 -9.09314E+02
 -1.70187E+03 -3.15335E+03  2.01900E+03 -3.47293E+03  2.22586E+03 -4.02651E+03  2.59563E+03 -7.01358E+02
  2.89866E+03  2.34846E+03  1.45807E+03  3.62482E+03  7.18726E+02  3.05187E+03 -1.13792E+03  1.43391E+03
 -3.70284E+03  6.71929E+02 -1.87037E+03 -9.13314E+02  2.46672E+02 -9.30308E+02  1.27099E+03 -2.93401E+03
  1.41134E+03 -1.79631E+03  1.24497E+03  5.29085E+02 -4.00641E+02  7.79462E+02  7.25875E+02 -5.72052E+00
  1.94461E+03  3.06281E+02  1.00404E+03  8.83853E+02  7.42368E+02  1.01011E+03  1.70537E+03  1.67395E+03
 -1.82601E+03  2.50058E+03 -1.75647E+03  4.18725E+03 -2.21903E+03  9.88752E+02 -3.13602E+03 -2.89435E+02
 -1.36762E+03 -2.17063E+03  1.29393E+03 -4.98427E+03  5.11987E+02 -2.26920E+03  2.17711E+03 -6.84698E+02
  2.03688E+03  1.07816E+03  5.41744E+02  1.21781E+03 -1.16124E+03  1.07082E+03 -1.08576E+03 -8.76094E+02
  6.58490E+02 -1.04566E+02  1.03933E+03 -1.17920E+03  1.76172E+03 -2.11343E+03  1.13968E+03  8.00542E+02
  2.63307E+02 -5.28499E+02  1.45043E+03 -5.13793E+02 -6.25121E-01 -3.04215E+02  1.21038E+03 -7.92689E+02
 -2.03784E+02  1.89178E+02  1.50672E+03  8.96358E+02 -1.27868E+02  1.67948E+03  3.36425E+02  1.95144E+03
 -1.32142E+03  4.04565E+02 -1.74953E+03 -8.14445E+01 -1.08291E+03  8.57587E+01  4.74572E+02 -1.65390E+03
  1.38974E+02 -4.85465E+02  8.57886E+02 -3.16923E+02  2.35005E+02  9.85489E+02 -7.30385E+02  1.54615E+03
 -5.95600E+02  8.69144E+02 -5.88392E+02 -7.53153E+02 -8.64071E+02 -1.84778E+03 -7.40279E+01 -9.09287E+02
  1.47664E+02 -5.73168E+02  3.64851E+02 -5.53718E+02  2.03923E+02  6.03871E+02 -8.59626E+02  1.21093E+03
  1.73610E+02 -3.19799E+02 -1.43048E+03  6.93477E+02  1.36567E+03 -1.19125E+03  1.88616E+03 -4.53214E+02
  1.05588E+03  1.91930E+03  2.19238E+03  9.66785E+01  1.14304E+03  1.74242E+03 -4.59409E+02  1.27679E+03
 -9.01559E+02  4.30183E+00 -6.19129E+02 -1.24376E+03  3.65984E+02 -2.06250E+02  1.35336E+03 -5.19682E+02
  1.45688E+03  2.45116E+02 -7.34826E+02  9.63081E+02 -1.70951E+02  1.24464E+03  3.47432E+02  1.53619E+03
 -3.07929E+02  3.49599E+02  4.05490E+01  1.23193E+03 -4.44427E+02  3.77603E+02 -1.07186E+03  1.68878E+02
 -1.48833E+02  1.16013E+03 -2.10690E+03  5.61108E+01 -1.77872E+03 -7.16806E+01 -2.24694E+03 -1.04452E+02
 -2.08869E+03 -2.19771E+03  2.03751E+03 -2.65543E+03  2.69161E+02 -2.00226E+03  2.01895E+03 -1.01979E+03
  1.76562E+03 -1.73611E+03  1.03556E+03  8.15452E+02 -9.85804E+02  5.34187E+02 -8.59937E+02  1.34620E+03
 -9.59409E+02  1.00950E+03 -1.48063E+03  5.56800E+02 -1.72647E+02  1.14387E+03 -9.31012E+02 -1.69310E+02
 -5.59459E+02  1.18859E+02 -3.15228E+02  8.09715E+02  1.09417E+03  2.25574E+02 -8.32061E+02 -7.82721E+02
  2.23279E+03 -7.01885E+02 -3.25999E+02 -3.61873E+02  6.79755E+02  6.84344E+02  8.36427E+02  5.56746E+02
 -1.19083E+03  1.42669E+03 -5.08658E+02  4.64814E+02 -1.67350E+03 -2.09364E+03 -9.41531E+02 -3.60994E+02
 -9.53285E+02 -4.70610E+02 -8.57054E+02 -4.81194E+02  6.07015E+02 -7.41090E+01  6.45289E+02 -6.17639E+01
 -1.01099E+01 -2.26249E+02  4.40917E+02  2.26865E+02 -2.06987E+02 -8.99730E+01 -7.50413E+01 -8.17814E+02
 -2.05790E+02  1.51867E+02 -1.08068E+03  9.44961E+02 -6.80656E+02  1.20840E+02  3.22058E+02 -4.14881E+01
 -8.58879E+02  8.71139E+02 -6.36780E+02 -1.75407E+02  4.00316E+02 -5.14520E+00 -8.85259E+02 -1.17922E+03
 -3.91563E+02  2.38425E+02 -1.22838E+03  5.20429E+02 -6.73152E+02  2.01969E+01  1.26351E+03  8.34722E+02
 -2.92879E+02  7.19388E+02  1.48247E+03  5.56830E+02 -4.31374E+02  5.27699E+02  5.07110E+02  7.09657E+02
 -3.59134E+01 -3.82594E+02  1.26769E+01  4.71004E+02 -8.06714E+02  1.72373E+03 -1.03926E+03  2.59409E+02
  3.57774E+02  7.82356E+00  3.69469E+02 -7.15059E+02 -2.03799E+00 -1.58936E+03 -6.93768E+02  9.50973E+01
  9.63868E+02  3.65773E+02 -7.04556E+02 -3.11902E+02  6.79765E+01  5.44364E+02 -5.76416E+01  7.41574E+01
