 $NMID ID='MM_0lb_SNR200_9hz_g60_57.RAW', FMTDAT='(8E13.5)'
 TRAMP=1., VOLUME=1. $END
  3.10772E+05 -1.47743E+02  3.36975E+05  2.49763E+05  8.56738E+04  3.39760E+05 -1.32133E+05  2.52996E+05
 -1.91905E+05  8.38096E+04 -1.12911E+05 -3.31062E+04  6.53300E+02 -5.08174E+04  5.42115E+04  6.33906E+02
  3.55002E+04  5.18505E+04 -1.53646E+04  7.68184E+04 -6.17059E+04  6.39690E+04 -8.52307E+04  3.33360E+04
 -8.49528E+04 -9.55371E+03 -5.83713E+04 -5.26136E+04 -1.54913E+04 -7.28213E+04  2.69566E+04 -4.58313E+04
  4.17802E+04  3.81341E+03  1.72116E+04  4.91833E+04 -3.63374E+04  4.97851E+04 -6.77803E+04 -1.24145E+03
 -5.57175E+04 -5.80491E+04 -6.98877E+03 -7.92810E+04  3.65265E+04 -5.88595E+04  4.98061E+04 -1.96556E+04
  4.55999E+04  1.11931E+04  3.31743E+04  2.65620E+04  1.69797E+04  3.03588E+04 -6.05942E+03  2.71194E+04
 -2.28003E+04  1.22873E+04 -1.74236E+04 -5.22130E+03  8.36659E+03 -7.26756E+03  2.42671E+04  1.23962E+04
  5.78134E+03  3.78076E+04 -3.42741E+04  3.64472E+04 -6.70201E+04  1.90410E+03 -6.05418E+04 -4.30680E+04
 -1.29709E+04 -6.57025E+04  4.19985E+04 -4.91693E+04  6.19030E+04 -2.13569E+03  3.72960E+04  3.45649E+04
 -5.29059E+03  4.21458E+04 -3.31454E+04  1.97727E+04 -3.37947E+04 -3.09121E+03 -2.02703E+04 -1.20868E+04
 -8.41351E+03 -1.51291E+04 -3.19788E+02 -1.96865E+04  8.30514E+03 -2.12489E+04  1.45318E+04 -1.18900E+04
  1.04882E+04  5.48733E+03 -1.18787E+04  1.49318E+04 -2.40789E+04 -6.28660E+03 -8.50711E+03 -3.87449E+04
  2.58225E+04 -4.76126E+04  5.32421E+04 -2.09933E+04  4.86854E+04  1.95812E+04  1.55405E+04  4.81023E+04
 -1.75894E+04  3.76721E+04 -2.96469E+04  2.78628E+03 -1.19867E+04 -3.08104E+04  2.01185E+04 -3.84431E+04
  4.34858E+04 -1.21085E+04  4.05945E+04  2.50971E+04  2.20179E+04  5.31076E+04 -9.32430E+03  5.65689E+04
 -3.60782E+04  3.92720E+04 -4.80975E+04  1.02556E+04 -4.95628E+04 -2.00425E+04 -2.65865E+04 -4.42395E+04
  8.36131E+03 -4.36313E+04  3.62129E+04 -1.71926E+04  3.33598E+04  1.20519E+04  5.65726E+03  2.06614E+04
 -1.45935E+04  9.54442E+03 -1.24700E+04 -6.70441E+03  5.51929E+03 -1.02827E+04  2.03884E+04  6.89719E+03
  1.39548E+04  2.33388E+04 -5.55825E+03  2.84977E+04 -2.52988E+04  1.48939E+04 -3.08181E+04 -3.16020E+03
 -2.70023E+04 -2.04674E+04 -1.25583E+04 -2.59219E+04  4.43623E+03 -2.66101E+04  2.10947E+04 -2.27952E+04
  3.30921E+04 -1.55212E+04  3.93950E+04  5.73024E+03  2.72513E+04  2.55509E+04  3.67448E+03  4.26108E+04
 -1.99379E+04  3.49948E+04 -3.05279E+04  1.25204E+04 -2.33451E+04 -1.10379E+04 -5.49624E+03 -1.26632E+04
 -2.92531E+02 -6.39669E+02 -8.80985E+03  8.32622E+03 -2.11709E+04  6.82041E+03 -2.03120E+04 -1.05751E+04
 -1.14251E+04 -2.33290E+04  5.63208E+03 -2.77947E+04  2.03755E+04 -1.93732E+04  2.35655E+04 -7.55977E+02
  1.52465E+04  1.71479E+04 -1.62800E+03  2.54044E+04 -1.72000E+04  1.41104E+04 -2.49979E+04 -6.42796E+03
 -1.90566E+04 -2.01421E+04 -3.03171E+03 -3.03530E+04  1.41833E+04 -2.39178E+04  2.33597E+04 -1.19823E+04
  2.37211E+04 -2.82445E+03  1.75643E+04  4.67512E+03  8.97909E+03  1.51186E+03  1.19704E+04 -2.59274E+03
  2.25750E+04  3.69420E+03  2.55807E+04  1.88035E+04  1.78542E+04  3.98153E+04 -1.45794E+03  4.67824E+04
 -2.73789E+04  3.86331E+04 -4.51075E+04  1.97097E+04 -4.55981E+04 -3.16616E+03 -3.72868E+04 -2.65579E+04
 -1.48183E+04 -4.10236E+04  1.48357E+04 -3.30562E+04  2.88723E+04 -1.58981E+04  2.53370E+04  8.20912E+03
  9.40791E+03  2.08148E+04 -1.36428E+04  1.65110E+04 -2.01684E+04  4.08463E+03 -1.55757E+04 -1.25176E+04
 -4.72354E+02 -1.91635E+04  1.21863E+04 -1.64539E+04  1.48208E+04 -4.87981E+02  4.37394E+03  9.84723E+03
 -1.02368E+04  2.61295E+03 -9.76404E+03 -7.28469E+03 -1.40421E+03 -1.93283E+04  1.24398E+04 -2.01332E+04
  2.30095E+04 -1.32739E+04  2.79843E+04  2.12449E+03  2.41095E+04  1.93857E+04  1.12788E+04  3.00003E+04
 -4.72400E+03  3.31472E+04 -2.14040E+04  2.00007E+04 -2.35901E+04  2.52368E+03 -1.52837E+04 -6.18937E+03
 -6.00520E+03 -9.99979E+03 -1.10624E+03 -3.00422E+02 -4.43684E+03  3.93902E+03 -6.98313E+03  6.26777E+03
 -1.53278E+04 -5.56872E+02 -1.48211E+04 -1.18330E+04 -4.67907E+03 -2.02207E+04  6.28269E+03 -1.76553E+04
  1.30956E+04 -5.48782E+03  9.38317E+03  3.80705E+03 -1.00567E+03  5.46487E+03 -8.44392E+03  6.14119E+02
 -8.86527E+03 -1.09809E+04 -2.50410E+03 -1.78269E+04  1.03345E+04 -1.72917E+04  2.09976E+04 -8.84556E+03
  2.56072E+04  2.99393E+03  1.89804E+04  1.67211E+04  4.04979E+03  1.85294E+04 -1.13702E+04  1.68980E+04
 -1.24780E+04  5.83867E+03 -6.50704E+03 -2.91967E+03  1.66460E+02 -3.51913E+03  7.13627E+03 -1.26036E+03
  9.43433E+03  6.73926E+03  8.50292E+02  1.32587E+04 -9.01491E+03  1.19212E+04 -1.80353E+04  1.84314E+03
 -1.09147E+04 -9.82070E+03  3.45849E+02 -1.44930E+04  1.01483E+04 -7.42686E+03  1.07930E+04  3.55438E+03
  1.09099E+03  1.06336E+04 -9.39402E+03  1.15960E+04 -1.55131E+04  5.33206E+03 -1.47892E+04 -6.09602E+03
 -7.76869E+03 -1.60271E+04  4.07922E+03 -1.90730E+04  1.65308E+04 -1.20281E+04  1.83778E+04  3.84503E+03
  1.23474E+04  1.47664E+04 -1.82272E+03  1.73533E+04 -1.20453E+04  9.59709E+03 -1.27042E+04 -5.69327E+02
 -1.14256E+04 -1.17527E+04 -1.14795E+03 -1.39139E+04  6.91646E+03 -1.00048E+04  8.15717E+03 -2.34511E+03
  4.09948E+03  4.05312E+03 -1.39940E+03  2.88816E+03 -3.18044E+03 -3.14430E+03  1.77749E+03 -8.05909E+03
  1.28628E+04 -4.66356E+03  1.71504E+04  1.66773E+03  1.74419E+04  1.22822E+04  1.07960E+04  2.15758E+04
 -5.44635E+03  2.63261E+04 -2.08794E+04  1.71820E+04 -2.74985E+04  4.73012E+03 -2.22430E+04 -1.01897E+04
 -1.28072E+04 -1.91120E+04  9.20042E+01 -1.65805E+04  5.80789E+03 -7.34486E+03  5.58708E+03 -4.68098E+03
  4.41270E+03 -4.51894E+03  4.10910E+03 -3.67853E+03  6.49608E+03 -2.72311E+03  9.53417E+03 -2.51784E+03
  1.14602E+04  2.82151E+03  7.32312E+03  1.04618E+04 -1.82174E+03  1.22478E+04 -1.21800E+04  8.64142E+03
 -1.50593E+04 -2.82984E+03 -1.02121E+04 -1.06096E+04 -2.26303E+03 -1.71047E+04  9.10423E+03 -1.68707E+04
  1.92123E+04 -1.06467E+04  2.08024E+04  3.51474E+03  1.50530E+04  1.48612E+04  1.94606E+03  1.99855E+04
 -8.71349E+03  1.51640E+04 -1.06489E+04  5.02579E+03 -8.31468E+03 -3.04007E+03 -2.29853E+03 -1.72683E+03
  1.59963E+02 -8.36395E+02 -1.79786E+03  2.58283E+03 -8.02765E+03  2.62474E+03 -1.03011E+04 -7.55432E+02
 -6.36714E+03 -1.06526E+04 -2.38096E+02 -1.63257E+04  9.22285E+03 -1.44783E+04  1.65986E+04 -3.85470E+03
  1.56356E+04  7.55369E+03  5.77452E+03  1.51089E+04 -1.63057E+03  1.51561E+04 -1.25634E+04  8.89962E+03
 -1.50684E+04 -5.89586E+02 -1.07731E+04 -1.01529E+04 -1.19993E+03 -1.34360E+04  7.28004E+03 -1.00973E+04
  8.57151E+03 -2.73598E+03  7.67580E+03  3.90489E+03  2.80275E+03  4.60111E+03  1.20971E+03  2.85413E+03
  4.50215E+03  8.40716E+02  4.07252E+03  3.28755E+03  4.78991E+03  4.59405E+03  3.36248E+03  9.87451E+03
 -4.16826E+03  1.25764E+04 -1.21549E+04  1.37076E+04 -1.66684E+04  2.44081E+03 -1.77447E+04 -6.78351E+03
 -6.96101E+03 -1.66493E+04  1.95767E+03 -1.69063E+04  1.13098E+04 -1.20559E+04  1.26784E+04 -2.57361E+03
  1.07748E+04  5.50184E+03  2.74271E+03  7.90812E+03 -3.92660E+03  5.19848E+03 -8.14014E+03  5.05987E+00
 -3.29610E+03 -8.04555E+03  4.33182E+03 -6.60059E+03  6.64545E+03 -2.62093E+03  6.96801E+03  3.26766E+02
  5.78114E+03  2.91559E+03  2.66268E+03  2.97933E+03 -9.86042E+02  2.90736E+03  1.04028E+03 -1.69676E+03
  1.19841E+03 -2.41191E+03  7.41914E+03  2.85218E+03  3.01670E+03  8.08099E+03 -2.15053E+03  1.10595E+04
 -7.55886E+03  8.17165E+03 -1.04920E+04  3.25833E+03 -8.78945E+03 -4.82000E+03 -3.37915E+03 -5.75561E+03
  1.85983E+03 -4.83413E+03  5.01186E+03 -2.97118E+03  3.00056E+03  2.07738E+03  3.14923E+02  5.36560E+03
 -6.97179E+03  4.40616E+03 -7.06787E+03 -4.84255E+03 -4.65368E+03 -9.38149E+03  3.05582E+03 -8.54835E+03
  5.54248E+03 -6.96448E+03  6.54838E+03 -2.35554E+02  5.13502E+03  1.91908E+03 -8.68350E+02  5.18631E+03
 -2.97055E+03  1.36850E+03 -3.91019E+03 -2.10068E+03  2.66407E+03 -7.35260E+03  8.07936E+03 -7.18215E+03
  1.02488E+04  1.17427E+03  1.01685E+04  6.21924E+03  3.64953E+03  9.43254E+03 -4.16485E+03  1.03642E+04
 -1.03544E+04  3.93346E+03 -9.40355E+03 -2.68904E+03 -3.32439E+03 -6.78665E+03  1.88193E+03 -9.29081E+03
  6.44415E+03 -2.89353E+03  5.95418E+03  3.44938E+03  1.40446E+03  7.65690E+03 -2.60601E+03  6.20484E+03
 -2.87585E+03  4.34480E+03 -3.44745E+03  1.73368E+03 -5.94164E+02  7.94928E+02 -1.07903E+03  2.18267E+03
 -4.57237E+03  3.99694E+03 -7.60687E+03  3.84163E+03 -1.29414E+04 -3.89015E+02 -1.23934E+04 -8.90104E+03
 -6.02239E+03 -1.41681E+04  3.70990E+03 -1.75625E+04  1.20074E+04 -1.25604E+04  1.44926E+04 -5.91013E+03
  1.43770E+04  2.91433E+03  7.84945E+03  1.00689E+04 -4.30588E+02  1.08407E+04 -4.91359E+03  8.14242E+03
 -5.49504E+03  3.21871E+03 -5.47628E+03 -1.10264E+03 -1.26207E+03 -3.99686E+02 -1.81003E+03  3.30015E+02
 -1.90462E+03  2.00869E+03 -1.08327E+03  3.85299E+02 -3.31972E+01 -2.46135E+03 -5.26959E+02 -4.38557E+03
  2.35521E+03 -2.91219E+03  6.13020E+03  6.25335E+01  6.08815E+03  6.26573E+03  3.42204E+03  1.09090E+04
 -3.93481E+03  1.37883E+04 -1.05737E+04  8.38394E+03 -1.33445E+04 -1.81509E+03 -1.15837E+04 -7.67569E+03
 -3.86115E+03 -1.17569E+04  3.18243E+03 -1.15900E+04  6.29217E+03 -6.02019E+03  7.48211E+03  1.20211E+03
  5.94550E+03  4.06562E+03 -4.35285E+02  4.53601E+03 -2.84999E+03 -1.25364E+03  8.06914E+01 -3.47210E+03
  4.04554E+03 -1.31975E+03  3.57238E+03  2.49722E+03  1.92500E+03  3.15699E+03  1.10544E+02  5.09203E+03
 -4.72659E+03  6.32114E+03 -6.41539E+03  9.32898E+02 -6.14471E+03 -4.10156E+03 -2.38485E+03 -9.70020E+03
  6.79471E+03 -6.65644E+03  9.81501E+03 -1.85183E+03  1.01643E+04  3.18746E+03  5.06910E+03  5.41067E+03
  3.88329E+02  7.48867E+03 -2.78403E+03  6.66551E+03 -5.45316E+03  3.97642E+03 -4.26775E+03  1.08471E+03
 -2.99733E+03 -2.11884E+02 -3.02065E+03  2.57952E+03 -3.08905E+03  3.58965E+02 -4.84470E+03 -1.62271E+03
 -5.49023E+03 -3.57333E+03 -2.75843E+03 -6.78149E+03  4.16169E+03 -8.99875E+03  6.56201E+03 -2.90861E+03
  5.62480E+03  5.68488E+02  3.46358E+03  6.53327E+03 -2.85528E+02  6.18115E+03 -4.94139E+03  5.36819E+03
