 $NMID ID='MM_0lb_SNR200_17hz_g45_26.RAW', FMTDAT='(8E13.5)'
 TRAMP=1., VOLUME=1. $END
  3.10234E+05  9.30917E+02  3.35806E+05  2.50245E+05  8.37310E+04  3.37839E+05 -1.33114E+05  2.51193E+05
 -1.89713E+05  8.23730E+04 -1.10510E+05 -3.22493E+04  2.23118E+03 -5.08756E+04  5.36763E+04  1.09880E+02
  3.55450E+04  5.38518E+04 -1.64929E+04  7.47993E+04 -5.98888E+04  6.30785E+04 -8.27267E+04  3.13811E+04
 -8.12111E+04 -1.17297E+04 -5.52560E+04 -5.15715E+04 -1.42724E+04 -6.85237E+04  2.70443E+04 -4.50764E+04
  3.84878E+04  4.51830E+03  1.47820E+04  4.83979E+04 -3.49339E+04  4.64812E+04 -6.56381E+04 -8.61143E+02
 -5.21085E+04 -5.65259E+04 -6.89581E+03 -7.58707E+04  3.34317E+04 -5.34892E+04  4.77361E+04 -1.59681E+04
  4.22972E+04  1.12841E+04  3.12437E+04  2.43069E+04  1.62874E+04  2.85306E+04 -4.83784E+03  2.70667E+04
 -2.13984E+04  1.24190E+04 -1.92336E+04 -5.49545E+03  4.54782E+03 -8.21601E+03  2.17363E+04  1.08939E+04
  6.19594E+03  3.45268E+04 -3.03862E+04  3.34422E+04 -6.12462E+04  2.53028E+03 -5.52163E+04 -4.10600E+04
 -1.21171E+04 -6.16697E+04  3.92718E+04 -4.41880E+04  5.55590E+04 -9.89331E+02  3.21278E+04  3.12153E+04
 -6.72724E+03  3.35374E+04 -3.01886E+04  1.41745E+04 -2.84795E+04 -4.10784E+03 -1.44896E+04 -1.03218E+04
 -7.06169E+03 -1.11241E+04  4.99696E+02 -1.78745E+04  7.25794E+03 -2.22544E+04  1.56214E+04 -1.33809E+04
  1.33020E+04  3.79876E+03 -7.30645E+03  1.20175E+04 -2.15636E+04 -2.54264E+03 -8.09252E+03 -3.14442E+04
  2.08482E+04 -4.18465E+04  4.48326E+04 -1.82930E+04  4.34079E+04  1.82165E+04  1.43085E+04  4.15015E+04
 -1.52486E+04  3.24867E+04 -2.41684E+04  7.85469E+02 -9.11550E+03 -2.70378E+04  2.01713E+04 -3.37308E+04
  3.73929E+04 -6.97188E+03  3.29285E+04  2.25214E+04  1.61096E+04  4.32740E+04 -8.30033E+03  4.67425E+04
 -2.89151E+04  3.10650E+04 -3.71061E+04  9.39019E+03 -3.90433E+04 -1.58885E+04 -2.09590E+04 -3.55329E+04
  7.27211E+03 -3.45760E+04  3.02710E+04 -1.36058E+04  2.74666E+04  9.93171E+03  2.92079E+03  1.92654E+04
 -1.36470E+04  7.74026E+03 -9.80301E+03 -8.28237E+03  5.59153E+03 -1.00853E+04  1.74732E+04  5.47754E+03
  1.05573E+04  2.08500E+04 -5.91188E+03  2.38667E+04 -2.17578E+04  1.06798E+04 -2.56928E+04 -6.38905E+03
 -1.81699E+04 -1.72335E+04 -5.38068E+03 -1.77447E+04  4.08028E+03 -1.62379E+04  1.39442E+04 -1.58839E+04
  2.25871E+04 -1.13446E+04  2.92158E+04  2.26763E+03  2.10983E+04  1.75570E+04  3.97827E+03  3.29216E+04
 -1.63136E+04  2.83328E+04 -2.72663E+04  1.00255E+04 -2.04460E+04 -9.54015E+03 -3.96707E+03 -1.46403E+04
  2.02729E+03 -2.73186E+03 -2.47565E+03  5.71808E+03 -1.39057E+04  5.62827E+03 -1.30733E+04 -4.87086E+03
 -9.72089E+03 -1.63912E+04  4.16505E+03 -1.96505E+04  1.29840E+04 -1.51887E+04  1.50624E+04 -1.88481E+03
  8.60769E+03  1.11169E+04 -7.63944E+02  1.64934E+04 -1.13879E+04  9.08731E+03 -1.59803E+04 -4.64023E+03
 -1.17066E+04 -1.44782E+04 -1.20040E+03 -2.02492E+04  8.27316E+03 -1.59192E+04  1.67214E+04 -8.37976E+03
  1.63013E+04  1.88831E+03  1.15007E+04  3.76166E+03  6.42322E+03  1.55382E+03  7.12680E+03 -1.81237E+03
  1.57042E+04  2.99216E+03  1.58763E+04  1.38958E+04  9.09829E+03  2.68135E+04 -3.40279E+03  2.88008E+04
 -1.66879E+04  2.22022E+04 -2.69415E+04  1.05046E+04 -2.77239E+04 -1.65926E+03 -2.39752E+04 -1.69079E+04
 -1.08505E+04 -2.17429E+04  7.68326E+03 -2.12105E+04  1.85133E+04 -1.16827E+04  1.54396E+04  4.51210E+03
  7.47500E+03  1.13662E+04 -7.09856E+03  1.04351E+04 -1.41376E+04  2.56651E+03 -1.07708E+04 -9.05337E+03
  2.40992E+02 -1.41192E+04  6.26752E+03 -1.00284E+04  9.36340E+03 -1.83497E+03  8.86680E+02  5.59859E+03
 -6.58249E+03  2.67808E+03 -3.69662E+03 -4.11666E+03  9.57287E+02 -1.12113E+04  8.32939E+03 -1.28092E+04
  1.37075E+04 -5.06703E+03  1.25772E+04  2.76652E+03  1.11446E+04  1.04194E+04  6.74638E+03  1.56559E+04
 -2.49211E+03  1.70670E+04 -1.11993E+04  1.16359E+04 -1.18301E+04  2.19722E+03 -9.32009E+03 -1.65639E+03
 -4.39564E+03 -3.03988E+03 -2.01480E+02  9.75646E+02 -2.04782E+03  2.22891E+03 -4.43655E+03  3.43951E+03
 -9.03343E+03  5.49981E+02 -9.03070E+03 -6.82680E+03 -4.00389E+03 -1.30847E+04  3.74400E+03 -8.18324E+03
  7.61362E+03 -2.98304E+03  6.34770E+03  2.88309E+03  6.94858E+02  4.07732E+03 -3.53916E+03  1.07135E+03
 -3.72462E+03 -5.80192E+03 -1.80463E+02 -7.76585E+03  4.21610E+03 -8.85170E+03  9.77861E+03 -3.47577E+03
  1.26652E+04 -3.32553E+02  9.43504E+03  6.11483E+03  2.02790E+03  9.78101E+03 -5.76436E+03  8.90317E+03
 -7.04901E+03  3.81389E+03 -3.53067E+03 -2.10812E+03  1.31841E+03 -3.32427E+03  4.40310E+03 -1.07281E+03
  5.22962E+03  3.24800E+03  3.54195E+02  6.62046E+03 -4.32890E+03  7.87139E+03 -7.17218E+03  2.36616E+03
 -5.74041E+03 -4.63347E+03  2.43485E+02 -7.24900E+03  3.28839E+03 -2.49780E+03  4.74462E+03  1.44195E+03
 -5.26780E+02  3.80975E+03 -4.62349E+03  7.41305E+03 -5.32727E+03  2.45656E+03 -5.53193E+03 -2.05446E+03
 -3.59755E+03 -7.18730E+03  9.25729E+02 -8.06245E+03  6.46064E+03 -5.12807E+03  8.06608E+03  1.22727E+03
  5.73858E+03  6.14247E+03  2.83879E+02  7.06773E+03 -6.01629E+03  3.92294E+03 -5.64168E+03 -1.51842E+03
 -6.53484E+03 -5.86658E+03 -1.62299E+03 -6.53426E+03  2.27902E+03 -6.13286E+03  4.01915E+03 -2.55929E+03
  3.57379E+03  1.86953E+02  2.87827E+02  9.58087E+02  8.48646E+01  1.24334E+02  1.04382E+03 -3.18580E+03
  3.65522E+03 -1.02505E+03  7.37381E+03  1.24066E+03  6.46027E+03  3.71964E+03  5.78320E+03  8.25660E+03
 -2.22651E+03  9.50982E+03 -8.92234E+03  6.90191E+03 -1.13845E+04  3.01249E+03 -9.41175E+03 -2.12505E+03
 -5.99670E+03 -6.39849E+03  8.41220E+01 -6.12778E+03  3.44516E+03 -2.74259E+03  1.14151E+03 -3.63110E+03
  1.11843E+03 -1.94929E+03  3.17691E+03 -3.83756E+03  3.87571E+03 -1.74016E+03  3.50638E+03 -1.11233E+03
  5.42109E+03  1.39698E+03  1.33072E+03  3.33417E+03 -1.05858E+03  3.63581E+03 -4.70305E+03  4.12440E+03
 -5.82979E+03 -8.79316E+02 -2.16951E+03 -5.08618E+03 -9.65585E+01 -5.81508E+03  4.38995E+03 -7.16891E+03
  5.78516E+03 -4.44982E+03  7.42898E+03  1.38945E+02  5.78700E+03  4.84669E+03  1.71738E+03  8.53694E+03
 -2.35175E+03  7.80844E+03 -3.87370E+03  9.84504E+02 -1.86755E+03 -3.13805E+02 -1.51570E+03 -3.39540E+02
  4.68667E+01  1.45779E+02 -4.17793E+02  3.30872E+03 -2.13351E+03  6.78764E+02 -4.37577E+03  1.99740E+02
 -1.90250E+03 -3.62747E+03  9.37566E+02 -5.60848E+03  2.88651E+03 -5.63548E+03  5.33346E+03 -9.11059E+02
  4.28513E+03  2.98239E+03  3.51414E+03  3.32660E+03 -2.17393E+03  5.17064E+03 -3.21640E+03  3.12868E+03
 -4.56800E+03  7.12207E+02 -4.77057E+03 -3.42429E+03 -9.15589E+02 -4.74445E+03  1.74076E+03 -2.68621E+03
  2.99222E+03 -2.38218E+03  2.05290E+03  7.39551E+02  1.17115E+03  1.89828E+03 -8.89122E+01  3.19614E+02
  1.40708E+03 -1.03237E+02  2.14004E+03  1.31488E+03  9.53770E+02  2.32282E+03  1.31015E+03  1.90062E+03
 -2.02786E+03  3.78983E+03 -3.63276E+03  5.67673E+03 -3.75315E+03  4.52332E+02 -4.58462E+03 -1.16338E+03
 -2.60513E+03 -3.87486E+03  3.18902E+02 -6.38948E+03  3.23894E+03 -3.32640E+03  3.62180E+03 -1.72635E+03
  2.63098E+03  1.09102E+03  1.33671E+02  3.13157E+03 -2.30880E+03  1.95114E+03 -1.35021E+03 -1.87009E+03
  1.22490E+01 -2.10786E+03  1.83936E+03 -1.63408E+03  3.14685E+03 -1.52320E+03  2.48000E+03  8.57054E+02
  1.28470E+03  7.82928E+02  5.12842E+02 -1.73284E+02 -6.77421E+02  8.73951E+02  1.80872E+03  5.78940E+02
 -5.56764E+02 -6.24641E+02  2.06406E+03  4.92614E+02  8.80789E+01  3.70675E+03 -6.98367E+02  3.33579E+03
 -5.98704E+02  4.31588E+02 -3.42784E+03  1.10652E+03 -2.54209E+03 -3.05791E+02 -8.32242E+02 -1.47121E+03
  1.49082E+03 -1.23759E+03  9.80655E+02 -1.35043E+03  8.86530E+02  2.13349E+03 -4.18472E+02  1.65266E+03
 -1.94976E+03  1.38904E+03 -9.59231E+02 -7.86248E+02 -1.32774E+03 -1.50130E+03  3.00108E+02 -3.04798E+03
  7.78705E+02 -1.75838E+02  1.11518E+01 -4.24439E+02  9.83772E+02 -3.94486E+02 -3.90050E+02  2.08794E+03
 -1.35945E+02  1.28824E+03 -1.15721E+03  4.09942E+02 -2.11131E+02 -1.03802E+03  2.26147E+03 -9.43302E+02
  2.03649E+03  1.44164E+02  4.21341E+03  3.40306E+02  1.76636E+03  7.64087E+02  4.68980E+02  1.22954E+03
 -3.09805E+03 -2.66460E+02 -1.48618E+03  1.19082E+02 -7.05747E+02 -4.69907E+02  9.48793E+00 -1.34690E+03
  2.82869E+03  1.39641E+02  1.36505E+03  1.18946E+03 -6.05998E+02  2.46538E+03  5.45091E+02  1.63795E+03
 -4.01839E+02  1.48870E+03 -2.47548E+02 -1.52754E+02 -3.54089E+02  9.19523E+02 -1.36093E+03  1.11178E+03
 -4.66867E+02  1.41250E+03 -2.26581E+03  4.52241E+02 -2.78138E+03  6.17714E+02 -3.81505E+03 -2.68715E+03
 -1.87118E+03 -3.21250E+03  5.34112E+02 -4.06049E+03  1.81007E+03 -3.27614E+03  2.77070E+03 -9.51661E+02
  4.39068E+03  6.11449E+02  3.33744E+03  2.42165E+03 -2.82023E+02  1.95498E+03 -3.26617E+02  1.50420E+03
 -2.61169E+03  1.34612E+03 -2.09411E+03 -7.60378E+02 -1.49862E+03  3.39119E+02 -1.06021E+03  1.13172E+02
 -8.67851E+02  3.68257E+02 -1.69269E+03  4.55553E+02 -2.42274E+02  2.30849E+02  1.16275E+03 -1.74946E+03
  1.60788E+03 -9.48516E+02  1.06797E+03  9.21591E+02  2.07370E+03  6.09541E+02 -1.27015E+02  2.20177E+03
 -1.40019E+03  3.09081E+03 -1.99227E+03  2.06978E+03 -3.11924E+03 -2.84659E+02 -1.22054E+03 -1.74908E+03
 -1.86095E+03 -1.30091E+03  2.65576E+02 -1.19300E+03 -5.85033E+02 -1.02095E+03  1.56587E+03 -4.21148E+02
  1.33802E+03  4.09220E+02 -3.07493E+02  4.27417E+01 -1.24168E+03 -7.31113E+02 -5.10182E+02  5.30058E+01
  5.36742E+02  1.96411E+02 -6.26483E+02  9.37485E+01  2.09106E+02 -5.32801E+02 -2.25015E+01 -1.63488E+02
 -7.37146E+02  8.84629E+02 -6.79979E+02 -8.51968E+01  6.73224E+01 -1.02725E+03 -4.04756E+02 -2.44566E+03
  9.81289E+02 -2.01494E+03  4.67665E+02 -5.51883E+02  1.83724E+03 -1.34942E+03 -4.75382E+02  1.08417E+03
  8.10901E+02 -6.60009E+01  5.46037E+02  6.28219E+02 -1.41727E+03 -7.65835E+02 -2.47894E+02  1.89169E+02
 -1.65154E+02 -1.14186E+03 -1.22833E+03  9.89063E+02 -7.37402E+02 -5.84617E+02 -7.37502E+02 -5.61167E+02
 -5.66037E+02  2.14552E+02 -3.03562E+01 -1.50099E+03  4.96188E+02 -1.83605E+03  2.44438E+02 -1.07986E+03
  1.30017E+03  2.22012E+02 -6.84516E+02  1.11668E+03 -1.88687E+03  8.96142E+02 -6.20185E+02  1.56701E+03
