 $NMID ID='MM_0lb_SNR200_18hz_g45_7.RAW', FMTDAT='(8E13.5)'
 TRAMP=1., VOLUME=1. $END
  3.10616E+05 -1.15338E+02  3.37375E+05  2.50239E+05  8.39701E+04  3.36569E+05 -1.33759E+05  2.51047E+05
 -1.89063E+05  8.14685E+04 -1.11267E+05 -3.29973E+04  1.04448E+03 -5.04824E+04  5.36455E+04 -1.39598E+02
  3.54215E+04  5.26245E+04 -1.76331E+04  7.51565E+04 -6.06021E+04  6.28941E+04 -8.32453E+04  3.21270E+04
 -7.88951E+04 -1.14928E+04 -5.62745E+04 -5.00813E+04 -1.52753E+04 -7.01773E+04  2.77863E+04 -4.57777E+04
  3.91708E+04  3.83873E+03  1.52610E+04  4.66753E+04 -3.52480E+04  4.59830E+04 -6.51429E+04 -6.80157E+02
 -5.17735E+04 -5.66750E+04 -6.22012E+03 -7.58472E+04  3.29849E+04 -5.27208E+04  4.55075E+04 -1.63193E+04
  4.08815E+04  1.15778E+04  3.07442E+04  2.51408E+04  1.67440E+04  2.93637E+04 -4.39498E+03  2.58974E+04
 -2.15954E+04  1.35975E+04 -1.82933E+04 -4.08722E+03  3.91833E+03 -7.04837E+03  2.09601E+04  1.06139E+04
  6.93848E+03  3.43830E+04 -3.10004E+04  3.51937E+04 -6.12106E+04  1.98343E+03 -5.54088E+04 -4.04063E+04
 -1.28963E+04 -6.04811E+04  3.85804E+04 -4.41124E+04  5.55522E+04 -2.23555E+03  3.12577E+04  3.07297E+04
 -7.56119E+03  3.37417E+04 -2.82049E+04  1.38973E+04 -2.73441E+04 -5.60800E+03 -1.48240E+04 -9.36779E+03
 -7.04933E+03 -1.21436E+04 -1.13695E+03 -1.65142E+04  5.65518E+03 -2.29083E+04  1.49928E+04 -1.28430E+04
  1.12932E+04  3.68109E+03 -6.06723E+03  1.30500E+04 -1.91699E+04 -1.84199E+03 -7.22279E+03 -3.03882E+04
  2.06932E+04 -4.14651E+04  4.51767E+04 -1.88613E+04  4.05398E+04  1.90702E+04  1.45157E+04  4.16510E+04
 -1.58335E+04  3.10845E+04 -2.48619E+04  2.41489E+02 -8.60270E+03 -2.60663E+04  1.94959E+04 -3.19806E+04
  3.77631E+04 -7.89742E+03  3.18151E+04  2.35873E+04  1.58768E+04  4.23996E+04 -7.17254E+03  4.64958E+04
 -2.94610E+04  3.03346E+04 -3.79796E+04  8.13928E+03 -3.84513E+04 -1.49019E+04 -2.05752E+04 -3.46126E+04
  6.73809E+03 -3.37259E+04  2.94037E+04 -1.18671E+04  2.67782E+04  1.10655E+04  2.70202E+03  1.85887E+04
 -1.36980E+04  7.32550E+03 -1.02078E+04 -7.38001E+03  5.91697E+03 -1.00894E+04  1.71612E+04  6.43154E+03
  1.19967E+04  2.21456E+04 -5.95897E+03  2.32065E+04 -2.12101E+04  1.02552E+04 -2.54707E+04 -5.59264E+03
 -1.65421E+04 -1.67932E+04 -6.41823E+03 -1.57366E+04  3.18893E+03 -1.46165E+04  1.20468E+04 -1.49636E+04
  2.16165E+04 -1.25576E+04  2.90216E+04  9.90463E+02  2.12151E+04  1.60231E+04  4.62766E+03  3.34091E+04
 -1.62801E+04  2.78340E+04 -2.51849E+04  9.25160E+03 -2.05522E+04 -1.04806E+04 -3.84433E+03 -1.36865E+04
  2.30062E+03 -4.07302E+03 -2.70198E+03  3.74278E+03 -1.22626E+04  4.88208E+03 -1.38746E+04 -5.49182E+03
 -9.66724E+03 -1.56822E+04  2.88767E+03 -1.95224E+04  1.22984E+04 -1.37647E+04  1.49469E+04 -1.47783E+03
  9.58865E+03  1.05179E+04 -6.38668E+02  1.61566E+04 -9.10314E+03  9.58529E+03 -1.61012E+04 -3.80895E+03
 -1.19118E+04 -1.42259E+04 -1.56586E+03 -1.85936E+04  9.23044E+03 -1.52428E+04  1.51834E+04 -7.39918E+03
  1.49915E+04  1.00869E+02  1.01032E+04  4.12160E+03  6.18229E+03  7.17454E+02  7.90754E+03 -1.48892E+03
  1.43232E+04  1.99787E+03  1.49555E+04  1.20478E+04  9.80240E+03  2.60589E+04 -3.71532E+03  2.74278E+04
 -1.63929E+04  1.97060E+04 -2.44257E+04  1.00438E+04 -2.49853E+04 -2.80965E+03 -2.25638E+04 -1.45441E+04
 -9.45095E+03 -2.03869E+04  8.39000E+03 -2.02798E+04  1.66172E+04 -1.16863E+04  1.54236E+04  3.59730E+03
  5.83811E+03  1.12192E+04 -5.57244E+03  9.60092E+03 -1.29002E+04  2.26608E+03 -1.05440E+04 -7.99666E+03
  7.16892E+02 -1.26165E+04  6.94243E+03 -9.80880E+03  8.09497E+03 -1.30956E+03  2.50572E+03  5.56166E+03
 -4.64714E+03  5.99967E+02 -3.59673E+03 -5.79825E+03 -8.28428E+02 -1.03933E+04  7.69673E+03 -1.07621E+04
  1.31780E+04 -5.38293E+03  1.25646E+04  2.77946E+03  1.00581E+04  9.80106E+03  5.57132E+03  1.48366E+04
 -2.75017E+03  1.55847E+04 -9.34939E+03  1.03435E+04 -1.13822E+04  2.41809E+03 -8.15425E+03 -2.35158E+03
 -4.98863E+03 -4.49632E+03 -7.30706E+01  1.76226E+03 -1.59233E+03  3.02857E+03 -3.80604E+03  4.53708E+03
 -7.91920E+03 -4.17996E+02 -8.61840E+03 -8.31781E+03 -3.77069E+03 -1.13153E+04  3.25157E+03 -8.86853E+03
  7.39997E+03 -3.67437E+03  4.80033E+03  2.62264E+03  7.70737E+01  2.52124E+03 -3.38288E+03 -3.69764E+02
 -4.15327E+03 -4.89136E+03 -1.28664E+03 -7.06071E+03  4.34943E+03 -9.09254E+03  8.45657E+03 -4.20235E+03
  1.18594E+04  7.26988E+02  8.38239E+03  7.29525E+03  2.79877E+03  8.70212E+03 -4.47484E+03  9.08320E+03
 -6.30630E+03  1.41529E+03 -2.51459E+03 -2.19544E+03  1.20066E+03 -2.55822E+03  4.78972E+03 -1.37762E+03
  3.45467E+03  3.74829E+03  1.02774E+03  7.21355E+03 -5.45093E+03  5.87918E+03 -7.92101E+03  2.16169E+03
 -4.68159E+03 -4.10346E+03  1.64502E+02 -6.11877E+03  4.44511E+03 -3.00620E+03  4.42472E+03  1.41404E+03
  4.37297E+02  3.10419E+03 -2.96243E+03  4.43713E+03 -5.28606E+03  3.08210E+03 -5.08252E+03 -1.49038E+03
 -2.84100E+03 -6.17369E+03  7.60758E+02 -7.01766E+03  5.31359E+03 -3.97811E+03  7.15911E+03  2.00655E+03
  5.02323E+03  5.58185E+03 -4.37911E+02  7.63846E+03 -4.96615E+03  4.12306E+03 -6.33000E+03 -8.36533E+02
 -5.16227E+03 -5.96301E+03 -7.84091E+02 -4.98499E+03  2.12560E+03 -4.52138E+03  2.46019E+03 -2.90935E+03
  1.80420E+03  3.38996E+02 -9.55850E+02  1.40103E+03  3.87289E+02 -1.31194E+03 -2.41641E+02 -2.07394E+03
  3.82236E+03 -1.58496E+03  5.46510E+03  1.72078E+02  4.78342E+03  3.42923E+03  4.54597E+03  7.23064E+03
 -1.92973E+03  8.99479E+03 -7.46996E+03  6.81938E+03 -1.10556E+04  1.88657E+03 -8.49918E+03 -2.98811E+03
 -3.56164E+03 -7.10747E+03  1.17790E+02 -4.78056E+03  1.97778E+03 -2.38413E+03  1.12096E+03 -2.53468E+03
  1.94996E+03 -1.98452E+03  2.24919E+03 -2.85069E+03  3.06525E+03 -2.50321E+03  4.07298E+03  2.19592E+03
  4.90198E+03  1.44264E+03  1.30314E+03  2.80621E+03 -2.38176E+03  3.06989E+03 -3.87329E+03  3.23321E+03
 -4.68834E+03 -4.74331E+02 -1.86014E+03 -4.46669E+03  1.40142E+02 -4.12057E+03  3.17163E+03 -5.71254E+03
  4.45650E+03 -2.91300E+03  8.13253E+03  7.12390E+02  5.51628E+03  4.19731E+03  1.62053E+03  7.69675E+03
 -3.07027E+03  5.20639E+03 -3.29620E+03  2.67582E+03 -2.32440E+03 -1.07599E+03 -4.18826E+02 -9.01783E+01
  7.37337E+00  2.05277E+03  5.17413E+01  2.80717E+03 -2.86865E+03  9.80375E+02 -4.52036E+03 -2.57742E+02
 -2.17679E+03 -4.88278E+03  3.24638E+02 -5.17691E+03  3.17456E+03 -4.81084E+03  4.16259E+03 -2.05653E+03
  4.63029E+03  3.11570E+03  1.94510E+03  3.71518E+03 -1.05217E+03  4.68978E+03 -3.46022E+03  2.39219E+03
 -3.85242E+03 -4.05920E+01 -3.32157E+03 -2.90264E+03 -4.10020E+02 -3.54275E+03  1.65665E+03 -3.52831E+03
  2.92332E+03 -6.46688E+02  2.40979E+03  6.48939E+02 -3.25285E+02  7.70539E+02 -3.66092E+01  6.72857E+02
  1.28931E+03  5.49151E+01  2.00244E+03  1.85467E+03  9.11759E+02  3.13938E+03  1.69144E+03  3.04881E+03
 -2.87533E+03  3.90047E+03 -2.85599E+03  2.98814E+03 -2.88050E+03  1.41943E+03 -3.60749E+03 -6.34520E+02
 -2.30217E+03 -4.79221E+03 -1.15823E+03 -6.02598E+03  1.56725E+03 -2.07100E+03  3.87214E+03 -1.27466E+03
  2.24855E+03  6.71917E+02  4.94974E+02  1.75464E+03 -3.79467E+02  2.08356E+03 -2.70501E+03  5.94596E+02
 -1.26398E+03 -1.93055E+03  1.07055E+03 -3.09727E+03  1.45049E+03 -1.68914E+03  6.70273E+02  1.01374E+03
  1.39674E+03 -1.63732E+02  4.50880E+02  6.31435E+01 -6.71225E+02  9.84354E+02  1.62456E+03 -3.87477E+02
 -4.64613E+01 -7.18267E+02  1.52086E+03  1.88869E+03  3.30237E+02  3.47156E+03  3.66529E+02  3.39866E+03
 -5.40061E+02  1.53741E+03 -2.25369E+03  5.35210E+02 -1.53882E+03 -1.09326E+03 -1.58730E+02 -1.04867E+03
  1.05507E+03 -2.73471E+03  1.24011E+03 -6.46486E+02  1.69879E+02  9.14048E+02 -1.97002E+03  1.38028E+03
 -1.20783E+03  1.79912E+03 -4.30898E+02 -1.25604E+03 -1.41201E+03 -2.15560E+03 -2.92002E+02 -1.42966E+03
  5.45757E+02  7.34138E+02  6.21220E+02  2.50607E+02  1.66101E+03  2.43832E+02  4.59984E+02  1.62517E+03
 -1.56345E+02 -9.63376E+02 -8.06013E+02 -6.65835E+02  1.23306E+03 -1.60814E+03  2.48588E+03 -1.36550E+03
  2.52454E+03 -3.31741E+02  2.60540E+03  8.07280E+02  8.67030E+02  1.34103E+03 -3.10141E+02  1.78134E+03
 -1.75951E+03  1.67147E+02 -2.26628E+03  4.08622E+02 -9.68709E+02 -9.27889E+02  4.62097E+02 -1.12781E+03
  1.99088E+03 -1.05886E+03  9.58760E+02  1.57920E+03 -5.42874E+02  1.08680E+03  3.21254E+02  5.56464E+02
 -5.90225E+02  1.30160E+03  4.25946E+02  8.00461E+02 -1.05905E+02 -5.29584E+02 -1.54323E+03  1.23345E+03
 -1.01464E+03  1.36053E+03 -2.95772E+03  4.77324E+02 -1.37010E+03  7.63094E+02 -2.48719E+03 -1.18823E+03
 -5.04332E+02 -3.06505E+03  4.16330E+02 -2.80859E+03  8.50266E+02 -2.59821E+03  2.85884E+03 -1.03771E+03
  2.85145E+03 -6.45790E+02  9.44201E+02  2.16156E+03 -1.34280E+03  2.35552E+03 -3.66209E+02 -5.35847E+01
 -5.14919E+02  1.74990E+03 -4.98105E+02 -2.17614E+02 -9.75335E+02 -2.55924E+02 -8.63514E+02  7.95752E+01
 -5.72578E+02  1.93507E+02 -9.57068E+02  1.14819E+03 -2.55603E+02 -1.17786E+03  2.52323E+02 -2.29878E+03
  1.24795E+03 -6.01064E+02  8.36692E+02  1.12708E+02  1.18394E+03  8.61372E+02 -7.57659E+02  5.90862E+02
 -1.78184E+03  1.89845E+03 -1.79108E+03  1.52297E+03 -1.17677E+03 -9.81636E+02 -6.57839E+02 -1.86454E+03
 -4.99778E+02 -1.17654E+03  7.30453E+02 -1.56169E+03  1.09577E+03 -4.47639E+02  3.32695E+02 -1.33032E+02
  5.97251E+02  1.36016E+03 -5.49834E+02 -2.60379E+02 -9.04771E+02 -1.33546E+02  4.97918E+02  3.55182E+02
  1.72012E+03 -9.88579E+01  7.41137E+02  1.18356E+03  1.55103E+02 -2.52159E+00  6.52188E+02 -2.18379E+01
 -1.61359E+02  1.51503E+03 -6.83322E+02  1.88172E+01 -1.00280E+03 -9.03008E+02 -4.39377E+02 -1.45191E+03
  4.42340E+02 -1.75255E+02  1.76826E+03 -1.18697E+02  7.39213E+02 -5.86884E+02  9.58238E+02  1.94977E+03
  9.15510E+02  7.17973E+02 -2.58867E+02  1.57806E+03 -5.46081E+02  2.15419E+02  2.43925E+02  7.31705E+02
 -3.72991E+02  3.69905E+02  1.39963E+02 -3.46025E+01 -3.19332E+02  5.73786E+02 -5.23091E+02 -3.30779E+02
 -1.25689E+03  1.30521E+02 -7.81895E+02 -6.04365E+02  7.34722E+02 -7.11270E+02  1.45645E+03 -8.67082E+02
  2.98083E+02 -7.24760E+01 -1.75070E+03  2.58944E+02 -5.27615E+02  9.55872E+02  3.22432E+02 -1.65782E+02
