 $NMID ID='MM_0lb_SNR200_11hz_g55_25.RAW', FMTDAT='(8E13.5)'
 TRAMP=1., VOLUME=1. $END
  3.08731E+05  6.57263E+01  3.38328E+05  2.52109E+05  8.55123E+04  3.38648E+05 -1.32529E+05  2.52220E+05
 -1.89401E+05  8.41185E+04 -1.13449E+05 -3.23414E+04  2.91571E+02 -5.06516E+04  5.39900E+04  7.32934E+02
  3.56737E+04  5.27231E+04 -1.64095E+04  7.45801E+04 -6.09522E+04  6.45268E+04 -8.55395E+04  3.33594E+04
 -8.20850E+04 -1.19279E+04 -5.87613E+04 -5.10705E+04 -1.56512E+04 -7.03078E+04  2.64180E+04 -4.73946E+04
  4.15549E+04  3.98635E+03  1.56135E+04  4.95100E+04 -3.50146E+04  4.78927E+04 -6.60650E+04  2.19114E+02
 -5.46778E+04 -5.85883E+04 -7.67283E+03 -7.85359E+04  3.50560E+04 -5.47849E+04  4.98507E+04 -1.84189E+04
  4.60865E+04  1.01732E+04  3.26504E+04  2.53955E+04  1.54169E+04  2.99753E+04 -6.53482E+03  2.62869E+04
 -2.22771E+04  1.18190E+04 -1.82881E+04 -5.98215E+03  6.28198E+03 -7.71989E+03  2.12544E+04  1.42138E+04
  4.50422E+03  3.75909E+04 -3.45275E+04  3.53165E+04 -6.64121E+04  2.21474E+03 -5.96882E+04 -4.48425E+04
 -1.19498E+04 -6.40860E+04  4.16233E+04 -4.70498E+04  6.11850E+04 -2.38467E+03  3.52823E+04  3.23578E+04
 -7.14257E+03  3.75277E+04 -3.09932E+04  1.76340E+04 -3.22995E+04 -4.11487E+03 -1.88005E+04 -1.19015E+04
 -8.10637E+03 -1.38783E+04 -2.63774E+03 -1.94444E+04  6.78511E+03 -2.11824E+04  1.52832E+04 -1.34678E+04
  1.03862E+04  5.36252E+03 -1.03101E+04  1.18724E+04 -2.38352E+04 -6.12302E+03 -7.96614E+03 -3.60652E+04
  2.55213E+04 -4.59161E+04  5.05013E+04 -1.92784E+04  4.82276E+04  1.94870E+04  1.67922E+04  4.50321E+04
 -1.50244E+04  3.49014E+04 -2.78813E+04  2.34957E+03 -1.24406E+04 -3.00622E+04  2.07906E+04 -3.58852E+04
  4.31082E+04 -1.13472E+04  3.91862E+04  2.51913E+04  1.97406E+04  4.99002E+04 -7.11896E+03  5.37367E+04
 -3.39762E+04  3.70980E+04 -4.58688E+04  1.08626E+04 -4.55437E+04 -1.84665E+04 -2.68261E+04 -4.29166E+04
  7.39998E+03 -4.24309E+04  3.38924E+04 -1.74618E+04  3.19188E+04  1.10923E+04  5.08763E+03  2.05626E+04
 -1.47807E+04  9.75913E+03 -1.20080E+04 -7.70296E+03  6.56980E+03 -1.08450E+04  1.90843E+04  5.88350E+03
  1.43298E+04  2.12656E+04 -4.64315E+03  2.77104E+04 -2.29398E+04  1.48680E+04 -3.04623E+04 -3.79938E+03
 -2.43435E+04 -1.69148E+04 -1.02331E+04 -2.31951E+04  3.32550E+03 -2.31112E+04  1.86453E+04 -2.14172E+04
  3.00710E+04 -1.43011E+04  3.71734E+04  3.25209E+03  2.66072E+04  2.40484E+04  5.07225E+03  3.97216E+04
 -1.93162E+04  3.25386E+04 -2.96051E+04  1.32601E+04 -2.23548E+04 -1.06151E+04 -4.67974E+03 -1.18195E+04
  1.38441E+02 -9.35615E+00 -6.99418E+03  7.55183E+03 -1.91963E+04  6.94407E+03 -2.05209E+04 -9.12202E+03
 -1.11662E+04 -2.18695E+04  6.01525E+03 -2.63035E+04  1.74654E+04 -1.82195E+04  2.11459E+04 -4.48942E+02
  1.34277E+04  1.43319E+04 -6.63639E+02  2.18674E+04 -1.63873E+04  1.13939E+04 -2.14360E+04 -6.11563E+03
 -1.58254E+04 -2.07990E+04 -2.06003E+03 -2.70026E+04  1.21454E+04 -2.00500E+04  2.18827E+04 -1.15489E+04
  2.11929E+04  2.56253E+02  1.45383E+04  3.63113E+03  8.33764E+03  1.92715E+03  9.34986E+03 -2.05038E+03
  2.08159E+04  2.11970E+03  2.34813E+04  1.73881E+04  1.58590E+04  3.46707E+04 -2.08572E+03  4.15133E+04
 -2.42525E+04  3.39912E+04 -3.85333E+04  1.67584E+04 -4.15796E+04 -1.53869E+03 -3.48643E+04 -2.30759E+04
 -1.36831E+04 -3.50688E+04  1.23163E+04 -3.10648E+04  2.48996E+04 -1.60915E+04  2.13322E+04  7.26385E+03
  7.78830E+03  1.88332E+04 -1.05029E+04  1.45401E+04 -1.96451E+04  2.58569E+03 -1.54109E+04 -1.27845E+04
 -1.12202E+03 -1.87515E+04  9.74354E+03 -1.27351E+04  1.28418E+04 -5.48902E+02  2.39430E+03  8.90809E+03
 -8.86920E+03  4.27008E+03 -8.53443E+03 -6.34850E+03 -9.36069E+02 -1.60090E+04  1.18466E+04 -1.86798E+04
  2.12713E+04 -1.14908E+04  2.29702E+04  1.93705E+03  1.96459E+04  1.80166E+04  9.97667E+03  2.51788E+04
 -4.62780E+03  2.79305E+04 -1.77133E+04  1.84639E+04 -2.11790E+04  3.58632E+03 -1.39346E+04 -6.54276E+03
 -6.43046E+03 -6.61377E+03  5.67898E+02  5.41596E+02 -2.10620E+03  4.26254E+03 -5.45952E+03  5.88179E+03
 -1.18977E+04 -1.90414E+02 -1.41543E+04 -1.17098E+04 -5.04504E+03 -1.73614E+04  6.99644E+03 -1.34496E+04
  1.16651E+04 -4.42986E+03  7.51392E+03  2.53043E+03 -2.23794E+02  7.59162E+03 -6.64452E+03 -4.35706E+02
 -6.05905E+03 -8.79377E+03 -6.09954E+02 -1.34638E+04  9.48025E+03 -1.34661E+04  1.81772E+04 -7.42470E+03
  2.07881E+04  1.87347E+03  1.59684E+04  1.20060E+04  3.66748E+03  1.55364E+04 -9.11342E+03  1.52394E+04
 -9.22985E+03  2.01823E+03 -6.41784E+03 -3.14524E+03  2.35337E+03 -3.81674E+03  6.59587E+03 -1.27915E+03
  7.09094E+03  4.48131E+03  1.93897E+03  1.08127E+04 -7.21974E+03  9.86317E+03 -1.43028E+04  3.11895E+03
 -9.89592E+03 -6.34464E+03 -1.37808E+02 -1.16567E+04  5.35286E+03 -5.44093E+03  8.48544E+03  1.44318E+03
  2.07868E+03  7.93058E+03 -6.38119E+03  1.05921E+04 -1.22836E+04  2.87237E+03 -1.25088E+04 -5.25136E+03
 -7.24178E+03 -1.26094E+04  3.69224E+03 -1.66385E+04  1.28313E+04 -7.99428E+03  1.37659E+04  3.64374E+03
  8.43524E+03  1.04512E+04 -4.38431E+02  1.49984E+04 -9.28595E+03  8.39331E+03 -1.16267E+04 -6.05381E+02
 -7.37095E+03 -9.15551E+03 -6.71976E+02 -1.05328E+04  6.89141E+03 -9.27905E+03  6.67276E+03 -4.71427E+03
  4.02716E+03  1.81612E+03 -6.98131E+02  2.32975E+03 -1.24188E+03 -2.58235E+03  1.73926E+03 -5.35936E+03
  1.05259E+04 -5.81248E+03  1.28448E+04  2.66580E+03  1.49810E+04  9.49929E+03  8.45598E+03  1.72023E+04
 -3.45307E+03  1.98197E+04 -1.86319E+04  1.52694E+04 -2.19744E+04  3.34504E+03 -1.89773E+04 -7.08951E+03
 -1.00866E+04 -1.40170E+04 -1.97346E+03 -1.28908E+04  3.42618E+03 -6.45223E+03  4.22427E+03 -3.60825E+03
  3.14542E+03 -2.60784E+03  2.94118E+03 -3.17312E+03  6.79899E+03 -3.01943E+03  7.34223E+03 -7.29745E+02
  9.69820E+03  2.09302E+03  5.57684E+03  6.67889E+03 -2.49094E+03  9.39392E+03 -9.50426E+03  7.92800E+03
 -1.25342E+04 -5.48037E+02 -8.22547E+03 -8.25515E+03 -1.63360E+03 -1.14419E+04  6.35000E+03 -1.42527E+04
  1.40237E+04 -6.71130E+03  1.51089E+04  1.78980E+03  1.09433E+04  1.08869E+04  1.66937E+03  1.43562E+04
 -5.29240E+03  1.18806E+04 -7.94006E+03  2.97944E+03 -6.34200E+03 -2.97746E+03 -1.42599E+03 -1.70053E+03
 -9.54155E+02 -1.87965E+02 -1.00859E+03  3.07255E+03 -4.62606E+03  2.30911E+03 -8.85774E+03 -9.49927E+02
 -5.20750E+03 -8.65444E+03 -8.04482E+02 -1.31656E+04  8.15580E+03 -1.18693E+04  1.21063E+04 -1.81487E+03
  1.17798E+04  6.55784E+03  6.30167E+03  1.03131E+04 -2.07196E+03  1.10624E+04 -7.20784E+03  7.61832E+03
 -1.09295E+04  5.65588E+02 -9.38225E+03 -6.38228E+03 -8.62034E+02 -8.67122E+03  4.73126E+03 -7.89788E+03
  9.05297E+03 -2.12532E+03  6.20467E+03  3.11705E+03  1.42425E+03  3.43716E+03  2.26166E+03  2.27482E+03
  1.82691E+03  1.18662E+03  4.02214E+03  1.74235E+03  3.76262E+03  4.14492E+03  4.52550E+03  5.31704E+03
 -3.33020E+03  8.14627E+03 -8.70535E+03  9.11688E+03 -1.22729E+04  1.84282E+03 -1.35912E+04 -6.07938E+03
 -5.48920E+03 -1.26659E+04  1.48769E+03 -1.38883E+04  7.25430E+03 -8.28049E+03  9.72764E+03 -2.07869E+03
  8.36131E+03  4.00530E+03  1.37077E+03  7.05459E+03 -3.08209E+03  5.13470E+03 -5.75989E+03  1.40427E+02
 -1.79132E+03 -4.75784E+03  2.90175E+03 -4.26677E+03  5.22633E+03 -3.84629E+03  3.32523E+03  1.02906E+03
  2.93958E+03  2.10271E+03  2.18253E+03  2.06119E+03 -1.32816E+03  2.21313E+03  1.92640E+03  4.64176E+02
  3.32094E+03 -1.84619E+03  4.87441E+03  1.88130E+03  3.94774E+03  6.53064E+03 -2.25607E+03  8.91740E+03
 -6.94301E+03  5.98939E+03 -7.12089E+03  1.33352E+03 -5.43994E+03 -3.71760E+03 -1.99847E+03 -4.92649E+03
  1.40527E+03 -4.21916E+03  3.17487E+03 -1.61233E+03  3.02967E+03  3.88059E+03 -1.93175E+03  3.56784E+03
 -5.74430E+03  1.26476E+03 -4.44617E+03 -3.51614E+03 -2.84205E+03 -5.87231E+03  9.71808E+02 -5.71892E+03
  5.08579E+03 -4.53121E+03  4.57337E+03  2.31288E+02  4.20265E+03  9.62627E+02  6.39199E+02  2.50211E+03
 -3.03949E+03  6.09776E+02 -2.52139E+03 -3.67110E+03  1.03465E+03 -5.59307E+03  5.56825E+03 -4.35018E+03
  8.24913E+03  4.10245E+02  7.04689E+03  4.72296E+03  1.96769E+03  7.00296E+03 -1.82766E+03  7.23229E+03
 -6.58506E+03  4.07542E+03 -7.08125E+03 -9.16593E+02 -2.68347E+03 -5.18778E+03  1.92238E+03 -2.52496E+03
  6.32398E+03 -1.91165E+03  3.87440E+03  3.25082E+03  7.51853E+02  5.23390E+03 -1.82209E+03  3.20813E+03
 -3.21323E+03  6.09158E+02 -1.41965E+03  3.45916E+02 -1.87493E+03  1.53426E+03 -1.13630E+03  3.31771E+03
 -1.99113E+03  2.28909E+03 -4.27684E+03  4.23534E+03 -7.20429E+03 -1.28545E+03 -7.75407E+03 -4.33260E+03
 -5.04666E+03 -7.98253E+03  2.35584E+03 -1.00932E+04  8.24268E+03 -9.59906E+03  1.03515E+04 -3.26245E+03
  9.16398E+03  1.20475E+03  5.37600E+03  7.03395E+03 -9.06269E+01  6.47773E+03 -3.57281E+03  5.76756E+03
 -5.29859E+03  2.59601E+03 -2.71959E+03 -9.63062E+02 -1.85914E+03 -5.04567E+02 -5.84274E+02 -2.47069E+02
 -1.24564E+03  9.71441E+02 -2.15573E+03 -1.07983E+03 -1.04965E+03 -1.10882E+03 -7.03969E+01 -2.39065E+03
  3.18473E+03 -2.27547E+03  3.60517E+03 -1.66418E+02  5.74880E+03  4.30795E+03  1.37126E+03  7.33770E+03
 -3.97633E+03  8.52511E+03 -7.78761E+03  6.66389E+03 -9.09720E+03  1.06074E+03 -6.32098E+03 -5.89462E+03
 -6.32277E+02 -5.90073E+03  3.89255E+03 -6.36988E+03  4.32577E+03 -5.64496E+03  4.19611E+03 -6.10018E+02
  2.19631E+03  2.08688E+03 -1.30893E+03  1.11290E+03 -1.35234E+03  7.12299E+01  3.93329E+02 -1.15306E+03
  2.52451E+03 -1.05360E+03  2.43548E+03  4.21915E+03  7.71856E+02  2.35737E+03 -3.74189E+02  4.44740E+03
 -2.52958E+03  2.68425E+03 -4.97029E+03  5.41864E+02 -5.54795E+03 -3.47593E+03  5.32209E+02 -4.79699E+03
  3.55559E+03 -5.36952E+03  5.26556E+03 -1.06341E+03  5.87894E+03  9.61301E+02  3.32303E+03  2.51910E+03
  1.25882E+03  4.94886E+03 -8.39605E+02  2.96847E+03 -2.91312E+03  1.66902E+03 -1.37344E+03  7.86385E+02
 -9.65323E+02 -1.25124E+03 -2.68654E+03  1.29819E+03 -3.69020E+03  2.19701E+03 -4.87057E+03 -6.19415E+02
 -4.96376E+03 -1.50383E+03 -1.30905E+03 -5.52733E+03  3.04189E+03 -4.37935E+03  5.11182E+03 -2.79010E+03
  4.12708E+03  9.13539E+02  2.15264E+03  3.56451E+03 -2.92486E+02  6.45859E+03 -3.23867E+03  3.34521E+03
