 $NMID ID='MM_0lb_SNR200_13hz_g50_55.RAW', FMTDAT='(8E13.5)'
 TRAMP=1., VOLUME=1. $END
  3.11976E+05  8.47600E+01  3.38806E+05  2.51557E+05  8.48791E+04  3.37254E+05 -1.33662E+05  2.49710E+05
 -1.89809E+05  8.31799E+04 -1.12046E+05 -3.28865E+04  9.34275E+02 -5.04113E+04  5.40125E+04  2.35299E+02
  3.64570E+04  5.37525E+04 -1.74621E+04  7.56792E+04 -6.02000E+04  6.27972E+04 -8.60110E+04  3.27249E+04
 -8.10354E+04 -1.15166E+04 -5.84272E+04 -5.21266E+04 -1.62962E+04 -6.99435E+04  2.81642E+04 -4.69430E+04
  4.05935E+04  3.12012E+03  1.70995E+04  4.84299E+04 -3.49944E+04  4.73650E+04 -6.69427E+04 -4.06987E+02
 -5.30367E+04 -5.73235E+04 -6.48904E+03 -7.75053E+04  3.29724E+04 -5.43131E+04  4.82393E+04 -1.85127E+04
  4.43149E+04  1.10248E+04  3.27521E+04  2.59174E+04  1.54347E+04  3.00047E+04 -4.54436E+03  2.73382E+04
 -2.28679E+04  1.24064E+04 -1.90426E+04 -4.42649E+03  6.06270E+03 -7.77311E+03  2.23275E+04  1.26807E+04
  8.48098E+03  3.56191E+04 -3.17190E+04  3.64811E+04 -6.48012E+04  1.66392E+03 -5.79890E+04 -4.27278E+04
 -1.23313E+04 -6.30899E+04  3.90829E+04 -4.67701E+04  5.77467E+04 -1.83091E+03  3.40884E+04  3.33416E+04
 -6.30567E+03  3.73052E+04 -3.03281E+04  1.63706E+04 -3.16214E+04 -4.45927E+03 -1.68285E+04 -1.12961E+04
 -8.68592E+03 -1.26663E+04 -6.99035E+02 -1.86613E+04  7.84550E+03 -2.44222E+04  1.57681E+04 -1.34139E+04
  1.08829E+04  5.39574E+03 -9.52742E+03  1.35092E+04 -2.25953E+04 -4.50675E+03 -7.84185E+03 -3.45717E+04
  2.49481E+04 -4.49655E+04  4.94354E+04 -1.94049E+04  4.59214E+04  2.02324E+04  1.66602E+04  4.60565E+04
 -1.45691E+04  3.32459E+04 -2.57172E+04  2.48930E+03 -9.94489E+03 -2.71590E+04  2.10464E+04 -3.52232E+04
  4.24201E+04 -9.10927E+03  3.66174E+04  2.54612E+04  1.94353E+04  4.68436E+04 -8.36140E+03  5.21338E+04
 -3.33793E+04  3.50236E+04 -4.40659E+04  1.03405E+04 -4.37949E+04 -1.66209E+04 -2.41043E+04 -3.91810E+04
  7.06164E+03 -3.85571E+04  3.04294E+04 -1.44107E+04  2.98011E+04  1.07559E+04  4.62682E+03  1.85554E+04
 -1.29702E+04  9.33177E+03 -9.07932E+03 -6.71885E+03  6.33161E+03 -1.12629E+04  1.76948E+04  6.83946E+03
  1.23835E+04  2.12870E+04 -5.38087E+03  2.51008E+04 -2.34400E+04  1.21892E+04 -2.78123E+04 -3.83908E+03
 -2.20660E+04 -1.73529E+04 -8.29765E+03 -2.19930E+04  4.34017E+03 -2.08412E+04  1.73803E+04 -1.80656E+04
  2.72958E+04 -1.26417E+04  3.19092E+04  2.77931E+03  2.49279E+04  1.98641E+04  3.08321E+03  3.76699E+04
 -1.67404E+04  3.03670E+04 -2.88321E+04  1.10887E+04 -2.21882E+04 -1.03055E+04 -5.32993E+03 -1.20848E+04
 -2.79462E+00 -2.04334E+03 -5.71072E+03  8.25231E+03 -1.60878E+04  5.16380E+03 -1.71836E+04 -7.82949E+03
 -1.06325E+04 -1.85919E+04  6.17493E+03 -2.38585E+04  1.49505E+04 -1.78427E+04  1.94729E+04 -2.43420E+03
  1.17618E+04  1.29495E+04 -7.05003E+02  1.88240E+04 -1.28031E+04  1.23101E+04 -2.02813E+04 -3.52610E+03
 -1.47289E+04 -1.71399E+04 -2.17672E+03 -2.42692E+04  1.21574E+04 -1.84669E+04  2.09344E+04 -1.00735E+04
  1.84736E+04 -6.53926E+02  1.39902E+04  4.85545E+03  7.41650E+03  4.47386E+01  1.04969E+04 -2.23104E+03
  1.82745E+04  2.85761E+03  2.03570E+04  1.62205E+04  1.36304E+04  3.24412E+04 -2.18593E+03  3.53133E+04
 -2.03693E+04  2.88988E+04 -3.49193E+04  1.34247E+04 -3.48179E+04 -2.01864E+03 -3.03758E+04 -2.09102E+04
 -1.10056E+04 -2.93030E+04  9.31321E+03 -2.61877E+04  2.31783E+04 -1.34615E+04  1.95308E+04  7.05172E+03
  7.48512E+03  1.53299E+04 -1.04294E+04  1.34640E+04 -1.62192E+04  2.47649E+03 -1.38283E+04 -1.03252E+04
  2.47786E+02 -1.62078E+04  7.69888E+03 -1.32078E+04  1.11748E+04 -1.23700E+03  2.36052E+03  7.62137E+03
 -7.05958E+03  3.20092E+03 -6.44842E+03 -5.99735E+03 -4.35232E+02 -1.51516E+04  8.82346E+03 -1.64533E+04
  1.88192E+04 -7.72526E+03  1.87102E+04  3.60237E+03  1.70921E+04  1.28055E+04  6.65967E+03  2.29021E+04
 -3.77193E+03  2.47388E+04 -1.44205E+04  1.42379E+04 -1.92597E+04  4.41898E+03 -1.21759E+04 -4.26919E+03
 -5.72665E+03 -6.05300E+03 -3.37916E+02  7.42416E+02 -2.77677E+03  3.62223E+03 -5.62461E+03  4.43343E+03
 -1.00323E+04 -2.02155E+03 -1.21549E+04 -9.58390E+03 -3.54599E+03 -1.66263E+04  4.01975E+03 -1.36241E+04
  1.05119E+04 -5.58299E+03  7.82321E+03  2.22540E+03  9.11686E+02  5.70825E+03 -5.24117E+03  9.17560E+02
 -5.11515E+03 -7.90875E+03  9.84136E+02 -1.05031E+04  6.12633E+03 -1.16032E+04  1.51778E+04 -7.26922E+03
  1.73013E+04  5.16305E+02  1.25561E+04  1.05514E+04  1.67915E+03  1.32286E+04 -7.47168E+03  1.17231E+04
 -9.03246E+03  4.34951E+03 -5.84571E+03 -3.15740E+03  2.25207E+03 -2.59405E+03  7.47505E+03 -1.28978E+03
  5.33147E+03  5.78213E+03  5.01041E+02  9.98617E+03 -7.62486E+03  8.31513E+03 -1.17020E+04  2.14288E+03
 -7.94915E+03 -6.32008E+03 -3.39577E+02 -1.01529E+04  5.16923E+03 -5.38599E+03  7.29605E+03  1.45656E+03
  1.20521E+03  6.47681E+03 -6.86882E+03  8.60405E+03 -9.12003E+03  3.18538E+03 -9.74808E+03 -3.40679E+03
 -5.47319E+03 -9.96119E+03  2.14816E+03 -1.27450E+04  1.01570E+04 -8.37459E+03  1.09008E+04  2.70576E+03
  7.53106E+03  8.18609E+03 -1.43167E+03  1.16296E+04 -7.91970E+03  6.32590E+03 -9.21339E+03 -1.63606E+03
 -8.16430E+03 -7.60867E+03 -6.27371E+02 -8.47767E+03  3.42878E+03 -6.82309E+03  5.14982E+03 -2.28300E+03
  4.89571E+03  8.73014E+02 -7.28669E+02  2.24255E+03 -8.32819E+02 -1.20076E+03  1.09211E+03 -4.23940E+03
  7.15267E+03 -3.82650E+03  1.08126E+04  2.42290E+03  9.95179E+03  5.96426E+03  7.28587E+03  1.49259E+04
 -3.27539E+03  1.67409E+04 -1.29523E+04  1.14133E+04 -1.75981E+04  1.71758E+03 -1.50244E+04 -5.42660E+03
 -7.45365E+03 -1.17310E+04 -7.15956E+01 -9.58798E+03  2.99443E+03 -4.60875E+03  3.43092E+03 -5.50875E+03
  3.16352E+03 -1.54862E+03  2.40318E+03 -3.32556E+03  4.87113E+03 -1.96818E+03  5.69595E+03  3.62168E+02
  6.75312E+03  2.65319E+03  3.66594E+03  6.61935E+03 -5.97044E+02  7.63861E+03 -7.84993E+03  6.25450E+03
 -9.84206E+03 -2.58711E+03 -5.78485E+03 -6.23250E+03 -4.79923E+02 -1.02605E+04  6.46627E+03 -1.11465E+04
  9.72031E+03 -6.25947E+03  1.20318E+04  1.59231E+03  9.38967E+03  8.84353E+03  2.16112E+03  1.16556E+04
 -5.65676E+03  1.04655E+04 -6.83195E+03  2.96292E+03 -3.83401E+03 -3.60579E+03 -1.33522E+03 -8.68073E+02
 -2.53326E+01 -3.57996E+02 -1.98634E+03  2.22521E+03 -4.67195E+03  2.50468E+03 -7.10974E+03 -6.57886E+02
 -4.57505E+03 -5.60228E+03 -3.34685E+02 -1.01631E+04  5.13568E+03 -8.45047E+03  9.86980E+03 -2.65778E+03
  9.26608E+03  4.02599E+03  3.21409E+03  8.72323E+03 -2.16564E+03  8.56887E+03 -7.74559E+03  5.94948E+03
 -8.72141E+03  5.91268E+02 -7.72338E+03 -6.07178E+03 -8.82481E+02 -8.51561E+03  4.43321E+03 -4.50375E+03
  6.67782E+03 -3.48617E+03  4.75116E+03  1.92029E+03  1.39046E+03  2.82951E+03  8.96417E+02  1.30898E+03
  2.07238E+03  1.51208E+03  1.87226E+03  1.51288E+03  4.34877E+03  2.33031E+03  2.44685E+03  5.41161E+03
 -1.05800E+03  7.27259E+03 -6.08067E+03  7.34213E+03 -9.49529E+03  2.26717E+03 -9.46207E+03 -3.24206E+03
 -5.47662E+03 -7.69774E+03  1.38989E+03 -8.84556E+03  5.48208E+03 -6.90372E+03  7.40594E+03 -2.60587E+03
  6.16049E+03  4.25847E+03  9.18663E+02  4.38284E+03 -3.50742E+03  1.58957E+03 -3.24333E+03 -1.65343E+02
 -1.78314E+03 -2.89851E+03  3.36828E+03 -3.87904E+03  3.02185E+03 -1.65735E+03  3.60620E+03  2.14580E+02
  2.48474E+03  1.74319E+03 -2.50383E+02  7.01823E+01 -1.29036E+03  1.14602E+03  1.96818E+03  1.28769E+02
  8.13635E+02 -4.15603E+02  3.65467E+03  1.47004E+03  1.28178E+03  4.29994E+03 -4.41772E+02  5.88350E+03
 -3.77106E+03  3.60721E+03 -6.32301E+03  1.85492E+03 -4.00357E+03 -1.78499E+03 -2.05329E+03 -3.74185E+03
  1.44239E+02 -4.08491E+03  1.88076E+03 -9.46320E+02  2.38522E+03  7.37222E+02 -1.63183E+03  2.95365E+03
 -3.57439E+03  1.72741E+03 -3.72528E+03 -3.27438E+03 -9.31036E+02 -5.90132E+03  1.40574E+03 -4.89404E+03
  2.32420E+03 -2.60426E+03  2.13465E+03  4.89318E+01  2.81110E+03  2.35919E+01  7.89403E+02  3.01116E+03
 -5.98854E+02  4.82616E+02 -3.14383E+03 -1.23658E+03  2.00834E+02 -3.07727E+03  5.14242E+03 -3.36321E+03
  3.39183E+03  3.72471E+02  4.48963E+03  2.79052E+03  1.41043E+03  5.65100E+03 -1.23390E+03  5.18370E+03
 -4.79173E+03  1.35275E+03 -3.39826E+03 -3.01316E+02 -1.44684E+03 -4.35653E+03  7.76166E+02 -3.10951E+03
  3.21025E+03 -2.02236E+03  3.09570E+03  2.15141E+03  3.41570E+02  2.31147E+03 -6.45841E+02  2.35695E+03
 -6.58208E+02  2.00457E+03 -8.00238E+02  2.71854E+02  1.20157E+01  1.20804E+03 -2.69153E+03  1.05195E+03
 -4.83197E+02  8.16297E+02 -3.77530E+03  1.93213E+03 -4.73156E+03  3.08125E+01 -6.44565E+03 -2.18079E+03
 -2.63858E+03 -5.97239E+03  5.48604E+02 -7.45958E+03  4.30677E+03 -5.22268E+03  6.88252E+03 -1.50400E+03
  6.74285E+03  1.57406E+03  4.11419E+03  3.15458E+03 -1.53038E+02  5.16524E+03 -2.55733E+03  4.54439E+03
 -3.08637E+03  1.50505E+03 -1.13165E+03 -1.77675E+02 -1.31466E+03 -2.35898E+01  1.33344E+03  5.38622E+02
 -1.24903E+03  6.66524E+02 -1.76035E+03  4.08449E+02  6.26313E+01 -1.61552E+03  4.62627E+02 -1.34315E+03
  2.38390E+03 -5.16401E+02  1.79816E+03  1.13061E+03  2.21644E+03  2.79475E+03  2.92725E+01  4.94537E+03
 -3.07451E+03  4.73368E+03 -4.56317E+03  4.41562E+03 -6.97580E+03 -1.38300E+03 -4.38408E+03 -3.33446E+03
 -3.34818E+03 -3.45835E+03  6.69184E+02 -4.27687E+03  3.15830E+03 -3.12471E+03  3.19553E+03 -2.04949E+02
  2.47758E+03  4.05399E+02 -3.85009E+02  8.46987E+02 -1.92613E+02  2.83167E+02 -2.64907E+02 -9.84631E+02
  1.79632E+03 -8.05656E+02  2.21194E+03  1.63410E+03  2.74406E+02  3.04846E+03 -3.47597E+01  2.56490E+03
 -1.61742E+03  2.98949E+03 -3.79882E+03  2.95413E+02 -2.99364E+03 -1.63154E+03 -1.07070E+03 -4.14783E+03
  2.39504E+03 -4.18925E+03  2.85904E+03 -4.81497E+01  3.22965E+03 -3.31808E+02  8.69668E+02  2.27487E+03
  1.38870E+02  3.29366E+03 -1.39462E+03  2.04108E+03 -1.51429E+03  1.20254E+03 -2.10164E+03 -1.08483E+02
 -2.70212E+03 -4.36059E+02 -2.09729E+03  1.26659E+03 -2.25232E+03  5.94513E+02 -8.25927E+02 -5.62671E+02
 -2.04384E+03 -2.30990E+03 -1.28957E+03 -2.79894E+03  1.98298E+03 -3.40460E+03  2.15558E+03 -5.00359E+02
  3.97556E+03  1.98261E+03 -3.16687E+02  1.84171E+03  1.49423E+02  3.15189E+03 -1.12116E+03  9.16706E+02
