 $NMID ID='MM_0lb_SNR200_17hz_g60_68.RAW', FMTDAT='(8E13.5)'
 TRAMP=1., VOLUME=1. $END
  3.10194E+05  1.81599E+01  3.37901E+05  2.49504E+05  8.32669E+04  3.38145E+05 -1.33053E+05  2.50476E+05
 -1.89792E+05  8.28587E+04 -1.11055E+05 -3.41500E+04  1.59170E+03 -4.99718E+04  5.46194E+04 -2.57429E+02
  3.44962E+04  5.24202E+04 -1.54800E+04  7.57242E+04 -6.07285E+04  6.37895E+04 -8.37779E+04  3.26096E+04
 -8.07256E+04 -1.08353E+04 -5.65658E+04 -5.11243E+04 -1.51527E+04 -6.91911E+04  2.67181E+04 -4.57274E+04
  4.03237E+04  3.34941E+03  1.61167E+04  4.66274E+04 -3.49356E+04  4.59686E+04 -6.67287E+04  1.41452E+02
 -5.34801E+04 -5.65067E+04 -6.75143E+03 -7.75982E+04  3.46022E+04 -5.42085E+04  4.79853E+04 -1.69288E+04
  4.28366E+04  1.20294E+04  3.11945E+04  2.59957E+04  1.56205E+04  2.84307E+04 -5.57592E+03  2.77851E+04
 -2.23498E+04  1.33491E+04 -1.93331E+04 -5.41136E+03  4.98974E+03 -8.00803E+03  2.21207E+04  1.27279E+04
  8.09483E+03  3.52393E+04 -3.25713E+04  3.56607E+04 -6.27899E+04  1.76947E+03 -5.73459E+04 -4.19586E+04
 -1.26906E+04 -6.30788E+04  4.02550E+04 -4.54720E+04  5.78334E+04 -1.52026E+03  3.33180E+04  3.17992E+04
 -5.89052E+03  3.56890E+04 -2.90503E+04  1.54637E+04 -2.99870E+04 -4.47439E+03 -1.61592E+04 -1.01403E+04
 -8.05500E+03 -1.21467E+04 -5.34974E+02 -1.84555E+04  7.17120E+03 -2.29595E+04  1.55632E+04 -1.35689E+04
  1.08955E+04  4.36362E+03 -7.37598E+03  1.27432E+04 -2.14266E+04 -3.29906E+03 -7.89621E+03 -3.29274E+04
  2.19685E+04 -4.32615E+04  4.84494E+04 -1.96830E+04  4.46881E+04  1.91815E+04  1.56957E+04  4.38143E+04
 -1.61349E+04  3.30837E+04 -2.53688E+04  1.07991E+03 -9.75606E+03 -2.74260E+04  2.14278E+04 -3.30662E+04
  4.01689E+04 -8.85174E+03  3.44872E+04  2.26683E+04  1.81420E+04  4.51679E+04 -7.35034E+03  4.88522E+04
 -3.14452E+04  3.25590E+04 -4.04354E+04  8.95961E+03 -4.06000E+04 -1.65251E+04 -2.32242E+04 -3.63465E+04
  7.91254E+03 -3.75259E+04  3.12123E+04 -1.43262E+04  2.90291E+04  9.87173E+03  3.46874E+03  1.87751E+04
 -1.22787E+04  6.84492E+03 -1.11862E+04 -7.75470E+03  5.38900E+03 -1.02580E+04  1.86963E+04  5.42164E+03
  1.41465E+04  2.21841E+04 -4.81149E+03  2.48343E+04 -2.25339E+04  1.01275E+04 -2.66098E+04 -5.43446E+03
 -1.94261E+04 -1.64273E+04 -7.22497E+03 -1.97122E+04  4.35233E+03 -1.95562E+04  1.37014E+04 -1.80217E+04
  2.60072E+04 -1.22335E+04  3.13886E+04  1.83663E+03  2.27334E+04  1.93883E+04  4.41764E+03  3.47272E+04
 -1.78376E+04  2.99301E+04 -2.75460E+04  9.75779E+03 -2.03174E+04 -9.83435E+03 -4.75278E+03 -1.45640E+04
  3.52452E+03 -3.34346E+03 -3.81938E+03  6.52382E+03 -1.51920E+04  5.01383E+03 -1.66655E+04 -4.95132E+03
 -9.72243E+03 -1.91271E+04  4.01865E+03 -2.19426E+04  1.43241E+04 -1.63456E+04  1.68852E+04 -1.32002E+03
  9.60018E+03  1.32494E+04 -1.26619E+03  1.79119E+04 -1.16052E+04  9.97069E+03 -1.74659E+04 -3.53107E+03
 -1.41144E+04 -1.60933E+04 -2.42206E+03 -2.16685E+04  8.70581E+03 -1.78561E+04  1.86575E+04 -8.99746E+03
  1.65000E+04  6.17827E+02  1.13943E+04  3.81375E+03  5.83877E+03  1.96608E+02  9.93009E+03 -2.66806E+03
  1.67431E+04  4.01202E+03  1.88323E+04  1.41008E+04  1.09069E+04  2.86754E+04 -3.13445E+03  3.15810E+04
 -1.81254E+04  2.58188E+04 -2.75784E+04  1.26388E+04 -3.00268E+04 -2.71772E+03 -2.59139E+04 -1.65621E+04
 -1.03903E+04 -2.58702E+04  8.16556E+03 -2.35018E+04  1.92466E+04 -1.14836E+04  1.78552E+04  5.89135E+03
  7.36399E+03  1.28732E+04 -9.07698E+03  1.19939E+04 -1.50830E+04  2.34322E+03 -1.15075E+04 -8.83387E+03
 -1.44697E+03 -1.38803E+04  7.33351E+03 -1.04250E+04  9.78970E+03 -7.74676E+02  1.50678E+03  6.63566E+03
 -6.40663E+03  2.33292E+03 -5.44676E+03 -5.39468E+03  1.30031E+02 -1.22207E+04  9.81951E+03 -1.27827E+04
  1.53416E+04 -6.99658E+03  1.42381E+04  3.22651E+03  1.29984E+04  1.15957E+04  6.04970E+03  1.81373E+04
 -3.63932E+03  2.00033E+04 -1.13943E+04  1.31242E+04 -1.46244E+04  3.79883E+03 -1.08520E+04 -3.19244E+03
 -4.01643E+03 -5.95875E+03  4.42935E+02  9.54714E+02 -1.44442E+03  4.61957E+03 -4.92106E+03  2.85978E+03
 -1.08219E+04 -1.19995E+03 -1.04411E+04 -7.61186E+03 -3.81758E+03 -1.41905E+04  4.69163E+03 -1.09734E+04
  6.90315E+03 -4.62164E+03  5.55334E+03  3.46529E+03  2.17778E+02  3.67946E+03 -4.01976E+03  1.07116E+03
 -4.20663E+03 -7.03904E+03 -7.88825E+02 -9.63274E+03  4.47543E+03 -9.13356E+03  1.26571E+04 -5.19115E+03
  1.44681E+04  2.37724E+03  1.08699E+04  7.55125E+03  2.19464E+03  1.10831E+04 -6.62964E+03  9.10925E+03
 -8.65307E+03  3.93250E+03 -3.70502E+03 -1.31137E+03  1.27807E+03 -2.90761E+03  5.27972E+03 -1.49582E+03
  4.76548E+03  5.14799E+03  4.01844E+02  8.18749E+03 -5.55422E+03  8.63664E+03 -9.51625E+03  2.67417E+03
 -5.13886E+03 -4.49639E+03  3.44857E+02 -8.70260E+03  4.94145E+03 -3.69592E+03  4.65319E+03  7.73622E+02
  7.19558E+02  3.96689E+03 -4.15850E+03  5.59175E+03 -7.18329E+03  2.30493E+03 -7.00528E+03 -2.47803E+03
 -3.98503E+03 -6.52799E+03  2.90070E+03 -1.00545E+04  8.35601E+03 -6.00604E+03  9.23176E+03  1.03752E+03
  6.99058E+03  6.82215E+03 -1.98023E+02  8.36113E+03 -6.43027E+03  5.41728E+03 -6.43078E+03 -4.72378E+02
 -6.22655E+03 -5.99050E+03 -2.42526E+03 -5.26941E+03  2.52151E+03 -5.29134E+03  3.70734E+03 -2.61498E+03
  3.17720E+03  1.37792E+03  2.71721E+02  1.39763E+03 -1.21656E+03 -1.00442E+03  1.22689E+03 -2.74322E+03
  4.39705E+03 -1.26772E+03  5.43167E+03  1.25256E+02  5.55187E+03  4.36878E+03  6.15112E+03  8.34937E+03
 -1.72053E+03  1.11533E+04 -1.05049E+04  8.32539E+03 -1.29108E+04  1.66829E+03 -9.48543E+03 -3.43089E+03
 -5.05931E+03 -8.55449E+03 -1.27351E+02 -6.33928E+03  1.45588E+03 -3.82085E+03  2.09021E+03 -2.61732E+03
  4.23143E+02 -1.92317E+03  1.24668E+03 -1.56453E+03  3.79132E+03 -9.78880E+02  4.40518E+03 -1.99906E+02
  5.29891E+03  1.44573E+03  2.67175E+03  4.72693E+03 -2.16116E+03  4.49135E+03 -5.96815E+03  3.59188E+03
 -7.17096E+03 -2.49200E+03 -3.47756E+03 -4.84737E+03  7.68024E+02 -7.27963E+03  3.99776E+03 -6.19283E+03
  7.37766E+03 -4.35702E+03  8.83251E+03 -3.47240E+02  6.23237E+03  5.87690E+03  1.71612E+03  7.60767E+03
 -3.38368E+03  7.07462E+03 -4.09168E+03  2.92775E+03 -3.01925E+03 -1.71936E+03 -6.28757E+02 -8.92874E+02
 -9.16658E+02  1.08777E+02 -5.59949E+02  2.16038E+03 -2.59191E+03  1.11113E+03 -5.42895E+03 -1.23626E+02
 -3.54730E+03 -5.30405E+03  3.85614E+02 -5.52784E+03  4.97007E+03 -5.17999E+03  4.56822E+03 -2.53467E+03
  5.84699E+03  4.04192E+03  1.40142E+03  4.27277E+03 -2.19962E+03  5.87686E+03 -3.18644E+03  3.37506E+03
 -4.61593E+03  9.81812E+02 -3.82200E+03 -2.39285E+03 -6.66374E+02 -5.56009E+03  2.19737E+03 -2.53409E+03
  3.91884E+03 -9.32914E+02  3.71206E+02  1.55426E+03  1.42177E+03  2.63721E+03  1.17788E+03 -3.60303E+02
  8.31518E+02  1.50090E+02  1.70532E+03  1.64329E+03  1.40252E+03  3.65584E+03  2.09035E+03  2.25107E+03
 -1.81290E+03  3.23760E+03 -3.35558E+03  5.63453E+03 -5.10250E+03  1.97885E+03 -5.42807E+03 -1.41812E+03
 -1.10148E+03 -5.32047E+03 -1.80574E+02 -7.00789E+03  3.26863E+03 -3.71127E+03  3.16519E+03 -1.85758E+03
  4.51651E+03  2.04030E+03  3.17008E+02  3.43734E+03 -1.27567E+03  1.68356E+03 -1.56384E+03 -1.14350E+03
 -3.30661E+02 -2.86578E+03  4.81080E+02 -1.92936E+03  2.79646E+03 -7.64885E+02  2.19215E+03  8.67765E+02
  8.62379E+01  4.30301E+02  1.65362E+03 -1.97979E+02 -3.94752E+02  4.26319E+02  1.19253E+03 -9.41842E+02
  1.37174E+02 -4.04092E+02  2.67908E+03  7.36228E+02  8.20683E+02  2.77569E+03 -5.69634E+02  3.24495E+03
 -2.76707E+03  2.27997E+03 -1.94862E+03  2.89196E+02 -4.11282E+03 -1.37856E+03 -1.95607E+03 -1.39022E+03
 -5.58597E+02 -1.55011E+03  1.01466E+03 -4.59642E+02  1.13165E+02  1.25578E+03 -8.91886E+02  1.87985E+03
 -2.89239E+03  7.65905E+02 -2.02384E+03 -1.71165E+03 -1.67760E+03 -3.18800E+03  7.38415E+02 -2.44629E+03
  1.69550E+03  1.71787E+02  2.21112E+03  5.24228E+02  1.58078E+03  9.64745E+02  7.04492E+02  1.25505E+03
 -1.32060E+03  8.49976E+02 -2.28530E+03 -1.09262E+03  2.53296E+02 -1.31149E+03  2.08258E+03 -1.27117E+03
  9.56396E+02  5.69051E+01  3.29374E+03  3.56121E+02  5.35931E+02  9.93372E+02 -8.62681E+01  2.80932E+03
 -2.37493E+03 -2.68994E+02 -2.11665E+03 -1.09212E+03 -1.34956E+03 -2.15246E+03  5.42492E+02 -2.19271E+02
  2.05824E+03 -1.60919E+03  3.96972E+02  4.58934E+02  1.21580E+03  1.06864E+03  2.52227E+02  2.00038E+03
 -5.64876E+02  1.07423E+03 -3.94926E+02  1.29340E+03  2.74489E+02  2.69558E+01 -1.95941E+03  7.05790E+02
 -9.58020E+02  3.06396E+03 -2.42180E+03  1.00145E+03 -2.57146E+03  1.03066E+03 -3.88264E+03 -5.76677E+02
 -1.17560E+03 -3.09121E+03  9.24931E+02 -3.95766E+03  1.39436E+03 -2.33109E+03  3.83031E+03 -2.42584E+02
  2.93334E+03  1.25005E+03  1.98953E+03  1.91161E+03 -1.54609E+03  2.51001E+03  1.85632E+02  1.02883E+03
 -1.81097E+03  1.03724E+03 -7.79948E+02  3.96415E+02 -2.61568E+02  1.59143E+02 -8.60239E+02 -9.47808E+01
 -1.54213E+03  1.42462E+02 -7.48148E+02 -5.16734E+01  5.00147E+01 -4.05073E+02  2.33336E+01 -1.35137E+03
  1.51458E+03 -3.01946E+02  1.56558E+02 -6.39401E+02  1.17585E+03  1.22706E+03 -2.79639E+01  8.75624E+02
 -1.61048E+03  3.57816E+03 -2.22012E+03  8.96246E+02 -3.04228E+03  3.80831E+02 -1.41856E+03 -1.90995E+03
 -1.36424E+03 -2.50408E+03  7.85175E+02 -2.02856E+03  3.70922E+02 -1.56945E+03  1.34419E+03  1.28705E+03
  1.42085E+03  7.32172E+02 -6.48562E+02 -8.90098E+01 -9.40985E+02 -4.33623E+02  5.07664E+01  7.40785E+02
  8.56758E+02  7.07228E+01  8.82943E+02  4.21808E+02  6.32714E+02  7.83973E+02  5.69857E+02  8.91618E+02
 -1.11133E+03  4.51275E+02 -1.61570E+03 -3.34296E+02 -1.56075E+03  3.42620E+01  1.73725E+00 -1.04982E+03
  5.20980E+02 -1.11895E+03  1.31424E+03 -1.65645E+02  1.64898E+03 -9.99005E+02  1.25343E+03  1.60122E+03
  1.68470E+03  1.55925E+03  4.64963E+02  3.96733E+02 -1.20554E+02  5.25072E+02 -2.36918E+01  4.17922E+02
 -1.48367E+03 -3.72218E+02 -1.71865E+03  4.10701E+02 -2.85361E+02  3.19850E+02 -1.22438E+03 -1.81067E+02
 -2.37899E+03  9.53967E+02 -7.52102E+02 -1.12023E+03  2.59644E+03 -1.86232E+03  9.37467E+02 -4.47540E+02
  8.74350E+02  7.02166E+02  9.66040E+01  1.28604E+03 -4.09288E+02 -3.82786E+02 -1.16574E+03  1.38472E+03
