 $NMID ID='MM_0lb_SNR200_9hz_g60_62.RAW', FMTDAT='(8E13.5)'
 TRAMP=1., VOLUME=1. $END
  3.09089E+05 -2.71776E+02  3.39774E+05  2.50738E+05  8.47683E+04  3.40455E+05 -1.33500E+05  2.51136E+05
 -1.92303E+05  8.22307E+04 -1.13823E+05 -3.19848E+04  5.39147E+02 -5.15845E+04  5.34678E+04 -1.81883E+02
  3.64793E+04  5.23217E+04 -1.62225E+04  7.72062E+04 -5.96820E+04  6.37987E+04 -8.45956E+04  3.01975E+04
 -8.25578E+04 -1.29217E+04 -5.87625E+04 -5.12585E+04 -1.54623E+04 -7.29060E+04  2.67461E+04 -4.59652E+04
  4.09090E+04  3.76671E+03  1.67109E+04  4.74147E+04 -3.57350E+04  4.90947E+04 -6.87252E+04 -7.20873E+01
 -5.60663E+04 -5.86171E+04 -9.14480E+03 -7.96579E+04  3.55377E+04 -5.77129E+04  5.16401E+04 -1.85829E+04
  4.59403E+04  1.13537E+04  3.42671E+04  2.69133E+04  1.54715E+04  3.24073E+04 -5.84821E+03  2.84254E+04
 -2.14875E+04  1.23122E+04 -1.87220E+04 -4.83841E+03  7.30821E+03 -5.78339E+03  2.27471E+04  1.34384E+04
  8.40510E+03  3.73296E+04 -3.29526E+04  3.61094E+04 -6.60533E+04  2.02293E+03 -5.86549E+04 -4.50635E+04
 -1.07970E+04 -6.50793E+04  4.26397E+04 -4.88162E+04  6.14706E+04 -3.20825E+03  3.62140E+04  3.40505E+04
 -4.40029E+03  4.03529E+04 -3.38675E+04  1.76450E+04 -3.46443E+04 -4.43148E+03 -1.98815E+04 -1.09767E+04
 -1.04259E+04 -1.57661E+04 -2.11635E+03 -2.03523E+04  8.59183E+03 -2.32942E+04  1.59253E+04 -1.37066E+04
  9.50293E+03  6.35133E+03 -9.91719E+03  1.38820E+04 -2.40995E+04 -6.83514E+03 -9.15114E+03 -3.83251E+04
  2.56047E+04 -4.84816E+04  5.16681E+04 -2.33459E+04  4.86458E+04  2.13345E+04  1.79405E+04  4.66451E+04
 -1.60821E+04  3.43952E+04 -2.85652E+04  2.82280E+03 -1.35619E+04 -3.07027E+04  2.21090E+04 -3.75371E+04
  4.63063E+04 -1.25464E+04  3.91158E+04  2.54110E+04  2.16899E+04  5.17654E+04 -7.78365E+03  5.78596E+04
 -3.61526E+04  3.77561E+04 -4.91487E+04  1.08416E+04 -4.78952E+04 -1.91119E+04 -2.60255E+04 -4.27980E+04
  7.41176E+03 -4.36122E+04  3.56467E+04 -1.95526E+04  3.31088E+04  1.36551E+04  5.01105E+03  2.16737E+04
 -1.36968E+04  1.03220E+04 -1.19134E+04 -7.54018E+03  5.43598E+03 -1.08438E+04  1.85597E+04  4.40104E+03
  1.51082E+04  2.32806E+04 -4.75340E+03  2.66378E+04 -2.43281E+04  1.50092E+04 -3.10839E+04 -2.22749E+03
 -2.53592E+04 -1.94678E+04 -1.20013E+04 -2.59492E+04  4.06176E+03 -2.63360E+04  1.94793E+04 -2.47588E+04
  3.30532E+04 -1.52614E+04  3.91402E+04  5.56604E+03  2.60022E+04  2.65552E+04  4.00346E+03  4.24880E+04
 -2.05053E+04  3.57867E+04 -3.13564E+04  1.33188E+04 -2.27020E+04 -9.86382E+03 -4.82651E+03 -1.34990E+04
  1.34381E+03  5.56847E+02 -9.00020E+03  8.95363E+03 -2.02644E+04  4.84297E+03 -2.07188E+04 -1.23843E+04
 -1.16834E+04 -2.54833E+04  6.03463E+03 -2.79841E+04  1.93193E+04 -1.99542E+04  2.39137E+04 -1.42110E+03
  1.52391E+04  1.84922E+04 -8.30573E+02  2.45690E+04 -1.69578E+04  1.35063E+04 -2.43925E+04 -5.74389E+03
 -1.85457E+04 -2.23494E+04 -4.09267E+03 -2.93081E+04  1.31199E+04 -2.35451E+04  2.27285E+04 -1.35313E+04
  2.31629E+04  3.43862E+02  1.65222E+04  6.22215E+03  9.01986E+03  7.27457E+02  1.20969E+04 -2.45844E+03
  2.36508E+04  4.09079E+03  2.86708E+04  1.80404E+04  1.85808E+04  3.81156E+04 -2.96602E+03  4.58996E+04
 -2.63872E+04  3.97332E+04 -4.38353E+04  2.03463E+04 -4.79332E+04 -3.61148E+03 -3.91277E+04 -2.90513E+04
 -1.32404E+04 -4.06466E+04  1.39863E+04 -3.33698E+04  2.97358E+04 -1.56947E+04  2.40618E+04  9.08144E+03
  8.76651E+03  1.89118E+04 -1.05831E+04  1.82219E+04 -2.08032E+04  4.59774E+03 -1.56067E+04 -1.45220E+04
  5.29162E+02 -2.07800E+04  1.22305E+04 -1.45269E+04  1.43448E+04  5.84236E+01  3.66062E+03  8.79616E+03
 -9.09981E+03  4.66051E+03 -1.08733E+04 -6.80507E+03 -3.17831E+03 -1.89307E+04  1.26579E+04 -2.02464E+04
  2.51544E+04 -1.08906E+04  2.69567E+04  2.36393E+03  2.51868E+04  1.95162E+04  1.11638E+04  3.12606E+04
 -6.87797E+03  3.28422E+04 -2.26658E+04  2.16813E+04 -2.39806E+04  1.78499E+03 -1.60501E+04 -5.93367E+03
 -7.33994E+03 -6.98613E+03 -3.31423E+02  4.92352E+02 -3.07368E+03  2.74519E+03 -7.37180E+03  5.88012E+03
 -1.49133E+04 -8.06025E+02 -1.48404E+04 -1.25844E+04 -6.40642E+03 -2.15226E+04  6.86852E+03 -1.63425E+04
  1.24189E+04 -6.64334E+03  9.29421E+03  5.36972E+03  9.30108E+02  6.49878E+03 -8.77825E+03  1.83118E+03
 -7.74934E+03 -9.98603E+03 -7.64218E+02 -1.67299E+04  9.52875E+03 -1.75045E+04  2.10901E+04 -9.37370E+03
  2.71943E+04  4.90157E+03  1.89247E+04  1.64648E+04  3.25065E+03  2.08196E+04 -9.66403E+03  1.51090E+04
 -1.29251E+04  5.37615E+03 -5.73987E+03 -2.92460E+03  2.63187E+03 -4.18684E+03  8.92551E+03 -4.26336E+02
  8.39143E+03  7.01087E+03  1.99750E+03  1.29305E+04 -1.02922E+04  1.11597E+04 -1.65156E+04  2.80058E+03
 -1.16812E+04 -8.63606E+03  1.45929E+03 -1.47236E+04  9.17554E+03 -8.03125E+03  9.83383E+03  3.62980E+03
  2.30796E+02  9.56825E+03 -8.90203E+03  1.22050E+04 -1.44881E+04  4.71211E+03 -1.63194E+04 -6.96372E+03
 -9.09355E+03 -1.66070E+04  3.62628E+03 -2.09617E+04  1.75362E+04 -1.30575E+04  1.99797E+04  3.79279E+03
  1.01349E+04  1.52316E+04 -1.88581E+03  1.72813E+04 -1.14182E+04  9.95918E+03 -1.33660E+04 -2.26913E+03
 -1.29356E+04 -1.10004E+04 -9.78004E+02 -1.28393E+04  7.69620E+03 -9.43118E+03  7.73952E+03 -3.95890E+03
  6.49208E+03  6.28444E+02 -7.50281E+02  1.43168E+03 -7.60532E+01 -3.24536E+03  3.25243E+03 -6.66171E+03
  1.27657E+04 -5.27561E+03  1.74993E+04  1.65113E+03  1.83923E+04  1.20790E+04  1.09782E+04  2.20384E+04
 -7.39910E+03  2.54093E+04 -2.24220E+04  1.86528E+04 -2.59577E+04  3.70512E+03 -2.37588E+04 -9.20870E+03
 -9.95811E+03 -1.83243E+04 -3.26318E+02 -1.40442E+04  7.13752E+03 -9.34337E+03  3.79763E+03 -6.76596E+03
  3.09417E+03 -3.27304E+03  3.85881E+03 -4.92351E+03  7.25028E+03 -2.62725E+03  8.40234E+03 -3.45821E+03
  1.26566E+04  2.65019E+03  7.71514E+03  1.01368E+04 -1.61416E+03  1.24814E+04 -1.21707E+04  9.91882E+03
 -1.59423E+04 -1.69021E+03 -9.01101E+03 -1.12733E+04 -1.39333E+03 -1.60495E+04  1.01010E+04 -1.73068E+04
  1.79621E+04 -1.03889E+04  2.04683E+04  4.68398E+03  1.54879E+04  1.47051E+04  3.03426E+03  2.11457E+04
 -6.03380E+03  1.64335E+04 -1.17000E+04  5.63274E+03 -7.61741E+03 -2.55959E+03 -2.53602E+03 -2.12404E+03
 -1.67634E+03  7.58356E+02 -2.22245E+03  2.40919E+03 -8.13676E+03  2.25717E+03 -1.06704E+04 -3.24411E+03
 -8.44117E+03 -1.05565E+04 -6.32948E+02 -1.37960E+04  1.04670E+04 -1.46812E+04  1.51911E+04 -3.57303E+03
  1.68594E+04  7.76563E+03  6.18569E+03  1.40270E+04 -2.00015E+03  1.64106E+04 -1.32013E+04  1.03829E+04
 -1.48586E+04 -4.92596E+02 -1.37487E+04 -9.96786E+03 -9.21533E+02 -1.45571E+04  6.79642E+03 -9.42394E+03
  1.01615E+04 -1.76342E+03  7.98592E+03  2.47407E+03  2.96644E+03  3.90194E+03  1.32251E+03  1.15817E+03
  2.45643E+03  7.68191E+02  4.19054E+03  2.92085E+03  4.48744E+03  5.42222E+03  3.58649E+03  8.58947E+03
 -2.41563E+03  1.37026E+04 -9.94630E+03  1.26004E+04 -1.76197E+04  2.60795E+03 -1.49397E+04 -7.10706E+03
 -6.37106E+03 -1.79198E+04  1.46798E+02 -1.67290E+04  1.04560E+04 -1.22305E+04  1.31640E+04 -2.80295E+03
  1.10789E+04  5.41644E+03  2.06267E+03  8.87114E+03 -6.01900E+03  5.52446E+03 -6.76630E+03 -5.50825E+02
 -4.45949E+03 -5.85501E+03  4.40135E+03 -8.39417E+03  6.08543E+03 -3.64651E+03  7.19696E+03  3.24691E+01
  3.44107E+03  3.46800E+03  1.32176E+03  3.02540E+03 -1.88418E+01  1.04736E+02  6.94339E+02 -9.77141E+02
  3.39765E+03 -2.11118E+01  6.50272E+03  2.20695E+03  3.97841E+03  9.17159E+03 -1.83811E+03  1.23341E+04
 -7.47623E+03  8.29950E+03 -1.03828E+04  2.91233E+03 -8.82787E+03 -4.48731E+03 -3.76459E+03 -6.16347E+03
  2.35040E+03 -6.32895E+03  3.78227E+03 -1.97969E+03  3.19658E+03  3.65304E+03 -1.87028E+03  6.48732E+03
 -6.46266E+03  3.64705E+03 -7.17609E+03 -4.20711E+03 -4.85936E+03 -9.63692E+03  2.72986E+03 -8.74588E+03
  5.93443E+03 -4.87136E+03  7.17050E+03  6.56162E+02  4.23231E+03  1.31773E+03  1.57453E+03  4.55174E+03
 -4.60466E+03  8.14123E+02 -2.72443E+03 -3.89783E+03  1.18348E+03 -7.30481E+03  7.11009E+03 -5.76905E+03
  1.09693E+04  1.78352E+03  9.41504E+03  6.93739E+03  3.78105E+03  1.08111E+04 -2.83598E+03  1.12829E+04
 -8.24473E+03  3.67113E+03 -8.97399E+03 -2.03491E+03 -3.94997E+03 -7.55378E+03  8.03989E+02 -5.69425E+03
  6.66467E+03 -3.24469E+03  4.93973E+03  2.37719E+03  1.54236E+03  4.37656E+03 -9.00858E+02  4.00483E+03
 -1.72394E+03  2.37297E+03 -3.56338E+03  3.23370E+03  2.89043E+02  4.04368E+02 -1.13407E+03  1.84208E+03
 -2.79549E+03  3.88590E+03 -6.07844E+03  3.86371E+03 -1.08423E+04 -4.68324E+02 -1.31736E+04 -6.46139E+03
 -5.88929E+03 -1.49271E+04  2.40204E+03 -1.82716E+04  1.04347E+04 -1.34138E+04  1.60844E+04 -4.64773E+03
  1.52609E+04  3.87045E+03  9.87568E+03  1.01367E+04 -8.34294E+02  1.10555E+04 -4.56545E+03  6.95261E+03
 -5.75676E+03  2.22845E+03 -3.70597E+03 -2.19649E+03  8.81181E+01 -1.78175E+03 -9.38950E+02 -2.14538E+03
 -2.93418E+03 -4.97298E+02 -3.87402E+03  1.65790E+02 -7.52509E+02 -2.18257E+03  2.65062E+02 -5.12140E+03
  5.10065E+03 -5.15574E+03  6.53600E+03 -1.54450E+02  6.84289E+03  7.77395E+03  2.97627E+03  1.19074E+04
 -6.07071E+03  1.37261E+04 -1.09615E+04  7.18032E+03 -1.35497E+04 -5.84103E+02 -9.39520E+03 -7.74990E+03
 -2.73732E+03 -1.31662E+04  2.19928E+03 -1.06758E+04  8.68863E+03 -5.99962E+03  7.30906E+03  2.50483E+03
  5.05371E+03  2.11074E+03  4.28429E+02  3.15665E+03 -1.44764E+03  1.05807E+03 -7.57696E+02 -7.93038E+02
  3.23375E+03 -2.75545E+03  4.35095E+03  1.64321E+03  3.94077E+03  4.98840E+03  3.40800E+01  5.38678E+03
 -4.49463E+03  3.75702E+03 -7.19825E+03  6.87492E+02 -6.17731E+03 -5.54814E+03 -1.38385E+03 -9.83434E+03
  5.10524E+03 -9.69835E+03  8.72429E+03 -3.17529E+03  7.75631E+03  1.63560E+03  6.00134E+03  6.44190E+03
  1.34122E+02  7.24496E+03 -2.09154E+03  5.03421E+03 -4.36400E+03  3.30831E+03 -4.08551E+03  8.32616E+02
 -2.34884E+03 -3.00102E+02 -3.03616E+03  1.87737E+03 -2.41533E+03  5.13805E+02 -5.27698E+03 -4.88675E+02
 -4.71662E+03 -4.52197E+03 -1.17678E+03 -7.16988E+03  4.51066E+03 -7.82333E+03  6.60582E+03 -3.12183E+03
  7.85042E+03  1.35376E+03  5.81659E+03  8.09761E+03 -1.23476E+03  6.61261E+03 -4.78056E+03  7.18867E+03
