 $NMID ID='MM_0lb_SNR200_19hz_g45_90.RAW', FMTDAT='(8E13.5)'
 TRAMP=1., VOLUME=1. $END
  3.09314E+05  8.93385E+02  3.38268E+05  2.51057E+05  8.49659E+04  3.37354E+05 -1.33148E+05  2.49594E+05
 -1.89333E+05  8.12901E+04 -1.10903E+05 -3.41938E+04  2.11360E+03 -5.10486E+04  5.33427E+04  2.71071E+01
  3.44017E+04  5.31338E+04 -1.68539E+04  7.46659E+04 -5.99902E+04  6.35484E+04 -8.24885E+04  3.11195E+04
 -7.94681E+04 -1.16971E+04 -5.58346E+04 -5.05975E+04 -1.48008E+04 -6.84844E+04  2.60042E+04 -4.46506E+04
  3.97668E+04  3.77844E+03  1.50137E+04  4.68795E+04 -3.32527E+04  4.49543E+04 -6.54969E+04 -4.11227E+02
 -5.18043E+04 -5.50391E+04 -6.02006E+03 -7.43744E+04  3.27040E+04 -5.37540E+04  4.65403E+04 -1.68396E+04
  4.16349E+04  1.16107E+04  2.93582E+04  2.32674E+04  1.58502E+04  2.81648E+04 -3.39712E+03  2.69736E+04
 -2.27661E+04  1.34323E+04 -1.90880E+04 -4.97688E+03  4.16424E+03 -7.90940E+03  2.11052E+04  1.07477E+04
  7.10126E+03  3.28656E+04 -2.91875E+04  3.36570E+04 -6.05785E+04  2.07692E+03 -5.66368E+04 -4.10141E+04
 -1.32263E+04 -6.00839E+04  3.79327E+04 -4.24185E+04  5.40566E+04 -2.89548E+03  3.13718E+04  3.15647E+04
 -6.20037E+03  3.27314E+04 -2.75212E+04  1.22875E+04 -2.71303E+04 -6.09833E+03 -1.45423E+04 -9.62033E+03
 -6.67100E+03 -1.11739E+04 -9.94132E+02 -1.55759E+04  6.64840E+03 -2.30638E+04  1.53535E+04 -1.51679E+04
  1.17182E+04  3.29799E+03 -5.78562E+03  1.23912E+04 -1.94292E+04 -2.32442E+03 -8.15599E+03 -2.97165E+04
  2.02674E+04 -4.02883E+04  4.46508E+04 -1.82086E+04  4.13498E+04  1.68463E+04  1.41819E+04  4.05630E+04
 -1.55349E+04  3.17348E+04 -2.37424E+04  1.35347E+03 -8.54989E+03 -2.66085E+04  2.07000E+04 -3.11737E+04
  3.70168E+04 -7.20572E+03  3.09224E+04  2.32025E+04  1.58359E+04  4.15128E+04 -8.45886E+03  4.40607E+04
 -2.78377E+04  2.92065E+04 -3.55469E+04  8.91550E+03 -3.74807E+04 -1.50720E+04 -2.13834E+04 -3.37297E+04
  7.64780E+03 -3.37964E+04  2.86965E+04 -1.27197E+04  2.62541E+04  1.16872E+04  3.56221E+03  1.78072E+04
 -1.29610E+04  7.30058E+03 -9.29278E+03 -8.15721E+03  6.24460E+03 -9.41367E+03  1.69130E+04  6.21654E+03
  1.14548E+04  2.05335E+04 -6.26905E+03  2.28848E+04 -2.04128E+04  9.15625E+03 -2.48368E+04 -6.91596E+03
 -1.56516E+04 -1.55318E+04 -4.68722E+03 -1.70277E+04  4.11395E+03 -1.39968E+04  1.24832E+04 -1.45038E+04
  1.98926E+04 -1.17901E+04  2.80094E+04  1.26580E+03  2.13149E+04  1.51604E+04  3.80080E+03  3.20658E+04
 -1.59236E+04  2.70642E+04 -2.60335E+04  8.39801E+03 -2.00201E+04 -1.06034E+04 -2.88995E+03 -1.29088E+04
  2.81276E+03 -3.79053E+03 -2.59910E+03  5.56444E+03 -1.19159E+04  4.49384E+03 -1.27435E+04 -4.32155E+03
 -8.90095E+03 -1.43244E+04  5.73632E+03 -1.91060E+04  1.15913E+04 -1.33302E+04  1.44890E+04 -1.64911E+03
  8.44444E+03  1.08905E+04 -2.31715E+03  1.63389E+04 -9.29411E+03  9.23100E+03 -1.60642E+04 -3.79000E+03
 -1.22065E+04 -1.40625E+04 -1.46218E+03 -1.91019E+04  8.57301E+03 -1.52532E+04  1.54368E+04 -6.76515E+03
  1.29461E+04  6.23107E+02  9.19706E+03  3.33305E+03  5.02072E+03  4.25178E+02  6.06208E+03 -1.38549E+03
  1.37358E+04  2.36360E+03  1.35658E+04  1.27969E+04  8.27114E+03  2.29965E+04 -2.90795E+03  2.48421E+04
 -1.48609E+04  1.79907E+04 -2.40400E+04  9.67719E+03 -2.41492E+04 -2.24614E+03 -2.00450E+04 -1.34871E+04
 -1.03354E+04 -1.92352E+04  7.00791E+03 -1.80045E+04  1.63954E+04 -1.09383E+04  1.56022E+04  4.00979E+03
  5.41056E+03  1.12749E+04 -6.70710E+03  1.01138E+04 -1.35637E+04  2.49708E+03 -9.72392E+03 -7.12316E+03
  2.11850E+02 -1.25533E+04  4.65790E+03 -8.90507E+03  8.71712E+03 -2.10153E+03  1.44103E+03  5.01904E+03
 -3.56704E+03  1.61415E+02 -2.72268E+03 -4.53104E+03  4.44225E+02 -9.74366E+03  8.35582E+03 -9.32486E+03
  1.17227E+04 -5.04514E+03  1.21239E+04  1.48223E+03  9.90395E+03  8.62915E+03  4.15188E+03  1.22740E+04
 -2.71096E+03  1.53172E+04 -9.87479E+03  1.00761E+04 -1.06435E+04  2.51867E+03 -8.04774E+03 -4.64886E+02
 -5.07046E+03 -3.41564E+03 -6.51774E+02  7.42302E+02 -2.59755E+03  1.98758E+03 -3.77151E+03  3.41259E+03
 -6.44077E+03 -5.17204E+02 -8.47552E+03 -7.34635E+03 -3.73971E+03 -1.13102E+04  3.68950E+03 -8.89396E+03
  7.64045E+03 -3.67672E+03  5.12120E+03  3.09898E+03  1.54030E+03  2.66224E+03 -2.02812E+03  3.67881E+02
 -2.67292E+03 -4.53263E+03 -1.26370E+03 -6.51402E+03  3.42566E+03 -7.79803E+03  1.09642E+04 -3.07593E+03
  1.03572E+04  1.24614E+03  8.27733E+03  5.07730E+03  1.07253E+03  8.52543E+03 -4.51079E+03  8.39913E+03
 -6.72661E+03  1.37820E+03 -2.95584E+03 -8.29679E+02  1.23775E+03 -2.84441E+02  5.27215E+03 -1.04516E+03
  4.71426E+03  3.12584E+03  1.50608E+03  6.45331E+03 -3.87774E+03  6.21568E+03 -7.09733E+03  3.45895E+03
 -4.50760E+03 -3.62221E+03  1.67059E+03 -6.63408E+03  3.96365E+03 -3.16998E+03  3.08395E+03  4.32941E+02
 -2.36517E+02  3.86583E+03 -2.84137E+03  3.46873E+03 -4.96084E+03  2.52423E+03 -2.55673E+03 -7.98350E+02
 -4.04725E+03 -6.08752E+03  1.50134E+03 -5.70026E+03  6.20071E+03 -4.03181E+03  5.36542E+03 -7.12796E+01
  4.51140E+03  4.86252E+03  1.41222E+02  6.20895E+03 -3.38500E+03  4.16739E+03 -5.20733E+03 -9.72890E+02
 -5.97953E+03 -4.56488E+03 -1.17950E+03 -5.13216E+03  3.12249E+03 -4.04476E+03  2.78211E+03 -1.70719E+03
  2.44619E+03  7.13127E+02  1.62757E+02  1.14134E+03 -4.01416E+02  1.16605E+03  8.12027E+01 -1.39040E+03
  4.18802E+03 -1.58814E+03  5.34983E+03  7.96217E+02  4.90185E+03  2.14944E+03  4.99164E+03  6.54256E+03
 -1.23015E+03  8.31419E+03 -6.29715E+03  5.80707E+03 -1.02432E+04  1.12711E+03 -6.18009E+03 -1.98247E+03
 -3.94758E+03 -6.92262E+03 -2.02636E+03 -5.09187E+03  1.18565E+03 -1.09200E+03  1.38514E+03 -2.44172E+03
  1.56087E+03 -1.52637E+03  2.27949E+03 -1.32623E+03  4.81065E+03 -1.93513E+03  3.02635E+03  9.69413E+01
  4.56693E+03  2.18808E+03  1.47814E+03  3.86468E+03 -1.33984E+03  2.78008E+03 -4.82007E+03  3.65076E+03
 -5.25202E+03 -2.31298E+03 -1.67602E+03 -3.22678E+03  1.81720E+03 -4.30647E+03  4.44156E+03 -4.62693E+03
  3.98462E+03 -2.43936E+03  6.64644E+03  7.67085E+02  4.42043E+03  3.92230E+03  1.10030E+03  5.56160E+03
 -1.15721E+03  6.47247E+03 -3.40336E+03  1.25061E+03 -1.37302E+03 -7.07027E+02  6.80840E+01 -3.21836E+01
  1.27928E+02  5.24369E+02 -6.89015E+02  1.66124E+03 -2.57038E+03  6.90899E+02 -3.98498E+03 -5.31494E+02
 -1.24915E+03 -3.72208E+03  1.23654E+03 -3.92143E+03  2.37198E+03 -4.87644E+03  2.75145E+03 -1.28895E+03
  4.03595E+03  1.78063E+03  1.26151E+03  3.37597E+03 -4.70460E+02  3.83261E+03 -2.11324E+03  3.07892E+03
 -3.07943E+03  2.02143E+02 -2.53207E+03 -2.51599E+03  5.97646E+01 -3.19910E+03  2.07536E+03 -3.03420E+03
  3.05146E+03 -9.98415E+02  1.45163E+03  1.52272E+03  2.26157E+03  9.48078E+02  3.34771E+02 -3.98258E+02
  1.64639E+03  6.43109E+02  1.07195E+03  5.24691E+02  9.81496E+02  9.07933E+02  1.50572E+03  1.68604E+03
 -1.87320E+03  3.10615E+03 -2.03776E+03  4.51518E+03 -2.54566E+03  1.51282E+03 -2.76543E+03 -1.17349E+03
 -1.38150E+03 -3.23799E+03  4.94528E+02 -5.40329E+03  6.62417E+02 -1.49115E+03  2.84202E+03 -8.83631E+02
  2.86357E+03  1.49936E+03 -9.52662E+02  2.40893E+03 -1.46261E+03  1.92839E+03 -6.32654E+02  1.12392E+03
  1.27713E+02 -1.08441E+03  1.53195E+03 -1.25988E+03  3.68786E+02 -1.01270E+03  2.08805E+03 -3.75910E+02
  5.53076E+02 -8.56044E+01  5.76466E+02  6.66553E+02 -7.42902E+02 -4.72779E+02  1.28359E+03 -6.65018E+02
  1.27753E+02  4.08584E+02  9.96426E+02  4.16157E+02  1.30036E+03  2.19868E+03 -4.34034E+02  1.93160E+03
 -1.31081E+03  1.29866E+03 -1.10266E+03 -1.50350E+02 -2.51551E+03 -5.58490E+02 -5.46649E+02  5.06676E+02
  1.20172E+03 -8.10900E+02  9.06813E+02  3.91797E+02  4.09655E+02  1.91798E+03 -3.11052E+02  1.07125E+03
 -1.94144E+03  1.95124E+03 -2.74770E+02 -7.75774E+02 -3.13411E+01 -1.28090E+03  1.56266E+02 -1.79688E+03
  6.66045E+02 -1.30590E+03  1.03438E+03  6.04110E+02  1.54536E+03 -1.60899E+03  6.19481E+02 -5.77509E+01
  4.08926E+00  5.81368E+00 -7.76310E+02  3.63210E+02  6.85783E+02 -1.83909E+03  1.92587E+03 -4.92828E+02
  9.70989E+02 -9.51116E+02  2.75653E+03  9.42115E+02  2.07520E+03  4.11887E+02  2.43866E+02  1.27131E+03
 -1.17211E+03 -3.37624E+02 -1.15002E+03 -6.26943E+02 -5.92753E+02 -2.43819E+03 -6.35631E+02  1.54507E+02
  9.19565E+02 -1.06730E+03  1.73629E+03  6.51593E+02 -4.87235E+02  1.13449E+03  6.01367E+01  9.63911E+02
  7.58667E+02  1.00409E+03 -9.96764E+02  3.67489E+02  3.01972E+02 -9.18053E+00 -1.05900E+03  1.59361E+02
 -7.35677E+02  7.71826E+02 -1.83574E+03  1.06087E+03 -7.17412E+02 -6.44064E+02 -2.65323E+03 -9.29141E+02
 -1.05283E+03 -1.40269E+03  1.27722E+03 -2.48498E+03  4.75585E+02 -2.86082E+03  2.65736E+03 -8.59759E+01
  1.78967E+03  5.53383E+02  9.78214E+02  2.32470E+03 -4.86270E+02  1.42933E+03  2.18553E+02  1.59316E+03
 -1.01073E+03  2.41677E+02 -4.66622E+02 -2.17683E+02 -3.57073E+02  2.50885E+01 -1.17156E+03  6.31217E+02
 -8.48272E+02  2.75264E+02 -1.82897E+03 -3.78547E+02 -4.46415E+02  6.77758E+02  7.73203E+02 -4.56647E+02
  6.24628E+02  5.49809E+02 -1.31399E+03  2.72261E+02  2.16704E+03  8.40535E+01 -9.76390E+02  2.07060E+03
 -8.79764E+02  2.08527E+03 -1.08985E+03  1.35363E+03 -1.20671E+03 -5.03380E+02 -1.24175E+03 -7.10911E+02
 -1.25239E+03 -5.33524E+02 -9.03951E+02 -1.30804E+03  5.13387E+02 -1.06166E+03  6.17979E+02 -9.64288E+01
  4.62037E+02 -8.00869E+02  5.92878E+02  1.17165E+03  5.40957E-01  7.33705E+02 -3.08094E+02 -2.97427E+01
  2.87235E+02  6.57809E+02  1.21866E+02  1.09144E+03 -3.50614E+02  3.69497E+02  3.72707E+02  7.79187E+02
 -1.75206E+03  7.11070E+02 -6.87408E+02 -5.57711E+02 -1.37468E+03 -5.80882E+02 -6.18170E+02 -1.12078E+03
  6.25759E+01 -9.87434E+02 -2.21612E+02  8.25675E+02  1.07494E+03 -2.08995E+02  1.13113E+03  6.75336E+02
  7.58178E+02 -8.63366E+02  4.87191E+02  1.54684E+03 -9.21864E+01  1.00307E+03 -1.07252E+03 -6.45700E+02
  3.76063E+02 -2.23033E+02 -5.11223E+02 -1.33721E+02 -3.30773E+02 -4.58011E+02 -4.87407E+02  7.97386E+01
 -1.53653E+03  1.24504E+03 -5.29851E+02 -9.00870E+02  1.37294E+03 -1.37720E+03  1.14537E+03 -7.51254E+02
  7.28376E+02 -3.16835E+02 -2.45523E+02 -4.94739E+02  5.97854E+01  2.63607E+02 -1.32927E+03  6.76164E+02
