 $NMID ID='MM_0lb_SNR200_14hz_g40_38.RAW', FMTDAT='(8E13.5)'
 TRAMP=1., VOLUME=1. $END
  3.09080E+05  4.47771E+02  3.37529E+05  2.49886E+05  8.53103E+04  3.37698E+05 -1.33540E+05  2.49991E+05
 -1.88111E+05  8.24449E+04 -1.11989E+05 -3.33496E+04 -1.04945E+02 -5.03630E+04  5.34675E+04 -1.98186E+02
  3.51656E+04  5.27893E+04 -1.59097E+04  7.62393E+04 -6.09755E+04  6.42599E+04 -8.24624E+04  3.18303E+04
 -8.01070E+04 -1.06530E+04 -5.73139E+04 -5.12670E+04 -1.60625E+04 -6.86838E+04  2.74434E+04 -4.47924E+04
  3.91352E+04  3.29850E+03  1.59402E+04  4.76749E+04 -3.40374E+04  4.64296E+04 -6.66571E+04 -1.04488E+03
 -5.31573E+04 -5.64816E+04 -4.99724E+03 -7.80337E+04  3.33509E+04 -5.35311E+04  4.64258E+04 -1.62264E+04
  4.25169E+04  1.13247E+04  3.22291E+04  2.66586E+04  1.60736E+04  3.02013E+04 -6.83762E+03  2.66319E+04
 -2.22319E+04  1.21374E+04 -1.83531E+04 -4.62193E+03  5.38752E+03 -7.31122E+03  2.10877E+04  1.22937E+04
  7.57472E+03  3.41883E+04 -3.11162E+04  3.48392E+04 -6.20925E+04  1.04076E+03 -5.57799E+04 -4.21875E+04
 -1.30534E+04 -6.23883E+04  3.94819E+04 -4.58001E+04  5.77247E+04 -1.50776E+03  3.42713E+04  3.15147E+04
 -6.01988E+03  3.36055E+04 -2.99251E+04  1.45893E+04 -3.00621E+04 -4.79200E+03 -1.75603E+04 -1.12468E+04
 -9.38179E+03 -1.30271E+04 -1.41366E+03 -1.83311E+04  6.22103E+03 -2.44423E+04  1.53784E+04 -1.38875E+04
  1.15064E+04  5.13775E+03 -7.22410E+03  1.31922E+04 -2.07415E+04 -3.96056E+03 -8.08068E+03 -3.21998E+04
  2.22393E+04 -4.30756E+04  4.73101E+04 -1.86355E+04  4.49014E+04  1.85712E+04  1.53396E+04  4.28293E+04
 -1.62709E+04  3.31379E+04 -2.51349E+04  3.52871E+02 -8.69630E+03 -2.73724E+04  1.96612E+04 -3.24438E+04
  4.00137E+04 -8.79827E+03  3.59596E+04  2.31060E+04  1.79067E+04  4.55527E+04 -9.75931E+03  4.95231E+04
 -3.03075E+04  3.11609E+04 -4.08431E+04  7.93088E+03 -4.11751E+04 -1.58152E+04 -2.34223E+04 -3.61496E+04
  6.30999E+03 -3.72488E+04  3.02057E+04 -1.46600E+04  2.93784E+04  1.14148E+04  4.66095E+03  1.97656E+04
 -1.36415E+04  9.37284E+03 -9.75024E+03 -8.60384E+03  6.47779E+03 -1.01503E+04  1.74223E+04  4.13557E+03
  1.34808E+04  2.15571E+04 -4.74850E+03  2.49580E+04 -2.24007E+04  1.15872E+04 -2.75863E+04 -4.95819E+03
 -1.99195E+04 -1.76359E+04 -8.26253E+03 -2.02129E+04  4.26802E+03 -1.82394E+04  1.41383E+04 -1.78250E+04
  2.51854E+04 -1.29253E+04  3.19465E+04  3.18062E+03  2.30802E+04  1.97959E+04  4.87603E+03  3.53269E+04
 -1.63945E+04  2.97695E+04 -2.82425E+04  9.85147E+03 -2.06628E+04 -1.06159E+04 -3.56464E+03 -1.35023E+04
  2.15080E+03 -2.75228E+03 -4.00749E+03  6.17434E+03 -1.46682E+04  5.11573E+03 -1.70176E+04 -5.81749E+03
 -9.88680E+03 -1.88012E+04  5.77098E+03 -2.19293E+04  1.48101E+04 -1.66007E+04  1.68128E+04 -1.63816E+03
  1.05600E+04  1.38765E+04 -2.03388E+03  1.81757E+04 -1.44432E+04  1.12519E+04 -1.88060E+04 -3.90915E+03
 -1.37942E+04 -1.65369E+04 -1.03466E+03 -2.19561E+04  1.01511E+04 -1.95719E+04  1.81922E+04 -8.60223E+03
  1.67381E+04  6.26178E+02  1.08785E+04  4.24466E+03  5.25135E+03  9.98064E+02  9.45926E+03 -5.46618E+02
  1.76754E+04  3.85721E+03  1.79070E+04  1.55567E+04  1.17791E+04  2.98202E+04 -2.08661E+03  3.23837E+04
 -1.73198E+04  2.60484E+04 -3.04878E+04  1.43786E+04 -3.18970E+04 -1.77069E+03 -2.67771E+04 -1.93094E+04
 -1.15814E+04 -2.67624E+04  8.85394E+03 -2.34466E+04  2.09867E+04 -1.38758E+04  1.83805E+04  5.57379E+03
  6.07625E+03  1.45784E+04 -9.20248E+03  1.18487E+04 -1.69597E+04  2.76471E+03 -1.19726E+04 -1.01283E+04
 -5.67199E+01 -1.47064E+04  6.74613E+03 -1.17616E+04  9.70564E+03 -1.57674E+03  2.53331E+03  6.52987E+03
 -6.89097E+03  3.33006E+02 -6.02673E+03 -4.97743E+03  3.70955E+02 -1.14018E+04  8.53631E+03 -1.21160E+04
  1.63415E+04 -6.68023E+03  1.72707E+04  3.08495E+03  1.41754E+04  1.30031E+04  7.50403E+03  1.95756E+04
 -4.15729E+03  2.10899E+04 -1.36140E+04  1.33389E+04 -1.56717E+04  6.13588E+03 -9.85201E+03 -3.07697E+03
 -4.69057E+03 -4.06441E+03 -6.24609E+02  4.37019E+02 -1.57847E+03  2.72298E+03 -5.16310E+03  5.26001E+03
 -9.91616E+03 -5.04210E+02 -1.01807E+04 -9.90823E+03 -4.21390E+03 -1.48303E+04  5.43419E+03 -1.14862E+04
  9.77372E+03 -4.28343E+03  8.17964E+03  3.15903E+03  7.03207E+02  3.57694E+03 -4.96352E+03 -3.98411E+02
 -4.68122E+03 -6.70759E+03  1.67137E+02 -1.04394E+04  5.44709E+03 -1.08402E+04  1.30654E+04 -6.08674E+03
  1.50744E+04  1.20437E+03  1.12414E+04  8.59095E+03  3.23218E+03  1.22839E+04 -6.56909E+03  9.74119E+03
 -8.92754E+03  3.72289E+03 -3.61304E+03 -9.85521E+02  1.78286E+03 -3.05862E+03  6.53630E+03 -1.39032E+03
  4.27052E+03  3.51270E+03  1.74994E+03  8.90832E+03 -6.29225E+03  8.78392E+03 -1.11697E+04  1.21962E+03
 -6.62873E+03 -4.66270E+03  4.85289E+02 -9.17009E+03  5.09930E+03 -3.59238E+03  5.30656E+03  2.49145E+03
  1.61263E+03  5.06071E+03 -5.57842E+03  6.58198E+03 -7.48512E+03  2.67062E+03 -8.08755E+03 -2.56957E+03
 -4.71171E+03 -8.23637E+03  1.26171E+03 -1.15370E+04  8.23884E+03 -6.32787E+03  1.00069E+04  7.63387E+02
  7.56369E+03  7.22605E+03 -8.12194E+02  9.81955E+03 -8.46754E+03  5.48263E+03 -7.27155E+03 -9.64405E+02
 -7.77053E+03 -6.89019E+03 -4.64345E+02 -7.82681E+03  3.00954E+03 -6.03805E+03  3.40766E+03 -2.20650E+03
  2.31267E+03  6.59842E+02  2.48672E+02  1.89320E+03 -2.94575E+02 -9.02047E+02  1.53502E+03 -3.52676E+03
  6.05237E+03 -1.84224E+03  7.62524E+03  1.47192E+03  8.15888E+03  5.61658E+03  6.69419E+03  1.24295E+04
 -2.63664E+03  1.22105E+04 -1.15727E+04  8.76706E+03 -1.50590E+04  2.09550E+03 -1.22311E+04 -4.89260E+03
 -5.62575E+03 -1.05807E+04 -9.61854E+02 -9.33599E+03  2.51817E+03 -4.67124E+03  2.80532E+03 -3.53172E+03
  8.28381E+02 -1.60684E+03  2.70548E+03 -3.34161E+03  4.60688E+03 -2.83787E+03  4.21482E+03 -6.09116E+01
  7.86715E+03  1.45735E+03  3.00542E+03  5.67695E+03 -2.54404E+03  5.57017E+03 -6.60700E+03  4.94640E+03
 -8.43960E+03 -4.66842E+02 -4.84582E+03 -6.95084E+03  2.02787E+02 -8.10645E+03  5.38152E+03 -8.33541E+03
  8.11651E+03 -4.68537E+03  9.50663E+03  1.09204E+03  8.31650E+03  6.34579E+03  8.61475E+02  9.00247E+03
 -4.66132E+03  8.31488E+03 -7.72458E+03  2.62713E+03 -2.56503E+03 -7.73144E+02 -1.57760E+03 -1.26426E+03
 -6.08735E+02  1.23176E+03 -1.37596E+03  2.14896E+03 -4.67878E+03  1.07082E+03 -6.14963E+03 -5.36414E+02
 -3.86878E+03 -6.03343E+03 -2.08740E+02 -6.64645E+03  4.63167E+03 -6.93528E+03  7.45866E+03 -1.32689E+03
  7.20561E+03  3.73681E+03  2.58725E+03  6.66055E+03 -1.44790E+03  7.14142E+03 -4.99983E+03  5.41985E+03
 -6.76188E+03  6.97047E+02 -5.22846E+03 -3.95767E+03 -1.43053E+02 -5.46599E+03  3.78474E+03 -3.20463E+03
  4.12989E+03 -2.47887E+03  2.98401E+03  2.67052E+02  2.34185E+03  2.20089E+03  8.55036E+02  1.18895E+03
  3.07439E+03  1.13256E+03  1.88994E+03  1.22625E+03  2.53004E+03  2.66869E+03  8.07613E+02  4.31937E+03
 -1.57893E+03  4.74377E+03 -5.40164E+03  6.89700E+03 -7.23220E+03  1.73737E+03 -8.18390E+03 -2.82893E+03
 -3.24455E+03 -6.95034E+03  1.53489E+03 -7.20013E+03  4.15298E+03 -3.70673E+03  5.24013E+03 -2.24829E+03
  3.60623E+03  2.21172E+03  1.35124E+03  3.35079E+03 -2.63584E+03  3.64204E+03 -1.39755E+03  5.64104E+02
 -9.67906E+02 -2.59523E+03  7.55934E+02 -2.98140E+03  2.71482E+03 -2.52187E+03  3.21211E+03  7.65121E+02
  1.34489E+03  2.29322E+03  1.47287E+03  9.40650E+02 -7.36200E+02  7.63831E+02  1.70463E+03 -6.71088E+02
  1.10935E+03 -6.99279E+02  2.47181E+03  9.71764E+02  1.75839E+03  4.51846E+03 -9.01011E+02  4.81576E+03
 -3.41210E+03  2.79277E+03 -5.42694E+03  1.57828E+03 -3.63910E+03 -1.92258E+03 -8.73205E+02 -9.75788E+02
  9.52585E+02 -2.03110E+03  2.10435E+03 -1.65537E+03  6.92869E+02  2.58192E+03 -1.01343E+03  1.87753E+03
 -2.59131E+03  1.17291E+03 -3.87637E+03 -1.78561E+03 -1.15363E+03 -3.87631E+03  4.84296E+02 -3.98930E+03
  1.54784E+03 -4.92946E+02  2.22831E+03  1.98278E+02  2.68403E+03  7.60274E+02  5.18635E+02  6.49807E+02
  2.44933E+02  1.31916E+01 -1.74180E+03 -1.12952E+03  1.30041E+03 -2.24391E+03  2.94715E+03 -1.66646E+03
  4.79436E+03 -1.43326E+01  3.43617E+03  3.11418E+03  7.72919E+02  2.96710E+03 -1.14668E+03  4.82662E+03
 -2.93672E+03  2.21355E+03 -3.20262E+03 -7.31154E+02 -5.78320E+02 -2.80573E+03  1.28623E+03 -3.08775E+03
  2.12005E+03 -9.55111E+02  1.84750E+03  1.51861E+03  1.72781E+02  2.06959E+03  6.49636E+02  2.53730E+03
 -1.00319E+03  2.21771E+03 -1.42224E+03  7.62016E+02 -1.36565E+03  2.91854E+01  1.25691E+02  1.38536E+03
 -1.23008E+03  2.29091E+03 -2.46862E+03  7.34280E+02 -4.19608E+03  1.89248E+02 -5.06408E+03 -2.89532E+03
 -3.39326E+03 -4.93648E+03  2.36787E+03 -6.95705E+03  2.41317E+03 -4.57747E+03  5.06492E+03 -2.09554E+03
  4.19295E+03 -2.81760E+01  2.57701E+03  4.49308E+03 -3.48056E+01  4.06836E+03 -1.13668E+03  4.68509E+03
 -2.77347E+03  8.75461E+02 -2.58629E+03 -8.16044E+02 -5.96618E+02 -1.19276E+03 -1.08815E+02 -6.18881E+02
 -6.22741E+02 -1.65950E+02 -1.08388E+03 -2.19809E+02  9.34579E+02 -1.43547E+03 -3.38467E+02 -1.69264E+03
  2.48222E+03 -5.58206E+02  3.02442E+03  1.48623E+03  3.26541E+03  2.93897E+03  9.11971E+02  3.63792E+03
 -1.40526E+03  5.76443E+03 -4.97349E+03  2.27029E+03 -4.40362E+03  1.77838E+03 -3.76825E+03 -3.31249E+03
 -1.29133E+03 -3.81647E+03  6.61198E+01 -4.13492E+03  3.56028E+03 -1.86562E+03  1.24423E+03  4.76254E+02
  3.08156E+03  7.78714E+02  3.56159E+02  1.59190E+03 -4.17111E+02  3.33592E+02  5.08603E+02 -8.90631E+02
  5.84661E+02 -2.31627E+02  1.21580E+03  1.24571E+03  1.33194E+03  1.46644E+03  8.21527E+01  2.12216E+03
 -1.18622E+03  6.78944E+02 -1.81219E+03  3.91785E+02 -1.37416E+03 -2.58149E+03  3.75599E+01 -3.22871E+03
  2.23570E+03 -2.08761E+03  1.19028E+03 -9.70109E+02  2.79802E+03  5.09041E+02  1.77311E+03  1.87816E+03
  1.02040E+03  2.89935E+03 -8.05144E+02  2.08397E+03 -1.51489E+03  7.29087E+02 -1.46054E+03 -5.68693E+02
 -1.05703E+03  2.02551E+02 -2.17246E+03  1.18039E+03 -9.31872E+02 -2.89724E+02 -3.46623E+03 -9.10199E+02
 -2.65236E+03 -7.30785E+02 -1.53308E+03 -1.20590E+03  5.53420E+02 -3.92387E+03  2.07132E+03 -2.27167E+03
  2.19769E+03  4.00315E+02  1.04914E+03  2.18014E+03  1.24605E+03  2.67980E+03 -1.96642E+03  1.96173E+03
