 $NMID ID='MM_0lb_SNR200_14hz_g55_56.RAW', FMTDAT='(8E13.5)'
 TRAMP=1., VOLUME=1. $END
  3.10498E+05  1.50432E+01  3.38514E+05  2.51671E+05  8.49290E+04  3.38287E+05 -1.32159E+05  2.50466E+05
 -1.89703E+05  8.31559E+04 -1.11295E+05 -3.24299E+04 -4.21652E+02 -4.98132E+04  5.24467E+04  3.24019E+01
  3.48302E+04  5.33634E+04 -1.63850E+04  7.49937E+04 -6.13788E+04  6.30721E+04 -8.40346E+04  3.13759E+04
 -8.11250E+04 -1.03861E+04 -5.76841E+04 -5.15692E+04 -1.53317E+04 -6.90159E+04  2.74439E+04 -4.63789E+04
  3.96463E+04  3.32285E+03  1.48699E+04  4.84866E+04 -3.43645E+04  4.72248E+04 -6.74594E+04 -1.35322E+02
 -5.44282E+04 -5.66396E+04 -6.50298E+03 -7.75568E+04  3.47012E+04 -5.66901E+04  4.99403E+04 -1.77348E+04
  4.30026E+04  1.08567E+04  3.22261E+04  2.45632E+04  1.56130E+04  2.98580E+04 -5.29699E+03  2.58846E+04
 -2.21015E+04  1.19900E+04 -1.81035E+04 -5.26698E+03  6.36875E+03 -7.56710E+03  2.31240E+04  1.35994E+04
  8.72809E+03  3.51288E+04 -3.14369E+04  3.58122E+04 -6.39168E+04  3.50182E+03 -5.79715E+04 -4.18710E+04
 -1.28543E+04 -6.48485E+04  4.01293E+04 -4.58254E+04  5.77664E+04 -2.14114E+03  3.55268E+04  3.42914E+04
 -5.62654E+03  3.63221E+04 -3.03333E+04  1.67453E+04 -2.97866E+04 -4.89516E+03 -1.66485E+04 -1.14372E+04
 -8.53780E+03 -1.33378E+04 -9.15558E+02 -1.71363E+04  8.17503E+03 -2.23218E+04  1.46051E+04 -1.38205E+04
  1.11819E+04  5.19765E+03 -9.05345E+03  1.29793E+04 -2.09592E+04 -4.43784E+03 -7.28137E+03 -3.56114E+04
  2.19395E+04 -4.47228E+04  4.84410E+04 -1.96750E+04  4.61507E+04  1.95295E+04  1.58853E+04  4.54716E+04
 -1.69035E+04  3.40932E+04 -2.60593E+04  2.69164E+03 -1.00731E+04 -2.85709E+04  2.03840E+04 -3.51296E+04
  4.17987E+04 -1.09006E+04  3.61873E+04  2.40331E+04  1.79219E+04  4.57063E+04 -7.19806E+03  5.13472E+04
 -3.27294E+04  3.44315E+04 -4.30810E+04  1.05431E+04 -4.33957E+04 -1.71864E+04 -2.36502E+04 -3.81928E+04
  7.69285E+03 -3.80818E+04  3.36824E+04 -1.37905E+04  3.07119E+04  1.08847E+04  3.88070E+03  1.96820E+04
 -1.31190E+04  8.82775E+03 -1.10725E+04 -8.30999E+03  7.31362E+03 -9.88842E+03  1.82242E+04  4.81370E+03
  1.34730E+04  2.17139E+04 -5.97697E+03  2.65134E+04 -2.26964E+04  1.18673E+04 -2.78426E+04 -4.53773E+03
 -2.09416E+04 -1.85096E+04 -9.69316E+03 -2.16470E+04  3.67836E+03 -2.05428E+04  1.47981E+04 -1.97858E+04
  2.69847E+04 -1.26902E+04  3.29165E+04  2.00981E+03  2.32480E+04  2.15242E+04  3.56516E+03  3.84723E+04
 -1.85299E+04  3.01288E+04 -2.82660E+04  1.07281E+04 -2.17783E+04 -1.14407E+04 -5.21648E+03 -1.51404E+04
  2.54949E+03 -2.29322E+03 -5.14152E+03  6.94160E+03 -1.69992E+04  5.56870E+03 -1.64198E+04 -7.36476E+03
 -1.02224E+04 -1.95372E+04  5.59874E+03 -2.37979E+04  1.60643E+04 -1.60902E+04  1.93029E+04 -1.87302E+03
  1.17954E+04  1.46918E+04 -1.18937E+03  1.93197E+04 -1.26304E+04  1.09167E+04 -2.00984E+04 -5.38000E+03
 -1.49949E+04 -1.85945E+04 -3.38891E+03 -2.39797E+04  1.04274E+04 -2.01553E+04  1.95036E+04 -1.03275E+04
  1.86883E+04  2.04474E+02  1.31868E+04  4.47958E+03  5.80267E+03  1.01492E+03  1.06817E+04 -1.89189E+03
  1.87308E+04  2.57927E+03  2.15414E+04  1.51566E+04  1.30481E+04  3.16954E+04 -1.96847E+03  3.53110E+04
 -2.15077E+04  2.85783E+04 -3.20477E+04  1.40350E+04 -3.36865E+04 -3.06746E+03 -2.88003E+04 -2.09280E+04
 -1.17500E+04 -2.87695E+04  9.62808E+03 -2.60811E+04  2.15923E+04 -1.28629E+04  2.04008E+04  6.17961E+03
  7.06175E+03  1.41261E+04 -9.82296E+03  1.45583E+04 -1.70750E+04  2.84309E+03 -1.44850E+04 -1.03981E+04
 -1.53423E+03 -1.60608E+04  8.88703E+03 -1.16098E+04  1.14216E+04 -1.98845E+03  1.95755E+03  7.41336E+03
 -6.54942E+03  4.02988E+03 -6.07005E+03 -5.40660E+03  5.00351E+02 -1.27069E+04  9.30076E+03 -1.41742E+04
  1.65581E+04 -7.16688E+03  1.81958E+04  3.43488E+03  1.69981E+04  1.38241E+04  6.99108E+03  1.98992E+04
 -3.72864E+03  2.35147E+04 -1.53268E+04  1.33037E+04 -1.63270E+04  3.74531E+03 -1.10038E+04 -3.44026E+03
 -4.77834E+03 -4.15144E+03 -1.41924E+03  1.32575E+03 -2.86770E+03  3.43595E+03 -5.68413E+03  5.37727E+03
 -1.12068E+04 -1.59678E+03 -1.22104E+04 -9.75185E+03 -4.62633E+03 -1.53021E+04  5.65795E+03 -1.22149E+04
  8.98727E+03 -3.98795E+03  8.08104E+03  2.80221E+03 -1.30238E+03  4.36042E+03 -5.68520E+03  1.24925E+03
 -5.94475E+03 -7.14247E+03 -6.15227E+02 -1.01065E+04  5.23739E+03 -1.25913E+04  1.47259E+04 -6.16328E+03
  1.77432E+04  1.34569E+03  1.32911E+04  1.01407E+04  3.26473E+03  1.36794E+04 -7.43182E+03  1.17103E+04
 -9.28186E+03  3.78306E+03 -5.61528E+03 -3.28713E+03  2.06207E+03 -2.97152E+03  6.41067E+03 -2.08140E+02
  6.88944E+03  4.64123E+03  1.09959E+03  9.58363E+03 -6.77294E+03  9.08760E+03 -1.14765E+04  7.70972E+02
 -7.91361E+03 -6.23085E+03  7.39908E+02 -9.34804E+03  5.01367E+03 -3.88169E+03  5.92636E+03  2.66229E+03
  1.68593E+03  6.19738E+03 -5.97822E+03  7.19755E+03 -7.72495E+03  4.20120E+03 -8.09445E+03 -4.29954E+03
 -5.21843E+03 -1.03593E+04  2.17758E+03 -1.12880E+04  1.01106E+04 -8.29678E+03  1.01036E+04  2.65387E+03
  6.16262E+03  9.67087E+03 -1.07688E+03  1.07504E+04 -6.80827E+03  6.48343E+03 -8.05678E+03 -1.70401E+03
 -8.81716E+03 -6.95074E+03 -1.89509E+03 -8.48374E+03  3.65968E+03 -6.29299E+03  3.93766E+03 -2.97158E+03
  4.58213E+03  7.53058E+02  1.58313E+03  1.44732E+03 -2.15224E+02 -2.91366E+03  1.18592E+03 -4.68030E+03
  7.06385E+03 -3.25657E+03  1.05240E+04  1.15954E+03  1.01145E+04  6.94952E+03  6.86831E+03  1.43700E+04
 -3.20711E+03  1.56331E+04 -1.31818E+04  1.16268E+04 -1.64659E+04  3.27459E+03 -1.32822E+04 -7.05611E+03
 -7.71678E+03 -1.05610E+04  3.95500E+02 -7.83035E+03  3.26999E+03 -4.99272E+03  2.84454E+03 -3.75164E+03
  2.81955E+03 -1.63117E+03  3.19388E+03 -3.48813E+03  3.28105E+03 -2.32762E+03  5.50210E+03  2.16160E+02
  7.30018E+03  2.45257E+03  3.36370E+03  5.17484E+03 -2.03252E+03  7.30984E+03 -7.79637E+03  5.20795E+03
 -9.35090E+03 -2.16475E+03 -4.59571E+03 -5.90488E+03 -1.59301E+03 -9.74365E+03  5.05572E+03 -1.03622E+04
  1.09092E+04 -5.20924E+03  1.22074E+04  3.98856E+02  9.23272E+03  8.05633E+03  2.17873E+03  1.07151E+04
 -3.78916E+03  8.93320E+03 -6.05588E+03  3.36814E+03 -4.37682E+03 -1.02678E+03 -1.59289E+03 -1.49902E+03
 -1.44017E+03 -3.42464E+02 -2.58804E+03  1.97971E+03 -4.26977E+03  8.31988E+02 -7.47356E+03 -1.80652E+03
 -4.21110E+03 -8.05965E+03 -1.49798E+03 -9.31647E+03  6.05079E+03 -7.57529E+03  7.37262E+03 -2.74807E+03
  8.40611E+03  3.09122E+03  4.27988E+03  8.79456E+03 -2.98227E+03  7.04276E+03 -6.45592E+03  4.82333E+03
 -6.46002E+03  8.63538E+02 -5.44725E+03 -5.88368E+03 -1.47280E+03 -7.12215E+03  3.55380E+03 -5.68229E+03
  5.26538E+03 -1.73442E+03  3.15297E+03  1.50817E+03  4.67385E+02  2.05428E+03  1.09698E+03  1.54363E+03
  2.65816E+03  9.76507E+02  1.87546E+03  1.54763E+03  2.01558E+03  3.60374E+03  2.98353E+03  3.98992E+03
 -2.30996E+03  5.53987E+03 -5.29338E+03  7.18177E+03 -5.59570E+03  2.62892E+03 -8.57771E+03 -2.20249E+03
 -4.41518E+03 -8.64772E+03  6.45645E+02 -8.74827E+03  4.68968E+03 -5.71631E+03  7.51948E+03 -2.44050E+02
  4.17598E+03  3.73654E+03  1.14953E+03  4.39207E+03 -1.97188E+03  3.43968E+03 -3.64244E+03 -4.97153E+02
 -7.27519E+02 -3.34667E+03  2.87811E+03 -2.49336E+03  2.21264E+03 -2.29907E+03  3.17428E+03  1.63084E+03
  2.08287E+03  7.55035E+02  7.53565E+02 -4.05083E+02 -1.09065E+03  2.49522E+03  1.52892E+03 -3.80210E+02
  8.77755E+02 -6.45231E+02  3.66736E+03  1.99732E+03  1.77002E+03  4.78919E+03 -1.21789E+03  5.23244E+03
 -2.04808E+03  2.37487E+03 -3.81728E+03  6.49180E+02 -3.53235E+03 -2.33831E+03 -2.36569E+03 -3.00259E+03
  8.11652E+02 -1.43814E+03  1.94356E+03 -6.29210E+02  1.16548E+03  1.27365E+03 -5.78291E+02  1.47282E+03
 -3.35289E+03  1.51616E+03 -3.28727E+03 -2.59522E+03 -3.83829E+03 -5.14133E+03  1.42307E+03 -4.41708E+03
  2.13716E+03 -2.18964E+03  2.53688E+03 -5.58102E+02  2.12249E+03  1.73712E+03 -2.74528E+02  3.77138E+03
 -1.09610E+03  6.39425E+02 -1.04968E+03 -1.12973E+03  4.79828E+02 -3.41018E+03  3.04662E+03 -2.42318E+03
  3.89825E+03  6.24608E+02  4.45090E+03  2.61221E+03  2.22191E+03  4.85403E+03 -1.08025E+03  5.61840E+03
 -3.66093E+03  2.65644E+03 -3.93787E+03  3.36570E+02 -2.01334E+03 -3.52003E+03  3.40153E+02 -5.59764E+02
  2.73410E+03 -1.84465E+03  2.08112E+03  1.27395E+03  1.34150E+03  2.47396E+03  7.16386E+02  1.21718E+03
 -8.32952E+02  1.82882E+03 -1.11883E+03 -1.07209E+02  1.23815E+03  2.95993E+02 -7.33405E+02  8.69842E+02
 -1.11090E+03  1.63175E+03 -2.68884E+03  2.01711E+03 -3.72680E+03  2.65319E+02 -6.17106E+03 -1.33395E+03
 -2.63021E+03 -5.43856E+03  1.83666E+03 -5.79965E+03  3.01360E+03 -5.82829E+03  6.38861E+03 -1.57962E+03
  6.03286E+03  3.93572E+02  4.35684E+03  3.62773E+03 -1.10979E+03  3.65243E+03 -1.58263E+03  2.54124E+03
 -2.45873E+03  1.43819E+03 -1.30323E+03  2.62664E+02 -2.04610E+03 -8.45175E+02  2.14486E+02 -3.77382E+02
 -1.69448E+03 -5.25069E+02 -1.41852E+03  1.03325E+03  9.90141E+02 -2.34909E+02 -2.16217E+02 -1.00730E+03
  2.49629E+03 -2.38849E+03  2.72234E+03  8.22470E+02  3.68774E+03  3.00439E+03 -2.16830E+02  5.05339E+03
 -2.30466E+03  5.05856E+03 -2.04008E+03  1.02993E+03 -3.95359E+03 -3.51207E+02 -3.73924E+03 -4.30854E+03
 -1.82537E+03 -4.42632E+03  1.38213E+03 -3.27668E+03  3.89141E+03 -2.28135E+03  1.60626E+03  1.60743E+02
  1.42335E+03  5.78131E+02 -8.48469E+02 -2.85593E+02 -4.84062E+02  8.08757E+02  8.86344E+01 -2.47989E+02
  1.23892E+03  1.03947E+02  1.10208E+03  5.38765E+01  5.45668E+02  1.75296E+03 -1.25798E+03  1.00961E+03
 -2.52496E+03  1.29639E+03 -1.89307E+03  2.27989E+03 -2.08301E+03 -2.28402E+03 -3.68059E+02 -3.42510E+03
  8.58764E+02 -3.43240E+03  2.21644E+03 -1.19046E+03  3.41864E+03  2.88598E+02  2.47204E+03  2.38681E+03
 -1.06980E+02  2.45465E+03 -6.17284E+02  1.74824E+03 -1.70692E+03  1.56693E+03 -2.25924E+03 -4.34617E+01
 -8.55240E+02  1.18712E+03 -2.02577E+03  9.84530E+02 -2.11426E+03  5.60071E+02 -2.13375E+03 -2.34912E+02
 -3.10021E+03 -1.51282E+03  4.68955E+02 -3.16090E+03  1.80721E+03 -4.10568E+03  1.87955E+03 -1.49766E+03
  1.54931E+03  1.82021E+02  4.47207E+02  8.37673E+01  7.24558E+02  2.22455E+03 -2.62420E+03  2.06233E+03
