 $NMID ID='MM_0lb_SNR200_19hz_g40_76.RAW', FMTDAT='(8E13.5)'
 TRAMP=1., VOLUME=1. $END
  3.09885E+05 -5.83527E+02  3.36893E+05  2.50325E+05  8.44631E+04  3.36246E+05 -1.31969E+05  2.50551E+05
 -1.89454E+05  8.27739E+04 -1.11270E+05 -3.24904E+04  1.54125E+03 -5.03693E+04  5.45835E+04  2.39839E+02
  3.53217E+04  5.27729E+04 -1.64483E+04  7.53190E+04 -6.04335E+04  6.36217E+04 -8.22527E+04  3.11708E+04
 -7.97696E+04 -1.06338E+04 -5.55323E+04 -5.01983E+04 -1.48558E+04 -6.71582E+04  2.67507E+04 -4.44003E+04
  3.89931E+04  4.80014E+03  1.56974E+04  4.68531E+04 -3.37443E+04  4.54828E+04 -6.55211E+04 -5.76754E+02
 -5.23655E+04 -5.56124E+04 -5.61555E+03 -7.50924E+04  3.24710E+04 -5.17489E+04  4.51844E+04 -1.58007E+04
  4.11652E+04  1.14097E+04  3.03912E+04  2.45007E+04  1.68685E+04  2.77876E+04 -4.08221E+03  2.65925E+04
 -2.27153E+04  1.34394E+04 -1.93984E+04 -4.08449E+03  4.03522E+03 -7.70082E+03  2.11651E+04  1.05511E+04
  6.61199E+03  3.19855E+04 -2.92834E+04  3.37590E+04 -6.03706E+04  2.36184E+03 -5.43685E+04 -4.13593E+04
 -1.27902E+04 -5.96844E+04  3.66198E+04 -4.25371E+04  5.37865E+04 -2.65378E+03  3.11324E+04  3.00142E+04
 -6.90981E+03  3.28252E+04 -2.83307E+04  1.23171E+04 -2.62028E+04 -4.82510E+03 -1.46992E+04 -1.04961E+04
 -6.88550E+03 -1.03955E+04 -7.72545E+02 -1.76985E+04  7.41017E+03 -2.16854E+04  1.50315E+04 -1.50189E+04
  1.35861E+04  3.46404E+03 -5.83600E+03  1.24726E+04 -1.90714E+04 -1.70385E+03 -9.04286E+03 -2.93012E+04
  2.18806E+04 -3.89941E+04  4.33670E+04 -1.83891E+04  4.14606E+04  1.78505E+04  1.44782E+04  4.05743E+04
 -1.42261E+04  3.01828E+04 -2.35869E+04  9.28687E+02 -8.14703E+03 -2.69752E+04  2.14343E+04 -2.97274E+04
  3.70596E+04 -5.57836E+03  2.96987E+04  2.25896E+04  1.47426E+04  4.06745E+04 -7.01398E+03  4.40477E+04
 -2.75409E+04  2.87233E+04 -3.61676E+04  7.54350E+03 -3.69076E+04 -1.48270E+04 -2.05286E+04 -3.37784E+04
  6.29137E+03 -3.29870E+04  2.90536E+04 -1.16079E+04  2.59848E+04  1.00066E+04  3.71232E+03  1.62656E+04
 -1.34443E+04  6.77032E+03 -9.09510E+03 -8.17134E+03  5.76950E+03 -9.09420E+03  1.69407E+04  6.31171E+03
  1.12124E+04  2.13660E+04 -6.98217E+03  2.31060E+04 -2.21346E+04  7.81263E+03 -2.37115E+04 -6.61383E+03
 -1.67396E+04 -1.50178E+04 -4.03308E+03 -1.56436E+04  4.91508E+03 -1.31864E+04  1.13239E+04 -1.34925E+04
  1.98577E+04 -1.10680E+04  2.73849E+04 -5.42125E+01  2.11121E+04  1.56756E+04  4.93704E+03  3.05659E+04
 -1.60096E+04  2.69849E+04 -2.54797E+04  9.31512E+03 -1.90127E+04 -1.13616E+04 -3.33686E+03 -1.40885E+04
  1.99382E+03 -4.43342E+03 -2.41065E+03  4.29644E+03 -1.06057E+04  5.51760E+03 -1.26264E+04 -3.89115E+03
 -8.24303E+03 -1.39881E+04  3.67576E+03 -1.85039E+04  1.27888E+04 -1.21501E+04  1.45614E+04 -2.66677E+03
  8.94850E+03  9.93598E+03 -1.56692E+03  1.54722E+04 -9.87592E+03  9.07961E+03 -1.56506E+04 -3.31194E+03
 -9.91759E+03 -1.41073E+04 -1.37307E+03 -1.85726E+04  8.59441E+03 -1.42879E+04  1.52873E+04 -7.03601E+03
  1.47225E+04  8.19387E+02  1.01355E+04  2.96209E+03  5.05189E+03  9.64263E+02  7.67003E+03 -1.08477E+03
  1.27087E+04  2.67147E+03  1.43282E+04  1.20848E+04  8.85212E+03  2.33149E+04 -2.18724E+03  2.56770E+04
 -1.35799E+04  1.93275E+04 -2.31515E+04  9.45048E+03 -2.33012E+04 -1.44900E+03 -1.94525E+04 -1.23720E+04
 -9.53130E+03 -1.94515E+04  6.20054E+03 -1.88834E+04  1.61868E+04 -9.92364E+03  1.46171E+04  3.04678E+03
  6.60532E+03  1.09785E+04 -6.65184E+03  1.04110E+04 -1.30345E+04  3.09912E+03 -9.25540E+03 -7.75344E+03
  2.29898E+02 -1.19707E+04  5.48741E+03 -8.92038E+03  7.36222E+03 -7.91516E+02  1.04085E+02  3.46913E+03
 -5.58210E+03  1.18356E+03 -3.56085E+03 -3.90104E+03  1.09118E+03 -9.85600E+03  7.49108E+03 -9.30438E+03
  1.16636E+04 -5.06642E+03  9.96744E+03  2.92807E+03  8.82664E+03  8.07084E+03  3.36622E+03  1.16239E+04
 -1.65331E+02  1.51088E+04 -7.77040E+03  8.93689E+03 -9.56853E+03  2.25737E+03 -7.77524E+03 -1.20851E+03
 -4.09000E+03 -3.12751E+03 -1.16364E+03  7.07946E+02 -2.74366E+03  1.66100E+03 -3.50190E+03  3.88925E+03
 -7.58255E+03  4.68744E+02 -7.95660E+03 -6.98024E+03 -3.18258E+03 -1.08748E+04  3.36363E+03 -7.43136E+03
  6.78574E+03 -2.52493E+03  4.70361E+03  1.68795E+03  8.89000E+02  2.51166E+03 -3.18050E+03 -4.34825E+02
 -2.92285E+03 -5.06808E+03 -1.21324E+03 -6.80545E+03  3.38603E+03 -7.88695E+03  9.74765E+03 -4.08135E+03
  1.06339E+04  7.76207E+02  8.23880E+03  5.03469E+03  7.95663E+02  9.00854E+03 -4.83414E+03  6.98544E+03
 -5.79078E+03  2.82930E+03 -3.47622E+03  1.92824E+02  7.12329E+02 -2.27724E+03  4.86295E+03  1.84461E+02
  3.71360E+03  4.35455E+03  5.93115E+02  5.50181E+03 -3.66855E+03  6.00742E+03 -7.02870E+03  1.56019E+03
 -4.01862E+03 -4.32177E+03 -4.03872E+02 -6.12644E+03  4.31756E+03 -2.11144E+03  4.08203E+03  1.39050E+03
  4.91720E+02  2.66952E+03 -3.78458E+03  5.31409E+03 -3.98849E+03  1.59704E+03 -3.29174E+03 -1.54111E+03
 -2.94243E+03 -5.17880E+03  1.07226E+03 -6.65329E+03  5.84470E+03 -3.45610E+03  5.96033E+03  1.34025E+02
  4.41258E+03  4.06135E+03 -2.59752E+02  7.74381E+03 -5.00167E+03  3.51368E+03 -4.67263E+03 -5.93707E+02
 -5.52121E+03 -4.67465E+03 -1.40816E+03 -4.58260E+03  2.32268E+03 -4.57561E+03  3.08113E+03 -2.74578E+03
  3.85106E+03  7.27921E+01 -3.19671E+02  2.30696E+03  1.54809E+03 -1.42243E+02 -6.61473E+02 -9.40689E+02
  4.40260E+03 -1.47095E+03  3.75249E+03  3.86544E+02  5.03055E+03  2.18573E+03  5.46831E+03  6.16779E+03
 -1.16729E+03  6.97590E+03 -7.37947E+03  6.04518E+03 -8.82531E+03  9.64381E+02 -7.67052E+03 -1.97049E+03
 -3.61490E+03 -6.28275E+03 -3.40690E+01 -4.15087E+03  1.35953E+03 -1.48003E+03  2.37268E+03 -1.95648E+03
  4.95476E+02 -1.37730E+03  2.68030E+03 -1.26031E+03  3.67026E+03 -6.03940E+02  2.87199E+03  3.09689E+02
  3.81838E+03 -3.62469E+02  1.93454E+03  2.44967E+03 -1.74718E+03  1.82924E+03 -3.71155E+03  2.02057E+03
 -4.78735E+03 -2.20898E+02 -1.09873E+03 -3.70274E+03  1.60529E+03 -4.36446E+03  2.99692E+03 -5.23178E+03
  5.42682E+03 -2.40300E+03  6.54323E+03 -4.59977E+01  3.70696E+03  3.54123E+03  1.25921E+03  5.58626E+03
 -1.78000E+03  6.30792E+03 -2.85152E+03  1.80271E+03 -1.55523E+03 -1.29340E+03  1.67561E+02 -3.70683E+02
 -9.32213E+01  7.18689E+02 -1.09745E+03  2.66989E+03 -2.12316E+03  1.25063E+03 -3.75215E+03 -3.84248E+02
 -9.41338E+02 -4.28677E+03  3.88044E+02 -4.40261E+03  2.82236E+03 -3.24097E+03  3.24436E+03 -1.49551E+02
  4.12031E+03  2.34177E+03  2.22760E+03  2.53098E+03 -4.68496E+02  4.11284E+03 -2.58011E+03  2.00603E+03
 -1.81101E+03  7.37166E+02 -3.35672E+03 -1.40926E+03  9.61067E+01 -3.13105E+03  6.80446E+02 -2.26480E+03
  2.55602E+03 -1.33902E+03  1.27999E+03  9.38500E+01  1.04527E+03  1.35391E+03  6.10510E+02  5.01245E+02
  1.81716E+03  6.61716E+02  1.56378E+03  2.12753E+03  1.30078E+03  1.97059E+03  1.37841E+03  2.17270E+03
 -1.32730E+03  2.41449E+03 -1.80209E+03  4.61529E+03 -2.02794E+03  1.37041E+03 -4.04892E+03  4.67843E+02
 -1.61169E+03 -4.14396E+03  6.05619E+02 -3.98005E+03  1.76384E+03 -1.55615E+03  2.03032E+03 -5.49430E+02
  2.28180E+03  3.78818E+02 -4.73751E+01  1.83453E+03 -1.13259E+03 -3.44567E+01 -1.11994E+03  3.42074E+02
 -7.64251E+02 -1.23549E+03  2.49174E+02 -1.84861E+03  1.53843E+03 -6.49294E+02  1.27053E+02 -1.06515E+03
  1.09750E+03  1.33699E+02  7.48940E+02  2.87904E+02 -1.52517E+03  1.73558E+03  1.42541E+03 -6.76618E+02
 -1.22659E+03  3.40928E+02  3.48397E+03  4.46313E+02  2.88579E+02  2.15483E+03 -5.88174E+01  3.76620E+03
 -1.09511E+03  1.72322E+03 -9.95280E+02  3.36545E+01 -2.37066E+03 -9.06510E+02  4.04133E+02 -1.10925E+03
  3.44471E+02 -1.08244E+03  1.01287E+03 -6.73552E+02  4.37911E+02  1.66795E+03 -1.68828E+02  1.00980E+03
 -8.27734E+02  1.69810E+02 -5.68794E+02 -5.62826E+02 -9.76180E+02 -2.26440E+03 -8.02010E+00 -1.68795E+03
  1.99774E+02 -1.76721E+03  2.70707E+02 -6.93384E+02  1.97008E+03  5.99513E+02  9.59312E+02  1.23393E+03
 -1.68266E+02 -4.86032E+02 -1.36718E+03  4.01594E+02  1.14397E+03 -9.25734E+02  1.48354E+03 -9.21388E+02
  1.94725E+03 -1.93164E+02  2.54538E+03  2.76173E+02  1.59815E+03  1.67762E+03 -3.68059E+02  1.14509E+03
 -5.06164E+02  1.51348E+02 -8.72491E+02  2.24909E+02 -2.09540E+03 -6.27608E+02  4.86771E+02 -4.46403E+02
  2.07124E+03 -2.64208E+02  2.25521E+02  3.14220E+02 -4.32122E+02  1.44256E+03  3.83024E+02  9.79227E+02
  8.95038E+01  3.04295E+02 -1.22118E+03  5.58638E+02 -2.53856E+02  1.39423E+02 -7.82014E+02  1.32977E+03
  6.35439E+02  3.98491E+02 -2.24715E+03  1.05549E+03 -7.21629E+02  7.03409E+02 -1.70166E+03 -3.91480E+02
 -1.59325E+03 -1.86732E+03  2.99989E+02 -2.73455E+03  7.17227E+02 -2.31880E+03  1.66644E+03 -1.09565E+03
  2.39307E+03 -1.73273E+02  3.38217E+02  1.60776E+03 -2.56340E+02  6.39331E+02 -1.12926E+03  1.35249E+03
 -2.00279E+02  2.67429E+02 -6.77166E-01 -6.41954E+02 -5.98924E+02  1.47949E+02 -6.71787E+02  1.06736E+03
 -1.12220E+02 -2.14296E+01 -4.19801E+01  1.09831E+01 -7.41325E+02 -6.81819E+01 -2.56103E+02 -4.53852E+02
  1.11739E+03 -1.11307E+03  5.43685E+02 -6.49815E+01  4.53438E+02  4.26599E+02  9.62027E+01  5.33789E+02
 -2.70188E+02  1.95168E+03 -1.54101E+03  1.43293E+03 -1.78550E+03  9.53436E+02 -1.02919E+03 -1.91526E+03
 -8.07586E+02 -9.21640E+02  4.25646E+02 -1.39537E+03  7.30268E+02 -1.85941E+03  1.02151E+03  4.99619E+02
  5.48542E+02  9.75865E+01 -3.20395E+02  9.67375E+02 -1.10162E+03 -5.11319E+02  6.51577E+02 -6.89491E+02
 -7.41807E+01 -6.87253E+02  7.69371E+02  9.16211E+02  6.59699E+01  5.87452E+02  1.26724E+01  6.35698E+02
 -4.68503E+02  4.13945E+02 -5.95982E+02 -1.80108E+01  2.53997E+01 -4.91810E+02 -1.11595E+02 -2.01931E+02
  3.53900E+02 -3.01611E+02  1.17607E+02 -9.18693E+01  4.58024E+02 -6.56735E+02  2.01833E+02  4.54719E+02
 -1.01177E+02  1.25015E+03 -4.49498E+01  4.76778E+02 -4.42543E+02 -1.32865E+02  1.96596E+02 -2.32250E+02
 -1.04345E+03 -4.35784E+02 -6.98041E+02  2.79895E+02 -2.80607E+02 -2.26763E+02 -3.36064E+01 -6.38598E+01
 -2.20473E+03  7.58323E+01 -1.16866E+01 -1.26751E+03 -4.04917E+02 -1.62397E+03  1.04456E+03 -2.98132E+02
  8.37305E+02  1.27388E+02  4.13362E+02 -2.29527E+02 -6.35092E+02  5.50361E+02  2.22570E+02  6.99504E+02
