 $NMID ID='MM_0lb_SNR200_9hz_g60_9.RAW', FMTDAT='(8E13.5)'
 TRAMP=1., VOLUME=1. $END
  3.10758E+05  3.51912E+02  3.37378E+05  2.49268E+05  8.52609E+04  3.39221E+05 -1.32276E+05  2.51329E+05
 -1.91203E+05  8.44869E+04 -1.12663E+05 -3.13759E+04  2.11327E+03 -5.11400E+04  5.42419E+04  7.67034E+02
  3.53482E+04  5.31661E+04 -1.67595E+04  7.53179E+04 -6.08958E+04  6.45719E+04 -8.50380E+04  3.23902E+04
 -8.22688E+04 -1.38397E+04 -5.75871E+04 -5.34272E+04 -1.49643E+04 -7.23057E+04  2.88608E+04 -4.76731E+04
  4.24107E+04  3.93783E+03  1.73342E+04  4.85159E+04 -3.62123E+04  4.85714E+04 -6.65446E+04  4.19453E+02
 -5.46639E+04 -5.80575E+04 -6.62891E+03 -7.97189E+04  3.50998E+04 -5.75475E+04  4.98592E+04 -2.02000E+04
  4.67220E+04  1.08897E+04  3.33682E+04  2.58347E+04  1.65822E+04  3.12223E+04 -4.35553E+03  2.67396E+04
 -2.39115E+04  1.18589E+04 -1.76832E+04 -4.97516E+03  6.56267E+03 -8.80142E+03  2.32121E+04  1.14463E+04
  8.23083E+03  3.83131E+04 -3.29334E+04  3.83698E+04 -6.64425E+04  1.16634E+03 -6.00247E+04 -4.44916E+04
 -1.28121E+04 -6.74053E+04  4.12120E+04 -4.97133E+04  6.13194E+04 -2.24214E+03  3.75735E+04  3.40138E+04
 -6.71239E+03  4.02202E+04 -3.14535E+04  1.89624E+04 -3.35298E+04 -2.91371E+03 -2.08471E+04 -1.22872E+04
 -9.72612E+03 -1.61427E+04  2.78956E+02 -1.88438E+04  7.77398E+03 -2.41460E+04  1.62325E+04 -1.29551E+04
  9.81221E+03  4.91164E+03 -1.06202E+04  1.12859E+04 -2.41646E+04 -6.65478E+03 -8.76882E+03 -3.71422E+04
  2.65446E+04 -4.68487E+04  5.33366E+04 -2.12954E+04  4.93948E+04  2.18848E+04  1.69662E+04  4.73389E+04
 -1.67838E+04  3.84602E+04 -2.90536E+04  2.06191E+03 -1.25699E+04 -3.05806E+04  2.10010E+04 -3.70069E+04
  4.44023E+04 -1.10110E+04  4.15872E+04  2.65952E+04  2.33439E+04  5.07942E+04 -8.90553E+03  5.79360E+04
 -3.66556E+04  3.87998E+04 -5.01659E+04  1.14553E+04 -4.88870E+04 -1.88469E+04 -2.70636E+04 -4.11540E+04
  7.98419E+03 -4.33592E+04  3.53977E+04 -1.75985E+04  3.25607E+04  9.88350E+03  6.24217E+03  2.00646E+04
 -1.46415E+04  1.09786E+04 -1.13000E+04 -7.39085E+03  5.24004E+03 -1.37641E+04  2.06730E+04  6.50152E+03
  1.39568E+04  2.25802E+04 -5.20088E+03  2.83589E+04 -2.54914E+04  1.48634E+04 -3.26563E+04 -6.38190E+02
 -2.65496E+04 -1.99228E+04 -1.14392E+04 -2.52199E+04  3.32708E+03 -2.80516E+04  2.02324E+04 -2.33064E+04
  3.46938E+04 -1.42970E+04  3.87173E+04  6.85633E+03  2.80252E+04  2.60135E+04  5.33377E+03  4.35790E+04
 -2.09402E+04  3.48808E+04 -2.98945E+04  1.26094E+04 -2.26139E+04 -9.89753E+03 -4.38363E+03 -1.22232E+04
  1.27939E+03  1.05657E+03 -8.99766E+03  8.57759E+03 -1.96336E+04  4.79252E+03 -2.09925E+04 -1.09524E+04
 -1.12565E+04 -2.52520E+04  6.33688E+03 -2.95866E+04  2.11110E+04 -1.99165E+04  2.31551E+04  1.51642E+02
  1.69406E+04  1.71004E+04 -8.34722E+02  2.46037E+04 -1.70452E+04  1.43152E+04 -2.43302E+04 -4.88815E+03
 -1.79464E+04 -2.24145E+04 -8.24413E+02 -3.08873E+04  1.29831E+04 -2.43614E+04  2.49010E+04 -1.40555E+04
  2.35511E+04 -8.19686E+02  1.72085E+04  3.36738E+03  8.00365E+03  2.98363E+03  1.38019E+04 -1.61499E+03
  2.44706E+04  2.59084E+03  2.78098E+04  1.86364E+04  1.73384E+04  3.90415E+04 -3.87387E+03  4.63449E+04
 -2.50361E+04  3.88814E+04 -4.51796E+04  2.13890E+04 -4.63652E+04 -4.04311E+03 -3.95341E+04 -2.75396E+04
 -1.35136E+04 -3.71152E+04  1.40445E+04 -3.54662E+04  3.08663E+04 -1.64598E+04  2.57884E+04  7.62152E+03
  8.72858E+03  1.88807E+04 -1.05750E+04  1.55796E+04 -2.17572E+04  2.24541E+03 -1.46312E+04 -1.30100E+04
  6.73884E+02 -1.91618E+04  9.77513E+03 -1.46315E+04  1.50809E+04 -9.73814E+02  3.31087E+03  1.02064E+04
 -8.62044E+03  5.62555E+03 -1.13025E+04 -8.61434E+03 -2.80366E+03 -1.86824E+04  1.20290E+04 -2.17993E+04
  2.35425E+04 -1.21968E+04  2.77690E+04  3.98265E+03  2.29921E+04  2.06101E+04  1.08189E+04  3.01417E+04
 -6.29446E+03  3.39839E+04 -2.21616E+04  1.93023E+04 -2.26439E+04  2.53336E+03 -1.80516E+04 -6.92425E+03
 -7.42094E+03 -8.21933E+03 -1.96761E+03  3.82480E+02 -1.48662E+03  5.31469E+03 -7.75722E+03  6.36740E+03
 -1.44640E+04 -5.62557E+02 -1.52648E+04 -1.21913E+04 -6.90237E+03 -1.92563E+04  5.74385E+03 -1.69230E+04
  1.46271E+04 -6.72312E+03  9.66517E+03  5.23660E+03 -2.25219E+03  5.66123E+03 -8.60169E+03  7.62367E+01
 -8.60445E+03 -1.21980E+04 -1.20577E+03 -1.74555E+04  8.53855E+03 -1.63324E+04  2.17604E+04 -1.04974E+04
  2.32354E+04  3.75326E+03  1.72291E+04  1.50718E+04  4.06508E+03  1.99449E+04 -1.01600E+04  1.64790E+04
 -1.28548E+04  5.77928E+03 -8.26739E+03 -2.19640E+03  1.49017E+03 -5.32305E+03  9.38559E+03 -2.78725E+02
  7.72017E+03  7.28529E+03  1.04366E+03  1.21107E+04 -1.06324E+04  1.11455E+04 -1.68981E+04  1.07487E+03
 -1.18207E+04 -7.96979E+03 -2.89089E+02 -1.49970E+04  9.27605E+03 -6.74791E+03  1.02880E+04  5.86374E+03
  3.56869E+03  1.05648E+04 -1.00252E+04  1.14927E+04 -1.30335E+04  5.65953E+03 -1.56810E+04 -5.34264E+03
 -8.96639E+03 -1.80337E+04  4.39764E+03 -1.85654E+04  1.59069E+04 -1.21674E+04  1.78270E+04  3.85340E+03
  1.07779E+04  1.45103E+04 -9.28498E+02  1.78229E+04 -1.25962E+04  8.35290E+03 -1.32675E+04 -7.38570E+02
 -1.09275E+04 -1.13743E+04 -1.19228E+03 -1.28057E+04  6.76165E+03 -9.75971E+03  8.14455E+03 -2.83355E+03
  6.12018E+03  1.99726E+03 -1.22511E+03  8.61827E+02 -1.75329E+03 -4.42023E+03  3.52812E+03 -8.78144E+03
  1.20370E+04 -4.56885E+03  1.84260E+04  1.32626E+03  1.80791E+04  1.36045E+04  1.09889E+04  2.32930E+04
 -5.13442E+03  2.65006E+04 -2.11407E+04  1.86165E+04 -2.83576E+04  1.53734E+03 -2.14292E+04 -9.52775E+03
 -1.00921E+04 -1.79912E+04 -6.94369E+02 -1.70986E+04  3.39315E+03 -1.06091E+04  4.78276E+03 -7.33434E+03
  3.72499E+03 -3.69465E+03  4.14014E+03 -5.88241E+03  5.42862E+03 -3.18635E+03  7.92987E+03 -2.00533E+03
  1.09206E+04  6.20835E+02  7.23295E+03  1.07574E+04 -1.33910E+03  1.23637E+04 -1.08687E+04  8.94981E+03
 -1.72895E+04 -3.04304E+03 -1.00754E+04 -1.11017E+04 -2.38526E+03 -1.79868E+04  1.01401E+04 -1.69474E+04
  1.66729E+04 -9.82323E+03  2.05731E+04  3.71141E+03  1.55751E+04  1.52300E+04  1.42676E+03  1.80294E+04
 -9.70879E+03  1.71696E+04 -1.36920E+04  5.66236E+03 -5.91706E+03 -2.88814E+03 -3.31623E+03 -2.77366E+03
 -1.13565E+03 -1.66866E+03 -3.05023E+03  1.90974E+03 -7.35458E+03  2.78366E+03 -1.11143E+04  1.18993E+02
 -8.04668E+03 -1.08889E+04  3.96862E+02 -1.65384E+04  1.03067E+04 -1.55880E+04  1.45179E+04 -5.14643E+03
  1.48134E+04  7.70307E+03  6.57875E+03  1.55617E+04 -3.28094E+03  1.50544E+04 -1.15258E+04  1.03935E+04
 -1.57727E+04  9.14673E+02 -1.18693E+04 -9.84063E+03 -3.48226E+02 -1.16018E+04  6.50835E+03 -1.14729E+04
  9.10569E+03 -2.93389E+03  7.91752E+03  2.60611E+03  2.15671E+03  3.86308E+03  1.45537E+03  3.34462E+03
  2.37366E+03 -7.53123E+02  4.98171E+03  1.07638E+03  6.59729E+03  4.41543E+03  3.59896E+03  8.01375E+03
 -3.07584E+03  1.44809E+04 -1.12262E+04  1.28845E+04 -1.80133E+04  2.78145E+03 -1.66996E+04 -5.45667E+03
 -9.09645E+03 -1.66213E+04  1.72441E+03 -1.77962E+04  9.65401E+03 -1.14539E+04  1.52383E+04 -3.34071E+03
  1.02552E+04  6.25787E+03  2.98770E+03  8.25459E+03 -3.41817E+03  6.27892E+03 -8.54238E+03 -3.63230E+02
 -3.64063E+03 -6.58764E+03  4.81130E+03 -7.35711E+03  5.81740E+03 -2.83386E+03  6.40975E+03  1.25797E+03
  2.20429E+03  1.72772E+03  9.80708E+02  1.89957E+03  6.55711E+02  1.94641E+03  2.34128E+03 -2.53542E+02
  2.75797E+03 -8.68388E+02  6.51674E+03  2.50077E+03  5.06772E+03  9.06541E+03 -1.21557E+03  1.22641E+04
 -8.73031E+03  7.43165E+03 -1.03387E+04  2.91136E+03 -9.16215E+03 -4.48601E+03 -3.93160E+03 -6.49170E+03
  1.74383E+03 -5.62418E+03  4.59682E+03 -3.99591E+03  4.02844E+03  1.77061E+03 -1.83508E+03  6.47768E+03
 -5.14233E+03  3.82270E+03 -8.08922E+03 -3.81637E+03 -4.36016E+03 -9.77945E+03  1.23883E+03 -8.42859E+03
  5.00311E+03 -4.71692E+03  7.96898E+03 -1.05836E+03  4.61589E+03  3.13405E+03  2.20494E+03  4.12090E+03
 -4.43670E+03  2.50772E+03 -3.79418E+03 -4.92316E+03  2.27485E+03 -6.77646E+03  7.93122E+03 -5.79393E+03
  1.07536E+04  5.05710E+02  8.48789E+03  7.59890E+03  4.17861E+03  1.15335E+04 -4.04199E+03  1.04901E+04
 -8.81562E+03  3.05355E+03 -9.06681E+03 -1.13758E+03 -6.64137E+03 -9.14425E+03  1.73914E+03 -8.19643E+03
  7.21564E+03 -4.82356E+03  4.87338E+03  1.09645E+03  1.22870E+03  7.14177E+03 -9.73788E+02  5.83098E+03
 -2.28959E+03  3.57943E+03 -2.61025E+03  1.30331E+03 -1.41445E+03  1.21229E+03 -1.25689E+03  1.26114E+03
 -2.22658E+03  3.81295E+03 -5.74306E+03  4.01723E+03 -1.26373E+04  4.31488E+02 -1.22086E+04 -6.48807E+03
 -5.01866E+03 -1.46892E+04  1.91506E+03 -1.82511E+04  1.01580E+04 -1.30030E+04  1.54016E+04 -5.64622E+03
  1.42905E+04  4.78616E+03  8.86721E+03  1.11581E+04  3.16753E+03  1.11560E+04 -4.18549E+03  9.12302E+03
 -6.82777E+03  3.67556E+03 -3.39747E+03 -6.75229E+02 -2.32583E+03  1.23936E+02 -1.67640E+03 -1.89342E+03
 -3.06150E+03  1.78994E+02 -4.78220E+03 -1.90674E+02 -7.33407E+02 -1.29364E+03 -1.25043E+03 -4.97929E+03
  6.78302E+03 -2.84906E+03  7.56167E+03  5.54873E+02  8.56585E+03  6.34993E+03  2.40932E+03  1.23266E+04
 -4.74352E+03  1.29913E+04 -1.18421E+04  6.39133E+03 -1.41533E+04 -3.99319E+02 -1.17145E+04 -9.26578E+03
 -4.84076E+03 -1.22571E+04  4.05853E+03 -1.06666E+04  7.51994E+03 -5.01922E+03  5.87378E+03 -7.87299E+02
  4.55353E+03  4.16037E+03  1.99130E+02  3.17691E+03 -2.83125E+03 -2.36192E+03 -1.37538E+03 -1.16890E+03
  4.01276E+03 -1.89048E+03  4.21023E+03  3.80933E+03  2.61249E+03  5.20737E+03  2.12300E+02  5.51954E+03
 -2.63225E+03  4.97614E+03 -7.23428E+03  7.98824E+02 -6.27392E+03 -6.40953E+03 -5.61032E+02 -8.70758E+03
  6.45775E+03 -7.01382E+03  1.01565E+04 -7.27620E+02  9.54678E+03  1.55566E+03  5.49852E+03  5.22515E+03
 -1.03034E+03  7.32473E+03 -2.17994E+03  6.44390E+03 -4.21331E+03  3.49418E+03 -4.92715E+03  2.03993E+03
 -1.55243E+03  1.58166E+03 -1.78650E+03  1.72777E+03 -3.65384E+03  1.99088E+03 -4.14072E+03 -2.21186E+03
 -5.59183E+03 -4.50850E+03 -1.89702E+03 -8.54771E+03  3.42382E+03 -6.24606E+03  6.93661E+03 -3.41909E+03
  6.73193E+03  4.00131E+02  4.34999E+03  4.46110E+03  3.41301E+02  6.48143E+03 -6.92112E+03  5.32595E+03
