 $NMID ID='MM_0lb_SNR200_8hz_g55_44.RAW', FMTDAT='(8E13.5)'
 TRAMP=1., VOLUME=1. $END
  3.09370E+05  2.86012E+02  3.38789E+05  2.50890E+05  8.64825E+04  3.39631E+05 -1.33802E+05  2.52657E+05
 -1.91263E+05  8.26244E+04 -1.11942E+05 -3.26019E+04 -6.92599E+02 -5.21174E+04  5.27979E+04 -1.23966E+03
  3.64988E+04  5.44628E+04 -1.56938E+04  7.50077E+04 -6.04183E+04  6.64058E+04 -8.45439E+04  3.04288E+04
 -8.38314E+04 -1.01485E+04 -5.78818E+04 -5.31174E+04 -1.32136E+04 -7.28177E+04  2.80696E+04 -4.68783E+04
  4.27983E+04  3.56805E+03  1.85683E+04  4.87799E+04 -3.42247E+04  4.87221E+04 -6.87377E+04 -1.38792E+03
 -5.50798E+04 -5.87451E+04 -7.08889E+03 -7.89302E+04  3.42150E+04 -5.81366E+04  5.10855E+04 -1.83599E+04
  4.49474E+04  1.21345E+04  3.29366E+04  2.78785E+04  1.58920E+04  3.02021E+04 -6.00952E+03  2.72924E+04
 -2.33660E+04  1.27405E+04 -1.80607E+04 -5.19213E+03  6.52176E+03 -7.16350E+03  2.34838E+04  1.24338E+04
  8.36453E+03  3.74759E+04 -3.39090E+04  3.82026E+04 -6.70006E+04  1.43539E+03 -5.90114E+04 -4.62972E+04
 -1.33912E+04 -6.65829E+04  4.19502E+04 -4.82360E+04  6.17694E+04 -2.96019E+03  3.85310E+04  3.89010E+04
 -7.13631E+03  3.95928E+04 -3.25419E+04  2.07524E+04 -3.40609E+04 -4.51081E+03 -1.84212E+04 -1.26146E+04
 -1.05490E+04 -1.51339E+04 -1.06793E+03 -1.97997E+04  7.30447E+03 -2.24383E+04  1.63054E+04 -1.21422E+04
  9.95048E+03  7.22986E+03 -1.12429E+04  1.21222E+04 -2.43496E+04 -8.02868E+03 -9.47568E+03 -4.00049E+04
  2.68293E+04 -4.69070E+04  5.36370E+04 -2.17777E+04  4.92231E+04  2.09077E+04  1.96504E+04  4.70603E+04
 -1.61542E+04  3.67856E+04 -2.72844E+04  1.43603E+03 -1.24136E+04 -2.94258E+04  2.13064E+04 -3.71297E+04
  4.40954E+04 -1.17516E+04  4.16461E+04  2.52767E+04  2.23407E+04  5.09401E+04 -8.22064E+03  5.74349E+04
 -3.60910E+04  4.08869E+04 -4.92640E+04  1.09790E+04 -4.86459E+04 -2.06227E+04 -2.71059E+04 -4.32958E+04
  8.70436E+03 -4.34348E+04  3.50900E+04 -2.00803E+04  3.47753E+04  1.14299E+04  4.22803E+03  2.20771E+04
 -1.39641E+04  1.01468E+04 -1.30090E+04 -8.28816E+03  7.11637E+03 -1.23916E+04  1.84943E+04  6.39806E+03
  1.51620E+04  2.36999E+04 -5.87198E+03  2.61489E+04 -2.43630E+04  1.57189E+04 -3.27903E+04 -2.19438E+03
 -2.59120E+04 -1.79097E+04 -1.32560E+04 -2.65749E+04  3.73121E+03 -2.83298E+04  2.18510E+04 -2.46637E+04
  3.33359E+04 -1.53821E+04  4.12306E+04  4.59777E+03  2.77830E+04  2.51138E+04  3.88858E+03  4.25814E+04
 -2.11230E+04  3.40660E+04 -3.22565E+04  1.38099E+04 -2.35254E+04 -1.05813E+04 -6.33093E+03 -1.14571E+04
  1.39365E+03 -1.27318E+03 -8.85428E+03  9.75579E+03 -2.20961E+04  4.30888E+03 -2.09506E+04 -1.07836E+04
 -1.24525E+04 -2.46673E+04  6.29209E+03 -2.91517E+04  2.03558E+04 -1.97666E+04  2.48912E+04 -2.02487E+03
  1.49828E+04  1.66370E+04 -1.33572E+03  2.41776E+04 -1.72868E+04  1.50278E+04 -2.42375E+04 -6.17608E+03
 -1.87477E+04 -2.26889E+04 -2.00480E+03 -2.89103E+04  1.43435E+04 -2.48972E+04  2.39531E+04 -1.24123E+04
  2.19042E+04 -6.64819E+02  1.55873E+04  5.07874E+03  8.58936E+03  2.60122E+03  1.35815E+04 -2.12982E+03
  2.24335E+04  2.74046E+03  2.61779E+04  2.03675E+04  1.90702E+04  3.98311E+04 -3.55740E+03  4.83544E+04
 -2.87577E+04  4.04078E+04 -4.42161E+04  2.08437E+04 -5.05098E+04 -2.10500E+03 -4.02250E+04 -2.79553E+04
 -1.38731E+04 -3.89388E+04  1.59931E+04 -3.71323E+04  3.00855E+04 -1.65830E+04  2.62050E+04  8.54206E+03
  8.76338E+03  1.96188E+04 -1.25216E+04  1.70123E+04 -2.01524E+04  2.13919E+03 -1.59250E+04 -1.23195E+04
  2.75310E+02 -2.26322E+04  1.07909E+04 -1.61475E+04  1.47208E+04 -1.78048E+03  3.33622E+03  9.20883E+03
 -7.69793E+03  5.16654E+03 -1.01930E+04 -6.72180E+03 -1.63164E+03 -1.89236E+04  1.37838E+04 -2.11071E+04
  2.58333E+04 -1.24211E+04  2.87476E+04  1.53185E+03  2.45844E+04  1.92618E+04  1.33254E+04  3.22500E+04
 -5.67720E+03  3.46299E+04 -2.07677E+04  2.16204E+04 -2.55941E+04  3.12241E+03 -1.80039E+04 -7.39041E+03
 -5.78846E+03 -6.70628E+03  8.59418E+01 -4.87908E+02 -3.33875E+03  3.30037E+03 -7.38805E+03  7.90248E+03
 -1.47906E+04 -5.22320E+02 -1.53376E+04 -1.36618E+04 -8.21584E+03 -2.17167E+04  7.72758E+03 -1.71166E+04
  1.37341E+04 -4.92125E+03  1.09400E+04  4.29649E+03 -1.71172E+02  8.21950E+03 -7.21294E+03 -7.40322E+02
 -8.60327E+03 -9.70784E+03 -3.53873E+03 -1.71789E+04  9.64457E+03 -1.75696E+04  2.02418E+04 -9.95324E+03
  2.58275E+04  2.20503E+03  1.87308E+04  1.63708E+04  2.37608E+03  2.09357E+04 -9.71340E+03  1.56454E+04
 -1.28315E+04  4.82209E+03 -7.02672E+03 -4.82049E+03  1.55648E+03 -6.83982E+03  8.12448E+03  2.69496E+03
  7.83841E+03  7.66925E+03  2.30746E+03  1.45860E+04 -9.13949E+03  1.27373E+04 -1.70456E+04  4.13975E+03
 -1.08134E+04 -9.99245E+03  1.30811E+03 -1.48335E+04  9.71057E+03 -7.38218E+03  1.20528E+04  4.27377E+03
  2.36970E+03  1.15832E+04 -9.02094E+03  1.25892E+04 -1.47723E+04  5.23727E+03 -1.53874E+04 -4.82222E+03
 -9.36893E+03 -1.76761E+04  3.24985E+03 -2.13428E+04  1.55712E+04 -1.32876E+04  1.97858E+04  4.76398E+03
  1.22639E+04  1.39443E+04 -1.26095E+03  1.75748E+04 -1.30475E+04  1.01418E+04 -1.48714E+04 -1.06566E+03
 -1.03621E+04 -1.00329E+04 -1.08126E+03 -1.32332E+04  8.66429E+03 -1.15059E+04  8.57314E+03 -1.90799E+03
  4.58373E+03  2.77746E+03 -1.77901E+03  1.35174E+03 -2.67860E+03 -5.06291E+03  2.77125E+03 -7.55368E+03
  1.32774E+04 -4.66226E+03  1.90338E+04  2.09549E+03  1.79862E+04  1.34431E+04  8.32114E+03  2.46266E+04
 -5.14704E+03  2.81675E+04 -2.27902E+04  1.96087E+04 -3.01883E+04  4.37816E+03 -2.40317E+04 -1.15715E+04
 -1.16606E+04 -1.84321E+04 -1.49203E+03 -1.54223E+04  4.60033E+03 -1.09941E+04  6.54861E+03 -6.57401E+03
  2.67316E+03 -3.74888E+03  4.29415E+03 -1.95245E+03  6.25202E+03 -3.31345E+03  9.89121E+03 -9.73547E+02
  1.27705E+04  2.91751E+03  7.50402E+03  1.05760E+04 -2.01279E+03  1.35563E+04 -1.25742E+04  1.00107E+04
 -1.78744E+04 -1.25022E+03 -1.07892E+04 -1.17554E+04 -1.81274E+03 -1.87076E+04  8.48552E+03 -1.85117E+04
  1.88879E+04 -9.72780E+03  2.31512E+04  2.36861E+03  1.45456E+04  1.65928E+04  2.23307E+03  2.12210E+04
 -9.51925E+03  1.59458E+04 -1.17120E+04  5.44379E+03 -8.67848E+03 -2.70406E+03 -4.44686E+03 -3.19595E+03
 -1.06811E+03 -2.33111E+03 -3.09300E+03  2.65306E+03 -6.98817E+03  3.03550E+03 -1.03440E+04 -2.21846E+03
 -8.00700E+03 -1.13661E+04 -1.93490E+03 -1.83233E+04  1.13337E+04 -1.73373E+04  1.87411E+04 -5.51904E+03
  1.62791E+04  7.97163E+03  7.81727E+03  1.42861E+04 -3.31490E+03  1.46952E+04 -1.14743E+04  1.04696E+04
 -1.52350E+04 -3.18889E+02 -1.19563E+04 -1.08666E+04 -4.19832E+03 -1.33923E+04  7.95172E+03 -1.15245E+04
  1.03051E+04 -1.27960E+03  7.74751E+03  2.74564E+03  2.23921E+03  5.06449E+03  2.50241E+03  1.46914E+03
  3.83820E+03  2.50530E+02  4.27923E+03  2.68788E+03  5.94675E+03  5.82951E+03  5.86880E+03  8.56202E+03
 -1.96178E+03  1.46806E+04 -1.27808E+04  1.39800E+04 -1.83972E+04  4.19404E+03 -1.69254E+04 -7.41982E+03
 -6.26078E+03 -1.74639E+04  1.21450E+03 -1.96136E+04  1.29028E+04 -1.16384E+04  1.42272E+04 -2.92287E+03
  1.12681E+04  7.15826E+03  1.33568E+03  9.90860E+03 -5.08919E+03  6.20082E+03 -4.60909E+03 -1.25684E+03
 -4.38790E+03 -6.49813E+03  3.06287E+03 -7.67136E+03  8.11781E+03 -3.67758E+03  7.23703E+03  2.81388E+03
  2.05515E+03  4.42613E+03  1.25028E+03  5.05379E+03 -1.80411E+03  3.02491E+03  1.22675E+03 -1.66094E+02
  4.50348E+03  6.16769E+02  7.55805E+03  3.64835E+03  4.66992E+03  1.07067E+04 -3.27408E+02  1.17794E+04
 -7.12287E+03  8.54909E+03 -1.10069E+04  2.10537E+03 -9.96840E+03 -4.58269E+03 -3.48424E+03 -8.24024E+03
  1.54666E+03 -8.07405E+03  5.30553E+03 -4.15058E+03  4.03402E+03  3.06040E+03 -1.55840E+03  5.30874E+03
 -6.53461E+03  4.67369E+03 -7.69436E+03 -4.91289E+03 -5.46343E+03 -9.44783E+03  6.05301E+02 -9.37561E+03
  5.34579E+03 -7.14104E+03  9.84576E+03 -1.50495E+03  5.65480E+03  3.01935E+03  3.85614E+03  4.89272E+03
 -5.15411E+03  1.33746E+03 -5.51201E+03 -3.52619E+03  1.31394E+03 -7.48511E+03  8.65225E+03 -6.38692E+03
  1.25444E+04  2.08407E+03  1.15332E+04  7.94162E+03  4.16703E+03  1.24173E+04 -4.86864E+03  1.05192E+04
 -9.97728E+03  4.78350E+03 -1.04502E+04 -1.53628E+03 -5.66139E+03 -6.38500E+03  2.27513E+03 -7.18137E+03
  6.95869E+03 -4.53194E+03  7.18344E+03  4.36972E+03  2.52614E+03  8.37837E+03 -9.02992E+02  5.08375E+03
 -2.24945E+03  2.89467E+03 -1.59239E+03  2.58374E+03 -1.50156E+03  1.39620E+03 -3.89825E+03  3.22113E+03
 -1.23634E+03  3.85622E+03 -8.55342E+03  4.04609E+03 -1.23023E+04  2.05035E+02 -1.43291E+04 -8.18457E+03
 -8.04818E+03 -1.60879E+04  2.50689E+03 -1.81174E+04  1.08474E+04 -1.40489E+04  1.76448E+04 -3.91515E+03
  1.76100E+04  3.33584E+03  8.63453E+03  1.23117E+04  1.32021E+03  1.34548E+04 -6.40730E+03  9.77604E+03
 -7.63817E+03  4.03263E+03 -4.33547E+03 -1.69272E+03 -2.60688E+03 -1.51267E+03 -8.84456E+02 -1.45555E+03
 -2.41993E+03  1.58575E+03 -2.72240E+03  5.46962E+02 -3.45637E+01 -4.13930E+03  1.97094E+03 -4.75088E+03
  6.62993E+03 -3.19917E+03  8.28303E+03 -1.05514E+03  7.29950E+03  5.82515E+03  3.07873E+03  1.24241E+04
 -6.03379E+03  1.49396E+04 -1.29956E+04  7.95379E+03 -1.53126E+04 -1.54728E+03 -1.02837E+04 -1.03323E+04
 -4.60738E+03 -1.23887E+04  3.94756E+03 -1.21182E+04  7.90111E+03 -6.50509E+03  8.18483E+03  9.01022E+02
  6.74841E+03  3.48101E+03 -2.99004E+02  4.19672E+03 -3.02221E+03 -6.00576E+02 -5.69574E+02 -2.52859E+03
  3.54597E+03 -2.46210E+03  3.82725E+03  2.24740E+03  3.93075E+03  4.84231E+03 -1.15571E+03  7.68649E+03
 -6.99964E+03  5.74562E+03 -1.00840E+04  1.70775E+03 -1.00827E+04 -6.12977E+03 -9.07654E+02 -1.03638E+04
  9.60617E+03 -9.36040E+03  9.51464E+03 -3.35915E+03  1.03691E+04  2.80126E+03  7.52171E+03  8.37531E+03
  7.41706E+02  9.50315E+03 -3.60019E+03  6.29455E+03 -5.10391E+03  2.76344E+03 -4.82732E+03 -1.85282E+03
 -1.01671E+03  6.84561E+02 -2.26299E+03  1.65787E+03 -3.20616E+03  1.64845E+03 -7.31021E+03 -8.45530E+02
 -5.90812E+03 -6.01579E+03 -2.04352E+03 -9.37835E+03  4.28134E+03 -7.99066E+03  7.66521E+03 -4.75551E+03
  9.95322E+03  7.95243E+02  7.25355E+03  7.65951E+03 -5.22602E+02  8.96111E+03 -6.23551E+03  5.20966E+03
