 $NMID ID='MM_0lb_SNR200_9hz_g55_17.RAW', FMTDAT='(8E13.5)'
 TRAMP=1., VOLUME=1. $END
  3.09501E+05 -1.48996E+03  3.37318E+05  2.51040E+05  8.67253E+04  3.38291E+05 -1.33114E+05  2.52121E+05
 -1.91083E+05  8.32142E+04 -1.12613E+05 -3.18315E+04 -9.18790E+02 -4.99006E+04  5.33727E+04 -2.42112E+03
  3.46802E+04  5.25691E+04 -1.77186E+04  7.75657E+04 -6.14883E+04  6.52922E+04 -8.52167E+04  3.34674E+04
 -8.20656E+04 -1.11632E+04 -5.79837E+04 -5.27136E+04 -1.76307E+04 -7.14718E+04  2.88750E+04 -4.75052E+04
  3.96797E+04  3.74046E+03  1.71883E+04  5.00755E+04 -3.58607E+04  4.80798E+04 -6.89171E+04  5.60927E+02
 -5.61695E+04 -5.91344E+04 -7.48984E+03 -7.88270E+04  3.47006E+04 -5.79728E+04  5.10654E+04 -1.88743E+04
  4.62992E+04  1.31343E+04  3.23432E+04  2.62098E+04  1.57700E+04  2.95941E+04 -5.83336E+03  2.73481E+04
 -2.27875E+04  1.03238E+04 -1.97664E+04 -6.85238E+03  7.47261E+03 -7.79663E+03  2.39495E+04  1.49087E+04
  8.05891E+03  3.84638E+04 -3.39269E+04  3.71213E+04 -6.66915E+04  3.16058E+03 -5.87466E+04 -4.39606E+04
 -1.19704E+04 -6.52431E+04  4.09667E+04 -4.91791E+04  5.97264E+04 -2.77959E+03  3.67377E+04  3.42656E+04
 -4.29425E+03  4.11116E+04 -3.30381E+04  1.91703E+04 -3.26889E+04 -3.40660E+03 -1.84114E+04 -1.20951E+04
 -9.78853E+03 -1.38610E+04 -1.29949E+03 -2.09276E+04  9.08441E+03 -2.43944E+04  1.48067E+04 -1.31632E+04
  1.01113E+04  6.53818E+03 -1.14025E+04  1.41827E+04 -2.30372E+04 -6.12064E+03 -8.31372E+03 -3.83929E+04
  2.81365E+04 -4.83516E+04  5.17750E+04 -2.10386E+04  4.88908E+04  2.17600E+04  1.79854E+04  4.73486E+04
 -1.69276E+04  3.63020E+04 -2.75529E+04  1.60038E+03 -1.16968E+04 -3.02797E+04  2.19899E+04 -3.91720E+04
  4.61507E+04 -1.18484E+04  4.08924E+04  2.51046E+04  2.20764E+04  5.09185E+04 -8.14038E+03  5.88015E+04
 -3.41389E+04  3.77083E+04 -4.86100E+04  1.14774E+04 -4.84958E+04 -1.89276E+04 -2.83924E+04 -4.26937E+04
  7.03974E+03 -4.17552E+04  3.34285E+04 -1.74419E+04  3.23900E+04  1.07935E+04  5.53401E+03  2.08557E+04
 -1.41902E+04  9.16376E+03 -9.89586E+03 -6.60006E+03  6.46020E+03 -1.21708E+04  1.81693E+04  5.08759E+03
  1.62332E+04  2.30463E+04 -5.23413E+03  2.65226E+04 -2.33194E+04  1.44408E+04 -3.02848E+04 -3.15112E+03
 -2.63699E+04 -1.84288E+04 -1.01000E+04 -2.32988E+04  4.43430E+03 -2.48557E+04  2.02428E+04 -2.39752E+04
  3.42924E+04 -1.36988E+04  3.92943E+04  5.60405E+03  2.59787E+04  2.44152E+04  6.17563E+03  4.30390E+04
 -2.05788E+04  3.36247E+04 -3.15984E+04  1.05647E+04 -2.25511E+04 -9.16390E+03 -4.77570E+03 -1.33265E+04
  1.51741E+03 -1.07230E+03 -6.99494E+03  7.44388E+03 -2.02076E+04  6.69668E+03 -1.95964E+04 -9.46211E+03
 -1.21544E+04 -2.47215E+04  5.66881E+03 -2.98858E+04  1.92809E+04 -2.01784E+04  2.32267E+04 -1.98499E+03
  1.46390E+04  1.68848E+04 -3.47964E+02  2.27357E+04 -1.81159E+04  1.17663E+04 -2.44406E+04 -6.34840E+03
 -1.70998E+04 -2.23501E+04 -2.73164E+03 -2.73318E+04  1.32748E+04 -2.25188E+04  2.29587E+04 -1.25232E+04
  2.08441E+04 -6.81658E+02  1.58727E+04  5.18703E+03  8.35318E+03  1.26219E+03  1.21037E+04 -8.39695E+02
  2.20030E+04  1.56453E+03  2.60002E+04  1.97463E+04  1.92227E+04  3.95253E+04 -3.58517E+03  4.46148E+04
 -2.74882E+04  3.86916E+04 -4.34992E+04  2.02738E+04 -4.59168E+04 -2.52794E+03 -3.82726E+04 -2.71127E+04
 -1.52878E+04 -3.86387E+04  1.24917E+04 -3.24336E+04  2.83969E+04 -1.72986E+04  2.27417E+04  8.09136E+03
  7.37176E+03  2.00370E+04 -1.36414E+04  1.69693E+04 -2.01058E+04  1.65938E+03 -1.64651E+04 -1.30196E+04
 -5.83511E+01 -2.12069E+04  1.04736E+04 -1.41829E+04  1.36481E+04 -1.19409E+03  4.08296E+03  9.12970E+03
 -8.57132E+03  4.17169E+03 -1.00288E+04 -7.44254E+03 -2.19009E+03 -1.85300E+04  1.19209E+04 -2.05984E+04
  2.24281E+04 -1.12692E+04  2.73110E+04  5.56527E+03  2.45177E+04  1.64210E+04  1.25603E+04  3.07032E+04
 -5.49127E+03  3.12836E+04 -2.30729E+04  2.01771E+04 -2.18504E+04  4.75834E+03 -1.50232E+04 -5.54470E+03
 -6.90568E+03 -7.84995E+03  8.23020E+02 -1.57765E+03 -2.37625E+03  3.98257E+03 -8.68741E+03  6.59265E+03
 -1.59425E+04 -2.54957E+02 -1.40075E+04 -1.14866E+04 -5.88229E+03 -1.98634E+04  7.57619E+03 -1.63073E+04
  1.33372E+04 -5.99651E+03  8.96476E+03  4.75443E+03 -8.05344E+02  6.00414E+03 -5.86603E+03 -1.54030E+03
 -7.06607E+03 -9.28674E+03 -1.39615E+03 -1.60706E+04  8.95748E+03 -1.74348E+04  1.85532E+04 -9.29547E+03
  2.46313E+04  2.48874E+03  1.76265E+04  1.58578E+04  1.82718E+03  1.96189E+04 -1.16270E+04  1.41709E+04
 -1.26009E+04  3.91111E+03 -8.22184E+03 -1.84008E+03  2.35626E+03 -4.90681E+03  9.45067E+03 -1.54889E+03
  8.00626E+03  6.98266E+03  2.58268E+03  1.13414E+04 -9.79267E+03  1.32020E+04 -1.68538E+04  1.48541E+03
 -1.26956E+04 -8.90052E+03  1.07039E+02 -1.32016E+04  1.05095E+04 -7.84476E+03  8.82003E+03  3.94878E+03
  1.77344E+03  1.14857E+04 -9.49336E+03  1.22107E+04 -1.55045E+04  6.06274E+03 -1.56377E+04 -6.01359E+03
 -9.18106E+03 -1.57907E+04  3.94449E+03 -1.77755E+04  1.61329E+04 -1.10912E+04  1.72840E+04  3.02615E+03
  1.16345E+04  1.54755E+04 -2.05051E+03  1.57132E+04 -1.23641E+04  8.34882E+03 -1.20219E+04 -2.68819E+03
 -1.04407E+04 -9.99509E+03 -2.53023E+03 -1.42303E+04  7.46513E+03 -1.04253E+04  7.38845E+03 -4.22093E+03
  5.08840E+03  2.75329E+03 -1.55853E+03  3.23410E+03 -1.37135E+03 -4.00132E+03  3.11101E+03 -7.27589E+03
  1.36267E+04 -5.58505E+03  1.62491E+04  2.94472E+03  1.61269E+04  1.16743E+04  1.09669E+04  2.02402E+04
 -6.01194E+03  2.51473E+04 -2.10127E+04  1.89165E+04 -2.75707E+04  4.12904E+03 -2.04656E+04 -8.82983E+03
 -9.55790E+03 -1.72907E+04 -1.00894E+03 -1.41682E+04  5.83969E+03 -7.43313E+03  6.01170E+03 -4.96776E+03
  1.73214E+03 -3.05473E+03  3.46050E+03 -3.45072E+03  6.01200E+03 -4.46554E+03  9.65447E+03 -1.87760E+03
  1.11616E+04  4.27921E+03  4.07889E+03  1.08883E+04 -3.17098E+03  1.11863E+04 -1.11020E+04  7.41084E+03
 -1.57452E+04 -2.12385E+02 -1.01179E+04 -1.06376E+04 -3.56376E+03 -1.59738E+04  9.46103E+03 -1.72744E+04
  1.76796E+04 -9.06729E+03  2.13682E+04  3.88197E+03  1.28932E+04  1.45113E+04  2.09477E+03  1.99907E+04
 -8.10353E+03  1.43737E+04 -1.15141E+04  3.69430E+03 -8.00038E+03 -1.98295E+03 -2.08783E+03 -2.46496E+03
 -2.22245E+03 -1.22253E+03 -2.40391E+03  2.83348E+03 -5.42669E+03  3.86863E+03 -7.71462E+03 -1.87258E+03
 -7.55583E+03 -1.00127E+04 -1.69860E+03 -1.38447E+04  9.21228E+03 -1.42541E+04  1.46353E+04 -5.46907E+03
  1.45409E+04  8.80257E+03  6.59561E+03  1.35790E+04 -3.07345E+03  1.65613E+04 -1.09779E+04  1.02157E+04
 -1.56941E+04  1.46431E+03 -1.19197E+04 -7.54120E+03 -2.39247E+03 -1.27250E+04  5.89431E+03 -1.03523E+04
  9.59167E+03 -1.53432E+03  6.12777E+03  3.42558E+03  9.39600E+02  5.03358E+03  7.46622E+02  1.80906E+03
  2.14406E+03  1.99121E+03  3.67873E+03  1.92699E+03  4.41501E+03  4.30967E+03  4.02536E+03  7.44217E+03
 -5.11652E+03  1.27150E+04 -1.13468E+04  1.16751E+04 -1.58553E+04  3.74576E+03 -1.61766E+04 -6.67818E+03
 -8.40174E+03 -1.57531E+04  2.02744E+03 -1.74783E+04  9.88959E+03 -8.91874E+03  1.29722E+04 -1.89015E+03
  9.54041E+03  6.41021E+03  1.74569E+03  8.45433E+03 -4.14546E+03  5.59244E+03 -6.06126E+03 -7.20326E+02
 -3.37690E+03 -6.29456E+03  2.10071E+03 -7.85214E+03  7.33863E+03 -2.96009E+03  7.08132E+03  1.39137E+03
  3.19566E+03  1.97676E+03  1.59619E+03  3.03954E+03 -2.29348E+03  2.52303E+03  1.24333E+03  3.61777E+02
  1.80452E+03 -1.52469E+03  7.39889E+03  2.53925E+03  4.33550E+03  6.58040E+03 -6.54916E+02  1.38009E+04
 -8.03498E+03  7.91011E+03 -1.07697E+04  1.84761E+03 -1.05277E+04 -4.11763E+03 -4.48125E+03 -6.80603E+03
  1.38641E+03 -6.20098E+03  3.51084E+03 -3.11538E+03  3.14087E+03  4.05551E+03 -2.03805E+03  3.77502E+03
 -5.94193E+03  3.35098E+03 -7.88668E+03 -4.17392E+03 -5.29303E+03 -9.30073E+03  4.57263E+02 -8.90190E+03
  6.17447E+03 -5.14295E+03  6.68669E+03 -1.46234E+03  2.84769E+03  2.63820E+03  1.65692E+02  5.25642E+03
 -1.85619E+03  1.06415E+03 -3.13622E+03 -2.10252E+03  7.63302E+02 -6.82143E+03  6.03684E+03 -5.99393E+03
  9.35572E+03  3.11868E+02  1.07141E+04  8.73571E+03  3.22326E+03  1.04782E+04 -3.83248E+03  1.11879E+04
 -8.67306E+03  4.33147E+03 -8.89724E+03 -2.46989E+03 -5.98304E+03 -7.52346E+03  2.08030E+03 -6.96066E+03
  6.76639E+03 -3.01225E+03  5.70757E+03  5.02016E+03  2.83017E+03  4.88552E+03 -1.05156E+03  5.25539E+03
 -1.69840E+03  2.76335E+03 -2.75404E+03  1.43383E+03 -7.08408E+02  1.31443E+03 -1.85993E+03  1.56919E+03
 -3.25381E+03  4.63306E+03 -8.06107E+03  3.76729E+03 -1.03732E+04  1.43544E+03 -1.44325E+04 -8.56448E+03
 -4.68507E+03 -1.31214E+04  1.82366E+03 -1.53603E+04  1.00924E+04 -1.15731E+04  1.58727E+04 -4.92410E+03
  1.44590E+04  1.74392E+03  9.00294E+03  9.74114E+03  2.37231E+02  9.00214E+03 -4.46274E+03  1.02768E+04
 -6.41614E+03  3.97820E+03 -4.01581E+03 -8.58237E+02 -1.40244E+03 -7.93313E+02 -8.50758E+02  7.77318E+02
 -2.80869E+03  4.14958E+02 -3.16419E+03  6.62783E+02 -2.25664E+03 -3.73322E+03  2.96995E+03 -3.99626E+03
  5.21708E+03 -3.90237E+03  6.39192E+03  1.88564E+02  8.06603E+03  4.99368E+03  1.07728E+03  9.77811E+03
 -5.47117E+03  1.22690E+04 -1.23328E+04  5.86388E+03 -1.13093E+04 -8.27913E+02 -1.08955E+04 -1.01122E+04
 -4.94287E+03 -1.19243E+04  2.44747E+03 -1.14310E+04  6.57448E+03 -5.88315E+03  4.71466E+03  1.06419E+03
  4.52785E+03  3.67296E+03 -5.47518E+01  2.52499E+03 -1.41698E+03  1.35417E+03  1.11552E+03 -1.91662E+03
  3.56177E+03 -1.42972E+03  4.83580E+03  3.51332E+03  4.76082E+02  4.34362E+03  2.02322E+03  3.92930E+03
 -5.77288E+03  5.95746E+03 -9.32607E+03  1.34353E+03 -8.17419E+03 -6.24006E+03 -2.39981E+02 -7.94957E+03
  4.74983E+03 -8.27410E+03  8.16913E+03 -2.07184E+03  7.35917E+03  3.71582E+03  6.23740E+03  6.72576E+03
  1.36569E+03  7.38057E+03 -1.68024E+03  3.93246E+03 -5.20784E+03  3.05781E+03 -3.00816E+03  4.37327E+02
 -1.45292E+03  1.61273E+02 -2.97694E+03  1.70925E+03 -3.34446E+03  4.06226E+02 -4.83044E+03 -3.82052E+03
 -5.09464E+03 -5.31960E+03 -1.54384E+03 -7.42104E+03  3.02743E+03 -6.35990E+03  6.79696E+03 -4.83061E+03
  7.48237E+03  5.65842E+02  2.92168E+03  4.59071E+03  2.87723E+02  7.84649E+03 -5.08891E+03  5.33544E+03
