 $NMID ID='MM_0lb_SNR200_13hz_g45_59.RAW', FMTDAT='(8E13.5)'
 TRAMP=1., VOLUME=1. $END
  3.09870E+05  5.65158E+02  3.37488E+05  2.51017E+05  8.39782E+04  3.37871E+05 -1.32576E+05  2.49239E+05
 -1.90241E+05  8.34821E+04 -1.12373E+05 -3.30533E+04  4.41636E+02 -5.00049E+04  5.46113E+04 -9.04921E+02
  3.41915E+04  5.28626E+04 -1.63407E+04  7.55100E+04 -6.17606E+04  6.47461E+04 -8.49902E+04  3.14074E+04
 -8.05347E+04 -1.11242E+04 -5.69473E+04 -5.20319E+04 -1.39036E+04 -6.95228E+04  2.75234E+04 -4.49245E+04
  4.05096E+04  3.73005E+03  1.72234E+04  4.73084E+04 -3.37280E+04  4.65519E+04 -6.68670E+04 -1.48063E+03
 -5.29157E+04 -5.79398E+04 -6.56319E+03 -7.57135E+04  3.34827E+04 -5.46328E+04  4.74613E+04 -1.76868E+04
  4.37549E+04  1.20035E+04  3.20499E+04  2.57054E+04  1.59864E+04  2.95894E+04 -4.43438E+03  2.77497E+04
 -2.22372E+04  1.17082E+04 -1.83991E+04 -5.55725E+03  6.14951E+03 -7.75467E+03  2.34607E+04  1.16753E+04
  6.10366E+03  3.64498E+04 -3.20356E+04  3.55138E+04 -6.30788E+04  1.26916E+03 -5.65329E+04 -4.34398E+04
 -1.32236E+04 -6.40035E+04  4.00693E+04 -4.54098E+04  5.85120E+04 -2.60548E+03  3.43324E+04  3.33644E+04
 -5.89205E+03  3.85243E+04 -3.05458E+04  1.57550E+04 -3.01648E+04 -5.10859E+03 -1.61262E+04 -1.08861E+04
 -8.37886E+03 -1.44460E+04 -2.57375E+02 -1.78797E+04  6.80619E+03 -2.26596E+04  1.57935E+04 -1.39600E+04
  1.15129E+04  5.06571E+03 -8.27830E+03  1.34934E+04 -2.06956E+04 -5.33387E+03 -8.14467E+03 -3.45058E+04
  2.24285E+04 -4.35859E+04  4.90476E+04 -2.05707E+04  4.52423E+04  2.04970E+04  1.62229E+04  4.40134E+04
 -1.58459E+04  3.33464E+04 -2.45254E+04  1.72754E+03 -1.05274E+04 -2.71107E+04  2.20608E+04 -3.36873E+04
  4.11779E+04 -1.04436E+04  3.45031E+04  2.42082E+04  1.74530E+04  4.57972E+04 -8.27073E+03  5.01938E+04
 -3.25179E+04  3.39998E+04 -4.19092E+04  1.00941E+04 -4.39989E+04 -1.65230E+04 -2.44172E+04 -3.81440E+04
  6.87825E+03 -3.94651E+04  3.08991E+04 -1.49024E+04  2.93740E+04  1.09076E+04  3.70542E+03  1.98867E+04
 -1.38773E+04  9.30683E+03 -9.24324E+03 -8.74609E+03  5.83986E+03 -1.10300E+04  1.76020E+04  6.80483E+03
  1.30398E+04  2.24529E+04 -6.89443E+03  2.53276E+04 -2.35512E+04  1.15599E+04 -2.82970E+04 -4.25970E+03
 -2.12440E+04 -1.81141E+04 -9.93093E+03 -2.07084E+04  3.42988E+03 -2.00852E+04  1.67515E+04 -1.88745E+04
  2.69020E+04 -1.32657E+04  3.16709E+04  3.04904E+03  2.44462E+04  2.02540E+04  4.02900E+03  3.63535E+04
 -1.77905E+04  3.14518E+04 -2.85688E+04  1.06761E+04 -2.09135E+04 -1.02078E+04 -4.17649E+03 -1.32123E+04
  1.02584E+03 -2.32703E+03 -5.59889E+03  6.86953E+03 -1.66403E+04  4.64578E+03 -1.70453E+04 -7.47819E+03
 -1.06085E+04 -1.92995E+04  6.01523E+03 -2.34435E+04  1.51051E+04 -1.77619E+04  1.85395E+04 -1.99387E+03
  1.23895E+04  1.31755E+04  1.66726E+02  1.84097E+04 -1.53459E+04  1.11720E+04 -1.92905E+04 -3.91837E+03
 -1.36242E+04 -1.71793E+04 -8.17729E+02 -2.36846E+04  1.05480E+04 -1.92951E+04  2.05139E+04 -9.14280E+03
  1.78970E+04 -4.88905E+02  1.34936E+04  5.66180E+03  7.76098E+03 -1.26523E+01  1.03205E+04 -2.01548E+03
  1.81980E+04  2.58154E+03  1.94446E+04  1.59439E+04  1.32917E+04  3.12464E+04 -2.64233E+03  3.64039E+04
 -1.98203E+04  2.78167E+04 -3.26807E+04  1.46231E+04 -3.43638E+04 -1.63219E+03 -2.80221E+04 -2.10321E+04
 -1.24808E+04 -2.95239E+04  1.05006E+04 -2.56806E+04  2.25271E+04 -1.35281E+04  1.95580E+04  5.55642E+03
  7.66093E+03  1.51674E+04 -1.07071E+04  1.23166E+04 -1.53481E+04  2.90344E+03 -1.25441E+04 -1.03737E+04
  1.03493E+03 -1.60527E+04  8.99720E+03 -1.07325E+04  9.64803E+03 -1.61095E+03  2.07476E+03  6.99197E+03
 -7.87683E+03  2.50815E+03 -8.39795E+03 -5.79170E+03  1.79375E+02 -1.24457E+04  9.45663E+03 -1.50467E+04
  1.86040E+04 -7.64302E+03  1.81800E+04  3.12005E+03  1.64320E+04  1.49534E+04  7.51664E+03  2.14342E+04
 -3.52157E+03  2.40120E+04 -1.47675E+04  1.44635E+04 -1.70417E+04  3.91172E+03 -1.21722E+04 -3.61968E+03
 -5.24838E+03 -5.79105E+03 -1.23889E+03  1.30278E+03 -3.18559E+03  2.71971E+03 -4.74194E+03  4.59056E+03
 -1.05474E+04 -7.23762E+02 -1.17554E+04 -9.37637E+03 -5.98800E+03 -1.62644E+04  4.98034E+03 -1.22621E+04
  9.57090E+03 -4.97679E+03  8.00543E+03  1.60717E+03  4.64046E+02  4.88642E+03 -4.54869E+03 -3.74160E+02
 -5.89158E+03 -7.83204E+03 -5.22097E+02 -1.07294E+04  6.43425E+03 -1.16530E+04  1.62607E+04 -6.80199E+03
  1.59562E+04  1.36325E+03  1.25527E+04  1.00007E+04  2.68877E+03  1.32768E+04 -7.52608E+03  1.10979E+04
 -8.96159E+03  3.37117E+03 -5.93799E+03 -1.93667E+03  3.05463E+03 -2.88019E+03  7.27967E+03 -2.74692E+03
  5.90140E+03  4.10596E+03  1.77559E+03  1.03742E+04 -5.87862E+03  7.58119E+03 -1.15625E+04  2.29288E+03
 -8.06741E+03 -5.76769E+03  5.87566E+01 -1.01074E+04  6.47185E+03 -5.17430E+03  6.16736E+03  1.27214E+03
  1.39955E+03  7.49306E+03 -6.41155E+03  7.85842E+03 -1.04567E+04  3.72289E+03 -9.29057E+03 -3.08990E+03
 -4.05043E+03 -1.09193E+04  3.02200E+03 -1.28586E+04  1.10667E+04 -6.75368E+03  1.08022E+04  1.77674E+03
  6.86863E+03  9.20077E+03 -1.19958E+03  1.14999E+04 -8.37713E+03  6.77823E+03 -9.40350E+03  4.23792E+02
 -8.95395E+03 -7.93336E+03 -5.90374E+02 -8.06642E+03  5.08511E+03 -7.92217E+03  5.24722E+03 -3.35417E+03
  4.98417E+03  1.62382E+03 -7.77811E+02  1.75138E+03 -9.62879E+02 -1.65749E+03  2.50119E+03 -4.27843E+03
  8.53698E+03 -3.39134E+03  1.10278E+04  4.70883E+02  1.08221E+04  7.07231E+03  8.36448E+03  1.36475E+04
 -3.62774E+03  1.68111E+04 -1.25098E+04  1.08843E+04 -1.74513E+04  1.61412E+03 -1.37014E+04 -4.46337E+03
 -6.46280E+03 -1.10560E+04 -1.37364E+03 -8.82377E+03  3.63063E+03 -6.05297E+03  3.07800E+03 -3.53551E+03
  2.83346E+03 -2.17248E+03  2.90784E+03 -2.32182E+03  4.24161E+03 -2.05434E+03  6.12749E+03  1.23248E+02
  7.65132E+03  3.55637E+03  4.09027E+03  6.64433E+03 -9.35897E+02  7.10176E+03 -7.11109E+03  5.11625E+03
 -9.42469E+03 -1.22570E+03 -5.65541E+03 -6.37407E+03 -1.10585E+03 -1.04560E+04  5.51839E+03 -1.11953E+04
  9.21077E+03 -5.75264E+03  1.25674E+04  7.16462E+02  9.61485E+03  8.13329E+03  2.73120E+03  1.08446E+04
 -3.80704E+03  9.95981E+03 -5.66162E+03  3.88149E+03 -3.36493E+03 -6.72169E+02 -1.20942E+03 -7.75630E+02
 -8.85157E+02  8.18172E+02 -1.02732E+03  2.82670E+03 -3.61309E+03  1.69505E+03 -6.45024E+03 -2.74926E+03
 -4.35851E+03 -6.40935E+03  1.57349E+03 -9.61391E+03  5.03664E+03 -8.24823E+03  8.30823E+03 -2.82564E+03
  9.83531E+03  4.28393E+03  3.12326E+03  8.94107E+03 -1.74328E+03  8.33529E+03 -6.71671E+03  4.32652E+03
 -9.19127E+03 -4.50953E+02 -6.99259E+03 -4.49469E+03 -9.54413E+01 -7.49034E+03  2.82923E+03 -5.79488E+03
  5.48961E+03 -2.42338E+03  3.40962E+03  1.97584E+03  1.98301E+02  3.28328E+03  7.98537E+02  2.87136E+03
  2.03528E+03 -1.48713E+02  2.01899E+03  2.50560E+03  2.51203E+03  3.45407E+03  1.46191E+03  3.19673E+03
 -2.06296E+03  6.32140E+03 -5.96345E+03  7.78181E+03 -7.64801E+03  1.91470E+03 -8.91030E+03 -3.60789E+03
 -4.11256E+03 -7.99276E+03  7.77053E+02 -8.79950E+03  5.42047E+03 -5.34639E+03  6.70044E+03 -3.22653E+03
  5.49951E+03  3.56430E+03  5.69808E+02  5.62899E+03 -2.32253E+03  4.09607E+03 -4.07582E+03 -1.29324E+03
 -2.20873E+03 -4.75032E+03  3.76249E+03 -2.90305E+03  3.04942E+03 -1.49096E+03  2.90121E+03  3.47160E+02
  1.46933E+03  1.86840E+03 -3.69870E+02 -7.24521E+01 -7.18259E+01 -4.47719E+02  1.41617E+03  8.70996E+02
  2.42625E+02 -1.03213E+03  2.85089E+03  2.47971E+03  1.65443E+03  3.90003E+03 -3.30966E+02  7.14525E+03
 -4.35230E+03  3.15726E+03 -6.07700E+03  1.64950E+03 -4.62826E+03 -1.11732E+03 -2.38276E+03 -2.78082E+03
 -2.23920E+02 -3.57277E+03  2.27681E+03 -1.21299E+03  2.12371E+03  1.46678E+03 -1.35303E+03  3.65512E+03
 -2.90908E+03  2.77293E+03 -3.99132E+03 -1.65602E+03 -2.18563E+03 -4.14732E+03  9.65065E+02 -4.58916E+03
  1.79946E+03 -2.67381E+03  1.88967E+03 -5.21023E+02  3.53004E+03  1.09890E+03 -2.26006E+02  1.89324E+03
 -1.98483E+03  4.46702E+02 -2.77640E+03 -1.75782E+03  1.14787E+03 -2.89910E+03  3.48492E+03 -1.25276E+03
  4.27373E+03  6.67558E+00  5.02025E+03  2.20632E+03  2.16923E+03  5.06013E+03 -2.00191E+03  4.99377E+03
 -4.54083E+03  2.38714E+03 -3.95499E+03 -7.23805E+02 -3.58314E+03 -3.48460E+03  7.49174E+02 -2.01563E+03
  3.21449E+03 -1.32783E+03  2.77920E+03  1.07696E+03  7.05912E+02  3.08798E+03 -4.72782E+02  2.48705E+03
 -7.07609E+02  1.70853E+03 -8.44113E+02 -7.56273E+01  1.80815E+01  3.15236E+02 -1.85878E+03  1.09259E+03
 -2.71609E+03  2.55878E+03 -3.02895E+03  6.81189E+02 -4.17168E+03  7.78011E+02 -7.16107E+03 -4.38660E+03
 -2.48995E+03 -6.33259E+03  6.29110E+02 -8.36866E+03  4.56228E+03 -5.15665E+03  7.85455E+03 -2.41283E+03
  7.23804E+03  2.03771E+02  3.48072E+03  3.97609E+03 -8.38080E+02  4.57030E+03 -2.14353E+03  4.50325E+03
 -3.10262E+03  2.52099E+03 -8.62278E+02  9.52825E+02 -1.12782E+03  4.26055E+02 -1.59734E+03  2.78497E+01
 -2.11902E+03 -1.40979E+03 -1.93735E+03 -2.58614E+02 -1.15178E+02 -1.02846E+03 -5.93947E+02 -2.14768E+03
  2.90223E+03 -4.25302E+02  2.32659E+03  1.22862E+02  2.71553E+03  3.43203E+03  1.55363E+03  4.33779E+03
 -3.58152E+03  6.04647E+03 -4.62822E+03  3.69932E+03 -5.63393E+03 -3.29629E+02 -4.26145E+03 -3.39952E+03
 -1.92229E+03 -2.61137E+03 -3.49265E+02 -4.07916E+03  3.06424E+03 -3.94686E+03  2.97938E+03  3.53225E+02
  1.23827E+03  1.09834E+03  4.25218E+01  2.39647E+02 -2.88667E+02 -1.23880E+03  7.24125E+02 -9.01830E+02
  2.89537E+03  9.73505E+02  1.64276E+03  1.33293E+03  1.45342E+02  2.07024E+03 -1.03413E+02  2.69499E+03
 -2.44577E+03  1.79331E+03 -3.09261E+03 -5.94591E+02 -3.76649E+03 -2.76212E+03 -6.26095E+01 -4.42184E+03
  2.41503E+03 -3.61576E+03  4.51999E+03  3.19164E+02  3.52740E+03 -1.06727E+01  1.95910E+03  3.28363E+03
  1.43500E+03  4.13807E+03 -1.21136E+03  2.70419E+03 -6.47282E+02  9.42746E+02 -2.48362E+02  5.67775E+02
 -4.10529E+02 -5.70948E+02 -4.12496E+02  7.85605E+02 -2.29516E+03  4.97788E+02 -3.30270E+03 -1.09369E+03
 -2.07167E+03 -9.01839E+02 -2.03928E+02 -4.63369E+03  1.70601E+03 -3.10956E+03  3.45151E+03 -1.19466E+03
  2.64906E+03  2.09983E+02  5.11925E+02  2.02844E+03 -5.05839E+02  3.95052E+03 -3.39522E+03  1.72088E+03
