 $NMID ID='MM_0lb_SNR200_18hz_g50_24.RAW', FMTDAT='(8E13.5)'
 TRAMP=1., VOLUME=1. $END
  3.11170E+05 -2.87240E+02  3.37521E+05  2.51128E+05  8.44258E+04  3.37257E+05 -1.32681E+05  2.50292E+05
 -1.89094E+05  8.23171E+04 -1.11512E+05 -3.33964E+04  1.00007E+03 -5.12961E+04  5.50857E+04 -8.28729E+02
  3.43846E+04  5.25389E+04 -1.72339E+04  7.51212E+04 -6.12928E+04  6.29812E+04 -8.29397E+04  3.15182E+04
 -8.06015E+04 -1.12127E+04 -5.73410E+04 -5.09963E+04 -1.44931E+04 -6.84321E+04  2.63559E+04 -4.51206E+04
  3.98579E+04  3.83129E+03  1.63448E+04  4.78886E+04 -3.39355E+04  4.63933E+04 -6.52995E+04 -1.49915E+03
 -5.09664E+04 -5.65223E+04 -6.45808E+03 -7.59702E+04  3.31630E+04 -5.38364E+04  4.65114E+04 -1.79537E+04
  4.13824E+04  1.16937E+04  3.08884E+04  2.41111E+04  1.61471E+04  2.82691E+04 -3.88857E+03  2.70540E+04
 -2.29439E+04  1.30900E+04 -1.85213E+04 -4.66846E+03  4.99369E+03 -7.78447E+03  2.15388E+04  1.10453E+04
  7.21423E+03  3.28844E+04 -3.07808E+04  3.49678E+04 -6.22093E+04  2.65658E+03 -5.60022E+04 -4.14616E+04
 -1.35815E+04 -6.12245E+04  3.89402E+04 -4.41816E+04  5.63436E+04 -1.45930E+03  3.28351E+04  3.18870E+04
 -6.50846E+03  3.47435E+04 -2.84480E+04  1.42524E+04 -2.96985E+04 -4.89526E+03 -1.40952E+04 -9.38329E+03
 -6.78459E+03 -1.20999E+04 -4.12894E+02 -1.69502E+04  6.53212E+03 -2.14659E+04  1.51789E+04 -1.46200E+04
  1.22569E+04  4.31168E+03 -6.86937E+03  1.31195E+04 -1.97958E+04 -3.53937E+03 -7.87432E+03 -3.07006E+04
  2.17929E+04 -4.13624E+04  4.46563E+04 -1.89436E+04  4.32266E+04  1.78908E+04  1.44064E+04  4.21407E+04
 -1.63451E+04  3.20977E+04 -2.31031E+04  1.33398E+03 -8.93892E+03 -2.61585E+04  2.05604E+04 -3.30530E+04
  3.84863E+04 -8.48800E+03  3.08454E+04  2.35962E+04  1.59495E+04  4.28837E+04 -6.76058E+03  4.57879E+04
 -2.99668E+04  3.12257E+04 -3.87331E+04  8.77486E+03 -3.92863E+04 -1.48601E+04 -2.09349E+04 -3.48434E+04
  6.23227E+03 -3.42028E+04  2.94954E+04 -1.19949E+04  2.70854E+04  1.07305E+04  4.36856E+03  1.73130E+04
 -1.34491E+04  7.24265E+03 -1.01153E+04 -6.93781E+03  6.79221E+03 -1.03543E+04  1.83828E+04  6.14917E+03
  1.26592E+04  2.12339E+04 -6.13318E+03  2.46288E+04 -2.14355E+04  9.59150E+03 -2.52987E+04 -5.92752E+03
 -1.75605E+04 -1.54752E+04 -6.86380E+03 -1.86480E+04  3.76213E+03 -1.58678E+04  1.32389E+04 -1.50201E+04
  2.29109E+04 -1.12549E+04  2.80793E+04  2.22102E+03  2.21133E+04  1.75064E+04  3.36389E+03  3.36221E+04
 -1.61571E+04  2.93375E+04 -2.64749E+04  9.45242E+03 -2.02284E+04 -1.00786E+04 -4.72557E+03 -1.25046E+04
  3.45026E+03 -3.49696E+03 -3.30426E+03  5.36603E+03 -1.38159E+04  5.05323E+03 -1.43551E+04 -3.86600E+03
 -8.80700E+03 -1.53584E+04  5.25848E+03 -1.94720E+04  1.23984E+04 -1.47948E+04  1.53329E+04 -2.70048E+03
  9.54683E+03  1.21712E+04 -9.44083E+02  1.69157E+04 -1.28364E+04  8.92821E+03 -1.61713E+04 -4.51555E+03
 -1.19807E+04 -1.47217E+04 -2.06203E+03 -2.05229E+04  9.19541E+03 -1.56296E+04  1.64111E+04 -8.55182E+03
  1.44001E+04  5.94652E+01  1.04063E+04  4.34581E+03  5.50044E+03  6.09436E+02  8.35028E+03 -1.61030E+03
  1.34936E+04  3.03476E+03  1.48851E+04  1.20416E+04  1.02974E+04  2.60005E+04 -3.15253E+03  2.79545E+04
 -1.65193E+04  2.20129E+04 -2.51959E+04  1.00560E+04 -2.69462E+04 -1.93490E+03 -2.31598E+04 -1.57241E+04
 -1.04289E+04 -2.14868E+04  7.48377E+03 -2.03772E+04  1.76349E+04 -1.16920E+04  1.56674E+04  3.89478E+03
  5.79082E+03  1.10540E+04 -7.79694E+03  1.06742E+04 -1.44252E+04  2.87336E+03 -1.12388E+04 -8.07779E+03
 -9.69471E+02 -1.18287E+04  6.57587E+03 -1.00070E+04  7.55648E+03 -9.15518E+02  1.50524E+03  5.01918E+03
 -5.44688E+03  1.17582E+03 -3.74345E+03 -4.52211E+03 -9.19066E+02 -1.03925E+04  8.26802E+03 -9.56187E+03
  1.30361E+04 -5.08473E+03  1.39721E+04  1.61311E+03  1.05760E+04  1.03411E+04  5.57550E+03  1.49937E+04
 -2.31389E+03  1.61386E+04 -1.02361E+04  1.01617E+04 -1.20733E+04  2.78632E+03 -8.93097E+03 -2.55275E+03
 -4.29073E+03 -3.26796E+03 -9.37922E+02  1.07985E+03 -1.33108E+03  2.45163E+03 -4.58696E+03  2.74518E+03
 -8.41428E+03 -1.35402E+03 -8.49204E+03 -7.21097E+03 -4.79564E+03 -1.22336E+04  4.08806E+03 -7.45368E+03
  7.58526E+03 -3.86494E+03  6.04568E+03  1.70728E+03  1.59127E+03  2.50507E+03 -3.26205E+03 -5.34120E+01
 -3.99576E+03 -5.34103E+03 -1.11503E+03 -7.61221E+03  4.24897E+03 -8.23828E+03  1.08672E+04 -4.02220E+03
  1.25470E+04  4.58144E+02  8.17806E+03  6.49391E+03  2.63514E+03  1.08325E+04 -4.16116E+03  8.76939E+03
 -7.70440E+03  1.62652E+03 -3.26038E+03 -7.90138E+02  1.80850E+03 -2.74076E+03  4.26443E+03 -1.20888E+03
  3.97566E+03  3.69399E+03  5.77948E+02  6.94920E+03 -4.42143E+03  6.44337E+03 -9.09689E+03  1.22857E+03
 -5.18366E+03 -2.81171E+03  2.11932E+02 -7.93619E+03  3.91564E+03 -4.25136E+03  3.23989E+03  1.59636E+03
  7.60265E+02  2.71454E+03 -3.71402E+03  3.37770E+03 -5.97827E+03  1.87232E+03 -6.81517E+03 -4.24382E+02
 -3.61349E+03 -7.71327E+03  1.63313E+03 -7.31225E+03  6.06148E+03 -4.49207E+03  7.31076E+03  1.31858E+03
  5.04864E+03  5.52225E+03 -5.63147E+02  6.93477E+03 -5.61676E+03  4.40413E+03 -4.73568E+03 -5.97845E+01
 -6.71317E+03 -5.91922E+03 -1.24222E+03 -4.35464E+03  2.68078E+03 -5.06460E+03  3.89255E+03 -2.24480E+03
  1.60061E+03  2.24844E+02 -1.93837E+02  1.80662E+03  1.34942E+03 -1.47388E+02  8.65415E+02 -2.21004E+03
  3.71530E+03 -1.43320E+03  5.57300E+03  6.18449E+02  6.10432E+03  4.01619E+03  5.29469E+03  7.86776E+03
 -5.47677E+02  9.35559E+03 -9.50020E+03  6.96462E+03 -1.00826E+04  4.89969E+02 -9.01856E+03 -3.72027E+03
 -4.60837E+03 -6.94307E+03 -6.62452E+02 -5.02223E+03  1.80871E+03 -2.54696E+03  2.60307E+03 -1.59827E+03
  1.70738E+03 -2.45536E+03  2.87724E+03 -3.06186E+03  2.31592E+03 -9.35228E+02  3.09319E+03  1.63009E+03
  4.29410E+03  8.82067E+02  2.24857E+03  2.81364E+03 -1.46679E+03  3.31486E+03 -3.38973E+03  3.08373E+03
 -5.55704E+03 -6.54190E+02 -1.46167E+03 -3.15698E+03 -2.76359E+02 -4.90245E+03  3.86497E+03 -5.55081E+03
  5.83144E+03 -3.88403E+03  7.79860E+03 -3.71974E+02  6.25542E+03  4.31677E+03  1.65062E+03  6.06141E+03
 -2.08667E+03  6.75125E+03 -2.84062E+03  1.36069E+03 -3.50936E+03 -1.27510E+03 -7.71876E+02 -1.44516E+03
 -1.14044E+03  1.60797E+03 -6.39240E+02  2.61524E+03 -3.22559E+03  1.84809E+03 -4.10686E+03  4.91337E+01
 -3.48229E+03 -4.55349E+03  2.07465E+03 -4.23223E+03  3.64136E+03 -3.66669E+03  4.94017E+03 -1.97366E+03
  4.28294E+03  2.93135E+03  2.41806E+03  3.39115E+03 -1.83903E+03  5.15320E+03 -3.42557E+03  2.55093E+03
 -4.70361E+03  3.62039E+02 -3.38727E+03 -3.10359E+03 -8.13375E+02 -3.21343E+03  7.08927E+02 -2.39230E+03
  4.08003E+03 -1.72336E+03  2.40504E+03  9.38534E+02 -4.60809E+02  2.43731E+03  4.25389E+02  3.01441E+02
  1.00425E+03  6.34102E+02  1.29646E+03  5.79595E+02  1.35389E+03  2.83086E+03  1.96874E+03  1.31044E+03
 -2.07210E+03  4.62376E+03 -2.03039E+03  3.92394E+03 -3.66470E+03  1.87385E+03 -4.19851E+03 -1.75154E+03
 -2.13628E+03 -3.55616E+03  1.88714E+01 -5.31690E+03  2.95413E+03 -1.53689E+03  3.43030E+03 -1.01326E+02
  2.69089E+03  3.44736E+03  1.17130E+03  2.90801E+03 -4.76010E+02  1.60233E+03 -5.01962E+02  4.55537E+02
 -9.65308E+02 -2.27338E+03  6.74500E+02 -1.54845E+03  2.00873E+03 -8.31408E+02  4.18913E+02  6.64142E+02
  4.18695E+02  1.30969E+03  1.86825E+03 -5.89686E+02  3.34359E+02  4.47727E+02  2.15496E+03 -6.11483E+02
  1.69996E+02  4.30554E+02  3.08382E+03  1.09655E+03  1.25748E+03  9.66716E+02  7.61005E+02  3.03433E+03
 -9.61800E+02  7.47914E+02 -2.46018E+03  1.26387E+03 -1.73464E+03 -1.62575E+03  3.00375E+02 -7.24275E+02
  5.52783E+02 -9.63461E+02  8.73454E+02 -1.77369E+03  1.14841E+03  1.28502E+03 -9.23798E+02  3.83376E+02
 -3.83765E+02  1.05704E+03 -5.79095E+02 -9.86410E+02 -4.35609E+02 -1.48973E+03 -3.96537E+02 -2.24813E+03
 -2.67873E+02 -5.09257E+02  1.85681E+03  1.85460E+02  1.94469E+03 -8.60124E+02  1.48802E+02  2.05901E+03
 -7.87948E+02 -9.43036E+01 -7.58902E+02 -6.66785E+02  1.32137E+03 -1.69578E+03  1.34058E+03 -1.84772E+03
  2.13443E+03 -2.64673E+02  3.70502E+03  8.43986E+02  2.01140E+03  2.37942E+03  2.43430E+02  2.47991E+03
 -1.15951E+03 -2.43904E+02 -2.26564E+03 -3.59450E+02 -2.03044E+03 -9.21433E+02  8.25579E+02 -7.70197E+02
  2.08723E+03 -1.44522E+03  7.80830E+02  1.29859E+03  6.57295E+02  9.09168E+01  3.44721E+02  9.33071E+02
 -1.67215E+03  2.11449E+02  4.71120E+02  1.08135E+03 -6.20416E+02  1.51433E+02 -1.08165E+03  1.00039E+03
  4.00624E+02  1.00363E+03 -1.62870E+03  9.02450E+02 -2.26103E+03  5.11047E+02 -2.79003E+03 -1.01564E+03
 -1.05060E+03 -2.55648E+03  1.21262E+03 -2.96136E+03  1.88984E+03 -3.58956E+03  2.44066E+03 -1.19145E+03
  2.35173E+03  2.12481E+02  1.39371E+03  2.85354E+03 -4.28965E+02  1.69496E+03 -2.26190E+02  1.22524E+03
 -8.48125E+02  5.48754E-01  1.39071E+02  8.21561E+01 -1.06858E+03  9.12506E+02 -2.28705E+03  5.19391E+02
 -8.14967E+02 -1.69131E+03 -2.05893E+03 -2.09884E+02 -9.94644E+02  6.98848E+02 -9.27917E+01 -4.72680E+02
  1.82190E+03 -2.03593E+02  3.54746E+02  5.87924E+02  1.03099E+03  1.61634E+03 -9.21744E+02  1.98813E+03
 -1.27462E+03  2.08161E+03 -1.36219E+03  1.06032E+03 -1.52443E+03 -7.41631E+01 -1.55037E+03 -4.92496E+02
 -1.45856E+03 -1.16080E+02  6.05374E+02 -1.15480E+03  1.24512E+03 -1.17578E+03  8.20844E+02  3.40531E+02
  3.45777E+02  1.47041E+03  1.21204E+03 -9.59783E+01  7.14278E+02  6.47558E+02  1.28626E+03  2.31196E+02
  4.25761E+02  3.51816E+02  6.06288E+02  3.15540E+02  7.71102E+01  9.36813E+02  9.41959E+02 -8.96563E+02
 -1.85395E+02  1.27228E+03 -4.01412E+02  1.46920E+02  3.73552E+02 -2.89435E+02  6.37831E+01 -1.09038E+03
  4.51802E+02 -2.30299E+02 -1.42683E+01 -1.19755E+02  1.34245E+03 -1.42047E+03  5.77815E+02  1.12206E+03
  6.85987E+02  4.23738E+01  3.26299E+02  6.61555E+02 -1.12905E+02  7.76472E+02  3.10486E+02 -6.63494E+02
  7.67763E+02 -5.93037E+02 -8.92094E+02 -3.45586E+02 -9.93731E+02  5.25593E+02 -7.71674E+02  2.69072E+02
 -5.29514E+02 -3.66017E+02 -1.38141E+03 -1.93203E+03  1.15201E+03 -1.21398E+03  9.90050E+02  3.24396E+02
  1.35655E+03 -9.87174E+02 -4.74183E+02  6.61460E+02 -4.65688E+02  1.36688E+03 -7.98921E+02  6.39536E+02
