 $NMID ID='MM_0lb_SNR200_7hz_g60_5.RAW', FMTDAT='(8E13.5)'
 TRAMP=1., VOLUME=1. $END
  3.11421E+05 -6.07903E+02  3.38619E+05  2.50010E+05  8.61964E+04  3.36539E+05 -1.32736E+05  2.51931E+05
 -1.91260E+05  8.35966E+04 -1.12735E+05 -3.08583E+04 -1.32473E+03 -4.99848E+04  5.30306E+04 -8.69391E+02
  3.58294E+04  5.14427E+04 -1.86946E+04  7.46310E+04 -6.11480E+04  6.67593E+04 -8.44254E+04  3.30215E+04
 -8.42659E+04 -1.08763E+04 -5.87542E+04 -5.26204E+04 -1.69525E+04 -7.22506E+04  2.81583E+04 -4.78225E+04
  4.27739E+04  3.23565E+03  1.51546E+04  5.00361E+04 -3.38536E+04  5.03565E+04 -6.95635E+04 -5.35374E+02
 -5.71513E+04 -5.68940E+04 -8.69666E+03 -8.06118E+04  3.44481E+04 -5.91929E+04  5.03548E+04 -1.70571E+04
  4.57647E+04  1.04669E+04  3.21287E+04  2.54250E+04  1.57954E+04  3.08031E+04 -7.37424E+03  2.94893E+04
 -2.08784E+04  1.31996E+04 -1.86044E+04 -4.51969E+03  9.23740E+03 -7.18865E+03  2.33016E+04  1.47999E+04
  6.68448E+03  3.93838E+04 -3.45005E+04  3.90459E+04 -6.62140E+04  3.72426E+03 -6.07854E+04 -4.54486E+04
 -1.16089E+04 -6.62313E+04  4.26252E+04 -4.91926E+04  6.43142E+04 -3.21070E+03  3.83820E+04  3.60562E+04
 -5.62479E+03  3.95058E+04 -3.29841E+04  1.89821E+04 -3.59941E+04 -2.67630E+03 -1.97988E+04 -1.27113E+04
 -9.52392E+03 -1.77656E+04 -9.49759E+02 -2.06444E+04  9.06218E+03 -2.38049E+04  1.64420E+04 -1.11476E+04
  1.20500E+04  5.54393E+03 -1.23298E+04  1.31259E+04 -2.44887E+04 -9.36484E+03 -1.03107E+04 -3.91064E+04
  2.66958E+04 -4.85956E+04  5.38103E+04 -2.05463E+04  5.12390E+04  2.21420E+04  1.78485E+04  4.85093E+04
 -1.74625E+04  3.67792E+04 -2.92776E+04  2.68648E+03 -1.38887E+04 -3.07180E+04  2.23417E+04 -3.77600E+04
  4.63692E+04 -1.06094E+04  4.30928E+04  2.71829E+04  2.20656E+04  5.34860E+04 -8.44330E+03  5.87963E+04
 -3.82559E+04  4.34086E+04 -5.06125E+04  1.05519E+04 -4.91218E+04 -1.97941E+04 -2.81338E+04 -4.42185E+04
  8.28060E+03 -4.55974E+04  3.68036E+04 -1.92923E+04  3.46359E+04  1.22803E+04  5.24057E+03  2.04946E+04
 -1.24869E+04  9.61264E+03 -1.18909E+04 -7.00722E+03  7.33985E+03 -1.15140E+04  1.75209E+04  6.58693E+03
  1.53130E+04  2.29841E+04 -4.51360E+03  2.81581E+04 -2.29167E+04  1.58420E+04 -3.43616E+04 -1.18861E+03
 -2.99845E+04 -1.96932E+04 -1.37475E+04 -2.69387E+04  4.11358E+03 -3.04138E+04  2.05850E+04 -2.49391E+04
  3.67569E+04 -1.68588E+04  4.31585E+04  8.19564E+03  2.80737E+04  2.70247E+04  4.30875E+03  4.45096E+04
 -2.16630E+04  3.55605E+04 -3.21867E+04  1.18193E+04 -2.41035E+04 -9.98491E+03 -4.85610E+03 -1.10046E+04
  1.87848E+03 -1.22563E+03 -8.70391E+03  8.12790E+03 -2.22460E+04  4.86111E+03 -2.19235E+04 -1.17491E+04
 -1.44302E+04 -2.56349E+04  8.15106E+03 -2.94035E+04  1.97439E+04 -2.03823E+04  2.60992E+04 -2.14905E+03
  1.71490E+04  1.73873E+04 -2.94886E+03  2.55252E+04 -1.73922E+04  1.51223E+04 -2.64263E+04 -6.69600E+03
 -2.02213E+04 -2.27290E+04 -1.31632E+03 -3.00425E+04  1.43804E+04 -2.68181E+04  2.59795E+04 -1.47909E+04
  2.23198E+04 -6.91830E+02  1.94867E+04  5.36326E+03  1.06424E+04  5.90511E+02  1.37779E+04 -2.98702E+03
  2.46881E+04  3.53442E+03  2.98499E+04  1.95558E+04  2.05727E+04  4.17646E+04 -1.88584E+03  5.14516E+04
 -2.72345E+04  4.23688E+04 -4.99910E+04  2.22732E+04 -5.17191E+04 -4.43014E+03 -4.08476E+04 -2.92784E+04
 -1.65298E+04 -4.34998E+04  1.55955E+04 -3.70991E+04  3.16123E+04 -1.70696E+04  2.69748E+04  9.24110E+03
  7.99236E+03  2.10246E+04 -1.28564E+04  1.79220E+04 -2.15188E+04  3.69355E+03 -1.85457E+04 -1.37178E+04
 -1.25863E+03 -2.13149E+04  1.18022E+04 -1.58577E+04  1.51388E+04  2.20587E+02  3.67566E+03  9.26988E+03
 -9.54069E+03  3.45455E+03 -1.22402E+04 -8.00374E+03 -3.98055E+03 -2.13182E+04  1.31873E+04 -2.31688E+04
  2.84619E+04 -1.44161E+04  3.18346E+04  4.04929E+03  2.77106E+04  2.11870E+04  1.07944E+04  3.37173E+04
 -8.24957E+03  3.78627E+04 -2.55427E+04  2.26585E+04 -2.87893E+04  4.65717E+03 -1.93508E+04 -6.48057E+03
 -5.94367E+03 -8.66251E+03  1.21237E+03  1.79086E+03 -3.41814E+03  4.60736E+03 -8.92827E+03  4.42191E+03
 -1.65688E+04 -9.14634E+02 -1.69811E+04 -1.25246E+04 -5.59339E+03 -2.25398E+04  7.06668E+03 -1.70880E+04
  1.45885E+04 -6.77463E+03  1.00724E+04  5.11027E+03 -2.51711E+02  7.44741E+03 -1.07341E+04  1.82653E+03
 -1.03383E+04 -1.22111E+04 -1.71349E+03 -1.88938E+04  1.08520E+04 -1.82141E+04  2.57333E+04 -1.12978E+04
  2.95259E+04  3.09518E+03  2.02956E+04  1.71030E+04  3.43996E+03  2.39714E+04 -1.07316E+04  1.90619E+04
 -1.38864E+04  3.98233E+03 -7.64607E+03 -4.84084E+03  1.74631E+03 -6.43916E+03  1.01296E+04 -3.01253E+03
  1.01057E+04  8.77176E+03  1.45396E+03  1.52949E+04 -1.07082E+04  1.67438E+04 -1.83534E+04  2.80211E+03
 -1.39996E+04 -8.10002E+03  1.13190E+02 -1.34530E+04  1.17503E+04 -8.31331E+03  1.11954E+04  3.10708E+03
  1.59076E+03  1.27378E+04 -1.12476E+04  1.60193E+04 -1.94560E+04  5.76755E+03 -1.85463E+04 -8.64846E+03
 -1.09539E+04 -2.01589E+04  5.53879E+03 -2.35440E+04  1.79887E+04 -1.28356E+04  2.29039E+04  3.29844E+03
  1.40110E+04  1.60464E+04 -1.36953E+03  2.03376E+04 -1.32399E+04  9.84758E+03 -1.72924E+04 -1.96618E+03
 -1.06593E+04 -1.43619E+04 -5.32099E+02 -1.53852E+04  8.29600E+03 -1.27965E+04  9.07254E+03 -2.78266E+03
  7.23830E+03  2.80201E+03 -1.65893E+03  2.69508E+03 -1.55408E+03 -4.48399E+03  4.85865E+03 -1.12556E+04
  1.47002E+04 -4.87472E+03  1.97563E+04  2.33192E+03  2.10044E+04  1.72309E+04  1.22937E+04  2.76812E+04
 -7.18124E+03  3.07666E+04 -2.52195E+04  2.28907E+04 -3.35186E+04  5.53416E+03 -2.65326E+04 -1.09195E+04
 -1.33897E+04 -2.21785E+04  1.27098E+01 -1.94400E+04  7.77597E+03 -1.16209E+04  6.50442E+03 -8.92755E+03
  5.14977E+03 -6.19117E+03  5.20820E+03 -3.92523E+03  4.27332E+03 -2.93511E+03  1.05048E+04 -1.87449E+03
  1.26608E+04  1.27918E+03  7.66212E+03  1.16128E+04 -1.96116E+03  1.52627E+04 -1.58249E+04  1.12356E+04
 -1.99522E+04 -1.32274E+03 -1.40016E+04 -1.28952E+04 -1.26103E+03 -1.95803E+04  1.10394E+04 -2.17341E+04
  2.27636E+04 -9.34103E+03  2.77769E+04  4.97043E+03  1.73949E+04  1.76006E+04  3.99307E+03  2.25157E+04
 -1.18856E+04  2.07578E+04 -1.35691E+04  6.50367E+03 -1.04352E+04 -2.92414E+03 -3.36940E+03 -3.96719E+03
  1.86523E+02 -6.89452E+02 -5.34938E+03  5.11096E+03 -8.90918E+03  2.38416E+03 -1.22260E+04 -1.58604E+03
 -1.00767E+04 -1.42067E+04  1.30235E+02 -1.97058E+04  1.38485E+04 -1.74293E+04  1.98956E+04 -5.73909E+03
  1.89134E+04  9.54622E+03  9.22283E+03  1.89812E+04 -4.41840E+03  2.23899E+04 -1.44731E+04  1.31868E+04
 -1.88141E+04  4.04283E+02 -1.47285E+04 -1.19091E+04 -7.05839E+02 -1.90310E+04  7.30248E+03 -1.15991E+04
  1.46968E+04 -3.41872E+03  8.32953E+03  4.37139E+03  1.08529E+03  5.61461E+03 -1.83669E+02  1.09718E+03
  2.49221E+03  1.93714E+03  4.11331E+03  3.61911E+03  6.51831E+03  6.32607E+03  3.08793E+03  1.15872E+04
 -3.11260E+03  1.69847E+04 -1.31845E+04  1.69501E+04 -2.25646E+04  5.19247E+03 -1.96610E+04 -9.01311E+03
 -9.90165E+03 -2.27135E+04  2.85115E+03 -2.18165E+04  1.21832E+04 -1.48209E+04  1.85258E+04 -4.27893E+03
  1.43428E+04  7.34768E+03  1.47192E+03  1.22923E+04 -6.17172E+03  7.29990E+03 -7.64178E+03 -2.95706E+03
 -4.32213E+03 -9.89688E+03  3.24431E+03 -8.40196E+03  9.17359E+03 -3.30215E+03  1.04507E+04  2.27621E+03
  5.09619E+03  5.59552E+03 -4.02116E+02  4.51423E+03 -2.01977E+03  2.36836E+03  1.39683E+03 -4.50112E+02
  5.71219E+03 -1.25845E+03  8.96523E+03  1.39620E+03  5.13170E+03  1.16085E+04 -1.80905E+03  1.14672E+04
 -9.87716E+03  9.37732E+03 -1.53211E+04  3.61612E+03 -1.30900E+04 -6.82870E+03 -5.63182E+03 -7.35342E+03
  5.95899E+01 -8.50989E+03  6.43610E+03 -4.43005E+03  6.28091E+03  4.14711E+03 -4.07957E+02  6.17101E+03
 -9.09443E+03  6.24567E+03 -9.70054E+03 -4.51998E+03 -7.19508E+03 -1.21856E+04  7.73975E+02 -1.08858E+04
  8.35034E+03 -9.02040E+03  7.91529E+03 -1.75939E+03  5.74017E+03  2.82829E+03  2.12141E+03  6.14857E+03
 -2.14338E+03  9.49213E+02 -6.60839E+03 -4.29084E+03  3.03766E+03 -1.11638E+04  1.03735E+04 -6.53376E+03
  1.16116E+04  2.60848E+03  1.30361E+04  1.00706E+04  2.52713E+03  1.41205E+04 -5.25688E+03  1.28111E+04
 -1.18251E+04  6.57413E+03 -1.22754E+04 -3.33035E+03 -6.71211E+03 -9.64637E+03  1.63969E+03 -9.65379E+03
  7.22288E+03 -4.54065E+03  7.00189E+03  4.41763E+03  2.39544E+03  8.26844E+03 -2.11780E+03  5.73033E+03
 -5.15902E+03  4.28174E+03 -5.24018E+03  6.57270E+02 -2.68072E+02 -5.97958E+02 -1.37759E+03  4.52440E+03
 -4.54834E+03  5.58171E+03 -9.21862E+03  6.66246E+03 -1.49491E+04  1.24618E+03 -1.50900E+04 -9.40250E+03
 -1.03097E+04 -1.90721E+04  3.61100E+03 -2.38373E+04  1.45207E+04 -1.81668E+04  2.06200E+04 -6.08190E+03
  1.88572E+04  4.91428E+03  1.10758E+04  1.35023E+04  1.99688E+03  1.67080E+04 -7.83428E+03  1.34691E+04
 -9.33800E+03  4.02314E+03 -6.43124E+03 -4.20206E+02 -7.81824E+02 -2.22946E+03 -1.19197E+03 -3.50350E+02
 -3.14698E+03  1.84446E+03 -4.16849E+03 -7.15831E+02 -3.97110E+02 -4.57540E+03  5.04318E+02 -7.40591E+03
  6.23205E+03 -4.72734E+03  1.04723E+04 -5.36458E+02  1.24521E+04  7.30543E+03  6.16715E+03  1.68127E+04
 -8.58568E+03  1.94319E+04 -1.63801E+04  9.35256E+03 -1.81370E+04 -1.40096E+03 -1.44615E+04 -1.34635E+04
 -6.65792E+03 -1.72323E+04  3.60715E+03 -1.73701E+04  1.05716E+04 -9.50578E+03  1.07416E+04 -2.58060E+02
  6.30246E+03  5.43274E+03  7.04542E+02  5.31451E+03 -3.81612E+03 -6.78065E+02 -2.96426E+03 -3.99080E+03
  4.59524E+03 -2.95330E+03  5.27827E+03  2.78325E+03  3.50509E+03  6.88071E+03  1.19650E+03  8.95649E+03
 -1.05204E+04  7.31861E+03 -1.17172E+04 -4.14004E+02 -1.11437E+04 -6.90574E+03  2.21933E+02 -1.47085E+04
  5.52903E+03 -1.09384E+04  1.32557E+04 -6.08777E+03  1.29507E+04  3.69080E+03  5.95944E+03  1.05727E+04
  2.54684E+03  1.15471E+04 -4.53683E+03  9.88159E+03 -5.22393E+03  6.06202E+03 -7.17351E+03  2.39527E+03
 -3.36140E+03 -6.27882E+02 -4.32759E+03  7.24224E+02 -5.28818E+03  4.04595E+02 -1.09663E+04 -1.77912E+03
 -1.02679E+04 -6.63766E+03 -3.36164E+03 -1.21911E+04  4.98504E+03 -1.31170E+04  1.07961E+04 -5.49638E+03
  1.08783E+04  1.30576E+03  7.14185E+03  8.72981E+03  1.16449E+03  1.19370E+04 -1.05710E+04  7.60708E+03
