 $NMID ID='MM_0lb_SNR200_9hz_g40_70.RAW', FMTDAT='(8E13.5)'
 TRAMP=1., VOLUME=1. $END
  3.10491E+05 -1.13291E+02  3.37565E+05  2.51027E+05  8.50100E+04  3.39651E+05 -1.31815E+05  2.49619E+05
 -1.92499E+05  8.45261E+04 -1.12206E+05 -3.43343E+04  1.02358E+02 -5.07603E+04  5.38795E+04 -2.29135E+03
  3.57872E+04  5.24011E+04 -1.52187E+04  7.65554E+04 -6.04650E+04  6.42807E+04 -8.54961E+04  3.20862E+04
 -8.31611E+04 -1.23463E+04 -5.79234E+04 -5.22701E+04 -1.55305E+04 -7.03032E+04  2.74619E+04 -4.73349E+04
  4.16945E+04  3.85619E+03  1.79613E+04  4.78786E+04 -3.48724E+04  4.84325E+04 -6.76876E+04  4.61607E+02
 -5.37992E+04 -5.63668E+04 -6.42426E+03 -7.85667E+04  3.45128E+04 -5.73309E+04  4.90825E+04 -1.85289E+04
  4.45614E+04  1.26750E+04  3.18800E+04  2.73770E+04  1.49886E+04  3.03936E+04 -5.44922E+03  2.77258E+04
 -2.15165E+04  1.27494E+04 -1.92951E+04 -6.73134E+03  6.91633E+03 -7.08566E+03  2.30260E+04  1.35826E+04
  7.81549E+03  3.57169E+04 -3.25315E+04  3.60748E+04 -6.73191E+04  1.61141E+03 -5.95900E+04 -4.21937E+04
 -1.20098E+04 -6.41513E+04  4.09265E+04 -4.78483E+04  6.15508E+04 -2.87232E+03  3.58902E+04  3.45662E+04
 -5.61696E+03  3.90985E+04 -3.17258E+04  1.87713E+04 -3.39843E+04 -3.98439E+03 -1.98520E+04 -1.22757E+04
 -8.19819E+03 -1.45947E+04 -3.31944E+02 -1.93733E+04  9.07641E+03 -2.38733E+04  1.52460E+04 -1.32743E+04
  1.01539E+04  7.71518E+03 -8.80673E+03  1.13737E+04 -2.24050E+04 -7.61056E+03 -6.72920E+03 -3.67779E+04
  2.41210E+04 -4.67353E+04  5.16808E+04 -2.05708E+04  4.85214E+04  2.04218E+04  1.66176E+04  4.70857E+04
 -1.75264E+04  3.59982E+04 -2.79203E+04  3.33750E+03 -1.01136E+04 -3.12513E+04  2.13215E+04 -3.68763E+04
  4.35437E+04 -1.06736E+04  3.93209E+04  2.49290E+04  2.12653E+04  4.97857E+04 -7.78437E+03  5.61069E+04
 -3.41267E+04  3.78361E+04 -4.61346E+04  1.10569E+04 -4.70599E+04 -1.67540E+04 -2.31111E+04 -3.82405E+04
  7.29963E+03 -4.15093E+04  3.43047E+04 -1.62173E+04  3.02007E+04  1.00553E+04  4.78778E+03  2.01295E+04
 -1.27081E+04  9.94094E+03 -1.10807E+04 -7.59404E+03  5.71021E+03 -1.13479E+04  1.88385E+04  5.19106E+03
  1.32526E+04  2.23801E+04 -6.62697E+03  2.70112E+04 -2.38746E+04  1.26122E+04 -3.12978E+04 -3.18067E+03
 -2.38788E+04 -1.89165E+04 -1.16472E+04 -2.36220E+04  3.95524E+03 -2.15628E+04  1.74514E+04 -2.36935E+04
  3.18824E+04 -1.34702E+04  3.76862E+04  5.19347E+03  2.71109E+04  2.28272E+04  3.67472E+03  4.00112E+04
 -1.97184E+04  3.46052E+04 -3.00360E+04  1.27266E+04 -2.21025E+04 -1.01305E+04 -5.11608E+03 -1.31061E+04
  6.03697E+02 -9.31270E+02 -7.59651E+03  7.75222E+03 -1.98713E+04  5.38352E+03 -1.87378E+04 -9.85220E+03
 -1.17319E+04 -2.18265E+04  6.36786E+03 -2.65585E+04  1.83710E+04 -1.95061E+04  2.19324E+04 -1.41380E+03
  1.34965E+04  1.53096E+04 -1.14967E+03  2.24319E+04 -1.59936E+04  1.36169E+04 -2.23441E+04 -3.80493E+03
 -1.55570E+04 -2.04239E+04 -2.07751E+03 -2.63099E+04  1.08267E+04 -2.15308E+04  2.36731E+04 -1.13122E+04
  2.31876E+04  1.74859E+02  1.57110E+04  5.27348E+03  8.73343E+03 -8.91197E+01  1.08709E+04 -2.15621E+03
  2.06664E+04  2.81943E+03  2.34623E+04  1.67517E+04  1.57569E+04  3.64447E+04 -2.05007E+03  4.37279E+04
 -2.21515E+04  3.60404E+04 -4.14338E+04  1.91446E+04 -4.35358E+04 -2.43681E+03 -3.58322E+04 -2.59882E+04
 -1.41357E+04 -3.61648E+04  1.18761E+04 -3.14355E+04  2.68810E+04 -1.43223E+04  2.20788E+04  7.84732E+03
  8.79478E+03  1.74916E+04 -9.12647E+03  1.38376E+04 -2.07148E+04  3.05339E+03 -1.49894E+04 -1.13080E+04
 -2.72289E+02 -1.87219E+04  1.11569E+04 -1.55414E+04  1.18204E+04 -1.29756E+03  2.36402E+03  8.14105E+03
 -9.99212E+03  3.97847E+03 -9.40030E+03 -5.66735E+03 -7.51776E+02 -1.84883E+04  1.17492E+04 -1.95592E+04
  2.17382E+04 -1.03331E+04  2.57668E+04  4.02569E+03  2.23063E+04  1.74240E+04  9.29817E+03  2.84038E+04
 -4.76847E+03  3.14486E+04 -1.99052E+04  1.78390E+04 -2.16542E+04  3.61912E+03 -1.37619E+04 -4.64931E+03
 -7.38954E+03 -6.10782E+03 -6.67733E+02  9.32716E+02 -3.09190E+03  2.24587E+03 -7.78987E+03  4.24657E+03
 -1.45268E+04  5.66605E+02 -1.26528E+04 -1.18219E+04 -5.90969E+03 -1.81224E+04  6.96905E+03 -1.47056E+04
  1.08991E+04 -6.76461E+03  8.59731E+03  2.97320E+03 -2.23093E+02  4.74232E+03 -6.87259E+03 -1.24303E+03
 -7.38193E+03 -9.67118E+03  9.88713E+01 -1.45000E+04  9.34005E+03 -1.47246E+04  1.97296E+04 -8.31824E+03
  2.15407E+04  2.46942E+03  1.59460E+04  1.37264E+04  2.90553E+03  1.76864E+04 -8.91001E+03  1.41307E+04
 -1.24146E+04  5.82411E+03 -7.53379E+03 -4.78939E+03  2.80260E+03 -3.52497E+03  8.25244E+03 -8.16531E-01
  7.53486E+03  6.53120E+03  6.44448E+02  1.23643E+04 -8.49552E+03  1.04732E+04 -1.38217E+04  2.86357E+03
 -9.46711E+03 -7.82867E+03 -3.06968E+01 -1.25462E+04  8.06590E+03 -6.03838E+03  9.46694E+03  4.18774E+03
  3.44986E+03  9.47472E+03 -9.62058E+03  1.19306E+04 -1.37721E+04  5.67440E+03 -1.30989E+04 -5.21547E+03
 -8.28777E+03 -1.53582E+04  4.99961E+03 -1.75587E+04  1.47781E+04 -1.16343E+04  1.45447E+04  1.73880E+03
  9.83386E+03  1.41556E+04  1.64652E+02  1.43889E+04 -1.12678E+04  9.24483E+03 -1.33057E+04 -1.60874E+03
 -1.04900E+04 -1.00984E+04 -1.66731E+03 -1.31879E+04  6.54432E+03 -9.21213E+03  7.32214E+03 -4.00093E+03
  5.50625E+03  1.19638E+03 -9.91266E+02  1.84435E+03 -1.17338E+02 -2.83409E+03  1.94389E+03 -5.92981E+03
  1.04489E+04 -4.83539E+03  1.52868E+04  1.67572E+03  1.48542E+04  1.10608E+04  8.78272E+03  1.98417E+04
 -6.27830E+03  2.27381E+04 -1.83557E+04  1.67108E+04 -2.35251E+04  3.53609E+03 -1.99934E+04 -8.32135E+03
 -8.62036E+03 -1.76865E+04 -9.10348E+02 -1.40958E+04  4.07168E+03 -5.34606E+03  4.79778E+03 -5.91321E+03
  4.66479E+03 -2.46234E+03  2.64125E+03 -3.99438E+03  6.16225E+03 -2.99981E+03  6.58717E+03 -2.29351E+02
  1.14781E+04  1.92305E+03  5.16866E+03  9.28602E+03 -2.06942E+03  1.02214E+04 -9.71392E+03  8.97740E+03
 -1.32447E+04 -1.99495E+03 -6.71700E+03 -9.49034E+03  8.21567E+01 -1.39517E+04  7.83877E+03 -1.60594E+04
  1.60893E+04 -9.44570E+03  1.97192E+04  2.19221E+03  1.18694E+04  1.23169E+04  1.44433E+03  1.55511E+04
 -5.34899E+03  1.51181E+04 -8.94181E+03  2.54248E+03 -7.20380E+03 -1.02534E+03 -3.20820E+03 -2.31472E+03
 -4.57409E+02 -1.59921E+03 -2.14051E+03  2.41327E+03 -5.46016E+03  1.41303E+03 -9.88206E+03 -1.66604E+02
 -7.71544E+03 -9.73017E+03 -1.98036E+03 -1.18198E+04  9.29936E+03 -1.03003E+04  1.33097E+04 -4.56402E+03
  1.20911E+04  8.24655E+03  4.91732E+03  1.22429E+04 -3.22201E+03  1.35815E+04 -8.78574E+03  8.86142E+03
 -1.26550E+04  5.71498E+02 -1.03797E+04 -8.45544E+03 -1.67903E+03 -1.21976E+04  6.62186E+03 -8.09320E+03
  9.69444E+03 -5.07422E+03  4.40945E+03  7.61739E+02  3.10639E+03  4.84610E+03  2.41014E+03  1.58906E+03
  3.83689E+03  1.32597E+03  3.71982E+03  1.45277E+03  5.92410E+03  3.99325E+03  4.21869E+03  7.03925E+03
 -2.66117E+03  1.13215E+04 -1.03940E+04  1.06253E+04 -1.47175E+04  4.42940E+03 -1.52491E+04 -5.15786E+03
 -6.96624E+03 -1.45380E+04  2.29292E+03 -1.52254E+04  8.36428E+03 -1.01943E+04  1.09283E+04 -2.73015E+03
  9.42071E+03  4.68752E+03  2.08941E+03  9.48295E+03 -3.63382E+03  4.88172E+03 -4.76590E+03 -7.94914E+02
 -3.42432E+03 -5.83998E+03  2.21442E+03 -6.67185E+03  7.46975E+03 -3.96679E+03  6.56454E+03  5.99826E+02
  3.19761E+03  3.55455E+03  2.05242E+03  2.88039E+03 -7.92531E+02  1.04385E+03  2.49433E+03 -3.06016E+02
  1.49045E+03 -1.04800E+03  6.20350E+03  1.67828E+03  3.86505E+03  9.34989E+03 -2.04969E+02  9.61732E+03
 -7.61102E+03  6.74753E+03 -9.46988E+03  1.77384E+03 -8.17180E+03 -4.00099E+03 -2.70843E+03 -6.18405E+03
 -9.87266E+01 -5.95790E+03  4.08516E+03 -2.90381E+03  3.37615E+03  4.45707E+03 -2.18174E+03  4.85696E+03
 -4.14817E+03  2.62106E+03 -7.23620E+03 -3.11894E+03 -4.74989E+03 -7.21780E+03  2.06706E+03 -7.85076E+03
  4.98536E+03 -6.18596E+03  7.75609E+03 -3.76936E+02  4.71113E+03  3.90686E+03  1.41868E+03  4.13461E+03
 -2.10267E+03  1.39691E+03 -2.14508E+03 -2.56476E+03  3.20128E+02 -5.79960E+03  7.97572E+03 -4.47047E+03
  9.33596E+03 -1.07855E+02  9.11273E+03  5.65568E+03  4.35378E+03  1.00613E+04 -5.19632E+03  7.97192E+03
 -7.64788E+03  4.81573E+03 -6.97561E+03 -2.81928E+03 -3.92530E+03 -5.79161E+03  1.51196E+03 -6.37593E+03
  6.15643E+03 -3.54022E+03  4.62249E+03  2.39442E+03  2.04006E+03  5.46359E+03 -9.30413E+02  4.05547E+03
 -1.91334E+03  3.00550E+03 -2.28640E+03  8.89641E+02 -2.03355E+03  1.25405E+03 -9.95444E+02  1.54254E+03
 -2.33524E+03  3.00996E+03 -5.92873E+03  3.11207E+03 -8.80423E+03  9.80952E+02 -1.13597E+04 -6.47530E+03
 -4.71367E+03 -1.33653E+04  2.31664E+03 -1.48506E+04  8.62142E+03 -1.07508E+04  1.37479E+04 -3.69016E+03
  1.31298E+04  2.55577E+03  7.85417E+03  9.13557E+03  2.58567E+03  9.59733E+03 -4.17050E+03  6.04937E+03
 -6.25703E+03  3.80374E+03 -3.16111E+03 -1.99092E+03 -6.27606E+02  8.29783E+02 -1.46788E+03  4.65676E+02
 -1.77754E+03  3.44818E+02 -3.51377E+03 -1.61915E+03 -1.01060E+03 -2.37198E+03  9.69730E+01 -4.29967E+03
  3.74979E+03 -3.05760E+03  6.80043E+03 -1.80924E+03  7.99343E+03  5.83799E+03  1.23281E+03  9.49821E+03
 -6.12830E+03  1.20869E+04 -1.14974E+04  7.18979E+03 -1.10281E+04 -1.63528E+03 -9.52248E+03 -6.14578E+03
 -3.41909E+03 -1.12065E+04  2.79271E+03 -1.03446E+04  4.70929E+03 -4.68505E+03  6.55951E+03 -3.30573E+02
  3.37673E+03  3.83739E+03 -5.67392E+02  2.12094E+03 -1.23937E+03  2.95899E+02 -5.51949E+02 -3.21311E+03
  3.39883E+03 -1.58270E+03  3.63434E+03  1.07808E+02  2.06633E+03  4.01722E+03  1.09888E+03  5.52176E+03
 -6.30317E+03  4.77576E+03 -7.80556E+03  8.17262E+02 -5.69692E+03 -4.06844E+03 -1.78370E+03 -8.72177E+03
  4.28089E+03 -7.00063E+03  8.94738E+03 -3.66752E+03  7.21203E+03  1.90056E+03  2.49368E+03  4.77532E+03
  2.01111E+03  6.51549E+03 -2.32430E+03  5.13154E+03 -3.40985E+03  3.94148E+03 -3.55735E+03  1.39195E+03
 -2.84921E+03  7.16913E+02 -9.06154E+02 -3.23409E+02 -3.75820E+03  4.15072E+02 -4.66513E+03 -1.46969E+03
 -4.64788E+03 -2.83398E+03 -1.42790E+03 -6.54020E+03  3.41773E+03 -7.02274E+03  6.07212E+03 -2.82740E+03
  7.43804E+03  9.53465E+01  3.22021E+03  6.03438E+03 -4.72082E+02  5.98808E+03 -5.37940E+03  4.01022E+03
