 $NMID ID='MM_0lb_SNR200_17hz_g50_56.RAW', FMTDAT='(8E13.5)'
 TRAMP=1., VOLUME=1. $END
  3.09372E+05 -3.10789E+02  3.38289E+05  2.49685E+05  8.45437E+04  3.37131E+05 -1.31605E+05  2.51316E+05
 -1.91095E+05  8.23494E+04 -1.11388E+05 -3.32422E+04  1.91264E+03 -4.96488E+04  5.27460E+04 -3.34190E+02
  3.63756E+04  5.26871E+04 -1.65105E+04  7.54854E+04 -6.09885E+04  6.30305E+04 -8.43695E+04  3.22483E+04
 -8.05322E+04 -1.24078E+04 -5.66783E+04 -5.14431E+04 -1.60869E+04 -6.91008E+04  2.72743E+04 -4.54186E+04
  4.00738E+04  4.03173E+03  1.44003E+04  4.68076E+04 -3.45274E+04  4.70912E+04 -6.61582E+04 -3.61550E+02
 -5.21915E+04 -5.57670E+04 -6.81148E+03 -7.61623E+04  3.34133E+04 -5.34737E+04  4.62879E+04 -1.50713E+04
  4.30429E+04  1.10409E+04  3.16746E+04  2.43979E+04  1.63357E+04  2.87041E+04 -5.90615E+03  2.73910E+04
 -2.07650E+04  1.31886E+04 -1.91409E+04 -4.80412E+03  4.81042E+03 -7.46192E+03  2.11903E+04  1.06933E+04
  6.94505E+03  3.48179E+04 -3.14153E+04  3.38353E+04 -6.16427E+04  2.48987E+03 -5.63037E+04 -4.12265E+04
 -1.25851E+04 -6.22919E+04  3.91949E+04 -4.46002E+04  5.70621E+04 -2.37247E+03  3.41928E+04  3.05492E+04
 -5.54649E+03  3.46290E+04 -2.93297E+04  1.43532E+04 -2.84163E+04 -5.55070E+03 -1.55940E+04 -1.06552E+04
 -7.97520E+03 -1.13590E+04 -2.57015E+02 -1.65618E+04  7.57863E+03 -2.31692E+04  1.43811E+04 -1.38441E+04
  1.29403E+04  4.66600E+03 -7.17026E+03  1.32844E+04 -1.96360E+04 -3.29333E+03 -7.49471E+03 -3.14544E+04
  2.14026E+04 -4.16850E+04  4.62379E+04 -1.84317E+04  4.30011E+04  1.92840E+04  1.49942E+04  4.26519E+04
 -1.61033E+04  3.31498E+04 -2.38001E+04  1.06669E+03 -8.06894E+03 -2.73105E+04  2.12402E+04 -3.12883E+04
  3.82913E+04 -8.41014E+03  3.38360E+04  2.24326E+04  1.64728E+04  4.36453E+04 -7.48454E+03  4.72549E+04
 -3.00644E+04  3.11315E+04 -3.91304E+04  9.72112E+03 -3.98363E+04 -1.66119E+04 -2.21846E+04 -3.56572E+04
  7.13791E+03 -3.53024E+04  2.98644E+04 -1.42010E+04  2.76947E+04  1.17264E+04  3.30662E+03  1.75692E+04
 -1.42948E+04  8.29768E+03 -1.00431E+04 -7.66509E+03  4.87874E+03 -1.02594E+04  1.80145E+04  5.98346E+03
  1.28755E+04  2.14936E+04 -6.40406E+03  2.36863E+04 -2.35363E+04  1.03159E+04 -2.69987E+04 -6.23546E+03
 -1.78109E+04 -1.67482E+04 -6.92580E+03 -1.87200E+04  4.51842E+03 -1.70722E+04  1.46568E+04 -1.53889E+04
  2.30674E+04 -1.23531E+04  3.02647E+04  6.07366E+02  2.22716E+04  1.86393E+04  3.69942E+03  3.37063E+04
 -1.77458E+04  2.79721E+04 -2.58778E+04  1.01687E+04 -1.99140E+04 -1.13027E+04 -4.28687E+03 -1.30415E+04
  1.60312E+03 -3.06440E+03 -3.57176E+03  5.52540E+03 -1.41686E+04  5.44837E+03 -1.41828E+04 -5.38507E+03
 -9.71324E+03 -1.68276E+04  3.64501E+03 -2.12784E+04  1.24178E+04 -1.57227E+04  1.57763E+04 -2.05803E+03
  9.08957E+03  1.12183E+04 -7.81366E+02  1.57637E+04 -1.15221E+04  9.63115E+03 -1.76244E+04 -3.91393E+03
 -1.29816E+04 -1.46552E+04 -1.70516E+03 -2.06308E+04  1.04246E+04 -1.66972E+04  1.76733E+04 -8.62523E+03
  1.63935E+04 -2.19798E+02  1.13241E+04  2.63851E+03  5.82060E+03  1.58698E+03  7.73431E+03 -5.85222E+02
  1.47595E+04  2.72049E+03  1.59011E+04  1.46219E+04  1.10091E+04  2.67505E+04 -3.64614E+03  2.93063E+04
 -1.75964E+04  2.17299E+04 -2.60749E+04  1.12048E+04 -2.80482E+04 -2.78610E+03 -2.41340E+04 -1.58721E+04
 -1.01631E+04 -2.17515E+04  7.08638E+03 -2.02889E+04  1.83111E+04 -1.09625E+04  1.75713E+04  5.60131E+03
  7.71450E+03  1.15342E+04 -7.55999E+03  1.02009E+04 -1.44710E+04  3.18100E+03 -1.08921E+04 -8.69447E+03
 -1.81063E+03 -1.24521E+04  5.89359E+03 -1.01472E+04  9.12250E+03 -6.35821E+02  1.54023E+03  4.28954E+03
 -6.67212E+03  1.41462E+03 -5.27194E+03 -6.12915E+03  6.81158E+02 -1.19323E+04  7.73132E+03 -1.22452E+04
  1.34783E+04 -5.10605E+03  1.53577E+04  3.19833E+03  1.24918E+04  1.08007E+04  4.74296E+03  1.68713E+04
 -2.34969E+03  1.84442E+04 -1.16211E+04  1.15534E+04 -1.29915E+04  3.08484E+03 -8.88102E+03 -1.56012E+03
 -5.39815E+03 -3.11483E+03 -6.61226E+02  1.05110E+03 -1.37617E+03  2.74013E+03 -5.11272E+03  3.79796E+03
 -8.76338E+03 -4.88011E+02 -1.03155E+04 -7.54107E+03 -3.82840E+03 -1.23892E+04  4.31195E+03 -9.38238E+03
  8.03465E+03 -3.36254E+03  4.99822E+03  1.90479E+03  3.37591E+02  2.88671E+03 -3.54852E+03 -8.93515E+02
 -2.84700E+03 -6.41933E+03 -4.36744E+02 -7.25233E+03  3.73136E+03 -9.17997E+03  1.06887E+04 -4.46073E+03
  1.29427E+04 -3.66850E+02  9.48787E+03  7.05620E+03  1.66086E+03  9.19861E+03 -5.52074E+03  9.12116E+03
 -7.96671E+03  3.92412E+03 -2.99961E+03 -2.20775E+03  1.12542E+03 -2.93118E+03  5.34579E+03 -2.30421E+03
  4.13947E+03  4.17266E+03  1.76491E+03  7.00166E+03 -4.29145E+03  7.96831E+03 -1.00286E+04  9.92591E+02
 -5.51604E+03 -5.26203E+03  4.48758E+02 -7.14222E+03  5.61426E+03 -3.50293E+03  4.25119E+03  1.23443E+03
  4.88457E+02  4.59805E+03 -4.47041E+03  5.70006E+03 -6.17660E+03  2.05978E+03 -6.11762E+03 -2.92700E+03
 -4.87295E+03 -6.96396E+03  9.18269E+02 -8.33322E+03  7.17668E+03 -6.36597E+03  7.79809E+03  5.72960E+02
  5.43492E+03  6.48662E+03  9.56993E+02  7.98022E+03 -6.92670E+03  5.27605E+03 -5.50164E+03  2.69789E+01
 -8.00751E+03 -5.58315E+03 -6.71044E+02 -6.13878E+03  2.60264E+03 -5.22242E+03  3.76571E+03 -2.73539E+03
  3.42601E+03 -2.63351E+02  4.80446E+02  1.02304E+03  3.60131E+02 -1.41575E+03  7.11475E+02 -3.04803E+03
  4.84850E+03 -1.51810E+03  6.47035E+03  2.26344E+03  6.51767E+03  3.88002E+03  5.25974E+03  9.12559E+03
 -3.17172E+03  9.80226E+03 -9.58677E+03  7.43706E+03 -1.14322E+04  1.65570E+03 -8.50721E+03 -4.67444E+03
 -4.74913E+03 -7.19926E+03 -5.11732E+02 -6.02965E+03  2.69410E+03 -2.80565E+03  2.19797E+03 -2.14826E+03
  7.87216E+02 -1.38181E+03  2.18380E+03 -2.77500E+03  3.66154E+03 -1.01349E+03  3.76369E+03  2.99610E+02
  5.54148E+03  2.24222E+03  1.99315E+03  4.62737E+03 -1.99980E+03  3.87687E+03 -6.01967E+03  3.14253E+03
 -6.67574E+03 -1.10726E+03 -2.55552E+03 -4.57201E+03  7.49538E+02 -6.08112E+03  3.58024E+03 -5.29991E+03
  6.21723E+03 -3.65762E+03  7.44165E+03 -4.62604E+01  5.62991E+03  5.42264E+03  5.86060E+02  6.46961E+03
 -2.55550E+03  6.58435E+03 -4.12744E+03  3.67810E+03 -1.48738E+03 -1.53775E+03  3.56662E+02 -1.01511E+03
 -4.94271E+02  3.84756E+02 -7.07531E+02  1.62033E+03 -3.44307E+03  1.60047E+03 -5.21665E+03 -1.77587E+03
 -3.33771E+03 -4.73104E+03  9.88763E+02 -5.06580E+03  2.62367E+03 -4.35242E+03  4.29505E+03 -8.86664E+02
  4.64098E+03  2.65523E+03  1.94779E+03  3.36197E+03 -1.35906E+03  5.30087E+03 -2.57438E+03  3.18537E+03
 -4.78303E+03  1.08287E+03 -4.62355E+03 -3.46509E+03  4.57562E+02 -3.86766E+03  1.94171E+03 -2.40048E+03
  2.96518E+03 -9.49873E+02  2.90866E+03  1.38220E+03  1.74270E+02  1.33168E+03  5.21372E+02  1.22761E+03
  3.01136E+03 -6.26026E+02  1.57616E+03 -4.57185E+02  1.44983E+03  2.95482E+03  1.61630E+03  1.81819E+03
 -9.32557E+02  2.75989E+03 -3.34790E+03  4.94012E+03 -4.25268E+03  2.18972E+03 -4.89077E+03 -1.16413E+03
 -1.38624E+03 -4.60494E+03  4.60489E+02 -4.64843E+03  2.55260E+03 -3.27786E+03  3.53268E+03 -9.52659E+02
  1.80246E+03  1.06099E+03  1.13872E+03  3.29676E+03 -1.65323E+03  1.29128E+03 -1.74211E+03  2.31797E+02
 -7.75608E+02 -2.55448E+03  1.28098E+03 -3.27299E+03  1.57115E+03 -1.66899E+03  1.52584E+03 -1.19295E+03
  1.29286E+03  8.44426E+02  3.22421E+02  4.64242E+02  7.66162E+02  1.20140E+03  5.31879E+02 -1.00375E+03
  1.39198E+03  6.99413E+02  1.62884E+03  9.56867E+02  5.06913E+02  2.49805E+03 -4.03356E+02  3.30694E+03
 -2.46535E+03  1.37456E+03 -2.69955E+03  8.50844E+02 -2.21765E+03 -1.04305E+03 -6.15837E+02 -2.41628E+03
 -2.43195E+02 -8.54570E+02  9.63018E+02 -2.99559E+02  9.43085E+02  1.64194E+03  1.54566E+02  9.80625E+02
 -2.19560E+03  1.43964E+03 -1.69561E+03 -1.91682E+03 -1.23728E+03 -2.33559E+03 -5.92012E+01 -2.49962E+03
  2.71847E+02 -9.03936E+02  2.36768E+03 -6.11156E+02  2.96160E+03 -5.68008E+02  1.10514E+03  5.53914E+02
  9.87946E+01 -6.85326E+02 -1.03671E+03 -4.02419E+02  1.58493E+02 -8.72688E+02  2.77675E+03 -1.59292E+03
  4.73400E+02  7.94405E+02  2.97592E+03  1.91918E+03  1.50391E+03  2.41563E+03 -7.31184E+02  1.49108E+03
 -2.08938E+03  8.90483E+02 -2.65019E+03  2.79641E+02 -1.03598E+03 -1.68321E+03  1.50890E+02 -2.12972E+03
  6.54468E+02  2.32140E+02  7.38411E+02  6.18944E+02 -1.06839E+02  1.35774E+03 -1.63737E+02  7.64634E+02
 -3.38680E+02  5.86359E+02 -1.40646E+03  1.22865E+02  5.61288E+02 -1.05166E+03 -1.06323E+03  7.60571E+02
  3.62718E+02  1.78081E+03 -4.44488E+03  3.80410E+02 -1.63088E+03  7.25847E+02 -2.42532E+03 -1.59533E+03
 -4.46834E+02 -2.71177E+03  6.96043E+02 -4.74399E+03  2.42453E+03 -3.25554E+03  2.78770E+03 -7.86940E+02
  3.87694E+03  1.26353E+03  1.89369E+03  2.70826E+03 -2.75410E+02  1.65346E+03 -1.14148E+03  1.89127E+03
 -7.88631E+02 -2.65662E+02 -2.14349E+02 -6.05512E+02 -2.88506E+02 -8.47259E+02 -7.24331E+02  7.96906E+01
 -7.57606E+02 -3.05256E+02 -1.32385E+02 -5.44431E+02  3.97591E+01 -7.53797E+02 -1.68085E+02 -1.51833E+03
  1.34956E+03 -1.45331E+03  3.18577E+02  1.13633E+02  1.38625E+03  7.28992E+02 -6.36930E+02  2.82036E+03
 -1.00433E+03  4.34674E+03 -3.06896E+03  2.69730E+03 -2.54404E+03  6.84160E+02 -1.77111E+03 -1.38990E+03
 -9.74897E+02 -2.82347E+03  2.06371E+03 -1.98055E+02  2.66094E+03  6.96058E+01  4.36259E+02  6.07556E+02
  8.37557E+02  9.31378E+02  1.55886E+02 -1.28056E+02  2.44263E+02 -5.54979E+02  9.30222E+02  1.53615E+01
  1.28744E+03 -2.15956E+02  3.51936E+02 -1.01006E+02 -7.27900E+01  1.02455E+03  9.45264E+02 -2.14370E+02
 -6.55187E+02  3.21833E+02 -5.47164E+02  6.02532E+02 -1.57689E+03 -1.24134E+02 -3.32986E+02 -2.48474E+03
  5.75604E+02 -5.23835E+02  2.30959E+02 -1.02290E+03  7.42969E+02  3.93318E+01 -1.54559E+02  1.97912E+03
  2.91642E+02  1.06541E+03 -7.00775E+02  8.49866E+02 -9.47648E+02  5.22387E+01 -6.57071E+02  2.16059E+02
 -2.41419E+02 -6.40715E+02 -1.55567E+03 -3.99781E+02 -1.02017E+03 -5.10540E+01 -1.52346E+03 -4.11928E+00
 -3.00895E+02 -7.26729E+02 -1.05276E+03 -1.22205E+03  2.31481E+02 -2.09096E+03 -1.59137E+02  1.23058E+02
  1.88936E+03  8.02210E+02  1.66117E+02 -3.00806E+02 -1.13229E+02  8.42080E+02 -9.00788E+02  8.29823E+02
