 $NMID ID='MM_0lb_SNR200_19hz_g55_59.RAW', FMTDAT='(8E13.5)'
 TRAMP=1., VOLUME=1. $END
  3.10058E+05  4.96556E+02  3.36574E+05  2.50807E+05  8.42790E+04  3.37016E+05 -1.33034E+05  2.51177E+05
 -1.90594E+05  8.36787E+04 -1.11398E+05 -3.19345E+04  1.20057E+03 -4.99855E+04  5.35783E+04 -8.94211E+00
  3.49759E+04  5.32013E+04 -1.71415E+04  7.47740E+04 -5.97185E+04  6.18504E+04 -8.27815E+04  3.24461E+04
 -7.89112E+04 -1.19584E+04 -5.65549E+04 -5.08984E+04 -1.51698E+04 -6.89839E+04  2.65729E+04 -4.49325E+04
  4.06022E+04  4.12794E+03  1.57762E+04  4.75173E+04 -3.38065E+04  4.58450E+04 -6.55792E+04 -3.98377E+02
 -5.34793E+04 -5.55447E+04 -6.41370E+03 -7.55485E+04  3.40917E+04 -5.44101E+04  4.66088E+04 -1.68481E+04
  4.20830E+04  1.10803E+04  3.03676E+04  2.43653E+04  1.57818E+04  2.88907E+04 -5.80514E+03  2.74706E+04
 -2.26618E+04  1.15586E+04 -1.96689E+04 -4.05824E+03  4.41253E+03 -8.32248E+03  2.17815E+04  1.14083E+04
  6.58441E+03  3.38666E+04 -3.03510E+04  3.46913E+04 -6.17330E+04  2.06877E+03 -5.55243E+04 -4.13366E+04
 -1.36965E+04 -6.26857E+04  3.89358E+04 -4.31528E+04  5.63145E+04 -2.36064E+03  3.19638E+04  3.13691E+04
 -5.80712E+03  3.38521E+04 -2.96041E+04  1.49060E+04 -2.80901E+04 -4.96300E+03 -1.54543E+04 -1.01972E+04
 -7.96921E+03 -1.12192E+04 -2.13306E+03 -1.73048E+04  7.24879E+03 -2.37231E+04  1.47146E+04 -1.35900E+04
  1.25721E+04  4.01226E+03 -6.95716E+03  1.30454E+04 -2.02445E+04 -2.48902E+03 -7.81635E+03 -3.16442E+04
  2.24054E+04 -4.14836E+04  4.53147E+04 -1.88559E+04  4.27405E+04  1.84708E+04  1.53814E+04  4.19648E+04
 -1.68175E+04  3.20349E+04 -2.21196E+04  7.31905E+02 -8.71624E+03 -2.63510E+04  2.01784E+04 -3.23557E+04
  3.70213E+04 -6.95247E+03  3.23365E+04  2.35560E+04  1.61074E+04  4.25122E+04 -6.77876E+03  4.63943E+04
 -2.87252E+04  3.05686E+04 -3.77414E+04  8.38902E+03 -3.96842E+04 -1.54598E+04 -2.27423E+04 -3.49960E+04
  6.42441E+03 -3.47939E+04  2.89326E+04 -1.20861E+04  2.74460E+04  1.10361E+04  2.19659E+03  1.89573E+04
 -1.38139E+04  7.83580E+03 -9.57500E+03 -9.15175E+03  6.49286E+03 -9.81032E+03  1.79214E+04  6.36329E+03
  1.15183E+04  2.21068E+04 -6.48313E+03  2.31494E+04 -2.19009E+04  8.54065E+03 -2.53681E+04 -6.71372E+03
 -1.73847E+04 -1.65761E+04 -6.58194E+03 -1.64510E+04  3.30550E+03 -1.44360E+04  1.31491E+04 -1.55210E+04
  2.23294E+04 -1.24497E+04  3.03173E+04  2.01392E+03  2.15094E+04  1.64447E+04  4.99296E+03  3.32838E+04
 -1.70585E+04  2.73233E+04 -2.57651E+04  9.52703E+03 -1.99055E+04 -1.11748E+04 -2.92637E+03 -1.39380E+04
  2.47127E+03 -3.74905E+03 -2.70005E+03  6.13614E+03 -1.26134E+04  5.30061E+03 -1.42733E+04 -5.06134E+03
 -9.12966E+03 -1.59773E+04  4.88063E+03 -2.00531E+04  1.27050E+04 -1.37727E+04  1.51322E+04 -1.76680E+03
  8.44563E+03  1.04505E+04 -1.05222E+03  1.66945E+04 -1.03945E+04  9.41720E+03 -1.62439E+04 -3.29429E+03
 -1.33002E+04 -1.53827E+04 -1.89027E+03 -1.93754E+04  8.43668E+03 -1.54733E+04  1.64122E+04 -7.76066E+03
  1.56325E+04 -3.58865E+02  1.07635E+04  4.83261E+03  5.94760E+03  8.91126E+02  7.66314E+03 -1.39131E+03
  1.44650E+04  3.21307E+03  1.60630E+04  1.25459E+04  9.53077E+03  2.55173E+04 -3.05768E+03  2.72730E+04
 -1.71074E+04  2.08081E+04 -2.61539E+04  1.06844E+04 -2.58459E+04 -1.05451E+03 -2.13201E+04 -1.52022E+04
 -9.75068E+03 -2.09957E+04  6.82837E+03 -1.94334E+04  1.76759E+04 -1.07017E+04  1.51961E+04  3.78185E+03
  6.88452E+03  1.12688E+04 -6.06161E+03  1.12812E+04 -1.35044E+04  3.02045E+03 -1.07985E+04 -7.80517E+03
  8.30672E+01 -1.34572E+04  6.49134E+03 -9.81609E+03  9.37133E+03 -9.51766E+02  1.44564E+03  4.14539E+03
 -6.27802E+03  2.17117E+03 -2.96697E+03 -4.25870E+03  4.24831E+02 -1.04769E+04  7.78356E+03 -9.76049E+03
  1.37804E+04 -5.68348E+03  1.22387E+04  1.92046E+03  1.07884E+04  9.83627E+03  5.18647E+03  1.48718E+04
 -1.36881E+03  1.64649E+04 -9.42694E+03  1.13682E+04 -1.08985E+04  2.13686E+03 -8.00816E+03 -1.97571E+03
 -4.31357E+03 -3.68558E+03 -1.23759E+03  2.06973E+03 -1.32676E+03  2.66142E+03 -3.31845E+03  2.87609E+03
 -8.89849E+03 -6.61250E+02 -8.84972E+03 -7.44488E+03 -3.12360E+03 -1.20515E+04  4.37760E+03 -8.97132E+03
  6.54972E+03 -3.64309E+03  5.81015E+03  2.88570E+03  1.51817E+03  3.30684E+03 -3.44104E+03  5.03551E+02
 -3.63850E+03 -5.22677E+03 -8.89639E+02 -7.65991E+03  4.41483E+03 -7.79014E+03  9.68797E+03 -3.58745E+03
  1.20683E+04  3.81066E+02  8.77492E+03  5.92251E+03  1.07181E+03  8.08729E+03 -4.96075E+03  8.16081E+03
 -6.98171E+03  3.95161E+03 -4.01612E+03 -1.37227E+03  5.07301E+02 -1.77128E+03  4.34645E+03 -9.52977E+02
  4.33472E+03  4.51477E+03  6.08920E+02  7.24243E+03 -4.53392E+03  6.21518E+03 -7.65836E+03  1.21725E+03
 -5.27008E+03 -4.09874E+03 -2.20863E+02 -6.28445E+03  3.81198E+03 -3.94080E+03  4.05652E+03  9.34805E+02
  9.17816E+02  3.75328E+03 -5.28822E+03  4.44352E+03 -4.15811E+03  4.05907E+03 -5.21930E+03 -1.92640E+03
 -2.89908E+03 -6.36206E+03  2.03800E+03 -6.27066E+03  5.85362E+03 -5.06837E+03  7.63305E+03  5.79475E+02
  4.67070E+03  4.90024E+03  9.61143E+02  7.41891E+03 -5.02803E+03  4.01256E+03 -5.16227E+03  2.36805E+02
 -5.79846E+03 -5.97793E+03 -8.54189E+02 -5.01839E+03  1.32565E+03 -4.39928E+03  2.61592E+03 -4.12239E+03
  1.79107E+03  5.13448E+02 -6.57081E+01  2.04358E+03  1.24105E+03 -3.18153E+02 -9.36782E+02 -2.33108E+03
  3.29130E+03 -2.25995E+02  5.59177E+03  8.44286E+02  5.92620E+03  3.27018E+03  5.25399E+03  6.82144E+03
 -1.29976E+03  9.17375E+03 -6.83882E+03  6.66397E+03 -9.47296E+03  6.81079E+02 -6.99087E+03 -3.07449E+03
 -3.36181E+03 -7.26315E+03 -3.16758E+02 -4.71648E+03  2.00970E+03 -2.90000E+03  1.41007E+03 -2.02556E+03
  6.63886E+02 -2.29760E+03  2.47375E+03 -1.68944E+03  2.99551E+03 -1.40890E+03  2.38025E+03  1.09428E+02
  3.73581E+03  1.22912E+03  2.21368E+03  3.53806E+03 -1.63390E+03  2.08042E+03 -5.01638E+03  2.68814E+03
 -4.13551E+03 -1.72593E+03 -7.21963E+02 -3.91946E+03  8.71989E+02 -4.63948E+03  2.94749E+03 -5.83930E+03
  5.52791E+03 -3.37496E+03  6.25421E+03  7.72002E+02  2.81874E+03  3.62826E+03  1.59096E+03  5.00778E+03
 -1.80058E+03  5.06959E+03 -2.82649E+03  7.95712E+02 -1.71166E+03 -8.56369E+02 -1.00477E+03 -1.89262E+02
 -5.52861E+02  2.83701E+02 -8.29108E+02  3.34072E+03 -2.18775E+03  9.06904E+02 -3.45205E+03 -1.83307E+02
 -1.14946E+03 -3.89916E+03  1.61977E+03 -4.36692E+03  2.79620E+03 -3.89613E+03  3.60936E+03  1.10962E+02
  4.21672E+03  1.12107E+03  1.24709E+03  3.66988E+03  1.42993E+02  3.79695E+03 -2.39941E+03  3.42757E+03
 -3.93356E+03  1.86006E+03 -3.51202E+03 -2.21101E+03 -4.38030E+02 -2.40215E+03  1.14295E+03 -1.57935E+03
  2.22626E+03 -1.90543E+03  2.04216E+03  9.43606E+02  1.15615E+03  1.46394E+03  1.53847E+03 -1.25320E+02
  2.35416E+03 -2.79548E+02  5.62321E+02  1.17533E+03  7.70203E+02  3.02510E+03  1.64455E+03  3.72072E+02
 -1.25575E+03  3.08759E+03 -2.06693E+03  3.49511E+03 -2.36549E+03  2.25136E+03 -4.23326E+03  5.69910E+02
 -1.39388E+03 -4.11842E+03  4.23795E+02 -3.78521E+03  1.36917E+03 -2.22012E+03  2.98414E+03 -1.81454E+03
  2.91231E+03  2.35908E+03  1.85090E+02  1.89494E+03 -4.31024E+02  2.64820E+03 -5.55733E+02 -8.78976E+02
 -2.89954E+02 -1.35406E+03  7.82431E+02 -1.65755E+03  1.50159E+03 -1.13810E+03  1.74425E+03  1.82455E+02
  8.07890E+02 -4.40064E+02  4.07855E+02  8.71608E+02  3.06202E+02  9.92501E+02  1.30098E+03 -4.54019E+02
  1.12348E+03 -9.40394E+02  1.17772E+03  8.33912E+02  1.35355E+02  1.85534E+03 -3.57134E+02  1.98238E+03
 -1.99520E+03  1.68268E+03 -2.70740E+03  9.61538E+01 -2.76085E+03 -1.07896E+03 -1.13434E+03 -1.00761E+03
  2.44173E+02 -7.97972E+02  1.94617E+03 -5.57377E+01  8.81048E+02  1.22471E+03 -1.73627E+02  8.75643E+02
 -6.05785E+02  3.37770E+02 -1.14497E+03 -8.64845E+02  3.26538E+02 -2.14218E+03  3.51595E+02 -7.34297E+02
  7.08645E+02 -1.86422E+01  1.09048E+03  1.09958E+03  1.74986E+03  4.09317E+02  5.05320E+02  1.19758E+03
 -4.43990E+02 -4.94654E+02 -2.92524E+02  1.93016E+02  1.88612E+02 -1.01686E+03  1.00324E+03 -2.02208E+03
 -2.96644E+02  5.71624E+01  3.40232E+03  5.90276E+02  8.77283E+02  1.79399E+03  8.57059E+01  2.05445E+03
 -1.70001E+03 -1.59043E+02 -9.51108E+02  5.55616E+02 -1.01632E+03 -1.07242E+03  3.02761E+02 -1.10563E+03
  2.02401E+03  6.21267E+01  4.87433E+02 -4.41553E+01 -3.69489E+02  9.28263E+02  1.51659E+02  6.32110E+02
 -1.09423E+03  5.01885E+02 -2.76728E+03 -5.00113E+02  2.30470E+02 -7.52166E+02 -5.73648E+02  9.48527E+02
 -6.05473E+02  6.88793E+02 -9.41836E+02  1.00669E+03 -2.18163E+03 -1.14526E+02 -2.24686E+03 -5.27994E+01
 -4.60346E+02 -2.68358E+03  6.64237E+02 -2.66022E+03  1.04264E+03 -1.79157E+03  2.65195E+03 -3.87443E+02
  2.09933E+03 -6.03304E+02  1.49402E+03  1.18969E+03 -7.39531E+02  1.59836E+03 -9.64141E+02  1.43755E+03
 -1.37760E+03 -1.65356E+02 -1.13645E+03  1.46171E+02 -4.68374E+02  5.60737E+02 -7.05474E+02 -1.38409E+02
 -1.16960E+03  1.54862E+02 -6.00354E+02  8.36928E+01  1.58422E+03 -1.19149E+03 -3.55207E+02 -7.16284E+02
  2.95619E+02 -7.59305E+02 -7.61111E+01  5.12296E+02  7.20705E+02  1.25911E+03 -1.01820E+03  1.06013E+03
 -8.53384E+02  1.61915E+03 -1.92744E+03  9.35991E+02 -1.28942E+03 -1.16961E+03 -2.94317E+02 -5.23967E+02
 -7.18355E+02 -1.30029E+03 -5.49364E+02 -1.89639E+03  1.25408E+03 -1.17504E+03  8.13109E+02  6.70120E+02
 -2.34891E+02 -1.69597E+02  8.29391E+02  6.32426E+02  9.25123E+02  4.20080E+01 -9.94993E+02  6.00222E+02
  4.14983E+02 -6.81405E+02 -4.09443E+02 -7.91500E+02  2.08738E+02 -6.55276E+02  3.23400E+02  8.48418E+02
  1.38662E+02 -1.94990E+02  5.10450E+02 -6.79693E+01  2.44060E+02  1.22560E+03 -1.64485E+01 -1.83455E+02
  4.66306E+02 -3.51917E+02  6.48170E+02  1.29436E+02  8.68203E+01 -8.56413E+02 -1.04181E+02  4.39607E+02
  5.72924E+01  3.14941E+02 -9.96601E+02  2.71156E+02 -7.29588E+02  1.24729E+03  1.07680E+03 -3.01638E+02
  6.44314E+02  6.18901E+02 -6.57222E+02  7.55782E+02 -2.77687E+02  4.33266E+02 -9.26685E+02 -5.04448E+02
 -1.15643E+03  1.08932E+03 -1.54260E+02  5.16054E+02  1.00303E+03 -2.01118E+03  1.19594E+03 -1.38588E+03
 -1.74904E+02 -3.39366E+02 -2.79437E+01  2.26897E+02  1.05530E+03  3.39205E+02  2.95354E+01  1.58562E+03
