 $NMID ID='MM_0lb_SNR200_14hz_g45_89.RAW', FMTDAT='(8E13.5)'
 TRAMP=1., VOLUME=1. $END
  3.11176E+05  4.12826E+02  3.37781E+05  2.50202E+05  8.52071E+04  3.37654E+05 -1.33391E+05  2.51679E+05
 -1.90860E+05  8.34779E+04 -1.12700E+05 -3.26087E+04  1.08283E+03 -5.03838E+04  5.46300E+04 -3.07486E+02
  3.50528E+04  5.28700E+04 -1.55453E+04  7.57329E+04 -6.00911E+04  6.29722E+04 -8.35106E+04  3.24666E+04
 -8.08428E+04 -1.16485E+04 -5.74605E+04 -5.06433E+04 -1.52951E+04 -7.02762E+04  2.72885E+04 -4.66320E+04
  4.05377E+04  4.30009E+03  1.68632E+04  4.65280E+04 -3.40528E+04  4.62367E+04 -6.62305E+04 -1.05649E+03
 -5.30056E+04 -5.70873E+04 -6.95477E+03 -7.71453E+04  3.31586E+04 -5.46109E+04  4.74401E+04 -1.86215E+04
  4.38260E+04  1.12909E+04  3.23067E+04  2.52717E+04  1.61973E+04  3.05074E+04 -5.07037E+03  2.72272E+04
 -2.18793E+04  1.35791E+04 -1.96313E+04 -5.62630E+03  6.35211E+03 -7.00093E+03  2.24838E+04  1.14595E+04
  6.68708E+03  3.58259E+04 -3.25921E+04  3.43482E+04 -6.38549E+04  2.43953E+03 -5.64861E+04 -4.23945E+04
 -1.24937E+04 -6.29144E+04  3.92080E+04 -4.53658E+04  5.79759E+04 -2.54911E+03  3.37093E+04  3.21659E+04
 -6.96230E+03  3.61124E+04 -3.00754E+04  1.50682E+04 -3.00280E+04 -3.13577E+03 -1.67385E+04 -9.54135E+03
 -7.70727E+03 -1.40007E+04 -5.67633E+02 -1.79803E+04  7.94787E+03 -2.34280E+04  1.54737E+04 -1.35274E+04
  1.21786E+04  6.73712E+03 -9.77861E+03  1.29051E+04 -2.09600E+04 -2.28363E+03 -8.44732E+03 -3.27157E+04
  2.21690E+04 -4.23866E+04  4.82775E+04 -1.88705E+04  4.54400E+04  1.81513E+04  1.61449E+04  4.37128E+04
 -1.60628E+04  3.30888E+04 -2.40777E+04  1.60490E+03 -1.08648E+04 -2.73653E+04  2.16142E+04 -3.29682E+04
  4.07967E+04 -1.01715E+04  3.54839E+04  2.30614E+04  1.82486E+04  4.53258E+04 -8.08344E+03  4.89891E+04
 -3.08129E+04  3.33016E+04 -4.16300E+04  1.14907E+04 -4.34101E+04 -1.65925E+04 -2.40830E+04 -3.77571E+04
  7.09195E+03 -3.77722E+04  3.16057E+04 -1.38337E+04  2.89034E+04  9.95760E+03  5.35746E+03  2.06944E+04
 -1.34621E+04  8.74868E+03 -1.05543E+04 -8.47853E+03  5.30028E+03 -1.16622E+04  1.79187E+04  6.41464E+03
  1.33701E+04  2.18097E+04 -5.37024E+03  2.51700E+04 -2.15597E+04  1.05452E+04 -2.73531E+04 -5.16779E+03
 -1.94099E+04 -1.84116E+04 -8.31499E+03 -1.97259E+04  4.26679E+03 -1.96675E+04  1.61360E+04 -1.76952E+04
  2.55634E+04 -1.20030E+04  3.19817E+04  2.43493E+03  2.25177E+04  1.77277E+04  4.80506E+03  3.53347E+04
 -1.75379E+04  3.02835E+04 -2.72442E+04  1.10186E+04 -2.06215E+04 -1.01448E+04 -5.41064E+03 -1.41096E+04
  6.15501E+02 -2.60294E+03 -5.05764E+03  6.15296E+03 -1.73616E+04  4.68011E+03 -1.57121E+04 -7.03414E+03
 -1.02983E+04 -1.95807E+04  4.21802E+03 -2.25368E+04  1.46508E+04 -1.57780E+04  1.70369E+04 -1.76468E+03
  1.08922E+04  1.25463E+04 -5.95936E+02  1.97132E+04 -1.27244E+04  1.12777E+04 -1.83016E+04 -5.08220E+03
 -1.38833E+04 -1.75279E+04 -1.69891E+03 -2.21032E+04  1.15507E+04 -1.84816E+04  1.90148E+04 -8.75262E+03
  1.61294E+04  1.04174E+03  1.24925E+04  3.49518E+03  6.81841E+03  6.55429E+02  9.57745E+03 -2.06403E+03
  1.64695E+04  4.13849E+03  1.83474E+04  1.53400E+04  1.21482E+04  3.05449E+04 -2.15987E+03  3.31717E+04
 -1.96751E+04  2.71817E+04 -3.08649E+04  1.26754E+04 -3.36659E+04 -2.67021E+03 -2.81562E+04 -1.82668E+04
 -1.12026E+04 -2.71588E+04  9.00792E+03 -2.53265E+04  2.14204E+04 -1.26455E+04  1.85580E+04  5.66439E+03
  8.48999E+03  1.41756E+04 -9.10566E+03  1.20299E+04 -1.61105E+04  1.61634E+03 -1.15328E+04 -1.08297E+04
 -8.09543E+02 -1.61187E+04  8.15078E+03 -1.23130E+04  9.64805E+03 -9.87879E+02  2.57302E+03  7.15665E+03
 -6.65891E+03  1.97491E+03 -5.49923E+03 -5.77548E+03 -2.73531E+02 -1.29793E+04  9.17530E+03 -1.36684E+04
  1.58312E+04 -6.60133E+03  1.68866E+04  3.43990E+03  1.52013E+04  1.16090E+04  5.89501E+03  1.93332E+04
 -3.14166E+03  2.23655E+04 -1.34971E+04  1.39973E+04 -1.47106E+04  3.57751E+03 -1.07059E+04 -3.55157E+03
 -4.87801E+03 -4.25327E+03 -7.49450E+02 -4.46656E+02 -2.06678E+03  3.03246E+03 -5.86163E+03  5.72378E+03
 -1.01597E+04 -1.57053E+02 -1.02698E+04 -9.01372E+03 -4.98853E+03 -1.45722E+04  3.81019E+03 -1.22242E+04
  1.04226E+04 -5.34345E+03  5.63203E+03  2.31380E+03 -1.90071E+02  5.92437E+03 -5.22089E+03 -8.89638E+00
 -4.46047E+03 -6.75810E+03  1.56180E+02 -1.07035E+04  6.92026E+03 -1.13463E+04  1.39188E+04 -5.41161E+03
  1.57885E+04  1.45274E+03  1.24396E+04  9.77513E+03  2.03975E+03  1.17294E+04 -5.84751E+03  9.70937E+03
 -9.28932E+03  2.99680E+03 -4.59635E+03 -2.46789E+03  1.86176E+03 -2.80086E+03  5.39345E+03 -1.47763E+02
  5.34713E+03  4.58904E+03  9.17341E+02  8.63201E+03 -6.89521E+03  9.67070E+03 -1.06464E+04  2.27172E+03
 -7.31277E+03 -5.98451E+03 -4.52237E+02 -9.20351E+03  6.03992E+03 -5.50765E+03  5.54634E+03  2.30129E+03
  2.29822E+02  5.68207E+03 -5.66983E+03  7.65431E+03 -8.24629E+03  3.58270E+03 -8.46915E+03 -3.44402E+03
 -4.94858E+03 -9.07741E+03  1.99902E+03 -1.04088E+04  9.50702E+03 -6.52961E+03  9.34069E+03  1.30785E+03
  6.64456E+03  7.85797E+03 -3.98043E+02  1.03733E+04 -7.83704E+03  6.99328E+03 -7.31127E+03 -1.39350E+03
 -7.55203E+03 -5.91907E+03 -1.44604E+03 -7.70301E+03  4.66185E+03 -7.03354E+03  4.21566E+03 -3.91456E+03
  4.33206E+03  5.29408E+02  4.24786E+02  1.98774E+03 -7.19120E+02 -1.51315E+03  9.18566E+02 -4.22145E+03
  7.43181E+03 -3.06835E+03  8.56823E+03  1.73188E+03  9.47032E+03  5.08123E+03  5.91458E+03  1.27571E+04
 -2.86996E+03  1.47198E+04 -1.07041E+04  9.33192E+03 -1.49379E+04  1.68310E+03 -1.14880E+04 -4.99794E+03
 -4.76816E+03 -1.02375E+04  1.79179E+02 -8.30865E+03  2.96016E+03 -5.15871E+03  3.26188E+03 -2.76309E+03
  2.30897E+03 -2.87329E+03  2.57063E+03 -2.57273E+03  4.19893E+03 -2.74336E+03  5.86044E+03 -2.43354E+02
  6.10048E+03  1.82286E+03  1.65689E+03  4.96058E+03 -1.40702E+03  4.63856E+03 -7.22293E+03  4.43698E+03
 -8.46326E+03 -2.26112E+03 -5.08006E+03 -5.50808E+03  2.70373E+02 -8.45433E+03  4.76650E+03 -8.18814E+03
  9.69645E+03 -5.70313E+03  1.00157E+04  1.16351E+02  7.10362E+03  7.41471E+03  2.23369E+03  8.91414E+03
 -3.33776E+03  8.59816E+03 -6.55337E+03  3.80429E+03 -3.53916E+03 -1.01835E+03 -2.09586E+03 -8.28758E+02
 -9.39399E+02 -7.95613E+02 -5.16499E+02  2.16162E+03 -3.22291E+03  1.39096E+03 -6.05028E+03 -1.39466E+03
 -3.96249E+03 -5.68018E+03  1.61918E+03 -8.00097E+03  5.75279E+03 -6.87632E+03  7.62133E+03 -1.70224E+03
  5.76097E+03  3.61449E+03  2.79928E+03  4.56683E+03 -2.30881E+03  8.21579E+03 -5.41451E+03  4.23421E+03
 -7.56982E+03 -4.44685E+02 -5.40079E+03 -4.23393E+03 -7.58604E+00 -4.28634E+03  1.86523E+03 -4.08861E+03
  3.51462E+03 -2.65818E+03  2.77520E+03  1.75534E+03  1.01857E+03  1.83499E+03  2.15512E+02  8.38107E+02
  2.32514E+03  1.08050E+03  3.92717E+03  1.42837E+03  2.57551E+03  2.17574E+03  2.14362E+03  3.81621E+03
 -1.67429E+03  6.94518E+03 -4.76442E+03  5.94799E+03 -7.87096E+03  2.35894E+03 -7.47011E+03 -2.61510E+03
 -3.90313E+03 -7.75022E+03  1.37248E+03 -8.75740E+03  4.19637E+03 -4.98814E+03  5.11371E+03 -1.42971E+02
  3.57561E+03  2.97743E+03  4.62895E+02  4.36095E+03 -1.69364E+03  1.95126E+03 -2.95370E+03  3.83926E+02
 -1.10032E+03 -4.71945E+03  1.91880E+03 -3.84926E+03  3.43450E+03 -2.67018E+03  1.54368E+03  2.63874E+02
  2.31002E+03  5.01293E+02  1.47103E+03  7.36060E+02  5.96102E+02  7.28717E+02  2.03417E+02 -5.78637E+02
  4.50135E+02  1.23034E+02  2.33182E+03  1.42810E+03  1.37741E+03  3.70812E+03 -8.25746E+02  6.57018E+03
 -4.41388E+03  3.02743E+03 -3.70927E+03  9.67883E+02 -3.59929E+03 -1.13665E+03 -1.93476E+03 -2.65225E+03
 -7.48968E+01 -2.17440E+03  9.97838E+02 -1.75884E+03  1.74756E+03  2.56461E+03 -2.08535E+03  3.34082E+03
 -3.05293E+03  2.12974E+03 -2.61488E+03 -2.83003E+03 -3.20433E+03 -3.53939E+03  4.73670E+02 -4.46293E+03
  1.04322E+03 -1.78412E+03  2.98070E+03  1.55524E+03  3.39550E+03  2.05458E+03  1.07968E+03  2.36024E+03
 -2.28007E+02  7.03717E+02 -1.31700E+03  2.92494E+02  1.52207E+03 -2.17682E+03  2.99967E+03 -2.85869E+03
  3.58772E+03  6.26955E+02  4.04084E+03  2.86495E+03  1.71119E+03  5.26152E+03 -9.79858E+02  4.22371E+03
 -3.09251E+03  8.41982E+02 -2.31577E+03  1.08365E+03 -2.89570E+03 -3.34528E+03  9.25856E+02 -2.24624E+03
  3.37318E+03 -1.62887E+03  2.80814E+03  1.63571E+03  8.54160E+02  2.73125E+03 -1.01160E+03  2.12543E+03
 -1.15656E+03  1.11913E+03 -1.37995E+03 -8.31592E+01 -1.04155E+03  2.41146E+02 -1.36515E+03  8.51902E+02
 -4.25338E+02  2.02608E+03 -2.60756E+03  1.55137E+03 -5.45945E+03 -3.32219E+00 -5.54847E+03 -1.88628E+03
 -2.32072E+03 -6.22080E+03  1.00503E+03 -6.87986E+03  3.14920E+03 -4.47427E+03  5.10513E+03 -1.09901E+03
  6.10283E+03 -4.04355E+01  3.51968E+03  3.41278E+03  3.57564E+00  4.19959E+03 -1.87766E+03  2.46056E+03
 -1.51053E+03  1.58209E+03 -1.55746E+03 -1.55369E+03 -2.79882E+02 -1.64753E+03 -1.39293E+03  7.92999E+02
 -2.16703E+03 -1.52328E+02 -2.67593E+03 -3.94327E+02 -1.95162E+02 -7.29189E+02  6.11856E+02 -1.78232E+03
  3.36613E+03 -1.81620E+03  1.85578E+03 -6.53482E+02  2.69175E+03  3.56887E+03 -7.89337E+02  4.10194E+03
 -1.56150E+03  5.49186E+03 -4.30065E+03  1.75877E+03 -5.07318E+03  1.20621E+02 -3.10118E+03 -2.94476E+03
 -2.16241E+03 -2.90792E+03  9.22815E+02 -3.48257E+03  1.59695E+03 -3.03062E+03  2.27790E+03  1.30212E+03
  2.24884E+03  1.22698E+03  4.45516E+02  1.04778E+03 -1.09619E+03  1.95029E+02  3.38544E+02 -1.04891E+03
  1.02315E+03  1.81217E+02  2.57470E+03  1.03640E+03  6.35402E+02  2.02611E+03  3.96093E+01  3.17321E+03
 -1.32640E+03  1.09784E+03 -2.82435E+03  3.80941E+02 -1.39066E+03 -9.87381E+02 -1.03602E+02 -3.34564E+03
  6.95493E+02 -2.87140E+03  2.75995E+03 -6.27908E+02  1.55516E+03 -6.51320E+02  1.39032E+03  2.82270E+03
  6.28805E+02  1.92984E+03 -1.30850E+03  2.23239E+03 -5.15303E+02  1.64502E+03 -1.53875E+03  1.14900E+02
 -1.01577E+03 -1.31727E+03 -2.02323E+03  7.61797E+02 -1.84454E+03  6.77928E+02 -2.34696E+03 -1.66840E+03
 -2.58362E+03  5.24786E+01 -5.08306E+02 -2.92509E+03  1.07320E+02 -3.31892E+03  2.10339E+03 -1.58657E+03
  2.22422E+03  6.16825E+02  1.88304E+03  2.04538E+03 -4.15354E+02  2.78189E+03 -2.17854E+03  2.09732E+03
