 $NMID ID='MM_0lb_SNR200_14hz_g60_69.RAW', FMTDAT='(8E13.5)'
 TRAMP=1., VOLUME=1. $END
  3.09903E+05  1.48244E+03  3.37686E+05  2.51138E+05  8.46916E+04  3.37479E+05 -1.32994E+05  2.51552E+05
 -1.90430E+05  8.35964E+04 -1.11516E+05 -3.24311E+04  1.42584E+03 -5.01533E+04  5.36794E+04 -6.54614E+02
  3.57752E+04  5.43687E+04 -1.57415E+04  7.63537E+04 -6.04982E+04  6.40819E+04 -8.42245E+04  3.26957E+04
 -8.07941E+04 -1.07366E+04 -5.78135E+04 -5.18520E+04 -1.59783E+04 -7.01329E+04  2.86588E+04 -4.72030E+04
  3.99808E+04  3.46286E+03  1.72917E+04  4.83992E+04 -3.40297E+04  4.72337E+04 -6.69641E+04  6.67328E+01
 -5.38432E+04 -5.85915E+04 -7.54480E+03 -7.78025E+04  3.36107E+04 -5.62002E+04  4.89246E+04 -1.68388E+04
  4.49320E+04  1.16357E+04  3.27234E+04  2.62450E+04  1.76986E+04  3.00912E+04 -6.44215E+03  2.62894E+04
 -2.11893E+04  1.22924E+04 -1.85948E+04 -5.31420E+03  7.22466E+03 -7.33483E+03  2.16998E+04  1.42077E+04
  6.82545E+03  3.72463E+04 -3.27210E+04  3.63298E+04 -6.43804E+04  3.60269E+03 -5.68243E+04 -4.37704E+04
 -1.27037E+04 -6.44048E+04  3.95401E+04 -4.54038E+04  6.05568E+04 -2.06967E+03  3.40998E+04  3.48508E+04
 -6.66798E+03  3.82619E+04 -3.10647E+04  1.69864E+04 -3.04558E+04 -3.81254E+03 -1.74788E+04 -1.18908E+04
 -9.12985E+03 -1.44798E+04 -1.78543E+02 -1.79276E+04  8.54979E+03 -2.35542E+04  1.53378E+04 -1.39047E+04
  1.01494E+04  5.55992E+03 -8.66909E+03  1.40637E+04 -2.10279E+04 -4.74678E+03 -8.05476E+03 -3.53284E+04
  2.42286E+04 -4.63163E+04  5.03926E+04 -2.04214E+04  4.68498E+04  1.87871E+04  1.77200E+04  4.60047E+04
 -1.62887E+04  3.37353E+04 -2.54873E+04  1.73323E+03 -1.04086E+04 -2.82601E+04  2.01797E+04 -3.54823E+04
  4.21624E+04 -1.03431E+04  3.75539E+04  2.56114E+04  1.94195E+04  4.67057E+04 -7.50949E+03  5.20277E+04
 -3.30579E+04  3.37793E+04 -4.43434E+04  1.02598E+04 -4.47530E+04 -1.79912E+04 -2.39346E+04 -3.87469E+04
  8.43305E+03 -3.91322E+04  3.22956E+04 -1.47480E+04  3.16761E+04  1.24100E+04  4.59151E+03  1.88905E+04
 -1.29236E+04  7.76744E+03 -1.02455E+04 -7.19857E+03  5.24456E+03 -1.06180E+04  1.89088E+04  5.50215E+03
  1.45775E+04  2.37110E+04 -6.03225E+03  2.50086E+04 -2.28888E+04  1.26958E+04 -2.95923E+04 -4.54487E+03
 -2.26790E+04 -1.77773E+04 -9.33663E+03 -2.21464E+04  6.01636E+03 -2.18134E+04  1.69194E+04 -1.85204E+04
  2.72981E+04 -1.23143E+04  3.42601E+04  2.39806E+03  2.52330E+04  2.12474E+04  5.38540E+03  3.77147E+04
 -1.75726E+04  3.30619E+04 -2.86968E+04  1.02328E+04 -2.17120E+04 -9.59455E+03 -3.99306E+03 -1.31512E+04
  1.30680E+03 -2.09740E+03 -5.07186E+03  6.42281E+03 -1.73640E+04  4.75948E+03 -1.79716E+04 -8.21149E+03
 -1.00509E+04 -1.90369E+04  4.52388E+03 -2.49999E+04  1.50228E+04 -1.72228E+04  1.89388E+04 -5.28248E+02
  1.35070E+04  1.37096E+04 -2.38705E+03  2.09147E+04 -1.51674E+04  1.22631E+04 -1.90413E+04 -4.42548E+03
 -1.65622E+04 -1.78012E+04 -1.64322E+03 -2.45405E+04  1.03932E+04 -1.99399E+04  2.06705E+04 -1.00525E+04
  1.94611E+04  1.66040E+03  1.43598E+04  3.68768E+03  6.73223E+03  9.16220E+02  9.61103E+03 -1.83217E+03
  1.82934E+04  2.65632E+03  2.12474E+04  1.50206E+04  1.47042E+04  3.18484E+04 -4.16869E+03  3.61037E+04
 -2.09781E+04  2.88877E+04 -3.48349E+04  1.59555E+04 -3.62574E+04 -2.07947E+03 -2.99276E+04 -2.07563E+04
 -1.34493E+04 -3.05706E+04  9.23193E+03 -2.75027E+04  2.20961E+04 -1.33870E+04  2.06358E+04  5.36332E+03
  7.79329E+03  1.54993E+04 -1.01636E+04  1.41329E+04 -1.75408E+04  2.01499E+03 -1.25759E+04 -1.08401E+04
  1.87916E+03 -1.74101E+04  9.09036E+03 -1.13736E+04  1.09446E+04 -1.34115E+03  2.79544E+03  6.57763E+03
 -7.73440E+03  2.39726E+03 -7.15236E+03 -5.57374E+03 -1.24321E+03 -1.48778E+04  1.05179E+04 -1.60650E+04
  1.73834E+04 -7.64693E+03  2.02706E+04  3.37072E+03  1.62310E+04  1.46452E+04  8.69018E+03  2.18917E+04
 -3.54506E+03  2.33821E+04 -1.53060E+04  1.43063E+04 -1.77585E+04  4.52594E+03 -1.11059E+04 -4.79420E+03
 -5.88181E+03 -6.11981E+03  2.05741E+02 -1.70632E+01 -2.61127E+03  3.94823E+03 -5.14300E+03  4.98305E+03
 -1.20160E+04  4.95190E+01 -1.25349E+04 -8.68091E+03 -4.29913E+03 -1.60173E+04  4.92034E+03 -1.10714E+04
  1.02456E+04 -3.49132E+03  7.99284E+03  2.99532E+03  5.75701E+02  4.22122E+03 -6.00138E+03  7.89391E+01
 -5.77469E+03 -7.14081E+03 -1.01062E+03 -1.13562E+04  7.17995E+03 -1.25191E+04  1.54164E+04 -8.03350E+03
  1.87083E+04  2.30012E+03  1.26232E+04  1.06726E+04  2.19389E+03  1.40050E+04 -8.52549E+03  1.07111E+04
 -1.03687E+04  3.81768E+03 -5.10067E+03 -2.80591E+03  2.32743E+03 -2.13145E+03  8.02340E+03 -1.88095E+03
  4.93531E+03  5.30493E+03  2.27494E+03  9.28892E+03 -6.18714E+03  1.04965E+04 -1.15401E+04  2.41640E+03
 -9.09300E+03 -6.13312E+03 -9.83440E+02 -9.36997E+03  7.34615E+03 -4.81560E+03  7.18043E+03  2.06118E+03
  2.27351E+03  7.89611E+03 -5.00072E+03  8.22817E+03 -9.06166E+03  2.99976E+03 -8.96725E+03 -2.61452E+03
 -6.17911E+03 -1.09749E+04  2.94417E+03 -1.31615E+04  1.00596E+04 -8.46884E+03  1.13759E+04  2.26521E+03
  7.66849E+03  8.83395E+03 -3.56148E+02  1.18604E+04 -8.73219E+03  5.51556E+03 -8.34752E+03 -4.33929E+02
 -8.24196E+03 -7.64946E+03 -2.87076E+02 -8.53125E+03  5.33308E+03 -7.76309E+03  6.16022E+03 -4.06307E+03
  3.13696E+03  1.21927E+03 -4.05615E+02  2.05680E+03  6.48051E+02 -4.59658E+02  1.38092E+03 -4.34094E+03
  7.25905E+03 -2.18844E+03  1.05948E+04  9.27852E+02  1.07233E+04  6.44891E+03  7.95876E+03  1.42811E+04
 -1.72190E+03  1.65200E+04 -1.32665E+04  1.22791E+04 -1.61599E+04  1.25557E+03 -1.44957E+04 -6.30971E+03
 -6.57545E+03 -1.14678E+04  3.83638E+02 -9.38621E+03  4.13440E+03 -5.29299E+03  4.84773E+03 -3.52976E+03
  2.52947E+03 -1.44681E+03  1.45496E+03 -3.65340E+03  3.76360E+03 -2.10224E+03  6.68340E+03  2.63587E+01
  6.13804E+03  2.43587E+03  3.95594E+03  5.42835E+03 -2.05593E+03  8.05011E+03 -8.22224E+03  7.32578E+03
 -9.44205E+03 -1.66324E+03 -4.05269E+03 -6.31904E+03  3.69283E+02 -1.00916E+04  5.64755E+03 -8.72206E+03
  1.01222E+04 -6.52679E+03  1.28715E+04  5.45302E+02  7.65161E+03  8.28463E+03  2.24785E+03  1.11726E+04
 -4.01000E+03  9.97470E+03 -6.36349E+03  4.11190E+03 -4.46237E+03 -4.43388E+02 -1.02718E+03  2.09321E+02
 -1.67888E+03 -4.47604E+01 -1.34387E+03  1.45644E+03 -4.57494E+03  1.15435E+03 -6.94749E+03 -1.53054E+03
 -2.96546E+03 -6.06036E+03  1.30818E+03 -8.97723E+03  5.76840E+03 -8.92139E+03  8.56512E+03 -4.66450E+02
  8.05691E+03  5.01645E+03  3.67312E+03  8.17134E+03 -1.00544E+03  9.20855E+03 -5.64980E+03  5.54176E+03
 -8.12347E+03 -5.36860E+01 -6.15429E+03 -5.37656E+03 -4.66123E+02 -6.86130E+03  3.47159E+03 -5.98397E+03
  4.56451E+03 -2.21018E+03  2.20626E+03  1.40388E+03  1.15041E+03  3.51395E+03  2.10247E+03  4.04029E+02
  2.55612E+03  8.13199E+02  2.37073E+03  1.82602E+03  3.31555E+03  3.34530E+03  2.58488E+03  4.71274E+03
 -1.00765E+03  6.27783E+03 -5.55012E+03  7.37313E+03 -9.00164E+03  2.34916E+03 -8.36705E+03 -3.00405E+03
 -4.06433E+03 -7.75189E+03  1.33825E+03 -8.07716E+03  6.54970E+03 -5.95173E+03  6.91510E+03 -1.37415E+03
  5.27897E+03  3.85542E+03  1.10787E+03  3.70921E+03 -1.83686E+03  2.22721E+03 -3.53335E+03 -9.24724E+02
 -2.25997E+03 -2.47687E+03  3.09821E+03 -2.81541E+03  3.68971E+03 -2.76998E+03  3.24053E+03  5.19725E+02
  2.22876E+03  1.04658E+03  7.55000E+01  1.54045E+03  8.67551E+02  1.54415E+03  1.90462E+03 -8.41936E+02
  1.92020E+02 -1.66541E+02  3.69695E+03  6.31663E+02  2.51850E+03  5.14765E+03 -6.72555E+02  5.28241E+03
 -3.72997E+03  2.60838E+03 -4.86029E+03  4.94131E+02 -3.02906E+03 -7.74255E+02 -1.33963E+03 -2.38270E+03
  2.81763E+02 -2.77768E+03  2.72025E+03 -2.38093E+03  1.73531E+02  1.51121E+03 -7.72770E+02  1.69602E+03
 -3.59537E+03  7.04204E+02 -3.85255E+03 -1.46650E+03 -3.08276E+03 -5.03763E+03  4.58173E+02 -4.27486E+03
  1.32858E+03 -3.29106E+03  1.57967E+03 -7.86133E-01  1.54373E+03  8.04998E+02  1.36050E+03  1.79943E+03
 -1.72462E+03 -7.66703E+02 -1.60005E+03 -4.61633E+02  1.07694E+02 -1.83335E+03  3.74544E+03 -1.84361E+03
  4.64817E+03 -5.56208E+02  5.04745E+03  2.36944E+03  1.56295E+03  2.72252E+03 -1.16518E+03  5.46715E+03
 -3.55916E+03  1.89643E+03 -3.89351E+03 -5.99062E+02 -1.34207E+03 -3.96303E+03  1.21644E+03 -2.58579E+03
  4.59944E+03 -2.24413E+03  2.14228E+03  8.37462E+02  1.47244E+02  2.21076E+03  3.06441E+02  2.58105E+03
 -3.00702E+03  1.36099E+03 -1.11297E+03  5.77348E+02 -2.06902E+03  8.56450E+02 -1.01313E+03  4.53259E+02
 -1.51930E+03  2.49541E+03 -2.78266E+03  1.34742E+03 -4.59672E+03  1.77727E+02 -6.18292E+03 -4.06121E+03
 -2.54094E+03 -7.00617E+03  9.53239E+02 -6.92272E+03  3.44053E+03 -5.21554E+03  5.62240E+03 -2.81454E+03
  5.67728E+03  8.55818E+02  3.44068E+03  4.04648E+03 -6.36998E+02  3.53071E+03 -1.56744E+03  3.30076E+03
 -4.15741E+03  2.31041E+03 -1.31202E+03 -6.97836E+01 -5.14917E+02 -1.30234E+02 -6.34816E+02  1.12577E+03
 -1.42046E+03  8.68767E+02 -1.09720E+03 -6.60048E+02 -7.54605E+02 -1.80245E+03 -4.58602E+02 -1.96962E+03
  6.33772E+02 -1.80148E+03  2.01895E+03 -1.13908E+03  2.02605E+03  2.07960E+03 -3.97737E+02  4.05870E+03
 -1.60963E+03  4.97911E+03 -4.54149E+03  2.43290E+03 -5.04785E+03  5.03475E+01 -4.01627E+03 -2.32694E+03
 -3.54200E+03 -4.07869E+03  8.72339E+02 -3.04390E+03  1.74715E+03 -4.07414E+02  1.25131E+03  8.79339E+02
  1.63817E+03  1.70898E+03 -3.36910E+02  1.68989E+03 -1.03231E+03  3.68440E+02  6.12386E+02 -1.65669E+03
  1.10235E+03  9.03835E+01  9.02601E+02  1.72052E+03 -3.53486E+01  1.51201E+03  4.56523E+02  4.92032E+02
 -1.58547E+03  1.78432E+03 -2.40495E+03  7.57016E+02 -1.36597E+03 -2.41044E+03  4.32763E+02 -2.89362E+03
  1.11916E+03 -3.32656E+03  1.81846E+03  9.91620E+02  2.47853E+03 -2.31119E+02  2.26472E+03  3.19851E+03
  6.38851E+02  2.47095E+03 -1.39246E+03  2.47374E+02 -1.18326E+03  6.77599E+02 -3.73258E+02  4.01002E+02
 -7.67542E+02  7.49954E+02 -8.80666E+02  3.93460E+02 -7.53845E+01  1.88376E+03 -3.24106E+03 -1.51088E+02
 -2.00817E+03 -1.67152E+02  3.61553E+01 -2.70436E+03  9.01972E+02 -3.43339E+03  2.71472E+03 -1.84099E+03
  3.47106E+03  1.24607E+03  3.26885E+02  1.29135E+03 -2.35593E+02  2.17826E+03 -9.39329E+02  1.38001E+03
