 $NMID ID='MM_0lb_SNR200_8hz_g45_50.RAW', FMTDAT='(8E13.5)'
 TRAMP=1., VOLUME=1. $END
  3.11033E+05 -1.07527E+03  3.38618E+05  2.52168E+05  8.49920E+04  3.39041E+05 -1.31385E+05  2.51018E+05
 -1.90972E+05  8.22735E+04 -1.13069E+05 -3.28221E+04  7.17000E+02 -4.99729E+04  5.52956E+04  2.74959E+02
  3.49004E+04  5.37158E+04 -1.63549E+04  7.60857E+04 -6.20082E+04  6.44509E+04 -8.49770E+04  3.22773E+04
 -8.18219E+04 -1.30201E+04 -5.98746E+04 -5.17210E+04 -1.46526E+04 -7.14969E+04  2.84190E+04 -4.68562E+04
  4.03027E+04  2.75271E+03  1.67368E+04  4.74948E+04 -3.32318E+04  4.77083E+04 -6.67941E+04 -1.85901E+01
 -5.50184E+04 -5.68517E+04 -8.31871E+03 -8.09435E+04  3.48909E+04 -5.64197E+04  4.95551E+04 -1.57359E+04
  4.51677E+04  1.27123E+04  3.43571E+04  2.70138E+04  1.51482E+04  3.10986E+04 -5.54494E+03  2.81906E+04
 -2.34461E+04  1.25575E+04 -1.74511E+04 -3.07665E+03  8.45387E+03 -8.19135E+03  2.28517E+04  1.42464E+04
  7.01066E+03  3.63253E+04 -3.37942E+04  3.55902E+04 -6.50869E+04  3.30410E+03 -5.96919E+04 -4.63017E+04
 -1.21518E+04 -6.61804E+04  4.26171E+04 -4.82605E+04  6.04836E+04 -2.01236E+03  3.87541E+04  3.62472E+04
 -4.63070E+03  4.04165E+04 -3.15245E+04  1.83344E+04 -3.18605E+04 -4.99611E+03 -1.87845E+04 -1.05120E+04
 -9.25338E+03 -1.72019E+04  1.62163E+02 -2.25439E+04  8.26032E+03 -2.35893E+04  1.56181E+04 -1.20323E+04
  1.04272E+04  6.41720E+03 -1.00775E+04  1.24173E+04 -2.54076E+04 -7.87884E+03 -8.80659E+03 -3.87047E+04
  2.55658E+04 -4.63978E+04  5.23011E+04 -2.31776E+04  4.96277E+04  1.95306E+04  1.76927E+04  4.61057E+04
 -1.66666E+04  3.62611E+04 -2.75644E+04  4.41376E+03 -1.21520E+04 -2.98787E+04  2.24397E+04 -3.76036E+04
  4.54625E+04 -1.16414E+04  4.05826E+04  2.51089E+04  2.18164E+04  5.14337E+04 -8.34266E+03  5.58100E+04
 -3.65670E+04  3.93235E+04 -4.78986E+04  1.10883E+04 -4.75811E+04 -1.88931E+04 -2.65687E+04 -4.11642E+04
  8.02743E+03 -4.38079E+04  3.31510E+04 -1.71945E+04  3.13435E+04  1.16085E+04  6.34917E+03  2.17513E+04
 -1.38825E+04  9.91990E+03 -1.18974E+04 -7.45399E+03  6.15722E+03 -9.73157E+03  1.90161E+04  4.99798E+03
  1.50408E+04  2.32240E+04 -3.87990E+03  2.65856E+04 -2.50277E+04  1.55638E+04 -3.13561E+04 -3.44361E+03
 -2.55388E+04 -1.87734E+04 -1.38695E+04 -2.55586E+04  2.42473E+03 -2.51586E+04  1.99228E+04 -2.33964E+04
  3.31259E+04 -1.43852E+04  4.04402E+04  6.16100E+03  2.70148E+04  2.61453E+04  4.52861E+03  4.15026E+04
 -2.17875E+04  3.51839E+04 -2.91623E+04  1.16934E+04 -2.19791E+04 -9.78844E+03 -4.97170E+03 -1.44466E+04
  1.82817E+03 -2.19607E+03 -6.80544E+03  8.76929E+03 -2.20063E+04  6.25313E+03 -2.02288E+04 -1.05844E+04
 -1.23835E+04 -2.27887E+04  7.53837E+03 -2.64440E+04  2.15694E+04 -2.07993E+04  2.41169E+04 -1.30176E+03
  1.44329E+04  1.59249E+04 -1.11000E+03  2.39203E+04 -1.71612E+04  1.42748E+04 -2.31630E+04 -4.89126E+03
 -1.96853E+04 -1.96634E+04 -9.94599E+01 -2.74622E+04  1.31434E+04 -2.40426E+04  2.29040E+04 -1.42999E+04
  2.32896E+04 -5.22411E+02  1.66736E+04  4.64316E+03  9.16431E+03  2.23291E+03  1.29721E+04 -2.54347E+03
  2.26309E+04  2.78122E+03  2.54331E+04  1.87062E+04  1.91205E+04  3.80808E+04 -4.32036E+03  4.51956E+04
 -2.43220E+04  3.84457E+04 -4.33135E+04  1.91759E+04 -4.58469E+04 -4.69620E+03 -3.80060E+04 -2.68116E+04
 -1.41527E+04 -3.73294E+04  1.43281E+04 -3.44188E+04  2.98567E+04 -1.65374E+04  2.62035E+04  7.77909E+03
  7.95282E+03  1.73342E+04 -1.10977E+04  1.65116E+04 -2.02453E+04  2.86727E+03 -1.55714E+04 -1.26233E+04
  7.38097E+02 -1.95108E+04  1.25319E+04 -1.50521E+04  1.36908E+04 -1.18686E+03  4.33781E+03  7.31110E+03
 -8.21853E+03  5.13336E+03 -1.05406E+04 -6.47309E+03 -3.32797E+03 -1.89966E+04  1.38004E+04 -1.90327E+04
  2.35463E+04 -1.24666E+04  2.66857E+04  3.88764E+03  2.24410E+04  1.86753E+04  1.04771E+04  3.09678E+04
 -6.72106E+03  3.16278E+04 -2.14189E+04  1.98019E+04 -2.39450E+04  4.47976E+03 -1.46691E+04 -5.69723E+03
 -6.21741E+03 -8.67101E+03 -1.31257E+03  4.38491E+02 -1.93940E+03  4.39739E+03 -8.48286E+03  6.65423E+03
 -1.41322E+04  9.82483E+01 -1.50266E+04 -1.39036E+04 -6.25750E+03 -2.04060E+04  6.96171E+03 -1.73609E+04
  1.32047E+04 -9.01806E+03  1.01855E+04  3.62809E+03 -1.31303E+03  6.70953E+03 -8.00729E+03  1.83826E+02
 -7.63203E+03 -1.02411E+04 -8.92883E+02 -1.56417E+04  8.96392E+03 -1.50542E+04  2.02910E+04 -8.81720E+03
  2.59895E+04  1.28013E+03  1.84563E+04  1.42722E+04  3.91651E+03  1.94061E+04 -1.00931E+04  1.65731E+04
 -1.27226E+04  6.30824E+03 -6.13946E+03 -4.88114E+03  2.92226E+03 -4.74760E+03  7.63741E+03 -1.02784E+03
  8.38450E+03  7.08100E+03  1.89995E+03  1.30265E+04 -8.23268E+03  1.27857E+04 -1.62903E+04  2.26317E+03
 -1.21726E+04 -8.76966E+03 -1.70801E+02 -1.42352E+04  9.33391E+03 -6.33437E+03  9.52462E+03  3.99099E+03
  4.05647E+03  9.99415E+03 -8.50741E+03  1.35000E+04 -1.32528E+04  5.82203E+03 -1.54641E+04 -6.51528E+03
 -9.45302E+03 -1.87589E+04  4.86091E+03 -1.99370E+04  1.56613E+04 -1.11424E+04  1.86805E+04  3.05953E+03
  1.08879E+04  1.37877E+04 -2.31929E+03  1.64157E+04 -1.40728E+04  9.48821E+03 -1.46160E+04 -1.90766E+03
 -1.06317E+04 -9.83576E+03 -3.97443E+03 -1.26725E+04  7.59337E+03 -9.65028E+03  7.82295E+03 -3.50774E+03
  5.76591E+03  2.38194E+03 -1.37634E+03  6.03172E+02 -2.05442E+02 -5.97984E+03  2.80048E+03 -8.62433E+03
  1.13210E+04 -4.57611E+03  1.67942E+04  2.39365E+03  1.63949E+04  1.17867E+04  1.07273E+04  2.25868E+04
 -6.37906E+03  2.57224E+04 -2.10042E+04  1.85943E+04 -2.73752E+04  2.59650E+03 -2.29894E+04 -9.00538E+03
 -1.11646E+04 -1.80337E+04  1.06963E+02 -1.70999E+04  4.06810E+03 -8.34364E+03  6.67581E+03 -6.61568E+03
  3.47008E+03 -1.75000E+03  3.97553E+03 -4.34417E+03  5.15522E+03 -2.18891E+03  8.56900E+03 -1.11338E+03
  1.08193E+04  3.86545E+03  5.80789E+03  9.73137E+03 -3.02333E+03  1.31104E+04 -1.20932E+04  9.25639E+03
 -1.45050E+04 -2.96821E+03 -9.50550E+03 -1.09833E+04 -1.87949E+03 -1.80367E+04  9.26120E+03 -1.73554E+04
  1.83345E+04 -1.03191E+04  2.00597E+04  3.00342E+03  1.51048E+04  1.44853E+04  3.28398E+03  1.78448E+04
 -6.70378E+03  1.50867E+04 -1.31269E+04  5.79846E+03 -7.66302E+03 -8.28391E+02 -3.11479E+03 -1.26328E+03
 -1.10950E+03  5.11483E+02 -2.27606E+03  3.08798E+03 -7.24827E+03  4.14860E+03 -1.15512E+04 -1.62276E+03
 -8.42588E+03 -1.20226E+04 -1.99308E+02 -1.45119E+04  1.08101E+04 -1.57095E+04  1.53834E+04 -4.67386E+03
  1.64451E+04  7.76051E+03  8.06473E+03  1.39538E+04 -3.63043E+03  1.64326E+04 -1.26003E+04  8.06638E+03
 -1.63803E+04  9.82530E+02 -1.06713E+04 -8.92813E+03 -1.59397E+03 -1.13321E+04  7.11191E+03 -7.77148E+03
  1.09109E+04 -1.24279E+03  7.25190E+03  2.88415E+03  1.06112E+03  5.18022E+03  1.19796E+03  3.73559E+03
  3.55647E+03  1.21868E+03  2.23327E+03  2.60917E+03  4.60840E+03  5.13567E+03  6.30035E+03  1.11656E+04
 -3.80816E+03  1.25322E+04 -1.10565E+04  1.30840E+04 -1.57134E+04  4.39724E+03 -1.69424E+04 -7.34455E+03
 -8.14460E+03 -1.62764E+04  3.04296E+03 -1.79357E+04  1.06213E+04 -1.11647E+04  1.35162E+04 -2.45508E+03
  1.01383E+04  6.05644E+03  3.87003E+03  9.81155E+03 -3.93349E+03  6.28584E+03 -5.72637E+03 -7.57534E+02
 -1.83635E+03 -6.87252E+03  3.48119E+03 -7.55967E+03  8.25900E+03 -3.05175E+03  6.96561E+03 -1.99607E+02
  3.48715E+03  3.56927E+03  8.05596E+02  2.75891E+03 -4.87139E+02  2.43664E+03  2.76813E+03 -1.60267E+03
  3.43039E+03 -8.21232E+02  7.46286E+03  4.25050E+03  3.71818E+03  8.50320E+03 -9.54185E+02  1.04808E+04
 -7.78125E+03  8.72717E+03 -1.14834E+04  7.89398E+02 -1.11643E+04 -3.90511E+03 -4.17337E+03 -6.92211E+03
  9.98096E+02 -6.33893E+03  4.62923E+03 -3.41552E+03  4.85943E+03  3.83183E+03 -2.82280E+03  4.84936E+03
 -7.38372E+03  2.48879E+03 -7.63113E+03 -4.22882E+03 -4.27415E+03 -1.01484E+04  2.60888E+03 -9.84661E+03
  5.80812E+03 -5.75240E+03  7.11377E+03 -7.16046E+02  6.01689E+03  1.37962E+03  1.25748E+03  4.55493E+03
 -3.74892E+03  1.50819E+03 -4.28008E+03 -2.05680E+03  1.90090E+03 -7.06102E+03  7.26113E+03 -6.47610E+03
  1.05929E+04  1.08453E+03  1.04454E+04  8.39232E+03  2.71004E+03  1.26547E+04 -4.16071E+03  1.13581E+04
 -7.75940E+03  5.22281E+03 -9.34697E+03 -1.07283E+03 -6.25978E+03 -7.83228E+03  1.51900E+03 -6.02631E+03
  5.99165E+03 -4.24879E+03  5.92018E+03  2.23136E+03  1.93927E+03  7.46385E+03  3.38092E+02  6.11552E+03
 -3.85989E+03  1.85484E+03 -1.02147E+03  2.83324E+03 -9.22645E+02  2.98754E+03 -2.58363E+03  2.86252E+03
 -3.24427E+03  6.10196E+03 -8.32039E+03  3.39372E+03 -1.14930E+04  4.98431E+02 -1.27858E+04 -6.61275E+03
 -5.91099E+03 -1.67570E+04  2.97225E+03 -1.63701E+04  1.08451E+04 -1.25592E+04  1.64257E+04 -5.78413E+03
  1.55670E+04  3.33168E+03  9.61816E+03  9.92398E+03  8.77936E+02  1.41618E+04 -4.79501E+03  1.03518E+04
 -6.06965E+03  3.10026E+03 -4.39725E+03 -1.82149E+03 -2.61779E+03 -3.31006E+03 -9.18976E+02  1.40103E+03
 -7.72249E+02  1.89869E+02  1.90253E+02 -2.54249E+02 -1.82832E+01 -3.55932E+03  2.72108E+02 -3.69670E+03
  4.95953E+03 -2.78551E+03  6.75799E+03 -4.67864E+01  8.35747E+03  4.78561E+03  3.22140E+03  1.18274E+04
 -3.43435E+03  1.28778E+04 -1.48240E+04  7.14872E+03 -1.58734E+04 -1.42833E+03 -1.00171E+04 -9.47690E+03
 -5.06974E+03 -1.22947E+04  4.57555E+03 -1.09097E+04  8.46959E+03 -4.05894E+03  7.08808E+03  1.08693E+03
  5.81386E+03  4.06736E+03 -4.45487E+02  3.58467E+03 -3.03849E+03  2.04658E+02 -3.53784E+02 -2.61995E+03
  3.02193E+03 -1.51484E+03  4.74142E+03  1.60412E+03  2.76998E+03  4.77735E+03 -6.95676E+00  7.43685E+03
 -5.54842E+03  3.94363E+03 -7.90346E+03 -1.41293E+03 -6.78625E+03 -6.13493E+03 -2.07236E+02 -9.95564E+03
  5.17478E+03 -7.22824E+03  1.22410E+04 -3.35683E+03  1.00280E+04  2.11201E+03  5.50176E+03  6.81580E+03
 -4.69522E+02  6.61625E+03 -4.45463E+03  5.33541E+03 -3.94180E+03  3.10908E+03 -4.48364E+03  2.47526E+02
 -2.58021E+03 -1.73810E+03 -2.02313E+03  1.28578E+03 -2.57770E+03  1.35792E+03 -7.34741E+03 -1.65606E+03
 -7.11261E+03 -3.83880E+03 -3.05444E+03 -9.90619E+03  3.32879E+03 -7.98739E+03  7.43427E+03 -4.70362E+03
  7.62880E+03  9.27891E+02  5.66781E+03  5.11794E+03 -1.26841E+02  9.17329E+03 -5.46080E+03  6.33920E+03
