 $NMID ID='MM_0lb_SNR200_7hz_g55_39.RAW', FMTDAT='(8E13.5)'
 TRAMP=1., VOLUME=1. $END
  3.08978E+05  1.82474E+03  3.38848E+05  2.50673E+05  8.68552E+04  3.37694E+05 -1.31671E+05  2.52525E+05
 -1.90148E+05  8.58348E+04 -1.11865E+05 -3.23341E+04  4.46467E+02 -5.03332E+04  5.33742E+04 -1.21268E+03
  3.50650E+04  5.26082E+04 -1.54383E+04  7.54448E+04 -6.23738E+04  6.63528E+04 -8.74401E+04  3.24032E+04
 -8.40881E+04 -1.01520E+04 -5.87761E+04 -5.29595E+04 -1.53026E+04 -7.13073E+04  2.83714E+04 -4.81797E+04
  4.22106E+04  1.19802E+03  1.69481E+04  4.91550E+04 -3.40922E+04  4.80810E+04 -6.74770E+04 -7.53863E+02
 -5.44660E+04 -5.82014E+04 -8.18936E+03 -8.05927E+04  3.46470E+04 -5.92895E+04  4.94393E+04 -1.65803E+04
  4.52187E+04  1.36061E+04  3.51468E+04  2.65850E+04  1.53147E+04  3.12056E+04 -3.05363E+03  2.98902E+04
 -2.23564E+04  1.08334E+04 -1.80191E+04 -6.61069E+03  7.43359E+03 -7.69495E+03  2.39082E+04  1.56936E+04
  7.34223E+03  3.92289E+04 -3.41709E+04  3.85808E+04 -6.66224E+04  2.66306E+03 -5.85106E+04 -4.46339E+04
 -1.17842E+04 -6.56645E+04  4.05015E+04 -4.78879E+04  6.06855E+04 -3.17767E+03  3.84906E+04  3.70471E+04
 -5.20972E+03  3.92487E+04 -3.15933E+04  2.01669E+04 -3.51505E+04 -2.70820E+03 -1.86240E+04 -1.23567E+04
 -9.51749E+03 -1.32709E+04 -2.16185E+03 -2.20104E+04  6.16609E+03 -2.33249E+04  1.64897E+04 -1.22541E+04
  1.00573E+04  7.68218E+03 -1.22717E+04  1.25770E+04 -2.37040E+04 -7.59880E+03 -8.20905E+03 -3.89128E+04
  2.50676E+04 -4.78334E+04  5.50156E+04 -2.08816E+04  5.16636E+04  2.18759E+04  1.95528E+04  4.73811E+04
 -1.67775E+04  3.97344E+04 -2.83201E+04  3.99650E+03 -1.19757E+04 -3.00546E+04  2.11478E+04 -3.94024E+04
  4.61778E+04 -1.25805E+04  4.12276E+04  2.36473E+04  2.25174E+04  5.39557E+04 -7.26334E+03  5.94425E+04
 -3.49985E+04  4.12253E+04 -5.05470E+04  1.26524E+04 -4.95909E+04 -1.88344E+04 -2.77170E+04 -4.21159E+04
  8.00591E+03 -4.25095E+04  3.60210E+04 -1.80534E+04  3.38274E+04  1.30155E+04  5.49059E+03  2.07473E+04
 -1.46872E+04  9.07217E+03 -1.17632E+04 -7.00402E+03  5.90911E+03 -1.16401E+04  2.10254E+04  6.00822E+03
  1.66088E+04  2.18419E+04 -3.04446E+03  2.93629E+04 -2.47227E+04  1.62143E+04 -3.32657E+04 -1.08622E+03
 -2.90891E+04 -1.79196E+04 -1.56780E+04 -2.66800E+04  2.53074E+03 -2.89083E+04  2.32911E+04 -2.22231E+04
  3.28723E+04 -1.63109E+04  4.10362E+04  5.81904E+03  2.83853E+04  2.73673E+04  7.00750E+03  4.41238E+04
 -2.15052E+04  3.53663E+04 -3.02953E+04  1.30556E+04 -2.14478E+04 -9.38712E+03 -4.58224E+03 -1.24920E+04
 -1.23499E+03 -2.82493E+02 -9.17171E+03  9.72892E+03 -2.24556E+04  7.06707E+03 -2.26908E+04 -1.18168E+04
 -1.42812E+04 -2.64387E+04  7.61490E+03 -2.95709E+04  2.02551E+04 -2.13445E+04  2.68071E+04 -2.75926E+03
  1.56200E+04  1.67666E+04  8.66767E+02  2.60942E+04 -1.87233E+04  1.72681E+04 -2.59575E+04 -3.10530E+03
 -1.84498E+04 -2.17649E+04 -2.27247E+03 -3.03899E+04  1.50412E+04 -2.40640E+04  2.54752E+04 -1.37645E+04
  2.28214E+04  1.92777E+02  1.76927E+04  6.02636E+03  1.01607E+04  9.75255E+02  1.42523E+04 -3.25598E+03
  2.49313E+04  2.88039E+03  2.83768E+04  2.07715E+04  2.15468E+04  4.10327E+04 -2.52221E+03  4.96748E+04
 -2.82389E+04  4.18988E+04 -4.69008E+04  2.16711E+04 -5.07971E+04 -3.91714E+03 -4.08532E+04 -2.84772E+04
 -1.51050E+04 -4.35368E+04  1.53002E+04 -3.58160E+04  3.10303E+04 -1.70774E+04  2.70431E+04  9.75147E+03
  9.27587E+03  2.20455E+04 -1.57029E+04  1.70092E+04 -2.34414E+04  2.70096E+03 -1.75311E+04 -1.42524E+04
 -7.20669E+02 -2.22484E+04  1.22541E+04 -1.52973E+04  1.60659E+04 -2.18343E+02  1.55110E+03  9.98763E+03
 -1.02211E+04  2.82512E+03 -9.62314E+03 -7.19078E+03 -2.62701E+03 -2.09041E+04  1.26094E+04 -2.37467E+04
  2.71834E+04 -1.53944E+04  3.04678E+04  3.27922E+03  2.74745E+04  1.96016E+04  1.20012E+04  3.47599E+04
 -7.70567E+03  3.51320E+04 -2.42626E+04  2.26093E+04 -2.72971E+04  4.51062E+03 -1.68191E+04 -8.81429E+03
 -6.38886E+03 -8.30582E+03 -1.13849E+03 -1.80063E+02 -4.75278E+03  2.19944E+03 -8.70318E+03  5.44522E+03
 -1.55328E+04 -5.22068E+02 -1.86427E+04 -1.23359E+04 -7.62334E+03 -2.26722E+04  8.39566E+03 -1.81779E+04
  1.67322E+04 -6.65072E+03  1.07499E+04  3.18957E+03 -2.04205E+03  5.34057E+03 -9.76401E+03  9.34889E+02
 -1.05507E+04 -1.10182E+04 -7.57255E+02 -1.74929E+04  1.11541E+04 -1.92399E+04  2.36368E+04 -1.26209E+04
  2.75421E+04  1.75358E+03  1.84827E+04  1.64344E+04  3.80551E+03  2.46551E+04 -1.09750E+04  1.81767E+04
 -1.39808E+04  4.54854E+03 -6.41505E+03 -4.97349E+03  3.62383E+03 -6.40352E+03  1.09835E+04 -1.84118E+03
  1.08173E+04  1.11848E+04 -1.03123E+03  1.35574E+04 -1.04802E+04  1.51712E+04 -1.74888E+04  2.65251E+03
 -1.35011E+04 -9.51571E+03 -1.74786E+02 -1.57035E+04  1.03898E+04 -7.92239E+03  1.23834E+04  4.27572E+03
  2.97602E+03  1.16661E+04 -7.42132E+03  1.41875E+04 -1.78038E+04  6.61538E+03 -1.70678E+04 -6.25128E+03
 -1.06391E+04 -1.77002E+04  5.48899E+03 -2.32893E+04  1.95370E+04 -1.47331E+04  2.15195E+04  2.29638E+03
  1.16584E+04  1.63159E+04 -2.43869E+03  1.96288E+04 -1.49961E+04  1.06876E+04 -1.50989E+04 -2.22703E+03
 -1.26233E+04 -1.09536E+04 -3.53032E+02 -1.46204E+04  6.61094E+03 -1.13862E+04  9.66553E+03 -4.41954E+03
  5.21137E+03  3.38359E+03 -1.63288E+03  5.67443E+02 -2.10133E+03 -5.08352E+03  2.09371E+03 -9.42866E+03
  1.31813E+04 -5.71085E+03  2.16630E+04  4.08688E+02  1.94289E+04  1.39319E+04  1.23574E+04  2.48139E+04
 -6.71709E+03  2.99508E+04 -2.50994E+04  2.20424E+04 -3.16763E+04  4.41445E+03 -2.38604E+04 -1.14019E+04
 -1.44539E+04 -2.27026E+04  2.04856E+03 -1.94264E+04  7.20018E+03 -1.09675E+04  7.69420E+03 -6.75892E+03
  5.39653E+03 -3.41304E+03  3.93676E+03 -3.62978E+03  7.19371E+03 -4.21869E+03  9.32312E+03 -9.61734E+02
  1.30457E+04  3.04816E+03  4.30142E+03  1.24692E+04 -2.88638E+03  1.25554E+04 -1.41870E+04  1.09163E+04
 -2.05109E+04 -1.65212E+03 -1.38587E+04 -1.39677E+04 -2.13812E+03 -2.06413E+04  9.81624E+03 -2.08167E+04
  1.99039E+04 -9.49743E+03  2.37551E+04  5.54904E+03  1.73054E+04  1.58116E+04  2.46983E+03  2.40409E+04
 -9.40128E+03  1.65596E+04 -1.31069E+04  5.78832E+03 -9.28322E+03 -3.28076E+03 -3.79555E+03 -3.79781E+03
 -1.65367E+03 -1.18167E+03 -2.03238E+03  1.89673E+03 -7.94054E+03  2.97702E+02 -1.31180E+04 -2.19347E+03
 -1.05891E+04 -1.17613E+04 -4.54626E+02 -1.95033E+04  1.20728E+04 -1.71175E+04  2.01378E+04 -5.75687E+03
  1.90632E+04  9.55860E+03  7.88485E+03  1.68831E+04 -4.66590E+03  2.21078E+04 -1.37563E+04  1.10109E+04
 -2.08924E+04  2.03894E+03 -1.38458E+04 -1.13648E+04 -1.59701E+03 -1.66076E+04  7.45072E+03 -9.61923E+03
  9.75901E+03 -2.22109E+03  9.50407E+03  4.22484E+03  2.33367E+03  7.85589E+03  6.01618E+02  5.36182E+03
  3.53878E+03  1.72353E+03  5.77790E+03  2.44007E+03  8.05401E+03  7.22519E+03  5.18135E+03  1.02418E+04
 -5.97069E+03  1.58362E+04 -1.34855E+04  1.74369E+04 -2.14123E+04  3.76611E+03 -2.08423E+04 -8.90981E+03
 -1.04912E+04 -1.87876E+04  1.16586E+03 -2.11191E+04  1.33042E+04 -1.38347E+04  1.50341E+04 -3.20434E+03
  1.35795E+04  5.60180E+03  2.36870E+03  1.08394E+04 -4.68285E+03  7.43048E+03 -7.35864E+03 -2.92695E+03
 -2.87865E+03 -8.38141E+03  5.69462E+03 -8.99405E+03  8.98136E+03 -3.33716E+03  7.92201E+03  5.15193E+02
  4.26594E+03  4.84319E+03  1.53467E+03  5.31543E+03 -2.04173E+03  1.61238E+03  1.79268E+03  3.93949E+02
  4.37100E+03 -1.46011E+03  7.84794E+03  3.36808E+03  5.61342E+03  1.02070E+04  2.98297E+01  1.50908E+04
 -8.79636E+03  9.88786E+03 -1.28425E+04  1.31800E+03 -1.23491E+04 -3.90789E+03 -6.50791E+03 -8.23444E+03
  2.43758E+03 -7.30883E+03  5.06890E+03 -3.34564E+03  4.24049E+03  2.08360E+03 -2.77714E+03  8.12063E+03
 -9.30096E+03  3.32153E+03 -1.03555E+04 -4.06164E+03 -5.53398E+03 -1.17820E+04 -1.30955E+02 -1.12009E+04
  8.32439E+03 -8.54763E+03  9.71180E+03  2.05930E+02  6.25413E+03  3.02694E+03  1.42684E+03  5.43134E+03
 -5.32354E+03  4.46920E+03 -6.09459E+03 -4.31732E+03  1.23411E+03 -9.83114E+03  9.08582E+03 -8.56739E+03
  1.21224E+04  1.51165E+03  1.13420E+04  8.58481E+03  3.54135E+03  1.56552E+04 -5.18017E+03  1.23763E+04
 -1.18886E+04  5.60192E+03 -1.29316E+04 -1.69344E+03 -7.94468E+03 -8.28799E+03  3.15877E+03 -7.58824E+03
  7.66753E+03 -4.79810E+03  9.88405E+03  4.39817E+03  1.90610E+03  8.49968E+03 -2.46271E+03  7.74793E+03
 -3.01946E+03  5.34837E+03 -3.59665E+03  2.45333E+03 -1.81029E+03  1.30717E+03 -2.92628E+03  3.79395E+03
 -4.45172E+03  5.36953E+03 -1.02985E+04  5.57649E+03 -1.38310E+04 -4.37679E+02 -1.63530E+04 -1.08889E+04
 -8.91734E+03 -1.97087E+04  2.16526E+03 -2.19926E+04  1.17415E+04 -1.63695E+04  2.25302E+04 -7.50577E+03
  1.94148E+04  5.41892E+03  1.15113E+04  1.22790E+04  2.34978E+03  1.67322E+04 -5.87894E+03  1.03348E+04
 -8.12836E+03  1.49918E+03 -3.67866E+03 -1.70039E+03 -1.25781E+03 -5.27370E+02 -1.53446E+03 -3.83707E+02
 -2.59639E+03  1.98774E+02 -2.63791E+03 -5.65747E+02 -3.11460E+03 -4.85481E+03 -9.03621E+02 -5.25952E+03
  6.44496E+03 -5.74720E+03  1.00562E+04 -1.07805E+02  1.03090E+04  8.71881E+03  2.82838E+03  1.55277E+04
 -7.07777E+03  1.60174E+04 -1.53111E+04  9.90854E+03 -1.89027E+04  2.84906E+02 -1.42386E+04 -1.02771E+04
 -4.65223E+03 -1.44686E+04  4.59164E+03 -1.49159E+04  1.06236E+04 -9.00043E+03  1.02069E+04  1.48502E+03
  3.75957E+03  6.14642E+03 -1.19926E+03  3.63641E+03 -4.87180E+02 -2.35323E+02  1.88954E+03 -5.20214E+03
  5.81121E+03 -3.54432E+03  4.87477E+03  2.32061E+03  5.35668E+03  4.85430E+03  1.34726E+03  9.00225E+03
 -7.31086E+03  7.34595E+03 -1.21659E+04 -7.61021E+01 -9.56601E+03 -6.00856E+03 -2.13173E+03 -1.32955E+04
  6.20985E+03 -1.08874E+04  1.06875E+04 -3.83198E+03  1.20149E+04  2.66905E+03  8.84577E+03  9.91179E+03
 -5.92657E+02  1.04506E+04 -3.16823E+03  9.17812E+03 -6.78279E+03  4.15304E+03 -5.91134E+03  8.41235E+02
 -2.71290E+03 -5.28960E+02 -2.75168E+03  2.02073E+03 -6.78546E+03  2.08930E+03 -8.42731E+03 -1.14681E+03
 -6.55976E+03 -6.89553E+03 -3.62657E+03 -9.82252E+03  7.15194E+03 -1.00380E+04  9.81813E+03 -6.04265E+03
  1.04766E+04  1.75922E+03  7.84619E+03  8.80841E+03 -9.19126E+02  1.12988E+04 -7.14931E+03  6.14900E+03
