 $NMID ID='MM_0lb_SNR200_20hz_g45_27.RAW', FMTDAT='(8E13.5)'
 TRAMP=1., VOLUME=1. $END
  3.09728E+05  1.17245E+02  3.37555E+05  2.50286E+05  8.46233E+04  3.37021E+05 -1.32548E+05  2.49990E+05
 -1.89555E+05  8.21093E+04 -1.10520E+05 -3.18104E+04  1.63661E+03 -5.02694E+04  5.40293E+04  6.31207E+01
  3.47648E+04  5.41551E+04 -1.69023E+04  7.44067E+04 -6.01356E+04  6.16571E+04 -8.20978E+04  3.09978E+04
 -7.97327E+04 -1.10249E+04 -5.55419E+04 -5.01475E+04 -1.44872E+04 -6.78219E+04  2.67108E+04 -4.49819E+04
  3.85820E+04  4.38842E+03  1.49147E+04  4.69441E+04 -3.32272E+04  4.54170E+04 -6.44486E+04 -5.09948E+02
 -5.23141E+04 -5.57306E+04 -6.04906E+03 -7.29665E+04  3.27911E+04 -5.17681E+04  4.56351E+04 -1.62839E+04
  4.15825E+04  1.04460E+04  2.97440E+04  2.37854E+04  1.54679E+04  2.73891E+04 -4.22680E+03  2.73230E+04
 -2.14269E+04  1.31143E+04 -1.92208E+04 -4.55392E+03  3.59108E+03 -7.24264E+03  2.15064E+04  1.03702E+04
  7.41582E+03  3.24234E+04 -2.99860E+04  3.44033E+04 -6.11223E+04  2.46612E+03 -5.43853E+04 -4.04503E+04
 -1.22677E+04 -5.98517E+04  3.73598E+04 -4.18249E+04  5.40111E+04 -1.64351E+03  3.10114E+04  2.96694E+04
 -6.70447E+03  3.12624E+04 -2.91819E+04  1.17941E+04 -2.69273E+04 -4.67285E+03 -1.26764E+04 -9.37376E+03
 -7.53276E+03 -1.16590E+04 -1.44067E+03 -1.64939E+04  6.13269E+03 -2.17777E+04  1.46325E+04 -1.32975E+04
  1.29076E+04  4.77409E+03 -5.25682E+03  1.27351E+04 -1.88618E+04 -1.28510E+03 -8.06000E+03 -2.91930E+04
  1.99833E+04 -3.97566E+04  4.37769E+04 -1.72182E+04  4.08594E+04  1.79221E+04  1.28488E+04  4.11485E+04
 -1.62233E+04  3.01732E+04 -2.25281E+04  8.87822E+02 -7.94406E+03 -2.54431E+04  2.00424E+04 -3.10164E+04
  3.69468E+04 -7.30371E+03  3.04660E+04  2.18880E+04  1.47309E+04  4.12335E+04 -8.54945E+03  4.28590E+04
 -2.71447E+04  2.92525E+04 -3.64441E+04  7.86740E+03 -3.64000E+04 -1.40672E+04 -2.03732E+04 -3.27442E+04
  7.80157E+03 -3.30161E+04  2.75934E+04 -1.21731E+04  2.67328E+04  9.77283E+03  2.84399E+03  1.68223E+04
 -1.18866E+04  7.15341E+03 -9.66000E+03 -7.91751E+03  5.01958E+03 -1.03583E+04  1.63299E+04  6.49737E+03
  1.16721E+04  2.17676E+04 -6.52239E+03  2.28822E+04 -2.07893E+04  8.33577E+03 -2.38237E+04 -6.45219E+03
 -1.54482E+04 -1.58325E+04 -4.71388E+03 -1.54008E+04  3.55961E+03 -1.37867E+04  1.02984E+04 -1.33927E+04
  1.91747E+04 -1.21638E+04  2.67168E+04  5.80724E+02  2.01693E+04  1.50969E+04  4.25994E+03  3.12344E+04
 -1.61696E+04  2.66165E+04 -2.50479E+04  8.97845E+03 -1.97217E+04 -1.09028E+04 -3.44716E+03 -1.34929E+04
  2.45206E+03 -3.69997E+03 -1.18326E+03  5.27924E+03 -1.24215E+04  5.44206E+03 -1.30293E+04 -4.06293E+03
 -8.13432E+03 -1.35464E+04  4.98802E+03 -1.77936E+04  1.11510E+04 -1.30763E+04  1.44902E+04 -2.66628E+03
  7.43242E+03  1.05165E+04 -9.85349E+02  1.54828E+04 -9.40437E+03  7.20591E+03 -1.41767E+04 -3.53595E+03
 -1.12316E+04 -1.27613E+04 -1.42517E+03 -1.80072E+04  7.20753E+03 -1.35168E+04  1.52208E+04 -7.18622E+03
  1.34150E+04  9.76944E+02  8.86875E+03  4.11417E+03  4.77859E+03  6.49077E+02  6.72124E+03 -1.74743E+03
  1.28167E+04  2.71444E+03  1.37143E+04  1.20361E+04  9.42706E+03  2.28695E+04 -3.82831E+03  2.44794E+04
 -1.43974E+04  1.86883E+04 -2.14217E+04  7.76888E+03 -2.20417E+04 -1.01870E+03 -1.84337E+04 -1.29048E+04
 -9.51557E+03 -1.68443E+04  5.43489E+03 -1.75658E+04  1.53878E+04 -9.97643E+03  1.47759E+04  3.38049E+03
  6.32536E+03  1.13902E+04 -6.45018E+03  9.87604E+03 -1.24168E+04  2.59263E+03 -9.07690E+03 -7.55036E+03
 -8.05718E+02 -1.18941E+04  6.35708E+03 -8.63093E+03  7.18205E+03 -4.15600E+02  1.73549E+03  3.73821E+03
 -5.14034E+03  1.17189E+03 -3.32069E+03 -4.70601E+03  1.76290E+03 -8.83415E+03  7.64056E+03 -1.00444E+04
  1.15337E+04 -3.50247E+03  9.73045E+03  2.18374E+03  8.18372E+03  7.52739E+03  4.60943E+03  1.23742E+04
 -8.09166E+02  1.33553E+04 -8.41630E+03  8.50993E+03 -9.46143E+03  3.42035E+03 -7.64346E+03 -1.56378E+03
 -4.12447E+03 -3.11177E+03 -7.71500E+02  1.39222E+03 -2.04742E+03  1.44228E+03 -2.14218E+03  3.47362E+03
 -7.00783E+03 -2.25329E+01 -7.93275E+03 -6.73076E+03 -3.02020E+03 -1.05857E+04  3.37893E+03 -6.72451E+03
  6.75658E+03 -3.44217E+03  4.53193E+03  1.29646E+03  1.37341E+03  2.56932E+03 -3.47239E+03 -8.89586E+02
 -2.43589E+03 -3.73118E+03 -7.87777E+02 -6.20163E+03  3.84448E+03 -6.31909E+03  7.79218E+03 -3.66618E+03
  1.08266E+04  2.12431E+03  7.96715E+03  4.55306E+03  2.18081E+03  6.86245E+03 -4.67760E+03  8.23105E+03
 -6.65620E+03  1.75801E+03 -2.98436E+03 -5.18069E+02  1.90831E+03 -2.30529E+03  4.56129E+03 -1.82023E+03
  3.32163E+03  2.29738E+03  1.77814E+03  5.98991E+03 -3.78553E+03  6.25281E+03 -6.92164E+03  1.15279E+03
 -3.89623E+03 -2.67927E+03  3.36861E+02 -6.19777E+03  3.35473E+03 -2.71896E+03  1.84089E+03  1.03280E+03
  7.16624E+02  1.36829E+03 -3.71127E+03  4.42282E+03 -3.77698E+03  2.40453E+03 -3.62657E+03 -1.38330E+03
 -2.68084E+03 -4.55990E+03  6.44048E+02 -5.66938E+03  5.40799E+03 -3.96363E+03  5.76789E+03  1.16137E+03
  3.19701E+03  4.58974E+03  9.05688E+02  7.01023E+03 -3.96628E+03  3.29294E+03 -3.31184E+03 -7.48229E+02
 -6.16666E+03 -3.51351E+03  4.29223E+02 -4.69134E+03  2.51664E+03 -5.11068E+03  2.68515E+03 -2.94384E+03
  2.59149E+03  5.75006E+02 -1.02977E+01  1.01283E+03  8.96542E+02  6.13688E+02 -3.57112E+02 -1.54297E+03
  2.53636E+03 -1.21863E+02  3.84552E+03  1.64334E+03  3.36492E+03  1.83122E+03  4.48401E+03  5.95619E+03
 -1.06672E+03  6.54934E+03 -5.80286E+03  6.44955E+03 -8.26278E+03  1.77740E+03 -5.67714E+03 -2.14240E+03
 -3.72479E+03 -6.54122E+03 -1.55839E+03 -4.83522E+03  2.13272E+03 -1.10540E+03  1.98843E+03 -1.98534E+03
  1.98161E+03 -1.58033E+03  2.49131E+03 -2.46999E+03  3.69355E+03 -6.66251E+02  2.46551E+03  7.21963E+02
  4.31890E+03  6.50564E+02  1.40002E+03  3.36609E+03 -2.83152E+03  3.14024E+03 -2.99699E+03  1.39540E+03
 -3.33898E+03 -1.33059E+03 -6.25314E+02 -2.61994E+03  1.01874E+03 -4.12891E+03  2.40566E+03 -4.10967E+03
  4.08209E+03 -2.75389E+03  4.73909E+03 -7.40749E+02  3.91004E+03  2.86529E+03  1.42507E+03  5.68985E+03
 -1.45624E+03  5.31233E+03 -2.82378E+03  1.85483E+03 -1.40832E+03 -2.51545E+03  3.63747E+01  7.08871E+02
 -6.16670E+02  1.34062E+02 -6.68285E+02  1.60764E+03 -1.97751E+03 -1.46416E+02 -3.08214E+03 -7.91044E+01
 -1.65685E+03 -2.90651E+03  1.50802E+03 -4.04872E+03  2.04292E+03 -3.71195E+03  3.23507E+03 -1.21458E+03
  3.72207E+03  1.85831E+03  7.84124E+02  2.21036E+03 -5.65712E+02  4.40376E+03 -2.98382E+03  1.99376E+03
 -3.59247E+03  1.05219E+03 -3.37422E+03 -1.19072E+03  6.84800E+02 -2.33019E+03  1.90560E+02 -2.30082E+03
  2.23749E+03 -1.78192E+03  6.95474E+02  8.58912E+02  6.82651E+02  7.14744E+02  5.52067E+02  1.86743E+02
  1.52639E+03 -5.42200E+01  1.39644E+03  2.47753E+02  1.14524E+03  2.56213E+03  9.56142E+02  1.48171E+03
 -7.51943E+02  2.83783E+03 -1.78566E+03  3.63352E+03 -1.29560E+03  7.19172E+02 -3.34405E+03 -7.58386E+01
 -8.56200E+02 -3.19037E+03  9.35285E+02 -3.82184E+03  2.32085E+03 -1.36269E+03  2.21526E+03 -1.02712E+03
  1.47075E+03  2.63660E+03  1.12334E+03  2.71061E+03  7.06637E+02  1.18862E+03 -5.58947E+02 -2.51831E+02
 -9.96753E+02 -1.73093E+03  1.33924E+03 -1.08224E+03  9.42631E+02 -1.63808E+03  2.09535E+03 -5.18163E+02
 -2.55615E+02 -8.77022E+02  6.28554E+02 -5.26573E+01 -3.04716E+02  1.00853E+03  1.77965E+03  5.53038E+02
 -1.11581E+03 -8.24314E+02  1.89750E+03  9.52991E+02 -2.51986E+02  1.98124E+03 -8.88666E+01  2.17818E+03
 -1.01176E+03  7.29714E+02 -1.77256E+03  1.84866E+02 -2.23415E+03 -5.50808E+02 -8.45196E+02 -2.06013E+03
  4.66525E+02 -5.05381E+02  4.13344E+02 -5.11352E+01 -9.69825E+02  8.11327E+02  1.94880E+02  6.67038E+02
 -1.16770E+03 -2.63640E+02 -1.25360E+03 -5.81645E+02 -6.19808E+02 -1.83765E+03  2.02928E+01 -1.13768E+03
  4.18525E+02 -1.12555E+03 -4.82733E+02  3.46016E+02 -2.95368E+02 -1.48848E+02  6.37813E+02  1.08708E+03
 -1.94343E+02 -1.23888E+02 -1.25204E+03  5.58618E+02  7.09168E+02 -3.25549E+02  1.01749E+03 -9.17223E+02
  4.69750E+02 -1.92485E+02  3.31162E+03  1.35329E+02  9.94403E+02  5.82248E+02 -2.74023E+02  2.52501E+03
 -1.70571E+03 -2.71543E+02 -1.35780E+03  1.19237E+03 -8.86763E+02 -8.13772E+02  3.44551E+02 -8.33501E+02
  7.97932E+02  3.13988E+01  6.58384E+02  5.20730E+02 -2.15927E+02  9.50916E+02  7.64271E+02  1.69427E+03
  3.10332E+02  6.80034E+02 -9.96861E+02  3.99210E+02  6.19684E+02  3.05368E+02 -7.60570E+02 -6.09015E+02
 -1.40481E+03  1.42424E+03 -2.75487E+03  1.53763E+02 -5.00636E+02  6.44719E+02 -3.24715E+03 -6.23241E+02
 -1.08431E+03 -8.73204E+02 -5.25760E+01 -9.02535E+02  2.58653E+02 -1.49945E+03  1.86821E+03 -2.32245E+03
  1.93003E+03  2.45390E+02  1.82452E+03  9.40068E+02 -4.76423E+02  1.17121E+03 -6.66188E+02  5.50407E+02
  4.37785E+02  3.50237E+02  5.42073E+02  3.83367E+02 -6.36916E+02 -2.36862E+02 -4.21954E+02  6.80267E+02
 -7.97266E+02 -3.89067E+02 -1.62748E+03 -8.25989E+02  2.39025E+02 -3.55567E+02 -3.72092E+02 -8.17795E+02
  1.52875E+03 -1.91440E+02  3.89021E+02  1.12580E+03  1.40149E+02  2.26529E+02 -3.49543E+02  1.32260E+03
 -2.51319E+02  2.10645E+03 -1.23453E+03  8.60546E+02 -1.46819E+03 -6.91645E+02  2.39096E+02 -5.11736E+02
 -4.88475E+02 -5.54072E+02  4.62113E+02 -1.02770E+03 -2.63827E+02 -2.42186E+02  4.82869E+02 -1.45862E+03
  7.95718E+02 -2.11116E+02 -1.64083E+02  7.97789E+02  4.37935E+01  1.68938E+02 -1.24590E+02 -3.81996E+02
  4.16001E+02  2.85758E+02  1.49897E+02  5.02236E+02  2.19726E+01 -1.04827E+02  7.43202E+02 -4.70330E+01
  4.77536E+01  1.04323E+03  3.17972E+02 -4.01746E+01 -9.45838E+02 -7.19145E+02 -2.54263E+02 -5.98997E+02
  1.01725E+03 -7.79460E+02  2.55457E+01  2.73016E+02  6.46798E+02 -1.36281E+03 -6.86056E+02  1.98921E+02
 -2.40674E+02 -3.25647E+02  2.27415E+02 -4.74206E+02 -1.56292E+01  1.05167E+03 -3.75234E+02 -9.25104E+02
  1.70578E+02  5.95400E+02 -3.50928E+02  5.80774E+02 -8.98616E+02  2.25610E+02 -1.44949E+03  1.35565E+02
 -8.49915E+02  1.12540E+03  2.35921E+02 -6.67128E+02  6.31994E+02 -1.15699E+03  1.05303E+03  4.81304E+02
  1.22301E+03  6.21315E+01 -5.82886E+02  6.25685E+02  1.08905E+02  6.73621E+02 -4.22320E+02 -4.02404E+02
