 $NMID ID='MM_0lb_SNR200_9hz_g55_83.RAW', FMTDAT='(8E13.5)'
 TRAMP=1., VOLUME=1. $END
  3.09114E+05  7.99880E+02  3.38808E+05  2.50351E+05  8.59915E+04  3.37135E+05 -1.33208E+05  2.51629E+05
 -1.90797E+05  8.37455E+04 -1.14321E+05 -3.20296E+04 -5.32700E+02 -4.99411E+04  5.42613E+04 -2.02927E+03
  3.72393E+04  5.17510E+04 -1.68911E+04  7.68393E+04 -5.96916E+04  6.40468E+04 -8.42989E+04  3.37355E+04
 -8.27098E+04 -1.22156E+04 -6.07423E+04 -5.39079E+04 -1.53733E+04 -7.27438E+04  2.83622E+04 -4.49853E+04
  3.97466E+04  3.43610E+03  1.66444E+04  4.79750E+04 -3.43511E+04  4.89134E+04 -6.84792E+04  1.60195E+03
 -5.52369E+04 -5.86742E+04 -5.94692E+03 -7.92057E+04  3.56133E+04 -5.67273E+04  4.79862E+04 -1.84160E+04
  4.59752E+04  1.12187E+04  3.31616E+04  2.62850E+04  1.62502E+04  3.22503E+04 -6.64617E+03  2.73991E+04
 -2.46422E+04  1.30398E+04 -1.86687E+04 -6.38512E+03  6.36459E+03 -6.04120E+03  2.25054E+04  1.39551E+04
  6.72176E+03  3.66339E+04 -3.42062E+04  3.67521E+04 -6.67623E+04  1.53148E+03 -5.93690E+04 -4.42825E+04
 -1.18776E+04 -6.61037E+04  4.13631E+04 -4.59302E+04  6.26604E+04 -9.80673E+02  3.68182E+04  3.36368E+04
 -3.76268E+03  3.94209E+04 -3.17757E+04  1.85119E+04 -3.33922E+04 -2.42864E+03 -1.92013E+04 -1.37353E+04
 -1.00376E+04 -1.55831E+04 -1.17628E+03 -1.91860E+04  8.66539E+03 -2.46779E+04  1.45361E+04 -1.24472E+04
  9.89736E+03  6.16472E+03 -1.06806E+04  1.30543E+04 -2.35650E+04 -5.82367E+03 -7.37493E+03 -3.94876E+04
  2.59514E+04 -4.68258E+04  5.29401E+04 -2.11877E+04  4.87718E+04  2.12014E+04  1.55966E+04  4.71778E+04
 -1.68543E+04  3.64161E+04 -2.74705E+04  2.49791E+03 -1.29443E+04 -2.95044E+04  2.08907E+04 -3.74552E+04
  4.58429E+04 -1.03460E+04  4.09981E+04  2.60546E+04  2.09959E+04  5.27098E+04 -9.75503E+03  5.66434E+04
 -3.58305E+04  3.94745E+04 -4.71667E+04  1.14009E+04 -4.85057E+04 -1.92923E+04 -2.71186E+04 -4.28661E+04
  9.07050E+03 -4.31564E+04  3.41592E+04 -1.75626E+04  3.10718E+04  1.19339E+04  6.58359E+03  2.21286E+04
 -1.40765E+04  9.01281E+03 -1.08105E+04 -7.35993E+03  6.40604E+03 -1.21758E+04  1.81054E+04  7.48310E+03
  1.52706E+04  2.22537E+04 -5.09207E+03  2.75857E+04 -2.43189E+04  1.57082E+04 -3.11322E+04 -2.65664E+03
 -2.60841E+04 -1.79930E+04 -1.19882E+04 -2.50064E+04  4.33040E+03 -2.64529E+04  1.97821E+04 -2.31204E+04
  3.30446E+04 -1.43983E+04  4.06071E+04  4.40107E+03  2.77139E+04  2.53979E+04  3.72738E+03  4.22439E+04
 -2.12530E+04  3.52125E+04 -3.18572E+04  1.22571E+04 -2.32421E+04 -8.97589E+03 -4.36627E+03 -1.32294E+04
  6.24802E+02 -6.15625E+02 -8.52298E+03  8.75401E+03 -2.12546E+04  6.21804E+03 -1.99449E+04 -1.07571E+04
 -1.16307E+04 -2.37460E+04  7.62224E+03 -3.00221E+04  1.86828E+04 -2.08694E+04  2.23325E+04 -9.89366E+02
  1.52240E+04  1.61372E+04 -2.90602E+03  2.39883E+04 -1.71486E+04  1.42401E+04 -2.32436E+04 -4.50898E+03
 -1.73479E+04 -2.05945E+04 -2.16819E+03 -2.86517E+04  1.17243E+04 -2.41840E+04  2.40906E+04 -1.26488E+04
  2.18210E+04  9.00442E+02  1.39530E+04  4.12573E+03  9.77462E+03  2.12221E+03  1.27450E+04 -1.64825E+03
  2.40971E+04  2.08440E+03  2.62650E+04  1.75212E+04  1.76810E+04  3.80931E+04 -3.07364E+03  4.40735E+04
 -2.48580E+04  3.74519E+04 -4.18953E+04  2.02494E+04 -4.55662E+04 -3.03714E+03 -3.60359E+04 -2.77320E+04
 -1.31948E+04 -3.85141E+04  1.38192E+04 -3.27764E+04  2.97751E+04 -1.56520E+04  2.43384E+04  8.80987E+03
  7.75171E+03  1.96464E+04 -1.25955E+04  1.57393E+04 -2.07616E+04  2.93689E+03 -1.43360E+04 -1.25417E+04
 -2.41157E+02 -2.07146E+04  1.22062E+04 -1.57619E+04  1.16668E+04 -1.66271E+03  4.20019E+03  9.14365E+03
 -8.89733E+03  4.29578E+03 -9.00002E+03 -7.15731E+03 -1.78144E+03 -1.70412E+04  1.42697E+04 -2.03917E+04
  2.26235E+04 -1.21771E+04  2.74898E+04  3.03587E+03  2.24385E+04  1.86010E+04  1.09298E+04  3.13048E+04
 -6.18692E+03  3.12377E+04 -2.06808E+04  1.91953E+04 -2.44650E+04  3.13421E+03 -1.59859E+04 -6.01141E+03
 -6.87808E+03 -7.35407E+03 -7.66967E+02 -6.11805E+02 -4.98428E+03  3.72379E+03 -7.81086E+03  5.28113E+03
 -1.48904E+04 -5.74871E+02 -1.63579E+04 -1.14852E+04 -5.50994E+03 -1.80455E+04  7.96811E+03 -1.82613E+04
  1.35003E+04 -6.43973E+03  9.39256E+03  4.00794E+03 -2.85331E+02  6.51754E+03 -8.51562E+03  1.21957E+03
 -7.14163E+03 -1.23814E+04 -3.22120E+02 -1.58237E+04  9.09892E+03 -1.63148E+04  2.06463E+04 -9.13701E+03
  2.36597E+04  1.20395E+03  1.85614E+04  1.57282E+04  2.70971E+03  1.89748E+04 -8.36935E+03  1.76472E+04
 -1.29372E+04  4.85699E+03 -7.68038E+03 -3.36997E+03  2.57729E+03 -4.08002E+03  7.48101E+03 -1.12416E+03
  8.37405E+03  6.42107E+03  1.05807E+03  1.32258E+04 -9.05291E+03  1.31575E+04 -1.61896E+04  2.28214E+03
 -1.05923E+04 -8.84753E+03 -4.92664E+02 -1.46476E+04  1.00437E+04 -6.62811E+03  1.04563E+04  3.20963E+03
  2.98278E+03  9.94402E+03 -8.57073E+03  1.06183E+04 -1.34203E+04  3.92315E+03 -1.41896E+04 -5.32814E+03
 -7.72751E+03 -1.71159E+04  4.07204E+03 -1.96350E+04  1.60173E+04 -1.21028E+04  1.78561E+04  4.88779E+03
  1.14747E+04  1.29407E+04 -1.15843E+03  1.50655E+04 -1.23293E+04  8.57266E+03 -1.47468E+04  6.82047E+02
 -1.10204E+04 -1.03517E+04 -3.51800E+03 -1.14865E+04  7.15607E+03 -1.08158E+04  7.09386E+03 -2.55095E+03
  4.16147E+03  2.12634E+03 -2.08989E+02  1.33527E+03 -9.57805E+02 -3.81396E+03  3.52570E+03 -8.39568E+03
  1.21775E+04 -4.33902E+03  1.62700E+04  2.58326E+03  1.56931E+04  1.16593E+04  1.13311E+04  2.04775E+04
 -3.34101E+03  2.59419E+04 -2.13144E+04  1.88851E+04 -2.63344E+04  4.11684E+03 -2.14505E+04 -8.85251E+03
 -1.11584E+04 -1.99796E+04  1.93756E+02 -1.59364E+04  5.54436E+03 -8.87337E+03  5.71936E+03 -5.42442E+03
  4.49329E+03 -4.12215E+03  2.67776E+03 -5.01835E+03  4.63331E+03 -4.39009E+03  8.93936E+03 -2.55515E+03
  1.14584E+04  3.12696E+03  5.29861E+03  1.16406E+04 -3.42960E+03  1.23219E+04 -1.24116E+04  8.00296E+03
 -1.37439E+04 -1.56433E+03 -8.76589E+03 -1.00138E+04 -2.87267E+03 -1.45794E+04  8.73986E+03 -1.58694E+04
  1.74412E+04 -8.00831E+03  1.88219E+04  3.78420E+03  1.39710E+04  1.47361E+04  1.36479E+03  1.98281E+04
 -6.80541E+03  1.37424E+04 -1.16414E+04  3.33839E+03 -7.74392E+03 -2.10803E+03 -2.93956E+03 -3.58172E+03
 -1.32519E+03 -1.31400E+02 -3.41241E+03  1.71714E+03 -6.86302E+03  3.42520E+03 -1.02422E+04 -9.64938E+02
 -8.63147E+03 -9.77415E+03 -1.59990E+03 -1.57886E+04  9.43414E+03 -1.30296E+04  1.54091E+04 -5.48640E+03
  1.45667E+04  5.45930E+03  7.20733E+03  1.33590E+04 -2.34332E+03  1.49975E+04 -1.07998E+04  9.47460E+03
 -1.30661E+04  3.40338E+02 -1.10077E+04 -9.99949E+03 -1.13152E+03 -1.20876E+04  6.18472E+03 -1.06289E+04
  9.24038E+03 -1.72741E+03  6.30362E+03  3.36024E+03  2.12440E+03  5.56783E+03  1.52583E+03  2.42125E+03
  2.28059E+03  1.56321E+03  2.48229E+03  1.15278E+03  5.51385E+03  6.18979E+03  3.63546E+03  9.83803E+03
 -2.64565E+03  1.27829E+04 -1.07501E+04  1.32268E+04 -1.68570E+04  3.51891E+03 -1.64612E+04 -7.20038E+03
 -8.09428E+03 -1.50697E+04  2.57079E+03 -1.71900E+04  1.11933E+04 -1.09576E+04  1.24048E+04 -3.90947E+03
  1.10817E+04  7.33871E+03  3.03837E+03  8.65133E+03 -5.68996E+03  6.46111E+03 -6.25171E+03  7.80234E+01
 -9.28204E+02 -7.89743E+03  3.13583E+03 -8.06013E+03  5.58301E+03 -2.70516E+03  6.64519E+03  1.60370E+03
  4.18915E+03  4.68867E+03  2.81047E+02  2.30229E+03 -2.03664E+03  2.98947E+03  2.75319E+03 -9.17321E+02
  2.97646E+03 -7.66795E+02  5.55541E+03  3.07592E+03  4.66556E+03  9.03695E+03 -6.74542E+02  1.14821E+04
 -8.11257E+03  6.38850E+03 -1.10783E+04  2.37615E+03 -8.37593E+03 -3.35261E+03 -2.97219E+03 -7.03899E+03
  1.39179E+03 -6.61599E+03  3.02126E+03 -3.42626E+03  3.00121E+03  3.86301E+03 -2.24697E+03  5.26267E+03
 -4.93498E+03  3.65401E+03 -8.68624E+03 -4.72729E+03 -4.62012E+03 -9.75833E+03  8.95956E+02 -1.00745E+04
  4.82054E+03 -3.75816E+03  6.93946E+03 -5.33124E+02  6.41445E+03  2.16019E+03  3.99163E+02  6.51914E+03
 -4.32599E+03  3.30087E+03 -2.46401E+03 -7.54967E+02  1.27679E+03 -6.16362E+03  8.99596E+03 -6.24015E+03
  9.57104E+03 -5.92692E+01  8.46974E+03  7.78567E+03  2.79336E+03  1.28464E+04 -4.42099E+03  9.54285E+03
 -8.64209E+03  4.78690E+03 -8.15456E+03 -6.09958E+02 -5.00998E+03 -7.93958E+03  1.19770E+03 -5.58437E+03
  6.34065E+03 -1.87445E+03  6.43505E+03  5.16354E+03  1.67127E+03  5.71971E+03 -1.34656E+03  5.07484E+03
 -2.44109E+03  4.34328E+03 -2.54486E+03  1.81276E+03 -1.84639E+03  8.84682E+02 -1.14127E+03  2.14431E+03
 -2.16455E+03  4.15524E+03 -6.28060E+03  2.69274E+03 -1.02995E+04  1.09797E+03 -1.30906E+04 -6.71843E+03
 -5.30908E+03 -1.43627E+04  2.37981E+03 -1.51125E+04  9.94195E+03 -1.34615E+04  1.50016E+04 -5.14842E+03
  1.47722E+04  3.50886E+03  1.04871E+04  9.74333E+03  2.75969E+02  1.22753E+04 -3.56518E+03  7.20375E+03
 -4.19733E+03  3.22461E+03 -3.14764E+03 -2.24447E+03 -1.47610E+03  5.62233E+02  3.81850E+02 -2.82787E+03
 -1.23154E+03 -1.54747E+03 -1.87743E+03 -3.66078E+02 -1.66012E+03 -3.91368E+03 -3.84368E+02 -4.16481E+03
  4.23890E+03 -3.33350E+03  6.15139E+03  7.71757E+02  7.48711E+03  5.85497E+03  2.18740E+03  1.07647E+04
 -5.49146E+03  1.20568E+04 -1.04983E+04  7.80897E+03 -1.44324E+04 -1.09072E+03 -1.01079E+04 -8.50704E+03
 -3.57194E+03 -1.11767E+04  3.22407E+03 -1.06821E+04  6.95215E+03 -5.64265E+03  6.45082E+03  6.78813E+02
  5.30283E+03  4.55153E+03 -1.04368E+03  4.22942E+03 -2.37541E+03 -6.52812E+01  1.20412E+03 -8.51187E+02
  2.45550E+03 -2.14638E+03  5.08539E+03  1.82842E+03  3.34550E+03  5.35914E+03  5.02335E+01  6.92459E+03
 -5.68636E+03  4.98161E+03 -7.10807E+03  5.85360E+02 -6.27641E+03 -5.62111E+03 -5.14965E+02 -8.84739E+03
  5.40923E+03 -6.70187E+03  8.40073E+03 -1.83686E+03  9.12317E+03  1.16940E+03  3.82613E+03  6.78127E+03
  1.51325E+03  5.98228E+03 -2.29903E+03  6.20729E+03 -5.55502E+03  3.17041E+03 -4.56697E+03  3.27925E+02
 -1.62737E+03  1.14565E+02 -1.55558E+03  7.26946E+01 -4.53755E+03 -1.33246E+02 -4.63680E+03 -2.86419E+02
 -5.96979E+03 -3.78288E+03 -2.09990E+02 -7.08044E+03  4.49538E+03 -6.64732E+03  7.10594E+03 -4.71887E+03
  8.84619E+03 -1.17104E+03  3.51074E+03  5.48545E+03 -1.11577E+03  7.96236E+03 -7.48233E+03  4.67160E+03
