 $NMID ID='MM_0lb_SNR200_12hz_g45_41.RAW', FMTDAT='(8E13.5)'
 TRAMP=1., VOLUME=1. $END
  3.09393E+05  4.65972E+01  3.37704E+05  2.49856E+05  8.45423E+04  3.37013E+05 -1.32917E+05  2.51500E+05
 -1.90572E+05  8.35212E+04 -1.11317E+05 -3.12179E+04  1.43010E+03 -5.00718E+04  5.49923E+04  6.58245E+02
  3.63440E+04  5.38881E+04 -1.57681E+04  7.57424E+04 -6.07857E+04  6.37183E+04 -8.33712E+04  3.20030E+04
 -8.09623E+04 -1.07157E+04 -5.91365E+04 -5.18540E+04 -1.50917E+04 -6.90194E+04  2.66713E+04 -4.58474E+04
  4.15818E+04  3.20531E+03  1.58423E+04  4.84761E+04 -3.39620E+04  4.78367E+04 -6.68261E+04  6.04955E+02
 -5.41347E+04 -5.69207E+04 -6.92248E+03 -7.74147E+04  3.55730E+04 -5.51296E+04  4.75479E+04 -1.83045E+04
  4.40312E+04  1.11481E+04  3.23761E+04  2.63348E+04  1.54417E+04  2.95247E+04 -4.91980E+03  2.69763E+04
 -2.18953E+04  1.18003E+04 -1.83444E+04 -6.24792E+03  5.73577E+03 -7.38520E+03  2.36087E+04  1.31650E+04
  6.48276E+03  3.75889E+04 -3.25400E+04  3.58696E+04 -6.23130E+04  1.43684E+03 -5.65539E+04 -4.44781E+04
 -1.24420E+04 -6.33999E+04  3.98294E+04 -4.70425E+04  5.94056E+04 -3.47449E+03  3.44449E+04  3.31524E+04
 -6.37861E+03  3.64998E+04 -3.12722E+04  1.73826E+04 -3.11765E+04 -5.38794E+03 -1.77460E+04 -1.06042E+04
 -8.27818E+03 -1.55945E+04 -1.97668E+03 -1.93135E+04  8.03305E+03 -2.04196E+04  1.45775E+04 -1.30837E+04
  1.12063E+04  5.89513E+03 -6.17673E+03  1.29113E+04 -2.30646E+04 -5.30991E+03 -7.83941E+03 -3.45575E+04
  2.26408E+04 -4.54654E+04  4.82249E+04 -2.01555E+04  4.62529E+04  1.98666E+04  1.74864E+04  4.59362E+04
 -1.52833E+04  3.42974E+04 -2.70702E+04  1.10420E+03 -1.06268E+04 -2.87803E+04  2.22202E+04 -3.43047E+04
  4.04508E+04 -1.03877E+04  3.69428E+04  2.41926E+04  1.90129E+04  4.85035E+04 -7.20685E+03  5.11714E+04
 -3.31975E+04  3.59689E+04 -4.42324E+04  1.04538E+04 -4.36420E+04 -1.67836E+04 -2.30698E+04 -3.90352E+04
  8.02169E+03 -3.84883E+04  3.26350E+04 -1.54437E+04  2.98172E+04  1.16182E+04  4.73127E+03  2.10894E+04
 -1.27551E+04  9.90436E+03 -1.20420E+04 -8.04643E+03  5.47743E+03 -1.12032E+04  1.78994E+04  7.04790E+03
  1.28456E+04  2.29069E+04 -4.29063E+03  2.42140E+04 -2.29254E+04  1.15976E+04 -2.94427E+04 -5.11287E+03
 -2.24015E+04 -1.82306E+04 -9.20777E+03 -2.29307E+04  4.21878E+03 -1.97721E+04  1.64456E+04 -2.04669E+04
  2.81333E+04 -1.30784E+04  3.29041E+04  2.86344E+03  2.55361E+04  1.99649E+04  3.13084E+03  3.72884E+04
 -1.84815E+04  3.15697E+04 -2.96421E+04  9.97344E+03 -2.14172E+04 -1.10896E+04 -4.41263E+03 -1.33597E+04
  1.62165E+03 -1.80240E+03 -5.22388E+03  6.43836E+03 -1.68716E+04  5.21885E+03 -1.73940E+04 -8.89459E+03
 -1.06280E+04 -1.99428E+04  5.71673E+03 -2.45759E+04  1.65250E+04 -1.75157E+04  2.12229E+04 -1.79138E+03
  1.19594E+04  1.42403E+04 -1.33651E+03  2.07353E+04 -1.37835E+04  1.18825E+04 -1.80812E+04 -4.41758E+03
 -1.48409E+04 -1.83131E+04 -1.39508E+03 -2.67383E+04  1.13901E+04 -2.17584E+04  2.06792E+04 -1.04387E+04
  1.89179E+04  5.39755E+02  1.43585E+04  2.99312E+03  6.31864E+03  9.72258E+02  9.79155E+03 -1.17341E+03
  1.82345E+04  2.54250E+03  2.17368E+04  1.67913E+04  1.50730E+04  3.29848E+04 -2.02208E+03  3.65145E+04
 -2.20786E+04  2.99105E+04 -3.41995E+04  1.48120E+04 -3.70229E+04 -2.33659E+03 -3.01939E+04 -2.18709E+04
 -1.24414E+04 -2.99996E+04  1.05169E+04 -2.64822E+04  2.38575E+04 -1.45494E+04  1.92201E+04  5.71332E+03
  7.47002E+03  1.42323E+04 -1.09534E+04  1.32555E+04 -1.73803E+04  1.61660E+03 -1.35989E+04 -1.07486E+04
  5.74486E+00 -1.62683E+04  9.25004E+03 -1.27442E+04  1.17177E+04 -1.58814E+03  2.32691E+03  6.90922E+03
 -7.86379E+03  3.69892E+03 -6.15683E+03 -5.53231E+03  8.28801E+02 -1.66065E+04  1.12217E+04 -1.57851E+04
  1.83225E+04 -8.51809E+03  2.02211E+04  3.47391E+03  1.80828E+04  1.49938E+04  8.67245E+03  2.26598E+04
 -3.24229E+03  2.51322E+04 -1.51478E+04  1.55631E+04 -1.80108E+04  2.14441E+03 -1.21529E+04 -3.79007E+03
 -7.33058E+03 -5.33505E+03 -8.15902E+02  1.00631E+03 -1.85676E+03  4.08496E+03 -5.86990E+03  4.99865E+03
 -1.22118E+04  3.64635E+02 -1.08138E+04 -1.07552E+04 -5.23216E+03 -1.61306E+04  6.56704E+03 -1.40295E+04
  1.12945E+04 -6.57045E+03  7.64197E+03  2.41121E+03  3.46369E+02  5.69653E+03 -5.99461E+03 -2.60364E+01
 -6.01350E+03 -7.43972E+03 -1.85432E+03 -1.29960E+04  8.25574E+03 -1.27086E+04  1.56666E+04 -6.45052E+03
  1.79412E+04  1.64271E+03  1.42099E+04  1.02614E+04  1.45601E+03  1.35458E+04 -7.02459E+03  1.26945E+04
 -9.46568E+03  3.28485E+03 -5.76325E+03 -3.67195E+03  9.23880E+02 -3.55919E+03  8.07608E+03  5.81154E+02
  6.16409E+03  5.72663E+03  2.21442E+03  1.12256E+04 -7.64625E+03  9.03416E+03 -1.22327E+04  2.18451E+03
 -8.69159E+03 -5.74787E+03 -6.62788E+02 -9.74131E+03  5.79630E+03 -5.71409E+03  6.82026E+03  2.47055E+03
  7.01417E+02  6.99601E+03 -6.58655E+03  7.99454E+03 -1.04105E+04  3.98269E+03 -8.98124E+03 -4.27743E+03
 -6.60305E+03 -1.22228E+04  2.39662E+03 -1.36020E+04  1.18805E+04 -8.60510E+03  1.31259E+04  1.78385E+03
  8.54540E+03  9.24987E+03 -8.58412E+02  1.22369E+04 -9.66421E+03  6.63862E+03 -9.69349E+03 -9.29748E+02
 -9.20523E+03 -8.86567E+03 -1.54291E+03 -9.16211E+03  5.13233E+03 -5.54268E+03  4.79925E+03 -3.08927E+03
  4.12891E+03  1.53572E+03 -3.84177E+02  1.21527E+03 -3.38436E+02 -2.16699E+03  1.41952E+03 -4.84483E+03
  7.82513E+03 -3.20868E+03  1.05918E+04  1.28677E+03  1.13377E+04  6.92490E+03  8.92510E+03  1.49677E+04
 -2.84238E+03  1.86211E+04 -1.44782E+04  1.32644E+04 -1.82340E+04  1.51210E+03 -1.54663E+04 -6.90274E+03
 -7.11188E+03 -1.30604E+04 -1.53554E+03 -9.00393E+03  4.00103E+03 -6.93399E+03  3.82077E+03 -3.70399E+03
  3.22724E+03 -2.86749E+03  3.84779E+03 -2.85909E+03  4.74653E+03 -1.50520E+03  5.71675E+03 -8.80079E+02
  8.83253E+03  1.89532E+03  4.54581E+03  6.54619E+03 -7.68237E+02  6.88413E+03 -6.36541E+03  5.98227E+03
 -1.03587E+04 -1.06827E+03 -5.61341E+03 -7.40745E+03 -1.10920E+03 -1.16401E+04  5.32065E+03 -1.06538E+04
  1.06490E+04 -5.61060E+03  1.46611E+04  1.28803E+03  8.34800E+03  8.46299E+03  1.47909E+03  1.32053E+04
 -5.63539E+03  1.15794E+04 -6.63216E+03  4.02694E+03 -4.28346E+03 -2.31515E+03 -2.38492E+03 -2.24291E+03
 -9.74402E+02 -6.18273E+02 -1.66107E+03  3.18766E+03 -5.03144E+03  2.97648E+03 -8.50834E+03 -4.26654E+01
 -4.58775E+03 -8.13559E+03  1.43189E+03 -9.60521E+03  6.86327E+03 -9.87830E+03  9.80862E+03 -2.51786E+03
  1.03952E+04  5.51552E+03  4.61414E+03  8.95466E+03 -1.28967E+03  9.77007E+03 -7.80109E+03  6.19940E+03
 -9.76962E+03  5.21117E+02 -7.28153E+03 -5.20484E+03 -8.57270E+02 -8.22115E+03  3.18047E+03 -6.40327E+03
  6.20834E+03 -3.13863E+03  3.92065E+03  2.24396E+03  1.06830E+03  2.81911E+03 -3.13522E+02  6.96762E+02
  2.31661E+03 -3.11921E+02  2.51176E+03  3.25987E+02  2.47741E+03  4.53795E+03  3.28226E+03  4.95146E+03
 -3.32542E+03  7.43557E+03 -6.28664E+03  8.14983E+03 -9.59973E+03  2.19972E+03 -1.06750E+04 -3.19411E+03
 -5.21874E+03 -9.52444E+03  2.01707E+03 -1.00628E+04  5.37333E+03 -6.90419E+03  7.58492E+03 -1.65705E+03
  6.23485E+03  3.07733E+03  1.43644E+03  5.86383E+03 -2.05212E+03  4.87311E+03 -4.92090E+03 -4.44745E+02
 -1.35209E+03 -4.42180E+03  2.76404E+03 -4.56402E+03  3.57109E+03 -5.94960E+02  2.81725E+03  2.98207E+02
  2.41865E+03  1.46217E+03  2.30674E+03  2.07238E+02  1.24930E+03  5.90180E+02  2.67563E+03 -7.51876E+02
  6.01998E+02 -1.70553E+02  4.41336E+03  1.90374E+03  1.90483E+03  5.82026E+03 -8.46899E+02  7.54598E+03
 -3.69873E+03  4.42052E+03 -5.57759E+03  1.29711E+03 -5.62395E+03 -2.96258E+03 -2.52171E+03 -3.46797E+03
  1.02541E+03 -2.99385E+03  2.46679E+03 -2.12687E+03  1.00561E+03  2.12698E+03 -1.48540E+03  2.52726E+03
 -4.60370E+03  1.83058E+03 -4.58231E+03 -2.86619E+03 -1.51406E+03 -4.97875E+03 -5.80032E+02 -4.76167E+03
  3.11883E+03 -1.83204E+03  2.84404E+03  1.62484E+02  3.19101E+03  2.87149E+03  9.62258E+02  3.88454E+03
 -2.58868E+03 -9.63899E+01 -2.32299E+03 -1.41973E+03  7.51959E+02 -3.20351E+03  4.69847E+03 -2.66664E+03
  4.86198E+03  8.41424E+02  6.75642E+03  3.58287E+03  2.87941E+03  6.09728E+03 -1.68652E+03  6.83026E+03
 -3.87004E+03  1.44565E+03 -5.15007E+03 -5.64081E+02 -1.94137E+03 -3.57017E+03  9.18089E+02 -4.06627E+03
  2.71610E+03 -2.10575E+03  3.78331E+03  2.55271E+03  7.06223E+02  1.81535E+03 -8.47389E+02  3.25533E+03
 -1.30595E+03  2.59997E+03 -1.58795E+02  1.01026E+03 -6.71715E+02  1.01753E+03 -2.01711E+03  1.39009E+03
 -1.05195E+03  2.09283E+03 -4.83236E+03  2.83835E+03 -5.23286E+03  9.00555E+01 -7.81268E+03 -3.61909E+03
 -3.58586E+03 -7.09880E+03  1.41967E+03 -1.03495E+04  6.20211E+03 -6.48674E+03  7.03670E+03 -2.34592E+03
  8.10890E+03  2.96846E+03  3.89288E+03  6.24829E+03 -1.40613E+03  6.34384E+03 -2.34484E+03  3.83822E+03
 -3.36718E+03  1.71589E+03 -3.17499E+03 -9.91779E+02 -4.18208E+02 -8.03794E+02 -6.75745E+02 -2.86105E+02
 -5.39489E+02  2.06657E+02 -2.12789E+03 -1.04804E+03  1.44386E+02 -2.34547E+03 -6.66296E+02 -2.10605E+03
  2.06694E+03 -3.69195E+03  2.74137E+03 -6.55263E+02  3.47574E+03  2.41192E+03  9.16305E+02  7.40050E+03
 -3.08808E+03  7.86975E+03 -7.34710E+03  4.83617E+03 -7.91535E+03  6.86904E+02 -5.45374E+03 -4.50258E+03
 -1.96748E+03 -4.79486E+03  1.75496E+03 -5.62432E+03  3.80924E+03 -3.53183E+03  3.51022E+03 -1.25843E+01
  1.70370E+03  1.74472E+02  2.06515E+02  6.35487E+02 -1.62535E+03 -2.48029E+02  6.11909E+02 -1.81517E+03
  1.62555E+03 -1.83261E+03  3.09578E+03 -6.07654E+02  1.37528E+03  3.13895E+03  8.78623E+02  2.16755E+03
 -2.71683E+03  2.57805E+03 -4.19555E+03  4.33622E+02 -3.99570E+03 -2.22579E+03 -1.02332E+03 -5.56422E+03
  2.18842E+03 -3.49374E+03  3.89751E+03 -1.47303E+03  5.33138E+03  1.38077E+03  2.81630E+03  3.46442E+03
  1.82436E+03  3.76771E+03 -1.09643E+03  2.14774E+03 -1.73064E+03  1.00613E+03 -2.70874E+03 -5.78981E+02
  5.41816E+02  8.97113E+02 -1.39962E+03 -1.41017E+02 -1.02726E+03  8.03574E+02 -3.50264E+03  8.37877E+02
 -2.73122E+03 -1.10813E+03 -2.63043E+03 -3.37521E+03  1.88834E+03 -3.53580E+03  1.58827E+03 -1.74359E+03
  3.67885E+03  1.33796E+03  2.81837E+03  2.48969E+03 -6.34291E+02  2.72597E+03 -3.81966E+03  1.61111E+03
