 $NMID ID='MM_0lb_SNR200_20hz_g55_6.RAW', FMTDAT='(8E13.5)'
 TRAMP=1., VOLUME=1. $END
  3.09681E+05 -8.65043E+02  3.36894E+05  2.49891E+05  8.55821E+04  3.37195E+05 -1.32430E+05  2.49936E+05
 -1.88825E+05  8.33853E+04 -1.11651E+05 -3.23855E+04  1.05188E+03 -5.06864E+04  5.33828E+04  4.32286E+02
  3.51336E+04  5.27395E+04 -1.58987E+04  7.38586E+04 -6.09986E+04  6.32535E+04 -8.27316E+04  3.18083E+04
 -7.96401E+04 -1.12526E+04 -5.73164E+04 -5.04998E+04 -1.45582E+04 -6.86128E+04  2.67074E+04 -4.42672E+04
  3.97227E+04  4.50699E+03  1.64452E+04  4.69928E+04 -3.43282E+04  4.68269E+04 -6.51009E+04 -1.49465E+03
 -5.17075E+04 -5.59491E+04 -6.47666E+03 -7.59492E+04  3.29031E+04 -5.34936E+04  4.70729E+04 -1.70614E+04
  4.26113E+04  1.19962E+04  3.11751E+04  2.50539E+04  1.50459E+04  2.86005E+04 -5.40033E+03  2.73981E+04
 -2.12768E+04  1.28786E+04 -1.99081E+04 -4.64052E+03  4.01114E+03 -8.03020E+03  2.13904E+04  9.85034E+03
  8.02783E+03  3.39519E+04 -3.15884E+04  3.35734E+04 -6.19155E+04  2.26670E+03 -5.50639E+04 -4.05379E+04
 -1.17709E+04 -6.15673E+04  3.79289E+04 -4.43182E+04  5.61410E+04 -1.73698E+03  3.25001E+04  2.99338E+04
 -5.69401E+03  3.35112E+04 -2.90496E+04  1.34305E+04 -2.79884E+04 -5.00062E+03 -1.43884E+04 -1.04877E+04
 -7.32899E+03 -1.16445E+04 -7.86712E+02 -1.60013E+04  5.89400E+03 -2.29145E+04  1.55553E+04 -1.32269E+04
  1.25191E+04  4.51903E+03 -6.16632E+03  1.32716E+04 -1.95255E+04 -3.11615E+03 -7.85397E+03 -3.00326E+04
  1.98469E+04 -4.09219E+04  4.42628E+04 -1.77430E+04  4.18320E+04  1.80068E+04  1.48529E+04  4.12973E+04
 -1.49597E+04  3.04525E+04 -2.31808E+04  1.25763E+03 -9.19131E+03 -2.63189E+04  2.05278E+04 -3.04881E+04
  3.81559E+04 -7.36844E+03  3.15773E+04  2.28325E+04  1.56334E+04  4.18688E+04 -8.40689E+03  4.53569E+04
 -2.92471E+04  3.04336E+04 -3.73072E+04  8.09749E+03 -3.79445E+04 -1.57211E+04 -2.19446E+04 -3.53216E+04
  8.18318E+03 -3.37831E+04  2.88110E+04 -1.27151E+04  2.65892E+04  9.36892E+03  3.37061E+03  1.66168E+04
 -1.19792E+04  6.31286E+03 -1.00983E+04 -8.07533E+03  5.14443E+03 -9.90536E+03  1.71155E+04  6.93331E+03
  1.15822E+04  2.26161E+04 -6.54333E+03  2.28118E+04 -2.09421E+04  9.87883E+03 -2.50214E+04 -6.34856E+03
 -1.74574E+04 -1.65737E+04 -5.52178E+03 -1.65386E+04  3.90963E+03 -1.43583E+04  1.24034E+04 -1.48971E+04
  2.17418E+04 -1.26938E+04  2.83856E+04  5.76121E+02  1.99108E+04  1.65191E+04  4.37976E+03  3.20440E+04
 -1.62792E+04  2.74337E+04 -2.49982E+04  9.53961E+03 -1.88461E+04 -1.09075E+04 -4.18437E+03 -1.40777E+04
  2.15963E+03 -3.68895E+03 -2.77273E+03  5.39659E+03 -1.31604E+04  4.88280E+03 -1.28505E+04 -4.81522E+03
 -9.01850E+03 -1.52244E+04  4.74289E+03 -1.85844E+04  1.09694E+04 -1.32952E+04  1.51185E+04 -9.75938E+02
  1.00475E+04  1.16646E+04 -1.57341E+03  1.62519E+04 -1.03100E+04  8.01317E+03 -1.43346E+04 -2.66161E+03
 -1.12762E+04 -1.48878E+04 -1.89856E+03 -1.86619E+04  8.64017E+03 -1.54067E+04  1.65996E+04 -7.97114E+03
  1.42986E+04  9.29317E+02  1.19038E+04  3.96401E+03  4.22605E+03  3.64309E+02  7.60024E+03 -1.63410E+03
  1.38341E+04  3.62422E+03  1.47650E+04  1.23869E+04  8.70285E+03  2.43528E+04 -3.09354E+03  2.65488E+04
 -1.61579E+04  1.94788E+04 -2.31870E+04  9.33260E+03 -2.45114E+04 -2.48341E+03 -2.07992E+04 -1.42605E+04
 -1.02573E+04 -1.97373E+04  5.98318E+03 -1.83438E+04  1.57459E+04 -1.05884E+04  1.52422E+04  2.83277E+03
  5.52939E+03  1.07055E+04 -6.62573E+03  9.93078E+03 -1.32108E+04  4.04475E+03 -1.03904E+04 -8.07326E+03
 -4.06219E+02 -1.17190E+04  5.44139E+03 -9.78025E+03  8.42221E+03 -3.77248E+02  1.37111E+03  5.21308E+03
 -5.11099E+03  1.81691E+03 -2.42413E+03 -3.61377E+03  7.43483E+02 -1.01518E+04  7.12739E+03 -9.93374E+03
  1.05585E+04 -4.26137E+03  1.17933E+04  1.94139E+03  9.54588E+03  9.59286E+03  5.10031E+03  1.31514E+04
 -1.61604E+03  1.56884E+04 -9.65763E+03  8.53289E+03 -1.05003E+04  2.39706E+03 -8.10117E+03 -1.28428E+03
 -4.79024E+03 -3.78918E+03 -4.62094E+02  1.73823E+03 -1.08095E+03  1.45958E+03 -2.76787E+03  2.89774E+03
 -7.11758E+03 -1.16431E+03 -8.18512E+03 -7.48720E+03 -2.92503E+03 -1.02639E+04  3.96827E+03 -7.81961E+03
  6.40970E+03 -3.79298E+03  5.30115E+03  2.01945E+03  1.56068E+03  1.67487E+03 -3.69294E+03  6.11245E+02
 -3.32255E+03 -4.70763E+03 -1.54701E+02 -7.19907E+03  3.89186E+03 -7.29425E+03  9.59056E+03 -4.22647E+03
  1.11873E+04  1.81294E+02  7.04868E+03  6.35924E+03  1.79021E+03  7.86904E+03 -5.07477E+03  7.78712E+03
 -7.00018E+03  3.11235E+03 -3.26416E+03 -7.48392E+02  6.00243E+02 -1.04181E+03  4.18471E+03 -1.12622E+02
  3.91723E+03  3.67349E+03  5.06552E+02  5.51427E+03 -4.30883E+03  6.07073E+03 -7.62772E+03  2.49049E+03
 -4.18082E+03 -3.19669E+03 -3.52149E+02 -6.08950E+03  3.41358E+03 -4.07284E+03  3.35746E+03  1.30692E+03
 -1.93116E+02  1.62262E+03 -3.82961E+03  4.73274E+03 -3.96039E+03  2.07456E+03 -3.46280E+03 -4.51436E+02
 -1.40958E+03 -5.76790E+03  1.30570E+03 -6.29494E+03  6.70386E+03 -4.57719E+03  6.19074E+03  1.06365E+03
  4.21969E+03  5.27882E+03  5.53591E+02  6.91372E+03 -3.66710E+03  3.25748E+03 -4.40292E+03 -9.34611E+02
 -4.86426E+03 -4.21547E+03 -1.71805E+03 -3.61790E+03  1.85555E+03 -4.76755E+03  1.20075E+03 -2.53502E+03
  3.05445E+03  1.45009E+03 -1.84484E+02  1.40330E+03  3.77371E+02 -1.60586E+03 -1.11509E+03 -4.36349E+02
  2.94714E+03  3.59903E+02  4.85271E+03 -1.03915E+02  5.27059E+03  3.52077E+03  5.27934E+03  6.63196E+03
 -1.30673E+03  6.90542E+03 -6.43319E+03  6.85557E+03 -8.21850E+03  6.05834E+02 -7.61294E+03 -2.73889E+03
 -3.46002E+03 -5.12104E+03  2.39794E+02 -4.53268E+03  1.58324E+03 -3.01391E+03  1.16669E+03 -3.17518E+03
  6.37164E+01  4.03755E+01  1.81258E+03 -2.37142E+03  3.59649E+03 -5.46154E+02  4.17467E+03  9.81138E+02
  4.50604E+03  2.63769E+00  9.08540E+02  2.79002E+03 -2.13636E+03  2.45326E+03 -3.33581E+03  1.37080E+03
 -4.05493E+03 -1.99465E+03 -2.97421E+03 -2.80202E+03 -8.00795E+02 -4.12381E+03  3.64428E+03 -4.46411E+03
  4.33814E+03 -3.63095E+03  4.52984E+03  7.42784E+02  5.31866E+03  4.14812E+03  1.47343E+03  5.34822E+03
 -2.50783E+03  5.48541E+03 -2.75814E+03  1.92489E+03 -2.47641E+03 -2.99360E+02 -6.96264E+02 -3.22012E+02
  7.11414E+02 -3.34734E+02 -8.75741E+02  1.64994E+03 -3.53116E+03  2.09463E+03 -2.42102E+03 -1.06216E+03
 -3.93148E+02 -3.57320E+03  1.92772E+03 -3.29426E+03  2.96197E+03 -4.18293E+03  2.68144E+03 -7.62732E+02
  4.33899E+03  2.57476E+03  1.02902E+03  2.24820E+03 -1.60839E+03  4.67464E+03 -1.82378E+03  2.35052E+03
 -2.35644E+03  7.79754E+02 -2.13892E+03 -2.54667E+03  4.30859E+01 -1.81340E+03  4.49703E+02 -1.67511E+03
  2.32884E+03 -1.23489E+03  1.81673E+03 -2.12478E+02 -1.54043E+01  1.56842E+03  7.58506E+02  1.71222E+02
  2.44080E+03 -2.25944E+02  8.64586E+02  1.05006E+03  1.52106E+03  2.07954E+03  1.40348E+03  2.13816E+03
 -1.51018E+03  2.35591E+03 -3.88456E+02  3.75520E+03 -2.96697E+03  1.39071E+03 -2.97160E+03 -1.22217E+02
 -5.90821E+02 -4.11084E+03  1.04789E+03 -2.61076E+03  1.55745E+03 -3.16406E+03  2.74961E+03 -9.85243E+02
  1.83583E+03  1.85572E+03  1.23910E+02  1.25925E+03 -9.07652E+02  1.45489E+03 -8.52978E+02  4.28949E+00
 -1.97232E+03 -1.60145E+03  6.09515E+02 -1.56656E+03  4.61686E+02 -6.69394E+02  9.43236E+02 -7.75847E+02
  9.24667E+02 -2.17015E+02  9.80497E+02 -1.13797E+02 -1.26012E+03  6.61476E+02  1.77671E+03  6.65078E+01
 -5.49565E+01 -4.65901E+02  1.74308E+03 -4.25424E+02  1.07015E+03  2.53444E+03  4.21064E+02  2.38730E+03
 -6.97056E+02  1.17361E+03 -8.97251E+02 -1.28965E+03 -1.17187E+03 -4.62010E+02  1.03286E+03 -5.17700E+02
  1.22025E+03 -1.26865E+03  8.94189E+02 -1.26411E+03  6.50951E+02  1.69949E+03 -3.10750E+02  1.00544E+03
 -1.46026E+03  5.25902E+02 -1.43096E+03 -1.31550E+03 -7.10126E+02 -1.66165E+03  2.92704E+02 -2.57180E+02
  1.01190E+03 -6.94451E+02 -2.77867E+02  3.82921E+02  1.03298E+03 -7.50111E+02  1.27432E+03  2.22944E+02
 -1.18807E+03 -8.00610E+00 -8.76269E+02  4.70417E+02  1.16602E+03 -2.61246E+02  6.84420E+02 -9.95088E+02
  2.82666E+02  7.80546E+02  1.77104E+03  6.85900E+02  1.14141E+03  8.96891E+02 -1.91641E+02  1.29605E+03
 -9.76010E+02 -2.84479E+02 -1.31246E+03 -1.47843E+03 -2.63493E+02 -1.97201E+02  8.11979E+02 -1.05778E+03
  1.23956E+03 -3.54307E+02  1.28009E+03  6.58072E+02  3.95039E+02  1.55325E+03 -4.36135E+02  1.32363E+03
 -4.68008E+02  1.33543E+03 -5.18828E+02 -3.50699E+02 -9.77647E+02 -3.78400E+02 -6.22551E+02  7.77173E+01
 -9.71296E+02  2.83964E+02 -2.35563E+03  1.47971E+01 -1.39438E+01 -5.36020E+02 -2.15532E+03  1.20190E+02
 -9.53741E+02 -1.45115E+03 -2.82465E+02 -2.51981E+03  1.06345E+02 -1.10720E+03  2.21150E+03 -5.22107E+02
  3.44316E+03  4.77365E+02  7.58219E+02  8.28860E+02  1.35685E+02  1.04604E+03 -1.28187E+03 -1.46235E+02
 -4.52541E+02  8.94872E+02  1.64745E+02  4.38025E+02 -5.55496E+02  1.75767E+03 -8.07679E+02 -5.45487E+02
 -3.06032E+01  3.12011E+02 -1.18290E+03 -6.65521E+02 -8.99828E+02 -1.03248E+03 -1.40485E+03 -7.90188E+02
  5.60298E+02 -1.23264E+03  5.09388E+02 -1.62205E+02  1.79468E+03  2.30185E+02 -4.11852E+02  8.77586E+02
 -1.54739E+03  1.97795E+03 -1.28634E+03  6.12271E+02 -8.20555E+02  1.61095E+02 -1.17064E+03 -8.37592E+02
 -1.88790E+02 -1.46999E+03 -4.31583E+02 -7.44230E+02 -5.45065E+01  1.10155E+03  8.50746E+02 -1.47524E+01
  1.66989E+03  7.26324E+02 -2.99055E+02  2.52516E+01 -4.53430E+02  7.34309E+02 -3.27981E+02 -9.23283E+00
  7.44745E+02  6.16095E+02 -1.98538E+02  5.18526E+02 -3.89252E+02 -4.43907E+02  5.68517E+02 -7.68237E+01
  8.01770E+02  3.81201E+02 -5.37108E+02  2.23610E+02  2.35530E+02 -5.06307E+02  3.75507E+02 -8.58860E+02
  6.26722E+02 -5.30334E+02 -3.48750E+02  5.11878E+02 -3.85951E+02 -1.05087E+03 -8.10105E+02  9.87540E+02
  4.96516E+02 -8.28399E+01  9.00492E+02  8.07836E+02  1.78202E+02  1.90032E+03 -3.22389E+02 -8.99016E+02
 -2.14348E+02 -5.88386E+02 -1.42050E+03 -2.47384E+02 -7.83648E+02  6.64297E+02 -6.84599E+02  3.24124E+02
 -5.56988E+02 -3.73001E+02  2.67346E+02 -5.14627E+02  1.39536E+03 -3.76189E+01  7.09261E+02  3.35486E+01
  4.01305E+02 -1.47252E+02 -5.66349E+02 -2.34557E+01  4.36161E+02  1.25970E+03 -6.40286E+01  1.26543E+03
