 $NMID ID='MM_0lb_SNR200_19hz_g55_26.RAW', FMTDAT='(8E13.5)'
 TRAMP=1., VOLUME=1. $END
  3.10057E+05  2.40022E+02  3.38135E+05  2.50856E+05  8.45443E+04  3.37628E+05 -1.33003E+05  2.49728E+05
 -1.89369E+05  8.20947E+04 -1.11799E+05 -3.19425E+04  3.03090E+02 -5.06105E+04  5.39466E+04  3.66100E+02
  3.45480E+04  5.30315E+04 -1.69084E+04  7.64472E+04 -6.12026E+04  6.33367E+04 -8.33923E+04  3.20574E+04
 -8.09704E+04 -1.07665E+04 -5.67839E+04 -5.11575E+04 -1.46026E+04 -6.83962E+04  2.63506E+04 -4.40139E+04
  3.89314E+04  3.70950E+03  1.63173E+04  4.71900E+04 -3.39632E+04  4.63339E+04 -6.59211E+04 -1.14776E+03
 -5.15900E+04 -5.57524E+04 -5.88673E+03 -7.62311E+04  3.37463E+04 -5.50278E+04  4.54625E+04 -1.69347E+04
  4.24904E+04  1.11038E+04  3.17140E+04  2.55169E+04  1.60804E+04  2.85225E+04 -4.49344E+03  2.70000E+04
 -2.13394E+04  1.28400E+04 -1.77101E+04 -4.62771E+03  4.57213E+03 -7.11606E+03  2.24012E+04  1.18560E+04
  8.34984E+03  3.38085E+04 -3.14259E+04  3.50356E+04 -6.17047E+04  1.93191E+03 -5.65635E+04 -4.02951E+04
 -1.26585E+04 -6.19213E+04  3.83840E+04 -4.47881E+04  5.63166E+04 -1.80311E+03  3.23973E+04  3.14010E+04
 -6.00568E+03  3.43568E+04 -2.90326E+04  1.50676E+04 -2.87361E+04 -5.39276E+03 -1.32777E+04 -1.02786E+04
 -6.84823E+03 -1.16761E+04 -1.34970E+03 -1.77038E+04  7.00916E+03 -2.20162E+04  1.51582E+04 -1.27937E+04
  1.25108E+04  3.23092E+03 -6.57899E+03  1.29684E+04 -1.98564E+04 -3.07120E+03 -8.24553E+03 -3.19073E+04
  2.14022E+04 -4.11143E+04  4.57655E+04 -1.93038E+04  4.26505E+04  1.77021E+04  1.46469E+04  4.22079E+04
 -1.55556E+04  3.22658E+04 -2.35452E+04  1.30071E+03 -8.36387E+03 -2.71780E+04  1.96164E+04 -3.22004E+04
  3.87260E+04 -8.07170E+03  3.20379E+04  2.29418E+04  1.61650E+04  4.34041E+04 -7.97563E+03  4.62879E+04
 -2.88143E+04  3.07900E+04 -3.84180E+04  9.23551E+03 -3.85664E+04 -1.56314E+04 -2.13902E+04 -3.40879E+04
  7.35796E+03 -3.54200E+04  2.99234E+04 -1.33606E+04  2.66102E+04  1.13843E+04  4.03412E+03  1.83741E+04
 -1.27610E+04  7.65649E+03 -8.69353E+03 -7.42892E+03  6.51732E+03 -1.05787E+04  1.70899E+04  6.47885E+03
  1.17418E+04  2.20290E+04 -5.90944E+03  2.37339E+04 -2.13116E+04  8.77034E+03 -2.49075E+04 -5.60387E+03
 -1.78422E+04 -1.79082E+04 -5.70358E+03 -1.71049E+04  4.42451E+03 -1.50713E+04  1.32285E+04 -1.47335E+04
  2.18178E+04 -1.12716E+04  2.97632E+04  1.74590E+03  2.08720E+04  1.64106E+04  4.51413E+03  3.35978E+04
 -1.70865E+04  2.75845E+04 -2.52953E+04  8.58965E+03 -1.95406E+04 -1.02865E+04 -4.26280E+03 -1.54475E+04
  2.07941E+03 -3.76195E+03 -2.75876E+03  5.03871E+03 -1.31885E+04  4.99819E+03 -1.32125E+04 -5.45741E+03
 -8.26963E+03 -1.58325E+04  3.59858E+03 -2.06185E+04  1.30335E+04 -1.33919E+04  1.47684E+04 -2.36030E+03
  1.03763E+04  1.08327E+04 -1.46293E+03  1.62095E+04 -9.70088E+03  9.43866E+03 -1.55865E+04 -4.03607E+03
 -1.21130E+04 -1.38493E+04 -1.89265E+03 -1.95661E+04  8.64435E+03 -1.71110E+04  1.57200E+04 -6.93467E+03
  1.51461E+04  1.00682E+03  1.07474E+04  3.79850E+03  5.58766E+03 -3.23331E+02  7.45911E+03 -1.41366E+03
  1.33786E+04  3.04864E+03  1.53749E+04  1.37481E+04  9.87953E+03  2.56535E+04 -3.57129E+03  2.76111E+04
 -1.60497E+04  2.05372E+04 -2.60206E+04  1.02409E+04 -2.52422E+04 -2.77181E+03 -2.21826E+04 -1.51984E+04
 -9.65608E+03 -2.09159E+04  6.42243E+03 -2.03800E+04  1.63881E+04 -1.02904E+04  1.50776E+04  3.29135E+03
  6.59411E+03  1.08508E+04 -6.54126E+03  1.10269E+04 -1.40778E+04  1.47634E+03 -1.16481E+04 -8.16201E+03
  9.32511E+02 -1.36239E+04  6.61873E+03 -9.25995E+03  7.63880E+03 -1.51485E+03  1.70220E+03  4.84701E+03
 -6.48873E+03  9.40368E+02 -3.33550E+03 -5.75273E+03  1.00935E+03 -1.14036E+04  8.09108E+03 -1.00556E+04
  1.23757E+04 -5.17633E+03  1.20428E+04  2.79326E+03  1.07158E+04  8.64627E+03  4.64288E+03  1.56616E+04
 -1.75123E+03  1.57115E+04 -1.00417E+04  1.03584E+04 -1.04967E+04  2.65370E+03 -8.85003E+03 -1.18532E+03
 -5.13520E+03 -3.46954E+03 -5.88004E+02  1.47864E+03 -2.35107E+03  2.00139E+03 -3.54316E+03  3.17413E+03
 -6.97394E+03  1.20733E+02 -9.84620E+03 -6.90679E+03 -2.92895E+03 -1.20956E+04  3.03807E+03 -8.65230E+03
  7.70630E+03 -4.10943E+03  5.46960E+03  2.06945E+03  2.25483E+02  3.29072E+03 -3.48685E+03 -1.53368E+02
 -3.95747E+03 -6.32020E+03 -1.87842E+03 -8.04775E+03  3.82411E+03 -7.57344E+03  1.00283E+04 -4.11186E+03
  1.21718E+04  1.01238E+03  9.34492E+03  5.45001E+03  1.52051E+03  7.79659E+03 -5.16048E+03  7.54622E+03
 -6.13086E+03  2.74687E+03 -4.27926E+03 -1.20552E+03  1.27443E+03 -2.06692E+03  4.71304E+03 -4.04030E+02
  4.94168E+03  4.00480E+03  2.24847E+03  6.98601E+03 -3.61917E+03  6.49123E+03 -7.67389E+03  1.98412E+03
 -5.30176E+03 -4.06695E+03  7.33257E+02 -7.34578E+03  3.37553E+03 -3.06459E+03  3.79797E+03  4.06187E+02
  8.53235E+01  2.74084E+03 -3.98981E+03  4.21267E+03 -5.38133E+03  2.80026E+03 -3.71350E+03  5.52204E+02
 -3.09800E+03 -6.71273E+03  2.64478E+03 -6.22362E+03  5.74246E+03 -4.48456E+03  7.40183E+03  1.20035E+03
  4.36780E+03  5.48693E+03 -2.01031E+02  7.51007E+03 -3.72778E+03  3.73467E+03 -3.90238E+03  5.40855E+02
 -5.47159E+03 -4.28137E+03 -1.83666E+03 -4.56355E+03  3.10074E+03 -4.83599E+03  3.00856E+03 -3.91868E+03
  3.14803E+03  4.98582E+02 -1.58823E+02  1.41214E+03  5.50835E+02 -8.43777E+02  9.74011E+01 -1.07554E+03
  3.48207E+03 -1.27962E+03  5.29391E+03  1.73801E+03  4.40348E+03  4.16269E+03  6.14658E+03  6.73450E+03
 -1.14204E+03  8.69212E+03 -7.98477E+03  6.67608E+03 -9.58172E+03  4.44157E+02 -7.50239E+03 -2.54164E+03
 -3.47774E+03 -5.89897E+03 -5.83200E+02 -5.35904E+03  1.87208E+03 -3.43116E+03  1.85756E+03 -2.25954E+03
  1.17995E+03 -2.19004E+03  2.10288E+03 -2.21402E+03  3.73129E+03 -1.44599E+03  3.71892E+03  1.31309E+02
  3.88565E+03  1.06823E+03  4.61704E+02  4.55040E+03 -1.57996E+03  3.15920E+03 -4.54954E+03  3.45196E+03
 -5.26634E+03 -9.66689E+02 -2.56379E+03 -2.64865E+03  5.13408E+02 -4.41190E+03  3.79641E+03 -4.78029E+03
  5.07977E+03 -2.90480E+03  6.44762E+03  1.31229E+02  4.65635E+03  3.22708E+03  5.55159E+02  5.84461E+03
 -2.19945E+03  6.47339E+03 -4.08479E+03  1.81487E+03 -1.23972E+03 -1.41930E+02 -3.07269E+02 -1.70263E+03
 -5.72631E+02  4.69947E+02 -2.80061E+02  1.50320E+03 -2.25983E+03  1.17155E+03 -4.02912E+03 -1.86574E+02
 -1.40743E+03 -4.62972E+03  4.01140E+02 -5.30983E+03  3.32608E+03 -4.70319E+03  4.78827E+03 -1.95772E+03
  4.66031E+03  2.82199E+03  7.70772E+02  3.06744E+03 -8.83435E+02  4.38686E+03 -2.07928E+03  2.60689E+03
 -3.61381E+03  9.04275E+02 -3.46066E+03 -2.34804E+03 -5.84856E+02 -3.81827E+03  1.96728E+03 -2.62302E+03
  1.93004E+03 -1.78589E+03  1.61623E+03  8.70426E+01  7.48904E+02  2.24634E+03  4.92591E+02  6.14898E+02
  2.35268E+03  7.58193E+01  2.41591E+03  1.51784E+03  2.28863E+03  2.55357E+03  1.59090E+03  1.15293E+03
 -5.63353E+02  1.56901E+03 -2.40442E+03  3.34621E+03 -1.70762E+03  1.83925E+03 -3.61921E+03 -6.86216E+02
 -1.94092E+03 -3.29895E+03 -2.47904E+02 -5.02206E+03  1.47482E+03 -2.52729E+03  2.66747E+03 -1.10722E+03
  1.89778E+03  1.77088E+03  1.63774E+02  1.62453E+03  2.97908E+02  7.41489E+02 -4.28937E+02 -1.05310E+03
 -3.68293E+02  2.26228E+01  1.13501E+03 -1.42193E+03 -3.55941E+02 -1.06191E+03  1.07217E+03  6.86832E+02
  1.40687E+03 -2.22240E+02  1.25711E+03  3.66639E+02 -4.15186E+02 -1.54348E+02  1.37310E+03 -2.99766E+01
  7.71896E+02  5.86835E+02  1.14827E+03 -7.31873E+01  2.81529E+02  2.16072E+03 -2.80003E+02  2.99128E+03
 -6.54690E+02  1.61838E+02 -1.37737E+03  1.37775E+03 -2.40486E+03 -7.26356E+02 -5.69236E+02 -7.95975E+01
  7.17894E+02 -1.33765E+03  1.11984E+03 -9.58627E+01  1.09188E+03  1.54852E+03 -4.45523E+02  1.42233E+03
 -1.78922E+03  7.50231E+02 -1.86767E+03 -6.44399E+02  6.12482E+01 -2.43928E+03  6.80708E+02 -2.12852E+03
  5.63893E+02 -6.89112E+02  6.55295E+02  1.70660E+02  8.56705E+02  6.71164E+02  3.29447E+02 -2.08835E+02
 -7.07264E+02  4.29556E+02 -9.33649E+02 -1.55488E+02 -6.57498E+01 -3.63552E+02  1.97572E+03 -6.50327E+02
  9.97225E+02  3.26127E+02  3.91891E+03  8.13142E+02  3.80741E+01  1.72116E+03 -2.90891E+02  2.20225E+03
 -2.26281E+03 -5.18393E+02 -1.69347E+03 -8.53016E+02 -9.10197E+02 -1.25345E+03  7.19425E+02 -1.18976E+03
  2.26392E+03 -5.23332E+02  5.22649E+02  4.43770E+02  6.41314E+02  2.61075E+03  1.18962E+03  8.62181E+02
  4.75977E+02  2.11964E+03 -1.26580E+02  1.04934E+03 -4.55804E+02  2.85924E+02 -6.75836E+02 -2.97202E+01
 -7.13233E+02  1.83758E+03 -1.91851E+03  9.83803E+02 -1.61185E+03 -1.09659E+02 -1.78306E+03 -4.46466E+02
 -1.24050E+03 -2.03427E+03  4.86575E+02 -2.38229E+03  1.06472E+02 -2.48551E+03  2.75571E+03 -2.44146E+02
  2.58838E+03  3.78280E+02  9.85967E+02  1.96735E+03 -6.84417E+02  2.39310E+03 -2.44515E+02  1.71460E+03
 -1.75777E+03 -1.96455E+02  2.43358E+02 -3.34789E+02 -9.57221E+02  1.15292E+03 -1.34866E+03 -6.68559E+02
 -9.57578E+02  5.77974E+02 -9.08834E+02 -7.25290E+02  9.70210E+02 -5.56348E+02 -8.67473E+02 -1.78710E+02
  2.31434E+02 -4.30593E+02  1.76210E+02 -4.44297E+02  6.29495E+02  1.20156E+03 -3.16189E+02  1.82229E+03
 -1.41581E+03  2.24263E+03 -2.16098E+03  7.55302E+02 -1.95187E+03  4.13115E+02 -1.58181E+03 -2.23465E+03
 -3.18212E+02 -4.75155E+02  3.17296E+02 -2.22811E+03  1.49748E+03  2.05128E-01 -1.65319E+02  2.86022E+02
  7.81942E+02  4.42911E+02  2.00127E+02 -7.87579E+02 -1.48570E+03  6.35567E+02 -4.03118E+02 -5.46438E+02
  1.31180E+02  4.57264E+02  4.64387E+02  1.32949E+03 -1.11302E+02  9.49234E+02 -2.28092E+02 -6.63477E+02
 -1.27572E+03  6.59486E+02 -7.43729E+02  9.91485E+02 -1.36564E+03  1.46196E+02 -1.37239E+02  2.94768E+02
  5.06136E+01 -1.06435E+03  5.09436E+02  2.89391E+02  1.65794E+02  7.25932E+01  5.98479E+02  3.64343E+02
  7.44865E+02  8.37880E+01  1.27699E+02  9.37241E+02 -6.30785E+02  4.44761E+02 -1.00534E+03  4.76858E+02
 -4.13649E+02  1.66477E+03 -6.44029E+02 -1.14903E+02 -3.63834E+01 -2.61916E+02 -1.57436E+02  5.35896E+01
  2.42275E+02 -2.02399E+02 -9.42959E+02 -1.31054E+03  2.27702E+02 -1.19690E+03  8.02770E+02  2.57769E+01
  3.03872E+02  3.07967E+02 -2.19220E+01  1.57344E+02  5.95105E+02  1.03717E+03 -2.79701E+02 -1.35780E+02
