 $NMID ID='MM_0lb_SNR200_13hz_g45_77.RAW', FMTDAT='(8E13.5)'
 TRAMP=1., VOLUME=1. $END
  3.09046E+05  2.49644E+03  3.37221E+05  2.50701E+05  8.50244E+04  3.38127E+05 -1.32631E+05  2.51738E+05
 -1.89094E+05  8.35130E+04 -1.11013E+05 -3.27073E+04  6.61811E+02 -5.03975E+04  5.42199E+04 -1.01578E+03
  3.52377E+04  5.25791E+04 -1.67462E+04  7.49546E+04 -6.08173E+04  6.35870E+04 -8.30525E+04  3.25216E+04
 -7.96270E+04 -1.19430E+04 -5.75794E+04 -5.07164E+04 -1.42884E+04 -6.97063E+04  2.65796E+04 -4.61793E+04
  4.07399E+04  5.79580E+03  1.60524E+04  4.79739E+04 -3.36575E+04  4.63028E+04 -6.67630E+04 -5.84704E+01
 -5.33508E+04 -5.75426E+04 -5.39810E+03 -7.59684E+04  3.49655E+04 -5.35602E+04  4.87797E+04 -1.82401E+04
  4.44238E+04  1.10554E+04  3.20790E+04  2.51312E+04  1.62336E+04  2.89073E+04 -4.93224E+03  2.72458E+04
 -2.20004E+04  1.16911E+04 -1.82428E+04 -5.20797E+03  7.06086E+03 -7.36711E+03  2.24614E+04  1.26879E+04
  6.01683E+03  3.57233E+04 -3.26367E+04  3.56733E+04 -6.24225E+04  2.05463E+03 -5.81961E+04 -4.26889E+04
 -1.23283E+04 -6.33248E+04  4.06808E+04 -4.57270E+04  5.84016E+04 -2.99325E+03  3.45373E+04  3.23777E+04
 -5.78619E+03  3.66606E+04 -3.00396E+04  1.75451E+04 -3.02984E+04 -4.90120E+03 -1.81019E+04 -1.24426E+04
 -8.40205E+03 -1.39558E+04 -2.48310E+02 -1.75598E+04  8.28230E+03 -2.29183E+04  1.49193E+04 -1.33928E+04
  1.09180E+04  6.22748E+03 -8.09497E+03  1.23676E+04 -2.07930E+04 -4.61394E+03 -8.81759E+03 -3.35981E+04
  2.19772E+04 -4.22248E+04  4.85640E+04 -1.99891E+04  4.56136E+04  1.85850E+04  1.60973E+04  4.50645E+04
 -1.69961E+04  3.44786E+04 -2.64813E+04  1.73273E+03 -8.86098E+03 -2.86710E+04  1.98454E+04 -3.26850E+04
  4.08573E+04 -9.08711E+03  3.69398E+04  2.37127E+04  1.85866E+04  4.73440E+04 -6.91442E+03  5.00328E+04
 -3.26495E+04  3.52525E+04 -4.29803E+04  1.00570E+04 -4.30405E+04 -1.65619E+04 -2.41658E+04 -3.90218E+04
  6.96720E+03 -3.81700E+04  3.18588E+04 -1.39140E+04  2.86097E+04  1.13045E+04  3.70791E+03  1.84748E+04
 -1.34450E+04  8.36912E+03 -1.06340E+04 -7.71690E+03  5.84058E+03 -1.10780E+04  1.76712E+04  6.21430E+03
  1.40137E+04  2.26714E+04 -5.98753E+03  2.51562E+04 -2.32111E+04  1.25404E+04 -2.84299E+04 -5.41126E+03
 -2.07559E+04 -1.82986E+04 -9.58352E+03 -2.12952E+04  4.45842E+03 -2.00473E+04  1.57273E+04 -1.84185E+04
  2.78616E+04 -1.28125E+04  3.24004E+04  2.75395E+03  2.34218E+04  1.92131E+04  3.66205E+03  3.71186E+04
 -1.90551E+04  3.06251E+04 -2.82241E+04  1.06258E+04 -2.02847E+04 -9.96952E+03 -5.65652E+03 -1.27833E+04
  2.12919E+03 -4.26943E+03 -6.18386E+03  5.50384E+03 -1.79668E+04  5.49832E+03 -1.72150E+04 -7.20681E+03
 -1.05354E+04 -2.07190E+04  5.06541E+03 -2.48355E+04  1.59839E+04 -1.83107E+04  1.96838E+04 -2.66829E+03
  1.12186E+04  1.24122E+04  1.33185E+02  1.94784E+04 -1.26568E+04  1.14684E+04 -2.03470E+04 -2.93716E+03
 -1.55631E+04 -1.70193E+04 -2.60811E+03 -2.34104E+04  1.06614E+04 -2.05259E+04  2.01277E+04 -1.01103E+04
  1.80709E+04  6.88209E+02  1.42115E+04  4.29498E+03  6.19680E+03  1.17380E+03  1.08434E+04 -1.90823E+03
  1.73312E+04  3.17342E+03  1.88894E+04  1.59680E+04  1.22796E+04  3.08482E+04 -4.26684E+03  3.55661E+04
 -2.04040E+04  2.86117E+04 -3.20122E+04  1.39684E+04 -3.34373E+04 -2.91071E+03 -2.83382E+04 -2.10725E+04
 -1.29926E+04 -2.84605E+04  9.77438E+03 -2.54300E+04  2.13007E+04 -1.26183E+04  1.91914E+04  6.04385E+03
  7.19657E+03  1.61408E+04 -9.63794E+03  1.36821E+04 -1.80895E+04  3.81730E+03 -1.34629E+04 -9.54889E+03
  7.45286E+02 -1.71286E+04  8.83416E+03 -1.15595E+04  1.04267E+04 -6.12983E+02  1.57938E+03  7.17753E+03
 -7.48936E+03  2.54999E+03 -6.00395E+03 -5.61617E+03  1.75294E+02 -1.46213E+04  9.23416E+03 -1.45635E+04
  1.75023E+04 -8.49555E+03  1.88360E+04  1.48220E+03  1.69697E+04  1.29151E+04  6.64565E+03  2.20080E+04
 -3.69918E+03  2.33946E+04 -1.49483E+04  1.46757E+04 -1.68966E+04  3.69260E+03 -1.14855E+04 -3.25330E+03
 -3.65111E+03 -4.88911E+03  4.65204E+02  8.18538E+02 -3.01150E+03  2.29739E+03 -5.73214E+03  5.80298E+03
 -1.12422E+04 -7.38365E+01 -1.10458E+04 -1.00322E+04 -3.50302E+03 -1.56578E+04  5.10100E+03 -1.13958E+04
  9.55383E+03 -4.93051E+03  6.19714E+03  2.90233E+03 -3.20991E+02  4.13162E+03 -4.53984E+03  3.02844E+02
 -6.00949E+03 -6.24243E+03  4.46056E+02 -1.18569E+04  5.77835E+03 -1.23182E+04  1.46302E+04 -5.33184E+03
  1.79683E+04  1.66488E+03  1.39975E+04  8.40161E+03  2.03046E+03  1.25953E+04 -7.11594E+03  1.08808E+04
 -9.36319E+03  5.11940E+03 -5.43885E+03 -1.80867E+03  1.32928E+03 -2.94362E+03  6.79434E+03 -1.74279E+03
  5.13924E+03  5.94783E+03  1.08007E+03  9.11761E+03 -6.08523E+03  7.91666E+03 -1.14309E+04  2.12167E+03
 -8.55275E+03 -3.00474E+03  2.65894E+02 -9.55741E+03  5.96786E+03 -6.00990E+03  6.33629E+03  1.58179E+03
  9.21194E+02  8.33887E+03 -6.14335E+03  6.72874E+03 -8.67155E+03  4.25089E+03 -8.84008E+03 -2.39146E+03
 -6.00038E+03 -1.07007E+04  2.82866E+03 -1.39827E+04  9.83218E+03 -7.93301E+03  1.06240E+04  2.05966E+03
  6.57191E+03  9.49007E+03 -5.93315E+02  1.12983E+04 -8.00059E+03  5.85818E+03 -7.97094E+03  2.34398E+02
 -7.21752E+03 -7.53866E+03 -1.25223E+03 -8.08167E+03  4.36917E+03 -6.73339E+03  5.45530E+03 -3.57047E+03
  3.85380E+03  7.43789E+01  7.36515E+02  1.61234E+03  9.32471E+02 -1.06449E+03  1.54407E+03 -4.65577E+03
  6.76293E+03 -1.62059E+03  1.07494E+04  8.32583E+02  9.08319E+03  5.48717E+03  7.01032E+03  1.34286E+04
 -2.70988E+03  1.52990E+04 -1.31286E+04  1.18955E+04 -1.55887E+04  1.77689E+03 -1.41417E+04 -5.59990E+03
 -8.23334E+03 -1.12761E+04 -8.97918E+01 -9.39954E+03  4.38595E+03 -4.03674E+03  3.80023E+03 -3.33942E+03
  4.11912E+03 -2.19439E+03  3.15240E+03 -2.87313E+03  4.48531E+03 -2.50848E+03  5.58066E+03 -1.29147E+03
  6.05979E+03  1.94083E+03  3.89885E+03  5.11636E+03 -1.18375E+03  7.35967E+03 -7.45983E+03  5.01418E+03
 -9.16306E+03 -6.48811E+02 -5.71774E+03 -6.71964E+03 -6.66355E+02 -1.03476E+04  5.08227E+03 -9.44898E+03
  1.07391E+04 -5.36917E+03  1.34743E+04  9.30397E+02  8.93580E+03  9.20374E+03  1.58252E+03  1.06314E+04
 -3.38526E+03  9.76138E+03 -6.75332E+03  3.72098E+03 -4.27081E+03 -1.42331E+03 -1.33174E+03 -2.51181E+03
 -1.52911E+03  1.04079E+03 -1.15247E+03  2.98686E+03 -3.03453E+03  1.34680E+03 -6.52499E+03  2.14019E+02
 -3.71506E+03 -5.01840E+03 -4.20142E+02 -9.38292E+03  5.14357E+03 -7.94770E+03  8.92370E+03 -2.96612E+03
  8.45822E+03  3.84730E+03  4.41757E+03  7.97726E+03 -2.30143E+03  9.93060E+03 -6.79928E+03  5.60708E+03
 -9.54616E+03  4.69424E+02 -6.30950E+03 -5.60606E+03 -1.30164E+03 -7.43550E+03  4.04173E+03 -5.14892E+03
  5.38153E+03 -6.40753E+02  3.82295E+03  8.91434E+02  4.29910E+02  1.84230E+03  1.89879E+03  1.77987E+03
  2.08610E+03 -4.33708E+02  3.34142E+03  9.63586E+02  2.12627E+03  2.56714E+03  3.42662E+03  4.09812E+03
 -1.50946E+03  6.19579E+03 -4.79216E+03  6.87614E+03 -8.17740E+03  1.53705E+03 -8.51107E+03 -2.83564E+03
 -3.06926E+03 -8.74399E+03  1.59176E+03 -9.21138E+03  6.02963E+03 -6.73069E+03  7.49310E+03  1.17173E+02
  4.66841E+03  3.50923E+03  1.29913E+03  4.97026E+03 -1.20136E+03  1.91068E+03 -3.22318E+03 -4.87149E+02
 -1.22216E+03 -3.79062E+03  2.87141E+03 -3.84613E+03  4.69643E+03 -1.00591E+03  3.13668E+03  1.77478E+03
  2.80398E+03  6.71173E+02  1.18808E+03  8.50032E+02 -4.82181E+02  9.43242E+02  1.99763E+03 -1.87218E+03
  7.08296E+02  8.77203E+02  3.88512E+03  1.64654E+03  3.32481E+03  4.46176E+03 -5.76488E+02  5.47120E+03
 -3.03838E+03  3.55949E+03 -5.11721E+03  7.72285E+01 -4.76037E+03 -1.38785E+03 -1.20447E+03 -4.12479E+03
  7.46562E+02 -2.71261E+03  2.11655E+03 -6.01630E+02  1.97726E+03  2.19253E+03 -2.81600E+02  3.17448E+03
 -4.43518E+03  2.67797E+03 -3.07714E+03 -2.20313E+03 -7.63466E+02 -5.44634E+03 -6.29872E+02 -3.19563E+03
  1.78714E+03 -2.46226E+03  3.26263E+03 -1.62163E+03  2.43951E+03  4.11285E+02  1.66172E+02  2.31475E+03
 -1.90840E+03  6.63363E+02 -1.08311E+03 -1.60693E+03  1.81613E+03 -2.23035E+03  3.78380E+03 -2.07881E+03
  3.45956E+03 -4.18625E+02  5.65906E+03  2.68398E+03  2.13732E+03  4.74206E+03 -1.31001E+03  5.63214E+03
 -2.76069E+03  1.69747E+03 -3.82971E+03 -6.32172E+02 -2.30383E+03 -4.03362E+03  8.82212E+02 -3.82744E+03
  4.08447E+03 -1.07723E+03  9.35391E+02  1.28294E+03  9.64356E+02  2.64283E+03 -6.15017E+02  2.54377E+03
 -1.82800E+03  2.78326E+03 -8.73380E+02  8.91521E+02 -8.47973E+01  1.18017E+03 -4.91518E+02  1.43554E+03
 -1.50447E+03  2.59237E+03 -3.10854E+03  1.85510E+03 -3.34762E+03  6.07724E+02 -5.76870E+03 -2.18362E+03
 -1.71091E+03 -8.09663E+03  1.60776E+03 -8.14453E+03  3.49707E+03 -5.50264E+03  7.07819E+03 -2.11778E+03
  6.45652E+03  1.56509E+03  3.13053E+03  3.14735E+03 -3.67665E+02  3.99873E+03 -1.49200E+03  5.10581E+03
 -2.62609E+03  3.01335E+03 -1.04644E+03 -4.36325E+02 -1.77709E+03  1.02697E+03 -7.41139E+02 -7.82796E+02
 -2.20650E+03 -5.02213E+02 -1.84599E+03  6.69230E+02 -2.67375E+00 -1.31626E+03 -8.79192E+00 -1.38577E+03
  3.03233E+03 -1.74840E+03  3.00525E+03 -3.54604E+02  3.72199E+03  2.34530E+03  5.54571E+02  4.31528E+03
 -3.22179E+03  4.73209E+03 -4.22260E+03  3.77018E+03 -6.13505E+03 -1.97900E+02 -4.49277E+03 -3.96349E+03
 -1.32480E+03 -5.02388E+03  1.51883E+03 -4.99847E+03  2.71263E+03 -2.41698E+03  3.63155E+03  3.86100E+02
  1.94415E+03 -3.03475E+02 -2.07428E+02  1.61106E+03 -1.53689E+03 -1.42059E+03 -6.27447E+02 -1.97517E+03
  2.11358E+03 -5.86691E+02  1.30031E+03  1.63972E+02 -2.37541E+02  1.19584E+03  5.22709E+00  1.08187E+03
 -2.03951E+03  1.32903E+03 -3.11268E+03  3.26220E+02 -1.76406E+03 -2.46072E+03 -5.83186E+02 -4.12284E+03
  1.58165E+03 -3.12105E+03  3.22201E+03 -2.75946E+02  3.45749E+03  1.05276E+03  2.39929E+03  2.64113E+03
  5.93262E+02  2.38270E+02 -1.11982E+03  2.61583E+02 -2.22380E+03  1.07166E+03 -1.33119E+03 -1.13824E+03
 -1.51434E+03  8.10299E+02 -1.49019E+02 -8.52031E+02 -9.88036E+02  9.58420E+02 -1.74833E+03  7.23343E+02
 -4.14664E+03 -1.20511E+03 -1.65754E+03 -2.73746E+03  1.49151E+03 -3.23183E+03  3.16268E+03 -1.36897E+02
  2.83321E+03 -2.66177E+02  1.41043E+03  1.23712E+03  1.78095E+02  3.93899E+03 -2.40943E+03  2.43254E+03
