 $NMID ID='MM_0lb_SNR200_9hz_g55_77.RAW', FMTDAT='(8E13.5)'
 TRAMP=1., VOLUME=1. $END
  3.10638E+05  6.03026E+02  3.36992E+05  2.50002E+05  8.58953E+04  3.37947E+05 -1.33767E+05  2.51588E+05
 -1.93094E+05  8.47909E+04 -1.13777E+05 -3.09288E+04  6.41783E+02 -5.02758E+04  5.33916E+04  4.80528E+02
  3.56295E+04  5.29160E+04 -1.50665E+04  7.72473E+04 -6.16936E+04  6.36503E+04 -8.70616E+04  3.07412E+04
 -8.23054E+04 -1.22992E+04 -5.72807E+04 -5.06927E+04 -1.63996E+04 -7.18259E+04  2.81462E+04 -4.52375E+04
  4.05527E+04  4.76160E+03  1.62128E+04  4.65259E+04 -3.38872E+04  4.83977E+04 -6.93189E+04  8.06052E+02
 -5.53283E+04 -5.90911E+04 -6.68381E+03 -7.80783E+04  3.60156E+04 -5.46946E+04  5.04555E+04 -1.68199E+04
  4.37052E+04  1.19889E+04  3.38163E+04  2.69480E+04  1.51901E+04  3.04878E+04 -6.53404E+03  2.92742E+04
 -2.22010E+04  1.19233E+04 -1.90927E+04 -5.99531E+03  6.41441E+03 -6.78301E+03  2.33794E+04  1.20642E+04
  7.01623E+03  3.93775E+04 -3.43099E+04  3.67038E+04 -6.66617E+04  1.99557E+03 -5.90233E+04 -4.32356E+04
 -1.22260E+04 -6.70435E+04  4.29319E+04 -4.70109E+04  6.15274E+04 -3.56424E+03  3.70763E+04  3.29424E+04
 -5.25704E+03  3.91332E+04 -3.24799E+04  1.94790E+04 -3.33492E+04 -4.16627E+03 -2.12942E+04 -1.21649E+04
 -8.22968E+03 -1.60245E+04 -2.41893E+03 -1.91005E+04  9.36540E+03 -2.41141E+04  1.45791E+04 -1.12148E+04
  1.08342E+04  6.94266E+03 -1.07523E+04  1.28791E+04 -2.20247E+04 -7.68129E+03 -8.08668E+03 -3.83408E+04
  2.45978E+04 -4.81131E+04  5.35438E+04 -2.08972E+04  4.96297E+04  2.27561E+04  1.87016E+04  4.64270E+04
 -1.65883E+04  3.80673E+04 -2.73780E+04  2.43212E+03 -1.12629E+04 -3.21099E+04  2.18548E+04 -3.71927E+04
  4.40206E+04 -1.05654E+04  4.07819E+04  2.62263E+04  2.34143E+04  5.21941E+04 -7.76910E+03  5.68474E+04
 -3.54681E+04  3.87833E+04 -4.82519E+04  1.12439E+04 -4.91012E+04 -1.78252E+04 -2.68185E+04 -4.18446E+04
  7.73575E+03 -4.10704E+04  3.42212E+04 -1.75180E+04  3.34520E+04  1.13767E+04  5.24067E+03  2.08065E+04
 -1.27206E+04  1.07070E+04 -9.99044E+03 -5.96533E+03  6.02951E+03 -1.23471E+04  1.92247E+04  5.85669E+03
  1.48846E+04  2.33427E+04 -3.23281E+03  2.76815E+04 -2.29126E+04  1.29634E+04 -3.15812E+04 -2.46910E+03
 -2.54283E+04 -1.86904E+04 -9.84527E+03 -2.51402E+04  4.00120E+03 -2.62565E+04  2.02846E+04 -2.33699E+04
  3.35257E+04 -1.50631E+04  3.96686E+04  6.51507E+03  2.71449E+04  2.54462E+04  4.38464E+03  4.10785E+04
 -2.07343E+04  3.51655E+04 -3.18450E+04  1.27469E+04 -2.30073E+04 -9.67246E+03 -4.24449E+03 -1.37727E+04
  4.45811E+01 -8.62980E+02 -8.69101E+03  9.41035E+03 -2.05602E+04  4.12797E+03 -2.10902E+04 -1.09239E+04
 -1.21369E+04 -2.39965E+04  7.14682E+03 -2.74793E+04  1.87182E+04 -2.14080E+04  2.40194E+04 -2.23761E+03
  1.44569E+04  1.72192E+04 -1.12945E+03  2.40032E+04 -1.69701E+04  1.42576E+04 -2.39871E+04 -4.90706E+03
 -1.80190E+04 -2.00863E+04 -2.42643E+03 -2.82109E+04  1.25490E+04 -2.24926E+04  2.51153E+04 -1.38620E+04
  2.17896E+04 -7.27836E+02  1.66848E+04  5.90593E+03  9.00143E+03  2.04279E+03  1.28645E+04 -2.33718E+03
  2.07670E+04  2.72686E+03  2.74542E+04  1.88454E+04  1.72469E+04  3.95224E+04 -1.95079E+03  4.41262E+04
 -2.70615E+04  3.67751E+04 -4.21784E+04  1.69614E+04 -4.47685E+04 -2.34096E+03 -3.84661E+04 -2.69350E+04
 -1.59238E+04 -3.87831E+04  1.20716E+04 -3.48807E+04  2.72266E+04 -1.75530E+04  2.46695E+04  6.70128E+03
  8.46777E+03  1.88682E+04 -1.16322E+04  1.52521E+04 -1.97438E+04  7.28431E+02 -1.69220E+04 -1.43198E+04
  6.99557E+02 -1.92774E+04  1.11570E+04 -1.50808E+04  1.36423E+04 -4.41007E+02  2.22755E+03  1.01157E+04
 -8.40631E+03  5.38283E+03 -8.11396E+03 -8.73794E+03 -3.71974E+03 -1.74924E+04  1.28177E+04 -2.10841E+04
  2.38651E+04 -1.23817E+04  2.78645E+04  4.91057E+03  2.21978E+04  1.92485E+04  9.74185E+03  3.08585E+04
 -3.89521E+03  3.20819E+04 -2.02172E+04  2.15116E+04 -2.34115E+04  2.89337E+03 -1.56784E+04 -7.03853E+03
 -6.52789E+03 -6.84555E+03 -6.91495E+02  9.82987E+02 -2.93352E+03  2.82145E+03 -9.74453E+03  6.47159E+03
 -1.48353E+04 -2.78638E+03 -1.59659E+04 -1.21934E+04 -6.50879E+03 -1.98881E+04  6.82127E+03 -1.51016E+04
  1.23368E+04 -6.22330E+03  9.19611E+03  5.70197E+03 -5.54108E+02  7.25863E+03 -7.15486E+03 -1.19036E+03
 -6.60469E+03 -1.05467E+04 -2.36302E+03 -1.58272E+04  8.38490E+03 -1.60895E+04  2.13595E+04 -1.00418E+04
  2.41406E+04  2.04254E+03  1.67228E+04  1.50643E+04  3.78890E+03  1.95632E+04 -1.00123E+04  1.60233E+04
 -1.23591E+04  5.77368E+03 -6.26169E+03 -3.24012E+03  2.51692E+03 -6.02310E+03  7.48447E+03 -2.42328E+03
  9.71208E+03  7.87205E+03  6.33557E+02  1.52011E+04 -8.25298E+03  1.25604E+04 -1.66985E+04  1.67501E+03
 -1.23163E+04 -8.38744E+03 -1.21230E+03 -1.24177E+04  8.92112E+03 -7.93014E+03  8.72068E+03  2.40413E+03
  3.68729E+03  1.05661E+04 -8.83223E+03  1.27764E+04 -1.42257E+04  4.74130E+03 -1.49467E+04 -5.26579E+03
 -9.11561E+03 -1.51322E+04  3.28726E+03 -1.79074E+04  1.66155E+04 -1.09074E+04  1.67894E+04  2.18035E+03
  1.05067E+04  1.35487E+04 -3.58604E+03  1.61346E+04 -1.29761E+04  7.99964E+03 -1.39690E+04 -1.39084E+03
 -1.00101E+04 -1.13312E+04 -3.28534E+03 -1.18099E+04  5.59013E+03 -1.07997E+04  8.09653E+03 -3.53674E+03
  4.71080E+03  2.33350E+03  6.19987E+02  2.54656E+03 -9.51557E+02 -2.50606E+03  3.05124E+03 -7.67192E+03
  1.12001E+04 -5.49078E+03  1.74790E+04  2.08427E+03  1.59254E+04  1.05075E+04  1.05338E+04  2.34828E+04
 -6.64806E+03  2.58522E+04 -2.04105E+04  1.81055E+04 -2.35145E+04  3.12226E+03 -2.10936E+04 -9.93280E+03
 -9.46573E+03 -1.80419E+04  2.65858E+02 -1.48617E+04  5.92790E+03 -8.47462E+03  6.35518E+03 -5.56787E+03
  4.70236E+03 -1.05106E+03  3.15315E+03 -4.31690E+03  5.49438E+03 -3.58409E+03  6.96942E+03 -3.01898E+03
  1.26393E+04  2.64695E+03  5.16600E+03  8.54214E+03 -2.46127E+03  1.23323E+04 -1.23623E+04  8.44033E+03
 -1.58028E+04 -6.55622E+02 -9.13282E+03 -1.10232E+04 -2.49221E+03 -1.58182E+04  8.27640E+03 -1.65691E+04
  1.74828E+04 -8.51666E+03  2.09671E+04  3.49341E+03  1.33806E+04  1.53744E+04  1.37543E+03  1.74976E+04
 -5.84979E+03  1.46441E+04 -1.01235E+04  4.14337E+03 -7.63315E+03 -2.88533E+03 -7.77218E+02 -1.76423E+03
 -1.85073E+03  5.23323E+02 -2.12376E+03  2.38084E+03 -6.40909E+03  5.95788E+02 -1.03705E+04 -2.94491E+01
 -7.06257E+03 -1.01924E+04 -3.62963E+01 -1.37400E+04  9.49050E+03 -1.40724E+04  1.44852E+04 -4.19495E+03
  1.59117E+04  8.00334E+03  6.46580E+03  1.46421E+04 -2.81356E+03  1.49328E+04 -1.07802E+04  8.21057E+03
 -1.31267E+04  1.50938E+02 -1.24712E+04 -8.86419E+03 -5.60003E+02 -1.33954E+04  7.58835E+03 -9.47819E+03
  7.97670E+03 -4.13581E+03  8.05846E+03  2.67218E+03  3.68070E+03  3.89412E+03  1.52687E+03  1.30744E+03
  2.25792E+03  1.11234E+03  4.30911E+03  2.42074E+03  3.27285E+03  6.03184E+03  2.93092E+03  8.00718E+03
 -3.13906E+03  1.32491E+04 -1.01554E+04  1.28311E+04 -1.71972E+04  3.59341E+03 -1.84217E+04 -7.39769E+03
 -9.23924E+03 -1.51312E+04  1.79902E+03 -1.77655E+04  1.03144E+04 -1.04470E+04  1.40575E+04 -3.14514E+03
  1.03218E+04  6.27302E+03  2.96336E+03  7.92421E+03 -4.52116E+03  6.81545E+03 -4.73813E+03 -8.05506E+01
 -4.16752E+03 -6.19041E+03  4.20435E+03 -6.69374E+03  6.35962E+03 -4.03520E+03  6.48779E+03  2.51796E+03
  3.80514E+03  2.83147E+03  1.45326E+03  1.75554E+03 -2.15309E+03  2.48082E+03  1.91441E+03 -1.03180E+03
  3.42150E+03 -8.80963E+02  8.19670E+03  1.41201E+03  2.44581E+03  8.47948E+03 -1.51581E+03  1.02676E+04
 -7.02805E+03  9.06144E+03 -8.64252E+03  1.38491E+03 -8.64889E+03 -3.21033E+03 -4.72950E+03 -5.16100E+03
  1.07741E+03 -5.46583E+03  3.04157E+03 -3.61544E+03  3.43946E+03  2.26317E+03 -7.43072E+02  3.85787E+03
 -6.24863E+03  2.41035E+03 -6.24639E+03 -2.22726E+03 -4.16717E+03 -7.89966E+03  2.02477E+03 -8.78765E+03
  7.02946E+03 -5.03547E+03  7.33624E+03 -3.83450E+02  5.53075E+03  2.61346E+03  1.14049E+03  4.90258E+03
 -3.64221E+03  1.17579E+03 -3.96647E+03 -2.40765E+03  2.40458E+03 -4.94886E+03  8.26111E+03 -5.74427E+03
  9.63131E+03  5.48005E+02  9.84236E+03  6.42073E+03  3.65267E+03  1.09061E+04 -5.06156E+03  1.06155E+04
 -9.15892E+03  5.90615E+03 -9.63884E+03 -4.70655E+02 -5.06558E+03 -6.72232E+03  2.28867E+03 -6.59371E+03
  6.36269E+03 -4.29795E+03  5.43559E+03  1.31269E+03  8.79215E+02  5.93475E+03  5.68514E+02  5.44300E+03
 -1.91619E+03  3.18656E+03 -2.96575E+03  8.82790E+02  9.36878E+02  9.24258E+02 -1.25295E+03  2.12368E+03
 -2.15653E+03  3.05957E+03 -7.76653E+03  4.57509E+03 -1.06784E+04 -2.25611E+02 -1.08701E+04 -4.85211E+03
 -6.76508E+03 -1.44064E+04  2.53487E+03 -1.69956E+04  7.99208E+03 -1.15559E+04  1.52248E+04 -3.64925E+03
  1.39424E+04  4.83583E+03  7.94294E+03  1.13439E+04  1.48370E+03  1.12632E+04 -4.46907E+03  9.60504E+03
 -6.70311E+03  2.17424E+03 -4.50152E+03 -1.41326E+03 -1.33733E+03 -7.56725E+02 -1.58145E+02 -1.32207E+03
 -2.55167E+03  4.69460E+02 -2.56433E+03 -1.80039E+02 -1.15555E+03 -2.22019E+03 -1.77035E+03 -4.65719E+03
  3.86194E+03 -2.28747E+03  8.73328E+03 -6.22362E+02  6.90893E+03  5.43947E+03  2.15739E+03  1.14592E+04
 -3.85046E+03  1.23515E+04 -1.13140E+04  7.58716E+03 -1.40507E+04 -3.60796E+02 -1.03510E+04 -7.97314E+03
 -4.11758E+03 -1.10136E+04  4.37011E+03 -1.02880E+04  7.80520E+03 -5.36518E+03  6.86461E+03  8.94425E+02
  4.09702E+03  3.95478E+03 -1.36423E+03  2.17380E+03 -2.26744E+03 -9.10047E+02 -3.66150E+02 -2.40038E+03
  3.13547E+03 -8.33247E+02  3.84574E+03  1.51587E+03  1.39381E+03  4.37655E+03 -1.01646E+03  6.16738E+03
 -6.26128E+03  5.56122E+03 -5.29441E+03  3.33399E+02 -6.28971E+03 -5.48702E+03 -1.52598E+02 -9.15092E+03
  6.23904E+03 -6.05116E+03  7.27612E+03 -1.99019E+03  8.84578E+03  1.79857E+03  3.77979E+03  5.31230E+03
  7.86943E+02  5.94682E+03 -3.28721E+03  4.65813E+03 -4.20087E+03  3.03652E+03 -2.59501E+03 -5.61359E+01
 -3.20454E+03 -5.96261E+02 -2.46209E+03  7.10001E+02 -4.12423E+03  1.41669E+03 -5.69473E+03 -1.03886E+03
 -5.67170E+03 -3.23803E+03 -3.09983E+03 -6.81217E+03  3.29533E+03 -8.49611E+03  4.73449E+03 -4.34392E+03
  7.78435E+03  1.48871E+03  2.98176E+03  5.63093E+03 -6.93490E+02  8.01092E+03 -6.54026E+03  4.76402E+03
