 $NMID ID='MM_0lb_SNR200_20hz_g55_50.RAW', FMTDAT='(8E13.5)'
 TRAMP=1., VOLUME=1. $END
  3.10007E+05  1.27498E+03  3.37069E+05  2.50402E+05  8.39258E+04  3.38152E+05 -1.32360E+05  2.50631E+05
 -1.89263E+05  8.30965E+04 -1.09980E+05 -3.31298E+04  1.18314E+03 -5.01205E+04  5.31936E+04  2.79242E+02
  3.48117E+04  5.34142E+04 -1.68174E+04  7.44407E+04 -6.06742E+04  6.34662E+04 -8.35318E+04  3.02793E+04
 -8.05806E+04 -1.19813E+04 -5.54935E+04 -5.02907E+04 -1.45946E+04 -6.89069E+04  2.63572E+04 -4.49358E+04
  3.84279E+04  4.07053E+03  1.57812E+04  4.66467E+04 -3.47508E+04  4.71648E+04 -6.53902E+04  2.65496E+02
 -5.27528E+04 -5.56689E+04 -7.57502E+03 -7.50966E+04  3.36055E+04 -5.31147E+04  4.69793E+04 -1.68821E+04
  4.21610E+04  9.93167E+03  3.08812E+04  2.43683E+04  1.69661E+04  2.88274E+04 -4.61334E+03  2.62963E+04
 -2.16203E+04  1.26264E+04 -1.89372E+04 -4.41448E+03  4.43300E+03 -7.74794E+03  2.12909E+04  1.05862E+04
  7.46220E+03  3.42176E+04 -2.99324E+04  3.35724E+04 -6.09543E+04  2.15435E+03 -5.55245E+04 -4.09265E+04
 -1.26647E+04 -6.20232E+04  3.86544E+04 -4.48479E+04  5.65129E+04 -1.92184E+03  3.15539E+04  3.07676E+04
 -5.54205E+03  3.32763E+04 -2.80003E+04  1.32267E+04 -2.85818E+04 -5.43889E+03 -1.50526E+04 -9.50688E+03
 -7.48018E+03 -1.24965E+04 -7.18010E+02 -1.70872E+04  6.76628E+03 -2.34116E+04  1.57608E+04 -1.37315E+04
  1.15755E+04  4.63592E+03 -6.90207E+03  1.24731E+04 -1.99690E+04 -2.49326E+03 -8.53932E+03 -3.08239E+04
  2.22170E+04 -3.97381E+04  4.53835E+04 -1.86622E+04  4.25089E+04  1.79924E+04  1.43241E+04  4.27429E+04
 -1.60473E+04  3.17709E+04 -2.35672E+04  9.59243E+02 -8.07457E+03 -2.62119E+04  2.03098E+04 -3.06061E+04
  3.83947E+04 -7.82976E+03  3.18038E+04  2.33908E+04  1.52441E+04  4.23247E+04 -8.39548E+03  4.60859E+04
 -2.83573E+04  2.96460E+04 -3.72355E+04  7.97034E+03 -3.83331E+04 -1.60505E+04 -2.17170E+04 -3.36009E+04
  7.81582E+03 -3.47243E+04  2.94134E+04 -1.14960E+04  2.69885E+04  1.10973E+04  3.39359E+03  1.81138E+04
 -1.30904E+04  6.54374E+03 -9.71150E+03 -7.70695E+03  6.46552E+03 -9.36197E+03  1.70230E+04  6.38863E+03
  1.20034E+04  2.11783E+04 -6.01230E+03  2.40143E+04 -2.18496E+04  8.51467E+03 -2.47499E+04 -7.03891E+03
 -1.64952E+04 -1.65565E+04 -6.02265E+03 -1.64752E+04  3.65021E+03 -1.35246E+04  1.13684E+04 -1.40298E+04
  2.11687E+04 -1.19594E+04  2.74403E+04  1.12065E+03  2.13801E+04  1.66316E+04  3.94974E+03  3.22993E+04
 -1.65721E+04  2.69572E+04 -2.54985E+04  9.33604E+03 -1.93017E+04 -1.01167E+04 -4.46622E+03 -1.39640E+04
  3.49275E+03 -2.86451E+03 -2.82494E+03  4.57620E+03 -1.31436E+04  4.77784E+03 -1.42733E+04 -5.57895E+03
 -8.60265E+03 -1.42749E+04  4.41465E+03 -1.92930E+04  1.19235E+04 -1.43166E+04  1.43621E+04 -5.99671E+02
  9.59208E+03  1.12730E+04 -1.34214E+03  1.63024E+04 -1.09391E+04  8.79951E+03 -1.60076E+04 -4.04646E+03
 -1.11198E+04 -1.39099E+04 -1.64351E+03 -1.84024E+04  9.53443E+03 -1.54351E+04  1.61631E+04 -7.50881E+03
  1.38632E+04  1.20528E+03  9.53584E+03  3.47455E+03  5.39047E+03  7.00445E+02  7.64284E+03 -1.04220E+03
  1.35602E+04  2.48304E+03  1.42108E+04  1.22517E+04  8.50968E+03  2.31947E+04 -2.61817E+03  2.55701E+04
 -1.56167E+04  1.89388E+04 -2.42527E+04  8.74051E+03 -2.44229E+04 -2.68477E+03 -2.05232E+04 -1.26019E+04
 -9.77160E+03 -1.94392E+04  6.83407E+03 -1.89747E+04  1.56603E+04 -1.06192E+04  1.49380E+04  3.19719E+03
  6.04658E+03  1.00448E+04 -7.13018E+03  9.68963E+03 -1.25380E+04  2.06096E+03 -9.70132E+03 -7.07682E+03
  5.22969E+02 -1.23250E+04  5.47260E+03 -1.02170E+04  8.13143E+03 -2.26863E+03  9.21482E+02  5.00264E+03
 -4.89976E+03  1.92091E+03 -3.51212E+03 -4.08961E+03  1.84020E+03 -1.03982E+04  7.64674E+03 -9.30300E+03
  1.11029E+04 -5.49397E+03  1.13375E+04  3.32804E+03  9.82167E+03  9.59982E+03  3.98671E+03  1.42458E+04
 -1.88606E+03  1.61352E+04 -8.42635E+03  9.37237E+03 -1.03037E+04  3.53834E+03 -7.39510E+03 -2.10670E+03
 -3.27123E+03 -4.17733E+03 -4.31690E+02  1.34509E+03 -2.69558E+03  1.47470E+03 -3.55944E+03  4.28997E+03
 -7.24058E+03 -9.99213E+02 -8.69951E+03 -6.06501E+03 -3.99444E+03 -1.13421E+04  4.41427E+03 -7.86572E+03
  7.52593E+03 -2.41648E+03  4.13043E+03  1.71645E+03  8.58905E+02  2.78798E+03 -2.45735E+03  3.30417E+02
 -3.87282E+03 -4.58322E+03 -1.14889E+03 -6.28284E+03  3.76546E+03 -7.00585E+03  9.66164E+03 -3.85593E+03
  1.16041E+04  1.55022E+01  7.69966E+03  5.53092E+03  2.27683E+03  7.12197E+03 -5.17293E+03  7.93618E+03
 -7.21731E+03  2.69917E+03 -3.15310E+03 -1.38831E+03  9.76549E+02 -2.03905E+03  3.53260E+03  1.88839E+01
  3.99371E+03  4.60247E+03  2.02556E+02  6.03815E+03 -3.69720E+03  5.30144E+03 -7.20176E+03  1.66088E+03
 -5.27098E+03 -3.80915E+03  3.89402E+02 -5.87777E+03  3.77815E+03 -4.20062E+03  3.81800E+03  1.83276E+03
 -2.11465E+02  2.65612E+03 -3.17305E+03  3.58610E+03 -3.28017E+03  2.08492E+03 -3.69997E+03 -4.75144E+02
 -2.00948E+03 -5.87947E+03  5.08330E+02 -7.58655E+03  5.25704E+03 -3.91338E+03  6.25060E+03  1.00197E+03
  4.38357E+03  5.00595E+03 -6.13858E+02  6.03001E+03 -4.08643E+03  3.59352E+03 -4.98591E+03  7.39654E+01
 -5.67968E+03 -5.09323E+03 -6.01147E+02 -4.73675E+03  2.48650E+03 -5.22699E+03  2.04288E+03 -2.44847E+03
  3.23242E+03  3.70743E+02  2.59450E+02  6.58312E+02  7.85203E+02 -1.66696E+02 -5.41372E+02 -1.31151E+03
  3.44144E+03 -1.02504E+03  3.67632E+03  1.11068E+03  5.21888E+03  1.95189E+03  4.42866E+03  5.96398E+03
 -1.61862E+03  6.97580E+03 -6.46178E+03  4.96219E+03 -9.26082E+03  1.42411E+03 -7.06954E+03 -2.45267E+03
 -3.58860E+03 -6.02729E+03  8.22873E+01 -3.68650E+03  2.57833E+03 -1.73705E+03  1.45521E+03 -1.13024E+03
  1.23952E+03 -7.27525E+02  1.68785E+03 -2.66970E+03  2.82072E+03 -1.45323E+03  3.91700E+03 -7.54321E+01
  2.79133E+03  6.21958E+02  1.14163E+03  2.94277E+03 -1.52086E+03  2.16418E+03 -3.59646E+03  2.51539E+03
 -3.90927E+03 -1.67503E+02 -1.94491E+03 -3.81091E+03  8.29141E+02 -4.29086E+03  2.85584E+03 -5.03438E+03
  4.44985E+03 -3.53336E+03  4.64323E+03 -7.62381E+02  4.68755E+03  2.83720E+03  2.04615E+02  5.51971E+03
 -2.29602E+03  5.07447E+03 -2.54652E+03  2.22302E+03 -2.02919E+03 -1.34782E+02 -7.57861E+02  8.02699E+02
 -3.30010E+02  5.51709E+02 -1.09883E+03  2.35239E+03 -2.49167E+03 -2.05971E+01 -3.16719E+03 -1.72306E+02
 -4.89846E+02 -3.25797E+03  9.14251E+02 -3.60056E+03  2.32989E+03 -4.09634E+03  3.96314E+03 -6.33455E+02
  3.64163E+03  2.32422E+03  1.70424E+03  3.06951E+03 -4.77537E+02  4.53832E+03 -2.58635E+03  2.32864E+03
 -3.31293E+03 -2.74571E+02 -3.34742E+03 -1.18697E+03 -9.40053E+01 -1.93459E+03  1.35098E+03 -2.82491E+03
  2.85520E+03 -1.45973E+03  1.53631E+03 -1.89319E+02  5.02050E+02  2.66850E+03  8.41533E+02  1.12709E+02
  1.26875E+03  7.22785E+02  2.21215E+03  1.40114E+03  1.45518E+03  2.45869E+03  2.11449E+03  6.14046E+02
 -2.08140E+03  2.36065E+03 -2.97496E+03  3.47420E+03 -1.81916E+03  1.53316E+03 -3.10829E+03 -9.63605E+02
 -2.01423E+03 -3.79255E+03  5.54096E+02 -3.46602E+03  1.14695E+03 -2.32463E+03  3.06401E+03 -5.09356E+02
  2.52860E+03  1.44906E+03 -2.90787E+02  2.09747E+03 -5.11815E+01  1.84889E+03  5.25550E+02 -2.18315E+02
  4.89900E+02 -6.31414E+02  8.54195E+02 -1.88680E+03 -1.82249E+02 -8.81482E+02  2.23648E+03 -5.88606E+02
 -4.89836E+02 -4.44178E+02  1.37339E+03  4.50615E+02 -5.94397E+02  3.19118E+02  2.19600E+03 -3.65000E+02
 -6.14613E+02 -1.72227E+03  1.02415E+03  1.00922E+03  4.45577E+02  9.61496E+02  2.82087E+02  1.82918E+03
 -1.86364E+03  1.12637E+03 -1.17139E+03  4.42009E+02 -2.02073E+03 -9.29516E+02  1.10109E+03 -2.53745E+02
  9.82661E+02 -6.69754E+02  7.65413E+02 -4.81355E+02  5.45851E+02  1.80405E+03 -1.61346E+03  8.98503E+02
 -1.01351E+03  1.10387E+02 -8.82015E+02 -1.35945E+03 -1.05375E+03 -1.58796E+03  6.03276E+02 -1.14119E+03
  2.64912E+01  1.99508E+02  1.38928E+02 -2.16232E+02  9.43979E+02  2.71457E+02  4.54667E+02  1.15447E+03
  1.27422E+01 -3.78213E+02 -5.21954E+02 -3.85987E+02  1.10348E+03 -6.38424E+02  2.68811E+03  7.00786E+02
  6.70888E+02  5.48831E+02  2.10098E+03 -3.42962E+02  1.85057E+03  2.05736E+03 -7.72226E+02  4.50316E+02
 -1.44126E+03 -1.58236E+02 -9.36117E+01 -1.27855E+03 -9.10894E+02 -6.70696E+02  6.69250E+01  1.49973E+02
  1.58061E+03 -1.83882E+02  3.37762E+02  9.50578E+01  4.67097E+02  2.37720E+03  1.02213E+03  1.74940E+03
 -6.40766E+02  9.25236E+02 -6.46146E+02 -4.75954E+01  3.13554E+02  4.53531E+02 -9.02921E+02 -1.27258E+03
 -2.33729E+01  6.14451E+02 -1.66830E+03  1.39912E+01 -6.02042E+02  4.16102E+02 -9.45137E+02 -9.22762E+02
 -4.90082E+02 -1.64088E+03  4.00939E+02 -2.34463E+03 -3.96992E+02 -2.62496E+03  1.60925E+03 -1.12683E+03
  2.31116E+03  3.78302E+02  7.96320E+01  3.33780E+02 -1.37313E+03  1.51174E+03 -7.89500E+02  8.47678E+02
 -9.32824E+02  5.14367E+02 -7.64507E+02  9.11224E+02  7.76606E+02  9.49880E+01 -9.45632E+02  1.71413E+03
 -1.28874E+03  3.76087E+02 -7.42499E+02  1.16433E+02 -2.98642E+01 -6.70448E+02 -7.12262E+01  6.13118E+01
  1.75759E+03 -8.98801E+02  9.40900E+02  4.79924E+02  4.44317E+02  2.02510E+03 -1.10969E+03  3.03464E+02
 -1.90656E+03  1.32044E+03 -1.15582E+03  3.12188E+02 -1.38058E+03 -3.04344E+02 -1.53520E+03 -7.09289E+02
 -7.01234E+02 -3.70850E+02 -4.38184E+02 -7.97946E+02  1.50294E+02 -8.25605E+01  7.92490E+02 -5.41948E+02
  1.22879E+03  6.49176E+02  4.61346E+02  1.94034E+02 -3.90083E+02  3.34006E+02 -1.89359E+02 -4.73908E+02
  3.59909E+01 -2.88720E+02 -1.04435E+03 -2.71922E+02 -4.16176E+02  2.11711E+02  2.05808E+01  5.07786E+02
 -4.09148E+02  5.80847E+02 -7.20783E+02 -6.92639E+02 -1.63870E+03 -4.32168E+01  2.45631E+02 -1.55070E+03
  1.16650E+02 -3.77948E+02  1.02338E+02  1.16173E+03  1.19808E+03 -3.23569E+02 -5.75563E+02  1.17994E+02
 -2.07588E+02  5.43434E+02  1.60315E+01  1.73974E+02 -1.02286E+02  9.00386E+02  5.92563E+01 -2.05602E+02
 -9.28281E+01  3.84253E+02 -4.62529E+02  1.14081E+03 -1.34849E+03 -3.59390E+02 -9.61729E+02  8.64706E+01
 -1.14464E+03  7.57472E+02 -3.10737E+02  2.02245E+02  9.06162E+02 -8.66537E+02  2.84204E+02  2.80719E+02
  1.43149E+03  2.72099E+02 -1.82730E+01 -5.65055E+02 -4.47394E+02  1.22133E+03  4.25076E+02  1.33726E+03
