 $NMID ID='MM_0lb_SNR200_14hz_g55_33.RAW', FMTDAT='(8E13.5)'
 TRAMP=1., VOLUME=1. $END
  3.09229E+05  1.41921E+03  3.37622E+05  2.50236E+05  8.40157E+04  3.38811E+05 -1.32563E+05  2.51663E+05
 -1.91488E+05  8.15793E+04 -1.11770E+05 -3.29790E+04  9.82803E+02 -5.03949E+04  5.49150E+04 -7.42819E+02
  3.52761E+04  5.28245E+04 -1.64002E+04  7.67489E+04 -6.22081E+04  6.33794E+04 -8.39602E+04  3.11999E+04
 -8.07568E+04 -1.27847E+04 -5.72214E+04 -5.17767E+04 -1.55094E+04 -7.06481E+04  2.84585E+04 -4.58479E+04
  3.96133E+04  2.81603E+03  1.75627E+04  4.78036E+04 -3.51696E+04  4.86998E+04 -6.62636E+04 -6.85253E+02
 -5.34441E+04 -5.77481E+04 -8.18386E+03 -7.78499E+04  3.44766E+04 -5.76559E+04  4.81370E+04 -1.63538E+04
  4.35847E+04  1.18440E+04  3.14832E+04  2.66211E+04  1.57747E+04  3.05245E+04 -5.66042E+03  2.71491E+04
 -2.19932E+04  1.06449E+04 -1.79612E+04 -6.04613E+03  5.23613E+03 -7.20812E+03  2.23789E+04  1.24295E+04
  7.52452E+03  3.45624E+04 -3.24840E+04  3.62697E+04 -6.36224E+04  1.90018E+03 -5.64008E+04 -4.29292E+04
 -1.30994E+04 -6.25360E+04  4.08618E+04 -4.60945E+04  5.87985E+04 -2.02159E+03  3.46755E+04  3.33990E+04
 -5.64069E+03  3.75036E+04 -2.97574E+04  1.53302E+04 -3.01681E+04 -2.94922E+03 -1.79156E+04 -1.10553E+04
 -9.02639E+03 -1.53891E+04 -7.69541E+02 -1.75009E+04  7.38307E+03 -2.31689E+04  1.56204E+04 -1.42738E+04
  1.17139E+04  5.30871E+03 -9.23865E+03  1.13580E+04 -2.22435E+04 -5.16722E+03 -7.56494E+03 -3.43615E+04
  2.27469E+04 -4.53098E+04  4.84500E+04 -2.11477E+04  4.51006E+04  1.98671E+04  1.58386E+04  4.39339E+04
 -1.64176E+04  3.47663E+04 -2.62291E+04  1.49897E+03 -1.04590E+04 -2.73264E+04  2.03656E+04 -3.40418E+04
  4.21723E+04 -8.88067E+03  3.63687E+04  2.39136E+04  1.87324E+04  4.72952E+04 -8.01930E+03  5.19213E+04
 -3.17436E+04  3.57644E+04 -4.22351E+04  9.98638E+03 -4.45361E+04 -1.57892E+04 -2.47610E+04 -3.92908E+04
  7.14676E+03 -4.05748E+04  3.23587E+04 -1.46279E+04  3.08618E+04  1.16507E+04  3.63074E+03  1.96202E+04
 -1.35959E+04  8.18861E+03 -1.09897E+04 -8.45541E+03  5.51160E+03 -1.14374E+04  1.79880E+04  5.72113E+03
  1.29213E+04  2.27900E+04 -4.55476E+03  2.60205E+04 -2.26877E+04  1.24961E+04 -2.89977E+04 -3.79184E+03
 -2.17793E+04 -1.77923E+04 -1.01195E+04 -1.98683E+04  3.51607E+03 -2.14205E+04  1.66598E+04 -1.77550E+04
  2.75434E+04 -1.26151E+04  3.39796E+04  2.49491E+03  2.42091E+04  2.05946E+04  4.19622E+03  3.74752E+04
 -1.86126E+04  3.26444E+04 -2.96781E+04  1.06901E+04 -1.99019E+04 -9.56305E+03 -4.60135E+03 -1.25999E+04
  1.73208E+03 -1.95839E+03 -6.02699E+03  6.89883E+03 -1.66462E+04  5.36078E+03 -1.62218E+04 -7.53448E+03
 -1.10556E+04 -1.96170E+04  5.73733E+03 -2.36298E+04  1.73463E+04 -1.70640E+04  1.89557E+04 -1.71652E+03
  1.17877E+04  1.30668E+04 -1.22766E+03  2.09604E+04 -1.23016E+04  1.10720E+04 -2.04000E+04 -4.93501E+03
 -1.42097E+04 -1.75796E+04 -2.09423E+03 -2.40368E+04  1.14762E+04 -1.95185E+04  1.96969E+04 -9.18213E+03
  1.82006E+04 -9.93746E+02  1.37601E+04  5.28138E+03  8.75311E+03  1.08648E+03  1.08263E+04 -2.15030E+03
  1.67219E+04  3.56534E+03  2.05873E+04  1.58569E+04  1.31046E+04  3.12776E+04 -2.74807E+03  3.51974E+04
 -1.95431E+04  2.74298E+04 -3.28097E+04  1.44191E+04 -3.45134E+04 -2.47943E+03 -2.84675E+04 -2.02890E+04
 -1.24854E+04 -3.02340E+04  9.83993E+03 -2.59961E+04  2.27086E+04 -1.41640E+04  1.97895E+04  5.01634E+03
  8.11917E+03  1.58762E+04 -9.26916E+03  1.34198E+04 -1.64085E+04  3.27728E+03 -1.33778E+04 -1.05350E+04
 -2.23079E+02 -1.56882E+04  9.43825E+03 -1.22398E+04  1.13888E+04 -1.53078E+03  1.61322E+03  7.33477E+03
 -6.18860E+03  3.34512E+03 -6.27719E+03 -5.62112E+03 -9.95801E+02 -1.48683E+04  9.48073E+03 -1.34288E+04
  1.77537E+04 -7.99995E+03  1.87409E+04  2.96919E+03  1.48579E+04  1.34023E+04  7.66839E+03  2.16928E+04
 -3.88219E+03  2.28680E+04 -1.37361E+04  1.46960E+04 -1.65849E+04  2.82927E+03 -1.18582E+04 -2.76667E+03
 -6.96360E+03 -4.43984E+03 -2.28687E+03  3.99780E+02 -2.25240E+03  2.75424E+03 -5.47724E+03  5.11495E+03
 -9.70086E+03 -4.00842E+02 -1.24759E+04 -1.09921E+04 -4.31201E+03 -1.48265E+04  3.54285E+03 -1.23841E+04
  1.06415E+04 -4.86746E+03  7.36265E+03  2.09631E+03 -7.23837E+01  5.91561E+03 -5.91521E+03 -1.50022E+02
 -4.95871E+03 -6.94740E+03 -3.84438E+02 -1.20492E+04  6.17480E+03 -1.24422E+04  1.51998E+04 -6.82709E+03
  1.64566E+04  1.44563E+03  1.25428E+04  9.39146E+03  3.46907E+03  1.31990E+04 -7.49808E+03  1.16310E+04
 -1.03731E+04  3.49966E+03 -5.37327E+03 -2.70081E+03  3.00360E+03 -2.14877E+03  6.93702E+03 -2.75518E+03
  4.53153E+03  5.04370E+03  1.45800E+03  9.37359E+03 -6.18169E+03  9.37119E+03 -1.14333E+04  2.84378E+02
 -7.05668E+03 -5.35817E+03  2.58969E+01 -9.62608E+03  5.36020E+03 -6.49017E+03  6.83939E+03  2.60476E+03
  1.57333E+03  6.48146E+03 -5.65586E+03  7.66261E+03 -8.78887E+03  2.49264E+03 -9.48349E+03 -2.78912E+03
 -4.41362E+03 -1.00479E+04  2.94578E+03 -1.11809E+04  1.08382E+04 -7.28810E+03  1.12887E+04  8.89544E+02
  7.41255E+03  8.06806E+03  3.36870E+02  1.05801E+04 -7.91868E+03  6.76316E+03 -8.34983E+03 -5.81729E+02
 -7.13232E+03 -8.19067E+03 -2.91012E+03 -9.11582E+03  3.75564E+03 -7.10101E+03  6.28140E+03 -3.42746E+03
  3.84623E+03  8.01929E+02 -2.27315E+02  2.33332E+03  5.73019E+02 -2.95815E+03  1.52704E+03 -4.74086E+03
  8.24352E+03 -2.72091E+03  1.04159E+04  1.51779E+03  9.43738E+03  7.14590E+03  7.91325E+03  1.29904E+04
 -3.14817E+03  1.55390E+04 -1.28948E+04  1.02681E+04 -1.61443E+04  2.75109E+03 -1.36088E+04 -6.07897E+03
 -6.16250E+03 -1.11439E+04 -1.09250E+02 -9.10015E+03  4.17809E+03 -4.83252E+03  2.99376E+03 -2.52944E+03
  2.12326E+03 -2.08719E+03  2.70028E+03 -2.95018E+03  3.47868E+03 -2.20688E+03  6.41378E+03 -1.09034E+02
  7.05865E+03  1.98339E+03  4.20396E+03  5.31939E+03 -1.49276E+03  6.03961E+03 -6.79475E+03  3.71006E+03
 -9.53717E+03 -1.62769E+02 -4.70270E+03 -6.15060E+03 -3.03572E+02 -8.96119E+03  5.06227E+03 -8.52987E+03
  8.86125E+03 -6.22841E+03  1.13136E+04  8.21124E+02  6.82734E+03  7.91461E+03  1.29215E+03  1.09643E+04
 -4.43883E+03  9.52657E+03 -5.81158E+03  2.96916E+03 -4.31061E+03 -3.41087E+03 -1.21850E+03 -2.17905E+03
 -1.45856E+03 -6.52428E+02 -1.51187E+03  2.16302E+03 -4.10338E+03  9.69841E+02 -7.49337E+03  4.88313E+02
 -4.93508E+03 -6.23227E+03  5.16721E+02 -7.97566E+03  3.61218E+03 -8.77277E+03  8.37782E+03 -2.53097E+03
  8.25672E+03  3.66587E+03  4.95240E+03  7.87858E+03 -1.96066E+03  7.88855E+03 -5.72638E+03  6.52427E+03
 -7.86810E+03  6.90143E+02 -6.67382E+03 -3.51317E+03  3.89154E+02 -7.01033E+03  4.18755E+03 -5.81993E+03
  5.58115E+03 -2.69978E+03  3.61022E+03  9.91890E+02  1.51024E+03  1.89529E+03  1.19790E+03  2.20967E+03
  1.98137E+03  5.38477E+02  2.77155E+03  2.02830E+03  2.98317E+03  3.14845E+03  2.91635E+03  3.51557E+03
 -1.16401E+03  5.07191E+03 -4.45244E+03  6.88527E+03 -7.60215E+03  2.11407E+03 -7.62363E+03 -3.18654E+03
 -4.06261E+03 -8.33277E+03  1.20626E+03 -9.43039E+03  5.04020E+03 -5.06266E+03  5.65346E+03  5.43671E+02
  4.51644E+03  1.91670E+03  1.68742E+03  3.60556E+03 -1.03031E+03  1.67759E+03 -2.65618E+03 -2.89738E+02
 -1.62676E+03 -3.16676E+03  2.28583E+03 -3.36270E+03  1.72499E+03 -1.98878E+03  3.24595E+03 -1.73207E+02
  2.40890E+03  1.59432E+03  9.80012E+02  4.98937E+02 -3.35716E+02  1.63095E+03  1.80473E+03 -6.17992E+02
 -4.48501E+02 -9.71500E+02  2.70121E+03  1.26236E+03  6.42747E+02  5.34307E+03  2.10750E+01  5.29941E+03
 -3.59977E+03  2.47300E+03 -4.07624E+03  1.09706E+03 -3.73052E+03 -2.47808E+03 -2.40393E+02 -4.16434E+03
  1.59563E+03 -1.90093E+03  1.51078E+03 -2.54196E+03  2.01722E+03  1.24556E+03 -1.23527E+03  2.33353E+03
 -3.66911E+03  2.54151E+03 -2.91057E+03 -1.56347E+03 -1.56815E+03 -4.70837E+03  1.16387E+03 -5.03395E+03
  2.08801E+03 -2.56109E+03  2.12098E+03 -2.53402E+01  2.08704E+03 -2.59892E+01  1.39131E+03  1.45278E+03
  4.89622E+02  1.78496E+02 -2.58381E+03 -1.14244E+03  8.84012E+02 -3.20237E+03  3.25983E+03 -1.87351E+03
  2.58266E+03 -3.22978E+02  5.42421E+03  3.24361E+03  2.47924E+03  4.94320E+03  3.07837E+02  3.31922E+03
 -3.49472E+03  2.48806E+03 -4.28713E+03 -7.55414E+01 -2.74424E+03 -3.70818E+03  7.12338E+02 -2.82212E+03
  2.60801E+03 -1.19901E+03  2.18066E+03  1.82198E+03  1.39669E+02  2.85474E+03  2.83361E+01  1.80844E+03
  2.10777E+02  6.24458E+02 -1.63357E+02 -8.62964E+02  1.01952E+02  3.68959E+02 -9.89475E+02  2.64926E+02
 -1.21875E+03  8.33035E+02 -2.61165E+03  1.55455E+03 -3.68232E+03 -1.09087E+02 -5.39374E+03 -3.59525E+03
 -2.91957E+03 -5.91493E+03  3.45108E+02 -5.54701E+03  2.38219E+03 -4.15188E+03  6.30306E+03 -2.98701E+03
  6.41658E+03  2.97274E+02  2.74619E+03  3.13900E+03  9.44787E+02  4.43097E+03 -5.55432E+01  2.92797E+03
 -3.46847E+03  1.69256E+03 -1.54054E+03 -3.28237E+02 -7.37853E+01  6.27243E+01 -3.59495E+02  1.43042E+03
 -2.26958E+02  9.80267E+02 -2.78048E+02  2.67926E+02  5.72578E+02 -1.21370E+03 -9.37299E+02 -2.92279E+03
  2.68027E+03 -1.27890E+03  2.29444E+03  1.56646E+03  3.68905E+03  1.38033E+03  6.43929E+02  3.81820E+03
 -2.65323E+03  6.10809E+03 -3.79435E+03  3.06469E+03 -4.60941E+03  1.02966E+02 -3.73475E+03 -3.13073E+03
 -2.66539E+03 -4.89859E+03  7.62297E+02 -4.04671E+03  2.29937E+03 -1.90008E+03  2.68158E+03  2.63299E+02
  2.87639E+03  1.08558E+03 -6.41340E+02  1.80480E+02  6.66229E+02 -3.81364E+02  2.04955E+02 -1.91403E+02
  1.42616E+03 -4.05439E+02  2.52109E+03  1.11835E+03  2.54394E+03  1.56559E+03 -2.31204E+02  3.33167E+03
 -7.46774E+02  2.53924E+03 -4.01181E+03  2.05652E+02 -2.89744E+03 -1.00093E+03 -5.61120E+02 -4.30384E+03
  1.88174E+03 -7.29427E+02  2.71428E+03  1.27996E+02  2.28853E+03  4.48984E+02  1.38099E+03  2.51565E+03
  5.20309E+02  1.87731E+03 -5.28499E+02  2.30001E+03 -1.99935E+03  1.82440E+03 -2.21870E+03  5.47394E+01
 -7.71228E+02  5.07987E+02 -8.87717E+02  1.06815E+03 -1.57719E+03 -3.39261E+01 -1.66959E+03  3.58743E+02
 -1.53447E+03 -1.55114E+01  1.90027E+02 -1.67529E+03  6.66204E+02 -3.16341E+03  2.33208E+03 -1.17313E+03
  1.66732E+03 -7.96068E+02  2.49913E+03  1.32706E+03 -7.37305E+02  1.75770E+03 -7.67188E+02  8.67418E+02
