 $NMID ID='MM_0lb_SNR200_18hz_g40_11.RAW', FMTDAT='(8E13.5)'
 TRAMP=1., VOLUME=1. $END
  3.09460E+05  6.65714E+02  3.37548E+05  2.50592E+05  8.35357E+04  3.37211E+05 -1.31931E+05  2.49953E+05
 -1.89567E+05  8.22054E+04 -1.10062E+05 -3.36553E+04  1.48166E+03 -5.16133E+04  5.37751E+04  3.41145E+02
  3.54221E+04  5.25977E+04 -1.67397E+04  7.45992E+04 -6.05818E+04  6.25499E+04 -8.25257E+04  3.15631E+04
 -7.92935E+04 -1.07576E+04 -5.64640E+04 -4.95081E+04 -1.58971E+04 -6.76606E+04  2.76104E+04 -4.45127E+04
  3.92388E+04  4.81902E+03  1.50617E+04  4.71493E+04 -3.36373E+04  4.59493E+04 -6.57802E+04 -7.69758E+02
 -5.10180E+04 -5.56911E+04 -5.64833E+03 -7.61304E+04  3.33120E+04 -5.23267E+04  4.69926E+04 -1.50610E+04
  4.15382E+04  1.06283E+04  3.05480E+04  2.39459E+04  1.57131E+04  2.74038E+04 -4.49286E+03  2.62701E+04
 -2.25890E+04  1.28096E+04 -1.93705E+04 -4.52726E+03  5.31211E+03 -7.57488E+03  2.10221E+04  9.90613E+03
  6.81782E+03  3.26180E+04 -2.97449E+04  3.45456E+04 -6.03389E+04  2.64734E+03 -5.58226E+04 -4.12277E+04
 -1.26183E+04 -6.05347E+04  3.74244E+04 -4.31160E+04  5.47808E+04 -1.36224E+03  3.16547E+04  3.05335E+04
 -6.59994E+03  3.32192E+04 -2.79359E+04  1.32023E+04 -2.78290E+04 -6.37597E+03 -1.44965E+04 -1.06317E+04
 -7.36078E+03 -1.07432E+04 -9.00435E+02 -1.63673E+04  5.83770E+03 -2.31578E+04  1.53657E+04 -1.42167E+04
  1.36432E+04  4.94004E+03 -5.73684E+03  1.31608E+04 -1.89716E+04 -1.55419E+03 -8.26343E+03 -3.06553E+04
  2.10820E+04 -4.06221E+04  4.51740E+04 -1.75490E+04  4.13348E+04  1.86409E+04  1.34741E+04  4.15887E+04
 -1.56441E+04  3.07588E+04 -2.41680E+04  7.36356E+02 -7.83190E+03 -2.77478E+04  2.12012E+04 -3.10883E+04
  3.76137E+04 -6.94661E+03  3.01506E+04  2.36753E+04  1.57201E+04  4.24918E+04 -7.27081E+03  4.44988E+04
 -2.83382E+04  2.85116E+04 -3.64535E+04  8.79391E+03 -3.75279E+04 -1.49541E+04 -2.07263E+04 -3.49658E+04
  5.91196E+03 -3.27354E+04  2.77491E+04 -1.21856E+04  2.61070E+04  1.10195E+04  2.88908E+03  1.73608E+04
 -1.16570E+04  7.41511E+03 -1.04975E+04 -7.13429E+03  5.09712E+03 -9.58643E+03  1.75295E+04  7.59349E+03
  1.23885E+04  2.08614E+04 -7.68799E+03  2.41507E+04 -2.16549E+04  9.25992E+03 -2.52393E+04 -5.98886E+03
 -1.65562E+04 -1.64250E+04 -6.02125E+03 -1.73283E+04  3.82523E+03 -1.44986E+04  1.22529E+04 -1.43306E+04
  2.23589E+04 -1.13889E+04  2.81346E+04  7.86588E+02  2.05610E+04  1.58426E+04  3.72794E+03  3.22837E+04
 -1.50880E+04  2.66928E+04 -2.55103E+04  1.03671E+04 -1.90372E+04 -9.87811E+03 -4.00587E+03 -1.39628E+04
  2.86024E+03 -4.70260E+03 -2.39985E+03  4.17205E+03 -1.25706E+04  5.98545E+03 -1.46915E+04 -5.09220E+03
 -7.81645E+03 -1.46992E+04  5.15289E+03 -1.97907E+04  1.20720E+04 -1.32631E+04  1.38854E+04 -1.56677E+03
  9.99515E+03  1.07511E+04 -1.21838E+03  1.46295E+04 -1.03300E+04  8.88093E+03 -1.60109E+04 -4.11169E+03
 -1.07011E+04 -1.38919E+04 -9.33332E+02 -1.90270E+04  8.07834E+03 -1.58733E+04  1.64269E+04 -7.97042E+03
  1.39982E+04  8.98278E+02  1.09284E+04  3.36341E+03  6.21714E+03  5.88044E+02  6.98271E+03 -1.52325E+03
  1.33483E+04  2.45391E+03  1.40544E+04  1.12196E+04  9.59867E+03  2.50005E+04 -3.54084E+03  2.65552E+04
 -1.51718E+04  2.01032E+04 -2.46642E+04  9.92466E+03 -2.40767E+04 -2.05261E+03 -2.12331E+04 -1.55501E+04
 -1.04824E+04 -1.96699E+04  6.24754E+03 -2.03043E+04  1.67431E+04 -1.05703E+04  1.55618E+04  3.34707E+03
  6.56900E+03  1.15262E+04 -7.58239E+03  1.12832E+04 -1.32967E+04  2.50809E+03 -1.08964E+04 -7.38899E+03
 -6.44011E+02 -1.25683E+04  4.94990E+03 -9.60415E+03  7.40694E+03 -1.09268E+03  1.41998E+03  5.70096E+03
 -6.33143E+03  4.57725E+02 -4.06131E+03 -4.59082E+03  1.04554E+03 -1.05214E+04  7.79541E+03 -9.85751E+03
  1.29864E+04 -4.43854E+03  1.17866E+04  2.74111E+03  9.82140E+03  9.53654E+03  4.54800E+03  1.33144E+04
 -1.19548E+03  1.55791E+04 -9.48299E+03  1.19431E+04 -1.08444E+04  2.20109E+03 -7.23435E+03 -2.67665E+03
 -5.45437E+03 -3.91674E+03 -1.07989E+03  1.81426E+03 -1.78652E+03  1.85089E+03 -4.26782E+03  2.69782E+03
 -7.94090E+03 -1.44797E+03 -8.33098E+03 -7.42452E+03 -3.33855E+03 -1.19732E+04  3.66921E+03 -8.13691E+03
  7.65088E+03 -5.04933E+03  5.47449E+03  3.45132E+02  6.78523E+02  3.06159E+03 -3.77602E+03 -5.01940E+02
 -2.54238E+03 -5.00723E+03  5.41608E+02 -6.51313E+03  3.35271E+03 -8.17801E+03  9.62140E+03 -3.69348E+03
  1.16270E+04 -8.87527E+02  8.10807E+03  6.54689E+03  1.47173E+03  9.02622E+03 -5.61211E+03  8.94386E+03
 -6.68395E+03  2.97564E+03 -3.46976E+03 -7.47360E+02  1.36089E+03 -3.06866E+03  4.36506E+03 -8.86875E+02
  3.59227E+03  2.71312E+03  8.04741E+02  6.75049E+03 -4.55559E+03  8.51386E+03 -7.77800E+03  1.94886E+03
 -4.72736E+03 -4.90708E+03  1.93586E+02 -5.54389E+03  3.63822E+03 -2.26992E+03  3.87910E+03  1.34955E+03
  3.34390E+02  3.65846E+03 -3.68109E+03  3.72330E+03 -4.53420E+03  2.80051E+03 -5.48728E+03 -2.04503E+03
 -3.07843E+03 -6.23293E+03  3.09452E+02 -6.28291E+03  6.93546E+03 -4.46859E+03  7.12287E+03  2.06610E+03
  4.43939E+03  6.69941E+03  1.29546E+03  6.82989E+03 -4.58089E+03  3.67239E+03 -4.16986E+03 -2.79241E+02
 -5.81897E+03 -5.46001E+03 -6.46963E+02 -4.70836E+03  1.15504E+03 -5.16190E+03  2.54689E+03 -3.44657E+03
  1.83234E+03  8.19641E+02  3.78129E+02  2.02793E+03  8.36668E+02 -1.08902E+02 -2.93726E+02 -1.16377E+03
  3.69912E+03 -1.69289E+03  3.88326E+03  9.63192E+02  5.40752E+03  2.91744E+03  4.84784E+03  7.03991E+03
 -1.49708E+03  8.70912E+03 -7.45375E+03  6.51665E+03 -1.05128E+04  1.21504E+03 -7.88461E+03 -1.31522E+03
 -4.54490E+03 -6.92391E+03 -1.26130E+03 -6.51246E+03  1.67544E+03 -2.37402E+03  1.42493E+03 -2.15270E+03
  6.52906E+02 -1.96485E+03  2.07547E+03 -2.16199E+03  4.22123E+03 -1.09221E+03  2.83483E+03 -7.19397E+02
  5.31672E+03  1.27938E+03  1.43597E+03  2.32081E+03 -1.26866E+03  3.01354E+03 -4.45483E+03  2.81905E+03
 -5.15077E+03 -1.51836E+03 -2.78066E+03 -3.22636E+03  1.14244E+03 -3.86358E+03  3.37533E+03 -5.05019E+03
  5.07395E+03 -3.86913E+03  6.42234E+03  3.12109E+02  4.82940E+03  4.34980E+03  1.67195E+03  4.91003E+03
 -2.50460E+03  6.27180E+03 -3.15229E+03  8.57761E+02 -2.63543E+03 -1.18398E+03 -8.20960E+02 -2.02360E+02
 -7.60496E+02  1.09461E+03 -2.82866E+03  3.68503E+03 -2.18069E+03  7.74869E+02 -4.42684E+03  9.17452E+02
 -1.50425E+03 -3.29874E+03  1.70441E+03 -4.97984E+03  3.09431E+03 -5.04886E+03  2.99166E+03 -8.52291E+02
  3.95903E+03  2.35951E+03  2.39713E+03  4.33166E+03 -9.90247E+02  4.16096E+03 -2.51714E+03  1.91942E+03
 -3.93848E+03 -7.07748E+02 -4.24592E+03 -2.50675E+03 -1.25632E+03 -3.29103E+03  2.19134E+03 -4.25425E+03
  1.79615E+03 -1.82163E+03  2.48267E+03  1.56759E+03  2.95630E+02  1.24327E+03  1.14683E+03  1.09267E+03
  2.02791E+03 -8.59626E+01  1.98391E+03  1.20599E+03  1.08753E+03  1.77105E+03  8.63988E+02  1.43582E+03
 -1.91539E+03  3.71814E+03 -2.26806E+03  3.51238E+03 -3.97276E+03  9.40014E+02 -4.34577E+03  1.05894E+03
 -1.20018E+03 -2.89789E+03  9.41648E+02 -5.14372E+03  2.64587E+03 -2.74056E+03  3.26289E+03 -2.32005E+02
  2.92273E+03  2.20156E+03  4.74517E+02  2.08798E+03 -1.31935E+03  1.17983E+03 -4.22628E+02 -6.76323E+02
 -1.18837E+03 -1.74753E+03  1.05032E+03 -1.33010E+03  1.54606E+03 -1.22506E+03  1.66886E+03 -4.64484E+01
  5.79221E+02  1.14249E+02  9.11298E+02  5.88882E+01 -3.62956E+02  1.89502E+03  8.66676E+02 -1.64052E+01
  4.88005E+02 -3.40035E+02  3.16563E+03  6.28159E+02  8.48038E+02  1.87177E+03 -1.06523E+03  3.05032E+03
 -1.74816E+03  1.24958E+03 -2.07589E+03  5.87307E+02 -2.05132E+03 -5.49046E+02 -1.27924E+03 -6.59991E+02
  4.81993E+02 -1.96122E+03  9.95846E+02 -1.26561E+03 -3.69900E+02  1.10319E+03 -1.42668E+03  1.89640E+03
 -2.35380E+03  9.86623E+01 -1.56641E+03 -6.13952E+02 -5.15960E+02 -3.17608E+03 -7.45273E+02 -7.16843E+02
  4.70178E+02 -3.74871E+02  1.43412E+03  9.60106E+02  2.25632E+03 -6.87707E+02  1.16161E+02  9.75405E+02
 -4.24567E+02  9.35417E+02 -2.51342E+03 -4.70408E+02 -4.18271E+02 -5.99185E+02  1.48918E+03 -1.82079E+03
  1.03775E+03  2.04795E+02  2.71239E+03  1.19450E+03  7.45302E+02  1.00314E+03 -3.95271E+02  2.48774E+03
 -1.15732E+03 -4.55438E+02 -1.86614E+03  1.50858E+02 -9.82373E+02 -1.69864E+03 -2.05995E+02 -1.35536E+03
  1.46455E+03 -3.19236E+02  1.82854E+03  9.09586E+02 -1.32590E+03  8.27492E+02  2.89707E+02  1.38905E+03
  1.43979E+02  3.95033E+02  1.59205E+02  3.43407E+02 -1.12544E+03 -1.52262E+01 -9.59940E+02  1.66960E+02
 -9.74521E+02  1.67056E+03 -1.85351E+03  6.89917E+02 -3.37446E+03  1.25555E+03 -2.44240E+03 -1.43900E+03
 -7.50448E+02 -2.02519E+03  3.64199E+01 -2.85215E+03  1.20989E+03 -1.87568E+03  3.47974E+03 -1.08861E+03
  3.83998E+03  4.68465E+02  1.23790E+03  1.43765E+03 -5.05968E+02  2.57583E+03 -5.47505E+02  1.83024E+03
 -3.05588E+03  9.88096E+01 -4.83126E+01 -9.35307E+02 -2.98602E+02  5.56720E+02 -1.21354E+03 -4.40275E+02
 -2.12664E+03 -5.92717E+02 -2.83853E+02  6.41379E+02 -1.44869E+02 -9.53529E+02 -1.16077E+03 -4.45662E+02
 -7.73014E+01 -1.62514E+02  1.19071E+03  8.15279E+02  5.96000E+02  1.09782E+03  1.16775E+02  1.39508E+03
 -1.06620E+03  1.99542E+03 -1.39513E+03  1.93210E+03 -1.31372E+03  3.30423E+02 -1.48839E+03 -1.22811E+03
 -1.88568E+03 -2.70662E+03  4.16875E+02 -2.08477E+03  6.10488E+02 -5.30331E+02  9.01581E+02 -1.63369E+02
  1.56954E+03  6.65440E+02 -4.98806E+02  5.20029E+02 -1.31600E+03 -9.98750E+02  6.59484E+02  5.85421E+02
 -8.92288E+01  8.32263E+02  4.95453E+02  7.23851E+02  2.88424E+02  1.00450E+03  1.26446E+03 -5.01813E+02
  9.27709E+01  3.45337E+02 -1.52947E+03 -3.56261E+02 -4.96781E+02 -8.78600E+02 -7.71858E+02 -6.53988E+02
  9.32404E+02 -3.48655E+02  1.22642E+03  1.14344E+01  1.17710E+03 -2.20277E+02  2.31878E+02  1.15044E+03
  2.93101E+02  3.21283E+02 -6.37384E+02  3.54651E+02 -1.57172E+03 -5.52775E+02 -1.01668E+03 -6.05187E+02
  7.92085E+02  1.52728E+01 -4.66034E+02 -1.40860E+02 -8.25947E+02 -1.38168E+02 -1.13106E+02 -9.22645E+00
 -1.23228E+03 -2.09798E+02 -5.46270E+01 -9.70006E+02  1.08966E+03 -1.56761E+03  2.78237E+02 -2.72910E+02
  3.15095E+02 -5.26610E+02 -7.22997E+02  3.04069E+02 -1.38465E+03  7.14745E+02 -3.27069E+02  1.20705E+02
