 $NMID ID='MM_0lb_SNR200_9hz_g60_23.RAW', FMTDAT='(8E13.5)'
 TRAMP=1., VOLUME=1. $END
  3.09547E+05  1.56090E+03  3.37045E+05  2.50152E+05  8.58242E+04  3.40191E+05 -1.31215E+05  2.51294E+05
 -1.90734E+05  8.46474E+04 -1.13054E+05 -3.11241E+04 -1.81862E+02 -5.21719E+04  5.36313E+04 -1.94737E+03
  3.68494E+04  5.27876E+04 -1.71618E+04  7.56759E+04 -5.97867E+04  6.44714E+04 -8.63275E+04  3.20333E+04
 -8.35852E+04 -1.29439E+04 -5.96533E+04 -5.30016E+04 -1.43764E+04 -7.17877E+04  2.74121E+04 -4.85657E+04
  4.22092E+04  8.66913E+02  1.74896E+04  4.75780E+04 -3.44354E+04  4.90872E+04 -6.81617E+04  1.22231E+03
 -5.42710E+04 -5.63519E+04 -8.52570E+03 -7.84621E+04  3.42408E+04 -5.91012E+04  4.95651E+04 -1.77708E+04
  4.59327E+04  1.29429E+04  3.37979E+04  2.72456E+04  1.59212E+04  3.02642E+04 -6.28280E+03  2.89492E+04
 -2.13779E+04  9.52684E+03 -1.67750E+04 -6.19401E+03  8.14150E+03 -7.57431E+03  2.39014E+04  1.51603E+04
  6.24168E+03  3.83325E+04 -3.27713E+04  3.63557E+04 -6.61816E+04  1.50622E+03 -5.93907E+04 -4.43593E+04
 -1.31263E+04 -6.77604E+04  4.24875E+04 -4.81171E+04  6.21709E+04 -2.06943E+03  3.75006E+04  3.46804E+04
 -6.96893E+03  4.06460E+04 -3.18686E+04  1.94775E+04 -3.43335E+04 -3.40482E+03 -2.04197E+04 -1.11815E+04
 -9.68365E+03 -1.74800E+04 -4.84381E+02 -1.95957E+04  8.61763E+03 -2.45737E+04  1.65351E+04 -1.34962E+04
  7.86514E+03  6.27403E+03 -1.11041E+04  1.24309E+04 -2.42735E+04 -8.85941E+03 -8.18208E+03 -3.81768E+04
  2.61772E+04 -4.69568E+04  5.36951E+04 -2.05821E+04  4.99025E+04  2.10817E+04  1.75428E+04  4.89243E+04
 -1.58076E+04  3.54068E+04 -2.92427E+04  3.15594E+03 -1.15741E+04 -2.87439E+04  2.11815E+04 -3.64615E+04
  4.52088E+04 -1.22148E+04  4.07424E+04  2.62271E+04  2.20141E+04  5.12127E+04 -7.38491E+03  5.77231E+04
 -3.71935E+04  3.88230E+04 -4.87198E+04  1.20067E+04 -4.89590E+04 -1.77093E+04 -2.62395E+04 -4.42262E+04
  7.34861E+03 -4.47592E+04  3.49788E+04 -1.91016E+04  3.43160E+04  1.16313E+04  5.56365E+03  2.05505E+04
 -1.40599E+04  1.11282E+04 -1.06711E+04 -5.82631E+03  4.85145E+03 -1.31402E+04  2.06688E+04  5.26356E+03
  1.50807E+04  2.32894E+04 -4.88192E+03  2.65395E+04 -2.28541E+04  1.53995E+04 -3.08025E+04 -4.21224E+03
 -2.62739E+04 -1.81583E+04 -1.17233E+04 -2.50525E+04  4.81834E+03 -2.67189E+04  2.01748E+04 -2.32634E+04
  3.33699E+04 -1.35226E+04  3.78251E+04  4.88084E+03  2.72484E+04  2.35278E+04  2.86148E+03  4.19782E+04
 -2.10699E+04  3.38148E+04 -3.26337E+04  1.35572E+04 -2.18268E+04 -1.02499E+04 -5.42995E+03 -1.12570E+04
  9.86203E+02 -1.66153E+00 -8.21893E+03  8.35739E+03 -2.20623E+04  6.68929E+03 -2.10624E+04 -1.15623E+04
 -1.30492E+04 -2.43724E+04  6.39981E+03 -2.91961E+04  2.10162E+04 -1.97826E+04  2.30784E+04 -1.05465E+03
  1.60792E+04  1.70395E+04 -1.36761E+03  2.30449E+04 -1.73663E+04  1.46397E+04 -2.27704E+04 -3.75245E+03
 -1.63931E+04 -2.15893E+04 -7.13483E+02 -2.92556E+04  1.34356E+04 -2.34233E+04  2.39720E+04 -1.31231E+04
  2.29808E+04 -3.66593E+01  1.64927E+04  6.13974E+03  1.07115E+04  1.02078E+03  1.17147E+04 -1.69733E+03
  2.38623E+04  2.77507E+03  2.80643E+04  1.94856E+04  1.86973E+04  3.93571E+04 -1.55524E+03  4.61381E+04
 -2.65107E+04  3.85281E+04 -4.35079E+04  2.10895E+04 -4.67307E+04 -4.16562E+03 -3.77127E+04 -2.70507E+04
 -1.34471E+04 -3.81641E+04  1.39026E+04 -3.47876E+04  2.96075E+04 -1.55645E+04  2.52038E+04  6.08499E+03
  8.66334E+03  1.97457E+04 -1.16387E+04  1.52369E+04 -2.12096E+04  3.02284E+03 -1.44626E+04 -1.39476E+04
 -8.93420E+02 -2.06187E+04  1.09728E+04 -1.32237E+04  1.26369E+04 -1.17999E+02  3.03231E+03  9.20397E+03
 -8.59997E+03  4.56579E+03 -1.04454E+04 -7.53795E+03 -1.30622E+03 -1.91330E+04  1.24685E+04 -2.19996E+04
  2.51731E+04 -1.30839E+04  2.96061E+04  3.05370E+03  2.51137E+04  1.89434E+04  1.17481E+04  3.22070E+04
 -6.81388E+03  3.32852E+04 -2.21474E+04  1.96859E+04 -2.36981E+04  3.15495E+03 -1.56937E+04 -6.28564E+03
 -5.23242E+03 -8.39655E+03  3.60574E+02 -7.06955E+02 -4.14909E+03  4.50307E+03 -6.49085E+03  6.32438E+03
 -1.34196E+04 -1.95393E+03 -1.56783E+04 -1.18856E+04 -6.98554E+03 -1.96024E+04  6.86550E+03 -1.62529E+04
  1.38170E+04 -5.57158E+03  9.41557E+03  5.03548E+03  5.62769E+02  5.82095E+03 -9.03931E+03  7.66587E+02
 -7.89062E+03 -1.05898E+04  2.65455E+02 -1.67498E+04  8.22383E+03 -1.77847E+04  2.17916E+04 -1.01127E+04
  2.53952E+04  1.89859E+03  1.91098E+04  1.59997E+04  3.61260E+03  2.19223E+04 -8.85527E+03  1.70827E+04
 -1.31392E+04  6.35063E+03 -7.69383E+03 -3.45989E+03  2.23717E+03 -4.45632E+03  8.76328E+03 -1.11886E+03
  1.03780E+04  6.62300E+03  2.02392E+03  1.42216E+04 -9.32343E+03  1.31034E+04 -1.68907E+04  3.16358E+03
 -1.26226E+04 -8.54196E+03  4.15166E+02 -1.37647E+04  7.52617E+03 -7.76413E+03  1.05054E+04  1.77329E+03
  2.88404E+03  1.18258E+04 -8.53711E+03  1.05041E+04 -1.38914E+04  3.43865E+03 -1.50005E+04 -6.38392E+03
 -8.82269E+03 -1.83274E+04  2.96054E+03 -1.93469E+04  1.50352E+04 -1.15877E+04  1.92735E+04  3.45946E+03
  1.10811E+04  1.45197E+04 -9.91409E+02  1.79676E+04 -1.12850E+04  8.82788E+03 -1.50383E+04 -1.85089E+03
 -1.14696E+04 -1.22005E+04 -2.66451E+03 -1.19544E+04  5.21845E+03 -1.03425E+04  6.48938E+03 -2.50690E+03
  5.06704E+03  2.55366E+03 -4.82981E+02  1.68727E+03 -1.11705E+03 -4.76962E+03  4.55073E+03 -6.53886E+03
  1.30465E+04 -4.29047E+03  1.73247E+04  4.15540E+03  1.65827E+04  1.15888E+04  1.07935E+04  2.21175E+04
 -5.73102E+03  2.60938E+04 -2.17130E+04  1.80117E+04 -2.84348E+04  3.96931E+03 -2.16581E+04 -9.50552E+03
 -1.07653E+04 -1.93044E+04  7.68772E+02 -1.76578E+04  4.73309E+03 -8.96031E+03  6.11679E+03 -4.94544E+03
  6.22681E+03 -3.10438E+03  3.27783E+03 -6.23125E+03  7.03743E+03 -2.25239E+03  8.51946E+03 -3.27440E+02
  1.17967E+04  1.14018E+03  4.13209E+03  1.05406E+04 -2.00765E+03  1.25431E+04 -1.23971E+04  8.92168E+03
 -1.74201E+04 -1.27908E+03 -1.10275E+04 -1.13159E+04  3.75237E+02 -1.76544E+04  8.50095E+03 -1.60628E+04
  1.82939E+04 -1.05681E+04  2.11477E+04  1.13009E+03  1.52575E+04  1.42812E+04  1.27902E+03  1.86596E+04
 -7.77690E+03  1.57765E+04 -1.13323E+04  5.14320E+03 -1.00967E+04 -1.60587E+03 -4.27892E+03 -1.21050E+03
 -1.62106E+03 -6.93105E+01 -2.39267E+03  1.76484E+03 -5.40101E+03  3.01765E+03 -1.12856E+04 -3.33314E+02
 -8.37232E+03 -1.24123E+04  4.12868E+02 -1.41782E+04  9.80471E+03 -1.47794E+04  1.60126E+04 -5.01868E+03
  1.51502E+04  6.88913E+03  7.94875E+03  1.45463E+04 -3.86123E+03  1.70054E+04 -1.06958E+04  9.01793E+03
 -1.44399E+04 -9.64038E+02 -1.10471E+04 -9.07279E+03 -1.52187E+03 -1.20193E+04  6.90976E+03 -1.08181E+04
  1.01709E+04 -2.58935E+03  6.90498E+03  2.74867E+03  3.07890E+03  5.02547E+03  9.53775E+02 -1.72870E+02
  4.60652E+03  1.12745E+03  3.74132E+03  6.96813E+02  6.44137E+03  6.29126E+03  4.00300E+03  8.82611E+03
 -2.09485E+03  1.39229E+04 -1.30012E+04  1.23250E+04 -1.69888E+04  3.50593E+03 -1.78487E+04 -6.85770E+03
 -9.41696E+03 -1.63960E+04  3.18878E+03 -1.66510E+04  1.01864E+04 -1.05912E+04  1.35827E+04 -3.56107E+03
  7.99478E+03  5.54933E+03  3.46906E+03  9.36809E+03 -5.93831E+03  7.39376E+03 -7.20505E+03 -1.27553E+03
 -2.69655E+03 -7.30339E+03  3.38291E+03 -7.23140E+03  9.32879E+03 -4.07255E+03  6.03162E+03  1.93782E+02
  3.14574E+03  3.52234E+03  1.33497E+03  2.30545E+03 -1.30559E+03  3.02548E+03  1.24947E+03 -2.04597E+03
  2.11666E+03 -4.31237E+02  6.80193E+03  3.65371E+03  2.09194E+03  1.04964E+04 -2.91055E+03  9.90228E+03
 -6.41017E+03  7.70772E+03 -1.02119E+04  2.04792E+03 -8.75359E+03 -3.96490E+03 -5.22263E+03 -6.17165E+03
  2.13253E+03 -6.16047E+03  4.51517E+03 -2.65203E+03  3.32542E+03  1.75840E+03 -9.12322E+02  4.88069E+03
 -6.29824E+03  1.02357E+03 -8.25277E+03 -6.65636E+03 -3.48039E+03 -9.29414E+03  2.42051E+03 -8.54751E+03
  4.01692E+03 -6.00057E+03  6.33126E+03 -4.23212E+02  6.39732E+03  9.60858E+02  9.91473E+02  6.34514E+03
 -2.68008E+03  1.52241E+03 -3.61201E+03 -5.47965E+03  3.97017E+02 -7.38160E+03  8.65598E+03 -6.36991E+03
  9.93039E+03 -6.94205E+02  1.01290E+04  6.23697E+03  2.41391E+03  1.08423E+04 -3.38554E+03  1.05765E+04
 -9.93070E+03  3.68101E+03 -8.79960E+03 -7.78842E+02 -5.34600E+03 -7.73695E+03  1.61615E+03 -8.04841E+03
  6.18889E+03 -3.38158E+03  6.14119E+03  2.35598E+03  2.10247E+03  6.57227E+03 -1.61479E+03  4.26568E+03
 -3.84286E+03  2.08049E+03 -2.78263E+03  2.86579E+02 -4.65981E+02  1.86396E+03 -1.64296E+03  1.60018E+03
 -2.99637E+03  3.61607E+03 -6.92207E+03  5.13440E+03 -9.83630E+03 -1.15643E+03 -1.26991E+04 -7.18435E+03
 -6.80040E+03 -1.23003E+04  3.11262E+03 -1.65217E+04  1.03365E+04 -1.39835E+04  1.73253E+04 -5.62055E+03
  1.71060E+04  3.62767E+03  9.84736E+03  9.54333E+03  1.19686E+03  1.32869E+04 -3.93752E+03  9.11896E+03
 -6.03059E+03  2.31752E+03 -3.69525E+03 -1.19051E+03  1.37794E+03  6.27055E+02 -4.82264E+02 -2.42663E+02
 -1.16239E+03 -7.21608E+02 -3.97214E+03 -1.14665E+03  3.83833E+01 -2.47410E+03 -7.80170E+02 -5.55658E+03
  4.20759E+03 -3.26716E+03  6.48163E+03 -4.68854E+02  6.09727E+03  5.83057E+03  8.82139E+02  1.25343E+04
 -3.92634E+03  1.31216E+04 -1.32470E+04  7.56879E+03 -1.38397E+04 -1.44613E+03 -1.24964E+04 -8.12343E+03
 -4.77605E+03 -1.32370E+04  2.90765E+03 -8.78411E+03  8.87228E+03 -4.87084E+03  7.86941E+03  1.48791E+03
  3.89309E+03  3.23655E+03 -1.54287E+03  2.86428E+03 -2.28048E+03 -7.84575E+02 -2.43866E+02 -2.82094E+03
  2.95636E+03 -1.87315E+03  7.19104E+03  1.77323E+03  3.29852E+03  4.81285E+03  1.40827E+03  5.49328E+03
 -4.82756E+03  3.78495E+03 -1.00869E+04  7.15372E+02 -7.46771E+03 -5.01683E+03 -2.46380E+03 -7.65645E+03
  3.51916E+03 -6.96992E+03  9.06062E+03 -2.25082E+03  1.05803E+04  3.03381E+03  2.66753E+03  7.20556E+03
 -1.76015E+03  8.46691E+03 -1.51643E+03  5.11719E+03 -4.79416E+03  2.47830E+03 -4.26290E+03  5.83709E+02
 -1.14694E+03 -1.98371E+03 -3.34947E+03  1.34709E+03 -3.35743E+03  1.04367E+03 -5.51945E+03 -1.71821E+03
 -4.44025E+03 -3.86022E+03 -1.91268E+03 -5.43431E+03  4.66566E+03 -7.28876E+03  7.07739E+03 -5.04413E+03
  8.38899E+03 -2.81519E+02  4.52204E+03  3.64165E+03  1.20616E+03  8.25006E+03 -5.83894E+03  7.21098E+03
