 $NMID ID='MM_0lb_SNR200_18hz_g55_81.RAW', FMTDAT='(8E13.5)'
 TRAMP=1., VOLUME=1. $END
  3.09818E+05 -1.48718E+02  3.37722E+05  2.50999E+05  8.45983E+04  3.36466E+05 -1.31847E+05  2.51134E+05
 -1.89889E+05  8.24717E+04 -1.12143E+05 -3.14069E+04  9.59234E+02 -4.99079E+04  5.25409E+04 -6.91310E+02
  3.54637E+04  5.34291E+04 -1.71652E+04  7.53739E+04 -5.91734E+04  6.31531E+04 -8.33896E+04  3.16055E+04
 -8.06581E+04 -1.24645E+04 -5.57962E+04 -5.06940E+04 -1.38882E+04 -6.73087E+04  2.67363E+04 -4.53462E+04
  3.99313E+04  4.66271E+03  1.64766E+04  4.72558E+04 -3.45146E+04  4.76955E+04 -6.69591E+04 -7.64767E+01
 -5.18777E+04 -5.61595E+04 -7.02970E+03 -7.57878E+04  3.25544E+04 -5.49383E+04  4.71091E+04 -1.64178E+04
  4.25561E+04  1.07138E+04  3.16270E+04  2.53841E+04  1.60109E+04  2.89186E+04 -4.40398E+03  2.71035E+04
 -2.27262E+04  1.25967E+04 -1.78461E+04 -4.60983E+03  4.62416E+03 -7.89231E+03  2.08825E+04  1.18439E+04
  7.45104E+03  3.36629E+04 -3.16272E+04  3.49580E+04 -6.19224E+04  2.36742E+03 -5.61326E+04 -4.19007E+04
 -1.26271E+04 -6.29057E+04  3.85748E+04 -4.34899E+04  5.66820E+04 -2.16849E+03  3.24602E+04  3.17085E+04
 -4.79468E+03  3.42237E+04 -2.95744E+04  1.33359E+04 -2.87191E+04 -5.65692E+03 -1.52941E+04 -1.01064E+04
 -8.10761E+03 -1.20273E+04  3.78548E+01 -1.68221E+04  7.08028E+03 -2.23815E+04  1.59276E+04 -1.34459E+04
  1.12569E+04  4.38187E+03 -6.74593E+03  1.21333E+04 -2.02497E+04 -2.48924E+03 -7.47949E+03 -3.27649E+04
  2.07440E+04 -4.15278E+04  4.60159E+04 -1.91764E+04  4.37907E+04  1.88774E+04  1.52341E+04  4.30031E+04
 -1.48351E+04  3.25601E+04 -2.52469E+04  1.67254E+03 -8.20978E+03 -2.61269E+04  2.16198E+04 -3.13255E+04
  3.94515E+04 -8.66605E+03  3.29482E+04  2.28894E+04  1.60033E+04  4.43297E+04 -7.56767E+03  4.78041E+04
 -3.06564E+04  3.05973E+04 -3.96176E+04  9.27075E+03 -3.92270E+04 -1.49767E+04 -2.20689E+04 -3.49482E+04
  7.45477E+03 -3.59814E+04  2.93883E+04 -1.34060E+04  2.80741E+04  1.05281E+04  2.60351E+03  1.70880E+04
 -1.44698E+04  7.22754E+03 -7.97570E+03 -6.75816E+03  6.62260E+03 -9.26861E+03  1.66455E+04  5.56888E+03
  1.32318E+04  2.30314E+04 -5.92986E+03  2.27988E+04 -2.19867E+04  1.02396E+04 -2.69865E+04 -5.91994E+03
 -1.79380E+04 -1.68536E+04 -6.85785E+03 -1.71694E+04  3.89751E+03 -1.55769E+04  1.37639E+04 -1.59988E+04
  2.29036E+04 -1.22049E+04  3.01268E+04  1.54869E+03  2.24647E+04  1.83662E+04  5.04151E+03  3.38437E+04
 -1.58618E+04  2.87868E+04 -2.62339E+04  8.97960E+03 -2.02699E+04 -9.50103E+03 -4.34445E+03 -1.38668E+04
  3.32535E+03 -3.45195E+03 -3.64525E+03  5.00162E+03 -1.40334E+04  5.45296E+03 -1.43450E+04 -5.26396E+03
 -9.30749E+03 -1.62437E+04  5.11718E+03 -2.07740E+04  1.35878E+04 -1.37629E+04  1.53711E+04 -1.60138E+03
  8.53046E+03  1.26681E+04 -5.94284E+02  1.64914E+04 -1.06159E+04  9.63903E+03 -1.74905E+04 -3.34026E+03
 -1.23529E+04 -1.50180E+04 -1.23556E+03 -2.02236E+04  9.12358E+03 -1.61280E+04  1.73549E+04 -7.95876E+03
  1.46249E+04  1.18625E+03  1.14199E+04  4.33571E+03  6.20928E+03  1.70098E+03  7.35453E+03 -1.93238E+03
  1.48080E+04  2.45812E+03  1.64541E+04  1.28935E+04  9.77818E+03  2.69828E+04 -3.18079E+03  2.82403E+04
 -1.69183E+04  2.34124E+04 -2.66293E+04  1.10457E+04 -2.78123E+04 -2.27100E+03 -2.35942E+04 -1.54295E+04
 -1.02175E+04 -2.23422E+04  8.08121E+03 -2.12516E+04  1.74497E+04 -1.15428E+04  1.83472E+04  3.09552E+03
  7.09402E+03  1.23834E+04 -6.91398E+03  1.01665E+04 -1.43490E+04  4.07894E+03 -1.12895E+04 -8.44624E+03
  1.94393E+02 -1.29781E+04  5.41473E+03 -9.10457E+03  7.15074E+03 -9.15153E+02  2.81676E+03  4.87671E+03
 -5.74237E+03  1.30215E+03 -3.84024E+03 -5.94335E+03  1.08919E+03 -1.32766E+04  7.39159E+03 -1.12164E+04
  1.32922E+04 -4.99625E+03  1.47180E+04  2.49803E+03  1.17847E+04  9.63576E+03  5.41695E+03  1.59148E+04
 -1.80505E+03  1.84826E+04 -1.15417E+04  1.07284E+04 -1.26591E+04  3.40542E+03 -9.82347E+03 -1.52383E+03
 -4.56536E+03 -3.87544E+03 -2.62483E+02  1.33689E+03 -2.25917E+03  1.56801E+03 -3.85724E+03  3.55827E+03
 -9.35257E+03 -1.24833E+03 -9.93493E+03 -7.64092E+03 -4.80678E+03 -1.30967E+04  4.28523E+03 -8.69889E+03
  8.45298E+03 -3.72036E+03  4.18849E+03  2.87168E+03  1.69358E+02  3.40779E+03 -4.17999E+03  6.88700E+02
 -3.85038E+03 -5.87422E+03 -7.46976E+01 -8.60844E+03  5.23874E+03 -8.86641E+03  1.08786E+04 -5.50340E+03
  1.21900E+04  8.18430E+01  1.03741E+04  7.50688E+03  2.11397E+03  1.00422E+04 -5.92545E+03  8.91383E+03
 -8.26210E+03  2.97464E+03 -4.04062E+03 -1.63476E+03  1.48483E+03 -2.00743E+03  5.24895E+03 -6.83042E+02
  4.41215E+03  3.57890E+03  1.21937E+03  6.76621E+03 -6.09751E+03  7.21882E+03 -8.75819E+03  2.17787E+03
 -5.32425E+03 -3.50643E+03  1.59799E+03 -7.18172E+03  4.49367E+03 -2.96495E+03  3.95563E+03  2.40748E+03
  8.39367E+02  4.36285E+03 -3.78303E+03  5.71445E+03 -5.40653E+03  2.16962E+03 -5.45668E+03 -1.21443E+03
 -4.05591E+03 -8.09197E+03  1.46276E+03 -8.83400E+03  6.81875E+03 -4.72740E+03  7.20835E+03  1.72050E+03
  4.53810E+03  5.59798E+03  1.02311E+02  7.50864E+03 -4.98419E+03  5.20624E+03 -4.56098E+03  2.64543E+01
 -5.24392E+03 -4.86523E+03 -5.21271E+02 -5.46159E+03  3.07298E+03 -5.07356E+03  2.39674E+03 -2.59317E+03
  2.73330E+03 -1.05500E+02  2.11064E+01  1.71286E+03  1.10894E+02 -2.78127E+01 -6.90190E+01 -2.06844E+03
  4.35188E+03 -1.39470E+03  6.47614E+03  1.09856E+03  5.81413E+03  2.97441E+03  4.40330E+03  7.51960E+03
 -9.67042E+02  1.02974E+04 -9.12697E+03  7.49948E+03 -1.12400E+04  1.66290E+03 -8.75207E+03 -1.83201E+03
 -5.10233E+03 -6.77321E+03 -1.72209E+02 -6.83821E+03  2.71557E+03 -1.59381E+03  1.79583E+03 -2.83517E+03
  9.89418E+02 -1.29394E+03  2.26578E+03 -2.53749E+03  4.14165E+03 -2.28432E+03  4.62517E+03  8.27682E+01
  3.85628E+03  1.41340E+03  1.53585E+03  3.89490E+03 -1.55739E+03  2.77441E+03 -5.74947E+03  2.19386E+03
 -5.23841E+03 -4.98155E+02 -1.48497E+03 -2.77723E+03  4.95455E+01 -4.85482E+03  4.01041E+03 -6.26796E+03
  6.08900E+03 -2.98234E+03  7.82335E+03  9.49130E+02  4.54623E+03  4.94758E+03  2.10651E+03  6.20261E+03
 -2.66913E+03  6.49082E+03 -3.76430E+03  2.49381E+03 -2.47678E+03 -1.45701E+03 -5.42436E+02 -8.48876E+02
 -1.60969E+03  3.22113E+02 -5.57059E+02  1.04670E+03 -4.08851E+03  1.39053E+03 -3.97215E+03  1.20601E+03
 -3.45547E+03 -5.05299E+03  1.36349E+03 -4.69118E+03  2.81022E+03 -4.56813E+03  3.56984E+03 -5.59281E+02
  4.46642E+03  2.96712E+03  2.53637E+03  3.12899E+03 -2.88948E+02  4.23718E+03 -2.69457E+03  1.74068E+03
 -3.60765E+03  7.72907E+02 -4.61141E+03 -2.11536E+03 -1.13339E+03 -3.72592E+03  2.12182E+03 -1.96637E+03
  3.34547E+03 -4.68633E+02  2.34133E+03  4.60660E+02  7.94352E+02  1.17480E+03  8.87473E+02 -1.06467E+02
  1.38779E+03  1.44547E+03  1.71035E+03  1.54141E+03  5.29148E+02  2.39469E+03  1.73118E+03  1.41634E+03
 -1.27530E+03  3.16459E+03 -1.93596E+03  3.85551E+03 -3.74346E+03  3.35579E+02 -4.49245E+03 -3.48629E+02
 -2.21317E+03 -5.15799E+03  4.97003E+02 -5.39297E+03  2.19117E+03 -2.67590E+03  4.01333E+03 -1.79347E+03
  3.41561E+03  1.34885E+03  3.68999E+02  3.28572E+03  8.15466E+01  8.68067E+02 -5.94261E+02 -3.04609E+02
  6.11015E+01 -2.12038E+03  1.82357E+03 -1.62358E+03  6.63871E+02 -8.70320E+02  1.20130E+03  1.32054E+03
  1.31152E+03  1.64603E+02  2.20081E+03 -2.56485E+02 -2.27206E+02  7.21902E+02  2.10488E+03 -1.31890E+02
 -1.93324E+02  7.48810E+02  1.17426E+03 -5.76747E+02  1.65295E+03  2.85409E+03 -1.13367E+03  2.65931E+03
 -1.48617E+03  1.66590E+03 -3.09733E+03  4.02308E+02 -2.03945E+03 -3.96490E+02 -1.09933E+03 -8.39541E+02
 -1.10503E+03 -1.04743E+03  1.30430E+03 -3.51007E+02  8.99270E+02  2.70320E+03 -1.20904E+03  1.13253E+03
 -1.14150E+03  1.70194E+03 -1.03068E+03 -1.15695E+03 -1.18182E+03 -1.58274E+03 -6.35850E+01 -1.41759E+03
  2.26003E+02 -3.70077E+02  1.49428E+03  1.07097E+03  1.78979E+03  1.78616E+02 -7.16891E+02  2.15680E+03
  2.97816E+02 -1.14895E+02 -1.59674E+03 -2.33881E+01  3.50519E+02 -1.34500E+03  2.88179E+02 -1.43174E+03
  2.79527E+03  4.73144E+02  4.15636E+03  3.22310E+02  1.09865E+03  2.36239E+03 -2.25007E+03  1.47572E+03
 -1.59902E+03 -1.56866E+02 -1.45665E+03 -3.98545E+02 -1.34122E+03 -1.59713E+03  2.72102E+02 -1.66208E+03
  1.42004E+03 -3.80597E+02 -6.19496E+02  1.85015E+03 -3.30899E+02  1.13149E+03  4.76961E+02  9.71223E+02
 -2.07921E+02  1.56060E+03 -1.23107E+03  5.69484E+02 -6.44517E+02  8.89380E+02 -1.08307E+03  3.63018E+02
 -2.56900E+02  1.36120E+03 -1.56231E+03  6.77883E+02 -1.33525E+03  4.03116E+02 -2.23903E+03 -1.61380E+03
 -1.65424E+03 -2.47699E+03 -1.46989E+02 -2.59248E+03  8.99783E+02 -3.31267E+03  3.52890E+03 -5.02398E+02
  1.51712E+03 -2.92910E+02  4.77907E+02  2.10725E+03 -3.20539E+02  1.06162E+03 -1.27554E+03  7.62389E+02
 -1.16358E+03  1.07396E+03 -1.03149E+03 -2.66489E+02 -8.28323E+02 -6.95022E+02 -7.71972E+02 -9.82193E+01
 -1.27810E+03 -2.58784E+02 -2.27694E+02 -1.92365E+02  2.34500E+02 -1.76211E+02  7.24398E+02 -1.69558E+03
  1.46920E+03 -2.80118E+02  1.19881E+03  8.30476E+02  4.60902E+02  2.54688E+02 -1.31100E+02  1.85324E+03
  8.74111E+01  2.26545E+03 -1.81662E+03  2.30344E+03 -1.46227E+03  2.67576E+02 -2.54776E+03 -7.64313E+02
 -1.57718E+03 -1.45879E+03  8.77835E+01 -9.92648E+02  1.30875E+03 -1.43369E+03 -4.37200E+02 -1.70684E+02
  1.01933E+03  1.61890E+02 -5.12631E+02  1.10042E+02  1.43116E+01 -1.77089E+02 -1.06034E+02  4.76810E+01
 -2.68390E+02  2.48309E+01 -7.52117E+02  7.98204E+01  3.97767E+02  9.19670E+02  4.75066E+02  2.84976E+02
 -8.71959E+02  7.62539E+02 -6.79380E+02 -2.19038E+01 -1.93567E+02 -6.26336E+02  7.62339E+02 -1.02949E+03
  9.64301E+02 -9.19774E+02 -1.13815E+02 -6.11265E+01  7.68058E+02 -7.87369E+02  5.25511E+02  7.68563E+02
  1.05421E+02  7.51168E+02  5.37721E+01  2.15481E+02 -1.04797E+03  6.81531E-01 -5.44312E+02  6.36624E+02
 -1.54766E+03 -3.17543E+02 -5.70953E+02  2.01822E+02 -8.29409E+02 -1.00324E+03 -4.59328E+02  8.36472E+02
 -8.52133E+01  3.39091E+01 -6.40570E+02 -5.91474E+02  7.20187E+02 -1.77559E+03  1.63722E+02 -7.54542E+02
  1.12232E+03  2.19413E+02 -6.72899E+02  1.01762E+03 -4.56593E+02  1.29164E+03 -1.51988E+02  4.91243E+02
