 $NMID ID='MM_0lb_SNR200_13hz_g50_66.RAW', FMTDAT='(8E13.5)'
 TRAMP=1., VOLUME=1. $END
  3.10479E+05  2.66782E+02  3.38378E+05  2.50513E+05  8.52962E+04  3.38127E+05 -1.32877E+05  2.50471E+05
 -1.90614E+05  8.35977E+04 -1.12152E+05 -3.30990E+04  1.20649E+03 -5.07819E+04  5.35493E+04  2.41321E+02
  3.64756E+04  5.31188E+04 -1.75275E+04  7.44698E+04 -5.99727E+04  6.35537E+04 -8.32683E+04  3.20985E+04
 -8.09957E+04 -1.05488E+04 -5.83477E+04 -5.26249E+04 -1.64043E+04 -6.97623E+04  2.70238E+04 -4.62995E+04
  4.03206E+04  2.86737E+03  1.56577E+04  4.79492E+04 -3.39155E+04  4.74186E+04 -6.65533E+04 -4.13519E+02
 -5.45299E+04 -5.80171E+04 -7.04455E+03 -7.67408E+04  3.43495E+04 -5.51777E+04  4.93232E+04 -1.66820E+04
  4.43333E+04  1.14477E+04  3.34202E+04  2.65993E+04  1.64381E+04  2.99301E+04 -5.31185E+03  2.71869E+04
 -2.14933E+04  1.19758E+04 -1.85384E+04 -5.19088E+03  5.57265E+03 -7.68358E+03  2.26210E+04  1.43411E+04
  7.13847E+03  3.45658E+04 -3.13978E+04  3.55126E+04 -6.41503E+04  2.27816E+03 -5.85653E+04 -4.31866E+04
 -1.25539E+04 -6.46406E+04  3.93271E+04 -4.48527E+04  5.85109E+04 -3.13069E+03  3.46960E+04  3.29270E+04
 -7.18491E+03  3.70868E+04 -3.04189E+04  1.52836E+04 -3.15936E+04 -4.10565E+03 -1.61884E+04 -1.11787E+04
 -9.29608E+03 -1.41561E+04  1.44200E+02 -1.82864E+04  7.59812E+03 -2.30973E+04  1.45377E+04 -1.17744E+04
  1.07775E+04  4.97741E+03 -9.46504E+03  1.37504E+04 -2.29885E+04 -4.85874E+03 -7.90778E+03 -3.35400E+04
  2.22975E+04 -4.39786E+04  4.84306E+04 -1.86251E+04  4.58841E+04  1.89356E+04  1.60730E+04  4.53170E+04
 -1.61536E+04  3.29688E+04 -2.59631E+04  1.48053E+03 -1.05626E+04 -2.86707E+04  2.12102E+04 -3.39382E+04
  4.08171E+04 -1.00971E+04  3.69776E+04  2.44171E+04  1.90179E+04  4.79735E+04 -8.24643E+03  5.18256E+04
 -3.22707E+04  3.44278E+04 -4.34745E+04  9.98622E+03 -4.40567E+04 -1.71225E+04 -2.31146E+04 -3.87201E+04
  8.01857E+03 -3.89576E+04  3.31683E+04 -1.49632E+04  2.93101E+04  1.06811E+04  3.12400E+03  1.97974E+04
 -1.26324E+04  7.78260E+03 -1.09924E+04 -8.58216E+03  6.36585E+03 -1.07958E+04  1.79534E+04  5.28194E+03
  1.44883E+04  2.18271E+04 -4.67408E+03  2.49923E+04 -2.33945E+04  1.15924E+04 -2.75897E+04 -4.28804E+03
 -2.24446E+04 -1.71435E+04 -9.75024E+03 -2.17631E+04  3.30695E+03 -2.06891E+04  1.77894E+04 -2.02125E+04
  2.74550E+04 -1.34485E+04  3.40472E+04  3.42885E+03  2.59467E+04  2.03063E+04  4.11842E+03  3.63535E+04
 -1.84395E+04  3.11300E+04 -2.83160E+04  1.18441E+04 -2.14016E+04 -9.98039E+03 -4.21230E+03 -1.36898E+04
  1.40109E+03 -3.69085E+03 -4.94226E+03  8.16253E+03 -1.79976E+04  5.43200E+03 -1.74775E+04 -7.66707E+03
 -1.00519E+04 -2.03923E+04  5.89612E+03 -2.52613E+04  1.46890E+04 -1.77601E+04  1.97382E+04 -3.14244E+02
  1.16349E+04  1.27624E+04 -6.29715E+02  1.94565E+04 -1.27508E+04  1.24975E+04 -1.92314E+04 -4.14055E+03
 -1.44962E+04 -1.86646E+04 -1.44350E+03 -2.44038E+04  1.21114E+04 -2.14286E+04  1.84099E+04 -9.65170E+03
  2.05480E+04 -3.16741E+02  1.28563E+04  4.17384E+03  7.73288E+03  1.31554E+03  9.56800E+03 -2.08914E+03
  1.91070E+04  3.12553E+03  2.12341E+04  1.43954E+04  1.42945E+04  3.22064E+04 -2.74338E+03  3.70794E+04
 -2.10458E+04  2.95688E+04 -3.37867E+04  1.60315E+04 -3.51997E+04 -2.52496E+03 -2.90366E+04 -2.02382E+04
 -1.21799E+04 -2.94087E+04  1.05013E+04 -2.55289E+04  2.35458E+04 -1.39894E+04  1.93940E+04  6.43202E+03
  6.74080E+03  1.47114E+04 -8.97709E+03  1.30211E+04 -1.64425E+04  2.09198E+03 -1.28623E+04 -9.46148E+03
  3.67413E+02 -1.63051E+04  7.97845E+03 -1.17882E+04  9.82963E+03 -2.81005E+03  2.02097E+03  6.77307E+03
 -7.47729E+03  3.48052E+03 -5.56868E+03 -4.98925E+03 -1.05728E+03 -1.38263E+04  1.07785E+04 -1.44483E+04
  1.87518E+04 -8.49871E+03  1.80059E+04  2.42476E+03  1.67987E+04  1.40513E+04  8.13528E+03  2.17963E+04
 -4.23781E+03  2.42469E+04 -1.58391E+04  1.64345E+04 -1.60255E+04  3.82005E+03 -1.17953E+04 -3.18917E+03
 -4.81530E+03 -5.31644E+03 -7.11745E+02  2.14786E+03 -2.13863E+03  3.80469E+03 -6.18134E+03  5.43155E+03
 -1.23283E+04 -4.91257E+02 -1.18197E+04 -9.83609E+03 -4.32213E+03 -1.49117E+04  4.74740E+03 -1.22183E+04
  9.97799E+03 -4.98511E+03  6.66864E+03  2.12012E+03 -4.05781E+02  3.99491E+03 -6.62287E+03 -1.47243E+03
 -4.47703E+03 -8.43156E+03 -7.56840E+02 -1.07963E+04  5.47013E+03 -1.26372E+04  1.58266E+04 -5.80613E+03
  1.71231E+04 -5.61133E+02  1.26108E+04  9.75911E+03  2.30333E+03  1.54126E+04 -7.40487E+03  1.08002E+04
 -1.18125E+04  2.94418E+03 -4.20653E+03 -1.29338E+03  1.26807E+03 -2.77280E+03  6.29268E+03 -2.31321E+01
  6.54617E+03  4.78165E+03  1.91125E+03  1.00301E+04 -7.11417E+03  8.73943E+03 -1.17507E+04  1.86939E+03
 -9.21606E+03 -6.86615E+03  7.70000E+02 -9.53100E+03  4.76286E+03 -6.08995E+03  5.64958E+03  2.51113E+03
  4.12648E+02  6.95090E+03 -6.20948E+03  9.14177E+03 -9.11498E+03  2.74690E+03 -9.72936E+03 -3.52121E+03
 -5.87676E+03 -1.15006E+04  3.00297E+03 -1.11789E+04  9.52163E+03 -7.73592E+03  1.08259E+04  2.30234E+03
  6.42049E+03  9.49608E+03 -2.28081E+02  1.13720E+04 -7.72544E+03  7.19254E+03 -9.48513E+03 -1.86472E+03
 -8.19840E+03 -8.29254E+03 -9.23307E+02 -7.86192E+03  5.00477E+03 -6.59177E+03  5.76652E+03 -2.57613E+03
  3.18097E+03  7.85434E+02  3.52597E+02  1.70787E+03 -9.07144E+02 -2.31246E+03  1.24960E+03 -6.20704E+03
  7.40796E+03 -2.38824E+03  1.18607E+04  2.34484E+03  1.09082E+04  7.72188E+03  8.26554E+03  1.41173E+04
 -2.92347E+03  1.58309E+04 -1.45227E+04  1.34493E+04 -1.77983E+04  3.21377E+03 -1.45082E+04 -5.20493E+03
 -6.85293E+03 -1.10315E+04 -8.48053E+02 -9.34711E+03  4.40286E+03 -4.80954E+03  5.00094E+03 -3.23992E+03
  2.66479E+03 -1.63527E+03  2.78369E+03 -2.75520E+03  4.53757E+03 -1.88226E+03  5.18152E+03 -7.21647E+02
  8.13292E+03  1.89274E+03  5.50072E+03  5.10470E+03 -1.45754E+03  6.29780E+03 -6.59992E+03  6.03315E+03
 -1.07913E+04 -2.01971E+03 -5.35413E+03 -6.66829E+03 -1.19762E+03 -1.00024E+04  6.71199E+03 -9.42747E+03
  1.19183E+04 -5.49972E+03  1.21774E+04  1.39029E+03  9.24432E+03  8.66916E+03  2.91903E+03  1.23151E+04
 -3.39409E+03  9.85862E+03 -6.92285E+03  3.49982E+03 -4.67093E+03 -6.57205E+02 -1.04082E+03 -1.58962E+03
 -5.53780E+02 -1.11288E+02 -1.06075E+03  3.37274E+03 -4.03482E+03  1.76658E+03 -6.38390E+03 -5.78748E+02
 -5.18177E+03 -7.53951E+03  6.58138E+02 -9.19739E+03  5.60089E+03 -7.88763E+03  9.42529E+03 -1.42632E+03
  7.77692E+03  4.47418E+03  3.48594E+03  7.40249E+03 -2.81609E+03  9.64548E+03 -6.55122E+03  4.13846E+03
 -9.72463E+03  5.28797E+02 -7.55203E+03 -5.26834E+03 -1.22804E+02 -7.02279E+03  2.71500E+03 -6.26461E+03
  6.08515E+03 -1.86925E+03  4.89424E+03  1.72151E+03  1.77614E+03  2.98177E+03  1.70892E+03  6.53158E+02
  3.19587E+03  3.70705E+01  2.86463E+03  8.60398E+02  2.45262E+03  3.94476E+03  2.47974E+03  5.78414E+03
 -9.86734E+02  8.99800E+03 -6.07834E+03  6.89288E+03 -8.69844E+03  2.32256E+03 -9.56433E+03 -2.11034E+03
 -3.46157E+03 -8.10877E+03  1.62991E+03 -9.64948E+03  4.73848E+03 -5.85892E+03  7.85861E+03 -1.09535E+03
  6.34194E+03  3.78879E+03  1.65364E+03  3.91132E+03 -1.12509E+03  3.65385E+03 -3.24940E+03 -1.46192E+03
 -8.32882E+02 -3.08308E+03  2.07540E+03 -5.11369E+03  4.00826E+03 -3.00342E+03  3.63651E+03  3.15676E+02
  3.22736E+03  1.44861E+03  1.08467E+03  1.21346E+03 -1.06151E+02  1.46482E+03  1.73180E+03 -9.43676E+02
  1.63924E+03 -1.75294E+02  1.28329E+03  1.02650E+03  2.00846E+03  3.95214E+03 -1.23724E+03  6.28013E+03
 -4.70858E+03  2.29827E+03 -4.99174E+03  1.03225E+03 -5.09505E+03 -2.42146E+03 -1.61757E+03 -2.34859E+03
  7.78140E+02 -2.28221E+03  3.07528E+03 -2.13404E+03  1.71807E+03  2.56592E+03 -9.18777E+02  2.52269E+03
 -2.92897E+03  2.01173E+03 -3.10672E+03 -2.02799E+03 -2.49881E+03 -3.97323E+03  3.14965E+02 -4.54778E+03
  3.16881E+03 -1.73517E+03  3.38135E+03  7.09077E+02  3.29833E+03  1.00928E+03  1.96481E+03  3.21461E+03
 -2.05527E+03  1.20175E+03 -2.42094E+03 -1.27930E+03  8.84147E+02 -2.94560E+03  3.49194E+03 -1.38273E+03
  5.17087E+03  1.14590E+03  4.84523E+03  1.85686E+03  2.27149E+03  6.21441E+03 -2.13293E+03  4.77414E+03
 -3.86149E+03  2.20633E+03 -3.68396E+03  8.70166E+02 -3.00963E+03 -2.97065E+03  7.98329E+02 -1.54013E+03
  4.25755E+03 -2.01784E+03  7.79777E+02  1.73354E+03  1.41330E+03  3.31840E+03 -1.14224E+03  3.12666E+03
 -1.34109E+03  2.21861E+03 -2.89689E+03  6.46056E+02 -9.35478E+02  1.58351E+03 -1.36147E+03  3.85484E+02
 -1.72702E+03  6.09803E+02 -5.33813E+03  1.26656E+03 -4.79654E+03 -6.52400E+02 -5.22757E+03 -3.02659E+03
 -3.48954E+03 -7.36080E+03  1.71311E+03 -6.43478E+03  3.62267E+03 -6.72102E+03  7.71476E+03 -1.93325E+03
  8.11368E+03  1.05270E+03  3.62213E+03  4.63202E+03 -7.95977E+02  4.99438E+03 -2.10308E+03  4.25204E+03
 -3.40954E+03  1.36599E+03 -2.41128E+03 -5.87519E+02 -1.15390E+02 -9.17810E+02 -4.27080E+02  3.64455E+02
 -1.50473E+03 -1.79881E+02 -9.16064E+02 -5.18083E+02 -4.56387E+02 -7.81489E+02 -2.67730E+00 -2.96497E+03
  2.63385E+03 -2.59068E+03  2.11359E+03 -3.29895E+02  3.87797E+03  3.45142E+03  2.67879E+02  6.06801E+03
 -1.31137E+03  6.26691E+03 -5.61657E+03  3.44444E+03 -5.47509E+03  2.85617E+02 -4.44998E+03 -4.02395E+03
 -1.19884E+03 -5.69595E+03 -2.35099E+02 -3.23185E+03  3.90138E+03 -2.08760E+03  2.61449E+03  2.48020E+02
  2.57476E+03  1.95661E+03 -7.00150E+02  2.53025E+03 -1.30231E+03  1.16831E+03 -6.41036E+01 -1.16678E+03
  6.48337E+02 -1.02384E+03  1.26349E+03  1.73718E+02  9.57961E+02  1.69754E+03  5.95002E+02  3.41663E+03
 -1.87467E+03  1.46232E+03 -2.35027E+03 -8.08692E+01 -3.21106E+03 -1.62896E+03 -6.61684E+02 -3.91548E+03
  4.05336E+03 -3.02428E+03  2.51563E+03 -1.61702E+02  4.47639E+03 -4.58064E+02  1.72689E+03  2.16026E+03
  1.41182E+03  3.85720E+03 -1.07555E+03  3.12296E+03 -1.66049E+03  1.59504E+03 -2.20325E+03  2.42791E+02
 -5.92465E+02 -6.11164E+02 -8.36592E+02 -1.64499E+02 -2.17819E+03  5.95177E+02 -2.18553E+03 -1.18554E+03
 -2.23499E+03 -1.82288E+03 -7.29433E+02 -1.41941E+03  2.27318E+03 -4.59184E+03  3.50569E+03 -1.66521E+03
  3.37631E+03  1.82119E+03  7.77584E+02  1.76098E+03  4.39963E+01  2.33773E+03 -3.94875E+03  2.09763E+03
