 $NMID ID='MM_0lb_SNR200_14hz_g45_23.RAW', FMTDAT='(8E13.5)'
 TRAMP=1., VOLUME=1. $END
  3.09746E+05  1.40549E+03  3.37623E+05  2.50616E+05  8.46529E+04  3.36506E+05 -1.33948E+05  2.49803E+05
 -1.90340E+05  8.31010E+04 -1.11345E+05 -3.28343E+04  7.54176E+02 -5.09145E+04  5.42381E+04 -1.70084E+02
  3.45319E+04  5.25377E+04 -1.72066E+04  7.55510E+04 -6.11787E+04  6.32309E+04 -8.31453E+04  3.17392E+04
 -8.09776E+04 -1.06930E+04 -5.74964E+04 -5.14112E+04 -1.51673E+04 -7.04114E+04  2.58198E+04 -4.53626E+04
  4.01079E+04  3.16241E+03  1.62449E+04  4.79694E+04 -3.46817E+04  4.79746E+04 -6.69798E+04  5.82227E+01
 -5.28185E+04 -5.53480E+04 -6.35238E+03 -7.70636E+04  3.50228E+04 -5.55334E+04  4.69518E+04 -1.75577E+04
  4.36827E+04  1.16450E+04  3.17819E+04  2.55900E+04  1.61562E+04  2.92102E+04 -5.16144E+03  2.76319E+04
 -2.17950E+04  1.15865E+04 -1.78990E+04 -4.46109E+03  5.76064E+03 -6.51142E+03  2.17897E+04  1.30313E+04
  7.46013E+03  3.48229E+04 -3.29135E+04  3.51412E+04 -6.34121E+04  2.37998E+03 -5.63217E+04 -4.26251E+04
 -1.25914E+04 -6.23519E+04  4.06003E+04 -4.55860E+04  5.62766E+04 -2.45846E+03  3.41121E+04  3.35812E+04
 -5.99477E+03  3.58293E+04 -2.98529E+04  1.61056E+04 -3.00328E+04 -5.03125E+03 -1.72180E+04 -1.08728E+04
 -8.45852E+03 -1.38990E+04  4.59440E+01 -1.79682E+04  6.92756E+03 -2.20006E+04  1.67388E+04 -1.27665E+04
  1.18697E+04  5.26465E+03 -8.51072E+03  1.31975E+04 -2.11664E+04 -3.25291E+03 -8.15409E+03 -3.21540E+04
  2.34328E+04 -4.33763E+04  4.69174E+04 -1.94317E+04  4.47494E+04  1.92346E+04  1.49042E+04  4.41899E+04
 -1.66222E+04  3.37896E+04 -2.52716E+04  2.45038E+03 -1.08593E+04 -2.72066E+04  2.08790E+04 -3.41880E+04
  4.16953E+04 -9.57652E+03  3.44017E+04  2.29588E+04  1.74812E+04  4.66678E+04 -8.01913E+03  5.02876E+04
 -3.00639E+04  3.35813E+04 -4.19691E+04  1.11081E+04 -4.24486E+04 -1.67742E+04 -2.42453E+04 -3.77840E+04
  7.36214E+03 -3.76419E+04  3.12596E+04 -1.42540E+04  2.96302E+04  1.04171E+04  4.46627E+03  1.87520E+04
 -1.32027E+04  9.55089E+03 -9.82873E+03 -7.74686E+03  5.97101E+03 -1.09743E+04  1.85123E+04  6.20845E+03
  1.35671E+04  2.36070E+04 -6.41425E+03  2.54848E+04 -2.41017E+04  1.07859E+04 -2.74630E+04 -5.28598E+03
 -2.03432E+04 -1.71574E+04 -7.16961E+03 -2.01713E+04  4.82649E+03 -1.99584E+04  1.66309E+04 -1.79031E+04
  2.61151E+04 -1.20468E+04  3.18196E+04  1.69508E+03  2.33087E+04  1.94498E+04  3.98071E+03  3.66437E+04
 -1.71327E+04  3.06656E+04 -2.68395E+04  1.06717E+04 -2.21876E+04 -1.01546E+04 -4.51613E+03 -1.41209E+04
  1.37148E+03 -3.28725E+03 -4.48017E+03  6.91781E+03 -1.54464E+04  3.66722E+03 -1.60629E+04 -8.08588E+03
 -1.08700E+04 -1.94714E+04  4.41805E+03 -2.24184E+04  1.47906E+04 -1.76544E+04  1.76105E+04 -1.02421E+03
  1.03303E+04  1.30199E+04 -1.13997E+03  1.86868E+04 -1.34664E+04  1.12622E+04 -1.78290E+04 -4.14073E+03
 -1.37055E+04 -1.65365E+04 -9.06227E+02 -2.35814E+04  9.76760E+03 -1.91892E+04  1.88105E+04 -9.34995E+03
  1.80028E+04  5.70985E+02  1.17867E+04  5.12249E+03  5.71427E+03  2.18908E+02  9.58750E+03 -9.09281E+02
  1.64556E+04  1.86187E+03  2.02223E+04  1.58104E+04  1.14272E+04  3.02641E+04 -2.44371E+03  3.52085E+04
 -1.92442E+04  2.54734E+04 -3.08376E+04  1.33499E+04 -3.27027E+04 -1.39607E+03 -2.75999E+04 -1.89143E+04
 -1.19880E+04 -2.67425E+04  6.80326E+03 -2.45086E+04  2.13611E+04 -1.27479E+04  2.01064E+04  4.46351E+03
  8.15748E+03  1.55149E+04 -9.30782E+03  1.21757E+04 -1.62569E+04  2.20384E+03 -1.21757E+04 -1.00321E+04
 -1.79933E+03 -1.44319E+04  8.99867E+03 -1.15303E+04  1.08453E+04 -4.26447E+02  2.68775E+03  6.26201E+03
 -6.28281E+03  1.91521E+03 -6.01073E+03 -5.54426E+03  8.39758E+02 -1.39436E+04  9.03469E+03 -1.35336E+04
  1.63453E+04 -7.61481E+03  1.68309E+04  1.53254E+03  1.55916E+04  1.29009E+04  7.20000E+03  1.97331E+04
 -4.18365E+03  2.16080E+04 -1.24796E+04  1.45970E+04 -1.55983E+04  3.97045E+03 -1.14018E+04 -3.61742E+03
 -5.30822E+03 -4.65721E+03 -7.97730E+02  1.11774E+03 -2.64885E+03  3.69029E+03 -5.61438E+03  4.57582E+03
 -9.40322E+03 -2.26412E+02 -1.05840E+04 -8.55912E+03 -5.13995E+03 -1.50890E+04  3.69973E+03 -1.07081E+04
  8.63038E+03 -5.32858E+03  5.85144E+03  1.56328E+03  1.50485E+02  3.40667E+03 -5.04592E+03  4.81495E+02
 -4.23815E+03 -7.77973E+03  9.04180E+01 -9.90062E+03  4.96355E+03 -1.11820E+04  1.37534E+04 -6.22950E+03
  1.72668E+04  5.22727E+02  1.27862E+04  8.55427E+03  1.14785E+03  1.28819E+04 -7.89688E+03  1.06890E+04
 -1.01121E+04  2.87760E+03 -4.00114E+03 -2.94149E+03  6.52916E+02 -2.76127E+03  6.29122E+03 -8.24511E+02
  5.70061E+03  4.30387E+03  3.70199E+02  8.69083E+03 -5.96500E+03  9.99688E+03 -9.29070E+03  1.76394E+03
 -7.70977E+03 -5.63124E+03  9.36639E+01 -9.70144E+03  5.16022E+03 -3.92760E+03  4.12133E+03  2.25275E+03
  1.16815E+03  6.15804E+03 -5.08786E+03  7.50720E+03 -9.25305E+03  2.94348E+03 -7.68554E+03 -4.03393E+03
 -3.97901E+03 -8.94231E+03  2.20274E+03 -1.21852E+04  9.37124E+03 -6.66825E+03  9.48826E+03  1.20392E+03
  6.62463E+03  8.26848E+03  1.75036E+01  1.02502E+04 -7.30723E+03  5.61061E+03 -7.63322E+03 -6.25364E+01
 -8.11589E+03 -8.73110E+03 -1.40083E+03 -7.83074E+03  2.55483E+03 -8.07254E+03  2.77622E+03 -3.26023E+03
  4.51187E+03  1.42654E+03  7.29077E+02  2.87895E+03 -6.07670E+02 -1.08751E+03  8.13024E+02 -2.62649E+03
  7.16738E+03 -1.72335E+03  9.60069E+03  1.95211E+03  1.00317E+04  5.92497E+03  7.05755E+03  1.06828E+04
 -2.81447E+03  1.26031E+04 -1.14047E+04  1.02903E+04 -1.52397E+04  1.45046E+03 -1.11777E+04 -5.98565E+03
 -7.05385E+03 -9.46360E+03 -9.41835E+02 -7.82454E+03  4.24280E+03 -4.96319E+03  2.92917E+03 -4.15759E+03
  1.78682E+03 -9.73822E+02  2.82073E+03 -2.32366E+03  4.09902E+03 -1.57171E+03  5.61703E+03 -1.09354E+03
  7.56771E+03  1.19550E+03  1.66341E+03  6.16972E+03 -1.34059E+03  5.88145E+03 -7.41720E+03  4.92329E+03
 -9.42928E+03 -1.14757E+03 -4.17497E+03 -5.19157E+03 -9.15738E+02 -7.81547E+03  3.67406E+03 -9.55134E+03
  9.73556E+03 -5.56366E+03  1.06747E+04  1.20812E+03  7.53406E+03  8.12300E+03  2.43888E+03  1.06802E+04
 -4.13799E+03  9.12788E+03 -4.62846E+03  2.99864E+03 -3.40674E+03 -2.25169E+03 -9.65844E+02 -7.12490E+02
 -1.79299E+03  1.03787E+03 -2.07002E+03  2.56097E+03 -3.14021E+03  2.02870E+03 -6.38512E+03 -1.07865E+03
 -3.42131E+03 -7.35475E+03  1.35797E+02 -7.49036E+03  3.69061E+03 -7.66195E+03  7.94858E+03 -1.40523E+03
  7.73356E+03  3.47748E+03  2.68902E+03  5.75645E+03 -9.01244E+02  7.42532E+03 -4.43592E+03  4.13167E+03
 -6.98117E+03 -1.79458E+01 -6.65867E+03 -4.51003E+03  1.03326E+02 -6.26825E+03  4.29155E+03 -4.78265E+03
  4.35698E+03 -2.52795E+03  2.98468E+03  7.43661E+02  1.97354E+03  2.61751E+03  2.24363E+03  4.28323E+02
  2.06692E+02  8.94192E+02  1.62111E+03  8.91536E+02  8.78827E+02  3.56792E+03  2.04973E+03  4.88377E+03
 -1.28379E+03  6.05560E+03 -5.11621E+03  5.78303E+03 -6.69839E+03  1.91344E+03 -8.45261E+03 -2.20368E+03
 -1.90825E+03 -6.71967E+03  8.82951E+02 -7.50817E+03  5.67302E+03 -5.46346E+03  6.18481E+03 -1.44886E+03
  4.62016E+03  2.56000E+03 -9.26770E+01  4.08458E+03 -2.26186E+03  3.44385E+03 -2.76427E+03 -3.50295E+02
 -1.43979E+03 -3.42721E+03  2.51462E+03 -3.12735E+03  2.35001E+03 -1.22998E+03  2.85474E+03  2.77003E+03
  1.97774E+03  1.60988E+03  9.82350E+02  5.15014E+02 -3.26389E+02  1.29234E+03  2.42886E+03 -3.32224E+02
 -6.84919E+01 -3.02790E+02  5.58390E+03  2.82847E+02  1.59124E+03  4.05970E+03 -5.36440E+02  5.28038E+03
 -5.78493E+03  4.09484E+03 -4.84753E+03  1.92992E+02 -4.61399E+03 -1.85376E+03 -1.52655E+03 -1.71274E+03
  4.25713E+02 -1.76862E+03  1.92426E+03 -1.12208E+03  6.04010E+02  2.70062E+03 -4.72537E+02  2.88015E+03
 -2.89966E+03  1.57944E+03 -2.44246E+03 -2.10019E+03 -8.66052E+02 -4.15133E+03 -3.34217E+02 -3.81377E+03
  2.13478E+03 -2.19982E+03  1.89653E+03  2.51732E+02  2.40149E+03  2.22921E+02  6.07503E+02  2.95405E+03
 -1.18911E+03  2.29786E+02 -2.37087E+03 -8.70962E+02  1.80254E+03 -2.99220E+03  4.38736E+03 -2.06731E+03
  2.91302E+03  1.07446E+03  6.23361E+03  1.51896E+03  1.71270E+03  4.10607E+03 -1.70723E+03  5.01494E+03
 -3.85466E+03  7.04080E+02 -5.14388E+03 -1.12735E+03 -2.35206E+03 -2.70098E+03 -1.77491E+02 -2.34408E+03
  3.29530E+03 -5.23795E+02  1.15337E+03  1.59051E+03  1.75672E+03  2.54301E+03 -4.56849E+02  2.94024E+03
 -1.25859E+03  1.19280E+03 -1.04178E+03 -1.76025E+02 -7.23255E+02  2.56068E+02 -1.10176E+03  8.80998E+02
 -1.66663E+02  1.16439E+03 -3.14915E+03  1.93630E+03 -4.51362E+03 -2.94941E+02 -4.87808E+03 -2.20024E+03
 -1.60456E+03 -5.42367E+03  8.79099E+02 -5.64882E+03  4.00684E+03 -6.91614E+03  6.73515E+03 -2.68810E+03
  6.24690E+03  6.24877E+02  1.62525E+03  3.77447E+03 -1.68166E+02  3.19793E+03 -1.10670E+03  1.30171E+03
 -2.78440E+03  1.35746E+03 -1.42983E+03  3.19252E+02 -1.29813E+03  1.07604E+01 -5.64511E+02  3.76562E+02
 -4.69872E+02 -3.50676E+02 -8.58538E+02  1.13276E+03  7.15509E+02 -2.17150E+03  5.68102E+02 -1.63610E+03
  2.08038E+03 -1.42020E+03  2.51553E+03 -7.20128E+02  2.37617E+03  1.70068E+03 -3.42069E+02  3.38974E+03
 -2.52185E+03  4.50722E+03 -4.25652E+03  2.12864E+03 -3.58398E+03  5.34403E+02 -4.27972E+03 -3.25340E+03
 -2.40564E+03 -3.46639E+03  1.31407E+03 -4.35483E+03  9.84731E+02 -1.88721E+03  2.42655E+03  3.36348E+02
  1.43158E+03  1.35606E+03  7.99887E+02  1.39637E+02 -1.15820E+03 -6.19890E+02 -1.38119E+02 -7.47396E+02
  2.39375E+03  1.06027E+02  6.62237E+02  8.36106E+02  1.14381E+03  1.95482E+03  8.29837E+02  1.43252E+03
 -1.99568E+03  2.14435E+03 -1.70181E+03 -3.57896E+02 -2.83956E+03 -1.47137E+03 -1.16508E+03 -2.60363E+03
  1.00194E+03 -2.08104E+03  2.98209E+03 -4.99783E+02  2.59421E+03  2.11595E+02  3.63779E+02  3.09048E+03
  5.58027E+01  2.52785E+03 -2.18318E+03  1.45591E+03 -1.77351E+03  8.26156E+02 -2.33853E+03 -3.10731E+02
 -1.20679E+03 -4.84750E+02 -6.58282E+02  2.36186E+02 -2.29578E+03  5.88650E+02 -2.00015E+03  1.07906E+02
 -2.83260E+03 -4.16222E+02 -5.88846E+02 -1.93618E+03  1.42808E+03 -3.10552E+03  1.36172E+03 -9.77036E+02
  2.59005E+03  9.00154E+02  1.36234E+03  1.72834E+03 -8.46926E+02  2.60948E+03 -1.76322E+03  1.49707E+03
