 $NMID ID='MM_0lb_SNR200_12hz_g55_75.RAW', FMTDAT='(8E13.5)'
 TRAMP=1., VOLUME=1. $END
  3.09500E+05  8.97310E+02  3.37792E+05  2.50479E+05  8.47578E+04  3.38629E+05 -1.32353E+05  2.51518E+05
 -1.91225E+05  8.37787E+04 -1.12463E+05 -3.22307E+04  1.34927E+02 -5.11838E+04  5.26675E+04  1.55175E+02
  3.49194E+04  5.39629E+04 -1.60153E+04  7.61442E+04 -6.02750E+04  6.44635E+04 -8.41808E+04  3.09359E+04
 -8.14348E+04 -1.02962E+04 -5.76101E+04 -5.17775E+04 -1.65938E+04 -7.11484E+04  2.73806E+04 -4.52109E+04
  3.95716E+04  4.06764E+03  1.63391E+04  4.90552E+04 -3.48396E+04  4.75959E+04 -6.83369E+04  2.41497E+02
 -5.55901E+04 -5.78452E+04 -7.46980E+03 -7.75729E+04  3.47932E+04 -5.64731E+04  4.93461E+04 -2.01424E+04
  4.35346E+04  1.24742E+04  3.17344E+04  2.62083E+04  1.65629E+04  2.99836E+04 -4.79070E+03  2.75951E+04
 -2.07373E+04  1.25723E+04 -1.74364E+04 -5.35740E+03  6.29126E+03 -7.08105E+03  2.31814E+04  1.20816E+04
  6.91409E+03  3.61115E+04 -3.23425E+04  3.73715E+04 -6.44261E+04  2.09383E+03 -5.75168E+04 -4.25466E+04
 -1.30192E+04 -6.56073E+04  4.08452E+04 -4.68164E+04  6.03941E+04 -1.44804E+03  3.58179E+04  3.44804E+04
 -6.82371E+03  3.86260E+04 -3.21847E+04  1.58492E+04 -3.11124E+04 -3.90702E+03 -1.81585E+04 -1.12654E+04
 -8.90123E+03 -1.63608E+04 -1.06132E+03 -1.86905E+04  9.12721E+03 -2.16488E+04  1.65057E+04 -1.29258E+04
  1.01403E+04  7.54148E+03 -8.09240E+03  1.26286E+04 -2.26922E+04 -5.69145E+03 -8.77974E+03 -3.65751E+04
  2.52812E+04 -4.54873E+04  5.00021E+04 -2.09365E+04  4.60207E+04  2.06454E+04  1.60926E+04  4.43222E+04
 -1.55536E+04  3.40844E+04 -2.80420E+04  2.43051E+03 -9.63989E+03 -2.91141E+04  2.25345E+04 -3.54908E+04
  4.27748E+04 -9.90736E+03  3.87037E+04  2.37081E+04  1.97565E+04  5.00549E+04 -8.95820E+03  5.35034E+04
 -3.28101E+04  3.62407E+04 -4.40582E+04  9.08160E+03 -4.38405E+04 -1.68149E+04 -2.48353E+04 -4.02609E+04
  7.44849E+03 -3.97027E+04  3.31794E+04 -1.62897E+04  3.00429E+04  1.18313E+04  4.81913E+03  1.86796E+04
 -1.45610E+04  9.57839E+03 -1.15659E+04 -7.42167E+03  5.03406E+03 -1.18458E+04  2.00176E+04  5.02572E+03
  1.33888E+04  2.35565E+04 -6.55014E+03  2.48820E+04 -2.40765E+04  1.34280E+04 -2.99488E+04 -4.11305E+03
 -2.20472E+04 -1.74533E+04 -9.99018E+03 -2.30109E+04  5.30064E+03 -2.33136E+04  1.70915E+04 -2.09771E+04
  2.85108E+04 -1.34413E+04  3.52941E+04  3.17951E+03  2.63924E+04  2.16937E+04  5.01520E+03  4.01218E+04
 -1.84546E+04  3.14711E+04 -2.98935E+04  1.02023E+04 -2.17159E+04 -1.07806E+04 -3.15751E+03 -1.32468E+04
  7.84594E+02 -3.46432E+03 -6.26811E+03  6.65469E+03 -1.73145E+04  4.83711E+03 -1.85087E+04 -9.34501E+03
 -1.02519E+04 -2.22505E+04  6.44480E+03 -2.55501E+04  1.86607E+04 -1.69733E+04  2.10836E+04  1.12308E+02
  1.28592E+04  1.42140E+04 -2.68589E+03  2.17322E+04 -1.49928E+04  1.28358E+04 -2.08990E+04 -3.80490E+03
 -1.61001E+04 -1.79328E+04 -1.57937E+03 -2.49810E+04  1.12768E+04 -2.06514E+04  2.12061E+04 -1.09650E+04
  2.01862E+04  4.85454E+02  1.52354E+04  4.41972E+03  7.16738E+03  2.30661E+03  1.10509E+04 -1.27641E+03
  2.14229E+04  4.20710E+03  2.23325E+04  1.73562E+04  1.51415E+04  3.46103E+04 -4.23841E+03  3.95742E+04
 -2.30687E+04  3.26794E+04 -3.56102E+04  1.75803E+04 -4.01443E+04 -2.75434E+03 -3.22426E+04 -2.31247E+04
 -1.28777E+04 -3.18906E+04  1.14094E+04 -2.81681E+04  2.49014E+04 -1.37387E+04  2.04133E+04  7.24761E+03
  7.29972E+03  1.71373E+04 -1.03621E+04  1.36303E+04 -1.88801E+04  2.86059E+03 -1.36359E+04 -1.00720E+04
 -4.05743E+02 -1.71166E+04  9.24649E+03 -1.27914E+04  1.19414E+04 -2.18097E+03  3.26421E+03  7.82091E+03
 -5.83479E+03  3.14096E+03 -8.03921E+03 -6.49279E+03 -1.16318E+03 -1.67069E+04  1.01305E+04 -1.69554E+04
  2.04390E+04 -8.19568E+03  2.19888E+04  1.26189E+03  1.87878E+04  1.61883E+04  7.95013E+03  2.40544E+04
 -4.02889E+03  2.70206E+04 -1.67290E+04  1.66858E+04 -1.87415E+04  3.02611E+03 -1.31367E+04 -3.72686E+03
 -5.96717E+03 -5.33397E+03 -8.66494E+02  3.44018E+02 -3.29433E+03  3.69992E+03 -5.87270E+03  3.44695E+03
 -1.00492E+04 -7.21405E+02 -1.25383E+04 -1.15828E+04 -5.84749E+03 -1.67413E+04  3.65913E+03 -1.35968E+04
  1.15480E+04 -6.25302E+03  8.69091E+03  3.02104E+03 -5.89179E+02  5.08815E+03 -6.84616E+03  4.87060E+02
 -6.99313E+03 -9.80849E+03 -2.00422E+03 -1.32741E+04  8.55182E+03 -1.41713E+04  1.76447E+04 -6.59118E+03
  1.98886E+04  1.76982E+03  1.39530E+04  1.13887E+04  3.21411E+03  1.57148E+04 -8.11434E+03  1.27996E+04
 -1.04756E+04  4.84649E+03 -5.87598E+03 -3.69245E+03  2.52291E+03 -4.30192E+03  6.72429E+03 -6.46889E+02
  6.80044E+03  7.08031E+03  1.42308E+03  1.05665E+04 -6.34571E+03  9.82206E+03 -1.30747E+04  2.83381E+03
 -8.80460E+03 -7.70205E+03  1.23218E+03 -1.13632E+04  6.98194E+03 -5.97776E+03  6.16034E+03  2.33894E+03
  6.41236E+02  6.84865E+03 -5.50394E+03  1.08148E+04 -1.15720E+04  4.38404E+03 -1.15782E+04 -3.61905E+03
 -5.82152E+03 -1.29080E+04  1.81745E+03 -1.57858E+04  1.32429E+04 -8.03141E+03  1.36140E+04  2.86567E+03
  7.22421E+03  1.14347E+04 -8.30428E+02  1.29025E+04 -9.38993E+03  6.63872E+03 -1.17153E+04 -5.05569E+02
 -8.18859E+03 -8.74472E+03 -2.46823E+03 -9.53115E+03  5.45073E+03 -8.82708E+03  5.24724E+03 -3.96030E+03
  3.49173E+03  1.57118E+03 -4.67520E+02  1.45664E+03  8.12723E+01 -2.15013E+03  2.10393E+03 -5.33145E+03
  8.56730E+03 -3.34395E+03  1.28740E+04  1.31544E+03  1.22674E+04  8.47968E+03  8.45510E+03  1.49877E+04
 -3.91523E+03  1.94465E+04 -1.58285E+04  1.25058E+04 -2.05940E+04  3.50030E+03 -1.61257E+04 -7.35015E+03
 -8.18781E+03 -1.28894E+04 -3.09549E+02 -1.11699E+04  4.41000E+03 -5.29695E+03  3.77635E+03 -3.65133E+03
  3.16054E+03 -2.46160E+03  3.33457E+03 -2.57902E+03  5.58672E+03 -2.16409E+03  5.15741E+03 -1.67812E+03
  7.67383E+03  1.71511E+03  3.93425E+03  7.43195E+03 -1.15111E+03  8.82752E+03 -9.38149E+03  5.96046E+03
 -1.15531E+04 -8.77875E+02 -6.58401E+03 -7.22096E+03 -8.00400E+02 -1.17782E+04  6.62509E+03 -1.16779E+04
  1.21094E+04 -7.25805E+03  1.41768E+04  1.32141E+03  1.10002E+04  1.02533E+04  9.07593E+02  1.38811E+04
 -5.77742E+03  1.10454E+04 -8.24659E+03  3.45536E+03 -4.02638E+03 -1.57026E+03 -1.07120E+03 -9.46782E+02
 -6.62827E+02 -9.62435E+02  7.90084E+01  2.91493E+03 -4.07098E+03  2.88141E+03 -8.45592E+03 -8.34870E+02
 -5.04403E+03 -9.20668E+03 -7.77778E+02 -1.05597E+04  6.60137E+03 -9.33215E+03  1.18718E+04 -3.22295E+03
  9.86807E+03  6.32284E+03  4.93366E+03  9.70367E+03 -2.10058E+03  1.12117E+04 -6.54160E+03  7.51654E+03
 -1.04267E+04  1.02090E+03 -9.07158E+03 -6.36577E+03 -2.61747E+02 -9.74518E+03  3.62475E+03 -5.71698E+03
  6.30397E+03 -3.39511E+03  4.89197E+03  2.16729E+03  2.51233E+03  3.74862E+03  2.37945E+03  1.86445E+02
  3.09543E+03  9.37041E+02  3.23070E+03  2.84607E+03  2.61798E+03  4.09966E+03  2.60177E+03  6.17621E+03
 -2.04250E+03  7.14072E+03 -9.54046E+03  7.82734E+03 -9.84645E+03  1.22108E+03 -1.15713E+04 -2.61395E+03
 -5.31972E+03 -9.83209E+03  1.87350E+03 -1.22545E+04  4.91972E+03 -8.23172E+03  8.34551E+03 -1.15012E+03
  6.06331E+03  4.37191E+03  1.62593E+03  6.75931E+03 -8.13585E+02  3.55319E+03 -4.50363E+03 -2.31678E+02
 -1.85834E+03 -3.51929E+03  3.20101E+03 -4.07030E+03  3.79679E+03 -2.07744E+03  3.99788E+03  1.53347E+02
  2.93850E+03  1.28970E+03  2.30664E+03  3.01583E+02  4.78148E+02  1.82276E+03  1.87122E+03 -2.32007E+02
  5.29496E+01  5.23177E+02  5.03155E+03  2.07043E+03  2.88175E+03  6.33583E+03 -1.89996E+03  7.57724E+03
 -4.29666E+03  4.73559E+03 -7.00593E+03  1.70961E+03 -5.98088E+03 -2.32120E+03 -1.77290E+03 -5.39718E+03
  2.69723E+02 -3.69330E+03  2.64126E+03 -2.46106E+03  2.27128E+03  2.78599E+03 -4.55011E+02  3.43121E+03
 -4.69876E+03  1.76804E+03 -4.19113E+03 -2.65521E+03 -1.93378E+03 -5.17192E+03  2.24198E+02 -4.25010E+03
  2.37077E+03 -3.58540E+03  3.73178E+03  6.22468E+02  2.40651E+03  8.41198E+02  9.37587E+02  3.47721E+03
 -2.39970E+03  1.82181E+03 -1.99216E+03 -2.50243E+03 -3.18985E+02 -3.72065E+03  5.52841E+03 -3.90198E+03
  3.99440E+03  1.57522E+03  5.21190E+03  3.32197E+03  2.09093E+03  5.76437E+03 -2.11806E+03  7.63621E+03
 -4.33108E+03  1.89140E+03 -5.24423E+03 -3.52052E+02 -3.82177E+03 -4.23886E+03  1.36484E+02 -3.68024E+03
  5.45042E+03 -2.83335E+03  3.06553E+03  1.32500E+03  3.79008E+02  3.82065E+03 -8.00867E+02  2.61687E+03
 -1.04348E+03  9.92673E+02 -7.29207E+02  1.54822E+03 -7.32364E+02  1.04641E+03 -1.36812E+03  6.84842E+02
 -2.68308E+03  2.96617E+03 -5.88080E+03  1.96937E+03 -5.71676E+03  1.58106E+02 -6.40632E+03 -3.98305E+03
 -4.28091E+03 -5.93487E+03  1.47324E+03 -9.05040E+03  5.67639E+03 -5.99192E+03  8.93106E+03 -4.26549E+03
  9.09367E+03  1.01257E+03  4.81158E+03  5.72184E+03 -9.00435E+02  5.49117E+03 -2.16324E+03  5.08246E+03
 -4.33698E+03  2.45414E+03 -1.90419E+03 -1.45019E+03  1.54396E+02 -1.32817E+02 -1.15212E+03 -8.01831E+02
 -1.61697E+02  1.66813E+02 -2.72536E+02  5.94511E+01 -3.40466E+02 -1.53029E+02 -1.17871E+03 -2.73973E+03
  3.83330E+03 -3.05507E+03  4.02279E+03 -2.46293E+01  5.31101E+03  3.03637E+03  1.26707E+03  6.43996E+03
 -3.57636E+03  7.12498E+03 -6.28062E+03  3.87639E+03 -7.80561E+03 -1.10529E+03 -5.14206E+03 -3.02660E+03
 -2.41312E+03 -5.93698E+03  1.09423E+02 -4.64084E+03  2.97584E+03 -2.62833E+03  4.56644E+03 -5.18024E+02
  1.74169E+03  1.53868E+03  7.36758E+02  2.82954E+03 -1.82615E+03  2.19474E+01  8.81697E+02 -1.04719E+03
  2.46218E+03 -1.73557E+02  2.18007E+03  1.30236E+03  2.17739E+03  1.02049E+03  1.13622E+03  2.86600E+03
 -2.06220E+03  2.77652E+03 -3.61272E+03  9.53367E+02 -3.86773E+03 -2.56632E+03  7.80497E-01 -5.72822E+03
  1.41735E+03 -3.82316E+03  4.52801E+03 -2.02268E+03  5.02813E+03  3.68293E+02  2.47792E+03  2.71722E+03
 -6.64980E+02  3.97108E+03 -6.66130E+02  2.68780E+03 -2.99213E+03  2.29460E+03 -2.41895E+03 -4.69326E+02
 -9.97978E+02  2.47664E+02 -3.21729E+02  1.11348E+03 -1.44983E+03  1.65080E+03 -2.26700E+03 -7.09274E+02
 -2.86407E+03 -1.77063E+03 -7.80083E+02 -2.48182E+03  1.72823E+03 -3.20966E+03  3.14505E+03 -1.36150E+03
  4.05894E+03 -5.90532E+02  6.37468E+02  2.82871E+03 -7.26326E+02  3.28719E+03 -1.92120E+03  2.42696E+03
