 $NMID ID='MM_0lb_SNR200_20hz_g55_64.RAW', FMTDAT='(8E13.5)'
 TRAMP=1., VOLUME=1. $END
  3.10092E+05 -2.36933E+02  3.37797E+05  2.50472E+05  8.35792E+04  3.36997E+05 -1.31208E+05  2.51690E+05
 -1.89814E+05  8.26509E+04 -1.10990E+05 -3.34912E+04  1.38991E+03 -5.01367E+04  5.43600E+04  5.16470E+02
  3.52254E+04  5.38394E+04 -1.68691E+04  7.51692E+04 -5.98702E+04  6.24837E+04 -8.35225E+04  3.18560E+04
 -7.93414E+04 -1.09126E+04 -5.67153E+04 -5.01979E+04 -1.45597E+04 -6.87843E+04  2.60350E+04 -4.60609E+04
  3.99805E+04  4.91778E+03  1.64858E+04  4.68503E+04 -3.33783E+04  4.63109E+04 -6.56973E+04 -6.76772E+02
 -5.23574E+04 -5.53930E+04 -6.28214E+03 -7.54091E+04  3.28779E+04 -5.26209E+04  4.59579E+04 -1.56965E+04
  4.27953E+04  1.01783E+04  3.03435E+04  2.45763E+04  1.59430E+04  2.83169E+04 -4.76222E+03  2.63599E+04
 -2.15728E+04  1.13495E+04 -1.93134E+04 -4.35112E+03  4.13149E+03 -7.45157E+03  2.08190E+04  1.19746E+04
  5.70385E+03  3.25075E+04 -3.07954E+04  3.41940E+04 -6.13130E+04  1.81219E+03 -5.61378E+04 -4.11423E+04
 -1.18669E+04 -6.09974E+04  3.81849E+04 -4.26580E+04  5.46465E+04 -1.85387E+03  3.21128E+04  3.11693E+04
 -6.98344E+03  3.39475E+04 -2.85168E+04  1.32822E+04 -2.84497E+04 -5.26194E+03 -1.49967E+04 -1.09554E+04
 -7.21279E+03 -1.11271E+04 -8.92093E+02 -1.67234E+04  6.58443E+03 -2.33680E+04  1.49744E+04 -1.31711E+04
  1.21812E+04  3.99265E+03 -6.99300E+03  1.24083E+04 -2.04203E+04 -3.15757E+03 -7.14549E+03 -3.00292E+04
  2.10296E+04 -4.08085E+04  4.48223E+04 -1.85219E+04  4.12922E+04  1.70271E+04  1.48908E+04  4.18820E+04
 -1.60826E+04  3.09521E+04 -2.35160E+04  6.99731E+02 -8.90709E+03 -2.64604E+04  2.02508E+04 -3.16639E+04
  3.79989E+04 -7.44488E+03  3.17681E+04  2.28995E+04  1.51233E+04  4.12639E+04 -9.47664E+03  4.52852E+04
 -2.91054E+04  3.02794E+04 -3.69498E+04  7.98264E+03 -3.87075E+04 -1.53448E+04 -2.15678E+04 -3.50941E+04
  6.79946E+03 -3.32244E+04  2.78324E+04 -1.21274E+04  2.78270E+04  1.09347E+04  3.22320E+03  1.64916E+04
 -1.24625E+04  7.24375E+03 -1.03403E+04 -7.82718E+03  6.04286E+03 -1.01363E+04  1.80230E+04  6.94568E+03
  1.25459E+04  2.22682E+04 -6.68731E+03  2.36833E+04 -2.14272E+04  9.41275E+03 -2.40904E+04 -5.84411E+03
 -1.74735E+04 -1.63084E+04 -4.82058E+03 -1.60391E+04  3.79135E+03 -1.43787E+04  1.19514E+04 -1.32300E+04
  2.10169E+04 -1.23165E+04  2.80876E+04  1.46821E+03  2.12671E+04  1.68406E+04  4.59617E+03  3.18575E+04
 -1.49884E+04  2.71646E+04 -2.62894E+04  9.87694E+03 -1.92729E+04 -9.99016E+03 -3.13843E+03 -1.33224E+04
  3.22068E+03 -4.03603E+03 -3.62967E+03  5.21497E+03 -1.30829E+04  3.93780E+03 -1.25754E+04 -5.36313E+03
 -7.93049E+03 -1.47820E+04  4.86375E+03 -1.97516E+04  1.25100E+04 -1.41256E+04  1.39516E+04 -1.64815E+03
  8.91527E+03  1.00880E+04  1.35135E+02  1.63570E+04 -9.89394E+03  9.27913E+03 -1.52188E+04 -3.30517E+03
 -1.22594E+04 -1.52309E+04 -1.69909E+03 -1.75055E+04  8.07578E+03 -1.47205E+04  1.51478E+04 -6.72713E+03
  1.37779E+04  7.17695E+02  1.07461E+04  4.64791E+03  4.92932E+03  6.57401E+02  6.92096E+03 -1.88242E+03
  1.38581E+04  1.84808E+03  1.49013E+04  1.25462E+04  8.78620E+03  2.48971E+04 -2.97497E+03  2.59568E+04
 -1.66061E+04  1.99278E+04 -2.27996E+04  9.57575E+03 -2.41965E+04 -1.57459E+03 -2.10340E+04 -1.41493E+04
 -1.03488E+04 -1.92767E+04  6.66935E+03 -1.84322E+04  1.57039E+04 -1.10849E+04  1.60566E+04  3.86032E+03
  6.09617E+03  1.11977E+04 -7.00471E+03  9.87956E+03 -1.24076E+04  3.17349E+03 -9.33456E+03 -7.90290E+03
  2.00929E+02 -1.17238E+04  5.46872E+03 -8.93797E+03  7.75504E+03 -1.17653E+03  1.35981E+03  5.19956E+03
 -5.54859E+03  6.95315E+02 -4.41856E+03 -4.82227E+03  7.25298E+02 -9.66854E+03  7.71213E+03 -1.00433E+04
  1.16671E+04 -4.11761E+03  1.12199E+04  1.68628E+03  1.01155E+04  8.62361E+03  5.27994E+03  1.37158E+04
 -8.77025E+02  1.52256E+04 -9.70431E+03  9.35488E+03 -9.44869E+03  2.23229E+03 -7.83782E+03 -2.43574E+03
 -4.43514E+03 -2.94631E+03 -1.43564E+03  3.73580E+02 -1.09913E+03  1.83779E+03 -1.89604E+03  4.23926E+03
 -9.05450E+03 -1.78469E+02 -8.55646E+03 -7.05740E+03 -2.59322E+03 -1.10807E+04  3.00776E+03 -8.75466E+03
  7.05552E+03 -3.88589E+03  5.39968E+03  2.77076E+03  1.61231E+03  2.31673E+03 -3.43875E+03 -1.30235E+01
 -2.78047E+03 -4.74186E+03 -5.17277E+02 -6.60647E+03  3.36909E+03 -8.31075E+03  9.67823E+03 -4.11913E+03
  1.07714E+04 -1.18272E+01  7.98450E+03  5.65142E+03  1.06141E+03  8.11007E+03 -4.94950E+03  7.99212E+03
 -7.13397E+03  2.09536E+03 -3.67061E+03 -1.43779E+03  1.45085E+03 -2.32001E+03  3.12034E+03 -2.00468E+03
  3.71235E+03  3.31299E+03  1.38206E+03  6.26523E+03 -4.02154E+03  6.14244E+03 -7.35372E+03  2.61842E+03
 -5.59015E+03 -3.05082E+03 -1.18479E+02 -6.98226E+03  3.24240E+03 -3.33375E+03  3.33585E+03  6.46858E+02
  1.32459E+03  2.63290E+03 -3.91698E+03  4.21163E+03 -4.80672E+03  2.43216E+03 -3.18394E+03 -1.57183E+02
 -2.96572E+03 -5.93808E+03  4.35774E+02 -6.20141E+03  5.93831E+03 -4.69155E+03  6.71077E+03  1.55696E+02
  3.48653E+03  4.35073E+03  2.56028E+02  6.44615E+03 -5.14071E+03  5.01244E+03 -5.38178E+03 -4.39807E+01
 -5.90432E+03 -4.45728E+03 -3.08098E+03 -3.93573E+03  1.68491E+03 -3.46311E+03  2.68287E+03 -2.46294E+03
  2.88673E+03 -6.42877E+02 -7.63370E+02  1.13154E+03  1.17090E+03 -2.36353E+02 -1.45155E+03 -1.42773E+03
  2.56324E+03 -1.30296E+03  4.62770E+03 -2.54476E+02  4.68785E+03  2.16385E+03  5.83744E+03  6.59780E+03
 -1.33836E+03  7.60557E+03 -6.49057E+03  5.64047E+03 -8.61364E+03  1.38550E+03 -6.27788E+03 -2.70311E+03
 -2.55935E+03 -6.41496E+03 -3.73445E+02 -4.24895E+03  2.34128E+03 -2.48287E+03  1.06310E+03 -1.78323E+03
  1.56860E+03 -1.19005E+03  1.41886E+03 -2.36337E+03  2.83704E+03 -7.21212E+02  3.13889E+03 -3.60588E+02
  3.86381E+03  1.11565E+03  3.41736E+02  1.57317E+03 -2.14484E+03  2.73316E+03 -4.76747E+03  2.16300E+03
 -3.87491E+03 -1.79547E+03 -1.56167E+03 -3.00113E+03  1.58012E+02 -4.61827E+03  1.71918E+03 -4.25635E+03
  4.27116E+03 -2.37792E+03  5.69361E+03  1.01035E+03  3.85567E+03  3.26759E+03  1.99731E+03  3.66391E+03
 -2.57095E+03  5.13175E+03 -2.15756E+03  2.11085E+03 -2.70088E+02 -1.74512E+02 -6.87425E+02  1.71446E+01
 -1.61413E+02 -2.84552E+02 -5.98930E+02  2.31265E+03 -2.45489E+03  1.48153E+03 -4.20272E+03 -1.78155E+02
 -1.02162E+03 -3.98391E+03  1.01447E+03 -3.98937E+03  2.70964E+03 -4.56088E+03  3.23840E+03 -1.20116E+03
  3.49401E+03  1.70009E+03  1.55379E+03  2.34052E+03 -2.62059E+02  2.90970E+03 -1.79587E+03  3.21817E+03
 -2.46222E+03  1.00689E+03 -2.83083E+03 -1.72557E+03  1.09060E+03 -3.27010E+03 -1.60545E+01 -1.95097E+03
  1.97662E+03 -1.03361E+03  1.81449E+03  1.36544E+03  2.14127E+02  1.21440E+03 -7.62806E+02 -7.24432E+02
  1.61829E+03 -4.79162E+02  3.46493E+02  8.99312E+02  9.74820E+02  1.59095E+03  8.88960E+02  1.30289E+03
 -4.87994E+02  1.49323E+03 -1.16923E+03  4.05766E+03 -1.77774E+03  5.65150E+02 -3.62700E+03 -1.52336E+02
 -7.60423E+02 -2.99697E+03 -3.47184E+02 -3.93110E+03  1.65202E+03 -1.79837E+03  2.93723E+03 -5.13293E+02
  2.72379E+03  1.86917E+03  3.54300E+02  2.31037E+03 -9.94144E+02  8.53258E+02 -4.46327E+02  4.64261E+02
 -5.20160E+02 -1.53703E+03  1.12466E+03 -8.72466E+02  1.53782E+03  1.42724E+01  1.78167E+03  1.23986E+02
  6.88108E+02 -5.93647E+02  1.20896E+03 -1.13859E+01  3.77314E+02  1.58777E+03  2.72126E+03 -7.60695E+02
 -2.08011E+03 -8.65442E+01  2.86539E+03  6.98842E+02  1.83328E+02  2.80542E+03 -6.25346E+02  1.84913E+03
 -1.77216E+03  7.41984E+02 -2.31843E+03  9.75258E+02 -2.05612E+03 -3.12701E+02  1.91094E+02  2.82550E+02
  2.06927E+03 -9.47278E+01  1.07596E+03  1.75934E+02  6.33758E+02  1.79869E+03 -4.20392E+02  1.43269E+03
 -5.44731E+02  5.45939E+02 -5.50892E+02 -1.75425E+03 -1.25033E+03 -2.44593E+03  4.23467E+01 -1.71277E+02
 -2.27188E+02 -5.53915E+02  6.52053E+02 -2.59480E+02  1.92497E+03 -1.33485E+03  3.72356E+02  3.20847E+02
 -9.98481E+02 -3.24022E+02 -1.06675E+03  3.51623E+02  5.37414E+02 -1.35767E+02  1.31306E+03  1.65433E+02
  1.04376E+03  2.10818E+01  2.19392E+03  1.24688E+03  1.00564E+03  7.10890E+02 -7.13581E+02  6.58076E+02
 -6.64484E+02  2.26561E+02 -1.45258E+03 -1.52932E+03 -1.00552E+03 -1.42111E+03 -7.10426E+01  4.47966E+02
  1.54118E+03 -1.21999E+03  4.34723E+02  5.93206E+02  1.28301E+02  1.02546E+03  1.00893E+03  8.99585E+02
 -9.65075E+02  1.37311E+03 -5.57634E+02  4.60375E+02 -8.55508E+02  1.32913E+03 -9.17445E+02  5.70927E+02
 -2.62320E+02  6.62447E+02 -7.20582E+02  1.71801E+02 -3.02596E+02 -6.86376E+02 -1.61782E+03 -2.37398E+02
 -1.68084E+03 -1.91439E+03  5.19572E+02 -1.86043E+03 -5.28519E+02 -1.79732E+03  1.71186E+03 -1.01027E+03
  1.02823E+03 -8.08577E+01  7.98918E+02  1.87725E+03 -8.38149E+02  2.49883E+02 -7.63939E+02  5.39128E+02
 -6.35039E+02  1.19733E+03 -1.54787E+02  2.48372E+02 -2.61861E+02 -2.63010E+02 -6.39413E+02  4.35916E+00
 -9.83369E+02  4.51046E+02 -2.13675E+02  1.38253E+02  3.09308E+02  1.97371E+02 -1.02554E+03 -9.04539E+02
  5.68798E+02 -6.40953E+02  1.76315E+02 -2.12662E+02  2.28607E+03 -1.14997E+02  3.89239E+00 -1.08861E+02
 -9.52691E+02  8.37144E+02 -2.54106E+03  1.68598E+03 -1.58689E+03 -7.40897E+02 -6.41667E+02 -3.50446E+02
 -1.65918E+03 -7.91412E+02  1.05885E+03 -7.84753E+02  6.58149E+02 -3.96139E+02  9.37370E+02 -3.87722E+02
 -8.48722E+01 -4.33767E+02  5.44611E+02  3.10469E+02  4.95856E+01 -4.50963E+02 -1.03492E+03 -3.86589E+02
  1.83338E+02  5.47902E+02 -4.80354E+01  7.72703E+02  1.21216E+03  5.49926E+02  6.54652E+02  1.28542E+03
 -5.57717E+02  2.12724E+02  3.45206E+02 -3.04905E+02 -3.33319E+02  8.99754E+01 -9.15728E+02 -8.99809E+02
  9.54458E+02 -4.80063E+02  7.21402E+02 -1.52474E+02  6.49739E+02 -1.03346E+03  6.24418E+02  7.26242E+01
  6.50524E+02 -4.17839E+02  4.75304E+02 -1.08694E+02  7.52335E+02 -1.08657E+02 -7.12920E+02  4.12589E+02
  6.92953E+02  4.54681E+02  3.08574E+02  3.05475E+02  7.77284E+01  6.56203E+02 -4.05571E+02 -1.11353E+03
 -1.85674E+03 -8.67701E+01 -4.67833E+02 -5.75354E+00  1.85294E+03 -2.46987E+03  9.42171E+02  4.05008E+02
  1.75441E+02  7.42587E+02 -2.85312E+01 -2.55878E+02  2.52518E+02 -3.36398E+02  5.55505E+02 -9.05267E+01
