 $NMID ID='MM_0lb_SNR200_13hz_g40_34.RAW', FMTDAT='(8E13.5)'
 TRAMP=1., VOLUME=1. $END
  3.10978E+05  2.23873E+02  3.37882E+05  2.49667E+05  8.42030E+04  3.37865E+05 -1.32152E+05  2.51133E+05
 -1.89271E+05  8.26166E+04 -1.11082E+05 -3.18048E+04  3.33824E+02 -5.09692E+04  5.47717E+04 -1.83378E+03
  3.55996E+04  5.21992E+04 -1.74214E+04  7.37605E+04 -6.03513E+04  6.31351E+04 -8.42630E+04  3.31003E+04
 -8.05099E+04 -1.09921E+04 -5.62365E+04 -4.99360E+04 -1.46259E+04 -6.92528E+04  2.70224E+04 -4.62476E+04
  3.84280E+04  2.99074E+03  1.62598E+04  4.79754E+04 -3.37922E+04  4.75176E+04 -6.57941E+04 -2.73535E+02
 -5.31364E+04 -5.64991E+04 -7.24712E+03 -7.74279E+04  3.42849E+04 -5.53442E+04  4.74731E+04 -1.62903E+04
  4.25941E+04  1.18271E+04  3.15740E+04  2.54533E+04  1.47023E+04  3.09697E+04 -5.59800E+03  2.77979E+04
 -2.23558E+04  1.27884E+04 -1.87718E+04 -5.23487E+03  5.81705E+03 -7.81302E+03  2.24645E+04  1.23945E+04
  7.10833E+03  3.41401E+04 -3.16870E+04  3.53050E+04 -6.34132E+04  2.28448E+03 -5.58518E+04 -4.27201E+04
 -1.13329E+04 -6.27371E+04  3.94946E+04 -4.49612E+04  5.90902E+04 -2.25833E+03  3.42716E+04  3.27485E+04
 -6.36018E+03  3.54418E+04 -2.87535E+04  1.46494E+04 -2.95933E+04 -3.60358E+03 -1.71727E+04 -1.11572E+04
 -8.78187E+03 -1.27625E+04  9.99740E+01 -1.76727E+04  6.92569E+03 -2.17586E+04  1.37823E+04 -1.26106E+04
  1.14653E+04  4.66111E+03 -8.96088E+03  1.34146E+04 -2.09089E+04 -3.51383E+03 -8.79508E+03 -3.43960E+04
  2.44175E+04 -4.28846E+04  4.80857E+04 -2.03027E+04  4.43580E+04  1.84102E+04  1.61062E+04  4.47544E+04
 -1.65779E+04  3.35826E+04 -2.58216E+04  2.15380E+03 -8.78075E+03 -2.82395E+04  1.97244E+04 -3.39026E+04
  4.21276E+04 -7.00834E+03  3.60992E+04  2.40289E+04  1.87232E+04  4.70032E+04 -8.73901E+03  5.02268E+04
 -3.23196E+04  3.46485E+04 -4.13857E+04  8.71015E+03 -4.19958E+04 -1.74484E+04 -2.39674E+04 -3.93117E+04
  6.95222E+03 -3.85935E+04  3.09876E+04 -1.41474E+04  2.99599E+04  1.02737E+04  4.43825E+03  1.98357E+04
 -1.28815E+04  8.36299E+03 -9.05657E+03 -7.55686E+03  5.92565E+03 -1.14611E+04  1.70738E+04  6.31449E+03
  1.36388E+04  2.35118E+04 -5.75978E+03  2.54077E+04 -2.25487E+04  1.17470E+04 -2.86544E+04 -4.58055E+03
 -2.03913E+04 -1.73440E+04 -8.12009E+03 -2.10333E+04  4.64219E+03 -1.87372E+04  1.60256E+04 -1.91022E+04
  2.58525E+04 -1.39128E+04  3.20972E+04  2.64255E+03  2.31731E+04  1.96187E+04  4.71648E+03  3.57485E+04
 -1.77431E+04  2.96569E+04 -2.84430E+04  1.00634E+04 -2.19254E+04 -9.05341E+03 -3.49431E+03 -1.30969E+04
  1.53112E+03 -2.72143E+03 -6.08847E+03  7.58421E+03 -1.54336E+04  5.33283E+03 -1.70348E+04 -5.99411E+03
 -9.84780E+03 -1.96534E+04  4.90486E+03 -2.14082E+04  1.51201E+04 -1.63141E+04  1.85273E+04 -2.04928E+03
  1.18626E+04  1.24385E+04  3.31270E+02  2.01362E+04 -1.23556E+04  1.25656E+04 -1.90287E+04 -3.31071E+03
 -1.33793E+04 -1.70076E+04 -2.57294E+03 -2.23043E+04  1.06097E+04 -1.92054E+04  1.95321E+04 -1.06150E+04
  1.81830E+04  5.71784E+01  1.20349E+04  3.37673E+03  6.34028E+03  1.85591E+03  9.22120E+03 -1.70388E+03
  1.73463E+04  3.60619E+03  1.92028E+04  1.58198E+04  1.27504E+04  3.07476E+04 -2.80509E+03  3.43790E+04
 -2.00851E+04  2.74694E+04 -3.18158E+04  1.36705E+04 -3.30633E+04 -1.50460E+03 -2.83889E+04 -1.96529E+04
 -1.30963E+04 -2.72807E+04  7.91603E+03 -2.37017E+04  2.12211E+04 -1.34451E+04  1.91363E+04  5.67962E+03
  6.97340E+03  1.48010E+04 -9.88594E+03  1.30200E+04 -1.66115E+04  2.70550E+03 -1.27542E+04 -1.02600E+04
  4.06797E+02 -1.54522E+04  8.16879E+03 -1.08303E+04  1.17650E+04 -2.71984E+03  3.75105E+03  6.82053E+03
 -6.63473E+03  2.36951E+03 -5.36993E+03 -5.91948E+03 -8.18610E+01 -1.26124E+04  9.50248E+03 -1.47972E+04
  1.72523E+04 -7.51786E+03  1.82558E+04  3.81363E+03  1.49777E+04  1.30117E+04  6.45141E+03  2.08405E+04
 -3.95003E+03  2.15534E+04 -1.28157E+04  1.45438E+04 -1.61193E+04  2.32178E+03 -1.17645E+04 -2.83142E+03
 -5.98538E+03 -4.18558E+03 -7.01756E+02  7.59662E+02 -2.55416E+03  2.16049E+03 -5.37855E+03  5.37968E+03
 -1.11913E+04  2.87205E+02 -1.17706E+04 -9.19627E+03 -4.36086E+03 -1.55765E+04  5.82783E+03 -1.19481E+04
  9.98192E+03 -5.98228E+03  7.04787E+03  2.18431E+03 -1.98582E+01  5.08220E+03 -4.17429E+03 -3.02832E+02
 -4.58570E+03 -7.58148E+03 -7.79582E+02 -1.05057E+04  5.67878E+03 -1.15747E+04  1.44944E+04 -5.13394E+03
  1.75782E+04  2.04604E+03  1.24348E+04  9.54137E+03  3.80856E+03  1.28494E+04 -6.27000E+03  1.12755E+04
 -9.83434E+03  4.24692E+03 -5.50357E+03 -1.05423E+03  7.88825E+02 -2.06972E+03  6.35690E+03 -1.06764E+03
  5.06064E+03  4.83154E+03  8.69770E+02  7.62769E+03 -6.18503E+03  8.14634E+03 -1.05859E+04  2.20071E+03
 -6.99863E+03 -4.66092E+03  1.08110E+03 -8.87771E+03  4.53227E+03 -5.56010E+03  6.68521E+03  2.97730E+03
  1.06660E+03  6.59739E+03 -4.95006E+03  7.69954E+03 -8.91015E+03  4.77942E+03 -8.04945E+03 -2.36105E+03
 -4.95284E+03 -1.06385E+04  2.86608E+03 -1.16143E+04  8.71237E+03 -6.73891E+03  1.07854E+04  1.47970E+03
  5.91779E+03  8.58734E+03 -9.98114E+00  1.09342E+04 -8.82560E+03  6.58005E+03 -8.51114E+03 -5.53107E+02
 -6.93975E+03 -8.81614E+03 -1.46215E+03 -8.07283E+03  4.39179E+03 -6.24664E+03  4.92719E+03 -3.80467E+03
  3.14826E+03  9.59657E+02 -1.70848E+03  7.46899E+02  1.04007E+03 -1.08352E+03  1.14767E+03 -5.09364E+03
  7.73278E+03 -2.61257E+03  1.01304E+04  3.12794E+02  1.07852E+04  6.63515E+03  6.76493E+03  1.38837E+04
 -3.04269E+03  1.40206E+04 -1.23371E+04  1.05482E+04 -1.43021E+04  2.18974E+03 -1.30078E+04 -4.98368E+03
 -5.77297E+03 -1.10276E+04  1.75437E+02 -8.62056E+03  3.10640E+03 -6.09424E+03  3.25696E+03 -3.43183E+03
  1.48837E+03 -3.25191E+03  3.34238E+03 -1.86298E+03  4.53199E+03 -1.79352E+03  5.37611E+03 -5.49187E+02
  6.81201E+03  2.70079E+03  1.91064E+03  5.94188E+03 -1.24523E+03  5.41562E+03 -7.47591E+03  4.29945E+03
 -8.97501E+03 -1.57834E+03 -5.27386E+03 -5.84581E+03 -3.21427E+02 -1.04604E+04  6.38888E+03 -9.40610E+03
  9.73672E+03 -5.09348E+03  1.33692E+04  1.60402E+03  8.31180E+03  8.04341E+03  2.05281E+03  1.06598E+04
 -3.80003E+03  7.77746E+03 -7.31047E+03  2.11865E+03 -3.92654E+03 -1.18677E+03 -2.61562E+03 -1.72495E+03
 -2.02642E+03  7.64131E+02 -1.75754E+03  1.46523E+03 -4.81843E+03  1.43284E+03 -7.04908E+03 -1.31239E+03
 -4.94171E+03 -6.99189E+03  4.53456E+02 -8.77797E+03  5.11156E+03 -8.92355E+03  9.00429E+03 -2.87986E+03
  8.67014E+03  4.53610E+03  4.58073E+03  7.06326E+03 -1.69584E+03  9.71926E+03 -5.66181E+03  6.00256E+03
 -7.81480E+03  5.84037E+02 -7.37979E+03 -5.02256E+03 -5.76295E+02 -7.44255E+03  4.42008E+03 -5.03070E+03
  6.38067E+03 -1.34579E+03  2.95721E+03  8.41278E+02  1.16265E+03  2.69711E+03  2.27974E+03  1.26373E+03
  7.59261E+02  1.29147E+02  2.47862E+03  7.67801E+02  2.16780E+03  2.54325E+03  2.30894E+03  3.53668E+03
 -1.35754E+03  6.21210E+03 -4.78309E+03  7.35500E+03 -8.11263E+03  2.32641E+03 -8.26861E+03 -2.34151E+03
 -3.44574E+03 -8.60167E+03  1.39016E+03 -9.24872E+03  4.76431E+03 -5.45663E+03  6.84774E+03 -1.32054E+03
  5.62748E+03  3.19757E+03  4.22624E+02  3.58867E+03 -2.48638E+03  2.40474E+03 -2.20247E+03 -6.14410E+02
 -5.20415E+02 -4.37725E+03  2.28956E+03 -3.46805E+03  3.47191E+03 -3.25433E+03  4.76334E+03  1.18142E+03
  8.38047E+02  1.03483E+03  1.48461E+03  3.93907E+02  1.48039E+03  2.81940E+03  1.44109E+03 -6.94018E+02
  1.27444E+03 -4.09446E+02  3.87897E+03  5.96230E+02  1.21517E+03  4.31255E+03 -1.05769E+03  6.31811E+03
 -3.18367E+03  3.57763E+03 -5.03472E+03  7.96595E+02 -3.83550E+03 -9.61657E+02 -2.37762E+03 -1.68996E+03
  2.17115E+03 -3.41343E+03  2.12594E+03 -1.62838E+03  2.30012E+03  2.21646E+03 -1.23591E+03  2.33431E+03
 -2.99625E+03  1.52335E+03 -3.35990E+03 -2.48751E+03 -2.35570E+03 -3.47367E+03  1.55049E+01 -3.71176E+03
  3.17687E+03 -2.80241E+03  3.46044E+03 -1.21378E+02  2.54667E+03  9.94590E+02  3.97955E+01  2.86316E+03
 -2.23074E+03 -3.45841E+02 -3.34502E+03 -1.79075E+03  8.50717E+02 -2.91880E+03  3.43995E+03 -2.72272E+03
  1.99203E+03 -5.95823E+02  5.52179E+03  3.12047E+03  2.57523E+03  3.29373E+03 -1.10632E+03  4.45611E+03
 -4.38767E+03  1.66403E+03 -3.96953E+03 -1.91745E+03 -2.40761E+03 -3.65962E+03  4.50593E+02 -1.34398E+03
  3.01971E+03 -1.17522E+03  1.99641E+03  2.07399E+03  1.04324E+03  3.48212E+03  7.51211E+00  1.54645E+03
 -9.00864E+02  1.43350E+03 -1.21432E+03  9.37050E+02 -9.55675E+02  1.19142E+02 -1.09133E+03  1.51859E+03
 -1.29792E+03  2.21402E+03 -4.60353E+03  1.01410E+03 -4.68232E+03  1.73114E+02 -5.39633E+03 -1.87181E+03
 -2.63676E+03 -7.52624E+03  4.28747E+02 -7.27399E+03  3.26233E+03 -6.96099E+03  7.95894E+03 -9.68731E+02
  6.33439E+03  4.60379E+02  3.19772E+03  4.33813E+03 -6.16617E+02  4.45835E+03 -1.32923E+03  3.57851E+03
 -2.07103E+03  2.02391E+03 -2.65007E+02 -7.26359E+02 -1.12366E+03  7.06967E+02  2.57218E+02  7.14712E+02
 -3.98866E+02  5.61942E+02  7.09602E+01 -1.83427E+02  2.86421E+02 -7.01166E+02 -5.27064E+02 -9.41894E+02
  3.26093E+03 -2.09408E+03  1.89442E+03 -1.29606E+02  4.37976E+03  3.22010E+03 -2.28408E+02  4.24689E+03
 -2.92610E+03  5.35834E+03 -5.35784E+03  3.80396E+03 -5.49682E+03 -2.14280E+02 -4.37500E+03 -1.99752E+03
 -1.70081E+03 -4.29830E+03  9.56313E+02 -4.20745E+03  3.92871E+03 -3.46980E+03  3.88236E+03  6.27681E+02
  2.70159E+03  8.91150E+02 -4.37100E+02  5.84003E+02 -1.59343E+03  5.80146E+02 -3.25363E+02 -1.86071E+03
  9.53426E+02 -1.99352E+02  1.95767E+03  6.07402E+02  1.02706E+03  1.87748E+03  6.86737E+02  2.57235E+03
 -2.23468E+03  1.01757E+03 -2.57941E+03  8.50698E+02 -3.57183E+03 -2.39730E+03 -1.34642E+03 -3.81251E+03
  1.38245E+03 -3.53050E+03  2.02857E+03 -3.35332E+01  4.38685E+03 -1.52731E+02  1.08233E+03  1.83244E+03
  1.18130E+03  3.77822E+03 -7.22579E+02  2.23633E+03 -3.24011E+03  1.69715E+03 -1.80540E+03 -2.29806E+02
  1.93218E+02 -5.63907E+02 -5.70805E+02  9.37957E+02 -1.57733E+03  1.05697E+03 -2.52913E+03 -1.03423E+03
 -1.85837E+03 -1.43306E+03 -1.41464E+03 -1.92753E+03  2.65077E+03 -2.77843E+03  3.18311E+03  7.70670E+01
  2.99233E+03  7.34081E+02  2.17757E+03  5.56953E+02 -5.34557E+02  3.44102E+03 -2.60079E+03  1.55640E+03
