 $NMID ID='MM_0lb_SNR200_9hz_g60_95.RAW', FMTDAT='(8E13.5)'
 TRAMP=1., VOLUME=1. $END
  3.09147E+05  3.10730E+02  3.37497E+05  2.49643E+05  8.38231E+04  3.39598E+05 -1.34129E+05  2.52442E+05
 -1.90853E+05  8.19170E+04 -1.12615E+05 -3.31007E+04 -7.14728E+01 -5.22993E+04  5.51218E+04 -5.21501E+02
  3.46991E+04  5.22601E+04 -1.68374E+04  7.40461E+04 -6.13710E+04  6.41175E+04 -8.50225E+04  3.29916E+04
 -8.37353E+04 -1.17318E+04 -5.86498E+04 -5.25394E+04 -1.53068E+04 -7.10816E+04  2.74029E+04 -4.72102E+04
  4.18158E+04  2.61188E+03  1.80656E+04  4.91932E+04 -3.44203E+04  4.80513E+04 -6.87393E+04 -3.56229E+02
 -5.39489E+04 -5.94296E+04 -8.67693E+03 -7.87087E+04  3.47925E+04 -5.80926E+04  5.09655E+04 -2.07466E+04
  4.58321E+04  9.72539E+03  3.38323E+04  2.79432E+04  1.53396E+04  3.06974E+04 -5.97582E+03  2.79851E+04
 -2.25761E+04  1.18480E+04 -1.86533E+04 -5.60028E+03  6.93673E+03 -6.81764E+03  2.45117E+04  1.37484E+04
  6.32719E+03  3.91271E+04 -3.57541E+04  3.78707E+04 -6.60271E+04  3.13750E+03 -5.78046E+04 -4.24597E+04
 -1.31988E+04 -6.62045E+04  4.13950E+04 -4.92778E+04  6.21866E+04 -7.28342E+02  3.78601E+04  3.38071E+04
 -5.67818E+03  3.89744E+04 -3.38866E+04  1.92500E+04 -3.43684E+04 -4.35696E+03 -1.92513E+04 -1.26090E+04
 -1.10201E+04 -1.64797E+04 -1.32637E+03 -1.94906E+04  9.71328E+03 -2.38233E+04  1.57147E+04 -1.20030E+04
  9.03760E+03  6.22560E+03 -1.07596E+04  1.28034E+04 -2.47447E+04 -6.42701E+03 -8.95024E+03 -3.89439E+04
  2.61426E+04 -4.67145E+04  5.13401E+04 -2.14753E+04  5.02962E+04  1.96285E+04  1.81788E+04  4.70905E+04
 -1.62868E+04  3.52275E+04 -2.66995E+04  2.97794E+03 -1.11128E+04 -2.84307E+04  2.15775E+04 -3.88957E+04
  4.64070E+04 -1.14247E+04  4.12441E+04  2.38761E+04  2.20464E+04  5.13524E+04 -7.58772E+03  5.78259E+04
 -3.60421E+04  3.95993E+04 -4.83662E+04  1.18242E+04 -4.93992E+04 -1.74861E+04 -2.69886E+04 -4.36217E+04
  7.27677E+03 -4.50465E+04  3.56800E+04 -1.76749E+04  3.14896E+04  1.05782E+04  6.23824E+03  2.31360E+04
 -1.53124E+04  9.47507E+03 -1.09065E+04 -7.99040E+03  4.45615E+03 -1.05510E+04  1.95857E+04  4.99751E+03
  1.53986E+04  2.22280E+04 -4.46424E+03  2.77737E+04 -2.33677E+04  1.55619E+04 -3.14552E+04 -2.31897E+03
 -2.53074E+04 -1.85139E+04 -1.09809E+04 -2.56862E+04  5.37835E+03 -2.53284E+04  1.94668E+04 -2.45706E+04
  3.40395E+04 -1.58793E+04  3.84126E+04  6.77714E+03  2.75108E+04  2.53865E+04  4.81761E+03  4.16291E+04
 -2.16231E+04  3.34689E+04 -3.22797E+04  1.24318E+04 -2.34721E+04 -9.82787E+03 -5.12467E+03 -1.24602E+04
  2.89209E+03  1.22751E+03 -7.51981E+03  9.17861E+03 -2.17722E+04  4.92709E+03 -2.08012E+04 -9.00493E+03
 -1.11512E+04 -2.33832E+04  6.29283E+03 -2.94913E+04  1.99206E+04 -2.01624E+04  2.33424E+04 -1.81889E+03
  1.45743E+04  1.62915E+04 -1.43893E+03  2.40046E+04 -1.73778E+04  1.51550E+04 -2.49222E+04 -6.44889E+03
 -1.80907E+04 -2.06438E+04 -2.27837E+03 -2.84841E+04  1.25159E+04 -2.46322E+04  2.42470E+04 -1.28826E+04
  2.24108E+04 -1.61114E+03  1.60507E+04  5.52791E+03  8.78129E+03  6.11101E+02  1.29388E+04 -3.39108E+03
  2.32295E+04  4.32132E+03  2.53427E+04  1.79497E+04  1.89857E+04  4.04552E+04 -3.18130E+03  4.72359E+04
 -2.68020E+04  3.88471E+04 -4.22349E+04  1.92664E+04 -4.78699E+04 -2.74652E+03 -3.67387E+04 -2.87723E+04
 -1.55070E+04 -3.73545E+04  1.45527E+04 -3.55000E+04  2.97789E+04 -1.59238E+04  2.52137E+04  8.18989E+03
  9.13511E+03  1.99827E+04 -1.27934E+04  1.78056E+04 -2.12552E+04  3.49526E+03 -1.40947E+04 -1.35103E+04
 -9.24127E+02 -2.01498E+04  1.01827E+04 -1.41720E+04  1.48739E+04  1.88679E+03  3.92988E+03  8.64290E+03
 -9.90041E+03  5.99935E+03 -8.69009E+03 -6.94766E+03 -1.62629E+03 -1.83830E+04  1.20288E+04 -1.97165E+04
  2.39819E+04 -1.25796E+04  2.72752E+04  4.25182E+03  2.32641E+04  1.98122E+04  9.91476E+03  3.18514E+04
 -4.61666E+03  3.13878E+04 -2.15724E+04  2.09916E+04 -2.35222E+04  6.19809E+03 -1.69652E+04 -5.61857E+03
 -8.47447E+03 -5.86204E+03 -1.80390E+03  5.95731E+02 -2.73616E+03  2.96606E+03 -8.07294E+03  6.37034E+03
 -1.41568E+04 -8.67694E+02 -1.59502E+04 -1.11776E+04 -5.82869E+03 -1.91107E+04  7.19619E+03 -1.73514E+04
  1.29230E+04 -5.73977E+03  1.02288E+04  5.61767E+03 -7.97652E+01  6.38877E+03 -9.32480E+03  8.01808E+01
 -5.57989E+03 -9.23034E+03 -1.75884E+03 -1.69565E+04  9.26593E+03 -1.76329E+04  2.14612E+04 -8.50354E+03
  2.79357E+04  2.43026E+03  1.92152E+04  1.62458E+04  2.37164E+03  2.12435E+04 -1.06597E+04  1.62971E+04
 -1.15395E+04  3.00680E+03 -6.90603E+03 -4.90108E+03  1.20683E+03 -5.70823E+03  8.38248E+03 -9.13613E+02
  7.94610E+03  6.53488E+03  2.42848E+02  1.29638E+04 -1.00762E+04  1.25539E+04 -1.67762E+04  2.85329E+03
 -1.06210E+04 -9.14719E+03  4.42319E+02 -1.53317E+04  9.24496E+03 -6.82704E+03  1.11887E+04  4.37512E+03
  2.95924E+03  1.13891E+04 -9.56301E+03  1.27839E+04 -1.72788E+04  5.67227E+03 -1.61613E+04 -6.35378E+03
 -7.33010E+03 -1.62205E+04  4.75219E+03 -1.96764E+04  1.66992E+04 -1.27279E+04  1.96095E+04  3.70142E+03
  1.05280E+04  1.35558E+04 -1.53546E+03  1.60689E+04 -1.21847E+04  1.02024E+04 -1.34584E+04 -5.30149E+02
 -1.11283E+04 -9.45740E+03 -2.99164E+03 -1.21685E+04  7.93545E+03 -9.96781E+03  6.81398E+03 -3.28936E+03
  5.24899E+03  7.23940E+02 -2.03036E+02  2.88359E+03 -7.76940E+02 -3.64615E+03  3.11885E+03 -7.66266E+03
  1.22753E+04 -5.89119E+03  1.60477E+04  1.69407E+03  1.73176E+04  1.26379E+04  9.91232E+03  2.25058E+04
 -6.00879E+03  2.73227E+04 -2.03964E+04  1.91643E+04 -2.70048E+04  2.58429E+03 -2.34969E+04 -9.75188E+03
 -1.20397E+04 -1.77970E+04  6.00993E+02 -1.62098E+04  4.05619E+03 -8.20801E+03  5.17888E+03 -7.27763E+03
  4.93563E+03 -4.55946E+03  3.39183E+03 -2.91201E+03  5.07705E+03 -3.64384E+03  8.70573E+03 -1.30701E+03
  1.18613E+04  4.06085E+03  5.46421E+03  1.09491E+04 -2.12704E+03  1.18261E+04 -1.38905E+04  8.45262E+03
 -1.68180E+04 -1.62054E+03 -1.16426E+04 -1.06563E+04 -3.07503E+03 -1.69102E+04  9.78909E+03 -1.93091E+04
  1.74863E+04 -1.09806E+04  2.17986E+04  1.30347E+03  1.45875E+04  1.40741E+04  2.22282E+03  2.01114E+04
 -7.14579E+03  1.48519E+04 -1.09181E+04  6.79297E+03 -7.28199E+03 -2.27452E+03 -3.42952E+03 -2.65769E+03
 -2.38212E+03 -3.12081E+02 -2.33459E+03  6.19662E+03 -6.88855E+03  1.92152E+03 -1.16144E+04 -1.65748E+03
 -8.42514E+03 -1.01658E+04  5.64627E+02 -1.43954E+04  9.64398E+03 -1.41807E+04  1.65389E+04 -4.80242E+03
  1.63617E+04  6.06193E+03  8.34884E+03  1.35927E+04 -2.93091E+03  1.76097E+04 -1.24230E+04  1.06189E+04
 -1.69956E+04  1.00850E+03 -1.31640E+04 -1.13031E+04 -2.79342E+02 -1.42673E+04  8.43046E+03 -1.04313E+04
  1.05715E+04 -3.08630E+03  8.28108E+03  3.71195E+03  2.52935E+03  4.27030E+03  1.48731E+03  1.32764E+03
  2.49390E+03  1.07717E+03  4.09623E+03  1.44303E+03  5.17910E+03  5.12115E+03  5.74688E+03  9.25488E+03
 -4.68925E+03  1.32449E+04 -1.21184E+04  1.11386E+04 -1.67059E+04  4.16795E+03 -1.76810E+04 -6.64470E+03
 -7.89784E+03 -1.67938E+04  1.30030E+03 -1.75986E+04  1.05883E+04 -9.52222E+03  1.40578E+04 -3.46133E+03
  9.54435E+03  6.00460E+03  3.07197E+03  9.73754E+03 -5.29370E+03  5.98079E+03 -7.01721E+03 -2.05376E+02
 -3.42247E+03 -7.48717E+03  3.83677E+03 -7.15220E+03  7.88960E+03 -2.85140E+03  6.01078E+03 -4.35533E+02
  4.17180E+03  4.21028E+03  3.26735E+01  3.81648E+03 -1.92993E+02  2.00910E+03  5.61747E+02 -1.08955E+03
  2.31813E+03 -3.10386E+03  6.49157E+03  2.70004E+03  4.30292E+03  9.58443E+03 -4.10696E+02  1.22447E+04
 -8.50545E+03  7.12276E+03 -1.00396E+04  1.21544E+03 -9.36931E+03 -3.55490E+03 -2.56062E+03 -7.17275E+03
  1.10809E+03 -8.89330E+03  5.37791E+03 -3.22081E+03  4.97962E+03  4.40196E+03 -3.30837E+03  3.68558E+03
 -6.85624E+03  4.42287E+03 -7.28230E+03 -4.40552E+03 -5.21851E+03 -8.00578E+03  1.18625E+01 -9.00009E+03
  5.27553E+03 -4.86099E+03  6.40881E+03 -1.05501E+02  5.43087E+03  3.65192E+03  1.73115E+03  3.55331E+03
 -2.50149E+03  5.91548E+02 -4.81823E+03 -3.63282E+03  4.48685E+02 -7.19662E+03  1.00861E+04 -5.09235E+03
  9.57112E+03  2.53669E+03  9.56094E+03  7.57333E+03  3.53650E+03  1.18048E+04 -3.34441E+03  1.08052E+04
 -8.06557E+03  2.62547E+03 -8.03279E+03 -2.96069E+02 -6.07528E+03 -7.42856E+03  3.34321E+01 -7.24687E+03
  6.67724E+03 -3.98411E+03  7.58133E+03  2.67339E+03  1.88505E+03  5.74187E+03 -8.16010E+02  5.13289E+03
 -2.97939E+03  2.44600E+03 -1.70323E+03  2.86280E+03  3.10316E+02  1.98762E+03 -2.38138E+03  2.36303E+03
 -2.74765E+03  4.01204E+03 -5.51517E+03  4.34515E+03 -1.16775E+04  1.16112E+03 -1.26735E+04 -7.46605E+03
 -6.62615E+03 -1.47436E+04  1.86415E+03 -1.65806E+04  1.10910E+04 -1.18614E+04  1.57762E+04 -4.46364E+03
  1.57542E+04  3.15746E+03  9.01796E+03  9.58473E+03  8.67697E+02  1.31098E+04 -3.74822E+03  8.31716E+03
 -6.13663E+03  2.82365E+03 -2.17409E+03 -8.04038E+02 -9.88682E+02 -1.39922E+03 -1.79658E+03  9.67856E+01
 -1.91299E+03  8.59714E+02 -8.77520E+02  2.77032E+02  2.94937E+01 -2.74613E+03  1.32951E+03 -3.02762E+03
  4.14399E+03 -4.13254E+03  7.53391E+03 -2.91131E+02  7.95716E+03  7.38052E+03  2.94031E+03  1.02902E+04
 -4.44822E+03  1.43405E+04 -1.13302E+04  7.55598E+03 -1.27603E+04 -4.87007E+02 -9.53089E+03 -7.24018E+03
 -3.23419E+03 -1.25438E+04  2.96442E+03 -1.02346E+04  6.93372E+03 -6.80636E+03  7.87291E+03  2.91228E+02
  6.36588E+03  3.16761E+03 -1.91388E+03  3.34117E+03 -3.28194E+03 -7.65980E+02 -2.14813E+02 -2.91444E+03
  2.15865E+03 -2.21373E+03  3.60617E+03 -3.18455E+02  1.83022E+03  3.70432E+03 -3.01381E+02  4.87908E+03
 -5.26082E+03  5.23128E+03 -8.15655E+03 -5.08461E+02 -6.78202E+03 -4.96819E+03 -1.75190E+02 -9.26893E+03
  3.97115E+03 -7.74924E+03  8.82986E+03 -3.99895E+03  6.89736E+03  3.32587E+03  5.27533E+03  7.78638E+03
  3.92011E+02  6.24843E+03 -2.16556E+03  5.08394E+03 -2.35298E+03  3.72653E+03 -4.02108E+03  6.70796E+01
 -1.17322E+03 -5.43674E+02 -2.68466E+03  1.20252E+03 -3.26777E+03  9.21871E+02 -6.39599E+03 -3.37226E+02
 -7.05541E+03 -5.10081E+03 -1.21039E+03 -6.61151E+03  3.94972E+03 -7.65694E+03  7.81451E+03 -3.12875E+03
  7.64155E+03  1.24192E+03  5.93901E+03  3.53895E+03  1.31383E+03  8.89613E+03 -5.10155E+03  6.57166E+03
