 $NMID ID='MM_0lb_SNR200_17hz_g40_41.RAW', FMTDAT='(8E13.5)'
 TRAMP=1., VOLUME=1. $END
  3.09927E+05  1.21524E+03  3.38129E+05  2.50152E+05  8.44889E+04  3.37439E+05 -1.31445E+05  2.50804E+05
 -1.90676E+05  8.27003E+04 -1.10876E+05 -3.36919E+04  1.82148E+03 -4.98664E+04  5.42320E+04  1.55575E+02
  3.53319E+04  5.28969E+04 -1.60003E+04  7.44646E+04 -5.99263E+04  6.27079E+04 -8.31386E+04  3.20658E+04
 -7.84962E+04 -1.08335E+04 -5.58647E+04 -4.89547E+04 -1.49818E+04 -6.94644E+04  2.74624E+04 -4.46372E+04
  3.79835E+04  4.40982E+03  1.53495E+04  4.67067E+04 -3.46005E+04  4.62241E+04 -6.46799E+04 -3.37798E+02
 -5.24731E+04 -5.56645E+04 -5.45862E+03 -7.55167E+04  3.46775E+04 -5.34136E+04  4.65460E+04 -1.59160E+04
  4.20211E+04  1.07756E+04  3.12774E+04  2.40697E+04  1.44331E+04  2.66234E+04 -4.11787E+03  2.64810E+04
 -2.08171E+04  1.40395E+04 -1.97767E+04 -4.80996E+03  4.34753E+03 -8.23989E+03  2.15127E+04  1.11631E+04
  7.76772E+03  3.34275E+04 -2.99226E+04  3.33589E+04 -6.09591E+04  3.96349E+03 -5.47493E+04 -4.21854E+04
 -1.20487E+04 -6.09416E+04  3.74296E+04 -4.27373E+04  5.50489E+04 -1.63859E+03  3.13572E+04  3.11399E+04
 -5.87823E+03  3.35268E+04 -2.85192E+04  1.34374E+04 -2.75799E+04 -6.40267E+03 -1.45417E+04 -1.01972E+04
 -6.64005E+03 -1.12957E+04 -1.34212E+03 -1.75652E+04  6.69728E+03 -2.22835E+04  1.43730E+04 -1.37136E+04
  1.21105E+04  4.49475E+03 -5.66138E+03  1.19103E+04 -1.97578E+04 -3.49705E+03 -7.06266E+03 -3.10481E+04
  2.12173E+04 -4.08514E+04  4.53423E+04 -1.84760E+04  4.21339E+04  1.79887E+04  1.36601E+04  4.16182E+04
 -1.58475E+04  3.05969E+04 -2.42166E+04  2.18021E+03 -7.04893E+03 -2.73573E+04  1.95549E+04 -3.19426E+04
  3.85816E+04 -6.86883E+03  3.21758E+04  2.28378E+04  1.57751E+04  4.24251E+04 -6.99673E+03  4.54565E+04
 -2.85287E+04  2.96823E+04 -3.76555E+04  8.53445E+03 -3.89945E+04 -1.49930E+04 -2.21780E+04 -3.48909E+04
  7.35433E+03 -3.44032E+04  2.94890E+04 -1.30480E+04  2.74261E+04  1.08005E+04  2.67594E+03  1.82421E+04
 -1.23790E+04  8.28907E+03 -1.04752E+04 -8.22779E+03  5.56512E+03 -9.93119E+03  1.69564E+04  5.81641E+03
  1.33522E+04  2.16129E+04 -6.24269E+03  2.36873E+04 -2.20374E+04  9.05962E+03 -2.39845E+04 -5.34808E+03
 -1.73666E+04 -1.63113E+04 -6.27038E+03 -1.74454E+04  4.26252E+03 -1.48549E+04  1.23552E+04 -1.53499E+04
  2.12204E+04 -1.25327E+04  2.93165E+04  4.55708E+02  2.17847E+04  1.64843E+04  3.42692E+03  3.19686E+04
 -1.71191E+04  2.76736E+04 -2.65860E+04  8.72941E+03 -1.88400E+04 -8.99916E+03 -4.17832E+03 -1.51026E+04
  4.15749E+03 -4.60951E+03 -3.67954E+03  4.42085E+03 -1.19386E+04  4.87037E+03 -1.32545E+04 -5.25630E+03
 -8.93010E+03 -1.61049E+04  4.21722E+03 -1.99716E+04  1.27727E+04 -1.36548E+04  1.47807E+04 -1.76346E+03
  8.84024E+03  1.20042E+04 -5.57669E+02  1.56745E+04 -9.91679E+03  8.08722E+03 -1.68276E+04 -3.99465E+03
 -1.12281E+04 -1.44189E+04 -1.99620E+03 -1.93018E+04  8.93118E+03 -1.64585E+04  1.73577E+04 -7.13016E+03
  1.43908E+04  1.14083E+03  1.05467E+04  4.64589E+03  4.53679E+03  9.67610E+02  7.24360E+03 -2.47913E+03
  1.40982E+04  2.99825E+03  1.51100E+04  1.24123E+04  9.55815E+03  2.63427E+04 -2.82519E+03  2.67825E+04
 -1.71763E+04  1.98528E+04 -2.57289E+04  9.56978E+03 -2.75586E+04 -2.03731E+03 -2.12546E+04 -1.56522E+04
 -1.02062E+04 -2.09000E+04  7.49774E+03 -2.00821E+04  1.73324E+04 -1.01876E+04  1.62382E+04  4.36452E+03
  6.72953E+03  1.11558E+04 -7.54216E+03  1.01431E+04 -1.42073E+04  2.38425E+03 -1.06008E+04 -8.56822E+03
  3.53039E+02 -1.21410E+04  6.86365E+03 -9.58064E+03  7.17512E+03 -1.36185E+03  1.44106E+03  4.87929E+03
 -5.46151E+03  1.83018E+03 -3.08427E+03 -4.28321E+03  1.17420E+03 -1.07560E+04  7.92817E+03 -1.05038E+04
  1.32449E+04 -5.61165E+03  1.29546E+04  2.37178E+03  1.14834E+04  1.00293E+04  5.51428E+03  1.48838E+04
 -1.71816E+03  1.74298E+04 -1.10217E+04  1.08196E+04 -1.15452E+04  3.19381E+03 -9.91111E+03 -2.14602E+03
 -5.11274E+03 -3.86960E+03 -1.36739E+02  1.40690E+03 -3.10199E+03  2.23599E+03 -3.13868E+03  2.90547E+03
 -8.33067E+03 -7.57572E+02 -8.99754E+03 -7.27499E+03 -2.31052E+03 -1.26899E+04  3.84863E+03 -8.99145E+03
  6.36031E+03 -3.84553E+03  4.81912E+03  2.77169E+03  4.16043E+02  2.74292E+03 -4.87388E+03  1.23737E+03
 -3.92167E+03 -4.87863E+03 -8.16687E+02 -8.05062E+03  5.07603E+03 -7.87401E+03  1.19497E+04 -5.27771E+03
  1.27822E+04  2.49115E+02  9.71698E+03  7.34434E+03  2.70472E+03  8.54171E+03 -4.80267E+03  9.57485E+03
 -6.93010E+03  2.77746E+03 -4.48236E+03 -1.17744E+03  1.68026E+03 -1.14009E+03  5.90270E+03 -1.22112E+03
  5.04264E+03  3.42815E+03  3.34448E+02  6.77675E+03 -5.30442E+03  7.06494E+03 -8.62344E+03  1.63277E+03
 -3.66574E+03 -4.27241E+03 -2.77954E+02 -6.62723E+03  4.33095E+03 -3.37119E+03  3.63420E+03  1.38485E+03
  3.93358E+02  4.27498E+03 -3.90055E+03  4.81510E+03 -5.83375E+03  3.74897E+03 -4.80589E+03 -8.31709E+02
 -2.64058E+03 -6.40057E+03  6.02413E+02 -7.25534E+03  6.91661E+03 -4.99271E+03  7.03336E+03  1.08666E+03
  4.72948E+03  6.18289E+03 -4.05805E+02  6.54735E+03 -5.22444E+03  4.97576E+03 -4.60430E+03 -5.41943E+02
 -5.59190E+03 -5.39636E+03 -1.48574E+03 -5.88766E+03  2.61469E+03 -5.32959E+03  3.77214E+03 -2.29214E+03
  2.52329E+03  1.64022E+03 -2.14862E+02  1.67691E+03  5.48133E+02 -1.22339E+02  3.02707E+02 -2.41237E+03
  3.79121E+03 -8.78673E+02  6.21341E+03  6.14553E+02  6.32660E+03  3.64406E+03  5.95693E+03  7.75058E+03
 -8.65236E+02  8.72459E+03 -7.92093E+03  7.22766E+03 -1.10247E+04  1.15883E+03 -9.24277E+03 -4.25285E+03
 -6.55944E+03 -7.07800E+03  6.06356E+02 -5.93043E+03  2.90529E+03 -2.67854E+03  3.63231E+03 -3.55985E+03
  1.26039E+03 -1.75724E+03  9.09169E+02 -2.32951E+03  2.88976E+03 -9.88295E+02  4.60815E+03  1.33611E+03
  5.63794E+03  1.97753E+03  4.16058E+02  3.49303E+03 -3.04690E+03  3.18838E+03 -4.29398E+03  3.45685E+03
 -4.71638E+03 -3.34139E+02 -1.51535E+03 -4.23124E+03 -5.05419E+02 -5.25802E+03  3.59359E+03 -6.25124E+03
  5.96068E+03 -3.39690E+03  8.66038E+03  5.91681E+02  6.42202E+03  5.68542E+03  2.30497E+03  7.26364E+03
 -3.06315E+03  6.95526E+03 -3.60717E+03  1.59439E+03 -1.25133E+03 -4.60135E+02 -3.57313E+01  5.90439E+02
  4.90980E+01 -8.80897E+02 -1.86707E+03  1.62171E+03 -3.09967E+03  9.84052E+02 -4.93095E+03 -1.12241E+03
 -1.87646E+03 -5.09395E+03 -9.90368E+01 -5.86381E+03  3.50162E+03 -4.54530E+03  3.93084E+03 -1.23875E+03
  4.19333E+03  4.19010E+03  2.64464E+03  3.10302E+03 -1.23362E+03  5.89232E+03 -3.16473E+03  3.79762E+03
 -4.50429E+03  1.08246E+03 -4.15364E+03 -2.42016E+03 -1.01972E+02 -3.39471E+03  2.45598E+03 -3.19242E+03
  3.62215E+03 -8.36108E+02  1.61444E+03  1.60153E+03  9.41176E+02  8.69559E+02  1.00010E+03 -9.98347E+02
  1.19010E+03  3.45987E+02  1.95911E+03  1.38485E+03  2.15958E+03  3.07903E+03  2.47497E+03  1.87799E+03
 -1.49402E+03  3.94868E+03 -3.25725E+03  4.68255E+03 -3.01082E+03  1.33878E+03 -4.43862E+03 -1.76307E+02
 -1.91796E+03 -3.85526E+03  8.16063E+02 -4.85791E+03  3.46094E+03 -2.29523E+03  3.07257E+03 -1.27593E+03
  3.26853E+03  2.00610E+03  7.80750E+02  3.38853E+03 -1.30152E+02  1.11881E+03 -1.43732E+03  1.30068E+02
  1.48612E+02 -1.98069E+03  7.64895E+02 -1.47797E+03  1.84973E+03 -3.70372E+02  2.14524E+03  2.27468E+02
  4.37247E+02  6.07591E+00  2.28336E+02 -1.99903E+02  4.07089E+02  1.81746E+03  1.12952E+03 -3.47151E+02
  2.87201E+02 -4.40411E+02  2.27536E+03  1.31998E+02 -3.93665E+02  1.79059E+03 -2.76139E+02  3.61969E+03
 -1.39849E+03  1.90686E+03 -1.71602E+03  2.84157E+02 -2.43628E+03  1.66490E+02 -3.95786E+02 -1.18987E+03
  3.84796E+02 -1.26446E+03  1.54314E+03 -1.56056E+03  1.92700E+03  1.13669E+03 -1.24713E+03  9.61686E+02
 -2.02941E+03 -5.91465E+01 -6.29199E+02 -1.23213E+03 -6.22965E+02 -3.43759E+03  6.58042E+02 -2.23968E+03
  1.01701E+03  2.20715E+02  1.13009E+03 -8.84798E+02  8.46525E+02  8.33205E+01  3.98013E+02  1.30989E+03
 -2.73130E+02  1.12785E+03 -8.42984E+02  5.06125E+01  7.11827E+02 -7.70732E+02  2.02202E+03 -1.21171E+03
  2.68013E+03 -5.53714E+02  2.57330E+03  9.15425E+02  1.39774E+03  2.46082E+03  8.38169E+02  2.76741E+03
 -1.54322E+03  3.36885E+02 -2.97383E+03 -7.43430E+02 -1.31115E+03 -2.61241E+03  5.93386E+02 -1.07550E+03
  2.67561E+03 -1.83486E+03 -1.09477E+03  2.03787E+02 -1.08467E+03  7.69101E+02  1.29826E+03  2.13913E+03
 -2.62586E+02  3.26731E+01 -7.44727E+02  1.69192E+02 -1.42286E+02 -4.31650E+02 -1.96145E+03  6.17219E+02
 -1.41245E+03  1.00925E+03 -2.48923E+03  4.90387E+02 -7.91376E+02 -1.34940E+02 -2.92613E+03 -1.23678E+03
 -1.16919E+03 -2.96885E+03  1.34387E+01 -3.47912E+03  1.84978E+03 -2.51447E+03  3.85602E+03 -4.80531E+02
  4.55523E+03  8.35677E+02  1.58140E+03  3.57691E+03 -1.68046E+02  2.56704E+03 -2.06273E+03  1.61001E+03
 -7.39604E+02  8.46836E+02 -2.69856E+02 -6.15584E+02 -1.00339E+03 -2.54376E+02  1.09305E+02  3.61684E+02
 -2.51137E+02 -8.36031E+02 -8.01355E+02  1.00969E+03  1.13983E+02 -2.95474E+02  5.04744E+02 -1.28023E+03
  2.34762E+03 -1.25988E+03  1.03046E+03 -1.04025E+03  2.15460E+03  1.85329E+03  3.79078E+02  2.37300E+03
 -6.83796E+02  3.51256E+03 -1.68022E+03  1.90230E+03 -1.60142E+03 -6.47667E+02 -2.81810E+03 -1.67328E+03
 -1.90846E+03 -3.05902E+03  2.84457E+02 -1.18428E+03  1.61895E+03 -1.11491E+03  1.51765E+03  8.44925E+02
  5.00280E+02  4.71705E+02  2.79380E+02  4.38739E+02 -1.74379E+03 -4.13003E+02 -4.49870E+02 -1.15856E+02
  7.35791E+02 -5.64943E+02  3.14617E+02  6.75575E+02 -5.63820E+01  7.15592E+02  3.52361E+02  6.41966E+02
 -1.32563E+03  7.20082E+02 -1.24374E+03  8.99467E+02 -1.75485E+03  4.33419E+01 -5.63867E+02 -1.74947E+03
  1.25619E+03 -1.80624E+03  8.55297E+02 -7.57176E+02  2.52244E+03 -4.41236E+02  1.20012E+03  1.29633E+03
 -1.01222E+02  5.99232E+02 -5.94492E+02  9.58847E+02 -6.00022E+02  7.37529E+02 -4.63990E+02  6.95281E+02
 -8.97647E+02  1.24959E+02 -1.19107E+03  1.83067E+02 -3.35506E+02 -5.70664E+02 -4.02045E+02 -1.11070E+03
 -9.38537E+02 -8.56281E+02  6.45563E+02 -1.40369E+03  3.57589E+02 -9.03305E+02  1.13047E+03 -1.15835E+03
  7.47179E+02  1.95619E+03  3.26498E+01  1.04602E+03  1.18316E+02  8.41140E+02 -3.03339E+02  8.78586E+02
