 $NMID ID='MM_0lb_SNR200_14hz_g60_49.RAW', FMTDAT='(8E13.5)'
 TRAMP=1., VOLUME=1. $END
  3.09566E+05  1.32565E+03  3.36626E+05  2.50547E+05  8.40334E+04  3.38869E+05 -1.33272E+05  2.51881E+05
 -1.90309E+05  8.34311E+04 -1.11156E+05 -3.29823E+04  1.86679E+03 -5.05910E+04  5.38887E+04 -5.05366E+01
  3.53505E+04  5.30396E+04 -1.66194E+04  7.57223E+04 -6.12380E+04  6.30524E+04 -8.41867E+04  3.30404E+04
 -8.21406E+04 -1.20886E+04 -5.67526E+04 -5.12301E+04 -1.47862E+04 -6.96902E+04  2.79600E+04 -4.60084E+04
  4.09571E+04  4.64258E+03  1.67383E+04  4.84203E+04 -3.52118E+04  4.76128E+04 -6.84402E+04 -3.53652E+02
 -5.26673E+04 -5.65810E+04 -7.66881E+03 -7.75982E+04  3.42806E+04 -5.59699E+04  4.84509E+04 -1.75676E+04
  4.33219E+04  1.03369E+04  3.13391E+04  2.52769E+04  1.61682E+04  2.97980E+04 -4.81222E+03  2.74275E+04
 -2.10911E+04  1.24089E+04 -1.88175E+04 -5.15292E+03  5.68852E+03 -7.00671E+03  2.32774E+04  1.35373E+04
  6.82511E+03  3.63191E+04 -3.31270E+04  3.51405E+04 -6.36492E+04  2.52347E+03 -5.80934E+04 -4.41036E+04
 -1.20571E+04 -6.47700E+04  4.11050E+04 -4.60024E+04  5.91396E+04 -2.13134E+03  3.55971E+04  3.19682E+04
 -6.03137E+03  3.86561E+04 -3.01491E+04  1.65015E+04 -3.21235E+04 -3.93371E+03 -1.77436E+04 -1.13307E+04
 -8.46633E+03 -1.43716E+04 -1.62789E+03 -1.84573E+04  7.93156E+03 -2.38538E+04  1.58502E+04 -1.41025E+04
  1.13583E+04  5.11408E+03 -7.69224E+03  1.22316E+04 -2.29994E+04 -4.99630E+03 -9.59936E+03 -3.42373E+04
  2.53083E+04 -4.58205E+04  5.01827E+04 -2.04952E+04  4.56646E+04  2.05464E+04  1.55573E+04  4.43271E+04
 -1.69178E+04  3.42687E+04 -2.60670E+04  3.23302E+03 -1.08878E+04 -2.78107E+04  2.09488E+04 -3.49555E+04
  4.24721E+04 -8.52713E+03  3.83219E+04  2.33913E+04  1.88894E+04  4.83534E+04 -8.03479E+03  5.25999E+04
 -3.19476E+04  3.46962E+04 -4.37241E+04  9.35110E+03 -4.55103E+04 -1.75981E+04 -2.44882E+04 -3.96458E+04
  8.74448E+03 -3.98179E+04  3.28397E+04 -1.49977E+04  3.06597E+04  1.09500E+04  4.58528E+03  1.91692E+04
 -1.30034E+04  8.26066E+03 -1.03478E+04 -7.41571E+03  6.81071E+03 -1.15746E+04  1.87776E+04  5.16876E+03
  1.41483E+04  2.22055E+04 -5.03078E+03  2.47507E+04 -2.11723E+04  1.25070E+04 -2.96155E+04 -4.28589E+03
 -2.15343E+04 -1.79291E+04 -8.68498E+03 -2.28812E+04  5.42283E+03 -2.14197E+04  1.73709E+04 -1.98192E+04
  2.81071E+04 -1.25237E+04  3.35838E+04  3.85203E+03  2.57947E+04  2.07976E+04  2.94022E+03  3.81332E+04
 -1.94827E+04  3.00486E+04 -2.85988E+04  1.02412E+04 -2.19667E+04 -9.11619E+03 -4.72679E+03 -1.33069E+04
  1.71165E+03 -3.43331E+03 -5.10852E+03  8.57170E+03 -1.73681E+04  5.34280E+03 -1.60206E+04 -8.24621E+03
 -1.10371E+04 -1.98181E+04  4.57314E+03 -2.34364E+04  1.67296E+04 -1.72302E+04  2.00753E+04 -2.08911E+03
  1.19923E+04  1.43502E+04 -7.41065E+02  2.08216E+04 -1.38257E+04  1.06845E+04 -2.14343E+04 -4.44104E+03
 -1.52303E+04 -1.79926E+04 -1.84978E+03 -2.38856E+04  1.14861E+04 -1.95105E+04  1.99981E+04 -1.04730E+04
  1.95639E+04  2.83418E+01  1.31670E+04  4.53930E+03  6.35147E+03  2.26171E+03  1.04413E+04 -3.15180E+03
  1.80358E+04  3.17323E+03  2.05335E+04  1.60465E+04  1.30618E+04  3.30826E+04 -3.22545E+03  3.81944E+04
 -2.12947E+04  3.05449E+04 -3.39013E+04  1.50791E+04 -3.57746E+04 -2.09476E+03 -2.93214E+04 -1.98731E+04
 -1.24173E+04 -2.99618E+04  1.04078E+04 -2.62584E+04  2.35227E+04 -1.30081E+04  2.14026E+04  6.90488E+03
  7.32986E+03  1.64400E+04 -1.07064E+04  1.25843E+04 -1.86855E+04  3.79465E+03 -1.25988E+04 -1.07222E+04
 -2.82147E+02 -1.51254E+04  9.66080E+03 -1.16157E+04  1.13933E+04 -2.49981E+03  2.89529E+03  7.11782E+03
 -7.55169E+03  2.53387E+03 -6.69989E+03 -4.71489E+03 -5.26641E+02 -1.49616E+04  8.79033E+03 -1.51301E+04
  1.79450E+04 -7.35779E+03  2.03049E+04  3.97825E+03  1.77391E+04  1.42315E+04  8.80040E+03  2.15960E+04
 -3.70968E+03  2.46337E+04 -1.63114E+04  1.57078E+04 -1.71175E+04  2.96317E+03 -1.24679E+04 -3.94557E+03
 -6.86195E+03 -5.31131E+03  4.78543E+02  1.95565E+03 -2.87814E+03  3.53053E+03 -6.47277E+03  3.56761E+03
 -1.15981E+04 -1.09787E+03 -1.17908E+04 -1.09719E+04 -4.99558E+03 -1.49925E+04  5.54314E+03 -1.21407E+04
  1.02943E+04 -5.19332E+03  6.88219E+03  2.31833E+03  1.26958E+03  4.34015E+03 -5.79200E+03  5.35423E+02
 -6.51330E+03 -7.15391E+03 -6.42789E+02 -1.14412E+04  5.72756E+03 -1.30673E+04  1.55063E+04 -7.09899E+03
  1.62948E+04  7.76935E+02  1.30479E+04  1.07967E+04  2.12089E+03  1.40269E+04 -7.77662E+03  1.17322E+04
 -1.03404E+04  3.24916E+03 -5.08160E+03 -3.38561E+03  2.07931E+03 -2.57954E+03  6.34048E+03  6.86800E+01
  5.59908E+03  5.77276E+03  1.71634E+03  9.21580E+03 -6.62278E+03  9.54006E+03 -1.26799E+04  3.35249E+03
 -7.14466E+03 -6.52327E+03  1.28666E+02 -1.03409E+04  7.22459E+03 -5.89876E+03  7.01474E+03  1.96987E+03
  1.78601E+03  6.19150E+03 -7.22961E+03  7.99961E+03 -8.62766E+03  2.25080E+03 -7.78858E+03 -2.44873E+03
 -5.91103E+03 -1.07596E+04  2.86429E+03 -1.21462E+04  1.21342E+04 -7.09285E+03  1.12833E+04  1.99976E+03
  7.62336E+03  9.43487E+03 -4.34492E+02  1.14847E+04 -8.49504E+03  5.90764E+03 -9.36678E+03 -1.33506E+03
 -8.32962E+03 -7.28225E+03 -1.85176E+03 -7.92460E+03  5.06657E+03 -7.17185E+03  5.02008E+03 -3.16167E+03
  2.66720E+03  1.17776E+03 -5.10814E+02  1.65359E+03  1.42916E+03 -1.98861E+03  8.01306E+02 -3.55740E+03
  7.44204E+03 -3.08347E+03  1.03031E+04  1.28391E+03  1.13669E+04  6.87759E+03  6.70763E+03  1.38622E+04
 -4.61738E+03  1.56117E+04 -1.38263E+04  1.14147E+04 -1.74455E+04  3.28050E+03 -1.45531E+04 -5.98569E+03
 -7.09284E+03 -1.27763E+04  1.96785E+02 -1.02174E+04  2.21685E+03 -4.00205E+03  3.84402E+03 -3.15896E+03
  3.27384E+03 -2.11675E+03  3.47958E+03 -3.35685E+03  4.14379E+03 -9.65411E+02  5.14513E+03 -1.85085E+03
  6.93307E+03  1.75753E+03  2.96010E+03  5.82375E+03 -2.51087E+03  6.57172E+03 -7.43021E+03  4.78010E+03
 -9.51649E+03 -1.08046E+03 -6.11336E+03 -6.57008E+03 -1.18944E+03 -9.23127E+03  5.44227E+03 -9.06129E+03
  9.09534E+03 -5.54700E+03  1.22294E+04  1.69000E+03  8.25820E+03  9.62834E+03  1.60019E+03  9.82328E+03
 -4.70071E+03  8.31675E+03 -5.84018E+03  3.16262E+03 -5.42506E+03 -1.35348E+03 -1.23817E+03 -1.34824E+03
 -9.47082E+02 -1.00072E+01 -1.31886E+03  2.54176E+03 -4.91801E+03  1.26808E+03 -5.45052E+03  7.25891E+02
 -3.24266E+03 -5.54296E+03  9.01601E+02 -7.61870E+03  6.12179E+03 -7.16422E+03  9.16543E+03 -1.35910E+03
  8.27758E+03  4.37295E+03  3.04479E+03  7.68923E+03 -1.07168E+03  8.03097E+03 -5.79598E+03  5.39514E+03
 -8.05078E+03  9.57739E+02 -7.32420E+03 -4.87249E+03 -8.03130E+02 -5.92643E+03  2.84742E+03 -5.41985E+03
  5.36764E+03 -2.91368E+03  4.17476E+03  1.36119E+03  2.72357E+03  3.44508E+03  8.28131E+02  1.64905E+03
  2.60217E+03  1.21179E+03  1.28823E+03  7.98344E+02  2.55663E+03  4.02518E+03  3.30653E+03  3.18275E+03
 -3.10535E+02  6.09186E+03 -4.87614E+03  7.72187E+03 -7.67099E+03  1.76273E+03 -8.81577E+03 -3.32989E+03
 -4.28798E+03 -8.26836E+03  2.50999E+03 -8.66692E+03  4.76996E+03 -5.40994E+03  6.95204E+03 -1.34551E+03
  5.39860E+03  3.35362E+03  1.63765E+03  5.65471E+03 -1.39865E+03  2.05742E+03 -2.40193E+03 -1.28833E+03
 -1.56590E+03 -3.27293E+03  1.79651E+03 -2.71107E+03  2.55997E+03 -2.18137E+03  3.16130E+03  1.34143E+03
  1.89752E+03  1.26736E+03  3.40944E+02 -3.52030E+02 -1.33369E+03  1.72992E+03  1.09330E+03  1.24069E+03
  1.75628E+03  9.31850E+02  3.24865E+03  2.61095E+03  7.50340E+02  4.65503E+03 -1.50175E+03  7.17603E+03
 -3.85734E+03  2.38127E+03 -4.03422E+03  1.50966E+03 -3.41433E+03 -1.84985E+03 -3.93279E+02 -4.07472E+03
  6.62767E+02 -1.94512E+03  4.18600E+03 -1.03749E+03  2.73199E+03  1.55924E+03 -1.70454E+03  3.27483E+03
 -2.88072E+03  1.93408E+03 -2.82234E+03 -2.87937E+03 -1.97187E+03 -4.24208E+03  6.79541E+02 -3.14022E+03
  2.46779E+03 -1.53961E+03  2.31614E+03 -1.02072E+03  2.92073E+03  9.20732E+02 -3.54977E+02  1.81936E+03
 -5.60078E+02 -5.52080E+02 -2.49274E+03 -2.17930E+03 -5.27598E+02 -3.57565E+03  2.82736E+03 -2.10946E+03
  4.33843E+03  4.89289E+02  5.42248E+03  2.19075E+03  1.56347E+03  4.93161E+03 -9.03825E+02  4.40477E+03
 -3.12465E+03  1.81104E+03 -3.41830E+03 -1.60565E+02 -3.27889E+03 -3.21370E+03  4.84081E+02 -3.12017E+03
  3.97841E+03 -1.37722E+03  2.58779E+03  1.94067E+03  2.65897E+03  2.71067E+03 -7.28529E+02  2.00178E+03
 -7.51912E+02  9.03025E+02  5.47883E+02 -1.51606E+03 -1.29779E+03  1.10831E+03  1.17790E+02  1.13915E+03
 -2.72151E+03  2.82260E+03 -2.80254E+03  1.67415E+03 -4.83588E+03  1.24720E+03 -5.46294E+03 -2.37689E+03
 -2.97399E+03 -3.76864E+03  1.05571E+03 -6.84311E+03  3.82121E+03 -5.44721E+03  4.83196E+03 -2.23349E+03
  5.77901E+03  2.28464E+03  3.67262E+03  4.42721E+03 -8.15214E+02  4.38281E+03 -2.82442E+03  4.11079E+03
 -3.01148E+03  1.00019E+03 -9.05404E+02  8.34801E+02 -1.91821E+03 -1.07917E+03 -3.42858E+02 -1.28249E+02
 -1.47355E+03  4.41242E+02 -7.28669E+02 -1.14032E+03  7.28988E+02  1.31997E+02 -8.65276E+01 -1.98335E+03
  2.28719E+03 -9.90962E+02  1.54151E+03 -6.60665E+02  2.77125E+03  2.34266E+03 -9.89514E+02  4.03526E+03
 -1.44251E+03  4.72203E+03 -5.05705E+03  2.34721E+03 -4.65879E+03 -4.64621E+02 -2.08379E+03 -2.47291E+03
 -1.19229E+03 -3.31096E+03  1.18496E+03 -3.38589E+03  2.07294E+03 -2.04599E+03  3.12999E+03  6.86045E+02
  1.79715E+03  2.67645E+03  8.38346E+02  2.00411E+03 -4.35878E+02 -8.70976E+01 -1.94482E+02 -8.40739E+02
  1.08965E+03 -6.70098E+02  6.83376E+02  1.11765E+03  1.47598E+02  1.60651E+03  1.46390E+03  2.59091E+03
 -1.48957E+03  1.99449E+03 -1.82921E+03 -6.49185E+02 -2.59012E+03 -1.84775E+03  4.85123E+02 -4.09631E+02
  1.22154E+03 -3.37850E+03  2.20411E+03 -7.81783E+02  2.48750E+03  2.92768E+02  4.63303E+02  1.35516E+03
  5.82664E+01  1.44301E+03 -1.62143E+03  2.00686E+03 -2.25598E+03  2.07610E+03 -1.93952E+03 -1.39042E+03
 -9.15763E+01 -7.58904E+02 -1.64930E+03  1.00180E+03 -1.20268E+03  5.44836E+02 -1.89129E+03  3.09809E+02
 -1.52557E+03 -9.52660E+02 -2.01362E+03 -3.04640E+03  1.17299E+03 -2.73244E+03  2.21889E+03 -9.13092E+02
  3.22033E+03  2.51962E+02 -5.56383E+01  1.50684E+03 -1.07568E+03  2.59981E+03 -8.09140E+01  2.24013E+03
