 $NMID ID='MM_0lb_SNR200_9hz_g60_96.RAW', FMTDAT='(8E13.5)'
 TRAMP=1., VOLUME=1. $END
  3.09971E+05 -2.47416E+02  3.36874E+05  2.49195E+05  8.40922E+04  3.39011E+05 -1.32177E+05  2.52522E+05
 -1.92355E+05  8.56654E+04 -1.12537E+05 -3.33360E+04 -1.12109E+03 -5.07834E+04  5.44338E+04 -6.58312E+02
  3.62800E+04  5.18448E+04 -1.70232E+04  7.69810E+04 -6.11024E+04  6.66652E+04 -8.66924E+04  3.14175E+04
 -8.19012E+04 -1.00760E+04 -5.66082E+04 -5.33133E+04 -1.50346E+04 -7.21056E+04  2.62188E+04 -4.62162E+04
  4.14187E+04  3.69657E+03  1.42364E+04  4.93310E+04 -3.38971E+04  4.72699E+04 -6.85118E+04 -1.16462E+03
 -5.53851E+04 -5.87899E+04 -7.31258E+03 -7.91335E+04  3.47502E+04 -5.72438E+04  4.91747E+04 -1.85417E+04
  4.53139E+04  1.11959E+04  3.46797E+04  2.61452E+04  1.56019E+04  3.12567E+04 -6.55849E+03  2.72539E+04
 -2.30866E+04  1.22177E+04 -1.76365E+04 -6.95378E+03  7.51383E+03 -6.28482E+03  2.34731E+04  1.59629E+04
  6.43166E+03  3.87595E+04 -3.43861E+04  3.74680E+04 -6.72789E+04  2.06895E+03 -5.99897E+04 -4.63829E+04
 -1.40900E+04 -6.58722E+04  4.08594E+04 -4.75113E+04  6.17324E+04 -4.28703E+03  3.69120E+04  3.48576E+04
 -5.11896E+03  3.90310E+04 -3.31087E+04  1.84629E+04 -3.47340E+04 -4.50181E+03 -2.00543E+04 -1.25632E+04
 -9.82357E+03 -1.65148E+04  1.37356E+03 -2.14743E+04  9.52383E+03 -2.28728E+04  1.65685E+04 -1.24022E+04
  1.21465E+04  4.97501E+03 -1.10983E+04  1.19741E+04 -2.56164E+04 -7.77887E+03 -9.38479E+03 -3.79150E+04
  2.57654E+04 -4.61327E+04  5.20379E+04 -2.09972E+04  4.97054E+04  2.10975E+04  1.78608E+04  4.82814E+04
 -1.73899E+04  3.60132E+04 -2.93364E+04  2.00962E+03 -1.30625E+04 -2.89464E+04  2.30081E+04 -3.89079E+04
  4.40092E+04 -1.19371E+04  4.20598E+04  2.63204E+04  2.17472E+04  5.31747E+04 -6.54179E+03  5.71101E+04
 -3.66350E+04  3.97224E+04 -4.86311E+04  1.00892E+04 -4.88098E+04 -2.00719E+04 -2.68557E+04 -4.28772E+04
  6.75477E+03 -4.37999E+04  3.39926E+04 -1.88799E+04  3.30659E+04  9.53976E+03  5.04277E+03  2.13314E+04
 -1.41812E+04  1.14928E+04 -1.13355E+04 -7.24950E+03  6.57308E+03 -1.24435E+04  1.86071E+04  6.47678E+03
  1.47951E+04  2.29548E+04 -8.78699E+03  2.78586E+04 -2.41920E+04  1.60514E+04 -3.16277E+04 -2.12051E+03
 -2.79027E+04 -1.96350E+04 -1.20804E+04 -2.55005E+04  4.71132E+03 -2.71063E+04  1.85947E+04 -2.36238E+04
  3.38980E+04 -1.48167E+04  3.79555E+04  5.14267E+03  2.81606E+04  2.44244E+04  5.34542E+03  4.19073E+04
 -1.93154E+04  3.38814E+04 -2.99730E+04  1.16806E+04 -2.21116E+04 -8.74025E+03 -4.08399E+03 -1.34377E+04
 -1.15626E+02 -1.00347E+03 -7.90646E+03  8.46915E+03 -2.14462E+04  3.66843E+03 -2.16702E+04 -9.65656E+03
 -1.09315E+04 -2.49112E+04  5.96205E+03 -2.79908E+04  1.88502E+04 -2.11417E+04  2.28572E+04 -1.83315E+03
  1.62686E+04  1.59177E+04 -1.13761E+03  2.56133E+04 -1.78353E+04  1.39001E+04 -2.52012E+04 -6.06855E+03
 -1.71781E+04 -2.18628E+04 -2.11885E+03 -2.89899E+04  1.29918E+04 -2.45536E+04  2.32105E+04 -1.29454E+04
  2.17468E+04 -7.40424E+02  1.76371E+04  5.73396E+03  7.39058E+03  9.38286E+02  1.18118E+04 -2.43132E+03
  2.33222E+04  2.59192E+03  2.81931E+04  2.00369E+04  1.82347E+04  3.95910E+04 -2.59507E+03  4.59470E+04
 -2.52427E+04  4.04199E+04 -4.33938E+04  2.07496E+04 -4.62272E+04 -4.79727E+03 -3.87170E+04 -2.73860E+04
 -1.62194E+04 -3.70963E+04  1.26290E+04 -3.49288E+04  2.73847E+04 -1.56361E+04  2.55832E+04  8.84333E+03
  7.39948E+03  2.04349E+04 -1.19080E+04  1.58226E+04 -2.04167E+04  2.83315E+03 -1.61194E+04 -1.44217E+04
  6.83868E+02 -1.94199E+04  1.14552E+04 -1.44374E+04  1.31896E+04 -1.18386E+02  3.99076E+03  8.32590E+03
 -8.84146E+03  4.12528E+03 -9.48081E+03 -7.19415E+03 -2.77295E+03 -1.86490E+04  1.16882E+04 -2.17068E+04
  2.58702E+04 -1.17527E+04  2.82550E+04  3.01276E+03  2.44083E+04  2.10420E+04  1.07703E+04  3.02390E+04
 -6.11307E+03  3.34941E+04 -2.08985E+04  1.96583E+04 -2.53148E+04  5.83458E+03 -1.58556E+04 -5.65498E+03
 -5.24420E+03 -8.84336E+03 -2.58043E+03  1.16658E+03 -3.31354E+03  5.87514E+03 -6.93222E+03  5.19411E+03
 -1.43389E+04 -2.52050E+03 -1.58700E+04 -1.32848E+04 -7.93549E+03 -2.17474E+04  7.98625E+03 -1.49470E+04
  1.39025E+04 -8.19497E+03  8.61326E+03  5.37782E+03  1.38453E+02  5.00930E+03 -7.83859E+03  1.29675E+03
 -8.83866E+03 -1.28271E+04 -6.68153E+02 -1.51965E+04  1.00386E+04 -1.72689E+04  2.07139E+04 -8.97110E+03
  2.35545E+04  2.22155E+03  1.75578E+04  1.37599E+04  3.80680E+03  2.05933E+04 -8.75580E+03  1.66003E+04
 -1.44376E+04  5.96638E+03 -5.58410E+03 -4.70332E+03  2.25502E+03 -4.77935E+03  7.40016E+03 -7.63776E+02
  5.99260E+03  9.28786E+03  4.30542E+02  1.32921E+04 -1.02148E+04  1.26523E+04 -1.54450E+04  2.16501E+03
 -1.17475E+04 -9.17319E+03  9.95139E+02 -1.54874E+04  9.12485E+03 -8.83115E+03  9.98823E+03  2.48861E+03
  2.68286E+03  1.02789E+04 -7.83056E+03  1.31630E+04 -1.47967E+04  5.59092E+03 -1.60847E+04 -5.69746E+03
 -8.08176E+03 -1.64820E+04  5.23422E+03 -2.19721E+04  1.68724E+04 -1.11315E+04  1.83372E+04  1.29307E+03
  1.00870E+04  1.53826E+04 -1.69131E+03  1.81293E+04 -1.08830E+04  8.20480E+03 -1.49266E+04 -5.83123E+02
 -1.27570E+04 -1.11300E+04 -3.05227E+03 -1.39628E+04  7.05635E+03 -8.62344E+03  7.34799E+03 -3.82163E+03
  4.38710E+03  2.05752E+03 -2.55828E+03  2.88817E+03  1.33445E+02 -3.27744E+03  1.62825E+03 -7.52272E+03
  1.28386E+04 -5.56728E+03  1.65594E+04  1.58479E+03  1.57244E+04  1.20937E+04  1.11324E+04  2.27865E+04
 -5.22180E+03  2.47850E+04 -2.20871E+04  1.93449E+04 -2.73373E+04  2.86219E+03 -2.03997E+04 -9.33050E+03
 -1.12801E+04 -1.74359E+04 -1.75904E+03 -1.53359E+04  4.89544E+03 -1.05282E+04  5.24513E+03 -6.27898E+03
  2.17008E+03 -3.03046E+03  3.35034E+03 -4.42513E+03  7.93941E+03 -2.77945E+03  9.09830E+03 -1.13171E+03
  1.22774E+04  1.30560E+03  9.02629E+03  8.29871E+03 -3.06560E+03  1.30644E+04 -1.32866E+04  9.20364E+03
 -1.61722E+04 -2.30835E+03 -8.78290E+03 -1.03136E+04 -1.92632E+03 -1.81034E+04  9.52751E+03 -1.71329E+04
  1.91373E+04 -9.21183E+03  2.08252E+04  2.69905E+03  1.28386E+04  1.39387E+04  2.06803E+03  2.00964E+04
 -7.99182E+03  1.52333E+04 -1.07748E+04  5.58091E+03 -7.67676E+03 -2.34167E+03 -3.27468E+03 -2.17152E+03
 -1.49896E+03 -7.48570E+02 -3.02095E+03  2.53087E+03 -5.73593E+03  2.33458E+03 -9.97854E+03 -3.99812E+02
 -7.58846E+03 -1.14453E+04 -1.63795E+03 -1.55064E+04  9.26912E+03 -1.52333E+04  1.64502E+04 -5.64411E+03
  1.68223E+04  7.52608E+03  7.01046E+03  1.30591E+04 -3.53000E+03  1.59878E+04 -1.13012E+04  9.88486E+03
 -1.46346E+04 -9.61570E+02 -1.11775E+04 -9.24366E+03 -6.45722E+02 -1.31786E+04  6.23833E+03 -1.11543E+04
  1.01239E+04 -4.69904E+03  8.62874E+03  2.82992E+03  2.56333E+03  5.50381E+03  8.05260E+02  1.06439E+03
  4.15731E+03  5.94973E+02  3.90294E+03  9.49326E+02  5.52435E+03  6.09095E+03  3.92246E+03  8.84871E+03
 -3.18717E+03  1.22887E+04 -1.23187E+04  1.16332E+04 -1.66778E+04  3.29481E+03 -1.78982E+04 -7.37480E+03
 -8.76077E+03 -1.64758E+04  9.19183E+02 -1.70057E+04  1.06451E+04 -1.07914E+04  1.16434E+04 -2.30497E+03
  9.17467E+03  5.65169E+03  2.21738E+03  1.06044E+04 -4.81308E+03  5.98637E+03 -6.40069E+03 -9.20005E+02
 -3.38907E+03 -5.80206E+03  3.56566E+03 -8.90793E+03  7.00466E+03 -2.87974E+03  5.37598E+03  2.42870E+03
  3.70569E+03  4.92571E+03  6.03123E+02  1.44897E+03 -7.25700E+02  1.43260E+03  1.20650E+03  6.30739E+02
  2.64053E+03  4.46953E+02  6.47970E+03  4.22042E+03  2.54342E+03  1.03445E+04 -9.20587E+02  1.15327E+04
 -5.97579E+03  8.04379E+03 -1.08158E+04  6.09607E+02 -9.69131E+03 -3.38021E+03 -4.59964E+03 -5.67681E+03
  9.07047E+02 -6.49764E+03  4.39718E+03 -2.24799E+03  3.42751E+03  2.31989E+03 -1.96097E+03  4.14187E+03
 -8.12479E+03  3.34873E+03 -6.47624E+03 -3.97609E+03 -4.48016E+03 -1.03367E+04  7.77510E+02 -8.68908E+03
  5.34356E+03 -5.77889E+03  7.53492E+03  4.14182E+02  4.90754E+03  2.09168E+03  1.65710E+03  7.78707E+03
 -4.57493E+03  2.93594E+03 -3.74420E+03 -4.30173E+03  1.15529E+03 -6.16412E+03  7.91713E+03 -5.36180E+03
  1.09598E+04 -6.75598E+02  1.05957E+04  5.50376E+03  2.99097E+03  9.86412E+03 -3.61618E+03  9.84581E+03
 -8.20426E+03  3.74097E+03 -9.38760E+03 -2.47303E+03 -3.92548E+03 -4.86705E+03  1.51208E+03 -5.05056E+03
  7.94367E+03 -2.99417E+03  6.23546E+03  2.65917E+03  1.75561E+03  7.13538E+03  3.85242E+02  5.59588E+03
 -3.44060E+03  3.35649E+03 -3.76530E+03  1.13183E+03 -8.22364E+02  1.50090E+03 -2.58850E+03  1.70617E+03
 -3.53000E+03  2.85066E+03 -7.25318E+03  4.13719E+03 -1.37621E+04 -3.58694E+02 -1.30005E+04 -6.13128E+03
 -7.08148E+03 -1.38490E+04  4.07736E+03 -1.62577E+04  1.05729E+04 -1.29089E+04  1.60451E+04 -5.17447E+03
  1.57110E+04  3.18503E+03  9.22505E+03  7.37595E+03  1.15659E+03  9.93263E+03 -6.47495E+03  8.02254E+03
 -5.95419E+03  2.77320E+03 -4.15038E+03 -2.12154E+03 -2.11691E+03 -1.24225E+03 -3.21121E+03  2.88958E+02
 -8.20515E+02 -8.26507E+02 -1.66350E+03 -2.76001E+02  2.11630E+02 -3.09457E+03 -1.49689E+03 -4.91950E+03
  4.91299E+03 -2.89584E+03  7.84816E+03  8.75973E+02  8.88871E+03  5.89492E+03  2.85888E+03  1.04462E+04
 -4.99412E+03  1.23484E+04 -1.20972E+04  9.24785E+03 -1.27202E+04 -4.97541E+02 -1.07149E+04 -7.77537E+03
 -3.58546E+03 -1.10247E+04  3.94399E+03 -1.00435E+04  9.58931E+03 -5.13535E+03  7.13381E+03  2.10340E+03
  5.09360E+03  3.43942E+03 -2.20030E+03  3.66098E+03 -2.38241E+03 -8.59329E+02 -2.94281E+03 -4.04299E+03
  3.47243E+03 -1.66194E+03  5.63823E+03  4.47089E+02  3.99492E+03  4.31014E+03  3.58447E+02  5.21464E+03
 -5.37846E+03  4.29966E+03 -6.67000E+03  3.22649E+03 -6.15217E+03 -5.20023E+03 -1.65132E+03 -8.68736E+03
  5.81125E+03 -7.78248E+03  9.03163E+03 -2.82696E+03  8.69281E+03  4.51247E+02  5.02883E+03  5.55206E+03
  3.02192E+01  7.28152E+03 -3.38343E+03  5.17606E+03 -3.24557E+03  2.71836E+03 -4.59956E+03 -1.55112E+03
 -1.80148E+03  1.15507E+03 -1.87663E+03  1.68439E+03 -2.44400E+03  2.07875E+02 -6.22891E+03 -1.33806E+03
 -5.22840E+03 -4.63647E+03 -1.93236E+03 -7.74654E+03  3.54690E+03 -8.68893E+03  5.34978E+03 -2.37989E+03
  7.22339E+03  5.09967E+02  4.92334E+03  5.42467E+03  8.82590E+01  8.09209E+03 -6.51081E+03  4.64072E+03
