 $NMID ID='MM_0lb_SNR200_8hz_g45_19.RAW', FMTDAT='(8E13.5)'
 TRAMP=1., VOLUME=1. $END
  3.08849E+05  1.95503E+03  3.38198E+05  2.50172E+05  8.43600E+04  3.38490E+05 -1.32386E+05  2.52343E+05
 -1.91437E+05  8.44970E+04 -1.13462E+05 -3.11247E+04 -2.30186E+02 -5.25109E+04  5.32480E+04 -1.63534E+03
  3.56960E+04  5.10838E+04 -1.53874E+04  7.68177E+04 -6.15054E+04  6.54164E+04 -8.56644E+04  3.22615E+04
 -8.11129E+04 -1.14018E+04 -5.68222E+04 -5.24413E+04 -1.68579E+04 -7.05652E+04  2.88840E+04 -4.63708E+04
  4.10716E+04  1.58003E+03  1.77080E+04  5.01021E+04 -3.52209E+04  4.67827E+04 -6.89859E+04  1.24999E+03
 -5.52322E+04 -5.89917E+04 -6.06052E+03 -8.04282E+04  3.57929E+04 -5.64825E+04  4.96845E+04 -1.93331E+04
  4.59059E+04  1.28033E+04  3.23061E+04  2.63862E+04  1.51464E+04  3.03298E+04 -6.72251E+03  2.95146E+04
 -2.42931E+04  1.42901E+04 -1.70456E+04 -6.72778E+03  8.83192E+03 -7.54240E+03  2.29764E+04  1.27366E+04
  7.62765E+03  3.82470E+04 -3.39984E+04  3.73263E+04 -6.44565E+04  2.14396E+03 -5.88783E+04 -4.59855E+04
 -1.07122E+04 -6.65585E+04  4.21839E+04 -4.72867E+04  5.96316E+04 -2.81086E+03  3.68252E+04  3.45196E+04
 -5.86897E+03  3.91899E+04 -3.22146E+04  1.99438E+04 -3.32389E+04 -3.07265E+03 -1.98791E+04 -1.19633E+04
 -9.49939E+03 -1.53191E+04  6.44706E+01 -1.96198E+04  8.30936E+03 -2.28909E+04  1.59001E+04 -1.24303E+04
  1.07953E+04  7.33430E+03 -1.20787E+04  1.31653E+04 -2.44285E+04 -7.18596E+03 -6.59318E+03 -3.68841E+04
  2.40930E+04 -4.87857E+04  5.06391E+04 -2.04983E+04  4.88941E+04  2.00968E+04  1.68415E+04  4.71834E+04
 -1.58638E+04  3.62015E+04 -2.74134E+04  4.91001E+03 -1.07857E+04 -2.98815E+04  2.24158E+04 -3.78914E+04
  4.48508E+04 -1.23264E+04  4.11440E+04  2.37077E+04  2.08502E+04  5.18288E+04 -8.30065E+03  5.68614E+04
 -3.68983E+04  3.84576E+04 -4.84322E+04  1.21472E+04 -4.75260E+04 -1.90955E+04 -2.95814E+04 -4.18025E+04
  7.37363E+03 -4.08803E+04  3.55875E+04 -1.75696E+04  3.36605E+04  1.18707E+04  5.01866E+03  2.05221E+04
 -1.48911E+04  1.00584E+04 -1.12298E+04 -8.22833E+03  4.98297E+03 -1.15218E+04  2.02087E+04  5.40552E+03
  1.55511E+04  2.35005E+04 -5.27646E+03  2.83306E+04 -2.25674E+04  1.39636E+04 -3.29076E+04 -3.01933E+03
 -2.42744E+04 -1.99462E+04 -1.28381E+04 -2.40940E+04  5.25643E+03 -2.64450E+04  2.15691E+04 -2.51305E+04
  3.29866E+04 -1.48672E+04  3.92321E+04  6.40493E+03  2.77239E+04  2.32907E+04  4.02213E+03  4.06693E+04
 -2.05794E+04  3.26565E+04 -2.71958E+04  1.17925E+04 -2.22472E+04 -1.16802E+04 -5.98466E+03 -1.27893E+04
  9.28499E+02 -1.33313E+03 -9.35765E+03  7.64252E+03 -1.99536E+04  4.52144E+03 -1.92389E+04 -9.39283E+03
 -1.09551E+04 -2.39230E+04  6.76712E+03 -2.86954E+04  1.87960E+04 -2.08327E+04  2.41541E+04 -2.38595E+03
  1.46871E+04  1.48552E+04 -1.44512E+03  2.40212E+04 -1.66679E+04  1.21259E+04 -2.39350E+04 -4.93968E+03
 -1.83474E+04 -2.03712E+04 -1.70617E+03 -2.79677E+04  1.42316E+04 -2.36426E+04  2.39159E+04 -1.28675E+04
  2.20025E+04 -9.00224E+02  1.66839E+04  5.59497E+03  8.48795E+03  2.49231E+03  1.30480E+04 -3.52423E+03
  2.22192E+04  3.28460E+03  2.54049E+04  1.80305E+04  1.72651E+04  3.85647E+04 -2.91386E+03  4.76981E+04
 -2.61104E+04  3.63529E+04 -4.29852E+04  2.05406E+04 -4.61639E+04 -2.17736E+03 -3.73663E+04 -2.65245E+04
 -1.30997E+04 -3.94425E+04  1.23632E+04 -3.38134E+04  2.92371E+04 -1.55399E+04  2.59007E+04  5.72867E+03
  7.40564E+03  2.02013E+04 -1.12526E+04  1.54686E+04 -2.15204E+04  1.56175E+03 -1.46788E+04 -1.17727E+04
  4.58627E+02 -1.92282E+04  1.01133E+04 -1.32753E+04  1.36634E+04 -1.78068E+03  3.29753E+03  8.67530E+03
 -9.46883E+03  4.74783E+03 -1.12320E+04 -6.12658E+03 -3.21367E+03 -1.80819E+04  1.25730E+04 -2.12720E+04
  2.62749E+04 -1.05906E+04  2.87486E+04  4.45541E+03  2.35431E+04  1.97081E+04  1.05488E+04  3.09658E+04
 -5.37605E+03  3.24470E+04 -2.11344E+04  2.12517E+04 -2.33410E+04  3.14307E+03 -1.61406E+04 -7.94117E+03
 -6.23602E+03 -9.02311E+03  4.92865E+02  6.29040E+02 -3.29986E+03  3.84647E+03 -8.64198E+03  6.55789E+03
 -1.46303E+04 -7.66813E+02 -1.61698E+04 -1.39468E+04 -5.84803E+03 -1.90743E+04  7.74144E+03 -1.72260E+04
  1.41756E+04 -7.11014E+03  9.87101E+03  2.27048E+03  6.59413E+02  6.81206E+03 -8.66845E+03 -1.57806E+03
 -7.85746E+03 -1.09560E+04 -6.51035E+02 -1.56840E+04  8.96488E+03 -1.74266E+04  2.32136E+04 -7.06019E+03
  2.42798E+04  4.03885E+03  1.75644E+04  1.66967E+04  2.61370E+03  1.94066E+04 -7.99059E+03  1.68267E+04
 -1.41595E+04  3.61691E+03 -6.52221E+03 -4.08308E+03  2.65337E+03 -3.67982E+03  7.95533E+03 -1.34471E+02
  8.79138E+03  7.12555E+03 -2.37191E+02  1.43556E+04 -9.00592E+03  1.49459E+04 -1.74060E+04  5.07191E+03
 -1.15671E+04 -8.19790E+03 -1.64222E+02 -1.48440E+04  1.01653E+04 -6.67617E+03  1.04809E+04  2.22656E+03
  3.32696E+03  9.46806E+03 -8.73944E+03  1.24807E+04 -1.56515E+04  5.15430E+03 -1.41418E+04 -5.33694E+03
 -7.21316E+03 -1.80563E+04  2.49887E+03 -1.85199E+04  1.73923E+04 -1.22377E+04  1.72491E+04  2.33902E+03
  1.01752E+04  1.28763E+04 -2.64739E+03  1.88335E+04 -1.21252E+04  1.01455E+04 -1.36271E+04 -1.13315E+03
 -1.09963E+04 -1.02576E+04 -1.86102E+03 -1.23743E+04  6.77532E+03 -8.58633E+03  9.74334E+03 -2.14561E+03
  5.15218E+03  1.94647E+03 -1.64467E+03  1.87530E+03 -2.29603E+03 -3.64816E+03  3.59990E+03 -8.34659E+03
  1.23741E+04 -5.69614E+03  1.74261E+04  4.19667E+03  1.75692E+04  1.14917E+04  1.05960E+04  2.05064E+04
 -4.11081E+03  2.64433E+04 -1.90655E+04  1.82067E+04 -2.65027E+04  5.41134E+03 -2.35511E+04 -9.54006E+03
 -1.01397E+04 -1.71133E+04 -1.44324E+03 -1.67584E+04  5.93997E+03 -8.82712E+03  5.89180E+03 -5.43925E+03
  6.02964E+03 -3.60987E+03  5.14464E+03 -3.14335E+03  5.80368E+03 -5.85305E+03  9.00330E+03 -1.34814E+03
  1.26726E+04  3.93217E+03  5.73872E+03  1.06563E+04 -3.01009E+03  1.14258E+04 -1.21856E+04  9.50347E+03
 -1.53317E+04 -2.23210E+03 -9.92685E+03 -1.08471E+04 -1.16588E+03 -1.76550E+04  9.71995E+03 -1.74700E+04
  1.86633E+04 -8.43599E+03  1.96624E+04  3.38210E+03  1.53505E+04  1.44453E+04  6.98998E+02  1.99238E+04
 -9.05808E+03  1.63817E+04 -1.20705E+04  6.83227E+03 -7.53064E+03 -1.88446E+03 -2.07783E+03 -2.76880E+03
 -8.72825E+02 -2.58262E+02 -2.30269E+03  3.25590E+03 -7.48851E+03  2.60169E+03 -1.02800E+04 -3.09262E+03
 -8.80358E+03 -1.18179E+04 -1.35567E+03 -1.54211E+04  8.71936E+03 -1.51879E+04  1.79736E+04 -5.66391E+03
  1.62433E+04  7.39631E+03  8.15653E+03  1.50119E+04 -4.21938E+03  1.51640E+04 -1.01466E+04  1.01641E+04
 -1.26477E+04 -1.04566E+02 -9.41148E+03 -1.21930E+04 -3.68228E+02 -1.28510E+04  7.70819E+03 -1.04019E+04
  1.15843E+04 -3.37495E+03  6.81602E+03  2.87007E+03  3.56724E+03  5.70197E+03  2.03106E+03  3.09641E+03
  3.64211E+03  2.47144E+03  4.09824E+03  2.37594E+03  3.42042E+03  5.43065E+03  2.02756E+03  9.46095E+03
 -4.07614E+03  1.40626E+04 -1.02264E+04  1.23646E+04 -1.58681E+04  2.96713E+03 -1.72361E+04 -7.82554E+03
 -8.62157E+03 -1.81483E+04  2.36563E+03 -1.69001E+04  8.43437E+03 -1.16293E+04  1.38108E+04 -5.12400E+03
  1.03545E+04  6.85901E+03  1.91718E+03  7.75164E+03 -5.72469E+03  7.77596E+03 -7.89357E+03 -1.97150E+03
 -1.93028E+03 -6.91883E+03  3.34711E+03 -5.80626E+03  6.63315E+03 -2.59408E+03  7.70184E+03  1.44543E+03
  3.17083E+03  5.36212E+03  9.36161E+02  3.65220E+03 -1.98858E+03  1.82081E+03  4.08383E+02 -8.09911E+02
  2.05565E+03 -9.00626E+02  7.96500E+03  1.91157E+03  3.22234E+03  9.49161E+03 -1.47378E+03  1.21429E+04
 -9.08238E+03  7.91750E+03 -1.22744E+04  2.69663E+03 -8.58845E+03 -5.00363E+03 -3.45709E+03 -7.55407E+03
  9.97393E+02 -7.04939E+03  3.99180E+03 -2.84779E+03  3.42910E+03  4.29568E+03 -1.13401E+03  5.00642E+03
 -7.86007E+03  4.90629E+03 -8.22508E+03 -2.95433E+03 -6.00113E+03 -8.23245E+03  3.08353E+03 -1.04074E+04
  5.20460E+03 -4.77744E+03  7.09374E+03 -5.32537E+02  5.82343E+03  1.73725E+03  8.71784E+02  4.88180E+03
 -1.86380E+03  1.24867E+03 -4.41132E+03 -3.12831E+03 -1.73108E+02 -7.17480E+03  7.07682E+03 -7.37793E+03
  8.95244E+03  5.04431E+01  7.98994E+03  1.00291E+04  3.51988E+03  1.26355E+04 -3.86212E+03  1.24093E+04
 -8.83852E+03  4.23552E+03 -1.07045E+04 -1.72008E+03 -5.52187E+03 -5.97686E+03  1.46879E+03 -8.49060E+03
  6.03348E+03 -2.15496E+03  6.87149E+03  2.88878E+03  1.68543E+03  6.29023E+03 -5.48875E+02  5.44131E+03
 -2.82209E+03  1.69759E+03 -2.64062E+03  1.59722E+03 -1.53749E+03  6.06440E+02 -2.02265E+02  2.12132E+03
 -3.67022E+03  4.30849E+03 -7.11202E+03  3.13227E+03 -1.13132E+04 -1.30390E+03 -1.41873E+04 -9.30903E+03
 -5.84419E+03 -1.50435E+04  3.64336E+03 -1.75497E+04  1.14642E+04 -1.35903E+04  1.68613E+04 -6.19500E+03
  1.57486E+04  3.02366E+03  1.06669E+04  1.13411E+04  2.28808E+03  1.14873E+04 -3.65875E+03  8.87737E+03
 -7.01173E+03  4.68493E+03 -3.86693E+03 -4.55919E+02 -4.98477E+02 -4.14643E+02  9.20235E+02 -7.74303E+02
 -1.87796E+03  2.19765E+03 -3.78141E+03 -1.51759E+03 -1.58191E+03 -3.61456E+03 -8.69578E+01 -5.04368E+03
  7.20467E+03 -4.04697E+03  8.03781E+03 -1.38346E+02  7.44258E+03  6.50360E+03  2.70062E+03  1.24421E+04
 -5.79369E+03  1.39013E+04 -1.17822E+04  8.09802E+03 -1.48663E+04 -2.80493E+02 -1.00886E+04 -8.08658E+03
 -5.68928E+03 -1.33018E+04  2.86472E+03 -1.21160E+04  7.92262E+03 -5.70784E+03  7.77153E+03 -5.17108E+02
  3.42801E+03  4.69962E+03 -8.51659E+02  2.25107E+03 -1.77417E+03 -9.63945E+02  1.49442E+03 -1.64051E+03
  5.38623E+03 -3.47154E+03  6.16517E+03  8.17623E+02  3.89440E+03  3.68065E+03 -4.44507E+02  7.17951E+03
 -4.77454E+03  5.95479E+03 -1.02098E+04  2.63009E+03 -6.79743E+03 -6.19102E+03 -1.90420E+03 -1.11912E+04
  5.53060E+03 -8.37472E+03  9.67685E+03 -1.77342E+03  1.04437E+04  1.63238E+03  4.48093E+03  6.89706E+03
  6.41632E+02  8.23905E+03 -4.35688E+03  6.45372E+03 -4.11843E+03  4.10838E+03 -4.98392E+03 -2.15099E+03
 -3.35991E+03 -1.30380E+02 -2.91127E+03  2.81000E+03 -5.21675E+03  2.42007E+03 -6.49132E+03 -2.85789E+03
 -6.02594E+03 -3.65529E+03 -2.27154E+03 -8.97390E+03  5.38862E+03 -8.43928E+03  6.96940E+03 -4.50839E+03
  7.89749E+03  8.70175E+02  3.47997E+03  6.51351E+03 -4.35268E+02  8.50169E+03 -6.56617E+03  4.77645E+03
