 $NMID ID='MM_0lb_SNR200_12hz_g50_43.RAW', FMTDAT='(8E13.5)'
 TRAMP=1., VOLUME=1. $END
  3.08722E+05  3.71811E+02  3.37298E+05  2.51353E+05  8.58826E+04  3.38139E+05 -1.31869E+05  2.51615E+05
 -1.88663E+05  8.31539E+04 -1.12664E+05 -3.31673E+04  1.41153E+02 -4.94282E+04  5.26192E+04  9.40784E+02
  3.55799E+04  5.20097E+04 -1.64117E+04  7.55637E+04 -6.03161E+04  6.40335E+04 -8.33387E+04  3.31635E+04
 -8.12450E+04 -1.12383E+04 -5.69950E+04 -5.11296E+04 -1.39087E+04 -6.92714E+04  2.76043E+04 -4.62709E+04
  4.00916E+04  4.44803E+03  1.64307E+04  4.78140E+04 -3.41691E+04  4.74223E+04 -6.82972E+04 -1.29456E+03
 -5.37190E+04 -5.87178E+04 -6.94048E+03 -7.81419E+04  3.39919E+04 -5.55299E+04  4.84485E+04 -1.62294E+04
  4.33650E+04  1.23457E+04  3.17768E+04  2.50422E+04  1.58534E+04  2.98305E+04 -5.71445E+03  2.72692E+04
 -2.18348E+04  1.25626E+04 -1.82698E+04 -4.97903E+03  4.94159E+03 -6.65780E+03  2.36623E+04  1.31153E+04
  7.29684E+03  3.72051E+04 -3.32429E+04  3.58021E+04 -6.60310E+04  2.23190E+03 -5.85334E+04 -4.28539E+04
 -1.24698E+04 -6.38159E+04  4.08868E+04 -4.55775E+04  5.90081E+04 -2.66054E+03  3.38018E+04  3.51292E+04
 -5.84982E+03  3.83413E+04 -3.16600E+04  1.76947E+04 -3.18779E+04 -3.67664E+03 -1.72434E+04 -1.05250E+04
 -1.04466E+04 -1.20556E+04 -3.42702E+02 -1.72399E+04  8.58077E+03 -2.40614E+04  1.47612E+04 -1.29161E+04
  1.15709E+04  6.12841E+03 -9.36655E+03  1.37382E+04 -2.22255E+04 -4.69472E+03 -8.99880E+03 -3.52210E+04
  2.47685E+04 -4.38991E+04  4.97873E+04 -1.98589E+04  4.52778E+04  2.06453E+04  1.63059E+04  4.46889E+04
 -1.61603E+04  3.49502E+04 -2.55554E+04  1.00227E+03 -1.07660E+04 -2.75158E+04  2.06652E+04 -3.43208E+04
  4.37474E+04 -9.08012E+03  3.78411E+04  2.32153E+04  2.00855E+04  4.76858E+04 -7.85807E+03  5.19278E+04
 -3.22202E+04  3.54807E+04 -4.37297E+04  1.04953E+04 -4.49265E+04 -1.61794E+04 -2.46813E+04 -4.08622E+04
  7.91466E+03 -4.11258E+04  3.19496E+04 -1.48644E+04  2.90824E+04  1.17140E+04  4.97890E+03  2.02781E+04
 -1.27107E+04  9.88645E+03 -1.06308E+04 -7.74649E+03  5.38726E+03 -1.29220E+04  1.62110E+04  6.01098E+03
  1.29959E+04  2.22136E+04 -5.34741E+03  2.55298E+04 -2.33640E+04  1.32092E+04 -3.02626E+04 -4.48476E+03
 -2.24801E+04 -1.81890E+04 -9.41795E+03 -2.25745E+04  2.90774E+03 -2.06731E+04  1.68815E+04 -2.04134E+04
  2.82408E+04 -1.35323E+04  3.45067E+04  3.21999E+03  2.44439E+04  2.20542E+04  3.94162E+03  3.82294E+04
 -1.88337E+04  3.15597E+04 -2.85135E+04  9.83088E+03 -2.28515E+04 -9.70842E+03 -4.68068E+03 -1.36136E+04
  1.10834E+03 -2.61446E+02 -6.44366E+03  6.60712E+03 -1.68172E+04  4.86253E+03 -1.86434E+04 -9.58587E+03
 -1.08501E+04 -2.09723E+04  4.14762E+03 -2.64029E+04  1.77688E+04 -1.82157E+04  1.97395E+04 -2.05888E+03
  1.29014E+04  1.43184E+04 -7.73628E+02  2.08704E+04 -1.29346E+04  1.24735E+04 -2.05791E+04 -3.85022E+03
 -1.60339E+04 -1.97963E+04 -2.65946E+03 -2.42595E+04  1.19652E+04 -2.00553E+04  2.17948E+04 -9.34415E+03
  1.86297E+04 -2.16264E+02  1.40168E+04  5.27468E+03  7.22178E+03  7.89014E+02  9.55572E+03 -2.68338E+03
  1.90422E+04  2.91107E+03  2.10494E+04  1.73021E+04  1.46996E+04  3.35586E+04 -1.32882E+03  3.91429E+04
 -2.25686E+04  3.04131E+04 -3.62057E+04  1.66889E+04 -3.83851E+04 -2.44461E+03 -3.10724E+04 -2.14565E+04
 -1.27415E+04 -3.11599E+04  1.15501E+04 -2.81279E+04  2.40131E+04 -1.50756E+04  2.07437E+04  6.71970E+03
  7.22241E+03  1.59849E+04 -9.56750E+03  1.36129E+04 -1.58706E+04  1.61503E+03 -1.33195E+04 -1.04600E+04
  9.66874E+00 -1.63561E+04  9.35253E+03 -1.21595E+04  1.05744E+04 -9.76887E+02  2.32677E+03  7.50337E+03
 -6.92224E+03  3.50576E+03 -6.89060E+03 -5.51153E+03 -9.19269E+02 -1.53989E+04  1.11877E+04 -1.61185E+04
  1.91125E+04 -8.53091E+03  2.07659E+04  2.48189E+03  1.81155E+04  1.54155E+04  8.37587E+03  2.21777E+04
 -3.46794E+03  2.56271E+04 -1.68150E+04  1.58206E+04 -1.87756E+04  3.51854E+03 -1.22904E+04 -5.19008E+03
 -5.41888E+03 -4.35729E+03 -2.33333E+03  1.07778E+03 -3.33073E+03  3.64599E+03 -5.88243E+03  5.48814E+03
 -1.26752E+04 -4.77213E+02 -1.42892E+04 -1.07952E+04 -5.56180E+03 -1.59699E+04  5.36427E+03 -1.38419E+04
  9.92574E+03 -5.96230E+03  8.58777E+03  2.79545E+03  3.64855E+02  3.96464E+03 -7.56140E+03 -1.13342E+03
 -7.07518E+03 -9.10289E+03 -2.42358E+03 -1.30525E+04  6.85263E+03 -1.31301E+04  1.58722E+04 -6.64976E+03
  1.90299E+04  1.80862E+03  1.38868E+04  1.19875E+04  3.87733E+03  1.69151E+04 -7.09837E+03  1.37237E+04
 -1.03292E+04  4.45276E+03 -4.95681E+03 -1.41553E+03  1.46915E+03 -4.78319E+03  6.92140E+03 -1.48288E+03
  7.07063E+03  5.14919E+03  2.14239E+03  1.10305E+04 -7.30287E+03  1.00422E+04 -1.28173E+04  3.03954E+03
 -8.17082E+03 -5.82830E+03 -1.68048E+02 -1.30457E+04  6.80848E+03 -6.43566E+03  8.04205E+03  1.88131E+03
  2.31006E+03  7.06979E+03 -6.71015E+03  7.27126E+03 -9.51092E+03  3.81877E+03 -1.06850E+04 -3.79385E+03
 -6.41298E+03 -1.25203E+04  2.34696E+03 -1.43335E+04  1.21942E+04 -8.64828E+03  1.26948E+04  1.63285E+03
  8.13288E+03  1.02417E+04  2.44546E+02  1.28913E+04 -1.04441E+04  6.29357E+03 -1.01406E+04 -1.43596E+03
 -8.69479E+03 -7.45494E+03 -3.11759E+03 -9.87247E+03  5.37959E+03 -8.46171E+03  5.83810E+03 -2.86505E+03
  3.90494E+03  1.15953E+03  1.66524E+01  1.55599E+03 -6.66100E+01 -2.26984E+03  2.36111E+03 -5.45469E+03
  8.15767E+03 -4.89138E+03  1.19613E+04  3.06625E+03  1.04988E+04  6.84737E+03  9.21405E+03  1.47503E+04
 -3.56060E+03  1.77170E+04 -1.46882E+04  1.23454E+04 -1.92724E+04  2.09070E+03 -1.61038E+04 -5.62985E+03
 -9.56775E+03 -1.29986E+04 -4.92762E+02 -1.16545E+04  4.42749E+03 -5.91423E+03  3.01874E+03 -3.60110E+03
  4.13633E+03 -2.08051E+03  3.25550E+03 -3.34722E+03  4.04390E+03 -2.08248E+03  7.01782E+03 -2.75101E+02
  6.91772E+03  8.05061E+02  3.99456E+03  7.80947E+03 -1.97902E+03  8.22081E+03 -9.06486E+03  6.81075E+03
 -9.66656E+03 -5.76050E+02 -6.60582E+03 -7.42349E+03 -1.16875E+03 -1.31071E+04  7.04202E+03 -1.15611E+04
  1.14517E+04 -6.37114E+03  1.41221E+04  2.82461E+02  1.10808E+04  9.04450E+03  1.76964E+03  1.32971E+04
 -3.76660E+03  1.15249E+04 -7.53717E+03  4.25091E+03 -5.85902E+03 -1.08401E+03 -3.64126E+03 -7.36878E+02
  2.68897E+01 -1.42357E+03 -2.81061E+02  2.36220E+03 -5.05444E+03  2.32415E+03 -8.37069E+03 -2.25386E+03
 -5.00432E+03 -7.99509E+03  5.72363E+02 -9.11146E+03  7.11757E+03 -1.03848E+04  1.04287E+04 -3.47025E+03
  9.23664E+03  4.76597E+03  4.82942E+03  8.66446E+03 -1.28608E+03  9.46596E+03 -6.50954E+03  6.51821E+03
 -1.04114E+04  1.31641E+03 -6.97213E+03 -4.89508E+03  5.61138E+02 -8.87349E+03  4.07205E+03 -6.44109E+03
  6.61330E+03 -1.99952E+03  3.98511E+03  2.70382E+03  2.60213E+03  3.27990E+03  1.80985E+03  1.13769E+03
  1.97689E+03  5.87192E+02  2.34853E+03  4.37437E+02  3.28058E+03  2.50726E+03  2.19294E+03  5.24591E+03
 -1.82586E+03  8.43290E+03 -7.14723E+03  7.93570E+03 -1.08963E+04  2.86200E+03 -1.07867E+04 -4.03183E+03
 -4.00853E+03 -9.44366E+03  1.62230E+03 -1.25755E+04  5.35527E+03 -6.75806E+03  7.19755E+03 -2.84192E+03
  6.60226E+03  3.22602E+03  2.16308E+03  5.46474E+03 -7.74686E+02  4.18602E+03 -2.43608E+03 -4.39490E+02
 -2.72506E+03 -5.11063E+03  2.78377E+03 -4.61539E+03  4.83962E+03 -3.79360E+03  2.61155E+03  7.06387E+02
  1.80019E+03  2.71730E+03  1.89451E+03  1.76090E+03 -8.87515E+02  1.49655E+03  2.09743E+03 -2.23142E+03
  1.20657E+03  9.70028E+02  4.23663E+03  1.89045E+03  1.47703E+03  6.26449E+03 -1.32416E+03  7.31133E+03
 -5.18771E+03  4.06530E+03 -6.76915E+03  1.22979E+03 -7.30737E+03 -1.62606E+03 -2.61005E+03 -3.04831E+03
  1.06151E+03 -4.03579E+03  3.63450E+03 -1.45955E+03  2.60252E+03  2.90938E+03 -2.75301E+03  3.67787E+03
 -3.47323E+03  1.97846E+03 -3.78445E+03 -2.56866E+03 -1.74160E+03 -5.71543E+03  5.79396E+02 -3.22595E+03
  3.41309E+03 -1.26723E+03  4.80558E+03 -4.30564E+02  3.18126E+03  1.03128E+03 -6.72651E+02  2.45964E+03
 -1.91059E+03  2.49240E+01 -3.43020E+03 -2.49466E+03  1.07095E+03 -3.42777E+03  4.11265E+03 -3.71478E+03
  6.21376E+03  7.03721E+02  7.67298E+03  3.99640E+03  2.12450E+03  6.21399E+03 -1.80210E+03  5.95848E+03
 -4.94439E+03  1.49312E+03 -5.32689E+03 -1.49143E+03 -1.64809E+03 -3.23389E+03  8.69655E+02 -4.04134E+03
  4.51953E+03 -1.55922E+03  2.90102E+03  1.54878E+03  7.34604E+01  3.09909E+03 -6.38767E+02  2.91550E+03
 -2.81552E+03  2.38443E+03 -1.85020E+03  1.07681E+03  9.89251E+02  6.28702E+01 -3.00414E+03  1.72356E+03
 -1.87498E+03  1.34713E+03 -3.64144E+03  2.23813E+03 -6.04776E+03 -9.68967E+02 -6.31962E+03 -4.41664E+03
 -2.65689E+03 -8.28032E+03  1.00053E+03 -9.57993E+03  4.70055E+03 -6.83003E+03  7.64138E+03 -3.90807E+03
  7.36290E+03  1.13460E+03  5.51380E+03  6.49948E+03  1.29882E+02  5.63037E+03 -2.01417E+03  3.62294E+03
 -3.94588E+03  7.04408E+02 -1.78611E+03 -4.48134E+02 -2.35309E+03 -2.96495E+02 -1.03615E+03  3.45494E+02
 -1.18248E+03  3.53859E+02 -1.87044E+03 -1.34392E+03  5.22602E+02 -3.00072E+03 -1.42866E+03 -2.49060E+03
  2.52218E+03 -2.36931E+03  3.40232E+03 -1.50705E+02  4.53819E+03  3.88302E+03 -1.48329E+03  5.62724E+03
 -1.99842E+03  7.07436E+03 -6.51231E+03  2.87989E+03 -8.10545E+03 -1.07137E+03 -5.40697E+03 -3.67476E+03
 -2.09417E+03 -6.14330E+03  2.12394E+03 -6.01053E+03  3.44577E+03 -3.01145E+03  3.45575E+03 -1.67372E+02
  2.78429E+03  9.36103E+02 -3.57606E+02  1.07791E+03 -2.19190E+03 -5.63132E+02  5.15009E+02 -1.32631E+03
  5.91631E+02 -1.16512E+03  2.89531E+03  1.39179E+03  1.57384E+03  3.05693E+03 -3.74421E+02  1.00460E+03
 -2.87730E+03  2.66682E+03 -3.93049E+03 -6.82577E+02 -3.50989E+03 -3.02378E+03 -1.52186E+03 -3.63459E+03
  2.46081E+03 -4.51900E+03  3.12123E+03 -1.33487E+03  4.46406E+03  1.46414E+03  8.11679E+02  3.00555E+03
  6.76157E+02  4.10162E+03 -4.40537E+02  3.83998E+03 -1.35641E+03  1.78793E+03 -2.11781E+03  8.93991E+02
 -2.56268E+02 -1.59449E+03  1.20304E+03  8.23417E+02 -2.62464E+03  1.02452E+03 -3.02764E+03 -4.43646E+01
 -2.71608E+03 -1.84226E+03 -2.09378E+03 -4.64612E+03  2.27397E+03 -4.94346E+03  2.71147E+03 -1.94346E+03
  2.74301E+03  7.35369E+02  1.36667E+03  1.97368E+03 -1.15340E+03  4.51717E+03 -2.42625E+03  3.98302E+03
