 $NMID ID='MM_0lb_SNR200_17hz_g55_75.RAW', FMTDAT='(8E13.5)'
 TRAMP=1., VOLUME=1. $END
  3.10985E+05 -3.39179E+02  3.37241E+05  2.49696E+05  8.41984E+04  3.38150E+05 -1.31679E+05  2.50648E+05
 -1.90477E+05  8.28723E+04 -1.12132E+05 -3.30287E+04  1.28696E+03 -5.01255E+04  5.37755E+04  2.67383E+02
  3.36567E+04  5.30233E+04 -1.67308E+04  7.48907E+04 -6.04736E+04  6.36451E+04 -8.39921E+04  3.15060E+04
 -8.07780E+04 -1.12237E+04 -5.72916E+04 -5.14490E+04 -1.49846E+04 -6.99173E+04  2.74100E+04 -4.59912E+04
  4.04257E+04  4.40559E+03  1.53582E+04  4.85958E+04 -3.37259E+04  4.82387E+04 -6.63562E+04 -4.53115E+02
 -5.29255E+04 -5.81994E+04 -5.67644E+03 -7.65790E+04  3.44720E+04 -5.37603E+04  4.64400E+04 -1.74769E+04
  4.19402E+04  1.08615E+04  3.07300E+04  2.51078E+04  1.58432E+04  2.88106E+04 -5.44261E+03  2.76971E+04
 -2.15100E+04  1.27018E+04 -1.99861E+04 -3.90889E+03  4.57271E+03 -7.92893E+03  2.24569E+04  1.22917E+04
  7.14616E+03  3.40562E+04 -3.21806E+04  3.42833E+04 -6.29464E+04  2.02229E+03 -5.53838E+04 -4.25605E+04
 -1.15036E+04 -6.27446E+04  4.00355E+04 -4.28448E+04  5.75245E+04 -1.29319E+03  3.37153E+04  3.13830E+04
 -5.32487E+03  3.60717E+04 -2.99624E+04  1.51369E+04 -2.96309E+04 -4.56363E+03 -1.58263E+04 -1.04263E+04
 -8.41956E+03 -1.14791E+04 -5.46857E+02 -1.72743E+04  7.73231E+03 -2.29684E+04  1.55346E+04 -1.27628E+04
  1.07293E+04  4.46961E+03 -8.18016E+03  1.28154E+04 -1.90775E+04 -2.12307E+03 -7.77520E+03 -3.19569E+04
  2.14674E+04 -4.18973E+04  4.68638E+04 -1.98026E+04  4.37451E+04  1.92106E+04  1.42241E+04  4.45860E+04
 -1.49483E+04  3.27568E+04 -2.36189E+04  1.65930E+03 -9.51687E+03 -2.71425E+04  2.06698E+04 -3.14742E+04
  3.90926E+04 -8.68054E+03  3.34550E+04  2.19960E+04  1.81420E+04  4.61563E+04 -7.68215E+03  4.80847E+04
 -3.23799E+04  3.13561E+04 -4.08055E+04  1.06592E+04 -4.07095E+04 -1.62988E+04 -2.22103E+04 -3.59413E+04
  6.36340E+03 -3.72890E+04  3.06937E+04 -1.35587E+04  2.81575E+04  1.10646E+04  3.74959E+03  1.81673E+04
 -1.34416E+04  7.38835E+03 -9.57083E+03 -8.10148E+03  5.28506E+03 -1.05116E+04  1.78129E+04  5.39643E+03
  1.33280E+04  2.16354E+04 -7.11387E+03  2.38466E+04 -2.26567E+04  9.63129E+03 -2.73453E+04 -5.15462E+03
 -1.81104E+04 -1.82942E+04 -7.69957E+03 -1.91715E+04  4.02221E+03 -1.65368E+04  1.44880E+04 -1.54376E+04
  2.36048E+04 -1.10400E+04  3.12256E+04  1.23822E+03  2.16631E+04  1.79350E+04  4.82703E+03  3.46212E+04
 -1.76321E+04  2.84742E+04 -2.66127E+04  9.46508E+03 -2.08758E+04 -1.13153E+04 -4.12694E+03 -1.43791E+04
  2.29996E+03 -2.49548E+03 -4.56125E+03  7.45380E+03 -1.55478E+04  5.13409E+03 -1.53411E+04 -6.34453E+03
 -9.97088E+03 -1.72138E+04  4.98038E+03 -2.08363E+04  1.45284E+04 -1.50640E+04  1.55178E+04 -2.25058E+03
  1.04447E+04  1.22215E+04 -5.37391E+02  1.79584E+04 -1.13977E+04  1.11054E+04 -1.73274E+04 -3.87796E+03
 -1.27436E+04 -1.57881E+04 -1.83726E+03 -2.08835E+04  1.00066E+04 -1.73504E+04  1.79357E+04 -7.62729E+03
  1.68176E+04 -9.93381E+02  1.19930E+04  4.49474E+03  5.65646E+03  1.05931E+03  8.87713E+03 -1.68181E+03
  1.50353E+04  3.44885E+03  1.58279E+04  1.38356E+04  1.01721E+04  2.77704E+04 -2.77338E+03  3.02539E+04
 -1.77134E+04  2.32475E+04 -2.79928E+04  1.17263E+04 -2.86096E+04 -8.88919E+02 -2.40600E+04 -1.60311E+04
 -1.12241E+04 -2.38756E+04  8.37313E+03 -2.27418E+04  1.97016E+04 -1.28986E+04  1.79712E+04  5.18142E+03
  7.22647E+03  1.26009E+04 -7.63933E+03  1.07888E+04 -1.46863E+04  3.12931E+03 -1.14453E+04 -8.06856E+03
 -1.78828E+03 -1.42538E+04  6.72820E+03 -1.02282E+04  9.14683E+03 -7.80849E+02  1.05244E+03  6.12288E+03
 -6.70490E+03  1.44910E+03 -3.55650E+03 -4.43292E+03 -7.76252E+01 -1.24331E+04  8.63847E+03 -1.20363E+04
  1.54117E+04 -6.33442E+03  1.48487E+04  3.36050E+03  1.13281E+04  1.06289E+04  5.11141E+03  1.60562E+04
 -2.66347E+03  1.96173E+04 -1.19406E+04  1.07684E+04 -1.33671E+04  3.50274E+03 -8.86411E+03 -3.09866E+03
 -4.66935E+03 -3.49330E+03 -1.68249E+03  1.43216E+03 -2.12913E+03  9.46310E+02 -4.97391E+03  4.80809E+03
 -8.40399E+03 -7.91051E+02 -9.24637E+03 -7.68371E+03 -3.12826E+03 -1.23538E+04  4.36012E+03 -1.01472E+04
  7.58311E+03 -3.53854E+03  6.19227E+03  2.40187E+03  5.10647E+02  4.29765E+03 -3.43498E+03 -6.09155E+01
 -4.18412E+03 -4.15293E+03  3.67972E+02 -8.00813E+03  4.12715E+03 -8.77791E+03  1.21370E+04 -5.40884E+03
  1.32828E+04 -4.51252E+02  8.68221E+03  7.86085E+03  2.18009E+03  1.00081E+04 -5.77910E+03  9.68227E+03
 -7.92678E+03  2.78276E+03 -4.02549E+03 -1.72705E+03  5.01461E+02 -3.30070E+03  5.50913E+03 -1.13027E+03
  4.46732E+03  3.87387E+03  1.69417E+03  7.91873E+03 -5.54108E+03  7.16939E+03 -9.81355E+03  2.35489E+03
 -7.64609E+03 -4.14530E+03  8.16462E+02 -8.80235E+03  4.27815E+03 -2.41098E+03  4.67332E+03  6.92523E+02
  9.11193E+02  3.93125E+03 -4.50288E+03  5.68614E+03 -6.63347E+03  2.57328E+03 -6.59506E+03 -7.76852E+02
 -3.58812E+03 -7.58369E+03  7.27089E+02 -8.57028E+03  7.94955E+03 -6.65749E+03  8.85716E+03  1.18973E+03
  5.78924E+03  6.49834E+03 -2.69921E+02  7.48070E+03 -7.03887E+03  5.27969E+03 -7.47160E+03  4.27858E+02
 -6.11941E+03 -6.17036E+03 -1.11911E+03 -6.62755E+03  3.33026E+03 -5.26657E+03  3.54744E+03 -3.05860E+03
  2.73670E+03  1.56905E+01 -3.36486E+02  1.51243E+03  3.93505E+02 -7.91035E+02  1.64544E+03 -2.95515E+03
  4.68099E+03 -2.37979E+03  6.28830E+03  9.53860E+02  6.85115E+03  4.67188E+03  6.61595E+03  9.22548E+03
 -1.64822E+03  1.04832E+04 -9.09366E+03  7.76695E+03 -1.32068E+04  2.08840E+03 -9.28846E+03 -3.14827E+03
 -4.98470E+03 -8.39931E+03 -1.46126E+01 -7.33277E+03  2.61750E+03 -2.45034E+03  1.64898E+03 -2.96878E+03
  1.54036E+03 -2.41129E+03  2.20751E+03 -2.72951E+03  3.41410E+03 -2.28693E+03  4.02100E+03  3.33164E+02
  4.54787E+03  1.70670E+03  2.39254E+03  2.59789E+03 -2.15087E+03  4.09997E+03 -5.83603E+03  4.55407E+03
 -6.22789E+03 -1.33156E+03 -2.21210E+03 -4.77494E+03 -1.57402E+02 -6.60768E+03  3.43324E+03 -7.31540E+03
  7.01104E+03 -4.55638E+03  7.55728E+03  2.49487E+02  6.91410E+03  4.93482E+03  1.05432E+03  7.51677E+03
 -3.44434E+03  6.46773E+03 -4.50596E+03  3.90507E+03 -3.28797E+03 -1.45203E+03 -3.00613E+02 -1.22175E+03
 -6.36800E+02 -5.65260E+01 -6.72757E+02  2.24078E+03 -2.53634E+03  1.93659E+03 -5.35785E+03 -1.49678E+03
 -2.75796E+03 -4.86881E+03  5.37032E+01 -6.39661E+03  4.01258E+03 -5.67636E+03  5.03502E+03 -1.94333E+03
  5.23564E+03  2.57004E+03  1.89030E+03  3.54084E+03 -1.36483E+02  5.53369E+03 -3.15833E+03  3.98695E+03
 -4.49449E+03  1.40170E+03 -4.10194E+03 -3.56564E+03 -7.69279E+02 -3.65381E+03  3.39567E+03 -3.56876E+03
  3.35013E+03 -1.38941E+03  2.52270E+03  1.74067E+02  3.38593E+02  1.60338E+03  1.21784E+03  5.05688E+02
  1.78933E+03  9.76684E+02  1.03362E+03  3.63746E+02  2.58382E+03  2.70124E+03  1.29237E+03  1.64110E+03
 -1.72252E+03  4.29164E+03 -3.63984E+03  4.54192E+03 -4.23713E+03  2.03718E+03 -5.16671E+03 -1.12434E+03
 -2.12457E+03 -5.19219E+03  7.77937E+02 -6.30227E+03  3.58619E+03 -3.03369E+03  4.13742E+03 -1.63406E+03
  3.44715E+03  3.47157E+03  9.62991E+02  1.70891E+03 -8.43319E+02  2.14343E+03 -1.56010E+03 -4.00435E+02
 -6.31401E+02 -1.95395E+03  1.69986E+03 -2.01320E+03  1.40860E+03 -1.75984E+03  1.14838E+03 -5.10889E+02
  7.17304E+02 -2.58214E+01  1.75275E+03 -6.96507E+02 -1.09341E+03  1.01180E+03  1.42627E+03 -2.20783E+02
  8.28926E+01  4.17468E+02  3.11491E+03  8.43952E+02  6.38948E+02  3.74877E+03  5.56261E+02  3.84943E+03
 -2.07533E+03  1.69638E+03 -2.28052E+03  1.11696E+03 -3.15072E+03 -2.00323E+03 -7.01762E+01 -2.40364E+03
  9.56502E+02 -1.64689E+03  2.34761E+02 -9.26524E+02  6.13029E+02  1.61478E+03 -1.10773E+03  7.14971E+02
 -2.01295E+03  2.08020E+02 -1.21034E+03 -1.49801E+03 -1.18876E+03 -2.57334E+03  7.98117E+02 -2.74589E+03
  1.30860E+03 -1.03707E+03  1.96306E+03  2.78562E+01  1.79083E+03  5.59534E+02 -6.06113E+02  1.93631E+03
 -6.14438E+02  3.85838E+02 -1.12916E+03 -1.07464E+03  1.22891E+03 -2.02003E+03  6.91830E+02 -3.00564E+03
  1.84188E+03 -6.27196E+02  3.62222E+03  1.22177E+03  3.31319E+03  2.46463E+03 -1.52709E+03  1.32988E+03
 -7.31762E+02  7.56942E+02 -1.52627E+02  2.77147E+02 -1.75058E+03 -1.96115E+03 -4.75639E+02 -7.33414E+02
  1.93008E+03 -1.63438E+03  9.49115E+02  1.79718E+03  1.07403E+03  1.59642E+03  7.95672E+02  1.98494E+03
 -3.29594E+02  1.55948E+03 -7.79138E+01  8.75201E+02 -2.56634E+02  1.30311E+03  4.05487E+02  1.50668E+03
 -1.04847E+03  1.14154E+03 -2.31852E+03  1.23678E+03 -2.51654E+03  1.55593E+01 -2.30139E+03 -9.10025E+02
 -1.39960E+03 -3.85096E+03  7.61056E+02 -3.46579E+03 -5.46748E+01 -2.50310E+03  3.53547E+03 -3.55347E+03
  3.49212E+03 -3.20183E+02  1.50921E+03  1.15190E+03 -2.06100E+02  2.09953E+03 -1.33619E+03  1.59046E+03
 -1.59109E+03  4.30348E+02 -5.56548E+02 -3.14720E+02 -8.64974E+01 -8.33578E+02 -1.33903E+03  1.29902E+02
 -1.04776E+03 -1.83075E+02 -2.43459E+02 -3.20230E+01 -6.02715E+02 -6.76272E+02 -6.39934E+02 -7.96210E+02
  2.08883E+03 -2.43452E+02 -3.79479E+01  2.15738E+02  2.17624E+03  1.24610E+03  1.18471E+03  2.74206E+03
 -1.01448E+03  2.94203E+03  1.74730E+02  2.14594E+03 -1.70551E+03  5.59571E+01 -2.96336E+03 -1.11426E+03
 -1.51557E+03 -2.02806E+03 -7.75551E+02 -1.92719E+03  1.03519E+03 -6.11462E+02  1.51590E+03  1.26711E+01
  1.33280E+03  7.30790E+02 -1.62415E+02  2.15053E+03 -7.83287E+01  2.32909E+02 -5.78349E+02 -5.77795E+02
  4.53408E+02  4.59413E+02  5.27088E+02  8.78585E+02 -5.46826E+02  1.16107E+03  3.34010E+02  8.81877E+02
 -7.49136E+02  4.48426E+02 -9.86229E+02  1.06997E+03 -1.27774E+03 -2.23913E+02  2.13709E+02 -1.44255E+03
 -1.14662E+02 -1.14738E+03  1.42174E+03 -1.34730E+03  1.57785E+03  2.67234E+02  1.99716E+02  4.46736E+02
 -4.86458E+02  1.39164E+03 -9.84539E+02 -1.69617E+02 -8.65562E+02  6.08242E+02 -6.70970E+02 -5.82057E+01
 -6.57816E+02  9.91080E+01 -6.72250E+02  1.04461E+03 -1.15418E+03 -9.29931E+02 -2.24201E+03 -4.00872E+02
 -1.63581E+03 -1.60897E+01 -3.34976E+02 -6.31721E+02  3.65564E+02 -1.89194E+03  1.50789E+03 -7.28065E+02
  9.29839E+02 -4.93900E+02  2.58440E+01  6.29966E+02  2.95536E+02  2.00899E+03 -5.21584E+02  1.04519E+03
