 $NMID ID='MM_0lb_SNR200_17hz_g40_59.RAW', FMTDAT='(8E13.5)'
 TRAMP=1., VOLUME=1. $END
  3.10562E+05 -5.91583E+02  3.37548E+05  2.50201E+05  8.45108E+04  3.37794E+05 -1.31177E+05  2.50849E+05
 -1.89698E+05  8.29457E+04 -1.11845E+05 -3.40133E+04  9.92373E+02 -4.96199E+04  5.47715E+04 -3.91714E+02
  3.40736E+04  5.30928E+04 -1.69182E+04  7.59129E+04 -6.10084E+04  6.43692E+04 -8.27362E+04  3.28637E+04
 -7.98742E+04 -1.03949E+04 -5.58202E+04 -5.16552E+04 -1.46618E+04 -6.77878E+04  2.63808E+04 -4.47624E+04
  3.87613E+04  3.26281E+03  1.49409E+04  4.76573E+04 -3.51823E+04  4.62769E+04 -6.44568E+04 -4.27117E+02
 -5.18357E+04 -5.59645E+04 -5.45044E+03 -7.52353E+04  3.42209E+04 -5.31449E+04  4.67230E+04 -1.59963E+04
  4.23301E+04  1.16857E+04  3.10079E+04  2.45057E+04  1.56230E+04  2.89578E+04 -5.37905E+03  2.70557E+04
 -2.11200E+04  1.19920E+04 -1.91825E+04 -5.19529E+03  3.96934E+03 -6.73118E+03  2.02637E+04  1.05122E+04
  6.41354E+03  3.32056E+04 -2.97590E+04  3.42187E+04 -6.08937E+04  2.93730E+03 -5.43582E+04 -4.04705E+04
 -1.22680E+04 -6.12315E+04  3.75196E+04 -4.30581E+04  5.54511E+04 -1.59672E+03  3.21899E+04  3.18578E+04
 -6.59166E+03  3.22144E+04 -2.87699E+04  1.38682E+04 -2.70754E+04 -6.24883E+03 -1.37865E+04 -1.03767E+04
 -6.72739E+03 -1.13978E+04 -1.13284E+00 -1.58788E+04  5.99756E+03 -2.18882E+04  1.37642E+04 -1.31926E+04
  1.17279E+04  4.38037E+03 -5.47564E+03  1.33209E+04 -1.84541E+04 -1.76332E+03 -8.33794E+03 -3.13972E+04
  2.20297E+04 -4.06413E+04  4.53587E+04 -1.82213E+04  4.19553E+04  1.81509E+04  1.44563E+04  4.21356E+04
 -1.48909E+04  3.20562E+04 -2.32344E+04  1.32682E+03 -8.37551E+03 -2.65724E+04  2.15587E+04 -3.17709E+04
  3.90613E+04 -7.54820E+03  3.25553E+04  2.31819E+04  1.69977E+04  4.26977E+04 -9.39443E+03  4.53718E+04
 -2.88143E+04  3.05529E+04 -3.86051E+04  8.44947E+03 -3.77776E+04 -1.41475E+04 -2.16699E+04 -3.51562E+04
  8.01844E+03 -3.50804E+04  3.00953E+04 -1.24607E+04  2.66672E+04  9.56213E+03  3.49819E+03  1.82566E+04
 -1.23872E+04  7.01064E+03 -1.03095E+04 -7.73987E+03  5.94422E+03 -9.43899E+03  1.73785E+04  6.53679E+03
  1.23740E+04  2.28408E+04 -6.58345E+03  2.44597E+04 -2.21943E+04  9.90542E+03 -2.55072E+04 -6.61358E+03
 -1.79974E+04 -1.66903E+04 -5.48911E+03 -1.78610E+04  4.13236E+03 -1.48521E+04  1.32813E+04 -1.54152E+04
  2.18527E+04 -1.17723E+04  2.93555E+04  2.42598E+03  2.15750E+04  1.67219E+04  4.36195E+03  3.28032E+04
 -1.63332E+04  2.74175E+04 -2.64749E+04  1.02625E+04 -2.04643E+04 -1.05129E+04 -3.45407E+03 -1.31693E+04
  1.57448E+03 -2.69073E+03 -2.89366E+03  6.65373E+03 -1.29085E+04  5.38411E+03 -1.40494E+04 -5.63546E+03
 -9.14184E+03 -1.63098E+04  3.96281E+03 -2.01289E+04  1.34298E+04 -1.42211E+04  1.45450E+04 -1.06804E+03
  8.75504E+03  1.04695E+04 -1.17070E+03  1.62608E+04 -1.08857E+04  8.67427E+03 -1.54409E+04 -4.01339E+03
 -1.18934E+04 -1.51724E+04 -9.31837E+02 -1.95164E+04  9.25018E+03 -1.56354E+04  1.56957E+04 -6.66554E+03
  1.53607E+04  5.58241E+02  1.09701E+04  4.00382E+03  5.22076E+03  3.72736E+02  7.89996E+03 -1.11101E+02
  1.34476E+04  1.55016E+03  1.56608E+04  1.23397E+04  1.00437E+04  2.55091E+04 -2.01371E+03  2.70855E+04
 -1.65604E+04  2.13309E+04 -2.48904E+04  1.03535E+04 -2.59941E+04 -2.37287E+03 -2.26531E+04 -1.46776E+04
 -9.70256E+03 -2.08133E+04  7.04801E+03 -2.00366E+04  1.66067E+04 -1.08343E+04  1.73869E+04  3.74202E+03
  5.64715E+03  1.16390E+04 -7.36296E+03  1.07092E+04 -1.48084E+04  3.08595E+03 -1.10630E+04 -7.35194E+03
 -1.07905E+01 -1.36196E+04  5.85212E+03 -9.22122E+03  7.82719E+03 -1.42209E+03  2.00882E+03  4.38319E+03
 -6.78902E+03  1.58842E+03 -3.37006E+03 -5.24891E+03  9.73202E+02 -1.07666E+04  7.58924E+03 -1.08509E+04
  1.26753E+04 -5.07672E+03  1.30797E+04  1.75661E+03  1.19206E+04  9.66755E+03  5.30316E+03  1.61089E+04
 -1.33053E+03  1.71211E+04 -9.98983E+03  1.12500E+04 -1.21008E+04  3.23269E+03 -8.65979E+03 -1.91212E+03
 -5.03190E+03 -3.76060E+03 -1.33673E+03  1.56059E+03 -2.59927E+03  2.10439E+03 -3.43676E+03  4.21761E+03
 -7.41313E+03 -3.10839E+02 -8.35349E+03 -6.80377E+03 -3.49974E+03 -1.18134E+04  3.61583E+03 -9.02020E+03
  7.51751E+03 -2.75680E+03  4.50355E+03  2.34170E+03  9.26615E+02  3.48788E+03 -3.89987E+03  1.77839E+02
 -3.86529E+03 -6.31175E+03 -1.27033E+03 -7.80252E+03  4.52206E+03 -8.05252E+03  1.09673E+04 -3.64509E+03
  1.33976E+04  8.37954E+02  9.97075E+03  6.61889E+03  1.12980E+03  9.03178E+03 -6.28871E+03  1.02853E+04
 -7.33460E+03  3.27735E+03 -3.74936E+03 -2.04223E+03  1.23684E+03 -2.91533E+03  4.64746E+03 -8.25352E+02
  4.59139E+03  4.50247E+03  1.51405E+03  6.61066E+03 -5.37886E+03  7.04878E+03 -8.16562E+03  1.71527E+03
 -4.46720E+03 -3.09329E+03 -5.77706E+02 -7.44374E+03  3.30431E+03 -2.16333E+03  3.01410E+03  1.22357E+03
 -3.36578E+02  4.07626E+03 -4.41872E+03  5.06758E+03 -4.98104E+03  2.50019E+03 -5.08983E+03 -1.21124E+03
 -2.76263E+03 -6.14650E+03  1.91449E+03 -8.67357E+03  5.79668E+03 -5.49651E+03  6.46692E+03  2.32197E+03
  4.99631E+03  7.50636E+03  1.02278E+03  8.01852E+03 -7.11355E+03  5.19148E+03 -4.70407E+03 -5.61197E+02
 -5.86623E+03 -6.17023E+03 -2.26209E+03 -5.84066E+03  2.01611E+03 -4.90030E+03  3.12629E+03 -2.63223E+03
  3.95409E+03  5.51067E+02 -5.53876E+01  9.27006E+02  1.33163E+02 -1.45418E+03 -5.06221E+02 -1.57621E+03
  5.04510E+03 -6.72508E+02  6.77412E+03 -1.49222E+02  5.69337E+03  4.51208E+03  5.01741E+03  8.39632E+03
 -2.56879E+03  9.52397E+03 -8.80603E+03  8.24666E+03 -1.19396E+04  2.09044E+03 -8.61453E+03 -3.11297E+03
 -4.59835E+03 -7.26772E+03  3.46433E+02 -5.47392E+03  3.24475E+03 -3.44736E+03  2.46324E+03 -2.95282E+03
  1.77194E+03 -1.90848E+03  1.63464E+03 -1.40348E+03  3.58259E+03 -1.47856E+03  4.55202E+03  6.61453E+02
  4.18864E+03  5.94247E+02  2.01132E+03  2.36869E+03 -2.01389E+03  4.64830E+03 -4.80633E+03  1.77590E+03
 -5.15212E+03 -1.90078E+03 -3.47206E+03 -4.37297E+03 -2.37555E+02 -5.48508E+03  3.77975E+03 -6.53054E+03
  6.50391E+03 -3.13078E+03  6.35205E+03  1.97133E+02  5.84103E+03  5.51447E+03  1.20324E+03  6.82929E+03
 -3.06137E+03  4.76303E+03 -3.86450E+03  1.79941E+03 -2.34371E+03 -3.09091E+02 -3.73970E+02 -2.91429E+02
 -1.44852E+02  4.73553E+02 -1.11070E+03  1.93066E+03 -2.63782E+03  2.63843E+03 -4.82492E+03 -3.68473E+02
 -1.12179E+03 -5.05163E+03  1.53019E+03 -4.94731E+03  2.87122E+03 -5.13902E+03  4.21473E+03 -1.89552E+03
  4.57669E+03  1.98184E+03  1.84683E+03  4.74481E+03 -1.31523E+03  5.54094E+03 -3.23895E+03  3.59014E+03
 -4.42092E+03  4.16132E+02 -3.19317E+03 -3.03429E+03 -2.30782E+02 -4.09412E+03  1.74319E+03 -3.30722E+03
  3.14167E+03 -1.38739E+03  2.20568E+03 -3.10918E+02  2.18826E+02  2.20759E+03  1.06838E+02  7.01264E+02
  1.87627E+03 -1.11565E+02  1.44307E+03  1.01164E+03  1.26263E+03  1.85902E+03  2.42896E+03  2.05093E+03
 -1.68514E+03  3.82870E+03 -3.02914E+03  4.83573E+03 -4.68281E+03  1.15873E+03 -4.91277E+03 -6.84731E+02
 -1.90787E+03 -4.52230E+03 -2.71287E+02 -5.58918E+03  2.61936E+03 -1.63607E+03  3.77679E+03 -7.49252E+02
  2.97877E+03  1.79433E+03  3.90531E+02  3.74801E+03 -1.72314E+02  2.29807E+03 -1.08018E+03 -3.91609E+02
 -3.89271E+02 -1.91046E+03  1.90862E+03 -2.61147E+03  1.96766E+03 -7.05993E+02  2.25195E+03 -6.57759E+02
  6.63859E+02  9.93602E+02 -4.53591E+02  4.61855E+02 -2.90403E+01  8.45627E+01  1.81906E+03 -2.56402E+02
 -1.89230E+02  7.16786E+01  1.41609E+03  4.04372E+02  9.54066E+02  2.59891E+03  7.26595E+02  4.16846E+03
 -2.36365E+03  1.31919E+03 -2.54631E+03 -1.25885E+02 -1.96893E+03 -1.38601E+03 -1.51538E+03 -1.17037E+03
  6.32954E+02 -1.69179E+03  1.58018E+03 -4.97175E+02  1.39355E+03  1.01189E+03 -1.32719E+03  1.94189E+03
 -7.93164E+02  7.83988E+02 -1.68569E+03 -1.25025E+03 -1.25276E+03 -1.32912E+03  2.35896E+02 -2.69144E+03
  5.83318E+02 -9.62727E+02  5.33364E+02  5.45831E+02  3.08830E+03 -3.78748E+02  5.01942E+02  5.52937E+02
 -6.65141E+02 -1.48771E+03 -9.88117E+02  4.00604E+02  1.04667E+03 -2.13731E+03  2.71577E+03 -1.18481E+03
  1.42050E+03 -6.42168E+02  3.21026E+03  1.62489E+03  1.54626E+03  2.18305E+03 -3.46399E+02  3.24158E+03
 -1.28380E+03  8.62804E+02 -1.29715E+03 -2.73847E+02 -8.55674E+02 -1.49327E+03  3.15212E+02 -1.11583E+03
  2.51359E+03 -8.72403E+02  1.35500E+03  1.82446E+03  1.67056E+02  1.80621E+03  5.21466E+02  1.07908E+03
  1.05084E+02  1.95943E+03 -8.93827E+02  7.47193E+02 -2.95442E+02  3.11342E+02 -1.03987E+03  9.27920E+02
 -1.51237E+03  1.18026E+03 -2.16958E+03  7.86616E+01 -2.54243E+03 -3.77621E+02 -2.17661E+03 -1.46605E+03
 -1.09683E+03 -2.93031E+03 -1.63460E+02 -2.69549E+03  2.10779E+03 -2.23785E+03  3.84424E+03 -1.62902E+03
  3.40780E+03 -3.03978E+02  1.15034E+03  2.58002E+03 -1.12462E+03  1.43456E+03 -1.10466E+03  2.01525E+03
 -1.19435E+03  1.65275E+03  5.80614E+02 -7.43605E+02 -1.93445E+03  6.78298E+02 -4.88736E+01 -1.73441E+02
 -1.98473E+03 -3.93100E+02 -3.50522E+02 -7.90203E+02 -1.16009E+03 -9.94194E+02 -4.51780E+02 -3.70445E+01
  2.71357E+03 -9.30833E+02  2.07207E+03  1.61182E+02  2.21209E+03  2.11678E+03 -2.05654E+02  1.84357E+03
 -5.56196E+02  4.19244E+03 -2.69238E+03  1.96056E+03 -2.91093E+03 -1.28837E+02 -1.22546E+03 -1.51708E+03
 -1.94739E+03 -1.84366E+03 -7.90242E+00 -1.56115E+03  1.54473E+03 -2.74528E+02  1.34072E+03  2.17804E+02
 -5.02303E+01  6.11257E+02  2.60235E+02  1.09604E+03  1.61863E+02 -1.03658E+02 -7.60244E+02 -2.30226E+02
  8.33818E+02 -5.29384E+02  7.53352E+02 -4.47615E+02  7.65604E+01  8.28280E+02  1.22418E+03  1.68436E+02
 -1.59636E+03  6.14421E+02 -9.42192E+02 -4.18563E+02 -5.68117E+02 -9.41985E+02 -1.59389E+02 -2.68125E+03
  1.03541E+03 -8.08507E+02  9.65891E+02 -3.72216E+02  2.29900E+03  8.82401E+01  6.87370E+02  1.95867E+03
  7.91780E+02  5.75758E+02 -3.54799E+01  1.05381E+02 -1.49805E+03  1.25837E+03  5.29108E+02 -3.21024E+01
 -6.21068E+02  1.32772E+03 -7.44186E+02  6.02034E+02 -4.27155E+02  4.43872E+02 -1.75472E+03 -8.17671E+02
 -1.11221E+03 -1.04677E+03 -4.75253E+02 -1.26443E+03  8.65447E+02 -2.27406E+03  1.40953E+03 -7.15112E+02
  1.06838E+03 -6.63006E+02 -2.82548E+02  1.71503E+02  1.87920E+02  1.37761E+03 -7.68810E+02  1.28062E+03
