 $NMID ID='MM_0lb_SNR200_10hz_g40_13.RAW', FMTDAT='(8E13.5)'
 TRAMP=1., VOLUME=1. $END
  3.09567E+05  1.73325E+03  3.37998E+05  2.52042E+05  8.39910E+04  3.39430E+05 -1.35000E+05  2.53443E+05
 -1.90095E+05  8.32687E+04 -1.10033E+05 -3.31960E+04  7.27083E+02 -5.02806E+04  5.35164E+04 -2.09485E+03
  3.52117E+04  5.23892E+04 -1.80116E+04  7.60990E+04 -6.07215E+04  6.44834E+04 -8.56302E+04  3.14653E+04
 -8.21579E+04 -1.05845E+04 -5.57211E+04 -5.14459E+04 -1.46937E+04 -6.89520E+04  2.69045E+04 -4.63429E+04
  4.14436E+04  2.66853E+03  1.62447E+04  4.80938E+04 -3.58805E+04  4.71032E+04 -6.68259E+04 -7.53834E+02
 -5.47108E+04 -5.60775E+04 -5.82466E+03 -7.83057E+04  3.50090E+04 -5.47505E+04  4.90932E+04 -1.83600E+04
  4.48765E+04  1.15950E+04  3.38228E+04  2.61881E+04  1.64851E+04  3.02205E+04 -5.42668E+03  2.68097E+04
 -2.19895E+04  1.21554E+04 -1.78649E+04 -5.90283E+03  5.66965E+03 -8.52051E+03  2.28949E+04  1.43083E+04
  7.94210E+03  3.57140E+04 -3.29711E+04  3.64506E+04 -6.44873E+04  2.07935E+03 -5.86066E+04 -4.44465E+04
 -1.25052E+04 -6.45983E+04  4.04885E+04 -4.72398E+04  5.75863E+04 -1.97598E+03  3.54125E+04  3.53666E+04
 -5.55800E+03  3.77253E+04 -3.06805E+04  1.80470E+04 -3.28989E+04 -4.05144E+03 -1.92845E+04 -1.26938E+04
 -9.03877E+03 -1.41028E+04  1.70886E+03 -1.92996E+04  8.35155E+03 -2.28160E+04  1.52590E+04 -1.28844E+04
  1.08819E+04  5.96708E+03 -1.05532E+04  1.31259E+04 -2.23208E+04 -5.77721E+03 -8.27249E+03 -3.62492E+04
  2.46119E+04 -4.69554E+04  5.09035E+04 -2.04691E+04  4.83197E+04  1.93357E+04  1.61065E+04  4.57387E+04
 -1.53121E+04  3.66312E+04 -2.57762E+04  1.51027E+03 -1.07375E+04 -3.02395E+04  2.12345E+04 -3.66770E+04
  4.37829E+04 -8.65027E+03  3.93715E+04  2.52584E+04  1.96293E+04  4.98647E+04 -7.92033E+03  5.25540E+04
 -3.26486E+04  3.70411E+04 -4.55883E+04  8.37599E+03 -4.60978E+04 -1.77775E+04 -2.54191E+04 -4.06425E+04
  7.99226E+03 -3.93999E+04  3.27298E+04 -1.66365E+04  3.04873E+04  1.13824E+04  4.26414E+03  2.03213E+04
 -1.45897E+04  1.01097E+04 -1.08533E+04 -6.95951E+03  5.68262E+03 -1.10550E+04  1.88370E+04  5.35385E+03
  1.46904E+04  2.13049E+04 -5.01810E+03  2.72218E+04 -2.26375E+04  1.27068E+04 -2.98175E+04 -4.20672E+03
 -2.42266E+04 -1.97097E+04 -9.82235E+03 -2.35306E+04  3.03746E+03 -2.27390E+04  1.81905E+04 -1.97770E+04
  3.01194E+04 -1.35303E+04  3.47600E+04  2.05230E+03  2.64393E+04  2.30508E+04  3.10186E+03  3.92065E+04
 -1.81186E+04  3.34548E+04 -3.00594E+04  1.13824E+04 -2.28169E+04 -1.19755E+04 -4.96277E+03 -1.33628E+04
  1.95661E+03 -2.40161E+03 -6.40678E+03  9.08678E+03 -1.89239E+04  4.95107E+03 -1.89264E+04 -9.28454E+03
 -1.17475E+04 -2.16511E+04  5.56644E+03 -2.58936E+04  1.78342E+04 -1.82778E+04  2.03608E+04 -8.79178E+02
  1.35385E+04  1.58958E+04 -9.18244E+02  2.26125E+04 -1.43536E+04  1.13968E+04 -2.22420E+04 -4.51479E+03
 -1.63939E+04 -1.86013E+04 -1.07690E+03 -2.45688E+04  1.36227E+04 -2.05501E+04  2.16088E+04 -1.14092E+04
  2.14607E+04 -1.45278E+03  1.58791E+04  4.15776E+03  8.97197E+03  1.35684E+03  1.15635E+04 -1.54438E+03
  2.18724E+04  2.98095E+03  2.29131E+04  1.80798E+04  1.54620E+04  3.55047E+04 -2.83962E+03  4.11103E+04
 -2.19784E+04  3.34028E+04 -3.85482E+04  1.69429E+04 -4.09020E+04 -3.83164E+03 -3.35613E+04 -2.37106E+04
 -1.10955E+04 -3.28932E+04  1.10335E+04 -3.08617E+04  2.54517E+04 -1.38224E+04  2.29170E+04  6.24909E+03
  8.71099E+03  1.68319E+04 -1.14576E+04  1.29392E+04 -1.98782E+04  3.04394E+03 -1.40258E+04 -1.07348E+04
  5.75435E+02 -1.73239E+04  9.51397E+03 -1.24727E+04  1.30109E+04 -1.26308E+03  2.79144E+03  8.39162E+03
 -7.74922E+03  4.18218E+03 -8.80466E+03 -8.47078E+03 -1.64993E+03 -1.73664E+04  1.02819E+04 -1.74002E+04
  2.11331E+04 -9.22259E+03  2.28176E+04  2.63815E+03  1.88923E+04  1.63992E+04  1.14436E+04  2.68811E+04
 -3.92122E+03  2.66134E+04 -1.88373E+04  1.78405E+04 -2.11491E+04  3.76061E+03 -1.33356E+04 -4.59502E+03
 -6.74174E+03 -5.98794E+03 -1.26136E+03  3.59114E+02 -3.54988E+03  3.36802E+03 -6.16386E+03  5.04269E+03
 -1.28839E+04 -1.46609E+03 -1.39785E+04 -1.02684E+04 -5.37670E+03 -1.82802E+04  6.16881E+03 -1.35620E+04
  1.06849E+04 -5.22990E+03  8.83846E+03  4.18697E+03  9.62802E+02  5.53230E+03 -6.31053E+03  1.15953E+03
 -7.34236E+03 -1.00323E+04 -1.08235E+03 -1.35485E+04  6.32983E+03 -1.38279E+04  1.79564E+04 -7.59147E+03
  2.05516E+04  2.56608E+03  1.61451E+04  1.31187E+04  3.83209E+03  1.71796E+04 -8.50467E+03  1.37277E+04
 -1.12639E+04  4.43628E+03 -6.36488E+03 -4.20839E+03  1.34601E+03 -3.85304E+03  6.64211E+03  1.30368E+02
  6.07657E+03  6.16165E+03  2.35325E+03  1.04311E+04 -8.03238E+03  1.09740E+04 -1.40284E+04  1.59970E+03
 -1.13424E+04 -5.85642E+03  2.26981E+02 -1.25126E+04  7.42126E+03 -5.36484E+03  8.61704E+03  3.73774E+03
  2.72218E+03  9.37408E+03 -5.40991E+03  7.49716E+03 -1.05257E+04  3.69168E+03 -1.13506E+04 -4.47435E+03
 -7.18130E+03 -1.36520E+04  2.37581E+03 -1.65077E+04  1.37234E+04 -9.48385E+03  1.49912E+04  3.33468E+03
  7.25632E+03  1.06030E+04 -5.75061E+02  1.44291E+04 -1.00650E+04  7.43418E+03 -1.19237E+04 -1.68072E+03
 -8.81879E+03 -8.64822E+03 -5.13460E+02 -1.12256E+04  6.66024E+03 -7.64652E+03  6.11544E+03 -4.15886E+03
  4.62446E+03  1.31540E+03 -2.48697E+03  1.33134E+03 -3.59552E+02 -3.35151E+03  9.13500E+02 -5.43808E+03
  1.09897E+04 -4.08009E+03  1.33960E+04  1.13058E+03  1.28350E+04  8.64433E+03  8.58778E+03  1.83279E+04
 -5.24535E+03  2.04668E+04 -1.65392E+04  1.54545E+04 -2.24253E+04  2.38469E+03 -1.79382E+04 -7.66082E+03
 -8.33793E+03 -1.50467E+04 -3.39258E+02 -1.13755E+04  4.46761E+03 -6.59457E+03  3.89614E+03 -5.11566E+03
  4.80583E+03 -3.29146E+03  3.10953E+03 -2.73549E+03  5.91690E+03 -2.80596E+03  6.86193E+03 -2.22997E+03
  9.34714E+03  1.70143E+03  6.18626E+03  7.45864E+03 -2.99947E+03  9.42449E+03 -1.01350E+04  7.08878E+03
 -1.29688E+04 -1.91443E+03 -8.17275E+03 -9.52044E+03 -1.22651E+03 -1.25677E+04  7.43267E+03 -1.33073E+04
  1.43094E+04 -6.01445E+03  1.76196E+04  2.02235E+03  1.05828E+04  1.08957E+04  6.55509E+02  1.50225E+04
 -4.92968E+03  1.32636E+04 -9.45773E+03  2.54692E+03 -7.08736E+03 -2.26570E+03 -3.22746E+03 -3.02823E+02
 -1.32702E+03  3.85802E+02 -3.49892E+03  2.26471E+03 -4.33569E+03  3.14432E+03 -7.88778E+03 -1.61278E+03
 -6.61114E+03 -7.73137E+03  2.34709E+02 -1.23136E+04  7.98682E+03 -1.04479E+04  1.15727E+04 -2.79801E+03
  1.23078E+04  6.13227E+03  4.29876E+03  1.03033E+04 -3.11991E+03  1.28595E+04 -9.17289E+03  7.12641E+03
 -1.02126E+04 -2.45962E+02 -8.62715E+03 -6.86919E+03 -2.00803E+02 -9.55684E+03  5.25825E+03 -8.17614E+03
  8.24577E+03 -1.33889E+03  4.91779E+03  2.47409E+03  3.02416E+03  2.15276E+03  1.14053E+03  3.15753E+03
  2.44485E+03 -3.77803E+01  1.93822E+03  8.31866E+02  3.24811E+03  5.05423E+03  3.60872E+03  4.40099E+03
 -2.28754E+03  8.64855E+03 -8.81238E+03  9.24720E+03 -1.19349E+04  3.67872E+03 -1.43109E+04 -3.60704E+03
 -6.08738E+03 -1.22011E+04  3.53486E+03 -1.43303E+04  7.11253E+03 -9.47146E+03  9.21354E+03 -1.93667E+03
  8.42194E+03  4.36075E+03  1.46609E+03  8.32412E+03 -4.76078E+03  6.59152E+03 -5.84609E+03 -1.18979E+03
 -4.13093E+03 -4.96314E+03  2.23715E+03 -5.08872E+03  6.06227E+03 -2.37023E+03  4.52025E+03  8.10169E+02
  2.67784E+03  2.48034E+03 -1.12009E+03  1.49838E+03 -1.39209E+03  2.78658E+03  2.51691E+03 -1.56916E+03
  9.37538E+02  1.97567E+02  5.12126E+03  2.15155E+03  3.31088E+03  7.52089E+03 -5.84342E+02  9.34045E+03
 -6.42609E+03  4.03251E+03 -9.31364E+03  1.86376E+03 -6.75811E+03 -4.28359E+03 -2.87873E+03 -4.79522E+03
 -1.84699E+02 -4.56307E+03  2.87071E+03 -2.21630E+03  3.77629E+03  2.10212E+03 -1.19443E+03  3.28732E+03
 -5.81387E+03  1.97648E+03 -5.28778E+03 -3.19358E+03 -4.06555E+03 -7.44233E+03  2.05554E+03 -7.44816E+03
  3.21541E+03 -3.44657E+03  4.92507E+03 -1.19394E+03  3.99405E+03  1.81019E+03  3.85602E+02  3.80654E+03
 -1.72966E+03  1.44844E+03 -2.90219E+03 -2.42536E+03  1.72979E+03 -4.70434E+03  5.97725E+03 -5.13450E+03
  5.95682E+03  1.41804E+03  7.73933E+03  5.46914E+03  4.70337E+03  8.16128E+03 -2.90276E+03  8.46593E+03
 -7.21304E+03  3.85366E+03 -6.83869E+03 -1.42898E+03 -3.89494E+03 -6.04419E+03  9.48448E+02 -4.86740E+03
  6.24061E+03 -1.76364E+03  3.32350E+03  2.38604E+03  1.20307E+03  4.78842E+03 -3.70020E+02  3.36903E+03
 -1.67218E+03  3.01140E+03 -2.67309E+03  1.37882E+03  4.79857E+02  3.02827E+02 -8.45046E+02  9.33040E+02
 -2.18837E+03  2.10965E+03 -6.30072E+03  2.24582E+03 -7.46665E+03  8.24186E+02 -9.10318E+03 -5.16990E+03
 -4.01789E+03 -1.00046E+04  2.20494E+03 -1.20221E+04  7.95725E+03 -9.82428E+03  1.08434E+04 -2.17019E+03
  1.14696E+04  2.30840E+03  6.88683E+03  7.03079E+03  1.57584E+03  9.64929E+03 -2.68842E+03  6.18004E+03
 -4.76058E+03  2.60328E+03 -2.77405E+03  7.04426E+02 -2.10739E+03 -1.62829E+03 -3.23431E+01 -1.13283E+03
 -3.58592E+02  2.43654E+02 -1.90163E+03 -5.56182E+02 -8.16544E+02 -1.44962E+03  1.43635E+02 -3.84391E+03
  3.49128E+03 -2.15838E+03  4.77050E+03 -1.08220E+03  6.11032E+03  5.23760E+03  1.44267E+03  8.82904E+03
 -3.29042E+03  8.00282E+03 -8.72576E+03  4.64812E+03 -1.04644E+04 -1.19011E+03 -5.72073E+03 -7.10664E+03
 -1.07398E+03 -9.29409E+03 -1.80119E+02 -8.30011E+03  5.80035E+03 -3.70794E+03  3.90055E+03  2.35153E+03
  3.33258E+03  2.61169E+03  5.70263E+02  2.39769E+03 -4.45952E+02  6.55312E+02 -6.80284E+02 -1.53927E+03
  2.32388E+03 -1.09830E+03  2.94940E+03  6.66460E+02  1.28506E+03  3.19005E+03 -3.08252E+01  2.65583E+03
 -4.35902E+03  4.02040E+03 -6.03709E+03 -2.16741E+02 -3.52115E+03 -2.73996E+03 -1.62593E+03 -6.73809E+03
  4.41258E+03 -5.69712E+03  4.96685E+03 -2.21733E+02  5.66269E+03  9.65349E+02  2.83240E+03  4.29865E+03
  1.21646E+03  5.63532E+03 -1.37987E+03  4.07462E+03 -2.12663E+03  2.55567E+03 -3.23671E+03  8.62381E+02
 -1.55601E+03 -3.70076E+02 -9.84343E+02  3.61663E+02 -2.20244E+03  6.09252E+02 -3.48134E+03  3.46522E+02
 -3.28066E+03 -3.58285E+03 -2.16148E+03 -6.32107E+03  4.75648E+03 -7.05455E+03  3.49689E+03 -2.21425E+03
  5.63464E+03 -1.43869E+03  2.91673E+03  2.95920E+03 -8.21396E+02  6.09109E+03 -4.12539E+03  4.38685E+03
