 $NMID ID='MM_0lb_SNR200_12hz_g50_68.RAW', FMTDAT='(8E13.5)'
 TRAMP=1., VOLUME=1. $END
  3.09829E+05  1.56643E+03  3.39111E+05  2.51229E+05  8.38103E+04  3.37257E+05 -1.31883E+05  2.52071E+05
 -1.91301E+05  8.37993E+04 -1.11560E+05 -3.36459E+04 -8.01450E+02 -5.04623E+04  5.34418E+04  5.32440E+02
  3.50816E+04  5.38893E+04 -1.60338E+04  7.53957E+04 -6.10613E+04  6.39030E+04 -8.39101E+04  3.13622E+04
 -8.26110E+04 -1.06128E+04 -5.81884E+04 -4.97150E+04 -1.51846E+04 -7.04799E+04  2.76759E+04 -4.49705E+04
  3.98889E+04  5.08533E+03  1.62554E+04  4.82869E+04 -3.43002E+04  4.76595E+04 -6.74294E+04 -4.07332E+02
 -5.45116E+04 -5.67923E+04 -5.93087E+03 -7.82105E+04  3.35963E+04 -5.51411E+04  4.78726E+04 -1.79591E+04
  4.37034E+04  1.22851E+04  3.11358E+04  2.58716E+04  1.68963E+04  2.92116E+04 -4.51546E+03  2.82963E+04
 -2.11530E+04  1.16615E+04 -1.89525E+04 -4.62015E+03  6.13663E+03 -6.54717E+03  2.40918E+04  1.31522E+04
  6.83118E+03  3.47461E+04 -3.22634E+04  3.71391E+04 -6.36268E+04  1.20857E+03 -5.80768E+04 -4.29542E+04
 -1.20085E+04 -6.32870E+04  3.90385E+04 -4.60909E+04  5.97633E+04 -2.55736E+03  3.45927E+04  3.33494E+04
 -5.92969E+03  3.66393E+04 -3.08890E+04  1.70032E+04 -3.05593E+04 -3.97470E+03 -1.78122E+04 -1.17620E+04
 -9.12611E+03 -1.50807E+04 -1.35457E+03 -1.88460E+04  8.14937E+03 -2.21107E+04  1.64060E+04 -1.28931E+04
  9.70062E+03  6.37296E+03 -9.28913E+03  1.29747E+04 -2.23657E+04 -4.16187E+03 -8.31784E+03 -3.58951E+04
  2.36305E+04 -4.49831E+04  4.85443E+04 -2.14767E+04  4.57635E+04  1.97419E+04  1.67996E+04  4.50965E+04
 -1.60919E+04  3.43642E+04 -2.66630E+04  1.65084E+03 -1.09095E+04 -2.97114E+04  2.12789E+04 -3.42493E+04
  4.29160E+04 -9.99884E+03  3.77222E+04  2.48655E+04  1.93435E+04  4.81903E+04 -8.87834E+03  5.25088E+04
 -3.26396E+04  3.48995E+04 -4.45487E+04  1.14553E+04 -4.38222E+04 -1.69724E+04 -2.60771E+04 -4.11378E+04
  6.68877E+03 -4.03077E+04  3.30232E+04 -1.55563E+04  3.08603E+04  9.11829E+03  4.49795E+03  1.90653E+04
 -1.40684E+04  9.27606E+03 -1.11203E+04 -7.40880E+03  5.14262E+03 -1.24721E+04  1.94661E+04  6.72009E+03
  1.45784E+04  2.20428E+04 -4.80256E+03  2.63160E+04 -2.27969E+04  1.36557E+04 -3.00998E+04 -3.88425E+03
 -2.24001E+04 -1.65952E+04 -9.62490E+03 -2.21446E+04  4.97483E+03 -2.22878E+04  1.56596E+04 -2.06629E+04
  2.70017E+04 -1.27281E+04  3.42854E+04  4.31585E+03  2.59360E+04  2.20539E+04  4.28205E+03  3.80339E+04
 -1.95495E+04  3.18138E+04 -2.90275E+04  1.04890E+04 -2.18034E+04 -1.00768E+04 -5.08993E+03 -1.26558E+04
  2.00841E+03 -1.75713E+03 -6.68542E+03  7.57735E+03 -1.76823E+04  5.96566E+03 -1.72880E+04 -8.16952E+03
 -1.10545E+04 -1.99962E+04  5.57852E+03 -2.38857E+04  1.71921E+04 -1.73893E+04  1.92276E+04 -1.83794E+03
  1.13683E+04  1.39732E+04 -1.19642E+03  2.22755E+04 -1.48492E+04  1.11692E+04 -2.09215E+04 -5.31350E+03
 -1.47841E+04 -1.79492E+04 -2.02910E+03 -2.37628E+04  1.09078E+04 -2.14284E+04  2.13676E+04 -1.02327E+04
  1.99494E+04  7.54303E+02  1.50614E+04  4.50149E+03  6.82159E+03  7.56278E+02  1.08472E+04 -1.98696E+03
  1.94849E+04  2.68125E+03  2.13112E+04  1.66797E+04  1.54557E+04  3.33016E+04 -2.35220E+03  3.80459E+04
 -2.18139E+04  3.04766E+04 -3.58110E+04  1.54123E+04 -3.73341E+04 -2.35364E+03 -3.12711E+04 -2.14511E+04
 -1.20895E+04 -3.20656E+04  1.10037E+04 -2.75569E+04  2.29009E+04 -1.38956E+04  2.12834E+04  6.16446E+03
  7.35139E+03  1.64936E+04 -9.74222E+03  1.34537E+04 -1.70451E+04  3.40906E+03 -1.38319E+04 -1.16995E+04
 -7.26160E+02 -1.63076E+04  8.24432E+03 -1.18604E+04  1.15159E+04 -8.03888E+02  2.71210E+03  6.36883E+03
 -9.48537E+03  4.21257E+03 -6.17486E+03 -7.39931E+03 -5.12559E+02 -1.49574E+04  1.05344E+04 -1.62529E+04
  1.97039E+04 -8.95140E+03  1.99148E+04  2.80291E+03  1.86778E+04  1.41194E+04  9.38963E+03  2.40054E+04
 -3.21169E+03  2.50571E+04 -1.76074E+04  1.74550E+04 -1.79805E+04  3.18720E+03 -1.34486E+04 -3.19942E+03
 -4.52986E+03 -6.01841E+03 -7.45117E+02  8.05092E+02 -2.82511E+03  1.99413E+03 -6.87386E+03  4.83001E+03
 -1.09094E+04 -1.27715E+03 -1.32854E+04 -1.01301E+04 -3.92299E+03 -1.60579E+04  6.43336E+03 -1.38378E+04
  1.08380E+04 -6.68261E+03  6.41886E+03  3.64970E+03  1.30545E+03  6.00180E+03 -6.89531E+03 -3.72989E+02
 -6.44617E+03 -8.69377E+03  5.77624E+02 -1.15471E+04  6.94451E+03 -1.31023E+04  1.69759E+04 -7.76058E+03
  1.82420E+04  1.91856E+03  1.35651E+04  1.12308E+04  1.19773E+03  1.51348E+04 -9.41332E+03  1.41483E+04
 -1.04960E+04  4.97267E+03 -6.20291E+03 -7.08401E+02  1.54516E+03 -3.82108E+03  6.85366E+03 -8.43084E+02
  5.65248E+03  6.05139E+03  6.42867E+02  1.05296E+04 -6.22800E+03  9.14567E+03 -1.27075E+04  2.57275E+03
 -8.98427E+03 -6.22849E+03 -6.06483E+01 -1.16258E+04  5.89816E+03 -4.53762E+03  7.84897E+03  3.68598E+03
  1.40854E+03  8.02087E+03 -5.60329E+03  8.43914E+03 -1.18285E+04  5.07175E+03 -9.83921E+03 -3.96020E+03
 -6.02229E+03 -1.16151E+04  2.83814E+03 -1.39844E+04  1.26533E+04 -8.93073E+03  1.21800E+04  2.25126E+03
  9.47876E+03  1.03869E+04 -1.91087E+02  1.26101E+04 -8.63009E+03  6.62653E+03 -8.40197E+03 -7.92564E+02
 -7.86662E+03 -7.90819E+03 -1.17485E+03 -1.03562E+04  4.09858E+03 -8.82501E+03  5.47308E+03 -3.95397E+03
  4.84376E+03  8.25976E+02 -1.51112E+03  2.54658E+03  2.95526E+02 -1.93152E+03  1.23547E+03 -5.11713E+03
  9.34908E+03 -3.45967E+03  1.09136E+04  2.21628E+03  1.11262E+04  7.88652E+03  8.60300E+03  1.57333E+04
 -4.12477E+03  1.72707E+04 -1.51780E+04  1.40723E+04 -1.83602E+04  2.25970E+03 -1.45724E+04 -6.84979E+03
 -7.99588E+03 -1.21655E+04 -1.32518E+02 -1.12883E+04  3.36746E+03 -5.37465E+03  4.58625E+03 -4.46187E+03
  2.10902E+03 -2.20608E+03  1.98921E+03 -5.19073E+03  5.65890E+03 -2.23913E+03  6.58779E+03 -6.42946E+02
  8.23796E+03  1.55834E+03  4.38447E+03  7.07584E+03 -1.36286E+03  6.64676E+03 -7.50201E+03  5.26947E+03
 -1.07912E+04 -5.63124E+02 -6.08195E+03 -6.61274E+03 -1.80683E+03 -1.07264E+04  5.28505E+03 -1.18499E+04
  1.24767E+04 -7.74913E+03  1.39932E+04  1.05538E+03  9.39909E+03  1.03322E+04  1.94937E+03  1.33354E+04
 -6.29672E+03  1.13078E+04 -7.57044E+03  3.52336E+03 -3.13924E+03 -1.27770E+03 -2.88616E+03 -1.22388E+03
 -1.99303E+03  8.95287E+02 -1.62108E+03  3.00204E+03 -4.34069E+03  1.98210E+03 -7.17964E+03 -2.85863E+03
 -6.07941E+03 -8.03433E+03  1.49855E+03 -1.16420E+04  6.83513E+03 -8.93225E+03  9.59620E+03 -3.17439E+03
  1.06738E+04  6.43592E+03  3.31410E+03  9.73803E+03 -2.43301E+03  1.00221E+04 -8.23671E+03  5.79934E+03
 -9.14665E+03  3.29309E+01 -6.19706E+03 -7.12757E+03 -2.46442E+03 -7.55218E+03  3.95802E+03 -5.50112E+03
  5.89823E+03 -2.15077E+03  3.44470E+03  7.47117E+02  1.32558E+03  2.91830E+03  9.97060E+02  2.01698E+03
  1.94673E+03  3.16657E+02  2.15488E+03  2.02467E+03  2.97111E+03  3.39507E+03  3.19841E+03  4.20005E+03
 -8.05196E+02  8.15383E+03 -5.84355E+03  8.70163E+03 -1.02122E+04  2.68293E+03 -1.02906E+04 -4.79677E+03
 -4.75658E+03 -9.98617E+03  2.68488E+03 -9.59557E+03  6.08719E+03 -8.50283E+03  8.39747E+03 -3.03324E+03
  8.09922E+03  4.75200E+03  1.85588E+03  6.39354E+03 -2.49870E+03  4.12068E+03 -4.07382E+03 -4.71918E+01
 -1.31936E+03 -4.26572E+03  2.56220E+03 -4.77936E+03  4.57026E+03 -1.69735E+03  4.37905E+03  5.84518E+02
  1.94965E+03  2.06175E+03  5.58617E+02  9.33429E+02 -4.01490E+02  1.62643E+03  1.47061E+03 -1.48406E+03
  2.76463E+03 -5.81765E+02  5.50838E+03  2.21795E+03  2.26475E+03  5.32283E+03 -6.57431E+02  8.30997E+03
 -5.04076E+03  4.76383E+03 -6.44635E+03  2.36902E+03 -6.14705E+03 -2.65193E+03 -1.84206E+03 -3.90866E+03
  1.41565E+02 -4.19792E+03  3.23017E+03 -1.09577E+03  1.52526E+03  2.42900E+03  4.11485E+02  1.52841E+03
 -3.53388E+03  3.07326E+03 -4.44525E+03 -2.08801E+03 -2.30079E+03 -6.26397E+03  3.56945E+02 -5.48848E+03
  4.00916E+03 -2.24158E+03  4.91928E+03 -6.02978E+02  3.34174E+03  7.59075E+02 -1.02383E+03  3.42147E+03
 -1.64924E+03  1.07044E+03 -2.36178E+03 -1.42500E+03  1.58996E+03 -2.90401E+03  5.57295E+03 -3.09514E+03
  6.14137E+03  9.72657E+02  7.48427E+03  3.80642E+03  2.90347E+03  7.54162E+03 -3.24443E+03  4.47673E+03
 -4.78122E+03  2.54970E+03 -5.82602E+03 -4.67497E+02 -2.77427E+03 -4.54850E+03  6.81410E+02 -3.79030E+03
  3.21176E+03 -3.51335E+02  2.36602E+03  2.96933E+03  1.67964E+03  4.87407E+03 -1.14162E+03  2.58926E+03
 -1.73254E+03  1.70983E+03 -5.63256E+02  1.45593E+03 -2.51916E+03  9.93727E+01  1.75461E+03  1.48699E+03
 -1.93230E+03  4.45975E+03 -3.90314E+03  1.58975E+03 -8.26108E+03 -8.45546E+02 -8.40203E+03 -2.77025E+03
 -3.95825E+03 -7.87725E+03 -7.18453E+02 -9.24329E+03  4.14994E+03 -7.17884E+03  9.95631E+03 -2.04910E+03
  8.15051E+03  1.35180E+03  5.10299E+03  5.05058E+03 -9.03970E+02  4.81219E+03 -2.76111E+03  4.85094E+03
 -2.12928E+03  1.32303E+03 -1.99313E+03 -1.44142E+02 -1.21478E+03  1.69140E+02 -4.36069E+00 -7.08147E+02
 -1.19874E+03 -4.62191E+02 -1.12833E+03 -6.76186E+02  8.16487E+02 -2.28422E+03  3.47743E+02 -1.88857E+03
  2.73437E+03 -2.05676E+03  2.24689E+03  1.38326E+03  5.47664E+03  2.96134E+03  1.87234E+03  6.28764E+03
 -2.76912E+03  7.41626E+03 -4.99818E+03  5.15543E+03 -6.20272E+03 -1.33150E+03 -6.23598E+03 -4.02314E+03
 -2.16075E+03 -7.72222E+03  7.57982E+02 -6.46269E+03  4.11166E+03 -3.49030E+03  4.62935E+03  4.05598E+02
  2.54002E+03  4.05455E+02  4.55561E+02  1.40480E+03 -7.01673E+02 -8.19404E+02 -1.40990E+03 -8.73823E+02
  2.07017E+03  1.93632E+02  7.21730E+02  8.12118E+02  2.41414E+03  1.52408E+03 -7.18314E+02  3.00149E+03
 -3.35302E+03  2.76971E+03 -3.79155E+03  1.08758E+03 -3.23625E+03 -3.56161E+03 -1.37461E+03 -4.00018E+03
  3.71483E+03 -2.71390E+03  3.98591E+03 -9.59656E+02  3.59280E+03  1.71742E+03  2.76553E+03  4.17334E+03
  7.06702E+02  1.90227E+03 -1.00316E+03  3.07908E+03 -2.21440E+03  1.90262E+03 -1.50279E+03  1.05681E+03
 -3.24001E+03 -2.67279E+02 -9.49129E+02  5.20203E+02 -1.43796E+03  7.00798E+02 -3.33996E+03 -9.63373E+02
 -3.39759E+03 -2.07284E+03 -2.31260E+03 -3.14040E+03  2.66860E+03 -4.84604E+03  3.35875E+03 -2.30384E+03
  4.22561E+03  5.33740E+02  1.00841E+03  2.49936E+03  1.63949E+02  3.09954E+03 -2.74108E+03  2.03761E+03
