 $NMID ID='MM_0lb_SNR200_11hz_g40_5.RAW', FMTDAT='(8E13.5)'
 TRAMP=1., VOLUME=1. $END
  3.10246E+05  1.97081E+03  3.38499E+05  2.50928E+05  8.37357E+04  3.38297E+05 -1.32256E+05  2.51379E+05
 -1.90566E+05  8.37442E+04 -1.11422E+05 -3.29735E+04  1.24436E+03 -5.07470E+04  5.42204E+04  1.03362E+03
  3.59794E+04  5.45079E+04 -1.61465E+04  7.64381E+04 -6.14903E+04  6.40853E+04 -8.40321E+04  3.24242E+04
 -8.13161E+04 -1.17047E+04 -5.68109E+04 -5.14394E+04 -1.40166E+04 -7.03332E+04  2.77090E+04 -4.48397E+04
  4.03387E+04  2.90385E+03  1.73191E+04  4.67404E+04 -3.41597E+04  4.71391E+04 -6.63428E+04  2.47507E+02
 -5.43116E+04 -5.78646E+04 -6.25397E+03 -7.63537E+04  3.46355E+04 -5.60014E+04  4.89551E+04 -1.83770E+04
  4.48534E+04  1.12376E+04  3.27344E+04  2.64712E+04  1.55250E+04  3.04484E+04 -5.43035E+03  2.67191E+04
 -2.28249E+04  1.21936E+04 -1.77727E+04 -5.46929E+03  6.70429E+03 -7.11239E+03  2.20089E+04  1.27729E+04
  6.36742E+03  3.64959E+04 -3.30809E+04  3.66928E+04 -6.41273E+04  9.12253E+02 -5.79213E+04 -4.36088E+04
 -1.26417E+04 -6.38733E+04  4.12005E+04 -4.67829E+04  6.00043E+04 -3.06514E+03  3.49633E+04  3.44382E+04
 -5.85324E+03  3.73252E+04 -3.08144E+04  1.58857E+04 -3.08992E+04 -3.94867E+03 -1.75894E+04 -1.08943E+04
 -8.32604E+03 -1.41938E+04 -4.76711E+02 -1.81643E+04  7.47117E+03 -2.35230E+04  1.54573E+04 -1.34634E+04
  1.19568E+04  4.79996E+03 -9.10353E+03  1.20186E+04 -2.18365E+04 -5.22693E+03 -9.48688E+03 -3.58918E+04
  2.27054E+04 -4.45884E+04  5.04862E+04 -2.05985E+04  4.55322E+04  1.92300E+04  1.66278E+04  4.58490E+04
 -1.53455E+04  3.45296E+04 -2.54800E+04  2.13257E+03 -1.06472E+04 -2.86737E+04  2.09325E+04 -3.55950E+04
  4.26962E+04 -9.58243E+03  3.73093E+04  2.42164E+04  2.05562E+04  4.82275E+04 -7.62895E+03  5.29857E+04
 -3.30959E+04  3.55968E+04 -4.48233E+04  1.17196E+04 -4.53217E+04 -1.74040E+04 -2.40559E+04 -4.00553E+04
  8.26300E+03 -3.93038E+04  3.18946E+04 -1.63397E+04  3.08687E+04  1.10046E+04  4.16521E+03  2.00170E+04
 -1.33138E+04  8.78930E+03 -1.08256E+04 -7.62628E+03  4.38965E+03 -1.19565E+04  1.80919E+04  5.72350E+03
  1.30683E+04  2.20534E+04 -5.04056E+03  2.39199E+04 -2.25422E+04  1.26778E+04 -2.96466E+04 -5.11277E+03
 -2.27282E+04 -1.79119E+04 -8.63414E+03 -2.18254E+04  3.60512E+03 -2.04867E+04  1.90025E+04 -2.07627E+04
  2.70146E+04 -1.49231E+04  3.45858E+04  2.59096E+03  2.63933E+04  2.06683E+04  4.04526E+03  4.01368E+04
 -1.78670E+04  3.09655E+04 -2.91755E+04  1.17105E+04 -2.00016E+04 -1.03546E+04 -4.87552E+03 -1.37878E+04
  1.50921E+03 -3.57647E+03 -6.53566E+03  7.20287E+03 -1.71360E+04  4.97552E+03 -1.83173E+04 -9.67245E+03
 -1.01004E+04 -2.15007E+04  5.10305E+03 -2.62142E+04  1.54642E+04 -1.76410E+04  2.08663E+04 -1.04031E+03
  1.40812E+04  1.39736E+04 -2.25561E+03  2.12349E+04 -1.32162E+04  1.27282E+04 -2.05073E+04 -3.40090E+03
 -1.44891E+04 -1.72285E+04 -2.81929E+03 -2.50468E+04  1.17299E+04 -2.19169E+04  2.17990E+04 -1.06106E+04
  1.92848E+04 -7.04159E+02  1.35776E+04  4.31072E+03  7.74695E+03  1.95437E+03  1.09723E+04 -1.51129E+03
  1.89797E+04  1.44732E+03  2.24678E+04  1.73640E+04  1.69481E+04  3.40229E+04 -3.23633E+03  3.64630E+04
 -2.26636E+04  3.08594E+04 -3.57452E+04  1.69402E+04 -3.72621E+04 -3.05008E+03 -3.13934E+04 -2.25847E+04
 -1.22565E+04 -3.24730E+04  1.05173E+04 -2.76742E+04  2.39158E+04 -1.42821E+04  2.01466E+04  6.76235E+03
  6.87790E+03  1.68231E+04 -1.12957E+04  1.40150E+04 -1.76460E+04  2.39298E+03 -1.51359E+04 -9.60423E+03
 -1.17153E+03 -1.70417E+04  8.75491E+03 -1.21072E+04  1.24361E+04 -1.62054E+03  3.26896E+03  6.35210E+03
 -8.72542E+03  3.40909E+03 -7.63084E+03 -4.68210E+03 -4.62301E+02 -1.51402E+04  1.11350E+04 -1.70716E+04
  1.91974E+04 -9.69416E+03  2.10318E+04  4.59287E+03  1.93482E+04  1.67559E+04  9.01633E+03  2.45860E+04
 -3.93137E+03  2.59693E+04 -1.63774E+04  1.73016E+04 -2.02203E+04  3.48301E+03 -1.33411E+04 -4.08495E+03
 -5.97272E+03 -7.34173E+03 -6.45960E+02  8.94906E+02 -2.12085E+03  2.65969E+03 -7.07664E+03  3.79239E+03
 -1.17045E+04 -4.00206E+02 -1.16002E+04 -1.03886E+04 -5.53235E+03 -1.56531E+04  4.61519E+03 -1.31063E+04
  1.16441E+04 -5.33091E+03  6.89871E+03  4.00514E+03 -7.01655E+02  4.01952E+03 -7.09262E+03 -3.07229E+02
 -5.62475E+03 -9.47582E+03 -1.35127E+03 -1.20807E+04  7.05954E+03 -1.52266E+04  1.56517E+04 -6.63884E+03
  1.79473E+04  1.48868E+03  1.39778E+04  1.18883E+04  2.89907E+03  1.61834E+04 -8.58035E+03  1.31198E+04
 -1.00952E+04  3.27499E+03 -5.91331E+03 -1.69961E+03  3.08022E+03 -1.73474E+03  7.81519E+03 -4.26316E+02
  6.87978E+03  3.98682E+03  2.24602E+03  1.00927E+04 -7.32243E+03  9.58256E+03 -1.23436E+04  1.98011E+03
 -7.94823E+03 -6.59136E+03  7.26338E+01 -1.08139E+04  6.98927E+03 -4.99086E+03  6.22819E+03  3.33531E+03
  1.86852E+03  8.29016E+03 -6.09817E+03  8.87069E+03 -9.82985E+03  3.53579E+03 -1.04601E+04 -4.93036E+03
 -5.43660E+03 -1.25641E+04  2.90821E+03 -1.56643E+04  1.15108E+04 -8.52605E+03  1.35347E+04  2.33639E+03
  7.87511E+03  9.16277E+03 -1.15057E+03  1.24108E+04 -8.43706E+03  7.97597E+03 -1.09678E+04 -1.09570E+02
 -1.01387E+04 -8.41933E+03 -2.49363E+03 -9.94851E+03  4.36741E+03 -7.97806E+03  5.80030E+03 -3.90848E+03
  4.34028E+03  1.12995E+03 -1.34428E+03  3.75363E+03  1.84559E+02 -2.02897E+03  1.45564E+03 -6.10150E+03
  8.11718E+03 -2.52784E+03  1.15355E+04  2.28097E+02  1.30420E+04  8.36770E+03  9.56551E+03  1.65152E+04
 -3.47475E+03  1.79287E+04 -1.66312E+04  1.52382E+04 -1.97382E+04  3.79981E+03 -1.56423E+04 -6.36127E+03
 -8.41829E+03 -1.28964E+04  2.15164E+02 -1.08858E+04  6.31407E+03 -6.37356E+03  4.24413E+03 -4.23189E+03
  3.08129E+03 -2.73180E+03  2.56716E+03 -4.25145E+03  5.79661E+03 -2.61346E+03  6.02552E+03 -1.34342E+03
  9.17309E+03  2.49860E+03  5.05368E+03  7.40571E+03 -2.99128E+03  8.78813E+03 -8.43922E+03  5.31200E+03
 -1.04307E+04 -9.14849E+02 -6.94023E+03 -8.32314E+03 -7.66966E+01 -1.29954E+04  7.23713E+03 -1.03972E+04
  1.19652E+04 -5.93025E+03  1.54961E+04  1.34860E+03  1.10885E+04  1.03754E+04  2.66501E+03  1.46825E+04
 -5.05682E+03  1.13820E+04 -7.47982E+03  4.17313E+03 -6.97560E+03 -1.44761E+02 -2.84085E+03 -1.64090E+03
  8.66669E+01  1.48500E+03 -5.96637E+02  1.52544E+03 -3.79720E+03  2.16942E+03 -8.30588E+03 -1.96496E+03
 -5.62814E+03 -8.22242E+03  3.10252E+02 -1.11516E+04  6.59223E+03 -1.08125E+04  1.09071E+04 -1.37245E+03
  1.05732E+04  5.52755E+03  4.77347E+03  8.81854E+03 -2.47513E+03  1.10161E+04 -7.20965E+03  6.37189E+03
 -1.07085E+04  1.91608E+03 -8.84032E+03 -5.67115E+03 -9.91243E+02 -8.50397E+03  3.93838E+03 -6.26234E+03
  6.23570E+03 -1.08912E+03  4.77248E+03 -7.38717E+02  1.98810E+03  2.04278E+03  5.46391E+02  1.84744E+03
  3.23107E+03 -2.29924E+02  2.40468E+03  8.03954E+02  2.85545E+03  4.67812E+03  3.52027E+03  6.43090E+03
 -2.09090E+03  9.01127E+03 -8.30282E+03  9.04204E+03 -1.17000E+04  3.13375E+03 -1.27695E+04 -3.27038E+03
 -4.82316E+03 -1.13228E+04  1.90369E+02 -1.24429E+04  5.52651E+03 -6.56064E+03  9.69390E+03 -1.50108E+03
  7.20536E+03  3.45859E+03  3.89095E+03  5.87597E+03 -2.78706E+03  4.19429E+03 -4.60878E+03 -2.20478E+02
 -2.52505E+03 -5.42035E+03  1.88047E+03 -4.72359E+03  4.30965E+03 -2.62119E+03  5.27205E+03  7.77598E+02
  2.84506E+03  1.27167E+03  1.61517E+03  2.27635E+03 -9.96273E+02  2.00818E+03  2.74487E+03  1.26729E+03
  8.55488E+02 -3.23643E+02  4.59390E+03  2.93517E+03  9.86215E+02  5.86314E+03 -1.84644E+03  6.81955E+03
 -5.28232E+03  5.14250E+03 -5.68681E+03  2.25428E+03 -5.07360E+03 -2.84492E+03 -1.17192E+03 -3.29448E+03
  6.99606E+02 -4.06561E+03  2.84080E+03 -1.10207E+03  2.61355E+03  1.28013E+03 -2.70912E+03  4.51160E+03
 -4.42302E+03  2.71357E+03 -5.31418E+03 -2.31322E+03 -4.60555E+03 -6.34581E+03  9.78890E+02 -5.48204E+03
  3.59479E+03 -3.26532E+03  3.57291E+03 -1.28932E+03  3.08937E+03  2.07401E+03  1.85180E+03  3.21876E+03
 -1.93283E+03  7.46997E+02 -2.16099E+03 -9.49825E+02  1.28256E+03 -3.20748E+03  5.78104E+03 -3.08297E+03
  7.57466E+03  1.46952E+03  7.45707E+03  4.43542E+03  2.02584E+03  6.83867E+03 -3.41641E+03  5.01119E+03
 -4.16156E+03  3.83848E+03 -6.68752E+03 -1.32435E+03 -2.21046E+03 -4.65112E+03  9.42360E+01 -3.49050E+03
  5.07095E+03 -1.65013E+03  3.53527E+03  1.02675E+03  2.41678E+03  3.97875E+03 -7.29494E+02  2.91637E+03
 -3.25081E+03  2.88243E+03 -2.00184E+03  1.23940E+03 -5.12551E+02  1.78957E+03 -1.04996E+03  6.41849E+02
 -2.55677E+03  3.03127E+03 -3.76873E+03  2.11702E+03 -7.69802E+03  3.36585E+01 -6.92662E+03 -5.72120E+03
 -4.59671E+03 -7.93804E+03  5.34143E+02 -9.65378E+03  6.07110E+03 -8.37232E+03  1.02433E+04 -3.24625E+03
  9.61580E+03  2.10883E+03  6.06156E+03  5.51195E+03  9.45033E+02  6.16811E+03 -2.78720E+03  6.47833E+03
 -3.03059E+03  2.81100E+03 -2.38264E+03 -5.25711E+02 -2.11693E+03  3.78789E+02 -5.76858E+02 -1.32742E+03
 -2.15863E+03  3.01622E+02 -1.94653E+03  1.67706E+02 -8.47948E+02 -1.91733E+03  6.20719E+02 -2.30058E+03
  3.38165E+03 -2.65358E+03  4.26977E+03  9.42252E+02  4.08156E+03  3.20640E+03  1.20650E+03  6.13377E+03
 -2.64214E+03  6.90889E+03 -7.13371E+03  3.91484E+03 -8.14497E+03 -4.50206E+02 -7.03549E+03 -4.90103E+03
 -1.93539E+03 -6.68981E+03  1.92843E+03 -6.38824E+03  2.72024E+03 -3.05686E+03  4.46478E+03  2.07429E+01
  2.35284E+03  2.16186E+03  3.09758E+02  2.21318E+03 -1.30375E+03 -1.11394E+02 -6.85051E+01 -5.26381E+02
  1.51694E+03 -1.15855E+03  2.85348E+03  8.95463E+02  2.96281E+03  2.67700E+03 -1.38822E+02  4.16831E+03
 -1.28698E+03  3.59912E+03 -4.61207E+03  3.88965E+02 -4.38244E+03 -2.88893E+03  4.71725E+02 -4.62476E+03
  4.17519E+03 -3.99393E+03  5.35500E+03 -1.73502E+03  4.46903E+03  1.38020E+03  1.90348E+03  4.45003E+03
 -1.45772E+02  5.43872E+03 -1.01401E+03  2.69148E+03 -1.92995E+03  2.08042E+03 -5.84610E+02  1.43986E+03
 -1.06688E+03 -1.33329E+02 -6.32704E+02 -1.13469E+03 -2.58148E+03  8.12103E+02 -4.60953E+03 -1.98666E+03
 -3.33463E+03 -1.60376E+03 -2.07960E+03 -4.63431E+03  2.17947E+03 -4.44051E+03  4.02706E+03 -1.73614E+03
  4.69616E+03 -6.25049E+02  1.13901E+03  1.37124E+03 -4.18302E+02  5.17743E+03 -2.44961E+03  2.41709E+03
