 $NMID ID='MM_0lb_SNR200_15hz_g50_29.RAW', FMTDAT='(8E13.5)'
 TRAMP=1., VOLUME=1. $END
  3.10634E+05 -9.03909E+02  3.37065E+05  2.50665E+05  8.28143E+04  3.37564E+05 -1.32933E+05  2.50524E+05
 -1.89814E+05  8.31644E+04 -1.11707E+05 -3.18634E+04  9.57468E+02 -4.98846E+04  5.52754E+04 -5.76607E+01
  3.44937E+04  5.28927E+04 -1.71069E+04  7.54662E+04 -6.15726E+04  6.35480E+04 -8.46204E+04  3.12527E+04
 -8.07617E+04 -1.16384E+04 -5.72961E+04 -5.24077E+04 -1.58224E+04 -6.91752E+04  2.77638E+04 -4.66028E+04
  4.01159E+04  5.01642E+03  1.59936E+04  4.76391E+04 -3.42792E+04  4.72562E+04 -6.68893E+04 -1.25728E+03
 -5.30107E+04 -5.69579E+04 -6.48743E+03 -7.63895E+04  3.39510E+04 -5.48942E+04  4.73118E+04 -1.61695E+04
  4.43262E+04  1.10735E+04  3.19878E+04  2.51123E+04  1.56703E+04  2.83852E+04 -5.33482E+03  2.67482E+04
 -2.23435E+04  1.27986E+04 -1.85965E+04 -4.29222E+03  5.90575E+03 -6.60154E+03  2.20520E+04  1.15478E+04
  7.99374E+03  3.50142E+04 -3.09984E+04  3.57561E+04 -6.34361E+04  2.88121E+03 -5.67366E+04 -4.29525E+04
 -1.29402E+04 -6.28217E+04  3.97330E+04 -4.55737E+04  5.79234E+04 -2.29223E+03  3.42481E+04  3.18398E+04
 -7.40814E+03  3.59114E+04 -3.03093E+04  1.42946E+04 -3.07041E+04 -4.41262E+03 -1.72292E+04 -1.14281E+04
 -7.64555E+03 -1.25983E+04 -1.15470E+03 -1.76119E+04  8.70742E+03 -2.37972E+04  1.44133E+04 -1.49787E+04
  1.05661E+04  4.17143E+03 -7.46748E+03  1.28565E+04 -2.07644E+04 -4.30206E+03 -9.22360E+03 -3.35964E+04
  2.22603E+04 -4.28356E+04  4.81598E+04 -1.88479E+04  4.53451E+04  2.00637E+04  1.64200E+04  4.43021E+04
 -1.61569E+04  3.29846E+04 -2.60126E+04  1.25642E+03 -9.93725E+03 -2.78611E+04  2.12203E+04 -3.34689E+04
  4.04648E+04 -8.10044E+03  3.49845E+04  2.34489E+04  1.84947E+04  4.69617E+04 -7.47335E+03  4.89375E+04
 -3.01340E+04  3.27861E+04 -4.17100E+04  1.03454E+04 -4.20163E+04 -1.81456E+04 -2.27328E+04 -3.92797E+04
  7.25796E+03 -3.61001E+04  3.16125E+04 -1.55527E+04  2.93877E+04  1.19995E+04  3.75122E+03  1.85048E+04
 -1.34158E+04  7.87872E+03 -1.03824E+04 -8.29158E+03  5.36598E+03 -1.04223E+04  1.86457E+04  6.24528E+03
  1.35481E+04  2.16571E+04 -6.29218E+03  2.58943E+04 -2.28354E+04  1.00989E+04 -2.69724E+04 -4.69281E+03
 -2.07997E+04 -1.68421E+04 -8.73883E+03 -1.93656E+04  4.01159E+03 -1.81116E+04  1.49414E+04 -1.94230E+04
  2.54826E+04 -1.29866E+04  3.13131E+04  1.81203E+03  2.39150E+04  1.90158E+04  2.92339E+03  3.52458E+04
 -1.71316E+04  2.94949E+04 -2.66530E+04  1.10891E+04 -1.96748E+04 -9.15193E+03 -3.51591E+03 -1.40480E+04
  1.15242E+03 -3.18578E+03 -3.83513E+03  5.66126E+03 -1.57939E+04  5.44651E+03 -1.59019E+04 -5.77902E+03
 -9.56529E+03 -1.90027E+04  4.57555E+03 -2.34137E+04  1.37297E+04 -1.58545E+04  1.85516E+04 -1.55867E+03
  1.10395E+04  1.28413E+04 -1.49304E+03  1.79317E+04 -1.30650E+04  1.17546E+04 -1.88353E+04 -5.18173E+03
 -1.35899E+04 -1.76554E+04 -5.44170E+02 -2.04780E+04  9.75252E+03 -1.76541E+04  1.85654E+04 -8.69480E+03
  1.63121E+04  3.64283E+02  1.22331E+04  5.31021E+03  6.01343E+03  1.40967E+03  7.95463E+03 -1.07514E+03
  1.63252E+04  2.58563E+03  1.86664E+04  1.38523E+04  1.22579E+04  3.01906E+04 -2.45890E+03  3.19216E+04
 -2.00860E+04  2.50133E+04 -3.09209E+04  1.37524E+04 -3.19454E+04 -2.24067E+03 -2.81078E+04 -1.86510E+04
 -1.06977E+04 -2.61610E+04  9.20987E+03 -2.37480E+04  2.02854E+04 -1.30516E+04  1.84183E+04  4.41549E+03
  6.87383E+03  1.33909E+04 -8.28736E+03  1.20736E+04 -1.46415E+04  1.81946E+03 -1.09956E+04 -8.58818E+03
 -4.01324E+02 -1.53748E+04  6.51320E+03 -1.09671E+04  9.26519E+03 -1.17707E+03  1.11286E+03  6.27069E+03
 -6.02761E+03  2.89337E+03 -5.96307E+03 -5.76166E+03 -5.69073E+02 -1.27873E+04  9.69923E+03 -1.36419E+04
  1.62957E+04 -6.01602E+03  1.60183E+04  3.73961E+03  1.34522E+04  1.28276E+04  7.10886E+03  1.97497E+04
 -3.39383E+03  2.10543E+04 -1.33955E+04  1.27323E+04 -1.54037E+04  2.52738E+03 -1.07192E+04 -2.20028E+03
 -4.54300E+03 -4.53189E+03 -4.56105E+02  1.66569E+02 -2.21155E+03  1.34747E+03 -4.24744E+03  4.19380E+03
 -9.71113E+03 -9.12331E+02 -1.00197E+04 -9.05879E+03 -4.46569E+03 -1.34104E+04  3.61940E+03 -1.14131E+04
  9.03376E+03 -3.67886E+03  6.06684E+03  2.30671E+03  9.92189E+01  4.36429E+03 -5.48317E+03  5.54700E+01
 -5.35110E+03 -6.22421E+03 -5.90855E+02 -1.01952E+04  5.96182E+03 -1.06305E+04  1.31590E+04 -5.58278E+03
  1.59478E+04  1.48602E+03  1.09774E+04  8.98479E+03  2.60282E+03  1.06492E+04 -6.99676E+03  9.19248E+03
 -8.16442E+03  2.96296E+03 -4.36302E+03 -2.13758E+03  1.30290E+02 -3.29455E+03  6.55732E+03 -8.27640E+02
  4.49775E+03  4.27827E+03  1.87019E+02  7.03577E+03 -5.15202E+03  7.30946E+03 -1.09848E+04  1.17526E+03
 -6.44542E+03 -4.32923E+03  1.31601E+02 -8.28795E+03  5.58918E+03 -4.45839E+03  5.46708E+03  2.29869E+03
 -4.36119E+01  5.38242E+03 -5.50145E+03  5.57414E+03 -7.39612E+03  2.96985E+03 -7.60248E+03 -1.20541E+03
 -4.73111E+03 -9.05117E+03  2.80699E+03 -8.76286E+03  8.69500E+03 -5.87551E+03  9.79236E+03  1.39761E+03
  5.50706E+03  7.38592E+03  1.32537E+03  1.03876E+04 -6.37966E+03  6.54066E+03 -7.67587E+03 -1.11092E+03
 -6.35365E+03 -7.63842E+03 -2.11700E+03 -7.26557E+03  2.79469E+03 -5.77936E+03  5.00231E+03 -2.70896E+03
  3.29565E+03  1.33762E+03 -8.70703E+02  1.35576E+03  1.22286E+03 -3.22094E+02  6.86215E+02 -3.87862E+03
  6.61027E+03 -1.28772E+03  9.30390E+03 -4.10769E+02  8.92904E+03  6.09286E+03  6.61728E+03  1.07072E+04
 -3.77945E+03  1.22144E+04 -1.15591E+04  9.30639E+03 -1.33404E+04  1.94629E+03 -1.16854E+04 -5.11838E+03
 -5.69116E+03 -9.19272E+03 -9.01318E+02 -7.77492E+03  3.33193E+03 -4.34340E+03  3.59880E+03 -3.73243E+03
  2.21314E+03 -1.14475E+03  2.68430E+03 -3.02142E+03  3.79885E+03 -1.82732E+03  4.76414E+03 -1.02927E+03
  6.11023E+03  1.03345E+03  2.75628E+03  4.46575E+03 -1.59899E+03  5.42544E+03 -6.44556E+03  3.84001E+03
 -8.25133E+03 -1.96527E+03 -5.41596E+03 -6.25609E+03  3.09726E+02 -7.59966E+03  4.79355E+03 -8.31330E+03
  7.39534E+03 -4.29658E+03  1.01675E+04  2.06702E+02  6.91601E+03  6.25760E+03  9.54068E+02  9.21267E+03
 -3.97480E+03  7.92340E+03 -4.31587E+03  1.30162E+03 -3.65419E+03 -9.67455E+02 -1.38429E+03 -8.58408E+02
 -6.69205E+02 -1.41970E+03 -1.32918E+03  1.89202E+03 -3.41590E+03  1.64492E+03 -4.65679E+03 -5.72857E+02
 -2.40353E+03 -4.99910E+03  8.08380E+02 -7.80909E+03  3.35971E+03 -6.85759E+03  7.05145E+03 -2.07135E+03
  5.65169E+03  3.62968E+03  2.23885E+03  7.10590E+03 -1.32461E+03  6.37939E+03 -5.93406E+03  5.61522E+03
 -6.29474E+03  6.03516E+02 -5.81610E+03 -2.63208E+03  6.20873E+02 -5.68871E+03  2.39599E+03 -3.22497E+03
  3.80067E+03 -2.58304E+03  1.99818E+03  1.78546E+03  1.36588E+03  2.41231E+03  1.93854E+03  5.54904E+02
  2.98550E+03  2.19751E+03  1.01924E+03  1.16373E+03  1.86095E+03  3.75898E+03  2.44020E+03  2.69303E+03
 -2.25049E+03  6.92668E+03 -4.75625E+03  5.78918E+03 -5.73615E+03  1.81675E+03 -6.95238E+03 -2.05813E+03
 -3.60758E+03 -6.59095E+03  1.51440E+03 -8.09039E+03  3.06902E+03 -3.82462E+03  6.07150E+03 -1.85401E+03
  4.67566E+03  2.17000E+03  2.81639E+02  3.23782E+03 -1.66791E+03  2.43174E+03 -1.45810E+03 -4.52422E+01
 -1.38573E+03 -3.09963E+03  1.58711E+03 -2.73215E+03  1.77588E+03 -2.35260E+03  2.91832E+03  1.00988E+03
  1.84052E+03  2.10214E+03  6.09673E+02  5.99335E+02  4.75678E+02  1.79351E+03  2.01295E+03 -2.03468E+03
  1.17162E+03  1.05277E+02  2.83486E+03  1.56214E+03  1.97873E+02  3.68293E+03 -6.83389E+02  4.43390E+03
 -3.89047E+03  2.29090E+03 -2.77670E+03  6.93293E+02 -4.36475E+03 -1.73072E+03 -9.16179E+02 -1.05076E+03
  2.24160E+03 -1.81042E+03  1.74766E+03 -3.18509E+02  2.48614E+03  2.02612E+03 -1.02445E+03  1.63354E+03
 -2.89616E+03  8.36218E+02 -1.97993E+03 -2.18581E+03 -9.86280E+02 -4.10752E+03 -4.14982E+02 -2.52638E+03
  9.71273E+02 -2.34624E+03  1.74884E+03  1.03528E+03  2.27165E+03  4.61203E+01 -6.22095E+02  2.29918E+03
 -9.66948E+02  9.16946E+02 -1.16595E+03 -8.41556E+02  1.12735E+03 -1.86785E+03  2.16892E+03 -2.07948E+03
  5.60088E+03  7.16398E+02  5.21715E+03  1.50493E+03  1.43638E+03  3.38171E+03 -1.51323E+03  4.47256E+03
 -3.11096E+03  1.86560E+03 -2.89511E+03 -6.66768E+02 -1.18565E+03 -2.52745E+03 -4.04207E+01 -1.21076E+03
  1.70245E+03 -1.51953E+03  1.96374E+03  4.71029E+02 -9.03902E+01  2.00897E+03 -1.10580E+03  1.45583E+03
 -7.88836E+02  1.59033E+03 -1.71150E+03 -3.60584E+01 -7.95203E+02  3.27138E+02 -1.68446E+03  1.08220E+03
 -4.22645E+02  2.17195E+03 -4.27196E+03  1.35581E+03 -3.27949E+03 -6.78757E+02 -3.47618E+03 -2.44132E+03
 -1.49988E+03 -5.55509E+03  2.40869E+03 -5.58320E+03  1.61157E+03 -4.48894E+03  5.24570E+03 -2.47654E+03
  5.34578E+03  4.33286E-02  2.12436E+03  2.96161E+03  3.98464E+02  3.47985E+03 -1.43124E+03  2.67613E+03
 -2.33248E+03  4.55487E+02 -2.37554E+02  3.79957E+02 -1.12092E+03 -4.16250E+02 -7.40198E+02 -2.02977E+02
 -2.21342E+03 -2.68385E+02 -1.65493E+03  3.81515E+01 -7.86758E+02 -3.35322E+02  2.64363E+02 -1.60036E+03
  2.00711E+03 -8.38962E+02  5.66264E+02 -6.65868E+02  1.42278E+03  2.05542E+03 -3.13168E+02  2.68982E+03
 -1.61173E+03  3.87215E+03 -4.13609E+03  2.85158E+03 -3.93100E+03 -7.92750E+02 -2.09906E+03 -1.77020E+03
 -2.00897E+03 -3.93799E+03 -8.32206E+01 -3.07601E+03  1.35779E+03 -1.24199E+03  1.99425E+03  1.42015E+03
  3.44817E+02  3.99840E+02  1.33019E+02  2.40141E+03 -1.52654E+03  1.53750E+02  1.30629E+03 -1.15892E+03
  4.19076E+02 -1.85875E+02  6.29583E+02  7.98167E+02 -9.12107E+01  1.02135E+02  8.33072E+02  1.79323E+03
 -2.56359E+03  4.56360E+01 -1.10899E+03  6.53945E+02 -1.43384E+03 -1.81978E+03 -3.80300E+02 -2.45017E+03
  2.41130E+03 -2.38294E+03  1.67629E+03 -2.17121E+02  1.05352E+03  8.28306E+02  5.70889E+02  9.03688E+02
  1.42498E+03  1.95185E+03 -1.59097E+02  1.45785E+02 -1.04886E+03  1.16436E+03 -9.36943E+02 -7.81274E+02
 -1.35585E+03 -1.55122E+02 -3.79853E+02  1.03711E+02 -1.60893E+02 -2.09639E+02 -1.51955E+03 -1.47561E+03
 -2.08628E+03 -3.16905E+02 -9.31607E+02 -2.80964E+03  2.91088E+02 -1.70401E+03  9.91134E+02 -1.75634E+03
  1.96508E+03  1.16196E+02  9.85709E+02  1.11380E+03  1.67169E+02  2.19561E+03 -1.43347E+03  6.30590E+02
