 $NMID ID='MM_0lb_SNR200_20hz_g40_29.RAW', FMTDAT='(8E13.5)'
 TRAMP=1., VOLUME=1. $END
  3.09071E+05  2.26355E+02  3.36547E+05  2.50079E+05  8.49835E+04  3.36999E+05 -1.31987E+05  2.49394E+05
 -1.89371E+05  8.20914E+04 -1.11120E+05 -3.33752E+04  8.07536E+02 -4.99567E+04  5.31830E+04  9.25183E+02
  3.46077E+04  5.35824E+04 -1.75577E+04  7.45789E+04 -6.00294E+04  6.25157E+04 -8.24196E+04  3.11894E+04
 -7.86953E+04 -1.22260E+04 -5.48152E+04 -5.08086E+04 -1.51426E+04 -6.62048E+04  2.51885E+04 -4.55124E+04
  3.90495E+04  3.53459E+03  1.56525E+04  4.75553E+04 -3.38442E+04  4.56606E+04 -6.41960E+04 -6.59788E+02
 -4.92703E+04 -5.67981E+04 -6.54782E+03 -7.22497E+04  3.27738E+04 -5.22743E+04  4.54589E+04 -1.59353E+04
  4.12935E+04  1.09320E+04  3.05818E+04  2.36041E+04  1.58794E+04  2.77003E+04 -3.58679E+03  2.64613E+04
 -2.12538E+04  1.24629E+04 -1.84646E+04 -3.11696E+03  4.27707E+03 -7.21777E+03  2.11570E+04  1.00221E+04
  8.49288E+03  3.18898E+04 -2.90729E+04  3.33915E+04 -5.97676E+04  1.94516E+03 -5.42408E+04 -4.02424E+04
 -1.33250E+04 -5.93188E+04  3.66882E+04 -4.24192E+04  5.34981E+04 -1.48016E+03  3.02393E+04  2.92900E+04
 -7.01036E+03  3.11271E+04 -2.74713E+04  1.22349E+04 -2.63149E+04 -6.16330E+03 -1.30361E+04 -1.03808E+04
 -6.95089E+03 -1.01543E+04 -1.77140E+03 -1.60914E+04  4.71015E+03 -2.23752E+04  1.50757E+04 -1.45917E+04
  1.35192E+04  4.08238E+03 -5.26851E+03  1.22091E+04 -1.83707E+04 -1.65268E+03 -8.69870E+03 -2.90140E+04
  1.92419E+04 -3.92082E+04  4.18132E+04 -1.78528E+04  4.02306E+04  1.78165E+04  1.43859E+04  4.06465E+04
 -1.50844E+04  2.97819E+04 -2.19910E+04  2.71578E+02 -7.70390E+03 -2.55380E+04  1.96706E+04 -2.92239E+04
  3.66185E+04 -6.49837E+03  2.93973E+04  2.26881E+04  1.43217E+04  4.08139E+04 -8.13454E+03  4.20932E+04
 -2.63990E+04  2.80364E+04 -3.53471E+04  7.38924E+03 -3.72509E+04 -1.41392E+04 -1.98148E+04 -3.24726E+04
  7.23876E+03 -3.25458E+04  2.74719E+04 -1.15076E+04  2.50177E+04  1.08943E+04  3.05057E+03  1.71287E+04
 -1.20191E+04  6.74920E+03 -9.92830E+03 -7.34030E+03  5.23958E+03 -1.02324E+04  1.77004E+04  6.82870E+03
  1.22021E+04  2.18490E+04 -6.32104E+03  2.30717E+04 -2.14558E+04  7.23654E+03 -2.34039E+04 -6.76393E+03
 -1.51661E+04 -1.61220E+04 -4.15896E+03 -1.54337E+04  3.43757E+03 -1.19250E+04  1.13697E+04 -1.22499E+04
  1.89459E+04 -1.10285E+04  2.60913E+04  5.31251E+02  2.10536E+04  1.50125E+04  3.81268E+03  3.05325E+04
 -1.62402E+04  2.66314E+04 -2.43836E+04  8.66807E+03 -1.83069E+04 -1.03809E+04 -3.00477E+03 -1.41912E+04
  2.86131E+03 -3.96099E+03 -1.82027E+03  4.08269E+03 -1.09239E+04  5.04307E+03 -1.03140E+04 -4.18689E+03
 -8.37743E+03 -1.42480E+04  4.43292E+03 -1.81125E+04  1.18196E+04 -1.28750E+04  1.23107E+04 -1.59086E+03
  8.27074E+03  9.64631E+03 -1.03894E+03  1.35659E+04 -8.51965E+03  8.13726E+03 -1.40619E+04 -2.14926E+03
 -1.03125E+04 -1.26584E+04 -1.44347E+03 -1.66211E+04  8.14693E+03 -1.39114E+04  1.54571E+04 -6.87176E+03
  1.32661E+04  9.98760E+02  9.92666E+03  3.09627E+03  4.93458E+03  3.00848E+02  7.29734E+03 -1.66222E+03
  1.27472E+04  3.10343E+03  1.40654E+04  1.12090E+04  6.46469E+03  2.16634E+04 -3.27100E+03  2.42765E+04
 -1.42731E+04  1.78279E+04 -2.05194E+04  7.70775E+03 -2.06299E+04 -2.45786E+03 -1.79505E+04 -1.22273E+04
 -9.46347E+03 -1.83839E+04  5.44153E+03 -1.67412E+04  1.51451E+04 -1.05995E+04  1.42695E+04  3.21161E+03
  6.10447E+03  1.04682E+04 -6.56174E+03  9.22371E+03 -1.19172E+04  2.16104E+03 -9.80286E+03 -7.03554E+03
 -2.27709E+02 -1.09708E+04  6.10797E+03 -9.09107E+03  6.82415E+03 -1.27936E+03  5.06336E+02  3.54988E+03
 -4.38803E+03  1.28394E+03 -3.63707E+03 -3.45057E+03  1.05243E+03 -9.03198E+03  7.14730E+03 -7.58030E+03
  1.00401E+04 -3.44035E+03  9.77234E+03  2.94827E+03  8.45193E+03  8.27760E+03  3.96391E+03  1.30550E+04
 -1.99235E+03  1.40899E+04 -8.87621E+03  8.42811E+03 -9.73128E+03  2.36316E+03 -7.21477E+03 -1.54954E+03
 -3.29036E+03 -2.43554E+03 -3.72212E+02  2.44887E+03 -1.73704E+03  3.14762E+02 -3.04681E+03  2.13035E+03
 -7.25845E+03 -3.34048E+02 -7.53834E+03 -6.67951E+03 -4.29614E+03 -1.00856E+04  3.18399E+03 -7.62064E+03
  6.39907E+03 -4.07487E+03  4.76048E+03  2.05980E+03  5.87619E+02  2.99733E+03 -2.37136E+03 -2.77114E+02
 -3.17221E+03 -4.25757E+03 -7.35118E+02 -5.14823E+03  3.09713E+03 -7.14554E+03  8.08976E+03 -3.22419E+03
  1.02673E+04  1.03813E+02  7.41560E+03  4.54115E+03  1.42492E+03  6.27299E+03 -4.60348E+03  7.40659E+03
 -5.76208E+03  3.06706E+03 -3.40950E+03 -9.07713E+02  1.38181E+03 -2.25879E+03  3.83955E+03 -2.32258E+03
  3.63724E+03  2.89610E+03  8.73584E+02  5.46272E+03 -3.85519E+03  4.83083E+03 -6.75851E+03  9.51673E+02
 -4.86745E+03 -2.80755E+03 -3.13270E+00 -5.63261E+03  3.17476E+03 -4.22397E+03  2.73215E+03  1.13982E+03
  8.81828E+02  2.43510E+03 -3.48660E+03  3.86636E+03 -4.70977E+03  2.33066E+03 -2.59037E+03 -6.44165E+02
 -2.61875E+03 -5.34704E+03  8.31596E+02 -6.23198E+03  4.42775E+03 -4.78714E+03  5.78320E+03  4.80945E+02
  3.54865E+03  4.51443E+03  1.14886E+02  5.94768E+03 -4.22273E+03  2.88063E+03 -4.36454E+03 -6.46923E+02
 -5.00224E+03 -4.75644E+03 -9.55385E+02 -4.18207E+03  1.64237E+03 -3.65122E+03  1.55619E+03 -3.74147E+03
  1.61713E+03 -8.01443E+02 -1.82195E+02  6.53104E+02  1.54798E+02 -4.12209E+02 -4.46042E+02 -2.06918E+03
  2.16941E+03 -1.15609E+03  3.88275E+03  5.10338E+02  3.87484E+03  2.69190E+03  4.92784E+03  6.21618E+03
 -8.31906E+02  6.25561E+03 -6.59816E+03  5.63177E+03 -8.21513E+03  3.28966E+02 -5.35773E+03 -2.03922E+03
 -3.95109E+03 -5.76487E+03 -1.07803E+02 -4.04441E+03  4.80058E+02 -1.38770E+03  1.57808E+03 -2.66965E+03
  1.06635E+03 -1.69081E+03  1.51498E+03 -2.37018E+03  2.70654E+03 -8.01457E+02  2.47345E+03  1.66566E+03
  3.85386E+03  1.87181E+03  1.15062E+03  1.83348E+03 -1.78307E+03  2.60404E+03 -3.25815E+03  2.02412E+03
 -3.87333E+03 -1.70379E+03 -8.96451E+02 -3.03432E+03 -6.65388E+01 -4.94061E+03  2.55794E+03 -4.46222E+03
  2.26956E+03 -2.96741E+03  5.73874E+03 -5.91835E+01  4.41293E+03  2.15152E+03  1.26370E+03  5.57018E+03
 -1.15584E+03  4.68228E+03 -3.94057E+03  6.23707E+02 -9.74005E+02 -5.14898E+01 -3.52376E+01  2.48418E+01
 -3.28463E+02 -1.81034E+02 -2.18878E+02  2.43267E+03 -2.33313E+03  1.30197E+03 -3.01788E+03 -3.71842E+02
 -3.05669E+02 -3.35512E+03  1.32692E+03 -4.22716E+03  1.75146E+03 -4.29818E+03  2.25049E+03 -8.97890E+02
  2.70109E+03  1.80120E+03  1.65966E+03  2.20582E+03 -8.92960E+02  3.08141E+03 -1.73789E+03  2.71040E+03
 -2.72503E+03  1.00231E+03 -4.01733E+03 -1.59894E+03 -6.85036E+02 -2.55827E+03  4.50813E+02 -2.25786E+03
  2.66953E+03 -1.33561E+03  5.27049E+02  4.57485E+02 -4.89775E+02  1.11678E+03 -7.55794E+01  6.47766E+02
  1.91027E+03  1.38590E+03  7.14672E+02  9.27583E+02  4.17303E+02  1.54639E+03  3.54151E+02  1.32939E+03
 -1.70783E+03  2.31473E+03 -1.87738E+03  3.65260E+03 -2.86936E+03  9.03000E+02 -3.73250E+03 -2.37998E+02
  1.58190E+02 -3.42438E+03 -4.31492E+02 -2.84686E+03  1.28626E+03 -1.27789E+03  2.13735E+03 -8.13064E+02
  2.82511E+03  3.85329E+02  1.33346E+03  9.68347E+02 -8.12806E+02  1.90413E+02  1.05896E+03 -4.86147E+02
  9.71175E+02 -1.07014E+03  5.26291E+02 -1.99644E+03  1.64932E+03 -7.37784E+02  6.32442E+02  6.00248E+02
  4.68718E+02  9.97929E+01  1.84389E+03  6.40199E+02 -7.83185E+02 -7.67006E+01  1.00076E+03  1.06657E+03
 -4.60865E+02 -1.97120E+02  1.71419E+03  7.15125E+02 -4.75449E+01  2.26025E+03 -1.00216E+03  1.61091E+03
 -1.22175E+03  1.40083E+03 -1.82983E+03 -2.19874E+02 -1.24082E+03 -2.64844E+02 -3.65951E+02  3.66049E+00
  3.85075E+02 -8.31662E+02  1.94102E+02 -2.89515E+02 -7.73686E+02  1.04075E+03 -6.88567E+02  2.90300E+02
 -1.86934E+03  7.50731E+02 -9.07491E+02 -8.28823E+02 -3.33270E+02 -1.81883E+03  1.29053E+03 -1.64445E+03
  6.35136E+01 -7.20069E+01  4.29587E+02  1.40743E+03  8.13716E+02  1.04020E+03 -3.11380E+01  1.68572E+03
  5.05259E+02  2.33218E+02 -4.03559E+02  6.92496E+02  4.76950E+02 -9.08021E+02  1.46425E+03 -7.39038E+02
 -4.75184E+02 -8.94184E+02  2.54130E+03  4.65124E+02  7.96280E+02  1.76541E+03 -6.06163E+02  1.09544E+03
 -1.21493E+02  7.34898E+02 -5.29343E+02  5.30723E+02 -9.48640E+02 -4.98477E+02 -3.28621E+02 -8.26057E+02
  1.09367E+03 -1.06900E+02 -6.64173E+02  1.04169E+03  4.58057E+02  1.89042E+03  1.93202E+02  1.60664E+03
 -3.24597E+02  1.95222E+03  8.08278E+01 -5.42399E+02  8.17840E+02 -5.72281E+02 -1.04253E+02  2.64720E+02
  4.39198E+02  1.23685E+03 -1.42544E+03  6.83526E+02 -7.92219E+02  5.05786E+02 -2.27040E+03  6.77567E+02
 -1.13466E+03 -2.82950E+03  4.00424E+01 -1.12564E+03 -3.91134E+00 -2.36213E+03  1.39545E+03 -1.79706E+03
  1.35223E+03 -2.63280E+02  7.20450E+02  1.20080E+03 -8.71269E+02  1.28358E+03 -2.96329E+02  1.16006E+02
 -2.69143E+02  3.38889E+02 -4.01225E+02  3.17615E+02 -1.29507E+03 -1.54759E+02 -1.23548E+03  3.94505E+02
 -1.06639E+03 -8.83368E+02 -1.09935E+03  3.06284E+02  3.58669E+02 -9.48466E+02 -7.19544E+02 -1.28833E+03
  6.06528E+02 -9.26031E+02 -1.41552E+02 -4.05626E+02  5.29083E+02  4.08198E+02 -1.36840E+02  5.58188E+02
 -2.22519E+02  2.04147E+03 -1.80297E+03  9.77197E+02 -9.59970E+02  1.48407E+02 -2.09867E+03 -1.07750E+03
 -7.83549E+02 -5.09638E+02  3.44954E+02  1.02875E+02  1.08640E+02 -1.01712E+03  1.88405E+02  2.49022E+02
 -5.67830E+02  6.17037E+02  8.61967E+02  2.18611E+02 -8.69118E+02  5.77950E+02 -4.27929E+02  3.06604E+02
 -5.27703E+02 -3.51524E+02  1.34735E+02  7.23684E+02  6.89616E+02 -3.97751E+02  3.06264E+02  2.93107E+02
 -3.11051E+02  7.13479E+02  7.14888E+02  6.35308E+02 -1.64341E+03  1.56583E+02  1.02146E+03 -6.71700E+02
  1.87065E+02 -3.95919E+02 -4.91364E+02 -3.42129E+02  1.40474E+03  2.84347E+02  4.63957E+02  7.36278E+02
 -4.25169E+02 -5.95408E+01  6.19675E+01  7.37783E+02  2.89869E+02  4.57723E+02 -2.85754E+02  9.12386E+02
 -1.34139E+02 -8.60699E+02 -2.69463E+02  1.07529E+03  3.35693E+02  8.06612E+02 -1.34575E+03 -9.38645E+02
 -7.47530E+02 -1.83590E+02 -7.36398E+02 -8.50813E+02  1.36937E+03 -8.06067E+02  1.67933E+02 -3.90565E+02
  7.50722E+02 -1.04298E+03 -3.80223E+02  3.85710E+02 -2.48026E+02  6.79243E+02 -5.74259E+02  1.01909E+03
