 $NMID ID='MM_0lb_SNR200_7hz_g55_76.RAW', FMTDAT='(8E13.5)'
 TRAMP=1., VOLUME=1. $END
  3.09440E+05 -1.00949E+03  3.38668E+05  2.50518E+05  8.51038E+04  3.39215E+05 -1.31937E+05  2.51977E+05
 -1.90683E+05  8.65342E+04 -1.13076E+05 -3.43063E+04  2.92753E+03 -5.13751E+04  5.41619E+04  4.69329E+02
  3.64061E+04  5.31279E+04 -1.66974E+04  7.81158E+04 -6.22761E+04  6.51491E+04 -8.54248E+04  3.04339E+04
 -8.22945E+04 -1.30659E+04 -5.88006E+04 -5.32992E+04 -1.57632E+04 -7.09659E+04  2.70331E+04 -4.58010E+04
  4.05679E+04  5.94401E+03  1.67365E+04  4.60906E+04 -3.42639E+04  4.87355E+04 -6.95250E+04  5.86134E+02
 -5.56232E+04 -6.02565E+04 -1.01142E+04 -7.89828E+04  3.61215E+04 -5.83195E+04  5.13996E+04 -1.73445E+04
  4.59342E+04  1.23227E+04  3.35023E+04  2.75245E+04  1.49733E+04  3.01464E+04 -5.48915E+03  2.76404E+04
 -2.17277E+04  1.07068E+04 -1.57053E+04 -6.83816E+03  8.12033E+03 -6.07994E+03  2.48871E+04  1.55056E+04
  6.47450E+03  3.87992E+04 -3.57715E+04  3.67979E+04 -6.57292E+04  2.50991E+03 -5.99379E+04 -4.47610E+04
 -1.34871E+04 -6.75385E+04  4.29640E+04 -4.75886E+04  6.23264E+04 -8.75293E+02  3.64757E+04  3.64687E+04
 -4.23915E+03  4.16781E+04 -3.28551E+04  2.09024E+04 -3.56786E+04 -3.97382E+03 -2.11733E+04 -1.39001E+04
 -1.04241E+04 -1.60541E+04  4.08275E+02 -1.97164E+04  1.01597E+04 -2.23069E+04  1.52055E+04 -1.07339E+04
  1.02627E+04  6.79721E+03 -1.38671E+04  1.23613E+04 -2.43710E+04 -6.70341E+03 -7.31697E+03 -3.95746E+04
  2.57761E+04 -4.88555E+04  5.47963E+04 -2.05595E+04  5.17965E+04  2.17995E+04  1.90314E+04  4.83459E+04
 -1.65819E+04  3.86524E+04 -2.70995E+04  3.51790E+03 -1.29720E+04 -3.04066E+04  2.13044E+04 -3.63233E+04
  4.64327E+04 -1.24759E+04  4.46663E+04  2.34418E+04  2.32225E+04  5.37624E+04 -9.31505E+03  6.01325E+04
 -3.74824E+04  4.11244E+04 -5.17340E+04  1.04431E+04 -5.05962E+04 -2.03648E+04 -2.75748E+04 -4.49943E+04
  8.07285E+03 -4.55091E+04  3.43565E+04 -1.71971E+04  3.45122E+04  1.07521E+04  5.24762E+03  2.07873E+04
 -1.42921E+04  1.09364E+04 -1.08157E+04 -7.84233E+03  5.32156E+03 -1.18846E+04  1.98087E+04  5.93121E+03
  1.61129E+04  2.40094E+04 -5.03788E+03  2.98834E+04 -2.49399E+04  1.56855E+04 -3.21518E+04 -4.36268E+03
 -2.79112E+04 -1.89606E+04 -1.41149E+04 -2.57193E+04  6.19159E+03 -2.84109E+04  2.24020E+04 -2.56496E+04
  3.47179E+04 -1.48705E+04  4.05082E+04  7.53783E+03  2.59452E+04  2.68001E+04  3.15589E+03  4.52013E+04
 -2.09697E+04  3.43170E+04 -3.21435E+04  1.20814E+04 -2.29171E+04 -1.07180E+04 -6.03851E+03 -1.36640E+04
 -1.08211E+03 -4.77825E+02 -1.00700E+04  9.57341E+03 -2.28676E+04  3.45098E+03 -2.01307E+04 -9.57235E+03
 -1.43115E+04 -2.55249E+04  5.66486E+03 -2.96630E+04  2.06446E+04 -2.06507E+04  2.32137E+04 -8.81026E+02
  1.53421E+04  1.80187E+04  1.83796E+03  2.50949E+04 -1.94540E+04  1.48357E+04 -2.43208E+04 -4.97526E+03
 -1.96424E+04 -2.36158E+04 -2.81591E+03 -2.97978E+04  1.37450E+04 -2.64827E+04  2.57239E+04 -1.33233E+04
  2.35895E+04  1.33278E+03  1.84607E+04  4.60499E+03  1.02584E+04  2.33408E+03  1.30584E+04 -8.95088E+02
  2.52325E+04  2.01176E+03  2.65652E+04  2.12223E+04  2.00895E+04  4.07799E+04 -1.77545E+03  4.88752E+04
 -2.71200E+04  4.28409E+04 -4.73589E+04  2.29791E+04 -5.13726E+04 -3.46272E+03 -4.01503E+04 -3.01010E+04
 -1.61824E+04 -4.31090E+04  1.61183E+04 -3.52899E+04  3.03177E+04 -1.68845E+04  2.82005E+04  1.13933E+04
  8.26747E+03  1.96870E+04 -1.17559E+04  1.77809E+04 -2.34369E+04  3.44826E+03 -1.74581E+04 -1.42459E+04
 -1.72709E+03 -2.15145E+04  1.02037E+04 -1.59501E+04  1.55151E+04 -8.16274E+02  4.84156E+03  1.16467E+04
 -8.81127E+03  5.73687E+03 -9.44398E+03 -7.48061E+03 -3.71800E+03 -2.08120E+04  1.30190E+04 -2.25223E+04
  2.52560E+04 -1.34810E+04  2.90212E+04  2.50383E+03  2.73773E+04  2.22484E+04  1.20695E+04  3.30885E+04
 -5.09448E+03  3.54776E+04 -2.49015E+04  2.14272E+04 -2.61118E+04  6.81346E+03 -1.64078E+04 -6.92241E+03
 -5.85735E+03 -7.46041E+03 -9.39703E+02 -3.53913E+02 -2.90328E+03  4.14812E+03 -8.82966E+03  5.35637E+03
 -1.78913E+04 -1.17971E+03 -1.58419E+04 -1.48922E+04 -7.26681E+03 -2.24628E+04  7.81803E+03 -1.78984E+04
  1.38910E+04 -7.56832E+03  9.78617E+03  5.39971E+03 -1.70152E+03  8.91065E+03 -8.43820E+03 -2.41215E+03
 -9.94768E+03 -1.07388E+04 -1.00622E+02 -1.84702E+04  1.22021E+04 -1.95909E+04  2.42517E+04 -1.05993E+04
  2.86262E+04  2.96204E+03  1.90100E+04  1.71865E+04  2.66733E+03  2.27678E+04 -1.06404E+04  1.84556E+04
 -1.43236E+04  5.72211E+03 -8.40660E+03 -4.79288E+03  2.80899E+03 -4.52585E+03  8.16263E+03 -2.80360E+02
  8.73739E+03  9.22714E+03  2.62332E+03  1.41873E+04 -1.13810E+04  1.33498E+04 -2.02821E+04  3.64439E+03
 -1.19067E+04 -1.05650E+04  1.80632E+02 -1.60580E+04  9.21941E+03 -7.75399E+03  1.13614E+04  4.99919E+03
  2.08647E+03  1.28987E+04 -1.12005E+04  1.32129E+04 -1.62866E+04  6.53229E+03 -1.79675E+04 -6.87650E+03
 -8.48481E+03 -1.86978E+04  4.89518E+03 -2.17981E+04  1.77928E+04 -1.26742E+04  2.06117E+04  3.97963E+03
  1.34690E+04  1.70888E+04 -1.18913E+03  1.98790E+04 -1.45949E+04  1.19363E+04 -1.50205E+04 -1.83849E+03
 -1.34571E+04 -1.37125E+04 -2.66512E+03 -1.55370E+04  5.40063E+03 -1.06272E+04  9.39515E+03 -3.90445E+03
  6.09665E+03  2.43150E+03 -2.10943E+03  1.87879E+03  4.79365E+02 -4.49880E+03  3.45440E+03 -9.42915E+03
  1.54529E+04 -8.65160E+03  2.03804E+04  1.61282E+03  1.84468E+04  1.44430E+04  1.11828E+04  2.52138E+04
 -5.78630E+03  3.00952E+04 -2.41207E+04  2.09507E+04 -3.18380E+04  3.50569E+03 -2.65993E+04 -1.42160E+04
 -1.13221E+04 -2.05733E+04 -1.56014E+02 -1.61195E+04  5.45354E+03 -1.16451E+04  6.37121E+03 -6.50545E+03
  4.72066E+03 -2.00239E+03  3.33143E+03 -3.30368E+03  6.75552E+03 -4.97297E+03  9.26710E+03 -2.13364E+03
  1.40449E+04  3.20002E+03  8.15062E+03  1.18199E+04 -3.89252E+03  1.36529E+04 -1.47100E+04  1.07674E+04
 -1.95684E+04 -2.21715E+03 -1.27355E+04 -1.13841E+04 -4.89491E+03 -2.05441E+04  9.29828E+03 -2.15909E+04
  2.25186E+04 -1.17951E+04  2.61428E+04  3.39444E+03  1.71017E+04  1.74328E+04  1.10221E+03  2.44323E+04
 -1.07131E+04  1.82444E+04 -1.31404E+04  6.27373E+03 -8.96054E+03 -1.42954E+03 -5.84888E+03 -3.13720E+03
 -1.60448E+03  7.78194E+02 -3.77927E+03  4.04877E+03 -6.07322E+03  3.17569E+03 -1.23870E+04 -1.05947E+03
 -1.10044E+04 -1.36755E+04 -8.09018E+02 -1.98518E+04  1.14721E+04 -1.80474E+04  1.96757E+04 -4.72933E+03
  1.84347E+04  8.79906E+03  9.03441E+03  1.83423E+04 -3.17005E+03  1.94771E+04 -1.27067E+04  1.22665E+04
 -1.82195E+04  8.75960E+02 -1.53123E+04 -1.07551E+04 -1.21224E+03 -1.49278E+04  8.88248E+03 -1.34219E+04
  1.06804E+04 -3.61099E+03  6.78875E+03  3.65520E+03  2.58221E+03  5.09003E+03  1.85832E+03  4.27190E+03
  3.72854E+03  1.09932E+03  3.26422E+03  2.91518E+03  6.43618E+03  4.27284E+03  3.86350E+03  9.85878E+03
 -2.48229E+03  1.41750E+04 -1.39236E+04  1.52878E+04 -2.07123E+04  3.68335E+03 -2.04730E+04 -9.70956E+03
 -1.02556E+04 -2.10746E+04  9.51104E+02 -2.22694E+04  1.06265E+04 -1.50730E+04  1.52531E+04 -2.90099E+03
  1.20545E+04  7.49921E+03  2.95289E+03  9.69948E+03 -5.44965E+03  7.18363E+03 -9.13841E+03 -2.53766E+03
 -4.86982E+03 -9.93269E+03  3.76785E+03 -1.12229E+04  1.04039E+04 -3.64307E+03  8.22507E+03  3.21950E+03
  6.11779E+03  5.65901E+03  2.97043E+03  3.37042E+03 -1.05304E+03  2.61797E+03  1.71400E+03 -3.13722E+02
  5.07415E+03 -2.03008E+03  9.26484E+03  3.30178E+03  4.30608E+03  1.11767E+04 -2.39739E+02  1.38070E+04
 -9.57745E+03  7.94824E+03 -1.41886E+04  4.58881E+03 -1.22202E+04 -4.26913E+03 -4.07637E+03 -7.70379E+03
  1.37653E+03 -7.88086E+03  7.34384E+03 -3.59581E+03  4.60180E+03  3.99972E+03 -3.91285E+03  7.68744E+03
 -8.80932E+03  4.62408E+03 -1.10363E+04 -5.02488E+03 -5.67229E+03 -1.14354E+04  2.59360E+03 -1.21162E+04
  4.85499E+03 -8.29935E+03  7.48404E+03 -1.11965E+03  5.69360E+03  4.45145E+03  1.36884E+03  5.44550E+03
 -5.09356E+03  2.28301E+03 -4.83630E+03 -5.19152E+03  9.73175E+02 -9.41246E+03  1.11009E+04 -8.22043E+03
  1.44536E+04  3.74311E+02  1.26581E+04  9.84128E+03  4.87104E+03  1.44472E+04 -4.03451E+03  1.44609E+04
 -1.17107E+04  7.29546E+03 -1.21871E+04 -1.41605E+03 -6.55212E+03 -8.72424E+03  1.60736E+03 -8.57183E+03
  6.78731E+03 -3.14211E+03  7.45452E+03  5.12723E+03  3.49130E+03  7.22331E+03 -1.78113E+03  6.91022E+03
 -3.66495E+03  5.70568E+03 -3.18059E+03  3.20828E+03 -1.68385E+03  8.81250E+02 -2.72046E+03  2.64803E+03
 -4.12532E+03  5.96155E+03 -1.06035E+04  5.55548E+03 -1.25348E+04  1.14197E+02 -1.55699E+04 -1.11317E+04
 -8.26997E+03 -1.97430E+04  4.22281E+03 -2.42806E+04  1.11416E+04 -1.61694E+04  1.95438E+04 -6.04932E+03
  2.06295E+04  3.38002E+03  1.36604E+04  1.17341E+04  8.95478E+02  1.45730E+04 -4.28624E+03  1.19489E+04
 -8.79601E+03  4.22430E+03 -6.43792E+03 -3.42358E+03 -2.51280E+03 -7.41124E+02  1.97214E+03 -2.35321E+03
 -2.40287E+03  2.88190E+01 -4.23740E+03  7.52526E+02 -2.87256E+03 -3.15886E+03  1.93682E+03 -4.23541E+03
  6.71819E+03 -5.18441E+03  1.07004E+04 -2.34839E+02  1.10192E+04  8.55913E+03  3.42345E+03  1.57981E+04
 -8.92939E+03  1.78811E+04 -1.70604E+04  1.10009E+04 -1.96056E+04 -5.92859E+02 -1.48836E+04 -1.00244E+04
 -4.63097E+03 -1.54261E+04  3.16528E+03 -1.43528E+04  1.20106E+04 -8.66714E+03  1.04531E+04  1.25245E+03
  7.15575E+03  4.66248E+03  4.29338E+02  3.15330E+03 -4.46732E+03  3.38439E+01 -1.14032E+03 -1.09313E+03
  6.39113E+03 -1.95854E+03  7.29707E+03  1.55456E+03  5.73872E+03  6.30514E+03  3.27368E+02  9.48635E+03
 -9.26926E+03  6.93082E+03 -9.25323E+03  7.33137E+02 -1.23184E+04 -7.49977E+03 -1.19260E+03 -1.21072E+04
  7.58075E+03 -1.26349E+04  1.45123E+04 -5.26554E+03  1.23918E+04  3.75867E+03  7.45129E+03  1.00108E+04
  1.18457E+03  1.05476E+04 -4.84533E+03  8.31425E+03 -6.64842E+03  4.98261E+03 -4.19919E+03  4.74821E+02
 -3.54472E+03 -4.37442E+02 -3.09719E+03  8.10408E+02 -6.85644E+03  3.78059E+02 -9.06875E+03 -3.21058E+03
 -8.14141E+03 -5.76224E+03 -3.12559E+03 -1.20969E+04  4.12500E+03 -1.13030E+04  1.06848E+04 -7.80086E+03
  1.09157E+04  1.35420E+03  6.06286E+03  9.34145E+03 -1.07584E+03  1.04441E+04 -9.08178E+03  7.79711E+03
