 $NMID ID='MM_0lb_SNR200_9hz_g55_70.RAW', FMTDAT='(8E13.5)'
 TRAMP=1., VOLUME=1. $END
  3.09335E+05  5.94716E+02  3.39974E+05  2.51427E+05  8.45065E+04  3.39330E+05 -1.33577E+05  2.51338E+05
 -1.90259E+05  8.39261E+04 -1.12764E+05 -3.19865E+04 -2.07978E+02 -5.12837E+04  5.46068E+04  8.00530E+02
  3.69428E+04  5.36962E+04 -1.51362E+04  7.65570E+04 -6.06315E+04  6.53949E+04 -8.56785E+04  3.32933E+04
 -8.28019E+04 -1.18302E+04 -5.88660E+04 -5.22597E+04 -1.56662E+04 -7.06477E+04  2.90925E+04 -4.64422E+04
  4.33492E+04  4.08031E+03  1.52951E+04  4.80825E+04 -3.56178E+04  4.96202E+04 -6.86497E+04 -9.47105E+02
 -5.47040E+04 -5.84032E+04 -7.99226E+03 -7.87375E+04  3.49633E+04 -5.81695E+04  5.07545E+04 -1.80692E+04
  4.50158E+04  1.06556E+04  3.32271E+04  2.74550E+04  1.70444E+04  2.93484E+04 -5.93168E+03  2.83398E+04
 -2.09562E+04  1.01774E+04 -1.81781E+04 -7.02210E+03  5.73034E+03 -7.09702E+03  2.32346E+04  1.50201E+04
  5.85357E+03  3.75538E+04 -3.41976E+04  3.68162E+04 -6.50903E+04  1.54890E+03 -5.85453E+04 -4.51166E+04
 -1.15549E+04 -6.60573E+04  4.11618E+04 -4.87294E+04  6.26180E+04 -3.20073E+03  3.63853E+04  3.43713E+04
 -3.84037E+03  3.94786E+04 -3.13018E+04  1.94468E+04 -3.39014E+04 -4.29363E+03 -1.85514E+04 -1.06623E+04
 -9.50517E+03 -1.46646E+04 -1.23502E+03 -1.90877E+04  8.53446E+03 -2.42255E+04  1.62702E+04 -1.19578E+04
  1.00392E+04  6.03926E+03 -1.10885E+04  1.25133E+04 -2.39405E+04 -7.38267E+03 -9.10928E+03 -3.81534E+04
  2.55708E+04 -4.82710E+04  5.36561E+04 -2.07801E+04  4.84069E+04  2.09928E+04  1.71049E+04  4.81013E+04
 -1.57115E+04  3.58904E+04 -2.71382E+04  2.30202E+03 -1.14798E+04 -3.02453E+04  2.22470E+04 -3.82824E+04
  4.73356E+04 -1.06798E+04  4.08377E+04  2.48101E+04  2.26095E+04  5.04002E+04 -9.00872E+03  5.63788E+04
 -3.51303E+04  3.71581E+04 -4.87351E+04  1.19280E+04 -4.69716E+04 -1.81545E+04 -2.66622E+04 -4.35354E+04
  6.68726E+03 -4.41630E+04  3.53618E+04 -1.58434E+04  3.26103E+04  1.10717E+04  5.77775E+03  2.12436E+04
 -1.29475E+04  1.03144E+04 -1.21099E+04 -6.45364E+03  4.39583E+03 -9.81832E+03  1.92447E+04  4.89483E+03
  1.46702E+04  2.34772E+04 -5.86050E+03  2.80709E+04 -2.45195E+04  1.50774E+04 -3.17105E+04 -3.92690E+03
 -2.57812E+04 -1.87766E+04 -1.18557E+04 -2.59565E+04  3.82658E+03 -2.74326E+04  1.96912E+04 -2.38197E+04
  3.11651E+04 -1.48447E+04  3.88900E+04  6.11425E+03  2.81405E+04  2.50597E+04  5.60620E+03  4.23343E+04
 -2.03131E+04  3.42923E+04 -3.05579E+04  1.18204E+04 -2.37043E+04 -9.94679E+03 -7.00885E+03 -1.30657E+04
 -1.12154E+02 -4.38154E+02 -7.69675E+03  8.50518E+03 -2.15228E+04  4.69242E+03 -2.26759E+04 -8.43641E+03
 -1.32233E+04 -2.38133E+04  4.74237E+03 -2.95637E+04  1.94037E+04 -1.85478E+04  2.32937E+04 -1.75562E+03
  1.38659E+04  1.57390E+04 -1.97824E+03  2.44881E+04 -1.87800E+04  1.30919E+04 -2.42615E+04 -4.74269E+03
 -1.80260E+04 -2.15685E+04 -2.35288E+03 -2.80743E+04  1.25526E+04 -2.52944E+04  2.46733E+04 -1.29128E+04
  2.06630E+04 -7.28820E+02  1.65615E+04  5.60181E+03  8.88062E+03  1.03738E+03  1.29636E+04 -2.30744E+03
  2.28845E+04  2.40520E+03  2.55038E+04  1.91838E+04  1.76286E+04  4.02067E+04 -4.03410E+03  4.50533E+04
 -2.65305E+04  3.95076E+04 -4.26937E+04  1.85114E+04 -4.49155E+04 -4.33565E+03 -3.71715E+04 -2.74723E+04
 -1.35681E+04 -3.84490E+04  1.39579E+04 -3.44733E+04  2.91738E+04 -1.59970E+04  2.41906E+04  7.11735E+03
  8.34844E+03  2.07901E+04 -1.20404E+04  1.65736E+04 -2.05275E+04  2.50616E+03 -1.53017E+04 -1.31689E+04
  1.30522E+03 -1.87601E+04  1.15961E+04 -1.37792E+04  1.42234E+04 -1.64843E+03  3.76176E+03  8.38654E+03
 -8.46642E+03  4.38210E+03 -8.86617E+03 -7.59885E+03 -4.57404E+03 -1.76420E+04  1.26490E+04 -2.17887E+04
  2.28852E+04 -1.10267E+04  2.59386E+04  5.03450E+03  2.21574E+04  1.70101E+04  9.30306E+03  3.07957E+04
 -6.31803E+03  3.21761E+04 -2.12078E+04  1.99867E+04 -2.31303E+04  4.81317E+03 -1.50973E+04 -6.04780E+03
 -5.98795E+03 -6.65069E+03  2.40284E+02  1.35578E+03 -3.75797E+03  2.80340E+03 -6.72061E+03  6.55260E+03
 -1.57411E+04 -1.82261E+03 -1.40582E+04 -1.20095E+04 -4.85698E+03 -1.97597E+04  7.93579E+03 -1.71162E+04
  1.40735E+04 -6.98329E+03  8.05233E+03  3.23856E+03  5.21213E+02  6.65939E+03 -6.85001E+03 -8.78767E+02
 -7.27386E+03 -1.06118E+04  8.94158E+02 -1.58492E+04  8.33995E+03 -1.64396E+04  2.13335E+04 -7.38525E+03
  2.37383E+04  2.13302E+03  1.76320E+04  1.60352E+04  1.96877E+03  2.16301E+04 -1.10107E+04  1.48586E+04
 -1.23629E+04  4.00935E+03 -6.84642E+03 -2.29711E+03  1.37526E+03 -5.30405E+03  7.74441E+03 -3.32440E+02
  6.79659E+03  7.59607E+03  1.80240E+03  1.34656E+04 -1.02792E+04  1.32512E+04 -1.66936E+04  2.69363E+03
 -1.03674E+04 -9.38865E+03 -7.64737E+02 -1.41716E+04  9.99845E+03 -8.64060E+03  9.96380E+03  5.72545E+03
  7.03098E+02  1.11719E+04 -8.30749E+03  1.27375E+04 -1.40481E+04  5.04208E+03 -1.42577E+04 -5.64930E+03
 -8.67144E+03 -1.69840E+04  4.18981E+03 -1.94199E+04  1.57223E+04 -1.11129E+04  1.88420E+04  4.73592E+03
  1.18305E+04  1.39269E+04 -2.95169E+03  1.62280E+04 -1.29626E+04  1.09151E+04 -1.26195E+04 -2.27279E+03
 -1.11616E+04 -1.11404E+04 -1.99891E+03 -1.16237E+04  5.09034E+03 -1.05201E+04  7.81173E+03 -3.74071E+03
  5.07603E+03  2.03883E+03 -1.09794E+03  2.96480E+03 -8.08372E+02 -3.61052E+03  2.07173E+03 -6.87466E+03
  1.23304E+04 -6.00802E+03  1.75383E+04  8.11316E+02  1.58976E+04  1.06717E+04  9.80242E+03  2.17498E+04
 -4.54088E+03  2.52024E+04 -2.10559E+04  1.65818E+04 -2.53019E+04  3.78704E+03 -2.25534E+04 -9.61681E+03
 -1.04280E+04 -1.67990E+04 -1.18417E+03 -1.53247E+04  5.91577E+03 -8.38970E+03  6.06757E+03 -5.61439E+03
  3.99504E+03 -1.89616E+03  4.51485E+03 -4.08696E+03  7.84498E+03 -5.24863E+03  7.12423E+03 -1.78021E+03
  1.11181E+04  2.65732E+03  7.11170E+03  8.86382E+03 -2.40583E+03  1.24450E+04 -1.12368E+04  9.63951E+03
 -1.34234E+04 -1.04379E+03 -9.11291E+03 -8.98515E+03 -4.07444E+02 -1.77802E+04  7.35040E+03 -1.54500E+04
  1.78758E+04 -9.64582E+03  2.08167E+04  3.60304E+03  1.40531E+04  1.43648E+04  2.04539E+03  1.89224E+04
 -7.39898E+03  1.47908E+04 -1.03356E+04  6.31964E+03 -7.99146E+03 -1.60343E+03 -4.71310E+03 -1.43268E+03
 -8.09849E+02  1.67869E+03 -3.37003E+03  3.55637E+03 -6.15546E+03  3.64516E+03 -9.20519E+03 -1.71018E+03
 -8.64150E+03 -1.28000E+04 -9.86484E+02 -1.50791E+04  9.87370E+03 -1.37176E+04  1.66148E+04 -5.57977E+03
  1.67804E+04  7.67536E+03  6.72298E+03  1.23846E+04 -2.75457E+03  1.66946E+04 -1.20130E+04  9.28020E+03
 -1.47928E+04  8.50505E+01 -1.08970E+04 -1.09439E+04 -5.11115E+02 -1.37391E+04  6.94261E+03 -1.08589E+04
  9.85589E+03 -2.55352E+03  6.96103E+03  3.54168E+03  2.12805E+03  3.76483E+03  2.71069E+03  4.15993E+03
  1.66014E+03  3.82107E+02  4.65966E+03  1.36490E+03  4.25109E+03  5.10403E+03  4.88034E+03  6.54946E+03
 -4.30174E+03  1.29836E+04 -9.76780E+03  1.26072E+04 -1.61049E+04  3.88033E+03 -1.61067E+04 -7.87571E+03
 -7.91086E+03 -1.65503E+04  3.08850E+03 -1.62609E+04  9.28812E+03 -9.90057E+03  1.37503E+04 -3.95738E+03
  8.65732E+03  6.60443E+03  3.93808E+03  9.21813E+03 -3.67320E+03  6.80617E+03 -4.88426E+03 -1.16593E+02
 -3.03602E+03 -6.23768E+03  4.03142E+03 -6.93674E+03  7.44665E+03 -4.69143E+03  5.40871E+03  6.24022E+02
  3.94401E+03  2.61334E+03  1.09452E+03  9.33048E+02 -7.63264E+02  2.40740E+03  1.49483E+03 -3.36795E+03
  1.83510E+03 -1.42708E+03  5.82416E+03  1.97996E+03  4.44704E+03  8.70827E+03 -1.63284E+03  1.11788E+04
 -8.41514E+03  5.49759E+03 -1.05705E+04  1.97979E+03 -9.21634E+03 -3.74251E+03 -2.32910E+03 -6.17713E+03
  1.41870E+03 -7.49831E+03  5.29688E+03 -2.55148E+03  4.72938E+03  3.81200E+03 -2.18634E+03  5.77492E+03
 -4.56904E+03  2.29706E+03 -7.61586E+03 -5.14271E+03 -4.03295E+03 -7.03242E+03  1.83846E+03 -1.00341E+04
  4.42515E+03 -7.20201E+03  6.44308E+03  1.98350E+02  5.07049E+03  7.77708E+02  1.66444E+03  4.38082E+03
 -4.93783E+03  1.46429E+03 -4.70163E+03 -3.65736E+03  8.37466E+02 -7.06813E+03  6.58848E+03 -6.50282E+03
  8.41656E+03  1.45294E+03  9.94099E+03  6.20925E+03  2.88241E+03  1.17651E+04 -4.05178E+03  9.00041E+03
 -8.11830E+03  5.48779E+03 -8.02198E+03 -1.16631E+03 -3.75991E+03 -7.31096E+03  2.92418E+03 -6.59650E+03
  7.07396E+03 -2.09589E+03  5.11345E+03  4.18674E+03  1.76072E+03  4.83813E+03 -6.36837E+02  4.52536E+03
 -1.00415E+03  4.58573E+03 -3.46660E+03  1.25133E+02 -2.68342E+03 -9.78132E+02 -2.53496E+03  9.06600E+02
 -2.74621E+03  4.75347E+03 -6.52778E+03  4.20843E+03 -1.00411E+04 -3.77739E+02 -1.19624E+04 -7.33906E+03
 -4.75463E+03 -1.33146E+04  3.03670E+03 -1.61605E+04  9.51302E+03 -1.31948E+04  1.49747E+04 -5.99010E+03
  1.53795E+04  2.22147E+03  7.94762E+03  9.43835E+03  1.17794E+03  1.07223E+04 -4.07491E+03  8.34874E+03
 -7.45470E+03  9.89493E+02 -4.02057E+03 -2.72517E+03  5.24480E+02 -7.25276E+02 -3.75026E+02 -2.08480E+03
 -2.07270E+03 -1.76260E+02 -2.44306E+03 -1.90114E+03 -4.60620E+02 -3.13045E+03  1.74754E+03 -3.38424E+03
  4.92692E+03 -3.42485E+03  7.30207E+03 -4.26625E+02  8.35079E+03  5.57834E+03  1.03840E+03  1.10350E+04
 -5.20487E+03  1.24020E+04 -1.12764E+04  6.30502E+03 -1.30385E+04 -1.70318E+03 -9.40779E+03 -8.44908E+03
 -4.23143E+03 -8.76864E+03  2.78606E+03 -1.01934E+04  6.43851E+03 -5.87795E+03  6.76832E+03  3.77270E+02
  4.94931E+03  3.59746E+03  1.41676E+03  1.70318E+03 -2.13668E+03 -6.42134E+02 -8.67366E+00 -2.79549E+03
  3.11937E+03 -8.72415E+02  4.15146E+03  2.30231E+03  3.62584E+03  4.86447E+03  2.72958E+01  6.02285E+03
 -5.55316E+03  5.60425E+03 -8.95711E+03 -4.33816E+02 -5.17312E+03 -3.35876E+03 -1.59139E+02 -8.05513E+03
  6.16448E+03 -7.42485E+03  7.03058E+03 -2.82586E+03  9.29070E+03  1.63140E+03  3.89006E+03  6.18110E+03
  7.13823E+02  6.88047E+03 -2.42484E+03  5.83481E+03 -3.56045E+03  3.59455E+03 -2.92857E+03  4.44693E+01
 -1.72969E+03 -8.13744E+02 -1.44959E+03  3.49100E+02 -5.82454E+03  6.12611E+02 -5.42407E+03 -1.27349E+03
 -5.77018E+03 -2.32876E+03 -1.35953E+03 -7.13263E+03  4.65300E+03 -8.15623E+03  5.88565E+03 -5.49405E+03
  7.19610E+03  1.53797E+03  4.59337E+03  3.85553E+03  2.54707E+02  7.14402E+03 -5.71745E+03  5.52343E+03
