 $NMID ID='MM_0lb_SNR200_13hz_g45_6.RAW', FMTDAT='(8E13.5)'
 TRAMP=1., VOLUME=1. $END
  3.10168E+05 -2.21769E+02  3.38176E+05  2.50283E+05  8.52242E+04  3.37215E+05 -1.33110E+05  2.51796E+05
 -1.88931E+05  8.27132E+04 -1.11439E+05 -3.17320E+04  1.70036E+03 -5.04105E+04  5.34071E+04 -7.17916E+00
  3.47509E+04  5.21979E+04 -1.67412E+04  7.53907E+04 -6.04335E+04  6.31123E+04 -8.33696E+04  3.22640E+04
 -8.16830E+04 -1.24903E+04 -5.77178E+04 -5.18653E+04 -1.47078E+04 -6.82228E+04  2.79888E+04 -4.49974E+04
  4.00690E+04  2.88567E+03  1.65706E+04  4.81865E+04 -3.43342E+04  4.78133E+04 -6.67432E+04 -1.18417E+03
 -5.40875E+04 -5.60456E+04 -6.68548E+03 -7.76975E+04  3.40855E+04 -5.53190E+04  4.80663E+04 -1.70601E+04
  4.23855E+04  1.19925E+04  3.14656E+04  2.51674E+04  1.69444E+04  2.88521E+04 -5.03631E+03  2.77315E+04
 -2.21171E+04  1.23957E+04 -1.79788E+04 -4.92597E+03  5.21463E+03 -6.57131E+03  2.43834E+04  1.28329E+04
  7.87598E+03  3.56647E+04 -3.13557E+04  3.45704E+04 -6.32226E+04  2.18429E+03 -5.85941E+04 -4.33339E+04
 -1.21166E+04 -6.22299E+04  3.96474E+04 -4.35063E+04  5.71126E+04 -3.56930E+03  3.38289E+04  3.37102E+04
 -6.25747E+03  3.54429E+04 -3.09361E+04  1.57834E+04 -3.05028E+04 -3.46408E+03 -1.72872E+04 -1.12863E+04
 -7.53127E+03 -1.48471E+04 -4.25725E+02 -1.62877E+04  8.97610E+03 -2.25347E+04  1.55618E+04 -1.32134E+04
  1.13707E+04  5.13018E+03 -9.26589E+03  1.44582E+04 -2.04199E+04 -4.04442E+03 -6.35679E+03 -3.48712E+04
  2.24791E+04 -4.36214E+04  4.86234E+04 -1.99257E+04  4.58937E+04  1.97475E+04  1.63023E+04  4.32966E+04
 -1.68208E+04  3.32281E+04 -2.50562E+04  2.65762E+03 -8.46108E+03 -2.70949E+04  2.04451E+04 -3.37148E+04
  4.16651E+04 -9.25105E+03  3.56157E+04  2.45080E+04  1.88642E+04  4.74033E+04 -7.57348E+03  5.11097E+04
 -3.22953E+04  3.33775E+04 -4.24142E+04  9.48616E+03 -4.30677E+04 -1.66569E+04 -2.39396E+04 -3.93364E+04
  8.55756E+03 -3.83116E+04  3.09761E+04 -1.48562E+04  2.91072E+04  1.11839E+04  3.53466E+03  1.77406E+04
 -1.33696E+04  9.11837E+03 -9.93572E+03 -7.40661E+03  8.70046E+03 -1.02502E+04  1.82472E+04  6.48852E+03
  1.35949E+04  2.22054E+04 -5.79166E+03  2.44863E+04 -2.24423E+04  1.25780E+04 -2.83904E+04 -4.80891E+03
 -2.10169E+04 -1.75187E+04 -8.80503E+03 -2.11029E+04  3.96346E+03 -2.14424E+04  1.58955E+04 -1.93567E+04
  2.78140E+04 -1.32422E+04  3.33528E+04  2.91693E+03  2.39519E+04  2.16720E+04  4.64773E+03  3.66988E+04
 -1.83455E+04  3.11248E+04 -2.88668E+04  1.10149E+04 -2.07681E+04 -9.76982E+03 -3.51756E+03 -1.42738E+04
  1.12798E+03 -2.92069E+03 -4.12231E+03  8.10881E+03 -1.68065E+04  4.35704E+03 -1.70501E+04 -6.62880E+03
 -1.02290E+04 -1.89444E+04  5.17004E+03 -2.43269E+04  1.59226E+04 -1.63534E+04  1.78711E+04 -1.69013E+03
  1.18942E+04  1.27562E+04 -1.85673E+03  1.98656E+04 -1.38675E+04  1.08639E+04 -1.93861E+04 -3.79878E+03
 -1.43025E+04 -1.78009E+04 -1.83834E+03 -2.37133E+04  9.68463E+03 -1.87324E+04  1.97285E+04 -1.00402E+04
  1.87883E+04 -6.67642E+02  1.34925E+04  4.04495E+03  7.64566E+03  1.55463E+03  9.28809E+03 -2.79519E+03
  1.89890E+04  2.18256E+03  2.00894E+04  1.63631E+04  1.39886E+04  3.15748E+04 -2.09203E+03  3.47833E+04
 -2.15801E+04  2.86098E+04 -3.23358E+04  1.40982E+04 -3.32723E+04 -3.07621E+03 -2.89359E+04 -1.95771E+04
 -1.13819E+04 -2.91348E+04  9.57814E+03 -2.60392E+04  2.20230E+04 -1.46852E+04  1.81204E+04  5.65811E+03
  7.50752E+03  1.52371E+04 -9.65621E+03  1.22656E+04 -1.71145E+04  2.92745E+03 -1.30467E+04 -1.14488E+04
 -2.08048E+03 -1.51569E+04  8.50722E+03 -1.16027E+04  9.81129E+03 -1.92665E+03  2.66734E+03  7.81226E+03
 -7.54169E+03  4.53846E+03 -6.04431E+03 -5.75809E+03 -9.11279E+02 -1.42782E+04  1.03931E+04 -1.56502E+04
  1.77245E+04 -7.81795E+03  1.84401E+04  4.16588E+03  1.72083E+04  1.35498E+04  7.99860E+03  2.02128E+04
 -3.32831E+03  2.33503E+04 -1.60133E+04  1.27990E+04 -1.65367E+04  2.56375E+03 -1.23471E+04 -3.62567E+03
 -3.97534E+03 -6.01643E+03 -1.39682E+03  1.26670E+03 -1.93256E+03  3.43499E+03 -6.01885E+03  4.23525E+03
 -1.08796E+04 -1.39740E+03 -1.02367E+04 -1.01503E+04 -3.87608E+03 -1.48028E+04  5.20136E+03 -1.28271E+04
  1.05358E+04 -5.26846E+03  6.82696E+03  2.59847E+03 -2.27603E+02  4.36710E+03 -6.79835E+03 -4.02699E+01
 -3.80032E+03 -8.00680E+03 -9.37362E+02 -1.22071E+04  6.37216E+03 -1.15265E+04  1.42429E+04 -8.09453E+03
  1.68428E+04  1.81370E+03  1.20522E+04  1.02599E+04  1.43710E+03  1.23450E+04 -7.73903E+03  1.11815E+04
 -9.18137E+03  4.26759E+03 -4.76729E+03 -2.50300E+03  1.76226E+03 -4.05833E+03  5.46366E+03 -8.78132E+02
  4.18056E+03  4.86192E+03  1.01894E+03  1.04063E+04 -7.06456E+03  9.79064E+03 -1.08250E+04  2.19926E+03
 -7.16067E+03 -5.16620E+03  6.09701E+02 -9.86928E+03  5.18389E+03 -5.37880E+03  6.01134E+03  1.90957E+03
  9.65322E+02  6.90745E+03 -7.30840E+03  7.02292E+03 -8.96563E+03  3.69909E+03 -9.73040E+03 -1.09439E+03
 -4.11022E+03 -9.70664E+03  2.23793E+03 -1.13801E+04  9.61881E+03 -7.76023E+03  1.13409E+04  4.86326E+02
  6.61060E+03  9.13942E+03 -5.47352E+02  1.16799E+04 -7.97733E+03  6.13397E+03 -9.19802E+03 -1.38068E+03
 -8.41771E+03 -7.29708E+03 -5.26105E+02 -8.31014E+03  3.77654E+03 -6.47611E+03  5.06759E+03 -3.89544E+03
  4.08825E+03  6.38531E+02 -1.33783E+03  1.96593E+03 -6.59346E+01  2.25874E+02  1.77316E+03 -4.41264E+03
  7.01778E+03 -2.11434E+03  9.67676E+03  7.92404E+02  1.11171E+04  6.71126E+03  7.20840E+03  1.38515E+04
 -1.07360E+03  1.51313E+04 -1.25013E+04  1.20488E+04 -1.67200E+04  2.33837E+03 -1.35026E+04 -5.81704E+03
 -6.88049E+03 -1.18398E+04 -5.68898E+02 -8.64028E+03  3.44873E+03 -4.82121E+03  4.55134E+03 -2.72406E+03
  2.50381E+03 -1.84582E+03  3.08825E+03 -3.56559E+03  5.03111E+03 -2.35111E+03  6.80540E+03 -1.51285E+03
  8.50684E+03  1.68540E+03  3.72011E+03  5.71987E+03 -1.87667E+03  7.08220E+03 -7.07918E+03  6.23383E+03
 -8.87844E+03 -1.97905E+03 -4.29821E+03 -6.83273E+03  8.07266E+02 -8.98885E+03  4.79195E+03 -9.47785E+03
  9.86465E+03 -6.30982E+03  1.26095E+04  1.45723E+03  8.42532E+03  7.80560E+03  2.45927E+03  1.04875E+04
 -4.24737E+03  1.03698E+04 -7.34530E+03  3.69922E+03 -3.66221E+03 -1.77411E+03 -9.73847E+02 -1.78012E+03
 -6.30695E+02  6.22010E+01 -1.42390E+03  3.46686E+03 -3.34227E+03  1.12990E+03 -8.25477E+03 -1.66071E+03
 -3.68168E+03 -6.40476E+03  1.75760E+02 -8.05053E+03  4.90283E+03 -8.29331E+03  7.46771E+03 -1.69279E+03
  8.54930E+03  4.36305E+03  2.55664E+03  7.14485E+03 -1.71578E+03  1.00135E+04 -5.37551E+03  4.59515E+03
 -7.15960E+03  1.06195E+03 -5.47710E+03 -6.39674E+03  6.70485E+02 -6.57240E+03  3.91236E+03 -4.69551E+03
  5.32414E+03 -2.92799E+03  3.93532E+03  7.89617E+02  1.66490E+03  3.33200E+03  9.84436E+02  9.39154E+02
  1.87125E+03  9.02680E+02  2.68731E+03  1.12002E+03  2.68535E+03  4.81499E+03  3.19127E+03  4.94022E+03
 -7.97525E+02  7.45491E+03 -6.37668E+03  6.78433E+03 -8.81677E+03  1.92590E+03 -8.70789E+03 -2.49120E+03
 -1.98291E+03 -9.31403E+03  9.10728E+02 -1.01322E+04  4.35100E+03 -5.77039E+03  6.61716E+03 -1.92616E+03
  4.39835E+03  3.40127E+03  2.28789E+03  4.44268E+03 -2.07776E+03  3.25176E+03 -3.53755E+03 -4.27275E+02
 -1.97474E+03 -2.75565E+03  1.72752E+03 -3.55680E+03  3.79768E+03 -2.91515E+03  2.37908E+03 -1.15896E+01
  2.98064E+03 -2.65967E+02  7.20966E+02  1.01375E+03 -2.88978E+02  2.80520E+02  1.86876E+03 -5.41527E+02
 -9.94339E+01 -1.28361E+03  3.30547E+03  2.46511E+03  2.01659E+03  4.54156E+03 -1.34220E+03  5.92904E+03
 -3.69931E+03  4.25847E+03 -5.39954E+03  1.26607E+03 -4.18928E+03 -5.93519E+02 -1.25360E+03 -2.09977E+03
  6.11412E+02 -3.56207E+03  2.11910E+03 -1.77904E+03  3.17102E+03  1.24072E+03 -5.90315E+02  2.96357E+03
 -2.17185E+03  1.89283E+03 -2.78364E+03 -1.33825E+03 -1.54869E+03 -4.63176E+03 -3.64668E+02 -4.12960E+03
  2.97539E+03 -1.99329E+03  3.62801E+03  8.24521E+02  2.78883E+03  1.76793E+03 -3.91158E+02  3.28429E+03
 -2.19418E+03  3.76825E+02 -2.26884E+03 -1.59921E+03 -6.39979E+02 -2.55421E+03  3.87243E+03 -2.01187E+03
  4.65005E+03  2.00995E+03  4.58146E+03  3.41382E+03  2.51918E+03  4.81005E+03 -1.52252E+03  4.04532E+03
 -4.23694E+03  2.53242E+03 -4.67779E+03 -8.46105E+02 -2.06832E+03 -3.13272E+03  8.26570E+02 -2.37543E+03
  2.78636E+03 -9.37497E+02  2.23380E+03  2.11337E+03  7.60304E+02  3.12254E+03 -3.60298E+02  3.87716E+03
 -1.55167E+03  8.62566E+02 -1.99423E+03 -1.81957E+01 -1.63275E+03  1.81543E+02 -9.60482E+02  1.41644E+02
 -7.79024E+02  7.81014E+02 -3.71593E+03  1.68444E+03 -4.39214E+03 -3.39427E+02 -5.49497E+03 -4.67656E+03
 -2.86259E+03 -5.45215E+03  1.81007E+03 -8.12836E+03  3.80156E+03 -5.19975E+03  7.73535E+03 -2.19274E+03
  7.02632E+03  1.38171E+02  2.85015E+03  5.66367E+03  1.14569E+03  5.29550E+03 -1.62857E+03  4.73070E+03
 -2.43562E+03  5.19994E+02 -2.06031E+03  7.43773E+02 -8.46557E+02  2.46779E+02 -2.16862E+02  4.00616E+02
 -1.98368E+03 -3.45479E+01  2.75959E+01 -5.09987E+02  2.89498E+02 -5.91083E+02 -6.73695E+02 -1.39181E+03
  3.01693E+03 -2.17298E+03  1.98225E+03  3.77747E+02  3.26029E+03  3.30651E+03  2.83797E+02  5.24586E+03
 -2.46874E+03  6.43355E+03 -4.32140E+03  3.12338E+03 -4.48958E+03 -2.07927E+02 -3.65894E+03 -3.92730E+03
 -6.51700E+02 -4.55034E+03  1.20416E+03 -4.05206E+03  3.48473E+03 -1.27688E+03  2.89150E+03  1.12145E+03
  1.47437E+03  1.29551E+03 -1.73777E+02  2.01389E+03 -1.41439E+03  1.07937E+03  4.90476E+02 -7.39126E+02
  5.32079E+02 -4.27112E+02  1.51834E+03  6.96060E+02  9.51737E+02  3.13508E+03  1.40052E+03  2.59093E+03
 -9.64324E+02  2.07846E+03 -2.60870E+03  1.14275E+03 -2.87153E+03 -2.20723E+03 -6.41666E+02 -3.16929E+03
  1.39623E+03 -3.73095E+03  3.23268E+03 -4.33537E+02  4.41331E+03  8.23337E+02  3.46284E+03  2.63996E+03
  6.49109E+02  4.00679E+03 -1.06118E+03  3.06011E+03 -2.66276E+03  1.19857E+03 -1.53843E+03 -3.36651E+00
 -1.03067E+03 -3.79651E+02 -1.62490E+03  6.83485E+01 -1.93083E+03 -2.98770E+02 -2.72161E+03 -3.38726E+01
 -2.08631E+03 -2.19605E+03 -1.28707E+03 -3.58058E+03  6.32383E+02 -3.31925E+03  3.21651E+03 -4.18739E+02
  4.47374E+03 -2.58598E+02  1.49738E+03  3.12196E+03 -6.40034E+02  2.88779E+03 -2.91311E+03  1.55482E+03
