 $NMID ID='MM_0lb_SNR200_16hz_g40_93.RAW', FMTDAT='(8E13.5)'
 TRAMP=1., VOLUME=1. $END
  3.09614E+05  5.13377E+02  3.38370E+05  2.50653E+05  8.39964E+04  3.37010E+05 -1.33852E+05  2.49459E+05
 -1.90451E+05  8.25450E+04 -1.11649E+05 -3.29653E+04  2.81762E+03 -5.05623E+04  5.42533E+04 -7.76392E+01
  3.37981E+04  5.25966E+04 -1.67891E+04  7.61037E+04 -6.06628E+04  6.25623E+04 -8.35863E+04  3.16510E+04
 -7.95799E+04 -1.01309E+04 -5.52300E+04 -4.95318E+04 -1.49521E+04 -6.85480E+04  2.66838E+04 -4.55363E+04
  3.83436E+04  2.82899E+03  1.54712E+04  4.81950E+04 -3.40809E+04  4.56176E+04 -6.65861E+04 -1.38382E+03
 -5.20078E+04 -5.67423E+04 -5.63601E+03 -7.64823E+04  3.35572E+04 -5.37568E+04  4.66021E+04 -1.59533E+04
  4.30528E+04  1.14044E+04  3.06587E+04  2.55789E+04  1.56906E+04  2.87171E+04 -4.67272E+03  2.75916E+04
 -2.15309E+04  1.38183E+04 -1.94026E+04 -4.36313E+03  4.50294E+03 -7.86158E+03  2.06019E+04  1.02709E+04
  9.30457E+03  3.37921E+04 -3.01973E+04  3.43470E+04 -6.16667E+04  2.35939E+03 -5.55242E+04 -4.09381E+04
 -1.25253E+04 -6.18599E+04  3.92661E+04 -4.39085E+04  5.59945E+04 -4.38355E+02  3.24859E+04  3.09435E+04
 -7.05645E+03  3.32821E+04 -3.00945E+04  1.37801E+04 -2.83931E+04 -4.75772E+03 -1.47295E+04 -9.20405E+03
 -6.54926E+03 -1.26758E+04 -1.43888E+03 -1.66656E+04  6.79813E+03 -2.26934E+04  1.44100E+04 -1.35884E+04
  1.30868E+04  4.03196E+03 -6.93239E+03  1.39219E+04 -2.00720E+04 -3.52098E+03 -8.61937E+03 -3.10612E+04
  2.20495E+04 -4.21845E+04  4.49941E+04 -1.89660E+04  4.40132E+04  1.74627E+04  1.51835E+04  4.29051E+04
 -1.67828E+04  3.20608E+04 -2.44318E+04  2.23998E+03 -1.02271E+04 -2.76582E+04  1.99320E+04 -3.14512E+04
  4.02970E+04 -7.72035E+03  3.29323E+04  2.31417E+04  1.64914E+04  4.34427E+04 -7.01035E+03  4.73779E+04
 -3.09752E+04  3.12296E+04 -3.90816E+04  9.82465E+03 -3.90247E+04 -1.55100E+04 -2.14028E+04 -3.53092E+04
  6.58138E+03 -3.61439E+04  2.98664E+04 -1.35360E+04  2.75741E+04  1.01782E+04  3.43276E+03  1.79370E+04
 -1.32073E+04  7.61404E+03 -1.03269E+04 -8.06714E+03  6.50330E+03 -1.02558E+04  1.78052E+04  6.99552E+03
  1.23558E+04  2.07655E+04 -7.02282E+03  2.39115E+04 -2.10093E+04  9.13725E+03 -2.57469E+04 -6.36983E+03
 -1.76427E+04 -1.62516E+04 -6.75893E+03 -1.84701E+04  3.33564E+03 -1.67483E+04  1.31140E+04 -1.50427E+04
  2.26296E+04 -1.17969E+04  2.96281E+04  1.87626E+03  2.24284E+04  1.79106E+04  3.26788E+03  3.32542E+04
 -1.58353E+04  2.78151E+04 -2.70732E+04  1.03965E+04 -1.99873E+04 -1.02627E+04 -3.51077E+03 -1.35509E+04
  1.85780E+03 -3.61943E+03 -2.91499E+03  6.01041E+03 -1.42944E+04  5.97797E+03 -1.41451E+04 -5.95918E+03
 -9.26372E+03 -1.64128E+04  4.02783E+03 -2.13053E+04  1.32505E+04 -1.48735E+04  1.63312E+04 -2.11496E+03
  9.54805E+03  1.12707E+04 -6.85497E+02  1.66697E+04 -1.17953E+04  8.62524E+03 -1.67695E+04 -3.75982E+03
 -1.25906E+04 -1.58814E+04 -2.48710E+03 -2.06611E+04  8.77667E+03 -1.65000E+04  1.73658E+04 -7.98620E+03
  1.52997E+04  7.07929E+02  1.14362E+04  4.66713E+03  5.64253E+03  9.83756E+02  8.63846E+03 -1.87656E+03
  1.45510E+04  3.18067E+03  1.64481E+04  1.37535E+04  9.05538E+03  2.64876E+04 -3.88844E+03  2.83972E+04
 -1.58814E+04  2.36286E+04 -2.60006E+04  1.16795E+04 -2.72069E+04 -2.49163E+03 -2.35205E+04 -1.61353E+04
 -1.10995E+04 -2.18061E+04  8.67152E+03 -2.12459E+04  1.79692E+04 -1.19041E+04  1.62097E+04  3.20926E+03
  5.09914E+03  1.20026E+04 -8.26992E+03  1.08610E+04 -1.35809E+04  2.73412E+03 -1.10354E+04 -8.48275E+03
 -3.43550E+02 -1.36379E+04  6.23353E+03 -1.00897E+04  7.82738E+03 -2.23642E+03  2.01101E+03  4.98698E+03
 -6.10105E+03  2.04880E+03 -4.98180E+03 -4.46317E+03  1.22682E+03 -1.06505E+04  9.47032E+03 -1.02100E+04
  1.49644E+04 -5.55628E+03  1.48185E+04  2.39496E+03  1.34718E+04  9.88409E+03  5.67729E+03  1.67207E+04
 -2.71967E+03  1.80542E+04 -1.23092E+04  1.10106E+04 -1.33482E+04  3.11677E+03 -1.04480E+04 -2.82275E+03
 -5.18510E+03 -3.97739E+03 -5.83373E+02  1.90283E+03 -2.44694E+03  1.80237E+03 -4.78696E+03  3.35445E+03
 -8.88813E+03 -1.52293E+02 -8.57850E+03 -9.62598E+03 -4.58215E+03 -1.27301E+04  4.27799E+03 -9.47635E+03
  8.16057E+03 -4.36435E+03  5.82598E+03  2.35829E+03  1.71077E+03  3.85891E+03 -3.19286E+03  8.57781E+01
 -4.56239E+03 -5.80513E+03 -1.34331E+03 -8.82715E+03  4.61663E+03 -9.33132E+03  1.14019E+04 -5.62897E+03
  1.35025E+04  1.26052E+03  9.25403E+03  8.07966E+03  1.79480E+03  1.06522E+04 -4.95530E+03  9.39040E+03
 -8.07478E+03  4.03992E+03 -4.22655E+03 -1.49734E+03  2.34801E+03 -2.70515E+03  6.34264E+03 -1.29713E+03
  4.74445E+03  4.03979E+03  8.44356E+02  6.56777E+03 -5.60479E+03  7.83806E+03 -8.99268E+03  1.33608E+03
 -6.46092E+03 -4.82959E+03 -6.58728E+02 -6.62892E+03  3.33983E+03 -3.94352E+03  4.36837E+03  2.43619E+03
 -3.83482E+02  4.69271E+03 -5.17449E+03  6.28788E+03 -6.13576E+03  1.17245E+03 -5.55569E+03 -1.50748E+03
 -3.73633E+03 -7.00172E+03  2.19860E+03 -8.92324E+03  7.71463E+03 -5.30307E+03  8.60870E+03  1.48829E+03
  5.41774E+03  6.18834E+03 -1.75347E+03  7.84279E+03 -6.99927E+03  4.22071E+03 -6.49615E+03  1.92568E+01
 -6.16398E+03 -6.27937E+03 -6.47078E+02 -5.58306E+03  2.67306E+03 -5.47626E+03  4.67873E+03 -2.62203E+03
  3.47711E+03  1.10400E+02  6.19376E+02  5.45472E+01  9.86411E+02 -1.90236E+02  9.15442E+02 -2.27412E+03
  4.88612E+03 -1.38123E+03  6.97144E+03  7.08565E+01  7.23514E+03  4.82686E+03  6.01315E+03  9.22912E+03
 -1.74281E+03  1.01539E+04 -9.69326E+03  9.20898E+03 -1.26983E+04  1.67772E+03 -1.02484E+04 -4.82644E+03
 -5.87606E+03 -7.60093E+03 -1.77494E+02 -6.02103E+03  2.45058E+03 -1.20709E+03  2.06671E+03 -1.98455E+03
  1.85107E+03 -1.93475E+03  3.15151E+03 -2.88170E+03  5.34180E+03 -1.36442E+03  3.79038E+03 -1.42133E+02
  5.23607E+03  1.31559E+03  1.09589E+03  5.51983E+03 -2.32026E+03  3.91736E+03 -4.96761E+03  3.96200E+03
 -6.89231E+03 -4.88832E+02 -2.13834E+03 -4.64087E+03  5.14653E+02 -6.10897E+03  3.99799E+03 -8.32773E+03
  6.49027E+03 -4.01602E+03  8.62415E+03  2.29921E+02  7.09445E+03  5.77568E+03  5.92721E+02  7.12676E+03
 -3.27728E+03  7.78382E+03 -5.48803E+03  2.64618E+03 -2.88094E+03 -8.91671E+02  9.54677E+02 -1.40196E+02
 -6.91084E+01  4.11725E+02 -1.03338E+03  3.07164E+03 -3.34176E+03  1.09482E+03 -4.49334E+03  1.27959E+03
 -4.48402E+03 -4.53018E+03  1.00174E+03 -6.54183E+03  3.73911E+03 -6.26627E+03  5.99639E+03 -9.53019E+02
  5.77566E+03  2.38425E+03  1.06094E+03  6.09329E+03 -7.18407E+02  5.19277E+03 -4.27875E+03  3.19817E+03
 -6.09399E+03  1.67121E+03 -5.37293E+03 -3.35431E+03 -1.27892E+03 -4.57420E+03  3.28350E+03 -2.92204E+03
  2.98666E+03 -2.42318E+03  2.03893E+03  6.78874E+02  1.11943E+03  1.80726E+03  4.81466E+02  2.68543E+02
  8.78076E+02 -2.59686E+02  1.10999E+03  7.46665E+02  1.64049E+03  3.30888E+03  1.46280E+03  2.84526E+03
 -6.58617E+02  4.20708E+03 -4.13848E+03  4.63533E+03 -3.81125E+03  1.62250E+03 -6.62237E+03 -1.78781E+03
 -3.65712E+03 -6.73002E+03  1.30188E+03 -6.18140E+03  2.45863E+03 -4.17382E+03  4.89154E+03 -3.86843E+02
  2.86233E+03  1.93097E+03  1.17960E+03  1.99965E+03 -1.90636E+02  2.53665E+03 -1.26220E+03 -6.86511E+02
 -6.34577E+02 -2.42422E+03  1.00367E+03 -2.23538E+03  1.82227E+03  4.57315E+01  2.43460E+03  3.74395E+02
  8.03555E+02  1.86563E+02 -9.24442E+01  4.07767E+02  1.49430E+02  8.26065E+02  2.04119E+03 -1.05386E+03
  1.26997E+02  1.50974E-01  1.44884E+03  1.56821E+03  7.42556E+02  3.33767E+03 -4.18648E+02  4.07061E+03
 -2.30319E+03  1.59044E+03 -1.88031E+03  1.26562E+02 -2.07210E+03 -8.86543E+02 -1.10865E+01 -1.89802E+03
  8.05209E+02 -1.95639E+03  1.51627E+03 -9.61608E+02  1.10199E+03  2.26596E+03 -1.19844E+03  2.28732E+03
 -3.62841E+03  2.31342E+03 -1.27637E+03 -1.25683E+03 -1.23167E+03 -4.09665E+03  1.46975E+01 -1.43000E+03
  7.70561E+01 -9.73355E+02  8.15292E+02 -1.71993E+02  1.52580E+03 -6.49945E+02 -8.16069E+01  1.73888E+03
 -7.78127E+02 -7.54812E+02 -3.91968E+02  1.82548E+02  2.67198E+02 -1.98569E+03  3.47130E+03 -1.62492E+03
  2.74591E+03  1.86626E+02  4.15943E+03  2.22600E+03  1.56747E+03  3.56633E+03  8.74218E+02  3.64129E+03
 -2.92385E+03 -5.68586E+02 -1.31732E+03 -6.83437E+02 -1.98149E+03 -1.61513E+03  5.61473E+02 -3.95860E+02
  1.82087E+03 -3.66408E+02  1.86352E+03  1.38336E+03  8.88700E+02  1.91628E+03 -1.50964E+02  1.32014E+03
 -1.51000E+03  2.26877E+03 -9.47998E+02  1.36470E+03  1.59953E+02  8.74774E+02 -1.11304E+03  1.77454E+03
 -9.06371E+02  1.83269E+03 -3.04054E+03  3.67510E+02 -3.26644E+03 -2.06324E+02 -3.43622E+03 -1.78573E+03
 -6.55398E+02 -3.42242E+03  8.92826E+02 -4.72458E+03  1.00212E+03 -3.55373E+03  4.01098E+03 -7.22348E+02
  3.13818E+03  3.16383E+02  2.13650E+03  3.08256E+03 -5.50214E+02  2.30937E+03 -2.34817E+03  2.24542E+03
 -1.88923E+03  2.14212E+03 -3.28383E+02  2.66551E+02 -2.36582E+02 -5.72788E+02 -4.30242E+02 -3.78472E+02
 -1.36452E+03 -2.64123E+01 -7.96760E+02 -4.75527E+02 -9.18237E+02 -3.58334E+02 -1.09336E+03 -2.14746E+03
  9.61020E+02 -1.43941E+03  1.09689E+03 -1.07266E+03  1.31296E+03  1.08616E+03 -1.24225E+02  3.17088E+03
 -1.34741E+03  2.99770E+03 -2.59690E+03  2.70937E+03 -3.42694E+03 -9.42694E+02 -3.98851E+03 -1.45028E+03
 -1.24906E+03 -3.34590E+03 -1.57707E+02 -2.60149E+03  2.14717E+03 -3.31552E+02  2.74761E+03 -4.81980E+01
  1.01355E+03  8.32330E+02 -3.03197E+02 -8.80947E+01 -1.23213E+03 -5.21309E+02  3.94743E+02 -1.08558E+02
  4.79886E+02 -1.05958E+03  6.91263E+02  1.18746E+03  1.42069E+02  5.07200E+02  1.00200E+03  1.10248E+03
  9.27306E+01  5.73734E+02 -1.63963E+03  4.71810E+02 -1.11010E+03 -6.92049E+02  1.75951E+01 -1.55359E+03
  3.54505E+01 -1.14817E+03  1.91588E+03 -4.72171E+02  8.23737E+02 -5.15495E+02  4.02195E+02  1.39829E+03
 -1.15489E+02  4.39132E+02 -6.32552E+02  1.86611E+03 -2.85077E+02  1.28740E+03  2.46213E+02  9.69046E+02
 -5.00440E+02 -4.19541E+02 -1.36439E+03  6.49444E+02 -1.23106E+03 -2.41472E+02 -1.40317E+03  7.10039E+02
 -1.26100E+03  4.98531E+01 -1.07897E+03 -1.50105E+03  9.63090E+02 -1.09681E+03  1.51127E+03 -1.82274E+02
  2.00229E+03 -1.16806E+02  3.12197E+02 -5.99403E+01 -4.73625E+02  1.63048E+03 -1.13491E+03  1.34013E+03
