 $NMID ID='MM_0lb_SNR200_11hz_g40_32.RAW', FMTDAT='(8E13.5)'
 TRAMP=1., VOLUME=1. $END
  3.08774E+05  3.24770E+02  3.38037E+05  2.49304E+05  8.55099E+04  3.39110E+05 -1.33161E+05  2.51502E+05
 -1.89265E+05  8.37764E+04 -1.13124E+05 -3.30147E+04  1.03337E+03 -5.02466E+04  5.35373E+04 -8.00902E+02
  3.50156E+04  5.38663E+04 -1.62502E+04  7.62368E+04 -6.01710E+04  6.21776E+04 -8.43879E+04  3.33568E+04
 -8.07292E+04 -1.15673E+04 -5.85900E+04 -5.26112E+04 -1.51975E+04 -7.05428E+04  2.79346E+04 -4.58926E+04
  4.02145E+04  3.51112E+03  1.64974E+04  4.79793E+04 -3.45636E+04  4.59921E+04 -6.77632E+04 -1.62152E+03
 -5.39289E+04 -5.82477E+04 -6.88702E+03 -7.80971E+04  3.32094E+04 -5.61537E+04  4.95384E+04 -1.74450E+04
  4.48630E+04  1.14175E+04  3.27170E+04  2.60387E+04  1.67679E+04  2.94923E+04 -4.59285E+03  2.78802E+04
 -2.29632E+04  1.35201E+04 -1.85049E+04 -5.85391E+03  5.28964E+03 -7.88080E+03  2.27936E+04  1.33677E+04
  7.32380E+03  3.60929E+04 -3.16937E+04  3.62164E+04 -6.43764E+04  4.90157E+02 -5.76626E+04 -4.44569E+04
 -1.17749E+04 -6.28933E+04  3.98353E+04 -4.60414E+04  5.95252E+04 -3.27273E+03  3.47584E+04  3.34170E+04
 -5.36561E+03  3.67447E+04 -3.04410E+04  1.60174E+04 -3.15125E+04 -3.27735E+03 -1.60820E+04 -9.51988E+03
 -9.31676E+03 -1.33149E+04 -1.30681E+03 -1.73066E+04  7.68730E+03 -2.20118E+04  1.59863E+04 -1.30052E+04
  1.00397E+04  4.80392E+03 -8.73557E+03  1.23446E+04 -2.12466E+04 -5.32228E+03 -9.16600E+03 -3.36455E+04
  2.46171E+04 -4.48161E+04  4.90340E+04 -2.06158E+04  4.67434E+04  1.91615E+04  1.71845E+04  4.53893E+04
 -1.70277E+04  3.49968E+04 -2.59349E+04  1.34739E+03 -9.98631E+03 -2.90963E+04  2.07588E+04 -3.44573E+04
  4.34523E+04 -1.13773E+04  3.91157E+04  2.38835E+04  1.82563E+04  4.92590E+04 -8.75289E+03  5.25732E+04
 -3.33993E+04  3.73295E+04 -4.31173E+04  9.97236E+03 -4.57646E+04 -1.70020E+04 -2.34009E+04 -4.03224E+04
  7.33905E+03 -3.91989E+04  3.32120E+04 -1.53394E+04  3.04129E+04  1.19643E+04  4.00767E+03  1.98621E+04
 -1.25882E+04  9.15549E+03 -1.05867E+04 -8.19996E+03  6.95173E+03 -9.56240E+03  1.88000E+04  6.95093E+03
  1.29715E+04  2.22649E+04 -5.64084E+03  2.56403E+04 -2.16869E+04  1.13604E+04 -2.85918E+04 -5.03393E+03
 -2.18616E+04 -1.76891E+04 -9.36713E+03 -2.22289E+04  4.68214E+03 -2.13133E+04  1.67401E+04 -2.01654E+04
  2.80992E+04 -1.36653E+04  3.37583E+04  4.40750E+03  2.54530E+04  2.26812E+04  5.22203E+03  3.80660E+04
 -1.88169E+04  3.24297E+04 -2.80568E+04  1.05138E+04 -2.14847E+04 -1.08475E+04 -3.34449E+03 -1.20637E+04
  1.65491E+03 -2.34783E+03 -4.82377E+03  6.81172E+03 -1.79893E+04  4.98353E+03 -1.74731E+04 -8.66187E+03
 -1.15037E+04 -1.96516E+04  4.62571E+03 -2.50740E+04  1.65725E+04 -1.84336E+04  1.97709E+04 -2.04602E+03
  1.23127E+04  1.32216E+04 -2.80623E+02  2.18119E+04 -1.45477E+04  1.17559E+04 -2.08114E+04 -3.38230E+03
 -1.58030E+04 -1.79418E+04 -3.17902E+03 -2.51776E+04  1.14250E+04 -1.97131E+04  2.02024E+04 -1.10417E+04
  1.93673E+04 -5.64684E+02  1.45366E+04  4.43913E+03  7.64588E+03  2.18465E+03  1.01146E+04 -2.12450E+03
  1.94180E+04  3.50424E+03  2.16081E+04  1.73986E+04  1.42517E+04  3.39893E+04 -2.62994E+03  3.83762E+04
 -2.16540E+04  3.11560E+04 -3.61264E+04  1.49753E+04 -3.83125E+04 -2.07909E+03 -3.09276E+04 -2.21080E+04
 -1.17437E+04 -3.09630E+04  1.17524E+04 -2.85779E+04  2.34293E+04 -1.39144E+04  2.20729E+04  7.23521E+03
  8.47544E+03  1.57700E+04 -9.54283E+03  1.35646E+04 -1.80623E+04  2.49984E+03 -1.29028E+04 -1.14871E+04
 -9.29366E+02 -1.66260E+04  8.60441E+03 -1.38134E+04  1.15221E+04 -2.66044E+03  2.58798E+03  7.63550E+03
 -8.07361E+03  3.64837E+03 -7.62842E+03 -5.73073E+03 -9.96489E+02 -1.63473E+04  1.05929E+04 -1.54118E+04
  1.86706E+04 -9.85641E+03  2.02095E+04  3.81886E+03  1.92064E+04  1.53993E+04  9.34659E+03  2.40460E+04
 -2.43230E+03  2.49660E+04 -1.62719E+04  1.57033E+04 -1.83470E+04  3.48925E+03 -1.33123E+04 -3.46327E+03
 -5.07240E+03 -6.46664E+03  7.76208E+01  2.85230E+02 -2.13604E+03  2.85502E+03 -6.64785E+03  4.24586E+03
 -1.16685E+04 -7.09508E+02 -1.40507E+04 -1.06365E+04 -6.04100E+03 -1.59590E+04  5.49690E+03 -1.37250E+04
  1.10511E+04 -6.09175E+03  8.84151E+03  4.05885E+03 -8.01009E+02  4.68079E+03 -5.33348E+03 -4.11853E+00
 -6.37986E+03 -8.53465E+03 -1.43027E+03 -1.20178E+04  7.74317E+03 -1.32544E+04  1.68152E+04 -7.94557E+03
  1.91262E+04  9.96882E+02  1.29506E+04  1.11155E+04  2.31578E+03  1.55350E+04 -7.27985E+03  1.39914E+04
 -1.03509E+04  3.26391E+03 -6.18229E+03 -3.93090E+03  2.20106E+03 -2.92452E+03  6.84898E+03 -3.97026E+02
  7.05536E+03  5.40735E+03  1.57615E+03  1.08552E+04 -8.40910E+03  1.10811E+04 -1.28742E+04  3.58822E+03
 -8.31548E+03 -7.84492E+03  1.13363E+03 -1.11352E+04  5.65460E+03 -4.49163E+03  7.59892E+03  1.70247E+03
  2.54608E+03  7.30323E+03 -7.70258E+03  8.74909E+03 -1.06340E+04  4.88474E+03 -1.03681E+04 -2.56765E+03
 -6.26649E+03 -1.33607E+04  1.85058E+03 -1.53906E+04  1.21491E+04 -9.19117E+03  1.30651E+04  2.59804E+03
  7.67327E+03  1.05447E+04  6.23947E+02  1.32833E+04 -8.20777E+03  7.27732E+03 -8.22033E+03 -2.52458E+03
 -8.69981E+03 -8.91709E+03 -2.08792E+03 -1.00384E+04  5.61593E+03 -6.39517E+03  5.40798E+03 -3.04580E+03
  4.56768E+03  2.01312E+03 -2.81320E+02  2.08903E+03 -9.70564E+02 -3.76618E+03  1.14056E+03 -6.03003E+03
  9.47713E+03 -3.87420E+03  1.16314E+04  1.12571E+02  1.16549E+04  8.85354E+03  9.67371E+03  1.63714E+04
 -4.77117E+03  1.90172E+04 -1.48609E+04  1.38141E+04 -2.01572E+04  1.64511E+03 -1.68123E+04 -6.99219E+03
 -8.84882E+03 -1.33303E+04  2.03503E+02 -1.05969E+04  4.29641E+03 -6.83853E+03  3.47386E+03 -2.62389E+03
  3.83478E+03 -2.05984E+03  3.19531E+03 -3.68534E+03  4.45821E+03 -3.68259E+03  6.43563E+03 -1.79298E+03
  8.15577E+03  3.08055E+03  2.73136E+03  6.62642E+03 -1.22548E+03  8.30959E+03 -8.47426E+03  8.08820E+03
 -1.04371E+04 -1.60184E+03 -7.06176E+03 -6.33840E+03 -6.76993E+02 -1.18843E+04  5.02982E+03 -1.15694E+04
  1.20390E+04 -6.70466E+03  1.56855E+04  1.47387E+03  1.09184E+04  9.24370E+03  1.98686E+03  1.30660E+04
 -6.91074E+03  1.17461E+04 -6.89272E+03  3.49339E+03 -4.64372E+03 -2.92401E+02 -6.80805E+02 -1.42320E+03
 -8.77301E+02 -6.60728E+02 -2.30494E+03  1.77499E+03 -5.27721E+03  2.29056E+03 -7.07444E+03 -6.01239E+02
 -4.72715E+03 -7.97549E+03  6.05612E+02 -9.51082E+03  6.97047E+03 -9.79431E+03  1.12748E+04 -3.37517E+03
  1.11917E+04  5.67267E+03  4.92496E+03  8.77900E+03 -2.16955E+03  1.02882E+04 -6.23369E+03  6.20288E+03
 -9.80076E+03  7.11535E+02 -7.77525E+03 -5.23042E+03 -8.17171E+02 -8.81434E+03  4.36804E+03 -5.90916E+03
  6.41712E+03 -2.53081E+03  4.01732E+03  1.43608E+03  6.35537E+02  2.83610E+03  1.43536E+03  1.58329E+03
  1.62456E+03  2.03739E+02  3.77332E+03  1.33870E+03  2.18200E+03  4.87285E+03  3.18095E+03  4.68598E+03
 -2.20318E+03  8.42840E+03 -6.86347E+03  8.00522E+03 -1.08848E+04  2.01668E+03 -1.08950E+04 -3.76814E+03
 -4.58957E+03 -9.79896E+03  1.22445E+03 -1.11567E+04  5.86415E+03 -8.47690E+03  8.03423E+03 -2.22380E+03
  6.04259E+03  3.52968E+03  2.31960E+03  5.27025E+03 -3.26372E+03  3.66301E+03 -5.17775E+03 -9.15127E+02
 -1.67554E+03 -3.60199E+03  2.47310E+03 -5.04975E+03  4.28924E+03 -2.30336E+03  2.80932E+03 -3.26415E+02
  3.02437E+03  1.07761E+03  1.15533E+03  1.82894E+03 -5.13076E+02  2.39530E+03  4.25025E+00  1.10107E+03
  1.09256E+03 -3.46618E+02  5.19462E+03  1.79433E+03  1.10950E+03  5.31026E+03 -1.48476E+03  6.10307E+03
 -5.24846E+03  4.01299E+03 -5.98977E+03  2.63048E+03 -5.71606E+03 -3.30034E+03 -2.78117E+03 -4.54960E+03
  1.90202E+03 -4.01288E+03  3.62180E+03 -4.35630E+02  2.82247E+03  2.32320E+03  1.40468E+02  2.84860E+03
 -3.76674E+03  1.73174E+03 -3.85921E+03 -2.81676E+03 -2.57964E+03 -5.89062E+03  4.49282E+02 -6.51534E+03
  3.30125E+03 -2.82158E+03  3.01898E+03  1.16868E+03  3.01403E+03  1.00747E+03  1.58166E+03  2.52695E+03
 -2.34953E+03  3.91801E+02 -1.78374E+03 -2.03401E+03  4.72805E+02 -4.48132E+03  4.97106E+03 -2.48212E+03
  5.40398E+03 -2.79837E+02  7.83863E+03  4.75283E+03  2.08341E+03  8.19930E+03 -2.04532E+03  7.40760E+03
 -6.09050E+03  3.27941E+03 -5.88706E+03 -1.25985E+03 -1.82901E+03 -4.79534E+03  1.59236E+03 -4.45012E+03
  5.60216E+03 -2.46564E+03  1.87720E+03  2.59220E+03  4.21665E+02  2.60594E+03 -7.44394E+02  2.90629E+03
 -2.18237E+03  3.06637E+03 -2.15005E+03  1.77169E+03 -1.03712E+03  4.84180E+02 -2.93702E+02  1.34479E+03
 -2.02562E+03  2.08533E+03 -4.72097E+03  4.10276E+03 -6.33084E+03 -7.20145E+01 -7.08093E+03 -3.32529E+03
 -2.76748E+03 -8.01315E+03  2.42406E+03 -1.13767E+04  6.14173E+03 -9.14738E+03  9.53765E+03 -3.99720E+03
  8.97683E+03  1.58446E+03  5.11162E+03  4.76131E+03  1.57724E+02  6.68754E+03 -2.86110E+03  4.83063E+03
 -3.46958E+03  2.73404E+03 -1.91866E+03 -1.30831E+03 -1.60313E+03 -9.57077E+02 -1.31194E+03  9.19123E+02
 -2.65622E+03 -5.75394E+02 -2.03281E+03  6.00188E+02 -5.19619E+02 -1.43604E+03 -2.29611E+01 -1.73100E+03
  2.67151E+03 -2.41865E+03  2.97612E+03  2.24866E+01  4.50216E+03  3.36876E+03  1.27063E+03  4.64001E+03
 -3.19039E+03  8.36185E+03 -7.30637E+03  4.58680E+03 -7.86453E+03 -1.11394E+03 -5.86618E+03 -2.77616E+03
 -3.56378E+03 -7.74495E+03  1.38732E+03 -6.66579E+03  4.24359E+03 -2.87509E+03  4.54500E+03  2.63211E+02
  2.45612E+03  3.51093E+03  8.51446E+02  1.84582E+03 -4.92742E+02  1.78439E+01  1.30362E+03 -3.61123E+02
  1.61535E+03 -1.71577E+03  1.07369E+03  4.27229E+02  2.12346E+03  2.14081E+03  1.46115E+03  3.84984E+03
 -2.36456E+03  3.68283E+03 -3.88174E+03 -7.83345E+02 -2.54694E+03 -3.74793E+03 -9.17477E+02 -5.49210E+03
  1.24247E+03 -2.92273E+03  5.72825E+03 -2.07412E+02  5.91752E+03  6.30408E+02  2.87881E+03  4.39895E+03
 -6.48456E+02  3.28151E+03 -1.58541E+03  2.06981E+03 -3.41449E+03  1.71268E+03 -1.28650E+03  2.43325E+02
 -1.00737E+03 -7.78566E+01 -1.91052E+03  7.93713E+02 -1.91884E+03  7.43914E+02 -4.48842E+03 -3.39249E+02
 -3.20918E+03 -1.93954E+03  2.95607E+02 -2.12203E+03  1.65470E+03 -5.04594E+03  4.39867E+03 -8.24971E+02
  4.78699E+03  5.36938E+02  2.11003E+03  4.12628E+03 -7.40092E+02  4.13132E+03 -2.96729E+03  3.13895E+03
