 $NMID ID='MM_0lb_SNR200_11hz_g50_51.RAW', FMTDAT='(8E13.5)'
 TRAMP=1., VOLUME=1. $END
  3.10403E+05  5.00466E+02  3.37076E+05  2.50775E+05  8.39527E+04  3.39372E+05 -1.32099E+05  2.51500E+05
 -1.89112E+05  8.44424E+04 -1.12882E+05 -3.22414E+04  4.31274E+02 -4.96536E+04  5.49508E+04 -1.15832E+03
  3.50504E+04  5.45740E+04 -1.60998E+04  7.53807E+04 -6.06263E+04  6.29148E+04 -8.43046E+04  3.25152E+04
 -8.25818E+04 -1.15896E+04 -5.92090E+04 -5.11234E+04 -1.48872E+04 -6.92609E+04  2.84454E+04 -4.55358E+04
  4.11462E+04  3.94192E+03  1.74911E+04  4.85582E+04 -3.38774E+04  4.78414E+04 -6.81631E+04 -4.23159E+02
 -5.43139E+04 -5.57495E+04 -6.19637E+03 -7.69289E+04  3.51930E+04 -5.63544E+04  4.99843E+04 -1.91133E+04
  4.47739E+04  1.16533E+04  3.34334E+04  2.67676E+04  1.59305E+04  3.04939E+04 -6.91757E+03  2.75865E+04
 -2.27464E+04  1.33246E+04 -1.86505E+04 -4.33565E+03  8.10719E+03 -5.72832E+03  2.34821E+04  1.20175E+04
  6.98638E+03  3.66576E+04 -3.27046E+04  3.70858E+04 -6.42839E+04  2.16930E+03 -5.90131E+04 -4.31671E+04
 -1.25875E+04 -6.34051E+04  4.14356E+04 -4.61986E+04  5.95966E+04 -1.54948E+03  3.61276E+04  3.25951E+04
 -7.21445E+03  3.68299E+04 -3.14412E+04  1.66813E+04 -3.19288E+04 -3.45301E+03 -1.84212E+04 -1.18210E+04
 -8.60091E+03 -1.49092E+04 -3.99194E+02 -2.03064E+04  8.50020E+03 -2.47517E+04  1.54999E+04 -1.37892E+04
  1.26783E+04  6.06066E+03 -9.36839E+03  1.31285E+04 -2.23287E+04 -5.08712E+03 -8.48900E+03 -3.77298E+04
  2.38525E+04 -4.58990E+04  5.07363E+04 -2.09207E+04  4.68086E+04  2.12172E+04  1.56209E+04  4.67935E+04
 -1.69702E+04  3.47994E+04 -2.68020E+04  3.24882E+03 -1.17539E+04 -2.88161E+04  2.08915E+04 -3.47654E+04
  4.36003E+04 -1.06468E+04  3.94657E+04  2.48953E+04  2.05994E+04  4.89502E+04 -8.12599E+03  5.45829E+04
 -3.47304E+04  3.66694E+04 -4.56749E+04  1.15145E+04 -4.46125E+04 -1.70216E+04 -2.45532E+04 -3.94100E+04
  6.99810E+03 -4.04359E+04  3.35163E+04 -1.53003E+04  3.08825E+04  1.08711E+04  5.96848E+03  1.98198E+04
 -1.43465E+04  8.93647E+03 -1.12894E+04 -7.44106E+03  6.29743E+03 -1.01239E+04  1.82821E+04  6.78393E+03
  1.45562E+04  2.21501E+04 -5.93942E+03  2.57742E+04 -2.30290E+04  1.39996E+04 -3.04291E+04 -2.66703E+03
 -2.57469E+04 -1.78873E+04 -1.08721E+04 -2.34588E+04  3.55291E+03 -2.37884E+04  1.86218E+04 -2.04148E+04
  2.84281E+04 -1.54954E+04  3.55560E+04  3.70806E+03  2.49391E+04  2.29588E+04  4.37416E+03  3.67774E+04
 -1.89957E+04  3.33286E+04 -2.85687E+04  1.22839E+04 -2.17024E+04 -1.09017E+04 -3.84042E+03 -1.32283E+04
  1.67748E+03 -1.00546E+03 -6.65263E+03  6.79739E+03 -1.82844E+04  6.06608E+03 -1.88307E+04 -8.40385E+03
 -1.11510E+04 -2.16955E+04  7.04138E+03 -2.57399E+04  1.82133E+04 -1.97210E+04  2.00073E+04 -2.02487E+03
  1.25476E+04  1.49196E+04 -1.12273E+03  2.24688E+04 -1.57962E+04  1.11127E+04 -2.24716E+04 -4.57162E+03
 -1.65139E+04 -1.93707E+04 -2.08545E+03 -2.58512E+04  1.08408E+04 -2.13704E+04  2.25983E+04 -1.12832E+04
  1.95719E+04 -1.62568E+02  1.40900E+04  4.62915E+03  7.75237E+03  1.28158E+03  1.08677E+04 -1.46921E+03
  1.96013E+04  3.26733E+03  2.30475E+04  1.69057E+04  1.55787E+04  3.45675E+04 -2.13565E+03  4.11274E+04
 -2.22385E+04  3.26713E+04 -3.79667E+04  1.78302E+04 -3.99814E+04 -3.30831E+03 -3.16578E+04 -2.23010E+04
 -1.26355E+04 -3.25050E+04  1.02880E+04 -2.96459E+04  2.49624E+04 -1.39451E+04  2.39738E+04  6.87952E+03
  7.06756E+03  1.57762E+04 -1.17055E+04  1.53185E+04 -1.76885E+04  2.63412E+03 -1.41485E+04 -1.29487E+04
  7.59799E+01 -1.79386E+04  9.07869E+03 -1.32156E+04  1.27701E+04 -1.79493E+03  2.74100E+03  8.23740E+03
 -8.02536E+03  3.34228E+03 -8.43886E+03 -6.71490E+03 -1.74881E+03 -1.65320E+04  1.13432E+04 -1.81680E+04
  2.00593E+04 -9.43116E+03  2.29149E+04  3.18644E+03  1.93185E+04  1.74444E+04  9.86941E+03  2.61860E+04
 -4.96156E+03  2.86207E+04 -1.75047E+04  1.65686E+04 -1.89236E+04  4.61809E+03 -1.57570E+04 -4.99958E+03
 -6.17641E+03 -4.86334E+03 -1.06567E+02  8.35536E+02 -3.72477E+03  3.35103E+03 -7.09688E+03  4.45330E+03
 -1.24914E+04  2.64428E+02 -1.18361E+04 -1.03062E+04 -5.71602E+03 -1.66531E+04  6.53210E+03 -1.49363E+04
  1.11126E+04 -5.95233E+03  8.52251E+03  3.64082E+03 -1.10349E+03  4.35802E+03 -6.90770E+03 -1.34178E+03
 -6.26404E+03 -9.92201E+03 -3.47070E+02 -1.37555E+04  7.09363E+03 -1.43776E+04  1.75489E+04 -6.28490E+03
  2.03103E+04  2.91531E+03  1.56926E+04  1.12802E+04  3.72714E+03  1.53397E+04 -8.82754E+03  1.34765E+04
 -9.95131E+03  3.91947E+03 -6.24715E+03 -2.15890E+03  1.79562E+03 -3.92268E+03  8.35319E+03 -2.27235E+03
  7.05333E+03  5.69989E+03  1.76191E+03  1.07609E+04 -7.90708E+03  1.14361E+04 -1.38894E+04  3.29874E+03
 -1.02143E+04 -8.41798E+03 -4.93707E+02 -1.14931E+04  7.32901E+03 -6.46966E+03  7.36051E+03  2.24646E+03
  1.24016E+03  8.90230E+03 -6.99484E+03  9.73172E+03 -1.15002E+04  5.62174E+03 -1.20617E+04 -3.88300E+03
 -5.72393E+03 -1.26790E+04  1.40858E+03 -1.54137E+04  1.18802E+04 -7.86809E+03  1.45222E+04  3.53345E+03
  8.15410E+03  1.06688E+04 -7.96764E+02  1.35557E+04 -1.04556E+04  8.09703E+03 -1.13555E+04 -1.32006E+03
 -9.71901E+03 -9.97858E+03 -2.75102E+03 -9.48905E+03  5.56801E+03 -9.96044E+03  7.36634E+03 -2.50145E+03
  5.35267E+03  7.50377E+02 -5.54247E+02  2.75414E+03 -5.01565E+02 -3.02767E+03  3.08792E+03 -5.09806E+03
  1.09384E+04 -2.55168E+03  1.39031E+04  1.75003E+03  1.28343E+04  9.03119E+03  8.99244E+03  1.79493E+04
 -2.95086E+03  1.97126E+04 -1.70029E+04  1.50517E+04 -2.14463E+04  3.13554E+03 -1.65569E+04 -7.21346E+03
 -8.04927E+03 -1.35600E+04  8.96923E+02 -1.16257E+04  5.24085E+03 -6.33219E+03  4.03364E+03 -4.69019E+03
  1.56261E+03 -2.18467E+03  2.84328E+03 -5.01113E+03  2.64029E+03 -2.36206E+03  5.87759E+03 -1.37046E+03
  8.63368E+03  2.02655E+03  3.49516E+03  8.19737E+03 -2.63903E+03  8.75919E+03 -9.43092E+03  4.84453E+03
 -1.15366E+04 -9.58489E+02 -7.41085E+03 -8.11722E+03 -1.02299E+03 -1.15798E+04  6.56502E+03 -1.25265E+04
  1.47115E+04 -7.94775E+03  1.62418E+04  2.20573E+03  1.17117E+04  1.19475E+04  1.71619E+03  1.45825E+04
 -5.19614E+03  1.22247E+04 -9.46676E+03  3.63702E+03 -5.56949E+03 -1.58716E+03 -2.24751E+03 -3.05836E+03
 -1.65930E+03  1.50450E+00 -1.46671E+03  3.17382E+03 -5.29895E+03  3.12503E+03 -7.78084E+03 -1.64784E+03
 -7.40519E+03 -9.27415E+03  1.23573E+03 -1.10535E+04  8.06438E+03 -1.04128E+04  1.11734E+04 -3.16585E+03
  1.15631E+04  4.99066E+03  4.99420E+03  9.42478E+03 -1.98219E+03  1.16687E+04 -8.32816E+03  7.56592E+03
 -1.08737E+04 -8.26934E+02 -7.98689E+03 -7.62832E+03 -1.53639E+03 -1.02967E+04  4.61214E+03 -7.13844E+03
  7.04351E+03 -3.13746E+03  4.05251E+03  2.62201E+03  1.68190E+03  3.22143E+03  1.13561E+03  1.97990E+03
  2.92417E+03  1.27754E+03  2.41924E+03  2.95769E+03  3.74338E+03  3.20996E+03  3.03104E+03  5.81132E+03
 -1.71214E+03  9.16781E+03 -7.15578E+03  9.02936E+03 -1.12047E+04  3.05662E+03 -1.16786E+04 -4.82356E+03
 -6.46271E+03 -1.16039E+04  1.42918E+03 -1.26921E+04  7.61588E+03 -6.81356E+03  8.67540E+03 -2.66266E+03
  7.45640E+03  3.09422E+03  1.19193E+03  5.84830E+03 -3.88275E+03  3.57349E+03 -3.02018E+03 -1.86173E+03
 -1.67916E+03 -4.32749E+03  2.04477E+03 -4.06965E+03  5.94914E+03 -3.65424E+03  5.64382E+03  9.07309E+02
  3.13984E+03  3.35682E+03  1.54293E+03  1.02217E+03  3.11156E+02  6.71057E+02  2.89918E+03 -2.20067E+02
  1.88461E+03 -1.06702E+03  4.23625E+03  2.01368E+03  2.17901E+03  6.15304E+03 -2.22646E+03  8.56335E+03
 -4.14853E+03  4.81035E+03 -7.09251E+03  1.95930E+03 -5.73490E+03 -3.57880E+03 -1.27153E+03 -4.51169E+03
  2.54989E+02 -3.12230E+03  3.68787E+03 -1.27928E+03  2.29661E+03  2.74489E+03 -2.48696E+03  4.68878E+03
 -4.72997E+03  2.88835E+03 -3.85970E+03 -3.72089E+03 -2.65074E+03 -7.68447E+03  6.97176E+02 -6.16423E+03
  4.05471E+03 -4.01498E+03  3.62402E+03 -7.35186E+02  4.40744E+03  1.11392E+03 -3.71026E+02  3.52518E+03
 -3.30156E+03 -3.28145E+02 -2.41183E+03 -3.09271E+03  3.47664E+02 -3.44292E+03  4.38455E+03 -2.91359E+03
  7.25229E+03 -1.73462E+02  6.36827E+03  5.43992E+03  3.16078E+03  7.03003E+03 -3.55051E+03  7.32327E+03
 -6.55629E+03  3.61835E+03 -6.56411E+03 -1.63479E+03 -2.33962E+03 -3.38355E+03 -4.15511E+02 -3.66086E+03
  5.23846E+03 -1.20488E+03  3.39226E+03  1.46637E+03  1.66170E+03  4.64614E+03 -1.24607E+03  4.47415E+03
 -1.87334E+03  3.92764E+03 -2.15610E+03  1.27124E+03 -5.91411E+02  9.03006E+02 -9.82765E+02  1.15074E+03
 -1.50563E+03  1.72712E+03 -5.15929E+03  1.63251E+03 -5.30829E+03  5.31567E+02 -8.61855E+03 -5.76015E+03
 -4.76729E+03 -8.89649E+03  1.75498E+03 -1.13589E+04  6.63719E+03 -7.95536E+03  9.94321E+03 -3.39877E+03
  7.70446E+03  2.13772E+03  4.46197E+03  7.47188E+03 -5.37577E+02  6.34098E+03 -4.38251E+03  7.17017E+03
 -4.00011E+03  3.62137E+03 -2.18152E+03 -2.34630E+02  2.21241E+02 -6.83120E+02 -1.19928E+03  8.97925E+02
 -2.74898E+03 -2.12776E+03 -2.72999E+03 -2.91493E+01  8.58010E+02 -1.23001E+03  3.54384E+01 -3.73746E+03
  2.91646E+03 -2.58156E+03  3.88198E+03  5.66434E+02  3.69491E+03  2.95846E+03  2.17894E+03  7.32971E+03
 -3.58391E+03  8.33540E+03 -7.72796E+03  5.13346E+03 -8.83334E+03 -1.56992E+03 -6.34068E+03 -6.33947E+03
 -3.69426E+03 -7.47722E+03  2.09402E+03 -7.49546E+03  3.94867E+03 -3.34553E+03  4.67032E+03  4.41310E+01
  3.61512E+03  1.66505E+03 -2.41907E+02  2.50086E+03 -3.83708E+02 -1.28678E+03 -7.03902E+02 -2.32541E+03
  1.88881E+03 -1.25039E+03  3.35229E+03  7.68831E+02  2.14879E+03  3.19239E+03 -6.88865E+02  3.56649E+03
 -1.75367E+03  2.76948E+03 -5.30193E+03 -1.77744E+02 -4.66448E+03 -4.00688E+03 -1.04080E+03 -6.05301E+03
  4.29957E+03 -4.61393E+03  6.11433E+03 -6.60619E+02  6.78625E+03 -2.56030E+02  3.48375E+03  4.17196E+03
  8.81674E+02  4.55887E+03 -3.24521E+03  3.77923E+03 -3.23106E+03  2.34445E+03 -2.06375E+03  9.69765E+02
 -1.25804E+03 -1.22325E+03 -2.08718E+03  9.74879E+02 -2.96774E+03  5.98602E+01 -3.14050E+03 -2.87352E+02
 -3.64860E+03 -1.65601E+03 -1.41316E+03 -3.91558E+03  1.95279E+03 -5.26174E+03  4.09857E+03 -2.64002E+03
  6.09885E+03  1.99418E+03  1.70473E+03  3.01916E+03  6.67049E+02  5.01692E+03 -2.57392E+03  2.89008E+03
