 $NMID ID='MM_0lb_SNR200_8hz_g60_52.RAW', FMTDAT='(8E13.5)'
 TRAMP=1., VOLUME=1. $END
  3.09874E+05 -1.49000E+02  3.37768E+05  2.52257E+05  8.53734E+04  3.38310E+05 -1.32610E+05  2.52724E+05
 -1.91941E+05  8.52710E+04 -1.15478E+05 -3.24246E+04  4.31507E+02 -5.05208E+04  5.50875E+04 -1.11773E+03
  3.45841E+04  5.40672E+04 -1.57439E+04  7.73812E+04 -6.10697E+04  6.55881E+04 -8.44267E+04  3.24445E+04
 -8.31775E+04 -1.09900E+04 -5.87695E+04 -5.30601E+04 -1.52838E+04 -7.16997E+04  3.07609E+04 -4.65731E+04
  4.25587E+04  3.89254E+03  1.68006E+04  4.85457E+04 -3.52608E+04  5.04869E+04 -6.81548E+04 -7.88188E+01
 -5.65220E+04 -5.67536E+04 -5.96385E+03 -8.11453E+04  3.45733E+04 -5.77180E+04  4.92197E+04 -1.99055E+04
  4.75753E+04  1.24111E+04  3.29286E+04  2.64965E+04  1.55849E+04  3.14361E+04 -4.57653E+03  2.60628E+04
 -2.34203E+04  1.18865E+04 -1.75918E+04 -7.66491E+03  9.08231E+03 -7.41615E+03  2.57223E+04  1.66945E+04
  8.06974E+03  3.87218E+04 -3.53193E+04  3.72229E+04 -6.53970E+04  2.52649E+03 -5.91879E+04 -4.44572E+04
 -1.41338E+04 -6.69581E+04  4.17996E+04 -4.71051E+04  6.35677E+04 -2.73492E+03  3.56617E+04  3.46779E+04
 -4.34762E+03  4.06552E+04 -3.10022E+04  1.93214E+04 -3.53629E+04 -3.01514E+03 -1.79441E+04 -1.17088E+04
 -9.73274E+03 -1.56403E+04 -1.97609E+03 -1.97762E+04  9.80509E+03 -2.37234E+04  1.56704E+04 -1.48979E+04
  1.01363E+04  7.58167E+03 -1.00981E+04  1.27667E+04 -2.53346E+04 -7.79417E+03 -9.67704E+03 -3.83463E+04
  2.74493E+04 -4.89586E+04  5.53764E+04 -2.36140E+04  4.88252E+04  2.10749E+04  1.94947E+04  4.95699E+04
 -1.71714E+04  3.76598E+04 -2.92016E+04  2.80247E+03 -1.20423E+04 -3.07522E+04  2.03033E+04 -3.75871E+04
  4.65840E+04 -1.17081E+04  4.26370E+04  2.63027E+04  2.31673E+04  5.21279E+04 -9.35315E+03  5.85894E+04
 -3.62766E+04  4.09417E+04 -4.92352E+04  1.35887E+04 -4.72694E+04 -2.03034E+04 -2.52343E+04 -4.46531E+04
  8.15631E+03 -4.32366E+04  3.58312E+04 -1.76819E+04  3.26315E+04  1.17520E+04  5.90717E+03  2.13975E+04
 -1.34567E+04  1.03590E+04 -1.04102E+04 -7.60915E+03  5.27355E+03 -1.12260E+04  2.08451E+04  5.60126E+03
  1.43462E+04  2.39020E+04 -5.05114E+03  2.83454E+04 -2.34073E+04  1.72237E+04 -3.35829E+04 -1.65953E+03
 -2.73690E+04 -1.79210E+04 -1.32342E+04 -2.75552E+04  5.49222E+03 -2.81905E+04  2.11615E+04 -2.56769E+04
  3.40835E+04 -1.61684E+04  4.07033E+04  6.14209E+03  2.93447E+04  2.70020E+04  4.57841E+03  4.28043E+04
 -2.01487E+04  3.57834E+04 -3.13107E+04  1.37291E+04 -2.19986E+04 -1.05236E+04 -5.64298E+03 -1.38362E+04
 -1.78070E+01 -7.71324E+02 -8.86585E+03  1.06041E+04 -2.18932E+04  5.86529E+03 -2.10831E+04 -1.18815E+04
 -1.51660E+04 -2.51115E+04  7.97882E+03 -2.96690E+04  2.05608E+04 -2.14970E+04  2.49191E+04 -2.66285E+03
  1.68125E+04  1.93795E+04 -1.98529E+03  2.36792E+04 -1.83315E+04  1.50421E+04 -2.69227E+04 -6.18675E+03
 -1.81125E+04 -2.16516E+04 -1.56406E+03 -3.11855E+04  1.45421E+04 -2.34408E+04  2.29934E+04 -1.50580E+04
  2.34170E+04 -3.01361E+03  1.79731E+04  4.98626E+03  8.93782E+03  2.15362E+03  1.16733E+04 -1.44403E+03
  2.36882E+04  4.12364E+03  2.92581E+04  2.05314E+04  1.96359E+04  3.92214E+04 -2.17522E+03  4.82841E+04
 -2.91789E+04  4.19039E+04 -4.68786E+04  2.06013E+04 -5.09299E+04 -2.35059E+03 -4.07244E+04 -2.93066E+04
 -1.57410E+04 -4.04864E+04  1.49810E+04 -3.46949E+04  3.02403E+04 -1.59461E+04  2.51767E+04  9.23384E+03
  8.00232E+03  2.10691E+04 -1.20783E+04  1.63037E+04 -2.27524E+04  1.57273E+03 -1.71880E+04 -1.32254E+04
 -1.90217E+03 -1.98535E+04  1.13379E+04 -1.43977E+04  1.44338E+04 -8.68039E+02  3.66639E+03  1.01678E+04
 -1.18519E+04  5.49387E+03 -1.15165E+04 -7.01650E+03 -4.03964E+03 -1.91586E+04  1.19870E+04 -2.23990E+04
  2.29586E+04 -1.31611E+04  3.16577E+04  5.13288E+03  2.61092E+04  2.32946E+04  1.09594E+04  3.65557E+04
 -4.91271E+03  3.47950E+04 -2.23101E+04  2.29442E+04 -2.54355E+04  4.76709E+03 -1.76293E+04 -7.84983E+03
 -7.26330E+03 -9.14468E+03 -6.44317E+02  3.74262E+01 -4.08905E+03  1.50584E+03 -7.88260E+03  6.92875E+03
 -1.46174E+04 -1.00171E+03 -1.78488E+04 -1.33429E+04 -7.58750E+03 -2.19478E+04  6.53003E+03 -1.74502E+04
  1.50484E+04 -7.84014E+03  1.05242E+04  4.45418E+03  7.10288E+02  7.65198E+03 -9.40864E+03 -6.60851E+02
 -9.10462E+03 -8.97746E+03 -9.53650E+02 -1.53347E+04  1.23774E+04 -1.88729E+04  2.30244E+04 -9.47357E+03
  2.79091E+04  3.20343E+03  1.84472E+04  1.76719E+04  3.54076E+03  2.14780E+04 -1.12146E+04  1.73418E+04
 -1.35385E+04  5.45409E+03 -8.33796E+03 -4.96740E+03  2.26636E+03 -6.36318E+03  8.43930E+03 -7.51463E+01
  8.10294E+03  7.70705E+03  1.08789E+03  1.53415E+04 -9.38482E+03  1.38596E+04 -1.78721E+04  3.15296E+03
 -1.07535E+04 -8.25332E+03  5.18714E+02 -1.51152E+04  1.04163E+04 -8.15829E+03  8.98036E+03  4.75813E+03
  2.38737E+03  9.91864E+03 -8.49827E+03  1.43723E+04 -1.43672E+04  5.61750E+03 -1.51045E+04 -5.90552E+03
 -1.10864E+04 -1.76078E+04  6.96177E+03 -2.22390E+04  1.57495E+04 -1.25377E+04  2.05627E+04  3.43628E+03
  9.66850E+03  1.53640E+04 -1.17135E+03  1.86534E+04 -1.21587E+04  1.00122E+04 -1.64957E+04 -1.17787E+03
 -1.23446E+04 -1.18903E+04 -2.27948E+03 -1.28019E+04  8.18057E+03 -1.25373E+04  1.00508E+04 -2.84072E+03
  4.37987E+03  3.63842E+03 -7.99070E+02  2.01805E+03 -1.24661E+03 -4.71336E+03  3.52355E+03 -1.14227E+04
  1.18782E+04 -6.24191E+03  1.94945E+04  2.19634E+03  1.91802E+04  1.11079E+04  1.24779E+04  2.41415E+04
 -4.54031E+03  2.83774E+04 -2.23410E+04  2.13039E+04 -3.13090E+04  3.85826E+03 -2.22827E+04 -9.47883E+03
 -1.29739E+04 -2.03383E+04  1.61647E+02 -1.63294E+04  5.72353E+03 -1.06134E+04  5.53408E+03 -7.01868E+03
  5.82220E+03 -2.73869E+03  3.34901E+03 -4.36889E+03  7.46495E+03 -3.57820E+03  1.08001E+04 -4.30585E+03
  1.26505E+04  2.40521E+03  6.79841E+03  1.24248E+04 -1.22125E+03  1.43656E+04 -1.21434E+04  8.22461E+03
 -1.62223E+04 -2.19511E+03 -1.26762E+04 -1.31868E+04 -8.43393E+02 -1.97831E+04  9.94401E+03 -1.69445E+04
  1.99056E+04 -9.00755E+03  2.38898E+04  4.67277E+03  1.55437E+04  1.76245E+04  2.47160E+03  2.09837E+04
 -7.64544E+03  1.87442E+04 -1.39770E+04  6.61491E+03 -7.84444E+03 -3.01990E+03 -5.63884E+03 -1.56370E+03
 -6.14549E+02 -6.80971E+02 -1.69094E+03  3.25504E+03 -7.30400E+03  2.03572E+03 -1.23212E+04 -1.98593E+03
 -9.42417E+03 -1.15423E+04 -1.13889E+02 -1.88766E+04  1.11418E+04 -1.71453E+04  1.72642E+04 -3.80588E+03
  1.87533E+04  9.13034E+03  8.18111E+03  1.62042E+04 -2.58644E+03  1.73760E+04 -1.20152E+04  1.06355E+04
 -1.75538E+04 -1.51191E+03 -1.21176E+04 -1.06917E+04 -3.48845E+02 -1.49344E+04  8.90224E+03 -9.85810E+03
  1.05404E+04 -3.98045E+03  7.90669E+03  2.58971E+03  4.06689E+03  5.38211E+03  1.04636E+03  1.68204E+03
  3.38181E+03  8.66988E+02  5.46699E+03  1.77613E+03  6.69872E+03  7.05159E+03  5.19407E+03  9.24215E+03
 -3.08740E+03  1.47395E+04 -1.21208E+04  1.34871E+04 -1.87735E+04  4.00271E+03 -1.84399E+04 -7.95939E+03
 -9.30435E+03 -1.84280E+04  1.92786E+03 -2.06535E+04  1.27553E+04 -1.17304E+04  1.51570E+04 -3.48516E+03
  8.82001E+03  8.87390E+03  3.85321E+03  1.10102E+04 -4.35542E+03  7.12901E+03 -8.44231E+03 -9.61908E+02
 -3.28513E+03 -9.07217E+03  3.25358E+03 -9.72232E+03  8.67136E+03 -3.90504E+03  9.91918E+03  1.91606E+03
  6.29490E+03  3.99832E+03  1.34067E+03  3.30719E+03 -2.57187E+03  9.53671E+02  2.29821E+03  1.11841E+03
  3.81417E+03 -6.59197E+02  8.54700E+03  3.86165E+03  2.76989E+03  9.21775E+03 -2.33899E+03  1.28675E+04
 -8.25284E+03  8.83129E+03 -1.11307E+04  3.52066E+03 -1.00193E+04 -3.76056E+03 -4.24990E+03 -6.34490E+03
  7.75310E+02 -9.77534E+03  5.35447E+03 -2.59770E+03  4.54556E+03  3.07302E+03 -2.94101E+03  5.59973E+03
 -7.97151E+03  4.14723E+03 -9.10035E+03 -3.82871E+03 -4.45017E+03 -1.19972E+04  3.31303E+02 -1.07281E+04
  6.64688E+03 -7.13178E+03  7.48648E+03 -5.45408E+01  7.71198E+03  2.93151E+03  1.87286E+02  6.38264E+03
 -4.79364E+03 -4.19505E+02 -5.29101E+03 -5.27948E+03  1.53947E+03 -7.13376E+03  9.02787E+03 -9.11029E+03
  1.12945E+04  2.05346E+03  1.28545E+04  8.82105E+03  3.81199E+03  1.28550E+04 -4.42011E+03  1.37726E+04
 -1.01506E+04  4.86763E+03 -9.92066E+03 -1.58496E+03 -5.58800E+03 -9.17261E+03  2.32620E+03 -7.68559E+03
  8.03588E+03 -3.14329E+03  6.69407E+03  4.31269E+03  3.29310E+03  7.25540E+03  4.56286E+02  6.64993E+03
 -3.29398E+03  3.97635E+03 -3.41108E+03  1.31781E+03 -9.72332E+02  3.06753E+03 -6.17218E+02  2.22171E+03
 -3.65565E+03  4.36154E+03 -8.48171E+03  4.38465E+03 -1.15240E+04 -1.31307E+03 -1.35215E+04 -9.87111E+03
 -6.81258E+03 -1.77944E+04  2.53722E+03 -2.16415E+04  1.28156E+04 -1.75868E+04  1.78991E+04 -5.59678E+03
  1.76090E+04  2.78787E+03  1.00648E+04  1.22001E+04  1.55127E+03  1.27803E+04 -6.24869E+03  9.70375E+03
 -7.67382E+03  3.39098E+03 -5.24508E+03 -2.92646E+03 -2.58333E+03 -1.14657E+03 -2.36061E+02  3.72725E+02
 -3.22371E+03  8.45688E+02 -1.33443E+03 -2.71617E+03 -1.87081E+03 -3.48917E+03  4.25937E+01 -4.82253E+03
  5.98528E+03 -5.71671E+03  7.41260E+03  1.02497E+03  1.12846E+04  6.10785E+03  2.33681E+03  1.36834E+04
 -7.63829E+03  1.47957E+04 -1.45216E+04  9.13968E+03 -1.62371E+04 -1.14793E+03 -1.18160E+04 -8.86842E+03
 -5.61756E+03 -1.45185E+04  2.44130E+03 -1.24665E+04  9.98917E+03 -7.74950E+03  8.65707E+03  1.51811E+03
  2.27216E+03  4.22819E+03  1.37781E+03  2.43438E+03 -2.68219E+03 -8.15847E+02 -7.53827E+02 -2.17005E+03
  4.98192E+03 -2.26721E+03  6.14437E+03  3.13333E+02  5.01343E+03  3.25651E+03 -2.20641E+02  6.65185E+03
 -6.21396E+03  6.51385E+03 -8.18200E+03  3.47400E+02 -8.97720E+03 -6.21814E+03 -1.61219E+03 -1.18176E+04
  7.82750E+03 -9.88252E+03  1.08719E+04 -4.45926E+03  1.09021E+04  2.81189E+03  5.47037E+03  9.04481E+03
 -4.95129E+02  8.34779E+03 -1.47075E+03  8.27815E+03 -5.72133E+03  4.47217E+03 -4.96525E+03 -2.42399E+02
 -1.45467E+03  4.06596E+01 -1.67645E+03  3.21415E+03 -4.95079E+03  2.23651E+03 -7.46580E+03  5.79330E+02
 -6.30926E+03 -6.05713E+03 -2.70718E+03 -1.10825E+04  4.83728E+03 -8.90433E+03  7.81711E+03 -6.17347E+03
  9.29722E+03  3.92944E+03  5.90760E+03  6.00549E+03 -1.26844E+03  1.11537E+04 -7.40221E+03  5.68558E+03
