 $NMID ID='MM_0lb_SNR200_15hz_g55_99.RAW', FMTDAT='(8E13.5)'
 TRAMP=1., VOLUME=1. $END
  3.09929E+05 -4.92823E+02  3.38148E+05  2.50349E+05  8.57510E+04  3.37676E+05 -1.32610E+05  2.51392E+05
 -1.89958E+05  8.31983E+04 -1.11691E+05 -3.25607E+04  1.47866E+03 -5.09112E+04  5.29966E+04  3.10098E+01
  3.57526E+04  5.34304E+04 -1.65825E+04  7.54264E+04 -6.18453E+04  6.36804E+04 -8.45691E+04  3.24964E+04
 -8.15454E+04 -1.08997E+04 -5.73720E+04 -5.07158E+04 -1.36995E+04 -6.84750E+04  2.76752E+04 -4.53337E+04
  4.05011E+04  3.82364E+03  1.66530E+04  4.77375E+04 -3.49084E+04  4.64751E+04 -6.85549E+04 -1.28584E+03
 -5.32728E+04 -5.73283E+04 -7.86454E+03 -7.82216E+04  3.41271E+04 -5.44196E+04  4.77293E+04 -1.65421E+04
  4.43981E+04  1.13432E+04  3.06974E+04  2.58153E+04  1.61912E+04  2.87929E+04 -4.62063E+03  2.67233E+04
 -2.27090E+04  1.31949E+04 -1.76582E+04 -4.13791E+03  5.72420E+03 -6.70573E+03  2.31101E+04  1.13147E+04
  7.06244E+03  3.50669E+04 -3.26368E+04  3.51200E+04 -6.32980E+04  1.65086E+03 -5.69455E+04 -4.26123E+04
 -1.28314E+04 -6.30214E+04  3.96646E+04 -4.41726E+04  5.84201E+04 -2.93350E+03  3.33556E+04  3.31199E+04
 -6.41101E+03  3.71679E+04 -2.96748E+04  1.58312E+04 -3.01173E+04 -4.38530E+03 -1.59542E+04 -1.12493E+04
 -8.61388E+03 -1.23394E+04 -5.65137E+02 -1.83373E+04  8.36165E+03 -2.25999E+04  1.49660E+04 -1.36447E+04
  1.02261E+04  6.07126E+03 -8.40607E+03  1.35222E+04 -1.94891E+04 -4.69279E+03 -8.98845E+03 -3.34669E+04
  2.33543E+04 -4.31252E+04  4.73934E+04 -1.88201E+04  4.54142E+04  2.01638E+04  1.67175E+04  4.38886E+04
 -1.54498E+04  3.35140E+04 -2.48590E+04  1.41759E+03 -8.59253E+03 -2.76642E+04  2.13617E+04 -3.35798E+04
  4.14928E+04 -9.21263E+03  3.57684E+04  2.29639E+04  1.77003E+04  4.61738E+04 -7.67544E+03  4.97285E+04
 -3.25240E+04  3.34553E+04 -4.19196E+04  9.04428E+03 -4.20670E+04 -1.70261E+04 -2.45548E+04 -3.79785E+04
  6.03072E+03 -3.71557E+04  3.26859E+04 -1.43677E+04  2.89373E+04  1.16254E+04  4.30031E+03  1.90749E+04
 -1.28554E+04  8.09871E+03 -9.72582E+03 -8.25483E+03  6.56710E+03 -1.09335E+04  1.71223E+04  5.88042E+03
  1.33972E+04  2.20134E+04 -6.25122E+03  2.48647E+04 -2.12081E+04  1.20246E+04 -2.76782E+04 -5.32388E+03
 -2.04734E+04 -1.67226E+04 -9.72040E+03 -2.02580E+04  4.42202E+03 -1.95363E+04  1.47805E+04 -1.85766E+04
  2.65945E+04 -1.24713E+04  3.16372E+04  2.33479E+03  2.47959E+04  2.05707E+04  4.72380E+03  3.51321E+04
 -1.64006E+04  3.08820E+04 -2.76515E+04  1.08812E+04 -2.07231E+04 -1.15097E+04 -2.86930E+03 -1.44211E+04
  1.97256E+03 -3.56914E+03 -5.14309E+03  6.90947E+03 -1.65253E+04  5.01943E+03 -1.73116E+04 -6.67327E+03
 -9.22599E+03 -1.96316E+04  4.27493E+03 -2.42799E+04  1.52518E+04 -1.63282E+04  1.75386E+04 -2.14465E+03
  1.16005E+04  1.34958E+04 -7.89013E+02  1.89468E+04 -1.34911E+04  1.17165E+04 -1.90684E+04 -4.33127E+03
 -1.40056E+04 -1.87043E+04 -1.64089E+03 -2.27590E+04  1.11699E+04 -2.04452E+04  1.89628E+04 -9.58346E+03
  1.70973E+04  5.56070E+02  1.32936E+04  2.86015E+03  5.81619E+03  2.31518E+03  9.44685E+03 -1.06542E+03
  1.68564E+04  3.35322E+03  2.09421E+04  1.43435E+04  1.29824E+04  3.03965E+04 -2.01786E+03  3.32572E+04
 -1.91225E+04  2.83681E+04 -3.05274E+04  1.21045E+04 -3.41637E+04 -3.07751E+03 -2.59935E+04 -1.91534E+04
 -1.10103E+04 -2.58443E+04  8.20183E+03 -2.42233E+04  2.08359E+04 -1.26438E+04  1.73183E+04  4.94600E+03
  7.76154E+03  1.37509E+04 -8.90573E+03  1.26900E+04 -1.46025E+04  1.44317E+03 -1.25561E+04 -9.39336E+03
 -4.80222E+02 -1.51272E+04  7.84506E+03 -1.16599E+04  9.97360E+03 -8.65249E+02  1.95185E+03  6.31892E+03
 -7.05734E+03  2.44845E+03 -6.54336E+03 -5.25390E+03  1.05333E+02 -1.24604E+04  9.89278E+03 -1.34398E+04
  1.67482E+04 -6.75216E+03  1.61971E+04  2.80096E+03  1.63761E+04  1.36861E+04  6.27044E+03  2.07131E+04
 -2.92914E+03  2.18973E+04 -1.35489E+04  1.31807E+04 -1.60784E+04  3.86543E+03 -9.59220E+03 -3.47470E+03
 -4.95850E+03 -4.79698E+03 -5.45412E+02  6.94017E+02 -1.50497E+03  1.09400E+03 -5.13984E+03  3.00517E+03
 -1.05188E+04 -1.35228E+03 -1.07923E+04 -8.33391E+03 -4.75653E+03 -1.46377E+04  4.06958E+03 -1.26631E+04
  8.45244E+03 -5.00194E+03  7.67712E+03  2.95407E+03  2.51091E+02  3.64124E+03 -5.71457E+03  1.12471E+02
 -4.67450E+03 -7.40430E+03  4.49753E+02 -1.02068E+04  5.37516E+03 -1.07514E+04  1.39198E+04 -5.40833E+03
  1.53908E+04  4.24437E+02  1.22912E+04  1.00326E+04  2.85469E+03  1.08359E+04 -8.15279E+03  1.05384E+04
 -9.33588E+03  3.29804E+03 -5.23521E+03 -2.82739E+03  1.27803E+03 -2.40608E+03  7.48680E+03 -3.08563E+03
  4.69260E+03  3.68296E+03  2.23135E+03  8.51705E+03 -5.58343E+03  7.47143E+03 -9.65141E+03  2.08768E+03
 -7.81705E+03 -4.51130E+03  1.43084E+03 -8.80177E+03  5.11942E+03 -4.54944E+03  5.48134E+03  1.83570E+03
 -2.17856E+02  4.44304E+03 -4.90370E+03  7.22856E+03 -7.21982E+03  2.59634E+03 -8.70035E+03 -1.82553E+03
 -4.73443E+03 -9.13712E+03  1.94805E+03 -1.13597E+04  1.00175E+04 -6.27796E+03  9.80517E+03  1.41482E+03
  6.40900E+03  7.93546E+03 -2.30252E+03  1.00336E+04 -7.65991E+03  5.19595E+03 -8.62057E+03 -2.36701E+02
 -7.35404E+03 -8.49545E+03 -9.98106E+02 -8.13033E+03  4.54988E+03 -6.00406E+03  4.15440E+03 -2.05542E+03
  4.35956E+03  3.68201E+02 -3.44864E+02  1.33057E+03 -2.49374E+02 -8.84842E+02  4.61265E+02 -3.79291E+03
  6.87667E+03 -2.75448E+03  8.64847E+03  4.61023E+02  7.57608E+03  5.64353E+03  7.58509E+03  1.14257E+04
 -1.73846E+03  1.39781E+04 -1.16483E+04  1.00377E+04 -1.43510E+04  1.03990E+03 -1.13573E+04 -5.47467E+03
 -5.36201E+03 -1.00198E+04 -1.28401E+03 -7.58310E+03  4.27547E+03 -4.77085E+03  3.50673E+03 -2.76153E+03
  2.94171E+03 -2.13613E+03  1.56970E+03 -3.26559E+03  4.15828E+03 -2.60769E+03  4.79946E+03 -3.13537E+02
  6.34294E+03  1.82738E+03  2.27338E+03  4.61272E+03 -2.24361E+03  5.52648E+03 -6.38156E+03  2.76097E+03
 -8.48098E+03 -2.00786E+03 -3.80691E+03 -5.79026E+03  2.38342E+02 -8.67994E+03  4.39754E+03 -9.75831E+03
  7.43693E+03 -4.84867E+03  1.19753E+04  1.21261E+03  7.75328E+03  7.41521E+03  1.71977E+03  9.83953E+03
 -3.98828E+03  8.68043E+03 -4.77611E+03  3.15288E+03 -2.94645E+03 -1.98333E+03 -1.38295E+03 -1.14137E+03
 -1.03528E+03  4.06374E+02 -1.20666E+03  2.01955E+03 -3.83112E+03  1.50797E+03 -7.49694E+03  4.01790E+01
 -3.83595E+03 -6.46889E+03  1.24421E+03 -8.22947E+03  5.16808E+03 -6.79889E+03  6.52562E+03 -2.18700E+03
  6.32560E+03  3.35659E+03  3.74711E+03  5.20804E+03 -2.00847E+02  7.51619E+03 -5.75008E+03  4.62103E+03
 -7.05592E+03  2.41319E+01 -5.40778E+03 -4.61664E+03 -4.91489E+02 -5.51688E+03  3.00591E+03 -5.39845E+03
  4.67376E+03 -1.93968E+03  3.63172E+03  8.66964E+02  1.15448E+02  3.00733E+03 -1.03084E+01  1.32641E+03
  2.51127E+03  1.96022E+03  2.48935E+03  2.18043E+03  2.20492E+03  4.38567E+03  2.22510E+03  3.82266E+03
 -1.14080E+03  5.62931E+03 -3.84099E+03  5.69943E+03 -6.33911E+03  2.76826E+03 -6.51519E+03 -1.06397E+03
 -3.46726E+03 -5.83162E+03  1.69940E+03 -6.99309E+03  2.99871E+03 -4.17169E+03  5.39662E+03 -2.08173E+03
  4.59064E+03  4.09667E+03  1.66201E+02  3.72313E+03 -1.64135E+03  3.24414E+03 -1.20693E+03 -5.49592E+02
 -1.78651E+03 -2.77638E+03  2.80213E+03 -3.42251E+03  2.26747E+03 -1.67439E+03  2.86972E+03  7.46803E+02
  1.10510E+03  1.69543E+03  1.30611E+03 -5.00074E+01 -3.81411E+02  1.04382E+03  9.78353E+02 -1.04049E+03
  1.52278E+03  6.03409E+02  2.75005E+03  2.10431E+03  1.63674E+03  4.79522E+03 -7.94033E+02  4.49236E+03
 -4.28270E+03  3.38714E+03 -3.19809E+03 -7.60741E+02 -4.87238E+03 -1.46975E+03 -4.54499E+02 -2.05591E+03
  1.14513E+03 -2.97326E+03  1.94662E+03 -1.13607E+03  6.75638E+02  1.73976E+03 -3.23228E+02  2.37071E+03
 -2.72383E+03  5.00610E+02 -1.87579E+03 -8.99202E+02  5.46418E+01 -3.18688E+03  2.70257E+02 -4.99040E+03
  1.59434E+03 -3.63677E+02  2.10100E+03 -3.02991E+02  2.92015E+03  2.24436E+02  2.84303E+02  1.92901E+03
 -1.47535E+03  8.76653E+02 -1.56897E+03 -3.97918E+02  1.82576E+03 -2.30216E+03  3.08280E+03 -1.69667E+03
  2.73062E+03  6.39599E+02  4.68642E+03  2.43017E+03  9.03923E+02  2.54604E+03 -1.09548E+03  3.27228E+03
 -3.43399E+03  1.51367E+03 -3.19613E+03 -8.84719E+02 -1.29790E+03 -2.16776E+03  1.36807E+03 -2.04853E+03
  2.69304E+03 -1.34584E+03  1.43754E+03  2.13465E+03 -1.10557E+02  1.90955E+03 -4.45463E+02  1.84809E+03
 -1.32323E+03  2.48771E+03 -1.21778E+03  1.16817E+03 -1.73728E+03  3.31995E+02 -2.34799E+02  1.34914E+03
 -1.42523E+03  2.24299E+03 -1.87060E+03 -3.52037E+01 -3.26773E+03  3.18297E+02 -4.72682E+03 -3.53507E+03
 -8.37151E+02 -4.74330E+03  1.32805E+03 -6.75494E+03  3.17698E+03 -4.46999E+03  4.93090E+03 -2.63027E+03
  5.00209E+03  4.42818E+02  4.24166E+03  1.63662E+03  7.98778E+02  4.07390E+03 -6.65603E+02  2.11351E+03
 -2.03985E+03 -2.53439E+02 -2.14317E+03 -1.17625E+03 -1.15411E+03  2.05245E+02 -2.37360E+03 -1.65428E+02
 -1.22259E+03  7.79880E+02 -1.82162E+03 -6.24789E+00  2.92465E+02 -1.40197E+03  1.42735E+02 -1.86192E+03
  1.38171E+03 -1.29509E+03  1.23176E+03 -1.47885E+02  2.60752E+03  2.67102E+03 -1.58949E+02  2.73886E+03
 -1.46569E+03  4.15268E+03 -3.66381E+03  3.18514E+03 -5.30702E+03 -4.70412E+02 -3.59073E+03 -1.76998E+03
 -1.27910E+03 -9.91561E+02  1.16800E+03 -2.59808E+03  2.52283E+03 -2.19100E+03  1.49468E+03  6.01737E+02
  2.27283E+03  2.72760E+02 -2.11586E+02  5.56949E+02 -6.41252E+02  9.78460E+02  4.56069E+02 -6.13618E+02
  8.72039E+02 -6.32667E+02  1.34092E+03 -1.29429E+02  5.57769E+02  1.74281E+03  1.11321E+03  4.37001E+02
 -5.28362E+02  1.25287E+03 -7.45100E+02  1.87547E+03 -5.64138E+02 -1.33566E+03 -4.16245E+02 -3.19318E+03
  1.06971E+03 -3.28378E+03  1.65475E+03 -1.06272E+03  2.97010E+03  1.98728E+02  5.00899E+02  1.50933E+03
  3.60934E+01  1.16658E+03 -1.73725E+03  1.74979E+03 -1.16669E+03  1.52525E+03 -4.90342E+02  8.17889E+02
 -5.12340E+02 -1.33491E+03  7.09805E+01 -7.34114E+02 -2.00385E+03  8.28864E+02 -1.85148E+03 -1.62533E+03
 -1.01431E+03 -1.09297E+03 -1.02478E+01 -2.37842E+03  1.06317E+03 -2.11231E+03  2.41717E+03 -5.93309E+02
  7.72895E+02  8.94880E+02 -3.48637E+02  1.35185E+03  5.15090E+02  1.84071E+03 -1.15258E+03  1.46568E+03
