 $NMID ID='MM_0lb_SNR200_17hz_g55_78.RAW', FMTDAT='(8E13.5)'
 TRAMP=1., VOLUME=1. $END
  3.08330E+05  1.44436E+02  3.39052E+05  2.51348E+05  8.41272E+04  3.37851E+05 -1.33368E+05  2.50802E+05
 -1.90334E+05  8.21707E+04 -1.11334E+05 -3.30793E+04 -2.76439E+01 -5.03128E+04  5.43364E+04  6.65223E+02
  3.47539E+04  5.25847E+04 -1.76812E+04  7.62082E+04 -6.12048E+04  6.29070E+04 -8.37036E+04  3.27417E+04
 -8.10473E+04 -1.10640E+04 -5.75716E+04 -5.07483E+04 -1.50545E+04 -6.97725E+04  2.79383E+04 -4.67089E+04
  3.94480E+04  2.55785E+03  1.52302E+04  4.72148E+04 -3.31305E+04  4.69162E+04 -6.58224E+04  5.65246E+01
 -5.23243E+04 -5.64614E+04 -6.21233E+03 -7.56036E+04  3.34243E+04 -5.31970E+04  4.93007E+04 -1.72427E+04
  4.34477E+04  1.10914E+04  3.10888E+04  2.49656E+04  1.63952E+04  2.86828E+04 -5.19032E+03  2.76251E+04
 -2.23735E+04  1.37491E+04 -1.89306E+04 -3.68640E+03  5.11707E+03 -8.11953E+03  2.30287E+04  1.12875E+04
  7.05796E+03  3.50889E+04 -3.14651E+04  3.39433E+04 -6.27348E+04  1.76526E+03 -5.65159E+04 -4.15330E+04
 -1.21286E+04 -6.30124E+04  3.94898E+04 -4.47593E+04  5.70863E+04 -3.32366E+03  3.38146E+04  3.20564E+04
 -5.82474E+03  3.50111E+04 -2.88648E+04  1.56375E+04 -2.95758E+04 -4.59979E+03 -1.50391E+04 -1.10809E+04
 -8.30717E+03 -1.20384E+04 -1.02816E+03 -1.74353E+04  7.13600E+03 -2.23179E+04  1.52938E+04 -1.48675E+04
  1.14462E+04  4.51267E+03 -7.55695E+03  1.26002E+04 -2.12226E+04 -4.07930E+03 -8.00546E+03 -3.15734E+04
  2.28643E+04 -4.23294E+04  4.53295E+04 -1.87809E+04  4.31127E+04  1.94364E+04  1.50735E+04  4.25053E+04
 -1.47899E+04  3.26267E+04 -2.54366E+04  1.69158E+03 -9.95830E+03 -2.76214E+04  2.02052E+04 -3.23227E+04
  4.00249E+04 -9.37289E+03  3.41124E+04  2.28892E+04  1.70727E+04  4.36300E+04 -7.30419E+03  4.83344E+04
 -2.91462E+04  3.15361E+04 -3.98515E+04  8.67579E+03 -4.08705E+04 -1.61867E+04 -2.30133E+04 -3.69640E+04
  6.54544E+03 -3.57321E+04  3.20633E+04 -1.35670E+04  2.88262E+04  1.15446E+04  4.11119E+03  1.86171E+04
 -1.30545E+04  7.23925E+03 -8.82787E+03 -7.45119E+03  6.80320E+03 -1.06074E+04  1.71537E+04  7.13451E+03
  1.24645E+04  2.06841E+04 -5.79888E+03  2.39411E+04 -2.24084E+04  9.91974E+03 -2.68374E+04 -4.63040E+03
 -1.85622E+04 -1.71546E+04 -7.46229E+03 -1.82839E+04  4.04812E+03 -1.77041E+04  1.39574E+04 -1.68299E+04
  2.44466E+04 -1.24053E+04  2.93024E+04  2.31270E+03  2.32593E+04  1.85117E+04  4.50545E+03  3.42650E+04
 -1.62483E+04  2.87611E+04 -2.73876E+04  1.00409E+04 -1.96717E+04 -9.84207E+03 -3.35155E+03 -1.38739E+04
  1.85145E+03 -2.92507E+03 -4.01835E+03  4.71184E+03 -1.38246E+04  6.20026E+03 -1.57634E+04 -5.98881E+03
 -8.41297E+03 -1.66695E+04  4.96944E+03 -2.11937E+04  1.34641E+04 -1.51357E+04  1.64589E+04 -1.00853E+03
  9.70546E+03  1.15093E+04 -1.37839E+03  1.74946E+04 -1.13418E+04  1.02342E+04 -1.65962E+04 -4.25539E+03
 -1.36944E+04 -1.58525E+04 -1.38940E+03 -2.11984E+04  1.03496E+04 -1.67819E+04  1.75500E+04 -8.47053E+03
  1.70711E+04 -3.07977E+02  1.16166E+04  3.92131E+03  5.57042E+03  1.74452E+03  7.81196E+03 -1.27909E+03
  1.53002E+04  2.10822E+03  1.74114E+04  1.40394E+04  1.10655E+04  2.76093E+04 -3.78641E+03  3.02676E+04
 -1.74474E+04  2.32391E+04 -2.82181E+04  1.18158E+04 -2.98058E+04 -2.38862E+03 -2.50120E+04 -1.65294E+04
 -1.25650E+04 -2.34646E+04  9.22489E+03 -2.08298E+04  1.87984E+04 -1.21601E+04  1.72758E+04  5.11503E+03
  6.70002E+03  1.21644E+04 -7.73792E+03  1.07387E+04 -1.59886E+04  1.58031E+03 -1.14901E+04 -8.74420E+03
  1.41444E+02 -1.40579E+04  8.69913E+03 -1.09445E+04  9.85926E+03 -4.52366E+02  1.82850E+03  4.96856E+03
 -6.78577E+03  2.16079E+03 -5.21994E+03 -6.06391E+03  2.29019E+02 -1.01340E+04  9.21796E+03 -1.20242E+04
  1.41620E+04 -5.94602E+03  1.45511E+04  2.08411E+03  1.22988E+04  1.13864E+04  5.73391E+03  1.68653E+04
 -3.24496E+03  1.77566E+04 -1.08439E+04  1.23706E+04 -1.37831E+04  2.48986E+03 -8.54839E+03 -3.10530E+03
 -4.34309E+03 -2.55524E+03 -1.07159E+03  9.65761E+02 -8.46288E+02  3.23441E+03 -3.86361E+03  4.44795E+03
 -8.85073E+03 -7.43520E+02 -1.00044E+04 -7.67113E+03 -4.95923E+03 -1.44438E+04  4.87637E+03 -1.11994E+04
  7.65174E+03 -3.31070E+03  5.49366E+03  2.40686E+03  2.50859E+02  2.75776E+03 -3.13770E+03 -4.65082E+02
 -3.75500E+03 -6.75342E+03 -3.26079E+02 -8.80905E+03  4.66389E+03 -1.00731E+04  1.17572E+04 -4.98374E+03
  1.29906E+04  1.50625E+03  1.00051E+04  7.02217E+03  5.71462E+02  8.45586E+03 -6.51744E+03  9.57195E+03
 -8.34498E+03  2.60625E+03 -4.35674E+03 -1.73297E+03  1.09145E+03 -2.00135E+03  4.93736E+03 -1.76908E+03
  4.21343E+03  3.93130E+03  1.31621E+03  7.06572E+03 -4.57662E+03  7.36954E+03 -8.56744E+03  2.13201E+03
 -6.47261E+03 -4.43826E+03 -2.29891E+02 -6.94230E+03  4.19307E+03 -3.61668E+03  4.88162E+03  1.67844E+03
 -3.46611E+02  4.68069E+03 -5.77155E+03  6.46038E+03 -5.82055E+03  3.12809E+03 -5.96392E+03 -1.95472E+03
 -3.22592E+03 -7.96595E+03  1.50852E+03 -8.79807E+03  8.15112E+03 -6.07639E+03  8.43342E+03 -1.07928E+03
  5.00130E+03  6.04591E+03 -1.18346E+02  8.36237E+03 -5.48548E+03  3.72545E+03 -7.18330E+03 -1.41807E+03
 -7.31787E+03 -5.81947E+03 -1.14990E+03 -6.49979E+03  2.37624E+03 -5.10609E+03  3.53692E+03 -2.47658E+03
  2.54862E+03  6.34538E+01 -5.24496E+02  2.44929E+02  1.11256E+03  6.19335E+01  3.79573E+02 -2.43101E+03
  5.93466E+03 -6.77427E+02  7.64563E+03  7.89542E+02  6.35422E+03  4.37838E+03  5.50442E+03  9.13726E+03
 -9.07058E+02  9.55341E+03 -1.03056E+04  7.73160E+03 -1.15486E+04  1.17268E+03 -9.54223E+03 -3.49020E+03
 -5.58863E+03 -8.61826E+03 -5.88934E+02 -7.67053E+03  2.77689E+03 -3.24314E+03  3.15474E+03 -2.60084E+03
  7.44057E+02 -2.08077E+03  3.26562E+03 -3.07578E+03  3.91404E+03 -1.60078E+03  3.83870E+03 -2.35519E+02
  5.55942E+03  9.25716E+02  2.71595E+03  4.94706E+03 -2.21988E+03  4.54442E+03 -5.20133E+03  2.59770E+03
 -6.46060E+03 -1.47025E+03 -3.18150E+03 -3.92053E+03  5.20681E+02 -7.87030E+03  4.40435E+03 -5.85880E+03
  6.51702E+03 -4.20900E+03  8.14049E+03  5.55207E+02  6.04985E+03  5.55120E+03  1.48556E+03  6.70047E+03
 -2.41929E+03  5.83044E+03 -4.15962E+03  2.26383E+03 -2.96733E+03 -1.93174E+03 -1.05319E+03 -2.04228E+02
 -6.49762E+02  9.48913E+02 -1.27071E+03  2.62385E+03 -2.35447E+03  1.65189E+03 -5.75012E+03  3.56422E+02
 -1.99326E+03 -5.56222E+03  8.17077E+02 -5.73893E+03  1.89441E+03 -5.24989E+03  6.70287E+03 -1.41714E+03
  4.45529E+03  2.88390E+03  3.18508E+03  3.92884E+03 -2.23043E+03  6.02854E+03 -3.73432E+03  3.65559E+03
 -5.65769E+03  2.12987E+03 -4.65767E+03 -2.28967E+03  7.18176E+02 -4.72223E+03  2.10922E+03 -2.50792E+03
  3.90074E+03 -1.92982E+03  9.49491E+02  1.16926E+03 -6.70110E+02  1.92781E+03  1.10423E+03  6.41154E+02
  1.81323E+03  9.23830E+02  3.17346E+03  1.64159E+03  2.00277E+03  2.36569E+03  8.56995E+02  1.55557E+03
 -7.23098E+02  3.32610E+03 -2.64710E+03  4.34893E+03 -4.77864E+03  1.95425E+03 -5.25632E+03 -6.35895E+02
 -2.28572E+03 -4.11143E+03  2.31268E+03 -4.93106E+03  2.89559E+03 -3.40499E+03  4.00023E+03 -1.13120E+03
  3.41862E+03  3.35815E+03  2.61492E+02  2.53530E+03 -9.58794E+02  1.64849E+03 -1.89978E+03 -5.12767E+02
 -2.18799E+02 -1.69828E+03  2.40161E+03 -1.36266E+03  2.85624E+03 -6.53792E+02  9.62755E+02  1.08502E+03
  1.09904E+03  6.41326E+01  6.28334E+02 -1.72987E+03 -5.34709E+02  1.10622E+03  6.09974E+02 -3.78987E+02
  1.05445E+03 -1.72639E+03  2.42454E+03  9.57309E+01  5.52984E+02  2.31415E+03 -9.24317E+02  4.87139E+03
 -2.08307E+03  2.56506E+03 -3.39835E+03 -1.60137E+02 -2.22258E+03 -1.06156E+03  5.09695E+02 -2.03494E+03
  5.43611E+02 -2.18804E+03  8.57830E+02 -1.53444E+03 -7.36977E+02  1.28852E+03 -1.43949E+03  1.75492E+02
 -1.62711E+03  1.33589E+03 -4.79922E+02 -1.26423E+03 -5.08345E+02 -3.64877E+03  4.56146E+01 -1.96525E+03
 -4.08297E+01 -1.09151E+03  1.26732E+03  8.00814E+02  1.72001E+03 -6.79280E+02  1.15829E+03  1.62234E+03
  4.34522E+02  4.13923E+02 -1.25057E+03  6.12812E+02  7.68673E+02  2.51777E+02  2.33480E+03 -2.73414E+02
  2.72496E+03  3.96277E+02  4.32306E+03  1.16732E+03  5.69850E+02  1.54309E+03 -1.29926E+03  2.16417E+03
 -1.61038E+03 -1.30629E+02 -2.82234E+03  8.37609E+01  6.54588E+02 -1.45404E+03 -2.16300E+02 -2.48090E+03
  1.03377E+03 -7.11644E+02  1.91540E+03  1.43518E+03  1.23571E+03  1.75266E+03 -3.30786E+02  9.89759E+02
 -4.15849E+02  1.17426E+03 -6.91660E+02  3.43934E+02  3.14905E+02 -2.38248E+02 -4.77942E+02  6.70601E+01
  4.44629E+02  1.34959E+03 -2.65179E+03  1.05892E+03 -2.39126E+03 -2.84571E+02 -2.44872E+03 -6.43388E+02
 -6.35281E+02 -1.92176E+03  6.61172E+02 -6.29303E+03  1.07187E+03 -4.41629E+03  3.94045E+03 -7.68006E+02
  4.20358E+03  3.21855E+02  1.72231E+03  1.60251E+03 -1.08107E+03  2.06219E+03 -9.66971E+01  2.80337E+03
 -1.25840E+03  1.10095E+03 -1.22980E+03 -4.83101E+02 -9.74993E+02  1.72907E+01  7.27439E+02 -9.91412E+02
 -1.62493E+03  8.04968E+01 -2.22424E+03 -4.18627E+01  9.75037E+02 -5.25872E+02 -1.75826E+02 -3.12088E+02
  1.51060E+03 -9.02975E+02  8.93226E+02  1.40156E+02  1.46671E+03  1.16295E+03 -5.87352E+02  2.59199E+03
 -7.16517E+02  3.39146E+03 -1.95370E+03  2.44046E+03 -2.36023E+03 -2.57752E+02 -1.77106E+03 -1.53036E+03
 -1.77726E+03 -1.18816E+03  7.54772E+02 -1.78399E+03 -2.54171E+02 -6.07805E+02  1.52042E+03 -2.32220E+02
  8.21741E+02  1.48229E+03  1.56224E+03 -2.79742E+02 -1.11022E+03 -1.07182E+02  5.54950E+01 -6.02943E+02
  8.20624E+02  1.05622E+03  3.64748E+02  4.16472E+02  9.25850E+02 -3.88041E+02  6.18044E+02  8.26347E+02
 -2.54377E+02  8.51211E+02 -2.46473E+01  8.76717E+02 -5.04197E+02 -6.91287E+02 -5.22433E+02 -1.13865E+03
  1.88976E+03 -6.89911E+02 -2.24451E+02  9.44100E+02  1.04156E+03 -1.06771E+02  2.65228E+02  1.06608E+03
  1.27260E+03  1.69854E+03 -6.67030E+02  3.69708E+02 -1.53033E+03 -4.88260E+02  6.78142E+02  4.39431E+01
  6.87644E+02 -4.54089E+02 -1.16229E+03 -4.19264E+02 -6.41999E+02  3.67219E+02 -1.77160E+03 -1.42593E+02
 -6.08945E+02 -2.01681E+02 -1.40397E+03 -9.11832E+02 -1.06087E+02 -1.35533E+03  2.66144E+02 -1.11716E+03
  1.89714E+03  6.38125E+02  1.84610E+02  2.07159E+02 -1.06947E+03  3.92989E+02 -8.79827E+02  6.79184E+02
