 $NMID ID='MM_0lb_SNR200_19hz_g45_99.RAW', FMTDAT='(8E13.5)'
 TRAMP=1., VOLUME=1. $END
  3.10178E+05  1.75342E+02  3.36836E+05  2.51126E+05  8.55469E+04  3.37617E+05 -1.32636E+05  2.50246E+05
 -1.89431E+05  8.28306E+04 -1.11086E+05 -3.24805E+04  1.15099E+03 -5.00017E+04  5.37973E+04 -5.08613E+02
  3.50055E+04  5.24943E+04 -1.75775E+04  7.38250E+04 -5.91532E+04  6.19759E+04 -8.35775E+04  3.21479E+04
 -7.92898E+04 -1.01989E+04 -5.53579E+04 -4.95329E+04 -1.42583E+04 -6.84656E+04  2.65692E+04 -4.53313E+04
  3.92306E+04  4.14560E+03  1.59598E+04  4.59960E+04 -3.47671E+04  4.58186E+04 -6.53669E+04 -9.14440E+02
 -5.16624E+04 -5.56068E+04 -7.09374E+03 -7.50676E+04  3.21567E+04 -5.30817E+04  4.73291E+04 -1.54650E+04
  4.11404E+04  1.11480E+04  3.00887E+04  2.46891E+04  1.54390E+04  2.82024E+04 -5.57218E+03  2.56548E+04
 -2.22944E+04  1.27673E+04 -1.99708E+04 -4.62734E+03  4.09235E+03 -6.88439E+03  2.14065E+04  1.11474E+04
  7.24461E+03  3.25273E+04 -2.99913E+04  3.22371E+04 -5.94290E+04  2.58081E+03 -5.49867E+04 -4.09738E+04
 -1.19579E+04 -5.99666E+04  3.75408E+04 -4.37023E+04  5.54223E+04 -2.54241E+03  3.14238E+04  3.03693E+04
 -6.69555E+03  3.32900E+04 -2.78443E+04  1.34285E+04 -2.60669E+04 -5.10711E+03 -1.40059E+04 -9.55062E+03
 -6.68699E+03 -1.13864E+04 -6.07389E+02 -1.64164E+04  7.53219E+03 -2.24365E+04  1.44824E+04 -1.33573E+04
  1.23897E+04  4.19059E+03 -5.30649E+03  1.29035E+04 -1.88971E+04 -1.51726E+03 -8.33144E+03 -3.11888E+04
  2.02831E+04 -3.95300E+04  4.32368E+04 -1.84284E+04  4.29712E+04  1.98157E+04  1.38760E+04  4.24767E+04
 -1.59584E+04  3.09614E+04 -2.27881E+04  6.07393E+02 -7.83880E+03 -2.64355E+04  2.02631E+04 -3.06147E+04
  3.70112E+04 -6.97951E+03  3.14731E+04  2.28246E+04  1.55668E+04  4.18410E+04 -7.18942E+03  4.45589E+04
 -2.78550E+04  2.88262E+04 -3.80055E+04  7.83582E+03 -3.80548E+04 -1.38843E+04 -2.14289E+04 -3.41208E+04
  7.57118E+03 -3.27325E+04  2.91827E+04 -1.32834E+04  2.56139E+04  1.06611E+04  1.61484E+03  1.79881E+04
 -1.28800E+04  7.10650E+03 -8.64272E+03 -7.64225E+03  6.35580E+03 -1.01530E+04  1.76309E+04  6.36275E+03
  1.16178E+04  2.27050E+04 -5.96578E+03  2.25927E+04 -2.12053E+04  8.77053E+03 -2.52385E+04 -6.70501E+03
 -1.61316E+04 -1.69881E+04 -5.33181E+03 -1.50777E+04  2.87133E+03 -1.34937E+04  1.17687E+04 -1.35131E+04
  2.12043E+04 -1.14724E+04  2.72786E+04 -2.99612E+02  2.10762E+04  1.60766E+04  4.53126E+03  3.26407E+04
 -1.64942E+04  2.74960E+04 -2.65127E+04  9.73065E+03 -1.96752E+04 -1.03464E+04 -3.37069E+03 -1.35293E+04
  2.36788E+03 -4.50476E+03 -2.57796E+03  4.94197E+03 -1.21403E+04  4.15948E+03 -1.35188E+04 -4.06748E+03
 -8.94379E+03 -1.54425E+04  5.01869E+03 -1.82898E+04  1.34792E+04 -1.36884E+04  1.24831E+04 -1.16637E+03
  9.16396E+03  1.17504E+04 -7.88017E+02  1.44970E+04 -8.73883E+03  9.38739E+03 -1.55163E+04 -2.94253E+03
 -9.70063E+03 -1.31321E+04 -1.60322E+03 -1.89525E+04  8.58497E+03 -1.50772E+04  1.59792E+04 -7.46123E+03
  1.46288E+04  2.78001E+02  1.08775E+04  4.10184E+03  5.55626E+03 -8.12885E+02  7.01929E+03 -1.21959E+03
  1.36512E+04  3.36966E+03  1.29426E+04  1.15210E+04  9.20763E+03  2.36024E+04 -3.19267E+03  2.57172E+04
 -1.41152E+04  2.07656E+04 -2.34232E+04  9.54699E+03 -2.33416E+04 -1.87513E+03 -2.04453E+04 -1.46654E+04
 -1.02399E+04 -1.98360E+04  6.60047E+03 -1.77958E+04  1.70256E+04 -1.15667E+04  1.45303E+04  3.80554E+03
  5.63454E+03  1.09566E+04 -6.39937E+03  9.90023E+03 -1.21910E+04  2.90016E+03 -9.57004E+03 -6.92027E+03
  8.65653E+02 -1.22046E+04  5.66949E+03 -9.68166E+03  7.84455E+03 -1.28316E+03  1.83542E+03  5.25457E+03
 -6.84383E+03  9.31621E+02 -3.01204E+03 -4.13601E+03  1.34950E+03 -1.08551E+04  8.24508E+03 -1.03433E+04
  1.11823E+04 -4.36119E+03  1.07574E+04  1.99614E+03  8.93965E+03  9.30683E+03  4.34155E+03  1.33792E+04
 -1.15614E+03  1.47151E+04 -8.58519E+03  9.20342E+03 -1.05454E+04  3.16878E+03 -7.84188E+03 -1.72369E+03
 -4.64474E+03 -3.11189E+03 -1.30972E+03  2.36763E+03 -2.52939E+03  1.90062E+03 -3.70920E+03  2.96295E+03
 -7.16197E+03  7.99939E+01 -8.95477E+03 -6.81944E+03 -3.51270E+03 -1.13598E+04  2.97252E+03 -8.21878E+03
  6.53632E+03 -3.39228E+03  5.88955E+03  9.04862E+02  4.75401E+02  1.97206E+03 -3.73260E+03 -9.81025E+02
 -3.36804E+03 -4.88861E+03 -9.46882E+02 -7.16490E+03  4.22853E+03 -7.18321E+03  1.01533E+04 -3.86438E+03
  1.03607E+04  1.17420E+03  8.14318E+03  6.24073E+03  1.34196E+03  7.39878E+03 -4.75372E+03  8.50971E+03
 -5.58853E+03  2.49579E+03 -2.82570E+03 -2.06025E+03  1.47300E+03 -2.39131E+03  5.04876E+03 -1.83161E+03
  3.42314E+03  3.57972E+03  1.21625E+03  5.71794E+03 -3.80145E+03  6.09787E+03 -7.60811E+03  1.90809E+03
 -4.66013E+03 -3.30014E+03  1.07260E+03 -5.80950E+03  4.00697E+03 -2.33343E+03  2.83921E+03  6.33083E+02
  3.25048E+02  3.84687E+03 -4.37066E+03  4.16164E+03 -4.34507E+03  2.27741E+03 -3.14225E+03 -1.38659E+03
 -3.56703E+03 -6.11115E+03  1.18103E+03 -6.90807E+03  5.64714E+03 -3.28569E+03  7.08456E+03  5.74116E+02
  5.22683E+03  4.26711E+03  6.48063E+02  6.85122E+03 -4.75726E+03  4.13804E+03 -5.05315E+03  7.32332E+01
 -3.93337E+03 -6.06029E+03 -1.85130E+03 -4.63619E+03  2.56683E+03 -4.37373E+03  3.08878E+03 -3.61653E+03
  1.20014E+03  1.18460E+03 -5.44367E+02  1.54136E+03  1.04576E+03  2.78813E+02  1.30154E+02 -7.00090E+02
  3.83933E+03  2.69533E+02  5.69341E+03 -1.19087E+02  5.14616E+03  2.37206E+03  4.81856E+03  5.89332E+03
 -1.51807E+03  7.30489E+03 -7.29931E+03  5.64834E+03 -9.56115E+03  1.80506E+03 -8.31654E+03 -2.23116E+03
 -3.87863E+03 -5.76795E+03 -1.46909E+03 -5.54955E+03  9.23437E+02 -1.05398E+03  1.33887E+03 -1.21433E+03
  7.24516E+02 -1.13054E+03  2.55987E+03 -3.11778E+03  4.14007E+03 -1.32352E+03  3.61175E+03  7.20510E+02
  3.55800E+03  1.21750E+03  1.24987E+03  3.24500E+03 -1.90986E+03  2.41694E+03 -3.54105E+03  1.94456E+03
 -4.37952E+03 -1.62778E+03 -2.51969E+03 -2.59246E+03  7.32721E+02 -5.69914E+03  3.87867E+03 -4.80940E+03
  5.47116E+03 -2.52589E+03  6.99491E+03  3.72192E+02  4.68645E+03  3.72203E+03  8.67949E+02  4.90942E+03
 -1.41876E+03  5.80627E+03 -3.46161E+03  2.13493E+03 -4.97762E+02 -1.42300E+03 -9.12416E+02 -1.24641E+03
  9.09082E+01  2.57980E+02 -6.27028E+02  1.48756E+03 -2.81801E+03  2.25613E+02 -2.81042E+03 -4.89805E+02
 -5.99714E+02 -2.87354E+03  8.83648E+02 -4.63580E+03  1.95991E+03 -3.18913E+03  3.71344E+03 -1.38331E+03
  2.72691E+03  1.76789E+03  1.81326E+03  2.40272E+03 -6.76323E+02  2.92458E+03 -2.44391E+03  3.14127E+03
 -3.55007E+03  2.65477E+02 -3.19738E+03 -2.38122E+03  1.91519E+02 -3.49581E+03 -9.73199E+01 -2.23888E+03
  2.73198E+03 -1.80600E+03  2.75139E+03  1.03971E+03  7.10509E+02  1.45456E+03  9.59128E+02  1.15005E+02
  5.96750E+02  1.30066E+02  8.01422E+02  2.33558E+02  1.32512E+03  2.27442E+03  1.34564E+03  2.05988E+02
 -1.15470E+03  2.33858E+03 -2.38630E+03  2.82445E+03 -2.34755E+03  1.04699E+03 -5.19541E+03 -1.77938E+02
 -9.73638E+02 -3.16904E+03 -7.64932E+02 -3.47739E+03  1.37363E+03 -1.60457E+03  2.37077E+03 -1.48161E+03
  3.67085E+03  2.76629E+03  1.61801E+02  2.15792E+03 -5.56028E+02  1.18050E+03 -1.04313E+02 -8.44839E+01
 -8.94931E+02 -7.30043E+02  1.97169E+03 -1.52289E+03  3.41564E+02 -1.26212E+03  7.03723E+02  4.63341E+02
 -5.17979E+02  7.33858E+02 -1.62506E+03  2.32696E+02 -1.36076E+03  4.55627E+02  9.37233E+02 -3.35793E+02
 -5.76287E+02 -9.79422E+01  2.25732E+03  6.25612E+01 -9.19058E+02  2.40821E+03 -4.32374E+02  2.72323E+03
 -2.16351E+03  7.68404E+02 -2.27474E+03  6.50346E+01 -1.81628E+03  5.97065E+00  4.02359E+02 -9.73254E+02
  2.31476E+01  1.45284E+02  9.60170E+02 -1.96442E+03  5.66192E+02  1.62592E+03 -1.18114E+03  1.83769E+03
 -2.07058E+03  6.60770E+02 -3.89058E+02 -1.58909E+02 -3.79208E+02 -1.66510E+03 -4.62039E+02 -2.60467E+03
  1.06444E+03  1.13779E+02  7.44619E+02  1.12025E+03  1.57684E+03 -9.13070E+02  6.49661E+02  1.93476E+03
 -4.35703E+02 -1.72657E+02 -1.49754E+03 -9.28501E+02  3.75890E+02 -6.51128E+02  2.20536E+03 -7.58077E+02
  1.74788E+03  1.10341E+02  2.40254E+03 -3.80798E+01 -8.43193E+00  1.67400E+03 -6.50310E+02  1.25076E+03
 -1.20527E+03 -8.55332E+02 -4.81239E+02 -3.11298E+02 -8.90058E+02 -1.41386E+03 -9.89958E+01 -4.76573E+02
  1.00396E+03 -1.30170E+02  1.29080E+02  8.74014E+02  4.70102E+02  1.65197E+03 -4.79513E+02  7.91287E+02
 -6.15515E+02  1.02649E+03  4.33231E+02  3.45392E+02 -5.91965E+01  5.86506E+02 -1.32041E+03  1.27903E+03
 -6.99366E+02  8.28438E+02 -1.73459E+03  8.97080E+02 -6.42140E+02  2.22311E+01 -2.74125E+03 -1.34490E+03
 -1.87838E+03 -1.23186E+03  6.46309E+02 -3.44629E+03  2.27217E+02 -2.36954E+03  3.54141E+03 -7.01700E+02
  3.28774E+03 -2.06797E+02  6.83174E+02  1.94225E+03  9.65830E+02  1.68101E+02 -8.97513E+02  1.68694E+03
 -1.12418E+03  2.11112E+02 -5.54636E+02 -6.56422E+01  3.46474E+02  1.63990E+03 -5.49940E+02 -3.17430E+02
 -1.34502E+03 -4.93627E+02 -1.14443E+03  3.83415E+02  2.17822E+02 -8.98568E+02  1.95827E+02 -7.17073E+02
  8.15568E+02 -9.35307E+01  4.23961E+02  9.28328E+02  5.14465E+02  1.53427E+03  3.73469E+02  1.15471E+03
 -1.85010E+03  1.98968E+03 -1.48941E+03  1.46110E+03 -8.17157E+02  5.10013E+00 -3.88843E+02 -1.33300E+03
 -4.69897E+02 -1.36078E+03 -1.22327E+02 -1.24764E+03  1.26847E+01 -6.90071E+02  4.86913E+02  1.35633E+02
  1.06625E+02 -3.69442E+01  3.99727E+02 -6.89425E+02 -5.94621E+02  3.66380E+02 -4.04193E+02  5.01550E+01
  6.58699E+02  7.39032E+02  5.20994E+02  6.17322E+02  1.10918E+02  1.39339E+03 -2.52360E+02 -3.83980E+02
 -3.67542E+02  1.05279E+03 -5.30200E+02  1.32698E+03 -1.41037E+03  2.01955E+02 -2.66315E+00 -5.64921E+02
 -4.12666E+01  7.40229E+02  1.61962E+03  4.18466E+02 -3.56766E+02 -6.78391E+02  2.44599E+02  1.84590E+03
  6.84050E+02 -2.55103E+02  3.53644E+02  1.67944E+02 -1.31290E+03  7.91320E+02 -6.42723E+02 -9.73407E+01
  1.05525E+03  5.84487E+02 -1.18829E+02 -4.39341E+02 -8.13071E+02  1.65120E+02 -1.22069E+02 -7.46556E+02
 -1.75709E+03  1.37631E+03 -1.32080E+03 -6.75182E+02  1.38025E+03 -1.37925E+03  3.88709E+02 -9.64993E+01
  1.01732E+03 -8.59807E+02  2.77953E+02  1.37475E+03 -8.25504E+02  8.22870E+02 -5.44719E+02  9.37486E+02
