 $NMID ID='MM_0lb_SNR200_19hz_g60_90.RAW', FMTDAT='(8E13.5)'
 TRAMP=1., VOLUME=1. $END
  3.09312E+05  2.42274E+02  3.37253E+05  2.50542E+05  8.45907E+04  3.37436E+05 -1.31979E+05  2.50529E+05
 -1.88779E+05  8.29462E+04 -1.12053E+05 -3.24609E+04  4.60166E+02 -4.95957E+04  5.34150E+04  4.39995E+02
  3.49532E+04  5.18229E+04 -1.63641E+04  7.61686E+04 -6.06767E+04  6.32272E+04 -8.42283E+04  3.23641E+04
 -8.12205E+04 -1.07722E+04 -5.62847E+04 -5.02838E+04 -1.47990E+04 -6.86958E+04  2.63477E+04 -4.64330E+04
  3.89538E+04  3.81385E+03  1.62656E+04  4.85826E+04 -3.44456E+04  4.65748E+04 -6.48180E+04 -9.47954E+02
 -5.44346E+04 -5.60429E+04 -7.30993E+03 -7.66774E+04  3.30383E+04 -5.47969E+04  4.65449E+04 -1.74399E+04
  4.22608E+04  1.12542E+04  3.16212E+04  2.49530E+04  1.64435E+04  2.90353E+04 -4.64354E+03  2.62306E+04
 -2.12668E+04  1.20342E+04 -1.85289E+04 -4.75593E+03  4.85134E+03 -7.89499E+03  2.12965E+04  1.19056E+04
  6.91105E+03  3.48245E+04 -3.14686E+04  3.47505E+04 -6.30253E+04  1.28253E+03 -5.60396E+04 -4.13135E+04
 -1.22640E+04 -6.25400E+04  3.85123E+04 -4.45582E+04  5.65633E+04 -2.87881E+03  3.37287E+04  3.11850E+04
 -6.46785E+03  3.42373E+04 -3.00137E+04  1.51972E+04 -2.87301E+04 -5.85936E+03 -1.62925E+04 -1.08814E+04
 -8.04162E+03 -1.17736E+04 -2.95905E+02 -1.81699E+04  8.04279E+03 -2.32200E+04  1.54245E+04 -1.21893E+04
  1.26454E+04  4.83066E+03 -7.16687E+03  1.22457E+04 -2.12981E+04 -3.87439E+03 -7.44023E+03 -3.09231E+04
  2.13938E+04 -4.12599E+04  4.53397E+04 -1.93629E+04  4.34775E+04  1.84670E+04  1.48153E+04  4.29400E+04
 -1.59769E+04  3.12602E+04 -2.39191E+04  1.95835E+03 -9.13343E+03 -2.73269E+04  2.08981E+04 -3.19839E+04
  3.84397E+04 -7.79861E+03  3.40004E+04  2.30957E+04  1.64060E+04  4.39909E+04 -7.81880E+03  4.69395E+04
 -2.95520E+04  3.17292E+04 -3.97084E+04  8.68099E+03 -4.05911E+04 -1.53115E+04 -2.27766E+04 -3.66232E+04
  7.11776E+03 -3.46712E+04  3.03849E+04 -1.43141E+04  2.71303E+04  1.02392E+04  3.58092E+03  1.79492E+04
 -1.31693E+04  7.63900E+03 -1.02521E+04 -7.49975E+03  5.48335E+03 -9.87197E+03  1.79643E+04  7.81220E+03
  1.30099E+04  2.13564E+04 -6.27341E+03  2.45191E+04 -2.11529E+04  1.09147E+04 -2.61730E+04 -5.82184E+03
 -1.87856E+04 -1.69045E+04 -7.82360E+03 -1.73591E+04  4.34884E+03 -1.63033E+04  1.46333E+04 -1.51480E+04
  2.28850E+04 -1.32801E+04  2.92969E+04  2.04238E+03  2.16662E+04  1.68505E+04  4.57819E+03  3.24830E+04
 -1.69168E+04  2.79388E+04 -2.60216E+04  8.62268E+03 -1.96411E+04 -1.10720E+04 -4.16859E+03 -1.20676E+04
  2.61677E+03 -3.53868E+03 -2.57742E+03  5.89413E+03 -1.42559E+04  6.29210E+03 -1.48512E+04 -4.59561E+03
 -1.04558E+04 -1.65238E+04  5.04492E+03 -2.04947E+04  1.27575E+04 -1.44599E+04  1.64687E+04 -1.67583E+03
  8.83013E+03  1.13860E+04 -9.24776E+02  1.70698E+04 -1.10751E+04  9.80400E+03 -1.74627E+04 -3.30819E+03
 -1.17549E+04 -1.44386E+04 -1.72310E+03 -2.14737E+04  7.88918E+03 -1.53378E+04  1.60943E+04 -7.88085E+03
  1.64287E+04  2.04427E+02  1.00241E+04  4.01410E+03  6.56662E+03  1.41925E+03  8.24806E+03 -1.83625E+03
  1.42889E+04  1.30628E+03  1.62183E+04  1.28426E+04  9.72075E+03  2.56570E+04 -3.40300E+03  2.86776E+04
 -1.61881E+04  2.13661E+04 -2.61410E+04  1.13675E+04 -2.76557E+04 -2.55334E+03 -2.30428E+04 -1.59885E+04
 -9.63741E+03 -2.13533E+04  7.55455E+03 -2.00929E+04  1.80157E+04 -1.19196E+04  1.56490E+04  3.94802E+03
  7.46874E+03  1.15237E+04 -7.25799E+03  1.06921E+04 -1.42297E+04  2.24024E+03 -9.91015E+03 -7.94031E+03
  1.07117E+03 -1.31730E+04  5.99721E+03 -9.62312E+03  9.18660E+03 -3.22480E+02  2.11742E+03  5.52309E+03
 -6.96904E+03  1.47702E+03 -3.39332E+03 -5.51606E+03 -5.83052E+02 -1.07551E+04  7.53283E+03 -9.98481E+03
  1.34902E+04 -4.87408E+03  1.42452E+04  2.24056E+03  1.18795E+04  1.00005E+04  6.24174E+03  1.55018E+04
 -2.97331E+03  1.77335E+04 -1.05123E+04  9.96647E+03 -1.15877E+04  2.74691E+03 -9.62077E+03 -2.49587E+03
 -3.88392E+03 -3.74226E+03 -1.11511E+03  1.54881E+03 -7.98602E+02  2.96437E+03 -4.40724E+03  4.65693E+03
 -9.19088E+03  6.02025E+02 -9.71368E+03 -7.79054E+03 -2.50581E+03 -1.11302E+04  3.88554E+03 -8.68113E+03
  7.96457E+03 -3.71306E+03  5.31700E+03  2.51742E+03  4.38647E+02  3.23122E+03 -3.02696E+03 -2.79548E+02
 -5.10183E+03 -5.89818E+03  3.64705E+02 -7.01230E+03  3.46103E+03 -8.24005E+03  1.05171E+04 -4.89355E+03
  1.24857E+04  7.39167E+02  8.81075E+03  6.80187E+03  8.77547E+02  9.89253E+03 -5.44930E+03  8.72099E+03
 -6.97742E+03  3.80594E+03 -3.64797E+03 -1.28089E+03  5.09847E+02 -2.78040E+03  5.33519E+03 -5.71688E+02
  4.48197E+03  3.52677E+03  1.88830E+02  5.93401E+03 -5.34042E+03  6.95111E+03 -8.11686E+03  1.42007E+03
 -5.30892E+03 -3.87285E+03  1.77076E+02 -6.99812E+03  2.68227E+03 -2.63315E+03  3.48766E+03  9.68383E+02
  4.01635E+02  3.15378E+03 -5.28885E+03  3.92971E+03 -5.39873E+03  3.19544E+03 -4.51479E+03 -1.96366E+03
 -3.04368E+03 -6.17704E+03  1.38844E+03 -6.98266E+03  6.68524E+03 -4.84163E+03  6.64586E+03  3.47740E+02
  3.76044E+03  4.79318E+03 -1.61082E+02  7.93419E+03 -5.11609E+03  4.30853E+03 -5.13701E+03  4.34385E+00
 -5.44998E+03 -4.27583E+03 -8.82468E+02 -4.64954E+03  2.89159E+03 -5.34144E+03  1.17059E+03 -2.23318E+03
  2.16502E+03 -1.20028E+01 -6.09640E+02  1.01976E+03  8.16819E+02  7.46490E+01 -3.61468E+02 -2.02980E+03
  3.78000E+03 -1.08052E+03  5.07971E+03  1.07633E+03  5.67672E+03  2.84038E+03  4.84241E+03  6.72199E+03
 -2.34566E+03  9.84060E+03 -8.08200E+03  7.88847E+03 -9.24471E+03  9.88220E+02 -7.73811E+03 -1.72755E+03
 -3.90557E+03 -6.64070E+03 -4.87520E+02 -4.86618E+03  3.35240E+03 -2.62841E+03  7.37010E+02 -2.13675E+03
  1.52636E+03 -1.72697E+03  2.03783E+03 -3.28478E+03  2.71919E+03 -1.30875E+03  3.13204E+03  5.04937E+01
  4.51032E+03  1.35975E+03  5.80321E+02  3.73201E+03 -1.33356E+03  3.13461E+03 -4.90527E+03  3.43503E+03
 -4.60799E+03 -1.36566E+03 -1.37984E+03 -3.28177E+03  1.12022E+03 -5.59118E+03  3.40217E+03 -5.84535E+03
  5.17471E+03 -2.58661E+03  6.60932E+03  1.07425E+03  4.40253E+03  3.71339E+03  1.84585E+03  4.87665E+03
 -8.47275E+02  4.76708E+03 -4.32613E+03  2.40590E+03 -1.44529E+03 -2.23200E+03 -5.82683E+02 -1.35949E+03
 -1.29961E+03 -4.31167E+02 -5.67702E+02  8.88770E+02 -1.85314E+03  2.57661E+03 -2.68105E+03 -9.26707E+02
 -1.18523E+03 -4.01697E+03  5.67513E+02 -4.85523E+03  2.48449E+03 -4.56424E+03  2.57327E+03 -9.22735E+02
  5.18221E+03  2.04943E+03  1.47630E+03  3.30935E+03 -2.11201E+02  4.74941E+03 -3.41399E+03  2.38500E+03
 -4.29319E+03  3.95050E+02 -4.77715E+03 -2.48358E+03 -1.31274E+03 -4.36346E+03  1.49719E+03 -1.58288E+03
  2.72344E+03 -1.59220E+03  1.63358E+03  7.86885E+02 -3.93379E+02  1.22935E+03  6.86781E+02  8.18787E+02
  9.17845E+02  8.87938E+02  7.06203E+02  3.14606E+01  2.06581E+03  2.07323E+03  3.86722E+02  8.57680E+02
 -1.09241E+03  1.62468E+03 -2.54879E+03  4.06700E+03 -3.34296E+03  3.97052E+02 -4.48164E+03 -4.86593E+02
 -2.88153E+03 -4.32378E+03  3.39355E+01 -3.22525E+03  7.66596E+02 -2.25705E+03  2.35594E+03 -7.55489E+02
  1.60237E+03  1.62892E+03  1.68913E+02  3.38640E+03 -3.27273E+02  1.16624E+03 -1.01776E+03  7.39889E+02
 -2.29890E+02 -1.79693E+03  1.03481E+03 -7.67783E+02  1.35593E+03 -8.40297E+02  2.39554E+03  1.39837E+03
  6.87508E+02  3.15399E+02  8.00293E+02 -4.32901E+02 -8.62394E+02  1.68999E+03  1.11653E+03 -8.08225E+02
 -6.95322E+02 -1.15504E+03  1.50445E+03  3.43840E+02  2.72186E+02  1.28855E+03 -4.07859E+02  3.90187E+03
 -1.48991E+03  1.63169E+03 -2.29056E+03  9.83659E+02 -1.12083E+03  3.93103E+01 -7.16978E+02 -1.14924E+03
  8.65665E+01 -1.30410E+03 -3.38259E+02 -1.06058E+03  3.14826E+02  1.35330E+03 -2.90719E+02  9.96719E+02
 -1.49294E+03  1.60182E+03 -8.14703E+02 -1.66538E+03  1.73244E+02 -1.80668E+03 -5.98463E+02 -2.28838E+03
 -2.89841E+02 -4.01007E+02  1.29608E+03  8.53102E+01  6.07085E+02  4.77697E+01  3.13557E+02  6.90954E+02
 -9.64466E+02 -5.96959E+02 -1.65174E+03 -4.21700E+02 -1.07081E+03 -1.30825E+03  4.98850E+01 -8.95914E+02
  1.44250E+03  2.07660E+02  2.22016E+03  7.16475E+02  4.46897E+02  8.26500E+02 -1.76970E+00  9.40097E+02
 -1.61670E+03 -2.91375E+02 -1.32697E+03 -7.59127E+02 -1.57023E+02 -1.19849E+03  6.67711E+02 -1.88861E+03
  2.18799E+03 -1.80581E+01  5.71783E+02  1.72892E+02  8.09098E+00  5.96897E+02  8.30304E+02  1.00783E+03
 -1.25487E+03  1.98745E+02 -1.02471E+03 -9.23310E+01  9.63448E+02  4.55601E+02 -7.05758E+02 -4.50264E+02
 -6.72258E+02  1.63167E+03 -1.83928E+03 -9.63941E+02 -2.31367E+03 -7.36420E+02 -3.53581E+03 -9.61098E+02
 -6.01301E+02 -1.93994E+03  7.45600E+02 -2.54055E+03  9.43537E+02 -3.71955E+03  2.02374E+03 -1.23294E+03
  4.26418E+03 -4.21084E+02  1.13987E+03  2.05761E+03 -1.07604E+03  1.84575E+03 -2.59666E+02  1.38920E+03
 -8.70694E+02  5.59655E+02 -2.38824E+02  6.00232E+02 -4.36161E+02  9.51261E+02 -5.10547E+02  3.43735E+01
 -8.39246E+02  2.64277E+02 -2.26335E+03 -1.05178E+02 -1.54413E+02 -5.90505E+02 -6.46845E+02 -1.36895E+03
  1.49945E+03 -1.05198E+03  3.66485E+02 -4.29195E+02  9.65400E+02  5.83362E+02 -4.73911E+02  5.44447E+02
 -9.01484E+02  2.71722E+03 -1.12041E+03  4.99861E+01 -6.33618E+02  6.09466E+02 -1.71346E+03 -1.50153E+03
 -7.62009E+02 -1.31602E+03  2.48762E+02 -6.24915E+02  1.61235E+03  2.98814E+02 -2.07437E+02  7.48461E+02
  6.24212E+02  2.85143E+02 -5.60109E+02 -8.20482E+02 -2.10946E+02 -4.66972E-01  6.97687E+02  4.27396E+02
  1.34361E+02  7.34954E+02 -6.36204E+02 -3.26688E+02 -6.85082E+02  1.72048E+02 -4.43597E+02  5.46474E+02
 -3.31635E+02  1.01658E+02 -6.39699E+02  1.96109E+01  3.93322E+02 -8.40872E+02 -4.93584E+02 -2.21754E+03
  6.53807E+02 -1.91736E+02  1.41363E+03  8.00862E+02 -5.45992E+02 -1.64170E+03 -4.32041E+02  7.02585E+02
  3.94532E+02 -2.83525E+02 -4.87072E+02  1.21521E+02 -4.39945E+02  3.57541E+02 -3.20562E+02 -2.94287E+02
 -5.77797E+02  1.91151E+02 -6.34448E+02  1.67208E+02 -3.32726E+02  3.86721E+01 -1.49593E+03 -7.65809E+02
 -9.63786E+02  5.33928E+02 -1.01461E+01  3.83888E+02  1.12512E+03 -1.23617E+03 -4.14259E+02 -7.77340E+02
  1.25737E+02 -6.66599E+00 -5.54144E+01  1.83732E+02 -3.60822E+02  5.67172E+02  6.30223E+02  3.21676E+02
