 $NMID ID='MM_0lb_SNR200_18hz_g50_61.RAW', FMTDAT='(8E13.5)'
 TRAMP=1., VOLUME=1. $END
  3.08727E+05  8.01572E+02  3.37981E+05  2.50079E+05  8.51066E+04  3.37957E+05 -1.33289E+05  2.50355E+05
 -1.89142E+05  8.30782E+04 -1.11193E+05 -3.21806E+04  9.08044E+02 -5.07179E+04  5.41766E+04  4.01002E+02
  3.46974E+04  5.33633E+04 -1.67445E+04  7.48645E+04 -6.02777E+04  6.21598E+04 -8.35276E+04  3.14958E+04
 -8.00306E+04 -1.21179E+04 -5.68848E+04 -5.10042E+04 -1.46406E+04 -6.93035E+04  2.68213E+04 -4.47693E+04
  4.01974E+04  4.18072E+03  1.53058E+04  4.66292E+04 -3.38171E+04  4.70987E+04 -6.43510E+04 -1.07056E+03
 -5.23300E+04 -5.62346E+04 -5.86999E+03 -7.63584E+04  3.27706E+04 -5.30040E+04  4.67846E+04 -1.70184E+04
  4.11969E+04  1.09529E+04  3.12750E+04  2.46261E+04  1.54238E+04  2.85780E+04 -5.50199E+03  2.68958E+04
 -2.23179E+04  1.20206E+04 -1.91580E+04 -4.96490E+03  5.13489E+03 -8.41771E+03  2.07364E+04  1.21270E+04
  6.80836E+03  3.52733E+04 -3.11241E+04  3.46414E+04 -6.10161E+04  1.76192E+03 -5.61161E+04 -4.14175E+04
 -1.27821E+04 -6.15927E+04  3.78952E+04 -4.30804E+04  5.73419E+04 -1.99306E+03  3.24651E+04  3.13131E+04
 -5.70167E+03  3.40825E+04 -2.87108E+04  1.34720E+04 -2.84922E+04 -3.99274E+03 -1.53289E+04 -9.91543E+03
 -8.22143E+03 -1.17130E+04 -1.04064E+03 -1.57314E+04  6.97696E+03 -2.19423E+04  1.53759E+04 -1.32481E+04
  1.27369E+04  4.85379E+03 -7.27186E+03  1.31789E+04 -1.94103E+04 -3.02151E+03 -7.37223E+03 -3.06953E+04
  2.24580E+04 -4.03835E+04  4.53849E+04 -1.93225E+04  4.21735E+04  1.82068E+04  1.53795E+04  4.21847E+04
 -1.58923E+04  3.29924E+04 -2.33935E+04 -1.21913E+02 -9.56046E+03 -2.75606E+04  2.03294E+04 -3.25403E+04
  3.86517E+04 -7.88212E+03  3.36546E+04  2.36393E+04  1.66663E+04  4.37159E+04 -7.26625E+03  4.64782E+04
 -2.93296E+04  3.07356E+04 -3.79494E+04  9.09469E+03 -3.84401E+04 -1.60485E+04 -2.20632E+04 -3.50433E+04
  7.56742E+03 -3.57957E+04  3.07982E+04 -1.32165E+04  2.70492E+04  1.03131E+04  3.34753E+03  1.84524E+04
 -1.33681E+04  7.31423E+03 -1.00544E+04 -8.14973E+03  6.16313E+03 -9.99814E+03  1.76444E+04  6.16092E+03
  1.21191E+04  2.16452E+04 -5.69057E+03  2.42984E+04 -2.14004E+04  1.01566E+04 -2.53335E+04 -6.17002E+03
 -1.78064E+04 -1.61139E+04 -6.06494E+03 -1.68567E+04  3.87703E+03 -1.57069E+04  1.41430E+04 -1.57685E+04
  2.17006E+04 -1.15952E+04  3.00207E+04  1.78911E+03  2.22480E+04  1.73204E+04  5.97096E+03  3.35445E+04
 -1.65032E+04  2.80311E+04 -2.54921E+04  1.02399E+04 -2.02320E+04 -9.90168E+03 -3.70015E+03 -1.36851E+04
  1.25336E+03 -4.51860E+03 -5.26333E+03  3.97162E+03 -1.26900E+04  5.23900E+03 -1.41796E+04 -4.88702E+03
 -9.39198E+03 -1.58861E+04  5.38994E+03 -1.94490E+04  1.34384E+04 -1.52523E+04  1.48586E+04 -1.28957E+03
  8.56548E+03  1.15272E+04 -3.32480E+02  1.59620E+04 -1.09494E+04  9.07135E+03 -1.64430E+04 -3.40084E+03
 -1.20548E+04 -1.45216E+04 -1.06156E+03 -1.90510E+04  9.13822E+03 -1.60990E+04  1.66083E+04 -7.00107E+03
  1.50210E+04  1.14010E+03  1.00185E+04  4.11357E+03  5.64039E+03  1.51559E+01  7.54067E+03 -7.19462E+02
  1.48472E+04  2.25748E+03  1.60164E+04  1.38331E+04  9.48781E+03  2.52971E+04 -2.02997E+03  2.80744E+04
 -1.71005E+04  2.13257E+04 -2.56381E+04  9.82832E+03 -2.60591E+04 -1.54838E+03 -2.20631E+04 -1.49639E+04
 -1.04055E+04 -2.09165E+04  7.51157E+03 -1.94372E+04  1.70458E+04 -1.15884E+04  1.58544E+04  3.63274E+03
  6.51714E+03  1.18459E+04 -7.76943E+03  1.12651E+04 -1.37736E+04  3.00247E+03 -1.02239E+04 -7.99881E+03
  9.59005E+01 -1.32488E+04  6.74001E+03 -9.29900E+03  7.41854E+03 -1.87056E+03  1.23633E+03  5.36157E+03
 -6.82660E+03  5.18014E+01 -4.79892E+03 -4.33867E+03  1.75891E+03 -1.19492E+04  7.22710E+03 -1.12889E+04
  1.27140E+04 -4.17661E+03  1.20033E+04  3.11702E+03  1.12092E+04  8.98522E+03  5.35220E+03  1.48044E+04
 -8.94564E+02  1.71223E+04 -1.01014E+04  1.08545E+04 -1.27130E+04  3.48952E+03 -8.34144E+03 -2.15196E+03
 -4.01022E+03 -3.50070E+03 -8.12989E+02  7.44939E+02 -8.79521E+02  1.96236E+03 -3.53368E+03  4.76268E+03
 -8.09436E+03 -1.03018E+03 -8.89775E+03 -6.87348E+03 -2.55234E+03 -1.29592E+04  3.25980E+03 -9.29318E+03
  7.55868E+03 -4.03372E+03  4.82343E+03  2.17552E+03  8.01794E+02  3.50298E+03 -3.32683E+03 -2.88169E+02
 -3.07518E+03 -5.74907E+03 -1.52835E+03 -7.55182E+03  4.02779E+03 -8.34377E+03  1.02192E+04 -3.84406E+03
  1.15686E+04  8.22262E+02  8.33135E+03  7.17115E+03  1.76494E+03  9.51840E+03 -6.78757E+03  8.92421E+03
 -5.73808E+03  2.85716E+03 -3.44393E+03 -1.24338E+03  1.82662E+03 -2.09784E+03  3.41536E+03 -1.21916E+03
  4.02428E+03  3.41783E+03  1.30649E+03  7.41519E+03 -4.86508E+03  6.37148E+03 -7.85787E+03  2.60722E+03
 -5.34928E+03 -4.68277E+03  7.62246E+02 -6.31287E+03  4.29323E+03 -4.27912E+03  3.31363E+03  1.29591E+03
  9.69985E+02  3.52961E+03 -4.11802E+03  5.12265E+03 -4.58102E+03  3.57275E+03 -5.16888E+03 -1.15395E+03
 -3.80222E+03 -6.93104E+03  1.03166E+03 -8.11829E+03  6.54321E+03 -5.70511E+03  6.82779E+03  1.94595E+03
  5.45607E+03  5.62624E+03  3.94445E+02  7.12043E+03 -5.38427E+03  3.10884E+03 -5.06179E+03 -3.28501E+02
 -4.85109E+03 -5.57337E+03 -7.97899E+02 -5.23384E+03  3.48280E+03 -4.82338E+03  2.44335E+03 -3.44868E+03
  2.98760E+03  4.67254E+02 -6.11439E+02  4.09215E+02  1.00663E+03 -3.73520E+02  6.34540E+02 -2.22673E+03
  5.03348E+03 -4.88905E+02  6.03057E+03  6.75358E+02  6.28142E+03  3.29546E+03  5.30776E+03  8.55388E+03
 -1.83990E+03  9.58715E+03 -1.00308E+04  7.67497E+03 -1.05119E+04  1.71686E+03 -8.44929E+03 -2.64691E+03
 -3.76609E+03 -7.18433E+03 -8.25377E+02 -5.51305E+03  2.68772E+03 -2.56834E+03  1.15004E+03 -2.00881E+03
  1.91083E+03 -2.10956E+03  2.72726E+03 -1.67945E+03  2.70611E+03 -1.24830E+03  4.74139E+03  8.02723E+02
  4.11695E+03  3.49094E+02  1.90956E+03  3.98275E+03 -8.24626E+02  2.81495E+03 -4.73137E+03  3.65365E+03
 -6.14050E+03 -5.94710E+02 -1.74701E+03 -3.32243E+03  6.38953E+02 -4.97460E+03  2.52652E+03 -6.10480E+03
  5.68996E+03 -3.17774E+03  7.08645E+03  9.20117E+01  4.34405E+03  4.46947E+03  1.04686E+03  7.09713E+03
 -2.16895E+03  6.10764E+03 -3.52562E+03  2.56387E+03 -2.61671E+03 -8.87567E+02  1.99295E+02 -1.55117E+02
 -7.81726E+02  9.97104E+02 -1.59277E+02  1.93411E+03 -2.77214E+03  2.58985E+02 -4.55948E+03  4.45200E+02
 -1.42246E+03 -5.27810E+03  1.32179E+03 -4.17969E+03  3.49626E+03 -3.90929E+03  4.51110E+03 -1.15575E+03
  4.87769E+03  2.64537E+03  1.82804E+03  4.30194E+03 -1.33618E+03  3.54339E+03 -2.02411E+03  2.47744E+03
 -3.92583E+03  1.80211E+03 -3.91323E+03 -3.07915E+03 -1.72230E+02 -2.27993E+03  2.03320E+03 -2.25120E+03
  2.44407E+03 -1.93935E+03  1.99339E+03  3.46771E+02  5.87247E+02  1.33127E+03  8.60307E+02  3.49764E+02
  9.34436E+02  3.20580E+02  1.74599E+03  1.05753E+03  1.50744E+03  2.07248E+03  1.72032E+03  3.03635E+03
 -2.10216E+03  2.33628E+03 -3.74882E+03  3.32552E+03 -2.91900E+03  1.42516E+03 -4.07367E+03 -3.48495E+01
 -1.65055E+03 -3.50192E+03  8.85975E+02 -5.21214E+03  3.27168E+03 -2.71908E+03  3.67850E+03 -1.87420E+03
  3.33111E+03  1.31449E+03  1.00095E+03  2.32049E+03 -4.61851E+02  1.66106E+03 -1.09060E+03 -2.59159E+02
 -8.88311E+02 -1.61571E+03  7.81051E+02 -2.27407E+03  1.33391E+03 -1.69750E+03  1.20390E+03 -7.69201E+01
  1.54570E+03  9.08213E+02  6.60842E+02 -8.06065E+02  4.89731E+02 -2.22125E+01  8.70783E+02  9.02807E+02
 -5.62293E+02 -2.89551E+02  2.10629E+03  1.66449E+03  6.47196E+02  2.75849E+03 -7.43130E+02  3.02596E+03
 -1.20135E+03  5.58690E+02 -2.21076E+03  7.52462E+02 -2.81080E+03 -1.52619E+03  6.59403E+02 -8.72147E+02
  1.03562E+02 -1.46730E+03  5.31900E+02 -8.35023E+02 -1.22566E+02  2.03714E+03 -1.12015E+03  5.76923E+02
 -1.86284E+03  7.41047E+02 -1.20148E+03 -8.15257E+02 -2.97265E+02 -2.62830E+03  7.52320E+02 -1.69430E+03
  1.82074E+03 -6.57240E+02  3.59546E+02  7.46613E+02  7.69831E+02  6.06902E+02 -2.27155E+02  7.24348E+02
 -6.82248E+02 -5.87094E+02 -4.32428E+02 -3.41287E+02  1.94010E+03 -6.87387E+02  2.04508E+03 -7.73164E+02
  9.74241E+02 -2.37373E+02  3.56308E+03  6.66644E+01  1.18110E+03  2.14838E+03  3.91710E+02  1.44734E+03
 -7.12258E+02 -2.83177E+02 -1.34271E+03 -4.12860E+02 -1.29503E+03 -1.23229E+03 -3.34296E+02 -1.25145E+03
  2.43553E+03 -7.54491E+02  7.57635E+02  2.97850E+02 -2.75279E+02  2.12812E+02 -1.10678E+03  7.79160E+02
 -5.24299E+02  7.35087E+02 -4.97430E+02  8.53675E+02  1.53409E+03  4.63841E+02 -1.26441E+03  9.19502E+01
 -7.70993E+02  1.30802E+03 -2.25693E+03  1.02604E+03 -1.76902E+03  5.92174E+02 -2.86082E+03 -9.19058E+02
 -9.09095E+02 -3.18192E+03  3.31208E+02 -3.30959E+03  1.09096E+03 -3.90080E+03  2.44306E+03 -1.93333E+03
  2.35913E+03 -5.17589E+02  1.60748E+03  2.42105E+03 -1.66573E+03  1.74878E+03 -1.40686E+03  1.04755E+03
 -1.28431E+03  1.32615E+03 -6.36363E+02 -2.89105E+02  3.82786E+02  2.28489E+02 -1.24864E+03 -4.22204E+02
 -1.09297E+03 -1.03539E+02 -8.29801E+02  6.02297E+01  2.36748E+02 -1.58353E+03 -1.91391E+02 -3.09326E+02
  8.48143E+02 -8.30101E+01  3.67762E+02  1.37345E+03  3.27724E+02  1.41200E+03 -8.07684E+02  1.94030E+03
 -4.51605E+02  2.47034E+03 -2.81562E+03  1.73419E+03 -1.43658E+03 -1.05328E+02 -2.98244E+02 -1.23516E+03
 -1.63601E+03 -3.03411E+03  9.66348E+01 -3.19209E+02  1.52334E+03 -7.49544E+02  9.75964E+02  1.21970E+03
  6.23945E+02  5.77690E+02  9.00436E+02 -3.74427E+02 -8.33781E+02  9.75970E+02 -1.55222E+02 -2.64889E+02
 -1.15956E+03  9.99289E+02  1.46312E+03  6.59901E+02  2.89896E+02 -2.92365E+02  8.02090E+02  2.09895E+03
 -8.89626E+02 -2.05272E+01  7.97734E+02  6.70002E+02 -1.12688E+03  6.43877E+02  2.05290E+02 -1.34945E+03
  8.62814E+02 -5.97145E+02  1.32148E+03 -9.40958E+01  1.43270E+03 -1.63172E+03 -1.68814E+02  7.48054E+02
 -1.86577E+01  1.03848E+03 -5.29019E+01  1.64836E+03 -1.18996E+03  4.79327E+02 -3.16681E+02  5.13532E+02
  2.21640E+02  2.22661E+02 -2.15119E+02  5.10724E+02 -5.71633E+02  7.62874E+02 -1.29771E+03 -3.09986E+02
 -2.42268E+03  3.70149E+01 -9.67830E+02 -1.46792E+03  1.41317E+03 -8.15539E+02  1.51246E+02 -1.95254E+02
  1.03441E+03 -6.65029E+02  4.84501E+02  5.53480E+02 -2.00286E+02  9.74631E+02 -8.78625E+02  1.18754E+03
