 $NMID ID='MM_0lb_SNR200_9hz_g40_68.RAW', FMTDAT='(8E13.5)'
 TRAMP=1., VOLUME=1. $END
  3.09262E+05  3.40410E+02  3.37021E+05  2.51014E+05  8.49233E+04  3.36757E+05 -1.33052E+05  2.50643E+05
 -1.91508E+05  8.32000E+04 -1.11165E+05 -3.15595E+04  1.11972E+03 -5.12196E+04  5.50251E+04 -1.08604E+03
  3.62123E+04  5.20212E+04 -1.63619E+04  7.71284E+04 -5.98537E+04  6.43386E+04 -8.58004E+04  3.38665E+04
 -8.27867E+04 -1.11235E+04 -5.75129E+04 -5.15893E+04 -1.47536E+04 -7.23101E+04  2.78378E+04 -4.70968E+04
  4.02883E+04  4.46072E+03  1.79628E+04  4.90421E+04 -3.44457E+04  4.79348E+04 -6.73888E+04  2.39904E+02
 -5.45286E+04 -5.78290E+04 -7.39461E+03 -7.89828E+04  3.50183E+04 -5.56052E+04  4.88030E+04 -1.79573E+04
  4.40339E+04  1.17293E+04  2.94733E+04  2.63337E+04  1.48561E+04  2.94514E+04 -6.04413E+03  2.62574E+04
 -2.35423E+04  1.22018E+04 -1.73240E+04 -6.02103E+03  8.25937E+03 -5.95812E+03  2.23944E+04  1.25413E+04
  6.95533E+03  3.72649E+04 -3.31506E+04  3.61909E+04 -6.59381E+04  2.23791E+03 -5.68446E+04 -4.41337E+04
 -1.17336E+04 -6.56093E+04  4.13239E+04 -4.60997E+04  6.04584E+04 -2.81127E+03  3.50959E+04  3.41285E+04
 -4.82838E+03  3.71112E+04 -3.24911E+04  1.90435E+04 -3.15205E+04 -4.37176E+03 -1.86616E+04 -1.27754E+04
 -8.28631E+03 -1.61119E+04 -4.96778E+02 -1.95112E+04  8.29382E+03 -2.39138E+04  1.49445E+04 -1.30390E+04
  1.09416E+04  5.93311E+03 -9.87137E+03  1.24441E+04 -2.30610E+04 -5.49153E+03 -7.51551E+03 -3.53782E+04
  2.50783E+04 -4.52106E+04  5.05540E+04 -2.12732E+04  4.67495E+04  2.09315E+04  1.49260E+04  4.74856E+04
 -1.64179E+04  3.56474E+04 -2.73333E+04  2.76470E+03 -1.14205E+04 -2.80193E+04  2.17091E+04 -3.46095E+04
  4.41037E+04 -9.24292E+03  3.97505E+04  2.49471E+04  2.15123E+04  5.05544E+04 -8.99682E+03  5.40160E+04
 -3.46350E+04  3.69479E+04 -4.60456E+04  1.04737E+04 -4.65575E+04 -1.67992E+04 -2.55370E+04 -4.01626E+04
  8.99827E+03 -4.04076E+04  3.38820E+04 -1.67983E+04  3.19825E+04  1.12085E+04  4.84766E+03  2.15156E+04
 -1.47171E+04  8.60786E+03 -1.09837E+04 -6.02207E+03  4.72953E+03 -1.11253E+04  1.94362E+04  6.63244E+03
  1.34288E+04  2.22110E+04 -5.73311E+03  2.54175E+04 -2.34567E+04  1.47303E+04 -3.17199E+04 -4.34771E+03
 -2.49372E+04 -1.74421E+04 -1.10419E+04 -2.47520E+04  3.10022E+03 -2.33276E+04  1.80055E+04 -2.22726E+04
  3.11501E+04 -1.42881E+04  3.80876E+04  5.47410E+03  2.79013E+04  2.47332E+04  4.69574E+03  3.95880E+04
 -2.02202E+04  3.37532E+04 -3.12784E+04  1.16528E+04 -2.17371E+04 -1.11799E+04 -5.09819E+03 -1.33338E+04
  3.78466E+02 -1.69102E+03 -8.00616E+03  6.57881E+03 -1.94835E+04  5.17437E+03 -1.93870E+04 -8.10645E+03
 -1.15883E+04 -2.01697E+04  7.11318E+03 -2.70799E+04  1.80182E+04 -1.99956E+04  2.10256E+04 -1.15277E+03
  1.34503E+04  1.64182E+04 -9.48317E+02  2.28790E+04 -1.59048E+04  1.25586E+04 -2.28112E+04 -5.72891E+03
 -1.58656E+04 -2.06661E+04 -2.36334E+03 -2.82573E+04  1.20873E+04 -2.30107E+04  2.09468E+04 -1.14363E+04
  2.19573E+04 -1.24809E+02  1.60295E+04  4.06346E+03  8.89023E+03  2.12508E+03  1.24103E+04 -1.19388E+03
  2.16651E+04  2.77675E+03  2.40377E+04  1.66021E+04  1.67558E+04  3.52368E+04 -1.68091E+03  4.34946E+04
 -2.34103E+04  3.46087E+04 -4.16962E+04  1.85267E+04 -4.30960E+04 -2.46930E+03 -3.36772E+04 -2.47265E+04
 -1.58111E+04 -3.58910E+04  1.22321E+04 -3.06124E+04  2.69064E+04 -1.42214E+04  2.22410E+04  8.10716E+03
  7.13665E+03  1.68610E+04 -1.08315E+04  1.53874E+04 -1.98926E+04  2.73686E+03 -1.31473E+04 -1.27207E+04
 -1.68237E+03 -1.89412E+04  9.72269E+03 -1.44575E+04  1.13935E+04 -8.94643E+02  3.38447E+03  9.16236E+03
 -8.59167E+03  4.29846E+03 -8.15508E+03 -5.12813E+03 -3.01460E+03 -1.68355E+04  1.26316E+04 -1.91603E+04
  2.36772E+04 -9.85124E+03  2.45552E+04  3.65611E+03  2.06121E+04  1.86593E+04  1.14055E+04  2.60216E+04
 -5.67267E+03  3.04227E+04 -1.87649E+04  1.94289E+04 -2.06256E+04  3.62187E+03 -1.53675E+04 -4.67914E+03
 -7.12185E+03 -5.80806E+03 -2.12965E+03 -2.08479E+02 -3.96132E+03  3.60984E+03 -7.32935E+03  6.15223E+03
 -1.25997E+04  6.74820E+02 -1.55326E+04 -1.05672E+04 -6.12383E+03 -1.89358E+04  5.29702E+03 -1.60220E+04
  1.39876E+04 -6.97799E+03  9.41720E+03  3.65643E+03 -1.40865E+03  7.30141E+03 -6.27944E+03  8.90495E+02
 -5.82385E+03 -7.48707E+03 -7.44201E+02 -1.61701E+04  8.18591E+03 -1.41766E+04  1.83403E+04 -8.40210E+03
  2.43065E+04  1.67497E+03  1.54484E+04  1.30105E+04  3.05138E+03  1.63462E+04 -9.30676E+03  1.42533E+04
 -1.10322E+04  3.99652E+03 -7.36123E+03 -2.01496E+03  2.77622E+03 -3.74990E+03  8.45058E+03 -1.72689E+03
  8.00116E+03  6.75363E+03  7.56971E+02  1.31005E+04 -1.01154E+04  1.13602E+04 -1.54638E+04  2.43289E+03
 -1.03618E+04 -9.83197E+03  7.32255E+01 -1.21170E+04  8.47445E+03 -5.11720E+03  8.91006E+03  2.32280E+03
  1.78502E+03  1.00723E+04 -7.53857E+03  1.11166E+04 -1.16670E+04  4.86962E+03 -1.35781E+04 -3.89169E+03
 -8.82829E+03 -1.48360E+04  4.26519E+03 -1.64135E+04  1.38328E+04 -1.01902E+04  1.62690E+04  2.28513E+03
  1.04804E+04  1.26643E+04 -1.08155E+03  1.34358E+04 -1.05863E+04  7.53182E+03 -1.26071E+04 -1.09054E+03
 -8.61095E+03 -9.04095E+03 -8.37571E+02 -1.15522E+04  7.24176E+03 -8.55742E+03  8.07132E+03 -3.25935E+03
  4.65654E+03  1.57546E+03 -5.13561E+02  1.71729E+03 -3.79235E+02 -2.62840E+03  2.27578E+03 -7.26384E+03
  1.04169E+04 -5.30841E+03  1.72011E+04  2.26701E+03  1.51085E+04  1.12400E+04  1.04094E+04  2.06133E+04
 -3.70078E+03  2.24087E+04 -1.86468E+04  1.48623E+04 -2.47429E+04  4.31564E+03 -1.78548E+04 -7.88516E+03
 -7.85994E+03 -1.53411E+04 -3.43829E+02 -1.36727E+04  4.42763E+03 -8.71970E+03  5.21954E+03 -4.29233E+03
  2.53911E+03 -2.51851E+03  3.51966E+03 -1.87696E+03  5.03352E+03 -3.02628E+03  8.06063E+03 -1.85464E+03
  1.03874E+04  1.30239E+03  6.86961E+03  8.33862E+03 -4.49650E+02  1.02835E+04 -9.73777E+03  8.53570E+03
 -1.36826E+04 -1.81336E+03 -8.62752E+03 -1.02879E+04 -2.52290E+03 -1.43646E+04  7.40998E+03 -1.54822E+04
  1.53956E+04 -7.75709E+03  1.77321E+04  3.74948E+03  1.24753E+04  1.41745E+04  2.87302E+03  1.60366E+04
 -7.77249E+03  1.47550E+04 -9.23024E+03  5.26784E+03 -6.48614E+03 -1.87027E+03 -2.99425E+03 -1.05303E+03
 -2.53757E+03  3.25744E+02 -1.55980E+03  3.66485E+03 -5.82101E+03  3.50956E+03 -1.11610E+04 -1.35553E+03
 -6.19067E+03 -9.40680E+03  4.01546E+02 -1.48524E+04  8.54283E+03 -1.24783E+04  1.41750E+04 -4.95259E+03
  1.38473E+04  7.21245E+03  7.42866E+03  1.28379E+04 -1.80483E+03  1.36067E+04 -1.14778E+04  9.38702E+03
 -1.20906E+04  7.54632E+02 -1.05539E+04 -8.81230E+03 -2.08400E+03 -1.17503E+04  4.54124E+03 -8.45322E+03
  7.14997E+03 -3.09394E+03  6.73306E+03  2.38453E+03  1.21704E+03  4.73082E+03  2.92241E+03  1.06306E+03
  2.42338E+03  1.61239E+03  2.97559E+03  4.98356E+01  2.91492E+03  3.97820E+03  1.29226E+03  7.93532E+03
 -2.14955E+03  1.22807E+04 -9.58459E+03  1.17499E+04 -1.46141E+04  4.51737E+03 -1.46217E+04 -6.59205E+03
 -7.17643E+03 -1.40525E+04  2.42458E+03 -1.56064E+04  7.81489E+03 -1.17776E+04  1.24318E+04 -2.93338E+03
  1.00992E+04  5.59162E+03  2.51387E+03  8.91844E+03 -5.08632E+03  6.59036E+03 -5.76090E+03 -9.93372E+02
 -2.05701E+03 -4.58353E+03  4.44005E+03 -5.87307E+03  7.80232E+03 -3.50903E+03  4.93277E+03  8.52769E+02
  4.31280E+03  1.07283E+03  1.24638E+03  1.57536E+03 -3.32730E+02  2.45074E+03  2.45866E+03 -7.64420E+02
  1.37597E+03 -7.15558E+02  5.99279E+03  2.07502E+03  4.49263E+03  7.97634E+03 -5.93782E+02  1.07653E+04
 -6.54508E+03  6.35421E+03 -1.05988E+04  1.56173E+03 -9.30998E+03 -2.03926E+03 -1.77104E+03 -7.24383E+03
  1.52376E+02 -6.21026E+03  3.62873E+03 -2.38879E+03  2.31519E+03  3.80360E+03 -2.65609E+03  4.30034E+03
 -5.36017E+03  4.25179E+03 -4.97767E+03 -3.44243E+03 -3.16213E+03 -7.49157E+03  1.33213E+03 -7.72308E+03
  3.54525E+03 -4.47624E+03  6.78760E+03  6.14657E+02  3.89971E+03  2.04086E+03  1.72554E+03  3.40014E+03
 -3.57929E+03 -2.21599E+03 -3.80643E+03 -1.80568E+03  1.65212E+03 -7.64025E+03  6.65768E+03 -5.73122E+03
  7.13892E+03  5.45831E+02  8.23897E+03  7.35904E+03  2.97788E+03  9.97714E+03 -3.84458E+03  8.34098E+03
 -6.07870E+03  4.67320E+03 -9.87846E+03 -1.89033E+03 -4.16517E+03 -6.10975E+03  1.07703E+03 -5.61276E+03
  6.67431E+03 -3.83184E+03  3.14344E+03  2.58909E+03  1.81556E+03  4.38721E+03 -1.79557E+02  4.58202E+03
 -2.57858E+03  3.47740E+03 -3.19175E+03 -1.64657E+02  1.13969E+02  1.48451E+03 -1.59473E+03 -2.53497E+02
 -3.78076E+03  3.79617E+03 -6.26031E+03  2.45240E+03 -9.35137E+03  4.99380E+02 -1.04513E+04 -4.40432E+03
 -7.95192E+03 -1.31140E+04  2.41263E+03 -1.36881E+04  8.59026E+03 -1.07048E+04  1.33088E+04 -4.73062E+03
  1.15767E+04  3.70992E+03  8.42857E+03  8.09139E+03 -6.69756E+02  9.51027E+03 -3.48407E+03  7.47013E+03
 -6.70552E+03  1.91048E+03 -3.37700E+03 -3.29538E+03 -1.90783E+03  2.41647E+02 -6.05723E+02 -8.28147E+02
 -7.35241E+02  4.06461E+02 -2.09705E+03  4.01642E+02 -5.27871E+02 -2.17715E+03 -5.60775E+02 -3.10359E+03
  4.24344E+03 -3.23505E+03  7.72136E+03  9.49665E+00  6.15576E+03  4.57918E+03  1.75792E+03  9.57693E+03
 -4.52955E+03  1.22303E+04 -1.03177E+04  7.96215E+03 -1.18780E+04 -6.30450E+02 -8.10209E+03 -8.07292E+03
 -3.26504E+03 -9.49041E+03  1.48291E+03 -1.00635E+04  6.53983E+03 -4.60189E+03  8.21612E+03  6.42464E+02
  2.61598E+03  2.23846E+03  7.55326E+02  2.55610E+03 -2.86684E+03 -1.39687E+03  2.73407E+02 -1.70987E+03
  3.61369E+03 -9.06130E+02  2.40984E+03  1.83141E+03  1.98187E+03  4.97933E+03 -1.09022E+03  4.25578E+03
 -4.86425E+03  4.77391E+03 -7.72350E+03  5.09140E+02 -5.56909E+03 -4.75734E+03 -9.67633E+02 -8.12335E+03
  2.95540E+03 -7.19313E+03  8.03190E+03 -4.23498E+03  6.03786E+03  1.41589E+03  4.03132E+03  5.70041E+03
  2.60704E+03  4.55671E+03 -2.97005E+03  3.04016E+03 -3.59456E+03  4.31003E+03 -2.34702E+03  3.98111E+02
 -1.24331E+02  1.48401E+02 -1.17643E+03  2.33250E+01 -3.00937E+03  7.18088E+02 -5.46797E+03 -1.88777E+03
 -6.44097E+03 -4.07720E+03 -2.61658E+03 -7.95659E+03  4.44106E+03 -8.31001E+03  5.47172E+03 -2.61537E+03
  5.36876E+03  1.14158E+03  3.42564E+03  5.01760E+03 -1.36294E+03  7.77690E+03 -5.43321E+03  5.44534E+03
