 $NMID ID='MM_0lb_SNR200_20hz_g45_67.RAW', FMTDAT='(8E13.5)'
 TRAMP=1., VOLUME=1. $END
  3.08740E+05  4.34387E+02  3.37080E+05  2.50366E+05  8.39675E+04  3.38128E+05 -1.32641E+05  2.49585E+05
 -1.88964E+05  8.20591E+04 -1.10347E+05 -3.24455E+04  1.87395E+03 -4.98283E+04  5.34739E+04  4.02191E+02
  3.54349E+04  5.24682E+04 -1.76586E+04  7.52497E+04 -5.94551E+04  6.24882E+04 -8.25507E+04  3.08893E+04
 -7.84482E+04 -1.08025E+04 -5.55311E+04 -4.93919E+04 -1.48220E+04 -6.85845E+04  2.59678E+04 -4.37492E+04
  3.95839E+04  3.71695E+03  1.57246E+04  4.69531E+04 -3.38056E+04  4.65431E+04 -6.53210E+04 -6.35426E+02
 -5.17726E+04 -5.49780E+04 -6.46246E+03 -7.46764E+04  3.24504E+04 -5.14087E+04  4.55180E+04 -1.56371E+04
  4.08751E+04  1.15505E+04  3.07916E+04  2.31908E+04  1.67462E+04  2.71880E+04 -4.01295E+03  2.62501E+04
 -2.17565E+04  1.29670E+04 -2.00104E+04 -4.38661E+03  4.04455E+03 -7.77706E+03  2.13823E+04  1.14884E+04
  7.76179E+03  3.25001E+04 -2.92709E+04  3.31823E+04 -6.02755E+04  2.01402E+03 -5.52429E+04 -4.03153E+04
 -1.23319E+04 -5.98294E+04  3.76006E+04 -4.45930E+04  5.44049E+04 -1.02289E+03  3.05541E+04  3.06857E+04
 -7.07160E+03  3.24680E+04 -2.80045E+04  1.25451E+04 -2.67794E+04 -5.84541E+03 -1.42526E+04 -9.16289E+03
 -6.52258E+03 -1.12440E+04 -1.36525E+03 -1.52522E+04  6.63812E+03 -2.26183E+04  1.42956E+04 -1.35671E+04
  1.29646E+04  2.66611E+03 -6.03908E+03  1.28507E+04 -1.86318E+04 -1.05776E+03 -7.93208E+03 -2.91872E+04
  1.96961E+04 -3.93942E+04  4.33080E+04 -1.74468E+04  3.99213E+04  1.80132E+04  1.38435E+04  3.98856E+04
 -1.58897E+04  2.97656E+04 -2.24737E+04  8.62990E+02 -8.47845E+03 -2.58735E+04  1.98859E+04 -2.95697E+04
  3.77170E+04 -8.14118E+03  3.03431E+04  2.27778E+04  1.33155E+04  4.11627E+04 -8.48122E+03  4.31083E+04
 -2.62145E+04  2.84067E+04 -3.61538E+04  8.73591E+03 -3.66147E+04 -1.57314E+04 -2.09410E+04 -3.26427E+04
  6.64280E+03 -3.30087E+04  2.90883E+04 -1.17621E+04  2.61360E+04  1.15758E+04  2.58476E+03  1.65806E+04
 -1.29855E+04  7.76913E+03 -9.28523E+03 -7.56624E+03  5.03864E+03 -9.23518E+03  1.68645E+04  7.09211E+03
  1.24166E+04  2.09643E+04 -6.44575E+03  2.27748E+04 -2.13904E+04  7.87227E+03 -2.47832E+04 -5.72045E+03
 -1.63080E+04 -1.52467E+04 -5.45938E+03 -1.62951E+04  3.83817E+03 -1.35035E+04  1.26819E+04 -1.26108E+04
  2.01553E+04 -1.09285E+04  2.69747E+04  4.30423E+02  1.99505E+04  1.51174E+04  2.75451E+03  3.09652E+04
 -1.52712E+04  2.73732E+04 -2.42136E+04  8.82296E+03 -1.87811E+04 -1.00182E+04 -4.15686E+03 -1.36081E+04
  2.12863E+03 -2.90903E+03 -1.49291E+03  5.54732E+03 -9.94928E+03  5.32641E+03 -1.27540E+04 -3.54058E+03
 -7.65300E+03 -1.44023E+04  4.74678E+03 -1.79011E+04  1.24519E+04 -1.34647E+04  1.23583E+04 -5.58849E+01
  8.03951E+03  9.33762E+03 -1.29913E+03  1.48515E+04 -1.05255E+04  8.20513E+03 -1.43748E+04 -2.84110E+03
 -1.06173E+04 -1.26466E+04 -1.59674E+03 -1.79259E+04  8.14688E+03 -1.41820E+04  1.54011E+04 -5.19997E+03
  1.22201E+04  3.15362E+02  9.33420E+03  2.86465E+03  3.44484E+03  6.45152E+02  5.37466E+03 -9.30687E+02
  1.29557E+04  2.69757E+03  1.39114E+04  1.20452E+04  7.69835E+03  2.26476E+04 -3.43976E+03  2.42013E+04
 -1.43151E+04  1.87030E+04 -2.17588E+04  9.52651E+03 -2.21735E+04 -3.05780E+03 -1.88217E+04 -1.22451E+04
 -9.10145E+03 -1.74696E+04  5.73846E+03 -1.74246E+04  1.56660E+04 -9.90055E+03  1.49239E+04  3.55285E+03
  6.11879E+03  1.00688E+04 -6.65462E+03  8.78111E+03 -1.14754E+04  3.27515E+03 -1.01466E+04 -7.08242E+03
  1.50759E+00 -1.14553E+04  5.61667E+03 -8.32020E+03  7.44448E+03 -6.45492E+02  1.20100E+03  4.41299E+03
 -5.35208E+03  5.94938E+02 -4.00143E+03 -3.54415E+03  4.13546E+02 -7.90436E+03  6.95641E+03 -9.15868E+03
  1.07499E+04 -3.77579E+03  9.38295E+03  3.68210E+03  9.52255E+03  7.65179E+03  4.05195E+03  1.19093E+04
 -6.96846E+02  1.37450E+04 -9.74571E+03  9.13160E+03 -9.43439E+03  2.21995E+03 -8.79418E+03 -2.63823E+02
 -4.71320E+03 -2.74823E+03 -7.48639E+02  2.45639E+03 -2.72691E+03  2.52019E+03 -2.56156E+03  3.80169E+03
 -6.45059E+03 -8.47248E+02 -8.40341E+03 -6.22693E+03 -3.48449E+03 -1.01137E+04  2.65423E+03 -7.75130E+03
  7.18329E+03 -2.92267E+03  5.52382E+03  1.32018E+03  6.50450E+02  3.03356E+03 -3.06420E+03  1.26057E+03
 -3.43113E+03 -5.06038E+03 -1.63008E+03 -6.95824E+03  3.20466E+03 -7.03466E+03  9.08372E+03 -2.92553E+03
  1.06727E+04  1.37373E+03  8.04474E+03  3.43518E+03  2.72549E+03  7.18362E+03 -5.03608E+03  8.36548E+03
 -7.43477E+03  2.30380E+03 -3.98508E+03 -1.65965E+03  1.64842E+03 -1.23364E+03  4.07588E+03 -1.25520E+03
  3.54774E+03  2.08768E+03  1.54007E+03  6.04590E+03 -4.09454E+03  6.57719E+03 -7.37878E+03  1.27652E+03
 -4.11650E+03 -3.38169E+03 -3.09860E+02 -5.39539E+03  3.17252E+03 -2.27456E+03  2.41458E+03  1.33586E+03
  7.38878E+02  2.82802E+03 -3.80613E+03  4.00219E+03 -4.11466E+03  2.09904E+03 -3.28308E+03 -1.68113E+03
 -2.28896E+03 -4.50163E+03  1.99380E+03 -6.29529E+03  4.90727E+03 -3.13934E+03  5.81801E+03  6.22078E+02
  4.39487E+03  4.07589E+03 -2.75786E+02  5.37194E+03 -3.98278E+03  3.96619E+03 -4.36005E+03 -4.51273E+02
 -5.12582E+03 -4.13269E+03 -2.94624E+03 -4.64173E+03  1.61038E+03 -3.28691E+03  2.64468E+03 -3.31109E+03
  1.93348E+03 -6.96408E+02  4.94842E+02  1.07690E+03  5.57454E+02  1.63498E+02  3.12323E+02 -1.24991E+03
  2.55935E+03  2.31494E+01  3.34027E+03  5.24099E+02  6.09349E+03  2.37283E+03  4.69239E+03  6.87091E+03
 -4.01895E+02  5.46005E+03 -5.71234E+03  4.29900E+03 -8.88720E+03  1.11186E+03 -5.43363E+03 -1.92754E+03
 -3.64972E+03 -5.62360E+03 -1.01480E+03 -3.34935E+03  1.47756E+03 -9.91874E+02  1.70755E+03 -5.88967E+02
  1.00544E+03 -1.63220E+03  1.62500E+03 -4.01854E+03  4.24370E+03 -1.31492E+03  2.36504E+03  1.75073E+03
  5.35470E+03  1.11130E+03  1.17438E+03  3.63159E+03 -1.54900E+03  2.44754E+03 -3.69216E+03  2.20667E+03
 -3.90846E+03 -6.60548E+02 -9.08849E+02 -3.04468E+03  8.98439E+02 -3.43932E+03  1.90896E+03 -3.63918E+03
  4.50981E+03 -1.47014E+03  5.81316E+03 -1.18426E+02  4.27906E+03  3.36637E+03  1.97556E+02  4.67044E+03
 -1.79100E+03  4.61939E+03 -2.83864E+03  2.00579E+03 -1.71413E+03 -2.18636E+02  1.87519E+02  1.93789E+02
 -4.58082E+02  1.12726E+03 -8.97714E+02  1.92096E+03 -1.79510E+03  1.58875E+03 -3.90484E+03  6.80091E+02
 -1.66047E+03 -3.77574E+03  2.73176E+02 -3.86087E+03  3.28208E+03 -3.91065E+03  2.16240E+03 -7.71942E+02
  3.27176E+03  2.28437E+03  8.78061E+02  1.57438E+03 -2.21316E+02  3.29157E+03 -2.46275E+03  1.34941E+03
 -3.74715E+03  1.28738E+03 -2.83248E+03 -2.74121E+03 -5.97647E+02 -2.91016E+03  1.23925E+03 -1.44155E+03
  2.13701E+03 -1.26719E+03  1.86968E+03 -2.05956E+02  4.85742E+02  1.54727E+03  1.31864E+03  2.38808E+02
  1.47399E+03  8.46389E+02  9.13976E+00  1.43032E+03  8.32275E+00  2.46770E+03  1.40973E+03  1.72954E+03
 -1.78973E+03  3.06702E+03 -1.94942E+03  4.02704E+03 -2.51706E+03  1.79916E+03 -3.53877E+03  6.58293E+02
 -4.53946E+02 -2.62006E+03  1.88573E+02 -5.42315E+03  1.03841E+03 -1.96443E+03  2.01720E+03 -1.32576E+03
  2.46592E+03  6.06304E+02 -1.05692E+02  2.18040E+03 -1.17573E+02  1.09297E+03 -3.04850E+02  3.14437E+02
  2.00577E+02 -1.49651E+03  6.22633E+02 -1.37757E+03  2.23922E+03 -1.49615E+03  3.21135E+02  5.85420E+02
  5.81346E+02  7.55426E+01  1.01535E+03 -1.02097E+03  5.53597E+02 -2.92258E+02  2.44186E+03 -3.66067E+00
 -6.30105E+02 -3.31159E+02  1.34446E+03  6.51051E+02 -2.13384E+03  1.71553E+03  1.91058E+02  1.84352E+03
 -1.57170E+03  4.93366E+02 -1.43620E+03 -1.51969E+02 -2.27816E+03  2.26766E+02  1.24342E+03  1.46451E+01
  1.71953E+02 -9.03973E+02  1.47064E+03 -3.94896E+02 -4.22683E+01  5.10425E+02 -1.04198E+03 -5.57183E+02
 -1.44207E+03  7.39593E+02 -6.42973E+02 -1.51450E+03 -9.69701E+02 -2.78204E+03  1.39262E+03 -8.92438E+02
  1.19891E+02 -1.15832E+03  5.34356E+02 -5.97147E+02  1.82377E+03 -1.47559E+01 -3.05441E+02  7.88462E+02
 -3.46393E+02 -8.15626E+02 -1.03922E+03  5.69129E+02 -2.57649E+01 -7.69817E+02  1.77105E+03 -1.05885E+03
  8.19184E+02  4.26722E+01  1.77362E+03 -9.30459E+01  5.72145E+02  6.06174E+02  7.35577E+02  1.19456E+03
 -8.38929E+02  2.56712E+02 -8.95911E+02  2.24758E+02 -1.35635E+03 -3.92794E+02 -4.18129E+02  5.61039E+02
  1.03862E+03 -2.08662E+02  7.55751E+01  2.18528E+02 -5.96321E+01  3.85726E+01  6.15580E+02  7.41639E+02
  3.44481E+02  1.31021E+03 -4.52452E+02  1.92752E+02 -7.22370E+01  6.03782E+02 -6.17393E+02  8.61977E+02
 -1.12641E+03  4.42737E+02 -2.26312E+03  7.68713E+01 -1.29730E+03 -3.71771E+01 -1.63787E+03 -4.47928E+02
 -1.04633E+03 -2.39986E+03  1.27926E+03 -2.22940E+03  9.13484E+02 -1.12506E+03  2.62287E+03 -3.14197E+02
  1.69008E+03  6.06798E+02  4.28108E+02  9.72452E+02 -4.98343E+02 -4.99639E+02 -1.24613E+03  1.43956E+03
  3.44999E+01 -1.26589E+02 -6.21890E+02  4.54701E+02 -3.19686E+01  1.34470E+03 -1.45951E+03 -9.41890E+01
 -1.92119E+03  1.68134E+02  5.70611E+02  5.84152E+02 -3.00001E+02 -8.42191E+02 -7.60456E+02 -6.74394E+02
  8.68532E+02 -7.53463E+02  1.30456E+02 -1.11244E+03  3.98462E+02  4.28353E+02 -1.20144E+03  4.88008E+02
 -1.45737E+03  1.99488E+03 -9.10504E+01  6.58624E+02 -1.57459E+03 -2.83292E+02 -4.18134E+02 -3.64916E+02
 -5.78813E+02 -1.63767E+03 -5.48307E+02  2.64265E+02  8.15760E+02 -3.60822E+02  3.55511E+02  1.17872E+03
 -3.72865E+01 -2.75161E+02  3.37599E+02  6.55215E+02  1.27390E+02 -2.55696E+02 -4.27202E+02  2.44265E+02
  7.49518E+02  3.88028E+01  1.53246E+02  1.05965E+03 -2.51317E+02 -1.69776E+01 -4.20609E+02  7.52211E+01
 -5.26368E+02  6.63795E+02 -6.69498E+02  1.35029E+02 -3.51792E+02 -7.51715E+02 -4.32258E+02 -6.18516E+02
 -9.28413E+01 -1.62049E+03  8.49846E+00 -3.86225E+02  7.84973E+00 -4.41560E+02 -5.14632E+02  8.86414E+02
  2.81714E+02 -9.26953E+02  7.96830E+02  2.99081E+01 -4.46660E+02  5.63419E+02 -1.23894E+03  2.78089E+02
  1.64994E+02  1.91820E+02 -1.80063E+02  1.42532E+03  7.46016E+01  9.70136E+02 -4.96717E+02 -9.58466E+02
 -7.08503E+02 -3.52201E+01 -1.00198E+03 -7.42137E+02  1.60946E+02 -1.15548E+03  1.41032E+03 -2.05049E+03
  9.48093E+02  6.01498E+02  2.34925E+02  1.47541E+03 -9.60254E+02  1.30944E+03 -6.18523E+02  6.94002E+02
