 $NMID ID='MM_0lb_SNR200_19hz_g60_37.RAW', FMTDAT='(8E13.5)'
 TRAMP=1., VOLUME=1. $END
  3.09255E+05  1.02030E+03  3.38066E+05  2.49666E+05  8.38023E+04  3.37906E+05 -1.33853E+05  2.51097E+05
 -1.91348E+05  8.18346E+04 -1.12097E+05 -3.34289E+04  1.17733E+03 -5.07290E+04  5.38661E+04 -3.80222E+02
  3.57721E+04  5.22732E+04 -1.70404E+04  7.57774E+04 -6.00118E+04  6.26501E+04 -8.36639E+04  3.03726E+04
 -7.95325E+04 -1.01024E+04 -5.75884E+04 -5.10774E+04 -1.50899E+04 -6.97084E+04  2.64086E+04 -4.52437E+04
  3.95711E+04  4.58711E+03  1.50514E+04  4.79526E+04 -3.27670E+04  4.67992E+04 -6.56872E+04 -4.98398E+02
 -5.29189E+04 -5.66873E+04 -6.73715E+03 -7.67637E+04  3.31360E+04 -5.41311E+04  4.69740E+04 -1.69342E+04
  4.27071E+04  1.18840E+04  3.15035E+04  2.42637E+04  1.63889E+04  2.89763E+04 -5.59656E+03  2.70779E+04
 -2.14315E+04  1.23062E+04 -1.81165E+04 -5.04237E+03  5.92022E+03 -8.19277E+03  2.20556E+04  1.12722E+04
  8.29880E+03  3.44655E+04 -3.12518E+04  3.57816E+04 -6.21876E+04  2.88825E+03 -5.54917E+04 -4.15667E+04
 -1.18751E+04 -6.17891E+04  3.87064E+04 -4.43186E+04  5.74086E+04 -2.65646E+03  3.30145E+04  3.23562E+04
 -6.86374E+03  3.39664E+04 -2.83213E+04  1.59358E+04 -2.96162E+04 -4.71090E+03 -1.60871E+04 -1.16112E+04
 -8.25598E+03 -1.27564E+04 -1.71653E+03 -1.82429E+04  6.98694E+03 -2.27864E+04  1.51692E+04 -1.42542E+04
  1.12332E+04  5.37457E+03 -6.85948E+03  1.28400E+04 -1.90865E+04 -3.17027E+03 -8.50192E+03 -3.12814E+04
  2.13741E+04 -4.20534E+04  4.57849E+04 -1.90510E+04  4.42129E+04  1.76960E+04  1.57084E+04  4.26643E+04
 -1.62193E+04  3.20296E+04 -2.47931E+04  1.45478E+03 -8.03329E+03 -2.68995E+04  2.04024E+04 -3.23834E+04
  3.96573E+04 -7.37858E+03  3.38108E+04  2.27714E+04  1.56080E+04  4.36919E+04 -8.43880E+03  4.82003E+04
 -2.94738E+04  3.15092E+04 -3.95072E+04  8.24685E+03 -4.04028E+04 -1.57408E+04 -2.22901E+04 -3.61341E+04
  7.68417E+03 -3.57065E+04  3.01261E+04 -1.42346E+04  2.84360E+04  1.12545E+04  3.96567E+03  1.83632E+04
 -1.36777E+04  7.46399E+03 -1.02556E+04 -7.58514E+03  6.14729E+03 -1.00934E+04  1.65654E+04  6.49861E+03
  1.25130E+04  2.16551E+04 -6.69987E+03  2.36280E+04 -2.23603E+04  8.63718E+03 -2.65080E+04 -5.70971E+03
 -1.84191E+04 -1.76422E+04 -7.46422E+03 -1.79224E+04  3.25355E+03 -1.61450E+04  1.37821E+04 -1.59344E+04
  2.34125E+04 -1.16889E+04  3.01303E+04  1.52786E+03  2.24056E+04  1.77899E+04  4.16533E+03  3.35320E+04
 -1.56198E+04  2.85468E+04 -2.80436E+04  8.58145E+03 -1.98854E+04 -1.03232E+04 -3.41790E+03 -1.37227E+04
  2.52225E+03 -3.16749E+03 -3.73270E+03  5.79093E+03 -1.37525E+04  5.36873E+03 -1.39399E+04 -6.46848E+03
 -9.33686E+03 -1.67893E+04  5.63156E+03 -2.02852E+04  1.24661E+04 -1.43334E+04  1.49126E+04 -1.63240E+03
  9.01306E+03  1.14340E+04 -1.21184E+03  1.59597E+04 -1.17872E+04  9.38019E+03 -1.71508E+04 -3.48568E+03
 -1.27043E+04 -1.49347E+04 -9.52520E+02 -1.97921E+04  1.00287E+04 -1.75823E+04  1.59928E+04 -8.34051E+03
  1.51992E+04  4.66284E+02  1.06923E+04  4.18451E+03  6.00038E+03 -3.87865E+02  7.88065E+03 -8.62467E+02
  1.46506E+04  3.07379E+03  1.64692E+04  1.39615E+04  9.96876E+03  2.57988E+04 -3.22486E+03  2.79861E+04
 -1.77068E+04  2.21061E+04 -2.64437E+04  1.12033E+04 -2.55831E+04 -1.29430E+03 -2.35487E+04 -1.56515E+04
 -1.09329E+04 -2.19845E+04  6.97933E+03 -2.04059E+04  1.83962E+04 -1.16801E+04  1.73687E+04  3.58986E+03
  6.61530E+03  1.13026E+04 -6.11376E+03  1.06991E+04 -1.41258E+04  2.69253E+03 -1.08262E+04 -9.34311E+03
 -9.71444E+02 -1.44846E+04  7.37537E+03 -1.04761E+04  7.48759E+03 -5.20008E+02  1.23124E+03  5.58261E+03
 -6.27471E+03  2.50098E+03 -4.68623E+03 -5.63942E+03 -6.54778E+02 -1.08081E+04  7.21582E+03 -1.11732E+04
  1.35253E+04 -5.07842E+03  1.28555E+04  2.41526E+03  1.12821E+04  1.12795E+04  5.89086E+03  1.50236E+04
 -1.68039E+03  1.65969E+04 -9.26537E+03  1.06970E+04 -1.23076E+04  2.91335E+03 -8.98959E+03 -1.84706E+03
 -4.97729E+03 -4.38305E+03 -1.60052E+03  1.43044E+03 -2.39804E+03  1.71968E+03 -2.71395E+03  4.18646E+03
 -7.95288E+03 -8.82860E+02 -8.49756E+03 -8.75398E+03 -3.51257E+03 -1.19670E+04  4.44865E+03 -9.16835E+03
  7.74539E+03 -3.41556E+03  4.91729E+03  2.03215E+03  9.57120E+02  4.06445E+03 -4.13393E+03  3.51787E+02
 -2.58606E+03 -5.02859E+03  5.81466E+02 -8.17442E+03  3.40934E+03 -8.76642E+03  1.05272E+04 -3.76704E+03
  1.31743E+04  5.14493E+02  9.49812E+03  7.57394E+03  2.11040E+03  8.62485E+03 -5.78465E+03  8.85877E+03
 -7.48503E+03  3.02065E+03 -4.20776E+03 -9.85678E+02  6.63211E+02 -2.55909E+03  4.89128E+03 -1.05448E+03
  3.15008E+03  3.12416E+03  7.99868E+02  7.40387E+03 -5.50932E+03  8.16727E+03 -7.12116E+03  1.81309E+03
 -5.08863E+03 -3.10807E+03  9.21901E+02 -7.21101E+03  4.17674E+03 -4.57719E+03  4.16080E+03  4.83219E+02
  2.19299E+01  3.63977E+03 -3.82898E+03  4.87926E+03 -4.84834E+03  2.53895E+03 -5.15106E+03 -1.27532E+03
 -3.22295E+03 -6.18544E+03  1.46044E+03 -7.10077E+03  5.76175E+03 -5.04001E+03  7.26485E+03  2.70323E+03
  3.97170E+03  5.39714E+03 -4.40207E+02  7.44736E+03 -4.90450E+03  4.01141E+03 -5.56704E+03 -1.27258E+03
 -6.72298E+03 -5.12158E+03 -1.34452E+03 -3.89199E+03  2.32963E+03 -5.14409E+03  2.52567E+03 -2.45985E+03
  2.64358E+03  6.54633E+02 -2.62694E+01  1.47601E+03  3.69440E+02 -3.90303E+01 -2.43358E+02 -7.92601E+02
  3.23459E+03 -1.76087E+02  4.89652E+03  7.50756E+02  5.70639E+03  2.16120E+03  5.87776E+03  7.29777E+03
 -9.37532E+02  8.93811E+03 -7.70844E+03  6.81814E+03 -1.03582E+04  1.27905E+03 -8.15056E+03 -3.10120E+03
 -4.04486E+03 -6.56209E+03 -4.03116E+02 -4.64905E+03  1.76498E+03 -3.12654E+03  1.79877E+03 -3.00737E+03
  9.49003E+02 -2.27338E+03  1.80904E+03 -1.80986E+03  3.49721E+03 -1.69342E+03  4.64513E+03 -6.10337E+01
  5.12402E+03  9.54940E+02  6.84934E+02  3.49760E+03 -8.43131E+02  3.59271E+03 -4.32949E+03  2.64309E+03
 -4.96053E+03 -9.22718E+02 -1.70401E+03 -3.42426E+03  8.64428E+02 -4.77026E+03  3.97748E+03 -5.77001E+03
  4.84731E+03 -2.79004E+03  7.40781E+03 -8.16211E+01  5.29445E+03  4.52723E+03  1.33482E+03  5.67147E+03
 -2.23481E+03  5.26583E+03 -2.49321E+03  2.59531E+03 -1.37636E+03 -2.55457E+02 -7.92706E+02 -5.47840E+02
 -9.37113E+02  8.31673E+02 -9.77156E+02  1.21702E+03 -1.97587E+03  7.34794E+02 -4.18305E+03  4.23321E+01
 -1.46396E+03 -2.63842E+03  1.17387E+03 -4.47954E+03  1.76998E+03 -4.69909E+03  3.19606E+03 -9.22096E+02
  3.78451E+03  4.28621E+03  2.62661E+03  3.19490E+03 -3.54601E+01  4.51068E+03 -3.15502E+03  3.17895E+03
 -3.29041E+03  9.44122E+02 -3.07857E+03 -2.17373E+03 -3.13672E+02 -3.07287E+03  1.54651E+03 -3.02844E+03
  3.59543E+03 -1.39717E+03  2.04254E+03  1.21663E+03  7.25159E+02  1.46825E+03 -8.44490E+01 -8.29261E+02
  1.50599E+03  4.83625E+02  7.72441E+02  7.99121E+02  5.21147E+02  3.07116E+03  1.41986E+03  2.33594E+03
 -1.53191E+03  2.79404E+03 -1.82439E+03  3.43740E+03 -3.69621E+03  1.92949E+03 -3.88617E+03  7.62311E+02
 -1.66276E+03 -3.42212E+03  1.21669E+03 -3.70881E+03  1.77939E+03 -2.55569E+03  2.42707E+03 -1.26967E+03
  2.97479E+03  1.55735E+03  2.89723E+02  2.78783E+03 -2.80155E+02  1.86002E+03 -2.30507E+03 -7.18527E+02
 -6.69500E+02 -1.39342E+03  1.53016E+03 -2.71130E+03  1.15568E+03 -2.12906E+03  2.34846E+03  1.32420E+02
 -7.43724E+01  7.64553E+02  1.16221E+03 -6.13420E+02 -7.91254E+02  1.06416E+03  2.09040E+03 -1.89819E+02
  7.94309E+01 -1.83427E+02  2.83495E+03  7.02380E+02 -9.05871E+02  2.34583E+03  4.21868E+02  2.09683E+03
 -8.85573E+02  3.94433E+02 -2.82719E+03  3.56194E+02 -1.66112E+03  2.72437E+01 -1.80870E+02 -6.54237E+02
  1.73317E+02 -2.18439E+03  1.52898E+03  4.15479E+01  8.04915E+02  3.32133E+01 -1.29724E+03  4.06786E+02
 -1.41595E+03  1.00164E+03 -1.42575E+03 -1.64283E+03 -3.26382E+02 -2.77879E+03  7.53245E+02 -8.58954E+02
 -3.18088E+02 -6.33783E+02 -2.18438E+02  4.21904E+02  5.80638E+02 -6.40949E+02 -2.27036E+02  1.12686E+03
 -1.17493E+03 -3.03210E+02 -1.48361E+03 -4.03158E+01  3.28679E+02 -4.15877E+00  1.44456E+03 -1.02024E+03
  1.78533E+03  1.22654E+03  2.84302E+03  3.05241E+02  2.09237E+03  1.02728E+03 -9.36379E+02  2.00369E+03
 -9.95922E+02 -1.46928E+03 -1.87938E+03 -3.79987E+02 -2.33857E+02 -1.30588E+03 -3.46377E+02 -1.31195E+03
  1.40400E+03 -2.36340E+02  7.48855E+02 -3.13504E+02 -7.70433E+02  1.34242E+03 -3.10450E+01  1.18619E+03
 -9.75470E+02  1.64310E+03 -9.05694E+02  4.40317E+02  2.46378E+02 -1.10631E+01 -9.00948E+02  7.54466E+02
 -8.93568E+02  5.95958E+02 -2.60432E+03 -5.64209E+02 -1.62666E+03  7.71035E+02 -1.30301E+03 -9.72883E+02
 -6.73618E+02 -2.83023E+03 -4.89492E+02 -2.26555E+03  9.49309E+02 -1.41399E+03  2.34862E+03 -1.81779E+03
  2.25367E+03 -7.99224E+02  9.79783E+02  1.73869E+03 -1.27013E+03  1.18248E+03 -1.02583E+03  1.95414E+03
 -1.08455E+03  9.95737E+02 -6.10399E+02 -1.00960E+03  2.19727E+01 -2.56244E+02  3.35920E+02  3.05737E+02
 -1.22886E+03 -1.53110E+02  1.04391E+01 -2.62385E+02  4.12935E+02 -3.58108E+02 -8.93722E+02 -4.84094E+01
  4.65975E+02  5.12737E+02  2.32948E+02  8.08411E+01  6.25408E+02  2.20895E+03 -8.88247E+02  1.72538E+03
 -1.67800E+03  2.20775E+03 -2.04441E+03  1.89502E+03 -1.29439E+03 -2.95130E+02  3.38199E+02 -1.01147E+03
 -1.68941E+03 -1.54271E+03 -5.41228E+02 -1.21433E+03  1.04649E+03  1.17217E+02  6.07320E+02 -6.40230E+01
 -3.38985E+02 -3.45702E+02 -3.54498E+01  3.70026E+02 -9.07170E+02  3.46174E+01 -5.51691E+02 -7.74901E+00
  4.77867E+02  5.20049E+02 -2.87063E+02  2.78894E+02 -4.48332E+02  9.96873E+02 -3.67189E+02  7.39850E+02
  2.16109E+02  1.16524E+03 -1.41448E+03 -6.63516E+02 -3.32885E+02 -6.12756E+02  1.35164E+03 -7.14633E+02
  1.10721E+01 -1.62975E+03 -1.96973E+02 -3.29103E+02  2.14444E+02 -2.12657E+03  5.34042E+02 -3.69094E+02
 -1.99030E+02  8.30467E+02 -2.31590E+02  4.69483E+01 -7.41578E+02  1.78115E+03 -7.85756E+02 -4.15754E+02
  8.68893E+02  3.73376E+02 -5.80847E+02 -4.83128E+02  2.32671E+02  9.01019E+02 -1.41341E+03 -4.19771E+02
 -1.56041E+03  1.00011E+03 -8.50907E+02 -1.70538E+01  1.74368E+03 -2.98307E+02  9.43711E+02  1.07367E+03
 -2.51486E+02 -2.60067E+02 -1.06902E+03  1.03761E+03 -3.36844E+02  1.17607E+02 -1.09409E+02  9.69798E+02
