 $NMID ID='MM_0lb_SNR200_13hz_g45_25.RAW', FMTDAT='(8E13.5)'
 TRAMP=1., VOLUME=1. $END
  3.10235E+05  4.59878E+02  3.37808E+05  2.51414E+05  8.52491E+04  3.37601E+05 -1.32028E+05  2.53072E+05
 -1.89486E+05  8.39535E+04 -1.11601E+05 -3.21501E+04  5.86675E+02 -5.10745E+04  5.41469E+04 -5.21459E+02
  3.51346E+04  5.25818E+04 -1.69176E+04  7.55718E+04 -6.04037E+04  6.29961E+04 -8.44337E+04  3.22553E+04
 -8.11698E+04 -1.17148E+04 -5.76120E+04 -5.10443E+04 -1.53852E+04 -6.92230E+04  2.62079E+04 -4.57730E+04
  3.99620E+04  4.13413E+03  1.63511E+04  4.84689E+04 -3.33799E+04  4.71758E+04 -6.77651E+04 -5.11660E+01
 -5.29570E+04 -5.67155E+04 -6.08946E+03 -7.76629E+04  3.23589E+04 -5.64612E+04  4.74369E+04 -1.83884E+04
  4.34261E+04  1.17679E+04  3.24720E+04  2.53726E+04  1.59034E+04  3.00103E+04 -4.11278E+03  2.77492E+04
 -2.22605E+04  1.20095E+04 -1.84773E+04 -5.32378E+03  6.32890E+03 -7.36079E+03  2.33550E+04  1.18001E+04
  6.37150E+03  3.53190E+04 -3.35456E+04  3.47777E+04 -6.34518E+04  1.24423E+03 -5.63893E+04 -4.27115E+04
 -1.30101E+04 -6.39679E+04  3.94935E+04 -4.55819E+04  5.78293E+04 -1.85380E+03  3.48035E+04  3.29600E+04
 -5.57420E+03  3.75602E+04 -2.94110E+04  1.53950E+04 -3.02290E+04 -3.07586E+03 -1.54671E+04 -1.16106E+04
 -8.18313E+03 -1.31460E+04 -1.47140E+03 -1.77718E+04  7.93997E+03 -2.29989E+04  1.48237E+04 -1.31469E+04
  1.07326E+04  4.82735E+03 -8.18145E+03  1.37386E+04 -2.13658E+04 -5.36456E+03 -7.01519E+03 -3.47361E+04
  2.25380E+04 -4.40995E+04  4.76572E+04 -2.00319E+04  4.61543E+04  2.04345E+04  1.70556E+04  4.49517E+04
 -1.53082E+04  3.31631E+04 -2.55047E+04  1.84131E+03 -1.10397E+04 -2.86705E+04  2.18348E+04 -3.40374E+04
  4.07042E+04 -8.34854E+03  3.56000E+04  2.41207E+04  1.84127E+04  4.69251E+04 -8.07194E+03  5.00829E+04
 -3.30375E+04  3.37003E+04 -4.14856E+04  1.00159E+04 -4.28349E+04 -1.69381E+04 -2.38533E+04 -3.85982E+04
  8.03173E+03 -3.85322E+04  3.13644E+04 -1.50154E+04  2.82306E+04  1.04629E+04  3.16620E+03  1.93331E+04
 -1.37590E+04  8.13831E+03 -1.03036E+04 -7.98589E+03  7.07094E+03 -1.14085E+04  1.87657E+04  6.41279E+03
  1.33985E+04  2.23683E+04 -6.14521E+03  2.57961E+04 -2.32036E+04  1.10020E+04 -2.74873E+04 -5.61377E+03
 -2.13286E+04 -1.81586E+04 -8.41182E+03 -2.11226E+04  3.57842E+03 -2.13093E+04  1.77218E+04 -1.94743E+04
  2.68511E+04 -1.31604E+04  3.31923E+04  3.18281E+03  2.30765E+04  2.21189E+04  4.95277E+03  3.65899E+04
 -1.76571E+04  2.97993E+04 -2.86507E+04  9.73953E+03 -2.02360E+04 -1.03476E+04 -3.64596E+03 -1.44729E+04
  3.01344E+03 -2.00184E+03 -4.68628E+03  6.71327E+03 -1.62946E+04  5.35697E+03 -1.72546E+04 -7.40854E+03
 -1.06043E+04 -1.86878E+04  6.69898E+03 -2.48769E+04  1.48400E+04 -1.72120E+04  1.87326E+04 -1.30959E+03
  1.17619E+04  1.21863E+04 -9.77125E+02  2.00155E+04 -1.39896E+04  9.86043E+03 -1.91395E+04 -4.89169E+03
 -1.43102E+04 -1.66497E+04 -2.46252E+03 -2.26510E+04  1.01018E+04 -1.87336E+04  1.92941E+04 -9.55104E+03
  1.90020E+04  4.73318E+02  1.30828E+04  6.81221E+03  6.07851E+03  1.49333E+02  9.17337E+03 -2.63001E+03
  1.75340E+04  2.19891E+03  1.90773E+04  1.52280E+04  1.25757E+04  3.15035E+04 -3.14863E+03  3.56339E+04
 -2.01796E+04  2.84695E+04 -3.34623E+04  1.27020E+04 -3.45146E+04 -3.75009E+03 -2.71979E+04 -2.04834E+04
 -1.27234E+04 -2.86364E+04  9.84070E+03 -2.60974E+04  2.16360E+04 -1.24000E+04  1.96308E+04  4.99860E+03
  7.61342E+03  1.53424E+04 -9.89913E+03  1.37192E+04 -1.72803E+04  3.70662E+03 -1.18078E+04 -8.91759E+03
 -5.38479E+02 -1.67567E+04  8.06728E+03 -1.23983E+04  1.04637E+04 -2.24788E+03  1.70470E+03  7.19035E+03
 -6.41852E+03  3.04973E+03 -5.92412E+03 -5.08620E+03 -5.82861E+02 -1.36950E+04  8.96913E+03 -1.50948E+04
  1.81064E+04 -7.61334E+03  1.96184E+04  2.72201E+03  1.46605E+04  1.34653E+04  6.88198E+03  2.13362E+04
 -4.67758E+03  2.43295E+04 -1.42672E+04  1.34086E+04 -1.70226E+04  2.78760E+03 -9.96171E+03 -4.57677E+03
 -5.04276E+03 -5.75399E+03  8.82711E+01  2.43145E+03 -2.62780E+03  1.29953E+03 -5.97320E+03  4.16965E+03
 -1.07044E+04 -6.85606E+02 -1.22109E+04 -8.63574E+03 -4.84576E+03 -1.53338E+04  5.33850E+03 -1.26881E+04
  1.00561E+04 -4.86824E+03  7.78717E+03  3.49496E+03  5.00368E+02  3.59731E+03 -5.61204E+03 -8.39607E+02
 -6.04536E+03 -7.22876E+03 -9.94745E+02 -1.10809E+04  5.87466E+03 -1.22598E+04  1.43894E+04 -6.49947E+03
  1.68165E+04  2.62890E+03  1.24304E+04  1.14425E+04  2.33650E+03  1.33691E+04 -6.97597E+03  1.12456E+04
 -9.04846E+03  3.75765E+03 -5.51078E+03 -1.73577E+03  3.01307E+03 -3.23774E+03  6.93443E+03 -1.16384E+03
  5.74489E+03  3.88338E+03  1.08181E+03  8.51177E+03 -6.81115E+03  7.71313E+03 -1.02290E+04  3.23562E+03
 -6.90864E+03 -5.04907E+03  5.01112E+02 -1.04451E+04  7.11615E+03 -4.27374E+03  7.44778E+03  3.27671E+03
  1.52294E+03  6.58830E+03 -6.39235E+03  7.74153E+03 -9.35140E+03  4.06320E+03 -8.94255E+03 -2.98627E+03
 -6.82988E+03 -1.12731E+04  3.25153E+03 -1.18932E+04  9.61972E+03 -7.05945E+03  1.09945E+04  6.11946E+02
  8.43388E+03  9.47709E+03 -1.40660E+03  1.27115E+04 -7.71452E+03  5.74030E+03 -8.81372E+03 -9.39786E+02
 -6.69558E+03 -7.51760E+03 -1.99847E+03 -8.99629E+03  5.39443E+03 -6.74925E+03  5.48042E+03 -3.51464E+03
  3.65614E+03  1.09966E+03 -6.29155E+01  1.87053E+03 -4.25663E+02 -9.47458E+02  1.00676E+03 -4.82658E+03
  8.50111E+03 -2.69868E+03  9.73693E+03  1.76989E+03  9.63102E+03  7.47924E+03  8.06438E+03  1.39581E+04
 -1.77094E+03  1.58420E+04 -1.40073E+04  1.17648E+04 -1.72062E+04  2.53362E+03 -1.37509E+04 -4.44400E+03
 -5.96742E+03 -1.06727E+04  3.43853E+01 -9.91098E+03  3.27744E+03 -4.52591E+03  2.37598E+03 -4.16485E+03
  2.22249E+03 -1.47166E+03  2.31896E+03 -3.23859E+03  4.41545E+03 -2.45316E+03  6.16564E+03 -5.62370E+02
  6.59226E+03  2.61545E+03  3.22081E+03  7.06281E+03 -1.37458E+03  7.26554E+03 -7.69008E+03  4.66685E+03
 -8.87276E+03 -1.57282E+03 -6.15246E+03 -7.20311E+03  1.76736E+03 -1.00943E+04  6.40116E+03 -1.06177E+04
  1.06467E+04 -5.50960E+03  1.22507E+04  1.25099E+03  8.80556E+03  7.96767E+03  1.31417E+03  1.13151E+04
 -4.28886E+03  9.11529E+03 -7.58730E+03  3.65277E+03 -3.22733E+03 -1.29632E+03 -1.64672E+03 -2.27586E+03
 -5.37642E+02  7.29840E+02 -2.15178E+03  2.72579E+03 -2.88034E+03  1.90960E+03 -6.71264E+03 -9.07669E+02
 -3.62273E+03 -6.28550E+03 -1.34274E+03 -7.49978E+03  6.22686E+03 -7.88698E+03  9.47548E+03 -4.64608E+03
  9.18987E+03  4.10550E+03  4.59113E+03  7.37775E+03 -9.60056E+02  9.03862E+03 -5.46394E+03  5.33349E+03
 -9.05554E+03 -1.59242E+03 -7.42991E+03 -5.92712E+03 -1.94481E+02 -6.77293E+03  2.07675E+03 -5.06866E+03
  5.53511E+03 -3.58241E+03  3.21296E+03  2.71907E+03  1.42347E+03  1.72145E+03  1.37308E+03  9.20983E+02
  1.68121E+03  1.89742E+03  3.00187E+03  1.63409E+03  1.67091E+03  3.62370E+03  2.84875E+03  3.55420E+03
 -9.49494E+02  7.53478E+03 -6.54782E+03  6.30171E+03 -8.25112E+03  1.39023E+03 -9.19608E+03 -2.52085E+03
 -3.38755E+03 -9.18555E+03  1.28131E+02 -8.76089E+03  6.55260E+03 -5.53540E+03  5.88451E+03 -6.25012E+02
  5.85345E+03  4.17413E+03  5.03676E+02  4.61803E+03 -3.00286E+03  1.79550E+03 -3.43719E+03 -1.34430E+02
 -3.98266E+02 -3.72973E+03  2.01446E+03 -4.20944E+03  3.79669E+03 -1.05850E+03  3.55205E+03  4.59377E+02
  3.19918E+03  1.74221E+03  3.66723E+02  1.00018E+03 -2.60098E+02  9.17985E+02  7.55766E+02  5.01684E+02
  1.24064E+03 -3.01197E+02  1.62622E+03  1.91071E+03  1.43752E+03  4.09499E+03 -1.44895E+03  7.13935E+03
 -4.08309E+03  3.11227E+03 -5.91337E+03  1.03098E+03 -5.47880E+03 -1.64241E+03 -1.09427E+03 -2.41046E+03
  1.29524E+03 -2.42534E+03  2.13836E+03 -1.05732E+03  6.67512E+02  1.34074E+03 -5.54252E+02  1.94733E+03
 -3.76996E+03  1.71162E+03 -3.89189E+03 -3.14231E+03 -2.50006E+03 -3.92983E+03 -7.70928E+01 -5.57923E+03
  2.66426E+03 -2.82509E+03  3.05657E+03 -1.01724E+03  3.53104E+03 -4.06324E+02 -3.81110E+02  2.32539E+03
 -1.48483E+03 -7.70204E+01 -1.48995E+03 -1.34791E+03  1.00616E+03 -3.08898E+03  3.40595E+03 -2.08979E+03
  4.40627E+03 -4.93834E+02  4.47187E+03  2.74836E+03  2.39653E+03  5.58991E+03 -1.24042E+03  5.34617E+03
 -4.90455E+03  1.74518E+03 -4.00625E+03 -5.35775E+02 -4.48347E+02 -3.21092E+03  7.66773E+02 -4.00249E+03
  3.21809E+03 -2.13863E+03  3.13871E+03  1.80551E+03  1.20917E+03  3.97335E+03 -4.50234E+01  2.47802E+03
 -1.31782E+03  7.16501E+02 -5.18945E+02  1.28879E+03 -6.93131E+02  6.14917E+02  2.85256E+02  4.88289E+02
 -1.32636E+03  2.68643E+03 -4.74028E+03  2.31481E+03 -5.52396E+03 -1.56511E+02 -5.15065E+03 -3.87911E+03
 -2.41429E+03 -6.26755E+03  1.89999E+03 -7.62093E+03  3.45700E+03 -5.48020E+03  6.64187E+03 -1.98045E+03
  6.21906E+03  8.08525E+02  3.54512E+03  3.67287E+03 -7.18345E+01  5.30481E+03 -1.76650E+03  3.21400E+03
 -1.79115E+03  2.45068E+03 -1.28139E+03 -6.36682E+02 -5.88251E+02  1.67078E+02 -1.61707E+01 -9.56133E+02
 -6.39078E+02 -2.77684E+02  8.40238E+02 -7.57345E+01  7.10607E+02 -2.41173E+03 -3.65987E+02 -1.65820E+03
  1.57814E+03 -1.29227E+03  2.96169E+03  6.60402E+02  2.60087E+03  1.83796E+03 -3.33982E+02  4.97102E+03
 -3.94582E+03  5.39509E+03 -4.51301E+03  4.58123E+03 -6.45285E+03 -1.70127E+03 -4.08663E+03 -2.34047E+03
 -1.56089E+03 -4.70597E+03  6.78064E+02 -3.71597E+03  1.78512E+03 -2.14993E+03  3.07881E+03 -9.90465E+01
  1.51192E+03  1.70973E+03 -1.29834E+03  1.37039E+03 -1.57409E+03 -2.80048E+02 -4.16681E+02  4.66293E+01
  1.80022E+03 -6.86325E+01  1.97107E+03  1.49904E+03  6.92030E+02  7.58881E+02  1.00949E+03  3.35841E+03
 -1.51927E+03  1.25369E+03 -3.26358E+03  1.60694E+03 -2.38533E+03 -2.88038E+03 -2.88236E+02 -2.78868E+03
  1.93800E+03 -2.87688E+03  3.40474E+03 -1.81507E+03  3.15447E+03  2.75198E+02  2.67698E+03  1.95056E+03
  8.78519E+02  3.61471E+03 -1.49150E+03  2.16224E+03 -3.27506E+03  1.78333E+03  1.03704E+02  6.70002E+02
 -2.05037E+03  5.62404E+02 -2.12413E+03  7.64423E+02 -4.39519E+02 -1.90311E+02 -2.29088E+03  6.47144E+00
 -2.27410E+03 -2.51220E+03 -8.70230E+02 -2.54644E+03  3.08882E+03 -3.63746E+03  2.03609E+03 -1.26091E+03
  2.29731E+03 -3.39102E+02  7.21840E+02  1.94250E+03  4.62349E+02  3.86925E+03 -1.50781E+03  2.19743E+03
