 $NMID ID='MM_0lb_SNR200_10hz_g40_21.RAW', FMTDAT='(8E13.5)'
 TRAMP=1., VOLUME=1. $END
  3.08720E+05  9.62713E+02  3.37891E+05  2.50177E+05  8.38354E+04  3.38701E+05 -1.32109E+05  2.51465E+05
 -1.91170E+05  8.20724E+04 -1.11394E+05 -3.34047E+04  1.61409E+03 -4.98051E+04  5.25166E+04 -1.30389E+03
  3.57951E+04  5.43833E+04 -1.66541E+04  7.66701E+04 -6.17062E+04  6.48687E+04 -8.49789E+04  3.30985E+04
 -8.29573E+04 -1.20510E+04 -5.88272E+04 -5.31519E+04 -1.48129E+04 -6.92464E+04  2.73161E+04 -4.61280E+04
  4.09785E+04  4.26042E+03  1.69245E+04  4.89038E+04 -3.48744E+04  4.79027E+04 -6.87121E+04  3.68397E+02
 -5.57660E+04 -5.62561E+04 -7.41151E+03 -7.94360E+04  3.44239E+04 -5.63631E+04  4.88408E+04 -1.85407E+04
  4.40610E+04  1.17712E+04  3.29231E+04  2.77559E+04  1.63942E+04  2.95752E+04 -6.28164E+03  2.83121E+04
 -2.28879E+04  1.25235E+04 -2.00178E+04 -5.41507E+03  6.00890E+03 -8.09838E+03  2.36294E+04  1.25691E+04
  6.21651E+03  3.59752E+04 -3.25468E+04  3.76527E+04 -6.54280E+04  2.22458E+03 -6.01398E+04 -4.41917E+04
 -1.36769E+04 -6.28439E+04  4.19646E+04 -4.67580E+04  6.08768E+04 -1.73931E+03  3.59769E+04  3.39244E+04
 -6.21150E+03  3.74049E+04 -3.25595E+04  1.78853E+04 -3.17504E+04 -4.25757E+03 -1.93366E+04 -1.11313E+04
 -9.40616E+03 -1.48898E+04 -4.58327E+02 -1.79350E+04  8.03046E+03 -2.41094E+04  1.72778E+04 -1.13311E+04
  9.71131E+03  4.57467E+03 -8.65393E+03  1.16589E+04 -2.38770E+04 -6.43916E+03 -8.56913E+03 -3.40895E+04
  2.38280E+04 -4.51224E+04  5.05701E+04 -1.98867E+04  4.67553E+04  2.13017E+04  1.65218E+04  4.62940E+04
 -1.67844E+04  3.54737E+04 -2.65727E+04  2.30337E+03 -9.59678E+03 -2.91029E+04  2.05074E+04 -3.49763E+04
  4.31810E+04 -1.00579E+04  3.73144E+04  2.39019E+04  2.04138E+04  4.78829E+04 -9.11370E+03  5.27445E+04
 -3.37247E+04  3.61566E+04 -4.55712E+04  1.15167E+04 -4.52024E+04 -1.78553E+04 -2.54952E+04 -4.16715E+04
  6.11167E+03 -3.96084E+04  3.32229E+04 -1.46314E+04  2.95472E+04  1.21481E+04  5.78130E+03  1.90470E+04
 -1.47326E+04  9.78075E+03 -1.18455E+04 -7.12506E+03  5.24705E+03 -1.01775E+04  1.95403E+04  6.30468E+03
  1.49209E+04  2.34404E+04 -6.10249E+03  2.48505E+04 -2.32182E+04  1.18538E+04 -3.09524E+04 -3.94163E+03
 -2.25409E+04 -1.81960E+04 -1.09265E+04 -2.42098E+04  4.43936E+03 -2.42605E+04  1.78986E+04 -1.99824E+04
  2.89330E+04 -1.33348E+04  3.58957E+04  4.84455E+03  2.57910E+04  2.25990E+04  3.74627E+03  3.96439E+04
 -1.88779E+04  3.17795E+04 -2.94142E+04  1.11977E+04 -2.27024E+04 -9.74469E+03 -5.61568E+03 -1.35305E+04
  1.70117E+03 -1.89151E+03 -5.34813E+03  6.74538E+03 -1.82659E+04  4.55172E+03 -1.86575E+04 -7.50872E+03
 -1.13579E+04 -1.96052E+04  5.86508E+03 -2.65700E+04  1.67959E+04 -1.89368E+04  2.08515E+04 -9.55738E+02
  1.32341E+04  1.49046E+04 -1.39081E+03  2.17243E+04 -1.30112E+04  1.12389E+04 -2.12973E+04 -3.35484E+03
 -1.62049E+04 -2.14319E+04 -1.11007E+03 -2.57830E+04  1.14349E+04 -2.18929E+04  2.13578E+04 -1.13328E+04
  1.95301E+04 -7.36739E+02  1.57986E+04  5.15373E+03  7.90235E+03  1.37291E+03  9.74722E+03 -3.82144E+03
  1.95496E+04  2.06675E+03  2.20297E+04  1.73402E+04  1.59046E+04  3.45694E+04 -1.32628E+03  3.94913E+04
 -2.37267E+04  3.25644E+04 -3.69464E+04  1.63264E+04 -4.09007E+04 -9.96533E+02 -3.25063E+04 -2.33354E+04
 -1.38640E+04 -3.28238E+04  1.20659E+04 -2.93108E+04  2.50115E+04 -1.54653E+04  2.31809E+04  6.67721E+03
  6.67740E+03  1.77926E+04 -1.02640E+04  1.59412E+04 -1.85415E+04  1.43869E+03 -1.39368E+04 -1.22907E+04
 -2.37899E+02 -1.74420E+04  9.74573E+03 -1.30709E+04  1.23501E+04 -1.65434E+03  3.91607E+03  6.52321E+03
 -7.09719E+03  3.41540E+03 -6.41673E+03 -7.06289E+03 -1.85168E+03 -1.67862E+04  1.17038E+04 -1.65462E+04
  1.99030E+04 -1.06808E+04  2.34070E+04  3.81347E+03  2.07171E+04  1.75833E+04  8.88332E+03  2.51233E+04
 -2.86782E+03  2.77464E+04 -1.69511E+04  1.68682E+04 -2.01720E+04  4.14731E+03 -1.31662E+04 -4.44415E+03
 -5.61978E+03 -6.42851E+03 -1.87697E+03  1.19270E+03 -1.95629E+03  2.18969E+03 -6.00141E+03  6.58209E+03
 -1.26731E+04  4.02154E+02 -1.46436E+04 -1.15040E+04 -6.34825E+03 -1.70203E+04  5.52029E+03 -1.42674E+04
  1.05869E+04 -6.34072E+03  7.65516E+03  2.30214E+03 -1.79303E+03  5.21005E+03 -6.63430E+03 -9.06474E+01
 -6.78123E+03 -8.68057E+03 -1.71281E+03 -1.24812E+04  8.54472E+03 -1.43833E+04  1.87913E+04 -8.05512E+03
  2.01655E+04  1.52895E+03  1.47052E+04  1.20915E+04  2.91771E+03  1.78359E+04 -9.47334E+03  1.51469E+04
 -1.13849E+04  4.51489E+03 -6.53346E+03 -3.61868E+03  2.66600E+03 -4.81832E+03  8.12107E+03 -1.27065E+03
  4.65971E+03  6.46029E+03  3.11712E+02  1.25314E+04 -8.55711E+03  1.09362E+04 -1.61714E+04  1.24202E+03
 -8.45915E+03 -7.99318E+03  7.95706E+02 -1.11996E+04  6.34412E+03 -5.55940E+03  7.53113E+03  1.78415E+03
  1.66126E+03  8.16344E+03 -8.16384E+03  1.12847E+04 -1.07438E+04  4.14722E+03 -1.07082E+04 -3.04564E+03
 -6.66519E+03 -1.26913E+04  2.14335E+03 -1.64717E+04  1.25447E+04 -8.95545E+03  1.47878E+04  2.93955E+03
  1.10220E+04  1.18802E+04 -1.96085E+03  1.44182E+04 -9.71823E+03  8.85259E+03 -1.17822E+04 -1.94225E+02
 -9.95155E+03 -8.78695E+03 -1.01940E+03 -1.08780E+04  4.86623E+03 -8.27401E+03  7.76422E+03 -2.82659E+03
  4.39354E+03  7.45247E+02 -2.18072E+03  1.58015E+03 -2.69654E+02 -3.91488E+03  2.82096E+03 -6.49642E+03
  9.68201E+03 -2.89688E+03  1.40435E+04  1.18739E+03  1.23317E+04  9.23854E+03  1.02098E+04  1.85936E+04
 -5.40768E+03  1.93294E+04 -1.65851E+04  1.39426E+04 -2.23157E+04  2.71401E+03 -1.61969E+04 -7.89759E+03
 -9.21756E+03 -1.55217E+04  5.21338E+02 -1.32481E+04  4.10177E+03 -7.52592E+03  4.28978E+03 -3.51488E+03
  3.09768E+03 -2.57581E+03  4.19457E+03 -2.90387E+03  4.64223E+03 -3.73005E+03  5.75534E+03 -1.34548E+03
  9.20430E+03  2.73120E+03  3.62538E+03  7.41437E+03 -1.74130E+03  1.03659E+04 -9.21755E+03  6.97087E+03
 -1.23057E+04 -3.73355E+03 -7.04230E+03 -1.00719E+04  1.52151E+03 -1.37631E+04  7.93229E+03 -1.37435E+04
  1.45605E+04 -1.01006E+04  1.59550E+04  3.14184E+03  1.09307E+04  1.20163E+04  2.47695E+03  1.46744E+04
 -6.85487E+03  1.26700E+04 -1.02596E+04  5.93876E+03 -5.90745E+03  4.28546E+02 -2.54993E+03 -8.81282E+02
 -1.64493E+03 -1.29916E+03 -1.81101E+03  3.07710E+03 -4.54408E+03  2.37720E+03 -9.07035E+03  4.22496E+01
 -5.83376E+03 -7.93451E+03  1.97045E+03 -1.31859E+04  8.77838E+03 -1.13243E+04  1.28512E+04 -2.85544E+03
  1.25590E+04  5.04322E+03  5.57163E+03  1.15919E+04 -3.18339E+03  1.35459E+04 -9.35205E+03  7.08907E+03
 -1.06181E+04  1.22150E+03 -8.50319E+03 -6.25057E+03 -4.53160E+02 -1.00759E+04  7.46012E+03 -6.61466E+03
  7.29373E+03 -1.24333E+03  5.65860E+03  2.04949E+03  2.20493E+03  4.24374E+03  1.23024E+03  2.57503E+03
  2.41931E+03  2.02388E+03  1.57834E+03  3.33075E+03  3.74182E+03  5.33122E+03  4.37436E+03  6.86185E+03
 -3.03672E+03  8.95906E+03 -8.57003E+03  9.42902E+03 -1.24354E+04  2.30411E+03 -1.33114E+04 -5.95945E+03
 -5.93173E+03 -1.36679E+04  1.75421E+03 -1.40110E+04  6.75237E+03 -8.32593E+03  9.52589E+03 -1.83552E+03
  8.40825E+03  6.24580E+03  8.53737E+02  8.33356E+03 -3.35650E+03  3.93622E+03 -4.52722E+03 -6.72208E+02
 -2.51254E+03 -3.69405E+03  2.26845E+03 -5.48850E+03  5.29828E+03 -2.43910E+03  5.27049E+03  6.41295E+02
  3.30093E+03  3.07370E+03  2.00636E+03  1.22775E+03 -1.07819E+02  1.28670E+03  1.48162E+03 -2.40932E+02
  9.96248E+02 -8.68399E+01  5.25793E+03  1.50775E+03  2.20507E+03  7.01859E+03 -1.29414E+03  9.53708E+03
 -7.05876E+03  5.63901E+03 -7.14105E+03  1.63987E+03 -6.95761E+03 -2.30496E+03 -3.71201E+03 -3.03454E+03
  3.79104E+02 -4.65888E+03  2.71232E+03 -1.22061E+03  3.04158E+03  3.37078E+03 -1.82221E+03  3.67749E+03
 -5.88280E+03  1.09739E+03 -5.63842E+03 -2.01176E+03 -1.55938E+03 -6.63394E+03  1.49206E+03 -7.34703E+03
  2.37582E+03 -4.34476E+03  4.14412E+03 -4.10984E+02  2.92758E+03  3.12218E+03 -3.77728E+02  4.06097E+03
 -2.43119E+03  2.90478E+03 -2.80454E+03 -1.79869E+03  2.21250E+03 -5.51551E+03  5.06687E+03 -5.75649E+03
  6.83774E+03  7.78712E+02  9.29818E+03  5.33414E+03  2.08571E+03  7.20426E+03 -3.02249E+03  8.37004E+03
 -6.70301E+03  3.95601E+03 -6.07067E+03 -1.62438E+03 -3.72183E+03 -6.51505E+03  1.43340E+03 -3.98440E+03
  6.82156E+03 -2.30131E+03  5.14879E+03  2.22005E+03  2.33204E+03  4.04102E+03 -7.90711E+02  3.43983E+03
 -2.35322E+03  2.94789E+03 -2.36652E+03  1.13837E+03 -1.03609E+03  2.66004E+03 -3.76297E+02  1.64680E+03
 -1.42087E+03  3.00567E+03 -4.61262E+03  1.05387E+03 -8.18076E+03  2.72780E+02 -8.00041E+03 -3.88862E+03
 -3.53930E+03 -9.63902E+03  3.43420E+03 -1.25736E+04  7.66901E+03 -8.28878E+03  1.09605E+04 -4.21199E+03
  1.13137E+04  1.59508E+03  5.81039E+03  7.27800E+03 -6.76508E+02  9.52958E+03 -2.56557E+03  4.95170E+03
 -2.83916E+03  2.66255E+03 -1.92800E+03 -1.51750E+03 -1.22757E+03 -7.80938E+02  2.36184E+02  6.91563E+02
 -2.44122E+03  5.38776E+02 -1.90908E+03 -1.51061E+03 -6.26599E+02 -1.19618E+03  7.11330E+02 -2.34374E+03
  2.45993E+03 -3.16367E+03  4.75532E+03 -3.42928E+01  5.35718E+03  6.20638E+03  1.83362E+03  8.15130E+03
 -3.96020E+03  9.35345E+03 -8.39214E+03  6.28381E+03 -1.02618E+04 -1.13170E+03 -7.44013E+03 -7.06755E+03
 -2.69648E+03 -8.34703E+03  2.64505E+03 -6.52709E+03  6.87517E+03 -5.11206E+03  3.82767E+03  1.16933E+03
  2.31222E+03  2.33768E+03 -9.23585E+01  1.83838E+03 -8.66474E+02 -1.02272E+03  1.09223E+01 -2.83510E+03
  2.56603E+03 -1.14853E+03  3.85058E+03  2.31912E+03  1.78923E+03  4.21836E+03  1.42573E+03  4.88634E+03
 -3.14818E+03  4.47611E+03 -5.61733E+03  1.15263E+03 -3.52156E+03 -3.85566E+03 -2.10978E+02 -6.71309E+03
  3.40368E+03 -5.02640E+03  5.46996E+03 -1.87023E+03  6.08574E+03  1.94856E+03  4.17906E+03  6.48807E+03
  1.85433E+02  4.94915E+03 -2.01985E+03  4.35954E+03 -3.29674E+03  3.64635E+03 -1.48438E+03  3.95014E+02
 -2.40346E+03  1.37526E+03 -1.36469E+03  8.53996E+02 -2.82536E+03 -7.28025E+01 -5.44650E+03 -8.35315E+02
 -4.29658E+03 -2.52087E+03  2.23402E+02 -6.38230E+03  2.58505E+03 -6.68655E+03  4.02203E+03 -2.34981E+03
  5.00955E+03  1.53261E+03  4.06063E+03  3.64076E+03  4.57499E+02  5.94377E+03 -5.65945E+03  3.88825E+03
