 $NMID ID='MM_0lb_SNR200_7hz_g40_24.RAW', FMTDAT='(8E13.5)'
 TRAMP=1., VOLUME=1. $END
  3.06986E+05  1.35282E+03  3.37772E+05  2.50524E+05  8.61582E+04  3.37045E+05 -1.32149E+05  2.52347E+05
 -1.92637E+05  8.43085E+04 -1.12721E+05 -3.16879E+04  1.21959E+03 -5.19120E+04  5.12884E+04 -1.20328E+03
  3.45238E+04  5.42948E+04 -1.60206E+04  7.63268E+04 -6.17670E+04  6.41202E+04 -8.49902E+04  3.25413E+04
 -8.31064E+04 -1.34594E+04 -5.80473E+04 -5.46255E+04 -1.45720E+04 -7.18132E+04  2.88912E+04 -4.59242E+04
  4.24226E+04  3.50619E+03  1.78980E+04  4.63859E+04 -3.58168E+04  4.75291E+04 -6.88973E+04  1.74982E+03
 -5.54772E+04 -5.80022E+04 -6.05013E+03 -7.65900E+04  3.48085E+04 -5.79758E+04  5.05341E+04 -1.73495E+04
  4.49821E+04  1.06729E+04  3.27968E+04  2.65298E+04  1.47767E+04  3.03882E+04 -6.62000E+03  2.72488E+04
 -2.37981E+04  1.30139E+04 -1.72396E+04 -7.61445E+03  6.28341E+03 -7.78319E+03  2.34449E+04  1.43628E+04
  7.68475E+03  3.80206E+04 -3.38686E+04  3.74561E+04 -6.76894E+04  9.24918E+02 -5.80831E+04 -4.37084E+04
 -1.36471E+04 -6.66115E+04  4.15440E+04 -4.98231E+04  6.12917E+04 -8.40315E+02  3.73940E+04  3.40496E+04
 -6.44891E+03  4.09375E+04 -3.13135E+04  1.77990E+04 -3.47397E+04 -3.88870E+03 -1.92412E+04 -1.08937E+04
 -8.54172E+03 -1.52457E+04 -7.81688E+02 -2.10331E+04  7.12197E+03 -2.29707E+04  1.63358E+04 -1.25839E+04
  1.16357E+04  6.61055E+03 -1.14784E+04  1.39970E+04 -2.49013E+04 -8.32239E+03 -8.63079E+03 -3.71550E+04
  2.46067E+04 -4.82626E+04  5.15352E+04 -2.09139E+04  5.04808E+04  2.10246E+04  1.88284E+04  4.65405E+04
 -1.74978E+04  3.73366E+04 -2.85067E+04  1.83802E+03 -1.28568E+04 -3.02438E+04  2.11980E+04 -3.96149E+04
  4.45805E+04 -1.13260E+04  4.17259E+04  2.70608E+04  2.10600E+04  5.19952E+04 -7.58814E+03  5.74966E+04
 -3.66984E+04  4.07777E+04 -4.82210E+04  1.14644E+04 -4.97829E+04 -2.01289E+04 -2.68027E+04 -4.47933E+04
  8.55093E+03 -4.23434E+04  3.58510E+04 -1.89108E+04  3.17188E+04  1.15522E+04  5.17882E+03  2.15187E+04
 -1.37818E+04  9.19390E+03 -1.12489E+04 -7.11444E+03  5.71538E+03 -1.15725E+04  1.91061E+04  4.42251E+03
  1.76412E+04  2.14016E+04 -4.69919E+03  2.66352E+04 -2.44405E+04  1.77765E+04 -3.08982E+04 -4.26739E+03
 -2.53813E+04 -1.91343E+04 -1.16564E+04 -2.56128E+04  4.95161E+03 -2.78940E+04  2.09614E+04 -2.34706E+04
  3.33715E+04 -1.49044E+04  3.81119E+04  5.41652E+03  2.64769E+04  2.64418E+04  5.16371E+03  4.28454E+04
 -1.98888E+04  3.68348E+04 -3.23628E+04  1.14781E+04 -2.22067E+04 -8.81008E+03 -5.86308E+03 -1.29784E+04
  8.89953E+02 -9.28128E+02 -8.13866E+03  8.39467E+03 -2.18385E+04  4.08094E+03 -2.12989E+04 -1.07827E+04
 -1.37131E+04 -2.60114E+04  8.10427E+03 -2.86341E+04  2.07387E+04 -2.01132E+04  2.41964E+04 -2.08292E+03
  1.56684E+04  1.77199E+04 -1.91465E+03  2.35770E+04 -1.83083E+04  1.38266E+04 -2.56202E+04 -4.49247E+03
 -1.98249E+04 -2.15657E+04 -3.10565E+03 -3.01896E+04  1.28658E+04 -2.37210E+04  2.46527E+04 -1.27959E+04
  2.13412E+04  5.42872E+01  1.77168E+04  5.26102E+03  1.12605E+04  1.45651E+03  1.32506E+04  1.77538E+02
  2.60648E+04  2.30635E+03  2.86664E+04  1.81317E+04  1.91072E+04  3.90181E+04 -3.16555E+03  4.66310E+04
 -2.78097E+04  3.96535E+04 -4.53802E+04  2.22899E+04 -4.84661E+04 -2.35128E+03 -3.95295E+04 -2.81072E+04
 -1.53913E+04 -3.95558E+04  1.47680E+04 -3.65648E+04  3.04548E+04 -1.53531E+04  2.39589E+04  1.02858E+04
  8.93198E+03  2.07550E+04 -1.20146E+04  1.58421E+04 -2.19894E+04  3.65726E+03 -1.66092E+04 -1.37564E+04
  5.76274E+02 -1.91064E+04  1.12477E+04 -1.61331E+04  1.41545E+04 -1.77939E+03  4.46677E+03  1.06649E+04
 -9.90726E+03  5.72406E+03 -1.06085E+04 -7.06444E+03 -3.10431E+03 -1.92485E+04  1.28127E+04 -2.22732E+04
  2.43701E+04 -1.16140E+04  2.94310E+04  2.15344E+03  2.53908E+04  1.96790E+04  1.14360E+04  3.19830E+04
 -8.22556E+03  3.42851E+04 -2.28978E+04  1.93170E+04 -2.42598E+04  3.92260E+03 -1.63439E+04 -6.21029E+03
 -7.41492E+03 -8.15372E+03  1.31282E+03  1.47346E+03 -3.62347E+03  4.60225E+03 -7.30587E+03  6.25971E+03
 -1.30255E+04 -1.68070E+03 -1.76750E+04 -1.34266E+04 -6.34084E+03 -2.05026E+04  6.14615E+03 -1.55180E+04
  1.45985E+04 -6.29143E+03  9.74757E+03  5.91762E+03  5.21492E+02  6.81934E+03 -8.16485E+03 -2.02471E+03
 -8.24761E+03 -1.20698E+04 -1.60478E+03 -1.64701E+04  1.11822E+04 -1.84697E+04  2.09121E+04 -1.00767E+04
  2.49867E+04  2.05876E+03  1.89125E+04  1.67360E+04  3.48893E+03  2.26839E+04 -1.10458E+04  1.77856E+04
 -1.38953E+04  5.20688E+03 -6.87205E+03 -4.32374E+03  3.72960E+03 -5.44465E+03  9.41395E+03 -2.11223E+03
  8.70585E+03  7.24392E+03  1.78037E+03  1.39599E+04 -1.01938E+04  1.30793E+04 -1.69371E+04  4.30662E+03
 -1.00815E+04 -8.65035E+03  4.64685E+02 -1.54837E+04  9.15739E+03 -5.97545E+03  9.50542E+03  2.16050E+03
  3.10709E+03  1.16307E+04 -8.37557E+03  1.36072E+04 -1.79603E+04  5.73557E+03 -1.57402E+04 -5.26502E+03
 -9.95250E+03 -1.79271E+04  3.21167E+03 -2.09981E+04  1.82785E+04 -1.14471E+04  2.12492E+04  4.00892E+03
  1.06414E+04  1.51447E+04 -2.18738E+03  1.69562E+04 -1.30514E+04  9.45466E+03 -1.36624E+04  9.94303E+02
 -1.11298E+04 -1.33082E+04 -3.76810E+03 -1.42354E+04  6.97989E+03 -1.06443E+04  7.54405E+03 -5.51778E+03
  4.15904E+03  2.68089E+03 -1.10040E+03  2.10446E+03 -9.74713E+02 -2.72100E+03  2.74004E+03 -9.51088E+03
  1.31738E+04 -4.40987E+03  1.94274E+04  2.53414E+03  1.79889E+04  1.48625E+04  1.04895E+04  2.58248E+04
 -5.92096E+03  2.83940E+04 -2.26479E+04  2.03496E+04 -3.02416E+04  3.87388E+03 -2.46614E+04 -1.02555E+04
 -1.20167E+04 -1.81813E+04 -2.31975E+03 -1.77821E+04  5.99277E+03 -9.61843E+03  5.59521E+03 -5.19438E+03
  5.77148E+03 -3.45633E+03  3.62858E+03 -3.66518E+03  4.49233E+03 -4.87997E+03  8.93921E+03 -3.41943E+03
  1.26764E+04  3.05486E+03  6.57142E+03  1.20209E+04 -3.74200E+03  1.34434E+04 -1.32679E+04  8.66491E+03
 -1.76687E+04  6.07898E+02 -1.20625E+04 -1.01087E+04 -2.22981E+03 -1.90755E+04  1.03694E+04 -1.91687E+04
  1.93187E+04 -1.09302E+04  2.09562E+04  2.05890E+03  1.64029E+04  1.81705E+04  2.55309E+03  2.07374E+04
 -8.16268E+03  1.67955E+04 -1.12647E+04  6.61414E+03 -9.05478E+03 -1.79531E+03 -1.59608E+03 -2.74742E+03
 -2.42029E+03  2.99203E+02 -5.13013E+03  2.67736E+03 -7.47174E+03  2.21892E+03 -1.22907E+04 -1.17546E+03
 -1.09652E+04 -1.17876E+04  3.87932E+02 -1.76805E+04  9.72077E+03 -1.52651E+04  1.88085E+04 -5.97595E+03
  1.82593E+04  8.99553E+03  6.53913E+03  1.60614E+04 -3.30431E+03  1.92371E+04 -1.20243E+04  1.30903E+04
 -1.70114E+04  1.71366E+03 -1.11126E+04 -1.00184E+04 -2.20167E+02 -1.43966E+04  8.21477E+03 -1.08220E+04
  1.09168E+04 -2.95782E+03  7.78593E+03  3.68189E+03  4.61701E+02  7.18982E+03  3.12067E+03  2.67326E+03
  3.78779E+03  1.85713E+03  6.01831E+03  6.47059E+02  4.24940E+03  5.06255E+03  4.45457E+03  1.09410E+04
 -1.61967E+03  1.23409E+04 -1.31397E+04  1.30417E+04 -1.94587E+04  4.03279E+03 -1.96065E+04 -7.78416E+03
 -1.10577E+04 -1.71827E+04  2.42016E+03 -2.01428E+04  1.06334E+04 -1.32800E+04  1.50137E+04 -3.87473E+03
  1.20303E+04  6.27699E+03  2.50480E+03  8.67890E+03 -5.94746E+03  4.53923E+03 -8.13941E+03 -1.32150E+03
 -4.28769E+03 -8.05544E+03  3.86747E+03 -8.66587E+03  7.75805E+03 -4.41680E+03  7.62979E+03  1.30484E+03
  3.66819E+03  3.41895E+03  6.36383E+02  4.18967E+03 -9.20094E+02  2.53115E+03  1.84159E+03 -9.40667E+02
  3.34119E+03 -1.03481E+03  7.75201E+03  3.61164E+03  3.59703E+03  1.05463E+04 -3.03413E+03  1.37527E+04
 -9.68514E+03  6.88289E+03 -1.18247E+04  3.10153E+03 -1.01786E+04 -2.89675E+03 -4.13316E+03 -6.38995E+03
  1.04731E+03 -7.41981E+03  5.40614E+03 -5.19036E+03  4.29217E+03  2.68746E+03 -3.43343E+03  7.18143E+03
 -8.29435E+03  1.57959E+03 -9.62930E+03 -4.82893E+03 -4.84437E+03 -9.95901E+03  1.28418E+03 -9.31274E+03
  7.96203E+03 -6.85654E+03  7.69016E+03  6.18758E+02  6.55639E+03  2.93879E+03  1.64299E+03  7.17343E+03
 -3.43910E+03  1.89698E+03 -3.49660E+03 -4.97242E+03  1.35161E+03 -6.88962E+03  1.07179E+04 -6.34551E+03
  1.29221E+04  1.60468E+03  1.26535E+04  7.17030E+03  5.10121E+03  1.23482E+04 -4.37205E+03  1.22268E+04
 -1.11234E+04  5.23257E+03 -1.08777E+04 -2.28228E+03 -6.08546E+03 -7.99442E+03  2.23832E+03 -9.92932E+03
  6.84803E+03 -3.38156E+03  6.34055E+03  3.73588E+03  2.99388E+03  6.66652E+03 -1.12413E+03  5.64891E+03
 -4.16582E+03  3.99424E+03 -2.76249E+03 -6.26052E+02 -2.15465E+03  7.38227E+02 -2.48479E+03  3.04692E+03
 -3.97299E+03  4.54167E+03 -9.33327E+03  3.52281E+03 -1.29260E+04 -7.06840E+02 -1.54862E+04 -7.90589E+03
 -8.53714E+03 -1.62143E+04  3.58542E+03 -2.11517E+04  1.23221E+04 -1.58920E+04  1.80368E+04 -3.59976E+03
  1.67880E+04  3.47443E+03  1.12393E+04  1.23105E+04  9.26577E+02  1.33870E+04 -5.44176E+03  1.05466E+04
 -7.48378E+03  2.44745E+03 -5.94280E+03 -2.34342E+03 -9.83853E+02 -2.29645E+03 -1.41390E+03 -1.43857E+03
 -2.62734E+03  1.21309E+03 -3.73993E+03 -4.66288E+01 -4.42682E+02 -2.47925E+03  2.59232E+03 -5.62731E+03
  5.85526E+03 -4.02632E+03  9.41200E+03  9.73938E+02  1.02646E+04  6.14565E+03  1.72593E+03  1.29569E+04
 -6.34630E+03  1.48156E+04 -1.38679E+04  9.80673E+03 -1.78057E+04 -2.95078E+03 -1.15547E+04 -1.05323E+04
 -7.36561E+03 -1.38001E+04  3.27759E+03 -1.41113E+04  9.88963E+03 -6.58979E+03  1.07096E+04 -4.85607E+02
  6.09920E+03  5.13248E+03 -1.87122E+02  3.37258E+03 -3.94671E+03 -1.21443E+03  1.15985E+02 -4.23378E+03
  3.93035E+03 -2.82999E+03  4.33373E+03  2.55000E+03  3.19429E+03  7.77080E+03  1.29384E+03  8.85097E+03
 -6.81546E+03  5.51845E+03 -1.05263E+04  1.42641E+03 -8.46515E+03 -6.89347E+03 -1.88693E+03 -1.07768E+04
  6.74126E+03 -1.14083E+04  1.11169E+04 -3.77107E+03  8.73458E+03  3.39166E+03  5.25859E+03  9.27563E+03
  1.62625E+03  9.81094E+03 -4.30448E+03  4.88301E+03 -7.17461E+03  4.55858E+03 -6.28156E+03  1.86217E+03
 -2.88105E+03  6.02328E+02 -3.08288E+03  5.06793E+02 -4.02116E+03  2.31206E+03 -7.94339E+03 -2.07570E+03
 -7.27435E+03 -5.59690E+03 -2.33168E+03 -9.86972E+03  3.48939E+03 -1.12207E+04  9.67899E+03 -5.64308E+03
  7.90255E+03  1.62196E+03  5.56301E+03  7.68876E+03 -1.32427E+02  1.09690E+04 -8.17888E+03  5.98796E+03
