 $NMID ID='MM_0lb_SNR200_9hz_g40_61.RAW', FMTDAT='(8E13.5)'
 TRAMP=1., VOLUME=1. $END
  3.08962E+05 -2.48420E+01  3.38187E+05  2.50951E+05  8.63882E+04  3.38827E+05 -1.32794E+05  2.51589E+05
 -1.88895E+05  8.25708E+04 -1.11556E+05 -3.25313E+04 -2.25711E+02 -5.01317E+04  5.43642E+04 -8.66713E+01
  3.57609E+04  5.23048E+04 -1.69862E+04  7.57026E+04 -6.16007E+04  6.43555E+04 -8.47049E+04  3.16599E+04
 -8.06893E+04 -1.05073E+04 -5.75427E+04 -5.12301E+04 -1.55567E+04 -7.05705E+04  2.82634E+04 -4.54802E+04
  4.22611E+04  2.39032E+03  1.66862E+04  4.97433E+04 -3.33368E+04  4.82232E+04 -6.86822E+04  1.60298E+02
 -5.34987E+04 -5.76288E+04 -8.33508E+03 -7.94713E+04  3.53064E+04 -5.61673E+04  5.04262E+04 -1.63736E+04
  4.64026E+04  1.13574E+04  3.19445E+04  2.71111E+04  1.53183E+04  2.95378E+04 -6.04042E+03  2.83099E+04
 -2.28605E+04  1.03517E+04 -1.83351E+04 -6.46027E+03  6.21290E+03 -6.95394E+03  2.58166E+04  1.19087E+04
  7.14115E+03  3.80356E+04 -3.40333E+04  3.57737E+04 -6.59436E+04  1.53319E+03 -5.79441E+04 -4.36895E+04
 -1.18165E+04 -6.54923E+04  4.17483E+04 -4.61712E+04  6.04060E+04 -2.86833E+03  3.64979E+04  3.39086E+04
 -5.28115E+03  3.90470E+04 -2.99368E+04  1.77089E+04 -3.23782E+04 -3.72899E+03 -1.84495E+04 -1.19196E+04
 -8.72047E+03 -1.39182E+04 -4.95533E+02 -2.09430E+04  7.92903E+03 -2.32348E+04  1.57017E+04 -1.38193E+04
  1.14152E+04  5.16191E+03 -9.42025E+03  1.31231E+04 -2.45100E+04 -4.50797E+03 -9.37162E+03 -3.68743E+04
  2.50818E+04 -4.53704E+04  5.13108E+04 -2.12116E+04  4.64993E+04  1.94443E+04  1.69065E+04  4.67498E+04
 -1.80858E+04  3.52453E+04 -2.85814E+04  1.31660E+03 -1.04407E+04 -2.83903E+04  2.06989E+04 -3.74624E+04
  4.47182E+04 -1.11320E+04  4.10886E+04  2.19110E+04  2.07709E+04  5.09286E+04 -8.95935E+03  5.42246E+04
 -3.37086E+04  3.81314E+04 -4.53424E+04  1.13945E+04 -4.65920E+04 -1.74687E+04 -2.54149E+04 -4.17086E+04
  7.74090E+03 -4.22911E+04  3.27011E+04 -1.65663E+04  3.14643E+04  1.11415E+04  5.33611E+03  1.83539E+04
 -1.40863E+04  1.07558E+04 -1.08504E+04 -6.64020E+03  6.70160E+03 -1.17275E+04  1.77298E+04  5.06940E+03
  1.43688E+04  2.28917E+04 -4.45155E+03  2.73418E+04 -2.48638E+04  1.44168E+04 -2.99125E+04 -2.84398E+03
 -2.46994E+04 -1.75084E+04 -1.17226E+04 -2.40485E+04  2.85649E+03 -2.39490E+04  1.97450E+04 -2.34136E+04
  3.08291E+04 -1.34029E+04  3.82168E+04  4.24049E+03  2.63231E+04  2.28354E+04  3.75879E+03  4.08352E+04
 -1.94833E+04  3.30491E+04 -3.04919E+04  1.22657E+04 -2.07391E+04 -1.20634E+04 -4.07496E+03 -1.23996E+04
  1.46379E+03 -2.24119E+02 -6.82565E+03  7.83007E+03 -1.93576E+04  3.25775E+03 -1.87249E+04 -8.62810E+03
 -1.08248E+04 -2.17049E+04  8.36535E+03 -2.80302E+04  1.91163E+04 -1.87376E+04  2.21057E+04 -2.73111E+03
  1.42712E+04  1.60922E+04 -1.63364E+03  2.13824E+04 -1.46495E+04  1.33815E+04 -2.27288E+04 -5.41376E+03
 -1.55023E+04 -2.16616E+04 -1.90786E+03 -2.67900E+04  1.19530E+04 -2.13583E+04  2.24471E+04 -1.31250E+04
  2.17194E+04  6.70232E+02  1.71401E+04  6.12022E+03  7.92159E+03  2.20843E+02  1.12120E+04 -1.13443E+03
  2.06202E+04  2.17990E+03  2.38689E+04  1.78563E+04  1.66407E+04  3.64157E+04 -2.68552E+03  4.31500E+04
 -2.48938E+04  3.51375E+04 -4.11353E+04  1.74363E+04 -4.15532E+04 -2.96881E+03 -3.42662E+04 -2.47887E+04
 -1.57204E+04 -3.66564E+04  1.35800E+04 -3.06250E+04  2.81811E+04 -1.44259E+04  2.31472E+04  7.25102E+03
  7.97877E+03  1.94524E+04 -1.03418E+04  1.52168E+04 -1.94051E+04  1.64683E+03 -1.45108E+04 -1.21325E+04
 -9.33696E+02 -1.80291E+04  1.00519E+04 -1.32120E+04  1.22412E+04 -1.16896E+03  2.53292E+03  9.31519E+03
 -8.57197E+03  3.06371E+03 -8.23925E+03 -5.22001E+03 -2.99362E+03 -1.84475E+04  1.14842E+04 -1.68335E+04
  2.37274E+04 -1.13998E+04  2.46163E+04  5.02968E+03  2.20061E+04  1.79164E+04  1.06805E+04  2.81632E+04
 -5.54114E+03  2.80720E+04 -2.03983E+04  1.81471E+04 -2.12096E+04  4.01553E+03 -1.55734E+04 -6.23152E+03
 -5.01056E+03 -8.76615E+03 -1.61817E+03  1.57401E+03 -3.69465E+03  4.09722E+03 -6.74750E+03  5.45163E+03
 -1.38963E+04 -3.96668E+02 -1.49234E+04 -1.09664E+04 -5.42858E+03 -1.86586E+04  6.32961E+03 -1.49695E+04
  1.15639E+04 -6.50309E+03  8.64989E+03  3.78894E+03 -1.24230E+03  6.33463E+03 -7.05368E+03  1.11195E+01
 -6.53486E+03 -9.88196E+03 -5.22693E+01 -1.56176E+04  1.00513E+04 -1.60125E+04  1.88187E+04 -8.65913E+03
  2.12607E+04  1.36167E+03  1.69710E+04  1.31728E+04  4.10985E+03  1.86649E+04 -9.38475E+03  1.59242E+04
 -1.04698E+04  4.62788E+03 -6.40586E+03 -2.86975E+03  1.44204E+03 -5.26663E+03  7.99954E+03 -1.42592E+02
  5.54527E+03  6.65338E+03  8.17211E+02  1.24566E+04 -1.02834E+04  1.11031E+04 -1.40812E+04  2.54287E+03
 -1.05107E+04 -8.66353E+03  4.91823E+02 -1.35431E+04  7.65750E+03 -6.42881E+03  8.36111E+03  4.47427E+03
  1.95953E+03  1.01077E+04 -7.17758E+03  1.14145E+04 -1.31918E+04  6.07005E+03 -1.50840E+04 -4.79690E+03
 -7.28909E+03 -1.47810E+04  3.13544E+03 -1.72252E+04  1.55073E+04 -1.05645E+04  1.48049E+04  1.66750E+03
  9.71946E+03  1.23565E+04 -1.18541E+03  1.50510E+04 -1.04825E+04  8.93044E+03 -1.09244E+04 -2.28518E+03
 -1.03783E+04 -1.07541E+04 -5.07608E+02 -1.19056E+04  6.37416E+03 -9.93345E+03  6.10540E+03 -3.33927E+03
  4.35114E+03  2.32773E+03 -1.37442E+03  3.76029E+03  4.71444E+02 -2.17918E+03  2.04003E+03 -6.44774E+03
  1.07531E+04 -5.27440E+03  1.50137E+04  6.10368E+02  1.46539E+04  1.08322E+04  1.10224E+04  1.87354E+04
 -4.22722E+03  2.08589E+04 -1.87048E+04  1.59318E+04 -2.57076E+04  3.48789E+03 -1.97503E+04 -8.57431E+03
 -9.15121E+03 -1.61593E+04 -4.23306E+02 -1.41708E+04  4.54261E+03 -7.97342E+03  4.41338E+03 -2.82454E+03
  2.72716E+03 -2.26739E+03  2.77221E+03 -4.44805E+03  5.29444E+03 -2.59285E+03  6.85501E+03 -1.95758E+03
  1.04787E+04  2.76646E+03  5.58016E+03  8.44858E+03 -2.67922E+03  1.03314E+04 -1.01063E+04  6.11926E+03
 -1.46769E+04 -1.28150E+03 -9.61873E+03 -9.59644E+03 -1.59118E+03 -1.44239E+04  8.67303E+03 -1.54600E+04
  1.52343E+04 -8.22220E+03  1.88775E+04  3.30745E+03  1.42755E+04  1.29706E+04  2.08262E+03  1.74013E+04
 -7.42212E+03  1.43294E+04 -9.19014E+03  4.58457E+03 -7.46535E+03 -6.01072E+02 -3.59259E+03 -1.04116E+03
 -1.18742E+03  4.47146E+02 -1.05787E+03  2.82469E+03 -6.32194E+03  3.27442E+03 -9.03456E+03 -1.22989E+03
 -7.91854E+03 -9.74248E+03  2.65006E+02 -1.44222E+04  8.74324E+03 -1.27588E+04  1.36112E+04 -3.99169E+03
  1.36452E+04  6.80552E+03  4.49186E+03  1.18550E+04 -1.90992E+03  1.40945E+04 -1.04050E+04  9.54628E+03
 -1.40800E+04  1.00188E+03 -9.04704E+03 -9.49254E+03 -1.58051E+03 -1.00743E+04  5.61452E+03 -9.97520E+03
  1.15958E+04 -7.50870E+02  8.17906E+03  4.06244E+03  2.33731E+03  3.06376E+03  2.86832E+03  2.42442E+03
  2.48467E+03  1.41889E+03  2.32333E+03  1.43473E+03  3.68873E+03  4.10398E+03  5.04800E+03  6.73902E+03
 -3.48687E+03  1.11461E+04 -7.84481E+03  1.23404E+04 -1.43530E+04  3.66783E+03 -1.47593E+04 -5.92732E+03
 -7.01905E+03 -1.34038E+04  2.84838E+03 -1.49274E+04  9.18320E+03 -9.06942E+03  1.22500E+04 -1.79744E+03
  9.39797E+03  5.20651E+03  3.61950E+03  9.09836E+03 -4.62306E+03  6.24296E+03 -5.37560E+03 -8.41439E+02
 -4.30135E+03 -7.10386E+03  4.09678E+03 -5.77467E+03  6.78448E+03 -3.65232E+03  7.12780E+03  2.71777E+03
  3.35051E+03  3.95567E+03  5.08583E+02  5.10397E+03  9.34671E+01  2.84358E+03  1.80271E+03 -1.09012E+03
  2.81779E+03 -9.61593E+02  4.83274E+03  1.45744E+03  3.46783E+03  7.37919E+03 -1.54916E+03  1.16023E+04
 -6.19025E+03  7.21278E+03 -1.00201E+04  1.87931E+03 -7.23140E+03 -1.15086E+03 -3.87097E+03 -5.76557E+03
  1.93956E+03 -7.88673E+03  3.91353E+03 -2.55032E+03  4.44902E+03  2.58679E+03 -1.98707E+03  2.35153E+03
 -5.26082E+03  3.98726E+03 -7.04578E+03 -3.39850E+03 -3.86645E+03 -7.56099E+03  1.48548E+03 -8.42670E+03
  3.54135E+03 -5.00293E+03  6.02902E+03 -2.80759E+02  5.12193E+03  9.45029E+02  4.10703E+02  3.70781E+03
 -4.03777E+03  1.06192E+03 -5.22487E+03 -3.07537E+03  1.91256E+03 -6.58375E+03  7.90803E+03 -3.75783E+03
  6.23039E+03  1.35297E+03  8.34318E+03  6.42630E+03  3.30465E+03  1.06964E+04 -2.90025E+03  9.17173E+03
 -7.19452E+03  3.30767E+03 -8.58593E+03 -1.72961E+03 -2.74574E+03 -5.70480E+03  1.74953E+03 -6.96672E+03
  5.34340E+03 -4.29913E+02  4.43252E+03  3.18594E+03  1.88735E+03  5.53533E+03 -1.69019E+03  4.35649E+03
 -3.40597E+03  3.02054E+03 -3.47820E+03  1.48945E+03 -1.92057E+03  1.47704E+03 -2.85830E+03  2.60013E+03
 -4.15321E+03  2.38296E+03 -6.77183E+03  2.03717E+03 -9.39429E+03  7.37193E+02 -9.99856E+03 -7.03967E+03
 -5.51795E+03 -1.07850E+04  3.45407E+03 -1.50633E+04  7.97954E+03 -1.10395E+04  1.32694E+04 -5.98212E+03
  1.31920E+04  1.13491E+03  7.60216E+03  7.52944E+03  4.90468E+02  9.15261E+03 -4.21722E+03  7.53600E+03
 -5.08375E+03  3.17223E+03 -4.14993E+03 -4.51089E+00 -5.13815E+02 -4.09271E+02  5.10124E+02  4.16244E+02
 -3.23266E+03  1.37078E+03 -3.08129E+03 -3.17145E+02 -1.43067E+03 -1.94062E+03  9.94402E+02 -3.81386E+03
  4.34993E+03 -2.84553E+03  6.99218E+03  8.17060E+01  6.99808E+03  7.61673E+03  1.27751E+03  1.14918E+04
 -4.57692E+03  1.24821E+04 -1.01092E+04  6.22084E+03 -1.18483E+04  5.85319E+02 -9.84381E+03 -8.12163E+03
 -2.92018E+03 -9.09654E+03  1.65475E+03 -9.12948E+03  7.20375E+03 -5.90024E+03  3.99916E+03  3.30721E+02
  4.01689E+03  2.83413E+03 -6.88727E+02  2.97575E+03 -2.72068E+03 -6.24702E+02  2.51990E+02 -3.39786E+03
  2.51931E+03  1.05295E+02  3.39732E+03  1.13748E+03  2.84693E+03  2.81982E+03  2.93352E+02  6.63540E+03
 -4.65244E+03  3.53054E+03 -6.26790E+03 -3.70300E+02 -5.33973E+03 -5.02047E+03 -1.37806E+03 -8.12106E+03
  5.78374E+03 -7.75440E+03  6.84144E+03 -1.48072E+03  9.35473E+03  1.79776E+03  5.15075E+03  6.48052E+03
  1.30183E+03  7.59184E+03 -1.14976E+03  4.65095E+03 -4.27367E+03  2.16796E+03 -2.62757E+03  8.45196E+02
 -1.07740E+03 -1.66506E+02 -1.33893E+03 -6.91791E+02 -4.18638E+03  7.00595E+02 -6.18248E+03 -4.58156E+02
 -5.16529E+03 -2.98092E+03 -2.49927E+03 -7.20638E+03  3.04658E+03 -7.69981E+03  4.29976E+03 -3.32378E+03
  7.62742E+03  1.39636E+03  3.09240E+03  3.44062E+03 -2.06706E+02  7.03931E+03 -4.14864E+03  5.01233E+03
