 $NMID ID='MM_0lb_SNR200_10hz_g45_30.RAW', FMTDAT='(8E13.5)'
 TRAMP=1., VOLUME=1. $END
  3.10442E+05  1.30406E+03  3.36290E+05  2.51078E+05  8.52303E+04  3.38317E+05 -1.30302E+05  2.52529E+05
 -1.90172E+05  8.27784E+04 -1.12774E+05 -3.22488E+04  8.13884E+02 -5.10600E+04  5.37304E+04 -5.91664E+02
  3.62506E+04  5.14986E+04 -1.76210E+04  7.62080E+04 -6.19467E+04  6.23637E+04 -8.41072E+04  3.19550E+04
 -8.22618E+04 -1.18529E+04 -5.70619E+04 -5.30711E+04 -1.50037E+04 -7.02514E+04  2.62563E+04 -4.59578E+04
  4.10458E+04  3.97666E+03  1.72121E+04  4.94186E+04 -3.49541E+04  4.82547E+04 -6.70425E+04 -1.04223E+03
 -5.45822E+04 -5.71964E+04 -7.09279E+03 -7.81968E+04  3.29750E+04 -5.69304E+04  5.06924E+04 -1.92745E+04
  4.33490E+04  1.12746E+04  3.16380E+04  2.50165E+04  1.68833E+04  3.16700E+04 -7.11934E+03  2.79010E+04
 -2.28351E+04  1.26112E+04 -1.73842E+04 -6.20068E+03  6.92938E+03 -8.34860E+03  2.39127E+04  1.38185E+04
  7.37805E+03  3.66196E+04 -3.40353E+04  3.70205E+04 -6.61050E+04  3.73917E+03 -5.81541E+04 -4.34088E+04
 -1.16874E+04 -6.55339E+04  4.18715E+04 -4.65630E+04  6.06455E+04 -1.40751E+03  3.55153E+04  3.48785E+04
 -6.51246E+03  3.99142E+04 -2.90584E+04  1.83989E+04 -3.30390E+04 -4.45328E+03 -1.94260E+04 -1.16733E+04
 -1.02869E+04 -1.22131E+04  5.17892E+02 -1.93376E+04  8.19063E+03 -2.24691E+04  1.67419E+04 -1.39432E+04
  1.08952E+04  4.86488E+03 -8.53655E+03  1.25170E+04 -2.34649E+04 -6.99682E+03 -7.96429E+03 -3.69849E+04
  2.40914E+04 -4.45020E+04  5.10298E+04 -2.25711E+04  4.74936E+04  2.09485E+04  1.65364E+04  4.69459E+04
 -1.67241E+04  3.56054E+04 -2.73074E+04  1.24416E+03 -1.27445E+04 -2.94499E+04  2.07560E+04 -3.58362E+04
  4.27039E+04 -1.03524E+04  3.91739E+04  2.36829E+04  2.09528E+04  5.14265E+04 -8.91154E+03  5.47732E+04
 -3.43114E+04  3.62508E+04 -4.52915E+04  1.15930E+04 -4.65117E+04 -1.73571E+04 -2.59389E+04 -4.13118E+04
  7.91771E+03 -3.92487E+04  3.35311E+04 -1.59503E+04  3.18240E+04  1.11942E+04  5.05045E+03  2.17396E+04
 -1.41125E+04  8.10156E+03 -1.16856E+04 -7.67830E+03  6.06996E+03 -1.07450E+04  1.89076E+04  5.49252E+03
  1.35100E+04  2.28861E+04 -5.51454E+03  2.65274E+04 -2.30301E+04  1.22991E+04 -3.01906E+04 -4.54069E+03
 -2.56960E+04 -1.71703E+04 -1.05287E+04 -2.50697E+04  5.15493E+03 -2.34431E+04  1.97161E+04 -2.19754E+04
  3.11941E+04 -1.59786E+04  3.63076E+04  4.38095E+03  2.60805E+04  2.41897E+04  5.04617E+03  4.01470E+04
 -1.95270E+04  3.24160E+04 -3.01919E+04  1.13952E+04 -2.20655E+04 -1.13818E+04 -4.42922E+03 -1.38285E+04
  5.88489E+02 -1.61682E+03 -8.26416E+03  8.20842E+03 -1.99219E+04  5.65679E+03 -1.92663E+04 -8.97243E+03
 -1.13974E+04 -2.05986E+04  5.37018E+03 -2.78921E+04  1.79827E+04 -2.01888E+04  2.02592E+04 -8.94639E+02
  1.28313E+04  1.44708E+04 -1.22751E+03  2.21315E+04 -1.55326E+04  1.30456E+04 -2.12088E+04 -3.45787E+03
 -1.63323E+04 -1.91636E+04 -3.34330E+03 -2.59735E+04  1.13015E+04 -2.28035E+04  2.19585E+04 -1.09363E+04
  2.15419E+04 -1.47451E+03  1.50726E+04  5.30660E+03  7.98379E+03  5.87564E+02  1.04848E+04 -2.84575E+03
  1.92487E+04  1.74878E+03  2.26239E+04  1.71376E+04  1.53910E+04  3.60124E+04 -2.12707E+03  3.97213E+04
 -2.23902E+04  3.43245E+04 -3.87830E+04  1.62866E+04 -4.07635E+04 -2.78761E+03 -3.51153E+04 -2.33335E+04
 -1.26523E+04 -3.34437E+04  1.19314E+04 -2.96299E+04  2.57224E+04 -1.33396E+04  2.29559E+04  6.16945E+03
  9.96157E+03  1.78822E+04 -1.04535E+04  1.50837E+04 -1.80572E+04  4.09739E+03 -1.33452E+04 -1.28608E+04
 -1.37670E+03 -1.87709E+04  8.22905E+03 -1.30046E+04  1.30552E+04 -6.46470E+02  2.53513E+03  7.46747E+03
 -9.04154E+03  4.17436E+03 -8.14164E+03 -6.49423E+03 -6.00361E+02 -1.49224E+04  1.00602E+04 -1.76568E+04
  2.13259E+04 -8.67750E+03  2.10574E+04  3.43397E+03  2.09739E+04  1.86920E+04  9.21494E+03  2.61975E+04
 -5.14830E+03  2.87498E+04 -1.79759E+04  1.76553E+04 -2.01564E+04  3.47680E+03 -1.38412E+04 -6.16505E+03
 -6.60597E+03 -6.44808E+03  2.41840E+02  1.13302E+03 -2.27817E+03  3.32304E+03 -7.53497E+03  6.06001E+03
 -1.18163E+04 -8.70214E+02 -1.32824E+04 -1.07197E+04 -5.32066E+03 -1.77196E+04  5.89730E+03 -1.51651E+04
  1.17714E+04 -6.00403E+03  8.16423E+03  4.31449E+03  6.07077E+02  5.05202E+03 -6.22058E+03  7.10899E+02
 -4.69924E+03 -8.83196E+03 -1.38439E+03 -1.41466E+04  8.04742E+03 -1.49678E+04  1.88075E+04 -9.31740E+03
  2.13770E+04  1.22439E+03  1.58393E+04  1.27815E+04  3.77094E+03  1.74116E+04 -9.10042E+03  1.35059E+04
 -1.20907E+04  4.41927E+03 -5.71585E+03 -1.08218E+03  1.39285E+03 -3.91832E+03  8.16429E+03 -1.00961E+03
  7.59900E+03  6.96271E+03  2.84316E+03  1.08274E+04 -8.29165E+03  1.08150E+04 -1.58038E+04  1.74543E+03
 -9.86949E+03 -6.43396E+03  5.37846E+02 -1.31630E+04  8.39463E+03 -6.62439E+03  9.66215E+03  2.77153E+03
  5.60765E+02  1.06321E+04 -6.88605E+03  1.07603E+04 -1.16790E+04  3.92988E+03 -1.13363E+04 -3.81611E+03
 -7.38151E+03 -1.36378E+04  3.56094E+03 -1.61170E+04  1.42303E+04 -9.45611E+03  1.44429E+04  3.47335E+03
  9.83489E+03  1.11338E+04 -9.72190E+02  1.46907E+04 -1.04017E+04  7.63407E+03 -1.15003E+04 -1.69830E+03
 -9.92959E+03 -1.00840E+04 -1.11618E+03 -1.20739E+04  4.00455E+03 -8.62025E+03  6.82538E+03 -3.25137E+03
  3.69276E+03  2.51070E+03 -4.91661E+02  1.77927E+03  1.85291E+02 -2.13867E+03  2.99114E+03 -6.12293E+03
  9.78506E+03 -4.80791E+03  1.58660E+04  2.21643E+03  1.28842E+04  9.88173E+03  9.48867E+03  1.84077E+04
 -5.47036E+03  2.11828E+04 -1.77209E+04  1.54124E+04 -2.47714E+04  3.13471E+03 -1.76501E+04 -6.88020E+03
 -1.05148E+04 -1.46731E+04 -2.25167E+03 -1.29872E+04  2.22887E+03 -6.27921E+03  5.64588E+03 -5.47531E+03
  3.62607E+03 -2.75738E+03  4.30623E+03 -3.59914E+03  5.54199E+03 -1.40913E+03  6.31030E+03 -1.21993E+03
  9.23431E+03  2.17670E+03  5.38633E+03  8.67852E+03 -3.29331E+03  8.88347E+03 -1.13913E+04  7.36140E+03
 -1.27564E+04 -1.51179E+03 -6.65593E+03 -8.35538E+03 -1.07826E+03 -1.43701E+04  8.21411E+03 -1.34355E+04
  1.42306E+04 -5.80553E+03  1.67583E+04  2.42429E+03  1.27010E+04  1.18287E+04  2.46929E+03  1.53149E+04
 -6.51642E+03  1.29660E+04 -9.68097E+03  5.24102E+03 -5.12808E+03 -1.41237E+03 -3.16538E+03 -3.27821E+03
 -1.88860E+03  7.37779E+02 -1.34172E+03  2.36212E+03 -5.76898E+03  9.82455E+02 -8.48078E+03 -2.20437E+03
 -5.52019E+03 -8.98874E+03 -7.99955E+02 -1.20855E+04  8.44942E+03 -1.29744E+04  1.27431E+04 -3.73677E+03
  1.38511E+04  6.16386E+03  6.06230E+03  1.04877E+04 -3.67936E+03  1.47611E+04 -9.24299E+03  6.28402E+03
 -1.18128E+04  2.31952E+03 -8.90488E+03 -7.97144E+03 -7.12016E+02 -8.93274E+03  6.40207E+03 -9.52738E+03
  7.00910E+03 -2.45119E+03  6.20019E+03  5.65119E+02  3.17786E+03  3.41700E+03  2.18643E+02  3.21474E+03
  2.03832E+03  3.70684E+02  2.66952E+03  1.99042E+03  3.84222E+03  5.85373E+03  2.26071E+03  6.61544E+03
 -2.89571E+03  9.19584E+03 -7.60850E+03  9.45795E+03 -1.27964E+04  2.20521E+03 -1.33430E+04 -4.25778E+03
 -6.58541E+03 -1.31445E+04  1.48557E+03 -1.38405E+04  8.25397E+03 -9.76213E+03  9.96192E+03 -2.29422E+03
  8.51646E+03  5.76187E+03  3.16304E+03  6.48636E+03 -3.21888E+03  4.54462E+03 -5.03019E+03 -1.02290E+02
 -2.07364E+03 -3.86538E+03  2.29372E+03 -5.97630E+03  4.09801E+03 -3.07027E+03  3.80281E+03  7.64395E+02
  2.04420E+03  1.89324E+03  4.24845E+02  2.89320E+03 -1.36697E+03  3.61252E+03  1.94785E+03 -8.89420E+02
  4.87341E+02  9.33502E+01  5.53762E+03  1.79187E+03  2.83521E+03  7.50495E+03  3.69189E+01  1.01486E+04
 -6.63178E+03  5.52569E+03 -1.05635E+04  1.74582E+03 -7.18867E+03 -2.81698E+03 -1.74165E+03 -4.87645E+03
  9.74381E+02 -6.83972E+03  3.22762E+03 -2.89703E+03  2.86438E+03  1.32988E+03 -1.37457E+03  2.66636E+03
 -4.90023E+03  2.41050E+03 -5.27738E+03 -3.53196E+03 -1.99337E+03 -7.29589E+03  7.80317E+02 -7.57802E+03
  2.48045E+03 -3.41802E+03  5.63979E+03  9.87194E+01  4.58196E+03  2.09989E+03  8.29646E+02  3.89916E+03
 -2.82280E+03  3.36513E+02 -3.14699E+03 -2.65376E+03  1.07846E+03 -5.29482E+03  7.30538E+03 -4.63880E+03
  6.12219E+03  1.98780E+03  8.58154E+03  5.37578E+03  3.80229E+03  7.70296E+03 -2.27876E+03  7.93366E+03
 -8.12122E+03  2.93353E+03 -7.81204E+03 -1.55595E+03 -5.60870E+03 -5.92079E+03  1.24917E+03 -5.81527E+03
  3.47071E+03 -2.03233E+03  4.74397E+03  1.39451E+03  2.03962E+03  4.85832E+03 -6.85624E+02  5.14672E+03
 -2.15098E+03  1.86266E+03 -2.16623E+03  3.26700E+03 -1.27523E+03  8.55377E+02 -1.84937E+03  1.63761E+03
 -1.64358E+03  4.70225E+03 -6.18045E+03  2.24276E+03 -8.95143E+03  3.19072E+02 -9.04496E+03 -6.08805E+03
 -4.24455E+03 -1.02847E+04  2.01845E+03 -1.33173E+04  7.21944E+03 -1.11046E+04  1.08436E+04 -3.18848E+03
  1.10163E+04  1.71869E+03  7.48436E+03  7.48632E+03  7.15612E+02  8.07396E+03 -4.05961E+03  6.38015E+03
 -5.51822E+03  3.06126E+03 -2.88922E+03 -2.19024E+03 -1.66102E+03 -1.09337E+03 -4.95771E+02 -3.51754E+01
 -1.84433E+03  1.55155E+03 -1.40397E+03  9.41642E+02 -2.06490E+02 -2.25725E+03  1.54356E+02 -3.17114E+03
  2.87246E+03 -3.80584E+03  6.26500E+03  2.67208E+02  6.43645E+03  4.91939E+03  2.31293E+03  8.90002E+03
 -5.77513E+03  9.11290E+03 -7.34743E+03  7.18749E+03 -1.04562E+04 -1.46938E+03 -7.48532E+03 -7.64040E+03
 -4.06024E+03 -9.14941E+03  2.30069E+03 -1.03647E+04  5.56630E+03 -4.22409E+03  6.51635E+03  8.06320E+02
  2.43562E+03  4.50554E+03 -1.86108E+02  3.65724E+03 -1.71572E+03  3.00518E+02  1.46161E+03 -2.45159E+03
  3.71792E+03  5.27540E+02  3.43307E+03  2.09739E+03  4.42519E+02  3.61036E+03  9.26795E+02  4.52040E+03
 -4.14967E+03  5.30383E+03 -5.49594E+03  1.40922E+02 -4.56193E+03 -3.86781E+03  2.04948E+02 -6.48944E+03
  1.75733E+03 -6.06599E+03  7.38894E+03 -1.24388E+03  5.98427E+03  7.45403E+02  3.43186E+03  4.96048E+03
  2.07462E+03  5.20169E+03 -1.36618E+03  4.12297E+03 -3.45937E+03  2.88354E+03 -1.92740E+03 -4.52223E+02
 -2.00550E+03 -5.07634E+02 -2.27269E+03  2.19900E+03 -3.84863E+03  1.02103E+03 -3.58495E+03 -1.36437E+02
 -4.35361E+03 -1.56819E+03 -2.36880E+03 -6.08429E+03  2.30756E+03 -5.69681E+03  5.01837E+03 -3.63709E+03
  5.00633E+03  1.80199E+03  3.31595E+03  4.67161E+03  2.13652E+02  4.78454E+03 -3.85966E+03  2.97680E+03
