 $NMID ID='MM_0lb_SNR200_19hz_g50_34.RAW', FMTDAT='(8E13.5)'
 TRAMP=1., VOLUME=1. $END
  3.09865E+05  9.79133E+02  3.36539E+05  2.50616E+05  8.44245E+04  3.37989E+05 -1.32698E+05  2.49574E+05
 -1.90920E+05  8.24032E+04 -1.10712E+05 -3.21948E+04  1.97805E+03 -4.97480E+04  5.38378E+04  7.07541E+02
  3.51595E+04  5.28292E+04 -1.61585E+04  7.59874E+04 -6.03913E+04  6.22884E+04 -8.29812E+04  3.13709E+04
 -7.97427E+04 -1.09107E+04 -5.62706E+04 -4.98377E+04 -1.53141E+04 -6.82977E+04  2.60373E+04 -4.48440E+04
  3.89622E+04  4.09432E+03  1.63244E+04  4.68602E+04 -3.35124E+04  4.55940E+04 -6.59543E+04 -6.31467E+02
 -5.20789E+04 -5.62236E+04 -6.97089E+03 -7.51889E+04  3.32003E+04 -5.25746E+04  4.59655E+04 -1.71692E+04
  4.20377E+04  1.08101E+04  3.10389E+04  2.36488E+04  1.48005E+04  2.84832E+04 -4.33670E+03  2.60940E+04
 -2.20292E+04  1.23645E+04 -1.86702E+04 -4.89425E+03  5.56589E+03 -7.20204E+03  2.12495E+04  1.07880E+04
  6.36922E+03  3.35846E+04 -3.06761E+04  3.48590E+04 -6.09921E+04  2.40467E+03 -5.59468E+04 -4.17540E+04
 -1.21751E+04 -6.04395E+04  3.84264E+04 -4.37976E+04  5.52177E+04 -2.09124E+03  3.20039E+04  3.16321E+04
 -6.86785E+03  3.23834E+04 -2.86944E+04  1.34991E+04 -2.81225E+04 -4.25339E+03 -1.49488E+04 -1.01839E+04
 -6.83917E+03 -1.17529E+04 -1.69964E+03 -1.65978E+04  7.06963E+03 -2.29684E+04  1.52535E+04 -1.34017E+04
  1.23476E+04  3.71251E+03 -5.64787E+03  1.33610E+04 -1.93124E+04 -2.53645E+03 -8.39822E+03 -3.12986E+04
  2.09707E+04 -4.11511E+04  4.49750E+04 -1.87972E+04  4.30503E+04  1.93437E+04  1.38953E+04  4.18804E+04
 -1.52211E+04  3.05704E+04 -2.23264E+04  1.15221E+03 -8.89366E+03 -2.74012E+04  1.95336E+04 -3.10592E+04
  3.82924E+04 -7.20450E+03  3.16395E+04  2.33267E+04  1.49569E+04  4.21287E+04 -8.13076E+03  4.47021E+04
 -2.78663E+04  3.00395E+04 -3.78280E+04  7.69920E+03 -3.88562E+04 -1.43781E+04 -2.00939E+04 -3.42440E+04
  7.47430E+03 -3.42330E+04  2.89972E+04 -1.33127E+04  2.68783E+04  1.07014E+04  2.44559E+03  1.85184E+04
 -1.35206E+04  6.83804E+03 -9.93210E+03 -7.50971E+03  5.43475E+03 -1.04486E+04  1.71098E+04  5.36667E+03
  1.26187E+04  2.21642E+04 -6.35170E+03  2.37244E+04 -2.19938E+04  1.04560E+04 -2.45589E+04 -6.40310E+03
 -1.62225E+04 -1.62799E+04 -5.52581E+03 -1.63671E+04  4.04831E+03 -1.60010E+04  1.21447E+04 -1.46561E+04
  2.17679E+04 -1.17561E+04  2.76842E+04  1.26747E+03  2.18168E+04  1.65391E+04  4.31074E+03  3.27606E+04
 -1.59248E+04  2.75977E+04 -2.56980E+04  8.71440E+03 -1.86714E+04 -9.71813E+03 -3.79028E+03 -1.51257E+04
  2.33576E+03 -4.40008E+03 -2.62196E+03  5.29980E+03 -1.25448E+04  5.15937E+03 -1.36368E+04 -5.05702E+03
 -8.72747E+03 -1.54828E+04  4.94847E+03 -1.88528E+04  1.26260E+04 -1.41947E+04  1.42676E+04 -2.16649E+03
  8.97279E+03  1.15059E+04 -8.11840E+02  1.65303E+04 -1.02696E+04  8.33912E+03 -1.54906E+04 -3.61179E+03
 -1.22261E+04 -1.41654E+04 -1.26712E+03 -1.94128E+04  8.96506E+03 -1.58824E+04  1.56880E+04 -6.29073E+03
  1.49414E+04  9.28834E+02  1.14024E+04  3.18165E+03  4.88105E+03  1.33405E+03  6.38169E+03 -1.44170E+03
  1.35187E+04  4.12446E+03  1.48294E+04  1.23014E+04  8.93425E+03  2.32971E+04 -2.82505E+03  2.60009E+04
 -1.63275E+04  2.03705E+04 -2.51462E+04  1.00513E+04 -2.43218E+04 -3.11183E+03 -2.25174E+04 -1.50922E+04
 -1.00044E+04 -2.12152E+04  5.20249E+03 -1.76635E+04  1.66628E+04 -1.05430E+04  1.66471E+04  3.96909E+03
  6.43686E+03  9.86029E+03 -6.57398E+03  1.14958E+04 -1.28997E+04  2.93998E+03 -1.10469E+04 -7.76837E+03
  4.71877E+02 -1.18953E+04  7.00345E+03 -8.72463E+03  8.05123E+03 -1.77547E+03  2.38356E+03  4.91270E+03
 -5.49268E+03  2.05665E+03 -4.07454E+03 -5.17015E+03  1.11088E+03 -1.07272E+04  7.99766E+03 -8.74694E+03
  1.28889E+04 -5.32648E+03  1.13822E+04  3.84643E+03  9.88255E+03  8.67018E+03  5.91251E+03  1.40764E+04
 -1.11010E+03  1.66081E+04 -9.45446E+03  9.97056E+03 -1.11876E+04  2.71393E+03 -8.09718E+03 -2.90481E+03
 -4.76118E+03 -4.55020E+03  6.47534E+01  1.22619E+03 -2.04701E+03  1.55277E+03 -4.02563E+03  3.67682E+03
 -7.43820E+03 -1.02468E+02 -9.20807E+03 -5.99403E+03 -3.13126E+03 -1.11969E+04  4.15231E+03 -8.15692E+03
  6.69836E+03 -3.41292E+03  5.44246E+03  1.64356E+03  8.43934E+02  2.92349E+03 -3.15497E+03 -1.65247E+01
 -3.45277E+03 -4.90437E+03 -1.08352E+02 -6.57365E+03  3.90572E+03 -7.99751E+03  1.04248E+04 -3.95994E+03
  1.18918E+04  1.29027E+03  8.00803E+03  6.11929E+03  2.11739E+03  8.58311E+03 -5.50690E+03  8.32149E+03
 -6.66209E+03  2.29832E+03 -2.42887E+03 -3.07954E+02  1.30583E+03 -2.35454E+03  4.33588E+03 -1.85544E+03
  3.75287E+03  3.30272E+03  1.53610E+03  6.59831E+03 -3.66850E+03  5.83014E+03 -9.12670E+03  3.06619E+03
 -3.90833E+03 -3.79186E+03 -2.58474E+02 -6.07387E+03  3.11790E+03 -3.12051E+03  3.41496E+03  9.84026E+02
 -3.60651E+02  4.00576E+03 -4.59882E+03  5.14010E+03 -4.70819E+03  2.49820E+03 -3.27766E+03 -1.64017E+03
 -2.18360E+03 -6.37417E+03  1.00200E+03 -7.68592E+03  5.90480E+03 -4.42876E+03  6.26959E+03  1.47703E+03
  4.51952E+03  4.44223E+03  3.89841E+02  7.35952E+03 -5.69327E+03  4.08726E+03 -4.49730E+03 -6.00823E+02
 -4.98529E+03 -5.25159E+03 -4.89136E+02 -4.98237E+03  3.04648E+03 -4.59380E+03  2.94334E+03 -2.83928E+03
  2.70740E+03 -4.59573E+02  2.90375E+02  7.82934E+02 -1.81524E+02  3.08377E+02  3.47144E+01 -6.91893E+02
  2.44130E+03  1.10380E+02  5.65594E+03  1.04832E+03  5.05482E+03  1.62262E+03  5.32861E+03  7.24704E+03
 -1.09423E+03  6.67168E+03 -8.36581E+03  6.63483E+03 -9.50632E+03  1.50770E+02 -7.10517E+03 -3.03520E+03
 -4.06108E+03 -6.68815E+03 -7.71816E+01 -5.57402E+03  1.81220E+03 -2.86621E+03  1.78057E+03 -2.29319E+03
  4.98616E+02 -1.33013E+03  2.12326E+03 -2.21341E+03  4.15628E+03 -2.91083E+02  3.40065E+03  1.22674E+03
  4.22516E+03  1.20798E+03  1.35950E+03  3.43660E+03 -1.20994E+03  2.33246E+03 -3.99528E+03  1.98044E+03
 -4.87344E+03 -1.14055E+03 -1.52354E+03 -2.39125E+03  4.71270E+02 -4.21913E+03  2.25636E+03 -4.55638E+03
  5.29495E+03 -2.93586E+03  6.15926E+03  6.66904E+02  4.76494E+03  4.25191E+03  1.23552E+03  5.82299E+03
 -1.54218E+03  5.07042E+03 -3.64543E+03  1.80445E+03 -1.31310E+03 -8.33466E+02 -7.13269E+01 -7.86822E+02
 -7.35635E+02  4.14637E+02 -1.25299E+03  2.92974E+03 -1.94295E+03  1.19084E+03 -4.21048E+03 -5.11785E+02
 -2.34426E+03 -4.19565E+03 -6.57216E+02 -4.57478E+03  2.34025E+03 -5.44955E+03  3.03690E+03 -6.21136E+02
  3.22624E+03  1.67907E+03  1.73741E+03  2.88176E+03 -1.39228E+03  4.12910E+03 -2.41095E+03  3.21664E+03
 -2.89258E+03  7.51235E+02 -3.19468E+03 -2.61928E+03 -4.94387E+02 -2.45982E+03  1.57941E+03 -2.97264E+03
  2.73408E+03 -1.09267E+03  1.90307E+03 -2.48003E+02 -8.03218E+02  2.08397E+03  1.18454E+03  1.68079E+02
  1.35974E+03  5.98526E+02  1.20324E+03  2.06432E+03  4.94684E+02  1.84202E+03  1.91204E+03  1.35777E+03
 -8.92017E+02  2.65034E+03 -2.10578E+03  4.29034E+03 -3.28335E+03  1.29059E+03 -3.09988E+03  9.27633E+02
 -1.13251E+03 -3.25127E+03  1.69913E+03 -4.41142E+03  1.53370E+03 -2.53510E+03  3.22484E+03 -1.47443E+03
  2.13243E+03  6.03868E+02  2.67983E+02  1.53787E+03 -6.54282E+02  8.94721E+02 -5.83894E+02 -8.01764E+02
 -8.78724E+02 -6.69767E+02  1.53076E+03 -4.95404E+02  2.09797E+03  1.14990E+02  7.27694E+02 -2.32845E+02
 -1.11035E+02  3.76420E+02  6.72470E+02 -1.15441E+03  4.55213E+02  3.61989E+02  2.29131E+03  2.71406E+02
  1.21311E+02  4.16851E+02  1.38244E+03  1.76383E+02 -6.32907E+02  2.68806E+03 -6.50565E+01  2.66367E+03
 -1.29613E+03  1.06483E+03 -1.01748E+02  1.77386E+02 -2.55929E+03 -7.96633E+00  5.75445E+02 -4.71987E+02
  1.07442E+03 -1.75497E+02  1.31656E+03 -1.12359E+03  2.92458E+01  1.47565E+03 -3.89679E+02  1.39660E+03
 -1.36212E+03  1.12913E+03 -1.15983E+03 -1.52881E+03 -1.32845E+03 -7.90130E+02 -1.77925E+02 -1.83437E+03
  1.19557E+03 -2.64675E+02  1.09411E+02  3.29252E+02  2.15358E+03  3.38361E+02  6.40563E+02  7.28899E+02
 -1.16917E+03 -4.38039E+02 -1.26097E+03 -1.66185E+02  3.56559E+02 -3.87622E+00  2.04243E+03 -1.03919E+03
  6.01018E+02  8.81488E+02  2.61736E+03  1.00905E+03  1.05654E+03  1.84719E+03 -1.63956E+02  8.32607E+02
 -1.43255E+03  3.06964E+02 -1.23400E+03  6.96145E+02 -1.00271E+03 -1.35409E+03  9.52405E+02 -1.35942E+03
  1.90684E+03 -9.27019E+02  8.84771E+02  4.15675E+02 -1.21470E+02  1.33110E+03 -8.11758E+02  4.70151E+02
 -5.64186E+02  1.27785E+03 -2.71000E+02 -2.03093E+02 -5.83789E+02  5.79411E+02 -1.17489E+03  1.07451E+03
 -7.08308E+02  5.69028E+02 -1.52087E+03 -3.90484E+01 -1.47207E+03  4.87042E+02 -2.26237E+03  2.08885E+02
 -3.45273E+02 -2.52934E+03  6.10261E-01 -3.75850E+03  9.94756E+02 -2.54549E+03  2.64452E+03  2.94985E+02
  3.18926E+03  2.33001E+02 -2.50311E+02  1.38253E+03 -1.02983E+03  1.11770E+03  2.20237E+02  9.00018E+02
 -4.13398E+02  5.45404E+02 -1.11110E+03 -2.07784E+02  8.21047E+02  1.91248E+02 -8.90574E+02  9.99130E+02
 -1.34853E+03  3.00934E+02  8.38227E+01  5.40843E+01  5.58418E+02 -1.17441E+03 -9.39759E+02 -1.74872E+03
  1.78290E+02  2.32999E+02  3.79184E+02 -1.68439E+02  6.79351E+02  5.08061E+02 -3.05465E+02  1.51366E+03
 -9.81316E+02  1.70650E+03 -9.47272E+02  5.30977E+02 -7.52075E+02 -1.28892E+03 -1.05242E+03 -1.35425E+03
 -1.15840E+03 -1.08621E+02  6.52692E+02 -1.53264E+03  7.16050E+01 -1.43487E+03  4.03365E+02 -8.86774E+02
  8.47495E+02 -3.66637E+02  5.72379E+02  2.55897E+02 -1.05253E+03 -3.53979E+02 -3.66824E+02 -2.39084E+02
 -8.23638E+02 -5.85208E+02 -5.97122E+02  5.38088E+02  8.60919E+01 -5.59892E+02  1.08953E+03  3.73714E+02
  1.18032E+02  1.10907E+03 -1.67402E+03 -3.61152E+02 -4.74252E+01  2.00733E+02 -1.60589E+03 -1.71680E+03
  8.48415E+02 -3.25489E+01  5.85389E+02 -4.21582E+02  1.35793E+03  1.95218E+02  2.88824E+02  9.70258E+02
 -2.29808E+02  1.15323E+03 -4.66896E+02  2.55517E+02 -2.95502E+02  6.88025E+02 -9.01490E+02 -1.19315E+02
 -4.31982E+02 -3.90422E+02 -4.25771E+02 -9.55685E+02  6.65783E+02  9.00424E+02 -1.57891E+03 -8.29695E+02
 -8.29311E+02  2.87806E+02 -6.71854E+02 -1.39314E+03  5.36728E+02 -1.17332E+03  1.41963E+02 -4.24231E+02
  1.02518E+03 -3.16712E+02 -1.00796E+03  1.26235E+02 -5.64335E+02  1.00327E+03 -5.47629E+02  4.38569E+02
