 $NMID ID='MM_0lb_SNR200_14hz_g40_100.RAW', FMTDAT='(8E13.5)'
 TRAMP=1., VOLUME=1. $END
  3.09684E+05 -1.07662E+02  3.37317E+05  2.50816E+05  8.58663E+04  3.37528E+05 -1.33845E+05  2.50821E+05
 -1.90094E+05  8.20730E+04 -1.12144E+05 -3.19032E+04 -5.11518E+01 -5.00182E+04  5.38028E+04  3.44183E+02
  3.47431E+04  5.15066E+04 -1.56370E+04  7.53745E+04 -6.05675E+04  6.35335E+04 -8.41861E+04  3.19541E+04
 -7.96606E+04 -1.13399E+04 -5.78904E+04 -5.18876E+04 -1.52497E+04 -6.89622E+04  2.73800E+04 -4.43824E+04
  3.98671E+04  4.37151E+03  1.58635E+04  4.63118E+04 -3.49266E+04  4.53441E+04 -6.70639E+04 -7.85272E+02
 -5.21256E+04 -5.62648E+04 -7.50427E+03 -7.70809E+04  3.36822E+04 -5.58651E+04  4.76412E+04 -1.73539E+04
  4.27783E+04  1.15610E+04  3.22069E+04  2.56137E+04  1.63725E+04  2.89241E+04 -4.24510E+03  2.68553E+04
 -2.01799E+04  1.27169E+04 -1.83910E+04 -4.36504E+03  5.46059E+03 -6.55595E+03  2.17995E+04  1.17813E+04
  6.99610E+03  3.52075E+04 -3.12609E+04  3.69396E+04 -6.24787E+04  2.51857E+03 -5.56663E+04 -4.19567E+04
 -1.23239E+04 -6.35455E+04  3.92074E+04 -4.41358E+04  5.81664E+04 -2.15788E+03  3.32569E+04  3.15605E+04
 -5.48624E+03  3.57685E+04 -2.98762E+04  1.61704E+04 -3.04991E+04 -5.28016E+03 -1.59722E+04 -1.06268E+04
 -9.00592E+03 -1.33890E+04 -1.29992E+03 -1.64846E+04  7.58136E+03 -2.29187E+04  1.45920E+04 -1.41201E+04
  1.18184E+04  4.94016E+03 -6.93477E+03  1.24807E+04 -2.06729E+04 -4.53526E+03 -7.60027E+03 -3.24210E+04
  2.21132E+04 -4.28972E+04  4.71892E+04 -1.85684E+04  4.41850E+04  1.99519E+04  1.50432E+04  4.34696E+04
 -1.66643E+04  3.16591E+04 -2.57203E+04  2.07913E+03 -1.02581E+04 -2.71258E+04  2.21366E+04 -3.39027E+04
  4.00267E+04 -7.70910E+03  3.29396E+04  2.30400E+04  1.67572E+04  4.49697E+04 -7.51485E+03  4.92605E+04
 -3.07098E+04  3.12142E+04 -4.09688E+04  9.95199E+03 -4.31168E+04 -1.56514E+04 -2.35219E+04 -3.72273E+04
  6.88269E+03 -3.69586E+04  3.08995E+04 -1.37479E+04  2.95995E+04  1.11331E+04  2.99801E+03  2.01472E+04
 -1.43847E+04  7.87190E+03 -9.47480E+03 -7.21023E+03  6.96860E+03 -9.34200E+03  1.64869E+04  5.61856E+03
  1.28389E+04  2.24096E+04 -5.48204E+03  2.50661E+04 -2.16221E+04  1.00324E+04 -2.84938E+04 -4.32704E+03
 -1.99004E+04 -1.73823E+04 -6.60537E+03 -1.99228E+04  4.20716E+03 -1.88357E+04  1.54560E+04 -1.64722E+04
  2.47724E+04 -1.24440E+04  3.16099E+04  3.09877E+03  2.37089E+04  1.96373E+04  4.44526E+03  3.49475E+04
 -1.88411E+04  3.02961E+04 -2.68968E+04  1.08114E+04 -2.01478E+04 -1.12135E+04 -2.96564E+03 -1.24453E+04
  9.67491E+02 -3.03190E+03 -3.27186E+03  7.10850E+03 -1.61552E+04  5.27653E+03 -1.51349E+04 -6.89256E+03
 -9.81147E+03 -1.69113E+04  4.22444E+03 -2.22620E+04  1.46216E+04 -1.57165E+04  1.79876E+04 -7.34758E+02
  1.07417E+04  1.24949E+04 -1.63337E+03  1.78164E+04 -1.24354E+04  8.88501E+03 -1.75766E+04 -3.56100E+03
 -1.36280E+04 -1.68883E+04  5.88860E+01 -2.03507E+04  1.00646E+04 -1.83583E+04  1.88836E+04 -9.20656E+03
  1.59983E+04  1.21373E+03  1.30719E+04  4.61118E+03  7.50274E+03  1.66158E+03  9.09636E+03 -1.23570E+03
  1.69428E+04  1.70051E+03  1.77734E+04  1.41258E+04  1.20748E+04  2.99549E+04 -3.92697E+03  3.29722E+04
 -1.89147E+04  2.48710E+04 -3.03035E+04  1.25344E+04 -3.29402E+04 -2.44987E+03 -2.62807E+04 -1.87829E+04
 -1.20840E+04 -2.64476E+04  8.37656E+03 -2.33245E+04  2.07425E+04 -1.21764E+04  1.94608E+04  5.12302E+03
  6.86234E+03  1.43036E+04 -8.18257E+03  1.27981E+04 -1.59672E+04  3.09354E+03 -1.25216E+04 -1.06056E+04
 -7.78708E+02 -1.46478E+04  7.75090E+03 -1.11850E+04  1.07238E+04 -4.69403E+02  2.53617E+03  5.22343E+03
 -5.90872E+03  2.23338E+03 -5.69940E+03 -5.29830E+03 -9.98601E+02 -1.23971E+04  9.57720E+03 -1.28165E+04
  1.50557E+04 -7.31732E+03  1.60771E+04  2.25801E+03  1.42808E+04  1.24158E+04  8.10648E+03  1.86062E+04
 -3.19283E+03  1.99802E+04 -1.45069E+04  1.40103E+04 -1.56753E+04  2.98593E+03 -9.92909E+03 -2.99451E+03
 -5.48823E+03 -5.68058E+03 -1.44707E+03  2.29762E+02 -1.87285E+03  2.85501E+03 -5.12319E+03  4.04431E+03
 -1.04304E+04 -5.90672E+02 -1.20705E+04 -7.84858E+03 -4.22960E+03 -1.40377E+04  4.50128E+03 -1.08672E+04
  7.91917E+03 -4.81005E+03  6.51741E+03  2.48845E+03  1.26436E+03  2.70461E+03 -4.20455E+03  1.39728E+02
 -5.37364E+03 -6.09513E+03 -2.96529E+02 -1.03558E+04  4.82264E+03 -1.08341E+04  1.34704E+04 -6.10088E+03
  1.61931E+04  1.68936E+03  1.16991E+04  9.95034E+03  3.79111E+03  1.20030E+04 -5.61784E+03  9.75567E+03
 -9.43310E+03  4.54120E+03 -4.37119E+03 -3.14490E+03  1.97410E+03 -4.10751E+03  5.56049E+03 -1.20743E+03
  5.09441E+03  4.67206E+03  1.86184E+03  8.23647E+03 -6.54648E+03  7.35295E+03 -1.04512E+04  2.25183E+03
 -6.93021E+03 -5.23099E+03  1.23003E+03 -9.48369E+03  5.48772E+03 -5.42379E+03  5.68732E+03  9.60330E+02
  1.35022E+03  5.50323E+03 -5.29526E+03  5.96621E+03 -7.61501E+03  3.39361E+03 -8.30786E+03 -2.29270E+03
 -3.96268E+03 -9.64468E+03  2.22203E+03 -1.14529E+04  8.89463E+03 -6.97640E+03  9.94347E+03  2.08534E+03
  7.22142E+03  8.85782E+03  4.22142E+02  9.97541E+03 -7.23947E+03  4.83885E+03 -7.67450E+03 -9.38248E+02
 -7.93357E+03 -6.57885E+03 -8.22999E+02 -6.66718E+03  4.17081E+03 -5.39887E+03  4.50761E+03 -2.99585E+03
  3.27345E+03  9.28833E+02 -1.32435E+03  2.27479E+03 -1.31271E+03 -1.21331E+03  2.06239E+02 -4.88844E+03
  4.77940E+03 -2.51841E+03  7.64296E+03  9.87219E+02  9.45836E+03  6.36694E+03  6.65888E+03  1.08059E+04
 -2.52092E+03  1.36546E+04 -1.28656E+04  1.06684E+04 -1.57850E+04  1.78713E+03 -1.13478E+04 -3.88351E+03
 -6.71009E+03 -1.02730E+04  5.68784E+01 -7.72453E+03  3.34283E+03 -4.46658E+03  4.03018E+03 -3.48772E+03
  1.88360E+03 -2.43757E+03  3.43018E+03 -3.21671E+03  5.02916E+03 -2.89985E+03  5.15644E+03 -1.04965E+03
  6.29230E+03  1.42453E+03  1.20673E+03  5.19078E+03 -1.56854E+03  5.17276E+03 -6.33635E+03  4.25203E+03
 -8.46675E+03 -1.93706E+03 -4.30804E+03 -6.18991E+03 -1.72080E+03 -9.20149E+03  4.73472E+03 -8.93242E+03
  9.04550E+03 -4.35777E+03  1.03668E+04  6.66550E+02  6.99560E+03  6.75248E+03  1.43264E+03  9.02863E+03
 -4.00653E+03  8.58987E+03 -4.21606E+03  3.04102E+03 -4.45619E+03 -1.65399E+03 -1.37314E+03 -8.61116E+02
 -2.24490E+03 -7.03703E+02 -1.87567E+03  2.26284E+03 -2.00256E+03  1.97277E+03 -6.07791E+03  3.24328E+02
 -3.56139E+03 -6.51277E+03  5.28880E+02 -7.14686E+03  5.03620E+03 -7.04027E+03  7.12729E+03 -2.53906E+03
  5.61663E+03  4.03322E+03  3.36080E+03  6.36094E+03 -1.64430E+03  6.99106E+03 -4.63939E+03  3.87481E+03
 -7.25328E+03  6.90327E+02 -6.37992E+03 -4.23499E+03 -3.82128E+02 -5.98372E+03  3.18507E+03 -5.34502E+03
  3.58672E+03 -1.14995E+03  3.64410E+03  1.88211E+03  4.22847E+02  2.56280E+03  1.49440E+02  8.33436E+02
  1.96867E+03  3.43558E+02  2.05679E+03  1.77198E+03  2.62068E+03  3.41837E+03  3.21486E+03  2.90870E+03
 -1.13668E+03  5.44729E+03 -4.31817E+03  6.65079E+03 -7.48311E+03  2.01118E+03 -7.56278E+03 -2.45281E+03
 -3.44390E+03 -6.46524E+03  2.43460E+02 -7.48127E+03  3.09652E+03 -4.12205E+03  6.67597E+03 -1.11065E+03
  4.72329E+03  2.97744E+03  1.76952E+03  4.02599E+03 -8.83400E+02  2.35216E+03 -4.53658E+03 -1.12499E+03
 -1.67890E+03 -3.06875E+03  1.73313E+03 -2.10305E+03  3.12354E+03 -1.08333E+03  2.69938E+03 -2.62072E+02
  2.50519E+03  4.44444E+01  5.79875E+02  4.18914E+02 -6.47211E+02  9.33260E+02  3.12261E+03 -1.16768E+03
  2.50669E+02 -1.41219E+02  3.72576E+03  1.70853E+02  1.14610E+02  4.52218E+03 -8.66824E+02  5.66427E+03
 -3.13755E+03  3.94427E+03 -5.21045E+03  6.42145E+02 -4.39709E+03 -1.53118E+03 -1.03140E+03 -1.35802E+03
  7.30228E+02 -1.42672E+03  2.42869E+03 -1.12965E+03  1.32465E+03  1.95621E+03  5.88965E+02  2.33497E+03
 -2.46284E+03  1.72875E+03 -3.90873E+03 -3.01449E+03 -1.74985E+03 -4.76537E+03  6.97330E+02 -3.62086E+03
  1.49425E+03 -2.18911E+03  1.24531E+03  1.24065E+03  3.47283E+03  9.32799E+02 -7.31591E+02  2.60606E+03
 -1.14483E+03 -7.89457E+02 -4.06699E+02 -6.97780E+02  3.84992E+02 -2.53257E+03  3.73891E+03 -2.47503E+03
  4.02546E+03  1.22187E+03  6.14853E+03  2.83474E+03  1.95294E+03  2.25134E+03 -4.17225E+02  3.77617E+03
 -3.59257E+03  2.13957E+03 -3.05323E+03 -7.55876E+02 -2.33042E+03 -2.63600E+03  1.14103E+03 -2.08776E+03
  2.51992E+03 -1.90528E+03  2.06958E+03  2.25151E+03  7.47167E+02  1.61658E+03  9.88449E+02  2.23186E+03
 -7.28250E+02  1.62046E+03 -4.56989E+02 -7.45397E+02 -4.33996E+02  5.94402E+02 -1.02528E+02  1.08235E+03
 -3.55058E+02  1.66133E+03 -3.58966E+03  1.84640E+03 -5.40030E+03  6.55814E+02 -5.40508E+03 -2.52426E+03
 -2.79335E+03 -3.95179E+03 -5.21068E+02 -6.60824E+03  3.54253E+03 -5.70330E+03  5.16920E+03 -1.96412E+03
  5.15552E+03 -2.04273E+02  4.04235E+03  2.46214E+03  5.49854E+02  3.73338E+03 -1.69205E+03  3.33620E+03
 -1.81876E+03  1.52210E+03 -1.66768E+03 -1.50233E+02 -4.30247E+02 -4.98050E+02 -1.79230E+02  3.94931E+02
 -1.24998E+03  1.73623E+02 -1.85453E+03 -1.04543E+03 -1.81670E+02 -1.09356E+02  3.17802E+01 -1.80475E+03
  1.42647E+03 -1.10226E+03  1.76549E+03  8.55789E+02  2.73502E+03  2.57815E+03  1.08960E+03  2.14142E+03
 -1.03964E+03  5.12410E+03 -3.77260E+03  2.29152E+03 -4.88641E+03 -1.17052E+03 -3.30346E+03 -3.23376E+03
 -1.62149E+03 -4.17296E+03  2.72425E+03 -4.04376E+03  2.77669E+03 -1.35481E+03  2.22835E+03  5.45000E+02
  2.60925E+03  7.84069E+01  2.13547E+02  7.09172E+02 -9.63574E+02 -2.17099E+02 -1.15315E+03 -1.62690E+03
  2.47573E+03  6.94203E+02  1.06378E+03  1.39656E+03  1.35803E+03  1.47196E+03  2.26349E+02  1.10116E+03
 -1.43738E+03  2.04288E+03 -1.56330E+03  6.59156E+02 -2.15138E+03 -4.21927E+02  6.11213E+02 -4.51424E+03
  2.59789E+03 -2.24590E+03  2.99397E+03  8.69636E+02  3.52149E+03 -5.00613E+02  2.28345E+03  3.13482E+03
 -1.20580E+03  2.75128E+03 -1.97001E+03  1.60332E+03 -1.24678E+03  1.16432E+03 -2.27241E+03 -9.17450E+01
 -8.80140E+02 -5.94346E+02 -1.25172E+03 -5.20656E+02 -1.76597E+03  1.55922E+03 -1.98359E+03 -4.93043E+02
 -1.55847E+03 -3.12174E+02 -3.09453E+02 -1.52200E+03  1.12341E+03 -1.73097E+03  1.62093E+03 -6.79432E+02
  2.28367E+03  1.82726E+02 -2.91915E+01  2.96139E+02 -3.23494E+02  1.92487E+03 -1.26950E+03  2.79822E+03
