 $NMID ID='MM_0lb_SNR200_7hz_g40_40.RAW', FMTDAT='(8E13.5)'
 TRAMP=1., VOLUME=1. $END
  3.11580E+05  8.96246E+02  3.36685E+05  2.50007E+05  8.57267E+04  3.38897E+05 -1.32401E+05  2.53086E+05
 -1.91874E+05  8.14040E+04 -1.12475E+05 -2.97866E+04  8.68986E+01 -5.01834E+04  5.43967E+04 -6.37926E+02
  3.45200E+04  5.25419E+04 -1.64606E+04  7.48776E+04 -6.15765E+04  6.33418E+04 -8.52481E+04  3.09835E+04
 -8.17784E+04 -1.41201E+04 -5.85380E+04 -5.41618E+04 -1.60801E+04 -6.93247E+04  2.85166E+04 -4.78324E+04
  3.92709E+04  4.25832E+03  1.83423E+04  5.01364E+04 -3.40601E+04  4.84136E+04 -6.73640E+04  1.67875E+03
 -5.53093E+04 -5.95192E+04 -7.68203E+03 -7.94453E+04  3.54172E+04 -6.01561E+04  5.08438E+04 -1.76529E+04
  4.51691E+04  1.09415E+04  3.26732E+04  2.61228E+04  1.50237E+04  3.25337E+04 -5.75085E+03  2.94380E+04
 -2.20038E+04  1.34185E+04 -1.74118E+04 -5.95251E+03  6.42696E+03 -8.07772E+03  2.39806E+04  1.39792E+04
  6.83370E+03  3.96698E+04 -3.52297E+04  3.74872E+04 -6.56752E+04  2.80387E+03 -5.77112E+04 -4.42733E+04
 -1.13532E+04 -6.70127E+04  4.20868E+04 -4.87656E+04  6.14567E+04 -1.58975E+03  3.83297E+04  3.52738E+04
 -6.28581E+03  3.90122E+04 -3.24472E+04  2.02164E+04 -3.24245E+04 -3.39693E+03 -1.95513E+04 -1.23478E+04
 -1.00034E+04 -1.57693E+04 -1.05342E+03 -2.01104E+04  9.60840E+03 -2.40802E+04  1.56110E+04 -1.39190E+04
  1.01669E+04  8.76583E+03 -1.11327E+04  1.31837E+04 -2.42709E+04 -7.56647E+03 -7.54438E+03 -3.91291E+04
  2.76522E+04 -4.76255E+04  5.25644E+04 -2.18251E+04  4.93485E+04  2.06473E+04  1.62857E+04  4.63286E+04
 -1.84760E+04  3.69416E+04 -2.77024E+04  1.99133E+03 -1.00536E+04 -2.94513E+04  2.20217E+04 -3.77657E+04
  4.52605E+04 -1.11470E+04  4.15008E+04  2.61579E+04  2.18975E+04  5.31305E+04 -9.32437E+03  5.85289E+04
 -3.64215E+04  3.87457E+04 -4.81204E+04  1.16952E+04 -5.02900E+04 -2.07283E+04 -2.69740E+04 -4.35641E+04
  8.19382E+03 -4.27930E+04  3.50216E+04 -1.83465E+04  3.30329E+04  1.19587E+04  4.83305E+03  2.27053E+04
 -1.38115E+04  1.06362E+04 -1.17914E+04 -6.36354E+03  6.60294E+03 -1.10855E+04  1.86146E+04  5.46139E+03
  1.51248E+04  2.32446E+04 -6.03654E+03  2.92634E+04 -2.30417E+04  1.51081E+04 -3.21576E+04 -3.88234E+03
 -2.58916E+04 -1.89844E+04 -1.12014E+04 -2.53844E+04  5.59095E+03 -2.97096E+04  2.05209E+04 -2.36561E+04
  3.30197E+04 -1.46283E+04  3.93402E+04  5.36083E+03  2.71348E+04  2.42151E+04  4.31677E+03  4.23204E+04
 -2.01352E+04  3.44791E+04 -3.19179E+04  1.02231E+04 -2.18595E+04 -1.09219E+04 -5.10734E+03 -1.21847E+04
  7.78910E+02  6.06943E+02 -8.71763E+03  9.67722E+03 -2.24382E+04  5.97477E+03 -2.04054E+04 -1.03154E+04
 -1.11732E+04 -2.29375E+04  7.04902E+03 -2.75420E+04  1.91476E+04 -2.29879E+04  2.30899E+04 -1.12805E+03
  1.52521E+04  1.78376E+04 -8.44569E+02  2.47389E+04 -1.58058E+04  1.44699E+04 -2.31895E+04 -3.98491E+03
 -1.87469E+04 -2.28586E+04 -8.28302E+02 -2.82180E+04  1.37434E+04 -2.47712E+04  2.38955E+04 -1.49838E+04
  2.34646E+04 -1.05205E+03  1.86301E+04  4.10503E+03  9.85056E+03  1.45997E+03  1.31939E+04 -7.45099E+02
  2.14998E+04  2.35591E+03  2.48407E+04  2.01205E+04  1.66804E+04  3.80986E+04 -6.38262E+02  4.82655E+04
 -2.79984E+04  4.00652E+04 -4.39756E+04  2.09739E+04 -4.79671E+04 -3.46006E+03 -3.90098E+04 -2.69890E+04
 -1.36088E+04 -3.96884E+04  1.54626E+04 -3.44972E+04  2.95015E+04 -1.80498E+04  2.51231E+04  6.91542E+03
  7.38421E+03  1.93000E+04 -1.24081E+04  1.48802E+04 -2.13318E+04  2.81164E+03 -1.65511E+04 -1.54929E+04
 -2.30465E+02 -1.96453E+04  1.11651E+04 -1.49783E+04  1.56734E+04 -2.97347E+03  2.55041E+03  9.70058E+03
 -9.96597E+03  6.22696E+03 -1.08409E+04 -7.41462E+03  8.54247E+01 -2.11327E+04  1.31634E+04 -2.19752E+04
  2.37946E+04 -1.14719E+04  2.89751E+04  3.96345E+03  2.62804E+04  1.95697E+04  1.02497E+04  3.20787E+04
 -7.18639E+03  3.41894E+04 -2.18928E+04  2.19395E+04 -2.58077E+04  3.49216E+03 -1.74218E+04 -7.93870E+03
 -6.93564E+03 -8.47372E+03 -7.42112E+02  2.41935E+03 -1.16068E+03  4.98958E+03 -9.36073E+03  3.40385E+03
 -1.57637E+04 -3.66204E+02 -1.57611E+04 -1.18179E+04 -6.32125E+03 -2.13667E+04  7.14507E+03 -1.75404E+04
  1.43664E+04 -7.12325E+03  1.01042E+04  5.47278E+03 -7.04169E+02  5.25268E+03 -7.70966E+03 -8.64796E+02
 -8.80895E+03 -1.10386E+04 -8.67732E+02 -1.66416E+04  1.07650E+04 -1.65914E+04  2.16870E+04 -9.41675E+03
  2.46746E+04  3.10750E+03  2.01951E+04  1.52419E+04  3.78105E+03  2.05954E+04 -1.04930E+04  1.77114E+04
 -1.38217E+04  4.51503E+03 -7.27394E+03 -5.62562E+03  2.48773E+03 -4.31353E+03  9.09848E+03 -1.54542E+03
  8.53381E+03  7.01097E+03 -2.57146E+02  1.40147E+04 -1.04181E+04  1.33576E+04 -1.81266E+04  3.83568E+03
 -1.19382E+04 -1.02104E+04  5.03790E+02 -1.53341E+04  9.24241E+03 -8.72079E+03  1.05622E+04  2.34643E+03
  4.22328E+03  1.14699E+04 -9.42051E+03  1.38464E+04 -1.35376E+04  4.40431E+03 -1.69469E+04 -4.77089E+03
 -9.00670E+03 -1.77774E+04  3.50067E+03 -2.20301E+04  1.55096E+04 -1.13679E+04  1.92491E+04  3.95192E+03
  1.15221E+04  1.51397E+04 -2.87926E+03  1.69384E+04 -1.33607E+04  1.17347E+04 -1.66173E+04 -9.51981E+02
 -1.35567E+04 -1.30699E+04 -4.70710E+02 -1.27394E+04  6.13754E+03 -1.06022E+04  8.90156E+03 -4.18717E+03
  5.91159E+03  3.27122E+03  3.98421E+02  2.20066E+03 -2.76426E+02 -2.50850E+03  2.61354E+03 -7.82443E+03
  1.27795E+04 -5.64529E+03  2.02153E+04  4.00505E+03  1.82575E+04  1.21808E+04  1.22066E+04  2.56590E+04
 -4.59775E+03  2.80265E+04 -2.23260E+04  2.04466E+04 -2.97193E+04  4.47945E+03 -2.60682E+04 -1.04204E+04
 -9.71720E+03 -1.73752E+04  7.50961E+02 -1.65255E+04  6.38633E+03 -9.82142E+03  8.14387E+03 -5.72683E+03
  3.94383E+03 -3.82541E+03  4.32618E+03 -2.17266E+03  5.32192E+03 -5.44346E+03  7.66282E+03 -2.73131E+03
  1.13260E+04  3.02889E+03  6.05913E+03  1.20213E+04 -4.72494E+02  1.35414E+04 -1.34941E+04  8.98698E+03
 -1.83165E+04 -4.13047E+02 -1.28110E+04 -1.27650E+04 -1.22295E+02 -1.88392E+04  9.98492E+03 -1.86884E+04
  1.99796E+04 -1.15301E+04  2.15069E+04  2.43393E+03  1.60455E+04  1.90046E+04  1.60845E+03  1.97040E+04
 -8.43463E+03  1.72903E+04 -1.19113E+04  4.78220E+03 -8.75061E+03 -3.22197E+03 -1.79949E+03 -2.50168E+03
 -1.82629E+03 -1.95318E+03 -2.75945E+03  4.44605E+03 -7.35504E+03  9.70983E+02 -1.23722E+04 -3.95739E+03
 -8.38782E+03 -1.01163E+04  1.41536E+02 -1.68208E+04  1.16515E+04 -1.56622E+04  1.77994E+04 -5.80662E+03
  1.62425E+04  1.02444E+04  7.30028E+03  1.57526E+04 -2.72914E+03  1.70926E+04 -1.27715E+04  1.11996E+04
 -1.46278E+04  6.47315E+02 -1.25679E+04 -8.41034E+03 -2.31569E+03 -1.60497E+04  7.48441E+03 -1.04297E+04
  9.62620E+03 -2.54046E+03  7.68407E+03  2.98393E+03  2.23702E+03  5.55589E+03  1.23441E+03  2.32933E+03
  4.02070E+03  2.14052E+03  5.30476E+03  1.33362E+03  5.53740E+03  6.30610E+03  3.65507E+03  8.66653E+03
 -2.10464E+03  1.65769E+04 -1.12185E+04  1.24617E+04 -1.85254E+04  4.56709E+03 -1.78183E+04 -7.12651E+03
 -8.19985E+03 -1.92637E+04  2.04482E+03 -1.90887E+04  1.10954E+04 -1.20937E+04  1.43283E+04 -3.80468E+03
  1.17639E+04  6.35629E+03  3.09447E+03  1.09407E+04 -4.57562E+03  5.40103E+03 -7.21833E+03 -2.49133E+02
 -3.85011E+03 -7.82463E+03  3.14710E+03 -8.12719E+03  8.62397E+03 -5.59180E+03  6.25874E+03  2.34115E+03
  4.00302E+03  1.17614E+03  2.21290E+03  3.53448E+03 -6.26265E+02  3.33419E+03  1.63487E+03 -9.17847E+02
  4.33128E+03 -2.59262E+03  5.67292E+03  3.54607E+03  5.48789E+03  7.28872E+03 -1.62880E+03  1.24740E+04
 -9.73749E+03  9.74372E+03 -1.19101E+04  1.15182E+03 -1.14794E+04 -2.47014E+03 -3.80775E+03 -8.43784E+03
  1.86414E+03 -8.07643E+03  4.97362E+03 -3.90073E+03  4.91873E+03  3.98793E+03 -9.63289E+02  5.77352E+03
 -8.01415E+03  5.09395E+03 -9.98430E+03 -5.54607E+03 -5.94448E+03 -9.16905E+03  5.48487E+02 -1.08891E+04
  6.76124E+03 -4.98333E+03  8.90442E+03 -1.23415E+03  7.82571E+03  3.47257E+03  1.22922E+03  5.87006E+03
 -2.15613E+03  2.61673E+03 -5.14484E+03 -4.27936E+03  2.63329E+03 -8.97518E+03  1.01312E+04 -6.52429E+03
  1.21513E+04  9.90535E+02  1.25085E+04  8.14286E+03  3.40797E+03  1.25592E+04 -3.49925E+03  1.29774E+04
 -1.10071E+04  4.31119E+03 -1.14343E+04 -3.00109E+03 -4.36344E+03 -8.15664E+03  2.00568E+03 -8.72853E+03
  7.22207E+03 -3.70364E+03  5.88188E+03  3.05444E+03  1.80128E+03  5.47580E+03 -1.98157E+03  7.07623E+03
 -3.70439E+03  5.45611E+03 -3.14894E+03  2.13545E+02 -3.03219E+03  1.26677E+03 -4.23434E+02  3.43021E+03
 -4.01352E+03  5.31399E+03 -7.21924E+03  4.23428E+03 -1.25970E+04  1.22246E+03 -1.33737E+04 -9.44535E+03
 -6.92874E+03 -1.64943E+04  2.73397E+03 -1.94263E+04  1.21813E+04 -1.66528E+04  1.88171E+04 -4.91577E+03
  1.63132E+04  4.63696E+03  1.16023E+04  1.25442E+04  5.10576E+02  1.37101E+04 -4.73209E+03  9.54755E+03
 -6.13735E+03  3.43715E+03 -5.36688E+03 -1.04603E+03 -2.70947E+03 -4.17265E+01 -1.28484E+02  4.34400E+02
 -2.86262E+03  8.46416E+02 -4.24631E+03 -8.51385E+01 -2.46780E+03 -3.08197E+03 -1.01185E+03 -4.81681E+03
  6.81381E+03 -4.19961E+03  8.01597E+03 -8.36838E+02  9.20950E+03  6.63566E+03  4.97740E+03  1.46122E+04
 -6.54071E+03  1.61530E+04 -1.50946E+04  8.08738E+03 -1.63409E+04 -1.33957E+03 -1.21781E+04 -9.80540E+03
 -6.22705E+03 -1.44187E+04  4.16987E+03 -1.38819E+04  9.23039E+03 -5.67852E+03  9.01484E+03  1.01383E+03
  4.95640E+03  4.12218E+03 -2.03100E+02  4.08038E+03 -2.90030E+03 -1.71610E+02  1.35869E+03 -1.56815E+03
  3.45736E+03 -2.12513E+03  6.31703E+03  2.68362E+03  3.39638E+03  5.56502E+03 -1.97192E+01  8.19007E+03
 -6.90487E+03  6.83730E+03 -9.79751E+03  1.52291E+03 -8.18490E+03 -6.23683E+03 -1.82435E+03 -1.11241E+04
  6.86775E+03 -1.00087E+04  1.19309E+04 -1.38048E+03  1.16418E+04  2.84995E+03  5.28343E+03  9.70522E+03
 -1.44832E+03  8.83923E+03 -5.75352E+03  8.41590E+03 -6.09899E+03  4.84712E+03 -5.02406E+03  7.29005E+02
 -1.73798E+03 -2.59577E+03 -2.85487E+03  1.67753E+03 -3.19038E+03  1.20495E+03 -6.58304E+03 -3.28852E+02
 -6.07337E+03 -5.58737E+03 -2.04887E+03 -8.45072E+03  4.23587E+03 -1.02387E+04  7.25184E+03 -3.79125E+03
  1.04034E+04  1.18776E+03  5.39198E+03  8.89573E+03 -7.26505E+02  1.09472E+04 -8.09988E+03  7.34260E+03
