 $NMID ID='MM_0lb_SNR200_13hz_g60_90.RAW', FMTDAT='(8E13.5)'
 TRAMP=1., VOLUME=1. $END
  3.10124E+05  1.15796E+02  3.38767E+05  2.50876E+05  8.59303E+04  3.39273E+05 -1.32932E+05  2.52406E+05
 -1.90778E+05  8.48161E+04 -1.10743E+05 -3.24420E+04  1.48776E+03 -5.00688E+04  5.28247E+04 -4.72049E+01
  3.55478E+04  5.32123E+04 -1.75940E+04  7.62488E+04 -6.06560E+04  6.47404E+04 -8.40599E+04  3.21986E+04
 -8.21905E+04 -1.19835E+04 -5.77282E+04 -5.26003E+04 -1.50838E+04 -7.04767E+04  2.90429E+04 -4.59836E+04
  4.12384E+04  3.70409E+03  1.62711E+04  4.75933E+04 -3.43053E+04  4.69350E+04 -6.75257E+04 -9.55278E+02
 -5.45975E+04 -5.85164E+04 -7.87182E+03 -7.82857E+04  3.48265E+04 -5.57943E+04  4.86241E+04 -1.83165E+04
  4.40653E+04  1.14489E+04  3.43116E+04  2.56470E+04  1.73600E+04  2.96401E+04 -5.48123E+03  2.85736E+04
 -2.26216E+04  1.15769E+04 -1.96622E+04 -4.95437E+03  6.95629E+03 -7.55967E+03  2.27781E+04  1.36723E+04
  6.57315E+03  3.68909E+04 -3.41576E+04  3.53184E+04 -6.24954E+04  1.51276E+03 -5.84807E+04 -4.51922E+04
 -1.19181E+04 -6.56031E+04  4.13351E+04 -4.63024E+04  6.12990E+04 -1.48625E+03  3.55423E+04  3.45020E+04
 -4.88681E+03  3.73840E+04 -3.15528E+04  1.66984E+04 -3.19534E+04 -4.66155E+03 -1.87815E+04 -1.09861E+04
 -8.95431E+03 -1.41232E+04 -8.82068E+02 -1.95125E+04  8.52351E+03 -2.23685E+04  1.50598E+04 -1.37751E+04
  1.14946E+04  5.05556E+03 -9.65820E+03  1.32864E+04 -2.07168E+04 -6.35696E+03 -9.10127E+03 -3.53772E+04
  2.48042E+04 -4.54367E+04  4.94748E+04 -2.05037E+04  4.73519E+04  2.05979E+04  1.69765E+04  4.50978E+04
 -1.55069E+04  3.54343E+04 -2.59013E+04  3.32841E+03 -1.06672E+04 -3.01748E+04  2.19622E+04 -3.43483E+04
  4.23893E+04 -1.00756E+04  3.77647E+04  2.44135E+04  1.95852E+04  4.74043E+04 -7.42452E+03  5.32902E+04
 -3.43975E+04  3.67979E+04 -4.51429E+04  1.09046E+04 -4.49213E+04 -1.76974E+04 -2.45631E+04 -4.03790E+04
  7.38602E+03 -3.93925E+04  3.24936E+04 -1.52739E+04  3.09717E+04  1.18390E+04  5.35371E+03  1.98741E+04
 -1.37065E+04  8.83006E+03 -1.15091E+04 -8.37063E+03  5.56807E+03 -1.09945E+04  1.88981E+04  5.63069E+03
  1.42476E+04  2.23669E+04 -5.54585E+03  2.59134E+04 -2.44741E+04  1.38173E+04 -2.90739E+04 -3.92899E+03
 -2.36777E+04 -1.75910E+04 -9.41018E+03 -2.35176E+04  3.57669E+03 -2.09840E+04  1.88318E+04 -2.18013E+04
  2.72163E+04 -1.33166E+04  3.55173E+04  3.83068E+03  2.57017E+04  2.10530E+04  4.32030E+03  3.83014E+04
 -1.82749E+04  3.26030E+04 -2.89012E+04  1.10317E+04 -2.21633E+04 -1.08320E+04 -4.53942E+03 -1.30989E+04
  5.82546E+02 -1.15237E+03 -6.32274E+03  8.16028E+03 -1.77119E+04  4.89280E+03 -1.71590E+04 -9.21743E+03
 -1.13805E+04 -2.11333E+04  5.68697E+03 -2.55465E+04  1.68453E+04 -1.80546E+04  2.01198E+04 -1.71005E+03
  1.22723E+04  1.42386E+04 -1.09865E+03  1.94013E+04 -1.41104E+04  1.28126E+04 -2.18406E+04 -4.14117E+03
 -1.39351E+04 -1.86510E+04 -1.91357E+03 -2.62501E+04  1.15172E+04 -2.07976E+04  2.08285E+04 -1.15683E+04
  1.89465E+04 -9.23281E+02  1.51884E+04  4.47447E+03  7.60359E+03  1.85471E+03  1.15322E+04 -2.39708E+03
  1.90060E+04  3.10929E+03  2.05672E+04  1.61347E+04  1.37400E+04  3.26566E+04 -2.56661E+03  3.92129E+04
 -2.16425E+04  3.08851E+04 -3.55236E+04  1.49751E+04 -3.89573E+04 -1.74729E+03 -3.23965E+04 -2.19519E+04
 -1.39725E+04 -3.07867E+04  1.09078E+04 -2.87189E+04  2.39449E+04 -1.38535E+04  2.08158E+04  6.19131E+03
  8.18100E+03  1.62572E+04 -9.53885E+03  1.49811E+04 -1.92496E+04  7.35035E+02 -1.55157E+04 -1.06542E+04
  9.26865E+02 -1.77518E+04  8.24668E+03 -1.09253E+04  1.18557E+04 -1.73739E+03  2.03331E+03  7.57982E+03
 -8.09255E+03  3.79666E+03 -6.75698E+03 -7.53418E+03 -8.93342E+02 -1.66164E+04  1.02537E+04 -1.62033E+04
  1.91640E+04 -9.20722E+03  2.14519E+04  3.15174E+03  1.96437E+04  1.55097E+04  9.54752E+03  2.41279E+04
 -3.65911E+03  2.51895E+04 -1.61722E+04  1.58634E+04 -1.74844E+04  2.87644E+03 -1.30412E+04 -4.60956E+03
 -4.99351E+03 -6.17441E+03 -1.43866E+02  1.34699E+03 -3.25795E+03  3.05899E+03 -6.66417E+03  5.50760E+03
 -1.16892E+04 -3.48361E+02 -1.21437E+04 -9.71392E+03 -5.99876E+03 -1.61434E+04  5.18988E+03 -1.17363E+04
  1.10248E+04 -7.02607E+03  9.17992E+03  3.44879E+03 -2.46190E+02  5.10333E+03 -6.48578E+03 -8.80195E+02
 -7.34693E+03 -7.98510E+03 -1.74361E+03 -1.21453E+04  8.03968E+03 -1.16014E+04  1.57148E+04 -7.63099E+03
  1.93497E+04  4.29654E+02  1.37224E+04  9.66029E+03  3.35760E+03  1.36780E+04 -8.57751E+03  1.21279E+04
 -9.31030E+03  4.08269E+03 -7.14018E+03 -1.17063E+03  2.69704E+03 -3.73698E+03  6.73853E+03 -1.15125E+03
  6.60711E+03  6.07157E+03  7.25721E+02  1.07616E+04 -6.97522E+03  9.46904E+03 -1.21966E+04  2.18896E+03
 -9.24400E+03 -7.42618E+03  6.53107E+02 -1.02284E+04  7.02217E+03 -5.26982E+03  7.25543E+03  3.70010E+03
  1.37438E+03  8.59122E+03 -6.27589E+03  8.67507E+03 -1.04639E+04  2.74060E+03 -9.79360E+03 -3.98838E+03
 -5.71768E+03 -1.22541E+04  2.11442E+03 -1.43589E+04  1.09582E+04 -8.19624E+03  1.09105E+04  2.28938E+03
  7.31826E+03  9.37083E+03 -7.62820E+01  1.15101E+04 -8.67407E+03  6.98274E+03 -9.46849E+03 -5.58213E+02
 -8.56254E+03 -7.53061E+03 -1.61157E+03 -1.06265E+04  3.96740E+03 -7.90505E+03  6.53076E+03 -4.23251E+03
  3.45556E+03  1.06608E+03 -1.39783E+03  1.27351E+03  5.16423E+01 -2.76796E+03  2.26329E+03 -4.83452E+03
  8.19105E+03 -3.11750E+03  1.13733E+04  1.04528E+03  1.18451E+04  9.62446E+03  7.64136E+03  1.44153E+04
 -4.05594E+03  1.67403E+04 -1.40212E+04  1.32743E+04 -1.90056E+04  2.25399E+03 -1.48707E+04 -6.49932E+03
 -6.98965E+03 -1.37808E+04 -3.22801E+02 -1.07391E+04  3.22303E+03 -4.99482E+03  2.94560E+03 -3.49134E+03
  3.13018E+03 -2.30986E+03  2.84834E+03 -3.07485E+03  4.84563E+03 -2.17054E+03  6.64040E+03  1.72240E+01
  7.99337E+03  2.46195E+03  4.30359E+03  7.15016E+03 -2.14239E+03  7.35253E+03 -8.40968E+03  5.49272E+03
 -9.51044E+03 -1.04549E+03 -6.25304E+03 -7.64456E+03 -2.83311E+02 -1.10373E+04  6.02623E+03 -9.99362E+03
  1.05410E+04 -5.44574E+03  1.45240E+04  1.51559E+03  1.03606E+04  9.41195E+03  1.07235E+03  1.36138E+04
 -4.82772E+03  9.26087E+03 -7.87301E+03  2.13464E+03 -5.71414E+03 -7.49628E+00 -1.76743E+03 -1.38809E+03
 -1.21893E+03  1.85592E+02 -1.33140E+03  1.20714E+03 -4.11838E+03  2.75000E+03 -7.33060E+03 -9.63437E+02
 -4.68950E+03 -6.60627E+03  2.04393E+03 -1.15866E+04  6.07092E+03 -9.93312E+03  1.02788E+04 -1.67307E+03
  8.71055E+03  5.82831E+03  4.92451E+03  7.85412E+03 -1.70916E+03  9.68023E+03 -6.39733E+03  6.53702E+03
 -9.37735E+03 -1.37207E+02 -6.91671E+03 -5.79604E+03 -2.01140E+03 -7.53524E+03  4.06031E+03 -6.37779E+03
  5.88069E+03 -2.99074E+03  4.34769E+03  3.69288E+02  1.47844E+03  3.33789E+03  1.94018E+03  4.85503E+02
  3.06582E+03  1.10359E+03  1.24737E+03  1.09324E+03  3.01268E+03  3.38694E+03  2.18419E+03  5.92291E+03
 -2.43249E+03  6.87012E+03 -5.95886E+03  8.09040E+03 -9.02787E+03  1.00618E+03 -1.08228E+04 -3.83792E+03
 -3.78262E+03 -9.81526E+03  7.08639E+02 -1.18629E+04  4.68600E+03 -7.16369E+03  8.16855E+03 -2.51338E+03
  6.86540E+03  3.45687E+03  2.03178E+03  5.75847E+03 -2.30649E+03  3.40183E+03 -3.16048E+03 -2.01904E+02
 -1.64159E+03 -3.97240E+03  1.34183E+03 -4.47206E+03  3.01697E+03 -1.88653E+03  3.42171E+03  1.18796E+02
  2.00281E+03  1.61259E+03  1.50605E+03  1.05072E+03 -2.74312E+02  2.31107E+03  1.24476E+03 -3.28207E+02
  9.68331E+02  6.34015E+02  3.40939E+03  1.86143E+03  1.27520E+03  6.67047E+03 -1.14357E+02  6.50336E+03
 -3.59706E+03  4.06789E+03 -4.16326E+03  2.70006E+03 -3.65525E+03 -2.51194E+03 -1.35964E+03 -3.57435E+03
  2.81121E+02 -3.02407E+03  3.49052E+03 -7.34918E+02  1.80281E+03  2.86364E+03 -2.55627E+03  3.02584E+03
 -3.78570E+03  1.36383E+03 -4.61988E+03 -2.41907E+03 -2.00238E+03 -5.41782E+03  7.01513E+02 -3.42945E+03
  2.44417E+03 -2.36495E+03  4.38666E+03 -2.44142E+02  4.29603E+03  1.31743E+03  5.36703E+02  3.53428E+03
 -2.04052E+03  1.99356E+03 -1.08032E+03 -2.39283E+03  5.13688E+01 -2.35097E+03  4.21018E+03 -3.96797E+03
  5.31807E+03  5.23665E+01  5.38346E+03  3.35262E+03  1.77430E+03  4.87842E+03 -8.95672E+02  5.59247E+03
 -4.69520E+03  1.93571E+03 -5.32992E+03 -3.94834E+02 -1.40235E+03 -3.33815E+03  1.02388E+03 -2.15503E+03
  3.28104E+03 -1.19334E+03  1.70756E+03  9.36690E+02  3.33933E+02  3.43689E+03 -1.76452E+03  1.94451E+03
 -8.44483E+02  2.20350E+03 -1.09452E+03  4.04531E+02 -8.02059E+02  2.26977E+02 -1.03213E+03  9.34052E+02
 -1.95706E+03  1.79666E+03 -4.61800E+03  6.87456E+02 -5.63382E+03  8.80766E+02 -5.35962E+03 -3.04489E+03
 -2.86638E+03 -6.56994E+03  1.04658E+03 -7.04484E+03  3.61141E+03 -6.49486E+03  7.09555E+03 -2.34949E+03
  7.04478E+03  1.36665E+03  5.67744E+03  4.38588E+03 -5.80677E+02  3.88528E+03 -2.57214E+03  6.08301E+03
 -2.78124E+03  2.35565E+03 -7.08275E+02 -3.97781E+02 -1.32357E+03  4.06946E+02  5.87022E+01 -1.56215E+02
 -1.58482E+03  1.46778E+03 -2.48748E+03  8.02890E+02 -8.42205E+02 -1.96063E+03 -2.25723E+01 -3.17000E+03
  3.36938E+03 -2.72706E+03  3.61190E+03 -6.10678E+02  3.14948E+03  3.69936E+03  1.16042E+01  5.57181E+03
 -3.13732E+03  6.23677E+03 -5.13602E+03  3.71103E+03 -6.19363E+03  4.34698E+02 -5.74499E+03 -4.58388E+03
 -1.43959E+03 -5.61364E+03  2.03729E+03 -4.85834E+03  2.76371E+03 -2.40440E+03  2.59465E+03  4.76677E+02
  1.91975E+03  1.03827E+03 -9.59066E+02  1.49968E+03 -2.29334E+03  4.69824E+02  1.10387E+01 -7.18675E+02
  8.95711E+02 -4.84677E+02  1.87586E+03  1.56204E+03  5.11713E+02  1.48540E+03 -4.05941E+02  1.97492E+03
 -1.95443E+03  2.49727E+03 -2.12826E+03  4.95786E+02 -1.95061E+03 -3.44273E+03 -1.17467E+03 -4.57444E+03
  2.92580E+03 -2.41986E+03  2.32998E+03 -9.64839E+02  3.24371E+03 -3.56815E+02  1.09928E+03  3.42730E+03
  1.01358E+03  3.12481E+03 -1.23819E+03  2.40042E+03 -7.02323E+02  1.12465E+03  4.96802E+02  4.44883E+02
 -3.96510E+02  8.81068E+01 -1.90071E+03  1.33710E+01 -8.20423E+02  6.27049E+02 -2.26026E+03 -1.18238E+03
 -3.42570E+03 -9.85224E+02 -9.84856E+02 -4.31476E+03  1.03857E+03 -3.42682E+03  2.94959E+03 -1.82610E+03
  2.96669E+03  5.49606E+02  1.68486E+03  1.72489E+03  6.07359E+01  1.77508E+03 -1.79936E+03  1.12308E+03
