 $NMID ID='MM_0lb_SNR200_15hz_g60_37.RAW', FMTDAT='(8E13.5)'
 TRAMP=1., VOLUME=1. $END
  3.08839E+05  4.18976E+02  3.37692E+05  2.50831E+05  8.40726E+04  3.39132E+05 -1.32564E+05  2.51181E+05
 -1.90862E+05  8.39575E+04 -1.11919E+05 -3.21005E+04  6.22501E+02 -5.10485E+04  5.41984E+04 -1.48908E+02
  3.58397E+04  5.33254E+04 -1.57001E+04  7.63993E+04 -6.03208E+04  6.30480E+04 -8.46308E+04  3.29264E+04
 -8.02152E+04 -1.17320E+04 -5.77128E+04 -5.15292E+04 -1.49810E+04 -7.12446E+04  2.72269E+04 -4.52684E+04
  4.02917E+04  3.14472E+03  1.59294E+04  4.83227E+04 -3.47241E+04  4.73081E+04 -6.73647E+04 -1.37753E+02
 -5.40032E+04 -5.68684E+04 -7.50411E+03 -7.94124E+04  3.44303E+04 -5.54737E+04  4.78390E+04 -1.67546E+04
  4.38873E+04  1.17800E+04  3.29669E+04  2.73894E+04  1.64488E+04  3.05904E+04 -4.12535E+03  2.62433E+04
 -2.24615E+04  1.24200E+04 -1.82297E+04 -5.33393E+03  5.52899E+03 -7.80629E+03  2.31170E+04  1.28498E+04
  7.38438E+03  3.55380E+04 -3.15363E+04  3.56393E+04 -6.38211E+04  3.22847E+03 -5.82573E+04 -4.40046E+04
 -1.16724E+04 -6.35059E+04  4.07701E+04 -4.52666E+04  5.85101E+04 -3.56955E+03  3.42299E+04  3.34230E+04
 -6.15476E+03  3.79214E+04 -3.02734E+04  1.62406E+04 -2.94984E+04 -6.13333E+03 -1.74067E+04 -9.93853E+03
 -8.72023E+03 -1.30259E+04 -5.77349E+02 -1.84532E+04  7.53237E+03 -2.25165E+04  1.59517E+04 -1.36989E+04
  1.11942E+04  6.41774E+03 -8.32839E+03  1.21345E+04 -2.05088E+04 -5.38600E+03 -8.05249E+03 -3.35664E+04
  2.34913E+04 -4.46069E+04  4.88451E+04 -1.85843E+04  4.53719E+04  1.94636E+04  1.62744E+04  4.50345E+04
 -1.69298E+04  3.39153E+04 -2.64278E+04  1.17546E+03 -1.07377E+04 -2.76972E+04  2.15197E+04 -3.40426E+04
  4.13404E+04 -9.15137E+03  3.58232E+04  2.34125E+04  1.87020E+04  4.72657E+04 -7.71108E+03  5.06474E+04
 -3.11380E+04  3.49011E+04 -4.27765E+04  1.08350E+04 -4.42609E+04 -1.65762E+04 -2.38758E+04 -3.87858E+04
  6.64297E+03 -3.85977E+04  3.17437E+04 -1.48066E+04  2.90431E+04  1.15276E+04  4.48356E+03  1.92542E+04
 -1.38198E+04  8.67021E+03 -1.08037E+04 -7.22883E+03  5.33024E+03 -1.10620E+04  1.76693E+04  5.26411E+03
  1.36058E+04  2.29240E+04 -6.15467E+03  2.55804E+04 -2.23765E+04  1.21262E+04 -2.86630E+04 -4.68629E+03
 -2.03347E+04 -1.69643E+04 -8.52111E+03 -2.02888E+04  3.59760E+03 -2.03685E+04  1.55863E+04 -1.97135E+04
  2.62935E+04 -1.30647E+04  3.31780E+04  3.61514E+03  2.33714E+04  2.17324E+04  5.27140E+03  3.68758E+04
 -1.73633E+04  3.04648E+04 -2.82967E+04  1.07044E+04 -2.01362E+04 -1.07314E+04 -3.75497E+03 -1.30219E+04
  1.70306E+03 -2.93928E+03 -4.52825E+03  8.37868E+03 -1.65142E+04  4.91264E+03 -1.76467E+04 -7.31475E+03
 -1.05273E+04 -1.98347E+04  4.12468E+03 -2.34605E+04  1.57328E+04 -1.56307E+04  1.90677E+04 -2.07271E+03
  1.11880E+04  1.21937E+04 -8.12808E+02  1.91276E+04 -1.37303E+04  1.11255E+04 -1.94806E+04 -5.12736E+03
 -1.61764E+04 -1.87463E+04 -2.09327E+03 -2.36948E+04  1.03845E+04 -1.92373E+04  1.97510E+04 -9.87122E+03
  1.86138E+04  2.19494E+02  1.23850E+04  5.92245E+03  7.44044E+03  5.65273E+02  9.70244E+03 -5.78621E+02
  1.80555E+04  2.50344E+03  1.82166E+04  1.49627E+04  1.37113E+04  3.16395E+04 -3.29344E+03  3.56777E+04
 -1.98187E+04  2.84915E+04 -3.21868E+04  1.46444E+04 -3.32752E+04 -2.36519E+03 -2.99433E+04 -1.91006E+04
 -1.16556E+04 -2.73917E+04  9.86244E+03 -2.59579E+04  2.25450E+04 -1.29479E+04  1.87715E+04  6.74737E+03
  7.43160E+03  1.50284E+04 -8.54897E+03  1.32273E+04 -1.58991E+04  2.51107E+03 -1.21817E+04 -1.08047E+04
 -1.14412E+03 -1.53751E+04  8.26723E+03 -1.16515E+04  9.18967E+03 -2.74394E+02  2.34301E+03  6.28805E+03
 -7.18320E+03  2.65131E+03 -5.94638E+03 -6.18866E+03 -6.56322E+02 -1.43809E+04  9.02054E+03 -1.36696E+04
  1.73177E+04 -7.81663E+03  1.81117E+04  3.49197E+03  1.50212E+04  1.40374E+04  6.47874E+03  2.05163E+04
 -2.47517E+03  2.24884E+04 -1.50431E+04  1.45239E+04 -1.54966E+04  3.14539E+03 -1.17173E+04 -4.30119E+03
 -6.77943E+03 -4.50186E+03 -2.32607E+02  1.96698E+03 -3.11595E+03  2.66177E+03 -5.68958E+03  3.53768E+03
 -1.00727E+04 -7.46304E+02 -1.05951E+04 -9.82565E+03 -4.52765E+03 -1.51528E+04  5.96976E+03 -1.27584E+04
  9.52315E+03 -4.46696E+03  6.78641E+03  3.09807E+03 -8.15136E+01  5.04968E+03 -5.55661E+03  3.31280E+02
 -5.67273E+03 -6.87105E+03 -7.51343E+02 -9.53933E+03  6.25726E+03 -1.18834E+04  1.34410E+04 -6.66424E+03
  1.64090E+04  9.84946E+02  1.17615E+04  1.00971E+04  3.68589E+03  1.32482E+04 -6.43127E+03  1.12101E+04
 -9.89964E+03  1.97604E+03 -3.96853E+03 -3.27634E+03  7.11669E+02 -2.80948E+03  7.28004E+03 -6.09849E+02
  4.88045E+03  4.64385E+03  7.58149E+02  8.27719E+03 -7.81823E+03  7.44886E+03 -1.06595E+04  2.11428E+03
 -7.86593E+03 -6.54363E+03  1.16045E+03 -8.25956E+03  5.32728E+03 -5.36205E+03  5.12799E+03  2.69756E+03
 -7.34303E+01  6.07182E+03 -4.98106E+03  6.71479E+03 -7.15724E+03  4.28796E+03 -9.18630E+03 -2.63119E+03
 -4.52416E+03 -8.91790E+03  1.98403E+03 -1.01451E+04  8.71473E+03 -6.39953E+03  9.96935E+03  1.64836E+03
  6.78974E+03  8.12352E+03 -1.04792E+03  1.02090E+04 -7.23717E+03  6.12502E+03 -8.76653E+03 -1.45562E+03
 -6.89780E+03 -6.71593E+03 -1.35625E+03 -7.45969E+03  5.45780E+03 -6.98219E+03  5.21640E+03 -3.07147E+03
  4.09313E+03  1.64782E+03 -1.77745E+02  1.82593E+03 -3.62822E+02 -2.00835E+03  1.31408E+03 -4.38782E+03
  4.78317E+03 -2.10439E+03  1.01079E+04  1.68112E+03  9.55144E+03  5.90869E+03  7.03634E+03  1.21037E+04
 -2.19665E+03  1.48823E+04 -1.23650E+04  9.56907E+03 -1.64218E+04  1.48162E+03 -1.27914E+04 -5.04870E+03
 -5.67628E+03 -9.61197E+03  1.11320E+03 -7.25323E+03  2.83230E+03 -4.70034E+03  3.51704E+03 -3.80032E+03
  1.91089E+03 -3.22322E+03  2.97688E+03 -2.92071E+03  4.11718E+03 -1.61296E+03  4.47318E+03 -4.18321E+02
  6.98541E+03  1.24327E+03  2.29217E+03  6.78188E+03 -8.53322E+02  4.26358E+03 -6.38689E+03  5.31063E+03
 -8.41627E+03 -8.37715E+02 -3.00504E+03 -6.07596E+03 -9.48562E+02 -8.38907E+03  5.07943E+03 -8.07154E+03
  8.90265E+03 -4.84660E+03  1.04566E+04  6.73769E+02  7.95737E+03  7.47639E+03  1.77168E+03  9.32862E+03
 -5.01192E+03  8.14226E+03 -5.59406E+03  3.46949E+03 -3.97787E+03 -1.89400E+03 -9.80527E+02 -7.17301E+02
 -1.18196E+03 -1.58656E+02 -5.51336E+02  2.43308E+03 -2.82134E+03  8.54739E+01 -4.70693E+03 -1.14657E+03
 -2.93834E+03 -6.24176E+03  1.58492E+03 -9.52574E+03  4.74381E+03 -8.29276E+03  7.04706E+03 -1.36339E+03
  6.91665E+03  4.10190E+03  2.42258E+03  5.31403E+03 -3.38861E+03  8.29218E+03 -4.15285E+03  4.88279E+03
 -7.62337E+03  2.05951E+03 -6.89671E+03 -3.04028E+03 -1.91412E+03 -4.75622E+03  3.30851E+03 -4.67004E+03
  4.39577E+03 -2.02575E+03  2.85103E+03  4.80052E+02  1.65676E+03  2.44477E+03  6.52126E+02  1.48681E+03
  9.51053E+02  1.36586E+02  2.97016E+03  3.61456E+02  1.99394E+03  3.06983E+03  2.55330E+03  2.48013E+03
 -1.38112E+03  4.85630E+03 -4.53360E+03  4.92544E+03 -7.12004E+03  2.61679E+03 -7.29743E+03 -1.29121E+03
 -3.53577E+03 -6.57316E+03  1.53406E+03 -7.86844E+03  4.63118E+03 -5.04137E+03  6.14302E+03 -9.32301E+02
  4.10525E+03  4.00850E+03  9.12251E+02  3.27163E+03 -2.39446E+03  1.51524E+03 -2.24589E+03 -8.32486E+02
 -1.31258E+03 -1.95674E+03  1.98244E+03 -3.00315E+03  4.04573E+03 -6.35264E+02  3.10392E+03  7.95714E+02
  1.61664E+03  1.79487E+03  1.09066E+03  5.32731E+02 -5.94455E+02  4.19122E+02  1.01620E+03  3.94217E+02
 -1.13284E+02  2.77769E+02  3.30369E+03  1.39892E+03  5.30957E+02  4.81846E+03  2.36034E+02  4.90653E+03
 -4.00735E+03  3.56152E+03 -3.60641E+03  7.04446E+02 -3.59312E+03 -1.80260E+03 -1.34377E+03 -2.24562E+03
  1.75673E+02 -3.31293E+03  1.88902E+03 -1.18158E+03 -1.19180E+02  1.43857E+03 -8.80841E+02  2.30212E+03
 -2.90102E+03  1.73313E+03 -2.84634E+03 -1.64933E+03 -7.27291E+02 -3.60044E+03  1.74315E+02 -4.08376E+03
  9.68114E+02 -2.77754E+03  1.89762E+03  6.04352E+02  2.64427E+03  1.41464E+03  8.33227E+02  2.50251E+03
 -1.71504E+03 -1.29698E+02 -2.25212E+03 -1.25098E+03  2.10107E+03 -1.67261E+03  3.47406E+03 -2.40101E+03
  4.45620E+03  1.55109E+03  4.81390E+03  1.55741E+03  2.34523E+03  2.74981E+03 -1.14097E+03  3.62763E+03
 -1.71263E+03  2.19236E+03 -2.82415E+03 -8.79263E+02 -1.33849E+03 -2.84287E+03 -3.06374E+02 -1.89549E+03
  2.42326E+03 -1.17649E+03  1.30134E+03  1.77411E+03  3.15706E+02  3.44950E+03 -8.50798E+02  1.64859E+03
 -2.97891E+02  1.59447E+03 -1.51818E+03  6.20552E+02 -1.64417E+02  2.39745E+02 -1.29224E+03 -9.76630E+00
 -9.36016E+01  2.20703E+03 -2.33339E+03  1.40353E+03 -3.10773E+03  7.70229E+02 -4.54517E+03 -2.63895E+03
 -2.95434E+03 -5.73477E+03  6.23945E+02 -4.26786E+03  2.91746E+03 -5.58985E+03  3.91196E+03 -1.34730E+03
  5.05474E+03  4.22533E+02  3.56365E+03  2.59706E+03 -4.56970E+02  2.97711E+03 -4.00884E+02  3.05113E+03
 -1.82718E+03  1.09713E+03 -6.74074E+02 -1.29453E+03 -1.32695E+03 -2.14708E+02  2.12639E+02  6.28285E+02
 -2.70071E+03  5.99636E+00 -9.53262E+01 -4.11171E+02  1.42050E+03  1.15714E+03  2.59844E+02 -8.75908E+02
  2.04886E+03 -6.44519E+02  1.49424E+03  1.05809E+03  2.66308E+03  6.22802E+02 -1.26794E+03  2.99576E+03
 -1.37558E+03  5.09965E+03 -3.55745E+03  2.72310E+03 -4.03578E+03  7.41485E+02 -1.28668E+03 -2.54459E+03
 -2.37180E+03 -3.20478E+03  5.47078E+02 -1.54320E+03  2.63689E+03 -2.09193E+03  5.50269E+02  2.71571E+01
  1.31225E+03  1.36911E+03  5.47232E+01  7.86264E+02 -3.40100E+02 -1.10115E+03 -3.70752E+02 -7.46931E+02
  6.49414E+02 -1.87040E+02  3.06133E+02  3.43443E+02  7.20093E+02  3.41056E+02  4.03901E+02  7.77132E+02
 -7.10588E+02  1.33122E+03 -2.05545E+03  1.50559E+02 -2.92357E+03 -1.01312E+03 -6.86027E+02 -2.68978E+03
  1.84721E+03 -2.30472E+03  2.28182E+03 -1.07225E+03  2.39363E+03  5.25860E+02  1.65861E+03  1.71482E+03
 -3.97780E+02  1.42235E+03 -8.96392E+02  8.24450E+02 -5.19231E+02  2.02139E+03 -1.67575E+03 -1.51306E+02
  3.36706E+01 -1.42368E+02 -6.10745E+02  2.68073E+02 -1.89952E+03  7.28262E+02 -1.19738E+03 -1.63875E+03
 -1.18202E+03 -9.79628E+02 -3.34483E+02 -1.74964E+03  4.97466E+02 -2.60336E+03  2.29262E+03 -9.93465E+02
  1.01173E+03  3.85592E+02  4.70843E+02  9.13488E+02  6.77638E+02  1.53583E+03 -9.78195E+02  9.80270E+02
