 $NMID ID='MM_0lb_SNR200_8hz_g55_79.RAW', FMTDAT='(8E13.5)'
 TRAMP=1., VOLUME=1. $END
  3.08555E+05  3.75368E+03  3.38456E+05  2.50319E+05  8.44457E+04  3.39530E+05 -1.32745E+05  2.51968E+05
 -1.91182E+05  8.36228E+04 -1.12950E+05 -3.39174E+04 -8.18759E+02 -4.88872E+04  5.43669E+04 -1.87665E+03
  3.54032E+04  5.30602E+04 -1.64047E+04  7.59903E+04 -6.20150E+04  6.46604E+04 -8.39894E+04  3.10780E+04
 -8.20178E+04 -1.14178E+04 -6.03057E+04 -5.15553E+04 -1.54306E+04 -7.12622E+04  2.82567E+04 -4.52065E+04
  4.09823E+04  2.24847E+03  1.75827E+04  4.79502E+04 -3.49718E+04  4.89258E+04 -6.92164E+04  1.30158E+03
 -5.51872E+04 -5.88599E+04 -5.95153E+03 -7.91690E+04  3.28791E+04 -5.75007E+04  5.14344E+04 -1.71634E+04
  4.65546E+04  1.26601E+04  3.34993E+04  2.61982E+04  1.53383E+04  3.17426E+04 -6.34736E+03  2.74874E+04
 -2.38230E+04  1.36263E+04 -1.68522E+04 -6.59317E+03  7.72493E+03 -6.20818E+03  2.37664E+04  1.46258E+04
  6.98178E+03  3.84991E+04 -3.32585E+04  3.72469E+04 -6.71732E+04  6.71419E+02 -5.76022E+04 -4.58551E+04
 -1.27624E+04 -6.59896E+04  4.28891E+04 -4.81556E+04  6.22632E+04 -2.45454E+03  3.64504E+04  3.23899E+04
 -5.33245E+03  3.87147E+04 -3.16406E+04  1.96010E+04 -3.37153E+04 -2.96923E+03 -2.04607E+04 -1.15250E+04
 -8.98342E+03 -1.45898E+04 -1.24321E+03 -1.96076E+04  8.66148E+03 -2.36938E+04  1.68277E+04 -1.26338E+04
  9.64354E+03  7.46532E+03 -1.19100E+04  1.16527E+04 -2.36665E+04 -5.81769E+03 -7.98235E+03 -3.90856E+04
  2.70862E+04 -4.85566E+04  5.37639E+04 -2.16676E+04  4.97024E+04  1.96836E+04  1.78106E+04  4.88765E+04
 -1.68283E+04  3.72146E+04 -2.99811E+04  3.14549E+03 -1.17757E+04 -2.96788E+04  2.07673E+04 -3.75127E+04
  4.57542E+04 -1.12368E+04  4.20859E+04  2.52793E+04  2.24749E+04  5.22040E+04 -9.57779E+03  5.81696E+04
 -3.93486E+04  3.96575E+04 -4.87936E+04  1.09961E+04 -5.02518E+04 -1.83968E+04 -2.74582E+04 -4.37405E+04
  7.82480E+03 -4.34063E+04  3.44437E+04 -1.80443E+04  3.22668E+04  1.06185E+04  6.19974E+03  2.27180E+04
 -1.39334E+04  1.02981E+04 -1.03536E+04 -8.94345E+03  7.67036E+03 -1.24019E+04  1.80558E+04  3.66063E+03
  1.50932E+04  2.47793E+04 -4.23625E+03  2.77874E+04 -2.38531E+04  1.60225E+04 -3.04787E+04 -1.54992E+03
 -2.70602E+04 -1.91494E+04 -1.21339E+04 -2.63177E+04  6.05354E+03 -2.71465E+04  2.12305E+04 -2.37928E+04
  3.46076E+04 -1.62360E+04  4.06914E+04  4.56996E+03  2.80145E+04  2.74631E+04  4.86218E+03  4.23006E+04
 -1.91780E+04  3.33614E+04 -3.09432E+04  1.18057E+04 -2.16184E+04 -1.06035E+04 -4.40763E+03 -1.26473E+04
 -4.56004E+02 -1.71735E+03 -8.91278E+03  9.02977E+03 -2.25642E+04  4.27056E+03 -2.02657E+04 -1.00424E+04
 -1.17008E+04 -2.40696E+04  7.44553E+03 -2.85627E+04  2.05210E+04 -1.94895E+04  2.38201E+04 -4.16332E+03
  1.58479E+04  1.67528E+04 -1.99011E+03  2.44005E+04 -1.87213E+04  1.42575E+04 -2.51037E+04 -3.98430E+03
 -1.79270E+04 -2.26261E+04 -3.52662E+03 -2.99023E+04  1.44096E+04 -2.56544E+04  2.37270E+04 -1.30010E+04
  2.42190E+04  1.17834E+03  1.70796E+04  4.45248E+03  1.01629E+04  1.31616E+03  1.41138E+04 -2.89648E+03
  2.33022E+04  2.76653E+03  2.72433E+04  1.91459E+04  1.92307E+04  3.91881E+04 -4.43842E+03  4.74130E+04
 -2.74529E+04  3.89316E+04 -4.41271E+04  2.11929E+04 -4.71082E+04 -4.39793E+03 -3.85707E+04 -2.79183E+04
 -1.28758E+04 -4.06056E+04  1.38616E+04 -3.29291E+04  2.91812E+04 -1.63863E+04  2.52973E+04  8.79257E+03
  7.31660E+03  2.16527E+04 -1.13296E+04  1.51649E+04 -2.13876E+04  1.83284E+03 -1.50750E+04 -1.40766E+04
  2.86138E+02 -2.00247E+04  1.15482E+04 -1.52621E+04  1.33604E+04 -8.19322E+02  3.65214E+03  1.01030E+04
 -8.63686E+03  4.66380E+03 -9.43859E+03 -7.37594E+03 -1.60239E+03 -1.94069E+04  1.19548E+04 -2.09793E+04
  2.41142E+04 -1.21524E+04  2.91245E+04  5.05980E+03  2.74356E+04  2.13849E+04  1.29473E+04  3.17962E+04
 -7.39495E+03  3.36353E+04 -2.22380E+04  2.12885E+04 -2.47848E+04  2.83411E+03 -1.74388E+04 -6.66521E+03
 -6.99313E+03 -8.57855E+03  2.67695E+02  1.73932E+03 -4.12198E+03  2.05184E+03 -8.15804E+03  5.46341E+03
 -1.38959E+04 -1.92667E+01 -1.63584E+04 -1.38521E+04 -7.50940E+03 -2.00534E+04  6.31334E+03 -1.68707E+04
  1.36927E+04 -7.86085E+03  9.91162E+03  4.36438E+03 -5.19549E+01  7.52248E+03 -8.31208E+03 -1.05088E+03
 -7.85620E+03 -9.82367E+03  6.46429E+02 -1.84502E+04  9.67718E+03 -1.69222E+04  2.28816E+04 -1.01918E+04
  2.54772E+04  2.76376E+03  1.78315E+04  1.56800E+04  4.31727E+03  1.96506E+04 -1.25114E+04  1.83918E+04
 -1.39085E+04  5.68158E+03 -8.06512E+03 -2.58870E+03  2.79361E+02 -3.77697E+03  9.84367E+03 -2.09523E+03
  7.30095E+03  7.46033E+03  2.81595E+03  1.59399E+04 -1.16524E+04  1.32947E+04 -1.72946E+04  2.74618E+03
 -1.22730E+04 -1.05569E+04 -1.19573E+03 -1.55483E+04  1.07631E+04 -6.70814E+03  1.11672E+04  3.87393E+03
  2.93189E+03  1.17018E+04 -9.82719E+03  1.27208E+04 -1.52360E+04  5.04893E+03 -1.52176E+04 -6.65646E+03
 -9.99264E+03 -1.89462E+04  5.34147E+03 -2.12980E+04  1.55142E+04 -1.35844E+04  1.88655E+04  3.12474E+03
  9.04202E+03  1.40910E+04 -1.98913E+03  1.91617E+04 -1.24246E+04  1.18638E+04 -1.46799E+04 -2.07549E+03
 -1.00497E+04 -1.18420E+04 -2.67560E+03 -1.28356E+04  6.12029E+03 -1.01900E+04  7.98416E+03 -3.93932E+03
  5.26555E+03  3.47653E+03  3.24437E+02  2.83721E+03 -1.69472E+03 -4.85877E+03  4.14539E+03 -9.49241E+03
  1.29105E+04 -7.05546E+03  1.83745E+04  3.83456E+03  1.66624E+04  1.06853E+04  1.18545E+04  2.41820E+04
 -4.76700E+03  2.73711E+04 -2.38077E+04  2.00064E+04 -2.70484E+04  1.11751E+03 -2.32469E+04 -1.03268E+04
 -1.22347E+04 -1.91351E+04 -1.27928E+03 -1.48141E+04  5.05637E+03 -9.15700E+03  6.21763E+03 -5.13892E+03
  3.74731E+03 -1.88374E+03  6.72921E+03 -4.77940E+03  8.15753E+03 -5.22697E+03  9.48164E+03 -2.61365E+03
  1.25184E+04  2.64804E+03  6.01921E+03  1.11090E+04 -2.09938E+03  1.26807E+04 -1.30721E+04  9.63234E+03
 -1.75297E+04 -2.52832E+03 -1.24089E+04 -1.23169E+04 -2.01379E+03 -1.83180E+04  9.91679E+03 -1.96567E+04
  1.99068E+04 -1.02059E+04  2.22182E+04  1.99413E+03  1.71995E+04  1.66649E+04  2.83402E+03  1.91195E+04
 -8.71844E+03  1.72023E+04 -1.14842E+04  5.26187E+03 -8.29671E+03 -2.35250E+03 -2.68001E+03 -2.70675E+03
 -1.80006E+03  8.75426E+02 -2.53465E+03  2.06073E+03 -6.51007E+03  3.42550E+03 -1.04807E+04 -2.21421E+03
 -7.77378E+03 -1.15450E+04 -1.94710E+02 -1.54095E+04  1.08113E+04 -1.73992E+04  1.68467E+04 -3.50700E+03
  1.61830E+04  7.96681E+03  8.08690E+03  1.50246E+04 -4.70997E+03  1.85549E+04 -1.32483E+04  1.08223E+04
 -1.52004E+04  7.53118E+02 -1.32004E+04 -9.40393E+03 -1.86954E+03 -1.58273E+04  7.92852E+03 -1.02832E+04
  1.15315E+04 -3.94676E+03  7.44715E+03  2.03028E+03  2.67247E+03  4.26258E+03  2.72672E+03  2.25856E+03
  2.73316E+03 -2.65205E+02  4.24419E+03  2.77837E+03  5.09065E+03  7.20259E+03  4.48132E+03  9.26008E+03
 -3.83304E+03  1.43147E+04 -1.35570E+04  1.19653E+04 -1.91733E+04  1.90979E+03 -1.88375E+04 -8.48405E+03
 -8.91577E+03 -1.80264E+04  2.33496E+03 -2.19555E+04  1.17720E+04 -1.24061E+04  1.59912E+04 -2.88437E+03
  1.05802E+04  7.59014E+03  3.81349E+03  1.02007E+04 -5.82869E+03  7.62510E+03 -8.63112E+03 -2.98309E+03
 -4.19461E+03 -6.61818E+03  3.98714E+03 -8.58316E+03  6.07889E+03 -3.19678E+03  7.04826E+03  4.51243E+02
  3.99262E+03  3.37020E+03  1.91570E+03  3.29124E+03  1.79333E+02  4.35358E+03  2.98662E+03  1.32183E+03
  3.49596E+03 -4.10297E+02  5.04209E+03  3.57700E+03  3.29018E+03  1.03084E+04 -1.15166E+03  1.21793E+04
 -9.68670E+03  7.24912E+03 -1.13191E+04  2.87415E+03 -1.00127E+04 -4.03126E+03 -2.59457E+03 -6.59326E+03
 -1.76482E+00 -6.74233E+03  5.54247E+03 -4.06433E+03  3.32809E+03  3.11364E+03 -1.92594E+03  6.26099E+03
 -8.59896E+03  5.30132E+03 -7.89312E+03 -5.22112E+03 -3.49470E+03 -9.24234E+03  9.91561E+02 -9.70523E+03
  7.54230E+03 -6.45711E+03  8.21800E+03 -2.60014E+03  4.56748E+03  2.94797E+03  1.62174E+03  3.85566E+03
 -2.73124E+03  2.71136E+03 -5.09614E+03 -2.50274E+03  1.45062E+03 -9.23403E+03  8.93540E+03 -5.06568E+03
  1.22389E+04  5.33885E+02  1.04829E+04  9.30347E+03  4.51773E+03  1.29179E+04 -4.63804E+03  1.06441E+04
 -1.08891E+04  5.03937E+03 -9.83310E+03 -2.44644E+02 -6.19611E+03 -8.58830E+03  1.82403E+03 -9.40865E+03
  1.02236E+04 -3.88744E+03  6.22373E+03  3.68077E+03  2.11208E+03  5.44742E+03 -1.43193E+03  6.30813E+03
 -3.67432E+03  3.24036E+03 -2.25166E+03  7.78184E+02 -1.22954E+03  1.85117E+03 -2.42404E+03  4.68069E+03
 -2.16385E+03  4.40107E+03 -7.40885E+03  5.57410E+03 -1.26784E+04  1.30422E+03 -1.55918E+04 -8.23416E+03
 -6.50834E+03 -1.47999E+04  3.23677E+03 -1.81432E+04  1.13450E+04 -1.52170E+04  1.79863E+04 -6.35816E+03
  1.75597E+04  3.60227E+03  9.24965E+03  1.11422E+04  1.09777E+03  1.29135E+04 -6.38193E+03  9.48866E+03
 -7.32904E+03  2.43592E+03 -4.73665E+03 -1.49668E+02 -9.18543E+02 -2.42072E+03  1.13345E+03  1.13077E+02
 -2.11881E+03 -8.82749E+01 -4.27294E+03  2.77537E+02 -1.54406E+03 -1.58914E+03  2.69378E+02 -5.17075E+03
  6.28120E+03 -4.74452E+03  8.33207E+03 -3.04953E+02  9.52873E+03  8.60092E+03  2.11577E+03  1.35154E+04
 -6.46032E+03  1.39746E+04 -1.16030E+04  9.08756E+03 -1.69777E+04 -1.77664E+03 -1.14116E+04 -8.40732E+03
 -3.49964E+03 -1.32711E+04  3.92028E+03 -1.10415E+04  1.06523E+04 -5.70906E+03  8.48311E+03  5.21414E+02
  5.02562E+03  4.37955E+03  1.43322E+02  3.41687E+03 -3.05353E+02  8.91868E+00 -4.45422E+02 -1.17757E+03
  2.87907E+03 -3.64302E+03  6.86259E+03 -3.22402E+01  4.49158E+03  5.71278E+03  8.22135E+02  7.32793E+03
 -5.10137E+03  6.40027E+03 -9.51423E+03 -3.31350E+01 -6.98364E+03 -6.75690E+03 -2.49689E+03 -9.91257E+03
  4.87282E+03 -7.70121E+03  1.08680E+04 -3.46980E+03  1.26138E+04  1.79910E+03  6.40237E+03  6.57078E+03
  4.49377E+02  8.72704E+03 -4.47849E+03  7.97654E+03 -4.54432E+03  2.75242E+03 -3.64557E+03  1.00443E+03
 -2.90694E+03  5.83122E+02 -1.40494E+03  2.90945E+03 -4.15443E+03 -1.36658E+03 -7.68802E+03 -2.25114E+03
 -6.95617E+03 -3.94387E+03 -2.79358E+03 -8.18790E+03  4.08144E+03 -1.03922E+04  6.80891E+03 -4.93143E+03
  1.04362E+04  1.05349E+03  5.30804E+03  6.19739E+03 -1.66562E+03  9.06748E+03 -6.97470E+03  5.13168E+03
