 $NMID ID='MM_0lb_SNR200_19hz_g40_14.RAW', FMTDAT='(8E13.5)'
 TRAMP=1., VOLUME=1. $END
  3.09642E+05 -8.45407E+01  3.37566E+05  2.49870E+05  8.56229E+04  3.37273E+05 -1.32055E+05  2.50548E+05
 -1.90007E+05  8.15509E+04 -1.11041E+05 -3.28718E+04  1.81010E+03 -4.98502E+04  5.36528E+04 -2.71106E+02
  3.60923E+04  5.36145E+04 -1.83633E+04  7.46749E+04 -6.05949E+04  6.27804E+04 -8.36770E+04  3.16532E+04
 -7.95775E+04 -1.00555E+04 -5.56536E+04 -5.03794E+04 -1.44227E+04 -6.73885E+04  2.72476E+04 -4.50050E+04
  3.90075E+04  4.05255E+03  1.48433E+04  4.66524E+04 -3.45500E+04  4.58501E+04 -6.45615E+04  2.77787E+01
 -5.15023E+04 -5.59246E+04 -5.87251E+03 -7.43518E+04  3.32112E+04 -5.17640E+04  4.63359E+04 -1.56150E+04
  4.06192E+04  1.14097E+04  3.09718E+04  2.23458E+04  1.51969E+04  2.89783E+04 -3.84767E+03  2.66213E+04
 -2.17189E+04  1.26252E+04 -1.88415E+04 -4.75714E+03  3.41129E+03 -8.06911E+03  2.16486E+04  1.07022E+04
  7.70568E+03  3.24949E+04 -2.94989E+04  3.36065E+04 -6.03243E+04  2.28547E+03 -5.56051E+04 -3.92209E+04
 -1.28136E+04 -5.94105E+04  3.78085E+04 -4.35832E+04  5.48069E+04 -2.10460E+03  3.11858E+04  3.01718E+04
 -6.62369E+03  3.20853E+04 -2.77813E+04  1.36483E+04 -2.67844E+04 -5.69751E+03 -1.30794E+04 -9.89098E+03
 -7.12527E+03 -1.04347E+04 -1.32489E+03 -1.71586E+04  5.64456E+03 -2.28556E+04  1.45122E+04 -1.41212E+04
  1.24550E+04  4.95232E+03 -5.31130E+03  1.31366E+04 -1.87586E+04 -1.74560E+03 -7.83038E+03 -2.91176E+04
  1.90175E+04 -3.96957E+04  4.32362E+04 -1.86769E+04  4.14954E+04  1.82721E+04  1.43368E+04  4.05857E+04
 -1.48460E+04  3.06910E+04 -2.17659E+04  1.00417E+02 -7.69268E+03 -2.54101E+04  2.06603E+04 -2.92997E+04
  3.75648E+04 -5.60634E+03  3.10210E+04  2.25397E+04  1.40413E+04  4.15170E+04 -7.84102E+03  4.35897E+04
 -2.81546E+04  2.85703E+04 -3.73189E+04  6.74663E+03 -3.69375E+04 -1.43342E+04 -2.03059E+04 -3.50779E+04
  6.34442E+03 -3.36988E+04  2.82285E+04 -1.28594E+04  2.54747E+04  1.04141E+04  3.83483E+03  1.76898E+04
 -1.31391E+04  6.44910E+03 -9.48595E+03 -7.78357E+03  6.10329E+03 -9.78293E+03  1.72904E+04  7.56495E+03
  1.25835E+04  2.11388E+04 -7.06911E+03  2.24375E+04 -2.06190E+04  8.18304E+03 -2.47245E+04 -7.13152E+03
 -1.62548E+04 -1.58214E+04 -4.56906E+03 -1.63564E+04  3.94093E+03 -1.36300E+04  1.19337E+04 -1.34108E+04
  1.94443E+04 -1.12809E+04  2.73805E+04  2.93354E+02  1.99467E+04  1.55431E+04  4.11414E+03  3.03497E+04
 -1.41558E+04  2.55566E+04 -2.53219E+04  8.35740E+03 -1.95666E+04 -1.02270E+04 -3.25956E+03 -1.41963E+04
  2.85044E+03 -4.12107E+03 -1.90903E+03  5.26429E+03 -1.21833E+04  5.25961E+03 -1.30173E+04 -4.23538E+03
 -8.31103E+03 -1.37873E+04  4.65066E+03 -1.87289E+04  1.11001E+04 -1.37705E+04  1.35154E+04 -1.78987E+03
  8.20473E+03  1.04958E+04 -1.46604E+03  1.57537E+04 -9.08268E+03  8.35460E+03 -1.48261E+04 -3.01150E+03
 -1.16770E+04 -1.24753E+04 -1.95914E+03 -1.85837E+04  8.70491E+03 -1.37217E+04  1.45157E+04 -6.01699E+03
  1.44202E+04  7.47788E+01  9.13601E+03  3.87703E+03  4.89398E+03  4.95782E+02  7.21649E+03 -1.04105E+03
  1.30992E+04  2.07857E+03  1.29245E+04  1.23436E+04  8.50238E+03  2.41341E+04 -4.11936E+03  2.52997E+04
 -1.59123E+04  1.92211E+04 -2.25581E+04  8.83754E+03 -2.37969E+04 -2.89807E+03 -1.89097E+04 -1.33769E+04
 -9.87355E+03 -1.80439E+04  5.93583E+03 -1.65962E+04  1.65109E+04 -1.00393E+04  1.44829E+04  3.06986E+03
  4.97128E+03  1.09955E+04 -6.10129E+03  9.81982E+03 -1.35531E+04  3.19763E+03 -1.10203E+04 -7.76436E+03
 -1.28623E+03 -1.17786E+04  5.45343E+03 -8.97118E+03  8.07369E+03 -9.19843E+02  9.50005E+02  5.97898E+03
 -5.32819E+03  1.37106E+03 -3.61437E+03 -4.89850E+03  2.10644E+03 -9.62675E+03  7.77691E+03 -8.59969E+03
  1.09043E+04 -3.69845E+03  1.05226E+04  2.84866E+03  9.45999E+03  8.68551E+03  4.20255E+03  1.36288E+04
 -1.92752E+03  1.44629E+04 -8.43008E+03  9.11945E+03 -1.01668E+04  3.80131E+03 -7.60860E+03 -1.43946E+03
 -4.85295E+03 -2.77159E+03 -3.46419E+02  2.47132E+03 -1.24594E+03  1.76510E+03 -3.29744E+03  3.38397E+03
 -8.76303E+03 -4.54075E+02 -7.61225E+03 -6.92111E+03 -3.11548E+03 -9.85255E+03  3.45213E+03 -7.28612E+03
  7.06645E+03 -4.78910E+03  4.29762E+03  2.71896E+03  5.05372E+02  2.24785E+03 -2.65877E+03  3.07739E+02
 -3.16546E+03 -5.40006E+03 -6.86268E+02 -6.39018E+03  3.44443E+03 -6.04159E+03  9.93386E+03 -3.55311E+03
  1.06055E+04  5.34654E+02  7.93975E+03  4.95590E+03  6.78187E+02  7.87760E+03 -4.75691E+03  7.32330E+03
 -7.23097E+03  2.77096E+03 -3.17314E+03 -1.50008E+03  1.05270E+03 -8.89460E+02  4.70152E+03 -5.05843E+02
  4.57362E+03  3.78173E+03  5.96551E+02  6.88749E+03 -4.34285E+03  5.91578E+03 -7.96042E+03  2.28431E+03
 -4.55867E+03 -3.29514E+03 -6.10407E+02 -6.33884E+03  4.12173E+03 -3.35206E+03  2.71235E+03  9.83588E+02
 -5.03314E+02  1.97280E+03 -4.56252E+03  4.64628E+03 -4.00166E+03  2.04840E+03 -2.79240E+03 -2.17157E+03
 -2.87867E+03 -5.02793E+03  1.10315E+03 -6.57821E+03  5.12779E+03 -4.66735E+03  5.26656E+03  1.48072E+03
  3.80616E+03  4.82824E+03  2.62497E+02  6.35269E+03 -5.15089E+03  3.41096E+03 -5.16424E+03 -1.15912E+03
 -5.27525E+03 -4.04161E+03 -2.35997E+03 -4.30472E+03  2.59293E+03 -3.60346E+03  2.88554E+03 -2.86973E+03
  2.43974E+03  5.06900E+02  1.30172E+02  1.74910E+03  8.10151E+02 -1.12839E+02 -1.31188E+02 -1.25487E+03
  4.16897E+03 -2.88812E+02  4.34487E+03  9.48475E+02  5.02326E+03  1.60330E+03  4.99985E+03  6.72921E+03
 -5.69493E+02  6.59803E+03 -7.11991E+03  5.42380E+03 -7.67799E+03  1.41323E+03 -7.29699E+03 -1.18979E+03
 -4.92780E+03 -6.32277E+03 -1.18336E+03 -5.03259E+03  3.16686E+03 -1.93937E+03  2.29046E+03 -1.74021E+03
  4.43358E+02 -1.03808E+03  3.02015E+03 -1.58949E+03  4.11313E+03 -1.58901E+03  3.01027E+03  4.81180E+02
  3.79951E+03  1.40853E+03  2.71134E+02  2.90091E+03 -8.26567E+02  3.08176E+03 -3.71303E+03  2.29170E+03
 -4.38431E+03 -1.44089E+03 -1.53911E+03 -2.76682E+03  8.70258E+02 -4.76498E+03  1.90188E+03 -5.00300E+03
  4.40738E+03 -2.83389E+03  6.79910E+03  8.67885E+02  4.48620E+03  4.14745E+03  5.90015E+02  4.97082E+03
 -2.10199E+03  5.29300E+03 -3.81261E+03  8.88744E+02 -1.41257E+03 -2.10328E+03 -9.60153E+02 -1.54400E+03
 -7.03462E+02  7.08514E+02 -1.46223E+03  1.45865E+03 -2.74087E+03  5.83791E+02 -4.56987E+03 -6.76666E+02
 -7.59122E+02 -4.07331E+03  1.15437E+03 -4.61097E+03  2.52791E+03 -3.96882E+03  2.98723E+03 -1.50440E+03
  3.03602E+03  3.24083E+03  1.63379E+03  2.52556E+03  3.91959E+01  3.30198E+03 -2.15313E+03  2.45544E+03
 -3.42978E+03  9.97266E+02 -2.98808E+03 -1.66198E+03  1.37288E+02 -2.72216E+03  1.89164E+03 -1.96200E+03
  3.06201E+03 -1.35886E+03  1.55342E+03  1.66446E+03  9.27374E+02  2.57146E+03  2.43736E+02  7.48031E+02
  1.48770E+03  3.23224E+02  9.54643E+02  3.21033E+02  1.02819E+03  1.19176E+03  1.95060E+03  1.20337E+03
 -1.57331E+03  2.38486E+03 -3.26718E+03  4.35251E+03 -2.32000E+03  8.99520E+02 -3.64424E+03 -5.44329E+02
 -1.91922E+03 -3.06912E+03  7.31504E+02 -5.22212E+03  1.24497E+03 -2.66844E+03  1.85327E+03 -1.13342E+03
  2.86940E+03  2.40446E+03  5.47247E+02  1.63257E+03  4.77354E+02  8.40409E+02 -8.65064E+02 -3.29990E+02
 -1.43483E+02 -1.30210E+03  5.13168E+02 -3.10512E+03  1.46404E+03 -9.81217E+02  2.54058E+03  1.32973E+03
  1.81420E+02  7.98602E+02  1.89419E+03  1.25340E+02 -2.46152E+02  4.65692E+02  1.40851E+03 -9.98636E+02
  2.78623E+02 -8.76098E+02  1.99927E+03  1.18268E+03  1.07332E+02  2.12377E+03  8.70136E+02  2.56785E+03
 -5.43814E+02  1.03737E+03 -1.42873E+03  3.16362E+02 -2.50328E+03 -3.95463E+02 -3.46932E+02 -7.10320E+02
  5.40419E+02 -1.56188E+03  4.90093E+02 -1.36005E+03  9.46619E+02  1.31721E+03  1.73567E+02  9.95875E+02
 -1.12861E+03  3.90318E+02 -1.83963E+03 -1.09299E+03 -1.02924E+02 -1.72511E+03  4.83530E+02 -1.79423E+03
  5.94137E+02  4.40342E+02  6.61136E+02  3.70596E+02  1.36054E+03 -3.11356E+02  5.37537E+02  1.75072E+03
 -4.16197E+02 -3.91995E+01 -3.96699E+01 -3.85614E+02  1.18641E+03  5.18862E+02  1.01838E+03 -1.06095E+03
  1.43446E+03  4.35611E+02  2.75220E+03  5.86155E+02  1.22743E+03  1.33987E+03  3.99257E+01  1.29047E+03
 -1.77519E+03 -6.68750E+02 -1.58934E+03  5.89897E+02 -3.94266E+02 -4.65104E+02  1.48919E+02 -1.15946E+03
  2.12902E+03 -6.06884E+01 -8.13703E+01  8.31332E+02  6.62224E+02  8.90541E+02 -7.37369E+02  5.43590E+02
 -4.62498E+02  1.46741E+03 -4.38589E+02  7.14149E+02  4.53949E+02  4.57554E+02  6.97102E+02  1.11942E+03
 -6.74362E+02  1.94531E+03 -1.13608E+03  5.23204E+02 -4.59426E+02  6.77229E+02 -2.13314E+03 -1.88384E+03
 -7.12281E+02 -1.91174E+03  7.27417E+02 -2.59523E+03  1.33973E+03 -2.46736E+03  2.44699E+03 -6.81960E+02
  2.42610E+03 -2.76248E+02  1.40798E+03  5.24070E+02 -2.23573E+02  6.32355E+02 -5.57464E+02  1.05776E+03
 -1.94053E+03 -2.44725E+01 -7.13936E+02 -1.54789E+03 -6.51090E+02  6.55004E+02 -1.15616E+03  3.01322E+02
 -1.56069E+03  3.59881E+02 -1.66300E+03 -4.59563E+02  1.11742E+03 -1.56062E+03 -1.91243E+02 -9.86188E+02
  1.29464E+03 -9.79386E+02 -6.80873E+02  1.03501E+03  5.88733E+02  7.12033E+02 -7.14384E+02  1.92378E+03
 -1.33265E+03  1.88544E+03 -2.06314E+03  1.20183E+03 -2.59325E+03  3.46953E+02 -1.02548E+03 -1.00507E+03
 -7.30549E+02 -1.23793E+03  1.30651E+02 -6.70669E+02  1.59224E+02 -9.89862E+02  1.36749E+02 -7.67400E+02
  2.73914E+02  7.48395E+02  7.55452E+02  5.10571E+02 -1.69785E+03  8.37727E+01  4.00332E+02  2.31515E+02
  5.90736E+02  3.36045E+02  2.76657E+01  1.00946E+03 -6.30397E+02  1.06093E+02 -1.05923E+03  8.02619E+02
 -6.00089E+02 -1.82425E+02  1.61210E+02 -3.80951E+02 -4.50936E+02 -8.95458E+02 -4.30166E+02 -7.42785E+02
  5.80712E+02 -9.86204E+02  8.85302E+02 -1.24274E+02 -2.89572E+02 -2.36715E+02  4.19774E+02  9.93042E+02
  1.74979E+03  2.18591E+02  7.80291E+02  8.77730E+02 -8.23156E+02  2.97656E+02 -6.62404E+02 -2.30211E+02
 -6.61851E+02 -6.41621E+02 -1.45079E+03  1.37723E+02 -7.49336E+02 -2.97602E+01 -3.77571E+02 -1.18960E+02
 -1.04854E+03 -4.13072E+02  6.26940E+02 -2.23527E+02  1.13163E+03 -2.32679E+03  1.33947E+03  3.58298E+02
 -3.43884E+02  1.21645E+02  5.16947E+02  3.42614E+02  1.26995E+02 -3.36671E+02 -5.42286E+02  1.52543E+02
