 $NMID ID='MM_0lb_SNR200_14hz_g40_36.RAW', FMTDAT='(8E13.5)'
 TRAMP=1., VOLUME=1. $END
  3.10443E+05 -1.00881E+02  3.36914E+05  2.50209E+05  8.49865E+04  3.37127E+05 -1.32975E+05  2.49749E+05
 -1.89479E+05  8.24781E+04 -1.09324E+05 -3.20431E+04  6.66322E+02 -5.10474E+04  5.33463E+04 -6.26352E+02
  3.68944E+04  5.35003E+04 -1.73185E+04  7.59920E+04 -6.13354E+04  6.35588E+04 -8.41793E+04  3.20314E+04
 -8.06696E+04 -1.18588E+04 -5.70651E+04 -5.06123E+04 -1.49474E+04 -6.94587E+04  2.63754E+04 -4.56805E+04
  3.87912E+04  3.40836E+03  1.72777E+04  4.72168E+04 -3.40440E+04  4.71505E+04 -6.60244E+04  2.37673E+01
 -5.40813E+04 -5.77706E+04 -6.89146E+03 -7.75112E+04  3.29971E+04 -5.49584E+04  4.65242E+04 -1.63688E+04
  4.31903E+04  1.07947E+04  3.22337E+04  2.51000E+04  1.67306E+04  2.92003E+04 -3.76772E+03  2.61445E+04
 -2.15296E+04  1.27789E+04 -1.83439E+04 -4.52616E+03  5.57131E+03 -6.49425E+03  2.08133E+04  1.31287E+04
  7.91636E+03  3.49268E+04 -3.19432E+04  3.47991E+04 -6.33059E+04  3.06536E+03 -5.68601E+04 -4.24474E+04
 -1.26255E+04 -6.29988E+04  3.85437E+04 -4.39594E+04  5.76864E+04 -2.85293E+03  3.27947E+04  3.19708E+04
 -6.63952E+03  3.58061E+04 -2.89026E+04  1.71233E+04 -2.99252E+04 -4.22202E+03 -1.57386E+04 -1.14390E+04
 -7.57266E+03 -1.30108E+04  2.19559E+02 -1.81343E+04  6.15603E+03 -2.40429E+04  1.60941E+04 -1.31835E+04
  1.19883E+04  4.52149E+03 -7.75662E+03  1.33713E+04 -2.17541E+04 -3.36239E+03 -7.84357E+03 -3.32681E+04
  2.16912E+04 -4.27718E+04  4.74582E+04 -1.91659E+04  4.40023E+04  1.96772E+04  1.55720E+04  4.26895E+04
 -1.72625E+04  3.30614E+04 -2.48077E+04  1.93347E+03 -1.00781E+04 -2.57637E+04  2.07538E+04 -3.36433E+04
  4.01837E+04 -8.57718E+03  3.40619E+04  2.38381E+04  1.77060E+04  4.59215E+04 -7.19462E+03  4.90697E+04
 -3.16529E+04  3.34981E+04 -4.00903E+04  9.42216E+03 -4.14647E+04 -1.61299E+04 -2.26656E+04 -3.68862E+04
  6.53747E+03 -3.64098E+04  3.13844E+04 -1.47800E+04  2.87526E+04  1.22970E+04  3.91915E+03  1.99891E+04
 -1.25644E+04  7.95330E+03 -1.03559E+04 -7.52026E+03  5.75952E+03 -1.05791E+04  1.83072E+04  6.17958E+03
  1.28330E+04  2.28250E+04 -6.45197E+03  2.42466E+04 -2.20191E+04  1.02602E+04 -2.67357E+04 -5.24177E+03
 -1.99569E+04 -1.67482E+04 -8.62483E+03 -2.04166E+04  4.67599E+03 -1.81872E+04  1.39969E+04 -1.85979E+04
  2.45658E+04 -1.20487E+04  3.14670E+04  2.18943E+03  2.25406E+04  1.95132E+04  3.13868E+03  3.50113E+04
 -1.71611E+04  2.98383E+04 -2.81803E+04  1.06159E+04 -2.06561E+04 -1.06057E+04 -5.03313E+03 -1.33387E+04
  2.09517E+03 -3.85968E+03 -2.97359E+03  6.30605E+03 -1.63153E+04  4.51805E+03 -1.46351E+04 -6.99485E+03
 -9.04112E+03 -1.86749E+04  4.31661E+03 -2.22602E+04  1.42617E+04 -1.62447E+04  1.75817E+04 -1.41565E+03
  1.17364E+04  1.23848E+04 -8.45409E+02  1.87596E+04 -1.29772E+04  1.04169E+04 -1.78390E+04 -3.56488E+03
 -1.35078E+04 -1.60138E+04 -1.27988E+03 -2.13320E+04  1.07127E+04 -1.79074E+04  1.86076E+04 -9.37800E+03
  1.67218E+04  1.08187E+03  1.20174E+04  4.05633E+03  7.10276E+03  1.68117E+02  8.65312E+03 -1.56244E+03
  1.76104E+04  2.15938E+03  1.78567E+04  1.40283E+04  1.32376E+04  2.89717E+04 -3.08028E+03  3.24354E+04
 -1.85784E+04  2.64362E+04 -2.90340E+04  1.21226E+04 -3.15340E+04 -3.19735E+03 -2.61253E+04 -1.86731E+04
 -1.09832E+04 -2.67243E+04  9.00727E+03 -2.26082E+04  2.01486E+04 -1.31002E+04  1.91241E+04  5.49291E+03
  6.52336E+03  1.41655E+04 -8.03354E+03  1.19698E+04 -1.61616E+04  2.16315E+03 -1.25263E+04 -9.45837E+03
  3.26072E+02 -1.53037E+04  8.27301E+03 -1.20636E+04  1.02846E+04 -2.86863E+03  1.87836E+03  5.18382E+03
 -6.75036E+03  1.50844E+03 -5.26417E+03 -5.83909E+03 -1.50087E+03 -1.33279E+04  9.02793E+03 -1.34922E+04
  1.55443E+04 -6.60811E+03  1.61849E+04  2.66443E+03  1.50481E+04  1.22598E+04  6.92251E+03  1.92229E+04
 -4.12016E+03  2.01416E+04 -1.38460E+04  1.33115E+04 -1.55515E+04  2.50806E+03 -9.65446E+03 -2.41456E+03
 -4.96261E+03 -5.24116E+03 -4.25621E+02  3.38430E+02 -2.99073E+03  2.41814E+03 -5.38642E+03  4.21930E+03
 -1.01505E+04 -4.82718E+01 -1.06778E+04 -9.90286E+03 -3.82390E+03 -1.41322E+04  4.62049E+03 -1.01354E+04
  1.00775E+04 -5.41266E+03  6.33039E+03  2.79252E+03 -1.45349E+02  3.79928E+03 -5.63633E+03 -6.58016E+02
 -5.17248E+03 -5.75301E+03 -2.04550E+03 -1.01108E+04  5.06570E+03 -1.00919E+04  1.37222E+04 -5.23594E+03
  1.62186E+04  1.43404E+03  1.05920E+04  8.81599E+03  3.04545E+03  1.21276E+04 -6.51495E+03  1.07810E+04
 -7.44950E+03  3.22671E+03 -5.50880E+03 -1.90050E+03  9.11728E+02 -9.23618E+02  6.15354E+03 -1.65671E+03
  4.46801E+03  4.58428E+03  1.56849E+03  7.36452E+03 -6.84786E+03  9.62791E+03 -1.08422E+04  1.98030E+03
 -6.95809E+03 -4.69366E+03 -4.18583E+01 -8.30523E+03  5.87490E+03 -3.60674E+03  5.06210E+03  1.14209E+03
  1.28671E+03  5.42156E+03 -4.76715E+03  7.11466E+03 -7.66327E+03  4.24036E+03 -5.74927E+03 -2.63756E+03
 -2.47350E+03 -9.91792E+03  1.74724E+03 -1.05505E+04  8.78876E+03 -7.18974E+03  1.04052E+04  9.89182E+02
  7.48284E+03  7.40833E+03 -5.17130E+02  1.01734E+04 -7.15259E+03  5.82906E+03 -7.64644E+03 -1.63691E+03
 -6.82394E+03 -7.73777E+03 -1.53000E+03 -5.45409E+03  3.84019E+03 -6.20964E+03  4.31685E+03 -2.76722E+03
  3.52195E+03  7.96255E+02  3.08401E+01  1.03287E+03  1.36694E+03 -9.30573E+02  2.47805E+02 -3.54175E+03
  5.21125E+03 -3.33325E+03  9.89740E+03  1.40655E+02  7.09426E+03  5.90883E+03  7.18333E+03  1.04459E+04
 -2.78896E+03  1.30621E+04 -1.09474E+04  9.85163E+03 -1.43263E+04  2.07668E+03 -1.23458E+04 -3.83528E+03
 -6.46797E+03 -9.65153E+03 -4.42856E+02 -8.02736E+03  2.68103E+03 -4.26262E+03  2.32457E+03 -3.44986E+03
  2.94368E+03 -1.32565E+03  2.24923E+03 -2.32387E+03  3.05946E+03 -2.87076E+03  5.64006E+03 -7.08568E+01
  7.17334E+03  1.81340E+03  3.00085E+03  4.78645E+03 -3.09569E+03  5.40839E+03 -7.58859E+03  4.68745E+03
 -8.53876E+03 -1.37386E+03 -4.36643E+03 -5.19632E+03  7.37963E+02 -7.89611E+03  4.55640E+03 -8.77665E+03
  9.43655E+03 -4.48930E+03  1.00017E+04  1.56422E+03  6.77532E+03  8.14304E+03  8.69419E+02  8.99673E+03
 -3.41149E+03  8.14955E+03 -5.57322E+03  3.82508E+03 -3.24731E+03 -1.41474E+03 -2.38693E+03 -1.86802E+03
 -1.00372E+03  4.84602E+02 -1.09476E+03  2.43109E+03 -2.92973E+03  1.81597E+03 -5.41141E+03 -8.04108E+02
 -3.70599E+03 -7.65173E+03  1.23763E+03 -7.62560E+03  4.12519E+03 -7.06846E+03  6.82004E+03 -2.47526E+03
  7.96277E+03  3.06856E+03  3.58668E+03  5.54021E+03 -3.69326E+02  8.07451E+03 -4.77383E+03  3.13864E+03
 -6.58998E+03  7.12303E+02 -4.97349E+03 -4.93311E+03 -8.56098E+02 -6.04453E+03  1.76874E+03 -6.21772E+03
  4.44800E+03 -1.19950E+03  1.98955E+03  8.36619E+02  8.53357E+02  2.72871E+03  1.81842E+03  2.14395E+03
  2.51765E+03  8.60680E+02  2.54484E+03  3.00889E+03  1.71569E+03  3.60261E+03  1.80651E+03  5.09643E+03
 -1.21643E+03  4.63484E+03 -4.61007E+03  7.12260E+03 -5.59358E+03  2.95969E+03 -7.69186E+03 -1.98314E+03
 -3.27269E+03 -7.48396E+03  1.90980E+03 -8.73581E+03  4.55042E+03 -4.40083E+03  4.85009E+03 -2.19721E+03
  4.71819E+03  3.36813E+03  3.35729E+02  3.78257E+03 -1.93542E+03  2.20650E+03 -1.98027E+03 -1.37767E+03
 -5.62779E+02 -3.70393E+03  2.47319E+03 -2.97094E+03  2.90983E+03 -1.62287E+03  3.46356E+03  3.35555E+02
  5.45770E+02  1.99714E+03  1.60416E+03  1.40624E+03  8.33353E+01  1.13433E+03  1.99912E+02 -5.79989E+02
  6.99340E+02 -7.94770E+02  2.96270E+03 -1.57996E+01  9.18178E+02  4.26415E+03 -6.02238E+02  4.87504E+03
 -3.08635E+03  2.82300E+03 -4.97694E+03  6.23864E+02 -3.72819E+03 -1.63915E+03 -1.04413E+03 -1.61814E+03
  1.44598E+03 -3.02908E+03  2.69046E+03 -1.55219E+03  5.23466E+02  6.38494E+02 -1.42312E+02  2.44057E+03
 -2.45416E+03  1.55364E+03 -2.00187E+03 -3.71099E+03 -1.45142E+03 -4.03095E+03  6.17050E+02 -2.52858E+03
  1.63230E+03 -7.61013E+02  2.84550E+03 -1.96187E+02  1.26254E+03 -6.11954E+02 -2.65835E+02  2.47085E+03
 -1.66221E+03  5.43775E+02 -2.07682E+03 -1.10028E+03  2.59343E+02 -2.54786E+03  3.99882E+03 -7.17545E+02
  3.24245E+03  1.66853E+03  4.89374E+03  2.62145E+03  1.79181E+03  2.40482E+03 -2.53964E+03  4.07059E+03
 -2.89839E+03  1.58907E+03 -3.11092E+03 -7.43750E+02 -2.83417E+03 -2.20891E+03  5.93105E+02 -9.48031E+02
  2.97336E+03 -1.59039E+03  2.09554E+03  1.74874E+03  5.15589E+02  1.57433E+03  1.21379E+03  2.01842E+03
 -3.31667E+02  1.05992E+03 -1.27477E+03  1.68241E+03 -7.36937E+02  6.52056E+02 -1.07000E+03  7.44333E+01
 -7.31444E+02  1.33424E+03 -3.45672E+03  1.20998E+03 -3.82533E+03 -5.66959E+02 -5.34428E+03 -3.66127E+03
 -2.38430E+03 -3.35141E+03  1.49310E+03 -6.08989E+03  3.62073E+03 -4.30750E+03  6.89623E+03 -2.95846E+03
  3.98797E+03  7.42038E+02  2.54348E+03  2.45676E+03 -7.54572E+02  4.58366E+03 -1.35448E+03  2.35205E+03
 -2.76995E+03  3.77114E+02 -1.87237E+03 -1.30232E+02 -4.73867E+02 -1.48545E+03  8.53904E+02  7.90849E+01
 -1.41284E+03 -3.05700E+02 -1.02852E+03 -1.86809E+02  5.62255E+02 -1.43429E+03  3.54530E+02 -2.15774E+03
  2.16571E+03 -6.94719E+02  1.74841E+03 -1.67110E+02  2.46020E+03  1.96669E+03 -4.80526E+02  4.62742E+03
 -1.44826E+03  4.89050E+03 -3.16563E+03  2.69960E+03 -4.97517E+03  4.81610E+01 -3.01415E+03 -3.41883E+03
 -2.02356E+03 -3.49973E+03  7.61265E+02 -3.76900E+03  2.38879E+03 -1.49301E+03  3.42707E+03  5.90875E+02
  2.23517E+03  1.49671E+03 -5.52037E+02  4.68834E+02 -5.96670E+02  2.71974E+02 -5.39610E+01  1.39268E+02
  1.22636E+03 -8.86268E+02  1.30820E+03 -7.25252E+01  3.78000E+02  2.08684E+03  5.36647E+02  1.83492E+03
 -2.91394E+03  1.88655E+03 -3.24664E+03  1.40135E+03 -2.50601E+03 -8.05487E+02 -1.60618E+02 -2.40377E+03
  1.10753E+03 -2.79888E+03  2.78172E+03 -1.50871E+02  3.03495E+03  4.60325E+02  2.03925E+03  2.51391E+03
  7.70732E+02  1.24006E+03 -9.16347E+02  4.00988E+03 -1.10271E+03  2.49592E+03 -2.89693E+02 -9.17415E+02
  3.06363E+02  2.51829E+02  8.26240E+02 -4.52152E+01 -1.38540E+03  1.02665E+03 -1.75989E+03 -9.00268E+02
 -2.17612E+03 -1.05911E+02 -1.62660E+03 -2.68187E+03  1.58987E+03 -2.35131E+03  2.29704E+03 -1.10883E+03
  1.60343E+03  1.82611E+02  7.30083E+02 -3.80960E+02 -1.54213E+03  2.64532E+03 -1.95400E+03  1.47236E+03
