 $NMID ID='MM_0lb_SNR200_10hz_g45_1.RAW', FMTDAT='(8E13.5)'
 TRAMP=1., VOLUME=1. $END
  3.10652E+05  1.92693E+03  3.38169E+05  2.50308E+05  8.47773E+04  3.39029E+05 -1.32332E+05  2.51496E+05
 -1.89911E+05  8.23197E+04 -1.12185E+05 -3.08530E+04  5.50383E+02 -5.08436E+04  5.49488E+04  9.03812E+02
  3.64082E+04  5.29626E+04 -1.70439E+04  7.77325E+04 -6.05634E+04  6.44657E+04 -8.58016E+04  3.27648E+04
 -8.13263E+04 -1.22624E+04 -5.92993E+04 -5.30191E+04 -1.47443E+04 -7.12091E+04  2.74744E+04 -4.49029E+04
  4.07813E+04  3.97947E+03  1.69125E+04  4.89753E+04 -3.37717E+04  4.67272E+04 -6.72341E+04 -4.80756E+02
 -5.45617E+04 -5.69808E+04 -6.92248E+03 -7.93451E+04  3.47585E+04 -5.61804E+04  4.97825E+04 -1.73559E+04
  4.56779E+04  1.02855E+04  3.10785E+04  2.73010E+04  1.65341E+04  3.03208E+04 -5.63541E+03  2.62389E+04
 -2.33433E+04  1.21128E+04 -1.81332E+04 -5.75399E+03  6.81921E+03 -6.42602E+03  2.33268E+04  1.19720E+04
  6.97358E+03  3.60218E+04 -3.46659E+04  3.72278E+04 -6.59645E+04  3.04069E+03 -5.93913E+04 -4.35649E+04
 -1.37537E+04 -6.50158E+04  4.26653E+04 -4.58830E+04  6.03694E+04 -2.45861E+03  3.68155E+04  3.38398E+04
 -5.87931E+03  3.71377E+04 -3.07672E+04  1.68229E+04 -3.31286E+04 -4.09392E+03 -1.92690E+04 -1.08556E+04
 -9.13647E+03 -1.32608E+04 -8.82988E+01 -1.79754E+04  7.78029E+03 -2.33892E+04  1.67161E+04 -1.23958E+04
  1.05364E+04  5.43995E+03 -9.60553E+03  1.27106E+04 -2.36049E+04 -6.15580E+03 -6.43764E+03 -3.75102E+04
  2.49953E+04 -4.59170E+04  5.05634E+04 -2.06138E+04  4.70631E+04  2.01102E+04  1.67452E+04  4.71053E+04
 -1.72632E+04  3.47419E+04 -2.67684E+04  3.29582E+03 -9.87812E+03 -2.80673E+04  2.06741E+04 -3.65665E+04
  4.31981E+04 -1.03742E+04  3.77084E+04  2.43021E+04  2.03212E+04  5.09916E+04 -6.74059E+03  5.40329E+04
 -3.52786E+04  3.68527E+04 -4.70771E+04  1.09595E+04 -4.60561E+04 -1.91239E+04 -2.47084E+04 -4.08249E+04
  6.54944E+03 -4.10960E+04  3.42825E+04 -1.67150E+04  3.19311E+04  1.04406E+04  7.05151E+03  2.12283E+04
 -1.34729E+04  9.14982E+03 -1.08154E+04 -8.92318E+03  5.93481E+03 -1.20498E+04  1.77785E+04  5.38524E+03
  1.60924E+04  2.25866E+04 -5.41557E+03  2.65283E+04 -2.35311E+04  1.22837E+04 -3.04179E+04 -4.68227E+03
 -2.34744E+04 -1.73083E+04 -1.12794E+04 -2.34561E+04  5.44723E+03 -2.33117E+04  1.73215E+04 -2.02534E+04
  3.01138E+04 -1.56037E+04  3.60403E+04  2.18168E+03  2.45017E+04  2.33617E+04  4.65833E+03  3.95917E+04
 -1.85107E+04  3.16983E+04 -3.05637E+04  1.13711E+04 -2.11092E+04 -9.57526E+03 -6.36241E+03 -1.25881E+04
  2.12535E+03 -2.01382E+03 -6.57124E+03  8.93221E+03 -1.92683E+04  4.78130E+03 -1.89106E+04 -6.60853E+03
 -1.19512E+04 -2.07218E+04  5.19149E+03 -2.56459E+04  1.64754E+04 -1.78329E+04  2.21300E+04 -1.89650E+03
  1.27096E+04  1.70928E+04 -9.98206E+02  2.17282E+04 -1.53366E+04  1.27602E+04 -2.24893E+04 -5.35352E+03
 -1.66438E+04 -2.00749E+04 -1.61426E+03 -2.64471E+04  1.05267E+04 -2.13837E+04  2.18205E+04 -1.23722E+04
  1.99726E+04 -1.78522E+02  1.55057E+04  5.48212E+03  7.41107E+03  1.44971E+03  1.14439E+04 -1.84245E+03
  2.03863E+04  1.41886E+03  2.35226E+04  1.64276E+04  1.66271E+04  3.62096E+04 -1.49821E+03  4.06246E+04
 -2.34304E+04  3.43324E+04 -3.85288E+04  1.64944E+04 -4.23898E+04 -3.49178E+03 -3.40319E+04 -2.27462E+04
 -1.37675E+04 -3.39213E+04  1.27004E+04 -2.98409E+04  2.59889E+04 -1.53368E+04  2.27143E+04  6.09826E+03
  8.52197E+03  1.83479E+04 -9.85700E+03  1.37013E+04 -1.91366E+04  2.57327E+03 -1.48474E+04 -1.18706E+04
 -9.50125E+02 -1.90453E+04  9.30204E+03 -1.47993E+04  1.19076E+04 -9.24495E+02  2.52005E+03  6.51097E+03
 -1.01809E+04  3.03671E+03 -8.54364E+03 -6.99953E+03 -1.08133E+03 -1.68408E+04  1.08630E+04 -1.77348E+04
  2.01333E+04 -9.39265E+03  2.44519E+04  3.64380E+03  1.99083E+04  1.73374E+04  8.72052E+03  2.62733E+04
 -2.94675E+03  2.74298E+04 -1.90031E+04  1.60412E+04 -1.98567E+04  3.95260E+03 -1.32140E+04 -5.99178E+03
 -5.34443E+03 -8.40618E+03 -5.21929E+02  9.90247E+02 -3.25394E+03  3.74609E+03 -6.08935E+03  3.93252E+03
 -1.20115E+04 -4.27863E+02 -1.20785E+04 -9.70770E+03 -5.32755E+03 -1.87038E+04  5.24824E+03 -1.45111E+04
  1.17226E+04 -5.21706E+03  7.99185E+03  3.56313E+03 -1.40335E+03  7.70440E+03 -7.51609E+03  1.65945E+02
 -8.93062E+03 -9.15523E+03 -1.57575E+03 -1.25278E+04  8.99679E+03 -1.49045E+04  1.90536E+04 -7.46987E+03
  2.23124E+04  1.71829E+03  1.49087E+04  1.37110E+04  2.32514E+03  1.79684E+04 -8.66480E+03  1.53119E+04
 -1.29191E+04  5.70271E+03 -5.82482E+03 -3.69871E+03  1.43815E+03 -4.08223E+03  7.55456E+03 -9.35918E+02
  6.50425E+03  5.34197E+03  8.60537E+02  1.17255E+04 -8.97215E+03  1.18417E+04 -1.53917E+04  2.96602E+03
 -1.08115E+04 -6.58389E+03  1.54986E+03 -1.28788E+04  9.90684E+03 -7.08670E+03  8.35117E+03  2.40672E+03
  1.11870E+03  9.76065E+03 -7.89928E+03  1.07702E+04 -1.37257E+04  5.22300E+03 -1.38694E+04 -3.96305E+03
 -7.35342E+03 -1.51093E+04  3.44880E+03 -1.68820E+04  1.35886E+04 -9.68703E+03  1.42597E+04  2.04050E+03
  9.69024E+03  1.28545E+04 -1.81621E+03  1.32507E+04 -1.15335E+04  7.88898E+03 -9.75911E+03 -3.05693E+03
 -9.97192E+03 -8.46802E+03 -8.65678E+02 -1.08119E+04  5.57109E+03 -9.34215E+03  7.05933E+03 -2.64890E+03
  4.28853E+03  1.69267E+03 -2.65293E+03  1.79370E+03 -1.57760E+02 -2.31048E+03  2.95899E+03 -5.18207E+03
  9.44305E+03 -4.06838E+03  1.55213E+04  6.47870E+02  1.40287E+04  8.35191E+03  9.02194E+03  1.85464E+04
 -5.14634E+03  2.06910E+04 -1.65097E+04  1.52715E+04 -2.24845E+04  2.63314E+03 -1.84076E+04 -8.05632E+03
 -9.12604E+03 -1.49547E+04  5.26441E+01 -1.21605E+04  4.49320E+03 -6.32609E+03  3.21662E+03 -3.97837E+03
  3.41946E+03 -2.80175E+03  2.54333E+03 -2.60605E+03  5.37067E+03 -3.65764E+03  7.75772E+03 -2.38116E+03
  1.08497E+04  2.20868E+03  4.26035E+03  7.46610E+03 -2.21011E+03  9.48421E+03 -1.01542E+04  8.28533E+03
 -1.29974E+04 -2.06386E+03 -8.00645E+03 -8.02393E+03 -9.66869E+01 -1.35099E+04  6.26362E+03 -1.42444E+04
  1.50885E+04 -7.56840E+03  1.92870E+04  1.21496E+03  1.15169E+04  1.05061E+04  1.47357E+03  1.59327E+04
 -6.00180E+03  1.28187E+04 -8.70068E+03  4.32559E+03 -6.20498E+03 -9.15189E+02 -6.56445E+02 -2.20972E+03
 -1.10295E+02 -7.07906E+02 -2.77492E+03  2.31508E+03 -4.65815E+03  2.75801E+02 -8.59004E+03 -2.09959E+03
 -6.83777E+03 -9.31054E+03 -1.29728E+03 -1.16606E+04  7.77319E+03 -1.33049E+04  1.17264E+04 -4.51530E+03
  1.21452E+04  6.39190E+03  5.75446E+03  1.16440E+04 -1.46787E+03  1.37575E+04 -9.20008E+03  8.54068E+03
 -1.17637E+04 -4.21155E+02 -1.04954E+04 -7.05180E+03 -1.42956E+03 -1.13804E+04  6.58623E+03 -7.94717E+03
  8.31736E+03 -2.88292E+03  5.07137E+03  2.85782E+03  2.95513E+03  5.64607E+03  1.30899E+03  2.49078E+03
  1.17235E+03  8.73569E+02  2.52561E+03  2.17323E+02  2.60487E+03  4.27596E+03  3.78014E+03  6.56531E+03
 -2.01120E+03  9.79644E+03 -8.76203E+03  1.01982E+04 -1.16595E+04  3.80421E+03 -1.32063E+04 -4.44791E+03
 -6.26565E+03 -1.13423E+04  1.87986E+03 -1.33605E+04  7.05863E+03 -9.72325E+03  9.82314E+03 -2.77464E+03
  7.57036E+03  4.38166E+03  2.18556E+03  7.96606E+03 -3.66118E+03  4.83471E+03 -4.90475E+03 -3.33431E+02
 -2.77344E+03 -5.24659E+03  3.23340E+03 -4.50341E+03  6.63544E+03 -4.75243E+03  5.34444E+03 -2.42714E+01
  3.53287E+03  2.63834E+03  9.08714E+02  2.14944E+03 -1.08364E+03  1.19157E+03  2.07023E+03 -1.11688E+03
  1.76082E+03 -9.90658E+01  4.96581E+03  1.94537E+03  2.92629E+03  7.12991E+03 -4.09635E+02  8.44568E+03
 -6.10438E+03  6.67967E+03 -7.58877E+03  4.58629E+02 -7.31732E+03 -2.91932E+03 -4.14351E+03 -3.83033E+03
  1.59392E+03 -4.88469E+03  1.45711E+03 -6.16803E+02  1.49850E+03  2.83895E+03 -2.30786E+03  3.84024E+03
 -4.98496E+03  2.78967E+03 -6.12111E+03 -3.34960E+03 -3.23492E+03 -7.45666E+03  8.35297E+02 -8.89749E+03
  5.21684E+03 -3.59314E+03  5.10942E+03 -9.70148E+02  4.05296E+03  1.73409E+03  2.44108E+03  3.91190E+03
 -3.26299E+03  1.40004E+03 -1.63322E+03 -1.93966E+03  1.03729E+03 -5.86035E+03  6.87065E+03 -3.16375E+03
  8.63652E+03  1.08232E+03  8.60140E+03  4.80708E+03  2.54620E+03  8.65162E+03 -4.03165E+03  8.04589E+03
 -6.24570E+03  3.76066E+03 -7.17602E+03 -2.20686E+03 -4.79123E+03 -6.79513E+03 -8.06840E+02 -4.62258E+03
  3.78357E+03 -2.69984E+03  4.24441E+03  2.27076E+03  3.33461E+02  4.92846E+03  8.10824E+02  5.06592E+03
 -1.98819E+03  2.63710E+03 -3.47260E+03  7.01696E+02 -1.11625E+03  4.15989E+02 -2.07594E+03  1.60325E+03
 -2.62600E+03  2.94580E+03 -6.69095E+03  3.78602E+03 -8.14599E+03 -2.78539E+01 -9.25740E+03 -5.29768E+03
 -4.72763E+03 -1.15981E+04  2.07431E+03 -1.24205E+04  8.78768E+03 -9.87881E+03  1.07487E+04 -3.58389E+03
  1.14877E+04  1.62918E+03  6.81054E+03  8.44185E+03  3.30454E+02  9.68323E+03 -4.47559E+03  7.22241E+03
 -4.28057E+03  1.86863E+03 -3.79255E+03 -9.26653E+01 -2.46383E+03 -3.86202E+02 -1.41601E+03 -6.11752E+02
 -2.70522E+03  3.52420E+02 -1.95501E+03 -6.00725E+02  5.90027E+02 -1.79111E+03  1.89376E+03 -3.47780E+03
  4.12543E+03 -1.80412E+03  5.88411E+03  1.29930E+03  5.59927E+03  5.23240E+03  2.35747E+03  7.83552E+03
 -4.08405E+03  9.33841E+03 -9.61309E+03  4.44866E+03 -1.00550E+04 -1.44929E+03 -7.37110E+03 -6.55230E+03
 -3.13303E+03 -8.88846E+03  2.93367E+03 -8.16693E+03  4.65188E+03 -3.39801E+03  6.25457E+03  3.65263E+02
  3.71231E+03  1.47698E+03 -1.51824E+03  4.22108E+02 -1.51216E+03 -6.87866E+02 -6.24280E+02 -3.08498E+03
  3.04996E+03 -6.38046E+02  3.32238E+03  6.43323E+02  2.30408E+03  2.68609E+03  1.52524E+02  4.77650E+03
 -4.58465E+03  2.81858E+03 -7.13542E+03  8.69132E+02 -6.13309E+03 -3.86610E+03 -3.33487E+02 -8.63060E+03
  4.48504E+03 -5.41666E+03  5.90748E+03 -2.23848E+03  6.04669E+03  1.97473E+03  4.04825E+03  4.20267E+03
 -3.52054E+02  6.27242E+03 -2.44690E+03  5.32722E+03 -3.42917E+03  3.12013E+03 -2.53034E+03 -5.77983E+02
 -1.56908E+03 -8.08166E+02 -2.19397E+03 -9.09802E+01 -3.53635E+03  1.77557E+03 -5.25261E+03 -5.71673E+02
 -2.51363E+03 -1.84118E+03 -1.12957E+03 -5.69307E+03  1.77192E+03 -5.97513E+03  7.03983E+03 -2.27088E+03
  5.89204E+03  6.19544E+02  2.99650E+03  2.72457E+03 -3.28354E+02  5.23477E+03 -5.02508E+03  3.92622E+03
