 $NMID ID='MM_0lb_SNR200_13hz_g50_72.RAW', FMTDAT='(8E13.5)'
 TRAMP=1., VOLUME=1. $END
  3.09739E+05 -9.40977E+02  3.37183E+05  2.49714E+05  8.45016E+04  3.38564E+05 -1.33063E+05  2.51450E+05
 -1.90874E+05  8.38498E+04 -1.12154E+05 -3.28785E+04  9.15407E+02 -4.95413E+04  5.31642E+04 -1.81723E+03
  3.53742E+04  5.31031E+04 -1.62782E+04  7.62331E+04 -6.18486E+04  6.43598E+04 -8.43767E+04  3.25150E+04
 -8.20710E+04 -1.17646E+04 -5.82178E+04 -4.98904E+04 -1.49496E+04 -6.95937E+04  2.67433E+04 -4.56681E+04
  3.97112E+04  3.14053E+03  1.61169E+04  4.87054E+04 -3.61080E+04  4.76301E+04 -6.79598E+04  1.11716E+03
 -5.42768E+04 -5.58474E+04 -7.17116E+03 -7.77101E+04  3.46110E+04 -5.49351E+04  4.70673E+04 -1.67312E+04
  4.37459E+04  1.05411E+04  3.11541E+04  2.54908E+04  1.56282E+04  3.03673E+04 -6.00483E+03  2.72577E+04
 -2.16971E+04  1.30092E+04 -1.79957E+04 -5.35344E+03  5.73775E+03 -7.00589E+03  2.31484E+04  1.32873E+04
  6.71732E+03  3.62682E+04 -3.18461E+04  3.64827E+04 -6.25262E+04  2.21034E+03 -5.73094E+04 -4.25670E+04
 -1.19944E+04 -6.43731E+04  3.89876E+04 -4.68075E+04  5.77134E+04 -1.35030E+03  3.45958E+04  3.37785E+04
 -6.27891E+03  3.61734E+04 -2.88112E+04  1.67630E+04 -3.15898E+04 -4.37518E+03 -1.77471E+04 -1.00613E+04
 -9.81963E+03 -1.31692E+04 -7.76709E+02 -1.93520E+04  8.48811E+03 -2.14920E+04  1.56250E+04 -1.31234E+04
  1.27456E+04  5.20679E+03 -9.51395E+03  1.28038E+04 -2.23699E+04 -4.40623E+03 -9.74599E+03 -3.54514E+04
  2.24243E+04 -4.50809E+04  4.86650E+04 -1.95728E+04  4.49749E+04  1.96150E+04  1.56101E+04  4.41101E+04
 -1.62555E+04  3.31882E+04 -2.61322E+04  1.59515E+03 -9.67428E+03 -2.82048E+04  2.06749E+04 -3.46590E+04
  4.26495E+04 -9.17342E+03  3.68323E+04  2.39160E+04  1.86142E+04  4.65650E+04 -8.02731E+03  5.08469E+04
 -3.22000E+04  3.42928E+04 -4.19270E+04  8.84165E+03 -4.34855E+04 -1.82675E+04 -2.31364E+04 -3.87190E+04
  7.01810E+03 -4.00063E+04  3.26748E+04 -1.50683E+04  2.84945E+04  1.01946E+04  4.45633E+03  1.98882E+04
 -1.41798E+04  8.82440E+03 -1.03306E+04 -9.18964E+03  6.25507E+03 -1.23455E+04  1.84467E+04  5.73313E+03
  1.31603E+04  2.24829E+04 -6.21701E+03  2.52333E+04 -2.27857E+04  1.13419E+04 -2.77557E+04 -4.87979E+03
 -2.32605E+04 -1.60228E+04 -8.80037E+03 -2.08456E+04  3.92950E+03 -2.08910E+04  1.74638E+04 -1.89999E+04
  2.71355E+04 -1.27265E+04  3.37199E+04  2.25796E+03  2.53917E+04  2.11073E+04  4.79058E+03  3.74641E+04
 -1.81517E+04  3.11239E+04 -2.86875E+04  1.10452E+04 -2.02284E+04 -9.52132E+03 -4.40147E+03 -1.28347E+04
  1.96688E+03 -1.99872E+03 -6.10272E+03  6.68121E+03 -1.74954E+04  5.84987E+03 -1.63112E+04 -7.79923E+03
 -9.43499E+03 -1.90640E+04  5.33506E+03 -2.39895E+04  1.69921E+04 -1.70596E+04  1.91411E+04 -1.01088E+03
  1.24024E+04  1.29395E+04 -1.64670E+03  2.13274E+04 -1.36145E+04  1.09964E+04 -2.01214E+04 -4.89145E+03
 -1.44855E+04 -1.93533E+04 -1.93405E+03 -2.44380E+04  1.09257E+04 -2.00223E+04  1.95438E+04 -1.16080E+04
  1.86840E+04 -6.02021E+01  1.32870E+04  5.33745E+03  8.32131E+03  1.11513E+03  1.06797E+04 -2.02160E+03
  1.83252E+04  1.83734E+03  2.11265E+04  1.62220E+04  1.27514E+04  3.29558E+04 -3.06480E+03  3.60675E+04
 -2.02075E+04  3.00190E+04 -3.35213E+04  1.43759E+04 -3.48406E+04 -3.25511E+03 -3.02350E+04 -2.06990E+04
 -1.27351E+04 -3.05593E+04  1.00550E+04 -2.67574E+04  2.31392E+04 -1.25729E+04  1.98949E+04  5.11446E+03
  6.04040E+03  1.48920E+04 -9.69077E+03  1.27511E+04 -1.79803E+04  3.26521E+03 -1.20685E+04 -1.13226E+04
  4.52683E+02 -1.59145E+04  8.81900E+03 -1.10628E+04  1.03468E+04 -1.32409E+03  3.26255E+03  6.82762E+03
 -6.21749E+03  2.74961E+03 -7.16472E+03 -6.37093E+03 -1.98023E+03 -1.44624E+04  9.31575E+03 -1.61469E+04
  1.81626E+04 -8.71226E+03  2.08701E+04  1.68461E+03  1.68598E+04  1.40710E+04  9.49765E+03  2.25075E+04
 -4.39324E+03  2.39914E+04 -1.59433E+04  1.57599E+04 -1.81449E+04  3.11187E+03 -1.33968E+04 -4.16836E+03
 -6.05324E+03 -5.50141E+03  3.76511E+02  1.16302E+03 -2.82600E+03  2.83803E+03 -6.10698E+03  5.02377E+03
 -1.16988E+04 -1.83306E+03 -1.16160E+04 -1.04314E+04 -4.86460E+03 -1.53928E+04  3.79588E+03 -1.15640E+04
  9.52078E+03 -4.64435E+03  7.28030E+03  2.96133E+03  1.25372E+03  4.44325E+03 -5.98637E+03  1.21863E+03
 -5.02503E+03 -8.04602E+03  3.86177E+02 -1.18473E+04  5.54419E+03 -1.24891E+04  1.42613E+04 -5.00492E+03
  1.81185E+04  2.71563E+03  1.31383E+04  9.49286E+03  2.22908E+03  1.35668E+04 -7.15312E+03  1.24823E+04
 -1.06097E+04  3.84805E+03 -5.62245E+03 -2.11681E+03  2.39562E+03 -3.83501E+03  5.87146E+03 -4.83177E+02
  4.96482E+03  4.94932E+03  1.92695E+03  9.31957E+03 -7.36921E+03  1.04332E+04 -1.15085E+04  6.02944E+02
 -8.03302E+03 -4.82482E+03 -1.52907E+02 -9.66282E+03  5.76593E+03 -5.89299E+03  6.19806E+03  3.31353E+03
  2.10631E+03  8.12147E+03 -6.23928E+03  8.94823E+03 -9.03491E+03  1.98528E+03 -8.58198E+03 -3.14651E+03
 -6.17661E+03 -1.10663E+04  3.25812E+03 -1.21330E+04  1.11565E+04 -6.53667E+03  1.17848E+04  1.34590E+03
  7.43363E+03  1.01008E+04 -3.70510E+02  1.04173E+04 -8.82683E+03  6.67478E+03 -8.35818E+03 -1.27495E+03
 -8.70538E+03 -8.18331E+03 -6.56548E+02 -7.98286E+03  5.22874E+03 -6.43774E+03  5.55650E+03 -4.27834E+03
  3.40349E+03  9.05419E+02 -5.49945E+02  1.08088E+03 -1.96747E+02 -2.17094E+03  5.70281E+02 -4.24581E+03
  6.59587E+03 -2.66731E+03  1.02897E+04  8.62167E+02  1.11993E+04  6.72459E+03  8.22850E+03  1.35247E+04
 -3.52480E+03  1.63467E+04 -1.50319E+04  1.27088E+04 -1.80873E+04  2.60851E+03 -1.45952E+04 -5.43266E+03
 -7.81215E+03 -1.22745E+04  3.58859E+02 -1.06395E+04  3.16115E+03 -5.72829E+03  4.64295E+03 -4.35019E+03
  1.81145E+03 -1.31765E+03  1.85651E+03 -3.76049E+03  4.55954E+03 -2.75510E+03  5.53581E+03 -3.37402E+02
  7.75930E+03  1.64011E+03  2.92476E+03  6.50589E+03 -2.30492E+03  7.21157E+03 -8.68525E+03  5.04711E+03
 -9.11491E+03 -9.21635E+02 -5.92883E+03 -7.26972E+03  7.56136E+02 -1.07676E+04  6.01385E+03 -1.09652E+04
  1.17040E+04 -5.27122E+03  1.28665E+04  1.40943E+03  9.94524E+03  8.13697E+03  2.01415E+03  1.04191E+04
 -3.75543E+03  8.53716E+03 -6.44115E+03  2.83033E+03 -4.86791E+03 -2.36763E+03 -6.61429E+02 -1.59738E+03
 -5.87424E+02 -7.24248E+02 -1.59292E+03  2.51821E+03 -4.17952E+03  1.54600E+03 -6.54762E+03 -1.30877E+03
 -4.85843E+03 -7.38176E+03  5.04131E+02 -8.80811E+03  5.46401E+03 -9.34671E+03  8.45089E+03 -2.94819E+03
  9.73895E+03  5.57189E+03  4.47309E+03  8.44355E+03 -2.62182E+03  8.56866E+03 -7.04100E+03  6.08972E+03
 -8.58980E+03  5.09548E+02 -6.97076E+03 -6.08049E+03 -1.25078E+03 -7.50946E+03  4.34717E+03 -5.32120E+03
  5.78017E+03 -1.92699E+03  3.00226E+03 -3.08597E+02  2.19744E+03  2.77691E+03  8.98178E+02  7.19351E+02
  2.62556E+03 -4.84647E+02  1.50795E+03  9.57695E+02  2.33026E+03  4.27200E+03  2.41817E+03  3.90870E+03
 -2.34507E+03  7.03612E+03 -5.53290E+03  7.20638E+03 -8.97773E+03  2.64141E+03 -9.87269E+03 -4.70112E+03
 -4.94017E+03 -1.04618E+04  1.01590E+03 -1.03653E+04  5.94962E+03 -5.54298E+03  8.09903E+03 -1.77105E+03
  4.27308E+03  2.57350E+03  1.56448E+03  5.47306E+03 -2.92748E+03  2.26428E+03 -2.40938E+03  5.92124E+02
 -1.51602E+03 -4.62351E+03  1.46591E+03 -4.42271E+03  3.09569E+03 -2.87719E+03  2.11326E+03 -1.74075E+02
  1.98452E+03 -2.19552E+02  2.20691E+03  3.81575E+02 -1.00933E+03  2.92092E+02  7.33158E+02 -3.43910E+02
  1.77951E+03 -1.72943E+03  3.75641E+03  1.84402E+03  1.39429E+03  4.67751E+03 -1.90131E+01  6.15748E+03
 -3.60960E+03  2.47109E+03 -4.91354E+03  1.06758E+03 -5.26336E+03 -1.42263E+03 -9.01158E+02 -3.31951E+03
  1.60279E+01 -3.13584E+03  3.18739E+03 -2.17834E+03  1.42049E+03  2.67159E+03 -2.02713E+03  2.58494E+03
 -2.82824E+03  2.19019E+03 -4.49822E+03 -3.44796E+03 -2.78382E+03 -4.73712E+03  4.04879E+02 -4.73364E+03
  2.74705E+03 -1.59188E+03  3.40153E+03 -1.18856E+02  2.13138E+03  1.00702E+03 -1.04244E+00  2.88738E+03
 -1.09089E+03 -2.16501E+02 -2.13613E+03 -2.74564E+03  2.05766E+03 -2.71716E+03  4.93719E+03 -3.25875E+03
  4.67177E+03  1.34242E+03  5.26441E+03  2.74128E+03  2.86816E+03  5.59172E+03 -2.40750E+03  5.19971E+03
 -5.01996E+03  1.61629E+03 -3.84096E+03 -5.53270E+02 -1.56814E+03 -2.68164E+03  1.34002E+03 -4.22009E+03
  2.59336E+03 -1.83009E+03  2.43164E+03  2.11826E+03  4.56527E+02  3.10312E+03 -5.05702E+02  2.84637E+03
 -9.07543E+02  2.03643E+03 -1.43337E+03  3.11223E+02  1.12169E+03  4.72493E+02 -1.38096E+03  2.28092E+03
 -1.96499E+03  2.70758E+03 -4.24579E+03  2.06374E+03 -4.64270E+03 -4.94508E+02 -4.00325E+03 -3.06645E+03
 -2.78106E+03 -7.41998E+03  1.59084E+03 -7.11926E+03  4.15882E+03 -6.56577E+03  6.82585E+03 -2.42999E+03
  6.69268E+03 -1.24941E+02  4.47990E+03  3.81227E+03  4.98182E+02  5.72515E+03 -1.13276E+03  3.27561E+03
 -2.58858E+03  1.66663E+03 -2.56725E+03 -1.24318E+02 -2.99426E+02 -3.75527E+02 -9.85972E+02 -2.92575E+02
 -1.89099E+03  5.86637E+02 -2.22229E+03 -3.66098E+02 -5.67709E+02 -1.99794E+03 -1.41890E+03 -1.21439E+03
  3.02117E+03 -1.61619E+03  3.57790E+03  2.03276E+02  3.40883E+03  2.02285E+03  2.75786E+03  5.01678E+03
 -1.84220E+03  5.27821E+03 -6.09074E+03  2.67180E+03 -6.00776E+03 -9.08192E+02 -3.21904E+03 -4.25429E+03
 -1.69575E+03 -4.05221E+03  1.03191E+03 -4.16567E+03  4.29396E+03 -3.40784E+03  2.66602E+03 -1.98642E+02
  2.32115E+03  1.36664E+03  2.29088E+02  1.55715E+03  2.67372E+02 -1.75257E+02 -1.54724E+03 -1.46366E+03
  7.77864E+02 -4.46761E+02  2.03381E+03  8.29067E+02  5.87548E+02  2.25732E+03  2.37692E+02  3.59873E+03
 -1.43962E+03  1.76705E+03 -1.96307E+03 -7.41914E+02 -2.61144E+03 -2.03341E+03 -6.25514E-01 -4.31006E+03
  1.32010E+03 -2.84635E+03  4.44931E+03 -1.52241E+03  3.86891E+03 -5.94485E+01  2.91719E+03  1.91988E+03
  2.96815E+01  2.72990E+03  8.54422E+01  2.30736E+03 -1.90575E+03  2.01394E+03 -2.01780E+03  7.02097E+02
 -5.81475E+02 -3.65858E+02 -1.38151E+02  8.15286E+02 -1.98883E+03  2.12997E+02 -1.04973E+03 -1.35376E+02
 -2.62028E+03 -7.42375E+02 -1.01408E+03 -2.02238E+03  3.09973E+02 -4.96896E+03  2.41730E+03 -1.24545E+03
  2.85896E+03  7.85933E+01  1.69742E+03  2.79311E+03 -2.66632E+02  2.47200E+03 -2.68709E+03  1.51775E+03
