 $NMID ID='MM_0lb_SNR200_15hz_g50_13.RAW', FMTDAT='(8E13.5)'
 TRAMP=1., VOLUME=1. $END
  3.10397E+05  6.55224E+02  3.37685E+05  2.51160E+05  8.54008E+04  3.38376E+05 -1.32549E+05  2.50769E+05
 -1.89505E+05  8.36969E+04 -1.12629E+05 -3.18199E+04  1.39347E+03 -5.05086E+04  5.39771E+04  3.94019E+01
  3.52844E+04  5.16779E+04 -1.77845E+04  7.53304E+04 -6.00309E+04  6.37876E+04 -8.46059E+04  3.13405E+04
 -7.94624E+04 -1.17998E+04 -5.71883E+04 -5.13115E+04 -1.49990E+04 -6.98187E+04  2.68432E+04 -4.55293E+04
  4.00379E+04  4.41207E+03  1.58495E+04  4.68352E+04 -3.43745E+04  4.55197E+04 -6.56027E+04 -4.58606E+02
 -5.30906E+04 -5.69933E+04 -6.86945E+03 -7.70786E+04  3.37424E+04 -5.52096E+04  4.67220E+04 -1.76748E+04
  4.32106E+04  1.24636E+04  3.20257E+04  2.53698E+04  1.69654E+04  2.91252E+04 -5.19198E+03  2.75079E+04
 -2.13332E+04  1.27373E+04 -1.81840E+04 -4.93708E+03  5.16556E+03 -8.42720E+03  2.15906E+04  1.13395E+04
  7.50864E+03  3.44417E+04 -3.17015E+04  3.66518E+04 -6.35158E+04  2.47693E+03 -5.57647E+04 -4.18302E+04
 -1.24615E+04 -6.24874E+04  3.95633E+04 -4.53098E+04  5.89155E+04 -2.26216E+03  3.35681E+04  3.26445E+04
 -5.90492E+03  3.54401E+04 -2.93186E+04  1.54575E+04 -2.93141E+04 -4.35342E+03 -1.60954E+04 -1.21589E+04
 -8.56540E+03 -1.21101E+04 -1.67043E+03 -1.93140E+04  8.00544E+03 -2.27685E+04  1.50040E+04 -1.34354E+04
  1.11822E+04  4.17564E+03 -7.89634E+03  1.29761E+04 -2.08414E+04 -3.85655E+03 -8.52933E+03 -3.28485E+04
  2.26453E+04 -4.33347E+04  4.83899E+04 -1.94681E+04  4.55440E+04  2.02426E+04  1.52209E+04  4.44016E+04
 -1.56017E+04  3.36508E+04 -2.46232E+04  1.24688E+03 -9.37260E+03 -2.83745E+04  2.15414E+04 -3.25702E+04
  4.04950E+04 -9.59993E+03  3.43898E+04  2.28107E+04  1.76156E+04  4.59377E+04 -8.56173E+03  4.96922E+04
 -3.09151E+04  3.29383E+04 -4.05789E+04  9.48679E+03 -4.31477E+04 -1.64787E+04 -2.21001E+04 -3.79445E+04
  6.99561E+03 -3.84017E+04  3.04569E+04 -1.28264E+04  2.79153E+04  1.08391E+04  3.53778E+03  1.97859E+04
 -1.14378E+04  8.50977E+03 -9.99681E+03 -7.28419E+03  5.70776E+03 -1.01810E+04  1.79954E+04  6.50965E+03
  1.30126E+04  2.32134E+04 -6.46805E+03  2.43583E+04 -2.21827E+04  1.13201E+04 -2.74595E+04 -4.85450E+03
 -1.94538E+04 -1.72775E+04 -7.91863E+03 -1.92967E+04  4.52307E+03 -1.81392E+04  1.58685E+04 -1.76822E+04
  2.60051E+04 -1.19857E+04  3.22203E+04  1.84572E+03  2.23626E+04  1.89060E+04  4.52798E+03  3.54924E+04
 -1.75438E+04  3.03717E+04 -2.69299E+04  1.04611E+04 -2.05000E+04 -1.14342E+04 -3.52857E+03 -1.46081E+04
  2.50043E+03 -2.91214E+03 -5.61277E+03  5.86681E+03 -1.59242E+04  5.67591E+03 -1.51137E+04 -7.04093E+03
 -9.59043E+03 -1.87572E+04  4.84261E+03 -2.26014E+04  1.47834E+04 -1.68870E+04  1.83641E+04 -1.55387E+03
  9.72427E+03  1.22109E+04 -1.02139E+03  1.93235E+04 -1.22734E+04  1.01106E+04 -1.84168E+04 -3.91942E+03
 -1.35276E+04 -1.72854E+04 -1.37185E+03 -2.28898E+04  1.06803E+04 -1.80204E+04  1.84543E+04 -9.55193E+03
  1.69120E+04  2.27655E+02  1.30926E+04  5.15972E+03  6.44404E+03  1.57721E+03  9.39082E+03 -2.82860E+03
  1.59980E+04  2.33876E+03  1.84725E+04  1.47426E+04  1.14442E+04  2.99162E+04 -2.86448E+03  3.23494E+04
 -1.84001E+04  2.60934E+04 -3.12997E+04  1.31198E+04 -3.09257E+04 -1.74363E+03 -2.63409E+04 -1.76481E+04
 -1.13184E+04 -2.64912E+04  8.98623E+03 -2.36684E+04  1.96859E+04 -1.22763E+04  1.87900E+04  5.36411E+03
  8.04399E+03  1.38328E+04 -8.68295E+03  1.34389E+04 -1.67153E+04  1.93678E+03 -1.21748E+04 -9.79414E+03
 -2.01688E+02 -1.53631E+04  7.51349E+03 -1.07411E+04  1.07390E+04 -1.17977E+03  1.18091E+03  5.29567E+03
 -6.65238E+03  2.35896E+03 -5.73452E+03 -4.62963E+03  8.50247E+02 -1.31201E+04  9.53861E+03 -1.38211E+04
  1.64393E+04 -6.78364E+03  1.65743E+04  2.57879E+03  1.36491E+04  1.31507E+04  6.54090E+03  1.92703E+04
 -2.81872E+03  2.10511E+04 -1.26861E+04  1.33979E+04 -1.52252E+04  2.69386E+03 -9.91139E+03 -3.91613E+03
 -4.99930E+03 -4.32428E+03 -3.28229E+02  1.16558E+03 -2.75925E+03  2.84237E+03 -3.82244E+03  3.95648E+03
 -1.01732E+04 -8.23210E+02 -1.05595E+04 -8.78855E+03 -3.53369E+03 -1.33389E+04  4.67966E+03 -1.11182E+04
  8.78309E+03 -4.68990E+03  6.59475E+03  2.42263E+03  5.75029E+02  3.01997E+03 -6.51702E+03 -3.80615E+02
 -5.36686E+03 -7.60243E+03 -9.21619E+02 -9.12983E+03  5.63595E+03 -1.10532E+04  1.21912E+04 -6.62832E+03
  1.57552E+04  7.42029E+02  1.22523E+04  9.16442E+03  1.84114E+03  1.16127E+04 -5.91707E+03  1.10338E+04
 -8.02102E+03  3.44379E+03 -4.34250E+03 -7.76378E+01  1.46355E+03 -2.08703E+03  5.54905E+03 -1.34974E+03
  3.82895E+03  4.07647E+03  5.40546E+02  7.85167E+03 -6.15093E+03  8.07554E+03 -9.05547E+03  2.11970E+03
 -6.30333E+03 -4.73912E+03  1.12809E+02 -8.70915E+03  4.57198E+03 -5.21222E+03  5.45805E+03  2.44973E+03
  1.96175E+03  4.88670E+03 -6.57914E+03  6.60300E+03 -6.55889E+03  2.36696E+03 -7.44988E+03 -1.30937E+03
 -5.66983E+03 -8.19419E+03  1.58837E+03 -1.07824E+04  8.73487E+03 -6.76053E+03  1.03102E+04  1.35835E+03
  6.61665E+03  8.30273E+03  9.56695E+02  9.91368E+03 -6.80829E+03  5.92404E+03 -8.10354E+03  2.50103E+02
 -7.50595E+03 -7.88386E+03 -5.05816E+02 -6.98582E+03  3.60748E+03 -6.77736E+03  5.71097E+03 -2.74017E+03
  1.99327E+03  8.48131E+02  1.56698E+03  1.79390E+03 -1.09704E+03 -1.17468E+03  1.75092E+03 -3.73969E+03
  5.77966E+03 -2.88447E+03  9.24173E+03  1.14728E+03  9.94270E+03  4.88112E+03  6.55113E+03  1.21705E+04
 -1.21503E+03  1.29154E+04 -1.08112E+04  9.22232E+03 -1.24989E+04  1.78229E+03 -1.12360E+04 -4.17930E+03
 -4.85680E+03 -9.01150E+03 -7.06194E+02 -7.90189E+03  2.38262E+03 -3.75827E+03  1.16969E+03 -3.61306E+03
  1.47401E+03 -2.10909E+03  2.94460E+03 -2.90276E+03  4.09391E+03 -2.15820E+03  5.40721E+03  1.27845E+03
  5.64309E+03  2.58863E+02  1.80182E+03  6.04328E+03 -2.06587E+03  5.45959E+03 -6.04884E+03  3.86824E+03
 -8.09535E+03 -8.53372E+02 -3.46072E+03 -5.34092E+03  6.79984E+02 -7.76721E+03  4.90537E+03 -7.48640E+03
  8.05869E+03 -4.13612E+03  1.00763E+04  1.29307E+03  6.48082E+03  6.64230E+03  1.21210E+03  9.48292E+03
 -3.74067E+03  8.21193E+03 -4.49837E+03  2.72662E+03 -3.00183E+03 -1.64860E+03 -1.91835E+03 -1.33352E+03
 -1.38030E+03 -1.47617E+02 -1.91114E+03  2.92916E+03 -2.67086E+03  1.57331E+03 -6.86735E+03 -3.15053E+02
 -4.42219E+03 -6.44091E+03  1.32916E+03 -8.07586E+03  4.31001E+03 -7.04327E+03  5.87690E+03 -2.00842E+03
  6.61739E+03  3.88882E+03  2.73784E+03  5.59428E+03 -2.37109E+03  9.38273E+03 -5.78289E+03  4.34897E+03
 -6.79619E+03  1.55021E+03 -5.38489E+03 -4.60292E+03 -1.18591E+03 -5.06614E+03  2.19229E+03 -3.40446E+03
  4.15268E+03 -8.96344E+02  2.79167E+03  9.81786E+02  1.85523E+03  1.67256E+03  9.64281E+02  1.16395E+03
  2.22084E+03  6.51206E+02  2.08775E+03  9.47724E+02  2.57482E+03  3.11996E+03  1.92008E+03  2.14430E+03
 -1.52694E+03  5.66892E+03 -3.66646E+03  5.85507E+03 -5.99500E+03  1.91729E+03 -7.81133E+03 -2.77149E+03
 -1.63183E+03 -7.31827E+03  1.82036E+03 -7.99606E+03  4.13599E+03 -4.47604E+03  5.89492E+03 -1.99721E+03
  5.29122E+03  2.82952E+03 -2.65930E+02  2.64740E+03 -1.60632E+03  2.46777E+03 -2.14059E+03 -3.54594E+02
 -1.06858E+03 -3.37327E+03  1.79738E+03 -2.97474E+03  3.34100E+03 -1.22634E+03  2.63936E+03  1.16060E+03
  1.96202E+03  8.51715E+02  5.08143E+02  1.96574E+03 -2.41138E+02  6.15010E+02  1.05165E+03 -7.94069E+02
  5.79155E+02 -9.23486E+02  2.78933E+03  1.70028E+03  9.73899E+02  4.27543E+03 -1.26620E+03  4.36586E+03
 -3.41850E+03  2.42403E+03 -3.85159E+03  5.39225E+02 -3.61277E+03 -7.63946E+02 -1.77127E+02 -1.89124E+03
 -8.25145E+01 -2.71919E+03  1.09838E+03 -1.11161E+03  2.51827E+03  4.96880E+02 -8.85342E+02  1.45213E+03
 -2.40691E+03  2.05613E+03 -2.77423E+03 -1.12591E+03 -7.96392E+02 -2.78511E+03  9.18507E+02 -3.53057E+03
  1.83340E+03 -2.00238E+03  2.04980E+03 -8.37022E+02  1.27616E+03  3.73636E+02 -4.82433E+01  2.33881E+03
 -4.60552E+02 -7.64787E+02 -2.75287E+03 -3.67286E+02  1.78294E+03 -1.87220E+03  2.72440E+03 -1.80446E+03
  3.06031E+03  1.04986E+03  4.03936E+03  2.28148E+03  2.51286E+03  2.37963E+03 -1.65537E+03  3.21843E+03
 -3.12661E+03  1.17342E+03 -3.99273E+03  1.53355E+02 -1.64612E+03 -2.32156E+03  1.08223E+03 -1.71827E+03
  3.27455E+03 -1.92402E+03  2.32185E+03  7.32788E+02  1.43535E+03  2.14844E+03 -4.78316E+01  1.51147E+03
 -2.34158E+03  7.27515E+02 -2.10654E+02  6.63471E+02 -4.97871E+02  1.11860E+03 -3.92265E+02  1.14676E+03
  8.09008E+02  1.53594E+03 -3.03785E+03  4.23210E+02 -2.71902E+03  2.63615E+02 -4.57020E+03 -3.54041E+03
 -3.00973E+03 -4.63766E+03  1.56521E+03 -4.63434E+03  2.69258E+03 -3.85914E+03  5.57691E+03 -1.89198E+03
  4.60918E+03  1.18139E+03  1.92066E+03  3.05444E+03 -1.27659E+02  4.13711E+03 -2.44112E+02  1.94088E+03
 -2.15213E+03  3.25597E+02 -2.00773E+03  8.20435E+02 -3.87398E+02  1.03185E+03 -8.06836E+02  4.68409E+02
  1.98189E+01 -2.85903E+02 -1.74957E+03  6.19480E+02 -1.44279E+01 -1.04359E+03 -8.99142E+02 -1.60626E+03
  1.43647E+03  3.02307E+02  2.55390E+03  4.10399E+02  2.80542E+03  1.94755E+03  1.87250E+03  4.08137E+03
  3.81533E+02  3.62791E+03 -3.81370E+03  3.15489E+03 -4.51229E+03  4.50971E+02 -3.75799E+03 -2.45621E+03
 -1.95215E+03 -3.19995E+03  1.28572E+03 -3.11198E+03  2.22360E+03 -7.88219E+02  8.17024E+02 -5.74112E+02
  1.36658E+03  4.66570E+02  6.34864E+02  9.76452E+02 -1.01825E+03  1.10258E+03  1.93109E+01 -1.15705E+03
  1.13363E+03  5.20896E+02  2.86443E+02  3.80549E+02  2.93521E+02  1.25974E+03  6.53923E+02  7.87994E+02
 -1.69430E+03  1.80078E+03 -2.07337E+03  5.02843E+02 -1.75806E+03 -4.50686E+02 -1.17585E+03 -2.65612E+03
  4.23601E+02 -1.46453E+03  1.07300E+03 -6.61887E+02  2.60214E+03 -1.12032E+03  2.15011E+03  1.80685E+03
  1.16137E+03  1.20742E+03 -1.08495E+03  1.78655E+03 -1.60024E+03  1.08038E+03 -6.88902E+02  5.65729E+02
  7.70229E+02 -1.08004E+03 -9.01321E+02  6.77920E+02 -1.54564E+03  2.29470E+02 -1.79013E+03  3.46472E+02
 -9.61344E+02 -4.47682E+02 -5.15487E+02 -7.62796E+02  1.53210E+03 -2.44809E+03  1.45400E+03 -3.77179E+02
  1.49967E+03  2.84381E+02  1.31571E+03  1.13540E+03 -4.19158E+02  2.35725E+03 -1.09198E+03  2.12828E+02
