 $NMID ID='MM_0lb_SNR200_16hz_g45_10.RAW', FMTDAT='(8E13.5)'
 TRAMP=1., VOLUME=1. $END
  3.09583E+05  9.71039E+02  3.38578E+05  2.50583E+05  8.51590E+04  3.38177E+05 -1.33197E+05  2.50028E+05
 -1.90204E+05  8.19066E+04 -1.10722E+05 -3.12642E+04  5.33128E+02 -5.07157E+04  5.36309E+04  2.38289E+02
  3.60628E+04  5.35693E+04 -1.63368E+04  7.39726E+04 -6.01602E+04  6.36536E+04 -8.41997E+04  3.16744E+04
 -7.97096E+04 -1.01048E+04 -5.62804E+04 -5.14635E+04 -1.46634E+04 -6.85656E+04  2.75394E+04 -4.52896E+04
  3.86688E+04  4.15732E+03  1.66822E+04  4.70459E+04 -3.46558E+04  4.68533E+04 -6.63238E+04 -3.74375E+02
 -5.21961E+04 -5.65109E+04 -5.54930E+03 -7.63645E+04  3.33111E+04 -5.50523E+04  4.68225E+04 -1.53603E+04
  4.17411E+04  1.08701E+04  3.10829E+04  2.59524E+04  1.52188E+04  2.90857E+04 -5.33182E+03  2.76322E+04
 -2.17760E+04  1.34753E+04 -1.84407E+04 -3.72599E+03  6.21999E+03 -7.84179E+03  2.15156E+04  1.07034E+04
  7.61404E+03  3.40300E+04 -3.23413E+04  3.55412E+04 -6.08080E+04  2.27906E+03 -5.50550E+04 -4.24260E+04
 -1.17976E+04 -6.18703E+04  4.00874E+04 -4.46285E+04  5.74539E+04 -1.49645E+03  3.25825E+04  3.09572E+04
 -5.48108E+03  3.48420E+04 -2.80062E+04  1.40431E+04 -2.82213E+04 -5.38609E+03 -1.54575E+04 -1.17649E+04
 -8.35539E+03 -1.24851E+04 -5.55128E+02 -1.61681E+04  6.81989E+03 -2.30872E+04  1.45333E+04 -1.34612E+04
  1.23474E+04  4.71221E+03 -7.77372E+03  1.23393E+04 -2.01621E+04 -2.94318E+03 -7.84148E+03 -3.21344E+04
  2.07657E+04 -4.22390E+04  4.56626E+04 -1.87714E+04  4.36030E+04  1.83759E+04  1.50983E+04  4.25167E+04
 -1.52941E+04  3.21233E+04 -2.39423E+04  7.69747E+02 -8.30368E+03 -2.82159E+04  2.12509E+04 -3.29271E+04
  4.00390E+04 -7.74971E+03  3.27231E+04  2.29841E+04  1.61709E+04  4.45627E+04 -6.38492E+03  4.74802E+04
 -2.88898E+04  3.18973E+04 -3.98822E+04  8.96387E+03 -4.11051E+04 -1.61004E+04 -2.30300E+04 -3.53257E+04
  7.04894E+03 -3.62694E+04  3.04217E+04 -1.36310E+04  2.80281E+04  1.19339E+04  3.61728E+03  1.87784E+04
 -1.24695E+04  8.36958E+03 -9.74062E+03 -7.71273E+03  6.61912E+03 -1.04899E+04  1.67197E+04  6.86971E+03
  1.25230E+04  2.22367E+04 -5.32232E+03  2.44845E+04 -2.21666E+04  1.04984E+04 -2.62182E+04 -5.00506E+03
 -1.95528E+04 -1.65821E+04 -6.68370E+03 -1.87745E+04  3.15497E+03 -1.69175E+04  1.37417E+04 -1.71932E+04
  2.39322E+04 -1.26665E+04  2.97823E+04  2.41197E+03  2.11550E+04  1.88510E+04  4.24069E+03  3.42411E+04
 -1.66610E+04  2.80033E+04 -2.56814E+04  1.09240E+04 -1.97221E+04 -1.08328E+04 -4.68939E+03 -1.35250E+04
  1.36542E+03 -4.36290E+03 -2.19602E+03  5.24635E+03 -1.49200E+04  3.79401E+03 -1.57052E+04 -5.02816E+03
 -9.90542E+03 -1.74439E+04  4.88783E+03 -2.10947E+04  1.51336E+04 -1.52443E+04  1.63823E+04 -1.67395E+03
  1.03778E+04  1.29249E+04 -1.21653E+03  1.68678E+04 -1.10837E+04  1.04015E+04 -1.83969E+04 -3.74631E+03
 -1.42761E+04 -1.62322E+04 -1.54687E+03 -2.10531E+04  8.95466E+03 -1.74107E+04  1.83364E+04 -7.78776E+03
  1.71476E+04  4.25147E+02  9.62528E+03  4.58068E+03  6.26304E+03 -5.02126E+02  8.10512E+03 -1.19981E+03
  1.55463E+04  2.86177E+03  1.65697E+04  1.50150E+04  8.95453E+03  2.61518E+04 -3.48348E+03  2.97077E+04
 -1.68557E+04  2.38128E+04 -2.65417E+04  1.11127E+04 -2.91891E+04 -1.22455E+03 -2.45206E+04 -1.66785E+04
 -1.09281E+04 -2.38571E+04  7.56859E+03 -2.20041E+04  1.96642E+04 -1.21929E+04  1.76178E+04  4.36077E+03
  6.95877E+03  1.35297E+04 -7.42245E+03  1.13328E+04 -1.40211E+04  2.86148E+03 -1.10446E+04 -9.11995E+03
 -6.21647E+02 -1.36796E+04  7.17184E+03 -9.56047E+03  8.71848E+03 -1.05802E+03  1.59368E+03  6.30519E+03
 -5.29251E+03  8.36299E+02 -3.92482E+03 -5.23957E+03  8.66249E+00 -1.13201E+04  9.00229E+03 -1.18979E+04
  1.26428E+04 -6.09925E+03  1.42893E+04  3.21629E+03  1.21540E+04  1.10260E+04  5.68139E+03  1.72940E+04
 -1.93309E+03  1.90215E+04 -1.18319E+04  1.23951E+04 -1.24304E+04  3.17936E+03 -9.32237E+03 -2.07063E+03
 -4.92885E+03 -4.41010E+03 -9.37879E+02  2.01669E+03 -2.08800E+03  2.17116E+03 -4.85183E+03  3.47912E+03
 -1.00853E+04 -8.31895E+02 -9.44593E+03 -7.26043E+03 -5.11629E+03 -1.30074E+04  4.32404E+03 -1.01430E+04
  8.64297E+03 -3.93949E+03  6.22964E+03  1.76810E+03  1.36920E+03  2.82793E+03 -4.46053E+03 -5.11286E+02
 -5.10833E+03 -5.73041E+03 -1.22297E+03 -8.97062E+03  4.57287E+03 -8.93916E+03  1.10608E+04 -4.94339E+03
  1.38598E+04  1.16070E+03  9.68745E+03  7.58659E+03  2.39938E+03  1.10223E+04 -6.44047E+03  9.57634E+03
 -7.54103E+03  2.56397E+03 -3.20015E+03 -1.62420E+03  8.36344E+02 -2.40972E+03  4.77108E+03 -1.47050E+03
  5.06081E+03  3.08774E+03  1.42402E+03  7.52638E+03 -5.40065E+03  7.85492E+03 -8.85966E+03  2.09511E+03
 -5.02897E+03 -3.97995E+03 -8.33437E+01 -8.42649E+03  4.44361E+03 -3.76620E+03  4.62065E+03  1.65495E+03
  2.17658E+02  4.61305E+03 -3.69043E+03  5.29101E+03 -5.80595E+03  2.26903E+03 -5.52622E+03 -2.31827E+03
 -3.16273E+03 -7.37200E+03  1.70739E+03 -9.46997E+03  7.31125E+03 -6.82910E+03  7.48286E+03  1.17905E+03
  5.69397E+03  7.33721E+03 -9.14726E+02  7.97014E+03 -5.67201E+03  5.75293E+03 -7.35361E+03 -1.26408E+03
 -5.59734E+03 -5.95541E+03 -1.14909E+03 -6.63230E+03  2.92683E+03 -6.28889E+03  3.19424E+03 -3.62490E+03
  2.19262E+03  7.50423E+02 -9.96979E+02  6.05102E+02  5.62630E+02 -1.96997E+03 -2.25951E+02 -2.78237E+03
  4.87562E+03 -2.31063E+03  7.29289E+03  1.46309E+03  7.05549E+03  4.25287E+03  5.45323E+03  9.81940E+03
 -8.38275E+02  9.62715E+03 -1.02935E+04  8.94503E+03 -1.22214E+04  9.70496E+02 -8.33189E+03 -5.09431E+03
 -6.17242E+03 -8.02224E+03  3.83080E+01 -7.76710E+03  2.94971E+03 -3.79653E+03  2.28048E+03 -2.89329E+03
  4.84432E+02 -1.35052E+03  1.35968E+03 -2.77977E+03  4.61499E+03 -1.54975E+03  4.35447E+03 -3.94160E+02
  5.94887E+03  1.96338E+03  2.55156E+03  3.93134E+03 -1.51632E+03  4.43134E+03 -6.10271E+03  4.11704E+03
 -6.63169E+03 -9.02577E+02 -3.23872E+03 -3.97590E+03  1.22890E+03 -6.16984E+03  4.50704E+03 -7.04110E+03
  5.54734E+03 -4.47598E+03  9.68188E+03  1.47394E+03  6.07077E+03  5.57062E+03  1.16421E+03  7.80081E+03
 -2.57279E+03  6.26881E+03 -4.41949E+03  1.82791E+03 -1.91080E+03 -1.19495E+03  4.42729E+02 -6.85070E+02
 -5.10190E+02 -4.50428E+01 -1.09442E+03  2.51355E+03 -2.31839E+03  2.18448E+03 -4.33742E+03 -2.18281E+02
 -1.65236E+03 -4.48835E+03  6.32789E+02 -6.18538E+03  3.79685E+03 -4.58506E+03  5.19579E+03 -1.05216E+03
  5.33603E+03  2.31673E+03  1.67375E+03  4.07504E+03 -1.60433E+03  5.94198E+03 -3.81897E+03  2.90450E+03
 -5.13432E+03 -3.71245E+02 -5.34609E+03 -3.03082E+03  9.01698E+02 -4.95320E+03  2.39071E+03 -1.91509E+03
  4.01213E+03 -1.30845E+03  2.76259E+03  4.49978E+02  1.12398E+03  1.96310E+03  3.76558E+02  2.90381E+02
  2.40312E+02 -4.69898E+01  2.96274E+03  1.45301E+03  1.70735E+03  1.27167E+03  1.07911E+03  3.38325E+03
 -1.65639E+03  4.18199E+03 -4.63447E+03  5.19462E+03 -5.31116E+03  1.50696E+03 -5.56552E+03 -2.30512E+03
 -1.24911E+03 -4.54581E+03  7.90939E+02 -6.31409E+03  1.64579E+03 -3.15633E+03  3.92785E+03 -6.74118E+01
  3.64866E+03  1.43574E+03  6.23212E+02  3.57324E+03 -8.72333E+02  1.48400E+03 -1.61413E+03 -6.80963E+02
 -7.95945E+00 -2.29297E+03  8.70352E+02 -2.15767E+03  2.92951E+03 -3.72259E+02  2.40907E+03  1.18868E+03
  9.09711E+02  9.44498E+02  8.25825E+02  5.60619E+02  8.78437E+02  1.38438E+03  1.10919E+03 -3.64492E+02
 -3.91787E+01 -7.01417E+02  2.29603E+03  7.86720E+02  1.11031E+03  2.71878E+03 -7.69661E+02  3.99432E+03
 -2.81237E+03  1.79448E+03 -3.08447E+03  4.86465E+02 -2.76223E+03 -4.93287E+02 -1.30457E+03 -1.98031E+03
  1.12156E+03 -1.38987E+03  9.24797E+02 -6.52623E+02  2.53838E+03  9.11417E+02 -1.60419E+03  2.69408E+03
 -2.06046E+03  1.42244E+03 -2.01719E+03 -2.67876E+03 -1.03793E+03 -2.75202E+03  6.89095E+02 -2.95310E+03
  1.80960E+02 -1.19435E+03  2.93739E+03 -1.82106E+02  1.98670E+03  4.27269E+02  7.89944E+02  1.74624E+03
 -8.52231E+02  1.48691E+02 -2.24370E+03 -1.10172E+03  9.53157E+02 -1.88637E+03  2.55764E+03 -1.86574E+03
  3.25260E+03 -1.31095E+03  3.63739E+03  8.17611E+02  1.86270E+03  3.53525E+03  6.34716E+02  3.16543E+03
 -3.22924E+03  9.95248E+02 -4.31092E+03 -1.09994E+03 -1.88860E+03 -2.24554E+03  2.54080E+02 -7.94959E+02
  3.21783E+03 -1.56333E+03  1.74758E+03  5.99972E+02  6.44252E+02  1.53477E+03  3.47263E+02  2.25152E+03
 -4.39554E+02  1.44200E+03 -3.74048E+02  3.73504E+02  4.86438E+01  6.94894E+02 -1.23703E+03  8.22747E+02
 -1.02468E+03  1.57480E+03 -2.27084E+03  4.23765E+02 -2.21761E+03  3.15180E+02 -3.57006E+03 -1.34431E+03
 -1.21726E+03 -3.54563E+03  7.87249E+02 -4.96084E+03  1.13931E+03 -3.23287E+03  4.48716E+03 -1.62577E+03
  3.84912E+03 -1.77131E+02  1.34592E+03  1.88730E+03 -1.57812E+03  2.02128E+03 -2.63056E+03  3.20551E+03
 -2.47327E+03  5.74924E+02 -3.30860E+02 -7.08514E+02 -1.62099E+03  3.46920E+02  4.48420E+02  2.55073E+02
 -2.94652E+03 -2.64029E+02 -4.78369E+02  1.18489E+03 -1.06809E+03 -7.03730E+02 -2.98389E+02 -1.69803E+03
  6.57153E+02 -1.24336E+03  1.15456E+03  7.57715E+02  2.24492E+03  8.03139E+02 -4.74827E+01  2.55577E+03
 -9.16241E+02  3.72908E+03 -2.47045E+03  2.83855E+03 -1.76248E+03 -7.27946E+02 -2.87714E+03 -1.51753E+03
 -1.89018E+02 -3.82207E+03  1.31486E+03 -2.22526E+03  2.88894E+03 -5.82621E+02  1.12753E+03 -7.67787E+02
  1.23883E+03  3.01625E+02 -6.98362E+02  3.22504E+02 -8.19319E+02  6.39238E+02 -8.84041E+00  1.39687E+02
  5.52177E+02 -2.83558E+02  8.19148E+02  1.10620E+03  1.70824E+03  8.22795E+02  8.73955E+02  7.60697E+02
 -7.22496E+02  1.84387E+03 -1.24624E+03  6.03902E+01 -6.32137E+02 -5.72347E+02 -4.68633E+02 -2.69256E+03
  1.72039E+03 -2.45185E+03  1.32952E+03 -8.50956E+02  1.65295E+03  9.48667E+02  1.38158E+03  1.69353E+03
  5.76706E+01  2.52566E+02 -3.92026E+02  2.01195E+03 -1.05979E+03  1.84317E+03 -1.48512E+03  4.97910E+01
 -8.26241E+02  1.19097E+03 -5.17706E+02  1.46918E+02 -2.12084E+03 -6.22157E+02 -1.41280E+03  4.48689E+02
 -1.49476E+03 -7.84991E+02  4.16469E+01 -1.48451E+03  6.62231E+02 -2.33151E+03  1.02535E+03 -6.95635E+02
  1.29546E+03  1.43276E+01 -1.87078E+02  1.33961E+03  3.47812E+02  1.65115E+03 -2.92999E+03  8.36303E+02
