 $NMID ID='MM_0lb_SNR200_18hz_g55_63.RAW', FMTDAT='(8E13.5)'
 TRAMP=1., VOLUME=1. $END
  3.09645E+05 -9.13945E+01  3.36802E+05  2.49427E+05  8.56492E+04  3.36560E+05 -1.32311E+05  2.50790E+05
 -1.89660E+05  8.24396E+04 -1.11920E+05 -3.36541E+04  1.21187E+03 -5.02477E+04  5.35562E+04  1.85925E+02
  3.59835E+04  5.29719E+04 -1.75446E+04  7.63815E+04 -6.07721E+04  6.23046E+04 -8.39410E+04  3.21904E+04
 -8.00436E+04 -1.09855E+04 -5.70583E+04 -5.12805E+04 -1.49688E+04 -6.96883E+04  2.66934E+04 -4.55908E+04
  4.03124E+04  4.53499E+03  1.62624E+04  4.75779E+04 -3.42872E+04  4.65485E+04 -6.59021E+04 -1.17205E+03
 -5.19745E+04 -5.61189E+04 -7.66367E+03 -7.73599E+04  3.33743E+04 -5.37090E+04  4.72831E+04 -1.73525E+04
  4.29965E+04  1.04568E+04  3.18185E+04  2.56089E+04  1.62385E+04  3.02261E+04 -4.50796E+03  2.64275E+04
 -2.21949E+04  1.20121E+04 -1.83626E+04 -5.56931E+03  5.46922E+03 -7.39246E+03  2.13237E+04  1.12806E+04
  7.77034E+03  3.34662E+04 -3.10936E+04  3.41896E+04 -6.16131E+04  3.20374E+03 -5.68914E+04 -4.15025E+04
 -1.20832E+04 -6.26786E+04  3.88620E+04 -4.45366E+04  5.64604E+04 -1.71375E+03  3.39184E+04  3.02585E+04
 -5.96893E+03  3.39939E+04 -2.92120E+04  1.57653E+04 -2.81620E+04 -4.87220E+03 -1.51317E+04 -9.96565E+03
 -7.23221E+03 -1.25285E+04 -7.87297E+02 -1.75419E+04  7.68732E+03 -2.37771E+04  1.60197E+04 -1.36744E+04
  1.20659E+04  3.27583E+03 -6.72166E+03  1.31232E+04 -1.88172E+04 -4.77128E+03 -8.18368E+03 -3.21289E+04
  2.18089E+04 -4.20526E+04  4.53020E+04 -1.99844E+04  4.36252E+04  1.89691E+04  1.53557E+04  4.41452E+04
 -1.53908E+04  3.13327E+04 -2.37429E+04  1.33662E+03 -9.78057E+03 -2.71978E+04  2.10467E+04 -3.26696E+04
  3.95171E+04 -8.35610E+03  3.37778E+04  2.25843E+04  1.63659E+04  4.37307E+04 -6.76166E+03  4.61679E+04
 -3.18385E+04  3.13035E+04 -3.81304E+04  8.83530E+03 -4.10772E+04 -1.52808E+04 -2.35930E+04 -3.55283E+04
  7.28265E+03 -3.50936E+04  3.06795E+04 -1.36491E+04  2.68924E+04  1.18460E+04  3.10067E+03  1.92386E+04
 -1.37529E+04  8.03348E+03 -9.99480E+03 -7.10361E+03  5.59701E+03 -9.99751E+03  1.84823E+04  7.31509E+03
  1.21548E+04  2.22682E+04 -5.21855E+03  2.27678E+04 -2.17845E+04  9.46322E+03 -2.58064E+04 -4.94978E+03
 -1.79361E+04 -1.70965E+04 -7.12203E+03 -1.85183E+04  2.64307E+03 -1.67768E+04  1.38285E+04 -1.67543E+04
  2.35272E+04 -1.23173E+04  2.85496E+04  1.63691E+03  2.31123E+04  1.74974E+04  4.03317E+03  3.32137E+04
 -1.70077E+04  2.87191E+04 -2.72681E+04  9.60816E+03 -2.04716E+04 -1.02784E+04 -4.77737E+03 -1.36894E+04
  2.70553E+03 -3.90635E+03 -4.79833E+03  5.95660E+03 -1.42908E+04  5.92101E+03 -1.45036E+04 -4.59052E+03
 -9.86918E+03 -1.62510E+04  5.44003E+03 -2.06353E+04  1.29211E+04 -1.37678E+04  1.60996E+04 -7.91011E+02
  1.02649E+04  1.12522E+04 -1.04702E+03  1.66221E+04 -1.09084E+04  9.04308E+03 -1.62958E+04 -4.16862E+03
 -1.23754E+04 -1.55088E+04 -8.51283E+02 -1.96445E+04  9.54806E+03 -1.47161E+04  1.78456E+04 -7.65933E+03
  1.46433E+04  7.43938E+02  1.10122E+04  3.77069E+03  6.39407E+03  1.11774E+03  8.50969E+03 -2.44023E+03
  1.44332E+04  3.43671E+03  1.65053E+04  1.33758E+04  1.01578E+04  2.69112E+04 -3.38654E+03  3.01355E+04
 -1.75246E+04  2.17631E+04 -2.65572E+04  1.12409E+04 -2.71840E+04 -3.01317E+03 -2.37184E+04 -1.48207E+04
 -1.03059E+04 -2.30051E+04  8.52169E+03 -2.02123E+04  1.84720E+04 -1.15172E+04  1.71305E+04  4.33493E+03
  5.85191E+03  1.09434E+04 -7.37175E+03  1.06643E+04 -1.42667E+04  3.43924E+03 -1.15545E+04 -9.39965E+03
 -4.96346E+01 -1.34035E+04  6.50470E+03 -9.84228E+03  8.64906E+03 -1.68989E+03  1.97101E+03  6.21488E+03
 -5.38255E+03  1.27836E+03 -4.44992E+03 -5.51051E+03  4.89338E+02 -1.20969E+04  8.15323E+03 -1.16504E+04
  1.34503E+04 -6.26078E+03  1.42907E+04  2.43959E+03  1.15917E+04  1.07830E+04  5.74906E+03  1.48881E+04
 -2.16041E+03  1.70009E+04 -1.07270E+04  1.06997E+04 -1.29943E+04  2.47963E+03 -8.55754E+03 -1.44719E+03
 -4.36989E+03 -4.78792E+03 -7.16932E+02  1.04411E+03 -1.04432E+03  1.45995E+03 -4.78448E+03  3.74190E+03
 -8.47624E+03 -1.10186E+03 -9.56792E+03 -7.04034E+03 -3.60834E+03 -1.14362E+04  4.30422E+03 -1.01812E+04
  6.84647E+03 -3.65606E+03  5.43784E+03  3.25890E+03  2.30178E+02  3.60103E+03 -5.46274E+03 -1.42238E+03
 -2.57365E+03 -5.11115E+03 -2.41627E+03 -8.65196E+03  4.13168E+03 -8.96250E+03  1.06800E+04 -3.97274E+03
  1.25589E+04  1.37507E+03  9.12666E+03  7.19104E+03  1.73746E+03  9.09338E+03 -4.70497E+03  8.28893E+03
 -7.92070E+03  3.29063E+03 -2.16726E+03 -9.20799E+02  2.10336E+03 -2.57511E+03  4.54011E+03 -1.21847E+03
  4.96252E+03  3.96048E+03  1.76767E+03  6.42692E+03 -5.07324E+03  7.34803E+03 -7.60092E+03  1.70165E+03
 -4.76078E+03 -4.84039E+03  1.49941E+03 -7.15876E+03  3.23250E+03 -3.62064E+03  4.73771E+03 -2.06353E+02
  2.06364E+02  3.57194E+03 -3.57554E+03  5.51957E+03 -5.73048E+03  2.85510E+03 -4.57382E+03 -7.11264E+02
 -3.58242E+03 -6.27269E+03  2.13759E+03 -8.67454E+03  7.85689E+03 -4.78025E+03  7.52600E+03  8.88940E+02
  4.98712E+03  6.31378E+03  5.92662E+02  7.93586E+03 -5.47928E+03  4.59669E+03 -6.20203E+03 -2.55834E+02
 -6.66451E+03 -5.20845E+03 -1.82783E+03 -4.98247E+03  2.95100E+03 -5.17702E+03  3.37032E+03 -2.41012E+03
  2.93633E+03  3.01709E+02  9.18721E+02  6.00539E+02  2.70179E+02 -8.42401E+02  4.90902E+02 -2.06403E+03
  3.74709E+03 -7.00054E+02  6.42645E+03  7.69611E+02  6.31072E+03  4.85315E+03  5.44954E+03  6.51607E+03
 -1.31919E+03  9.38156E+03 -8.46327E+03  8.02346E+03 -1.03244E+04  1.80364E+03 -8.37567E+03 -2.80172E+03
 -5.09137E+03 -7.09645E+03 -7.96452E+02 -5.26703E+03  1.56580E+03 -1.95827E+03  1.62771E+03 -2.16605E+03
  1.01628E+03 -1.36743E+03  2.73324E+03 -2.95081E+03  2.45685E+03 -9.34480E+02  2.11777E+03  2.05136E+03
  6.40528E+03  1.90098E+03  1.46887E+03  4.04751E+03 -1.87897E+03  3.17993E+03 -5.80053E+03  3.06422E+03
 -6.39182E+03 -2.09912E+03 -3.52898E+03 -3.72480E+03  1.82590E+03 -5.93636E+03  3.75756E+03 -6.51540E+03
  5.28440E+03 -3.15936E+03  8.20494E+03 -9.06100E+02  5.08162E+03  5.07494E+03  1.11232E+03  7.16163E+03
 -2.06103E+03  7.56891E+03 -3.75105E+03  2.88854E+03 -3.14071E+03 -1.26441E+03 -1.28511E+03 -9.74286E+02
  5.21013E+02 -6.30684E+02 -9.06892E+02  2.24868E+03 -2.77970E+03  1.10500E+03 -4.29819E+03 -2.69165E+02
 -1.58725E+03 -4.39171E+03  6.87080E+02 -5.07423E+03  2.88364E+03 -4.61830E+03  3.59626E+03 -1.16945E+03
  4.50162E+03  2.98130E+03  2.30155E+03  2.20428E+03 -1.16210E+03  5.48021E+03 -3.24033E+03  3.10910E+03
 -3.63581E+03  7.43339E+02 -2.75684E+03 -3.33555E+03 -1.15875E+03 -3.94463E+03  2.09616E+03 -3.08990E+03
  2.97888E+03 -1.44643E+03  2.46240E+03 -7.05698E+01  9.05154E+02  1.46038E+03  9.80732E+01  9.01622E+02
  1.44459E+03  3.28119E+02  9.78516E+02  1.24908E+03  1.16071E+03  2.87237E+03  1.55288E+03  1.91967E+03
 -1.99950E+03  3.10123E+03 -2.36213E+03  5.58142E+03 -3.47652E+03  1.74144E+03 -5.99580E+03 -1.10536E+03
 -9.24243E+02 -3.22778E+03  1.41477E+03 -4.17142E+03  2.18795E+03 -2.92633E+03  3.13119E+03 -1.00248E+03
  2.03786E+03  1.75332E+03  1.49680E+03  3.68079E+03 -1.39068E+03  1.44147E+03 -9.73345E+02 -2.30852E+02
 -1.47584E+03 -1.62829E+03  2.94642E+02 -1.82096E+03  1.13063E+03 -7.82406E+02  1.07383E+03 -3.88022E+02
  1.25640E+03  3.20661E+02  5.51210E+02  6.95257E+02 -4.65516E+02  4.06239E+02  1.22554E+03 -1.26259E+03
 -3.85191E+02  1.14916E+02  1.90196E+03  8.17942E+02  8.01233E+02  2.35752E+03 -6.19381E+01  3.04243E+03
 -2.05631E+03  1.32352E+03 -2.40433E+03  9.39479E+02 -2.27618E+03 -1.38343E+03  2.09370E+01 -1.01196E+03
 -1.11124E+03 -2.55149E+02  8.10703E+02 -1.22662E+03  1.12238E+03  7.57486E+02 -1.68597E+03  2.20728E+03
 -2.69441E+03  1.62349E+02 -1.22541E+03 -1.79975E+03 -9.22637E+02 -1.13261E+03  3.60882E+02 -2.22056E+03
  1.02363E+03 -1.99862E+02  9.71461E+02 -3.59811E+02  8.16219E+02  4.04820E+02  3.25678E+02  8.36204E+02
 -1.70632E+02 -7.72162E+02 -1.82104E+03  6.82705E+02  1.45962E+03 -2.18808E+03  7.32421E+02 -1.84470E+03
  1.52686E+03  6.90961E+02  3.13768E+03  2.64809E+02  1.81579E+02  1.01008E+03  7.26713E+02  2.52576E+03
 -1.40252E+03 -1.57867E+02 -2.90265E+03 -6.46580E+02 -8.76200E+02 -9.62143E+02  6.30998E+02 -4.51481E+02
  1.38973E+03 -1.30589E+03 -2.73594E+02  1.38357E+03  1.26273E+02  1.30227E+03  7.67589E+02  1.88410E+03
 -6.91186E+02  6.75465E+02  4.65222E+02 -9.43904E+02  3.64906E+02  1.12247E+02 -5.53790E+02  1.38193E+02
 -2.26932E+02  1.88293E+03 -1.58403E+03 -1.82494E+02 -2.22525E+03  2.71301E+02 -1.83548E+03 -3.79067E+02
 -7.10750E+02 -3.06731E+03  1.84994E+03 -2.53013E+03  1.13633E+03 -3.83811E+03  3.26269E+03 -6.24573E+02
  2.64026E+03  8.51042E+02  9.44098E+02  1.86558E+03 -1.58755E+02  1.72569E+03 -1.59244E+02  1.11180E+03
 -5.56357E+02  1.08207E+03 -5.03473E+02  1.19162E+02  1.59015E+01  4.79377E+02 -3.76860E+02  1.29217E+02
 -1.57039E+03  2.02787E+02 -2.64073E+02 -2.91183E+02  9.39410E+02 -8.63807E+02 -7.78354E+02 -3.50195E+02
  1.71894E+03 -1.51755E+02  1.24332E+03  5.38529E+02  1.97228E+03  7.38717E+02 -5.23834E+02  1.97794E+03
 -1.50120E+03  2.46498E+03 -2.26401E+03  2.70420E+02 -1.10720E+03 -2.20114E+02 -9.42078E+02 -1.83501E+03
 -4.40669E+02 -1.33639E+03  2.53763E+02 -1.03185E+03  6.23768E+02 -4.94313E+02  3.76200E+02  8.68686E+02
  2.07369E+02 -4.04436E+02  2.42875E+02 -2.69410E+01 -3.86800E+02  6.61429E+02 -1.63852E+02 -1.00538E+03
  2.26235E+02  9.92722E+01  9.19421E+02 -7.24424E+01 -3.03305E+02  8.22407E+02 -7.55050E+01  1.25199E+03
 -2.81023E+02  5.23890E+02 -8.02336E+02  1.01943E+03 -6.92834E+02 -4.40950E+02 -5.50317E+02 -1.05652E+03
 -3.85302E+02 -2.03054E+03  1.05011E+03  6.25788E+02  1.61343E+03 -1.41352E+03  4.37280E+02 -6.97188E+02
 -3.58863E+02  9.47451E+02  4.79619E+01  5.23224E+02 -1.20600E+03  3.19125E+02 -2.08043E+02 -1.76331E+02
 -6.51328E+02 -3.63606E+02 -1.32606E+03  7.80030E+02 -1.33263E+03  1.27361E+02 -2.31212E+03  6.89311E+02
 -2.06696E+03  5.69310E+02 -3.38276E+02 -6.13121E+02  1.49790E+03 -1.58407E+03  1.99006E+03 -1.00298E+03
  3.12163E+02 -4.38554E+02  6.43477E+01 -7.59964E+02  3.71041E+02  6.56603E+02 -1.36765E+03  1.58435E+03
