 $NMID ID='MM_0lb_SNR200_7hz_g60_39.RAW', FMTDAT='(8E13.5)'
 TRAMP=1., VOLUME=1. $END
  3.09877E+05  2.03472E+03  3.36408E+05  2.49041E+05  8.44603E+04  3.39181E+05 -1.33045E+05  2.52303E+05
 -1.90653E+05  8.25587E+04 -1.13520E+05 -3.37355E+04  1.38096E+03 -5.12016E+04  5.57035E+04 -8.37316E+02
  3.63685E+04  5.30017E+04 -1.61761E+04  7.57283E+04 -6.05517E+04  6.43794E+04 -8.51098E+04  3.28046E+04
 -8.49087E+04 -1.16407E+04 -5.90022E+04 -5.39466E+04 -1.55254E+04 -7.06774E+04  2.84107E+04 -4.67861E+04
  4.17139E+04  1.85963E+03  1.73879E+04  4.93554E+04 -3.45905E+04  5.03799E+04 -6.96019E+04 -1.05300E+03
 -5.54495E+04 -5.92003E+04 -9.09103E+03 -7.97855E+04  3.47133E+04 -5.98441E+04  5.08884E+04 -2.04048E+04
  4.49238E+04  1.19488E+04  3.39341E+04  2.79483E+04  1.56715E+04  3.17087E+04 -5.47321E+03  2.88779E+04
 -2.06831E+04  1.20329E+04 -1.68590E+04 -5.34208E+03  7.25951E+03 -8.19983E+03  2.32632E+04  1.50865E+04
  7.10060E+03  3.59972E+04 -3.40127E+04  3.83459E+04 -6.64161E+04  1.23384E+03 -6.01852E+04 -4.73099E+04
 -1.33333E+04 -6.72352E+04  4.39029E+04 -4.79190E+04  6.21324E+04 -3.15449E+03  3.83639E+04  3.47657E+04
 -7.86452E+03  4.05831E+04 -3.35534E+04  1.96089E+04 -3.52111E+04 -6.00719E+02 -1.96277E+04 -1.27242E+04
 -1.14009E+04 -1.79571E+04 -3.20560E+03 -2.02191E+04  9.09175E+03 -2.34758E+04  1.58660E+04 -1.15386E+04
  1.04259E+04  5.67703E+03 -1.01186E+04  1.36620E+04 -2.66161E+04 -6.91046E+03 -7.91325E+03 -3.90560E+04
  2.64622E+04 -4.89642E+04  5.33748E+04 -2.26589E+04  5.12362E+04  2.31636E+04  1.80258E+04  5.02789E+04
 -1.75443E+04  3.71109E+04 -2.96059E+04  3.15553E+03 -1.50873E+04 -3.05303E+04  2.12773E+04 -3.87940E+04
  4.74352E+04 -1.42230E+04  4.48466E+04  2.41862E+04  2.14703E+04  5.26398E+04 -9.40793E+03  6.01146E+04
 -3.81705E+04  4.06306E+04 -5.24832E+04  1.13956E+04 -5.03624E+04 -1.97061E+04 -2.69404E+04 -4.29293E+04
  7.34457E+03 -4.43185E+04  3.61572E+04 -1.86245E+04  3.47277E+04  1.16214E+04  7.31638E+03  2.15700E+04
 -1.41801E+04  1.14418E+04 -1.17041E+04 -7.05222E+03  4.66717E+03 -1.38748E+04  2.02329E+04  5.40384E+03
  1.45715E+04  2.60593E+04 -5.76823E+03  2.97444E+04 -2.33470E+04  1.42097E+04 -3.25589E+04 -1.65726E+03
 -2.81718E+04 -1.92515E+04 -1.41450E+04 -2.72802E+04  4.61790E+03 -2.85546E+04  2.06045E+04 -2.64741E+04
  3.56582E+04 -1.56115E+04  4.30194E+04  5.90943E+03  2.64154E+04  2.66637E+04  5.44379E+03  4.48214E+04
 -1.99983E+04  3.64525E+04 -3.22580E+04  1.28910E+04 -2.18499E+04 -8.66183E+03 -3.74758E+03 -1.21629E+04
  1.92390E+02 -1.34896E+03 -1.00310E+04  9.51797E+03 -2.35158E+04  5.50755E+03 -2.22570E+04 -1.32695E+04
 -1.14312E+04 -2.51645E+04  6.89145E+03 -3.14013E+04  2.08640E+04 -2.15937E+04  2.59824E+04 -1.45771E+03
  1.74759E+04  1.73541E+04 -1.93212E+03  2.74378E+04 -1.76609E+04  1.65620E+04 -2.67407E+04 -6.35426E+03
 -1.82585E+04 -2.25948E+04 -2.67106E+03 -3.11608E+04  1.34915E+04 -2.74208E+04  2.62766E+04 -1.52707E+04
  2.49469E+04 -1.49106E+03  1.71805E+04  7.04972E+03  8.01811E+03  1.06898E+03  1.26971E+04 -3.31038E+03
  2.45022E+04  3.26376E+03  2.95542E+04  2.08697E+04  1.93490E+04  4.29024E+04 -1.90066E+03  5.01834E+04
 -3.06330E+04  4.26911E+04 -4.79798E+04  2.25451E+04 -5.28539E+04 -4.78881E+03 -4.37579E+04 -3.06620E+04
 -1.62426E+04 -4.36105E+04  1.51986E+04 -3.58165E+04  3.26632E+04 -1.76980E+04  2.56337E+04  9.00629E+03
  9.26692E+03  2.21148E+04 -1.46893E+04  1.60210E+04 -2.12512E+04  4.00491E+03 -1.71871E+04 -1.53668E+04
  9.87676E+02 -2.12211E+04  1.18521E+04 -1.27250E+04  1.51295E+04 -2.11386E+03  4.54537E+03  8.87916E+03
 -9.86479E+03  4.19680E+03 -1.09434E+04 -6.16832E+03 -3.95209E+03 -2.12107E+04  1.46638E+04 -2.39184E+04
  2.50278E+04 -1.44869E+04  3.05183E+04  4.47536E+03  2.63883E+04  2.12500E+04  1.27477E+04  3.56026E+04
 -7.25070E+03  3.56547E+04 -2.35527E+04  2.05817E+04 -2.63326E+04  3.17349E+03 -1.96805E+04 -4.75084E+03
 -5.99736E+03 -8.74978E+03 -1.35194E+02  4.62737E+02 -2.28824E+03  3.21445E+03 -1.02832E+04  5.99476E+03
 -1.92032E+04 -1.21406E+03 -1.66790E+04 -1.34823E+04 -7.28477E+03 -2.44123E+04  8.96329E+03 -1.91497E+04
  1.61966E+04 -5.73311E+03  1.01549E+04  6.91106E+03 -1.23159E+03  6.49629E+03 -8.88109E+03  3.28571E+02
 -9.98809E+03 -1.18249E+04 -1.44661E+03 -1.93898E+04  9.88246E+03 -1.92284E+04  2.56396E+04 -8.90010E+03
  2.94502E+04  3.10711E+03  2.12875E+04  1.83583E+04  4.14324E+03  2.46430E+04 -1.16195E+04  1.76543E+04
 -1.30268E+04  7.10706E+03 -8.06080E+03 -4.13164E+03  8.91730E+02 -6.39758E+03  9.02432E+03 -1.05777E+03
  9.21986E+03  8.60538E+03  1.62783E+03  1.41410E+04 -9.95092E+03  1.38474E+04 -1.78582E+04  2.90986E+03
 -1.42631E+04 -1.10126E+04 -6.03045E+02 -1.61026E+04  1.21623E+04 -7.70813E+03  1.26810E+04  2.84343E+03
  1.78834E+02  1.28702E+04 -8.01033E+03  1.50397E+04 -1.97568E+04  7.03845E+03 -1.84456E+04 -9.71250E+03
 -1.15081E+04 -1.95250E+04  5.74325E+03 -2.26192E+04  1.99751E+04 -1.29924E+04  2.00671E+04  3.85727E+03
  1.38025E+04  1.79575E+04 -2.40126E+03  1.91305E+04 -1.38165E+04  1.04715E+04 -1.62988E+04 -3.10051E+03
 -1.33321E+04 -1.18628E+04 -5.25453E+03 -1.74949E+04  8.02933E+03 -1.11365E+04  9.31119E+03 -4.18744E+03
  4.29715E+03  2.44028E+03 -1.28292E+03  4.06942E+03 -2.49894E+03 -6.77703E+03  2.86695E+03 -8.52661E+03
  1.40683E+04 -5.60701E+03  2.22521E+04  2.64260E+03  1.94930E+04  1.44708E+04  1.27877E+04  2.76624E+04
 -5.29771E+03  2.86963E+04 -2.76985E+04  2.20153E+04 -3.33394E+04  4.54038E+03 -2.68269E+04 -1.24836E+04
 -1.30429E+04 -2.24613E+04  6.87845E+02 -1.82164E+04  7.28112E+03 -1.07877E+04  6.62258E+03 -4.77672E+03
  5.59742E+03 -4.50075E+03  4.88693E+03 -4.46208E+03  7.07731E+03 -6.95722E+03  1.17903E+04 -2.52633E+03
  1.52344E+04  2.46536E+03  9.14072E+03  1.36919E+04 -2.62764E+03  1.46927E+04 -1.49467E+04  1.35661E+04
 -1.97611E+04 -1.39961E+03 -1.17980E+04 -1.55057E+04 -3.01772E+03 -2.03861E+04  1.14072E+04 -2.07142E+04
  2.12759E+04 -1.02198E+04  2.48700E+04  3.38296E+03  1.68899E+04  1.72211E+04  3.77296E+03  2.15992E+04
 -9.91515E+03  1.74550E+04 -1.36204E+04  7.19732E+03 -8.80373E+03 -4.02538E+03 -3.72200E+03 -1.51591E+03
 -1.21672E+03 -1.30949E+03  6.89037E+02  3.01060E+03 -7.35926E+03  1.85888E+03 -1.38939E+04 -2.89917E+03
 -8.88410E+03 -1.44971E+04 -2.29111E+03 -1.98495E+04  1.13206E+04 -1.70443E+04  2.04866E+04 -4.56363E+03
  2.05132E+04  1.12279E+04  8.31676E+03  1.82608E+04 -5.11153E+03  2.02352E+04 -1.35895E+04  1.33804E+04
 -1.72781E+04 -6.45338E+02 -1.57484E+04 -1.14986E+04 -9.16873E+02 -1.69068E+04  1.08170E+04 -1.26507E+04
  1.40520E+04 -2.36305E+02  9.91415E+03  2.08730E+03  4.12494E+03  5.93587E+03  1.92243E+03  1.42666E+03
  3.01375E+03  1.69136E+03  4.90661E+03  1.28439E+03  6.65916E+03  4.72334E+03  3.58510E+03  1.31827E+04
 -4.36569E+03  1.53864E+04 -1.52211E+04  1.56792E+04 -2.14641E+04  3.18075E+03 -2.28839E+04 -1.00604E+04
 -9.34149E+03 -2.12306E+04  2.56864E+03 -2.13129E+04  1.15417E+04 -1.52947E+04  1.69847E+04 -5.95877E+03
  1.40179E+04  8.31464E+03  4.60677E+03  1.44750E+04 -4.72788E+03  8.89030E+03 -1.17854E+04 -2.92586E+03
 -2.62655E+03 -1.01177E+04  5.87698E+03 -9.06045E+03  8.56470E+03 -3.77703E+03  8.52640E+03  2.68506E+03
  4.54621E+03  4.97520E+03  1.96190E+03  5.39071E+03 -1.22904E+03  4.78673E+03  9.89318E+02 -1.81807E+03
  2.69171E+03 -2.57317E+03  9.36750E+03  3.43057E+03  5.93681E+03  1.17582E+04 -1.81582E+03  1.33969E+04
 -9.05281E+03  1.06892E+04 -1.27828E+04  9.35604E+02 -1.09498E+04 -2.93808E+03 -3.21161E+03 -8.92573E+03
  1.92126E+03 -7.61353E+03  5.64248E+03 -4.26914E+03  4.35391E+03  2.59109E+03 -2.14479E+03  7.46547E+03
 -8.55429E+03  3.54412E+03 -1.05363E+04 -4.07326E+03 -6.45435E+03 -1.25090E+04  3.74198E+02 -1.25413E+04
  8.10211E+03 -6.43367E+03  9.65926E+03  4.68989E+02  7.08656E+03  4.31038E+03  1.96220E+03  6.29189E+03
 -4.71438E+03  2.26373E+03 -5.50551E+03 -4.97700E+03  3.11690E+03 -8.40165E+03  1.07345E+04 -7.32084E+03
  1.52245E+04  2.07739E+03  1.23185E+04  9.31662E+03  4.80309E+03  1.53559E+04 -5.02294E+03  1.52327E+04
 -1.24352E+04  5.96371E+03 -1.33996E+04 -3.10144E+03 -6.04051E+03 -1.05510E+04  3.83385E+03 -9.74033E+03
  8.86940E+03 -2.13237E+03  7.33117E+03  2.64627E+03  2.47058E+03  8.37905E+03 -2.54555E+03  6.19010E+03
 -2.83886E+03  3.09588E+03 -3.14207E+03  2.85505E+03 -8.31557E+02  6.30823E+02 -1.27952E+03  4.31930E+03
 -3.19186E+03  6.65145E+03 -1.04266E+04  4.70510E+03 -1.53174E+04  3.11231E+02 -1.76827E+04 -9.57667E+03
 -8.86427E+03 -1.88644E+04  2.34816E+03 -2.32918E+04  1.52587E+04 -1.75312E+04  2.10996E+04 -7.17816E+03
  1.99077E+04  3.73559E+03  1.43589E+04  1.32945E+04  1.28020E+03  1.73506E+04 -6.57486E+03  1.14894E+04
 -8.58685E+03  3.51149E+03 -6.64691E+03 -6.18966E+02 -1.51001E+03 -2.24777E+03  5.87722E+02 -7.29119E+02
 -1.48725E+03  1.49478E+03 -3.61538E+03 -1.14204E+03 -2.30619E+03 -3.59165E+03  1.01585E+03 -5.38745E+03
  8.26680E+03 -3.73213E+03  1.06501E+04  6.33566E+02  9.96673E+03  6.70545E+03  4.40567E+03  1.62529E+04
 -7.45234E+03  1.51992E+04 -1.53083E+04  1.23841E+04 -2.00590E+04 -1.25411E+03 -1.51367E+04 -1.12069E+04
 -5.32961E+03 -1.48458E+04  3.91389E+03 -1.29309E+04  1.05510E+04 -8.18597E+03  9.00799E+03  1.73538E+03
  6.60025E+03  5.45113E+03 -2.32202E+03  4.36915E+03 -2.31941E+03  8.16973E+01  2.95697E+01 -4.13176E+03
  4.01012E+03 -3.20551E+03  5.89259E+03  1.49196E+03  5.21280E+03  7.16942E+03 -3.24841E+02  9.27459E+03
 -7.56520E+03  7.26941E+03 -1.08092E+04  1.11689E+03 -1.04874E+04 -9.42413E+03 -1.52402E+03 -1.43993E+04
  7.60479E+03 -1.21355E+04  1.51065E+04 -5.37426E+03  1.43340E+04  3.84318E+03  7.65915E+03  8.29039E+03
  1.29487E+03  1.27186E+04 -3.20816E+03  6.84473E+03 -6.27599E+03  7.38234E+03 -5.66361E+03  2.00374E+03
 -2.42513E+03 -5.88599E+02 -3.28844E+03  2.10663E+03 -4.35311E+03  8.58686E+02 -9.90516E+03 -1.51616E+03
 -7.88079E+03 -6.02024E+03 -2.11107E+03 -1.15661E+04  7.07211E+03 -1.08214E+04  1.07091E+04 -5.31846E+03
  1.07307E+04 -1.43079E+02  6.97317E+03  8.38957E+03 -1.22822E+03  9.69121E+03 -8.94089E+03  8.31753E+03
