 $NMID ID='MM_0lb_SNR200_11hz_g40_76.RAW', FMTDAT='(8E13.5)'
 TRAMP=1., VOLUME=1. $END
  3.09735E+05  1.78004E+02  3.38668E+05  2.50365E+05  8.48125E+04  3.36223E+05 -1.30671E+05  2.51764E+05
 -1.90650E+05  8.29021E+04 -1.12062E+05 -3.22488E+04  5.13540E+02 -5.11785E+04  5.49237E+04  6.52995E+02
  3.52192E+04  5.35931E+04 -1.55129E+04  7.64926E+04 -6.10594E+04  6.35424E+04 -8.61989E+04  3.14739E+04
 -8.17055E+04 -1.13637E+04 -5.68003E+04 -5.28311E+04 -1.36394E+04 -7.04481E+04  2.67183E+04 -4.61016E+04
  3.99275E+04  2.73090E+03  1.58513E+04  4.89540E+04 -3.49522E+04  4.83769E+04 -6.64626E+04  3.43722E+02
 -5.39601E+04 -5.74109E+04 -6.63103E+03 -7.85449E+04  3.31203E+04 -5.43072E+04  5.05831E+04 -1.60462E+04
  4.38515E+04  1.08070E+04  3.11428E+04  2.81802E+04  1.50296E+04  2.89215E+04 -4.91897E+03  2.72051E+04
 -2.14440E+04  1.30173E+04 -1.89871E+04 -3.84719E+03  6.23077E+03 -7.60805E+03  2.16625E+04  1.26414E+04
  8.57562E+03  3.51833E+04 -3.28099E+04  3.69782E+04 -6.41670E+04  2.06901E+03 -5.84120E+04 -4.22623E+04
 -1.26735E+04 -6.32115E+04  4.09983E+04 -4.68426E+04  5.95698E+04 -2.82992E+03  3.44399E+04  3.33381E+04
 -5.26028E+03  3.82992E+04 -3.09746E+04  1.71246E+04 -3.19708E+04 -3.47824E+03 -1.77539E+04 -1.10424E+04
 -9.63685E+03 -1.34166E+04 -1.54569E+03 -1.87769E+04  7.43060E+03 -2.29147E+04  1.62368E+04 -1.27841E+04
  1.20865E+04  5.97089E+03 -9.17015E+03  1.28661E+04 -2.27590E+04 -5.26703E+03 -8.83773E+03 -3.50145E+04
  2.35680E+04 -4.33805E+04  4.86594E+04 -2.14328E+04  4.70184E+04  2.13335E+04  1.66666E+04  4.55592E+04
 -1.61179E+04  3.47005E+04 -2.71310E+04  2.54125E+03 -1.24175E+04 -2.96380E+04  2.06516E+04 -3.61506E+04
  4.25553E+04 -1.01867E+04  3.76653E+04  2.42542E+04  2.00287E+04  4.65700E+04 -6.16893E+03  5.15185E+04
 -3.29897E+04  3.57503E+04 -4.41019E+04  1.03158E+04 -4.34160E+04 -1.74343E+04 -2.50926E+04 -3.89968E+04
  6.82467E+03 -3.87812E+04  3.17887E+04 -1.49952E+04  2.99399E+04  1.03169E+04  3.74268E+03  2.01682E+04
 -1.43091E+04  9.41441E+03 -1.06438E+04 -7.74596E+03  5.93656E+03 -1.01766E+04  1.74975E+04  4.88697E+03
  1.34382E+04  2.21512E+04 -5.69346E+03  2.66554E+04 -2.32501E+04  1.19905E+04 -2.95711E+04 -4.56464E+03
 -2.35335E+04 -1.91582E+04 -9.81554E+03 -2.21496E+04  2.60823E+03 -2.22699E+04  1.77950E+04 -2.05671E+04
  2.81626E+04 -1.32515E+04  3.47959E+04  3.24626E+03  2.36221E+04  2.13323E+04  3.90768E+03  3.72042E+04
 -1.82810E+04  3.18422E+04 -2.82692E+04  1.14917E+04 -2.13210E+04 -1.03950E+04 -2.93837E+03 -1.26773E+04
  1.56124E+03 -3.94800E+03 -6.05210E+03  6.68424E+03 -1.75809E+04  5.43233E+03 -1.67013E+04 -8.98639E+03
 -1.07522E+04 -2.03079E+04  5.23938E+03 -2.48391E+04  1.68917E+04 -1.67268E+04  1.96251E+04 -1.65935E+03
  1.22625E+04  1.30975E+04 -2.93351E+03  1.95796E+04 -1.49645E+04  1.24207E+04 -2.06647E+04 -4.81767E+03
 -1.57664E+04 -1.89389E+04 -1.52608E+03 -2.46176E+04  1.16352E+04 -2.07392E+04  2.23226E+04 -1.28652E+04
  1.87004E+04 -4.45439E+02  1.36444E+04  4.72802E+03  7.74040E+03  7.35201E+02  1.05461E+04 -1.78373E+03
  1.93624E+04  3.41737E+03  2.11730E+04  1.60689E+04  1.50858E+04  3.35013E+04 -3.27452E+03  3.83270E+04
 -2.10979E+04  3.22957E+04 -3.51745E+04  1.59056E+04 -3.75845E+04 -3.17332E+03 -3.07603E+04 -2.16346E+04
 -1.27755E+04 -3.16860E+04  1.07871E+04 -2.77620E+04  2.38368E+04 -1.43348E+04  2.17308E+04  6.58456E+03
  7.48336E+03  1.58261E+04 -8.83053E+03  1.31660E+04 -1.86143E+04  2.17221E+03 -1.34957E+04 -1.23395E+04
  1.06989E+03 -1.64540E+04  9.75179E+03 -1.36692E+04  1.17696E+04 -7.89158E+02  2.11185E+03  8.23512E+03
 -8.04772E+03  4.87651E+03 -6.05854E+03 -5.26628E+03 -2.92325E+02 -1.56045E+04  9.66034E+03 -1.69127E+04
  1.89679E+04 -9.88942E+03  2.17504E+04  2.59389E+03  1.92071E+04  1.71809E+04  7.82604E+03  2.54982E+04
 -3.49239E+03  2.61893E+04 -1.71284E+04  1.55169E+04 -1.90773E+04  4.11015E+03 -1.35031E+04 -6.36271E+03
 -5.30921E+03 -5.24813E+03 -1.68531E+03  1.91724E+03 -2.54088E+03  2.95857E+03 -6.46060E+03  5.76365E+03
 -1.30788E+04 -1.95592E+03 -1.36615E+04 -1.07607E+04 -6.45701E+03 -1.59339E+04  4.43232E+03 -1.36516E+04
  1.13844E+04 -5.47635E+03  7.38313E+03  3.90978E+03 -1.12388E+03  6.24831E+03 -6.67328E+03  7.97068E+02
 -6.31223E+03 -7.99857E+03 -6.36986E+02 -1.17577E+04  7.88351E+03 -1.36518E+04  1.69373E+04 -7.21957E+03
  1.84938E+04  5.51653E+02  1.44339E+04  1.31316E+04  3.89924E+03  1.66662E+04 -8.21157E+03  1.35649E+04
 -1.14503E+04  3.48490E+03 -5.59523E+03 -4.81619E+03  2.02981E+03 -3.83700E+03  7.40332E+03 -1.07729E+03
  6.06731E+03  6.29627E+03 -3.23568E+02  1.04956E+04 -6.86527E+03  9.52363E+03 -1.07423E+04  2.44113E+03
 -8.02646E+03 -7.28434E+03  1.81975E+02 -1.08959E+04  6.98860E+03 -5.85393E+03  7.81890E+03  3.64716E+03
  1.75362E+03  7.58714E+03 -8.55955E+03  1.00677E+04 -1.12253E+04  5.21731E+03 -1.15106E+04 -4.04042E+03
 -6.47020E+03 -1.25551E+04  1.28171E+03 -1.39010E+04  1.33094E+04 -8.48022E+03  1.29810E+04  3.60108E+03
  8.96094E+03  9.87974E+03 -8.09107E+02  1.34876E+04 -9.02088E+03  7.84374E+03 -1.05287E+04  5.59013E+01
 -8.42391E+03 -8.63810E+03  2.89297E+02 -9.75674E+03  4.89966E+03 -8.68331E+03  6.09287E+03 -5.70035E+03
  4.72531E+03  1.29545E+03 -5.14175E+02  1.61558E+03  1.00347E+02 -1.10322E+03  8.27679E+02 -6.67433E+03
  9.84388E+03 -2.97982E+03  1.23474E+04  3.09879E+03  1.17505E+04  8.89155E+03  8.16506E+03  1.67123E+04
 -4.56956E+03  1.84502E+04 -1.52625E+04  1.35808E+04 -1.97939E+04  2.60849E+03 -1.71503E+04 -6.68965E+03
 -8.39898E+03 -1.34817E+04 -1.25735E+03 -1.13725E+04  5.10131E+03 -5.25537E+03  3.63962E+03 -4.24475E+03
  4.42689E+03 -1.98715E+03  3.42713E+03 -2.36893E+03  5.15485E+03 -2.46481E+03  6.06574E+03  1.09108E+02
  9.93457E+03  2.42274E+03  4.96018E+03  7.77371E+03 -8.20528E+02  8.40409E+03 -9.29141E+03  5.78251E+03
 -1.14460E+04 -6.60820E+02 -6.04522E+03 -6.92722E+03 -7.64432E+02 -1.13427E+04  7.17010E+03 -1.37736E+04
  1.24765E+04 -7.20813E+03  1.53922E+04  2.48927E+03  1.15411E+04  1.09517E+04  1.09619E+03  1.33061E+04
 -6.20573E+03  1.14514E+04 -6.90498E+03  3.76754E+03 -6.50370E+03 -2.82287E+03 -1.60991E+03 -5.18624E+02
 -9.16032E+02 -1.06654E+03 -1.33064E+03  1.59530E+03 -4.99106E+03  2.63741E+03 -8.68806E+03 -1.02539E+03
 -3.92863E+03 -7.94893E+03  1.36384E+02 -1.00264E+04  7.10669E+03 -1.00593E+04  1.08102E+04 -3.59388E+03
  1.14448E+04  4.68174E+03  6.97578E+03  9.71466E+03 -3.57515E+03  1.06087E+04 -7.73258E+03  5.25066E+03
 -9.83991E+03  6.70271E+02 -7.65734E+03 -6.55054E+03 -1.58527E+02 -8.50694E+03  5.81368E+03 -7.75766E+03
  6.29312E+03 -1.37763E+03  4.43369E+03  1.10736E+03  1.61354E+03  3.39891E+03  9.52909E+02  1.50208E+03
  2.19319E+03  1.45348E+03  3.43550E+03  1.00052E+03  3.63701E+03  3.76528E+03  2.38116E+03  6.30733E+03
 -1.97228E+03  8.60631E+03 -5.94038E+03  7.42682E+03 -1.09535E+04  3.03116E+03 -1.27682E+04 -3.50641E+03
 -5.49043E+03 -1.09621E+04  2.16176E+03 -1.16092E+04  7.19033E+03 -7.68184E+03  9.66142E+03 -1.17366E+03
  5.88197E+03  4.52935E+03  2.71933E+02  5.51823E+03 -2.56087E+03  3.31303E+03 -5.07099E+03 -2.89496E+02
 -2.44170E+03 -5.94483E+03  2.84462E+03 -3.80186E+03  4.44272E+03 -1.04449E+03  3.80653E+03  1.38529E+03
  2.87677E+03  2.10310E+03  1.41618E+03  2.62514E+03 -1.46622E+03  6.52779E+02  1.95089E+03 -9.36808E+02
  2.12731E+03 -9.22379E+01  5.01741E+03  2.44289E+03  8.74668E+02  5.01541E+03 -2.59695E+01  7.63110E+03
 -4.69803E+03  5.42618E+03 -6.20734E+03  2.49906E+03 -7.28202E+03 -2.09147E+03 -3.17901E+03 -4.78541E+03
  3.96134E+02 -5.13749E+03  2.91608E+03 -2.36465E+03  2.15819E+03  2.52546E+03 -1.08203E+03  3.54227E+03
 -5.09449E+03  2.75355E+03 -4.91645E+03 -3.03469E+03 -3.09449E+03 -6.37680E+03  3.13641E+02 -6.21251E+03
  3.80273E+03 -3.34348E+03  3.58095E+03  2.82802E+02  3.50681E+03  1.64828E+03  3.14191E+01  1.95198E+03
 -2.80771E+03  2.08273E+03 -3.48457E+03 -2.13423E+03  3.49921E+02 -4.22529E+03  5.20221E+03 -4.15206E+03
  6.74698E+03  1.64008E+03  6.36963E+03  5.98110E+03  1.50386E+03  6.54048E+03 -1.02283E+02  7.19648E+03
 -5.35257E+03  3.00983E+03 -5.40704E+03 -1.12156E+03 -1.90994E+03 -4.58440E+03  1.33348E+03 -3.36482E+03
  4.08960E+03 -1.23874E+03  3.75980E+03  1.57167E+03  4.75068E+02  4.55014E+03 -5.00189E+02  4.33094E+03
 -2.00393E+03  2.45968E+03 -2.88295E+03 -3.35363E+02 -2.80738E+02  6.61080E+02 -5.84243E+02  1.70308E+03
 -2.62916E+03  1.75603E+03 -5.13838E+03  1.85514E+03 -6.22260E+03  1.48564E+03 -8.41658E+03 -4.66784E+03
 -4.34842E+03 -9.07101E+03  1.49926E+03 -1.01838E+04  5.34170E+03 -9.20852E+03  1.21772E+04 -1.93681E+03
  7.21652E+03  1.41084E+03  5.26866E+03  6.73393E+03 -3.80321E+02  6.52590E+03 -3.13010E+03  5.97431E+03
 -3.78012E+03  9.11156E+02 -1.59681E+03 -1.00147E+03 -1.85197E+03 -1.06023E+03 -1.28965E+03 -1.24847E+03
 -1.38947E+03  1.05772E+03 -2.73234E+03 -7.90978E+02 -6.36955E+02 -1.86238E+03 -1.17128E+03 -2.74467E+03
  2.85318E+03 -1.55002E+03  4.60660E+03 -1.86306E+03  3.97236E+03  4.66371E+03  1.11224E+03  4.73698E+03
 -2.82327E+03  9.14501E+03 -6.78572E+03  3.86690E+03 -6.54693E+03  3.89761E+02 -8.01723E+03 -5.38682E+03
 -2.77770E+03 -8.84470E+03  1.11993E+03 -6.04456E+03  3.93206E+03 -3.08550E+03  3.42350E+03 -2.16714E+02
  2.26384E+03  2.12574E+03  1.87884E+02  1.89437E+03 -6.58455E+02  1.70226E+02  9.56351E+02 -1.04920E+03
  2.49241E+03 -2.16262E+02  1.25386E+03  7.71396E+02  1.62623E+02  3.69365E+03  2.74902E+02  4.76685E+03
 -2.27827E+03  3.56949E+03 -4.04385E+03  7.90806E+02 -3.71927E+03 -4.53332E+03  5.88693E+02 -4.51035E+03
  3.06532E+03 -4.35757E+03  6.01957E+03 -1.09419E+03  3.80099E+03  1.46978E+03  2.09020E+03  3.44756E+03
  3.33241E+02  2.97069E+03 -1.98639E+03  3.94327E+03 -2.53792E+03  2.46585E+03 -2.75985E+03  1.06642E+03
 -1.20277E+03 -6.75308E+02 -3.36936E+03  1.16847E+03 -1.97258E+03  1.88990E+02 -3.34441E+03 -5.43734E+02
 -3.57795E+03 -9.21052E+02  2.16729E+02 -4.20787E+03  2.73479E+03 -4.90953E+03  2.99554E+03 -2.15339E+03
  2.82787E+03  4.09209E+02  1.53691E+03  3.00400E+03  9.89092E+01  4.85767E+03 -2.56215E+03  3.41185E+03
