 $NMID ID='MM_0lb_SNR200_18hz_g60_43.RAW', FMTDAT='(8E13.5)'
 TRAMP=1., VOLUME=1. $END
  3.09109E+05  2.09363E+02  3.37693E+05  2.50804E+05  8.51302E+04  3.38671E+05 -1.32725E+05  2.51015E+05
 -1.90496E+05  8.30183E+04 -1.11484E+05 -3.34866E+04 -3.77177E+01 -5.09082E+04  5.32453E+04  5.24546E+02
  3.56966E+04  5.28227E+04 -1.62024E+04  7.52796E+04 -6.02832E+04  6.38906E+04 -8.27763E+04  3.25064E+04
 -8.10751E+04 -1.17528E+04 -5.78101E+04 -5.23839E+04 -1.55989E+04 -6.94822E+04  2.71395E+04 -4.74670E+04
  4.00739E+04  3.67741E+03  1.67329E+04  4.72690E+04 -3.39938E+04  4.73797E+04 -6.65814E+04  2.89046E+02
 -5.37322E+04 -5.63419E+04 -7.27353E+03 -7.53340E+04  3.32721E+04 -5.42523E+04  4.78819E+04 -1.61237E+04
  4.22749E+04  1.09984E+04  3.13742E+04  2.51624E+04  1.54737E+04  2.95390E+04 -4.89549E+03  2.73364E+04
 -2.27063E+04  1.33209E+04 -1.93284E+04 -3.14923E+03  5.70262E+03 -8.23778E+03  2.18658E+04  1.23900E+04
  7.99377E+03  3.48909E+04 -3.08534E+04  3.53671E+04 -6.23879E+04  1.42340E+03 -5.58986E+04 -4.25847E+04
 -1.23250E+04 -6.23494E+04  3.90628E+04 -4.44749E+04  5.64280E+04 -1.24598E+03  3.32517E+04  3.08611E+04
 -6.19323E+03  3.51666E+04 -2.99942E+04  1.53542E+04 -2.92006E+04 -5.46524E+03 -1.56128E+04 -9.94017E+03
 -8.02224E+03 -1.31042E+04 -3.64711E+02 -1.77122E+04  7.43914E+03 -2.37674E+04  1.53420E+04 -1.40975E+04
  1.11086E+04  5.00892E+03 -8.51742E+03  1.35016E+04 -2.02802E+04 -3.08515E+03 -9.30843E+03 -3.24579E+04
  2.23347E+04 -4.23025E+04  4.73195E+04 -1.84729E+04  4.33555E+04  1.93865E+04  1.59344E+04  4.37249E+04
 -1.52407E+04  3.34198E+04 -2.46166E+04  1.85759E+03 -8.72472E+03 -2.71349E+04  1.97606E+04 -3.25768E+04
  4.01484E+04 -7.32961E+03  3.49964E+04  2.32446E+04  1.69948E+04  4.52255E+04 -7.78763E+03  4.84177E+04
 -3.02445E+04  3.23885E+04 -3.97471E+04  8.89151E+03 -4.12970E+04 -1.68265E+04 -2.19289E+04 -3.63349E+04
  6.57373E+03 -3.61558E+04  3.02235E+04 -1.29065E+04  2.79116E+04  1.11687E+04  3.46537E+03  1.84462E+04
 -1.27336E+04  7.96981E+03 -9.58024E+03 -7.86753E+03  5.80365E+03 -1.01729E+04  1.85095E+04  5.71879E+03
  1.30503E+04  2.16420E+04 -5.81467E+03  2.36279E+04 -2.14599E+04  1.00838E+04 -2.66417E+04 -5.61017E+03
 -1.85220E+04 -1.55972E+04 -8.64645E+03 -1.84026E+04  4.39083E+03 -1.82782E+04  1.49013E+04 -1.52220E+04
  2.33643E+04 -1.21936E+04  2.97295E+04  2.81193E+03  2.25896E+04  1.77692E+04  4.88975E+03  3.50279E+04
 -1.61479E+04  2.96771E+04 -2.69060E+04  9.93049E+03 -1.98923E+04 -1.03407E+04 -3.70571E+03 -1.38327E+04
  8.90661E+02 -3.71405E+03 -2.30857E+03  6.68052E+03 -1.57380E+04  4.96565E+03 -1.51610E+04 -6.89497E+03
 -9.98622E+03 -1.63876E+04  4.37492E+03 -2.10445E+04  1.38375E+04 -1.51439E+04  1.70457E+04 -1.68325E+03
  9.73003E+03  1.23909E+04 -9.47763E+02  1.80021E+04 -1.11759E+04  1.07898E+04 -1.73572E+04 -3.80946E+03
 -1.26656E+04 -1.52996E+04 -2.06505E+03 -2.09100E+04  1.00829E+04 -1.71377E+04  1.81266E+04 -8.50900E+03
  1.60994E+04  1.56405E+03  1.17984E+04  4.80617E+03  6.07905E+03  8.94779E+02  8.62981E+03 -9.58063E+02
  1.49421E+04  3.35431E+03  1.61353E+04  1.37362E+04  9.65078E+03  2.71419E+04 -3.01697E+03  2.85731E+04
 -1.65507E+04  2.32801E+04 -2.85630E+04  1.14378E+04 -2.85997E+04 -2.83068E+03 -2.47121E+04 -1.61330E+04
 -1.01768E+04 -2.28125E+04  8.44961E+03 -2.11215E+04  1.80480E+04 -1.14389E+04  1.66891E+04  4.39911E+03
  7.32287E+03  1.32185E+04 -7.39485E+03  1.12530E+04 -1.49895E+04  2.24204E+03 -1.17146E+04 -7.61873E+03
  3.93772E+02 -1.35241E+04  6.86420E+03 -8.57118E+03  8.08239E+03 -2.52628E+03  1.45134E+03  5.29497E+03
 -6.50750E+03  2.71112E+03 -4.89185E+03 -5.22786E+03  4.84550E+02 -1.18259E+04  8.39504E+03 -1.19098E+04
  1.24919E+04 -7.05839E+03  1.34544E+04  2.61195E+03  1.22338E+04  1.11095E+04  5.20127E+03  1.77355E+04
 -2.54990E+03  1.90221E+04 -9.86401E+03  1.14824E+04 -1.33734E+04  4.35429E+03 -9.50446E+03 -3.45108E+03
 -4.36095E+03 -3.89622E+03 -1.73627E+03  8.33160E+02 -1.54387E+03  2.43380E+03 -3.49962E+03  4.17910E+03
 -8.78048E+03 -6.05860E+02 -1.03325E+04 -8.55019E+03 -3.50925E+03 -1.15357E+04  3.80369E+03 -9.65608E+03
  7.34424E+03 -4.16913E+03  6.01339E+03  1.32410E+03  6.73814E+02  4.46043E+03 -4.96584E+03  5.28952E+02
 -3.73854E+03 -5.31962E+03 -1.63646E+03 -9.12355E+03  3.81658E+03 -9.11981E+03  1.05099E+04 -4.87420E+03
  1.20070E+04  7.82618E+02  1.03633E+04  7.39473E+03  1.45064E+03  9.50050E+03 -5.10454E+03  9.05784E+03
 -6.50415E+03  3.62776E+03 -3.69157E+03 -1.87335E+02  9.22487E+02 -3.47235E+03  5.57481E+03 -8.77516E+02
  4.35495E+03  3.81934E+03  9.30486E+02  6.19408E+03 -4.91720E+03  7.04712E+03 -8.85206E+03  1.01289E+03
 -4.23107E+03 -3.88851E+03  1.25330E+02 -7.20013E+03  3.41018E+03 -3.63724E+03  4.33251E+03  9.72909E+02
  4.90477E+02  3.48599E+03 -4.87926E+03  5.88543E+03 -6.48271E+03  2.82672E+03 -4.68062E+03 -9.23552E+02
 -3.42252E+03 -7.11771E+03  1.68388E+03 -7.63795E+03  7.25030E+03 -4.74552E+03  7.38721E+03  1.05015E+03
  5.55539E+03  6.74030E+03  4.56513E+02  8.16159E+03 -6.20246E+03  5.04930E+03 -5.72703E+03 -8.29027E+02
 -6.54710E+03 -4.88269E+03 -1.93930E+03 -5.76334E+03  2.30256E+03 -5.09878E+03  2.81903E+03 -3.11852E+03
  3.53229E+03  5.16558E+02  9.46444E+02  1.37799E+03  1.14192E+03  1.04343E+03  1.18523E+03 -2.60559E+03
  5.45760E+03 -8.45217E+02  5.65744E+03  1.19864E+03  6.57145E+03  3.35419E+03  5.26672E+03  8.25947E+03
 -3.37252E+02  9.73540E+03 -9.29178E+03  8.39777E+03 -1.12099E+04  1.76225E+03 -8.53644E+03 -2.83342E+03
 -4.39359E+03 -6.09506E+03  1.03043E+02 -6.96849E+03  3.42362E+03 -3.27350E+03  2.76281E+03 -2.33864E+03
  1.70798E+03 -1.44702E+03  2.49076E+03 -1.58373E+03  3.63297E+03 -2.29722E+03  4.16094E+03  1.10787E+03
  5.03287E+03  1.29941E+03  1.65347E+03  5.57896E+03 -1.52486E+03  3.18175E+03 -4.07162E+03  4.08131E+03
 -5.46206E+03 -2.43653E+03 -1.75046E+03 -4.17115E+03  2.02209E+02 -4.84143E+03  2.67868E+03 -5.97358E+03
  6.01383E+03 -3.63642E+03  7.13369E+03  6.62356E+02  6.01826E+03  4.09551E+03  4.72210E+02  6.98014E+03
 -2.25342E+03  6.81032E+03 -4.30791E+03  2.01511E+03 -2.10862E+03 -6.76168E+02 -5.01247E+02 -1.12885E+03
 -1.56377E+02  1.25274E+03 -1.30994E+03  1.97791E+03 -2.87782E+03  8.29576E+02 -4.78507E+03 -3.04383E+01
 -1.59437E+03 -3.06912E+03  9.13886E+01 -5.00506E+03  2.77610E+03 -5.16929E+03  4.50346E+03 -1.41485E+03
  4.13787E+03  2.43696E+03  2.18964E+03  3.81390E+03 -1.19188E+03  5.85296E+03 -3.68581E+03  2.88481E+03
 -4.77311E+03 -2.71247E+01 -3.93004E+03 -2.10665E+03 -4.16421E+02 -3.37763E+03  2.89441E+03 -2.42251E+03
  3.85976E+03 -1.52263E+02  1.67112E+03  1.91681E+02  1.57153E+03  2.56566E+03  3.82076E+02 -9.57365E+02
  1.98957E+03  7.97785E+02  1.74126E+03  5.88255E+02  1.44764E+03  2.41555E+03  1.71479E+03  1.43819E+03
 -1.04773E+03  2.90930E+03 -3.59690E+03  4.55699E+03 -3.43870E+03 -5.46452E+00 -5.55522E+03  8.09247E+02
 -2.43856E+03 -3.66711E+03  1.30212E+03 -5.78376E+03  3.42978E+03 -2.34979E+03  2.90322E+03 -1.31762E+03
  1.89534E+03  9.98202E+02  1.48556E+03  2.89039E+03 -5.23197E+02  1.60234E+03 -1.40766E+03  4.43254E+02
 -1.31609E+01 -1.95299E+03  4.40858E+02 -1.77792E+03  1.89134E+03 -1.08217E+03  1.72420E+03  8.93106E+02
  1.75991E+03  1.06313E+03  1.61966E+03  5.46277E+02 -8.61137E+02  9.36266E+02  1.25563E+03  6.84603E+02
 -8.29245E+01  8.41492E+02  2.04518E+03  1.48762E+02 -1.52084E+02  2.35229E+03 -1.89361E+03  3.27688E+03
 -1.91504E+03  1.92097E+03 -2.51170E+03  1.09422E+03 -2.33079E+03 -1.18998E+03  7.11004E+01 -1.17045E+03
  4.80353E+02 -1.83812E+03  1.61099E+03 -9.74328E+02  1.39257E+03  8.91100E+02 -1.37563E+03  6.04958E+02
 -2.85964E+03  2.39409E+03 -1.53418E+03 -1.68086E+03 -8.17235E+02 -2.48573E+03  3.10986E+02 -1.40747E+03
  4.60785E+02 -2.50476E+02  2.06555E+03  8.84013E+02  1.93346E+03 -2.53685E+02  1.03435E+03  1.96878E+03
 -1.23669E+02 -1.56359E+02  1.61163E+02 -1.05251E+03  7.91277E+02 -1.86250E+03  2.29162E+03 -3.12225E+02
  1.45947E+03  7.08012E+02  3.05397E+03  7.11909E+02  8.01728E+02  1.08866E+03 -1.12020E+02  1.33951E+03
 -2.25607E+03 -6.71281E+02 -7.67409E+02 -7.59696E+02 -1.28403E+03 -1.27901E+03 -2.55361E+02 -1.65511E+03
  1.18986E+03  8.01197E+02  1.42381E+03 -1.07603E+01 -6.44660E+02  1.94088E+03  6.42538E+00  6.15413E+02
  1.06271E+02  5.05732E+01 -3.07133E+02  1.20074E+03 -1.56773E+02  1.07430E+03 -7.76660E+02  3.19419E+02
 -1.60560E+02  4.19830E+02 -1.43242E+03  7.26867E+02 -1.93668E+03  4.92320E+02 -2.78524E+03 -6.25886E+02
 -7.18178E+02 -2.01900E+03  9.89518E+02 -2.90549E+03  9.04774E+02 -3.11689E+03  2.81459E+03 -7.78565E+02
  3.75172E+03  6.39155E+02  5.28464E+02  1.60426E+03 -1.12306E+03  2.64281E+03 -7.36487E+02  1.02990E+03
 -1.85579E+03 -3.93143E+01 -7.93573E+02  5.50391E+02 -1.02586E+03 -2.64010E+02 -4.89355E+02 -5.17436E+02
 -2.04447E+03 -3.99856E+02 -4.07787E+02  1.09348E+02 -7.48279E+02  8.32235E+01  6.40630E+02 -8.69475E+02
  1.13002E+03 -5.78564E+02  6.80007E+02  1.09972E+03  1.17764E+03  1.35752E+03 -7.70142E+02  1.75066E+03
 -9.46067E+02  1.32094E+03 -1.55775E+03  1.77678E+03 -1.77711E+03 -3.20953E+02 -1.74998E+03 -9.96870E+02
 -1.38091E+03 -8.59181E+02  1.30752E+03 -7.74571E+02  1.29661E+03 -6.34385E+02  1.52165E+03 -8.05473E+02
 -4.88692E+02  7.72009E+02  7.02241E+02  4.85952E+02  2.89790E+02 -3.93024E+02 -1.41891E+02 -7.56415E+02
 -6.46984E+02 -2.77067E+01  6.65988E+02 -1.54878E+02 -5.29054E+01  1.24311E+03 -4.56419E+02  1.10367E+03
 -2.17997E+02 -4.84022E+02  2.35390E+02  1.29802E+02 -1.04943E+03 -9.67297E+02  5.29201E+02 -2.03156E+03
  4.62107E+02 -9.31150E+02  5.93286E+02 -7.27894E+02  6.10935E+02  5.65316E+02  8.06585E+02  3.63185E+02
  5.21147E+02  5.69777E+02  2.38325E+02 -6.52706E+01 -8.73211E+02 -6.05794E+01  6.12579E+02 -2.91386E+02
 -3.83945E+02 -7.87713E+02 -9.22750E+02  5.51898E+02 -4.37063E+02  1.13033E+03 -5.21757E+02  6.83439E+02
 -1.07190E+03  7.41231E+02 -8.71640E+02 -1.06555E+03  7.88470E+02 -1.70893E+03  8.88442E+02 -4.41149E+02
  7.98920E+02  3.33461E+02  1.77909E+02  1.06555E+03  1.02086E+02  1.60729E+03 -2.53052E+02  5.87990E+02
