 $NMID ID='MM_0lb_SNR200_9hz_g45_49.RAW', FMTDAT='(8E13.5)'
 TRAMP=1., VOLUME=1. $END
  3.09364E+05  4.17526E+02  3.38345E+05  2.50459E+05  8.60320E+04  3.37146E+05 -1.33927E+05  2.52658E+05
 -1.91724E+05  8.45385E+04 -1.12233E+05 -3.13968E+04 -1.31481E+03 -5.01553E+04  5.47215E+04 -3.39545E+03
  3.61885E+04  5.41154E+04 -1.66960E+04  7.51059E+04 -6.02778E+04  6.54605E+04 -8.59147E+04  3.29719E+04
 -8.28992E+04 -1.22126E+04 -5.80176E+04 -5.23897E+04 -1.44773E+04 -7.14086E+04  2.74847E+04 -4.59764E+04
  4.05578E+04  3.16427E+03  1.66647E+04  4.87387E+04 -3.47741E+04  4.81401E+04 -6.69184E+04 -4.32872E+02
 -5.36646E+04 -5.67786E+04 -7.62868E+03 -7.70888E+04  3.63181E+04 -5.73738E+04  4.81648E+04 -1.93083E+04
  4.36272E+04  1.21188E+04  3.43357E+04  2.72497E+04  1.53338E+04  3.12970E+04 -6.43092E+03  2.64365E+04
 -2.20418E+04  1.10880E+04 -1.76673E+04 -5.87825E+03  6.35974E+03 -8.04671E+03  2.22845E+04  1.44508E+04
  7.71299E+03  3.71039E+04 -3.27496E+04  3.65353E+04 -6.51169E+04  1.71949E+03 -5.94142E+04 -4.50785E+04
 -1.19472E+04 -6.64550E+04  4.03880E+04 -4.66047E+04  6.03704E+04 -2.33955E+03  3.46510E+04  3.35699E+04
 -4.10673E+03  3.99136E+04 -3.14729E+04  1.88126E+04 -3.10189E+04 -1.63809E+03 -1.89337E+04 -1.24283E+04
 -9.13969E+03 -1.50026E+04 -6.24489E+02 -1.90164E+04  7.30551E+03 -2.30742E+04  1.62563E+04 -1.25415E+04
  1.08473E+04  7.11101E+03 -1.11177E+04  1.21919E+04 -2.32424E+04 -5.84191E+03 -9.03593E+03 -3.70942E+04
  2.45886E+04 -4.64219E+04  5.33876E+04 -1.98777E+04  4.70385E+04  2.08647E+04  1.54201E+04  4.62560E+04
 -1.80171E+04  3.65877E+04 -2.76698E+04  3.09671E+03 -1.20700E+04 -3.17678E+04  2.18629E+04 -3.69654E+04
  4.50197E+04 -9.32423E+03  3.99542E+04  2.43806E+04  1.96225E+04  5.12206E+04 -9.06094E+03  5.52113E+04
 -3.52579E+04  3.60497E+04 -4.76866E+04  1.31302E+04 -4.79466E+04 -1.90843E+04 -2.61038E+04 -4.20463E+04
  8.53473E+03 -4.25512E+04  3.58071E+04 -1.75829E+04  3.24003E+04  1.16816E+04  6.35682E+03  2.06795E+04
 -1.50610E+04  8.20029E+03 -1.24903E+04 -8.24792E+03  6.68243E+03 -1.12220E+04  1.75862E+04  5.54995E+03
  1.57441E+04  2.23725E+04 -5.28342E+03  2.66433E+04 -2.36276E+04  1.38460E+04 -3.12575E+04 -2.62155E+03
 -2.56028E+04 -1.87897E+04 -1.14469E+04 -2.51743E+04  4.23123E+03 -2.41896E+04  2.01097E+04 -2.29516E+04
  3.16520E+04 -1.33791E+04  3.79636E+04  6.08643E+03  2.63325E+04  2.41621E+04  3.30577E+03  3.90108E+04
 -2.03282E+04  3.38862E+04 -3.11591E+04  1.19931E+04 -2.30150E+04 -9.97515E+03 -6.68205E+03 -1.36066E+04
 -5.55897E+02 -3.23252E+02 -6.81153E+03  9.14974E+03 -2.07786E+04  4.42202E+03 -2.04263E+04 -1.07713E+04
 -1.23886E+04 -2.15465E+04  7.14405E+03 -2.81883E+04  1.79114E+04 -2.16357E+04  2.22798E+04 -1.63948E+03
  1.32353E+04  1.41707E+04 -2.54895E+03  2.07969E+04 -1.66216E+04  1.13945E+04 -2.24084E+04 -4.91587E+03
 -1.70313E+04 -2.07401E+04 -1.68350E+03 -2.75861E+04  1.33575E+04 -2.25007E+04  2.24042E+04 -1.11202E+04
  1.94098E+04  2.97067E+02  1.63626E+04  5.32171E+03  9.07635E+03  1.25203E+03  1.07873E+04 -2.20623E+03
  2.25776E+04  2.58511E+03  2.44940E+04  1.72698E+04  1.62804E+04  3.68848E+04 -2.38507E+03  4.21565E+04
 -2.44755E+04  3.55867E+04 -3.96595E+04  1.92035E+04 -4.20830E+04 -3.12074E+03 -3.50297E+04 -2.44884E+04
 -1.46482E+04 -3.34896E+04  1.32170E+04 -3.05025E+04  2.74389E+04 -1.49005E+04  2.44052E+04  5.21893E+03
  7.02051E+03  1.87645E+04 -1.20821E+04  1.59447E+04 -1.94097E+04  3.04723E+03 -1.45984E+04 -1.24953E+04
  8.12252E+02 -2.00338E+04  1.06492E+04 -1.27738E+04  1.32105E+04 -1.31293E+03  2.55616E+03  9.34701E+03
 -7.44332E+03  3.45880E+03 -1.00062E+04 -7.03655E+03  3.94201E+00 -1.65039E+04  1.25430E+04 -1.83491E+04
  2.11509E+04 -9.64213E+03  2.52062E+04  3.02585E+03  2.18913E+04  1.85272E+04  1.07761E+04  2.65911E+04
 -4.75017E+03  2.96277E+04 -2.24809E+04  1.84171E+04 -2.22297E+04  4.95339E+03 -1.31241E+04 -5.93631E+03
 -7.81122E+03 -6.20427E+03 -3.92670E+02 -7.48094E+02 -2.53716E+03  3.47710E+03 -7.61081E+03  5.80369E+03
 -1.39691E+04 -6.65521E+02 -1.36535E+04 -1.10155E+04 -4.78845E+03 -1.87583E+04  6.54770E+03 -1.63934E+04
  1.44375E+04 -6.43691E+03  1.03550E+04  4.52788E+03  2.97294E+02  5.69579E+03 -6.37062E+03  7.01483E+01
 -7.66111E+03 -1.03671E+04 -2.64257E+03 -1.44082E+04  8.60771E+03 -1.58909E+04  1.86357E+04 -9.21446E+03
  2.22493E+04  3.04160E+03  1.61269E+04  1.42045E+04  1.94341E+03  1.69874E+04 -1.04574E+04  1.54459E+04
 -1.11666E+04  2.87549E+03 -7.29305E+03 -3.18526E+03  1.87080E+03 -4.29210E+03  7.24005E+03 -1.96094E+03
  8.47945E+03  6.64902E+03  1.51559E+03  1.12395E+04 -7.06015E+03  1.09163E+04 -1.54460E+04  3.66774E+03
 -1.16840E+04 -7.33616E+03  2.90049E+02 -1.34993E+04  8.73977E+03 -6.52845E+03  8.20023E+03  3.18838E+03
  2.77512E+03  8.92191E+03 -8.61180E+03  1.02816E+04 -1.21580E+04  2.98963E+03 -1.22638E+04 -5.18994E+03
 -7.28128E+03 -1.53972E+04  2.47217E+03 -1.85353E+04  1.50533E+04 -1.00457E+04  1.64489E+04  3.16930E+03
  8.65013E+03  1.36454E+04 -9.50858E+02  1.61190E+04 -1.05338E+04  9.48231E+03 -1.21652E+04 -1.14883E+03
 -9.75774E+03 -9.35865E+03  6.45922E+02 -1.08901E+04  6.27249E+03 -9.53347E+03  7.76269E+03 -2.62907E+03
  4.84563E+03  1.47235E+03 -1.75324E+03  1.57735E+03 -8.47679E+02 -1.98231E+03  2.04317E+03 -8.44249E+03
  1.05999E+04 -4.46507E+03  1.56322E+04  1.53450E+03  1.49861E+04  1.27922E+04  1.01133E+04  1.96268E+04
 -4.71932E+03  2.33732E+04 -1.97691E+04  1.67431E+04 -2.32690E+04  2.59438E+03 -1.94986E+04 -9.78023E+03
 -1.07286E+04 -1.48973E+04  1.63292E+02 -1.42615E+04  5.41180E+03 -7.42041E+03  4.63749E+03 -4.64567E+03
  1.71613E+03 -2.79191E+03  3.44878E+03 -2.67086E+03  5.79533E+03 -4.20090E+03  8.19060E+03 -1.70291E+03
  1.08927E+04  1.77863E+03  6.33861E+03  9.34411E+03 -2.79965E+03  1.21820E+04 -1.14603E+04  8.03584E+03
 -1.43211E+04 -1.34679E+03 -9.67066E+03 -1.14281E+04 -9.14903E+02 -1.46878E+04  8.60732E+03 -1.61389E+04
  1.58700E+04 -7.49374E+03  1.80764E+04  1.50464E+03  1.37204E+04  1.32548E+04  1.37769E+03  1.74029E+04
 -7.63316E+03  1.40738E+04 -8.60781E+03  3.45977E+03 -7.44397E+03 -3.03685E+03 -1.72461E+03 -3.06372E+02
 -2.60310E+03 -2.77800E+02 -3.12163E+03  1.53067E+03 -5.89399E+03  3.13408E+03 -9.59030E+03 -2.63886E+03
 -7.47220E+03 -9.94382E+03 -5.87734E+02 -1.50974E+04  9.22428E+03 -1.25588E+04  1.40599E+04 -5.11413E+03
  1.61260E+04  7.37504E+03  6.94091E+03  1.34815E+04 -2.00887E+03  1.41648E+04 -1.10239E+04  8.38536E+03
 -1.32070E+04 -3.37278E+01 -9.60385E+03 -9.87880E+03 -1.26803E+03 -1.04504E+04  6.31995E+03 -7.72928E+03
  1.11177E+04 -1.88364E+03  8.43623E+03  1.52735E+03  3.64951E+03  3.39650E+03  1.07040E+03  1.99164E+03
  1.84949E+03  5.76107E+02  3.58454E+03  8.05028E+02  4.47837E+03  3.60622E+03  3.47418E+03  6.39992E+03
 -3.64327E+03  9.74752E+03 -8.78529E+03  1.00228E+04 -1.48414E+04  1.35827E+03 -1.51948E+04 -7.34087E+03
 -8.45822E+03 -1.41865E+04  8.24299E+02 -1.69184E+04  9.44996E+03 -9.90260E+03  1.26904E+04 -3.45900E+03
  9.36390E+03  6.44716E+03  2.34743E+03  6.69048E+03 -4.11959E+03  5.40131E+03 -5.81978E+03 -3.95385E+02
 -2.56219E+03 -7.01094E+03  2.63058E+03 -6.21608E+03  5.61637E+03 -1.94051E+03  8.05863E+03  2.99959E+02
  3.20531E+03  4.75643E+03  1.57002E+03  1.37193E+03 -2.43516E+02  1.68365E+03  1.56758E+03 -7.83127E+02
  2.77236E+03  5.57859E+02  6.66362E+03  3.37988E+03  2.58734E+03  5.23955E+03 -1.42979E+03  1.02263E+04
 -6.93722E+03  6.37549E+03 -9.72320E+03  2.37095E+03 -9.20444E+03 -2.36905E+03 -3.88091E+03 -6.37909E+03
 -3.32029E+02 -6.50013E+03  3.92798E+03 -2.09596E+03  3.74568E+03  3.73532E+03 -2.14634E+03  4.36763E+03
 -5.63230E+03  1.15859E+03 -7.28485E+03 -2.88671E+03 -4.85636E+03 -6.56069E+03  1.34986E+03 -8.46802E+03
  4.99047E+03 -4.76821E+03  5.61446E+03 -7.70767E+02  3.61001E+03  2.17367E+03  3.41000E+02  3.75066E+03
 -3.35593E+03  2.51839E+03 -4.22027E+03 -3.06701E+03  2.30046E+03 -7.40716E+03  7.01130E+03 -4.73973E+03
  8.72563E+03  1.11431E+03  9.12357E+03  6.81538E+03  4.04705E+03  1.06720E+04 -3.97018E+03  8.89856E+03
 -8.56659E+03  3.18380E+03 -8.94263E+03 -2.02122E+03 -3.84806E+03 -6.33570E+03  6.24404E+02 -6.45746E+03
  5.44598E+03 -2.74229E+03  3.68969E+03  3.15239E+03  8.23017E+02  4.77738E+03 -1.53637E+03  5.47959E+03
 -2.19806E+03  3.52465E+03 -1.68438E+03  1.59462E+03 -7.88861E+02  1.74297E+03 -2.75976E+03  2.60180E+03
 -2.10336E+03  3.95310E+03 -9.09299E+03  3.72620E+03 -9.61797E+03  1.65081E+02 -1.15194E+04 -6.29296E+03
 -6.83947E+03 -1.23377E+04  3.12941E+03 -1.52421E+04  1.06678E+04 -1.32055E+04  1.35624E+04 -5.09645E+03
  1.34344E+04  4.68520E+03  9.64233E+03  1.02827E+04  1.71138E+03  9.73057E+03 -3.42625E+03  7.80307E+03
 -6.89579E+03  3.88873E+03 -3.55945E+03 -1.67908E+03 -8.35441E+02 -1.54804E+03 -1.07806E+03 -1.47246E+03
 -1.51586E+03  8.20967E+00 -1.35020E+03  1.83513E+03 -1.66409E+03 -2.96898E+03  4.59554E+02 -3.48107E+03
  4.38446E+03 -3.10025E+03  6.86567E+03 -9.75662E+02  4.91576E+03  4.78860E+03  1.00844E+03  9.63701E+03
 -6.33695E+03  1.15073E+04 -9.88814E+03  7.65876E+03 -1.27538E+04 -3.68099E+02 -8.92284E+03 -8.29049E+03
 -4.16297E+03 -1.05825E+04  1.72850E+03 -9.25906E+03  5.96122E+03 -6.50366E+03  6.20192E+03 -3.91367E+02
  3.88115E+03  1.49854E+03  4.86151E+02  2.76373E+03 -2.76735E+03  1.31288E+02 -5.61407E+01 -5.62673E+02
  2.56774E+03 -1.13197E+03  4.43937E+03  2.38832E+02  1.48543E+03  3.76045E+03  7.09922E+02  4.44265E+03
 -3.73521E+03  3.84875E+03 -7.50707E+03 -4.94232E+02 -4.83795E+03 -5.94880E+03  6.19065E+02 -8.44753E+03
  4.42828E+03 -6.90521E+03  7.57996E+03 -2.21772E+03  9.10465E+03  2.68728E+03  5.96296E+03  5.75800E+03
  1.77311E+03  4.09905E+03 -3.51281E+03  5.08318E+03 -4.38132E+03  2.95111E+03 -4.47984E+03  3.22775E+02
 -1.76339E+03  5.25158E+02 -2.30700E+03  2.93941E+02 -3.43535E+03  1.42521E+03 -5.02235E+03 -1.67419E+03
 -4.15151E+03 -2.92915E+03 -2.17873E+03 -5.61814E+03  2.64646E+03 -6.64954E+03  4.54894E+03 -4.89264E+03
  7.01285E+03  1.70772E+03  1.61126E+03  3.62131E+03  3.48151E+02  6.09367E+03 -5.19613E+03  5.70003E+03
