 $NMID ID='MM_0lb_SNR200_12hz_g45_23.RAW', FMTDAT='(8E13.5)'
 TRAMP=1., VOLUME=1. $END
  3.10283E+05  6.03667E+02  3.37488E+05  2.50248E+05  8.49755E+04  3.39083E+05 -1.32863E+05  2.51691E+05
 -1.89605E+05  8.24277E+04 -1.13518E+05 -3.20842E+04  5.37745E+02 -5.04792E+04  5.39320E+04  4.01906E+02
  3.51705E+04  5.23232E+04 -1.54468E+04  7.59604E+04 -6.12968E+04  6.56761E+04 -8.57685E+04  3.21535E+04
 -8.15037E+04 -1.19660E+04 -5.93769E+04 -5.07259E+04 -1.59616E+04 -7.09127E+04  2.65079E+04 -4.54688E+04
  4.05467E+04  4.52066E+03  1.72481E+04  4.73706E+04 -3.48891E+04  4.80333E+04 -6.62662E+04  1.73241E+03
 -5.48661E+04 -5.71228E+04 -6.84794E+03 -7.77174E+04  3.47398E+04 -5.58353E+04  4.83352E+04 -1.78123E+04
  4.35496E+04  1.15783E+04  3.16295E+04  2.60325E+04  1.59860E+04  3.01600E+04 -5.67019E+03  2.90780E+04
 -2.22025E+04  1.11331E+04 -1.79341E+04 -6.70473E+03  6.11097E+03 -7.79023E+03  2.45900E+04  1.35882E+04
  6.54298E+03  3.52970E+04 -3.16859E+04  3.52854E+04 -6.42153E+04  1.90974E+03 -5.78195E+04 -4.35266E+04
 -1.33321E+04 -6.34135E+04  4.11488E+04 -4.63753E+04  6.05489E+04 -2.48039E+03  3.52618E+04  3.21298E+04
 -6.72561E+03  3.66920E+04 -3.11466E+04  1.64393E+04 -3.11598E+04 -4.90585E+03 -1.72815E+04 -9.92397E+03
 -7.07813E+03 -1.50807E+04 -9.81741E+02 -1.83198E+04  7.59092E+03 -2.29675E+04  1.51803E+04 -1.32950E+04
  9.76772E+03  5.11654E+03 -7.93254E+03  1.26290E+04 -2.30225E+04 -4.98807E+03 -7.69776E+03 -3.58274E+04
  2.32976E+04 -4.45803E+04  4.90183E+04 -2.07979E+04  4.56083E+04  1.93571E+04  1.70785E+04  4.53699E+04
 -1.65707E+04  3.49671E+04 -2.62446E+04  2.15503E+03 -1.09867E+04 -2.84394E+04  2.11899E+04 -3.46013E+04
  4.24165E+04 -8.34802E+03  3.68487E+04  2.54772E+04  1.95065E+04  4.72212E+04 -7.56094E+03  5.23333E+04
 -3.30490E+04  3.55189E+04 -4.37331E+04  9.62124E+03 -4.54363E+04 -1.79665E+04 -2.35092E+04 -3.90392E+04
  7.59932E+03 -3.95081E+04  3.27919E+04 -1.51527E+04  2.94732E+04  1.07993E+04  4.64087E+03  1.99338E+04
 -1.11206E+04  8.75600E+03 -1.10464E+04 -7.35092E+03  5.86827E+03 -1.11036E+04  1.84124E+04  7.27296E+03
  1.50092E+04  2.23175E+04 -6.41747E+03  2.51256E+04 -2.18789E+04  1.15697E+04 -2.92399E+04 -3.62558E+03
 -2.31190E+04 -1.91521E+04 -9.01229E+03 -2.21756E+04  4.92092E+03 -2.15991E+04  1.72055E+04 -1.97428E+04
  2.76824E+04 -1.40750E+04  3.41442E+04  3.84115E+03  2.41908E+04  2.12411E+04  5.22411E+03  3.83658E+04
 -1.93107E+04  3.03689E+04 -2.90406E+04  1.09154E+04 -2.12367E+04 -8.84143E+03 -4.37572E+03 -1.27410E+04
  2.75502E+03 -3.62897E+03 -5.84451E+03  7.16231E+03 -1.70446E+04  5.59919E+03 -1.58658E+04 -6.21531E+03
 -1.08297E+04 -1.99358E+04  4.87332E+03 -2.37099E+04  1.62828E+04 -1.75440E+04  1.77349E+04 -8.06024E+02
  1.27937E+04  1.37123E+04 -3.51943E+02  1.98346E+04 -1.49788E+04  1.21356E+04 -2.06324E+04 -4.48970E+03
 -1.58506E+04 -1.79522E+04 -7.98366E+02 -2.31740E+04  1.10582E+04 -2.01479E+04  2.00173E+04 -1.05501E+04
  1.87865E+04  1.14570E+03  1.22252E+04  4.72562E+03  8.16469E+03  5.47143E+02  1.05674E+04 -2.64729E+03
  1.99622E+04  4.48402E+03  2.16673E+04  1.58266E+04  1.38702E+04  3.22238E+04 -2.73234E+03  3.80689E+04
 -2.17783E+04  3.05474E+04 -3.46661E+04  1.51261E+04 -3.64763E+04 -1.96762E+03 -2.98131E+04 -2.23563E+04
 -1.17258E+04 -2.93259E+04  1.03615E+04 -2.90745E+04  2.40759E+04 -1.37676E+04  2.17561E+04  5.46665E+03
  8.06831E+03  1.54130E+04 -9.32308E+03  1.22509E+04 -1.67452E+04  2.65257E+03 -1.38601E+04 -1.05710E+04
  4.98536E+01 -1.66607E+04  9.19818E+03 -1.16312E+04  1.02036E+04 -2.34196E+03  4.10839E+03  5.43167E+03
 -7.36535E+03  2.84497E+03 -6.78475E+03 -5.65819E+03  4.26125E+02 -1.34694E+04  1.16689E+04 -1.58467E+04
  1.87663E+04 -7.28216E+03  2.00250E+04  4.24050E+03  1.72510E+04  1.46112E+04  8.44804E+03  2.16104E+04
 -3.05105E+03  2.50510E+04 -1.62863E+04  1.54635E+04 -1.96259E+04  3.35321E+03 -1.31775E+04 -3.77346E+03
 -5.16262E+03 -5.94165E+03 -1.60836E+03 -6.89303E+02 -2.53284E+03  3.23192E+03 -6.25324E+03  4.48944E+03
 -1.12918E+04 -1.50484E+03 -1.36242E+04 -9.37951E+03 -5.42745E+03 -1.50421E+04  4.92905E+03 -1.25852E+04
  1.18281E+04 -5.47102E+03  8.39806E+03  3.30957E+03  2.23905E+02  5.51951E+03 -5.59046E+03  3.43730E+02
 -5.09645E+03 -7.28526E+03 -2.14046E+03 -1.27043E+04  7.03190E+03 -1.23515E+04  1.52936E+04 -6.82204E+03
  1.78712E+04  1.00374E+03  1.38936E+04  1.16617E+04  3.19337E+03  1.47213E+04 -6.99402E+03  1.29705E+04
 -1.09013E+04  4.09313E+03 -5.63710E+03 -1.61435E+03  1.97323E+03 -4.34594E+03  7.53145E+03 -3.15687E+02
  6.69230E+03  6.11214E+03  5.51817E+02  1.09672E+04 -6.92104E+03  9.38104E+03 -1.22430E+04  2.58031E+03
 -8.59366E+03 -5.78145E+03 -1.25401E+02 -1.11966E+04  6.85172E+03 -5.06404E+03  6.13875E+03  3.58940E+03
  1.89395E+03  7.94802E+03 -6.36593E+03  6.16844E+03 -9.68464E+03  5.01883E+03 -9.99605E+03 -3.54350E+03
 -5.40341E+03 -1.18802E+04  3.55793E+03 -1.29785E+04  1.13642E+04 -8.10835E+03  1.31285E+04  2.50946E+03
  6.18650E+03  8.10750E+03 -1.32941E+02  1.19757E+04 -9.46532E+03  6.82548E+03 -1.01466E+04 -9.62322E+02
 -8.73055E+03 -7.83870E+03 -1.75812E+03 -8.44388E+03  3.80095E+03 -8.52147E+03  5.92700E+03 -3.87736E+03
  2.86696E+03  1.78329E+03 -1.39488E+03  2.09721E+03 -9.53857E+02 -7.04447E+02  1.84642E+03 -4.47640E+03
  8.32726E+03 -2.56227E+03  1.13556E+04  9.12308E+02  1.09785E+04  7.94572E+03  8.50645E+03  1.39475E+04
 -2.61434E+03  1.69332E+04 -1.31812E+04  1.20590E+04 -1.83679E+04  2.71452E+03 -1.59677E+04 -7.25536E+03
 -7.30444E+03 -1.21317E+04  2.02929E+02 -1.06482E+04  2.44725E+03 -5.88621E+03  3.00218E+03 -4.47500E+03
  3.37542E+03 -2.11903E+03  1.97267E+03 -3.04674E+03  5.42431E+03 -2.33749E+03  5.42345E+03 -1.89423E+02
  7.68261E+03  2.54919E+03  3.34575E+03  6.54900E+03 -2.25261E+03  7.20010E+03 -8.41538E+03  6.24552E+03
 -1.08634E+04 -2.98617E+02 -6.70909E+03 -6.44609E+03  7.32291E+01 -1.24156E+04  6.62144E+03 -1.09869E+04
  1.18150E+04 -6.24659E+03  1.40778E+04  3.53334E+03  8.53482E+03  9.66752E+03  2.00344E+03  1.14964E+04
 -5.25844E+03  1.10881E+04 -7.29725E+03  2.78891E+03 -4.92414E+03 -3.06684E+02 -2.72141E+03 -1.50337E+03
 -3.13712E+02  5.19120E+02 -1.86953E+03  1.76403E+03 -5.71145E+03  1.82734E+03 -6.81947E+03 -4.92586E+02
 -3.43485E+03 -7.42674E+03 -9.08684E+02 -1.11735E+04  6.95959E+03 -1.01368E+04  8.39729E+03 -1.84320E+03
  9.45852E+03  3.94526E+03  5.52232E+03  8.91674E+03 -2.60910E+03  1.04517E+04 -6.95114E+03  5.24454E+03
 -1.01861E+04  1.85212E+03 -7.54278E+03 -6.55617E+03 -7.12848E+02 -8.03188E+03  3.29920E+03 -6.89235E+03
  7.20626E+03 -3.83666E+03  3.48948E+03  1.54622E+03  2.11343E+03  4.05789E+03  1.16820E+03  8.44891E+02
  2.50199E+03  3.96224E+02  2.45857E+03  5.60094E+02  2.25542E+03  3.02720E+03  3.44953E+03  5.38830E+03
 -2.79384E+03  6.98894E+03 -5.53549E+03  8.11058E+03 -8.86007E+03  1.27235E+03 -1.00344E+04 -4.29723E+03
 -5.07772E+03 -9.64791E+03  8.21917E+02 -1.07343E+04  6.86172E+03 -7.00470E+03  8.46366E+03 -1.83737E+03
  7.48861E+03  4.15802E+03 -5.25958E+02  6.19719E+03 -1.69178E+03  4.00863E+03 -3.23813E+03 -7.42854E+02
 -2.99645E+03 -4.99984E+03  1.67652E+03 -5.15344E+03  4.03905E+03 -9.45445E+02  2.36729E+03  8.32598E+02
  2.04308E+03  5.73428E+02 -1.08892E+03  1.20209E+03  1.23836E+03  1.93096E+03  2.04900E+03  4.42504E+02
  1.89995E+03 -8.58983E+02  3.50849E+03  3.40070E+03  2.78149E+03  4.28122E+03 -2.15345E+03  7.02756E+03
 -3.95949E+03  3.65432E+03 -6.03667E+03  7.25989E+02 -6.87828E+03 -1.99318E+03 -2.81371E+03 -3.30935E+03
  1.97764E+02 -2.65991E+03  1.93385E+03 -1.98970E+03  2.03918E+03  2.14776E+03 -1.23174E+03  2.50713E+03
 -3.81848E+03  1.41502E+03 -5.01234E+03 -2.13656E+03 -2.79115E+03 -5.71575E+03  1.04591E+03 -4.62493E+03
  2.55363E+03 -2.84593E+03  1.68034E+03 -5.09292E+01  3.82158E+03  9.51557E+02 -1.80605E+02  3.29011E+03
 -1.98534E+03  3.97065E+02 -3.05125E+03 -2.19566E+03  1.07102E+03 -4.17165E+03  4.73550E+03 -3.04987E+03
  6.19117E+03  3.35426E+02  6.34439E+03  3.48642E+03  3.53814E+03  6.27328E+03 -3.00573E+03  4.89327E+03
 -5.54771E+03  1.78506E+03 -4.24897E+03  5.37807E+02 -2.84124E+03 -3.10750E+03  1.84090E+03 -3.97025E+03
  2.62304E+03 -1.83282E+03  2.43625E+03  6.75317E+02  1.08159E+03  3.80977E+03 -1.23015E+03  3.52180E+03
 -2.30392E+03  2.05857E+03 -3.72349E+02  2.22202E+02 -1.16944E+03  1.09027E+03 -7.82789E+02  3.17040E+02
 -1.05091E+03  3.05016E+03 -4.44979E+03  5.43683E+02 -6.76903E+03  1.33599E+03 -6.32696E+03 -2.97009E+03
 -4.33941E+03 -7.79954E+03  9.55308E+02 -8.74888E+03  6.16096E+03 -5.92211E+03  8.19842E+03 -2.44210E+03
  7.25801E+03  1.23839E+03  5.02689E+03  4.85726E+03  8.72728E+02  7.16546E+03 -5.54312E+02  3.75717E+03
 -1.77717E+03  6.34921E+02 -9.65977E+02  1.40038E+02 -1.34743E+03 -1.50160E+03 -2.32776E+01 -7.48816E+02
 -1.81320E+03  2.96501E+02 -1.49846E+03  5.20606E+02 -7.59134E+01 -1.37720E+03 -3.19199E+02 -2.55328E+03
  4.43063E+03 -1.76557E+03  3.37385E+03 -1.02578E+03  5.29442E+03  2.91896E+03  4.38148E+02  5.82758E+03
 -3.05977E+03  6.48569E+03 -7.01058E+03  4.25783E+03 -6.80948E+03  4.11824E+02 -5.99344E+03 -4.27122E+03
 -1.30993E+03 -5.49553E+03  2.33991E+03 -5.18469E+03  2.37628E+03 -4.55506E+03  3.37414E+03 -3.52203E+02
  8.86172E+02  1.08414E+03 -4.14973E+02  1.03085E+02 -7.07447E+02 -2.23056E+02 -8.38061E+02 -2.05360E+03
  1.41099E+03 -9.02023E+02  1.89042E+03  3.02312E+02  2.25176E+03  2.77013E+03  5.76244E+02  3.67750E+03
 -2.42953E+03  3.23225E+03 -4.01981E+03  8.95167E+02 -2.35489E+03 -1.66166E+03 -1.82796E+02 -3.88033E+03
  3.14623E+03 -4.00768E+03  3.50756E+03 -8.51679E+02  4.46367E+03  9.07911E+02  1.65739E+03  2.35550E+03
  4.73652E+02  2.92610E+03 -1.63947E+03  3.20672E+03 -2.28361E+03  3.05460E+02 -2.02780E+03  6.45799E+02
 -6.96670E+02  1.20962E+02 -1.76606E+03  1.08501E+03 -3.11899E+03 -1.55500E+02 -2.58678E+03  3.92916E+01
 -2.97937E+03 -2.19261E+03 -2.26322E+03 -4.76541E+03  1.64023E+03 -1.96155E+03  5.37892E+03 -1.85202E+03
  4.22275E+03  9.31595E+02  2.89432E+03  3.27198E+03 -2.51404E+02  2.73886E+03 -2.67121E+03  2.67981E+03
