 $NMID ID='MM_0lb_SNR200_11hz_g45_89.RAW', FMTDAT='(8E13.5)'
 TRAMP=1., VOLUME=1. $END
  3.09516E+05  1.23265E+03  3.36158E+05  2.50566E+05  8.47219E+04  3.37940E+05 -1.31985E+05  2.52147E+05
 -1.91195E+05  8.18620E+04 -1.11580E+05 -3.31301E+04  6.10310E+02 -5.00491E+04  5.40977E+04 -4.35624E+02
  3.58019E+04  5.20159E+04 -1.56809E+04  7.58497E+04 -6.10760E+04  6.37514E+04 -8.47424E+04  3.17294E+04
 -8.12682E+04 -1.18268E+04 -5.87274E+04 -5.27370E+04 -1.60163E+04 -6.90335E+04  2.64477E+04 -4.54413E+04
  4.14095E+04  3.36897E+03  1.61522E+04  4.76350E+04 -3.39085E+04  4.77277E+04 -6.60914E+04 -1.20158E+02
 -5.45265E+04 -5.64146E+04 -7.20422E+03 -7.68909E+04  3.31771E+04 -5.47686E+04  4.80234E+04 -1.78891E+04
  4.48923E+04  1.18485E+04  3.17244E+04  2.46178E+04  1.61919E+04  3.05131E+04 -6.38483E+03  2.81242E+04
 -2.34951E+04  1.10247E+04 -1.89236E+04 -5.89143E+03  7.34427E+03 -7.07243E+03  2.42791E+04  1.35325E+04
  6.25231E+03  3.64600E+04 -3.31365E+04  3.78900E+04 -6.59657E+04  2.18295E+03 -5.77362E+04 -4.38965E+04
 -1.28405E+04 -6.29659E+04  4.10655E+04 -4.64677E+04  6.08669E+04 -1.67860E+03  3.36044E+04  3.39073E+04
 -4.40715E+03  3.84054E+04 -3.02189E+04  1.83579E+04 -3.25850E+04 -4.72551E+03 -1.76865E+04 -1.26764E+04
 -8.74207E+03 -1.43443E+04 -1.54171E+03 -1.77365E+04  7.16869E+03 -2.26674E+04  1.46236E+04 -1.23402E+04
  1.05545E+04  6.08524E+03 -9.56120E+03  1.30031E+04 -2.17127E+04 -5.73345E+03 -8.64993E+03 -3.54059E+04
  2.53363E+04 -4.43732E+04  4.91326E+04 -2.07270E+04  4.55137E+04  1.95390E+04  1.63233E+04  4.45267E+04
 -1.53102E+04  3.42469E+04 -2.56930E+04  2.24725E+03 -1.16002E+04 -2.95970E+04  2.16052E+04 -3.48533E+04
  4.26353E+04 -9.64959E+03  3.86780E+04  2.55337E+04  2.01213E+04  4.85035E+04 -8.65922E+03  5.23465E+04
 -3.33152E+04  3.68441E+04 -4.54138E+04  8.84986E+03 -4.57548E+04 -1.77599E+04 -2.53889E+04 -3.96209E+04
  6.60734E+03 -4.07884E+04  3.20584E+04 -1.51727E+04  3.12632E+04  1.10308E+04  4.91259E+03  1.91609E+04
 -1.39864E+04  9.05523E+03 -1.19349E+04 -7.70278E+03  6.50301E+03 -1.12884E+04  1.90971E+04  4.83889E+03
  1.30505E+04  2.34897E+04 -5.95550E+03  2.59832E+04 -2.34470E+04  1.37967E+04 -2.93457E+04 -3.99139E+03
 -2.23592E+04 -1.86547E+04 -1.15061E+04 -2.26752E+04  3.96181E+03 -2.35848E+04  1.72386E+04 -2.08697E+04
  2.99507E+04 -1.43352E+04  3.46466E+04  3.46799E+03  2.72865E+04  2.17672E+04  4.63160E+03  3.98039E+04
 -2.02985E+04  3.26283E+04 -2.81515E+04  1.09468E+04 -1.99365E+04 -8.95273E+03 -3.82105E+03 -1.34665E+04
  2.26602E+03 -2.26296E+03 -6.52792E+03  7.02310E+03 -1.78119E+04  5.54555E+03 -1.70249E+04 -9.18017E+03
 -1.06032E+04 -2.13002E+04  5.22140E+03 -2.58323E+04  1.79675E+04 -1.94668E+04  2.03208E+04 -1.65282E+03
  1.25816E+04  1.44783E+04 -2.12136E+03  2.21075E+04 -1.49049E+04  1.07974E+04 -2.19519E+04 -4.57592E+03
 -1.65281E+04 -1.90949E+04 -1.28564E+03 -2.47657E+04  1.15406E+04 -2.15014E+04  2.25507E+04 -1.20135E+04
  2.01589E+04  6.73184E+01  1.47952E+04  5.39030E+03  8.43445E+03  2.08688E+03  1.12785E+04 -1.91502E+03
  2.04548E+04  2.84119E+03  2.25808E+04  1.66874E+04  1.51442E+04  3.35068E+04 -3.47156E+03  4.01346E+04
 -2.27207E+04  3.24697E+04 -3.66126E+04  1.57630E+04 -3.80703E+04 -2.18409E+03 -3.21031E+04 -2.18456E+04
 -1.36885E+04 -3.25282E+04  1.00220E+04 -2.78776E+04  2.43518E+04 -1.44275E+04  2.20882E+04  6.48491E+03
  7.98050E+03  1.66455E+04 -1.09390E+04  1.15978E+04 -1.71320E+04  1.50388E+03 -1.51382E+04 -1.18439E+04
 -7.40452E+02 -1.82201E+04  1.02226E+04 -1.18079E+04  1.23374E+04 -1.63491E+03  2.23637E+03  6.41418E+03
 -8.14165E+03  2.87392E+03 -7.66492E+03 -6.07606E+03 -2.29341E+03 -1.52210E+04  1.02559E+04 -1.63126E+04
  1.93074E+04 -8.64374E+03  2.15133E+04  4.82942E+03  1.93947E+04  1.73166E+04  8.26387E+03  2.58551E+04
 -5.10894E+03  2.71354E+04 -1.65975E+04  1.53355E+04 -1.78700E+04  4.72936E+03 -1.45312E+04 -5.81642E+03
 -6.10110E+03 -6.15616E+03 -1.40674E+03 -3.16261E+00 -2.25365E+03  3.02052E+03 -5.99375E+03  4.58337E+03
 -1.29818E+04 -1.01506E+02 -1.32180E+04 -9.31589E+03 -5.75058E+03 -1.74567E+04  4.55237E+03 -1.31193E+04
  1.10013E+04 -5.41491E+03  8.96974E+03  3.87372E+03  1.84514E+03  5.96412E+03 -6.06680E+03  8.34975E+02
 -6.23916E+03 -9.03583E+03  2.26513E+02 -1.38204E+04  7.63044E+03 -1.44122E+04  1.57691E+04 -7.69548E+03
  2.01141E+04  6.64163E+02  1.45986E+04  1.14488E+04  2.48191E+03  1.69347E+04 -8.38910E+03  1.12878E+04
 -1.09548E+04  3.26788E+03 -5.86693E+03 -1.91826E+03  1.01891E+03 -3.19311E+03  8.17941E+03 -1.74416E+03
  5.61875E+03  5.52817E+03  1.41748E+03  1.20558E+04 -8.12091E+03  1.06093E+04 -1.35862E+04  1.84942E+03
 -8.47385E+03 -6.24252E+03 -4.32105E+02 -1.23942E+04  6.62094E+03 -5.62008E+03  7.50848E+03  4.15742E+03
  1.71992E+03  7.28229E+03 -6.41608E+03  1.00517E+04 -9.84932E+03  3.65144E+03 -1.08676E+04 -4.23440E+03
 -5.85759E+03 -1.34602E+04  2.77578E+03 -1.49234E+04  1.15316E+04 -8.93339E+03  1.40431E+04  2.98141E+03
  6.99770E+03  1.09036E+04 -5.61748E+02  1.27040E+04 -9.16463E+03  7.52192E+03 -9.77826E+03 -1.67574E+03
 -8.91702E+03 -9.29596E+03 -2.70117E+03 -1.03977E+04  4.99472E+03 -8.09181E+03  6.36380E+03 -3.50345E+03
  4.18929E+03  7.87440E+02 -6.71629E+02  2.12007E+03 -5.95779E+02 -2.50506E+03  1.40097E+03 -6.78156E+03
  9.00213E+03 -3.69901E+03  1.41890E+04  1.83450E+03  1.22222E+04  8.94993E+03  8.20947E+03  1.66549E+04
 -5.78623E+03  1.92994E+04 -1.51546E+04  1.44559E+04 -2.01945E+04  2.16897E+03 -1.63454E+04 -8.03031E+03
 -8.09191E+03 -1.31588E+04  3.70875E+02 -1.15533E+04  6.04554E+03 -7.28247E+03  4.44311E+03 -4.82129E+03
  3.62768E+03 -3.35910E+03  3.79396E+03 -3.14882E+03  5.10390E+03 -3.37842E+03  6.41651E+03  3.49078E+02
  8.90153E+03  2.20156E+03  4.69536E+03  7.01712E+03 -1.51189E+03  9.16312E+03 -9.85028E+03  7.97394E+03
 -1.23545E+04  3.12775E+02 -7.77812E+03 -7.07724E+03 -1.19384E+03 -1.20449E+04  8.09006E+03 -1.22140E+04
  1.28314E+04 -8.05454E+03  1.58952E+04  1.49948E+03  9.30885E+03  1.01925E+04  1.37941E+03  1.36555E+04
 -4.82621E+03  1.16903E+04 -8.56529E+03  2.79873E+03 -4.95189E+03 -1.46454E+03 -2.73265E+03 -1.69277E+03
  4.08226E+02 -6.37977E+01 -2.57821E+03  2.61511E+03 -6.02875E+03  1.61816E+03 -9.56375E+03 -2.06374E+03
 -5.45846E+03 -7.72030E+03  4.22541E+02 -1.23668E+04  7.01514E+03 -1.01035E+04  1.13430E+04 -3.70742E+03
  9.41849E+03  4.56791E+03  5.24406E+03  9.54943E+03 -2.12749E+03  1.17116E+04 -8.78008E+03  6.72916E+03
 -1.04392E+04  3.39206E+02 -8.76268E+03 -7.41457E+03 -1.22344E+03 -9.17594E+03  5.33151E+03 -8.15943E+03
  8.18352E+03 -3.18460E+03  5.15701E+03  2.43643E+03  1.03200E+03  3.47756E+03  3.15589E+03  1.34311E+03
  2.67121E+03 -3.44917E+02  2.22819E+03  1.84077E+03  2.89969E+03  4.58938E+03  2.45942E+03  5.55011E+03
 -3.72999E+03  9.23577E+03 -8.53192E+03  8.94449E+03 -1.14837E+04  1.19893E+03 -1.12864E+04 -4.49536E+03
 -5.49738E+03 -1.13739E+04  1.15304E+03 -1.15853E+04  6.42461E+03 -6.78812E+03  9.28464E+03 -2.42525E+03
  7.87209E+03  3.69713E+03  1.55077E+03  7.80526E+03 -3.60780E+03  4.11434E+03 -2.07241E+03 -8.54974E+02
 -1.93315E+03 -4.49822E+03  3.29368E+03 -3.70481E+03  3.80004E+03 -2.59015E+03  3.74513E+03  6.59242E+02
  1.41366E+03  2.34606E+03 -8.06992E+01  2.02635E+03 -6.54070E+02  2.10643E+03  1.52465E+03 -1.00398E+02
  1.63840E+03 -9.26325E+02  4.31434E+03  4.59577E+02  2.50047E+03  6.19124E+03 -3.15121E+02  8.09873E+03
 -5.39858E+03  4.73552E+03 -7.20262E+03 -4.33777E+02 -5.81778E+03 -3.01935E+03 -4.13942E+03 -4.30906E+03
  1.59805E+02 -5.65892E+03  3.41964E+03 -2.41604E+03  2.57728E+03  2.94991E+03 -2.40627E+03  4.20480E+03
 -5.56975E+03  2.95342E+00 -5.66564E+03 -4.27758E+03 -1.29679E+03 -5.94300E+03  9.70202E+02 -4.90227E+03
  3.79923E+03 -3.97801E+03  4.17679E+03 -1.35121E+03  2.66044E+03 -1.45775E+02  4.59600E+02  3.94981E+03
 -1.38033E+03  1.24713E+03 -2.55767E+03 -3.34041E+03  1.20793E+03 -2.80191E+03  4.74041E+03 -3.62708E+03
  8.46555E+03  1.49362E+03  6.95608E+03  4.70147E+03  3.65754E+03  7.35534E+03 -4.82262E+03  5.56038E+03
 -5.26625E+03  2.37096E+03 -7.03201E+03 -1.12227E+03 -2.88922E+03 -5.14993E+03  8.21588E+02 -2.90647E+03
  4.71013E+03 -2.69256E+03  5.37864E+03  1.39662E+03  1.96424E+03  4.01616E+03 -1.04409E+03  4.04444E+03
 -2.04437E+03  3.81256E+03 -1.12833E+03  5.75015E+02 -1.84158E+03  6.72019E+02 -1.13710E+03  1.19029E+03
 -1.22942E+03  3.33388E+03 -4.62574E+03  3.49771E+03 -8.71220E+03  9.46682E+01 -7.76442E+03 -4.27145E+03
 -2.67955E+03 -9.35764E+03  1.70397E+03 -9.54474E+03  6.02182E+03 -8.07177E+03  1.07986E+04 -3.49830E+03
  9.60763E+03  2.24091E+03  5.64775E+03  6.33897E+03  2.43148E+02  6.19786E+03 -4.10780E+03  5.78537E+03
 -5.08641E+03  2.13122E+03 -3.31872E+03  3.10801E+02 -2.60904E+02 -7.98811E+02 -9.17590E+02 -6.17366E+02
 -1.03444E+03 -7.87527E+02 -1.77063E+03 -1.35960E+03  1.08702E+02 -1.96054E+03 -9.57443E+02 -2.12568E+03
  2.54531E+03 -1.99725E+03  3.82919E+03 -2.14425E+02  5.63087E+03  2.42972E+03  1.13862E+03  8.55184E+03
 -3.00091E+03  7.67899E+03 -7.07698E+03  5.39755E+03 -6.65761E+03 -1.44176E+02 -5.37126E+03 -4.81074E+03
 -2.30940E+03 -7.24037E+03  1.60946E+03 -6.99507E+03  5.69969E+03 -3.69426E+03  2.47649E+03 -5.18919E+02
  1.41877E+03  3.01481E+03  5.25558E+02  2.22881E+03 -1.12713E+03  5.79760E+01  1.18580E+03 -7.65840E+02
  2.27651E+03 -1.62732E+03  2.55042E+03  2.88482E+02  1.75367E+03  3.66177E+03  6.02427E+02  2.53940E+03
 -3.11419E+03  3.13201E+03 -4.56932E+03  5.61527E+02 -4.82167E+03 -3.44279E+03 -2.46125E+01 -5.48161E+03
  3.40960E+03 -4.68341E+03  5.09720E+03 -1.66012E+03  3.47800E+03  1.70529E+03  2.09789E+03  3.20849E+03
  5.05014E+02  3.78348E+03 -1.79853E+03  3.85524E+03 -2.14488E+03  2.44043E+03 -2.30291E+03  2.18455E+03
 -7.30576E+01 -1.55885E+02 -1.28214E+03  1.44910E+03 -2.19057E+03 -6.30356E+01 -3.46350E+03  1.62241E+02
 -3.32358E+03 -7.86092E+02 -4.35918E+02 -5.02918E+03  2.33778E+03 -4.18498E+03  4.02362E+03 -1.77632E+03
  4.21160E+03  1.21278E+03  2.67600E+03  2.44006E+03 -3.95355E+02  5.03402E+03 -2.18357E+03  3.08773E+03
