 $NMID ID='MM_0lb_SNR200_11hz_g55_23.RAW', FMTDAT='(8E13.5)'
 TRAMP=1., VOLUME=1. $END
  3.10747E+05  4.14896E+02  3.38917E+05  2.50081E+05  8.52909E+04  3.39368E+05 -1.32381E+05  2.52336E+05
 -1.91703E+05  8.22287E+04 -1.12837E+05 -3.11499E+04  2.95145E+02 -5.02204E+04  5.38429E+04 -1.05642E+03
  3.55670E+04  5.34769E+04 -1.59217E+04  7.59267E+04 -6.09037E+04  6.56468E+04 -8.55295E+04  3.10791E+04
 -8.09814E+04 -1.21649E+04 -5.79751E+04 -5.18055E+04 -1.32541E+04 -7.06141E+04  2.68679E+04 -4.67206E+04
  4.07814E+04  3.75752E+03  1.62413E+04  4.81669E+04 -3.42990E+04  4.76842E+04 -6.77063E+04 -1.61416E+03
 -5.44433E+04 -5.68096E+04 -7.36889E+03 -7.86667E+04  3.43080E+04 -5.70228E+04  5.05767E+04 -1.80766E+04
  4.66998E+04  1.19186E+04  3.31460E+04  2.67479E+04  1.56101E+04  3.06748E+04 -6.78268E+03  2.87332E+04
 -2.28843E+04  1.15176E+04 -1.68805E+04 -4.97530E+03  6.84657E+03 -7.86159E+03  2.16397E+04  1.34475E+04
  6.16077E+03  3.65325E+04 -3.31488E+04  3.70829E+04 -6.50166E+04  1.64765E+03 -5.87220E+04 -4.29168E+04
 -1.21243E+04 -6.52724E+04  4.19546E+04 -4.66296E+04  5.89015E+04 -3.39910E+03  3.66367E+04  3.33979E+04
 -5.39681E+03  3.82836E+04 -3.04137E+04  1.87319E+04 -3.13065E+04 -3.62759E+03 -1.94963E+04 -9.74466E+03
 -9.73618E+03 -1.37237E+04  2.60729E+02 -2.01470E+04  7.38350E+03 -2.34861E+04  1.55932E+04 -1.30816E+04
  1.17476E+04  6.35983E+03 -1.02383E+04  1.21206E+04 -2.32201E+04 -6.29793E+03 -9.07827E+03 -3.67884E+04
  2.44989E+04 -4.55757E+04  5.17709E+04 -1.98424E+04  4.83104E+04  2.08045E+04  1.69088E+04  4.81507E+04
 -1.81118E+04  3.49763E+04 -2.78224E+04  2.74882E+03 -1.20939E+04 -2.86393E+04  2.16219E+04 -3.65871E+04
  4.38690E+04 -1.19175E+04  3.93830E+04  2.45719E+04  2.04626E+04  5.03956E+04 -8.95085E+03  5.36015E+04
 -3.36591E+04  3.67292E+04 -4.63585E+04  1.02728E+04 -4.63147E+04 -1.73376E+04 -2.51521E+04 -3.99323E+04
  1.00239E+04 -4.08029E+04  3.27240E+04 -1.65203E+04  3.26976E+04  1.04546E+04  4.87804E+03  2.06305E+04
 -1.29240E+04  8.46749E+03 -1.10687E+04 -7.31032E+03  5.87565E+03 -1.09744E+04  1.80393E+04  4.72106E+03
  1.41072E+04  2.16171E+04 -5.36577E+03  2.68796E+04 -2.35322E+04  1.24917E+04 -2.94785E+04 -3.09869E+03
 -2.42376E+04 -1.90103E+04 -9.59711E+03 -2.39761E+04  4.03514E+03 -2.50058E+04  1.59801E+04 -2.15222E+04
  3.09463E+04 -1.41846E+04  3.64688E+04  3.57816E+03  2.50203E+04  2.21156E+04  4.23876E+03  4.09677E+04
 -1.87572E+04  3.41398E+04 -2.86610E+04  1.13216E+04 -2.27943E+04 -1.05507E+04 -5.59160E+03 -1.39428E+04
  1.05537E+03 -1.36488E+03 -6.76362E+03  6.73526E+03 -1.75023E+04  5.29257E+03 -1.83259E+04 -1.01488E+04
 -1.03698E+04 -2.28583E+04  5.07848E+03 -2.56100E+04  1.75734E+04 -1.77696E+04  1.96176E+04 -3.64652E+02
  1.20286E+04  1.45776E+04 -1.85965E+02  2.37895E+04 -1.39925E+04  1.22335E+04 -2.04027E+04 -5.04124E+03
 -1.50884E+04 -1.95511E+04 -1.73193E+03 -2.65266E+04  1.33030E+04 -2.15735E+04  2.01472E+04 -1.12425E+04
  2.09353E+04 -6.10199E+02  1.56017E+04  4.36575E+03  7.23989E+03  2.26071E+03  1.27228E+04 -2.28703E+03
  2.06257E+04  2.27663E+03  2.15118E+04  1.76085E+04  1.77228E+04  3.53935E+04 -2.09428E+03  4.09329E+04
 -2.48673E+04  3.41607E+04 -3.93166E+04  1.76145E+04 -4.14203E+04 -3.06334E+03 -3.51476E+04 -2.33129E+04
 -1.44730E+04 -3.40447E+04  1.21975E+04 -2.93533E+04  2.48720E+04 -1.45716E+04  2.21637E+04  6.91800E+03
  7.67238E+03  1.77430E+04 -1.11186E+04  1.46283E+04 -1.81303E+04  2.34565E+03 -1.27019E+04 -1.12300E+04
  9.51690E+01 -1.80371E+04  9.16230E+03 -1.43768E+04  1.23454E+04  1.52968E+02  2.49265E+03  7.48643E+03
 -6.54007E+03  2.28746E+03 -7.93571E+03 -5.85681E+03 -2.03760E+02 -1.65177E+04  1.22546E+04 -1.64545E+04
  2.12033E+04 -9.80285E+03  2.30326E+04  2.78086E+03  2.04508E+04  1.67238E+04  8.92943E+03  2.76451E+04
 -4.56555E+03  2.72512E+04 -1.89167E+04  1.66396E+04 -2.00086E+04  3.07980E+03 -1.51692E+04 -5.37685E+03
 -4.77123E+03 -6.95267E+03 -1.69952E+03  2.88467E+01 -3.27016E+03  4.12262E+03 -6.59570E+03  4.87889E+03
 -1.27094E+04 -1.42953E+03 -1.36170E+04 -1.00510E+04 -4.98368E+03 -1.72240E+04  4.78464E+03 -1.41987E+04
  1.14683E+04 -6.26017E+03  7.35686E+03  3.31153E+03  1.00368E+03  5.06508E+03 -6.91626E+03  5.32554E+01
 -7.12388E+03 -8.95899E+03 -6.33985E+02 -1.36007E+04  8.11957E+03 -1.55009E+04  1.71806E+04 -8.65768E+03
  2.02921E+04  1.81448E+03  1.63361E+04  1.13900E+04  2.27003E+03  1.80808E+04 -7.94107E+03  1.29399E+04
 -1.04735E+04  4.34743E+03 -5.86583E+03 -3.10078E+03  2.03797E+03 -3.68473E+03  7.19154E+03 -9.74515E+02
  6.17483E+03  7.12625E+03  1.99491E+02  1.24853E+04 -9.33233E+03  1.03745E+04 -1.34903E+04  1.69437E+03
 -1.01223E+04 -6.45145E+03  4.63728E+02 -1.16348E+04  8.66369E+03 -6.61889E+03  8.20115E+03  3.37514E+03
  1.53066E+03  8.90845E+03 -6.53640E+03  1.05650E+04 -1.15767E+04  5.71561E+03 -1.40774E+04 -5.33329E+03
 -7.73717E+03 -1.30832E+04  2.16455E+03 -1.68873E+04  1.33069E+04 -1.02390E+04  1.53129E+04  2.13775E+03
  8.17923E+03  1.03432E+04 -7.41347E+02  1.36494E+04 -1.09797E+04  7.64298E+03 -1.18791E+04 -1.84735E+03
 -8.83542E+03 -8.93547E+03 -1.85956E+03 -1.01280E+04  4.53435E+03 -8.00018E+03  6.37026E+03 -4.15386E+03
  4.64019E+03  2.49755E+03 -2.23806E+02  1.12579E+03 -1.89084E+03 -2.28033E+03  3.14842E+03 -6.67561E+03
  9.77049E+03 -3.50840E+03  1.35961E+04  2.74378E+03  1.30978E+04  8.80153E+03  9.73215E+03  1.79118E+04
 -6.62554E+03  2.12711E+04 -1.63791E+04  1.49083E+04 -2.21530E+04  2.44260E+03 -1.71798E+04 -7.48542E+03
 -9.46553E+03 -1.43152E+04  9.55391E+02 -1.31076E+04  5.38995E+03 -7.19323E+03  5.44183E+03 -3.26235E+03
  1.78561E+03 -3.31647E+03  3.88817E+03 -2.90844E+03  4.75900E+03 -2.06392E+03  7.85302E+03 -1.74560E+03
  8.76533E+03  2.51988E+03  6.65853E+03  7.24498E+03 -3.17027E+03  9.95569E+03 -9.48752E+03  7.07601E+03
 -1.20163E+04 -1.85154E+03 -8.87138E+03 -8.61607E+03  3.09290E+02 -1.21937E+04  7.41432E+03 -1.27503E+04
  1.37799E+04 -7.85592E+03  1.72295E+04  7.44479E+02  1.22693E+04  1.08367E+04  1.85261E+03  1.37554E+04
 -6.53253E+03  1.10141E+04 -9.43373E+03  4.95100E+03 -5.07131E+03 -2.73488E+03 -2.09463E+03 -1.68161E+03
 -1.46251E+03  3.05282E+02 -1.79695E+03  2.55127E+03 -7.14797E+03  3.12463E+03 -7.86116E+03 -1.78871E+03
 -6.15445E+03 -8.94562E+03  7.04456E+02 -1.14095E+04  7.41466E+03 -1.06739E+04  1.12452E+04 -2.65806E+03
  1.29547E+04  6.17301E+03  5.05157E+03  1.01056E+04 -8.39493E+02  1.30386E+04 -7.97005E+03  7.90889E+03
 -9.85012E+03  1.44873E+03 -9.15481E+03 -6.11379E+03 -1.70990E+03 -1.12262E+04  6.34499E+03 -7.44020E+03
  7.35315E+03 -2.75780E+03  5.17029E+03  1.79404E+03  2.34645E+03  4.67987E+03  3.46690E+03  1.32824E+03
  4.87752E+03  1.66670E+03  2.85762E+03  1.32650E+03  4.49113E+03  4.81026E+03  4.20928E+03  6.40119E+03
 -2.07735E+03  1.00184E+04 -8.62618E+03  9.66863E+03 -1.06450E+04  2.42532E+03 -1.29703E+04 -3.98521E+03
 -5.14613E+03 -1.12943E+04  3.46950E+03 -1.26765E+04  6.52616E+03 -8.15663E+03  1.04089E+04 -2.69408E+03
  9.21159E+03  4.80298E+03  1.89220E+03  6.86115E+03 -1.86897E+03  3.70841E+03 -4.88293E+03 -1.49134E+03
 -2.59598E+03 -5.47632E+03  3.43383E+03 -4.93672E+03  5.10472E+03 -3.28654E+03  6.01665E+03  2.71036E+02
  2.55338E+03  2.12010E+03  7.96099E+02  1.50356E+03 -8.55412E+02  1.02085E+02  2.25220E+02 -3.12235E+02
  2.36932E+03 -7.24181E+02  6.78969E+03  1.81102E+03  1.27275E+03  7.43908E+03 -8.39857E+02  9.31796E+03
 -6.03557E+03  5.53215E+03 -7.63248E+03  2.18957E+03 -6.26159E+03 -2.73556E+03 -4.18565E+03 -4.31118E+03
  2.01796E+02 -5.21192E+03  3.22086E+03 -2.12377E+03  3.68163E+03  2.97984E+03 -2.34303E+03  4.95476E+03
 -5.93816E+03  2.65520E+03 -5.26292E+03 -3.72042E+03 -1.33186E+03 -6.93136E+03  1.54605E+03 -7.09962E+03
  3.24986E+03 -4.51816E+03  3.08999E+03 -1.30093E+03  2.71242E+03  2.38334E+03  3.57404E+02  3.97040E+03
 -2.40706E+03  1.70280E+02 -3.84257E+03 -2.05873E+03  2.07197E+03 -2.78765E+03  5.41518E+03 -3.22194E+03
  7.50851E+03  5.51980E+02  7.65986E+03  6.03944E+03  2.31511E+03  7.46752E+03 -2.33990E+03  8.40090E+03
 -6.46249E+03  3.63951E+03 -5.80803E+03 -2.30500E+03 -2.95734E+03 -4.38541E+03  5.33383E+02 -4.03492E+03
  5.11967E+03 -9.39265E+01  4.44944E+03  2.46852E+03  7.75759E+02  3.70088E+03  4.41484E+02  3.92328E+03
 -1.78766E+03  2.20023E+03 -1.09882E+03 -8.15263E+02 -7.64338E+02  9.55602E+01 -8.84628E+02  1.32987E+03
 -2.35723E+03  3.57464E+03 -4.31176E+03  3.31319E+03 -7.32319E+03  1.74619E+03 -9.62762E+03 -4.75758E+03
 -4.93320E+03 -1.04897E+04  3.20122E+03 -1.09059E+04  6.62321E+03 -8.61727E+03  1.09412E+04 -4.17674E+03
  9.62748E+03  2.77558E+03  5.86481E+03  6.55738E+03 -2.07183E+01  8.47477E+03 -2.53933E+03  5.20253E+03
 -5.59329E+03  1.98989E+03 -3.26997E+03 -1.71675E+03 -1.18402E+03 -2.20094E+02 -1.76468E+03  7.33806E+02
 -1.59224E+03 -1.45762E+02 -3.09285E+03 -4.17644E+01 -7.28949E+02 -8.83977E+02  1.70635E+03 -1.57707E+03
  4.28181E+03 -2.31894E+03  3.88245E+03  1.45984E+02  4.38490E+03  3.64737E+03  1.52704E+03  7.13522E+03
 -3.87257E+03  9.43382E+03 -8.77816E+03  5.12931E+03 -9.57230E+03 -2.67086E+02 -6.21169E+03 -6.65930E+03
 -3.67869E+03 -7.72061E+03  7.14931E+02 -6.94870E+03  4.06916E+03 -3.00945E+03  6.62756E+03  1.28147E+03
  3.10446E+03  1.19942E+03  2.16662E+02  2.14498E+03 -1.43302E+03  1.25112E+02 -2.37367E+02 -3.14546E+03
  2.78638E+03 -8.81944E+02  2.60063E+03  1.71432E+03  6.01755E+02  3.90198E+03 -1.76486E+02  4.33107E+03
 -3.23444E+03  4.56169E+03 -5.19988E+03  1.36175E+03 -5.20026E+03 -4.88450E+03 -1.14214E+03 -5.81000E+03
  2.03355E+03 -4.23546E+03  5.64683E+03  1.64910E+02  5.46212E+03  8.05848E+02  4.23144E+03  4.71212E+03
  1.04255E+03  4.04775E+03 -1.44910E+03  3.18848E+03 -1.08571E+03  2.83609E+03 -1.31759E+03  3.48104E+01
 -1.74849E+03 -3.04455E+02 -1.33910E+03  1.36247E+03 -1.43712E+03  5.37012E+02 -3.09962E+03 -4.30633E+02
 -2.93493E+03 -1.72402E+03 -1.37193E+03 -4.67655E+03  2.12258E+03 -4.36295E+03  4.73721E+03 -2.72402E+03
  3.94284E+03  9.88551E+02  1.97793E+03  4.90934E+03 -8.93197E+02  4.98316E+03 -3.32997E+03  3.21281E+03
