 $NMID ID='MM_0lb_SNR200_20hz_g50_5.RAW', FMTDAT='(8E13.5)'
 TRAMP=1., VOLUME=1. $END
  3.09245E+05  7.15284E+02  3.36648E+05  2.50746E+05  8.44811E+04  3.36533E+05 -1.33455E+05  2.50126E+05
 -1.89904E+05  8.21379E+04 -1.10773E+05 -3.31487E+04  2.37535E+03 -4.94005E+04  5.36842E+04 -5.21843E+02
  3.55579E+04  5.26247E+04 -1.78174E+04  7.44471E+04 -6.06868E+04  6.28869E+04 -8.20362E+04  3.09496E+04
 -7.98944E+04 -1.06717E+04 -5.57294E+04 -5.04552E+04 -1.50609E+04 -6.75915E+04  2.72776E+04 -4.45441E+04
  3.88511E+04  3.43527E+03  1.56342E+04  4.70148E+04 -3.38922E+04  4.61220E+04 -6.48085E+04 -1.04362E+03
 -5.17708E+04 -5.56878E+04 -5.66463E+03 -7.40879E+04  3.30257E+04 -5.36987E+04  4.57510E+04 -1.70593E+04
  4.05347E+04  1.10314E+04  3.09796E+04  2.46377E+04  1.61832E+04  2.84571E+04 -4.45958E+03  2.61852E+04
 -2.14611E+04  1.26562E+04 -1.99082E+04 -4.30005E+03  4.26890E+03 -7.09083E+03  2.13319E+04  1.13675E+04
  7.73562E+03  3.29908E+04 -3.05511E+04  3.42720E+04 -6.14344E+04  6.40766E+02 -5.48084E+04 -4.07562E+04
 -1.18348E+04 -6.08382E+04  3.78599E+04 -4.33135E+04  5.51958E+04 -2.83459E+03  3.13462E+04  3.09318E+04
 -7.69002E+03  3.15616E+04 -2.91883E+04  1.36344E+04 -2.70284E+04 -5.18851E+03 -1.28527E+04 -1.07686E+04
 -7.98112E+03 -1.08553E+04 -9.09164E+02 -1.71142E+04  6.98672E+03 -2.37040E+04  1.55452E+04 -1.34407E+04
  1.28551E+04  3.32119E+03 -6.43463E+03  1.23029E+04 -1.81308E+04 -7.53226E+02 -7.59342E+03 -3.03001E+04
  2.06955E+04 -4.05654E+04  4.41375E+04 -1.77065E+04  4.19185E+04  1.89232E+04  1.40194E+04  4.05771E+04
 -1.46831E+04  3.09621E+04 -2.28314E+04  6.66784E+02 -8.13791E+03 -2.67860E+04  2.01329E+04 -3.17641E+04
  3.75310E+04 -7.09510E+03  3.19639E+04  2.22808E+04  1.58971E+04  4.16970E+04 -6.81108E+03  4.52411E+04
 -2.72855E+04  2.93715E+04 -3.75853E+04  8.37917E+03 -3.81941E+04 -1.36653E+04 -2.03408E+04 -3.43545E+04
  8.43075E+03 -3.36462E+04  2.87535E+04 -1.14807E+04  2.70969E+04  1.10465E+04  1.80496E+03  1.78853E+04
 -1.39009E+04  6.22447E+03 -9.73814E+03 -8.30916E+03  6.18890E+03 -9.66218E+03  1.71904E+04  7.28246E+03
  1.21996E+04  2.12192E+04 -7.03331E+03  2.35651E+04 -2.12434E+04  9.04672E+03 -2.45358E+04 -5.93648E+03
 -1.79242E+04 -1.63202E+04 -5.01041E+03 -1.62135E+04  4.52900E+03 -1.33233E+04  1.07508E+04 -1.38306E+04
  1.84334E+04 -1.19023E+04  2.72931E+04  4.19480E+02  2.12609E+04  1.52647E+04  4.38416E+03  3.17579E+04
 -1.55974E+04  2.74192E+04 -2.58777E+04  8.83321E+03 -1.91972E+04 -1.09125E+04 -2.59959E+03 -1.31080E+04
  3.08501E+03 -4.61644E+03 -2.05697E+03  5.44585E+03 -1.23065E+04  5.02743E+03 -1.20607E+04 -4.88336E+03
 -8.07557E+03 -1.40888E+04  4.69456E+03 -1.89691E+04  1.15987E+04 -1.34009E+04  1.49245E+04 -1.15759E+03
  8.60455E+03  1.01109E+04 -9.63003E+02  1.46948E+04 -9.18760E+03  8.63498E+03 -1.50621E+04 -3.09389E+03
 -1.09620E+04 -1.34573E+04 -7.29742E+02 -1.84844E+04  9.02750E+03 -1.38742E+04  1.53527E+04 -7.32993E+03
  1.39462E+04  8.26444E+02  1.00432E+04  3.65155E+03  5.48325E+03  3.56327E+02  7.14066E+03 -7.21140E+02
  1.31607E+04  2.58605E+03  1.37755E+04  1.24505E+04  8.71033E+03  2.40878E+04 -2.75329E+03  2.48922E+04
 -1.48774E+04  1.82379E+04 -2.34466E+04  9.11096E+03 -2.37422E+04 -1.46985E+03 -2.01140E+04 -1.31216E+04
 -1.09966E+04 -1.86432E+04  5.91450E+03 -1.74592E+04  1.71709E+04 -9.04973E+03  1.54142E+04  3.15590E+03
  6.77265E+03  1.06196E+04 -6.37509E+03  9.80719E+03 -1.25378E+04  3.16132E+03 -1.01715E+04 -8.10867E+03
  4.96160E+02 -1.23750E+04  5.56869E+03 -8.13550E+03  6.64943E+03 -1.16388E+03  1.46623E+03  4.08198E+03
 -4.90702E+03  1.09290E+03 -2.91243E+03 -3.08892E+03  1.50955E+03 -1.01085E+04  7.34420E+03 -8.74133E+03
  1.13589E+04 -4.26121E+03  1.00983E+04  1.78006E+03  8.21758E+03  8.52909E+03  4.67113E+03  1.23035E+04
 -2.11211E+02  1.48990E+04 -8.64179E+03  9.23154E+03 -1.02667E+04  2.31812E+03 -7.79367E+03 -1.68002E+03
 -3.97793E+03 -2.06656E+03 -7.37577E+02  2.10515E+03 -1.23376E+03  1.68182E+03 -3.65310E+03  2.77329E+03
 -6.81217E+03 -7.75760E+02 -8.29057E+03 -7.05914E+03 -3.25099E+03 -1.14756E+04  3.06116E+03 -7.53943E+03
  6.81843E+03 -4.31721E+03  5.72185E+03  2.55418E+03  5.36411E+02  2.85559E+03 -2.58558E+03 -2.95863E+02
 -3.00282E+03 -2.92115E+03 -1.81746E+02 -5.50458E+03  4.14362E+03 -7.16661E+03  8.85104E+03 -2.11309E+03
  1.14743E+04  2.08418E+02  7.83761E+03  5.75226E+03  2.33520E+03  7.21259E+03 -5.03327E+03  7.22898E+03
 -6.35658E+03  2.97399E+03 -4.41044E+03 -1.12467E+03  1.37696E+03 -1.88294E+03  5.18032E+03 -1.00012E+03
  3.17863E+03  2.61568E+03  4.97895E+02  5.60106E+03 -4.51542E+03  6.02201E+03 -7.15060E+03  1.60457E+03
 -4.39279E+03 -4.20346E+03  7.81858E+02 -5.60363E+03  2.95010E+03 -3.02776E+03  3.73811E+03  8.60627E+02
  6.57195E+02  2.33341E+03 -3.80818E+03  3.76129E+03 -4.79526E+03  3.22879E+03 -3.51245E+03 -2.96997E+02
 -2.46941E+03 -4.37548E+03 -1.55332E+02 -5.65158E+03  4.27258E+03 -4.39747E+03  6.20533E+03  3.16099E+02
  4.46261E+03  4.32353E+03  8.04062E+02  7.16101E+03 -4.01860E+03  3.78711E+03 -4.67234E+03 -7.96246E+02
 -4.71241E+03 -4.83338E+03 -6.61459E+01 -3.80385E+03  1.37499E+03 -4.79959E+03  3.78080E+03 -2.98593E+03
  2.31784E+03  1.42016E+03 -1.16080E+02  1.17460E+03  1.10832E+03  4.69982E+02 -1.00199E+03 -1.89735E+03
  2.57366E+03 -1.29036E+02  3.44321E+03  1.02119E+03  4.29123E+03  2.35403E+03  5.82084E+03  5.23735E+03
 -1.43033E+02  6.53642E+03 -6.19112E+03  5.48426E+03 -8.57461E+03  1.52012E+03 -7.11324E+03 -3.07366E+03
 -3.98787E+03 -5.12372E+03 -5.13078E+02 -4.27476E+03  1.73207E+03 -2.00183E+03  1.58746E+03 -1.75353E+03
  1.11054E+02 -1.63239E+03  1.76453E+03 -3.06566E+03  3.04017E+03 -1.97139E+03  2.92047E+03  4.39669E+02
  4.33363E+03  9.24367E+02  8.60552E+02  2.56008E+03 -1.38143E+03  1.77760E+03 -3.63072E+03  1.46001E+03
 -4.21541E+03 -4.98988E+02 -2.18104E+03 -2.74002E+03  1.54684E+03 -4.02963E+03  2.13398E+03 -4.68836E+03
  4.94388E+03 -2.64203E+03  4.76171E+03 -1.98316E+01  4.02923E+03  2.96800E+03 -9.03709E+01  4.77653E+03
 -1.76000E+03  4.24431E+03 -2.78401E+03  1.43624E+03 -1.51576E+03 -3.42261E+02  5.99757E+01 -2.70479E+01
 -7.62394E+01 -1.24569E+02 -1.46525E+03  2.85229E+03 -1.42872E+03  9.61479E+02 -4.00391E+03  6.79764E+01
  4.37116E+02 -2.84840E+03  1.26174E+03 -3.65926E+03  1.70579E+03 -3.28175E+03  2.78735E+03 -8.82960E+02
  2.62974E+03  1.73372E+03  7.66873E+02  1.95467E+03 -1.54009E+02  3.50485E+03 -2.20095E+03  2.47083E+03
 -4.08093E+03  6.15027E+02 -3.32768E+03 -1.38177E+03  3.41844E+02 -3.51705E+03  7.07978E+02 -2.12034E+03
  2.19285E+03 -1.78580E+03  1.10623E+03  6.45791E+02  9.23731E+02  1.27153E+03  2.82233E+02  3.21553E+02
  2.07732E+03  2.68057E+02  1.11033E+03  6.83548E+02  1.19531E+03  1.53993E+03  1.02091E+03  1.98334E+03
 -1.50348E+03  2.27871E+03 -1.51648E+03  3.17326E+03 -2.00613E+03  1.15020E+03 -3.63854E+03  7.34807E+02
 -1.94680E+03 -2.89073E+03  1.34739E+03 -3.65347E+03  1.00488E+03 -1.95661E+03  2.47478E+03 -8.56142E+02
  1.79405E+03  9.02029E+02  1.27707E+02  1.76615E+03  1.04410E+02  6.26059E+02 -5.85599E+02 -2.11608E+02
 -5.26224E+02 -7.19618E+02  8.82483E+02 -1.18702E+03  1.34887E+03 -3.53626E+02  1.19477E+03  4.49945E+02
 -7.83289E+02  5.80504E+02  7.82808E+02 -1.16620E+03 -1.63412E+03  1.40673E+03  1.17338E+03  3.60974E+02
  1.11684E+03 -6.11750E+02  9.75735E+02  3.87689E+02  2.85387E+02  2.13717E+03 -3.28929E+02  2.50768E+03
 -7.53325E+02  1.40077E+03 -2.27722E+03  1.14570E+03 -1.10580E+03 -4.51888E+02  8.23403E+02 -1.84560E+02
 -3.01330E+02 -1.52234E+03  1.52315E+03 -1.37600E+02 -3.40617E+02  2.86225E+03 -7.20498E+02  1.73169E+03
 -1.23293E+03  5.94656E+02 -7.84678E+02 -6.95624E+02 -1.10478E+03 -1.74430E+03  7.32616E+02 -4.88731E+02
  1.64978E+02  1.75927E+02  5.01568E+02  1.35048E+02  8.20877E+02 -8.42615E+02  3.56255E+02  7.60448E+02
 -3.05506E+02  4.81027E+01 -1.54352E+02 -1.42287E+02  9.30614E+02 -8.55650E+02  2.05233E+03 -7.93033E+02
  1.15319E+03 -3.88850E+02  2.43244E+03  6.21102E+02  1.84793E+03  1.02572E+03 -7.65224E+02  1.76513E+03
 -2.46554E+02  4.41112E+02 -1.79838E+03  5.18463E+02 -4.21157E+02 -9.69515E+02  1.42985E+03 -7.44509E+01
  9.97455E+02 -1.54198E+03  7.75323E+02  8.58348E+02 -7.96172E+01  1.95969E+03  5.75492E+01  8.69513E+02
  2.93442E+02  1.23159E+03  2.00231E+02  6.99585E+02  6.58090E+02 -2.39104E+02 -5.98053E+02 -1.33146E+02
 -1.72217E+02  6.75105E+02 -1.15719E+03  1.22001E+02 -1.28998E+03  4.44124E+02 -2.42478E+03  4.48387E+01
  3.62835E+02 -1.84699E+03  5.90324E+02 -2.49178E+03 -1.00958E+02 -1.14043E+03  2.19480E+03 -1.50612E+03
  2.82480E+03  2.76211E+02  1.63135E+03  1.28413E+03 -8.50602E+02  6.13863E+02 -3.13891E+02  6.01973E+01
 -7.46617E+02  1.97048E+02 -4.95342E+02  1.19002E+03 -1.44123E+03 -2.01639E+01 -3.93838E+02 -2.68681E+02
 -1.12711E+03 -1.06055E+02  3.91248E+02  7.44495E+01  1.70561E+03 -1.50441E+03 -9.81096E+02 -7.74019E+02
  1.31954E+03 -1.00128E+03  5.63180E+02 -5.68142E+02  1.54763E+03  5.74234E+02 -7.94440E+02  1.40120E+03
 -7.93481E+02  1.10350E+03 -5.85146E+02  8.80752E+02 -6.14780E+02 -2.76763E+02 -3.52387E+02 -9.87881E+02
 -1.78248E+03 -8.78552E+02 -5.49492E+01 -2.59799E+02  8.21820E+02 -5.42908E+02 -6.59141E+01  5.32668E+02
 -1.09055E+02 -3.35789E+02  1.99291E+02  5.47053E+02 -6.51069E+02 -6.35029E+01  5.71860E+01 -4.09348E+02
  8.27365E+02  3.85433E+02 -5.65567E+01  1.09062E+03  2.30832E+02  7.14246E+02 -5.07194E+02 -6.21368E+02
  4.01892E+02  5.11222E+02 -9.07457E+02  3.93876E+01 -4.17576E+02 -4.88303E+02  2.10549E+02 -6.81794E+02
  2.18911E+01 -1.23613E+03 -1.19848E+03  6.16844E+01 -4.25192E+02 -1.30737E+03 -5.02489E+02  2.61580E+02
 -3.15156E+01 -5.43338E+02  2.21380E+02  1.01920E+03 -4.10636E+02  8.02611E+01  2.08747E+02  6.82283E+02
 -3.23682E+02 -6.58286E+02 -4.55084E+02  6.53536E+01 -2.10386E+02  6.14999E+02  5.23122E+01 -9.90111E+02
 -2.02216E+03  7.21862E+02 -6.48707E+02 -1.04114E+03  8.33376E+02 -1.84166E+03  6.40408E+02 -2.77319E+02
  1.62747E+02 -5.03531E+02 -7.08729E+02 -1.18491E+03 -2.82486E+02  2.08831E+02  2.79580E+02 -1.04124E+03
