 $NMID ID='MM_0lb_SNR200_19hz_g40_54.RAW', FMTDAT='(8E13.5)'
 TRAMP=1., VOLUME=1. $END
  3.09032E+05  1.10567E+03  3.36648E+05  2.50347E+05  8.44958E+04  3.37825E+05 -1.32487E+05  2.49997E+05
 -1.88822E+05  8.28218E+04 -1.10071E+05 -3.27210E+04  1.20405E+03 -5.03727E+04  5.43641E+04  3.70517E+02
  3.54119E+04  5.26169E+04 -1.70384E+04  7.45638E+04 -5.99460E+04  6.24058E+04 -8.32685E+04  3.11072E+04
 -7.96614E+04 -1.06834E+04 -5.59880E+04 -5.03187E+04 -1.47666E+04 -6.71416E+04  2.73085E+04 -4.47407E+04
  3.88874E+04  4.65696E+03  1.64664E+04  4.68118E+04 -3.44742E+04  4.54626E+04 -6.49132E+04 -7.38091E+02
 -5.21503E+04 -5.49188E+04 -6.51463E+03 -7.37525E+04  3.29140E+04 -5.27766E+04  4.51643E+04 -1.63075E+04
  4.15419E+04  1.13095E+04  3.08820E+04  2.39661E+04  1.58874E+04  2.71481E+04 -4.17918E+03  2.63021E+04
 -2.15500E+04  1.37142E+04 -1.79754E+04 -4.16982E+03  2.82378E+03 -7.74969E+03  2.08255E+04  1.05976E+04
  7.29698E+03  3.34027E+04 -2.97323E+04  3.36519E+04 -6.04720E+04  3.17501E+03 -5.43539E+04 -4.08940E+04
 -1.18916E+04 -5.90105E+04  3.75368E+04 -4.20551E+04  5.46330E+04 -1.29212E+03  3.10835E+04  3.00807E+04
 -6.71492E+03  3.27830E+04 -2.76062E+04  1.16355E+04 -2.67286E+04 -5.29519E+03 -1.32348E+04 -9.98272E+03
 -8.06796E+03 -1.07728E+04 -1.19618E+03 -1.63327E+04  5.85277E+03 -2.23949E+04  1.48124E+04 -1.48350E+04
  1.28156E+04  4.34658E+03 -5.83166E+03  1.28276E+04 -1.82815E+04 -1.53293E+03 -7.82472E+03 -2.92035E+04
  1.99857E+04 -3.93832E+04  4.26785E+04 -1.73264E+04  4.14669E+04  1.83876E+04  1.30516E+04  4.15894E+04
 -1.52378E+04  2.98041E+04 -2.29243E+04  8.01893E+02 -8.18663E+03 -2.47199E+04  2.03633E+04 -3.06363E+04
  3.69843E+04 -5.91102E+03  2.95876E+04  2.22480E+04  1.49926E+04  4.16628E+04 -8.31742E+03  4.37580E+04
 -2.68027E+04  2.87491E+04 -3.54312E+04  7.42459E+03 -3.60337E+04 -1.53680E+04 -2.04213E+04 -3.33988E+04
  6.34069E+03 -3.24895E+04  2.85957E+04 -1.15680E+04  2.69250E+04  1.11377E+04  2.08960E+03  1.74046E+04
 -1.17132E+04  5.73255E+03 -9.13426E+03 -6.77130E+03  6.21618E+03 -1.04655E+04  1.70444E+04  5.97638E+03
  1.10664E+04  2.13087E+04 -7.34123E+03  2.25246E+04 -2.04245E+04  8.81760E+03 -2.43416E+04 -6.74664E+03
 -1.67496E+04 -1.57779E+04 -4.12970E+03 -1.49927E+04  3.96774E+03 -1.38031E+04  1.13534E+04 -1.32756E+04
  2.02632E+04 -1.22044E+04  2.67050E+04 -3.67993E+02  2.14584E+04  1.47299E+04  3.90475E+03  2.99973E+04
 -1.62306E+04  2.67477E+04 -2.51089E+04  9.60281E+03 -2.03982E+04 -1.09304E+04 -3.64966E+03 -1.36790E+04
  1.79261E+03 -4.44172E+03 -2.15083E+03  5.85062E+03 -1.07997E+04  5.74623E+03 -1.30114E+04 -4.81444E+03
 -7.80611E+03 -1.39202E+04  4.21492E+03 -1.93898E+04  1.15960E+04 -1.41370E+04  1.32533E+04 -2.47917E+03
  7.56299E+03  9.76282E+03  2.33086E+02  1.38135E+04 -9.89477E+03  8.99391E+03 -1.39115E+04 -3.27659E+03
 -1.12153E+04 -1.27317E+04 -1.36508E+03 -1.74672E+04  7.51398E+03 -1.43774E+04  1.61587E+04 -6.39967E+03
  1.43326E+04  2.10863E+03  1.09587E+04  3.75736E+03  4.56245E+03  8.42199E+01  6.37327E+03 -7.23703E+02
  1.23474E+04  1.52766E+03  1.34442E+04  1.25215E+04  8.50946E+03  2.41722E+04 -3.60596E+03  2.58590E+04
 -1.42185E+04  1.90002E+04 -2.27350E+04  8.98825E+03 -2.30865E+04 -1.26863E+03 -1.95172E+04 -1.38015E+04
 -7.72701E+03 -1.96535E+04  6.40779E+03 -1.88045E+04  1.55765E+04 -1.04876E+04  1.39985E+04  2.80039E+03
  6.03548E+03  9.40050E+03 -5.91364E+03  9.52745E+03 -1.27873E+04  2.70313E+03 -8.79899E+03 -7.79371E+03
 -4.66536E+02 -1.12248E+04  4.58732E+03 -9.53729E+03  6.97541E+03 -7.01326E+02  6.88987E+02  4.48682E+03
 -5.94152E+03  1.68223E+03 -2.11057E+03 -4.46628E+03  6.15479E+02 -9.67536E+03  7.25152E+03 -8.59576E+03
  1.15059E+04 -4.60309E+03  1.08508E+04  2.18739E+03  1.06591E+04  8.05368E+03  4.84656E+03  1.28546E+04
 -4.14462E+02  1.55264E+04 -9.46101E+03  8.73499E+03 -1.02234E+04  3.20515E+03 -7.88684E+03 -1.97937E+03
 -4.75214E+03 -3.74103E+03 -1.21014E+03  2.32536E+03 -1.48665E+03  2.82847E+03 -3.17676E+03  5.36921E+03
 -8.05461E+03 -3.22614E+02 -7.74643E+03 -6.45373E+03 -3.39549E+03 -1.10913E+04  3.40327E+03 -7.72276E+03
  6.90961E+03 -3.05658E+03  4.88288E+03  2.56987E+03  5.03248E+02  4.01182E+03 -2.87679E+03 -1.06013E+03
 -2.72094E+03 -5.71924E+03 -4.71900E+02 -6.04102E+03  4.89303E+03 -7.72378E+03  9.22596E+03 -3.26276E+03
  1.21312E+04  1.25786E+02  9.50464E+03  5.56474E+03  1.90029E+03  7.76154E+03 -5.67764E+03  8.01482E+03
 -6.47028E+03  1.47598E+03 -3.04106E+03 -1.21372E+03  1.80724E+03 -1.76163E+03  4.90978E+03 -1.34909E+03
  3.90802E+03  2.69458E+03  1.35285E+03  6.68651E+03 -4.48349E+03  5.13071E+03 -6.38071E+03  1.17583E+03
 -4.46025E+03 -3.78123E+03  6.67207E+02 -5.64337E+03  4.08304E+03 -2.82124E+03  3.07421E+03  5.80425E+02
  1.22477E+03  2.92717E+03 -3.03768E+03  3.88013E+03 -4.51132E+03  1.50338E+03 -3.17229E+03 -1.15316E+03
 -2.65632E+03 -4.85995E+03  1.47055E+03 -6.63120E+03  6.24510E+03 -4.59919E+03  4.66753E+03  1.35311E+03
  3.76706E+03  4.62119E+03 -4.30015E+02  6.41197E+03 -4.33587E+03  3.54762E+03 -4.21114E+03  2.10641E+02
 -5.24554E+03 -4.24054E+03 -1.50009E+03 -5.16644E+03  2.48570E+03 -3.98264E+03  2.80980E+03 -2.65141E+03
  3.45927E+03  5.92128E+02  1.67707E+02  1.73526E+03  1.02492E+03 -1.16661E+03 -9.64398E+02 -1.05728E+03
  2.48509E+03  4.89849E+02  5.29465E+03  1.01465E+03  5.09745E+03  2.38318E+03  4.83626E+03  6.74418E+03
 -6.21431E+02  7.95924E+03 -6.73778E+03  6.79590E+03 -8.76895E+03  5.01458E+02 -7.01882E+03 -1.31404E+03
 -4.46560E+03 -5.30615E+03 -2.91944E+01 -5.41919E+03  1.81548E+03 -2.32610E+03  7.19138E+02 -1.61300E+03
  7.67889E+01 -1.47123E+03  2.13172E+03 -2.44017E+03  3.26792E+03 -2.03197E+03  2.99019E+03  7.36822E+02
  4.42813E+03  2.01704E+03  5.39024E+02  2.53387E+03 -1.74152E+03  1.55856E+03 -5.42381E+03  3.26980E+03
 -5.15961E+03 -2.22380E+03 -1.81366E+03 -3.01730E+03  5.41990E+02 -2.77008E+03  2.51050E+03 -4.43365E+03
  4.73812E+03 -2.71627E+03  6.60117E+03  2.14939E+02  4.13880E+03  4.02988E+03 -1.91443E+02  5.46918E+03
 -2.24533E+03  5.42909E+03 -3.28332E+03  7.78576E+02 -2.00968E+03 -1.58747E+03  2.44494E+01 -1.05678E+03
 -3.51296E+02 -3.66622E+02 -1.40437E+03  2.11281E+03 -2.86368E+03  1.85475E+03 -3.88212E+03 -3.44110E+02
 -1.54123E+03 -3.08234E+03  4.25078E+02 -4.46396E+03  3.17433E+03 -4.85457E+03  2.49271E+03  1.60483E+01
  4.26759E+03  2.55192E+03  1.37208E+03  3.94027E+03 -2.46718E+02  3.84971E+03 -3.32191E+03  2.87540E+03
 -3.77961E+03  1.75519E+02 -2.94353E+03 -2.29588E+03 -4.54540E+01 -3.71234E+03  1.37663E+03 -2.02519E+03
  1.92832E+03 -1.41527E+03  1.15903E+03  4.74093E+02  4.99404E+02  1.99540E+03  1.90597E+02  9.70939E+02
  2.47197E+03  3.09341E+02  6.14652E+02  1.00985E+03  1.35524E+03  1.29682E+03  3.61738E+02  2.18134E+03
 -2.11242E+03  1.81719E+03 -3.14376E+03  3.63268E+03 -2.98652E+03  5.52234E+02 -3.17245E+03  1.06712E+01
 -1.63603E+03 -2.91566E+03  1.17997E+03 -3.68437E+03  1.33980E+03 -1.60639E+03  1.91136E+03 -6.24685E+02
  1.67896E+03  1.38767E+03  3.63734E+02  1.96972E+03 -4.30827E+02  5.08850E+02 -1.30586E+03 -1.69331E+02
 -1.03525E+02 -9.86563E+02  7.67340E+02 -1.49024E+03  7.87689E+02 -1.07092E+03  1.53091E+03 -1.27828E+02
  3.82814E+02  8.46529E+02 -2.80894E+02 -1.35533E+02  2.55897E+02 -2.27912E+02  1.36186E+03 -8.21622E+02
 -9.30275E+00 -1.10438E+03  1.91256E+03  4.96257E+02  3.01592E+02  1.85930E+03 -7.74908E+02  2.30051E+03
 -1.00625E+03  1.41009E+03 -1.14138E+03  2.78653E+02 -1.14029E+03 -7.01142E+02  1.78225E+02 -6.71518E+02
  1.21387E+03 -6.85689E+02  9.18344E+02 -4.41232E+02  1.26154E+03  1.74032E+03 -1.36722E+03  1.47528E+03
 -1.38383E+03  1.70339E+03 -9.02024E+02 -1.07419E+03 -1.09919E+03 -1.62060E+03  9.65240E+02 -5.66169E+02
 -7.77127E+01  1.17613E+03  2.96872E+02  6.40732E+02  3.27094E+02 -1.14088E+02  4.80369E+01  2.23789E+03
  6.65573E+01 -6.91786E+02 -5.93536E+02 -3.41668E+01  6.93404E+02 -7.01946E+02  1.11958E+03 -1.75372E+03
  1.20682E+03  4.83187E+02  2.29649E+03  1.15973E+03  4.49415E+02  1.85125E+03 -1.12483E+03  1.80172E+03
 -8.31054E+02  9.32430E+02 -1.44464E+03 -6.31152E+02  8.53087E+02 -5.16604E+02 -7.72166E+02 -4.63101E+02
  1.14121E+03 -7.03181E+02  2.43323E+02  6.50270E+02  1.33573E+03  1.34295E+03  1.30372E+03  5.87110E+02
 -5.80516E+02  2.73199E+02 -2.07152E+03 -4.40177E+02 -1.00064E+02  8.21717E+01 -7.08431E+02  1.11168E+03
 -1.03489E+03  1.49103E+03 -2.12266E+03  7.73496E+02 -8.17349E+02 -2.25295E+02 -2.51510E+03 -5.75162E+02
 -1.39613E+03 -2.18976E+03  5.46083E+02 -2.92149E+03  1.41483E+03 -2.52918E+03  2.12567E+03 -9.54729E+02
  2.74746E+03  3.61490E+01  7.16748E+02  7.28719E+02 -7.99943E+02  4.58657E+02  3.66010E+01  5.65737E+02
 -5.89131E+02  4.90017E+01 -7.04820E+02 -5.30421E+02 -1.51892E+02  3.06386E+02 -1.83191E+02  1.20792E+02
 -1.15950E+03 -8.05021E+02 -7.20371E+02  1.14887E+02  1.62085E+03 -4.28237E+02  3.73867E+02 -5.22643E+02
  8.15371E+02 -7.36545E+02  1.50011E+03 -6.02076E+02  2.05364E+03  9.44023E+02  1.20060E+02  2.08928E+03
 -1.17455E+03  2.38545E+03 -2.59842E+03  1.78959E+03 -1.74429E+03 -9.94584E+02 -1.28506E+03 -1.60711E+03
 -5.10112E+02 -1.37336E+03  1.20002E+03 -1.14578E+03  1.45090E+03 -1.29469E+03  1.90000E+03  6.44136E-01
  1.14410E+03  8.01480E+02 -3.83101E+02 -5.59345E+02  4.43691E+00  4.35577E+02 -5.15642E+02 -1.16501E+02
  2.38957E+02  1.01670E+01  4.01038E+02  9.30939E+01 -8.34482E+01  7.26789E+02 -3.14245E+02 -1.52827E+02
 -1.90570E+02  4.50303E+02 -9.52145E+02  3.74183E+02 -7.09707E+02 -4.06689E+02 -7.91284E+02 -6.51324E+02
  5.46863E+02 -1.52599E+03  6.29347E+02  1.16806E+03  9.07526E+02 -4.82873E+02  6.47270E+02  9.77576E+02
 -5.70465E+02  1.18655E+03 -5.13181E+02 -3.19651E+02 -1.07783E+03  1.27402E+03 -5.88191E+02  6.67156E+02
 -1.40861E+02 -2.85858E+02 -9.30184E+02 -1.91861E+02 -4.80541E+02  8.44470E+01 -1.18077E+03 -1.50949E+01
 -1.38110E+03  1.22451E+03 -1.13554E+03 -9.20802E+02  1.09893E+02 -1.36643E+03  4.57015E+02 -1.56630E+03
  1.03641E+03 -4.25752E+02 -5.60595E+02  5.92705E+02  5.47659E+01  4.90313E+02 -1.10912E+03  1.55570E+03
