 $NMID ID='MM_0lb_SNR200_16hz_g60_49.RAW', FMTDAT='(8E13.5)'
 TRAMP=1., VOLUME=1. $END
  3.11248E+05  6.28960E+02  3.37596E+05  2.49926E+05  8.41791E+04  3.38467E+05 -1.33209E+05  2.51516E+05
 -1.89339E+05  8.31908E+04 -1.10675E+05 -3.28770E+04  2.35517E+02 -4.98018E+04  5.31993E+04 -7.57897E+02
  3.48252E+04  5.29966E+04 -1.64072E+04  7.62331E+04 -6.01819E+04  6.32343E+04 -8.39540E+04  3.09041E+04
 -8.13020E+04 -1.13105E+04 -5.69661E+04 -5.19971E+04 -1.64876E+04 -6.95620E+04  2.67323E+04 -4.55950E+04
  4.11812E+04  4.40549E+03  1.61583E+04  4.86380E+04 -3.50404E+04  4.75929E+04 -6.77875E+04 -2.38189E+02
 -5.28211E+04 -5.60891E+04 -6.95100E+03 -7.77844E+04  3.34234E+04 -5.41897E+04  4.80183E+04 -1.74149E+04
  4.38774E+04  1.20211E+04  3.18533E+04  2.53228E+04  1.48638E+04  2.94025E+04 -4.82885E+03  2.68633E+04
 -2.19073E+04  1.26632E+04 -1.91669E+04 -5.47036E+03  4.79523E+03 -7.74579E+03  2.14229E+04  1.27717E+04
  6.75080E+03  3.40088E+04 -3.21180E+04  3.54171E+04 -6.40126E+04  1.49798E+03 -5.60779E+04 -4.19121E+04
 -1.15554E+04 -6.26346E+04  3.92911E+04 -4.60337E+04  5.70918E+04 -1.44021E+03  3.43475E+04  3.32138E+04
 -6.80010E+03  3.54206E+04 -2.99096E+04  1.62413E+04 -3.16451E+04 -4.03153E+03 -1.80852E+04 -1.15211E+04
 -8.11371E+03 -1.35016E+04 -6.11172E+02 -1.69975E+04  6.74622E+03 -2.36144E+04  1.49462E+04 -1.37082E+04
  1.18032E+04  4.93774E+03 -8.35569E+03  1.25712E+04 -2.12576E+04 -4.44236E+03 -9.31425E+03 -3.39156E+04
  2.35287E+04 -4.40924E+04  4.82282E+04 -1.89236E+04  4.56776E+04  2.08374E+04  1.47567E+04  4.41834E+04
 -1.57618E+04  3.33405E+04 -2.64097E+04  2.08373E+03 -9.55990E+03 -2.82767E+04  2.15240E+04 -3.35520E+04
  4.08142E+04 -9.17856E+03  3.64449E+04  2.44005E+04  1.88606E+04  4.69870E+04 -8.63641E+03  4.94514E+04
 -3.17416E+04  3.31263E+04 -4.24034E+04  9.65259E+03 -4.29566E+04 -1.68568E+04 -2.39414E+04 -3.75227E+04
  6.37438E+03 -3.80407E+04  3.11398E+04 -1.54498E+04  2.96463E+04  1.11272E+04  5.26307E+03  1.77837E+04
 -1.37798E+04  7.78910E+03 -9.93007E+03 -8.30261E+03  5.11955E+03 -1.06917E+04  1.83843E+04  6.55121E+03
  1.29322E+04  2.13564E+04 -6.88046E+03  2.42321E+04 -2.34776E+04  1.07331E+04 -2.85960E+04 -5.13991E+03
 -2.10475E+04 -1.63648E+04 -9.06036E+03 -2.05848E+04  4.19218E+03 -1.88496E+04  1.61026E+04 -1.89454E+04
  2.60470E+04 -1.38096E+04  3.23553E+04  2.25173E+03  2.39779E+04  1.97113E+04  5.30541E+03  3.73206E+04
 -1.69016E+04  3.02707E+04 -2.82405E+04  1.15018E+04 -2.00755E+04 -1.04816E+04 -5.06985E+03 -1.39425E+04
  8.11350E+02 -2.26334E+03 -4.24314E+03  5.84564E+03 -1.49928E+04  5.86208E+03 -1.66378E+04 -7.83579E+03
 -1.05644E+04 -1.81463E+04  5.98644E+03 -2.31586E+04  1.51286E+04 -1.56599E+04  1.68666E+04 -2.47066E+03
  1.03090E+04  1.31479E+04 -4.71469E+02  1.85754E+04 -1.33971E+04  1.03694E+04 -1.82885E+04 -3.90222E+03
 -1.53827E+04 -1.57140E+04 -1.75160E+03 -2.30334E+04  1.07449E+04 -1.91955E+04  1.86255E+04 -9.55975E+03
  1.74207E+04  1.14586E+03  1.17701E+04  4.32993E+03  7.47146E+03  7.10839E+01  8.32167E+03 -1.57675E+03
  1.63376E+04  3.61011E+03  1.77394E+04  1.44433E+04  1.03683E+04  2.91161E+04 -2.78032E+03  3.26848E+04
 -1.93712E+04  2.67205E+04 -3.21168E+04  1.33919E+04 -3.15779E+04 -2.02983E+03 -2.73592E+04 -1.81373E+04
 -1.12053E+04 -2.80318E+04  9.03605E+03 -2.52510E+04  2.01914E+04 -1.21407E+04  1.87162E+04  5.01897E+03
  6.85761E+03  1.44487E+04 -8.50065E+03  1.21096E+04 -1.59058E+04  2.46803E+03 -1.23327E+04 -9.21092E+03
 -1.39034E+03 -1.38041E+04  7.69780E+03 -1.14492E+04  9.27553E+03 -2.18935E+03  1.18851E+03  5.51866E+03
 -6.06233E+03  4.08883E+03 -5.10251E+03 -5.68326E+03 -3.96640E+02 -1.35738E+04  9.63824E+03 -1.35399E+04
  1.59511E+04 -7.42485E+03  1.66852E+04  3.49689E+03  1.52046E+04  1.35976E+04  8.09016E+03  1.89834E+04
 -4.48437E+03  2.07844E+04 -1.22234E+04  1.36576E+04 -1.50841E+04  3.97884E+03 -1.08144E+04 -2.30823E+03
 -4.92351E+03 -5.48265E+03  1.34816E+02  1.63360E+03 -2.85423E+03  2.34991E+03 -4.59754E+03  4.52806E+03
 -1.09611E+04 -3.53605E+02 -1.14130E+04 -9.42372E+03 -4.62850E+03 -1.24248E+04  4.46181E+03 -1.03930E+04
  9.55293E+03 -5.80277E+03  6.64110E+03  3.20562E+03 -3.49543E+02  4.47699E+03 -4.68655E+03 -1.52507E+02
 -4.94435E+03 -6.73549E+03 -2.15367E+03 -1.01273E+04  5.21029E+03 -9.12998E+03  1.29639E+04 -4.83827E+03
  1.53794E+04  7.01097E+02  1.25716E+04  9.12587E+03  3.36734E+03  1.20887E+04 -6.26901E+03  1.07254E+04
 -8.22315E+03  2.62182E+03 -4.27483E+03 -1.05981E+03  1.26830E+03 -1.77653E+03  5.36216E+03 -5.40580E+02
  5.18390E+03  4.90358E+03  1.15797E+03  7.91505E+03 -5.04279E+03  7.96948E+03 -9.94343E+03  2.42306E+03
 -7.54447E+03 -4.87543E+03  7.34485E+02 -8.78143E+03  5.07081E+03 -5.09078E+03  4.74745E+03  1.20117E+03
  2.12337E+03  6.19784E+03 -5.49284E+03  6.20119E+03 -6.55572E+03  3.91527E+03 -6.29157E+03 -2.10150E+03
 -3.82185E+03 -8.53933E+03  2.20346E+03 -1.06273E+04  9.34253E+03 -6.17664E+03  9.83783E+03  1.52467E+03
  6.86435E+03  7.88551E+03 -1.36287E+03  1.03827E+04 -7.47398E+03  6.08866E+03 -6.94111E+03  5.09440E+02
 -7.18945E+03 -6.41709E+03 -1.61878E+03 -6.90765E+03  3.10523E+03 -5.22958E+03  4.10408E+03 -3.82209E+03
  3.83602E+03  6.91611E+02 -1.57398E+03 -2.66021E+02  2.39966E+02 -5.46122E+02 -3.11512E+02 -3.57774E+03
  5.63982E+03 -3.59410E+03  7.86777E+03  1.12395E+03  8.72418E+03  4.29760E+03  6.48592E+03  1.11381E+04
 -2.41503E+03  1.29108E+04 -1.09464E+04  8.67285E+03 -1.46905E+04  1.20992E+03 -1.08155E+04 -4.95631E+03
 -6.05676E+03 -8.78768E+03  6.72399E+02 -7.94909E+03  1.38785E+03 -3.68937E+03  2.34775E+03 -3.23245E+03
  1.66149E+03 -1.22434E+03  1.98023E+03 -3.05855E+03  4.10676E+03 -3.04183E+03  3.87479E+03  3.07652E+02
  5.51914E+03  2.72972E+02  1.58997E+03  4.53230E+03 -2.50394E+03  4.92571E+03 -6.04216E+03  4.14012E+03
 -7.78917E+03 -1.14554E+03 -2.97713E+03 -5.13835E+03 -1.43381E+02 -7.28951E+03  4.44295E+03 -7.10849E+03
  6.78234E+03 -4.64072E+03  9.94050E+03  3.00200E+02  6.58553E+03  6.70230E+03  1.73868E+03  9.21439E+03
 -3.69418E+03  7.89153E+03 -4.41844E+03  2.55161E+03 -3.18801E+03 -1.30682E+03 -6.16704E+02 -2.07884E+03
 -9.01073E+02  9.72106E+02 -2.47877E+03  3.94080E+03 -2.92159E+03  1.60451E+03 -5.27831E+03 -1.22051E+03
 -3.65785E+03 -4.70847E+03 -5.84310E+01 -7.57075E+03  4.65659E+03 -6.63561E+03  5.69022E+03 -2.11222E+03
  5.91672E+03  3.40791E+03  3.08326E+03  5.33782E+03 -1.00423E+03  7.15128E+03 -3.78541E+03  3.21165E+03
 -6.32613E+03  7.61882E+02 -4.41639E+03 -4.10356E+03 -1.30510E+03 -5.03237E+03  3.14210E+03 -3.67327E+03
  4.28252E+03 -1.24069E+03  2.13155E+03  1.25909E+03  8.14297E+02  2.75384E+03  7.07082E+02  7.28431E+02
  1.18600E+03  1.09788E+03  1.52915E+03  1.04427E+03  1.80058E+03  2.70156E+03  1.38863E+03  2.27660E+03
 -1.42468E+03  5.42625E+03 -3.47465E+03  5.46604E+03 -5.39774E+03  9.07540E+02 -5.60820E+03 -2.08637E+03
 -3.00326E+03 -5.48837E+03  1.28225E+03 -6.33034E+03  3.38243E+03 -4.58836E+03  4.90116E+03 -1.80603E+03
  4.39642E+03  2.37624E+03  1.37005E+03  3.25306E+03 -1.36956E+03  3.21552E+03 -3.17365E+03 -2.64241E+02
 -9.71423E+02 -2.61955E+03  1.73056E+03 -4.15765E+03  1.20735E+03 -1.91203E+03  2.52352E+03  5.92834E+02
  1.45158E+03  7.93433E+02  8.27245E+02  7.04204E+02  3.75947E+02  2.02580E+03  1.33845E+03  6.23181E+02
 -3.49828E+02  3.16905E+02  3.33580E+03  6.37981E+02  9.72671E+02  3.85448E+03 -1.54257E+03  3.60082E+03
 -1.90407E+03  1.86182E+03 -3.40414E+03  4.77974E+02 -2.75060E+03 -3.67152E+02  4.79635E+01 -2.10937E+03
  4.59553E+02 -2.17012E+03  1.03251E+03 -6.53367E+02  1.73028E+02  2.13196E+03 -1.99616E+03  1.54551E+03
 -2.20443E+03  1.24353E+03 -1.21898E+03 -8.17255E+02 -1.23849E+03 -4.26538E+03 -2.76799E+02 -2.36244E+03
  1.48560E+03 -8.81858E+02  1.45880E+03  3.53890E+02  2.37010E+03  1.09696E+03  8.89137E+02  1.91543E+03
 -6.21369E+02  2.04252E+02 -1.32328E+03 -7.79261E+02 -2.52915E+02 -1.82012E+03  2.55715E+03 -1.73886E+03
  2.71875E+03  6.55614E+02  4.16228E+03  1.59553E+03  9.83469E+02  4.45903E+03 -8.64031E+02  2.59845E+03
 -1.97050E+03  1.72820E+03 -2.58567E+03 -1.78582E+03 -2.23133E+03 -4.11078E+03  1.76392E+02 -1.30909E+03
  3.02542E+03 -2.50516E+01  2.75222E+03  6.28649E+02 -1.86458E+02  1.66221E+03  1.12578E+03  1.67507E+03
 -1.70817E+03 -3.76640E+02 -2.39802E+02  1.07825E+02  5.11673E+02  1.30898E+03  1.00942E+02  3.61755E+02
 -9.76923E+02  2.97157E+03 -2.76218E+03  9.32253E+02 -3.74265E+03 -4.16151E+01 -3.38082E+03 -3.07908E+03
 -1.72083E+03 -5.04275E+03  1.20625E+03 -5.30023E+03  1.99435E+03 -3.64994E+03  4.06564E+03 -1.15064E+03
  3.79518E+03  6.99285E+02  1.27411E+03  2.75068E+03 -4.41621E+02  2.69522E+03 -1.01097E+03  2.33927E+03
 -1.06439E+03  1.59289E+03 -7.81347E+02  6.84017E+02 -1.34652E+03 -5.34445E+01  4.50776E+02 -3.13460E+02
 -6.06104E+02  6.74069E+02 -7.16097E+02  1.18621E+03  1.36602E+02 -1.27777E+03 -1.09448E+03 -2.90390E+02
  2.30716E+03 -2.74980E+03  2.53971E+02  7.35837E+02  1.18278E+03  1.22210E+03  8.26515E+01  2.46084E+03
 -2.15547E+03  3.57352E+03 -2.90072E+03  2.15889E+03 -2.77375E+03 -1.39976E+03 -1.98090E+03 -1.88504E+03
 -2.75544E+03 -3.28835E+03 -1.35465E+02 -1.63513E+03  1.23974E+03 -1.14399E+03  7.17234E+02 -1.16535E+02
  5.30196E+02  1.36526E+02 -2.93519E+02  7.88484E+02  3.32364E+02 -6.58467E+02  3.05967E+01 -2.24238E+02
  1.05681E+03  2.68408E+02  8.36470E+02  2.53215E+03  8.40027E+02  1.09654E+02  7.89079E+02  1.64716E+03
 -1.74749E+03  2.01683E+03 -1.47860E+03 -2.23744E+02 -1.08909E+03 -4.66615E+02 -6.17985E+02 -2.26713E+03
  4.66035E+02 -8.46339E+02  1.49651E+03 -2.25398E+01 -1.68431E+01 -3.37181E+02  1.11977E+03  1.38050E+03
  8.04704E+02  1.84641E+03  8.58570E+01  1.20368E+03 -1.71446E+03  9.92665E+02 -2.26032E+03 -6.08740E+01
 -1.14962E+02 -4.67191E+02 -1.21577E+03  6.28586E+02 -8.34881E+02 -1.60386E+02 -1.17524E+03 -6.97995E+02
 -1.27002E+03  1.59010E+02 -1.24892E+03 -1.69336E+03  1.51073E+03 -2.53286E+03 -7.21588E+02 -1.59900E+02
  4.30450E+02 -6.55536E+02 -6.55324E+02  5.30533E+00  8.34300E+02  1.24872E+03 -4.26248E+02  4.94530E+02
