 $NMID ID='MM_0lb_SNR200_7hz_g45_74.RAW', FMTDAT='(8E13.5)'
 TRAMP=1., VOLUME=1. $END
  3.10545E+05 -1.50753E+03  3.36777E+05  2.53847E+05  8.41592E+04  3.37607E+05 -1.33885E+05  2.52709E+05
 -1.91678E+05  8.56741E+04 -1.12111E+05 -3.14689E+04 -2.65059E+03 -4.93408E+04  5.47727E+04  4.21228E+02
  3.67533E+04  5.30431E+04 -1.64716E+04  7.68101E+04 -6.34414E+04  6.48663E+04 -8.41826E+04  3.38012E+04
 -8.00193E+04 -1.19737E+04 -5.72870E+04 -5.45726E+04 -1.50057E+04 -7.16244E+04  2.87667E+04 -4.75894E+04
  3.97022E+04  3.42077E+03  1.57399E+04  4.90113E+04 -3.55972E+04  4.95050E+04 -6.77963E+04  4.81062E+02
 -5.52598E+04 -5.76885E+04 -6.57131E+03 -7.94766E+04  3.41118E+04 -5.71109E+04  5.28875E+04 -1.88195E+04
  4.54646E+04  1.22238E+04  3.23574E+04  2.73700E+04  1.67170E+04  3.17758E+04 -5.90224E+03  2.87929E+04
 -2.21901E+04  1.38380E+04 -1.68449E+04 -4.85292E+03  6.08267E+03 -6.52776E+03  2.13982E+04  1.46056E+04
  7.28183E+03  3.92421E+04 -3.38879E+04  3.83000E+04 -6.70392E+04  3.98075E+03 -6.01598E+04 -4.47258E+04
 -1.21381E+04 -6.59498E+04  4.24506E+04 -4.78001E+04  6.32146E+04 -2.35298E+03  3.68145E+04  3.52885E+04
 -5.77280E+03  4.02744E+04 -3.24886E+04  1.87424E+04 -3.39971E+04 -1.49270E+03 -2.06993E+04 -1.15921E+04
 -1.20145E+04 -1.62379E+04 -1.65711E+03 -1.98576E+04  9.63738E+03 -2.39529E+04  1.52392E+04 -1.31353E+04
  9.69232E+03  6.20937E+03 -1.29001E+04  1.16364E+04 -2.43651E+04 -8.73483E+03 -9.70906E+03 -3.83649E+04
  2.61061E+04 -4.80983E+04  5.20612E+04 -2.16189E+04  5.09271E+04  2.20747E+04  1.75706E+04  4.81002E+04
 -1.51445E+04  3.57534E+04 -2.73295E+04  2.26317E+03 -1.14775E+04 -3.06788E+04  2.36891E+04 -3.75315E+04
  4.71834E+04 -1.35387E+04  4.05498E+04  2.47455E+04  2.15556E+04  5.16515E+04 -1.03536E+04  5.78430E+04
 -3.73006E+04  3.80791E+04 -5.05099E+04  1.21514E+04 -4.99061E+04 -1.95128E+04 -2.59041E+04 -4.22181E+04
  6.97750E+03 -4.39903E+04  3.48141E+04 -1.82333E+04  3.19503E+04  1.13048E+04  7.24323E+03  2.01477E+04
 -1.26650E+04  9.82560E+03 -1.27366E+04 -7.33077E+03  4.90050E+03 -1.17497E+04  1.82372E+04  5.11052E+03
  1.72923E+04  2.27679E+04 -4.66211E+03  2.81056E+04 -2.37731E+04  1.68897E+04 -3.23099E+04 -2.90728E+03
 -2.73005E+04 -1.72890E+04 -1.24149E+04 -2.57542E+04  6.58518E+03 -2.63995E+04  2.08142E+04 -2.37535E+04
  3.40045E+04 -1.47509E+04  4.07604E+04  5.78362E+03  2.88951E+04  2.64100E+04  3.66308E+03  4.29491E+04
 -1.97258E+04  3.65727E+04 -3.20550E+04  1.33995E+04 -2.08992E+04 -1.07576E+04 -3.48742E+03 -1.24650E+04
  1.47878E+03 -9.25614E+01 -8.47182E+03  8.92934E+03 -2.18258E+04  6.23499E+03 -2.15870E+04 -1.15805E+04
 -1.40488E+04 -2.59666E+04  5.31393E+03 -2.95752E+04  1.88238E+04 -2.22770E+04  2.50380E+04 -5.99841E+02
  1.62630E+04  1.67951E+04 -3.11196E+03  2.54852E+04 -1.64369E+04  1.28180E+04 -2.64765E+04 -6.33281E+03
 -1.88545E+04 -2.42608E+04 -3.40581E+03 -2.95064E+04  1.33511E+04 -2.37092E+04  2.45172E+04 -1.35203E+04
  2.45167E+04  6.23800E+01  1.93897E+04  7.16289E+03  8.48218E+03  3.64716E+03  1.39254E+04 -3.04631E+03
  2.43591E+04  3.06998E+03  2.66012E+04  1.92241E+04  1.98970E+04  4.21571E+04 -1.58289E+03  5.02359E+04
 -2.74276E+04  4.22311E+04 -4.53967E+04  1.94139E+04 -4.93831E+04 -2.27487E+03 -3.84948E+04 -2.87780E+04
 -1.58841E+04 -4.29639E+04  1.45899E+04 -3.52289E+04  2.89519E+04 -1.59481E+04  2.67375E+04  9.15521E+03
  9.00950E+03  2.10593E+04 -1.25700E+04  1.63309E+04 -1.99012E+04  2.09081E+03 -1.69598E+04 -1.36460E+04
 -4.48365E+02 -2.11487E+04  1.14111E+04 -1.67293E+04  1.47975E+04 -3.58354E+03  4.15766E+03  8.95927E+03
 -9.87163E+03  5.53879E+03 -9.94709E+03 -7.76533E+03 -1.62177E+03 -1.93107E+04  1.19262E+04 -2.19398E+04
  2.56653E+04 -1.33930E+04  2.97297E+04  4.07775E+03  2.49885E+04  2.06981E+04  1.16081E+04  3.23377E+04
 -6.12924E+03  3.32334E+04 -2.22978E+04  2.18086E+04 -2.44975E+04  5.40558E+03 -1.64632E+04 -7.15142E+03
 -6.23110E+03 -9.67233E+03 -1.65761E+03 -5.46831E+02 -1.87901E+03  3.31013E+03 -8.63909E+03  7.18253E+03
 -1.45728E+04 -1.11425E+03 -1.62439E+04 -1.22324E+04 -5.62109E+03 -2.08756E+04  7.57757E+03 -1.85179E+04
  1.45244E+04 -5.65759E+03  1.00026E+04  5.12554E+03 -9.69616E+02  6.17314E+03 -9.02902E+03  4.74701E+01
 -7.42428E+03 -1.23623E+04 -9.25385E+01 -1.86317E+04  1.19672E+04 -1.94287E+04  2.36143E+04 -1.02717E+04
  2.55624E+04  1.83390E+03  2.20117E+04  1.75661E+04  3.61422E+03  2.16217E+04 -1.14469E+04  1.64321E+04
 -1.60889E+04  3.57288E+03 -7.59454E+03 -2.61920E+03  2.94728E+03 -7.75354E+03  9.05126E+03 -4.85724E+02
  8.07698E+03  6.49131E+03  1.56670E+03  1.30545E+04 -1.05429E+04  1.34072E+04 -1.91433E+04  3.89337E+03
 -1.40441E+04 -1.19706E+04 -9.37537E+02 -1.41317E+04  8.63771E+03 -7.78781E+03  1.03825E+04  4.76075E+03
  2.43312E+03  1.25711E+04 -8.41980E+03  1.37646E+04 -1.67186E+04  6.40280E+03 -1.71078E+04 -6.13978E+03
 -9.85859E+03 -1.84630E+04  5.32695E+03 -2.05736E+04  1.78738E+04 -1.21384E+04  1.91451E+04  5.10274E+03
  1.11207E+04  1.64587E+04 -1.32417E+03  1.87561E+04 -1.55345E+04  1.02138E+04 -1.51535E+04 -1.89900E+03
 -1.25102E+04 -1.11038E+04 -2.44895E+03 -1.31436E+04  5.99181E+03 -1.27358E+04  8.35579E+03 -4.50837E+03
  6.27445E+03  3.39740E+03 -5.16839E+01  1.78184E+03 -6.89843E+02 -7.00452E+03  3.09153E+03 -9.99879E+03
  1.31554E+04 -6.62437E+03  1.96166E+04  2.17864E+03  1.87899E+04  1.21981E+04  1.20889E+04  2.33718E+04
 -7.51666E+03  2.95989E+04 -2.39511E+04  2.16811E+04 -2.99697E+04  3.32487E+03 -2.16285E+04 -1.10739E+04
 -1.31119E+04 -2.07623E+04 -1.21317E+03 -1.62003E+04  6.24315E+03 -9.21712E+03  7.43908E+03 -5.81316E+03
  3.42049E+03 -3.10508E+03  6.08394E+03 -3.05627E+03  6.64580E+03 -4.39324E+03  9.96539E+03 -1.88346E+03
  1.19065E+04  5.25986E+03  5.75522E+03  9.72775E+03 -9.24051E+02  1.34640E+04 -1.52259E+04  1.19079E+04
 -1.62212E+04 -1.29572E+03 -1.39753E+04 -1.20728E+04 -2.43231E+03 -1.89718E+04  9.79889E+03 -1.91419E+04
  2.01857E+04 -1.34129E+04  2.29268E+04  2.50758E+03  1.64458E+04  1.76976E+04  2.01099E+03  2.06375E+04
 -9.59295E+03  1.66221E+04 -1.23304E+04  6.39049E+03 -9.14791E+03 -8.49636E+02 -3.25027E+03 -2.82236E+03
 -1.64467E+03 -5.54961E+02 -3.20144E+03  5.31624E+03 -7.69034E+03  3.46376E+03 -1.18439E+04 -1.72876E+03
 -9.05516E+03 -1.27371E+04 -1.49948E+03 -1.70115E+04  1.06517E+04 -1.70027E+04  1.85194E+04 -5.20839E+03
  1.86549E+04  1.01500E+04  9.04045E+03  1.79155E+04 -4.67524E+03  1.77760E+04 -1.21545E+04  1.37802E+04
 -1.89952E+04  3.01015E+03 -1.18406E+04 -1.03918E+04 -5.73246E+02 -1.34971E+04  9.00099E+03 -1.08131E+04
  1.19843E+04 -3.37021E+03  9.23559E+03  1.89004E+03  3.04929E+03  4.89639E+03  1.33810E+03  3.84369E+03
  2.82944E+03  1.14683E+03  4.30435E+03  2.77884E+03  6.72231E+03  6.34910E+03  3.68363E+03  9.30522E+03
 -3.08785E+03  1.33545E+04 -1.33032E+04  1.40704E+04 -2.08318E+04  3.30915E+03 -2.06900E+04 -7.66064E+03
 -8.35958E+03 -1.88051E+04  2.84059E+03 -2.07866E+04  1.25832E+04 -1.11251E+04  1.46227E+04 -3.16316E+03
  1.20111E+04  6.98738E+03  1.61728E+03  1.07968E+04 -3.35415E+03  6.97002E+03 -8.88463E+03 -4.86469E+02
 -4.53748E+03 -7.96977E+03  4.94198E+03 -8.99771E+03  6.31555E+03 -4.83627E+03  7.86177E+03  7.49102E+02
  4.43616E+03  3.86996E+03 -1.37801E+01  4.05867E+03  7.81541E+01  1.08441E+03  2.06999E+02 -1.29986E+03
  5.41253E+03 -4.00520E+02  8.81823E+03  2.76127E+03  5.63269E+03  9.54256E+03 -2.35262E+03  1.32181E+04
 -9.12885E+03  1.08238E+04 -1.18231E+04  3.21916E+03 -1.10067E+04 -3.87074E+03 -5.21568E+03 -7.35760E+03
  1.47459E+03 -8.86263E+03  6.25561E+03 -3.70881E+03  4.00292E+03  3.36048E+03  1.05805E+02  8.22571E+03
 -6.96338E+03  4.13300E+03 -8.75015E+03 -2.73646E+03 -4.38131E+03 -9.81329E+03  3.20737E+03 -1.01836E+04
  5.08968E+03 -9.76773E+03  9.26603E+03 -7.83446E+02  3.94432E+03  2.28507E+03  1.12624E+03  3.77750E+03
 -4.42448E+03  2.76557E+03 -4.64886E+03 -4.57669E+03  1.32558E+03 -8.66066E+03  9.45285E+03 -4.43520E+03
  1.28619E+04  1.23860E+03  1.24965E+04  8.17559E+03  3.20646E+03  1.45372E+04 -5.14815E+03  1.44482E+04
 -1.08025E+04  5.79971E+03 -9.31545E+03 -2.78295E+03 -5.01238E+03 -7.08448E+03  1.60487E+03 -9.17078E+03
  7.89194E+03 -2.76274E+03  7.96676E+03  3.90978E+03  3.98994E+03  5.24434E+03 -1.46932E+03  5.21281E+03
 -4.99036E+03  4.13216E+03 -3.49171E+03  1.59962E+03 -2.14764E+03  6.18285E+02  8.08292E+02  6.10587E+02
 -3.83365E+03  3.89664E+03 -9.06480E+03  3.88458E+03 -1.19616E+04 -3.10394E+02 -1.47713E+04 -9.87394E+03
 -7.47871E+03 -1.81712E+04  1.96259E+03 -1.96521E+04  1.31545E+04 -1.57923E+04  1.82819E+04 -5.77926E+03
  1.85257E+04  2.94219E+03  1.13193E+04  1.39242E+04  2.14155E+03  1.46948E+04 -5.08248E+03  1.18223E+04
 -8.54306E+03  2.15170E+03 -6.69975E+03 -1.16796E+03 -1.04942E+03 -5.07055E+03 -1.32629E+03  1.27103E+03
 -1.30742E+03  9.69381E+02 -2.91992E+03  1.15739E+03  6.76716E+02 -3.07704E+03  5.48924E+02 -6.77151E+03
  7.57915E+03 -4.55144E+03  9.72591E+03 -1.48360E+02  9.20707E+03  6.48853E+03  5.03647E+03  1.54465E+04
 -7.19052E+03  1.75501E+04 -1.54877E+04  8.80944E+03 -1.66243E+04 -9.88789E+02 -1.27117E+04 -9.83238E+03
 -3.95581E+03 -1.43525E+04  3.58198E+03 -1.41560E+04  8.73654E+03 -8.06640E+03  8.91152E+03  2.46463E+02
  4.92215E+03  4.27073E+03 -1.03628E+03  4.54558E+03 -2.41997E+03 -2.03270E+02  1.04003E+03 -3.74841E+03
  5.12685E+03 -3.14358E+03  5.59090E+03  3.36657E+03  6.92976E+03  4.64397E+03 -3.64449E+02  7.38381E+03
 -7.98940E+03  6.41311E+03 -1.00222E+04  1.37694E+03 -9.03602E+03 -6.58175E+03 -2.48742E+03 -1.29825E+04
  6.76998E+03 -1.04145E+04  1.11678E+04 -3.31331E+03  1.07139E+04  4.56839E+03  7.89040E+03  9.21600E+03
  7.34885E+02  9.69603E+03 -4.87339E+03  7.97254E+03 -6.34827E+03  3.96561E+03 -3.38015E+03 -1.06427E+03
 -2.33898E+03 -1.01924E+03 -2.40149E+03  3.48590E+03 -3.99988E+03  6.55304E+02 -6.17775E+03 -1.33479E+03
 -7.04573E+03 -6.66730E+03 -2.30646E+03 -1.04976E+04  6.04731E+03 -9.22617E+03  8.99255E+03 -4.32498E+03
  1.10249E+04  1.63544E+03  6.65578E+03  5.62473E+03 -1.74073E+02  1.14673E+04 -9.88967E+03  6.36951E+03
