 $NMID ID='MM_0lb_SNR200_10hz_g40_47.RAW', FMTDAT='(8E13.5)'
 TRAMP=1., VOLUME=1. $END
  3.09054E+05  5.54265E+02  3.37303E+05  2.49467E+05  8.42506E+04  3.38502E+05 -1.33049E+05  2.49809E+05
 -1.91412E+05  8.30686E+04 -1.11398E+05 -3.36566E+04  2.97948E+02 -5.03035E+04  5.45728E+04  8.30624E+02
  3.47020E+04  5.29274E+04 -1.61074E+04  7.66725E+04 -6.04144E+04  6.44609E+04 -8.53969E+04  3.15986E+04
 -7.95796E+04 -1.22548E+04 -5.65307E+04 -5.17079E+04 -1.38429E+04 -7.05725E+04  2.72601E+04 -4.59690E+04
  4.01078E+04  4.15235E+03  1.71421E+04  4.84264E+04 -3.44743E+04  4.74824E+04 -6.83110E+04  7.56194E+02
 -5.46687E+04 -5.83807E+04 -7.49898E+03 -7.75000E+04  3.51639E+04 -5.60223E+04  4.90018E+04 -1.88461E+04
  4.49026E+04  1.21607E+04  3.23237E+04  2.55228E+04  1.73858E+04  2.88068E+04 -4.06059E+03  2.77556E+04
 -2.24404E+04  1.13103E+04 -1.88483E+04 -7.10162E+03  7.88562E+03 -9.17960E+03  2.29822E+04  1.33280E+04
  7.65929E+03  3.72216E+04 -3.42961E+04  3.53915E+04 -6.42361E+04  2.61606E+03 -5.98800E+04 -4.35301E+04
 -1.27766E+04 -6.55503E+04  3.87917E+04 -4.50947E+04  6.11736E+04 -2.69874E+03  3.54957E+04  3.26384E+04
 -4.50746E+03  3.83149E+04 -3.05185E+04  1.81250E+04 -3.17330E+04 -5.88392E+03 -1.68659E+04 -1.04295E+04
 -9.27014E+03 -1.44190E+04 -3.90541E+02 -1.89115E+04  8.03735E+03 -2.25295E+04  1.60271E+04 -1.33575E+04
  1.15280E+04  5.59366E+03 -9.36417E+03  1.26105E+04 -2.30327E+04 -5.85778E+03 -8.84428E+03 -3.59118E+04
  2.49238E+04 -4.52805E+04  5.11443E+04 -2.01673E+04  4.72381E+04  2.07659E+04  1.65455E+04  4.43538E+04
 -1.51781E+04  3.31494E+04 -2.78348E+04  2.65468E+03 -9.60275E+03 -2.91507E+04  1.99630E+04 -3.78278E+04
  4.23755E+04 -9.35519E+03  3.83114E+04  2.36121E+04  1.92531E+04  4.78961E+04 -7.60153E+03  5.39923E+04
 -3.33528E+04  3.57210E+04 -4.57690E+04  1.15362E+04 -4.60383E+04 -1.81844E+04 -2.41869E+04 -4.10875E+04
  7.85463E+03 -4.16287E+04  3.37912E+04 -1.58691E+04  2.96005E+04  1.10153E+04  3.27170E+03  2.00903E+04
 -1.30347E+04  9.14553E+03 -1.15443E+04 -7.00481E+03  6.18476E+03 -1.05426E+04  1.79991E+04  5.48885E+03
  1.41631E+04  2.20226E+04 -5.18724E+03  2.53617E+04 -2.36955E+04  1.35546E+04 -2.93529E+04 -3.50051E+03
 -2.24830E+04 -1.75330E+04 -1.05955E+04 -2.31289E+04  3.94447E+03 -2.29563E+04  1.80226E+04 -2.03206E+04
  3.12065E+04 -1.28628E+04  3.56640E+04  3.01000E+03  2.52659E+04  2.19450E+04  4.13851E+03  3.81718E+04
 -1.78986E+04  3.16310E+04 -2.86951E+04  1.16667E+04 -2.23740E+04 -1.14685E+04 -3.85463E+03 -1.33762E+04
  2.37622E+03 -2.04471E+03 -5.60883E+03  6.46718E+03 -1.86431E+04  4.63419E+03 -1.85018E+04 -7.43052E+03
 -1.16344E+04 -2.15011E+04  4.56405E+03 -2.52807E+04  1.78770E+04 -1.75538E+04  2.04850E+04 -2.04170E+03
  1.30009E+04  1.50694E+04 -2.22635E+03  2.02494E+04 -1.61322E+04  1.36152E+04 -2.17138E+04 -4.66576E+03
 -1.57151E+04 -1.93089E+04 -2.77203E+03 -2.56261E+04  1.26925E+04 -2.14242E+04  2.16611E+04 -1.08814E+04
  2.06444E+04 -3.89854E+02  1.50130E+04  3.95027E+03  7.98208E+03  1.81866E+02  1.13142E+04 -1.50325E+03
  1.99198E+04  3.40385E+03  2.32616E+04  1.72970E+04  1.64881E+04  3.39706E+04 -2.67282E+03  3.98672E+04
 -2.35280E+04  3.26819E+04 -3.89565E+04  1.86836E+04 -4.06483E+04 -2.10802E+03 -3.28114E+04 -2.29647E+04
 -1.30906E+04 -3.42649E+04  1.20715E+04 -3.05027E+04  2.44526E+04 -1.42850E+04  2.14688E+04  6.82965E+03
  7.79915E+03  1.57913E+04 -8.35036E+03  1.44994E+04 -1.78562E+04  1.73680E+03 -1.45650E+04 -1.11258E+04
  1.78138E+02 -1.86909E+04  9.27968E+03 -1.29805E+04  1.28476E+04 -4.94440E+02  3.99898E+03  7.24589E+03
 -7.87456E+03  3.66479E+03 -7.25556E+03 -6.62078E+03 -7.97970E+02 -1.63805E+04  1.21941E+04 -1.80369E+04
  1.91118E+04 -8.81025E+03  2.35441E+04  3.21144E+03  1.97731E+04  1.73903E+04  9.59475E+03  2.62872E+04
 -4.67115E+03  2.73188E+04 -1.73568E+04  1.58533E+04 -2.02998E+04  4.05358E+03 -1.38540E+04 -4.79960E+03
 -5.21721E+03 -6.00910E+03 -1.09694E+03  1.78373E+03 -2.71977E+03  1.79194E+03 -7.53950E+03  4.69906E+03
 -1.16945E+04 -5.74799E+02 -1.41243E+04 -1.11274E+04 -3.97293E+03 -1.80213E+04  4.80998E+03 -1.41900E+04
  1.19181E+04 -6.68894E+03  7.57062E+03  3.98225E+03 -1.43357E+03  5.04862E+03 -7.26865E+03  1.44418E+02
 -6.90704E+03 -8.93374E+03  2.04641E+02 -1.35515E+04  7.45228E+03 -1.32971E+04  1.70938E+04 -7.80484E+03
  1.99102E+04  2.17497E+03  1.48138E+04  1.27473E+04  2.66997E+03  1.57030E+04 -8.64366E+03  1.37332E+04
 -1.25530E+04  3.89471E+03 -6.16166E+03 -4.13653E+03  2.00563E+03 -3.59329E+03  7.94935E+03 -1.25769E+03
  5.48705E+03  6.96397E+03  2.36201E+03  1.04307E+04 -7.98308E+03  1.01040E+04 -1.27840E+04  2.20206E+03
 -7.88972E+03 -7.27455E+03 -7.49018E+02 -1.36550E+04  8.42769E+03 -4.51810E+03  8.63287E+03  4.31294E+03
  1.88949E+03  7.79844E+03 -6.30005E+03  8.98819E+03 -1.22638E+04  3.18666E+03 -1.12912E+04 -4.04605E+03
 -7.16404E+03 -1.30231E+04  3.53425E+03 -1.67148E+04  1.40148E+04 -8.59265E+03  1.50481E+04  2.09737E+03
  8.75671E+03  1.23967E+04 -1.32063E+03  1.55506E+04 -1.00040E+04  8.16249E+03 -1.10816E+04 -5.86542E+02
 -9.19094E+03 -8.54356E+03 -2.25469E+03 -1.01889E+04  5.24606E+03 -8.73611E+03  4.33211E+03 -3.04005E+03
  3.58439E+03  2.08610E+03 -1.71242E+01  5.97945E+02 -1.72477E+03 -3.06368E+03  2.99988E+03 -6.05400E+03
  9.65524E+03 -4.14286E+03  1.35022E+04  2.29147E+03  1.38043E+04  8.79319E+03  7.65257E+03  1.80163E+04
 -4.27835E+03  2.18524E+04 -1.63567E+04  1.59267E+04 -2.24718E+04  2.52891E+03 -1.76895E+04 -6.54319E+03
 -9.42333E+03 -1.50976E+04  8.09903E+01 -1.27228E+04  4.47311E+03 -6.37998E+03  3.74993E+03 -5.99015E+03
  3.00017E+03 -2.28964E+03  3.18553E+03 -2.81257E+03  5.77854E+03 -1.73847E+03  7.33493E+03 -5.33869E+02
  9.73264E+03  2.23020E+03  3.02304E+03  8.19135E+03 -1.62920E+03  9.10122E+03 -1.03437E+04  7.39749E+03
 -1.21379E+04 -9.24641E+02 -8.51112E+03 -8.13180E+03 -6.73663E+02 -1.38291E+04  7.10764E+03 -1.32259E+04
  1.40240E+04 -7.23302E+03  1.71559E+04  2.52307E+03  1.15929E+04  1.18356E+04  1.66256E+03  1.38600E+04
 -5.67691E+03  1.22511E+04 -8.76572E+03  5.06823E+03 -4.63166E+03 -1.67304E+03 -3.32053E+03 -1.96159E+03
 -1.08123E+03  2.39179E+02 -2.57079E+03  2.58718E+03 -3.88673E+03  2.57428E+03 -9.45203E+03 -8.45249E+01
 -5.52537E+03 -9.18309E+03 -1.14284E+03 -1.30849E+04  7.23851E+03 -1.06059E+04  1.19662E+04 -3.11349E+03
  1.17164E+04  5.75189E+03  6.24088E+03  1.19208E+04 -2.85918E+03  1.29947E+04 -8.28916E+03  7.58769E+03
 -1.11116E+04 -1.01737E+03 -9.34598E+03 -7.43283E+03 -7.84751E+02 -1.12141E+04  5.75357E+03 -7.40588E+03
  5.13121E+03 -2.02394E+03  6.01938E+03  2.74200E+03  2.86041E+03  3.50856E+03  1.38735E+03  1.46556E+03
  3.32172E+03  1.12912E+03  1.65290E+03  2.93460E+03  4.50866E+03  5.02729E+03  3.83247E+03  7.07632E+03
 -2.02778E+03  8.27609E+03 -8.26123E+03  1.05079E+04 -1.36402E+04  2.05600E+03 -1.41529E+04 -4.92535E+03
 -6.65040E+03 -1.19202E+04  9.59937E+02 -1.36549E+04  7.57848E+03 -9.17590E+03  1.07885E+04 -2.92438E+03
  8.65124E+03  4.33680E+03  1.86756E+03  8.03648E+03 -2.24148E+03  3.19116E+03 -6.07309E+03  3.51573E+02
 -3.21386E+03 -6.59970E+03  1.76697E+03 -5.77844E+03  4.11292E+03 -2.79115E+03  5.91187E+03  1.15475E+03
  3.15518E+03  2.57303E+03  2.11886E+03  2.14753E+03 -1.58495E+03  2.09535E+03  2.47118E+03 -1.35820E+03
  8.58455E+02 -1.33349E+03  5.11164E+03  1.40817E+03  2.99260E+03  6.50966E+03  5.46679E+02  9.31465E+03
 -6.06562E+03  6.97379E+03 -7.22808E+03  3.21534E+03 -7.16733E+03 -3.06811E+03 -2.85437E+03 -5.83400E+03
  1.44100E+03 -4.30073E+03  3.91426E+03 -2.34475E+03  4.48248E+03  2.18186E+03 -2.81983E+03  4.12179E+03
 -6.72414E+03  2.60440E+03 -5.06147E+03 -2.08252E+03 -3.49962E+03 -6.89201E+03  2.11677E+01 -7.78082E+03
  3.98648E+03 -3.86295E+03  5.62579E+03  5.25902E+02  5.50635E+03  2.54247E+03 -2.18740E+02  3.57942E+03
 -4.51110E+03 -5.11681E+02 -3.53769E+03 -5.54384E+02  5.99765E+02 -5.78463E+03  5.00499E+03 -4.92693E+03
  8.26732E+03  1.38217E+02  8.06578E+03  4.66355E+03  1.68751E+03  8.34326E+03 -3.01592E+03  7.15911E+03
 -5.41625E+03  2.99603E+03 -7.30525E+03 -5.35806E+02 -3.31916E+03 -4.12131E+03  1.06914E+03 -4.92913E+03
  5.52912E+03 -2.53018E+03  4.69527E+03  2.44287E+03  4.53942E+02  4.15858E+03 -5.91143E+02  4.63104E+03
 -2.13660E+03  2.85427E+03 -2.83162E+03 -7.02660E+02 -5.21321E+02  6.68236E+01 -1.38435E+03  3.54400E+01
 -3.25021E+03  3.36223E+03 -5.72893E+03  1.50665E+03 -8.98794E+03  1.57478E+03 -8.38359E+03 -4.61763E+03
 -4.65126E+03 -1.04411E+04  2.06098E+03 -1.16725E+04  8.24927E+03 -1.01792E+04  1.13339E+04 -2.86469E+03
  1.00126E+04  2.30018E+03  5.34180E+03  7.27503E+03  1.85924E+02  7.18140E+03 -3.82579E+03  6.50376E+03
 -5.30484E+03  3.26920E+03 -2.51045E+03 -3.46589E+03 -9.70180E+02  1.22267E+02 -7.60179E+02 -4.17313E+02
 -2.10639E+03  9.22397E+02 -1.60075E+03  6.49067E+01 -1.34519E+03 -2.63182E+03  1.32596E+03 -3.20513E+03
  3.77026E+03 -2.71324E+03  4.93150E+03  1.88430E+02  5.18270E+03  4.56484E+03 -6.89097E+01  7.84818E+03
 -4.23798E+03  9.80397E+03 -8.25643E+03  5.69665E+03 -9.89550E+03 -1.29181E+03 -7.27430E+03 -5.05747E+03
 -2.61869E+03 -9.99953E+03  3.72267E+03 -8.50081E+03  4.57038E+03 -3.77793E+03  6.56473E+03 -7.37931E+02
  2.57879E+03  1.23713E+03 -6.72628E+02  3.56847E+03  7.64093E+02 -9.48373E+02  3.98704E+02 -3.10200E+03
  2.20256E+03  1.90816E+02  3.96982E+03 -4.71644E+02  3.55684E+03  3.11945E+03  1.58628E+02  3.45425E+03
 -3.46577E+03  2.41465E+03 -5.81565E+03  7.35828E+02 -5.25604E+03 -3.50067E+03  7.51153E+02 -7.04893E+03
  3.47186E+03 -5.91432E+03  6.89940E+03 -3.23521E+03  6.65351E+03  1.56994E+03  2.21834E+03  5.33758E+03
 -2.68498E+02  6.21164E+03 -3.06861E+03  4.83169E+03 -2.76348E+03  2.05661E+03 -4.45686E+03  2.03557E+02
 -1.90455E+03 -1.92821E+03 -2.60351E+03  1.22894E+03 -2.10155E+03 -3.67611E+02 -3.48547E+03 -2.37512E+03
 -4.98129E+03 -3.94625E+03 -1.36854E+03 -6.64463E+03  2.17017E+03 -5.07003E+03  5.08626E+03 -3.44936E+03
  7.05012E+03  1.35783E+03  1.97077E+03  5.30591E+03 -3.69300E+02  6.31721E+03 -4.51369E+03  4.16753E+03
