 $NMID ID='MM_0lb_SNR200_16hz_g60_3.RAW', FMTDAT='(8E13.5)'
 TRAMP=1., VOLUME=1. $END
  3.08266E+05  1.41158E+03  3.38069E+05  2.50587E+05  8.43781E+04  3.37801E+05 -1.32452E+05  2.51133E+05
 -1.90908E+05  8.45809E+04 -1.11238E+05 -3.31007E+04  1.64180E+02 -5.07396E+04  5.43713E+04 -2.28870E+02
  3.57898E+04  5.31900E+04 -1.72293E+04  7.56426E+04 -6.13772E+04  6.51335E+04 -8.52079E+04  3.35853E+04
 -8.07792E+04 -1.16381E+04 -5.75218E+04 -5.09381E+04 -1.54636E+04 -6.92146E+04  2.75887E+04 -4.47231E+04
  4.17674E+04  2.95224E+03  1.57738E+04  4.73333E+04 -3.45350E+04  4.83140E+04 -6.76232E+04  5.00575E+02
 -5.31482E+04 -5.60081E+04 -6.72549E+03 -7.68832E+04  3.42849E+04 -5.64955E+04  4.80650E+04 -1.78268E+04
  4.35839E+04  1.18378E+04  3.26511E+04  2.68390E+04  1.50053E+04  2.84827E+04 -5.77924E+03  2.51344E+04
 -2.17793E+04  1.26248E+04 -1.96089E+04 -4.59196E+03  5.58808E+03 -6.61186E+03  2.24215E+04  1.25702E+04
  8.58837E+03  3.52694E+04 -3.21694E+04  3.53116E+04 -6.32678E+04  2.04596E+03 -5.66390E+04 -4.29547E+04
 -1.27722E+04 -6.40449E+04  3.98730E+04 -4.55770E+04  5.95566E+04 -1.54742E+03  3.47637E+04  3.27960E+04
 -5.97981E+03  3.57399E+04 -3.05031E+04  1.61340E+04 -2.94844E+04 -5.57142E+03 -1.62468E+04 -1.15213E+04
 -8.19527E+03 -1.29857E+04 -1.47418E+03 -1.84866E+04  8.15429E+03 -2.25638E+04  1.61555E+04 -1.34064E+04
  1.24592E+04  6.45746E+03 -9.40129E+03  1.26305E+04 -2.25631E+04 -4.63217E+03 -8.50201E+03 -3.31546E+04
  2.27401E+04 -4.32006E+04  4.93357E+04 -1.96979E+04  4.52389E+04  1.92601E+04  1.62072E+04  4.31684E+04
 -1.55302E+04  3.20910E+04 -2.46910E+04  3.45884E+03 -1.03926E+04 -2.69856E+04  2.00861E+04 -3.34436E+04
  4.11737E+04 -7.66242E+03  3.58658E+04  2.35279E+04  1.77817E+04  4.58586E+04 -7.64567E+03  5.06338E+04
 -3.27915E+04  3.29802E+04 -4.29571E+04  8.82570E+03 -4.27745E+04 -1.61120E+04 -2.30473E+04 -3.75951E+04
  8.42449E+03 -3.79386E+04  3.05695E+04 -1.49270E+04  2.89627E+04  9.76414E+03  4.97761E+03  1.87763E+04
 -1.32978E+04  7.75872E+03 -9.77242E+03 -7.06668E+03  5.61641E+03 -1.02662E+04  1.76089E+04  6.29183E+03
  1.25400E+04  2.24182E+04 -6.17029E+03  2.55322E+04 -2.12756E+04  1.18252E+04 -2.75606E+04 -4.79120E+03
 -1.99950E+04 -1.84319E+04 -8.75390E+03 -2.01474E+04  4.78104E+03 -2.09328E+04  1.55553E+04 -1.80353E+04
  2.62565E+04 -1.22483E+04  3.15759E+04  3.54028E+03  2.38397E+04  2.08042E+04  4.65025E+03  3.51354E+04
 -1.76510E+04  2.90196E+04 -2.75492E+04  8.90179E+03 -2.15190E+04 -1.05119E+04 -5.78561E+03 -1.36304E+04
  1.09442E+03 -2.51796E+03 -4.73903E+03  7.19150E+03 -1.57612E+04  5.11144E+03 -1.47390E+04 -6.66780E+03
 -9.55973E+03 -1.81830E+04  4.59654E+03 -2.29914E+04  1.53928E+04 -1.55738E+04  1.89384E+04 -2.29737E+03
  1.19908E+04  1.28691E+04 -8.42349E+02  1.87164E+04 -1.19756E+04  1.09064E+04 -1.84926E+04 -4.34541E+03
 -1.36167E+04 -1.74426E+04 -2.34276E+03 -2.25590E+04  1.05479E+04 -1.83112E+04  1.85194E+04 -1.01245E+04
  1.63558E+04  2.95239E+02  1.30977E+04  3.44169E+03  7.22974E+03  8.15243E+01  8.69055E+03 -1.61798E+03
  1.57565E+04  3.77585E+03  1.86832E+04  1.47560E+04  1.20048E+04  3.03019E+04 -1.06939E+03  3.30119E+04
 -1.85188E+04  2.61130E+04 -3.07467E+04  1.30481E+04 -3.19985E+04 -3.07992E+03 -2.62613E+04 -1.81230E+04
 -1.13393E+04 -2.68243E+04  8.04112E+03 -2.26372E+04  2.13609E+04 -1.31030E+04  1.93816E+04  5.02443E+03
  6.06005E+03  1.32125E+04 -7.82139E+03  1.26232E+04 -1.56597E+04  2.30118E+03 -1.19367E+04 -9.62792E+03
 -7.97651E+02 -1.47677E+04  8.15124E+03 -9.39764E+03  9.67130E+03 -1.01328E+03  2.57773E+03  6.14752E+03
 -7.36798E+03  1.79484E+03 -4.95388E+03 -5.91008E+03 -1.32716E+03 -1.28175E+04  9.29456E+03 -1.30323E+04
  1.59094E+04 -6.51031E+03  1.83942E+04  3.16491E+03  1.39654E+04  1.19342E+04  6.59882E+03  1.94464E+04
 -3.70065E+03  2.29313E+04 -1.41365E+04  1.23563E+04 -1.50863E+04  3.00274E+03 -1.14208E+04 -2.50055E+03
 -5.37944E+03 -4.14352E+03 -6.28710E+02  1.75723E+03 -2.80182E+03  2.21063E+03 -4.66172E+03  3.46980E+03
 -1.12356E+04  5.34549E+02 -1.02181E+04 -8.66652E+03 -4.74241E+03 -1.53349E+04  3.25527E+03 -1.17073E+04
  9.20991E+03 -4.06817E+03  6.59910E+03  2.23413E+03  3.92258E+02  4.75667E+03 -4.53611E+03  8.18370E+01
 -5.07374E+03 -6.87962E+03 -7.57090E+02 -9.31439E+03  5.04314E+03 -9.37006E+03  1.30881E+04 -5.53926E+03
  1.54670E+04  2.72652E+03  1.27087E+04  8.18452E+03  3.07782E+03  1.25521E+04 -7.20355E+03  9.61551E+03
 -9.32927E+03  3.50340E+03 -4.82734E+03 -1.82527E+03  4.11542E+02 -3.85698E+03  4.99342E+03 -6.14133E+02
  5.53306E+03  4.87353E+03  1.34561E+03  8.29768E+03 -5.64989E+03  7.76706E+03 -1.05861E+04  2.95366E+03
 -6.10782E+03 -4.77048E+03  1.40157E+03 -8.02268E+03  5.68642E+03 -5.74387E+03  3.07255E+03  1.39279E+03
  1.14106E+03  5.09248E+03 -6.05713E+03  7.11421E+03 -7.86886E+03  3.04259E+03 -5.80761E+03 -2.20895E+03
 -4.62765E+03 -8.82372E+03  1.84293E+03 -9.48317E+03  9.10022E+03 -5.14937E+03  1.03637E+04  1.65015E+03
  6.51536E+03  6.81298E+03  1.20594E+02  1.02889E+04 -6.26952E+03  5.16230E+03 -8.08712E+03 -1.29061E+03
 -6.56277E+03 -5.85125E+03 -2.02637E+03 -7.28854E+03  4.02211E+03 -6.51215E+03  5.43333E+03 -3.58762E+03
  3.66548E+03  1.43708E+03 -1.84865E+02  1.47492E+03 -6.07235E+01 -1.23646E+03  2.38070E+02 -4.71915E+03
  5.12202E+03 -9.97540E+02  7.54609E+03  1.04399E+03  7.78424E+03  5.36869E+03  7.29993E+03  1.10101E+04
 -3.80350E+02  1.27299E+04 -1.05646E+04  9.42407E+03 -1.50552E+04  1.64141E+03 -1.24775E+04 -4.15225E+03
 -5.08265E+03 -9.88009E+03  7.40032E+02 -7.75796E+03  1.59375E+03 -4.17466E+03  1.63172E+03 -2.21359E+03
  1.77378E+03 -1.53492E+03  2.10526E+03 -2.07472E+03  2.98293E+03 -2.41636E+03  4.97336E+03  9.27672E+02
  7.24373E+03  1.83770E+03  3.13578E+03  4.11581E+03  2.39798E+02  5.02664E+03 -6.27210E+03  2.77999E+03
 -5.91045E+03 -6.24040E+02 -3.00518E+03 -5.13665E+03  1.14950E+01 -7.48608E+03  4.51829E+03 -7.28463E+03
  7.46775E+03 -5.27186E+03  9.75227E+03  1.70799E+03  7.26117E+03  6.57211E+03  1.56729E+03  8.60938E+03
 -3.91928E+03  7.85107E+03 -6.06094E+03  2.58166E+03 -2.75777E+03 -5.86190E+02 -8.26178E+02 -9.97712E+02
 -1.08002E+03  1.40707E+02 -1.02310E+03  3.60093E+03 -2.72175E+03  2.00259E+03 -4.75798E+03 -5.39420E+02
 -2.97995E+03 -4.61247E+03  1.09248E+03 -5.90557E+03  4.43446E+03 -6.85226E+03  5.71462E+03 -2.75515E+03
  6.77549E+03  3.03687E+03  3.61536E+03  5.51246E+03 -7.81723E+02  6.39230E+03 -3.57783E+03  4.41953E+03
 -5.91977E+03  5.46348E+02 -5.00300E+03 -4.49178E+03 -3.73742E+02 -5.05383E+03  2.71209E+03 -3.07699E+03
  4.98214E+03 -2.33679E+03  1.64656E+03 -1.59505E+02  1.65605E+03  1.73670E+03  8.37273E+02  1.07229E+03
  1.64845E+03  2.43486E+02  1.00789E+03 -1.30618E+03  2.42440E+03  3.77741E+03  1.28298E+03  3.29111E+03
 -1.73974E+03  4.77623E+03 -4.02291E+03  6.18159E+03 -4.65072E+03  2.21699E+03 -5.89697E+03 -8.39204E+02
 -2.64705E+03 -6.46286E+03  2.02367E+03 -6.11109E+03  4.25408E+03 -3.99335E+03  4.41595E+03 -7.74568E+02
  2.99862E+03  2.12040E+03  1.72221E+02  3.89883E+03 -1.44812E+02  1.59189E+03 -2.93131E+03 -1.36593E+02
 -1.15763E+03 -2.44018E+03  1.44325E+03 -1.87803E+03  1.93499E+03 -1.91989E+03  1.56846E+03  3.94970E+02
  1.74236E+03  1.49459E+02  1.28031E+03  3.15421E+02 -8.33664E+02  7.87069E+02  3.13553E+03 -2.57758E+02
  7.11420E+02 -1.23061E+03  2.34843E+03  9.97319E+02 -6.91102E+02  1.78883E+03 -9.01889E+01  5.58872E+03
 -2.56903E+03  3.20363E+03 -1.77229E+03  8.88377E+02 -3.64313E+03 -8.31676E+02 -2.22626E+02 -2.00460E+03
 -4.36590E+02 -2.97131E+03  8.23215E+02 -1.44744E+03  1.26903E+03  2.30249E+03 -5.51204E+02  7.79941E+02
 -1.94777E+03 -5.14660E+02 -2.38650E+03 -1.34855E+03 -3.63327E+02 -3.66381E+03  1.33492E+03 -2.83150E+03
  3.24175E+02 -6.50152E+02  2.40660E+03  2.37182E+02  2.02415E+03  9.51822E+02 -7.07517E+02  1.59293E+03
 -1.26400E+02  1.08480E+03 -1.12107E+03 -9.44740E+02  5.08869E+02 -1.61502E+03  3.33057E+03 -2.17306E+03
  2.61246E+03  6.31101E+02  3.32093E+03  3.42876E+03  5.84682E+02  3.44703E+03 -1.17955E+03  3.14080E+03
 -1.54156E+03  1.29570E+02 -1.34014E+03  4.67192E+01 -1.39729E+03 -2.83953E+03  9.58535E+02 -2.33749E+03
  1.91398E+03 -8.17586E+02  1.40352E+03  1.00958E+03  1.60485E+03  1.83785E+03  7.14407E+02  1.97240E+03
 -1.29592E+03  1.34352E+03 -7.84009E+02  6.72453E+02 -1.16161E+03  5.19625E+02 -9.44963E+02  3.09000E+02
 -9.46128E+02  1.19548E+03 -3.60477E+03  6.90832E+02 -2.10360E+03  1.67784E+02 -3.89338E+03 -2.50733E+03
 -2.70061E+03 -4.93450E+03  1.18110E+03 -5.08527E+03  1.51595E+03 -4.01205E+03  3.75524E+03 -1.11232E+03
  4.32564E+03  5.89525E+02  2.15886E+03  2.47202E+03 -1.92721E+01  2.97346E+03 -1.99960E+03  2.13141E+03
 -1.08723E+03  3.62448E+02 -4.97980E+02 -1.88344E+03 -7.96552E+02 -2.56054E+02 -1.38144E+03  2.69188E+02
 -1.79612E+03  2.23878E+02 -4.23994E+02 -6.09273E+02  6.07952E+02  1.98230E+02  7.56110E+02 -7.17019E+02
  1.69602E+03 -8.47412E+02  1.02660E+03  1.36629E+02  1.50515E+03  2.31541E+03 -1.54912E+03  2.22473E+03
 -1.33710E+03  3.96353E+03 -3.26221E+03  2.73122E+03 -3.08665E+03 -1.46433E+02 -1.72941E+03 -2.72492E+03
 -1.62169E+03 -2.58670E+03  5.88516E+02 -2.86191E+03  1.22531E+03 -7.13323E+02  2.99877E+02 -5.99242E+01
  1.87244E+03  5.66101E+02  1.08878E+02 -1.52604E+02 -1.58735E+03  4.11017E+02 -5.06683E+02 -1.11904E+03
  1.15246E+03 -1.06999E+03 -8.03363E+01 -6.11919E+02  1.57051E+02  9.21979E+02  1.49120E+03 -2.40376E+02
 -1.28646E+03  5.88762E+02 -7.21196E+02 -8.07123E+02 -1.58717E+03 -1.20008E+03 -6.00553E+02 -1.47284E+03
  1.57882E+03 -2.05446E+03  1.80792E+03 -2.00096E+02  1.55868E+03 -4.46822E+02  1.27368E+03  1.22711E+03
  7.56428E+02  1.37984E+03 -4.89655E+02  1.29304E+03 -9.54654E+02  3.40115E+02 -1.50321E+03 -2.88006E+02
 -4.11634E+02 -5.80147E+02  7.17091E+01 -1.24067E+02 -1.05755E+03  2.02642E+02 -1.09351E+03 -1.57731E+02
 -9.19925E+02  4.44353E+02 -4.85856E+02 -1.23966E+03  1.44260E+03 -1.42287E+03  6.16067E+02 -5.72091E+02
  1.25837E+03 -6.32374E+02  9.79627E+01  7.02255E+02  5.21780E+02  1.75245E+03 -8.48328E+02  1.64065E+03
