 $NMID ID='MM_0lb_SNR200_19hz_g45_66.RAW', FMTDAT='(8E13.5)'
 TRAMP=1., VOLUME=1. $END
  3.08631E+05  7.29083E+02  3.36864E+05  2.50356E+05  8.44894E+04  3.37164E+05 -1.32573E+05  2.50195E+05
 -1.89827E+05  8.17683E+04 -1.11676E+05 -3.25875E+04  2.31900E+03 -5.03140E+04  5.31301E+04  5.73570E+02
  3.55272E+04  5.19483E+04 -1.67001E+04  7.52541E+04 -6.04184E+04  6.17963E+04 -8.28566E+04  3.07705E+04
 -7.89574E+04 -1.09647E+04 -5.61085E+04 -5.04096E+04 -1.48617E+04 -6.76529E+04  2.64366E+04 -4.47010E+04
  3.92837E+04  3.76467E+03  1.56499E+04  4.73721E+04 -3.32531E+04  4.58095E+04 -6.53494E+04 -6.59007E+01
 -5.15731E+04 -5.53578E+04 -6.43456E+03 -7.52779E+04  3.19502E+04 -5.25271E+04  4.53991E+04 -1.66003E+04
  4.16716E+04  1.16462E+04  2.91425E+04  2.44490E+04  1.58954E+04  2.84886E+04 -5.94145E+03  2.66203E+04
 -2.14792E+04  1.29928E+04 -1.88173E+04 -3.25780E+03  3.78807E+03 -6.86270E+03  2.13574E+04  1.03524E+04
  6.89102E+03  3.28029E+04 -3.04652E+04  3.38924E+04 -6.03787E+04  1.87868E+03 -5.47647E+04 -4.05328E+04
 -1.20126E+04 -6.02961E+04  3.77194E+04 -4.41526E+04  5.53488E+04 -1.90354E+03  3.07644E+04  3.07648E+04
 -6.74221E+03  3.15313E+04 -2.80624E+04  1.31950E+04 -2.73460E+04 -6.22936E+03 -1.54409E+04 -9.27937E+03
 -7.08259E+03 -1.13962E+04  1.47188E+02 -1.66865E+04  6.25615E+03 -2.18809E+04  1.45418E+04 -1.45952E+04
  1.26656E+04  4.25219E+03 -5.85056E+03  1.36322E+04 -1.85965E+04 -1.48291E+03 -7.83518E+03 -2.99434E+04
  2.05079E+04 -4.04907E+04  4.49010E+04 -1.83039E+04  4.15962E+04  1.89623E+04  1.34930E+04  4.15147E+04
 -1.56558E+04  3.08322E+04 -2.27662E+04  1.31740E+03 -7.06566E+03 -2.64658E+04  2.07311E+04 -3.12296E+04
  3.81178E+04 -7.04415E+03  3.16804E+04  2.30585E+04  1.62041E+04  4.26346E+04 -8.21705E+03  4.45925E+04
 -2.70125E+04  2.82378E+04 -3.68205E+04  8.93926E+03 -3.70597E+04 -1.49792E+04 -2.11157E+04 -3.41856E+04
  6.47483E+03 -3.32021E+04  2.78564E+04 -1.25996E+04  2.69308E+04  9.72451E+03  2.24831E+03  1.79379E+04
 -1.37260E+04  6.17209E+03 -8.95627E+03 -7.76796E+03  6.14276E+03 -1.00435E+04  1.74555E+04  6.80280E+03
  1.28802E+04  2.17215E+04 -6.01539E+03  2.29353E+04 -2.14384E+04  9.10875E+03 -2.42573E+04 -7.35451E+03
 -1.66557E+04 -1.67113E+04 -6.09477E+03 -1.53142E+04  3.92095E+03 -1.44288E+04  1.16777E+04 -1.43455E+04
  2.18064E+04 -1.19666E+04  2.68880E+04  1.46923E+03  2.04547E+04  1.56238E+04  4.63561E+03  3.30138E+04
 -1.67112E+04  2.79778E+04 -2.57356E+04  8.21847E+03 -1.95946E+04 -1.01068E+04 -3.29903E+03 -1.35763E+04
  2.88357E+03 -3.94944E+03 -2.22112E+03  4.87459E+03 -1.27391E+04  5.58348E+03 -1.22932E+04 -4.58954E+03
 -8.29536E+03 -1.46894E+04  3.66071E+03 -1.85931E+04  1.23653E+04 -1.35773E+04  1.40957E+04 -8.70367E+02
  8.71807E+03  1.06916E+04 -1.04707E+03  1.52292E+04 -1.00984E+04  7.45040E+03 -1.57266E+04 -3.41675E+03
 -1.21178E+04 -1.36208E+04 -1.72448E+03 -1.92011E+04  8.62922E+03 -1.41013E+04  1.54914E+04 -6.06581E+03
  1.47599E+04  1.57229E+03  1.19360E+04  3.52249E+03  4.84806E+03  3.03403E+02  7.15788E+03 -1.55012E+03
  1.30369E+04  2.01977E+03  1.35042E+04  1.28965E+04  8.77255E+03  2.41558E+04 -2.93206E+03  2.43510E+04
 -1.46906E+04  1.97064E+04 -2.34707E+04  9.28134E+03 -2.38055E+04 -1.47196E+03 -2.07666E+04 -1.35049E+04
 -1.05730E+04 -2.01429E+04  6.57276E+03 -1.80201E+04  1.61860E+04 -1.08099E+04  1.51492E+04  3.35326E+03
  5.67722E+03  1.12936E+04 -6.94873E+03  9.99165E+03 -1.20550E+04  2.16060E+03 -9.66144E+03 -7.08125E+03
  5.11399E+02 -1.30085E+04  5.70831E+03 -9.15446E+03  7.06406E+03 -1.42828E+03  9.61893E+02  5.38033E+03
 -5.61582E+03  1.56205E+03 -3.34435E+03 -4.74487E+03 -1.00294E+02 -9.99111E+03  7.22782E+03 -9.78800E+03
  1.04269E+04 -3.48335E+03  1.17148E+04  2.96724E+03  1.00856E+04  9.03301E+03  4.50710E+03  1.40704E+04
 -1.49331E+03  1.57380E+04 -8.83837E+03  1.00405E+04 -1.01163E+04  2.39939E+03 -7.92661E+03 -1.19588E+03
 -3.51861E+03 -2.98811E+03 -1.57431E+03  1.52459E+03 -8.82016E+02  2.05669E+03 -3.61008E+03  3.72349E+03
 -8.47362E+03 -9.68856E+02 -7.18699E+03 -6.31465E+03 -3.40745E+03 -1.09946E+04  3.15681E+03 -8.40107E+03
  6.21641E+03 -3.09904E+03  4.49451E+03  2.13261E+03  1.59720E+02  2.80295E+03 -2.73746E+03  6.67196E+02
 -4.07127E+03 -5.15702E+03 -1.24402E+03 -7.21638E+03  4.59024E+03 -7.81639E+03  9.73770E+03 -2.43639E+03
  1.17619E+04  1.45767E+02  7.37424E+03  5.89095E+03  1.82787E+03  8.41567E+03 -5.03091E+03  7.23741E+03
 -6.42569E+03  2.85699E+03 -3.67168E+03 -6.62632E+02  1.33340E+03 -2.57539E+03  4.88174E+03 -5.80259E+02
  4.49157E+03  2.51340E+03  1.96723E+03  6.35181E+03 -4.14056E+03  5.72476E+03 -8.66052E+03  2.26649E+03
 -4.06807E+03 -3.05988E+03  1.10134E+03 -5.88805E+03  2.84203E+03 -3.25299E+03  3.14597E+03  2.13858E+02
  3.52545E+02  3.98752E+03 -4.53505E+03  3.88612E+03 -5.20727E+03  1.77232E+03 -4.22295E+03 -1.43696E+03
 -1.50783E+03 -5.27079E+03  1.18681E+03 -6.91386E+03  4.98753E+03 -4.41040E+03  6.65651E+03  4.22809E+02
  3.46870E+03  5.41663E+03 -1.06141E+03  6.87370E+03 -5.44453E+03  4.36593E+03 -5.50850E+03  3.11526E+02
 -5.80236E+03 -3.19799E+03 -1.57863E+03 -5.42918E+03  2.25358E+03 -3.65737E+03  2.61998E+03 -3.10388E+03
  2.38599E+03 -8.01881E+02  5.48078E+02  1.44536E+03  3.65314E+02  5.57854E+02 -3.48028E+02 -2.40798E+03
  3.73662E+03  4.91857E+01  3.45247E+03  1.08118E+03  5.77797E+03  3.20922E+03  5.21025E+03  5.88499E+03
 -1.16322E+03  8.51138E+03 -6.85450E+03  5.98068E+03 -1.00273E+04  2.00883E+03 -7.86058E+03 -1.45363E+03
 -4.46498E+03 -5.99859E+03  3.33421E+02 -4.35675E+03  1.07554E+03 -2.14581E+03  1.35775E+03 -2.23182E+03
  9.97091E+02 -9.24923E+02  9.80801E+02 -3.42835E+03  2.45325E+03 -1.12539E+03  3.42869E+03  7.86671E+02
  2.84792E+03 -4.46103E+01  4.94317E+02  2.78941E+03 -7.26394E+02  2.51652E+03 -3.95852E+03  2.98243E+03
 -4.49920E+03 -4.61741E+02 -1.66613E+03 -3.77370E+03  5.86058E+02 -4.77715E+03  3.08590E+03 -5.96932E+03
  5.25032E+03 -3.12528E+03  6.70514E+03 -4.78354E+02  4.75453E+03  3.93464E+03  1.32889E+03  4.92898E+03
 -2.01441E+03  5.18238E+03 -3.58247E+03  2.04590E+03 -1.59877E+03 -2.98045E+01  6.37241E+02 -1.15775E+03
 -3.40106E+02  1.08166E+03 -1.03131E+03  1.96274E+03 -2.36174E+03  1.16135E+03 -4.01836E+03 -1.07624E+02
 -3.99989E+02 -3.80309E+03  1.20443E+02 -4.39857E+03  2.66942E+03 -4.84720E+03  2.71148E+03 -1.17795E+03
  3.82301E+03  2.68994E+03  1.32366E+03  2.78990E+03 -7.37535E+02  4.96299E+03 -2.09476E+03  2.05028E+03
 -3.22684E+03  7.45853E+02 -1.29225E+03 -2.16071E+03 -7.97845E+02 -2.11270E+03  1.80874E+03 -1.93237E+03
  3.13962E+03 -5.59360E+02  3.30584E+03 -5.88598E+02 -1.26729E+02 -2.43663E+02  1.74078E+03  1.12837E+03
  1.50201E+03  4.93510E+02  7.93351E+02  1.07236E+03  9.78419E+02  2.22751E+03  1.11068E+03  1.93294E+03
 -1.54942E+03  9.36341E+02 -1.59528E+03  3.41568E+03 -2.69464E+03  1.57008E+03 -3.81668E+03 -5.03716E+02
 -2.77731E+03 -3.43958E+03  1.15004E+03 -3.89916E+03  1.17882E+03 -2.73938E+03  2.76927E+03 -1.09161E+03
  2.45400E+03  1.12144E+03 -8.85182E+02  1.68138E+03 -3.57472E+02  1.62195E+03 -3.99784E+02 -2.71807E+02
 -1.02880E+03 -1.46775E+03  9.99654E+01 -1.16586E+03  9.24592E+02 -4.17707E+02  1.04453E+03  6.13844E+02
 -1.38630E+02 -2.60533E+02  3.79846E+02 -4.76092E+02 -3.20692E+02  8.74226E+02  8.80749E+02  4.67894E+02
 -3.11763E+02 -1.37486E+03  2.28494E+03  4.67927E+02 -5.64363E+02  2.30191E+03  6.21912E+02  2.70514E+03
 -1.37865E+03  1.85190E+03 -1.07568E+03  5.27581E+02 -2.83827E+03 -2.15845E+02 -3.31562E+02 -1.57627E+02
 -3.68311E+02 -1.85187E+03  1.78836E+03 -1.03191E+03  5.82140E+02  2.00104E+03 -5.09638E+02  3.28952E+01
 -1.49425E+03  1.04858E+03 -9.83995E+02 -1.97143E+03 -5.29494E+02 -1.89884E+03  7.80666E+02 -6.04707E+02
  4.10943E+02 -6.99142E+02  3.21654E+02 -1.69646E+02  6.51575E+02 -5.50376E+02  8.27731E+01  1.30954E+03
 -2.49432E+02 -5.32111E+02 -7.85298E+02 -9.44883E+02  9.47293E+02 -1.65544E+02  1.06338E+03 -5.66873E+02
  8.48183E+02 -6.86222E+02  2.83346E+03  8.95106E+02  1.91820E+03  1.37618E+03  1.78559E+02  2.02409E+03
  1.41526E+02 -2.64503E+02 -1.17354E+03 -1.33545E+02 -7.67212E+00 -1.34726E+03  4.77849E+02 -6.19787E+02
  1.82602E+03 -1.18302E+03  7.67685E+02  1.99367E+02  4.61767E+02  2.07527E+03  1.37419E+03  2.55588E+02
  4.00338E+02  8.60275E+02 -3.33759E+00  3.68182E+02  1.72366E+02 -4.09982E+02 -7.45624E+02 -1.01073E+01
 -6.92075E+02  7.57885E+02 -1.03755E+03  4.41607E+02 -6.95748E+02  5.76188E+02 -2.79851E+03 -1.41817E+03
 -1.54734E+03 -1.67741E+03  5.94790E+02 -2.51950E+03  3.80809E+02 -2.17105E+03  2.22579E+03 -5.14119E+02
  1.89916E+03 -1.63912E+02  4.15798E+02  1.27873E+03 -1.24934E+02  9.06958E+02  5.13236E+02  9.16828E+02
 -4.02985E+02 -4.42381E+02 -1.62118E+03 -1.32960E+02 -4.50429E+02  2.66297E+02  1.73361E+02 -1.02199E+01
 -1.70526E+03 -4.15693E+02 -1.07498E+03 -3.93067E+02  1.02526E+03 -5.65660E+02  5.32526E+01 -6.05049E+02
  1.33850E+02  3.60203E+02  7.36340E+02 -5.14173E+02  1.70368E+02  1.70505E+03 -9.57834E+02  1.27697E+03
 -1.33825E+03  2.79994E+03 -2.59123E+03 -3.97289E+02 -2.92159E+02 -6.10420E+02 -1.71634E+03 -2.12773E+03
 -3.00531E+02 -1.35356E+03  6.89651E+02 -1.40097E+03 -4.98129E+02  2.82684E+02 -7.25276E+01  5.52619E+02
  2.87189E+02  6.95589E+02  8.10348E+02 -5.30041E+02 -7.75599E+02  5.78614E+01 -8.38401E+02 -1.32981E+03
  1.64452E+03  2.77746E+02 -1.53543E+02  6.61505E+02 -2.23261E+02  6.38471E+02  9.16481E+01 -4.39028E+02
 -1.57558E+02 -1.84285E+02 -4.15957E+02 -5.69856E+01 -1.02139E+03 -3.40080E+02  6.62061E+02 -1.48637E+03
  9.12640E+01 -8.65642E+02  3.67396E+02 -5.40001E+02  1.33320E+03 -1.99098E+03  7.08515E+02  1.44331E+03
  6.48940E+02 -3.34350E+02  3.74653E+02  9.46940E+02  7.07078E+02  6.39735E+02 -9.93253E+02  1.95993E+01
 -9.19308E+01  1.42100E+02 -4.24821E+02  3.33586E+02 -7.92611E+02 -1.34179E+02 -8.65516E+02 -3.17508E+02
 -1.35553E+03 -2.71613E+02 -8.48885E+02 -5.81434E+00  5.46854E+02 -1.45148E+03  5.62861E+02  1.24509E+02
  8.65799E+02  5.82760E+02 -1.01366E+03  7.40885E+01 -3.97772E+02  1.20609E+03 -7.81652E+02  6.22184E+02
