 $NMID ID='MM_0lb_SNR200_7hz_g40_27.RAW', FMTDAT='(8E13.5)'
 TRAMP=1., VOLUME=1. $END
  3.09053E+05  9.62401E+01  3.37409E+05  2.52221E+05  8.53725E+04  3.37823E+05 -1.31547E+05  2.51325E+05
 -1.91270E+05  8.38184E+04 -1.13092E+05 -3.23422E+04 -2.18935E+02 -4.85049E+04  5.42959E+04  7.73743E+02
  3.44256E+04  5.33917E+04 -1.65750E+04  7.48100E+04 -6.01735E+04  6.43320E+04 -8.75839E+04  3.29771E+04
 -8.28489E+04 -1.24885E+04 -5.84768E+04 -5.34297E+04 -1.41899E+04 -7.09050E+04  2.85843E+04 -4.72677E+04
  4.08596E+04  3.41787E+03  1.55391E+04  4.79577E+04 -3.67317E+04  4.94819E+04 -6.91779E+04 -1.01059E+03
 -5.49861E+04 -5.90369E+04 -6.70266E+03 -7.87983E+04  3.35484E+04 -5.86710E+04  5.08008E+04 -1.80725E+04
  4.62069E+04  1.16988E+04  3.43010E+04  2.74543E+04  1.61930E+04  3.03651E+04 -5.00508E+03  2.84973E+04
 -2.24539E+04  1.05481E+04 -1.73731E+04 -7.24521E+03  7.96571E+03 -9.37336E+03  2.28255E+04  1.49564E+04
  6.28607E+03  3.81059E+04 -3.38354E+04  3.83191E+04 -6.71948E+04  8.63776E+02 -5.95870E+04 -4.52820E+04
 -1.30240E+04 -6.59633E+04  4.26512E+04 -4.76575E+04  6.19950E+04 -1.57401E+03  3.61117E+04  3.51487E+04
 -5.28410E+03  4.02181E+04 -3.26137E+04  1.92519E+04 -3.56065E+04 -3.57388E+03 -1.89857E+04 -1.32988E+04
 -9.42059E+03 -1.47347E+04  2.46856E+03 -1.98471E+04  9.90595E+03 -2.36873E+04  1.47168E+04 -1.22790E+04
  1.06147E+04  5.32708E+03 -1.22509E+04  1.29530E+04 -2.53556E+04 -8.34390E+03 -8.87661E+03 -3.80459E+04
  2.71824E+04 -4.55284E+04  5.26053E+04 -2.11836E+04  4.98102E+04  2.09397E+04  1.84366E+04  4.77600E+04
 -1.68445E+04  3.62485E+04 -2.81841E+04  2.45140E+03 -1.22259E+04 -2.88967E+04  2.03568E+04 -3.70564E+04
  4.63760E+04 -1.11428E+04  4.08426E+04  2.48954E+04  2.19189E+04  5.17076E+04 -8.76020E+03  5.75706E+04
 -3.68242E+04  3.89184E+04 -4.84783E+04  1.16207E+04 -4.92139E+04 -1.77737E+04 -2.60228E+04 -4.36263E+04
  6.33829E+03 -4.28812E+04  3.31990E+04 -1.77970E+04  3.13010E+04  1.16548E+04  4.49207E+03  2.03902E+04
 -1.42045E+04  1.10037E+04 -1.16942E+04 -7.90822E+03  5.18790E+03 -9.96799E+03  1.91363E+04  5.34447E+03
  1.49195E+04  2.23294E+04 -5.46354E+03  2.80100E+04 -2.37068E+04  1.41920E+04 -3.34123E+04 -1.77916E+03
 -2.81311E+04 -1.94611E+04 -1.13360E+04 -2.49984E+04  6.10242E+03 -2.71992E+04  2.00036E+04 -2.50324E+04
  3.26154E+04 -1.35664E+04  3.88371E+04  5.90616E+03  2.76733E+04  2.66535E+04  4.24800E+03  4.38686E+04
 -2.02480E+04  3.46384E+04 -3.16473E+04  1.24303E+04 -2.21584E+04 -1.07334E+04 -4.62956E+03 -1.17151E+04
  9.83307E+02  5.65273E+02 -9.00333E+03  1.00240E+04 -2.28433E+04  3.78549E+03 -1.98463E+04 -8.53338E+03
 -1.15583E+04 -2.37716E+04  5.41505E+03 -2.88755E+04  1.84747E+04 -2.02795E+04  2.46098E+04 -2.36092E+03
  1.53838E+04  1.83093E+04 -5.65637E+02  2.42059E+04 -1.71922E+04  1.40037E+04 -2.54979E+04 -4.72369E+03
 -1.91240E+04 -2.14006E+04 -9.19230E+02 -2.88631E+04  1.33688E+04 -2.40738E+04  2.42282E+04 -1.20584E+04
  2.10056E+04 -1.97909E+03  1.47872E+04  4.24369E+03  9.93506E+03  3.25262E+03  1.35468E+04 -1.61441E+03
  2.38701E+04  2.44103E+03  2.80603E+04  1.82778E+04  1.93104E+04  3.92587E+04 -4.25353E+02  4.82368E+04
 -2.77949E+04  4.14034E+04 -4.38313E+04  1.98788E+04 -4.74754E+04 -3.51808E+03 -3.83804E+04 -2.81333E+04
 -1.51268E+04 -4.08730E+04  1.39865E+04 -3.54282E+04  2.95921E+04 -1.79253E+04  2.40464E+04  7.46651E+03
  9.75918E+03  2.07543E+04 -1.29033E+04  1.55577E+04 -2.17245E+04  1.69626E+03 -1.65134E+04 -1.34333E+04
 -1.07130E+03 -1.78441E+04  9.61618E+03 -1.45497E+04  1.29208E+04 -1.01070E+03  4.64890E+03  9.15781E+03
 -9.33164E+03  4.67344E+03 -1.02127E+04 -7.34464E+03 -3.54653E+03 -1.91097E+04  1.38504E+04 -2.05448E+04
  2.61503E+04 -1.32397E+04  2.91395E+04  2.84391E+03  2.60959E+04  2.15404E+04  1.09164E+04  3.18638E+04
 -5.89468E+03  3.45343E+04 -2.37997E+04  2.22317E+04 -2.49564E+04  4.09916E+03 -1.69375E+04 -6.41808E+03
 -7.20359E+03 -8.98887E+03 -4.42545E+02 -7.03418E+02 -2.74110E+03  5.65513E+03 -8.28395E+03  6.48788E+03
 -1.48652E+04 -1.58684E+03 -1.64479E+04 -1.30404E+04 -8.05479E+03 -2.14080E+04  7.10597E+03 -1.63136E+04
  1.36623E+04 -6.99733E+03  1.12284E+04  3.96346E+03 -9.70766E+02  6.77728E+03 -6.62259E+03  9.94048E+02
 -7.35372E+03 -1.20018E+04 -1.31555E+03 -1.62254E+04  1.05287E+04 -1.77355E+04  2.08687E+04 -9.00889E+03
  2.72929E+04  2.57703E+03  1.98201E+04  1.39882E+04  4.29272E+03  2.02853E+04 -1.01313E+04  1.57712E+04
 -1.50752E+04  4.31941E+03 -7.02932E+03 -4.55948E+03  2.63674E+03 -5.89567E+03  8.41737E+03 -1.33867E+03
  6.81052E+03  7.22394E+03  6.15064E+02  1.27101E+04 -1.10801E+04  1.37828E+04 -1.75833E+04  3.72225E+03
 -1.24811E+04 -8.16655E+03  1.30212E+03 -1.59542E+04  9.04144E+03 -7.91591E+03  9.44133E+03  4.76105E+03
  3.07728E+03  1.27457E+04 -9.33444E+03  1.27569E+04 -1.64685E+04  5.57607E+03 -1.52791E+04 -6.66764E+03
 -8.66323E+03 -1.79508E+04  4.57335E+03 -1.89842E+04  1.83162E+04 -1.12520E+04  1.70325E+04  3.23568E+03
  1.21528E+04  1.58166E+04 -7.62226E+02  1.76588E+04 -1.35884E+04  1.00881E+04 -1.63672E+04 -1.79490E+03
 -1.25242E+04 -1.00084E+04 -8.36252E+02 -1.49380E+04  5.96760E+03 -1.16513E+04  8.20113E+03 -2.04625E+03
  6.98447E+03  3.78296E+03 -2.82399E+02  1.15497E+03 -2.58365E+03 -4.54821E+03  1.88020E+03 -8.51145E+03
  1.38513E+04 -6.52787E+03  1.95253E+04  3.16871E+03  1.88052E+04  1.41452E+04  1.03526E+04  2.36924E+04
 -5.47954E+03  2.76027E+04 -2.23842E+04  2.00306E+04 -2.99436E+04  4.82233E+03 -2.45637E+04 -1.15378E+04
 -1.18697E+04 -1.86657E+04 -2.04728E+03 -1.62234E+04  6.22333E+03 -1.03538E+04  8.77420E+03 -6.51742E+03
  3.60066E+03 -4.48286E+03  3.30191E+03 -4.44780E+03  6.40921E+03 -6.60273E+03  9.76871E+03 -3.45903E+03
  1.28969E+04  3.27970E+03  5.28633E+03  1.27294E+04 -3.25829E+03  1.24324E+04 -1.39334E+04  9.57457E+03
 -1.72765E+04 -8.54429E+02 -9.66895E+03 -1.05693E+04 -3.11264E+03 -1.83118E+04  9.46105E+03 -1.67539E+04
  1.80670E+04 -9.74194E+03  2.25963E+04  3.59530E+03  1.47526E+04  1.60960E+04  5.90151E+02  2.03849E+04
 -9.17706E+03  1.72450E+04 -1.14582E+04  6.55969E+03 -1.10317E+04 -1.43966E+03 -5.44908E+03 -3.76677E+03
 -1.21985E+03 -5.36257E+02 -2.30470E+03  3.86609E+03 -6.98631E+03  3.45791E+03 -1.15141E+04 -2.43075E+03
 -8.64073E+03 -1.36625E+04  1.23328E+03 -1.75818E+04  1.17880E+04 -1.60638E+04  1.77890E+04 -4.45853E+03
  1.77154E+04  7.79686E+03  8.01584E+03  1.55986E+04 -2.38579E+03  1.69897E+04 -1.35070E+04  1.00484E+04
 -1.70337E+04  1.83667E+03 -1.21094E+04 -1.02071E+04 -1.47126E+03 -1.70326E+04  8.95342E+03 -9.72880E+03
  1.26311E+04 -4.37358E+03  9.81693E+03  4.01076E+03  2.38123E+03  3.77453E+03  2.57649E+03  3.56439E+03
  3.89946E+03  6.42652E+02  3.83494E+03  1.53490E+03  5.52220E+03  6.51160E+03  3.54696E+03  1.04863E+04
 -3.17961E+03  1.44161E+04 -1.37150E+04  1.39277E+04 -1.88421E+04  3.42513E+03 -1.92297E+04 -9.55940E+03
 -7.83012E+03 -1.88061E+04  1.66776E+03 -1.81861E+04  1.29200E+04 -1.33628E+04  1.46671E+04 -3.59395E+03
  1.21741E+04  7.36333E+03  2.65247E+03  9.66236E+03 -4.05967E+03  5.15854E+03 -7.01745E+03 -1.53064E+03
 -2.88460E+03 -8.76771E+03  3.33312E+03 -8.56057E+03  6.69548E+03 -5.31364E+03  6.97271E+03  2.85338E+03
  5.53077E+03  5.29340E+03  2.00115E+03  3.13538E+03 -1.60726E+03  3.35748E+03  1.90419E+03 -1.19786E+03
  2.55861E+03 -5.48147E+02  6.83002E+03  4.29105E+03  4.71560E+03  1.03220E+04 -2.36574E+03  1.17803E+04
 -9.12362E+03  7.54237E+03 -1.16222E+04  1.04574E+03 -1.10878E+04 -6.57861E+03 -4.88322E+03 -6.79723E+03
 -1.00461E+02 -9.93718E+03  3.75273E+03 -4.58556E+03  5.25424E+03  1.77715E+03 -1.57284E+03  7.27886E+03
 -7.80147E+03  5.03308E+03 -9.03686E+03 -3.12973E+03 -4.93384E+03 -1.03478E+04  2.63500E+03 -1.05410E+04
  6.05535E+03 -5.54303E+03  9.68450E+03 -9.57856E+02  5.85805E+03  3.38212E+03  8.56408E+02  7.72509E+03
 -2.90525E+03  2.06104E+03 -3.00053E+03 -4.74482E+03  1.12416E+03 -5.92831E+03  8.85968E+03 -6.66593E+03
  1.40068E+04  1.58476E+03  1.26128E+04  7.24547E+03  3.54521E+03  1.47510E+04 -5.68690E+03  1.19546E+04
 -1.10067E+04  6.18251E+03 -1.11506E+04 -2.30919E+03 -5.46413E+03 -8.51268E+03  1.42995E+03 -7.92353E+03
  9.57505E+03 -4.63487E+03  6.65933E+03  1.72879E+03  3.01729E+03  8.88103E+03 -1.57219E+02  5.77186E+03
 -3.35055E+03  3.35200E+03 -3.70963E+03  4.82432E+02 -2.44964E+03  1.60850E+03 -2.88207E+03  3.06153E+03
 -3.19248E+03  3.28217E+03 -9.78969E+03  4.13649E+03 -1.36457E+04  1.55596E+03 -1.41641E+04 -9.17793E+03
 -7.35542E+03 -1.88228E+04  3.09352E+03 -1.83156E+04  1.42174E+04 -1.55855E+04  1.98620E+04 -7.69780E+03
  1.69445E+04  3.97683E+03  1.09773E+04  1.13914E+04 -1.55352E+00  1.39515E+04 -4.99317E+03  1.04737E+04
 -8.37096E+03  3.57690E+03 -4.34174E+03 -1.48026E+03 -1.97785E+03  1.35954E+03 -1.74797E+02  1.72782E+03
 -2.76558E+03  6.68676E+02 -3.29469E+03  6.74717E+02 -1.47917E+03 -2.18863E+03 -1.82126E+02 -5.05774E+03
  4.47820E+03 -3.33434E+03  8.34830E+03  9.02064E+02  9.64352E+03  7.11233E+03  3.72905E+03  1.29620E+04
 -6.12010E+03  1.53956E+04 -1.42354E+04  9.13017E+03 -1.70231E+04 -2.62179E+03 -1.22704E+04 -8.75372E+03
 -5.90483E+03 -1.56401E+04  1.66480E+03 -1.20420E+04  1.00198E+04 -8.79335E+03  9.87234E+03  9.36250E+02
  5.28685E+03  5.65022E+03 -1.02668E+03  5.42422E+03 -1.20326E+03 -1.28304E+03  6.46499E+02 -4.27571E+03
  6.95984E+03 -1.19334E+03  5.27994E+03  1.77492E+03  4.68957E+03  7.55319E+03 -1.22200E+03  8.00699E+03
 -5.81139E+03  5.35264E+03 -9.00632E+03  2.14832E+02 -8.45620E+03 -7.58916E+03  5.43903E+02 -1.24174E+04
  6.32359E+03 -1.19735E+04  9.35066E+03 -4.49710E+03  1.16008E+04  3.03619E+03  7.37901E+03  8.63638E+03
  4.22298E+02  9.96965E+03 -2.68994E+03  7.62463E+03 -5.57645E+03  5.57402E+03 -5.64200E+03 -2.40735E+02
 -2.85586E+03 -2.36268E+02 -3.53297E+03  1.73564E+03 -5.26320E+03  6.01524E+02 -9.00372E+03 -3.44554E+03
 -7.08615E+03 -3.57531E+03 -2.81366E+03 -8.87759E+03  5.22906E+03 -1.10454E+04  9.08954E+03 -3.75614E+03
  9.51736E+03  1.29523E+03  6.96391E+03  7.80116E+03 -1.31887E+02  1.09180E+04 -8.42352E+03  6.95783E+03
