 $NMID ID='MM_0lb_SNR200_15hz_g60_41.RAW', FMTDAT='(8E13.5)'
 TRAMP=1., VOLUME=1. $END
  3.10243E+05  3.53926E+02  3.38461E+05  2.51589E+05  8.41869E+04  3.38487E+05 -1.33613E+05  2.51281E+05
 -1.91803E+05  8.24007E+04 -1.11630E+05 -3.17314E+04  7.29672E+02 -4.97819E+04  5.31532E+04 -6.38332E+02
  3.59749E+04  5.32802E+04 -1.71946E+04  7.55451E+04 -6.08209E+04  6.39002E+04 -8.36051E+04  3.19145E+04
 -8.12240E+04 -1.07577E+04 -5.72961E+04 -5.19325E+04 -1.46893E+04 -7.01313E+04  2.69194E+04 -4.54213E+04
  3.99581E+04  3.99366E+03  1.60082E+04  4.63843E+04 -3.44631E+04  4.69790E+04 -6.76636E+04 -8.19865E+02
 -5.27184E+04 -5.77895E+04 -6.01334E+03 -7.58899E+04  3.49684E+04 -5.58032E+04  4.78366E+04 -1.73210E+04
  4.43060E+04  1.21075E+04  3.21068E+04  2.65672E+04  1.60197E+04  2.98706E+04 -4.46283E+03  2.76806E+04
 -2.27879E+04  1.15328E+04 -1.86082E+04 -7.09839E+03  6.00917E+03 -8.13170E+03  2.24365E+04  1.21031E+04
  6.08801E+03  3.62148E+04 -3.20947E+04  3.67192E+04 -6.54593E+04  2.16306E+03 -5.73667E+04 -4.32073E+04
 -1.21785E+04 -6.42573E+04  4.06896E+04 -4.42704E+04  5.70272E+04 -1.13480E+03  3.56417E+04  3.15573E+04
 -6.22583E+03  3.52928E+04 -3.05213E+04  1.55011E+04 -3.11830E+04 -5.32659E+03 -1.76290E+04 -1.14053E+04
 -9.01425E+03 -1.37274E+04 -7.87213E+01 -1.75286E+04  7.94030E+03 -2.38209E+04  1.53866E+04 -1.30564E+04
  1.15891E+04  5.28145E+03 -9.26468E+03  1.27275E+04 -2.16225E+04 -4.34860E+03 -7.78109E+03 -3.47137E+04
  2.26210E+04 -4.49426E+04  4.86456E+04 -1.84040E+04  4.72017E+04  1.97411E+04  1.69322E+04  4.47945E+04
 -1.54642E+04  3.43188E+04 -2.67065E+04  2.72587E+03 -1.06689E+04 -2.76457E+04  2.23416E+04 -3.48490E+04
  4.19544E+04 -9.54917E+03  3.54702E+04  2.43234E+04  1.88666E+04  4.62052E+04 -9.65044E+03  5.18835E+04
 -3.17136E+04  3.36496E+04 -4.14250E+04  8.70257E+03 -4.34121E+04 -1.71977E+04 -2.38377E+04 -3.92698E+04
  7.68139E+03 -3.89616E+04  3.35404E+04 -1.38482E+04  3.10970E+04  1.12105E+04  5.00827E+03  1.91172E+04
 -1.34910E+04  7.96572E+03 -9.36118E+03 -6.90611E+03  5.66644E+03 -1.17604E+04  1.85186E+04  6.05163E+03
  1.31200E+04  2.27069E+04 -5.36167E+03  2.58472E+04 -2.28033E+04  1.22242E+04 -2.74596E+04 -4.75652E+03
 -2.06267E+04 -1.79504E+04 -9.51554E+03 -2.08116E+04  4.31373E+03 -2.11408E+04  1.45536E+04 -1.91275E+04
  2.68666E+04 -1.28729E+04  3.42739E+04  2.83369E+03  2.42098E+04  2.16539E+04  4.43810E+03  3.68336E+04
 -1.94598E+04  3.12566E+04 -2.82696E+04  1.12379E+04 -2.10847E+04 -9.35813E+03 -4.76742E+03 -1.29819E+04
  1.01472E+03 -2.92966E+03 -6.01752E+03  6.18834E+03 -1.60326E+04  4.06054E+03 -1.65925E+04 -7.84712E+03
 -9.48083E+03 -1.90879E+04  3.99444E+03 -2.45455E+04  1.55636E+04 -1.74911E+04  1.87398E+04 -1.70697E+03
  1.16669E+04  1.32428E+04 -2.17243E+03  1.71117E+04 -1.43708E+04  1.11762E+04 -1.92610E+04 -4.81475E+03
 -1.47285E+04 -1.69831E+04 -1.15575E+03 -2.37555E+04  1.11379E+04 -1.84725E+04  2.00964E+04 -9.81912E+03
  1.76876E+04 -3.33157E+02  1.27186E+04  3.74409E+03  7.57056E+03  1.47569E+03  1.01170E+04 -9.68474E+02
  1.71342E+04  2.27245E+03  1.88283E+04  1.63368E+04  1.31814E+04  3.01638E+04 -3.19460E+03  3.45841E+04
 -1.92524E+04  2.89574E+04 -3.30110E+04  1.36931E+04 -3.28418E+04 -2.48747E+03 -2.85634E+04 -1.92155E+04
 -1.22694E+04 -2.73526E+04  9.49642E+03 -2.53683E+04  2.27368E+04 -1.18068E+04  1.95383E+04  5.88164E+03
  7.60671E+03  1.43652E+04 -7.78451E+03  1.31180E+04 -1.70684E+04  2.37654E+03 -1.30440E+04 -1.08474E+04
 -1.31627E+03 -1.44239E+04  8.13447E+03 -1.13311E+04  9.84149E+03 -1.01954E+03  3.12303E+03  6.46201E+03
 -7.89995E+03  2.74355E+03 -7.10380E+03 -6.33632E+03 -5.56586E+02 -1.31913E+04  9.00606E+03 -1.36689E+04
  1.58377E+04 -6.63908E+03  1.76151E+04  3.53215E+03  1.61292E+04  1.37702E+04  6.86247E+03  2.06276E+04
 -3.59324E+03  2.23118E+04 -1.56317E+04  1.34254E+04 -1.61788E+04  2.79682E+03 -1.07240E+04 -3.71939E+03
 -4.04965E+03 -3.77599E+03 -6.45288E+02  2.02516E+03 -3.46014E+03  1.51954E+03 -4.48684E+03  5.58562E+03
 -1.10030E+04 -6.19313E+02 -1.11943E+04 -8.72417E+03 -5.47243E+03 -1.40083E+04  4.39308E+03 -1.17626E+04
  9.87884E+03 -5.06401E+03  7.22434E+03  2.23828E+03  1.02100E+03  4.16214E+03 -5.68711E+03 -6.08936E+02
 -5.46248E+03 -7.29053E+03 -1.53368E+02 -1.03453E+04  4.92420E+03 -1.14743E+04  1.24448E+04 -5.87053E+03
  1.62260E+04 -1.03362E+02  1.14693E+04  9.16016E+03  5.45513E+02  1.32462E+04 -6.70730E+03  1.24175E+04
 -8.47483E+03  3.74883E+03 -4.98439E+03 -1.82068E+03  1.96191E+03 -4.16319E+03  6.26982E+03 -7.99792E+02
  5.93449E+03  5.49968E+03  1.01716E+03  9.64489E+03 -5.18246E+03  8.02274E+03 -1.04697E+04  3.79198E+03
 -6.61339E+03 -4.47366E+03  1.47802E+03 -8.59661E+03  5.75762E+03 -5.26270E+03  6.39889E+03  8.65542E+02
  2.70295E+03  5.89785E+03 -4.97634E+03  8.28651E+03 -8.21957E+03  2.23105E+03 -7.54255E+03 -2.53086E+03
 -4.93810E+03 -8.69920E+03  1.21644E+03 -1.17345E+04  1.01212E+04 -7.36041E+03  1.00819E+04  2.16247E+03
  6.59172E+03  7.11679E+03 -5.80739E+02  9.89465E+03 -8.92815E+03  7.08683E+03 -7.30062E+03 -9.40069E+02
 -8.01677E+03 -6.88373E+03 -9.44576E+02 -7.65928E+03  3.98252E+03 -6.12242E+03  4.11395E+03 -3.65618E+03
  3.79435E+03  1.02213E+03  2.49254E+02  3.06145E+02 -2.87934E+02 -1.42216E+03  1.46749E+03 -2.97967E+03
  6.80588E+03 -2.11816E+03  9.33573E+03  1.98541E+03  9.65677E+03  5.68862E+03  7.51623E+03  1.24931E+04
 -2.89702E+03  1.51447E+04 -1.27898E+04  1.01609E+04 -1.49095E+04  2.94528E+03 -1.31848E+04 -5.16919E+03
 -6.02640E+03 -9.91394E+03 -5.58728E+02 -8.32893E+03  2.93182E+03 -3.89063E+03  3.22294E+03 -3.03433E+03
  2.21366E+03 -2.13234E+03  1.85516E+03 -2.17268E+03  4.53133E+03 -2.13578E+03  5.13995E+03 -1.22249E+03
  6.58767E+03  2.85676E+03  2.58094E+03  6.72795E+03 -8.18179E+02  6.36294E+03 -6.45821E+03  5.48891E+03
 -8.82407E+03 -1.10561E+03 -4.63631E+03 -5.69800E+03 -7.68507E+02 -8.67726E+03  4.36634E+03 -8.55883E+03
  8.92858E+03 -4.40060E+03  9.86015E+03  5.45429E+02  7.77892E+03  7.92416E+03  2.54612E+03  1.01698E+04
 -3.14974E+03  8.21887E+03 -5.35604E+03  2.20072E+03 -3.57564E+03 -7.56777E+02 -1.56078E+03 -1.14540E+03
 -6.02803E+02 -1.35017E+02 -1.12309E+03  2.67242E+03 -3.13960E+03  8.72099E+02 -6.33652E+03 -4.42322E+02
 -4.19345E+03 -5.52381E+03 -1.01895E+03 -6.97078E+03  4.75402E+03 -7.86161E+03  8.18334E+03 -3.17284E+03
  7.79203E+03  3.15677E+03  3.29589E+03  6.13701E+03 -1.47562E+03  6.92355E+03 -4.85765E+03  5.61689E+03
 -7.41841E+03  4.86865E+02 -4.72576E+03 -3.34424E+03  4.50283E+00 -5.45896E+03  3.39894E+03 -4.70248E+03
  4.45323E+03 -3.15704E+03  2.98806E+03  8.48861E+02  1.43252E+03  1.60301E+03  1.13265E+03  3.72689E+02
  3.36995E+03  1.61465E+03  2.63427E+03  5.00766E+02  2.20896E+03  2.49222E+03  2.93535E+03  3.21649E+03
 -8.33156E+02  5.23468E+03 -3.86619E+03  6.56950E+03 -6.97681E+03  1.31677E+03 -7.85418E+03 -1.10014E+03
 -4.14335E+03 -7.92592E+03  1.53912E+03 -8.95864E+03  4.17301E+03 -4.41293E+03  5.80297E+03 -1.55935E+03
  5.82051E+03  2.87716E+03  2.34361E+03  3.87036E+03 -2.06408E+03  1.55122E+03 -3.30735E+03  4.14147E+02
 -1.87684E+03 -3.83828E+03  2.40708E+03 -3.53543E+03  2.49254E+03 -1.70473E+03  4.08886E+03 -1.33094E+01
  1.26957E+03  1.30348E+03 -2.99050E+02  9.23880E+02 -3.68150E+02  2.04530E+02  1.06630E+03  4.17474E+02
  9.42668E+02 -3.16667E+02  3.56546E+03  4.62400E+02  7.37597E+02  3.52070E+03 -3.95411E+02  4.49360E+03
 -3.32823E+03  3.17842E+03 -4.60949E+03  4.21516E+02 -3.41425E+03 -2.26045E+03 -7.15994E+02 -1.93767E+03
  5.54451E+02 -2.19420E+03  5.54252E+02 -1.32355E+03  1.11706E+03  2.20656E+03 -1.84502E+02  3.00691E+03
 -1.93686E+03  2.72354E+03 -3.90678E+03 -1.37717E+03 -2.30378E+03 -3.10605E+03  1.20152E+03 -1.83313E+03
  9.66122E+02 -1.66417E+03  4.89596E+02  8.81032E+02  1.53275E+03  6.77400E+02  8.00066E+02  1.36636E+03
 -9.75462E+02  4.73459E+02 -1.76041E+03 -1.98383E+03  3.73356E+02 -2.09843E+03  4.69086E+03 -2.05842E+03
  3.25853E+03 -2.48918E+02  6.11416E+03  2.15681E+03  1.16412E+03  2.77093E+03 -8.72336E+02  3.78192E+03
 -4.19283E+03  5.40640E+02 -2.74486E+03 -9.52986E+02 -1.80780E+03 -1.93923E+03  4.67795E+02 -1.77447E+03
  2.95878E+03 -1.25878E+03  2.63954E+03  1.88963E+03  7.43662E+02  1.16472E+03 -7.27338E+01  1.82979E+03
  4.68666E+02  2.20843E+03 -1.58749E+03  1.21283E+03  1.09233E+02 -1.21711E+02  4.38845E+02  9.31985E+02
 -1.73683E+03  1.03167E+03 -1.95218E+03  1.87769E+03 -2.99610E+03  6.30757E+02 -4.94695E+03 -1.62299E+03
 -1.44381E+03 -4.81019E+03  9.01138E+02 -5.13460E+03  3.02028E+03 -3.71349E+03  5.72983E+03 -1.40908E+03
  4.96300E+03  4.94338E+02  1.02338E+03  2.37463E+03  1.42989E+02  3.63414E+03 -1.04344E+03  3.67281E+03
 -1.29539E+03  7.41872E+02 -1.22237E+03  4.22155E+02 -2.88403E+02 -1.28985E+03 -1.90515E+03 -2.70530E+02
 -1.51710E+03  8.31484E+02 -8.59329E+02 -7.77108E+00 -1.04395E+03 -8.18661E+02 -1.39002E+02 -1.86118E+03
  2.18079E+03 -5.14037E+02  1.62128E+03 -5.14545E+02  2.09841E+03  1.81997E+03  3.61726E+02  2.59809E+03
 -3.07871E+03  3.47158E+03 -2.89032E+03  1.33252E+03 -3.55868E+03 -1.30535E+02 -2.30092E+03 -2.46186E+03
 -9.79578E+02 -3.08482E+03 -1.26741E+03 -3.62237E+03  2.20844E+03 -2.02845E+03  1.59960E+03  5.46270E+02
  1.72864E+03  2.45485E+03 -5.90556E+02  9.91453E+02  2.24410E+02  2.85411E+02  2.63342E+02 -7.76427E+02
  1.51023E+03  6.77420E+02 -6.41274E+02  5.02487E+02  1.58841E+03  1.92830E+03  6.73689E+02  1.55067E+03
 -1.30368E+03  1.73650E+03 -2.83174E+03  8.71475E+02 -1.74482E+03 -2.47484E+03 -9.88423E+01 -2.22631E+03
  1.09814E+03 -2.68162E+03  3.01583E+03 -1.00212E+03  1.95347E+03 -6.15452E+01  1.35105E+03  1.30329E+03
  1.19273E+03  1.92876E+03 -1.40253E+03  1.26641E+03 -1.29865E+03 -2.35718E+01 -4.09209E+02  1.42601E+03
 -1.01716E+03  5.69703E+02 -1.36935E+03 -2.79617E+02 -2.08017E+03 -1.29979E+03 -1.61761E+03  1.31396E+01
 -1.47295E+03  2.87773E+01 -1.72849E+02 -2.06668E+03 -4.08966E+02 -1.67998E+03  1.48249E+03 -3.14145E+01
  1.82625E+03 -4.56351E+02  3.00478E+02  1.18710E+03  3.90754E+02  2.28249E+03 -2.35761E+03  1.42558E+03
