 $NMID ID='MM_0lb_SNR200_12hz_g50_71.RAW', FMTDAT='(8E13.5)'
 TRAMP=1., VOLUME=1. $END
  3.09115E+05  1.84910E+01  3.36754E+05  2.50157E+05  8.37386E+04  3.39136E+05 -1.33037E+05  2.53037E+05
 -1.91105E+05  8.35963E+04 -1.12428E+05 -3.23243E+04 -8.68261E+00 -5.07471E+04  5.44082E+04 -5.77152E+02
  3.59097E+04  5.21674E+04 -1.61353E+04  7.63320E+04 -6.14931E+04  6.37763E+04 -8.51575E+04  3.33055E+04
 -8.11385E+04 -1.09405E+04 -5.72098E+04 -5.19795E+04 -1.68304E+04 -7.18365E+04  2.70738E+04 -4.66110E+04
  4.05337E+04  4.42064E+03  1.63199E+04  4.75158E+04 -3.43728E+04  4.87155E+04 -6.64493E+04  1.39051E+03
 -5.32813E+04 -5.71562E+04 -7.61561E+03 -7.88689E+04  3.48177E+04 -5.60443E+04  4.92102E+04 -1.71410E+04
  4.38816E+04  1.19764E+04  3.11260E+04  2.64916E+04  1.56101E+04  2.96282E+04 -5.87487E+03  2.71348E+04
 -2.15125E+04  1.37069E+04 -1.86754E+04 -4.53023E+03  5.81709E+03 -7.75887E+03  2.23469E+04  1.33704E+04
  7.99917E+03  3.50851E+04 -3.26709E+04  3.65817E+04 -6.61031E+04  1.60675E+03 -5.83998E+04 -4.34690E+04
 -1.40140E+04 -6.30133E+04  4.09323E+04 -4.61891E+04  5.96458E+04 -3.05310E+03  3.58111E+04  3.35876E+04
 -5.82830E+03  3.65991E+04 -3.00634E+04  1.68346E+04 -3.26791E+04 -3.32651E+03 -1.94461E+04 -1.06356E+04
 -8.78840E+03 -1.29281E+04 -7.47868E+02 -1.86529E+04  6.95678E+03 -2.35707E+04  1.45956E+04 -1.48427E+04
  1.04153E+04  6.87912E+03 -8.78194E+03  1.30176E+04 -2.22972E+04 -5.24574E+03 -9.91122E+03 -3.49542E+04
  2.30257E+04 -4.59631E+04  4.98259E+04 -2.02014E+04  4.60775E+04  2.04653E+04  1.57198E+04  4.55305E+04
 -1.67628E+04  3.34211E+04 -2.53760E+04  2.75663E+03 -9.06560E+03 -3.00276E+04  2.18231E+04 -3.53944E+04
  4.34723E+04 -9.58301E+03  3.78900E+04  2.42111E+04  1.88168E+04  4.88428E+04 -9.01627E+03  5.17446E+04
 -3.37919E+04  3.55887E+04 -4.36052E+04  1.06384E+04 -4.51343E+04 -1.83639E+04 -2.36135E+04 -3.97429E+04
  6.44676E+03 -4.01595E+04  3.28127E+04 -1.58162E+04  3.06928E+04  1.24810E+04  4.60443E+03  2.06697E+04
 -1.33400E+04  7.84020E+03 -1.13334E+04 -7.37373E+03  7.10251E+03 -1.02499E+04  1.78524E+04  7.87554E+03
  1.55528E+04  2.15134E+04 -7.28087E+03  2.60173E+04 -2.42278E+04  1.28585E+04 -2.97327E+04 -2.92496E+03
 -2.25993E+04 -1.82583E+04 -9.98709E+03 -2.12714E+04  4.79065E+03 -2.13815E+04  1.76402E+04 -2.16869E+04
  2.91352E+04 -1.28521E+04  3.39048E+04  3.52502E+03  2.60535E+04  2.15686E+04  4.44147E+03  3.85453E+04
 -1.83842E+04  3.15974E+04 -2.94135E+04  1.05441E+04 -2.11795E+04 -1.00866E+04 -4.66245E+03 -1.28085E+04
  1.25754E+03 -1.96773E+03 -6.60474E+03  8.27173E+03 -1.76080E+04  5.79246E+03 -1.75582E+04 -7.80474E+03
 -1.05150E+04 -2.12169E+04  6.21674E+03 -2.44778E+04  1.60243E+04 -1.96123E+04  1.96493E+04 -2.64000E+03
  1.25986E+04  1.46966E+04 -3.86101E+02  2.13166E+04 -1.33764E+04  1.26205E+04 -2.18418E+04 -4.19962E+03
 -1.47111E+04 -1.83805E+04 -1.53717E+03 -2.60703E+04  1.15969E+04 -2.16249E+04  2.04395E+04 -1.08456E+04
  1.90537E+04 -1.11480E+02  1.53822E+04  5.20783E+03  8.36766E+03  2.09612E+03  1.00964E+04 -9.55102E+02
  1.93890E+04  3.97630E+03  2.22737E+04  1.65304E+04  1.31134E+04  3.22778E+04 -1.70569E+03  3.94615E+04
 -2.21190E+04  3.13586E+04 -3.63414E+04  1.61663E+04 -3.88881E+04 -3.27797E+03 -3.02922E+04 -2.16517E+04
 -1.19588E+04 -3.19265E+04  1.14380E+04 -2.68394E+04  2.53642E+04 -1.42804E+04  2.20619E+04  5.85205E+03
  7.58346E+03  1.52526E+04 -9.10687E+03  1.39525E+04 -1.77894E+04  1.06937E+03 -1.43255E+04 -1.19329E+04
  2.29094E+02 -1.69215E+04  8.66725E+03 -1.20621E+04  1.16613E+04 -1.20246E+03  2.97415E+03  7.48877E+03
 -6.12163E+03  3.74313E+03 -8.92516E+03 -6.93344E+03 -2.32821E+03 -1.57918E+04  1.03545E+04 -1.77194E+04
  1.79124E+04 -8.37438E+03  2.16396E+04  3.16047E+03  1.93617E+04  1.47948E+04  8.50813E+03  2.32995E+04
 -4.67551E+03  2.69127E+04 -1.78787E+04  1.48194E+04 -1.74366E+04  2.61299E+03 -1.36198E+04 -4.04916E+03
 -6.68111E+03 -6.45310E+03 -1.24816E+03 -2.87698E+02 -2.03580E+03  2.56415E+03 -5.35678E+03  3.74467E+03
 -1.21221E+04 -1.76370E+03 -1.30812E+04 -9.99784E+03 -4.69328E+03 -1.61257E+04  5.85629E+03 -1.27439E+04
  1.07160E+04 -6.78127E+03  8.26384E+03  4.28242E+03  1.05200E+02  3.88593E+03 -5.72981E+03 -2.85771E+02
 -6.32314E+03 -8.77353E+03 -5.67382E+02 -1.18492E+04  8.16369E+03 -1.25779E+04  1.50981E+04 -7.02789E+03
  1.88522E+04  2.52813E+03  1.40055E+04  1.07527E+04  2.03640E+03  1.70532E+04 -7.78034E+03  1.24800E+04
 -1.07605E+04  4.47176E+03 -5.81861E+03 -2.46257E+03  2.50427E+03 -2.29840E+03  6.11117E+03  6.75050E+02
  6.31395E+03  6.20155E+03 -1.33706E+01  9.79800E+03 -6.89665E+03  8.58080E+03 -1.26056E+04  1.42444E+03
 -8.22945E+03 -5.35621E+03  3.63953E+02 -1.11163E+04  7.34638E+03 -6.22782E+03  7.54818E+03  2.63449E+03
  3.60016E+02  7.90365E+03 -7.24437E+03  9.00523E+03 -1.11028E+04  3.11183E+03 -1.03057E+04 -3.90135E+03
 -6.31022E+03 -1.19334E+04  1.35244E+03 -1.47586E+04  1.16125E+04 -7.71188E+03  1.19919E+04  1.56568E+03
  8.97471E+03  9.99323E+03 -2.18104E+03  1.30688E+04 -9.73583E+03  8.02023E+03 -9.27987E+03 -1.06070E+03
 -7.87062E+03 -9.40599E+03 -2.88170E+03 -1.05682E+04  6.76233E+03 -8.42021E+03  6.16829E+03 -2.58243E+03
  2.63226E+03  8.72630E+02 -1.82171E+03  2.07038E+03 -6.76047E+02 -2.73742E+03  9.68165E+01 -5.80485E+03
  8.67505E+03 -3.57651E+03  1.08683E+04  1.79122E+03  1.22244E+04  7.76364E+03  9.24595E+03  1.50432E+04
 -4.53388E+03  1.69783E+04 -1.46872E+04  1.34121E+04 -2.12328E+04  1.14496E+03 -1.49269E+04 -7.42774E+03
 -7.10742E+03 -1.14614E+04  7.49650E+02 -1.24610E+04  4.11249E+03 -6.59345E+03  3.24281E+03 -4.83007E+03
  3.57725E+03 -3.18698E+03  4.66760E+03 -2.99864E+03  4.60541E+03 -2.41632E+03  7.18326E+03 -1.46935E+03
  7.65883E+03  1.35703E+03  4.22898E+03  7.33547E+03 -1.51878E+03  7.75131E+03 -9.49696E+03  5.53151E+03
 -9.22919E+03 -6.54909E+02 -6.63710E+03 -8.37152E+03 -3.57347E+02 -1.06898E+04  6.10301E+03 -1.13514E+04
  1.22743E+04 -6.45780E+03  1.41138E+04  1.30055E+03  1.04732E+04  9.16507E+03  1.82810E+03  1.21089E+04
 -5.65332E+03  1.10875E+04 -7.86332E+03  4.02274E+03 -5.23456E+03 -1.23787E+03 -3.14151E+03 -1.24951E+03
 -1.61890E+03 -5.40760E+02 -7.77574E+02  2.45727E+03 -4.97708E+03  1.83858E+03 -6.87376E+03 -1.81325E+02
 -5.20272E+03 -8.64180E+03 -1.37615E+00 -9.66255E+03  7.36670E+03 -9.18092E+03  9.50674E+03 -2.71803E+03
  9.91973E+03  4.38213E+03  5.11928E+03  9.22903E+03 -2.12276E+03  1.10759E+04 -6.79462E+03  7.11294E+03
 -9.57036E+03 -8.30285E+01 -6.99162E+03 -7.31968E+03 -5.90239E+02 -9.32654E+03  4.89258E+03 -6.03758E+03
  5.85301E+03 -3.88753E+03  6.01516E+03  4.34904E+02  1.95259E+03  3.24012E+03  4.15242E+02  2.34945E+03
  2.05435E+03  1.30605E+03  3.37457E+03  1.88350E+03  3.03691E+03  4.35533E+03  2.75175E+03  5.97636E+03
 -3.16799E+03  8.02255E+03 -6.62110E+03  9.16277E+03 -1.00734E+04  3.18847E+03 -1.03359E+04 -2.68586E+03
 -3.99586E+03 -9.98548E+03  4.97142E+02 -1.07121E+04  5.14867E+03 -7.09342E+03  8.55903E+03 -2.75262E+03
  4.94521E+03  5.20520E+03  2.02866E+03  6.26855E+03 -2.75408E+03  4.22422E+03 -3.81276E+03 -1.40182E+03
 -7.25530E+02 -4.87262E+03  2.50180E+03 -4.23916E+03  5.87595E+03  4.32877E+01  5.28514E+03  8.33796E+02
  2.22534E+03  1.27462E+03  9.18930E+02  2.29031E+03  2.89690E+02  1.14935E+03  3.39509E+03 -1.20196E+02
  1.76187E+03 -3.58120E+02  4.32152E+03  1.96876E+03  2.39425E+03  5.27609E+03 -1.89531E+03  6.86416E+03
 -4.94629E+03  3.91261E+03 -6.99494E+03  1.90902E+03 -5.99976E+03 -2.20744E+03 -2.43448E+03 -3.07958E+03
  2.09950E+03 -1.60529E+03  2.91111E+03 -4.50724E+02  2.62046E+03  2.67070E+03 -7.12645E+01  3.31704E+03
 -4.75298E+03  2.67497E+03 -3.79069E+03 -1.06733E+03 -2.67641E+03 -6.29769E+03 -3.15742E+02 -4.74884E+03
  3.14245E+03 -3.17816E+03  5.39015E+03 -3.05120E+01  3.39851E+03  2.23676E+02  8.83159E+02  2.83592E+03
 -1.05053E+03  1.62425E+03 -1.39586E+03 -2.43969E+02  9.66219E+02 -3.37958E+03  5.40985E+03 -4.43245E+03
  6.18280E+03  1.86231E+02  6.86842E+03  3.63949E+03  2.85984E+03  5.43372E+03 -1.88600E+03  5.45840E+03
 -5.44886E+03  3.65660E+03 -5.02680E+03  1.52572E+03 -2.90615E+03 -4.42002E+03  1.18250E+03 -3.51431E+03
  3.16627E+03 -2.21068E+03  3.82854E+03  2.73353E+03  3.10557E+03  3.03915E+03  1.03299E+02  2.85229E+03
 -2.27754E+03  1.04608E+03 -2.32501E+03  5.64257E+02 -1.88101E+02  1.06863E+03 -2.33366E+03  1.95741E+03
 -1.98513E+03  2.89804E+03 -5.44313E+03  1.20043E+03 -6.10194E+03  3.54788E+02 -8.43688E+03 -3.62166E+03
 -3.94912E+03 -7.43449E+03  2.17722E+03 -7.81061E+03  5.40198E+03 -7.20595E+03  7.75113E+03 -3.47029E+03
  9.69307E+03  1.46891E+03  5.40495E+03  5.04212E+03  1.03937E+02  5.69448E+03 -4.40668E+03  4.66235E+03
 -3.01611E+03  7.82449E+02 -1.42908E+03 -8.91567E+01 -1.28571E+03  5.14518E+02 -3.55720E+00 -9.91216E+02
 -1.49329E+03 -2.26965E+02 -1.44256E+03  6.83667E+02  4.65017E+02 -1.05080E+03  1.33626E+03 -1.03964E+03
  2.59203E+03 -1.25907E+03  1.97718E+03 -9.87949E+02  4.09876E+03  3.10888E+03 -3.24428E+02  6.40548E+03
 -3.23596E+03  5.92951E+03 -5.58110E+03  3.41020E+03 -7.71017E+03 -3.14294E+00 -4.93150E+03 -4.00746E+03
 -2.07851E+03 -6.42732E+03  1.43199E+03 -6.25333E+03  4.51556E+03 -4.25753E+03  2.54964E+03  6.44566E+02
  2.12006E+03  3.17853E+03  5.42076E+01  1.88230E+03 -5.12876E+02  6.72889E+01  1.10124E+03 -9.50977E+02
  3.33956E+03 -9.00205E+02  1.80583E+03  1.33325E+03  7.40601E+02  2.50714E+03 -7.29250E+02  3.51356E+03
 -1.72292E+03  3.27381E+03 -3.54849E+03 -4.27934E+02 -4.54060E+03 -2.92479E+03 -6.60926E+02 -4.83806E+03
  2.35536E+03 -4.54449E+03  4.77612E+03 -1.54772E+03  5.74289E+03  4.16093E+02  3.24873E+03  4.02126E+03
  1.36849E+03  4.00197E+03 -2.92994E+03  3.97174E+03 -1.67080E+03  1.76362E+03 -1.06212E+03 -2.30542E+02
 -2.39232E+03 -4.91370E+02 -6.75070E+02  2.84772E+02 -2.46376E+03  1.23672E+02 -3.22528E+03 -1.88158E+03
 -4.66517E+03 -2.31197E+03 -1.53601E+03 -3.61957E+03  2.07408E+02 -5.16646E+03  2.75198E+03 -2.53483E+03
  4.51535E+03  1.62534E+02  1.01925E+03  2.07296E+03 -2.68756E+03  3.23245E+03 -2.38833E+03  2.51668E+03
