 $NMID ID='MM_0lb_SNR200_12hz_g55_90.RAW', FMTDAT='(8E13.5)'
 TRAMP=1., VOLUME=1. $END
  3.09365E+05  1.12094E+03  3.36720E+05  2.50462E+05  8.55387E+04  3.38588E+05 -1.33746E+05  2.51390E+05
 -1.91486E+05  8.18413E+04 -1.12316E+05 -3.26040E+04  9.67896E+02 -4.91785E+04  5.39260E+04 -1.15099E+03
  3.51794E+04  5.43288E+04 -1.67692E+04  7.45439E+04 -5.97815E+04  6.39732E+04 -8.46863E+04  3.31017E+04
 -8.12789E+04 -1.19747E+04 -5.86872E+04 -5.26563E+04 -1.42375E+04 -6.94200E+04  2.88153E+04 -4.71733E+04
  3.96613E+04  4.04983E+03  1.69545E+04  4.83672E+04 -3.45629E+04  4.75543E+04 -6.84076E+04 -1.32337E+02
 -5.53471E+04 -5.68203E+04 -7.24864E+03 -7.80515E+04  3.37257E+04 -5.60057E+04  4.91895E+04 -1.70656E+04
  4.34368E+04  1.02481E+04  3.21170E+04  2.63026E+04  1.49105E+04  2.99605E+04 -5.16740E+03  2.81777E+04
 -2.27089E+04  1.33787E+04 -1.76639E+04 -5.50582E+03  7.02497E+03 -6.51168E+03  2.37592E+04  1.32223E+04
  6.77656E+03  3.66561E+04 -3.31532E+04  3.66317E+04 -6.64057E+04  2.49427E+02 -5.80479E+04 -4.24663E+04
 -1.33520E+04 -6.50127E+04  4.05266E+04 -4.71109E+04  6.12762E+04 -2.36871E+03  3.52092E+04  3.31064E+04
 -4.74931E+03  3.85753E+04 -3.03183E+04  1.82601E+04 -3.28191E+04 -5.83187E+03 -1.82962E+04 -1.28092E+04
 -8.52523E+03 -1.40050E+04 -9.72373E+02 -1.93779E+04  7.98094E+03 -2.36575E+04  1.64189E+04 -1.23161E+04
  9.36377E+03  5.47222E+03 -9.53570E+03  1.18138E+04 -2.26683E+04 -6.93231E+03 -9.14207E+03 -3.59221E+04
  2.43765E+04 -4.56238E+04  4.90633E+04 -2.09872E+04  4.68088E+04  2.03719E+04  1.66905E+04  4.49402E+04
 -1.56731E+04  3.48139E+04 -2.69686E+04  2.51672E+03 -1.02612E+04 -2.77878E+04  1.97461E+04 -3.47499E+04
  4.24825E+04 -1.01217E+04  3.65518E+04  2.52077E+04  2.02337E+04  4.88773E+04 -8.23033E+03  5.35767E+04
 -3.29988E+04  3.62969E+04 -4.53883E+04  1.10532E+04 -4.60770E+04 -1.67574E+04 -2.60644E+04 -3.93369E+04
  7.97798E+03 -3.92083E+04  3.22980E+04 -1.55870E+04  3.06204E+04  1.12072E+04  4.15281E+03  1.93268E+04
 -1.41789E+04  9.43917E+03 -1.09276E+04 -7.59831E+03  5.00731E+03 -1.10614E+04  1.71656E+04  6.23097E+03
  1.41771E+04  2.20842E+04 -5.13810E+03  2.71515E+04 -2.23204E+04  1.33486E+04 -3.18874E+04 -5.59846E+03
 -2.35579E+04 -1.68292E+04 -1.15109E+04 -2.26255E+04  4.15595E+03 -2.24463E+04  1.83424E+04 -2.04916E+04
  2.90209E+04 -1.34684E+04  3.51198E+04  3.03106E+03  2.59765E+04  2.17685E+04  4.78307E+03  3.92717E+04
 -1.86496E+04  3.29866E+04 -2.93807E+04  1.08264E+04 -2.14247E+04 -9.20376E+03 -4.34180E+03 -1.30186E+04
  1.63782E+03 -3.14042E+03 -7.28672E+03  7.76730E+03 -1.83112E+04  5.25279E+03 -1.76945E+04 -8.46166E+03
 -1.21242E+04 -2.10558E+04  4.51357E+03 -2.50354E+04  1.71838E+04 -1.89820E+04  2.03496E+04 -2.77099E+03
  1.24163E+04  1.50631E+04 -2.00865E+03  2.11059E+04 -1.49783E+04  1.14448E+04 -2.11214E+04 -4.59086E+03
 -1.48962E+04 -1.82928E+04 -1.47171E+03 -2.44376E+04  1.11382E+04 -2.27756E+04  2.03352E+04 -1.04435E+04
  1.91266E+04  9.75007E+01  1.49421E+04  4.46225E+03  6.75973E+03  1.12213E+03  1.06317E+04 -2.58671E+03
  2.01658E+04  1.76933E+03  2.34141E+04  1.61435E+04  1.52002E+04  3.44475E+04 -2.11148E+03  3.98204E+04
 -2.36829E+04  3.19625E+04 -3.66641E+04  1.64188E+04 -3.85322E+04 -3.43728E+03 -3.29133E+04 -2.21422E+04
 -1.34330E+04 -3.10424E+04  1.01077E+04 -2.84303E+04  2.39791E+04 -1.35904E+04  2.22401E+04  6.02121E+03
  7.84610E+03  1.60176E+04 -1.21482E+04  1.37835E+04 -1.80249E+04  1.70589E+03 -1.35315E+04 -1.14991E+04
 -2.04252E+03 -1.80498E+04  1.07316E+04 -1.28239E+04  1.10540E+04 -1.42418E+03  2.24707E+03  7.65193E+03
 -7.19877E+03  2.59608E+03 -8.46742E+03 -5.87132E+03 -1.80646E+03 -1.49006E+04  1.04509E+04 -1.67380E+04
  1.86655E+04 -9.78740E+03  2.13327E+04  2.58123E+03  2.00867E+04  1.67738E+04  9.27292E+03  2.53127E+04
 -5.06795E+03  2.79636E+04 -1.74736E+04  1.56302E+04 -1.89690E+04  4.10257E+03 -1.39762E+04 -4.93189E+03
 -6.19776E+03 -6.40973E+03  6.69940E+02 -3.71983E+02 -3.11473E+03  2.94971E+03 -6.22915E+03  5.04674E+03
 -1.14462E+04 -4.02693E+02 -1.29384E+04 -8.45883E+03 -4.29680E+03 -1.73036E+04  4.52999E+03 -1.42468E+04
  1.22669E+04 -4.91357E+03  7.53529E+03  3.35991E+03 -3.45475E+02  5.35409E+03 -7.55066E+03  1.86704E+01
 -5.58477E+03 -8.98647E+03 -2.68120E+02 -1.35337E+04  7.47210E+03 -1.36193E+04  1.67809E+04 -8.73865E+03
  1.92327E+04  1.55617E+03  1.54520E+04  1.30527E+04  1.27557E+03  1.61323E+04 -9.33667E+03  1.37372E+04
 -9.77303E+03  3.21174E+03 -5.38240E+03 -6.31119E+02  2.06584E+03 -4.00801E+03  7.97159E+03 -1.12694E+03
  6.95897E+03  6.38918E+03  8.17733E+02  1.17221E+04 -7.59401E+03  9.42179E+03 -1.34210E+04  1.70095E+03
 -6.97525E+03 -7.30623E+03 -5.17470E+02 -1.03191E+04  8.76494E+03 -4.81324E+03  8.09986E+03  2.29189E+03
  1.83662E+03  9.16957E+03 -5.54298E+03  8.70789E+03 -1.02098E+04  4.16250E+03 -1.21567E+04 -4.37758E+03
 -6.55116E+03 -1.22505E+04  4.01868E+03 -1.44467E+04  1.17940E+04 -7.89535E+03  1.28653E+04  1.18024E+03
  8.22129E+03  9.27648E+03 -5.94391E+02  1.32198E+04 -8.91200E+03  5.73060E+03 -9.44303E+03 -1.73592E+03
 -8.50614E+03 -8.96039E+03 -1.60073E+03 -9.28118E+03  4.27681E+03 -7.69123E+03  6.20537E+03 -4.03912E+03
  3.03243E+03  2.55015E+03  8.19004E+02  1.89562E+03 -7.65695E+01 -2.10093E+03  1.50071E+03 -6.72965E+03
  9.22947E+03 -4.06788E+03  1.27416E+04  6.92417E+02  1.19972E+04  8.11733E+03  7.61462E+03  1.63545E+04
 -4.83774E+03  1.90816E+04 -1.65973E+04  1.33955E+04 -2.07108E+04  3.39693E+03 -1.63293E+04 -6.95125E+03
 -8.08948E+03 -1.35529E+04  1.02194E+02 -1.18543E+04  4.34929E+03 -6.72627E+03  3.44705E+03 -4.55691E+03
  2.15638E+03 -2.64015E+03  4.61471E+03 -4.71649E+03  3.85533E+03 -2.84559E+03  7.31607E+03 -1.94755E+03
  7.50487E+03  1.64760E+03  4.09740E+03  6.49681E+03 -2.91005E+03  8.71057E+03 -7.55055E+03  5.88560E+03
 -1.03965E+04 -3.30933E+00 -6.22720E+03 -8.90678E+03 -8.47237E+02 -1.06617E+04  7.08934E+03 -1.18179E+04
  1.15137E+04 -7.04132E+03  1.48542E+04  2.56535E+03  9.05259E+03  1.03299E+04  1.43558E+03  1.34403E+04
 -3.63328E+03  1.20099E+04 -8.62890E+03  3.05552E+03 -5.29727E+03 -8.89809E+02 -2.63911E+03 -7.85720E+02
 -6.01913E+02  4.03139E+02 -1.22796E+03  2.02959E+03 -4.45573E+03  2.61762E+03 -7.66487E+03 -1.21756E+03
 -5.59418E+03 -8.98697E+03 -2.24637E+02 -1.08900E+04  6.80575E+03 -1.08830E+04  1.04229E+04 -3.78676E+03
  1.11226E+04  5.77574E+03  6.34344E+03  9.42722E+03 -1.92091E+03  1.15729E+04 -8.90925E+03  5.95621E+03
 -9.69702E+03  9.53625E+02 -6.88168E+03 -7.62185E+03 -4.14269E+02 -7.89480E+03  4.55022E+03 -5.24330E+03
  6.74317E+03 -2.91978E+03  3.29973E+03  1.59811E+03  2.03867E+03  3.00576E+03 -1.26335E+02  7.62325E+02
  2.03941E+03  2.17024E+02  3.06159E+03  1.63190E+03  3.49978E+03  4.24034E+03  2.66445E+03  5.77438E+03
 -2.17912E+03  7.50731E+03 -7.55947E+03  7.21699E+03 -1.12002E+04  3.30544E+03 -1.04390E+04 -3.92002E+03
 -5.14938E+03 -1.15339E+04  5.84834E+02 -1.27168E+04  6.18507E+03 -6.44724E+03  9.35840E+03 -2.12737E+03
  6.53521E+03  3.97682E+03  1.60177E+03  4.94679E+03 -1.62889E+03  4.16075E+03 -4.31845E+03 -1.33098E+03
 -1.94091E+03 -4.40800E+03  2.37128E+03 -5.04009E+03  3.87053E+03 -2.86977E+03  3.74126E+03  1.45438E+03
  1.85722E+03  2.77954E+03 -4.41170E+02  2.65549E+03  2.52521E+01  3.32268E+03  2.27641E+03 -1.16868E+03
  4.02740E+02 -5.18223E+02  4.71706E+03  1.51495E+03  2.36359E+03  6.97731E+03  2.35741E+02  7.77450E+03
 -5.41707E+03  4.87881E+03 -6.77912E+03  5.02557E+02 -6.86429E+03 -1.71500E+03 -3.11452E+03 -3.85619E+03
  1.08760E+03 -5.00923E+03  2.78345E+03 -8.00896E+02  2.39566E+03  2.81559E+03 -1.20809E+03  3.44338E+03
 -4.71364E+03  7.95880E+02 -4.93984E+03 -1.74688E+03 -2.90287E+03 -5.95281E+03 -7.51576E+01 -3.20523E+03
  2.61176E+03 -2.20397E+03  3.84575E+03  3.67300E+02  4.38148E+03  1.72535E+02 -3.02051E+02  3.93274E+03
 -2.20215E+03  6.89382E+02 -2.96198E+03 -2.00722E+03  1.38492E+03 -3.69467E+03  5.01432E+03 -3.09017E+03
  6.52233E+03  5.90155E+02  5.42681E+03  4.03012E+03  1.98115E+03  7.16518E+03 -1.97218E+03  5.84580E+03
 -5.84189E+03  2.19140E+03 -5.50330E+03 -1.33177E+03 -2.36289E+03 -4.51658E+03  3.87560E+02 -4.50932E+03
  4.47836E+03 -3.23143E+03  2.87307E+03  7.45502E+02  1.73910E+03  3.40087E+03 -5.06021E+02  3.83589E+03
 -1.96947E+03  1.42920E+03 -1.53222E+03  5.62348E+02 -1.35763E+03 -5.39284E+01 -1.82886E+03  1.29322E+03
 -2.30605E+03  1.59038E+03 -4.41028E+03  4.05942E+03 -5.40989E+03 -3.72949E+02 -7.88758E+03 -4.86767E+03
 -2.17269E+03 -8.08785E+03  1.04007E+03 -9.34622E+03  6.66016E+03 -7.12703E+03  8.10511E+03 -4.07665E+03
  8.24076E+03  1.27615E+03  3.75146E+03  5.98721E+03  5.66876E+02  5.57962E+03 -2.42368E+03  4.96210E+03
 -3.43004E+03  1.55609E+03 -3.64319E+03 -1.36458E+02  7.82463E+01 -8.83168E+02 -1.12294E+03  4.59882E+02
 -2.03528E+03  1.25799E+03 -1.24134E+03 -6.49220E+02 -3.17190E+02 -1.28113E+03 -9.27702E+02 -2.25990E+03
  3.05427E+03 -2.90586E+03  3.54930E+03 -2.93174E+02  3.98845E+03  4.88501E+03  4.89811E+02  4.97706E+03
 -2.42870E+03  5.32277E+03 -5.86925E+03  4.54836E+03 -8.39385E+03 -1.88916E+03 -5.60201E+03 -4.72507E+03
 -3.40808E+03 -6.22715E+03  2.69751E+03 -5.61026E+03  4.49110E+03 -3.33333E+03  4.52044E+03  1.00310E+03
  2.60433E+03  1.40672E+03  4.25203E+02  1.26927E+03 -1.87761E+03  9.84184E+02  2.20617E+02 -2.62511E+03
  8.71208E+02 -3.42268E+02  2.84881E+03  1.79438E+02  9.32719E+02  2.73308E+03 -4.64178E+02  2.88098E+03
 -2.60615E+03  2.63988E+03 -4.36785E+03  1.55820E+03 -2.97797E+03 -3.26687E+03 -6.78847E+02 -4.64642E+03
  1.86712E+03 -3.41750E+03  4.45444E+03  4.21196E+02  5.74369E+03  1.09688E+03  3.05102E+03  4.56816E+03
 -3.50132E+02  3.55325E+03 -1.64583E+03  4.01780E+03 -2.63869E+03  2.43699E+03 -2.02408E+03  1.83491E+02
 -9.74676E+02  3.45930E+02 -1.31432E+03 -6.61332E+02 -2.10401E+03  4.86994E+02 -2.76367E+03 -3.58168E+02
 -3.56190E+03 -2.98305E+03 -1.90464E+03 -3.78963E+03  2.58275E+03 -5.51941E+03  3.52384E+03 -1.65284E+03
  3.39529E+03  3.57840E+02  9.97616E+02  2.63937E+03  9.14902E+02  3.35368E+03 -3.55235E+03  2.53107E+03
