 $NMID ID='MM_0lb_SNR200_13hz_g50_59.RAW', FMTDAT='(8E13.5)'
 TRAMP=1., VOLUME=1. $END
  3.08793E+05  1.28081E+03  3.38098E+05  2.51674E+05  8.57033E+04  3.38292E+05 -1.31857E+05  2.52023E+05
 -1.90638E+05  8.32437E+04 -1.12901E+05 -3.27870E+04  1.51494E+03 -5.02223E+04  5.49604E+04 -2.14387E+03
  3.64014E+04  5.37495E+04 -1.80002E+04  7.64084E+04 -6.21885E+04  6.25364E+04 -8.51930E+04  3.16602E+04
 -8.17939E+04 -1.11881E+04 -5.65197E+04 -5.03055E+04 -1.53539E+04 -6.99625E+04  2.84194E+04 -4.73686E+04
  4.16042E+04  3.32017E+03  1.55752E+04  4.82215E+04 -3.32314E+04  4.84521E+04 -6.75948E+04  7.72157E+01
 -5.33327E+04 -5.53406E+04 -7.71409E+03 -7.80813E+04  3.31981E+04 -5.52456E+04  4.93160E+04 -1.83259E+04
  4.43747E+04  1.17415E+04  3.24407E+04  2.60262E+04  1.44432E+04  2.89404E+04 -5.04111E+03  2.60887E+04
 -2.15308E+04  1.20100E+04 -1.78149E+04 -5.29595E+03  6.11264E+03 -7.24074E+03  2.17804E+04  1.31778E+04
  6.43921E+03  3.58004E+04 -3.16704E+04  3.49945E+04 -6.32523E+04  2.40022E+03 -5.84403E+04 -4.33054E+04
 -1.24945E+04 -6.35128E+04  3.98318E+04 -4.61341E+04  5.72302E+04 -2.33483E+03  3.47500E+04  3.18955E+04
 -6.43348E+03  3.64160E+04 -3.11118E+04  1.74925E+04 -2.99014E+04 -3.81976E+03 -1.78301E+04 -1.15366E+04
 -8.94703E+03 -1.39119E+04 -1.93732E+03 -1.76870E+04  8.35947E+03 -2.16944E+04  1.44524E+04 -1.25303E+04
  1.17022E+04  4.70032E+03 -8.78102E+03  1.25616E+04 -2.19286E+04 -4.57488E+03 -9.58444E+03 -3.49888E+04
  2.31542E+04 -4.45868E+04  4.82840E+04 -1.90533E+04  4.61046E+04  1.96321E+04  1.60045E+04  4.45695E+04
 -1.67040E+04  3.42568E+04 -2.56735E+04  1.62413E+03 -1.06874E+04 -2.80295E+04  2.07212E+04 -3.45383E+04
  4.13327E+04 -9.46067E+03  3.58272E+04  2.52438E+04  1.89157E+04  4.83544E+04 -9.04334E+03  5.10504E+04
 -3.26056E+04  3.42086E+04 -4.19125E+04  9.09186E+03 -4.39351E+04 -1.70120E+04 -2.27584E+04 -3.79623E+04
  7.66063E+03 -3.85654E+04  3.22680E+04 -1.51809E+04  2.97910E+04  1.08848E+04  4.13719E+03  1.85682E+04
 -1.36967E+04  9.30376E+03 -1.00884E+04 -7.44858E+03  5.84032E+03 -1.09336E+04  1.76226E+04  6.05863E+03
  1.48971E+04  2.27611E+04 -6.12333E+03  2.71868E+04 -2.26093E+04  1.25457E+04 -2.72216E+04 -4.37446E+03
 -2.15540E+04 -1.57436E+04 -8.62078E+03 -2.19030E+04  3.00157E+03 -2.03298E+04  1.70190E+04 -1.82626E+04
  2.78673E+04 -1.21805E+04  3.34799E+04  2.66999E+03  2.52654E+04  2.15686E+04  3.62317E+03  3.93381E+04
 -1.76989E+04  3.05732E+04 -2.83236E+04  1.09470E+04 -2.07908E+04 -1.02992E+04 -4.90202E+03 -1.25490E+04
  1.81739E+03 -2.88380E+03 -5.45377E+03  6.33508E+03 -1.71850E+04  6.29513E+03 -1.74889E+04 -7.64337E+03
 -1.09170E+04 -2.11309E+04  4.70029E+03 -2.30111E+04  1.49320E+04 -1.77706E+04  1.83375E+04 -1.34830E+03
  1.22841E+04  1.39540E+04 -9.31909E+02  2.05116E+04 -1.31379E+04  1.17889E+04 -2.04677E+04 -4.58638E+03
 -1.43695E+04 -1.77090E+04 -2.02149E+03 -2.31310E+04  1.02834E+04 -1.96109E+04  2.04697E+04 -9.86833E+03
  1.90995E+04  9.84217E+02  1.33616E+04  5.03282E+03  7.51835E+03  1.26782E+03  1.10676E+04 -1.88343E+03
  1.94111E+04  2.13569E+03  1.99276E+04  1.68878E+04  1.33174E+04  3.17811E+04 -1.85556E+03  3.63653E+04
 -2.02029E+04  2.88881E+04 -3.45821E+04  1.45200E+04 -3.53147E+04 -1.48729E+03 -3.05884E+04 -2.09978E+04
 -1.35522E+04 -3.00298E+04  9.56144E+03 -2.75076E+04  2.35375E+04 -1.36932E+04  2.00795E+04  6.08965E+03
  8.62171E+03  1.42117E+04 -8.31974E+03  1.30483E+04 -1.74421E+04  2.36191E+03 -1.30301E+04 -1.08862E+04
  3.16404E+01 -1.78472E+04  8.96131E+03 -1.05009E+04  1.12427E+04 -1.43397E+03  1.94840E+03  7.16171E+03
 -5.41093E+03  2.32660E+03 -7.21051E+03 -6.59455E+03 -1.79341E+03 -1.54322E+04  1.00919E+04 -1.47188E+04
  1.74592E+04 -8.33818E+03  1.91632E+04  2.83179E+03  1.62949E+04  1.51620E+04  7.41388E+03  2.19201E+04
 -3.06840E+03  2.38710E+04 -1.39647E+04  1.56170E+04 -1.76110E+04  2.77313E+03 -1.20249E+04 -2.28680E+03
 -6.19393E+03 -5.59351E+03 -5.89554E+02  5.75933E+02 -2.01111E+03  2.88786E+03 -5.32597E+03  4.36849E+03
 -1.23613E+04 -3.95593E+02 -1.31003E+04 -1.01012E+04 -5.18996E+03 -1.69941E+04  5.31085E+03 -1.21951E+04
  1.09171E+04 -4.52841E+03  6.85986E+03  3.54561E+03 -1.41316E+02  6.23564E+03 -6.62885E+03 -1.12806E+02
 -6.84683E+03 -7.15142E+03 -7.34911E+02 -1.16774E+04  6.11125E+03 -1.23946E+04  1.40043E+04 -6.35078E+03
  1.75175E+04  2.33332E+03  1.25770E+04  1.05363E+04  2.56474E+03  1.41527E+04 -7.15189E+03  1.14748E+04
 -8.33806E+03  3.16679E+03 -5.24647E+03 -3.23699E+03  1.70751E+03 -1.73551E+03  7.69217E+03 -1.34315E+03
  5.86318E+03  6.01886E+03  1.91880E+02  9.48200E+03 -5.76469E+03  7.99670E+03 -1.10608E+04  4.46147E+02
 -7.68236E+03 -5.82978E+03 -6.69308E+02 -9.59057E+03  6.05355E+03 -4.70515E+03  6.83689E+03  1.80933E+03
  1.57000E+03  7.36630E+03 -6.68246E+03  8.27085E+03 -1.00623E+04  4.29370E+03 -7.76712E+03 -2.35590E+03
 -5.22096E+03 -1.03727E+04  2.04171E+03 -1.31242E+04  1.06120E+04 -7.95592E+03  1.24614E+04  2.24305E+03
  7.68593E+03  8.87533E+03 -1.31536E+03  1.01802E+04 -7.64844E+03  6.59885E+03 -9.89321E+03  6.44478E+01
 -9.10402E+03 -8.62330E+03 -2.06584E+03 -7.68448E+03  3.72282E+03 -7.98680E+03  5.61432E+03 -4.21468E+03
  4.18365E+03  1.80058E+03 -1.97501E+02  1.26639E+03 -8.02033E+02 -1.38285E+03  2.70700E+03 -4.69490E+03
  6.84254E+03 -2.69287E+03  1.02628E+04  1.17846E+03  8.77934E+03  7.92580E+03  6.46031E+03  1.51490E+04
 -3.12532E+03  1.64009E+04 -1.47609E+04  1.23440E+04 -1.85168E+04  1.70022E+03 -1.31805E+04 -5.93100E+03
 -7.03771E+03 -1.28470E+04  1.22804E+03 -1.10790E+04  3.50572E+03 -5.63715E+03  5.24805E+03 -3.46937E+03
  2.04965E+03 -2.05917E+03  1.13897E+03 -3.82649E+03  4.47761E+03 -2.86472E+03  3.99606E+03 -9.70132E+02
  6.42724E+03  1.53239E+03  3.86640E+03  6.94930E+03 -2.52766E+03  6.80870E+03 -7.57681E+03  5.61469E+03
 -9.53806E+03  5.25545E+02 -6.51018E+03 -6.05330E+03 -8.43691E+02 -9.90768E+03  6.21081E+03 -1.11192E+04
  1.16075E+04 -5.56134E+03  1.30770E+04  1.41017E+03  9.17468E+03  9.26567E+03  1.24297E+03  1.12717E+04
 -3.51942E+03  1.02203E+04 -7.32235E+03  3.35580E+03 -4.24959E+03 -3.04100E+03 -1.81083E+03 -1.53326E+03
 -1.30555E+03  3.62540E+02 -9.80050E+02  2.50241E+03 -5.63576E+03  1.87480E+03 -7.14395E+03 -1.07742E+03
 -4.12871E+03 -5.55184E+03  3.10842E+02 -9.93900E+03  5.75865E+03 -8.04574E+03  8.08007E+03 -2.88969E+03
  8.08170E+03  5.07368E+03  3.83903E+03  8.33226E+03 -8.46940E+02  8.56687E+03 -7.08064E+03  5.95443E+03
 -7.74276E+03  1.11090E+03 -7.07329E+03 -5.91560E+03 -1.14716E+03 -7.36087E+03  3.70263E+03 -5.27505E+03
  6.12838E+03 -2.48394E+03  3.96331E+03  2.71410E+03  2.56287E+03  3.04789E+03  4.99008E+02  2.11708E+03
  1.64584E+03 -5.62176E+02  1.64733E+03  3.19713E+02  1.97477E+03  3.72751E+03  2.31314E+03  3.77293E+03
 -1.89289E+03  6.52476E+03 -5.92250E+03  7.07169E+03 -7.37011E+03  9.54895E+02 -8.99898E+03 -2.02770E+03
 -4.46403E+03 -8.27340E+03  1.53219E+03 -9.25459E+03  5.30950E+03 -6.15993E+03  7.47176E+03 -2.07003E+03
  5.28606E+03  4.73358E+03  1.32847E+03  4.05787E+03 -3.76284E+03  3.28572E+03 -3.64050E+03 -6.79108E+02
 -1.77985E+03 -3.90340E+03  2.24339E+03 -4.33316E+03  1.67792E+03 -1.63660E+03  3.26010E+03  1.58134E+03
  2.06967E+03  1.05253E+03  1.34481E+03  3.06657E+02 -2.89885E+02  7.15734E+02  1.46515E+03 -1.27706E+03
  6.76504E+02 -2.63756E+02  4.18211E+03  7.63178E+02  2.66952E+03  4.95566E+03 -1.14649E+03  6.61670E+03
 -4.60526E+03  4.05240E+03 -4.24814E+03  1.08740E+03 -6.11861E+03 -2.27790E+03 -2.13382E+03 -3.02680E+03
 -1.01491E+02 -3.21606E+03  2.19093E+03 -6.13221E+02  2.94864E+03  1.43966E+03 -1.84445E+03  3.54917E+03
 -3.75158E+03  2.01888E+03 -2.42398E+03 -1.98824E+03 -3.50665E+03 -4.19847E+03  6.01713E+02 -4.51364E+03
  3.21470E+03 -3.51548E+03  2.98491E+03  4.50214E+02  2.53369E+03  1.77402E+03  1.11857E+02  1.15292E+03
 -8.79107E+02  1.30970E+03 -2.49884E+03 -5.39396E+02  9.47701E+02 -3.01999E+03  3.96860E+03 -2.64736E+03
  4.54816E+03  5.36880E+02  5.54790E+03  1.80569E+03  1.46049E+03  5.42646E+03 -5.82634E+02  5.45098E+03
 -4.75246E+03  3.15833E+03 -4.00289E+03  1.20345E+02 -2.37847E+03 -3.43043E+03  1.64880E+03 -2.57037E+03
  3.19911E+03  3.46767E+02  2.20071E+03  1.34390E+03  1.19658E+03  2.48372E+03  9.26961E+02  2.67948E+03
 -1.37532E+03  7.70564E+02 -9.49116E+02  1.37424E+03  2.12927E+02  4.73505E+02 -1.15545E+03  8.96175E+02
 -1.60276E+03  2.12549E+03 -3.33858E+03  1.61024E+03 -3.49903E+03 -9.84443E+02 -5.37738E+03 -4.60423E+03
 -1.57178E+03 -5.79404E+03  1.65112E+03 -6.93645E+03  3.36561E+03 -5.32288E+03  9.27685E+03 -3.09065E+03
  5.71516E+03 -4.94748E+02  4.01575E+03  3.11976E+03 -2.52155E+02  5.19301E+03 -2.23138E+03  4.16697E+03
 -2.63893E+03  2.44026E+03 -1.46410E+03  9.16399E+02 -1.13687E+03 -7.58935E+02 -1.42573E+02  2.01544E+02
 -8.25357E+02 -1.05888E+03 -1.50571E+03  3.27780E+02 -2.80749E+02 -8.37744E+01 -1.34430E+02 -2.04644E+03
  2.59569E+03 -1.51637E+03  2.76879E+03  8.08341E+02  2.90345E+03  2.66952E+03  1.64310E+02  4.14417E+03
 -3.31709E+03  5.56172E+03 -5.40011E+03  3.52749E+03 -6.36243E+03 -8.70418E+02 -4.56875E+03 -4.06232E+03
 -2.90669E+03 -5.19920E+03  1.07467E+03 -4.19867E+03  3.44128E+03 -1.98044E+03  3.36847E+03 -2.90447E+02
  2.05212E+03 -3.37942E+02  2.72433E+02  1.13977E+03 -4.58128E+02  4.38873E+02  5.57487E+02 -1.00058E+03
  2.93880E+03 -7.34180E+02  1.37700E+03  1.32498E+03  4.58407E+02  1.10836E+03  1.77593E+02  2.00361E+03
 -2.13436E+03  3.34760E+03 -2.12476E+03  4.35811E+02 -1.77183E+03 -2.61599E+03 -3.02795E+02 -4.14181E+03
  2.25799E+03 -3.52888E+03  3.06003E+03 -1.57108E+03  3.43162E+03  2.67526E+02  1.31377E+03  2.97273E+03
 -2.29170E+02  3.49295E+03 -1.01783E+03  1.99416E+03 -1.28216E+03 -1.20013E+02 -2.03939E+03  1.04983E+03
  8.60376E+01  7.64212E+02 -1.44443E+03  9.73830E+02 -1.17491E+03  4.50061E+02 -2.82084E+03 -1.04167E+03
 -1.85891E+03 -1.53155E+03  4.74995E+01 -2.09183E+03  2.32905E+03 -3.09059E+03  3.51396E+03 -7.83516E+02
  2.61338E+03  1.37803E+03  1.34177E+03  3.88501E+03 -4.39447E+01  2.64577E+03 -6.82726E+02  2.10139E+03
