 $NMID ID='MM_0lb_SNR200_16hz_g40_46.RAW', FMTDAT='(8E13.5)'
 TRAMP=1., VOLUME=1. $END
  3.10018E+05  1.71853E+02  3.37622E+05  2.49396E+05  8.43012E+04  3.37421E+05 -1.32513E+05  2.49786E+05
 -1.91125E+05  8.24593E+04 -1.11947E+05 -3.31422E+04  5.68026E+02 -4.95006E+04  5.47236E+04 -1.16642E+03
  3.56973E+04  5.29106E+04 -1.72925E+04  7.50435E+04 -5.99093E+04  6.34603E+04 -8.41852E+04  3.08822E+04
 -7.95210E+04 -1.08482E+04 -5.49258E+04 -5.18675E+04 -1.37124E+04 -6.87251E+04  2.71863E+04 -4.48116E+04
  3.92017E+04  4.27511E+03  1.59618E+04  4.75699E+04 -3.41162E+04  4.61545E+04 -6.61833E+04 -3.35346E+02
 -5.25645E+04 -5.60361E+04 -5.95143E+03 -7.50871E+04  3.40783E+04 -5.41108E+04  4.76310E+04 -1.65405E+04
  4.23413E+04  1.15637E+04  3.10306E+04  2.50310E+04  1.50795E+04  2.95205E+04 -4.57421E+03  2.70974E+04
 -2.27239E+04  1.32345E+04 -1.89452E+04 -5.83733E+03  5.34054E+03 -8.60796E+03  2.15959E+04  1.16999E+04
  8.92420E+03  3.35524E+04 -3.20696E+04  3.44493E+04 -6.22687E+04  2.36032E+03 -5.62641E+04 -4.12509E+04
 -1.22236E+04 -6.09455E+04  3.83589E+04 -4.42391E+04  5.52715E+04 -9.24801E+02  3.27461E+04  3.16293E+04
 -7.71260E+03  3.27228E+04 -2.87059E+04  1.43066E+04 -2.95744E+04 -5.21961E+03 -1.57314E+04 -9.81698E+03
 -7.58209E+03 -1.14130E+04 -6.65365E+02 -1.70164E+04  7.02663E+03 -2.30448E+04  1.55423E+04 -1.43400E+04
  1.31108E+04  3.29092E+03 -6.36305E+03  1.31072E+04 -2.05523E+04 -2.45851E+03 -7.63348E+03 -3.12595E+04
  2.24502E+04 -4.16790E+04  4.52144E+04 -1.90941E+04  4.21897E+04  1.91590E+04  1.40993E+04  4.19941E+04
 -1.66409E+04  3.11382E+04 -2.37624E+04  1.80106E+03 -8.43352E+03 -2.74134E+04  2.09935E+04 -3.08525E+04
  3.90009E+04 -6.77213E+03  3.28014E+04  2.24834E+04  1.61697E+04  4.31553E+04 -7.65538E+03  4.67229E+04
 -2.90429E+04  3.13262E+04 -3.89561E+04  8.42617E+03 -3.90577E+04 -1.53097E+04 -2.27464E+04 -3.46231E+04
  8.12723E+03 -3.43687E+04  2.93343E+04 -1.31694E+04  2.86434E+04  1.04424E+04  2.81436E+03  1.84185E+04
 -1.29044E+04  7.30320E+03 -1.03470E+04 -7.65855E+03  5.78343E+03 -1.00967E+04  1.71198E+04  5.30729E+03
  1.34225E+04  2.27852E+04 -5.91230E+03  2.49853E+04 -2.10190E+04  8.86758E+03 -2.48476E+04 -6.17015E+03
 -1.77185E+04 -1.79827E+04 -7.77437E+03 -1.86975E+04  2.92600E+03 -1.56237E+04  1.33298E+04 -1.63068E+04
  2.22842E+04 -1.16019E+04  2.97715E+04  1.81493E+03  2.29442E+04  1.67605E+04  4.09173E+03  3.29851E+04
 -1.60059E+04  2.83917E+04 -2.65293E+04  9.18842E+03 -1.99817E+04 -1.03058E+04 -4.51773E+03 -1.44933E+04
  2.70541E+03 -2.61463E+03 -3.93965E+03  6.51141E+03 -1.36075E+04  4.27007E+03 -1.41000E+04 -4.71690E+03
 -9.53904E+03 -1.75731E+04  4.80037E+03 -2.13289E+04  1.38482E+04 -1.53774E+04  1.57478E+04 -1.30995E+03
  1.00964E+04  1.15807E+04 -5.61607E+02  1.64646E+04 -1.19133E+04  8.59049E+03 -1.65930E+04 -3.93463E+03
 -1.26196E+04 -1.40993E+04 -8.56237E+02 -2.00539E+04  9.22530E+03 -1.70731E+04  1.76258E+04 -7.78649E+03
  1.55284E+04 -4.08008E+02  1.10811E+04  5.09480E+03  5.27891E+03  5.26736E+02  8.33645E+03 -1.88659E+03
  1.41212E+04  2.66749E+03  1.74059E+04  1.19171E+04  1.12275E+04  2.57992E+04 -3.54677E+03  2.95493E+04
 -1.67949E+04  2.22260E+04 -2.76379E+04  1.18503E+04 -2.82464E+04 -5.29479E+02 -2.42658E+04 -1.60984E+04
 -1.03271E+04 -2.19114E+04  9.03860E+03 -2.23980E+04  1.78144E+04 -1.07043E+04  1.57004E+04  4.00926E+03
  6.35245E+03  1.27515E+04 -7.44074E+03  1.02351E+04 -1.38770E+04  2.92656E+03 -1.17202E+04 -9.26480E+03
  3.37444E+01 -1.36010E+04  7.26405E+03 -9.24771E+03  9.00556E+03 -1.14643E+03  2.00424E+03  5.77909E+03
 -6.09851E+03  5.87438E+02 -3.63364E+03 -4.76479E+03  4.75562E+01 -1.18833E+04  9.29810E+03 -1.12953E+04
  1.25810E+04 -5.27730E+03  1.47477E+04  3.83295E+03  1.08759E+04  1.11601E+04  6.34761E+03  1.60259E+04
 -2.22874E+03  1.88726E+04 -9.70965E+03  1.06763E+04 -1.29582E+04  3.92969E+03 -8.33075E+03 -2.24098E+03
 -4.45836E+03 -2.89874E+03 -2.37327E+02  2.81229E+02 -2.91112E+03  2.62966E+03 -4.29833E+03  3.94468E+03
 -7.74685E+03 -1.11195E+03 -1.08732E+04 -7.23748E+03 -4.23276E+03 -1.24733E+04  3.45655E+03 -9.45739E+03
  8.78751E+03 -4.15341E+03  6.32007E+03  2.01636E+03 -2.80246E+02  3.51762E+03 -3.85868E+03  1.28007E+03
 -2.82115E+03 -5.91574E+03 -4.37820E+02 -8.07520E+03  3.71602E+03 -9.11101E+03  1.14217E+04 -4.37321E+03
  1.35379E+04  4.18233E+02  1.00138E+04  7.08695E+03  1.62040E+03  1.04078E+04 -6.88649E+03  9.85232E+03
 -8.12013E+03  2.78879E+03 -4.16393E+03 -3.28657E+02  1.18933E+03 -3.00187E+03  4.57990E+03 -1.07432E+03
  4.98105E+03  3.37009E+03  1.73585E+03  7.76098E+03 -4.26356E+03  7.01906E+03 -9.38621E+03  2.13211E+03
 -6.38904E+03 -5.25023E+03  1.30906E+02 -7.32749E+03  3.84510E+03 -3.75126E+03  4.63809E+03  1.53546E+03
 -2.28264E+01  4.45663E+03 -5.11832E+03  5.06368E+03 -7.11875E+03  3.35894E+03 -6.48661E+03 -1.03714E+03
 -3.33692E+03 -7.16688E+03  2.39848E+03 -8.49200E+03  8.15662E+03 -4.07411E+03  7.50515E+03  1.60968E+03
  4.45957E+03  6.01001E+03 -2.60101E+02  7.38388E+03 -5.97302E+03  4.01032E+03 -6.57671E+03 -8.44509E+02
 -4.49859E+03 -5.21595E+03 -2.59243E+03 -6.71804E+03  2.95028E+03 -5.02639E+03  4.06750E+03 -4.12023E+03
  3.51960E+03  6.00679E+02  3.90809E+02  1.27398E+03 -2.94142E+02 -8.99551E+02 -5.46687E+02 -3.08432E+03
  4.98052E+03 -1.52426E+03  8.16040E+03  1.14006E+03  7.47920E+03  5.20027E+03  5.76368E+03  9.84571E+03
 -1.33009E+03  1.01886E+04 -1.00694E+04  8.63193E+03 -1.27877E+04  1.34690E+03 -8.59074E+03 -3.40302E+03
 -4.98599E+03 -8.09972E+03 -2.97882E+02 -7.15881E+03  2.16820E+03 -1.91827E+03  3.52354E+03 -2.68771E+03
  8.88994E+02 -1.30798E+03  3.64832E+03 -2.61371E+03  3.85630E+03 -1.53038E+03  3.95787E+03  5.38521E+01
  5.19287E+03  8.49186E+02  1.85032E+03  3.85341E+03 -8.72234E+02  3.95223E+03 -6.03440E+03  3.86374E+03
 -5.94448E+03 -1.26384E+03 -1.37075E+03 -2.94793E+03 -8.38805E+02 -6.27058E+03  4.86284E+03 -6.82698E+03
  5.49121E+03 -4.09821E+03  8.48506E+03  6.05179E+02  5.04498E+03  5.21323E+03  1.85481E+03  7.55194E+03
 -1.94265E+03  7.27872E+03 -4.09292E+03  2.45654E+03 -2.57544E+03 -9.36113E+02 -9.19918E+02 -1.36313E+03
 -2.53548E+02  1.04758E+03 -1.67191E+03  1.90693E+03 -2.97366E+03  1.05597E+03 -5.47139E+03 -1.03926E+03
 -2.19713E+03 -5.57268E+03  1.59096E+03 -5.42937E+03  4.26142E+03 -6.17321E+03  5.20639E+03 -1.68020E+03
  5.15269E+03  2.72645E+03  3.07234E+03  4.79027E+03 -1.00819E+03  5.82461E+03 -3.05327E+03  3.59463E+03
 -4.58174E+03  7.91375E+02 -4.22422E+03 -3.56674E+03 -5.91905E+02 -5.46360E+03  2.50871E+03 -4.62121E+03
  2.76040E+03 -1.95990E+03  2.19760E+03  1.39294E+03  8.81986E+02  5.25422E+02  1.15661E+03  3.78928E+02
  2.56131E+03  5.05469E+02  8.80842E+02  1.28411E+03  1.49134E+03  3.03257E+03  1.71932E+03  1.82661E+03
 -1.56505E+03  4.75433E+03 -3.77365E+03  5.75125E+03 -5.76608E+03  8.26415E+02 -5.82820E+03 -2.40482E+03
 -2.76204E+03 -5.50841E+03  1.17046E+03 -6.28914E+03  2.11009E+03 -4.00815E+03  4.16877E+03 -1.51465E+03
  3.81643E+03  1.78241E+03  9.83793E+02  3.43136E+03 -5.37867E+02  1.90748E+03 -9.81612E+02 -1.51887E+03
 -1.49533E+03 -1.97886E+03  1.61947E+03 -1.89066E+03  6.05071E+02 -1.33634E+03  2.01973E+03  6.28283E+02
  1.02866E+03  1.25612E+03  1.03578E+03  1.03176E+03 -8.61744E+01  9.77661E+02  1.46465E+03  5.81005E+02
  7.70499E+02 -5.97276E+02  2.33602E+03  1.52101E+03  2.10530E+02  2.86253E+03  4.84362E+01  3.78924E+03
 -1.94552E+03  1.17055E+03 -2.53555E+03  2.01478E+03 -2.47551E+03 -1.21398E+03  2.38786E+01 -1.54175E+03
  1.26426E+03 -2.89579E+03  1.14640E+03 -8.98406E+02  5.50369E+02  1.07577E+03 -9.62506E+01  1.93664E+03
 -2.09673E+03  1.20471E+03 -1.80635E+03 -2.71228E+03 -6.43873E+02 -2.46843E+03  4.32363E+02 -1.91117E+03
  1.42331E+03 -9.57556E+02  8.54448E+02  2.26473E+02  9.12123E+02  2.84698E+02  1.74533E+02  2.21078E+03
 -2.01545E+03  5.52870E+02 -1.10435E+03 -1.46246E+02  3.00366E+02 -1.73112E+03  2.75386E+03 -2.07404E+03
  2.34100E+03 -5.03417E+02  3.86056E+03  1.92178E+03  1.35615E+03  1.86397E+03 -1.22637E+03  2.58246E+03
 -2.10641E+03  4.89859E+02 -1.83697E+03 -5.85677E+01 -1.70907E+03 -1.34006E+03  1.19566E+03 -1.60926E+03
  4.05040E+03 -1.16161E+03  1.85363E+03  9.07921E+02  6.42302E+02  1.33464E+03 -7.59701E+02  2.05451E+03
 -6.87466E+02  1.36209E+03  7.56634E+01  2.41509E+02 -1.15042E+02  2.88269E+02 -5.95370E+02  9.06146E+02
 -2.04266E+03  1.98303E+03 -2.80882E+03  1.47460E+03 -2.61415E+03  2.55328E+02 -3.70408E+03 -1.08530E+03
 -1.85293E+03 -3.79312E+03  2.46834E+02 -4.89082E+03  2.86548E+03 -4.39712E+03  5.02649E+03 -1.91216E+03
  3.65360E+03 -1.02153E+03  1.02242E+03  2.72496E+03 -1.19517E+03  2.80488E+03 -1.64171E+03  9.84674E+02
 -8.10911E+02  8.81246E+02 -6.09935E+02 -1.11698E+03  6.12760E+02  6.08055E+02 -1.54870E+03  4.18814E+02
 -1.16148E+03  8.54459E+01 -1.18098E+03 -2.54743E+02 -9.20794E+02 -1.04631E+03 -2.92042E+02 -5.11850E+02
  2.01478E+03 -1.24004E+03  2.15449E+03 -4.03249E+02  1.48516E+03  3.21213E+01 -3.31873E+01  1.98076E+03
 -7.63575E+02  4.06585E+03 -2.05664E+03  2.26186E+03 -2.51328E+03 -1.35797E+03 -1.90078E+03 -1.95050E+03
 -1.24469E+03 -2.08526E+03  2.55218E+02 -2.07089E+03  1.58756E+03 -1.94304E+02  1.92008E+03 -9.57203E+02
  3.69694E+02  1.90134E+03 -3.88878E+02 -1.95029E+02  4.81444E+02 -4.89862E+02 -3.25539E+02 -5.44797E+02
  6.92974E+02 -5.46467E+02  8.02029E+02  1.22739E+02  9.36629E+02  4.63774E+02 -5.69201E+01  1.43450E+03
 -7.37492E+02  1.06348E+03 -1.49081E+03 -3.36471E+02 -9.97614E+02 -2.13796E+03  5.25116E+02 -2.68951E+03
  4.83658E+01 -9.21413E+02  1.25365E+03 -3.08486E+02  2.46304E+03 -5.88910E+02  3.65227E+02  1.63261E+03
  2.84287E+02  1.23363E+03 -2.39911E+02  1.25344E+03 -1.20309E+03 -1.14507E+02 -8.84650E+02  7.49579E+02
 -1.63526E+03 -2.71376E+02 -6.96807E+02 -1.76188E+02 -1.02090E+03  1.09812E+03 -1.28085E+03 -8.70938E+02
 -4.24621E+02 -5.76826E+02 -1.24102E+03 -1.23886E+03  1.75927E+01 -1.90763E+03 -9.99416E+01 -4.37359E+02
  2.47768E+03  3.11514E+02 -9.96401E+02  2.26856E+03  4.36517E+02  1.98114E+03 -9.39880E+01  1.86616E+03
