 $NMID ID='MM_0lb_SNR200_18hz_g40_66.RAW', FMTDAT='(8E13.5)'
 TRAMP=1., VOLUME=1. $END
  3.08505E+05  7.71697E+02  3.37741E+05  2.50569E+05  8.48945E+04  3.36672E+05 -1.32936E+05  2.50226E+05
 -1.89788E+05  8.08330E+04 -1.10272E+05 -3.26279E+04  1.09676E+03 -5.05873E+04  5.41465E+04  4.13690E+02
  3.52727E+04  5.24600E+04 -1.60523E+04  7.52402E+04 -6.16193E+04  6.31810E+04 -8.21189E+04  3.19879E+04
 -7.95250E+04 -1.18175E+04 -5.62817E+04 -4.98967E+04 -1.44777E+04 -6.75735E+04  2.75402E+04 -4.46556E+04
  3.94966E+04  3.85368E+03  1.55495E+04  4.61934E+04 -3.36268E+04  4.53993E+04 -6.51560E+04 -7.16983E+01
 -5.13165E+04 -5.56083E+04 -6.69114E+03 -7.59917E+04  3.35628E+04 -5.35044E+04  4.63525E+04 -1.69393E+04
  4.14753E+04  1.14806E+04  3.04390E+04  2.39526E+04  1.57392E+04  2.85272E+04 -3.74015E+03  2.62763E+04
 -2.14466E+04  1.23556E+04 -1.82392E+04 -4.67452E+03  3.69423E+03 -7.49837E+03  2.11951E+04  1.09628E+04
  7.42843E+03  3.23939E+04 -2.96240E+04  3.31039E+04 -6.08805E+04  2.00123E+03 -5.51355E+04 -4.18908E+04
 -1.28741E+04 -6.06254E+04  3.79817E+04 -4.32136E+04  5.51459E+04 -1.23363E+03  3.13959E+04  2.96234E+04
 -6.89729E+03  3.22872E+04 -2.92766E+04  1.38112E+04 -2.75868E+04 -6.47129E+03 -1.39430E+04 -9.75387E+03
 -6.96165E+03 -1.16365E+04 -1.08348E+03 -1.75110E+04  6.43158E+03 -2.21335E+04  1.42341E+04 -1.36275E+04
  1.23084E+04  4.10602E+03 -6.71255E+03  1.30114E+04 -1.88207E+04 -1.91728E+03 -8.10517E+03 -2.98785E+04
  2.10270E+04 -4.08957E+04  4.48563E+04 -1.88112E+04  4.19804E+04  1.81628E+04  1.44184E+04  4.24352E+04
 -1.67043E+04  3.07249E+04 -2.37139E+04  6.94475E+02 -8.56029E+03 -2.53768E+04  2.11448E+04 -3.07334E+04
  3.65629E+04 -6.85383E+03  3.16402E+04  2.17673E+04  1.44936E+04  4.20373E+04 -7.84710E+03  4.52551E+04
 -2.81838E+04  2.74910E+04 -3.73365E+04  7.60291E+03 -3.80947E+04 -1.46102E+04 -2.26500E+04 -3.44927E+04
  7.31807E+03 -3.38297E+04  2.80389E+04 -1.40748E+04  2.60018E+04  1.07274E+04  3.21365E+03  1.70884E+04
 -1.33981E+04  7.18563E+03 -8.46532E+03 -8.09884E+03  5.61738E+03 -1.00682E+04  1.71656E+04  6.02704E+03
  1.16355E+04  2.08977E+04 -7.47249E+03  2.31350E+04 -2.10270E+04  9.92827E+03 -2.58273E+04 -5.37749E+03
 -1.56584E+04 -1.65527E+04 -5.65105E+03 -1.64601E+04  3.78655E+03 -1.41365E+04  1.21034E+04 -1.53461E+04
  2.16919E+04 -1.18916E+04  2.71595E+04  2.36981E+03  2.03540E+04  1.53528E+04  4.46205E+03  3.25446E+04
 -1.58369E+04  2.74546E+04 -2.51709E+04  8.33922E+03 -1.91086E+04 -1.02981E+04 -5.07572E+03 -1.36686E+04
  3.02532E+03 -3.72951E+03 -2.30087E+03  6.10706E+03 -1.32923E+04  4.60202E+03 -1.31038E+04 -3.80982E+03
 -8.15615E+03 -1.52041E+04  4.54910E+03 -2.02127E+04  1.32012E+04 -1.41948E+04  1.42626E+04 -2.11360E+03
  7.79386E+03  1.02985E+04 -7.15747E+02  1.50027E+04 -1.04324E+04  9.11773E+03 -1.58563E+04 -2.39523E+03
 -1.17275E+04 -1.35972E+04 -2.00506E+03 -1.88721E+04  8.35151E+03 -1.51501E+04  1.57965E+04 -6.95926E+03
  1.46812E+04  1.91825E+03  1.07032E+04  4.23472E+03  5.99809E+03  8.56900E+02  7.15432E+03 -1.38910E+03
  1.39593E+04  2.67484E+03  1.56149E+04  1.33284E+04  7.94003E+03  2.50516E+04 -2.71546E+03  2.63538E+04
 -1.55363E+04  2.01950E+04 -2.45099E+04  8.83026E+03 -2.52160E+04 -1.76409E+03 -2.09323E+04 -1.33132E+04
 -1.01542E+04 -2.03096E+04  6.37744E+03 -1.89981E+04  1.68765E+04 -1.12470E+04  1.57821E+04  3.58948E+03
  5.82547E+03  1.00436E+04 -6.59742E+03  9.34662E+03 -1.29115E+04  2.92037E+03 -9.79435E+03 -6.90697E+03
  6.93385E+01 -1.18872E+04  5.70978E+03 -9.22366E+03  7.47619E+03 -6.24490E+02  1.10375E+03  4.32169E+03
 -5.12941E+03  2.60239E+03 -4.56464E+03 -3.74353E+03  1.98184E+02 -9.27464E+03  7.52136E+03 -8.98904E+03
  1.17501E+04 -4.79901E+03  1.11737E+04  2.15603E+03  1.10650E+04  9.03890E+03  4.74144E+03  1.40004E+04
 -2.17781E+03  1.59559E+04 -1.10621E+04  1.13387E+04 -1.09478E+04  3.10191E+03 -7.92929E+03 -1.62884E+03
 -4.95217E+03 -4.29105E+03 -3.97324E+02  1.78973E+03 -2.77328E+03  2.21692E+03 -3.14326E+03  3.96247E+03
 -7.96045E+03 -1.01771E+03 -8.26608E+03 -7.84398E+03 -4.39071E+03 -1.08025E+04  3.30367E+03 -8.38666E+03
  6.91039E+03 -3.78837E+03  4.77158E+03  1.97068E+03  7.03612E+02  3.02849E+03 -3.93711E+03 -8.45470E+02
 -4.04565E+03 -5.76992E+03 -8.38723E+02 -7.12131E+03  3.82569E+03 -8.07779E+03  9.61340E+03 -4.48385E+03
  1.12240E+04  1.38351E+03  8.80839E+03  6.37896E+03  2.29816E+03  8.61172E+03 -4.27059E+03  8.75854E+03
 -6.92370E+03  3.12102E+03 -2.90570E+03 -1.67509E+03  2.72105E+02 -2.32955E+03  4.51164E+03 -1.18068E+03
  4.75112E+03  1.96846E+03  1.36754E+02  6.94662E+03 -4.78514E+03  5.23614E+03 -7.94089E+03  1.16151E+03
 -4.24673E+03 -3.28939E+03  2.26403E+02 -6.56447E+03  4.36553E+03 -3.59968E+03  4.14824E+03  4.66243E+02
  4.75666E+02  3.01916E+03 -5.14482E+03  3.39297E+03 -4.57524E+03  2.20187E+03 -4.89149E+03 -1.29620E+03
 -3.26460E+03 -6.92181E+03  1.14563E+03 -5.77683E+03  5.65920E+03 -4.73171E+03  5.58025E+03  6.25080E+02
  3.42399E+03  4.92935E+03  8.22811E+02  6.30434E+03 -5.77606E+03  3.91578E+03 -5.16302E+03 -5.78295E+02
 -5.40359E+03 -5.44192E+03 -1.76311E+03 -4.89596E+03  2.98356E+03 -3.29955E+03  3.18779E+03 -3.20445E+03
  2.11516E+03 -5.70183E+02  3.09404E+02  1.60847E+03  7.97687E+02  2.77298E+02 -4.02374E+02 -2.31642E+03
  4.28465E+03 -2.26874E+02  5.65347E+03  1.33352E+03  5.01003E+03  2.88210E+03  4.96823E+03  6.71720E+03
 -9.92575E+02  7.70133E+03 -6.69914E+03  5.62253E+03 -1.03078E+04  1.52940E+03 -8.23802E+03 -2.20897E+03
 -3.44890E+03 -6.54704E+03 -4.22545E+02 -5.25752E+03  2.15908E+03 -1.45594E+03  2.58100E+03 -2.46956E+03
  1.68959E+03 -9.98746E+02  2.58240E+03 -3.06598E+03  2.00149E+03 -1.84794E+03  4.16939E+03  6.83482E+02
  3.81227E+03  1.78773E+03  9.97233E+02  2.97493E+03 -2.05359E+03  2.61124E+03 -4.40546E+03  2.92373E+03
 -4.70178E+03 -9.12032E+02 -1.95219E+03 -2.75772E+03  9.59051E+02 -5.83539E+03  3.07977E+03 -6.06380E+03
  5.23539E+03 -3.47855E+03  7.30355E+03  4.02718E+02  4.72395E+03  4.23013E+03  1.39896E+03  5.89774E+03
 -3.08569E+03  6.10413E+03 -3.30292E+03  2.86015E+01 -2.37600E+03 -1.22226E+03 -9.19031E+02 -7.96220E+02
 -1.17192E+03  4.84177E+02 -3.24909E+02  3.02255E+03 -1.81394E+03  7.18244E+02 -4.23598E+03 -8.97683E+02
 -1.16073E+03 -4.44484E+03  9.99718E+01 -4.45876E+03  1.94619E+03 -4.27783E+03  4.11969E+03 -9.02439E+02
  4.52872E+03  2.09243E+03  1.57130E+03  4.36105E+03 -9.76466E+02  4.73356E+03 -4.12039E+03  3.12544E+03
 -3.28331E+03  8.12166E+02 -3.49413E+03 -2.67198E+03 -3.66727E+02 -3.29056E+03  1.51962E+03 -2.71852E+03
  3.11380E+03  2.93238E+02  3.66830E+03  7.47381E+02  1.98219E+03  1.22415E+03  1.50181E+03  5.80300E+02
  1.46544E+03  1.61819E+03  1.73316E+03  2.24689E+03  9.55914E+02  2.27593E+03  2.15544E+03  2.51621E+03
 -1.56182E+03  3.24999E+03 -2.70427E+03  3.91147E+03 -3.89221E+03  1.15182E+03 -4.51617E+03 -6.04311E+02
 -1.81576E+03 -3.37993E+03  4.61616E+02 -3.76282E+03  2.25318E+03 -2.93444E+03  2.95433E+03 -1.47395E+03
  6.38929E+02  1.60268E+03  6.33800E+02  2.25493E+03 -9.52062E+02  6.08263E+02 -1.71120E+03 -2.96532E+02
 -7.81847E+02 -1.50542E+03  1.57394E+03 -1.23270E+03  1.24530E+03  2.72616E+02  7.88883E+02 -3.33821E+02
  7.65574E+02  4.09390E+02  7.04124E+02 -1.41549E+02 -2.66652E+02  6.17361E+02  1.83232E+03  1.70284E+02
  5.58978E+02 -3.75553E+02  2.19956E+03  4.33175E+02  1.29563E+02  1.75303E+03 -1.25715E+02  2.27656E+03
 -1.30414E+03  1.77247E+03 -2.23666E+03  3.52491E+02 -2.16195E+03 -7.37627E+02  4.13539E+02 -1.93890E+03
  6.62450E+02 -1.44173E+03  1.35679E+03 -5.76775E+02  3.08870E+02  1.39676E+03 -4.94421E+02  5.55344E+02
 -2.14033E+03  1.11302E+03 -1.84103E+03 -1.83672E+03 -1.24521E+02 -2.20639E+03  7.68828E+02 -1.77385E+03
  6.90782E+02  6.25096E+02  9.54133E+02 -4.52812E+01  1.42215E+03 -9.13285E+01  8.50652E+01  6.05254E+02
 -3.72588E+02  8.02132E+01 -1.28041E+03 -5.15703E+01  4.27048E+02 -4.46958E+02  1.95181E+03 -6.84331E+02
  8.68885E+02  1.17718E+02  1.75538E+03  9.17003E+02  1.03007E+03  1.81067E+03 -1.55568E+03  2.49167E+03
 -1.86486E+03  1.03889E+03 -6.63614E+02  6.79006E+02 -1.09182E+03 -1.49349E+03 -6.79638E+01 -7.04816E+02
  1.79003E+03 -2.78065E+02  1.17172E+03  7.39034E+01  6.35884E+02  1.23864E+03  6.94078E+02  1.68983E+03
  1.68029E+02  4.15218E+02  1.32454E+03  7.42716E+02 -1.01403E+02  1.10348E+03  1.12976E+02  3.68199E+02
 -4.82271E+02  1.14512E+03 -1.03942E+03  1.77676E+02 -1.37496E+03  1.16442E+03 -1.91906E+03 -1.11662E+03
 -1.52192E+03 -2.92081E+03  5.09397E+02 -2.78630E+03  1.34085E+03 -1.50681E+03  2.63009E+03 -1.74826E+03
  2.83682E+03  8.28831E+02  1.10560E+03  1.54354E+03  3.05630E+02  1.90696E+03 -1.36563E+03  3.34541E+02
 -1.08397E+03  2.13652E+02  2.28091E+02  4.15218E+02  1.87564E+02 -5.77391E+02 -4.16293E+02 -9.05682E+02
 -4.48309E+02 -2.27906E+02 -1.13423E+03  3.57702E+02  1.83970E+03  5.81443E+02 -1.54143E+03 -1.53778E+03
  1.69795E+03 -1.00854E+03 -5.41980E+01 -3.25357E+02  1.30541E+03  2.03168E+03  1.13205E+02  1.02958E+03
 -7.69606E+02  1.79566E+03 -1.90401E+03  1.22827E+03 -2.31704E+03 -6.38435E+01 -1.67974E+03 -1.59233E+03
 -1.70449E+03 -2.26443E+03  4.74083E+01 -4.59446E+02  3.30023E+02 -1.03798E+03  1.75188E+03 -1.00007E+02
  9.48167E+02  6.24514E+01 -6.01175E+02 -1.05838E+02  2.44302E+01  6.21724E+02  6.81896E+02  2.87063E+02
  2.64264E+02  1.86414E+02  1.69234E+02  8.91371E+02  1.75480E+01  8.85691E+01  1.68453E+03  1.27980E+02
 -2.07370E+03  1.87745E+02 -9.08754E+00  2.96079E+01 -1.89992E+03 -1.18433E+03 -2.15906E+02 -5.24994E+02
  1.74760E+03 -4.05457E+02  8.25857E+02 -3.45673E+02  6.71282E+02 -8.28363E+02 -2.09593E+02  1.11405E+03
  1.21381E+03  1.02244E+03 -5.31668E+02 -2.22536E+02 -1.74941E+02  4.14816E+02 -2.62192E+02  1.80789E+02
  8.37445E+02 -3.14207E+02  2.78475E+01 -5.84162E+02 -5.18556E+02 -4.71846E+02 -5.81867E+02 -1.34062E+02
 -1.51443E+03  6.16219E+01  8.23828E+01  5.77738E+01  2.07738E+03 -1.60978E+03  7.42720E+02 -2.54479E+02
  2.31532E+03  1.03142E+03 -3.63980E+02  2.13176E+02 -7.05706E+02  1.94553E+03 -3.73396E+02 -1.52458E+02
