 $NMID ID='MM_0lb_SNR200_10hz_g40_19.RAW', FMTDAT='(8E13.5)'
 TRAMP=1., VOLUME=1. $END
  3.12268E+05  7.97969E+01  3.37336E+05  2.49691E+05  8.42316E+04  3.38560E+05 -1.31800E+05  2.52633E+05
 -1.90944E+05  8.46855E+04 -1.13394E+05 -3.26723E+04  9.57639E+01 -4.96947E+04  5.32338E+04  6.75330E+01
  3.62751E+04  5.23121E+04 -1.63070E+04  7.51067E+04 -6.04800E+04  6.30458E+04 -8.44302E+04  3.34988E+04
 -8.13199E+04 -1.06277E+04 -5.86851E+04 -5.16910E+04 -1.54071E+04 -7.09171E+04  2.76583E+04 -4.65710E+04
  3.97365E+04  4.48392E+03  1.66604E+04  4.82753E+04 -3.55661E+04  4.73240E+04 -6.75036E+04 -3.19478E+02
 -5.60330E+04 -5.72913E+04 -5.72504E+03 -7.94104E+04  3.50715E+04 -5.68958E+04  4.76709E+04 -1.81225E+04
  4.38702E+04  1.23461E+04  3.28100E+04  2.65630E+04  1.54371E+04  3.02710E+04 -6.50777E+03  2.55503E+04
 -2.07788E+04  1.22778E+04 -1.69778E+04 -4.91709E+03  6.30703E+03 -7.78624E+03  2.46148E+04  1.37867E+04
  7.01658E+03  3.83617E+04 -3.23958E+04  3.59181E+04 -6.47796E+04  2.03829E+03 -5.69173E+04 -4.37391E+04
 -1.30464E+04 -6.47886E+04  4.15248E+04 -4.64986E+04  5.92748E+04 -2.12754E+03  3.63207E+04  3.34748E+04
 -6.75169E+03  3.79702E+04 -3.19149E+04  1.73073E+04 -3.20936E+04 -4.04542E+03 -1.94319E+04 -9.74231E+03
 -8.78932E+03 -1.29857E+04 -1.21141E+03 -1.77730E+04  8.70949E+03 -2.19558E+04  1.59860E+04 -1.24809E+04
  1.16001E+04  5.66404E+03 -1.01515E+04  1.19070E+04 -2.31700E+04 -4.64326E+03 -9.03776E+03 -3.53347E+04
  2.45023E+04 -4.46317E+04  5.03261E+04 -2.02794E+04  4.45093E+04  2.15431E+04  1.60320E+04  4.54690E+04
 -1.58216E+04  3.33907E+04 -2.58686E+04  3.04022E+03 -1.13761E+04 -2.91495E+04  2.19325E+04 -3.54032E+04
  4.33133E+04 -1.02161E+04  3.79029E+04  2.41127E+04  2.01666E+04  4.87176E+04 -7.54257E+03  5.36298E+04
 -3.37890E+04  3.52175E+04 -4.52430E+04  8.98040E+03 -4.57730E+04 -1.87837E+04 -2.57543E+04 -4.04485E+04
  7.46134E+03 -4.06850E+04  3.40820E+04 -1.60642E+04  3.14504E+04  1.13844E+04  6.68101E+03  1.95685E+04
 -1.44298E+04  9.21233E+03 -1.06692E+04 -7.59481E+03  5.86465E+03 -1.07085E+04  1.83353E+04  6.18745E+03
  1.54687E+04  2.12612E+04 -5.07118E+03  2.62309E+04 -2.42183E+04  1.31441E+04 -2.91734E+04 -3.84045E+03
 -2.45306E+04 -1.83008E+04 -9.67138E+03 -2.32151E+04  3.70055E+03 -2.39539E+04  1.94353E+04 -2.05839E+04
  3.02729E+04 -1.31855E+04  3.67004E+04  4.70659E+03  2.67547E+04  2.27619E+04  3.58588E+03  3.83775E+04
 -1.85608E+04  3.15497E+04 -3.03043E+04  1.18873E+04 -2.20285E+04 -8.50741E+03 -4.75917E+03 -1.35306E+04
 -4.44191E+02 -2.35273E+01 -5.59653E+03  7.17632E+03 -1.92422E+04  5.65764E+03 -1.74463E+04 -7.61938E+03
 -1.06550E+04 -2.14371E+04  5.23363E+03 -2.48434E+04  1.70390E+04 -1.84693E+04  1.94638E+04 -3.44685E+03
  1.57824E+04  1.44010E+04 -5.42113E+02  2.18376E+04 -1.56567E+04  1.27049E+04 -2.15021E+04 -4.60067E+03
 -1.57387E+04 -2.00121E+04 -1.05143E+03 -2.54737E+04  1.23115E+04 -2.22229E+04  2.11209E+04 -1.03176E+04
  1.97238E+04  4.65688E+01  1.60660E+04  6.13639E+03  8.87304E+03  3.73313E+02  1.07538E+04 -2.46696E+03
  2.14396E+04  4.21211E+03  2.36990E+04  1.67506E+04  1.41071E+04  3.50883E+04 -4.02186E+03  4.10369E+04
 -2.32068E+04  3.45745E+04 -3.66204E+04  1.76267E+04 -3.95389E+04 -1.26587E+03 -3.31665E+04 -2.39429E+04
 -1.24025E+04 -3.15952E+04  1.12855E+04 -3.00898E+04  2.58652E+04 -1.31990E+04  2.28700E+04  6.88977E+03
  8.32239E+03  1.63530E+04 -1.02635E+04  1.54762E+04 -1.89459E+04  3.75856E+03 -1.32987E+04 -1.25098E+04
  2.84524E+02 -1.71992E+04  9.18776E+03 -1.23802E+04  1.32561E+04 -1.38923E+03  2.22351E+03  7.86258E+03
 -8.34048E+03  2.79881E+03 -8.32956E+03 -7.07223E+03 -1.72038E+03 -1.76121E+04  9.86866E+03 -1.79526E+04
  2.08748E+04 -9.22186E+03  2.25327E+04  3.76386E+03  1.92489E+04  1.79779E+04  9.41734E+03  2.62100E+04
 -4.12526E+03  2.64022E+04 -1.78363E+04  1.60166E+04 -1.97945E+04  4.84648E+03 -1.25072E+04 -7.10007E+03
 -6.40956E+03 -6.25956E+03 -3.69399E+02  8.50099E+01 -2.26435E+03  3.29082E+03 -8.62866E+03  6.42600E+03
 -1.25086E+04 -1.47153E+03 -1.32456E+04 -1.28111E+04 -5.33685E+03 -1.63317E+04  5.79773E+03 -1.34288E+04
  1.09870E+04 -6.63062E+03  9.69491E+03  3.68868E+03  2.85222E+02  5.79196E+03 -7.08288E+03 -4.93660E+02
 -5.86811E+03 -8.93507E+03 -9.82756E+02 -1.31831E+04  8.32795E+03 -1.46748E+04  1.91644E+04 -6.83069E+03
  2.10801E+04  1.55671E+03  1.53584E+04  1.44796E+04  3.47846E+03  1.59383E+04 -8.88809E+03  1.35650E+04
 -1.20127E+04  3.35056E+03 -6.74963E+03 -2.29843E+03  1.07187E+03 -5.33198E+03  6.98611E+03 -5.42318E+02
  5.99695E+03  5.79390E+03  1.14512E+03  1.14366E+04 -9.02405E+03  1.08001E+04 -1.33417E+04  2.40326E+03
 -8.63089E+03 -6.90523E+03  8.50195E+01 -1.15514E+04  7.35757E+03 -5.16401E+03  7.31329E+03  3.14081E+03
  1.47099E+03  8.52560E+03 -7.38153E+03  8.85761E+03 -1.07335E+04  3.46053E+03 -1.21701E+04 -3.75098E+03
 -7.27235E+03 -1.32395E+04  2.50200E+03 -1.63977E+04  1.41722E+04 -8.39764E+03  1.43376E+04  1.72543E+03
  8.67571E+03  9.63936E+03 -1.98688E+03  1.33636E+04 -1.02442E+04  6.57244E+03 -1.13466E+04 -8.53548E+02
 -9.70308E+03 -1.13343E+04 -1.73895E+03 -1.13919E+04  6.03499E+03 -9.00902E+03  7.52084E+03 -5.37884E+03
  5.65690E+03  3.39780E+03 -7.33917E+02  5.14439E+02 -9.66494E+02 -3.24005E+03  9.05261E+02 -6.23090E+03
  8.66643E+03 -2.32694E+03  1.40062E+04  1.51069E+03  1.18147E+04  9.00033E+03  9.16677E+03  1.70382E+04
 -3.41421E+03  2.10873E+04 -1.63235E+04  1.45442E+04 -2.32674E+04  3.03955E+03 -1.98080E+04 -7.50194E+03
 -9.76792E+03 -1.49935E+04 -1.26283E+03 -1.44586E+04  3.93094E+03 -6.15993E+03  3.45834E+03 -4.95061E+03
  3.04659E+03 -3.30229E+03  6.41635E+03 -4.29309E+03  5.08604E+03 -2.91669E+03  6.66518E+03 -1.89071E+03
  1.04026E+04  2.83674E+03  5.06994E+03  9.18546E+03 -1.89372E+03  1.02901E+04 -1.04555E+04  9.12671E+03
 -1.33853E+04 -1.58263E+03 -7.52816E+03 -7.46787E+03 -1.44814E+02 -1.45932E+04  7.83145E+03 -1.37980E+04
  1.34522E+04 -5.99159E+03  1.59462E+04  8.75303E+02  1.09452E+04  1.19068E+04  1.38419E+03  1.69738E+04
 -5.91356E+03  1.19116E+04 -8.71721E+03  5.10457E+03 -6.25199E+03 -1.70455E+03 -3.13785E+03 -1.79576E+03
 -1.19687E+03 -1.38516E+03 -3.45019E+03  2.96125E+03 -4.83008E+03  2.42326E+03 -8.98458E+03 -6.50970E+02
 -7.29879E+03 -8.39183E+03 -3.01187E+02 -1.14960E+04  8.46342E+03 -1.03132E+04  1.34524E+04 -3.91541E+03
  1.25521E+04  7.05161E+03  5.72317E+03  1.03498E+04 -7.04761E+02  1.25413E+04 -7.64667E+03  9.46553E+03
 -1.04244E+04  4.10586E+02 -8.64906E+03 -8.84060E+03 -7.17690E+02 -1.04634E+04  7.28052E+03 -6.81259E+03
  8.20938E+03 -2.92603E+03  5.50482E+03  9.15215E+02  1.48789E+03  2.38145E+03  1.58754E+03  3.01005E+03
  3.55932E+03  2.85488E+02  2.41445E+03 -1.34728E+02  3.10642E+03  3.65361E+03  2.94050E+03  5.35647E+03
 -3.38463E+03  9.46059E+03 -9.93098E+03  9.89831E+03 -1.38278E+04  1.53326E+03 -1.31683E+04 -5.68122E+03
 -6.07742E+03 -1.25869E+04  1.92074E+03 -1.50499E+04  8.52932E+03 -9.58365E+03  1.05174E+04 -3.07024E+03
  7.64029E+03  3.56010E+03  1.19417E+03  4.93417E+03 -3.24641E+03  3.54518E+03 -6.01036E+03  3.44162E+02
 -2.06472E+03 -4.78955E+03  2.27528E+03 -4.63457E+03  6.82214E+03 -3.21589E+03  4.80250E+03  1.28447E+03
  3.19094E+03  3.59005E+03  1.70934E+03  7.36173E+02 -1.43163E+03  2.44012E+03  1.93751E+03 -3.69213E+01
  2.77993E+03 -2.19518E+03  6.02989E+03  1.68681E+03  3.58158E+03  5.89931E+03 -5.59737E+02  9.45893E+03
 -6.06541E+03  5.47771E+03 -8.74792E+03  2.42374E+03 -5.94131E+03 -2.67293E+03 -2.45800E+03 -5.82532E+03
  1.31680E+03 -3.73575E+03  3.65456E+03 -1.72225E+03  1.91339E+03  3.15874E+03 -1.84647E+03  4.93365E+03
 -5.20158E+03  1.18494E+03 -5.25378E+03 -3.59924E+03 -3.48750E+03 -5.91391E+03  1.16047E+03 -6.22117E+03
  3.16562E+03 -3.66782E+03  4.72033E+03 -9.16960E+02  4.40483E+03  1.25347E+03  8.05454E+02  4.38990E+03
 -2.12755E+03  1.12439E+03 -2.82167E+03 -2.26520E+03  4.43069E+02 -5.08933E+03  5.70391E+03 -4.51757E+03
  6.59343E+03  6.49425E+02  7.85375E+03  4.23107E+03  1.39746E+03  8.06850E+03 -2.48696E+03  7.34084E+03
 -7.04903E+03  2.46081E+03 -6.19634E+03 -1.07937E+03 -4.13365E+03 -7.58872E+03  1.29096E+03 -4.93955E+03
  4.12507E+03 -2.63739E+03  3.94230E+03  1.32218E+03  2.22589E+03  2.89869E+03  3.71489E+02  4.81207E+03
 -8.82408E+02  3.33686E+03 -2.77510E+03  6.10463E+02  1.95684E+02  4.93169E+02 -3.26986E+03  2.71622E+03
 -1.54431E+03  3.81286E+03 -5.90177E+03  9.67027E+02 -7.89893E+03  9.26515E+02 -9.64274E+03 -5.64365E+03
 -5.19039E+03 -1.15207E+04  2.56636E+03 -1.33755E+04  8.70960E+03 -9.56864E+03  1.18546E+04 -1.55669E+03
  1.28894E+04  1.92199E+03  6.07316E+03  7.47038E+03  1.28803E+03  7.44884E+03 -2.02564E+03  7.06419E+03
 -3.30571E+03  2.34014E+03 -2.46989E+03 -9.00128E+02 -1.71131E+03  1.45211E+02 -1.29639E+03 -8.03628E+02
 -2.67629E+03  8.64401E+02 -9.20936E+02 -1.42081E+03 -1.22815E+03 -3.34111E+03  6.64366E+01 -3.55995E+03
  4.57990E+03 -2.85854E+03  4.53938E+03 -5.50753E+02  6.51268E+03  4.25633E+03  1.51483E+03  7.19316E+03
 -3.72813E+03  1.11346E+04 -7.02850E+03  6.34942E+03 -1.00945E+04  8.15266E+02 -7.10343E+03 -7.21788E+03
 -4.16716E+03 -1.04685E+04  2.61016E+03 -7.06841E+03  5.50653E+03 -2.97818E+03  5.52822E+03 -1.62785E+02
  3.96181E+03  5.69485E+03 -3.85777E+02  2.29307E+03 -1.12747E+03  1.28936E+02  1.16518E+03 -3.25852E+03
  3.95502E+03 -2.93540E+02  3.93513E+03  1.07001E+03  2.64740E+03  3.86744E+03 -4.27540E+02  3.51736E+03
 -3.19729E+03  4.48044E+03 -7.04249E+03 -1.78246E+02 -4.72507E+03 -4.40672E+03 -1.76714E+03 -6.18395E+03
  3.57550E+03 -6.56264E+03  6.21536E+03 -1.80160E+03  6.65297E+03  2.05750E+03  3.20481E+03  5.77097E+03
  6.59725E+02  5.00504E+03 -2.61935E+03  4.25122E+03 -4.07516E+03  3.01937E+03 -3.47726E+03  6.97005E+02
 -1.27162E+03  8.94274E+02 -1.11877E+03  2.10735E+03 -3.13562E+03  2.32106E+03 -4.21973E+03 -4.24329E+02
 -3.24258E+03 -2.01220E+03 -1.32648E+03 -5.85943E+03  1.16146E+03 -6.92527E+03  5.59306E+03 -2.69730E+03
  5.18015E+03  1.20655E+03  3.29708E+03  3.56986E+03 -9.03338E+02  5.05866E+03 -4.94310E+03  2.94339E+03
