 $NMID ID='MM_0lb_SNR200_16hz_g50_19.RAW', FMTDAT='(8E13.5)'
 TRAMP=1., VOLUME=1. $END
  3.09639E+05 -6.66833E+02  3.37031E+05  2.50478E+05  8.40092E+04  3.37949E+05 -1.33204E+05  2.50996E+05
 -1.90524E+05  8.25321E+04 -1.11038E+05 -3.28182E+04  1.94762E+03 -4.92515E+04  5.33724E+04  1.16171E+03
  3.58377E+04  5.32908E+04 -1.68178E+04  7.43521E+04 -6.10232E+04  6.24504E+04 -8.37149E+04  3.21874E+04
 -7.97788E+04 -1.03839E+04 -5.65129E+04 -5.06317E+04 -1.47429E+04 -6.90707E+04  2.74388E+04 -4.41249E+04
  4.07251E+04  2.53368E+03  1.64968E+04  4.82896E+04 -3.48631E+04  4.66983E+04 -6.54715E+04 -1.28614E+03
 -5.21401E+04 -5.70277E+04 -8.34294E+03 -7.65583E+04  3.36313E+04 -5.35938E+04  4.73838E+04 -1.73349E+04
  4.27558E+04  1.10805E+04  3.18655E+04  2.48916E+04  1.57974E+04  2.98063E+04 -4.80564E+03  2.82235E+04
 -2.20220E+04  1.22697E+04 -1.78953E+04 -5.05040E+03  4.28981E+03 -6.67977E+03  2.19047E+04  1.08902E+04
  9.25928E+03  3.50153E+04 -3.08046E+04  3.52210E+04 -6.20659E+04  2.16075E+03 -5.65754E+04 -4.27162E+04
 -1.15159E+04 -6.25751E+04  3.92592E+04 -4.56160E+04  5.63861E+04 -2.36558E+03  3.37764E+04  3.12629E+04
 -6.55487E+03  3.52717E+04 -2.87188E+04  1.54413E+04 -2.94077E+04 -4.21046E+03 -1.67125E+04 -1.03153E+04
 -7.55463E+03 -1.27560E+04 -9.90643E+02 -1.73477E+04  6.42669E+03 -2.25588E+04  1.62641E+04 -1.28023E+04
  1.08814E+04  3.60008E+03 -7.12406E+03  1.27258E+04 -2.06235E+04 -4.64054E+03 -8.85272E+03 -3.27167E+04
  2.28349E+04 -4.24515E+04  4.74832E+04 -2.05081E+04  4.28436E+04  1.98085E+04  1.52590E+04  4.33104E+04
 -1.58996E+04  3.16322E+04 -2.50974E+04  1.51274E+03 -8.48280E+03 -2.75200E+04  2.12417E+04 -3.28792E+04
  4.06104E+04 -9.57315E+03  3.41908E+04  2.44863E+04  1.73613E+04  4.57259E+04 -7.52860E+03  4.83638E+04
 -3.08423E+04  3.18081E+04 -4.14690E+04  8.34646E+03 -4.17158E+04 -1.66817E+04 -2.23493E+04 -3.71032E+04
  6.83301E+03 -3.66154E+04  3.06928E+04 -1.43066E+04  2.78761E+04  1.01713E+04  2.83150E+03  1.87302E+04
 -1.30728E+04  7.95781E+03 -1.00192E+04 -8.12550E+03  5.20407E+03 -1.01736E+04  1.78021E+04  5.30549E+03
  1.25871E+04  2.22633E+04 -5.76153E+03  2.32202E+04 -2.22443E+04  1.06441E+04 -2.64397E+04 -4.61051E+03
 -1.85680E+04 -1.68893E+04 -6.93401E+03 -1.85467E+04  4.35034E+03 -1.66245E+04  1.48225E+04 -1.78830E+04
  2.39890E+04 -1.20288E+04  3.06173E+04  2.66893E+03  2.33886E+04  1.79774E+04  4.40877E+03  3.47854E+04
 -1.75189E+04  2.94243E+04 -2.67971E+04  9.98114E+03 -2.12845E+04 -1.06972E+04 -4.09235E+03 -1.39117E+04
  2.00417E+03 -3.78045E+03 -4.20921E+03  6.70292E+03 -1.40130E+04  5.61892E+03 -1.57595E+04 -7.15183E+03
 -1.07433E+04 -1.74399E+04  4.67797E+03 -2.06748E+04  1.38722E+04 -1.53710E+04  1.60536E+04 -1.89014E+03
  1.10393E+04  1.28901E+04 -1.65861E+03  1.82925E+04 -1.21195E+04  1.04316E+04 -1.77127E+04 -4.35239E+03
 -1.21713E+04 -1.59352E+04 -2.23793E+03 -2.25967E+04  9.62494E+03 -1.76776E+04  1.80706E+04 -7.89862E+03
  1.72952E+04  6.60363E+02  1.24383E+04  5.25318E+03  6.25798E+03  3.81285E+02  9.20514E+03 -1.48805E+03
  1.56688E+04  2.30873E+03  1.78906E+04  1.46349E+04  1.10256E+04  2.89766E+04 -3.34948E+03  3.16735E+04
 -1.79570E+04  2.50899E+04 -2.88838E+04  1.17461E+04 -3.05513E+04 -2.57069E+03 -2.46661E+04 -1.69502E+04
 -1.06919E+04 -2.49072E+04  8.02558E+03 -2.25386E+04  1.96826E+04 -1.23636E+04  1.73008E+04  4.39996E+03
  6.10929E+03  1.36502E+04 -6.38633E+03  1.15531E+04 -1.43625E+04  3.05278E+03 -1.15421E+04 -8.79897E+03
 -8.76782E+02 -1.37195E+04  7.18242E+03 -1.03076E+04  9.24307E+03 -1.22707E+03  1.14900E+03  5.41982E+03
 -6.03392E+03  2.22792E+03 -4.76454E+03 -5.24227E+03 -1.00718E+03 -1.23194E+04  8.11883E+03 -1.24985E+04
  1.44069E+04 -6.62132E+03  1.44362E+04  2.81196E+03  1.35174E+04  1.15337E+04  6.44166E+03  1.71876E+04
 -2.60714E+03  1.93913E+04 -1.19946E+04  1.28645E+04 -1.34901E+04  2.74390E+03 -9.72370E+03 -2.86245E+03
 -4.90070E+03 -5.08159E+03 -6.19450E+02  1.24964E+03 -2.96953E+03  2.44258E+03 -5.22401E+03  4.57904E+03
 -8.49834E+03 -1.69294E+03 -1.02607E+04 -8.40222E+03 -3.25172E+03 -1.32470E+04  3.38709E+03 -9.60196E+03
  9.18817E+03 -4.95240E+03  6.39133E+03  2.60991E+03  4.41391E+02  3.13246E+03 -5.08682E+03  6.04103E+02
 -3.46969E+03 -5.86823E+03  3.25614E+02 -9.25217E+03  3.82970E+03 -8.48595E+03  1.23529E+04 -4.28655E+03
  1.49455E+04  9.23904E+02  1.02226E+04  7.44130E+03  3.91840E+03  1.04928E+04 -5.97000E+03  1.06664E+04
 -8.32951E+03  2.39719E+03 -3.72766E+03 -2.39673E+03  5.06366E+02 -1.84003E+03  4.06704E+03 -1.12893E+03
  4.79639E+03  3.78365E+03  9.25129E+01  9.26551E+03 -6.84410E+03  8.11463E+03 -1.01389E+04  1.97912E+03
 -7.46068E+03 -4.72578E+03  1.05650E+03 -7.95359E+03  3.60402E+03 -4.28627E+03  4.46752E+03  2.84667E+03
  7.32552E+02  3.93384E+03 -4.71341E+03  6.62183E+03 -7.37281E+03  3.23382E+03 -6.00738E+03 -1.36065E+03
 -4.46314E+03 -8.40272E+03  1.88872E+03 -9.44576E+03  7.77404E+03 -5.52271E+03  8.10481E+03  1.32048E+03
  6.78586E+03  6.86961E+03 -4.90276E+02  9.33433E+03 -6.17125E+03  5.03122E+03 -6.55027E+03 -5.62529E+02
 -6.30673E+03 -6.09613E+03 -1.58407E+03 -5.87773E+03  4.90066E+03 -5.49421E+03  3.73492E+03 -2.18077E+03
  2.65152E+03 -5.52980E+02 -8.24372E+02  6.64597E+02  1.12604E+03 -1.30464E+03 -8.37881E+00 -2.91116E+03
  5.65277E+03 -1.82088E+03  7.19141E+03  1.54798E+03  7.56375E+03  4.95651E+03  5.18713E+03  9.79853E+03
 -1.38545E+03  1.19635E+04 -9.74966E+03  9.41554E+03 -1.22577E+04  1.63625E+03 -9.83898E+03 -3.45697E+03
 -6.09517E+03 -8.85032E+03  2.12561E+02 -7.79780E+03  2.38165E+03 -3.84374E+03  3.22934E+03 -2.54460E+03
  3.09079E+03 -6.44660E+02  2.41371E+03 -3.14969E+03  4.45776E+03 -1.30777E+03  5.30573E+03 -3.60839E+02
  5.07562E+03  1.60697E+03  1.88579E+03  3.57532E+03 -1.95756E+03  4.22426E+03 -5.89102E+03  3.72938E+03
 -6.53187E+03 -1.10535E+03 -3.71576E+03 -4.50927E+03 -1.06634E+03 -6.73189E+03  4.37837E+03 -8.91401E+03
  6.87142E+03 -3.88030E+03  9.81197E+03 -3.76059E+02  6.50097E+03  5.08754E+03  7.29975E+02  8.84332E+03
 -2.04401E+03  7.35506E+03 -4.42078E+03  2.16649E+03 -3.06176E+03 -1.00367E+03 -1.53772E+03 -1.44823E+03
 -9.18524E+02  6.30526E+02 -1.29643E+03  3.02335E+03 -3.51032E+03  2.30466E+03 -6.10085E+03  1.10102E+02
 -2.03098E+03 -5.52799E+03  1.40471E+03 -7.52920E+03  5.51225E+03 -5.54629E+03  5.91933E+03 -1.59252E+03
  6.88678E+03  2.69890E+03  3.41371E+03  4.45385E+03 -3.19953E+02  6.50576E+03 -4.22324E+03  4.53080E+03
 -6.19688E+03 -9.78698E+02 -4.45990E+03 -3.51473E+03 -7.77090E+02 -3.66509E+03  2.07193E+03 -3.56140E+03
  3.67376E+03 -7.21773E+02  4.38791E+03  9.12957E+02  1.55571E+03  1.52505E+03  1.50024E+03  6.96553E+02
  2.60493E+03  9.47406E+02  1.81401E+03  1.14531E+03  1.43601E+03  3.25966E+03  1.75346E+03  2.38058E+03
 -3.16412E+03  4.54537E+03 -5.33276E+03  5.83104E+03 -4.73142E+03  1.70371E+03 -6.75596E+03 -2.22299E+03
 -3.00995E+03 -6.45191E+03  1.61171E+03 -7.52233E+03  3.05525E+03 -3.93529E+03  4.74362E+03 -1.54693E+03
  3.69580E+03  1.82621E+03  1.37489E+03  2.71597E+03 -1.95083E+03  2.19909E+03 -1.18399E+03 -2.07809E+02
 -1.45317E+03 -2.78187E+03  1.18266E+03 -2.76818E+03  1.18861E+03 -1.43403E+03  3.44539E+03 -3.05151E+02
 -1.29618E+01  1.05534E+03  3.04449E+02  2.92658E+02 -1.22323E+01  6.78457E+02  1.09895E+03  3.05793E+02
  1.32758E+03 -4.46956E+02  3.21218E+03  1.77891E+03  1.08643E+03  3.46049E+03 -1.15837E+03  4.51882E+03
 -2.49704E+03  3.34734E+03 -1.58560E+03 -1.92267E+02 -2.46482E+03 -1.52981E+03 -2.40284E+02 -1.69889E+03
 -5.59563E+02 -1.77571E+03  2.47657E+03 -1.00588E+03  1.91736E+03  1.23936E+03 -9.24317E+02  1.28674E+03
 -1.43996E+03  1.95816E+03 -3.05301E+03 -1.23537E+03 -9.50681E+02 -3.43419E+03  3.95570E+02 -2.87533E+03
  1.46997E+03 -1.72586E+03  1.56275E+03  4.21673E+02  1.61444E+03  4.08854E+02  3.05572E+02  2.92840E+03
 -7.31848E+02  1.53525E+01 -1.80332E+03 -5.48252E+02  2.13608E+02 -9.31288E+02  1.12303E+03 -1.94662E+03
  3.28931E+03  7.84167E+02  3.42616E+03  2.62566E+03  1.08713E+03  2.28646E+03 -1.03264E+03  3.04583E+03
 -3.74205E+03  1.46009E+03 -2.99514E+03 -5.07639E+02 -1.55600E+03 -7.06521E+02 -2.64364E+02 -1.52055E+03
  3.25861E+03 -9.25388E+02  1.48034E+03  5.38602E+02 -3.72777E+02  1.05113E+03  2.64215E+02  2.11377E+03
 -4.70209E+02  2.33329E+03 -1.49329E+03  1.22399E+02 -1.25704E+03  1.09303E+03 -1.12215E+03  1.59600E+03
 -6.37093E+02  1.96263E+03 -2.06857E+03  6.29995E+02 -2.16512E+03  1.31285E+02 -2.67050E+03 -1.99656E+03
 -1.50543E+03 -3.05762E+03  6.11836E+02 -5.03603E+03  2.06050E+03 -2.98253E+03  3.34506E+03 -2.10281E+03
  3.64412E+03  2.98610E+02  2.54200E+03  2.96070E+03 -3.71713E+01  1.90821E+03 -8.22944E+02  1.60270E+03
 -6.63784E+02  1.42394E+03 -1.55733E+03 -2.18441E+02  1.42278E+01  5.79810E+02 -2.15349E+03  8.81315E+02
 -1.64524E+03 -1.55059E+03 -2.11684E+03  3.36821E+02 -4.01119E+02  6.13051E+02 -1.31351E+03 -1.76527E+03
  1.41369E+03 -1.51348E+03  1.57115E+03 -2.04450E+02  1.43917E+03  1.81109E+03  4.40512E+02  2.64284E+03
 -1.41518E+03  2.62156E+03 -3.06736E+03  1.94043E+03 -3.24453E+03 -8.96912E+02 -2.30763E+03 -2.25464E+03
 -1.97526E+03 -2.01343E+03  7.94877E+02 -3.15780E+03  1.50017E+03  1.24557E+02 -6.06100E+01 -2.27004E+02
 -4.24587E+02  2.23598E+02  1.62777E+02  4.66098E+02 -1.11211E+03  2.25441E+02  1.32715E+02 -2.87824E+02
  1.84143E+03  4.74835E+02  9.79344E+02 -3.59259E+02  1.06048E+03 -1.11827E+01  1.28183E+02  6.68660E+02
 -1.36869E+03  7.46747E+02 -1.06524E+03 -8.13794E+02 -8.86801E+02 -1.35825E+03  4.95194E+02 -1.53448E+03
  1.32272E+03 -2.90892E+02  7.18759E+02  3.35993E+02  4.48457E+02 -1.05031E+03  2.57476E+02  1.54445E+03
  3.78570E+02  1.35176E+03 -2.71857E+02  1.06220E+03 -1.38396E+03  7.80102E+02 -5.50178E+02 -5.72680E+02
  1.63073E+02  2.00763E+02 -1.18651E+03  9.95966E+02 -1.83831E+03  1.05471E+03 -1.91966E+03 -1.72297E+02
 -1.77884E+03  9.80571E+01 -1.20274E+03 -1.63216E+03  9.76053E+02 -1.51687E+03  1.84596E+03 -1.05805E+02
  1.53896E+03 -1.07651E+02 -1.78376E+02  6.92858E+02 -7.64824E+02  3.40778E+02 -9.37400E+02  1.13638E+03
