 $NMID ID='MM_0lb_SNR200_13hz_g60_92.RAW', FMTDAT='(8E13.5)'
 TRAMP=1., VOLUME=1. $END
  3.10113E+05  3.19619E+01  3.38517E+05  2.49253E+05  8.53277E+04  3.38271E+05 -1.32247E+05  2.52186E+05
 -1.90368E+05  8.52297E+04 -1.13056E+05 -3.28275E+04  9.43924E+02 -5.11321E+04  5.39313E+04  4.03379E+02
  3.50725E+04  5.24955E+04 -1.80166E+04  7.59242E+04 -6.12961E+04  6.37974E+04 -8.51346E+04  3.19236E+04
 -8.40061E+04 -1.09722E+04 -5.73743E+04 -5.24324E+04 -1.52578E+04 -7.12763E+04  2.78913E+04 -4.54333E+04
  3.96459E+04  3.67272E+03  1.84923E+04  4.76514E+04 -3.57531E+04  4.77867E+04 -6.65256E+04  1.63456E+03
 -5.42487E+04 -5.70824E+04 -6.38035E+03 -7.97854E+04  3.36319E+04 -5.77382E+04  4.81724E+04 -1.77128E+04
  4.40585E+04  1.07817E+04  3.17183E+04  2.60863E+04  1.54135E+04  2.96681E+04 -5.32405E+03  2.88924E+04
 -2.30778E+04  1.26097E+04 -1.78430E+04 -5.11676E+03  5.67389E+03 -7.61776E+03  2.30348E+04  1.26490E+04
  6.77692E+03  3.69996E+04 -3.25794E+04  3.66290E+04 -6.46169E+04  1.02159E+03 -5.71735E+04 -4.43813E+04
 -1.32600E+04 -6.62041E+04  4.09389E+04 -4.55884E+04  5.96813E+04 -3.75736E+03  3.47489E+04  3.33942E+04
 -5.46599E+03  3.68068E+04 -3.12911E+04  1.69978E+04 -3.16702E+04 -3.50957E+03 -1.77535E+04 -1.24339E+04
 -8.93747E+03 -1.47849E+04 -4.24239E+02 -1.87273E+04  8.66539E+03 -2.25680E+04  1.62528E+04 -1.24851E+04
  1.01061E+04  5.97564E+03 -8.83942E+03  1.17541E+04 -2.31892E+04 -5.98085E+03 -7.44045E+03 -3.51256E+04
  2.37596E+04 -4.36208E+04  5.04794E+04 -2.13186E+04  4.76197E+04  1.96641E+04  1.55600E+04  4.54836E+04
 -1.71844E+04  3.55511E+04 -2.64367E+04  1.78340E+03 -1.02916E+04 -2.90662E+04  2.11387E+04 -3.53877E+04
  4.33543E+04 -1.17556E+04  3.78975E+04  2.29117E+04  2.06173E+04  4.87317E+04 -7.43577E+03  5.25184E+04
 -3.39847E+04  3.53620E+04 -4.50569E+04  1.01512E+04 -4.49255E+04 -1.72034E+04 -2.49933E+04 -3.98386E+04
  7.47224E+03 -4.05416E+04  3.31114E+04 -1.43296E+04  3.22215E+04  1.02825E+04  5.04086E+03  1.88290E+04
 -1.43458E+04  8.15353E+03 -1.13370E+04 -7.44142E+03  5.48979E+03 -1.05424E+04  1.84598E+04  5.09373E+03
  1.48762E+04  2.07222E+04 -5.76944E+03  2.65419E+04 -2.15266E+04  1.18894E+04 -3.07581E+04 -2.74224E+03
 -2.45027E+04 -1.70471E+04 -1.03759E+04 -2.24543E+04  3.96419E+03 -2.23560E+04  1.70173E+04 -2.12958E+04
  2.94360E+04 -1.35723E+04  3.45345E+04  2.54072E+03  2.51261E+04  2.24247E+04  3.71357E+03  3.86261E+04
 -1.87702E+04  3.13862E+04 -2.85885E+04  1.06202E+04 -2.13241E+04 -1.07060E+04 -3.92413E+03 -1.34933E+04
  1.93640E+03 -2.85964E+03 -5.00563E+03  7.48334E+03 -1.88721E+04  3.80327E+03 -1.71858E+04 -7.66258E+03
 -1.14944E+04 -2.15278E+04  5.63497E+03 -2.59938E+04  1.73453E+04 -1.77523E+04  2.04607E+04  1.98067E+02
  1.30925E+04  1.35920E+04 -1.67742E+03  2.03448E+04 -1.42250E+04  1.14845E+04 -2.02918E+04 -5.13793E+03
 -1.48339E+04 -1.93480E+04 -1.31464E+03 -2.56924E+04  1.12197E+04 -2.20809E+04  2.09225E+04 -9.75272E+03
  1.99036E+04  4.89223E+02  1.49334E+04  4.34289E+03  7.16377E+03  6.89035E+02  1.12287E+04 -1.13153E+03
  1.83234E+04  3.95204E+03  2.16615E+04  1.76244E+04  1.53019E+04  3.21919E+04 -1.72178E+03  3.80293E+04
 -2.20882E+04  3.13574E+04 -3.69278E+04  1.77420E+04 -3.72476E+04 -1.48344E+03 -3.10748E+04 -2.19590E+04
 -1.23802E+04 -3.10342E+04  1.05277E+04 -2.83264E+04  2.40825E+04 -1.23440E+04  2.33589E+04  6.26515E+03
  7.67671E+03  1.64774E+04 -9.65640E+03  1.39062E+04 -1.88252E+04  2.45486E+03 -1.39880E+04 -1.12560E+04
 -1.59927E+02 -1.63659E+04  9.35982E+03 -1.29514E+04  1.09113E+04 -3.01941E+03  3.22077E+03  6.48260E+03
 -7.36006E+03  2.63998E+03 -7.74106E+03 -5.10849E+03 -1.27564E+03 -1.60668E+04  1.07970E+04 -1.67767E+04
  1.81859E+04 -8.62241E+03  2.17796E+04  1.88768E+03  1.86456E+04  1.58567E+04  8.39738E+03  2.46250E+04
 -4.06772E+03  2.61366E+04 -1.64926E+04  1.50380E+04 -1.96184E+04  4.25267E+03 -1.34036E+04 -4.38964E+03
 -6.90481E+03 -4.72417E+03  7.05190E+01  1.25506E+03 -1.54135E+03  3.15652E+03 -5.60622E+03  4.61781E+03
 -1.26816E+04 -1.42303E+03 -1.28830E+04 -9.95861E+03 -3.84456E+03 -1.66255E+04  5.34870E+03 -1.28350E+04
  9.74938E+03 -4.53412E+03  8.69826E+03  2.95916E+03 -6.27966E+02  4.54989E+03 -5.78590E+03 -7.96675E+02
 -6.45942E+03 -7.56285E+03 -7.85484E+02 -1.17005E+04  8.05693E+03 -1.35319E+04  1.71852E+04 -6.38500E+03
  1.89880E+04  7.90192E+02  1.44118E+04  1.15552E+04  2.17165E+03  1.48868E+04 -7.99803E+03  1.38057E+04
 -1.09341E+04  3.53710E+03 -6.28579E+03 -1.52593E+03  1.88955E+03 -3.46024E+03  7.59687E+03 -1.07174E+03
  6.47142E+03  5.21998E+03  9.17503E+02  1.00875E+04 -6.23814E+03  1.06404E+04 -1.24414E+04  1.62938E+03
 -8.59630E+03 -7.07210E+03 -4.05273E+02 -1.10827E+04  6.33778E+03 -4.20692E+03  7.16347E+03  3.19052E+03
  1.11168E+03  6.94137E+03 -6.87009E+03  9.65740E+03 -1.13060E+04  4.14986E+03 -9.94246E+03 -3.39528E+03
 -4.51859E+03 -1.24774E+04  2.65624E+03 -1.47046E+04  1.28520E+04 -7.80120E+03  1.36834E+04  1.75384E+03
  7.96276E+03  1.00428E+04 -1.82263E+02  1.27698E+04 -8.55620E+03  6.49729E+03 -8.35743E+03  5.75890E+02
 -8.26855E+03 -7.79636E+03 -2.28204E+03 -8.52198E+03  6.48523E+03 -7.08366E+03  5.91488E+03 -2.67035E+03
  4.33853E+03  1.12001E+03 -1.38524E+02  2.01066E+03 -5.11520E+02 -1.06484E+03  2.33685E+03 -4.55216E+03
  7.77610E+03 -4.44921E+03  1.13880E+04  3.40225E+03  1.20995E+04  8.66301E+03  7.55389E+03  1.63603E+04
 -4.06227E+03  1.71817E+04 -1.61903E+04  1.26208E+04 -1.88627E+04  2.65671E+03 -1.43191E+04 -5.96133E+03
 -7.70073E+03 -1.26300E+04 -1.35551E+03 -1.04572E+04  5.33995E+03 -4.96913E+03  4.60845E+03 -4.24065E+03
  3.27561E+03 -1.31960E+03  3.45768E+03 -2.12695E+03  6.72712E+03 -2.00516E+03  6.43485E+03 -8.24402E+02
  6.94584E+03  1.23035E+03  2.90208E+03  7.29789E+03 -2.22749E+03  7.96308E+03 -8.98271E+03  6.18600E+03
 -1.08247E+04 -2.21342E+03 -4.82681E+03 -8.44045E+03 -5.86459E+02 -1.26398E+04  5.89991E+03 -1.09244E+04
  1.13589E+04 -5.83397E+03  1.25828E+04  1.77021E+03  9.29728E+03  9.43229E+03  1.69975E+03  1.34577E+04
 -4.72617E+03  1.05056E+04 -7.16516E+03  2.79149E+03 -5.54547E+03 -1.57175E+03 -1.96693E+03 -1.55719E+03
 -2.27407E+03  6.33758E+02 -9.66211E+02  3.37001E+03 -5.59088E+03  1.13830E+03 -6.93972E+03 -1.36546E+03
 -5.48875E+03 -6.44048E+03 -1.20434E+02 -1.10752E+04  5.87605E+03 -8.95259E+03  9.47956E+03 -2.72175E+03
  1.01149E+04  4.36093E+03  4.71612E+03  8.65259E+03 -1.05414E+03  1.02657E+04 -7.46294E+03  5.44815E+03
 -1.01023E+04  3.41837E+02 -7.71236E+03 -4.86529E+03 -3.95298E+02 -8.23274E+03  4.22094E+03 -5.11787E+03
  4.70636E+03 -5.42440E+02  3.68775E+03  1.22619E+03  2.37862E+03  3.84085E+03  6.72696E+02  1.35695E+03
  1.77456E+03 -4.46444E+02  1.17680E+03  8.18570E+02  2.25405E+03  4.03437E+03  3.65448E+03  6.34853E+03
 -1.77346E+03  6.82898E+03 -6.69935E+03  7.39133E+03 -9.65026E+03  2.30231E+03 -1.09203E+04 -3.91896E+03
 -4.25384E+03 -9.21609E+03  2.51948E+03 -9.80495E+03  4.99813E+03 -6.59511E+03  7.51978E+03 -2.40742E+02
  5.50932E+03  3.24278E+03  5.67468E+02  5.18617E+03 -2.28719E+03  2.63236E+03 -4.29237E+03 -1.73869E+01
 -1.63151E+03 -3.78781E+03  1.45137E+03 -5.38655E+03  5.30654E+03 -1.86048E+03  2.59833E+03  1.05656E+03
  1.61977E+03  4.78885E+02  4.55494E+02  1.75597E+03 -3.95087E+02  2.20489E+03  2.08084E+03 -1.92677E+03
  9.19878E+02 -4.67739E+02  4.55168E+03  2.54971E+03  2.37544E+03  5.10727E+03 -9.55753E+02  7.40442E+03
 -4.13473E+03  4.36141E+03 -5.72652E+03  9.82937E+01 -4.16448E+03 -2.70966E+03 -2.99899E+03 -3.68121E+03
  5.18979E+02 -4.28886E+03  1.47584E+03 -2.17822E+03  2.95795E+03  2.39910E+03  5.63239E+02  1.40944E+03
 -4.38256E+03  2.11089E+03 -3.68078E+03 -3.10648E+03 -1.42587E+03 -5.41169E+03  2.15355E+03 -4.31866E+03
  3.09632E+03 -1.67455E+03  3.50461E+03  4.23943E+02  3.74743E+03 -9.22434E+01 -5.55571E+02  3.24805E+03
 -1.98859E+03  1.84267E+03 -2.32208E+03 -2.42716E+03  5.49735E+02 -3.46541E+03  4.55974E+03 -2.53226E+03
  4.38811E+03  1.32586E+03  6.44446E+03  2.25053E+03  8.85977E+02  4.97170E+03 -2.55439E+03  4.65201E+03
 -5.05834E+03  1.84342E+03 -4.42732E+03  1.10945E+02 -1.92938E+03 -4.44963E+03  6.45116E+02 -2.29009E+03
  4.17306E+03 -1.18160E+03  2.56473E+03  1.28851E+03  1.75565E+02  2.37008E+03 -4.14968E+02  2.03501E+03
 -2.01605E+03  2.86327E+03 -8.16809E+02  1.42801E+03 -3.02372E+03  3.51204E+02 -3.29633E+02  1.32340E+03
 -1.30937E+03  1.96279E+03 -4.90379E+03  1.29369E+03 -6.12374E+03 -5.19274E+02 -6.43587E+03 -4.23460E+03
 -3.95836E+03 -6.25601E+03  1.04992E+03 -7.60189E+03  4.67850E+03 -6.08002E+03  7.50264E+03 -2.33536E+03
  6.24282E+03  4.98579E+02  5.06117E+03  4.92141E+03 -7.94976E+02  4.92130E+03 -1.57855E+03  3.86615E+03
 -1.37748E+03  1.79543E+03 -1.82392E+03 -7.75033E+02 -1.86187E+02  2.04738E+02  3.03423E+02 -2.91636E+02
 -2.17217E+03  1.61043E+03 -1.86224E+03 -5.13152E+02 -1.59129E+03 -1.01994E+03 -5.62120E+02 -1.95345E+03
  2.89075E+03 -1.18120E+03  2.40236E+03  1.33172E+03  3.48789E+03  3.36093E+03 -3.31003E+02  6.60145E+03
 -2.60229E+03  5.29723E+03 -5.10751E+03  2.34977E+03 -5.39179E+03 -1.11935E+03 -3.46390E+03 -3.89911E+03
 -2.73803E+03 -5.03246E+03  4.48377E+02 -3.97043E+03  2.78435E+03 -2.25415E+03  3.38287E+03 -1.51798E+02
  2.42795E+03  2.34952E+03 -5.76260E+02  1.72795E+03 -3.50869E+02  3.47896E+02 -4.76021E+02 -1.91793E+03
  1.67173E+03 -5.79929E+02  1.51688E+03  1.88474E+03  2.25551E+03  1.91380E+03 -3.38097E+02  2.49061E+03
 -1.57769E+03  1.74899E+03 -3.20932E+03  3.49162E+02 -3.07466E+03 -1.07197E+03 -9.08870E+02 -4.65020E+03
  2.17522E+03 -3.27595E+03  3.88146E+03 -1.68083E+03  3.49240E+03 -4.61121E+02  1.12350E+03  2.50498E+03
  5.78366E+02  3.43225E+03 -1.99933E+03  2.36589E+03 -1.77097E+03  1.91763E+03 -1.32514E+03  5.00837E+02
 -1.01898E+03 -3.18067E+02 -1.02500E+03  7.63418E+02 -2.22146E+03 -4.79437E+02 -2.97247E+03 -8.78972E+02
 -1.69893E+03 -3.21093E+02 -4.29331E+02 -2.72311E+03  3.56007E+03 -2.90335E+03  2.44942E+03 -2.43513E+03
  2.10654E+03  1.72067E+02  1.62686E+03  2.42305E+03 -1.37934E+03  3.43046E+03 -2.90646E+03  8.90886E+02
