 $NMID ID='MM_0lb_SNR200_17hz_g55_48.RAW', FMTDAT='(8E13.5)'
 TRAMP=1., VOLUME=1. $END
  3.10333E+05  5.36008E+02  3.37276E+05  2.49929E+05  8.45948E+04  3.37794E+05 -1.32688E+05  2.51076E+05
 -1.90272E+05  8.19667E+04 -1.10459E+05 -3.27423E+04  1.11016E+03 -5.00630E+04  5.35511E+04 -2.13319E+02
  3.54800E+04  5.31311E+04 -1.61850E+04  7.56456E+04 -6.19763E+04  6.35331E+04 -8.39338E+04  3.04891E+04
 -8.13944E+04 -1.11206E+04 -5.65417E+04 -5.07819E+04 -1.57109E+04 -6.92208E+04  2.70956E+04 -4.55624E+04
  3.91057E+04  2.95733E+03  1.62039E+04  4.77477E+04 -3.42482E+04  4.76489E+04 -6.66363E+04  8.46070E+01
 -5.35715E+04 -5.63995E+04 -6.66681E+03 -7.65637E+04  3.39681E+04 -5.43370E+04  4.59698E+04 -1.77574E+04
  4.22210E+04  1.12724E+04  3.28121E+04  2.49619E+04  1.53379E+04  2.84501E+04 -5.69758E+03  2.63352E+04
 -2.09901E+04  1.20683E+04 -1.79307E+04 -4.49191E+03  5.66613E+03 -8.26609E+03  2.15747E+04  1.29248E+04
  6.75548E+03  3.64376E+04 -3.10081E+04  3.44224E+04 -6.29204E+04  2.86576E+03 -5.62512E+04 -4.25164E+04
 -1.21433E+04 -6.20962E+04  3.92590E+04 -4.49231E+04  5.72372E+04 -1.97609E+03  3.22784E+04  3.16587E+04
 -5.48804E+03  3.51183E+04 -2.85260E+04  1.63941E+04 -2.93427E+04 -4.11816E+03 -1.55616E+04 -1.12270E+04
 -7.27363E+03 -1.19885E+04 -7.96213E+02 -1.75723E+04  7.22731E+03 -2.29033E+04  1.62163E+04 -1.38961E+04
  1.15194E+04  4.42470E+03 -6.62401E+03  1.25926E+04 -2.09946E+04 -4.50377E+03 -7.92020E+03 -3.30305E+04
  2.17285E+04 -4.15968E+04  4.52829E+04 -1.91229E+04  4.38139E+04  1.88993E+04  1.59850E+04  4.34658E+04
 -1.61648E+04  3.26768E+04 -2.51430E+04  9.58260E+02 -8.78247E+03 -2.71749E+04  2.12461E+04 -3.29724E+04
  4.00911E+04 -8.21070E+03  3.42693E+04  2.36635E+04  1.65763E+04  4.52614E+04 -7.41993E+03  4.79704E+04
 -3.01958E+04  3.24920E+04 -4.08974E+04  8.89708E+03 -4.09087E+04 -1.69354E+04 -2.25812E+04 -3.65999E+04
  7.93082E+03 -3.53416E+04  3.02017E+04 -1.38665E+04  2.89148E+04  1.17416E+04  3.86785E+03  1.96847E+04
 -1.37382E+04  7.91387E+03 -9.70047E+03 -7.58048E+03  6.32315E+03 -1.06011E+04  1.73081E+04  6.24009E+03
  1.37762E+04  2.17013E+04 -5.93985E+03  2.40370E+04 -2.19098E+04  1.04403E+04 -2.64981E+04 -5.48516E+03
 -1.85978E+04 -1.61384E+04 -6.89011E+03 -1.88138E+04  4.25739E+03 -1.74029E+04  1.33855E+04 -1.72813E+04
  2.38101E+04 -1.27553E+04  3.10565E+04  3.02369E+03  2.31079E+04  1.75652E+04  4.17951E+03  3.50292E+04
 -1.65662E+04  2.96308E+04 -2.66478E+04  9.79799E+03 -2.05256E+04 -1.06089E+04 -3.75148E+03 -1.35400E+04
  2.84886E+03 -2.80160E+03 -3.14348E+03  6.51168E+03 -1.54191E+04  5.20439E+03 -1.51518E+04 -5.97779E+03
 -7.93684E+03 -1.74524E+04  5.56869E+03 -2.14427E+04  1.31972E+04 -1.47140E+04  1.50921E+04 -1.38322E+03
  1.01071E+04  1.24899E+04 -7.17905E+02  1.81426E+04 -1.18896E+04  1.08124E+04 -1.62355E+04 -3.31559E+03
 -1.31740E+04 -1.58921E+04 -2.08870E+03 -2.20242E+04  9.48434E+03 -1.79051E+04  1.72433E+04 -7.95694E+03
  1.65439E+04  1.47723E+02  1.11548E+04  5.26710E+03  6.01405E+03  1.77207E+03  7.43029E+03 -1.73708E+03
  1.62281E+04  1.72064E+03  1.73389E+04  1.36716E+04  1.19028E+04  2.72977E+04 -2.85632E+03  3.16642E+04
 -1.78137E+04  2.45974E+04 -2.89874E+04  1.26941E+04 -2.96035E+04 -2.43167E+03 -2.53516E+04 -1.65531E+04
 -1.19792E+04 -2.40312E+04  8.13546E+03 -2.21190E+04  1.94000E+04 -1.22937E+04  1.75272E+04  4.71697E+03
  6.75477E+03  1.24368E+04 -8.02589E+03  1.16206E+04 -1.42979E+04  3.46419E+03 -1.12934E+04 -8.62545E+03
 -8.97484E+02 -1.43881E+04  6.49798E+03 -1.11445E+04  8.80842E+03 -6.54303E+02  1.96594E+03  4.54212E+03
 -6.99682E+03  1.77387E+03 -5.42881E+03 -4.60772E+03  1.14510E+02 -1.11870E+04  8.88761E+03 -1.20158E+04
  1.44209E+04 -6.11404E+03  1.37546E+04  3.47193E+03  1.16454E+04  1.09777E+04  5.21150E+03  1.65265E+04
 -2.97803E+03  1.90099E+04 -1.17859E+04  1.23262E+04 -1.38161E+04  3.22198E+03 -9.69865E+03 -3.31052E+03
 -3.95850E+03 -3.90208E+03 -2.66927E+02  2.38466E+03 -8.26485E+02  2.20679E+03 -3.37928E+03  3.48177E+03
 -8.51727E+03 -1.24622E+03 -8.88319E+03 -8.78604E+03 -3.70401E+03 -1.25191E+04  4.35065E+03 -9.95089E+03
  9.08442E+03 -3.34208E+03  6.08061E+03  1.91271E+03  4.02377E+02  3.16130E+03 -4.85566E+03  5.59286E+01
 -3.79228E+03 -6.66740E+03 -9.18563E+02 -7.98949E+03  5.93881E+03 -9.26013E+03  1.11960E+04 -4.84171E+03
  1.33753E+04  8.73521E+02  1.09284E+04  7.03290E+03  1.66428E+03  1.05067E+04 -5.65215E+03  8.55320E+03
 -8.31342E+03  4.25233E+03 -2.60654E+03 -1.37332E+03  1.70694E+03 -3.10044E+03  4.68364E+03 -1.19948E+03
  4.54349E+03  3.34647E+03  1.24248E+03  8.06419E+03 -5.82662E+03  7.93791E+03 -8.73760E+03  1.80618E+03
 -5.34342E+03 -3.52586E+03  2.43417E+02 -7.71073E+03  5.15963E+03 -3.93854E+03  4.05408E+03  1.80921E+03
  4.90427E+02  4.89557E+03 -5.74089E+03  5.55029E+03 -7.62206E+03  2.90038E+03 -5.28777E+03 -1.73720E+03
 -3.28677E+03 -7.97481E+03  1.99359E+03 -8.62732E+03  7.53374E+03 -4.99145E+03  7.99548E+03  1.71639E+03
  5.74898E+03  6.07683E+03  3.32273E+02  8.03055E+03 -6.30423E+03  5.44244E+03 -7.53976E+03  2.12083E+02
 -6.36925E+03 -4.75539E+03 -1.48370E+03 -6.16444E+03  3.29583E+03 -5.48299E+03  3.57629E+03 -2.85458E+03
  1.94651E+03 -8.99132E+01  5.32800E+02  1.30281E+03  5.98991E+02 -2.45614E+02  1.14387E+03 -2.56504E+03
  5.39935E+03 -1.40037E+03  7.55640E+03  6.32898E+02  6.15362E+03  3.43177E+03  6.32534E+03  8.63900E+03
 -2.77863E+03  1.07395E+04 -8.68060E+03  8.54844E+03 -1.25923E+04  1.70839E+03 -9.60668E+03 -4.00663E+03
 -4.80473E+03 -6.85992E+03  7.60498E+02 -6.99371E+03  2.71057E+03 -3.31810E+03  2.30275E+03 -3.96604E+03
  2.33511E+03 -3.20942E+03  3.72946E+03 -1.96405E+03  3.45384E+03 -6.10329E+02  3.89995E+03 -5.32683E+02
  4.49369E+03  2.04726E+03  2.04692E+03  3.28291E+03 -2.18713E+03  4.03022E+03 -5.74905E+03  4.41330E+03
 -6.88785E+03 -1.14967E+02 -1.83842E+03 -5.37020E+03  6.72206E+02 -6.25581E+03  5.49139E+03 -6.28291E+03
  6.96770E+03 -3.63272E+03  7.77559E+03  1.75629E+03  6.27591E+03  5.19182E+03  1.68975E+03  8.89557E+03
 -2.93130E+03  7.48310E+03 -3.10723E+03  2.14674E+03 -3.05550E+03 -6.87703E+02 -9.23851E+02 -1.40681E+03
 -1.13315E+02  5.74967E+02 -6.02925E+02  2.78462E+03 -2.29065E+03  1.97004E+03 -4.47769E+03 -6.14562E+02
 -2.66711E+03 -4.25787E+03 -4.22674E+02 -5.76219E+03  2.66717E+03 -6.16863E+03  5.24346E+03 -7.96636E+02
  5.51502E+03  2.08148E+03  2.10765E+03  3.38130E+03 -1.28824E+03  5.99271E+03 -4.29723E+03  3.15353E+03
 -4.85665E+03  1.38230E+03 -4.72026E+03 -3.57395E+03  7.44084E+02 -4.90242E+03  1.47345E+03 -2.73144E+03
  4.05354E+03 -2.03778E+03  2.55882E+03  4.49587E+02  5.04836E+02  2.43380E+03 -3.79341E+02  8.05137E+02
  1.80694E+03  4.73410E+02  1.97461E+03  1.03896E+03  1.82505E+03  2.32977E+03  2.83758E+03  1.82530E+03
 -1.72660E+03  4.02053E+03 -3.35652E+03  4.47578E+03 -4.31090E+03  2.15759E+03 -5.53486E+03 -1.13422E+03
 -2.24702E+03 -4.15067E+03  1.21297E+03 -5.22314E+03  3.37416E+03 -2.73098E+03  4.02676E+03 -1.46734E+03
  2.73782E+03  3.55633E+03  1.17569E+03  3.10936E+03 -3.46388E+02  1.61119E+03 -8.98782E+02 -1.37569E+02
 -1.41178E+03 -1.24224E+03  2.22489E+03 -3.09929E+03  7.91945E+02  3.43490E+01  2.43803E+03  1.62267E+03
  9.72949E+02  1.39184E+03  1.07660E+03  3.54176E+02 -8.68508E+02  8.41696E+02  2.31182E+03 -3.70372E+02
  1.19445E+03 -5.91591E+02  2.62928E+03  1.16067E+03 -3.96098E+01  2.98756E+03 -1.20324E+03  4.71466E+03
 -1.35875E+03  3.17481E+03 -1.82193E+03  3.94303E+02 -3.98323E+03 -1.61998E+03  1.28471E+02 -1.41738E+03
  5.08208E+02 -1.64529E+03  1.06817E+03 -2.11079E+03  1.10507E+03  9.51291E+02 -4.15219E+02  1.22236E+03
 -1.25148E+03  1.79925E+03 -1.94809E+03 -1.37114E+03 -1.29679E+03 -2.23619E+03  1.07097E+03 -1.00611E+03
  1.44950E+03 -1.39681E+03  2.29425E+03  1.02303E+02  9.36989E+02 -5.25297E+02  1.40841E+02  1.04633E+03
 -4.88138E+02 -4.86729E+02 -7.97525E+02 -1.06993E+01  6.25881E+02 -1.28131E+03  1.78416E+03 -9.08947E+02
  1.38552E+03  9.35551E+02  2.92318E+03  1.17088E+03  1.46031E+03  2.26054E+03 -1.04758E+03  1.91265E+03
 -1.57933E+03  2.71309E+02 -2.49396E+03 -1.26255E+03 -1.06564E+03 -2.34738E+03  1.02819E+03 -3.57431E+02
  1.96902E+03 -6.47548E+02  1.08388E+03  5.14098E+02  7.55062E+02  1.26068E+03 -6.37501E+02  1.90076E+03
 -8.47371E+02  1.55809E+03  8.00372E+02  4.95722E+02  4.35301E+02  3.27651E+02 -8.19998E+02  2.47695E+02
  5.86302E+02  1.78623E+03 -1.84999E+03  6.10265E+02 -1.92325E+03 -7.65629E+02 -3.41839E+03 -1.19922E+03
 -5.83596E+02 -2.51022E+03  8.07685E+02 -3.69211E+03  1.80613E+03 -3.27146E+03  2.86257E+03 -9.81414E+02
  2.07665E+03  3.76743E+02  1.04860E+03  1.10192E+03  1.36900E+02  2.34834E+03 -1.01758E+03  1.97858E+03
 -7.96914E+01  1.20723E+03 -1.85140E+03 -6.57692E+02 -9.97875E+01 -2.56759E+02 -1.63070E+03  3.94700E+02
 -3.01701E+02  1.26893E+03 -1.07307E+03 -1.08131E+02  5.67080E+02 -3.62318E+02  6.53733E+02 -1.05125E+03
  1.15088E+03 -1.60453E+02  7.19269E+02 -6.37683E+02  5.92815E+02  1.59551E+03 -5.48389E+02  2.10840E+03
 -8.88840E+02  3.04642E+03 -2.27550E+03  1.37488E+03 -2.60913E+03  5.01362E+01 -1.17097E+03 -1.72460E+03
 -1.77903E+03 -1.58518E+03  8.91351E+02 -2.42205E+03  1.87051E+03 -1.56050E+03  2.37268E+03 -4.38951E+02
  1.60595E+02  4.22034E+02 -1.18413E+02  3.20057E+02 -5.81716E+02  7.94805E+02 -6.15676E+02  2.90003E+02
  6.33311E+02 -1.37575E+01  9.11271E+02 -5.05603E+02  1.07904E+03 -1.16917E+03  1.38801E+03  4.30324E+02
 -2.39970E+03  8.43984E+02 -7.14632E+02  5.80501E+02 -6.78155E+02 -6.10370E+02  9.69180E+02 -9.52667E+02
  1.61636E+03 -9.86685E+02  7.15390E+02  1.07952E+02  1.66783E+03 -1.04724E+03  3.45234E+01  1.44304E+03
  5.80566E+02  1.48062E+03 -5.01124E+02  1.13444E+03 -3.49773E+02  3.16239E+02  3.44587E+02 -1.58714E+02
  1.11216E+03  5.54378E+02 -5.99597E+02 -1.93367E+02 -1.18920E+03 -3.27108E+02 -1.66320E+03 -7.77857E+02
 -1.86403E+03  3.61156E+02 -3.81052E+02 -7.64836E+02  1.59347E+03 -1.01358E+03  8.10964E+02  4.09765E+02
  8.84278E+02 -3.12835E+02  5.89257E+02  2.35747E+02  7.31694E+01  5.69922E+02 -7.14959E+02  1.40330E+03
