 $NMID ID='MM_0lb_SNR200_18hz_g50_100.RAW', FMTDAT='(8E13.5)'
 TRAMP=1., VOLUME=1. $END
  3.09746E+05 -7.80309E+02  3.36923E+05  2.51019E+05  8.32086E+04  3.37091E+05 -1.32157E+05  2.49597E+05
 -1.89728E+05  8.34621E+04 -1.11627E+05 -3.27362E+04  3.28465E+02 -5.04241E+04  5.39651E+04  1.15119E+03
  3.58434E+04  5.26852E+04 -1.62564E+04  7.59183E+04 -6.01300E+04  6.31988E+04 -8.32215E+04  3.28950E+04
 -7.98222E+04 -1.15455E+04 -5.71426E+04 -5.12142E+04 -1.39917E+04 -6.79363E+04  2.60844E+04 -4.55915E+04
  3.87052E+04  3.84391E+03  1.54162E+04  4.70947E+04 -3.46497E+04  4.59241E+04 -6.52571E+04 -4.99475E+02
 -5.28462E+04 -5.61096E+04 -6.48012E+03 -7.72544E+04  3.23693E+04 -5.31974E+04  4.75765E+04 -1.64745E+04
  4.23982E+04  1.00954E+04  3.16144E+04  2.45506E+04  1.58431E+04  2.98178E+04 -3.44134E+03  2.62767E+04
 -2.12475E+04  1.27874E+04 -1.87971E+04 -5.83596E+03  5.10832E+03 -6.69337E+03  2.11194E+04  1.19155E+04
  6.59550E+03  3.41198E+04 -3.02452E+04  3.36396E+04 -6.20123E+04  1.81923E+03 -5.47528E+04 -4.10354E+04
 -1.42280E+04 -6.21937E+04  3.80712E+04 -4.31473E+04  5.65818E+04 -2.31589E+03  3.19376E+04  3.03560E+04
 -6.53258E+03  3.30102E+04 -2.97855E+04  1.49418E+04 -2.75579E+04 -4.70004E+03 -1.55045E+04 -1.02095E+04
 -7.76897E+03 -1.13707E+04 -1.10368E+03 -1.79320E+04  6.33351E+03 -2.24876E+04  1.59247E+04 -1.50953E+04
  1.22782E+04  4.37624E+03 -6.29801E+03  1.30540E+04 -1.95287E+04 -2.72225E+03 -7.53733E+03 -3.14719E+04
  2.07446E+04 -4.12653E+04  4.58849E+04 -1.84397E+04  4.24765E+04  1.72685E+04  1.49698E+04  4.24232E+04
 -1.53119E+04  3.08291E+04 -2.38418E+04  1.86038E+03 -9.58483E+03 -2.70444E+04  2.13247E+04 -3.21736E+04
  3.80675E+04 -8.01611E+03  3.24057E+04  2.25898E+04  1.56939E+04  4.25763E+04 -9.19936E+03  4.66064E+04
 -2.90867E+04  3.11982E+04 -3.71871E+04  8.93817E+03 -3.83089E+04 -1.57035E+04 -2.16801E+04 -3.54802E+04
  6.11133E+03 -3.54870E+04  2.98589E+04 -1.27387E+04  2.73425E+04  1.12183E+04  3.61443E+03  1.74772E+04
 -1.14660E+04  8.47437E+03 -1.00137E+04 -8.80519E+03  5.54087E+03 -1.03384E+04  1.65293E+04  6.79260E+03
  1.26091E+04  2.14820E+04 -6.02400E+03  2.41392E+04 -2.25522E+04  1.00816E+04 -2.61189E+04 -5.74675E+03
 -1.73066E+04 -1.61028E+04 -6.55563E+03 -1.71620E+04  3.54713E+03 -1.53412E+04  1.29688E+04 -1.58983E+04
  2.23499E+04 -1.23009E+04  2.86468E+04  1.84162E+03  2.21897E+04  1.66495E+04  5.59804E+03  3.31047E+04
 -1.57842E+04  2.86662E+04 -2.63280E+04  9.73034E+03 -2.07889E+04 -1.15530E+04 -3.88360E+03 -1.39772E+04
  3.25343E+03 -4.27722E+03 -2.75924E+03  4.98914E+03 -1.30956E+04  5.04821E+03 -1.27728E+04 -5.43749E+03
 -8.74228E+03 -1.64828E+04  4.32557E+03 -2.04719E+04  1.38189E+04 -1.56247E+04  1.59341E+04 -2.73665E+03
  9.78685E+03  1.14233E+04 -1.17012E+03  1.57833E+04 -1.04509E+04  8.79732E+03 -1.67664E+04 -3.21560E+03
 -1.15560E+04 -1.45930E+04 -1.10380E+03 -1.98553E+04  9.34354E+03 -1.53944E+04  1.57430E+04 -8.30933E+03
  1.53982E+04  2.10687E+03  1.07426E+04  5.53456E+03  6.15103E+03  4.40413E+02  8.01910E+03 -5.24166E+02
  1.47789E+04  2.45557E+03  1.58974E+04  1.29584E+04  9.60270E+03  2.46869E+04 -3.54887E+03  2.81547E+04
 -1.67241E+04  2.14275E+04 -2.57187E+04  1.03650E+04 -2.66835E+04 -1.46906E+03 -2.23593E+04 -1.48771E+04
 -1.06584E+04 -2.08438E+04  7.80110E+03 -2.01454E+04  1.86974E+04 -1.14770E+04  1.57824E+04  3.65729E+03
  7.02775E+03  1.19542E+04 -7.14274E+03  1.11023E+04 -1.38901E+04  3.56875E+03 -9.95075E+03 -7.87765E+03
 -3.09340E+02 -1.33878E+04  5.63160E+03 -1.07335E+04  7.91095E+03 -1.37616E+03  8.36290E+02  5.38176E+03
 -6.43483E+03  1.12085E+03 -3.00552E+03 -5.45566E+03  1.28183E+03 -1.04180E+04  7.65213E+03 -1.13368E+04
  1.36789E+04 -5.22164E+03  1.28724E+04  3.27783E+03  1.07864E+04  1.00206E+04  5.40626E+03  1.57700E+04
 -3.58617E+03  1.71837E+04 -1.03830E+04  1.17054E+04 -1.06157E+04  2.57865E+03 -8.84940E+03 -1.89578E+03
 -5.21979E+03 -3.22429E+03 -1.09165E+03  1.37477E+03 -2.31565E+03  2.64915E+03 -5.10835E+03  3.20745E+03
 -8.08517E+03 -3.08290E+02 -8.11143E+03 -7.35789E+03 -3.66663E+03 -1.18740E+04  3.37032E+03 -9.32606E+03
  7.99357E+03 -3.10703E+03  6.94970E+03  1.61348E+03  1.82529E+03  4.30878E+03 -4.38640E+03 -6.74261E+02
 -3.47021E+03 -4.94391E+03 -1.40071E+03 -7.72031E+03  4.60836E+03 -8.53762E+03  1.04900E+04 -3.65626E+03
  1.36704E+04  4.85713E+02  8.63949E+03  6.39294E+03  1.60220E+03  9.97061E+03 -4.90906E+03  8.88737E+03
 -7.95046E+03  2.86330E+03 -4.34253E+03 -2.01946E+03  4.13621E+02 -2.19683E+03  5.22532E+03 -1.15387E+03
  5.48900E+03  3.46045E+03 -2.29550E+02  5.69419E+03 -3.58280E+03  7.34380E+03 -8.75044E+03  2.54811E+03
 -4.71453E+03 -4.49594E+03  3.59124E+02 -7.11926E+03  4.53338E+03 -4.05734E+03  4.54125E+03  1.33467E+03
 -5.60318E+02  3.44841E+03 -4.01847E+03  5.27313E+03 -5.60654E+03  2.29154E+03 -4.23431E+03 -2.49060E+03
 -2.51297E+03 -7.20406E+03  1.30204E+03 -8.45086E+03  5.04590E+03 -4.48382E+03  6.27524E+03  1.94804E+03
  3.84945E+03  5.83119E+03  9.69911E+02  7.07279E+03 -5.85857E+03  4.82401E+03 -4.71329E+03 -8.50959E+02
 -5.45054E+03 -5.44503E+03 -1.21796E+03 -4.45099E+03  2.83720E+03 -4.70857E+03  3.38346E+03 -2.47361E+03
  2.63717E+03  3.29451E+02 -2.34769E+02  1.26181E+03  1.26379E+03  1.91120E+02 -4.22245E+02 -1.70345E+03
  3.98455E+03 -1.08319E+03  5.42094E+03  5.37300E+02  6.17857E+03  3.27214E+03  5.35354E+03  7.59316E+03
 -1.27749E+03  9.75123E+03 -8.29950E+03  7.13679E+03 -1.14496E+04  1.70239E+03 -8.71423E+03 -2.42417E+03
 -5.26358E+03 -5.97103E+03  6.46520E+01 -6.05161E+03  3.27855E+03 -1.35296E+03  2.07930E+03 -3.78933E+03
  2.79403E+02 -5.27482E+02  1.32191E+03 -2.77329E+03  4.66558E+03 -1.59261E+03  3.36137E+03  8.79365E+02
  5.73295E+03  4.25393E+02  1.94828E+03  3.99703E+03 -2.56212E+03  3.24804E+03 -4.01625E+03  2.65055E+03
 -5.14143E+03 -1.16277E+03 -3.13827E+03 -3.35460E+03  6.26494E+02 -4.78709E+03  4.16688E+03 -6.40778E+03
  4.62610E+03 -4.15716E+03  7.36472E+03  4.85021E+02  4.83308E+03  5.92011E+03  1.31885E+03  6.12406E+03
 -1.80472E+03  6.77926E+03 -3.07599E+03  1.63483E+03 -3.09115E+03 -9.29318E+02 -3.62673E+01 -9.28211E+02
 -1.82904E+02 -7.55892E+02 -7.97642E+02  2.14236E+03 -3.54643E+03  1.69987E+02 -4.23213E+03  6.62388E+02
 -2.26979E+03 -5.29445E+03  3.84004E+02 -5.18689E+03  2.66092E+03 -4.51881E+03  4.53992E+03 -1.61929E+03
  4.73392E+03  8.87321E+02  2.45697E+03  3.51558E+03 -9.17809E+02  5.38655E+03 -3.24934E+03  3.18637E+03
 -4.08042E+03  1.69793E+03 -3.91610E+03 -2.21403E+03 -1.58399E+02 -4.18834E+03  2.59349E+03 -3.05819E+03
  2.70358E+03 -2.21928E+03  1.22234E+03 -7.90254E+02  1.04972E+03  1.40799E+03  5.40897E+02  7.06944E+02
  2.09779E+03  8.10030E+02  1.79195E+03  1.33573E+03  3.40341E+02  2.30733E+03  4.27257E+02  1.50409E+03
 -7.10928E+02  3.47837E+03 -2.37729E+03  3.88688E+03 -3.33357E+03  1.35433E+03 -4.92038E+03 -4.69099E+02
 -1.10686E+03 -3.80568E+03  4.77954E+02 -4.95405E+03  1.03544E+03 -2.23322E+03  4.44019E+03 -6.27920E+02
  2.08580E+03  1.75121E+03  1.85091E+02  1.54829E+03 -1.81444E+03  7.08362E+02 -5.12396E+02  7.79566E+01
 -4.38689E+02 -2.08672E+03  1.05173E+03 -2.42494E+03  2.20792E+03 -1.33283E+03  1.06161E+03  6.19888E+02
  1.30330E+03  5.83714E+02  5.04030E+02 -1.80203E+01 -1.04740E+03  2.47266E+03  1.03489E+03  4.99527E+02
 -8.22828E+02 -5.49832E+02  2.55330E+03  3.76813E+02  4.09137E+02  2.21065E+03 -8.87303E+02  2.21715E+03
 -2.36290E+03  1.81830E+02 -1.50302E+03 -5.63918E+02 -3.30472E+03 -2.20971E+03 -4.44518E+01 -1.18439E+03
 -9.21483E+02 -2.05963E+03  1.19886E+03 -7.05672E+02  1.33376E+02  1.02621E+03 -9.97907E+02  1.24481E+03
 -7.90677E+02  7.44400E+02 -1.55229E+03 -7.61279E+02 -2.92185E+01 -3.77368E+03  1.75291E+03 -2.83840E+03
  9.91255E+02 -7.40170E+02  2.65419E+02 -8.12795E+02  7.46839E+02 -3.43889E+02  1.35146E+03  9.05042E+02
 -5.91099E+02  1.00308E+03 -1.56872E+03  4.06729E+02  8.73031E+02 -7.84639E+02  1.30167E+03 -2.19135E+02
  7.68642E+02  3.29872E+02  2.63836E+03  7.66084E+02  7.76378E+02  6.19976E+02 -4.99125E+02  1.98593E+03
 -2.21727E+03  6.07558E+02 -2.55261E+03 -4.47407E+02 -1.13528E+03 -1.43037E+03  4.29484E+02  1.10326E+02
  1.52445E+03  6.12047E+01  1.36467E+03 -4.03870E+02  5.21286E+02  1.38513E+03  8.96393E+02  1.26640E+03
 -7.57828E+02  1.44213E+03 -1.11357E+03 -3.96361E+02  3.48713E+02  3.09281E+02 -8.97112E+02  8.63208E+02
 -1.49773E+03  3.38161E+02 -1.07310E+03  5.71718E+02 -1.92752E+03 -6.12218E+01 -2.03061E+03 -1.05518E+03
 -1.11313E+03 -1.64805E+03  1.34318E+03 -3.00275E+03  1.00808E+03 -2.65196E+03  2.54659E+03 -1.33789E+03
  2.56890E+03  1.10569E+03  1.06596E+03  1.92052E+03 -7.44501E+02  1.08980E+03 -1.44041E+03  8.46101E+02
 -4.04093E+02  1.32740E+03  5.80839E+01  2.29395E+02 -4.24097E+02  9.91461E+02  6.27061E+02 -7.79771E+01
 -1.23338E+03  9.66944E+02 -1.67211E+03 -2.81018E+01 -2.60055E+02 -3.01329E+02 -6.85768E+02 -2.57014E+02
  1.07801E+03 -2.81464E+02  7.02111E+02  1.30895E+03  1.60545E+03 -3.05238E+02 -1.05777E+03  1.17279E+03
 -1.29861E+03  8.28245E+02 -3.03266E+03  2.11117E+03 -1.78172E+03 -7.23194E+01 -4.49424E+02 -1.15440E+03
 -4.88400E+02 -2.05657E+03  9.03590E+02 -7.09414E+02  1.10265E+03 -6.79756E+02  6.39982E+02 -2.88013E+02
  9.44543E+02 -1.73893E+02  2.05691E+01  2.57089E+02 -7.25812E+02 -9.78482E+02 -8.24899E+02  6.26346E+02
  9.26156E+01  7.46978E+02  2.65681E+02 -8.64396E+00  7.24559E+02  3.76761E+02  7.20274E+02  6.69593E+02
 -5.80396E+02  3.95810E+02 -2.98866E+01  1.23164E+03 -7.90919E+02  3.40923E+02  1.17818E+03 -2.48409E+03
  3.25042E+02 -4.25463E+02 -2.13945E+02 -4.75488E+02  6.45766E+01 -7.30671E+02  1.18962E+03  3.57519E+02
  2.06702E+03  2.52769E+01  3.53622E+02  1.07630E+03 -1.49439E+03  1.09100E+03 -2.85111E+02  6.71616E+02
 -3.74192E+02 -8.90877E+01  7.20261E+01  4.44581E+02 -4.48638E+02  7.68662E+02  4.01137E+02  6.50759E+02
 -1.02587E+02  1.22973E+02  7.84949E+02 -7.76075E+01  1.13291E+01 -7.25584E+02  7.27767E+01  4.68710E+01
  9.89756E+02  4.87600E+02 -2.21051E+02 -3.15302E+02 -4.96073E+02  1.47206E+03 -1.08034E+03  1.06708E+03
