 $NMID ID='MM_0lb_SNR200_19hz_g40_7.RAW', FMTDAT='(8E13.5)'
 TRAMP=1., VOLUME=1. $END
  3.10036E+05  8.72329E+02  3.37088E+05  2.50868E+05  8.39006E+04  3.36948E+05 -1.32598E+05  2.49773E+05
 -1.88404E+05  8.29232E+04 -1.11069E+05 -3.32311E+04  1.92680E+03 -5.03332E+04  5.33194E+04 -5.28539E+02
  3.45831E+04  5.29111E+04 -1.65052E+04  7.45609E+04 -6.06395E+04  6.28934E+04 -8.24062E+04  3.16381E+04
 -7.94251E+04 -1.10612E+04 -5.60163E+04 -4.99629E+04 -1.42420E+04 -6.78578E+04  2.66536E+04 -4.41625E+04
  3.83014E+04  4.03482E+03  1.48517E+04  4.62813E+04 -3.36971E+04  4.46514E+04 -6.43405E+04 -7.44283E+02
 -5.19623E+04 -5.62436E+04 -7.15414E+03 -7.43202E+04  3.24238E+04 -5.22519E+04  4.56963E+04 -1.51763E+04
  4.14993E+04  1.07011E+04  3.11837E+04  2.39883E+04  1.55917E+04  2.79652E+04 -4.03633E+03  2.67052E+04
 -2.17293E+04  1.18638E+04 -1.90788E+04 -2.67289E+03  4.98819E+03 -7.40199E+03  2.07013E+04  1.05316E+04
  7.52096E+03  3.24758E+04 -2.93671E+04  3.42134E+04 -5.99755E+04  1.13135E+03 -5.48192E+04 -4.04139E+04
 -1.26647E+04 -5.98387E+04  3.86633E+04 -4.28790E+04  5.43812E+04 -1.72553E+03  3.14122E+04  2.98679E+04
 -5.01683E+03  3.17513E+04 -2.74051E+04  1.27664E+04 -2.70918E+04 -6.61891E+03 -1.36463E+04 -1.00996E+04
 -7.59502E+03 -1.08597E+04 -1.18622E+03 -1.70068E+04  7.44251E+03 -2.29217E+04  1.49094E+04 -1.30341E+04
  1.30759E+04  3.59884E+03 -5.42078E+03  1.24266E+04 -1.82284E+04 -1.86836E+03 -7.26857E+03 -2.93561E+04
  2.02459E+04 -4.03009E+04  4.49415E+04 -1.88728E+04  4.14079E+04  1.72808E+04  1.40946E+04  4.11509E+04
 -1.55102E+04  3.09027E+04 -2.30409E+04  1.16138E+03 -7.45898E+03 -2.60907E+04  2.01305E+04 -3.07138E+04
  3.66276E+04 -7.87027E+03  3.06393E+04  2.15846E+04  1.50122E+04  4.16145E+04 -8.33105E+03  4.40660E+04
 -2.75573E+04  2.80449E+04 -3.57763E+04  7.92032E+03 -3.65297E+04 -1.59948E+04 -2.03006E+04 -3.34736E+04
  7.22985E+03 -3.28395E+04  2.87324E+04 -1.25891E+04  2.58744E+04  1.01763E+04  2.83048E+03  1.74101E+04
 -1.24087E+04  6.38954E+03 -9.49850E+03 -7.40234E+03  5.82037E+03 -8.97523E+03  1.70066E+04  6.62615E+03
  1.22227E+04  2.12073E+04 -6.78791E+03  2.38261E+04 -2.19578E+04  8.29260E+03 -2.53409E+04 -5.78447E+03
 -1.60440E+04 -1.60125E+04 -4.55457E+03 -1.60867E+04  2.77695E+03 -1.28142E+04  1.25079E+04 -1.42684E+04
  1.99774E+04 -1.19227E+04  2.54926E+04  6.42711E+02  1.94794E+04  1.52789E+04  3.92871E+03  3.13050E+04
 -1.54201E+04  2.63626E+04 -2.43656E+04  9.51393E+03 -1.88557E+04 -1.05728E+04 -3.39809E+03 -1.37015E+04
  3.29461E+03 -3.14542E+03 -2.06654E+03  5.48513E+03 -1.25488E+04  4.65678E+03 -1.37233E+04 -4.02359E+03
 -9.32791E+03 -1.46150E+04  5.22061E+03 -1.83845E+04  1.20029E+04 -1.36221E+04  1.38477E+04 -1.68783E+03
  8.02325E+03  8.45536E+03 -1.68336E+02  1.50054E+04 -9.56084E+03  7.75613E+03 -1.48464E+04 -3.06218E+03
 -1.06426E+04 -1.39204E+04  7.83319E+01 -1.83836E+04  8.11263E+03 -1.51720E+04  1.51535E+04 -6.35089E+03
  1.33341E+04  1.14221E+03  9.39667E+03  3.91407E+03  5.88392E+03 -3.83273E+02  6.76953E+03 -4.04081E+02
  1.32016E+04  1.80775E+03  1.27182E+04  1.21753E+04  8.43123E+03  2.27951E+04 -3.26175E+03  2.39946E+04
 -1.48906E+04  1.94303E+04 -2.19201E+04  8.25673E+03 -2.27315E+04 -2.74205E+03 -2.01327E+04 -1.37291E+04
 -1.03460E+04 -1.88663E+04  6.04483E+03 -1.95463E+04  1.50440E+04 -9.68195E+03  1.45850E+04  3.30058E+03
  7.58036E+03  9.62747E+03 -5.69054E+03  9.58112E+03 -1.30501E+04  3.39647E+03 -1.02888E+04 -7.91799E+03
 -5.77129E+02 -1.17200E+04  6.02712E+03 -1.01184E+04  7.45949E+03 -2.02202E+03  1.30791E+03  4.27703E+03
 -6.13491E+03  1.50094E+03 -3.41721E+03 -4.69895E+03  1.28155E+03 -1.01893E+04  7.61523E+03 -9.61065E+03
  1.13943E+04 -3.47342E+03  1.03104E+04  3.14805E+03  9.21748E+03  9.15528E+03  4.86030E+03  1.30946E+04
 -7.46981E+02  1.44743E+04 -7.70940E+03  8.52363E+03 -1.04725E+04  3.34149E+03 -8.52060E+03 -1.94392E+03
 -4.71818E+03 -2.96826E+03 -2.06060E+03  1.03755E+03 -1.50154E+03  1.88271E+03 -3.04933E+03  3.35897E+03
 -7.04403E+03  1.23561E+02 -8.54588E+03 -6.77907E+03 -2.56537E+03 -1.03020E+04  2.66078E+03 -7.66340E+03
  6.62972E+03 -2.91587E+03  4.94451E+03  1.86875E+03  1.22188E+03  1.92810E+03 -3.34115E+03 -9.48103E+02
 -2.87399E+03 -4.50757E+03 -1.65402E+03 -4.65897E+03  4.20756E+03 -7.52464E+03  9.32913E+03 -4.30452E+03
  1.06170E+04 -3.51071E+02  8.70415E+03  6.17016E+03  1.84091E+03  8.41576E+03 -3.76073E+03  7.96514E+03
 -6.91312E+03  2.17595E+03 -3.28395E+03 -1.07762E+03  5.41964E+02 -1.83011E+03  4.55149E+03 -9.71970E+02
  4.33103E+03  3.98954E+03  5.11149E+02  6.17433E+03 -4.59199E+03  5.22854E+03 -8.17764E+03  2.32999E+03
 -3.86647E+03 -3.19872E+03  3.77684E+02 -6.88580E+03  4.04144E+03 -2.70360E+03  3.64587E+03  1.85733E+03
  5.49839E+01  2.46054E+03 -3.42610E+03  4.91638E+03 -4.15886E+03  2.60747E+03 -2.61741E+03 -6.72014E+02
 -2.38007E+03 -5.50449E+03  1.42681E+03 -6.66502E+03  4.98588E+03 -4.86563E+03  5.21335E+03  1.26735E+03
  4.17503E+03  5.53435E+03  8.63472E+02  6.69436E+03 -5.23024E+03  3.23101E+03 -4.63471E+03 -1.17410E+02
 -4.83638E+03 -4.46130E+03 -2.07718E+03 -3.29855E+03  1.40374E+03 -4.93589E+03  2.62614E+03 -2.99244E+03
  2.32655E+03 -4.82348E+02  5.35643E+02  1.11602E+03  5.44993E+02  4.19933E+02 -5.88896E+01 -1.72578E+03
  2.83281E+03  1.33748E+02  4.17704E+03  9.40643E+02  5.84742E+03  2.21819E+03  3.82505E+03  6.47419E+03
 -1.34425E+03  7.11896E+03 -7.57207E+03  5.87430E+03 -8.76342E+03  1.44594E+03 -7.12471E+03 -2.41294E+03
 -3.70568E+03 -5.87535E+03 -3.21188E+02 -3.45910E+03  2.33394E+03 -1.59863E+03  2.42851E+03 -1.39628E+03
  1.43462E+03 -1.55281E+03  3.22063E+03 -3.44676E+03  3.08797E+03 -1.29906E+03  3.45653E+03  1.32069E+03
  3.25349E+03  1.45982E+03  4.58333E+02  2.28146E+03 -2.00453E+03  2.48860E+03 -2.64320E+03  1.43077E+03
 -5.42974E+03 -8.15239E+02 -1.67965E+03 -2.99655E+03 -2.54771E+02 -4.03447E+03  3.42530E+03 -4.38806E+03
  4.67603E+03 -2.84122E+03  5.13215E+03  6.94734E+02  5.17248E+03  4.03610E+03  8.09345E+01  3.95075E+03
 -1.28272E+03  5.17604E+03 -3.11056E+03  2.94275E+03 -1.68212E+03 -7.39339E+02 -1.08179E+02 -5.39365E+02
  4.68499E+02 -7.08694E+02 -9.63892E+02  2.43667E+03 -3.00502E+03  1.90336E+03 -3.05468E+03 -3.07487E+02
 -1.08399E+03 -3.67044E+03 -1.87838E+02 -3.42887E+03  1.84554E+03 -2.63787E+03  3.60398E+03 -1.48836E+03
  4.58975E+03  2.59953E+03  6.29071E+02  3.71772E+03 -5.21406E+02  4.81819E+03 -3.05738E+03  2.01927E+03
 -3.13347E+03  1.18292E+03 -3.00534E+03 -1.72623E+03 -4.15480E+02 -2.60642E+03  8.81876E+02 -1.73740E+03
  1.29727E+03 -6.26873E+02  1.46855E+03  1.56885E+03 -1.01616E+02  1.53845E+03  1.06747E+03  3.05930E+02
  8.58674E+02  5.58550E+02  6.75847E+02  1.71350E+03  1.51915E+03  2.84248E+03  2.07355E+03  1.05706E+03
 -1.85781E+03  3.25488E+03 -1.49481E+03  4.23875E+03 -2.98501E+03  1.12580E+03 -2.74498E+03  7.53497E+02
 -1.46069E+03 -3.07324E+03  5.32874E+02 -3.96774E+03  2.63929E+03 -2.24656E+03  3.53257E+03 -1.08500E+03
  2.88889E+03  1.10194E+03  6.73827E+02  1.42876E+03 -3.13208E+02  1.33296E+03 -1.19112E+03 -7.46962E+02
 -5.31183E+01 -1.20512E+03  1.76928E+03 -1.01681E+03  1.47889E+03 -2.49444E+02  9.35333E+02  9.40231E+02
  1.02871E+03  3.28430E+01  7.60326E+02  6.04933E+02  3.30048E+02  1.14379E+03  1.18676E+03 -3.00768E+02
  1.19061E+02  1.83293E+02  1.55959E+03  3.33532E+02  6.54949E+02  3.03093E+03 -3.00116E+02  2.64983E+03
 -1.71421E+03  1.75625E+03 -1.89683E+03  2.24914E+02 -2.74190E+03 -2.81071E+02  2.79381E+02 -2.57134E+02
 -8.11473E+01 -3.03167E+02  6.48067E+02 -8.31526E+02  8.37368E+02  1.18171E+03 -1.08239E+03  2.07339E+03
 -1.23856E+03  9.41675E+02 -6.06917E+02 -1.61687E+03 -1.44363E+03 -2.46637E+03 -1.87328E+02 -1.40797E+03
  7.64667E+02 -2.06815E+03 -2.56334E+02 -7.50325E+02  9.75457E+01 -3.51999E+02  8.00622E+02  1.07822E+03
 -4.92021E+02  6.54832E+02 -9.66720E+02  6.38166E+02 -3.94588E+02 -4.68639E+02  2.66898E+03 -1.68182E+03
  1.90951E+03 -9.49171E+02  2.92200E+03  6.26401E+02  9.95333E+02  2.35271E+03 -4.99013E+01  2.23179E+03
 -1.26701E+03 -9.34843E+01 -2.48584E+03 -5.81618E+02 -1.07250E+03 -8.86722E+02 -9.89664E+01  4.84695E+02
  1.43735E+03 -8.18139E+02  1.37767E+03  5.76783E+02 -5.01909E+02  1.77072E+03  4.13912E+02  8.39702E+02
 -1.67193E+03  1.06525E+03 -6.40949E+02 -1.04380E+00  1.49040E+02  3.04579E+02  1.72733E+02  3.48756E+02
 -7.26022E+02  3.40583E+02 -2.10437E+03  1.35060E+02 -1.20069E+03  2.20399E+02 -1.94450E+03 -1.39785E+03
 -9.60658E+02 -1.31915E+03  1.09430E+02 -3.02583E+03  9.52297E+02 -1.73954E+03  3.00387E+03 -1.29535E+03
  2.54950E+03 -1.61860E+03  4.24677E+02  1.07766E+03 -5.60795E+02  5.77491E+02 -5.04567E+02  1.98668E+03
 -1.22098E+02  5.39993E+02 -1.70400E+03 -4.69714E+02 -5.79769E+01 -1.13547E+02 -1.03664E+03  4.54527E+02
 -1.23344E+03  1.55842E+02 -1.20879E+03  5.74140E+02  2.07556E+02 -1.26032E+02 -5.65288E+02 -9.66878E+02
  1.01352E+03 -4.40508E+02  2.90663E+02 -8.74790E+02  2.81160E+02  4.00064E+02 -1.45204E+03  1.74136E+03
 -1.30175E+03  1.68388E+03 -1.19759E+03  1.26541E+03  2.86521E+02 -1.96224E+02 -1.64041E+03 -2.32936E+03
 -2.85528E+02 -1.03846E+03 -9.76097E+02 -5.50711E+02  7.09923E+02 -2.91327E+02  1.67269E+03 -9.95951E+02
  4.37460E+02  4.39845E+02  1.23136E+02 -3.53135E+02  1.17649E+02  9.10841E+02 -2.88134E+02 -3.79411E+02
  9.01531E+02  1.67887E+03 -4.18103E+02  5.63197E+02  3.96177E+02  7.84701E+02 -4.80889E+02  6.46683E+02
 -8.09846E+02  4.60977E+02  1.39269E+02  9.91592E+02 -1.45333E+03 -4.19754E+02  4.33018E+02 -7.89768E+01
  4.96917E+02 -6.83658E+02  8.52102E+02 -7.25472E+02  7.09572E+02 -3.25913E+02  4.77396E+02  1.23295E+02
 -1.99958E+02  2.05269E+02  1.62463E+02  6.88542E+02 -1.71749E+02 -5.87692E+02  2.51799E+01  8.53098E+02
 -4.95433E+02  2.11816E+01 -3.93214E+01  8.17802E+02 -6.34942E+02 -7.79854E+02  2.42458E+02 -4.96682E+02
 -2.00410E+03 -1.19441E+02 -8.56128E+02 -1.00954E+03 -4.10644E+02 -8.24417E+02  6.41939E+02  7.81929E+02
  8.88682E+02 -4.80742E+02  4.63832E+02  1.62840E+03 -1.16064E+02  4.17853E+02 -1.57173E+03  3.84266E+00
