 $NMID ID='MM_0lb_SNR200_9hz_g55_94.RAW', FMTDAT='(8E13.5)'
 TRAMP=1., VOLUME=1. $END
  3.09080E+05 -1.77602E+02  3.37800E+05  2.51789E+05  8.49964E+04  3.38767E+05 -1.32782E+05  2.53001E+05
 -1.91438E+05  8.48311E+04 -1.12798E+05 -3.29694E+04  2.38964E+03 -5.12089E+04  5.42229E+04 -1.50461E+03
  3.52159E+04  5.26393E+04 -1.71469E+04  7.56289E+04 -6.16325E+04  6.43622E+04 -8.44201E+04  3.26672E+04
 -8.23050E+04 -1.13087E+04 -5.80457E+04 -5.44474E+04 -1.49882E+04 -6.92743E+04  2.88817E+04 -4.67296E+04
  3.87353E+04  5.21090E+03  1.74216E+04  4.93550E+04 -3.41175E+04  4.89628E+04 -6.82060E+04  8.66236E+02
 -5.54625E+04 -5.70386E+04 -7.16366E+03 -7.98864E+04  3.59669E+04 -5.74089E+04  4.97217E+04 -1.90297E+04
  4.48113E+04  1.23618E+04  3.29820E+04  2.65382E+04  1.52907E+04  3.17110E+04 -5.50297E+03  2.76831E+04
 -2.27903E+04  1.19492E+04 -1.94379E+04 -6.17077E+03  6.35749E+03 -6.68623E+03  2.45401E+04  1.43674E+04
  7.23400E+03  3.80456E+04 -3.39684E+04  3.71544E+04 -6.65399E+04  1.99468E+03 -5.82719E+04 -4.49747E+04
 -1.22582E+04 -6.73231E+04  4.34840E+04 -4.84568E+04  6.19417E+04 -1.70209E+03  3.70277E+04  3.28350E+04
 -5.11405E+03  3.98528E+04 -3.20198E+04  1.92239E+04 -3.42699E+04 -2.80668E+03 -1.89987E+04 -9.39356E+03
 -9.86009E+03 -1.35046E+04  3.90518E+01 -1.99257E+04  1.04224E+04 -2.61271E+04  1.47572E+04 -1.35121E+04
  9.03445E+03  6.90860E+03 -9.38050E+03  1.19232E+04 -2.39912E+04 -6.92681E+03 -7.49661E+03 -3.70980E+04
  2.48482E+04 -4.86345E+04  5.20458E+04 -1.95173E+04  4.75585E+04  2.17465E+04  1.79302E+04  4.70874E+04
 -1.68938E+04  3.68065E+04 -2.76057E+04  1.84908E+03 -1.32090E+04 -2.99992E+04  2.24548E+04 -3.68306E+04
  4.55304E+04 -1.22993E+04  4.27139E+04  2.56449E+04  2.18900E+04  5.24928E+04 -9.32135E+03  5.69359E+04
 -3.64349E+04  3.82604E+04 -4.78097E+04  1.33561E+04 -4.88715E+04 -1.91211E+04 -2.68987E+04 -4.26305E+04
  6.74519E+03 -4.22219E+04  3.47482E+04 -1.71274E+04  3.28030E+04  1.25692E+04  6.40547E+03  2.23340E+04
 -1.46630E+04  9.81022E+03 -1.15109E+04 -7.09778E+03  6.93496E+03 -1.34554E+04  1.85476E+04  5.77522E+03
  1.39949E+04  2.21202E+04 -4.94092E+03  2.83816E+04 -2.38393E+04  1.53040E+04 -3.27506E+04 -3.66078E+03
 -2.47914E+04 -1.75320E+04 -1.27064E+04 -2.56921E+04  4.19401E+03 -2.63230E+04  2.25129E+04 -2.34477E+04
  3.25759E+04 -1.44466E+04  3.74806E+04  5.19276E+03  2.66437E+04  2.52129E+04  5.95340E+03  4.24108E+04
 -1.85355E+04  3.31338E+04 -2.99995E+04  1.21548E+04 -2.33560E+04 -8.99962E+03 -4.04527E+03 -1.23201E+04
  4.28447E+02 -8.62159E+02 -7.80234E+03  1.01811E+04 -1.84908E+04  3.98115E+03 -2.01308E+04 -1.07809E+04
 -1.06252E+04 -2.45689E+04  6.62060E+03 -2.83745E+04  1.81697E+04 -2.02578E+04  2.31079E+04 -2.86647E+03
  1.50783E+04  1.68181E+04 -2.09691E+03  2.28133E+04 -1.68397E+04  1.41087E+04 -2.47658E+04 -5.12189E+03
 -1.69499E+04 -2.04545E+04 -8.81198E+02 -2.75263E+04  1.36926E+04 -2.40393E+04  2.39083E+04 -1.28316E+04
  2.18500E+04 -2.41099E+03  1.72820E+04  5.12723E+03  1.00248E+04  2.64349E+03  1.15013E+04 -1.57376E+03
  2.34553E+04  1.60190E+03  2.52844E+04  1.66451E+04  1.83548E+04  3.84673E+04 -3.77705E+03  4.60542E+04
 -2.66614E+04  3.84939E+04 -4.18872E+04  1.89037E+04 -4.62011E+04 -4.22598E+03 -3.68057E+04 -2.62327E+04
 -1.45973E+04 -3.87240E+04  1.33484E+04 -3.37536E+04  2.85730E+04 -1.61358E+04  2.48060E+04  8.66446E+03
  9.04716E+03  1.99742E+04 -1.18066E+04  1.54890E+04 -2.06449E+04  1.61195E+03 -1.57530E+04 -1.25703E+04
 -3.16817E+02 -1.88294E+04  1.20625E+04 -1.50641E+04  1.52028E+04  5.95584E+01  2.25980E+03  1.12383E+04
 -8.79054E+03  6.44684E+03 -1.09261E+04 -7.48752E+03 -1.17075E+03 -1.73948E+04  1.31125E+04 -2.01159E+04
  2.41117E+04 -1.21796E+04  2.66936E+04  2.03222E+03  2.28909E+04  1.91995E+04  9.97540E+03  2.91562E+04
 -4.50187E+03  3.19735E+04 -2.12638E+04  1.81509E+04 -2.21453E+04  5.18044E+03 -1.53238E+04 -6.19366E+03
 -6.38587E+03 -7.06724E+03 -1.26556E+03 -1.55163E+02 -2.15721E+03  4.44222E+03 -7.79227E+03  6.24824E+03
 -1.30012E+04 -1.11180E+03 -1.46318E+04 -1.30610E+04 -4.78433E+03 -2.02618E+04  6.08897E+03 -1.43924E+04
  1.26351E+04 -6.66237E+03  1.04968E+04  4.58494E+03 -9.21234E+02  6.20412E+03 -8.67205E+03 -6.11588E+02
 -7.87752E+03 -1.17686E+04 -1.17783E+03 -1.73693E+04  1.05579E+04 -1.80433E+04  2.12868E+04 -1.06536E+04
  2.43490E+04  1.44907E+03  1.77865E+04  1.50844E+04  3.25733E+03  2.11368E+04 -1.02322E+04  1.54825E+04
 -1.39807E+04  4.86270E+03 -5.76894E+03 -3.01802E+03  3.37265E+03 -5.01278E+03  8.02794E+03 -3.21737E+02
  7.51353E+03  5.73894E+03  5.74450E+02  1.29322E+04 -9.43544E+03  1.22846E+04 -1.53998E+04  2.91538E+03
 -1.17880E+04 -9.62736E+03  1.30230E+01 -1.38221E+04  8.97364E+03 -7.65099E+03  9.25289E+03  2.08752E+03
  6.94097E+02  9.55869E+03 -7.99393E+03  1.07429E+04 -1.49035E+04  4.45232E+03 -1.45523E+04 -4.62809E+03
 -8.67498E+03 -1.58676E+04  3.20736E+03 -1.96665E+04  1.72374E+04 -1.14200E+04  1.60420E+04  3.01940E+03
  1.19498E+04  1.51710E+04 -1.81425E+03  1.66277E+04 -1.20676E+04  1.16191E+04 -1.40888E+04 -1.77584E+03
 -1.15979E+04 -1.00700E+04 -3.14058E+03 -1.15593E+04  6.48205E+03 -1.07813E+04  8.52868E+03 -3.37777E+03
  4.45249E+03  2.42198E+03 -1.27000E+02  2.14994E+03  2.72123E+02 -2.25140E+03  4.03821E+03 -6.80052E+03
  1.22121E+04 -5.39570E+03  1.55999E+04  9.23590E+02  1.57052E+04  1.33227E+04  1.05335E+04  2.24161E+04
 -7.15073E+03  2.42919E+04 -1.97652E+04  1.83823E+04 -2.70803E+04  3.72592E+03 -2.12953E+04 -9.83775E+03
 -1.11079E+04 -1.77710E+04 -1.99855E+02 -1.27022E+04  4.71863E+03 -9.09643E+03  6.80104E+03 -4.88900E+03
  3.53981E+03 -2.24556E+03  3.15232E+03 -3.34200E+03  5.13296E+03 -4.15609E+03  9.25926E+03 -1.47490E+03
  9.95335E+03  2.94317E+03  4.61954E+03  1.03834E+04 -1.68019E+03  1.14482E+04 -1.18392E+04  8.74678E+03
 -1.65904E+04 -8.15671E+02 -9.31919E+03 -1.05996E+04 -3.21759E+03 -1.60672E+04  9.45485E+03 -1.57327E+04
  1.62504E+04 -8.65195E+03  1.98045E+04  3.13034E+03  1.42598E+04  1.51889E+04  1.98491E+03  2.02002E+04
 -9.70414E+03  1.44530E+04 -1.21325E+04  3.98755E+03 -6.76525E+03 -1.37031E+03 -3.13824E+03 -2.30142E+03
 -2.51478E+03 -3.07641E+02 -2.13938E+03  3.18596E+03 -7.10159E+03  3.67258E+03 -1.05884E+04 -1.29052E+03
 -6.11854E+03 -1.11121E+04 -9.68596E+02 -1.35656E+04  1.19610E+04 -1.38170E+04  1.57745E+04 -4.40523E+03
  1.52675E+04  7.64104E+03  7.53429E+03  1.41227E+04 -4.35557E+03  1.51473E+04 -1.20161E+04  1.09268E+04
 -1.44190E+04 -1.16467E+03 -1.08834E+04 -9.58122E+03 -1.16312E+03 -1.29647E+04  6.04467E+03 -1.07574E+04
  9.69397E+03 -3.66655E+03  8.24870E+03  2.70930E+03  2.89404E+03  5.43811E+03  2.97261E+03  1.63687E+03
  2.34142E+03  1.68656E+03  3.40562E+03  1.10716E+03  6.19925E+03  4.99303E+03  3.92570E+03  8.84284E+03
 -2.38421E+03  1.15894E+04 -9.63115E+03  1.19849E+04 -1.53249E+04  3.38325E+03 -1.54167E+04 -5.99070E+03
 -8.44239E+03 -1.42030E+04  1.82105E+03 -1.65199E+04  9.43006E+03 -1.08420E+04  1.11088E+04 -1.04504E+03
  1.00490E+04  6.17348E+03  2.29703E+03  8.93267E+03 -5.41214E+03  6.49842E+03 -7.23662E+03  2.14926E+02
 -3.71159E+03 -7.65288E+03  2.20956E+03 -6.04155E+03  6.07758E+03 -2.63015E+03  3.85590E+03  1.12129E+03
  4.49005E+03  3.64642E+03 -5.57972E+02  1.72582E+03 -5.85650E+02  3.45707E+03  1.62129E+03 -4.15888E+01
  2.68045E+03 -2.38475E+03  6.78102E+03  1.47522E+03  3.21977E+03  9.30139E+03 -1.40333E+03  1.13170E+04
 -6.97622E+03  6.15170E+03 -8.86255E+03  1.60766E+03 -8.51154E+03 -4.71769E+03 -4.81150E+03 -6.45897E+03
  6.14938E+02 -5.99297E+03  4.04889E+03 -1.81611E+03  2.53745E+03  2.22566E+03 -9.10234E+02  6.29835E+03
 -5.45933E+03  3.82318E+03 -7.72560E+03 -2.54103E+03 -4.62518E+03 -9.45642E+03  2.99248E+03 -8.13903E+03
  4.67741E+03 -6.82324E+03  4.68753E+03 -1.37712E+03  4.79215E+03  2.67218E+03  1.82598E+03  4.90723E+03
 -3.34882E+03  1.17259E+03 -3.83917E+03 -2.91233E+03  1.18031E+03 -7.15058E+03  7.68218E+03 -5.69269E+03
  8.57932E+03  2.46943E+03  9.22373E+03  8.15424E+03  2.40959E+03  9.10965E+03 -5.28946E+03  9.93814E+03
 -8.32648E+03  4.40645E+03 -7.55694E+03 -1.11956E+03 -5.20554E+03 -5.91075E+03  2.97382E+03 -7.55406E+03
  4.92241E+03 -4.42850E+03  4.07588E+03  4.30772E+03  2.93432E+03  5.91541E+03 -1.16450E+03  5.77215E+03
 -3.12049E+03  3.81479E+03 -2.52842E+03  2.20236E+03 -1.34878E+03  1.46859E+03 -2.61023E+03  1.45001E+03
 -4.01944E+03  4.64501E+03 -6.80193E+03  5.33000E+03 -1.12008E+04  2.61353E+03 -1.26533E+04 -7.69981E+03
 -6.50152E+03 -1.36694E+04  3.36136E+03 -1.78285E+04  1.05702E+04 -1.22824E+04  1.43794E+04 -4.08903E+03
  1.48581E+04  2.76167E+03  8.69523E+03  1.11384E+04  5.35854E+01  1.11278E+04 -4.84046E+03  7.96630E+03
 -6.20383E+03  2.19246E+03 -4.24658E+03  2.53683E+02 -1.52832E+03 -6.07161E+02 -1.65740E+03 -3.06015E+02
 -2.29149E+03  9.79030E+01 -2.10132E+03 -2.70900E+02 -2.24521E+03 -2.61593E+03 -8.77782E+02 -4.26336E+03
  4.44768E+03 -2.35460E+03  6.77439E+03 -3.58566E+02  7.79509E+03  7.35980E+03  2.95597E+03  1.13081E+04
 -3.36050E+03  1.08148E+04 -1.09749E+04  7.07966E+03 -1.25875E+04 -8.98236E+02 -1.07399E+04 -9.90010E+03
 -5.92464E+03 -9.87252E+03  2.21729E+03 -9.65544E+03  7.23308E+03 -7.50205E+03  6.91185E+03  1.43596E+03
  3.96907E+03  2.93351E+03 -1.80006E+03  3.70834E+03 -1.56522E+03 -2.09053E+03 -1.26417E+02 -1.68896E+03
  3.13223E+03 -8.88272E+02  4.23298E+03  2.80259E+03  4.01158E+03  4.62479E+03  1.34856E+03  5.67822E+03
 -3.72126E+03  3.68348E+03 -8.86994E+03  8.86580E+02 -6.59461E+03 -4.61726E+03 -3.99430E+02 -9.28664E+03
  5.22417E+03 -8.37187E+03  8.14641E+03 -3.77252E+03  8.68748E+03  2.84770E+03  5.77283E+03  7.00396E+03
  1.83716E+02  6.33089E+03 -4.64888E+03  5.25422E+03 -3.94163E+03  2.35341E+03 -3.21493E+03  5.76473E+02
 -1.97780E+03  1.46295E+03 -2.61752E+03  1.19811E+03 -4.38054E+03  4.54474E+02 -5.89439E+03 -1.28975E+03
 -6.94033E+03 -5.59612E+03 -2.63477E+03 -7.19196E+03  3.39013E+03 -8.02559E+03  5.89744E+03 -2.59198E+03
  8.64191E+03  1.03704E+03  2.99918E+03  4.72105E+03  6.52651E+02  6.95451E+03 -6.13625E+03  4.88533E+03
