 $NMID ID='MM_0lb_SNR200_20hz_g55_30.RAW', FMTDAT='(8E13.5)'
 TRAMP=1., VOLUME=1. $END
  3.09707E+05 -7.46673E+01  3.38014E+05  2.49711E+05  8.41704E+04  3.38349E+05 -1.32144E+05  2.49541E+05
 -1.89276E+05  8.18729E+04 -1.10275E+05 -3.26918E+04  1.55335E+03 -5.01031E+04  5.38364E+04  4.37477E+02
  3.56988E+04  5.33376E+04 -1.63390E+04  7.42492E+04 -5.96332E+04  6.33861E+04 -8.19834E+04  3.27272E+04
 -7.98516E+04 -1.11741E+04 -5.62204E+04 -5.05805E+04 -1.52730E+04 -6.81057E+04  2.69305E+04 -4.42592E+04
  3.91128E+04  3.23990E+03  1.61528E+04  4.69410E+04 -3.35322E+04  4.64215E+04 -6.62434E+04  1.27797E+02
 -5.15871E+04 -5.54607E+04 -6.25140E+03 -7.50815E+04  3.33110E+04 -5.25375E+04  4.70484E+04 -1.60803E+04
  4.08023E+04  1.21463E+04  3.02891E+04  2.47197E+04  1.57632E+04  2.80334E+04 -4.72979E+03  2.69338E+04
 -2.20143E+04  1.33919E+04 -1.87507E+04 -4.71404E+03  4.55672E+03 -8.00302E+03  2.18210E+04  1.22888E+04
  8.19315E+03  3.35084E+04 -3.04045E+04  3.41874E+04 -6.15584E+04  1.57855E+03 -5.54514E+04 -4.08367E+04
 -1.20269E+04 -6.12574E+04  3.80629E+04 -4.36969E+04  5.56177E+04 -2.38835E+03  3.23477E+04  3.07679E+04
 -5.99557E+03  3.42332E+04 -2.84893E+04  1.36433E+04 -2.76660E+04 -3.86568E+03 -1.49382E+04 -9.86893E+03
 -7.48124E+03 -1.10038E+04 -3.67694E+02 -1.69369E+04  7.08140E+03 -2.26412E+04  1.44174E+04 -1.47003E+04
  1.24525E+04  3.99942E+03 -6.24232E+03  1.30378E+04 -1.92507E+04 -3.52134E+03 -8.60574E+03 -2.99428E+04
  2.14184E+04 -4.03187E+04  4.40518E+04 -1.72500E+04  4.25756E+04  1.86136E+04  1.40207E+04  4.21264E+04
 -1.54345E+04  3.16272E+04 -2.26760E+04  1.28168E+03 -7.52286E+03 -2.59880E+04  2.12386E+04 -3.14643E+04
  3.82512E+04 -7.50694E+03  3.16030E+04  2.22070E+04  1.51414E+04  4.26721E+04 -8.26087E+03  4.58258E+04
 -2.89549E+04  3.01825E+04 -3.71809E+04  9.76670E+03 -3.82111E+04 -1.37828E+04 -2.13046E+04 -3.39369E+04
  6.21862E+03 -3.48442E+04  2.78806E+04 -1.27124E+04  2.60716E+04  1.07533E+04  1.96757E+03  1.80911E+04
 -1.38179E+04  7.23706E+03 -9.62401E+03 -8.15495E+03  5.78246E+03 -9.92604E+03  1.85088E+04  6.54591E+03
  1.19274E+04  2.15262E+04 -7.04204E+03  2.34342E+04 -2.10014E+04  8.46927E+03 -2.41045E+04 -5.59820E+03
 -1.66954E+04 -1.75270E+04 -4.77104E+03 -1.59310E+04  3.72016E+03 -1.49229E+04  1.22316E+04 -1.39701E+04
  2.13847E+04 -1.14399E+04  2.86527E+04  2.25509E+03  2.02863E+04  1.66587E+04  4.33788E+03  3.20117E+04
 -1.59919E+04  2.72022E+04 -2.58446E+04  8.47486E+03 -1.90611E+04 -1.21909E+04 -4.34077E+03 -1.41856E+04
  1.37843E+03 -4.67891E+03 -2.65040E+03  5.01567E+03 -1.27701E+04  4.41789E+03 -1.31115E+04 -5.04592E+03
 -8.87002E+03 -1.55485E+04  3.41566E+03 -1.90204E+04  1.25470E+04 -1.44573E+04  1.45026E+04 -1.79066E+03
  7.07529E+03  1.12577E+04 -1.47195E+03  1.63786E+04 -9.76827E+03  8.88933E+03 -1.48968E+04 -3.95839E+03
 -1.16796E+04 -1.30915E+04 -4.45062E+02 -1.89759E+04  7.81640E+03 -1.59985E+04  1.51640E+04 -6.74091E+03
  1.26122E+04  1.44548E+03  1.04431E+04  3.37835E+03  4.16919E+03  1.24589E+03  7.54864E+03 -1.62046E+03
  1.26768E+04  3.16893E+03  1.43841E+04  1.26860E+04  8.55990E+03  2.49240E+04 -3.20106E+03  2.55403E+04
 -1.53650E+04  1.97683E+04 -2.36940E+04  9.11228E+03 -2.35795E+04 -1.54102E+03 -2.00707E+04 -1.33784E+04
 -8.78786E+03 -1.92799E+04  6.84997E+03 -1.91198E+04  1.51517E+04 -1.05188E+04  1.48205E+04  3.49251E+03
  6.77603E+03  1.11840E+04 -6.52386E+03  9.77643E+03 -1.31418E+04  2.35535E+03 -1.04468E+04 -8.02979E+03
 -1.05021E+03 -1.23979E+04  5.95121E+03 -8.32985E+03  7.66134E+03 -1.76234E+03  8.81909E+02  4.92673E+03
 -6.17074E+03  7.10000E+02 -2.88566E+03 -4.85387E+03  9.60632E+02 -9.95948E+03  7.15291E+03 -9.28929E+03
  1.24507E+04 -4.90638E+03  1.15318E+04  3.09107E+03  9.85885E+03  8.37280E+03  3.65270E+03  1.31628E+04
 -1.69100E+03  1.52528E+04 -8.16060E+03  9.35378E+03 -1.05887E+04  2.61783E+03 -8.66662E+03 -1.75164E+03
 -4.22668E+03 -3.18163E+03 -1.96853E+02  1.69824E+03 -2.32886E+03  1.65548E+03 -2.62632E+03  2.89838E+03
 -7.27559E+03 -6.29894E+02 -7.88401E+03 -6.25386E+03 -4.48731E+03 -1.09669E+04  2.68389E+03 -9.16915E+03
  7.17139E+03 -3.32586E+03  4.28325E+03  2.37537E+03  6.45731E+01  2.73760E+03 -3.28093E+03 -4.84592E+01
 -3.60583E+03 -4.94082E+03 -5.79658E+02 -6.65910E+03  3.17835E+03 -7.97080E+03  8.81112E+03 -4.76869E+03
  1.11033E+04  1.09924E+03  8.02862E+03  5.86373E+03  2.22004E+03  7.40793E+03 -4.98164E+03  7.67419E+03
 -6.31570E+03  2.11687E+03 -3.81301E+03 -9.04851E+02  1.44983E+03 -1.17228E+03  3.94943E+03 -1.92195E+03
  3.44409E+03  2.62492E+03  8.18852E+02  5.16066E+03 -4.27667E+03  5.80396E+03 -7.72349E+03  1.55463E+03
 -4.65131E+03 -3.45541E+03  6.93637E+02 -6.28559E+03  3.56965E+03 -2.33521E+03  2.77805E+03  8.03695E+02
  6.17716E+02  2.21782E+03 -2.88046E+03  4.25293E+03 -3.80693E+03  2.48530E+03 -3.79891E+03 -9.08997E+02
 -2.21481E+03 -4.48058E+03  1.35473E+03 -6.12261E+03  5.57915E+03 -5.52071E+03  6.22738E+03  1.80483E+03
  4.62457E+03  4.95041E+03  4.09817E+02  5.72735E+03 -4.62263E+03  4.06010E+03 -4.63891E+03 -9.23687E+02
 -5.09648E+03 -4.16298E+03 -1.64266E+03 -4.56526E+03  2.51000E+03 -4.11710E+03  2.50833E+03 -2.26291E+03
  2.61820E+03  1.13346E+02  4.90458E+02  1.60639E+03  7.88246E+02  6.32305E+02  3.10060E+02 -1.74644E+03
  3.65082E+03  8.53742E+01  4.09313E+03  5.31683E+02  5.53602E+03  3.45944E+03  5.03702E+03  5.95142E+03
 -1.70371E+03  6.76830E+03 -7.31179E+03  5.89996E+03 -9.63804E+03  1.50030E+03 -7.09572E+03 -2.14814E+03
 -4.85924E+03 -6.88236E+03 -1.75749E+02 -5.12749E+03  2.46120E+03 -1.50902E+03  7.31646E+02 -1.20209E+03
  1.71745E+03 -4.03655E+02  1.98765E+03 -2.24869E+03  4.06531E+03 -7.64687E+02  4.70234E+03  1.40365E+03
  3.78975E+03  5.69148E+02  9.35231E+02  3.23902E+03 -2.16255E+03  2.68202E+03 -4.47296E+03  2.92975E+03
 -3.91477E+03 -7.51439E+02 -1.19986E+03 -2.75693E+03  1.99553E+02 -3.27906E+03  3.19127E+03 -4.38410E+03
  4.05919E+03 -2.56329E+03  5.54994E+03  5.88615E+01  4.33783E+03  1.96043E+03  7.68049E+02  4.95020E+03
 -1.48628E+03  5.44385E+03 -3.34477E+03  2.17921E+03 -1.61985E+03 -2.20248E+03 -6.25310E+02  4.81399E+02
 -1.62258E+03  1.67107E+02 -1.38687E+03  1.95774E+03 -1.39213E+03  3.89366E+02 -4.01949E+03  7.40694E+02
 -2.99690E+02 -3.63088E+03  1.26955E+03 -3.70744E+03  2.21528E+03 -3.05476E+03  2.40885E+03 -9.43309E+02
  3.47778E+03  1.99374E+03  1.45333E+03  2.13826E+03 -6.21645E+02  3.73678E+03 -1.37160E+03  2.54200E+03
 -3.33362E+03  7.42995E+02 -3.90519E+03 -2.22769E+03 -7.54676E+02 -3.26648E+03  2.16748E+03 -2.04928E+03
  2.52540E+03 -1.69708E+03  5.24051E+02  1.29203E+03  3.84379E+02  1.41712E+03  7.28935E+02  5.09040E+02
  2.23714E+03  7.41850E+02  1.40219E+03  8.41704E+02  4.58475E+02  1.31264E+03  1.41210E+03  1.13361E+03
 -8.67668E+02  3.24904E+03 -2.11453E+03  3.87473E+03 -2.72771E+03  1.58724E+03 -3.66812E+03  4.90469E+01
 -1.71821E+03 -3.01718E+03  9.07107E+00 -3.48057E+03  2.70599E+03 -2.28671E+03  3.31108E+03 -9.36025E+02
  2.20851E+03  5.39557E+02  8.29828E+02  2.06591E+03  6.84895E+02  7.45580E+02 -1.30519E+03 -3.89284E+02
 -9.69855E+02 -1.21129E+03  1.49395E+03 -2.76314E+03  7.80870E+02 -3.11023E+02  5.11987E+01  5.83187E+02
  7.62990E+02  6.56337E+02 -9.59446E+01 -5.91149E+02  8.17847E+01  1.04193E+03  1.82377E+03  4.17364E+02
 -6.73398E+02 -1.87353E+02  1.34212E+03  8.36498E+02 -1.20043E+03  1.65693E+03 -9.09494E+02  3.37854E+03
 -1.42038E+03  9.87360E+02 -1.82135E+03  1.12353E+02 -2.63583E+03 -3.36967E+02  9.46815E+01 -2.48131E+02
  3.49905E+02 -1.82715E+03  1.67753E+03 -7.06786E+02  1.28189E+03  1.47695E+03 -6.95380E+02  6.85890E+01
 -9.76322E+02  2.34017E+02 -9.47420E+02 -4.98177E+02 -5.52573E+02 -2.25284E+03 -8.93021E+02 -2.06813E+03
  2.67998E+02 -5.24484E+02  4.46717E+02  2.89901E+02  1.74384E+03 -1.94297E+02 -4.48674E+01  6.09044E+02
  1.04311E+01 -1.17219E+02 -8.32723E+02  6.76735E+02 -2.87502E+02 -5.09388E+02  1.24824E+03 -1.14233E+03
  1.65083E+03  3.96614E+02  2.56917E+03 -1.62851E+02  8.89886E+02  7.93404E+02 -2.37135E+02  8.84953E+02
 -1.18305E+03 -4.12210E+02 -3.07974E+02 -3.63864E+02 -6.11191E+02 -8.10760E+02  2.16735E+02 -8.12588E+02
  6.68960E+02 -6.51384E+02 -8.36157E+01 -2.73371E+02  4.83054E+02  1.98361E+03  1.98948E+02  7.53697E+02
 -7.70966E+02  1.94479E+03 -8.50136E+01 -2.40617E+02 -1.72658E+02  6.84259E+01 -3.18102E+02  1.00275E+03
 -2.97654E+02  7.12232E+02 -8.68900E+02  6.08864E+02 -8.14122E+02  5.23717E+02 -2.08992E+03 -6.18658E+02
 -1.16441E+03 -2.39308E+03  2.96467E+02 -1.23673E+03  1.24497E+03 -1.08667E+03  3.22060E+03 -1.05601E+03
  1.82242E+03 -4.71280E+02  9.76689E+02  1.92518E+03  3.92721E+02  1.39563E+03 -5.91522E+02  1.33440E+03
 -7.71850E+02  4.29210E+02  3.46566E+02 -5.00292E+02 -8.56501E+02  1.01573E+03 -7.85686E+02 -7.83432E+02
  1.26455E+02 -8.66364E+02  5.44656E+02  2.74892E+02  8.38081E+02 -5.27412E+02 -6.62867E+02 -5.91236E+02
  1.17439E+03 -4.01412E+02  1.31127E+02 -2.34893E+01  6.03817E+02  8.43071E+01 -4.85209E+02  1.59974E+03
 -1.23979E+02  9.99316E+02 -1.48977E+03  1.30903E+03 -5.88548E+02  5.21267E+02 -4.02461E+02 -5.20115E+02
 -9.29668E+02 -7.23428E+02 -1.63931E+02 -4.90330E+02  6.82305E+02 -5.47153E+02  4.58889E+02  1.89642E+01
 -2.48609E+02  5.37686E+01 -6.62552E+02 -2.89876E+01  3.55712E+02  6.15717E+02 -5.95887E+02 -5.71498E+02
  9.20342E+02  3.76088E+02  1.15094E+01 -2.17198E+02 -7.85899E+02  8.77468E+02  1.27179E+02 -6.95392E+01
 -1.81676E+03  8.94783E+02 -4.26572E+01 -1.05516E+02 -4.36383E+02 -2.68323E+02  3.90147E+02 -1.38241E+03
  1.35792E+02 -1.13139E+03  1.64333E+01  2.09158E+02  8.70601E+02 -1.06663E+03  1.16090E+03 -2.83494E+02
 -4.25433E+02 -7.32960E+01 -3.68155E+02  4.21380E+02 -6.43627E+02 -2.13918E+02 -1.03200E+03  5.38429E+02
  1.93081E+02 -3.00219E+00 -6.93540E+02  8.30133E+02 -1.98960E+02 -4.61587E+02 -1.30523E+03  6.77729E+02
 -8.92323E+02  1.12118E+03 -1.05201E+03 -7.03844E+01  9.20773E+02 -9.80414E+02  7.36509E+00  5.04041E+01
  1.01162E+03 -7.83689E+02 -4.70347E+02  9.74052E+02  2.07332E+02  1.10464E+03  1.24750E+02 -1.12773E+03
