 $NMID ID='MM_0lb_SNR200_20hz_g55_13.RAW', FMTDAT='(8E13.5)'
 TRAMP=1., VOLUME=1. $END
  3.09515E+05 -6.87517E+02  3.37102E+05  2.50746E+05  8.53488E+04  3.38210E+05 -1.31856E+05  2.50180E+05
 -1.89051E+05  8.24555E+04 -1.10485E+05 -3.32515E+04  1.30410E+03 -5.03932E+04  5.31874E+04  1.96849E+00
  3.51938E+04  5.30828E+04 -1.75588E+04  7.42574E+04 -6.12314E+04  6.24375E+04 -8.26117E+04  3.14003E+04
 -8.04158E+04 -1.05434E+04 -5.54041E+04 -5.02322E+04 -1.43267E+04 -6.85506E+04  2.72268E+04 -4.51794E+04
  3.91244E+04  4.27125E+03  1.46155E+04  4.70245E+04 -3.43345E+04  4.62990E+04 -6.51961E+04 -1.50873E+02
 -5.23080E+04 -5.67301E+04 -6.85835E+03 -7.51014E+04  3.32500E+04 -5.33925E+04  4.64441E+04 -1.67662E+04
  4.07524E+04  1.19260E+04  3.03677E+04  2.43168E+04  1.54783E+04  2.97688E+04 -4.25107E+03  2.63720E+04
 -2.21307E+04  1.27620E+04 -1.88510E+04 -4.08272E+03  4.55065E+03 -6.91848E+03  2.24902E+04  1.07975E+04
  6.95435E+03  3.36199E+04 -3.01324E+04  3.47641E+04 -6.15137E+04  2.61784E+03 -5.53150E+04 -4.18364E+04
 -1.28435E+04 -6.12519E+04  3.80979E+04 -4.34481E+04  5.51761E+04 -2.95184E+03  3.21943E+04  3.02852E+04
 -5.47946E+03  3.30161E+04 -2.90186E+04  1.37892E+04 -2.70041E+04 -4.42548E+03 -1.44214E+04 -1.10844E+04
 -6.80078E+03 -1.17619E+04 -6.45011E+02 -1.64827E+04  7.55669E+03 -2.20413E+04  1.49359E+04 -1.40510E+04
  1.23335E+04  5.47519E+03 -5.94265E+03  1.40700E+04 -1.96178E+04 -2.88420E+03 -8.67104E+03 -3.08776E+04
  2.01197E+04 -3.92460E+04  4.45696E+04 -1.76193E+04  4.22560E+04  1.80950E+04  1.50177E+04  4.21598E+04
 -1.55458E+04  3.09921E+04 -2.36490E+04  1.16079E+03 -8.66795E+03 -2.59784E+04  2.02764E+04 -3.15913E+04
  3.82601E+04 -7.45364E+03  3.18093E+04  2.18560E+04  1.58481E+04  4.22665E+04 -7.20784E+03  4.54415E+04
 -2.74395E+04  2.92701E+04 -3.74702E+04  7.77388E+03 -3.83855E+04 -1.51264E+04 -2.22981E+04 -3.34417E+04
  7.30764E+03 -3.36062E+04  2.94580E+04 -1.37098E+04  2.64319E+04  1.03127E+04  2.80651E+03  1.71744E+04
 -1.20410E+04  6.62708E+03 -9.46460E+03 -8.34917E+03  5.88310E+03 -1.02260E+04  1.80051E+04  5.88918E+03
  1.28153E+04  2.10862E+04 -7.21448E+03  2.36197E+04 -2.14463E+04  9.65473E+03 -2.37284E+04 -5.85246E+03
 -1.71928E+04 -1.67410E+04 -4.77973E+03 -1.69866E+04  3.83109E+03 -1.56026E+04  1.22801E+04 -1.36347E+04
  2.18048E+04 -1.20083E+04  2.86975E+04  5.33955E+02  2.05251E+04  1.58367E+04  3.94022E+03  3.24592E+04
 -1.60403E+04  2.73489E+04 -2.62183E+04  9.66796E+03 -1.86869E+04 -1.07859E+04 -4.33258E+03 -1.40904E+04
  2.21347E+03 -4.63338E+03 -2.44517E+03  6.11497E+03 -1.17801E+04  5.97653E+03 -1.22381E+04 -4.97495E+03
 -8.94203E+03 -1.56188E+04  3.84138E+03 -2.02302E+04  1.24730E+04 -1.40866E+04  1.37493E+04 -1.65108E+03
  8.00861E+03  1.05560E+04 -1.06511E+03  1.57494E+04 -1.08226E+04  8.90788E+03 -1.66630E+04 -4.47135E+03
 -1.07506E+04 -1.39535E+04 -1.53494E+03 -1.81153E+04  8.87924E+03 -1.52641E+04  1.57361E+04 -6.73965E+03
  1.43546E+04  4.02861E+02  1.02298E+04  3.68653E+03  4.66800E+03  3.22261E+02  7.46834E+03 -1.15314E+03
  1.34372E+04  2.26717E+03  1.44138E+04  1.18543E+04  8.27137E+03  2.35385E+04 -3.62575E+03  2.55762E+04
 -1.66930E+04  1.87073E+04 -2.35696E+04  9.90609E+03 -2.48763E+04 -1.32296E+03 -2.14660E+04 -1.29942E+04
 -9.84867E+03 -1.98723E+04  7.62197E+03 -1.72813E+04  1.64169E+04 -1.06812E+04  1.54136E+04  3.75479E+03
  5.53926E+03  1.13116E+04 -6.31159E+03  1.08208E+04 -1.32953E+04  4.04253E+03 -1.05895E+04 -7.58107E+03
  1.28734E+02 -1.24469E+04  6.23026E+03 -8.84783E+03  7.58823E+03 -2.04697E+03  8.60597E+02  4.85782E+03
 -5.87796E+03  1.16720E+03 -3.48214E+03 -5.31109E+03  5.29574E+02 -1.05916E+04  7.93669E+03 -1.00159E+04
  1.14047E+04 -3.84638E+03  1.15852E+04  2.49498E+03  9.91583E+03  9.62750E+03  4.31962E+03  1.40289E+04
 -1.46246E+03  1.52131E+04 -9.67077E+03  1.09343E+04 -1.03918E+04  2.46794E+03 -8.60808E+03 -1.78769E+03
 -3.50349E+03 -3.07416E+03  9.21016E+01  1.68029E+03 -1.97295E+03  2.67202E+03 -3.03640E+03  3.70038E+03
 -7.74276E+03  4.63147E+02 -8.58239E+03 -7.01173E+03 -3.79154E+03 -1.14023E+04  3.00451E+03 -8.83019E+03
  6.11603E+03 -4.08495E+03  4.64286E+03  1.29404E+03  6.83441E+02  1.97103E+03 -2.17295E+03 -5.55027E+02
 -3.44658E+03 -4.21810E+03 -1.05502E+03 -6.33726E+03  3.86745E+03 -7.66618E+03  9.89445E+03 -3.77608E+03
  1.14504E+04  2.74423E+02  7.78923E+03  6.54974E+03  1.49027E+03  7.51420E+03 -5.26021E+03  8.35878E+03
 -5.10582E+03  1.35553E+03 -3.81151E+03 -1.22189E+03  2.36456E+03 -1.74631E+03  5.71015E+03 -1.36520E+03
  3.72906E+03  2.23188E+03  1.54425E+03  5.55129E+03 -4.10848E+03  7.30733E+03 -7.78736E+03  1.37010E+03
 -4.58524E+03 -3.31936E+03  4.99016E+02 -5.76131E+03  3.16055E+03 -2.76953E+03  3.62597E+03 -2.83972E+02
 -1.42658E+02  3.43052E+03 -4.44576E+03  4.24819E+03 -3.81348E+03  1.88679E+03 -3.13981E+03  3.88710E+01
 -2.24391E+03 -5.34676E+03  1.68125E+03 -6.78597E+03  4.72554E+03 -4.23270E+03  5.03303E+03  7.28796E+02
  5.59306E+03  5.25867E+03  8.27939E+02  7.32873E+03 -5.05043E+03  4.21745E+03 -4.98422E+03  5.50826E+02
 -5.70718E+03 -4.57105E+03 -1.40649E+03 -4.84416E+03  2.35913E+03 -4.40083E+03  2.26973E+03 -2.40921E+03
  2.93247E+03 -4.94774E+02 -3.92613E+02  8.86151E+02  1.25823E+03  1.74975E+01 -7.35822E+02 -7.30193E+02
  3.91358E+03 -6.51444E+02  4.22450E+03  8.08114E+02  5.94937E+03  1.42140E+03  4.43919E+03  6.95105E+03
 -8.68558E+02  7.14174E+03 -6.91393E+03  6.62304E+03 -8.66234E+03  1.32537E+03 -7.17693E+03 -4.82198E+02
 -3.38034E+03 -4.67221E+03 -2.47192E+02 -4.52797E+03  1.82662E+03 -2.74510E+03  1.42993E+03 -1.00986E+03
  1.58970E+03 -2.07142E+03  1.97561E+03 -1.25514E+03  3.69250E+03 -1.57514E+03  3.06517E+03  2.32500E+02
  3.39206E+03  1.14083E+03  7.11693E+02  3.64096E+03 -7.91194E+02  2.46218E+03 -4.93346E+03  3.34325E+03
 -4.27097E+03 -1.45409E+03 -9.02709E+02 -2.96402E+03  9.87047E+02 -5.03858E+03  2.89076E+03 -4.51256E+03
  4.63869E+03 -3.24359E+03  5.87375E+03 -2.85935E+02  5.31243E+03  3.42623E+03  5.97729E+02  4.68939E+03
 -2.11507E+03  5.66304E+03 -2.78205E+03  1.23130E+03 -3.59741E+02 -9.87373E+02 -1.28551E+03  7.03785E+01
  1.71668E+01  6.39314E+02 -3.72369E+02  1.90120E+03 -2.62191E+03  5.66206E+02 -3.70075E+03 -8.72273E+02
 -5.35938E+02 -3.46326E+03  2.95819E+02 -4.10034E+03  2.18676E+03 -2.78760E+03  1.94434E+03 -2.07928E+03
  3.44358E+03  1.50081E+03  1.14576E+03  2.41455E+03 -6.76015E+02  3.79455E+03 -3.33511E+03  2.40603E+03
 -2.19970E+03  5.66497E+02 -2.41390E+03 -9.34077E+02  4.32895E+02 -2.78629E+03  8.42767E+02 -1.80001E+03
  1.51800E+03 -8.40549E+02  2.07905E+03  1.61732E+02  7.30061E+02  2.32654E+03  8.52411E+02  2.12677E+02
  1.76167E+03  2.43444E+02  8.35403E+02  1.28576E+03  1.02764E+03  1.94128E+03  4.86336E+02  1.74093E+03
  1.10538E+02  3.15125E+03 -1.11901E+02  3.61475E+03 -1.44385E+03  1.26387E+03 -2.80212E+03  3.00547E+02
 -2.01672E+03 -3.09693E+03  6.96997E+02 -3.37537E+03  9.72697E+02 -1.92773E+03  1.39020E+03 -3.95025E+02
  1.68046E+03  2.02387E+03  3.77233E+02  2.17002E+03 -5.27646E+02  1.15705E+03 -5.24120E+02 -3.68692E+02
 -3.22672E+02 -9.93108E+02  6.33871E+02 -8.20218E+02  3.20922E+02 -2.54329E+02  1.53482E+03  7.87399E+02
  7.70892E+02  4.52751E+02  9.75893E+02 -4.29286E+02 -5.90011E+02  8.00233E+02  7.77705E+02 -1.24170E+02
 -3.75736E+02  1.94501E+02  1.63683E+03 -2.77646E+02  3.53823E+02  1.65146E+03  5.55762E+02  2.99986E+03
 -1.75522E+03  7.47877E+02 -2.11001E+03 -2.04698E+02 -2.35892E+03 -5.85033E+02 -3.03959E+01  3.85492E+02
  4.06280E+02 -6.19260E+02 -1.84534E+02 -1.01673E+03  7.39523E+02  1.26590E+03 -1.31830E+02  1.09606E+03
 -1.71793E+03  4.91324E+00 -3.29816E+02 -2.30174E+03  8.76125E+01 -2.53040E+03 -6.08718E+02 -4.50034E+02
  2.84777E+02  1.14141E+02  2.66739E+02 -1.30738E+02  1.54968E+03  1.13890E+03  4.38133E+02  1.33479E+03
  2.63719E+02 -1.23280E+03 -1.16777E+03 -6.99306E+02 -6.33531E+02  2.30346E+02  1.41437E+03 -1.00863E+03
  2.12497E+03  8.38855E+02  3.37349E+03  2.65994E+01 -7.51846E+01  1.75799E+03  7.06930E+02  9.04199E+02
 -1.69427E+03  4.40218E+01 -5.24904E+02  4.20253E+02 -1.32128E+03 -1.18665E+03 -8.07894E+02 -2.24229E+02
  1.41956E+03 -9.46174E+02 -1.90967E+01  1.03916E+02  9.74306E+02  2.99655E+02 -4.85071E+02  6.00748E+02
 -1.04344E+03  6.39697E+02  4.51873E+02  2.03383E+02  6.65421E+01 -1.54646E+02 -6.68107E+02  2.09732E+02
 -4.18644E+02  1.12734E+03 -7.52770E+02  1.46179E+02 -1.13500E+03 -1.77724E+02 -1.83170E+03 -2.02442E+02
 -7.76619E+02 -2.09262E+03  1.05241E+03 -2.61163E+03  7.82877E+02 -8.90830E+02  3.27911E+03 -9.15162E+02
  3.53798E+02 -9.95590E+01  4.95673E+02  1.01132E+03 -8.54614E+02  1.26670E+03  3.92546E+01  1.04125E+03
 -1.31208E+03  2.48259E+02 -8.75400E+02  1.61048E+02  2.54756E+02  6.42318E+02 -2.93968E+02  2.44148E+02
 -1.97112E+03 -6.80673E+02 -1.36878E+03 -1.83257E+02  5.83489E+02 -4.52496E+02 -1.26207E+03 -8.33315E+02
  1.79820E+03  8.07379E+01 -7.98483E+02 -1.25863E+02  1.07888E+03  3.55647E+02 -1.99619E+03  2.00121E+03
 -1.67089E+03  1.46131E+03 -7.55791E+02  1.67664E+03 -9.53705E+02  3.08212E+02 -7.22407E+02 -2.11083E+03
 -1.10824E+03 -1.21656E+03  1.59050E+03 -3.50564E+02 -2.72640E+02  1.07247E+02 -4.36858E+02 -1.77424E+02
  8.02296E+02 -2.60759E+02 -4.37992E+02  3.70022E+02 -9.37293E+02  4.84339E+02 -1.14484E+03 -1.72329E+02
 -1.19651E+02 -1.53899E+02 -1.16921E+03 -4.90301E+02  5.37547E+02 -1.00546E+02  4.07011E+02  9.35167E+02
  3.03060E+02  1.17902E+02 -2.44201E+02 -8.46397E+01 -8.16479E+02 -7.45364E+02  6.12250E+01 -9.61434E+02
  1.41457E+03  2.10807E+01  1.24092E+02 -2.17473E+02 -5.46558E+02 -1.15000E+03 -4.33216E+02  2.91554E+02
 -3.27251E+02  9.44990E+01  3.74265E+02  3.68093E+02  3.19421E+01  6.70401E+02 -1.48992E+02  4.58514E+02
  4.15278E+02 -8.69973E+01 -2.93088E+02  7.04270E+02 -5.08786E+02  1.12431E+03  3.71034E+02 -4.19143E+02
 -1.06658E+03 -2.11072E+02 -8.02103E+02  2.06841E+02  1.44752E+02 -1.33448E+03  1.28050E+03  4.12385E+01
 -1.19083E+02 -4.82039E+01 -2.32337E+02 -4.57102E+01 -7.01373E+02  3.85448E+02  5.31861E+02 -7.18803E+01
