 $NMID ID='MM_0lb_SNR200_14hz_g50_17.RAW', FMTDAT='(8E13.5)'
 TRAMP=1., VOLUME=1. $END
  3.10969E+05  3.96284E+02  3.36739E+05  2.50765E+05  8.50076E+04  3.40016E+05 -1.32327E+05  2.50996E+05
 -1.90848E+05  8.28132E+04 -1.11741E+05 -3.31346E+04  9.30941E+02 -5.04502E+04  5.36419E+04 -1.76676E+02
  3.63817E+04  5.27362E+04 -1.80787E+04  7.58755E+04 -6.14457E+04  6.35090E+04 -8.39360E+04  3.15529E+04
 -8.07992E+04 -1.04687E+04 -5.77984E+04 -5.12693E+04 -1.52865E+04 -7.04210E+04  2.67711E+04 -4.60529E+04
  3.97153E+04  3.10703E+03  1.64180E+04  4.76646E+04 -3.57059E+04  4.62685E+04 -6.73003E+04 -4.59329E+02
 -5.32246E+04 -5.73205E+04 -6.73511E+03 -7.75256E+04  3.38383E+04 -5.56135E+04  4.83085E+04 -1.81653E+04
  4.46144E+04  1.10303E+04  3.20970E+04  2.60751E+04  1.51530E+04  2.83952E+04 -5.55165E+03  2.67053E+04
 -2.20832E+04  1.21007E+04 -1.96223E+04 -5.63148E+03  6.08653E+03 -7.20838E+03  2.27202E+04  1.19877E+04
  6.98794E+03  3.48565E+04 -3.27673E+04  3.55470E+04 -6.42846E+04  2.54618E+03 -5.62528E+04 -4.15874E+04
 -1.20618E+04 -6.31519E+04  3.94477E+04 -4.47223E+04  5.83550E+04 -2.71700E+03  3.44575E+04  3.19761E+04
 -5.12649E+03  3.63924E+04 -2.92377E+04  1.57167E+04 -3.00387E+04 -4.53858E+03 -1.68168E+04 -1.11649E+04
 -8.47814E+03 -1.30472E+04  3.16213E+01 -1.91042E+04  7.52504E+03 -2.32011E+04  1.60074E+04 -1.36138E+04
  1.23549E+04  4.57522E+03 -8.27033E+03  1.33710E+04 -2.18974E+04 -4.13080E+03 -8.01711E+03 -3.48906E+04
  2.32617E+04 -4.43852E+04  4.68427E+04 -1.97168E+04  4.38433E+04  2.01215E+04  1.56799E+04  4.45094E+04
 -1.74992E+04  3.33522E+04 -2.48781E+04  4.23767E+02 -1.03868E+04 -2.74306E+04  2.03669E+04 -3.26498E+04
  4.18114E+04 -9.18170E+03  3.59626E+04  2.39695E+04  1.78948E+04  4.63444E+04 -8.95984E+03  5.05165E+04
 -3.11197E+04  3.32312E+04 -4.16917E+04  9.45111E+03 -4.32385E+04 -1.58874E+04 -2.31324E+04 -3.77186E+04
  6.21022E+03 -3.73995E+04  3.10839E+04 -1.59333E+04  2.90529E+04  1.07560E+04  4.24058E+03  1.98725E+04
 -1.43552E+04  7.98586E+03 -1.04986E+04 -6.79802E+03  5.27282E+03 -1.01232E+04  1.75093E+04  5.09627E+03
  1.31285E+04  2.16831E+04 -7.09372E+03  2.59202E+04 -2.20589E+04  1.11808E+04 -2.80110E+04 -5.88989E+03
 -2.07322E+04 -1.69195E+04 -8.65337E+03 -2.03184E+04  4.46892E+03 -1.98652E+04  1.51830E+04 -1.75789E+04
  2.52818E+04 -1.26718E+04  3.31408E+04  2.24388E+03  2.45186E+04  2.04563E+04  5.54316E+03  3.66641E+04
 -1.68127E+04  3.02048E+04 -2.81094E+04  9.14712E+03 -2.14714E+04 -1.11346E+04 -4.76504E+03 -1.30519E+04
  2.30116E+03 -3.63723E+03 -4.63955E+03  7.04467E+03 -1.59540E+04  6.16151E+03 -1.63135E+04 -7.32541E+03
 -9.74480E+03 -1.94136E+04  5.31740E+03 -2.23438E+04  1.61111E+04 -1.56588E+04  1.86107E+04 -7.72255E+02
  1.24866E+04  1.39271E+04 -1.23844E+03  1.95075E+04 -1.33893E+04  9.82109E+03 -1.99328E+04 -3.36929E+03
 -1.45591E+04 -1.72204E+04 -1.66989E+03 -2.48443E+04  9.47860E+03 -1.88423E+04  1.96359E+04 -9.43554E+03
  1.84395E+04 -1.23042E+03  1.23597E+04  5.57475E+03  6.96284E+03  1.80421E+02  9.02698E+03 -2.19512E+03
  1.77800E+04  2.33007E+03  2.06308E+04  1.48663E+04  1.28960E+04  2.95330E+04 -2.01920E+03  3.38196E+04
 -1.99774E+04  2.73067E+04 -3.24011E+04  1.35866E+04 -3.30171E+04 -2.41069E+03 -2.73826E+04 -2.03369E+04
 -1.28974E+04 -2.81443E+04  9.22470E+03 -2.47541E+04  2.14806E+04 -1.18061E+04  1.86873E+04  5.38778E+03
  7.93418E+03  1.40163E+04 -8.42176E+03  1.26921E+04 -1.65899E+04  2.25201E+03 -1.39501E+04 -9.98944E+03
  2.52064E+02 -1.53247E+04  7.38415E+03 -1.15652E+04  1.03057E+04 -1.34532E+03  1.52189E+03  6.48860E+03
 -7.64344E+03  2.76991E+03 -6.28877E+03 -5.20193E+03 -1.19182E+03 -1.30437E+04  9.27453E+03 -1.43135E+04
  1.72562E+04 -7.72250E+03  1.79582E+04  2.35548E+03  1.56611E+04  1.20517E+04  7.94302E+03  1.98043E+04
 -4.42566E+03  2.11329E+04 -1.44141E+04  1.47566E+04 -1.55745E+04  3.79110E+03 -1.23815E+04 -3.90052E+03
 -5.43884E+03 -4.22830E+03 -1.09070E+03  4.27376E+02 -2.93946E+03  1.40783E+03 -4.34397E+03  3.77946E+03
 -1.11267E+04  1.95770E+02 -1.02598E+04 -9.57509E+03 -4.29266E+03 -1.49000E+04  4.58174E+03 -1.18594E+04
  1.02193E+04 -5.14929E+03  6.42490E+03  2.76571E+03  1.18590E+02  4.15959E+03 -5.23895E+03 -1.39088E+02
 -4.18866E+03 -7.72357E+03 -7.30637E+02 -1.03154E+04  5.92619E+03 -1.17064E+04  1.44299E+04 -5.84548E+03
  1.49716E+04  2.11204E+03  1.28325E+04  1.02256E+04  1.49873E+03  1.20872E+04 -6.72886E+03  1.04392E+04
 -9.22931E+03  4.09556E+03 -3.75666E+03 -1.72888E+03  1.30057E+03 -2.92912E+03  5.44803E+03 -1.72040E+03
  6.00904E+03  5.26020E+03  1.17378E+03  1.01212E+04 -5.66899E+03  9.75032E+03 -1.11487E+04  2.55314E+03
 -6.63601E+03 -7.11941E+03  2.48154E+02 -1.02373E+04  6.26059E+03 -5.32888E+03  6.33098E+03  3.03487E+03
  1.03215E+03  6.29254E+03 -5.95850E+03  7.37760E+03 -7.99710E+03  2.37851E+03 -7.53268E+03 -1.90542E+03
 -5.34608E+03 -1.04180E+04  2.34207E+03 -1.18069E+04  1.07683E+04 -6.53663E+03  1.00974E+04  2.62043E+03
  6.03388E+03  7.30612E+03 -1.98698E+02  1.06574E+04 -7.10782E+03  6.49880E+03 -8.62345E+03 -3.13348E+02
 -9.08777E+03 -7.51945E+03 -2.07471E+03 -9.13303E+03  4.97245E+03 -6.92837E+03  3.90513E+03 -2.76818E+03
  2.86467E+03  8.65245E+02 -3.24929E+02  1.71491E+03  8.67629E+02 -8.94386E+02  1.73894E+03 -3.53524E+03
  6.52460E+03 -1.62292E+03  9.36670E+03  1.39221E+03  9.98839E+03  5.70220E+03  7.35920E+03  1.23341E+04
 -2.06095E+03  1.58410E+04 -1.21137E+04  1.13387E+04 -1.58838E+04  2.71111E+03 -1.23203E+04 -5.52634E+03
 -7.54204E+03 -9.68279E+03 -1.89759E+02 -9.46589E+03  1.85324E+03 -4.57338E+03  2.49531E+03 -4.12509E+03
  1.30941E+03 -1.38349E+03  3.57263E+03 -4.28098E+03  4.73524E+03 -1.95088E+03  5.36793E+03 -4.21481E+02
  7.04819E+03  1.49156E+03  4.07486E+03  5.77949E+03 -3.01792E+03  5.71501E+03 -7.51148E+03  4.40709E+03
 -8.51235E+03 -7.44911E+02 -4.43529E+03 -5.56335E+03  1.16326E+01 -9.01513E+03  3.96389E+03 -8.91289E+03
  9.94587E+03 -6.00012E+03  1.05793E+04  1.31257E+03  8.33794E+03  6.33459E+03  5.71070E+02  1.11884E+04
 -5.30873E+03  8.81553E+03 -4.57841E+03  3.02292E+03 -3.60235E+03 -6.78271E+02  3.62045E+02 -2.90951E+02
 -3.54760E+02 -3.21681E+02 -1.42258E+03  2.14353E+03 -2.82143E+03  1.92047E+03 -5.80967E+03 -2.04503E+03
 -4.76738E+03 -5.95657E+03  9.06393E+02 -7.82849E+03  5.47923E+03 -7.47695E+03  6.80763E+03 -2.80725E+03
  7.33486E+03  3.57474E+03  3.15789E+03  7.04406E+03 -1.44038E+03  8.06329E+03 -6.26093E+03  6.41663E+03
 -7.25876E+03  4.25672E+01 -5.22817E+03 -4.31192E+03 -5.25352E+02 -6.30481E+03  3.16808E+03 -5.57067E+03
  6.11175E+03 -2.30877E+03  3.63695E+03  1.09094E+03  1.18944E+03  3.43507E+03  1.00112E+03  1.25177E+02
  2.51302E+03  4.70889E+02  2.06580E+03  1.78200E+03  2.84872E+03  3.11287E+03  2.13907E+03  4.30197E+03
 -9.76415E+02  5.72535E+03 -5.66843E+03  7.66644E+03 -6.82392E+03  2.25360E+03 -6.26631E+03 -2.17433E+03
 -3.99717E+03 -7.72691E+03  7.86667E+02 -8.44672E+03  3.96175E+03 -5.11920E+03  5.36834E+03 -1.38234E+03
  4.83382E+03  4.13393E+03  1.28302E+03  5.21701E+03 -2.55943E+03  1.33903E+03 -2.62091E+03 -3.92314E+02
 -2.02370E+03 -3.64769E+03  2.77115E+03 -3.54678E+03  3.53238E+03 -1.02909E+03  4.17153E+03  7.89590E+02
  1.23260E+03  9.49205E+02  1.90880E+02  9.47918E+02 -5.59630E+02  1.37088E+03  2.14282E+03 -4.16954E+02
 -2.37520E+01 -3.13078E+02  2.74383E+03  3.79246E+02  1.06720E+03  4.62754E+03 -3.85698E+02  5.36548E+03
 -3.14577E+03  2.96902E+03 -5.30658E+03  3.12692E+02 -3.85512E+03 -2.17492E+03 -1.44961E+03 -2.91592E+03
  1.23933E+03 -2.48416E+03  1.96619E+03 -1.59322E+03  3.13877E+03  5.22939E+02 -1.11586E+03  3.50472E+03
 -4.68920E+03  1.71030E+03 -1.92044E+03 -2.18739E+03 -1.18799E+03 -4.13118E+03  4.87484E+02 -3.70743E+03
  1.24983E+03 -1.92208E+03  1.78217E+03 -4.81143E+02  2.61337E+03  2.33789E+02  9.45005E+02  3.00614E+03
 -2.02863E+03  1.17064E+03 -1.51847E+03 -1.69752E+03 -1.11274E+02 -2.01359E+03  3.64305E+03 -2.98398E+03
  4.68069E+03  8.79605E+02  5.89904E+03  2.50697E+03  1.83231E+03  2.93520E+03 -6.91776E+02  5.00745E+03
 -4.11090E+03  1.70026E+03 -4.01642E+03  4.25903E+02 -1.81007E+03 -3.24497E+03  9.52469E+02 -1.43778E+03
  2.97418E+03 -1.23926E+03  2.16696E+03  1.53928E+03  1.37359E+03  2.91179E+03  6.28617E+02  2.89707E+03
 -1.30375E+03  9.46885E+02 -1.91789E+03 -9.51336E+02 -3.25988E+02  1.36390E+03 -2.28763E+03  1.30148E+03
 -1.07867E+03  1.54200E+03 -3.66390E+03  5.16654E+02 -4.21852E+03 -8.65009E+01 -4.79656E+03 -2.49479E+03
 -2.36563E+03 -4.49124E+03  1.88517E+03 -6.86839E+03  2.66926E+03 -6.00368E+03  6.13725E+03 -2.58433E+03
  6.46519E+03  9.94158E+02  4.43508E+03  3.63622E+03  2.17034E+01  4.40400E+03 -2.20760E+03  2.51360E+03
 -1.41437E+03  1.02139E+03 -2.00908E+03 -6.92974E+02 -6.98367E+02 -6.60014E+02 -1.09366E+03 -4.52248E+02
 -1.94115E+03  1.48279E+01 -5.80904E+02 -4.05033E+02  7.06083E+02 -1.57315E+03 -5.01219E+02 -2.00820E+03
  3.12198E+03 -1.18178E+03  2.47191E+03  4.75793E+02  3.14965E+03  2.92007E+03  4.51151E+02  3.37692E+03
 -2.14959E+03  4.33579E+03 -4.20491E+03  3.76912E+03 -5.18482E+03 -3.10274E+02 -4.94861E+03 -2.48224E+03
 -1.86323E+03 -4.14244E+03  1.68100E+03 -4.29142E+03  2.84190E+03 -2.16888E+03  3.01079E+03 -1.76353E+02
  1.87807E+03  2.25283E+03  3.06017E+02  1.23352E+03 -1.46193E+03  5.42318E+02 -1.35362E+03 -5.03695E+02
  2.13901E+03 -8.45914E+02  1.17415E+03  5.32506E+02  1.12696E+03  4.24208E+02  4.74778E+02  1.82894E+03
 -2.32070E+03  1.84904E+03 -1.44700E+03  7.48785E+02 -2.72242E+03 -1.48053E+03 -8.35992E+02 -3.15906E+03
  1.59458E+03 -2.57515E+03  1.96822E+03  4.61656E+00  3.74804E+03 -1.33491E+02  8.82160E+02  2.75621E+03
  9.83932E+02  2.16804E+03 -9.80602E+02  2.13924E+03 -1.65945E+03  1.27537E+03 -2.99631E+03  1.40193E+02
 -8.63639E+01  1.66899E+03 -5.65143E+02  3.22424E+02 -9.98115E+01  1.22136E+03 -3.06886E+03 -9.50915E+01
 -1.03062E+03 -1.32412E+03 -1.02975E+03 -1.75347E+03  2.58113E+03 -2.77466E+03  2.04686E+03 -5.21064E+01
  2.42869E+03  1.67763E+03  4.39300E+02  1.80126E+03 -1.24342E+03  3.13231E+03 -9.91692E+02  2.08186E+03
