 $NMID ID='MM_0lb_SNR200_7hz_g45_25.RAW', FMTDAT='(8E13.5)'
 TRAMP=1., VOLUME=1. $END
  3.09413E+05 -4.99535E+02  3.37413E+05  2.49204E+05  8.49916E+04  3.38161E+05 -1.31974E+05  2.53949E+05
 -1.90123E+05  8.20777E+04 -1.12564E+05 -3.26383E+04 -7.25338E+02 -4.98884E+04  5.34617E+04  3.06451E+02
  3.61075E+04  5.26933E+04 -1.59737E+04  7.57760E+04 -6.10935E+04  6.38617E+04 -8.54975E+04  3.35752E+04
 -8.23424E+04 -1.14263E+04 -5.88386E+04 -5.19514E+04 -1.82799E+04 -7.23198E+04  2.97038E+04 -4.63462E+04
  4.25739E+04  3.93165E+03  1.76217E+04  4.88551E+04 -3.52077E+04  4.92116E+04 -6.93995E+04 -7.14781E+02
 -5.60566E+04 -5.79486E+04 -5.83311E+03 -7.98867E+04  3.35021E+04 -5.81342E+04  4.99896E+04 -1.80977E+04
  4.60872E+04  1.03406E+04  3.54231E+04  2.69111E+04  1.59677E+04  3.09854E+04 -6.67447E+03  2.87959E+04
 -2.21434E+04  1.23019E+04 -1.76582E+04 -5.74654E+03  8.19360E+03 -8.14598E+03  2.58402E+04  1.66002E+04
  8.19082E+03  3.94349E+04 -3.32713E+04  3.76178E+04 -6.55170E+04  1.40309E+03 -5.91958E+04 -4.46373E+04
 -1.42426E+04 -6.70924E+04  4.27980E+04 -4.71772E+04  6.44110E+04 -2.08558E+03  3.68963E+04  3.40879E+04
 -6.55537E+03  4.07847E+04 -3.27508E+04  1.98213E+04 -3.45417E+04 -4.62204E+03 -1.86081E+04 -1.22315E+04
 -9.22300E+03 -1.76895E+04  5.72071E+02 -2.07218E+04  7.14998E+03 -2.41631E+04  1.46003E+04 -1.14003E+04
  1.10757E+04  6.47359E+03 -8.51913E+03  1.26849E+04 -2.44307E+04 -8.44580E+03 -8.13081E+03 -3.69876E+04
  2.61278E+04 -4.75627E+04  5.40009E+04 -2.27195E+04  4.86517E+04  2.30446E+04  1.84636E+04  4.74209E+04
 -1.89866E+04  3.63208E+04 -2.81667E+04  3.45577E+03 -1.41019E+04 -2.99166E+04  2.14531E+04 -3.68223E+04
  4.40345E+04 -1.14532E+04  4.02132E+04  2.45426E+04  2.16502E+04  5.19542E+04 -8.66138E+03  5.94811E+04
 -3.72079E+04  3.99972E+04 -5.04773E+04  1.24352E+04 -4.98902E+04 -1.95503E+04 -2.48068E+04 -4.46293E+04
  9.01273E+03 -4.26003E+04  3.41707E+04 -1.73587E+04  3.27300E+04  1.17238E+04  7.43391E+03  2.06192E+04
 -1.42703E+04  1.13962E+04 -1.03999E+04 -9.19628E+03  6.23650E+03 -1.08771E+04  1.98693E+04  7.83884E+03
  1.68551E+04  2.50744E+04 -5.35515E+03  2.65976E+04 -2.40507E+04  1.48364E+04 -3.28679E+04 -1.16201E+03
 -2.61598E+04 -1.91036E+04 -1.21599E+04 -2.68736E+04  4.71099E+03 -2.78104E+04  2.08020E+04 -2.43705E+04
  3.50130E+04 -1.42938E+04  3.95999E+04  4.69318E+03  2.88010E+04  2.47567E+04  4.27440E+03  4.23462E+04
 -2.22340E+04  3.41031E+04 -3.11325E+04  1.25930E+04 -2.22516E+04 -1.05751E+04 -5.50393E+03 -1.28161E+04
  8.91561E+02 -3.54377E+02 -9.36762E+03  1.08017E+04 -2.02828E+04  4.96114E+03 -2.20365E+04 -1.32445E+04
 -1.36611E+04 -2.45332E+04  6.67959E+03 -2.88429E+04  2.21493E+04 -2.12273E+04  2.45191E+04 -3.23400E+03
  1.47936E+04  1.78896E+04 -1.63173E+03  2.36600E+04 -1.82471E+04  1.65231E+04 -2.59250E+04 -4.95579E+03
 -1.85458E+04 -2.26937E+04 -2.02671E+03 -2.76422E+04  1.20361E+04 -2.49882E+04  2.65170E+04 -1.23590E+04
  2.47003E+04 -4.05518E+02  1.79977E+04  5.85430E+03  1.22191E+04  1.82068E+03  1.29185E+04 -1.98403E+03
  2.35809E+04  1.91851E+03  2.75385E+04  2.06091E+04  1.99285E+04  4.14669E+04 -1.25342E+03  4.75886E+04
 -2.65084E+04  4.02539E+04 -4.63052E+04  2.14502E+04 -4.89863E+04 -3.09103E+03 -3.92561E+04 -2.94028E+04
 -1.53259E+04 -4.08491E+04  1.53778E+04 -3.50736E+04  2.98438E+04 -1.56313E+04  2.62198E+04  9.33346E+03
  9.36257E+03  2.14671E+04 -1.34091E+04  1.74978E+04 -2.27533E+04  3.52993E+03 -1.73079E+04 -1.36072E+04
 -6.01592E+02 -2.10022E+04  1.22061E+04 -1.50833E+04  1.41599E+04 -3.16892E+03  4.19416E+03  1.00412E+04
 -9.75713E+03  5.54288E+03 -1.20502E+04 -6.70531E+03 -3.35495E+03 -2.04509E+04  1.08965E+04 -2.14633E+04
  2.58053E+04 -1.25617E+04  2.84627E+04  3.84685E+03  2.69091E+04  2.25417E+04  1.13995E+04  3.28469E+04
 -7.11721E+03  3.68627E+04 -2.28870E+04  1.97006E+04 -2.58943E+04  5.66301E+03 -1.69828E+04 -7.77880E+03
 -6.19245E+03 -7.27627E+03 -7.91293E+02 -1.62144E+02 -3.58914E+03  5.04237E+03 -1.00295E+04  5.94306E+03
 -1.52778E+04 -5.00855E+02 -1.78168E+04 -1.30110E+04 -8.02541E+03 -2.22282E+04  6.65202E+03 -1.78340E+04
  1.41147E+04 -7.61084E+03  1.04934E+04  2.54792E+03 -1.94718E+03  8.33256E+03 -1.07796E+04 -1.17991E+03
 -8.89715E+03 -1.17232E+04 -1.63779E+03 -1.82080E+04  9.93638E+03 -1.98162E+04  2.13182E+04 -1.02527E+04
  2.57823E+04  3.29522E+03  1.99637E+04  1.64639E+04  4.18992E+03  2.19458E+04 -1.03512E+04  1.62701E+04
 -1.51930E+04  4.77749E+03 -6.64222E+03 -3.90409E+03  2.26412E+03 -4.59662E+03  9.72669E+03 -5.66291E+02
  8.41561E+03  7.49152E+03  1.74924E+03  1.52171E+04 -1.01838E+04  1.35526E+04 -1.76422E+04  2.25600E+03
 -1.25596E+04 -7.22463E+03  1.27818E+03 -1.31974E+04  1.01772E+04 -7.79528E+03  1.07465E+04  3.27159E+03
  2.85211E+03  1.40629E+04 -1.01223E+04  1.37284E+04 -1.51195E+04  6.74611E+03 -1.50541E+04 -5.73982E+03
 -8.05290E+03 -1.75919E+04  4.28488E+03 -1.94998E+04  1.85227E+04 -1.33485E+04  1.88914E+04  5.57954E+03
  1.18014E+04  1.62633E+04 -2.40836E+03  1.84561E+04 -1.24785E+04  1.03360E+04 -1.42617E+04 -1.13849E+03
 -1.24189E+04 -1.27210E+04 -3.96284E+02 -1.45617E+04  7.08816E+03 -1.08838E+04  7.30919E+03 -5.20898E+03
  5.75808E+03  3.03884E+03 -4.78759E+02  3.23559E+03 -2.05895E+03 -4.37569E+03  3.61496E+03 -8.20549E+03
  1.46357E+04 -8.50342E+03  2.07503E+04  1.82212E+03  2.08000E+04  1.14955E+04  1.37487E+04  2.54124E+04
 -5.66555E+03  2.72227E+04 -2.30255E+04  2.26606E+04 -3.18943E+04  5.96404E+03 -2.40888E+04 -8.99889E+03
 -1.15872E+04 -2.06321E+04 -6.49123E+02 -1.67499E+04  6.63008E+03 -9.91643E+03  6.12725E+03 -5.47626E+03
  6.27038E+03 -4.97120E+03  3.69687E+03 -5.58171E+03  7.93456E+03 -1.52345E+03  8.47071E+03 -2.82875E+02
  1.18841E+04  3.59513E+03  6.88330E+03  1.29455E+04 -3.07326E+03  1.43686E+04 -1.25270E+04  1.19057E+04
 -1.70392E+04 -1.06326E+03 -1.06137E+04 -1.25096E+04 -1.72405E+02 -1.98419E+04  9.87489E+03 -2.05193E+04
  2.03398E+04 -9.99526E+03  2.50531E+04  4.53992E+03  1.68835E+04  1.75420E+04  2.91984E+03  1.93015E+04
 -9.83270E+03  1.68981E+04 -1.24135E+04  7.04832E+03 -9.65019E+03 -9.53594E+02 -4.74931E+03 -1.02742E+03
 -1.10534E+03  9.29020E+02 -3.66970E+03  3.98752E+03 -6.20793E+03  2.86550E+03 -1.29463E+04 -9.98993E+02
 -9.03240E+03 -1.13320E+04  4.16221E+02 -1.82088E+04  1.01732E+04 -1.50200E+04  1.82610E+04 -4.75946E+03
  1.71297E+04  6.85726E+03  8.61332E+03  1.58488E+04 -4.57644E+03  1.80306E+04 -1.40622E+04  1.14305E+04
 -1.64042E+04 -1.31753E+02 -1.48691E+04 -1.15595E+04  2.57936E+02 -1.54272E+04  8.16962E+03 -1.12710E+04
  1.20853E+04 -3.11674E+03  7.83567E+03  2.18917E+03  3.02989E+03  5.61750E+03  2.26904E+03  2.35831E+03
  2.79020E+03  1.39090E+03  5.27541E+03  1.73745E+03  3.93390E+03  7.01616E+03  3.48616E+03  9.67954E+03
 -2.44497E+03  1.52876E+04 -1.31551E+04  1.42269E+04 -1.93150E+04  3.95429E+03 -1.96886E+04 -6.24019E+03
 -1.00758E+04 -1.85563E+04  4.05151E+03 -1.89525E+04  1.31360E+04 -1.45055E+04  1.51282E+04 -4.28914E+03
  1.31550E+04  7.32797E+03  2.55541E+03  1.05998E+04 -4.07761E+03  7.79812E+03 -6.20251E+03 -9.39040E+02
 -4.93334E+03 -7.44786E+03  4.87789E+03 -7.08266E+03  8.25212E+03 -5.05168E+03  7.22480E+03  1.69773E+03
  5.00877E+03  4.66822E+03  9.44318E+02  4.27214E+03 -2.98285E+02  3.38845E+03  1.08341E+03 -9.86193E+02
  1.67037E+03 -1.56068E+03  6.35064E+03  2.34617E+03  6.26165E+03  8.99210E+03 -1.01242E+03  1.13143E+04
 -8.93516E+03  8.71911E+03 -1.35989E+04  3.00676E+03 -1.07274E+04 -3.91463E+03 -4.38455E+03 -8.51273E+03
  1.04668E+03 -8.30144E+03  3.90038E+03 -3.96695E+03  1.83469E+03  1.94941E+03 -1.83673E+02  5.87446E+03
 -7.91328E+03  3.82965E+03 -7.81252E+03 -3.85588E+03 -4.18144E+03 -1.10009E+04  5.73094E+02 -9.19287E+03
  6.41319E+03 -8.06456E+03  8.75789E+03 -2.03147E+03  6.64468E+03  2.94496E+03  9.37532E+02  4.12494E+03
 -3.21435E+03  1.33278E+03 -5.79002E+03 -4.42863E+03  2.64445E+03 -9.19609E+03  1.21228E+04 -8.56194E+03
  1.46836E+04  3.29404E+01  9.70065E+03  8.53157E+03  3.39790E+03  1.32127E+04 -4.71626E+03  1.25524E+04
 -9.88829E+03  6.28516E+03 -1.19927E+04 -3.06191E+03 -6.20546E+03 -8.77427E+03  4.35333E+03 -8.82414E+03
  8.58729E+03 -2.81945E+03  7.90409E+03  3.46582E+03  4.03562E+03  7.90895E+03 -1.93479E+03  7.09888E+03
 -3.37211E+03  3.06836E+03 -2.84806E+03  1.48266E+03 -1.59116E+03  2.60043E+02 -2.25164E+03  3.66763E+03
 -2.16399E+03  3.22513E+03 -1.07032E+04  3.53310E+03 -1.30279E+04  2.09316E+03 -1.35466E+04 -8.96734E+03
 -7.04400E+03 -1.75943E+04  4.96013E+03 -2.03388E+04  1.24797E+04 -1.82904E+04  1.87675E+04 -5.18805E+03
  2.03406E+04  2.99172E+03  1.21489E+04  1.17610E+04  1.19188E+03  1.27236E+04 -5.27275E+03  1.09101E+04
 -5.64542E+03  3.83174E+03 -4.43018E+03 -7.98028E+02 -7.40553E+02 -3.49948E+02 -1.26580E+03 -1.71305E+02
 -2.17479E+03 -1.11459E+03 -2.57054E+03 -1.97202E+03 -2.23658E+03 -2.99601E+03  6.13180E+02 -5.27646E+03
  1.01917E+04 -4.29744E+03  9.88158E+03 -6.93866E+02  1.00547E+04  7.51001E+03  3.08848E+03  1.27737E+04
 -6.68674E+03  1.56551E+04 -1.42131E+04  1.08578E+04 -1.69948E+04 -1.45637E+03 -1.40530E+04 -1.29027E+04
 -4.87005E+03 -1.70114E+04  4.02586E+03 -1.52548E+04  8.62812E+03 -7.58731E+03  9.04141E+03 -2.24806E+02
  6.15258E+03  6.79995E+03  3.09083E+02  2.89547E+03 -1.88570E+03 -5.44263E+02  1.66938E+03 -4.06407E+03
  4.22213E+03 -3.47151E+03  8.88263E+03  1.17489E+03  4.12590E+03  5.14715E+03  2.29336E+02  9.14227E+03
 -7.35728E+03  6.69853E+03 -9.45159E+03  1.86905E+03 -9.30316E+03 -8.26215E+03 -1.04230E+03 -1.36025E+04
  6.50984E+03 -9.53909E+03  1.19707E+04 -3.82975E+03  1.26234E+04  4.21524E+03  7.48542E+03  7.54771E+03
  2.30671E+03  9.46366E+03 -4.34568E+03  7.72349E+03 -7.16917E+03  4.58893E+03 -4.86396E+03  7.42952E+02
 -3.57419E+03 -4.08018E+02 -2.69734E+03  6.84677E+02 -4.65158E+03  2.38889E+03 -9.12202E+03 -3.43623E+03
 -6.83110E+03 -5.71994E+03 -1.36866E+02 -1.04348E+04  4.26424E+03 -1.13526E+04  8.89419E+03 -3.52553E+03
  9.31880E+03  2.24622E+03  6.70028E+03  7.85833E+03 -1.31448E+03  9.19029E+03 -8.26014E+03  7.55617E+03
