 $NMID ID='MM_0lb_SNR200_9hz_g40_31.RAW', FMTDAT='(8E13.5)'
 TRAMP=1., VOLUME=1. $END
  3.09839E+05 -8.92080E+02  3.38009E+05  2.52919E+05  8.48897E+04  3.37491E+05 -1.32286E+05  2.51497E+05
 -1.90219E+05  8.51075E+04 -1.12282E+05 -3.15839E+04 -2.47989E+02 -5.15347E+04  5.45513E+04  7.61084E+02
  3.55964E+04  5.24757E+04 -1.80359E+04  7.74441E+04 -6.15150E+04  6.41028E+04 -8.52416E+04  3.40291E+04
 -8.04238E+04 -1.27722E+04 -5.83400E+04 -5.26112E+04 -1.53463E+04 -7.19647E+04  2.79416E+04 -4.66666E+04
  4.10182E+04  5.13395E+03  1.69835E+04  4.82141E+04 -3.49445E+04  4.73882E+04 -6.76473E+04 -1.64908E+02
 -5.46137E+04 -5.75070E+04 -7.59712E+03 -7.78235E+04  3.31601E+04 -5.73101E+04  4.95926E+04 -1.82641E+04
  4.46714E+04  1.12645E+04  3.21614E+04  2.58167E+04  1.57312E+04  3.00100E+04 -6.08854E+03  2.74175E+04
 -2.19790E+04  1.24425E+04 -1.76151E+04 -4.94466E+03  6.96392E+03 -7.05269E+03  2.45433E+04  1.33571E+04
  7.52481E+03  3.66797E+04 -3.38138E+04  3.60443E+04 -6.60456E+04  1.67806E+03 -5.81185E+04 -4.36189E+04
 -1.33092E+04 -6.47962E+04  4.23029E+04 -4.83974E+04  6.11711E+04 -1.21342E+02  3.54882E+04  3.27429E+04
 -4.98948E+03  3.86409E+04 -3.04283E+04  1.81868E+04 -3.22003E+04 -2.80168E+03 -1.78014E+04 -1.11954E+04
 -1.00916E+04 -1.48137E+04  2.41184E+00 -2.06975E+04  8.76458E+03 -2.34198E+04  1.53281E+04 -1.33228E+04
  1.08778E+04  6.57302E+03 -1.07253E+04  1.08351E+04 -2.28135E+04 -4.24289E+03 -8.14825E+03 -3.81457E+04
  2.32749E+04 -4.64660E+04  5.20885E+04 -1.98061E+04  4.86048E+04  2.06802E+04  1.66065E+04  4.55965E+04
 -1.56533E+04  3.49115E+04 -2.78187E+04  2.39020E+03 -1.20182E+04 -2.77922E+04  2.17210E+04 -3.51521E+04
  4.28523E+04 -1.00631E+04  3.97368E+04  2.51898E+04  2.11812E+04  4.73022E+04 -7.83194E+03  5.51144E+04
 -3.37638E+04  3.79490E+04 -4.64764E+04  1.05020E+04 -4.61803E+04 -1.86266E+04 -2.70524E+04 -4.10826E+04
  6.97331E+03 -4.17469E+04  3.44793E+04 -1.51940E+04  3.10274E+04  1.06559E+04  4.74131E+03  2.14445E+04
 -1.34191E+04  1.00083E+04 -1.06670E+04 -7.23402E+03  7.23467E+03 -1.04673E+04  1.75976E+04  5.65982E+03
  1.28388E+04  2.21393E+04 -5.60170E+03  2.73793E+04 -2.34570E+04  1.33278E+04 -3.11680E+04 -2.42910E+03
 -2.38750E+04 -1.87008E+04 -1.01181E+04 -2.38248E+04  3.67965E+03 -2.52407E+04  1.84094E+04 -2.18474E+04
  3.10221E+04 -1.32297E+04  3.80738E+04  4.10419E+03  2.48557E+04  2.38188E+04  3.37334E+03  3.95822E+04
 -1.93375E+04  3.32510E+04 -3.07702E+04  1.14070E+04 -2.26755E+04 -8.37524E+03 -5.36339E+03 -1.27779E+04
  1.27671E+03 -1.37464E+03 -7.14216E+03  8.87331E+03 -2.03416E+04  3.69000E+03 -1.98277E+04 -9.19029E+03
 -1.26067E+04 -2.20429E+04  6.11944E+03 -2.80249E+04  1.63223E+04 -2.04645E+04  2.06968E+04 -1.56319E+03
  1.25095E+04  1.70527E+04 -1.38240E+03  2.28079E+04 -1.60386E+04  1.29072E+04 -2.16763E+04 -3.61589E+03
 -1.65292E+04 -2.24325E+04 -1.54819E+03 -2.77587E+04  1.10367E+04 -2.22923E+04  2.20494E+04 -1.30095E+04
  2.12521E+04  2.47825E+02  1.60452E+04  5.90176E+03  8.41496E+03  2.06659E+03  1.12716E+04  5.27078E+01
  2.18441E+04  2.87233E+03  2.45505E+04  1.82576E+04  1.77940E+04  3.56798E+04 -1.30568E+03  4.14151E+04
 -2.56618E+04  3.48579E+04 -4.17654E+04  1.84593E+04 -4.20205E+04 -3.68424E+03 -3.60453E+04 -2.41409E+04
 -1.39419E+04 -3.50238E+04  1.10205E+04 -3.08360E+04  2.81614E+04 -1.39260E+04  2.32646E+04  7.50250E+03
  6.56505E+03  1.82639E+04 -1.01759E+04  1.42171E+04 -1.97304E+04  4.00591E+03 -1.52499E+04 -1.17827E+04
 -1.70537E+03 -1.89651E+04  9.82574E+03 -1.35516E+04  1.31141E+04 -3.00716E+03  3.60383E+03  7.38607E+03
 -9.42350E+03  3.45088E+03 -9.37182E+03 -6.47631E+03 -8.68456E+02 -1.75485E+04  1.20749E+04 -2.03390E+04
  2.23620E+04 -9.85115E+03  2.54137E+04  2.76025E+03  2.17393E+04  1.86314E+04  8.60141E+03  2.74850E+04
 -5.49636E+03  2.99173E+04 -1.93489E+04  1.82984E+04 -2.15995E+04  3.20122E+03 -1.29710E+04 -4.97440E+03
 -6.87150E+03 -8.42108E+03  5.99480E+02  6.30932E+02 -4.09941E+03  2.45028E+03 -7.21204E+03  5.24766E+03
 -1.36729E+04 -8.91334E+02 -1.43248E+04 -1.28374E+04 -5.44060E+03 -1.78138E+04  4.97632E+03 -1.64602E+04
  1.25651E+04 -5.99450E+03  9.34444E+03  3.81231E+03 -3.11107E+02  4.89574E+03 -7.28014E+03 -1.22058E+03
 -6.46762E+03 -1.00662E+04 -6.32035E+02 -1.32644E+04  9.87786E+03 -1.57932E+04  2.01277E+04 -8.99567E+03
  2.16706E+04  1.87044E+03  1.46996E+04  1.32329E+04  3.26153E+03  1.71396E+04 -9.83656E+03  1.56166E+04
 -1.36311E+04  4.25066E+03 -6.86663E+03 -2.36170E+03  2.94039E+03 -3.37890E+03  6.82402E+03 -1.45400E+03
  4.99075E+03  4.84552E+03  4.38877E+02  1.10889E+04 -8.71709E+03  1.37597E+04 -1.62631E+04  2.15828E+03
 -9.92812E+03 -7.83803E+03  1.48344E+03 -1.30050E+04  9.79795E+03 -6.85046E+03  7.15202E+03  3.31563E+03
  4.21835E+02  8.53462E+03 -9.03604E+03  1.09669E+04 -1.30549E+04  5.11538E+03 -1.23370E+04 -5.80979E+03
 -6.13621E+03 -1.55206E+04  4.79939E+03 -1.68493E+04  1.32697E+04 -1.06291E+04  1.46982E+04  2.71815E+03
  9.05850E+03  1.32210E+04 -7.59790E+01  1.52339E+04 -1.00597E+04  7.48900E+03 -1.39973E+04 -1.24714E+03
 -1.01043E+04 -9.45968E+03 -1.42510E+03 -1.00079E+04  6.09547E+03 -9.15387E+03  7.96144E+03 -3.70079E+03
  5.33623E+03  2.03093E+03 -2.27485E+03  2.36694E+03 -5.40672E+02 -3.07463E+03  6.25010E+02 -7.48595E+03
  1.25283E+04 -4.56465E+03  1.55221E+04  9.51301E+02  1.54364E+04  9.29643E+03  9.85068E+03  1.84844E+04
 -4.62026E+03  2.25598E+04 -1.82687E+04  1.68540E+04 -2.52678E+04  2.87624E+03 -2.02379E+04 -8.97408E+03
 -9.29274E+03 -1.63915E+04  6.76545E+01 -1.33534E+04  5.66589E+03 -9.30301E+03  6.77369E+03 -3.23389E+03
  3.82799E+03 -2.88756E+03  3.31279E+03 -2.51765E+03  5.42022E+03 -3.56468E+03  7.72626E+03 -2.04106E+03
  1.04366E+04  1.15750E+03  5.30041E+03  9.55812E+03 -1.93313E+03  9.78517E+03 -1.12406E+04  7.40141E+03
 -1.58865E+04 -2.34066E+03 -9.18797E+03 -9.79841E+03  2.29020E+02 -1.52667E+04  7.57379E+03 -1.47582E+04
  1.42694E+04 -9.46189E+03  1.87817E+04  3.37256E+03  1.33766E+04  1.25222E+04  9.77255E+02  1.57701E+04
 -5.29442E+03  1.21654E+04 -1.08653E+04  5.60016E+03 -8.34664E+03 -2.89200E+03 -2.67774E+03 -2.22162E+03
  8.38975E+02 -8.51504E+02 -2.71641E+03  3.57170E+03 -5.74739E+03  2.00718E+03 -9.31207E+03 -1.83435E+03
 -6.44305E+03 -9.92647E+03 -7.75612E+02 -1.53982E+04  8.47428E+03 -1.24654E+04  1.28853E+04 -4.42986E+03
  1.28105E+04  5.98129E+03  6.08602E+03  1.12898E+04 -2.96149E+03  1.46014E+04 -1.02379E+04  9.68971E+03
 -1.39278E+04  1.93196E+03 -1.07459E+04 -7.27066E+03 -1.82577E+03 -1.16167E+04  5.70914E+03 -9.32864E+03
  8.98597E+03 -2.07990E+03  5.23200E+03  3.16915E+03  1.09363E+03  2.35165E+03  1.88248E+03  8.90480E+02
  2.89121E+03  1.10624E+03  2.86034E+03  2.79010E+03  4.83022E+03  4.01597E+03  4.14593E+03  8.12100E+03
 -3.66096E+03  1.11283E+04 -9.96828E+03  1.19247E+04 -1.58476E+04  3.97987E+03 -1.57705E+04 -6.50082E+03
 -6.84344E+03 -1.45378E+04  1.60598E+03 -1.39297E+04  9.41982E+03 -8.83370E+03  1.10037E+04 -3.20608E+03
  8.84802E+03  5.88679E+03  3.87479E+03  9.54071E+03 -3.63885E+03  6.51023E+03 -5.80576E+03 -1.65804E+03
 -1.18189E+03 -5.98065E+03  4.78673E+03 -6.51952E+03  6.93265E+03 -2.93561E+03  5.56711E+03  1.78621E+03
  2.68625E+03  2.63749E+03  1.07363E+03  7.24828E+02 -9.08314E+02  2.20668E+03  9.42289E+02 -1.71199E+02
  2.10385E+03 -1.46956E+03  5.97092E+03  2.63263E+03  3.78817E+03  6.46187E+03 -2.38280E+03  1.13120E+04
 -7.14593E+03  5.16358E+03 -9.49143E+03  7.84850E+02 -8.03523E+03 -1.92439E+03 -4.64305E+03 -5.02420E+03
  1.71018E+03 -4.28844E+03  4.85801E+03 -3.86322E+03  3.99429E+03  4.07314E+03 -1.50983E+03  4.76401E+03
 -6.61318E+03  2.34916E+03 -6.16271E+03 -3.73267E+03 -3.54090E+03 -7.20623E+03  1.61778E+02 -7.69981E+03
  2.91811E+03 -4.02172E+03  6.46016E+03 -6.13126E+02  4.00344E+03  1.56587E+03  1.32002E+03  4.48715E+03
 -2.56059E+03  2.09818E+03 -3.18152E+03 -1.53873E+03  1.73684E+03 -5.88559E+03  7.35106E+03 -4.09917E+03
  7.82904E+03  2.90500E+02  7.73371E+03  6.50874E+03  3.86278E+03  1.00404E+04 -2.57516E+03  9.02870E+03
 -7.70274E+03  4.63583E+03 -7.84189E+03 -1.48677E+03 -4.54764E+03 -5.66042E+03  7.60209E+02 -4.75626E+03
  5.66107E+03 -3.93897E+03  4.14203E+03  2.39012E+03  1.33036E+03  5.36828E+03 -5.88968E+02  3.46177E+03
 -3.00185E+03  2.73165E+03 -1.85529E+03  2.95298E+02 -2.60675E+02 -6.92824E+02  5.10320E+02  1.87898E+03
 -2.39106E+03  4.68955E+03 -7.02273E+03  3.09976E+03 -1.03593E+04  4.23942E+01 -9.86723E+03 -6.95205E+03
 -4.03599E+03 -1.23073E+04  1.73181E+03 -1.51070E+04  9.05080E+03 -1.07379E+04  1.50333E+04 -3.33246E+03
  1.14240E+04  2.53832E+03  7.38944E+03  7.96284E+03  1.38508E+03  1.09951E+04 -3.36290E+03  8.47206E+03
 -4.88137E+03  2.71556E+03 -2.68353E+03 -1.11001E+03 -1.81530E+03 -2.35445E+03 -7.64133E+02  3.81174E+01
 -2.30903E+03  2.57722E+02 -2.48268E+03  1.66610E+03 -1.76880E+03 -4.21239E+03 -5.68892E+02 -2.84838E+03
  3.42818E+03 -3.06145E+03  6.44306E+03 -6.58121E+01  6.99278E+03  5.00979E+03  2.05942E+03  9.55666E+03
 -4.02293E+03  1.06258E+04 -1.01411E+04  6.39316E+03 -1.14169E+04 -1.10597E+03 -8.82802E+03 -7.52412E+03
 -3.99611E+03 -1.00524E+04  2.84177E+03 -8.93050E+03  6.44757E+03 -4.77381E+03  7.36011E+03 -3.49872E+02
  1.91119E+03  1.89448E+03 -7.65868E+02  1.24894E+03 -2.14688E+03 -4.95511E+01  9.81147E+02 -7.54511E+02
  2.78981E+03 -2.39630E+03  3.88045E+03  8.45876E+02  1.53639E+03  5.07980E+03  1.46283E+03  4.28903E+03
 -4.52739E+03  3.33860E+03 -6.78470E+03  2.14394E+02 -5.67575E+03 -5.97446E+03 -7.02709E+02 -9.29369E+03
  5.12784E+03 -7.09640E+03  8.41671E+03 -2.84159E+03  6.91240E+03  1.52898E+03  3.92088E+03  6.44144E+03
  8.43341E+02  7.36340E+03 -4.14895E+03  5.41205E+03 -2.74680E+03  3.02211E+03 -3.26529E+03  1.63292E+03
 -2.27356E+03  1.44742E+03 -2.28023E+03  1.14167E+03 -4.41080E+03  7.41304E+02 -2.71720E+03 -1.66006E+03
 -5.39944E+03 -3.98473E+03 -1.02402E+03 -6.59837E+03  4.03871E+03 -6.27646E+03  6.05018E+03 -3.01014E+03
  7.44665E+03 -2.10774E+01  3.07350E+03  6.40932E+03 -1.73042E+03  7.09570E+03 -5.53618E+03  4.50535E+03
