 $NMID ID='MM_0lb_SNR200_17hz_g60_33.RAW', FMTDAT='(8E13.5)'
 TRAMP=1., VOLUME=1. $END
  3.10684E+05  6.56148E+02  3.38389E+05  2.51786E+05  8.52970E+04  3.37673E+05 -1.32572E+05  2.51171E+05
 -1.90324E+05  8.32338E+04 -1.11157E+05 -3.33425E+04 -2.47528E+02 -5.02772E+04  5.37902E+04 -6.84652E+02
  3.53707E+04  5.28607E+04 -1.62911E+04  7.58619E+04 -6.01707E+04  6.41202E+04 -8.45845E+04  3.18903E+04
 -8.08957E+04 -1.18506E+04 -5.79384E+04 -5.09832E+04 -1.49498E+04 -6.96523E+04  2.68145E+04 -4.54968E+04
  3.98486E+04  3.68978E+03  1.59912E+04  4.77909E+04 -3.32227E+04  4.71826E+04 -6.63290E+04 -1.56700E+03
 -5.14707E+04 -5.71721E+04 -6.75620E+03 -7.73633E+04  3.31948E+04 -5.56139E+04  4.75447E+04 -1.71931E+04
  4.28138E+04  1.16723E+04  3.00637E+04  2.52654E+04  1.59771E+04  2.92051E+04 -5.24357E+03  2.78336E+04
 -2.16978E+04  1.35809E+04 -1.84086E+04 -5.22570E+03  5.26209E+03 -7.91431E+03  2.18710E+04  1.22047E+04
  7.23481E+03  3.50596E+04 -3.09597E+04  3.42010E+04 -6.28653E+04  1.44040E+03 -5.67735E+04 -4.20341E+04
 -1.35721E+04 -6.22619E+04  3.86919E+04 -4.54111E+04  5.73949E+04 -2.96364E+03  3.33611E+04  3.19707E+04
 -6.97676E+03  3.55997E+04 -2.95084E+04  1.50711E+04 -3.00673E+04 -4.06538E+03 -1.58200E+04 -1.09673E+04
 -7.26181E+03 -1.20738E+04  3.89624E+01 -1.71214E+04  8.45423E+03 -2.34502E+04  1.58567E+04 -1.41533E+04
  1.26892E+04  4.19479E+03 -8.12791E+03  1.26473E+04 -2.14838E+04 -4.89336E+03 -8.83563E+03 -3.28387E+04
  2.35616E+04 -4.30987E+04  4.91279E+04 -1.99015E+04  4.50491E+04  1.94914E+04  1.50612E+04  4.34186E+04
 -1.58230E+04  3.23728E+04 -2.41849E+04  1.82234E+03 -9.86426E+03 -2.75751E+04  2.10367E+04 -3.39936E+04
  4.06623E+04 -9.94014E+03  3.43792E+04  2.31281E+04  1.75830E+04  4.44455E+04 -7.84604E+03  5.00354E+04
 -3.21898E+04  3.24456E+04 -4.11280E+04  8.12077E+03 -4.15280E+04 -1.65164E+04 -2.36881E+04 -3.82349E+04
  7.63413E+03 -3.66155E+04  3.17850E+04 -1.51151E+04  2.85664E+04  1.07872E+04  3.28976E+03  1.91187E+04
 -1.34001E+04  8.78917E+03 -9.61550E+03 -8.16237E+03  5.76531E+03 -9.54045E+03  1.80034E+04  4.33458E+03
  1.28875E+04  2.17217E+04 -5.61321E+03  2.50470E+04 -2.22814E+04  1.10311E+04 -2.62535E+04 -5.76668E+03
 -1.93526E+04 -1.71110E+04 -8.57361E+03 -2.01373E+04  4.29011E+03 -1.87637E+04  1.37030E+04 -1.83814E+04
  2.49882E+04 -1.32433E+04  3.11520E+04  2.63604E+03  2.38876E+04  2.00394E+04  5.08983E+03  3.50656E+04
 -1.69534E+04  2.95372E+04 -2.86405E+04  1.07331E+04 -2.02922E+04 -1.07800E+04 -4.76800E+03 -1.44293E+04
  2.09211E+03 -1.44651E+03 -4.04194E+03  5.95906E+03 -1.56343E+04  4.75734E+03 -1.69656E+04 -7.59489E+03
 -9.65556E+03 -1.74115E+04  4.37822E+03 -2.24012E+04  1.40407E+04 -1.54053E+04  1.73184E+04 -1.82213E+03
  1.09680E+04  1.23630E+04 -5.93867E+02  1.74778E+04 -1.27232E+04  1.01770E+04 -1.84070E+04 -4.37292E+03
 -1.30079E+04 -1.56590E+04 -1.79644E+03 -2.23752E+04  9.86812E+03 -1.65330E+04  1.86234E+04 -8.42685E+03
  1.71530E+04 -1.60912E+02  1.20396E+04  4.33900E+03  6.59079E+03  5.24378E+01  9.36887E+03 -2.24609E+03
  1.60797E+04  2.80313E+03  1.78365E+04  1.41510E+04  1.09527E+04  2.90892E+04 -3.09513E+03  3.11612E+04
 -1.82962E+04  2.39228E+04 -3.00213E+04  1.29580E+04 -3.02251E+04 -2.80485E+03 -2.50640E+04 -1.80932E+04
 -1.09274E+04 -2.55090E+04  8.99260E+03 -2.32593E+04  2.07796E+04 -1.33812E+04  1.80550E+04  5.09015E+03
  7.00773E+03  1.29459E+04 -8.32812E+03  1.26787E+04 -1.59244E+04  4.75920E+02 -1.12910E+04 -1.03764E+04
  6.94395E+01 -1.38266E+04  7.23328E+03 -1.12360E+04  9.76638E+03 -1.76404E+03  1.64375E+03  5.28045E+03
 -6.35532E+03  3.47494E+03 -4.93433E+03 -5.77221E+03  8.13753E+02 -1.18132E+04  8.54473E+03 -1.23915E+04
  1.44923E+04 -7.27892E+03  1.70645E+04  2.69607E+03  1.37081E+04  1.16531E+04  6.32415E+03  1.78931E+04
 -3.01823E+03  1.82885E+04 -1.27648E+04  1.22273E+04 -1.34646E+04  3.82732E+03 -9.75687E+03 -2.72650E+03
 -5.78052E+03 -4.59360E+03 -8.02454E+02  1.21651E+03 -1.75613E+03  1.88836E+03 -4.54649E+03  4.88882E+03
 -9.58984E+03  1.60717E+00 -9.92029E+03 -8.23771E+03 -3.96220E+03 -1.30367E+04  4.35170E+03 -1.06336E+04
  8.17752E+03 -3.67767E+03  7.53041E+03  2.36673E+03  6.95412E+02  3.08455E+03 -3.99119E+03  2.79136E+02
 -4.15143E+03 -4.54490E+03 -2.18390E+02 -9.49260E+03  5.66729E+03 -1.06297E+04  1.13837E+04 -4.41618E+03
  1.44103E+04  5.93873E+02  1.01895E+04  7.42823E+03  1.74314E+03  1.11313E+04 -6.23813E+03  9.97060E+03
 -7.17178E+03  3.23770E+03 -4.09910E+03 -6.98997E+02  1.23097E+03 -2.40304E+03  5.07572E+03 -9.60447E+02
  5.09136E+03  3.74882E+03  3.23501E+02  7.61293E+03 -4.72261E+03  7.54511E+03 -1.14644E+04  2.32103E+03
 -6.46114E+03 -5.12315E+03  5.48615E+02 -8.14937E+03  4.15349E+03 -4.16128E+03  4.04730E+03  8.86584E+02
  2.60280E+02  5.04606E+03 -5.38573E+03  5.87265E+03 -5.92017E+03  2.64271E+03 -6.11004E+03 -2.97352E+03
 -3.89854E+03 -8.62260E+03  3.71742E+03 -9.00553E+03  8.30424E+03 -6.48339E+03  7.17122E+03  1.14939E+02
  6.10889E+03  6.41086E+03 -5.09160E+02  1.00190E+04 -5.43701E+03  5.34043E+03 -7.32665E+03 -1.76436E+02
 -6.76234E+03 -6.09899E+03 -1.47632E+02 -6.49176E+03  3.70962E+03 -4.97888E+03  3.00132E+03 -3.34877E+03
  2.62436E+03  6.26778E+02  3.94657E+02  1.03891E+03 -2.64180E+02 -8.56265E+02  1.48291E+03 -2.91453E+03
  4.54907E+03 -8.65688E+02  6.60781E+03  9.70200E+02  6.32738E+03  4.81839E+03  5.70295E+03  1.01308E+04
 -1.32190E+03  1.06805E+04 -1.00511E+04  7.99630E+03 -1.18003E+04  1.19108E+03 -9.32423E+03 -4.18265E+03
 -5.25999E+03 -8.37518E+03 -3.08593E+02 -6.47042E+03  2.08372E+03 -3.08232E+03  2.97406E+03 -3.03701E+03
  3.19830E+03 -2.22842E+03  2.98035E+03 -1.93877E+03  4.31525E+03 -2.39843E+03  3.63839E+03  1.98320E+02
  5.57530E+03  1.68586E+03  2.42885E+03  3.91783E+03 -2.04710E+03  2.67737E+03 -6.08317E+03  3.01039E+03
 -6.04895E+03 -1.63680E+03 -1.39814E+03 -4.87886E+03  1.40296E+03 -7.04949E+03  4.21237E+03 -6.86469E+03
  5.94325E+03 -4.92783E+03  8.90565E+03 -4.98601E+02  6.98291E+03  5.39097E+03  3.03570E+02  8.55910E+03
 -2.97830E+03  7.46611E+03 -5.11254E+03  2.40998E+03 -3.05513E+03 -3.97525E+02 -2.69164E+02 -7.59357E+02
 -5.42416E+02  1.33884E+03 -1.36263E+03  2.09997E+03 -2.84387E+03  1.25129E+03 -5.34640E+03  6.47304E+02
 -2.26483E+03 -4.31685E+03  4.04327E+02 -5.65748E+03  2.57416E+03 -5.12033E+03  5.81938E+03 -2.57248E+03
  3.83324E+03  3.13059E+03  1.53760E+03  4.50369E+03 -1.19695E+03  6.17838E+03 -3.87890E+03  4.38192E+03
 -5.19643E+03  8.41382E+02 -4.29428E+03 -3.81766E+03  5.62712E+02 -5.51573E+03  1.90843E+03 -3.17333E+03
  3.02057E+03 -1.02524E+03  2.19628E+03  4.10272E+02  5.89318E+02  1.25402E+03  1.17788E+03  3.44342E+02
  1.97083E+03  2.08832E+01  1.46294E+03  1.29093E+03  1.63861E+03  2.62238E+03  8.55060E+02  3.09097E+03
 -3.78624E+02  4.32894E+03 -3.35692E+03  5.47841E+03 -3.47080E+03  1.41807E+03 -6.29786E+03 -6.43910E+02
 -1.65908E+03 -4.83257E+03  1.00167E+03 -6.80282E+03  8.17699E+02 -4.12325E+03  3.08582E+03 -1.10951E+03
  2.28827E+03  2.67842E+03  1.63329E+03  3.68372E+03 -1.51686E+03  1.88536E+03 -2.16312E+03  3.62639E+01
 -9.90464E+02 -1.84041E+02  1.73380E+03 -2.19561E+03  1.93838E+03 -1.07081E+03  1.05276E+03 -7.23823E+01
  5.86880E+02  8.89203E+02  1.78297E+03  3.84941E+01 -3.27695E+02  1.78855E+03  1.69194E+03  4.69365E+02
 -8.88226E+01 -1.07141E+03  1.93592E+03  7.86835E+02  1.11541E+02  3.64212E+03 -7.51586E+02  2.51892E+03
 -2.37387E+03  1.30879E+03 -3.45659E+03  1.08091E+03 -3.33816E+03 -1.00824E+03 -8.57702E+02 -1.55956E+02
  2.13649E+02 -1.61851E+03  1.31870E+03 -6.75220E+02  8.87158E+02  1.39554E+03 -1.26132E+03  1.89136E+02
 -1.86430E+03  2.14605E+03 -1.10580E+03 -1.96290E+03 -1.33493E+03 -3.81377E+03  3.23273E+02 -2.12643E+03
  4.12722E+02  5.92771E+02  6.49966E+02  3.67058E+01  1.34340E+03  9.16699E+02  5.49483E+02  2.23404E+03
 -2.44608E+02 -6.61594E+01 -6.89507E+02 -2.78548E+02  1.00329E+03 -1.29302E+03  2.12626E+03 -1.03271E+03
  2.93655E+03  5.06396E+02  3.71833E+03  2.21423E+03  2.25656E+03  1.04072E+03 -1.86239E+03  1.10149E+03
 -1.16667E+03 -1.51691E+02 -1.85710E+03 -8.09504E+02 -1.74140E+02 -7.73683E+02  1.26889E+03 -2.44656E+03
  1.84427E+03 -1.59365E+03  6.55327E+02  1.72605E+03 -6.64062E+01  1.08717E+03  9.70214E+02  6.14801E+02
 -7.73067E+02  1.51288E+03 -9.50258E+02  6.26849E+02 -6.20085E+02  7.23388E+01 -1.65110E+03  1.82752E+02
 -1.08897E+03  7.44801E+02 -3.08120E+03  1.15086E+03 -1.45185E+03 -6.57410E+02 -1.94266E+03 -5.67103E+02
 -9.03789E+02 -3.06566E+03  3.60936E+02 -2.75897E+03  1.09425E+03 -2.34626E+03  3.51435E+03 -1.27869E+03
  2.18767E+03  1.61170E+02  1.93077E+03  1.24388E+03 -1.04178E+03  1.63593E+03 -8.92109E+02  1.08502E+03
 -2.23292E+03  9.90475E+02 -1.81517E+03  3.44954E+02 -8.15396E+02  1.12141E+03  1.16724E+02  3.61422E+02
 -1.21196E+03 -3.99819E+02 -7.68272E+02  4.54967E+02 -7.22866E+02 -3.83670E+02  2.26818E+02 -7.20368E+02
  1.39751E+03 -3.99688E+02  8.46359E+02  6.60551E+02  1.58548E+03  8.35077E+02 -2.70019E+02  1.72646E+03
 -2.45448E+03  3.62869E+03 -2.84027E+03  1.26617E+03 -2.28240E+03  6.61595E+02 -5.06271E+02 -1.88991E+03
 -1.24119E+03 -1.67284E+03  2.56634E+02 -1.61303E+03  2.17804E+03 -1.70133E+03  9.33079E+02  5.69572E+02
  5.70740E+02  4.53657E+02  1.17373E+03  5.45565E+02 -5.16328E+02  5.82347E+02 -3.68281E+02 -9.48874E+02
  1.55164E+03 -6.13806E+02  5.43294E+02  8.83724E+02 -9.73074E+01  9.99933E+02  5.73347E+02  6.37457E+02
 -1.12844E+03  6.08583E+02 -1.23563E+02 -3.99254E+02 -5.39232E+02 -8.36409E+02  8.84431E+00 -2.08236E+03
  1.81861E+03 -7.15537E+02  2.03225E+03  2.59665E+01  1.21756E+03 -6.71380E+02  6.47182E+02  6.52047E+02
  1.71832E+03  1.26554E+03 -5.90597E+02  1.13161E+03 -1.16473E+03  2.46768E+02 -3.07583E+01 -4.74768E+02
 -7.72966E+02 -1.02072E+03 -5.49232E+01  9.66134E+02  1.96904E+02  1.04351E+03 -1.11814E+03 -6.38764E+02
 -1.28990E+03  3.13440E+02 -5.80651E+01 -6.76274E+02  9.98319E+02 -1.98884E+03  1.76219E+03 -2.34789E+02
  7.22803E+02 -1.05082E+03 -2.37943E+02  4.63853E+01  9.87615E+02  1.59206E+03 -1.28583E+03  3.07232E+02
