 $NMID ID='MM_0lb_SNR200_8hz_g55_35.RAW', FMTDAT='(8E13.5)'
 TRAMP=1., VOLUME=1. $END
  3.09702E+05  9.25113E+02  3.37543E+05  2.51537E+05  8.56506E+04  3.38853E+05 -1.33028E+05  2.51348E+05
 -1.92132E+05  8.28513E+04 -1.10787E+05 -3.26917E+04 -5.92401E+02 -5.15925E+04  5.21990E+04 -5.89311E+02
  3.77841E+04  5.14017E+04 -1.43981E+04  7.59591E+04 -6.04341E+04  6.41270E+04 -8.53985E+04  3.21792E+04
 -8.27928E+04 -1.26072E+04 -5.85995E+04 -5.43279E+04 -1.72239E+04 -7.02406E+04  2.71485E+04 -4.54524E+04
  4.25965E+04  4.07942E+03  1.60401E+04  4.94354E+04 -3.61126E+04  4.71898E+04 -6.95937E+04  1.57412E+03
 -5.59697E+04 -5.75110E+04 -7.50433E+03 -7.85299E+04  3.54712E+04 -5.87200E+04  4.99119E+04 -1.84129E+04
  4.54043E+04  1.11213E+04  3.40060E+04  2.94004E+04  1.74863E+04  3.00563E+04 -5.07353E+03  2.91963E+04
 -2.16921E+04  1.17962E+04 -1.59939E+04 -4.62342E+03  9.49305E+03 -7.55723E+03  2.31105E+04  1.56386E+04
  8.84017E+03  3.81162E+04 -3.42281E+04  3.66786E+04 -6.71464E+04  1.79255E+03 -5.91024E+04 -4.30860E+04
 -1.42421E+04 -6.70601E+04  4.27388E+04 -4.85728E+04  6.30468E+04 -3.47732E+03  3.71393E+04  3.50661E+04
 -5.14154E+03  4.14423E+04 -3.28697E+04  1.90795E+04 -3.55240E+04 -2.64054E+03 -2.08182E+04 -1.24037E+04
 -8.75774E+03 -1.56331E+04  1.35929E+03 -1.91568E+04  8.77323E+03 -2.40973E+04  1.61126E+04 -1.30052E+04
  1.03717E+04  7.79813E+03 -1.13916E+04  1.25426E+04 -2.37328E+04 -7.80924E+03 -8.51708E+03 -3.85830E+04
  2.62104E+04 -4.81031E+04  5.38675E+04 -2.04838E+04  4.99737E+04  2.16899E+04  1.75770E+04  4.80086E+04
 -1.68829E+04  3.77442E+04 -2.86053E+04  1.46136E+03 -1.39792E+04 -2.86723E+04  2.24807E+04 -3.98033E+04
  4.52233E+04 -1.20458E+04  4.24471E+04  2.40031E+04  2.11655E+04  5.30525E+04 -1.02320E+04  5.83327E+04
 -3.56626E+04  3.97615E+04 -4.72027E+04  1.28153E+04 -4.96153E+04 -1.75618E+04 -2.91216E+04 -4.33630E+04
  7.17943E+03 -4.24716E+04  3.50582E+04 -1.80695E+04  3.34947E+04  1.14319E+04  5.53401E+03  2.16300E+04
 -1.38174E+04  1.07519E+04 -1.12125E+04 -7.63562E+03  6.24748E+03 -1.05263E+04  2.04247E+04  5.32839E+03
  1.53390E+04  2.22455E+04 -3.84879E+03  2.88015E+04 -2.27745E+04  1.48491E+04 -3.18421E+04 -2.94087E+03
 -2.60619E+04 -1.72443E+04 -1.39683E+04 -2.60732E+04  4.75983E+03 -2.79977E+04  1.90787E+04 -2.33463E+04
  3.40007E+04 -1.45143E+04  4.00324E+04  5.48201E+03  2.82349E+04  2.72287E+04  4.45865E+03  4.27326E+04
 -1.99703E+04  3.57043E+04 -3.10959E+04  1.19126E+04 -2.49985E+04 -9.92464E+03 -3.45867E+03 -1.24661E+04
 -2.77526E+02 -2.23082E+03 -9.68834E+03  7.14849E+03 -2.10100E+04  4.16950E+03 -2.23310E+04 -1.06322E+04
 -1.25654E+04 -2.32545E+04  6.96759E+03 -3.09805E+04  1.85979E+04 -2.18698E+04  2.58906E+04 -2.70737E+03
  1.45911E+04  1.76049E+04 -1.24193E+03  2.47254E+04 -1.68762E+04  1.62714E+04 -2.50823E+04 -5.04492E+03
 -1.73419E+04 -2.26520E+04 -3.41348E+03 -2.94369E+04  1.37055E+04 -2.55151E+04  2.62547E+04 -1.25175E+04
  2.37552E+04 -2.02691E+03  1.74379E+04  4.36682E+03  8.77150E+03  3.20130E+03  1.33235E+04 -1.35423E+03
  2.29064E+04  2.02895E+03  2.75778E+04  2.01444E+04  1.81891E+04  3.92692E+04 -1.95788E+03  4.78687E+04
 -2.78845E+04  4.00915E+04 -4.48343E+04  2.07315E+04 -4.90858E+04 -3.35024E+03 -3.93019E+04 -2.72793E+04
 -1.54100E+04 -4.12410E+04  1.30259E+04 -3.44148E+04  3.00986E+04 -1.68030E+04  2.59167E+04  7.78644E+03
  9.54148E+03  2.11047E+04 -1.39788E+04  1.62516E+04 -2.12686E+04  2.87955E+03 -1.70961E+04 -1.35208E+04
 -4.68370E+02 -2.11481E+04  1.12818E+04 -1.50940E+04  1.25677E+04 -1.08761E+03  2.14836E+03  9.31337E+03
 -1.04793E+04  5.54210E+03 -1.05286E+04 -8.65861E+03 -3.09971E+03 -1.97633E+04  1.30020E+04 -2.19720E+04
  2.41998E+04 -1.13731E+04  2.84413E+04  4.90865E+03  2.51544E+04  1.92268E+04  1.33900E+04  3.20926E+04
 -7.72187E+03  3.45832E+04 -2.19988E+04  2.19150E+04 -2.69155E+04  3.21322E+03 -1.54690E+04 -7.37265E+03
 -6.38865E+03 -7.78713E+03 -5.89419E+02 -6.77316E+02 -2.95302E+03  2.43753E+03 -7.69904E+03  4.68957E+03
 -1.41468E+04 -1.57743E+03 -1.65260E+04 -1.39422E+04 -5.37195E+03 -1.90391E+04  9.02945E+03 -1.66168E+04
  1.48078E+04 -6.93252E+03  9.03159E+03  5.26320E+03  9.59782E+02  7.48585E+03 -9.47117E+03 -4.14316E+02
 -8.52319E+03 -1.13020E+04 -2.32828E+03 -1.65129E+04  1.02272E+04 -1.72967E+04  2.22383E+04 -8.79236E+03
  2.70093E+04  2.92699E+03  1.94177E+04  1.73251E+04  3.45006E+03  2.14196E+04 -8.34502E+03  1.68973E+04
 -1.40833E+04  4.49577E+03 -6.54546E+03 -3.40398E+03  2.07309E+03 -5.40260E+03  9.65080E+03 -1.10879E+03
  8.59771E+03  7.51922E+03  2.27930E+03  1.37309E+04 -1.03357E+04  1.40001E+04 -1.67693E+04  3.54367E+03
 -1.20120E+04 -8.32177E+03 -1.80106E+03 -1.42492E+04  1.05761E+04 -6.09064E+03  1.13641E+04  3.54239E+03
  2.72342E+03  1.12275E+04 -8.74279E+03  1.33237E+04 -1.71602E+04  5.52157E+03 -1.64138E+04 -7.31728E+03
 -8.55920E+03 -1.82296E+04  4.01984E+03 -2.00404E+04  1.81052E+04 -1.08908E+04  1.83584E+04  3.72465E+03
  1.04712E+04  1.45470E+04 -2.32333E+03  1.84436E+04 -1.54079E+04  1.07328E+04 -1.43342E+04 -1.87671E+03
 -1.40312E+04 -1.01094E+04 -1.82906E+03 -1.26191E+04  6.20574E+03 -1.17633E+04  9.95003E+03 -5.04846E+03
  4.65878E+03  2.71399E+03 -2.83436E+03  2.75358E+03 -1.48578E+03 -3.04265E+03  3.06685E+03 -8.14214E+03
  1.32247E+04 -6.84621E+03  1.78545E+04  2.40408E+03  1.85895E+04  1.30146E+04  1.33907E+04  2.39077E+04
 -4.92915E+03  2.72998E+04 -2.26614E+04  2.13196E+04 -2.87785E+04  5.36437E+03 -2.39401E+04 -9.80013E+03
 -1.27542E+04 -2.08946E+04 -1.23977E+03 -1.70629E+04  4.63988E+03 -9.12104E+03  5.49436E+03 -6.65587E+03
  4.48586E+03 -2.81915E+03  4.16187E+03 -3.27404E+03  5.75809E+03 -2.51866E+03  9.12904E+03 -1.79887E+03
  1.12192E+04  4.94236E+03  7.79162E+03  1.06009E+04 -2.69111E+03  1.29056E+04 -1.31979E+04  9.17857E+03
 -1.58631E+04 -2.53982E+03 -1.18063E+04 -1.34106E+04 -1.17235E+02 -1.68204E+04  9.90143E+03 -1.92469E+04
  1.76543E+04 -1.11260E+04  2.14311E+04  2.46280E+03  1.28040E+04  1.64373E+04  5.37132E+03  2.00447E+04
 -8.20884E+03  1.49975E+04 -1.34147E+04  4.78380E+03 -8.70263E+03 -2.66473E+03 -4.98140E+03 -2.71845E+03
 -9.29326E+02 -4.25055E+02 -2.02112E+03  5.11269E+03 -5.54222E+03  1.89991E+03 -1.11661E+04 -4.19023E+03
 -1.00535E+04 -1.06506E+04  3.31354E+02 -1.85107E+04  1.02684E+04 -1.57574E+04  1.59919E+04 -3.47524E+03
  1.77788E+04  6.86640E+03  9.37427E+03  1.48946E+04 -5.41710E+03  1.80057E+04 -1.43297E+04  1.17533E+04
 -1.69566E+04  2.02478E+03 -1.16985E+04 -9.39550E+03  4.43046E+02 -1.37023E+04  6.97262E+03 -9.82917E+03
  1.03259E+04 -2.50324E+03  8.08504E+03  3.62324E+03  2.39088E+03  5.38858E+03 -1.58703E+03  1.28284E+03
  2.16288E+03  7.72247E+02  4.39335E+03  2.37608E+03  2.93721E+03  5.39233E+03  4.42643E+03  9.78351E+03
 -2.57860E+03  1.38667E+04 -1.12972E+04  1.20462E+04 -1.90501E+04  3.19154E+03 -1.88519E+04 -9.24615E+03
 -9.40938E+03 -1.76865E+04  3.36315E+03 -1.91411E+04  1.14701E+04 -1.15217E+04  1.37159E+04 -4.14393E+03
  1.25036E+04  5.53076E+03  1.83134E+03  1.08900E+04 -5.31767E+03  8.26026E+03 -9.22400E+03 -2.74921E+03
 -4.18989E+03 -7.09974E+03  3.11512E+03 -8.41955E+03  7.73444E+03 -4.07224E+03  7.81636E+03  1.71218E+03
  1.90605E+03  3.24645E+03  3.25329E+03  4.28543E+03 -1.55684E+03  2.74809E+03  4.90650E+02 -1.27412E+03
  3.32488E+03 -9.71769E+02  8.79927E+03  3.19917E+03  3.11807E+03  9.45624E+03 -2.78724E+03  1.17292E+04
 -6.93017E+03  9.78305E+03 -1.30055E+04  1.52092E+03 -1.08363E+04 -2.12981E+03 -4.43453E+03 -8.47482E+03
  2.47709E+03 -8.88678E+03  3.70876E+03 -4.04661E+03  3.85696E+03  3.32859E+03 -4.51435E+02  5.48142E+03
 -6.41813E+03  4.18296E+03 -7.65151E+03 -4.58076E+03 -6.20843E+03 -9.38250E+03  1.53522E+03 -9.47417E+03
  6.90592E+03 -7.49618E+03  8.24048E+03 -1.23658E+03  7.85458E+03  2.56038E+03  2.03617E+03  4.01787E+03
 -4.60447E+03  1.73963E+03 -5.94084E+03 -3.29652E+03  8.34035E+02 -8.93637E+03  9.87585E+03 -5.90849E+03
  1.24348E+04  8.45831E+02  1.04443E+04  8.34453E+03  1.11648E+03  1.16283E+04 -3.38239E+03  9.21330E+03
 -8.91444E+03  5.25551E+03 -1.08252E+04 -1.74921E+03 -5.34958E+03 -7.38496E+03  2.28676E+03 -6.68206E+03
  7.44346E+03 -4.44609E+03  7.34751E+03  3.38401E+03  3.38794E+03  6.27359E+03 -1.40419E+03  5.86828E+03
 -3.44548E+03  4.17991E+03 -2.00317E+03  2.00135E+03 -1.17085E+03  1.77788E+03 -2.02812E+03  3.14775E+03
 -2.96423E+03  4.02589E+03 -6.98162E+03  2.95732E+03 -1.19380E+04 -5.52364E+02 -1.57447E+04 -7.35898E+03
 -6.91630E+03 -1.52055E+04  3.35221E+03 -1.76252E+04  1.21279E+04 -1.35506E+04  1.76114E+04 -6.57423E+03
  1.42207E+04  3.25669E+03  1.04179E+04  1.11113E+04  1.61848E+03  1.26185E+04 -5.76799E+03  9.80052E+03
 -7.84991E+03  2.63316E+03 -3.47880E+03 -3.46288E+03 -1.35062E+03 -1.07071E+03 -1.47700E+03 -1.44738E+02
 -1.76166E+03 -1.26389E+03 -4.05240E+02 -2.98233E+03 -2.03074E+03 -2.78644E+03 -3.79867E+02 -5.42558E+03
  5.22381E+03 -2.55050E+03  9.66804E+03  8.30801E+02  9.42332E+03  7.46821E+03  2.56114E+03  1.22918E+04
 -5.37654E+03  1.37674E+04 -1.48944E+04  8.34033E+03 -1.47269E+04 -1.32400E+03 -1.12058E+04 -9.10907E+03
 -5.42051E+03 -1.42522E+04  3.61504E+03 -1.31750E+04  6.96807E+03 -5.29613E+03  8.73438E+03 -3.89116E+02
  5.43893E+03  3.53274E+03 -2.21483E+02  2.97091E+03 -3.48883E+03  1.38126E+02  2.71667E+02 -2.68914E+03
  4.17396E+03 -1.91155E+03  4.49947E+03  1.95640E+01  5.68894E+03  5.33883E+03  9.88632E+02  6.63414E+03
 -5.71563E+03  6.39775E+03 -9.45521E+03  1.07008E+03 -9.39716E+03 -5.56807E+03 -8.48394E+02 -1.18766E+04
  5.49704E+03 -9.36765E+03  1.03044E+04 -3.00072E+03  1.09372E+04  3.30181E+03  5.18310E+03  7.96085E+03
  5.30183E+02  8.97709E+03 -1.65527E+03  7.48822E+03 -4.59602E+03  3.63822E+03 -5.16515E+03  1.05625E+03
 -1.66675E+03 -1.51909E+03 -3.25969E+03  1.55036E+03 -2.55978E+03  3.13887E+02 -7.40596E+03 -2.18324E+03
 -6.17265E+03 -4.57349E+03 -3.30136E+03 -9.77879E+03  4.13584E+03 -1.05822E+04  7.29532E+03 -2.82792E+03
  7.93680E+03 -9.19808E+02  4.58724E+03  8.44987E+03  7.75325E+02  9.38840E+03 -7.83124E+03  6.90828E+03
