 $NMID ID='MM_0lb_SNR200_16hz_g60_26.RAW', FMTDAT='(8E13.5)'
 TRAMP=1., VOLUME=1. $END
  3.09568E+05  1.23194E+02  3.36867E+05  2.50507E+05  8.50790E+04  3.37300E+05 -1.31939E+05  2.52080E+05
 -1.89567E+05  8.35852E+04 -1.12203E+05 -3.31046E+04  8.07733E+02 -4.99703E+04  5.34326E+04  1.20545E+03
  3.46781E+04  5.29164E+04 -1.67826E+04  7.60472E+04 -6.13050E+04  6.36926E+04 -8.47111E+04  3.32254E+04
 -8.10261E+04 -1.21731E+04 -5.73334E+04 -5.08526E+04 -1.48457E+04 -7.02702E+04  2.71848E+04 -4.59535E+04
  4.00938E+04  4.17625E+03  1.68535E+04  4.84397E+04 -3.35847E+04  4.72642E+04 -6.62028E+04  5.28762E+01
 -5.40275E+04 -5.69195E+04 -7.71798E+03 -7.72967E+04  3.38011E+04 -5.44434E+04  4.74866E+04 -1.73846E+04
  4.37305E+04  1.17179E+04  3.26248E+04  2.60078E+04  1.53558E+04  3.02560E+04 -5.41693E+03  2.73013E+04
 -2.18074E+04  1.14826E+04 -1.90056E+04 -5.27759E+03  5.30229E+03 -6.80690E+03  2.24094E+04  1.20072E+04
  6.11476E+03  3.55511E+04 -3.28366E+04  3.56027E+04 -6.43803E+04  1.43734E+03 -5.70191E+04 -4.15970E+04
 -1.25543E+04 -6.29562E+04  3.98106E+04 -4.56592E+04  5.84090E+04 -1.79613E+03  3.38215E+04  3.25774E+04
 -5.38709E+03  3.51306E+04 -2.94213E+04  1.64271E+04 -2.98753E+04 -4.57850E+03 -1.66707E+04 -1.08067E+04
 -8.96324E+03 -1.36135E+04 -6.52401E+02 -1.77394E+04  7.53361E+03 -2.36885E+04  1.60163E+04 -1.31017E+04
  1.03806E+04  5.12852E+03 -8.08822E+03  1.26469E+04 -2.13123E+04 -5.20339E+03 -8.55807E+03 -3.39655E+04
  2.24138E+04 -4.37106E+04  4.86632E+04 -2.01360E+04  4.44212E+04  1.90123E+04  1.54124E+04  4.54554E+04
 -1.65368E+04  3.35291E+04 -2.47357E+04  1.84756E+03 -9.56464E+03 -2.86297E+04  2.08148E+04 -3.44669E+04
  4.05019E+04 -9.28502E+03  3.46922E+04  2.37985E+04  1.82514E+04  4.76930E+04 -8.27174E+03  5.02104E+04
 -3.07589E+04  3.32191E+04 -4.24541E+04  8.64339E+03 -4.27900E+04 -1.64793E+04 -2.24388E+04 -3.68907E+04
  7.75737E+03 -3.71167E+04  3.02393E+04 -1.47699E+04  2.91941E+04  1.03595E+04  4.42425E+03  1.87323E+04
 -1.22908E+04  7.69328E+03 -9.82022E+03 -6.53878E+03  5.30601E+03 -1.03519E+04  1.82470E+04  6.72752E+03
  1.32169E+04  2.15386E+04 -5.23250E+03  2.44351E+04 -2.24666E+04  1.06030E+04 -2.88063E+04 -5.62426E+03
 -2.05831E+04 -1.74296E+04 -9.29913E+03 -2.00459E+04  4.37126E+03 -1.87766E+04  1.41523E+04 -1.76669E+04
  2.58680E+04 -1.18961E+04  3.32763E+04  2.75336E+03  2.38589E+04  1.95868E+04  5.06808E+03  3.56645E+04
 -1.81681E+04  2.97747E+04 -2.72647E+04  1.01853E+04 -2.09513E+04 -9.77747E+03 -5.57986E+03 -1.43266E+04
  3.00342E+03 -3.86935E+03 -4.57826E+03  5.51427E+03 -1.61446E+04  4.90949E+03 -1.65990E+04 -6.72851E+03
 -9.71887E+03 -1.87834E+04  4.55709E+03 -2.32261E+04  1.53551E+04 -1.71344E+04  1.81792E+04 -2.02564E+03
  1.23770E+04  1.32221E+04 -1.56126E+03  1.75633E+04 -1.27491E+04  1.00444E+04 -1.85086E+04 -3.77238E+03
 -1.35558E+04 -1.74477E+04 -1.49483E+03 -2.23277E+04  1.05811E+04 -1.94026E+04  1.88593E+04 -8.59714E+03
  1.72570E+04 -3.37985E+02  1.22654E+04  4.29371E+03  6.53979E+03  7.07213E+02  1.07833E+04 -9.71712E+02
  1.71535E+04  1.36399E+03  1.83672E+04  1.39280E+04  1.20531E+04  2.90451E+04 -2.40370E+03  3.28372E+04
 -1.93856E+04  2.70436E+04 -3.13216E+04  1.33582E+04 -3.33575E+04 -2.39967E+03 -2.73352E+04 -1.79381E+04
 -1.17606E+04 -2.70361E+04  8.75483E+03 -2.29385E+04  2.09468E+04 -1.24199E+04  1.78493E+04  4.47773E+03
  6.95820E+03  1.41658E+04 -8.77581E+03  1.16172E+04 -1.55465E+04  2.35631E+03 -1.29197E+04 -8.52043E+03
 -6.70123E+02 -1.46819E+04  8.23344E+03 -1.11096E+04  1.03690E+04 -2.04809E+03  2.88127E+03  6.49797E+03
 -6.55127E+03  3.04286E+03 -4.95466E+03 -5.15148E+03 -3.99173E+02 -1.27943E+04  8.98501E+03 -1.43323E+04
  1.66505E+04 -7.40527E+03  1.61651E+04  3.67547E+03  1.38208E+04  1.23994E+04  6.94021E+03  1.84258E+04
 -3.52653E+03  2.09938E+04 -1.29830E+04  1.33403E+04 -1.35684E+04  3.32645E+03 -1.05845E+04 -3.83613E+03
 -5.71190E+03 -4.51001E+03 -8.72264E+02  1.31858E+03 -3.80185E+03  2.23301E+03 -5.49771E+03  4.59899E+03
 -1.06175E+04 -1.20416E+03 -1.04934E+04 -8.30383E+03 -4.15723E+03 -1.37885E+04  3.12097E+03 -1.11224E+04
  8.42780E+03 -4.86089E+03  6.48404E+03  3.03863E+03  2.29611E+02  3.40577E+03 -4.66016E+03 -9.77673E+02
 -5.47961E+03 -6.50662E+03 -8.00347E+02 -1.01740E+04  5.57536E+03 -1.10063E+04  1.28588E+04 -5.39342E+03
  1.59899E+04  1.45644E+02  1.15108E+04  8.64317E+03  2.52543E+03  1.25904E+04 -6.73198E+03  9.95378E+03
 -8.72163E+03  2.76961E+03 -3.55924E+03 -1.23351E+03  2.44966E+03 -3.17810E+03  5.67946E+03 -3.97733E+02
  5.95629E+03  4.60342E+03  6.52500E+02  8.24441E+03 -6.55465E+03  8.53051E+03 -9.10022E+03  1.14505E+03
 -5.78207E+03 -5.36695E+03  1.36221E+03 -7.61420E+03  4.87860E+03 -5.11499E+03  6.12464E+03  9.22586E+02
  4.07053E+02  5.73288E+03 -5.75676E+03  5.52458E+03 -7.37407E+03  2.27009E+03 -7.19176E+03 -2.12327E+03
 -4.36975E+03 -8.49076E+03  1.37888E+03 -9.52973E+03  9.31802E+03 -7.53563E+03  9.92824E+03  2.63938E+03
  5.67181E+03  7.88868E+03  9.60409E+01  1.06514E+04 -7.91957E+03  4.98780E+03 -6.50294E+03  3.05540E+02
 -6.59157E+03 -6.91438E+03 -1.26388E+03 -7.03303E+03  3.18238E+03 -6.26149E+03  4.76058E+03 -3.72085E+03
  3.72928E+03  7.37890E+02 -4.24239E+02  2.60198E+03  5.55866E+02 -7.29191E+02  3.41915E+02 -4.25482E+03
  5.12457E+03 -1.97183E+03  8.47495E+03  1.92240E+03  7.92569E+03  5.67795E+03  7.35601E+03  1.13884E+04
 -2.51861E+03  1.27562E+04 -1.00512E+04  9.70631E+03 -1.27989E+04  1.83890E+03 -1.12996E+04 -3.28125E+03
 -5.36520E+03 -9.62722E+03 -7.75862E+02 -7.33430E+03  2.42441E+03 -3.82562E+03  2.24341E+03 -2.38912E+03
  1.88059E+03 -1.23456E+03  3.33299E+03 -2.46094E+03  4.66037E+03 -1.55731E+03  5.98576E+03  1.04232E+02
  5.55821E+03  6.81921E+02  2.72569E+03  4.17923E+03 -7.65669E+02  5.54214E+03 -6.27797E+03  3.72634E+03
 -7.82169E+03 -1.65120E+02 -3.49055E+03 -5.75487E+03 -6.78857E+02 -6.61218E+03  4.25917E+03 -6.49347E+03
  8.33332E+03 -4.80577E+03  1.08033E+04  8.58255E+02  6.11518E+03  5.95072E+03  6.99239E+02  7.73990E+03
 -3.78055E+03  7.28630E+03 -4.09945E+03  2.61648E+03 -4.22722E+03 -1.51761E+03 -2.32594E+02 -1.13521E+03
  4.47153E+02  4.52728E+02 -6.06785E+02  1.33369E+03 -3.10976E+03  1.41789E+03 -5.93947E+03 -1.52511E+03
 -3.41147E+03 -5.82400E+03  5.93617E+02 -6.15667E+03  4.31703E+03 -6.90078E+03  6.15523E+03 -1.67238E+03
  6.38734E+03  3.12360E+03  1.93405E+03  5.53935E+03 -5.05516E+02  6.18528E+03 -5.03729E+03  4.02357E+03
 -6.12286E+03 -1.33514E+03 -4.30388E+03 -3.56622E+03 -1.12271E+02 -5.39210E+03  3.35889E+03 -4.00207E+03
  3.26941E+03 -1.68895E+03  3.07188E+03  1.63973E+03  9.83216E+02  2.23362E+03  1.71214E+03  2.02433E+03
  1.51490E+03  1.57392E+03  1.91384E+03  7.19309E+02  1.61685E+03  3.18686E+03  2.57515E+03  2.83617E+03
 -2.30897E+03  5.13644E+03 -2.85289E+03  5.35857E+03 -6.04159E+03  1.34599E+03 -6.82380E+03 -1.89402E+03
 -2.65580E+03 -5.47495E+03 -2.88214E+02 -6.64768E+03  2.49252E+03 -4.61933E+03  4.71729E+03 -2.31907E+03
  3.58383E+03  2.61634E+03  1.53906E+03  3.53539E+03 -1.55986E+03  5.58233E+02 -1.36335E+03 -9.60706E+02
 -1.01985E+03 -2.57091E+03  2.00795E+03 -2.81149E+03  1.70938E+03 -2.44979E+03  2.59760E+03  1.31649E+02
  1.73610E+03  7.03456E+02  9.63541E+02  6.82965E+02 -5.34836E+02  1.07685E+03  8.22544E+02  4.67301E+02
 -3.52365E+02 -4.30966E+02  2.40135E+03  1.00888E+03  9.14730E+01  3.95438E+03 -1.63764E+03  5.51320E+03
 -2.40611E+03  2.77596E+03 -2.94031E+03  8.95710E+02 -2.40995E+03 -1.50191E+03 -5.25755E+02 -2.78312E+03
  2.44553E+01 -1.57876E+03  1.46909E+03 -2.01225E+03  7.55429E+02  2.09496E+03 -1.44314E+03  3.07256E+02
 -2.07013E+03  1.11168E+03 -2.49925E+03 -1.84799E+03 -8.99329E+02 -2.95008E+03  1.18494E+03 -3.40711E+03
  1.09757E+03 -1.26771E+03  1.48458E+03 -9.25803E+01  2.90034E+03  5.97869E+02 -2.53112E+02  1.66805E+03
 -6.91197E+02  1.10064E+02 -2.91015E+03 -4.04420E+02  1.16885E+02 -2.11250E+03  2.38435E+03 -1.41866E+03
  2.33231E+02 -2.07293E+02  4.41100E+03  2.24713E+03  1.64418E+03  2.36425E+03 -1.19470E+03  4.29379E+03
 -2.79003E+03  5.47220E+02 -2.87527E+03 -7.90653E+02 -3.93540E+02 -1.16472E+03 -2.60334E+01 -9.39313E+02
  2.08157E+03 -1.83194E+03  5.87323E+02  1.84669E+03 -1.11052E+01  9.20636E+02 -5.34356E+02  1.89290E+03
 -1.14534E+03  1.86491E+03 -4.84668E+02  8.23236E+02 -4.62983E+02  1.38809E+03  4.10488E+02 -5.46958E+02
 -3.98126E+02  1.91199E+03 -2.69381E+03  1.09237E+03 -3.08072E+03  1.09048E+02 -4.19342E+03 -1.33458E+03
 -2.62325E+03 -5.01440E+03  1.01770E+03 -4.98757E+03  2.45338E+03 -4.26247E+03  3.47933E+03 -5.34448E+02
  3.91769E+03  6.04573E+02  2.39007E+03  2.31480E+03  3.62088E+02  1.73171E+03 -7.81847E+02  1.74303E+03
 -1.31324E+03  1.69200E+03 -1.44893E+03 -4.54369E+02 -4.31894E+02 -2.82875E+02 -4.36665E+02 -3.61345E+02
 -1.70758E+03 -5.17643E+02 -1.21204E+03 -4.47337E+01  3.10501E+02 -1.13485E+03  4.40230E+02 -5.02764E+02
  1.23599E+03 -1.76537E+02  6.26018E+02 -3.96638E+02  7.84117E+02  1.41362E+03  7.63310E+02  3.03484E+03
 -1.76528E+03  4.08646E+03 -1.81972E+03  3.01804E+02 -1.26741E+03 -2.60065E+02 -2.75941E+03 -2.37149E+03
 -1.55911E+03 -1.90419E+03 -5.17576E+02 -3.03363E+03  2.64952E+03 -5.96470E+02  4.48869E+02  4.39146E+02
  1.10386E+03  1.82542E+02 -3.51653E+02  1.77677E+03 -9.86442E+02  2.98206E+02 -8.70003E+01 -1.74659E+03
  6.66744E+02  1.33159E+02  6.02415E+02  4.59757E+02  9.90964E+02  6.66883E+02 -3.71194E+02  3.75826E+02
 -4.82434E+02  3.44869E+02 -7.77631E+02 -2.72347E+01 -1.89111E+03 -2.26662E+02 -5.04581E+02 -2.11339E+03
  1.23490E+02 -1.25993E+03  1.84494E+03  1.95638E+02  2.41019E+03 -1.33611E+03  6.19159E+02  2.56647E+03
  1.12876E+03  8.56505E+02 -3.63278E+02  2.29344E+03 -1.03228E+03  1.35935E+03 -1.19782E+03 -8.01991E+02
 -5.57109E+02  9.77680E+01 -4.34242E+02  6.65227E+02 -2.18748E+01  6.93815E+02 -1.46449E+03 -1.06216E+03
 -1.13853E+03  1.69934E+02 -7.26693E+02 -1.91895E+03  1.91006E+03 -3.11367E+03  7.37401E+02 -5.41465E+02
  2.87198E+03  1.32556E+03 -5.66151E+02  7.82087E+02 -5.29821E+02  2.02515E+03 -1.01797E+03  6.54564E+02
