 $NMID ID='MM_0lb_SNR200_9hz_g55_62.RAW', FMTDAT='(8E13.5)'
 TRAMP=1., VOLUME=1. $END
  3.09608E+05  1.76393E+03  3.36788E+05  2.50476E+05  8.57756E+04  3.37704E+05 -1.33128E+05  2.51980E+05
 -1.91592E+05  8.24431E+04 -1.12424E+05 -3.43084E+04  5.32815E+02 -5.03969E+04  5.55164E+04 -5.85934E+02
  3.45605E+04  5.31783E+04 -1.60342E+04  7.64736E+04 -6.22128E+04  6.63791E+04 -8.53615E+04  3.31342E+04
 -8.13393E+04 -1.21760E+04 -5.95156E+04 -5.24030E+04 -1.40496E+04 -7.22227E+04  2.78591E+04 -4.78747E+04
  4.23950E+04  4.21396E+03  1.57277E+04  4.74264E+04 -3.38808E+04  4.89063E+04 -6.66908E+04  1.07321E+02
 -5.48872E+04 -5.78692E+04 -7.54083E+03 -8.03812E+04  3.53670E+04 -5.70361E+04  4.93794E+04 -1.77677E+04
  4.53278E+04  1.12416E+04  3.16612E+04  2.73794E+04  1.74719E+04  3.21837E+04 -8.13163E+03  2.87607E+04
 -2.43581E+04  1.36595E+04 -1.81446E+04 -6.72645E+03  7.39159E+03 -7.78736E+03  2.36084E+04  1.37962E+04
  8.06220E+03  3.68769E+04 -3.45169E+04  3.74125E+04 -6.73088E+04  7.52420E+02 -5.93684E+04 -4.39253E+04
 -1.26899E+04 -6.57675E+04  4.18875E+04 -4.77360E+04  6.10345E+04 -2.52894E+03  3.64670E+04  3.16263E+04
 -5.04741E+03  3.96882E+04 -3.15494E+04  1.89642E+04 -3.31665E+04 -4.87296E+03 -1.94967E+04 -1.06922E+04
 -1.00135E+04 -1.56876E+04  3.32234E+02 -1.89085E+04  7.58086E+03 -2.49534E+04  1.55292E+04 -1.25947E+04
  1.00417E+04  7.93391E+03 -1.07407E+04  1.32635E+04 -2.37563E+04 -7.80964E+03 -8.07807E+03 -3.72244E+04
  2.47323E+04 -4.67083E+04  5.39225E+04 -2.02709E+04  4.95492E+04  2.09955E+04  1.86465E+04  4.72683E+04
 -1.59785E+04  3.66506E+04 -2.71428E+04  1.69699E+03 -1.25614E+04 -2.92837E+04  2.12118E+04 -3.86327E+04
  4.49104E+04 -1.16268E+04  4.19682E+04  2.46229E+04  2.07046E+04  5.21256E+04 -6.38126E+03  5.70693E+04
 -3.58753E+04  3.95443E+04 -4.68757E+04  1.01130E+04 -4.56373E+04 -1.80965E+04 -2.69441E+04 -4.15238E+04
  9.23476E+03 -4.19833E+04  3.49698E+04 -1.78420E+04  3.12437E+04  1.08211E+04  6.04986E+03  2.07765E+04
 -1.39282E+04  1.06257E+04 -1.06575E+04 -6.95589E+03  5.95056E+03 -1.13241E+04  1.80862E+04  4.49733E+03
  1.43547E+04  2.31377E+04 -6.58284E+03  2.68991E+04 -2.46548E+04  1.43487E+04 -3.09464E+04 -1.98123E+03
 -2.71030E+04 -1.91658E+04 -1.15009E+04 -2.58002E+04  4.22923E+03 -2.47749E+04  2.11350E+04 -2.33952E+04
  3.24600E+04 -1.46079E+04  3.83575E+04  6.03780E+03  2.69693E+04  2.46541E+04  4.40781E+03  4.10586E+04
 -2.04045E+04  3.35613E+04 -3.02927E+04  1.39662E+04 -2.26967E+04 -9.73950E+03 -5.46683E+03 -1.32831E+04
  6.58591E+02 -1.90697E+03 -8.68207E+03  9.23342E+03 -2.08011E+04  4.80520E+03 -2.00115E+04 -9.54244E+03
 -1.23550E+04 -2.24599E+04  7.43348E+03 -2.94278E+04  1.72974E+04 -2.00354E+04  2.28364E+04 -1.21773E+03
  1.36046E+04  1.79690E+04 -2.12789E+03  2.23801E+04 -1.83521E+04  1.47059E+04 -2.47214E+04 -4.51759E+03
 -1.72812E+04 -2.12124E+04 -1.23538E+03 -2.87396E+04  1.23478E+04 -2.27589E+04  2.43627E+04 -1.16077E+04
  2.15608E+04  6.96210E+02  1.71765E+04  6.71613E+03  9.82674E+03  1.37127E+03  1.27759E+04 -2.90046E+03
  2.20544E+04  3.22359E+03  2.58426E+04  1.89700E+04  1.84879E+04  3.89140E+04 -2.17733E+03  4.50831E+04
 -2.50673E+04  3.81435E+04 -4.31027E+04  1.97531E+04 -4.65714E+04 -4.90454E+03 -3.84797E+04 -2.71383E+04
 -1.47344E+04 -3.83105E+04  1.30580E+04 -3.29637E+04  2.92395E+04 -1.62911E+04  2.55678E+04  8.84038E+03
  8.86713E+03  1.92767E+04 -1.05323E+04  1.65951E+04 -2.02269E+04  1.94972E+03 -1.62069E+04 -1.25907E+04
 -1.25149E+03 -2.04489E+04  1.09682E+04 -1.46192E+04  1.50758E+04 -2.09051E+03  3.71862E+03  9.12803E+03
 -9.73268E+03  5.16645E+03 -8.89203E+03 -6.01142E+03 -8.78673E+02 -1.79133E+04  1.15256E+04 -2.08533E+04
  2.38762E+04 -1.05178E+04  2.84172E+04  4.01386E+03  2.40067E+04  1.98887E+04  1.06768E+04  2.93812E+04
 -4.96753E+03  3.10531E+04 -2.06179E+04  2.03434E+04 -2.37292E+04  5.23294E+03 -1.59188E+04 -6.36654E+03
 -5.55537E+03 -9.35511E+03 -5.70606E+02 -7.96074E+02 -4.40381E+03  4.61025E+03 -8.27644E+03  6.58049E+03
 -1.30619E+04 -1.24723E+03 -1.44734E+04 -1.25385E+04 -6.23261E+03 -2.09107E+04  6.63706E+03 -1.58598E+04
  1.43238E+04 -7.50064E+03  8.64976E+03  4.04624E+03 -1.53947E+03  5.99093E+03 -1.02230E+04  6.03817E+01
 -6.80529E+03 -9.89705E+03 -1.24433E+03 -1.57484E+04  8.91147E+03 -1.60938E+04  2.14960E+04 -8.99040E+03
  2.47042E+04  4.05455E+03  1.87644E+04  1.42938E+04  2.65189E+03  1.86557E+04 -1.16306E+04  1.54696E+04
 -1.30419E+04  3.38519E+03 -6.95514E+03 -4.77083E+03  1.54959E+03 -4.05038E+03  1.12929E+04 -7.14556E+02
  7.34675E+03  6.49402E+03  3.02688E+02  1.17048E+04 -9.84211E+03  1.14117E+04 -1.60739E+04  4.22323E+03
 -1.03839E+04 -8.22788E+03 -1.38992E+03 -1.34947E+04  1.00224E+04 -7.29629E+03  1.04476E+04  2.11144E+03
  2.32738E+03  1.00891E+04 -7.12583E+03  1.20318E+04 -1.43815E+04  4.12958E+03 -1.49262E+04 -4.23918E+03
 -9.73751E+03 -1.66254E+04  4.14427E+03 -1.81263E+04  1.56881E+04 -1.26214E+04  1.77030E+04  2.97776E+03
  9.50788E+03  1.34762E+04 -1.73384E+03  1.70386E+04 -1.05000E+04  7.48759E+03 -1.35778E+04 -1.79645E+03
 -1.09296E+04 -1.00985E+04 -8.22307E+02 -1.26040E+04  8.46470E+03 -7.64861E+03  8.42621E+03 -2.65353E+03
  4.56190E+03  3.03142E+03 -3.48901E+02  3.52001E+03  7.73035E+02 -2.15358E+03  1.82382E+03 -8.31675E+03
  1.09709E+04 -3.32614E+03  1.52170E+04  3.14912E+03  1.50690E+04  1.14887E+04  9.95897E+03  2.12822E+04
 -4.74987E+03  2.69698E+04 -2.07896E+04  1.82749E+04 -2.70793E+04  3.93572E+03 -2.04913E+04 -9.82786E+03
 -1.02663E+04 -1.79794E+04 -4.28406E+02 -1.58746E+04  5.81477E+03 -1.02525E+04  6.92814E+03 -5.10575E+03
  4.55649E+03 -5.72930E+03  4.72877E+03 -3.46908E+03  6.00390E+03 -5.50426E+03  7.91732E+03 -1.43639E+03
  1.07015E+04  3.20104E+03  5.86782E+03  9.30172E+03 -1.99807E+03  1.17846E+04 -1.13358E+04  9.03669E+03
 -1.48550E+04 -1.99971E+03 -9.61188E+03 -7.72298E+03 -3.20665E+03 -1.69336E+04  8.95641E+03 -1.66981E+04
  1.75745E+04 -8.25846E+03  2.06048E+04  4.03591E+03  1.38106E+04  1.48257E+04  1.68527E+03  1.76003E+04
 -6.92937E+03  1.61483E+04 -9.44143E+03  4.28197E+03 -7.94282E+03 -1.89247E+03 -2.06049E+03 -2.40119E+03
 -2.34529E+03 -4.34036E+02 -3.95401E+03  3.44254E+03 -6.51123E+03  9.23700E+02 -1.07506E+04 -4.49559E+02
 -8.47949E+03 -1.05195E+04 -9.17825E+02 -1.60801E+04  7.51352E+03 -1.23971E+04  1.43239E+04 -5.17803E+03
  1.64870E+04  7.92725E+03  5.96692E+03  1.28909E+04 -3.62721E+03  1.42656E+04 -1.12670E+04  8.76869E+03
 -1.45154E+04  9.02086E+02 -9.90232E+03 -9.72984E+03 -1.33710E+03 -1.22728E+04  5.36354E+03 -1.00072E+04
  9.84341E+03 -4.70595E+03  8.87134E+03  1.68932E+03  3.93536E+03  5.45543E+03  1.31105E+03  3.27692E+03
  2.83938E+03  5.53980E+02  4.79757E+03  1.76496E+03  3.57576E+03  5.12621E+03  3.22985E+03  9.61133E+03
 -3.05679E+03  1.16436E+04 -9.84528E+03  1.29815E+04 -1.59558E+04  2.08475E+03 -1.59112E+04 -6.01585E+03
 -6.78089E+03 -1.67144E+04  2.69685E+03 -1.66732E+04  1.03506E+04 -8.78186E+03  1.35766E+04 -3.12032E+03
  9.57630E+03  7.51068E+03  2.37555E+03  8.25288E+03 -3.19415E+03  4.43256E+03 -7.23891E+03 -9.13291E+02
 -2.96884E+03 -5.67044E+03  2.58926E+03 -7.19701E+03  6.65399E+03 -2.30022E+03  8.56151E+03  2.35332E+03
  3.92274E+03  3.65877E+03  7.24865E+02  2.83361E+03 -8.63235E+02  2.46251E+03  1.90966E+03 -5.53999E+02
  2.30003E+03 -8.62047E+02  7.85333E+03  1.94427E+03  4.06257E+03  9.48047E+03 -2.22429E+03  1.18794E+04
 -8.07367E+03  7.10017E+03 -1.04382E+04  2.15787E+03 -8.89505E+03 -3.31075E+03 -3.52231E+03 -6.67454E+03
  7.63541E+01 -5.78646E+03  4.24998E+03 -2.86168E+03  2.50257E+03  2.28568E+03 -1.45488E+03  5.64777E+03
 -5.91367E+03  3.70509E+03 -6.83860E+03 -4.61240E+03 -6.11689E+03 -8.68645E+03  4.21879E+02 -8.00081E+03
  5.06265E+03 -5.70205E+03  5.20215E+03 -3.70202E+03  3.84557E+03  3.06427E+03  9.03036E+02  4.52426E+03
 -2.20848E+03  2.29573E+03 -5.02163E+03 -3.51240E+03  1.56480E+03 -7.63563E+03  8.65546E+03 -6.41204E+03
  1.02266E+04  1.11957E+03  8.35139E+03  7.01547E+03  2.96086E+03  1.02528E+04 -4.63330E+03  1.11345E+04
 -9.85611E+03  4.90696E+03 -8.27138E+03 -2.18036E+02 -4.99258E+03 -7.93986E+03  1.34076E+03 -6.99277E+03
  5.88063E+03 -4.13203E+03  4.27160E+03  3.35835E+03  1.70855E+03  4.77694E+03 -8.86492E+02  3.69165E+03
 -4.19433E+03  2.79227E+03 -4.69787E+03  7.89015E+02 -1.23348E+03 -7.73225E+02 -1.75473E+03  1.44831E+03
 -2.37765E+02  4.14371E+03 -6.69392E+03  4.31486E+03 -1.05267E+04  6.59508E+02 -1.21312E+04 -7.37947E+03
 -6.57516E+03 -1.45263E+04  2.00469E+03 -1.66773E+04  9.33828E+03 -1.35925E+04  1.62896E+04 -3.61443E+03
  1.55850E+04  4.50737E+03  9.10622E+03  9.68318E+03  5.90410E+02  1.06940E+04 -4.61458E+03  7.97867E+03
 -5.21191E+03  3.64298E+03 -3.44928E+03 -1.87204E+03 -2.78215E+02 -1.60199E+03 -2.39427E+02 -3.36411E+02
 -1.09260E+03  8.55628E+02 -3.07025E+03 -6.18319E+02 -3.43047E+02 -9.22872E+02  1.26770E+03 -4.66688E+03
  4.73150E+03 -4.10034E+03  6.71749E+03  5.74378E+02  5.78286E+03  8.33404E+03  1.35877E+03  1.18642E+04
 -4.94525E+03  1.24554E+04 -1.19140E+04  7.07191E+03 -1.29141E+04 -1.99387E+03 -8.51146E+03 -7.79408E+03
 -4.14200E+03 -9.69580E+03  3.00868E+03 -1.09726E+04  7.24309E+03 -5.40319E+03  6.78601E+03  8.69022E+02
  3.96620E+03  4.17617E+03 -2.05325E+02  8.20440E+02 -2.13859E+03  8.84094E+01  4.18236E+02 -1.71664E+03
  4.89429E+03 -1.39668E+03  4.11725E+03  1.83746E+03  2.54309E+03  4.83717E+03  1.24566E+02  5.61800E+03
 -4.57406E+03  5.49371E+03 -6.74011E+03  2.67174E+02 -8.24817E+03 -5.07458E+03 -1.14794E+03 -9.04380E+03
  6.48650E+03 -8.29772E+03  7.02548E+03 -3.22112E+03  8.29745E+03  1.79893E+03  5.22147E+03  8.42701E+03
  1.91535E+03  8.02868E+03 -3.47369E+03  4.54991E+03 -2.83579E+03  3.84640E+03 -2.97092E+03  4.44284E+02
 -9.64462E+02 -1.58382E+03 -2.38194E+03  8.75725E+02 -3.93565E+03  8.87092E+02 -4.76467E+03 -5.97737E+02
 -5.16216E+03 -5.11595E+03 -1.77592E+03 -6.44082E+03  3.99697E+03 -8.30321E+03  6.51786E+03 -4.58043E+03
  7.82386E+03  2.56412E+03  3.37678E+03  4.07467E+03  3.09077E+01  7.22471E+03 -6.02286E+03  4.23219E+03
