 $NMID ID='MM_0lb_SNR200_15hz_g60_73.RAW', FMTDAT='(8E13.5)'
 TRAMP=1., VOLUME=1. $END
  3.08881E+05  7.57854E+02  3.37839E+05  2.50464E+05  8.44400E+04  3.38123E+05 -1.33706E+05  2.51380E+05
 -1.90837E+05  8.29703E+04 -1.12258E+05 -3.31871E+04  2.26445E+03 -4.95104E+04  5.36200E+04 -1.40241E+03
  3.46840E+04  5.26225E+04 -1.58679E+04  7.63328E+04 -6.07167E+04  6.39757E+04 -8.43773E+04  3.22339E+04
 -8.14590E+04 -1.21449E+04 -5.81557E+04 -5.21385E+04 -1.47202E+04 -6.94018E+04  2.80316E+04 -4.61468E+04
  3.95562E+04  2.60766E+03  1.52355E+04  4.89641E+04 -3.46312E+04  4.82020E+04 -6.68504E+04  2.45194E+02
 -5.43043E+04 -5.62457E+04 -7.35334E+03 -7.73351E+04  3.37854E+04 -5.59037E+04  4.67549E+04 -1.63869E+04
  4.42536E+04  1.22259E+04  3.32953E+04  2.72698E+04  1.54089E+04  2.90697E+04 -5.10872E+03  2.75671E+04
 -2.27003E+04  1.15729E+04 -1.89329E+04 -5.96823E+03  5.49822E+03 -7.16530E+03  2.07191E+04  1.41787E+04
  6.15228E+03  3.55841E+04 -3.22220E+04  3.47713E+04 -6.43826E+04  3.67943E+03 -5.59063E+04 -4.30111E+04
 -1.34631E+04 -6.16999E+04  3.98577E+04 -4.60808E+04  5.81580E+04 -2.37024E+03  3.41764E+04  3.23040E+04
 -6.41722E+03  3.56893E+04 -3.10037E+04  1.57585E+04 -3.19692E+04 -4.28405E+03 -1.74844E+04 -1.11871E+04
 -8.61815E+03 -1.28535E+04 -5.42848E+02 -1.92341E+04  8.89183E+03 -2.25945E+04  1.51698E+04 -1.42551E+04
  1.10404E+04  5.94466E+03 -8.35532E+03  1.39040E+04 -2.26744E+04 -6.03173E+03 -8.84916E+03 -3.53420E+04
  2.24223E+04 -4.34098E+04  5.00377E+04 -1.95979E+04  4.54694E+04  1.98542E+04  1.61774E+04  4.43244E+04
 -1.57882E+04  3.39077E+04 -2.61403E+04  1.84280E+03 -1.05446E+04 -2.85205E+04  2.14442E+04 -3.27954E+04
  4.06354E+04 -1.01107E+04  3.68697E+04  2.37550E+04  1.76388E+04  4.64692E+04 -9.17796E+03  5.11993E+04
 -3.14823E+04  3.57286E+04 -4.25383E+04  9.93903E+03 -4.20339E+04 -1.67969E+04 -2.37224E+04 -3.79829E+04
  7.03042E+03 -3.83178E+04  3.18399E+04 -1.47436E+04  2.91960E+04  1.07557E+04  4.93620E+03  1.92482E+04
 -1.27553E+04  8.52288E+03 -1.04151E+04 -7.17426E+03  6.75494E+03 -1.04081E+04  1.71886E+04  7.02924E+03
  1.37274E+04  2.21599E+04 -5.81574E+03  2.57233E+04 -2.22299E+04  1.13465E+04 -2.82182E+04 -5.19156E+03
 -2.19867E+04 -1.73782E+04 -8.03615E+03 -2.06796E+04  4.52312E+03 -1.97296E+04  1.57084E+04 -2.00254E+04
  2.73799E+04 -1.27400E+04  3.25345E+04  3.34093E+03  2.47022E+04  2.00152E+04  4.16635E+03  3.69394E+04
 -1.79467E+04  3.06217E+04 -2.82789E+04  1.12785E+04 -2.06959E+04 -1.12305E+04 -4.75287E+03 -1.34271E+04
  8.81814E+02 -2.16947E+03 -5.61719E+03  6.65601E+03 -1.62212E+04  5.92251E+03 -1.69702E+04 -6.69039E+03
 -1.09101E+04 -1.90349E+04  4.66438E+03 -2.40156E+04  1.36218E+04 -1.66015E+04  1.82715E+04 -2.16193E+03
  1.19730E+04  1.18868E+04 -1.93301E+03  1.99355E+04 -1.25545E+04  1.12467E+04 -1.99920E+04 -4.53114E+03
 -1.51117E+04 -1.71282E+04 -1.98125E+03 -2.38211E+04  1.12400E+04 -2.04876E+04  1.97157E+04 -9.07218E+03
  1.79974E+04 -1.51056E+02  1.28506E+04  5.04223E+03  6.10436E+03  1.14512E+03  1.07660E+04 -7.16360E+02
  1.84677E+04  1.80971E+03  2.06759E+04  1.51025E+04  1.37717E+04  3.14783E+04 -2.95729E+03  3.41055E+04
 -2.11584E+04  2.87696E+04 -3.17995E+04  1.33452E+04 -3.50338E+04 -2.74497E+03 -2.79855E+04 -1.98060E+04
 -1.16801E+04 -2.87762E+04  1.03232E+04 -2.64352E+04  2.29740E+04 -1.17595E+04  1.97296E+04  5.33266E+03
  6.96153E+03  1.48055E+04 -8.88230E+03  1.39557E+04 -1.55706E+04  3.75006E+03 -1.31637E+04 -8.59935E+03
  1.59920E+03 -1.70021E+04  9.93299E+03 -1.14580E+04  9.87347E+03 -7.98052E+02  2.56000E+03  6.42598E+03
 -6.31250E+03  2.23309E+03 -5.32010E+03 -5.36243E+03  5.24130E+02 -1.46621E+04  8.89674E+03 -1.43200E+04
  1.66231E+04 -8.69365E+03  1.77657E+04  3.24467E+03  1.58835E+04  1.53708E+04  6.57275E+03  2.02676E+04
 -3.06717E+03  2.23154E+04 -1.40912E+04  1.34540E+04 -1.62876E+04  3.10478E+03 -1.08434E+04 -4.38488E+03
 -5.47355E+03 -5.61220E+03 -1.17338E+03  1.47413E+03 -2.49125E+03  2.54745E+03 -6.71086E+03  3.97977E+03
 -9.72965E+03 -4.14493E+02 -1.11392E+04 -9.69615E+03 -4.30827E+03 -1.59962E+04  4.29629E+03 -1.07008E+04
  8.83786E+03 -5.05814E+03  7.19101E+03  3.20622E+03  9.89321E+02  3.71755E+03 -4.88803E+03 -1.67932E+02
 -5.60912E+03 -7.54696E+03 -1.96129E+03 -1.10871E+04  6.48796E+03 -1.19131E+04  1.52164E+04 -5.51275E+03
  1.64603E+04  1.65742E+03  1.26068E+04  1.01259E+04  2.68361E+03  1.32047E+04 -6.82251E+03  1.06815E+04
 -8.91656E+03  3.56390E+03 -5.17982E+03 -1.47299E+03  1.12786E+03 -2.70902E+03  4.88345E+03  2.40237E+02
  4.62419E+03  4.27739E+03  1.33284E+03  9.01612E+03 -5.74274E+03  8.59473E+03 -1.08019E+04  2.26793E+03
 -7.30402E+03 -6.24015E+03 -9.33321E+02 -1.00446E+04  6.21164E+03 -4.56618E+03  5.49063E+03  2.18911E+03
  2.48493E+02  6.57184E+03 -5.26554E+03  6.46291E+03 -6.66339E+03  4.27403E+03 -7.20283E+03 -1.95884E+03
 -4.28909E+03 -1.10663E+04  1.33920E+03 -1.12865E+04  9.86112E+03 -6.90049E+03  9.65727E+03  6.96736E+02
  6.37310E+03  8.04705E+03 -5.81888E+02  1.07195E+04 -9.33569E+03  5.89184E+03 -7.82087E+03  7.18162E+02
 -8.37745E+03 -8.21038E+03 -5.78559E+02 -8.52081E+03  4.99033E+03 -7.51262E+03  4.30930E+03 -4.36565E+03
  2.64588E+03  9.63871E+02 -1.18775E+03  1.38843E+03 -7.52411E+01 -1.70399E+03  1.76824E+03 -4.66298E+03
  6.65343E+03 -2.31777E+03  8.60417E+03  1.12379E+03  8.91956E+03  5.68634E+03  6.27591E+03  1.12252E+04
 -1.66232E+03  1.32099E+04 -1.11383E+04  1.04120E+04 -1.59665E+04  3.86961E+03 -1.18607E+04 -5.32530E+03
 -6.58334E+03 -9.85556E+03 -3.12157E+02 -9.68522E+03  1.98046E+03 -4.28679E+03  4.16830E+03 -4.45572E+03
  1.93206E+03 -2.14414E+03  3.03055E+03 -4.58775E+03  4.17722E+03 -1.37090E+03  5.46205E+03  1.15948E+02
  6.81209E+03  2.42095E+03  2.94624E+03  5.52476E+03 -9.00818E+02  6.10405E+03 -7.39131E+03  3.83245E+03
 -7.79059E+03 -4.32794E+02 -3.88577E+03 -4.55613E+03 -1.48993E+03 -8.89318E+03  5.14131E+03 -7.78720E+03
  9.41011E+03 -5.11932E+03  1.11214E+04 -1.91203E+02  8.01428E+03  8.60855E+03  1.22857E+03  9.34731E+03
 -4.03711E+03  7.89825E+03 -5.86683E+03  2.76193E+03 -3.72769E+03 -1.22651E+03 -1.07903E+03 -2.01504E+03
 -1.30944E+03  1.50520E+02 -9.96685E+02  1.11625E+03 -3.20606E+03  1.37293E+03 -5.98536E+03  5.47631E+02
 -2.31533E+03 -6.27870E+03 -4.08203E+01 -6.97596E+03  5.46232E+03 -7.65980E+03  7.28774E+03 -3.30045E+03
  8.13488E+03  3.93636E+03  3.32204E+03  6.25869E+03 -1.69448E+03  8.04856E+03 -6.33562E+03  4.60765E+03
 -7.10873E+03  2.75595E+01 -3.79325E+03 -4.66470E+03 -1.28805E+03 -5.26580E+03  3.92904E+03 -4.32543E+03
  3.73755E+03 -2.94175E+03  3.53994E+03  2.10309E+03  8.00103E+02  2.51165E+03 -4.96324E+01  1.59377E+03
  7.85254E+02  1.78574E+03  1.96871E+03  8.19916E+02  2.72117E+03  2.91532E+03  2.17989E+03  3.00754E+03
 -2.25808E+03  5.33423E+03 -3.94604E+03  6.45960E+03 -6.51687E+03  1.62683E+03 -6.82940E+03 -2.08857E+03
 -4.26112E+03 -7.11791E+03  9.37698E+02 -8.02889E+03  4.38114E+03 -5.51910E+03  5.82134E+03 -1.45341E+03
  4.76722E+03  3.87242E+03  9.64700E+02  4.66478E+03  4.80912E+02  3.10835E+03 -2.56494E+03  5.28806E+02
 -9.83010E+02 -2.79393E+03  1.79617E+03 -3.36661E+03  2.81565E+03 -3.02648E+03  2.49776E+03  1.07978E+03
  1.54322E+03  1.09013E+03  3.05370E+02  1.01727E+03 -1.49894E+03  5.42152E+02  1.42978E+03 -1.10071E+03
  1.33976E+03 -6.11051E+02  3.87541E+03  1.98968E+03  9.73770E+02  4.28197E+03 -4.97440E+01  5.82954E+03
 -3.55053E+03  2.22678E+03 -3.85249E+03  1.46779E+03 -4.14296E+03 -1.42945E+03 -1.88056E+03 -1.46649E+03
  1.07641E+03 -3.05976E+03  1.06801E+03 -6.30441E+02  9.29970E+02  2.23300E+03 -1.59401E+03  2.78638E+03
 -3.88700E+03  2.78457E+03 -2.11956E+03 -2.09043E+03 -2.05851E+03 -4.44238E+03 -9.14322E+01 -3.37660E+03
  1.60739E+03 -1.13254E+03  2.19404E+03 -1.34201E+02  6.38876E+02  9.86510E+01  2.12383E+02  2.88586E+03
 -4.68495E+02  3.32214E+02 -9.80737E+02 -1.20313E+03  1.26869E+03 -2.69691E+03  4.38123E+03 -9.90784E+02
  3.09301E+03  1.59653E+03  4.21493E+03  1.68139E+03  1.30880E+03  3.80919E+03 -2.03334E+03  4.05125E+03
 -3.24736E+03  2.15889E+03 -2.36244E+03 -3.83651E+02 -1.66976E+03 -4.46136E+03  3.57343E+02 -1.69959E+03
  2.92087E+03 -2.11825E+03  8.55248E+02  9.03415E+02  2.41889E+03  1.27013E+03 -3.85192E+02  1.77060E+03
 -1.37656E+03  1.95387E+03  1.01011E+02 -2.06959E+02  6.05229E+02  1.93800E+03 -1.46497E+03  1.23444E+03
 -8.59028E+02  6.74628E+02 -3.26788E+03  7.22199E+02 -3.58946E+03  4.41200E+02 -3.94244E+03 -3.69338E+03
 -2.55225E+03 -4.21161E+03  2.98502E+02 -5.36443E+03  2.45327E+03 -3.89037E+03  4.40487E+03 -2.15795E+03
  6.01248E+03  9.33396E+02  3.23853E+03  3.65928E+03  3.38409E+02  2.88488E+03 -2.14851E+03  3.33035E+03
 -1.76149E+03  8.68017E+02 -1.35710E+03 -4.56636E+02  3.36980E+02 -1.77524E+02 -7.28390E+02 -2.29415E+02
 -1.52008E+03  1.27297E+03 -5.79379E+02  3.21716E+02  3.24308E+02 -1.31086E+03 -1.14334E+03 -1.16751E+03
  1.96199E+03 -1.67454E+03  1.89888E+03  9.76438E+02  1.99262E+03  2.29188E+03  6.64158E+02  2.84665E+03
 -2.10960E+03  4.10147E+03 -1.96057E+03  2.20005E+03 -4.21411E+03  7.72245E+02 -2.19405E+03 -2.47251E+03
 -3.09778E+03 -3.40133E+03  1.60715E+03 -2.24122E+03  3.12610E+03 -1.63321E+03  2.63788E+03 -3.52941E+02
  6.63810E+02  1.39466E+03 -4.24098E+02  1.49759E+03 -8.77659E+02  4.37383E+02 -8.14973E+02 -6.45027E+02
  8.21574E+02 -4.34502E+02  6.44719E+02  9.92690E+02  1.68951E+02  8.00511E+02  1.30147E+03  1.41797E+03
 -6.54510E+02  2.02145E+03 -1.91405E+03 -5.30294E+02 -2.44615E+03 -3.33473E+02  3.97819E+01 -2.46538E+03
  2.17142E+03 -2.79863E+03  2.69211E+03 -1.67841E+03  2.31352E+03  4.99290E+02  1.08260E+03  1.97275E+03
 -1.74327E+02  1.32590E+03  4.02803E+02  8.63071E+02 -2.10184E+03  5.06000E+02 -1.29235E+03 -2.45061E+02
  9.40375E+02  4.45169E+02 -5.82964E+02 -2.52703E+02 -7.24048E+02  2.44675E+02 -2.12778E+03  4.82385E+01
 -1.91118E+03  4.21497E+02 -4.52241E+02 -2.17553E+03  2.05636E+03 -3.32429E+03  2.45676E+03 -3.90037E+02
  2.32468E+03 -3.71677E+02  1.41919E+03  2.41048E+03  5.09413E+02  1.34103E+03 -1.62567E+03  1.95484E+03
