 $NMID ID='MM_0lb_SNR200_18hz_g40_34.RAW', FMTDAT='(8E13.5)'
 TRAMP=1., VOLUME=1. $END
  3.09396E+05  7.24433E+02  3.37193E+05  2.49867E+05  8.49743E+04  3.36972E+05 -1.30801E+05  2.50069E+05
 -1.88333E+05  8.13801E+04 -1.10192E+05 -3.32654E+04  5.86146E+02 -5.06995E+04  5.33534E+04 -4.04543E+02
  3.41044E+04  5.34693E+04 -1.55905E+04  7.30798E+04 -6.02180E+04  6.27001E+04 -8.27610E+04  3.07719E+04
 -7.93199E+04 -1.24406E+04 -5.60824E+04 -5.03515E+04 -1.48776E+04 -6.79492E+04  2.69695E+04 -4.40615E+04
  3.77433E+04  4.01200E+03  1.55398E+04  4.79972E+04 -3.41731E+04  4.59333E+04 -6.52101E+04 -6.33639E+02
 -5.21866E+04 -5.56747E+04 -6.25639E+03 -7.43933E+04  3.33310E+04 -5.25601E+04  4.72474E+04 -1.61994E+04
  4.08708E+04  1.07786E+04  3.09288E+04  2.46219E+04  1.54538E+04  2.78277E+04 -4.91149E+03  2.70385E+04
 -2.19530E+04  1.36777E+04 -2.02427E+04 -3.43818E+03  3.53708E+03 -7.73247E+03  2.19735E+04  1.07424E+04
  7.01121E+03  3.28337E+04 -3.01806E+04  3.44008E+04 -6.13944E+04  2.08833E+03 -5.56352E+04 -4.13786E+04
 -1.22485E+04 -6.07992E+04  3.72740E+04 -4.25076E+04  5.49415E+04 -1.10475E+03  3.20274E+04  3.03391E+04
 -6.30500E+03  3.28614E+04 -2.81700E+04  1.32524E+04 -2.83440E+04 -4.98493E+03 -1.32348E+04 -9.04445E+03
 -7.50324E+03 -1.23119E+04 -6.58284E+02 -1.53165E+04  6.92843E+03 -2.31894E+04  1.42253E+04 -1.38642E+04
  1.27482E+04  4.72568E+03 -4.98978E+03  1.33967E+04 -1.93537E+04 -2.16495E+03 -7.91260E+03 -2.90047E+04
  2.04976E+04 -4.13329E+04  4.44765E+04 -2.00691E+04  4.13128E+04  1.99292E+04  1.35198E+04  4.18528E+04
 -1.40898E+04  2.99566E+04 -2.28584E+04  6.18912E+02 -8.10458E+03 -2.67723E+04  2.05397E+04 -3.19699E+04
  3.74251E+04 -8.04215E+03  3.06819E+04  2.21322E+04  1.53988E+04  4.14777E+04 -6.97480E+03  4.44611E+04
 -2.71852E+04  2.94387E+04 -3.66910E+04  7.40263E+03 -3.71533E+04 -1.45350E+04 -2.08111E+04 -3.43264E+04
  6.94558E+03 -3.38735E+04  2.88808E+04 -1.20095E+04  2.76221E+04  9.85886E+03  3.58669E+03  1.79763E+04
 -1.36641E+04  7.25942E+03 -9.78688E+03 -6.94385E+03  6.22481E+03 -9.86785E+03  1.71086E+04  7.07476E+03
  1.26015E+04  2.11965E+04 -6.73579E+03  2.34066E+04 -2.11207E+04  8.90947E+03 -2.42034E+04 -5.90452E+03
 -1.62508E+04 -1.61664E+04 -5.61387E+03 -1.57676E+04  4.38122E+03 -1.46102E+04  1.20892E+04 -1.40626E+04
  2.19345E+04 -1.14660E+04  2.88413E+04  1.30534E+03  2.05911E+04  1.62621E+04  3.84895E+03  3.16393E+04
 -1.57125E+04  2.68855E+04 -2.55132E+04  9.89753E+03 -2.14205E+04 -1.11029E+04 -2.40209E+03 -1.36844E+04
  4.05247E+03 -3.68754E+03 -2.21358E+03  5.70266E+03 -1.30330E+04  5.37102E+03 -1.32593E+04 -4.82812E+03
 -8.87947E+03 -1.55020E+04  5.20344E+03 -1.80545E+04  1.26135E+04 -1.33141E+04  1.52217E+04 -2.02560E+03
  8.76187E+03  1.02125E+04 -3.71411E+02  1.52528E+04 -9.51075E+03  9.19508E+03 -1.49146E+04 -2.85703E+03
 -1.18678E+04 -1.34663E+04 -9.20732E+02 -1.92472E+04  8.26495E+03 -1.55605E+04  1.61362E+04 -7.85978E+03
  1.38373E+04 -8.02195E+02  9.86840E+03  3.22321E+03  4.76833E+03  7.16869E+02  6.91926E+03 -2.08793E+03
  1.37404E+04  4.29040E+03  1.42970E+04  1.32389E+04  8.88368E+03  2.47262E+04 -3.24626E+03  2.68962E+04
 -1.55723E+04  2.06881E+04 -2.39741E+04  9.07546E+03 -2.47396E+04 -2.37384E+03 -2.09638E+04 -1.49385E+04
 -1.03091E+04 -2.08116E+04  7.54922E+03 -1.93584E+04  1.48935E+04 -1.12989E+04  1.48677E+04  3.76668E+03
  6.61830E+03  1.13786E+04 -7.38151E+03  1.01276E+04 -1.34482E+04  2.48584E+03 -1.04679E+04 -7.15773E+03
  3.57293E+02 -1.17589E+04  6.34099E+03 -9.52457E+03  7.65578E+03 -6.67582E+02  1.44007E+03  4.62786E+03
 -6.22116E+03  1.01775E+03 -3.10615E+03 -5.07491E+03 -3.55669E+02 -1.10675E+04  7.94108E+03 -9.94664E+03
  1.14102E+04 -4.85919E+03  1.08101E+04  2.26666E+03  9.81791E+03  9.90441E+03  5.03293E+03  1.22150E+04
 -1.24880E+03  1.55149E+04 -9.34022E+03  9.78580E+03 -1.10247E+04  2.73014E+03 -7.92655E+03 -1.86567E+03
 -3.50803E+03 -3.47950E+03 -4.77776E+02  1.54912E+03 -2.27164E+03  2.92050E+03 -4.42655E+03  2.92955E+03
 -8.20700E+03 -1.10356E+01 -8.54733E+03 -8.16785E+03 -3.21084E+03 -1.20724E+04  3.23763E+03 -6.77079E+03
  6.32328E+03 -2.73179E+03  4.63210E+03  2.12980E+03  3.54991E+02  3.58377E+03 -3.91756E+03  2.19577E+02
 -3.18465E+03 -5.11364E+03 -7.58469E+02 -7.33228E+03  4.06245E+03 -8.03518E+03  1.02832E+04 -2.83698E+03
  1.09435E+04  2.53367E+02  8.42607E+03  5.82055E+03  2.59762E+03  9.08262E+03 -4.29973E+03  8.47986E+03
 -7.32103E+03  2.77146E+03 -4.17681E+03 -5.67497E+02  2.93696E+03 -1.80288E+03  4.64756E+03 -1.01288E+03
  3.10390E+03  2.50053E+03  1.29732E+03  7.45017E+03 -4.40049E+03  5.96993E+03 -7.84990E+03  2.90273E+03
 -4.38711E+03 -4.54752E+03 -9.19588E+02 -7.27980E+03  4.22594E+03 -3.00139E+03  3.92253E+03  6.04048E+02
  8.28987E+01  2.83574E+03 -4.32115E+03  4.33618E+03 -4.92202E+03  1.97252E+03 -3.43520E+03 -2.01346E+03
 -3.91555E+03 -6.16104E+03  1.36764E+03 -7.26813E+03  5.72156E+03 -5.22956E+03  5.58710E+03  1.01559E+03
  4.37919E+03  6.08680E+03 -9.77438E+01  6.57317E+03 -4.17714E+03  5.76616E+03 -6.07124E+03 -1.83271E+03
 -5.59999E+03 -5.86422E+03 -1.73654E+03 -5.23323E+03  2.75546E+03 -4.62284E+03  3.24738E+03 -2.27811E+03
  1.96941E+03  3.00501E+02 -4.57507E+02  1.75574E+03  8.13479E+02  1.91733E+02  8.70734E+01 -1.93572E+03
  4.73812E+03 -1.24920E+02  5.40437E+03  1.30253E+03  6.18356E+03  3.88902E+03  5.77997E+03  6.89890E+03
 -1.31504E+03  8.13772E+03 -6.85072E+03  6.31783E+03 -9.88731E+03  1.54755E+03 -8.64396E+03 -2.62207E+03
 -3.77805E+03 -6.30159E+03  9.95871E+00 -5.67151E+03  2.96823E+03 -2.33100E+03  1.80704E+03 -4.38855E+02
  1.18739E+03 -1.60450E+03  4.15955E+02 -3.26454E+03  3.37753E+03 -1.23603E+03  3.11395E+03  6.88996E+02
  4.99402E+03  1.07286E+03  1.50757E+03  4.62790E+03 -2.12902E+03  3.34512E+03 -4.04088E+03  2.12872E+03
 -4.00099E+03 -6.97491E+02 -1.25646E+03 -3.01578E+03  1.03884E+03 -5.48655E+03  2.88101E+03 -5.69982E+03
  5.68095E+03 -3.46118E+03  6.86378E+03 -2.72858E+02  4.86415E+03  3.67071E+03  8.60055E+02  6.33384E+03
 -1.92443E+03  6.09844E+03 -3.41482E+03  2.20967E+03 -2.32359E+03 -7.26518E+02 -7.09068E+02 -1.57172E+03
 -1.02209E+03  2.24480E+02 -1.11981E+03  1.61124E+03 -2.70778E+03  9.77487E+02 -4.77857E+03 -1.52365E+03
 -1.48267E+03 -4.63019E+03  2.06862E+02 -4.47887E+03  1.37043E+03 -4.19549E+03  3.69557E+03 -1.19331E+03
  4.79587E+03  3.00282E+03  1.76128E+03  3.89060E+03 -1.12376E+03  4.50772E+03 -1.36436E+03  3.19578E+03
 -3.69581E+03  6.18401E+01 -3.98405E+03 -2.69466E+03  2.46514E+02 -3.23157E+03  1.55695E+03 -2.64878E+03
  2.64982E+03 -1.06131E+03  1.50649E+03  1.40769E+03 -5.07113E+02  1.77870E+03  3.69600E+02  6.09098E+02
  1.98073E+03  9.33652E+01  1.26836E+03  3.47342E+02  7.76182E+02  2.57248E+03  1.87296E+03  9.22527E+02
 -7.83102E+02  3.02273E+03 -2.50169E+03  4.80543E+03 -3.56096E+03  1.33400E+03 -3.49009E+03 -6.77131E+02
 -1.52470E+03 -4.04906E+03  1.65028E+03 -4.83799E+03  1.80379E+03 -1.52229E+03  3.52076E+03 -1.73039E+03
  2.27136E+03  2.46307E+03  1.61258E+03  2.67206E+03 -1.70317E+03  2.11431E+03 -1.28393E+03  4.45279E+02
 -7.59238E+02 -1.75671E+03  2.30484E+03 -7.27706E+02  1.60455E+03 -1.44066E+03  2.09505E+03  6.42044E+02
  3.37298E+02  4.71729E+02 -5.81442E+01  7.68572E+01 -8.13355E+01  4.03403E+02  8.12978E+02 -3.91666E+02
 -1.78786E+02 -8.28018E+01  9.02863E+02  6.16274E+02  4.24007E+01  2.91284E+03  6.22803E+02  2.20715E+03
 -2.00537E+03  8.16498E+02 -3.51873E+02 -3.61001E+02 -2.00337E+03  1.63535E+02 -3.91496E+02 -8.58731E+02
  3.11010E+02 -1.37853E+03  8.96675E+02 -1.57460E+03 -1.38624E+02  7.41303E+02 -6.46539E+02  1.31688E+03
 -1.92570E+03  1.30523E+03 -1.44778E+03 -1.91915E+03 -2.37737E+02 -1.24530E+03  4.51194E+02 -1.84640E+03
  1.03962E+03  1.26992E+02  3.30403E+02  4.65155E+02  2.29519E+03 -3.77245E+02 -4.51092E+02  2.42371E+02
 -1.54739E+03  9.30553E+02 -3.92683E+02 -3.44307E+02  6.91217E+02 -1.00539E+03  2.82185E+03 -5.18694E+02
  7.10955E+02 -7.46313E+02  4.06173E+03  1.98341E+03  1.10611E+03  1.09782E+03 -1.05457E+03  2.91356E+03
 -1.77274E+03  1.23863E+02 -1.13306E+03  2.14710E+02 -1.07137E+03 -7.78759E+02 -4.86202E+02 -1.49685E+03
  1.32433E+03 -1.24364E+03  2.75335E+02  1.49884E+03  3.07669E+02  1.45827E+03  2.19707E+02  7.46837E+02
  1.84888E+02  1.08944E+03  4.26898E+02 -1.11233E+02  1.92017E+02  3.23912E+02 -1.60665E+03  1.22203E+02
 -9.84927E+02  1.05584E+03 -1.64180E+03  1.97538E+03 -1.87309E+03  4.66868E+01 -2.66736E+03 -1.27221E+03
 -1.78346E+03 -2.74462E+03  1.78744E+03 -3.20021E+03  2.05805E+03 -2.58521E+03  3.62557E+03 -5.16564E+02
  3.71289E+03 -5.07838E+02  8.85458E+01  1.88808E+03 -9.03953E+02  2.26343E+03 -7.57732E+02  2.85941E+02
 -7.48932E+02  2.04696E+02 -1.04557E+03 -7.67587E+02 -1.21651E+03 -4.18713E+01 -1.02570E+03  1.07067E+02
 -1.50188E+03  6.20966E+02 -4.04445E+02 -7.43066E+01  9.76956E+02 -5.58157E+02  6.71139E+02 -1.14623E+03
  1.13948E+03 -1.89589E+02  1.27973E+03 -4.82452E+02  1.53093E+03  1.17015E+03 -6.38034E+02  2.34485E+03
 -8.42047E+02  2.21724E+03 -1.10485E+03  2.68274E+03 -1.63844E+03 -5.64420E+02 -2.67865E+03 -1.72317E+03
 -1.62727E+03 -1.01252E+03  1.33584E+03 -1.23554E+03  1.44993E+03 -3.99436E+02  1.86866E+02 -2.23659E+02
  1.26671E+03  9.02945E+02  3.30157E+02  9.88729E+02 -3.96045E+02  1.62546E+03 -2.91003E+02 -1.09659E+02
  7.89022E+02  2.18715E+02  2.88185E+02  9.27679E+02 -4.45977E+02  1.23757E+03  9.56759E+02  1.04665E+03
 -1.71423E+02  1.44230E+03 -2.00806E+03  1.19179E+02 -5.57927E+02 -1.44660E+03  4.42868E+02 -1.59836E+03
  5.00091E+02 -4.94187E+02  1.40514E+03  3.32262E+02  9.93096E+02 -5.26875E+02  4.92327E+02  1.11955E+03
  3.64814E+02  1.36991E+02 -1.75475E+03  1.53262E+03 -5.99071E+02  7.31686E+02 -3.53287E+02  1.88356E+02
 -4.49580E+02 -1.73001E+03  8.51716E+02  1.28120E+03 -1.95883E+02  2.70570E+02 -1.11869E+03 -6.39055E+02
 -1.72839E+03 -3.74089E+02  2.61383E+02 -1.30095E+03  3.17290E+02 -1.44215E+03  1.14892E+03  3.18858E+02
  8.04459E+02  8.68178E+00 -5.55537E+02  1.23551E+03 -3.82972E+02 -2.11634E+01 -8.60249E+02  6.83009E+02
