 $NMID ID='MM_0lb_SNR200_14hz_g40_61.RAW', FMTDAT='(8E13.5)'
 TRAMP=1., VOLUME=1. $END
  3.10094E+05  5.60889E+02  3.36073E+05  2.50973E+05  8.35106E+04  3.37786E+05 -1.31140E+05  2.49565E+05
 -1.89728E+05  8.19403E+04 -1.10791E+05 -3.29022E+04  8.65412E+02 -5.01435E+04  5.30208E+04  6.90700E+02
  3.65621E+04  5.19268E+04 -1.63867E+04  7.48031E+04 -5.99778E+04  6.37437E+04 -8.48484E+04  3.07973E+04
 -8.12256E+04 -1.20317E+04 -5.69852E+04 -5.10843E+04 -1.61511E+04 -6.92901E+04  2.74992E+04 -4.53509E+04
  3.99902E+04  3.61685E+03  1.52002E+04  4.77138E+04 -3.36400E+04  4.55997E+04 -6.60323E+04 -1.04140E+02
 -5.31202E+04 -5.65593E+04 -6.27400E+03 -7.59455E+04  3.40665E+04 -5.51144E+04  4.74494E+04 -1.69411E+04
  4.30071E+04  1.07465E+04  3.17845E+04  2.51620E+04  1.66196E+04  2.91399E+04 -5.34431E+03  2.67886E+04
 -2.13397E+04  1.22201E+04 -1.82087E+04 -4.87362E+03  4.37904E+03 -8.02402E+03  2.19540E+04  1.15553E+04
  6.83320E+03  3.47533E+04 -3.14756E+04  3.54360E+04 -6.32758E+04  2.53697E+03 -5.73276E+04 -4.33412E+04
 -1.28042E+04 -6.28437E+04  4.00290E+04 -4.50393E+04  5.77148E+04 -1.38974E+03  3.39617E+04  3.24874E+04
 -5.67597E+03  3.45718E+04 -3.00428E+04  1.55331E+04 -3.00871E+04 -4.00833E+03 -1.59296E+04 -1.08072E+04
 -7.55155E+03 -1.24624E+04 -1.73916E+03 -1.82192E+04  7.14843E+03 -2.30943E+04  1.55631E+04 -1.34715E+04
  1.14041E+04  5.16707E+03 -7.69207E+03  1.24529E+04 -2.07836E+04 -3.54280E+03 -9.36264E+03 -3.31355E+04
  2.17035E+04 -4.28229E+04  4.65277E+04 -1.99006E+04  4.44552E+04  1.85769E+04  1.64409E+04  4.28602E+04
 -1.55817E+04  3.12785E+04 -2.53254E+04  1.96516E+03 -9.66827E+03 -2.78632E+04  2.11197E+04 -3.27799E+04
  4.00882E+04 -7.43476E+03  3.37994E+04  2.31125E+04  1.76346E+04  4.51760E+04 -8.71034E+03  4.88675E+04
 -3.11420E+04  3.30370E+04 -3.96476E+04  8.96467E+03 -4.02951E+04 -1.59287E+04 -2.25353E+04 -3.63412E+04
  6.36035E+03 -3.70933E+04  3.10226E+04 -1.27124E+04  2.91473E+04  1.14964E+04  2.38342E+03  1.82020E+04
 -1.34995E+04  7.71706E+03 -1.07548E+04 -7.00661E+03  5.44594E+03 -1.11985E+04  1.65826E+04  6.13822E+03
  1.33470E+04  2.20857E+04 -7.16131E+03  2.40423E+04 -2.22602E+04  1.05043E+04 -2.71396E+04 -5.97510E+03
 -2.10277E+04 -1.83074E+04 -8.23626E+03 -1.97566E+04  5.74612E+03 -1.87047E+04  1.50929E+04 -1.78673E+04
  2.50784E+04 -1.29517E+04  3.11538E+04  2.14800E+03  2.26837E+04  1.93612E+04  4.74007E+03  3.63003E+04
 -1.86838E+04  2.95405E+04 -2.65867E+04  9.17444E+03 -2.05631E+04 -9.51458E+03 -3.72068E+03 -1.38797E+04
  1.70863E+03 -3.18821E+03 -3.66476E+03  5.48183E+03 -1.56142E+04  4.89313E+03 -1.58202E+04 -6.52010E+03
 -1.00938E+04 -1.87482E+04  5.25250E+03 -2.28138E+04  1.46401E+04 -1.71532E+04  1.64026E+04 -1.14657E+03
  1.08598E+04  1.39201E+04 -1.84429E+03  1.82174E+04 -1.30709E+04  9.99686E+03 -1.91018E+04 -3.30651E+03
 -1.34764E+04 -1.68638E+04 -2.08296E+03 -2.16097E+04  1.14372E+04 -1.85584E+04  1.88235E+04 -8.96784E+03
  1.74958E+04  2.41644E+03  1.23767E+04  4.96029E+03  5.73532E+03  1.15532E+03  9.69707E+03 -1.18252E+03
  1.67259E+04  3.35865E+03  1.84417E+04  1.49338E+04  1.26877E+04  2.93276E+04 -3.23069E+03  3.30953E+04
 -1.94632E+04  2.66816E+04 -3.07668E+04  1.16365E+04 -3.13783E+04 -1.72107E+03 -2.68884E+04 -1.89494E+04
 -1.09976E+04 -2.62079E+04  8.41422E+03 -2.32872E+04  2.18226E+04 -1.25571E+04  1.91049E+04  4.50875E+03
  7.81066E+03  1.41272E+04 -8.91893E+03  1.19773E+04 -1.53651E+04  1.54696E+03 -1.13624E+04 -8.89489E+03
 -4.58833E+02 -1.50520E+04  6.38890E+03 -1.11765E+04  9.61806E+03 -1.67033E+03  1.54277E+03  5.33342E+03
 -6.54970E+03  1.95443E+03 -5.34262E+03 -3.65049E+03  4.93303E+02 -1.29588E+04  8.95244E+03 -1.34984E+04
  1.56334E+04 -5.98946E+03  1.71285E+04  3.89379E+03  1.52649E+04  1.35061E+04  7.25797E+03  1.83944E+04
 -3.59104E+03  2.15345E+04 -1.20082E+04  1.21770E+04 -1.50624E+04  4.91238E+03 -1.12212E+04 -2.63651E+03
 -4.12554E+03 -3.79126E+03 -9.83757E+02 -1.25749E+02 -2.89958E+03  1.75926E+03 -3.94396E+03  3.39512E+03
 -1.07146E+04 -1.51447E+03 -1.09453E+04 -8.48468E+03 -4.62392E+03 -1.41565E+04  4.92870E+03 -1.04004E+04
  8.85273E+03 -4.70206E+03  7.65044E+03  2.63157E+03  6.80437E+02  3.93191E+03 -4.60548E+03  3.47991E+02
 -5.45230E+03 -5.12969E+03 -1.13064E+03 -1.02881E+04  4.98859E+03 -1.08507E+04  1.30120E+04 -5.75180E+03
  1.55211E+04  2.80257E+02  1.17234E+04  8.59919E+03  1.81694E+03  1.23611E+04 -6.67347E+03  1.06452E+04
 -8.86225E+03  3.02305E+03 -5.69805E+03 -2.66214E+03  1.83924E+03 -2.45671E+03  6.48821E+03 -1.75246E+03
  5.85909E+03  4.92947E+03  1.53861E+03  7.28785E+03 -5.28896E+03  8.32610E+03 -1.06210E+04  1.99268E+03
 -6.19236E+03 -5.01519E+03 -3.12571E+02 -9.31759E+03  6.12417E+03 -4.38341E+03  4.71495E+03  2.05961E+03
  9.76232E+02  5.32870E+03 -4.72465E+03  5.32253E+03 -7.60225E+03  3.13819E+03 -6.71774E+03 -3.04928E+03
 -4.02021E+03 -8.48394E+03  1.25549E+03 -1.08729E+04  1.03122E+04 -5.71568E+03  9.73308E+03  2.74823E+03
  4.83025E+03  6.95487E+03 -6.17699E+02  8.98441E+03 -7.55994E+03  5.63622E+03 -8.04470E+03 -9.97578E+02
 -7.15674E+03 -7.51451E+03 -1.82976E+03 -7.77911E+03  2.60314E+03 -5.20520E+03  4.28802E+03 -2.50484E+03
  2.88254E+03  1.64579E+01 -1.44069E+02  1.10156E+03 -3.68005E+02 -1.53314E+03  7.57075E+02 -4.06973E+03
  4.75839E+03 -2.36984E+03  8.32550E+03 -1.22720E+02  6.95053E+03  5.95821E+03  7.68588E+03  1.13573E+04
 -2.71536E+03  1.40792E+04 -1.16809E+04  1.02941E+04 -1.47122E+04  2.87085E+03 -1.15878E+04 -4.51502E+03
 -5.57057E+03 -1.01971E+04  2.77963E+02 -7.60747E+03  3.52549E+03 -4.50954E+03  2.94509E+03 -3.80149E+03
  1.60729E+03 -2.29841E+03  2.75595E+03 -2.97004E+03  5.09660E+03 -2.24245E+03  5.31809E+03 -6.62334E+02
  6.64614E+03  1.43622E+03  3.51786E+03  5.33553E+03 -1.43231E+03  6.65535E+03 -5.62424E+03  3.57453E+03
 -9.60797E+03 -1.65128E+03 -4.84613E+03 -6.49374E+03 -1.12803E+03 -8.31363E+03  4.27786E+03 -8.63943E+03
  8.38005E+03 -4.83479E+03  1.07777E+04  1.31105E+03  7.71446E+03  7.39636E+03  2.35052E+03  7.99928E+03
 -3.78891E+03  8.44312E+03 -4.82550E+03  2.30015E+03 -3.88956E+03 -1.02508E+03 -1.13381E+03  3.08358E+02
 -1.45802E+03  5.83597E+02 -1.72242E+03  1.60977E+03 -4.07350E+03  2.25768E+03 -6.30186E+03 -1.12416E+03
 -3.83543E+03 -7.62969E+03  2.66856E+02 -8.47956E+03  4.81540E+03 -7.14974E+03  6.69222E+03 -1.08817E+03
  6.93265E+03  3.74277E+03  4.03348E+03  5.76587E+03 -1.98251E+03  7.14618E+03 -4.81309E+03  5.17355E+03
 -7.75396E+03  8.54306E+02 -6.47922E+03 -3.76571E+03 -1.32615E+03 -6.85794E+03  2.99783E+03 -4.78421E+03
  4.38041E+03 -8.20836E+02  2.93011E+03  1.11783E+03  3.73937E+02  1.76169E+03  6.60141E+02  6.91620E+02
  2.49916E+03  6.79974E+02  1.66216E+03  1.67503E+03  2.46380E+03  3.09206E+03  3.20398E+03  3.10993E+03
 -1.99754E+03  4.95837E+03 -2.91507E+03  6.50041E+03 -6.66201E+03  1.41379E+03 -7.43359E+03 -2.36161E+03
 -3.45454E+03 -6.63495E+03  3.68992E+02 -8.47640E+03  4.13187E+03 -6.24962E+03  6.02700E+03 -1.33761E+03
  4.81555E+03  2.95940E+03  1.38294E+03  4.64062E+03 -2.06920E+03  2.91810E+03 -2.81940E+03 -1.01604E+03
 -2.45527E+03 -3.82871E+03  7.61648E+02 -3.02834E+03  1.03380E+03 -2.34173E+03  3.33281E+03  1.08137E+02
  2.20216E+03  1.02373E+03 -2.18152E+02  3.81858E+02 -1.21781E+03 -1.77070E+02  9.98728E+02 -4.99972E+02
 -1.19822E+02 -6.57971E+02  3.05041E+03  1.54098E+03  1.41031E+03  3.91753E+03 -6.57919E+02  5.75456E+03
 -3.17174E+03  3.62716E+03 -3.99978E+03  1.13318E+03 -3.87635E+03 -1.85474E+03 -1.02665E+03 -1.48677E+03
  1.38353E+02 -2.60204E+03  1.66665E+03 -2.23213E+03  1.85823E+03  1.73880E+03 -7.73918E+01  1.21343E+03
 -3.59264E+03  8.43147E+02 -2.93454E+03 -1.32123E+03 -1.35966E+03 -4.25604E+03  1.46114E+03 -3.23440E+03
  2.95870E+03 -2.10516E+03  2.65309E+03 -1.11039E+02  2.86210E+03  7.25465E+02  7.11816E+02  1.76997E+03
 -6.13055E+02  3.84744E+02 -1.62433E+03 -1.73943E+03  6.42998E+02 -2.89973E+03  3.34160E+03 -2.16798E+03
  4.54633E+03 -1.56409E+03  4.14876E+03  2.58608E+03  1.36691E+03  4.57786E+03  3.45630E+02  4.18352E+03
 -3.92846E+03  1.68098E+03 -4.02892E+03 -1.05883E+03 -1.85129E+03 -2.66071E+03  3.55036E+02 -1.89692E+03
  4.11209E+03 -1.18151E+03  6.07936E+02  1.06174E+03  4.17396E+02  1.48090E+03 -6.58098E+02  3.11605E+03
 -1.15883E+02  2.06683E+03 -1.92186E+03  7.93405E+02 -2.61960E+02  7.94823E+02 -1.21325E+03  9.47903E+02
 -1.70993E+03  8.14822E+02 -2.69989E+03  4.72328E+02 -3.28946E+03  2.24408E+02 -4.84741E+03 -2.81618E+03
 -2.57400E+03 -5.22438E+03  1.03257E+03 -5.85194E+03  2.94864E+03 -4.68967E+03  4.72456E+03 -1.19538E+03
  6.13896E+03  3.59172E+02  1.90101E+03  3.76778E+03 -9.94432E+02  3.33724E+03 -1.47530E+03  2.80128E+03
 -3.25201E+03  9.94749E+02 -1.17107E+03 -1.34057E+02 -2.23164E+02  7.72129E+01 -4.04274E+02  4.58093E+02
 -1.40711E+03  6.39900E+02 -9.99392E+02  7.06794E+02 -2.91542E+02 -7.69098E+02  2.01919E+02 -1.05456E+03
  3.41980E+03 -1.84183E+03  1.44127E+03  6.10547E+02  2.09989E+03  2.09828E+03  5.89360E+02  4.26768E+03
 -2.39764E+03  4.54098E+03 -3.90705E+03  2.89996E+03 -3.49681E+03 -8.32058E+02 -3.65458E+03 -3.06847E+03
 -1.51983E+03 -3.53723E+03  1.16677E+03 -3.70805E+03  2.13008E+03 -1.38778E+03  2.66709E+03  6.84831E+02
  3.73615E+02  6.54388E+02  1.12036E+02  5.27574E+02  2.83362E+01  5.93567E+02 -8.03076E+02 -5.21326E+02
  1.35328E+03 -1.30019E+01  4.22427E+02  1.07861E+03  8.46153E+02  1.08460E+03 -5.88529E+01  1.27299E+03
 -2.67605E+03  8.29005E+02 -1.90819E+03  3.06100E+01 -2.12797E+03 -2.23168E+03 -6.02101E+02 -2.48989E+03
  1.85477E+03 -2.58835E+03  2.32970E+03 -5.81809E+02  2.31045E+03  8.37665E+02  1.39575E+03  1.99381E+03
 -2.89205E+02  1.59097E+03 -1.80083E+02  1.51524E+03 -1.42333E+03  4.34412E+02 -1.55437E+03  1.75081E+03
 -5.28099E+02 -5.31271E+02 -5.29902E+02 -5.33609E+02 -7.46245E+02  1.43466E+03 -2.58956E+03 -4.76065E+02
 -2.08237E+03 -2.90605E+02  1.79750E+02 -2.53240E+03  8.58525E+02 -2.84224E+03  2.54627E+03 -2.07993E+03
  3.04936E+03  7.19072E+02  2.31354E+03  2.86096E+03 -4.67606E+02  3.18583E+03 -1.23139E+03  1.09794E+03
