 $NMID ID='MM_0lb_SNR200_9hz_g55_69.RAW', FMTDAT='(8E13.5)'
 TRAMP=1., VOLUME=1. $END
  3.10982E+05 -1.55245E+02  3.38545E+05  2.50953E+05  8.49988E+04  3.38499E+05 -1.34141E+05  2.51916E+05
 -1.90547E+05  8.40971E+04 -1.12462E+05 -3.17758E+04  3.06917E+01 -5.00519E+04  5.32193E+04 -7.68504E+02
  3.55727E+04  5.21766E+04 -1.63886E+04  7.60412E+04 -6.17461E+04  6.35955E+04 -8.57321E+04  3.26683E+04
 -8.30601E+04 -1.19646E+04 -5.73326E+04 -5.16242E+04 -1.53490E+04 -7.07256E+04  2.86924E+04 -4.72624E+04
  4.17793E+04  3.57446E+03  1.66507E+04  4.89674E+04 -3.39639E+04  4.82580E+04 -6.81068E+04  7.69008E+02
 -5.42941E+04 -5.67657E+04 -7.43222E+03 -7.77389E+04  3.56863E+04 -5.60577E+04  5.08516E+04 -1.85732E+04
  4.32874E+04  1.15679E+04  3.14357E+04  2.60813E+04  1.52160E+04  3.06959E+04 -4.18268E+03  2.90154E+04
 -2.10241E+04  1.05346E+04 -1.93231E+04 -5.76775E+03  5.78917E+03 -7.42746E+03  2.26950E+04  1.53666E+04
  8.71971E+03  3.76559E+04 -3.34603E+04  3.55145E+04 -6.60779E+04  1.47243E+03 -5.82185E+04 -4.29217E+04
 -1.41050E+04 -6.50404E+04  4.10099E+04 -4.82923E+04  6.04843E+04 -1.37195E+03  3.65912E+04  3.54006E+04
 -3.72735E+03  3.94296E+04 -3.14848E+04  1.89197E+04 -3.47683E+04 -3.94609E+03 -2.00060E+04 -1.17417E+04
 -9.94916E+03 -1.42908E+04 -6.63305E+02 -2.00000E+04  7.67727E+03 -2.23313E+04  1.84402E+04 -1.19827E+04
  1.12018E+04  5.93734E+03 -1.09219E+04  1.21945E+04 -2.34877E+04 -8.55895E+03 -8.32322E+03 -3.91904E+04
  2.51561E+04 -4.88367E+04  5.26334E+04 -2.17654E+04  5.00451E+04  1.97846E+04  1.76764E+04  4.54993E+04
 -1.72171E+04  3.58297E+04 -2.79224E+04  3.57572E+03 -1.21345E+04 -3.15389E+04  2.22675E+04 -3.63797E+04
  4.67440E+04 -1.04460E+04  4.08123E+04  2.40671E+04  2.45941E+04  5.24946E+04 -8.65716E+03  5.59855E+04
 -3.54414E+04  3.65750E+04 -4.71453E+04  9.92027E+03 -5.05402E+04 -1.89057E+04 -2.50612E+04 -4.15740E+04
  9.44516E+03 -4.21231E+04  3.50202E+04 -1.75501E+04  3.21890E+04  1.16410E+04  5.96634E+03  2.13402E+04
 -1.31127E+04  9.96915E+03 -1.23879E+04 -6.58435E+03  5.97112E+03 -9.42797E+03  1.83160E+04  6.98685E+03
  1.38913E+04  2.26173E+04 -5.28941E+03  2.72646E+04 -2.27190E+04  1.51667E+04 -3.23415E+04 -1.64165E+03
 -2.62219E+04 -1.96176E+04 -1.26948E+04 -2.54875E+04  4.37144E+03 -2.66010E+04  2.02081E+04 -2.31444E+04
  3.20137E+04 -1.42959E+04  3.94016E+04  4.98805E+03  2.84445E+04  2.50995E+04  4.51645E+03  4.29634E+04
 -2.10795E+04  3.51603E+04 -3.02594E+04  1.21478E+04 -2.18609E+04 -1.00381E+04 -4.98217E+03 -1.26139E+04
  5.18561E+02 -7.72838E+02 -8.08116E+03  9.36361E+03 -2.20368E+04  4.41164E+03 -2.00134E+04 -8.82146E+03
 -1.34143E+04 -2.44779E+04  8.01829E+03 -2.91337E+04  1.84743E+04 -1.98653E+04  2.26708E+04 -2.44689E+03
  1.36152E+04  1.58139E+04 -4.86672E+02  2.39662E+04 -1.72103E+04  1.43407E+04 -2.53009E+04 -5.85603E+03
 -1.80166E+04 -2.18886E+04 -1.42359E+02 -2.69312E+04  1.27358E+04 -2.37594E+04  2.42270E+04 -1.35626E+04
  2.14302E+04 -2.14923E+02  1.57530E+04  4.87328E+03  7.88353E+03  1.29224E+03  1.21690E+04 -2.35490E+03
  2.18598E+04  2.90671E+03  2.55483E+04  1.84496E+04  1.68831E+04  3.87416E+04 -3.23460E+03  4.48696E+04
 -2.66561E+04  3.76557E+04 -4.24244E+04  2.09729E+04 -4.63004E+04 -3.13313E+03 -3.68724E+04 -2.67628E+04
 -1.38568E+04 -3.76552E+04  1.37151E+04 -3.39305E+04  2.72439E+04 -1.44909E+04  2.57232E+04  6.42002E+03
  9.36704E+03  1.97847E+04 -1.25523E+04  1.57797E+04 -2.13399E+04  1.40693E+03 -1.40336E+04 -1.32605E+04
  1.74418E+01 -1.88579E+04  1.14457E+04 -1.39550E+04  1.25584E+04 -5.81315E+02  3.67611E+03  8.49855E+03
 -7.30440E+03  3.94465E+03 -9.26546E+03 -6.85208E+03 -9.89678E+02 -1.84213E+04  1.30239E+04 -2.01732E+04
  2.30851E+04 -1.28481E+04  2.84157E+04  3.33467E+03  2.34863E+04  1.81963E+04  1.15541E+04  2.99571E+04
 -5.31415E+03  3.29762E+04 -2.16666E+04  1.96138E+04 -2.26182E+04  3.39642E+03 -1.55212E+04 -7.95085E+03
 -5.91050E+03 -7.95288E+03 -1.19838E+02  1.36120E+02 -5.33665E+03  2.35403E+03 -6.40145E+03  6.53088E+03
 -1.42859E+04 -1.43128E+03 -1.48520E+04 -1.16486E+04 -7.78257E+03 -1.97534E+04  6.92272E+03 -1.82934E+04
  1.40612E+04 -4.85086E+03  1.01263E+04  3.03091E+03  5.28623E+02  7.98180E+03 -7.53218E+03  1.07290E+02
 -6.55486E+03 -1.06122E+04 -3.05374E+02 -1.57429E+04  1.11088E+04 -1.74543E+04  2.11461E+04 -8.54391E+03
  2.36622E+04  1.93966E+03  1.89540E+04  1.61598E+04  2.39233E+03  2.03630E+04 -1.13846E+04  1.64418E+04
 -1.36040E+04  5.43792E+03 -6.78814E+03 -4.99743E+03  2.53941E+03 -4.97642E+03  7.88456E+03  5.42174E+02
  7.06070E+03  5.82550E+03  1.25209E+03  1.38387E+04 -8.88576E+03  1.26349E+04 -1.73938E+04  2.99915E+03
 -1.04402E+04 -8.41710E+03  6.72336E+02 -1.39032E+04  8.76839E+03 -8.29829E+03  1.10667E+04  4.13113E+03
  1.47522E+03  1.02546E+04 -8.95563E+03  1.39942E+04 -1.41187E+04  6.44107E+03 -1.57441E+04 -3.76677E+03
 -8.34212E+03 -1.72265E+04  3.85912E+03 -1.82294E+04  1.59468E+04 -1.05435E+04  1.77374E+04  4.15362E+03
  9.03438E+03  1.49695E+04 -2.23531E+03  1.79617E+04 -1.10585E+04  9.10352E+03 -1.37721E+04  9.11548E+02
 -1.11872E+04 -1.05286E+04 -1.59595E+03 -1.37233E+04  5.98096E+03 -1.02121E+04  7.93949E+03 -3.33013E+03
  6.20482E+03  1.90915E+03 -2.73825E+03  8.83190E+02 -2.40198E+03 -5.84218E+03  2.60434E+03 -8.31691E+03
  1.31803E+04 -5.85603E+03  1.82976E+04  1.28711E+03  1.58593E+04  1.28943E+04  9.35809E+03  2.23350E+04
 -4.86758E+03  2.47338E+04 -2.14863E+04  1.78326E+04 -2.58827E+04  4.14450E+03 -1.97872E+04 -9.42933E+03
 -9.75899E+03 -1.67756E+04  2.53712E+02 -1.54969E+04  4.96760E+03 -7.21131E+03  4.70186E+03 -6.37318E+03
  3.45265E+03 -3.07461E+03  3.89064E+03 -2.56376E+03  7.57031E+03 -3.47538E+03  9.63012E+03 -1.69765E+03
  1.18580E+04  2.11209E+03  6.28920E+03  9.77764E+03 -2.02734E+03  1.05567E+04 -1.23357E+04  6.61433E+03
 -1.52340E+04 -1.58616E+03 -8.76871E+03 -1.08173E+04 -2.20848E+03 -1.62322E+04  8.44399E+03 -1.57558E+04
  1.81495E+04 -9.64848E+03  1.93083E+04  1.97856E+03  1.45144E+04  1.39983E+04  1.78551E+03  1.91268E+04
 -6.28486E+03  1.38427E+04 -1.11158E+04  5.09769E+03 -7.69477E+03 -1.25091E+03 -4.35236E+03 -3.33003E+03
 -9.44854E+02  5.57859E+02 -2.84390E+03  3.42343E+03 -5.76973E+03  2.12026E+03 -1.12472E+04  6.94309E+01
 -7.06746E+03 -9.97493E+03 -7.92207E+01 -1.31294E+04  1.05487E+04 -1.43118E+04  1.47689E+04 -4.88642E+03
  1.26075E+04  8.91837E+03  7.03017E+03  1.40433E+04 -2.16899E+03  1.44638E+04 -1.09770E+04  9.37924E+03
 -1.40330E+04 -6.38082E+02 -1.09596E+04 -8.31800E+03 -9.11644E+02 -1.24320E+04  4.22610E+03 -9.97381E+03
  1.02544E+04 -3.16782E+03  5.23342E+03  2.69755E+03  1.50960E+03  5.23538E+03  4.31733E+02  1.51306E+03
  2.22479E+03  2.35832E+03  4.37322E+03  1.75243E+03  3.69836E+03  5.53243E+03  3.88903E+03  8.96568E+03
 -3.32843E+03  1.28220E+04 -1.12545E+04  1.31205E+04 -1.50391E+04  3.74566E+03 -1.73732E+04 -6.50220E+03
 -7.73832E+03 -1.70885E+04  3.35423E+03 -1.72181E+04  9.66514E+03 -1.16443E+04  1.36906E+04 -3.23457E+03
  9.84819E+03  4.70431E+03  3.39159E+03  9.14801E+03 -6.21373E+03  5.19338E+03 -5.76733E+03 -8.19725E+02
 -3.06193E+03 -6.94262E+03  5.08177E+03 -6.88962E+03  8.46698E+03 -2.67424E+03  5.58121E+03  1.07224E+03
  4.56543E+03  1.40276E+03 -2.71865E+02  1.86872E+03  1.79474E+02  2.65184E+03  9.50898E+02 -8.02219E+02
  4.33209E+03 -6.00514E+02  7.27426E+03  3.14892E+03  4.10094E+03  8.52267E+03 -7.43189E+02  1.07753E+04
 -8.05157E+03  8.82685E+03 -1.00120E+04  1.29146E+03 -8.64344E+03 -4.21301E+03 -4.00933E+03 -5.40383E+03
  4.58823E+02 -6.64635E+03  2.76983E+03 -4.42402E+03  2.54529E+03  1.73346E+03 -1.32088E+03  6.26953E+03
 -7.41519E+03  2.16051E+03 -6.69324E+03 -3.82099E+03 -3.69250E+03 -9.21346E+03  6.58283E+02 -9.18115E+03
  4.39906E+03 -5.67595E+03  6.32790E+03 -8.45905E+02  4.08018E+03  4.08103E+03  7.63199E+02  5.30236E+03
 -4.03408E+03  2.07136E+03 -3.26916E+03 -2.40960E+03  1.32975E+03 -7.37750E+03  8.66251E+03 -7.70791E+03
  9.28775E+03 -6.31129E+02  9.71827E+03  6.36651E+03  1.92312E+03  1.10807E+04 -4.52657E+03  9.68712E+03
 -8.26961E+03  3.31124E+03 -9.49837E+03 -1.82047E+03 -3.73398E+03 -8.12378E+03  4.17211E+03 -5.76586E+03
  5.49123E+03 -5.01668E+03  4.57075E+03  2.82737E+03  2.06421E+03  6.49171E+03 -1.17823E+03  5.05526E+03
 -2.23626E+03  4.14614E+03 -2.29972E+03  3.01168E+03 -1.00601E+03  1.36943E+03 -5.75705E+02  2.12731E+03
 -1.43240E+03  5.43617E+03 -7.72926E+03  2.20067E+03 -1.15657E+04 -9.41293E+02 -1.26595E+04 -5.62910E+03
 -5.78938E+03 -1.40351E+04  2.63068E+03 -1.58284E+04  1.00225E+04 -1.37190E+04  1.52712E+04 -4.25516E+03
  1.44772E+04  1.83889E+03  8.98146E+03  8.86588E+03  3.62322E+02  1.09377E+04 -4.71057E+03  8.30278E+03
 -6.08034E+03  2.27850E+03 -5.33588E+03 -2.67351E+03 -7.11546E+02 -2.64158E+03 -9.45764E+02  2.80699E+02
 -3.82804E+03  9.72989E+02 -5.45685E+02 -1.48520E+03 -5.92294E+02 -3.83900E+03  1.23934E+03 -2.46406E+03
  3.62098E+03 -3.55127E+03  6.33717E+03 -8.76567E+02  8.62851E+03  6.57068E+03  2.60140E+03  1.15560E+04
 -4.81497E+03  1.30839E+04 -1.16195E+04  8.36543E+03 -1.42435E+04 -2.56009E+02 -9.96485E+03 -9.50994E+03
 -3.94380E+03 -1.16521E+04  1.92655E+03 -1.10267E+04  7.43866E+03 -4.55588E+03  8.48826E+03  7.03609E+02
  4.28416E+03  2.50177E+03 -1.40357E+03  1.37919E+03 -8.96819E+02  5.70978E+02 -1.44752E+02 -1.63948E+03
  2.16391E+03 -3.09036E+03  4.92437E+03  1.46459E+03  3.18083E+03  4.29074E+03  1.35216E+02  5.94068E+03
 -5.08001E+03  3.97348E+03 -9.03966E+03  1.98888E+02 -8.56901E+03 -4.81245E+03 -1.55442E+03 -8.13343E+03
  6.92135E+03 -6.43181E+03  8.64982E+03 -2.51419E+03  7.41293E+03  9.09829E+02  4.72078E+03  6.80259E+03
  1.11515E+03  6.38003E+03 -2.43759E+03  6.07449E+03 -4.56607E+03  2.36282E+03 -3.88726E+03 -7.56846E+02
 -1.37426E+03  9.03141E+02 -2.17299E+03  8.03706E+01 -5.14396E+03  5.70070E+02 -5.08673E+03  9.29490E+02
 -5.14559E+03 -4.72366E+03 -1.35150E+03 -7.92911E+03  3.15822E+03 -8.30832E+03  5.86953E+03 -2.61182E+03
  6.87536E+03  1.63790E+03  2.65884E+03  3.22090E+03 -4.38186E+02  7.78085E+03 -5.95080E+03  6.35780E+03
