 $NMID ID='MM_0lb_SNR200_8hz_g60_48.RAW', FMTDAT='(8E13.5)'
 TRAMP=1., VOLUME=1. $END
  3.10200E+05  2.06966E+03  3.37944E+05  2.51548E+05  8.47966E+04  3.38464E+05 -1.32432E+05  2.53402E+05
 -1.91577E+05  8.47850E+04 -1.13386E+05 -3.32074E+04 -1.39766E+03 -5.18378E+04  5.41893E+04 -1.98613E+03
  3.51550E+04  5.38726E+04 -1.70328E+04  7.56141E+04 -6.15689E+04  6.37618E+04 -8.73447E+04  3.34665E+04
 -8.29881E+04 -1.25946E+04 -6.08700E+04 -5.38270E+04 -1.45981E+04 -7.19468E+04  2.80412E+04 -4.71600E+04
  4.04334E+04  4.58827E+03  1.80663E+04  4.98022E+04 -3.35690E+04  4.84641E+04 -6.83757E+04 -3.07582E+00
 -5.76936E+04 -5.54967E+04 -6.58112E+03 -7.91691E+04  3.49093E+04 -5.68552E+04  5.01966E+04 -1.82989E+04
  4.54496E+04  1.33323E+04  3.40938E+04  2.64438E+04  1.76044E+04  3.13077E+04 -7.69948E+03  2.95342E+04
 -2.33836E+04  1.23936E+04 -1.87918E+04 -5.49539E+03  7.97550E+03 -7.10279E+03  2.45636E+04  1.30702E+04
  7.21560E+03  3.84760E+04 -3.51104E+04  3.92397E+04 -6.81470E+04  2.51679E+03 -5.92653E+04 -4.63291E+04
 -1.16430E+04 -6.56979E+04  4.25742E+04 -4.86032E+04  6.14137E+04 -2.66979E+03  3.73927E+04  3.60507E+04
 -7.29775E+03  4.09721E+04 -3.31620E+04  1.93242E+04 -3.49474E+04 -6.11992E+02 -2.05053E+04 -1.25849E+04
 -9.39126E+03 -1.64978E+04 -9.89947E+02 -2.08808E+04  9.28760E+03 -2.39551E+04  1.39566E+04 -1.30035E+04
  1.08503E+04  7.76887E+03 -1.11616E+04  1.30017E+04 -2.52521E+04 -7.59109E+03 -1.00127E+04 -3.86073E+04
  2.39024E+04 -4.97605E+04  5.37834E+04 -2.19165E+04  4.91921E+04  2.25271E+04  1.79152E+04  4.86993E+04
 -1.51902E+04  3.69311E+04 -2.85658E+04  2.83168E+03 -1.32246E+04 -3.01919E+04  2.25050E+04 -3.69759E+04
  4.63947E+04 -1.38475E+04  4.30926E+04  2.43984E+04  2.30901E+04  5.24140E+04 -7.94409E+03  5.98484E+04
 -3.87620E+04  4.07961E+04 -5.08319E+04  1.13310E+04 -4.98988E+04 -1.93850E+04 -2.79740E+04 -4.30565E+04
  9.10038E+03 -4.50349E+04  3.54157E+04 -1.84744E+04  3.18832E+04  9.94689E+03  5.73904E+03  2.03910E+04
 -1.53135E+04  9.71175E+03 -1.22054E+04 -8.24855E+03  5.76067E+03 -9.93876E+03  1.93268E+04  7.16372E+03
  1.51240E+04  2.39833E+04 -3.47868E+03  2.66090E+04 -2.35204E+04  1.62695E+04 -3.31776E+04 -2.41687E+03
 -2.61968E+04 -1.92033E+04 -1.29484E+04 -2.48963E+04  2.84500E+03 -2.99806E+04  2.25953E+04 -2.55318E+04
  3.38500E+04 -1.54458E+04  3.95733E+04  6.31195E+03  2.75606E+04  2.53620E+04  1.35434E+03  4.43203E+04
 -2.11251E+04  3.43940E+04 -3.17195E+04  1.24166E+04 -2.36009E+04 -8.70845E+03 -5.95379E+03 -1.24347E+04
  1.04384E+03 -1.13046E+03 -7.77828E+03  8.60746E+03 -2.22303E+04  5.35861E+03 -2.12209E+04 -1.11622E+04
 -1.14560E+04 -2.39122E+04  6.05398E+03 -2.86080E+04  2.06548E+04 -2.04015E+04  2.43793E+04 -1.07969E+03
  1.68997E+04  1.64017E+04 -1.14001E+03  2.62051E+04 -1.83217E+04  1.28058E+04 -2.64264E+04 -6.24726E+03
 -2.03053E+04 -2.37473E+04 -3.25900E+03 -2.99334E+04  1.46123E+04 -2.45549E+04  2.57153E+04 -1.26686E+04
  2.30814E+04 -4.44090E+02  1.62603E+04  5.00038E+03  9.76195E+03  3.21605E+03  1.49809E+04 -2.24518E+03
  2.43238E+04  2.76425E+03  2.77036E+04  2.11547E+04  2.00550E+04  4.28730E+04 -2.41543E+03  4.65151E+04
 -2.74720E+04  3.88521E+04 -4.48813E+04  1.94152E+04 -4.93338E+04 -2.75888E+03 -4.04579E+04 -3.02598E+04
 -1.43926E+04 -4.10381E+04  1.30451E+04 -3.54192E+04  3.28217E+04 -1.57563E+04  2.55305E+04  1.00947E+04
  8.78584E+03  2.15573E+04 -1.19027E+04  1.91750E+04 -2.17129E+04  1.53194E+03 -1.70047E+04 -1.40355E+04
 -1.09609E+03 -2.03930E+04  1.16899E+04 -1.62034E+04  1.51079E+04 -2.61423E+03  4.13131E+03  1.16124E+04
 -1.01962E+04  5.84286E+03 -9.79110E+03 -7.24403E+03 -3.70259E+03 -1.90679E+04  1.26078E+04 -2.15047E+04
  2.43012E+04 -1.21221E+04  2.94984E+04  4.91234E+03  2.42435E+04  2.01220E+04  1.32027E+04  3.38286E+04
 -7.06138E+03  3.49056E+04 -2.35349E+04  2.09468E+04 -2.62671E+04  5.66701E+03 -1.66772E+04 -5.29957E+03
 -6.25471E+03 -8.18277E+03 -1.96528E+03 -4.06982E+02 -4.02001E+03  3.43092E+03 -8.61655E+03  6.31239E+03
 -1.51606E+04 -1.74192E+03 -1.53503E+04 -1.30662E+04 -5.84009E+03 -2.29325E+04  8.17091E+03 -1.59291E+04
  1.35769E+04 -8.25936E+03  1.06511E+04  6.25954E+03 -1.08071E+03  7.40424E+03 -9.96282E+03 -4.28128E+02
 -9.42015E+03 -1.11799E+04 -8.81728E+02 -1.85987E+04  1.08295E+04 -1.85488E+04  2.30255E+04 -9.18734E+03
  2.73894E+04  2.93880E+03  1.94966E+04  1.57758E+04  4.58326E+03  2.09570E+04 -1.03220E+04  1.85108E+04
 -1.53242E+04  5.01797E+03 -9.39291E+03 -4.42583E+03  4.00862E+03 -5.96259E+03  9.58001E+03 -1.02083E+03
  9.02288E+03  7.84306E+03  5.77033E+02  1.42317E+04 -1.05597E+04  1.37714E+04 -1.76938E+04  3.88959E+03
 -1.34412E+04 -9.47788E+03  1.09951E+03 -1.60595E+04  1.16923E+04 -9.61551E+03  1.03917E+04  4.65833E+03
  2.52117E+03  1.09985E+04 -1.00434E+04  1.36312E+04 -1.53662E+04  5.36377E+03 -1.67821E+04 -5.12714E+03
 -1.02193E+04 -1.74513E+04  4.30213E+03 -2.10759E+04  1.73959E+04 -1.29505E+04  2.07529E+04  3.67158E+03
  1.00527E+04  1.48984E+04 -2.04138E+03  1.87692E+04 -1.29088E+04  1.05355E+04 -1.49054E+04  2.25313E+02
 -1.11732E+04 -1.12442E+04 -2.96432E+03 -1.43588E+04  8.84237E+03 -1.00431E+04  8.80464E+03 -4.38304E+03
  4.60943E+03  2.37342E+03 -5.66756E+02  2.85265E+03 -4.95951E+02 -4.26938E+03  4.99466E+03 -1.02717E+04
  1.25239E+04 -6.20378E+03  1.95632E+04  3.50451E+03  2.02714E+04  1.32862E+04  1.17688E+04  2.52011E+04
 -7.27200E+03  2.92357E+04 -2.31017E+04  2.28658E+04 -2.87522E+04  4.57226E+03 -2.34149E+04 -1.04667E+04
 -1.33379E+04 -1.99260E+04 -1.44294E+03 -1.78468E+04  4.85707E+03 -9.57944E+03  5.82456E+03 -6.63237E+03
  4.71805E+03 -2.86511E+03  5.35593E+03 -5.99784E+03  6.60149E+03 -4.12528E+03  9.61487E+03 -2.85047E+03
  1.13441E+04  4.27770E+03  7.01029E+03  1.14857E+04 -4.22489E+03  1.58302E+04 -1.36194E+04  9.95071E+03
 -1.69804E+04 -1.40288E+03 -1.14097E+04 -1.26531E+04 -1.12666E+03 -1.74061E+04  1.26034E+04 -1.92925E+04
  1.99819E+04 -1.03313E+04  2.38310E+04  5.23855E+03  1.58028E+04  1.74560E+04  1.09433E+03  2.15900E+04
 -9.19748E+03  1.68561E+04 -1.15508E+04  5.80677E+03 -8.21901E+03 -1.99386E+03 -3.32771E+03 -3.36685E+03
 -5.80805E+02 -2.85485E+02 -3.58824E+03  2.80082E+03 -7.86939E+03  2.69018E+03 -1.24942E+04 -1.27542E+03
 -9.32455E+03 -1.18842E+04  7.20598E+02 -1.52484E+04  1.12283E+04 -1.76289E+04  1.88370E+04 -6.18071E+03
  1.75989E+04  6.56571E+03  8.78954E+03  1.59114E+04 -2.29529E+03  1.84962E+04 -1.21822E+04  1.09243E+04
 -1.72807E+04 -2.12179E+02 -1.26127E+04 -1.16869E+04 -2.56667E+03 -1.63823E+04  7.81156E+03 -1.04110E+04
  1.08128E+04 -3.71828E+03  6.28542E+03  3.15950E+03  3.78936E+03  6.97266E+03  1.60155E+03  1.63084E+03
  3.18679E+03 -2.61329E+02  3.27539E+03  1.74980E+03  5.42053E+03  5.30695E+03  6.69556E+03  9.80637E+03
 -5.35323E+03  1.41070E+04 -1.22422E+04  1.26121E+04 -1.90059E+04  4.10177E+03 -1.82618E+04 -7.36560E+03
 -1.05566E+04 -1.57745E+04  4.00026E+03 -1.96566E+04  1.23841E+04 -1.39692E+04  1.41097E+04 -5.06926E+03
  1.08780E+04  8.88251E+03  3.21664E+03  1.21588E+04 -5.47312E+03  6.99753E+03 -7.91699E+03 -4.14901E+03
 -3.63062E+03 -8.78223E+03  4.23823E+03 -7.94381E+03  6.95246E+03 -5.02496E+03  7.33900E+03  2.15011E+03
  4.71945E+03  3.47829E+03  5.83405E+02  4.22223E+03 -1.64621E+03  3.72830E+03  1.43332E+03 -3.93314E+02
  4.06878E+03 -2.05012E+03  6.82542E+03  4.17663E+03  5.78760E+03  9.94497E+03 -7.88647E+02  1.30300E+04
 -7.05056E+03  8.13604E+03 -1.33416E+04  1.65405E+03 -1.13125E+04 -5.15619E+03 -5.08021E+03 -7.75647E+03
  1.27849E+03 -8.95073E+03  5.34064E+03 -3.55653E+03  3.00334E+03  4.54692E+03 -1.81233E+03  4.67803E+03
 -6.14066E+03  3.63385E+03 -9.51864E+03 -4.71266E+03 -5.03307E+03 -8.99159E+03  8.92307E+02 -1.05447E+04
  5.47947E+03 -6.75782E+03  7.78077E+03 -1.43222E+03  5.41960E+03  2.95640E+03  9.23434E+02  6.67717E+03
 -5.86025E+03  3.18077E+03 -5.28693E+03 -3.64353E+03  2.36086E+03 -8.46882E+03  9.68320E+03 -7.12280E+03
  1.21127E+04 -3.51070E+02  1.13249E+04  7.66566E+03  3.57751E+03  1.36352E+04 -5.09180E+03  1.13228E+04
 -1.06236E+04  4.85414E+03 -1.03410E+04 -7.02252E+02 -4.35119E+03 -8.56376E+03  2.97873E+03 -8.10336E+03
  7.50457E+03 -1.89453E+03  7.17414E+03  2.31468E+03  2.03418E+03  7.14734E+03 -8.13868E+02  6.22179E+03
 -2.88049E+03  2.80482E+03 -3.80216E+03  1.54657E+03 -3.03632E+03  1.33526E+03 -3.32245E+03  4.17977E+03
 -1.42993E+03  5.01433E+03 -8.05575E+03  4.15193E+03 -1.29175E+04  3.07029E+02 -1.37731E+04 -9.68456E+03
 -8.42904E+03 -1.76091E+04  6.29106E+02 -2.01633E+04  1.34908E+04 -1.72256E+04  2.07466E+04 -5.84186E+03
  1.87262E+04  3.30349E+03  1.24356E+04  1.11148E+04  4.04486E+02  1.31458E+04 -4.91902E+03  9.34790E+03
 -7.06524E+03  5.03315E+03 -3.75702E+03 -9.24045E+02 -2.52483E+03 -1.79392E+02  1.10649E+02 -1.33135E+03
 -2.57593E+03 -9.88199E+02 -2.87273E+03 -1.37080E+03 -1.18240E+03 -3.37505E+03  8.54003E+02 -5.36659E+03
  6.89496E+03 -5.04906E+03  1.01387E+04 -9.52507E+02  9.87230E+03  7.50344E+03  2.24627E+03  1.34228E+04
 -7.13871E+03  1.56744E+04 -1.31711E+04  9.61510E+03 -1.67239E+04 -1.55352E+03 -1.21276E+04 -1.09250E+04
 -5.54433E+03 -1.40949E+04  2.60307E+03 -1.41513E+04  9.78227E+03 -7.45372E+03  9.20135E+03 -1.94617E+02
  4.04830E+03  4.93590E+03 -1.21872E+03  4.33802E+03 -1.06439E+03  3.28099E+02  1.34220E+03 -3.20578E+03
  4.32200E+03 -6.90386E+01  6.99941E+03  2.33038E+03  3.48355E+03  5.59275E+03 -1.00986E+03  6.79341E+03
 -5.21776E+03  6.51867E+03 -1.00791E+04  9.48897E+01 -7.70981E+03 -6.90307E+03 -1.12264E+03 -1.11391E+04
  5.98815E+03 -1.18069E+04  9.93955E+03 -1.79385E+03  1.00517E+04  2.78684E+03  7.17886E+03  9.65724E+03
 -2.09341E+02  7.95919E+03 -3.53276E+03  6.80213E+03 -6.27326E+03  4.43938E+03 -5.85052E+03  4.96603E+02
 -2.10354E+03  1.05395E+03 -2.80947E+03  2.08658E+02 -4.74982E+03  2.39313E+03 -6.90132E+03 -4.69412E+02
 -6.80069E+03 -4.56486E+03 -2.35543E+03 -7.01795E+03  3.64701E+03 -1.08402E+04  7.67499E+03 -5.42342E+03
  9.94806E+03  1.05019E+03  5.57952E+03  8.67681E+03 -1.68448E+03  8.60661E+03 -8.93368E+03  7.20530E+03
