 $NMID ID='MM_0lb_SNR200_15hz_g50_82.RAW', FMTDAT='(8E13.5)'
 TRAMP=1., VOLUME=1. $END
  3.09232E+05  1.26914E+03  3.36789E+05  2.50633E+05  8.49951E+04  3.37334E+05 -1.32302E+05  2.52414E+05
 -1.90471E+05  8.30188E+04 -1.11614E+05 -3.22960E+04  1.56792E+03 -5.19041E+04  5.42012E+04  1.71363E+01
  3.49014E+04  5.32746E+04 -1.71743E+04  7.65061E+04 -6.02369E+04  6.24508E+04 -8.41708E+04  3.21761E+04
 -8.16241E+04 -1.07367E+04 -5.70611E+04 -5.09584E+04 -1.55616E+04 -6.86753E+04  2.79891E+04 -4.67204E+04
  4.02740E+04  4.47094E+03  1.54398E+04  4.82839E+04 -3.54508E+04  4.68824E+04 -6.64838E+04 -5.40749E+02
 -5.35443E+04 -5.60760E+04 -6.45304E+03 -7.70394E+04  3.46240E+04 -5.48303E+04  4.79150E+04 -1.81933E+04
  4.37623E+04  1.23333E+04  3.18637E+04  2.44782E+04  1.50280E+04  2.86327E+04 -5.58167E+03  2.66964E+04
 -2.15532E+04  1.22479E+04 -1.85748E+04 -5.65067E+03  6.63753E+03 -7.60187E+03  2.44120E+04  1.23356E+04
  7.18705E+03  3.47294E+04 -3.16132E+04  3.56487E+04 -6.31969E+04  2.12285E+03 -5.81158E+04 -4.32421E+04
 -1.24252E+04 -6.36434E+04  3.99154E+04 -4.54753E+04  5.88198E+04 -3.21771E+03  3.29234E+04  3.31818E+04
 -5.65873E+03  3.57111E+04 -2.93835E+04  1.49710E+04 -3.05039E+04 -4.50200E+03 -1.60099E+04 -1.15704E+04
 -7.60973E+03 -1.37267E+04 -8.46400E+02 -1.82734E+04  5.99414E+03 -2.29898E+04  1.63659E+04 -1.39943E+04
  1.14409E+04  5.83824E+03 -7.96460E+03  1.21278E+04 -2.09110E+04 -4.34663E+03 -8.76653E+03 -3.34572E+04
  2.30939E+04 -4.21459E+04  4.70125E+04 -2.08970E+04  4.40580E+04  1.96174E+04  1.58023E+04  4.36499E+04
 -1.71441E+04  3.19473E+04 -2.52913E+04  1.47349E+03 -1.01479E+04 -2.78476E+04  2.13554E+04 -3.34077E+04
  4.07774E+04 -8.58567E+03  3.61632E+04  2.44833E+04  1.69578E+04  4.60285E+04 -7.57000E+03  4.90574E+04
 -3.15852E+04  3.38527E+04 -4.13711E+04  9.52673E+03 -4.24857E+04 -1.59918E+04 -2.26880E+04 -3.81183E+04
  8.30838E+03 -3.65220E+04  3.11778E+04 -1.41889E+04  2.85932E+04  1.09355E+04  3.99365E+03  1.85466E+04
 -1.38077E+04  6.63473E+03 -9.93890E+03 -6.41425E+03  6.03281E+03 -1.11034E+04  1.80202E+04  5.28722E+03
  1.39105E+04  2.28192E+04 -6.37257E+03  2.44483E+04 -2.24276E+04  1.07425E+04 -2.70862E+04 -5.54229E+03
 -2.04021E+04 -1.77293E+04 -6.64788E+03 -2.07566E+04  5.26711E+03 -1.85801E+04  1.55044E+04 -1.90219E+04
  2.64748E+04 -1.20506E+04  3.15732E+04  2.07109E+03  2.36265E+04  1.90996E+04  3.77895E+03  3.56762E+04
 -1.71824E+04  2.92394E+04 -2.81313E+04  1.00544E+04 -2.18552E+04 -1.05140E+04 -4.18849E+03 -1.21532E+04
  1.42078E+03 -3.64163E+03 -3.77973E+03  5.55861E+03 -1.51196E+04  5.13402E+03 -1.51122E+04 -6.84748E+03
 -9.62695E+03 -1.71750E+04  4.60956E+03 -2.21849E+04  1.46704E+04 -1.67086E+04  1.82811E+04 -2.45839E+03
  1.07563E+04  1.29559E+04 -8.66649E+02  1.79994E+04 -1.20372E+04  1.07351E+04 -1.87198E+04 -3.03373E+03
 -1.28755E+04 -1.69475E+04 -2.92300E+02 -2.26797E+04  1.14923E+04 -1.92531E+04  1.86799E+04 -7.70261E+03
  1.75808E+04  5.76730E+02  1.20714E+04  4.44000E+03  6.97854E+03  1.08764E+03  9.48025E+03 -1.50405E+03
  1.64884E+04  1.60798E+03  1.74262E+04  1.41459E+04  1.17138E+04  3.02030E+04 -2.74225E+03  3.21933E+04
 -1.90871E+04  2.47243E+04 -3.07750E+04  1.38419E+04 -3.12673E+04 -2.17786E+03 -2.70568E+04 -1.83487E+04
 -1.15779E+04 -2.52638E+04  8.68742E+03 -2.31426E+04  2.08727E+04 -1.20449E+04  1.68343E+04  6.52313E+03
  7.48425E+03  1.34594E+04 -7.29498E+03  1.26687E+04 -1.67749E+04  1.48647E+03 -1.19125E+04 -1.00108E+04
 -4.46554E+02 -1.51805E+04  7.81437E+03 -1.17908E+04  9.68759E+03 -2.01170E+03  1.57838E+03  6.06442E+03
 -7.92517E+03  3.12889E+03 -6.33287E+03 -6.32106E+03 -3.93946E+01 -1.19878E+04  9.06250E+03 -1.31475E+04
  1.54325E+04 -6.18023E+03  1.53451E+04  3.43086E+03  1.57555E+04  1.20504E+04  6.15114E+03  1.86753E+04
 -2.51273E+03  2.05901E+04 -1.33920E+04  1.29053E+04 -1.52013E+04  2.06382E+03 -1.01119E+04 -3.26027E+03
 -6.08750E+03 -4.07449E+03 -9.11084E+02  1.57573E+03 -1.91797E+03  3.10335E+03 -4.66029E+03  3.99279E+03
 -1.03652E+04  3.28260E+02 -1.18303E+04 -8.82765E+03 -3.94265E+03 -1.36732E+04  3.82346E+03 -1.05977E+04
  7.65033E+03 -2.55664E+03  6.58248E+03  3.06630E+03  2.28750E+01  3.93933E+03 -3.74718E+03 -1.15937E+01
 -5.00952E+03 -8.02239E+03 -9.81136E+02 -1.06976E+04  6.01280E+03 -1.05252E+04  1.25702E+04 -6.96730E+03
  1.50121E+04  7.80669E+02  1.10227E+04  8.18572E+03  1.74731E+03  1.15585E+04 -6.05527E+03  1.03177E+04
 -9.70347E+03  2.67847E+03 -4.24113E+03 -1.48342E+03  6.52189E+02 -2.58404E+03  5.11252E+03 -1.11233E+03
  4.90243E+03  5.15839E+03  1.72524E+03  8.04174E+03 -6.06181E+03  7.74599E+03 -1.06353E+04  1.91579E+03
 -7.30366E+03 -4.45985E+03 -1.83877E+02 -9.00693E+03  5.02376E+03 -4.75646E+03  5.55671E+03  2.11180E+03
  1.73397E+03  5.62085E+03 -4.49045E+03  7.66778E+03 -8.13567E+03  3.31909E+03 -7.75293E+03 -2.72479E+03
 -4.92714E+03 -8.45477E+03  1.96084E+03 -1.06086E+04  9.04501E+03 -6.15577E+03  9.20442E+03  4.02340E+02
  6.65629E+03  7.78046E+03  7.76642E+02  9.95331E+03 -5.80371E+03  5.58826E+03 -6.91244E+03 -1.13975E+03
 -6.92819E+03 -6.55026E+03 -2.10316E+03 -7.10876E+03  2.89738E+03 -5.89356E+03  4.13688E+03 -2.94608E+03
  4.57844E+03  9.56730E+02 -1.07151E+03  4.71487E+02  7.87938E+01 -1.28039E+03 -7.84441E+01 -3.59978E+03
  5.76556E+03 -2.24215E+03  8.67732E+03 -1.86637E+02  8.79302E+03  5.67261E+03  7.79004E+03  1.21694E+04
 -2.11808E+03  1.26133E+04 -1.07499E+04  9.83852E+03 -1.37937E+04  1.83111E+03 -1.15115E+04 -3.94761E+03
 -6.18480E+03 -1.02834E+04  9.13918E+02 -8.32142E+03  3.33201E+03 -3.36064E+03  2.86128E+03 -4.30372E+03
  2.08640E+03 -1.90397E+03  2.79874E+03 -3.67756E+03  3.45624E+03 -1.48256E+03  5.19379E+03  1.32373E+03
  7.04040E+03  1.78860E+03  2.27376E+03  4.99363E+03 -1.64153E+03  4.56492E+03 -6.02133E+03  5.23347E+03
 -7.31317E+03 -1.39138E+03 -4.75591E+03 -4.67834E+03  1.17898E+02 -7.01417E+03  5.14167E+03 -7.90923E+03
  8.37762E+03 -4.30470E+03  8.72014E+03  1.06621E+03  6.43123E+03  6.92119E+03  1.78394E+03  1.00922E+04
 -4.00187E+03  7.86721E+03 -4.55000E+03  3.43243E+03 -3.18298E+03 -6.36925E+02 -6.24968E+02 -3.34005E+02
  2.92417E+02  1.27714E+03 -1.40614E+03  2.42292E+03 -3.00509E+03  2.07362E+03 -5.15606E+03 -8.20992E+02
 -1.97031E+03 -5.38667E+03 -5.87864E+02 -7.82238E+03  4.61841E+03 -7.02468E+03  6.14142E+03 -7.29380E+02
  6.43395E+03  3.08643E+03  3.09330E+03  5.63161E+03 -3.25776E+03  8.83548E+03 -3.97228E+03  4.13226E+03
 -5.87759E+03  2.14885E+03 -5.91277E+03 -4.05998E+03 -1.34522E+02 -5.51687E+03  3.92327E+03 -4.41176E+03
  3.74760E+03 -2.47382E+03  1.82550E+03  1.65344E+03  1.31508E+03  4.13198E+03  6.53881E+02  1.03949E+03
  2.74299E+03  1.27016E+03  2.29827E+03  1.71049E+03  3.27745E+03  3.07721E+03  1.04515E+03  2.93926E+03
 -1.68105E+03  4.49021E+03 -4.17442E+03  6.06023E+03 -5.98662E+03  2.23005E+03 -7.34399E+03 -2.35946E+03
 -3.36635E+03 -4.83031E+03  1.56881E+03 -7.70090E+03  2.92845E+03 -4.18892E+03  5.22704E+03 -1.07716E+03
  4.70731E+03  2.61201E+03  1.00267E+03  2.86751E+03 -1.20761E+03  2.29012E+03 -3.06111E+03 -1.00143E+03
 -1.49897E+03 -3.98887E+03  1.53065E+03 -2.65229E+03  3.52571E+03 -1.54631E+03  2.34913E+03  1.02995E+03
  1.59504E+03  1.49645E+02  5.39897E+02 -5.43015E+02 -2.63954E+02  2.01868E+03  1.39947E+03  7.81057E+01
  1.45591E+03 -4.93516E+02  2.85380E+03  1.32988E+03  1.17981E+03  2.74263E+03 -1.43477E+03  4.53208E+03
 -2.13227E+03  2.00265E+03 -3.66349E+03  1.32418E+03 -2.99285E+03 -6.00950E+02  1.25528E+02 -1.50462E+03
  2.97504E+02 -3.26466E+03  1.13461E+03 -2.24339E+02  1.40557E+03  1.45123E+03 -6.30150E+02  1.54214E+03
 -3.13153E+03  8.44392E+02 -2.58870E+03 -2.43280E+03 -1.20529E+03 -3.11336E+03  2.13545E+01 -3.19346E+03
  1.50731E+03 -1.71232E+03  2.33927E+03  7.55678E+01  2.91920E+03  2.42576E+02  5.07434E+02  2.29067E+03
  6.25133E+02  1.09269E+02 -1.42998E+03 -1.44289E+03  1.05106E+03 -1.96028E+03  2.42101E+03 -3.49549E+03
  2.88701E+03  1.66427E+03  3.36117E+03  3.38508E+03  1.10191E+03  3.23567E+03  1.76803E+02  4.74597E+03
 -3.73975E+03  1.12400E+03 -2.71350E+03 -4.91518E+02 -8.50233E+02 -2.81262E+03  6.75117E+02 -2.74318E+03
  2.00445E+03 -9.06579E+02  1.40000E+03  9.69895E+02  1.03772E+02  8.83846E+02 -2.19517E+02  2.03356E+03
 -9.69994E+02  2.69869E+02 -6.15414E+02  3.82636E+02 -5.41956E+02  1.05549E+03 -2.01207E+03  1.90798E+03
 -3.93754E+02  1.51628E+02 -1.57295E+03  1.58092E+03 -4.25095E+03  9.10676E+01 -3.40553E+03 -2.74772E+03
 -2.20482E+03 -4.27782E+03  2.28253E+03 -6.49241E+03  1.75580E+03 -4.62859E+03  4.70582E+03 -1.69762E+03
  4.71142E+03  4.91338E+02  2.83385E+03  3.94620E+03 -2.16470E+01  3.10233E+03 -9.63268E+02  2.19697E+03
 -2.20128E+03  8.78658E+02 -2.50080E+03 -4.85290E+02 -4.81511E+02  7.54707E+02 -5.92544E+02  9.29234E+02
 -6.88317E+02  3.36618E+02 -7.85896E+02  1.11178E+01  3.03055E+02 -5.04608E+02 -1.12180E+02 -2.15441E+03
  3.35067E+03 -1.02081E+03  1.50274E+03 -1.29426E+03  2.11118E+03  1.81611E+03  8.41340E+02  2.93336E+03
 -1.57579E+03  5.06792E+03 -2.68764E+03  2.70662E+03 -4.58132E+03 -9.52504E+02 -2.11505E+03 -3.09409E+03
 -1.75663E+03 -3.52394E+03  1.26525E+03 -3.46175E+03  2.03994E+03 -1.49964E+03  2.17873E+03  8.37933E+01
  4.40122E+02  1.61129E+02  1.93420E+02  5.79074E+02  6.84508E+02  4.29888E+02 -7.10859E+01 -5.67677E+02
  5.78358E+02 -4.99740E+01  9.74821E+01  6.06425E+02  6.16206E+02  2.99322E+02  8.86268E+02  1.18213E+03
 -1.66120E+03  1.28351E+03 -1.91576E+03  1.19968E+03 -1.75124E+03 -7.14737E+02  4.24305E+02 -2.09545E+03
  2.27078E+03 -3.52579E+03  2.98992E+03  3.04410E+02  1.66504E+03 -4.29995E+02  1.73623E+03  1.89451E+03
 -1.26300E+02  3.21997E+03 -6.68060E+02  1.39797E+03 -1.23080E+03 -3.77085E+02 -1.01556E+03 -2.74563E+02
  1.07284E+03 -1.76193E+02 -3.22445E+01 -2.61011E+02 -3.43509E+02 -1.46409E+02 -9.51894E+02  7.39484E+01
 -2.12296E+03 -1.19007E+03 -1.33803E+02 -2.53495E+03  7.18688E+02 -3.50148E+03  1.06021E+03  1.53509E+02
  1.34460E+03 -2.96841E+00  4.74028E+02  5.73702E+02 -3.31257E+01  2.25970E+03 -1.77658E+03  5.89020E+02
