 $NMID ID='MM_0lb_SNR200_10hz_g60_87.RAW', FMTDAT='(8E13.5)'
 TRAMP=1., VOLUME=1. $END
  3.09353E+05  1.47512E+03  3.37781E+05  2.50797E+05  8.37158E+04  3.37772E+05 -1.32254E+05  2.50941E+05
 -1.90677E+05  8.41320E+04 -1.12125E+05 -3.24056E+04  1.02101E+03 -4.99967E+04  5.44505E+04 -4.31048E+02
  3.49994E+04  5.35349E+04 -1.67038E+04  7.56982E+04 -6.06555E+04  6.53735E+04 -8.47573E+04  3.32994E+04
 -8.28047E+04 -1.24469E+04 -5.96596E+04 -5.36701E+04 -1.58883E+04 -7.06754E+04  2.78912E+04 -4.73427E+04
  4.12469E+04  3.48495E+03  1.56719E+04  4.81028E+04 -3.34417E+04  4.87339E+04 -6.77012E+04 -5.99052E+02
 -5.36308E+04 -5.65011E+04 -6.65812E+03 -8.01847E+04  3.60295E+04 -5.71813E+04  4.86439E+04 -1.87185E+04
  4.63043E+04  1.19403E+04  3.25933E+04  2.64552E+04  1.70219E+04  3.21547E+04 -4.24249E+03  2.79201E+04
 -2.11145E+04  1.16790E+04 -1.83205E+04 -6.43907E+03  7.65214E+03 -6.87437E+03  2.32442E+04  1.45402E+04
  7.73008E+03  3.63644E+04 -3.43787E+04  3.73449E+04 -6.60776E+04  2.21527E+03 -5.91464E+04 -4.42431E+04
 -1.24590E+04 -6.61290E+04  4.12972E+04 -4.89161E+04  6.19084E+04 -1.80300E+03  3.66850E+04  3.34849E+04
 -6.19990E+03  3.95642E+04 -3.21664E+04  1.88432E+04 -3.32200E+04 -2.40572E+03 -2.04331E+04 -1.28678E+04
 -9.38678E+03 -1.52829E+04 -1.40731E+03 -2.09183E+04  6.95298E+03 -2.43845E+04  1.74446E+04 -1.27452E+04
  1.03428E+04  6.84520E+03 -9.27546E+03  1.37246E+04 -2.32423E+04 -6.88520E+03 -9.28644E+03 -3.90201E+04
  2.46965E+04 -4.74250E+04  4.94338E+04 -2.17645E+04  4.97927E+04  2.17603E+04  1.80269E+04  4.57364E+04
 -1.68352E+04  3.66164E+04 -2.79866E+04  2.54351E+03 -1.16165E+04 -2.92722E+04  2.16444E+04 -3.75145E+04
  4.67884E+04 -1.05899E+04  4.05409E+04  2.44637E+04  2.20442E+04  5.10917E+04 -8.01556E+03  5.68206E+04
 -3.47901E+04  3.85791E+04 -4.71413E+04  1.11917E+04 -4.75388E+04 -1.89254E+04 -2.47358E+04 -4.31004E+04
  7.25076E+03 -4.24123E+04  3.52819E+04 -1.69224E+04  3.16644E+04  1.02820E+04  5.08874E+03  2.00040E+04
 -1.31970E+04  9.56034E+03 -1.16609E+04 -7.97930E+03  6.54204E+03 -1.28389E+04  2.11046E+04  6.16052E+03
  1.67896E+04  2.32433E+04 -2.98330E+03  2.62804E+04 -2.41504E+04  1.30394E+04 -3.10578E+04 -2.13945E+03
 -2.53761E+04 -1.79138E+04 -1.19666E+04 -2.42279E+04  4.58269E+03 -2.65974E+04  1.92378E+04 -2.27225E+04
  3.24248E+04 -1.31781E+04  3.86292E+04  5.95113E+03  2.82180E+04  2.36904E+04  5.78474E+03  4.10217E+04
 -2.09708E+04  3.44413E+04 -3.17871E+04  1.12326E+04 -2.22515E+04 -1.09357E+04 -6.39374E+03 -1.19595E+04
 -3.88859E+02 -1.65750E+03 -8.10783E+03  8.45402E+03 -1.96157E+04  5.70961E+03 -2.03023E+04 -1.09722E+04
 -1.16884E+04 -2.38358E+04  4.12827E+03 -2.77457E+04  1.88607E+04 -2.01996E+04  2.22942E+04 -1.19948E+03
  1.47106E+04  1.68054E+04 -1.97242E+01  2.15165E+04 -1.74942E+04  1.37300E+04 -2.19963E+04 -5.97171E+03
 -1.71053E+04 -1.97868E+04 -2.51517E+03 -2.78720E+04  1.30966E+04 -2.35206E+04  2.26337E+04 -1.14566E+04
  2.03812E+04 -4.52499E+02  1.43244E+04  6.19785E+03  9.11567E+03  1.48143E+03  1.16579E+04 -1.94255E+03
  2.24138E+04  3.28738E+03  2.75924E+04  1.79001E+04  1.75623E+04  3.73169E+04 -3.28836E+03  4.28226E+04
 -2.70181E+04  3.58562E+04 -4.24279E+04  1.94163E+04 -4.54776E+04 -4.28257E+03 -3.85465E+04 -2.77957E+04
 -1.39569E+04 -3.67917E+04  1.16786E+04 -3.31578E+04  2.76507E+04 -1.58436E+04  2.48539E+04  7.97398E+03
  9.47594E+03  1.86773E+04 -1.05261E+04  1.66348E+04 -1.95039E+04  2.65863E+03 -1.53551E+04 -1.19523E+04
  2.56195E+02 -1.98344E+04  9.84707E+03 -1.39757E+04  1.38510E+04 -1.85040E+03  3.79857E+03  7.35594E+03
 -7.49147E+03  4.09250E+03 -1.07510E+04 -6.71352E+03 -1.82811E+03 -1.83565E+04  1.13185E+04 -2.07390E+04
  2.23918E+04 -1.14394E+04  2.60114E+04  4.14271E+03  2.25189E+04  1.89293E+04  8.68835E+03  2.95675E+04
 -5.62592E+03  3.15908E+04 -2.18764E+04  1.88909E+04 -2.32093E+04  5.30123E+03 -1.49432E+04 -6.91427E+03
 -6.42618E+03 -8.17656E+03  1.76616E+01 -5.69517E+02 -2.55378E+03  3.63069E+03 -7.20151E+03  4.24936E+03
 -1.51110E+04 -2.98182E+02 -1.39909E+04 -1.09688E+04 -6.57280E+03 -1.97471E+04  5.04625E+03 -1.59899E+04
  1.32981E+04 -6.39672E+03  9.59150E+03  4.30994E+03  4.93656E+01  6.90348E+03 -7.06700E+03  9.04946E+02
 -8.72948E+03 -9.77745E+03 -2.47639E+03 -1.59796E+04  9.65260E+03 -1.67642E+04  1.85497E+04 -9.11289E+03
  2.27917E+04  3.09039E+03  1.79726E+04  1.52827E+04  3.99668E+03  1.82997E+04 -1.01533E+04  1.60187E+04
 -1.29518E+04  5.25901E+03 -6.79207E+03 -3.65742E+03  1.85713E+03 -4.56199E+03  7.56826E+03 -7.69335E+02
  6.77149E+03  6.49062E+03 -8.42877E+00  1.32391E+04 -8.52707E+03  1.11169E+04 -1.48150E+04  2.59934E+03
 -1.05712E+04 -7.40739E+03  1.06663E+03 -1.14652E+04  7.37389E+03 -6.24573E+03  9.26732E+03  3.06599E+03
  1.00149E+03  9.96256E+03 -7.86783E+03  1.15288E+04 -1.39146E+04  3.24539E+03 -1.50414E+04 -3.97828E+03
 -7.34411E+03 -1.58864E+04  4.26345E+03 -1.82493E+04  1.60816E+04 -1.11880E+04  1.72515E+04  2.19979E+03
  9.78939E+03  1.40772E+04 -1.87749E+03  1.61390E+04 -1.16557E+04  8.67376E+03 -1.36033E+04 -2.63272E+03
 -1.19363E+04 -9.76921E+03 -1.43443E+03 -1.15958E+04  7.24422E+03 -8.09244E+03  8.39358E+03 -2.58985E+03
  3.70457E+03  2.17150E+03 -3.71261E+01  1.92270E+03 -1.83990E+03 -2.90595E+03  2.30756E+03 -6.58246E+03
  1.27492E+04 -5.37542E+03  1.60655E+04  1.50660E+03  1.60612E+04  1.00504E+04  1.04710E+04  1.98209E+04
 -4.98027E+03  2.46709E+04 -1.82756E+04  1.78252E+04 -2.49920E+04  2.81254E+03 -2.09641E+04 -1.04455E+04
 -9.61314E+03 -1.67233E+04 -6.25217E+02 -1.42383E+04  5.67066E+03 -8.48009E+03  5.62272E+03 -5.40470E+03
  4.21612E+03 -2.97157E+03  2.68157E+03 -2.39978E+03  5.12789E+03 -3.91519E+03  8.59533E+03 -2.79720E+02
  1.10546E+04  4.02971E+03  4.97909E+03  9.86575E+03 -7.56341E+02  9.91228E+03 -1.08611E+04  8.09314E+03
 -1.35468E+04 -6.72508E+02 -8.93064E+03 -1.01607E+04 -8.57507E+02 -1.48492E+04  9.45499E+03 -1.67982E+04
  1.62389E+04 -8.95665E+03  2.03289E+04  2.16215E+03  1.25882E+04  1.28103E+04  3.02094E+03  1.58184E+04
 -8.78218E+03  1.35640E+04 -9.25098E+03  4.99350E+03 -7.65966E+03 -8.18020E+02 -4.62296E+03 -2.86290E+03
 -1.80656E+03 -1.34649E+03 -4.92752E+02  4.51326E+03 -5.50810E+03  2.84666E+03 -8.14175E+03 -8.19742E+02
 -5.37289E+03 -9.13371E+03 -1.87056E+02 -1.51467E+04  8.72601E+03 -1.34312E+04  1.22879E+04 -4.79200E+03
  1.51376E+04  6.13863E+03  6.19209E+03  1.36254E+04 -2.86633E+03  1.46895E+04 -9.89893E+03  7.40860E+03
 -1.39087E+04 -1.90201E+02 -9.93939E+03 -8.36328E+03 -1.23308E+03 -1.11024E+04  6.00341E+03 -1.10980E+04
  1.06794E+04 -4.10955E+03  6.88564E+03  4.26974E+03  9.23682E+02  4.93375E+03  2.15381E+03  6.97621E+02
  1.26947E+03  1.13711E+03  2.86851E+03  6.32218E+02  3.55939E+03  4.74026E+03  2.02173E+03  7.51283E+03
 -1.83105E+03  1.14664E+04 -1.06632E+04  1.10911E+04 -1.49285E+04  1.79523E+03 -1.42087E+04 -5.92961E+03
 -7.49247E+03 -1.47100E+04  2.46569E+03 -1.70326E+04  8.27370E+03 -9.09482E+03  1.11617E+04 -3.39768E+03
  9.87835E+03  5.37946E+03  1.90578E+03  8.05939E+03 -5.11000E+03  5.63127E+03 -5.53565E+03 -1.40030E+03
 -2.88924E+03 -6.17839E+03  3.23885E+03 -7.11025E+03  6.41380E+03 -3.81994E+03  5.85831E+03  5.35354E+02
  3.57111E+03  2.24490E+03  8.30197E+02  2.89098E+03 -1.73624E+03  3.25644E+02 -6.83576E+01 -3.40568E+02
  2.58732E+03 -4.60284E+02  6.77265E+03  2.39789E+03  2.49884E+03  6.96447E+03 -1.21628E+03  1.02304E+04
 -6.53951E+03  6.66549E+03 -9.87279E+03  1.87920E+03 -7.38139E+03 -3.01873E+03 -1.76166E+03 -5.33480E+03
  1.61232E+02 -5.70983E+03  3.04790E+03 -2.51785E+03  3.68625E+03  2.74508E+03 -5.36029E+02  4.80435E+03
 -6.14973E+03  2.58361E+03 -5.70524E+03 -3.79419E+03 -3.75625E+03 -6.25887E+03  1.72311E+03 -7.83052E+03
  6.34330E+03 -4.73625E+03  6.60492E+03 -3.62291E+00  4.11797E+03  1.72724E+03 -1.70215E+02  4.39399E+03
 -3.20840E+03  1.23612E+03 -1.96216E+03 -2.26654E+03  1.51773E+03 -6.22264E+03  6.54755E+03 -5.21238E+03
  8.34192E+03  1.06481E+03  1.07672E+04  5.65502E+03  3.43223E+03  9.88393E+03 -3.08762E+03  9.27224E+03
 -6.52915E+03  4.57945E+03 -8.44819E+03 -1.02374E+03 -5.08626E+03 -5.29836E+03  9.71246E+02 -4.90462E+03
  6.20265E+03 -1.49742E+03  5.85219E+03  2.93074E+03  1.49397E+03  4.53144E+03 -1.73204E+03  4.63916E+03
 -3.21241E+03  2.83788E+03 -2.97206E+03  1.37221E+03 -7.37852E+02  2.05039E+03 -2.08242E+02  2.03508E+03
 -2.30898E+03  3.00910E+03 -6.78753E+03  4.14007E+03 -7.93260E+03  1.33525E+03 -1.18739E+04 -5.80372E+03
 -4.82998E+03 -1.16101E+04  1.23574E+03 -1.25675E+04  8.26627E+03 -1.15278E+04  1.24980E+04 -3.57856E+03
  1.23530E+04  1.76169E+03  8.58641E+03  7.24082E+03  5.45472E+02  1.03093E+04 -5.33813E+03  6.25480E+03
 -4.52254E+03  1.77250E+03 -3.00280E+03 -1.49810E+03 -5.88730E+02 -2.89106E+02 -1.48000E+03  6.82222E+02
 -1.88754E+03  2.25528E+02 -1.67850E+03  6.06736E+02 -7.88481E+02 -2.68439E+03  1.07593E+03 -3.74873E+03
  4.51818E+03 -2.55800E+03  5.89705E+03  5.68325E+02  7.00567E+03  6.23641E+03  1.26922E+03  9.79347E+03
 -4.87668E+03  1.14138E+04 -9.16129E+03  5.64019E+03 -1.19913E+04 -1.90398E+03 -8.63428E+03 -7.14779E+03
 -4.78062E+03 -9.94734E+03  3.47651E+03 -9.17442E+03  5.49369E+03 -5.97479E+03  6.04951E+03  1.23915E+03
  3.25714E+03  3.61503E+03  2.83939E+02  3.53596E+03 -1.32430E+03 -6.89984E+01 -7.46579E+02 -1.81527E+03
  3.61374E+03 -1.07648E+03  3.17048E+03  1.32263E+03  3.21764E+03  3.23381E+03  5.54517E+02  4.05641E+03
 -2.79365E+03  4.01608E+03 -4.98960E+03 -1.25695E+02 -5.74709E+03 -5.23665E+03 -1.61863E+03 -7.32528E+03
  5.98542E+03 -6.40433E+03  5.01847E+03 -2.02784E+03  6.78564E+03  1.44268E+03  4.13122E+03  6.18323E+03
  8.58476E+02  5.47445E+03 -1.97215E+03  4.34596E+03 -5.17624E+03  2.09882E+03 -4.18900E+03  4.72866E+02
 -5.44075E+02 -6.33386E+02 -4.38432E+02  1.45573E+03 -2.90436E+03  1.22086E+03 -5.17960E+03 -1.83941E+02
 -4.49753E+03 -3.73896E+03 -8.51523E+02 -6.36570E+03  3.23691E+03 -7.43882E+03  5.60702E+03 -1.00533E+03
  5.84190E+03 -7.65785E+02  1.69770E+03  4.92717E+03  9.13618E+02  6.99327E+03 -4.20347E+03  2.06603E+03
