 $NMID ID='MM_0lb_SNR200_13hz_g45_61.RAW', FMTDAT='(8E13.5)'
 TRAMP=1., VOLUME=1. $END
  3.08969E+05  5.53229E+02  3.36734E+05  2.50665E+05  8.44251E+04  3.39146E+05 -1.30930E+05  2.50359E+05
 -1.89210E+05  8.26284E+04 -1.10727E+05 -3.20434E+04  9.91729E+02 -5.19008E+04  5.41582E+04  6.08798E+02
  3.54799E+04  5.27486E+04 -1.72741E+04  7.48840E+04 -6.00030E+04  6.39692E+04 -8.35896E+04  3.20360E+04
 -8.16580E+04 -1.32521E+04 -5.74412E+04 -5.23100E+04 -1.40120E+04 -7.02459E+04  2.71718E+04 -4.58738E+04
  3.99264E+04  3.89920E+03  1.56778E+04  4.66311E+04 -3.31650E+04  4.72204E+04 -6.72562E+04  6.66810E+02
 -5.34663E+04 -5.63277E+04 -5.90439E+03 -7.69057E+04  3.45578E+04 -5.50754E+04  4.78910E+04 -1.68303E+04
  4.31514E+04  1.12006E+04  3.22509E+04  2.62355E+04  1.75181E+04  2.88367E+04 -4.67853E+03  2.54301E+04
 -2.30985E+04  1.29465E+04 -1.79774E+04 -5.77626E+03  5.28029E+03 -7.81694E+03  2.26763E+04  1.33082E+04
  7.57822E+03  3.51854E+04 -3.14082E+04  3.44314E+04 -6.49408E+04  2.14774E+03 -5.76140E+04 -4.32376E+04
 -1.28134E+04 -6.43526E+04  3.94065E+04 -4.47468E+04  5.96812E+04 -2.67578E+03  3.48802E+04  3.29074E+04
 -4.92572E+03  3.68466E+04 -2.99025E+04  1.53001E+04 -2.90046E+04 -4.20402E+03 -1.71184E+04 -1.12953E+04
 -7.29633E+03 -1.34282E+04 -1.74428E+03 -1.89265E+04  8.76207E+03 -2.29176E+04  1.60047E+04 -1.28683E+04
  1.02943E+04  4.43174E+03 -8.92987E+03  1.35020E+04 -2.09397E+04 -3.66979E+03 -8.28638E+03 -3.47694E+04
  2.18772E+04 -4.27145E+04  4.78845E+04 -2.04689E+04  4.56016E+04  2.00704E+04  1.63257E+04  4.49722E+04
 -1.64639E+04  3.44281E+04 -2.70261E+04  1.30882E+03 -9.26248E+03 -2.77086E+04  2.09645E+04 -3.36849E+04
  4.21138E+04 -9.29613E+03  3.63429E+04  2.41124E+04  1.92409E+04  4.64491E+04 -8.24353E+03  5.11027E+04
 -3.20015E+04  3.55948E+04 -4.24045E+04  8.89479E+03 -4.33787E+04 -1.70713E+04 -2.51847E+04 -3.81434E+04
  6.60845E+03 -3.78084E+04  3.25969E+04 -1.52291E+04  3.05446E+04  1.16723E+04  4.21581E+03  1.94143E+04
 -1.42370E+04  8.67975E+03 -9.33607E+03 -7.54615E+03  5.68620E+03 -1.24026E+04  1.83151E+04  7.07699E+03
  1.38769E+04  2.30245E+04 -6.36336E+03  2.63466E+04 -2.26623E+04  1.18055E+04 -2.90380E+04 -4.68945E+03
 -2.11540E+04 -1.78394E+04 -8.15437E+03 -2.10070E+04  3.91677E+03 -2.04060E+04  1.64832E+04 -1.91091E+04
  2.81527E+04 -1.34627E+04  3.25748E+04  3.20922E+03  2.34783E+04  1.98266E+04  5.01141E+03  3.75502E+04
 -1.74270E+04  3.18077E+04 -2.76240E+04  1.07692E+04 -2.05107E+04 -1.00654E+04 -4.40400E+03 -1.29668E+04
  2.20745E+03 -2.78699E+03 -4.91049E+03  6.44013E+03 -1.62201E+04  4.24601E+03 -1.63515E+04 -7.37337E+03
 -1.08923E+04 -1.96213E+04  4.56411E+03 -2.45449E+04  1.61966E+04 -1.70592E+04  1.79176E+04 -1.65089E+03
  1.26280E+04  1.40649E+04 -9.19321E+02  2.05689E+04 -1.27816E+04  1.12191E+04 -2.00735E+04 -4.37746E+03
 -1.59462E+04 -1.76484E+04 -6.20554E+02 -2.43934E+04  1.09100E+04 -2.04977E+04  1.90396E+04 -9.04106E+03
  1.88776E+04  6.45093E+02  1.32354E+04  4.10422E+03  7.67356E+03  1.48677E+03  9.21673E+03 -7.98709E+02
  1.89397E+04  4.35587E+03  1.92327E+04  1.51141E+04  1.28401E+04  3.06330E+04 -2.95343E+03  3.52481E+04
 -2.02938E+04  2.77791E+04 -3.24715E+04  1.38804E+04 -3.50792E+04 -1.86564E+03 -2.78353E+04 -2.02904E+04
 -1.14215E+04 -2.78266E+04  9.08255E+03 -2.58457E+04  2.02728E+04 -1.34344E+04  1.97052E+04  5.78756E+03
  7.80388E+03  1.62733E+04 -1.01086E+04  1.24590E+04 -1.64857E+04  2.90774E+03 -1.30902E+04 -9.00037E+03
 -5.36110E+02 -1.60846E+04  8.91267E+03 -1.13909E+04  1.02862E+04 -3.77645E+02  3.32108E+03  7.78270E+03
 -7.13204E+03  2.09807E+03 -7.32087E+03 -4.42289E+03 -9.60183E+02 -1.42564E+04  8.21440E+03 -1.60293E+04
  1.84265E+04 -8.90653E+03  1.84089E+04  3.91248E+03  1.67080E+04  1.42740E+04  9.18872E+03  2.14610E+04
 -2.97488E+03  2.24074E+04 -1.50684E+04  1.55303E+04 -1.66831E+04  3.59680E+03 -1.16935E+04 -2.98557E+03
 -5.58947E+03 -5.32575E+03 -2.83420E+03 -1.71993E+02 -1.91434E+03  3.00794E+03 -6.26048E+03  5.42428E+03
 -1.11621E+04 -1.04958E+02 -1.08504E+04 -1.03047E+04 -5.74452E+03 -1.48602E+04  3.84482E+03 -1.05525E+04
  9.96785E+03 -6.29386E+03  8.73207E+03  2.30906E+03 -4.94989E+02  3.78786E+03 -5.55730E+03 -2.85409E+02
 -5.65351E+03 -8.91020E+03 -1.41973E+03 -1.11700E+04  5.93202E+03 -1.23638E+04  1.52659E+04 -6.49675E+03
  1.49609E+04  3.13207E+03  1.40685E+04  9.54040E+03  1.85857E+03  1.24449E+04 -8.15922E+03  1.22134E+04
 -8.83159E+03  4.44164E+03 -5.26791E+03 -2.22753E+03  1.53289E+03 -2.53894E+03  7.15437E+03 -7.71562E+02
  5.17825E+03  4.55241E+03  1.24580E+03  9.27870E+03 -5.95575E+03  8.45544E+03 -1.15214E+04  2.63271E+03
 -8.02870E+03 -5.46357E+03 -2.23615E+02 -1.08616E+04  7.15236E+03 -4.29942E+03  6.57902E+03  3.02832E+03
  1.18619E+03  6.59989E+03 -4.68840E+03  8.15917E+03 -8.94751E+03  3.33769E+03 -8.68763E+03 -2.65777E+03
 -5.66703E+03 -1.00267E+04  2.89261E+03 -1.26951E+04  8.95483E+03 -6.76018E+03  1.08447E+04  1.55937E+03
  7.44288E+03  8.54097E+03 -1.10999E+03  1.13866E+04 -7.56374E+03  7.29680E+03 -8.72419E+03  4.78924E+01
 -7.20943E+03 -7.48915E+03 -2.11283E+03 -7.94090E+03  5.12687E+03 -8.39734E+03  4.91570E+03 -1.87254E+03
  2.29055E+03  9.37577E+02 -1.82437E+02  6.78232E+02  2.70799E+02 -2.29469E+03  6.77319E+01 -4.19689E+03
  7.69920E+03 -2.67638E+03  1.11830E+04  7.70644E+02  8.85783E+03  7.51814E+03  6.88898E+03  1.31869E+04
 -2.63488E+03  1.54222E+04 -1.34112E+04  1.16821E+04 -1.68063E+04  1.75646E+03 -1.33984E+04 -6.07227E+03
 -7.65321E+03 -1.02641E+04 -1.24004E+03 -1.00163E+04  4.23123E+03 -5.22876E+03  3.06945E+03 -3.68648E+03
  3.32449E+03 -1.53107E+03  3.06765E+03 -2.49834E+03  4.85457E+03 -2.96446E+03  5.40990E+03 -1.21572E+03
  8.02798E+03  1.34331E+03  3.71751E+03  6.15374E+03 -2.15735E+03  5.57787E+03 -7.74747E+03  5.10453E+03
 -1.03858E+04 -1.34997E+03 -5.74267E+03 -6.25898E+03 -1.95410E+03 -9.18160E+03  5.04006E+03 -1.00205E+04
  9.33432E+03 -6.11312E+03  1.20535E+04  2.13115E+03  7.63000E+03  7.71015E+03  2.06803E+03  1.12512E+04
 -4.40874E+03  9.01780E+03 -6.96401E+03  2.52061E+03 -3.94651E+03 -2.03398E+03 -1.99901E+03 -1.30890E+03
 -2.08351E+03  2.04763E+03 -9.55081E+02  1.96288E+03 -3.47330E+03  2.60354E+02 -6.04604E+03 -8.07156E+02
 -2.98011E+03 -5.89304E+03  1.15077E+03 -8.69866E+03  6.13164E+03 -8.80213E+03  8.88096E+03 -2.91677E+03
  7.98046E+03  4.09846E+03  3.26583E+03  7.77284E+03 -2.38392E+03  9.32711E+03 -5.26578E+03  5.02890E+03
 -1.00481E+04  3.33340E+02 -7.27416E+03 -4.52437E+03 -1.22071E+03 -6.98591E+03  3.94086E+03 -5.16895E+03
  5.10554E+03 -2.81697E+03  3.95858E+03  1.20669E+03 -2.57795E+02  2.61821E+03 -4.62395E+02  7.27345E+02
  2.97486E+03  1.71158E+02  2.08893E+03  1.76394E+03  2.17385E+03  3.48092E+03  2.70226E+03  3.83935E+03
 -2.76392E+03  6.15378E+03 -5.77120E+03  6.89761E+03 -9.07129E+03  1.88677E+03 -9.41078E+03 -2.11572E+03
 -4.80824E+03 -8.43397E+03  8.54743E+02 -8.78660E+03  3.51671E+03 -6.35624E+03  7.53720E+03 -1.70272E+03
  5.25908E+03  3.53510E+03  2.90722E+02  4.98348E+03 -1.93853E+03  3.23158E+03 -2.80494E+03 -7.25874E+02
 -1.12150E+03 -3.74647E+03  1.47035E+03 -3.56641E+03  2.42182E+03  3.08805E+02  2.53088E+03  6.13248E+02
  1.00920E+03  1.08282E+03  3.79697E+02  6.23626E+02 -2.39269E+02  1.06157E+03  3.44169E+03 -1.44220E+03
  1.00217E+03 -1.11262E+03  4.10823E+03  1.25733E+03  1.24921E+03  5.57582E+03 -1.06571E+03  6.15639E+03
 -3.28012E+03  3.98253E+03 -5.54365E+03  3.05432E+02 -5.52099E+03 -9.97581E+02 -9.24538E+02 -2.68851E+03
  1.86127E+03 -3.34570E+03  2.68343E+03 -1.37027E+03  2.36011E+03  1.33351E+03 -1.66396E+02  2.40817E+03
 -3.31468E+03  2.15475E+03 -3.23419E+03 -1.52908E+03 -2.48110E+03 -3.94864E+03  3.33801E+02 -4.98808E+03
  1.25947E+03 -2.54278E+03  3.30328E+03  4.32240E+02  3.44369E+03  3.89391E+02 -2.35956E+02  2.71773E+03
 -2.09340E+03  1.04698E+03 -1.91648E+03 -6.47902E+02  9.41217E+02 -2.73673E+03  4.48255E+03 -3.12498E+03
  4.43055E+03 -6.03993E+02  4.47438E+03  2.28347E+03  1.52736E+03  4.81665E+03 -2.17014E+03  4.75417E+03
 -3.43334E+03  4.17644E+02 -4.25033E+03 -6.56047E+02 -3.55126E+03 -4.38200E+03  2.43338E+03 -1.70975E+03
  2.96642E+03 -1.81581E+03  3.06160E+03  1.74647E+03  4.10339E+02  1.55459E+03  8.28252E+02  2.21925E+03
 -1.95394E+03  1.21535E+03 -5.32554E+02 -1.58123E+03 -1.63813E+03  3.00106E+02 -1.80542E+03  2.75944E+02
 -1.30990E+03  3.16777E+03 -4.02698E+03  1.58276E+03 -5.42689E+03 -1.24159E+03 -4.86622E+03 -2.58742E+03
 -3.13852E+03 -6.11422E+03  9.82762E+02 -8.04835E+03  5.03710E+03 -6.88052E+03  7.95150E+03 -1.06923E+03
  6.63893E+03  1.33187E+03  3.37826E+03  5.16262E+03  5.54339E+02  4.70402E+03 -1.55624E+03  3.83006E+03
 -1.80192E+03  1.60620E+03 -1.19002E+03 -3.73405E+02 -7.53292E+02 -1.26140E+02 -7.79656E+02 -7.20300E+02
 -2.88410E+03 -3.65980E+02 -3.03521E+02  1.10018E+03 -1.10341E+03 -1.37486E+03  3.69308E+02 -2.47281E+03
  2.94989E+03 -7.57036E+02  3.74145E+03 -8.73794E+02  3.54276E+03  3.42547E+03  5.50274E+02  4.22428E+03
 -1.66808E+03  5.27726E+03 -5.19010E+03  3.26303E+03 -5.52224E+03 -9.79322E+02 -3.88435E+03 -4.25545E+03
 -1.90568E+03 -4.32344E+03  1.02668E+03 -3.74690E+03  3.25203E+03 -2.15311E+03  3.09001E+03  9.54644E+01
  1.03633E+03  2.72111E+03  4.16199E+02  1.48633E+03  1.06320E+03 -3.46685E+02 -1.02340E+01 -1.69203E+03
  1.97816E+03  9.93137E+01  1.59494E+03  3.85083E+01  1.57444E+02  9.17305E+02  1.07420E+03  2.09401E+03
 -2.12021E+03  2.52589E+03 -2.57496E+03  1.22884E+03 -2.21537E+03 -1.31142E+03 -1.27513E+03 -3.94744E+03
  1.53657E+03 -2.84117E+03  3.23072E+03 -1.51151E+02  2.52142E+03  4.24019E+02  2.97028E+03  3.33664E+03
  1.24820E+03  2.10746E+03 -6.49654E+02  2.54221E+03 -1.66075E+03  1.76249E+03 -2.19918E+03  1.40644E+03
 -1.88663E+03 -1.23143E+03 -7.79560E+02  1.08513E+03 -1.94296E+03 -9.01342E+02 -2.95114E+03  9.06423E+01
 -3.42907E+03  2.57613E+02 -1.85922E+03 -2.28212E+03  2.37458E+03 -2.63573E+03  2.36210E+03 -1.81760E+03
  2.82672E+03  3.74799E+02  9.95421E+02  3.10556E+03 -3.70104E+02  3.15098E+03 -2.27649E+03  1.13078E+03
