 $NMID ID='MM_0lb_SNR200_15hz_g40_79.RAW', FMTDAT='(8E13.5)'
 TRAMP=1., VOLUME=1. $END
  3.09208E+05 -4.16068E+01  3.37581E+05  2.51219E+05  8.45429E+04  3.37244E+05 -1.32949E+05  2.49998E+05
 -1.90278E+05  8.26036E+04 -1.11729E+05 -3.35881E+04  1.77736E+03 -5.01159E+04  5.30855E+04  2.17260E+02
  3.57607E+04  5.25431E+04 -1.66536E+04  7.55162E+04 -5.98979E+04  6.19155E+04 -8.42302E+04  3.21642E+04
 -8.02041E+04 -1.07653E+04 -5.65250E+04 -4.96625E+04 -1.45699E+04 -6.86199E+04  2.74868E+04 -4.45671E+04
  3.93776E+04  4.66303E+03  1.70553E+04  4.79859E+04 -3.40438E+04  4.68245E+04 -6.64043E+04 -7.67812E+02
 -5.29372E+04 -5.53518E+04 -7.06475E+03 -7.62887E+04  3.19380E+04 -5.40894E+04  4.61400E+04 -1.55033E+04
  4.23681E+04  9.54753E+03  3.25848E+04  2.36048E+04  1.71376E+04  2.82311E+04 -4.58671E+03  2.76296E+04
 -2.16558E+04  1.16035E+04 -1.76913E+04 -4.04034E+03  4.51785E+03 -7.93533E+03  2.19195E+04  1.17971E+04
  7.50799E+03  3.53870E+04 -3.13265E+04  3.36792E+04 -6.26068E+04  9.06566E+02 -5.61685E+04 -4.19111E+04
 -1.25570E+04 -6.19621E+04  4.01548E+04 -4.35722E+04  5.76492E+04 -2.82296E+03  3.31731E+04  3.17182E+04
 -7.25980E+03  3.43094E+04 -2.90160E+04  1.52511E+04 -2.87613E+04 -5.10971E+03 -1.51655E+04 -1.18745E+04
 -7.86734E+03 -1.16174E+04 -3.80417E+02 -1.64831E+04  6.81290E+03 -2.31853E+04  1.50963E+04 -1.24335E+04
  1.14601E+04  4.42484E+03 -7.61895E+03  1.32188E+04 -2.10672E+04 -3.51974E+03 -8.99042E+03 -3.23108E+04
  2.09185E+04 -4.15847E+04  4.65571E+04 -1.98814E+04  4.42221E+04  1.92791E+04  1.56626E+04  4.27485E+04
 -1.55167E+04  3.26895E+04 -2.30242E+04  1.33219E+03 -8.18497E+03 -2.77835E+04  2.02976E+04 -3.30013E+04
  4.01174E+04 -8.30569E+03  3.34646E+04  2.35957E+04  1.70401E+04  4.52119E+04 -7.13275E+03  4.76024E+04
 -2.93021E+04  3.16511E+04 -4.03206E+04  9.17397E+03 -4.09096E+04 -1.64992E+04 -2.20448E+04 -3.70066E+04
  5.93521E+03 -3.68753E+04  3.10221E+04 -1.47003E+04  2.73477E+04  1.12767E+04  3.96162E+03  1.78659E+04
 -1.41980E+04  8.27416E+03 -1.02912E+04 -6.92597E+03  6.76536E+03 -1.05784E+04  1.73290E+04  5.31372E+03
  1.25104E+04  2.23617E+04 -6.34354E+03  2.53418E+04 -2.20565E+04  9.97399E+03 -2.66041E+04 -6.13463E+03
 -1.81434E+04 -1.68091E+04 -6.34170E+03 -2.02829E+04  4.10609E+03 -1.75803E+04  1.42359E+04 -1.68473E+04
  2.42471E+04 -1.25970E+04  3.10327E+04  1.02288E+03  2.40278E+04  1.99388E+04  2.78663E+03  3.48783E+04
 -1.67974E+04  2.82337E+04 -2.64968E+04  9.61475E+03 -1.93055E+04 -1.12255E+04 -3.75868E+03 -1.33587E+04
  2.23251E+03 -3.46568E+03 -3.44344E+03  6.42625E+03 -1.40471E+04  5.22765E+03 -1.49568E+04 -5.70542E+03
 -9.86184E+03 -1.66909E+04  3.96969E+03 -2.12704E+04  1.48441E+04 -1.50244E+04  1.67981E+04 -2.23089E+03
  1.12742E+04  1.12383E+04 -1.75148E+03  1.61957E+04 -1.14212E+04  9.81067E+03 -1.71542E+04 -3.39470E+03
 -1.30803E+04 -1.56095E+04 -2.60935E+02 -2.23274E+04  1.01502E+04 -1.81220E+04  1.74007E+04 -9.35712E+03
  1.61023E+04  3.51249E+02  1.22903E+04  3.31428E+03  4.93832E+03  4.22247E+02  9.26151E+03 -1.52605E+03
  1.44882E+04  2.63817E+03  1.63360E+04  1.44624E+04  1.11432E+04  2.82407E+04 -2.84564E+03  3.14908E+04
 -1.76469E+04  2.43680E+04 -2.78045E+04  1.19657E+04 -2.84531E+04 -2.21058E+03 -2.61097E+04 -1.62685E+04
 -1.06820E+04 -2.36642E+04  8.90796E+03 -2.27592E+04  1.97475E+04 -1.18839E+04  1.75543E+04  5.89044E+03
  7.67504E+03  1.27081E+04 -8.29414E+03  1.20774E+04 -1.67819E+04  2.54763E+03 -1.19321E+04 -1.00356E+04
  2.18330E+02 -1.36465E+04  6.17874E+03 -1.02629E+04  9.85768E+03 -1.73490E+03  2.62872E+03  5.06084E+03
 -6.33977E+03  2.05790E+03 -5.73057E+03 -5.51403E+03  1.09787E+02 -1.12087E+04  8.03202E+03 -1.16927E+04
  1.50685E+04 -5.53625E+03  1.38963E+04  3.36814E+03  1.36280E+04  1.15455E+04  6.85587E+03  1.74258E+04
 -2.41351E+03  1.98351E+04 -1.23991E+04  1.18059E+04 -1.43432E+04  3.87718E+03 -9.25965E+03 -2.79532E+03
 -5.42329E+03 -2.69533E+03 -3.37629E+02  1.58967E+03 -2.78137E+03  2.53882E+03 -4.73484E+03  3.12366E+03
 -1.11475E+04 -6.78019E+02 -9.88675E+03 -7.25116E+03 -4.68660E+03 -1.44214E+04  3.76686E+03 -1.10243E+04
  7.56712E+03 -3.95166E+03  5.23919E+03  3.35334E+03 -3.97891E+02  3.84523E+03 -3.67592E+03  4.48676E+02
 -4.70564E+03 -6.38949E+03 -2.36443E+03 -8.99196E+03  6.35620E+03 -1.00487E+04  1.14020E+04 -5.10787E+03
  1.31534E+04  1.50565E+03  1.11321E+04  7.30964E+03  1.80494E+03  1.15247E+04 -5.94957E+03  8.93221E+03
 -9.22500E+03  2.49838E+03 -3.76070E+03 -1.55007E+03  2.27291E+03 -3.00883E+03  5.62635E+03 -7.69198E+02
  5.21058E+03  5.58886E+03  1.92679E+03  7.71829E+03 -5.64501E+03  7.91397E+03 -9.35859E+03  2.18500E+03
 -6.97753E+03 -4.10877E+03  1.26597E+03 -8.34354E+03  4.84473E+03 -3.30848E+03  4.63930E+03  9.20532E+02
  5.03797E+02  5.33488E+03 -4.67066E+03  6.14302E+03 -6.54105E+03  2.43455E+03 -7.76838E+03 -3.08246E+03
 -4.44870E+03 -8.69628E+03  1.81581E+03 -9.86628E+03  8.24067E+03 -5.87592E+03  7.32137E+03  4.04008E+02
  5.97946E+03  6.38161E+03 -3.31482E+02  9.34872E+03 -5.76394E+03  5.95821E+03 -7.28629E+03 -5.58511E+00
 -6.38075E+03 -6.07231E+03 -1.20663E+03 -6.43829E+03  3.82546E+03 -6.28148E+03  3.38220E+03 -2.74322E+03
  2.78846E+03  1.21645E+03 -5.01359E+02  2.24199E+02  2.26451E+00 -5.80499E+02  5.39175E+02 -3.71760E+03
  5.74431E+03 -2.89002E+03  7.21381E+03  1.79433E+03  7.45830E+03  4.03918E+03  7.71809E+03  1.02564E+04
 -1.61709E+03  1.23923E+04 -9.75726E+03  9.54974E+03 -1.35700E+04  1.31572E+03 -1.04722E+04 -3.35321E+03
 -5.81915E+03 -9.14807E+03 -3.53878E+02 -7.07764E+03  2.47307E+03 -2.43823E+03  2.32082E+03 -2.33951E+03
  1.73904E+03 -1.74122E+03  2.65624E+03 -1.57990E+03  4.07669E+03 -2.56313E+03  5.02211E+03  5.14184E+02
  6.37232E+03  1.30541E+03  1.98507E+03  5.60723E+03 -2.55580E+03  5.71165E+03 -4.69832E+03  4.21325E+03
 -8.08715E+03 -1.26888E+03 -4.67282E+03 -5.02335E+03 -9.34075E+00 -7.23478E+03  4.23802E+03 -7.29428E+03
  7.31291E+03 -4.81157E+03  8.83122E+03  8.49029E+02  6.62640E+03  6.67814E+03  1.02363E+03  7.90295E+03
 -3.91741E+03  8.64298E+03 -5.17759E+03  2.37814E+03 -2.98278E+03 -1.80448E+03 -1.63729E+03  2.05605E+02
 -1.19233E+03  7.13188E+02 -1.95375E+03  2.07517E+03 -3.82892E+03  7.93490E+02 -5.80865E+03 -1.49206E+03
 -2.86964E+03 -4.99343E+03  1.76684E+03 -6.88190E+03  4.16594E+03 -6.73435E+03  6.36612E+03 -1.19935E+03
  6.45856E+03  3.05862E+03  3.69558E+03  5.45381E+03 -1.61238E+03  6.24572E+03 -3.54858E+03  4.00484E+03
 -5.72295E+03  5.41356E+02 -3.58614E+03 -3.98279E+03 -3.65354E+02 -4.63023E+03  2.21326E+03 -3.58336E+03
  3.99669E+03 -1.18705E+03  2.48529E+03  1.32447E+03 -9.55261E+01  2.03689E+03  1.01855E+03  6.53449E+02
  2.16410E+03  1.18101E+03  1.71187E+03  2.07906E+03  1.15789E+03  2.79641E+03  2.29089E+03  2.45647E+03
 -2.04339E+03  5.35296E+03 -4.41470E+03  5.08891E+03 -5.58535E+03  1.49096E+03 -6.46971E+03 -1.38470E+03
 -3.03502E+03 -5.31111E+03  1.58283E+03 -7.34723E+03  3.52955E+03 -5.13695E+03  4.80371E+03 -1.45172E+03
  4.31608E+03  2.09202E+03  1.88890E+03  3.40650E+03 -2.08455E+03  2.33397E+03 -1.89905E+03 -1.04976E+03
 -4.75387E+02 -2.00245E+03  2.15448E+03 -1.91282E+03  2.34180E+03 -1.10925E+03  2.35734E+03  6.98896E+02
  1.33745E+03  5.13462E+02  1.59863E+03  3.06853E+02 -6.16320E+01  1.04283E+03  2.96055E+03 -2.02930E+02
  1.47565E+03  4.35306E+01  2.41857E+03  2.04676E+03  1.68250E+03  3.61378E+03 -2.25881E+02  4.50188E+03
 -2.47658E+03  2.94767E+03 -3.48419E+03  2.81584E+01 -4.24966E+03 -1.53041E+03 -9.88224E+02 -1.65334E+03
  3.62096E+02 -2.37217E+03  1.49267E+03 -9.62875E+02  2.71589E+02  7.71200E+02 -1.30030E+03  1.36187E+03
 -1.97825E+03  1.25637E+03 -9.88649E+02 -2.80070E+03 -1.51048E+03 -4.62023E+03  3.46896E+02 -2.04714E+03
  1.51510E+03 -1.44767E+03  2.74359E+02 -2.54534E+02  1.70070E+03  4.10311E+02  4.33055E+02  2.02413E+03
 -6.31797E+02  1.12346E+03 -1.86139E+03 -9.75186E+02  9.73436E+02 -6.65530E+02  2.97325E+03 -2.11136E+03
  3.20302E+03 -6.15572E+02  3.38207E+03  1.86670E+03  1.07357E+03  2.93592E+03 -6.20148E+02  3.07626E+03
 -3.10712E+03  1.34003E+03 -2.52703E+03 -5.13099E+02 -1.24136E+03 -3.11824E+03  1.38337E+03 -1.46685E+03
  2.76033E+03 -1.56924E+03  1.42876E+03  1.25735E+03  8.82991E+02  3.38945E+03 -8.12838E+02  2.12048E+03
 -1.45010E+03  1.68650E+03 -1.00058E+03  1.35744E+03 -1.48534E+02  7.83758E+01 -1.25645E+03  4.73636E+02
  3.95462E+02  3.00597E+03 -2.66874E+03  1.07983E+03 -2.68074E+03 -1.50598E+03 -3.57744E+03 -1.62029E+03
 -3.36888E+03 -3.40744E+03  8.92113E+02 -5.16464E+03  1.96445E+03 -4.44455E+03  5.39613E+03 -3.63845E+02
  4.34177E+03  8.36379E+02  2.43874E+03  3.40075E+03 -5.73950E+02  1.83298E+03 -1.94258E+03  2.20088E+03
 -2.99305E+03 -8.16269E+02 -1.61683E+03 -6.24630E+02 -1.33764E+03  1.94823E+03 -1.36077E+03  3.40225E+02
 -1.97454E+03  5.34166E+01 -1.32063E+03  1.23621E+03  9.11303E+02 -1.24038E+03 -4.87255E+02 -2.21138E+03
  1.68076E+03 -1.51238E+03  9.40141E+02  8.31998E+02  2.13159E+03  2.15552E+03 -1.41193E+03  1.90994E+03
 -2.33499E+03  3.13665E+03 -4.11922E+03  2.39597E+03 -3.52942E+03 -6.68844E+02 -3.42333E+03 -2.58459E+03
 -3.54622E+02 -2.92451E+03  1.33758E+03 -2.98368E+03  2.55603E+03 -1.13976E+03  5.00073E+02 -3.57944E+02
  2.05390E+03  1.97263E+03 -3.11513E+01  1.53454E+03 -1.65064E+03  3.93565E+02 -5.58918E+02 -4.60908E+02
  1.80849E+03  6.46065E+02  7.26106E+02  6.62708E+02 -1.05812E+02  8.60122E+02  9.95072E+02  5.77821E+02
 -1.53576E+03  1.15877E+03 -2.58673E+03 -3.58981E+02 -1.56206E+03 -1.42110E+03 -1.70012E+02 -1.61705E+03
  1.27686E+03 -2.33767E+03  1.83117E+03  6.94115E+02  2.33667E+03 -7.05471E+02  1.01686E+03  9.46739E+02
 -7.15806E+02  4.26378E+02 -1.31180E+03  7.84727E+02 -8.58608E+02  8.24490E+02 -1.00790E+03 -3.45561E+02
 -3.55897E+02 -4.82557E+01 -2.81590E+02 -5.54345E+02 -7.17339E+02  9.90228E+01 -2.16579E+03 -3.00550E+02
 -1.53658E+03 -6.70109E+01 -1.15437E+03 -2.18886E+03  2.17741E+03 -2.20708E+03  1.44700E+03 -6.40371E+02
  1.91207E+03  7.38960E+02 -5.00676E+02  2.32003E+02  2.67086E+02  1.93187E+03 -1.07823E+03  1.53138E+02
