 $NMID ID='MM_0lb_SNR200_15hz_g45_1.RAW', FMTDAT='(8E13.5)'
 TRAMP=1., VOLUME=1. $END
  3.09891E+05 -5.03736E+02  3.38112E+05  2.51188E+05  8.47848E+04  3.38394E+05 -1.33627E+05  2.51228E+05
 -1.88546E+05  8.34095E+04 -1.12614E+05 -3.33975E+04  2.28202E+02 -5.02316E+04  5.46338E+04 -3.61079E+02
  3.43176E+04  5.24814E+04 -1.67859E+04  7.51102E+04 -5.99945E+04  6.26766E+04 -8.36637E+04  3.05059E+04
 -7.90037E+04 -1.07238E+04 -5.57967E+04 -5.07330E+04 -1.57354E+04 -6.78423E+04  2.68543E+04 -4.54577E+04
  3.95531E+04  4.00642E+03  1.55860E+04  4.78803E+04 -3.33962E+04  4.75759E+04 -6.59411E+04  4.43965E+02
 -5.23381E+04 -5.58201E+04 -5.84765E+03 -7.68249E+04  3.35535E+04 -5.41136E+04  4.80264E+04 -1.65112E+04
  4.23678E+04  1.09273E+04  3.06977E+04  2.44718E+04  1.56848E+04  2.81605E+04 -5.09736E+03  2.77571E+04
 -2.23550E+04  1.22845E+04 -1.99326E+04 -4.54004E+03  5.79673E+03 -8.21518E+03  2.19359E+04  1.16289E+04
  7.60853E+03  3.43922E+04 -3.10556E+04  3.52665E+04 -6.28717E+04  3.04988E+03 -5.63733E+04 -4.24776E+04
 -1.30083E+04 -6.22945E+04  3.86741E+04 -4.49267E+04  5.55146E+04 -2.33702E+03  3.34717E+04  3.05713E+04
 -6.38615E+03  3.57952E+04 -2.91517E+04  1.51220E+04 -3.08494E+04 -3.61870E+03 -1.54064E+04 -9.32350E+03
 -7.64639E+03 -1.34694E+04 -4.54408E+02 -1.74674E+04  7.42553E+03 -2.22680E+04  1.53934E+04 -1.37435E+04
  1.04656E+04  5.01443E+03 -7.13753E+03  1.26714E+04 -2.08240E+04 -3.63543E+03 -8.30720E+03 -3.17097E+04
  2.29066E+04 -4.30066E+04  4.63471E+04 -1.87093E+04  4.40013E+04  1.89845E+04  1.48028E+04  4.38981E+04
 -1.64927E+04  3.23319E+04 -2.40954E+04  1.47290E+03 -9.41981E+03 -2.84391E+04  2.14046E+04 -3.37659E+04
  4.05315E+04 -8.14325E+03  3.44586E+04  2.39494E+04  1.64582E+04  4.54085E+04 -8.47192E+03  4.88105E+04
 -2.98578E+04  3.24771E+04 -4.03328E+04  9.36924E+03 -4.21240E+04 -1.63657E+04 -2.34651E+04 -3.74035E+04
  6.77713E+03 -3.70938E+04  3.16864E+04 -1.42827E+04  2.98014E+04  1.09013E+04  2.61104E+03  1.82039E+04
 -1.35289E+04  6.66609E+03 -9.60162E+03 -7.15319E+03  4.91453E+03 -1.01841E+04  1.79077E+04  4.71205E+03
  1.21159E+04  2.23121E+04 -6.45001E+03  2.41832E+04 -2.27787E+04  1.09143E+04 -2.69468E+04 -4.29883E+03
 -1.93188E+04 -1.73951E+04 -8.42186E+03 -1.91427E+04  3.56735E+03 -1.80100E+04  1.56328E+04 -1.73451E+04
  2.46790E+04 -1.24229E+04  3.16470E+04  2.00020E+03  2.26924E+04  1.82024E+04  4.37443E+03  3.52090E+04
 -1.70277E+04  2.92916E+04 -2.78898E+04  1.02645E+04 -2.08683E+04 -1.10226E+04 -4.54303E+03 -1.32639E+04
  2.09196E+03 -2.43583E+03 -5.21931E+03  6.99868E+03 -1.37842E+04  6.20170E+03 -1.47081E+04 -7.44245E+03
 -1.01909E+04 -1.71945E+04  6.06889E+03 -2.20870E+04  1.47017E+04 -1.56579E+04  1.67099E+04 -2.78036E+03
  1.12135E+04  1.25616E+04 -1.10325E+03  1.79258E+04 -1.33444E+04  8.73054E+03 -1.82542E+04 -4.59942E+03
 -1.20379E+04 -1.58369E+04 -8.95670E+02 -2.17452E+04  1.12131E+04 -1.75534E+04  1.86400E+04 -7.80038E+03
  1.77261E+04  1.38824E+03  1.19961E+04  4.86786E+03  5.23796E+03  4.08973E+02  7.95521E+03 -2.20494E+03
  1.69009E+04  3.74716E+03  1.71633E+04  1.40773E+04  1.13865E+04  2.86945E+04 -2.78126E+03  2.99852E+04
 -1.83661E+04  2.42433E+04 -2.96161E+04  1.26838E+04 -3.07796E+04 -2.74528E+03 -2.51676E+04 -1.78977E+04
 -1.14519E+04 -2.55965E+04  7.44676E+03 -2.25637E+04  2.11430E+04 -1.24574E+04  1.81047E+04  5.25599E+03
  6.64458E+03  1.31180E+04 -8.75591E+03  1.23910E+04 -1.47821E+04  2.42502E+03 -1.13991E+04 -9.61855E+03
  3.33710E+02 -1.40065E+04  7.34208E+03 -1.09827E+04  9.33567E+03 -2.20165E+03  2.21898E+03  5.39772E+03
 -5.38009E+03  1.88545E+03 -6.20545E+03 -4.76540E+03  1.57953E+03 -1.24910E+04  8.16728E+03 -1.33829E+04
  1.60029E+04 -5.93074E+03  1.64200E+04  3.18327E+03  1.39746E+04  1.23376E+04  7.12856E+03  1.88963E+04
 -2.58746E+03  2.02068E+04 -1.19230E+04  1.22988E+04 -1.40704E+04  2.71211E+03 -1.15177E+04 -4.30806E+03
 -4.62633E+03 -4.38755E+03 -8.13254E+02  4.91499E+02 -1.31298E+03  2.46359E+03 -3.31162E+03  4.41586E+03
 -8.57341E+03 -5.11109E+02 -1.15563E+04 -9.15322E+03 -3.76445E+03 -1.26801E+04  4.51992E+03 -1.00925E+04
  8.55749E+03 -5.32612E+03  7.10997E+03  2.66405E+03  8.75488E+02  4.52578E+03 -4.81390E+03  1.32139E+03
 -5.24817E+03 -6.82944E+03 -6.57776E+02 -9.78334E+03  5.30322E+03 -1.02695E+04  1.22668E+04 -4.26103E+03
  1.49254E+04  6.77339E+02  1.11298E+04  8.51991E+03  2.22883E+03  1.13350E+04 -6.42807E+03  9.78131E+03
 -8.56764E+03  2.59070E+03 -4.41296E+03 -2.03468E+03  2.55930E+03 -2.59567E+03  5.53163E+03 -9.24150E+02
  4.30255E+03  4.58397E+03  1.34557E+03  8.13719E+03 -5.57324E+03  7.04200E+03 -9.81403E+03  1.86701E+03
 -7.25900E+03 -3.91188E+03 -5.32929E+02 -9.35106E+03  5.70153E+03 -4.29867E+03  5.42119E+03  1.11029E+03
  1.31402E+02  5.26529E+03 -6.71619E+03  6.95773E+03 -5.59066E+03  3.29590E+03 -6.96923E+03 -3.63083E+03
 -4.40924E+03 -8.95660E+03  1.89343E+03 -1.05659E+04  7.91252E+03 -7.07557E+03  9.31827E+03  2.92385E+02
  7.49154E+03  8.08498E+03 -7.55921E+02  9.84625E+03 -8.18611E+03  5.93622E+03 -6.76068E+03  2.23961E+02
 -6.07600E+03 -6.52713E+03 -1.16452E+03 -7.03441E+03  3.49310E+03 -6.07536E+03  4.90854E+03 -3.08629E+03
  3.56238E+03  4.77085E+02 -9.72117E+02  2.15330E+03 -3.47335E+02 -4.91770E+02  8.01024E+02 -2.77455E+03
  5.64469E+03 -9.85042E+02  8.05229E+03  1.15138E+02  5.68417E+03  5.41464E+03  6.48379E+03  1.13085E+04
 -2.82332E+03  1.33519E+04 -1.09445E+04  1.06007E+04 -1.36336E+04  5.37082E+02 -1.08855E+04 -4.55689E+03
 -5.83566E+03 -9.97666E+03 -5.03024E+02 -8.17411E+03  3.37455E+03 -3.07320E+03  2.41904E+03 -1.42936E+03
  3.28516E+03 -1.47165E+03  2.52667E+03 -3.25513E+03  3.08064E+03 -2.71558E+03  5.26167E+03  5.25768E+02
  6.45924E+03  9.70882E+01  2.75293E+03  6.56275E+03 -8.62861E+02  6.03237E+03 -6.91842E+03  3.20301E+03
 -6.97663E+03 -5.43908E+02 -3.66519E+03 -5.16236E+03  1.48218E+03 -6.90476E+03  4.80868E+03 -7.91665E+03
  7.50862E+03 -4.95832E+03  1.11361E+04  8.97061E+02  7.30715E+03  5.42549E+03  1.32962E+03  9.54022E+03
 -3.29742E+03  8.30222E+03 -5.73425E+03  2.45475E+03 -3.53845E+03 -6.72267E+02 -9.10938E+02  1.03611E+03
 -1.84178E+03 -6.53848E+02 -4.35185E+02  1.80124E+03 -4.14150E+03  6.67684E+02 -5.90613E+03  3.65499E+01
 -2.58376E+03 -6.20150E+03  4.27577E+02 -7.02661E+03  4.56558E+03 -4.25452E+03  7.76487E+03 -1.45450E+03
  7.32542E+03  2.71479E+03  2.28464E+03  5.38386E+03 -2.45438E+02  7.79954E+03 -4.97999E+03  3.14751E+03
 -6.98084E+03  2.02429E+03 -4.71507E+03 -4.83088E+03 -5.18432E+02 -4.94584E+03  2.97407E+03 -4.28830E+03
  5.23676E+03 -1.45950E+03  2.66445E+03  4.06706E+02 -1.77620E+02  1.69470E+03 -2.02390E+02  1.01524E+03
  1.26664E+03  6.41524E+02  1.44023E+03  2.68455E+02  8.19445E+02  1.89043E+03  3.92087E+03  3.31383E+03
 -1.53096E+03  4.97776E+03 -4.42934E+03  6.61513E+03 -6.16294E+03  1.66607E+03 -6.70808E+03 -8.88903E+02
 -3.20654E+03 -6.42311E+03  1.24567E+03 -7.77344E+03  3.36435E+03 -3.64178E+03  4.72745E+03 -9.26834E+02
  3.90086E+03  2.14813E+03 -3.22118E+02  3.67853E+03 -2.06380E+03  1.97880E+03 -2.02096E+03 -1.47967E+03
 -1.09912E+03 -2.33223E+03  2.32026E+03 -3.58663E+03  2.20886E+03 -6.15622E+02  1.38363E+03  7.64603E+02
  2.10771E+03  1.61764E+03  1.19145E+03 -4.02336E+01 -1.62411E+03  1.43070E+03  1.75620E+03  2.54925E+02
  6.16254E+02 -7.40408E+02  2.58147E+03  1.75982E+03  9.26332E+02  1.73671E+03 -1.17151E+03  5.08643E+03
 -2.01023E+03  3.52278E+03 -3.74633E+03  2.48000E+02 -2.89385E+03 -5.11879E+02 -1.73989E+03 -1.95921E+03
  4.08667E+02 -3.40314E+03  1.56155E+03 -6.33943E+02  2.46847E+03  2.26399E+03 -1.48687E+03  3.75830E+03
 -2.71803E+03  1.43648E+03 -3.54171E+03 -7.27473E+02 -1.34763E+03 -2.45774E+03 -7.37010E+02 -3.75722E+03
  1.17986E+03 -1.58820E+02  1.20355E+03 -5.12304E+02  2.58066E+03  1.72482E+00  1.29118E+03  2.24330E+03
 -1.02710E+03  3.27345E+02 -1.81558E+03 -3.16878E+02  1.11772E+03 -2.91485E+03  3.54562E+03 -1.65768E+03
  2.93611E+03 -7.66820E+02  4.54415E+03  2.39025E+03  2.20671E+03  2.55349E+03 -1.38020E+03  4.39746E+03
 -3.17198E+03  1.45722E+03 -3.29014E+03  7.10784E+02 -1.54883E+03 -3.19386E+03  5.41343E+02 -8.56738E+02
  3.91944E+03 -3.28768E+02  1.51654E+03  7.68651E+02  1.44118E+03  2.01688E+03 -1.04093E+03 -2.28499E+02
 -6.72154E+02  1.19824E+03 -1.24308E+03  2.39493E+02 -3.26416E+02  6.91437E+01 -9.53327E+02  6.32191E+02
 -4.57308E+02  9.70738E+02 -3.35234E+03  1.11114E+03 -2.93855E+03  1.12603E+03 -5.61316E+03 -2.50881E+03
 -2.47863E+03 -5.95151E+03  2.00782E+03 -4.66148E+03  3.36507E+03 -3.95061E+03  4.19265E+03 -2.30604E+03
  4.20404E+03  4.75968E+02  2.18861E+03  3.98433E+03  1.08775E+03  3.71572E+03 -1.74925E+03  3.28316E+03
 -2.58503E+03  9.41916E+02 -9.54903E+02 -1.09885E+03 -2.06326E+03 -1.11033E+03 -8.55506E+01  7.63880E+02
 -1.90551E+03  6.22110E+02 -2.25134E+03 -2.33780E+02 -8.23305E+01 -9.63742E+02 -1.51646E+02 -1.22568E+03
  2.20143E+03 -1.23380E+03  1.37582E+03  2.24206E+02  2.03795E+03  1.19659E+03  4.42235E+02  3.73171E+03
 -1.49900E+03  4.32633E+03 -3.24551E+03  2.33417E+03 -2.82459E+03 -4.31956E+02 -2.57455E+03 -2.05578E+03
 -9.38001E+02 -3.16769E+03  4.06227E+01 -2.29509E+03  2.65799E+03 -2.82003E+03  2.18704E+03  7.74334E+02
  8.91183E+02  2.90559E+03 -1.03082E+02  9.52811E+02 -1.00176E+03  5.36563E+02 -1.29912E+03 -5.93863E+02
  1.22279E+03  3.68792E+02  2.14417E+03  9.08578E+02  6.45229E+02  1.57215E+03  1.06818E+01  1.51928E+03
 -3.01126E+03  1.10530E+03 -1.99884E+03  2.21131E+02 -1.18586E+03 -4.63916E+02  5.86755E+02 -1.64351E+03
  1.45825E+03 -1.46359E+03  1.42974E+03 -1.07948E+03  2.26130E+03  1.96029E+02  1.61510E+03  1.47566E+03
  4.60897E+02  1.75196E+03 -1.57081E+03  1.31160E+03 -1.48914E+03  9.97084E+02 -5.80717E+02 -9.02476E+01
  1.89865E+01 -5.79685E+02 -1.24677E+03  4.46442E+02 -6.96239E+02 -1.05450E+02 -1.10253E+03 -9.84085E+00
 -2.14785E+03 -9.22775E+02 -7.86552E+01 -1.96395E+03  6.63808E+02 -1.19177E+03  2.32304E+03  3.03129E+02
  1.17671E+03 -1.67120E+02  1.46158E+03 -6.65524E+02  1.80075E+02  2.39570E+03 -2.00618E+03  1.65780E+03
