 $NMID ID='MM_0lb_SNR200_15hz_g60_87.RAW', FMTDAT='(8E13.5)'
 TRAMP=1., VOLUME=1. $END
  3.10207E+05  1.49882E+02  3.38698E+05  2.50822E+05  8.39601E+04  3.37886E+05 -1.33354E+05  2.50817E+05
 -1.90516E+05  8.29562E+04 -1.13154E+05 -3.23661E+04  1.38218E+03 -5.02251E+04  5.50767E+04 -2.25457E+02
  3.48330E+04  5.35174E+04 -1.78805E+04  7.69654E+04 -6.11562E+04  6.38133E+04 -8.36090E+04  3.31973E+04
 -8.17608E+04 -1.00489E+04 -5.74298E+04 -5.15488E+04 -1.58047E+04 -6.98872E+04  2.73823E+04 -4.63899E+04
  4.13206E+04  5.01197E+03  1.60865E+04  4.75157E+04 -3.44731E+04  4.72794E+04 -6.70412E+04 -5.45641E+02
 -5.38690E+04 -5.77050E+04 -6.69637E+03 -7.72986E+04  3.42639E+04 -5.55568E+04  4.97837E+04 -1.78682E+04
  4.39018E+04  1.14509E+04  3.21579E+04  2.67273E+04  1.64693E+04  2.96041E+04 -4.30474E+03  2.68768E+04
 -2.27141E+04  1.24387E+04 -1.82713E+04 -5.94166E+03  5.40242E+03 -8.00459E+03  2.27319E+04  1.27344E+04
  7.73453E+03  3.58596E+04 -3.22348E+04  3.59633E+04 -6.26464E+04  1.71773E+03 -5.65920E+04 -4.16885E+04
 -1.16227E+04 -6.33754E+04  3.99716E+04 -4.54396E+04  5.88628E+04 -2.40451E+03  3.46525E+04  3.20893E+04
 -6.12681E+03  3.67968E+04 -3.05012E+04  1.67314E+04 -3.14369E+04 -3.87813E+03 -1.74824E+04 -1.19393E+04
 -8.79506E+03 -1.27661E+04 -4.26115E+02 -1.84201E+04  7.72957E+03 -2.20802E+04  1.63464E+04 -1.39869E+04
  1.01976E+04  4.05851E+03 -9.28972E+03  1.29922E+04 -2.12323E+04 -4.58651E+03 -7.73657E+03 -3.45346E+04
  2.29535E+04 -4.45318E+04  4.83187E+04 -2.03954E+04  4.66550E+04  1.93928E+04  1.71984E+04  4.42512E+04
 -1.62713E+04  3.48868E+04 -2.77471E+04  1.45394E+03 -9.69732E+03 -2.83964E+04  2.19931E+04 -3.41512E+04
  4.09668E+04 -8.87722E+03  3.73762E+04  2.41867E+04  1.84029E+04  4.67266E+04 -8.55384E+03  5.22778E+04
 -3.13554E+04  3.47213E+04 -4.16940E+04  9.74560E+03 -4.41208E+04 -1.75267E+04 -2.32904E+04 -3.80069E+04
  8.29604E+03 -3.87600E+04  3.10509E+04 -1.33119E+04  2.96521E+04  1.04193E+04  3.04596E+03  1.94046E+04
 -1.20891E+04  8.22030E+03 -1.02794E+04 -7.86627E+03  6.47547E+03 -1.08901E+04  1.75500E+04  5.61739E+03
  1.36781E+04  2.14009E+04 -5.84053E+03  2.53450E+04 -2.11395E+04  1.28317E+04 -2.88569E+04 -4.68093E+03
 -2.15706E+04 -1.77749E+04 -8.88405E+03 -2.19176E+04  4.11959E+03 -2.08089E+04  1.59281E+04 -1.87510E+04
  2.63457E+04 -1.29127E+04  3.36078E+04  2.77542E+03  2.34975E+04  2.16136E+04  3.75623E+03  3.78630E+04
 -1.71628E+04  3.02865E+04 -2.73570E+04  1.01040E+04 -2.02630E+04 -1.06847E+04 -3.75011E+03 -1.38446E+04
  1.91504E+03 -2.67427E+03 -5.00945E+03  6.37219E+03 -1.76782E+04  5.48838E+03 -1.82506E+04 -7.85526E+03
 -1.07524E+04 -1.97843E+04  6.05139E+03 -2.29990E+04  1.52712E+04 -1.73947E+04  1.79517E+04 -1.77450E+03
  1.24674E+04  1.26966E+04 -1.99075E+03  1.95691E+04 -1.29479E+04  1.11192E+04 -2.00167E+04 -4.83237E+03
 -1.33648E+04 -1.87088E+04 -2.77644E+03 -2.35881E+04  1.11428E+04 -2.02271E+04  1.91325E+04 -9.78281E+03
  1.86527E+04  4.10793E+02  1.28362E+04  6.52874E+03  6.29599E+03 -2.70478E+02  1.08191E+04 -6.74942E+02
  1.83965E+04  3.10771E+03  2.05957E+04  1.48791E+04  1.26467E+04  3.01534E+04 -3.61178E+03  3.56107E+04
 -2.01155E+04  2.74293E+04 -3.21814E+04  1.37068E+04 -3.53224E+04 -1.90833E+03 -2.88972E+04 -2.05561E+04
 -1.26629E+04 -2.80939E+04  1.00855E+04 -2.55074E+04  2.35252E+04 -1.22273E+04  1.91006E+04  5.77960E+03
  6.82296E+03  1.45667E+04 -9.65116E+03  1.32194E+04 -1.64473E+04  3.40900E+03 -1.15010E+04 -9.59517E+03
  5.32167E+02 -1.45790E+04  8.25102E+03 -1.18473E+04  1.09305E+04 -7.46418E+02  1.83247E+03  7.15053E+03
 -4.67532E+03  2.07946E+03 -6.77088E+03 -5.51421E+03 -1.28300E+02 -1.35870E+04  9.24981E+03 -1.42091E+04
  1.77374E+04 -7.71419E+03  1.68383E+04  3.44032E+03  1.56369E+04  1.30476E+04  8.04427E+03  2.12354E+04
 -5.05934E+03  2.35104E+04 -1.41404E+04  1.31744E+04 -1.63910E+04  3.55296E+03 -1.17972E+04 -3.10105E+03
 -5.91438E+03 -5.06689E+03 -1.32635E+03 -5.29654E+00 -3.09271E+03  3.37771E+03 -5.14175E+03  3.56868E+03
 -1.18357E+04 -3.71581E+02 -1.06172E+04 -8.49822E+03 -5.38428E+03 -1.44940E+04  4.91432E+03 -1.21979E+04
  8.97115E+03 -3.82330E+03  6.26621E+03  3.03566E+03 -4.90668E+02  3.43833E+03 -5.23219E+03 -1.71843E+02
 -5.53915E+03 -7.43784E+03 -5.21276E+02 -1.08034E+04  6.13040E+03 -1.09980E+04  1.43432E+04 -5.01073E+03
  1.60235E+04  1.62998E+03  1.28664E+04  8.74340E+03  2.63043E+03  1.45208E+04 -6.41364E+03  1.13146E+04
 -1.04285E+04  2.60823E+03 -5.10561E+03 -2.65531E+03  1.53860E+03 -3.18479E+03  6.58577E+03 -3.70519E+02
  4.55476E+03  4.34291E+03  1.19309E+03  8.23540E+03 -5.36358E+03  8.25695E+03 -9.92028E+03  1.87446E+03
 -6.50451E+03 -5.75770E+03  9.83638E+02 -9.28094E+03  5.91118E+03 -3.58067E+03  4.40766E+03  1.62516E+03
  1.68892E+03  5.39164E+03 -6.57724E+03  7.18971E+03 -7.59379E+03  2.51352E+03 -7.10054E+03 -1.97170E+03
 -3.74652E+03 -9.50233E+03  1.95727E+03 -1.14808E+04  9.08723E+03 -7.15583E+03  1.03391E+04  2.10690E+03
  6.01516E+03  7.60473E+03 -4.36994E+02  1.00388E+04 -7.62104E+03  6.16555E+03 -8.50379E+03 -1.49074E+03
 -7.47556E+03 -7.33546E+03 -1.77235E+03 -7.52333E+03  3.40524E+03 -5.77540E+03  4.93817E+03 -3.37213E+03
  2.98246E+03  1.13552E+03  7.78839E+01 -1.73654E+02  1.94467E+02 -2.04089E+03  7.18522E+02 -3.06510E+03
  6.60121E+03 -2.40525E+03  9.50045E+03  1.25054E+03  9.42920E+03  6.73648E+03  5.52659E+03  1.33624E+04
 -3.51771E+03  1.30889E+04 -1.17370E+04  1.01637E+04 -1.56189E+04  6.14958E+02 -1.16118E+04 -4.20526E+03
 -5.13188E+03 -1.06520E+04 -6.58553E+02 -8.89336E+03  2.95084E+03 -4.62753E+03  4.86487E+03 -2.62317E+03
  2.41890E+03 -2.53526E+03  1.49145E+03 -2.24522E+03  4.58352E+03 -3.11111E+03  5.64332E+03  2.74715E+02
  6.69946E+03  1.64225E+03  2.97744E+03  5.67874E+03 -9.15412E+02  5.70789E+03 -7.60607E+03  5.64629E+03
 -7.89924E+03 -2.43050E+03 -4.23060E+03 -6.81144E+03  1.59962E+03 -7.59763E+03  4.84181E+03 -8.51489E+03
  9.08957E+03 -4.74692E+03  1.09277E+04  8.34487E+02  8.98544E+03  8.06880E+03  1.52532E+03  9.32150E+03
 -3.80850E+03  8.86563E+03 -6.03125E+03  2.74756E+03 -3.34902E+03 -1.20215E+03 -8.51890E+02 -2.37403E+03
 -6.31009E+02 -5.54169E+02 -1.49360E+03  2.37870E+03 -3.40737E+03  1.66606E+03 -5.53385E+03 -1.13940E+03
 -3.29009E+03 -5.67747E+03  1.60205E+02 -8.51664E+03  5.24713E+03 -7.58550E+03  7.43916E+03 -2.32191E+03
  7.53792E+03  3.89287E+03  3.08852E+03  5.27701E+03 -1.33267E+03  8.03518E+03 -4.47867E+03  4.65668E+03
 -8.08010E+03 -6.10083E+02 -6.02492E+03 -5.20849E+03 -6.66958E+02 -7.32345E+03  3.57745E+03 -3.05895E+03
  3.79193E+03 -1.36739E+03  3.28831E+03  7.13203E+02  6.46111E+02  2.37720E+03  1.35612E+03  5.97479E+02
  2.91919E+03 -8.58206E+01  1.35569E+03  1.12777E+03  2.90944E+03  4.71787E+03  1.65323E+03  3.52913E+03
 -2.56382E+03  4.69019E+03 -5.31248E+03  5.57202E+03 -6.04783E+03  2.08007E+03 -8.02923E+03 -2.02545E+03
 -2.67347E+03 -7.45985E+03  8.34475E+02 -9.12806E+03  4.92284E+03 -4.93824E+03  6.34144E+03 -1.90490E+03
  5.14218E+03  2.62805E+03  1.07962E+02  4.28515E+03 -1.18450E+03  3.03336E+03 -2.50208E+03  8.71205E+02
 -1.61115E+03 -2.72301E+03  1.66345E+03 -3.93908E+03  3.08069E+03 -1.88557E+03  2.59780E+03  1.84817E+03
  2.17059E+03  2.62708E+00  5.76719E+02  4.42297E+02 -4.83178E+02  6.12860E+02  2.53917E+03  5.33897E+01
  1.28436E+03 -8.97521E+02  5.45602E+03  1.47578E+03  6.73236E+02  4.21192E+03 -1.47120E+03  6.24498E+03
 -3.32223E+03  2.80089E+03 -4.57994E+03  1.17125E+03 -3.32193E+03 -9.80091E+02 -5.91735E+02 -2.81398E+03
  6.31878E+02 -2.73887E+03  2.31324E+03  9.85881E+01  1.27231E+03  1.13857E+03 -1.02844E+03  1.50444E+03
 -1.20504E+03  1.25428E+03 -2.17141E+03 -1.65160E+03 -1.20115E+03 -5.88341E+03  1.19764E+03 -3.24968E+03
  2.07643E+03 -2.68950E+03  2.35198E+03  1.08962E+03  1.21614E+03  3.73543E+02  8.61740E+02  3.15598E+03
 -2.27855E+03 -5.17662E+02 -2.46980E+03 -4.54163E+01  1.70966E+03 -8.87585E+02  3.10075E+03 -2.15951E+03
  3.00160E+03 -2.44862E+01  3.92099E+03  1.13235E+03  2.04907E+03  3.55417E+03 -1.00557E+03  4.77906E+03
 -2.82463E+03  1.23542E+03 -2.90350E+03  2.94285E+02 -3.20169E+03 -2.69208E+03  1.57000E+03 -1.95042E+03
  2.87207E+03  2.47653E+02  1.76196E+03  2.60498E+02 -8.54432E+01  2.56605E+03 -5.42109E+00  1.73011E+03
 -3.58133E+02  5.57368E+02 -9.53283E+02 -1.78517E+02 -1.92549E+03  1.74292E+03 -6.30339E+02  8.18523E+02
 -6.44787E+02  2.68965E+03 -2.88346E+03  3.02503E+02 -3.33159E+03 -2.35894E+02 -4.64190E+03 -2.34438E+03
 -2.22873E+03 -4.19383E+03  9.84929E+02 -5.18103E+03  3.31662E+03 -5.14216E+03  5.52222E+03 -1.57035E+03
  4.77295E+03  1.01589E+03  2.45695E+03  2.65400E+03 -4.35343E+02  2.98350E+03 -1.83622E+03  2.01041E+03
 -1.29745E+03 -6.56167E+01 -1.80011E+03 -1.22892E+03 -1.90858E+02 -3.31544E+02 -1.25349E+02 -6.92426E+02
 -1.23671E+03 -1.52293E+02 -9.16285E+02 -1.28978E+03  2.42327E+02  1.88163E+02 -1.06899E+03 -1.47063E+03
  2.32522E+03 -1.37782E+03  3.54920E+02  1.14216E+03  2.25681E+03  8.77757E+02  4.48436E+01  2.55941E+03
 -1.41809E+03  3.93138E+03 -3.49593E+03  2.54273E+03 -3.64451E+03 -6.31567E+02 -2.16017E+03 -1.27804E+03
 -2.15155E+03 -2.14398E+03  1.40750E+03 -3.69690E+03  2.68520E+03 -7.54244E+02  1.57676E+03  1.56912E+02
  1.33811E+03  8.51770E+02 -5.05568E+02  2.17803E+03 -6.27901E+02  8.52801E+02  3.32751E+02 -5.93486E+02
  1.15922E+03 -1.92878E+02  9.01122E+02  6.54476E+02  1.33368E+03  1.54651E+03  1.16576E+03  1.63627E+03
 -2.53087E+03  1.44111E+03 -1.62950E+03 -1.69455E+01 -1.87997E+03 -1.57012E+03 -5.12074E+02 -2.98664E+03
  9.39233E+02 -1.73621E+03  1.07950E+03 -8.45153E+02  2.46214E+03  2.21931E+02  1.50197E+03  2.21103E+03
  1.55108E+03  8.28443E+02 -5.80649E+02  2.69622E+03 -1.41243E+03  1.47470E+03 -1.10576E+03  3.64346E+02
 -7.10844E+02  5.01119E+02 -7.68712E+02  6.42965E+02 -6.73521E+02  7.66238E+02 -8.58556E+02 -2.19160E+03
 -2.25539E+03 -1.10791E+03 -1.24533E+03 -1.20845E+03  6.84009E+02 -2.64349E+03  1.41468E+03 -8.68101E+01
  1.69524E+03  5.64053E+02  1.19513E+03  9.06173E+02  1.40221E+02  2.19309E+03 -1.63469E+03  1.15809E+03
