 $NMID ID='MM_0lb_SNR200_20hz_g60_2.RAW', FMTDAT='(8E13.5)'
 TRAMP=1., VOLUME=1. $END
  3.10463E+05  4.01564E+02  3.37348E+05  2.50531E+05  8.42541E+04  3.36701E+05 -1.32371E+05  2.51256E+05
 -1.88977E+05  8.29686E+04 -1.11430E+05 -3.17018E+04  6.67833E+02 -4.91382E+04  5.35504E+04  2.53273E+02
  3.56924E+04  5.31169E+04 -1.77413E+04  7.50808E+04 -6.04609E+04  6.41131E+04 -8.22583E+04  3.20481E+04
 -8.14444E+04 -1.16634E+04 -5.66692E+04 -5.15129E+04 -1.55973E+04 -6.92579E+04  2.68617E+04 -4.53829E+04
  4.06106E+04  3.58304E+03  1.60461E+04  4.71093E+04 -3.36112E+04  4.58331E+04 -6.59991E+04 -1.23864E+01
 -5.30674E+04 -5.50870E+04 -6.60878E+03 -7.49291E+04  3.26628E+04 -5.38682E+04  4.82269E+04 -1.57866E+04
  4.18953E+04  1.11185E+04  3.09483E+04  2.55520E+04  1.56906E+04  2.90102E+04 -4.32318E+03  2.67272E+04
 -2.15716E+04  1.09042E+04 -1.88219E+04 -5.08825E+03  3.39319E+03 -7.30688E+03  2.17308E+04  1.28960E+04
  7.36583E+03  3.35691E+04 -3.18510E+04  3.44030E+04 -6.13291E+04  1.98718E+03 -5.48184E+04 -4.22241E+04
 -1.30529E+04 -6.11164E+04  3.86398E+04 -4.44560E+04  5.65816E+04 -2.82087E+03  3.20374E+04  3.14614E+04
 -6.16286E+03  3.51034E+04 -2.90175E+04  1.48251E+04 -2.83160E+04 -5.29935E+03 -1.52694E+04 -1.02791E+04
 -9.00201E+03 -1.23553E+04 -9.91972E+02 -1.70146E+04  7.60184E+03 -2.34733E+04  1.64349E+04 -1.34240E+04
  1.15691E+04  4.38957E+03 -6.59275E+03  1.36029E+04 -2.02986E+04 -4.00331E+03 -7.32386E+03 -3.13476E+04
  2.15400E+04 -4.16938E+04  4.61973E+04 -1.90242E+04  4.27253E+04  1.83302E+04  1.51294E+04  4.30072E+04
 -1.50777E+04  3.16106E+04 -2.38561E+04  9.10704E+02 -8.39324E+03 -2.68542E+04  2.10637E+04 -3.22403E+04
  3.89476E+04 -8.24763E+03  3.21724E+04  2.36979E+04  1.67431E+04  4.37286E+04 -7.67993E+03  4.59787E+04
 -2.95862E+04  3.11644E+04 -3.76135E+04  7.66001E+03 -3.90119E+04 -1.49641E+04 -2.17386E+04 -3.57606E+04
  7.09689E+03 -3.44923E+04  2.89853E+04 -1.22376E+04  2.65428E+04  1.09711E+04  1.94279E+03  1.80230E+04
 -1.27838E+04  7.51489E+03 -9.46517E+03 -8.23207E+03  5.46398E+03 -1.14610E+04  1.73187E+04  5.83186E+03
  1.22971E+04  2.23114E+04 -5.99255E+03  2.51654E+04 -2.11919E+04  8.84512E+03 -2.54247E+04 -5.67411E+03
 -1.72966E+04 -1.66273E+04 -5.62111E+03 -1.60777E+04  3.20611E+03 -1.57869E+04  1.24193E+04 -1.46354E+04
  2.16611E+04 -1.11072E+04  2.85970E+04  1.02336E+03  2.15570E+04  1.74285E+04  3.38944E+03  3.27551E+04
 -1.76797E+04  2.66800E+04 -2.65158E+04  1.01032E+04 -2.02374E+04 -1.04978E+04 -4.41787E+03 -1.36350E+04
  2.10939E+03 -3.24162E+03 -3.08397E+03  5.83792E+03 -1.36931E+04  5.19722E+03 -1.36222E+04 -5.59575E+03
 -9.06562E+03 -1.62744E+04  4.09138E+03 -1.98653E+04  1.26233E+04 -1.50463E+04  1.53723E+04 -2.35202E+03
  9.48799E+03  9.90169E+03 -7.39142E+02  1.70207E+04 -1.06722E+04  9.21202E+03 -1.64499E+04 -4.43051E+03
 -1.14648E+04 -1.53014E+04 -1.81476E+03 -2.00786E+04  9.47712E+03 -1.61146E+04  1.69830E+04 -6.92330E+03
  1.47020E+04  1.01110E+03  1.05179E+04  4.93856E+03  5.90750E+03  5.28799E+02  8.24727E+03 -2.25388E+03
  1.39870E+04  3.30843E+03  1.57858E+04  1.29507E+04  9.27788E+03  2.46155E+04 -3.24296E+03  2.71190E+04
 -1.41918E+04  1.93274E+04 -2.48549E+04  9.85169E+03 -2.56805E+04 -2.58295E+03 -2.20073E+04 -1.52166E+04
 -1.02171E+04 -1.97766E+04  7.28979E+03 -1.90279E+04  1.65450E+04 -1.27715E+04  1.58874E+04  2.92358E+03
  5.95437E+03  1.13153E+04 -8.11364E+03  1.02176E+04 -1.46384E+04  1.83281E+03 -1.12070E+04 -7.21173E+03
  1.26634E+02 -1.15926E+04  5.75269E+03 -8.37197E+03  7.78992E+03 -2.71990E+03  1.41593E+03  4.97794E+03
 -5.09082E+03  1.46242E+03 -2.92125E+03 -4.34953E+03  5.13635E+02 -1.03078E+04  7.22212E+03 -8.75464E+03
  1.20254E+04 -5.43835E+03  1.12795E+04  2.33821E+03  1.07467E+04  9.58290E+03  4.77842E+03  1.33668E+04
 -1.91873E+03  1.56418E+04 -1.02220E+04  1.07159E+04 -1.11887E+04  3.12823E+03 -8.85383E+03 -1.18723E+03
 -3.55660E+03 -2.81599E+03 -8.88363E+02  2.20124E+03 -2.27628E+03  1.80516E+03 -3.02608E+03  3.60124E+03
 -7.83791E+03 -2.88420E+02 -8.49921E+03 -6.88521E+03 -3.81824E+03 -1.10673E+04  3.80320E+03 -8.03187E+03
  5.84601E+03 -3.26106E+03  5.58637E+03  1.27581E+03 -4.07325E+02  2.06931E+03 -3.60228E+03 -9.07462E+02
 -4.19131E+03 -5.64314E+03 -3.93355E+01 -6.48645E+03  3.34710E+03 -8.27595E+03  9.77255E+03 -3.11876E+03
  1.08616E+04 -4.16713E+02  8.84691E+03  6.27557E+03  1.51112E+03  7.79177E+03 -5.34145E+03  7.76903E+03
 -6.35123E+03  2.56461E+03 -3.08855E+03 -1.61266E+03  1.83520E+03 -1.54655E+03  4.55864E+03 -8.29445E+01
  5.11541E+03  3.41645E+03  1.19745E+03  6.85625E+03 -4.41509E+03  6.91950E+03 -7.57147E+03  1.62783E+03
 -5.29636E+03 -3.28400E+03  6.31589E+02 -6.83772E+03  4.50604E+03 -4.22710E+03  3.38139E+03  1.92120E+01
  2.83792E-02  2.43212E+03 -3.97549E+03  5.39105E+03 -5.23275E+03  2.89232E+03 -3.65257E+03 -2.15478E+03
 -2.04247E+03 -5.00631E+03  9.67548E+02 -6.38541E+03  6.21288E+03 -4.59233E+03  5.84452E+03  9.46487E+02
  5.02124E+03  4.93773E+03  4.33049E+02  6.50603E+03 -5.34150E+03  4.18191E+03 -4.74115E+03 -2.75605E+02
 -4.75405E+03 -4.31094E+03 -2.39217E+03 -4.44572E+03  1.60694E+03 -3.70560E+03  1.41678E+03 -3.04576E+03
  3.59349E+03  2.77025E+02 -4.09406E+02  1.50637E+03 -4.49095E+02  1.44076E+02 -3.11848E+02 -1.39027E+03
  3.27324E+03 -5.30305E+02  5.56199E+03  6.19892E+02  5.92896E+03  3.25495E+03  4.73334E+03  5.84664E+03
 -6.18786E+02  7.85399E+03 -6.97513E+03  5.74730E+03 -9.25253E+03  9.46048E+02 -6.98081E+03 -1.86827E+03
 -4.24147E+03 -6.72249E+03  1.51458E+02 -3.70667E+03  1.15553E+03 -2.75776E+03  3.24091E+02 -2.50761E+03
  1.25206E+03 -1.81295E+03  1.74665E+03 -1.90717E+03  3.79838E+03 -8.06294E+02  3.49354E+03 -2.58969E+02
  4.33646E+03  1.77724E+03  3.01827E+02  2.77909E+03 -1.37094E+03  1.41631E+03 -3.56088E+03  2.94974E+03
 -4.76532E+03 -1.41103E+03 -1.73023E+03 -3.20509E+03  7.20006E+02 -4.43794E+03  3.13987E+03 -4.65058E+03
  3.93888E+03 -2.18766E+03  5.49422E+03  3.77914E+02  4.55399E+03  3.05001E+03  8.97712E+02  4.42782E+03
 -9.78528E+02  4.85319E+03 -2.15852E+03  6.30626E+02 -1.51339E+03 -1.62171E+03 -1.08000E+03 -7.66871E+02
 -4.12609E+02  6.87820E+02 -1.01704E+03  1.25475E+03 -2.12797E+03  1.42151E+03 -3.21432E+03 -3.67001E+02
 -1.20348E+03 -4.13708E+03  1.10191E+03 -4.10442E+03  2.22820E+03 -3.61542E+03  3.35718E+03 -1.55811E+03
  3.49986E+03  2.30361E+03  2.15933E+03  3.11649E+03 -3.01934E+02  3.86318E+03 -2.12747E+03  3.16809E+03
 -2.94919E+03  1.07022E+03 -3.77816E+03 -3.37888E+03 -1.00255E+03 -2.56058E+03  1.14555E+03 -2.20589E+03
  2.49426E+03 -1.73358E+03  9.05166E+02 -2.94433E+02 -4.00770E+02  2.71677E+02  1.44928E+03  1.18390E+03
  1.20877E+03 -6.36469E+02  1.09013E+03  1.18754E+03  1.76053E+03  1.63251E+03  5.82196E+02  1.91420E+03
 -7.98174E+02  2.40646E+03 -2.29850E+03  4.12467E+03 -2.42247E+03  3.68290E+01 -3.13235E+03  1.51195E+02
 -6.51621E+02 -2.07002E+03  1.46871E+03 -4.33147E+03  9.07058E+02 -2.66976E+03  2.20402E+03 -4.56393E+02
  1.60477E+03  2.12967E+03  3.92962E+02  2.05864E+03 -7.07922E+02  7.89354E+02 -4.00240E+02  3.66974E+02
 -6.03245E+02 -1.30080E+03  1.29658E+03 -1.03090E+03  1.44817E+03 -1.07518E+03  1.31794E+03  4.11906E+02
  3.51766E+02 -2.42327E+02  9.51229E+02 -7.47245E+02 -2.42067E+02  3.19375E+02  2.46410E+03 -2.12190E+02
 -4.17150E+02  7.37607E+02  2.21373E+03  7.02580E+02  1.26600E+02  1.48251E+03  6.83150E+02  3.02488E+03
 -1.09380E+03  3.35271E+02 -3.28252E+02  6.41324E+02 -2.27133E+03 -9.20424E+02  4.93704E+02 -9.59990E+02
 -2.67031E+02 -1.33124E+03 -1.05375E+02 -6.68408E+02  3.41643E+02  6.28542E+02 -1.08448E+03 -1.08226E+02
 -1.84183E+03  1.42355E+02 -9.43516E+02 -1.66068E+03 -1.05714E+03 -1.76637E+03 -1.08975E+03 -2.05447E+03
  8.81451E+01 -3.57327E+02  1.24777E+03  1.77849E+01  8.28828E+02 -8.25874E+02  8.49970E+01  4.69701E+02
 -5.18674E+02  1.34093E+03 -1.05674E+02 -7.36411E+01  6.32039E+02 -1.42827E+03  1.17993E+03 -9.98289E+02
  2.91917E+02  9.81743E+02  2.15693E+03  5.07042E+01  8.08103E+02  7.09637E+02  2.77779E+02  1.22093E+03
 -1.68947E+03  3.11012E+02 -3.31544E+02 -1.58414E+02 -1.28239E+03 -5.45801E+02 -1.51660E+02 -5.18442E+01
  5.17422E+02 -9.85799E+01  2.37784E+02  9.01707E+02  5.87545E+01  1.23379E+03 -8.04010E+02  1.15105E+03
 -3.46021E+02  9.07073E+02  1.05700E+02 -3.11870E+02 -1.59721E+02  5.59580E+01 -1.27184E+03  2.60327E+02
 -2.07465E+02  8.77136E+02 -1.19789E+03  3.59980E+00 -1.05234E+03  4.61248E+02 -1.87767E+03  6.03832E+02
 -7.28530E+01 -1.87582E+03  2.01018E+02 -2.70768E+03  6.05009E+02 -2.24375E+03  2.72873E+03 -1.98014E+03
  1.73248E+03 -4.94167E+02  1.35691E+03  1.86921E+03 -2.85128E+02  3.04093E+02 -8.55517E+02  1.01211E+03
 -1.69547E+03  8.65201E+02 -2.59287E+02  4.00811E+02 -6.34402E+02 -3.69158E+01 -1.34592E+03 -9.60966E+02
 -1.19756E+03  2.60595E+02 -5.69868E+02  1.46474E+03  4.57582E+02 -1.42686E+00  2.15847E+01 -5.43874E+00
  8.91344E+02 -3.87625E+02  1.24059E+02  3.90668E+02  7.68577E+02  5.88390E+02  7.02682E+02  8.90071E+02
 -1.72949E+03  1.51814E+03 -1.28135E+03  6.06024E+02 -1.29846E+03 -7.10870E+02 -2.27686E+01 -8.84999E+02
 -7.37536E+02 -1.17389E+03  2.35566E+02 -6.16163E+02 -6.70155E+01 -7.46446E+01 -9.31700E+01 -2.79976E+02
  1.72410E+03 -9.76554E+02  7.26039E+01  1.32969E+03  5.81301E+00  3.02959E+02 -4.87881E+02 -1.03181E+03
 -2.23715E+02 -1.26144E+02 -2.74593E+02  4.90441E+02  1.77394E+02 -8.80637E+01 -1.77444E+02 -1.25270E+03
 -1.02171E+03  8.06393E+02  5.89345E+02  1.06248E+03  9.38311E+01 -5.21520E+02 -2.49669E+02 -3.74415E+02
 -6.98064E+02 -1.31778E+03 -3.63561E+02  6.67986E+02  3.99473E+02 -5.80313E+02 -3.36439E+02  3.17083E+02
  5.84660E+02 -3.05992E+02 -2.88575E+02  6.55646E+02  1.01768E+03 -1.34208E+02 -5.86596E+02 -3.62040E+02
 -3.98415E+02 -4.68887E+02 -5.95138E+02  6.98810E+02 -3.15357E+02 -1.43070E+02  4.88100E+02  1.83421E+02
 -1.10851E+03 -3.52809E+02 -3.04052E+02 -1.07118E+02 -2.21390E+02 -2.37924E+03  4.75761E+02 -3.09126E+02
  6.02446E+02  6.12704E+02 -7.29291E+02  7.20751E+01  1.51865E+02  1.24205E+03 -5.54748E+02  4.00347E+02
