 $NMID ID='MM_0lb_SNR200_7hz_g60_2.RAW', FMTDAT='(8E13.5)'
 TRAMP=1., VOLUME=1. $END
  3.09523E+05  1.23179E+03  3.38139E+05  2.48844E+05  8.41185E+04  3.37318E+05 -1.30769E+05  2.52326E+05
 -1.91306E+05  8.44730E+04 -1.13972E+05 -3.27064E+04 -2.23902E+03 -5.09775E+04  5.25802E+04  1.66512E+02
  3.56070E+04  5.47914E+04 -1.75297E+04  7.66719E+04 -6.14844E+04  6.49435E+04 -8.51629E+04  3.33582E+04
 -8.48515E+04 -1.26911E+04 -5.70984E+04 -5.35736E+04 -1.44379E+04 -7.17132E+04  2.98064E+04 -4.84021E+04
  4.33227E+04  2.26334E+03  1.70727E+04  4.87989E+04 -3.58706E+04  5.04169E+04 -6.96601E+04  6.94332E+02
 -5.61067E+04 -5.72399E+04 -9.08210E+03 -7.97419E+04  3.71190E+04 -5.87347E+04  4.96388E+04 -1.95442E+04
  4.67206E+04  1.30780E+04  3.29608E+04  2.60052E+04  1.44944E+04  3.04915E+04 -3.44833E+03  2.68496E+04
 -2.44901E+04  1.15266E+04 -1.53933E+04 -6.00618E+03  8.48179E+03 -6.88328E+03  2.42324E+04  1.62352E+04
  7.21310E+03  4.03504E+04 -3.60409E+04  3.84179E+04 -6.63470E+04  5.55258E+00 -5.92161E+04 -4.55464E+04
 -1.47047E+04 -6.74310E+04  4.27871E+04 -4.93558E+04  6.32529E+04 -2.66958E+03  4.08560E+04  3.70387E+04
 -4.14236E+03  4.02840E+04 -3.25346E+04  2.23234E+04 -3.41360E+04 -3.75506E+03 -2.12792E+04 -1.37448E+04
 -9.52869E+03 -1.71733E+04 -4.01701E+02 -2.10388E+04  1.14325E+04 -2.33888E+04  1.49836E+04 -1.04441E+04
  9.22835E+03  7.36106E+03 -1.22564E+04  1.28001E+04 -2.60806E+04 -7.44020E+03 -1.10156E+04 -4.02490E+04
  2.56693E+04 -5.01816E+04  5.51317E+04 -2.02889E+04  5.13133E+04  2.14158E+04  1.61192E+04  4.96906E+04
 -1.59348E+04  3.87113E+04 -2.93169E+04  3.64512E+03 -1.42591E+04 -3.05205E+04  2.10438E+04 -3.77477E+04
  4.62974E+04 -1.27975E+04  4.35136E+04  2.66909E+04  2.12006E+04  5.30188E+04 -7.51358E+03  5.89164E+04
 -3.65206E+04  4.05843E+04 -4.94319E+04  1.39093E+04 -4.96976E+04 -1.79438E+04 -2.76714E+04 -4.34049E+04
  7.21685E+03 -4.61164E+04  3.54650E+04 -1.81829E+04  3.42939E+04  1.13455E+04  6.35803E+03  2.19260E+04
 -1.27166E+04  9.59682E+03 -1.19983E+04 -8.21617E+03  7.14868E+03 -1.29241E+04  2.02548E+04  4.40217E+03
  1.68970E+04  2.34449E+04 -3.60687E+03  2.85615E+04 -2.52599E+04  1.41963E+04 -3.55542E+04 -6.72540E+02
 -2.87210E+04 -1.90441E+04 -1.33745E+04 -2.77547E+04  4.67000E+03 -2.84859E+04  2.14152E+04 -2.65014E+04
  3.56122E+04 -1.44573E+04  4.13093E+04  6.16185E+03  2.87052E+04  2.90213E+04  4.52858E+03  4.30579E+04
 -2.08131E+04  3.61476E+04 -3.12162E+04  1.33507E+04 -2.29459E+04 -1.15788E+04 -3.33875E+03 -1.30867E+04
 -1.14595E+03 -2.29682E+03 -1.05393E+04  9.84582E+03 -2.32116E+04  6.19711E+03 -2.26517E+04 -1.09315E+04
 -1.21452E+04 -2.69836E+04  6.24028E+03 -3.10297E+04  1.99106E+04 -2.29140E+04  2.57903E+04 -2.72449E+03
  1.52939E+04  1.78260E+04 -2.12614E+03  2.81466E+04 -1.77553E+04  1.49363E+04 -2.75718E+04 -5.93719E+03
 -1.91742E+04 -2.27083E+04 -3.86842E+03 -3.14737E+04  1.28435E+04 -2.67954E+04  2.49405E+04 -1.52794E+04
  2.51887E+04 -1.58649E+03  1.74034E+04  7.71168E+03  9.25292E+03  1.03043E+03  1.41841E+04 -2.80092E+03
  2.50758E+04  2.01598E+03  2.89573E+04  1.89233E+04  1.93940E+04  4.11075E+04 -4.34818E+03  4.91727E+04
 -2.92083E+04  4.29223E+04 -4.79616E+04  2.24277E+04 -5.23886E+04 -4.11364E+03 -4.17038E+04 -2.97721E+04
 -1.65621E+04 -4.41184E+04  1.48274E+04 -3.66492E+04  3.10978E+04 -1.59580E+04  2.79432E+04  9.82024E+03
  1.06372E+04  2.20246E+04 -1.54874E+04  1.87701E+04 -2.23235E+04  2.34020E+03 -1.68131E+04 -1.44613E+04
 -1.63995E+03 -2.24172E+04  1.27721E+04 -1.55156E+04  1.46228E+04 -2.73778E+03  2.82695E+03  1.27089E+04
 -9.19133E+03  3.40173E+03 -1.16830E+04 -6.78381E+03 -2.22025E+03 -2.20758E+04  1.50329E+04 -2.40582E+04
  2.78132E+04 -1.46548E+04  3.26585E+04  4.43835E+03  2.80305E+04  2.21628E+04  1.24623E+04  3.61116E+04
 -6.93674E+03  3.90916E+04 -2.58222E+04  2.48727E+04 -2.73998E+04  4.62337E+03 -2.01437E+04 -6.37611E+03
 -6.92024E+03 -8.34360E+03  1.25996E+03 -3.69061E+02 -2.28985E+03  4.81546E+03 -6.69609E+03  6.55800E+03
 -1.74281E+04 -9.65054E+02 -1.54001E+04 -1.34073E+04 -7.51046E+03 -2.04050E+04  8.04349E+03 -1.87031E+04
  1.59574E+04 -9.05588E+03  1.01731E+04  5.70130E+03 -1.02554E+03  5.74221E+03 -8.89049E+03 -2.86558E+03
 -6.93137E+03 -1.23196E+04 -1.23249E+03 -1.81667E+04  1.05226E+04 -1.90340E+04  2.26439E+04 -1.11547E+04
  2.87452E+04  2.72856E+03  2.17777E+04  1.84287E+04  4.53321E+03  2.45342E+04 -8.95981E+03  1.76871E+04
 -1.55723E+04  5.32791E+03 -7.68238E+03 -4.55395E+03  5.35657E+03 -6.66038E+03  8.12635E+03  9.09209E+02
  1.02334E+04  1.08672E+04  9.60444E+02  1.66687E+04 -1.05969E+04  1.42447E+04 -1.96768E+04  1.87156E+03
 -1.37496E+04 -1.05011E+04 -1.73763E+02 -1.56368E+04  1.00256E+04 -8.08884E+03  1.15078E+04  3.20077E+03
  3.58796E+03  1.18935E+04 -1.07816E+04  1.44597E+04 -1.66018E+04  7.86401E+03 -1.81893E+04 -7.66359E+03
 -1.04676E+04 -2.12063E+04  5.38894E+03 -2.44544E+04  1.89442E+04 -1.14607E+04  2.15913E+04  2.46021E+03
  1.34600E+04  1.53675E+04 -2.07836E+03  2.07562E+04 -1.46930E+04  1.25756E+04 -1.58067E+04 -7.76323E+02
 -1.15571E+04 -1.32995E+04 -3.44745E+03 -1.64189E+04  8.66699E+03 -1.15839E+04  8.41420E+03 -4.61439E+03
  4.61253E+03  1.55329E+03 -1.71493E+03  4.36457E+03 -2.23582E+03 -4.23228E+03  1.82166E+03 -9.20680E+03
  1.50838E+04 -5.58904E+03  2.11386E+04  3.30005E+03  2.03897E+04  1.45035E+04  1.33514E+04  2.59192E+04
 -7.42749E+03  3.08993E+04 -2.64519E+04  2.24032E+04 -3.30721E+04  5.09244E+03 -2.47154E+04 -1.15954E+04
 -1.38685E+04 -2.14839E+04 -6.40571E+02 -1.88930E+04  6.57275E+03 -1.02448E+04  7.19429E+03 -6.60125E+03
  5.02028E+03 -2.02291E+03  6.05516E+03 -3.21824E+03  8.47779E+03 -4.75380E+03  9.40902E+03 -2.42035E+03
  1.44704E+04  2.96060E+03  7.51241E+03  1.22774E+04 -3.16870E+03  1.58326E+04 -1.45012E+04  1.21164E+04
 -1.96287E+04 -1.36256E+03 -1.28540E+04 -1.27484E+04 -1.15344E+03 -2.17269E+04  1.02427E+04 -2.07890E+04
  2.19116E+04 -8.57607E+03  2.50244E+04  3.72565E+03  1.99104E+04  1.85012E+04  3.53879E+03  2.36482E+04
 -1.06401E+04  1.96928E+04 -1.33965E+04  5.02344E+03 -8.07410E+03 -3.07143E+03 -5.18074E+03 -3.54670E+03
 -1.17350E+03 -8.55988E+02 -2.33454E+03  2.52012E+03 -8.06563E+03  3.88171E+03 -1.24537E+04 -1.67659E+03
 -1.15089E+04 -1.27663E+04 -1.32326E+02 -1.97053E+04  1.26027E+04 -1.77359E+04  2.29953E+04 -4.78561E+03
  2.12264E+04  1.00782E+04  1.05147E+04  1.81595E+04 -3.29795E+03  1.98217E+04 -1.41706E+04  1.35710E+04
 -1.81038E+04  7.68839E+02 -1.47303E+04 -1.21970E+04 -2.13037E+03 -1.64427E+04  9.13659E+03 -1.32239E+04
  1.32872E+04 -3.61991E+03  8.76106E+03  1.88137E+03  3.49093E+03  4.32541E+03  2.02861E+03  2.88245E+03
  3.56291E+03  5.28866E+02  4.47831E+03  1.99719E+03  6.12819E+03  6.04150E+03  4.90442E+03  1.01359E+04
 -3.06467E+03  1.65283E+04 -1.26201E+04  1.56364E+04 -2.04579E+04  4.07461E+03 -2.30415E+04 -9.00390E+03
 -1.13594E+04 -2.24742E+04  2.53860E+03 -2.18904E+04  1.19849E+04 -1.54915E+04  1.57057E+04 -5.03792E+03
  1.34100E+04  9.90020E+03  3.47956E+03  9.93834E+03 -5.04174E+03  8.73791E+03 -8.27586E+03 -1.34771E+03
 -4.36603E+03 -1.01694E+04  4.18893E+03 -9.45483E+03  8.40115E+03 -3.43586E+03  8.66443E+03  2.50059E+03
  4.30374E+03  4.42409E+03  3.08706E+03  4.92600E+03 -1.41892E+03  4.54606E+03  5.86409E+02  5.34362E+02
  4.29769E+03 -2.08604E+02  1.05930E+04  5.09111E+03  5.30686E+03  1.14359E+04 -9.61440E+02  1.75937E+04
 -9.07033E+03  1.17985E+04 -1.31226E+04  3.38957E+03 -1.35340E+04 -6.08348E+03 -6.00928E+03 -9.32055E+03
  1.21988E+03 -7.11733E+03  8.63339E+03 -3.03374E+03  4.34853E+03  5.55765E+03 -6.22307E+02  7.80024E+03
 -9.09017E+03  4.30336E+03 -1.11945E+04 -5.93562E+03 -6.07973E+03 -8.72705E+03  2.58149E+03 -1.29870E+04
  6.15373E+03 -8.29490E+03  1.09364E+04 -1.25788E+03  7.67287E+03  2.55195E+03  9.25316E+02  5.92119E+03
 -4.14697E+03  3.85084E+03 -4.56632E+03 -3.67826E+03  2.38782E+03 -7.82997E+03  1.28519E+04 -6.64822E+03
  1.40978E+04  7.14005E+02  1.24835E+04  8.38661E+03  4.41023E+03  1.34021E+04 -4.93136E+03  1.39831E+04
 -1.32197E+04  7.28006E+03 -9.70257E+03 -3.58305E+03 -5.42520E+03 -1.10305E+04  2.77867E+03 -8.77687E+03
  9.66227E+03 -4.58771E+03  9.24998E+03  2.75574E+03  1.83108E+03  8.10604E+03 -1.81891E+03  8.04737E+03
 -3.45448E+03  4.42529E+03 -3.98449E+03  1.15470E+03 -1.62336E+03  2.58191E+03 -1.56555E+03  2.20036E+03
 -5.26412E+03  4.21391E+03 -1.14206E+04  4.55269E+03 -1.47180E+04  2.09091E+01 -1.65027E+04 -1.05613E+04
 -8.12072E+03 -2.13062E+04  3.18019E+03 -2.44932E+04  1.47610E+04 -1.89568E+04  2.05373E+04 -7.01108E+03
  2.24791E+04  5.12205E+03  1.42106E+04  1.64212E+04  6.93021E+02  1.50766E+04 -5.52822E+03  1.17026E+04
 -8.81601E+03  4.27220E+03 -5.94294E+03 -1.90011E+03 -2.51097E+03 -3.56580E+03  1.74461E+02 -1.41661E+02
 -2.51641E+03 -5.20983E+02 -4.74951E+03 -5.22240E+02 -1.24368E+03 -2.51945E+03  3.10615E+03 -6.90870E+03
  6.82988E+03 -4.20537E+03  1.09497E+04 -4.28607E+02  1.06817E+04  9.23352E+03  1.96094E+03  1.50694E+04
 -7.51039E+03  1.84721E+04 -1.73007E+04  9.61998E+03 -1.93305E+04 -1.75535E+03 -1.26875E+04 -1.34259E+04
 -5.43851E+03 -1.69407E+04  2.26437E+03 -1.72406E+04  9.98931E+03 -9.89099E+03  1.23640E+04  8.84199E+01
  5.06676E+03  3.92049E+03 -2.27478E+02  2.88684E+03 -2.38252E+03 -9.69112E+02  3.54575E+02 -3.38764E+03
  5.32678E+03 -3.19672E+03  4.78146E+03  2.35061E+03  3.58573E+03  7.43388E+03 -5.29328E+02  1.00409E+04
 -6.33534E+03  5.86528E+03 -1.08721E+04  1.17349E+03 -1.08514E+04 -9.00112E+03 -1.77438E+03 -1.17659E+04
  5.88194E+03 -1.18577E+04  1.27942E+04 -2.55107E+03  1.29448E+04  3.21881E+03  6.99372E+03  8.55915E+03
  2.73882E+03  1.36033E+04 -3.86889E+03  7.85619E+03 -8.47463E+03  3.91139E+03 -6.62348E+03  1.48653E+02
 -1.98031E+03 -1.20379E+03 -1.84495E+03  1.28304E+03 -6.94006E+03  1.46433E+03 -9.54099E+03 -2.43982E+03
 -7.79649E+03 -7.42194E+03  4.27961E+02 -1.22462E+04  4.57662E+03 -1.09032E+04  9.24394E+03 -6.51290E+03
  1.18663E+04  2.32273E+03  5.94030E+03  6.58577E+03 -3.70977E+02  1.16054E+04 -8.72333E+03  8.06122E+03
