 $NMID ID='MM_0lb_SNR200_10hz_g45_27.RAW', FMTDAT='(8E13.5)'
 TRAMP=1., VOLUME=1. $END
  3.10945E+05 -1.20648E+03  3.38576E+05  2.48741E+05  8.33023E+04  3.37762E+05 -1.31304E+05  2.52756E+05
 -1.89243E+05  8.38170E+04 -1.11139E+05 -3.27197E+04  3.91946E+01 -5.18818E+04  5.53514E+04  1.56200E+02
  3.56576E+04  5.26397E+04 -1.66002E+04  7.58499E+04 -6.19245E+04  6.39006E+04 -8.40888E+04  3.49749E+04
 -8.16720E+04 -1.27634E+04 -5.90232E+04 -5.27582E+04 -1.49409E+04 -6.98530E+04  2.78390E+04 -4.62745E+04
  4.00613E+04  2.30634E+03  1.64814E+04  4.93651E+04 -3.62060E+04  4.72068E+04 -6.81128E+04 -1.11438E+03
 -5.54476E+04 -5.70355E+04 -8.00569E+03 -7.78231E+04  3.34914E+04 -5.59164E+04  4.90056E+04 -1.80262E+04
  4.53179E+04  1.01700E+04  3.22912E+04  2.58776E+04  1.60272E+04  3.17726E+04 -5.97950E+03  2.77861E+04
 -2.11841E+04  1.16647E+04 -1.77558E+04 -5.94240E+03  5.95411E+03 -6.96001E+03  2.18084E+04  1.28692E+04
  6.74418E+03  3.73980E+04 -3.34921E+04  3.41676E+04 -6.54439E+04  1.66481E+03 -5.74712E+04 -4.37444E+04
 -1.18923E+04 -6.55110E+04  4.18373E+04 -4.57064E+04  5.90275E+04 -1.21362E+03  3.55829E+04  3.35320E+04
 -5.02804E+03  3.82726E+04 -3.22538E+04  1.86131E+04 -3.19542E+04 -4.08601E+03 -1.74781E+04 -1.35362E+04
 -9.23852E+03 -1.44646E+04  9.47006E+02 -1.83438E+04  8.77625E+03 -2.33854E+04  1.36195E+04 -1.25851E+04
  1.12711E+04  6.13034E+03 -1.01565E+04  1.36127E+04 -2.28550E+04 -6.17618E+03 -8.41439E+03 -3.69935E+04
  2.54571E+04 -4.48919E+04  5.12472E+04 -2.11424E+04  4.72988E+04  2.07450E+04  1.60351E+04  4.65088E+04
 -1.80173E+04  3.50872E+04 -2.71366E+04  1.39393E+03 -1.08418E+04 -2.86393E+04  2.23532E+04 -3.59096E+04
  4.37539E+04 -1.08412E+04  3.85714E+04  2.46283E+04  1.97811E+04  5.06044E+04 -7.32487E+03  5.47398E+04
 -3.39109E+04  3.57825E+04 -4.61102E+04  1.02695E+04 -4.46767E+04 -1.68100E+04 -2.51511E+04 -4.20361E+04
  7.40153E+03 -3.99453E+04  3.57810E+04 -1.65741E+04  3.11599E+04  1.07095E+04  5.35880E+03  2.13179E+04
 -1.42253E+04  9.03149E+03 -1.10935E+04 -9.32527E+03  4.36622E+03 -1.27857E+04  1.84262E+04  5.71404E+03
  1.41744E+04  2.31127E+04 -6.04685E+03  2.70715E+04 -2.45630E+04  1.23943E+04 -2.86791E+04 -3.22522E+03
 -2.49389E+04 -1.94020E+04 -1.28510E+04 -2.12382E+04  4.87371E+03 -2.21006E+04  1.78490E+04 -2.17297E+04
  3.03552E+04 -1.27673E+04  3.55182E+04  4.89941E+03  2.51702E+04  2.21720E+04  4.95314E+03  3.96478E+04
 -1.88565E+04  3.33707E+04 -2.88977E+04  1.10042E+04 -2.13700E+04 -1.00287E+04 -3.74975E+03 -1.31206E+04
  1.60197E+03 -1.92219E+03 -7.44040E+03  7.87661E+03 -1.76070E+04  4.12135E+03 -1.96936E+04 -7.92934E+03
 -1.06577E+04 -2.22010E+04  4.14629E+03 -2.61253E+04  1.90721E+04 -1.94694E+04  2.23632E+04 -1.93293E+03
  1.43132E+04  1.48095E+04 -1.37878E+03  2.25402E+04 -1.59801E+04  1.28337E+04 -2.17905E+04 -5.50234E+03
 -1.55519E+04 -1.90464E+04 -4.70971E+02 -2.65335E+04  1.21410E+04 -2.28583E+04  2.19736E+04 -1.38621E+04
  1.95971E+04  1.12282E+03  1.61802E+04  5.41281E+03  6.93103E+03  8.33127E+02  1.19753E+04 -1.74080E+03
  2.05327E+04  3.25186E+03  2.44198E+04  1.67481E+04  1.49879E+04  3.56164E+04 -3.36299E+03  4.23773E+04
 -2.53206E+04  3.43692E+04 -3.85095E+04  1.64359E+04 -4.16893E+04 -3.46287E+03 -3.40737E+04 -2.42530E+04
 -1.47864E+04 -3.43703E+04  1.14096E+04 -2.93492E+04  2.69213E+04 -1.48385E+04  2.29080E+04  7.33543E+03
  6.97561E+03  1.64959E+04 -9.60265E+03  1.52011E+04 -1.91659E+04  7.79830E+02 -1.53059E+04 -1.22091E+04
  2.27679E+02 -1.79539E+04  8.88335E+03 -1.34821E+04  1.25878E+04 -1.50805E+03  3.41445E+03  1.02446E+04
 -9.48176E+03  3.60293E+03 -6.97276E+03 -5.93625E+03 -2.11080E+03 -1.58926E+04  1.28018E+04 -1.75236E+04
  2.11837E+04 -1.02145E+04  2.40751E+04  4.57893E+03  2.04342E+04  1.80147E+04  9.93883E+03  2.65144E+04
 -5.21065E+03  2.75462E+04 -1.85003E+04  1.72175E+04 -1.96930E+04  4.48338E+03 -1.31716E+04 -5.03636E+03
 -5.15943E+03 -5.62310E+03 -1.74805E+03 -3.17871E+02 -2.95680E+03  3.60929E+03 -7.22540E+03  5.25963E+03
 -1.45845E+04 -8.07953E+02 -1.27337E+04 -1.11752E+04 -6.42298E+03 -1.81191E+04  5.95953E+03 -1.38241E+04
  1.21175E+04 -6.75966E+03  7.88222E+03  4.61973E+03 -5.75119E+02  6.12523E+03 -7.35198E+03  1.00971E+03
 -6.38115E+03 -8.25087E+03 -5.77223E+02 -1.19956E+04  8.40248E+03 -1.54774E+04  2.04435E+04 -7.63587E+03
  2.27310E+04  2.46807E+03  1.58139E+04  1.35335E+04  2.75583E+03  1.82808E+04 -9.67471E+03  1.42728E+04
 -1.28620E+04  5.27027E+03 -6.10124E+03 -3.48295E+03  2.75677E+03 -4.43920E+03  6.93430E+03 -2.33402E+03
  6.02326E+03  6.48808E+03  1.38594E+03  9.60520E+03 -9.89175E+03  1.29110E+04 -1.46999E+04  3.16207E+03
 -1.13195E+04 -7.15446E+03  2.89760E+02 -1.35939E+04  8.28890E+03 -6.91248E+03  8.17514E+03  4.78068E+03
  2.08615E+03  1.04284E+04 -7.92754E+03  9.99606E+03 -1.28739E+04  4.08522E+03 -1.21643E+04 -5.78999E+03
 -6.74083E+03 -1.40305E+04  4.28797E+03 -1.70938E+04  1.33116E+04 -1.07080E+04  1.56716E+04  2.35634E+03
  8.18143E+03  1.17276E+04 -1.34630E+03  1.45525E+04 -1.10656E+04  7.85075E+03 -1.10976E+04 -1.71304E+03
 -9.09242E+03 -8.08844E+03 -6.63754E+02 -9.40453E+03  5.13877E+03 -9.31334E+03  6.51940E+03 -2.50357E+03
  4.23503E+03  2.70027E+03  8.42920E+01  1.71071E+03  4.77592E+02 -2.66797E+03  2.04582E+03 -5.78428E+03
  9.22127E+03 -5.36624E+03  1.43278E+04  1.06295E+03  1.35561E+04  9.18461E+03  8.66220E+03  1.99545E+04
 -3.56314E+03  2.25174E+04 -1.72888E+04  1.61490E+04 -2.20612E+04  2.70043E+03 -1.77702E+04 -7.26616E+03
 -8.96022E+03 -1.46372E+04 -1.30997E+03 -1.29354E+04  4.51210E+03 -7.56374E+03  4.66535E+03 -4.02088E+03
  1.70556E+03 -2.14539E+03  4.03549E+03 -4.36761E+03  6.29612E+03 -2.10469E+03  7.29984E+03 -1.66275E+03
  8.36832E+03  3.21096E+03  4.46453E+03  8.91400E+03 -1.76020E+03  1.01866E+04 -1.02342E+04  7.32227E+03
 -1.25684E+04 -1.42647E+03 -7.64185E+03 -8.56602E+03 -1.53889E+03 -1.28637E+04  7.55869E+03 -1.34930E+04
  1.52683E+04 -8.45084E+03  1.59495E+04  2.52094E+03  1.29235E+04  1.09089E+04  1.52091E+03  1.54029E+04
 -6.61775E+03  1.25266E+04 -1.06677E+04  4.48549E+03 -5.38066E+03 -1.79267E+02 -2.73199E+03 -9.27622E+02
 -1.28931E+03  6.07454E+02 -1.36441E+03  3.28333E+03 -5.51876E+03  1.95283E+03 -8.27004E+03  5.43806E+01
 -6.21739E+03 -8.42629E+03  6.94590E+02 -1.32661E+04  5.98435E+03 -1.08660E+04  1.29904E+04 -3.97815E+03
  1.29857E+04  4.17681E+03  6.88076E+03  1.03552E+04 -1.47057E+03  1.32801E+04 -1.12862E+04  8.31325E+03
 -1.32940E+04 -7.20920E+02 -1.00529E+04 -7.29977E+03  4.52704E+02 -1.03324E+04  6.23833E+03 -7.61428E+03
  7.58955E+03 -2.90748E+03  4.79221E+03  1.48003E+03  2.33929E+03  2.56080E+03  2.46608E+03  2.88271E+02
  2.36460E+03  1.19984E+03  2.84035E+03  3.23671E+03  4.16542E+03  3.70955E+03  3.05097E+03  5.73797E+03
 -2.20315E+03  1.13216E+04 -8.14929E+03  1.08387E+04 -1.35471E+04  2.43124E+03 -1.33731E+04 -4.19921E+03
 -5.59210E+03 -1.30668E+04  1.48463E+03 -1.35470E+04  8.07577E+03 -8.35019E+03  1.02703E+04 -1.05750E+03
  7.03795E+03  6.51982E+03  1.79538E+03  8.33045E+03 -4.07037E+03  3.50706E+03 -6.63572E+03 -7.63260E+02
 -1.32119E+03 -5.19423E+03  4.12773E+03 -7.14842E+03  4.38790E+03 -3.85764E+03  6.46988E+03  1.52696E+03
  4.68408E+03  1.29376E+03  1.57556E+03  1.04863E+03 -7.51530E+02  2.76642E+03  2.48666E+03  1.00891E+03
  1.53924E+03 -9.29259E+02  6.62825E+03  1.71762E+03  2.86801E+03  7.24254E+03 -4.46858E+02  8.75683E+03
 -5.58894E+03  5.21960E+03 -9.08538E+03  7.53612E+02 -6.25809E+03 -1.22007E+02 -2.57305E+03 -6.39658E+03
 -1.08616E+02 -4.24514E+03  3.91881E+03 -2.91884E+03  3.70178E+03  3.08643E+03 -1.74738E+03  3.92879E+03
 -4.55242E+03  2.25785E+03 -7.25591E+03 -3.03466E+03 -2.80988E+03 -6.98245E+03 -1.00336E+02 -7.51922E+03
  5.51029E+03 -5.62325E+03  4.32453E+03 -9.06579E+02  3.34544E+03  3.22925E+03  6.20881E+02  3.13209E+03
 -2.96050E+03  1.52275E+03 -3.34076E+03 -2.26868E+03  7.62529E+02 -5.90317E+03  5.84521E+03 -4.85173E+03
  6.54132E+03  1.35048E+03  8.04043E+03  5.65311E+03  1.88317E+03  7.32703E+03 -1.77445E+03  6.95181E+03
 -6.71425E+03  3.89541E+03 -6.48059E+03 -2.91278E+03 -4.60308E+03 -6.74569E+03  1.39571E+03 -5.37268E+03
  3.80067E+03 -2.48677E+03  3.33927E+03  3.37314E+03  2.40934E+03  5.06982E+03  5.98546E+01  2.66189E+03
 -2.13155E+03  2.38385E+03 -2.68306E+03  2.36040E+02 -4.26415E+02  9.45173E+02 -1.38039E+03  2.13176E+03
 -2.41303E+03  2.96219E+03 -5.55071E+03  3.51142E+03 -7.37683E+03 -5.27930E+01 -9.76873E+03 -5.59755E+03
 -5.23153E+03 -9.71031E+03  1.73064E+03 -1.38676E+04  8.37578E+03 -1.01123E+04  1.22828E+04 -4.04085E+03
  1.06927E+04  2.89142E+03  7.78168E+03  7.47894E+03  8.35886E+02  9.05331E+03 -2.97146E+03  5.58051E+03
 -4.00290E+03  2.10337E+03 -2.57306E+03 -1.65634E+03 -1.32741E+03  5.93007E+02 -4.50527E+02 -6.97988E+02
 -2.76276E+03  1.83936E+01 -2.64521E+03 -7.99773E+02 -9.87757E+02 -1.80124E+03 -1.29193E+03 -2.58633E+03
  2.91061E+03 -2.03431E+03  4.59453E+03 -5.86718E+02  6.51162E+03  4.29257E+03  2.44333E+03  9.33366E+03
 -4.52378E+03  8.94901E+03 -1.07749E+04  5.72723E+03 -9.82871E+03 -6.76052E+02 -9.03850E+03 -5.89102E+03
 -2.75431E+03 -6.90710E+03  2.33918E+02 -7.88996E+03  6.10925E+03 -3.72503E+03  5.31220E+03 -7.17843E+02
  3.46932E+03  1.82044E+03 -1.09051E+03  2.98334E+03 -2.62674E+03 -6.93812E+02  1.89458E+03 -2.19131E+03
  1.94151E+03 -1.98518E+03  3.55923E+03  3.19925E+02  1.80481E+03  3.61259E+03  1.20365E+03  5.18311E+03
 -2.08529E+03  4.65425E+03 -5.97319E+03 -3.37611E+02 -4.67279E+03 -3.60267E+03  6.31213E+02 -6.71387E+03
  4.44424E+03 -6.12034E+03  6.79537E+03 -4.31892E+02  5.99067E+03  8.42508E+02  3.29021E+03  4.82958E+03
  1.19838E+03  5.44627E+03 -3.71685E+03  5.29075E+03 -4.11547E+03  2.37928E+03 -3.83367E+03 -4.36161E+02
 -2.69511E+03 -2.43674E+02 -1.66357E+03  1.92791E+03 -4.19088E+03  6.61301E+02 -5.30650E+03 -2.28412E+01
 -5.69653E+03 -3.71492E+03 -1.67098E+03 -4.39219E+03  2.31868E+03 -5.43813E+03  5.93643E+03 -3.56339E+03
  4.16726E+03  7.08860E+02  1.50533E+03  3.57602E+03  8.38720E+01  4.33239E+03 -2.64621E+03  2.88814E+03
