 $NMID ID='MM_0lb_SNR200_14hz_g60_12.RAW', FMTDAT='(8E13.5)'
 TRAMP=1., VOLUME=1. $END
  3.10156E+05  4.34487E+02  3.37933E+05  2.51031E+05  8.47325E+04  3.38754E+05 -1.31379E+05  2.50870E+05
 -1.89989E+05  8.29585E+04 -1.12062E+05 -3.21845E+04  1.06318E+03 -5.02285E+04  5.40268E+04  3.51009E+02
  3.45057E+04  5.36455E+04 -1.64401E+04  7.58007E+04 -6.11760E+04  6.47300E+04 -8.40678E+04  3.22685E+04
 -8.09391E+04 -1.24528E+04 -5.71311E+04 -5.12698E+04 -1.57529E+04 -7.08705E+04  2.75300E+04 -4.78119E+04
  4.13576E+04  3.85869E+03  1.59419E+04  4.94139E+04 -3.39664E+04  4.69561E+04 -6.72613E+04  8.50808E+01
 -5.28228E+04 -5.73823E+04 -7.59942E+03 -7.72048E+04  3.36678E+04 -5.64090E+04  4.86692E+04 -1.76884E+04
  4.46304E+04  1.11444E+04  3.20859E+04  2.55262E+04  1.60501E+04  2.92947E+04 -6.29297E+03  2.81654E+04
 -2.27681E+04  1.19923E+04 -1.86005E+04 -5.38711E+03  5.87464E+03 -8.14889E+03  2.22614E+04  1.24168E+04
  7.37431E+03  3.68796E+04 -3.35945E+04  3.55004E+04 -6.44758E+04  2.57284E+03 -5.78697E+04 -4.36777E+04
 -1.36685E+04 -6.43219E+04  4.01187E+04 -4.56929E+04  5.93504E+04 -2.64868E+03  3.48188E+04  3.26968E+04
 -5.64416E+03  3.70108E+04 -3.11460E+04  1.66459E+04 -3.18884E+04 -4.49588E+03 -1.73443E+04 -1.04412E+04
 -8.84289E+03 -1.29844E+04 -3.26283E+02 -1.87592E+04  8.06235E+03 -2.35472E+04  1.58639E+04 -1.27008E+04
  1.06604E+04  5.07718E+03 -8.56691E+03  1.29901E+04 -2.06809E+04 -6.12560E+03 -8.32220E+03 -3.62152E+04
  2.21221E+04 -4.47583E+04  5.06475E+04 -1.98089E+04  4.63739E+04  1.96012E+04  1.54408E+04  4.55107E+04
 -1.73990E+04  3.44276E+04 -2.58398E+04  2.13464E+03 -9.89169E+03 -2.82124E+04  2.20312E+04 -3.63505E+04
  4.29195E+04 -9.33177E+03  3.66932E+04  2.37279E+04  1.96134E+04  4.73556E+04 -7.57279E+03  5.11054E+04
 -3.26042E+04  3.70802E+04 -4.23070E+04  9.19778E+03 -4.41963E+04 -1.75911E+04 -2.36451E+04 -3.87998E+04
  8.74112E+03 -3.79293E+04  3.24669E+04 -1.42696E+04  3.18196E+04  1.12982E+04  4.52346E+03  1.93034E+04
 -1.44690E+04  7.90595E+03 -9.58767E+03 -8.65470E+03  4.39242E+03 -1.14107E+04  1.83138E+04  5.87555E+03
  1.33977E+04  2.21731E+04 -6.48632E+03  2.47554E+04 -2.30988E+04  1.30063E+04 -2.96250E+04 -4.02199E+03
 -2.16605E+04 -1.86087E+04 -1.09861E+04 -2.19770E+04  4.17775E+03 -2.06904E+04  1.63529E+04 -1.87125E+04
  2.81194E+04 -1.29569E+04  3.49775E+04  3.34684E+03  2.49633E+04  2.16877E+04  6.44118E+03  3.76582E+04
 -1.82707E+04  3.16950E+04 -2.84960E+04  1.05871E+04 -2.15753E+04 -1.07171E+04 -4.15449E+03 -1.37602E+04
  2.48601E+03 -3.07163E+03 -5.43658E+03  7.08700E+03 -1.73108E+04  6.16555E+03 -1.80834E+04 -7.94624E+03
 -9.62308E+03 -2.02113E+04  5.50861E+03 -2.34400E+04  1.55084E+04 -1.70851E+04  1.91927E+04 -9.27439E+02
  1.30593E+04  1.43007E+04 -1.80497E+03  2.06351E+04 -1.40717E+04  1.18161E+04 -2.09845E+04 -4.13572E+03
 -1.54620E+04 -1.82113E+04 -1.79936E+03 -2.37697E+04  1.05915E+04 -1.94756E+04  2.06026E+04 -1.06362E+04
  1.81916E+04 -1.04145E+03  1.30839E+04  4.44352E+03  5.79219E+03  8.77187E+02  1.02692E+04 -2.06701E+03
  1.82791E+04  2.36257E+03  2.13109E+04  1.57922E+04  1.33139E+04  3.31682E+04 -3.34895E+03  3.64496E+04
 -2.16270E+04  3.03218E+04 -3.27894E+04  1.50992E+04 -3.57823E+04 -2.89801E+03 -2.89307E+04 -2.08932E+04
 -1.32769E+04 -3.04771E+04  1.04762E+04 -2.65180E+04  2.45562E+04 -1.15237E+04  2.05973E+04  5.71499E+03
  6.67544E+03  1.44231E+04 -1.00792E+04  1.35802E+04 -1.70484E+04  3.67265E+03 -1.23185E+04 -1.02199E+04
 -4.64899E+02 -1.64210E+04  9.76864E+03 -1.28977E+04  1.19773E+04  1.47204E+02  3.10745E+03  6.48462E+03
 -7.50596E+03  3.41465E+03 -6.45928E+03 -5.52590E+03 -2.00447E+03 -1.36988E+04  9.70890E+03 -1.50028E+04
  1.73581E+04 -7.93082E+03  2.04679E+04  2.84004E+03  1.78820E+04  1.54272E+04  7.27613E+03  2.16934E+04
 -4.33264E+03  2.29197E+04 -1.54819E+04  1.59243E+04 -1.58147E+04  2.86734E+03 -1.14537E+04 -3.72544E+03
 -5.69558E+03 -4.76303E+03 -1.21812E+03  7.60342E+02 -2.28588E+03  2.64597E+03 -6.62689E+03  3.98126E+03
 -1.10118E+04 -3.04309E+02 -1.06675E+04 -1.07589E+04 -4.15362E+03 -1.53373E+04  6.22284E+03 -1.22140E+04
  9.89312E+03 -5.61855E+03  7.11350E+03  2.89197E+03  1.06880E+03  4.38678E+03 -4.90943E+03 -8.48071E+02
 -6.09295E+03 -7.84872E+03 -5.11615E+02 -1.30409E+04  7.07688E+03 -1.13980E+04  1.54605E+04 -5.91133E+03
  1.78604E+04  2.61236E+03  1.37721E+04  1.07842E+04  3.25965E+03  1.39359E+04 -7.92432E+03  1.15283E+04
 -9.65030E+03  4.55226E+03 -4.54507E+03 -1.59054E+03  1.28220E+03 -3.79889E+03  6.34294E+03 -1.08876E+03
  6.27475E+03  5.56722E+03  8.93569E+02  1.00083E+04 -5.52510E+03  9.06836E+03 -1.12081E+04  2.23118E+03
 -7.62462E+03 -4.41974E+03 -4.03956E+02 -9.79508E+03  5.53285E+03 -4.97898E+03  6.77726E+03  1.31443E+03
  1.90605E+03  7.55790E+03 -6.95623E+03  8.03760E+03 -9.57142E+03  3.36939E+03 -8.54786E+03 -2.93923E+03
 -5.45303E+03 -1.10270E+04  7.24348E+02 -1.28223E+04  1.08523E+04 -8.73673E+03  1.13643E+04  1.51670E+03
  8.49640E+03  9.15034E+03 -1.34209E+03  1.04795E+04 -8.81998E+03  6.75643E+03 -9.49333E+03 -1.54184E+03
 -8.35943E+03 -8.04455E+03 -4.25499E+01 -7.66318E+03  5.13838E+03 -6.95700E+03  5.07795E+03 -4.84342E+03
  4.12181E+03  3.40950E+02 -5.94513E+02  2.00264E+03  6.72217E+02 -2.10349E+03  1.91205E+03 -5.21678E+03
  6.88540E+03 -3.38184E+03  9.06085E+03  1.80503E+03  9.12641E+03  6.49123E+03  6.40615E+03  1.36166E+04
 -2.76695E+03  1.63996E+04 -1.31616E+04  1.25474E+04 -1.72091E+04  2.33897E+03 -1.45740E+04 -5.29341E+03
 -5.62848E+03 -1.20525E+04 -5.59877E+02 -9.68282E+03  2.42964E+03 -5.31555E+03  2.64693E+03 -2.71095E+03
  1.45124E+03 -5.27730E+02  3.19757E+03 -3.13946E+03  4.85515E+03 -2.39109E+03  5.64440E+03 -2.45706E+02
  6.57064E+03  1.46991E+03  2.91830E+03  7.21465E+03 -2.02209E+03  5.68631E+03 -7.72431E+03  4.27541E+03
 -9.57925E+03 -4.81626E+02 -4.40764E+03 -7.60632E+03  5.55253E+02 -9.59520E+03  5.21560E+03 -1.05471E+04
  1.12006E+04 -4.64404E+03  1.21198E+04  2.09472E+03  8.39903E+03  7.70411E+03  1.79155E+03  1.04551E+04
 -4.83425E+03  9.30863E+03 -6.39811E+03  2.01589E+03 -3.59750E+03 -1.67416E+03 -1.53941E+03 -6.87802E+02
 -1.07603E+03 -1.17370E+03 -9.33596E+02  2.70393E+03 -4.42969E+03  8.88033E+02 -6.68181E+03 -6.92833E+02
 -4.72105E+03 -7.21040E+03  1.28708E+03 -8.99531E+03  5.71594E+03 -7.59827E+03  7.74195E+03 -2.32916E+03
  7.56254E+03  5.04949E+03  4.10420E+03  7.98419E+03 -1.95705E+03  9.34072E+03 -4.91532E+03  5.34429E+03
 -7.94821E+03  7.66502E+02 -5.82201E+03 -5.08872E+03 -1.66174E+03 -6.63271E+03  4.11850E+03 -4.94394E+03
  5.47001E+03 -1.37206E+03  2.98932E+03  9.12104E+02  1.00340E+03  3.10255E+03  1.15458E+03  1.12208E+03
  1.72283E+03  1.28005E+03  1.64785E+03  8.15654E+02  2.16259E+03  4.42052E+03  2.11834E+03  4.33408E+03
 -2.48640E+03  7.21234E+03 -6.27227E+03  6.98909E+03 -6.75457E+03  2.68546E+03 -8.48297E+03 -2.57478E+03
 -4.21870E+03 -6.97682E+03  1.77811E+03 -8.80443E+03  4.66698E+03 -6.12848E+03  6.91967E+03 -1.30283E+03
  4.18518E+03  4.23846E+03  8.85835E+02  4.17590E+03 -2.28471E+03  3.03923E+03 -2.99605E+03 -1.93132E+02
 -1.65431E+03 -4.58940E+03  1.65797E+03 -3.28791E+03  3.35132E+03 -2.62495E+03  1.88470E+03  7.34952E+02
  1.20227E+03  1.23657E+03  6.09169E+02  1.33653E+02 -1.27639E+03  1.48502E+03  1.64990E+03 -7.36680E+02
  3.31871E+02 -1.36565E+03  3.14310E+03  2.67397E+03  1.92242E+03  4.53472E+03  6.99451E+01  5.41073E+03
 -4.20514E+03  2.83868E+03 -4.31861E+03  1.32190E+03 -5.52816E+03 -2.39268E+03 -1.87129E+03 -3.65016E+03
  1.22066E+03 -2.85235E+03  2.04484E+03 -7.87398E+02  2.27939E+03  1.87677E+03 -1.71620E+03  1.39855E+03
 -3.22242E+03  6.03802E+02 -2.30263E+03 -3.12999E+03 -1.64345E+03 -4.09267E+03  1.67800E+03 -3.38540E+03
  1.07787E+03 -3.32745E+03  2.19866E+03 -1.32470E+03  2.18874E+03  1.65050E+03  3.71001E+02  2.73410E+03
 -2.02872E+03  3.57662E+02 -2.28424E+03 -5.56408E+02  2.54176E+03 -2.13463E+03  3.15731E+03 -2.26880E+03
  4.42367E+03  1.08996E+03  4.88248E+03  3.26671E+03  1.37205E+03  3.33861E+03 -2.79988E+03  4.69617E+03
 -3.03501E+03  2.32870E+03 -4.24083E+03 -1.11584E+03 -1.96149E+03 -3.18571E+03 -1.18398E+02 -2.57606E+03
  2.87845E+03 -1.88192E+03  1.82451E+03 -8.89977E+02  1.12965E+03  9.93479E+02  8.83979E+02  3.04229E+03
 -5.40267E+02  2.31059E+03 -3.09782E+02  4.06205E+02 -8.48599E+02  3.42375E+02 -6.44591E+02 -9.90145E+02
 -1.11252E+03  2.57048E+03 -4.13498E+03  1.69439E+03 -4.47098E+03 -2.77868E+02 -6.28226E+03 -2.63830E+03
 -2.00408E+03 -6.10495E+03  1.46270E+03 -6.75815E+03  3.86701E+03 -5.58799E+03  6.69572E+03 -1.65321E+03
  5.43863E+03  7.04720E+02  3.88148E+03  5.46810E+03  2.65588E+01  3.87980E+03 -1.85329E+03  2.21124E+03
 -1.56195E+03  1.32648E+03 -1.61360E+03 -2.95147E+03 -5.56353E+02  3.87705E+01 -1.84244E+03 -3.80914E+02
 -1.61202E+03  2.42572E+02 -2.51550E+02  7.79147E+02  6.93160E+01 -9.64669E+02 -4.25045E+01 -2.29484E+03
  1.78730E+03 -2.33017E+03  1.60215E+03  3.62472E+02  2.33892E+03  1.99737E+03  5.22207E+02  4.29135E+03
 -3.84865E+03  4.23705E+03 -4.29595E+03  1.82739E+03 -5.03276E+03  6.11160E+02 -4.09190E+03 -3.31322E+03
 -1.52605E+03 -4.45179E+03  3.05900E+01 -4.62369E+03  3.02868E+03 -1.33068E+03  7.81416E+02  3.54387E+02
  2.39866E+03  1.92891E+02 -4.57126E+01  2.22859E+03 -4.10115E+02 -8.99641E+02 -5.69017E+02 -2.79445E+02
  2.59778E+02  1.76191E+03  1.22972E+03  1.57789E+03 -1.55558E+02  1.25619E+03  2.16532E+02  1.80238E+03
 -1.53787E+03  1.91519E+03 -1.98696E+03  9.50353E+02 -1.12421E+03 -9.64252E+02  7.34896E+02 -4.25611E+03
  5.88696E+02 -3.80131E+03  2.37400E+03  2.86379E+02  3.48584E+03  2.42987E+01  1.26976E+03  1.32550E+03
  3.33641E+02  2.93964E+03 -1.93177E+03  1.87122E+03 -2.14344E+03  1.75416E+03 -2.01153E+03  8.15685E+02
 -4.01043E+02  4.84992E+02 -5.62980E+02  1.45324E+03 -7.82849E+02 -5.16899E+02 -1.00104E+03 -1.90167E+03
 -1.62089E+03 -5.88360E+01  2.00479E+03 -2.57666E+03  6.19683E+02 -3.02612E+03  2.63514E+03 -8.21542E+01
  2.08344E+03  2.21672E+02  5.20534E+02  7.94511E+02 -5.64549E+02  1.66809E+03 -1.03639E+03  1.89943E+03
