 $NMID ID='MM_0lb_SNR200_16hz_g55_87.RAW', FMTDAT='(8E13.5)'
 TRAMP=1., VOLUME=1. $END
  3.10251E+05  3.73740E+02  3.37084E+05  2.50873E+05  8.32649E+04  3.38180E+05 -1.32079E+05  2.51311E+05
 -1.89997E+05  8.25660E+04 -1.11072E+05 -3.26368E+04  9.74562E+02 -5.10013E+04  5.47142E+04  1.35650E+03
  3.49738E+04  5.26046E+04 -1.70767E+04  7.53424E+04 -6.03254E+04  6.21586E+04 -8.29646E+04  3.23849E+04
 -8.03837E+04 -1.10408E+04 -5.67263E+04 -5.08645E+04 -1.59433E+04 -6.93575E+04  2.64853E+04 -4.45733E+04
  4.01194E+04  3.47702E+03  1.59412E+04  4.79376E+04 -3.40717E+04  4.72469E+04 -6.59369E+04 -4.13473E+02
 -5.37065E+04 -5.68291E+04 -6.00658E+03 -7.72265E+04  3.40950E+04 -5.50726E+04  4.87021E+04 -1.67169E+04
  4.32797E+04  1.05113E+04  3.11089E+04  2.63511E+04  1.56169E+04  2.96203E+04 -4.58398E+03  2.61276E+04
 -2.23470E+04  1.36671E+04 -1.83280E+04 -5.04557E+03  5.57617E+03 -9.30370E+03  2.11049E+04  1.21750E+04
  7.03155E+03  3.61949E+04 -3.25826E+04  3.51439E+04 -6.29997E+04  3.91822E+03 -5.62606E+04 -4.25757E+04
 -1.12293E+04 -6.34396E+04  3.89767E+04 -4.45486E+04  5.73421E+04 -1.93104E+03  3.33847E+04  3.20404E+04
 -6.28169E+03  3.59599E+04 -2.96194E+04  1.57622E+04 -3.13339E+04 -4.64230E+03 -1.62508E+04 -1.04662E+04
 -8.10714E+03 -1.42093E+04 -2.54372E+03 -1.79370E+04  7.89952E+03 -2.36066E+04  1.56162E+04 -1.37077E+04
  1.23453E+04  5.22256E+03 -8.93426E+03  1.32046E+04 -1.90129E+04 -3.82717E+03 -8.35600E+03 -3.27383E+04
  2.36386E+04 -4.29811E+04  4.66447E+04 -1.90391E+04  4.47381E+04  2.02185E+04  1.53194E+04  4.37584E+04
 -1.63048E+04  3.38150E+04 -2.44457E+04  1.43767E+03 -8.80348E+03 -2.69376E+04  2.13118E+04 -3.06509E+04
  4.10619E+04 -9.38279E+03  3.48721E+04  2.41523E+04  1.79779E+04  4.59813E+04 -8.23096E+03  4.90908E+04
 -3.02939E+04  3.22293E+04 -4.07639E+04  8.61717E+03 -4.11326E+04 -1.70807E+04 -2.26796E+04 -3.70930E+04
  7.05098E+03 -3.70263E+04  3.10174E+04 -1.51772E+04  2.85662E+04  1.12688E+04  5.18724E+03  1.81109E+04
 -1.37813E+04  8.43046E+03 -9.86223E+03 -8.66957E+03  4.61917E+03 -9.43967E+03  1.83372E+04  6.08833E+03
  1.42132E+04  2.27596E+04 -6.74085E+03  2.46637E+04 -2.22548E+04  1.03339E+04 -2.69640E+04 -5.53570E+03
 -1.84919E+04 -1.83740E+04 -8.05338E+03 -2.00792E+04  3.76804E+03 -1.78153E+04  1.49213E+04 -1.76848E+04
  2.47014E+04 -1.30091E+04  3.09808E+04  3.20969E+03  2.31573E+04  1.92453E+04  5.01903E+03  3.50532E+04
 -1.74155E+04  2.96104E+04 -2.79805E+04  9.69012E+03 -1.97119E+04 -1.10228E+04 -4.29889E+03 -1.23611E+04
  1.94768E+03 -3.49208E+03 -4.75919E+03  6.81272E+03 -1.56780E+04  4.85344E+03 -1.60033E+04 -7.16228E+03
 -1.09524E+04 -1.83436E+04  5.47562E+03 -2.26936E+04  1.42910E+04 -1.59843E+04  1.64652E+04 -1.26744E+03
  1.01339E+04  1.28895E+04 -7.35680E+02  1.83725E+04 -1.12815E+04  1.06123E+04 -1.69030E+04 -3.90995E+03
 -1.26894E+04 -1.76474E+04 -1.48185E+03 -2.23866E+04  8.51519E+03 -1.84784E+04  1.77914E+04 -8.73336E+03
  1.59533E+04 -1.75511E+02  1.23050E+04  3.85281E+03  6.54418E+03  8.98789E+02  8.75430E+03 -1.97712E+03
  1.55224E+04  1.98399E+03  1.69655E+04  1.37333E+04  1.10775E+04  2.90259E+04 -3.45979E+03  3.13931E+04
 -1.91929E+04  2.48136E+04 -2.89939E+04  1.19337E+04 -3.14087E+04 -1.88175E+03 -2.65356E+04 -1.80969E+04
 -1.20452E+04 -2.56091E+04  8.39039E+03 -2.41620E+04  2.04746E+04 -1.32088E+04  1.92445E+04  5.50020E+03
  6.39917E+03  1.29192E+04 -8.79085E+03  1.28218E+04 -1.51586E+04  2.82947E+03 -1.08928E+04 -8.85381E+03
 -1.49758E+02 -1.51404E+04  7.96439E+03 -1.09363E+04  9.42583E+03 -2.70519E+03  1.32463E+03  6.75784E+03
 -6.90633E+03  1.35395E+03 -4.69405E+03 -5.72011E+03 -3.09072E+02 -1.18142E+04  8.86853E+03 -1.39852E+04
  1.56620E+04 -6.77975E+03  1.63602E+04  2.81542E+03  1.40781E+04  1.20479E+04  6.40877E+03  1.90322E+04
 -2.16826E+03  1.98836E+04 -1.25875E+04  1.40420E+04 -1.49053E+04  4.34469E+03 -9.11454E+03 -4.00607E+03
 -3.71241E+03 -4.21228E+03 -5.72386E+02  3.92069E+02 -1.87787E+03  2.91431E+03 -4.41336E+03  3.28892E+03
 -9.74296E+03  5.60580E+01 -1.16481E+04 -8.34419E+03 -4.24842E+03 -1.29903E+04  4.55111E+03 -1.07673E+04
  8.84784E+03 -4.53327E+03  6.49032E+03  1.46214E+03  1.79488E+03  3.42964E+03 -5.17134E+03 -4.19337E+02
 -3.91517E+03 -6.21641E+03 -6.74138E+02 -9.15802E+03  5.27221E+03 -1.01792E+04  1.22773E+04 -4.97058E+03
  1.58835E+04  1.78801E+03  1.09840E+04  9.22854E+03  2.55039E+03  1.20604E+04 -6.73683E+03  1.00190E+04
 -8.41170E+03  3.05917E+03 -4.36262E+03 -1.32395E+03  9.91064E+02 -1.88040E+03  5.89057E+03 -1.49382E+03
  5.28682E+03  3.90414E+03  4.04765E+02  8.24570E+03 -5.29838E+03  7.60177E+03 -1.02635E+04  1.09967E+03
 -5.70242E+03 -5.45795E+03  5.01079E+02 -8.39099E+03  5.41652E+03 -3.22583E+03  5.61773E+03  2.07706E+03
  1.73352E+03  5.24327E+03 -5.01708E+03  5.35856E+03 -7.01702E+03  3.78195E+03 -5.66309E+03 -2.81985E+03
 -4.01079E+03 -8.38128E+03  1.18333E+03 -1.03582E+04  8.13381E+03 -5.99969E+03  9.39539E+03  2.35673E+03
  6.07206E+03  6.76522E+03  4.36893E+02  9.12636E+03 -7.07213E+03  4.03030E+03 -6.65551E+03 -6.81389E+02
 -7.48856E+03 -6.56819E+03 -1.76259E+03 -6.68566E+03  4.46648E+03 -6.39748E+03  4.15017E+03 -2.39188E+03
  3.07380E+03  3.26738E+01 -5.91415E+01  1.16699E+03  5.09577E+02 -7.39392E+02  1.22916E+03 -3.06076E+03
  6.04459E+03 -1.84126E+03  7.38699E+03  1.31904E+03  7.69725E+03  4.04385E+03  5.71584E+03  1.06719E+04
 -2.69908E+03  1.15603E+04 -1.04244E+04  9.19798E+03 -1.42539E+04  1.83786E+03 -9.46333E+03 -4.11943E+03
 -5.14630E+03 -8.34003E+03  1.11934E+02 -7.76945E+03  1.17791E+03 -4.14044E+03  2.36781E+03 -2.45259E+03
  1.39625E+03 -3.25008E+03  3.12552E+03 -9.97061E+02  3.50925E+03 -2.08640E+03  5.55792E+03  4.26793E+02
  6.37484E+03  1.80335E+03  2.60241E+03  5.34289E+03 -1.26767E+03  3.72095E+03 -5.58248E+03  4.42241E+03
 -7.42862E+03 -2.11639E+03 -3.06311E+03 -5.05519E+03 -6.84835E+02 -7.80971E+03  3.83188E+03 -8.41906E+03
  7.28302E+03 -4.98046E+03  9.60026E+03  9.48648E+02  6.63202E+03  6.80545E+03  5.73588E+02  8.06062E+03
 -4.30479E+03  7.01378E+03 -5.43110E+03  1.60835E+03 -2.81880E+03 -6.23081E+02 -2.19993E+03 -2.34794E+02
 -1.11637E+03  6.67038E+02 -3.47998E+02  2.85799E+03 -3.14654E+03  9.44116E+02 -5.29450E+03 -5.96412E+01
 -2.79195E+03 -4.65545E+03 -9.43249E+02 -6.15036E+03  3.43554E+03 -6.25784E+03  5.93722E+03 -1.85131E+03
  5.81262E+03  3.23961E+03  2.48973E+03  5.50490E+03 -1.00755E+03  6.01242E+03 -3.83474E+03  3.87940E+03
 -5.55323E+03 -7.88599E+01 -4.85188E+03 -3.94477E+03 -1.17837E+02 -4.46470E+03  2.08153E+03 -2.99693E+03
  3.49203E+03 -2.23020E+03  1.81217E+03  1.48398E+03  1.30806E+03  2.11346E+03  4.58032E+02  1.05194E+02
  5.36117E+02 -4.90931E+02  2.31254E+03  5.40850E+02  4.82021E+02  3.43223E+03  2.49270E+03  2.46063E+03
 -2.95943E+03  4.11855E+03 -2.57097E+03  5.77625E+03 -3.55125E+03  9.84321E+02 -6.10826E+03 -1.38058E+03
 -1.47668E+03 -5.84436E+03  1.00014E+03 -7.88114E+03  3.81846E+03 -3.88698E+03  4.37294E+03 -4.59769E+02
  1.84430E+03  2.50372E+03  9.24234E+02  3.00430E+03  9.39400E+00  1.88734E+03 -1.81035E+03  1.75982E+02
 -3.57569E+02 -9.87016E+02  6.74068E+02 -1.45008E+03  1.65520E+03 -2.27093E+03  1.77598E+03 -2.70343E+02
  1.07698E+03 -3.26963E+01  1.70548E+02  1.06019E+02 -4.53471E+02  3.33808E+02  2.33376E+03 -6.60034E+00
 -3.05977E+02  6.65827E+02  2.65401E+03  1.18543E+03  1.58860E+02  3.88735E+03 -7.80996E+02  4.30553E+03
 -3.04281E+03  1.59650E+03 -4.26502E+03  4.90085E+02 -3.20301E+03 -2.51047E+03 -4.82438E+02 -2.16959E+03
  5.21238E+02 -1.58886E+03  2.45074E+03 -1.06137E+03  8.25539E+02  1.80176E+03 -9.83467E+02  1.87148E+03
 -2.73833E+03  6.33069E+02 -1.64909E+03 -1.49226E+03 -1.49851E+03 -2.08877E+03  1.92924E+02 -2.72645E+03
  1.56131E+03 -2.25106E+03  1.70167E+03 -3.90116E+02  2.19254E+03 -2.83520E+02  2.46513E+01  8.10590E+02
 -9.72654E+02  1.25083E+02 -1.74895E+03 -1.11970E+03  1.05119E+03 -1.83419E+03  1.42730E+03 -1.56673E+03
  2.51764E+03  1.17476E+03  3.79393E+03  2.66956E+03  9.24281E+02  2.42262E+03 -3.62748E+02  3.43484E+03
 -2.08220E+03  3.87632E+02 -1.95516E+03 -1.47979E+01 -7.96010E+02 -3.00613E+03  4.89829E+02 -6.04517E+02
  2.85874E+03 -1.03612E+03  8.92342E+02  1.07903E+03 -2.81748E+01  2.11524E+03  6.38450E+01  1.70564E+03
 -9.76354E+02  3.35522E+02 -8.17689E+02  1.16398E+01 -8.90718E+02  5.61811E+02 -1.68326E+03  1.30958E+03
 -7.64169E+02  2.01547E+03 -2.04139E+03 -2.69614E+02 -4.20971E+03  2.61007E+02 -3.90237E+03 -2.99057E+03
 -9.99998E+02 -4.35477E+03 -2.32375E+02 -5.27137E+03  9.94196E+02 -3.43422E+03  3.13331E+03 -1.14116E+03
  3.81583E+03 -3.73573E+00  1.42056E+03  2.26053E+03 -1.55549E+03  3.01231E+03 -1.14049E+03  2.79177E+03
 -1.30715E+03  3.05046E+02 -1.19062E+03 -1.69689E+02 -1.30622E+03  1.05293E+03 -9.62834E+02 -1.32642E+02
 -6.69526E+02  6.16628E+02 -7.68766E+02  1.84988E+02  7.48212E+01 -5.38622E+02 -1.00480E+03 -1.94079E+03
  1.01137E+03 -1.61954E+03  9.73638E+02 -9.07813E+02  1.98758E+03  1.95260E+03 -4.46300E+02  2.45247E+03
 -1.53483E+03  1.88124E+03 -1.94395E+03  2.38407E+03 -3.83707E+03  6.33340E+02 -2.12140E+03 -2.12570E+03
 -1.67549E+03 -2.20009E+03 -9.00397E+01 -1.68995E+03  1.47838E+03 -1.23929E+03  1.37905E+03  6.74493E+01
  5.77510E+02  1.40426E+03 -7.16469E+02  1.44739E+03  2.32188E+02 -3.51518E+02  8.85676E+02 -1.48639E+03
  1.12051E+03 -3.93476E+01  9.77983E+02  6.93547E+02  7.80408E+02  1.01159E+03  3.56558E+02  1.81175E+03
 -1.54083E+03  5.80143E+02 -3.26475E+02  1.31051E+03 -2.26821E+03 -6.58329E+02 -1.54170E+03 -9.18300E+02
  1.49949E+03 -8.64935E+02  1.07778E+03 -1.35435E+03  1.45071E+03 -1.41582E+02  9.21713E+01  1.63492E+03
 -1.40897E+03  3.78736E+01 -4.56302E+02  1.37600E+03  1.30468E+02  1.36518E+03 -9.86195E+02 -8.08918E+02
 -1.18703E+03 -1.33469E+02 -3.37266E+02  1.27073E+03 -1.08857E+03 -9.89889E+02 -1.39673E+03 -3.07869E+02
 -8.49001E+02 -8.77681E+02  4.33659E+01 -1.11310E+03 -2.40090E+02 -2.05059E+03  1.81408E+03 -1.06624E+03
  2.05389E+03  3.43352E+02 -3.89174E+02  8.40139E+02  6.01569E+01  9.14075E+02 -9.02657E+02  8.79506E+02
