 $NMID ID='MM_0lb_SNR200_8hz_g60_70.RAW', FMTDAT='(8E13.5)'
 TRAMP=1., VOLUME=1. $END
  3.09448E+05  2.50028E+03  3.36596E+05  2.51659E+05  8.56844E+04  3.39742E+05 -1.31198E+05  2.52569E+05
 -1.90977E+05  8.55936E+04 -1.12180E+05 -3.36376E+04  6.65123E+02 -5.06545E+04  5.42206E+04 -9.51566E+02
  3.63690E+04  5.35216E+04 -1.77208E+04  7.63262E+04 -6.09702E+04  6.58391E+04 -8.45779E+04  3.35985E+04
 -8.20510E+04 -1.18375E+04 -5.74883E+04 -5.33651E+04 -1.56763E+04 -7.01699E+04  2.80266E+04 -4.48306E+04
  4.08867E+04  4.51345E+03  1.85518E+04  4.96317E+04 -3.55030E+04  4.93849E+04 -6.89038E+04  1.86670E+03
 -5.66319E+04 -5.87494E+04 -7.97937E+03 -7.99894E+04  3.67356E+04 -5.70556E+04  5.25203E+04 -1.72421E+04
  4.66521E+04  1.31630E+04  3.43111E+04  2.47454E+04  1.72887E+04  3.08296E+04 -5.92936E+03  2.79730E+04
 -2.16206E+04  1.15036E+04 -1.80947E+04 -6.14382E+03  7.38863E+03 -8.64834E+03  2.60334E+04  1.54723E+04
  7.61634E+03  3.85584E+04 -3.64110E+04  3.68162E+04 -6.59746E+04  3.13677E+03 -6.01393E+04 -4.46657E+04
 -1.10886E+04 -6.69371E+04  4.14775E+04 -4.85063E+04  6.21899E+04 -2.12131E+03  4.13005E+04  3.60183E+04
 -6.50789E+03  4.05760E+04 -3.29176E+04  1.91349E+04 -3.46464E+04 -1.32872E+03 -2.08330E+04 -9.92313E+03
 -8.80412E+03 -1.65743E+04  2.10523E+02 -1.90428E+04  1.03557E+04 -2.37906E+04  1.50781E+04 -1.18055E+04
  1.00693E+04  5.95100E+03 -1.12976E+04  1.25174E+04 -2.51494E+04 -8.10519E+03 -8.90707E+03 -3.89685E+04
  2.65439E+04 -4.91819E+04  5.32228E+04 -2.23194E+04  5.11056E+04  2.10951E+04  1.72384E+04  4.85887E+04
 -1.88470E+04  3.77535E+04 -2.90064E+04  3.73156E+03 -1.17711E+04 -2.86139E+04  2.09898E+04 -3.92168E+04
  4.66388E+04 -9.96801E+03  4.26314E+04  2.81029E+04  2.24761E+04  5.43249E+04 -7.00633E+03  5.93751E+04
 -3.74807E+04  3.87263E+04 -4.95305E+04  1.21553E+04 -4.91180E+04 -1.79386E+04 -2.73177E+04 -4.35935E+04
  8.35178E+03 -4.49002E+04  3.48501E+04 -1.77454E+04  3.14393E+04  1.17355E+04  6.07358E+03  2.19087E+04
 -1.40118E+04  8.68426E+03 -1.21830E+04 -6.73280E+03  5.63634E+03 -1.14967E+04  2.05641E+04  5.21447E+03
  1.43498E+04  2.29065E+04 -5.00735E+03  2.83640E+04 -2.54927E+04  1.52937E+04 -3.37223E+04 -9.56882E+02
 -2.64071E+04 -1.76493E+04 -1.23960E+04 -2.83332E+04  5.83332E+03 -2.68436E+04  2.16620E+04 -2.18669E+04
  3.41745E+04 -1.47219E+04  3.82423E+04  4.98721E+03  2.76224E+04  2.59877E+04  3.10972E+03  4.26336E+04
 -2.04278E+04  3.46656E+04 -3.24941E+04  1.09214E+04 -2.23653E+04 -9.39818E+03 -4.50705E+03 -1.15950E+04
  9.69645E+02 -1.02076E+03 -8.56676E+03  9.26357E+03 -2.30298E+04  6.53255E+03 -2.25337E+04 -1.01127E+04
 -1.27501E+04 -2.40196E+04  5.36218E+03 -2.92704E+04  1.79378E+04 -1.94252E+04  2.54983E+04 -6.70459E+02
  1.68788E+04  1.77327E+04  4.43616E+02  2.44583E+04 -1.78323E+04  1.30909E+04 -2.58799E+04 -5.16010E+03
 -1.78641E+04 -2.27135E+04 -2.48669E+03 -3.11066E+04  1.38450E+04 -2.41649E+04  2.49964E+04 -1.32029E+04
  2.29136E+04  7.15155E+02  1.82557E+04  5.47298E+03  8.99720E+03  1.26958E+03  1.34630E+04 -3.78813E+03
  2.54153E+04  3.16142E+03  2.73244E+04  2.11251E+04  1.91746E+04  4.05330E+04 -7.28506E+02  4.92427E+04
 -2.77888E+04  4.17176E+04 -4.68399E+04  2.11502E+04 -5.07092E+04 -3.42280E+03 -4.04660E+04 -2.99678E+04
 -1.44067E+04 -4.11926E+04  1.42277E+04 -3.61018E+04  3.19141E+04 -1.63154E+04  2.59903E+04  8.62406E+03
  9.40814E+03  2.08590E+04 -1.31920E+04  1.38075E+04 -2.12466E+04  2.01193E+03 -1.67644E+04 -1.43488E+04
  1.11490E+03 -2.13230E+04  1.18524E+04 -1.66165E+04  1.48688E+04  2.59301E+02  2.54356E+03  1.04677E+04
 -9.50374E+03  4.97548E+03 -1.13686E+04 -6.97733E+03 -2.52584E+03 -1.98551E+04  1.25921E+04 -2.07701E+04
  2.49637E+04 -1.26166E+04  3.07403E+04  3.02742E+03  2.48951E+04  1.99304E+04  1.18898E+04  3.08030E+04
 -5.59313E+03  3.45465E+04 -2.50821E+04  2.17322E+04 -2.66303E+04  4.51259E+03 -1.65122E+04 -7.72628E+03
 -5.65392E+03 -6.92833E+03 -8.50717E+02  3.02148E+02 -3.88879E+03  3.58115E+03 -9.27147E+03  5.25265E+03
 -1.67352E+04 -2.95073E+03 -1.68995E+04 -1.14060E+04 -5.45268E+03 -2.15362E+04  8.51103E+03 -1.64150E+04
  1.44832E+04 -9.13507E+03  9.00057E+03  5.99508E+03 -1.85630E+03  7.71588E+03 -8.09665E+03 -1.43775E+03
 -7.74288E+03 -1.14559E+04  3.41104E+02 -1.85035E+04  1.16436E+04 -1.69882E+04  2.22889E+04 -1.03314E+04
  2.78602E+04  2.95822E+03  1.87863E+04  1.65447E+04  2.06436E+03  2.30804E+04 -1.18992E+04  1.81628E+04
 -1.54915E+04  4.91416E+03 -8.14930E+03 -5.81962E+03  3.03794E+03 -5.66546E+03  8.52092E+03 -7.23109E+02
  7.05362E+03  8.90291E+03 -2.54497E+02  1.50747E+04 -1.06946E+04  1.35639E+04 -1.81411E+04  1.69473E+03
 -1.33652E+04 -8.17495E+03 -2.28469E+02 -1.54353E+04  1.04528E+04 -8.88601E+03  1.09491E+04  4.31526E+03
  2.32148E+03  1.16235E+04 -9.70535E+03  1.29640E+04 -1.43104E+04  6.88564E+03 -1.48469E+04 -4.65783E+03
 -8.37428E+03 -1.93512E+04  5.91373E+03 -2.18721E+04  1.83386E+04 -1.08810E+04  1.88339E+04  2.26287E+03
  1.43002E+04  1.34056E+04 -1.78820E+03  1.83611E+04 -1.33263E+04  9.46058E+03 -1.54118E+04 -3.25717E+03
 -1.27417E+04 -1.20991E+04 -1.70539E+03 -1.66131E+04  7.27141E+03 -1.26019E+04  9.59442E+03 -3.06701E+03
  5.67613E+03  2.88810E+03 -2.81668E+03  2.64444E+03 -8.57775E+02 -4.32411E+03  4.44611E+03 -9.89203E+03
  1.44120E+04 -5.98901E+03  1.89214E+04  7.76869E+02  2.04309E+04  1.33061E+04  1.02241E+04  2.69557E+04
 -4.75351E+03  2.89976E+04 -2.23306E+04  2.08026E+04 -3.07314E+04  4.14344E+03 -2.55261E+04 -1.03768E+04
 -1.22221E+04 -2.11635E+04  1.43376E+03 -1.59342E+04  7.28314E+03 -9.73273E+03  5.79477E+03 -5.17972E+03
  6.33461E+03 -4.53368E+03  4.48203E+03 -4.90607E+03  4.49383E+03 -1.71890E+03  1.07442E+04 -3.38275E+03
  1.08335E+04  3.86427E+03  8.38317E+03  1.02308E+04 -3.87543E+03  1.38965E+04 -1.26415E+04  1.01187E+04
 -1.88943E+04 -1.69239E+03 -1.16137E+04 -1.25826E+04 -6.50518E+02 -1.77161E+04  8.89709E+03 -1.88362E+04
  1.99678E+04 -9.58717E+03  2.29857E+04  3.44284E+03  1.61508E+04  1.75671E+04  3.81094E+03  2.10284E+04
 -7.30475E+03  1.94724E+04 -1.26049E+04  6.57568E+03 -8.36119E+03 -3.94805E+02 -3.97088E+03 -4.31148E+03
 -1.54104E+03  7.01310E+02 -3.43102E+03  1.97887E+03 -6.83074E+03  4.68923E+03 -1.35203E+04 -2.67525E+03
 -1.04128E+04 -1.10486E+04 -1.45837E+03 -1.68624E+04  1.15394E+04 -1.60016E+04  2.01490E+04 -4.85706E+03
  1.69977E+04  9.88087E+03  9.38096E+03  1.59492E+04 -2.27560E+03  1.87184E+04 -1.23862E+04  1.10724E+04
 -1.58164E+04 -3.04793E+02 -1.23352E+04 -1.10206E+04  8.03909E+02 -1.58562E+04  8.53532E+03 -1.13503E+04
  9.31335E+03 -4.42924E+03  7.18359E+03  1.93539E+03  2.31404E+03  6.70850E+03  3.23356E+03  2.32029E+03
  3.23190E+03  2.34416E+03  5.30438E+03  3.12696E+03  4.15510E+03  5.49510E+03  4.24379E+03  1.04216E+04
 -3.39951E+03  1.28232E+04 -1.22911E+04  1.32986E+04 -1.80727E+04  4.24282E+03 -1.96518E+04 -8.62648E+03
 -9.27371E+03 -1.91275E+04  3.58610E+03 -1.88929E+04  1.18970E+04 -1.27228E+04  1.50219E+04 -4.13686E+03
  1.20193E+04  6.05945E+03  1.99661E+03  1.11389E+04 -5.80601E+03  7.51334E+03 -9.50773E+03  2.49959E+02
 -4.41480E+03 -7.93185E+03  4.43227E+03 -8.53586E+03  6.53079E+03 -4.17528E+03  7.17649E+03  1.06714E+03
  3.95955E+03  3.62098E+03  1.99207E+03  2.99851E+03 -5.17864E+02  2.97457E+03  1.96891E+03  2.71053E+02
  2.07863E+03  1.14135E+03  8.17178E+03  4.51642E+03  3.09628E+03  1.03109E+04 -1.20797E+03  1.30723E+04
 -8.05744E+03  8.82440E+03 -1.34235E+04  1.73369E+03 -1.09123E+04 -4.81794E+03 -3.44909E+03 -8.60381E+03
  2.74732E+02 -5.58644E+03  4.94283E+03 -4.21291E+03  3.05716E+03  2.96878E+03 -1.56749E+03  7.94878E+03
 -8.52687E+03  2.25535E+03 -8.76542E+03 -4.11888E+03 -6.34722E+03 -1.09320E+04  2.38130E+03 -1.06091E+04
  8.06189E+03 -5.40473E+03  6.98307E+03 -1.93594E+03  7.42427E+03  3.21930E+03  1.41423E+03  4.30657E+03
 -3.51665E+03 -1.20619E+02 -4.16582E+03 -3.51900E+03  2.16801E+03 -8.84213E+03  8.32144E+03 -6.46282E+03
  1.31690E+04  2.87600E+03  1.17364E+04  8.67194E+03  4.81931E+03  1.25148E+04 -5.65145E+03  1.05745E+04
 -9.78575E+03  4.85394E+03 -1.12342E+04 -2.11216E+03 -5.88345E+03 -8.80452E+03  2.93892E+03 -8.10183E+03
  7.59558E+03 -2.62067E+03  8.78864E+03  6.20701E+03  4.05154E+03  8.53299E+03  3.27846E+02  6.58340E+03
 -4.03939E+03  3.32710E+03 -3.22448E+03  1.44104E+03 -2.08509E+03  1.12810E+03 -1.40539E+03  1.76635E+03
 -2.47597E+03  3.91148E+03 -8.68392E+03  3.85787E+03 -1.21895E+04  7.53527E+02 -1.34626E+04 -8.33818E+03
 -6.83844E+03 -1.65882E+04  3.25268E+03 -1.92847E+04  1.16137E+04 -1.52397E+04  1.75870E+04 -6.11846E+03
  1.71975E+04  3.93065E+03  1.08203E+04  1.29050E+04  2.04403E+02  1.42804E+04 -4.48380E+03  1.05714E+04
 -6.57304E+03  2.81429E+03 -3.34587E+03 -1.12856E+03 -1.51776E+03  6.67101E+01  6.14224E+02  1.44732E+03
 -4.33194E+03  8.29357E+02 -2.01340E+03 -1.40015E+03 -1.48847E+03 -3.25033E+03  2.14022E+02 -5.37246E+03
  5.66149E+03 -4.41316E+03  6.37327E+03 -2.38357E+02  1.14722E+04  8.18308E+03  2.11257E+03  1.33479E+04
 -5.63180E+03  1.61520E+04 -1.37822E+04  9.01103E+03 -1.70780E+04 -2.22109E+03 -1.07383E+04 -9.34003E+03
 -5.03274E+03 -1.44233E+04  3.80543E+03 -1.22808E+04  1.12870E+04 -7.54926E+03  9.16221E+03 -3.03329E+02
  3.78720E+03  4.50328E+03 -4.24982E+02  2.86067E+03 -3.42554E+03 -5.83681E+02  5.38492E+02 -3.39211E+03
  4.94067E+03 -1.70308E+03  4.03224E+03  2.99517E+03  2.25773E+03  5.62212E+03 -1.36027E+03  7.44238E+03
 -6.07959E+03  5.72681E+03 -9.27759E+03  1.99603E+02 -7.17115E+03 -5.63466E+03 -2.03345E+03 -1.01956E+04
  7.46720E+03 -1.03078E+04  1.31252E+04 -2.38474E+03  7.40577E+03  2.12076E+03  6.67342E+03  7.20605E+03
  1.10517E+03  9.68347E+03 -3.43454E+03  5.47595E+03 -4.84781E+03  4.07491E+03 -4.27009E+03 -1.00530E+03
 -3.29382E+03  6.38591E+02 -3.75703E+03  1.37758E+03 -6.72708E+03  2.69883E+03 -7.18257E+03 -2.35296E+03
 -6.70636E+03 -3.82738E+03 -2.96224E+02 -8.42749E+03  5.34119E+03 -7.67829E+03  7.95365E+03 -3.81277E+03
  7.25713E+03  2.42640E+03  6.55963E+03  7.81271E+03 -1.82667E+03  9.39892E+03 -6.33144E+03  5.52458E+03
