 $NMID ID='MM_0lb_SNR200_12hz_g45_30.RAW', FMTDAT='(8E13.5)'
 TRAMP=1., VOLUME=1. $END
  3.09358E+05  9.43505E+01  3.37680E+05  2.50136E+05  8.37814E+04  3.37358E+05 -1.32265E+05  2.50555E+05
 -1.90180E+05  8.34464E+04 -1.11428E+05 -3.12339E+04  2.65187E+02 -4.95152E+04  5.32007E+04  1.36606E+03
  3.65807E+04  5.18265E+04 -1.77197E+04  7.42335E+04 -6.01064E+04  6.32561E+04 -8.54533E+04  3.30103E+04
 -8.03053E+04 -1.18231E+04 -5.73524E+04 -5.16089E+04 -1.60692E+04 -7.02076E+04  2.87810E+04 -4.61508E+04
  3.99832E+04  4.47427E+03  1.53575E+04  4.66616E+04 -3.38972E+04  4.69712E+04 -6.65970E+04 -1.14577E+03
 -5.39274E+04 -5.65373E+04 -6.49378E+03 -7.74872E+04  3.28621E+04 -5.49672E+04  5.02037E+04 -1.64943E+04
  4.41978E+04  1.07179E+04  3.41940E+04  2.51756E+04  1.52972E+04  2.92484E+04 -4.00219E+03  2.71804E+04
 -2.18837E+04  1.25879E+04 -1.88737E+04 -5.56017E+03  5.90403E+03 -7.75114E+03  2.25481E+04  1.33273E+04
  6.02239E+03  3.62636E+04 -3.30506E+04  3.53344E+04 -6.43078E+04  3.72917E+03 -5.74049E+04 -4.27104E+04
 -1.25548E+04 -6.30314E+04  3.98802E+04 -4.58133E+04  5.82107E+04 -2.27266E+03  3.43140E+04  3.26566E+04
 -5.69816E+03  3.75957E+04 -3.04582E+04  1.64612E+04 -3.03627E+04 -4.53509E+03 -1.82365E+04 -1.13139E+04
 -8.49432E+03 -1.35438E+04 -1.59120E+03 -1.73613E+04  7.25192E+03 -2.33709E+04  1.57799E+04 -1.42344E+04
  1.04307E+04  5.11731E+03 -1.02153E+04  1.22510E+04 -2.21403E+04 -5.46947E+03 -8.46953E+03 -3.57897E+04
  2.43002E+04 -4.50831E+04  4.88419E+04 -2.09649E+04  4.70836E+04  1.94549E+04  1.63364E+04  4.43997E+04
 -1.65393E+04  3.48882E+04 -2.59526E+04  1.71743E+03 -9.98067E+03 -2.90744E+04  2.05405E+04 -3.39286E+04
  4.27723E+04 -1.10086E+04  3.77066E+04  2.36212E+04  1.96526E+04  4.74906E+04 -7.06024E+03  5.08452E+04
 -3.30460E+04  3.56294E+04 -4.35057E+04  8.74192E+03 -4.29761E+04 -1.78817E+04 -2.40064E+04 -3.99354E+04
  7.34295E+03 -3.76510E+04  3.21500E+04 -1.46295E+04  2.98717E+04  1.18879E+04  3.36821E+03  2.04150E+04
 -1.40115E+04  9.02412E+03 -9.63556E+03 -7.22257E+03  5.13708E+03 -1.06607E+04  1.74463E+04  5.71390E+03
  1.51206E+04  2.15852E+04 -6.07694E+03  2.54378E+04 -2.28581E+04  1.13807E+04 -2.93091E+04 -4.67796E+03
 -2.23857E+04 -1.69340E+04 -9.40700E+03 -2.15690E+04  3.44426E+03 -2.08738E+04  1.73080E+04 -1.91548E+04
  2.63739E+04 -1.32825E+04  3.31329E+04  3.12137E+03  2.45300E+04  2.10523E+04  3.85250E+03  3.86669E+04
 -1.80732E+04  3.26780E+04 -2.83350E+04  1.02384E+04 -2.14358E+04 -1.02831E+04 -5.07805E+03 -1.29677E+04
  1.44752E+03 -7.24178E+02 -5.79578E+03  5.80350E+03 -1.86904E+04  5.33767E+03 -1.63822E+04 -7.31055E+03
 -1.05241E+04 -2.01921E+04  5.15466E+03 -2.44738E+04  1.74836E+04 -1.82394E+04  2.00828E+04 -1.93569E+03
  1.36929E+04  1.47682E+04 -2.02273E+03  2.13457E+04 -1.43370E+04  1.06303E+04 -1.87593E+04 -4.08946E+03
 -1.48740E+04 -1.73548E+04 -2.33349E+03 -2.39052E+04  1.11589E+04 -2.12899E+04  1.98889E+04 -1.04612E+04
  1.99254E+04  1.74293E+03  1.36078E+04  4.50473E+03  7.46238E+03  2.19486E+03  1.02427E+04 -3.77877E+02
  1.83881E+04  3.18861E+03  2.13755E+04  1.53612E+04  1.34283E+04  3.12930E+04 -4.40832E+03  3.68376E+04
 -2.20359E+04  2.98028E+04 -3.50852E+04  1.68521E+04 -3.72370E+04 -3.60921E+03 -3.08388E+04 -2.18843E+04
 -1.22244E+04 -3.03026E+04  1.19107E+04 -2.79920E+04  2.32359E+04 -1.26104E+04  2.08273E+04  6.33366E+03
  7.56816E+03  1.71624E+04 -1.02990E+04  1.23520E+04 -1.76520E+04  1.81206E+03 -1.23691E+04 -1.15167E+04
 -5.58025E+00 -1.52179E+04  8.37848E+03 -1.23552E+04  9.46525E+03 -9.85341E+02  3.95660E+03  7.53818E+03
 -7.35347E+03  2.75898E+03 -7.94201E+03 -5.56764E+03 -2.61758E+02 -1.49675E+04  1.01981E+04 -1.51494E+04
  2.13037E+04 -7.42612E+03  2.07039E+04  4.05229E+03  1.76332E+04  1.47957E+04  9.09900E+03  2.33093E+04
 -3.78939E+03  2.51535E+04 -1.53453E+04  1.57397E+04 -1.81573E+04  3.05012E+03 -1.27817E+04 -4.20033E+03
 -6.80914E+03 -6.91221E+03  3.76589E+02  7.72178E+02 -3.38594E+03  1.70770E+03 -4.69772E+03  3.94575E+03
 -1.33250E+04 -2.34690E+03 -1.20288E+04 -1.01955E+04 -3.79324E+03 -1.53619E+04  5.97381E+03 -1.29020E+04
  1.02194E+04 -5.53050E+03  7.25592E+03  2.46966E+03  1.93272E+02  6.11405E+03 -6.98587E+03 -3.47332E+02
 -7.00403E+03 -8.55801E+03 -3.84995E+02 -1.07011E+04  6.56618E+03 -1.34578E+04  1.48587E+04 -6.70074E+03
  1.78925E+04  1.12453E+03  1.40385E+04  1.05133E+04  2.60508E+03  1.43445E+04 -8.47386E+03  1.39834E+04
 -1.00499E+04  3.12930E+03 -5.40931E+03 -1.80829E+03  1.61975E+03 -2.90760E+03  7.65866E+03 -7.85305E+02
  6.19455E+03  5.95635E+03  5.26999E+02  1.12135E+04 -5.50483E+03  1.03642E+04 -1.30441E+04  1.98678E+03
 -8.23946E+03 -6.73521E+03  1.49314E+03 -1.02728E+04  5.98401E+03 -5.86374E+03  6.87532E+03  7.43627E+02
 -3.36762E+02  6.98444E+03 -6.76734E+03  7.51540E+03 -9.98162E+03  3.56724E+03 -1.02904E+04 -2.85990E+03
 -6.34594E+03 -1.07158E+04  1.41600E+03 -1.34835E+04  1.17665E+04 -7.36248E+03  1.21334E+04  1.68142E+03
  7.28973E+03  1.00508E+04 -8.77197E+02  1.30307E+04 -8.52972E+03  7.93961E+03 -9.46310E+03 -1.42238E+03
 -8.54780E+03 -8.71431E+03 -6.60360E+02 -7.83992E+03  5.86878E+03 -6.22782E+03  5.22889E+03 -4.11811E+03
  3.30094E+03  2.98971E+03 -1.99158E+03  1.52978E+03 -5.71872E+02 -1.93930E+03  1.13655E+03 -3.82185E+03
  9.96739E+03 -3.07566E+03  1.08822E+04  4.01755E+01  1.11617E+04  7.03293E+03  8.26135E+03  1.46080E+04
 -2.79887E+03  1.75425E+04 -1.36931E+04  1.16313E+04 -1.89531E+04  2.02421E+03 -1.47221E+04 -6.17158E+03
 -6.27021E+03 -1.25991E+04  1.03698E+03 -1.00577E+04  2.38328E+03 -6.38478E+03  2.55653E+03 -3.11919E+03
  2.55192E+03 -2.88564E+03  2.69368E+03 -4.18751E+03  4.80185E+03 -2.85862E+03  6.14356E+03  3.62100E+02
  6.75621E+03  1.09752E+02  3.11936E+03  6.57474E+03 -1.51127E+03  7.57431E+03 -8.54193E+03  5.42670E+03
 -1.07485E+04 -1.35477E+03 -5.53264E+03 -7.12862E+03 -9.18173E+02 -1.21746E+04  5.64337E+03 -1.03248E+04
  1.02270E+04 -6.35321E+03  1.38790E+04  3.00683E+03  1.05238E+04  8.69474E+03  2.16374E+02  1.24210E+04
 -6.73689E+03  1.01219E+04 -7.40058E+03  2.01776E+03 -4.96061E+03 -1.78864E+03 -1.25497E+03 -8.40902E+02
 -1.05068E+03 -1.16760E+03 -2.70860E+03  2.84202E+03 -5.15012E+03  7.98804E+02 -7.42324E+03 -2.01776E+03
 -4.19100E+03 -6.58474E+03  8.84502E+02 -1.04178E+04  6.70207E+03 -9.11627E+03  9.07986E+03 -3.95659E+03
  1.03272E+04  4.90776E+03  5.91987E+03  9.80400E+03 -4.16336E+03  1.04766E+04 -6.59960E+03  6.95227E+03
 -8.20728E+03  1.50232E+03 -7.47116E+03 -6.60849E+03 -1.12126E+03 -7.44492E+03  3.37536E+03 -4.93084E+03
  6.47910E+03 -1.72272E+03  2.96021E+03  1.62627E+03  1.65972E+02  3.21228E+03  1.65495E+03  2.98887E+03
  3.10630E+03  4.31486E+02  3.01888E+03  8.03980E+02  3.80498E+03  4.77606E+03  2.61081E+03  3.89622E+03
 -2.84046E+03  6.73312E+03 -6.18335E+03  8.25754E+03 -8.41927E+03  2.85696E+03 -1.04852E+04 -2.62684E+03
 -5.25265E+03 -9.72591E+03  1.07276E+03 -1.02234E+04  6.29702E+03 -6.82326E+03  9.91811E+03 -8.62499E+02
  6.23735E+03  4.03885E+03 -6.32174E+01  6.41811E+03 -2.26145E+03  4.89101E+03 -3.67484E+03 -4.18759E+02
 -1.89055E+03 -3.12220E+03  1.99107E+03 -3.91225E+03  2.69245E+03 -1.25096E+03  3.82503E+03  1.43209E+03
  1.98832E+03  1.39840E+03  9.14412E+02  2.19572E+03 -5.52327E+01  1.44288E+03  3.24868E+03 -5.45241E+02
  1.12231E+03  2.32036E+02  3.46592E+03  2.27662E+03  1.64888E+03  4.84707E+03 -1.46210E+02  6.28644E+03
 -3.12894E+03  4.45065E+03 -7.75801E+03  1.56950E+03 -6.50301E+03 -1.48679E+03 -1.10045E+03 -3.32129E+03
  7.26661E+02 -3.53154E+03  2.65865E+03  4.45194E+01  9.47816E+02  2.54160E+03 -1.97831E+03  2.95608E+03
 -4.45719E+03  3.62949E+02 -4.66614E+03 -2.59865E+03 -3.47222E+03 -6.43482E+03  8.51933E+02 -5.42068E+03
  2.83314E+03 -3.73473E+03  3.17196E+03 -6.03389E+02  3.15597E+03  1.84902E+03  1.08707E+03  3.10552E+03
 -1.18272E+03 -4.36576E+01 -1.90774E+03 -1.28818E+03  8.41829E+02 -3.74011E+03  4.65941E+03 -3.15434E+03
  5.67860E+03  2.50119E+02  6.55785E+03  3.55260E+03  1.40388E+03  6.43023E+03 -1.82421E+03  5.42993E+03
 -5.30258E+03  2.82600E+03 -5.20663E+03 -1.15802E+03 -2.07027E+03 -4.41754E+03  1.29355E+03 -3.62476E+03
  3.78266E+03 -1.82654E+03  3.06081E+03  2.14780E+03  1.19527E+03  3.60399E+03 -1.15624E+03  2.55974E+03
 -1.01873E+03  3.32825E+03 -1.85250E+03  6.95697E+02 -8.07885E+02  1.45898E+03 -2.04180E+03  1.45223E+03
 -4.80031E+02  3.78953E+03 -3.66818E+03  2.05028E+03 -5.45345E+03  5.77052E+02 -6.47071E+03 -4.38353E+03
 -3.58491E+03 -6.91029E+03  1.13942E+03 -8.60718E+03  6.03413E+03 -5.95105E+03  8.82038E+03 -2.11635E+03
  6.60330E+03  3.26431E+02  4.39744E+03  5.37375E+03  4.43850E+02  6.39842E+03 -1.81769E+03  5.06872E+03
 -2.10673E+03  1.98298E+03 -2.26193E+03 -8.99585E+02 -1.67555E+03 -1.07267E+03 -1.09734E+03  2.04196E+02
 -1.47985E+03 -5.44477E+02 -1.43524E+03 -5.90527E+02 -5.97831E+01 -6.80153E+02  1.94270E+02 -2.46443E+03
  2.52270E+03 -1.30321E+03  3.58072E+03 -5.88004E+02  4.69950E+03  3.14644E+03  1.10675E+03  5.78285E+03
 -2.77583E+03  5.95801E+03 -6.69645E+03  4.28068E+03 -6.39207E+03 -4.38508E+02 -5.14746E+03 -4.77734E+03
 -1.46877E+03 -6.06695E+03  1.44237E+03 -5.57773E+03  3.52416E+03 -2.98668E+03  2.98601E+03  1.12247E+03
  2.25799E+03  2.20159E+03 -2.52240E+02  1.77487E+03 -1.95115E+03 -7.31022E+02 -5.02332E+02 -3.08036E+02
  3.27152E+03 -6.35499E+02  7.48412E+02  2.99064E+02  1.22886E+03  1.81759E+03  9.96822E+02  2.76576E+03
 -2.28937E+03  2.53814E+03 -3.42642E+03  5.18612E+02 -4.85971E+03 -1.92723E+03  2.91107E+02 -5.45430E+03
  1.98094E+03 -3.94931E+03  3.49618E+03  4.97330E+02  4.81348E+03  1.64543E+03  2.48506E+03  3.15021E+03
  1.41025E+03  4.22653E+03 -1.68059E+03  2.95245E+03 -2.63983E+03  2.28661E+03 -1.56744E+03  9.22400E+01
 -4.81345E+02 -2.12879E+02 -2.80858E+03 -5.24776E+02 -1.60735E+03  3.93089E+02 -2.81762E+03  4.64898E+01
 -2.22629E+03 -2.49507E+03 -5.98706E+02 -5.05275E+03  1.47525E+03 -4.71898E+03  4.17626E+03 -9.30974E+02
  4.90306E+03 -2.74414E+02  2.72717E+03  1.95515E+03 -2.09860E+03  3.73735E+03 -1.97603E+03  3.23309E+03
