 $NMID ID='MM_0lb_SNR200_9hz_g60_30.RAW', FMTDAT='(8E13.5)'
 TRAMP=1., VOLUME=1. $END
  3.10390E+05  6.01211E+02  3.39037E+05  2.50893E+05  8.41619E+04  3.37408E+05 -1.31940E+05  2.51536E+05
 -1.91182E+05  8.38854E+04 -1.11702E+05 -3.15105E+04  2.81190E+03 -5.18577E+04  5.41218E+04  1.45036E+02
  3.74576E+04  5.28607E+04 -1.48286E+04  7.66068E+04 -6.24743E+04  6.61958E+04 -8.48390E+04  3.30794E+04
 -8.21975E+04 -1.25280E+04 -5.79697E+04 -5.44454E+04 -1.65529E+04 -7.07835E+04  2.78858E+04 -4.80818E+04
  4.15901E+04  3.68862E+03  1.60452E+04  5.03371E+04 -3.45943E+04  4.79200E+04 -6.73261E+04  3.92235E+02
 -5.65363E+04 -5.88425E+04 -6.84433E+03 -7.87307E+04  3.55766E+04 -5.74822E+04  4.89179E+04 -1.95935E+04
  4.48720E+04  1.12527E+04  3.39396E+04  2.63984E+04  1.55150E+04  3.16745E+04 -5.95488E+03  2.86243E+04
 -2.33521E+04  1.09225E+04 -1.83241E+04 -5.85567E+03  6.85274E+03 -7.49864E+03  2.49540E+04  1.29266E+04
  5.71159E+03  3.78089E+04 -3.38964E+04  3.79394E+04 -6.69447E+04  1.96934E+03 -5.75352E+04 -4.46263E+04
 -1.27045E+04 -6.82599E+04  4.07857E+04 -4.75420E+04  6.09272E+04 -2.12469E+03  3.80400E+04  3.53548E+04
 -6.06464E+03  4.02841E+04 -3.26981E+04  1.98025E+04 -3.30412E+04 -2.62150E+03 -2.02760E+04 -1.06156E+04
 -1.04039E+04 -1.31636E+04 -7.93141E+02 -2.02600E+04  9.28438E+03 -2.47908E+04  1.65455E+04 -1.36999E+04
  1.03699E+04  5.14159E+03 -1.03788E+04  1.23674E+04 -2.35584E+04 -7.94661E+03 -9.08749E+03 -3.74324E+04
  2.65287E+04 -4.87466E+04  5.43094E+04 -2.03911E+04  4.96829E+04  2.19697E+04  1.84482E+04  4.83854E+04
 -1.62419E+04  3.67883E+04 -2.84673E+04  1.07188E+03 -1.14068E+04 -2.80196E+04  2.09717E+04 -3.74048E+04
  4.61056E+04 -8.85774E+03  4.20144E+04  2.35441E+04  2.22870E+04  5.21447E+04 -8.78267E+03  5.78016E+04
 -3.59836E+04  4.03677E+04 -5.02499E+04  1.16648E+04 -4.75331E+04 -1.90671E+04 -2.58930E+04 -4.13358E+04
  6.57902E+03 -4.28664E+04  3.59356E+04 -1.78508E+04  3.33448E+04  1.22651E+04  6.06808E+03  2.28064E+04
 -1.38710E+04  1.07509E+04 -1.07677E+04 -6.79227E+03  6.36616E+03 -1.20106E+04  1.79979E+04  5.94737E+03
  1.64822E+04  2.25764E+04 -5.06562E+03  2.67585E+04 -2.31709E+04  1.49013E+04 -3.16095E+04 -6.36419E+02
 -2.63036E+04 -1.85337E+04 -1.16391E+04 -2.64204E+04  5.09271E+03 -2.70908E+04  2.21207E+04 -2.35319E+04
  3.41251E+04 -1.43444E+04  3.90356E+04  5.09394E+03  2.84413E+04  2.66990E+04  3.09869E+03  4.19742E+04
 -2.11198E+04  3.42907E+04 -3.14084E+04  1.10762E+04 -2.45386E+04 -1.08069E+04 -4.19760E+03 -1.31595E+04
  9.28048E+02  8.30559E+02 -6.66433E+03  8.27123E+03 -2.13650E+04  3.33144E+03 -2.01422E+04 -1.14466E+04
 -1.31249E+04 -2.51605E+04  8.04105E+03 -2.86020E+04  1.97505E+04 -1.82052E+04  2.30884E+04 -1.35577E+03
  1.52185E+04  1.55486E+04 -1.38264E+03  2.35021E+04 -1.56763E+04  1.44276E+04 -2.39285E+04 -4.98854E+03
 -1.63454E+04 -2.23941E+04 -3.16591E+03 -2.85850E+04  1.34463E+04 -2.50241E+04  2.46472E+04 -1.22762E+04
  2.41951E+04  7.22939E+01  1.55166E+04  6.91119E+03  8.95786E+03  1.84266E+03  1.36175E+04 -2.45130E+03
  2.29291E+04  3.73454E+03  2.68226E+04  2.00641E+04  1.91118E+04  3.96972E+04 -4.29986E+03  4.61312E+04
 -2.59704E+04  3.78741E+04 -4.30744E+04  1.92950E+04 -4.76004E+04 -4.97763E+03 -3.79463E+04 -2.82066E+04
 -1.57928E+04 -3.81713E+04  1.55299E+04 -3.42055E+04  3.01098E+04 -1.72800E+04  2.44938E+04  9.90148E+03
  8.22644E+03  1.95052E+04 -1.36260E+04  1.57331E+04 -2.28038E+04  1.78559E+03 -1.50007E+04 -1.40811E+04
 -1.11993E+03 -2.22393E+04  9.90037E+03 -1.62594E+04  1.21383E+04 -1.72674E+03  4.00743E+03  9.25011E+03
 -7.89063E+03  4.45551E+03 -9.60482E+03 -8.39290E+03 -1.85744E+03 -1.81324E+04  1.27523E+04 -2.16527E+04
  2.12819E+04 -1.19764E+04  2.74226E+04  2.86216E+03  2.42881E+04  1.91993E+04  1.09688E+04  3.07545E+04
 -7.79512E+03  3.29450E+04 -2.18649E+04  2.05319E+04 -2.40711E+04  2.78198E+03 -1.57239E+04 -6.88534E+03
 -7.20786E+03 -5.90852E+03 -1.03385E+03 -6.12394E+02 -4.20991E+03  4.63426E+03 -6.82024E+03  5.94728E+03
 -1.53978E+04 -1.62695E+03 -1.58528E+04 -1.28789E+04 -7.07005E+03 -2.00544E+04  4.72852E+03 -1.67118E+04
  1.32874E+04 -6.52410E+03  9.83376E+03  4.22147E+03 -1.35247E+03  5.32369E+03 -1.04686E+04 -1.88964E+03
 -7.10259E+03 -1.11913E+04  2.03274E+02 -1.82506E+04  1.10251E+04 -1.87250E+04  2.28199E+04 -9.37967E+03
  2.58548E+04  2.48230E+03  1.67472E+04  1.45939E+04  3.05987E+03  2.07881E+04 -1.04330E+04  1.69328E+04
 -1.38214E+04  4.90212E+03 -6.35427E+03 -3.36350E+03  4.71047E+03 -4.33829E+03  9.61307E+03 -1.32352E+03
  6.44128E+03  5.66276E+03  7.77948E+01  1.35181E+04 -1.08624E+04  1.22436E+04 -1.71128E+04  3.25510E+03
 -1.08488E+04 -8.79152E+03  2.52975E+03 -1.41422E+04  8.62774E+03 -8.48000E+03  1.22441E+04  1.60178E+03
  3.13635E+03  1.26361E+04 -8.43844E+03  1.16488E+04 -1.51649E+04  6.25287E+03 -1.60474E+04 -5.23821E+03
 -8.26554E+03 -1.71370E+04  4.35992E+03 -1.80026E+04  1.69201E+04 -1.00558E+04  1.62346E+04  3.87157E+03
  1.02711E+04  1.49384E+04 -2.91918E+03  1.71217E+04 -1.28328E+04  8.92442E+03 -1.27625E+04 -2.51332E+02
 -1.08122E+04 -1.15231E+04 -2.64102E+03 -1.30135E+04  6.31168E+03 -1.04066E+04  8.85539E+03 -4.34751E+03
  4.19359E+03  2.61347E+03 -1.58147E+03  1.85569E+03 -9.88396E+02 -2.93886E+03  2.88943E+03 -9.97761E+03
  1.15833E+04 -6.14761E+03  1.67369E+04  2.60075E+03  1.71065E+04  1.02895E+04  1.15191E+04  2.42526E+04
 -5.68122E+03  2.46049E+04 -2.29597E+04  1.78268E+04 -2.83325E+04  4.31470E+03 -2.42146E+04 -9.33818E+03
 -1.21753E+04 -1.70434E+04 -5.68063E+02 -1.47288E+04  4.33073E+03 -8.91134E+03  4.80382E+03 -5.59889E+03
  3.06695E+03 -3.28524E+03  4.39445E+03 -3.34422E+03  6.24454E+03 -3.80085E+03  8.59945E+03 -1.49218E+03
  1.08581E+04  2.94915E+03  5.70414E+03  1.08763E+04 -1.43480E+03  1.16341E+04 -1.11432E+04  8.59078E+03
 -1.67163E+04 -5.58662E+02 -1.14149E+04 -1.18978E+04 -1.62306E+03 -1.69699E+04  1.05607E+04 -1.71145E+04
  1.68844E+04 -1.04599E+04  2.11141E+04  1.69516E+03  1.57820E+04  1.49909E+04  4.59486E+03  1.97757E+04
 -9.14379E+03  1.53853E+04 -1.13436E+04  5.09167E+03 -8.06261E+03 -2.62458E+03 -2.67029E+03 -1.90597E+03
 -2.98231E+03 -1.31418E+03 -3.28955E+03  3.29063E+03 -6.89524E+03  2.76538E+03 -1.12533E+04 -1.25631E+03
 -9.21017E+03 -1.06237E+04  1.22848E+03 -1.53712E+04  1.00004E+04 -1.44894E+04  1.67996E+04 -3.62983E+03
  1.42944E+04  8.48147E+03  7.55248E+03  1.49857E+04 -3.74966E+03  1.55470E+04 -1.15007E+04  1.02759E+04
 -1.61995E+04  1.25910E+03 -1.12930E+04 -8.75751E+03 -1.93766E+03 -1.47547E+04  7.06609E+03 -8.59486E+03
  9.93910E+03 -3.86859E+03  7.30674E+03  2.30801E+03  2.76157E+03  3.07099E+03  9.39074E+02  3.91010E+03
  2.90197E+03  3.20962E+02  3.57364E+03  2.83902E+03  4.66589E+03  4.18401E+03  5.10884E+03  1.00843E+04
 -4.06352E+03  1.25787E+04 -1.15117E+04  1.38185E+04 -1.55513E+04  4.17165E+03 -1.67109E+04 -6.26962E+03
 -8.95388E+03 -1.67145E+04  4.11232E+03 -1.73758E+04  1.09945E+04 -1.11444E+04  1.29468E+04 -3.48402E+03
  9.42713E+03  7.13536E+03  3.01192E+03  8.70190E+03 -4.05975E+03  7.18058E+03 -7.56655E+03  8.44408E+01
 -3.92252E+03 -5.81606E+03  4.91023E+03 -7.01954E+03  7.71815E+03 -2.83969E+03  6.12516E+03  2.82372E+03
  2.98685E+03  4.44080E+03  1.16261E+03  1.31445E+03 -1.00054E+03  2.00114E+03  1.60883E+03 -5.91754E+02
  7.07844E+02 -1.09830E+03  6.21889E+03  2.25581E+03  3.92523E+03  9.08255E+03 -2.80918E+02  1.13395E+04
 -7.26334E+03  8.22783E+03 -1.08898E+04  2.47771E+03 -9.80341E+03 -3.41180E+03 -3.21611E+03 -5.12412E+03
  2.70387E+03 -5.67792E+03  3.72425E+03 -1.13861E+03  7.32117E+02  3.05033E+03 -1.27867E+03  5.69447E+03
 -5.97650E+03  2.90858E+03 -8.31282E+03 -2.28650E+03 -3.04001E+03 -9.17439E+03 -1.21735E+03 -9.69114E+03
  5.47830E+03 -4.29321E+03  6.41338E+03 -1.47011E+02  5.83707E+03  2.79349E+03  1.51886E+03  5.08062E+03
 -3.44414E+03 -1.23822E+03 -3.39303E+03 -2.75342E+03  1.72925E+03 -7.11448E+03  7.16844E+03 -5.79951E+03
  1.04025E+04  1.14768E+02  1.10617E+04  6.47843E+03  3.88342E+03  9.97359E+03 -4.23704E+03  1.14851E+04
 -7.86314E+03  5.17171E+03 -9.48233E+03 -2.22719E+03 -5.71514E+03 -7.99610E+03 -2.54647E+02 -7.87466E+03
  6.15726E+03 -3.07938E+03  5.26682E+03  1.63416E+03  1.82417E+03  7.09444E+03 -1.66300E+03  5.95231E+03
 -2.36988E+03  2.70230E+03 -3.10447E+03  1.08262E+03 -6.80384E+02  9.20930E+02 -2.47749E+03  1.99963E+03
 -4.07281E+03  3.84855E+03 -8.89082E+03  4.54558E+03 -1.13430E+04  9.04870E+01 -1.27700E+04 -6.80712E+03
 -6.55663E+03 -1.30877E+04  1.69412E+03 -1.66833E+04  9.53789E+03 -1.32049E+04  1.62359E+04 -4.56292E+03
  1.60746E+04  2.72706E+03  1.03925E+04  1.04740E+04  1.65462E+03  1.21508E+04 -2.97596E+03  9.39357E+03
 -5.84240E+03  2.64994E+03 -4.84560E+03 -2.06784E+03 -4.26512E+02 -1.86022E+03 -9.91713E+01 -1.56941E+03
 -2.32298E+03  2.03813E+03 -2.70027E+03  4.58912E+02  3.34078E+01 -2.03131E+03  8.42719E+02 -3.09709E+03
  5.25544E+03 -4.50226E+03  6.79533E+03 -2.01584E+02  7.35496E+03  7.21670E+03  2.81182E+03  1.30137E+04
 -6.19815E+03  1.16812E+04 -1.26818E+04  5.98575E+03 -1.30254E+04 -2.22501E+03 -1.08687E+04 -9.19345E+03
 -4.86051E+03 -1.25369E+04  3.53351E+03 -9.32838E+03  7.18401E+03 -5.66274E+03  8.43519E+03  1.05209E+03
  2.79615E+03  1.93903E+03 -1.46113E+03  3.71286E+03 -3.79672E+03  1.08998E+03  3.00701E+02 -1.83308E+03
  4.25154E+03  2.80911E+02  4.22750E+03  4.99942E+02  4.08939E+03  2.37115E+03  2.51906E+02  5.39494E+03
 -5.15935E+03  5.42946E+03 -8.34657E+03  1.30011E+03 -8.68722E+03 -5.39027E+03 -2.22221E+03 -1.04352E+04
  5.81350E+03 -8.21871E+03  8.09782E+03 -1.35210E+03  8.61064E+03  1.28890E+03  6.20266E+03  8.42001E+03
  6.17291E+02  6.19910E+03 -3.94213E+03  4.69165E+03 -3.17950E+03  4.15673E+03 -3.07929E+03  5.00446E+02
 -2.72250E+03  1.30570E+03 -3.36242E+03  2.25015E+03 -4.47944E+03  1.59648E+03 -7.97632E+03 -5.92754E+02
 -4.92311E+03 -5.09341E+03 -6.64958E+02 -6.61168E+03  3.72176E+03 -8.40971E+03  6.78660E+03 -3.43454E+03
  8.43115E+03  1.67558E+03  4.17279E+03  5.34733E+03 -1.51478E+03  6.85530E+03 -5.96787E+03  6.31964E+03
