 $NMID ID='MM_0lb_SNR200_14hz_g40_33.RAW', FMTDAT='(8E13.5)'
 TRAMP=1., VOLUME=1. $END
  3.08891E+05  1.07580E+03  3.37775E+05  2.51557E+05  8.59421E+04  3.39245E+05 -1.33361E+05  2.50802E+05
 -1.90075E+05  8.27710E+04 -1.12493E+05 -3.40258E+04  3.93526E+02 -5.01169E+04  5.31849E+04  4.39599E+02
  3.34205E+04  5.31404E+04 -1.75962E+04  7.51132E+04 -6.08509E+04  6.33609E+04 -8.31639E+04  3.23029E+04
 -7.96267E+04 -1.13571E+04 -5.73405E+04 -5.10778E+04 -1.43384E+04 -6.99850E+04  2.81897E+04 -4.46610E+04
  4.08878E+04  3.28458E+03  1.52359E+04  4.75612E+04 -3.40385E+04  4.61304E+04 -6.65390E+04 -7.84340E+02
 -5.26601E+04 -5.64861E+04 -6.61087E+03 -7.57141E+04  3.33196E+04 -5.43346E+04  4.76416E+04 -1.74417E+04
  4.24767E+04  1.03732E+04  3.14186E+04  2.54016E+04  1.62551E+04  2.83841E+04 -6.09402E+03  2.67711E+04
 -2.19189E+04  1.17018E+04 -1.75732E+04 -3.91411E+03  6.56196E+03 -7.53316E+03  2.18009E+04  1.26503E+04
  6.81044E+03  3.45384E+04 -3.28440E+04  3.57695E+04 -6.23832E+04  3.00247E+03 -5.63149E+04 -4.27151E+04
 -1.20448E+04 -6.33931E+04  3.85450E+04 -4.42323E+04  5.69064E+04 -1.88179E+03  3.29486E+04  3.23072E+04
 -7.71222E+03  3.49879E+04 -2.95441E+04  1.51164E+04 -3.02636E+04 -4.54733E+03 -1.59663E+04 -9.58140E+03
 -6.95755E+03 -1.22267E+04 -1.33494E+03 -1.79353E+04  6.47299E+03 -2.24532E+04  1.48267E+04 -1.45072E+04
  1.08920E+04  5.74690E+03 -7.86908E+03  1.30682E+04 -2.15360E+04 -5.22781E+03 -7.66884E+03 -3.23189E+04
  2.15014E+04 -4.23979E+04  4.71620E+04 -1.90593E+04  4.46358E+04  1.86239E+04  1.45318E+04  4.38577E+04
 -1.55075E+04  3.26308E+04 -2.47258E+04  2.44558E+03 -9.41477E+03 -2.82578E+04  2.15038E+04 -3.37269E+04
  4.14904E+04 -7.83254E+03  3.43130E+04  2.31365E+04  1.82101E+04  4.48039E+04 -7.93600E+03  4.90783E+04
 -3.11084E+04  3.39471E+04 -4.05165E+04  8.75068E+03 -4.28024E+04 -1.70456E+04 -2.32895E+04 -3.52868E+04
  6.46505E+03 -3.85151E+04  3.07657E+04 -1.47319E+04  2.82818E+04  1.06083E+04  3.18762E+03  1.68363E+04
 -1.28365E+04  8.27097E+03 -1.00824E+04 -7.18875E+03  5.22728E+03 -1.08181E+04  1.74278E+04  6.95701E+03
  1.42627E+04  2.04648E+04 -6.29072E+03  2.47594E+04 -2.22378E+04  1.13886E+04 -2.80018E+04 -3.59746E+03
 -1.91364E+04 -1.66232E+04 -8.28415E+03 -1.92127E+04  3.44042E+03 -1.90862E+04  1.49963E+04 -1.71244E+04
  2.29267E+04 -1.19289E+04  3.12922E+04  1.69296E+03  2.36083E+04  1.78963E+04  4.28562E+03  3.61847E+04
 -1.71551E+04  2.92849E+04 -2.70973E+04  9.58217E+03 -1.97581E+04 -1.17626E+04 -4.87885E+03 -1.42474E+04
  1.92878E+03 -2.76994E+03 -3.25713E+03  5.39425E+03 -1.63205E+04  5.43197E+03 -1.46229E+04 -6.85169E+03
 -1.07296E+04 -1.65812E+04  5.47161E+03 -2.23931E+04  1.50428E+04 -1.65891E+04  1.69473E+04 -1.24274E+03
  1.17113E+04  1.31206E+04 -7.78926E+02  1.89587E+04 -1.13853E+04  1.08987E+04 -1.82548E+04 -4.28779E+03
 -1.38531E+04 -1.67103E+04 -1.63960E+03 -2.05566E+04  9.23693E+03 -1.80033E+04  1.88162E+04 -9.31608E+03
  1.73891E+04 -8.51697E+01  1.31965E+04  4.59635E+03  7.39688E+03  9.43027E+02  9.88332E+03 -2.39740E+03
  1.59057E+04  2.20246E+03  1.83632E+04  1.46644E+04  1.13813E+04  2.92344E+04 -2.27713E+03  3.20893E+04
 -1.81531E+04  2.63438E+04 -3.07345E+04  1.14718E+04 -3.19382E+04 -2.04909E+03 -2.53357E+04 -1.95905E+04
 -1.17612E+04 -2.70232E+04  8.54830E+03 -2.34016E+04  2.11939E+04 -1.13119E+04  1.84766E+04  5.83722E+03
  6.47240E+03  1.40701E+04 -9.72897E+03  1.27504E+04 -1.47994E+04  2.84895E+03 -1.12218E+04 -8.96390E+03
  2.96157E+02 -1.37903E+04  5.95289E+03 -1.17092E+04  1.06873E+04 -7.79776E+02  1.34774E+03  5.51717E+03
 -7.05776E+03  9.77444E+02 -6.29483E+03 -4.51131E+03  6.90619E+02 -1.23682E+04  8.76821E+03 -1.25084E+04
  1.53020E+04 -5.80227E+03  1.69506E+04  2.94883E+03  1.34881E+04  1.24161E+04  6.61198E+03  1.89975E+04
 -4.02755E+03  1.96067E+04 -1.37294E+04  1.25607E+04 -1.54850E+04  3.23778E+03 -1.12603E+04 -4.15440E+03
 -5.33614E+03 -4.38729E+03 -8.15712E+01  1.33433E+03 -2.67738E+03  2.18204E+03 -4.38864E+03  4.57451E+03
 -1.10683E+04 -5.17127E+02 -9.88359E+03 -9.16566E+03 -3.72980E+03 -1.46371E+04  5.45782E+03 -1.24069E+04
  9.17061E+03 -3.94302E+03  6.72924E+03  2.04724E+03 -1.12634E+03  5.20622E+03 -5.21029E+03 -6.41660E+02
 -4.76295E+03 -6.91528E+03 -1.84849E+02 -9.23612E+03  5.58058E+03 -1.15904E+04  1.37138E+04 -4.69691E+03
  1.59831E+04  1.02587E+03  1.34731E+04  8.08264E+03  3.19711E+03  1.20215E+04 -6.91794E+03  1.07330E+04
 -9.40788E+03  4.40285E+03 -4.54128E+03 -2.19505E+03  1.40072E+03 -3.15480E+03  6.37497E+03 -1.19991E+03
  4.40011E+03  5.23852E+03  2.19981E+02  8.97144E+03 -5.53577E+03  7.40123E+03 -1.09002E+04  2.13194E+03
 -6.75823E+03 -5.40320E+03  9.37377E+02 -9.62316E+03  5.76273E+03 -3.39532E+03  7.07546E+03  1.58228E+03
  1.57988E+03  5.08882E+03 -4.94049E+03  7.60499E+03 -7.81346E+03  3.36850E+03 -7.93901E+03 -2.03902E+03
 -5.58196E+03 -9.12667E+03  2.47911E+03 -1.22480E+04  9.58253E+03 -6.78692E+03  9.67750E+03  7.96040E+02
  6.99253E+03  6.83389E+03  4.85472E+02  1.04211E+04 -6.92091E+03  6.32967E+03 -8.31706E+03 -1.51172E+02
 -8.12302E+03 -6.69646E+03 -2.16770E+03 -7.46518E+03  5.54611E+03 -5.74553E+03  4.04173E+03 -4.55193E+03
  3.90369E+03  5.35086E+02 -1.13669E+03  1.28180E+03  2.62936E+02 -1.09012E+03  1.14803E+03 -3.34385E+03
  5.69714E+03 -2.34489E+03  8.75686E+03  9.84593E+02  8.61355E+03  6.06183E+03  6.64447E+03  1.16031E+04
 -2.18039E+03  1.28811E+04 -1.17061E+04  9.72396E+03 -1.47462E+04  2.16331E+03 -1.19540E+04 -4.73342E+03
 -5.86177E+03 -9.85577E+03 -2.90034E+01 -9.15490E+03  2.45544E+03 -4.69998E+03  1.98849E+03 -3.96336E+03
  1.97866E+03 -2.28699E+03  2.56430E+03 -2.84317E+03  3.45420E+03 -1.92445E+03  6.20939E+03 -8.82936E+02
  6.16682E+03  1.11446E+03  1.43484E+03  6.10384E+03 -1.72317E+03  4.99938E+03 -7.42981E+03  5.51761E+03
 -7.67487E+03 -2.11876E+01 -4.33737E+03 -5.73812E+03 -6.80802E+02 -8.03773E+03  4.17685E+03 -9.03104E+03
  8.91420E+03 -4.84030E+03  1.02151E+04  1.28658E+03  6.73217E+03  6.30188E+03  5.24888E+02  8.58243E+03
 -4.53290E+03  8.72114E+03 -5.49258E+03  3.58941E+03 -2.78728E+03 -6.28975E+02 -2.00146E+03 -1.27648E+03
 -5.32463E+02 -4.41149E+02 -8.66978E+02  2.07393E+03 -2.38924E+03  1.48631E+03 -5.98521E+03 -4.03592E+02
 -3.81449E+03 -5.94436E+03 -3.63780E+02 -8.27261E+03  6.26874E+03 -6.45980E+03  6.64745E+03 -1.53034E+03
  7.84281E+03  3.63874E+03  2.91754E+03  5.85978E+03 -6.18796E+02  7.76217E+03 -5.33333E+03  3.84469E+03
 -8.08746E+03  1.79487E+03 -6.38820E+03 -3.96451E+03 -6.43620E+02 -5.18364E+03  2.47633E+03 -4.72603E+03
  4.55029E+03 -1.89732E+03  4.25930E+03  2.21787E+03  1.12097E+03  1.50265E+03  1.17348E+03  2.28053E+03
  2.08747E+03  7.72527E+02  1.89920E+03  2.53327E+03  2.09696E+03  2.77124E+03  3.04752E+03  3.21651E+03
 -2.93021E+03  6.79798E+03 -3.78467E+03  6.89548E+03 -6.09375E+03  5.03317E+02 -7.50301E+03 -2.24669E+03
 -3.44347E+03 -6.65523E+03  3.91372E+02 -7.63130E+03  4.06224E+03 -4.10680E+03  5.49905E+03 -1.96146E+03
  3.26977E+03  2.89165E+03 -1.55480E+03  3.27946E+03 -1.58027E+03  3.72988E+03 -1.87586E+03 -1.30532E+02
 -4.44351E+02 -3.54471E+03  1.75983E+03 -3.74444E+03  2.12416E+03 -1.30248E+03  3.13491E+03  1.56095E+03
  1.08725E+03  1.51561E+03 -4.08168E+02  1.31343E+03  2.51641E+02  1.00306E+03  2.24195E+03  3.46237E+02
  1.50411E+03 -7.32477E+02  2.68086E+03  1.13617E+03  1.63481E+03  3.07636E+03 -5.84342E+02  4.93794E+03
 -3.86882E+03  2.64550E+03 -3.44569E+03  8.99785E+02 -3.41096E+03 -2.10218E+03 -6.35356E+02 -9.00939E+02
 -3.20135E+02 -2.92918E+03  2.38304E+03 -1.37619E+03  1.62882E+03  2.17819E+03 -1.45500E+03  1.54675E+03
 -3.36412E+03  1.72387E+03 -1.39208E+03 -8.45047E+02 -2.37032E+03 -4.56732E+03 -1.51061E+02 -2.86851E+03
  1.05501E+03 -2.06668E+03  2.21951E+03  2.72613E+02  2.76902E+03  2.79638E+02 -3.09843E+01  2.54853E+03
 -1.58815E+03  1.11166E+03 -4.90395E+02 -6.82164E+02  2.22303E+03 -1.46114E+03  3.18137E+03 -2.25888E+03
  2.36986E+03 -1.31230E+02  5.16623E+03  2.42533E+03  1.36408E+03  3.94381E+03 -1.94630E+03  4.40379E+03
 -3.86822E+03  2.07004E+03 -3.88492E+03 -3.91393E+02 -1.63372E+03 -2.68046E+03  7.33081E+02 -2.34910E+03
  3.13549E+03 -2.25069E+03  3.08327E+03  1.62515E+01  8.99740E+02  3.21631E+03 -3.09194E+02  1.79208E+03
 -4.20539E+02  9.77222E+02 -2.91570E+02 -3.15805E+02 -9.32636E+02  6.89542E+01 -1.52838E+03  3.62852E+02
 -1.56820E+03  1.96291E+03 -4.00712E+03  2.15586E+03 -3.73621E+03 -4.14834E+02 -5.16147E+03 -2.22426E+03
 -1.80805E+03 -5.09452E+03  7.56092E+02 -6.50624E+03  3.07347E+03 -5.37328E+03  6.17373E+03 -2.48958E+03
  5.16888E+03  1.72352E+03  2.96079E+03  3.93575E+03 -9.90624E+02  4.18264E+03 -1.12940E+03  2.04385E+03
 -3.00086E+03  1.20042E+03 -1.11436E+03  7.00606E+00  8.24278E+01 -6.36155E+02 -5.35008E+02  1.52057E+02
 -2.00521E+03  2.60979E+02 -2.71658E+02 -8.22336E+02  4.56715E+02 -2.59377E+02  2.20556E+02 -1.16383E+03
  1.93424E+03 -1.32373E+03  2.03484E+03 -8.61740E+02  3.48719E+03  3.14404E+03 -9.36755E+02  3.83532E+03
 -1.38466E+03  5.14313E+03 -5.03609E+03  3.12590E+03 -5.53467E+03 -1.42450E+03 -4.50939E+03 -3.86625E+03
 -2.11671E+03 -4.12148E+03  5.43012E+02 -4.38529E+03  2.04881E+03 -1.27005E+03  1.69895E+03  1.39410E+03
  2.39287E+03  6.36963E+02  1.85279E+01  9.97870E+02 -1.44307E+03  3.09678E+02 -6.26262E+02 -1.34733E+03
  1.31775E+03  7.61905E+02 -2.35360E+02  4.72511E+02  4.76874E+02  1.86454E+03 -1.30720E+02  1.97193E+03
 -1.39232E+03  1.58408E+03 -1.46053E+03 -5.71928E+02 -2.28415E+03 -1.98291E+03 -6.92850E+02 -3.80433E+03
  2.19088E+03 -3.20455E+03  2.16104E+03 -6.96837E+02  3.04879E+03 -1.00196E+03  1.11914E+03  7.68387E+02
 -8.78237E+02  1.40186E+03 -2.50288E+02  2.37583E+03 -9.84586E+02  1.62110E+03  3.21030E+02  2.41068E+02
 -1.68006E+03 -2.53636E+02 -1.92440E+03 -1.31166E+03 -1.20626E+03  3.94890E+02 -2.54483E+03 -5.55192E+02
 -1.90895E+03 -1.18827E+03 -5.86360E+02 -3.06986E+03  1.27535E+03 -3.42485E+03  1.59605E+03 -1.12083E+03
  3.08483E+03 -9.55321E+02  2.46342E+03  1.26870E+03 -4.85120E+02  1.69291E+03 -1.67897E+03  6.56518E+02
