 $NMID ID='MM_0lb_SNR200_10hz_g60_46.RAW', FMTDAT='(8E13.5)'
 TRAMP=1., VOLUME=1. $END
  3.08916E+05  8.55678E+01  3.37978E+05  2.51145E+05  8.64830E+04  3.39599E+05 -1.32998E+05  2.53020E+05
 -1.92683E+05  8.27878E+04 -1.13064E+05 -3.15573E+04 -6.39169E+02 -5.14033E+04  5.44015E+04 -1.20052E+03
  3.66858E+04  5.26634E+04 -1.64597E+04  7.62150E+04 -5.98141E+04  6.51614E+04 -8.52384E+04  3.20004E+04
 -8.19911E+04 -1.14399E+04 -6.05676E+04 -5.17338E+04 -1.58979E+04 -7.11297E+04  2.82905E+04 -4.66249E+04
  4.16047E+04  3.29981E+03  1.77245E+04  4.92916E+04 -3.43886E+04  4.74208E+04 -6.76151E+04 -8.75172E+02
 -5.42731E+04 -5.88721E+04 -7.41796E+03 -7.92264E+04  3.62313E+04 -5.56900E+04  4.94147E+04 -1.72241E+04
  4.65937E+04  1.14043E+04  3.31496E+04  2.47164E+04  1.59662E+04  3.15312E+04 -4.23782E+03  2.63024E+04
 -2.28620E+04  1.11503E+04 -1.68206E+04 -5.61346E+03  8.02326E+03 -7.02773E+03  2.33266E+04  1.50330E+04
  6.93844E+03  3.78323E+04 -3.45269E+04  3.80180E+04 -6.62946E+04  2.09878E+03 -5.93599E+04 -4.54753E+04
 -1.23305E+04 -6.57990E+04  4.14039E+04 -4.64087E+04  6.16154E+04 -1.46170E+03  3.63982E+04  3.47440E+04
 -6.61277E+03  4.06140E+04 -3.19222E+04  1.69957E+04 -3.43843E+04 -3.05868E+03 -1.85782E+04 -1.18639E+04
 -1.04853E+04 -1.62684E+04 -6.19503E+02 -2.01714E+04  9.15738E+03 -2.55833E+04  1.65549E+04 -1.26424E+04
  9.46044E+03  5.04535E+03 -1.00403E+04  1.29010E+04 -2.50879E+04 -6.39539E+03 -7.71377E+03 -3.75968E+04
  2.44251E+04 -4.68390E+04  5.38437E+04 -2.15377E+04  4.87608E+04  2.10019E+04  1.55089E+04  4.71770E+04
 -1.61977E+04  3.57543E+04 -2.79958E+04  1.78446E+03 -1.13617E+04 -2.95086E+04  2.20145E+04 -3.70772E+04
  4.53368E+04 -9.99321E+03  4.10814E+04  2.39934E+04  2.02826E+04  5.05122E+04 -7.10344E+03  5.64651E+04
 -3.53549E+04  3.95471E+04 -4.81518E+04  9.76025E+03 -4.61335E+04 -1.97508E+04 -2.57993E+04 -4.24195E+04
  8.84139E+03 -4.18330E+04  3.42328E+04 -1.78688E+04  3.16617E+04  1.26959E+04  3.36133E+03  2.01803E+04
 -1.26746E+04  1.09622E+04 -1.19861E+04 -7.37522E+03  5.71274E+03 -1.11442E+04  1.98942E+04  5.15335E+03
  1.42569E+04  2.33110E+04 -5.61607E+03  2.76165E+04 -2.25978E+04  1.44579E+04 -3.04898E+04 -3.75895E+03
 -2.72880E+04 -1.85196E+04 -1.09292E+04 -2.41773E+04  4.21866E+03 -2.51970E+04  1.96916E+04 -2.34781E+04
  3.14127E+04 -1.49603E+04  3.77136E+04  4.41433E+03  2.64908E+04  2.40132E+04  4.68539E+03  4.13197E+04
 -1.97690E+04  3.52560E+04 -3.18497E+04  1.10834E+04 -2.30321E+04 -1.00098E+04 -4.56956E+03 -1.35422E+04
  1.46374E+02 -2.66911E+02 -7.03991E+03  9.19385E+03 -1.99547E+04  5.37799E+03 -2.23927E+04 -1.00293E+04
 -1.19922E+04 -2.36275E+04  6.78583E+03 -2.88485E+04  1.75068E+04 -2.09897E+04  2.03174E+04 -1.23901E+03
  1.34691E+04  1.59703E+04 -5.98068E+02  2.41291E+04 -1.84954E+04  1.48158E+04 -2.17233E+04 -5.63111E+03
 -1.73080E+04 -2.17354E+04 -2.34696E+03 -3.00732E+04  1.25463E+04 -2.26059E+04  2.33486E+04 -1.27554E+04
  1.99552E+04 -3.15852E+02  1.58540E+04  5.43809E+03  8.26373E+03  1.49414E+03  1.28907E+04 -3.43677E+03
  2.20148E+04  2.67706E+03  2.46152E+04  1.74547E+04  1.72337E+04  3.83772E+04 -1.92714E+03  4.44252E+04
 -2.66973E+04  3.80761E+04 -4.13049E+04  1.98526E+04 -4.49570E+04 -4.53905E+03 -3.63341E+04 -2.58917E+04
 -1.56122E+04 -3.73624E+04  1.41343E+04 -3.32833E+04  2.76765E+04 -1.63394E+04  2.49203E+04  8.53915E+03
  9.13049E+03  1.96872E+04 -1.26620E+04  1.49672E+04 -1.88992E+04  3.98250E+03 -1.50184E+04 -1.36849E+04
  1.99307E+02 -1.97792E+04  1.03239E+04 -1.30898E+04  1.21179E+04 -1.21451E+03  3.99141E+03  8.00727E+03
 -7.77083E+03  4.20264E+03 -9.05448E+03 -6.64802E+03 -3.11884E+03 -1.65925E+04  1.17200E+04 -1.92432E+04
  2.24902E+04 -9.76314E+03  2.58988E+04  2.88566E+03  2.15546E+04  1.84612E+04  9.83937E+03  2.84828E+04
 -5.26661E+03  3.10005E+04 -2.00462E+04  1.74038E+04 -2.22815E+04  4.63172E+03 -1.34377E+04 -5.46481E+03
 -6.41130E+03 -6.23452E+03 -1.62751E+03 -3.18724E+02 -3.39103E+03  2.86151E+03 -7.71556E+03  4.66082E+03
 -1.41788E+04 -7.50973E+02 -1.55770E+04 -1.06988E+04 -5.68931E+03 -1.88223E+04  7.45423E+03 -1.47115E+04
  1.07179E+04 -5.74283E+03  9.01307E+03  3.17903E+03 -9.48346E+02  6.08366E+03 -7.06789E+03 -3.69974E+02
 -7.79530E+03 -1.05713E+04 -1.58759E+03 -1.59826E+04  9.80971E+03 -1.68261E+04  1.90400E+04 -8.21524E+03
  2.28826E+04  2.45125E+03  1.66577E+04  1.49466E+04  2.29689E+03  1.90006E+04 -9.45344E+03  1.66417E+04
 -1.24870E+04  7.05419E+03 -6.05237E+03 -3.32774E+03  2.75325E+03 -4.47474E+03  7.61296E+03 -9.59127E+02
  7.56427E+03  5.65073E+03  2.29182E+02  1.14351E+04 -9.84604E+03  1.18047E+04 -1.59777E+04  3.98277E+03
 -1.07668E+04 -1.00938E+04  5.47662E+02 -1.27898E+04  9.00751E+03 -6.12978E+03  9.49324E+03  2.33102E+03
  3.08384E+03  1.08970E+04 -7.52315E+03  1.15858E+04 -1.49034E+04  5.60188E+03 -1.39591E+04 -4.79217E+03
 -8.26643E+03 -1.60918E+04  2.93096E+03 -1.80390E+04  1.56153E+04 -1.17157E+04  1.54512E+04  3.46996E+03
  1.04153E+04  1.24739E+04 -1.87928E+03  1.60651E+04 -1.21517E+04  9.73156E+03 -1.20309E+04 -1.10208E+03
 -1.11829E+04 -1.21155E+04 -8.43302E+02 -1.25007E+04  6.96090E+03 -9.76266E+03  7.93533E+03 -3.87012E+03
  5.01653E+03  1.32037E+03 -7.33755E+01  2.39234E+03 -3.80903E+02 -3.60784E+03  3.59921E+03 -7.13810E+03
  1.10673E+04 -5.89361E+03  1.51496E+04  1.76829E+03  1.52405E+04  1.10779E+04  1.05530E+04  2.09067E+04
 -4.20936E+03  2.32657E+04 -1.83544E+04  1.82722E+04 -2.64885E+04  3.68608E+03 -1.90849E+04 -9.81142E+03
 -8.46598E+03 -1.44267E+04 -9.74628E+02 -1.36018E+04  4.29202E+03 -9.07128E+03  4.21402E+03 -5.09624E+03
  4.30169E+03 -4.12124E+03  3.54572E+03 -4.53925E+03  5.90150E+03 -2.85618E+03  7.49788E+03 -2.64512E+03
  9.64367E+03  1.37629E+03  7.32836E+03  7.66127E+03 -6.87969E+02  1.09934E+04 -1.04908E+04  8.62283E+03
 -1.55309E+04 -2.82144E+03 -8.05081E+03 -1.14426E+04 -6.86776E+02 -1.46133E+04  9.17180E+03 -1.47661E+04
  1.66036E+04 -6.91711E+03  1.79857E+04  1.72720E+03  1.16309E+04  1.26112E+04  1.41225E+03  1.65385E+04
 -6.61147E+03  1.48761E+04 -1.01587E+04  4.65223E+03 -7.17710E+03 -3.08124E+03 -3.81572E+03 -2.49822E+03
 -2.37724E+02 -4.22340E+02 -2.90196E+03  3.27579E+03 -6.59652E+03 -5.29275E+02 -9.49416E+03 -1.56592E+03
 -8.11615E+03 -9.58450E+03 -6.69712E+02 -1.39695E+04  7.04579E+03 -1.31613E+04  1.44285E+04 -4.84185E+03
  1.42696E+04  6.64889E+03  6.35446E+03  1.19849E+04 -3.64023E+03  1.43135E+04 -1.16693E+04  8.92903E+03
 -1.45003E+04  1.22680E+02 -1.08493E+04 -9.55029E+03 -1.62389E+03 -1.24257E+04  6.28956E+03 -8.41089E+03
  8.95903E+03 -2.99092E+03  6.46869E+03  1.42732E+03  3.46971E+03  4.71980E+03  9.78282E+02  1.04177E+03
  2.43452E+03  1.72588E+03  4.41812E+03  1.74396E+03  4.77178E+03  3.94404E+03  2.96687E+03  6.49783E+03
 -3.45018E+03  1.13781E+04 -1.01245E+04  1.02153E+04 -1.47599E+04  2.04863E+03 -1.68159E+04 -4.24926E+03
 -6.00473E+03 -1.62665E+04  2.95998E+03 -1.44389E+04  7.78026E+03 -1.11070E+04  1.33812E+04 -2.53732E+03
  8.37853E+03  5.62097E+03  2.59928E+03  7.41677E+03 -4.22334E+03  5.98032E+03 -5.44381E+03  1.33973E+02
 -2.67419E+03 -5.53590E+03  3.42664E+03 -5.03879E+03  5.33030E+03 -3.24016E+03  5.55380E+03  2.01417E+03
  3.70846E+03  3.60747E+03  1.38362E+03  3.27474E+03 -1.40981E+03  2.73165E+03  1.64433E+03  1.66507E+02
  1.60117E+03 -2.26646E+02  5.47822E+03  1.60766E+03  2.27840E+03  8.51241E+03 -1.62292E+03  9.67361E+03
 -7.69172E+03  6.20174E+03 -9.80671E+03  1.10496E+03 -7.72311E+03 -2.93605E+03 -3.05127E+03 -5.74761E+03
  2.45774E+02 -6.43316E+03  1.94542E+03 -2.75656E+03  4.24707E+03  3.12345E+03 -1.97284E+03  4.61812E+03
 -7.10531E+03  1.68862E+03 -7.42945E+03 -2.83534E+03 -4.15603E+03 -7.95553E+03  7.13176E+02 -7.34937E+03
  6.69414E+03 -4.68873E+03  6.82638E+03 -1.32980E+03  3.03736E+03  5.95902E+01  1.61583E+02  4.46647E+03
 -3.06416E+03  4.35104E+02 -4.34671E+03 -1.17575E+03  1.43356E+03 -4.83866E+03  5.90118E+03 -6.08292E+03
  9.71313E+03  8.83144E+01  9.23086E+03  7.01170E+03  2.53953E+03  9.56432E+03 -4.18667E+03  8.50809E+03
 -7.47752E+03  4.32347E+03 -7.67118E+03 -9.15704E+02 -4.09025E+03 -6.75679E+03  1.51962E+03 -5.12764E+03
  5.93237E+03 -5.05352E+03  4.02005E+03  2.35138E+03  2.64475E+03  5.20167E+03 -1.01095E+03  5.06658E+03
 -1.80821E+03  2.09508E+03 -3.18688E+03  3.37959E+02 -7.54840E+02  6.45412E+02 -1.80846E+03  1.52404E+02
 -3.41981E+03  3.31533E+03 -7.35737E+03  3.01899E+03 -9.09279E+03  5.73773E+02 -1.06019E+04 -5.55186E+03
 -5.96411E+03 -1.14903E+04  1.87993E+03 -1.54297E+04  7.75591E+03 -1.18204E+04  1.25563E+04 -4.40928E+03
  1.32221E+04  3.44565E+03  8.37314E+03  8.79762E+03  9.27006E+02  9.57612E+03 -4.59696E+03  7.99791E+03
 -5.84771E+03  1.66471E+03 -3.37630E+03 -3.04544E+02  8.22686E+02  9.45840E+02 -1.66583E+03  4.92622E+02
 -2.16961E+03  4.47881E+02 -1.21292E+03 -2.77372E+02 -2.16302E+03 -1.74968E+03  7.11555E+02 -4.63392E+03
  5.12014E+03 -3.55308E+03  6.90854E+03  5.36114E+02  7.30862E+03  5.96539E+03  3.80052E+02  8.35372E+03
 -3.31351E+03  1.13330E+04 -1.30839E+04  6.38128E+03 -1.18345E+04 -1.11971E+02 -7.71759E+03 -6.45770E+03
 -3.48940E+03 -8.16344E+03  1.71542E+03 -8.18363E+03  4.70501E+03 -5.01259E+03  5.80613E+03  3.77513E+02
  4.46226E+03  3.34981E+03  4.97301E+02  3.09525E+03 -3.22296E+03  4.31905E+02  4.19687E+02 -2.69115E+03
  2.01897E+03 -1.05331E+03  3.59520E+03  1.28958E+03  2.03235E+03  3.55240E+03 -3.09007E+01  4.43290E+03
 -3.07777E+03  5.20666E+03 -5.04895E+03 -1.20154E+03 -6.27980E+03 -5.32986E+03  6.55830E+02 -6.03155E+03
  4.77858E+03 -5.89623E+03  6.98205E+03 -2.88388E+03  6.63690E+03  1.45590E+03  4.93336E+03  6.73617E+03
  7.95829E+02  5.88531E+03 -2.37055E+03  5.21259E+03 -3.12869E+03  1.24166E+03 -3.69276E+03  2.21062E+02
 -1.04256E+03  2.84140E+02 -2.32175E+03  3.84280E+02 -2.59483E+03 -2.27991E+02 -4.53235E+03 -4.76053E+02
 -4.70868E+03 -3.34398E+03 -1.80739E+03 -5.91231E+03  4.01633E+03 -6.60283E+03  2.78210E+03 -3.12447E+03
  6.32520E+03  2.37418E+03  1.81085E+03  4.36683E+03 -1.23622E+02  6.03833E+03 -5.09203E+03  4.18224E+03
