 $NMID ID='MM_0lb_SNR200_19hz_g45_11.RAW', FMTDAT='(8E13.5)'
 TRAMP=1., VOLUME=1. $END
  3.09794E+05  1.32684E+03  3.37396E+05  2.51339E+05  8.43273E+04  3.37222E+05 -1.32293E+05  2.49898E+05
 -1.88814E+05  8.21297E+04 -1.10654E+05 -3.36619E+04  2.12969E+03 -5.08367E+04  5.33934E+04  2.98517E+02
  3.54339E+04  5.31439E+04 -1.69364E+04  7.51515E+04 -6.08750E+04  6.27164E+04 -8.29940E+04  3.16022E+04
 -7.95746E+04 -1.15468E+04 -5.69921E+04 -5.04792E+04 -1.46247E+04 -6.70390E+04  2.63708E+04 -4.43857E+04
  3.82083E+04  3.99076E+03  1.45012E+04  4.68724E+04 -3.30994E+04  4.67273E+04 -6.47387E+04 -8.36191E+02
 -5.12744E+04 -5.59638E+04 -6.51552E+03 -7.50141E+04  3.35278E+04 -5.30831E+04  4.59029E+04 -1.54917E+04
  4.19478E+04  1.08718E+04  2.98352E+04  2.46841E+04  1.50457E+04  2.76842E+04 -4.28319E+03  2.75281E+04
 -2.20659E+04  1.35501E+04 -1.88229E+04 -5.22659E+03  3.37578E+03 -7.48931E+03  2.11741E+04  1.09448E+04
  8.31311E+03  3.34255E+04 -3.03444E+04  3.34568E+04 -6.16106E+04  2.43117E+03 -5.56454E+04 -4.17601E+04
 -1.16321E+04 -6.09704E+04  3.84473E+04 -4.36048E+04  5.43168E+04 -1.93338E+03  3.07694E+04  3.01538E+04
 -6.59005E+03  3.21392E+04 -2.74982E+04  1.28290E+04 -2.69546E+04 -4.85206E+03 -1.35956E+04 -9.88045E+03
 -6.78989E+03 -9.81080E+03 -7.18940E+02 -1.65370E+04  6.76071E+03 -2.24091E+04  1.53493E+04 -1.34840E+04
  1.15554E+04  5.12147E+03 -5.68906E+03  1.34027E+04 -1.98890E+04 -2.34763E+03 -7.71513E+03 -2.89100E+04
  1.97631E+04 -3.91048E+04  4.40866E+04 -1.83107E+04  4.25548E+04  1.82367E+04  1.45813E+04  4.08116E+04
 -1.43116E+04  3.03394E+04 -2.28582E+04  9.96923E+02 -7.57489E+03 -2.65273E+04  2.00694E+04 -3.07422E+04
  3.73457E+04 -6.74184E+03  3.12941E+04  2.27946E+04  1.47695E+04  4.19389E+04 -8.01508E+03  4.48196E+04
 -2.82535E+04  2.95692E+04 -3.67701E+04  9.27403E+03 -3.78271E+04 -1.47156E+04 -2.20201E+04 -3.48465E+04
  6.35517E+03 -3.41926E+04  2.92159E+04 -1.19949E+04  2.53893E+04  1.12984E+04  3.22090E+03  1.73216E+04
 -1.33574E+04  7.10428E+03 -1.08795E+04 -7.66064E+03  6.21383E+03 -1.02994E+04  1.61328E+04  5.52135E+03
  1.22708E+04  2.15231E+04 -6.11928E+03  2.25858E+04 -2.14214E+04  8.47434E+03 -2.42001E+04 -6.42416E+03
 -1.59402E+04 -1.59197E+04 -5.58252E+03 -1.63901E+04  3.77883E+03 -1.37486E+04  1.22190E+04 -1.54145E+04
  2.07303E+04 -1.14146E+04  2.80674E+04 -3.27582E+02  2.10753E+04  1.53052E+04  4.05975E+03  3.07110E+04
 -1.47298E+04  2.69331E+04 -2.68020E+04  9.71193E+03 -1.89299E+04 -1.10049E+04 -4.12161E+03 -1.41115E+04
  2.18358E+03 -5.10350E+03 -2.59096E+03  5.94881E+03 -1.28593E+04  5.61269E+03 -1.29722E+04 -4.39565E+03
 -8.41940E+03 -1.59304E+04  4.79480E+03 -1.93960E+04  1.23656E+04 -1.42155E+04  1.38031E+04 -8.76715E+02
  7.75717E+03  9.30869E+03 -1.74123E+03  1.53867E+04 -9.51862E+03  7.94990E+03 -1.50383E+04 -3.80533E+03
 -1.03152E+04 -1.46342E+04 -1.73756E+03 -1.84609E+04  7.91300E+03 -1.36446E+04  1.52327E+04 -7.97250E+03
  1.48270E+04  1.82292E+03  1.08099E+04  3.51288E+03  5.86296E+03  1.01529E+03  6.75191E+03 -9.12991E+02
  1.35506E+04  3.12338E+03  1.46542E+04  1.26625E+04  9.13025E+03  2.31475E+04 -3.03020E+03  2.55311E+04
 -1.53773E+04  1.87821E+04 -2.34316E+04  9.65604E+03 -2.38974E+04 -1.44535E+03 -2.07785E+04 -1.15406E+04
 -9.37193E+03 -1.96520E+04  6.55494E+03 -1.95725E+04  1.66105E+04 -1.04420E+04  1.55651E+04  4.41506E+03
  6.95155E+03  1.07730E+04 -7.09284E+03  9.73290E+03 -1.25235E+04  2.94836E+03 -1.08662E+04 -8.26408E+03
 -4.71069E+02 -1.18615E+04  4.84995E+03 -9.66368E+03  8.59951E+03 -1.86286E+03  2.32936E+03  4.51645E+03
 -6.56126E+03  9.18946E+02 -3.83720E+03 -4.49582E+03  1.62282E+03 -1.00862E+04  7.80678E+03 -9.26000E+03
  1.16401E+04 -4.44683E+03  1.15427E+04  1.87400E+03  8.82192E+03  9.58588E+03  4.86206E+03  1.38696E+04
 -1.19506E+03  1.51118E+04 -8.76839E+03  9.20671E+03 -9.80726E+03  2.30213E+03 -8.48781E+03 -1.86639E+03
 -5.07356E+03 -3.86550E+03 -7.46197E+02  1.66872E+03 -2.70160E+03  5.49688E+02 -3.44718E+03  3.12874E+03
 -8.83052E+03 -5.50356E+02 -8.28636E+03 -7.48698E+03 -3.65260E+03 -1.14465E+04  3.91976E+03 -8.09264E+03
  7.01686E+03 -2.97251E+03  5.70786E+03  2.63093E+03  1.19083E+03  3.38738E+03 -3.05355E+03  5.63781E+02
 -3.77600E+03 -4.63469E+03 -2.71132E+01 -6.70266E+03  4.00763E+03 -5.94951E+03  9.11625E+03 -3.89636E+03
  1.09707E+04  7.10928E+02  8.71820E+03  6.08800E+03  2.14668E+03  8.60055E+03 -4.95971E+03  7.24368E+03
 -6.43406E+03  3.00658E+03 -3.11443E+03 -1.33174E+03  1.48082E+03 -3.00263E+03  5.05937E+03 -1.22636E+03
  3.87840E+03  2.79789E+03  1.15337E+03  6.21688E+03 -5.30087E+03  6.37407E+03 -7.01612E+03  1.78535E+03
 -4.82999E+03 -4.68590E+03  3.27399E+02 -6.91995E+03  4.56283E+03 -3.29043E+03  3.55694E+03  1.33810E+03
  8.13335E+01  3.94721E+03 -3.29124E+03  5.25658E+03 -4.89588E+03  3.08530E+03 -4.83702E+03 -1.24819E+03
 -2.96143E+03 -5.45950E+03  7.93950E+02 -6.45435E+03  5.56793E+03 -4.86473E+03  6.63616E+03  1.61876E+03
  5.22576E+03  5.31878E+03  5.97030E+02  6.80498E+03 -5.87281E+03  3.49006E+03 -5.32778E+03  1.00859E+02
 -5.57022E+03 -4.07340E+03 -1.79272E+03 -4.50280E+03  3.58838E+03 -4.58479E+03  2.92703E+03 -3.24871E+03
  3.15148E+03  3.49640E+02 -3.17160E+02  1.19039E+03  1.10973E+02  8.56552E+01 -4.73544E+02 -3.46202E+02
  2.74732E+03 -2.62794E+03  4.42583E+03  9.01978E+02  5.83177E+03  2.70170E+03  5.04224E+03  5.88635E+03
 -1.15613E+03  7.71538E+03 -6.73930E+03  5.58974E+03 -9.14617E+03  8.73637E+02 -7.01757E+03 -1.48281E+03
 -4.49214E+03 -6.74427E+03 -8.22409E+02 -4.61341E+03  2.09238E+03 -2.10184E+03  1.35505E+03 -2.54671E+03
  1.16463E+03 -1.64985E+03  2.22899E+03 -2.94063E+03  2.33733E+03 -5.07937E+02  3.48583E+03  6.39396E+02
  2.17594E+03  1.68523E+03  4.50311E+02  3.34533E+03 -7.81077E+02  1.89270E+03 -5.50775E+03  2.22019E+03
 -3.58781E+03 -1.22163E+03 -2.43920E+03 -2.68704E+03  1.83757E+03 -4.95262E+03  3.02970E+03 -5.45019E+03
  5.14874E+03 -3.05216E+03  5.93528E+03 -7.60772E+02  5.20975E+03  4.12016E+03  9.99613E+02  5.34401E+03
 -1.97383E+03  5.65211E+03 -3.52088E+03  2.07867E+03 -2.82269E+03 -9.81253E+02 -5.73927E+02 -6.25066E+02
 -9.84691E+01  1.08697E+03 -1.62758E+03  1.92356E+03 -3.63562E+03  1.75788E+03 -5.45701E+03 -1.45990E+02
 -1.55524E+03 -3.72078E+03  1.12183E+03 -3.83273E+03  2.74029E+03 -3.27289E+03  2.88256E+03 -6.67888E+02
  4.31642E+03  2.99120E+03  8.90356E+02  2.51276E+03 -1.48355E+03  4.84533E+03 -3.12496E+03  2.05284E+03
 -3.78172E+03  2.02005E+03 -3.87889E+03 -2.16130E+03 -9.20031E+02 -3.16005E+03  1.97214E+03 -1.61172E+03
  3.43510E+03 -2.09009E+03  4.42681E+02  9.08884E+02  4.27204E+02  1.85945E+03  1.51520E+03  8.84070E+02
  1.57763E+03  8.69471E+02 -3.15513E+02  1.17762E+03  1.59267E+03  2.05979E+03  2.19652E+03  1.76253E+03
 -8.24965E+02  3.20621E+03 -1.87939E+03  3.06825E+03 -1.98292E+03  8.12348E+02 -3.59709E+03 -6.74390E+01
 -1.67567E+03 -2.30287E+03  1.29410E+03 -4.14123E+03  8.17197E+02 -2.29520E+03  2.78130E+03 -1.06200E+03
  3.96418E+03  2.63240E+03  1.08091E+03  2.24030E+03 -4.80736E+02  2.47282E+02 -1.43844E+03  3.13297E+02
  9.24704E+01 -1.83010E+03  1.13772E+03 -1.09503E+03  1.04653E+03  6.68912E+02  9.15151E+02  6.29933E+02
  5.93907E+02 -1.91359E+02  5.34503E+02 -1.30657E+02 -8.96179E+02  5.76926E+02  1.63788E+03 -3.24952E+02
 -6.19992E+02 -9.42390E+02  3.06636E+03  5.24259E+02  4.99459E+02  1.25616E+03 -1.77484E+01  2.63971E+03
 -2.07347E+03  1.88723E+03 -2.98186E+03  4.52951E+02 -9.25628E+02 -9.09648E+02 -1.01514E+03 -2.21259E+03
  1.99595E+01 -7.33538E+02  2.20180E+02 -6.80967E+02  7.95819E+02  1.28415E+03 -7.92527E+02  5.79628E+02
 -7.82169E+02  6.65007E+02 -9.01670E+02 -1.12107E+03 -7.18357E+02 -1.48580E+03  6.16540E+02 -1.58932E+03
  1.76906E+03 -6.62753E+02  1.36500E+03  4.69683E+02  1.03189E+03 -1.16750E+03  1.39040E+03  5.45925E+02
 -4.79754E+02  7.03181E+02 -6.68968E+02 -2.00672E+02 -2.34024E+02 -1.33519E+03  2.78789E+03 -9.36928E+02
  7.32075E+02  6.43974E+02  3.06286E+03  2.48416E+02  1.85533E+03  2.56321E+03  1.43532E+03  1.83248E+03
 -1.76113E+03 -1.05646E+03 -2.05470E+03  1.20497E+03 -8.72433E+02 -9.08026E+02  2.58991E+02  3.86972E+02
  7.10985E+02 -6.45481E+02  3.52714E+02  8.98167E+01  6.15399E+02  8.38868E+02  7.12403E+02  1.33351E+03
 -1.04468E+03  6.34319E+02 -3.82247E+02 -1.55016E+02  8.33217E+02  7.34886E+02 -5.94269E+02  5.79853E+02
  3.78156E+02  1.00016E+03 -2.29401E+03  4.06530E+02 -1.65259E+03 -5.70012E+02 -2.99596E+03 -1.20839E+03
 -1.42734E+03 -2.54736E+03  6.51618E+02 -3.28329E+03  1.44564E+03 -3.14712E+03  2.10672E+03 -9.92693E+02
  2.21602E+03 -2.61476E+02  1.41713E+03  1.03032E+03 -7.67275E+02  1.21042E+03  8.48219E+01  2.09779E+03
 -1.89481E+02  1.35057E+03 -1.09091E+03 -6.00584E+02 -1.35973E+03  5.72622E+02 -5.96708E+02  1.83628E+02
 -9.56898E+02  6.30888E+02 -1.59785E+03  1.42600E+02 -1.60493E+02 -5.12685E+02  1.17213E+02 -3.94718E+02
  1.36961E+03 -6.96162E+01  6.27686E+02  3.10189E+01  9.07423E+02  2.04780E+03  1.36395E+02  1.72605E+03
 -9.60661E+02  2.95516E+03 -1.14670E+03  8.26826E+02 -9.63971E+02  1.93968E+01 -4.97109E+02 -1.98699E+03
 -1.77371E+03 -2.13632E+03 -2.12399E+02 -1.07683E+03 -7.96495E+02 -1.53201E+03  7.73159E+02  7.13584E+02
  1.42854E+03 -2.61830E+02  5.26925E+02  2.12250E+02  2.43549E+01 -7.30689E+02  8.48283E+02  3.89132E+02
  6.60998E+02  6.43699E+02 -5.40049E+02  7.79297E+02 -5.18448E+01  2.43823E+01  1.16861E+03  1.93205E+02
 -1.15795E+03  1.45082E+03 -6.43130E+02  9.48294E+01  4.84121E+02 -2.13416E+02 -1.35463E+03 -9.14375E+02
  3.94674E+02 -9.46397E+02 -1.10045E+02 -3.42678E+01  2.39928E+00 -5.62131E+02  1.44626E+01  9.13076E+02
  2.47271E+02  1.22273E+03 -3.46442E+02  7.53666E+02 -6.25997E+02 -1.81900E+01 -7.53660E+02  8.27778E+02
 -8.10767E+02 -5.82753E+02 -7.35754E+02 -8.24319E+02 -5.25179E+02  4.92372E+02 -4.35091E+02  6.00389E+02
 -4.66646E+02  1.63067E+02 -4.10468E+02 -6.55750E+02  1.43398E+03 -1.63897E+03  6.56878E+02 -6.50106E+02
  1.77055E+03 -6.20493E+01 -1.02937E+03 -8.51153E+01 -2.43860E+00  3.92955E+02  1.26501E+02  2.08244E+02
