 $NMID ID='MM_0lb_SNR200_18hz_g45_27.RAW', FMTDAT='(8E13.5)'
 TRAMP=1., VOLUME=1. $END
  3.10284E+05  1.84033E+02  3.37501E+05  2.49834E+05  8.44407E+04  3.36793E+05 -1.32547E+05  2.50607E+05
 -1.89457E+05  8.24944E+04 -1.12179E+05 -3.29863E+04  1.15961E+03 -5.06500E+04  5.45846E+04  4.21125E+02
  3.37436E+04  5.37699E+04 -1.81210E+04  7.50419E+04 -5.96680E+04  6.34305E+04 -8.26961E+04  3.17772E+04
 -7.94479E+04 -1.08161E+04 -5.58500E+04 -5.03010E+04 -1.40704E+04 -6.80737E+04  2.53525E+04 -4.41372E+04
  3.93945E+04  3.72683E+03  1.55235E+04  4.78496E+04 -3.42015E+04  4.69347E+04 -6.44954E+04 -1.24267E+03
 -5.24185E+04 -5.57477E+04 -6.55575E+03 -7.50619E+04  3.27416E+04 -5.26512E+04  4.56317E+04 -1.63432E+04
  4.17853E+04  1.01360E+04  3.03558E+04  2.46746E+04  1.52496E+04  2.85694E+04 -3.74482E+03  2.70152E+04
 -2.25966E+04  1.37891E+04 -1.94180E+04 -5.06105E+03  4.84682E+03 -7.46230E+03  2.14194E+04  1.16770E+04
  8.05664E+03  3.28000E+04 -3.10724E+04  3.37797E+04 -6.11015E+04  1.98221E+03 -5.54365E+04 -4.15815E+04
 -1.26118E+04 -6.19053E+04  3.87261E+04 -4.33158E+04  5.48176E+04 -2.53111E+03  3.07647E+04  3.03140E+04
 -6.83971E+03  3.41593E+04 -2.77201E+04  1.27523E+04 -2.82195E+04 -4.57413E+03 -1.50349E+04 -9.79745E+03
 -7.79979E+03 -1.13358E+04  6.14649E+02 -1.71399E+04  5.44809E+03 -2.22088E+04  1.44687E+04 -1.41728E+04
  1.19774E+04  3.93492E+03 -5.98364E+03  1.40082E+04 -1.96606E+04 -2.74838E+03 -7.67374E+03 -3.07282E+04
  2.05541E+04 -4.02273E+04  4.53173E+04 -1.86121E+04  4.24235E+04  1.83398E+04  1.49296E+04  4.14767E+04
 -1.59172E+04  3.03190E+04 -2.38126E+04  3.89255E+02 -7.94001E+03 -2.55311E+04  1.90931E+04 -3.14060E+04
  3.83026E+04 -6.67162E+03  3.11038E+04  2.28879E+04  1.51302E+04  4.25819E+04 -7.29771E+03  4.55554E+04
 -2.91658E+04  3.05832E+04 -3.71581E+04  1.00441E+04 -3.87333E+04 -1.60718E+04 -2.15370E+04 -3.47442E+04
  6.84207E+03 -3.34091E+04  2.91740E+04 -1.23243E+04  2.72418E+04  1.16512E+04  3.54155E+03  1.78906E+04
 -1.35937E+04  7.15917E+03 -9.02573E+03 -7.28865E+03  5.88700E+03 -1.00161E+04  1.71414E+04  5.70062E+03
  1.24233E+04  2.13295E+04 -6.83533E+03  2.46351E+04 -2.20762E+04  9.35669E+03 -2.49466E+04 -6.36973E+03
 -1.73533E+04 -1.69822E+04 -5.42140E+03 -1.57470E+04  3.16388E+03 -1.49496E+04  1.24597E+04 -1.43198E+04
  2.15838E+04 -1.18531E+04  2.89084E+04  2.02976E+03  2.03162E+04  1.53682E+04  4.98896E+03  3.17510E+04
 -1.59852E+04  2.72043E+04 -2.54237E+04  9.51531E+03 -1.98083E+04 -1.03688E+04 -3.97886E+03 -1.30028E+04
  1.90911E+03 -3.77302E+03 -3.60435E+03  6.45504E+03 -1.34519E+04  6.62487E+03 -1.39565E+04 -5.08339E+03
 -9.23725E+03 -1.62096E+04  5.17419E+03 -1.96754E+04  1.37582E+04 -1.48575E+04  1.42051E+04 -1.16323E+03
  9.23343E+03  1.22669E+04 -1.09513E+02  1.56564E+04 -1.17500E+04  9.66771E+03 -1.59164E+04 -3.57868E+03
 -1.17376E+04 -1.35545E+04 -1.49085E+03 -1.95697E+04  8.53681E+03 -1.54194E+04  1.59999E+04 -7.44996E+03
  1.54816E+04  1.71317E+03  1.05477E+04  3.10919E+03  5.01991E+03  4.69531E+02  8.08409E+03 -1.49006E+03
  1.40422E+04  2.94285E+03  1.59135E+04  1.28396E+04  9.60826E+03  2.57492E+04 -2.82252E+03  2.69900E+04
 -1.57968E+04  2.00839E+04 -2.43967E+04  1.01296E+04 -2.52518E+04 -1.50558E+03 -2.12225E+04 -1.52985E+04
 -9.21924E+03 -2.02102E+04  8.22057E+03 -1.97329E+04  1.79152E+04 -1.07541E+04  1.64019E+04  4.08088E+03
  7.06557E+03  1.14867E+04 -7.16881E+03  9.73002E+03 -1.36194E+04  2.92054E+03 -1.07471E+04 -8.39210E+03
 -4.96031E+02 -1.19532E+04  5.43589E+03 -1.03413E+04  8.92815E+03 -1.66580E+03  2.00821E+03  5.42801E+03
 -5.54290E+03  1.54716E+03 -3.41627E+03 -4.13825E+03  8.04137E+02 -1.09920E+04  7.92422E+03 -9.59238E+03
  1.24398E+04 -5.08901E+03  1.20911E+04  2.32719E+03  9.78324E+03  1.06396E+04  6.24198E+03  1.55626E+04
 -1.97993E+03  1.61556E+04 -9.81176E+03  1.06740E+04 -1.23264E+04  3.17177E+03 -8.41036E+03 -1.87558E+03
 -4.10634E+03 -3.81640E+03 -8.88058E+02  1.64563E+03 -2.28569E+03  1.70952E+03 -3.81207E+03  4.24245E+03
 -7.31956E+03 -1.21941E+03 -8.87213E+03 -6.81128E+03 -3.55504E+03 -1.08530E+04  4.79281E+03 -8.31762E+03
  7.56599E+03 -4.24245E+03  6.04659E+03  1.65232E+03  1.25080E+03  3.02254E+03 -3.65258E+03 -1.92452E+02
 -3.23986E+03 -5.09715E+03 -9.97628E+02 -6.81790E+03  4.11437E+03 -7.42670E+03  1.08740E+04 -3.77149E+03
  1.31635E+04  6.00257E+01  8.52001E+03  6.42512E+03  3.56517E+03  9.27351E+03 -4.68601E+03  7.65687E+03
 -5.90083E+03  3.03748E+03 -4.21653E+03 -1.09626E+03  1.62383E+03 -1.66934E+03  3.43926E+03 -6.14820E+02
  5.19543E+03  3.75270E+03  3.98206E+02  7.16358E+03 -5.25853E+03  5.92428E+03 -8.23164E+03  1.30147E+03
 -3.64385E+03 -3.80029E+03  8.78562E+02 -6.71714E+03  3.80069E+03 -4.22373E+03  3.19780E+03  1.28011E+03
  1.51341E+02  2.73370E+03 -5.36617E+03  5.15369E+03 -4.74940E+03  2.12959E+03 -4.78111E+03 -7.38300E+02
 -3.46113E+03 -6.41073E+03  1.62254E+03 -7.65195E+03  5.02581E+03 -4.50682E+03  7.14794E+03  8.36036E+02
  3.87028E+03  5.83824E+03 -1.00690E+02  8.81298E+03 -5.75404E+03  4.93023E+03 -5.40564E+03 -1.14428E+03
 -5.96236E+03 -5.71542E+03 -1.33692E+03 -4.83146E+03  4.33751E+03 -3.72483E+03  3.17666E+03 -1.69357E+03
  3.76235E+03  8.10359E+02 -4.59994E+02  1.86209E+03  9.33308E+02  3.41032E+02  1.11723E+03 -2.50077E+03
  3.95179E+03 -8.47177E+02  5.55569E+03  1.55886E+02  6.17140E+03  3.25242E+03  5.62689E+03  6.99858E+03
 -1.89781E+03  8.57020E+03 -8.79681E+03  6.65865E+03 -1.08242E+04  9.76927E+02 -7.31173E+03 -1.70980E+03
 -3.52633E+03 -7.44569E+03 -3.93132E+02 -5.59984E+03  2.48827E+03 -2.04527E+03  1.40721E+03 -2.29838E+03
  7.61177E+02 -1.42657E+03  2.11325E+03 -2.44594E+03  3.22669E+03 -1.32557E+03  3.12757E+03  3.11994E+02
  5.54727E+03  1.88098E+03  1.38719E+03  3.01418E+03 -2.14332E+03  4.49232E+03 -4.89136E+03  2.18097E+03
 -3.84905E+03 -1.42100E+03 -1.43521E+03 -3.84943E+03  6.41517E+02 -4.87844E+03  4.01056E+03 -5.56446E+03
  5.46587E+03 -2.83362E+03  6.82086E+03  3.01254E+02  4.82626E+03  4.93439E+03  4.26447E+02  5.67822E+03
 -2.34110E+03  6.82398E+03 -3.01184E+03  1.98874E+03 -1.23540E+03 -1.09052E+03 -7.04182E+02 -1.77050E+02
 -9.60152E+02  8.04006E+02  4.72627E+01  2.37292E+03 -2.26164E+03  9.36960E+02 -4.44265E+03 -1.39336E+02
 -1.71889E+03 -4.39493E+03  7.49947E+02 -4.40135E+03  2.75707E+03 -4.76772E+03  3.39432E+03 -1.03436E+03
  3.89275E+03  2.53803E+03  2.62908E+03  4.15372E+03 -1.17135E+03  3.82320E+03 -2.15468E+03  1.51969E+03
 -2.89383E+03  4.99643E+02 -4.29034E+03 -2.76430E+03 -7.93703E+02 -2.77292E+03  1.59483E+03 -3.52414E+03
  3.15117E+03 -1.39831E+03  1.39257E+03  6.64639E+02  1.25165E+03  9.62276E+02  6.56803E+02  3.46958E+02
  5.95778E+02 -8.74739E+01  1.18871E+03  1.50591E+03  1.44613E+03  1.26087E+03  1.57605E+03  1.78653E+03
 -3.18813E+02  4.47859E+03 -1.27403E+03  3.94690E+03 -4.55568E+03  8.46029E+02 -5.08274E+03 -5.37498E+02
 -2.69912E+03 -3.30925E+03 -3.34308E+02 -4.31702E+03  2.99458E+03 -2.78905E+03  4.39335E+03 -2.51508E+02
  1.84547E+03  2.41080E+03 -2.28844E+02  2.14412E+03 -6.67906E+02  3.05945E+02 -1.83618E+03  2.13456E+02
 -1.12227E+03 -2.91591E+03  3.94039E+02 -1.54841E+03  2.47488E+03 -1.79753E+03  2.91843E+02 -2.56590E+02
  8.34322E+02  9.83791E+02  1.18933E+02 -6.90529E+01 -5.52416E+02 -9.07379E+02  2.21690E+03  4.69391E+01
 -4.02626E+02 -1.09360E+03  2.74783E+03 -1.39234E+02 -6.38679E+02  2.28163E+03 -7.80175E+02  2.79038E+03
 -1.94165E+03  2.11209E+03 -2.94611E+03 -4.51698E+01 -2.70320E+03  3.16793E+02 -2.42196E+02 -1.63446E+03
 -5.56626E+02 -1.58345E+03  3.96964E+02 -1.30511E+03  5.67766E+02  1.69599E+03 -1.67740E+03  1.05463E+03
 -1.85290E+03  1.53066E+03 -9.01287E+02 -1.55951E+03 -4.16973E+02 -1.46732E+03 -1.92930E+01 -1.25072E+03
  1.48552E+03 -1.65770E+02 -4.15687E+01 -5.43237E+02  2.68949E+03 -1.22565E+03  8.64087E+02  1.55726E+03
 -9.68202E+02  3.04215E+02 -7.52811E+02  3.95726E+02  7.65747E+02 -5.73989E+02  2.00329E+03 -5.10057E+02
  2.80162E+03 -9.74778E+01  2.27495E+03 -2.54727E+02  1.59180E+03  2.08712E+03 -4.97503E+02  1.40258E+03
 -1.49422E+03 -2.30244E+02 -1.61051E+03 -1.44701E+03 -8.76788E+02 -1.53545E+03  7.77945E+02 -6.39091E+02
  2.12473E+03 -3.09802E+01  5.41261E+02  1.09198E+03  1.75830E+02  1.50662E+03 -9.77595E+00  9.09148E+02
  7.42217E+02  1.58892E+03 -8.88214E+02  1.36910E+03  9.38251E+02  4.29336E+02 -1.43842E+03  1.54664E+02
 -5.07693E+02  2.10638E+03 -2.37671E+03 -8.30778E+02 -9.79453E+02 -2.63577E+02 -1.57276E+03 -6.37739E+02
 -8.17270E+02 -3.21880E+03  9.01554E+02 -2.28639E+03  1.91785E+03 -3.09283E+03  3.83447E+03 -7.58667E+02
  2.93178E+03 -4.11764E+02  1.63766E+03  2.56604E+03  2.32099E+02  5.10376E+02 -9.33704E+02 -1.34034E+01
 -1.53574E+03  3.23484E+02 -3.92427E+02 -2.56382E+02 -7.45492E+01 -3.66919E+01 -1.15520E+03  6.58838E+02
 -3.96605E+02 -5.66647E+02 -6.59001E+02  5.26415E+02  3.34051E+02 -5.54455E+02 -1.34334E+02 -3.45460E+02
  1.26399E+03 -1.46950E+03  1.09109E+03 -4.20893E+02  1.49586E+03  7.29528E+02  2.53756E+02  1.45703E+03
 -1.06732E+03  3.49183E+03 -1.85255E+03  1.23976E+03 -1.42096E+03 -4.61489E+02 -2.32975E+03 -1.23044E+03
 -1.20836E+03 -1.44154E+03  4.80301E+02 -1.49557E+03 -1.04653E+02 -3.30128E+01  4.08771E+02 -3.61491E+02
  6.08161E+02  1.20025E+03  4.09754E+02  4.37032E+02 -1.20072E+02  8.78495E+02 -1.89295E+02  3.85333E+02
  1.07921E+03  3.39474E+02 -3.24631E+02  3.33935E+01 -2.10820E+02 -1.66340E+02  3.27193E+02  1.23805E+02
 -9.80979E+02  3.67408E+02 -1.12967E+02  7.54284E+01 -8.07178E+02 -1.14968E+03  9.87883E+02 -1.00828E+03
  3.25935E+02 -5.02582E+02 -5.90577E+02 -4.48973E+02  1.06230E+03 -1.05632E+03  9.37906E+02  1.94687E+02
  2.60451E+02  1.36374E+03  3.33467E+02  5.60493E+02 -8.89192E+02  1.27995E+03  1.08255E+03 -1.72913E+02
 -6.66031E+02  2.40638E+02 -1.47838E+03 -5.06800E+02 -1.68032E+03 -7.77478E+02 -3.20022E+02 -3.68352E+02
 -1.15171E+03  5.60112E+02 -4.80506E+02 -9.30542E+02 -1.33038E+02 -1.39535E+03  9.47598E+02 -5.53814E+02
  1.36740E+03  8.47619E+02 -5.21083E+02 -2.46388E+02  3.96358E+02  1.03550E+03 -3.43929E+02  1.30926E+02
