 $NMID ID='MM_0lb_SNR200_19hz_g50_14.RAW', FMTDAT='(8E13.5)'
 TRAMP=1., VOLUME=1. $END
  3.10228E+05  1.09135E+03  3.36976E+05  2.50181E+05  8.39928E+04  3.37082E+05 -1.32134E+05  2.50624E+05
 -1.90836E+05  8.27050E+04 -1.11807E+05 -3.27762E+04 -1.72705E+02 -5.06455E+04  5.38511E+04  2.51741E+02
  3.50776E+04  5.33283E+04 -1.77369E+04  7.55668E+04 -6.02592E+04  6.34007E+04 -8.36470E+04  3.14402E+04
 -8.00886E+04 -1.05216E+04 -5.54428E+04 -5.03071E+04 -1.56705E+04 -6.89103E+04  2.75870E+04 -4.30861E+04
  3.95822E+04  3.86454E+03  1.53518E+04  4.69742E+04 -3.48534E+04  4.68986E+04 -6.50554E+04 -2.10501E+02
 -5.18976E+04 -5.55146E+04 -6.06922E+03 -7.48811E+04  3.27398E+04 -5.32292E+04  4.53407E+04 -1.69907E+04
  4.05818E+04  1.04186E+04  3.02353E+04  2.50652E+04  1.55039E+04  2.83196E+04 -4.86850E+03  2.75695E+04
 -2.19649E+04  1.32862E+04 -1.92941E+04 -3.49294E+03  4.53867E+03 -7.00122E+03  2.13023E+04  1.09357E+04
  7.11937E+03  3.32307E+04 -3.09730E+04  3.57174E+04 -6.09607E+04  2.20735E+03 -5.49308E+04 -4.09902E+04
 -1.18499E+04 -6.06763E+04  3.80486E+04 -4.33921E+04  5.61880E+04 -2.10590E+03  3.20223E+04  3.05229E+04
 -6.12361E+03  3.29978E+04 -2.81065E+04  1.33691E+04 -2.79260E+04 -6.35137E+03 -1.46533E+04 -9.70407E+03
 -6.33303E+03 -1.17446E+04 -1.09112E+03 -1.74502E+04  6.86300E+03 -2.24022E+04  1.50981E+04 -1.43852E+04
  1.19844E+04  4.89621E+03 -6.78487E+03  1.31010E+04 -1.94247E+04 -3.61200E+03 -7.56364E+03 -3.02235E+04
  2.09516E+04 -3.97651E+04  4.52100E+04 -2.06190E+04  4.28270E+04  1.89811E+04  1.35505E+04  4.12451E+04
 -1.52033E+04  3.06655E+04 -2.40259E+04  3.81426E+02 -8.36055E+03 -2.64249E+04  1.93904E+04 -3.09494E+04
  3.79722E+04 -7.54538E+03  3.16732E+04  2.31360E+04  1.43216E+04  4.30765E+04 -7.19161E+03  4.53911E+04
 -2.83621E+04  2.91389E+04 -3.80728E+04  8.41479E+03 -3.71676E+04 -1.44437E+04 -2.15354E+04 -3.62528E+04
  5.79469E+03 -3.43205E+04  2.83885E+04 -1.16487E+04  2.66534E+04  1.06117E+04  2.65246E+03  1.78460E+04
 -1.30043E+04  7.37150E+03 -9.64633E+03 -8.11772E+03  6.17928E+03 -1.06222E+04  1.81851E+04  6.43658E+03
  1.24225E+04  2.18593E+04 -6.79392E+03  2.29835E+04 -2.19161E+04  9.28641E+03 -2.58491E+04 -6.83966E+03
 -1.70719E+04 -1.48907E+04 -6.46575E+03 -1.60080E+04  2.42413E+03 -1.55510E+04  1.26655E+04 -1.44457E+04
  2.17281E+04 -1.15859E+04  2.79681E+04  8.43727E+02  2.20994E+04  1.61832E+04  3.90946E+03  3.21084E+04
 -1.59472E+04  2.87634E+04 -2.65075E+04  8.66941E+03 -1.99063E+04 -1.07832E+04 -3.95891E+03 -1.44641E+04
  1.96695E+03 -3.68379E+03 -3.07463E+03  5.80149E+03 -1.24535E+04  4.68751E+03 -1.43238E+04 -4.19029E+03
 -7.98052E+03 -1.65028E+04  4.79615E+03 -1.93637E+04  1.26633E+04 -1.41814E+04  1.33949E+04 -2.12810E+03
  9.63736E+03  1.22069E+04 -2.73655E+02  1.66681E+04 -9.55095E+03  9.45689E+03 -1.58492E+04 -3.20460E+03
 -1.10615E+04 -1.35826E+04 -1.85974E+03 -1.91898E+04  9.70265E+03 -1.55015E+04  1.65791E+04 -6.48150E+03
  1.49798E+04  1.27852E+03  1.03316E+04  4.24083E+03  5.65896E+03  5.72382E+02  8.46906E+03 -2.89643E+03
  1.37490E+04  3.14744E+03  1.46912E+04  1.25873E+04  9.70025E+03  2.44637E+04 -2.55404E+03  2.70459E+04
 -1.59581E+04  2.01442E+04 -2.43924E+04  9.12486E+03 -2.52880E+04 -2.19616E+03 -2.07555E+04 -1.43395E+04
 -9.67368E+03 -2.01184E+04  7.54137E+03 -1.93755E+04  1.68816E+04 -1.21665E+04  1.55713E+04  2.85934E+03
  5.57431E+03  1.10769E+04 -7.74382E+03  9.65718E+03 -1.38618E+04  1.83995E+03 -1.08490E+04 -7.49523E+03
  3.08813E+02 -1.21189E+04  6.03321E+03 -9.60218E+03  8.12184E+03 -1.40087E+03  1.29517E+03  4.37214E+03
 -5.80016E+03  3.77446E+02 -4.24202E+03 -4.14540E+03  4.18490E+02 -1.08201E+04  7.41912E+03 -9.16890E+03
  1.19217E+04 -4.58441E+03  1.20713E+04  3.50519E+03  1.01318E+04  9.88864E+03  4.61563E+03  1.37083E+04
 -1.63318E+03  1.53079E+04 -8.97286E+03  1.06472E+04 -1.01004E+04  2.51068E+03 -7.02831E+03 -1.34074E+03
 -4.63572E+03 -3.27236E+03 -2.13426E+03  1.75939E+03 -1.66743E+03  1.68098E+03 -3.96147E+03  3.54782E+03
 -8.44545E+03 -1.37524E+03 -8.88459E+03 -7.56075E+03 -2.78773E+03 -1.15495E+04  3.33949E+03 -8.46826E+03
  7.29213E+03 -3.44992E+03  3.69353E+03  3.13756E+03  1.08061E+03  4.77719E+03 -4.12426E+03 -2.55685E+02
 -2.56049E+03 -4.30979E+03 -1.07981E+03 -6.57971E+03  4.55060E+03 -7.65863E+03  8.87661E+03 -3.12712E+03
  1.18917E+04 -7.03342E+02  8.40512E+03  5.52981E+03  1.85410E+03  8.76360E+03 -4.58017E+03  8.66464E+03
 -6.34969E+03  2.34447E+03 -3.43319E+03 -7.46613E+02  4.71349E+02 -1.35765E+03  3.26811E+03 -1.22766E+03
  3.76225E+03  2.64664E+03  1.45896E+03  6.33843E+03 -5.76018E+03  7.14420E+03 -7.08628E+03  1.96412E+03
 -5.04422E+03 -4.08333E+03  2.00684E+02 -7.22577E+03  3.69425E+03 -2.99618E+03  3.42849E+03  1.27324E+03
  2.47931E+02  2.90728E+03 -3.70411E+03  4.43218E+03 -3.51178E+03  2.03734E+03 -4.29190E+03 -4.35607E+02
 -2.50069E+03 -5.43268E+03  6.65430E+02 -7.49542E+03  6.50457E+03 -4.50082E+03  5.96207E+03  4.84774E+01
  3.69417E+03  4.12243E+03  1.36298E+02  7.47604E+03 -5.93542E+03  3.37308E+03 -5.56950E+03  9.22548E+02
 -7.19085E+03 -4.42414E+03 -8.19476E+02 -4.93963E+03  3.06958E+03 -5.21257E+03  3.15430E+03 -2.44660E+03
  2.20896E+03 -1.10859E+02  1.34646E+03  1.62823E+03  7.69615E+02 -5.63076E+02 -8.44446E+02 -1.25976E+03
  3.39618E+03 -3.72214E+02  5.49697E+03  1.32539E+03  4.91328E+03  3.09426E+03  3.77345E+03  7.54345E+03
 -1.10597E+03  7.71378E+03 -7.11712E+03  5.87453E+03 -1.04067E+04  1.38132E+03 -8.36458E+03 -2.78874E+03
 -4.38998E+03 -6.81760E+03 -1.56533E+03 -5.37779E+03  2.07387E+03 -1.81584E+03  2.04916E+03 -2.10805E+03
  1.64376E+03 -1.69166E+03  1.83156E+03 -3.26585E+03  2.98077E+03 -1.87846E+03  3.70936E+03  8.72620E+02
  4.82658E+03  1.43160E+03  1.95873E+03  2.49886E+03 -1.51495E+03  2.79937E+03 -5.68373E+03  2.43771E+03
 -4.23828E+03 -1.67252E+03 -6.27646E+02 -2.49106E+03  1.76046E+03 -2.85138E+03  3.09172E+03 -5.51243E+03
  4.28733E+03 -3.33548E+03  6.61601E+03  1.07812E+03  3.45228E+03  4.22867E+03  1.10013E+02  5.21439E+03
 -2.40151E+03  4.55574E+03 -3.72736E+03  2.23493E+03 -1.13259E+03 -3.81098E+02 -1.92983E+02 -1.39390E+03
 -5.16755E+02  5.62020E+02 -4.16505E+02  3.78169E+03 -2.25891E+03  2.14251E+03 -4.54909E+03 -1.75212E+02
 -1.50778E+03 -4.39865E+03  1.86064E+03 -3.95284E+03  1.81165E+03 -4.06642E+03  3.53095E+03 -1.48545E+03
  3.58934E+03  3.19782E+03  1.85829E+03  3.17670E+03 -1.25902E+03  4.29620E+03 -1.95624E+03  2.51133E+03
 -1.99480E+03  5.30942E+02 -2.95949E+03 -1.10931E+03 -7.16418E+02 -1.97901E+03  1.05108E+03 -3.24002E+03
  2.81676E+03 -8.27158E+02  2.16548E+03  2.90315E+02  1.79588E+03  2.09604E+03  1.01626E+03  3.07828E+02
  2.37146E+03  5.22664E+02  6.77867E+02  7.74374E+02  8.26013E+02  2.68997E+03  2.77906E+02  1.92475E+03
 -1.65983E+03  2.18648E+03 -5.71065E+02  4.98989E+03 -4.05682E+03  1.73220E+03 -3.99456E+03  6.18348E+01
 -1.30806E+03 -2.88570E+03  1.72853E+02 -3.92542E+03  1.74539E+03 -2.52856E+03  2.26609E+03 -1.02260E+03
  2.31781E+03  1.72452E+03  6.16497E+02  2.66021E+03  5.35101E+01 -3.80568E+02 -6.54817E+00  4.48968E+02
 -1.79193E+03 -8.06639E+02  3.92420E+02 -1.54037E+03  1.25604E+03 -1.54802E+03  1.31590E+03  5.69025E+02
  8.72235E+02  3.05573E+02  4.10377E+02  2.34347E+02  2.24019E+02  2.20832E+02  1.50739E+03  3.34181E+02
 -3.01703E+02  7.17244E+02  2.84205E+03  1.17448E+03  5.60510E+02  2.90200E+03 -3.00973E+02  2.47734E+03
 -9.66804E+02  3.41408E+02 -2.24934E+03 -2.87450E+02 -8.16289E+02 -6.66766E+02 -5.12046E+02 -1.13776E+03
  3.12762E+02 -9.53998E+02  1.23210E+03 -5.50206E+02  9.40836E+02  1.28673E+03 -2.84598E+02  3.33701E+02
 -9.90511E+02  8.11139E+01 -1.04412E+03 -1.73578E+03 -3.79644E+02 -2.96067E+03 -2.31463E+02 -1.89991E+03
 -3.31790E+02  7.26931E+02 -8.88710E+01  1.08578E+03  1.41496E+03  4.24529E+02  4.99844E+02  8.34059E+02
 -3.59337E+02  2.65075E+02 -9.24137E+02 -4.28766E+02  7.47288E+02 -8.06442E+02  1.84836E+03  1.20119E+03
  1.33963E+03  2.52759E+02  3.19406E+03 -6.72574E+02  1.43602E+03  7.04900E+02 -8.46623E+02  8.94414E+02
 -2.36796E+03 -9.42091E+01 -1.43609E+03  7.46527E+02 -1.28507E+03 -1.96934E+03 -6.35251E+01  1.46548E+02
  1.45335E+03 -9.61292E+02  9.91242E+01  1.35662E+03 -1.52589E+02  1.70902E+03 -6.51819E+02  1.42946E+03
 -3.41297E+02  1.38422E+03 -8.98639E+02 -3.33851E+02  1.29614E+03  2.19149E+02 -1.38361E+03  2.40524E+02
 -1.70824E+03  1.73330E+03 -1.93213E+03  4.62320E+02 -1.23398E+03  3.65499E+02 -2.18150E+03 -1.80623E+03
 -9.06074E+02 -1.62977E+03  1.57394E+03 -2.93794E+03  1.62665E+03 -1.75962E+03  2.25285E+03 -7.24268E+02
  2.02420E+03 -4.62514E+01  2.15836E+02  2.07557E+03 -1.72680E+03  1.15205E+03 -2.71356E+02  9.43981E+02
 -7.37205E+02 -1.84366E+02 -4.69743E+02  3.80600E+01 -7.47624E+02  1.74327E+02 -1.39338E+03 -3.94281E+02
 -1.21022E+03 -1.44845E+02 -1.09545E+03 -4.49141E+02 -2.36804E+02 -2.17890E+02 -2.51560E+02  1.39582E+02
  1.74512E+03 -1.49670E+03 -5.13693E+01  4.34508E+02  1.10374E+03  7.47414E+02  5.56347E+01  9.13789E+02
 -1.26307E+03  2.43770E+03 -9.47029E+02 -2.32871E+02  4.91057E+01 -4.57986E+02 -9.24756E+02 -1.10531E+03
 -1.65223E+03 -1.28950E+03  5.13283E+02 -5.18300E+02  4.34066E+02 -8.31977E+02  5.52725E+02 -6.03496E+02
  1.80944E+03 -1.19336E+02  9.53701E+02  6.18268E+02 -5.24701E+02 -3.81719E+02 -4.11812E+02 -5.02872E+02
 -2.91049E+02  3.52175E+02 -7.77599E+02  9.13400E+02 -1.33584E+03 -5.58609E+01 -5.12068E+02 -2.57271E+02
 -1.58878E+03 -5.02898E+02 -6.95608E+02 -7.02443E+02 -2.17163E+02 -1.02108E+03 -3.29988E+01 -4.14057E+01
  6.58210E+02 -6.63787E+02  4.42672E+02 -2.29794E+02  1.29777E+02 -1.35205E+03 -2.44674E+02  7.33265E+02
 -1.06332E+02  4.69822E+02 -6.79303E+02  5.70526E+02 -5.68539E+02  8.77159E+02 -8.79215E+02  5.38577E+02
  2.08282E+02 -2.08869E+02 -1.04942E+03  6.63270E+02 -6.52767E+01 -1.45691E+02 -1.46453E+03 -4.82295E+02
 -1.53505E+03  2.82575E+02 -1.05298E+03 -1.22015E+03 -4.05585E+01 -1.64715E+03  1.34585E+03 -1.10844E+03
  7.11895E+02  1.23601E+02 -4.23761E+02 -1.12751E+02 -3.85391E+02  7.74576E+02 -2.55453E+02  1.20663E+03
