 $NMID ID='MM_0lb_SNR200_14hz_g55_74.RAW', FMTDAT='(8E13.5)'
 TRAMP=1., VOLUME=1. $END
  3.11659E+05  7.91694E+02  3.36514E+05  2.50600E+05  8.41790E+04  3.38472E+05 -1.31460E+05  2.51558E+05
 -1.90376E+05  8.25210E+04 -1.12443E+05 -3.22393E+04  1.35879E+03 -5.07513E+04  5.38776E+04 -4.60712E+02
  3.65376E+04  5.32838E+04 -1.72984E+04  7.51939E+04 -6.23689E+04  6.39327E+04 -8.41902E+04  3.26536E+04
 -8.20174E+04 -1.09156E+04 -5.76110E+04 -5.16223E+04 -1.44566E+04 -7.02868E+04  2.80023E+04 -4.64180E+04
  4.06334E+04  2.67871E+03  1.60739E+04  4.82758E+04 -3.31870E+04  4.81952E+04 -6.74482E+04  3.69327E+01
 -5.35905E+04 -5.78442E+04 -7.62254E+03 -7.84586E+04  3.35553E+04 -5.55463E+04  4.82714E+04 -1.63564E+04
  4.29853E+04  1.03288E+04  3.16155E+04  2.68362E+04  1.63444E+04  2.81569E+04 -5.42911E+03  2.80688E+04
 -2.25915E+04  1.22800E+04 -1.89523E+04 -5.30008E+03  5.53551E+03 -7.67703E+03  2.26623E+04  1.18802E+04
  7.06075E+03  3.43431E+04 -3.12828E+04  3.56985E+04 -6.50344E+04  2.23211E+03 -5.65926E+04 -4.37924E+04
 -1.21839E+04 -6.40550E+04  3.90488E+04 -4.61720E+04  5.91452E+04 -3.07937E+03  3.41878E+04  3.19529E+04
 -5.76147E+03  3.68041E+04 -3.03974E+04  1.65130E+04 -3.23843E+04 -4.99688E+03 -1.81859E+04 -1.00347E+04
 -7.83529E+03 -1.32049E+04 -3.10246E+02 -1.89599E+04  9.17699E+03 -2.33919E+04  1.63587E+04 -1.34204E+04
  1.22198E+04  6.82068E+03 -8.47513E+03  1.28655E+04 -2.19457E+04 -5.79354E+03 -8.58812E+03 -3.44893E+04
  2.39476E+04 -4.36412E+04  4.93842E+04 -1.94399E+04  4.63509E+04  1.99270E+04  1.56328E+04  4.40049E+04
 -1.61557E+04  3.40264E+04 -2.69449E+04  6.91348E+02 -1.07227E+04 -2.87663E+04  2.18169E+04 -3.40466E+04
  4.13151E+04 -9.66805E+03  3.63420E+04  2.45624E+04  1.89442E+04  4.76217E+04 -8.26492E+03  5.10897E+04
 -3.18793E+04  3.38625E+04 -4.22079E+04  9.21960E+03 -4.32551E+04 -1.68306E+04 -2.47993E+04 -3.89113E+04
  6.61444E+03 -3.82014E+04  3.22245E+04 -1.52052E+04  2.95090E+04  9.58424E+03  4.90893E+03  1.87888E+04
 -1.30873E+04  7.16013E+03 -1.09477E+04 -7.37270E+03  6.12551E+03 -1.02104E+04  1.81445E+04  5.53510E+03
  1.35937E+04  2.26961E+04 -6.98589E+03  2.51192E+04 -2.29043E+04  1.28441E+04 -2.82774E+04 -5.63988E+03
 -2.13796E+04 -1.74601E+04 -9.64968E+03 -2.13601E+04  3.75858E+03 -2.07941E+04  1.67235E+04 -1.87674E+04
  2.66657E+04 -1.35689E+04  3.23769E+04  2.88312E+03  2.47992E+04  2.04992E+04  4.80266E+03  3.70142E+04
 -1.94884E+04  3.13442E+04 -2.89799E+04  1.10975E+04 -2.10716E+04 -9.99008E+03 -4.06505E+03 -1.30120E+04
  1.11854E+03 -1.81466E+03 -5.34714E+03  6.87592E+03 -1.68935E+04  4.55196E+03 -1.63819E+04 -7.29838E+03
 -1.14025E+04 -1.92809E+04  6.01879E+03 -2.33959E+04  1.48804E+04 -1.66912E+04  1.99363E+04 -9.35824E+02
  1.13723E+04  1.30694E+04 -2.06152E+03  1.87181E+04 -1.34632E+04  1.16515E+04 -2.01833E+04 -3.49374E+03
 -1.30037E+04 -1.87025E+04 -2.09913E+03 -2.36702E+04  1.03406E+04 -1.99828E+04  1.94580E+04 -9.55961E+03
  1.78735E+04  8.78634E+02  1.27990E+04  4.13607E+03  8.15612E+03  7.86989E+02  8.86045E+03 -1.79562E+03
  2.00910E+04  2.87857E+03  2.05026E+04  1.44522E+04  1.42263E+04  3.06394E+04 -4.88302E+03  3.67245E+04
 -2.09550E+04  2.85648E+04 -3.29749E+04  1.52813E+04 -3.49697E+04 -2.24392E+03 -2.95184E+04 -2.03179E+04
 -1.19166E+04 -2.82342E+04  9.86896E+03 -2.56585E+04  2.30688E+04 -1.31351E+04  1.98423E+04  6.14773E+03
  7.96035E+03  1.50615E+04 -1.02081E+04  1.22844E+04 -1.70813E+04  2.23704E+03 -1.26297E+04 -1.03327E+04
  1.18545E+03 -1.55271E+04  7.90223E+03 -1.12338E+04  1.04671E+04 -3.78379E+02  2.23206E+03  8.28183E+03
 -7.64824E+03  1.33769E+03 -5.64396E+03 -5.80258E+03 -8.14379E+02 -1.34854E+04  9.88457E+03 -1.51630E+04
  1.73767E+04 -8.85799E+03  1.81687E+04  2.39729E+03  1.74037E+04  1.36678E+04  7.51607E+03  2.17765E+04
 -3.15067E+03  2.23293E+04 -1.24990E+04  1.58422E+04 -1.73832E+04  4.12603E+03 -1.26087E+04 -3.57695E+03
 -5.63286E+03 -4.52756E+03  8.48897E+01  1.14778E+03 -2.63097E+03  2.42104E+03 -5.26323E+03  3.74434E+03
 -1.07087E+04 -5.61834E+02 -1.12779E+04 -9.08799E+03 -4.66443E+03 -1.50823E+04  5.89524E+03 -1.15044E+04
  1.10195E+04 -5.07285E+03  7.80232E+03  3.66985E+03  2.30088E+02  3.57203E+03 -5.34799E+03 -6.18525E+02
 -5.27930E+03 -5.60941E+03 -1.86881E+03 -1.06481E+04  6.81664E+03 -1.03562E+04  1.47831E+04 -7.60436E+03
  1.77815E+04  7.10596E+02  1.26007E+04  1.09142E+04  1.93833E+03  1.30682E+04 -8.14982E+03  1.30497E+04
 -8.22067E+03  3.17580E+03 -3.69004E+03 -1.38355E+03  1.36541E+03 -3.79324E+03  5.55253E+03 -1.13485E+03
  5.99038E+03  4.93850E+03 -9.99644E+00  1.00604E+04 -7.82748E+03  7.37153E+03 -1.18507E+04  1.63250E+03
 -7.21387E+03 -5.80685E+03  7.13957E+02 -9.47899E+03  6.57818E+03 -4.92872E+03  6.83988E+03  1.53008E+03
  6.08216E+02  6.10599E+03 -5.09936E+03  7.73600E+03 -9.77577E+03  2.47955E+03 -8.96341E+03 -3.01623E+03
 -5.97961E+03 -1.07764E+04  2.33982E+03 -1.10710E+04  1.09363E+04 -7.08492E+03  1.18572E+04  2.25495E+03
  7.35631E+03  9.70438E+03 -1.51962E+02  1.02748E+04 -8.97093E+03  5.36661E+03 -9.21151E+03 -1.13606E+03
 -7.68340E+03 -7.22490E+03 -7.51556E+02 -8.12375E+03  4.94292E+03 -8.10578E+03  5.65002E+03 -2.75458E+03
  3.51593E+03  2.75306E+03  5.07103E+02  2.08409E+03 -5.37333E+02 -2.19136E+03  1.24203E+03 -5.35383E+03
  7.53897E+03 -3.53008E+03  9.71402E+03  1.85811E+03  1.08131E+04  7.33776E+03  7.88246E+03  1.29668E+04
 -2.65051E+03  1.61843E+04 -1.24021E+04  1.18395E+04 -1.59492E+04  1.26397E+03 -1.26291E+04 -4.90017E+03
 -7.52574E+03 -1.00422E+04 -1.02307E+03 -1.01426E+04  3.61054E+03 -4.78017E+03  3.84747E+03 -2.74652E+03
  2.88780E+03 -3.56995E+03  3.13312E+03 -2.74176E+03  5.14189E+03 -2.41914E+03  6.23722E+03 -8.06030E+02
  6.75628E+03  1.75420E+03  1.50156E+03  7.16150E+03 -1.18075E+03  5.76479E+03 -7.70885E+03  5.89528E+03
 -8.86874E+03 -2.50622E+02 -4.32834E+03 -7.17987E+03 -1.04615E+03 -8.44437E+03  4.95470E+03 -9.84300E+03
  9.30338E+03 -6.45857E+03  1.10804E+04  2.23858E+03  7.88487E+03  7.99830E+03  2.34054E+03  1.16656E+04
 -3.70184E+03  8.69307E+03 -8.01106E+03  3.50341E+03 -3.90139E+03 -7.10502E+02 -9.72219E+02 -9.68059E+02
 -1.67031E+03 -2.16503E+03 -1.07383E+03  2.23007E+03 -3.35340E+03  1.67937E+03 -6.95177E+03 -1.76905E+02
 -3.95764E+03 -6.44096E+03  6.14394E+01 -9.54277E+03  5.79765E+03 -7.64364E+03  8.13496E+03 -2.24982E+03
  7.60937E+03  5.33653E+03  3.39044E+03  5.71365E+03 -1.98169E+03  7.70116E+03 -5.73294E+03  5.87683E+03
 -7.42543E+03 -3.27959E+02 -5.68181E+03 -5.60486E+03 -9.20028E+02 -6.69446E+03  4.77364E+03 -4.28115E+03
  4.12751E+03 -2.07541E+03  3.89277E+03  1.57246E+03  9.79889E+02  2.84749E+03  1.24956E+03  4.37972E+02
  2.40786E+03  1.42950E+03  2.28436E+03  1.76521E+03  3.27492E+03  3.38637E+03  2.87006E+03  3.03655E+03
 -2.34437E+03  7.26836E+03 -6.51069E+03  6.70231E+03 -6.45890E+03  1.54832E+03 -7.88914E+03 -3.33740E+03
 -3.53750E+03 -6.98424E+03  1.95452E+03 -8.48883E+03  4.01743E+03 -5.49536E+03  7.19555E+03 -2.63740E+03
  4.15064E+03  3.13739E+03  1.17579E+03  4.65687E+03 -3.14844E+03  3.22455E+03 -2.18261E+03 -4.80115E+02
 -1.64608E+03 -3.35097E+03  2.83611E+03 -3.34327E+03  2.54751E+03 -1.77732E+03  2.77086E+03  4.64098E+02
  1.31162E+03  6.44908E+02  7.38825E+02  6.66425E+01 -9.16763E+01  1.80623E+03  1.83246E+03 -5.51520E+02
  8.41319E+02 -4.88270E+02  2.48386E+03  5.65650E+02 -5.84549E+02  4.73216E+03 -2.89147E+02  6.57304E+03
 -4.24671E+03  2.34107E+03 -4.18601E+03  8.81446E+02 -4.78705E+03 -6.19538E+02 -1.23223E+03 -2.18860E+03
  1.40364E+03 -3.37993E+03  1.99079E+03 -8.70721E+02  2.09309E+03  2.00335E+03  3.17402E+02  4.42339E+03
 -1.98454E+03  1.51459E+03 -3.51952E+03 -2.11676E+03 -2.08857E+03 -4.53862E+03  7.62185E+02 -3.16144E+03
  2.90057E+03 -2.42926E+03  3.10514E+03 -1.43423E+03  1.43149E+03  6.25541E+02 -2.20251E+01  2.27772E+03
 -4.51408E+02  6.61304E+01 -1.76303E+03 -1.02037E+03 -4.49313E+02 -3.04906E+03  4.17494E+03 -3.13396E+03
  2.47866E+03 -2.41935E+02  5.44398E+03  3.00588E+03  2.32238E+03  4.44830E+03 -1.37682E+03  3.25249E+03
 -3.35955E+03  1.59410E+03 -5.37257E+03  6.15245E+01 -1.93776E+03 -3.53441E+03  7.83058E+02 -2.24639E+03
  2.83242E+03 -2.54175E+03  2.35977E+03  1.09246E+03  5.81371E+02  2.09909E+03  1.00340E+03  1.48150E+03
 -1.47119E+03  7.07894E+02 -1.94597E+03  1.26699E+02  1.11456E+03  9.51206E+02 -1.91199E+03  1.15545E+03
 -1.36124E+03  2.05900E+03 -3.40598E+03  1.11488E+03 -4.54733E+03 -5.98261E+01 -6.27618E+03 -3.14819E+03
 -2.36008E+03 -5.01134E+03  1.00153E+03 -5.41472E+03  4.34091E+03 -5.59956E+03  5.92178E+03 -1.69049E+03
  5.93383E+03  7.76658E+02  4.31574E+03  4.98453E+03  3.40006E+02  3.90680E+03 -2.21694E+03  4.28633E+03
 -2.54637E+03  2.19822E+03 -2.24966E+03 -2.07399E+02  2.65737E+02 -8.27644E+02  6.69795E+02 -1.43078E+02
 -1.48298E+03 -8.13243E+02 -1.50411E+03  5.61892E+01 -7.00501E+01 -1.69425E+03 -2.02182E+03 -1.56043E+03
  1.91411E+03 -1.74582E+03  2.78472E+03  2.61211E+02  2.95955E+03  1.00062E+03  9.97782E+02  3.34677E+03
 -2.02307E+03  4.58509E+03 -3.39379E+03  3.82664E+03 -4.75328E+03 -3.82631E+02 -3.24324E+03 -3.86387E+03
 -1.28899E+03 -3.54132E+03  1.91202E+03 -3.45009E+03  2.06065E+03 -7.04932E+02  2.44692E+03  1.10292E+02
  1.82504E+03  2.33524E+03 -8.23128E+02  2.00274E+03  1.38040E+03  4.21914E+02 -3.81516E+02 -3.39369E+02
  1.26084E+03  2.40979E+02  1.45661E+03  6.12475E+02  7.71588E+02  2.65861E+03  1.60192E+03  2.17884E+03
 -2.00381E+03  1.67890E+03 -1.81472E+03  1.96731E+02 -1.58357E+03 -1.23370E+03 -6.01631E+02 -2.65710E+03
  1.97480E+03 -2.63998E+03  2.51855E+03 -1.25283E+03  2.05180E+03  1.20682E+03  2.20258E+03  2.15074E+03
  1.48647E+03  1.44799E+03  3.55650E+02  2.56335E+03 -2.09891E+03  1.50362E+03 -6.04661E+02  7.94974E+02
 -2.10403E+03 -1.25043E+03 -3.68448E+02 -1.11001E+01 -1.93168E+03  1.51771E+03 -2.33362E+03 -8.85002E+02
 -1.80227E+03 -1.37789E+03 -1.09037E+03 -2.61618E+03  1.29680E+03 -2.40594E+03  2.27271E+03 -9.63884E+02
  1.78357E+03  1.71421E+02  1.60472E+03  2.46295E+03 -1.26296E+03  2.22574E+03 -1.78815E+03  2.14184E+03
