 $NMID ID='MM_0lb_SNR200_13hz_g55_19.RAW', FMTDAT='(8E13.5)'
 TRAMP=1., VOLUME=1. $END
  3.10288E+05  2.09886E+03  3.36497E+05  2.49920E+05  8.53597E+04  3.38181E+05 -1.33052E+05  2.51205E+05
 -1.90378E+05  8.44208E+04 -1.11522E+05 -3.26972E+04  2.47742E+02 -5.18189E+04  5.43433E+04 -3.28677E+02
  3.49739E+04  5.34553E+04 -1.55940E+04  7.57719E+04 -6.13050E+04  6.30758E+04 -8.46301E+04  3.17092E+04
 -8.16572E+04 -1.17189E+04 -5.75104E+04 -5.25206E+04 -1.56729E+04 -6.99069E+04  2.65813E+04 -4.47847E+04
  4.06094E+04  5.13466E+03  1.70189E+04  4.69347E+04 -3.47958E+04  4.86243E+04 -6.71388E+04  9.09569E+01
 -5.51305E+04 -5.57341E+04 -7.86210E+03 -7.86426E+04  3.42358E+04 -5.54256E+04  4.76220E+04 -1.67616E+04
  4.34188E+04  1.17048E+04  3.26304E+04  2.69886E+04  1.56296E+04  2.97555E+04 -5.73628E+03  2.70073E+04
 -2.19397E+04  1.29194E+04 -1.90664E+04 -5.55063E+03  6.41066E+03 -8.04303E+03  2.22424E+04  1.37315E+04
  7.24724E+03  3.59480E+04 -3.34010E+04  3.65949E+04 -6.33040E+04  1.66889E+03 -5.84242E+04 -4.37811E+04
 -1.14948E+04 -6.58910E+04  4.02806E+04 -4.54503E+04  5.86049E+04 -1.87865E+03  3.44770E+04  3.25869E+04
 -5.47842E+03  3.78946E+04 -2.98604E+04  1.68883E+04 -2.98524E+04 -4.69821E+03 -1.86855E+04 -1.23107E+04
 -7.96353E+03 -1.45844E+04 -1.46613E+02 -1.85322E+04  8.62598E+03 -2.30443E+04  1.50063E+04 -1.28468E+04
  1.09782E+04  5.35564E+03 -1.07884E+04  1.22415E+04 -2.13064E+04 -5.49582E+03 -8.27116E+03 -3.50984E+04
  2.36401E+04 -4.57937E+04  4.87484E+04 -1.96991E+04  4.71351E+04  1.99651E+04  1.68717E+04  4.46468E+04
 -1.67536E+04  3.48667E+04 -2.65622E+04  3.56391E+03 -1.14038E+04 -2.91647E+04  2.13430E+04 -3.58510E+04
  4.18711E+04 -1.10670E+04  3.65570E+04  2.38431E+04  1.94063E+04  4.72327E+04 -8.34028E+03  5.22354E+04
 -3.24022E+04  3.51809E+04 -4.25106E+04  1.02908E+04 -4.40442E+04 -1.72168E+04 -2.55284E+04 -3.89196E+04
  8.07107E+03 -3.89371E+04  3.13247E+04 -1.58767E+04  2.98123E+04  9.55367E+03  4.92567E+03  2.04592E+04
 -1.32718E+04  8.83682E+03 -9.87627E+03 -8.07165E+03  6.15575E+03 -9.91108E+03  1.83104E+04  6.18392E+03
  1.49686E+04  2.26887E+04 -6.20901E+03  2.55926E+04 -2.25973E+04  1.26496E+04 -2.87726E+04 -4.09443E+03
 -2.30621E+04 -1.84559E+04 -9.50203E+03 -2.20360E+04  4.55877E+03 -2.01857E+04  1.71192E+04 -2.00873E+04
  2.79234E+04 -1.31581E+04  3.48760E+04  2.80582E+03  2.43395E+04  2.17055E+04  5.16804E+03  3.84759E+04
 -1.84050E+04  3.12748E+04 -2.77530E+04  1.20516E+04 -2.06159E+04 -1.10838E+04 -4.57400E+03 -1.30901E+04
  2.59917E+03 -1.55665E+03 -5.79841E+03  7.44691E+03 -1.68697E+04  4.63434E+03 -1.58636E+04 -7.86692E+03
 -1.06594E+04 -2.01078E+04  4.97442E+03 -2.46077E+04  1.65056E+04 -1.63844E+04  1.87903E+04 -2.09596E+03
  1.20287E+04  1.32341E+04 -4.34860E+02  1.89655E+04 -1.35143E+04  1.12176E+04 -1.97252E+04 -3.49850E+03
 -1.61746E+04 -1.77780E+04 -6.91804E+02 -2.49634E+04  1.07454E+04 -1.94664E+04  2.02498E+04 -9.81565E+03
  1.86200E+04 -2.10205E+02  1.41718E+04  4.38868E+03  6.38060E+03  1.08405E+03  9.80818E+03 -1.99438E+03
  1.93834E+04  3.42197E+03  2.16343E+04  1.64628E+04  1.48373E+04  3.31313E+04 -2.78782E+03  3.72146E+04
 -2.18746E+04  3.15416E+04 -3.46939E+04  1.61997E+04 -3.71111E+04 -3.05226E+03 -3.16359E+04 -2.19668E+04
 -1.37137E+04 -3.03334E+04  9.07838E+03 -2.65280E+04  2.27528E+04 -1.40427E+04  2.17683E+04  5.56313E+03
  6.60985E+03  1.64631E+04 -1.05953E+04  1.47509E+04 -1.79330E+04  2.60352E+03 -1.34448E+04 -1.10240E+04
  6.74201E+01 -1.72875E+04  8.73510E+03 -1.20649E+04  1.05090E+04 -1.15941E+03  1.66711E+03  7.77885E+03
 -7.79403E+03  2.58578E+03 -6.19297E+03 -7.17808E+03 -6.59701E+02 -1.56399E+04  1.00506E+04 -1.58663E+04
  1.88991E+04 -8.17075E+03  2.02526E+04  3.94448E+03  1.58208E+04  1.57155E+04  8.75236E+03  2.26679E+04
 -5.59454E+03  2.45656E+04 -1.49627E+04  1.43924E+04 -1.70069E+04  2.47152E+03 -1.35897E+04 -3.98439E+03
 -6.17141E+03 -6.16183E+03 -8.99921E+02  5.42226E+02 -1.49913E+03  1.63096E+03 -6.30852E+03  3.49402E+03
 -1.23034E+04 -7.32692E+02 -1.14668E+04 -9.97462E+03 -3.79459E+03 -1.66211E+04  5.15961E+03 -1.30865E+04
  1.07985E+04 -4.22741E+03  6.98009E+03  3.46936E+03 -4.75757E+01  5.20949E+03 -6.52324E+03 -1.36400E+02
 -6.99886E+03 -8.64493E+03 -1.57624E+03 -1.21393E+04  6.72637E+03 -1.11147E+04  1.66307E+04 -6.97629E+03
  1.85694E+04  2.30008E+03  1.31973E+04  1.19822E+04  2.20217E+03  1.39009E+04 -8.33194E+03  1.18871E+04
 -1.14950E+04  4.06412E+03 -4.33766E+03 -3.67338E+03  1.02361E+03 -3.43415E+03  6.85704E+03 -9.87290E+02
  6.17762E+03  7.26919E+03  1.07607E+03  9.91773E+03 -7.60227E+03  9.39796E+03 -1.36435E+04  2.16001E+03
 -8.38760E+03 -6.29524E+03  2.51497E+01 -1.00411E+04  7.22004E+03 -6.03128E+03  7.39164E+03  2.18017E+03
  1.76463E+03  7.22498E+03 -6.06387E+03  7.32017E+03 -9.41809E+03  4.25012E+03 -1.06072E+04 -2.11523E+03
 -6.43337E+03 -1.15366E+04  2.91766E+03 -1.23755E+04  1.11677E+04 -6.64905E+03  1.39647E+04  7.86856E+02
  7.41499E+03  9.44385E+03 -4.61481E+02  1.14481E+04 -9.02594E+03  5.88479E+03 -8.91153E+03 -1.48260E+03
 -8.88271E+03 -7.55753E+03 -6.65176E+02 -9.07358E+03  3.89997E+03 -7.40525E+03  4.67750E+03 -4.69238E+03
  4.49840E+03  1.65290E+03 -9.78747E+02  3.15366E+03  2.72076E+02 -3.61082E+03  1.45885E+03 -4.28176E+03
  8.84071E+03 -1.83058E+03  1.14965E+04  2.87731E+03  1.09127E+04  7.90755E+03  8.47292E+03  1.38676E+04
 -3.58334E+03  1.67313E+04 -1.44979E+04  1.34454E+04 -1.81648E+04  2.57797E+03 -1.45012E+04 -6.94256E+03
 -7.94427E+03 -1.23062E+04  2.09720E+02 -1.06679E+04  3.60052E+03 -4.54210E+03  3.54112E+03 -4.14065E+03
  2.78767E+03 -2.17320E+03  2.88921E+03 -3.84137E+03  5.48462E+03 -2.16330E+03  6.11107E+03  1.78472E+02
  7.85449E+03  2.38586E+03  3.71354E+03  7.56074E+03 -2.70542E+03  7.00371E+03 -7.80411E+03  6.09642E+03
 -9.48740E+03 -1.49956E+03 -5.88672E+03 -6.12835E+03 -1.11086E+03 -1.09936E+04  6.74408E+03 -1.05971E+04
  1.13308E+04 -5.79368E+03  1.39087E+04  8.55022E+02  9.99427E+03  9.75683E+03  2.89948E+03  1.06092E+04
 -5.44599E+03  1.09225E+04 -6.40260E+03  2.89939E+03 -5.14058E+03 -2.15729E+03 -2.66570E+02 -5.75631E+02
 -8.59718E+02 -2.15043E+02 -2.66899E+03  1.46342E+03 -3.24257E+03  3.37622E+03 -7.70279E+03 -1.92822E+02
 -4.90076E+03 -6.25169E+03  7.32372E+02 -8.97530E+03  6.41112E+03 -9.53674E+03  8.85982E+03 -1.81335E+03
  9.99266E+03  4.28789E+03  4.47663E+03  8.89746E+03 -3.17449E+03  9.89454E+03 -6.38800E+03  5.67467E+03
 -9.12731E+03  1.21030E+03 -7.15020E+03 -4.83780E+03 -7.74742E+02 -8.65452E+03  3.67110E+03 -5.74265E+03
  6.23599E+03 -2.41755E+03  3.41526E+03  1.71790E+03  5.01945E+02  3.02247E+03  1.56061E+03  2.25384E+03
  3.38243E+03  3.87351E+02  6.59371E+02  2.67543E+03  2.30218E+03  3.33766E+03  3.19157E+03  5.23663E+03
 -5.52959E+02  7.63082E+03 -5.92233E+03  9.85859E+03 -9.80465E+03  1.59854E+03 -9.13439E+03 -2.56819E+03
 -4.51482E+03 -9.05130E+03  9.01139E+02 -1.01478E+04  6.52932E+03 -5.90759E+03  7.78662E+03 -2.34435E+03
  5.47112E+03  3.65677E+03  1.12643E+03  5.53169E+03 -7.81401E+02  4.51525E+03 -3.04568E+03 -7.91467E+02
 -7.72607E+02 -3.41038E+03  1.13693E+03 -1.55695E+03  2.49317E+03 -3.11822E+03  2.32892E+03 -6.77651E+02
  1.01912E+03  1.60858E+03  2.23201E+03  8.95196E+02 -2.49618E+02  9.68794E+01  1.99436E+03 -6.26646E+02
  1.57243E+03 -1.78879E+03  2.78611E+03  1.93888E+03  1.49307E+03  5.42302E+03 -1.27778E+03  6.67475E+03
 -4.62087E+03  3.23433E+03 -6.36898E+03  2.66551E+03 -5.26770E+03 -1.92010E+03 -2.03263E+02 -1.89301E+03
 -1.14254E+02 -4.47445E+03  2.47125E+03 -1.88812E+03  2.38953E+03  9.61031E+02 -1.20565E+03  2.41772E+03
 -3.40070E+03  1.95364E+03 -4.42657E+03 -3.79083E+03 -2.73042E+03 -4.51240E+03 -2.47444E+02 -5.30313E+03
  2.28252E+03 -2.25972E+03  4.34080E+03 -6.73537E+02  3.85203E+03  6.27347E+02  1.21344E+03  2.65832E+03
 -1.88962E+03  1.14804E+03 -1.76404E+03 -1.23985E+03  1.47955E+02 -4.69046E+03  4.38932E+03 -1.75193E+03
  4.64091E+03  3.07510E+02  5.90863E+03  2.65575E+03  1.13879E+03  5.37265E+03 -1.49319E+03  4.39708E+03
 -2.99431E+03  3.23735E+03 -4.95147E+03 -3.91896E+02 -2.92474E+03 -3.25696E+03  1.31003E+03 -2.88542E+03
  3.16788E+03 -3.46945E+03  2.32367E+03  2.06880E+03  8.66078E+02  3.36455E+03 -1.65450E+02  3.31257E+03
 -1.56455E+03  2.37382E+03 -1.41125E+03  4.16989E+02 -5.21415E+02  6.39438E+02 -9.31648E+02  1.44853E+03
 -2.56278E+03  2.65450E+03 -2.95229E+03  5.35772E+02 -4.91080E+03 -2.86663E+02 -5.40113E+03 -3.06149E+03
 -3.17730E+03 -7.35075E+03  1.85201E+03 -7.91539E+03  4.53544E+03 -6.29371E+03  6.62214E+03 -2.61017E+03
  8.07778E+03  6.48733E+02  3.31614E+03  3.84400E+03  5.72398E+02  4.80986E+03 -1.11105E+03  4.18989E+03
 -1.79107E+03  1.67405E+03 -1.19538E+03 -8.13830E+02 -1.68687E+03 -1.02505E+03  3.88146E+02  9.80042E+02
 -1.17098E+03  2.72711E+02 -1.86104E+03  2.53765E+02 -3.63209E+01 -1.04944E+03  1.43520E+02 -1.68992E+03
  2.89488E+03 -4.51749E+02  3.11807E+03  3.87977E+02  4.02813E+03  2.21924E+03  1.77085E+03  4.15422E+03
 -3.13069E+03  5.67721E+03 -5.01240E+03  3.32360E+03 -5.21873E+03  1.52887E+02 -3.94307E+03 -4.02920E+03
 -1.78328E+03 -4.55893E+03  2.44251E+03 -4.69813E+03  4.25691E+03 -2.21020E+03  1.99428E+03 -8.04421E+02
  1.73796E+03  1.37683E+03 -1.91564E+02  1.08298E+03 -9.07007E+02 -1.11517E+03 -9.15435E+02 -1.22655E+03
  1.88453E+03  4.00265E+02  6.98396E+02 -2.39014E+02  8.28287E+02  1.79974E+03 -4.80594E+02  3.12119E+03
 -1.08371E+03  2.08733E+03 -2.16734E+03  5.74284E+02 -3.21406E+03 -1.82349E+03 -6.08460E+02 -5.01868E+03
  2.98455E+03 -2.87730E+03  4.26513E+03  5.52748E+02  2.49988E+03 -1.10791E+03  1.49552E+03  3.40273E+03
  3.25585E+02  1.74331E+03 -3.59758E+02  5.84015E+02 -2.45992E+03  1.09089E+03 -1.69653E+03  8.11184E+02
 -1.25147E+03 -7.25570E+02 -8.20182E+02  7.51526E+02 -2.20397E+03 -4.41351E+02 -1.67938E+03 -1.00517E+03
 -2.30562E+03 -2.02306E+03 -1.78975E+03 -4.70406E+03  1.55218E+03 -3.37443E+03  3.24623E+03 -1.32738E+03
  2.66842E+03 -7.50208E+02  5.75363E+02  1.77584E+03 -9.48763E+02  2.82086E+03 -7.82277E+02  2.32237E+03
