 $NMID ID='MM_0lb_SNR200_8hz_g40_94.RAW', FMTDAT='(8E13.5)'
 TRAMP=1., VOLUME=1. $END
  3.10201E+05 -3.00403E+02  3.38722E+05  2.49464E+05  8.53542E+04  3.38094E+05 -1.32743E+05  2.52152E+05
 -1.92269E+05  8.47214E+04 -1.12837E+05 -3.41135E+04 -6.06285E+00 -5.02220E+04  5.31690E+04 -1.01947E+03
  3.68285E+04  5.09817E+04 -1.54195E+04  7.65326E+04 -6.09748E+04  6.36551E+04 -8.41103E+04  3.25397E+04
 -8.22563E+04 -1.15409E+04 -5.69807E+04 -5.22752E+04 -1.56034E+04 -7.13274E+04  2.91553E+04 -4.79263E+04
  4.14778E+04  3.27999E+03  1.49814E+04  4.68949E+04 -3.52017E+04  4.80913E+04 -6.84647E+04 -6.40229E+02
 -5.62010E+04 -5.91809E+04 -7.68544E+03 -7.93347E+04  3.47051E+04 -5.71968E+04  4.85867E+04 -1.83578E+04
  4.54212E+04  1.24139E+04  3.42110E+04  2.69277E+04  1.39234E+04  3.05555E+04 -7.32197E+03  2.97712E+04
 -2.31602E+04  1.25265E+04 -1.90643E+04 -6.62894E+03  8.48685E+03 -7.40506E+03  2.34519E+04  1.35851E+04
  5.40240E+03  3.78458E+04 -3.30560E+04  3.77606E+04 -6.57204E+04  2.76461E+03 -5.90247E+04 -4.24315E+04
 -1.17525E+04 -6.63665E+04  4.38609E+04 -4.79218E+04  6.04049E+04 -2.53115E+03  3.63134E+04  3.37486E+04
 -4.56091E+03  3.98512E+04 -3.32125E+04  1.89117E+04 -3.26869E+04 -5.51047E+03 -1.74590E+04 -1.23473E+04
 -9.04563E+03 -1.55635E+04 -5.04006E+02 -2.14640E+04  8.87588E+03 -2.41114E+04  1.63332E+04 -1.26949E+04
  9.94048E+03  6.81436E+03 -1.14247E+04  1.31167E+04 -2.27663E+04 -6.15353E+03 -9.73594E+03 -3.81311E+04
  2.35396E+04 -4.64310E+04  5.21062E+04 -2.03749E+04  5.17582E+04  2.12942E+04  1.59743E+04  4.68461E+04
 -1.73628E+04  3.64851E+04 -2.56087E+04  2.24058E+03 -1.10309E+04 -3.04930E+04  2.19806E+04 -3.74218E+04
  4.74897E+04 -1.12043E+04  3.92344E+04  2.66305E+04  2.05246E+04  5.00672E+04 -7.68018E+03  5.74903E+04
 -3.57216E+04  3.96930E+04 -4.80539E+04  1.07645E+04 -4.80227E+04 -1.80923E+04 -2.56297E+04 -4.09616E+04
  9.13869E+03 -4.26510E+04  3.40883E+04 -1.65619E+04  3.19234E+04  1.16776E+04  4.33004E+03  2.11893E+04
 -1.36726E+04  1.10976E+04 -1.07772E+04 -6.61745E+03  4.96578E+03 -1.13080E+04  1.92285E+04  4.19504E+03
  1.53894E+04  2.27635E+04 -5.16932E+03  2.83844E+04 -2.33767E+04  1.38443E+04 -3.26472E+04 -4.65631E+03
 -2.63522E+04 -1.86259E+04 -1.04770E+04 -2.51668E+04  6.25518E+03 -2.54665E+04  2.05764E+04 -2.26538E+04
  3.29412E+04 -1.38412E+04  3.83974E+04  5.31494E+03  2.69892E+04  2.53506E+04  5.25613E+03  4.18553E+04
 -1.82431E+04  3.36357E+04 -3.14976E+04  1.16399E+04 -2.35912E+04 -1.01088E+04 -3.60970E+03 -1.27209E+04
  2.87143E+02 -1.70123E+03 -6.73854E+03  7.64205E+03 -2.05892E+04  4.62522E+03 -2.20500E+04 -1.00754E+04
 -1.42138E+04 -2.44194E+04  8.12815E+03 -2.65935E+04  1.87947E+04 -2.16035E+04  2.24501E+04 -2.91302E+03
  1.47352E+04  1.66665E+04 -1.55412E+03  2.39292E+04 -1.70782E+04  1.26149E+04 -2.38941E+04 -5.54914E+03
 -1.68582E+04 -2.24941E+04 -1.52924E+03 -2.76352E+04  1.23869E+04 -2.12666E+04  2.41360E+04 -1.09222E+04
  2.24454E+04  1.44121E+03  1.77560E+04  6.06221E+03  8.24962E+03  2.74517E+03  1.19187E+04 -2.07074E+03
  2.10028E+04  3.51085E+03  2.51092E+04  1.93215E+04  1.83608E+04  3.66301E+04 -2.71650E+03  4.54151E+04
 -2.42639E+04  3.63657E+04 -4.29269E+04  1.93345E+04 -4.58203E+04 -4.47044E+03 -3.67722E+04 -2.58375E+04
 -1.57291E+04 -3.83087E+04  1.40596E+04 -3.37184E+04  2.76304E+04 -1.81043E+04  2.51532E+04  5.76216E+03
  9.65151E+03  2.00306E+04 -1.13569E+04  1.43856E+04 -2.10464E+04  2.43648E+03 -1.47300E+04 -1.35512E+04
  3.11348E+02 -1.78121E+04  1.08418E+04 -1.55497E+04  1.35502E+04 -2.87878E+03  3.46447E+03  1.05173E+04
 -8.73830E+03  2.04620E+03 -9.92147E+03 -7.56079E+03 -2.33317E+03 -2.00337E+04  1.19267E+04 -2.02606E+04
  2.47526E+04 -1.02444E+04  2.59838E+04  3.00149E+03  2.31314E+04  1.85156E+04  1.09084E+04  2.88034E+04
 -5.34334E+03  2.95545E+04 -2.10509E+04  1.76707E+04 -2.22133E+04  2.59034E+03 -1.54992E+04 -4.49156E+03
 -5.54893E+03 -4.87173E+03 -1.76202E+03  5.87550E+02 -1.24238E+03  3.50536E+03 -7.45728E+03  6.27915E+03
 -1.24874E+04 -4.60971E+02 -1.51710E+04 -1.19309E+04 -5.03810E+03 -1.99933E+04  4.70309E+03 -1.55256E+04
  1.17652E+04 -6.26979E+03  9.13558E+03  3.51412E+03  3.80780E+02  6.78399E+03 -7.17406E+03  7.31136E+02
 -6.87098E+03 -9.98706E+03 -2.22622E+03 -1.63368E+04  9.09156E+03 -1.61454E+04  2.11560E+04 -9.48031E+03
  2.33113E+04  3.75678E+03  1.84960E+04  1.47761E+04  4.24261E+03  1.91939E+04 -9.81702E+03  1.64167E+04
 -1.35690E+04  3.57567E+03 -7.01445E+03 -4.09914E+03  1.57566E+03 -5.41496E+03  8.22411E+03 -1.23136E+03
  8.58768E+03  7.76814E+03  1.54051E+03  1.39155E+04 -9.36527E+03  1.11334E+04 -1.64099E+04  3.84534E+03
 -9.91384E+03 -7.81824E+03  6.68944E+02 -1.46937E+04  9.67134E+03 -7.65314E+03  8.82067E+03  2.31909E+03
  2.28483E+03  1.00303E+04 -9.60923E+03  1.09407E+04 -1.55426E+04  5.87374E+03 -1.43305E+04 -6.18918E+03
 -8.43369E+03 -1.43890E+04  4.21169E+03 -1.87151E+04  1.51398E+04 -1.11130E+04  1.75957E+04  3.33442E+03
  1.04200E+04  1.54132E+04 -1.87073E+03  1.71527E+04 -1.07654E+04  8.94144E+03 -1.32455E+04 -4.43433E+02
 -1.12687E+04 -1.20072E+04 -1.68962E+03 -1.32104E+04  8.37895E+03 -8.76829E+03  9.25089E+03 -3.71978E+03
  4.32715E+03  2.45708E+03  3.88539E+01  2.76381E+03 -7.45555E+01 -2.79535E+03  2.37915E+03 -7.71075E+03
  1.22371E+04 -4.35621E+03  1.59401E+04  1.56587E+03  1.81008E+04  1.11879E+04  1.05481E+04  2.30548E+04
 -4.13811E+03  2.64382E+04 -2.15711E+04  1.82622E+04 -2.69386E+04  3.57130E+03 -2.25105E+04 -7.58833E+03
 -9.88203E+03 -1.76169E+04  4.22962E+02 -1.60697E+04  6.33678E+03 -9.71816E+03  4.66198E+03 -5.29232E+03
  3.16267E+03 -1.29123E+03  4.29496E+03 -3.14485E+03  4.68750E+03 -5.38679E+03  8.02647E+03 -8.92345E+02
  1.19891E+04  1.11444E+03  4.92400E+03  9.87918E+03 -3.54449E+03  1.18454E+04 -1.15719E+04  7.77849E+03
 -1.54072E+04 -1.34005E+03 -9.94187E+03 -9.96521E+03 -1.30330E+03 -1.71721E+04  1.02906E+04 -1.60097E+04
  1.80792E+04 -8.96811E+03  2.06085E+04  3.71988E+03  1.44947E+04  1.52501E+04  2.83146E+03  1.86491E+04
 -8.28382E+03  1.53401E+04 -1.16747E+04  3.52943E+03 -8.36561E+03 -2.07769E+03 -3.00347E+03 -3.13355E+03
 -8.70038E+02 -1.35104E+03 -7.60281E+02  2.68665E+03 -6.23694E+03  3.11538E+03 -1.03277E+04 -1.78410E+03
 -7.96039E+03 -1.02166E+04 -1.60152E+03 -1.76530E+04  9.58499E+03 -1.46294E+04  1.61512E+04 -5.33136E+03
  1.43536E+04  6.33934E+03  6.82275E+03  1.42052E+04 -2.19118E+03  1.65819E+04 -1.14499E+04  1.16149E+04
 -1.59589E+04  2.67000E+02 -1.06147E+04 -8.66148E+03 -9.32395E+02 -1.36252E+04  5.46737E+03 -9.73614E+03
  9.51000E+03 -2.82014E+03  8.19339E+03  2.03660E+03  3.79567E+03  4.08920E+03  1.04508E+03  3.12026E+03
  3.21020E+03  1.07002E+03  5.82323E+03  9.20962E+02  5.05469E+03  3.27729E+03  5.69816E+03  1.01904E+04
 -3.57660E+03  1.26341E+04 -1.23737E+04  1.41993E+04 -1.57488E+04  5.05958E+03 -1.70749E+04 -7.00212E+03
 -6.93099E+03 -1.57550E+04  2.50556E+03 -1.80180E+04  9.20711E+03 -1.08642E+04  1.29045E+04 -2.68355E+03
  1.21388E+04  5.75344E+03  3.53392E+03  8.48045E+03 -4.56410E+03  6.55239E+03 -6.54087E+03 -1.44361E+03
 -4.34503E+03 -6.94393E+03  4.05457E+03 -6.74243E+03  7.32126E+03 -3.02077E+03  5.14683E+03 -3.92737E+02
  5.38259E+03  4.04996E+03  2.30742E+02  2.80315E+03 -5.88388E+02  2.40661E+03  1.44348E+03 -1.08275E+03
  2.40399E+03 -2.58653E+01  6.62790E+03  3.02440E+03  3.04102E+03  8.83630E+03  6.30359E+02  1.24992E+04
 -7.97321E+03  8.20606E+03 -1.04729E+04  1.96537E+03 -9.81618E+03 -2.14929E+03 -2.49937E+03 -6.22519E+03
  7.13390E+02 -7.12080E+03  3.72846E+03 -3.40222E+03  3.29171E+03  1.34870E+03 -1.09490E+03  5.45458E+03
 -6.42328E+03  1.76781E+03 -7.53782E+03 -3.58684E+03 -6.53142E+03 -9.38429E+03  1.12051E+03 -9.04752E+03
  5.82564E+03 -4.66603E+03  7.68622E+03 -1.52411E+03  6.04015E+03  2.81254E+03  1.02619E+03  5.17186E+03
 -3.53711E+03  3.12361E+02 -2.00570E+03 -4.48187E+03  7.16917E+02 -7.75745E+03  8.12935E+03 -3.64095E+03
  9.09178E+03  3.02504E+02  9.72163E+03  5.02807E+03  4.74204E+03  1.13950E+04 -3.87963E+03  9.91230E+03
 -7.63726E+03  3.57176E+03 -8.71084E+03 -1.51844E+03 -6.37163E+03 -7.97222E+03  9.80086E+02 -6.02420E+03
  7.65965E+03 -2.02049E+03  5.66101E+03  1.73097E+03  1.66831E+03  6.29832E+03 -1.59817E+03  4.85918E+03
 -3.19592E+03  2.19403E+03 -3.48296E+03  1.99814E+02 -4.92176E+01  2.17001E+03  2.12244E+02  2.63138E+03
 -3.02908E+03  2.97445E+03 -7.50900E+03  3.09758E+03 -1.15313E+04 -6.48373E+02 -1.16716E+04 -7.75961E+03
 -5.73623E+03 -1.51324E+04  2.52203E+03 -1.78913E+04  9.78117E+03 -1.42992E+04  1.60090E+04 -7.65913E+03
  1.39744E+04  4.01921E+03  9.42488E+03  9.89462E+03  1.65775E+03  1.14689E+04 -5.22105E+03  8.36590E+03
 -9.28319E+03  3.02801E+03 -4.51962E+03 -3.45837E+03 -2.39816E+03 -2.33249E+03 -2.31406E+03 -5.65770E+02
 -2.88170E+03  1.48208E+03 -1.35656E+03  6.31760E+02 -1.50540E+03 -2.90975E+03 -1.20391E+03 -3.93961E+03
  6.20813E+03 -2.62924E+03  6.44283E+03 -3.32002E+02  1.10483E+04  5.48422E+03  1.93944E+03  1.15855E+04
 -7.11856E+03  1.24096E+04 -1.18084E+04  7.91444E+03 -1.49152E+04 -4.61079E+02 -1.18227E+04 -9.29448E+03
 -5.20960E+03 -1.15536E+04  2.58311E+03 -1.09273E+04  9.87495E+03 -5.96203E+03  7.14488E+03  5.97307E+02
  3.92517E+03  4.70828E+03 -5.89216E+02  4.24458E+03 -2.51720E+03  1.15996E+01  1.74658E+03 -2.85802E+03
  2.65758E+03 -2.51183E+03  4.36848E+03  1.82769E+02  3.52140E+03  4.35091E+03  3.48380E+02  7.53502E+03
 -5.69137E+03  5.41411E+03 -6.48256E+03  8.73129E+01 -7.34325E+03 -6.57003E+03 -1.05698E+03 -1.16880E+04
  5.51930E+03 -9.08155E+03  8.51684E+03 -1.61640E+03  8.79581E+03  7.21569E+02  6.12837E+03  7.48638E+03
  4.24606E+02  8.70310E+03 -3.35867E+03  7.10701E+03 -5.03232E+03  1.94184E+03 -4.82993E+03  1.87486E+02
 -1.50409E+03  1.03800E+03 -2.93774E+03  2.39943E+03 -3.08681E+03  1.63425E+03 -6.48877E+03  5.20405E+02
 -6.26299E+03 -4.59087E+03 -1.97850E+03 -7.97381E+03  4.50809E+03 -8.59380E+03  8.24581E+03 -4.31946E+03
  7.52374E+03  2.19919E+03  5.83657E+03  5.89745E+03 -3.51089E+02  8.19521E+03 -5.89108E+03  5.83442E+03
