 $NMID ID='MM_0lb_SNR200_17hz_g45_27.RAW', FMTDAT='(8E13.5)'
 TRAMP=1., VOLUME=1. $END
  3.08819E+05  1.39191E+03  3.37260E+05  2.49406E+05  8.45260E+04  3.37344E+05 -1.31887E+05  2.51068E+05
 -1.90074E+05  8.36030E+04 -1.10612E+05 -3.30539E+04  7.62544E+02 -5.14076E+04  5.39768E+04 -5.42574E+02
  3.54689E+04  5.20708E+04 -1.61764E+04  7.43834E+04 -6.13932E+04  6.27918E+04 -8.31331E+04  3.12294E+04
 -7.97468E+04 -1.11455E+04 -5.57830E+04 -4.97396E+04 -1.61630E+04 -6.86014E+04  2.66130E+04 -4.47827E+04
  3.97564E+04  5.18622E+03  1.59480E+04  4.70786E+04 -3.39377E+04  4.73732E+04 -6.65529E+04  7.29851E+02
 -5.23613E+04 -5.52305E+04 -6.09750E+03 -7.52653E+04  3.34529E+04 -5.51462E+04  4.61301E+04 -1.57612E+04
  4.21402E+04  1.00123E+04  3.13341E+04  2.44681E+04  1.55255E+04  2.84500E+04 -4.87139E+03  2.69771E+04
 -2.23910E+04  1.16292E+04 -1.87832E+04 -5.30986E+03  3.41181E+03 -7.68155E+03  2.17931E+04  1.11713E+04
  7.72836E+03  3.32108E+04 -3.09286E+04  3.39241E+04 -6.14087E+04  1.59489E+03 -5.51167E+04 -4.16109E+04
 -1.30087E+04 -6.09574E+04  3.75880E+04 -4.27497E+04  5.57536E+04 -2.26461E+03  3.22845E+04  3.07430E+04
 -7.03134E+03  3.46831E+04 -2.83833E+04  1.36996E+04 -2.72939E+04 -5.34412E+03 -1.48716E+04 -1.05073E+04
 -7.27692E+03 -1.28872E+04 -3.59960E+02 -1.61485E+04  8.40391E+03 -2.35120E+04  1.55902E+04 -1.36389E+04
  1.21044E+04  5.13873E+03 -7.65885E+03  1.30566E+04 -1.99006E+04 -2.90195E+03 -7.98730E+03 -3.06539E+04
  2.04358E+04 -4.15367E+04  4.57277E+04 -1.84492E+04  4.19777E+04  1.81065E+04  1.47983E+04  4.21232E+04
 -1.40435E+04  3.21567E+04 -2.36688E+04  1.54444E+03 -7.99472E+03 -2.67947E+04  2.11002E+04 -3.16345E+04
  3.87378E+04 -7.85969E+03  3.27318E+04  2.32732E+04  1.64165E+04  4.31583E+04 -8.32608E+03  4.60957E+04
 -2.97462E+04  3.02391E+04 -3.90226E+04  8.93628E+03 -3.93243E+04 -1.66620E+04 -2.18759E+04 -3.63874E+04
  8.02247E+03 -3.58872E+04  2.99157E+04 -1.39060E+04  2.77378E+04  1.20240E+04  3.63480E+03  1.78718E+04
 -1.44501E+04  6.97383E+03 -9.62043E+03 -7.49263E+03  6.27027E+03 -1.01998E+04  1.80554E+04  6.21262E+03
  1.21727E+04  2.12715E+04 -5.73542E+03  2.44179E+04 -2.15805E+04  8.99985E+03 -2.69841E+04 -6.19535E+03
 -1.81416E+04 -1.67427E+04 -7.57162E+03 -1.84205E+04  4.26619E+03 -1.56174E+04  1.40956E+04 -1.59701E+04
  2.22576E+04 -1.19875E+04  3.01442E+04  1.29275E+03  2.09548E+04  1.71345E+04  3.56221E+03  3.32242E+04
 -1.68108E+04  2.82235E+04 -2.70631E+04  1.05176E+04 -2.01849E+04 -9.71414E+03 -4.76268E+03 -1.47359E+04
  1.41082E+03 -4.78333E+03 -3.87368E+03  5.43984E+03 -1.48293E+04  4.89126E+03 -1.44673E+04 -5.07039E+03
 -9.53952E+03 -1.63413E+04  5.31658E+03 -2.00294E+04  1.20194E+04 -1.38333E+04  1.61267E+04 -2.37138E+03
  1.02478E+04  1.13439E+04 -1.63787E+02  1.58694E+04 -1.07781E+04  9.74263E+03 -1.56591E+04 -2.23041E+03
 -1.14480E+04 -1.50004E+04 -1.11044E+03 -2.06743E+04  8.19404E+03 -1.65818E+04  1.76553E+04 -7.29490E+03
  1.49389E+04  1.52946E+03  1.13868E+04  3.40631E+03  6.19778E+03  1.19136E+03  7.37809E+03 -9.79988E+02
  1.37639E+04  1.82765E+03  1.67639E+04  1.33009E+04  1.04158E+04  2.68074E+04 -3.57280E+03  2.93173E+04
 -1.75875E+04  2.28847E+04 -2.69743E+04  1.11670E+04 -2.72391E+04 -2.17004E+03 -2.31407E+04 -1.60728E+04
 -1.08645E+04 -2.29179E+04  7.58548E+03 -2.02886E+04  1.79881E+04 -1.21839E+04  1.64024E+04  3.84329E+03
  6.73761E+03  1.30062E+04 -7.86942E+03  1.11184E+04 -1.44558E+04  3.45108E+03 -1.11821E+04 -8.72975E+03
 -1.53748E+03 -1.32027E+04  5.35858E+03 -9.74049E+03  9.36072E+03 -1.90998E+03  8.60133E+01  5.02341E+03
 -5.42429E+03  2.74267E+03 -4.34194E+03 -4.06279E+03 -8.39226E+02 -1.21344E+04  7.24956E+03 -9.78130E+03
  1.38155E+04 -6.33098E+03  1.36463E+04  2.59618E+03  1.29970E+04  1.07258E+04  4.53600E+03  1.46507E+04
 -1.83686E+03  1.80128E+04 -9.64758E+03  1.20415E+04 -1.22726E+04  2.62310E+03 -9.47449E+03 -2.38335E+03
 -3.87349E+03 -4.08521E+03  1.52267E+02  1.65296E+03 -4.82350E+02  2.79006E+03 -3.96834E+03  4.63827E+03
 -8.19204E+03 -6.69580E+02 -9.03153E+03 -8.70921E+03 -3.59173E+03 -1.16009E+04  3.70684E+03 -9.02567E+03
  7.90398E+03 -4.67001E+03  5.78891E+03  3.65248E+03  1.15806E+03  3.02903E+03 -4.16395E+03 -4.74452E+02
 -4.67599E+03 -5.29972E+03  1.83199E+02 -7.83739E+03  4.84451E+03 -8.79944E+03  1.11191E+04 -3.63331E+03
  1.28603E+04  8.25714E+02  1.01527E+04  7.29944E+03  2.16439E+03  1.03527E+04 -5.55806E+03  7.87320E+03
 -8.09846E+03  3.15455E+03 -4.18745E+03 -2.01588E+03  1.74289E+03 -1.59161E+03  4.92087E+03 -9.25246E+02
  4.67967E+03  3.80182E+03  1.27470E+03  6.84796E+03 -5.46057E+03  6.13152E+03 -8.14488E+03  2.56537E+03
 -5.66083E+03 -3.12601E+03 -9.00752E+00 -8.34220E+03  3.97686E+03 -3.15864E+03  4.22763E+03  1.11078E+03
 -5.48305E+00  4.14694E+03 -5.49701E+03  5.99429E+03 -5.86102E+03  4.00341E+03 -5.28484E+03 -1.24090E+03
 -2.87415E+03 -6.37378E+03  6.27044E+02 -8.58793E+03  6.57365E+03 -4.84795E+03  7.68347E+03  1.97475E+03
  5.96546E+03  5.60663E+03 -1.24468E+03  8.03989E+03 -5.17741E+03  3.74426E+03 -4.84590E+03 -1.09153E+03
 -6.84624E+03 -6.01827E+03 -2.02612E+03 -4.61034E+03  2.74862E+03 -4.62970E+03  3.09757E+03 -2.74259E+03
  3.54145E+03 -8.06490E+00 -5.04216E+02  7.81826E+02  7.19057E+02 -4.72248E+02  5.39150E+02 -2.32765E+03
  3.76004E+03 -3.64672E+02  6.34391E+03  4.68110E+02  6.14467E+03  3.99833E+03  5.26014E+03  7.54183E+03
 -6.97173E+02  9.68643E+03 -9.53794E+03  7.59571E+03 -1.17132E+04  2.80775E+03 -9.68510E+03 -2.58553E+03
 -5.32475E+03 -6.91592E+03 -6.03226E+02 -6.87568E+03  1.76576E+03 -2.79081E+03  8.52218E+02 -2.86455E+03
  1.06807E+03 -1.20306E+03  2.94984E+03 -2.65737E+03  3.25353E+03 -1.77536E+03  4.17979E+03  9.18739E+01
  4.72367E+03  2.38774E+03  1.24608E+03  4.58350E+03 -2.22315E+03  4.36069E+03 -3.92132E+03  2.25694E+03
 -6.43514E+03 -2.01064E+02 -2.62919E+03 -3.65284E+03 -4.38233E+02 -6.03896E+03  3.13819E+03 -6.57658E+03
  6.39346E+03 -4.48710E+03  7.67704E+03 -1.26160E+02  4.89957E+03  4.82602E+03  1.86485E+03  7.18767E+03
 -3.29524E+03  5.98909E+03 -3.82558E+03  2.17571E+03 -1.70517E+03 -1.38090E+03 -2.12235E+03 -4.54265E+02
 -5.12806E+02 -5.63956E+02 -2.29337E+03  2.32373E+03 -3.38896E+03  3.32891E+02 -5.10597E+03 -8.55724E+02
 -1.28144E+03 -4.55728E+03 -2.42374E+01 -5.31545E+03  3.42067E+03 -5.81217E+03  5.16001E+03 -1.33670E+03
  4.75561E+03  2.94679E+03  2.46890E+03  3.42379E+03 -1.41066E+03  6.09477E+03 -2.67389E+03  3.24157E+03
 -4.96946E+03  7.42668E+02 -4.59121E+03 -3.23307E+03  1.17228E+02 -3.62978E+03  2.30770E+03 -3.66417E+03
  3.65688E+03 -1.88667E+03  1.59819E+03  7.76083E+02  1.04896E+03  2.50102E+03  3.97551E+02  2.88524E+02
  7.24018E+02  7.60650E+02  2.11011E+03  1.09461E+03  1.61090E+03  1.90805E+03  9.16628E+02  3.33547E+03
 -1.22464E+03  3.56746E+03 -3.11069E+03  5.02501E+03 -3.34237E+03  7.30333E+02 -5.09654E+03 -1.46175E+02
 -2.45826E+03 -5.10100E+03 -6.76327E+02 -5.13318E+03  3.35552E+03 -2.88178E+03  3.58472E+03 -1.48007E+03
  3.02331E+03  6.97436E+02  1.61949E+03  2.93204E+03 -8.27251E+02  3.16629E+03 -1.82791E+03  2.94136E+02
 -1.14792E+03 -2.31445E+03  2.84974E+02 -1.59153E+03  2.72536E+03 -1.66443E+03  1.29796E+03  4.26034E+02
  6.92627E+02  7.63008E+02  1.39215E+03 -6.07788E+02  7.95240E+01  9.73478E+02  1.47594E+03  3.42728E+02
  5.72121E+00 -9.14345E+02  2.00557E+03  4.32498E+02 -5.68667E+02  2.52334E+03 -3.54503E+02  3.70078E+03
 -1.97912E+03  1.98201E+03 -2.34339E+03  7.76825E+02 -2.98299E+03 -9.78673E+02 -2.96529E+02 -1.86698E+03
 -3.17671E+02 -1.58818E+03  2.17340E+03 -1.40676E+03  1.71581E+03  1.84233E+03 -9.04533E+02  1.77048E+03
 -1.85986E+03  6.52672E+02 -1.90318E+03 -1.51024E+03 -9.91951E+02 -2.95417E+03  7.07276E+02 -2.59138E+03
  4.15758E+02  2.00038E+02  1.25722E+03  1.02233E+02  9.55548E+02  1.51099E+02  1.36035E+03  1.50151E+03
 -4.84348E+02  1.37133E+03 -3.33690E+02 -9.52857E+02 -4.93921E+02 -2.16087E+03  1.45335E+03 -2.75386E+03
  1.96009E+03  1.50936E+02  3.94165E+03  7.06451E+02  5.96346E+02  3.09088E+03 -5.06449E+02  2.92648E+03
 -1.79650E+03 -4.88424E+02 -2.17178E+03 -9.17338E+02 -1.28128E+03 -1.98699E+03  1.84692E+03 -6.66619E+02
  1.83493E+03  1.75782E+02 -2.12382E+02  4.99471E+02 -9.55075E+02  2.35422E+03  5.21610E+02  1.21229E+03
  6.69109E+02  8.08147E+02  3.11079E+02 -5.18385E+01 -2.99812E+02  1.02788E+03 -2.61097E+02  9.29460E+02
 -4.32768E+02  1.00491E+03 -2.03809E+03  5.64484E+02 -1.21035E+03  1.80175E+02 -2.57547E+03 -9.89182E+02
 -3.55290E+03 -2.30421E+03  6.92320E+02 -3.52622E+03  9.76625E+02 -3.19628E+03  3.89063E+03 -5.45348E+02
  4.30293E+03 -6.79235E+01  1.94065E+03  2.52527E+03  8.78689E+02  2.29137E+03 -1.31405E+03  2.05202E+03
 -3.08475E+02  1.16075E+03 -7.91159E+02 -8.98231E+02 -7.39523E+02  1.13718E+03 -5.57504E+02 -3.48090E+02
 -6.21832E+02 -1.85187E+03 -1.70741E+02  4.61938E+02  2.69533E+02 -5.99555E+02 -9.13634E+02 -1.40495E+03
  2.44656E+03 -1.25353E+03  1.07998E+03 -4.09980E+02  1.87205E+03  5.80664E+02 -8.22623E+02  1.80538E+03
 -1.66095E+03  2.51672E+03 -2.35341E+03  1.94528E+03 -2.46256E+03 -8.75920E+02 -1.48083E+03 -1.32898E+03
 -1.72804E+03 -1.28343E+03  7.56971E+02 -4.01582E+02  1.01169E+03  1.45425E+02  5.25558E+02  3.00436E+02
  2.20291E+03  1.25606E+03  9.32351E+02  1.44660E+03 -6.30506E+02 -4.04121E+02 -2.37799E+02 -7.95285E+02
 -5.48279E+02 -1.41004E+02  4.29245E+01  3.59888E+02 -9.50137E+02  2.05308E+02  4.84353E+02  1.56689E+03
 -2.13323E+03  8.46684E+02 -5.39124E+02  6.24529E+02 -2.70755E+02 -1.85621E+02 -1.20446E+02 -2.46318E+03
  6.94476E+02 -2.53521E+03  1.41851E+03  4.98510E+02  1.27659E+03 -6.61354E+02  2.97317E+02  1.59668E+03
  4.15875E+02  9.94288E+02 -4.90621E+02  1.02291E+03 -1.78122E+03  2.60009E+02 -1.07476E+03 -1.19402E+03
 -3.93055E+02 -4.88448E+01 -7.24320E+02 -1.91453E+02 -1.04391E+03  4.35645E+02 -1.16291E+03 -1.55830E+03
 -9.91980E+02 -2.48984E+02 -3.73294E+02 -1.44117E+03  3.29678E+02 -1.62837E+03  4.13679E+02 -3.73691E+02
  1.18319E+03  1.01648E+03  2.65044E+02  4.82731E+02  6.24214E+02  1.97001E+03  3.85035E+02  1.33357E+02
