 $NMID ID='MM_0lb_SNR200_19hz_g45_62.RAW', FMTDAT='(8E13.5)'
 TRAMP=1., VOLUME=1. $END
  3.09837E+05  2.16914E+02  3.36606E+05  2.50142E+05  8.41764E+04  3.37188E+05 -1.33064E+05  2.50356E+05
 -1.90288E+05  8.22116E+04 -1.11526E+05 -3.29464E+04  8.84008E+00 -4.99861E+04  5.38115E+04  1.04229E+03
  3.53484E+04  5.26295E+04 -1.64230E+04  7.47805E+04 -5.96772E+04  6.40687E+04 -8.27807E+04  3.19372E+04
 -7.89341E+04 -1.12291E+04 -5.53120E+04 -4.91460E+04 -1.47810E+04 -6.85023E+04  2.67814E+04 -4.52064E+04
  3.94618E+04  4.65788E+03  1.56584E+04  4.69116E+04 -3.39523E+04  4.54570E+04 -6.59929E+04 -3.59076E+02
 -5.10028E+04 -5.59463E+04 -5.84533E+03 -7.50522E+04  3.32877E+04 -5.33189E+04  4.56617E+04 -1.57636E+04
  4.11100E+04  1.02952E+04  3.09974E+04  2.43414E+04  1.73161E+04  2.86485E+04 -4.87961E+03  2.71193E+04
 -2.23985E+04  1.18496E+04 -1.82019E+04 -3.86090E+03  5.83026E+03 -6.76053E+03  2.15843E+04  1.13910E+04
  7.13911E+03  3.23070E+04 -2.96968E+04  3.39646E+04 -6.12333E+04  3.34308E+03 -5.44471E+04 -4.06013E+04
 -1.26512E+04 -6.07051E+04  3.86854E+04 -4.36156E+04  5.63631E+04 -1.31422E+03  3.17675E+04  3.17170E+04
 -6.86231E+03  3.18670E+04 -2.90411E+04  1.26486E+04 -2.66444E+04 -5.77019E+03 -1.36782E+04 -9.92261E+03
 -6.79951E+03 -1.17360E+04 -2.37977E+02 -1.63400E+04  5.68035E+03 -2.18927E+04  1.54746E+04 -1.49523E+04
  1.30657E+04  2.99709E+03 -5.74727E+03  1.33749E+04 -1.94414E+04 -1.97389E+03 -8.46487E+03 -3.05088E+04
  2.09422E+04 -3.82584E+04  4.48902E+04 -1.80999E+04  4.11396E+04  1.74837E+04  1.39815E+04  4.10601E+04
 -1.52248E+04  3.07366E+04 -2.35183E+04  1.00402E+03 -8.15486E+03 -2.71653E+04  1.98970E+04 -3.14464E+04
  3.75399E+04 -7.41621E+03  3.04717E+04  2.28327E+04  1.51201E+04  4.19878E+04 -7.59788E+03  4.46604E+04
 -2.88990E+04  2.93957E+04 -3.65950E+04  8.07665E+03 -3.79987E+04 -1.47795E+04 -2.08758E+04 -3.42795E+04
  6.66180E+03 -3.35830E+04  2.89634E+04 -1.27754E+04  2.70579E+04  1.03029E+04  3.05288E+03  1.80334E+04
 -1.25831E+04  6.44917E+03 -9.33945E+03 -7.55758E+03  5.88306E+03 -9.63842E+03  1.67635E+04  5.84545E+03
  1.18271E+04  2.09760E+04 -6.34888E+03  2.25362E+04 -2.25384E+04  9.23667E+03 -2.47362E+04 -6.02854E+03
 -1.54423E+04 -1.62684E+04 -5.56954E+03 -1.64702E+04  3.83625E+03 -1.46736E+04  1.12567E+04 -1.32179E+04
  2.11995E+04 -1.14909E+04  2.67017E+04  8.80332E+02  1.95322E+04  1.65389E+04  4.50630E+03  3.08565E+04
 -1.60409E+04  2.71974E+04 -2.51309E+04  9.17367E+03 -1.92094E+04 -1.01998E+04 -4.95921E+03 -1.42523E+04
  2.72448E+03 -4.18629E+03 -2.63822E+03  5.02515E+03 -1.27721E+04  4.89823E+03 -1.29402E+04 -5.02550E+03
 -9.27500E+03 -1.55448E+04  4.07120E+03 -1.99399E+04  1.14539E+04 -1.43205E+04  1.34062E+04 -2.30000E+03
  8.54217E+03  8.64185E+03 -1.40817E+03  1.54896E+04 -8.77645E+03  8.60933E+03 -1.47299E+04 -4.04431E+03
 -1.05005E+04 -1.37443E+04 -1.91123E+03 -1.81255E+04  8.62704E+03 -1.46148E+04  1.55573E+04 -6.83058E+03
  1.48145E+04  8.47176E+01  1.16115E+04  4.14695E+03  5.27412E+03 -1.30491E+03  8.12073E+03 -8.23889E+02
  1.35740E+04  2.46381E+03  1.41154E+04  1.25764E+04  9.16581E+03  2.35643E+04 -3.98692E+03  2.55522E+04
 -1.55366E+04  1.98888E+04 -2.26986E+04  9.03646E+03 -2.34430E+04 -2.13686E+03 -2.06582E+04 -1.32140E+04
 -9.89123E+03 -1.92376E+04  7.51030E+03 -1.84818E+04  1.65721E+04 -9.42035E+03  1.60450E+04  3.14077E+03
  6.49455E+03  1.12382E+04 -6.77693E+03  1.08410E+04 -1.37766E+04  2.86858E+03 -1.00975E+04 -8.24751E+03
 -4.56039E+02 -1.23556E+04  4.98617E+03 -8.83068E+03  7.15784E+03 -1.52613E+03  1.09953E+03  4.20974E+03
 -5.89167E+03  5.44412E+02 -3.73628E+03 -3.85693E+03  6.04495E+02 -1.03502E+04  7.42648E+03 -9.78006E+03
  1.20885E+04 -5.01783E+03  1.09268E+04  2.74587E+03  9.12572E+03  9.14014E+03  4.27053E+03  1.29930E+04
 -2.44334E+03  1.48213E+04 -8.98467E+03  9.09881E+03 -1.05620E+04  3.39875E+03 -8.38337E+03 -1.07225E+03
 -4.85761E+03 -2.38365E+03 -1.38513E+03  2.31074E+03 -1.97943E+03  1.57956E+03 -3.13900E+03  3.86413E+03
 -7.15158E+03 -7.03122E+02 -8.59964E+03 -6.64464E+03 -2.51382E+03 -1.08248E+04  3.77793E+03 -8.45207E+03
  7.32317E+03 -3.52455E+03  4.75288E+03  2.81928E+03  3.34942E+02  1.91404E+03 -3.09755E+03  1.19784E+02
 -3.22612E+03 -3.93586E+03 -7.14577E+02 -7.34749E+03  3.60045E+03 -7.77862E+03  8.58688E+03 -2.96400E+03
  1.06366E+04  1.86250E+02  8.38902E+03  5.46984E+03  9.59805E+02  7.44305E+03 -5.10265E+03  7.98049E+03
 -7.30256E+03  1.80535E+03 -4.88328E+03 -4.63990E+02  1.13154E+03 -1.15923E+03  3.60949E+03 -7.02346E+02
  3.98193E+03  4.37960E+03  1.44813E+03  5.10340E+03 -4.42641E+03  5.24458E+03 -7.06071E+03  8.28920E+02
 -5.36902E+03 -3.79063E+03  1.07573E+03 -6.65419E+03  3.90600E+03 -2.26191E+03  3.13207E+03  1.19072E+03
  2.22920E+02  4.14240E+03 -4.52277E+03  4.97061E+03 -5.30278E+03  3.94769E+03 -4.00476E+03 -2.35917E+03
 -2.85743E+03 -6.06925E+03  1.08259E+03 -6.36887E+03  5.50811E+03 -3.63848E+03  5.76127E+03  1.97305E+03
  4.73549E+03  5.09425E+03  1.78371E+02  6.79555E+03 -4.29288E+03  4.85071E+03 -4.88255E+03 -1.18847E+03
 -4.44787E+03 -4.54930E+03 -1.98736E+03 -4.75284E+03  2.49599E+03 -6.52090E+03  2.93900E+03 -2.34064E+03
  2.79063E+03  5.52955E+02  2.00025E+02  1.46753E+03 -7.99826E+02 -5.33534E+02 -8.74887E+02 -1.48960E+03
  3.31713E+03 -1.85572E+02  5.31588E+03  1.12866E+03  5.56330E+03  2.99451E+03  5.00030E+03  5.99086E+03
 -1.97337E+03  8.14683E+03 -7.00283E+03  5.24856E+03 -1.00358E+04 -8.55955E+02 -8.54183E+03 -2.42822E+03
 -3.39034E+03 -6.81340E+03 -5.88726E+02 -3.20967E+03  2.73206E+03 -2.53684E+03  5.91974E+02 -2.75091E+03
  1.53216E+03 -1.04273E+03  1.71362E+03 -2.13939E+03  3.75450E+03 -9.29461E+02  3.16232E+03  4.47140E+02
  4.28069E+03  1.56680E+03  8.48950E+02  4.17830E+03 -1.55243E+03  3.21884E+03 -4.58199E+03  2.44604E+03
 -4.61492E+03 -6.05059E+02 -1.40280E+03 -2.75534E+03 -1.12073E+02 -4.28147E+03  2.94496E+03 -4.58327E+03
  5.74139E+03 -3.80715E+03  6.77527E+03 -6.76738E+01  5.15055E+03  4.20321E+03  3.68184E+02  5.92676E+03
 -1.64386E+03  6.04461E+03 -2.17618E+03  1.77168E+03 -2.08494E+03 -9.90920E+02 -8.45859E+02 -8.30284E+02
 -9.17074E+02  2.83830E+02 -4.00310E+02  1.70146E+03 -2.46320E+03 -6.69393E+02 -4.22912E+03 -2.23183E+02
 -1.47001E+03 -4.54815E+03  1.76076E+03 -4.03424E+03  2.52548E+03 -4.51542E+03  3.45291E+03 -9.90375E+02
  3.52191E+03  1.26631E+03  2.48089E+03  3.08371E+03 -8.30809E+02  4.86694E+03 -2.42622E+03  2.90730E+03
 -3.58258E+03  1.12452E+02 -3.03879E+03 -1.78205E+03 -6.78173E+02 -1.69093E+03  1.88453E+03 -1.68443E+03
  2.28521E+03 -1.18439E+03  1.74045E+03 -1.59431E+02  1.03469E+03  1.81814E+03  4.32080E+01  1.12373E+03
  1.42803E+03  6.81960E+02  6.74712E+02  2.45379E+01  1.40125E+03  1.66715E+03  1.24678E+03  1.90973E+03
 -5.13608E+02  3.02725E+03 -2.65386E+03  4.42420E+03 -2.70086E+03  2.06193E+03 -4.65638E+03  7.30177E+02
 -1.96385E+03 -3.66807E+03  9.05278E+02 -4.26912E+03  1.97842E+03 -2.82557E+03  2.58401E+03 -1.01338E+03
  2.70164E+03  1.90602E+03  9.22881E+02  2.14928E+03 -1.25817E+03  1.28484E+03 -2.36306E+02 -5.94762E+02
 -1.87983E+02 -8.08654E+02  1.59379E+03 -1.28375E+03  1.38521E+03 -6.60603E+02  9.94237E+02  5.01221E+02
  1.07252E+03  4.28158E+02  9.56728E+02 -3.42859E+02 -9.56643E+02  7.10624E+02  1.70121E+03 -3.13630E+02
 -7.52862E+02 -2.55872E+02  3.23947E+03  6.45786E+02  1.35336E+02  1.02600E+03 -3.43477E+02  2.86365E+03
 -1.95108E+03  1.25493E+02 -2.47086E+03 -5.01959E+02 -1.66982E+03 -1.18194E+03 -3.20109E+02 -9.76883E+02
  8.39506E+01 -1.50954E+03  3.03535E+02 -1.37818E+03  3.63658E+02  1.21196E+03 -9.11099E+02  5.92394E+02
 -2.10965E+03  1.57012E+03 -1.14241E+03 -2.09381E+03 -5.41464E+02 -1.82719E+03 -9.91994E+02 -1.63557E+03
  9.07908E+02 -5.58177E+02  1.78399E+02 -3.19757E+02  9.55976E+02  1.77311E+02  2.69421E+02  6.70900E+02
 -9.74637E+02  9.20566E+01  4.22878E+02  4.07175E+02  1.50769E+02 -7.22150E+02  1.94674E+03 -1.32703E+03
  1.53505E+03 -5.62376E+02  2.78903E+03  1.41355E+03  1.71882E+03  1.23992E+03 -1.48832E+03  1.23008E+03
 -7.03945E+02  8.56771E+02 -1.62387E+03  2.43841E+02 -2.39727E+02 -2.41647E+03  1.15081E+03 -5.34149E+02
  9.11936E+02 -4.06148E+01 -6.14178E+02  2.98636E+02  3.12551E+02  1.89561E+03 -6.40987E+02  1.71435E+03
 -4.34309E+02  8.80192E+02  9.71347E+01 -3.40871E+01  2.08315E+02 -5.30049E+02  1.43631E+02  1.50205E+03
 -4.77962E+02  1.44509E+03 -1.41323E+03  8.67541E+01 -5.49143E+02  4.72830E+02 -2.51472E+03 -1.07746E+03
 -6.73230E+02 -2.60090E+03 -7.71094E+01 -3.02188E+03  7.25349E+02 -1.71557E+03  3.35159E+03 -1.28914E+03
  1.13669E+03 -6.34102E+02  1.30473E+03  1.90242E+03  3.81969E+02  2.06112E+03  4.18399E+02  1.58019E+03
 -3.51526E+02  6.75105E+02 -8.11594E+02 -5.08401E+02 -3.42942E+02  4.20914E+02 -1.33364E+03  1.56217E+02
 -1.09410E+03  3.88557E+02 -1.10892E+03 -8.63502E+02  2.19643E+02 -8.75007E+02 -5.94193E+02 -7.99452E+02
  1.27564E+03 -3.77865E+02 -3.02853E+02  6.21553E+02  2.03829E+03  1.24235E+03  3.12361E+01  1.88516E+03
 -8.38287E+02  2.35827E+03 -6.78883E+02  1.09010E+03 -2.30099E+03  3.25345E+02 -1.72628E+03 -1.04143E+03
 -3.36511E+02 -1.17398E+03 -2.54326E+02 -1.00207E+03  3.94380E+02 -9.41767E+02  5.54259E+02  6.19540E+02
  5.64865E+02 -1.52221E+02  2.27440E+02  1.63741E+03 -6.63982E+01  5.33084E+02  3.07105E+02 -5.23592E+02
  2.43866E+02 -2.40210E+02 -5.17506E+02  1.14100E+03  2.86050E+02  1.16728E+03 -7.42974E+02  6.07795E+02
 -9.26700E+02  7.06452E+02 -6.86653E+02  2.24065E+02 -1.36187E+03 -1.91735E+02  4.49844E+01 -1.32810E+03
 -1.60598E+02 -1.26629E+03  6.64606E+02 -5.45319E+02  7.85409E+02 -1.39770E+03  4.87514E+02  7.69593E+02
  7.39183E+02  1.22225E+03 -1.11532E+02 -3.10440E+02 -9.57683E+02 -3.78913E+02  7.18897E+02 -2.15010E+02
 -9.14667E+01 -4.03612E+02 -1.09812E+03 -2.97133E+02 -4.37551E+02 -3.18730E+02 -1.18112E+03 -1.08788E+01
 -2.57912E+03  5.85166E+02 -3.35277E+02 -1.40514E+03  5.55498E+02 -2.25939E+03  1.72018E+03  2.59624E+02
  9.23478E+02 -8.13443E+02 -3.45385E+02  1.66203E+02 -4.09715E+01  4.18379E+02 -3.30847E+02  9.06645E+02
