 $NMID ID='MM_0lb_SNR200_15hz_g45_25.RAW', FMTDAT='(8E13.5)'
 TRAMP=1., VOLUME=1. $END
  3.10328E+05  2.39762E+02  3.37311E+05  2.49596E+05  8.45358E+04  3.38542E+05 -1.31525E+05  2.50399E+05
 -1.89827E+05  8.24391E+04 -1.12479E+05 -3.37266E+04  1.28211E+03 -5.12279E+04  5.39591E+04 -4.03996E+02
  3.55747E+04  5.34538E+04 -1.79016E+04  7.52767E+04 -6.09815E+04  6.46172E+04 -8.29448E+04  3.17436E+04
 -8.01713E+04 -1.03670E+04 -5.73237E+04 -5.06328E+04 -1.40117E+04 -6.85646E+04  2.70791E+04 -4.58788E+04
  3.88629E+04  3.75711E+03  1.58199E+04  4.78683E+04 -3.47333E+04  4.69638E+04 -6.61397E+04 -8.06152E+02
 -5.25392E+04 -5.53584E+04 -5.95274E+03 -7.60581E+04  3.39841E+04 -5.42530E+04  4.63314E+04 -1.77935E+04
  4.29555E+04  1.06625E+04  3.15567E+04  2.62750E+04  1.59021E+04  2.84373E+04 -5.11634E+03  2.71505E+04
 -2.19372E+04  1.31090E+04 -1.67824E+04 -5.68915E+03  5.96070E+03 -8.14814E+03  2.18018E+04  1.24437E+04
  7.60717E+03  3.45657E+04 -3.22281E+04  3.41480E+04 -6.23642E+04  2.17031E+03 -5.71358E+04 -4.22258E+04
 -1.24637E+04 -6.28596E+04  4.02089E+04 -4.43323E+04  5.65766E+04 -1.18391E+03  3.33821E+04  3.22865E+04
 -5.32831E+03  3.49255E+04 -2.86476E+04  1.49823E+04 -2.92831E+04 -3.82149E+03 -1.63309E+04 -9.55790E+03
 -8.45420E+03 -1.27889E+04 -3.79337E+02 -1.72802E+04  6.02929E+03 -2.31000E+04  1.55961E+04 -1.37198E+04
  1.12724E+04  4.69673E+03 -7.63486E+03  1.30040E+04 -2.08561E+04 -3.63216E+03 -8.30128E+03 -3.26686E+04
  2.23145E+04 -4.12912E+04  4.71673E+04 -2.01371E+04  4.44368E+04  2.04173E+04  1.62755E+04  4.28259E+04
 -1.54986E+04  3.29317E+04 -2.48580E+04  2.24736E+03 -8.36172E+03 -2.68253E+04  2.02626E+04 -3.22993E+04
  3.93042E+04 -8.58710E+03  3.37069E+04  2.34875E+04  1.64865E+04  4.53908E+04 -9.77859E+03  4.89457E+04
 -3.06684E+04  3.29293E+04 -4.04801E+04  8.79048E+03 -4.20576E+04 -1.56994E+04 -2.35178E+04 -3.68752E+04
  6.28984E+03 -3.75172E+04  3.12137E+04 -1.41122E+04  2.92350E+04  1.11027E+04  4.22300E+03  1.89450E+04
 -1.32915E+04  9.04605E+03 -1.10073E+04 -7.77778E+03  5.58914E+03 -9.89112E+03  1.87160E+04  6.02120E+03
  1.24333E+04  2.28112E+04 -6.65449E+03  2.44311E+04 -2.27255E+04  9.82523E+03 -2.72212E+04 -5.81289E+03
 -1.95742E+04 -1.63955E+04 -7.41205E+03 -1.93881E+04  4.33230E+03 -1.85426E+04  1.50157E+04 -1.76055E+04
  2.42426E+04 -1.27512E+04  3.14536E+04  1.94784E+03  2.28644E+04  1.85211E+04  4.30866E+03  3.55315E+04
 -1.72414E+04  2.96849E+04 -2.66120E+04  1.02404E+04 -2.08033E+04 -1.00732E+04 -4.11241E+03 -1.28505E+04
  1.98404E+03 -3.04418E+03 -4.47827E+03  6.39925E+03 -1.47894E+04  5.67038E+03 -1.55514E+04 -7.36134E+03
 -9.67204E+03 -1.92335E+04  4.00729E+03 -2.17878E+04  1.45234E+04 -1.59876E+04  1.61709E+04 -1.75565E+03
  1.08577E+04  1.22732E+04 -1.29537E+03  1.82970E+04 -1.17629E+04  1.06441E+04 -1.78475E+04 -4.07911E+03
 -1.37930E+04 -1.57463E+04 -2.54589E+03 -2.02935E+04  1.02171E+04 -1.70034E+04  1.78833E+04 -9.34778E+03
  1.71291E+04  4.76013E+02  1.12815E+04  3.73493E+03  6.35090E+03  1.14048E+03  9.57863E+03 -2.39398E+03
  1.58289E+04  3.47611E+03  1.80558E+04  1.54698E+04  1.17185E+04  2.85258E+04 -2.23416E+03  3.17373E+04
 -1.67944E+04  2.43590E+04 -2.98231E+04  1.23841E+04 -3.04486E+04 -3.19804E+03 -2.61032E+04 -1.75790E+04
 -1.26594E+04 -2.60360E+04  8.00903E+03 -2.17792E+04  1.97236E+04 -1.23447E+04  1.76488E+04  4.93352E+03
  7.50257E+03  1.45178E+04 -8.53851E+03  1.20643E+04 -1.55299E+04  2.40916E+03 -1.29556E+04 -8.64445E+03
 -3.10622E+02 -1.40043E+04  8.07843E+03 -1.00427E+04  8.83287E+03 -1.48322E+03  1.39163E+03  5.46747E+03
 -5.43529E+03  2.77301E+03 -4.84166E+03 -4.44258E+03 -1.08142E+02 -1.22770E+04  9.79422E+03 -1.24671E+04
  1.42770E+04 -6.54286E+03  1.68097E+04  2.98488E+03  1.38879E+04  1.18383E+04  6.25989E+03  1.78353E+04
 -2.65419E+03  1.99551E+04 -1.23668E+04  1.34862E+04 -1.45154E+04  4.46959E+03 -9.21143E+03 -3.21512E+03
 -6.10736E+03 -4.09935E+03 -7.69602E+02  1.21100E+03 -2.17519E+03  2.50612E+03 -4.86633E+03  4.34575E+03
 -9.86144E+03 -1.27791E+03 -1.04135E+04 -8.12006E+03 -5.13971E+03 -1.33835E+04  3.87563E+03 -1.04149E+04
  8.63425E+03 -4.86913E+03  8.06699E+03  2.19321E+03  1.16139E+03  3.18996E+03 -5.17155E+03  4.18891E+02
 -3.99342E+03 -6.24933E+03 -7.25674E+01 -9.81575E+03  5.58788E+03 -9.69347E+03  1.27404E+04 -4.62942E+03
  1.54334E+04  8.57556E+02  1.10221E+04  8.94570E+03  1.95728E+03  1.10569E+04 -6.34372E+03  1.03078E+04
 -7.74983E+03  2.70924E+03 -5.11583E+03 -1.99067E+03  1.58337E+03 -2.51433E+03  5.06666E+03 -1.19561E+03
  5.95373E+03  4.27360E+03  1.68908E+03  8.20708E+03 -5.72947E+03  6.92140E+03 -1.02797E+04  2.02760E+03
 -7.13104E+03 -5.17004E+03 -9.26166E+02 -8.69529E+03  4.59392E+03 -4.19905E+03  5.36912E+03  1.77994E+03
  1.97343E+03  3.45792E+03 -4.80264E+03  6.87421E+03 -7.32931E+03  3.93288E+03 -7.36194E+03 -2.61306E+03
 -4.14564E+03 -8.67813E+03  2.06871E+03 -1.04793E+04  8.03997E+03 -6.44955E+03  8.95953E+03  1.50365E+03
  5.43314E+03  7.42660E+03  6.78872E+01  9.09415E+03 -6.73420E+03  5.39899E+03 -6.82248E+03 -8.79289E+02
 -7.51720E+03 -7.30314E+03 -1.73752E+03 -7.81753E+03  3.63480E+03 -4.86753E+03  3.75041E+03 -2.43551E+03
  2.90030E+03  7.16915E+02 -9.34240E+02  1.83609E+03  4.43487E+02 -8.71008E+02  1.19069E+03 -2.77652E+03
  4.96727E+03 -9.09796E+02  9.81571E+03  3.23434E+01  7.36276E+03  5.35283E+03  6.44720E+03  9.95454E+03
 -1.61619E+03  1.26438E+04 -1.10724E+04  9.70782E+03 -1.38569E+04  1.04561E+03 -9.33013E+03 -3.55908E+03
 -4.42332E+03 -9.19978E+03  4.86709E+02 -7.78641E+03  3.16795E+03 -2.84364E+03  2.08244E+03 -2.92648E+03
  2.19855E+03 -8.96356E+02  4.23541E+03 -3.62529E+03  4.54403E+03 -1.38648E+03  4.90756E+03 -1.11175E+02
  5.70480E+03  1.26764E+03  2.39294E+03  4.81421E+03 -1.54847E+03  3.74383E+03 -5.15917E+03  4.33397E+03
 -7.64497E+03 -2.83437E+02 -3.43458E+03 -5.85578E+03  7.56864E+02 -7.64420E+03  3.96021E+03 -8.72012E+03
  8.68575E+03 -3.07483E+03  9.14706E+03  5.67431E+02  6.85056E+03  6.40744E+03  4.37453E+02  7.81275E+03
 -1.99601E+03  6.96875E+03 -4.98605E+03  2.87575E+03 -3.22371E+03 -1.33328E+03 -2.36856E+03 -1.43765E+03
 -1.76597E+03  8.57670E+02 -2.51323E+03  2.49390E+03 -2.34203E+03  1.80097E+03 -4.04255E+03 -1.67001E+03
 -3.35941E+03 -4.94167E+03  3.67168E+02 -6.90740E+03  5.88305E+03 -6.42044E+03  7.27086E+03 -1.06762E+03
  7.13113E+03  3.22785E+03  3.47360E+03  5.71888E+03 -2.10371E+03  6.91322E+03 -4.25659E+03  4.18429E+03
 -5.51950E+03 -7.36525E+02 -5.42885E+03 -4.32197E+03  6.57928E+02 -5.33386E+03  2.04876E+03 -4.83430E+03
  3.87529E+03 -1.81103E+03  3.08916E+03  4.54589E+02  1.44271E+03  1.60277E+03  7.05079E+02  3.20636E+02
  1.20704E+03 -9.35042E+02  1.33743E+03  1.72481E+03  2.36718E+03  4.17720E+03  1.90544E+03  3.32239E+03
 -2.69907E+03  4.57723E+03 -4.19541E+03  5.08707E+03 -5.27487E+03  2.27728E+02 -6.56388E+03 -1.30055E+03
 -3.30966E+03 -6.63462E+03  7.50923E+02 -7.57332E+03  2.88789E+03 -4.12394E+03  4.90812E+03 -1.87664E+03
  4.14051E+03  2.94856E+03  1.72130E+03  4.14321E+03 -1.61508E+03  2.15916E+03 -3.07987E+03  6.27389E+02
 -2.01185E+03 -1.82428E+03  1.41042E+03 -2.66100E+03  1.85554E+03 -1.63408E+03  2.43034E+03  1.42357E+02
  1.83268E+03  1.51418E+03 -2.30223E+02  3.62992E+02 -4.46256E+02  1.43276E+03  1.40047E+03 -7.57076E+02
 -1.27902E+01 -1.16138E+03  1.83740E+03  3.82556E+02  4.04783E+02  3.90616E+03 -6.18194E+02  3.84999E+03
 -2.66622E+03  2.51114E+03 -3.53841E+03  4.64447E+02 -2.96829E+03 -1.83357E+03 -8.71517E+02 -1.00777E+03
  6.68936E+02 -1.72965E+03  1.75214E+03 -2.17860E+03  1.01690E+03  3.86173E+02 -1.63148E+03  2.57917E+03
 -1.59066E+03  2.61572E+02 -2.08926E+03 -2.97103E+03 -4.66733E+02 -2.88210E+03 -1.81362E+03 -2.62501E+03
  1.71294E+03 -2.52142E+03  1.44521E+03  5.99510E+01  3.08648E+03  1.06820E+03  4.97995E+02  2.71734E+03
 -1.09745E+03  4.27825E+02 -1.88478E+03 -7.72823E+02  1.61584E+02 -1.59833E+03  2.88242E+03 -2.93687E+03
  2.74348E+03  1.01559E+03  5.54575E+03  1.88241E+03  2.86149E+03  2.33380E+03 -1.12639E+03  4.30247E+03
 -3.03059E+03  1.44284E+03 -2.95953E+03  3.96065E+01 -2.02007E+03 -1.14338E+03  5.40565E+02 -1.21568E+03
  2.93440E+03 -1.46825E+03  9.19047E+02  1.17153E+03  1.92929E+03  2.05708E+03 -5.88655E+02  1.40713E+03
 -2.23667E+03 -2.82078E+02 -1.61874E+02  4.00945E+02 -3.26139E+02  2.82196E+02 -3.73524E+01  6.30157E+02
 -1.66139E+03  1.81496E+03 -1.97254E+03  1.24003E+03 -3.81652E+03  1.42546E+02 -3.74204E+03 -1.01845E+03
 -2.73760E+03 -4.09320E+03 -3.07440E+02 -5.35958E+03  1.53953E+03 -3.45631E+03  4.88366E+03 -2.59108E+03
  4.07014E+03  6.59602E+02  3.42521E+03  2.42355E+03 -6.37279E+02  2.44484E+03 -1.80239E+03  1.38109E+03
 -1.66178E+03  8.51451E+02 -1.88444E+03 -7.85499E+02  3.71500E+01 -1.03595E+03 -6.51674E+02  4.96173E+02
 -2.20847E+03  8.18182E+02 -2.22887E+02 -8.76509E+00 -6.52326E+02 -1.02322E+03 -7.79376E+02 -2.35813E+03
  9.62096E+02 -6.37865E+02  1.26450E+03 -2.84971E+02  4.21306E+03  5.09715E+02  1.30835E+03  3.64858E+03
 -2.86623E+03  4.47421E+03 -3.56989E+03  2.68167E+03 -4.04490E+03 -2.91938E+02 -2.59581E+03 -3.12694E+03
 -1.61893E+03 -1.77046E+03  1.39696E+03 -1.48167E+03  2.83801E+03 -1.27708E+03  3.04171E+03  1.12536E+03
  1.69907E+03 -1.90804E+01 -5.28173E+02  3.07732E+03  3.89072E+01  5.40214E+02  3.91447E+02 -1.36245E+03
  7.00221E+02  2.30546E+01  9.50827E+02  1.58375E+03  1.29532E+03  1.65226E+03  6.22055E+02  1.54976E+02
 -8.60350E+02  1.67117E+03 -6.55628E+02 -2.70450E+02 -1.75437E+03 -1.12002E+03 -1.02652E+03 -1.80610E+03
  1.84223E+03 -2.25993E+03  1.62945E+03 -8.30067E+02  2.81414E+03  2.89244E+02  1.55769E+03  2.13459E+03
  2.83839E+01  1.61481E+03  1.26563E+02  1.63108E+03 -1.00145E+03  5.94967E+02 -7.27595E+02 -5.72830E+02
 -7.12047E+01 -4.73045E+01 -8.69164E+02 -1.86596E+01 -2.81987E+03  7.16664E+02 -1.00063E+03 -4.49203E+02
 -2.00833E+03 -3.33089E+02 -7.03535E+01 -2.19584E+03  1.86154E+02 -2.03509E+03  6.61986E+02 -1.78124E+03
  1.52004E+03  3.85784E+01  1.48969E+02  3.15826E+02 -2.26295E+02  1.08062E+03 -8.48948E+02  2.19499E+03
