 $NMID ID='MM_0lb_SNR200_7hz_g55_13.RAW', FMTDAT='(8E13.5)'
 TRAMP=1., VOLUME=1. $END
  3.10586E+05  1.41365E+03  3.36906E+05  2.52380E+05  8.58378E+04  3.39776E+05 -1.34202E+05  2.53222E+05
 -1.89900E+05  8.54523E+04 -1.12179E+05 -3.26370E+04 -1.21081E+03 -5.18306E+04  5.39236E+04  8.62619E+02
  3.36219E+04  5.44419E+04 -1.82333E+04  7.73560E+04 -5.91012E+04  6.39601E+04 -8.46403E+04  3.20356E+04
 -8.37905E+04 -1.09584E+04 -5.87884E+04 -5.13091E+04 -1.60074E+04 -7.13175E+04  2.90125E+04 -4.80070E+04
  4.26685E+04  3.95857E+03  1.75994E+04  4.97949E+04 -3.44088E+04  4.84273E+04 -6.78665E+04 -1.40552E+03
 -5.70758E+04 -5.72122E+04 -7.35825E+03 -8.07188E+04  3.45201E+04 -5.92696E+04  5.05614E+04 -1.95994E+04
  4.53425E+04  1.25840E+04  3.30281E+04  2.80727E+04  1.55243E+04  3.07514E+04 -7.87411E+03  2.69938E+04
 -2.31520E+04  1.34139E+04 -1.57547E+04 -6.06982E+03  8.01932E+03 -8.43778E+03  2.55560E+04  1.47455E+04
  6.75733E+03  3.96096E+04 -3.55417E+04  3.65689E+04 -6.63289E+04  3.39463E+03 -6.04785E+04 -4.50141E+04
 -1.36335E+04 -6.77200E+04  4.18939E+04 -4.78416E+04  6.45058E+04 -2.66072E+03  3.68948E+04  3.52549E+04
 -5.30759E+03  4.11119E+04 -3.13173E+04  2.18413E+04 -3.38726E+04 -1.64422E+03 -2.06448E+04 -1.08015E+04
 -9.39796E+03 -1.64641E+04  8.94651E+02 -2.04434E+04  9.29504E+03 -2.34727E+04  1.68242E+04 -1.19927E+04
  1.15613E+04  6.72927E+03 -1.04287E+04  1.34090E+04 -2.36391E+04 -7.78513E+03 -1.01656E+04 -3.88943E+04
  2.64948E+04 -5.01182E+04  5.24023E+04 -2.04620E+04  4.97277E+04  2.26993E+04  1.91829E+04  4.98385E+04
 -1.87325E+04  3.77695E+04 -2.93196E+04  5.13854E+03 -1.36983E+04 -2.92883E+04  2.13829E+04 -3.78146E+04
  4.66877E+04 -1.20516E+04  4.32040E+04  2.43573E+04  2.38239E+04  5.13970E+04 -8.73376E+03  5.71927E+04
 -3.76274E+04  3.93944E+04 -4.95422E+04  1.10910E+04 -5.02254E+04 -2.00049E+04 -2.80053E+04 -4.28045E+04
  8.57040E+03 -4.61994E+04  3.45776E+04 -1.73013E+04  3.42487E+04  1.33898E+04  6.98654E+03  2.38919E+04
 -1.43927E+04  1.11778E+04 -1.17717E+04 -7.72240E+03  5.89443E+03 -1.21774E+04  1.94904E+04  6.42796E+03
  1.48614E+04  2.34296E+04 -3.61407E+03  2.76696E+04 -2.40986E+04  1.50862E+04 -3.35891E+04 -1.27143E+02
 -2.87477E+04 -1.82315E+04 -1.41057E+04 -2.67658E+04  3.42208E+03 -2.93224E+04  2.27746E+04 -2.37340E+04
  3.53699E+04 -1.57217E+04  4.07427E+04  5.87590E+03  2.91874E+04  2.74860E+04  3.60635E+03  4.37927E+04
 -2.28512E+04  3.58927E+04 -3.02809E+04  1.30664E+04 -2.31313E+04 -8.68633E+03 -4.93304E+03 -1.30464E+04
 -1.92149E+01  8.90935E+02 -8.72342E+03  9.66042E+03 -2.34545E+04  5.84727E+03 -2.25598E+04 -8.88313E+03
 -1.24813E+04 -2.42088E+04  6.24312E+03 -2.82974E+04  2.01394E+04 -2.24212E+04  2.54107E+04 -2.49456E+03
  1.69113E+04  1.76267E+04 -2.39772E+03  2.66973E+04 -1.68627E+04  1.47981E+04 -2.51927E+04 -4.52932E+03
 -1.94062E+04 -2.29974E+04 -3.02153E+02 -3.03457E+04  1.32221E+04 -2.58644E+04  2.54366E+04 -1.46106E+04
  2.45595E+04 -1.33784E+03  1.60858E+04  7.25848E+03  7.79793E+03  1.41244E+03  1.39276E+04 -2.14935E+03
  2.37042E+04  3.22152E+03  2.87568E+04  2.01015E+04  1.96385E+04  3.98407E+04 -1.99202E+03  4.99847E+04
 -2.78014E+04  4.24764E+04 -4.98073E+04  2.22722E+04 -4.95463E+04 -2.97068E+03 -4.11426E+04 -2.92928E+04
 -1.65618E+04 -4.29901E+04  1.76179E+04 -3.66724E+04  3.12322E+04 -1.65403E+04  2.65693E+04  9.54283E+03
  8.79050E+03  2.14446E+04 -1.42822E+04  1.59840E+04 -2.28027E+04  3.30893E+03 -1.59778E+04 -1.43359E+04
 -3.36976E+02 -2.12804E+04  1.16484E+04 -1.67483E+04  1.55306E+04 -2.89634E+03  4.19934E+03  1.08599E+04
 -8.38096E+03  4.73387E+03 -1.21606E+04 -5.60008E+03 -3.25518E+03 -2.03113E+04  1.35506E+04 -2.36807E+04
  2.68501E+04 -1.44721E+04  3.04750E+04  4.08911E+03  2.79671E+04  2.06357E+04  1.33262E+04  3.40682E+04
 -6.84276E+03  3.58881E+04 -2.46299E+04  2.34407E+04 -2.69242E+04  5.74069E+03 -1.69243E+04 -8.86442E+03
 -8.31510E+03 -8.48470E+03 -4.67361E+02  9.78964E+02 -2.25875E+03  4.19439E+03 -9.13890E+03  6.95309E+03
 -1.86970E+04 -7.42761E+02 -1.71895E+04 -1.36998E+04 -6.40511E+03 -2.25954E+04  7.26415E+03 -1.91220E+04
  1.51688E+04 -6.35388E+03  1.06617E+04  5.72091E+03  4.96815E+02  8.00828E+03 -8.74876E+03 -2.44818E+03
 -8.50261E+03 -1.24473E+04 -1.30660E+03 -1.78978E+04  1.22660E+04 -1.92733E+04  2.32435E+04 -9.51868E+03
  2.79234E+04  2.45627E+03  2.09004E+04  1.76019E+04  5.24079E+03  2.24563E+04 -1.27161E+04  1.79058E+04
 -1.63777E+04  5.09478E+03 -8.57971E+03 -4.28849E+03  1.74896E+03 -5.01004E+03  9.05169E+03 -1.51106E+03
  9.22589E+03  8.97004E+03  1.70217E+03  1.42169E+04 -1.07327E+04  1.35201E+04 -1.83737E+04  3.32923E+03
 -1.39109E+04 -9.85290E+03  4.56836E+02 -1.59340E+04  1.05178E+04 -6.51187E+03  1.16188E+04  4.16881E+03
  3.31586E+03  1.25165E+04 -8.30607E+03  1.48320E+04 -1.59238E+04  4.48674E+03 -1.80804E+04 -6.46522E+03
 -9.03596E+03 -2.11095E+04  4.55105E+03 -2.13466E+04  2.07090E+04 -1.37711E+04  2.13656E+04  3.91347E+03
  1.26299E+04  1.24713E+04 -1.35110E+03  1.77619E+04 -1.54559E+04  8.68765E+03 -1.41460E+04 -8.58738E+02
 -1.10758E+04 -1.32983E+04 -1.61505E+03 -1.32521E+04  7.83309E+03 -1.01887E+04  8.89674E+03 -2.78218E+03
  6.34064E+03  3.19125E+03 -1.48031E+03  1.98222E+03 -1.76262E+03 -4.78455E+03  4.26631E+03 -9.87290E+03
  1.44445E+04 -7.22165E+03  1.97454E+04  2.22434E+03  1.79692E+04  1.49218E+04  1.45157E+04  2.56542E+04
 -6.19698E+03  3.05181E+04 -2.50683E+04  2.33724E+04 -3.31978E+04  2.48277E+03 -2.67479E+04 -1.26970E+04
 -1.25676E+04 -2.04476E+04  5.75800E+02 -1.89384E+04  5.90226E+03 -9.78420E+03  7.87170E+03 -5.49237E+03
  4.14280E+03 -3.16703E+03  3.42265E+03 -4.37658E+03  5.85454E+03 -4.45590E+03  9.82378E+03 -3.17814E+03
  1.15206E+04  3.07560E+03  7.93631E+03  1.37147E+04 -2.78774E+03  1.47188E+04 -1.48118E+04  1.28429E+04
 -1.78211E+04 -1.65696E+03 -1.18451E+04 -1.33782E+04 -1.94672E+03 -2.04229E+04  1.00728E+04 -1.97679E+04
  2.27259E+04 -1.15828E+04  2.61524E+04  2.81838E+03  1.68427E+04  1.87512E+04  1.76364E+03  2.31665E+04
 -9.37642E+03  1.69309E+04 -1.27614E+04  4.88887E+03 -9.41733E+03 -3.11044E+03 -5.61446E+03 -4.01812E+03
 -1.63611E+03  1.28548E+03 -3.02822E+03  3.40203E+03 -7.20137E+03  3.29924E+03 -1.17485E+04 -1.68768E+03
 -1.13359E+04 -1.29477E+04  6.39544E+02 -1.96179E+04  1.28373E+04 -1.74115E+04  1.92878E+04 -4.88900E+03
  1.90925E+04  8.29503E+03  9.26870E+03  1.78767E+04 -2.64442E+03  2.04455E+04 -1.35417E+04  1.12737E+04
 -1.81033E+04 -1.21152E+03 -1.38302E+04 -9.71757E+03 -7.55336E+02 -1.63743E+04  9.68161E+03 -1.09217E+04
  1.30074E+04 -3.43397E+03  8.52190E+03  2.43680E+03  3.14929E+03  4.71373E+03  2.02709E+03  2.74633E+03
  3.24523E+03  2.74948E+02  4.39982E+03  2.51778E+03  5.32290E+03  5.40142E+03  4.33893E+03  1.02151E+04
 -2.98586E+03  1.67901E+04 -1.27756E+04  1.61037E+04 -1.97358E+04  2.97760E+03 -2.04220E+04 -7.89135E+03
 -8.90139E+03 -2.12558E+04  1.91878E+03 -2.09686E+04  1.34392E+04 -1.27498E+04  1.60613E+04 -1.76163E+03
  1.19642E+04  6.40796E+03  2.91690E+03  1.15166E+04 -5.42424E+03  9.27416E+03 -8.38197E+03 -2.19374E+03
 -2.44154E+03 -9.35392E+03  4.04344E+03 -7.73394E+03  9.03609E+03 -4.82956E+03  9.48634E+03  3.14292E+03
  5.91048E+03  5.55652E+03  2.24517E+03  2.80725E+03 -9.76586E+02  3.53215E+03  8.22751E+01  1.32450E+03
  3.55740E+03 -6.02020E+02  7.72212E+03  2.74130E+03  4.99893E+03  1.07499E+04 -1.56994E+03  1.28302E+04
 -1.10478E+04  9.01525E+03 -1.28938E+04  1.93281E+03 -1.27403E+04 -4.61232E+03 -4.71489E+03 -8.28265E+03
  1.69860E+03 -9.87469E+03  6.31456E+03 -3.01959E+03  3.72572E+03  2.68364E+03 -2.78096E+03  5.29369E+03
 -8.85574E+03  4.11650E+03 -1.10072E+04 -4.69050E+03 -6.32760E+03 -1.18291E+04  2.22416E+03 -1.19910E+04
  7.94363E+03 -7.67016E+03  6.88041E+03 -3.10503E+03  8.26582E+03  3.37657E+03  1.34067E+03  7.36280E+03
 -6.10778E+03  1.73063E+03 -4.46072E+03 -3.57841E+03  2.66398E+03 -9.91441E+03  1.09836E+04 -7.93241E+03
  1.51218E+04  4.40734E+02  1.34844E+04  8.12899E+03  4.03351E+03  1.49704E+04 -3.45734E+03  1.42683E+04
 -1.10183E+04  5.50802E+03 -1.14093E+04 -3.27421E+03 -4.99627E+03 -9.24242E+03  1.06704E+03 -9.58950E+03
  7.72524E+03 -4.56242E+03  8.45695E+03  4.30298E+03  1.51145E+03  8.31715E+03 -1.18912E+03  8.08397E+03
 -2.88942E+03  4.82922E+03 -3.21471E+03  5.13722E+02 -3.91825E+03  1.82419E+03 -1.85434E+03  2.80279E+03
 -4.16143E+03  5.90114E+03 -1.11176E+04  5.67330E+03 -1.42098E+04 -2.94267E+02 -1.52040E+04 -1.00951E+04
 -9.28656E+03 -2.00975E+04  1.20212E+03 -2.18828E+04  1.51657E+04 -1.82955E+04  2.01137E+04 -6.93037E+03
  1.92566E+04  4.59262E+03  1.20378E+04  1.38107E+04  1.08293E+02  1.61134E+04 -3.70640E+03  1.31498E+04
 -7.84003E+03  5.36371E+03 -6.29198E+03 -3.44526E+03 -1.86882E+02 -1.93494E+03 -7.02722E+02 -1.84057E+03
 -2.57613E+03 -5.12536E+02 -3.17173E+03 -3.13579E+02 -2.32462E+03 -5.24334E+03 -1.22879E+03 -4.17175E+03
  7.21476E+03 -4.95937E+03  8.77221E+03  1.07187E+03  1.11243E+04  7.59647E+03  2.01213E+03  1.46769E+04
 -7.53070E+03  1.64638E+04 -1.68421E+04  1.01799E+04 -1.77362E+04 -5.36743E+02 -1.39003E+04 -9.27300E+03
 -6.42244E+03 -1.55325E+04  2.69716E+03 -1.54889E+04  1.05151E+04 -8.19336E+03  1.09115E+04  5.04511E+02
  6.60644E+03  5.65085E+03 -1.03215E+03  4.62214E+03 -1.62836E+03  7.92937E+02 -1.52249E+02 -2.70670E+03
  4.30505E+03 -4.03565E+03  7.39031E+03 -1.30559E+03  4.77711E+03  4.59649E+03  1.14069E+03  7.42966E+03
 -6.92035E+03  5.59888E+03 -1.10417E+04  8.05656E+02 -9.49581E+03 -7.82648E+03 -1.35804E+02 -1.32150E+04
  7.18723E+03 -1.12045E+04  1.34562E+04 -3.54123E+03  1.36665E+04  3.33739E+03  7.79581E+03  1.12041E+04
  2.08952E+03  1.14319E+04 -1.88103E+03  8.23953E+03 -6.72688E+03  3.68557E+03 -6.04744E+03  6.55855E+01
 -3.88196E+03 -1.27396E+03 -2.57273E+03  8.90066E+02 -6.49921E+03  3.09427E+02 -9.85331E+03 -1.82408E+03
 -7.30557E+03 -5.81349E+03 -3.73700E+03 -9.03480E+03  7.95489E+03 -8.83578E+03  8.58636E+03 -5.90218E+03
  1.02912E+04  1.43692E+03  5.59673E+03  7.66089E+03 -1.95738E+03  1.19056E+04 -8.94439E+03  9.23096E+03
