 $NMID ID='MM_0lb_SNR200_14hz_g40_54.RAW', FMTDAT='(8E13.5)'
 TRAMP=1., VOLUME=1. $END
  3.09486E+05  1.11892E+03  3.36510E+05  2.50641E+05  8.53714E+04  3.36549E+05 -1.31567E+05  2.51378E+05
 -1.91109E+05  8.39119E+04 -1.11707E+05 -3.19347E+04  9.60168E+02 -5.01927E+04  5.33920E+04 -6.21007E+01
  3.52560E+04  5.27194E+04 -1.66564E+04  7.59976E+04 -6.07641E+04  6.33188E+04 -8.32852E+04  3.25717E+04
 -8.09870E+04 -1.23967E+04 -5.64835E+04 -5.10101E+04 -1.44484E+04 -6.98631E+04  2.73473E+04 -4.57788E+04
  4.05805E+04  4.09126E+03  1.58793E+04  4.89502E+04 -3.37072E+04  4.68162E+04 -6.65635E+04  9.65012E+02
 -5.31759E+04 -5.61949E+04 -7.00536E+03 -7.66265E+04  3.30164E+04 -5.46421E+04  4.73401E+04 -1.61158E+04
  4.35143E+04  1.12922E+04  3.21111E+04  2.34725E+04  1.60116E+04  2.91121E+04 -6.06552E+03  2.76370E+04
 -2.09579E+04  1.09597E+04 -1.89740E+04 -4.33262E+03  5.69601E+03 -6.84865E+03  2.17695E+04  1.16048E+04
  5.29288E+03  3.40353E+04 -3.17948E+04  3.58783E+04 -6.14515E+04  7.78306E+02 -5.71498E+04 -4.30115E+04
 -1.12630E+04 -6.20710E+04  4.02175E+04 -4.45311E+04  5.68841E+04 -2.76814E+03  3.24807E+04  3.23566E+04
 -5.85051E+03  3.57075E+04 -2.97769E+04  1.60476E+04 -2.94403E+04 -4.39978E+03 -1.63619E+04 -1.00999E+04
 -8.26634E+03 -1.29868E+04 -8.53242E+02 -1.76058E+04  6.80288E+03 -2.17339E+04  1.54929E+04 -1.39806E+04
  1.22498E+04  5.38881E+03 -8.51430E+03  1.25076E+04 -2.00958E+04 -5.19305E+03 -7.48226E+03 -3.28635E+04
  2.23438E+04 -4.16320E+04  4.75916E+04 -1.90533E+04  4.49847E+04  1.94513E+04  1.54533E+04  4.24755E+04
 -1.53956E+04  3.32850E+04 -2.58519E+04  4.92800E+02 -1.00548E+04 -2.74061E+04  1.97855E+04 -3.31938E+04
  3.91015E+04 -8.96434E+03  3.49627E+04  2.34213E+04  1.68973E+04  4.51652E+04 -6.17336E+03  4.99933E+04
 -3.17925E+04  3.31417E+04 -4.04781E+04  9.98985E+03 -4.32627E+04 -1.55346E+04 -2.24703E+04 -3.71838E+04
  7.25983E+03 -3.78099E+04  3.03689E+04 -1.57377E+04  2.89644E+04  1.06767E+04  3.95817E+03  1.85793E+04
 -1.22654E+04  8.42330E+03 -9.94777E+03 -8.31681E+03  6.57356E+03 -9.94373E+03  1.76318E+04  6.65744E+03
  1.30363E+04  2.22451E+04 -5.36709E+03  2.63587E+04 -2.18936E+04  1.08577E+04 -2.64481E+04 -5.14353E+03
 -1.90968E+04 -1.87324E+04 -8.39307E+03 -1.95035E+04  3.59856E+03 -1.85659E+04  1.36380E+04 -1.87058E+04
  2.45030E+04 -1.23744E+04  3.23525E+04  2.90556E+03  2.34318E+04  1.93909E+04  3.99593E+03  3.63292E+04
 -1.70700E+04  2.97669E+04 -2.75136E+04  9.65368E+03 -2.03464E+04 -9.88285E+03 -4.03614E+03 -1.30951E+04
  2.14688E+03 -4.49839E+03 -4.53309E+03  6.11643E+03 -1.48864E+04  4.21682E+03 -1.59924E+04 -6.94873E+03
 -9.33190E+03 -1.68352E+04  4.68308E+03 -2.18605E+04  1.42067E+04 -1.61938E+04  1.76622E+04 -1.45128E+03
  1.17551E+04  1.33567E+04 -9.22560E+02  1.86161E+04 -1.19928E+04  1.04176E+04 -1.82351E+04 -2.36049E+03
 -1.35456E+04 -1.68244E+04 -4.55980E+02 -2.15282E+04  9.96787E+03 -1.75421E+04  1.83015E+04 -8.88125E+03
  1.73416E+04 -5.74175E+02  1.24290E+04  3.74030E+03  6.59725E+03 -1.04723E+02  8.86436E+03 -9.85599E+02
  1.58607E+04  3.40528E+03  1.83068E+04  1.45639E+04  1.06535E+04  2.95000E+04 -3.82190E+03  3.30095E+04
 -1.91033E+04  2.59924E+04 -2.94592E+04  1.23069E+04 -3.13194E+04 -2.49025E+03 -2.62029E+04 -1.74641E+04
 -1.29768E+04 -2.65680E+04  9.90077E+03 -2.31790E+04  1.99811E+04 -1.19287E+04  1.76857E+04  5.41637E+03
  7.53195E+03  1.40626E+04 -1.09159E+04  1.19678E+04 -1.51141E+04  1.91542E+03 -1.26870E+04 -8.74920E+03
 -3.43754E+02 -1.30148E+04  8.47687E+03 -1.16780E+04  9.29547E+03 -1.01950E+03  2.25514E+03  5.67576E+03
 -7.25316E+03  1.63844E+03 -6.34106E+03 -4.73852E+03  5.00313E+02 -1.30523E+04  1.01829E+04 -1.35248E+04
  1.63142E+04 -7.07554E+03  1.63438E+04  2.29362E+03  1.51149E+04  1.19747E+04  6.32912E+03  2.07324E+04
 -1.94338E+03  2.19007E+04 -1.25804E+04  1.19526E+04 -1.50803E+04  3.75356E+03 -9.73936E+03 -3.64781E+03
 -5.54488E+03 -5.26151E+03  1.59433E+03  1.63726E+03 -2.35949E+03  1.37534E+03 -5.32115E+03  4.06556E+03
 -9.42229E+03 -8.44588E+02 -1.03365E+04 -9.17527E+03 -4.97396E+03 -1.51856E+04  4.69203E+03 -1.14413E+04
  9.23915E+03 -4.51902E+03  7.25921E+03  3.80539E+03 -7.46501E+02  4.07128E+03 -5.04395E+03  2.78708E+02
 -5.31199E+03 -6.97439E+03 -1.69524E+03 -1.09221E+04  5.05113E+03 -1.08047E+04  1.37913E+04 -5.76316E+03
  1.44314E+04  6.36524E+02  1.17964E+04  7.93195E+03  1.86718E+03  1.24016E+04 -6.11474E+03  1.03452E+04
 -8.75220E+03  3.76689E+03 -5.00460E+03 -2.82797E+03  1.11902E+03 -3.18898E+03  5.41268E+03 -1.35167E+03
  4.17984E+03  4.76874E+03  2.06160E+03  7.02896E+03 -6.35547E+03  7.44347E+03 -1.09052E+04  1.73908E+03
 -7.23557E+03 -4.44310E+03  5.88072E+02 -8.54196E+03  4.97937E+03 -4.80392E+03  5.41691E+03  1.46394E+03
  8.85080E+02  5.78167E+03 -6.89923E+03  6.98049E+03 -7.21890E+03  3.89207E+03 -6.86477E+03 -3.16542E+03
 -5.13842E+03 -9.94476E+03  2.99397E+03 -1.01679E+04  8.74173E+03 -6.97143E+03  9.93168E+03  2.17878E+03
  6.89576E+03  8.86978E+03 -1.97489E+03  9.93090E+03 -6.47609E+03  4.92192E+03 -9.67934E+03 -1.21070E+03
 -7.00252E+03 -7.06938E+03 -1.70837E+03 -7.33339E+03  3.30534E+03 -5.38409E+03  4.04847E+03 -2.55991E+03
  3.56768E+03  4.52010E+02  4.61451E+02  2.16952E+03 -1.19512E+03 -1.53932E+03  1.19035E+03 -3.77990E+03
  6.31547E+03 -1.50425E+03  8.79854E+03  1.34420E+03  1.00323E+04  4.94390E+03  6.89097E+03  1.06409E+04
 -2.18472E+03  1.40562E+04 -1.15474E+04  1.02748E+04 -1.50355E+04  2.19595E+03 -1.07016E+04 -4.95972E+03
 -6.95482E+03 -1.01029E+04 -1.26227E+02 -7.04888E+03  3.38856E+03 -4.73588E+03  3.46994E+03 -1.69024E+03
  1.67370E+03 -1.63211E+03  2.11025E+03 -2.67783E+03  4.43318E+03 -1.74058E+03  6.09356E+03 -1.86313E+02
  5.74837E+03  1.72224E+03  2.85491E+03  5.65743E+03 -2.10172E+03  5.60493E+03 -6.79789E+03  3.75744E+03
 -8.99694E+03 -1.82027E+03 -4.81145E+03 -6.11460E+03 -9.09496E+02 -8.81522E+03  5.35557E+03 -7.83388E+03
  7.39621E+03 -3.99198E+03  1.02082E+04 -7.93794E+02  6.53360E+03  8.44063E+03  1.68434E+03  1.04119E+04
 -3.46912E+03  8.15868E+03 -4.58330E+03  3.15532E+03 -2.73048E+03 -8.92890E+02  2.07883E+02 -8.08499E+02
 -2.03646E+03 -1.11760E+02 -1.15940E+03  1.68779E+03 -4.88673E+03  1.81723E+03 -6.05966E+03 -8.49099E+02
 -3.80398E+03 -5.46257E+03  2.57866E+02 -8.14406E+03  4.87025E+03 -7.34051E+03  7.70060E+03 -1.79689E+03
  7.03671E+03  3.11334E+03  3.15361E+03  5.26564E+03 -1.96982E+02  6.74343E+03 -5.81653E+03  4.52462E+03
 -6.99759E+03  1.19995E+03 -5.71953E+03 -4.21932E+03 -7.81275E+02 -5.83118E+03  3.09286E+03 -4.27293E+03
  4.96019E+03 -2.08076E+03  2.53989E+03  2.01126E+03  8.44186E+02  2.00620E+03  1.00883E+03  1.50592E+03
  3.21299E+03  6.17125E+02  1.84080E+03  2.51767E+03  1.52199E+03  3.79948E+03  1.51256E+03  4.18358E+03
 -2.03759E+03  6.16770E+03 -4.06631E+03  6.46082E+03 -8.02197E+03  1.71673E+03 -6.94036E+03 -2.72434E+03
 -4.43899E+03 -6.62341E+03 -2.82287E+02 -7.79051E+03  4.54366E+03 -5.30787E+03  5.71575E+03 -5.03449E+02
  4.62970E+03  3.31863E+03  5.19486E+02  4.60371E+03 -1.34688E+03  3.25486E+03 -2.68378E+03 -1.63473E+03
 -2.17222E+03 -3.31039E+03  1.95690E+03 -3.10094E+03  2.19766E+03 -1.19443E+03  2.83948E+03  7.52252E+02
  2.00389E+03  1.25688E+03  1.42946E+03  2.80693E+02 -5.75883E+01 -3.20426E+02  2.26949E+03  3.60245E+02
  5.09132E+01 -1.38585E+03  2.94972E+03  1.34571E+03  1.12462E+03  3.38350E+03 -8.95659E+02  5.31658E+03
 -5.16809E+03  2.65173E+03 -3.73225E+03  9.15168E+01 -3.47573E+03 -1.84837E+03 -3.28049E+02 -2.84238E+03
  5.99974E+02 -2.55946E+03  2.64094E+03 -2.37362E+03  5.64509E+02  1.65522E+03 -9.27779E+00  2.29026E+03
 -3.57971E+03  1.25518E+03 -3.01900E+03 -1.91857E+03 -9.71942E+02 -4.48405E+03  6.85067E+02 -4.62586E+03
  2.04472E+03 -1.84991E+03  2.68939E+03  3.59404E+02  2.93679E+03 -5.16413E+02  7.30254E+02  2.60602E+03
 -6.93468E+02 -1.76133E+02 -2.03664E+03 -1.21193E+03  1.24517E+03 -2.68208E+03  3.65226E+03 -1.88979E+03
  2.84768E+03  6.17620E+02  4.53023E+03  2.36726E+03  2.02989E+03  5.11816E+03 -2.60431E+03  2.67088E+03
 -3.36747E+03  1.07441E+03 -3.69013E+03 -3.33847E+02 -2.47641E+03 -2.84065E+03 -2.22869E+02 -1.48321E+03
  2.37112E+03 -3.39507E+02  2.61923E+03  1.13505E+03  3.91533E+02  2.30704E+03  7.90513E+02  1.09068E+03
 -1.12023E+03  1.80199E+03 -1.20952E+03  4.47849E+02  7.08128E+02  1.66373E+03 -1.27606E+03  3.52493E+02
 -1.35283E+03  1.76130E+03 -2.62949E+03  1.89425E+03 -4.40585E+03 -9.49474E+01 -4.38504E+03 -1.41598E+03
 -2.16369E+03 -6.35987E+03  1.13743E+03 -5.69118E+03  2.70372E+03 -4.81429E+03  5.64866E+03 -2.12222E+03
  4.32165E+03  8.26814E+02  3.91835E+03  4.03874E+03 -6.74918E+02  3.21613E+03 -1.73417E+03  2.18315E+03
 -2.04492E+03  1.93227E+03 -7.64616E+02 -6.72586E+02 -1.73868E+03 -4.68268E+02 -9.75277E+02  1.44019E+03
 -8.58229E+02  6.84821E+02 -1.18411E+03  1.14462E+02 -1.60693E+03 -1.20499E+03  4.62550E+02 -2.46712E+03
  1.77325E+03 -1.38383E+03  2.49223E+03 -5.99124E+02  3.39882E+03  2.56785E+03 -4.10904E+02  2.56586E+03
 -2.62053E+03  4.95349E+03 -3.92859E+03  3.30972E+03 -4.36076E+03 -8.21685E+02 -3.26741E+03 -2.82764E+03
 -1.30974E+03 -4.30089E+03  1.99650E+03 -2.92383E+03  3.67328E+03 -1.80777E+03  1.25624E+03  1.99772E+02
  2.42734E+03  1.99028E+03  9.82567E+02  4.81782E+02 -1.34333E+03 -1.55382E+02  3.19648E+02 -8.25241E+02
  7.09619E+02 -4.36699E+02  1.17534E+03 -2.66818E+02  2.00451E+03  1.39598E+03  1.47067E+03  1.97878E+03
 -1.62021E+03  2.27054E+03 -2.27122E+03  4.89404E+02 -3.14255E+03 -4.20804E+02 -1.22624E+03 -5.56993E+03
  2.26707E+03 -2.89361E+03  2.68384E+03 -7.29047E+02  2.99855E+03  1.72671E+02  2.07514E+03  1.51937E+03
  9.69433E+02  1.92434E+03 -4.01559E+02  3.12401E+03 -2.33047E+03  9.08149E+02 -1.25862E+03  1.59629E+02
 -2.82130E+02  2.19255E+02 -1.06071E+03  3.89462E+02 -1.35129E+03  7.27326E+02 -2.46057E+03 -6.97763E+02
 -1.56879E+03 -1.19446E+03 -1.00044E+03 -2.27150E+03  1.74494E+03 -2.62467E+03  1.57517E+03 -1.36622E+03
  2.49694E+03  2.56011E+02  9.64764E+02  1.28846E+03 -4.71855E+01  2.14119E+03 -1.82691E+03  1.84571E+03
