 $NMID ID='MM_0lb_SNR200_11hz_g50_95.RAW', FMTDAT='(8E13.5)'
 TRAMP=1., VOLUME=1. $END
  3.09085E+05 -9.49745E+02  3.38222E+05  2.51663E+05  8.55635E+04  3.39043E+05 -1.31545E+05  2.52406E+05
 -1.91613E+05  8.28540E+04 -1.10872E+05 -3.20817E+04  1.12935E+03 -5.00018E+04  5.58886E+04 -9.59103E+02
  3.55567E+04  5.42656E+04 -1.57578E+04  7.47208E+04 -6.28380E+04  6.41081E+04 -8.56591E+04  3.19365E+04
 -8.14126E+04 -1.07475E+04 -5.80923E+04 -5.19615E+04 -1.47487E+04 -7.06092E+04  2.81312E+04 -4.52091E+04
  4.00553E+04  2.80719E+03  1.53559E+04  4.83572E+04 -3.47454E+04  4.81042E+04 -6.77906E+04  3.53335E+02
 -5.46436E+04 -5.83988E+04 -8.33488E+03 -7.75803E+04  3.37221E+04 -5.65624E+04  4.88252E+04 -1.80416E+04
  4.48416E+04  1.09699E+04  3.28630E+04  2.55039E+04  1.65142E+04  2.98517E+04 -6.34863E+03  2.76695E+04
 -2.24688E+04  1.23856E+04 -1.82966E+04 -5.26971E+03  5.95794E+03 -7.20812E+03  2.34411E+04  1.35184E+04
  7.65357E+03  3.61062E+04 -3.34306E+04  3.63797E+04 -6.58461E+04  9.54215E+02 -5.66317E+04 -4.44481E+04
 -1.20974E+04 -6.40718E+04  4.06099E+04 -4.66329E+04  5.95722E+04 -2.69222E+03  3.70710E+04  3.26847E+04
 -5.91086E+03  3.74454E+04 -3.17783E+04  1.74922E+04 -3.24081E+04 -4.91732E+03 -1.88036E+04 -1.06269E+04
 -9.68703E+03 -1.35444E+04 -1.35348E+03 -1.96007E+04  8.61352E+03 -2.24677E+04  1.68496E+04 -1.35736E+04
  9.79549E+03  6.17028E+03 -9.63493E+03  1.32151E+04 -2.29454E+04 -6.12426E+03 -6.76930E+03 -3.59734E+04
  2.37260E+04 -4.49605E+04  5.05552E+04 -1.80535E+04  4.77496E+04  1.92051E+04  1.55813E+04  4.63728E+04
 -1.61922E+04  3.43107E+04 -2.80755E+04  2.16020E+03 -1.05011E+04 -2.90296E+04  2.12317E+04 -3.51019E+04
  4.29517E+04 -1.07331E+04  3.90420E+04  2.46976E+04  1.93392E+04  4.88583E+04 -9.29440E+03  5.35076E+04
 -3.38967E+04  3.56494E+04 -4.57773E+04  1.02512E+04 -4.50785E+04 -1.78798E+04 -2.47045E+04 -4.04077E+04
  1.08324E+04 -4.02212E+04  3.33919E+04 -1.60137E+04  3.15434E+04  1.05703E+04  4.89750E+03  1.94749E+04
 -1.45041E+04  9.02492E+03 -9.80976E+03 -7.65975E+03  3.91457E+03 -1.04295E+04  1.96579E+04  5.85116E+03
  1.28371E+04  2.27781E+04 -5.25814E+03  2.61547E+04 -2.34316E+04  1.39483E+04 -2.89342E+04 -3.53734E+03
 -2.41785E+04 -1.72490E+04 -1.01011E+04 -2.41285E+04  4.01584E+03 -2.22725E+04  1.93030E+04 -1.97929E+04
  2.96195E+04 -1.27465E+04  3.68437E+04  4.45625E+03  2.54769E+04  2.30358E+04  3.45535E+03  3.89987E+04
 -1.89422E+04  3.28602E+04 -2.84886E+04  9.54822E+03 -2.13397E+04 -1.19534E+04 -4.24319E+03 -1.32338E+04
  1.68806E+03 -1.57484E+03 -7.55741E+03  6.89754E+03 -1.84973E+04  5.04042E+03 -1.80354E+04 -7.36256E+03
 -1.18556E+04 -2.23254E+04  6.36825E+03 -2.53724E+04  1.69873E+04 -1.71522E+04  1.92040E+04 -7.66277E+02
  1.43145E+04  1.47689E+04 -8.13455E+02  2.16650E+04 -1.51587E+04  1.24507E+04 -2.11557E+04 -4.89296E+03
 -1.36423E+04 -2.00061E+04 -1.57271E+03 -2.58063E+04  1.10651E+04 -2.20717E+04  2.10888E+04 -1.07392E+04
  1.99195E+04  4.52496E+02  1.30882E+04  4.68304E+03  6.68099E+03  1.95045E+03  1.20923E+04 -1.30984E+03
  2.02355E+04  3.25358E+03  2.23883E+04  1.75253E+04  1.43684E+04  3.53164E+04 -3.48112E+03  3.94923E+04
 -2.38658E+04  3.31850E+04 -3.82962E+04  1.77697E+04 -4.04147E+04 -3.01602E+03 -3.24942E+04 -2.38124E+04
 -1.43958E+04 -3.21413E+04  1.15883E+04 -3.09586E+04  2.51914E+04 -1.46750E+04  2.26158E+04  5.67525E+03
  7.68921E+03  1.69190E+04 -1.04547E+04  1.53809E+04 -1.77720E+04  3.29551E+03 -1.41228E+04 -1.09279E+04
  2.68146E+02 -1.77776E+04  9.98107E+03 -1.26049E+04  1.18688E+04 -8.21153E+02  2.46759E+03  7.60564E+03
 -6.75085E+03  1.61982E+03 -7.99789E+03 -5.84725E+03 -7.59498E+02 -1.69602E+04  1.07918E+04 -1.72993E+04
  1.86488E+04 -8.77355E+03  2.28837E+04  2.78571E+03  1.97996E+04  1.52715E+04  9.52439E+03  2.49189E+04
 -4.87619E+03  2.72331E+04 -1.67581E+04  1.97692E+04 -1.91737E+04  3.65549E+03 -1.23105E+04 -5.97370E+03
 -5.92979E+03 -5.44007E+03 -9.75602E+02  1.29500E+03 -2.18431E+03  3.70535E+03 -5.51881E+03  3.75756E+03
 -1.29773E+04 -5.22734E+02 -1.37934E+04 -1.00016E+04 -4.75437E+03 -1.75786E+04  5.77095E+03 -1.49574E+04
  1.16926E+04 -5.16264E+03  7.93709E+03  4.53653E+03  1.08856E+03  5.56258E+03 -6.47425E+03 -5.83303E+02
 -7.44292E+03 -8.79890E+03 -3.10761E+02 -1.35138E+04  6.79709E+03 -1.41062E+04  1.76623E+04 -8.31262E+03
  1.91457E+04  1.69611E+03  1.67410E+04  1.17542E+04  3.11858E+03  1.71782E+04 -8.77087E+03  1.28475E+04
 -1.00089E+04  5.20683E+03 -5.25439E+03 -2.00205E+03  7.27068E+02 -3.36128E+03  7.56806E+03 -3.80593E+02
  7.85842E+03  5.52386E+03  6.44973E+02  1.14108E+04 -6.75370E+03  1.11998E+04 -1.32833E+04  1.92173E+03
 -8.97509E+03 -7.10025E+03  1.49220E+02 -1.20188E+04  6.23382E+03 -6.33696E+03  6.43010E+03  2.62578E+03
  8.97763E+02  7.89981E+03 -7.47219E+03  9.09823E+03 -1.10471E+04  3.92201E+03 -1.06776E+04 -3.82219E+03
 -7.58241E+03 -1.23212E+04  3.01764E+03 -1.61287E+04  1.30807E+04 -9.24451E+03  1.41144E+04  1.65200E+03
  7.67171E+03  1.13189E+04 -2.13775E+03  1.37385E+04 -9.52545E+03  7.43699E+03 -1.04496E+04 -1.24362E+03
 -8.64368E+03 -8.78767E+03 -2.08484E+03 -1.00016E+04  3.66880E+03 -8.41088E+03  6.62153E+03 -3.56353E+03
  5.89452E+03  8.21917E+02 -2.16770E+02  1.13685E+03 -1.10442E+03 -2.78245E+03  2.04489E+03 -5.54803E+03
  1.00912E+04 -2.72907E+03  1.36644E+04  2.03055E+03  1.24298E+04  8.98015E+03  7.56752E+03  1.67311E+04
 -4.51615E+03  2.03518E+04 -1.69292E+04  1.50355E+04 -2.09971E+04  2.12890E+03 -1.75628E+04 -5.95267E+03
 -8.04564E+03 -1.41666E+04 -1.25114E+03 -1.17744E+04  3.72741E+03 -6.15489E+03  4.38516E+03 -4.15679E+03
  2.69355E+03 -2.04224E+03  4.58615E+03 -2.52224E+03  4.15066E+03 -2.09970E+03  7.02799E+03 -1.17467E+03
  7.95011E+03  1.96132E+03  4.85067E+03  7.46394E+03 -1.45009E+03  8.62947E+03 -8.82357E+03  8.24602E+03
 -1.22322E+04 -9.09375E+02 -7.43902E+03 -8.80036E+03 -1.39784E+03 -1.22819E+04  6.70874E+03 -1.34421E+04
  1.20299E+04 -6.26441E+03  1.48295E+04  1.16383E+03  1.12271E+04  1.15749E+04  1.98193E+03  1.34707E+04
 -6.11678E+03  1.17950E+04 -8.38092E+03  4.92025E+03 -4.98875E+03 -1.20592E+03 -2.29337E+03 -2.69661E+03
 -4.19733E+02  4.83418E+02 -1.98547E+03  3.21556E+03 -4.88778E+03  1.86103E+03 -8.12577E+03 -2.35151E+03
 -5.94747E+03 -8.68691E+03 -6.17433E+02 -1.09819E+04  9.39575E+03 -1.10134E+04  1.06861E+04 -3.61435E+03
  1.16196E+04  7.08210E+03  5.09417E+03  9.62725E+03 -2.63913E+03  1.16159E+04 -8.35502E+03  7.07269E+03
 -1.18653E+04 -1.12991E+02 -8.44691E+03 -7.40614E+03 -1.03509E+03 -8.34506E+03  4.64409E+03 -7.61179E+03
  8.46516E+03 -3.48664E+03  4.17968E+03  1.58110E+03  2.03036E+03  4.20630E+03  6.72083E+02  2.31785E+03
  2.69253E+03  1.65059E+03  2.85138E+03 -4.38848E+02  3.74201E+03  4.67693E+03  3.02585E+03  6.40442E+03
 -2.52556E+03  7.76569E+03 -8.88962E+03  9.36854E+03 -1.20920E+04  1.06941E+03 -1.11649E+04 -5.96200E+03
 -5.55014E+03 -1.16169E+04  6.13372E+02 -1.33509E+04  7.29133E+03 -6.45872E+03  9.21210E+03 -2.53891E+03
  7.70139E+03  3.24421E+03  7.91675E+01  6.37775E+03 -4.01732E+03  4.26485E+03 -3.49194E+03 -1.50483E+02
 -2.77674E+03 -5.94048E+03  2.40094E+03 -3.52227E+03  4.82551E+03 -2.42614E+03  4.93369E+03 -7.90489E+01
  2.43760E+03  2.10249E+03  7.70892E+02  1.64825E+03 -1.04467E+03  5.68901E+02  1.10703E+03 -1.12201E+03
 -2.15690E+02 -1.42675E+03  3.53210E+03  2.58565E+03  3.30576E+03  7.43211E+03 -1.51973E+03  7.29836E+03
 -6.83204E+03  5.13901E+03 -7.11836E+03  1.54340E+03 -7.88786E+03 -3.85827E+03 -2.64439E+03 -5.36559E+03
  6.61824E+02 -4.41532E+03  2.72967E+03 -1.42965E+03  2.34947E+03  2.24267E+03 -4.82670E+02  4.28314E+03
 -5.13942E+03  2.00935E+03 -6.97264E+03 -2.88194E+03 -3.07486E+03 -6.39114E+03  9.60212E+02 -6.81530E+03
  3.13620E+03 -5.44110E+03  3.71138E+03 -5.59875E+02  4.24403E+03  1.63784E+03  1.12210E+03  3.16168E+03
 -1.25049E+03  5.85283E+02 -2.67299E+03 -1.89369E+03  1.76518E+03 -3.66480E+03  5.22333E+03 -3.31498E+03
  6.23543E+03  3.12356E+02  6.11033E+03  4.87059E+03  1.98373E+03  7.75786E+03 -2.08353E+03  6.89004E+03
 -7.16386E+03  1.97973E+03 -6.12260E+03  1.30938E+02 -3.95715E+03 -5.21259E+03  1.76486E+03 -4.66869E+03
  5.51812E+03 -1.59803E+03  4.08664E+03  1.79961E+03  1.53709E+03  3.32139E+03 -1.04473E+03  2.42300E+03
 -2.97875E+03  3.47354E+03 -3.20290E+03  1.08074E+03 -3.56750E+02  1.85116E+02 -1.28814E+03  2.61452E+03
 -3.00282E+03  3.21831E+03 -6.74604E+03  2.54464E+03 -7.03655E+03 -4.22928E+02 -8.10429E+03 -3.72956E+03
 -3.59741E+03 -9.33778E+03  2.96175E+03 -1.05475E+04  6.99925E+03 -8.03898E+03  1.04362E+04 -3.68460E+03
  9.99536E+03  2.16197E+03  6.92540E+03  7.47350E+03  3.58376E+02  7.61794E+03 -3.22106E+03  6.28191E+03
 -3.89656E+03  1.96449E+03 -3.41088E+03 -1.98930E+03 -8.56779E+02 -2.39939E+03 -1.06841E+03 -2.06723E+02
 -1.35887E+03 -2.68074E+02 -1.10954E+03  7.12559E+02 -1.02039E+03 -1.48559E+03  7.66642E+02 -1.78166E+03
  4.27663E+03 -3.02264E+03  5.48003E+03 -4.96995E+02  5.24589E+03  4.53600E+03  8.23200E+02  7.55966E+03
 -4.79791E+03  1.00102E+04 -7.67660E+03  4.68693E+03 -9.05566E+03 -8.33428E+02 -6.98717E+03 -6.20951E+03
 -3.46258E+03 -7.73090E+03  6.68983E+02 -7.38617E+03  3.65821E+03 -2.87036E+03  5.12426E+03  9.88125E+02
  2.91164E+03  2.55320E+03 -7.77243E+02  1.66830E+03 -8.21159E+02  6.48332E+01 -1.22834E+03 -1.96045E+03
  2.77872E+03 -1.71464E+03  1.56222E+03  1.77487E+03  1.17259E+03  1.89366E+03  1.03328E+03  3.33475E+03
 -2.91164E+03  3.74312E+03 -5.06233E+03  1.10682E+02 -5.42901E+03 -3.70985E+03  2.41533E+02 -5.53120E+03
  2.90553E+03 -4.85425E+03  5.92246E+03 -1.17488E+02  4.71423E+03  2.20012E+03  2.92452E+03  3.84519E+03
  5.34548E+02  3.83783E+03 -2.39689E+03  3.38202E+03 -3.84687E+03  2.21935E+03 -2.53085E+03  2.10193E+02
 -1.07583E+03  3.31848E+02 -1.77223E+03  1.67350E+03 -2.22987E+03  1.72628E+03 -3.36650E+03 -6.33701E+02
 -3.56064E+03 -3.00013E+03 -3.73695E+02 -3.85505E+03  3.40158E+03 -3.93484E+03  4.38506E+03 -2.07323E+03
  5.13256E+03 -2.48765E+02  2.28915E+03  5.14161E+03 -2.50368E+02  5.43867E+03 -3.97358E+03  3.22070E+03
