 $NMID ID='MM_0lb_SNR200_14hz_g50_33.RAW', FMTDAT='(8E13.5)'
 TRAMP=1., VOLUME=1. $END
  3.09805E+05 -3.35529E+02  3.38087E+05  2.49736E+05  8.45992E+04  3.38597E+05 -1.33038E+05  2.51629E+05
 -1.89655E+05  8.38746E+04 -1.12324E+05 -3.29243E+04  6.03747E+02 -5.03368E+04  5.22952E+04 -6.04455E+02
  3.62303E+04  5.27001E+04 -1.69288E+04  7.59477E+04 -5.96027E+04  6.43362E+04 -8.35935E+04  3.23659E+04
 -8.09484E+04 -1.10138E+04 -5.71663E+04 -5.02834E+04 -1.37018E+04 -6.93470E+04  2.95534E+04 -4.60122E+04
  3.95292E+04  3.49957E+03  1.68330E+04  4.85534E+04 -3.38889E+04  4.66526E+04 -6.63130E+04 -1.42234E+03
 -5.48158E+04 -5.61638E+04 -7.16084E+03 -7.76073E+04  3.39731E+04 -5.47015E+04  4.81564E+04 -1.71772E+04
  4.37702E+04  1.10833E+04  3.21335E+04  2.57029E+04  1.49387E+04  3.08121E+04 -5.89362E+03  2.77042E+04
 -2.14056E+04  1.25562E+04 -1.75846E+04 -5.15323E+03  5.15602E+03 -7.64752E+03  2.18612E+04  1.24638E+04
  6.78449E+03  3.54741E+04 -3.22792E+04  3.61357E+04 -6.29864E+04  2.27006E+03 -5.66120E+04 -4.28592E+04
 -1.22362E+04 -6.41979E+04  3.94995E+04 -4.58955E+04  5.81481E+04 -2.22135E+03  3.37288E+04  3.16643E+04
 -4.47962E+03  3.43965E+04 -2.98724E+04  1.56110E+04 -3.04293E+04 -3.66330E+03 -1.73875E+04 -1.14658E+04
 -8.20254E+03 -1.47404E+04 -1.15917E+03 -1.94476E+04  6.71470E+03 -2.14326E+04  1.67495E+04 -1.38545E+04
  1.03836E+04  5.08149E+03 -8.54942E+03  1.30785E+04 -2.14466E+04 -4.68806E+03 -8.69243E+03 -3.28573E+04
  2.23970E+04 -4.34195E+04  4.92145E+04 -1.96110E+04  4.51483E+04  1.93005E+04  1.59132E+04  4.45717E+04
 -1.51280E+04  3.34123E+04 -2.55990E+04  1.16365E+03 -9.28891E+03 -2.80641E+04  2.08881E+04 -3.27623E+04
  4.07169E+04 -9.03883E+03  3.54560E+04  2.46436E+04  1.81419E+04  4.61093E+04 -7.43328E+03  5.05697E+04
 -3.29425E+04  3.41763E+04 -4.29712E+04  1.00734E+04 -4.27770E+04 -1.76814E+04 -2.41589E+04 -3.81647E+04
  6.85318E+03 -3.84188E+04  3.19732E+04 -1.47428E+04  2.97410E+04  1.11290E+04  3.23112E+03  1.86578E+04
 -1.43639E+04  9.39044E+03 -1.05491E+04 -7.82617E+03  5.56183E+03 -1.20392E+04  1.68035E+04  5.87134E+03
  1.39993E+04  2.17985E+04 -5.90781E+03  2.43823E+04 -2.23432E+04  1.18054E+04 -2.76601E+04 -4.12826E+03
 -2.07719E+04 -1.66045E+04 -8.99203E+03 -2.07105E+04  4.05251E+03 -1.90579E+04  1.60953E+04 -1.78481E+04
  2.56960E+04 -1.29994E+04  3.36942E+04  2.15328E+03  2.41247E+04  1.91272E+04  4.46314E+03  3.69105E+04
 -1.89355E+04  3.09211E+04 -2.81799E+04  1.06314E+04 -2.13330E+04 -1.09169E+04 -4.84527E+03 -1.30586E+04
  1.74699E+03 -2.54769E+03 -6.12871E+03  7.00445E+03 -1.61670E+04  5.33219E+03 -1.60708E+04 -6.98238E+03
 -9.71528E+03 -1.94573E+04  6.24202E+03 -2.33432E+04  1.60270E+04 -1.70596E+04  1.87260E+04 -2.18219E+03
  1.06496E+04  1.25712E+04 -1.51787E+03  1.94493E+04 -1.33733E+04  1.05880E+04 -1.82488E+04 -3.27638E+03
 -1.36626E+04 -1.92728E+04 -1.65370E+03 -2.47276E+04  1.03234E+04 -1.97663E+04  1.99889E+04 -7.99338E+03
  1.69867E+04  2.91655E+02  1.21277E+04  4.44908E+03  6.88334E+03  1.24385E+03  1.01665E+04 -2.23149E+03
  1.76236E+04  2.36360E+03  1.95685E+04  1.54693E+04  1.19997E+04  3.19223E+04 -3.31388E+03  3.49338E+04
 -2.11226E+04  2.84980E+04 -3.18313E+04  1.42120E+04 -3.37157E+04 -1.86938E+03 -2.77456E+04 -1.92375E+04
 -1.28073E+04 -2.80229E+04  9.95120E+03 -2.39926E+04  2.06486E+04 -1.29448E+04  1.98825E+04  5.91450E+03
  6.32609E+03  1.40690E+04 -9.09628E+03  1.22324E+04 -1.46595E+04  1.61088E+03 -1.13321E+04 -9.97683E+03
 -1.04579E+03 -1.47740E+04  7.72792E+03 -1.16870E+04  9.35346E+03 -9.79764E+02  2.66463E+03  6.16753E+03
 -6.58718E+03  1.84960E+03 -6.15294E+03 -6.40322E+03 -5.25750E+02 -1.41851E+04  8.93349E+03 -1.51999E+04
  1.75729E+04 -7.71734E+03  1.80170E+04  3.14288E+03  1.59883E+04  1.42599E+04  6.92948E+03  2.05780E+04
 -4.04922E+03  2.32428E+04 -1.36203E+04  1.45585E+04 -1.58920E+04  3.43957E+03 -9.59322E+03 -4.13054E+03
 -4.74186E+03 -4.40771E+03 -8.57730E+02  4.81158E+02 -2.25623E+03  3.31438E+03 -4.50035E+03  5.78972E+03
 -1.11972E+04 -3.73656E+02 -1.15206E+04 -9.25668E+03 -6.63958E+03 -1.39359E+04  4.48331E+03 -1.04462E+04
  9.98713E+03 -5.01602E+03  7.01237E+03  3.41687E+03  1.07208E+03  5.65789E+03 -5.51329E+03 -6.34749E+02
 -5.54538E+03 -5.34515E+03 -1.40482E+03 -9.67623E+03  5.32725E+03 -1.02740E+04  1.33332E+04 -5.68150E+03
  1.52637E+04  2.05533E+03  1.21061E+04  9.33019E+03  3.38824E+03  1.15572E+04 -7.46476E+03  1.12582E+04
 -1.04838E+04  3.27957E+03 -5.48066E+03 -3.28374E+03  1.03789E+03 -3.65315E+03  6.71757E+03 -2.16805E+03
  5.33815E+03  6.16598E+03  1.77895E+03  8.79382E+03 -6.79545E+03  9.28764E+03 -1.05037E+04  2.08386E+03
 -7.76628E+03 -6.30195E+03 -8.39057E+01 -9.50522E+03  5.66871E+03 -3.81756E+03  5.76345E+03  2.10639E+03
  1.47967E+03  6.62830E+03 -5.71759E+03  6.62939E+03 -9.49728E+03  3.73028E+03 -7.71156E+03 -2.40149E+03
 -5.19924E+03 -1.01666E+04  3.03518E+03 -1.21974E+04  1.11142E+04 -6.83626E+03  1.09892E+04  2.29755E+03
  7.58476E+03  8.51653E+03 -3.62729E+02  1.00652E+04 -7.11867E+03  6.63557E+03 -7.98054E+03 -5.59472E+02
 -8.04403E+03 -7.08916E+03 -1.31208E+03 -7.37425E+03  5.10207E+03 -7.56128E+03  4.37246E+03 -2.82859E+03
  3.40314E+03  7.44920E+02  5.71415E+01  1.57368E+03 -1.32006E+03 -1.91434E+03  1.25912E+03 -3.81843E+03
  7.11953E+03 -2.21955E+03  9.11778E+03  1.00839E+03  9.84886E+03  5.86961E+03  6.50592E+03  1.14677E+04
 -3.35372E+03  1.45423E+04 -1.18798E+04  1.01225E+04 -1.69790E+04  2.58505E+03 -1.26169E+04 -5.53394E+03
 -6.55996E+03 -1.01000E+04  5.03673E+02 -8.84518E+03  4.01908E+03 -4.38449E+03  2.81645E+03 -3.05691E+03
  2.25619E+03 -1.83377E+03  2.38482E+03 -2.86295E+03  4.28639E+03 -2.97114E+03  4.73123E+03  6.01200E+02
  6.59792E+03  1.02152E+03  2.37581E+03  5.24796E+03 -1.18078E+03  4.62303E+03 -7.52654E+03  3.55401E+03
 -7.99057E+03  2.00435E+02 -4.42666E+03 -5.65486E+03  8.09658E+02 -8.16268E+03  4.01945E+03 -9.14079E+03
  8.60976E+03 -4.43095E+03  1.10168E+04  4.32692E+01  8.21829E+03  8.69359E+03  1.59834E+03  1.00597E+04
 -3.55496E+03  8.83413E+03 -5.65320E+03  2.27704E+03 -4.65848E+03 -1.55844E+03 -1.58045E+03 -2.06487E+03
  6.99596E+02 -1.62843E+02 -9.61774E+02  2.97423E+03 -4.18638E+03  2.74404E+03 -4.59134E+03  1.85708E+01
 -3.20823E+03 -6.18048E+03  6.22719E+02 -8.97437E+03  4.94893E+03 -6.48313E+03  6.35687E+03 -1.41326E+03
  6.92646E+03  4.06127E+03  5.10645E+03  6.11922E+03 -1.81988E+03  7.97975E+03 -5.57333E+03  4.86447E+03
 -7.33414E+03 -3.92200E+02 -5.76288E+03 -4.86976E+03  5.10904E+02 -6.69142E+03  2.61878E+03 -6.14077E+03
  4.26753E+03 -8.54478E+02  3.63103E+03  1.17774E+03  9.97765E+02  2.69760E+03  9.95928E+02  2.16604E+02
  1.77212E+03  5.64084E+02  2.23106E+03  6.47592E+02  2.12018E+03  3.65824E+03  1.67178E+03  4.00928E+03
 -1.10915E+03  6.34373E+03 -4.92241E+03  6.45176E+03 -6.75302E+03  2.10728E+03 -8.99817E+03 -3.48560E+03
 -3.12250E+03 -6.98820E+03  1.58143E+03 -9.97873E+03  4.04564E+03 -3.74934E+03  5.98565E+03 -1.60315E+03
  4.44830E+03  3.91078E+03  1.69924E+03  3.96411E+03 -3.36308E+03  2.30818E+03 -2.56517E+03  7.52949E+01
 -1.79518E+03 -2.83872E+03  1.66597E+03 -2.60899E+03  2.63258E+03 -6.66744E+02  2.75448E+03  2.62362E+02
  2.39257E+03  1.93806E+03  1.97116E+03 -6.02470E+02 -1.44844E+03  1.58742E+03  1.77543E+03 -2.89935E+02
  6.08590E+02 -1.86694E+03  2.06795E+03  4.70602E+02  2.24500E+03  2.91212E+03 -4.79037E+02  6.09984E+03
 -3.83821E+03  2.55055E+03 -3.57367E+03  1.18756E+03 -3.25329E+03 -5.24403E+02 -5.72426E+02 -3.20755E+03
  5.94997E+02 -3.72033E+03  1.97694E+03  7.56390E+00  1.13248E+03  1.30022E+03 -1.11512E+03  1.55378E+03
 -2.15356E+03  2.37742E+03 -2.81205E+03 -2.29987E+03 -2.63485E+03 -3.02790E+03  6.31729E+02 -2.73202E+03
  1.52803E+03 -3.24124E+03  2.21562E+03  5.40674E+02  2.58240E+03  5.33543E+02  2.82314E+02  3.19278E+03
 -3.20568E+03 -1.15296E+02 -2.26196E+03 -1.93355E+03  9.41754E+02 -3.03820E+03  4.14265E+03 -3.05273E+03
  4.73190E+03 -5.52254E+01  5.05280E+03  2.52230E+03  1.12025E+03  4.17404E+03 -1.54189E+03  4.44953E+03
 -2.20674E+03  2.03673E+03 -2.74701E+03 -1.56004E+03 -4.68765E+02 -2.70179E+03 -8.64605E+01 -1.59053E+03
  1.95671E+03 -1.75647E+03  1.25666E+03  8.77078E+02  7.70019E+02  2.43927E+03 -3.38888E+02  1.62704E+03
 -1.13918E+03  1.11264E+03 -1.28506E+03  9.04930E+02  1.48957E+02  9.26081E+02 -1.31552E+03  1.19349E+03
 -1.77479E+03  2.21456E+02 -3.50443E+03  7.09984E+02 -3.97167E+03  5.98344E+01 -5.49240E+03 -2.96683E+03
 -2.63553E+03 -5.90599E+03  1.39024E+03 -6.64272E+03  3.32112E+03 -5.02949E+03  5.78751E+03 -1.88161E+03
  6.15731E+03  2.13892E+03  3.01012E+03  3.27077E+03  6.54466E+01  5.25217E+03 -1.79211E+03  3.29342E+03
 -3.54058E+03  6.32748E+02 -7.45039E+02 -5.68221E+01 -3.67085E+02 -1.39888E+03  1.89878E+02  4.54117E+01
 -6.51068E+02  4.02074E+02 -8.15339E+02 -5.55711E+02  3.98889E+02 -1.40536E+03  3.49985E+01 -1.07410E+03
  3.05629E+03 -7.36863E+02  1.40275E+03  3.13875E+02  3.93385E+03  2.99054E+03  9.51018E+02  3.76818E+03
 -1.95380E+03  6.43862E+03 -3.66225E+03  2.94881E+03 -5.42588E+03 -2.01891E+03 -2.75558E+03 -4.27616E+03
 -7.34816E+02 -4.54392E+03  7.68745E+02 -1.83633E+03  2.97995E+03 -1.37950E+03  4.13098E+03  4.90659E+02
  1.68910E+03  1.97940E+03  1.96937E+02  8.28488E+02  4.55701E-01 -6.20826E+02 -3.60552E+02 -9.03635E+02
  5.16350E+02  5.21454E+01  2.12849E+03  1.71656E+03 -4.12200E+02  1.70835E+03  3.26728E+02  7.08374E+02
 -1.77185E+03  2.36340E+03 -2.21925E+03  1.09625E+02 -2.80712E+03 -1.01247E+03  1.38646E+02 -4.24716E+03
  1.82877E+03 -1.50472E+03  2.30162E+03 -2.96252E+02  2.99867E+03 -8.62139E+01  1.79473E+03  2.24006E+03
  2.89864E+01  1.78266E+03 -1.05046E+03  2.70910E+03 -9.56666E+02  1.24247E+03 -1.16359E+03  7.62885E+02
 -5.17493E+02  8.97689E+01 -1.56611E+03 -8.86116E+01 -7.00892E+02  1.17729E+03 -1.59443E+03 -6.95059E+02
 -1.65089E+03 -2.72451E+02  1.04347E+02 -1.78784E+03  2.65587E+03 -2.94597E+03  1.73120E+03 -6.50558E+02
  2.65847E+03  2.23245E+02  7.99331E+02  1.97770E+03  8.41281E+02  2.59448E+03 -1.87345E+03  1.47979E+03
