 $NMID ID='MM_0lb_SNR200_12hz_g45_50.RAW', FMTDAT='(8E13.5)'
 TRAMP=1., VOLUME=1. $END
  3.08994E+05  7.33513E+02  3.37431E+05  2.51112E+05  8.45625E+04  3.38230E+05 -1.34056E+05  2.51365E+05
 -1.90066E+05  8.48144E+04 -1.10734E+05 -3.34435E+04  6.25156E+02 -5.11271E+04  5.29153E+04 -4.81348E+02
  3.48235E+04  5.40049E+04 -1.75567E+04  7.41238E+04 -5.98049E+04  6.29819E+04 -8.60963E+04  3.30510E+04
 -8.16959E+04 -1.12151E+04 -5.83278E+04 -5.22271E+04 -1.48279E+04 -6.92488E+04  2.69462E+04 -4.65161E+04
  3.94691E+04  3.83216E+03  1.62902E+04  4.72703E+04 -3.36262E+04  4.79143E+04 -6.85063E+04 -7.61265E+02
 -5.36426E+04 -5.74073E+04 -7.32160E+03 -7.66808E+04  3.39876E+04 -5.64887E+04  4.75674E+04 -1.64406E+04
  4.40985E+04  1.17587E+04  3.24881E+04  2.59281E+04  1.51889E+04  2.95761E+04 -5.61905E+03  2.74083E+04
 -2.13741E+04  1.29381E+04 -1.91788E+04 -6.00173E+03  5.25368E+03 -7.00657E+03  2.10530E+04  1.18718E+04
  8.43401E+03  3.63045E+04 -3.31643E+04  3.52889E+04 -6.38231E+04  1.52085E+03 -5.66787E+04 -4.29246E+04
 -1.28417E+04 -6.36413E+04  3.99895E+04 -4.55958E+04  5.89601E+04 -2.87833E+03  3.57375E+04  3.33458E+04
 -5.05987E+03  3.64932E+04 -2.99686E+04  1.70179E+04 -3.19739E+04 -5.92452E+03 -1.87206E+04 -1.04086E+04
 -9.16590E+03 -1.46266E+04  2.10246E+02 -1.88849E+04  8.37799E+03 -2.27988E+04  1.49596E+04 -1.28885E+04
  1.00971E+04  6.14260E+03 -9.74141E+03  1.37857E+04 -2.08419E+04 -5.88573E+03 -8.83220E+03 -3.42887E+04
  2.51673E+04 -4.51344E+04  4.91227E+04 -2.01502E+04  4.61779E+04  2.02381E+04  1.49734E+04  4.29839E+04
 -1.67959E+04  3.52893E+04 -2.49366E+04  2.30611E+03 -8.55027E+03 -2.76513E+04  2.12503E+04 -3.46741E+04
  4.23380E+04 -9.53425E+03  3.70284E+04  2.32727E+04  1.92480E+04  4.86637E+04 -6.95037E+03  5.21161E+04
 -3.25761E+04  3.49018E+04 -4.35447E+04  1.00575E+04 -4.35840E+04 -1.85851E+04 -2.41744E+04 -3.91052E+04
  7.75626E+03 -4.03084E+04  3.28555E+04 -1.56560E+04  2.88810E+04  1.11396E+04  3.96855E+03  2.02354E+04
 -1.29187E+04  7.68341E+03 -1.03065E+04 -5.84191E+03  5.77154E+03 -1.15345E+04  1.67894E+04  6.31227E+03
  1.45208E+04  2.11925E+04 -5.37309E+03  2.60961E+04 -2.35136E+04  1.27456E+04 -2.99045E+04 -5.92956E+03
 -2.18518E+04 -1.73590E+04 -9.20405E+03 -2.18116E+04  4.00294E+03 -2.17068E+04  1.69464E+04 -2.03115E+04
  2.77719E+04 -1.39488E+04  3.42688E+04  2.69610E+03  2.52347E+04  2.14175E+04  3.19893E+03  3.66656E+04
 -1.79918E+04  3.18202E+04 -2.86615E+04  1.08923E+04 -2.08988E+04 -1.00905E+04 -4.52999E+03 -1.29541E+04
  2.76932E+03 -2.01438E+03 -5.02004E+03  7.70705E+03 -1.85815E+04  6.46729E+03 -1.69662E+04 -7.94793E+03
 -1.09151E+04 -2.01538E+04  4.62527E+03 -2.36993E+04  1.60925E+04 -1.79140E+04  1.86082E+04 -2.00312E+03
  1.17064E+04  1.33916E+04 -2.22960E+03  2.06023E+04 -1.40769E+04  1.28451E+04 -2.09796E+04 -3.03767E+03
 -1.49194E+04 -1.88506E+04 -1.21484E+03 -2.41965E+04  1.10584E+04 -2.10199E+04  1.98732E+04 -1.03636E+04
  2.01576E+04  4.49681E+02  1.43778E+04  4.98089E+03  8.28191E+03  2.64525E+02  9.01199E+03 -1.95584E+03
  1.82633E+04  3.38790E+03  2.05465E+04  1.52195E+04  1.45444E+04  3.18868E+04 -2.03325E+03  3.59427E+04
 -2.16092E+04  3.02068E+04 -3.56865E+04  1.46227E+04 -3.65036E+04 -2.91556E+03 -3.11986E+04 -2.05715E+04
 -1.34205E+04 -3.02984E+04  1.15564E+04 -2.72886E+04  2.36515E+04 -1.34052E+04  1.96018E+04  6.15417E+03
  7.36511E+03  1.53829E+04 -1.03630E+04  1.26340E+04 -1.78963E+04  2.49961E+03 -1.26741E+04 -1.10358E+04
 -1.18560E+01 -1.51063E+04  8.63582E+03 -1.30194E+04  1.23480E+04 -7.29220E+02  3.51743E+03  7.50549E+03
 -8.58657E+03  3.87117E+03 -7.30483E+03 -6.59187E+03 -3.93985E+02 -1.57785E+04  1.14690E+04 -1.47115E+04
  1.92738E+04 -9.32644E+03  2.04671E+04  2.81579E+03  1.55807E+04  1.46097E+04  9.16368E+03  2.36636E+04
 -5.21061E+03  2.54019E+04 -1.57623E+04  1.48242E+04 -1.88888E+04  3.19141E+03 -1.16794E+04 -4.55877E+03
 -6.82284E+03 -4.85343E+03  5.35846E+02  7.75246E+02 -3.76863E+03  3.79883E+03 -5.30348E+03  4.58172E+03
 -1.22609E+04 -1.30529E+03 -1.28055E+04 -9.15720E+03 -4.17293E+03 -1.57574E+04  4.49024E+03 -1.31488E+04
  1.04015E+04 -5.04434E+03  7.08086E+03  4.26044E+03  2.62971E+02  5.42822E+03 -5.60111E+03 -6.03675E+02
 -4.29350E+03 -7.23305E+03  8.93206E+02 -1.11452E+04  7.32277E+03 -1.29471E+04  1.44160E+04 -7.39750E+03
  1.93550E+04  1.77984E+03  1.35802E+04  1.13288E+04  2.17176E+03  1.42543E+04 -7.67631E+03  1.33992E+04
 -9.86790E+03  2.26668E+03 -4.82490E+03 -2.97397E+03  2.54245E+03 -2.50873E+03  7.06131E+03 -2.43360E+02
  5.23381E+03  6.05117E+03  2.03882E+03  7.94136E+03 -8.29550E+03  9.94872E+03 -1.28343E+04  1.42068E+03
 -8.44755E+03 -6.87065E+03 -4.41972E+02 -1.09588E+04  7.16004E+03 -5.39302E+03  7.62278E+03  1.66531E+03
  2.48276E+03  6.81571E+03 -6.74958E+03  7.32656E+03 -1.03980E+04  3.62031E+03 -1.01692E+04 -3.62096E+03
 -6.37466E+03 -1.17116E+04  8.92410E+02 -1.41051E+04  1.03673E+04 -8.05110E+03  1.17410E+04  2.99784E+03
  5.93047E+03  9.54259E+03 -5.87422E+02  1.24512E+04 -9.77056E+03  6.12456E+03 -7.61489E+03 -2.40063E+03
 -9.26808E+03 -8.15871E+03 -2.22250E+03 -8.24529E+03  4.51322E+03 -6.66219E+03  6.15790E+03 -4.86521E+03
  3.78103E+03  1.33017E+03  5.15805E+01  2.63641E+03 -3.83442E+02 -2.87298E+03  2.42806E+03 -5.07666E+03
  8.65239E+03 -1.74816E+03  1.15927E+04  2.23930E+02  1.29736E+04  7.33416E+03  8.37249E+03  1.44500E+04
 -2.89518E+03  1.57622E+04 -1.45385E+04  1.15936E+04 -1.86594E+04  1.54658E+03 -1.54200E+04 -5.57233E+03
 -7.97769E+03 -1.13753E+04 -7.83063E+02 -9.78324E+03  2.48852E+03 -4.58426E+03  3.98471E+03 -2.86549E+03
  2.24645E+03 -1.03936E+03  2.82672E+03 -3.86660E+03  4.70665E+03 -2.89793E+03  5.24711E+03  4.25709E+02
  7.58020E+03  2.11779E+03  4.59950E+03  7.21153E+03 -2.52969E+03  8.27110E+03 -8.29758E+03  6.24232E+03
 -9.98542E+03 -2.61341E+03 -6.50708E+03 -6.71548E+03 -1.07023E+03 -1.26728E+04  5.71933E+03 -1.16239E+04
  1.09797E+04 -6.43940E+03  1.44400E+04  1.01605E+03  1.00859E+04  9.08245E+03  1.46599E+03  1.15526E+04
 -4.05729E+03  9.59787E+03 -6.98404E+03  3.51830E+03 -3.74899E+03 -1.88586E+03 -2.65670E+03 -1.09761E+03
 -1.94160E+00 -2.43218E+01 -1.38944E+03  2.73173E+03 -4.76485E+03  1.51568E+03 -7.97519E+03 -1.29365E+03
 -5.53999E+03 -8.27375E+03  5.60548E+02 -8.45914E+03  6.44703E+03 -9.24663E+03  8.99170E+03 -3.56275E+03
  9.98518E+03  5.02273E+03  3.42829E+03  9.82390E+03 -3.63364E+03  1.06224E+04 -7.51648E+03  6.99009E+03
 -9.57618E+03  2.02512E+03 -8.53472E+03 -4.62011E+03 -2.29479E+03 -7.81787E+03  2.95276E+03 -6.13941E+03
  7.87145E+03 -1.04690E+03  5.00483E+03  1.50908E+03  1.44455E+03  3.58003E+03  1.28953E+03  2.33313E+03
  1.72592E+03 -1.15838E+02  2.84297E+03  2.15409E+03  2.40600E+03  4.97352E+03  1.86176E+03  4.32944E+03
 -1.88263E+03  8.37673E+03 -6.94289E+03  7.85011E+03 -8.58538E+03  3.20408E+03 -1.03021E+04 -2.89406E+03
 -3.87877E+03 -9.33847E+03  1.07004E+03 -1.16398E+04  5.63979E+03 -5.47988E+03  6.30942E+03 -1.75146E+03
  6.47058E+03  4.17281E+03  9.53184E+02  5.83513E+03 -1.96032E+03  3.62200E+03 -4.56371E+03 -1.40469E+03
 -1.84397E+03 -4.29494E+03  3.09420E+03 -4.12173E+03  4.78309E+03 -2.58940E+03  3.53273E+03  1.24517E+03
  1.67468E+03  1.44476E+03  1.30276E+03  1.07239E+03 -8.38229E+02  1.43764E+03  5.14087E+01 -1.43221E+03
  1.79226E+03 -1.49676E+03  4.71891E+03  1.88894E+03  1.76337E+03  4.43281E+03 -1.22591E+03  8.28702E+03
 -5.32063E+03  3.31652E+03 -5.64926E+03  1.36678E+03 -5.36892E+03 -3.10767E+03 -2.28253E+03 -3.02506E+03
  1.40830E+03 -3.96780E+03  2.49246E+03 -3.08428E+03  1.38826E+03  3.00505E+03 -9.23541E+02  3.16215E+03
 -3.44245E+03  2.03575E+03 -3.40994E+03 -2.45783E+03 -3.25027E+03 -3.94576E+03  1.20184E+03 -4.36213E+03
  2.74412E+03 -3.30876E+03  3.13403E+03 -6.64153E+02  2.73855E+03 -7.72810E+02 -4.03959E+02  1.86409E+03
 -2.94783E+03  1.76111E+03 -3.28559E+03 -1.84703E+03  9.80739E+02 -4.98323E+03  4.54922E+03 -2.26562E+03
  6.54974E+03 -1.38096E+02  5.44871E+03  3.38389E+03  1.95716E+03  5.80884E+03 -1.64087E+03  6.53038E+03
 -5.38710E+03  2.74785E+03 -5.05014E+03 -9.19515E+02 -3.16342E+03 -2.93328E+03  5.33336E+02 -3.18059E+03
  5.29233E+03 -2.22690E+03  2.58505E+03  1.35801E+03  2.39713E+02  3.15361E+03 -8.12304E+02  5.02692E+03
 -2.81520E+03  3.50647E+03 -1.59488E+03  4.59401E+02  2.47118E+01  1.82140E+03 -1.63357E+03  2.46599E+03
 -1.56165E+03  3.05353E+03 -3.49039E+03  1.15930E+03 -7.24529E+03  9.62451E+02 -6.96042E+03 -4.78413E+03
 -3.40448E+03 -8.52105E+03  2.09468E+03 -9.62826E+03  6.59292E+03 -6.52578E+03  8.74606E+03 -3.37835E+03
  6.63442E+03 -7.66142E+01  4.96644E+03  5.52945E+03  1.17923E+03  5.59257E+03 -2.55335E+03  5.87974E+03
 -4.25076E+03  1.67215E+03 -2.01449E+03 -1.78054E+02  5.19514E+01 -4.62333E+02 -1.00192E+03 -6.14983E+01
 -1.30947E+03  5.54943E+02 -4.00020E+02  8.80726E+02 -8.81018E+02 -2.17414E+03  9.72690E+02 -3.89700E+03
  1.88520E+03 -2.63377E+03  2.35932E+03  1.15471E+03  4.07277E+03  3.50219E+03  4.46145E+02  7.19662E+03
 -2.51042E+03  6.41024E+03 -7.50145E+03  3.54410E+03 -8.02754E+03 -5.35541E+02 -4.42142E+03 -4.69033E+03
 -1.46234E+03 -4.32174E+03  2.02109E+03 -5.52688E+03  3.35607E+03 -2.77427E+03  3.54166E+03  1.06438E+03
  3.06754E+03  1.79230E+03 -3.14468E+01  2.08516E+03 -2.76285E+03  6.09478E+02  8.98763E+02 -1.90728E+03
  2.08104E+03  1.19507E+02  3.24168E+03  1.38880E+03  3.21148E+03  2.40846E+03  6.30081E+01  3.70675E+03
 -3.73415E+03  4.24265E+03 -4.31855E+03 -1.11329E+02 -3.39527E+03 -3.17783E+03  7.32991E+02 -5.36406E+03
  2.83224E+03 -3.92928E+03  3.37507E+03 -6.57398E+02  4.32668E+03  1.34678E+03  3.60858E+03  3.30303E+03
  1.33940E+03  4.11535E+03 -2.26147E+03  3.55447E+03 -2.99752E+03  1.81312E+03 -1.05805E+03 -1.85498E+02
 -1.01393E+03  7.18506E+02 -2.31400E+03  2.37689E+02 -4.00756E+03  5.46869E+02 -2.97928E+03 -3.68288E+02
 -2.44259E+03 -1.53411E+03 -9.67117E+02 -3.58875E+03  2.44912E+03 -4.79184E+03  4.22769E+03 -2.04991E+03
  2.54655E+03 -1.91416E+02  1.34903E+03  1.98648E+03  7.49361E+02  3.16177E+03 -2.37655E+03  2.19924E+03
