 $NMID ID='MM_0lb_SNR200_7hz_g50_90.RAW', FMTDAT='(8E13.5)'
 TRAMP=1., VOLUME=1. $END
  3.10044E+05 -2.25016E+03  3.37952E+05  2.50734E+05  8.54727E+04  3.37833E+05 -1.32589E+05  2.52053E+05
 -1.92189E+05  8.25377E+04 -1.12151E+05 -3.17343E+04  1.25674E+03 -5.24470E+04  5.36952E+04  1.25833E+03
  3.53417E+04  5.41553E+04 -1.64652E+04  7.69007E+04 -6.00651E+04  6.44733E+04 -8.72704E+04  3.20323E+04
 -8.13328E+04 -1.20686E+04 -5.92392E+04 -5.32015E+04 -1.42835E+04 -7.04977E+04  2.90599E+04 -4.69415E+04
  3.99870E+04  3.37728E+03  1.72803E+04  5.01795E+04 -3.57095E+04  4.88287E+04 -6.59308E+04  2.79465E+02
 -5.55625E+04 -5.75162E+04 -7.89525E+03 -7.80631E+04  3.55415E+04 -5.62996E+04  4.92164E+04 -1.95695E+04
  4.54402E+04  1.08393E+04  3.29925E+04  2.79842E+04  1.53412E+04  3.02250E+04 -7.40505E+03  3.05939E+04
 -2.40934E+04  1.30478E+04 -1.97368E+04 -5.86079E+03  6.09980E+03 -8.09619E+03  2.43582E+04  1.54075E+04
  7.58559E+03  3.87816E+04 -3.50438E+04  3.72803E+04 -6.69466E+04  2.12816E+03 -5.88426E+04 -4.50743E+04
 -1.24200E+04 -6.69373E+04  4.23186E+04 -4.59882E+04  6.34557E+04 -6.59898E+01  3.70161E+04  3.46542E+04
 -5.56644E+03  4.10280E+04 -3.18543E+04  2.19400E+04 -3.68426E+04 -3.19576E+03 -1.95653E+04 -1.33697E+04
 -1.07663E+04 -1.66674E+04  6.14343E+02 -1.82907E+04  7.77305E+03 -2.30847E+04  1.58954E+04 -1.35985E+04
  9.56326E+03  6.36393E+03 -1.44877E+04  1.24892E+04 -2.45241E+04 -9.45887E+03 -9.70145E+03 -3.95857E+04
  2.52426E+04 -4.92923E+04  5.33423E+04 -2.17109E+04  5.07993E+04  2.25307E+04  1.75780E+04  4.83320E+04
 -1.69252E+04  3.61233E+04 -2.88495E+04  2.54637E+03 -1.12102E+04 -3.07786E+04  2.26246E+04 -3.67856E+04
  4.70971E+04 -1.16849E+04  4.00550E+04  2.38325E+04  2.21883E+04  5.35493E+04 -6.97063E+03  5.84702E+04
 -3.70754E+04  3.87142E+04 -5.09231E+04  1.08867E+04 -4.94368E+04 -1.96157E+04 -2.64088E+04 -4.31698E+04
  8.71898E+03 -4.28032E+04  3.64658E+04 -1.97730E+04  3.36544E+04  1.06943E+04  5.14168E+03  2.03237E+04
 -1.18100E+04  1.08542E+04 -1.23098E+04 -4.03570E+03  4.72571E+03 -1.13800E+04  1.93208E+04  5.06167E+03
  1.57737E+04  2.34780E+04 -4.37466E+03  2.73218E+04 -2.23051E+04  1.41105E+04 -3.15436E+04 -1.83076E+02
 -2.66086E+04 -1.87244E+04 -1.30121E+04 -2.88705E+04  4.18395E+03 -2.70747E+04  2.27992E+04 -2.44763E+04
  3.43916E+04 -1.61426E+04  4.15382E+04  5.86138E+03  2.87649E+04  2.73121E+04  6.62525E+03  4.25994E+04
 -2.25139E+04  3.50812E+04 -3.04426E+04  1.20363E+04 -2.01026E+04 -1.06239E+04 -6.37632E+03 -1.05570E+04
  1.23577E+03 -2.22662E+03 -9.19202E+03  6.78702E+03 -2.29287E+04  5.06181E+03 -2.08694E+04 -9.35225E+03
 -1.20409E+04 -2.50240E+04  7.60238E+03 -3.06557E+04  1.99263E+04 -2.28451E+04  2.54584E+04 -7.70955E+02
  1.59150E+04  1.64237E+04 -2.05359E+03  2.46232E+04 -1.91464E+04  1.41485E+04 -2.47261E+04 -3.83422E+03
 -1.92854E+04 -2.29878E+04 -1.62379E+03 -3.05104E+04  1.30064E+04 -2.47837E+04  2.58710E+04 -1.33265E+04
  2.43845E+04 -1.20648E+03  1.79058E+04  6.85016E+03  8.85838E+03  1.25497E+03  1.42600E+04 -2.21720E+03
  2.43075E+04  2.13479E+03  2.86176E+04  1.98705E+04  2.03450E+04  3.94236E+04 -2.55412E+03  4.77977E+04
 -2.69523E+04  4.02305E+04 -4.50672E+04  2.21781E+04 -5.06374E+04 -3.08019E+03 -3.94641E+04 -3.00589E+04
 -1.39093E+04 -4.24536E+04  1.45301E+04 -3.59485E+04  2.98375E+04 -1.83078E+04  2.80310E+04  8.83081E+03
  8.13531E+03  2.11704E+04 -1.28215E+04  1.88063E+04 -2.10382E+04  2.29673E+03 -1.79146E+04 -1.37676E+04
 -1.35657E+03 -2.05138E+04  1.00732E+04 -1.57383E+04  1.57853E+04 -1.58856E+03  4.71819E+03  9.62402E+03
 -1.10145E+04  4.40709E+03 -1.06371E+04 -8.09032E+03 -3.02552E+03 -1.97431E+04  1.44047E+04 -2.22703E+04
  2.62967E+04 -1.26687E+04  3.00568E+04  1.80930E+03  2.67771E+04  2.12676E+04  1.31546E+04  3.25313E+04
 -7.88488E+03  3.51454E+04 -2.46084E+04  2.05078E+04 -2.45051E+04  2.32010E+03 -1.82548E+04 -6.74800E+03
 -6.76172E+03 -7.58200E+03 -8.53431E+02  1.58118E+03 -5.37992E+02  3.76899E+03 -7.49137E+03  5.40883E+03
 -1.64163E+04 -2.57859E+03 -1.69198E+04 -1.37877E+04 -5.63905E+03 -2.32415E+04  6.99590E+03 -1.91107E+04
  1.42724E+04 -7.13544E+03  8.99969E+03  4.98005E+03 -1.49728E+03  8.29733E+03 -9.08397E+03 -4.47655E+02
 -8.95875E+03 -1.13075E+04  1.15356E+03 -1.71023E+04  1.03449E+04 -2.05597E+04  2.48947E+04 -1.01015E+04
  2.71609E+04  1.99284E+03  1.92898E+04  1.84602E+04  4.28942E+03  2.35338E+04 -1.07611E+04  1.77064E+04
 -1.33709E+04  4.24428E+03 -7.44022E+03 -5.14890E+03  1.84616E+03 -5.01630E+03  7.94539E+03 -8.87493E+00
  9.16036E+03  8.62718E+03  8.80321E+02  1.30598E+04 -1.14670E+04  1.36471E+04 -1.66026E+04  1.74029E+03
 -1.18696E+04 -1.02013E+04  3.78918E+02 -1.51278E+04  1.09568E+04 -7.32101E+03  1.18209E+04  4.86974E+03
  2.60780E+03  1.19381E+04 -9.88268E+03  1.39652E+04 -1.65852E+04  6.17982E+03 -1.83351E+04 -6.20977E+03
 -1.04049E+04 -1.77608E+04  5.19034E+03 -2.23166E+04  1.94628E+04 -1.47954E+04  2.01455E+04  1.82833E+03
  1.33241E+04  1.55495E+04 -2.58821E+03  1.99720E+04 -1.42318E+04  8.89599E+03 -1.42292E+04 -1.69850E+03
 -1.31717E+04 -1.32150E+04 -3.07745E+03 -1.29419E+04  7.16896E+03 -1.08819E+04  8.87502E+03 -4.24466E+03
  5.41725E+03  4.26706E+03 -1.21857E+03  2.75583E+03 -2.17529E+03 -4.96812E+03  4.07499E+03 -1.18340E+04
  1.61788E+04 -7.40651E+03  1.84557E+04  1.53557E+03  1.75428E+04  1.43342E+04  1.35452E+04  2.60304E+04
 -6.32733E+03  2.82607E+04 -2.50862E+04  2.24076E+04 -3.20913E+04  4.30182E+03 -2.45763E+04 -1.31194E+04
 -1.23580E+04 -2.08663E+04 -1.84842E+03 -1.90310E+04  6.52394E+03 -1.01507E+04  7.45519E+03 -6.03822E+03
  3.75292E+03 -2.50086E+03  5.57181E+03 -6.12060E+03  6.84760E+03 -4.35838E+03  9.66581E+03 -2.89665E+03
  1.13987E+04  3.24598E+03  5.60189E+03  1.07125E+04 -2.62139E+03  1.53330E+04 -1.41102E+04  1.07396E+04
 -1.81515E+04 -1.88487E+03 -1.13520E+04 -1.24295E+04 -4.18919E+02 -1.98192E+04  1.25647E+04 -1.77540E+04
  2.15842E+04 -1.07123E+04  2.44772E+04  2.47403E+03  1.68595E+04  1.75733E+04  2.84159E+03  2.30645E+04
 -9.51810E+03  2.05382E+04 -1.30720E+04  5.21670E+03 -7.06764E+03 -2.16933E+03 -3.62374E+03 -4.35939E+03
 -3.92509E+03  2.54028E+03 -4.28832E+03  5.51270E+03 -7.73463E+03  3.93851E+03 -1.24073E+04 -1.63420E+03
 -9.72247E+03 -1.18618E+04  2.10284E+02 -1.98907E+04  1.19077E+04 -1.79762E+04  1.74816E+04 -4.89194E+03
  1.78678E+04  8.99598E+03  8.32918E+03  1.74611E+04 -3.94502E+03  1.90347E+04 -1.25075E+04  1.18518E+04
 -1.81295E+04 -3.16829E+02 -1.40097E+04 -1.19205E+04 -1.75774E+03 -1.66179E+04  9.88301E+03 -1.14440E+04
  1.27488E+04 -3.97475E+03  8.53846E+03  2.04427E+03 -1.03109E+03  5.52998E+03 -1.56236E+01  3.65654E+03
  3.90662E+03  1.77428E+03  6.73821E+03  1.44865E+03  4.72946E+03  6.66831E+03  4.04644E+03  1.03031E+04
 -3.24697E+03  1.64440E+04 -1.35826E+04  1.58850E+04 -1.94556E+04  4.00197E+03 -1.88424E+04 -8.96499E+03
 -9.44502E+03 -1.71616E+04  1.76075E+03 -2.15608E+04  1.26716E+04 -1.18990E+04  1.84902E+04 -3.97979E+03
  1.15725E+04  6.10247E+03  2.93262E+03  1.09598E+04 -4.89204E+03  6.63838E+03 -8.30916E+03 -2.77452E+03
 -3.31786E+03 -8.76161E+03  4.83327E+03 -9.00260E+03  8.96734E+03 -3.39203E+03  8.60466E+03  2.38610E+03
  6.32145E+03  3.29491E+03  2.75099E+03  3.75610E+03 -1.33421E+03  2.25663E+03  2.62753E+03 -2.41679E+02
  2.81564E+03 -1.13870E+03  8.19651E+03  6.46165E+03  5.53793E+03  9.90560E+03 -1.40039E+03  1.30877E+04
 -9.65654E+03  9.62258E+03 -1.38905E+04  1.98318E+03 -1.17527E+04 -5.21896E+03 -6.95762E+03 -8.65122E+03
  8.67502E+02 -8.47194E+03  4.09143E+03 -3.47581E+03  3.65065E+03  3.37605E+03 -1.40768E+03  5.53106E+03
 -8.36414E+03  5.20927E+03 -9.21178E+03 -5.83531E+03 -4.68602E+03 -1.08315E+04  4.02197E+02 -1.19201E+04
  5.03468E+03 -6.05898E+03  9.60628E+03 -6.00156E+02  7.68684E+03  4.40835E+03  2.75955E+03  6.78311E+03
 -3.75491E+03  3.88228E+03 -5.91298E+03 -4.15835E+03  1.52374E+03 -7.63712E+03  1.03068E+04 -6.59978E+03
  1.27609E+04  2.23692E+03  1.10059E+04  9.64365E+03  3.67758E+03  1.30944E+04 -5.12824E+03  1.30971E+04
 -1.21768E+04  6.73212E+03 -1.26829E+04 -8.38221E+02 -5.15936E+03 -8.19161E+03  2.46534E+03 -8.04408E+03
  8.97491E+03 -4.89583E+03  7.77749E+03  3.56407E+03  2.80191E+03  7.28468E+03  5.78470E+02  7.56595E+03
 -2.20756E+03  3.87251E+03 -3.22416E+03  2.51607E+03 -1.92870E+03  1.37612E+03 -1.06390E+03  3.74498E+03
 -4.43249E+03  4.45596E+03 -7.78460E+03  4.97298E+03 -1.09596E+04  1.23001E+03 -1.76274E+04 -1.06499E+04
 -7.71732E+03 -1.82628E+04  3.81626E+03 -2.18465E+04  1.28492E+04 -1.64824E+04  2.06907E+04 -5.29272E+03
  1.81832E+04  4.94373E+03  1.08346E+04  9.57404E+03  2.75902E+03  1.57989E+04 -5.21017E+03  1.09378E+04
 -9.26448E+03  3.74405E+03 -6.10298E+03 -1.19354E+03 -2.18793E+03 -1.40328E+03  1.71267E+03 -1.89230E+03
 -2.70782E+03  1.06328E+03 -3.23055E+03  1.30919E+03  2.52626E+02 -2.16177E+03  9.88201E+02 -5.07411E+03
  6.41162E+03 -6.18631E+03  8.23392E+03 -1.42228E+03  9.86673E+03  9.04789E+03  4.20051E+03  1.28556E+04
 -7.45835E+03  1.56902E+04 -1.46609E+04  8.86692E+03 -2.03073E+04 -1.41226E+03 -1.44849E+04 -1.06980E+04
 -4.18875E+03 -1.66301E+04  4.48366E+03 -1.31345E+04  9.73185E+03 -9.52278E+03  1.03115E+04 -1.61309E+03
  5.74661E+03  5.50941E+03 -1.29109E+03  4.23207E+03 -2.62630E+03  1.47959E+02  1.19013E+03 -3.79943E+03
  5.92525E+03 -2.50229E+03  5.41611E+03  2.30281E+03  4.85413E+03  6.11831E+03  1.18197E+03  6.75857E+03
 -7.58177E+03  6.20504E+03 -9.52969E+03  4.53244E+02 -9.48891E+03 -6.07101E+03 -1.13997E+03 -1.36411E+04
  7.83712E+03 -1.01797E+04  1.37973E+04 -3.92743E+03  1.19368E+04  2.08744E+03  7.05472E+03  6.95869E+03
  5.16298E+02  9.40946E+03 -5.07046E+03  7.19990E+03 -6.92871E+03  5.80846E+03 -5.95981E+03  3.00604E+03
 -3.17804E+03 -7.09233E+02 -2.20191E+03 -7.25178E+02 -5.36175E+03  2.34254E+03 -7.13200E+03 -9.92779E+02
 -4.77123E+03 -4.90827E+03 -6.05633E+02 -1.03308E+04  5.05245E+03 -1.00012E+04  1.15334E+04 -6.66258E+03
  1.16735E+04  3.51249E+03  4.76446E+03  6.95542E+03 -1.34699E+03  1.09979E+04 -8.22549E+03  5.95138E+03
