 $NMID ID='MM_0lb_SNR200_20hz_g40_70.RAW', FMTDAT='(8E13.5)'
 TRAMP=1., VOLUME=1. $END
  3.09645E+05  1.18315E+03  3.37160E+05  2.49950E+05  8.50409E+04  3.36059E+05 -1.32917E+05  2.50207E+05
 -1.89828E+05  8.20717E+04 -1.10851E+05 -3.25546E+04  2.13419E+03 -5.06145E+04  5.32482E+04  2.81001E+02
  3.43965E+04  5.23703E+04 -1.71964E+04  7.45019E+04 -6.03722E+04  6.16828E+04 -8.26971E+04  3.11471E+04
 -7.80973E+04 -1.07838E+04 -5.60290E+04 -4.93346E+04 -1.44490E+04 -6.80906E+04  2.72337E+04 -4.39920E+04
  3.86079E+04  3.60502E+03  1.60170E+04  4.63938E+04 -3.37891E+04  4.54963E+04 -6.40766E+04  3.53831E+02
 -5.02599E+04 -5.57227E+04 -6.34784E+03 -7.43258E+04  3.28767E+04 -5.22147E+04  4.47287E+04 -1.57792E+04
  4.06698E+04  1.20000E+04  2.99884E+04  2.31558E+04  1.55495E+04  2.74060E+04 -5.32156E+03  2.71212E+04
 -2.17401E+04  1.25092E+04 -1.92622E+04 -4.02778E+03  3.58500E+03 -8.38675E+03  2.05302E+04  1.06529E+04
  7.77715E+03  3.20130E+04 -3.02062E+04  3.36165E+04 -5.96751E+04  3.31632E+03 -5.38196E+04 -3.97778E+04
 -1.21911E+04 -6.00753E+04  3.70340E+04 -4.28382E+04  5.41207E+04 -2.48946E+03  3.09388E+04  2.97376E+04
 -6.87081E+03  3.11686E+04 -2.82202E+04  1.23962E+04 -2.64485E+04 -6.51305E+03 -1.35191E+04 -9.07415E+03
 -6.45191E+03 -9.88541E+03 -2.07910E+03 -1.52379E+04  6.42144E+03 -2.32546E+04  1.44747E+04 -1.43370E+04
  1.32153E+04  2.67210E+03 -5.56667E+03  1.36237E+04 -1.85660E+04 -1.49018E+03 -8.42672E+03 -2.79216E+04
  2.00896E+04 -3.92621E+04  4.29515E+04 -1.82302E+04  4.01186E+04  1.78915E+04  1.32668E+04  4.15457E+04
 -1.47841E+04  3.02930E+04 -2.27874E+04  3.92439E+02 -7.24329E+03 -2.50783E+04  1.98728E+04 -3.01100E+04
  3.63673E+04 -6.22471E+03  2.95375E+04  2.24147E+04  1.48219E+04  4.01995E+04 -7.98527E+03  4.16224E+04
 -2.61092E+04  2.80677E+04 -3.46705E+04  7.13697E+03 -3.65582E+04 -1.48973E+04 -2.03604E+04 -3.30370E+04
  7.02431E+03 -3.27753E+04  2.80083E+04 -1.14014E+04  2.47417E+04  9.93438E+03  2.42007E+03  1.76128E+04
 -1.30419E+04  6.97427E+03 -8.78266E+03 -7.19028E+03  6.90856E+03 -9.25388E+03  1.60905E+04  5.84029E+03
  1.26915E+04  2.17418E+04 -6.94616E+03  2.17269E+04 -2.08058E+04  7.80587E+03 -2.30459E+04 -6.54655E+03
 -1.47948E+04 -1.54811E+04 -4.85383E+03 -1.40035E+04  3.88948E+03 -1.27299E+04  9.90878E+03 -1.29888E+04
  1.86610E+04 -1.06797E+04  2.57862E+04  2.72380E+02  2.01176E+04  1.37033E+04  3.51168E+03  3.08187E+04
 -1.53281E+04  2.67448E+04 -2.40938E+04  9.07896E+03 -1.75537E+04 -1.05651E+04 -3.88647E+03 -1.49004E+04
  3.39450E+03 -3.87790E+03 -2.46518E+03  4.30620E+03 -1.17893E+04  5.77977E+03 -1.32601E+04 -3.83620E+03
 -7.02946E+03 -1.30327E+04  5.08115E+03 -1.77280E+04  1.20086E+04 -1.33933E+04  1.26183E+04 -1.35777E+03
  8.03815E+03  9.48061E+03 -2.38902E+02  1.45566E+04 -8.66976E+03  8.49571E+03 -1.38305E+04 -4.05138E+03
 -1.08101E+04 -1.27791E+04 -1.73368E+03 -1.66578E+04  8.85739E+03 -1.33617E+04  1.55603E+04 -6.17196E+03
  1.35735E+04  1.40539E+03  9.42712E+03  3.84291E+03  4.43667E+03 -3.21436E+02  6.02038E+03 -9.26545E+02
  1.18044E+04  2.64996E+03  1.26257E+04  1.15717E+04  8.47991E+03  2.20230E+04 -3.00772E+03  2.42019E+04
 -1.46375E+04  1.67234E+04 -2.11845E+04  7.93725E+03 -2.15701E+04 -1.74542E+03 -1.83546E+04 -1.21045E+04
 -8.91697E+03 -1.67467E+04  6.50694E+03 -1.70080E+04  1.54748E+04 -9.82943E+03  1.39938E+04  3.16736E+03
  6.56453E+03  1.01390E+04 -7.18092E+03  9.75309E+03 -1.23755E+04  2.28272E+03 -9.01007E+03 -8.05816E+03
 -4.12248E+02 -1.18153E+04  6.73274E+03 -9.33724E+03  6.74831E+03 -1.46351E+03  1.67716E+03  5.23815E+03
 -4.99330E+03  8.42314E+02 -2.04918E+03 -3.65646E+03  1.94874E+03 -9.28459E+03  6.94685E+03 -9.93158E+03
  1.05956E+04 -4.00914E+03  9.57470E+03  2.73356E+03  8.34526E+03  7.96679E+03  4.50995E+03  1.12173E+04
 -8.48163E+02  1.39469E+04 -7.83433E+03  8.74048E+03 -9.22123E+03  1.98635E+03 -7.77567E+03 -1.46398E+03
 -4.46645E+03 -3.70458E+03 -1.52101E+03  1.75144E+03 -1.71796E+03  1.84120E+03 -2.02347E+03  2.45498E+03
 -8.44013E+03 -1.32568E+03 -7.81975E+03 -6.46818E+03 -4.33031E+03 -1.02493E+04  2.30095E+03 -7.16855E+03
  6.16705E+03 -3.22278E+03  5.16051E+03  1.64303E+03  6.07713E+02  3.47047E+03 -2.95073E+03  2.10285E+03
 -3.01517E+03 -4.92778E+03 -8.77645E+01 -5.26754E+03  3.02404E+03 -6.50399E+03  8.56843E+03 -3.19062E+03
  9.69822E+03  1.54533E+03  7.66923E+03  6.49539E+03  1.37969E+03  7.09195E+03 -5.43798E+03  7.55509E+03
 -6.39551E+03  2.53060E+03 -2.39837E+03 -5.02713E+02  1.98946E+03 -1.46116E+03  4.35382E+03 -5.97784E+02
  3.00309E+03  2.23815E+03  1.13422E+03  5.23462E+03 -4.29307E+03  5.54966E+03 -6.68334E+03  1.36875E+03
 -4.00184E+03 -2.42043E+03 -8.76542E+02 -6.04656E+03  3.38928E+03 -3.33151E+03  3.74559E+03  7.37718E+02
  5.04898E+02  2.53415E+03 -3.25217E+03  4.56632E+03 -2.98924E+03  2.26882E+03 -2.55881E+03 -1.77485E+02
 -3.00852E+03 -5.09414E+03  9.57338E+02 -4.86471E+03  4.99040E+03 -4.01020E+03  5.39066E+03  1.05760E+03
  3.85258E+03  4.24384E+03  2.61692E+02  6.50700E+03 -3.87504E+03  4.41263E+03 -4.73558E+03 -5.13411E+02
 -5.66933E+03 -3.78578E+03 -1.18056E+03 -4.40339E+03  2.57614E+03 -4.77104E+03  1.71865E+03 -2.13380E+03
  2.70129E+03  9.90147E+02  4.15974E+02 -3.90452E+02  5.50968E+02  8.05490E+02  1.51336E+03 -1.28523E+03
  3.18429E+03 -3.97743E+02  4.00051E+03  1.28532E+03  3.81809E+03  2.86928E+03  4.18166E+03  6.25651E+03
 -1.17370E+03  6.75193E+03 -5.19135E+03  5.76520E+03 -7.86406E+03  1.02826E+03 -6.22565E+03 -2.51931E+03
 -2.86375E+03 -6.64051E+03  6.44914E+02 -5.17537E+03  1.45852E+03 -1.74788E+03  2.16222E+03 -1.43994E+03
  1.11930E+03 -4.46455E+02  1.42960E+03 -1.67000E+03  4.01972E+03 -1.00478E+03  3.93645E+03  7.38448E+02
  3.76912E+03  5.28776E+02  1.31337E+03  3.06046E+03 -1.12393E+03  1.26994E+03 -4.14882E+03  1.97533E+03
 -3.72264E+03 -2.55244E+02 -8.46210E+02 -2.95112E+03  9.46688E+02 -4.15775E+03  2.70922E+03 -4.14576E+03
  4.28694E+03 -2.81022E+03  5.73342E+03  4.80694E+02  3.83009E+03  3.36183E+03  1.55831E+03  5.57151E+03
 -2.24206E+03  4.99500E+03 -3.52149E+03  1.36949E+03 -5.18556E+02 -1.48689E+03 -1.66353E+03 -1.31278E+03
 -4.59911E+02  8.75191E+02  1.77915E+02  2.92258E+03 -2.95227E+03  5.06025E+02 -3.57596E+03 -3.80038E+02
 -2.19116E+03 -3.13925E+03  5.10292E+02 -3.31639E+03  1.29459E+03 -3.88511E+03  2.20934E+03 -8.79591E+01
  3.51119E+03  2.48984E+03  8.92837E+02  3.24885E+03 -8.56168E+02  2.73000E+03 -2.25141E+03  1.97343E+03
 -2.92986E+03  1.71640E+03 -1.44821E+03 -2.05782E+03  3.78819E+02 -2.14161E+03  1.86281E+03 -2.18619E+03
  1.73315E+03 -2.02662E+03  1.98589E+03  1.31820E+02  1.12948E+02  1.53771E+03  2.52035E+02  3.93035E+02
  6.34782E+02  3.00899E+02  8.52254E+02  1.23857E+03  3.62235E+02  1.64372E+03  1.87708E+03  1.45196E+03
 -4.76063E+02  2.44714E+03 -1.99617E+03  3.55817E+03 -2.76971E+03  9.31261E+02 -2.30859E+03 -3.54091E+02
 -1.13171E+03 -2.66720E+03  4.02876E+02 -4.04676E+03  1.48057E+03 -1.82793E+03  2.24665E+03 -1.25610E+03
  1.53396E+03  1.98838E+03  6.33165E+02  1.76709E+03 -2.85549E+02  7.03069E+02 -1.58147E+03  2.64435E+02
 -5.27011E+02 -1.34697E+03  1.24362E+03 -1.91051E+03  7.60566E+02 -6.56085E+02  1.44819E+03 -3.75075E+02
  1.60258E+02  4.70603E+02 -1.99184E+02 -1.18868E+03 -7.16972E+00  9.43640E+02  1.52473E+03 -1.53647E+03
 -5.42319E+02  7.03788E+02  7.48875E+02  6.58019E+02  1.27465E+03  2.57964E+03 -9.23480E+02  2.04127E+03
 -9.60897E+02  9.71994E+02 -2.34491E+03  1.45628E+03 -2.34060E+03 -2.58958E+02 -1.60815E+02 -9.89780E+02
 -6.70903E+02 -1.30747E+02  1.25843E+03  3.45133E+02  1.23412E+03  1.48549E+03 -1.86842E+03  7.11240E+02
 -1.19120E+03  3.90478E+02 -7.82497E+02 -7.50311E+02 -4.19427E+02 -2.30122E+03  4.18154E+01 -6.51006E+02
  6.20088E+02 -3.51242E+02  1.20074E+02  3.96068E+01  1.24667E+03 -3.67335E+01 -1.75039E+02  2.49428E+02
  1.79551E+02  1.75931E+02 -1.20570E+03  4.39058E+02  4.44716E+01 -1.07403E+03  1.07243E+03 -5.44079E+02
  6.74794E+02  8.17482E+02  2.61901E+03 -7.61657E+01  1.50549E+03  5.12397E+02 -5.19509E+02  1.41668E+03
 -1.85482E+03  5.72665E+02 -9.37479E+02 -1.19810E+03 -6.05092E+02 -1.22829E+03  1.12601E+03  2.43821E+02
  1.45623E+03 -6.76023E+02 -2.88453E+02  6.52439E+02  2.00047E+02  1.54985E+03  6.33969E+00  1.20789E+03
 -7.08866E+02  4.68457E+02 -5.33693E+02  1.05971E+02 -1.17861E+03 -2.91409E+02 -9.36569E+02  6.63240E+00
 -6.53396E+02  8.72506E+02 -1.27704E+03  1.27513E+02 -2.32479E+03  2.23294E+01 -1.99874E+03 -3.07202E+02
 -7.52586E+02 -1.47460E+03  5.61145E+02 -2.25795E+03 -2.52951E+02 -2.54278E+03  1.48307E+03 -3.67154E+02
  1.85779E+03 -7.70534E+01  1.70285E+03  7.25362E+02 -1.27734E+03  1.53836E+03 -3.57029E+02  1.31081E+03
 -6.61590E+01  4.99418E+02 -6.17953E+02  5.13818E+01  5.58781E+00  8.08486E+02 -1.24414E+02 -2.29063E+02
 -1.85459E+03  5.33004E+02 -5.22276E+02 -5.11665E+01  2.55528E+02 -1.10270E+03  1.20696E+01 -8.47421E+02
  2.00714E+02 -9.88917E+02  7.28514E+02 -5.40461E+02  1.08497E+03  6.26520E+02 -1.30777E+02  3.70862E+02
 -1.83008E+03  2.00573E+03 -1.92831E+03  5.40382E+02 -1.75119E+03  1.67929E+02 -1.63247E+02 -1.72851E+03
 -4.72717E+02 -6.89532E+02 -3.97767E+02 -7.74356E+02  8.95968E+02 -1.97781E+02 -1.49909E+02 -4.13240E+01
  4.37697E+00  3.71695E+02 -2.67159E+02  1.88027E+03 -1.01699E+03 -4.94069E+02  1.58639E+02  4.00413E+02
  4.31130E+02  6.26392E+02 -3.31751E+01 -4.11956E+01 -4.16967E+02 -6.78829E+01  9.87090E+01  3.14779E+02
 -4.78984E+02  5.53514E+02 -1.56435E+03  2.37198E+00 -1.08386E+03 -9.48038E+02 -2.14220E+02 -9.61924E+02
  8.42970E+02 -1.02324E+03  3.10144E+02 -2.38836E+02  1.16222E+03  3.91370E+02  1.26111E+03  1.59556E+03
  6.68015E+02  4.41456E+02 -1.48379E+01 -3.55554E+02  6.21544E+02  9.49824E+02  6.96587E+02  1.26280E+03
  5.07551E+02 -6.62304E+02 -3.80734E+02 -3.48122E+02 -1.10053E+02 -3.62119E+02 -7.72076E+02 -4.79712E+02
 -9.84310E+02  1.91243E+02 -9.00784E+02 -4.63433E+02  4.53710E+02 -2.75657E+02  3.71358E+02 -9.09634E+02
  6.02053E+02 -2.63536E+02 -9.01121E+02 -3.25578E+01 -1.72741E+02  2.00832E+02 -4.33490E+02  5.36341E+02
