 $NMID ID='MM_0lb_SNR200_10hz_g60_64.RAW', FMTDAT='(8E13.5)'
 TRAMP=1., VOLUME=1. $END
  3.09666E+05  2.19514E+03  3.39035E+05  2.50958E+05  8.45137E+04  3.39049E+05 -1.32232E+05  2.52621E+05
 -1.90421E+05  8.25252E+04 -1.11034E+05 -3.24174E+04  1.64894E+02 -5.04145E+04  5.38691E+04  9.16434E+02
  3.39874E+04  5.19368E+04 -1.66977E+04  7.59839E+04 -6.25707E+04  6.40184E+04 -8.52000E+04  3.25205E+04
 -8.24810E+04 -1.08600E+04 -5.84445E+04 -5.30961E+04 -1.63343E+04 -7.11867E+04  2.84976E+04 -4.67812E+04
  3.98406E+04  3.76030E+03  1.66317E+04  4.87353E+04 -3.57116E+04  4.87346E+04 -6.85812E+04 -8.50626E+02
 -5.56408E+04 -5.79630E+04 -8.20774E+03 -7.97927E+04  3.38151E+04 -5.65680E+04  5.01581E+04 -1.96809E+04
  4.52679E+04  1.35013E+04  3.42182E+04  2.69617E+04  1.72510E+04  3.07015E+04 -5.99798E+03  2.88225E+04
 -2.12356E+04  1.18402E+04 -1.71156E+04 -6.43069E+03  6.57989E+03 -7.95713E+03  2.49341E+04  1.37932E+04
  7.18737E+03  3.69622E+04 -3.33453E+04  3.75298E+04 -6.68974E+04  1.77456E+03 -5.93758E+04 -4.51246E+04
 -1.16042E+04 -6.78336E+04  4.08984E+04 -4.66685E+04  6.14184E+04 -3.30372E+03  3.76467E+04  3.46359E+04
 -6.76642E+03  3.92037E+04 -3.14808E+04  1.94792E+04 -3.10634E+04 -2.37492E+03 -1.92363E+04 -1.05707E+04
 -9.78455E+03 -1.56531E+04  1.11859E+03 -2.07883E+04  8.38299E+03 -2.39819E+04  1.68374E+04 -1.17952E+04
  9.61675E+03  5.87551E+03 -1.06594E+04  1.28560E+04 -2.43511E+04 -6.91788E+03 -8.64373E+03 -3.71341E+04
  2.42646E+04 -4.83035E+04  5.21708E+04 -2.12755E+04  4.86177E+04  2.12630E+04  1.79464E+04  4.72769E+04
 -1.70142E+04  3.55722E+04 -2.70407E+04  3.59945E+03 -1.26283E+04 -2.95090E+04  2.27788E+04 -3.58192E+04
  4.51447E+04 -1.19995E+04  3.95587E+04  2.51079E+04  2.05189E+04  5.18000E+04 -7.50839E+03  5.79780E+04
 -3.55185E+04  4.04097E+04 -4.73921E+04  1.19304E+04 -4.79566E+04 -1.76864E+04 -2.57162E+04 -4.06396E+04
  8.03716E+03 -4.12216E+04  3.59513E+04 -1.70461E+04  3.27004E+04  1.06965E+04  4.73935E+03  2.24219E+04
 -1.34122E+04  9.40660E+03 -1.14958E+04 -6.29158E+03  5.00717E+03 -1.09432E+04  1.84548E+04  5.71962E+03
  1.50174E+04  2.32071E+04 -5.07948E+03  2.90279E+04 -2.34015E+04  1.47710E+04 -3.23775E+04 -2.03414E+03
 -2.69431E+04 -1.69207E+04 -1.14631E+04 -2.51535E+04  3.39516E+03 -2.46495E+04  1.98639E+04 -2.36113E+04
  3.31328E+04 -1.40605E+04  3.83478E+04  4.59539E+03  2.58333E+04  2.37084E+04  3.57897E+03  4.04852E+04
 -2.04140E+04  3.39875E+04 -2.99440E+04  1.12127E+04 -2.27739E+04 -9.80906E+03 -4.32026E+03 -1.32795E+04
 -1.30717E+02 -1.26094E+03 -7.05434E+03  8.08061E+03 -2.08806E+04  5.77591E+03 -2.00111E+04 -9.40680E+03
 -1.07153E+04 -2.44065E+04  5.96101E+03 -2.68834E+04  1.88164E+04 -2.11406E+04  2.35367E+04 -2.57267E+03
  1.52460E+04  1.69679E+04 -9.60016E+02  2.35349E+04 -1.55010E+04  1.25455E+04 -2.42840E+04 -4.57079E+03
 -1.72498E+04 -2.16630E+04 -2.21433E+03 -2.71483E+04  1.18324E+04 -2.20538E+04  2.30477E+04 -1.25636E+04
  2.19146E+04 -1.13050E+03  1.54735E+04  5.46111E+03  1.02058E+04  1.63636E+03  1.10228E+04 -1.09717E+03
  2.15803E+04  3.18487E+03  2.53210E+04  1.87079E+04  1.69598E+04  3.65483E+04 -1.68361E+03  4.35461E+04
 -2.56166E+04  3.81178E+04 -4.38011E+04  1.87277E+04 -4.51173E+04 -2.33331E+03 -3.69619E+04 -2.60892E+04
 -1.48860E+04 -3.68902E+04  1.23985E+04 -3.20605E+04  2.70824E+04 -1.52512E+04  2.34323E+04  6.96310E+03
  9.10007E+03  1.89527E+04 -1.09236E+04  1.45710E+04 -2.11313E+04  1.74612E+03 -1.44779E+04 -1.34100E+04
 -1.01129E+03 -1.83672E+04  9.60554E+03 -1.49211E+04  1.29671E+04 -1.12076E+03  4.23897E+03  9.56783E+03
 -8.77763E+03  3.40777E+03 -7.60830E+03 -7.02694E+03 -1.75308E+03 -1.97659E+04  1.13982E+04 -1.89998E+04
  2.29151E+04 -1.01266E+04  2.60267E+04  3.48278E+03  2.45708E+04  1.76300E+04  8.17106E+03  2.96314E+04
 -7.45099E+03  3.25107E+04 -1.97309E+04  1.91890E+04 -2.24444E+04  2.34129E+03 -1.52416E+04 -6.97181E+03
 -5.65455E+03 -7.28323E+03 -1.24748E+03  1.99815E+03 -3.53725E+03  4.02805E+03 -6.67228E+03  5.27078E+03
 -1.49838E+04 -1.27462E+03 -1.55107E+04 -1.25085E+04 -6.37167E+03 -1.88779E+04  6.95088E+03 -1.56284E+04
  1.27509E+04 -7.91727E+03  1.09292E+04  4.96976E+03 -1.86853E+03  6.10875E+03 -6.91638E+03 -4.64475E+02
 -6.99968E+03 -9.83335E+03 -9.92490E+02 -1.65484E+04  9.71573E+03 -1.65663E+04  1.76809E+04 -7.60495E+03
  2.21525E+04  2.96802E+03  1.73191E+04  1.47474E+04  3.77519E+03  2.00153E+04 -1.02966E+04  1.53373E+04
 -1.38471E+04  3.20856E+03 -5.37534E+03 -4.16903E+03  1.12939E+03 -4.21528E+03  9.76827E+03 -1.38243E+03
  7.51268E+03  7.40821E+03  1.74428E+03  1.30823E+04 -9.27825E+03  1.27395E+04 -1.52622E+04  3.38225E+03
 -1.13324E+04 -6.84852E+03  1.88191E+02 -1.28506E+04  7.29144E+03 -6.83537E+03  8.23613E+03  2.74138E+03
  2.85819E+03  1.01010E+04 -7.67289E+03  1.18770E+04 -1.45804E+04  5.41998E+03 -1.34092E+04 -4.53735E+03
 -6.40839E+03 -1.52196E+04  4.29050E+03 -1.83476E+04  1.49054E+04 -1.06297E+04  1.80281E+04  3.86647E+03
  1.09858E+04  1.34989E+04 -2.66431E+03  1.72314E+04 -1.24387E+04  9.00746E+03 -1.33956E+04 -2.12405E+03
 -1.18698E+04 -9.22762E+03 -9.13127E+02 -1.02223E+04  5.57326E+03 -9.63485E+03  8.63996E+03 -2.53213E+03
  6.38508E+03  1.81340E+03 -1.42940E+03  1.27338E+03 -1.11603E+03 -3.47695E+03  2.47120E+03 -7.39239E+03
  1.08881E+04 -3.93211E+03  1.53217E+04  1.80699E+03  1.57768E+04  1.22116E+04  1.01201E+04  2.11460E+04
 -5.38609E+03  2.42733E+04 -1.95756E+04  1.75847E+04 -2.49377E+04  4.47200E+03 -1.92011E+04 -8.34403E+03
 -1.10711E+04 -1.60572E+04 -3.11060E+02 -1.34666E+04  4.52582E+03 -8.50491E+03  5.33077E+03 -4.55170E+03
  1.89157E+03 -3.78446E+03  3.47451E+03 -5.42293E+03  6.75436E+03 -4.28922E+03  8.32719E+03 -1.84241E+03
  9.16622E+03  3.29417E+03  6.57985E+03  1.00069E+04 -1.60173E+03  1.08756E+04 -1.09232E+04  8.70077E+03
 -1.49046E+04  2.90769E+01 -8.57912E+03 -1.07932E+04 -1.47108E+03 -1.53864E+04  8.49691E+03 -1.48556E+04
  1.72950E+04 -8.89305E+03  1.88787E+04  2.03626E+03  1.22564E+04  1.41852E+04  1.19031E+03  1.90626E+04
 -7.80530E+03  1.24347E+04 -1.09847E+04  4.31557E+03 -6.84120E+03 -2.36923E+03 -2.75781E+03 -2.77965E+03
 -2.33742E+03 -1.35926E+03 -1.84163E+03  1.75046E+03 -5.97896E+03  2.33485E+03 -8.83996E+03 -7.67427E+02
 -7.17585E+03 -9.24247E+03 -2.86853E+02 -1.44114E+04  8.33679E+03 -1.46501E+04  1.44395E+04 -3.28655E+03
  1.46884E+04  7.37184E+03  6.06550E+03  1.35948E+04 -3.69134E+03  1.30315E+04 -9.96723E+03  7.59945E+03
 -1.22133E+04  1.15455E+03 -8.64529E+03 -8.88908E+03 -2.07008E+02 -1.05910E+04  6.57246E+03 -8.94230E+03
  9.26004E+03 -2.13319E+03  5.79605E+03  2.77271E+03  2.87279E+03  5.03867E+03  2.81260E+03  2.54699E+03
  3.01511E+03  1.74529E+03  3.16395E+03  1.34749E+03  2.10073E+03  4.68803E+03  3.26093E+03  5.98138E+03
 -2.39810E+03  1.00237E+04 -9.82793E+03  1.21643E+04 -1.60917E+04  3.30793E+03 -1.39638E+04 -6.93619E+03
 -6.78085E+03 -1.34391E+04  1.04508E+03 -1.62700E+04  1.01189E+04 -9.84700E+03  1.15296E+04 -3.12023E+03
  7.93030E+03  5.71861E+03  3.96796E+03  7.81623E+03 -3.70004E+03  6.47401E+03 -5.53877E+03 -1.37867E+03
 -2.96585E+03 -6.71790E+03  3.27158E+03 -5.81758E+03  6.19257E+03 -3.35259E+03  3.65893E+03  1.16240E+03
  3.64695E+03  3.56029E+03  3.76511E+02  3.95380E+03 -1.09464E+03  1.23313E+03  2.27478E+03  2.60008E+02
  1.44739E+03  3.06598E+02  7.31806E+03  2.26185E+03  3.46854E+03  6.99041E+03 -1.62539E+03  1.14831E+04
 -7.86643E+03  7.31684E+03 -8.73278E+03  2.13936E+03 -6.93212E+03 -3.37965E+03 -3.06984E+03 -5.72218E+03
  9.01544E+02 -6.93894E+03  3.42768E+03 -1.10513E+03  5.09839E+03  1.04558E+03 -1.81973E+03  3.56541E+03
 -5.74836E+03  2.40658E+03 -6.01000E+03 -4.64337E+03 -6.17313E+03 -7.97141E+03  3.08102E+02 -8.05028E+03
  5.14306E+03 -4.93322E+03  5.08400E+03  7.96414E+02  5.23475E+03  1.05302E+03 -2.31573E+02  6.01392E+03
 -1.43792E+03  2.08972E+03 -3.31531E+03 -1.85515E+03  6.96526E+02 -6.36784E+03  9.93856E+03 -3.90513E+03
  8.39131E+03  1.29898E+02  1.02258E+04  6.04968E+03  3.34863E+03  1.04207E+04 -3.59451E+03  8.12804E+03
 -7.15365E+03  3.87994E+03 -8.27349E+03 -1.34761E+03 -4.79443E+03 -7.59892E+03  1.46724E+03 -6.34531E+03
  5.40071E+03 -2.44163E+03  5.41307E+03  3.25320E+03  5.74438E+02  5.82025E+03  9.57858E+02  6.47026E+03
 -3.51993E+03  2.54344E+03 -7.21862E+02  1.51825E+03  2.65641E+02  2.27336E+03 -1.30215E+03  1.89833E+03
 -3.76824E+03  2.42362E+03 -7.24505E+03  4.12490E+03 -9.63995E+03 -1.26684E+03 -9.63918E+03 -5.03854E+03
 -6.22600E+03 -1.25144E+04  2.71453E+03 -1.31257E+04  8.73395E+03 -1.05425E+04  1.54560E+04 -3.74196E+03
  1.18425E+04  1.88741E+03  6.63769E+03  7.65181E+03  1.51084E+03  9.28658E+03 -4.77677E+03  6.58293E+03
 -5.14096E+03  2.31670E+03 -3.81273E+03 -1.82617E+03 -2.24683E+02 -5.76601E+02  2.25568E+02 -9.79094E+02
 -1.45457E+03 -4.21401E+02 -2.92041E+03 -5.96401E+02 -2.16997E+03 -2.52085E+03  1.35396E+03 -3.17299E+03
  3.42341E+03 -3.60400E+03  5.19201E+03 -4.13121E+02  6.23765E+03  4.11525E+03  1.09857E+03  8.45032E+03
 -2.83993E+03  1.15042E+04 -8.58988E+03  5.96920E+03 -1.10896E+04 -8.29554E+02 -9.79769E+03 -7.63945E+03
 -3.83973E+03 -9.50560E+03  1.77153E+03 -9.33339E+03  7.05719E+03 -4.66296E+03  6.18835E+03  8.35432E+01
  3.97523E+03  2.94587E+03 -9.24132E+02  1.71094E+03 -2.22080E+03 -5.57381E+02 -1.27185E+03 -6.71954E+02
  2.52305E+03 -2.12165E+02  2.27109E+03  6.15549E+02  1.83445E+03  4.00346E+03 -7.01827E+02  6.05855E+03
 -4.38587E+03  3.95246E+03 -6.64384E+03  1.35882E+03 -7.26620E+03 -4.06928E+03 -9.26210E+02 -7.57821E+03
  5.11642E+03 -5.56509E+03  9.33855E+03 -7.65438E+02  8.33349E+03  3.19918E+03  2.97379E+03  4.78579E+03
  6.16056E+02  6.05890E+03 -1.61446E+03  3.82485E+03 -3.45497E+03  3.20022E+03 -2.69015E+03 -1.46529E+02
 -2.15546E+03  7.17353E+02 -1.17999E+03  1.22137E+03 -3.21355E+03  1.97256E+03 -4.15882E+03 -1.29796E+02
 -5.10858E+03 -8.98251E+02 -1.91289E+03 -7.50999E+03  2.48448E+03 -4.35131E+03  4.70614E+03 -3.18551E+03
  7.13765E+03  1.08751E+01  1.83836E+03  4.49728E+03 -9.82249E+02  6.20947E+03 -5.24322E+03  4.35150E+03
