 $NMID ID='MM_0lb_SNR200_17hz_g40_44.RAW', FMTDAT='(8E13.5)'
 TRAMP=1., VOLUME=1. $END
  3.09514E+05  2.34454E-01  3.37771E+05  2.50426E+05  8.37857E+04  3.38282E+05 -1.32843E+05  2.50435E+05
 -1.89993E+05  8.28473E+04 -1.11052E+05 -3.29690E+04  1.69211E+03 -5.05029E+04  5.36593E+04  2.63665E+02
  3.45238E+04  5.31061E+04 -1.67597E+04  7.51285E+04 -6.05809E+04  6.27265E+04 -8.30087E+04  3.18580E+04
 -8.00069E+04 -1.17728E+04 -5.61833E+04 -5.01093E+04 -1.48607E+04 -6.82173E+04  2.76843E+04 -4.49431E+04
  3.88027E+04  3.12311E+03  1.55253E+04  4.62505E+04 -3.38332E+04  4.53492E+04 -6.59510E+04 -2.18217E+02
 -5.21021E+04 -5.62590E+04 -6.40133E+03 -7.62877E+04  3.40722E+04 -5.32019E+04  4.67215E+04 -1.67754E+04
  4.17429E+04  1.07291E+04  2.95886E+04  2.47788E+04  1.64826E+04  2.81180E+04 -4.40271E+03  2.75854E+04
 -2.14496E+04  1.26963E+04 -1.84632E+04 -4.04640E+03  3.21430E+03 -7.40870E+03  2.18006E+04  1.00906E+04
  7.32145E+03  3.25500E+04 -3.02698E+04  3.44256E+04 -6.11971E+04  2.38334E+03 -5.44284E+04 -4.09433E+04
 -1.26507E+04 -6.03342E+04  3.82196E+04 -4.43102E+04  5.53883E+04 -2.64277E+03  3.14797E+04  3.00828E+04
 -7.24170E+03  3.27884E+04 -2.81787E+04  1.32715E+04 -2.90054E+04 -4.61765E+03 -1.49388E+04 -9.80010E+03
 -7.07983E+03 -1.13887E+04 -1.19052E+03 -1.63703E+04  6.12283E+03 -2.30027E+04  1.56860E+04 -1.43902E+04
  1.17369E+04  4.99190E+03 -5.75433E+03  1.35539E+04 -1.94641E+04 -1.65753E+03 -7.41963E+03 -3.05301E+04
  2.03789E+04 -4.09182E+04  4.51450E+04 -1.89160E+04  4.26532E+04  1.86020E+04  1.45437E+04  4.19871E+04
 -1.54596E+04  3.21924E+04 -2.36068E+04  1.17972E+03 -8.62031E+03 -2.71778E+04  2.04165E+04 -3.23485E+04
  3.84840E+04 -6.44403E+03  3.17811E+04  2.19810E+04  1.59618E+04  4.23390E+04 -7.31598E+03  4.62502E+04
 -2.83850E+04  3.14783E+04 -3.89976E+04  7.69242E+03 -3.90839E+04 -1.57792E+04 -2.15009E+04 -3.50547E+04
  7.06254E+03 -3.45284E+04  2.90742E+04 -1.22440E+04  2.77873E+04  1.19529E+04  3.70802E+03  1.75672E+04
 -1.33547E+04  6.67177E+03 -9.36491E+03 -8.30052E+03  5.59122E+03 -9.51718E+03  1.88420E+04  6.92142E+03
  1.31361E+04  2.19060E+04 -5.90840E+03  2.32675E+04 -2.33237E+04  1.05845E+04 -2.52115E+04 -6.22846E+03
 -1.76532E+04 -1.56927E+04 -5.06331E+03 -1.66062E+04  3.72656E+03 -1.42563E+04  1.39155E+04 -1.60355E+04
  2.25933E+04 -1.13711E+04  2.88559E+04  1.41369E+03  2.21239E+04  1.68491E+04  3.69134E+03  3.25534E+04
 -1.61016E+04  2.75818E+04 -2.65602E+04  9.43603E+03 -1.94996E+04 -1.07632E+04 -5.38945E+03 -1.40404E+04
  2.77335E+03 -3.92871E+03 -3.25916E+03  6.07475E+03 -1.22924E+04  5.90165E+03 -1.33988E+04 -4.87518E+03
 -9.35367E+03 -1.65256E+04  4.71645E+03 -2.01493E+04  1.29619E+04 -1.43899E+04  1.49919E+04 -8.33036E+02
  9.86104E+03  1.10198E+04 -2.12282E+03  1.61603E+04 -1.11987E+04  9.43203E+03 -1.62034E+04 -3.55571E+03
 -1.15328E+04 -1.41853E+04 -1.12549E+03 -1.91897E+04  7.45430E+03 -1.53618E+04  1.75010E+04 -8.85425E+03
  1.53383E+04  7.02518E+01  1.14588E+04  3.45493E+03  5.81091E+03 -9.43421E+02  8.88547E+03 -1.49559E+03
  1.40385E+04  2.96548E+03  1.49711E+04  1.32169E+04  9.60484E+03  2.58426E+04 -3.64423E+03  2.72881E+04
 -1.58569E+04  2.10624E+04 -2.56134E+04  9.90752E+03 -2.69968E+04 -2.51695E+03 -2.27440E+04 -1.49317E+04
 -9.56836E+03 -2.15595E+04  6.26556E+03 -2.10783E+04  1.84435E+04 -1.18038E+04  1.72220E+04  4.35031E+03
  5.98236E+03  1.22981E+04 -7.48801E+03  1.05267E+04 -1.27035E+04  2.81144E+03 -1.04734E+04 -9.09562E+03
  8.22612E+01 -1.30850E+04  5.41847E+03 -9.29839E+03  9.19476E+03 -1.33162E+03  1.81903E+03  4.51196E+03
 -6.52758E+03  4.70354E+02 -3.54733E+03 -4.47784E+03  2.27210E+02 -1.09065E+04  7.47884E+03 -9.56844E+03
  1.43714E+04 -5.02697E+03  1.27279E+04  2.95155E+03  1.13963E+04  9.88856E+03  4.86096E+03  1.44715E+04
 -3.06816E+03  1.73904E+04 -1.13864E+04  1.15029E+04 -1.08289E+04  3.06471E+03 -9.32229E+03 -2.38388E+03
 -4.73001E+03 -4.03233E+03 -4.82332E+01  1.45187E+03 -2.02994E+03  2.36623E+03 -4.16368E+03  3.37864E+03
 -7.88705E+03 -1.14253E+02 -9.85606E+03 -6.99463E+03 -3.94521E+03 -1.23572E+04  4.57059E+03 -9.25008E+03
  7.57635E+03 -3.73489E+03  4.34288E+03  2.24633E+03  8.46207E+02  3.17260E+03 -3.55933E+03 -2.31442E+02
 -4.48485E+03 -5.28735E+03 -5.52765E+02 -8.19663E+03  3.72011E+03 -8.83261E+03  1.02614E+04 -3.34005E+03
  1.09251E+04  4.64149E+02  9.50056E+03  6.19670E+03  2.03504E+03  9.36205E+03 -4.93172E+03  9.16775E+03
 -7.69951E+03  3.23009E+03 -4.22862E+03 -5.84778E+02  2.19717E+03 -2.15373E+03  4.61784E+03 -1.39234E+03
  3.89615E+03  3.18378E+03  1.61740E+03  5.50950E+03 -4.67549E+03  6.58417E+03 -8.90325E+03  1.87316E+03
 -4.71494E+03 -3.02988E+03  9.64497E+02 -6.20546E+03  4.12678E+03 -4.45089E+03  4.76445E+03  5.60466E+02
  7.61982E+02  4.14739E+03 -3.85489E+03  5.99937E+03 -5.48984E+03  2.23449E+03 -4.54469E+03 -1.60055E+03
 -2.60897E+03 -5.71979E+03  1.31158E+03 -7.83410E+03  7.50722E+03 -3.94000E+03  6.16237E+03  2.01396E+02
  5.88916E+03  5.51137E+03 -9.84693E+02  7.96415E+03 -5.66230E+03  5.45476E+03 -6.02547E+03 -5.65882E+02
 -6.32618E+03 -5.25741E+03 -1.08359E+03 -4.53889E+03  3.55127E+03 -4.57005E+03  2.98044E+03 -2.92430E+03
  3.83581E+03  7.59928E+02 -1.95497E+02  2.10656E+03 -3.62333E+02 -8.39240E+02  1.78974E+03 -2.70845E+03
  4.40293E+03  4.01785E+02  5.86179E+03  5.06549E+02  5.58470E+03  3.12481E+03  5.52177E+03  9.15728E+03
 -1.55661E+03  9.13699E+03 -8.75139E+03  7.98924E+03 -1.04838E+04  4.75617E+02 -8.33289E+03 -3.59941E+03
 -5.32491E+03 -6.97571E+03 -1.68430E+03 -5.82667E+03  1.78457E+03 -2.92947E+03  1.80099E+03 -1.55542E+03
  1.55376E+03 -1.46597E+03  1.69084E+03 -2.66728E+03  3.03114E+03 -2.02934E+03  4.15007E+03  6.24256E+02
  4.81259E+03  1.15915E+03  4.78136E+02  4.55210E+03 -1.57907E+03  3.11239E+03 -5.46735E+03  3.37952E+03
 -6.03509E+03 -1.65683E+03 -3.05111E+03 -3.21063E+03  2.00759E+02 -6.38699E+03  4.74729E+03 -6.36854E+03
  4.91666E+03 -2.21693E+03  8.28562E+03  1.53944E+03  5.77486E+03  3.64951E+03  1.48633E+03  6.34689E+03
 -3.68153E+03  6.81250E+03 -4.41541E+03  3.37975E+03 -1.39170E+03 -9.40616E+02 -1.00615E+03 -7.01634E+02
 -5.80400E+02 -5.04128E+02 -1.15173E+03  1.21976E+03 -3.31482E+03  4.90999E+02 -4.59675E+03 -1.39729E+03
 -1.77892E+03 -4.54939E+03  6.85515E+02 -4.66324E+03  2.32850E+03 -4.76000E+03  3.83263E+03 -1.76753E+03
  5.46186E+03  3.08011E+03  2.37112E+03  4.25806E+03 -1.00303E+03  6.03322E+03 -2.99371E+03  2.89128E+03
 -4.05984E+03  8.75650E+02 -3.45381E+03 -3.58659E+03 -8.80840E+02 -4.66021E+03  1.28000E+03 -2.79997E+03
  4.32661E+03 -1.19024E+03  2.06903E+03 -2.09617E+02  1.13887E+02  1.47083E+03  1.56896E+03  2.99195E+02
  1.52293E+03 -7.80858E+02  9.99426E+02  2.08753E+03  1.95317E+03  2.94646E+03  1.16939E+03  1.70786E+03
 -1.73808E+03  2.74821E+03 -1.72154E+03  4.44695E+03 -4.46555E+03  1.42325E+03 -5.51554E+03 -1.72906E+03
 -3.09517E+03 -5.56269E+03  9.25328E+02 -5.48846E+03  2.53241E+03 -4.09066E+03  2.97257E+03 -2.80773E+02
  3.37011E+03  2.28253E+03  1.30641E+03  2.54372E+03 -5.23488E+02  1.55274E+02 -4.78999E+02  3.91136E+02
  8.26666E+01 -2.03927E+03  1.61834E+03 -1.39612E+03  1.38585E+03 -6.10304E+02  1.68180E+03  8.56905E+02
  2.03927E+03 -6.62328E+02  1.42042E+02 -3.09375E+02 -5.55124E+02  1.43681E+03  1.82026E+03 -6.41839E+02
  7.70634E+02  1.11574E+02  2.95061E+03  1.40967E+03  5.49179E+02  3.00228E+03 -9.27031E+02  4.23464E+03
 -2.86464E+03  5.94658E+02 -1.90450E+03  1.17130E+03 -2.37997E+03 -5.61978E+02 -3.11073E+01 -1.04437E+03
  3.13506E+02 -1.38077E+03  1.07113E+03 -1.40880E+03 -3.31392E+02  1.58363E+03 -3.44840E+02  1.24290E+03
 -1.89127E+03  1.22360E+03 -3.22055E+03 -1.54365E+03 -1.06193E+03 -2.45502E+03 -3.02166E+02 -2.15333E+03
  1.22094E+02 -7.78737E+02  1.05113E+03  6.13904E+02  1.43148E+03 -1.39659E+02  9.25192E+02  1.90891E+03
 -4.49635E+02  6.33133E+02 -6.00426E+02  2.47259E+02  5.53323E+02 -8.32721E+02  2.93991E+03 -1.67791E+03
  2.16166E+03  7.29325E+00  2.93628E+03  5.39324E+02  8.97942E+02  1.43238E+03 -8.28302E+02  2.64845E+03
 -2.38127E+03 -2.26853E+02 -1.49537E+03 -3.90411E+02 -1.68734E+03 -9.70573E+02  1.84286E+01 -1.33668E+03
  2.19371E+03 -7.09396E+02  4.35179E+02  2.42450E+02  8.66441E+01  6.73424E+02  1.46096E+01  7.49845E+02
 -8.10186E+02  9.97530E+02 -7.17787E+02  1.24389E+02 -5.71876E+02 -2.85362E+01 -5.53123E+02  3.19722E+02
 -1.44960E+03  1.07431E+03 -2.93801E+03  2.40974E+03 -2.30671E+03  1.17093E+03 -3.19784E+03 -7.64705E+02
 -5.62836E+02 -3.23903E+03 -1.15367E+03 -3.54985E+03  1.27129E+03 -3.37181E+03  3.02643E+03 -7.28030E+02
  2.97220E+03  4.90222E+02  1.61292E+03  2.34736E+03 -1.10780E+03  2.13876E+03 -1.05933E+03  1.38411E+03
 -5.18343E+02 -2.04351E+01 -1.17960E+03 -8.97881E+02 -2.07295E+02 -2.32614E+02 -1.05891E+03  6.04138E+02
 -1.36937E+03  7.18234E+02 -1.05063E+03 -3.48532E+01  1.01404E+03  2.20185E+02  6.47108E+02 -1.24554E+03
  1.94667E+03 -1.38810E+03  1.57070E+03  9.37118E+01  2.71023E+03  1.46802E+03  1.62205E+02  2.56201E+03
 -1.39094E+03  3.16625E+03 -3.08500E+03  2.49000E+02 -3.19046E+03 -6.46305E+02 -1.70951E+03 -1.14041E+03
 -1.27488E+03 -1.97835E+03  1.19675E+03 -2.47870E+03  1.46644E+03 -6.44992E+02  1.97666E+03 -8.49326E+02
  3.80653E+02  3.56557E+02 -1.48562E+02  7.05037E+02 -1.37391E+03 -3.60938E+02 -4.56973E+02  1.29270E+02
  1.76467E+03  4.54576E+02  7.40026E+02  7.97101E+02  1.11412E+03  1.04254E+03  1.28517E+02  9.75694E+02
 -1.40701E+02 -1.54794E+02 -1.81390E+03 -7.23895E+02 -2.32962E+03 -3.60039E+02  3.30548E+02 -1.70083E+03
  1.54787E+03 -1.90429E+03  1.35796E+03  1.36338E+03  1.40433E+03 -2.23536E+02 -2.76777E+02  1.60166E+03
  5.29456E+02  6.92708E+02 -6.11448E+02 -3.97570E+02 -1.09063E+03  1.13870E+03 -1.50311E+03 -5.45343E+02
 -6.73061E+02 -4.31264E+02 -6.70368E+02  4.19068E+02 -9.05727E+02 -1.84366E+02  2.85206E+02 -6.70679E+02
 -1.96201E+03  3.87449E+01 -1.70929E+03 -1.29447E+03  1.51507E+03 -2.45695E+03  5.51432E+02 -6.61781E+02
  2.00282E+03  1.20529E+02 -4.05743E+01  5.65887E+02  3.07460E+02  1.73837E+03 -5.17464E+02  5.13589E+02
