 $NMID ID='MM_0lb_SNR200_11hz_g50_79.RAW', FMTDAT='(8E13.5)'
 TRAMP=1., VOLUME=1. $END
  3.10565E+05  1.48774E+03  3.36710E+05  2.50808E+05  8.42597E+04  3.38164E+05 -1.32056E+05  2.51525E+05
 -1.92788E+05  8.32842E+04 -1.12594E+05 -3.26488E+04  1.49071E+03 -5.07219E+04  5.34697E+04 -1.30084E+03
  3.54019E+04  5.32583E+04 -1.68714E+04  7.50147E+04 -6.24389E+04  6.54331E+04 -8.53740E+04  3.33869E+04
 -8.24156E+04 -1.20666E+04 -5.85580E+04 -5.15978E+04 -1.60742E+04 -6.96881E+04  2.83635E+04 -4.67237E+04
  4.02661E+04  4.23150E+03  1.64399E+04  4.77845E+04 -3.47830E+04  4.78945E+04 -6.81151E+04 -6.49960E+02
 -5.41242E+04 -5.80112E+04 -7.05590E+03 -7.80853E+04  3.46265E+04 -5.62612E+04  4.76642E+04 -1.79217E+04
  4.40485E+04  1.01447E+04  3.27846E+04  2.66856E+04  1.54633E+04  2.95970E+04 -5.04479E+03  2.83617E+04
 -2.31423E+04  1.32721E+04 -1.68816E+04 -5.79402E+03  7.42283E+03 -7.30116E+03  2.28816E+04  1.39038E+04
  6.77547E+03  3.58923E+04 -3.20098E+04  3.61670E+04 -6.38871E+04  2.00626E+03 -5.68983E+04 -4.49331E+04
 -1.21839E+04 -6.39829E+04  4.13221E+04 -4.74916E+04  5.93688E+04 -3.41973E+03  3.67318E+04  3.30651E+04
 -5.63662E+03  3.65910E+04 -2.98856E+04  1.78579E+04 -3.25113E+04 -4.82695E+03 -1.88709E+04 -1.17965E+04
 -9.53483E+03 -1.61255E+04 -6.14600E+02 -1.90413E+04  7.73249E+03 -2.25832E+04  1.47563E+04 -1.22141E+04
  1.09152E+04  5.42316E+03 -9.76556E+03  1.27429E+04 -2.25580E+04 -5.37562E+03 -8.70417E+03 -3.61128E+04
  2.41651E+04 -4.60458E+04  5.12134E+04 -1.96575E+04  4.77818E+04  2.03016E+04  1.77493E+04  4.67413E+04
 -1.64590E+04  3.46450E+04 -2.66989E+04  2.87710E+03 -1.17273E+04 -2.74118E+04  2.27394E+04 -3.59175E+04
  4.29759E+04 -1.07899E+04  3.88614E+04  2.53510E+04  2.06830E+04  4.99708E+04 -8.43942E+03  5.43430E+04
 -3.52994E+04  3.68238E+04 -4.59132E+04  9.34099E+03 -4.48058E+04 -1.78277E+04 -2.38824E+04 -4.10834E+04
  7.56009E+03 -4.06032E+04  3.30111E+04 -1.71925E+04  3.04362E+04  1.18094E+04  5.95214E+03  1.98825E+04
 -1.45822E+04  1.04795E+04 -1.28965E+04 -8.40190E+03  5.10276E+03 -1.14162E+04  1.83451E+04  5.15275E+03
  1.49660E+04  2.28547E+04 -4.91180E+03  2.68698E+04 -2.36773E+04  1.47931E+04 -3.05047E+04 -3.03639E+03
 -2.50406E+04 -1.79412E+04 -1.12485E+04 -2.31471E+04  4.92839E+03 -2.31876E+04  1.75843E+04 -2.18628E+04
  3.09061E+04 -1.47272E+04  3.54750E+04  3.96034E+03  2.54845E+04  2.25370E+04  3.95730E+03  3.91301E+04
 -1.80670E+04  3.20568E+04 -2.78720E+04  1.07618E+04 -2.23933E+04 -1.01099E+04 -4.71610E+03 -1.29739E+04
  1.77737E+02  7.56199E+01 -5.91811E+03  7.69899E+03 -1.79013E+04  5.32548E+03 -1.68855E+04 -8.83014E+03
 -1.09640E+04 -2.20554E+04  6.03073E+03 -2.62364E+04  1.77824E+04 -1.85483E+04  2.07846E+04 -2.38643E+03
  1.39118E+04  1.57136E+04 -1.46429E+03  2.09636E+04 -1.48769E+04  1.24953E+04 -1.99094E+04 -4.58914E+03
 -1.59239E+04 -1.87543E+04 -1.82461E+03 -2.79018E+04  1.14376E+04 -2.05301E+04  2.12920E+04 -1.15938E+04
  2.04353E+04  4.28541E+01  1.47700E+04  5.58084E+03  8.08829E+03 -4.70135E+02  1.14168E+04 -2.04395E+03
  1.93817E+04  4.55051E+03  2.30362E+04  1.59515E+04  1.56399E+04  3.43102E+04 -3.05963E+03  4.03648E+04
 -2.30054E+04  3.30741E+04 -3.89202E+04  1.82719E+04 -4.02961E+04 -4.13803E+03 -3.28404E+04 -2.33984E+04
 -1.36635E+04 -3.31532E+04  1.07538E+04 -2.87800E+04  2.60049E+04 -1.45249E+04  2.19137E+04  6.80784E+03
  7.47548E+03  1.56585E+04 -1.11413E+04  1.41444E+04 -1.63144E+04  2.52697E+03 -1.47395E+04 -1.27607E+04
  3.65429E+02 -1.75449E+04  9.99254E+03 -1.33411E+04  1.20086E+04 -4.22522E+02  2.61165E+03  7.38022E+03
 -8.70766E+03  4.13195E+03 -7.18718E+03 -5.72977E+03 -1.62194E+03 -1.63963E+04  1.14771E+04 -1.75160E+04
  1.97918E+04 -1.16082E+04  2.24905E+04  2.19913E+03  2.00771E+04  1.60782E+04  9.78189E+03  2.57240E+04
 -3.71458E+03  2.70202E+04 -1.83254E+04  1.69326E+04 -2.05722E+04  2.34191E+03 -1.32817E+04 -5.30395E+03
 -4.50651E+03 -5.33630E+03 -1.06901E+03  5.08187E+02 -2.42638E+03  3.09675E+03 -6.45920E+03  3.82600E+03
 -1.19868E+04 -2.17696E+03 -1.31454E+04 -1.16986E+04 -7.05842E+03 -1.72231E+04  5.27930E+03 -1.42768E+04
  1.20373E+04 -5.96267E+03  8.41522E+03  4.47529E+03  5.00965E+02  5.62010E+03 -7.17170E+03  1.56545E+03
 -6.87922E+03 -7.74882E+03 -7.18491E+02 -1.34092E+04  9.65844E+03 -1.46540E+04  1.81805E+04 -7.47439E+03
  2.14221E+04  3.46215E+03  1.47249E+04  1.19638E+04  3.21114E+03  1.65360E+04 -7.86247E+03  1.36797E+04
 -1.21603E+04  2.55795E+03 -5.19392E+03 -1.38652E+03  3.03711E+03 -3.93551E+03  8.11305E+03  6.60318E+02
  6.83430E+03  6.14344E+03  5.50486E+02  1.08580E+04 -7.91040E+03  9.04215E+03 -1.33085E+04  2.19149E+03
 -8.60850E+03 -6.29375E+03  1.87800E+02 -1.15290E+04  6.51589E+03 -7.16153E+03  7.93689E+03  2.51276E+03
  1.66418E+03  8.61085E+03 -7.52369E+03  1.03622E+04 -1.21017E+04  5.64979E+03 -1.02942E+04 -5.16261E+03
 -5.41884E+03 -1.31750E+04  3.41403E+03 -1.53870E+04  1.21231E+04 -1.02890E+04  1.32610E+04  2.03026E+03
  8.90037E+03  1.11855E+04 -2.00870E+03  1.30651E+04 -1.00261E+04  8.50262E+03 -9.92567E+03 -1.97490E+03
 -9.41883E+03 -8.90116E+03 -6.48319E+02 -9.02693E+03  5.30479E+03 -8.15996E+03  5.81001E+03 -3.24422E+03
  3.09971E+03  6.74730E+02 -1.07362E+03  1.36113E+03 -4.80686E+02 -2.20080E+03  2.90800E+03 -6.59882E+03
  1.05997E+04 -3.81858E+03  1.23921E+04  1.00336E+03  1.27762E+04  9.99124E+03  1.07063E+04  1.75849E+04
 -3.85880E+03  1.85982E+04 -1.69906E+04  1.58339E+04 -2.07297E+04  1.46994E+03 -1.66011E+04 -5.86134E+03
 -8.30613E+03 -1.48853E+04 -4.03515E+01 -1.19043E+04  6.03482E+03 -7.37128E+03  5.28434E+03 -3.63219E+03
  2.54551E+03 -2.68268E+03  3.33875E+03 -3.71754E+03  6.21957E+03 -3.35444E+03  6.61419E+03 -1.14137E+03
  7.56683E+03  2.13669E+03  5.12879E+03  8.43602E+03 -2.78239E+03  9.04227E+03 -9.95570E+03  7.20460E+03
 -1.14059E+04 -1.80111E+03 -7.16212E+03 -7.99507E+03 -6.97636E+02 -1.34511E+04  8.57343E+03 -1.32886E+04
  1.30030E+04 -6.78040E+03  1.53883E+04  1.61239E+03  1.01725E+04  1.19112E+04  2.09807E+03  1.40128E+04
 -4.14517E+03  1.20424E+04 -8.42885E+03  4.06136E+03 -5.38103E+03 -2.75656E+03 -2.87874E+03 -2.20222E+03
 -3.02124E+03 -7.49740E+02 -1.10651E+03  2.93902E+03 -5.25043E+03  2.24893E+03 -8.69061E+03 -3.57808E+02
 -4.17078E+03 -7.69175E+03 -4.82995E+02 -1.27211E+04  7.40258E+03 -1.06755E+04  1.08299E+04 -3.73870E+03
  1.31291E+04  5.49735E+03  3.53787E+03  1.08434E+04 -1.87144E+03  1.23413E+04 -7.74450E+03  6.81461E+03
 -1.07318E+04  1.97286E+03 -9.71509E+03 -7.49490E+03  3.49438E+02 -1.12784E+04  4.38508E+03 -8.84685E+03
  7.93908E+03 -2.74322E+03  4.19387E+03  2.06875E+03  2.25555E+03  4.44134E+03  9.60252E+02  1.20483E+03
  3.23950E+03  4.75904E+02  3.69838E+03  2.07996E+03  3.76149E+03  4.77596E+03  2.78546E+03  6.05452E+03
 -1.79499E+03  7.91190E+03 -9.51967E+03  9.58064E+03 -1.05444E+04  1.99043E+03 -1.31625E+04 -3.54218E+03
 -5.74688E+03 -1.04388E+04  2.08151E+03 -1.34148E+04  6.02239E+03 -8.97616E+03  8.78324E+03 -2.27065E+03
  8.18707E+03  5.18083E+03  3.36016E+03  6.03505E+03 -3.41991E+03  4.32073E+03 -4.19415E+03 -1.73107E+03
 -3.06268E+03 -4.74150E+03  2.77402E+03 -4.94657E+03  4.43126E+03 -3.19494E+03  5.52828E+03  7.36251E+02
  2.92198E+03  2.17871E+03  8.94668E+02  3.64124E+03 -8.83843E+01  1.64328E+03  6.16492E+02 -9.96619E+02
  1.04426E+03  6.41994E+01  3.21395E+03  9.22478E+02  2.67920E+03  6.34807E+03 -6.54839E+02  8.40308E+03
 -5.13293E+03  6.09453E+03 -6.63218E+03  6.33052E+02 -6.18278E+03 -3.15100E+03 -2.13718E+03 -4.46022E+03
  1.13332E+03 -4.74465E+03  3.21142E+03 -1.49235E+03  2.81745E+03  3.57093E+03 -1.42791E+03  3.00335E+03
 -4.19890E+03  2.08239E+03 -5.48889E+03 -2.08005E+03 -2.45784E+03 -6.14884E+03 -1.00298E+02 -6.91047E+03
  2.74498E+03 -3.27702E+03  3.88582E+03 -5.64580E+02  4.41048E+03  1.25364E+03  8.68673E+02  3.87347E+03
 -3.11778E+03  6.24367E+02 -2.71831E+03 -1.38027E+03  5.74259E+02 -4.90906E+03  5.06517E+03 -3.92295E+03
  6.81953E+03  2.28489E+03  7.33422E+03  5.25099E+03  2.86457E+03  7.20781E+03 -1.68054E+03  6.95018E+03
 -5.90116E+03  3.00822E+03 -7.06942E+03  2.92990E+02 -4.47148E+03 -5.40452E+03  2.95034E+01 -5.56535E+03
  3.75917E+03 -2.55116E+03  4.89252E+03  1.98307E+03  4.61020E+02  4.07194E+03  5.23359E+02  2.76960E+03
 -2.77803E+02  2.90480E+03 -1.39327E+03  4.00378E+01  2.69486E+02  3.30950E+02 -1.48046E+03  9.54680E+02
 -1.61805E+03  3.62315E+03 -4.79064E+03  5.79322E+02 -7.33583E+03  8.39332E+01 -7.74621E+03 -4.87023E+03
 -3.34970E+03 -1.03995E+04  1.92171E+03 -1.08611E+04  6.71461E+03 -9.14109E+03  1.03097E+04 -2.83919E+03
  1.07486E+04  2.50134E+03  6.23306E+03  6.99914E+03 -4.02591E+02  6.80850E+03 -1.97136E+03  6.32007E+03
 -3.97976E+03  2.24976E+03 -3.34759E+03 -4.32531E+02 -1.52167E+03 -6.74393E+02  3.61133E+02 -1.17655E+03
 -9.96380E+02 -1.69242E+03 -1.72969E+03  2.94940E+02  5.23038E+02 -8.77072E+02  1.62965E+03 -3.01278E+03
  4.54971E+03 -2.00135E+03  4.80773E+03 -3.67811E+02  4.62092E+03  3.63035E+03 -6.52049E+01  6.90092E+03
 -3.09723E+03  6.68216E+03 -7.62100E+03  5.66379E+03 -8.55832E+03 -1.42047E+03 -6.47988E+03 -4.58054E+03
 -2.23595E+03 -7.93895E+03  4.21404E+02 -6.46881E+03  5.26950E+03 -2.81538E+03  5.43371E+03  8.53363E+02
  1.53327E+03  3.86905E+03  3.37351E+02  1.63521E+03 -2.24622E+03 -7.06301E+02  5.73033E+02 -9.40050E+02
  2.81805E+03 -2.10062E+03  3.44868E+03  8.70808E+02  2.18451E+03  2.77705E+03  7.28264E+02  3.40437E+03
 -3.79143E+03  3.63718E+03 -5.30798E+03  1.68930E+03 -3.50979E+03 -3.07570E+03 -3.23806E+02 -6.13497E+03
  4.19826E+03 -4.93356E+03  5.45546E+03 -1.13474E+03  6.19160E+03  7.53118E+02  3.69579E+03  4.41184E+03
  1.07681E+03  3.62846E+03 -2.40812E+03  2.66341E+03 -1.96981E+03  4.32103E+03 -3.34230E+03 -1.21850E+02
 -2.62762E+03  5.76141E+02 -2.01069E+03  1.81288E+03 -2.03027E+03  8.64559E+02 -3.44443E+03 -3.93326E+02
 -3.67396E+03 -2.79863E+03  2.16985E+02 -4.37673E+03  3.49504E+02 -5.72130E+03  5.04987E+03 -2.95056E+03
  4.33440E+03  9.78506E+01  3.18616E+03  1.75971E+03 -8.95680E+02  5.00103E+03 -1.27822E+03  3.36101E+03
