 $NMID ID='MM_0lb_SNR200_13hz_g60_6.RAW', FMTDAT='(8E13.5)'
 TRAMP=1., VOLUME=1. $END
  3.10616E+05  1.69366E+02  3.38786E+05  2.50382E+05  8.50792E+04  3.39034E+05 -1.32724E+05  2.52729E+05
 -1.89842E+05  8.33158E+04 -1.11922E+05 -3.25627E+04 -1.78165E+02 -5.05931E+04  5.32643E+04  2.80196E+02
  3.62652E+04  5.17446E+04 -1.58001E+04  7.68774E+04 -6.20190E+04  6.25385E+04 -8.39240E+04  3.18442E+04
 -8.21585E+04 -1.22466E+04 -5.94041E+04 -5.06554E+04 -1.54003E+04 -7.03120E+04  2.74950E+04 -4.71125E+04
  4.11710E+04  3.25357E+03  1.67978E+04  4.80767E+04 -3.48946E+04  4.72150E+04 -6.67292E+04 -1.41141E+02
 -5.60846E+04 -5.71793E+04 -7.87290E+03 -7.89701E+04  3.49922E+04 -5.70322E+04  4.85249E+04 -1.80417E+04
  4.61294E+04  1.12005E+04  3.44359E+04  2.55024E+04  1.71543E+04  3.02626E+04 -6.09984E+03  2.55773E+04
 -2.33535E+04  1.14392E+04 -1.84971E+04 -6.61035E+03  7.10046E+03 -6.52913E+03  2.20119E+04  1.50094E+04
  6.63688E+03  3.74231E+04 -3.44011E+04  3.60062E+04 -6.55472E+04  3.82250E+03 -5.62869E+04 -4.33240E+04
 -1.13897E+04 -6.43994E+04  4.19314E+04 -4.72895E+04  5.97346E+04 -9.35787E+02  3.45714E+04  3.33394E+04
 -5.93185E+03  3.95404E+04 -3.05017E+04  1.79145E+04 -3.30351E+04 -2.56323E+03 -1.91239E+04 -1.04890E+04
 -6.76997E+03 -1.30910E+04 -1.23679E+03 -2.03821E+04  8.44052E+03 -2.30944E+04  1.60689E+04 -1.24460E+04
  1.08159E+04  8.30614E+03 -9.16327E+03  1.14076E+04 -2.20486E+04 -4.95512E+03 -8.39508E+03 -3.58874E+04
  2.49011E+04 -4.58791E+04  4.85361E+04 -2.02924E+04  4.51860E+04  2.02449E+04  1.66596E+04  4.57801E+04
 -1.65657E+04  3.49914E+04 -2.64558E+04  2.53213E+03 -1.18488E+04 -2.92511E+04  2.15642E+04 -3.53375E+04
  4.35391E+04 -9.97149E+03  3.88908E+04  2.42144E+04  1.91430E+04  4.85176E+04 -8.52617E+03  5.18396E+04
 -3.39552E+04  3.65245E+04 -4.49295E+04  1.22090E+04 -4.55504E+04 -1.84865E+04 -2.55280E+04 -4.04145E+04
  8.45416E+03 -3.96270E+04  3.32008E+04 -1.65839E+04  3.20680E+04  1.10080E+04  5.00838E+03  2.02824E+04
 -1.48227E+04  9.32890E+03 -1.11570E+04 -7.85109E+03  5.59708E+03 -1.04458E+04  1.91794E+04  6.13441E+03
  1.48966E+04  2.13715E+04 -4.92138E+03  2.73332E+04 -2.32654E+04  1.37119E+04 -3.11843E+04 -3.21210E+03
 -2.16677E+04 -1.74562E+04 -1.03696E+04 -2.14882E+04  3.50830E+03 -2.25712E+04  1.67740E+04 -2.03518E+04
  2.74691E+04 -1.50171E+04  3.49258E+04  4.16761E+03  2.47862E+04  2.25198E+04  3.90034E+03  3.73011E+04
 -1.77406E+04  3.12653E+04 -2.93591E+04  1.04850E+04 -2.12101E+04 -1.09124E+04 -5.58161E+03 -1.30305E+04
  1.89623E+03 -1.30852E+03 -5.23432E+03  6.99960E+03 -1.86642E+04  4.44222E+03 -1.74498E+04 -9.41387E+03
 -9.76621E+03 -2.13222E+04  5.52814E+03 -2.48240E+04  1.61487E+04 -2.04751E+04  2.01859E+04 -9.27006E+02
  1.39233E+04  1.42178E+04 -9.27713E+02  2.19499E+04 -1.45389E+04  1.15787E+04 -2.13930E+04 -4.58749E+03
 -1.39893E+04 -1.84101E+04 -1.39945E+03 -2.44475E+04  1.22945E+04 -2.02955E+04  2.19316E+04 -8.76249E+03
  2.03658E+04  3.30454E+02  1.50481E+04  3.93417E+03  9.11853E+03  4.48596E+02  1.14324E+04 -1.81645E+03
  1.97711E+04  2.86376E+03  2.26812E+04  1.65699E+04  1.58055E+04  3.33946E+04 -2.40777E+03  3.82706E+04
 -2.29804E+04  3.07848E+04 -3.61304E+04  1.69310E+04 -3.87337E+04 -2.45116E+03 -3.04401E+04 -2.17389E+04
 -1.31730E+04 -3.26200E+04  1.04169E+04 -2.73622E+04  2.43302E+04 -1.30385E+04  2.03918E+04  6.28878E+03
  8.14475E+03  1.71545E+04 -1.00727E+04  1.32226E+04 -1.67356E+04  2.03881E+03 -1.41062E+04 -1.11813E+04
  2.75126E+01 -1.62812E+04  7.69787E+03 -1.29631E+04  1.21614E+04 -1.44368E+03  3.06485E+03  7.59097E+03
 -7.04032E+03  3.16854E+03 -6.86363E+03 -5.74936E+03 -1.17997E+03 -1.58899E+04  1.01642E+04 -1.59496E+04
  1.95096E+04 -9.27947E+03  2.13428E+04  3.42669E+03  1.79427E+04  1.52266E+04  9.45894E+03  2.45818E+04
 -5.05427E+03  2.60014E+04 -1.65798E+04  1.49887E+04 -1.93328E+04  2.93205E+03 -1.19666E+04 -3.90831E+03
 -5.94730E+03 -5.70376E+03 -1.04335E+03  1.06677E+03 -3.91031E+03  2.66536E+03 -6.33015E+03  4.45509E+03
 -1.19524E+04 -4.89981E+02 -1.36078E+04 -9.82329E+03 -4.30881E+03 -1.78420E+04  5.65762E+03 -1.25256E+04
  1.10172E+04 -6.09566E+03  8.21055E+03  4.15962E+03 -1.37874E+03  5.14296E+03 -5.91352E+03 -1.69290E+03
 -5.09337E+03 -8.42971E+03 -8.26835E+02 -1.18926E+04  7.67926E+03 -1.41432E+04  1.71603E+04 -6.12960E+03
  2.02351E+04  1.97663E+03  1.43928E+04  1.12789E+04  3.06605E+03  1.54837E+04 -7.30509E+03  1.27139E+04
 -1.13119E+04  3.00237E+03 -5.62818E+03 -1.76517E+03  2.83092E+03 -2.74862E+03  7.91151E+03 -2.48010E+02
  4.18475E+03  6.43095E+03  2.37549E+03  1.02387E+04 -9.16999E+03  8.96399E+03 -1.18632E+04  3.24460E+03
 -7.84862E+03 -6.90584E+03  4.69999E+02 -1.13711E+04  7.50521E+03 -4.58161E+03  7.09458E+03  2.85695E+03
  3.96413E+02  7.83720E+03 -7.07418E+03  8.57741E+03 -1.04802E+04  3.54760E+03 -9.29400E+03 -3.84265E+03
 -5.88165E+03 -1.18631E+04  3.30755E+03 -1.32548E+04  1.10760E+04 -8.68961E+03  1.14594E+04  1.87650E+03
  9.20575E+03  1.05317E+04 -6.29081E+02  1.23429E+04 -8.62210E+03  6.79051E+03 -8.79679E+03 -1.75068E+03
 -9.26329E+03 -7.57241E+03 -2.28503E+03 -9.61420E+03  5.53048E+03 -7.17689E+03  6.25647E+03 -3.08456E+03
  3.79769E+03  1.26771E+03 -1.33134E+03  2.08724E+03 -8.67505E+01 -1.30225E+03  1.79288E+03 -4.75580E+03
  1.01209E+04 -4.06769E+03  1.14187E+04  1.26922E+03  1.23788E+04  7.54816E+03  7.49069E+03  1.54738E+04
 -4.05507E+03  1.69634E+04 -1.48229E+04  1.31746E+04 -1.90037E+04  2.67198E+03 -1.51021E+04 -6.11602E+03
 -7.85442E+03 -1.17511E+04 -2.44682E+02 -9.60647E+03  3.66611E+03 -4.34101E+03  3.02127E+03 -4.30372E+03
  2.76029E+03 -2.66165E+03  2.29255E+03 -2.05393E+03  5.42669E+03 -1.74217E+03  6.89502E+03 -1.00768E+03
  8.16729E+03  1.66546E+03  2.80889E+03  6.35944E+03 -1.96538E+03  7.29573E+03 -7.89739E+03  6.03092E+03
 -9.93350E+03 -2.18536E+03 -7.21031E+03 -7.49607E+03 -3.79508E+02 -1.11670E+04  5.22103E+03 -1.08279E+04
  1.08619E+04 -7.68555E+03  1.42679E+04  1.75759E+03  8.86251E+03  9.90084E+03  1.82967E+03  1.25729E+04
 -6.19614E+03  1.01759E+04 -7.48564E+03  2.22464E+03 -5.04429E+03 -1.14688E+03 -7.92315E+02 -1.19905E+03
 -1.38934E+03 -1.36971E+02 -2.01794E+03  2.26731E+03 -4.09655E+03  1.93531E+03 -5.79419E+03 -8.75014E+02
 -5.25140E+03 -7.28171E+03 -1.05299E+03 -1.00610E+04  6.96421E+03 -8.95125E+03  9.19301E+03 -2.84727E+03
  9.24852E+03  5.03561E+03  4.85725E+03  8.12657E+03 -2.71839E+03  8.69129E+03 -7.76742E+03  5.58187E+03
 -8.75728E+03  5.09944E+02 -6.61841E+03 -6.47164E+03 -1.48678E+03 -7.73062E+03  4.58855E+03 -5.45345E+03
  6.80240E+03 -1.80527E+03  4.95003E+03  2.31872E+03  2.24302E+03  3.10247E+03  1.00502E+03  1.68860E+03
  2.50069E+03  2.55166E+02  2.25551E+03  1.31802E+03  2.77318E+03  4.80698E+03  3.69015E+03  5.57457E+03
 -1.80435E+03  6.02422E+03 -6.80786E+03  6.84488E+03 -9.35390E+03  2.42073E+03 -1.03658E+04 -2.24309E+03
 -5.70136E+03 -9.87335E+03  1.57687E+03 -1.04570E+04  6.44042E+03 -6.36415E+03  7.79622E+03 -2.21373E+03
  4.88125E+03  2.47775E+03  1.10941E+03  6.93638E+03 -2.72022E+03  3.18303E+03 -3.80543E+03 -1.05098E+03
 -2.50857E+03 -3.48902E+03  4.19930E+03 -4.01094E+03  3.93504E+03 -1.98113E+03  2.75483E+03  1.51861E+03
  4.13070E+03  1.21815E+03  4.98939E+02  1.28576E+03  2.02530E+02  2.69457E+03  1.34669E+03  3.05819E+01
  1.63241E+03  9.97712E+01  2.82684E+03  2.12825E+03  1.68528E+03  5.31496E+03 -1.66877E+02  6.29868E+03
 -4.94654E+03  3.49405E+03 -6.08039E+03  1.62731E+03 -5.82490E+03 -1.05014E+03 -1.52689E+03 -2.79644E+03
  1.97846E+03 -3.46701E+03  2.77815E+03 -1.72666E+03  1.18526E+03  3.13262E+03  6.68030E+02  2.74078E+03
 -3.03000E+03  1.26733E+03 -3.67446E+03 -1.99788E+03 -2.34880E+03 -5.02034E+03  2.73746E+03 -4.94033E+03
  2.38530E+03 -3.08929E+03  3.83086E+03  6.47236E+02  2.15812E+03 -5.56316E+02  1.55272E+02  1.88469E+03
 -1.48769E+03  9.24110E+02 -2.95113E+03 -2.78996E+03  1.69325E+03 -5.67956E+03  4.96174E+03 -3.78577E+03
  4.84858E+03 -2.33226E+02  6.42177E+03  2.77463E+03  1.65565E+03  5.82560E+03 -1.45024E+03  4.37448E+03
 -5.32136E+03  2.16517E+03 -3.80732E+03 -1.93116E+03 -3.23596E+03 -1.98967E+03  2.92497E+03 -3.60516E+03
  4.37705E+03 -2.14114E+03  3.75513E+03  2.47518E+03  6.60404E+02  3.24694E+03  1.12331E+02  3.76490E+03
 -1.99108E+03  2.06005E+03 -1.15633E+03  2.36651E+02 -1.21564E+03  8.32977E+02 -7.23720E+02 -3.73279E+02
 -1.59546E+03  1.15159E+03 -3.60722E+03  1.77575E+03 -4.41018E+03  6.08865E+02 -5.95929E+03 -3.23016E+03
 -4.81777E+03 -8.27189E+03  2.75629E+03 -7.47864E+03  5.10166E+03 -5.55476E+03  6.99614E+03 -2.81548E+03
  7.43470E+03  1.74260E+03  2.91896E+03  3.96810E+03  1.44638E+02  5.54920E+03 -2.56300E+03  2.71653E+03
 -2.77983E+03  1.49722E+03 -8.79603E+02 -1.59033E+03 -8.74905E+02  4.39794E+02 -1.01022E+03 -2.99694E+02
 -1.91236E+03  4.16151E+02 -1.11137E+03 -4.84143E+02 -1.64947E+02 -6.02504E+02 -6.11584E+02 -1.95178E+03
  3.30271E+03 -1.72126E+03  2.32480E+03 -3.66493E+02  4.06433E+03  3.56075E+03  1.00891E+03  4.85340E+03
 -2.97988E+03  6.47445E+03 -5.51152E+03  2.53611E+03 -5.30097E+03 -1.27476E+03 -5.30367E+03 -3.85341E+03
 -1.25385E+03 -5.59923E+03 -3.28196E+01 -4.52804E+03  3.86989E+03 -2.05830E+03  1.86696E+03  5.01100E+02
  1.60980E+03  2.08812E+03 -1.14924E+03  1.83011E+03 -1.01604E+03  9.36196E+01 -6.34355E+02 -1.49421E+03
  1.17269E+03 -1.40667E+03  1.82311E+03  1.58333E+03  1.39468E+03  2.62737E+03  8.07511E+02  2.66439E+03
 -2.04211E+03  2.74457E+03 -3.28504E+03  9.33736E+01 -4.30880E+03 -3.85252E+03 -4.45569E+02 -3.16644E+03
  1.62216E+03 -4.17549E+03  2.80213E+03 -9.27790E+02  2.47039E+03  1.20945E+03  2.63591E+03  4.27760E+03
  1.62397E+03  4.34678E+03  1.82395E+02  2.86240E+03 -3.09185E+03  5.50034E+02 -2.20132E+03 -3.45803E+02
 -1.58660E+03 -5.98012E+02 -8.25663E+02  3.59889E+02 -2.50021E+03 -1.24347E+02 -2.67338E+03 -5.33684E+01
 -1.99614E+03 -2.20134E+03 -3.82943E+02 -3.02011E+03  3.04063E+03 -2.63877E+03  2.83293E+03 -1.47636E+03
  3.34510E+03  3.05055E+02  1.55912E+03  2.58132E+03 -8.96658E+01  4.18151E+03 -2.83150E+03  1.22717E+03
