 $NMID ID='MM_0lb_SNR200_8hz_g50_37.RAW', FMTDAT='(8E13.5)'
 TRAMP=1., VOLUME=1. $END
  3.10383E+05  1.11004E+03  3.39143E+05  2.48716E+05  8.54352E+04  3.38239E+05 -1.33583E+05  2.52051E+05
 -1.92654E+05  8.29891E+04 -1.13564E+05 -3.27485E+04  1.14819E+03 -5.01949E+04  5.42597E+04  6.39514E+02
  3.37890E+04  5.28903E+04 -1.64560E+04  7.73620E+04 -6.13021E+04  6.35876E+04 -8.47933E+04  3.15425E+04
 -8.14792E+04 -1.21066E+04 -5.85877E+04 -5.31140E+04 -1.35174E+04 -7.18032E+04  2.75405E+04 -4.79036E+04
  4.11989E+04  4.57095E+03  1.60134E+04  4.80442E+04 -3.50179E+04  5.03051E+04 -6.83632E+04  1.66667E+03
 -5.54525E+04 -5.82657E+04 -8.75663E+03 -7.95092E+04  3.59210E+04 -5.70760E+04  5.12281E+04 -1.96337E+04
  4.42091E+04  1.19183E+04  3.28171E+04  2.71106E+04  1.71538E+04  3.06795E+04 -6.30492E+03  2.80502E+04
 -2.35776E+04  1.04834E+04 -1.84335E+04 -6.23424E+03  6.76055E+03 -7.16008E+03  2.32803E+04  1.39519E+04
  6.96055E+03  3.68641E+04 -3.53124E+04  3.71368E+04 -6.61477E+04  2.38905E+03 -6.01423E+04 -4.53218E+04
 -1.34720E+04 -6.63625E+04  4.13913E+04 -4.75708E+04  6.12034E+04 -3.69789E+03  3.66420E+04  3.54637E+04
 -4.11538E+03  4.03438E+04 -3.34871E+04  1.90892E+04 -3.34417E+04 -4.20377E+03 -2.07933E+04 -1.12396E+04
 -7.54416E+03 -1.56073E+04 -8.66519E+02 -2.01622E+04  8.27556E+03 -2.41786E+04  1.54416E+04 -1.17747E+04
  1.15103E+04  5.99154E+03 -1.15528E+04  1.30632E+04 -2.37426E+04 -6.43534E+03 -7.94061E+03 -3.98429E+04
  2.49507E+04 -4.70409E+04  5.09449E+04 -2.18308E+04  4.84019E+04  1.85527E+04  1.75468E+04  4.74246E+04
 -1.82770E+04  3.60636E+04 -2.83958E+04  2.35018E+03 -1.13051E+04 -2.90575E+04  2.14380E+04 -3.79406E+04
  4.42661E+04 -1.12492E+04  4.11718E+04  2.48974E+04  2.09223E+04  5.22025E+04 -8.89472E+03  5.71377E+04
 -3.66034E+04  3.92188E+04 -4.94426E+04  1.01257E+04 -4.79287E+04 -1.86474E+04 -2.64555E+04 -4.34042E+04
  9.19530E+03 -4.31820E+04  3.59952E+04 -1.56607E+04  3.29317E+04  1.30137E+04  4.53285E+03  2.21041E+04
 -1.25727E+04  1.03938E+04 -1.14253E+04 -7.96173E+03  5.94452E+03 -1.06371E+04  2.07233E+04  4.98454E+03
  1.35547E+04  2.12698E+04 -4.58791E+03  2.70739E+04 -2.33080E+04  1.51185E+04 -3.20036E+04 -3.06610E+03
 -2.50021E+04 -1.96704E+04 -1.11595E+04 -2.49856E+04  4.24113E+03 -2.87836E+04  2.06876E+04 -2.36320E+04
  3.45276E+04 -1.49478E+04  3.91330E+04  5.32839E+03  2.77290E+04  2.61331E+04  3.42698E+03  4.32948E+04
 -2.06831E+04  3.21595E+04 -2.93482E+04  1.10012E+04 -2.31664E+04 -1.17213E+04 -3.49880E+03 -1.46001E+04
  1.89308E+03 -2.12169E+03 -8.38151E+03  1.01307E+04 -2.27568E+04  5.32049E+03 -2.06572E+04 -1.01395E+04
 -1.13104E+04 -2.45698E+04  6.18063E+03 -2.83010E+04  1.70077E+04 -1.91049E+04  2.36716E+04 -1.46866E+03
  1.45611E+04  1.42954E+04 -1.79053E+03  2.51728E+04 -1.83069E+04  1.41605E+04 -2.63631E+04 -4.77233E+03
 -1.89659E+04 -2.24470E+04 -2.63551E+01 -3.06627E+04  1.43276E+04 -2.33348E+04  2.40423E+04 -1.24358E+04
  2.27028E+04  1.66474E+03  1.80128E+04  4.12674E+03  1.11338E+04  1.19775E+03  1.18430E+04 -1.13819E+03
  2.28978E+04  4.27370E+03  2.59567E+04  1.82053E+04  1.88420E+04  3.77856E+04 -2.32078E+03  4.56863E+04
 -2.63545E+04  3.83921E+04 -4.54354E+04  2.22253E+04 -4.64497E+04 -3.97431E+03 -3.72020E+04 -2.68158E+04
 -1.61600E+04 -3.87277E+04  1.36053E+04 -3.37499E+04  3.09261E+04 -1.73357E+04  2.45457E+04  6.85051E+03
  8.02918E+03  1.90411E+04 -1.32933E+04  1.51134E+04 -2.11794E+04  4.43654E+03 -1.53686E+04 -1.36927E+04
 -1.32861E+03 -2.10970E+04  1.29519E+04 -1.50733E+04  1.38797E+04 -1.17120E+03  3.07526E+03  9.24047E+03
 -9.16396E+03  5.51568E+03 -1.06139E+04 -6.53967E+03 -2.62602E+03 -1.98698E+04  1.15082E+04 -2.08089E+04
  2.39523E+04 -1.24309E+04  2.81279E+04  3.75328E+03  2.49919E+04  1.96634E+04  1.18034E+04  3.21188E+04
 -4.48985E+03  3.40634E+04 -2.06595E+04  2.15781E+04 -2.58664E+04  3.74996E+03 -1.49408E+04 -5.79834E+03
 -6.40525E+03 -7.40547E+03 -1.20037E+03 -1.11383E+03 -2.65399E+03  4.24035E+03 -6.15923E+03  7.29132E+03
 -1.64305E+04 -1.16828E+03 -1.54346E+04 -1.31695E+04 -5.36759E+03 -2.26907E+04  5.10594E+03 -1.51634E+04
  1.28009E+04 -6.34930E+03  8.79571E+03  5.61466E+03  7.22454E+02  8.48444E+03 -9.97435E+03 -3.65269E+02
 -8.80424E+03 -1.20240E+04 -1.28262E+03 -1.61461E+04  1.11435E+04 -1.69124E+04  2.12322E+04 -7.88198E+03
  2.46455E+04  2.40332E+03  1.72705E+04  1.47314E+04  4.48592E+03  2.11444E+04 -1.03332E+04  1.69612E+04
 -1.36329E+04  5.17898E+03 -7.45351E+03 -5.81642E+03  9.92014E+02 -3.94258E+03  8.59504E+03 -8.00478E+02
  8.74448E+03  7.17955E+03  1.02644E+03  1.53815E+04 -9.39857E+03  1.10438E+04 -1.60769E+04  1.82977E+03
 -1.20563E+04 -1.08127E+04 -1.14550E+02 -1.44465E+04  9.91649E+03 -6.34878E+03  1.16157E+04  2.81097E+03
  3.20971E+03  1.22560E+04 -9.58726E+03  1.26975E+04 -1.39418E+04  7.71835E+03 -1.64638E+04 -5.70842E+03
 -8.16196E+03 -1.70043E+04  4.63996E+03 -2.01926E+04  1.59130E+04 -1.18657E+04  2.04758E+04  2.55152E+03
  1.00530E+04  1.34251E+04 -2.91884E+03  1.77819E+04 -1.25775E+04  9.67106E+03 -1.44490E+04 -7.38248E+02
 -1.06087E+04 -1.18542E+04 -2.73370E+03 -1.30848E+04  5.96362E+03 -1.06346E+04  7.95425E+03 -5.48971E+03
  6.15318E+03  1.77065E+03 -2.59165E+03  3.30850E+03 -1.71900E+03 -3.59209E+03  3.71465E+03 -8.19696E+03
  1.26149E+04 -4.04957E+03  1.92104E+04  2.71520E+03  1.82218E+04  1.29685E+04  1.11420E+04  2.27229E+04
 -4.06966E+03  2.66199E+04 -2.28830E+04  2.00254E+04 -2.81117E+04  4.02706E+03 -2.23458E+04 -1.05521E+04
 -1.20353E+04 -1.92519E+04  6.63905E+02 -1.55050E+04  5.30723E+03 -8.18673E+03  6.24298E+03 -6.63902E+03
  5.00464E+03 -4.74414E+03  3.07099E+03 -5.07125E+03  7.17758E+03 -4.28049E+03  9.89663E+03 -6.60762E+02
  1.27912E+04  3.19398E+03  5.25318E+03  1.10944E+04 -2.02341E+03  1.11115E+04 -1.34325E+04  8.86232E+03
 -1.59356E+04 -1.41968E+03 -1.25860E+04 -9.59584E+03 -3.46679E+03 -1.75466E+04  9.54137E+03 -1.76631E+04
  1.82886E+04 -9.19707E+03  2.12995E+04  2.81262E+03  1.39213E+04  1.61136E+04  3.39793E+03  1.92175E+04
 -9.65434E+03  1.62835E+04 -1.26372E+04  5.82556E+03 -7.17919E+03 -3.30358E+03 -4.49019E+03 -1.83899E+03
 -1.14308E+03 -1.07990E+02 -2.31285E+03  4.26264E+03 -6.82120E+03  1.08331E+03 -1.25466E+04 -5.20293E+02
 -6.85085E+03 -1.10852E+04 -1.31175E+03 -1.74597E+04  1.21812E+04 -1.44860E+04  1.78078E+04 -3.95661E+03
  1.68165E+04  9.01799E+03  8.46565E+03  1.44355E+04 -2.80824E+03  1.71009E+04 -1.13196E+04  1.00678E+04
 -1.67678E+04  1.30040E+03 -1.22248E+04 -1.02669E+04 -6.66879E+02 -1.32262E+04  6.54298E+03 -1.06430E+04
  1.18616E+04 -3.91442E+03  7.28161E+03  2.46346E+03  4.32788E+03  6.57782E+03  1.14463E+03  3.85985E+03
  3.05711E+03  3.36882E+02  5.30342E+03  2.03190E+03  3.87721E+03  5.84950E+03  4.36815E+03  8.59704E+03
 -2.78764E+03  1.33027E+04 -1.22567E+04  1.31862E+04 -1.68257E+04  2.46147E+03 -1.68498E+04 -8.11582E+03
 -8.87078E+03 -1.80433E+04  2.69809E+03 -1.85344E+04  1.13018E+04 -1.20669E+04  1.53774E+04 -3.19964E+03
  1.01205E+04  5.29228E+03  2.59714E+03  1.03100E+04 -7.05492E+03  6.03777E+03 -6.99930E+03 -1.92130E+03
 -3.46241E+03 -6.68327E+03  3.00598E+03 -7.14640E+03  6.99937E+03 -3.23164E+03  7.08227E+03  1.77718E+03
  5.90374E+03  2.83070E+03  1.57738E+03  2.73603E+03 -8.50867E+01  2.78822E+03  1.67398E+03 -1.53345E+03
  2.62351E+03 -4.13671E+02  6.86008E+03  3.22082E+03  5.83060E+03  8.99936E+03 -2.95422E+03  1.20716E+04
 -7.43064E+03  7.23922E+03 -1.20241E+04  1.60243E+03 -1.00877E+04 -3.17318E+03 -3.61237E+03 -6.50397E+03
  5.28112E+02 -6.72504E+03  5.75850E+03 -1.90848E+03  2.17760E+03  2.17306E+03 -8.56827E+02  6.46803E+03
 -1.00328E+04  3.34041E+03 -9.37179E+03 -4.76093E+03 -4.84464E+03 -1.13605E+04  1.11928E+03 -9.27949E+03
  4.91562E+03 -7.61361E+03  6.29828E+03  6.66316E+02  6.57430E+03  1.88081E+03 -6.35743E+02  5.08960E+03
 -2.08033E+03  1.85497E+03 -5.60098E+03 -1.97316E+03  1.12037E+03 -8.07518E+03  1.01332E+04 -7.10826E+03
  1.07643E+04  9.10094E+02  1.11532E+04  8.14904E+03  2.47798E+03  1.14712E+04 -4.28115E+03  1.26914E+04
 -7.30950E+03  4.36398E+03 -1.00895E+04 -1.07405E+03 -6.23053E+03 -8.99159E+03  1.10862E+03 -7.09598E+03
  8.59612E+03 -5.64787E+03  7.12380E+03  2.64802E+03  1.31210E+03  7.51992E+03 -1.27911E+03  4.69727E+03
 -4.26866E+03  4.05632E+03 -3.95829E+03  1.96411E+03 -2.59768E+03  1.76232E+03 -1.05733E+03  5.24062E+02
 -2.55497E+03  4.55638E+03 -6.81236E+03  3.08044E+03 -1.16110E+04  5.02514E+02 -1.30489E+04 -8.21531E+03
 -6.66613E+03 -1.64718E+04  4.85152E+03 -1.84736E+04  1.16084E+04 -1.35297E+04  1.74008E+04 -5.75410E+03
  1.74654E+04  2.37518E+03  1.05697E+04  1.15561E+04  1.03343E+02  1.08905E+04 -4.06151E+03  6.65462E+03
 -5.35891E+03  2.43926E+03 -5.33963E+03 -2.85068E+03 -2.06458E+03 -1.11426E+03 -1.91080E+02 -1.42842E+02
 -7.32676E+02  1.21002E+03 -2.04912E+03 -1.91161E+03 -2.35984E+03 -1.67385E+03  1.26734E+03 -4.02871E+03
  5.85188E+03 -4.02411E+03  7.60101E+03  2.33687E+03  8.15669E+03  5.06925E+03  3.62864E+03  1.25902E+04
 -6.39208E+03  1.51888E+04 -1.49789E+04  8.44908E+03 -1.53200E+04  2.40058E+02 -1.16380E+04 -8.71829E+03
 -3.28110E+03 -1.28216E+04  2.91177E+03 -1.22991E+04  7.87793E+03 -6.88879E+03  9.27346E+03  2.31232E+01
  5.07920E+03  2.13116E+03 -1.29361E+03  5.15187E+03 -2.80579E+03 -1.40698E+03  1.88658E+03 -2.57522E+03
  3.42508E+03 -1.61661E+03  5.34610E+03  1.57357E+03  3.43903E+03  4.69261E+03  5.44921E+02  6.93721E+03
 -4.77992E+03  6.14299E+03 -9.19018E+03  2.94322E+02 -7.57732E+03 -3.83185E+03 -2.47363E+03 -1.03029E+04
  4.72422E+03 -8.73379E+03  9.31891E+03 -2.24750E+03  8.65814E+03  9.46290E+02  6.50735E+03  9.06351E+03
 -9.65599E+01  8.50752E+03 -3.87706E+03  5.62464E+03 -5.11644E+03  5.50182E+03 -4.78453E+03  1.16505E+03
 -2.49905E+03 -1.03908E+03 -2.49327E+03  3.39158E+02 -3.13351E+03  3.16656E+02 -4.99437E+03  3.06537E+00
 -6.32051E+03 -5.67574E+03 -3.10419E+03 -7.72035E+03  3.88213E+03 -8.01947E+03  5.19677E+03 -2.50087E+03
  8.82640E+03  1.72417E+03  5.90436E+03  6.43829E+03 -8.53349E+02  9.32959E+03 -8.30063E+03  7.49464E+03
