 $NMID ID='MM_0lb_SNR200_15hz_g50_73.RAW', FMTDAT='(8E13.5)'
 TRAMP=1., VOLUME=1. $END
  3.09689E+05  7.83871E+02  3.37372E+05  2.50918E+05  8.45482E+04  3.36895E+05 -1.32801E+05  2.50429E+05
 -1.90593E+05  8.28605E+04 -1.11475E+05 -3.28687E+04  1.08214E+03 -5.12900E+04  5.36771E+04 -1.10031E+03
  3.55710E+04  5.28357E+04 -1.62680E+04  7.56491E+04 -6.09527E+04  6.44044E+04 -8.33380E+04  3.16665E+04
 -8.13915E+04 -1.14350E+04 -5.66121E+04 -5.07526E+04 -1.42598E+04 -6.87204E+04  2.66714E+04 -4.66270E+04
  4.06413E+04  3.58420E+03  1.55194E+04  4.75897E+04 -3.45897E+04  4.73589E+04 -6.75123E+04 -1.04917E+03
 -5.29826E+04 -5.55482E+04 -7.69667E+03 -7.77526E+04  3.36184E+04 -5.52344E+04  4.66470E+04 -1.76276E+04
  4.30204E+04  1.08217E+04  3.14067E+04  2.65510E+04  1.64854E+04  2.93202E+04 -5.40248E+03  2.78420E+04
 -2.16132E+04  1.28335E+04 -1.90591E+04 -4.02364E+03  5.12323E+03 -8.06492E+03  2.20574E+04  1.24765E+04
  7.97321E+03  3.49692E+04 -3.20135E+04  3.47975E+04 -6.32473E+04  1.63190E+03 -5.50001E+04 -4.33633E+04
 -1.25470E+04 -6.35830E+04  4.02313E+04 -4.56876E+04  5.68150E+04 -1.30447E+03  3.46534E+04  3.21731E+04
 -7.09711E+03  3.56317E+04 -2.83443E+04  1.60990E+04 -3.05287E+04 -4.47008E+03 -1.56257E+04 -1.10146E+04
 -8.30798E+03 -1.31408E+04 -2.29858E+02 -1.90374E+04  7.94674E+03 -2.15004E+04  1.57498E+04 -1.25476E+04
  1.07699E+04  4.50099E+03 -7.33691E+03  1.29913E+04 -2.12907E+04 -4.12519E+03 -8.85684E+03 -3.20196E+04
  2.35035E+04 -4.19287E+04  4.71431E+04 -2.00067E+04  4.52020E+04  2.00976E+04  1.53433E+04  4.41773E+04
 -1.48666E+04  3.31357E+04 -2.52703E+04  3.06644E+03 -1.06875E+04 -2.72007E+04  2.10560E+04 -3.30427E+04
  4.04497E+04 -9.01030E+03  3.45723E+04  2.24855E+04  1.72007E+04  4.62783E+04 -6.51014E+03  4.99699E+04
 -3.14666E+04  3.30204E+04 -4.12421E+04  8.85717E+03 -4.19158E+04 -1.67126E+04 -2.29614E+04 -3.76544E+04
  6.38507E+03 -3.73590E+04  3.26994E+04 -1.48518E+04  2.99939E+04  1.15458E+04  4.89982E+03  1.89289E+04
 -1.41288E+04  8.07639E+03 -1.22121E+04 -7.82820E+03  6.07618E+03 -1.11568E+04  1.77908E+04  5.67952E+03
  1.32290E+04  2.19424E+04 -6.52147E+03  2.39306E+04 -2.21134E+04  1.11081E+04 -2.66728E+04 -3.99611E+03
 -1.94879E+04 -1.72636E+04 -8.10418E+03 -1.97722E+04  3.99283E+03 -1.93600E+04  1.49297E+04 -1.76106E+04
  2.50764E+04 -1.21985E+04  3.17826E+04  7.36921E+02  2.42799E+04  1.96053E+04  2.22582E+03  3.48683E+04
 -1.76821E+04  2.92936E+04 -2.85994E+04  1.07471E+04 -2.14949E+04 -9.70659E+03 -3.55296E+03 -1.48324E+04
  2.23816E+03 -2.73268E+03 -4.00662E+03  6.74118E+03 -1.55310E+04  5.18632E+03 -1.64430E+04 -5.83573E+03
 -1.03763E+04 -1.78547E+04  4.55111E+03 -2.24584E+04  1.46389E+04 -1.59611E+04  1.73965E+04 -1.28854E+03
  1.11941E+04  1.21883E+04 -9.60853E+02  1.83404E+04 -1.36471E+04  1.13549E+04 -1.87905E+04 -4.28635E+03
 -1.29270E+04 -1.60114E+04 -2.61605E+03 -2.34241E+04  1.13471E+04 -1.78421E+04  1.89178E+04 -9.51203E+03
  1.66794E+04 -4.72250E+02  1.30104E+04  3.46711E+03  5.75731E+03  8.16395E+02  9.65890E+03 -1.64006E+03
  1.72113E+04  2.24205E+03  1.75666E+04  1.40057E+04  1.25007E+04  2.86837E+04 -2.96543E+03  3.24571E+04
 -1.94919E+04  2.53994E+04 -3.00553E+04  1.32813E+04 -2.96169E+04 -1.76363E+03 -2.64605E+04 -1.76476E+04
 -1.20965E+04 -2.61947E+04  8.38048E+03 -2.38688E+04  2.11111E+04 -1.13564E+04  1.96366E+04  5.83982E+03
  6.54421E+03  1.48062E+04 -8.62030E+03  1.30242E+04 -1.60757E+04  2.70798E+03 -1.25126E+04 -9.83543E+03
  1.14755E+02 -1.47528E+04  6.14869E+03 -1.16971E+04  1.06645E+04 -7.61588E+02  1.43786E+03  5.61082E+03
 -7.67884E+03  3.52486E+03 -5.86858E+03 -5.49475E+03 -7.50452E+02 -1.34539E+04  9.62658E+03 -1.24405E+04
  1.56648E+04 -7.20131E+03  1.65031E+04  2.95982E+03  1.42624E+04  1.32369E+04  6.87902E+03  1.88673E+04
 -2.35499E+03  2.18778E+04 -1.33007E+04  1.28802E+04 -1.50521E+04  3.97219E+03 -1.00413E+04 -2.81803E+03
 -4.88712E+03 -5.06501E+03 -1.34350E+03  6.56305E+02 -2.38727E+03  2.48871E+03 -5.11729E+03  4.49113E+03
 -1.10184E+04 -6.83258E+02 -1.03091E+04 -9.67123E+03 -4.80419E+03 -1.45319E+04  4.42242E+03 -1.07195E+04
  8.46346E+03 -5.47479E+03  6.67746E+03  3.17746E+03  4.97586E+02  4.72826E+03 -5.37278E+03 -4.66027E+02
 -4.68106E+03 -6.16394E+03 -5.31430E+02 -1.03787E+04  5.33734E+03 -1.09186E+04  1.42456E+04 -5.42241E+03
  1.38356E+04  1.58499E+02  1.13443E+04  9.22761E+03  2.01948E+03  1.23324E+04 -6.61075E+03  1.17304E+04
 -8.62667E+03  4.03842E+03 -4.40821E+03 -2.40650E+03  1.09238E+03 -2.08109E+03  6.33486E+03 -1.17040E+03
  5.28248E+03  5.08166E+03  6.90691E+02  8.03010E+03 -5.74203E+03  8.95359E+03 -1.02910E+04  2.56603E+03
 -7.06221E+03 -4.84848E+03  5.25212E+01 -7.19601E+03  6.58495E+03 -3.90789E+03  5.88781E+03  1.86291E+03
  1.22822E+03  5.14609E+03 -5.29847E+03  7.06210E+03 -8.22131E+03  2.60176E+03 -6.27738E+03 -2.08848E+03
 -4.54412E+03 -9.39284E+03  2.21915E+03 -1.09383E+04  8.84203E+03 -6.04554E+03  7.62686E+03  1.26252E+03
  6.20703E+03  7.46034E+03 -1.03450E+03  1.03803E+04 -7.03983E+03  5.98296E+03 -7.40704E+03 -1.46109E+03
 -7.72095E+03 -6.31361E+03 -1.38615E+03 -7.13799E+03  3.61156E+03 -7.06709E+03  4.47092E+03 -3.72053E+03
  2.47303E+03  1.53846E+03 -1.02740E+03  2.47265E+03 -3.83606E+02 -1.02959E+03 -8.60802E+02 -3.23685E+03
  5.35691E+03 -3.07850E+03  8.21873E+03  3.59262E+02  1.00350E+04  4.55917E+03  7.14350E+03  1.13037E+04
 -1.44985E+03  1.37800E+04 -1.16370E+04  9.04803E+03 -1.50216E+04  1.13627E+03 -9.59568E+03 -4.32418E+03
 -4.49316E+03 -9.15353E+03 -1.75295E+01 -7.73177E+03  2.62584E+03 -3.78652E+03  2.94288E+03 -1.87549E+03
  2.45394E+03 -1.48093E+03  3.75339E+03 -3.79638E+03  3.90603E+03 -1.93332E+03  6.32695E+03 -6.36124E+02
  5.96838E+03  2.81224E+03  2.76718E+03  4.82381E+03 -1.98630E+03  4.58020E+03 -6.40858E+03  4.03679E+03
 -7.07489E+03 -1.93100E+03 -3.41018E+03 -5.40611E+03  4.59653E+02 -8.50615E+03  4.34130E+03 -8.45010E+03
  7.70850E+03 -4.50635E+03  1.04368E+04  1.10345E+03  6.50461E+03  6.30696E+03  1.25943E+03  9.31168E+03
 -3.04506E+03  7.49832E+03 -6.27081E+03  3.17353E+03 -3.13867E+03 -1.84315E+03 -1.34288E+03 -9.96397E+02
 -1.91518E+03 -2.45182E+02 -1.43214E+03  2.72375E+03 -3.86149E+03  8.85243E+02 -5.17229E+03 -1.14188E+02
 -2.93600E+03 -5.26200E+03 -5.83187E+02 -7.07759E+03  5.30319E+03 -7.24308E+03  6.69965E+03 -1.92729E+03
  7.23552E+03  3.34608E+03  3.50325E+03  5.08499E+03 -7.15098E+02  6.22329E+03 -5.75389E+03  4.00234E+03
 -5.10106E+03  1.29913E+02 -4.93949E+03 -4.70672E+03 -3.64731E+01 -5.78818E+03  2.80892E+03 -5.26351E+03
  4.49511E+03 -3.58481E+02  4.14483E+03  1.00442E+03  5.41093E+02  2.14261E+03  8.74350E+02  3.54717E+02
  2.01754E+03  1.60555E+03  2.11028E+03  4.84754E+02  1.83058E+03  2.03768E+03  1.37308E+03  3.47213E+03
 -2.29421E+03  4.68329E+03 -4.53455E+03  6.26962E+03 -6.35266E+03  1.29063E+03 -6.50866E+03 -9.89686E+02
 -1.90645E+03 -6.65063E+03  7.02034E+02 -8.61624E+03  3.72990E+03 -4.88771E+03  4.89749E+03 -2.04399E+03
  3.13520E+03  2.19837E+03  1.37302E+03  4.10655E+03 -1.75494E+03  1.98278E+03 -3.09732E+03  6.39376E+02
 -1.17401E+03 -3.27289E+03  2.51896E+03 -2.62417E+03  3.92723E+03 -1.89336E+03  2.52295E+03  9.64315E+02
  1.81674E+03  8.39224E+02  7.20960E+02 -8.53539E+02 -3.77519E+02  4.38486E+02  1.73154E+03 -6.87280E+02
  8.82083E+02 -9.33020E+02  2.44959E+03  1.77522E+03  1.74740E+03  3.61410E+03 -5.15926E+02  5.14584E+03
 -3.39221E+03  2.72266E+03 -3.76546E+03  7.64482E+02 -3.49564E+03 -2.03399E+03 -1.46158E+03 -2.70824E+03
  7.68658E+02 -3.17254E+03  5.06080E+02 -4.77097E+02  8.47778E+02  3.96152E+02 -1.21303E+03  3.35412E+03
 -2.69015E+03  1.70166E+03 -1.34369E+03 -7.46013E+02 -3.25304E+02 -3.77449E+03 -8.19662E+02 -3.05775E+03
  5.81582E+02 -2.24883E+03  2.15461E+03  3.17856E+02  8.53602E+02  7.24588E+02  5.97557E+02  3.36397E+03
 -2.64571E+03  1.93015E+01 -2.34695E+03 -1.09317E+03  5.15728E+02 -1.17959E+03  3.44586E+03 -1.54900E+03
  3.09635E+03 -2.67371E+02  4.32914E+03  1.81803E+03  2.49930E+03  2.90400E+03 -1.29755E+03  3.72222E+03
 -2.99939E+03  2.20277E+03 -3.35456E+03 -5.33973E+02 -1.33228E+03 -2.51221E+03  1.29047E+03 -2.00473E+03
  3.24279E+03 -5.85802E+02  1.52960E+03  2.08530E+03 -4.64335E+02  2.59082E+03  6.71038E+02  1.47556E+03
 -1.34202E+03  1.28480E+03 -1.09122E+03  3.10036E+02 -1.83072E+03 -2.08979E+01 -3.48836E+02  1.04520E+03
 -1.13376E+03  1.36303E+03 -2.68112E+03  1.56709E+03 -4.52567E+03  6.63132E+02 -4.15283E+03 -2.09496E+03
 -1.45443E+03 -4.54791E+03  7.20485E+02 -5.50860E+03  1.17632E+03 -5.19192E+03  5.37714E+03 -1.43437E+03
  4.97102E+03  9.71433E+02  3.37194E+03  5.22966E+03 -1.38628E+03  4.30495E+03 -1.21930E+03  1.68332E+03
 -1.35991E+03  1.92117E+03 -1.07101E+03 -3.24514E+02 -1.57184E+03 -5.09171E+02 -1.52177E+02 -3.89214E+02
 -2.15942E+03 -6.69469E+02 -1.27908E+03  8.27928E+02  8.21655E+02 -7.21675E+02  1.05896E+03 -1.78810E+03
  3.03241E+02 -9.46763E+02  2.95087E+02  3.25961E+02  2.47174E+03  3.05703E+03 -6.58528E+02  4.33736E+03
 -1.31812E+03  4.09156E+03 -3.99606E+03  3.14161E+03 -3.37803E+03 -6.82678E+02 -2.93738E+03 -2.78966E+03
 -1.99938E+03 -2.32113E+03  3.12637E+02 -2.84349E+03  1.93243E+03 -2.01655E+03  1.79718E+03  6.41249E+02
  1.15653E+03  6.05048E+02 -7.58902E+02  5.62977E+02 -7.22577E+02 -5.07306E+02 -2.93825E+02  3.70719E+02
  7.00927E+02  5.87739E+02  2.49613E+02  3.26390E+02  1.18401E+03  6.26155E+02  4.99851E+02 -3.23054E+02
 -8.79662E+02  1.06949E+03 -2.38181E+03 -8.09475E+02 -1.90829E+03 -1.88879E+02 -3.30065E+02 -2.54537E+03
  9.18336E+02 -2.42030E+03  1.72289E+03 -2.25504E+03  2.39240E+03 -5.29894E+02  2.33523E+03  1.93617E+03
  1.81803E+02  4.19084E+01 -9.89902E+02  3.26634E+02 -4.77621E+02  1.12386E+03 -1.00534E+03  5.52507E+02
 -8.08665E+02 -7.93785E+02 -4.06833E+02  9.94156E+02 -3.12553E+02  1.60266E+03 -2.02987E+03 -5.39956E+02
 -9.50149E+02 -9.92633E+02 -1.73964E+03 -1.76070E+03  3.36487E+02 -3.35629E+03  1.72989E+03 -4.62550E+02
  2.20327E+03  8.50508E+02 -6.33317E+02 -1.18699E+02 -6.26820E+02  1.66240E+03 -7.87861E+02  1.80255E+03
