 $NMID ID='MM_0lb_SNR200_15hz_g50_9.RAW', FMTDAT='(8E13.5)'
 TRAMP=1., VOLUME=1. $END
  3.10804E+05 -8.48860E+01  3.37367E+05  2.50727E+05  8.34280E+04  3.38000E+05 -1.32803E+05  2.50281E+05
 -1.90837E+05  8.24452E+04 -1.10585E+05 -3.20447E+04  1.33061E+03 -5.13815E+04  5.46518E+04 -3.89189E+02
  3.56042E+04  5.26834E+04 -1.68713E+04  7.59707E+04 -6.03191E+04  6.28112E+04 -8.44930E+04  3.26009E+04
 -8.13309E+04 -1.12089E+04 -5.69673E+04 -5.27569E+04 -1.48372E+04 -6.83699E+04  2.73803E+04 -4.54166E+04
  4.00172E+04  4.20137E+03  1.68225E+04  4.71383E+04 -3.48374E+04  4.79129E+04 -6.56756E+04  8.86025E+02
 -5.31583E+04 -5.75328E+04 -5.56491E+03 -7.55895E+04  3.36981E+04 -5.48812E+04  4.63493E+04 -1.67544E+04
  4.25015E+04  1.15897E+04  3.17011E+04  2.61530E+04  1.61367E+04  2.88917E+04 -5.50711E+03  2.68731E+04
 -2.26004E+04  1.18734E+04 -1.83833E+04 -5.27710E+03  5.08659E+03 -9.08898E+03  2.22079E+04  1.10213E+04
  8.05936E+03  3.44088E+04 -3.18113E+04  3.58986E+04 -6.41648E+04  1.80100E+03 -5.61775E+04 -4.21584E+04
 -1.26366E+04 -6.25198E+04  3.96930E+04 -4.37318E+04  5.83972E+04 -2.18611E+03  3.39836E+04  3.27375E+04
 -6.79873E+03  3.49169E+04 -2.92584E+04  1.58524E+04 -2.96242E+04 -4.77310E+03 -1.55202E+04 -1.01716E+04
 -8.24765E+03 -1.33797E+04 -2.39507E+03 -1.77808E+04  7.12281E+03 -2.18086E+04  1.59809E+04 -1.32367E+04
  1.19021E+04  5.03913E+03 -9.09619E+03  1.14305E+04 -2.04300E+04 -3.15796E+03 -8.41805E+03 -3.37283E+04
  2.23132E+04 -4.36282E+04  4.67765E+04 -1.95845E+04  4.44874E+04  2.09499E+04  1.58512E+04  4.35222E+04
 -1.61129E+04  3.27466E+04 -2.58219E+04  1.99840E+03 -9.84837E+03 -2.70913E+04  2.04462E+04 -3.40707E+04
  3.93547E+04 -7.79416E+03  3.48489E+04  2.30100E+04  1.71518E+04  4.65239E+04 -8.57542E+03  4.96675E+04
 -3.01747E+04  3.31714E+04 -4.12289E+04  9.78747E+03 -4.19709E+04 -1.63178E+04 -2.28676E+04 -3.67639E+04
  7.24861E+03 -3.64917E+04  3.20690E+04 -1.44077E+04  2.83231E+04  1.16119E+04  4.82976E+03  2.01746E+04
 -1.37457E+04  7.19991E+03 -1.03911E+04 -6.83785E+03  6.81681E+03 -9.45634E+03  1.71930E+04  6.35397E+03
  1.26703E+04  2.11056E+04 -6.06112E+03  2.46910E+04 -2.19936E+04  1.09353E+04 -2.75733E+04 -6.54316E+03
 -1.93331E+04 -1.65858E+04 -7.88930E+03 -1.91850E+04  3.29246E+03 -2.01861E+04  1.53820E+04 -1.77564E+04
  2.44207E+04 -1.29328E+04  3.21568E+04  3.07411E+03  2.43169E+04  1.91886E+04  4.41917E+03  3.52852E+04
 -1.80288E+04  2.96079E+04 -2.65123E+04  1.11794E+04 -1.97227E+04 -1.03319E+04 -5.04599E+03 -1.34206E+04
  1.02837E+03 -2.46850E+03 -4.36035E+03  6.03914E+03 -1.47465E+04  4.41359E+03 -1.52167E+04 -5.76165E+03
 -9.67830E+03 -1.82067E+04  4.58258E+03 -2.25043E+04  1.46117E+04 -1.63925E+04  1.71139E+04 -9.93430E+02
  1.14828E+04  1.39738E+04 -9.27667E+02  1.94865E+04 -1.26616E+04  1.12498E+04 -1.85289E+04 -3.48864E+03
 -1.32652E+04 -1.58712E+04 -2.27166E+03 -2.21939E+04  1.01498E+04 -1.89304E+04  1.92006E+04 -9.55718E+03
  1.80264E+04  1.49345E+02  1.25800E+04  3.44907E+03  7.60132E+03  4.90535E+02  1.07934E+04 -4.42390E+02
  1.73658E+04  1.98673E+03  1.75120E+04  1.52996E+04  1.23379E+04  2.87236E+04 -1.86247E+03  3.22286E+04
 -1.77878E+04  2.49476E+04 -3.04942E+04  1.37368E+04 -3.22425E+04 -2.37437E+03 -2.67186E+04 -1.95781E+04
 -1.16085E+04 -2.56550E+04  8.09848E+03 -2.36106E+04  1.92866E+04 -1.30473E+04  1.86760E+04  4.74818E+03
  8.03168E+03  1.35285E+04 -7.48519E+03  1.15326E+04 -1.54969E+04  3.57470E+03 -1.15528E+04 -9.99303E+03
  2.90371E+02 -1.50313E+04  7.92965E+03 -1.20598E+04  9.39353E+03 -1.24660E+03  1.92347E+03  5.48844E+03
 -6.25589E+03  3.82632E+03 -6.29835E+03 -6.46789E+03  7.97640E+02 -1.26927E+04  8.92986E+03 -1.19807E+04
  1.43859E+04 -6.77769E+03  1.58103E+04  3.59070E+03  1.32697E+04  1.25588E+04  6.20882E+03  1.79839E+04
 -2.40201E+03  2.00412E+04 -1.34605E+04  1.34438E+04 -1.44750E+04  3.71905E+03 -1.09528E+04 -3.40303E+03
 -4.77157E+03 -4.91104E+03 -2.56883E+03  1.34612E+03 -1.56204E+03  1.84448E+03 -3.46255E+03  4.88436E+03
 -9.26803E+03 -4.37662E+02 -1.02038E+04 -7.69428E+03 -3.39002E+03 -1.35108E+04  5.96507E+03 -9.76220E+03
  8.40001E+03 -5.08875E+03  5.98350E+03  3.02630E+03  5.80182E+02  3.95634E+03 -4.78649E+03 -5.11045E+02
 -4.27558E+03 -6.58632E+03 -6.74065E+02 -9.67010E+03  5.55802E+03 -9.33687E+03  1.29499E+04 -5.20299E+03
  1.38387E+04  8.24332E+02  1.01546E+04  9.81836E+03  2.20866E+03  1.16799E+04 -6.65699E+03  1.13656E+04
 -8.85433E+03  2.86534E+03 -4.29553E+03 -2.20681E+03  2.06880E+03 -2.61643E+03  6.41801E+03 -1.14036E+02
  4.13551E+03  4.19890E+03  1.32883E+03  7.69226E+03 -5.88933E+03  8.92456E+03 -9.58356E+03  1.40772E+03
 -6.77670E+03 -5.85714E+03  2.32818E+02 -8.63847E+03  5.34644E+03 -3.97928E+03  4.55648E+03  6.62161E+02
  3.44943E+02  5.32108E+03 -5.70772E+03  7.38394E+03 -8.90124E+03  2.59585E+03 -7.02958E+03 -1.40834E+03
 -4.50151E+03 -8.35780E+03  1.64374E+03 -1.07281E+04  8.51230E+03 -7.73609E+03  9.28650E+03  1.80250E+03
  7.35052E+03  7.69979E+03  3.15707E+02  9.41628E+03 -6.53694E+03  5.48232E+03 -7.91741E+03 -2.16035E+03
 -6.95710E+03 -7.30100E+03 -1.86493E+03 -7.57978E+03  4.30392E+03 -5.73241E+03  5.45281E+03 -2.57475E+03
  3.87965E+03  1.09000E+03  8.41187E+01  7.21214E+02  1.78471E+01 -2.26718E+03  9.18242E+02 -3.57038E+03
  6.29042E+03 -2.44868E+03  8.22467E+03  8.10596E+02  9.08893E+03  5.32194E+03  6.34922E+03  1.03836E+04
 -3.01807E+03  1.24690E+04 -1.09933E+04  1.03153E+04 -1.31118E+04  2.49133E+03 -1.07188E+04 -4.38795E+03
 -7.36096E+03 -9.28104E+03  2.45398E+01 -7.53462E+03  2.00350E+03 -4.88553E+03  1.30479E+03 -3.31888E+03
  1.60913E+03 -1.48577E+03  2.61172E+03 -2.67705E+03  3.76481E+03 -2.15024E+03  4.68217E+03  8.65053E+02
  5.78194E+03  2.34424E+03  1.47651E+03  5.26155E+03 -2.76710E+03  6.59976E+03 -7.61062E+03  3.86689E+03
 -8.27910E+03 -1.30419E+03 -4.74813E+03 -3.90628E+03  5.30403E+02 -8.47795E+03  4.87929E+03 -8.42846E+03
  8.18312E+03 -3.61746E+03  9.55881E+03  4.16367E+01  7.35085E+03  8.27408E+03  1.15409E+03  1.02100E+04
 -3.21975E+03  8.89016E+03 -5.52089E+03  2.35377E+03 -3.64324E+03 -1.85234E+03 -1.56178E+03 -1.38084E+03
 -7.83944E+02  1.07868E+03 -6.12191E+02  1.36306E+03 -2.44518E+03  1.09458E+03 -6.29868E+03  4.39020E+02
 -3.32242E+03 -6.33714E+03  1.37005E+03 -8.29126E+03  4.89668E+03 -7.44421E+03  8.25721E+03 -1.73837E+03
  5.77661E+03  3.33790E+03  3.02289E+03  6.06132E+03 -2.28022E+02  7.92867E+03 -4.53078E+03  3.12346E+03
 -6.46516E+03  7.25282E+01 -5.53426E+03 -3.09271E+03 -4.86268E+02 -4.68529E+03  3.36687E+03 -4.58775E+03
  4.76919E+03 -1.97616E+03  2.01271E+03  4.46854E+02  1.01781E+03  2.47971E+03  7.41619E+02  1.42658E+03
  1.48071E+03  6.50083E+02  2.82865E+03  2.04615E+03  1.09437E+03  2.85255E+03  2.15662E+03  2.88024E+03
 -9.69009E+02  5.53486E+03 -4.05693E+03  5.82030E+03 -6.36179E+03  2.18682E+03 -6.11599E+03 -1.52661E+03
 -3.10570E+03 -7.51210E+03 -3.74877E+02 -7.63420E+03  3.84967E+03 -4.81071E+03  6.31659E+03 -6.15254E+02
  5.52824E+03  2.07914E+03  1.20912E+03  5.69930E+03 -7.13691E+02  3.12933E+03 -1.14590E+03  5.11108E+02
 -9.24618E+02 -2.73166E+03  1.63176E+03 -2.48461E+03  2.10820E+03 -1.55978E+03  2.53965E+03  7.13088E+02
  6.14261E+02  1.40054E+03  9.73807E+02  1.51474E+03  8.86968E+02  8.01092E+02  1.87741E+03 -6.95586E+02
  2.57763E+02  3.50675E+02  4.62900E+03  1.00250E+03  3.33628E+02  3.39032E+03 -8.09427E+02  5.27678E+03
 -2.37579E+03  3.07402E+03 -3.49973E+03  6.94188E+02 -4.05019E+03 -1.90662E+02 -1.19928E+03 -2.31964E+03
  7.20319E+02 -1.37986E+03  1.72157E+03 -6.27049E+02  1.76939E+03  1.84244E+03 -6.76579E+02  3.07721E+03
 -3.05585E+03  1.36748E+03 -1.58056E+03 -5.22183E+02 -1.14613E+03 -2.84325E+03  8.20807E+02 -2.64772E+03
  1.64452E+03 -3.04984E+03  1.39143E+03 -4.77022E+02  2.12558E+03 -1.11573E+02  6.80085E+02  1.52196E+03
 -1.80501E+03  9.75681E+02 -7.53653E+02 -3.82952E+02  8.45802E+02 -1.73851E+03  3.86998E+03 -1.57537E+03
  2.95888E+03 -3.96984E+02  3.71073E+03  2.56246E+03  2.67895E+03  4.15706E+03 -7.62548E+02  3.60201E+03
 -2.04365E+03  1.83711E+03 -2.12365E+03 -7.50145E+02 -1.69394E+03 -1.61155E+03 -1.48730E+03 -2.73693E+03
  2.42890E+03 -1.05575E+03  1.04726E+03  1.08121E+03  4.05338E+02  2.10408E+03  1.31909E+02  1.86728E+03
 -1.69985E+03  8.84218E+02 -1.96689E+03 -3.12679E+02 -9.40143E+02  1.76663E+03 -8.00840E+02  1.75586E+03
 -2.29161E+03  1.79644E+03 -2.21435E+03  5.79962E+02 -3.29701E+03  7.08461E+02 -4.06241E+03 -9.80321E+02
 -3.13597E+03 -3.66702E+03  7.18693E+02 -6.12013E+03  2.89784E+03 -3.66607E+03  5.80674E+03 -1.41887E+03
  4.90004E+03 -3.58272E+02  2.02442E+03  3.04563E+03 -7.28604E+02  2.37332E+03 -1.88446E+03  2.39026E+03
 -1.65522E+03  1.86454E+03 -1.08793E+03 -2.88006E+02 -3.35040E+02  1.26929E+03 -5.38353E+02 -3.60564E+02
 -6.79910E+02 -1.08766E+03 -2.17452E+02 -2.68179E+02 -5.58874E+02 -3.08365E+02  1.15360E+03 -5.59690E+02
  1.58378E+03 -8.70369E+02  1.70702E+03  5.38776E+01  2.57284E+03  2.46236E+03  2.95597E+02  2.50588E+03
 -9.98119E+02  5.08565E+03 -2.79287E+03  2.64818E+03 -5.19022E+03  6.90018E+02 -2.34685E+03 -2.27485E+03
 -1.81296E+03 -4.14547E+03 -5.72030E+02 -1.85105E+03  1.35906E+03 -1.38024E+03  1.56632E+03  1.43338E+02
  9.04307E+02  4.08836E+02  1.80842E+01  8.20265E+02  2.59615E+02  7.53492E+01 -7.23630E+02 -1.45188E+03
 -1.76599E+02  2.19342E+02  1.51717E+03  9.17023E+02  8.20942E+02  1.37153E+03  7.12109E+02  6.96928E+02
 -1.45865E+03  1.59286E+03 -6.49904E+02  2.22976E+02 -1.70724E+03 -2.46646E+03 -1.07628E+03 -2.47264E+03
  9.20936E+02 -3.02006E+03  1.09593E+03 -1.10018E+02  3.09471E+03  7.26909E+02  1.23789E+03  1.52310E+03
 -4.87933E+02  3.35629E+03 -1.18677E+03  1.89378E+03 -2.40068E+03  8.59361E+02 -2.18357E+03  7.04173E+02
 -7.21874E+02 -8.36787E+02 -8.95086E+02  1.10126E+03 -5.36601E+02  1.48366E+03 -3.38283E+03 -2.53215E+02
 -2.04936E+03 -5.77693E+02  5.72842E+02 -1.68825E+03  2.01692E+02 -1.75387E+03  2.07287E+03 -8.26705E+02
  2.43074E+03  7.04105E+02 -4.59291E+02  9.55802E+02 -2.45900E+02  2.41501E+03 -7.51738E+02  5.77881E+02
