 $NMID ID='MM_0lb_SNR200_16hz_g55_83.RAW', FMTDAT='(8E13.5)'
 TRAMP=1., VOLUME=1. $END
  3.09918E+05  1.19944E+03  3.38186E+05  2.51510E+05  8.52214E+04  3.37812E+05 -1.31957E+05  2.51030E+05
 -1.88891E+05  8.27261E+04 -1.11939E+05 -3.40108E+04  5.02755E+02 -4.99370E+04  5.46254E+04 -1.58046E+02
  3.50535E+04  5.23209E+04 -1.60808E+04  7.55354E+04 -6.00891E+04  6.41406E+04 -8.38207E+04  3.20117E+04
 -8.04654E+04 -1.14897E+04 -5.74527E+04 -5.07435E+04 -1.59463E+04 -7.00332E+04  2.80273E+04 -4.50391E+04
  4.04611E+04  3.83875E+03  1.51005E+04  4.75731E+04 -3.44035E+04  4.75967E+04 -6.61664E+04 -3.97498E+02
 -5.28835E+04 -5.65674E+04 -6.97361E+03 -7.54609E+04  3.40408E+04 -5.37468E+04  4.77182E+04 -1.76515E+04
  4.27764E+04  1.14499E+04  3.19918E+04  2.52532E+04  1.57906E+04  2.99757E+04 -5.57176E+03  2.60470E+04
 -2.11384E+04  1.29055E+04 -1.98224E+04 -2.75448E+03  4.62706E+03 -6.71813E+03  2.22878E+04  1.23205E+04
  7.95690E+03  3.45864E+04 -3.16256E+04  3.58437E+04 -6.24939E+04  2.86935E+03 -5.75254E+04 -4.25273E+04
 -1.29560E+04 -6.36838E+04  4.02433E+04 -4.52608E+04  5.70257E+04 -3.54012E+03  3.35957E+04  3.15578E+04
 -6.91816E+03  3.62973E+04 -2.99141E+04  1.60230E+04 -2.92830E+04 -5.59476E+03 -1.65611E+04 -1.01864E+04
 -8.10578E+03 -1.33007E+04 -1.13396E+03 -1.78131E+04  7.40569E+03 -2.37536E+04  1.52654E+04 -1.31467E+04
  1.06080E+04  4.27183E+03 -6.55989E+03  1.30421E+04 -2.02508E+04 -3.97986E+03 -9.62037E+03 -3.41381E+04
  2.32096E+04 -4.30604E+04  4.78868E+04 -2.04668E+04  4.45129E+04  1.84390E+04  1.54988E+04  4.42257E+04
 -1.59663E+04  3.29422E+04 -2.49512E+04  2.03773E+03 -1.04009E+04 -2.82422E+04  1.97566E+04 -3.33755E+04
  4.08010E+04 -7.99777E+03  3.51957E+04  2.18909E+04  1.69473E+04  4.53145E+04 -8.40431E+03  4.76755E+04
 -3.15474E+04  3.32477E+04 -4.18125E+04  8.95812E+03 -4.23979E+04 -1.75023E+04 -2.32805E+04 -3.81401E+04
  6.18575E+03 -3.85489E+04  3.23280E+04 -1.36553E+04  3.00015E+04  9.96477E+03  4.96185E+03  1.84607E+04
 -1.28011E+04  8.41196E+03 -9.99172E+03 -7.79164E+03  4.95640E+03 -1.13859E+04  1.76796E+04  6.51221E+03
  1.19644E+04  2.16765E+04 -6.07380E+03  2.49348E+04 -2.31843E+04  9.81968E+03 -2.76815E+04 -5.44582E+03
 -2.06141E+04 -1.74726E+04 -7.93301E+03 -1.88880E+04  4.11649E+03 -1.87156E+04  1.54260E+04 -1.69529E+04
  2.40169E+04 -1.17116E+04  3.09093E+04  1.69499E+03  2.23114E+04  1.89856E+04  4.60548E+03  3.48074E+04
 -1.76443E+04  2.99720E+04 -2.73653E+04  9.36350E+03 -2.10919E+04 -1.13165E+04 -4.28626E+03 -1.24517E+04
  2.70146E+03 -1.97785E+03 -5.10000E+03  5.45330E+03 -1.34857E+04  4.98675E+03 -1.64674E+04 -6.50998E+03
 -9.83840E+03 -1.85974E+04  6.52382E+03 -2.16436E+04  1.39510E+04 -1.62497E+04  1.74202E+04 -1.00660E+03
  1.02444E+04  1.23559E+04 -2.98348E+02  1.74123E+04 -1.22589E+04  9.85991E+03 -1.77475E+04 -3.69021E+03
 -1.28193E+04 -1.56397E+04 -1.50273E+03 -2.23841E+04  9.31111E+03 -1.78451E+04  1.91524E+04 -8.87332E+03
  1.61977E+04  1.12763E+03  1.25480E+04  3.74881E+03  6.29070E+03  1.20721E+03  9.64033E+03 -1.41841E+03
  1.68519E+04  2.61684E+03  1.84884E+04  1.45201E+04  1.28063E+04  3.05731E+04 -3.05981E+03  3.16007E+04
 -1.91977E+04  2.51662E+04 -2.91414E+04  1.23880E+04 -3.11992E+04 -3.07219E+03 -2.63324E+04 -1.87141E+04
 -1.23100E+04 -2.39968E+04  9.21905E+03 -2.25567E+04  2.04337E+04 -1.31719E+04  1.87838E+04  5.67610E+03
  7.22279E+03  1.33964E+04 -9.45601E+03  1.28447E+04 -1.57198E+04  1.86434E+03 -1.15663E+04 -9.50671E+03
 -1.29568E+03 -1.37314E+04  7.70190E+03 -1.02523E+04  9.66871E+03 -2.12653E+03  3.47596E+03  6.02215E+03
 -4.87058E+03  2.71381E+03 -5.07251E+03 -5.23296E+03 -6.51710E+02 -1.34845E+04  8.58789E+03 -1.31222E+04
  1.50460E+04 -6.56088E+03  1.69544E+04  3.83781E+03  1.34678E+04  1.18756E+04  6.31328E+03  1.84257E+04
 -3.62377E+03  2.07102E+04 -1.22373E+04  1.21416E+04 -1.41432E+04  3.07856E+03 -1.11488E+04 -1.82681E+03
 -6.01409E+03 -4.69827E+03  4.45471E+02  8.13241E+02 -1.94477E+03  2.35908E+03 -5.69826E+03  5.88189E+03
 -9.91505E+03 -1.29090E+03 -1.07206E+04 -8.88942E+03 -4.48550E+03 -1.31795E+04  3.89081E+03 -1.01749E+04
  8.15897E+03 -4.04699E+03  7.24750E+03  2.55887E+03  7.30379E+02  3.18478E+03 -4.07730E+03 -8.44368E+02
 -5.26516E+03 -6.50734E+03 -1.55894E+03 -1.01571E+04  6.50691E+03 -1.00426E+04  1.25833E+04 -4.83782E+03
  1.45503E+04 -1.32126E+02  1.04599E+04  8.88073E+03  9.95591E+02  1.14008E+04 -7.62304E+03  9.64145E+03
 -8.32359E+03  2.78864E+03 -4.24622E+03 -1.38935E+03  1.16880E+03 -2.23420E+03  6.39436E+03 -1.43476E+03
  4.80150E+03  5.60233E+03  6.70000E+02  7.08061E+03 -6.05102E+03  7.63918E+03 -9.52938E+03  1.49902E+03
 -7.74172E+03 -4.94292E+03  4.38444E+02 -7.69103E+03  5.50282E+03 -3.55485E+03  5.58086E+03  1.64121E+03
  1.05562E+03  4.16193E+03 -5.66703E+03  5.95656E+03 -6.40451E+03  3.46030E+03 -6.72500E+03 -1.64065E+03
 -4.27278E+03 -6.71840E+03  1.94098E+03 -9.19840E+03  8.36568E+03 -6.51564E+03  7.75121E+03  1.44615E+03
  5.73802E+03  7.82895E+03 -5.72980E+02  8.05509E+03 -5.83428E+03  5.12299E+03 -6.72174E+03  4.49452E+02
 -6.65133E+03 -6.87473E+03 -1.53503E+03 -5.69552E+03  4.74085E+03 -6.26692E+03  3.65922E+03 -2.64433E+03
  3.91844E+03  1.61321E+03 -2.85320E+02  1.39528E+03 -2.44226E+02 -9.42660E+02  1.25797E+02 -2.63082E+03
  6.51992E+03 -1.03013E+03  8.67780E+03  9.04830E+02  7.83749E+03  4.30075E+03  6.30689E+03  1.12471E+04
 -1.90353E+03  1.28028E+04 -1.07131E+04  9.50006E+03 -1.39518E+04  1.68878E+03 -1.10592E+04 -3.80105E+03
 -5.89270E+03 -8.01699E+03  4.37732E+02 -6.89386E+03  2.76926E+03 -3.28588E+03  2.73766E+03 -2.07724E+03
  2.18423E+03 -1.99857E+03  2.23554E+03 -3.35280E+03  3.03045E+03 -1.89835E+03  5.16117E+03  4.45425E+02
  6.47091E+03  2.35952E+03  2.63136E+03  3.72571E+03 -1.47198E+03  4.85169E+03 -4.89424E+03  4.07035E+03
 -6.96745E+03 -1.39176E+03 -3.61513E+03 -4.36686E+03 -3.39843E+02 -8.33939E+03  4.54444E+03 -8.19231E+03
  6.05305E+03 -4.64888E+03  9.06966E+03  7.64798E+01  6.14219E+03  5.61338E+03  8.48820E+02  8.43741E+03
 -4.00993E+03  8.35725E+03 -4.39626E+03  2.33033E+03 -3.15629E+03 -1.07296E+03 -7.10983E+02 -1.17463E+03
  6.87238E+02 -3.34180E+01  4.06451E+02  2.23077E+03 -4.62774E+03  8.79967E+02 -5.58483E+03 -6.65341E+02
 -1.59896E+03 -4.79293E+03 -2.68149E+01 -7.00646E+03  3.59586E+03 -5.25670E+03  6.68250E+03 -1.46114E+03
  7.27341E+03  3.99647E+03  2.68892E+03  4.58364E+03  2.20697E+02  5.32043E+03 -3.24408E+03  4.10889E+03
 -5.20599E+03  7.21538E+02 -5.25537E+03 -4.60037E+03 -6.74101E+01 -4.20907E+03  2.41253E+03 -4.02732E+03
  4.33072E+03 -2.86205E+03  1.63404E+03  1.76420E+03  7.76296E+02  1.90380E+03  1.06513E+03 -2.82233E+02
  2.01094E+03  1.59647E+03  6.42836E+02  1.19315E+03  2.68569E+03  2.60570E+03  1.66221E+03  3.09996E+03
 -2.53713E+03  4.72503E+03 -3.57094E+03  5.87782E+03 -6.15014E+03  6.96907E+02 -6.09234E+03 -1.93141E+03
 -3.13795E+03 -4.88963E+03  9.89950E+02 -6.56639E+03  2.76202E+03 -4.99390E+03  5.18292E+03 -1.38580E+03
  3.12672E+03  1.44740E+03  1.37094E+03  4.87182E+03 -1.80280E+03  1.38432E+03 -8.49847E+02  5.32472E+02
 -3.36573E+02 -2.18646E+03  1.06499E+03 -1.88560E+03  2.33956E+03 -1.96765E+03  2.68395E+03  5.45247E+02
  1.83160E+03  4.80597E+02  1.05362E+02  7.04954E+02 -1.19606E+01  8.51052E+02  1.44559E+03 -1.00191E+03
  8.89110E+02 -4.86877E+01  1.87547E+03  6.59054E+02  2.02884E+02  3.04354E+03 -2.22528E+02  2.70370E+03
 -2.49051E+03  2.03844E+03 -2.66041E+03  9.38954E+02 -3.72174E+03 -2.13202E+03 -6.37295E+02 -1.54457E+03
  4.37969E+02 -2.38952E+03  1.08885E+03 -4.91531E+02  1.15163E+03  1.24171E+03 -7.53544E+02  1.13197E+03
 -3.46671E+03  1.17442E+03 -3.15055E+03 -9.70751E+02 -1.38784E+03 -3.08948E+03  4.79335E+02 -2.51074E+03
  1.63294E+03 -1.84706E+03  1.16025E+03 -1.95774E+02  1.84387E+03  7.23287E+02  5.62475E+02  1.36952E+03
  1.45545E+03  7.56353E+02 -1.26042E+03 -1.62236E+02  8.01693E+02 -1.78381E+03  2.80115E+03 -2.28481E+03
  2.64589E+03  3.32843E+02  4.40130E+03  1.14828E+03  1.86702E+02  3.06827E+03  6.86073E+02  2.62962E+03
 -2.33013E+03  1.76222E+03 -3.03123E+03 -7.87337E+02 -1.75554E+03 -2.36940E+03  1.01702E+03 -2.52484E+03
  1.14437E+03 -1.89502E+03  1.34804E+03  8.86058E+02  4.20516E+02  1.81716E+03  3.86993E+02  2.77690E+03
 -3.65707E+02  8.02023E+02 -6.56541E+02  2.49725E+02 -3.10788E+02  1.29313E+03 -1.05225E+03  2.75757E+02
 -1.96478E+03  2.02324E+03 -2.85689E+03 -1.23688E+02 -3.25061E+03 -1.45064E+03 -4.39427E+03 -3.46038E+03
 -9.84454E+02 -3.10557E+03  8.02106E+02 -5.04193E+03  2.69958E+03 -2.78756E+03  3.35574E+03 -6.24772E+02
  3.20787E+03 -6.63042E+02  2.31248E+03  2.30677E+03 -7.63573E+02  1.92224E+03 -1.02733E+03  2.17228E+03
 -8.14154E+02  8.72288E+02 -2.31273E+03 -2.46760E+02  3.20737E+02  3.36321E+02 -1.17933E+03  3.13522E+02
 -1.79286E+03  3.69683E+02 -1.37310E+03 -9.26693E+02 -1.21092E+02 -1.52796E+03  9.22286E+02 -9.33320E+02
  1.94016E+03 -9.99538E+02  1.99311E+03  5.09394E+02  2.05623E+03  1.44936E+03 -1.37428E+03  2.31467E+03
 -1.29676E+03  2.76715E+03 -2.21809E+03  2.50550E+03 -3.49744E+03 -4.31051E+01 -1.82986E+03 -2.19234E+03
 -1.62280E+03 -2.73744E+03  3.57499E+02 -2.94934E+03  1.51737E+03  3.57166E+02  1.05628E+03  1.25483E+02
  2.83165E+02  1.49645E+03  7.13416E+02 -1.27391E+02 -1.54144E+02 -4.65127E+02  1.83240E+03  4.09854E+01
 -2.81255E+02  7.43096E+02  1.87198E+03  6.75883E+02  1.03124E+03  7.29992E+02  4.95290E+02  4.56154E+02
 -8.14300E+02  1.95088E+03 -1.01309E+03  9.48245E+01 -4.83810E+02 -5.49942E+02 -1.54629E+01 -2.80340E+03
  8.32658E-01 -5.41363E+02  5.20749E+02 -4.85567E+02  1.79089E+03 -2.46191E+01  1.05233E+03  1.15065E+03
  6.60348E+02  1.25724E+03 -2.89416E+02  1.10147E+03 -2.03174E+03  1.04936E+03 -7.88205E+02  1.65375E+03
  6.66687E+02 -5.85462E+01 -7.59557E+01  1.12214E+03 -1.70932E+03  1.29341E+03 -4.26233E+02 -2.84649E+02
 -1.86842E+03 -5.94142E+02 -1.88019E+03 -2.53838E+03  1.42478E+03 -2.78488E+03  1.57287E+03 -9.13953E+02
  8.07787E+02  1.46748E+03  9.29675E+02  9.80908E+02  9.90022E+01  1.18812E+03 -7.81042E+02  8.20023E+02
