 $NMID ID='MM_0lb_SNR200_14hz_g55_46.RAW', FMTDAT='(8E13.5)'
 TRAMP=1., VOLUME=1. $END
  3.09520E+05  3.04332E+02  3.38060E+05  2.51618E+05  8.47231E+04  3.38536E+05 -1.33507E+05  2.49964E+05
 -1.90103E+05  8.35276E+04 -1.12308E+05 -3.17927E+04  5.56759E+02 -5.10982E+04  5.46087E+04  3.04014E+02
  3.60222E+04  5.22523E+04 -1.62971E+04  7.56099E+04 -5.97475E+04  6.44987E+04 -8.51174E+04  3.20709E+04
 -8.20474E+04 -1.12841E+04 -5.71974E+04 -5.18386E+04 -1.51105E+04 -7.09322E+04  2.76016E+04 -4.68670E+04
  4.00843E+04  3.73036E+03  1.67735E+04  4.80137E+04 -3.54644E+04  4.73863E+04 -6.71583E+04 -6.63462E+02
 -5.32711E+04 -5.76493E+04 -6.42210E+03 -7.71280E+04  3.47906E+04 -5.52290E+04  4.81555E+04 -1.67207E+04
  4.37280E+04  1.12559E+04  3.13058E+04  2.62043E+04  1.61792E+04  3.01817E+04 -4.28728E+03  2.67948E+04
 -2.39439E+04  1.27630E+04 -1.86526E+04 -5.34087E+03  5.72017E+03 -8.59465E+03  2.23654E+04  1.30772E+04
  6.74639E+03  3.51976E+04 -3.27100E+04  3.54572E+04 -6.33804E+04  2.69725E+03 -5.74218E+04 -4.18566E+04
 -1.15564E+04 -6.33650E+04  3.89045E+04 -4.67422E+04  5.88055E+04 -1.09294E+03  3.60243E+04  3.33734E+04
 -6.04646E+03  3.65642E+04 -2.97674E+04  1.64512E+04 -3.11227E+04 -5.56220E+03 -1.77087E+04 -1.08149E+04
 -7.67670E+03 -1.31505E+04 -7.34363E+02 -1.92321E+04  8.28033E+03 -2.38251E+04  1.57137E+04 -1.19370E+04
  1.15754E+04  4.78678E+03 -7.64758E+03  1.39619E+04 -2.13255E+04 -5.78534E+03 -7.53789E+03 -3.34561E+04
  2.37811E+04 -4.48013E+04  4.84936E+04 -2.02208E+04  4.53569E+04  2.03307E+04  1.61491E+04  4.35268E+04
 -1.52161E+04  3.38416E+04 -2.59555E+04  3.12841E+03 -1.05279E+04 -2.85293E+04  2.06136E+04 -3.42885E+04
  4.20180E+04 -9.93188E+03  3.68166E+04  2.49831E+04  1.82625E+04  4.72567E+04 -7.78762E+03  5.16597E+04
 -3.21330E+04  3.41401E+04 -4.35800E+04  9.21043E+03 -4.32603E+04 -1.66827E+04 -2.48988E+04 -3.92793E+04
  5.88088E+03 -3.83811E+04  3.21321E+04 -1.49741E+04  2.94833E+04  9.29871E+03  5.59356E+03  2.02793E+04
 -1.51347E+04  8.42566E+03 -1.10762E+04 -8.50671E+03  6.35758E+03 -9.90263E+03  1.94204E+04  6.53744E+03
  1.31633E+04  2.25294E+04 -4.11946E+03  2.49463E+04 -2.25992E+04  1.10041E+04 -2.80179E+04 -4.88410E+03
 -2.18380E+04 -1.79028E+04 -9.38994E+03 -2.08082E+04  3.82784E+03 -2.03548E+04  1.63901E+04 -1.88918E+04
  2.86272E+04 -1.27505E+04  3.40292E+04  2.46949E+03  2.36090E+04  2.02541E+04  3.91826E+03  3.69177E+04
 -1.87180E+04  3.14535E+04 -2.91978E+04  1.10015E+04 -2.11683E+04 -1.04235E+04 -4.52312E+03 -1.27779E+04
  2.35533E+03 -2.79584E+03 -4.64165E+03  6.94430E+03 -1.62764E+04  5.69033E+03 -1.69441E+04 -6.32729E+03
 -1.08623E+04 -2.02485E+04  4.90508E+03 -2.46265E+04  1.66223E+04 -1.68498E+04  1.85422E+04 -1.62536E+03
  1.17873E+04  1.36139E+04 -2.81568E+02  1.94147E+04 -1.26641E+04  1.07360E+04 -1.83246E+04 -4.42899E+03
 -1.54819E+04 -1.74356E+04 -1.94783E+03 -2.39799E+04  1.11842E+04 -1.90221E+04  1.97671E+04 -1.00531E+04
  1.92901E+04  2.98017E+02  1.37600E+04  2.49949E+03  6.10963E+03  7.41225E+02  9.69124E+03 -1.27346E+03
  1.83229E+04  3.01447E+03  1.87037E+04  1.65864E+04  1.39897E+04  3.15119E+04 -3.61034E+03  3.33862E+04
 -2.06394E+04  2.92270E+04 -3.36230E+04  1.38024E+04 -3.47336E+04 -3.46270E+03 -2.84623E+04 -2.07083E+04
 -1.12153E+04 -2.93107E+04  9.15709E+03 -2.51918E+04  2.24234E+04 -1.39351E+04  1.98287E+04  6.75693E+03
  6.72857E+03  1.51465E+04 -9.88933E+03  1.25474E+04 -1.74092E+04  3.96389E+03 -1.35593E+04 -9.62755E+03
 -6.93460E+02 -1.59130E+04  7.50509E+03 -1.12591E+04  1.06583E+04 -1.72888E+03  1.20457E+03  7.37113E+03
 -7.45664E+03  2.84877E+03 -6.96275E+03 -5.91933E+03 -1.01215E+03 -1.37668E+04  1.11303E+04 -1.44297E+04
  1.81229E+04 -7.11214E+03  1.92107E+04  2.68350E+03  1.72533E+04  1.31232E+04  7.62292E+03  2.17934E+04
 -3.27513E+03  2.30376E+04 -1.51253E+04  1.51646E+04 -1.65655E+04  3.09346E+03 -1.26627E+04 -4.41644E+03
 -4.70539E+03 -4.16213E+03 -6.31759E+02  1.55925E+03 -2.33001E+03  3.49046E+03 -5.66892E+03  4.63144E+03
 -1.10032E+04 -4.22720E+02 -1.15613E+04 -9.17193E+03 -4.29686E+03 -1.50638E+04  3.64213E+03 -1.20503E+04
  1.11500E+04 -4.03990E+03  7.33842E+03  2.79527E+03  4.75008E+02  5.56570E+03 -6.25097E+03 -2.24681E+02
 -5.33004E+03 -8.67861E+03  1.64553E+02 -1.12046E+04  6.08322E+03 -1.13732E+04  1.41216E+04 -6.97175E+03
  1.78546E+04  1.35760E+03  1.26490E+04  9.16841E+03  2.47758E+03  1.41018E+04 -7.12837E+03  1.16809E+04
 -9.54822E+03  3.38779E+03 -5.61982E+03 -3.03708E+03  1.07417E+03 -2.80481E+03  6.55973E+03 -2.09112E+03
  5.99362E+03  5.25672E+03  1.10295E+03  9.30580E+03 -7.47415E+03  8.70295E+03 -1.07316E+04  3.08348E+03
 -7.56032E+03 -5.36268E+03 -3.71754E+02 -9.34022E+03  5.76998E+03 -5.73222E+03  6.61984E+03  1.14799E+03
  5.76637E+02  6.29652E+03 -6.00249E+03  7.95723E+03 -9.26624E+03  4.61095E+03 -9.45668E+03 -2.59394E+03
 -5.88933E+03 -1.15303E+04  2.53658E+03 -1.16024E+04  1.06423E+04 -7.14229E+03  1.17289E+04  1.64631E+03
  6.44232E+03  8.54497E+03 -1.22803E+03  1.05554E+04 -6.80624E+03  6.05695E+03 -8.98520E+03 -9.85640E+02
 -8.22152E+03 -7.49784E+03 -2.00424E+03 -8.58366E+03  4.50970E+03 -7.70729E+03  5.84524E+03 -2.98388E+03
  4.16391E+03  1.21387E+03 -1.19921E+03  1.51002E+03 -5.41290E+02 -1.95182E+03  6.78685E+02 -3.72221E+03
  6.99728E+03 -1.24777E+03  8.54563E+03  5.07688E+02  1.06533E+04  7.32947E+03  8.03931E+03  1.22124E+04
 -2.78970E+03  1.50212E+04 -1.27384E+04  1.08822E+04 -1.63244E+04  1.26852E+03 -1.34603E+04 -5.02924E+03
 -6.02802E+03 -1.04192E+04 -3.92357E+02 -1.03995E+04  4.24898E+03 -3.66660E+03  2.22726E+03 -3.82595E+03
  2.73997E+03 -2.51733E+03  2.03330E+03 -4.33121E+03  4.68205E+03 -1.75421E+03  5.56228E+03 -2.21415E+02
  6.69217E+03  1.58906E+03  4.62051E+03  6.04156E+03 -2.65483E+03  7.03910E+03 -7.55567E+03  5.52297E+03
 -8.95078E+03 -1.58730E+03 -3.67450E+03 -8.24858E+03 -9.79504E+02 -1.10373E+04  6.39111E+03 -9.34656E+03
  9.31254E+03 -6.48020E+03  1.33934E+04  5.60874E+01  7.66712E+03  8.48926E+03  2.51514E+03  1.03675E+04
 -3.41755E+03  8.28273E+03 -4.72704E+03  3.16419E+03 -3.20495E+03 -7.92921E+02 -1.76318E+02 -1.86164E+03
 -7.82105E+02 -4.07293E+02 -2.42932E+03  3.46968E+03 -4.90979E+03  1.13537E+03 -6.21963E+03 -5.69431E+02
 -4.34376E+03 -5.85476E+03  1.14133E+03 -7.54629E+03  6.07769E+03 -6.27207E+03  6.88460E+03 -2.84898E+03
  8.57166E+03  4.22231E+03  4.35606E+03  8.63231E+03 -2.49474E+03  7.23090E+03 -5.18499E+03  6.69007E+03
 -7.78049E+03  1.20533E+03 -5.81415E+03 -5.26667E+03  3.24095E+02 -7.37272E+03  3.86887E+03 -4.61504E+03
  3.01208E+03 -1.36620E+03  2.67021E+03  9.03565E+02  8.59404E+02  3.04740E+03  1.54090E+03  3.08607E+02
  1.75322E+03  1.50386E+03  2.17280E+03 -8.27943E+02  1.74497E+03  2.53350E+03  2.31175E+03  3.42944E+03
 -2.88685E+03  7.55692E+03 -4.78407E+03  7.49196E+03 -8.40281E+03  5.34521E+02 -7.70765E+03 -3.09122E+03
 -3.84392E+03 -6.96728E+03  2.08437E+03 -9.18569E+03  5.34250E+03 -4.27920E+03  5.56709E+03 -1.52546E+03
  5.64001E+03  3.69110E+03  1.44348E+03  3.42893E+03 -2.08297E+03  4.26788E+03 -3.13384E+03 -1.15366E+01
 -1.18027E+03 -2.90106E+03  2.78694E+03 -3.37656E+03  2.85582E+03 -2.94002E+03  3.37538E+03  8.90276E+02
  1.64671E+03  1.79123E+03  1.21793E+03  1.42973E+03 -8.32286E+02  2.12614E+03  1.46468E+03 -4.45450E+02
  2.92828E+02 -5.79850E+02  3.91991E+03  1.61983E+03  2.19190E+03  5.09221E+03 -1.48074E+02  5.49451E+03
 -3.00029E+03  2.48180E+03 -4.67375E+03  1.31671E+03 -4.98841E+03 -7.84613E+02 -2.27149E+03 -2.12296E+03
  1.71100E+03 -3.16088E+03  1.09623E+03 -2.77265E+03  1.52074E+03  2.48448E+03 -5.36877E+02  1.65519E+03
 -3.77759E+03  1.13490E+03 -3.00166E+03 -7.88688E+02 -2.14052E+03 -3.98784E+03 -2.50619E+02 -4.96645E+03
  2.44879E+03 -2.25583E+03  2.22567E+03 -3.86848E+02  3.05028E+03 -4.85777E+02  9.00873E+02  2.96556E+03
 -9.53691E+02  3.80157E+02 -1.47882E+03 -1.45120E+03  1.18364E+03 -2.52725E+03  2.93650E+03 -2.52539E+03
  4.00341E+03  6.20923E+02  4.21498E+03  3.27726E+03  1.22280E+03  4.43000E+03 -1.41854E+03  3.59262E+03
 -2.26907E+03  1.51361E+03 -2.94561E+03 -1.44143E+03 -1.62109E+03 -2.33796E+03  1.41976E+03 -2.86525E+03
  2.94181E+03 -1.12358E+03  1.46431E+03  1.42266E+03  1.14125E+03  3.17880E+03  3.99224E+02  2.04815E+03
 -2.42711E+03  1.50196E+03 -9.27534E+02 -5.81993E+02  6.60298E+02  5.85782E+02 -1.18943E+03  2.04229E+03
 -1.87785E+03  2.00390E+03 -3.67550E+03  1.42081E+03 -2.51095E+03 -1.40941E+02 -4.86743E+03 -2.36542E+03
 -4.14755E+03 -5.73625E+03  1.56226E+03 -6.93297E+03  3.21861E+03 -5.73938E+03  6.55776E+03 -2.13326E+03
  5.44847E+03 -8.04473E+02  2.68788E+03  4.20317E+03  8.44532E+01  3.84974E+03 -3.25312E+02  3.21054E+03
 -2.06281E+03  1.55263E+03 -1.66428E+03 -7.07971E+02 -2.48179E+02  6.40297E+02 -2.77028E+02 -9.26978E+02
 -1.53637E+03  3.31494E+02 -1.24888E+03 -1.54216E+02  8.06172E+01  1.93634E+02 -8.82056E+02 -1.05152E+03
  2.39222E+03 -2.27989E+03  2.32273E+03  2.17777E+02  3.52780E+03  2.31019E+03 -5.63979E+01  3.99168E+03
 -2.71168E+03  3.99502E+03 -5.21662E+03  3.51335E+03 -4.76442E+03  8.14295E+02 -3.73599E+03 -4.81620E+03
 -1.17553E+03 -3.52266E+03  3.04240E+02 -4.14153E+03  2.74528E+03 -2.01547E+03  6.47832E+02 -9.21917E+01
  1.14286E+03  1.34639E+03  4.69763E+02  5.04869E+02 -1.91730E+03  9.56918E+02  1.28430E+03  1.29725E+02
  2.05325E+03 -5.86721E+01  8.61644E+02  1.29834E+03  3.20703E+02  3.99884E+02  1.41330E+03  1.18342E+03
 -1.60833E+03  5.99155E+02 -2.40443E+03  1.08988E+02 -2.06277E+03 -6.46947E+02  2.53811E+02 -3.01651E+03
  2.27351E+03 -2.59371E+03  3.25341E+03  4.40710E+02  2.53019E+03 -1.53421E+02  2.07372E+03  3.05042E+03
  1.70990E+03  2.89881E+03 -4.48743E+02  1.34145E+03 -2.41492E+03  1.14733E+03 -1.50155E+03  4.86037E+02
 -1.03984E+03 -7.04454E+02 -4.77453E+02  5.49042E+02  3.25253E+02 -4.40749E+02 -2.45079E+03 -7.69675E+02
 -9.09789E+02 -1.57789E+03 -7.76266E+02 -3.66927E+03  1.88484E+03 -2.74436E+03  2.22116E+03 -9.54081E+02
  1.94795E+03 -6.98946E+02  1.87112E+03  1.15139E+03 -7.70215E+02  2.27662E+03 -2.44235E+03  4.88212E+02
