 $NMID ID='MM_0lb_SNR200_14hz_g55_67.RAW', FMTDAT='(8E13.5)'
 TRAMP=1., VOLUME=1. $END
  3.10663E+05 -3.01187E+02  3.38211E+05  2.51612E+05  8.51064E+04  3.37997E+05 -1.33275E+05  2.50934E+05
 -1.90043E+05  8.33665E+04 -1.11435E+05 -3.17276E+04  1.14034E+03 -5.13330E+04  5.29415E+04 -3.82323E+02
  3.66166E+04  5.19554E+04 -1.72835E+04  7.71159E+04 -6.08278E+04  6.46181E+04 -8.33997E+04  3.23689E+04
 -8.05188E+04 -1.06141E+04 -5.67013E+04 -5.10969E+04 -1.56028E+04 -7.08918E+04  2.69769E+04 -4.65921E+04
  3.92727E+04  3.47133E+03  1.66128E+04  4.84538E+04 -3.35643E+04  4.79821E+04 -6.70785E+04  1.14522E+03
 -5.40743E+04 -5.71499E+04 -7.11709E+03 -7.66230E+04  3.41260E+04 -5.57909E+04  4.86284E+04 -1.78851E+04
  4.46782E+04  1.09188E+04  3.29251E+04  2.58300E+04  1.55214E+04  2.96650E+04 -6.83454E+03  2.76479E+04
 -2.15805E+04  1.15575E+04 -1.75776E+04 -5.40811E+03  5.41652E+03 -7.42481E+03  2.20963E+04  1.18971E+04
  8.15866E+03  3.51796E+04 -3.25730E+04  3.63864E+04 -6.39697E+04  1.50417E+03 -5.83553E+04 -4.25374E+04
 -1.24556E+04 -6.35533E+04  4.01819E+04 -4.55441E+04  5.80304E+04 -2.40396E+03  3.53074E+04  3.20310E+04
 -5.27084E+03  3.70792E+04 -2.98581E+04  1.70564E+04 -3.18229E+04 -4.27738E+03 -1.83406E+04 -1.20003E+04
 -8.67536E+03 -1.42650E+04 -8.41750E+02 -1.77925E+04  8.32543E+03 -2.46917E+04  1.47502E+04 -1.40709E+04
  1.12450E+04  4.99360E+03 -8.91329E+03  1.31229E+04 -2.23422E+04 -5.07176E+03 -8.07937E+03 -3.46358E+04
  2.38185E+04 -4.51471E+04  4.92095E+04 -1.94182E+04  4.54209E+04  1.77298E+04  1.55255E+04  4.44909E+04
 -1.56993E+04  3.47671E+04 -2.60280E+04  2.34677E+03 -9.66980E+03 -2.93148E+04  2.11526E+04 -3.42817E+04
  4.20302E+04 -7.92365E+03  3.72834E+04  2.32268E+04  1.78496E+04  4.67843E+04 -9.19783E+03  5.10254E+04
 -3.35734E+04  3.42454E+04 -4.13150E+04  1.00254E+04 -4.40308E+04 -1.73512E+04 -2.40629E+04 -3.79355E+04
  7.81213E+03 -3.73726E+04  3.22760E+04 -1.42314E+04  3.15118E+04  1.03081E+04  4.30251E+03  2.04476E+04
 -1.21744E+04  7.91720E+03 -1.01788E+04 -6.80553E+03  6.11491E+03 -1.10135E+04  1.64990E+04  5.51321E+03
  1.47342E+04  2.26658E+04 -4.73689E+03  2.48942E+04 -2.28460E+04  1.18057E+04 -2.81821E+04 -4.61750E+03
 -2.05217E+04 -1.83149E+04 -9.02391E+03 -2.10061E+04  5.26988E+03 -2.11568E+04  1.62040E+04 -1.85103E+04
  2.65727E+04 -1.31452E+04  3.32960E+04  4.08992E+03  2.42060E+04  2.12165E+04  4.08682E+03  3.64974E+04
 -1.82914E+04  3.16707E+04 -2.98627E+04  9.85846E+03 -1.95775E+04 -9.15669E+03 -4.77359E+03 -1.43301E+04
  9.27740E+02 -3.26210E+03 -4.51124E+03  6.83211E+03 -1.75791E+04  5.57373E+03 -1.71829E+04 -6.61834E+03
 -1.14871E+04 -1.88280E+04  6.31631E+03 -2.35939E+04  1.61486E+04 -1.72762E+04  1.90442E+04 -2.27245E+03
  1.16403E+04  1.27380E+04 -5.34077E+02  2.02072E+04 -1.41521E+04  1.07594E+04 -2.00328E+04 -4.31157E+03
 -1.38161E+04 -1.79890E+04 -2.64580E+03 -2.39155E+04  1.08346E+04 -2.03871E+04  2.00348E+04 -9.81061E+03
  1.84148E+04 -4.05897E+02  1.45019E+04  5.61523E+03  7.08606E+03  1.00940E+03  8.73953E+03 -2.14887E+03
  1.78291E+04  2.42604E+03  2.01389E+04  1.58679E+04  1.46174E+04  3.12866E+04 -2.12390E+03  3.47902E+04
 -2.08480E+04  2.81244E+04 -3.30502E+04  1.55653E+04 -3.45992E+04 -2.38946E+03 -2.85885E+04 -2.03482E+04
 -1.19868E+04 -2.93201E+04  1.02274E+04 -2.62314E+04  2.14132E+04 -1.40551E+04  2.00987E+04  3.82671E+03
  6.59576E+03  1.59306E+04 -1.02728E+04  1.26749E+04 -1.64261E+04  2.59191E+03 -1.20717E+04 -1.03300E+04
 -6.90546E+02 -1.56812E+04  7.09123E+03 -1.20226E+04  1.01567E+04 -1.20151E+03  3.90056E+03  6.74014E+03
 -6.91521E+03  2.81511E+03 -6.75276E+03 -6.58160E+03  1.85271E+02 -1.31061E+04  8.83860E+03 -1.42327E+04
  1.71303E+04 -8.23380E+03  1.90847E+04  3.01769E+03  1.66902E+04  1.38763E+04  8.31444E+03  2.14067E+04
 -2.96689E+03  2.31440E+04 -1.46158E+04  1.43225E+04 -1.66080E+04  3.67846E+03 -1.06946E+04 -4.42825E+03
 -4.81961E+03 -4.93313E+03 -1.84460E+03 -8.62443E+01 -2.19557E+03  4.27009E+03 -4.17917E+03  4.43860E+03
 -1.26211E+04 -1.58339E+03 -1.20448E+04 -9.58630E+03 -5.29380E+03 -1.47199E+04  4.29143E+03 -1.08190E+04
  8.89482E+03 -4.96769E+03  7.07203E+03  3.95181E+03  9.82273E+02  4.74025E+03 -5.22597E+03 -5.24075E+02
 -4.97844E+03 -7.99188E+03 -6.04985E+02 -1.12985E+04  5.54295E+03 -1.11090E+04  1.48516E+04 -6.45944E+03
  1.80036E+04  1.24023E+03  1.14133E+04  1.09085E+04  2.73909E+03  1.38849E+04 -7.56147E+03  1.17716E+04
 -9.57960E+03  3.80174E+03 -4.99978E+03 -2.44549E+03  2.14433E+03 -3.20635E+03  5.15734E+03 -2.29359E+03
  5.72927E+03  5.23428E+03  2.87874E+03  7.99911E+03 -6.79072E+03  8.68381E+03 -1.19486E+04  1.19257E+03
 -7.33082E+03 -5.46089E+03  2.61687E+02 -8.71985E+03  6.04070E+03 -5.95934E+03  6.52701E+03  8.96222E+02
  2.81645E+02  6.67262E+03 -4.55068E+03  7.08707E+03 -7.81331E+03  4.10636E+03 -8.48294E+03 -2.96418E+03
 -5.05489E+03 -1.08402E+04  1.77505E+03 -1.17836E+04  1.09155E+04 -7.91149E+03  1.13821E+04  1.52323E+03
  6.60756E+03  8.42840E+03 -8.60728E+02  1.14442E+04 -7.51656E+03  5.96697E+03 -8.46388E+03 -5.83281E+02
 -7.08329E+03 -8.60273E+03 -2.09477E+03 -8.29119E+03  5.86968E+03 -7.21993E+03  5.33358E+03 -3.24566E+03
  4.46848E+03  1.61001E+03 -1.07182E+03  2.17622E+03 -1.59438E+03 -2.22804E+03  1.55000E+03 -3.40330E+03
  7.24642E+03 -2.94849E+03  9.63115E+03  7.67207E+02  9.11410E+03  7.12125E+03  7.24115E+03  1.29573E+04
 -1.86755E+03  1.44637E+04 -1.30645E+04  1.18391E+04 -1.57936E+04  1.88092E+03 -1.24228E+04 -5.18062E+03
 -5.68637E+03 -1.06039E+04 -1.49710E+03 -8.51441E+03  4.16537E+03 -5.30229E+03  3.09056E+03 -2.67374E+03
  3.16477E+03 -2.18665E+03  2.42623E+03 -2.37631E+03  4.26155E+03 -2.66846E+03  5.09167E+03  9.88433E+02
  6.89699E+03  1.21869E+03  3.56959E+03  6.23343E+03 -1.88103E+03  6.78395E+03 -6.71110E+03  5.45534E+03
 -9.94123E+03 -3.90839E+02 -6.17582E+03 -5.80258E+03  1.09799E+00 -8.54656E+03  4.92370E+03 -8.81356E+03
  9.96350E+03 -5.56096E+03  1.05132E+04  1.58377E+03  8.53711E+03  8.80870E+03  1.23192E+03  1.12452E+04
 -3.45503E+03  1.02804E+04 -5.59549E+03  2.78578E+03 -3.62655E+03 -2.35957E+03 -9.64704E+02 -1.00284E+03
 -1.59419E+03  6.61060E+02 -9.28920E+02  2.81118E+03 -4.62065E+03  1.16320E+03 -7.49632E+03 -1.78882E+03
 -3.03988E+03 -7.08247E+03  4.79945E+02 -9.37497E+03  5.84514E+03 -8.96955E+03  7.53687E+03 -3.65564E+03
  7.55535E+03  4.02794E+03  4.18903E+03  7.23425E+03 -1.08280E+03  8.95017E+03 -5.73891E+03  5.86040E+03
 -8.10590E+03 -2.90035E+00 -5.96424E+03 -5.08733E+03 -1.27350E+03 -7.17109E+03  2.48262E+03 -4.92033E+03
  5.41347E+03 -2.17525E+03  4.58729E+03  2.32406E+03  1.07764E+03  3.10046E+03  1.34030E+03  3.83904E+02
  2.68566E+03  8.87607E+02  1.55021E+03  1.94191E+03  2.76637E+03  4.18160E+03  3.48988E+03  4.08961E+03
 -2.00479E+03  6.44118E+03 -5.32567E+03  6.78861E+03 -7.26092E+03  1.15822E+03 -8.22386E+03 -2.88823E+03
 -3.49504E+03 -7.47402E+03  6.84729E+02 -9.11607E+03  3.83038E+03 -5.54833E+03  7.37106E+03 -1.48458E+03
  5.99008E+03  3.96283E+03  2.07787E+03  3.52134E+03 -1.56963E+03  4.35037E+03 -2.25653E+03 -1.28461E+03
 -9.80106E+02 -2.47349E+03  1.61987E+03 -4.14987E+03  4.04710E+03 -1.69815E+03  2.92228E+03  4.46210E+02
  6.24921E+02  1.36855E+03  4.99431E+02  1.91090E+02  1.04148E+03  1.83898E+03  1.48035E+03 -3.27968E+02
  2.00330E+03 -1.11340E+03  3.37087E+03  1.77253E+03  1.29502E+03  5.08591E+03 -1.45244E+03  5.77618E+03
 -3.73180E+03  3.14976E+03 -5.04385E+03  6.10516E+02 -4.54034E+03 -9.77256E+02 -2.14756E+03 -3.31502E+03
 -6.91426E+02 -2.06847E+03  1.60135E+03 -1.62300E+03  1.76895E+03  1.45924E+03 -6.55692E+02  2.93085E+03
 -3.34633E+03  1.16510E+03 -2.19410E+03 -1.90147E+03 -1.18969E+03 -2.79582E+03  2.14701E+02 -4.01569E+03
  1.81818E+03 -2.27948E+03  2.87852E+03 -6.05148E+02  4.15344E+03  4.59430E+01  2.28434E+02  2.20550E+03
 -1.55364E+03  2.59701E+02 -1.74261E+03 -1.25756E+03  1.15717E+03 -3.56326E+03  3.25855E+03 -2.76033E+03
  4.71094E+03  2.15337E+02  4.81478E+03  2.89034E+03  1.39945E+03  4.07274E+03 -1.55222E+03  4.94535E+03
 -3.68749E+03  8.88655E+02 -4.39664E+03 -4.42130E+02 -2.77695E+03 -2.89652E+03  8.34787E+02 -2.69228E+03
  3.04170E+03 -2.25577E+03  1.66194E+03  2.87008E+02  5.17432E+02  2.63789E+03 -4.26013E+02  2.83838E+03
 -1.94804E+03  2.74534E+03 -1.13291E+03 -1.77602E+02 -5.17410E+02  9.55245E+02 -1.32311E+03  1.22756E+01
 -1.40528E+03  1.86952E+03 -3.03194E+03  5.72398E+02 -5.87359E+03  2.33339E+03 -4.81645E+03 -4.02231E+03
 -2.97096E+03 -4.89208E+03  1.08731E+03 -6.37713E+03  3.94828E+03 -6.07668E+03  6.47198E+03 -1.62830E+03
  6.54483E+03 -1.87180E+02  4.00937E+03  4.44989E+03  7.54988E+02  3.70125E+03 -1.90824E+03  2.00991E+03
 -2.97361E+03  2.76056E+03 -1.27630E+03 -8.57506E+02 -1.06190E+03 -1.03222E+03 -4.78624E+01 -1.32048E+03
 -1.11203E+02 -9.79247E+02 -1.58556E+03  7.24566E+02 -9.27173E+02 -1.18567E+03  5.17451E+02 -1.91862E+03
  3.56052E+03 -7.80416E+02  3.49280E+03  4.73236E+02  2.75060E+03  2.91210E+03  1.38057E+03  3.35442E+03
 -7.65381E+02  3.17215E+03 -4.05870E+03  2.76189E+03 -5.54748E+03 -7.56771E+02 -3.28013E+03 -2.93503E+03
 -2.83459E+03 -3.19289E+03  1.22499E+03 -4.03204E+03  1.90245E+03 -1.02526E+03  1.44461E+03  1.33260E+02
  1.90715E+03  1.10936E+03 -1.17298E+03  2.08873E+03 -7.27382E+01 -1.33895E+03 -1.14794E+03  4.70272E+02
  8.04229E+02 -1.30297E+03  2.21549E+03  8.11593E+02  1.57340E+02  1.19040E+03  2.39065E+02  1.25964E+03
 -2.12863E+03  2.65876E+03 -3.34325E+03  3.72500E+02 -2.69126E+03 -1.72747E+03 -1.00591E+03 -2.76852E+03
  1.94885E+03 -2.51896E+03  2.75292E+03 -4.69261E+02  2.50902E+03  3.28691E+02  2.16475E+03  2.47021E+03
  4.25445E+02  2.32597E+03 -1.56276E+03  1.72854E+03 -1.82916E+02  1.86987E+03 -1.95465E+03 -7.26606E+00
 -1.37758E+03  1.64432E+02 -1.22599E+03  1.45813E+03  9.48229E+01  1.79070E+02 -6.83299E+02  3.87571E+02
 -2.26924E+03 -3.30356E+02 -2.19167E+03 -4.37404E+03  3.32165E+02 -3.39164E+03  3.29584E+03 -9.91165E+02
  2.90192E+03  1.59760E+02  1.52155E+03  2.10297E+03 -3.61901E+02  2.52096E+03 -1.70512E+03  5.71098E+02
