 $NMID ID='MM_0lb_SNR200_12hz_g40_59.RAW', FMTDAT='(8E13.5)'
 TRAMP=1., VOLUME=1. $END
  3.09373E+05 -1.83537E+02  3.38610E+05  2.51272E+05  8.35711E+04  3.38171E+05 -1.30844E+05  2.50511E+05
 -1.92109E+05  8.11018E+04 -1.12821E+05 -3.27110E+04  2.05177E+03 -5.03774E+04  5.34735E+04 -5.48156E+02
  3.46650E+04  5.31884E+04 -1.72099E+04  7.54766E+04 -6.02687E+04  6.26339E+04 -8.35591E+04  3.31148E+04
 -8.11989E+04 -1.28414E+04 -5.80309E+04 -5.19167E+04 -1.54303E+04 -7.11301E+04  2.71376E+04 -4.56311E+04
  3.93207E+04  3.02273E+03  1.74290E+04  4.85452E+04 -3.43657E+04  4.66429E+04 -6.77141E+04 -1.19647E+03
 -5.32065E+04 -5.65878E+04 -5.90254E+03 -7.88160E+04  3.50043E+04 -5.55139E+04  4.74979E+04 -1.82832E+04
  4.43748E+04  1.03653E+04  3.30283E+04  2.56992E+04  1.54487E+04  2.97164E+04 -6.39329E+03  2.73693E+04
 -2.25061E+04  1.29361E+04 -1.81087E+04 -4.96854E+03  5.99048E+03 -8.02010E+03  2.23559E+04  1.36426E+04
  6.93608E+03  3.65559E+04 -3.29142E+04  3.53642E+04 -6.26989E+04  2.54025E+03 -5.87915E+04 -4.22706E+04
 -1.25035E+04 -6.44373E+04  4.00901E+04 -4.57067E+04  5.99210E+04 -2.08367E+03  3.49820E+04  3.34920E+04
 -5.52904E+03  3.60102E+04 -3.09563E+04  1.59122E+04 -2.96141E+04 -3.75175E+03 -1.67915E+04 -1.17692E+04
 -8.35781E+03 -1.21206E+04  2.67516E+02 -1.88227E+04  8.15573E+03 -2.37660E+04  1.55753E+04 -1.35633E+04
  1.22020E+04  5.20756E+03 -6.98475E+03  1.36336E+04 -2.08793E+04 -5.27600E+03 -8.26018E+03 -3.47880E+04
  2.31482E+04 -4.44218E+04  4.93261E+04 -2.04658E+04  4.45184E+04  1.95446E+04  1.63157E+04  4.34038E+04
 -1.67757E+04  3.27513E+04 -2.64115E+04  1.51903E+03 -1.03277E+04 -2.80052E+04  2.06280E+04 -3.45082E+04
  4.18700E+04 -9.61000E+03  3.62614E+04  2.48836E+04  1.86980E+04  4.74182E+04 -8.52047E+03  5.27904E+04
 -3.30084E+04  3.45498E+04 -4.26589E+04  1.01690E+04 -4.36376E+04 -1.78007E+04 -2.41739E+04 -4.01014E+04
  7.46337E+03 -3.85841E+04  3.26453E+04 -1.52948E+04  3.00070E+04  1.06349E+04  3.87520E+03  2.09425E+04
 -1.34006E+04  9.59667E+03 -1.06786E+04 -6.73309E+03  6.09916E+03 -1.03117E+04  1.84580E+04  6.55967E+03
  1.30051E+04  2.09160E+04 -4.45998E+03  2.55041E+04 -2.13808E+04  1.27167E+04 -2.75660E+04 -4.15282E+03
 -2.09285E+04 -1.75562E+04 -9.67655E+03 -2.24617E+04  3.32116E+03 -2.10222E+04  1.86630E+04 -1.89709E+04
  2.71056E+04 -1.26702E+04  3.39639E+04  3.19009E+03  2.34957E+04  2.05925E+04  4.03206E+03  3.79259E+04
 -1.81586E+04  3.15597E+04 -2.91558E+04  9.56434E+03 -2.04020E+04 -8.21013E+03 -4.74911E+03 -1.34943E+04
  2.52635E+03 -3.03050E+03 -6.52623E+03  7.96723E+03 -1.65800E+04  4.80217E+03 -1.76427E+04 -7.83921E+03
 -1.11584E+04 -2.03004E+04  5.97043E+03 -2.40299E+04  1.54081E+04 -1.63903E+04  2.10569E+04 -1.74299E+03
  1.16824E+04  1.35669E+04 -7.45187E+02  1.97445E+04 -1.38253E+04  1.11621E+04 -1.94506E+04 -3.47202E+03
 -1.49621E+04 -1.78098E+04 -1.22335E+03 -2.50698E+04  1.04211E+04 -1.98485E+04  2.04586E+04 -9.66374E+03
  1.88333E+04 -2.96669E+02  1.31864E+04  6.08124E+03  7.43842E+03  8.65666E+02  1.04282E+04 -1.40937E+03
  1.85031E+04  3.65935E+03  2.11769E+04  1.49549E+04  1.33865E+04  3.25147E+04 -2.14471E+03  3.57939E+04
 -2.06234E+04  2.83081E+04 -3.34239E+04  1.50925E+04 -3.70638E+04 -3.40406E+03 -2.99457E+04 -2.12049E+04
 -1.22376E+04 -2.99942E+04  9.95782E+03 -2.58291E+04  2.45176E+04 -1.24929E+04  2.05768E+04  5.82137E+03
  6.48575E+03  1.56994E+04 -9.93031E+03  1.24037E+04 -1.79598E+04  3.14978E+03 -1.17978E+04 -1.07077E+04
 -7.12736E+02 -1.62685E+04  8.57083E+03 -1.38880E+04  1.17028E+04 -6.45023E+02  2.02965E+03  6.14867E+03
 -5.93218E+03  3.62077E+03 -5.09731E+03 -7.32445E+03 -4.65938E+02 -1.46204E+04  1.14297E+04 -1.65895E+04
  2.04552E+04 -8.75604E+03  2.03103E+04  2.49917E+03  1.64146E+04  1.55078E+04  8.65138E+03  2.08130E+04
 -2.80663E+03  2.41903E+04 -1.46291E+04  1.35380E+04 -1.63688E+04  4.20630E+03 -1.19477E+04 -3.96368E+03
 -6.23278E+03 -4.78009E+03 -1.65553E+03  6.92648E+02 -2.43817E+03  3.23604E+03 -6.40922E+03  5.16149E+03
 -1.04291E+04 -9.29856E+02 -1.28721E+04 -1.00860E+04 -5.60195E+03 -1.51439E+04  5.23536E+03 -1.17971E+04
  1.16399E+04 -4.40351E+03  6.01144E+03  3.41845E+03 -1.22098E+03  5.72048E+03 -6.23420E+03 -1.30299E+01
 -6.49436E+03 -7.31817E+03 -1.78852E+03 -1.25032E+04  7.24538E+03 -1.30256E+04  1.56391E+04 -6.02627E+03
  1.71830E+04  1.72741E+03  1.21944E+04  8.45880E+03  2.34372E+03  1.46984E+04 -7.57770E+03  1.19133E+04
 -8.00414E+03  4.52256E+03 -5.67582E+03 -2.04198E+03  1.70875E+03 -2.46403E+03  6.53959E+03 -2.22378E+02
  5.90355E+03  5.66473E+03  7.13935E+02  9.73884E+03 -7.30878E+03  9.66020E+03 -1.31447E+04  1.53436E+03
 -9.54955E+03 -5.76107E+03 -3.49657E+01 -1.12362E+04  6.74102E+03 -6.14708E+03  6.94310E+03  3.49152E+03
  1.01080E+03  6.39768E+03 -5.86192E+03  9.54764E+03 -9.50486E+03  3.63086E+03 -9.65042E+03 -3.53382E+03
 -4.46928E+03 -1.20722E+04  3.11612E+03 -1.38648E+04  1.18682E+04 -7.63354E+03  1.25102E+04  2.09322E+03
  6.48231E+03  9.47890E+03 -4.81773E+02  1.34433E+04 -8.92480E+03  7.69219E+03 -1.04539E+04 -1.67019E+02
 -8.14974E+03 -7.30082E+03 -2.64550E+03 -9.23437E+03  5.48594E+03 -7.46138E+03  5.55535E+03 -3.58301E+03
  2.09990E+03  1.29903E+03 -9.26454E+02  1.73844E+03 -1.61436E+02 -1.65347E+03  1.38096E+03 -3.57586E+03
  7.89685E+03 -2.61120E+03  1.16439E+04  3.10009E+03  1.07075E+04  7.58332E+03  7.43665E+03  1.46241E+04
 -2.59773E+03  1.74192E+04 -1.42828E+04  1.23355E+04 -1.87413E+04  2.88713E+03 -1.53950E+04 -6.49006E+03
 -7.39825E+03 -1.34719E+04  2.69888E+02 -9.81540E+03  4.22188E+03 -5.36706E+03  3.06349E+03 -3.53879E+03
  1.97580E+03 -1.95675E+03  2.64994E+03 -2.06798E+03  4.66595E+03 -2.95828E+03  5.95578E+03 -7.99832E+02
  8.52911E+03  1.23403E+03  3.54441E+03  6.24708E+03 -2.38538E+03  7.84277E+03 -6.26174E+03  7.97545E+03
 -1.05937E+04 -1.13398E+03 -4.46907E+03 -7.03952E+03 -1.23825E+03 -1.12434E+04  5.27481E+03 -1.14587E+04
  1.20496E+04 -5.38565E+03  1.23008E+04  1.57299E+03  9.30087E+03  9.21625E+03  7.94443E+02  1.17337E+04
 -4.00849E+03  9.54388E+03 -7.70537E+03  3.34513E+03 -4.09140E+03 -1.84260E+03 -2.61115E+03 -1.16093E+03
 -1.26987E+03  2.63417E+02 -1.56844E+03  2.15036E+03 -2.77561E+03  2.61803E+02 -8.24680E+03  1.71351E+02
 -3.92650E+03 -6.26924E+03 -4.96300E+02 -9.71366E+03  5.74450E+03 -9.07617E+03  1.13834E+04 -2.59138E+03
  9.65989E+03  4.75835E+03  3.21417E+03  8.44230E+03 -1.10915E+03  9.68344E+03 -6.03825E+03  5.74995E+03
 -7.99828E+03  2.11646E+02 -7.17648E+03 -5.88558E+03 -4.35389E+02 -8.35167E+03  3.59160E+03 -5.96676E+03
  5.09043E+03 -3.30183E+03  3.75051E+03  5.01825E+02  1.98046E+03  2.72862E+03  1.80956E+03  1.33522E+03
  3.14192E+03 -3.76260E+01  3.32131E+03  1.61811E+03  3.23252E+03  2.95435E+03  4.19847E+03  5.54385E+03
 -2.17106E+03  8.13508E+03 -5.91627E+03  7.93483E+03 -9.25305E+03  9.14285E+02 -1.08380E+04 -2.66108E+03
 -4.80341E+03 -1.12392E+04  8.42675E+01 -1.12010E+04  5.82933E+03 -6.99778E+03  7.68236E+03 -2.36729E+03
  6.19393E+03  3.80343E+03  1.86274E+03  5.70765E+03 -2.16204E+03  3.06619E+03 -2.65248E+03 -1.50323E+02
 -1.25735E+03 -3.15988E+03  1.34608E+03 -4.61789E+03  2.71143E+03 -2.00107E+03  3.61566E+03  2.35668E+02
  1.24868E+03  1.56649E+03  1.20671E+03  1.62533E+03  6.16256E+02  9.86892E+02  1.90451E+03 -4.98516E+02
  1.10253E+03 -1.15731E+03  3.10042E+03  1.61578E+03  2.39332E+03  5.26945E+03 -1.96156E+03  6.82370E+03
 -5.69929E+03  3.48119E+03 -5.93232E+03  2.91964E+02 -6.33274E+03 -4.92155E+02 -4.09119E+03 -2.62543E+03
  1.93353E+03 -3.85811E+03  3.47705E+03 -1.19182E+03  2.25866E+03  2.71793E+03 -3.59930E+02  2.16164E+03
 -3.99916E+03  1.40648E+03 -4.37641E+03 -2.20419E+03 -2.56996E+03 -5.31361E+03  4.94740E+02 -6.05489E+03
  2.41023E+03 -1.95352E+03  4.26013E+03 -1.42143E+03  3.09485E+03  1.79515E+03 -8.01494E+02  2.49088E+03
 -2.39850E+03  1.14714E+02 -1.04065E+03 -2.02758E+03  3.11425E+02 -2.78237E+03  5.02913E+03 -4.11800E+03
  5.47622E+03  2.19951E+03  6.62162E+03  4.59088E+03  1.95742E+03  5.62037E+03 -5.14427E+02  5.62611E+03
 -5.14709E+03  2.36565E+03 -4.91962E+03 -5.66081E+02 -2.84903E+03 -3.96961E+03  1.76413E+03 -3.79290E+03
  4.96289E+03 -1.70083E+03  2.81057E+03  1.23482E+03  1.00763E+03  3.89515E+03 -1.25246E+03  2.96357E+03
 -5.94937E+02  1.39019E+03 -2.11729E+03 -3.93070E+02 -1.04173E+03  1.39017E+03 -9.45293E+02  1.98040E+03
 -1.25426E+03  5.27072E+02 -4.37746E+03  2.53173E+03 -6.57428E+03 -2.43303E+02 -6.21652E+03 -3.21199E+03
 -3.43277E+03 -7.41483E+03  1.95437E+03 -8.43356E+03  4.87602E+03 -6.65056E+03  8.83268E+03 -1.93167E+03
  7.22423E+03  2.25243E+03  4.94149E+03  4.71543E+03 -9.32530E+01  6.33728E+03 -2.71000E+03  6.48598E+03
 -2.96916E+03  1.50131E+03 -1.80247E+03 -1.02270E+03 -1.33719E+03 -3.03008E+02  3.80547E+02 -1.78957E+03
 -7.89129E+02  3.47087E+02 -1.46115E+03  5.42833E+02 -6.46109E+02 -1.41004E+03 -1.45543E+03 -2.75068E+03
  1.43962E+03 -2.43853E+03  3.06207E+03 -4.13213E+02  5.12052E+03  3.39485E+03  2.97974E+02  6.22422E+03
 -2.74376E+03  7.29213E+03 -5.73100E+03  3.06858E+03 -7.05621E+03  2.89941E+02 -5.15065E+03 -5.02215E+03
 -1.96395E+03 -6.75518E+03  1.42838E+03 -5.41873E+03  3.35815E+03 -2.52696E+03  3.10924E+03 -5.84517E+02
  3.28493E+03  2.80717E+03 -6.16768E+02  1.64929E+03 -9.45488E+02 -9.08382E+02  3.38059E+02 -4.72648E+02
  1.48521E+02 -1.91337E+03  1.46272E+03  1.28677E+03  2.31778E+03  1.19419E+03  6.34250E+02  1.42098E+03
 -2.76575E+03  3.09923E+03 -3.86419E+03  1.19500E+03 -4.00435E+03 -2.98036E+03 -3.24007E+02 -3.62796E+03
  2.88408E+03 -4.13913E+03  3.84436E+03 -1.00528E+03  4.62239E+03  2.31518E+02  2.43047E+03  4.49377E+03
 -9.52981E+02  3.90210E+03 -1.18025E+03  3.58917E+03 -1.50452E+03  1.25642E+03 -2.11836E+03  4.13149E+02
 -2.46994E+02 -1.02523E+03 -3.67838E+02  2.58485E+02 -2.01878E+03 -1.40185E+02 -3.67494E+03 -3.16041E+01
 -2.49606E+03 -2.04353E+03 -7.10561E+02 -5.88649E+03  2.06747E+03 -4.77021E+03  4.39699E+03  1.50762E+02
  3.12208E+03  6.48609E+02  2.41921E+03  2.09012E+03  4.82208E+02  1.89498E+03 -3.21260E+03  2.39238E+03
