 $NMID ID='MM_0lb_SNR200_9hz_g60_13.RAW', FMTDAT='(8E13.5)'
 TRAMP=1., VOLUME=1. $END
  3.08333E+05  1.55306E+03  3.36242E+05  2.50444E+05  8.51188E+04  3.38010E+05 -1.32926E+05  2.52098E+05
 -1.92647E+05  8.43739E+04 -1.12606E+05 -3.24807E+04  1.56689E+03 -4.87403E+04  5.30075E+04  6.92490E+02
  3.63835E+04  5.28162E+04 -1.67125E+04  7.44936E+04 -6.26534E+04  6.37271E+04 -8.61025E+04  3.15185E+04
 -8.19135E+04 -1.07325E+04 -5.72042E+04 -5.27353E+04 -1.45486E+04 -7.09694E+04  2.76256E+04 -4.64068E+04
  4.14993E+04  4.11428E+03  1.82245E+04  4.83140E+04 -3.40141E+04  4.84112E+04 -6.83525E+04  5.63456E+02
 -5.65324E+04 -5.89086E+04 -7.96419E+03 -7.97324E+04  3.66594E+04 -5.73790E+04  5.04836E+04 -1.86216E+04
  4.61203E+04  1.13049E+04  3.43422E+04  2.65017E+04  1.63997E+04  3.16936E+04 -6.27035E+03  2.92790E+04
 -2.22839E+04  1.30782E+04 -1.79152E+04 -5.70642E+03  8.12354E+03 -7.55181E+03  2.29575E+04  1.21975E+04
  6.28831E+03  3.85045E+04 -3.44022E+04  3.72657E+04 -6.57987E+04  1.45193E+03 -5.98621E+04 -4.50964E+04
 -1.25419E+04 -6.63970E+04  4.11618E+04 -4.87351E+04  6.53028E+04 -2.08324E+03  3.68160E+04  3.47516E+04
 -4.53467E+03  3.98984E+04 -3.34192E+04  2.01447E+04 -3.53347E+04 -3.46776E+03 -2.12539E+04 -1.30749E+04
 -7.97485E+03 -1.48556E+04  1.11685E+02 -2.16875E+04  8.61198E+03 -2.25837E+04  1.64346E+04 -1.10454E+04
  9.90463E+03  8.59012E+03 -1.02162E+04  1.26880E+04 -2.55824E+04 -6.55573E+03 -9.22472E+03 -3.71239E+04
  2.64328E+04 -4.74552E+04  5.37295E+04 -2.09724E+04  4.87956E+04  2.05876E+04  1.87786E+04  4.88572E+04
 -1.71955E+04  3.69675E+04 -2.82578E+04  4.03200E+03 -1.19318E+04 -2.98820E+04  2.14609E+04 -3.87514E+04
  4.69740E+04 -1.24779E+04  4.19549E+04  2.50065E+04  2.21010E+04  5.24479E+04 -8.02214E+03  5.86532E+04
 -3.66847E+04  3.99399E+04 -4.89891E+04  1.04167E+04 -4.94843E+04 -1.72853E+04 -2.79866E+04 -4.21665E+04
  7.68705E+03 -4.31382E+04  3.77541E+04 -1.77711E+04  3.19620E+04  1.14096E+04  5.02580E+03  2.10188E+04
 -1.34175E+04  9.41411E+03 -1.05149E+04 -7.84026E+03  5.57583E+03 -1.17501E+04  1.77562E+04  5.98261E+03
  1.67540E+04  2.23010E+04 -5.21288E+03  2.77831E+04 -2.30020E+04  1.49308E+04 -3.29180E+04 -1.50055E+03
 -2.69327E+04 -1.89884E+04 -1.21769E+04 -2.49325E+04  4.23427E+03 -2.79239E+04  2.11674E+04 -2.43199E+04
  3.46007E+04 -1.45611E+04  3.96685E+04  4.96704E+03  2.75303E+04  2.52114E+04  4.18173E+03  4.19519E+04
 -1.98409E+04  3.48783E+04 -3.10295E+04  1.18172E+04 -2.27055E+04 -9.80081E+03 -4.01181E+03 -1.41318E+04
 -9.42595E+01 -1.01835E+03 -7.73086E+03  9.02501E+03 -2.10094E+04  4.93452E+03 -1.95095E+04 -1.01683E+04
 -1.09781E+04 -2.44375E+04  6.78696E+03 -2.97633E+04  2.01668E+04 -2.15346E+04  2.24845E+04 -1.29384E+03
  1.30951E+04  1.55784E+04 -2.07592E+03  2.42893E+04 -1.80165E+04  1.38995E+04 -2.52445E+04 -5.15973E+03
 -1.95946E+04 -2.29906E+04 -2.73470E+03 -3.02513E+04  1.46909E+04 -2.48773E+04  2.50380E+04 -1.23185E+04
  2.37527E+04 -1.62520E+03  1.67574E+04  5.52671E+03  9.36848E+03  1.37246E+03  1.12793E+04 -2.37598E+03
  2.40848E+04  3.78276E+03  2.65944E+04  1.87187E+04  1.74385E+04  3.97885E+04 -2.44836E+03  4.62909E+04
 -2.74103E+04  3.91721E+04 -4.25082E+04  2.05572E+04 -4.79376E+04 -4.07229E+03 -3.80785E+04 -2.74749E+04
 -1.41792E+04 -4.09207E+04  1.38604E+04 -3.35641E+04  3.06279E+04 -1.68718E+04  2.61983E+04  8.34666E+03
  8.52914E+03  1.91365E+04 -1.20710E+04  1.58617E+04 -2.18091E+04  2.15282E+03 -1.64029E+04 -1.32786E+04
 -2.95730E+02 -2.00197E+04  1.06929E+04 -1.43577E+04  1.31432E+04 -7.71416E+02  3.47561E+03  9.40604E+03
 -9.46997E+03  5.75988E+03 -8.67105E+03 -6.58739E+03 -3.22497E+03 -1.84754E+04  1.16465E+04 -2.08155E+04
  2.45622E+04 -1.24294E+04  2.84092E+04  3.29902E+03  2.61248E+04  2.03498E+04  1.13684E+04  3.06954E+04
 -7.57675E+03  3.46452E+04 -2.39463E+04  2.08916E+04 -2.47136E+04  3.91364E+03 -1.63495E+04 -6.40959E+03
 -6.82931E+03 -6.49065E+03 -1.77353E+03  4.65947E+02 -4.12508E+03  2.86676E+03 -8.12394E+03  5.87182E+03
 -1.38532E+04 -1.27763E+03 -1.48633E+04 -1.23962E+04 -8.04123E+03 -2.11247E+04  6.89638E+03 -1.61514E+04
  1.55050E+04 -6.74231E+03  8.38591E+03  4.64915E+03 -1.58897E+03  7.70234E+03 -9.98805E+03  1.01391E+03
 -7.75572E+03 -1.10299E+04 -1.98464E+03 -1.68120E+04  9.50301E+03 -1.68934E+04  2.21768E+04 -8.91620E+03
  2.66512E+04  1.91337E+03  1.74349E+04  1.52072E+04  4.59453E+03  2.02987E+04 -1.19814E+04  1.62010E+04
 -1.11827E+04  5.44882E+03 -6.74885E+03 -2.48557E+03  3.25430E+03 -4.95865E+03  9.28935E+03 -1.63326E+03
  6.38029E+03  7.08036E+03 -4.27171E+01  1.32941E+04 -9.81562E+03  1.21855E+04 -1.73842E+04  3.83098E+03
 -1.13931E+04 -8.67953E+03 -5.08759E+01 -1.57188E+04  9.49908E+03 -5.94103E+03  1.00520E+04  3.09858E+03
  2.00578E+03  9.65712E+03 -8.09852E+03  1.29161E+04 -1.34569E+04  5.91313E+03 -1.63065E+04 -6.51118E+03
 -9.13902E+03 -1.63715E+04  3.11144E+03 -1.87398E+04  1.49084E+04 -1.16281E+04  1.86920E+04  2.14926E+03
  1.29769E+04  1.32470E+04 -2.07779E+03  1.70642E+04 -1.20449E+04  9.86597E+03 -1.45270E+04 -1.69100E+03
 -1.33329E+04 -1.27238E+04 -2.61186E+03 -1.14192E+04  7.43160E+03 -8.92717E+03  6.86585E+03 -4.58080E+03
  4.79233E+03  2.64748E+03 -1.44710E+03  3.01701E+03  6.64865E+02 -3.53356E+03  3.19826E+03 -6.82987E+03
  1.32009E+04 -5.18649E+03  1.78507E+04  1.09403E+03  1.63077E+04  1.18309E+04  1.06267E+04  2.29003E+04
 -4.22434E+03  2.56763E+04 -2.12193E+04  1.81089E+04 -2.76037E+04  4.13598E+03 -2.18300E+04 -9.35336E+03
 -1.18356E+04 -1.91824E+04 -7.94793E+02 -1.59626E+04  6.86626E+03 -9.93323E+03  4.87414E+03 -6.47991E+03
  5.09581E+03 -2.23020E+03  3.90673E+03 -5.15496E+03  5.12871E+03 -3.68316E+03  1.01207E+04 -4.57963E+02
  1.05592E+04  1.81741E+03  6.55967E+03  1.00038E+04 -3.04674E+03  1.14405E+04 -1.21305E+04  1.11901E+04
 -1.63486E+04 -1.36642E+03 -1.03280E+04 -1.00109E+04 -2.17404E+03 -1.71501E+04  9.11957E+03 -1.61612E+04
  1.72877E+04 -8.83427E+03  2.03258E+04  2.03893E+03  1.50090E+04  1.46038E+04  8.77804E+02  1.82060E+04
 -8.63434E+03  1.57964E+04 -1.11012E+04  4.93400E+03 -7.48731E+03 -2.72994E+03 -1.03978E+03 -3.28352E+03
 -1.52577E+03  1.86631E+02 -1.40408E+03  3.81784E+03 -6.60471E+03  1.90697E+03 -1.12443E+04 -1.23498E+03
 -7.32577E+03 -1.11794E+04 -3.27746E+02 -1.58437E+04  8.79579E+03 -1.31062E+04  1.51054E+04 -5.58060E+03
  1.65349E+04  6.43007E+03  8.21243E+03  1.37810E+04 -3.06357E+03  1.65706E+04 -1.06968E+04  9.01004E+03
 -1.62877E+04 -2.37737E+02 -1.23970E+04 -1.08643E+04 -1.60733E+03 -1.45187E+04  6.54184E+03 -1.12804E+04
  8.97942E+03 -2.58009E+03  5.60407E+03  3.95426E+03  2.81284E+03  4.21656E+03  1.90463E+03  1.61322E+03
  3.08404E+03  2.72863E+03  4.07965E+03  1.39821E+03  3.05535E+03  5.18239E+03  4.33229E+03  8.22407E+03
 -4.04595E+03  1.35199E+04 -1.15745E+04  1.43264E+04 -1.80753E+04  2.72789E+03 -1.68970E+04 -6.52275E+03
 -8.24529E+03 -1.65553E+04  2.09940E+03 -1.88796E+04  9.47005E+03 -1.08732E+04  1.32998E+04 -3.03353E+03
  1.03734E+04  5.03882E+03  1.80968E+03  9.56842E+03 -3.96397E+03  4.50219E+03 -7.35518E+03 -2.25472E+03
 -4.11673E+03 -8.10286E+03  2.80127E+03 -6.83865E+03  7.31640E+03 -2.11414E+03  7.71128E+03  1.29548E+03
  3.96177E+03  2.44295E+03  2.01562E+03  3.96652E+03  7.78573E+02  2.38316E+03  2.10771E+03 -2.31443E+03
  2.62137E+03 -2.85085E+02  6.62791E+03  2.83013E+03  2.85253E+03  8.87617E+03 -9.38655E+02  9.49467E+03
 -7.03593E+03  8.98300E+03 -9.28522E+03  2.43850E+03 -1.06969E+04 -3.78804E+03 -3.90682E+03 -5.75861E+03
  3.74601E+02 -6.87929E+03  4.08091E+03 -2.35180E+03  4.66032E+03  2.47958E+03 -7.54896E+02  6.30526E+03
 -5.95538E+03  2.76653E+03 -6.68513E+03 -5.73889E+03 -3.80381E+03 -8.84713E+03  1.67490E+03 -9.40575E+03
  5.60533E+03 -6.09347E+03  6.65398E+03 -5.72790E+02  5.65819E+03  2.53821E+03 -2.50144E+02  4.29957E+03
 -3.86664E+03  2.15429E+03 -4.17444E+03 -3.60241E+03  1.41615E+03 -7.30333E+03  8.26103E+03 -7.90746E+03
  1.10219E+04  1.33887E+03  9.30683E+03  8.06069E+03  3.20091E+03  1.16615E+04 -3.84623E+03  1.03084E+04
 -8.67821E+03  5.34477E+03 -8.99629E+03 -1.65006E+03 -5.56934E+03 -8.42334E+03  3.97499E+02 -7.39568E+03
  7.96642E+03 -2.63554E+03  4.24348E+03  3.06408E+03  1.86528E+03  6.50244E+03 -1.77628E+03  3.51618E+03
 -2.04447E+03  4.10327E+03 -3.32059E+03  2.66308E+03 -8.18868E+02  3.59510E+02 -1.94235E+03  3.24771E+03
 -2.81420E+03  5.21427E+03 -6.91188E+03  3.96570E+03 -1.20304E+04  1.49496E+02 -1.24558E+04 -8.34244E+03
 -8.06431E+03 -1.53971E+04  3.07952E+03 -1.82948E+04  9.93941E+03 -1.33829E+04  1.48390E+04 -6.64080E+03
  1.46516E+04  2.40084E+03  9.15818E+03  1.11479E+04  2.72664E+02  1.10587E+04 -3.79069E+03  8.69381E+03
 -4.74032E+03  3.13076E+03 -4.18885E+03 -1.23363E+03 -1.39252E+03 -1.68118E+03  5.69858E+02 -1.02764E+03
 -1.77354E+03 -1.01810E+02 -1.74412E+03  1.48105E+02 -1.52580E+03 -3.55624E+03  6.74818E+02 -3.76456E+03
  5.77930E+03 -4.01318E+03  7.47831E+03 -1.42658E+03  7.62777E+03  6.23188E+03  2.39901E+03  1.33077E+04
 -4.98552E+03  1.36288E+04 -1.15972E+04  8.98351E+03 -1.33905E+04 -6.58086E+02 -1.06009E+04 -7.05951E+03
 -5.28964E+03 -1.21335E+04  2.31594E+03 -9.25636E+03  7.78818E+03 -6.65529E+03  7.62097E+03 -3.85646E+02
  3.68921E+03  1.78052E+03  2.54250E+02  3.74825E+03 -2.61137E+03  4.79547E+02 -6.68623E+02 -3.05473E+03
  4.08958E+03 -1.38902E+03  3.17256E+03  8.19174E+02  2.88036E+03  5.76221E+03  1.88084E+02  5.12187E+03
 -5.95206E+03  4.10935E+03 -7.41550E+03  4.56162E+02 -6.84003E+03 -6.26572E+03 -1.76658E+03 -9.52801E+03
  3.74288E+03 -7.31736E+03  9.32914E+03 -1.38459E+03  8.87815E+03  2.60186E+03  5.03138E+03  7.57832E+03
  2.05981E+03  7.35405E+03 -2.02386E+03  6.74692E+03 -5.48800E+03  2.57259E+03 -3.59058E+03 -9.60872E+02
 -2.16364E+03 -7.73550E+02 -1.27140E+03  1.75346E+03 -4.67782E+03  7.09122E+02 -5.11893E+03  6.52727E+02
 -7.75280E+03 -3.75201E+03 -2.97581E+03 -8.20138E+03  3.16206E+03 -6.71231E+03  6.41490E+03 -4.20836E+03
  8.06428E+03  3.37334E+02  5.27384E+03  5.25926E+03  9.58677E+02  6.99382E+03 -6.26957E+03  4.68671E+03
