 $NMID ID='MM_0lb_SNR200_19hz_g40_92.RAW', FMTDAT='(8E13.5)'
 TRAMP=1., VOLUME=1. $END
  3.09905E+05 -5.61525E+02  3.36224E+05  2.50259E+05  8.36489E+04  3.37075E+05 -1.32522E+05  2.50664E+05
 -1.88938E+05  8.23092E+04 -1.11383E+05 -3.25359E+04  1.41526E+03 -5.00157E+04  5.46482E+04 -4.02801E+02
  3.44943E+04  5.29192E+04 -1.67476E+04  7.52275E+04 -5.98553E+04  6.27272E+04 -8.19275E+04  3.02038E+04
 -7.92852E+04 -1.05765E+04 -5.64316E+04 -4.90638E+04 -1.59021E+04 -6.73017E+04  2.67497E+04 -4.41967E+04
  3.93770E+04  5.71452E+03  1.47607E+04  4.72214E+04 -3.33884E+04  4.65697E+04 -6.58825E+04 -3.41284E+02
 -5.17352E+04 -5.39270E+04 -5.57153E+03 -7.42365E+04  3.29101E+04 -5.29145E+04  4.51271E+04 -1.53677E+04
  4.00384E+04  1.08437E+04  3.12797E+04  2.39547E+04  1.55258E+04  2.86163E+04 -5.37502E+03  2.69287E+04
 -2.12150E+04  1.24126E+04 -1.90927E+04 -4.35767E+03  4.34421E+03 -7.97536E+03  2.07442E+04  1.04322E+04
  7.28712E+03  3.22007E+04 -3.06269E+04  3.36648E+04 -6.04983E+04  2.98567E+03 -5.60961E+04 -4.04300E+04
 -1.33416E+04 -6.09820E+04  3.67045E+04 -4.18332E+04  5.49817E+04 -1.81893E+03  3.18445E+04  3.04175E+04
 -7.40271E+03  3.26251E+04 -2.76404E+04  1.11085E+04 -2.67028E+04 -5.37397E+03 -1.41549E+04 -9.21979E+03
 -7.62126E+03 -1.05164E+04 -2.15139E+02 -1.53871E+04  6.39526E+03 -2.11524E+04  1.57179E+04 -1.43537E+04
  1.27961E+04  4.35869E+03 -5.41889E+03  1.37047E+04 -1.86402E+04 -2.52646E+03 -8.67350E+03 -3.01354E+04
  2.04333E+04 -3.97754E+04  4.38839E+04 -1.75512E+04  3.99836E+04  1.84312E+04  1.40756E+04  4.05041E+04
 -1.52165E+04  2.96724E+04 -2.30898E+04  9.15208E+02 -8.28241E+03 -2.55566E+04  1.98965E+04 -3.16051E+04
  3.72280E+04 -7.17383E+03  3.05003E+04  2.19693E+04  1.46107E+04  4.14585E+04 -7.07888E+03  4.31091E+04
 -2.74481E+04  2.83870E+04 -3.65023E+04  8.41893E+03 -3.65841E+04 -1.50213E+04 -2.02244E+04 -3.43209E+04
  6.46754E+03 -3.30796E+04  2.87225E+04 -1.11245E+04  2.69239E+04  1.16402E+04  4.10223E+03  1.75026E+04
 -1.28299E+04  7.95917E+03 -9.45787E+03 -8.63057E+03  6.08505E+03 -1.01454E+04  1.77656E+04  6.53592E+03
  1.22677E+04  2.17398E+04 -7.17765E+03  2.30864E+04 -2.11421E+04  8.22231E+03 -2.34767E+04 -7.18302E+03
 -1.64041E+04 -1.76001E+04 -5.56953E+03 -1.59484E+04  4.03308E+03 -1.35658E+04  1.04584E+04 -1.30899E+04
  2.05058E+04 -1.18546E+04  2.62672E+04  1.21452E+03  2.01672E+04  1.64323E+04  4.51063E+03  3.10488E+04
 -1.58609E+04  2.75639E+04 -2.49947E+04  9.66947E+03 -1.87756E+04 -1.03471E+04 -4.20505E+03 -1.31325E+04
  1.99025E+03 -5.25165E+03 -1.52782E+03  4.90333E+03 -1.14086E+04  6.09473E+03 -1.26921E+04 -4.30755E+03
 -8.28956E+03 -1.45162E+04  4.31089E+03 -1.85203E+04  1.18656E+04 -1.36055E+04  1.30694E+04 -1.72928E+03
  8.90548E+03  1.03349E+04 -3.41501E+02  1.45416E+04 -1.01989E+04  9.31367E+03 -1.42506E+04 -3.63079E+03
 -1.03063E+04 -1.29287E+04 -1.25426E+03 -1.81308E+04  8.17220E+03 -1.51073E+04  1.56492E+04 -7.42421E+03
  1.50432E+04 -2.48831E+02  9.52445E+03  2.70246E+03  5.34834E+03  1.67578E+03  7.75179E+03 -6.84498E+02
  1.18178E+04  2.86156E+03  1.45001E+04  1.24701E+04  9.34992E+03  2.44128E+04 -3.25788E+03  2.44412E+04
 -1.53788E+04  1.77130E+04 -2.34505E+04  8.50275E+03 -2.24056E+04 -1.69599E+03 -1.93534E+04 -1.42245E+04
 -9.70047E+03 -1.92274E+04  7.03586E+03 -1.73232E+04  1.52595E+04 -9.61437E+03  1.60819E+04  3.28993E+03
  5.49423E+03  9.90480E+03 -7.41929E+03  1.03011E+04 -1.31740E+04  2.51718E+03 -1.03459E+04 -8.06168E+03
 -9.62435E+02 -1.19247E+04  6.20521E+03 -9.24650E+03  7.47772E+03 -1.87175E+03  1.51280E+03  4.48591E+03
 -4.92169E+03  1.27937E+03 -3.61116E+03 -3.41425E+03  5.37129E+02 -9.75018E+03  7.66212E+03 -1.00446E+04
  1.14869E+04 -3.67218E+03  1.08632E+04  3.38606E+03  9.90506E+03  8.88466E+03  4.89180E+03  1.18860E+04
 -1.04020E+03  1.49033E+04 -9.16691E+03  9.12258E+03 -1.09377E+04  2.22372E+03 -7.37562E+03 -1.00704E+03
 -4.36191E+03 -1.67813E+03 -2.39801E+02  1.84853E+03 -1.11444E+03  1.33180E+03 -4.21797E+03  2.40839E+03
 -7.67670E+03 -9.63752E+02 -7.91917E+03 -7.36552E+03 -2.87537E+03 -1.09444E+04  3.54458E+03 -8.70012E+03
  5.86327E+03 -3.53254E+03  5.32184E+03  2.66055E+03  1.18029E+03  2.34941E+03 -3.47161E+03  1.39119E+02
 -3.10495E+03 -5.88837E+03 -1.64156E+03 -6.50097E+03  3.92489E+03 -6.89465E+03  9.03003E+03 -3.66923E+03
  1.07369E+04 -8.29652E+02  7.92342E+03  5.41082E+03  1.66226E+03  7.43238E+03 -4.95044E+03  7.79481E+03
 -7.76860E+03  3.84327E+03 -3.06900E+03 -1.00329E+03  2.22773E+03 -2.24007E+03  4.84488E+03 -8.68390E+02
  3.57735E+03  2.32773E+03  1.26934E+03  6.32628E+03 -4.85184E+03  6.33934E+03 -7.48387E+03  1.78546E+03
 -5.11960E+03 -2.84373E+03 -4.06846E+02 -5.66379E+03  4.43964E+03 -3.65819E+03  2.98629E+03  1.52889E+03
  6.85605E+02  3.08499E+03 -3.55761E+03  3.93824E+03 -3.83169E+03  1.85558E+03 -3.93658E+03 -1.46986E+03
 -2.08063E+03 -5.20781E+03  1.62155E+03 -6.30616E+03  4.97196E+03 -4.07333E+03  5.93372E+03  1.05551E+03
  4.02831E+03  3.66749E+03  1.21970E+02  6.31149E+03 -4.89626E+03  4.52759E+03 -4.16302E+03 -1.47597E+03
 -5.09425E+03 -5.83340E+03 -1.46582E+03 -4.39181E+03  1.55951E+03 -3.99303E+03  2.83257E+03 -2.67922E+03
  3.17897E+03  1.02140E+03  8.98753E+02  2.31556E+03  1.06503E+03  5.63814E+02  1.37135E+02 -1.51910E+03
  3.70311E+03  1.28306E+03  4.52294E+03  4.02587E+02  5.15328E+03  2.60689E+03  3.08769E+03  7.01493E+03
 -3.92806E+02  6.66665E+03 -6.54446E+03  5.85106E+03 -9.41490E+03 -2.80235E+02 -7.49643E+03 -2.00547E+03
 -3.93267E+03 -6.44068E+03 -9.66671E+02 -4.34771E+03  1.43084E+03 -1.93280E+03  2.07576E+03 -1.69879E+03
  1.13069E+03 -3.97318E+02  2.48260E+03 -1.99516E+03  3.53816E+03 -1.87226E+03  2.96955E+03  1.21769E+03
  4.22504E+03  1.17141E+03  1.20158E+03  3.21828E+03 -6.91720E+02  2.43845E+03 -3.35692E+03  2.28168E+03
 -4.15736E+03 -1.28745E+03 -5.66078E+02 -2.31977E+03  7.87755E+02 -5.04754E+03  2.88123E+03 -3.89000E+03
  5.66886E+03 -2.06502E+03  5.51941E+03 -8.69051E+02  4.28694E+03  2.94343E+03  4.09986E+02  4.38316E+03
 -1.35613E+03  5.40048E+03 -3.18632E+03  8.11254E+02 -1.70760E+03 -1.62793E+03 -1.22907E+01  7.88222E+00
 -3.89034E+02  2.17184E+02 -2.10513E+03  2.42509E+03 -2.89903E+03  1.06670E+03 -3.26788E+03 -3.72089E+02
 -1.57607E+03 -3.19047E+03  1.16177E+03 -4.89870E+03  9.33339E+02 -4.89530E+03  2.21055E+03 -8.82033E+02
  4.20826E+03  2.00379E+03  1.11788E+03  4.32477E+03  1.24866E+02  4.19017E+03 -1.54755E+03  1.82660E+03
 -3.58261E+03 -1.13259E+02 -2.79585E+03 -1.48589E+03 -3.70755E+02 -3.09789E+03  2.68293E+03 -2.13967E+03
  3.84909E+03 -1.65342E+03  1.41105E+03  4.01131E+02  1.05850E+03  1.14161E+03  2.39364E+02  1.18856E+03
  1.89493E+03  3.95884E+02  4.75444E+02  3.48019E+02  7.35497E+02  2.11985E+03  1.02487E+03  1.72522E+03
 -4.97807E+02  1.80155E+03 -1.25679E+03  3.31266E+03 -2.67241E+03  1.46711E+03 -3.83429E+03 -3.26350E+02
 -1.13443E+03 -1.84592E+03  7.33037E+02 -4.74234E+03  1.99045E+03 -2.45713E+03  3.62027E+03 -8.43028E+02
  2.50797E+03  1.38987E+03  1.73585E+02  2.38979E+03 -1.10032E+03  1.37575E+03 -1.53175E+03 -2.11632E+02
  4.69454E+02 -6.94245E+02  1.54179E+03 -9.53370E+02  1.86013E+03  7.87217E+01  9.07998E+02  6.38092E+02
  6.11955E+02  1.98086E+02  3.95454E+02 -1.47027E+03 -9.34386E+02  1.23555E+03  1.98890E+03 -8.39650E+02
  1.52824E+02 -1.13779E+02  1.82498E+03 -5.99602E+02 -2.32648E+02  2.96443E+03 -3.41753E+02  3.14456E+03
 -1.07554E+03 -1.00740E+02 -1.72983E+03  5.85964E+02 -1.70436E+03 -8.87951E+02  5.51366E+01 -1.43432E+03
  6.37015E+02 -1.47166E+03  8.03741E+02 -5.22093E+02 -1.09445E+02  8.31584E+02 -7.68620E+02  9.87660E+02
 -1.11376E+03  4.78445E+02 -1.32703E+03 -1.11705E+03  1.07446E+03 -1.66046E+03 -2.92839E+02 -1.13643E+03
  2.81185E+02 -5.09042E+02  7.46025E+02  8.79145E+02  1.30313E+03 -1.24240E+03  1.31500E+03  9.13780E+02
 -1.22644E+03  8.06707E+02  5.11809E+02 -2.10632E+02  2.85871E+02 -7.87823E+02  1.85982E+03 -1.44878E+03
  1.82417E+03  1.69913E+02  2.32713E+03  7.27428E+02  6.52494E+02  1.93093E+03  1.29955E+02  1.18103E+03
 -1.64204E+03 -8.68326E+02 -5.13788E+02 -1.33814E+03 -1.88098E+03 -1.32960E+03  9.33045E+02 -9.45735E+02
  4.80606E+02 -2.83923E+02  1.41500E+03  1.25060E+03 -9.32293E+02  2.44384E+03  3.89284E+02  7.96555E+02
 -1.40454E+01  1.52906E+03 -6.21233E+02  1.09590E+02  4.81371E+02  3.48368E+02 -4.36845E+02  1.86891E+03
 -2.18001E+02  9.99534E+02 -1.39705E+03  8.93896E+02 -1.69270E+03 -5.91049E+01 -2.64184E+03 -4.19319E+02
 -1.30038E+03 -2.57955E+03  1.77898E+02 -2.48065E+03  5.03540E+02 -2.01785E+03  3.05957E+03 -8.13632E+02
  3.00240E+03 -4.04983E+02  1.72138E+03  5.94311E+02 -2.69377E+02  2.14621E+03 -7.15169E+02  1.66109E+03
 -8.81442E+02  3.62605E+02  2.00248E+02 -4.57851E+02 -4.95263E+02 -5.29672E+00 -2.26570E+03  9.35858E+02
 -3.97743E+02  2.33994E+02 -1.11487E+03  6.91077E+02  7.58812E+02  2.95872E+02  3.73415E+01  1.20873E+02
  6.26277E+02 -1.02373E+03 -3.71800E+02 -1.47061E+02  7.41414E+02  1.20623E+03 -1.19410E+02  8.39618E+02
 -4.39829E+02  2.02221E+03 -9.96576E+02  9.65874E+02 -1.68605E+03  5.95205E+02 -9.53444E+02 -9.41609E+02
 -7.74647E+02 -1.86789E+03 -1.26979E+02 -1.44219E+03  3.02761E+02 -1.02091E+03  4.56752E+02  5.66375E+02
  2.08326E+02 -6.03981E+02 -1.14026E+03  5.90007E+02 -6.78642E+02 -2.12273E+02  7.88543E+02 -3.87215E+02
  2.42161E+02  3.40125E+02 -1.00389E+02  5.56699E+02 -5.69639E+02  5.40447E+02  6.39493E+01 -3.81178E+02
 -1.49680E+03  1.32682E+03 -8.30123E+02  4.99607E+02 -1.34371E+03 -4.65282E+02 -2.88350E+02 -3.80608E+02
 -1.61827E+02 -1.66925E+03  9.50813E+02 -1.16685E+02  1.18388E+03 -4.04534E+02  2.03444E+02  4.81458E+02
  6.87894E+02  1.24963E+03  1.19966E+03 -6.22451E+00 -6.83603E+02  3.43991E+02 -7.07163E+02  1.37756E+02
 -5.92260E+02 -1.65870E+02 -9.39451E+02  6.69027E+02 -7.74289E+02  8.88022E+02 -9.18814E+02  6.15277E+01
 -1.00147E+03 -8.59476E+02  1.72961E+02 -1.41051E+03  5.97360E+02 -1.46288E+03  2.20342E+03  1.52524E+03
  1.44068E+01 -2.83901E+02 -5.57318E+02  1.89115E+01 -6.38762E+02  2.75509E+02 -6.52847E+02  1.33729E+03
