 $NMID ID='MM_0lb_SNR200_14hz_g45_59.RAW', FMTDAT='(8E13.5)'
 TRAMP=1., VOLUME=1. $END
  3.10012E+05  3.47147E+02  3.37392E+05  2.49394E+05  8.59076E+04  3.39914E+05 -1.31574E+05  2.51108E+05
 -1.90024E+05  8.28273E+04 -1.10938E+05 -3.27230E+04  9.55469E+02 -5.06900E+04  5.41845E+04 -9.17412E+02
  3.46521E+04  5.27317E+04 -1.61995E+04  7.65785E+04 -6.13598E+04  6.42250E+04 -8.45278E+04  3.18497E+04
 -8.16607E+04 -1.04836E+04 -5.78189E+04 -5.15050E+04 -1.36470E+04 -6.97060E+04  2.74170E+04 -4.62705E+04
  3.93882E+04  4.63842E+03  1.56824E+04  4.73745E+04 -3.37101E+04  4.79909E+04 -6.61645E+04  1.50745E+02
 -5.33879E+04 -5.54050E+04 -7.44641E+03 -7.65259E+04  3.30934E+04 -5.47120E+04  4.63853E+04 -1.57151E+04
  4.37299E+04  1.17404E+04  3.06381E+04  2.49068E+04  1.51835E+04  3.09612E+04 -4.82312E+03  2.61501E+04
 -2.23392E+04  1.20252E+04 -1.89337E+04 -4.38538E+03  5.04508E+03 -6.97055E+03  2.26741E+04  1.21499E+04
  6.61510E+03  3.49141E+04 -3.17708E+04  3.48112E+04 -6.31140E+04  1.32161E+03 -5.65428E+04 -4.20807E+04
 -1.17889E+04 -6.27420E+04  4.01125E+04 -4.39830E+04  5.75879E+04 -3.03243E+03  3.47182E+04  3.19323E+04
 -4.78520E+03  3.59268E+04 -3.05017E+04  1.59864E+04 -2.97729E+04 -5.62507E+03 -1.61830E+04 -1.07647E+04
 -8.57830E+03 -1.18584E+04 -1.26812E+03 -1.91932E+04  7.82026E+03 -2.35083E+04  1.51639E+04 -1.36979E+04
  1.19633E+04  5.33258E+03 -7.79292E+03  1.28349E+04 -2.14583E+04 -4.13411E+03 -7.60473E+03 -3.36192E+04
  2.33285E+04 -4.38069E+04  4.82533E+04 -1.91467E+04  4.63170E+04  1.85071E+04  1.55817E+04  4.41943E+04
 -1.57625E+04  3.33164E+04 -2.51448E+04  1.72898E+03 -1.04435E+04 -2.90931E+04  2.11593E+04 -3.33089E+04
  4.17922E+04 -9.52794E+03  3.57070E+04  2.41027E+04  1.75635E+04  4.51637E+04 -8.04799E+03  5.02636E+04
 -3.07241E+04  3.38848E+04 -4.17259E+04  8.96615E+03 -4.41214E+04 -1.72722E+04 -2.18877E+04 -3.91261E+04
  7.71571E+03 -3.73153E+04  3.02919E+04 -1.41756E+04  2.79817E+04  1.17905E+04  4.49394E+03  1.83546E+04
 -1.40993E+04  8.81097E+03 -9.96426E+03 -8.16029E+03  6.35517E+03 -1.03041E+04  1.94564E+04  6.29444E+03
  1.32285E+04  2.15029E+04 -6.40944E+03  2.54096E+04 -2.19844E+04  1.12153E+04 -2.80663E+04 -5.29952E+03
 -2.08688E+04 -1.83303E+04 -7.44285E+03 -2.08664E+04  4.50838E+03 -1.89916E+04  1.58597E+04 -1.67204E+04
  2.57553E+04 -1.35273E+04  3.22908E+04  2.55405E+03  2.35417E+04  1.83190E+04  4.50419E+03  3.46614E+04
 -1.75305E+04  3.02811E+04 -2.64002E+04  1.04521E+04 -2.11558E+04 -9.92829E+03 -4.50823E+03 -1.45817E+04
  1.88974E+03 -2.76837E+03 -4.64322E+03  5.83855E+03 -1.57970E+04  4.14758E+03 -1.56217E+04 -7.26037E+03
 -1.04126E+04 -1.90204E+04  5.04090E+03 -2.29138E+04  1.44344E+04 -1.64060E+04  1.86326E+04 -3.31426E+03
  1.07341E+04  1.34096E+04  1.89033E+02  1.82499E+04 -1.17437E+04  1.13961E+04 -1.77757E+04 -5.69359E+03
 -1.27562E+04 -1.65374E+04 -1.45186E+03 -2.34666E+04  9.86235E+03 -1.77946E+04  1.88823E+04 -9.35101E+03
  1.89475E+04  4.53285E+02  1.25731E+04  4.79277E+03  5.46793E+03  1.39791E+03  1.02427E+04 -1.26151E+03
  1.65450E+04  2.37649E+03  1.86423E+04  1.45159E+04  1.33268E+04  3.03044E+04 -2.98305E+03  3.41248E+04
 -1.90674E+04  2.67772E+04 -3.09913E+04  1.36832E+04 -3.25201E+04 -1.52081E+03 -2.76245E+04 -2.03495E+04
 -1.23878E+04 -2.66317E+04  9.56528E+03 -2.42833E+04  2.07135E+04 -1.32987E+04  1.94036E+04  5.95402E+03
  8.14399E+03  1.45281E+04 -8.06668E+03  1.33624E+04 -1.44378E+04  2.82080E+03 -1.24896E+04 -9.75282E+03
 -4.00041E+02 -1.40842E+04  8.89435E+03 -1.01609E+04  9.17442E+03 -1.56805E+03  2.67622E+03  7.43656E+03
 -6.02182E+03  3.27806E+03 -5.93327E+03 -6.65028E+03 -6.11962E+02 -1.33640E+04  9.17836E+03 -1.41339E+04
  1.65209E+04 -6.49969E+03  1.57581E+04  3.37179E+03  1.52443E+04  1.14036E+04  7.69192E+03  1.90985E+04
 -2.88840E+03  2.29879E+04 -1.28601E+04  1.33888E+04 -1.33714E+04  4.26497E+03 -1.12848E+04 -3.16735E+03
 -3.54858E+03 -5.10955E+03 -1.43777E+03  2.14083E+03 -2.34425E+03  3.14736E+03 -4.36555E+03  3.91667E+03
 -1.15890E+04  1.07277E+03 -1.07198E+04 -7.67841E+03 -4.25762E+03 -1.41307E+04  4.46942E+03 -1.14728E+04
  9.25234E+03 -3.86762E+03  5.41814E+03  2.72912E+03  1.91428E+03  4.57094E+03 -4.42936E+03 -7.41089E+02
 -4.54642E+03 -6.28640E+03 -1.69087E+03 -9.54486E+03  4.81745E+03 -1.00835E+04  1.27779E+04 -6.26291E+03
  1.53390E+04  1.84462E+03  1.18540E+04  8.29865E+03  1.46098E+03  1.26277E+04 -6.21525E+03  1.02232E+04
 -1.06309E+04  3.79361E+03 -5.59261E+03 -2.87681E+03  2.14691E+03 -2.10962E+03  6.56143E+03 -1.20231E+03
  5.05180E+03  4.71040E+03  1.54960E+03  7.88325E+03 -5.40737E+03  7.70193E+03 -1.11092E+04  1.91863E+03
 -6.67317E+03 -5.91436E+03  6.55685E+02 -7.90885E+03  5.65559E+03 -5.69902E+03  5.44147E+03  1.32753E+03
  9.19690E+02  6.29897E+03 -5.07750E+03  7.98638E+03 -8.84892E+03  4.04291E+03 -9.50053E+03 -1.97732E+03
 -4.75498E+03 -9.22884E+03  1.96993E+03 -1.02581E+04  9.63568E+03 -6.29671E+03  1.08271E+04  2.52706E+03
  5.96159E+03  8.24097E+03 -8.39882E+02  1.01920E+04 -7.42963E+03  5.97327E+03 -7.63587E+03 -1.02951E+03
 -8.45866E+03 -7.09917E+03 -2.02526E+03 -9.18344E+03  2.82900E+03 -6.58375E+03  5.03820E+03 -3.51335E+03
  3.62966E+03  1.76425E+03  3.88784E+02  2.43645E+03 -2.68700E+02 -1.14381E+03  5.85551E+02 -4.91074E+03
  7.89023E+03 -2.44643E+03  8.60827E+03  1.51985E+03  9.53466E+03  6.19284E+03  7.27414E+03  1.19736E+04
 -2.02508E+03  1.42910E+04 -1.18603E+04  1.00502E+04 -1.55333E+04  2.27020E+03 -1.33797E+04 -5.12436E+03
 -6.06509E+03 -1.11005E+04 -5.20279E+02 -7.93286E+03  3.23197E+03 -6.05788E+03  3.35318E+03 -2.73234E+03
  2.17416E+03 -2.09548E+03  3.43416E+03 -2.16718E+03  5.11712E+03 -1.09120E+03  5.95527E+03  5.66798E+02
  6.43681E+03  1.54634E+03  3.61465E+03  6.26639E+03 -2.58321E+03  4.58836E+03 -7.08608E+03  4.37905E+03
 -8.94989E+03 -1.06548E+03 -4.02855E+03 -6.74977E+03  1.06431E+02 -8.90214E+03  5.83185E+03 -7.04090E+03
  9.40971E+03 -4.23447E+03  9.83730E+03  2.03345E+03  8.39064E+03  7.80432E+03  1.64813E+03  9.77108E+03
 -3.51580E+03  8.49526E+03 -6.23016E+03  3.41791E+03 -2.69800E+03 -6.67649E+02 -8.47685E+02 -2.02363E+03
 -5.24556E+02  8.09167E+02  2.35057E+02  2.00681E+03 -3.96375E+03  5.94726E+02 -5.71284E+03 -1.20374E+03
 -4.19441E+03 -6.05173E+03  4.99370E+01 -7.86016E+03  5.24207E+03 -8.25469E+03  5.77297E+03 -1.49237E+03
  8.20365E+03  3.64362E+03  3.55537E+03  7.10470E+03 -6.96608E+02  8.43472E+03 -6.30908E+03  5.93721E+03
 -7.42132E+03  1.07122E+03 -4.92189E+03 -4.53613E+03 -1.24363E+03 -6.28771E+03  2.82777E+03 -4.39757E+03
  5.03905E+03 -1.81413E+03  2.48465E+03  1.81561E+03  1.25392E+03  2.51805E+03  1.86781E+03  1.57960E+03
  2.50406E+03 -1.95116E+01  1.61647E+03  1.71431E+02  2.40923E+03  2.41848E+03  1.44720E+03  3.74709E+03
 -2.74588E+03  5.66302E+03 -5.71765E+03  7.16136E+03 -7.65796E+03  9.82847E+02 -8.00006E+03 -2.36337E+03
 -3.83712E+03 -6.77449E+03  1.48020E+03 -9.11069E+03  3.75025E+03 -4.97048E+03  5.94272E+03 -1.26818E+03
  3.00782E+03  2.54193E+03  6.53374E+02  4.45418E+03 -3.34036E+03  2.69861E+03 -1.84649E+03  2.13874E+02
 -1.44088E+03 -2.66554E+03  2.12040E+03 -3.06682E+03  2.81015E+03 -1.05716E+03  3.49043E+03  9.90266E+02
  2.02960E+03  5.16446E+02  1.43908E+03 -8.56886E+02 -9.61152E+02  1.84402E+03  1.58343E+03  1.63702E+02
  1.22028E+03 -1.33819E+02  2.10056E+03  1.35802E+03  1.97037E+02  4.39711E+03  9.15840E+01  5.58876E+03
 -2.28075E+03  3.35317E+03 -3.52599E+03  1.30773E+03 -4.37537E+03 -1.69147E+03 -9.92170E+02 -2.06657E+03
  9.14369E+02 -1.91224E+03  1.87760E+03 -2.27231E+03  8.44287E+02  2.09602E+03 -2.27701E+03  1.99994E+03
 -1.93846E+03  2.38059E+03 -3.00947E+03 -1.94959E+03 -8.62906E+02 -3.98665E+03  9.70058E+02 -4.65092E+03
  1.92106E+03 -2.57532E+03  2.20207E+03  3.87231E+02  6.63967E+02 -1.44972E+02  1.37882E+03  3.72685E+03
 -1.17172E+03 -1.72512E+01 -1.56699E+03 -2.63588E+03  2.56822E+02 -2.44662E+03  3.72129E+03 -3.74886E+02
  3.03992E+03 -1.52309E+03  4.90062E+03  2.81206E+03  7.76506E+02  5.13675E+03 -5.90042E+02  4.16799E+03
 -3.38176E+03  1.37669E+03 -3.52657E+03 -8.05293E+02 -2.06963E+03 -2.56625E+03  1.51573E+03 -2.52286E+03
  3.04455E+03 -2.08279E+03  3.48356E+03  1.28738E+03  1.12116E+03  2.09959E+03 -2.77955E+02  7.01729E+02
 -2.09387E+03  2.45222E+03 -1.68406E+02  6.55590E+01 -1.37018E+03  1.01190E+03 -1.97977E+03  4.60889E+02
 -1.93396E+03  1.55875E+03 -2.96385E+03  1.88993E+03 -3.27658E+03 -9.62985E+02 -5.04581E+03 -1.12990E+03
 -9.73757E+02 -5.79758E+03  1.94041E+02 -6.71490E+03  3.66715E+03 -4.85160E+03  5.43860E+03 -2.37652E+03
  4.80751E+03  7.77364E+02  4.36767E+03  2.71220E+03  6.79445E+02  4.61286E+03 -2.36618E+03  1.87158E+03
 -1.97644E+03  1.10054E+03 -7.40350E+02 -1.92566E+01 -8.79047E+02 -1.24001E+03 -2.66828E+02  7.00938E+02
 -1.81404E+03  2.04903E+02 -2.16469E+01 -5.09123E+02 -8.29589E+01 -7.58479E+02 -7.39247E+02 -2.05058E+03
  2.93092E+03 -1.01093E+03  1.88010E+03  2.27964E+02  2.19727E+03  2.81936E+03 -3.13205E+02  3.36480E+03
 -2.33225E+03  4.46721E+03 -3.71497E+03  2.41437E+03 -5.44134E+03 -9.57482E+02 -2.86980E+03 -3.56347E+03
 -2.07306E+03 -3.12973E+03  5.50441E+02 -3.58705E+03  1.56756E+03 -3.43887E+03  2.74307E+03 -8.81677E+01
  2.78570E+03  5.69961E+02 -7.52710E+02  9.72839E+02 -8.70214E+02  4.53736E+02 -2.82339E+01 -7.17613E+02
  1.33646E+03 -5.09168E+02  2.56180E+03  9.14021E+02  5.75382E+02  1.41849E+03 -3.82478E+00  1.01125E+03
 -1.24621E+02  1.37268E+03 -1.19916E+03  4.90124E+01 -2.56688E+03 -1.09620E+03 -3.94010E+02 -3.02026E+03
  1.20690E+03 -3.05555E+03  2.47554E+03 -2.40895E+01  2.29211E+03  8.19670E+02  1.64152E+03  1.49495E+03
  5.08549E+02  1.88965E+03 -3.74767E+01  1.81443E+03 -2.29831E+03  1.35203E+03 -8.58818E+02 -2.37543E+02
 -5.21510E+02 -4.16181E+02  3.24670E+02  1.24188E+01 -4.92941E+01  7.74899E+02 -1.99851E+03 -1.74836E+03
 -2.39531E+03  2.70115E+02 -9.99984E+02 -3.23015E+03  1.34877E+03 -1.32068E+03  1.55908E+03 -1.01462E+03
  1.96232E+03  1.64555E+03  5.12089E+02  1.28698E+03  6.04222E+02  2.71019E+03 -1.50553E+03  2.28896E+03
