 $NMID ID='MM_0lb_SNR200_12hz_g55_92.RAW', FMTDAT='(8E13.5)'
 TRAMP=1., VOLUME=1. $END
  3.10226E+05  3.40657E+02  3.37925E+05  2.49533E+05  8.45853E+04  3.38663E+05 -1.32672E+05  2.50884E+05
 -1.90773E+05  8.42010E+04 -1.11978E+05 -3.23250E+04  1.43453E+03 -5.06889E+04  5.37803E+04 -4.66905E+01
  3.45214E+04  5.27161E+04 -1.77952E+04  7.59810E+04 -6.03329E+04  6.27291E+04 -8.51467E+04  3.12912E+04
 -8.05582E+04 -1.15800E+04 -5.80783E+04 -5.22492E+04 -1.41747E+04 -7.13453E+04  2.73191E+04 -4.69144E+04
  4.05266E+04  3.84944E+03  1.72126E+04  4.90854E+04 -3.52447E+04  4.61320E+04 -6.81682E+04 -8.03732E+02
 -5.43770E+04 -5.62602E+04 -6.40681E+03 -7.95253E+04  3.34805E+04 -5.67283E+04  5.01451E+04 -1.83524E+04
  4.54335E+04  1.03204E+04  3.31410E+04  2.60739E+04  1.62063E+04  2.91490E+04 -6.18771E+03  2.80202E+04
 -2.26055E+04  1.21876E+04 -1.79588E+04 -6.22291E+03  6.74099E+03 -8.31909E+03  2.26585E+04  1.34042E+04
  6.87879E+03  3.62654E+04 -3.32109E+04  3.65131E+04 -6.34257E+04  1.99087E+03 -5.73493E+04 -4.41772E+04
 -1.35022E+04 -6.51666E+04  3.92151E+04 -4.59875E+04  6.00686E+04 -2.82951E+03  3.59294E+04  3.38777E+04
 -5.58577E+03  3.75338E+04 -3.10999E+04  1.71526E+04 -3.14750E+04 -4.88477E+03 -1.91918E+04 -1.28676E+04
 -9.31988E+03 -1.64475E+04 -1.39389E+03 -1.77399E+04  7.93304E+03 -2.24399E+04  1.65471E+04 -1.34356E+04
  1.11338E+04  5.82791E+03 -9.18008E+03  1.36719E+04 -2.19080E+04 -5.30329E+03 -8.34338E+03 -3.63199E+04
  2.42503E+04 -4.63522E+04  5.07211E+04 -2.01839E+04  4.62527E+04  2.04103E+04  1.70392E+04  4.52180E+04
 -1.60077E+04  3.46892E+04 -2.62561E+04  1.32048E+03 -1.09738E+04 -2.80554E+04  2.13842E+04 -3.48703E+04
  4.31295E+04 -1.07301E+04  3.77970E+04  2.44057E+04  1.98270E+04  4.89260E+04 -7.17086E+03  5.28338E+04
 -3.34099E+04  3.52185E+04 -4.59255E+04  1.00972E+04 -4.53953E+04 -1.70409E+04 -2.41684E+04 -3.99760E+04
  7.39813E+03 -4.09720E+04  3.41004E+04 -1.58087E+04  3.08518E+04  1.00675E+04  4.67728E+03  2.07322E+04
 -1.46028E+04  8.71020E+03 -9.67494E+03 -5.81872E+03  6.82778E+03 -9.43189E+03  1.93884E+04  5.86965E+03
  1.48711E+04  2.28550E+04 -4.72612E+03  2.70374E+04 -2.47796E+04  1.35424E+04 -2.99929E+04 -3.21888E+03
 -2.23808E+04 -1.87360E+04 -1.09718E+04 -2.29765E+04  4.45507E+03 -2.30723E+04  1.78831E+04 -2.05367E+04
  3.09989E+04 -1.24757E+04  3.52318E+04  2.68168E+03  2.60392E+04  2.24396E+04  4.54632E+03  3.81136E+04
 -1.87030E+04  3.17875E+04 -2.94028E+04  1.09962E+04 -2.10984E+04 -9.92314E+03 -4.50016E+03 -1.30892E+04
  1.02219E+03 -1.51667E+03 -5.40666E+03  6.94665E+03 -1.73874E+04  5.09216E+03 -1.83956E+04 -7.79195E+03
 -1.22656E+04 -2.13868E+04  5.73194E+03 -2.52376E+04  1.75688E+04 -1.78519E+04  1.92286E+04 -5.56192E+02
  1.21817E+04  1.41994E+04 -2.46144E+03  2.05206E+04 -1.42404E+04  1.31898E+04 -2.02785E+04 -2.60127E+03
 -1.47113E+04 -1.85874E+04 -4.84100E+02 -2.57625E+04  1.23545E+04 -2.01289E+04  2.12993E+04 -1.04281E+04
  1.94457E+04  1.06281E+03  1.40807E+04  5.18060E+03  7.02615E+03  2.54522E+03  1.19258E+04 -1.82574E+03
  1.94197E+04  2.40438E+03  2.32731E+04  1.68674E+04  1.55661E+04  3.49582E+04 -2.40657E+03  3.92377E+04
 -2.28871E+04  3.23580E+04 -3.52313E+04  1.59489E+04 -3.85897E+04 -2.78181E+03 -3.13895E+04 -2.28578E+04
 -1.34509E+04 -3.16045E+04  1.08506E+04 -2.92163E+04  2.67316E+04 -1.45581E+04  2.13457E+04  7.16307E+03
  7.83788E+03  1.62467E+04 -9.91537E+03  1.51169E+04 -1.77577E+04  2.63577E+03 -1.41691E+04 -1.10784E+04
 -6.31656E+02 -1.76106E+04  9.64073E+03 -1.35347E+04  1.18942E+04 -1.63584E+03  3.85096E+03  7.46952E+03
 -8.24257E+03  1.97613E+03 -7.36458E+03 -6.66896E+03 -1.36560E+03 -1.56573E+04  9.75460E+03 -1.59737E+04
  1.94528E+04 -1.03327E+04  2.28981E+04  3.53762E+03  1.78663E+04  1.59479E+04  8.59106E+03  2.41771E+04
 -4.18297E+03  2.62858E+04 -1.71940E+04  1.63308E+04 -1.98066E+04  2.63072E+03 -1.20618E+04 -4.44157E+03
 -7.78160E+03 -5.23252E+03 -5.62608E+02  1.06862E+03 -3.51811E+03  3.23884E+03 -5.84969E+03  4.59393E+03
 -1.13901E+04 -5.21090E+02 -1.28920E+04 -9.33120E+03 -4.12595E+03 -1.72280E+04  5.91877E+03 -1.29847E+04
  1.12898E+04 -5.11676E+03  8.03506E+03  3.55583E+03  7.22386E+01  5.14447E+03 -6.52051E+03  1.56836E+01
 -5.48363E+03 -8.53659E+03 -1.51783E+03 -1.10291E+04  7.68890E+03 -1.39571E+04  1.66649E+04 -6.49206E+03
  2.07061E+04  1.75203E+03  1.37678E+04  1.10955E+04  3.95521E+03  1.54797E+04 -8.68459E+03  1.19669E+04
 -1.04448E+04  3.26041E+03 -6.25636E+03 -2.40871E+03  1.64902E+03 -3.86528E+03  6.15866E+03 -7.21068E+02
  7.22175E+03  5.85246E+03  1.44370E+03  1.09573E+04 -6.88496E+03  9.73534E+03 -1.23083E+04  1.64604E+03
 -8.33782E+03 -6.63368E+03 -3.05912E+02 -1.11341E+04  6.21635E+03 -7.07500E+03  7.05845E+03  2.86809E+03
  1.28267E+03  7.67365E+03 -5.95583E+03  1.03724E+04 -1.20584E+04  4.10982E+03 -1.22035E+04 -3.42218E+03
 -6.48018E+03 -1.17499E+04  3.30053E+03 -1.42862E+04  1.12856E+04 -9.02502E+03  1.33249E+04  2.50719E+03
  7.18339E+03  1.10562E+04 -4.19429E+02  1.33518E+04 -1.01701E+04  6.97980E+03 -1.08254E+04 -1.46071E+03
 -8.33476E+03 -8.53242E+03 -1.96655E+03 -1.04411E+04  4.91076E+03 -7.02987E+03  5.96593E+03 -3.61928E+03
  4.27366E+03  2.74924E+03 -7.35192E+02  2.87807E+03 -7.91206E+02 -1.98055E+03  1.98566E+03 -5.15764E+03
  8.25801E+03 -3.43635E+03  1.13834E+04  6.95996E+02  1.22403E+04  8.84902E+03  8.53821E+03  1.64623E+04
 -4.50951E+03  1.82297E+04 -1.51595E+04  1.25327E+04 -2.06128E+04  2.79456E+03 -1.67933E+04 -5.99851E+03
 -7.86804E+03 -1.37055E+04  3.36925E+01 -1.10045E+04  5.43804E+03 -6.64726E+03  3.24023E+03 -5.07732E+03
  3.06774E+03 -1.41963E+03  3.43185E+03 -3.43481E+03  3.21637E+03 -1.50970E+03  6.47837E+03 -1.72382E+03
  8.22664E+03  2.42073E+03  5.65723E+03  6.25618E+03 -3.35947E+03  7.74220E+03 -9.24681E+03  6.98954E+03
 -1.16194E+04 -2.43304E+03 -7.57876E+03 -6.84398E+03  3.96891E+02 -1.23273E+04  7.53515E+03 -1.15853E+04
  1.22898E+04 -6.86249E+03  1.40040E+04  2.32285E+03  9.63603E+03  1.03125E+04  3.00111E+03  1.30998E+04
 -5.61314E+03  1.09301E+04 -7.82235E+03  4.66080E+03 -5.20129E+03 -1.20459E+03 -1.58062E+03 -1.93824E+03
 -1.09920E+03 -2.62678E+02 -2.18904E+03  3.49225E+02 -5.64956E+03  1.97423E+03 -7.04069E+03 -4.54724E+02
 -5.19440E+03 -8.32541E+03  2.54262E+02 -1.06777E+04  6.97806E+03 -1.11586E+04  1.01571E+04 -2.94053E+03
  9.09012E+03  4.08276E+03  4.87621E+03  1.05330E+04 -2.07227E+03  1.19530E+04 -6.65887E+03  6.46876E+03
 -9.61073E+03  1.87633E+03 -8.19958E+03 -6.12204E+03 -1.17277E+03 -9.12986E+03  3.63355E+03 -6.74278E+03
  6.09145E+03 -3.34799E+03  3.99444E+03  1.34359E+03  1.65908E+03  3.94379E+03  1.83101E+03  2.48040E+03
  1.65784E+03  1.06291E+03  2.85779E+03  2.16287E+03  4.86025E+03  3.25795E+03  2.89111E+03  4.20602E+03
 -2.29690E+03  7.21443E+03 -7.38413E+03  9.26420E+03 -1.02031E+04  2.21582E+03 -1.08926E+04 -2.71249E+03
 -5.18621E+03 -9.81661E+03  1.88482E+03 -1.21927E+04  7.17821E+03 -7.29512E+03  8.35655E+03 -1.79222E+03
  7.17034E+03  2.96371E+03  1.09895E+03  6.93225E+03 -2.55184E+03  3.18266E+03 -4.39029E+03 -1.32551E+03
 -1.33080E+03 -4.75222E+03  1.23968E+03 -5.28915E+03  3.92603E+03 -2.17827E+03  4.01054E+03  9.75485E+02
  1.70958E+03  1.34983E+03  6.88405E+02  1.31335E+03 -9.24152E+02  2.30044E+03  9.31293E+02 -7.03077E+02
  2.24729E+03 -1.08975E+03  3.11855E+03  1.64842E+03  1.97511E+03  5.97513E+03  1.24076E+03  8.04864E+03
 -6.19138E+03  5.47632E+03 -5.72091E+03  1.67206E+03 -6.25630E+03 -1.95524E+03 -1.33773E+03 -2.58014E+03
  8.16675E+02 -3.54004E+03  1.41044E+03 -2.46100E+03  1.66906E+03  1.89020E+03 -7.67589E+02  4.73405E+03
 -3.53197E+03  3.14237E+03 -4.25897E+03 -2.23787E+03 -2.90181E+03 -6.63573E+03  1.74125E+03 -5.86901E+03
  2.26647E+03 -2.19878E+03  3.93459E+03  1.66848E+02  2.94622E+03  1.61774E+03  4.55851E+02  3.42769E+03
 -1.83735E+03 -4.44890E+01 -3.33147E+03 -2.27210E+03  5.62322E+02 -3.29247E+03  5.84940E+03 -2.93229E+03
  5.17774E+03  2.16012E+02  8.23367E+03  3.59731E+03  1.43064E+03  5.38111E+03 -1.79940E+03  5.32460E+03
 -5.25157E+03  2.66864E+03 -2.87243E+03 -1.21776E+03 -3.79675E+03 -4.04003E+03  1.75846E+03 -2.61997E+03
  4.35065E+03 -8.83208E+02  4.56773E+03  1.85538E+03  2.78719E+02  4.57396E+03 -1.10562E+03  1.71523E+03
 -7.18890E+02  2.90934E+03 -1.72696E+03  1.47922E+03 -6.45337E+02  1.15894E+03 -1.00738E+03  1.41629E+03
 -9.23474E+02  2.61674E+03 -3.40110E+03  3.32261E+03 -6.03426E+03 -2.68424E+02 -5.01429E+03 -4.25429E+03
 -3.25936E+03 -8.79449E+03  1.28635E+03 -9.01974E+03  5.96833E+03 -7.12746E+03  1.04311E+04 -2.55577E+03
  9.14060E+03  1.23376E+03  4.41669E+03  6.16106E+03  4.90768E+02  6.78780E+03 -1.87454E+03  3.31991E+03
 -4.56781E+03  1.67459E+03 -3.08544E+03 -5.79500E+02 -1.87610E+03 -3.52886E+02 -1.57553E+03  4.44095E+02
 -2.57940E+03  8.22694E+02 -1.85582E+03 -3.89685E+02 -7.81979E+02 -1.95460E+03 -3.15111E+02 -3.27132E+03
  3.48871E+03 -2.65538E+03  3.13709E+03  1.52631E+03  3.75623E+03  3.07667E+03  3.53927E+02  4.99718E+03
 -3.22878E+03  6.03879E+03 -6.57694E+03  5.06142E+03 -6.40586E+03  9.07567E+02 -5.59382E+03 -4.54609E+03
 -2.18873E+03 -6.65150E+03  2.00323E+03 -4.97067E+03  4.21734E+03 -3.15223E+03  3.58967E+03  7.60607E+02
  2.18927E+03  2.36292E+03  1.38025E+03  2.91587E+03 -1.46837E+03 -6.70242E+02  4.83693E+02 -7.12748E+02
  1.54414E+03 -3.82964E+02  3.08291E+03  6.43077E+02  6.99973E+02  1.30716E+03 -8.96291E+02  2.50428E+03
 -2.81025E+03  2.65988E+03 -3.26618E+03  6.67297E+02 -3.56285E+03 -1.70085E+03 -8.88476E+02 -6.03945E+03
  2.12965E+03 -4.49612E+03  3.43634E+03 -5.69038E+02  3.99774E+03  4.03117E+02  2.77096E+03  4.87347E+03
  1.21681E+03  3.44331E+03 -1.35454E+03  2.73011E+03 -2.96518E+03  2.23254E+03 -1.52367E+03  8.17697E+02
 -1.30107E+03  1.38520E+02 -8.74511E+02  1.40372E+03 -2.40032E+03  6.81553E+02 -2.43608E+03 -1.54372E+03
 -1.62328E+03 -1.96197E+03 -7.77205E+02 -3.89349E+03  1.95616E+03 -3.22607E+03  3.25382E+03 -1.90278E+03
  3.45651E+03  2.07293E+03  1.42376E+03  4.04517E+03 -8.04448E+02  3.69802E+03 -1.70743E+03  1.44981E+03
