 $NMID ID='MM_0lb_SNR200_10hz_g55_36.RAW', FMTDAT='(8E13.5)'
 TRAMP=1., VOLUME=1. $END
  3.09706E+05  3.11079E+02  3.38074E+05  2.51027E+05  8.56592E+04  3.39679E+05 -1.33195E+05  2.53257E+05
 -1.89460E+05  8.43479E+04 -1.12899E+05 -3.21157E+04 -6.54289E+02 -4.90992E+04  5.46538E+04 -1.95835E+03
  3.51119E+04  5.18681E+04 -1.55987E+04  7.68033E+04 -6.06768E+04  6.51027E+04 -8.50445E+04  3.31903E+04
 -8.21482E+04 -1.08118E+04 -5.81252E+04 -5.22161E+04 -1.39560E+04 -7.19256E+04  2.68945E+04 -4.79405E+04
  3.98532E+04  4.71577E+03  1.75020E+04  4.81289E+04 -3.41179E+04  4.75751E+04 -6.91931E+04  1.66101E+03
 -5.44031E+04 -5.73899E+04 -8.01418E+03 -7.80670E+04  3.45689E+04 -5.87840E+04  4.83735E+04 -1.67700E+04
  4.38619E+04  1.22104E+04  3.52612E+04  2.69165E+04  1.66876E+04  3.04922E+04 -5.36502E+03  2.68680E+04
 -2.21578E+04  1.14057E+04 -1.72035E+04 -6.57305E+03  5.36642E+03 -6.96165E+03  2.31881E+04  1.49537E+04
  7.90692E+03  3.64976E+04 -3.42595E+04  3.65576E+04 -6.59056E+04  1.63960E+03 -5.82425E+04 -4.40044E+04
 -1.10690E+04 -6.54148E+04  4.25198E+04 -4.84816E+04  6.09256E+04 -1.99513E+03  3.64408E+04  3.40163E+04
 -6.92475E+03  3.96202E+04 -3.21039E+04  1.95421E+04 -3.29795E+04 -4.53790E+03 -1.93835E+04 -1.23335E+04
 -1.12636E+04 -1.45592E+04  2.11225E+02 -1.98067E+04  9.09418E+03 -2.30712E+04  1.47169E+04 -1.36914E+04
  1.14110E+04  6.60856E+03 -1.05926E+04  1.43753E+04 -2.36702E+04 -6.75293E+03 -8.28255E+03 -3.66721E+04
  2.51165E+04 -4.67870E+04  5.07824E+04 -2.05248E+04  4.74577E+04  2.04898E+04  1.70282E+04  4.70213E+04
 -1.61048E+04  3.61592E+04 -2.88014E+04  2.43763E+03 -1.12786E+04 -3.07806E+04  2.21947E+04 -3.62119E+04
  4.36649E+04 -9.30365E+03  4.18029E+04  2.53697E+04  1.94578E+04  5.24053E+04 -9.15832E+03  5.56019E+04
 -3.55913E+04  3.85294E+04 -4.65686E+04  1.15246E+04 -4.73558E+04 -1.84758E+04 -2.32374E+04 -4.21353E+04
  7.54965E+03 -4.27931E+04  3.27561E+04 -1.67190E+04  3.32829E+04  1.19631E+04  5.58313E+03  2.09888E+04
 -1.44592E+04  8.55135E+03 -1.06107E+04 -7.93055E+03  6.11579E+03 -1.20113E+04  1.74230E+04  5.73855E+03
  1.60108E+04  2.31467E+04 -4.68819E+03  2.83461E+04 -2.31251E+04  1.42630E+04 -3.04022E+04 -2.42042E+03
 -2.51172E+04 -1.78058E+04 -1.05213E+04 -2.48386E+04  4.39790E+03 -2.40173E+04  1.92921E+04 -2.41054E+04
  3.19044E+04 -1.32763E+04  3.77194E+04  4.62864E+03  2.53532E+04  2.29573E+04  3.27645E+03  4.09561E+04
 -1.91227E+04  3.41026E+04 -3.01632E+04  1.06214E+04 -2.24941E+04 -1.08629E+04 -3.85289E+03 -1.27484E+04
  2.03674E+03 -1.67410E+03 -6.56704E+03  7.48433E+03 -1.91095E+04  4.66262E+03 -2.04303E+04 -9.14137E+03
 -1.23148E+04 -2.26407E+04  5.86771E+03 -2.92204E+04  1.86669E+04 -1.84827E+04  2.25451E+04 -2.57851E+03
  1.46993E+04  1.68751E+04 -1.91686E+03  2.18873E+04 -1.67289E+04  1.33300E+04 -2.33123E+04 -5.34586E+03
 -1.74851E+04 -2.01765E+04 -1.70497E+03 -2.73950E+04  1.22035E+04 -2.19156E+04  2.32571E+04 -1.14817E+04
  2.04812E+04  5.37171E+01  1.51539E+04  5.44859E+03  8.00870E+03  3.11215E+03  1.20380E+04 -2.66884E+03
  2.19577E+04  4.08756E+03  2.45560E+04  1.79598E+04  1.61306E+04  3.72157E+04 -2.62231E+03  4.35267E+04
 -2.59393E+04  3.61030E+04 -4.10074E+04  1.86640E+04 -4.24199E+04 -2.90962E+03 -3.51130E+04 -2.48828E+04
 -1.27733E+04 -3.50428E+04  1.41584E+04 -3.27074E+04  2.74338E+04 -1.39176E+04  2.49160E+04  7.88064E+03
  7.24206E+03  1.93040E+04 -1.13032E+04  1.67139E+04 -2.05856E+04  1.89676E+03 -1.56938E+04 -1.27256E+04
  1.98377E+02 -1.86662E+04  9.33112E+03 -1.23939E+04  1.25161E+04 -1.24863E+03  3.84338E+03  9.72889E+03
 -8.58773E+03  3.07005E+03 -9.37795E+03 -5.27793E+03 -1.11468E+03 -1.69517E+04  1.01050E+04 -1.83923E+04
  2.10370E+04 -1.13205E+04  2.42822E+04  2.61057E+03  2.15870E+04  1.81042E+04  1.03526E+04  2.76864E+04
 -6.14388E+03  2.99146E+04 -1.92401E+04  1.88728E+04 -2.26326E+04  2.68901E+03 -1.40501E+04 -6.22165E+03
 -6.92052E+03 -7.36437E+03 -8.74808E+02 -5.76115E+02 -2.79854E+03  3.54598E+03 -6.78862E+03  6.41523E+03
 -1.47412E+04 -1.52651E+03 -1.52728E+04 -1.31739E+04 -4.54970E+03 -1.95886E+04  6.12014E+03 -1.39204E+04
  1.19347E+04 -5.98096E+03  7.73029E+03  4.66904E+03 -2.76084E+02  5.38935E+03 -7.99612E+03 -1.18838E+03
 -7.22530E+03 -9.68641E+03 -3.16689E+02 -1.45104E+04  8.16089E+03 -1.64541E+04  1.85292E+04 -7.59931E+03
  2.25416E+04  2.26912E+03  1.64365E+04  1.41332E+04  3.05966E+03  2.02431E+04 -9.49339E+03  1.57175E+04
 -1.19990E+04  4.81283E+03 -5.89142E+03 -2.31998E+03  3.22501E+03 -4.39892E+03  5.84043E+03 -1.37124E+03
  6.37475E+03  7.53247E+03  9.40891E+02  1.14823E+04 -8.47441E+03  1.12731E+04 -1.43905E+04  1.56246E+03
 -9.88764E+03 -8.54411E+03  1.51481E+03 -1.37005E+04  8.20552E+03 -5.34192E+03  8.36761E+03  3.01373E+03
  4.17275E+03  1.02065E+04 -7.46651E+03  1.21313E+04 -1.20812E+04  5.43067E+03 -1.29275E+04 -4.70537E+03
 -6.97840E+03 -1.65763E+04  2.81061E+03 -1.68739E+04  1.59336E+04 -9.87957E+03  1.49632E+04  2.59189E+03
  1.05195E+04  1.22181E+04 -9.45310E+02  1.65388E+04 -1.23530E+04  7.81866E+03 -1.24936E+04 -1.52681E+03
 -1.16145E+04 -9.30756E+03 -1.11916E+03 -1.17725E+04  6.84534E+03 -8.04425E+03  7.79500E+03 -3.27428E+03
  4.76926E+03  2.05460E+03 -1.22483E+03 -5.92348E+01 -1.56517E+03 -2.58180E+03  3.89914E+03 -5.88941E+03
  1.04004E+04 -4.30621E+03  1.47952E+04  1.89324E+03  1.46507E+04  1.02867E+04  9.32095E+03  1.98025E+04
 -4.61045E+03  2.21337E+04 -1.89416E+04  1.51991E+04 -2.30480E+04  3.59584E+03 -1.95949E+04 -9.06727E+03
 -1.05387E+04 -1.72712E+04  1.31130E+03 -1.38130E+04  5.99981E+03 -7.36171E+03  5.02792E+03 -5.65797E+03
  4.54017E+03 -2.12694E+03  4.06961E+03 -2.87973E+03  5.88910E+03 -3.56413E+03  6.60915E+03 -2.91264E+03
  1.10399E+04  3.45183E+03  5.66084E+03  7.95752E+03 -2.88599E+03  1.11302E+04 -8.50031E+03  9.07685E+03
 -1.25180E+04 -8.85925E+02 -8.56773E+03 -1.20101E+04 -1.78184E+03 -1.54404E+04  8.83852E+03 -1.58581E+04
  1.40853E+04 -8.35766E+03  1.87878E+04  1.31782E+03  1.21900E+04  1.10071E+04  1.80278E+03  1.74534E+04
 -6.75335E+03  1.31255E+04 -8.82363E+03  5.01732E+03 -7.02554E+03 -6.23266E+02 -2.26064E+03 -2.50188E+03
 -2.37334E+03 -1.03102E+03 -2.33104E+03  2.47255E+03 -5.58252E+03  2.37928E+03 -8.70875E+03 -1.88656E+02
 -7.56194E+03 -8.63174E+03 -3.22693E+02 -1.43903E+04  7.10145E+03 -1.25646E+04  1.34052E+04 -4.09965E+03
  1.36142E+04  7.17057E+03  7.44201E+03  1.13207E+04 -1.51384E+03  1.40179E+04 -8.60346E+03  8.27057E+03
 -1.33058E+04  1.11488E+03 -9.57063E+03 -7.28696E+03 -1.95502E+03 -1.05570E+04  6.06861E+03 -8.41072E+03
  8.42954E+03 -3.88793E+03  4.85344E+03  3.24782E+03  1.87784E+03  3.29389E+03  7.56180E+02  2.02036E+03
  3.60713E+03  1.15710E+03  4.74384E+03  1.54703E+03  4.82327E+03  4.84004E+03  3.37716E+03  6.27273E+03
 -3.78421E+03  1.07565E+04 -9.21971E+03  9.94605E+03 -1.51425E+04  3.96200E+03 -1.66375E+04 -5.44934E+03
 -6.42018E+03 -1.35967E+04  2.24162E+03 -1.65715E+04  7.61780E+03 -9.85669E+03  1.19015E+04 -2.77674E+03
  8.11577E+03  5.48876E+03  3.36269E+03  8.29323E+03 -3.16121E+03  6.37565E+03 -5.55939E+03 -1.92124E+02
 -2.12268E+03 -5.13068E+03  2.49593E+03 -6.39146E+03  5.90664E+03 -3.04254E+03  5.80678E+03  1.42641E+03
  2.23276E+03  2.46002E+03  4.33391E+02  2.15025E+03 -1.18405E+03  1.01556E+03  2.96628E+03  2.75666E+02
  2.03583E+03 -8.44783E+02  5.51354E+03  2.11954E+03  2.37856E+03  7.25575E+03  5.67284E+01  9.88417E+03
 -6.15118E+03  7.28082E+03 -7.92904E+03  1.92552E+03 -9.25121E+03 -2.51110E+03 -3.66376E+03 -4.40330E+03
  1.49651E+03 -5.12271E+03  4.46383E+03 -2.68341E+03  3.64895E+03  1.46981E+03 -1.62930E+03  4.99624E+03
 -6.13296E+03  2.01179E+03 -5.23790E+03 -3.59345E+03 -5.06364E+03 -6.98908E+03  2.63384E+03 -8.10712E+03
  3.57402E+03 -3.84609E+03  4.94745E+03 -2.77745E+02  4.11171E+03  1.67530E+03  8.20167E+01  3.74281E+03
 -3.51980E+03  9.42797E+02 -2.84179E+03 -4.09491E+03  1.01568E+03 -6.00352E+03  5.87571E+03 -3.94335E+03
  8.62535E+03  7.83993E+02  8.55083E+03  6.26890E+03  3.28709E+03  8.73049E+03 -2.50758E+03  8.36495E+03
 -7.83420E+03  3.71239E+03 -8.45669E+03 -2.14884E+03 -3.56165E+03 -7.15893E+03  1.36526E+01 -6.00735E+03
  7.18464E+03 -8.38688E+02  4.99980E+03  3.48503E+03  1.46545E+03  5.32714E+03 -2.22003E+03  4.57088E+03
 -2.35919E+03  2.64502E+03 -9.12811E+02  3.68545E+02 -1.00556E+03  1.22718E+03 -2.10492E+03  1.47710E+03
 -3.11700E+03  4.06079E+03 -6.88187E+03  3.39795E+03 -7.04794E+03  2.65785E+02 -1.13773E+04 -5.21363E+03
 -4.28622E+03 -1.26224E+04  1.95695E+03 -1.17794E+04  8.13592E+03 -1.12395E+04  1.21512E+04 -4.33315E+03
  1.10327E+04  2.16898E+03  6.42870E+03  6.71615E+03  5.66480E+01  9.70848E+03 -4.45119E+03  6.70374E+03
 -5.74817E+03  1.96708E+03 -3.65303E+03 -1.24903E+03  1.14726E+03 -7.23620E+02 -2.18478E+02  3.43901E+02
 -1.75260E+03  5.93844E+00 -1.95464E+03 -1.55522E+03 -3.88139E+02 -2.90858E+03  9.36884E+02 -3.77146E+03
  5.29093E+03 -2.30697E+03  5.16002E+03 -2.51203E+02  6.20239E+03  4.12858E+03  1.99904E+03  9.49453E+03
 -4.24134E+03  1.18900E+04 -9.40959E+03  5.91846E+03 -1.17382E+04 -2.59432E+03 -7.78788E+03 -7.39764E+03
 -2.46429E+03 -9.76331E+03  2.71044E+03 -8.06015E+03  6.37614E+03 -5.59853E+03  6.45167E+03  1.04274E+03
  1.52831E+03  4.62816E+02  7.36428E+02  2.15889E+03 -1.21165E+03 -4.62546E+02  6.89928E+02 -1.07437E+03
  2.37662E+03 -1.54484E+03  2.91993E+03 -3.51468E+01  2.02344E+03  4.00643E+03 -3.75006E+02  4.57483E+03
 -3.64251E+03  4.63138E+03 -5.53890E+03  9.14162E+02 -4.66135E+03 -4.72476E+03 -5.85913E+02 -7.78606E+03
  3.08676E+03 -5.99818E+03  6.11171E+03 -1.89898E+03  7.49869E+03  1.83064E+03  4.26960E+03  7.12952E+03
  2.02483E+03  7.20066E+03 -2.42517E+03  5.93560E+03 -5.07190E+03  3.44718E+03 -3.87449E+03  4.40158E+02
 -2.61933E+03  1.78139E+02 -2.05501E+03 -3.60897E+02 -2.33554E+03 -1.69325E+02 -5.34890E+03 -2.08240E+03
 -3.92770E+03 -7.76005E+02 -9.46489E+02 -5.61084E+03  3.96670E+03 -7.10497E+03  4.47668E+03 -1.88611E+03
  5.49237E+03  1.74839E+03  2.42807E+03  5.12554E+03  2.59353E+02  7.30837E+03 -4.82391E+03  3.63208E+03
