 $NMID ID='MM_0lb_SNR200_11hz_g60_10.RAW', FMTDAT='(8E13.5)'
 TRAMP=1., VOLUME=1. $END
  3.09029E+05  5.28370E+02  3.38718E+05  2.50391E+05  8.45981E+04  3.38845E+05 -1.31990E+05  2.51822E+05
 -1.90045E+05  8.47099E+04 -1.12240E+05 -3.25007E+04  1.97788E+01 -5.04865E+04  5.34995E+04  2.52934E+02
  3.51675E+04  5.25843E+04 -1.64538E+04  7.71274E+04 -6.15600E+04  6.28971E+04 -8.51277E+04  3.44178E+04
 -8.29841E+04 -1.18198E+04 -5.90302E+04 -5.23120E+04 -1.56018E+04 -7.14779E+04  2.71902E+04 -4.61456E+04
  4.11673E+04  3.07002E+03  1.85137E+04  4.98563E+04 -3.52026E+04  4.87002E+04 -6.74955E+04  2.74597E+02
 -5.54410E+04 -5.64757E+04 -7.71198E+03 -7.86937E+04  3.40285E+04 -5.71311E+04  4.89598E+04 -1.81722E+04
  4.52421E+04  1.04580E+04  3.22686E+04  2.54565E+04  1.81266E+04  2.87608E+04 -6.25886E+03  2.66303E+04
 -2.21337E+04  1.39729E+04 -1.89511E+04 -6.07833E+03  5.65188E+03 -8.34619E+03  2.36180E+04  1.42941E+04
  6.59691E+03  3.66453E+04 -3.43177E+04  3.74173E+04 -6.53755E+04  3.39214E+03 -5.80132E+04 -4.30493E+04
 -1.41981E+04 -6.59996E+04  4.13796E+04 -4.81070E+04  6.02063E+04 -2.76401E+03  3.74285E+04  3.29915E+04
 -6.25552E+03  3.91985E+04 -3.32083E+04  1.79750E+04 -3.48162E+04 -3.93655E+03 -1.94816E+04 -1.06603E+04
 -9.64906E+03 -1.47301E+04  1.67444E+01 -2.14295E+04  7.88205E+03 -2.35605E+04  1.43858E+04 -1.27589E+04
  1.00466E+04  6.86278E+03 -1.01364E+04  1.29499E+04 -2.29308E+04 -5.34593E+03 -8.91464E+03 -3.75849E+04
  2.41882E+04 -4.76923E+04  5.11894E+04 -2.01216E+04  4.95373E+04  2.15408E+04  1.70517E+04  4.74406E+04
 -1.77058E+04  3.53540E+04 -2.72451E+04  2.22108E+03 -1.11145E+04 -2.94363E+04  2.11817E+04 -3.57264E+04
  4.46780E+04 -1.02447E+04  4.00038E+04  2.53197E+04  2.07561E+04  5.05714E+04 -1.03346E+04  5.56498E+04
 -3.51225E+04  3.75261E+04 -4.70431E+04  1.22131E+04 -4.70761E+04 -1.80963E+04 -2.68760E+04 -4.15576E+04
  9.50276E+03 -4.16420E+04  3.41109E+04 -1.71154E+04  3.02916E+04  9.65043E+03  4.90856E+03  2.17823E+04
 -1.41148E+04  9.20915E+03 -1.23289E+04 -8.09299E+03  5.80301E+03 -1.10008E+04  1.87487E+04  4.80243E+03
  1.49633E+04  2.32606E+04 -4.46810E+03  2.47528E+04 -2.45722E+04  1.32861E+04 -3.26012E+04 -4.64251E+03
 -2.44487E+04 -1.90851E+04 -9.95881E+03 -2.42730E+04  3.46506E+03 -2.35068E+04  1.89669E+04 -2.24738E+04
  3.05403E+04 -1.57781E+04  3.71693E+04  5.74422E+03  2.73312E+04  2.39859E+04  5.34434E+03  4.02254E+04
 -2.01998E+04  3.34101E+04 -2.95310E+04  1.16285E+04 -2.26254E+04 -8.87078E+03 -6.00053E+03 -1.39995E+04
  1.99885E+03 -5.03059E+02 -5.91789E+03  6.70994E+03 -1.84851E+04  4.04259E+03 -2.04668E+04 -7.49693E+03
 -1.08099E+04 -2.30080E+04  7.95642E+03 -2.73056E+04  1.83299E+04 -1.91753E+04  2.12548E+04 -9.95822E+02
  1.44795E+04  1.50649E+04 -3.14702E+03  2.28277E+04 -1.72939E+04  1.22295E+04 -2.37798E+04 -3.90119E+03
 -1.74658E+04 -2.03575E+04  1.05848E+02 -2.65888E+04  1.28064E+04 -2.10814E+04  2.19739E+04 -1.04868E+04
  2.11726E+04  6.16129E+02  1.47082E+04  3.75047E+03  8.16253E+03  1.68094E+03  1.26498E+04 -3.31623E+02
  2.19148E+04  3.59340E+03  2.38708E+04  1.74291E+04  1.57858E+04  3.72729E+04 -2.96529E+03  4.18508E+04
 -2.58527E+04  3.52890E+04 -3.89422E+04  1.89202E+04 -4.27478E+04 -3.30065E+03 -3.48718E+04 -2.54145E+04
 -1.34817E+04 -3.58805E+04  1.20398E+04 -3.06061E+04  2.81420E+04 -1.27473E+04  2.27461E+04  7.30851E+03
  7.62592E+03  1.66205E+04 -1.18212E+04  1.56799E+04 -1.84203E+04  1.66785E+03 -1.53177E+04 -1.50033E+04
  1.68828E+02 -1.97803E+04  1.08254E+04 -1.42349E+04  1.28910E+04 -9.40142E+02  2.91434E+03  8.40736E+03
 -7.22823E+03  4.43332E+03 -8.08090E+03 -8.21699E+03 -2.39881E+03 -1.68928E+04  1.18315E+04 -1.87629E+04
  2.09497E+04 -1.09584E+04  2.56429E+04  1.16399E+03  2.15191E+04  1.76707E+04  1.01084E+04  2.69074E+04
 -4.72351E+03  2.93405E+04 -1.94000E+04  1.89807E+04 -2.11996E+04  2.10287E+03 -1.39193E+04 -5.55107E+03
 -6.88680E+03 -5.96674E+03 -9.70149E+02  8.63630E+02 -3.27410E+03  4.04651E+03 -5.05206E+03  4.70514E+03
 -1.32151E+04 -1.17535E+03 -1.41225E+04 -1.03471E+04 -4.67562E+03 -2.00569E+04  5.73010E+03 -1.40223E+04
  1.18103E+04 -7.16752E+03  9.09714E+03  4.59798E+03 -4.38647E+02  5.48183E+03 -7.70368E+03 -2.00758E+02
 -6.84272E+03 -9.63203E+03 -1.66998E+03 -1.38551E+04  6.95168E+03 -1.60792E+04  1.84006E+04 -8.15170E+03
  2.32198E+04  2.15779E+03  1.60281E+04  1.37146E+04  4.36577E+03  1.84973E+04 -8.63190E+03  1.54897E+04
 -1.12431E+04  3.70949E+03 -5.25072E+03 -2.78840E+03  2.35231E+03 -3.30507E+03  8.48290E+03 -1.26021E+03
  7.37428E+03  6.71254E+03  2.00029E+03  1.12503E+04 -7.79950E+03  1.12584E+04 -1.61826E+04  2.99228E+03
 -9.00587E+03 -9.19051E+03 -5.27566E+02 -1.12599E+04  7.59431E+03 -6.50661E+03  9.58177E+03  3.11646E+03
  2.57817E+03  1.02804E+04 -6.76489E+03  9.69250E+03 -1.28442E+04  4.30679E+03 -1.23360E+04 -4.31279E+03
 -7.14405E+03 -1.38897E+04  3.11696E+03 -1.50977E+04  1.55877E+04 -9.24061E+03  1.45550E+04  2.17638E+03
  9.20899E+03  1.21935E+04 -2.24751E+03  1.47318E+04 -1.03178E+04  7.99548E+03 -1.18866E+04 -1.27539E+02
 -1.03642E+04 -1.06103E+04 -3.00135E+03 -1.13504E+04  5.88243E+03 -8.93498E+03  7.03848E+03 -3.40351E+03
  4.25677E+03  2.94764E+03  5.03986E+02  1.19563E+03 -1.59207E+03 -4.06890E+03  3.13703E+03 -6.69270E+03
  1.22662E+04 -4.71723E+03  1.38923E+04  1.39522E+03  1.37590E+04  1.00299E+04  1.06505E+04  1.88255E+04
 -4.05587E+03  2.14814E+04 -1.80570E+04  1.56396E+04 -2.24627E+04  3.70068E+03 -1.72457E+04 -8.95239E+03
 -1.00334E+04 -1.59689E+04 -1.14815E+03 -1.25491E+04  4.69466E+03 -7.83759E+03  3.89521E+03 -5.11211E+03
  3.84007E+03 -1.92900E+03  4.56479E+03 -4.00501E+03  6.16596E+03 -2.64498E+03  7.74842E+03 -1.01298E+03
  9.67508E+03  1.68967E+03  4.99804E+03  9.05191E+03 -1.49015E+03  1.03376E+04 -1.15502E+04  6.79722E+03
 -1.24945E+04 -4.26000E+02 -8.32765E+03 -8.81144E+03 -1.64555E+03 -1.46370E+04  7.30046E+03 -1.33489E+04
  1.39280E+04 -8.35575E+03  1.72013E+04  4.35548E+02  1.20042E+04  1.30892E+04  2.84776E+03  1.70074E+04
 -5.35195E+03  1.50227E+04 -8.70274E+03  4.80111E+03 -5.27682E+03 -4.01970E+02 -5.59457E+02 -2.11610E+03
 -2.32913E+03  8.39215E+02 -3.12774E+03  1.70779E+03 -5.06635E+03  1.79932E+03 -1.06993E+04 -1.18281E+03
 -7.02370E+03 -9.36932E+03 -6.74776E+02 -1.23252E+04  7.34526E+03 -1.25513E+04  1.25680E+04 -4.11154E+03
  1.17021E+04  6.59357E+03  6.99444E+03  1.12233E+04 -1.91271E+03  1.34785E+04 -9.53856E+03  8.58333E+03
 -1.18427E+04  2.83912E+02 -1.09358E+04 -8.14379E+03 -1.16320E+03 -1.16724E+04  6.03508E+03 -6.88766E+03
  7.86739E+03 -3.67197E+03  4.79724E+03  1.95265E+03  1.32427E+03  3.42534E+03  5.31962E+02  1.90783E+03
  2.20643E+03  1.50549E+02  2.91345E+03  1.31181E+03  3.57347E+03  3.00560E+03  2.83442E+03  6.35666E+03
 -3.21300E+03  1.14793E+04 -8.50593E+03  1.02588E+04 -1.22142E+04  2.83512E+03 -1.32401E+04 -4.90280E+03
 -5.99675E+03 -1.16868E+04  4.81024E+02 -1.45102E+04  6.54863E+03 -9.14717E+03  1.10847E+04 -1.81820E+03
  7.96529E+03  5.70193E+03  2.14034E+03  6.74518E+03 -3.33517E+03  4.79981E+03 -3.67172E+03  5.16617E+01
 -2.09268E+03 -5.26676E+03  1.57987E+03 -5.08454E+03  5.01506E+03 -2.94229E+03  5.44703E+03  1.32383E+03
  3.23504E+03  1.91705E+03  2.36290E+03  2.18188E+03 -2.49962E+02  2.09623E+03  1.76911E+03 -1.12820E+03
  3.36750E+03 -2.78595E+03  5.63708E+03  2.14984E+03  2.65203E+03  6.17184E+03 -1.14699E+03  8.60608E+03
 -6.75116E+03  5.55112E+03 -8.33906E+03  1.81824E+03 -7.87238E+03 -1.81122E+03 -2.80154E+03 -4.49265E+03
  1.73154E+03 -5.04895E+03  2.29425E+03 -1.46259E+03  2.86167E+03  2.65189E+03 -1.17984E+03  4.31500E+03
 -6.26685E+03  1.94915E+03 -5.70678E+03 -3.06309E+03 -2.07641E+03 -6.92437E+03  2.44977E+02 -6.30874E+03
  3.58819E+03 -4.05379E+03  4.84228E+03 -1.71530E+03  4.08053E+03  2.39628E+03  6.95762E+02  4.68354E+03
 -2.35842E+03 -2.87217E+02 -2.54261E+03 -2.53084E+03 -8.66633E+02 -5.08207E+03  7.32599E+03 -2.42647E+03
  8.30574E+03  1.80118E+03  6.82068E+03  5.11705E+03  2.14223E+03  9.09251E+03 -3.86770E+03  7.95379E+03
 -6.48195E+03  2.73455E+03 -6.75528E+03 -2.91235E+02 -4.11518E+03 -5.68523E+03  1.98977E+03 -5.22712E+03
  4.50565E+03 -3.10827E+03  4.72134E+03  2.21384E+03  2.16606E+03  3.82176E+03 -1.02505E+03  5.10975E+03
 -1.17110E+03  2.95539E+03 -2.72595E+03  1.19588E+03 -3.13225E+02  2.71243E+02 -2.14009E+03  5.03879E+02
 -1.83510E+03  3.79318E+03 -5.00509E+03  2.79632E+03 -8.10083E+03  2.36092E+02 -9.76362E+03 -4.55813E+03
 -4.93010E+03 -9.34945E+03  2.48582E+03 -1.06918E+04  7.02435E+03 -9.21718E+03  1.17250E+04 -3.06535E+03
  1.23324E+04  2.99413E+03  5.79136E+03  5.91681E+03  8.12323E+02  8.03602E+03 -2.76101E+03  6.18908E+03
 -3.96177E+03  2.95298E+03 -3.37257E+03 -1.45454E+03 -2.77260E+03 -5.92349E+02 -7.31401E+02  7.23794E+01
 -6.96504E+02  1.54786E+03 -1.61080E+03 -1.05686E+02 -9.60440E+02 -2.51010E+03  7.56683E+02 -2.56481E+03
  3.55308E+03 -4.12850E+03  5.21409E+03  7.71650E+02  4.60899E+03  3.29006E+03  2.06567E+03  8.90060E+03
 -4.93230E+03  1.03953E+04 -8.04800E+03  4.15639E+03 -1.09324E+04 -1.66036E+03 -7.76106E+03 -5.72803E+03
 -2.74605E+03 -7.57794E+03  2.04533E+03 -7.93781E+03  3.95222E+03 -3.16444E+03  4.52257E+03  1.04198E+03
  4.00714E+03  2.67357E+03 -1.00262E+02  1.36770E+03 -1.81585E+03 -1.67466E+03  6.15592E+02 -3.00225E+03
  3.31425E+03 -5.58342E+02  3.27068E+03  2.01894E+03  9.32045E+02  2.23977E+03 -3.74402E+02  3.82397E+03
 -3.66012E+03  3.37169E+03 -5.35025E+03  1.56098E+03 -4.76236E+03 -3.28355E+03 -2.56054E+02 -6.91782E+03
  3.30111E+03 -5.38650E+03  4.78849E+03 -4.56116E+02  4.26112E+03  7.93811E+02  3.50666E+03  4.13864E+03
  1.51581E+03  6.42164E+03 -4.37621E+02  4.70036E+03 -3.76432E+03  2.87690E+03 -2.00657E+03 -4.85472E+02
 -1.28402E+03  2.54150E+02 -2.79522E+03  7.31599E+02 -6.41857E+02  1.23545E+02 -4.17408E+03 -3.20438E+02
 -3.68490E+03 -3.26281E+03  4.28380E+00 -4.53900E+03  4.44304E+03 -4.93144E+03  4.32402E+03 -6.87760E+02
  3.82222E+03  1.25388E+03  2.45269E+03  4.00258E+03 -1.20503E+03  4.64575E+03 -3.45348E+03  3.34700E+03
