 $NMID ID='MM_0lb_SNR200_20hz_g50_22.RAW', FMTDAT='(8E13.5)'
 TRAMP=1., VOLUME=1. $END
  3.09803E+05  2.48054E+02  3.37426E+05  2.49594E+05  8.40392E+04  3.38646E+05 -1.32440E+05  2.49924E+05
 -1.90480E+05  8.31315E+04 -1.11467E+05 -3.38672E+04  1.28246E+03 -4.99028E+04  5.34907E+04  6.65081E+02
  3.62539E+04  5.17383E+04 -1.70405E+04  7.49835E+04 -5.96120E+04  6.29156E+04 -8.25914E+04  3.20623E+04
 -7.97592E+04 -1.07557E+04 -5.58181E+04 -4.95626E+04 -1.50306E+04 -6.92138E+04  2.62393E+04 -4.44132E+04
  3.86747E+04  3.90945E+03  1.55500E+04  4.69142E+04 -3.39637E+04  4.61673E+04 -6.57616E+04 -4.27495E+02
 -5.06268E+04 -5.62446E+04 -5.57995E+03 -7.57518E+04  3.26153E+04 -5.34216E+04  4.65746E+04 -1.62102E+04
  4.08737E+04  1.16461E+04  3.04554E+04  2.39999E+04  1.61866E+04  2.81292E+04 -4.92009E+03  2.70465E+04
 -2.14228E+04  1.31593E+04 -1.95437E+04 -4.56173E+03  4.61083E+03 -7.45099E+03  2.16373E+04  1.11486E+04
  7.66422E+03  3.39918E+04 -2.97171E+04  3.19996E+04 -6.03108E+04  3.30455E+03 -5.48122E+04 -4.10817E+04
 -1.20750E+04 -6.05115E+04  3.82947E+04 -4.24734E+04  5.53768E+04 -2.14635E+03  3.15141E+04  3.06540E+04
 -6.97697E+03  3.25595E+04 -2.84295E+04  1.21813E+04 -2.70479E+04 -6.22629E+03 -1.38867E+04 -1.02332E+04
 -6.75885E+03 -1.09053E+04 -9.00505E+02 -1.74428E+04  5.13127E+03 -2.18067E+04  1.59889E+04 -1.43522E+04
  1.27836E+04  4.69317E+03 -6.16529E+03  1.28769E+04 -1.88379E+04 -2.13619E+03 -9.02109E+03 -2.90609E+04
  1.91937E+04 -3.99748E+04  4.34976E+04 -1.88933E+04  4.13125E+04  1.75107E+04  1.39277E+04  4.10528E+04
 -1.45045E+04  3.10444E+04 -2.16818E+04  1.68936E+03 -7.49680E+03 -2.59866E+04  2.02731E+04 -3.02822E+04
  3.74279E+04 -7.18605E+03  3.08485E+04  2.33217E+04  1.55250E+04  4.25819E+04 -7.69197E+03  4.36435E+04
 -2.78682E+04  2.99584E+04 -3.76407E+04  8.46635E+03 -3.74093E+04 -1.49641E+04 -2.16143E+04 -3.29889E+04
  7.38024E+03 -3.44783E+04  2.88701E+04 -1.22417E+04  2.59499E+04  1.05740E+04  2.80537E+03  1.68488E+04
 -1.26693E+04  6.86272E+03 -9.29815E+03 -8.20425E+03  5.19256E+03 -9.38000E+03  1.62630E+04  6.87166E+03
  1.23634E+04  2.13463E+04 -6.39904E+03  2.37471E+04 -2.11704E+04  9.19251E+03 -2.44216E+04 -5.10410E+03
 -1.61083E+04 -1.66326E+04 -5.31784E+03 -1.67927E+04  3.84879E+03 -1.24102E+04  1.13363E+04 -1.38315E+04
  1.99760E+04 -1.16428E+04  2.66763E+04  2.30467E+01  2.05194E+04  1.57537E+04  4.76156E+03  3.23595E+04
 -1.60884E+04  2.71912E+04 -2.62379E+04  9.73943E+03 -1.87847E+04 -1.00566E+04 -4.07493E+03 -1.35935E+04
  4.14126E+03 -4.56979E+03 -2.79114E+03  4.31121E+03 -1.26610E+04  4.96938E+03 -1.22288E+04 -5.22583E+03
 -7.42354E+03 -1.64869E+04  4.17351E+03 -1.81006E+04  1.16536E+04 -1.36942E+04  1.29560E+04 -2.93799E+03
  7.17540E+03  9.75520E+03 -3.43265E+02  1.52703E+04 -9.56024E+03  8.64645E+03 -1.38973E+04 -2.93974E+03
 -1.10397E+04 -1.29172E+04 -2.13816E+03 -1.87448E+04  8.12509E+03 -1.39913E+04  1.57255E+04 -7.90871E+03
  1.44544E+04  9.83575E+02  1.09154E+04  3.99682E+03  3.96032E+03  5.93822E+02  7.04316E+03 -2.46155E+03
  1.31733E+04  2.70983E+03  1.36924E+04  1.21661E+04  8.74981E+03  2.35702E+04 -1.97849E+03  2.46114E+04
 -1.44232E+04  1.80471E+04 -2.19623E+04  8.56034E+03 -2.36239E+04 -1.92778E+03 -1.95479E+04 -1.32861E+04
 -1.09919E+04 -1.86629E+04  6.89134E+03 -1.75302E+04  1.54413E+04 -1.02900E+04  1.43570E+04  3.43073E+03
  6.15092E+03  1.13502E+04 -6.15970E+03  9.37758E+03 -1.34100E+04  3.47861E+03 -9.31668E+03 -9.31524E+03
  6.43497E+02 -1.17895E+04  5.64140E+03 -9.00719E+03  6.61616E+03 -1.59762E+03  8.92197E+02  4.65410E+03
 -5.83300E+03  1.67399E+03 -4.00548E+03 -4.46282E+03  1.81340E+03 -8.56245E+03  8.45368E+03 -9.85102E+03
  1.05739E+04 -3.95602E+03  1.06654E+04  2.71354E+03  8.36581E+03  8.44793E+03  4.38045E+03  1.31814E+04
 -7.02933E+02  1.48857E+04 -8.03105E+03  8.74725E+03 -1.13007E+04  2.65791E+03 -7.94721E+03 -1.49448E+03
 -3.94775E+03 -2.48342E+03 -8.39669E+02  2.48497E+03 -2.70479E+03  1.53546E+03 -2.93066E+03  4.08783E+03
 -7.60544E+03 -1.80370E+03 -8.50047E+03 -6.06212E+03 -3.56953E+03 -1.17822E+04  3.51027E+03 -8.49435E+03
  6.24187E+03 -2.96655E+03  5.06746E+03  2.07523E+03  3.90541E+02  3.11899E+03 -2.60472E+03 -4.43013E+02
 -3.17867E+03 -4.63174E+03 -1.05207E+03 -5.40123E+03  2.32306E+03 -7.67915E+03  8.92902E+03 -3.27882E+03
  1.15567E+04  1.00034E+02  8.16001E+03  5.40843E+03  9.54958E+02  7.46272E+03 -4.77578E+03  8.30854E+03
 -5.69415E+03  2.97623E+03 -3.21976E+03 -4.92572E+02  2.20109E+03 -1.37005E+03  4.88744E+03 -7.35605E+02
  3.96495E+03  3.28586E+03  1.63181E+03  5.41664E+03 -4.30671E+03  5.96102E+03 -6.79701E+03  1.44608E+03
 -5.51994E+03 -2.72203E+03 -2.15210E+02 -6.47997E+03  3.29157E+03 -2.74041E+03  2.70929E+03  5.75359E+02
 -2.65581E+02  2.06624E+03 -3.19149E+03  4.47572E+03 -4.25238E+03  2.69056E+03 -4.18783E+03 -3.51013E+02
 -3.06026E+03 -5.80381E+03  3.13973E+02 -6.14541E+03  5.61724E+03 -2.76123E+03  5.87619E+03  1.22739E+03
  3.10239E+03  4.42106E+03 -1.57172E+02  7.13079E+03 -4.71167E+03  3.35484E+03 -5.12638E+03  8.18791E+02
 -5.22181E+03 -4.44251E+03 -1.96400E+03 -4.99780E+03  2.46541E+03 -4.14861E+03  2.83609E+03 -2.16980E+03
  3.60513E+03  8.13815E+02 -1.33954E+02  1.47217E+03  1.39645E+03  1.35621E+02 -3.62837E+02 -6.36730E+02
  3.73780E+03 -3.95560E+01  5.13171E+03  2.87788E+02  5.27618E+03  2.02819E+03  5.05980E+03  5.88549E+03
 -1.30434E+03  6.76905E+03 -5.90710E+03  5.12211E+03 -8.20427E+03  6.18049E+02 -6.41103E+03 -1.80860E+03
 -3.64688E+03 -5.34530E+03 -4.04269E+02 -4.95601E+03  2.01848E+03 -2.60936E+03  1.89152E+03 -1.28752E+03
  3.70438E+02 -7.28685E+02  2.49730E+03 -3.19608E+03  2.51481E+03 -1.07038E+03  2.70125E+03  6.61741E+00
  4.97523E+03  1.52556E+03  1.05433E+03  3.79910E+03 -1.83036E+03  2.54760E+03 -3.42921E+03  2.02009E+03
 -3.72038E+03 -1.08740E+03 -2.51129E+03 -3.44223E+03  5.97449E+02 -5.32860E+03  2.28723E+03 -4.58739E+03
  4.44800E+03 -2.90938E+03  4.34087E+03 -2.66235E+02  4.22169E+03  2.62582E+03  1.78470E+03  5.16231E+03
 -2.82183E+03  3.97486E+03 -2.11665E+03  1.13774E+03 -1.59668E+03 -1.06672E+03 -6.03387E+02  3.94786E+02
  4.04799E+02  1.33044E+02 -3.74595E+02  1.61656E+03 -3.32763E+03  1.04064E+02 -4.47517E+03 -8.81379E+02
 -9.06250E+02 -4.15400E+03  1.03949E+02 -3.98656E+03  2.64539E+03 -2.95939E+03  2.85506E+03 -1.75441E+03
  3.88329E+03  1.36597E+03  7.62836E+02  1.76824E+03 -1.39767E+02  3.69154E+03 -2.21371E+03  2.82048E+03
 -3.55175E+03  6.73542E+02 -3.50999E+03 -1.37181E+03 -1.36458E+03 -1.98246E+03  1.42317E+03 -9.03358E+02
  1.93888E+03 -1.70412E+03  1.10230E+03  3.70126E+02  4.73590E+02  2.05789E+03  1.13865E+03  8.38527E+02
  1.67736E+03  1.05213E+03  9.83165E+02 -4.82836E+02 -3.01053E+02  2.35797E+03  1.03058E+03  1.55211E+03
 -4.91315E+02  2.78273E+03 -1.48870E+03  3.87958E+03 -2.45696E+03  3.45623E+02 -4.17199E+03  1.41882E+02
 -2.18781E+03 -2.16061E+03  2.74195E+02 -4.70971E+03  1.89496E+03 -2.30445E+03  1.83296E+03 -7.60689E+02
  2.50183E+03  2.21896E+03 -2.01703E+02  1.08366E+03  1.87192E+01  1.35990E+03 -7.63267E+02 -1.42263E+03
 -8.69918E+02 -9.93311E+02  1.28113E+03 -1.37114E+03  1.46392E+03 -1.91040E+02  2.32494E+03  6.44471E+01
  1.60950E+02  4.40728E+02  8.27805E+02 -7.79201E+02  1.22587E+02  1.21259E+03  2.32683E+03 -1.11193E+03
  1.20394E+03 -2.69573E+02  1.85880E+03  3.29577E+02 -1.04403E+02  2.35884E+03  5.50148E+02  2.41239E+03
 -8.31021E+02  9.28801E+02 -1.73193E+03  3.64390E+02 -1.64089E+03 -6.00053E+02 -5.63323E+02 -4.65242E+02
  8.77696E+02 -1.31019E+03  5.11034E+01 -1.08077E+03 -5.57590E+02  7.72336E+02 -8.93659E+02  8.13784E+02
 -9.94631E+02  2.03362E+02  2.19373E+02 -1.13071E+03 -6.07794E+02 -1.61964E+03  6.56777E+02 -1.47003E+03
  1.22501E+03 -1.05402E+01  1.15844E+03  1.03461E+03  1.62152E+03 -6.91835E+02 -1.59743E+02  2.28116E+03
 -1.23061E+02 -4.35277E+02 -4.13829E+02  2.13109E+02  8.34923E+02 -8.63932E+02  1.94924E+03 -1.26456E+03
  9.39220E+02  5.26755E+02  2.55121E+03  1.96283E+02  1.86732E+03  4.17204E+02 -1.65197E+02  1.11883E+03
 -4.28233E+02  2.91334E+02 -1.28233E+03  1.16336E+02 -7.44491E+02 -8.79188E+02  7.81874E+00  1.46293E+02
  1.41420E+03 -9.05561E+01  1.53467E+03 -7.33927E+01  3.71388E+02  6.53424E+02  6.44869E+02  1.02958E+03
  3.65452E+02  1.29721E+03  8.34103E+01  1.70165E+02  3.43141E+02  1.03650E+03 -9.19975E+02  1.53084E+02
  6.45573E+02  9.91869E+02 -1.34971E+03  6.03133E+01 -1.42280E+03  1.58035E+02 -2.13849E+03  1.33867E+02
 -1.26839E+03 -9.68322E+02  4.96588E+02 -2.32444E+03  1.38686E+03 -2.01621E+03  1.72441E+03 -9.35483E+02
  1.78074E+03 -1.11670E+03  9.79942E+02  6.24317E+02 -2.17463E+02  1.03345E+03 -1.50632E+03  8.97287E+02
 -7.22582E+02  7.50357E+02 -1.05335E+02  2.60780E+02 -9.79895E+02  2.84857E+02 -9.67918E+02 -6.80226E+02
 -6.35826E+02  5.13150E+02 -8.38968E+02 -7.49570E+02 -1.26034E+03  7.97519E+02 -3.98598E+02  1.06197E+02
 -3.79787E+01 -4.15103E+01  5.48070E+02 -2.03375E+02  1.46070E+03  9.58723E+02  5.98674E+02  5.14979E+02
 -1.55369E+03  1.86120E+03 -1.29359E+03  1.81434E+02 -1.25876E+03 -5.57277E+02 -1.31499E+03 -9.04656E+02
  9.71141E+02 -9.31797E+02 -1.00606E+03 -2.89081E+02  3.93499E+02 -1.03255E+03  1.23742E+03 -4.59986E+02
  8.04561E+02  5.60170E+01  1.08137E+03 -1.75650E+03  5.82901E+02  3.28446E+01  9.02681E+01  5.86085E+02
  3.76147E+02  3.90967E+02 -3.52264E+02 -6.29423E+00 -1.11086E+03  2.16980E+02  7.86733E+02  3.05849E+02
  3.39305E+02  9.15970E+02  1.09218E+02  5.74546E+02 -5.60217E+02 -6.36587E+02  5.92556E+02 -1.06747E+02
  3.53763E+02 -1.54701E+03  1.25829E+02  3.07354E+02  6.47522E+02  2.16142E+02 -1.29147E+02  6.90842E+02
 -2.36763E+02 -2.87132E+02 -2.00544E+02 -2.06127E+02 -2.69553E+02  7.80094E+02 -6.54257E+02  2.37859E+01
  3.35627E+02 -1.46186E+02 -5.55103E+02  9.07224E+02 -1.70361E+02  9.04576E+01 -1.55673E+03 -1.32386E+02
 -6.44513E+02  8.99201E+02 -9.98868E+02 -1.16293E+02  1.04801E+03 -9.56961E+02  3.03224E+02  4.67896E+02
  7.49867E+02 -6.68997E+02 -7.98220E+02 -4.32867E+02  4.46199E+02  1.16460E+03 -2.26502E+02  2.52286E+02
