 $NMID ID='MM_0lb_SNR200_11hz_g60_72.RAW', FMTDAT='(8E13.5)'
 TRAMP=1., VOLUME=1. $END
  3.10190E+05  1.21650E+02  3.37837E+05  2.50001E+05  8.66847E+04  3.38141E+05 -1.33443E+05  2.51945E+05
 -1.92540E+05  8.37203E+04 -1.12496E+05 -3.35786E+04  1.00389E+03 -4.98748E+04  5.46197E+04 -7.11702E+02
  3.49245E+04  5.28552E+04 -1.63182E+04  7.64016E+04 -6.14963E+04  6.51992E+04 -8.38258E+04  3.10368E+04
 -8.14542E+04 -1.15217E+04 -5.81916E+04 -5.22371E+04 -1.66840E+04 -7.19078E+04  2.63780E+04 -4.50717E+04
  4.04246E+04  2.90853E+03  1.67055E+04  4.88611E+04 -3.55222E+04  4.94917E+04 -6.78945E+04 -8.27238E+02
 -5.66613E+04 -5.77012E+04 -7.07632E+03 -7.89967E+04  3.41394E+04 -5.68590E+04  4.94661E+04 -1.80749E+04
  4.40657E+04  1.13417E+04  3.06582E+04  2.71597E+04  1.56634E+04  3.10197E+04 -5.41169E+03  2.62199E+04
 -2.26253E+04  1.21459E+04 -1.77667E+04 -4.12327E+03  6.53826E+03 -8.40628E+03  2.27484E+04  1.36415E+04
  7.37123E+03  3.78891E+04 -3.35725E+04  3.65667E+04 -6.50332E+04  3.07353E+03 -5.98271E+04 -4.45148E+04
 -1.20219E+04 -6.45307E+04  4.01369E+04 -4.68484E+04  6.02050E+04 -1.84664E+03  3.58551E+04  3.35225E+04
 -4.64992E+03  4.01214E+04 -3.27730E+04  1.74587E+04 -3.30407E+04 -4.56498E+03 -1.92468E+04 -1.16458E+04
 -8.97749E+03 -1.49686E+04 -8.80236E+02 -2.00985E+04  8.77903E+03 -2.42834E+04  1.66363E+04 -1.30465E+04
  1.12497E+04  6.02961E+03 -9.56882E+03  1.22855E+04 -2.26898E+04 -6.17357E+03 -9.12742E+03 -3.70212E+04
  2.59735E+04 -4.78595E+04  5.18827E+04 -2.16318E+04  4.85312E+04  2.07337E+04  1.63880E+04  4.73924E+04
 -1.66209E+04  3.56407E+04 -2.82365E+04  2.17051E+03 -1.18219E+04 -2.88587E+04  2.23369E+04 -3.80882E+04
  4.42316E+04 -9.96091E+03  4.08017E+04  2.34218E+04  2.03968E+04  5.17270E+04 -7.78761E+03  5.64847E+04
 -3.37597E+04  3.66929E+04 -4.79087E+04  1.06926E+04 -4.67132E+04 -1.92479E+04 -2.48538E+04 -4.06591E+04
  6.79437E+03 -4.16844E+04  3.40279E+04 -1.75562E+04  3.30265E+04  1.08382E+04  6.02066E+03  2.12434E+04
 -1.31057E+04  9.00570E+03 -1.16249E+04 -8.23466E+03  4.09305E+03 -1.01113E+04  1.89026E+04  5.93060E+03
  1.48721E+04  2.24149E+04 -6.08353E+03  2.72639E+04 -2.45085E+04  1.49334E+04 -3.16411E+04 -4.58229E+03
 -2.58899E+04 -1.96408E+04 -1.15161E+04 -2.40155E+04  4.87439E+03 -2.49622E+04  1.95360E+04 -2.15941E+04
  3.04322E+04 -1.33141E+04  3.72540E+04  4.16345E+03  2.82181E+04  2.41769E+04  4.31992E+03  4.06376E+04
 -2.06996E+04  3.27085E+04 -3.00246E+04  1.25489E+04 -2.38517E+04 -9.69852E+03 -6.37510E+03 -1.33121E+04
  2.60000E+03 -1.30153E+03 -8.17580E+03  8.62749E+03 -1.99571E+04  5.47467E+03 -1.90699E+04 -8.30776E+03
 -1.12891E+04 -2.24552E+04  6.60211E+03 -2.75960E+04  1.88048E+04 -1.87562E+04  2.11110E+04 -6.98888E+02
  1.34321E+04  1.58456E+04 -6.22371E+02  2.36339E+04 -1.65664E+04  1.21610E+04 -2.38511E+04 -5.01531E+03
 -1.58600E+04 -1.90287E+04 -2.04295E+03 -2.86550E+04  1.15294E+04 -2.27287E+04  2.13620E+04 -1.21738E+04
  2.28170E+04 -3.74257E+02  1.51779E+04  5.85770E+03  7.86328E+03  8.92656E+02  1.21225E+04 -2.47033E+03
  2.16115E+04  1.60824E+03  2.65194E+04  1.64530E+04  1.52970E+04  3.60429E+04 -3.85141E+03  4.14167E+04
 -2.36786E+04  3.49332E+04 -4.03533E+04  1.89338E+04 -4.21731E+04 -3.05688E+03 -3.44866E+04 -2.37607E+04
 -1.37117E+04 -3.29470E+04  1.13702E+04 -3.10555E+04  2.68783E+04 -1.40619E+04  2.27748E+04  6.20447E+03
  8.17058E+03  1.88254E+04 -1.04962E+04  1.65052E+04 -2.17451E+04  2.38888E+03 -1.40560E+04 -1.20592E+04
 -1.15940E+02 -1.78344E+04  9.79457E+03 -1.42137E+04  1.36463E+04 -7.14400E+02  2.79421E+03  9.46680E+03
 -8.96936E+03  2.43134E+03 -8.50554E+03 -6.58020E+03 -9.30169E+02 -1.82052E+04  1.14581E+04 -1.81857E+04
  2.24830E+04 -1.01253E+04  2.28795E+04  3.77867E+03  2.08782E+04  1.70463E+04  1.04351E+04  2.79472E+04
 -4.72975E+03  2.94924E+04 -1.88875E+04  1.75578E+04 -2.00495E+04  4.17986E+03 -1.37522E+04 -5.11211E+03
 -6.59630E+03 -6.03153E+03 -1.80646E+03  1.50353E+03 -3.91827E+03  2.50330E+03 -6.89081E+03  4.61827E+03
 -1.26475E+04 -2.99050E+03 -1.44006E+04 -1.09471E+04 -6.02355E+03 -1.90798E+04  7.59956E+03 -1.48548E+04
  1.19314E+04 -5.73100E+03  8.68671E+03  5.06404E+03 -2.16551E+02  6.63697E+03 -6.97762E+03  5.86216E+02
 -6.51791E+03 -9.08340E+03 -1.22071E+03 -1.34697E+04  1.00447E+04 -1.50905E+04  1.96528E+04 -8.93397E+03
  2.21930E+04  3.10114E+03  1.45495E+04  1.30275E+04  2.95848E+03  1.78451E+04 -9.17818E+03  1.47943E+04
 -1.30870E+04  3.80914E+03 -5.87572E+03 -3.95683E+03  1.90249E+03 -4.14777E+03  7.06100E+03 -8.33895E+02
  5.32762E+03  5.42188E+03  1.59616E+03  1.15454E+04 -8.27085E+03  1.18079E+04 -1.29459E+04  3.72287E+03
 -9.49206E+03 -7.86970E+03 -4.41663E+01 -1.29869E+04  8.22344E+03 -7.66374E+03  9.00581E+03  1.79015E+03
  1.18514E+03  9.93695E+03 -7.47481E+03  1.15863E+04 -1.32813E+04  3.54814E+03 -1.18978E+04 -5.13566E+03
 -8.09868E+03 -1.39234E+04  3.06241E+03 -1.57221E+04  1.42009E+04 -9.19603E+03  1.48652E+04  3.19782E+03
  8.77341E+03  1.29966E+04 -2.24316E+03  1.42762E+04 -1.12254E+04  7.46570E+03 -1.35231E+04 -8.31844E+02
 -1.07214E+04 -8.23392E+03 -2.54748E+03 -1.08535E+04  7.65104E+03 -8.56373E+03  6.74541E+03 -3.67701E+03
  5.70113E+03  1.68831E+03 -2.06236E+03  2.82651E+03 -4.89727E+01 -3.49839E+03  1.86353E+03 -8.53825E+03
  9.69243E+03 -5.21307E+03  1.43545E+04  2.46008E+03  1.34938E+04  9.03850E+03  1.00166E+04  1.73677E+04
 -3.87518E+03  2.09332E+04 -1.92409E+04  1.63878E+04 -2.28090E+04  2.65107E+03 -1.83764E+04 -7.28507E+03
 -9.43586E+03 -1.46419E+04  4.54713E+02 -1.33993E+04  3.69394E+03 -7.26665E+03  3.50466E+03 -5.26117E+03
  2.95701E+03 -3.20257E+03  4.31864E+03 -2.27487E+03  5.59255E+03 -1.79119E+03  8.90024E+03 -1.01018E+03
  9.48875E+03  2.30255E+03  5.37625E+03  7.48795E+03 -1.06625E+03  1.15219E+04 -9.72838E+03  7.98793E+03
 -1.35484E+04 -2.30493E+03 -8.43706E+03 -8.52886E+03  1.86967E+02 -1.27636E+04  6.74044E+03 -1.38969E+04
  1.61123E+04 -7.18261E+03  1.76196E+04  1.74024E+03  1.17178E+04  1.08790E+04  3.23120E+03  1.53173E+04
 -6.80026E+03  1.37408E+04 -9.27231E+03  4.56263E+03 -5.67336E+03 -1.44721E+03 -3.30593E+03 -7.48000E+02
 -2.41338E+03 -2.37422E+02 -3.42371E+03  2.73469E+03 -4.15890E+03  2.48473E+03 -9.47097E+03 -2.30270E+02
 -5.31870E+03 -8.98471E+03 -1.43898E+02 -1.20242E+04  7.47910E+03 -1.14070E+04  1.23661E+04 -3.72337E+03
  1.34517E+04  5.39798E+03  6.06910E+03  1.01401E+04 -3.02751E+03  1.24546E+04 -8.21423E+03  7.43320E+03
 -1.26074E+04  1.74504E+03 -8.65487E+03 -8.77823E+03  8.86804E+02 -9.86752E+03  6.79213E+03 -7.28907E+03
  8.97558E+03 -1.50654E+03  6.24243E+03  1.37968E+03  1.74830E+03  4.21261E+03  1.03317E+03  1.34782E+03
  3.10279E+03  1.58680E+03  3.68720E+03  2.13912E+03  4.51206E+03  4.14369E+03  2.01287E+03  6.72451E+03
 -2.52915E+03  9.58933E+03 -8.23354E+03  9.03636E+03 -1.28332E+04  3.10671E+03 -1.30364E+04 -5.86041E+03
 -7.57965E+03 -1.36608E+04  2.61254E+03 -1.29834E+04  6.92579E+03 -8.77872E+03  1.09620E+04 -3.51501E+03
  8.86170E+03  4.12261E+03  1.05125E+03  7.31985E+03 -3.16487E+03  4.29150E+03 -4.99635E+03 -1.22907E+03
 -1.65309E+03 -5.68822E+03  1.89896E+03 -5.53709E+03  4.99446E+03 -5.20397E+03  3.00549E+03  2.05160E+03
  3.43878E+03  3.73187E+03  3.94702E+02  1.40081E+03 -1.51247E+03  1.99245E+03  1.23616E+03  1.17505E+03
 -6.13034E+02 -2.16253E+02  5.68832E+03  1.55962E+03  2.53117E+03  6.44151E+03 -9.90799E+02  7.73570E+03
 -6.85760E+03  6.52273E+03 -7.18148E+03  1.41997E+03 -7.82675E+03 -2.70737E+03 -2.10050E+03 -4.04757E+03
  8.15798E+02 -3.98927E+03  4.05625E+03 -2.25411E+03  3.31662E+03  1.18319E+03 -8.99549E+02  3.29455E+03
 -6.35143E+03  6.45075E+02 -4.74408E+03 -3.63073E+03 -2.59954E+03 -7.24297E+03  1.55899E+03 -7.64629E+03
  4.20546E+03 -6.16468E+03  4.28420E+03 -6.42192E+02  4.34913E+03  1.06153E+03  1.91514E+02  5.05498E+03
 -2.21978E+03  1.07501E+03 -3.53514E+03 -2.19481E+03  1.29299E+03 -3.18601E+03  6.01861E+03 -2.75556E+03
  7.37995E+03 -3.87522E+01  7.88167E+03  6.66390E+03  6.45788E+02  6.82251E+03 -2.69747E+03  7.31600E+03
 -5.04286E+03  3.11754E+03 -7.00789E+03 -2.35707E+03 -2.98911E+03 -4.19076E+03  2.16370E+03 -4.07710E+03
  5.81456E+03 -2.76684E+03  4.79549E+03  4.07071E+03  7.96887E+02  4.67490E+03 -8.33431E+02  3.09256E+03
 -1.42267E+03  3.18453E+03 -2.00799E+03 -1.87526E+02 -1.58745E+03  6.88380E+02 -2.97052E+02  1.14471E+03
 -1.93861E+03  4.50348E+03 -4.30535E+03  2.16225E+03 -6.48967E+03  1.09149E+03 -7.54670E+03 -4.69106E+03
 -3.94148E+03 -9.81316E+03  1.77686E+03 -1.05962E+04  7.63306E+03 -9.58291E+03  1.06769E+04 -3.94597E+03
  8.83652E+03  1.84351E+03  6.56690E+03  6.99139E+03 -3.68636E+01  7.91838E+03 -2.73174E+03  7.20393E+03
 -3.85578E+03  3.14234E+03 -1.70810E+03 -6.20536E+02 -2.79891E+03 -1.43906E+03  6.71740E+02  4.76787E+02
 -1.81035E+03 -6.53322E+02 -5.65649E+02 -2.27503E+02 -8.36824E+02 -3.01731E+03  1.83539E+03 -2.67735E+03
  2.98158E+03 -3.86346E+03  4.06051E+03  3.61132E+01  5.60538E+03  4.84883E+03  1.83754E+03  7.18129E+03
 -3.73959E+03  1.03632E+04 -7.84884E+03  4.80269E+03 -9.89495E+03 -9.29990E+02 -6.41322E+03 -4.54254E+03
 -3.05081E+03 -9.04635E+03  1.89947E+03 -8.01947E+03  4.80318E+03 -4.53702E+03  6.20969E+03  3.40088E+02
  4.21302E+03  2.15638E+03  1.16759E+02  6.81129E+02 -1.89347E+03 -4.00874E+02  7.97063E+02  1.27571E+02
  1.86490E+03 -1.15511E+03  1.20737E+03  1.25790E+03  2.18511E+03  3.62165E+03 -6.74826E+02  4.76479E+03
 -2.59346E+03  4.03564E+03 -5.15627E+03  1.62661E+03 -5.13704E+03 -4.92523E+03 -1.90948E+03 -5.31765E+03
  2.64073E+03 -5.00351E+03  5.88722E+03 -1.94698E+03  3.93347E+03  1.87384E+03  3.11917E+03  4.79108E+03
 -5.17733E+01  5.54015E+03 -2.70347E+03  4.92022E+03 -2.66657E+03  1.78730E+03 -2.88617E+03  9.63184E+01
 -1.73783E+03 -3.04036E+02 -1.55666E+03  1.15170E+03 -2.08882E+03  6.08784E+02 -5.23651E+03 -2.19101E+03
 -3.73990E+03 -7.70890E+02 -1.54962E+03 -5.10814E+03  3.12270E+03 -7.01604E+03  4.97655E+03 -2.14640E+03
  4.76354E+03  1.54775E+03  3.27200E+03  2.70963E+03  9.27104E+02  5.75831E+03 -5.09981E+03  1.49615E+03
