 $NMID ID='MM_0lb_SNR200_15hz_g45_16.RAW', FMTDAT='(8E13.5)'
 TRAMP=1., VOLUME=1. $END
  3.10295E+05  4.16382E+02  3.36818E+05  2.51759E+05  8.42341E+04  3.37811E+05 -1.32340E+05  2.50677E+05
 -1.90198E+05  8.23845E+04 -1.10346E+05 -3.31247E+04  1.55767E+03 -5.13744E+04  5.43125E+04 -6.78624E+02
  3.54153E+04  5.45201E+04 -1.60680E+04  7.53568E+04 -6.14209E+04  6.31864E+04 -8.33596E+04  3.08935E+04
 -8.08088E+04 -1.21097E+04 -5.67856E+04 -5.12862E+04 -1.47482E+04 -6.82443E+04  2.66496E+04 -4.61268E+04
  3.96838E+04  4.63959E+03  1.59013E+04  4.69727E+04 -3.47905E+04  4.59984E+04 -6.72849E+04  1.06369E+01
 -5.35223E+04 -5.73968E+04 -7.44540E+03 -7.57211E+04  3.23704E+04 -5.45676E+04  4.84108E+04 -1.65587E+04
  4.39280E+04  9.87427E+03  3.24421E+04  2.40264E+04  1.61948E+04  2.88026E+04 -5.93292E+03  2.70534E+04
 -2.18318E+04  1.20184E+04 -1.87279E+04 -5.20074E+03  5.65648E+03 -8.50816E+03  2.24890E+04  1.26787E+04
  7.28373E+03  3.27240E+04 -3.10337E+04  3.34960E+04 -6.26253E+04  3.17053E+03 -5.60676E+04 -4.21514E+04
 -1.26286E+04 -6.27729E+04  3.85317E+04 -4.47034E+04  5.66809E+04 -2.63610E+03  3.40889E+04  3.23965E+04
 -6.74955E+03  3.57922E+04 -2.93703E+04  1.55967E+04 -2.94834E+04 -5.10545E+03 -1.58054E+04 -1.08225E+04
 -8.71889E+03 -1.36092E+04 -3.15287E+01 -1.84296E+04  7.13175E+03 -2.32314E+04  1.47326E+04 -1.39655E+04
  1.34505E+04  5.65899E+03 -7.15554E+03  1.29998E+04 -1.97882E+04 -4.15163E+03 -9.36174E+03 -3.19904E+04
  2.27168E+04 -4.09702E+04  4.75011E+04 -2.06592E+04  4.36344E+04  1.82852E+04  1.58910E+04  4.30495E+04
 -1.66099E+04  3.29202E+04 -2.38112E+04  1.99822E+03 -9.61796E+03 -2.76659E+04  2.06335E+04 -3.30380E+04
  4.11585E+04 -9.55903E+03  3.53886E+04  2.25230E+04  1.77674E+04  4.66468E+04 -9.44403E+03  4.84955E+04
 -3.04550E+04  3.12910E+04 -3.83830E+04  8.84403E+03 -4.14268E+04 -1.55881E+04 -2.17598E+04 -3.70225E+04
  7.15921E+03 -3.70548E+04  3.05886E+04 -1.43188E+04  2.80037E+04  1.06320E+04  3.70706E+03  1.92030E+04
 -1.30065E+04  7.58267E+03 -1.01743E+04 -7.69724E+03  5.69731E+03 -9.78423E+03  1.78932E+04  6.16498E+03
  1.42965E+04  2.24874E+04 -6.93101E+03  2.47565E+04 -2.25753E+04  1.11998E+04 -2.67385E+04 -4.06460E+03
 -1.99250E+04 -1.69865E+04 -6.93393E+03 -1.87087E+04  3.70296E+03 -1.74686E+04  1.36275E+04 -1.65830E+04
  2.43824E+04 -1.20118E+04  3.02539E+04  2.48490E+03  2.30984E+04  1.98373E+04  2.96576E+03  3.54712E+04
 -1.80242E+04  2.92559E+04 -2.62824E+04  1.03398E+04 -2.03931E+04 -9.67484E+03 -4.44563E+03 -1.38399E+04
  1.39688E+03 -2.39161E+03 -4.84058E+03  7.33238E+03 -1.50317E+04  5.48720E+03 -1.54896E+04 -6.13608E+03
 -1.01569E+04 -1.64164E+04  4.95917E+03 -2.32704E+04  1.44189E+04 -1.57050E+04  1.55562E+04 -1.60713E+03
  1.12397E+04  1.26345E+04 -2.01024E+03  1.83963E+04 -1.21910E+04  1.07139E+04 -1.76792E+04 -3.69865E+03
 -1.39109E+04 -1.51020E+04 -9.06246E+02 -2.27532E+04  9.44032E+03 -1.70166E+04  1.81127E+04 -7.69418E+03
  1.70330E+04  5.49005E+02  1.12746E+04  4.14237E+03  6.66923E+03  1.53158E+02  8.17101E+03 -1.05442E+03
  1.73187E+04  3.95286E+03  1.80544E+04  1.44551E+04  1.09074E+04  2.80516E+04 -3.31862E+03  3.12770E+04
 -1.98517E+04  2.61452E+04 -2.97585E+04  1.16174E+04 -3.08090E+04 -2.63045E+03 -2.49242E+04 -1.72021E+04
 -1.13549E+04 -2.47585E+04  8.99965E+03 -2.31221E+04  1.98253E+04 -1.16644E+04  1.92154E+04  4.90853E+03
  8.42400E+03  1.22611E+04 -8.17921E+03  1.18334E+04 -1.53658E+04  2.57081E+03 -1.22275E+04 -9.36771E+03
 -7.13017E+02 -1.41048E+04  7.68712E+03 -1.23474E+04  9.24981E+03 -1.56228E+03  1.38916E+03  6.26315E+03
 -6.66966E+03  3.68162E+03 -5.10353E+03 -5.70280E+03  9.98010E+02 -1.27965E+04  8.96329E+03 -1.45021E+04
  1.58007E+04 -6.38546E+03  1.66328E+04  2.95984E+03  1.30959E+04  1.17590E+04  5.97342E+03  1.82243E+04
 -3.10939E+03  2.00907E+04 -1.20958E+04  1.22607E+04 -1.35189E+04  3.65827E+03 -1.02524E+04 -3.21897E+03
 -4.81032E+03 -3.46262E+03 -2.12620E+03  1.91092E+03 -1.77386E+03  1.69238E+03 -5.53613E+03  4.71331E+03
 -9.66000E+03 -5.97864E+02 -1.07169E+04 -8.35603E+03 -4.95142E+03 -1.33323E+04  5.30455E+03 -1.14290E+04
  8.98847E+03 -3.85463E+03  6.00642E+03  2.73183E+03  1.44868E+03  4.97502E+03 -4.03255E+03 -1.60739E+03
 -4.12538E+03 -7.21493E+03 -7.37949E+02 -1.02600E+04  5.54327E+03 -1.01211E+04  1.17541E+04 -4.67736E+03
  1.49203E+04  1.44108E+03  1.11870E+04  7.02240E+03  1.89906E+03  1.24258E+04 -5.63784E+03  1.01975E+04
 -7.69368E+03  3.85148E+03 -4.34775E+03 -1.78948E+03  1.17336E+03 -2.82879E+03  5.69373E+03 -5.94362E+02
  4.79589E+03  4.60963E+03  4.75512E+02  7.82299E+03 -5.43828E+03  8.68730E+03 -1.04398E+04  1.70818E+03
 -6.34109E+03 -4.54174E+03  8.91927E+02 -9.29077E+03  4.23938E+03 -3.40558E+03  4.52501E+03  2.30330E+03
  1.39017E+03  5.58258E+03 -4.61989E+03  6.67050E+03 -8.35591E+03  2.37901E+03 -8.01794E+03 -2.25995E+03
 -4.48019E+03 -8.13980E+03  1.35958E+03 -9.48758E+03  6.71645E+03 -6.49601E+03  8.92050E+03  1.51285E+03
  5.23291E+03  7.13265E+03 -3.33050E+02  8.78834E+03 -6.38719E+03  5.33608E+03 -6.36599E+03 -1.81914E+02
 -6.16164E+03 -6.86463E+03 -7.01680E+02 -6.60165E+03  1.78677E+03 -6.29234E+03  3.66390E+03 -2.60438E+03
  3.68693E+03 -3.15332E+02  7.80371E+02  2.00357E+03  7.15215E+01 -6.25376E+02  7.61460E+02 -3.55263E+03
  6.27403E+03 -2.28891E+03  7.44437E+03  2.26942E+03  8.67876E+03  4.85133E+03  7.79983E+03  1.05150E+04
 -2.43251E+03  1.22827E+04 -1.06985E+04  9.15974E+03 -1.35390E+04  4.27410E+02 -1.13214E+04 -4.00893E+03
 -6.77938E+03 -9.61868E+03 -2.14477E+03 -7.63121E+03  3.17702E+03 -3.99319E+03  1.64993E+03 -4.14508E+03
  1.39435E+03 -2.49743E+03  3.39728E+03 -3.07119E+03  4.25599E+03 -6.21257E+02  4.29793E+03 -4.34961E+02
  6.32847E+03  1.14424E+03  2.01829E+03  5.29053E+03 -1.30307E+03  5.27183E+03 -5.97191E+03  4.18529E+03
 -7.44710E+03 -9.53848E+02 -3.05759E+03 -4.59352E+03 -3.88473E+02 -8.75708E+03  5.27500E+03 -8.86109E+03
  7.17259E+03 -5.06996E+03  9.85214E+03 -3.96005E+02  7.73810E+03  7.05876E+03  1.63693E+03  8.71180E+03
 -3.68503E+03  8.35242E+03 -5.76726E+03  2.30370E+03 -3.71666E+03 -7.00838E+02 -9.39595E+02 -2.05470E+03
 -1.10500E+03 -3.42536E+02 -7.46192E+02  1.28106E+03 -3.21598E+03  1.25233E+03 -6.04049E+03 -1.32979E+03
 -3.44955E+03 -5.22910E+03  1.40404E+03 -8.49004E+03  3.73238E+03 -6.99706E+03  6.11672E+03 -1.35038E+03
  6.92892E+03  3.66464E+03  3.42711E+03  6.68178E+03 -8.89266E+02  6.32141E+03 -4.47489E+03  4.94985E+03
 -6.65512E+03  7.93760E+02 -4.79195E+03 -3.36175E+03 -7.46831E+02 -4.80665E+03  3.85094E+03 -4.43234E+03
  5.09072E+03 -2.65069E+03  2.74939E+03 -7.47429E+02  7.60010E+02  3.04890E+03  1.89383E+03  5.98695E+02
  1.85266E+03  1.06370E+03  2.15902E+03  1.57248E+02  2.20509E+03  2.83942E+03  2.11459E+03  2.61047E+03
 -1.42473E+03  5.32166E+03 -3.97279E+03  6.61436E+03 -6.49802E+03  2.03665E+03 -6.79137E+03 -3.13438E+03
 -3.87015E+03 -6.59314E+03  1.41066E+03 -7.09007E+03  3.58826E+03 -4.32950E+03  4.37537E+03 -8.38506E+02
  4.46226E+03  3.37008E+03  1.37616E+03  3.91546E+03 -1.94424E+03  2.19390E+03 -2.36097E+03  1.31334E+03
 -1.20176E+03 -3.91989E+03  6.93160E+02 -1.54846E+03  2.58865E+03 -1.26797E+03  9.01158E+02  1.05688E+03
  1.28315E+03 -2.43746E+02  1.40950E+03  5.92680E+02 -9.31941E+02  1.24015E+03  1.21356E+03  9.71459E+01
  4.40839E+02  1.41043E+03  3.31671E+03  1.67869E+03  1.01987E+03  2.69214E+03  5.52844E+02  4.25238E+03
 -3.12368E+03  1.65194E+03 -3.80429E+03  1.00800E+03 -4.20321E+03 -1.28223E+03 -6.54111E+01 -1.56405E+03
  7.22435E+02 -1.96308E+03  2.74863E+03 -1.93064E+03  1.34403E+03  1.35583E+03 -2.26889E+02  1.50180E+03
 -2.29860E+03  4.70331E+02 -1.72531E+03 -2.10496E+03 -1.15193E+03 -3.08216E+03  2.36284E+02 -3.03734E+03
  2.55653E+03 -1.06961E+03  2.86441E+03  9.51530E+01  1.56759E+03 -4.40454E+02  7.65851E+02  1.98426E+03
 -1.33068E+03  4.20289E+02 -1.66003E+03 -9.54060E+02  3.84672E+02 -2.52744E+03  4.03367E+03 -9.47724E+02
  3.55524E+03  5.32611E+02  3.88687E+03  2.00744E+03  1.24778E+03  2.75312E+03  6.08559E+02  3.51681E+03
 -2.83629E+03  1.09796E+03 -2.46560E+03  1.97480E+02 -1.20562E+03 -3.02412E+03  2.57562E+02  3.69103E+02
  2.95985E+03 -6.08394E+02  2.38747E+03  8.26728E+02  1.31736E+03  3.15189E+03  5.50718E+02  1.78242E+03
 -1.74777E+02  2.21328E+03 -1.20170E+03  2.01970E+03  3.84581E+02  1.46804E+03  6.13548E+02  6.17314E+02
 -1.86223E+03  1.05581E+03 -2.15114E+03  7.39119E+02 -2.92061E+03  2.26871E+02 -4.46911E+03 -2.16666E+03
 -2.10398E+03 -5.07795E+03  1.10289E+03 -5.63136E+03  1.35558E+03 -4.32141E+03  5.26300E+03 -2.62932E+03
  4.52893E+03  1.04217E+03  3.37554E+03  3.72956E+03 -1.36432E+03  2.32679E+03  4.02763E+00  3.17034E+03
 -1.73981E+03  1.05376E+03 -1.00531E+03 -2.80585E+02  4.01774E+02 -1.40602E+02 -3.02203E+02  9.04238E+01
 -1.23139E+03  2.33371E+02 -1.21481E+03 -6.26434E+02  2.66667E+02 -9.77426E+02  1.37099E+02 -1.23507E+03
  1.05198E+03 -1.16495E+03  1.76112E+03 -2.40548E+02  2.72853E+03  1.50338E+03  5.98787E+02  2.01946E+03
 -1.85690E+03  3.52398E+03 -2.98554E+03  2.73009E+03 -3.16733E+03 -7.06264E+02 -3.37370E+03 -2.32024E+03
 -1.22973E+03 -3.14724E+03  1.80773E+03 -1.76618E+03  2.06096E+03 -2.62653E+03  1.33981E+03  3.98671E+02
  2.63725E+03  1.76262E+03  4.22462E+02  5.32179E+02 -1.11917E+03 -1.51899E+02  7.92491E+02 -1.99394E+03
  1.26162E+03  4.47228E+02  1.53597E+03  4.53464E+02  5.59808E+02  1.47958E+03  1.15804E+03  1.66223E+03
 -6.18287E+02  7.19491E+02 -1.63574E+03  4.46978E+02 -1.40612E+03 -1.81133E+03  3.90727E+02 -2.03266E+03
  4.85064E+02 -2.28243E+03  3.08420E+03  1.04315E+03  2.69472E+03  6.92853E+02  7.19240E+02  2.82994E+03
  1.87960E+02  5.38429E+02 -1.11629E+03  1.29969E+03 -1.84861E+02  1.42263E+03 -8.84228E+02  2.84002E+02
 -4.40901E+02 -6.00609E+02 -1.10334E+03 -1.16448E+02 -1.61000E+03  6.38366E+02 -1.20805E+03 -8.72142E+02
 -1.15402E+03 -6.88512E+02 -7.13425E+02 -3.27277E+02  5.02347E+02 -3.93663E+03  1.19999E+03  2.87777E+02
  2.74374E+03  1.71302E+02 -1.34563E+01  1.74554E+03  4.27298E+02  2.11568E+03 -2.16335E+03  1.87065E+03
