 $NMID ID='MM_0lb_SNR200_17hz_g55_68.RAW', FMTDAT='(8E13.5)'
 TRAMP=1., VOLUME=1. $END
  3.08733E+05 -2.57865E+02  3.38329E+05  2.50449E+05  8.55286E+04  3.37295E+05 -1.33127E+05  2.50448E+05
 -1.90567E+05  8.33112E+04 -1.12447E+05 -3.32568E+04  6.65483E+02 -4.95664E+04  5.30481E+04  1.05834E+02
  3.49282E+04  5.32339E+04 -1.63072E+04  7.51291E+04 -6.03349E+04  6.22652E+04 -8.31934E+04  3.22274E+04
 -8.14012E+04 -1.17031E+04 -5.76095E+04 -5.15550E+04 -1.56723E+04 -6.82599E+04  2.69980E+04 -4.57575E+04
  3.97107E+04  4.35886E+03  1.54963E+04  4.78974E+04 -3.41726E+04  4.72684E+04 -6.58047E+04 -3.84663E+02
 -5.24275E+04 -5.63305E+04 -6.88095E+03 -7.73547E+04  3.25508E+04 -5.36715E+04  4.77376E+04 -1.64376E+04
  4.28303E+04  1.06944E+04  3.01394E+04  2.40690E+04  1.57431E+04  2.99288E+04 -4.70982E+03  2.76477E+04
 -2.25861E+04  1.25599E+04 -1.83354E+04 -4.47108E+03  6.31782E+03 -7.43839E+03  2.23817E+04  1.15306E+04
  7.12399E+03  3.38355E+04 -3.15461E+04  3.54775E+04 -6.38492E+04  3.24439E+03 -5.69254E+04 -4.23882E+04
 -1.19561E+04 -6.31052E+04  3.88691E+04 -4.39688E+04  5.72784E+04 -1.69989E+03  3.40250E+04  3.19787E+04
 -6.27789E+03  3.54641E+04 -2.94972E+04  1.53825E+04 -3.00494E+04 -4.25947E+03 -1.64863E+04 -1.12949E+04
 -7.86568E+03 -1.26027E+04 -1.21112E+03 -1.82866E+04  8.08666E+03 -2.27424E+04  1.53352E+04 -1.29004E+04
  1.17908E+04  4.51259E+03 -7.90157E+03  1.35182E+04 -2.03175E+04 -3.88929E+03 -9.20431E+03 -3.07004E+04
  2.14425E+04 -4.32682E+04  4.69594E+04 -1.93495E+04  4.43559E+04  1.86360E+04  1.48505E+04  4.24361E+04
 -1.58546E+04  3.18920E+04 -2.40696E+04  2.03645E+03 -1.01654E+04 -2.71813E+04  2.09944E+04 -3.31691E+04
  3.90895E+04 -8.49825E+03  3.40019E+04  2.40482E+04  1.68850E+04  4.47533E+04 -8.56972E+03  4.80848E+04
 -3.00712E+04  3.28053E+04 -3.98064E+04  9.04695E+03 -4.03816E+04 -1.62037E+04 -2.24801E+04 -3.59652E+04
  8.47136E+03 -3.69574E+04  3.02488E+04 -1.41566E+04  2.89153E+04  1.12769E+04  2.97197E+03  1.82797E+04
 -1.34905E+04  9.16865E+03 -9.92738E+03 -6.91323E+03  5.87390E+03 -1.06182E+04  1.77129E+04  5.96653E+03
  1.38584E+04  2.14510E+04 -5.82234E+03  2.56486E+04 -2.22723E+04  1.04820E+04 -2.66590E+04 -6.30738E+03
 -1.86523E+04 -1.81372E+04 -6.97328E+03 -1.83807E+04  4.83653E+03 -1.76197E+04  1.50519E+04 -1.63595E+04
  2.44944E+04 -1.22957E+04  2.96159E+04  2.24940E+03  2.30063E+04  1.82046E+04  3.49120E+03  3.41493E+04
 -1.69934E+04  2.87550E+04 -2.71549E+04  9.80301E+03 -1.97552E+04 -9.25879E+03 -3.80224E+03 -1.38558E+04
  2.14550E+03 -3.30136E+03 -4.33960E+03  5.19848E+03 -1.52309E+04  5.93960E+03 -1.43737E+04 -6.20006E+03
 -9.78474E+03 -1.73319E+04  4.84814E+03 -2.18123E+04  1.42410E+04 -1.45823E+04  1.65823E+04 -1.05609E+03
  1.02559E+04  1.14458E+04 -1.16557E+03  1.70816E+04 -1.17827E+04  1.09477E+04 -1.60471E+04 -4.15200E+03
 -1.25836E+04 -1.55531E+04 -2.47321E+03 -2.13037E+04  1.03992E+04 -1.72838E+04  1.75483E+04 -8.39655E+03
  1.62343E+04  1.20419E+03  1.14962E+04  3.80322E+03  4.60276E+03  1.14847E+03  8.90050E+03 -1.59225E+03
  1.59971E+04  3.20417E+03  1.66511E+04  1.37136E+04  1.06815E+04  2.63884E+04 -4.43075E+03  2.98347E+04
 -1.71730E+04  2.34645E+04 -2.79556E+04  1.14066E+04 -2.90997E+04 -3.27508E+03 -2.46246E+04 -1.75117E+04
 -1.21200E+04 -2.42660E+04  8.68145E+03 -2.08917E+04  1.95388E+04 -1.19502E+04  1.80239E+04  4.16597E+03
  6.22059E+03  1.30119E+04 -8.27676E+03  1.14083E+04 -1.48529E+04  1.78149E+03 -1.11592E+04 -8.42501E+03
 -6.25436E+02 -1.39181E+04  7.92789E+03 -1.01829E+04  1.04629E+04 -2.58681E+03  1.57557E+03  6.39290E+03
 -7.61519E+03  2.63125E+03 -4.09469E+03 -4.99520E+03  1.40925E+03 -1.21049E+04  8.99780E+03 -1.29438E+04
  1.40887E+04 -6.13249E+03  1.44050E+04  2.27829E+03  1.33170E+04  1.01016E+04  6.10208E+03  1.65565E+04
 -3.04791E+03  1.89456E+04 -1.28305E+04  1.26379E+04 -1.27990E+04  2.83634E+03 -1.07512E+04 -2.10584E+03
 -4.84491E+03 -4.31073E+03 -9.42524E+02  1.77572E+03 -1.94814E+03  1.89918E+03 -4.83320E+03  4.20552E+03
 -9.32652E+03 -1.28295E+03 -1.02361E+04 -8.70974E+03 -3.55136E+03 -1.30594E+04  4.12777E+03 -9.77448E+03
  8.73186E+03 -4.75055E+03  5.04636E+03  2.20595E+03  1.23862E+02  4.35951E+03 -4.35141E+03  4.64842E+02
 -4.07550E+03 -5.76684E+03 -1.35676E+03 -8.81579E+03  4.74568E+03 -9.02349E+03  1.20092E+04 -4.47840E+03
  1.46392E+04  3.86214E+02  1.07921E+04  6.71714E+03  2.11934E+03  1.06500E+04 -5.77540E+03  8.85115E+03
 -7.87356E+03  2.37399E+03 -5.66398E+03 -1.81254E+03  1.70646E+03 -1.75391E+03  4.76764E+03 -5.81267E+02
  4.47582E+03  2.87960E+03  1.12522E+03  7.42391E+03 -4.69151E+03  6.67103E+03 -9.29245E+03  2.15002E+03
 -5.86803E+03 -4.59531E+03 -3.82015E+01 -7.93978E+03  4.62564E+03 -4.25254E+03  5.26147E+03  1.29001E+03
  7.04515E+02  4.80774E+03 -5.57641E+03  4.89957E+03 -7.20295E+03  2.60797E+03 -6.56690E+03 -1.33731E+03
 -3.22405E+03 -6.94068E+03  9.87904E+02 -8.97899E+03  7.38220E+03 -5.33293E+03  8.09526E+03  1.00364E+03
  5.78785E+03  6.65419E+03 -2.65061E+01  9.20219E+03 -5.46549E+03  5.33342E+03 -6.87456E+03  3.53571E+02
 -5.70819E+03 -5.74441E+03 -1.65206E+03 -5.60721E+03  2.55594E+03 -5.24018E+03  3.43527E+03 -2.33981E+03
  3.81516E+03  6.09748E+02 -5.42414E+02  1.14344E+03  8.18603E+02 -1.58034E+03  8.21721E+02 -2.97356E+03
  5.09698E+03 -4.42630E+02  7.29124E+03  1.38679E+03  6.86288E+03  3.39200E+03  5.53163E+03  1.05115E+04
 -2.37859E+03  1.13941E+04 -9.15449E+03  7.99727E+03 -1.14643E+04  1.38157E+03 -9.80028E+03 -3.65982E+03
 -4.23167E+03 -6.54514E+03  3.52397E+02 -6.35533E+03  4.31505E+03 -3.70067E+03  1.56559E+03 -2.05314E+03
  1.88373E+03 -2.28465E+03  1.69945E+03 -3.27827E+03  3.28680E+03 -2.68920E+03  5.03957E+03  3.51469E+02
  5.68497E+03  1.74502E+03  9.16690E+02  4.00422E+03 -1.54895E+03  4.53700E+03 -4.23264E+03  3.64742E+03
 -6.27426E+03 -8.74131E+02 -2.13525E+03 -3.85908E+03  5.32161E+02 -6.73747E+03  4.10346E+03 -6.12115E+03
  5.63859E+03 -2.87516E+03  8.12855E+03  1.33078E+03  6.51455E+03  5.82003E+03  1.35448E+03  6.89173E+03
 -2.23440E+03  5.53655E+03 -4.19920E+03  2.59193E+03 -2.00751E+03 -1.24672E+03 -1.35614E+03 -5.36382E+02
 -7.40502E+02  7.45272E+02 -5.88518E+02  2.20483E+03 -1.85567E+03  2.36149E+03 -5.04434E+03 -1.50057E+02
 -1.67119E+03 -3.55957E+03  2.53514E+02 -5.17322E+03  3.35675E+03 -5.03637E+03  4.23663E+03 -1.49058E+03
  5.38241E+03  2.96299E+03  3.43349E+03  3.19415E+03 -1.04757E+03  4.97538E+03 -3.59323E+03  4.16718E+03
 -4.29567E+03  1.28534E+03 -3.26301E+03 -3.12043E+03 -2.09562E+00 -4.61206E+03  2.30493E+03 -2.56986E+03
  4.16563E+03 -7.13886E+02  2.57961E+03  1.52106E+02  1.37858E+03  1.74064E+03  6.12415E+02  8.15838E+02
  1.36407E+03  3.58503E+02  5.82968E+02  1.40675E+03  1.13529E+03  1.53791E+03  2.30596E+03  2.52450E+03
 -1.28406E+03  4.02760E+03 -4.29211E+03  5.19786E+03 -4.90754E+03  1.85119E+03 -4.73212E+03 -7.43349E+02
 -3.03383E+03 -4.95431E+03  9.98827E+02 -6.26645E+03  2.72174E+03 -3.01748E+03  3.64931E+03 -1.06772E+02
  3.00631E+03  2.02468E+03  1.23276E+03  3.94470E+03 -3.81524E+02  2.33110E+03 -1.23578E+03 -1.30607E+02
 -1.09957E+03 -1.52018E+03  1.37968E+03 -2.08804E+03  1.49034E+03  9.69796E+01  2.68834E+03  8.14313E+01
  1.46872E+03  7.56720E+02  8.97192E+02 -8.17629E+02  8.17025E+02  1.54542E+03  1.32253E+03 -9.19438E+02
 -4.33694E+02  8.12336E+01  1.93769E+03  1.33382E+03 -8.34757E+02  2.60196E+03  3.45013E+02  3.64975E+03
 -3.29568E+03  1.66081E+03 -3.01549E+03  1.04993E+03 -3.35848E+03 -1.48803E+03 -8.41967E+02 -7.81277E+02
  3.51433E+02 -2.92269E+03  1.18377E+03  3.45272E+02  6.33134E+01  1.75980E+03 -4.18946E+02  1.02910E+03
 -2.26255E+03  9.49705E+02 -1.67222E+03 -1.00906E+03 -6.72551E+02 -2.18050E+03 -8.60797E+01 -1.73369E+03
  9.06106E+02 -1.70321E+03  1.13762E+03  2.99776E+02  2.57556E+03 -1.30004E+03  1.68112E+02  2.20302E+03
 -7.53633E+02  4.76107E+02 -1.78235E+03 -1.88933E+02  1.05387E+03 -4.59709E+02  2.48052E+03 -4.60173E+02
  1.92523E+03 -8.10525E+00  4.09084E+03  5.50056E+02  7.98819E+02  3.42457E+03 -1.71022E+03  1.40946E+03
 -2.40596E+03  9.86623E+02 -1.73954E+03  1.44756E+02 -1.52931E+03 -1.68550E+03 -1.90671E+02 -1.26455E+03
  2.19134E+03 -1.07729E+03  7.67238E+02  6.60153E+02  4.35259E+02  1.17834E+03  1.43361E+03  2.65158E+03
 -3.33642E+02  1.28686E+03  1.97768E+02  1.45411E+02  1.22041E+03  1.25832E+03 -1.98787E+02 -7.54075E+01
  1.22334E+03  2.12364E+03 -1.56396E+03  5.54482E+02 -2.36899E+03 -9.61924E+02 -3.09886E+03 -5.52631E+02
 -1.13254E+03 -2.68564E+03  1.85018E+02 -4.08647E+03  3.52263E+03 -3.78070E+03  4.18342E+03 -1.79734E+03
  2.79795E+03  4.87045E+02  2.64609E+03  1.65291E+03 -3.14259E+02  2.22400E+03 -5.11929E+02  1.42685E+03
 -2.66814E+03  2.17450E+02 -6.67173E+02 -6.95421E+02 -1.90517E+03  1.06232E+03  2.62320E+02 -6.39388E+01
 -2.12387E+03  4.48968E+02 -5.41931E+02  8.06480E+02  5.06546E+01 -1.55023E+03 -1.01152E+03 -9.51174E+02
  5.95649E+02 -1.74334E+03  7.43456E+01  6.94925E+01  1.20110E+03  8.44166E+02  4.97262E+02  2.52748E+03
 -2.54610E+03  3.46562E+03 -7.73695E+02  7.62672E+02 -2.13879E+03 -3.14110E+02 -1.67241E+03 -1.79246E+03
 -4.21630E+02 -1.08403E+03 -5.49784E+01 -1.52319E+03  1.53943E+03  6.69539E+01  7.81046E+02  5.42076E+02
 -2.18364E+01 -5.14574E+02  6.97570E+02  1.03336E+03 -1.35348E+03  4.47973E+02  6.07221E+02  3.64079E+02
  4.19854E+02  3.73418E+02  1.00479E+03  1.59413E+02  1.37138E+02  2.59815E+02 -3.60103E+02  7.14526E+02
 -1.13272E+02  4.34553E+02 -1.15961E+03 -1.54340E+00 -1.09900E+03 -1.06584E+03 -1.10310E+03 -1.57600E+03
  1.43979E+03 -1.41757E+03  1.43081E+03 -5.88257E+01  9.60701E+02  1.12839E+03  1.07518E+03  1.85981E+03
  7.93994E+02  1.31303E+03 -3.98935E+02  4.54769E+01 -5.31163E+02  6.01176E+00 -1.13913E+03 -5.29985E+01
 -2.07845E+01 -1.02483E+03 -1.47642E+03 -7.58441E+02 -7.54839E+02 -2.92827E+02 -5.34786E+02  1.09566E+02
 -1.97215E+03 -9.19203E+02 -5.27960E+02 -1.77495E+03 -8.75204E+02 -2.36642E+03  6.62637E+02  6.03252E+02
  1.39856E+03 -7.13390E+02 -8.10212E+02  6.92216E+02 -2.36657E+02  1.77688E+03 -1.77313E+03  1.25952E+03
