 $NMID ID='MM_0lb_SNR200_8hz_g45_54.RAW', FMTDAT='(8E13.5)'
 TRAMP=1., VOLUME=1. $END
  3.09202E+05  1.44770E+03  3.37585E+05  2.50906E+05  8.49106E+04  3.39580E+05 -1.32792E+05  2.50966E+05
 -1.92510E+05  8.39735E+04 -1.14033E+05 -3.30483E+04  1.48405E+03 -5.12925E+04  5.27082E+04  2.93530E+01
  3.55085E+04  5.44416E+04 -1.73141E+04  7.55451E+04 -6.18364E+04  6.45800E+04 -8.57996E+04  3.23567E+04
 -8.14503E+04 -1.03771E+04 -5.86451E+04 -5.20223E+04 -1.61853E+04 -7.00928E+04  2.85989E+04 -4.76023E+04
  4.29788E+04  3.89477E+03  1.74886E+04  4.89557E+04 -3.34049E+04  4.85152E+04 -6.84362E+04 -8.22076E+02
 -5.49461E+04 -5.87716E+04 -7.72288E+03 -8.01133E+04  3.53803E+04 -5.62509E+04  4.83732E+04 -1.63322E+04
  4.46332E+04  1.13784E+04  3.28743E+04  2.49730E+04  1.54860E+04  2.98810E+04 -5.95319E+03  2.80965E+04
 -2.24988E+04  1.15445E+04 -1.69599E+04 -5.41052E+03  8.16761E+03 -7.21741E+03  2.49739E+04  1.46191E+04
  4.93381E+03  3.65677E+04 -3.32041E+04  3.90270E+04 -6.64984E+04  4.57952E+02 -5.82255E+04 -4.53480E+04
 -1.36058E+04 -6.63913E+04  4.18928E+04 -4.60233E+04  6.21484E+04 -3.56138E+03  3.73239E+04  3.30806E+04
 -5.65466E+03  3.93508E+04 -3.01343E+04  1.82944E+04 -3.25453E+04 -3.54036E+03 -1.75832E+04 -1.19462E+04
 -8.09907E+03 -1.64678E+04 -1.12715E+03 -1.82534E+04  7.95987E+03 -2.32511E+04  1.56818E+04 -1.39288E+04
  9.92892E+03  4.86974E+03 -1.00634E+04  1.25149E+04 -2.28413E+04 -7.87876E+03 -9.06548E+03 -3.73572E+04
  2.50619E+04 -4.84891E+04  5.28729E+04 -2.18484E+04  4.91357E+04  2.07769E+04  1.77092E+04  4.68316E+04
 -1.73301E+04  3.61825E+04 -2.82832E+04  3.41543E+03 -1.30692E+04 -3.13058E+04  2.10579E+04 -3.59060E+04
  4.64915E+04 -1.20798E+04  4.16257E+04  2.34149E+04  2.23616E+04  5.08198E+04 -8.40374E+03  5.83482E+04
 -3.63318E+04  4.00966E+04 -4.75236E+04  1.00305E+04 -4.83237E+04 -1.69798E+04 -2.46115E+04 -4.29882E+04
  7.32564E+03 -4.29341E+04  3.46229E+04 -1.80700E+04  3.42134E+04  1.18905E+04  5.17052E+03  2.12206E+04
 -1.41096E+04  9.70969E+03 -1.17058E+04 -8.10028E+03  6.18443E+03 -1.20306E+04  2.01640E+04  5.88252E+03
  1.44457E+04  2.19406E+04 -6.06072E+03  2.74616E+04 -2.26274E+04  1.55261E+04 -3.14218E+04 -2.89626E+03
 -2.52263E+04 -1.77442E+04 -1.06300E+04 -2.67823E+04  3.70631E+03 -2.64929E+04  1.85808E+04 -2.48664E+04
  3.18857E+04 -1.37601E+04  3.86206E+04  5.32642E+03  2.85453E+04  2.50691E+04  5.76334E+03  4.08519E+04
 -1.92735E+04  3.62528E+04 -3.19252E+04  1.13398E+04 -2.18441E+04 -1.01298E+04 -5.15649E+03 -1.39222E+04
  1.41695E+03 -4.32099E+02 -6.54549E+03  8.01710E+03 -2.06796E+04  4.99592E+03 -2.09938E+04 -1.17923E+04
 -1.04815E+04 -2.36170E+04  5.07685E+03 -2.70267E+04  1.79958E+04 -2.01664E+04  2.30416E+04 -2.54393E+03
  1.37951E+04  1.50066E+04  3.27579E+02  2.40887E+04 -1.81690E+04  1.47427E+04 -2.37184E+04 -3.78922E+03
 -1.72670E+04 -2.07566E+04 -2.67368E+03 -3.21900E+04  1.36068E+04 -2.24719E+04  2.56190E+04 -1.28263E+04
  2.21425E+04 -1.86222E+02  1.61541E+04  5.10091E+03  9.54758E+03  2.60952E+03  1.13431E+04 -1.38543E+03
  2.31058E+04  3.44810E+03  2.51799E+04  1.87434E+04  1.78605E+04  3.91129E+04 -2.90913E+03  4.52442E+04
 -2.72858E+04  3.68711E+04 -4.22880E+04  1.90045E+04 -4.72837E+04 -2.53205E+03 -3.74247E+04 -2.62582E+04
 -1.37512E+04 -3.98242E+04  1.33079E+04 -3.37274E+04  2.71111E+04 -1.54259E+04  2.62963E+04  7.52420E+03
  8.27687E+03  2.09747E+04 -1.21252E+04  1.66935E+04 -2.15466E+04  1.51028E+03 -1.36473E+04 -1.29835E+04
  9.34899E+01 -2.11681E+04  1.05177E+04 -1.51543E+04  1.46626E+04 -3.04705E+03  3.12255E+03  9.21976E+03
 -9.11217E+03  4.75431E+03 -9.58288E+03 -7.00713E+03 -2.09981E+03 -1.97526E+04  1.23335E+04 -2.12910E+04
  2.33446E+04 -1.10968E+04  2.79430E+04  4.59555E+03  2.30489E+04  1.84062E+04  1.05166E+04  2.99567E+04
 -7.49659E+03  3.16351E+04 -2.10156E+04  2.02540E+04 -2.29680E+04  5.07781E+03 -1.62824E+04 -7.17253E+03
 -7.77938E+03 -7.18545E+03  1.40809E+03  3.02784E+02 -3.45018E+03  1.85324E+03 -8.57500E+03  8.00437E+03
 -1.49063E+04  4.30855E+02 -1.54609E+04 -1.21675E+04 -6.53980E+03 -2.12097E+04  6.87994E+03 -1.63072E+04
  1.50255E+04 -6.75476E+03  9.16441E+03  6.17656E+03  4.73806E+02  6.17661E+03 -7.13048E+03 -1.00007E+03
 -6.81597E+03 -1.05851E+04 -2.76282E+02 -1.62164E+04  1.08181E+04 -1.61642E+04  2.35745E+04 -1.01518E+04
  2.61960E+04  1.55093E+03  1.80106E+04  1.50983E+04  2.11171E+03  1.94274E+04 -9.65114E+03  1.69577E+04
 -1.44889E+04  5.55544E+03 -6.14329E+03 -3.90012E+03  1.75931E+03 -4.81229E+03  7.53976E+03 -2.14905E+03
  8.76066E+03  7.51610E+03  1.52024E+03  1.37738E+04 -9.03389E+03  1.25137E+04 -1.62236E+04  4.27840E+03
 -1.14928E+04 -7.54665E+03 -1.44404E+02 -1.46619E+04  1.05881E+04 -7.13516E+03  9.88715E+03  2.44395E+03
  1.39602E+03  1.13499E+04 -9.64117E+03  1.29711E+04 -1.48697E+04  4.74569E+03 -1.59285E+04 -5.21367E+03
 -8.37376E+03 -1.73484E+04  4.83927E+03 -2.03810E+04  1.59650E+04 -1.19249E+04  1.76013E+04  2.23089E+03
  1.17685E+04  1.39182E+04 -1.11490E+03  1.72923E+04 -1.32322E+04  1.00696E+04 -1.40795E+04  3.10006E+02
 -1.16919E+04 -1.21636E+04 -2.60992E+03 -1.24222E+04  5.69825E+03 -1.04053E+04  8.04562E+03 -5.51580E+03
  4.07524E+03  2.98048E+03 -2.88744E+02  1.08542E+03 -2.39667E+03 -3.13530E+03  5.00489E+03 -7.59074E+03
  1.11626E+04 -7.11846E+03  1.73422E+04  1.65286E+03  1.60984E+04  1.06382E+04  9.29467E+03  2.35235E+04
 -5.63674E+03  2.33776E+04 -2.20722E+04  2.03411E+04 -2.75156E+04  2.98147E+03 -2.20955E+04 -1.01972E+04
 -1.21477E+04 -1.84824E+04  8.45416E+01 -1.52331E+04  5.49653E+03 -1.00034E+04  6.88620E+03 -5.83479E+03
  4.80758E+03 -2.34936E+03  3.12962E+03 -4.72606E+03  5.43941E+03 -4.77882E+03  9.61150E+03 -2.40987E+03
  1.16836E+04  3.31299E+03  4.84522E+03  1.04285E+04 -2.53617E+03  1.31569E+04 -1.27573E+04  9.56436E+03
 -1.39737E+04 -1.78936E+03 -9.91794E+03 -1.05827E+04 -3.07943E+02 -1.61926E+04  1.06853E+04 -1.69651E+04
  1.76410E+04 -9.25745E+03  2.05032E+04  3.95476E+03  1.35234E+04  1.51748E+04  2.54829E+03  1.71904E+04
 -8.02842E+03  1.63718E+04 -1.11711E+04  4.86407E+03 -7.85534E+03 -1.60091E+03 -3.72352E+03 -2.36288E+03
 -1.74218E+03 -1.27106E+03 -2.89290E+03  2.36876E+03 -6.40653E+03  4.07159E+03 -1.08832E+04 -1.57804E+03
 -6.88545E+03 -1.19132E+04  1.28351E+02 -1.66076E+04  1.01137E+04 -1.44507E+04  1.74243E+04 -4.01508E+03
  1.61661E+04  8.61955E+03  8.15077E+03  1.53029E+04 -4.61474E+03  1.52057E+04 -1.29815E+04  9.49452E+03
 -1.46262E+04  8.84434E+01 -1.11620E+04 -9.95583E+03 -4.78344E+02 -1.37713E+04  8.30168E+03 -1.00362E+04
  1.09480E+04 -2.20220E+03  6.43441E+03  2.44935E+03  1.98521E+03  4.59921E+03  6.87600E+02  2.79244E+03
  4.83753E+03  1.57581E+03  3.75344E+03  5.45543E+02  6.70281E+03  5.34227E+03  2.97389E+03  9.31245E+03
 -2.81392E+03  1.45657E+04 -1.14981E+04  1.28856E+04 -1.88755E+04  3.65100E+03 -1.85459E+04 -6.33255E+03
 -7.57686E+03 -1.75927E+04  2.82548E+03 -1.78314E+04  7.90688E+03 -1.07347E+04  1.18347E+04 -1.61817E+03
  1.03460E+04  7.24505E+03  1.10781E+03  1.12951E+04 -4.00086E+03  7.34728E+03 -6.97980E+03 -2.06705E+03
 -2.64330E+02 -8.26110E+03  2.17137E+03 -8.35865E+03  7.02638E+03 -4.40260E+03  7.12485E+03  1.10361E+03
  3.70265E+03  4.99046E+03  2.27750E+03  1.77398E+03  6.64185E+02  3.40544E+03  9.88676E+02  4.19060E+02
  3.04907E+03 -2.31530E+03  6.56015E+03  2.94874E+03  3.86674E+03  6.92312E+03 -2.17915E+03  1.07008E+04
 -7.15399E+03  9.13241E+03 -1.04915E+04  7.38882E+02 -9.62334E+03 -4.10770E+03 -2.65948E+03 -6.74690E+03
  1.92443E+03 -6.89810E+03  5.16335E+03 -2.31680E+03  2.72346E+03  2.24712E+03 -1.54081E+03  5.25624E+03
 -5.51716E+03  4.17687E+03 -8.53183E+03 -3.44970E+03 -3.42801E+03 -1.10514E+04  1.08509E+03 -1.05595E+04
  5.42389E+03 -6.71859E+03  6.09597E+03 -2.68326E+02  5.86004E+03  1.85103E+03 -9.96972E+02  4.58398E+03
 -2.59817E+03  1.47165E+03 -5.00910E+03 -3.23928E+03  1.19865E+03 -5.03199E+03  6.87062E+03 -7.61669E+03
  1.03488E+04  1.58924E+03  9.32015E+03  7.15703E+03  3.49138E+03  1.05688E+04 -3.82846E+03  1.13759E+04
 -9.97188E+03  4.74394E+03 -8.95171E+03 -7.58572E+02 -6.66716E+03 -6.46846E+03  3.25490E+03 -5.58132E+03
  6.22096E+03 -4.62678E+03  7.01750E+03  5.41853E+03  2.50618E+03  6.19932E+03 -4.03301E+02  5.32609E+03
 -2.74274E+03  3.01506E+03 -1.84559E+03  1.82743E+03 -1.07861E+03  2.68864E+03 -2.59774E+03  2.84090E+03
 -3.92489E+03  3.75988E+03 -8.92938E+03  5.03001E+03 -1.02258E+04  5.91575E+02 -1.13774E+04 -8.97963E+03
 -6.71217E+03 -1.50984E+04  4.68737E+03 -1.87848E+04  9.07814E+03 -1.30237E+04  1.73968E+04 -4.29091E+03
  1.62589E+04  4.57932E+03  9.02705E+03  1.13663E+04  1.53563E+03  1.15154E+04 -4.07941E+03  9.19587E+03
 -6.02635E+03  1.68344E+03 -5.60192E+03 -9.11812E+02 -1.82074E+03 -6.71725E+02 -1.83148E+03  1.14885E+03
 -2.27891E+03 -3.27131E+02 -3.67618E+03 -2.26922E+03 -1.11941E+03 -2.82898E+03 -1.03962E+03 -3.69873E+03
  5.40320E+03 -2.79674E+03  8.37418E+03  1.16167E+03  8.73015E+03  7.31539E+03  4.26767E+03  1.31564E+04
 -5.21745E+03  1.39196E+04 -1.34125E+04  9.64253E+03 -1.43436E+04 -2.03194E+03 -1.01900E+04 -7.74092E+03
 -4.92098E+03 -1.20882E+04  2.34853E+03 -1.12468E+04  7.78441E+03 -5.12265E+03  7.77015E+03 -8.55256E+02
  3.89516E+03  5.08086E+03 -8.12259E+02  2.40522E+03 -3.81391E+03  4.74323E+02  5.96976E+01 -3.78183E+03
  3.09950E+03 -3.18362E+03  5.11234E+03  1.45787E+03  3.42991E+03  4.10388E+03  3.73915E+00  6.78644E+03
 -3.90887E+03  4.72661E+03 -8.94481E+03  2.32795E+02 -6.23944E+03 -6.67142E+03 -1.04189E+03 -1.05158E+04
  5.75482E+03 -1.00828E+04  9.41421E+03 -2.17135E+03  8.82542E+03  2.19321E+03  4.94938E+03  8.01784E+03
 -6.35236E+02  8.58733E+03 -1.77968E+03  7.56625E+03 -4.10282E+03  5.22529E+03 -5.88585E+03  6.32178E+02
 -5.73007E+02  1.33648E+03 -2.34117E+03 -2.68050E+02 -3.94689E+03  7.79596E+02 -5.87839E+03 -1.31969E+03
 -6.22155E+03 -5.69617E+03 -1.82748E+03 -7.75245E+03  6.30172E+03 -8.16172E+03  8.35229E+03 -4.45519E+03
  9.47089E+03  1.64976E+03  5.71555E+03  5.73562E+03 -3.72862E+02  8.28899E+03 -4.64853E+03  5.34503E+03
