 $NMID ID='MM_0lb_SNR200_18hz_g50_34.RAW', FMTDAT='(8E13.5)'
 TRAMP=1., VOLUME=1. $END
  3.09945E+05  1.59203E+02  3.38860E+05  2.50735E+05  8.43846E+04  3.36345E+05 -1.30521E+05  2.50810E+05
 -1.90072E+05  8.35454E+04 -1.11972E+05 -3.19790E+04  3.03014E+02 -5.01372E+04  5.35180E+04  7.12358E+01
  3.49831E+04  5.33163E+04 -1.67437E+04  7.45938E+04 -6.14225E+04  6.20244E+04 -8.35267E+04  3.28212E+04
 -7.96769E+04 -1.12669E+04 -5.67497E+04 -5.08381E+04 -1.58275E+04 -6.92262E+04  2.72531E+04 -4.47932E+04
  3.82318E+04  5.28259E+03  1.64162E+04  4.68968E+04 -3.31333E+04  4.66703E+04 -6.61162E+04  2.73130E+02
 -5.35338E+04 -5.63137E+04 -7.03990E+03 -7.63925E+04  3.42738E+04 -5.38260E+04  4.57750E+04 -1.72692E+04
  4.23294E+04  1.18831E+04  3.12516E+04  2.34785E+04  1.47978E+04  2.78159E+04 -5.36835E+03  2.56135E+04
 -2.10757E+04  1.30522E+04 -1.90613E+04 -4.69615E+03  4.86420E+03 -7.36820E+03  2.11775E+04  1.09820E+04
  5.86857E+03  3.45927E+04 -3.05619E+04  3.50894E+04 -6.10850E+04  1.59620E+03 -5.59344E+04 -4.06552E+04
 -1.21144E+04 -6.11804E+04  3.85163E+04 -4.37181E+04  5.53800E+04 -2.66188E+03  3.21229E+04  3.14599E+04
 -6.26291E+03  3.36171E+04 -2.90077E+04  1.35242E+04 -2.84901E+04 -3.96271E+03 -1.54732E+04 -9.91454E+03
 -7.95003E+03 -1.08653E+04 -1.63640E+03 -1.77081E+04  7.69455E+03 -2.29020E+04  1.52779E+04 -1.29914E+04
  1.23967E+04  3.85778E+03 -7.50363E+03  1.32515E+04 -2.01382E+04 -1.60794E+03 -7.24100E+03 -3.16991E+04
  2.01632E+04 -4.06988E+04  4.61429E+04 -1.88336E+04  4.32437E+04  1.85743E+04  1.45417E+04  4.27841E+04
 -1.55048E+04  3.18610E+04 -2.29142E+04  1.66003E+03 -9.36245E+03 -2.70193E+04  2.12906E+04 -3.20709E+04
  3.87553E+04 -8.08541E+03  3.25241E+04  2.37143E+04  1.59828E+04  4.29741E+04 -7.87133E+03  4.61286E+04
 -2.98582E+04  3.13629E+04 -3.88493E+04  9.04985E+03 -3.81234E+04 -1.54832E+04 -2.21919E+04 -3.54547E+04
  6.96355E+03 -3.39172E+04  2.94475E+04 -1.39611E+04  2.72970E+04  9.96196E+03  3.40603E+03  1.83716E+04
 -1.31914E+04  7.05144E+03 -9.68960E+03 -7.99889E+03  6.17465E+03 -1.00097E+04  1.88397E+04  6.81694E+03
  1.31441E+04  2.18586E+04 -6.05072E+03  2.41986E+04 -2.15043E+04  9.26722E+03 -2.58174E+04 -6.62029E+03
 -1.68833E+04 -1.68123E+04 -6.45968E+03 -1.78978E+04  4.31692E+03 -1.49503E+04  1.26399E+04 -1.48078E+04
  2.25933E+04 -1.15387E+04  2.94509E+04  1.02822E+03  2.12064E+04  1.69198E+04  4.62875E+03  3.17641E+04
 -1.72123E+04  2.76710E+04 -2.65229E+04  8.99748E+03 -1.94110E+04 -9.45692E+03 -4.32719E+03 -1.45562E+04
  2.91011E+03 -4.44803E+03 -2.89899E+03  4.65356E+03 -1.43516E+04  5.13437E+03 -1.48010E+04 -5.43229E+03
 -8.89771E+03 -1.45982E+04  5.19849E+03 -2.08585E+04  1.35664E+04 -1.50032E+04  1.55193E+04 -1.55389E+03
  9.86581E+03  1.15714E+04 -9.40968E+02  1.69571E+04 -1.07429E+04  8.92222E+03 -1.61715E+04 -2.90201E+03
 -1.10045E+04 -1.46158E+04 -1.64848E+03 -1.99628E+04  9.68488E+03 -1.64892E+04  1.67832E+04 -7.12791E+03
  1.50020E+04  1.21030E+03  1.01459E+04  4.10652E+03  6.30958E+03  1.45882E+03  7.74298E+03 -8.59729E+02
  1.38831E+04  1.47198E+03  1.58083E+04  1.27471E+04  9.88340E+03  2.59556E+04 -2.98594E+03  2.90857E+04
 -1.70515E+04  2.14421E+04 -2.59482E+04  1.13405E+04 -2.62194E+04 -7.90640E+02 -2.31216E+04 -1.59451E+04
 -1.06030E+04 -2.26550E+04  6.87485E+03 -2.02203E+04  1.69843E+04 -1.17736E+04  1.63336E+04  4.66086E+03
  7.78645E+03  1.15158E+04 -7.51060E+03  9.31342E+03 -1.46686E+04  2.84814E+03 -1.14256E+04 -8.20034E+03
 -4.09717E+02 -1.45634E+04  7.29860E+03 -9.25071E+03  7.19937E+03 -1.20718E+03  1.88089E+03  4.06277E+03
 -5.72511E+03  1.39340E+03 -3.97941E+03 -4.21019E+03  5.79109E+01 -1.02328E+04  6.76224E+03 -1.04420E+04
  1.28258E+04 -6.67231E+03  1.29352E+04  3.03715E+03  1.12500E+04  9.96811E+03  4.99795E+03  1.55536E+04
 -3.08250E+03  1.71472E+04 -1.02903E+04  1.14581E+04 -1.18663E+04  3.12906E+03 -9.80214E+03 -3.44340E+03
 -4.32255E+03 -4.19360E+03 -1.26945E+03  1.87764E+03 -1.52572E+03  2.67462E+03 -3.11987E+03  3.91328E+03
 -8.07923E+03  4.94230E+02 -9.01800E+03 -6.25886E+03 -3.44345E+03 -1.19478E+04  4.04490E+03 -9.38331E+03
  8.00131E+03 -3.91594E+03  5.41357E+03  2.59051E+03  3.56026E+02  4.12053E+03 -2.72245E+03  6.02876E+02
 -2.99203E+03 -5.43741E+03 -4.14837E+02 -8.82605E+03  4.23369E+03 -7.79658E+03  1.08312E+04 -3.42034E+03
  1.26643E+04  2.74094E+02  9.24070E+03  5.82674E+03  2.33032E+03  8.71794E+03 -4.75453E+03  9.19002E+03
 -7.02615E+03  2.63308E+03 -3.49040E+03 -9.78434E+02  1.84988E+03 -2.01009E+03  5.61187E+03 -1.63450E+02
  3.88651E+03  3.79956E+03  9.86650E+02  7.14759E+03 -4.45262E+03  5.99556E+03 -8.73139E+03  2.55044E+03
 -5.26296E+03 -3.11862E+03  4.29406E+02 -6.12113E+03  4.18864E+03 -3.46957E+03  3.72481E+03  1.96287E+03
  1.18736E+03  3.24056E+03 -4.05913E+03  5.01920E+03 -4.70987E+03  2.73296E+03 -4.65773E+03 -1.05472E+03
 -3.59411E+03 -5.88553E+03  1.39611E+03 -7.99512E+03  6.66931E+03 -4.04902E+03  6.47200E+03  1.73645E+03
  3.54565E+03  6.02485E+03  6.95853E+02  6.56249E+03 -5.62684E+03  4.66223E+03 -6.14258E+03 -1.22822E+03
 -5.98700E+03 -4.66199E+03 -1.86432E+03 -3.49857E+03  2.30883E+03 -4.99932E+03  2.99708E+03 -3.75370E+03
  2.90196E+03  4.24133E+02  3.40689E+02  2.05104E+03  1.59522E+03  3.09450E+02 -1.18691E+02 -2.86195E+03
  3.68669E+03 -1.00420E+03  5.58996E+03  1.18178E+03  6.16106E+03  3.51163E+03  5.70564E+03  7.44235E+03
 -1.97151E+03  9.47123E+03 -8.34533E+03  7.43422E+03 -1.08370E+04  9.45354E+02 -8.09718E+03 -3.09795E+03
 -3.72460E+03 -6.28896E+03 -6.49576E+02 -6.98891E+03  3.26027E+03 -2.16537E+03  5.97457E+02 -1.96219E+03
  1.16356E+03 -1.32217E+03  2.33898E+03 -1.55500E+03  3.02010E+03 -1.37313E+03  4.40031E+03  2.04345E+02
  5.22946E+03  1.65884E+03  1.07170E+03  3.81083E+03 -2.72359E+03  2.91426E+03 -4.12383E+03  2.02520E+03
 -5.29989E+03 -7.75794E+02 -2.23389E+03 -3.60700E+03 -2.17405E+02 -4.78698E+03  2.79253E+03 -5.56172E+03
  6.00937E+03 -3.41782E+03  7.51609E+03 -1.24639E+02  5.35646E+03  4.39458E+03  9.37642E+02  6.32222E+03
 -3.08318E+03  6.63161E+03 -4.23200E+03  2.46283E+03 -1.79716E+03 -1.65746E+03 -1.77449E+03  6.51868E+01
 -4.24946E+02 -1.33998E+02 -9.56642E+02  2.13446E+03 -2.33711E+03  9.10274E+02 -5.02846E+03  9.56578E+02
 -1.39372E+03 -4.46581E+03  1.00893E+03 -5.06954E+03  2.76274E+03 -3.54372E+03  3.24183E+03 -9.83129E+02
  4.04283E+03  2.92886E+03  2.46346E+03  3.30100E+03 -1.35959E+03  4.92149E+03 -2.89093E+03  2.94082E+03
 -3.34272E+03 -2.44527E+02 -4.94323E+03 -3.02629E+03  6.43833E+02 -3.73359E+03  1.60981E+03 -2.96315E+03
  2.42406E+03 -2.29676E+03  1.66690E+03  2.34319E+02 -2.26054E+02  1.74856E+03  3.69575E+02  1.94150E+02
  2.41745E+03  4.47846E+02  1.38177E+03  4.22876E+02  1.29615E+03  1.86748E+03  1.34601E+03  4.88159E+02
 -1.52237E+03  4.69279E+03 -2.12430E+03  4.19398E+03 -3.07762E+03  8.28723E+02 -4.68014E+03 -4.85883E+02
 -1.89549E+03 -4.14988E+03  1.91325E+02 -6.10535E+03  2.94810E+03 -3.15810E+03  3.63172E+03 -5.71216E+02
  2.74372E+03  1.87060E+03  6.46178E+02  1.95535E+03 -6.86930E+02  3.53461E+02 -9.16344E+02 -4.13313E+02
 -6.23353E+02 -1.20922E+03  5.84243E+02 -2.08265E+03  5.22098E+02 -6.11602E+02  2.36511E+03 -1.25942E+02
  1.37239E+03 -1.13425E+02  1.60384E+03 -9.88286E+01 -7.19032E+02  1.33178E+03  1.65476E+03 -2.61799E+02
  4.04336E+02 -6.52135E+02  2.03384E+03  1.58614E+03  5.69912E+02  2.05412E+03 -7.86227E+02  4.14167E+03
 -1.13319E+03  1.30906E+03 -2.70037E+03 -1.00053E+01 -2.49842E+03 -4.12715E+02  7.84024E+01 -6.40868E+02
  2.74057E+02 -5.82212E+02  6.63527E+02 -1.20657E+03 -4.62535E+02  1.77822E+03 -5.62960E+02  7.67408E+02
 -2.06302E+03  9.69165E+01 -2.01376E+02 -1.73720E+03 -1.73717E+03 -1.57606E+03  6.83637E+02 -2.23325E+03
  9.72442E+02 -9.80384E+02 -3.54673E+02  5.48219E+02  2.10214E+03  7.49706E+02  9.99876E+02  1.15329E+03
 -1.27619E+03 -2.90368E+02 -1.05507E+03 -1.66926E+03  5.97307E+02 -1.20044E+03  1.41310E+03 -1.77478E+03
  1.77283E+03  1.11242E+03  1.36997E+03  1.22757E+03  1.45844E+03  2.73460E+03 -4.00456E+02  1.05620E+03
 -1.17106E+03  8.72150E+02 -1.99759E+03  9.13135E+01 -4.70611E+02 -1.34582E+03  2.40410E+02 -1.16477E+03
  2.18438E+03 -1.39324E+03  9.51703E+01  1.49601E+03  6.34730E+02  7.25279E+02  2.02500E+02  6.81013E+02
 -6.01268E+02  2.10843E+03 -1.04584E+03 -1.15799E+02  3.82514E+01  1.39572E+03 -8.76703E+02  7.37879E+02
 -5.29088E+02  6.34689E+02 -3.13455E+03 -1.86134E+02 -2.30064E+03  1.14400E+03 -2.69749E+03 -1.21887E+03
 -1.68706E+03 -2.49020E+03  4.76168E+01 -3.21752E+03  1.11166E+03 -2.72345E+03  2.56626E+03 -1.55472E+03
  2.41305E+03  1.06250E+03  1.93230E+03  2.26994E+03 -1.44501E+03  1.05213E+03 -9.72076E+02  2.38418E+03
 -2.35762E+02  9.14322E+02  5.95947E+01  6.16609E+02 -1.21500E+02 -7.90179E+02 -1.20295E+03  5.05028E+02
 -1.05819E+03 -6.98997E+02 -1.39561E+03 -1.21391E+02  4.64955E+02 -1.85795E+03 -9.66156E+02 -6.01271E+02
  1.13326E+03 -3.84305E+02  5.43927E+01 -1.62883E+02  1.67674E+03  2.89971E+02 -4.07041E+02  2.27377E+03
 -9.11459E+02  1.72016E+03 -1.43347E+03  5.53874E+02 -1.41646E+03 -7.87575E+02 -1.96889E+03 -2.00377E+03
 -1.23272E+02 -9.78530E+02  7.10942E+02 -1.38063E+03  1.53568E+03 -6.47527E+01  6.43983E+01 -5.78180E+02
  1.45687E+03  2.04885E+02 -4.43928E+02 -5.11194E+02  2.92161E+02  2.59730E+02 -1.23157E+03 -1.69590E+02
 -7.08402E+02  1.58556E+03  1.14368E+03 -7.16745E+00 -7.15080E+02  8.38740E+02 -3.62927E+02  8.19409E+02
 -5.64344E+02 -2.72469E+02  3.26530E+02  2.85537E+02 -1.40937E+03 -4.37928E+02 -6.76520E+02 -1.84183E+03
  8.02894E+02  5.56266E+01  5.16019E+02  7.73138E+02  3.19714E+02 -1.29716E+03  4.40283E+01 -6.09624E+01
 -2.56720E+02  1.26734E+02 -2.77406E+02  1.38681E+03 -8.31053E+02  7.65067E+02 -6.37979E+02  1.09954E+03
  1.18164E+02 -4.16934E+02 -4.60180E+02  4.79725E+01 -2.13865E+02 -7.02248E+02 -1.37003E+02 -4.22139E+02
 -1.44630E+03  5.04463E+02  3.36310E+02 -1.19769E+03 -7.51108E+02 -7.04776E+02  1.16952E+03  3.71729E+02
  2.97657E+02 -6.56509E+02 -7.86423E+02 -3.41675E+02  4.91038E+01  7.38577E+02 -1.44792E+03  1.24641E+03
