 $NMID ID='MM_0lb_SNR200_13hz_g60_49.RAW', FMTDAT='(8E13.5)'
 TRAMP=1., VOLUME=1. $END
  3.08943E+05  6.36802E+02  3.39360E+05  2.50479E+05  8.47390E+04  3.38554E+05 -1.32151E+05  2.52529E+05
 -1.89283E+05  8.28725E+04 -1.12623E+05 -3.22495E+04 -2.75373E+02 -5.02559E+04  5.28716E+04 -5.33712E+02
  3.49176E+04  5.32937E+04 -1.50071E+04  7.53127E+04 -6.24048E+04  6.41208E+04 -8.39123E+04  3.32951E+04
 -8.29971E+04 -1.09864E+04 -5.88322E+04 -5.23262E+04 -1.57978E+04 -7.19495E+04  2.74363E+04 -4.66537E+04
  4.07848E+04  4.69906E+03  1.65965E+04  4.75128E+04 -3.42702E+04  4.78034E+04 -6.70779E+04 -8.26885E+02
 -5.50160E+04 -5.76500E+04 -7.09889E+03 -7.91378E+04  3.45048E+04 -5.49637E+04  4.80063E+04 -1.74275E+04
  4.50251E+04  9.78122E+03  3.26321E+04  2.54190E+04  1.54790E+04  2.99835E+04 -6.10647E+03  2.75649E+04
 -2.15449E+04  1.16247E+04 -2.01805E+04 -4.25334E+03  5.76023E+03 -7.67464E+03  2.26152E+04  1.35735E+04
  6.84082E+03  3.60744E+04 -3.26018E+04  3.83953E+04 -6.43168E+04  2.30408E+03 -5.90905E+04 -4.34152E+04
 -1.11023E+04 -6.46905E+04  4.06464E+04 -4.79164E+04  6.03024E+04 -1.71553E+03  3.53819E+04  3.36751E+04
 -5.18332E+03  3.75000E+04 -3.07991E+04  1.73071E+04 -3.04669E+04 -2.49737E+03 -1.76964E+04 -1.10412E+04
 -8.86794E+03 -1.49081E+04 -1.28476E+03 -1.97990E+04  8.61726E+03 -2.33496E+04  1.43208E+04 -1.29377E+04
  1.02326E+04  6.52122E+03 -9.01327E+03  1.30454E+04 -2.30704E+04 -5.09484E+03 -8.79525E+03 -3.50839E+04
  2.30099E+04 -4.48628E+04  4.96397E+04 -2.01154E+04  4.66298E+04  1.96544E+04  1.77926E+04  4.49913E+04
 -1.62486E+04  3.52422E+04 -2.59275E+04  2.89501E+03 -1.08570E+04 -2.86962E+04  2.21947E+04 -3.51121E+04
  4.37044E+04 -1.03516E+04  3.80485E+04  2.36315E+04  1.83372E+04  4.88865E+04 -8.86858E+03  5.36488E+04
 -3.18712E+04  3.65030E+04 -4.35637E+04  1.06950E+04 -4.48224E+04 -1.75499E+04 -2.51194E+04 -3.98812E+04
  7.55341E+03 -3.98823E+04  3.20847E+04 -1.44941E+04  3.19091E+04  1.07636E+04  5.70155E+03  1.91866E+04
 -1.33545E+04  8.89186E+03 -1.10167E+04 -7.74897E+03  5.09910E+03 -9.55354E+03  1.83987E+04  5.74842E+03
  1.39942E+04  2.19465E+04 -4.86367E+03  2.77755E+04 -2.30044E+04  1.27967E+04 -2.82571E+04 -4.16474E+03
 -2.22510E+04 -1.76089E+04 -1.06584E+04 -2.27208E+04  2.87347E+03 -2.19811E+04  1.80191E+04 -1.98875E+04
  2.93412E+04 -1.35585E+04  3.53193E+04  4.28051E+03  2.61031E+04  2.10810E+04  5.66684E+03  4.05750E+04
 -1.87704E+04  3.29263E+04 -2.95685E+04  1.03599E+04 -2.10400E+04 -1.11412E+04 -4.23997E+03 -1.35190E+04
  1.74791E+03 -1.32868E+03 -6.06460E+03  6.71321E+03 -1.72637E+04  4.88057E+03 -1.74513E+04 -7.98587E+03
 -1.27789E+04 -2.05481E+04  5.44601E+03 -2.47522E+04  1.54062E+04 -1.79358E+04  2.10579E+04 -2.08179E+03
  1.27571E+04  1.38927E+04 -1.90566E+03  1.99528E+04 -1.46479E+04  1.20772E+04 -2.06906E+04 -6.04446E+03
 -1.61600E+04 -1.87037E+04 -2.28574E+03 -2.56680E+04  1.19769E+04 -2.11153E+04  2.06111E+04 -9.19159E+03
  2.07571E+04 -3.86178E+02  1.52387E+04  4.91696E+03  8.52870E+03  1.91642E+03  1.16480E+04 -1.79277E+03
  1.96245E+04  2.58472E+03  2.16847E+04  1.70130E+04  1.47240E+04  3.39106E+04 -3.58125E+03  3.77203E+04
 -2.21222E+04  3.15863E+04 -3.73846E+04  1.61683E+04 -3.77085E+04 -1.92483E+03 -3.19834E+04 -2.21808E+04
 -1.33331E+04 -3.04202E+04  1.11590E+04 -2.82294E+04  2.36469E+04 -1.47962E+04  2.18761E+04  6.80312E+03
  8.41611E+03  1.75234E+04 -1.03421E+04  1.31795E+04 -1.79777E+04  2.75155E+03 -1.41855E+04 -1.01719E+04
  1.03714E+03 -1.66121E+04  9.01602E+03 -1.31482E+04  1.13213E+04 -3.27037E+03  2.52620E+03  7.82821E+03
 -7.83783E+03  3.00896E+03 -7.25863E+03 -7.97845E+03 -1.21079E+03 -1.52878E+04  9.83441E+03 -1.62697E+04
  2.03970E+04 -8.85337E+03  2.14187E+04  3.64428E+03  1.85910E+04  1.49469E+04  9.27982E+03  2.39769E+04
 -3.58849E+03  2.61724E+04 -1.70658E+04  1.51568E+04 -1.86571E+04  2.91648E+03 -1.35904E+04 -2.89518E+03
 -5.94424E+03 -5.74432E+03 -1.24485E+03  8.08523E+02 -1.41255E+03  3.76314E+03 -5.70797E+03  6.21920E+03
 -1.13470E+04 -2.24507E+03 -1.29593E+04 -1.04904E+04 -4.70786E+03 -1.69267E+04  4.79740E+03 -1.38796E+04
  9.10639E+03 -5.36534E+03  7.92832E+03  1.58949E+03 -1.33357E+02  4.69590E+03 -6.86798E+03 -1.51889E+03
 -5.08859E+03 -9.03316E+03 -8.64911E+02 -1.20653E+04  7.70847E+03 -1.42181E+04  1.66861E+04 -6.91661E+03
  2.03603E+04  4.67310E+02  1.38784E+04  1.21119E+04  3.14819E+03  1.51369E+04 -7.64123E+03  1.22279E+04
 -9.47163E+03  3.89378E+03 -5.41181E+03 -3.82942E+03  1.85336E+03 -4.36211E+03  6.11220E+03 -1.76238E+03
  5.17134E+03  6.74653E+03  1.96967E+02  9.20922E+03 -7.07931E+03  8.44063E+03 -1.26323E+04  1.92505E+03
 -7.45758E+03 -5.73372E+03  6.17496E+02 -1.05761E+04  6.88848E+03 -3.92573E+03  7.78418E+03  2.40404E+03
  1.18224E+03  7.88691E+03 -7.66526E+03  8.75162E+03 -1.03139E+04  5.59629E+03 -9.50315E+03 -5.17599E+03
 -5.45478E+03 -1.12962E+04  3.22995E+03 -1.14885E+04  1.07291E+04 -7.78163E+03  1.36782E+04  2.55768E+03
  7.91152E+03  9.16112E+03 -2.03132E+02  1.26820E+04 -9.85593E+03  6.20906E+03 -9.63545E+03 -7.08068E+02
 -8.95026E+03 -9.34526E+03 -1.56347E+03 -9.58841E+03  4.94029E+03 -6.98522E+03  6.15249E+03 -3.22403E+03
  3.97504E+03  1.86663E+03 -9.30320E+02  1.36003E+03 -1.75837E+02 -1.91263E+03  2.47603E+03 -4.50175E+03
  1.08843E+04 -2.36521E+03  1.17796E+04  1.07224E+03  1.08899E+04  8.55278E+03  8.72902E+03  1.54243E+04
 -4.84751E+03  1.76444E+04 -1.39338E+04  1.18418E+04 -1.78761E+04  3.28738E+03 -1.42593E+04 -7.38877E+03
 -7.01672E+03 -1.27492E+04 -1.69107E+03 -1.05786E+04  3.16994E+03 -7.33314E+03  2.08487E+03 -4.06978E+03
  2.21588E+03 -2.22544E+03  1.93343E+03 -3.54971E+03  3.33987E+03 -2.37142E+03  5.60160E+03 -7.24321E+02
  8.17273E+03  1.39698E+03  4.42205E+03  6.75977E+03 -1.12136E+03  7.86052E+03 -7.91115E+03  5.00266E+03
 -1.10110E+04 -1.94485E+03 -5.40416E+03 -7.84904E+03  6.22021E+02 -1.03612E+04  6.05723E+03 -1.13870E+04
  1.17033E+04 -6.24471E+03  1.41725E+04  1.21247E+03  1.03937E+04  9.38059E+03  2.07536E+03  1.28311E+04
 -3.84548E+03  1.09244E+04 -7.47681E+03  3.32627E+03 -4.52785E+03 -5.70772E+02 -1.00253E+03 -1.85463E+03
 -1.62498E+03  1.76287E+02 -2.00677E+03  3.32716E+03 -3.83838E+03  2.03109E+03 -7.49291E+03 -1.39454E+03
 -4.39774E+03 -6.25500E+03  7.14976E+02 -9.56704E+03  7.31135E+03 -8.62268E+03  8.28555E+03 -2.65014E+03
  8.38121E+03  5.29741E+03  3.16163E+03  8.59564E+03 -2.55236E+03  9.26236E+03 -7.24480E+03  6.06856E+03
 -8.35076E+03  1.02445E+03 -7.38300E+03 -5.73338E+03  2.23221E+02 -6.42599E+03  4.93607E+03 -5.00574E+03
  5.42647E+03 -2.06136E+03  2.99146E+03  8.63981E+02  1.07684E+02  2.50055E+03  1.19500E+03  1.13428E+03
  1.07635E+03  8.42263E+02  3.10690E+03  1.36717E+03  2.40266E+03  4.18359E+03  2.23297E+03  4.28129E+03
 -6.75477E+02  8.29502E+03 -6.96326E+03  8.44429E+03 -9.59604E+03  1.81571E+03 -9.40601E+03 -2.45589E+03
 -5.16082E+03 -9.85189E+03  1.12939E+03 -9.63461E+03  6.05746E+03 -6.51654E+03  8.35795E+03 -2.72221E+03
  4.34351E+03  4.41420E+03  9.82782E+02  6.29325E+03 -1.71246E+03  3.30270E+03 -3.80930E+03 -1.35974E+03
 -1.87001E+03 -4.70734E+03  3.31675E+03 -3.51152E+03  5.23078E+03 -1.67567E+03  3.31633E+03  2.02938E+03
  3.13277E+03  1.92911E+03  6.36082E+02  1.91805E+03 -1.43790E+03  1.15577E+03  2.37969E+03  7.77076E+02
  2.12993E+03 -1.33589E+03  4.38369E+03  6.99938E+02  2.26255E+03  5.82328E+03 -2.92873E+02  6.70044E+03
 -4.20080E+03  4.51150E+03 -5.63641E+03  2.92690E+03 -5.60705E+03 -1.34486E+03 -1.99190E+03 -3.16116E+03
  7.29625E+02 -3.11798E+03  2.17358E+03 -2.24987E+03  2.37130E+03  2.24123E+03 -8.11062E+02  3.54732E+03
 -2.47755E+03  8.36075E+02 -4.32998E+03 -2.05502E+03 -2.96774E+03 -5.62352E+03  9.05813E+02 -5.73794E+03
  2.43889E+03 -1.73982E+03  2.15291E+03  5.33122E+02  3.92678E+03  1.13353E+03 -1.18229E+02  3.08536E+03
 -1.82910E+03  1.63819E+03 -1.47671E+03 -1.04250E+03  1.16566E+03 -2.96272E+03  3.21580E+03 -2.86896E+03
  4.85191E+03 -1.26668E+03  5.87183E+03  4.15720E+03  2.38852E+03  4.80764E+03 -1.63379E+03  5.79995E+03
 -4.13800E+03  1.50651E+03 -4.52008E+03 -4.33218E+02 -2.63282E+03 -3.33490E+03  5.33165E+02 -2.40913E+03
  4.01919E+03 -2.20310E+03  3.11312E+03  9.68464E+02  1.05213E+03  4.29960E+03  1.25349E+03  2.38408E+03
 -1.23996E+03  2.04176E+03 -2.28327E+03  2.06413E+03 -3.69820E+02 -5.76559E+01 -9.62362E+02  1.25079E+03
 -1.46483E+03  2.27095E+03 -3.97863E+03  5.48287E+02 -5.41514E+03 -9.73344E+02 -6.70027E+03 -3.86461E+03
 -3.17896E+03 -7.83431E+03  7.97203E+02 -8.86883E+03  4.46168E+03 -5.92383E+03  7.93354E+03 -2.66427E+03
  6.31927E+03  8.57115E+02  4.54077E+03  5.72442E+03  7.17260E+02  5.59883E+03 -2.48996E+03  5.51506E+03
 -3.47988E+03  2.18147E+03 -1.66316E+03 -1.37100E+03 -2.45074E+03 -1.40669E+02 -8.42129E+02 -4.34678E+02
 -1.48584E+03  2.22838E+01 -1.30285E+03  1.08951E+03 -1.33162E+03 -1.58618E+03 -1.59119E+02 -1.50566E+03
  2.23748E+03 -1.98760E+03  3.56812E+03 -7.91263E+02  3.99764E+03  3.63246E+03  7.29014E+02  4.49298E+03
 -2.46180E+03  6.57625E+03 -5.00289E+03  4.30415E+03 -5.61825E+03 -5.99000E+02 -3.69277E+03 -3.49959E+03
 -2.91362E+03 -5.38743E+03  1.86324E+02 -5.20758E+03  2.56746E+03 -1.29853E+03  3.00059E+03  9.23214E+02
  3.26114E+03  5.49296E+02  2.46919E+02  3.00150E+02  4.38601E+02 -1.52315E+03  2.38386E+02 -1.01635E+03
  2.24288E+03 -1.93989E+03  1.92371E+03 -3.72133E+02  1.15387E+03  2.30108E+03 -1.13634E+03  2.77762E+03
 -2.39981E+03  2.61207E+03 -3.34884E+03  9.96168E+02 -2.14204E+03 -2.42429E+03  5.38280E+01 -4.45651E+03
  3.45371E+03 -3.47509E+03  3.78127E+03  1.86760E+02  4.01646E+03  1.66581E+03  9.96278E+02  3.74543E+03
 -1.09254E+02  3.42926E+03 -3.73186E+02  2.79736E+03 -1.40644E+03  1.37842E+03 -9.34889E+02  1.45263E+01
 -3.02320E+02  3.05391E+01 -1.20687E+03  7.59630E+02 -1.44060E+03  3.22461E+02 -1.52414E+03 -1.93523E+03
 -1.90665E+03 -1.49279E+03 -1.03126E+03 -3.10665E+03  1.94521E+03 -3.05707E+03  4.23127E+03 -4.64682E+02
  3.30663E+03 -2.37766E+02  1.32244E+02  2.66749E+03  6.38520E+01  3.72650E+03 -1.95892E+03  2.80779E+03
