 $NMID ID='MM_0lb_SNR200_9hz_g55_93.RAW', FMTDAT='(8E13.5)'
 TRAMP=1., VOLUME=1. $END
  3.09686E+05  5.14714E+02  3.37055E+05  2.49941E+05  8.59887E+04  3.39600E+05 -1.32783E+05  2.51693E+05
 -1.88476E+05  8.16882E+04 -1.12115E+05 -3.23052E+04  1.07174E+03 -5.20879E+04  5.37955E+04  8.76466E+02
  3.54801E+04  5.10787E+04 -1.66812E+04  7.75053E+04 -6.06848E+04  6.38996E+04 -8.60563E+04  3.32329E+04
 -8.26768E+04 -1.19523E+04 -5.92578E+04 -5.17741E+04 -1.39866E+04 -7.12835E+04  2.88184E+04 -4.75691E+04
  4.13770E+04  4.13216E+03  1.60531E+04  4.83126E+04 -3.47809E+04  4.80961E+04 -6.93360E+04 -2.08272E+02
 -5.52499E+04 -5.87077E+04 -8.86513E+03 -7.96149E+04  3.31836E+04 -5.74504E+04  5.01610E+04 -1.78552E+04
  4.41806E+04  1.01651E+04  3.40364E+04  2.63004E+04  1.74872E+04  3.04318E+04 -6.39896E+03  2.85203E+04
 -2.13713E+04  1.25349E+04 -1.75484E+04 -7.21304E+03  6.12361E+03 -6.97599E+03  2.33766E+04  1.28568E+04
  6.86202E+03  3.84219E+04 -3.46956E+04  3.88893E+04 -6.69269E+04  2.51871E+03 -5.77376E+04 -4.39593E+04
 -1.27991E+04 -6.61928E+04  4.16289E+04 -4.80407E+04  6.07253E+04 -1.77504E+03  3.74654E+04  3.40095E+04
 -6.17529E+03  4.04653E+04 -3.32405E+04  1.82755E+04 -3.36892E+04 -2.84626E+03 -2.05199E+04 -1.19528E+04
 -9.92556E+03 -1.72958E+04 -2.33382E+02 -2.07125E+04  7.70655E+03 -2.50137E+04  1.50120E+04 -1.29719E+04
  9.03327E+03  4.42150E+03 -1.05676E+04  1.32441E+04 -2.42965E+04 -6.34031E+03 -9.10995E+03 -3.74067E+04
  2.58806E+04 -4.79178E+04  5.16542E+04 -2.17568E+04  4.94259E+04  1.92765E+04  1.68054E+04  4.72786E+04
 -1.55537E+04  3.75908E+04 -2.74526E+04  1.84973E+03 -1.13299E+04 -2.84386E+04  1.98037E+04 -3.67633E+04
  4.53803E+04 -1.24074E+04  4.18751E+04  2.38272E+04  2.19215E+04  5.23403E+04 -7.13111E+03  5.66135E+04
 -3.63932E+04  3.93145E+04 -4.89570E+04  1.14935E+04 -4.57650E+04 -1.88778E+04 -2.77785E+04 -4.29929E+04
  6.28651E+03 -4.34892E+04  3.48273E+04 -1.95383E+04  3.27348E+04  1.29269E+04  4.43112E+03  2.19439E+04
 -1.21732E+04  9.30717E+03 -1.15256E+04 -8.73377E+03  6.03859E+03 -1.22572E+04  1.76602E+04  6.97482E+03
  1.40290E+04  2.18557E+04 -5.69293E+03  2.76641E+04 -2.34318E+04  1.48977E+04 -3.11532E+04 -1.62799E+03
 -2.70152E+04 -1.85003E+04 -1.27671E+04 -2.55304E+04  4.87614E+03 -2.66172E+04  1.96244E+04 -2.32187E+04
  3.31272E+04 -1.50044E+04  3.81312E+04  5.10102E+03  2.74663E+04  2.43735E+04  5.83931E+03  4.07979E+04
 -1.96394E+04  3.41786E+04 -3.18935E+04  1.13754E+04 -2.28750E+04 -9.88538E+03 -4.49824E+03 -1.23234E+04
 -2.94683E+02  1.01301E+02 -6.89049E+03  8.46423E+03 -1.88484E+04  6.06980E+03 -2.08301E+04 -9.69069E+03
 -1.28725E+04 -2.48551E+04  6.91458E+03 -2.79393E+04  1.99071E+04 -1.94894E+04  2.35720E+04 -5.38306E+02
  1.40196E+04  1.74103E+04 -6.01313E+02  2.46237E+04 -1.73727E+04  1.40269E+04 -2.45004E+04 -5.90213E+03
 -1.77705E+04 -2.22669E+04 -3.09235E+03 -2.87087E+04  1.21794E+04 -2.27268E+04  2.22389E+04 -1.28600E+04
  2.22804E+04 -9.17977E+02  1.79549E+04  5.51115E+03  8.62604E+03  1.17262E+03  1.24087E+04 -1.86102E+03
  2.23841E+04  3.64913E+03  2.72029E+04  1.78050E+04  1.81317E+04  3.93575E+04 -4.66637E+03  4.34790E+04
 -2.69120E+04  3.68011E+04 -4.30788E+04  1.89234E+04 -4.61966E+04 -4.21877E+03 -3.95522E+04 -2.63767E+04
 -1.59557E+04 -3.91613E+04  1.40802E+04 -3.32244E+04  2.82286E+04 -1.56216E+04  2.50001E+04  5.93211E+03
  8.72868E+03  2.11649E+04 -1.18255E+04  1.66416E+04 -1.91855E+04  3.70466E+03 -1.57600E+04 -1.32680E+04
 -3.88921E+02 -1.89257E+04  1.09311E+04 -1.51638E+04  1.15432E+04 -3.70490E+01  4.69862E+03  9.77511E+03
 -8.67524E+03  3.56184E+03 -7.12395E+03 -7.18610E+03 -2.10893E+03 -1.90803E+04  1.21119E+04 -1.98554E+04
  2.35130E+04 -1.12854E+04  2.77927E+04  2.82050E+03  2.41945E+04  1.79258E+04  1.02247E+04  2.83861E+04
 -5.67070E+03  3.20295E+04 -2.00412E+04  2.08373E+04 -2.49655E+04  4.52821E+03 -1.38568E+04 -5.54560E+03
 -6.03109E+03 -6.69822E+03  8.65922E+02 -1.39364E+03 -1.31317E+03  2.77567E+03 -7.92506E+03  2.97017E+03
 -1.53589E+04 -5.70753E+02 -1.49630E+04 -1.36511E+04 -6.96065E+03 -1.99314E+04  6.69179E+03 -1.66053E+04
  1.40809E+04 -6.32376E+03  1.19331E+04  4.91279E+03  5.89966E+01  7.14376E+03 -8.20735E+03 -1.79248E+03
 -8.14426E+03 -8.25089E+03 -2.35018E+03 -1.62998E+04  9.14523E+03 -1.81849E+04  1.98576E+04 -8.78005E+03
  2.53224E+04  2.22000E+03  1.83260E+04  1.41383E+04  1.93773E+03  1.81371E+04 -8.77491E+03  1.30620E+04
 -1.31324E+04  2.76152E+03 -6.62590E+03 -2.44652E+03  4.28681E+02 -4.52520E+03  9.20374E+03 -8.55099E+02
  7.28046E+03  6.09338E+03  2.11855E+03  1.41134E+04 -8.38038E+03  1.13847E+04 -1.75020E+04  3.62560E+03
 -1.11546E+04 -8.09956E+03  3.77294E+02 -1.43035E+04  9.41114E+03 -7.12686E+03  8.25481E+03  2.34221E+03
  2.46746E+03  1.05026E+04 -8.34026E+03  1.37770E+04 -1.32297E+04  5.96715E+03 -1.45154E+04 -4.69338E+03
 -5.94963E+03 -1.66196E+04  2.50288E+03 -1.89238E+04  1.64673E+04 -1.01991E+04  1.83746E+04  3.39287E+03
  9.40252E+03  1.34782E+04 -3.64106E+03  1.64578E+04 -1.31376E+04  8.16754E+03 -1.24069E+04 -1.44966E+03
 -9.82515E+03 -1.04024E+04 -1.28061E+03 -1.10299E+04  6.37642E+03 -9.73027E+03  8.33115E+03 -3.28539E+03
  4.96316E+03  2.46582E+03 -1.91222E+03  2.26263E+03 -8.05909E+02 -3.81181E+03  2.99696E+03 -7.85005E+03
  1.17958E+04 -4.98006E+03  1.70630E+04  3.37693E+03  1.56103E+04  1.24352E+04  9.31683E+03  2.17557E+04
 -4.64088E+03  2.47139E+04 -2.21297E+04  1.75856E+04 -2.61769E+04  4.62754E+03 -2.14180E+04 -9.00805E+03
 -1.11241E+04 -1.69991E+04  2.61043E+02 -1.42871E+04  6.31794E+03 -9.20142E+03  6.36255E+03 -3.66701E+03
  4.49341E+03 -2.84170E+03  5.11310E+03 -3.98787E+03  6.90506E+03 -1.41347E+03  8.11250E+03 -1.36187E+03
  1.28756E+04  2.79964E+03  5.60204E+03  1.04250E+04 -3.22895E+03  1.31687E+04 -1.10495E+04  9.29861E+03
 -1.67615E+04 -6.22733E+02 -9.72656E+03 -1.03955E+04 -5.47294E+02 -1.63836E+04  7.97553E+03 -1.64263E+04
  1.66735E+04 -9.78906E+03  1.99842E+04  1.43752E+03  1.30746E+04  1.56722E+04  2.69312E+03  1.98719E+04
 -6.83340E+03  1.54714E+04 -1.19334E+04  6.57759E+03 -8.41277E+03 -2.35574E+03 -4.16983E+03 -3.27398E+03
 -2.05797E+03 -4.93386E+02 -3.01756E+03  2.50651E+03 -5.57782E+03  3.15228E+03 -1.04516E+04 -5.65368E+02
 -8.52424E+03 -1.08952E+04 -5.48014E+02 -1.51112E+04  8.63966E+03 -1.48751E+04  1.53008E+04 -5.19109E+03
  1.65539E+04  6.49181E+03  8.01045E+03  1.45967E+04 -3.48332E+03  1.53773E+04 -1.20013E+04  1.13617E+04
 -1.37388E+04  1.37668E+03 -1.05659E+04 -9.53187E+03  2.92122E+02 -1.28855E+04  5.90316E+03 -1.10218E+04
  9.81515E+03 -2.66874E+03  6.97876E+03  3.07515E+03  1.85873E+03  2.91992E+03  1.46989E+03  1.84901E+03
  3.34808E+03  1.44739E+03  4.37297E+03  6.36467E+02  4.19213E+03  4.66651E+03  5.19516E+03  7.70164E+03
 -2.48944E+03  1.21636E+04 -9.93309E+03  1.08243E+04 -1.47380E+04  3.21750E+03 -1.71688E+04 -6.52618E+03
 -7.52744E+03 -1.51509E+04  3.45079E+03 -1.67219E+04  9.83520E+03 -1.05044E+04  1.29591E+04 -3.91539E+03
  1.07098E+04  4.47870E+03  1.44511E+03  8.16399E+03 -3.88386E+03  5.45575E+03 -7.68659E+03 -1.08025E+03
 -3.88260E+03 -7.43850E+03  5.50995E+03 -7.01702E+03  5.41876E+03 -3.45116E+03  5.75666E+03  1.46066E+03
  2.54512E+03  1.46870E+03  3.22559E+03  3.64879E+03 -1.18444E+03  1.73158E+03  2.40347E+03 -1.83615E+03
  3.51502E+03 -1.27301E+03  7.60566E+03  1.87939E+03  4.91832E+03  8.13393E+03 -2.43737E+03  1.14015E+04
 -7.14362E+03  7.71521E+03 -9.52467E+03  2.87456E+03 -9.16030E+03 -1.49721E+03 -3.99304E+03 -6.84301E+03
 -2.78132E+02 -6.40254E+03  3.28724E+03 -4.11066E+03  4.19063E+03  2.79589E+03 -2.41015E+03  5.52953E+03
 -6.57457E+03  2.40567E+03 -7.59313E+03 -2.80295E+03 -4.92988E+03 -8.60892E+03  1.85196E+03 -1.01676E+04
  4.17845E+03 -5.06130E+03  5.28526E+03 -1.64945E+03  5.53600E+03  2.44714E+03  1.45634E+03  4.05767E+03
 -4.34479E+03  1.38944E+03 -4.51930E+03 -1.11322E+03 -1.24201E+02 -6.43782E+03  6.52040E+03 -7.16234E+03
  9.82720E+03  1.23139E+03  8.51954E+03  5.98650E+03  2.85505E+03  1.13583E+04 -2.24145E+03  1.04054E+04
 -7.50382E+03  4.93205E+03 -9.33405E+03 -1.37898E+03 -4.18017E+03 -6.64509E+03  9.99877E+01 -5.88112E+03
  6.33110E+03 -3.89722E+03  7.25607E+03  2.63434E+03  1.47707E+03  4.44177E+03  3.09923E+02  5.12464E+03
 -2.77810E+03  3.75559E+03 -2.45602E+03  8.93566E+02 -5.87905E+02  1.99380E+03 -1.51772E+03  3.78579E+03
 -2.72794E+03  2.17329E+03 -7.44060E+03  2.53597E+03 -1.05004E+04 -1.58786E+02 -1.21879E+04 -6.75574E+03
 -6.28012E+03 -1.44898E+04  3.24797E+03 -1.58686E+04  8.58252E+03 -1.14593E+04  1.45793E+04 -4.28516E+03
  1.42953E+04  3.58803E+03  9.30395E+03  1.07827E+04 -7.14322E+02  1.02183E+04 -3.86924E+03  8.53190E+03
 -5.19034E+03  2.81881E+03 -2.77228E+03 -1.70342E+03 -4.74225E+02 -1.90170E+03 -1.66910E+03 -2.36460E+02
 -2.61869E+03  1.73748E+03 -2.83402E+03 -2.07813E+02 -6.05797E+02 -4.27387E+03  1.36109E+03 -2.70094E+03
  3.02109E+03 -3.20058E+03  6.10677E+03 -3.97688E+02  8.27132E+03  5.91071E+03  3.82561E+03  1.03508E+04
 -3.66621E+03  1.27738E+04 -1.24813E+04  5.13144E+03 -1.24735E+04 -1.58016E+03 -8.71958E+03 -8.67095E+03
 -3.35796E+03 -1.20889E+04  2.80345E+03 -9.41845E+03  6.78306E+03 -6.50295E+03  7.97775E+03  1.52708E+03
  3.58745E+03  4.76072E+03  1.42498E+02  5.19965E+03 -6.51750E+02 -1.04928E+03 -1.37995E+03 -3.80061E+03
  2.96656E+03 -2.06457E+03  3.09613E+03  1.37380E+03  2.36930E+03  5.35857E+03 -4.57096E+01  5.76791E+03
 -2.80872E+03  5.07021E+03 -8.81290E+03  3.54090E+01 -4.54226E+03 -4.56996E+03 -2.55745E+03 -8.66531E+03
  5.83787E+03 -8.95306E+03  8.56642E+03 -2.13750E+03  9.79185E+03  1.94840E+03  4.92634E+03  6.35503E+03
  8.15202E+02  6.62526E+03 -2.50208E+03  5.52528E+03 -3.90653E+03  2.00978E+03 -5.52298E+03  2.98968E+02
 -2.61767E+03  1.73176E+01 -3.39217E+03  2.01877E+01 -4.64188E+03  1.62816E+03 -7.08466E+03 -1.63042E+02
 -6.22746E+03 -3.68232E+03 -5.46114E+02 -7.96115E+03  3.56003E+03 -5.99301E+03  7.37712E+03 -2.58655E+03
  6.68783E+03  1.39618E+03  4.21908E+03  6.21654E+03 -9.43250E+02  7.24554E+03 -5.89445E+03  3.43159E+03
