 $NMID ID='MM_0lb_SNR200_12hz_g45_83.RAW', FMTDAT='(8E13.5)'
 TRAMP=1., VOLUME=1. $END
  3.09699E+05  2.01780E+02  3.38473E+05  2.49743E+05  8.59147E+04  3.37140E+05 -1.32833E+05  2.50955E+05
 -1.91368E+05  8.40829E+04 -1.12405E+05 -3.24723E+04  8.68885E+02 -5.02402E+04  5.41280E+04 -1.60934E+02
  3.64908E+04  5.35967E+04 -1.59496E+04  7.46142E+04 -5.99307E+04  6.34466E+04 -8.42254E+04  3.20192E+04
 -8.02520E+04 -1.25126E+04 -5.87954E+04 -5.24458E+04 -1.60576E+04 -7.05501E+04  2.69564E+04 -4.55423E+04
  4.08361E+04  3.10721E+03  1.54853E+04  4.85748E+04 -3.35574E+04  4.72205E+04 -6.71678E+04  8.63786E+02
 -5.30508E+04 -5.66545E+04 -6.96604E+03 -7.64785E+04  3.46470E+04 -5.57326E+04  4.89658E+04 -1.84219E+04
  4.43735E+04  1.19385E+04  3.20385E+04  2.58876E+04  1.63247E+04  2.88405E+04 -5.14706E+03  2.69613E+04
 -2.17497E+04  1.31188E+04 -1.87427E+04 -4.94602E+03  5.65255E+03 -5.94075E+03  2.27374E+04  1.36451E+04
  8.28285E+03  3.66184E+04 -3.23433E+04  3.58602E+04 -6.40012E+04  2.20136E+03 -5.76277E+04 -4.23299E+04
 -1.21578E+04 -6.48948E+04  3.97235E+04 -4.61570E+04  5.92283E+04 -8.46928E+02  3.61577E+04  3.24555E+04
 -5.51620E+03  3.63513E+04 -3.10680E+04  1.58152E+04 -3.17174E+04 -4.70154E+03 -1.78525E+04 -1.02810E+04
 -8.18702E+03 -1.28243E+04 -7.26522E+01 -1.79478E+04  7.25433E+03 -2.26795E+04  1.45827E+04 -1.36101E+04
  1.18698E+04  6.30938E+03 -8.53835E+03  1.34349E+04 -2.21069E+04 -4.80261E+03 -8.04919E+03 -3.45967E+04
  2.38286E+04 -4.49109E+04  5.01426E+04 -2.05665E+04  4.57988E+04  1.96670E+04  1.67274E+04  4.48859E+04
 -1.64303E+04  3.40543E+04 -2.56922E+04  2.35869E+03 -1.11606E+04 -2.89622E+04  2.26371E+04 -3.48413E+04
  4.22207E+04 -9.62993E+03  3.59942E+04  2.34516E+04  1.84800E+04  4.90786E+04 -8.09399E+03  5.11906E+04
 -3.41542E+04  3.45576E+04 -4.37583E+04  1.06461E+04 -4.43232E+04 -1.71335E+04 -2.48739E+04 -3.86644E+04
  8.78074E+03 -3.83187E+04  3.12322E+04 -1.56239E+04  2.96617E+04  1.10871E+04  4.53039E+03  1.98780E+04
 -1.27309E+04  8.65525E+03 -1.02716E+04 -7.60234E+03  6.25951E+03 -1.09029E+04  1.83219E+04  5.57215E+03
  1.40321E+04  2.24326E+04 -5.75217E+03  2.59412E+04 -2.30447E+04  1.26318E+04 -2.80852E+04 -4.89943E+03
 -2.25952E+04 -1.91645E+04 -8.84929E+03 -2.14261E+04  4.89464E+03 -2.15961E+04  1.64860E+04 -1.93725E+04
  2.85452E+04 -1.33984E+04  3.37188E+04  1.36674E+03  2.45696E+04  2.13184E+04  4.45245E+03  3.81460E+04
 -1.73525E+04  3.20159E+04 -3.01474E+04  1.16491E+04 -2.07687E+04 -9.82531E+03 -3.27799E+03 -1.26689E+04
  1.74240E+03 -3.21693E+03 -6.40788E+03  6.45598E+03 -1.68933E+04  4.51231E+03 -1.80241E+04 -8.76017E+03
 -8.73867E+03 -2.04907E+04  5.23058E+03 -2.48127E+04  1.51790E+04 -1.77799E+04  1.85394E+04 -2.06576E+03
  1.19546E+04  1.39811E+04 -2.51538E+03  2.09406E+04 -1.36284E+04  1.02486E+04 -2.12060E+04 -5.68286E+03
 -1.51246E+04 -1.94860E+04 -1.77316E+03 -2.43843E+04  9.91245E+03 -2.08014E+04  2.04536E+04 -1.14888E+04
  1.89321E+04 -1.67014E+02  1.36262E+04  5.12632E+03  7.38687E+03  1.20235E+03  1.22869E+04 -9.22437E+02
  1.73714E+04  1.69331E+03  2.11579E+04  1.61615E+04  1.34100E+04  3.24528E+04 -3.58899E+03  3.66591E+04
 -2.04437E+04  3.03027E+04 -3.50115E+04  1.52052E+04 -3.69788E+04 -2.69961E+03 -3.09662E+04 -2.10308E+04
 -1.30585E+04 -3.04662E+04  9.88107E+03 -2.74459E+04  2.41792E+04 -1.28662E+04  2.07336E+04  6.18141E+03
  7.78442E+03  1.50831E+04 -9.51803E+03  1.35923E+04 -1.62409E+04  2.15467E+03 -1.33153E+04 -1.14485E+04
  7.23712E+02 -1.70154E+04  8.74756E+03 -1.15369E+04  1.14489E+04 -7.03180E+02  1.52727E+03  6.52640E+03
 -8.08088E+03  3.08235E+03 -6.52019E+03 -7.10362E+03 -4.83958E+02 -1.42314E+04  9.74213E+03 -1.60256E+04
  1.85703E+04 -9.26808E+03  2.10884E+04  2.71873E+03  1.75679E+04  1.72260E+04  8.18770E+03  2.28415E+04
 -4.07604E+03  2.49064E+04 -1.56740E+04  1.56147E+04 -1.73203E+04  4.59836E+03 -1.21765E+04 -4.80608E+03
 -4.24399E+03 -5.51368E+03  6.17457E+01  1.16642E+03 -1.78882E+03  3.36216E+03 -6.29440E+03  5.33791E+03
 -1.19286E+04 -6.12059E+02 -1.24956E+04 -9.81126E+03 -5.15392E+03 -1.75626E+04  5.67385E+03 -1.17258E+04
  1.03005E+04 -5.51280E+03  7.74775E+03  3.65392E+03 -4.42868E+02  4.59855E+03 -5.87319E+03 -1.38685E+03
 -5.41101E+03 -7.96486E+03 -8.80445E+02 -1.20339E+04  5.14623E+03 -1.32927E+04  1.56327E+04 -6.92407E+03
  1.82760E+04  6.33512E+02  1.37359E+04  9.50444E+03  3.22236E+03  1.43985E+04 -8.61421E+03  1.19204E+04
 -1.04697E+04  3.93795E+03 -5.65389E+03 -3.01885E+03  2.24302E+03 -3.26798E+03  7.16649E+03 -2.26537E+03
  6.59263E+03  5.44180E+03  1.77020E+03  9.60146E+03 -7.99075E+03  9.65734E+03 -1.29322E+04  2.92063E+03
 -8.46629E+03 -4.38365E+03  5.08563E+02 -9.65944E+03  6.78161E+03 -5.33723E+03  7.46555E+03  2.12328E+03
  1.71512E+03  7.69795E+03 -6.22500E+03  8.69052E+03 -1.00923E+04  4.97021E+03 -1.10139E+04 -3.98555E+03
 -4.31936E+03 -1.23770E+04  1.93904E+03 -1.36090E+04  1.11890E+04 -9.24802E+03  1.23186E+04  2.06866E+03
  7.21889E+03  9.80967E+03 -6.89930E+02  1.30479E+04 -8.72161E+03  7.05678E+03 -7.86046E+03 -5.53170E+02
 -8.39441E+03 -8.41512E+03  1.19613E+02 -1.01823E+04  5.95460E+03 -7.43976E+03  6.08574E+03 -3.93256E+03
  3.19694E+03  2.59166E+03 -3.56586E+02  1.75645E+03 -7.39886E+02 -1.09325E+03  2.26361E+02 -4.68799E+03
  7.90720E+03 -3.17811E+03  1.11968E+04  4.04182E+02  1.15887E+04  8.37907E+03  6.99331E+03  1.49343E+04
 -3.01224E+03  1.62393E+04 -1.45181E+04  1.34297E+04 -1.82969E+04  1.74848E+03 -1.66299E+04 -6.62060E+03
 -8.80436E+03 -1.28729E+04  1.73994E+02 -1.03775E+04  3.85023E+03 -5.32220E+03  3.44614E+03 -2.63371E+03
  2.43723E+03 -1.10947E+03  3.56616E+03 -2.86355E+03  3.48306E+03 -2.82391E+03  6.00206E+03 -9.24362E+02
  7.15611E+03  1.12041E+03  4.59569E+03  6.92337E+03 -1.99391E+03  7.87980E+03 -9.15015E+03  6.10360E+03
 -1.19598E+04 -1.54266E+03 -6.58864E+03 -7.71649E+03 -1.50852E+03 -1.09865E+04  5.29470E+03 -9.91148E+03
  1.09306E+04 -6.81666E+03  1.40102E+04  1.41444E+03  1.07811E+04  1.01489E+04  2.08468E+03  1.24566E+04
 -5.11877E+03  1.10973E+04 -7.16393E+03  3.47017E+03 -5.02737E+03 -4.90702E+02 -1.75196E+03 -2.78644E+03
 -1.23660E+03  5.85046E+02 -1.90878E+03  2.55342E+03 -2.37533E+03  1.59923E+03 -7.54229E+03 -1.94705E+03
 -5.27337E+03 -6.31823E+03  1.78334E+03 -8.57595E+03  5.22544E+03 -7.96274E+03  9.39257E+03 -2.96391E+03
  9.17735E+03  3.95556E+03  3.86831E+03  8.55279E+03 -1.34137E+03  9.20480E+03 -6.02316E+03  6.96031E+03
 -9.62753E+03  4.86929E+02 -6.49422E+03 -7.13514E+03 -5.52730E+02 -7.75303E+03  4.77737E+03 -6.15998E+03
  6.55109E+03 -1.90743E+03  3.91812E+03  2.05421E+03  6.78627E+02  2.36585E+03  3.01075E+02 -1.56125E+01
  2.87994E+03  7.05461E+02  2.34028E+03  7.02198E+02  3.16033E+03  3.74091E+03  3.42768E+03  5.59305E+03
 -2.31312E+03  7.43712E+03 -7.82813E+03  7.93116E+03 -7.66180E+03  8.12092E+02 -1.00068E+04 -3.07269E+03
 -5.40358E+03 -9.38213E+03  2.27189E+03 -1.02434E+04  5.24321E+03 -6.50388E+03  8.07429E+03 -1.85875E+03
  6.41516E+03  2.81311E+03  9.21404E+02  6.34909E+03 -3.22838E+03  2.60153E+03 -3.04971E+03 -6.72180E+02
 -7.30589E+02 -5.03868E+03  2.56102E+03 -3.84920E+03  3.03359E+03 -1.37888E+03  3.97775E+03  3.27459E+02
  1.85136E+03  1.31476E+03  9.43851E+02  1.20096E+03  2.96557E+02  1.89008E+03  2.53573E+03 -2.44149E+02
  7.84569E+02  5.69710E+01  4.54921E+03  1.70562E+03  8.82764E+02  4.94682E+03 -6.27824E+02  6.69888E+03
 -5.36749E+03  4.18451E+03 -5.53454E+03  4.68808E+02 -6.05294E+03 -1.72950E+03 -1.07840E+03 -2.79378E+03
 -6.05924E+02 -3.11829E+03  2.07464E+03 -9.30673E+02  2.08422E+03  1.67239E+03 -2.01968E+03  3.80260E+03
 -4.11479E+03  2.34907E+03 -3.95634E+03 -3.03886E+03 -2.19524E+03 -4.51900E+03 -6.76053E+01 -5.36319E+03
  3.51749E+03 -2.28628E+03  2.45611E+03 -8.67506E+02  3.75801E+03  1.00993E+03  4.10082E+02  3.48586E+03
 -2.38670E+03  1.42420E+03 -1.58222E+03 -2.10267E+03 -3.12006E+01 -3.60894E+03  3.69252E+03 -4.13630E+03
  4.02901E+03  5.29564E+02  5.06327E+03  2.85159E+03  1.19413E+03  5.98673E+03 -1.49576E+03  6.11915E+03
 -3.94942E+03  1.75610E+03 -5.01146E+03 -6.85428E+02 -2.33011E+03 -3.16892E+03  1.08812E+03 -3.37826E+03
  3.00830E+03 -2.44366E+03  2.98497E+03  8.62506E+02 -5.36782E+02  3.21448E+03  2.57874E+02  2.88317E+03
 -1.96194E+03  2.87397E+03 -1.91041E+03  5.46521E+02 -6.24783E+02  9.46649E+02 -1.46216E+03  1.89226E+03
 -1.73398E+03  2.51896E+03 -5.26007E+03  2.61497E+03 -6.78970E+03 -5.00659E+02 -5.99008E+03 -4.77081E+03
 -3.42891E+03 -7.71411E+03  1.86159E+03 -8.49507E+03  3.99587E+03 -6.33278E+03  7.02861E+03 -3.85181E+03
  7.22401E+03  1.38824E+03  5.13715E+03  4.00372E+03 -4.07457E+02  6.29265E+03 -2.60895E+03  5.01024E+03
 -2.85978E+03  2.92147E+03 -2.57606E+03 -9.16097E+02 -2.38183E+01 -5.32619E+02 -1.43099E+03  4.44007E+02
 -2.77042E+02  9.01391E+01 -1.51643E+03  1.63000E+02 -1.36619E+03 -1.82405E+03 -5.17335E+02 -3.63491E+03
  2.37110E+03 -2.37610E+03  3.14593E+03 -6.12224E+02  4.57945E+03  2.09622E+03  1.67845E+02  5.76325E+03
 -3.07368E+03  6.16887E+03 -7.02151E+03  4.48134E+03 -7.68808E+03 -1.58993E+03 -3.63997E+03 -5.17413E+03
 -2.52828E+03 -5.73478E+03  8.00162E+02 -4.80058E+03  3.98966E+03 -3.60311E+03  3.64263E+03 -6.68976E+00
  2.59414E+03  1.67235E+03 -1.38720E+03  2.19863E+03 -2.19973E+03  4.32479E+02 -1.48312E+03 -6.05843E+02
  1.06134E+03 -5.77055E+01  2.21440E+03  5.81814E+02 -6.52186E+02  3.21859E+03 -1.98087E+01  3.82319E+03
 -1.85747E+03  2.53965E+03 -3.19027E+03 -7.01202E+01 -3.79858E+03 -2.46359E+03  3.87255E+02 -6.65698E+03
  3.75864E+03 -4.18660E+03  4.63141E+03 -1.31409E+03  4.06403E+03  8.35400E+02  2.75063E+03  4.98709E+03
 -4.56862E+02  4.51264E+03 -3.14100E+02  3.25885E+03 -1.85461E+03  1.84319E+03 -2.07674E+03  3.71991E+02
  6.83611E+02 -5.42580E+02 -1.52372E+03  4.30140E+02 -1.98070E+03  1.59678E+03 -3.10484E+03  4.09320E+02
 -3.97067E+03 -2.05507E+03 -2.87587E+02 -4.51234E+03  2.96166E+03 -3.38294E+03  3.69642E+03 -9.57465E+02
  3.66769E+03  2.91281E+02  1.05381E+03  2.18087E+03 -8.78059E+02  5.41972E+03 -1.81889E+03  2.04999E+03
