 $NMID ID='MM_0lb_SNR200_14hz_g45_98.RAW', FMTDAT='(8E13.5)'
 TRAMP=1., VOLUME=1. $END
  3.09977E+05  9.43654E+02  3.36898E+05  2.49434E+05  8.41143E+04  3.36643E+05 -1.33694E+05  2.51521E+05
 -1.89689E+05  8.13935E+04 -1.11764E+05 -3.20548E+04  2.66949E+02 -5.03912E+04  5.44985E+04 -3.46614E+02
  3.51241E+04  5.28474E+04 -1.68284E+04  7.49394E+04 -6.11651E+04  6.30597E+04 -8.33264E+04  3.22613E+04
 -8.09298E+04 -1.08997E+04 -5.73572E+04 -5.14803E+04 -1.51556E+04 -6.81851E+04  2.78458E+04 -4.59753E+04
  3.96152E+04  4.73843E+03  1.57532E+04  4.74564E+04 -3.49681E+04  4.83182E+04 -6.69797E+04 -1.13930E+03
 -5.37595E+04 -5.64747E+04 -6.94305E+03 -7.66786E+04  3.33556E+04 -5.46377E+04  4.83502E+04 -1.80510E+04
  4.31703E+04  1.17084E+04  3.16247E+04  2.51993E+04  1.52367E+04  2.80876E+04 -5.05696E+03  2.64618E+04
 -2.26448E+04  1.26432E+04 -1.86494E+04 -4.95835E+03  5.07961E+03 -6.75806E+03  2.11240E+04  1.19310E+04
  6.94323E+03  3.48922E+04 -3.16415E+04  3.49197E+04 -6.24559E+04  2.06053E+03 -5.71466E+04 -4.20333E+04
 -1.21379E+04 -6.28045E+04  3.88259E+04 -4.44467E+04  5.75569E+04 -2.28784E+03  3.36803E+04  3.19005E+04
 -5.96631E+03  3.53017E+04 -2.91405E+04  1.60746E+04 -3.01133E+04 -3.09051E+03 -1.68544E+04 -1.25941E+04
 -9.18526E+03 -1.40302E+04 -5.97873E+02 -1.72460E+04  7.45773E+03 -2.30245E+04  1.56044E+04 -1.34778E+04
  1.07967E+04  5.30652E+03 -8.19030E+03  1.21643E+04 -2.06526E+04 -4.70192E+03 -8.99148E+03 -3.32053E+04
  2.29691E+04 -4.30394E+04  4.87943E+04 -2.03126E+04  4.53481E+04  1.92848E+04  1.53915E+04  4.42403E+04
 -1.56972E+04  3.26498E+04 -2.53234E+04  1.02879E+03 -8.31242E+03 -2.71863E+04  2.13766E+04 -3.23999E+04
  4.18799E+04 -8.96165E+03  3.47628E+04  2.33627E+04  1.74419E+04  4.57725E+04 -8.81548E+03  4.86744E+04
 -3.23617E+04  3.26349E+04 -4.04247E+04  9.35280E+03 -4.25578E+04 -1.49376E+04 -2.38078E+04 -3.83605E+04
  7.63278E+03 -3.75011E+04  3.18424E+04 -1.38399E+04  2.86546E+04  1.00205E+04  5.04105E+03  2.00191E+04
 -1.32119E+04  7.98647E+03 -1.15366E+04 -7.43418E+03  5.85154E+03 -9.82159E+03  1.73606E+04  5.69486E+03
  1.24156E+04  2.26817E+04 -6.60480E+03  2.46810E+04 -2.18835E+04  1.17641E+04 -2.81775E+04 -5.19786E+03
 -2.04334E+04 -1.72882E+04 -8.43523E+03 -2.09581E+04  4.43321E+03 -2.00840E+04  1.58329E+04 -1.91695E+04
  2.59962E+04 -1.38900E+04  3.22585E+04  2.83612E+03  2.38681E+04  2.01650E+04  3.79850E+03  3.49720E+04
 -1.74266E+04  2.91879E+04 -2.82538E+04  9.57176E+03 -2.07443E+04 -1.01560E+04 -3.93837E+03 -1.34955E+04
  1.38060E+03 -2.41098E+03 -4.63069E+03  6.91704E+03 -1.66914E+04  5.00624E+03 -1.60262E+04 -6.21945E+03
 -1.03451E+04 -1.74948E+04  5.32466E+03 -2.34370E+04  1.49635E+04 -1.59863E+04  1.84291E+04 -1.03315E+03
  1.21546E+04  1.38528E+04 -4.35039E+02  1.76670E+04 -1.25464E+04  1.04769E+04 -1.82272E+04 -4.31494E+03
 -1.36083E+04 -1.70695E+04 -5.73714E+02 -2.13631E+04  1.01322E+04 -1.85004E+04  1.90374E+04 -9.49570E+03
  1.67962E+04  6.02131E+02  1.16759E+04  3.67682E+03  6.16698E+03  9.43663E+02  9.88745E+03 -1.44144E+03
  1.74547E+04  2.54148E+03  1.88289E+04  1.51441E+04  1.22409E+04  3.03628E+04 -1.77972E+03  3.25968E+04
 -1.94503E+04  2.78678E+04 -3.13508E+04  1.25873E+04 -3.19296E+04 -3.28020E+03 -2.84042E+04 -1.92043E+04
 -1.25381E+04 -2.79999E+04  9.92085E+03 -2.34854E+04  2.11474E+04 -1.32480E+04  1.86423E+04  5.28319E+03
  6.66839E+03  1.42382E+04 -9.58090E+03  1.12552E+04 -1.48866E+04  3.10925E+03 -1.14662E+04 -9.12267E+03
 -8.91585E+02 -1.59235E+04  7.81639E+03 -1.16884E+04  9.49625E+03 -2.23119E+03  2.63754E+03  5.27115E+03
 -7.14352E+03  1.94866E+03 -5.45123E+03 -5.62949E+03 -7.10092E+02 -1.36140E+04  1.00253E+04 -1.36143E+04
  1.72855E+04 -5.98755E+03  1.71560E+04  1.52294E+03  1.61922E+04  1.25260E+04  8.14681E+03  2.02963E+04
 -2.56275E+03  2.16362E+04 -1.32226E+04  1.36230E+04 -1.58947E+04  4.90731E+03 -1.12747E+04 -2.74307E+03
 -4.16372E+03 -4.66595E+03 -1.70613E+03  1.38994E+03 -2.77079E+03  2.88123E+03 -4.77423E+03  4.19230E+03
 -1.06739E+04  1.22257E+02 -1.13494E+04 -9.32082E+03 -4.28449E+03 -1.48271E+04  4.66155E+03 -1.12479E+04
  9.80530E+03 -3.59865E+03  6.73100E+03  3.60060E+03  6.00947E+02  4.63905E+03 -5.41187E+03 -1.34467E+03
 -5.35382E+03 -7.70235E+03 -1.55940E+03 -9.65598E+03  5.42569E+03 -1.17418E+04  1.37158E+04 -5.55101E+03
  1.55073E+04  1.18064E+03  1.18696E+04  1.01112E+04  2.91101E+03  1.26633E+04 -7.04759E+03  1.09454E+04
 -9.78153E+03  2.83652E+03 -3.77425E+03 -1.65945E+03  2.63070E+03 -3.35639E+03  6.16397E+03 -1.95629E+02
  5.80713E+03  5.09829E+03 -2.61087E+02  9.40996E+03 -5.86018E+03  9.02414E+03 -9.98355E+03  1.98504E+03
 -7.34873E+03 -6.35968E+03  7.01569E+02 -9.48043E+03  6.33386E+03 -5.46052E+03  4.05791E+03  1.32454E+03
  1.97893E+03  5.15802E+03 -5.63492E+03  7.17001E+03 -8.32085E+03  3.17546E+03 -7.55428E+03 -3.74113E+03
 -4.48780E+03 -1.01197E+04  1.50904E+03 -1.13060E+04  9.16161E+03 -6.46886E+03  1.04313E+04  2.63712E+03
  7.27774E+03  7.80452E+03 -4.01006E+02  1.09522E+04 -7.18610E+03  5.52541E+03 -8.68785E+03 -9.61250E+02
 -8.15401E+03 -7.36589E+03 -2.23386E+03 -8.13447E+03  3.89232E+03 -7.74869E+03  4.43311E+03 -2.68145E+03
  3.37664E+03  4.71195E+02 -5.21142E+02  1.41604E+03 -1.67068E+03 -1.71824E+03  7.79945E+02 -4.42906E+03
  6.92316E+03 -3.16287E+03  8.38852E+03  8.70067E+02  9.50952E+03  6.34588E+03  7.77879E+03  1.15208E+04
 -2.63511E+03  1.42121E+04 -1.25709E+04  1.08746E+04 -1.53783E+04  1.31729E+03 -1.05730E+04 -4.31233E+03
 -6.14307E+03 -1.10766E+04 -3.89521E+02 -1.02898E+04  3.69451E+03 -2.99394E+03  2.70908E+03 -3.53198E+03
  2.69337E+03 -2.14643E+03  1.49447E+03 -3.17645E+03  4.52366E+03 -2.76261E+03  5.79484E+03 -5.76452E+02
  5.07250E+03  3.04182E+03  3.21447E+03  5.39026E+03 -2.41415E+03  5.29471E+03 -7.15194E+03  4.15820E+03
 -7.84676E+03 -1.31216E+03 -4.53109E+03 -5.51503E+03  2.03121E+02 -8.34728E+03  5.15338E+03 -9.33508E+03
  9.42470E+03 -5.62673E+03  1.21406E+04  1.61935E+03  7.62623E+03  7.72081E+03  1.75582E+03  1.00560E+04
 -4.66684E+03  7.80346E+03 -5.46559E+03  3.02451E+03 -4.01803E+03 -1.13010E+03 -2.40569E+03 -1.22464E+03
 -6.71481E+01 -1.64231E+02 -1.19270E+03  3.24324E+03 -4.90067E+03  2.42299E+03 -4.98430E+03 -1.35007E+03
 -3.78210E+03 -6.07761E+03  1.76926E+03 -7.20036E+03  5.41062E+03 -7.93016E+03  7.34794E+03 -2.24282E+03
  8.21076E+03  4.17294E+03  2.85465E+03  6.93069E+03 -2.32726E+03  7.28408E+03 -5.87865E+03  4.18610E+03
 -5.82568E+03  2.88065E+02 -5.92723E+03 -4.46586E+03 -9.53901E+02 -6.93272E+03  2.83375E+03 -5.35015E+03
  4.58588E+03 -3.17551E+03  3.11365E+03  1.48448E+02  1.74557E+03  1.88858E+03  8.92021E+02  2.55643E+02
  9.09554E+02  3.12384E+02  1.69769E+03  2.17875E+03  1.73597E+03  4.51193E+03  1.49259E+03  3.62358E+03
 -2.58661E+03  5.42907E+03 -4.61846E+03  6.65739E+03 -7.52088E+03  1.95548E+03 -6.67475E+03 -2.84997E+03
 -3.06741E+03 -7.39810E+03  1.83187E+03 -8.18339E+03  4.45345E+03 -4.79096E+03  5.80312E+03 -2.64974E+03
  4.48593E+03  3.65604E+03 -3.57595E+02  4.28843E+03 -2.70160E+03  2.93466E+03 -3.41459E+03 -8.01934E+02
 -9.61540E+02 -3.30082E+03  2.63485E+03 -2.43147E+03  2.62979E+03 -2.12314E+03  2.04118E+03  1.65777E+03
  2.43940E+03  1.00635E+03  8.74504E+02  1.06860E+02 -5.49991E+02  1.18406E+03  1.90647E+03  1.48520E+03
  2.43968E+02 -1.21347E+03  2.48065E+03  1.18797E+03  1.54861E+03  4.46273E+03 -6.29622E+02  4.43665E+03
 -2.38189E+03  3.25664E+03 -4.68923E+03  1.12759E+03 -4.74574E+03 -1.43490E+03 -1.10221E+03 -2.01198E+03
  4.57941E+02 -1.99433E+03  1.29567E+03 -3.77476E+02  1.21724E+03  2.29841E+03  6.71633E+02  2.55960E+03
 -3.32105E+03  2.33291E+03 -2.77772E+03 -8.86733E+02 -2.17405E+03 -5.02099E+03  6.27103E+02 -3.63762E+03
  2.02458E+03 -1.98206E+03  2.22606E+03 -5.56856E+02  2.85556E+03  1.61118E+03 -7.98988E+02  1.83327E+03
 -7.73975E+02 -8.64884E+01 -2.64868E+03 -1.20783E+03  2.17396E+03 -1.72955E+03  3.14954E+03 -1.79825E+03
  3.28227E+03 -4.33601E+02  5.23440E+03  3.04231E+03  2.22453E+03  3.93714E+03 -1.14432E+03  3.37312E+03
 -4.02197E+03  1.75746E+03 -3.73715E+03 -1.63491E+03 -1.72296E+03 -4.26383E+03 -7.51013E+01 -1.20780E+03
  3.16634E+03 -1.41513E+03  1.94798E+03  9.93872E+02  4.71748E+02  2.61679E+03  1.71199E+02  1.84564E+03
 -2.06921E+03  1.26246E+03 -1.50230E+03  9.64700E+02 -8.98801E+01  9.82032E+02 -1.03252E+03  7.94296E+02
 -8.92462E+02  2.60028E+03 -3.75671E+03  1.62517E+03 -4.86224E+03 -1.10189E+02 -3.57995E+03 -2.00412E+03
 -3.63745E+03 -5.51829E+03  6.70929E+02 -5.13534E+03  4.09472E+03 -5.65691E+03  6.47573E+03 -2.21124E+03
  5.88778E+03  9.38588E+02  3.31258E+03  3.25985E+03 -2.85824E+02  4.01083E+03 -1.14545E+03  2.47632E+03
 -1.37801E+03  2.10137E+03 -2.00504E+03  1.22889E+02  8.23045E+01 -6.18807E+02 -7.31060E+02 -5.82343E+02
 -8.82169E+02  9.27854E+01 -6.71880E+02  5.14024E-01  1.32324E+02 -1.45686E+03  6.85884E+02 -1.65111E+03
  3.74137E+03 -2.51267E+03  2.56164E+03  2.16034E+02  3.38245E+03  2.73880E+03  7.42181E+02  4.67080E+03
 -1.98030E+03  4.96517E+03 -4.91316E+03  3.17947E+03 -4.24616E+03 -5.14109E+02 -3.77215E+03 -2.55800E+03
 -1.42684E+03 -4.14122E+03  1.24350E+03 -4.77322E+03  1.47733E+03 -1.72018E+03  2.21021E+03  2.23481E+02
  1.61461E+03  1.35592E+03  3.84607E+02  1.36012E+03 -1.78644E+03  7.63367E+01 -1.53479E+02 -1.55888E+03
  8.14783E+02 -6.37144E+02  1.07947E+03  1.43823E+03 -4.97075E+02  1.93106E+03  7.53576E+02  1.12881E+03
 -2.42466E+03  1.44694E+03 -1.55195E+03 -7.47152E+02 -2.35335E+03 -1.83328E+03  3.59688E+02 -4.86326E+03
  2.43773E+03 -1.54528E+03  2.96626E+03 -2.19376E+02  2.89245E+03  1.01391E+03  2.34451E+03  1.90189E+03
  5.40537E+02  2.13103E+03 -9.81619E+02  7.11966E+02 -2.45231E+03  1.72706E+03 -1.89137E+03  7.88264E+02
 -5.08468E+02 -8.11732E+02 -1.27802E+03  2.20440E+02 -2.19715E+03  9.23105E+02 -1.24704E+03  2.73811E+02
 -2.48914E+03 -3.79093E+02 -1.76465E+03 -3.07097E+03  7.51042E+02 -2.86330E+03  1.86875E+03 -9.36696E+02
  2.00330E+03  5.95959E+02  2.24804E+02  1.43343E+03 -5.83799E+01  3.57118E+03 -3.34114E+03  1.22819E+03
