 $NMID ID='MM_0lb_SNR200_19hz_g40_79.RAW', FMTDAT='(8E13.5)'
 TRAMP=1., VOLUME=1. $END
  3.09614E+05  1.07998E+03  3.37091E+05  2.49987E+05  8.42822E+04  3.38075E+05 -1.32598E+05  2.50586E+05
 -1.89372E+05  8.27868E+04 -1.11273E+05 -3.35462E+04  1.90544E+03 -5.15666E+04  5.42864E+04  4.23986E+02
  3.46924E+04  5.30842E+04 -1.77992E+04  7.44608E+04 -5.84300E+04  6.12639E+04 -8.30381E+04  3.16483E+04
 -7.92481E+04 -1.18282E+04 -5.50360E+04 -5.05884E+04 -1.54117E+04 -6.68906E+04  2.56083E+04 -4.46104E+04
  3.94104E+04  2.94364E+03  1.58018E+04  4.72051E+04 -3.40155E+04  4.65131E+04 -6.57587E+04 -1.45594E+03
 -5.10535E+04 -5.47486E+04 -6.62184E+03 -7.42675E+04  3.22397E+04 -5.25865E+04  4.61930E+04 -1.49342E+04
  4.06356E+04  1.12331E+04  3.12203E+04  2.39409E+04  1.53357E+04  2.78355E+04 -4.21745E+03  2.66213E+04
 -2.19488E+04  1.31318E+04 -1.93239E+04 -4.81591E+03  3.17210E+03 -6.50907E+03  2.10293E+04  1.11270E+04
  7.77239E+03  3.23917E+04 -2.92774E+04  3.30327E+04 -5.97842E+04  3.60044E+03 -5.53243E+04 -4.11576E+04
 -1.22230E+04 -5.88480E+04  3.81411E+04 -4.28392E+04  5.52881E+04 -1.86263E+03  3.02018E+04  2.94875E+04
 -6.35613E+03  3.22041E+04 -2.78574E+04  1.23107E+04 -2.61570E+04 -5.73812E+03 -1.34242E+04 -9.20837E+03
 -6.94316E+03 -1.05490E+04 -7.07603E+02 -1.61591E+04  5.13694E+03 -2.13685E+04  1.42459E+04 -1.40847E+04
  1.23175E+04  4.62882E+03 -5.81244E+03  1.39721E+04 -1.87184E+04 -1.99063E+03 -7.98999E+03 -2.84503E+04
  1.99979E+04 -4.00631E+04  4.30638E+04 -1.81336E+04  4.08164E+04  1.77138E+04  1.40365E+04  4.07403E+04
 -1.50262E+04  3.06447E+04 -2.29486E+04  9.23033E+02 -7.48484E+03 -2.59869E+04  2.01516E+04 -2.92523E+04
  3.61905E+04 -7.49789E+03  2.99223E+04  2.35092E+04  1.56293E+04  4.10858E+04 -8.16521E+03  4.32478E+04
 -2.77061E+04  2.91224E+04 -3.66017E+04  7.86068E+03 -3.72888E+04 -1.47987E+04 -2.04470E+04 -3.28417E+04
  6.97378E+03 -3.28896E+04  2.85298E+04 -1.21893E+04  2.60020E+04  1.10020E+04  2.28087E+03  1.75290E+04
 -1.35281E+04  7.92019E+03 -9.01666E+03 -7.65225E+03  5.54367E+03 -1.00659E+04  1.71687E+04  6.49532E+03
  1.27141E+04  2.16702E+04 -7.08073E+03  2.32893E+04 -2.12890E+04  8.51550E+03 -2.48811E+04 -6.46745E+03
 -1.53444E+04 -1.65454E+04 -4.86119E+03 -1.63152E+04  3.58370E+03 -1.32125E+04  1.15309E+04 -1.31673E+04
  2.03116E+04 -1.17898E+04  2.76833E+04  3.09046E+02  2.20588E+04  1.45191E+04  4.24263E+03  3.09146E+04
 -1.55789E+04  2.76090E+04 -2.50786E+04  9.93602E+03 -1.96743E+04 -1.04128E+04 -3.50685E+03 -1.37046E+04
  2.33674E+03 -4.86129E+03 -1.84105E+03  5.37338E+03 -1.26684E+04  4.83946E+03 -1.25808E+04 -3.89096E+03
 -7.91744E+03 -1.43411E+04  3.78388E+03 -1.82891E+04  1.29053E+04 -1.32178E+04  1.31309E+04 -3.13712E+03
  8.86935E+03  1.09647E+04 -9.61412E+02  1.48797E+04 -8.71944E+03  7.51662E+03 -1.46138E+04 -2.81731E+03
 -9.46789E+03 -1.37816E+04 -1.29793E+03 -1.79534E+04  8.94228E+03 -1.49245E+04  1.44415E+04 -6.75612E+03
  1.31849E+04  1.41292E+03  9.72060E+03  3.32266E+03  5.85392E+03  2.09824E+02  7.22428E+03 -1.42624E+03
  1.36771E+04  3.45229E+03  1.38770E+04  1.27518E+04  8.77018E+03  2.32507E+04 -2.87515E+03  2.44356E+04
 -1.44907E+04  1.89639E+04 -2.37332E+04  8.82684E+03 -2.35021E+04 -1.95314E+03 -2.01228E+04 -1.33532E+04
 -9.94011E+03 -1.85506E+04  5.71204E+03 -1.73584E+04  1.55824E+04 -1.04740E+04  1.43586E+04  4.11008E+03
  5.80522E+03  1.02642E+04 -5.97944E+03  9.49265E+03 -1.30198E+04  3.06541E+03 -1.03647E+04 -7.39842E+03
 -3.32086E+02 -1.21920E+04  4.59504E+03 -8.71043E+03  7.13177E+03 -8.84801E+02  9.76699E+02  4.00704E+03
 -5.76845E+03  5.74266E+02 -3.43141E+03 -3.60092E+03  1.28743E+03 -8.76789E+03  7.50457E+03 -9.76582E+03
  1.08425E+04 -4.01423E+03  1.08893E+04  3.19037E+03  8.97606E+03  8.06625E+03  4.43584E+03  1.33723E+04
 -1.07598E+03  1.53625E+04 -9.19359E+03  9.54337E+03 -1.04223E+04  2.77506E+03 -7.40041E+03 -1.59845E+03
 -4.75080E+03 -3.08196E+03 -1.46185E+03  2.61750E+03 -2.47414E+03  1.09564E+03 -2.94717E+03  3.14278E+03
 -7.65953E+03 -1.19891E+01 -7.88094E+03 -6.62694E+03 -3.58012E+03 -1.10631E+04  3.18779E+03 -7.74791E+03
  6.72117E+03 -4.25129E+03  5.14274E+03  1.06552E+03  8.48882E+02  3.05675E+03 -3.72324E+03  6.43182E+02
 -3.21217E+03 -4.79484E+03 -1.33807E+03 -4.86661E+03  3.03005E+03 -7.51982E+03  9.59858E+03 -4.06074E+03
  1.18091E+04  1.22779E+03  7.32887E+03  5.41258E+03  1.67246E+03  8.31457E+03 -4.84608E+03  7.28748E+03
 -7.13588E+03  2.49587E+03 -2.84794E+03 -5.32315E+02  6.73432E+02 -9.29350E+02  4.68058E+03 -8.51763E+02
  3.53642E+03  2.31669E+03  7.95121E+02  6.25190E+03 -3.34351E+03  5.31534E+03 -6.77079E+03  1.03080E+03
 -3.49329E+03 -3.32634E+03 -1.91521E+02 -5.30012E+03  2.62806E+03 -4.15088E+03  2.66879E+03  7.25547E+02
  1.17739E+02  3.66545E+03 -4.16875E+03  4.75244E+03 -4.51862E+03  1.65050E+03 -3.98711E+03 -8.76292E+02
 -2.08715E+03 -5.38566E+03  6.16476E+02 -5.25945E+03  4.75800E+03 -3.37514E+03  6.32950E+03  4.39165E+02
  4.85063E+03  3.43046E+03 -6.14261E+01  6.65020E+03 -5.05936E+03  4.97282E+03 -5.24240E+03 -6.04016E+02
 -5.43500E+03 -4.58497E+03 -1.92491E+03 -3.30586E+03  1.78563E+03 -4.41088E+03  2.38855E+03 -3.58378E+03
  1.38049E+03  1.92190E+02  1.28126E+03  2.10711E+03  1.74034E+02 -5.69466E+02  4.96138E+02 -1.91452E+03
  2.27239E+03 -5.03602E+01  4.72896E+03  6.03927E+02  5.91990E+03  3.01839E+03  5.59054E+03  6.91200E+03
 -1.72039E+03  7.72878E+03 -7.23860E+03  5.15816E+03 -8.51258E+03  2.47382E+02 -6.58548E+03 -1.83157E+03
 -4.04982E+03 -5.70410E+03  9.38887E+01 -5.53304E+03  1.96178E+03 -7.28474E+02  9.79459E+02 -2.37486E+03
  1.15713E+03 -5.95606E+02  2.66746E+03 -1.72745E+03  2.83221E+03 -3.65786E+02  3.24618E+03 -3.72420E+02
  4.64812E+03  1.78643E+03  1.29722E+03  2.63206E+03 -7.67313E+02  2.20672E+03 -3.80561E+03  2.20757E+03
 -4.94602E+03 -8.67622E+02 -5.29251E+02 -3.10771E+03  9.64778E+02 -3.90456E+03  3.88562E+03 -4.97802E+03
  4.75962E+03 -3.10467E+03  6.04577E+03  2.93100E+02  4.43041E+03  4.01654E+03  1.23935E+03  5.61089E+03
 -1.59370E+03  5.80986E+03 -3.89726E+03  1.61971E+03 -2.53206E+03 -1.50397E+03 -1.27462E+02 -3.92791E+02
 -5.58092E+02  6.17130E+01 -1.14476E+03  2.27710E+03 -2.40674E+03  1.51118E+03 -3.36442E+03 -4.88821E+02
 -1.85208E+03 -2.99633E+03  5.84800E+02 -5.56006E+03  3.04652E+03 -4.12218E+03  2.63366E+03 -1.32678E+03
  3.08238E+03  2.17349E+03  2.08494E+03  3.79266E+03 -3.83701E+02  3.46479E+03 -2.89654E+03  1.74572E+03
 -2.86343E+03  6.94605E+02 -3.04885E+03 -2.27533E+03 -4.08606E+02 -2.94908E+03  1.76421E+03 -2.42078E+03
  2.07972E+03 -1.79499E+03  1.16342E+03 -2.97489E+02  1.06872E+03  2.04122E+03  7.57826E+02  5.29302E+02
  1.41695E+03  1.20097E+02  9.54892E+02  1.23664E+03  2.54139E+03  2.48898E+03  1.70135E+03  2.21245E+03
 -1.26086E+03  1.87366E+03 -1.90764E+03  3.72237E+03 -2.83077E+03  7.06957E+02 -3.88047E+03 -3.05665E+01
 -4.32732E+02 -3.48319E+03 -2.54775E+02 -4.58764E+03  5.75225E+02 -2.28435E+03  3.35039E+03 -8.61584E+02
  2.24623E+03  1.54104E+03  2.86423E+02  2.45734E+03 -8.38333E+02  1.87801E+03 -1.80619E+03  3.91799E+02
 -4.18040E+01 -4.74300E+02  2.30307E+03 -8.07857E+02  1.06688E+03 -1.30861E+03  1.12608E+03  1.04420E+02
 -1.07074E+02  5.82066E+02  1.66782E+02 -3.87070E+02  5.76819E+01  1.31310E+03  2.20853E+03 -7.73869E+01
  2.45636E+02 -3.98336E+01  1.64347E+03 -3.61365E+02 -4.55457E+02  1.54640E+03  2.01053E+02  3.21982E+03
 -1.25990E+03  1.01868E+03 -1.84989E+03  9.39716E+01 -3.00445E+03 -1.46711E+03  3.67547E+02 -1.32835E+03
  5.90311E+01 -8.58958E+02  1.30666E+03 -1.52895E+03  1.58107E+03  2.63286E+03 -5.65369E+02  2.57056E+02
 -1.42153E+03  1.26284E+03 -1.13547E+03 -1.13509E+03 -1.99850E+03 -1.64056E+03 -7.02405E+02 -8.84898E+02
  1.92479E+02  6.98788E+01  8.94163E+02  3.95330E+02  1.46621E+03 -3.31948E+02  5.59414E+02  2.25145E+03
 -8.01613E+02  3.15242E+02 -1.62715E+03 -9.59336E+01  1.65100E+02 -7.89963E+02  1.42876E+03 -2.61915E+02
  7.41668E+02  5.46458E+02  2.70014E+03  3.90721E+02  1.17314E+03  1.52622E+03 -8.76632E+02  1.94980E+03
 -8.21290E+02 -8.85883E+02 -1.78302E+03 -5.71520E+02 -6.28383E-01 -9.72756E+02  1.35008E+02 -8.95366E+02
  2.95531E+02 -6.92812E+02  4.85820E+02  2.00351E+02  2.90497E+02  9.35371E+02  1.37024E+03  1.90161E+03
 -7.07848E+02  1.95424E+03 -3.02208E+02  5.15818E+02  8.06956E+02  8.24698E+02 -3.15744E+01  1.02483E+03
 -7.78643E+02  8.66171E+02 -2.09311E+03 -1.82647E+02 -2.14872E+03 -1.25760E+03 -1.23780E+03 -1.70653E+03
 -8.16821E+02 -2.88875E+03  9.65160E+02 -2.26830E+03  1.40990E+03 -3.55472E+03  2.01283E+03 -9.07587E+02
  3.20714E+03 -2.43613E+02  7.25774E+02  1.09875E+03 -1.53053E+03  1.31580E+03 -1.05244E+03  1.44646E+03
 -6.03885E+02  5.55187E+02  2.47558E+02 -4.70234E+02  4.08537E+01  6.39728E+02 -1.30697E+02  8.62192E+02
 -1.06243E+03  2.92989E+02  1.74661E+02  5.78598E+02  6.63287E+02 -1.69443E+02 -6.47206E+02 -8.34368E+02
  7.60817E+02 -1.84501E+03 -6.18693E+02 -2.63941E+02  2.93165E+02  8.46018E+02 -1.31817E+03  3.95984E+02
 -8.98537E+02  1.97168E+03 -1.50680E+03  1.54537E+03 -1.21486E+03 -3.71082E+02 -1.41762E+03 -4.98080E+02
 -1.37005E+03 -1.69878E+03 -1.20887E+02 -9.11600E+02  2.49035E+02  3.26042E+02  9.22402E+02  1.32394E+03
  7.43356E+02 -1.63032E+02  2.78475E+02  5.73920E+02  4.56840E+02  6.96371E+02 -1.28400E+02 -1.30124E+03
  2.57798E+02 -4.79086E+02 -2.42353E+02 -6.06333E+02  4.80332E+02  1.33083E+02  3.65794E+02  2.61621E+02
 -1.50070E+03  1.64853E+03  6.53773E+02  6.86353E+02 -7.07729E+02  3.57782E+02  6.37035E+02 -5.51892E+02
  7.01711E+02  3.20674E+02  9.33397E+02  3.74961E+01  7.55563E+02 -5.74536E+02  6.81486E+02  3.19698E+02
 -3.70639E+01 -6.61421E+02 -8.50833E+02  6.34461E+01 -5.92360E+02  8.48342E+02 -1.70455E+02 -5.55057E+02
 -2.29251E+02 -3.62062E+02 -6.39543E+02  1.23188E+02 -2.29479E+02  4.23099E+02 -4.16616E+01 -6.83439E+02
 -1.41498E+03  4.52586E+02 -7.67506E+02 -4.37350E+02  1.21784E+03 -1.49282E+03  5.15632E+02 -4.94659E+02
  8.66922E+02 -6.01192E+02 -3.89818E+02 -3.27061E+02  3.93565E+02  5.76997E+02 -7.23230E+02  1.59285E+03
