 $NMID ID='MM_0lb_SNR200_17hz_g40_37.RAW', FMTDAT='(8E13.5)'
 TRAMP=1., VOLUME=1. $END
  3.08599E+05 -1.67651E+01  3.38020E+05  2.50588E+05  8.58422E+04  3.37338E+05 -1.32486E+05  2.49935E+05
 -1.88866E+05  8.20364E+04 -1.11826E+05 -3.25343E+04  6.48247E+02 -5.11767E+04  5.39108E+04  2.49201E+01
  3.48487E+04  5.28048E+04 -1.69392E+04  7.49615E+04 -6.07410E+04  6.28097E+04 -8.27073E+04  3.14333E+04
 -7.96711E+04 -9.98899E+03 -5.63134E+04 -5.04240E+04 -1.47031E+04 -6.88429E+04  2.74784E+04 -4.45825E+04
  3.87753E+04  3.87806E+03  1.53951E+04  4.72228E+04 -3.43264E+04  4.62267E+04 -6.54901E+04 -9.36722E+02
 -5.10055E+04 -5.59169E+04 -5.92840E+03 -7.50600E+04  3.40243E+04 -5.37461E+04  4.67027E+04 -1.68117E+04
  4.17763E+04  1.09909E+04  3.00332E+04  2.45964E+04  1.68833E+04  2.73007E+04 -5.13604E+03  2.61609E+04
 -2.19105E+04  1.27948E+04 -1.90006E+04 -4.64632E+03  3.50776E+03 -6.95221E+03  2.09637E+04  1.14190E+04
  7.92650E+03  3.37259E+04 -3.11355E+04  3.48352E+04 -6.15759E+04  2.37479E+03 -5.53127E+04 -4.22382E+04
 -1.22224E+04 -6.08178E+04  3.74255E+04 -4.34453E+04  5.59780E+04 -1.12857E+03  3.32182E+04  3.06610E+04
 -6.30990E+03  3.37213E+04 -2.86813E+04  1.41906E+04 -2.68681E+04 -4.92478E+03 -1.51523E+04 -9.53678E+03
 -7.16285E+03 -1.18525E+04 -1.88822E+03 -1.65945E+04  6.65896E+03 -2.41372E+04  1.59755E+04 -1.35123E+04
  1.25236E+04  4.94405E+03 -6.03630E+03  1.34736E+04 -1.92674E+04 -2.54799E+03 -7.59027E+03 -3.06045E+04
  2.09286E+04 -4.05632E+04  4.55885E+04 -1.82203E+04  4.19645E+04  1.84992E+04  1.45545E+04  4.22072E+04
 -1.50873E+04  3.16580E+04 -2.36009E+04  1.20329E+03 -8.11993E+03 -2.69767E+04  2.15984E+04 -3.15430E+04
  3.87085E+04 -8.22998E+03  3.17795E+04  2.30219E+04  1.60218E+04  4.31413E+04 -8.16008E+03  4.41437E+04
 -2.87946E+04  3.08307E+04 -3.77587E+04  9.10805E+03 -3.97160E+04 -1.45590E+04 -2.22613E+04 -3.59575E+04
  7.76238E+03 -3.51023E+04  2.94995E+04 -1.36950E+04  2.69806E+04  1.04465E+04  3.91386E+03  1.83992E+04
 -1.37606E+04  6.62408E+03 -1.10992E+04 -7.57933E+03  5.87776E+03 -9.45430E+03  1.73100E+04  6.29796E+03
  1.19765E+04  2.07247E+04 -5.01749E+03  2.38688E+04 -2.15683E+04  8.88631E+03 -2.53462E+04 -6.36112E+03
 -1.72443E+04 -1.58368E+04 -6.06127E+03 -1.68303E+04  3.26041E+03 -1.56045E+04  1.25091E+04 -1.50918E+04
  2.19347E+04 -1.11247E+04  2.75338E+04  1.40759E+03  2.08180E+04  1.73252E+04  3.50331E+03  3.38843E+04
 -1.63305E+04  2.80126E+04 -2.67000E+04  9.33557E+03 -1.93912E+04 -1.04562E+04 -4.07630E+03 -1.51520E+04
  3.19350E+03 -3.04929E+03 -2.82763E+03  5.08867E+03 -1.31375E+04  5.54172E+03 -1.28183E+04 -5.82137E+03
 -8.02054E+03 -1.68381E+04  4.81051E+03 -2.10864E+04  1.25041E+04 -1.43593E+04  1.49454E+04 -1.75994E+03
  9.57875E+03  1.10916E+04  3.65422E+01  1.60822E+04 -1.20457E+04  8.74934E+03 -1.61747E+04 -2.45347E+03
 -1.17461E+04 -1.43641E+04 -1.08215E+03 -1.91772E+04  8.93446E+03 -1.57453E+04  1.58333E+04 -6.80377E+03
  1.49825E+04  6.51969E+02  1.10211E+04  3.95551E+03  6.58377E+03  1.59908E+03  6.89316E+03 -1.72876E+03
  1.42904E+04  3.14950E+03  1.59234E+04  1.38195E+04  1.05596E+04  2.55075E+04 -2.84004E+03  2.93484E+04
 -1.65039E+04  2.04118E+04 -2.54197E+04  1.01755E+04 -2.59644E+04 -2.14022E+03 -2.06062E+04 -1.56010E+04
 -1.09044E+04 -2.14776E+04  7.32726E+03 -2.05795E+04  1.70654E+04 -1.06555E+04  1.74759E+04  3.21427E+03
  6.24312E+03  1.19249E+04 -6.41647E+03  1.11598E+04 -1.39128E+04  3.21760E+03 -9.51794E+03 -7.47760E+03
 -1.72982E+02 -1.33492E+04  6.13926E+03 -1.15355E+04  8.13825E+03  5.13849E+01  1.96323E+03  6.11696E+03
 -6.07765E+03  6.33203E+02 -4.17445E+03 -3.84602E+03  9.95545E+02 -1.12581E+04  8.71096E+03 -1.07942E+04
  1.25719E+04 -4.74966E+03  1.38180E+04  3.74145E+03  1.12785E+04  9.56578E+03  5.76130E+03  1.52240E+04
 -1.59402E+03  1.64218E+04 -1.02751E+04  1.03476E+04 -1.25474E+04  2.72877E+03 -8.44935E+03 -2.51348E+03
 -4.66564E+03 -3.37183E+03 -5.14086E+02  1.88417E+03 -2.11835E+03  1.21624E+03 -4.34214E+03  3.34919E+03
 -8.22633E+03 -6.16965E+02 -8.63689E+03 -9.22294E+03 -3.42932E+03 -1.20884E+04  2.82361E+03 -8.69367E+03
  8.98240E+03 -3.60887E+03  5.02526E+03  2.45177E+03  3.48665E+02  3.49085E+03 -4.03560E+03  9.47696E+02
 -3.08321E+03 -5.42969E+03 -9.34155E+02 -7.85573E+03  4.70478E+03 -8.17473E+03  1.10737E+04 -4.14992E+03
  1.27176E+04  7.73598E+02  9.77825E+03  6.63828E+03  2.01495E+03  8.90626E+03 -5.92916E+03  9.45959E+03
 -6.67201E+03  3.59859E+03 -2.82220E+03 -2.13570E+03  1.64739E+03 -1.66382E+03  5.45621E+03 -1.00435E+03
  5.61340E+03  3.85505E+03  1.00167E+03  7.16078E+03 -4.85196E+03  6.95052E+03 -7.84043E+03  8.31272E+02
 -6.36424E+03 -3.28748E+03 -5.77187E+01 -6.33023E+03  4.01330E+03 -3.73665E+03  4.23723E+03  1.94107E+03
  9.78519E+02  2.80506E+03 -4.55817E+03  5.08812E+03 -6.08493E+03  3.45822E+03 -4.66511E+03 -1.06801E+03
 -2.11413E+03 -7.08369E+03  2.34053E+03 -7.55899E+03  7.48395E+03 -4.95839E+03  6.93561E+03  3.50011E+02
  5.12451E+03  6.72090E+03  2.51562E+00  7.35394E+03 -6.17839E+03  4.76968E+03 -6.12990E+03 -1.12846E+03
 -6.49101E+03 -6.29876E+03 -9.41620E+02 -4.56272E+03  2.96750E+03 -5.03519E+03  3.40715E+03 -1.93439E+03
  2.96641E+03 -4.56705E+02  9.37720E+01  3.69197E+02 -4.33325E+02 -5.84690E+02  6.72466E+02 -1.96250E+03
  3.68912E+03 -1.62425E+03  5.84574E+03 -2.13077E+02  6.64619E+03  3.56306E+03  5.06230E+03  8.54469E+03
 -1.82570E+03  8.80544E+03 -8.82880E+03  7.28283E+03 -1.06667E+04  1.13496E+03 -8.54501E+03 -2.43722E+03
 -5.14020E+03 -6.76616E+03 -1.61824E+03 -6.17297E+03  1.40174E+03 -2.55178E+03  1.86093E+03 -2.39835E+03
  1.16438E+03 -6.31835E+02  1.92913E+03 -2.01173E+03  4.05479E+03 -1.19488E+03  3.95890E+03 -1.65826E+01
  5.25761E+03  2.08872E+03  7.15008E+02  3.01599E+03 -1.86248E+03  2.73600E+03 -4.17213E+03  2.04809E+03
 -4.34287E+03 -6.11728E+02 -1.86006E+03 -4.67394E+03 -5.53301E+01 -6.60703E+03  4.05952E+03 -5.63835E+03
  6.50206E+03 -3.24021E+03  8.09992E+03  3.60321E+02  5.83478E+03  5.16354E+03  8.32238E+02  6.60876E+03
 -2.04776E+03  7.59009E+03 -3.46069E+03  1.94590E+03 -2.02744E+03 -1.00414E+03  1.90314E+01 -1.59743E+03
  4.26090E+02  2.09132E+01 -1.75490E+03  1.71688E+03 -3.20724E+03  2.65182E+03 -4.57494E+03 -4.35511E+02
 -2.69374E+03 -5.38741E+03  4.65094E+02 -5.64710E+03  3.03326E+03 -3.94141E+03  4.74201E+03 -2.27640E+03
  4.32587E+03  2.56848E+03  1.47543E+03  3.77484E+03 -5.87573E+02  5.26215E+03 -3.97406E+03  2.83690E+03
 -4.24906E+03  4.06701E+01 -4.29143E+03 -2.57544E+03  2.58184E+02 -5.10311E+03  3.47427E+03 -3.87534E+03
  2.87138E+03 -1.75638E+03  1.81987E+03 -3.50504E+01  9.07011E+02  2.07322E+03  1.87470E+03  7.04974E+02
  2.25933E+03  1.72857E+03  1.61015E+03  3.12801E+02  1.78543E+03  1.61361E+03  1.97635E+03  1.89233E+03
 -7.46154E+02  3.53348E+03 -3.34034E+03  5.62751E+03 -4.36748E+03  1.63593E+03 -4.84466E+03 -6.19381E+02
 -1.68178E+03 -5.55226E+03  6.07044E+02 -5.26700E+03  3.19526E+03 -3.80641E+03  3.44848E+03 -1.18756E+03
  3.22317E+03  1.55176E+03  4.66283E+02  2.91590E+03  4.56483E+01  1.72653E+03 -1.57405E+03 -2.42832E+02
 -2.03069E+02 -1.57273E+03  1.24591E+03 -1.73233E+03  1.39273E+03 -9.21113E+02  1.97938E+03 -3.64308E+02
 -8.39644E+02  9.43975E+01  9.34725E+02  1.80982E+02 -1.58792E+02  1.62313E+03  1.52801E+03  7.33309E+02
 -1.17996E+03  9.68208E+02  3.64259E+03  6.86163E+02 -1.46140E+02  2.31451E+03 -1.21471E+03  3.92652E+03
 -2.11887E+03  1.42027E+03 -3.59384E+03  4.75065E+02 -2.69820E+03 -8.26437E+02 -1.54564E+02 -2.07431E+03
 -3.35290E+02 -2.12818E+03  1.62853E+03 -2.78029E+02  1.79460E+01  2.02645E+03 -9.50381E+02  9.50771E+02
 -1.30802E+03  7.47764E+02 -1.26122E+03 -2.19513E+03 -5.39898E+02 -2.27744E+03  5.29198E+02 -2.51200E+03
  2.45223E+02 -8.93401E+02  1.34716E+03 -2.18640E+02  1.27874E+03 -6.78676E+02  2.66685E+02  5.97550E+02
 -1.17071E+03 -2.25093E+02 -1.64700E+03 -1.44610E+03  1.54718E+03 -1.09184E+03  2.91330E+03 -1.10102E+03
  2.24752E+03  4.80032E+02  3.99789E+03  1.91188E+03  2.13973E+03  2.51875E+03  4.38157E+02  2.93361E+03
 -1.13192E+03  5.77698E+02 -3.49601E+03  5.42580E+02 -1.84025E+03 -1.54656E+03  6.96728E+02 -1.13128E+03
  1.27176E+03 -1.26348E+03  4.69565E+02  9.42923E+02 -6.80182E+02  1.23818E+03  5.57427E+02  1.19569E+03
 -1.27007E+03  8.79160E+02 -1.20818E+03  1.03055E+03 -5.70192E+02  4.20758E+02  1.11493E+02  6.64220E+02
 -1.20174E+03  8.94795E+02 -1.66202E+03  1.09259E+03 -3.84234E+03  8.63961E+02 -3.20661E+03 -1.00948E+03
 -1.50187E+03 -4.05150E+03  7.25900E+02 -2.58676E+03  1.60458E+03 -2.44913E+03  3.02528E+03 -8.34639E+02
  3.57606E+03 -6.38631E+02  1.62694E+03  3.07705E+03  2.12216E+02  1.63020E+03 -5.15054E+02  1.21142E+03
 -9.13704E+02  1.99973E+03  1.71434E+02 -3.26802E+02 -8.26560E+02 -8.08917E+02 -1.59057E+03  1.33013E+03
 -9.04930E+02  4.32834E+01 -1.11444E+03  2.52312E+02  2.14241E+02 -1.56611E+03  1.92782E+02 -1.62213E+03
  6.38278E+02 -1.82931E+03  6.52194E+02  3.51765E+02  1.32893E+03  1.59229E+03 -4.26949E+02  2.23453E+03
 -1.71846E+03  3.28555E+03 -2.54483E+03  6.00599E+02 -3.37485E+03  1.35682E+02 -9.83175E+02 -2.27262E+03
 -1.22049E+03 -1.65138E+03  5.44395E+02 -8.43235E+02  9.47127E+02  1.48776E+02  8.85888E+02 -1.24048E+03
  1.93132E+03  2.46946E+02  9.24121E+02  1.34076E+03  1.09772E+02  1.04322E+01  5.12919E+02 -2.05881E+02
 -2.06747E+02 -8.33299E+01 -2.63792E+02 -3.67691E+02  1.13388E+00  1.12766E+03  2.54896E+02  8.61404E+02
 -8.82855E+02  5.85982E+02 -6.83066E+02 -2.62914E+02 -1.70284E+03 -4.27493E+02 -1.68026E+02 -2.24383E+03
  1.95692E+03 -9.78255E+02  9.74508E+02  1.16569E+03  1.49837E+03  7.85185E+02  4.60269E+02  8.16292E+02
  5.51178E+01  6.84322E+02  3.09062E+02  8.68868E+02 -4.88575E+02  8.71791E+02 -9.51748E+02  4.99440E+02
 -3.24098E+02 -1.78408E+01 -1.10065E+03  1.36143E+03  7.98101E+02  2.05350E+03 -1.34964E+03  1.25796E+02
 -6.54235E+02 -5.29442E+02 -3.59811E+01 -2.44287E+03  1.41407E+03 -1.38272E+03  1.60575E+03  1.43546E+02
  7.81688E+02  8.70879E+02  5.31329E+01  2.08934E+03 -4.04208E+02  1.27964E+03 -7.54604E+02  6.86468E+02
