 $NMID ID='MM_0lb_SNR200_12hz_g55_8.RAW', FMTDAT='(8E13.5)'
 TRAMP=1., VOLUME=1. $END
  3.10178E+05 -5.14669E+01  3.37668E+05  2.50717E+05  8.53127E+04  3.37573E+05 -1.32073E+05  2.51110E+05
 -1.90792E+05  8.23565E+04 -1.10464E+05 -3.36669E+04  3.43220E+02 -5.13253E+04  5.36062E+04 -2.60287E+02
  3.44539E+04  5.29405E+04 -1.83015E+04  7.53767E+04 -6.13109E+04  6.40112E+04 -8.55948E+04  3.40100E+04
 -8.15645E+04 -1.12108E+04 -5.81160E+04 -5.16141E+04 -1.52709E+04 -7.19416E+04  2.71407E+04 -4.77104E+04
  4.13398E+04  2.94580E+03  1.66506E+04  4.86337E+04 -3.49523E+04  4.91402E+04 -6.60140E+04 -4.23966E+02
 -5.24006E+04 -5.56096E+04 -7.73726E+03 -7.94022E+04  3.28504E+04 -5.68447E+04  5.00835E+04 -1.75341E+04
  4.36132E+04  9.15205E+03  3.42660E+04  2.72340E+04  1.65813E+04  3.00945E+04 -5.59509E+03  2.69695E+04
 -2.15939E+04  1.15064E+04 -1.85944E+04 -5.32874E+03  5.24696E+03 -7.01604E+03  2.18248E+04  1.25558E+04
  7.70499E+03  3.69189E+04 -3.27956E+04  3.67220E+04 -6.45091E+04  2.27863E+03 -5.82029E+04 -4.30412E+04
 -1.28520E+04 -6.51862E+04  4.04117E+04 -4.70282E+04  5.91971E+04 -1.97862E+03  3.51833E+04  3.51445E+04
 -5.39781E+03  3.83555E+04 -3.07701E+04  1.79948E+04 -3.10456E+04 -3.86164E+03 -1.95049E+04 -1.22577E+04
 -9.61642E+03 -1.41940E+04 -1.28259E+03 -1.85974E+04  7.82943E+03 -2.32803E+04  1.51276E+04 -1.34311E+04
  1.11740E+04  5.75101E+03 -1.00945E+04  1.27594E+04 -2.16742E+04 -4.70893E+03 -8.35200E+03 -3.54947E+04
  2.45956E+04 -4.53498E+04  5.11984E+04 -2.08828E+04  4.64158E+04  2.07660E+04  1.72935E+04  4.70224E+04
 -1.62734E+04  3.57349E+04 -2.74728E+04  1.33298E+03 -1.15105E+04 -3.00670E+04  2.16078E+04 -3.60620E+04
  4.31319E+04 -1.08369E+04  3.99138E+04  2.47576E+04  1.98860E+04  4.86671E+04 -7.73599E+03  5.22312E+04
 -3.31000E+04  3.62874E+04 -4.47192E+04  9.31430E+03 -4.44669E+04 -1.89404E+04 -2.48796E+04 -4.04707E+04
  8.48410E+03 -3.98569E+04  3.16381E+04 -1.55401E+04  3.22351E+04  1.24460E+04  5.62955E+03  2.02303E+04
 -1.40735E+04  9.15759E+03 -1.02491E+04 -7.48930E+03  7.23458E+03 -1.05430E+04  1.98593E+04  6.63716E+03
  1.48213E+04  2.27414E+04 -5.60160E+03  2.54167E+04 -2.13473E+04  1.32488E+04 -2.92594E+04 -3.43104E+03
 -2.28900E+04 -1.90416E+04 -1.15295E+04 -2.12124E+04  3.91768E+03 -2.32769E+04  1.75585E+04 -2.00736E+04
  2.87952E+04 -1.36226E+04  3.66183E+04  2.33777E+03  2.59960E+04  2.16683E+04  4.47586E+03  3.84145E+04
 -1.86871E+04  3.27963E+04 -3.03294E+04  1.14345E+04 -2.09910E+04 -1.17245E+04 -5.07647E+03 -1.43200E+04
  5.11353E+02 -1.03433E+03 -7.02981E+03  8.83202E+03 -1.73847E+04  3.98484E+03 -1.69562E+04 -8.17693E+03
 -1.19380E+04 -2.11373E+04  5.75664E+03 -2.59619E+04  1.85794E+04 -1.81889E+04  2.08212E+04 -2.77149E+03
  1.33565E+04  1.31394E+04 -8.39681E+02  2.14554E+04 -1.41391E+04  1.17267E+04 -2.12841E+04 -4.04311E+03
 -1.43968E+04 -1.95214E+04 -1.85796E+03 -2.62706E+04  1.20819E+04 -2.22607E+04  2.17348E+04 -1.06238E+04
  1.91838E+04 -6.39368E+01  1.45694E+04  5.63643E+03  8.10720E+03  1.61688E+03  1.00455E+04 -1.50989E+03
  1.99512E+04  1.52473E+03  2.31344E+04  1.56144E+04  1.58290E+04  3.43682E+04 -2.46373E+03  3.86060E+04
 -2.22141E+04  3.15546E+04 -3.67150E+04  1.45654E+04 -4.04199E+04 -3.10077E+03 -3.22628E+04 -2.30384E+04
 -1.29038E+04 -3.16375E+04  1.20886E+04 -2.98730E+04  2.46604E+04 -1.60544E+04  2.10673E+04  7.39980E+03
  8.42843E+03  1.54626E+04 -1.04417E+04  1.41113E+04 -1.89150E+04  3.66029E+03 -1.32566E+04 -1.10080E+04
 -1.53040E+02 -1.62206E+04  8.83931E+03 -1.31538E+04  1.25572E+04  1.02612E+02  1.85828E+03  8.05344E+03
 -6.93211E+03  3.43199E+03 -8.15176E+03 -7.03628E+03 -2.00825E+03 -1.67875E+04  1.10973E+04 -1.64401E+04
  2.04782E+04 -9.69175E+03  2.15086E+04  2.79670E+03  1.95403E+04  1.55729E+04  1.06514E+04  2.43539E+04
 -5.16835E+03  2.55564E+04 -1.74615E+04  1.60330E+04 -1.93911E+04  4.45949E+03 -1.43591E+04 -5.18818E+03
 -5.04535E+03 -5.61238E+03 -1.03741E+02  1.15214E+03 -2.37649E+03  3.09245E+03 -5.79797E+03  5.29037E+03
 -1.31780E+04 -1.87461E+02 -1.29593E+04 -1.01633E+04 -5.25695E+03 -1.82499E+04  4.76467E+03 -1.35703E+04
  1.12941E+04 -6.35958E+03  6.98368E+03  3.96742E+03 -5.04162E+02  4.35579E+03 -8.02792E+03 -7.39837E+02
 -5.99651E+03 -7.08257E+03 -1.19061E+03 -1.25472E+04  7.13036E+03 -1.32888E+04  1.77425E+04 -7.68447E+03
  1.99480E+04  1.37423E+03  1.48817E+04  1.17006E+04  2.91093E+03  1.56025E+04 -8.91200E+03  1.25141E+04
 -9.80183E+03  4.12319E+03 -4.80868E+03 -3.37563E+03  1.33659E+03 -2.50292E+03  7.22491E+03 -7.30621E+02
  5.49473E+03  5.37524E+03  1.65576E+03  1.21224E+04 -8.66860E+03  1.01543E+04 -1.32662E+04  1.41851E+03
 -9.70010E+03 -6.91310E+03 -1.82859E+02 -1.08729E+04  6.31943E+03 -5.93452E+03  8.08706E+03  2.53746E+03
  3.15878E+03  6.21722E+03 -7.52803E+03  9.44402E+03 -1.10548E+04  4.03539E+03 -1.15243E+04 -3.37072E+03
 -7.40784E+03 -1.32193E+04  3.14336E+03 -1.41655E+04  1.17098E+04 -8.43975E+03  1.29853E+04  2.38195E+03
  7.53445E+03  1.08288E+04 -1.11744E+03  1.34792E+04 -8.75696E+03  6.60243E+03 -1.17536E+04 -1.05858E+03
 -7.78875E+03 -7.80113E+03 -1.71885E+03 -1.02973E+04  3.88776E+03 -6.91949E+03  6.61535E+03 -3.77924E+03
  4.26586E+03  1.96851E+03  1.79438E+02  1.75025E+03 -3.29131E+02 -8.73494E+02  2.25738E+03 -6.14179E+03
  8.62854E+03 -2.79566E+03  1.26889E+04  1.99770E+03  1.14384E+04  7.47477E+03  8.25345E+03  1.72388E+04
 -4.03412E+03  2.02220E+04 -1.52319E+04  1.26558E+04 -1.93799E+04  1.87087E+03 -1.70330E+04 -7.64361E+03
 -7.49556E+03 -1.31346E+04  1.38956E+03 -1.08139E+04  4.54957E+03 -5.26642E+03  4.89536E+03 -4.47564E+03
  2.86580E+03 -2.49127E+03  3.32233E+03 -3.61736E+03  4.69160E+03 -2.56706E+03  6.91694E+03 -1.76177E+03
  8.95283E+03  2.81344E+03  3.65415E+03  5.67119E+03 -2.50206E+03  7.38441E+03 -8.90092E+03  5.33362E+03
 -1.00295E+04 -8.27813E+02 -6.34393E+03 -7.69782E+03 -1.80561E+03 -1.19362E+04  6.62194E+03 -1.20530E+04
  1.27954E+04 -6.44366E+03  1.52933E+04  1.32084E+03  1.11196E+04  9.52448E+03  2.51236E+03  1.41642E+04
 -5.09693E+03  1.06440E+04 -6.37474E+03  5.36034E+03 -5.39016E+03 -2.19746E+03 -1.77029E+03 -2.26290E+03
 -1.44451E+03 -9.66294E+02 -1.84904E+03  3.00705E+03 -4.24692E+03  1.65003E+03 -8.26653E+03 -2.49308E+03
 -6.06889E+03 -7.48182E+03 -8.69828E+01 -1.01022E+04  7.06092E+03 -1.09625E+04  9.98698E+03 -2.21724E+03
  9.18438E+03  6.54600E+03  4.75582E+03  9.00187E+03 -2.93802E+03  1.14777E+04 -7.29324E+03  6.39863E+03
 -1.01439E+04  3.58884E+02 -6.50441E+03 -5.46599E+03 -1.14239E+03 -8.63551E+03  6.14396E+03 -7.19862E+03
  6.61140E+03 -2.73474E+03  3.99214E+03  1.94134E+03  1.76139E+03  3.97568E+03  5.28981E+02  2.16730E+03
  2.08163E+03  5.08987E+01  2.20257E+03  2.21368E+02  2.84429E+03  4.81423E+03  3.07262E+03  5.99905E+03
 -2.51464E+03  8.07450E+03 -6.35695E+03  1.00031E+04 -9.16216E+03  2.41813E+03 -1.14781E+04 -4.58489E+03
 -5.30377E+03 -1.07003E+04  1.94749E+03 -1.26713E+04  6.28140E+03 -7.20346E+03  8.92288E+03 -3.45764E+03
  7.20419E+03  5.70448E+03  1.94727E+03  5.04769E+03 -2.86702E+03  5.13829E+03 -4.32083E+03 -9.77842E+02
 -2.58610E+03 -5.20241E+03  2.65090E+03 -3.47815E+03  3.80156E+03 -2.50820E+03  4.01382E+03  2.88472E+02
  2.52223E+03  2.11581E+03  7.98761E+02  5.34856E+02  7.30752E+02  1.95765E+03  1.38955E+03 -6.93516E+02
  1.47149E+03 -6.71135E+02  5.11092E+03  1.23744E+03  3.20212E+03  5.98328E+03  6.99104E+02  8.83984E+03
 -4.60146E+03  2.65841E+03 -7.02821E+03  1.46440E+03 -6.41421E+03 -1.93198E+03 -1.11814E+03 -3.48283E+03
  5.09959E+02 -3.86833E+03  3.48294E+03 -2.31369E+03  2.20816E+03  1.40138E+03 -1.39088E+03  1.98693E+03
 -5.42169E+03  3.15039E+03 -5.75536E+03 -3.80433E+02 -3.50301E+03 -5.73352E+03  1.54843E+03 -4.88242E+03
  3.57352E+03 -1.66147E+03  4.46714E+03  3.54369E+02  3.91126E+03  1.41260E+03  1.33743E+03  2.66635E+03
 -1.79572E+03  1.22354E+03 -2.36440E+03 -1.29742E+03  1.69236E+02 -3.17324E+03  3.88115E+03 -3.84520E+03
  6.74821E+03 -5.20909E+01  6.84539E+03  3.79771E+03  2.87582E+03  7.28179E+03 -6.58687E+02  6.78398E+03
 -4.83033E+03  1.99736E+03 -4.70666E+03 -2.14378E+03 -4.00368E+03 -3.54777E+03  3.96538E+02 -3.36654E+03
  4.62368E+03 -2.99844E+03  3.07869E+03  1.63662E+03  5.31148E+02  3.39660E+03  9.82955E+02  2.85211E+03
 -1.30712E+03 -8.06957E+01 -2.30241E+03  1.54013E+03 -1.65320E+03 -2.15986E+02 -4.07650E+02  1.35469E+03
 -1.68138E+03  3.82049E+03 -4.56400E+03  2.39549E+03 -6.22955E+03 -6.39455E+02 -6.31313E+03 -4.61425E+03
 -2.61960E+03 -7.79362E+03  1.37865E+03 -1.05326E+04  5.87542E+03 -7.36349E+03  7.12103E+03 -2.89425E+03
  8.45502E+03  1.63107E+03  5.87474E+03  4.55227E+03  2.74867E+02  7.26257E+03 -2.29608E+03  4.10301E+03
 -3.46060E+03  1.54697E+03 -3.36581E+03 -4.97806E+02 -5.71388E+02  4.19683E+02 -1.51301E+03 -5.15076E+02
 -1.93083E+03  3.44928E+02 -2.49000E+03 -2.32962E+02  9.24960E+02 -1.45270E+03 -5.46831E+02 -2.16105E+03
  2.43367E+03 -2.20286E+03  3.27552E+03 -6.39612E+01  5.01970E+03  3.09766E+03  2.00725E+03  5.69344E+03
 -2.77895E+03  6.88202E+03 -7.29689E+03  2.57277E+03 -8.69166E+03 -4.18566E+02 -5.25769E+03 -4.79804E+03
 -3.11849E+03 -5.42455E+03  8.97366E+02 -6.32351E+03  3.76034E+03 -3.07697E+03  3.59534E+03  1.58217E+02
  1.73114E+03  2.31953E+03 -2.99299E+02  3.00160E+03 -1.14348E+03 -5.73433E+02  3.27198E+02 -1.12905E+03
  2.03090E+03  2.80978E+02  3.00418E+03  1.06823E+03  2.50623E+03  2.65525E+03 -3.39737E+02  2.87245E+03
 -2.77358E+03  2.25577E+03 -2.74076E+03  1.51741E+02 -3.01525E+03 -4.84046E+03  4.59047E+02 -5.18663E+03
  3.79730E+03 -3.49219E+03  4.65840E+03  2.24209E+02  4.01959E+03  1.58832E+03  2.18692E+03  4.53055E+03
  1.19393E+03  4.22087E+03 -1.85142E+03  1.98121E+03 -3.08028E+03  2.39538E+03 -1.89845E+03 -1.02164E+02
 -3.04748E+02 -1.14021E+03 -1.84311E+03 -6.96891E+02 -2.41133E+03 -3.77130E+02 -2.29049E+03 -1.21907E+03
 -4.20252E+03 -8.40441E+02 -1.98544E+03 -4.28451E+03  1.35392E+03 -3.98106E+03  4.49073E+03 -1.05808E+03
  2.14809E+03  3.19978E+02  1.93939E+03  2.93594E+03 -7.69844E+02  4.77351E+03 -2.50037E+03  2.49396E+03
