 $NMID ID='MM_0lb_SNR200_19hz_g45_42.RAW', FMTDAT='(8E13.5)'
 TRAMP=1., VOLUME=1. $END
  3.09424E+05 -1.87541E+02  3.35804E+05  2.50248E+05  8.29680E+04  3.36747E+05 -1.32889E+05  2.50696E+05
 -1.90742E+05  8.24510E+04 -1.11022E+05 -3.31050E+04  4.04771E+02 -4.91739E+04  5.36737E+04 -1.41576E+02
  3.51861E+04  5.28115E+04 -1.77673E+04  7.53614E+04 -6.10388E+04  6.19075E+04 -8.26296E+04  3.19854E+04
 -7.90412E+04 -1.09861E+04 -5.55242E+04 -4.98496E+04 -1.53739E+04 -6.71548E+04  2.64268E+04 -4.46407E+04
  3.91234E+04  4.22291E+03  1.58787E+04  4.66844E+04 -3.35250E+04  4.62547E+04 -6.42700E+04 -1.39048E+02
 -5.12915E+04 -5.64322E+04 -6.00694E+03 -7.56818E+04  3.35030E+04 -5.24443E+04  4.56748E+04 -1.57330E+04
  4.05142E+04  1.09254E+04  3.07101E+04  2.44601E+04  1.58788E+04  2.79521E+04 -4.53805E+03  2.71876E+04
 -2.11660E+04  1.37844E+04 -1.90247E+04 -3.96459E+03  3.93998E+03 -7.96630E+03  2.02026E+04  1.09746E+04
  7.42767E+03  3.25471E+04 -3.02099E+04  3.28265E+04 -6.00197E+04  1.51318E+03 -5.52762E+04 -4.09065E+04
 -1.15796E+04 -6.03062E+04  3.70354E+04 -4.34398E+04  5.58693E+04 -2.59340E+03  3.18814E+04  3.05351E+04
 -6.83903E+03  3.16930E+04 -2.62411E+04  1.25068E+04 -2.66049E+04 -5.26721E+03 -1.37933E+04 -1.08386E+04
 -7.82910E+03 -1.20672E+04 -2.12165E+03 -1.67321E+04  5.61478E+03 -2.21755E+04  1.59714E+04 -1.43033E+04
  1.21337E+04  3.97544E+03 -6.61640E+03  1.23836E+04 -1.89733E+04 -2.12933E+03 -8.86623E+03 -2.94928E+04
  2.00557E+04 -3.92427E+04  4.37771E+04 -1.90462E+04  3.99502E+04  1.75968E+04  1.35692E+04  4.00820E+04
 -1.53749E+04  3.12633E+04 -2.27407E+04  7.96552E+02 -8.15970E+03 -2.52541E+04  2.15280E+04 -3.04366E+04
  3.85484E+04 -6.88754E+03  3.09596E+04  2.20852E+04  1.39396E+04  4.26668E+04 -9.11142E+03  4.52019E+04
 -2.82899E+04  2.82015E+04 -3.61141E+04  8.21962E+03 -3.84198E+04 -1.54073E+04 -2.00388E+04 -3.39955E+04
  7.60192E+03 -3.45770E+04  2.79626E+04 -1.26314E+04  2.76924E+04  1.03189E+04  2.05560E+03  1.72411E+04
 -1.35330E+04  8.26796E+03 -8.67991E+03 -8.04659E+03  5.12506E+03 -1.08878E+04  1.71131E+04  5.77841E+03
  1.15599E+04  2.09678E+04 -6.41802E+03  2.36576E+04 -2.17456E+04  9.08423E+03 -2.50488E+04 -6.26330E+03
 -1.75085E+04 -1.62217E+04 -5.47847E+03 -1.61527E+04  4.24520E+03 -1.40810E+04  1.23687E+04 -1.28422E+04
  2.17842E+04 -1.25557E+04  2.63654E+04  1.37279E+03  2.16013E+04  1.64619E+04  3.95813E+03  3.14879E+04
 -1.54838E+04  2.65045E+04 -2.55918E+04  8.93210E+03 -2.00816E+04 -1.02842E+04 -4.84238E+03 -1.39803E+04
  3.62807E+03 -3.54299E+03 -3.61174E+03  4.65112E+03 -1.25477E+04  5.69126E+03 -1.37199E+04 -3.68220E+03
 -8.29843E+03 -1.53196E+04  4.56846E+03 -1.94830E+04  1.18649E+04 -1.41870E+04  1.49585E+04 -2.28387E+03
  9.48530E+03  1.05611E+04 -1.33078E+03  1.56053E+04 -9.84078E+03  8.58157E+03 -1.48913E+04 -2.05140E+03
 -1.13480E+04 -1.39808E+04 -1.39206E+03 -1.77961E+04  8.63280E+03 -1.43930E+04  1.55789E+04 -6.77735E+03
  1.33371E+04 -4.57731E+02  1.01352E+04  3.10175E+03  4.83276E+03 -2.04931E+02  7.03043E+03 -2.39763E+03
  1.38902E+04  2.27252E+03  1.26412E+04  1.34787E+04  8.75496E+03  2.37919E+04 -3.11175E+03  2.58941E+04
 -1.64981E+04  1.88624E+04 -2.38511E+04  7.82073E+03 -2.41280E+04 -1.50986E+03 -2.08744E+04 -1.32357E+04
 -1.01570E+04 -1.88151E+04  6.79127E+03 -1.81585E+04  1.57722E+04 -1.05400E+04  1.49461E+04  4.02138E+03
  5.98836E+03  1.01236E+04 -7.04963E+03  1.00382E+04 -1.31036E+04  2.48393E+03 -9.16592E+03 -8.37571E+03
 -3.48897E+02 -1.14299E+04  6.52343E+03 -8.82097E+03  6.32009E+03 -1.23329E+03  2.86870E+03  6.22867E+03
 -5.19490E+03  1.69202E+03 -2.73767E+03 -4.40404E+03  1.55762E+02 -8.34705E+03  8.06800E+03 -9.80054E+03
  1.07100E+04 -3.75067E+03  1.06543E+04  3.02940E+03  1.01235E+04  9.58579E+03  3.72187E+03  1.19489E+04
 -2.51806E+03  1.52642E+04 -9.23983E+03  9.82040E+03 -1.11445E+04  3.21844E+03 -9.15755E+03 -1.04215E+03
 -4.75594E+03 -3.41677E+03 -2.83668E+02  1.83098E+03 -1.54103E+03  2.11159E+03 -3.65425E+03  3.39726E+03
 -8.16223E+03  6.38819E+01 -8.35512E+03 -7.76366E+03 -3.86024E+03 -1.09451E+04  3.43062E+03 -8.44088E+03
  7.02168E+03 -3.32993E+03  4.86101E+03  2.98535E+03 -5.38847E+02  3.03465E+03 -3.92121E+03  5.63229E+02
 -3.86316E+03 -4.11427E+03 -1.14100E+03 -7.41931E+03  3.48169E+03 -7.18206E+03  9.46145E+03 -2.79922E+03
  1.20603E+04  4.68836E+02  8.88312E+03  5.33524E+03  1.24451E+03  8.62918E+03 -5.12389E+03  8.65063E+03
 -6.98261E+03  2.75589E+03 -3.03604E+03 -1.02653E+03  1.62968E+03 -1.52950E+03  3.71696E+03 -1.25281E+03
  4.28402E+03  3.04621E+03  5.40067E+02  6.33770E+03 -4.02669E+03  4.62037E+03 -7.67591E+03  2.17938E+03
 -4.38612E+03 -3.72032E+03 -3.72138E+02 -6.83098E+03  3.72629E+03 -3.18195E+03  3.49928E+03  9.15003E+02
  4.57482E+02  3.37835E+03 -4.53266E+03  3.99000E+03 -3.50443E+03  1.96003E+03 -3.76366E+03 -1.66140E+03
 -3.04939E+03 -6.20668E+03  1.19630E+03 -5.21711E+03  6.09658E+03 -4.68464E+03  5.63693E+03 -5.52142E+02
  4.09423E+03  5.25357E+03 -7.74145E+02  7.97128E+03 -4.60992E+03  3.44598E+03 -4.63427E+03 -2.79824E+02
 -4.83114E+03 -4.71517E+03 -1.38476E+03 -5.21695E+03  2.84096E+03 -5.57844E+03  2.59419E+03 -2.97064E+03
  2.38169E+03 -3.57035E+02 -8.17016E+01  1.35654E+03 -1.78027E+02  1.38579E+00  3.78119E+02 -1.56103E+03
  3.73066E+03 -6.15646E+02  4.16746E+03 -5.18566E+02  4.48770E+03  2.43099E+03  5.39810E+03  6.47991E+03
 -3.00604E+02  7.70393E+03 -6.66438E+03  5.85332E+03 -8.88571E+03  1.00985E+03 -7.42726E+03 -2.14676E+03
 -3.19312E+03 -6.83226E+03  7.39403E+01 -4.84725E+03  1.84461E+03 -7.60353E+02  1.20099E+03 -1.91402E+03
  6.36976E+02 -2.25281E+03  2.65477E+03 -2.24277E+03  4.40054E+03 -2.55684E+03  2.46118E+03  9.18259E+02
  4.62813E+03  1.05035E+03  1.38642E+03  3.79731E+03 -1.40678E+03  2.26755E+03 -3.45171E+03  1.86818E+03
 -3.59926E+03 -9.93643E+02 -9.79130E+02 -2.07755E+03  4.26552E+01 -4.90085E+03  3.80608E+03 -5.17146E+03
  5.09397E+03 -3.33710E+03  5.34386E+03  3.00129E+02  4.15522E+03  3.41183E+03  6.04815E+02  6.24786E+03
 -2.69768E+03  5.47728E+03 -2.37205E+03  2.63620E+03 -1.03480E+03 -1.12180E+03 -1.16556E+02 -5.19734E+02
 -5.81881E+02  8.78878E+02 -4.92247E+02  1.36425E+03 -2.49575E+03  1.08716E+03 -3.84856E+03  5.56063E+01
 -1.22556E+03 -4.54387E+03  1.76175E+03 -4.05689E+03  1.60572E+03 -3.40965E+03  2.87645E+03  9.08631E+01
  3.58817E+03  2.58890E+03  1.94854E+03  1.52652E+03 -1.09270E+03  3.91725E+03 -2.50237E+03  2.11240E+03
 -3.52548E+03  7.00760E+02 -3.13173E+03 -2.13571E+03  2.30748E+02 -2.09065E+03  1.43620E+03 -1.86056E+03
  2.81003E+03  5.02140E+02  1.77957E+03  2.16267E+02  5.61719E+02  2.04167E+03  2.70273E+02  7.38586E+02
  2.21751E+03  8.48350E+02  1.44714E+02  3.23735E+02  6.89797E+01  1.36340E+03  1.37420E+03  2.54820E+03
 -9.75880E+02  2.62529E+03 -1.97043E+03  3.65318E+03 -3.05119E+03  6.88474E+02 -3.33852E+03 -1.23811E+03
 -3.34403E+02 -2.30520E+03 -2.64071E+02 -4.90651E+03  1.92746E+03 -2.43688E+03  3.91723E+03 -1.78160E+03
  2.11260E+03  2.43430E+03  8.52021E+02  1.86574E+03 -8.06873E+02  1.12543E+03 -7.35186E+02 -1.06701E+02
 -2.29806E+02 -1.59594E+03  1.19210E+03 -1.01506E+03  1.90650E+03 -1.32280E+03  1.67653E+03  6.25167E+02
 -2.05575E+02  4.99263E+02  8.00682E+02 -3.94463E+02  7.64068E+01  9.65108E+02  1.23171E+03 -7.47298E+01
  3.94609E+02 -2.92444E+02  1.79831E+03  4.59006E+02  9.14668E+01  2.65299E+03 -3.91303E+02  2.26854E+03
 -1.21709E+03  1.63237E+02 -2.13704E+03  1.90138E+02 -1.84251E+03 -2.71574E+02  2.33664E+02 -1.20274E+03
 -6.25371E+02 -1.51515E+03  1.20658E+03 -5.30325E+02  1.15755E+03  5.36244E+02 -4.07860E+01  1.05653E+03
 -2.60311E+03  6.96252E+02 -1.12364E+03 -2.48149E+03 -2.91163E+02 -2.79559E+03 -3.46357E+02 -1.72236E+03
 -3.23992E+02  2.05007E+01 -6.51011E+02 -3.28395E+02  1.56850E+03 -1.35289E+02  3.53585E+02  7.66674E+02
 -1.49553E+03 -1.48531E+03 -1.26878E+03 -4.20343E+02  1.11752E+03 -1.38908E+03  1.16936E+03 -1.02053E+03
  9.21947E+01  8.10764E+02  2.80187E+03  8.65912E+02  1.39790E+03  8.39392E+02 -6.81837E+01  9.34410E+02
 -1.22804E+03  6.34476E+02 -3.56143E+02 -4.10947E+02 -8.15941E+02 -1.76340E+03  1.65606E+02 -1.05370E+03
  7.85279E+02 -1.87649E+03  4.97574E+02  1.00100E+03 -3.02135E+01  8.42901E+02 -3.83479E+02  1.22843E+03
 -3.79763E+01  1.26997E+03 -2.74598E+02  2.92266E+02  1.13686E+03  1.14591E+02 -1.09688E+03  2.70815E+02
 -1.23424E+03  7.35536E+02 -1.97511E+03  9.54291E+01 -1.33889E+03 -8.31292E+02 -2.01365E+03 -9.30851E+02
 -2.58239E+03 -2.71694E+03 -2.48036E+02 -3.79400E+03  8.66939E+02 -2.64123E+03  2.84991E+03 -1.05518E+03
  2.03729E+03  5.28043E+02  2.16483E+02  1.29604E+03 -1.91292E+02  2.34702E+03 -1.68733E+03  1.11327E+03
 -4.68366E+02  1.22614E+03 -7.81894E+02 -2.14257E+02 -1.16813E+02 -2.48323E+02 -6.58058E+00 -1.20486E+03
 -2.22686E+03  7.05791E+02 -8.64224E+02  1.37903E+03  1.30056E+02 -3.44858E+02 -5.22955E+01 -1.27852E+03
  2.00999E+03 -1.13097E+03 -5.78718E+02  8.06191E+02  6.86444E+02  9.90156E+02  1.12248E+02  1.06931E+03
 -9.54283E+02  2.55472E+03 -1.12597E+03  1.47554E+03 -9.58382E+02  3.41400E+02 -1.20050E+03 -7.61452E+01
 -1.18015E+03 -1.54196E+03 -3.56487E+02 -1.31373E+03  4.35982E+02 -5.37154E+02  7.53498E+02 -8.63578E+02
 -2.28092E+02  4.59901E+02 -8.17318E+02 -3.47860E+02 -8.95912E+02  7.00095E+02 -1.04676E+02 -4.23992E+02
 -7.11285E+02  6.99648E+02  1.87169E+01  2.13417E+02 -5.41220E+02  4.52114E+02 -3.99561E+02 -1.63179E+02
 -1.56050E+03  3.68955E+02 -8.13080E+02  1.04213E+03 -5.40752E+02  4.99873E+01 -8.42901E+02  2.12407E+02
  3.28820E+02  1.43582E+02 -1.79838E+02  6.98647E+02  1.39231E+03 -1.36749E+03  4.42616E+02  3.08266E+01
 -4.48948E+02  2.08944E+02 -6.20026E+02  5.23389E+02  3.10596E+02 -7.91471E+00  4.27948E+02 -1.52671E+02
 -3.52700E+02  2.58085E+02 -7.22435E+02 -1.11015E+03 -7.77502E+01 -3.08101E+01  3.31613E+02  4.58062E+02
 -5.50806E+02 -2.24250E+02 -3.81260E+02 -1.69251E+02  5.58568E+02 -1.52611E+03  1.56751E+03 -2.60935E+02
  1.77488E+02  1.61294E+03  3.54102E+02  1.65499E+03  4.82108E+02  1.66689E+03  6.41132E+02  6.72331E+02
