 $NMID ID='MM_0lb_SNR200_16hz_g55_5.RAW', FMTDAT='(8E13.5)'
 TRAMP=1., VOLUME=1. $END
  3.09309E+05 -3.67146E+02  3.38367E+05  2.50329E+05  8.46283E+04  3.37727E+05 -1.32728E+05  2.51365E+05
 -1.89667E+05  8.20741E+04 -1.10843E+05 -3.26291E+04  1.56443E+03 -4.98857E+04  5.36518E+04  1.19314E+03
  3.42403E+04  5.31613E+04 -1.60045E+04  7.66835E+04 -6.02737E+04  6.40142E+04 -8.36827E+04  3.31420E+04
 -8.17543E+04 -1.14223E+04 -5.62493E+04 -5.16880E+04 -1.54157E+04 -6.94595E+04  2.73398E+04 -4.55543E+04
  3.98346E+04  4.25266E+03  1.57851E+04  4.68983E+04 -3.39831E+04  4.72304E+04 -6.76986E+04 -2.02427E+02
 -5.37370E+04 -5.65143E+04 -6.72191E+03 -7.64345E+04  3.40697E+04 -5.48060E+04  4.76753E+04 -1.71025E+04
  4.37591E+04  1.01749E+04  3.25744E+04  2.63819E+04  1.53158E+04  2.89263E+04 -4.19981E+03  2.72241E+04
 -2.14205E+04  1.16403E+04 -1.90744E+04 -5.58063E+03  5.92054E+03 -7.42552E+03  2.15152E+04  1.19122E+04
  6.48785E+03  3.57388E+04 -3.25253E+04  3.48523E+04 -6.39795E+04  2.46097E+03 -5.66174E+04 -4.31535E+04
 -1.23003E+04 -6.20476E+04  3.91321E+04 -4.52709E+04  5.75460E+04 -1.88975E+03  3.35874E+04  3.20004E+04
 -5.39121E+03  3.60337E+04 -3.01517E+04  1.53042E+04 -2.99081E+04 -3.95409E+03 -1.62864E+04 -1.06340E+04
 -8.09555E+03 -1.30755E+04  3.00951E+02 -1.78642E+04  7.86249E+03 -2.28721E+04  1.54488E+04 -1.38935E+04
  1.15836E+04  5.76786E+03 -8.23816E+03  1.22905E+04 -2.10904E+04 -4.43917E+03 -6.62274E+03 -3.32422E+04
  2.19730E+04 -4.29108E+04  4.76252E+04 -1.93692E+04  4.56243E+04  1.95419E+04  1.56008E+04  4.30706E+04
 -1.52337E+04  3.31179E+04 -2.60119E+04  1.59429E+03 -8.25119E+03 -2.82390E+04  2.10596E+04 -3.38015E+04
  3.98415E+04 -9.00781E+03  3.41918E+04  2.37115E+04  1.83253E+04  4.62945E+04 -8.51102E+03  4.78260E+04
 -2.92750E+04  3.29689E+04 -4.00534E+04  7.92846E+03 -4.11662E+04 -1.64159E+04 -2.24158E+04 -3.64958E+04
  7.13328E+03 -3.70422E+04  3.14953E+04 -1.36230E+04  2.78896E+04  1.11716E+04  5.06754E+03  1.92920E+04
 -1.25598E+04  9.17353E+03 -1.10932E+04 -7.18465E+03  6.41576E+03 -1.07367E+04  1.85916E+04  6.13172E+03
  1.32995E+04  2.19846E+04 -6.56082E+03  2.45472E+04 -2.32882E+04  1.15793E+04 -2.67458E+04 -4.15952E+03
 -1.86992E+04 -1.67608E+04 -8.20667E+03 -2.03631E+04  4.29654E+03 -1.94505E+04  1.42222E+04 -1.71245E+04
  2.58470E+04 -1.31881E+04  3.21809E+04  2.10700E+03  2.43721E+04  1.89991E+04  3.05768E+03  3.60584E+04
 -1.75950E+04  2.95601E+04 -2.81163E+04  1.08755E+04 -2.02735E+04 -1.06029E+04 -5.00335E+03 -1.36683E+04
  1.83777E+03 -3.53188E+03 -3.62652E+03  5.32930E+03 -1.63962E+04  5.91495E+03 -1.57107E+04 -7.48085E+03
 -8.90901E+03 -1.78369E+04  3.91921E+03 -2.14768E+04  1.40069E+04 -1.62798E+04  1.69093E+04 -1.55808E+03
  9.26479E+03  1.26683E+04 -8.85362E+02  1.70067E+04 -1.25587E+04  1.12948E+04 -1.85418E+04 -5.06433E+03
 -1.31629E+04 -1.68454E+04 -2.32734E+03 -2.16631E+04  1.01228E+04 -1.69139E+04  1.84575E+04 -7.38643E+03
  1.59467E+04  1.37781E+03  1.16962E+04  3.99562E+03  7.29883E+03  1.38886E+03  9.51745E+03 -1.97273E+03
  1.66445E+04  1.89371E+03  1.91408E+04  1.48494E+04  1.19782E+04  2.95268E+04 -3.69263E+03  3.10051E+04
 -1.90879E+04  2.53864E+04 -2.88844E+04  1.26184E+04 -3.13489E+04 -1.82867E+03 -2.63544E+04 -1.70534E+04
 -1.13415E+04 -2.48637E+04  8.73144E+03 -2.37640E+04  1.95599E+04 -1.09242E+04  1.79308E+04  4.34761E+03
  6.94129E+03  1.35378E+04 -7.93073E+03  1.28002E+04 -1.50759E+04  3.17344E+03 -1.23999E+04 -1.01359E+04
 -2.81962E+02 -1.54286E+04  7.12663E+03 -1.03923E+04  8.36174E+03 -1.53737E+03  1.49249E+03  5.43510E+03
 -6.71810E+03  1.56637E+03 -5.86629E+03 -5.18071E+03  3.14729E+02 -1.27660E+04  9.91564E+03 -1.27149E+04
  1.51376E+04 -7.07826E+03  1.61210E+04  1.81128E+03  1.32565E+04  1.25618E+04  5.97200E+03  1.86018E+04
 -2.49690E+03  2.08244E+04 -1.23570E+04  1.16187E+04 -1.44160E+04  2.74448E+03 -1.05259E+04 -2.44079E+03
 -4.77173E+03 -4.44840E+03 -4.41654E+02  1.69460E+03 -2.04309E+03  2.25727E+03 -4.64197E+03  2.45720E+03
 -9.83152E+03 -6.32568E+02 -1.07964E+04 -9.75338E+03 -3.27906E+03 -1.41877E+04  3.30690E+03 -1.07314E+04
  8.59154E+03 -3.95570E+03  5.52406E+03  1.60399E+03  1.46738E+03  3.58449E+03 -3.57024E+03 -5.19721E+02
 -4.65062E+03 -6.81178E+03 -1.98610E+03 -8.95288E+03  4.62816E+03 -1.10045E+04  1.28235E+04 -5.38598E+03
  1.61497E+04  1.04062E+02  1.11980E+04  9.47137E+03  1.76295E+03  1.07544E+04 -5.71224E+03  1.08731E+04
 -8.20459E+03  3.35979E+03 -4.28338E+03 -1.57566E+03  1.04490E+03 -3.13855E+03  5.87391E+03 -3.50557E+02
  4.29856E+03  4.38275E+03  1.19824E+03  9.30880E+03 -5.65206E+03  7.81469E+03 -9.28096E+03  2.00660E+03
 -4.83874E+03 -4.17141E+03 -3.05521E+02 -6.82264E+03  6.57682E+03 -5.32196E+03  5.48879E+03  2.39443E+03
  5.48227E+02  4.90173E+03 -5.36414E+03  7.60093E+03 -8.07168E+03  2.91923E+03 -6.53693E+03 -2.40708E+03
 -3.81827E+03 -7.77382E+03  2.76612E+03 -1.03005E+04  9.10198E+03 -6.50883E+03  8.95926E+03  2.12017E+03
  5.39873E+03  8.35341E+03 -4.69948E+02  9.09319E+03 -7.92366E+03  4.72060E+03 -8.08389E+03 -2.21761E+03
 -7.81298E+03 -5.51401E+03 -2.90901E+03 -5.51935E+03  2.36188E+03 -5.84160E+03  3.74767E+03 -3.53012E+03
  3.74005E+03  1.01396E+03 -7.16406E+02  1.10041E+03  6.01684E+02 -6.96981E+02  1.51070E+03 -2.50620E+03
  5.73774E+03 -2.23605E+03  8.18635E+03  1.26566E+03  7.23404E+03  4.23239E+03  6.40915E+03  1.09410E+04
 -1.96197E+03  1.12690E+04 -1.03056E+04  9.19335E+03 -1.27612E+04  1.26904E+03 -1.04292E+04 -4.20161E+03
 -5.35778E+03 -7.36245E+03 -2.48841E+02 -7.31505E+03  2.16277E+03 -4.02059E+03  2.51341E+03 -3.15980E+03
  2.63425E+03 -1.88911E+03  2.85441E+03 -2.82014E+03  3.92958E+03 -2.02583E+03  4.70824E+03  7.70756E+02
  5.29253E+03  2.10402E+03  1.01593E+03  4.72688E+03 -2.31044E+03  4.49768E+03 -4.83138E+03  3.89535E+03
 -7.95546E+03 -1.31599E+03 -3.59479E+03 -5.74973E+03 -1.30848E+03 -6.71350E+03  5.13125E+03 -7.89652E+03
  7.14238E+03 -5.05272E+03  9.22075E+03  1.21972E+03  6.71036E+03  5.88755E+03  8.18858E+02  7.81965E+03
 -4.02870E+03  7.40218E+03 -5.11268E+03  3.54606E+03 -4.01073E+03 -4.66728E+02 -1.93710E+03 -1.58263E+02
 -1.01347E+03  1.43237E+03 -7.81916E+02  1.29839E+03 -2.93083E+03  1.72992E+03 -5.16099E+03 -1.55382E+02
 -2.06416E+03 -5.57760E+03  1.52475E+02 -6.02401E+03  4.14931E+03 -5.70725E+03  5.11584E+03 -1.21966E+03
  5.31358E+03  1.71656E+03  2.82642E+03  4.36499E+03 -1.87350E+03  7.34650E+03 -3.73999E+03  4.89860E+03
 -6.36859E+03  1.00146E+03 -2.72941E+03 -3.24622E+03 -5.65397E+02 -4.57296E+03  2.04147E+03 -2.75284E+03
  4.48007E+03 -1.29616E+03  2.71099E+03  1.83159E+03  4.79249E+02  2.05561E+03  1.83089E+03  1.26966E+03
  2.67879E+03  1.44502E+03  2.12775E+03  9.62281E+02  8.15563E+02  2.23193E+03  2.66517E+03  2.78463E+03
 -1.43727E+03  4.10083E+03 -4.12427E+03  5.71547E+03 -3.45846E+03  3.44572E+03 -7.76300E+03 -1.28149E+03
 -2.67562E+03 -4.79951E+03 -7.51018E+02 -5.60688E+03  3.19606E+03 -4.02177E+03  5.20852E+03 -1.36531E+03
  3.48900E+03  3.18354E+03  5.03191E+02  2.48423E+03 -1.06321E+03  1.33143E+03 -1.43103E+03 -4.00515E+02
 -7.44521E+02 -3.26732E+03  2.19515E+03 -2.87753E+03  1.81105E+03 -3.31861E+02  2.85340E+03  8.48014E+02
 -1.17854E+02  4.53837E+02  9.52625E+02  9.34074E+02 -1.25272E+03 -7.19876E+01  1.74744E+03 -3.67943E+02
  7.69336E+02 -2.71863E+02  2.23580E+03  9.35092E+02  5.41967E+02  2.15790E+03 -1.12336E+03  2.67844E+03
 -2.29318E+03  2.09885E+03 -2.99367E+03  5.56250E+02 -3.01209E+03 -1.73213E+03 -8.44709E+02 -1.77376E+03
  3.89100E+02 -2.37208E+03  1.56917E+03 -1.85860E+02  1.91695E+03  1.39219E+03  1.08923E+02  7.36432E+02
 -2.07816E+03  3.44493E+02 -2.35834E+03 -1.25604E+03 -1.65468E+03 -3.89436E+03  4.93543E+02 -2.53181E+03
  2.71395E+02 -1.09171E+03  1.12035E+03  7.74751E+02  2.22451E+03 -2.53736E+02  8.66221E+02  5.76748E+02
 -4.79984E+02 -4.44972E+02 -4.96097E+02 -1.36793E+02  1.65186E+03 -1.55187E+03  2.60662E+03 -1.77158E+03
  2.28217E+03 -6.01379E+02  3.47652E+03  8.93845E+02  8.81303E+02  3.52953E+03 -1.48051E+03  2.95141E+03
 -1.54165E+03 -1.51063E+02 -2.58809E+03  2.66855E+02 -1.73289E+03 -1.63136E+03 -2.59245E+01 -1.34343E+03
  1.79061E+03 -1.90913E+03  8.80512E+02  7.86382E+02 -1.63520E+02  1.67868E+03 -1.40202E+03  1.84492E+03
 -7.33601E+02 -8.07023E+01 -1.21927E+03  1.33202E+03 -3.99826E+02  6.10305E+02 -9.44669E+02  1.03352E+03
 -1.68090E+03  2.96780E+03 -1.92272E+03  1.38893E+03 -3.25086E+03 -1.77791E+02 -3.46852E+03 -2.95970E+03
 -2.08727E+03 -3.84330E+03  1.14196E+03 -3.99414E+03  2.23208E+03 -4.73347E+03  4.00940E+03 -1.92868E+03
  3.97959E+03  4.55677E+02  2.63464E+03  3.08587E+03 -1.10308E+03  2.97624E+03 -8.21709E+02  2.51544E+03
 -1.95305E+03 -2.33257E+02 -4.01667E+02 -8.57819E+02 -4.36858E+02  5.81986E+02 -1.97829E+03  1.52067E+03
 -1.35600E+03  1.37526E+03 -1.12330E+03  6.19218E+02  6.76779E+02 -8.67743E+01  1.49716E+03 -5.68786E+02
  1.34620E+03 -1.19317E+03  1.62219E+03  1.77941E+02  1.52871E+03  1.46871E+03 -1.18206E+03  2.19232E+03
 -8.69770E+02  3.64059E+03 -2.37499E+03  2.21318E+03 -3.97877E+03 -8.46649E+02 -2.44245E+03 -2.67919E+03
 -7.61731E+02 -2.68326E+03  5.17295E+02 -2.63096E+03  9.74441E+02  8.04071E-02  1.67041E+03  9.67268E+02
  1.25105E+03  1.13015E+03  1.20513E+03  1.32504E+03  1.48429E+02  1.31844E+02  9.12021E+02 -2.68746E+02
  1.53087E+03  1.19682E+02  6.44342E+02  1.11993E+03  6.11843E+02  1.06307E+03  3.25802E+02  6.88561E+02
 -1.06368E+03  6.54393E+02 -1.72105E+03  3.94435E+02 -1.50605E+03 -7.14810E+02  2.80488E+02 -5.62674E+02
  1.65584E+03 -1.09478E+03  1.44917E+03  3.89483E+02  1.48423E+03 -3.92152E+02  1.28580E+03  2.21029E+03
  1.43914E+02  2.14695E+02 -1.11142E+03  2.09869E+03 -1.78285E+03  2.27063E+03 -3.17039E+02 -2.24895E+01
  1.11744E+02 -3.66783E+02  3.59891E+02 -1.34151E+02 -9.50755E+02  5.40419E+01  4.29388E+02 -1.43658E+03
 -8.02601E+02 -6.25264E+02 -1.24182E+03 -3.05233E+03  8.74352E+02 -2.52135E+03  1.71712E+03 -5.49519E+02
  8.61553E+02  9.44608E+02  9.22553E+02  1.76779E+03  5.54980E+02  1.87449E+03 -1.79149E+03  1.13934E+03
