 $NMID ID='MM_0lb_SNR200_16hz_g40_72.RAW', FMTDAT='(8E13.5)'
 TRAMP=1., VOLUME=1. $END
  3.10520E+05  2.65950E+02  3.36836E+05  2.50279E+05  8.37321E+04  3.37767E+05 -1.32715E+05  2.49158E+05
 -1.90566E+05  8.29111E+04 -1.10917E+05 -3.30526E+04  2.40872E+02 -5.11024E+04  5.40072E+04  3.15960E+02
  3.44517E+04  5.18544E+04 -1.68140E+04  7.50914E+04 -6.01505E+04  6.33424E+04 -8.36349E+04  3.27888E+04
 -8.06908E+04 -1.01477E+04 -5.53114E+04 -4.96984E+04 -1.51790E+04 -6.92805E+04  2.62284E+04 -4.53527E+04
  4.03006E+04  4.08197E+03  1.55766E+04  4.64398E+04 -3.34271E+04  4.60506E+04 -6.51503E+04 -3.59968E+02
 -5.19389E+04 -5.71335E+04 -5.14987E+03 -7.54428E+04  3.22017E+04 -5.44804E+04  4.66297E+04 -1.52596E+04
  4.20133E+04  1.00958E+04  3.15952E+04  2.41293E+04  1.55640E+04  2.86194E+04 -3.88760E+03  2.66686E+04
 -2.22100E+04  1.25072E+04 -1.89448E+04 -5.79610E+03  5.26152E+03 -8.17259E+03  2.20757E+04  1.16200E+04
  7.78906E+03  3.42271E+04 -3.11789E+04  3.34698E+04 -6.14772E+04  1.67436E+03 -5.49560E+04 -4.17293E+04
 -1.16827E+04 -6.11071E+04  3.90471E+04 -4.29580E+04  5.62699E+04 -2.03504E+03  3.21109E+04  3.09060E+04
 -6.14400E+03  3.39985E+04 -2.89673E+04  1.45022E+04 -2.78691E+04 -3.63978E+03 -1.49443E+04 -1.03687E+04
 -8.65636E+03 -1.18787E+04 -5.38368E+02 -1.69160E+04  6.96988E+03 -2.27396E+04  1.56963E+04 -1.27655E+04
  1.37274E+04  4.51914E+03 -6.44925E+03  1.30865E+04 -2.06449E+04 -3.04858E+03 -8.93772E+03 -3.14925E+04
  2.18081E+04 -4.17933E+04  4.49835E+04 -1.83920E+04  4.32870E+04  1.88135E+04  1.44396E+04  4.20307E+04
 -1.51010E+04  3.14298E+04 -2.35930E+04 -4.95336E+02 -8.33484E+03 -2.71596E+04  2.04739E+04 -3.29525E+04
  3.84926E+04 -8.56434E+03  3.36282E+04  2.27049E+04  1.60287E+04  4.35697E+04 -8.17368E+03  4.54489E+04
 -2.98959E+04  3.03363E+04 -3.88952E+04  8.99971E+03 -3.91346E+04 -1.57454E+04 -2.18448E+04 -3.51244E+04
  7.11940E+03 -3.51413E+04  2.97174E+04 -1.37091E+04  2.83797E+04  9.94336E+03  3.50257E+03  1.76773E+04
 -1.43285E+04  7.47822E+03 -9.96213E+03 -8.55197E+03  5.07983E+03 -1.02557E+04  1.67175E+04  5.88901E+03
  1.35434E+04  2.13118E+04 -5.14713E+03  2.41848E+04 -2.14149E+04  1.08520E+04 -2.54855E+04 -5.85429E+03
 -1.73323E+04 -1.65057E+04 -6.04808E+03 -1.77834E+04  2.50529E+03 -1.69815E+04  1.40716E+04 -1.61269E+04
  2.24432E+04 -1.07808E+04  2.93330E+04  1.47848E+03  2.12326E+04  1.74109E+04  3.98736E+03  3.33208E+04
 -1.70417E+04  2.99213E+04 -2.67426E+04  9.51289E+03 -2.08485E+04 -9.78141E+03 -4.61075E+03 -1.35252E+04
  2.88773E+03 -2.87287E+03 -3.13306E+03  6.11560E+03 -1.42143E+04  5.86666E+03 -1.42790E+04 -4.54076E+03
 -8.88104E+03 -1.62780E+04  4.71017E+03 -2.00664E+04  1.23451E+04 -1.46334E+04  1.56678E+04 -1.48370E+03
  9.42756E+03  1.15731E+04 -8.59916E+02  1.65439E+04 -1.21111E+04  9.30916E+03 -1.67650E+04 -2.03464E+03
 -1.32247E+04 -1.57036E+04 -1.07391E+03 -2.03650E+04  9.41602E+03 -1.69532E+04  1.63152E+04 -8.48024E+03
  1.57391E+04  7.65883E+02  1.13146E+04  4.86137E+03  4.92586E+03  9.42074E+02  8.17615E+03 -1.71798E+03
  1.40280E+04  4.19806E+03  1.60497E+04  1.37204E+04  9.67218E+03  2.74316E+04 -2.87863E+03  2.89773E+04
 -1.72066E+04  2.35583E+04 -2.77928E+04  1.05032E+04 -2.63328E+04 -2.31063E+03 -2.32035E+04 -1.62703E+04
 -1.12414E+04 -2.30973E+04  7.95535E+03 -2.05469E+04  1.83028E+04 -9.85919E+03  1.75921E+04  4.51687E+03
  7.23599E+03  1.24641E+04 -8.48998E+03  1.16455E+04 -1.46558E+04  2.41253E+03 -1.01395E+04 -1.01130E+04
  7.01342E+02 -1.33123E+04  6.38199E+03 -9.79276E+03  8.63129E+03 -2.14572E+03  1.66637E+03  5.12890E+03
 -7.20426E+03  2.53045E+03 -4.87173E+03 -4.57876E+03  4.72925E+01 -1.04359E+04  9.09328E+03 -9.96430E+03
  1.29601E+04 -5.96179E+03  1.46987E+04  3.04863E+03  1.25315E+04  1.03425E+04  5.42686E+03  1.73334E+04
 -2.47392E+03  1.98943E+04 -9.97115E+03  1.10817E+04 -1.23127E+04  3.54744E+03 -9.58254E+03 -2.97465E+03
 -5.14661E+03 -3.15700E+03 -9.44952E+02  7.69917E+01 -2.68756E+03  2.69863E+03 -2.97279E+03  4.72351E+03
 -9.56162E+03  1.45611E+02 -9.18209E+03 -7.70711E+03 -4.48073E+03 -1.27863E+04  4.16278E+03 -8.79087E+03
  8.13369E+03 -3.27046E+03  5.52246E+03  2.31399E+03  7.00351E+02  4.18530E+03 -3.73279E+03 -4.30182E+01
 -3.65477E+03 -6.62630E+03 -1.43079E+03 -8.64341E+03  4.39976E+03 -9.80536E+03  1.01703E+04 -4.62655E+03
  1.39914E+04  1.83777E+02  1.04642E+04  7.39473E+03  1.92456E+03  1.04515E+04 -6.25571E+03  1.00393E+04
 -7.63089E+03  4.15834E+03 -4.24719E+03 -1.96933E+03  4.19543E+02 -7.22183E+02  4.87727E+03 -1.24117E+03
  5.29767E+03  4.03090E+03  2.10758E+03  7.60435E+03 -5.74470E+03  7.99579E+03 -9.70360E+03  1.61633E+03
 -5.71416E+03 -4.94150E+03 -1.10608E+03 -8.27064E+03  4.75194E+03 -3.57452E+03  3.98042E+03  1.23212E+03
  1.55988E+03  4.52199E+03 -5.02059E+03  5.47650E+03 -6.51184E+03  2.69918E+03 -5.52567E+03 -2.30494E+03
 -3.44344E+03 -8.25655E+03  1.08427E+03 -9.00880E+03  7.64960E+03 -5.30551E+03  8.82648E+03  2.14550E+03
  5.69985E+03  6.07115E+03  2.95298E+02  7.99649E+03 -6.02660E+03  5.75947E+03 -6.68439E+03 -9.29193E+01
 -6.98455E+03 -6.08387E+03 -1.86091E+03 -5.46728E+03  3.18059E+03 -5.15523E+03  4.16898E+03 -2.67752E+03
  3.14948E+03  8.04760E+02  4.35051E+02  8.04306E+02  8.84753E+02  2.20187E+02  6.39953E+02 -3.92818E+03
  5.07799E+03 -2.25468E+03  5.44047E+03  1.44721E+03  5.89631E+03  4.90648E+03  5.82464E+03  1.04319E+04
 -1.14365E+03  1.09462E+04 -9.64900E+03  7.64233E+03 -1.16831E+04  2.29570E+03 -9.78752E+03 -2.63347E+03
 -5.85197E+03 -7.37913E+03 -7.83837E+02 -6.06089E+03  1.71020E+03 -2.74669E+03  2.43947E+03 -3.05026E+03
  7.72184E+02 -1.61078E+03  2.04182E+03 -1.58089E+03  4.60271E+03  4.64717E+01  4.09216E+03 -4.99001E+02
  5.07534E+03  1.02088E+03  2.07828E+03  5.20500E+03 -1.56527E+03  4.01540E+03 -5.11996E+03  2.97842E+03
 -6.10665E+03 -1.17544E+03 -3.39601E+03 -4.57410E+03  5.91037E+01 -6.29582E+03  3.35441E+03 -7.09198E+03
  7.24395E+03 -3.77143E+03  9.10125E+03  1.10808E+03  6.56813E+03  6.33329E+03  8.88059E+02  7.69941E+03
 -2.48225E+03  7.23867E+03 -4.36920E+03  2.69353E+03 -1.77856E+03 -8.18816E+02 -2.15198E+03 -5.70824E+02
 -8.04986E+02  2.59081E+02 -6.96455E+02  1.00164E+02 -1.87381E+03  1.88054E+03 -4.81004E+03 -3.55933E+02
 -2.28176E+03 -4.24214E+03  6.89908E+02 -5.65516E+03  3.16883E+03 -6.03519E+03  5.47128E+03 -1.11337E+03
  6.35515E+03  2.95781E+03  1.86694E+03  4.00639E+03 -1.43266E+03  5.37498E+03 -4.73126E+03  3.74236E+03
 -6.14161E+03  1.15052E+02 -4.75160E+03 -3.54977E+03  1.62058E+02 -5.08743E+03  1.81730E+03 -3.48253E+03
  4.05364E+03 -1.00803E+03  2.48161E+03  5.51900E+02  1.28714E+03  3.08146E+03  1.55739E+03  5.49595E+02
  2.72248E+03  1.11401E+03  1.55609E+03  1.37870E+03  1.45950E+03  4.52340E+03  2.65195E+03  3.08534E+03
 -1.45443E+03  3.89150E+03 -3.17953E+03  3.71694E+03 -4.98948E+03  1.61840E+03 -5.61975E+03 -1.80762E+03
 -2.52173E+03 -5.36992E+03  1.01768E+03 -7.21576E+03  3.46364E+03 -2.99762E+03  4.07551E+03 -1.00307E+03
  2.96318E+03  1.54657E+03  6.97346E+02  2.94788E+03 -2.47965E+03  1.64867E+03 -2.90075E+03  1.13369E+02
 -6.45668E+01 -2.91375E+03  2.09717E+03 -2.28003E+03  1.40544E+03 -1.09161E+03  3.45020E+03  7.15122E+02
  1.72624E+03 -8.77229E+02  1.42259E+03  1.48913E+02  4.40556E+01  9.95888E+02  8.21922E+02 -4.84439E+02
  1.94851E+03 -2.00075E+02  1.91698E+03  3.93947E+02  8.86972E+02  2.74738E+03  5.46202E+02  4.82494E+03
 -1.93833E+03  1.77951E+03 -4.45815E+03  3.92096E+00 -2.80249E+03 -7.37112E+02  6.39013E+01 -2.20619E+03
  1.68255E+02 -1.39632E+03  1.11964E+03 -9.42597E+02  7.40578E+02  9.23262E+02 -7.55795E+01  2.42797E+03
 -1.79510E+03  1.03710E+03 -2.95521E+03 -1.90841E+03 -4.85845E+02 -3.11490E+03  3.29989E+02 -1.98860E+03
  9.72520E+02 -9.13492E+02  1.80117E+03  6.45712E+02  9.61371E+02  9.32626E+01  6.01189E+02  2.34652E+03
 -5.11333E+02  1.50354E+02 -2.63902E+02 -1.36571E+03  6.36104E+02 -1.51295E+03  2.71656E+03 -2.54611E+03
  3.04017E+03  2.16617E+03  3.97221E+03  1.56023E+03  4.78273E+02  3.07168E+03  3.32834E+02  4.04510E+03
 -2.29162E+03  6.31362E+02 -3.12263E+03  3.36248E+02 -1.21837E+03 -1.34708E+03 -1.79101E+02 -1.20617E+03
  1.73465E+03 -7.42199E+02  1.31608E+03  1.81446E+03  3.84111E+02  1.51337E+03  7.75151E+02  2.37730E+03
 -1.96912E+03  1.22654E+03  1.30038E+02  7.46414E+02 -5.71776E+02  6.61287E+02 -6.37965E+02 -2.53876E+02
 -1.91862E+02  2.11457E+03 -1.13607E+03  8.33837E+02 -2.42657E+03  1.57118E+02 -2.79862E+03  1.61981E+02
 -2.55269E+03 -3.74681E+03  1.64649E+03 -4.52292E+03  1.12523E+03 -4.12425E+03  3.66437E+03 -1.48316E+03
  3.83145E+03 -8.00606E+02  2.09697E+03  2.13623E+03 -7.65379E+02  2.72782E+03 -3.76700E+02  2.03648E+03
 -1.43066E+03  1.61165E+03 -8.83433E+02 -4.15746E+02 -4.60019E+02  2.42680E+02 -4.78958E+02  2.93684E+02
 -1.58918E+03  5.64137E+02 -1.79882E+03 -3.82611E+02 -8.12764E+02 -1.38496E+03 -5.15443E+02 -1.69715E+03
  2.12144E+03 -1.56748E+03 -4.93972E+02 -7.60346E+01  1.97330E+03  2.04135E+03 -1.11948E+03  3.39143E+03
 -2.22254E+03  3.05023E+03 -3.77388E+03  2.21262E+03 -3.42873E+03  1.13826E+02 -2.22790E+03 -2.25945E+03
 -1.25326E+03 -2.06552E+03  2.10499E+03 -2.75076E+03  1.80948E+03 -1.13714E+03  1.89102E+03  5.21120E+02
  1.74854E+03  8.03812E+02  2.80968E+02  8.61565E+02 -2.07552E+02 -2.40243E+02  5.95509E+01 -2.48766E+02
  8.38207E+02  1.23648E+02  1.09496E+03  6.98777E+02  3.07615E+02  2.02046E+03 -2.52572E+02  1.17830E+03
 -1.02904E+03  1.74167E+03 -1.83976E+03  9.98668E+02 -1.07390E+03 -1.23632E+03  3.60488E+02 -1.63458E+03
  1.18357E+03 -2.33641E+03  1.51391E+03 -1.56986E+02  1.09752E+03 -1.00669E+03  8.88660E+02  2.25546E+03
  8.65592E+02  2.21514E+03 -3.22995E+02  1.43894E+03 -6.73033E+02  2.00116E+02 -1.41855E+03 -4.42040E+02
 -9.52974E+02 -1.05134E+03 -8.25232E+02  1.01885E+03 -1.06446E+03  2.46729E+01 -1.94077E+03  1.72508E+02
 -7.71118E+02 -5.12883E+02 -6.28443E+02 -1.77091E+03  1.23340E+03 -3.49689E+03  5.95166E+02  5.81183E+02
  1.30009E+03 -1.36968E+02  7.06824E+02  7.60813E+01  5.85423E+02  1.71908E+03 -4.99107E+02  1.60642E+03
