 $NMID ID='MM_0lb_SNR200_10hz_g40_26.RAW', FMTDAT='(8E13.5)'
 TRAMP=1., VOLUME=1. $END
  3.10289E+05  4.71497E+02  3.37800E+05  2.51044E+05  8.52450E+04  3.37696E+05 -1.32936E+05  2.52039E+05
 -1.90767E+05  8.31699E+04 -1.11737E+05 -3.38716E+04 -1.76138E+02 -4.96683E+04  5.49403E+04 -9.63693E+02
  3.54134E+04  5.23285E+04 -1.72321E+04  7.66690E+04 -6.03334E+04  6.31126E+04 -8.53708E+04  3.19951E+04
 -8.17327E+04 -1.00291E+04 -5.75821E+04 -5.12028E+04 -1.52288E+04 -6.87751E+04  2.79343E+04 -4.60511E+04
  4.10516E+04  3.94894E+03  1.72754E+04  4.86781E+04 -3.42368E+04  4.75485E+04 -6.75230E+04  3.32051E+01
 -5.35984E+04 -5.68464E+04 -6.17593E+03 -8.00279E+04  3.42732E+04 -5.63814E+04  4.86325E+04 -1.73005E+04
  4.43175E+04  1.12947E+04  3.25197E+04  2.54416E+04  1.62882E+04  2.84217E+04 -5.16557E+03  2.77902E+04
 -2.17127E+04  1.23980E+04 -1.86770E+04 -5.59077E+03  7.89865E+03 -7.86602E+03  2.26055E+04  1.27273E+04
  8.38112E+03  3.78798E+04 -3.06797E+04  3.67516E+04 -6.43107E+04  1.18936E+03 -5.84070E+04 -4.38212E+04
 -1.42678E+04 -6.47706E+04  4.08086E+04 -4.68258E+04  6.08571E+04 -3.51931E+03  3.58439E+04  3.43328E+04
 -4.79984E+03  3.75445E+04 -3.18613E+04  1.73599E+04 -3.15262E+04 -6.11865E+03 -1.86736E+04 -1.17037E+04
 -8.13256E+03 -1.44621E+04  2.92939E+02 -1.92615E+04  7.65083E+03 -2.48120E+04  1.52279E+04 -1.30953E+04
  1.19976E+04  4.78464E+03 -1.04487E+04  1.11479E+04 -2.24829E+04 -6.76883E+03 -8.30019E+03 -3.64992E+04
  2.45353E+04 -4.43300E+04  5.12232E+04 -2.00297E+04  4.63533E+04  1.93380E+04  1.72440E+04  4.66948E+04
 -1.56642E+04  3.55433E+04 -2.64103E+04  1.44947E+03 -1.20441E+04 -3.00240E+04  2.19603E+04 -3.63458E+04
  4.33574E+04 -1.06156E+04  3.90131E+04  2.60973E+04  1.81503E+04  5.03756E+04 -1.04658E+04  5.41940E+04
 -3.45492E+04  3.58241E+04 -4.45163E+04  1.03848E+04 -4.68646E+04 -1.80798E+04 -2.49843E+04 -3.98359E+04
  7.62848E+03 -4.08571E+04  3.17944E+04 -1.53001E+04  2.93309E+04  1.17778E+04  6.17981E+03  2.07280E+04
 -1.40296E+04  1.02444E+04 -1.12340E+04 -8.16822E+03  5.79282E+03 -9.89218E+03  1.82789E+04  4.40489E+03
  1.50863E+04  2.19874E+04 -8.03243E+03  2.79135E+04 -2.27221E+04  1.30186E+04 -2.98286E+04 -5.41963E+03
 -2.45787E+04 -1.72911E+04 -1.09944E+04 -2.41904E+04  5.00792E+03 -2.51578E+04  1.75600E+04 -2.09814E+04
  2.99081E+04 -1.28228E+04  3.54766E+04  5.35601E+03  2.55759E+04  2.27857E+04  4.19192E+03  3.97078E+04
 -1.85363E+04  3.31868E+04 -2.90424E+04  1.13572E+04 -2.26430E+04 -9.93332E+03 -5.90850E+03 -1.34059E+04
  1.28395E+03 -3.60692E+03 -6.02426E+03  7.49794E+03 -1.58780E+04  4.70284E+03 -1.91079E+04 -7.91829E+03
 -1.14348E+04 -2.20481E+04  4.48377E+03 -2.56174E+04  1.80167E+04 -1.92764E+04  2.08287E+04 -2.27896E+03
  1.31473E+04  1.48007E+04 -4.58638E+02  2.09495E+04 -1.47255E+04  1.38188E+04 -2.01681E+04 -4.50725E+03
 -1.53650E+04 -1.96668E+04 -1.57625E+03 -2.58248E+04  1.20951E+04 -2.20365E+04  2.01158E+04 -1.15142E+04
  2.03923E+04  1.00908E+03  1.48208E+04  5.59461E+03  8.54780E+03  1.66239E+03  1.07370E+04 -1.94041E+03
  1.87899E+04  1.43655E+03  2.34712E+04  1.67978E+04  1.48737E+04  3.55402E+04 -5.35710E+03  3.85080E+04
 -2.26853E+04  3.45120E+04 -3.76285E+04  1.75063E+04 -3.92080E+04 -2.78555E+03 -3.25929E+04 -2.40148E+04
 -1.35387E+04 -3.41529E+04  1.15893E+04 -3.04245E+04  2.66499E+04 -1.45425E+04  2.42654E+04  7.87973E+03
  8.82542E+03  1.68939E+04 -1.02379E+04  1.39429E+04 -1.79325E+04  2.60171E+03 -1.42332E+04 -1.20809E+04
 -1.52502E+03 -1.88702E+04  9.73573E+03 -1.41555E+04  1.26051E+04 -1.65919E+03  2.36770E+03  7.12782E+03
 -7.80286E+03  3.41986E+03 -6.61163E+03 -5.98460E+03 -9.72067E+02 -1.61486E+04  1.04187E+04 -1.79055E+04
  2.03450E+04 -8.49884E+03  2.28749E+04  4.08442E+03  1.96685E+04  1.54001E+04  9.14964E+03  2.68815E+04
 -7.28297E+03  2.79667E+04 -1.83335E+04  1.75846E+04 -2.03927E+04  3.38922E+03 -1.28290E+04 -5.46264E+03
 -6.95148E+03 -6.93843E+03  3.92317E+02  3.60941E+01 -3.15547E+03  1.89408E+03 -6.81884E+03  4.98408E+03
 -1.38719E+04 -1.37599E+03 -1.23741E+04 -1.06857E+04 -6.34127E+03 -1.70628E+04  6.16678E+03 -1.43059E+04
  1.04306E+04 -5.89136E+03  9.05893E+03  3.41296E+03  1.03379E+02  4.87832E+03 -8.27110E+03  2.79033E+02
 -6.41729E+03 -8.82791E+03 -1.00313E+03 -1.40320E+04  7.38268E+03 -1.49081E+04  1.74074E+04 -9.60014E+03
  2.13898E+04  5.26874E+02  1.49729E+04  1.30639E+04  4.18720E+03  1.80328E+04 -7.83794E+03  1.38929E+04
 -1.11689E+04  4.31921E+03 -6.84443E+03 -2.79034E+03  1.33687E+03 -3.80039E+03  8.77059E+03 -1.76578E+03
  7.65027E+03  5.01703E+03  1.07147E+03  1.07823E+04 -8.31640E+03  1.03353E+04 -1.42922E+04  2.76192E+03
 -8.46277E+03 -7.10795E+03 -4.11795E+02 -1.16634E+04  7.68417E+03 -4.54883E+03  8.45190E+03  1.71009E+03
  2.91566E+03  8.46941E+03 -6.33530E+03  9.63701E+03 -1.02900E+04  4.60874E+03 -1.23348E+04 -4.16679E+03
 -5.12417E+03 -1.35693E+04  3.14391E+03 -1.63643E+04  1.20765E+04 -1.11936E+04  1.53591E+04  2.22730E+03
  8.79506E+03  1.19863E+04 -1.00610E+03  1.45970E+04 -1.14813E+04  8.40606E+03 -1.16383E+04 -8.82093E+02
 -9.56101E+03 -7.84264E+03 -3.68478E+02 -1.11549E+04  4.53117E+03 -7.74579E+03  6.12736E+03 -4.67882E+03
  3.88870E+03  2.78461E+03  2.41926E+02  2.54578E+03  1.12790E+03 -2.96366E+03  2.47536E+03 -7.18108E+03
  1.18457E+04 -5.78321E+03  1.44152E+04  1.78193E+03  1.42640E+04  1.01929E+04  8.26656E+03  1.82058E+04
 -3.47258E+03  2.11871E+04 -1.80810E+04  1.51237E+04 -2.13590E+04  1.85839E+03 -1.70188E+04 -6.67947E+03
 -9.82176E+03 -1.46345E+04 -8.61767E+01 -1.27567E+04  4.58229E+03 -7.53456E+03  5.73933E+03 -5.28543E+03
  4.25502E+03 -2.97500E+03  3.41464E+03 -3.36258E+03  5.70631E+03 -3.71063E+03  8.69977E+03  3.85657E+02
  8.60219E+03  1.00056E+03  4.68439E+03  8.49334E+03 -2.57114E+03  9.86123E+03 -8.90950E+03  5.91702E+03
 -1.36616E+04  6.81134E+02 -7.98957E+03 -1.03812E+04 -4.85230E+02 -1.21648E+04  7.89637E+03 -1.40762E+04
  1.28984E+04 -7.82975E+03  1.60306E+04  1.55664E+03  1.14999E+04  1.02760E+04  2.10087E+03  1.53325E+04
 -6.05258E+03  1.18984E+04 -9.83642E+03  3.64893E+03 -6.36614E+03 -7.25110E+02 -2.84407E+03 -1.40809E+03
 -9.71041E+01  7.63988E+02 -2.90725E+03  2.20071E+03 -5.98319E+03  7.83509E+02 -8.49081E+03 -1.56817E+03
 -6.80840E+03 -9.00735E+03 -6.10959E+01 -1.11603E+04  9.04276E+03 -1.05193E+04  1.33631E+04 -4.40375E+03
  1.27472E+04  6.32028E+03  4.81570E+03  1.25490E+04 -2.44325E+03  1.25291E+04 -8.16091E+03  8.03456E+03
 -1.01976E+04  5.37939E+02 -8.78880E+03 -6.69477E+03 -6.08387E+02 -1.02501E+04  4.83478E+03 -8.85196E+03
  7.12138E+03 -2.88357E+03  5.45270E+03  2.39389E+03  9.87227E+02  3.23419E+03  2.85189E+03  2.26800E+03
  1.69592E+03  1.22501E+03  1.94281E+03  1.42845E+03  3.27768E+03  4.98091E+03  3.68763E+03  6.61110E+03
 -3.07833E+03  9.49847E+03 -9.48267E+03  1.06925E+04 -1.25117E+04  1.89602E+03 -1.41752E+04 -5.91719E+03
 -6.30005E+03 -1.15345E+04  1.68163E+03 -1.45914E+04  7.61926E+03 -7.97588E+03  9.99082E+03 -2.43907E+03
  8.58174E+03  5.74749E+03  2.03415E+03  6.07476E+03 -4.38537E+03  4.30285E+03 -5.70040E+03 -2.35181E+01
 -3.59227E+03 -5.53175E+03  1.51180E+03 -5.26314E+03  4.34830E+03 -2.40382E+03  5.75552E+03  2.11022E+03
  3.64206E+03  1.82840E+03  1.85150E+03  2.14609E+03 -2.39167E+03  7.42208E+02  2.85540E+03  4.66316E+02
  1.76948E+03 -5.17915E+02  5.28543E+03  1.47530E+03  2.50384E+03  7.93260E+03  5.31394E+02  8.14012E+03
 -7.10904E+03  5.65903E+03 -9.09948E+03  8.13404E+02 -6.52146E+03 -3.57061E+03 -3.00989E+03 -6.06695E+03
  1.41364E+03 -4.53228E+03  2.90024E+03 -2.92521E+03  3.49262E+03  2.70463E+03 -3.01751E+03  4.58380E+03
 -5.64001E+03  1.50509E+03 -5.58200E+03 -3.47914E+03 -2.45481E+03 -6.51711E+03  1.06630E+03 -6.83690E+03
  5.44638E+03 -4.09659E+03  5.49958E+03 -6.53177E+02  3.74506E+03  9.41940E+02  5.54661E+02  4.25033E+03
 -1.47052E+03  1.18506E+03 -3.80820E+03 -1.47802E+03  2.16103E+03 -6.80008E+03  6.36895E+03 -3.90356E+03
  5.80445E+03  8.49305E+02  6.73021E+03  5.33749E+03  1.86794E+03  8.59492E+03 -2.98601E+03  7.01733E+03
 -4.90725E+03  2.68552E+03 -6.56568E+03 -1.17700E+03 -2.86080E+03 -5.78588E+03  4.05751E+02 -6.27842E+03
  4.71675E+03 -3.62969E+03  4.18562E+03  1.97854E+03  9.24254E+02  4.06328E+03 -2.76655E+02  5.17506E+03
 -1.36384E+03  1.32474E+03 -2.87774E+03  8.46790E+02 -2.72554E+02  1.10228E+03 -1.33219E+03  2.10700E+03
 -3.78590E+03  2.96981E+03 -4.80260E+03  2.28052E+03 -7.12656E+03 -1.15379E+02 -9.54905E+03 -5.62188E+03
 -4.26037E+03 -1.12164E+04  3.18002E+03 -1.19748E+04  8.04363E+03 -8.86670E+03  1.23255E+04 -3.69057E+03
  9.08014E+03  1.37504E+03  7.72999E+03  6.68458E+03 -5.88360E+01  8.82213E+03 -3.91432E+03  7.16261E+03
 -4.35236E+03  2.99944E+03 -2.90580E+03 -1.32631E+03 -6.60817E+02  6.35429E+02 -1.45848E+03 -8.18206E+02
 -1.48036E+03  6.23261E+02 -2.45517E+03 -1.17501E+03 -4.96638E+02 -2.85311E+03  1.01776E+03 -3.61590E+03
  4.04467E+03 -1.41061E+03  5.49227E+03  2.60583E+02  6.83336E+03  4.55334E+03  1.22030E+03  8.06603E+03
 -3.79870E+03  9.74630E+03 -7.58088E+03  5.31892E+03 -1.12156E+04 -1.80063E+03 -7.63131E+03 -5.11367E+03
 -1.66040E+03 -7.91621E+03  1.28546E+03 -7.28277E+03  5.53195E+03 -3.18326E+03  4.21347E+03 -7.89992E+02
  1.60409E+03  2.47809E+03 -3.86177E+02  2.87020E+03 -1.53198E+03 -1.15512E+03  6.12906E+02 -2.58727E+03
  2.75834E+03 -2.00036E+03  3.56605E+03  1.17251E+02  2.38341E+03  3.51468E+03 -4.96402E+01  4.90432E+03
 -5.64781E+03  3.16981E+03 -5.26092E+03  1.00210E+03 -4.44403E+03 -3.44944E+03 -1.02367E+03 -6.39084E+03
  3.28503E+03 -5.80925E+03  3.85083E+03 -1.23470E+03  6.28966E+03  1.32932E+03  4.39141E+03  5.49581E+03
  2.45742E+02  5.71974E+03 -1.35822E+03  4.75918E+03 -2.56633E+03  2.15201E+03 -3.59393E+03 -6.07343E+02
 -1.46002E+03 -2.05082E+03  5.84772E+02  7.04195E+02 -1.89242E+03 -8.55867E+01 -4.12456E+03 -4.63163E+02
 -4.49090E+03 -2.99862E+03 -2.19991E+03 -6.05299E+03  1.07654E+03 -6.44380E+03  3.59385E+03 -2.16512E+03
  4.11023E+03  3.08524E+02  3.13426E+03  3.64624E+03  1.60607E+02  5.40598E+03 -4.56332E+03  1.83029E+03
