 $NMID ID='MM_0lb_SNR200_20hz_g40_19.RAW', FMTDAT='(8E13.5)'
 TRAMP=1., VOLUME=1. $END
  3.10547E+05  5.61463E+02  3.36855E+05  2.50299E+05  8.44242E+04  3.37506E+05 -1.33608E+05  2.49373E+05
 -1.90453E+05  8.11029E+04 -1.09875E+05 -3.28729E+04  1.18901E+03 -4.98440E+04  5.37055E+04  2.17209E+02
  3.53790E+04  5.21061E+04 -1.66544E+04  7.48862E+04 -5.96434E+04  6.36757E+04 -8.18150E+04  3.14847E+04
 -7.94223E+04 -1.10594E+04 -5.52537E+04 -4.99412E+04 -1.52112E+04 -6.83913E+04  2.76074E+04 -4.43909E+04
  3.88114E+04  4.03256E+03  1.50019E+04  4.62370E+04 -3.41958E+04  4.62018E+04 -6.51079E+04 -1.77226E+03
 -5.26664E+04 -5.60860E+04 -6.34060E+03 -7.44575E+04  3.16376E+04 -5.21258E+04  4.55631E+04 -1.57205E+04
  4.13196E+04  1.15084E+04  3.06152E+04  2.39895E+04  1.55521E+04  2.84624E+04 -4.92110E+03  2.66434E+04
 -2.14145E+04  1.27399E+04 -1.97628E+04 -3.58012E+03  3.88925E+03 -8.05232E+03  2.07016E+04  1.07685E+04
  7.10480E+03  3.22641E+04 -2.87060E+04  3.35003E+04 -5.90264E+04  1.41477E+03 -5.41599E+04 -3.98009E+04
 -1.36127E+04 -6.06087E+04  3.70203E+04 -4.27243E+04  5.39400E+04 -1.32618E+03  2.93876E+04  2.94625E+04
 -8.11813E+03  3.11820E+04 -2.77818E+04  1.17877E+04 -2.75494E+04 -6.61400E+03 -1.26570E+04 -9.79748E+03
 -7.19869E+03 -9.78264E+03 -1.85834E+03 -1.55096E+04  6.52524E+03 -2.11442E+04  1.50945E+04 -1.37439E+04
  1.22131E+04  3.48281E+03 -5.14331E+03  1.28465E+04 -1.98316E+04 -1.54769E+03 -7.80926E+03 -2.84273E+04
  1.95015E+04 -3.98054E+04  4.29272E+04 -1.75902E+04  4.08585E+04  1.75631E+04  1.38286E+04  4.07347E+04
 -1.47458E+04  3.01771E+04 -2.31268E+04  1.04926E+03 -7.33379E+03 -2.64888E+04  2.07774E+04 -2.95207E+04
  3.74561E+04 -6.40237E+03  3.01646E+04  2.31010E+04  1.36973E+04  3.99313E+04 -7.40202E+03  4.33908E+04
 -2.65004E+04  2.83851E+04 -3.51293E+04  7.24294E+03 -3.49280E+04 -1.46306E+04 -2.04435E+04 -3.20874E+04
  7.04941E+03 -3.19242E+04  2.80204E+04 -1.23912E+04  2.59278E+04  1.08307E+04  3.41968E+03  1.78824E+04
 -1.23225E+04  6.96899E+03 -9.05542E+03 -7.97894E+03  5.92514E+03 -9.72949E+03  1.72764E+04  6.67622E+03
  1.20726E+04  2.09194E+04 -6.44579E+03  2.27966E+04 -2.11423E+04  7.85411E+03 -2.40053E+04 -6.59584E+03
 -1.51560E+04 -1.58226E+04 -3.95789E+03 -1.44675E+04  3.58469E+03 -1.25776E+04  1.04470E+04 -1.26073E+04
  1.87125E+04 -1.08830E+04  2.58363E+04  1.18348E+03  2.12919E+04  1.40555E+04  3.54478E+03  3.08543E+04
 -1.61046E+04  2.70966E+04 -2.55981E+04  9.27430E+03 -1.95691E+04 -1.08296E+04 -4.73618E+03 -1.45718E+04
  2.79921E+03 -5.44278E+03 -2.11004E+03  5.34434E+03 -1.19352E+04  4.53757E+03 -1.16818E+04 -4.66048E+03
 -8.22587E+03 -1.46309E+04  3.98831E+03 -1.79026E+04  1.15977E+04 -1.23480E+04  1.38957E+04 -1.67640E+03
  7.72142E+03  1.06979E+04 -1.38423E+03  1.45071E+04 -1.00067E+04  8.38784E+03 -1.42533E+04 -2.89448E+03
 -9.49884E+03 -1.32640E+04 -1.95642E+03 -1.75688E+04  7.56052E+03 -1.44220E+04  1.46002E+04 -6.04601E+03
  1.30629E+04  6.23796E+02  9.62053E+03  3.79592E+03  4.21198E+03 -2.33593E+02  7.17897E+03 -1.34041E+03
  1.33153E+04  2.38601E+03  1.27266E+04  1.20845E+04  7.37284E+03  2.14666E+04 -2.99152E+03  2.33563E+04
 -1.43308E+04  1.78499E+04 -2.08139E+04  7.16629E+03 -2.11324E+04 -1.76251E+03 -1.93834E+04 -1.31819E+04
 -9.97654E+03 -1.77806E+04  6.01207E+03 -1.65658E+04  1.57421E+04 -1.00472E+04  1.48338E+04  2.63277E+03
  6.48936E+03  1.01266E+04 -5.91969E+03  1.03767E+04 -1.15120E+04  3.01546E+03 -1.00030E+04 -7.32978E+03
 -1.52514E+02 -1.22087E+04  6.11576E+03 -8.46026E+03  7.21987E+03 -1.14747E+03  8.64720E+02  4.79698E+03
 -5.94773E+03  1.48367E+03 -3.19024E+03 -4.96845E+03  2.80171E+02 -8.68800E+03  7.24954E+03 -8.93924E+03
  1.01098E+04 -3.55573E+03  1.06410E+04  3.22714E+03  8.49260E+03  9.43753E+03  3.31941E+03  1.17305E+04
 -8.34381E+02  1.40621E+04 -7.50163E+03  9.19563E+03 -9.65838E+03  3.12363E+03 -7.75453E+03 -1.19363E+03
 -4.46442E+03 -2.39728E+03 -1.53549E+02  1.48753E+03 -2.08069E+03  2.30748E+03 -2.68363E+03  3.50710E+03
 -6.64205E+03  1.04389E+01 -6.72798E+03 -6.80924E+03 -3.34939E+03 -1.03981E+04  2.19492E+03 -7.77805E+03
  6.70322E+03 -3.17624E+03  5.19348E+03  2.32258E+03 -9.66811E+02  2.57118E+03 -3.28849E+03  4.40653E+02
 -2.12273E+03 -4.23048E+03 -4.90407E+02 -6.91813E+03  3.76579E+03 -6.93170E+03  9.36595E+03 -2.82018E+03
  1.04407E+04  2.31154E+03  7.60121E+03  4.97037E+03  1.54335E+03  6.16129E+03 -4.37677E+03  6.83118E+03
 -5.99161E+03  3.10104E+03 -3.66302E+03 -1.13257E+03  1.66547E+03 -3.65229E+02  5.05478E+03 -9.36219E+02
  3.77118E+03  2.68070E+03  8.98116E+02  4.43848E+03 -3.96592E+03  5.45546E+03 -6.37336E+03  2.57810E+03
 -3.62787E+03 -2.76258E+03  5.35326E+02 -7.20237E+03  3.60591E+03 -2.89355E+03  1.92045E+03  1.35127E+03
  4.22215E+02  2.63852E+03 -3.51481E+03  4.68739E+03 -2.73212E+03  1.21892E+03 -3.36684E+03 -6.32898E+02
 -2.05805E+03 -5.62937E+03  1.94795E+03 -5.85271E+03  5.51559E+03 -3.36036E+03  4.21578E+03  6.10876E+02
  3.15508E+03  4.28432E+03  1.05782E+03  7.33847E+03 -3.63438E+03  4.12770E+03 -4.64470E+03  7.36646E+02
 -4.69516E+03 -3.74345E+03 -1.33297E+03 -4.12977E+03  1.99381E+03 -4.33020E+03  2.14194E+03 -2.90138E+03
  2.66601E+03  8.18563E+02 -1.04865E+02  1.39887E+03  8.64935E+02 -1.07121E+03  1.87943E+02 -1.04880E+03
  2.39690E+03 -1.22596E+03  3.41689E+03 -4.76669E+02  4.16687E+03  2.44812E+03  4.47528E+03  6.50776E+03
 -3.53868E+02  5.70521E+03 -5.79248E+03  5.79332E+03 -8.51568E+03  7.07633E+02 -6.24354E+03 -1.75737E+03
 -4.07158E+03 -5.27984E+03 -1.16954E+03 -4.66592E+03  1.64317E+03 -1.53871E+03  6.78240E+02 -2.21735E+03
  1.14665E+03 -2.06285E+03  2.60922E+03 -2.73118E+03  4.22548E+03 -2.06059E+03  3.45754E+03  7.73020E+02
  3.06179E+03  1.37845E+03  9.02807E+02  3.15769E+03 -1.33131E+03  1.36378E+03 -3.59751E+03  1.59338E+03
 -2.85310E+03 -6.56968E+02 -9.52999E+02 -2.32405E+03  1.45534E+02 -3.66201E+03  1.98580E+03 -3.00990E+03
  3.65354E+03 -3.22969E+03  5.99514E+03 -4.17098E+02  4.09889E+03  3.95773E+03  1.36649E+03  6.04864E+03
 -1.40363E+03  4.73055E+03 -3.16292E+03  1.68372E+03 -1.55334E+03 -4.27840E+02 -1.28070E+02  9.46661E+01
 -9.26886E+01 -1.14119E+02 -9.65182E+02  2.91366E+03 -2.49430E+03  1.00540E+03 -4.23607E+03 -3.19514E+02
 -6.53850E+02 -3.19704E+03  7.97400E+02 -2.82651E+03  2.06289E+03 -4.27236E+03  3.09200E+03 -3.51602E+02
  2.81701E+03  1.88437E+03  1.17385E+03  3.26837E+03 -7.53381E+02  4.07244E+03 -2.35161E+03  1.96527E+03
 -2.81692E+03  1.06676E+03 -2.49126E+03 -1.87254E+03  2.35979E+02 -2.09945E+03  1.09632E+03 -1.09173E+03
  2.14759E+03 -1.81255E+03  1.72385E+03 -1.82138E+02  1.63578E+02  2.02887E+03  1.15789E+03  1.23294E+03
  1.80696E+03 -3.96942E+02  3.09087E+02  1.09333E+03  7.39331E+02  2.19155E+03  9.73742E+02  1.23662E+03
 -1.69460E+03  2.61903E+03 -1.48455E+03  3.52587E+03 -2.35264E+03  1.13483E+03 -3.22795E+03 -7.60626E+01
 -1.03804E+03 -2.55812E+03  6.61628E+02 -4.43216E+03  1.00262E+03 -1.49354E+03  1.95137E+03 -5.87226E+02
  2.42928E+03  1.62521E+03  5.99028E+02  2.36724E+03 -6.30356E+02  1.71327E+02 -9.68329E+02  2.90624E+02
 -1.70785E+02 -7.63256E+02  1.89354E+03 -1.75609E+03  1.12451E+03 -5.51852E+02  1.46939E+03  5.03522E+02
  1.07173E+03  4.95690E+02  8.32780E+02 -1.31884E+02  2.36450E+00  6.54338E+02  5.81213E+02 -8.87343E+02
 -3.98452E+02 -5.02759E+02  1.37766E+03  1.08342E+03  2.08040E+02  2.51103E+03 -7.53203E+02  2.28426E+03
 -2.00457E+03  1.29923E+03 -2.15603E+03 -6.38092E+02 -1.36445E+03 -9.53910E+02 -1.11627E+02 -1.11627E+03
  7.88613E+02 -1.06115E+03  1.08655E+01 -5.56535E+02  4.43767E+02  1.03558E+02 -1.33389E+03  1.23119E+03
 -2.19811E+02 -1.62771E+02 -6.10441E+02 -1.49492E+03 -7.74300E+02 -8.17284E+02 -1.12876E+02 -1.16067E+03
  2.93959E+02 -4.16744E+02  1.32302E+03 -3.02002E+02  5.05015E+02 -4.81355E+02 -4.37749E+02  2.02765E+03
 -8.04302E+02  4.01849E+02  1.34248E+02 -8.40156E+01  8.14146E+02 -8.29048E+02  4.76069E+02 -3.87465E+02
  9.68192E+02  8.97351E+02  3.03886E+03 -4.97778E+02  5.46141E+02  9.56421E+01 -2.32212E+02  1.10199E+03
 -7.83408E+02 -3.10099E+02 -2.34578E+03 -4.46615E+02 -1.44249E+03 -1.16441E+03 -1.80147E+01  8.98454E+02
  8.20486E+02 -2.09793E+02  2.05524E+03  8.68692E+02 -5.79950E+02  6.14312E+02  7.99989E+02  1.16038E+03
 -1.56072E+03  1.14757E+03 -4.77383E+02  5.18679E+02  2.33394E+02 -2.23994E+02 -1.45128E+03  7.97162E+02
 -3.47606E+02  7.76082E+02 -1.46338E+03  1.20387E+02 -1.01000E+03 -3.21590E+02 -2.08135E+03 -1.23689E+03
 -1.22826E+03 -1.34036E+03 -7.48484E+02 -1.62105E+03  1.61846E+03 -1.81135E+03  2.85813E+03 -9.14986E+02
  2.43176E+03 -1.68638E+02  1.33498E+03  1.40250E+03 -3.83677E+02  5.88650E+01  2.85047E+02  1.46507E+03
  1.25481E+02 -1.40346E+02 -5.10332E+02  1.07428E+01  7.10437E+02  2.83416E+02 -1.18199E+03 -2.79774E+02
 -1.20863E+03  5.71069E+02 -5.73309E+02 -4.08302E+02  4.35867E+01 -9.69401E+02 -5.94779E+02 -2.29079E+02
  9.46459E+02 -1.24083E+03 -4.17530E+02  8.25622E+02  1.94986E+03 -4.36956E+01  4.91851E+02  1.20343E+03
 -1.71900E+03  2.89336E+03 -7.53396E+02  1.24025E+03 -2.73491E+03 -2.60688E+02 -1.19683E+03 -1.72502E+03
 -1.05244E+03 -1.44499E+03  2.19837E+02 -3.38613E+02  4.10362E+02 -1.26185E+03  1.19562E+03  1.60875E+02
  1.10768E+03 -5.60008E+02  7.97616E+02 -9.65451E+02  3.07651E+02 -1.12198E+02 -2.27622E+02  1.82644E+02
  3.26081E+02  4.14044E+02 -3.13190E+02 -7.91452E+02  3.48953E+02  1.64834E+02  7.25482E+02 -4.20761E+02
 -7.41261E+02  5.29936E+02  5.65871E+02 -6.21120E+02 -8.38760E+02  7.44105E+02 -6.49625E+02 -4.67951E+02
  5.17213E+02  5.85015E+02  9.01557E+02 -1.09424E+01  4.77732E+02 -3.39434E+02  7.83024E+02  1.21984E+03
  6.98620E+02  6.94850E+02 -8.05296E+02  6.54445E+02 -5.27609E+02  1.89783E+02 -3.35344E+02 -7.70085E+02
 -9.94648E+02  2.97336E+02 -8.54543E+01  4.49941E+02 -3.60338E+02  6.82591E+02  2.37665E+02  2.88461E+02
 -7.38711E+02  5.55249E+02  4.00395E+01 -1.03882E+03  2.91005E+02 -1.18636E+03 -1.04108E+02 -1.26799E+03
  9.24510E+02  3.88466E+02 -1.03124E+03 -2.73422E+02 -1.10885E+02  1.68021E+03 -7.92110E+02  5.82689E+02
