 $NMID ID='MM_0lb_SNR200_12hz_g50_6.RAW', FMTDAT='(8E13.5)'
 TRAMP=1., VOLUME=1. $END
  3.08918E+05  1.66875E+03  3.37349E+05  2.50574E+05  8.49137E+04  3.37921E+05 -1.33213E+05  2.52092E+05
 -1.89328E+05  8.25498E+04 -1.11544E+05 -3.31686E+04  8.40452E+02 -5.15201E+04  5.45103E+04  2.41042E+02
  3.53078E+04  5.31521E+04 -1.60152E+04  7.59398E+04 -5.91505E+04  6.33906E+04 -8.52489E+04  3.23343E+04
 -8.18719E+04 -1.18738E+04 -5.79855E+04 -5.23049E+04 -1.55245E+04 -7.11158E+04  2.91671E+04 -4.69722E+04
  3.97767E+04  3.62944E+03  1.62767E+04  4.79438E+04 -3.54125E+04  4.70104E+04 -6.58485E+04  1.24464E+02
 -5.45716E+04 -5.88481E+04 -6.27279E+03 -7.78771E+04  3.42655E+04 -5.61961E+04  4.77613E+04 -1.93739E+04
  4.45355E+04  1.18876E+04  3.24540E+04  2.49055E+04  1.59377E+04  2.90123E+04 -4.93590E+03  2.83966E+04
 -2.19583E+04  1.19337E+04 -1.87305E+04 -5.24508E+03  6.51596E+03 -7.50033E+03  2.24377E+04  1.13404E+04
  6.02559E+03  3.49063E+04 -3.36436E+04  3.56254E+04 -6.55000E+04  2.78624E+03 -5.81279E+04 -4.31831E+04
 -1.28410E+04 -6.42259E+04  3.98803E+04 -4.72688E+04  5.91110E+04 -1.71960E+03  3.58114E+04  3.35516E+04
 -5.92649E+03  3.64626E+04 -3.03269E+04  1.66738E+04 -3.02522E+04 -3.95086E+03 -1.72763E+04 -1.10471E+04
 -7.52711E+03 -1.44686E+04 -6.82698E+02 -1.88263E+04  7.38865E+03 -2.37883E+04  1.60549E+04 -1.32179E+04
  1.07798E+04  5.43092E+03 -9.85231E+03  1.29457E+04 -2.17468E+04 -4.97282E+03 -8.40945E+03 -3.48924E+04
  2.36637E+04 -4.54678E+04  4.92147E+04 -2.15819E+04  4.57385E+04  1.99183E+04  1.76814E+04  4.50907E+04
 -1.65048E+04  3.50843E+04 -2.59015E+04  2.65943E+03 -9.73702E+03 -2.66807E+04  2.27833E+04 -3.44934E+04
  4.16342E+04 -1.03099E+04  3.81939E+04  2.29109E+04  1.94500E+04  4.79169E+04 -9.07899E+03  5.23244E+04
 -3.27519E+04  3.57143E+04 -4.52200E+04  9.99039E+03 -4.50165E+04 -1.80171E+04 -2.42230E+04 -3.90870E+04
  5.92949E+03 -3.99500E+04  3.27786E+04 -1.53459E+04  3.02408E+04  1.13253E+04  3.66665E+03  2.06924E+04
 -1.39963E+04  7.54875E+03 -1.09661E+04 -8.37084E+03  5.71006E+03 -1.05877E+04  1.72593E+04  6.99466E+03
  1.51937E+04  2.27351E+04 -6.25749E+03  2.61447E+04 -2.24449E+04  1.34520E+04 -2.82120E+04 -3.74549E+03
 -2.21649E+04 -1.85449E+04 -1.04130E+04 -2.22620E+04  4.84253E+03 -2.17385E+04  1.70995E+04 -1.99446E+04
  2.91748E+04 -1.29172E+04  3.41160E+04  2.93398E+03  2.55424E+04  2.14733E+04  3.89527E+03  3.88350E+04
 -1.80518E+04  3.19530E+04 -2.89600E+04  1.09216E+04 -2.11046E+04 -9.22520E+03 -5.01983E+03 -1.38457E+04
  1.05322E+03 -1.98561E+03 -5.56550E+03  7.62792E+03 -1.87567E+04  4.05859E+03 -1.62273E+04 -8.07480E+03
 -1.09293E+04 -2.03527E+04  5.38314E+03 -2.43090E+04  1.72260E+04 -1.72481E+04  2.00935E+04 -1.51564E+03
  1.20459E+04  1.51083E+04 -1.56454E+03  2.16017E+04 -1.41052E+04  1.05570E+04 -2.02826E+04 -5.20939E+03
 -1.53302E+04 -1.91219E+04 -2.01062E+03 -2.54768E+04  1.04258E+04 -2.06719E+04  2.03525E+04 -9.48886E+03
  1.90840E+04 -6.82932E+02  1.42527E+04  5.55302E+03  6.78022E+03  1.91586E+03  1.13037E+04 -2.14557E+03
  1.86885E+04  1.31195E+03  2.15607E+04  1.66063E+04  1.51775E+04  3.30636E+04 -4.09786E+03  3.84990E+04
 -2.12076E+04  3.12645E+04 -3.62738E+04  1.69259E+04 -3.90157E+04 -2.87161E+03 -3.04592E+04 -2.22001E+04
 -1.27143E+04 -3.15927E+04  1.03347E+04 -2.76479E+04  2.42866E+04 -1.18633E+04  2.20709E+04  7.04643E+03
  7.46570E+03  1.80486E+04 -9.48822E+03  1.25989E+04 -1.78667E+04  2.65591E+03 -1.34213E+04 -1.20955E+04
  3.54047E+02 -1.71442E+04  9.19721E+03 -1.11551E+04  1.16263E+04 -1.90754E+03  2.57707E+03  7.10105E+03
 -6.79656E+03  3.95064E+03 -6.31085E+03 -6.21535E+03 -1.03662E+03 -1.44238E+04  9.60361E+03 -1.69760E+04
  1.88295E+04 -8.76258E+03  2.14405E+04  2.47571E+03  1.81309E+04  1.64437E+04  9.42267E+03  2.31441E+04
 -3.81836E+03  2.61043E+04 -1.66378E+04  1.57367E+04 -1.89563E+04  4.12959E+03 -1.31805E+04 -4.11077E+03
 -6.48894E+03 -6.10379E+03 -1.10066E+03  1.05560E+02 -3.14518E+03  2.57442E+03 -4.16685E+03  4.56606E+03
 -1.18615E+04  6.15559E+02 -1.35239E+04 -1.05455E+04 -6.36813E+03 -1.67518E+04  5.61178E+03 -1.39690E+04
  9.79420E+03 -6.24388E+03  6.04448E+03  3.14143E+03  6.27530E+02  4.74770E+03 -7.38245E+03 -5.66533E+02
 -5.89421E+03 -8.27917E+03 -1.44905E+03 -1.24592E+04  6.53063E+03 -1.36131E+04  1.71858E+04 -6.42070E+03
  1.95163E+04  1.00964E+03  1.30663E+04  1.09964E+04  3.95803E+03  1.61711E+04 -8.89177E+03  1.28461E+04
 -1.05859E+04  4.99649E+03 -5.37246E+03 -3.03872E+03  2.72930E+02 -3.86330E+03  6.50005E+03 -9.05861E+02
  5.99180E+03  4.31226E+03  1.17830E+03  9.34575E+03 -8.06915E+03  9.89578E+03 -1.29552E+04  3.11454E+03
 -7.71803E+03 -7.03498E+03 -1.19327E+01 -1.08554E+04  6.83518E+03 -4.90603E+03  7.49948E+03  2.89504E+03
  1.22075E+03  7.69585E+03 -5.63602E+03  8.19914E+03 -1.05446E+04  3.71530E+03 -9.92212E+03 -2.41695E+03
 -6.74883E+03 -1.29347E+04  3.82358E+03 -1.30158E+04  1.12410E+04 -8.77912E+03  1.31146E+04  2.40336E+03
  7.89297E+03  1.11573E+04  1.34929E+02  1.36375E+04 -9.47049E+03  6.18500E+03 -9.76682E+03 -8.10789E+02
 -8.33808E+03 -7.34158E+03 -7.61073E+02 -8.74213E+03  4.55445E+03 -7.01271E+03  6.35409E+03 -3.80248E+03
  5.03400E+03  2.49015E+02  1.58860E+02  2.09279E+03  2.54949E+02 -3.02394E+03  1.08886E+03 -5.63116E+03
  6.89614E+03 -2.62913E+03  1.13579E+04  1.57396E+03  1.07046E+04  6.79745E+03  7.46139E+03  1.55910E+04
 -2.51527E+03  1.73557E+04 -1.47940E+04  1.24793E+04 -1.94332E+04  2.50045E+03 -1.48301E+04 -6.35962E+03
 -8.56468E+03 -1.28917E+04 -2.61166E+02 -1.08914E+04  2.54869E+03 -6.68928E+03  4.02678E+03 -3.69611E+03
  2.87332E+03 -1.34438E+03  3.22302E+03 -2.73462E+03  5.52598E+03 -2.53423E+03  6.73627E+03 -2.65323E+02
  8.65101E+03  1.76949E+03  4.98393E+03  7.29653E+03 -1.59987E+03  7.44366E+03 -6.38573E+03  5.81876E+03
 -1.12649E+04 -1.08869E+03 -5.91535E+03 -8.20872E+03 -5.73879E+01 -1.16178E+04  5.06180E+03 -9.80811E+03
  1.12581E+04 -6.23240E+03  1.37403E+04  1.38563E+03  8.81959E+03  8.47904E+03  1.73431E+03  1.25892E+04
 -5.14886E+03  1.10715E+04 -7.69043E+03  2.50098E+03 -5.97215E+03 -2.63036E+03 -2.54473E+03 -1.22285E+03
 -6.07417E+02  3.84265E+02 -3.57260E+03  2.75509E+03 -5.29071E+03  1.00788E+03 -7.22331E+03 -9.85987E+02
 -5.67207E+03 -6.87107E+03  5.96202E+01 -1.01992E+04  6.34054E+03 -9.83025E+03  1.00085E+04 -3.09702E+03
  1.04490E+04  3.83722E+03  3.20818E+03  8.48986E+03 -1.60279E+03  1.01820E+04 -7.27776E+03  6.78432E+03
 -9.73730E+03 -2.59300E+02 -7.05393E+03 -6.19500E+03 -1.29156E+03 -7.80328E+03  4.23082E+03 -6.53196E+03
  7.82183E+03 -2.14407E+03  3.37692E+03  1.20557E+03  2.17723E+03  3.92491E+03  5.53385E+02  6.42965E+02
  1.25950E+03 -4.30440E+02  2.69503E+03  8.74794E+02  2.92832E+03  4.07078E+03  2.17818E+03  5.73551E+03
 -1.06774E+03  7.53071E+03 -6.78858E+03  8.93846E+03 -1.09377E+04  2.92795E+03 -1.13188E+04 -4.13735E+03
 -5.18051E+03 -8.27922E+03  1.82740E+03 -1.26853E+04  7.66224E+03 -7.01370E+03  8.24080E+03 -1.14663E+03
  7.00083E+03  3.15696E+03  1.71552E+03  5.62045E+03 -2.45483E+03  4.44449E+03 -4.14158E+03 -1.60945E+03
 -5.26819E+02 -5.16404E+03  2.19693E+03 -5.37399E+03  4.37316E+03 -2.09477E+03  4.56517E+03  3.04343E+02
  6.86410E+02  6.81560E+02  1.19753E+03  1.79504E+03 -2.20553E+03  1.29500E+03  1.55431E+03 -7.40275E+02
  1.08899E+03  2.78991E+02  5.10505E+03  2.16927E+03  2.58734E+03  5.87278E+03 -1.29139E+03  8.31714E+03
 -3.84044E+03  3.88821E+03 -6.08300E+03  7.74891E+02 -5.25964E+03 -2.61789E+03 -2.04936E+03 -3.63025E+03
  2.15455E+02 -3.77924E+03  2.41817E+03 -1.20693E+03  1.70361E+03  2.94516E+03 -2.23105E+03  3.35673E+03
 -4.31734E+03  2.05764E+03 -4.40173E+03 -2.12971E+03 -2.51577E+03 -6.41477E+03  1.42348E+03 -5.07329E+03
  1.93207E+03 -2.37284E+03  4.59838E+03  1.01570E+03  2.76073E+03  1.20471E+03 -3.49838E+02  2.64164E+03
 -1.31303E+03  6.34092E+02 -2.15138E+03 -1.21553E+03  2.48152E+03 -3.82197E+03  4.09245E+03 -2.86227E+03
  5.52202E+03  1.11260E+03  6.14452E+03  3.77119E+03  1.98473E+03  6.29466E+03 -2.02609E+03  5.79181E+03
 -4.40502E+03  3.04283E+03 -4.83762E+03 -2.32907E+02 -2.96412E+03 -4.26778E+03  1.58917E+03 -2.58437E+03
  3.97851E+03 -3.12581E+03  2.00569E+03  2.35164E+03  6.18631E+02  4.00283E+03 -2.13300E+03  3.25577E+03
 -1.99383E+03  1.87629E+03 -4.54695E+02  1.15876E+03 -1.23503E+03  1.21679E+03 -5.71840E+02  1.72991E+03
 -1.27247E+03  3.19952E+03 -4.04456E+03  8.47127E+02 -5.37813E+03  1.61605E+03 -6.69002E+03 -3.55354E+03
 -2.62718E+03 -8.31969E+03  1.64529E+03 -9.28259E+03  4.64404E+03 -6.22157E+03  8.13925E+03 -2.18997E+03
  8.62008E+03  1.66590E+03  5.31745E+03  4.61469E+03 -1.43696E+02  6.57926E+03 -1.33266E+03  4.59873E+03
 -2.95851E+03  3.85634E+03 -8.41859E+02  2.98390E+01 -1.21990E+02 -1.46792E+03 -1.29537E+03 -4.67702E+02
 -1.44200E+03 -3.71884E+02 -8.78416E+02 -1.26812E+03 -4.52742E+02 -2.29839E+03  5.54058E+02 -2.61944E+03
  3.22446E+03 -1.99662E+03  3.75801E+03 -3.54036E+02  4.71805E+03  3.55548E+03  1.68239E+03  5.08239E+03
 -2.76005E+03  5.47762E+03 -6.42471E+03  4.28110E+03 -7.78897E+03  1.19844E+03 -4.88493E+03 -4.14007E+03
 -2.80349E+03 -5.56199E+03  2.32884E+02 -5.66951E+03  4.84832E+03 -3.70244E+03  3.48571E+03 -4.47720E+02
  1.32549E+03  7.30428E+02 -9.06552E+02  2.78599E+03 -7.76687E+02 -2.39508E+02 -6.79101E+02 -2.32518E+03
  2.08253E+03  1.67496E+03  1.39064E+03  1.08074E+03  9.86360E+02  2.04307E+03  8.82256E+02  2.76552E+03
 -3.01102E+03  3.11952E+03 -5.11038E+03 -4.38607E+01 -3.94195E+03 -3.07857E+03 -6.72065E+01 -4.53935E+03
  2.89771E+03 -3.48066E+03  4.12003E+03 -1.14644E+03  4.76918E+03  1.25455E+03  2.96272E+03  4.06907E+03
  3.76191E+02  2.45311E+03 -2.67025E+03  2.16621E+03 -2.13622E+03  1.97360E+03 -2.35247E+03  4.52021E+02
 -9.86398E+02 -8.55199E+02 -1.11543E+03 -2.32486E+02 -2.40818E+03  4.12746E+02 -2.80772E+03 -1.90355E+02
 -3.64411E+03 -1.65429E+02  6.95926E+02 -2.52308E+03  1.66816E+03 -3.01258E+03  2.46659E+03 -1.34201E+03
  3.14146E+03 -5.36873E+02  5.70468E+02  2.16683E+03 -9.41133E+02  2.27368E+03 -2.79014E+03  3.30386E+03
