 $NMID ID='MM_0lb_SNR200_17hz_g45_59.RAW', FMTDAT='(8E13.5)'
 TRAMP=1., VOLUME=1. $END
  3.09925E+05  1.78748E+02  3.36505E+05  2.50192E+05  8.38252E+04  3.36834E+05 -1.33083E+05  2.50687E+05
 -1.89408E+05  8.37073E+04 -1.11037E+05 -3.26268E+04  2.17520E+03 -5.04280E+04  5.39716E+04  3.48659E+02
  3.46853E+04  5.14977E+04 -1.62897E+04  7.44820E+04 -6.03830E+04  6.23238E+04 -8.41438E+04  3.11824E+04
 -7.87002E+04 -1.09094E+04 -5.66771E+04 -4.97821E+04 -1.57346E+04 -6.76372E+04  2.61251E+04 -4.55481E+04
  4.00009E+04  4.03403E+03  1.62816E+04  4.62138E+04 -3.36669E+04  4.77378E+04 -6.53588E+04 -1.11707E+03
 -5.27852E+04 -5.61386E+04 -6.38571E+03 -7.52999E+04  3.30294E+04 -5.36918E+04  4.63459E+04 -1.65396E+04
  4.16014E+04  1.07788E+04  3.00549E+04  2.53722E+04  1.55220E+04  2.85361E+04 -5.96445E+03  2.70736E+04
 -2.34678E+04  1.17693E+04 -1.91766E+04 -3.65566E+03  4.48396E+03 -7.54877E+03  2.19644E+04  1.10551E+04
  6.08933E+03  3.42593E+04 -3.08846E+04  3.41025E+04 -6.06527E+04  3.10675E+03 -5.60000E+04 -4.09995E+04
 -1.26319E+04 -6.13719E+04  3.95031E+04 -4.30023E+04  5.51390E+04 -2.67869E+03  3.26253E+04  3.14903E+04
 -6.27990E+03  3.39504E+04 -2.89861E+04  1.46385E+04 -2.73202E+04 -5.14686E+03 -1.51498E+04 -1.05406E+04
 -7.71386E+03 -1.22876E+04 -1.08434E+03 -1.73968E+04  7.18458E+03 -2.29306E+04  1.47318E+04 -1.31680E+04
  1.24184E+04  5.20257E+03 -6.39066E+03  1.35956E+04 -2.04105E+04 -2.78879E+03 -7.95591E+03 -3.08223E+04
  2.13107E+04 -4.11226E+04  4.51201E+04 -1.88102E+04  4.23171E+04  1.93190E+04  1.43856E+04  4.31028E+04
 -1.45539E+04  3.23967E+04 -2.38988E+04  2.22522E+03 -7.47464E+03 -2.60488E+04  2.16405E+04 -3.20001E+04
  3.78013E+04 -7.82025E+03  3.21660E+04  2.37677E+04  1.57177E+04  4.30660E+04 -7.40600E+03  4.63678E+04
 -2.92577E+04  3.07174E+04 -3.83572E+04  8.39978E+03 -3.92699E+04 -1.56822E+04 -2.18837E+04 -3.55725E+04
  7.08745E+03 -3.55112E+04  3.08320E+04 -1.35718E+04  2.78976E+04  1.19041E+04  2.15234E+03  1.81290E+04
 -1.35962E+04  7.85635E+03 -8.70729E+03 -6.60275E+03  5.73898E+03 -9.96943E+03  1.78374E+04  6.07194E+03
  1.22981E+04  2.10574E+04 -5.93726E+03  2.41669E+04 -2.18247E+04  9.85594E+03 -2.54147E+04 -5.77507E+03
 -1.70657E+04 -1.67889E+04 -6.19193E+03 -1.72272E+04  3.63360E+03 -1.59835E+04  1.31196E+04 -1.47829E+04
  2.26336E+04 -1.17442E+04  2.97988E+04  1.79980E+03  2.18454E+04  1.68269E+04  4.89596E+03  3.31485E+04
 -1.55453E+04  2.93571E+04 -2.60527E+04  1.00536E+04 -1.98038E+04 -1.04585E+04 -4.33307E+03 -1.33599E+04
  1.45963E+03 -4.42530E+03 -3.57329E+03  5.53203E+03 -1.35957E+04  5.09703E+03 -1.44492E+04 -4.72382E+03
 -9.27119E+03 -1.61384E+04  5.24849E+03 -1.92870E+04  1.32480E+04 -1.58982E+04  1.43488E+04 -1.02815E+03
  9.70311E+03  1.05349E+04 -1.57130E+03  1.74836E+04 -1.17395E+04  9.28909E+03 -1.54163E+04 -4.33609E+03
 -1.28043E+04 -1.56097E+04 -9.94530E+02 -1.91443E+04  8.32337E+03 -1.59971E+04  1.62406E+04 -7.88127E+03
  1.50779E+04  1.77086E+03  1.05741E+04  3.69407E+03  5.44521E+03  9.87761E+02  8.52067E+03 -9.73843E+02
  1.55593E+04  3.32344E+03  1.61412E+04  1.31344E+04  9.78021E+03  2.45184E+04 -2.85903E+03  2.76357E+04
 -1.68893E+04  2.15721E+04 -2.63622E+04  1.08394E+04 -2.65811E+04 -1.59993E+03 -2.34918E+04 -1.52148E+04
 -1.11162E+04 -2.24306E+04  7.20904E+03 -2.08859E+04  1.70911E+04 -1.12503E+04  1.63454E+04  3.76867E+03
  6.12083E+03  1.22027E+04 -6.50330E+03  1.02042E+04 -1.36004E+04  2.86639E+03 -1.04890E+04 -8.44741E+03
 -6.31253E+02 -1.36075E+04  6.34596E+03 -1.07212E+04  8.24300E+03 -1.62657E+03  1.13833E+03  6.44931E+03
 -6.27573E+03  1.95441E+03 -4.61645E+03 -5.79157E+03 -5.02508E+02 -1.10688E+04  7.87433E+03 -1.12024E+04
  1.35609E+04 -6.21921E+03  1.27481E+04  2.38690E+03  1.10363E+04  9.39263E+03  5.10843E+03  1.48035E+04
 -1.16045E+03  1.71840E+04 -1.12932E+04  1.08057E+04 -1.22277E+04  3.47308E+03 -8.67539E+03 -1.93175E+03
 -5.13095E+03 -3.22896E+03 -1.26157E+03  1.12986E+03 -2.35173E+03  1.80136E+03 -3.93327E+03  3.63146E+03
 -8.58420E+03 -7.50190E+02 -8.80526E+03 -7.69299E+03 -2.33276E+03 -1.17923E+04  3.83776E+03 -9.22722E+03
  8.37469E+03 -3.10205E+03  5.58605E+03  2.12069E+03  1.14308E+03  3.83109E+03 -4.48343E+03 -1.31884E+02
 -5.06405E+03 -5.59082E+03 -3.08005E+02 -7.79894E+03  4.73085E+03 -8.39433E+03  1.07055E+04 -3.81747E+03
  1.28074E+04  8.34890E+02  8.10833E+03  6.70838E+03  1.93529E+03  9.46811E+03 -5.09890E+03  9.85585E+03
 -7.49393E+03  4.01996E+03 -4.78676E+03 -2.02308E+03  2.28787E+03 -1.54034E+03  5.29086E+03  4.96273E+02
  4.09853E+03  2.30022E+03  1.36652E+03  6.50165E+03 -5.07560E+03  6.55327E+03 -9.11023E+03  1.87962E+03
 -5.09231E+03 -4.48302E+03 -1.25320E+01 -7.43619E+03  5.03106E+03 -3.51828E+03  4.40898E+03  1.73031E+03
  5.58846E+02  4.22524E+03 -4.01416E+03  5.95607E+03 -6.06171E+03  3.20626E+03 -6.86337E+03 -2.04628E+03
 -3.52843E+03 -6.60053E+03  9.98374E+02 -8.96830E+03  6.66974E+03 -4.11064E+03  7.26698E+03  4.82403E+01
  5.60476E+03  6.61335E+03 -1.53677E+03  7.36163E+03 -5.26049E+03  4.06194E+03 -5.72213E+03 -1.62632E+02
 -6.43722E+03 -6.48113E+03 -5.86042E+02 -6.35590E+03  2.83003E+03 -5.65943E+03  3.60366E+03 -2.85320E+03
  4.03270E+03  8.27832E+02  2.26495E+02  2.43553E+03  4.56417E+02 -1.51457E+03 -7.24956E+02 -2.63105E+03
  4.96958E+03 -1.79301E+03  6.52023E+03  1.75838E+03  6.53151E+03  5.20859E+03  5.89957E+03  8.87065E+03
 -1.58112E+03  1.00729E+04 -8.20167E+03  7.59141E+03 -1.19345E+04  7.98695E+02 -6.90268E+03 -3.30299E+03
 -5.14224E+03 -7.78556E+03 -1.67717E+03 -6.18462E+03  2.84888E+03 -2.58748E+03  2.19833E+03 -2.76666E+03
  2.04639E+03 -1.80475E+03  2.40548E+03 -2.59821E+03  3.65444E+03 -5.68739E+02  3.61829E+03  7.43590E+02
  4.82397E+03  5.67354E+02  2.16295E+03  2.87617E+03 -5.02302E+02  3.42966E+03 -4.94468E+03  3.19628E+03
 -6.31068E+03 -9.83774E+02 -2.47703E+03 -4.49315E+03  9.09450E+02 -6.34275E+03  3.60045E+03 -7.01543E+03
  6.37764E+03 -3.86356E+03  8.81825E+03  9.61915E+02  6.16689E+03  4.75172E+03  1.84441E+03  6.67847E+03
 -3.18164E+03  6.08723E+03 -4.50609E+03  2.00705E+03 -1.92867E+03 -3.92205E+02 -1.33654E+03  5.36323E+02
  2.10356E+02 -5.00515E+02 -9.33492E+02  2.31484E+03 -2.59557E+03  1.63206E+03 -4.11772E+03  4.95788E+02
 -2.47532E+03 -4.69516E+03  1.07346E+03 -5.65826E+03  3.56977E+03 -6.00219E+03  4.86406E+03 -9.33224E+02
  4.99054E+03  3.22265E+03  2.82417E+03  3.98456E+03 -2.00697E+03  4.90818E+03 -3.40803E+03  3.97747E+03
 -4.38755E+03 -3.04290E+02 -4.49605E+03 -2.94424E+03 -6.23908E+02 -4.66328E+03  2.10904E+03 -2.97531E+03
  4.27116E+03 -2.22227E+03  2.47830E+03 -7.06693E+02  1.46363E+03  1.61205E+03  9.44099E+02  7.23993E+02
  2.39958E+03  4.18393E+02  2.11983E+03  1.00994E+03  1.26108E+03  1.93943E+03  2.51628E+03  2.17643E+03
 -1.68430E+03  2.84571E+03 -3.83828E+03  4.96988E+03 -4.59754E+03  7.72878E+02 -4.71451E+03 -9.95206E+02
 -2.99450E+03 -4.72621E+03  1.32264E+03 -5.33907E+03  2.91309E+03 -3.52474E+03  3.88433E+03  4.83782E+02
  2.97797E+03  2.26027E+03 -9.37482E+02  3.64394E+03 -5.49549E+02  1.05434E+03 -1.28596E+03  4.22769E+02
 -1.04970E+03 -2.04204E+03  9.58122E+02 -1.86008E+03  9.19418E+02 -1.45649E+03  9.01063E+02 -1.32121E+02
  2.11491E+03  1.43692E+02  5.81478E+02  1.37009E+03 -4.92582E+02  1.73776E+03  1.76645E+03  2.72410E+01
  5.02302E+02  2.32760E+02  2.42508E+03  1.98849E+03  1.10435E+03  2.75893E+03 -8.41066E+02  4.05962E+03
 -2.56426E+03  3.23359E+02 -1.71670E+03 -4.43392E+01 -2.31179E+03 -1.05609E+03 -9.43702E+02 -1.43606E+03
  9.00091E+02 -1.77374E+03  1.01046E+03 -1.24285E+03  2.36372E+02  2.44427E+03  7.56973E+02  1.81076E+03
 -9.22905E+02 -1.14949E+02 -1.58119E+03 -2.51527E+03 -7.50692E+02 -1.56173E+03  5.82520E+02 -1.42477E+03
  8.42426E+02 -1.20604E+03  5.10039E+02 -4.45049E+02  1.89469E+03  7.48599E+02  1.10067E+03  1.30264E+03
 -5.23483E+02 -9.48997E+02 -1.28333E+03 -1.39471E+03  4.49212E+02 -9.67549E+02  1.14663E+03 -1.43897E+03
  2.69534E+03 -1.21757E+02  3.39056E+03  1.58094E+03  1.17190E+03  2.75110E+03 -3.89040E+02  2.47223E+03
 -1.40735E+03  3.00688E+02 -1.76441E+03  6.04668E+02  3.65331E+01 -2.42848E+03  3.66963E+02 -2.06495E+03
  8.72621E+02 -2.15623E+02  1.37952E+03 -5.29609E+02  1.97341E+01  1.11658E+03  9.39532E+02  1.97005E+03
 -9.56377E+02  1.92693E+03 -3.08404E+02 -5.06000E+02  3.91940E+02  4.75184E+02 -1.27413E+03  1.14161E+03
 -1.33004E+03  1.13494E+03 -2.07044E+03  2.45132E+02 -2.49845E+03  5.58435E+02 -2.23398E+03 -1.66709E+03
 -2.18968E+03 -3.07476E+03  1.69282E+03 -3.51377E+03  1.26603E+03 -3.54405E+03  4.16052E+03 -1.50738E+03
  2.38223E+03  2.73283E+02  7.88893E+02  3.07199E+03 -1.83412E+02  2.77257E+03 -1.20047E+03  1.49928E+03
 -1.08485E+03  8.22101E+02 -2.52009E+02  4.01612E+02 -1.12135E+03  3.26938E+02 -6.70217E+02 -5.13763E+02
 -1.20449E+03 -9.76193E+01 -1.32989E+03  6.50712E+02  1.52402E+02 -6.95958E+02  4.24552E+02 -6.79200E+02
  8.83015E+02 -2.10187E+03  7.14072E+02  5.23671E+02  3.96931E+02  5.94075E+02  4.45589E+02  2.56034E+03
 -1.37764E+03  1.84726E+03 -2.43214E+03  1.27572E+03 -2.88507E+03 -5.71624E+02 -2.91989E+03 -2.11884E+03
 -1.54556E+03 -2.02673E+03  1.26315E+03 -1.99110E+03  1.21306E+02 -2.51388E+03  1.22225E+03  8.40932E+02
  7.45971E+02  8.79355E+02 -1.03537E+03  5.14702E+02 -5.84968E+02  1.11608E+02  2.82312E+02  2.73712E+01
  1.67210E+03  3.20108E+02  7.45807E+02  3.65761E+02  9.40407E+01  4.05940E+02  2.45954E+02 -1.63651E+02
 -2.01604E+02  1.16532E+03 -1.24354E+03 -2.90196E+02 -1.06949E+03 -9.86150E+02  2.47207E+02 -7.38883E+02
  6.90213E+02 -1.09274E+03  1.34537E+03 -1.49228E+03  1.29309E+03  3.37168E+02  1.12246E+03  9.35245E+02
  1.41789E+03  2.14529E+03 -9.59082E+02  1.96784E+03 -1.02484E+03 -5.97288E+01 -8.64283E+02 -1.09448E+03
  8.27722E+02 -3.79097E+02 -1.46212E+03  4.46733E+01 -4.93222E+00  1.13356E+03  2.70088E+02 -3.17321E+01
 -5.10848E+02  3.54932E+02 -6.26081E+02 -9.34426E+02  6.03731E+02 -1.77492E+03  1.65967E+03 -1.27712E+03
  4.82452E+02 -3.05629E+02  2.45824E+02  1.56579E+03  6.18819E+01  7.72419E+02 -1.35896E+03  6.39329E+02
