 $NMID ID='MM_0lb_SNR200_12hz_g55_77.RAW', FMTDAT='(8E13.5)'
 TRAMP=1., VOLUME=1. $END
  3.10456E+05  1.80752E+02  3.36795E+05  2.50177E+05  8.53598E+04  3.40159E+05 -1.32859E+05  2.51622E+05
 -1.90401E+05  8.39305E+04 -1.12167E+05 -3.27670E+04  9.31991E+02 -5.01234E+04  5.33576E+04 -7.26990E+01
  3.41059E+04  5.35261E+04 -1.58986E+04  7.50665E+04 -6.08646E+04  6.50013E+04 -8.37390E+04  3.25676E+04
 -8.17113E+04 -1.22445E+04 -5.73688E+04 -5.24627E+04 -1.58598E+04 -6.99281E+04  2.91398E+04 -4.73355E+04
  4.05549E+04  2.51589E+03  1.73465E+04  4.85390E+04 -3.46892E+04  4.85327E+04 -6.76414E+04  1.01696E+03
 -5.44927E+04 -5.61248E+04 -6.57699E+03 -7.71179E+04  3.53562E+04 -5.58714E+04  4.79578E+04 -1.65167E+04
  4.36208E+04  1.07952E+04  3.33488E+04  2.61635E+04  1.60078E+04  3.07865E+04 -5.18718E+03  2.70204E+04
 -2.16203E+04  1.28239E+04 -1.61285E+04 -5.66239E+03  7.63684E+03 -8.31402E+03  2.30530E+04  1.39507E+04
  6.43454E+03  3.71406E+04 -3.20786E+04  3.61217E+04 -6.47361E+04  2.23585E+03 -5.90162E+04 -4.36015E+04
 -1.27772E+04 -6.52418E+04  4.01077E+04 -4.67381E+04  5.92716E+04 -3.06063E+03  3.59192E+04  3.28570E+04
 -6.61601E+03  3.78989E+04 -3.13282E+04  1.74678E+04 -3.31270E+04 -3.61521E+03 -1.73085E+04 -1.17327E+04
 -8.44083E+03 -1.41912E+04 -1.34689E+03 -1.91421E+04  9.14349E+03 -2.19821E+04  1.62179E+04 -1.23664E+04
  1.01005E+04  5.60854E+03 -1.01724E+04  1.29449E+04 -2.16559E+04 -6.40417E+03 -8.51614E+03 -3.41879E+04
  2.34467E+04 -4.46457E+04  5.10395E+04 -2.02346E+04  4.59262E+04  2.02455E+04  1.65674E+04  4.56808E+04
 -1.57071E+04  3.39634E+04 -2.61504E+04  2.04620E+03 -1.02604E+04 -2.94102E+04  2.23018E+04 -3.49038E+04
  4.25649E+04 -9.31090E+03  3.83378E+04  2.51259E+04  1.97457E+04  4.95587E+04 -7.28040E+03  5.39804E+04
 -3.43844E+04  3.65570E+04 -4.43492E+04  1.01728E+04 -4.42260E+04 -1.82965E+04 -2.59775E+04 -4.03143E+04
  7.15321E+03 -4.01530E+04  3.26789E+04 -1.58578E+04  3.01438E+04  1.05042E+04  4.36699E+03  2.02763E+04
 -1.28419E+04  9.67250E+03 -1.10529E+04 -8.14110E+03  4.59162E+03 -1.07690E+04  1.82071E+04  5.64098E+03
  1.45944E+04  2.33144E+04 -5.71227E+03  2.58577E+04 -2.27808E+04  1.28284E+04 -3.04255E+04 -3.56238E+03
 -2.27570E+04 -1.68682E+04 -1.07352E+04 -2.25505E+04  4.80781E+03 -2.26608E+04  1.67049E+04 -1.96646E+04
  2.90172E+04 -1.48126E+04  3.48526E+04  3.41726E+03  2.61137E+04  2.22463E+04  5.18753E+03  3.81514E+04
 -1.76236E+04  3.27086E+04 -2.97087E+04  1.07838E+04 -2.22847E+04 -1.11855E+04 -4.55640E+03 -1.34099E+04
 -7.98151E+02 -2.78939E+03 -7.91645E+03  7.86244E+03 -1.76948E+04  5.90949E+03 -1.80419E+04 -7.75103E+03
 -1.05863E+04 -2.05716E+04  4.44225E+03 -2.43144E+04  1.59776E+04 -1.77933E+04  2.04128E+04 -2.16079E+03
  1.34755E+04  1.31037E+04 -1.47780E+02  2.10774E+04 -1.58577E+04  1.16825E+04 -2.22800E+04 -3.66206E+03
 -1.51412E+04 -1.91703E+04 -3.55383E+03 -2.55520E+04  1.03065E+04 -2.04325E+04  2.27935E+04 -1.00727E+04
  2.11157E+04 -5.90339E+02  1.54086E+04  4.61722E+03  6.99126E+03  1.20623E+03  1.05998E+04 -1.75247E+03
  1.86947E+04  2.46140E+03  2.32734E+04  1.63115E+04  1.53934E+04  3.41409E+04 -2.52645E+03  3.97103E+04
 -2.30856E+04  3.24369E+04 -3.66661E+04  1.67446E+04 -3.93355E+04 -3.17524E+03 -3.31501E+04 -2.22258E+04
 -1.36768E+04 -3.19993E+04  9.98784E+03 -2.80559E+04  2.33396E+04 -1.43386E+04  2.13477E+04  7.14226E+03
  7.92952E+03  1.54402E+04 -9.67583E+03  1.39861E+04 -1.80732E+04  2.30650E+03 -1.34821E+04 -1.11676E+04
 -1.08776E+02 -1.80230E+04  8.76108E+03 -1.26204E+04  1.22593E+04 -1.05170E+03  1.67395E+03  9.29609E+03
 -7.25559E+03  3.61735E+03 -8.04616E+03 -6.52300E+03 -2.44832E+03 -1.56320E+04  1.04773E+04 -1.72464E+04
  1.93668E+04 -9.87971E+03  2.31877E+04  2.17551E+03  1.94760E+04  1.67895E+04  8.88882E+03  2.57447E+04
 -3.81740E+03  2.68460E+04 -1.70792E+04  1.63144E+04 -1.92477E+04  3.01756E+03 -1.28700E+04 -4.64935E+03
 -6.08137E+03 -7.38296E+03 -2.92911E+02  5.13593E+01 -2.54432E+03  4.58289E+03 -6.63910E+03  5.11324E+03
 -1.40193E+04 -1.56170E+03 -1.39206E+04 -9.93176E+03 -5.06342E+03 -1.67872E+04  5.35302E+03 -1.29085E+04
  1.03772E+04 -6.43434E+03  8.58411E+03  3.18328E+03  2.58595E+02  4.18088E+03 -7.13793E+03 -8.23603E+02
 -7.10143E+03 -8.28720E+03 -1.81255E+03 -1.14825E+04  6.81165E+03 -1.35446E+04  1.71264E+04 -9.05479E+03
  1.86435E+04  2.35180E+03  1.41174E+04  1.10890E+04  2.61846E+03  1.59059E+04 -8.84001E+03  1.41612E+04
 -1.09899E+04  3.47373E+03 -5.88482E+03 -1.82551E+03  2.60840E+03 -4.64240E+03  8.30028E+03 -1.84169E+03
  7.75188E+03  5.94381E+03  3.64318E+02  1.03766E+04 -7.03594E+03  1.01376E+04 -1.34935E+04  1.95568E+03
 -7.83321E+03 -6.26319E+03  1.61680E+02 -1.06802E+04  7.65272E+03 -6.30178E+03  8.38581E+03  2.49228E+03
  9.62200E+02  8.05790E+03 -7.35434E+03  9.71605E+03 -1.05187E+04  4.94747E+03 -1.03425E+04 -4.70677E+03
 -5.61750E+03 -1.11333E+04  2.47470E+03 -1.46188E+04  1.23110E+04 -8.52310E+03  1.22679E+04  1.47682E+03
  7.43727E+03  9.84803E+03  3.33001E+02  1.43989E+04 -8.97433E+03  7.04008E+03 -9.47773E+03 -1.04548E+03
 -1.02362E+04 -9.36684E+03 -1.50785E+03 -9.06268E+03  4.74670E+03 -8.50436E+03  7.04044E+03 -4.01352E+03
  2.76294E+03  1.52251E+03 -1.40826E+03  2.59068E+03 -7.09464E+02 -2.47010E+03  2.80017E+03 -5.40500E+03
  9.48691E+03 -2.67690E+03  1.10258E+04  1.25622E+03  1.21825E+04  7.95729E+03  7.40617E+03  1.52001E+04
 -2.67141E+03  1.93531E+04 -1.61870E+04  1.34923E+04 -1.94466E+04  2.21534E+03 -1.59403E+04 -6.49434E+03
 -8.32965E+03 -1.46942E+04 -5.86953E+02 -1.29003E+04  2.92215E+03 -5.99918E+03  3.76522E+03 -3.46875E+03
  2.96495E+03 -2.44005E+03  2.79187E+03 -2.34928E+03  5.39437E+03 -2.47136E+03  6.40428E+03 -1.14053E+03
  8.27150E+03  1.32839E+03  4.37942E+03  6.72087E+03 -4.22087E+02  8.16740E+03 -8.38295E+03  6.63470E+03
 -1.08156E+04 -2.09265E+03 -6.02404E+03 -7.14214E+03 -8.95607E+02 -1.12833E+04  6.75967E+03 -1.25404E+04
  1.08783E+04 -7.53648E+03  1.55884E+04  1.90417E+03  9.66485E+03  9.96741E+03  1.91794E+03  1.39052E+04
 -5.86121E+03  1.12754E+04 -8.39663E+03  4.16823E+03 -4.01792E+03 -1.37320E+03 -2.14628E+03 -2.24176E+03
 -1.44770E+03  5.12869E+02 -4.12989E+02  2.77634E+03 -6.37308E+03  1.50450E+03 -8.85025E+03 -7.36882E+02
 -5.61509E+03 -7.67113E+03 -9.52872E+02 -1.02358E+04  6.62032E+03 -9.99178E+03  1.08269E+04 -3.75997E+03
  1.10602E+04  5.81771E+03  5.39338E+03  9.30342E+03 -1.92651E+03  1.10119E+04 -6.63436E+03  7.53040E+03
 -9.48427E+03  7.25030E+02 -6.94736E+03 -7.78694E+03 -1.65168E+02 -7.17990E+03  3.19027E+03 -6.64724E+03
  6.20980E+03 -3.07848E+03  5.45870E+03  1.89253E+03 -2.88217E+02  2.95240E+03  1.60601E+03  1.63049E+03
  2.57488E+03 -8.67858E+01  2.74407E+03  1.99479E+03  5.13175E+02  4.56629E+03  2.92394E+03  6.06895E+03
 -2.41721E+03  9.54405E+03 -6.67549E+03  9.37726E+03 -1.01070E+04  2.03175E+03 -1.13198E+04 -4.05699E+03
 -4.47918E+03 -1.07153E+04  1.43180E+03 -1.14495E+04  5.68112E+03 -6.12680E+03  8.71205E+03 -1.81563E+03
  7.39548E+03  4.66882E+03  8.03539E+02  5.57945E+03 -3.10843E+03  4.20433E+03 -4.66004E+03  3.58429E+01
 -2.38031E+03 -5.31569E+03  9.57908E+02 -3.73524E+03  2.93161E+03 -3.20534E+03  3.99819E+03 -7.55309E+02
  1.45721E+03  2.03974E+03  1.36000E+03  1.99697E+02 -8.65614E+02  1.71289E+03  1.23404E+03 -1.23522E+02
  2.78105E+03  4.33019E+02  4.18130E+03 -6.09748E+01  2.78720E+03  5.58211E+03 -4.99763E+02  6.49343E+03
 -5.48440E+03  4.22855E+03 -5.61784E+03  1.61585E+03 -6.08580E+03 -2.29634E+03 -2.00318E+03 -4.04138E+03
  8.85651E+02 -4.25813E+03  3.12723E+03 -1.59556E+03  2.55658E+03  9.64595E+02  4.03617E+02  1.57504E+03
 -5.67326E+03  1.48623E+03 -5.03002E+03 -2.63809E+03 -1.79718E+03 -5.46567E+03  1.72494E+03 -4.89449E+03
  2.66261E+03 -1.89549E+03  3.46142E+03 -1.04517E+03  4.35704E+03  1.89078E+03  5.79139E+02  3.19305E+03
 -1.15790E+03  9.27983E+02 -3.46693E+03 -2.70600E+03  1.19472E+03 -5.05721E+03  4.28770E+03 -2.95042E+03
  6.66461E+03  7.79177E+02  6.75019E+03  4.28960E+03  1.46424E+03  6.65866E+03 -1.55661E+03  8.14600E+03
 -5.50419E+03  2.30983E+03 -4.70788E+03 -7.54967E+02 -4.51192E+03 -3.73814E+03  8.91029E+02 -3.22694E+03
  4.85995E+03 -2.86953E+03  2.98693E+03  2.20969E+03  1.85481E+02  3.60858E+03 -6.41478E+01  3.86067E+03
 -2.23342E+03  2.19194E+03 -1.99056E+03  3.35538E+02 -6.53802E+02  5.95090E+02  3.75834E+02  1.54578E+03
 -1.26407E+03  1.96884E+03 -4.60089E+03  1.94311E+03 -5.66500E+03 -2.07925E+02 -7.39720E+03 -4.78230E+03
 -4.03556E+03 -8.69896E+03  1.58680E+03 -9.63444E+03  5.25721E+03 -7.66068E+03  8.49908E+03 -2.22863E+03
  8.18676E+03  1.51031E+03  4.74674E+03  4.53169E+03  1.30698E+03  7.09278E+03 -3.37232E+03  5.17992E+03
 -3.78969E+03  2.24739E+03 -1.77487E+03 -1.19950E+03 -7.50857E+02  1.70198E+03 -9.84390E+02 -3.64756E+01
 -1.60327E+03  7.53995E+02 -2.15798E+03 -1.47795E+02 -4.16029E+02 -4.94074E+02  4.58765E+02 -1.60871E+03
  3.88682E+03 -1.63461E+03  3.03159E+03  2.31379E+02  3.20668E+03  3.93435E+03  9.65277E+02  4.74790E+03
 -3.58777E+03  7.89784E+03 -7.13767E+03  3.55551E+03 -6.90723E+03 -4.93166E+02 -6.15661E+03 -4.96814E+03
 -2.42740E+03 -5.16554E+03  2.40791E+03 -4.77708E+03  3.48464E+03 -4.65234E+03  3.18405E+03 -8.05563E+01
  2.22834E+03  4.86326E+02 -1.95039E+02  2.30961E+03 -2.14469E+03  2.14744E+01  4.90728E+02 -8.99552E+02
  2.35490E+03 -2.29639E+03  3.27032E+03  3.79953E+02  2.11555E+03  1.95000E+03  1.20526E+03  2.39385E+03
 -2.60698E+03  2.87331E+03 -3.78720E+03  1.55358E+03 -4.05321E+03 -2.35333E+03  5.70497E+01 -5.50246E+03
  3.09222E+03 -5.70312E+03  5.24531E+03 -1.58167E+03  4.44298E+03  1.12171E+03  3.50857E+03  4.24870E+03
  6.19962E+02  4.87060E+03 -1.29227E+03  2.50824E+03 -2.76109E+03  1.70579E+03 -1.52185E+03 -1.50785E+01
 -8.97878E+02 -8.26560E+02 -2.03721E+02  1.75554E+02 -1.96490E+03  1.66111E+03 -3.82358E+03 -1.20720E+03
 -3.17303E+03 -5.74608E+02 -1.13367E+03 -4.98698E+03  1.99405E+03 -5.34057E+03  3.36227E+03 -2.60391E+03
  3.81798E+03  1.26390E+03  2.16311E+03  2.68981E+03 -5.48019E+02  4.61321E+03 -3.03634E+03  3.56185E+03
