 $NMID ID='MM_0lb_SNR200_7hz_g50_99.RAW', FMTDAT='(8E13.5)'
 TRAMP=1., VOLUME=1. $END
  3.09433E+05  6.49373E+02  3.35387E+05  2.51204E+05  8.46841E+04  3.37618E+05 -1.30210E+05  2.51428E+05
 -1.90301E+05  8.43791E+04 -1.12039E+05 -3.22599E+04  2.92244E+03 -5.06457E+04  5.39712E+04 -6.16986E+02
  3.32474E+04  5.36605E+04 -1.84526E+04  7.63380E+04 -6.23125E+04  6.63964E+04 -8.65421E+04  3.13377E+04
 -8.29289E+04 -1.36167E+04 -5.78604E+04 -5.24226E+04 -1.44351E+04 -7.16271E+04  2.89874E+04 -4.62609E+04
  4.17179E+04  3.77058E+03  1.57684E+04  4.74751E+04 -3.34375E+04  4.73728E+04 -6.95229E+04  7.80986E+02
 -5.34174E+04 -5.85694E+04 -6.01065E+03 -7.97265E+04  3.65166E+04 -5.72116E+04  5.02750E+04 -1.79249E+04
  4.63073E+04  1.29393E+04  3.13874E+04  2.72367E+04  1.66827E+04  3.10379E+04 -5.38754E+03  2.83611E+04
 -2.23194E+04  1.18689E+04 -1.56864E+04 -5.07851E+03  5.88255E+03 -6.44221E+03  2.34325E+04  1.36441E+04
  5.49743E+03  3.96373E+04 -3.48952E+04  3.75882E+04 -6.45958E+04  2.24086E+03 -6.08104E+04 -4.56774E+04
 -1.11782E+04 -6.66995E+04  4.06549E+04 -4.77732E+04  6.27586E+04 -3.50778E+03  3.82652E+04  3.55029E+04
 -4.97363E+03  4.08844E+04 -3.25900E+04  2.05659E+04 -3.46350E+04 -3.77613E+03 -1.93702E+04 -1.14258E+04
 -8.71788E+03 -1.58483E+04  1.78408E+02 -2.11418E+04  7.91135E+03 -2.28444E+04  1.44035E+04 -1.15251E+04
  9.67813E+03  6.09170E+03 -9.95256E+03  1.46240E+04 -2.37924E+04 -7.74765E+03 -8.56633E+03 -3.76882E+04
  2.54709E+04 -4.86902E+04  5.45275E+04 -2.20364E+04  5.08062E+04  2.16869E+04  1.90591E+04  4.75951E+04
 -1.73335E+04  3.83451E+04 -2.76967E+04  3.01025E+03 -1.26396E+04 -3.19352E+04  2.21394E+04 -3.99136E+04
  4.59527E+04 -1.25296E+04  4.25983E+04  2.51235E+04  2.38965E+04  5.36088E+04 -1.01189E+04  5.91542E+04
 -3.61472E+04  4.25634E+04 -4.92411E+04  1.13564E+04 -4.91465E+04 -1.87719E+04 -2.70157E+04 -4.41382E+04
  7.37966E+03 -4.36246E+04  3.64002E+04 -1.63463E+04  3.28969E+04  1.20125E+04  6.02366E+03  2.01781E+04
 -1.30337E+04  1.04311E+04 -1.21614E+04 -8.20732E+03  4.24459E+03 -1.33322E+04  2.09670E+04  4.47332E+03
  1.68286E+04  2.17287E+04 -3.58315E+03  2.74823E+04 -2.63434E+04  1.69384E+04 -3.30206E+04 -1.81977E+03
 -2.80103E+04 -1.94822E+04 -1.37052E+04 -2.81955E+04  5.44757E+03 -2.79752E+04  2.03348E+04 -2.56665E+04
  3.41801E+04 -1.36952E+04  3.94683E+04  5.98371E+03  2.88946E+04  2.51268E+04  4.22317E+03  4.32118E+04
 -2.03470E+04  3.61968E+04 -3.11857E+04  1.43369E+04 -2.13754E+04 -9.30778E+03 -4.76246E+03 -1.26922E+04
  3.56341E+02 -3.30027E+02 -9.33680E+03  9.16991E+03 -2.28352E+04  5.11832E+03 -2.21709E+04 -1.01758E+04
 -1.15820E+04 -2.54934E+04  7.61650E+03 -3.05136E+04  1.93863E+04 -2.28484E+04  2.42248E+04 -1.72612E+03
  1.60393E+04  1.74486E+04 -1.39787E+03  2.51078E+04 -1.80713E+04  1.36453E+04 -2.64150E+04 -3.69681E+03
 -1.77110E+04 -2.37585E+04 -2.02956E+03 -3.04614E+04  1.38800E+04 -2.43004E+04  2.56815E+04 -1.37206E+04
  2.50727E+04 -4.94167E+02  1.71986E+04  5.84521E+03  9.67717E+03  7.60474E+02  1.19658E+04 -1.95233E+03
  2.41110E+04  3.89669E+03  2.61528E+04  1.89506E+04  1.95379E+04  4.19386E+04 -5.00650E+03  4.89167E+04
 -2.63381E+04  3.92143E+04 -4.63401E+04  1.99794E+04 -4.83645E+04 -2.73609E+03 -4.07380E+04 -2.78520E+04
 -1.29912E+04 -4.20185E+04  1.53469E+04 -3.46168E+04  2.94991E+04 -1.60411E+04  2.52985E+04  9.47580E+03
  9.35184E+03  2.11227E+04 -1.33993E+04  1.60342E+04 -2.12097E+04  3.08049E+03 -1.81436E+04 -1.27418E+04
 -9.25754E+02 -2.14375E+04  1.20942E+04 -1.59731E+04  1.51463E+04 -1.20654E+03  3.20763E+03  9.38802E+03
 -8.79851E+03  7.99380E+03 -9.05105E+03 -8.09976E+03 -3.64482E+03 -1.84629E+04  1.23775E+04 -2.25164E+04
  2.43039E+04 -1.19782E+04  3.00205E+04  3.76375E+03  2.54405E+04  2.02576E+04  1.03639E+04  3.48720E+04
 -6.01323E+03  3.64219E+04 -2.41975E+04  2.23621E+04 -2.47225E+04  4.11231E+03 -1.69770E+04 -6.27153E+03
 -8.43329E+03 -8.60234E+03 -1.83108E+03 -2.30219E+02 -4.12522E+03  3.36032E+03 -7.86754E+03  5.15360E+03
 -1.59455E+04 -1.52098E+03 -1.67287E+04 -1.22116E+04 -7.43173E+03 -2.05924E+04  7.51177E+03 -1.65217E+04
  1.33285E+04 -7.06643E+03  1.06236E+04  4.89978E+03 -1.46540E+03  8.10541E+03 -1.00015E+04 -8.48563E+02
 -8.77195E+03 -1.10709E+04 -5.85041E+02 -1.72683E+04  1.02533E+04 -1.95923E+04  2.34956E+04 -1.03979E+04
  2.78451E+04  3.67304E+03  2.11812E+04  1.64496E+04  3.58257E+03  1.98033E+04 -1.10085E+04  1.75013E+04
 -1.25969E+04  4.45172E+03 -6.64806E+03 -3.04802E+03  2.95948E+03 -4.45547E+03  9.34845E+03 -9.75001E+02
  1.00613E+04  8.04459E+03  2.03800E+03  1.35645E+04 -9.12691E+03  1.31045E+04 -1.79771E+04  3.72830E+03
 -1.16081E+04 -9.98017E+03 -1.65378E+03 -1.60168E+04  9.20996E+03 -8.58964E+03  1.11492E+04  5.82923E+03
  2.64374E+03  1.31258E+04 -9.43391E+03  1.37352E+04 -1.57718E+04  4.78885E+03 -1.61438E+04 -7.11866E+03
 -1.08261E+04 -1.98787E+04  5.33481E+03 -2.24377E+04  1.83321E+04 -1.40121E+04  2.10432E+04  4.87157E+03
  1.31095E+04  1.56981E+04 -1.33715E+03  1.87437E+04 -1.50055E+04  9.92467E+03 -1.66040E+04 -5.12374E+02
 -1.20223E+04 -1.17557E+04 -3.72856E+03 -1.62254E+04  7.89018E+03 -1.10426E+04  9.05613E+03 -5.24077E+03
  5.39387E+03  4.36630E+03 -1.02862E+03  1.50060E+03  1.16418E+03 -3.94168E+03  3.48586E+03 -9.84855E+03
  1.38110E+04 -6.35410E+03  2.10186E+04  2.89758E+03  1.92196E+04  1.41401E+04  1.33101E+04  2.60932E+04
 -5.35251E+03  2.93405E+04 -2.29492E+04  2.04436E+04 -3.22336E+04  4.55024E+03 -2.56610E+04 -1.02954E+04
 -1.22604E+04 -2.21938E+04 -1.35381E+03 -1.75926E+04  7.11228E+03 -9.95008E+03  5.54010E+03 -4.75846E+03
  4.63673E+03 -3.58555E+03  5.55421E+03 -5.69682E+03  7.40235E+03 -5.02866E+03  9.49056E+03 -2.01097E+03
  1.22598E+04  5.24970E+02  7.19298E+03  1.19994E+04 -4.55926E+03  1.56181E+04 -1.43219E+04  1.05820E+04
 -1.87019E+04 -1.90392E+03 -1.15556E+04 -1.24527E+04 -5.50695E+02 -1.85378E+04  1.12004E+04 -1.95840E+04
  1.94757E+04 -1.35272E+04  2.52224E+04  2.50044E+03  1.61794E+04  1.74022E+04  1.54158E+03  2.23587E+04
 -9.01638E+03  1.70312E+04 -1.28835E+04  6.70786E+03 -8.37657E+03 -3.67692E+03 -3.00724E+03 -5.57859E+03
 -9.45233E+02  2.44077E+03 -3.51929E+03  2.40482E+03 -6.93224E+03  2.47941E+03 -1.18125E+04 -3.11224E+03
 -9.65177E+03 -1.38676E+04 -1.61088E+02 -1.83569E+04  1.17788E+04 -1.67329E+04  1.88679E+04 -4.22158E+03
  1.77377E+04  7.49847E+03  8.54238E+03  1.60537E+04 -3.19006E+03  1.88118E+04 -1.40264E+04  1.23328E+04
 -1.58776E+04 -4.46879E+02 -1.31563E+04 -1.10040E+04 -1.41031E+03 -1.63762E+04  7.70215E+03 -1.43603E+04
  1.17345E+04 -4.04736E+03  7.68856E+03  1.40138E+03  3.78801E+03  3.68477E+03  2.42369E+03  3.13286E+03
  4.03984E+03  2.34473E+03  3.82993E+03  3.17646E+03  5.13305E+03  5.52838E+03  3.67667E+03  8.40761E+03
 -3.78241E+03  1.58369E+04 -1.31205E+04  1.38375E+04 -1.90958E+04  3.69768E+03 -2.15639E+04 -1.04548E+04
 -8.39721E+03 -1.89048E+04  1.50151E+03 -2.19655E+04  1.35907E+04 -1.34564E+04  1.66834E+04 -5.25591E+03
  1.39186E+04  7.85167E+03  2.38931E+03  1.16426E+04 -6.30139E+03  9.88862E+03 -8.52282E+03 -2.54263E+03
 -4.90872E+03 -7.01681E+03  5.09862E+03 -9.53002E+03  8.88671E+03 -4.72152E+03  9.15148E+03  1.09229E+03
  6.52644E+03  2.62477E+03  2.70946E+03  3.15145E+03 -1.34949E+03  3.43956E+03  9.30428E+02  2.20904E+02
  3.05274E+03  7.10824E+02  6.77513E+03  3.11927E+03  6.33847E+03  1.17392E+04 -2.01244E+03  1.32186E+04
 -9.09517E+03  9.60093E+03 -1.27165E+04  3.76783E+03 -1.12002E+04 -4.04333E+03 -5.16001E+03 -9.65040E+03
 -2.43243E+02 -7.38659E+03  5.64024E+03 -2.57188E+03  3.57177E+03  1.62338E+03 -9.50509E+02  6.67503E+03
 -9.64924E+03  2.30211E+03 -8.95767E+03 -4.85742E+03 -5.80330E+03 -1.14017E+04  2.35304E+03 -1.31325E+04
  7.20745E+03 -7.97933E+03  7.16312E+03 -2.25706E+03  7.53941E+03  4.28463E+03  4.53558E+02  7.76032E+03
 -3.21603E+03  2.33423E+03 -3.90286E+03 -5.12691E+03  2.15692E+03 -1.08735E+04  9.95622E+03 -6.98065E+03
  1.26981E+04  5.15142E+01  1.21316E+04  8.95770E+03  4.56842E+03  1.32457E+04 -3.93739E+03  1.39664E+04
 -1.24024E+04  7.24194E+03 -1.23912E+04 -2.95705E+03 -6.13017E+03 -7.93223E+03  3.68421E+02 -9.01003E+03
  7.19458E+03 -4.29247E+03  7.96973E+03  4.65112E+03  2.52446E+03  7.16342E+03  5.74687E+02  7.57960E+03
 -1.36625E+03  4.43498E+03 -4.18715E+03  2.46966E+03 -1.65578E+03  1.90845E+03 -2.19140E+03  1.39444E+03
 -2.46121E+03  6.43968E+03 -9.71922E+03  5.18832E+03 -1.58483E+04  2.82099E+02 -1.65269E+04 -8.34115E+03
 -9.00315E+03 -2.01846E+04  2.72204E+03 -2.22916E+04  1.30947E+04 -1.65958E+04  1.90190E+04 -5.38181E+03
  1.85148E+04  4.58468E+03  1.18296E+04  1.23785E+04  9.70344E+02  1.47236E+04 -6.54721E+03  1.01009E+04
 -9.71696E+03  4.87029E+03 -3.49440E+03 -2.77754E+03 -1.21503E+03  1.94350E+02 -2.01475E+03 -1.04702E+03
 -1.31658E+03 -1.84780E+03 -3.12720E+03 -8.14685E+02 -2.98703E+02 -2.39082E+03  1.25988E+03 -5.24667E+03
  5.97723E+03 -5.03487E+03  9.43300E+03  9.73412E+02  1.14714E+04  9.41565E+03  3.24414E+03  1.48297E+04
 -7.67664E+03  1.80430E+04 -1.56301E+04  1.00250E+04 -2.04377E+04 -9.74103E+02 -1.50042E+04 -9.72782E+03
 -5.88571E+03 -1.65154E+04  5.58997E+03 -1.43774E+04  1.06410E+04 -7.83036E+03  1.00084E+04  1.18193E+03
  6.14794E+03  5.02774E+03  8.67981E+02  5.64179E+03 -6.13368E+02 -1.43161E+02  2.75647E+02 -4.45421E+03
  2.52813E+03 -3.50353E+03  5.70119E+03  2.88519E+03  3.26925E+03  7.46387E+03  2.72051E+02  7.33988E+03
 -7.04576E+03  6.41534E+03 -1.14674E+04  8.16867E+02 -8.77993E+03 -6.23215E+03 -2.92920E+02 -1.13854E+04
  7.89942E+03 -1.12250E+04  1.14561E+04 -4.50311E+03  1.21561E+04  2.07382E+03  7.02473E+03  8.62730E+03
  1.19125E+03  9.76577E+03 -1.23381E+03  9.51413E+03 -6.41438E+03  3.71701E+03 -5.35291E+03  3.44319E+02
 -2.03784E+03 -1.26300E+03 -3.60547E+03  5.31385E+02 -5.40136E+03  1.57787E+03 -8.32920E+03  7.51426E+02
 -7.87800E+03 -4.15255E+03 -1.95579E+03 -1.05707E+04  4.53327E+03 -8.26915E+03  9.30889E+03 -5.27097E+03
  1.02743E+04  1.76809E+03  7.23750E+03  6.04855E+03 -9.95848E+02  1.06793E+04 -7.97762E+03  7.65506E+03
