 $NMID ID='MM_0lb_SNR200_13hz_g60_22.RAW', FMTDAT='(8E13.5)'
 TRAMP=1., VOLUME=1. $END
  3.09459E+05 -5.79228E+02  3.37345E+05  2.51523E+05  8.38178E+04  3.38431E+05 -1.33058E+05  2.50689E+05
 -1.90902E+05  8.22557E+04 -1.11701E+05 -3.24975E+04 -2.44582E+02 -5.09868E+04  5.34366E+04 -2.06905E+03
  3.51302E+04  5.29908E+04 -1.50867E+04  7.71116E+04 -6.21558E+04  6.46745E+04 -8.51047E+04  3.34156E+04
 -8.21576E+04 -1.19462E+04 -5.90453E+04 -5.16303E+04 -1.69429E+04 -7.01598E+04  2.82722E+04 -4.58361E+04
  4.00091E+04  4.34687E+03  1.49004E+04  4.90481E+04 -3.40248E+04  4.73883E+04 -6.76891E+04  5.56604E+02
 -5.40050E+04 -5.67249E+04 -7.44087E+03 -7.75017E+04  3.48603E+04 -5.74146E+04  4.80590E+04 -1.76566E+04
  4.52808E+04  1.04067E+04  3.25897E+04  2.60869E+04  1.49998E+04  3.16170E+04 -6.50117E+03  2.75672E+04
 -2.27475E+04  1.25933E+04 -1.76444E+04 -4.06849E+03  7.03618E+03 -7.82214E+03  2.31819E+04  1.41955E+04
  6.86172E+03  3.66826E+04 -3.26767E+04  3.74581E+04 -6.46567E+04  2.84168E+03 -5.71839E+04 -4.32128E+04
 -1.21344E+04 -6.46226E+04  4.07215E+04 -4.62040E+04  5.94580E+04 -2.71816E+03  3.49109E+04  3.41212E+04
 -5.27170E+03  3.63255E+04 -3.13745E+04  1.68930E+04 -3.24814E+04 -3.31949E+03 -1.78986E+04 -1.05590E+04
 -9.03723E+03 -1.49235E+04 -1.31803E+02 -1.92509E+04  7.70874E+03 -2.26147E+04  1.47462E+04 -1.27899E+04
  1.00872E+04  5.61870E+03 -9.63843E+03  1.33022E+04 -2.28309E+04 -6.02964E+03 -1.02948E+04 -3.56821E+04
  2.23832E+04 -4.55750E+04  5.06487E+04 -2.02772E+04  4.70509E+04  1.97628E+04  1.62797E+04  4.43681E+04
 -1.74636E+04  3.50415E+04 -2.73585E+04  2.66561E+03 -1.02997E+04 -2.94912E+04  2.10154E+04 -3.50465E+04
  4.25486E+04 -1.05960E+04  3.95123E+04  2.55954E+04  2.12732E+04  4.97102E+04 -7.70564E+03  5.23393E+04
 -3.47113E+04  3.54413E+04 -4.55439E+04  9.68236E+03 -4.47650E+04 -1.71957E+04 -2.51197E+04 -4.00154E+04
  8.10893E+03 -4.01934E+04  3.32464E+04 -1.60982E+04  3.11056E+04  9.99341E+03  3.95450E+03  2.03535E+04
 -1.45329E+04  9.54074E+03 -1.13878E+04 -7.83593E+03  6.10491E+03 -9.48871E+03  1.84854E+04  7.56074E+03
  1.33114E+04  2.23075E+04 -5.91821E+03  2.48142E+04 -2.25972E+04  1.22782E+04 -3.13561E+04 -4.14648E+03
 -2.24310E+04 -1.70480E+04 -1.06052E+04 -2.21200E+04  4.01470E+03 -2.21733E+04  1.79600E+04 -2.01587E+04
  2.94859E+04 -1.36568E+04  3.42572E+04  3.84749E+03  2.63037E+04  2.29895E+04  4.28635E+03  3.93418E+04
 -2.04419E+04  3.11026E+04 -2.78148E+04  1.05802E+04 -2.05308E+04 -9.79118E+03 -2.43462E+03 -1.15229E+04
  2.44928E+03 -1.49958E+03 -5.59528E+03  8.94187E+03 -1.79024E+04  5.87032E+03 -1.74625E+04 -8.31214E+03
 -1.09294E+04 -2.07595E+04  4.59168E+03 -2.40963E+04  1.68875E+04 -1.91408E+04  2.04118E+04 -1.35930E+03
  1.46507E+04  1.40980E+04  8.88717E+01  2.05135E+04 -1.44412E+04  1.06348E+04 -2.12043E+04 -4.76203E+03
 -1.55323E+04 -1.93703E+04 -1.42258E+03 -2.59216E+04  1.17129E+04 -2.23074E+04  2.05536E+04 -1.05925E+04
  1.86096E+04 -8.20243E+02  1.37177E+04  3.74930E+03  8.40170E+03  1.05139E+03  9.25257E+03 -7.71710E+02
  2.03426E+04  4.32703E+03  2.18053E+04  1.63194E+04  1.45425E+04  3.47902E+04 -2.61025E+03  3.84029E+04
 -2.29884E+04  3.18802E+04 -3.64021E+04  1.61338E+04 -3.85204E+04 -3.15815E+03 -3.15006E+04 -2.18855E+04
 -1.24544E+04 -3.20029E+04  1.24020E+04 -2.78560E+04  2.24194E+04 -1.40473E+04  2.10537E+04  6.25738E+03
  7.72895E+03  1.59926E+04 -9.65393E+03  1.30456E+04 -1.61244E+04  2.50323E+03 -1.45274E+04 -1.10999E+04
  4.68151E+02 -1.63649E+04  8.61211E+03 -1.19237E+04  1.10342E+04 -5.99609E+02  2.34079E+03  8.01081E+03
 -8.30903E+03  3.79780E+03 -6.83722E+03 -6.07806E+03 -9.52640E+02 -1.57921E+04  9.51353E+03 -1.54375E+04
  1.90985E+04 -8.85482E+03  2.24816E+04  2.19905E+03  1.85165E+04  1.43160E+04  9.04754E+03  2.39787E+04
 -4.60753E+03  2.53753E+04 -1.51313E+04  1.57265E+04 -1.81639E+04  3.67296E+03 -1.34797E+04 -5.03980E+03
 -5.44868E+03 -4.30310E+03 -1.70975E+03  3.14153E+02 -2.99401E+03  1.89711E+03 -6.57919E+03  4.64650E+03
 -1.08861E+04 -2.33927E+03 -1.29285E+04 -9.34230E+03 -5.18046E+03 -1.60621E+04  6.56636E+03 -1.34273E+04
  1.07650E+04 -6.23396E+03  8.16138E+03  1.24567E+03 -7.86853E+02  4.71479E+03 -6.96520E+03 -1.04770E+03
 -4.90785E+03 -8.27305E+03 -1.01473E+03 -1.33067E+04  7.06917E+03 -1.31708E+04  1.65122E+04 -7.39333E+03
  1.74802E+04  2.45185E+03  1.28629E+04  1.18708E+04  1.78072E+03  1.47611E+04 -9.64107E+03  1.27823E+04
 -1.02372E+04  3.97798E+03 -4.33801E+03 -1.85448E+03  2.07434E+03 -3.56850E+03  6.49905E+03 -1.38914E+03
  5.92005E+03  5.80279E+03  6.72451E+02  1.04891E+04 -6.94746E+03  9.87881E+03 -1.20483E+04  1.27238E+03
 -8.37437E+03 -5.46581E+03 -2.25050E+02 -1.05911E+04  7.12675E+03 -6.06938E+03  8.30847E+03  2.49721E+03
  1.64136E+03  6.80408E+03 -5.89024E+03  8.68279E+03 -1.01831E+04  3.96979E+03 -1.02553E+04 -4.80948E+03
 -5.78897E+03 -1.21041E+04  1.43742E+03 -1.35488E+04  1.19494E+04 -8.65846E+03  1.17239E+04  1.97889E+03
  7.35059E+03  8.98135E+03 -1.50067E+02  1.15238E+04 -8.17130E+03  8.06716E+03 -9.11869E+03 -9.02601E+02
 -8.46876E+03 -7.48962E+03 -1.56428E+03 -1.02276E+04  3.83602E+03 -6.53631E+03  5.69900E+03 -1.11805E+03
  4.66585E+03  1.50580E+03 -9.76162E+01  1.23963E+03 -1.25280E+03 -2.37864E+03  1.42251E+03 -4.91794E+03
  8.97755E+03 -4.27609E+03  1.16684E+04 -6.52153E+01  1.01103E+04  7.84514E+03  7.51536E+03  1.51557E+04
 -3.22135E+03  1.68094E+04 -1.49213E+04  1.27265E+04 -1.88543E+04  3.09633E+03 -1.56424E+04 -5.16855E+03
 -8.32567E+03 -1.20231E+04 -4.01646E+02 -9.33229E+03  2.52629E+03 -5.83453E+03  3.43691E+03 -2.87573E+03
  2.62335E+03 -2.83783E+03  2.71823E+03 -2.95967E+03  4.76657E+03 -2.43016E+03  5.48105E+03 -1.55764E+02
  7.73715E+03  3.02921E+03  3.60391E+03  6.81734E+03 -2.13121E+03  7.60685E+03 -5.67687E+03  6.58372E+03
 -9.99893E+03 -1.66567E+03 -6.72137E+03 -6.39002E+03 -9.90416E+02 -1.10954E+04  5.83969E+03 -1.17662E+04
  1.19284E+04 -6.43470E+03  1.42703E+04  2.01603E+03  9.66465E+03  9.81286E+03  9.27203E+02  1.21028E+04
 -4.35752E+03  1.02173E+04 -6.92876E+03  2.31495E+03 -4.46403E+03 -1.83371E+03 -2.57608E+03 -1.18608E+03
 -1.62477E+03  6.89636E+02 -1.00254E+03  3.32078E+03 -4.09966E+03  2.14704E+03 -6.17439E+03 -1.34972E+03
 -2.69051E+03 -5.98366E+03 -3.22708E+02 -9.98468E+03  5.86431E+03 -8.98134E+03  8.59450E+03 -2.86986E+03
  8.08487E+03  5.20905E+03  3.48359E+03  8.54317E+03 -2.54686E+03  1.05486E+04 -6.33153E+03  6.83338E+03
 -8.85843E+03  1.32793E+03 -7.60037E+03 -5.80587E+03 -2.48824E+02 -7.42442E+03  3.64455E+03 -7.06565E+03
  5.36891E+03 -3.38217E+03  4.17546E+03  2.78051E+03  9.72744E+02  3.63453E+03  2.13845E+03  1.96997E+03
  2.51865E+03 -1.43778E+02  3.17780E+03  1.67679E+03  2.29632E+03  4.25772E+03  2.38345E+03  4.58223E+03
 -1.95992E+03  8.07580E+03 -6.90978E+03  8.11063E+03 -8.31188E+03  2.32097E+03 -8.91038E+03 -3.86157E+03
 -5.63685E+03 -8.55135E+03  9.63201E+02 -9.70869E+03  6.23720E+03 -7.29373E+03  7.71103E+03 -1.62597E+03
  5.95915E+03  3.59610E+03  1.29238E+03  7.07205E+03 -1.95906E+03  4.27869E+03 -3.11651E+03 -6.62259E+02
 -1.74826E+03 -4.52913E+03  2.69280E+03 -4.14011E+03  3.27277E+03 -1.73870E+03  3.05047E+03 -1.40358E+02
  2.37136E+03  2.24987E+03  1.08560E+03  1.64725E+03 -9.96957E+02  2.23798E+03  2.05677E+03  1.04743E+03
  6.77377E+02  5.67588E+02  4.88647E+03  3.13798E+02  1.42602E+03  3.82943E+03  1.74257E+03  5.48641E+03
 -4.66109E+03  4.11519E+03 -5.38266E+03  2.09346E+03 -5.43287E+03 -2.28429E+03 -2.67806E+03 -3.24139E+03
  4.78069E+02 -2.89093E+03  1.95601E+03 -8.90722E+02  2.08393E+03  2.17273E+03 -6.46428E+01  3.05910E+03
 -3.69437E+03  3.02714E+03 -5.01376E+03 -2.33025E+03 -1.06078E+03 -4.70526E+03  4.81461E+02 -4.09695E+03
  2.62384E+03 -1.91851E+03  3.85991E+03 -1.56187E+01  2.30832E+03  1.31786E+03  5.11183E+02  2.29077E+03
 -7.28225E+02  1.65027E+03 -1.30755E+03 -1.50405E+03  9.65712E+02 -3.21452E+03  4.55708E+03 -4.00120E+03
  6.30722E+03  7.11446E+02  5.44240E+03  3.01586E+03  2.10563E+03  4.15646E+03 -7.18977E+02  5.37096E+03
 -3.94633E+03  2.79326E+03 -4.87037E+03 -5.85596E+01 -3.38567E+03 -3.30088E+03  1.34973E+03 -2.61150E+03
  1.98024E+03 -1.01649E+03  3.40824E+03  1.92059E+03  4.23680E+02  3.35846E+03 -1.86464E+03  3.26801E+03
 -3.66565E+02  1.99420E+03 -2.36153E+03  2.23267E+03 -1.27768E+02  1.55035E+03 -1.48299E+03  2.39966E+03
 -9.26242E+02  2.99018E+03 -3.22766E+03  2.08378E+03 -5.37514E+03  3.64565E+02 -7.36784E+03 -4.70142E+03
 -1.71440E+03 -7.11005E+03  1.47956E+03 -8.21080E+03  4.38588E+03 -6.66724E+03  6.88363E+03 -3.17437E+03
  7.26079E+03  7.10884E+02  5.05886E+03  4.71027E+03  1.01572E+03  5.50569E+03 -9.97160E+02  3.35664E+03
 -2.58901E+03  3.85407E+02 -1.88139E+03 -1.17642E+03 -1.05642E+03 -5.10970E+02 -1.19428E+02 -5.91664E+02
 -3.01246E+03 -5.95875E+02 -5.43816E+02 -1.17562E+03 -1.00309E+03 -1.75991E+03 -2.14298E+02 -1.99351E+03
  3.29333E+03 -1.79931E+03  3.56765E+03 -4.03394E+02  3.22438E+03  3.39600E+03  1.14955E+03  3.60020E+03
 -3.42689E+03  6.43696E+03 -5.74970E+03  3.26772E+03 -6.82478E+03 -4.81735E+02 -5.04247E+03 -3.83748E+03
 -1.87724E+03 -5.23710E+03  1.41751E+03 -5.07463E+03  2.50996E+03 -3.11883E+03  2.73160E+03  4.58532E+02
  3.30694E+03  1.01555E+03  1.67976E+02  9.84525E+02 -1.63159E+03  4.27419E+02  1.18059E+03 -1.13128E+03
  5.84439E+02 -6.49710E+02  1.43897E+03 -7.13026E+02  3.26942E+02  1.31614E+03 -7.92187E+02  1.29253E+03
 -3.62355E+03  1.99560E+03 -2.56637E+03  8.81071E+01 -4.42976E+03 -3.68549E+03  2.24952E+02 -4.55889E+03
  3.02321E+03 -2.59979E+03  3.39021E+03  3.74616E+01  4.60485E+03  6.80470E+01  7.08236E+02  2.47383E+03
  9.22400E+02  4.12658E+03 -6.13857E+02  3.22144E+03 -2.86550E+03  1.38368E+03 -9.09645E+02  5.70326E+02
 -1.04996E+03  4.04757E+02 -1.25285E+03 -8.80027E+02 -1.17248E+03  3.44479E+01 -3.21858E+03 -3.17876E+02
 -2.27285E+03 -1.87234E+03 -1.55513E+03 -3.78909E+03  1.46418E+03 -3.96081E+03  2.46496E+03 -1.47165E+03
  3.92307E+03 -2.93207E+02  5.22927E+02  1.39394E+03 -1.69731E+02  3.04166E+03 -2.23648E+03  3.08515E+03
