 $NMID ID='MM_0lb_SNR200_11hz_g40_14.RAW', FMTDAT='(8E13.5)'
 TRAMP=1., VOLUME=1. $END
  3.10277E+05  2.12558E+01  3.36707E+05  2.51065E+05  8.40436E+04  3.37664E+05 -1.31438E+05  2.50520E+05
 -1.89368E+05  8.17888E+04 -1.10929E+05 -3.17511E+04  1.40610E+03 -5.09348E+04  5.38926E+04 -8.45549E+02
  3.46804E+04  5.29043E+04 -1.60569E+04  7.70720E+04 -6.04095E+04  6.43869E+04 -8.46481E+04  3.22524E+04
 -8.04959E+04 -1.07529E+04 -5.69380E+04 -5.20593E+04 -1.51347E+04 -7.09342E+04  2.78015E+04 -4.55476E+04
  4.01044E+04  5.50555E+03  1.75475E+04  4.75671E+04 -3.47947E+04  4.77763E+04 -6.66787E+04 -5.43306E+02
 -5.30452E+04 -5.67544E+04 -7.02236E+03 -7.74468E+04  3.35876E+04 -5.55295E+04  4.85395E+04 -1.72930E+04
  4.37504E+04  1.07815E+04  3.22629E+04  2.46375E+04  1.65861E+04  3.01783E+04 -4.92503E+03  2.66148E+04
 -2.24785E+04  1.26586E+04 -1.95752E+04 -5.79575E+03  6.88285E+03 -7.35074E+03  2.22606E+04  1.32584E+04
  6.95943E+03  3.60288E+04 -3.13784E+04  3.60844E+04 -6.38975E+04  1.31826E+03 -5.75543E+04 -4.43465E+04
 -1.20247E+04 -6.44169E+04  4.02722E+04 -4.59469E+04  5.80530E+04 -2.80063E+03  3.58378E+04  3.34461E+04
 -6.83143E+03  3.70049E+04 -3.06066E+04  1.59447E+04 -3.23149E+04 -4.05476E+03 -1.78043E+04 -1.15883E+04
 -8.26475E+03 -1.29403E+04 -1.65230E+03 -1.81295E+04  7.69566E+03 -2.29117E+04  1.59049E+04 -1.30036E+04
  1.14044E+04  5.30263E+03 -7.90664E+03  1.25916E+04 -2.20118E+04 -6.98887E+03 -7.69595E+03 -3.67899E+04
  2.42719E+04 -4.39619E+04  4.91757E+04 -2.09597E+04  4.61775E+04  1.94121E+04  1.51694E+04  4.54498E+04
 -1.59277E+04  3.51350E+04 -2.72385E+04  1.99906E+03 -1.14034E+04 -2.84676E+04  2.03253E+04 -3.48019E+04
  4.28235E+04 -9.68107E+03  3.78391E+04  2.36541E+04  2.12479E+04  4.94336E+04 -7.63950E+03  5.32684E+04
 -3.36977E+04  3.57517E+04 -4.41973E+04  1.00356E+04 -4.38859E+04 -1.76141E+04 -2.52853E+04 -4.07860E+04
  7.78946E+03 -3.90529E+04  3.28829E+04 -1.46954E+04  2.99508E+04  1.06990E+04  4.72830E+03  1.99005E+04
 -1.28417E+04  9.25765E+03 -1.13077E+04 -6.86152E+03  5.48600E+03 -1.10538E+04  1.86013E+04  5.11727E+03
  1.49742E+04  2.39013E+04 -6.67536E+03  2.58100E+04 -2.33347E+04  1.28910E+04 -3.00664E+04 -4.21364E+03
 -2.37583E+04 -1.87834E+04 -1.01549E+04 -2.24430E+04  2.71271E+03 -2.11814E+04  1.68873E+04 -2.06629E+04
  3.02594E+04 -1.34467E+04  3.32888E+04  3.48544E+03  2.46664E+04  2.05276E+04  4.12714E+03  3.87396E+04
 -1.79930E+04  3.14512E+04 -2.89834E+04  1.13101E+04 -2.19054E+04 -1.01682E+04 -3.85105E+03 -1.48819E+04
  1.54963E+03 -2.28448E+03 -7.72600E+03  5.98106E+03 -1.69515E+04  5.54377E+03 -1.83484E+04 -8.54745E+03
 -1.10723E+04 -2.08821E+04  6.97651E+03 -2.63635E+04  1.60766E+04 -1.75878E+04  1.93130E+04 -1.41659E+03
  1.11698E+04  1.37129E+04 -1.67350E+03  1.96375E+04 -1.46569E+04  1.12368E+04 -2.03343E+04 -4.31860E+03
 -1.44288E+04 -1.87280E+04 -2.39631E+03 -2.53738E+04  1.14380E+04 -2.01097E+04  2.09691E+04 -9.07056E+03
  1.89034E+04  3.55867E+02  1.52496E+04  5.51976E+03  5.69897E+03  8.95942E+02  1.13804E+04 -2.70399E+03
  1.97804E+04  2.20122E+03  2.20133E+04  1.60714E+04  1.49483E+04  3.46163E+04 -3.96816E+03  3.92576E+04
 -2.38002E+04  3.20446E+04 -3.57217E+04  1.59306E+04 -3.88124E+04 -3.64579E+03 -3.14022E+04 -2.40361E+04
 -1.13494E+04 -3.04204E+04  1.05382E+04 -2.84693E+04  2.42511E+04 -1.27571E+04  2.22102E+04  6.51084E+03
  6.58663E+03  1.60676E+04 -9.68401E+03  1.41520E+04 -1.72946E+04  3.52031E+03 -1.29871E+04 -1.13644E+04
  7.06032E+02 -1.61134E+04  8.03250E+03 -1.21854E+04  1.22567E+04 -2.36245E+03  4.45346E+03  6.07060E+03
 -8.16732E+03  4.10387E+03 -7.22387E+03 -6.49315E+03 -5.66644E+02 -1.56528E+04  1.06833E+04 -1.72035E+04
  1.80636E+04 -8.69684E+03  2.09216E+04  8.25694E+02  1.89430E+04  1.52287E+04  7.31771E+03  2.38100E+04
 -4.23775E+03  2.60195E+04 -1.70587E+04  1.72315E+04 -1.89935E+04  2.62864E+03 -1.24570E+04 -4.90508E+03
 -5.88336E+03 -5.92156E+03 -6.78719E+02 -8.85513E+02 -1.90825E+03  2.37824E+03 -6.61008E+03  5.48358E+03
 -1.21833E+04 -7.21625E+02 -1.27588E+04 -1.01457E+04 -3.79222E+03 -1.65896E+04  5.22597E+03 -1.27566E+04
  1.02379E+04 -4.41492E+03  8.28181E+03  4.38694E+03 -3.19963E+02  4.02728E+03 -5.04115E+03 -4.44031E+02
 -6.54438E+03 -8.62428E+03 -2.66483E+02 -1.26784E+04  7.50760E+03 -1.15173E+04  1.68284E+04 -7.13099E+03
  2.06841E+04  2.32181E+03  1.26484E+04  1.17245E+04  2.90497E+03  1.49038E+04 -7.36524E+03  1.30375E+04
 -1.13026E+04  4.67416E+03 -4.89606E+03 -3.25143E+03  5.28202E+02 -3.95754E+03  7.41189E+03 -7.97435E+02
  6.19918E+03  6.14799E+03  1.73062E+02  1.12171E+04 -8.45108E+03  8.98004E+03 -1.21093E+04  2.40427E+03
 -9.61242E+03 -6.67811E+03 -9.31132E+02 -1.17118E+04  7.05127E+03 -6.31458E+03  7.61683E+03  3.15429E+03
 -2.63931E+02  8.71624E+03 -6.43466E+03  1.04984E+04 -1.00466E+04  4.57739E+03 -1.07296E+04 -2.27006E+03
 -6.62945E+03 -1.13232E+04  3.41744E+03 -1.40283E+04  1.00286E+04 -8.04303E+03  1.30588E+04  2.89690E+03
  7.28678E+03  9.87473E+03 -1.44678E+03  1.34938E+04 -9.00931E+03  5.94213E+03 -1.05644E+04 -3.85221E+02
 -8.38584E+03 -8.24642E+03 -1.33795E+03 -1.00938E+04  5.68684E+03 -7.91886E+03  6.01216E+03 -4.72140E+03
  4.11443E+03  1.69168E+03 -1.01133E+03  3.33065E+02 -1.08467E+03 -2.46843E+03  1.60010E+03 -4.87503E+03
  8.47915E+03 -3.07256E+03  1.25639E+04  4.22565E+02  1.22338E+04  8.00208E+03  9.41194E+03  1.57207E+04
 -3.43987E+03  1.79303E+04 -1.45827E+04  1.37179E+04 -2.03512E+04  2.58726E+03 -1.77132E+04 -7.56280E+03
 -8.76312E+03 -1.42653E+04 -8.10941E+02 -9.84493E+03  3.40127E+03 -5.95154E+03  2.33783E+03 -4.97191E+03
  3.02168E+03 -2.26791E+03  2.16320E+03 -2.24771E+03  5.58701E+03 -2.79192E+03  6.30654E+03 -8.72348E+02
  8.47809E+03  3.04880E+03  5.28042E+03  7.94080E+03 -1.99820E+03  9.22480E+03 -8.34612E+03  5.97543E+03
 -1.25437E+04 -2.41491E+03 -5.98436E+03 -7.56171E+03 -9.06760E+02 -1.20897E+04  7.59381E+03 -1.28318E+04
  1.26915E+04 -6.11360E+03  1.42991E+04  2.09076E+03  9.75240E+03  1.01493E+04  3.80323E+03  1.30012E+04
 -4.83041E+03  1.13282E+04 -6.89523E+03  2.53985E+03 -5.55897E+03 -3.08719E+03 -2.57361E+03 -1.12491E+03
 -6.92793E+02  5.00588E+01 -1.63184E+03  3.85907E+02 -4.52647E+03  2.08631E+03 -6.93263E+03 -3.38178E+03
 -5.75447E+03 -7.21036E+03  7.57556E+02 -1.10614E+04  6.73811E+03 -1.02433E+04  1.22066E+04 -2.84530E+03
  1.10154E+04  5.30714E+03  6.66512E+03  1.10753E+04 -3.06178E+03  1.11044E+04 -7.05336E+03  7.02726E+03
 -9.93687E+03  5.75569E+02 -9.21247E+03 -6.11672E+03 -1.08307E+03 -8.87357E+03  4.34573E+03 -6.73324E+03
  6.01146E+03 -2.19924E+03  5.14388E+03  9.43551E+02  1.60136E+03  3.62511E+03  9.95508E+02  9.51274E+02
  1.55251E+03 -3.05862E+02  3.32960E+03  1.02303E+03  2.69702E+03  3.94181E+03  2.55529E+03  5.04551E+03
 -2.73127E+03  8.46600E+03 -7.30896E+03  8.59284E+03 -9.75602E+03  1.79206E+03 -1.07687E+04 -5.16626E+03
 -4.99908E+03 -1.05772E+04  1.26073E+03 -1.29071E+04  6.14693E+03 -7.86317E+03  8.87621E+03 -2.46092E+03
  6.78709E+03  3.94031E+03  1.53680E+03  6.71688E+03 -3.13050E+03  3.76840E+03 -4.01087E+03 -5.07038E+02
 -2.57055E+03 -3.80646E+03  5.14991E+03 -3.82921E+03  4.40305E+03 -2.79773E+03  4.95848E+03  1.13139E+03
  3.25321E+03  1.48224E+03  1.01822E+03  2.87825E+03  1.75100E+02  2.20272E+03  2.33353E+03 -3.95448E+02
  2.51207E+03 -6.36428E+02  3.47969E+03  1.57709E+03  2.26710E+03  5.94329E+03 -1.08138E+02  9.07442E+03
 -4.94132E+03  5.61201E+03 -7.72510E+03  1.12229E+03 -5.96963E+03 -1.04108E+03 -1.65884E+03 -4.36661E+03
  1.06343E+03 -3.26881E+03  2.64606E+03 -1.93257E+02  2.54728E+03  3.35706E+03 -1.61619E+03  3.06996E+03
 -3.07724E+03  7.26683E+02 -5.47968E+03 -3.13862E+03 -4.27729E+03 -6.55640E+03  5.77897E+02 -7.01436E+03
  2.60243E+03 -4.29674E+03  3.84933E+03  6.51712E+01  3.87781E+03  1.06726E+03 -7.34876E+02  4.70192E+03
 -1.58585E+03  3.14224E+02 -3.64545E+03 -3.06281E+03  1.34761E+02 -4.91179E+03  4.81217E+03 -4.87023E+03
  5.83613E+03  2.39016E+02  6.86941E+03  5.69891E+03  1.75055E+03  8.14498E+03 -2.73512E+03  5.13796E+03
 -6.18648E+03  2.09362E+03 -4.55744E+03 -8.75968E+02 -2.52075E+03 -4.44969E+03 -1.95458E+02 -3.78103E+03
  4.20967E+03 -3.50277E+03  3.09680E+03  2.78479E+03  2.68896E+03  3.29155E+03 -1.03998E+03  3.41469E+03
 -1.87769E+03  2.77754E+03 -5.77801E+02  4.02255E+02 -3.51623E+02  1.56828E+03 -1.14108E+03  8.48517E+02
 -2.29704E+03  2.65445E+03 -3.78523E+03  2.12307E+03 -5.93988E+03 -1.02661E+03 -8.27307E+03 -3.85593E+03
 -4.90614E+03 -8.58577E+03  4.64215E+02 -9.36261E+03  7.96236E+03 -8.18397E+03  1.06382E+04 -2.16969E+03
  9.47434E+03  2.47676E+03  4.64117E+03  4.95944E+03  1.25141E+03  7.40594E+03 -3.06017E+03  5.42360E+03
 -2.68526E+03  1.96514E+03 -2.48970E+03 -1.86480E+03  1.34307E+02 -7.89981E+02 -5.16760E+02  1.69934E+02
 -2.22224E+03  8.42128E+02 -1.53044E+03 -2.72669E+02 -1.84682E+03 -1.53732E+03 -3.61435E+02 -2.71724E+03
  4.64253E+03 -2.15627E+03  3.20861E+03 -4.83322E+02  4.00209E+03  3.91990E+03  3.90741E+02  6.56007E+03
 -2.97323E+03  7.78309E+03 -8.06653E+03  5.01364E+03 -8.56312E+03 -1.52529E+03 -7.23672E+03 -3.96858E+03
 -1.48096E+03 -6.40110E+03  1.70765E+03 -5.59986E+03  4.36786E+03 -3.55647E+03  3.81563E+03 -3.70510E+02
  2.58556E+03  1.82076E+03  5.86650E+01  1.83946E+03 -1.42229E+01 -1.53343E+03  1.04993E+03 -2.68377E+03
  1.93354E+03 -1.39478E+03  1.17381E+03  7.94539E+02  2.01366E+03  2.59392E+03  7.87700E+02  3.63579E+03
 -3.48948E+03  3.51396E+03 -3.50745E+03 -3.58015E+02 -4.85270E+03 -2.47534E+03 -6.15444E+00 -6.75743E+03
  4.19344E+03 -4.14365E+03  6.06530E+03 -2.58631E+02  4.56631E+03  1.15679E+03  2.33120E+03  2.95054E+03
 -1.68623E+02  4.21550E+03 -1.62652E+03  3.56918E+03 -1.80407E+03  1.76016E+03 -3.15550E+03 -5.09434E+02
 -1.08541E+03 -4.39569E+02 -2.05089E+03  1.45168E+02 -2.73603E+03  6.98959E+02 -2.73964E+03 -1.90935E+02
 -4.05718E+03 -1.69024E+03 -2.56784E+02 -3.75505E+03  3.27306E+03 -3.96974E+03  3.89732E+03 -1.68294E+03
  5.85955E+03  1.09102E+03  1.27334E+03  4.05547E+03  4.05084E+02  3.71304E+03 -2.38045E+03  3.39382E+03
