 $NMID ID='MM_0lb_SNR200_10hz_g55_61.RAW', FMTDAT='(8E13.5)'
 TRAMP=1., VOLUME=1. $END
  3.09832E+05  1.36923E+03  3.38964E+05  2.52318E+05  8.54444E+04  3.37668E+05 -1.32680E+05  2.53037E+05
 -1.90109E+05  8.27986E+04 -1.12948E+05 -3.35235E+04  1.34430E+02 -5.07132E+04  5.27608E+04 -8.26968E+02
  3.44712E+04  5.15597E+04 -1.68930E+04  7.50190E+04 -6.16070E+04  6.35549E+04 -8.68517E+04  3.25560E+04
 -8.44447E+04 -1.16338E+04 -5.76407E+04 -5.25913E+04 -1.49663E+04 -7.13405E+04  2.89979E+04 -4.63771E+04
  4.27033E+04  4.13724E+03  1.72863E+04  4.86319E+04 -3.54976E+04  4.90075E+04 -6.85494E+04 -3.44136E+01
 -5.57159E+04 -5.66717E+04 -6.42888E+03 -7.93477E+04  3.56798E+04 -5.66558E+04  5.02189E+04 -1.69884E+04
  4.46431E+04  9.74169E+03  3.23881E+04  2.64853E+04  1.64387E+04  3.02582E+04 -6.01080E+03  2.73967E+04
 -2.48010E+04  1.18610E+04 -1.94512E+04 -5.49210E+03  6.41516E+03 -6.96535E+03  2.34049E+04  1.25614E+04
  7.24494E+03  3.70682E+04 -3.54226E+04  3.81545E+04 -6.59821E+04  3.00885E+03 -5.82297E+04 -4.47869E+04
 -1.21946E+04 -6.49553E+04  4.12814E+04 -4.60661E+04  6.13070E+04 -2.50689E+03  3.66928E+04  3.42877E+04
 -5.41676E+03  3.99533E+04 -3.18552E+04  1.70810E+04 -3.23025E+04 -2.59394E+03 -2.01613E+04 -1.31050E+04
 -1.01806E+04 -1.47801E+04 -8.79635E+02 -2.01665E+04  7.30540E+03 -2.36073E+04  1.58914E+04 -1.32915E+04
  1.12329E+04  6.86062E+03 -1.05940E+04  1.35852E+04 -2.28417E+04 -6.30084E+03 -7.67030E+03 -3.68809E+04
  2.44425E+04 -4.67984E+04  5.19735E+04 -2.04798E+04  4.71242E+04  2.11457E+04  1.86403E+04  4.75501E+04
 -1.63290E+04  3.52499E+04 -2.69053E+04  3.45250E+03 -1.17284E+04 -2.96513E+04  2.17497E+04 -3.61016E+04
  4.50490E+04 -1.07381E+04  3.89481E+04  2.27034E+04  2.04140E+04  5.08845E+04 -7.21163E+03  5.67069E+04
 -3.57497E+04  3.87098E+04 -4.84647E+04  1.07602E+04 -4.72134E+04 -1.87297E+04 -2.56282E+04 -4.23577E+04
  6.78083E+03 -4.23151E+04  3.31722E+04 -1.79207E+04  3.33870E+04  1.25159E+04  5.09108E+03  2.12471E+04
 -1.51731E+04  8.82959E+03 -9.81042E+03 -8.12628E+03  5.71527E+03 -1.14983E+04  1.82893E+04  5.79669E+03
  1.46123E+04  2.40326E+04 -4.81421E+03  2.60129E+04 -2.28028E+04  1.34142E+04 -2.98110E+04 -3.08284E+03
 -2.24154E+04 -1.79777E+04 -1.15923E+04 -2.32673E+04  4.05123E+03 -2.47030E+04  1.99517E+04 -2.22597E+04
  2.96146E+04 -1.29951E+04  3.72928E+04  3.97946E+03  2.63858E+04  2.38784E+04  2.69944E+03  3.95508E+04
 -1.90274E+04  3.26063E+04 -3.09146E+04  1.20051E+04 -2.24537E+04 -1.02919E+04 -6.18879E+03 -1.35008E+04
  1.27783E+03 -1.75774E+03 -7.48014E+03  8.22932E+03 -1.91557E+04  5.43292E+03 -2.02264E+04 -1.01614E+04
 -1.19768E+04 -2.14035E+04  5.22454E+03 -2.81998E+04  1.80298E+04 -1.85673E+04  2.16904E+04 -2.15485E+03
  1.41801E+04  1.62403E+04  7.78713E+01  2.26142E+04 -1.68416E+04  1.30192E+04 -2.23647E+04 -4.75872E+03
 -1.63730E+04 -2.09141E+04 -3.07266E+03 -2.83423E+04  1.30008E+04 -2.33198E+04  2.34151E+04 -1.26073E+04
  2.30406E+04  7.87444E+02  1.61526E+04  4.77796E+03  8.28908E+03  1.86119E+03  1.12015E+04 -2.73193E+03
  2.21449E+04  1.95727E+03  2.43480E+04  1.78612E+04  1.79431E+04  3.68725E+04 -3.18185E+03  4.33939E+04
 -2.63625E+04  3.66457E+04 -4.11875E+04  1.74546E+04 -4.34685E+04 -5.11440E+03 -3.55698E+04 -2.54664E+04
 -1.28002E+04 -3.37639E+04  1.25090E+04 -3.12705E+04  2.74234E+04 -1.34469E+04  2.47296E+04  8.26080E+03
  7.38452E+03  1.70483E+04 -1.23311E+04  1.44715E+04 -1.98882E+04  3.59337E+03 -1.40996E+04 -1.31296E+04
 -6.69359E+02 -1.86509E+04  1.03174E+04 -1.39117E+04  1.24386E+04  5.98088E+02  3.04274E+03  8.39444E+03
 -8.82375E+03  4.26910E+03 -8.13634E+03 -6.70908E+03 -1.85025E+03 -1.66069E+04  1.13855E+04 -1.96036E+04
  2.20438E+04 -1.21430E+04  2.50765E+04  2.90168E+03  2.27553E+04  1.83604E+04  1.14438E+04  2.92019E+04
 -8.06684E+03  3.12298E+04 -1.97552E+04  1.80910E+04 -2.02376E+04  4.26462E+03 -1.55964E+04 -5.51944E+03
 -8.42135E+03 -8.33955E+03 -1.32826E+03 -1.69569E+02 -3.13359E+03  2.50444E+03 -8.68961E+03  5.77455E+03
 -1.49701E+04 -8.20798E+02 -1.45184E+04 -1.18253E+04 -4.61419E+03 -1.75672E+04  5.58758E+03 -1.52009E+04
  1.29411E+04 -6.64894E+03  8.09527E+03  4.32234E+03 -1.04332E+03  6.99213E+03 -8.72638E+03 -8.51304E+02
 -6.67299E+03 -9.40858E+03 -1.68668E+03 -1.47172E+04  8.36080E+03 -1.49921E+04  2.04159E+04 -8.92929E+03
  2.35110E+04  1.37615E+03  1.64374E+04  1.44394E+04  2.80781E+03  1.96247E+04 -1.04356E+04  1.38770E+04
 -1.07062E+04  3.38598E+03 -6.26841E+03 -3.05043E+03  2.20476E+03 -4.13554E+03  8.45688E+03 -7.71268E+02
  8.16765E+03  6.45988E+03  1.32551E+03  1.21893E+04 -9.70795E+03  1.14664E+04 -1.35641E+04  3.69915E+03
 -1.06279E+04 -9.43907E+03 -4.04069E+02 -1.25093E+04  7.54346E+03 -7.57148E+03  9.36128E+03  1.87690E+03
  1.85097E+03  8.38166E+03 -6.01867E+03  1.07271E+04 -1.31697E+04  3.75873E+03 -1.22433E+04 -5.50419E+03
 -6.48608E+03 -1.59023E+04  4.63808E+03 -1.72441E+04  1.38814E+04 -9.61731E+03  1.52577E+04  1.56500E+03
  8.01639E+03  1.35214E+04 -1.78414E+03  1.56584E+04 -1.20596E+04  8.80791E+03 -1.27093E+04 -9.99849E+02
 -1.05973E+04 -1.06754E+04 -1.66727E+03 -1.04513E+04  4.34516E+03 -7.51348E+03  6.98834E+03 -2.84465E+03
  3.60555E+03  3.73394E+03 -1.10257E+03  1.40746E+03 -1.27278E+03 -3.03910E+03  2.71819E+03 -7.05717E+03
  1.05968E+04 -3.65916E+03  1.43472E+04  1.08753E+03  1.48932E+04  1.13266E+04  8.76215E+03  1.98553E+04
 -3.40839E+03  2.28739E+04 -2.00342E+04  1.82220E+04 -2.41863E+04  2.30423E+03 -2.04634E+04 -8.95359E+03
 -9.66729E+03 -1.75571E+04  9.20154E+01 -1.43113E+04  4.60860E+03 -7.97974E+03  4.39415E+03 -6.00946E+03
  3.50669E+03 -3.40702E+03  5.40831E+03 -4.62974E+03  6.53926E+03 -3.18213E+03  8.53340E+03 -1.37073E+03
  1.07785E+04  3.15033E+03  6.00078E+03  7.48189E+03 -2.50115E+03  1.02061E+04 -1.19622E+04  8.98822E+03
 -1.57691E+04 -2.47940E+03 -8.69329E+03 -8.37265E+03 -1.04625E+03 -1.58723E+04  8.44696E+03 -1.37576E+04
  1.45106E+04 -9.65936E+03  1.84089E+04  1.19753E+03  1.15771E+04  1.27171E+04  2.67753E+03  1.68325E+04
 -7.60718E+03  1.29283E+04 -1.00200E+04  5.09181E+03 -6.32368E+03 -2.36031E+02 -2.99881E+03 -2.03078E+03
 -1.42129E+03 -6.53363E+02 -7.00920E+02  3.02726E+03 -5.93691E+03  2.63281E+03 -7.95334E+03 -2.26681E+03
 -6.06972E+03 -8.64392E+03  2.76814E+02 -1.36888E+04  7.78670E+03 -1.37033E+04  1.36687E+04 -4.08818E+03
  1.36229E+04  6.79068E+03  5.62472E+03  1.36647E+04 -4.17900E+03  1.32859E+04 -9.35892E+03  7.68435E+03
 -1.26806E+04  3.17651E+02 -1.04725E+04 -8.63411E+03 -2.10167E+01 -1.14874E+04  5.03460E+03 -7.92387E+03
  9.52680E+03 -4.45515E+03  5.95057E+03  3.19726E+03  2.18093E+03  3.86804E+03  1.66793E+03  2.80599E+03
  2.84488E+03  1.77950E+03  3.73455E+03  1.58030E+03  4.31408E+03  4.35612E+03  4.16901E+03  7.23771E+03
 -3.71399E+03  1.25700E+04 -1.06486E+04  1.14179E+04 -1.44539E+04  1.04370E+03 -1.46919E+04 -6.00061E+03
 -6.97946E+03 -1.29931E+04  1.14519E+03 -1.53794E+04  8.84557E+03 -1.14257E+04  1.10792E+04 -2.55731E+03
  8.05328E+03  5.35301E+03  1.58694E+03  7.52554E+03 -5.07985E+03  5.70490E+03 -5.57066E+03 -9.09553E+01
 -2.18252E+03 -5.60503E+03  4.28250E+03 -5.54437E+03  6.30553E+03 -1.86637E+03  5.38721E+03  2.26927E+03
  2.67742E+03  1.23091E+03 -2.74293E+01  2.43880E+03  3.13554E+02  2.70904E+03  9.90850E+02  9.81628E+02
  4.28440E+03 -1.47316E+03  3.92659E+03  3.41910E+03  2.67153E+03  6.99690E+03 -2.21589E+03  1.07479E+04
 -7.48738E+03  6.52140E+03 -8.77187E+03  2.04066E+03 -8.31708E+03 -2.73405E+03 -3.08253E+03 -5.20828E+03
  6.80891E+02 -5.47099E+03  2.39948E+03 -3.93889E+03  2.31504E+03  1.76149E+03 -1.73393E+03  4.40094E+03
 -4.82651E+03  1.29925E+03 -5.72824E+03 -2.14182E+03 -3.19699E+03 -7.64077E+03  1.90506E+03 -8.05199E+03
  5.58153E+03 -6.11584E+03  5.80919E+03  2.26532E+01  4.50423E+03  1.25334E+03  3.10001E+02  3.27128E+03
 -3.07051E+03  7.74195E+02 -3.00168E+03 -3.40557E+03  8.37171E+02 -5.95424E+03  7.62671E+03 -3.22652E+03
  7.37783E+03  2.81934E+02  7.53978E+03  5.87211E+03  3.88221E+03  9.68441E+03 -3.16970E+03  8.92938E+03
 -7.18917E+03  3.85378E+03 -7.97784E+03 -1.59006E+03 -5.20485E+03 -6.12539E+03  2.60485E+03 -4.94647E+03
  6.29393E+03 -3.52571E+03  3.28937E+03  1.56940E+03  1.33790E+03  5.36223E+03  4.01956E+02  5.22489E+03
 -2.33536E+03  1.62980E+03 -1.75698E+03  1.72218E+03 -1.72425E+03  7.47161E+02 -4.44229E+02  2.74489E+02
 -1.76834E+03  2.99077E+03 -6.55433E+03  2.67026E+03 -8.23126E+03  5.23737E+02 -1.05505E+04 -6.13672E+03
 -4.07075E+03 -1.07995E+04  2.57049E+03 -1.39752E+04  7.58448E+03 -9.51322E+03  1.41264E+04 -3.50935E+03
  1.36130E+04  1.73540E+03  7.32501E+03  6.97465E+03  6.13415E+02  7.25631E+03 -3.58857E+03  7.57659E+03
 -5.30831E+03  3.83330E+03 -3.32778E+03 -6.34927E+02 -3.78012E+02 -7.57973E+02 -8.63016E+02 -4.81705E+02
 -8.50584E+01  5.72512E+02 -1.17909E+03 -1.55283E+02 -6.72066E+02 -2.63119E+03  8.06960E+02 -3.66698E+03
  3.16463E+03 -3.15805E+03  6.17962E+03  2.20178E+02  5.31438E+03  5.40522E+03  1.87546E+03  1.01575E+04
 -4.75707E+03  1.01835E+04 -8.84778E+03  6.39321E+03 -1.22242E+04 -1.03198E+03 -7.64475E+03 -7.71446E+03
 -4.05333E+03 -1.00072E+04  2.56220E+03 -6.60916E+03  6.11790E+03 -4.48807E+03  5.71586E+03  7.97737E+02
  1.96491E+03  2.89130E+03 -1.32207E+03  2.69581E+03 -3.41964E+03 -1.41797E+02  9.09690E+02 -4.94787E+02
  3.99502E+03  1.20326E+02  1.47024E+03  3.41664E+03  2.24561E+03  3.73786E+03  6.09599E+02  5.06486E+03
 -3.90065E+03  4.38907E+03 -7.39517E+03  1.24276E+03 -4.10065E+03 -4.36062E+03 -4.90065E+01 -6.82963E+03
  4.35746E+03 -5.98032E+03  6.46913E+03 -1.19713E+03  5.81637E+03  1.90372E+03  3.51073E+03  5.83077E+03
  9.67437E+01  4.78802E+03 -2.73578E+03  5.26421E+03 -2.79444E+03  3.73305E+03 -2.79301E+03  1.53316E+03
 -1.77044E+03 -7.63306E+01 -2.02178E+03  2.66882E+03 -3.23529E+03  2.18291E+03 -4.57653E+03 -6.18669E+02
 -4.58769E+03 -9.29815E+02 -1.16073E+03 -4.76119E+03  3.99770E+03 -5.54756E+03  5.29826E+03 -3.99948E+03
  5.97004E+03  3.83279E+02  2.68086E+03  4.52419E+03 -8.33933E+02  5.45389E+03 -4.03083E+03  4.88352E+03
