 $NMID ID='MM_0lb_SNR200_19hz_g45_8.RAW', FMTDAT='(8E13.5)'
 TRAMP=1., VOLUME=1. $END
  3.09720E+05  5.20334E+02  3.35972E+05  2.51592E+05  8.46323E+04  3.37468E+05 -1.31954E+05  2.49870E+05
 -1.89470E+05  8.25229E+04 -1.11953E+05 -3.24999E+04  1.49538E+03 -4.94911E+04  5.43637E+04  1.81900E+02
  3.42013E+04  5.22780E+04 -1.77358E+04  7.42360E+04 -6.00006E+04  6.27729E+04 -8.35326E+04  3.24189E+04
 -7.97204E+04 -1.14665E+04 -5.67817E+04 -4.92849E+04 -1.47492E+04 -6.91310E+04  2.61428E+04 -4.41529E+04
  3.90863E+04  4.88008E+03  1.54339E+04  4.67671E+04 -3.36452E+04  4.51514E+04 -6.40029E+04 -3.43609E+01
 -5.21638E+04 -5.65743E+04 -5.72413E+03 -7.54757E+04  3.21521E+04 -5.31764E+04  4.51902E+04 -1.59495E+04
  4.10799E+04  1.16223E+04  3.08179E+04  2.44934E+04  1.64292E+04  2.91518E+04 -5.66270E+03  2.52791E+04
 -2.14910E+04  1.19569E+04 -1.90531E+04 -3.23045E+03  4.23541E+03 -8.08761E+03  2.17837E+04  1.09873E+04
  7.38047E+03  3.15992E+04 -3.06053E+04  3.33272E+04 -5.99370E+04  1.22017E+03 -5.49273E+04 -4.12828E+04
 -1.23046E+04 -6.14110E+04  3.80997E+04 -4.26302E+04  5.52308E+04 -2.41663E+03  3.20700E+04  3.04482E+04
 -6.48825E+03  3.30841E+04 -2.87503E+04  1.21469E+04 -2.69759E+04 -6.13477E+03 -1.47785E+04 -9.74942E+03
 -6.87356E+03 -1.14841E+04 -2.07762E+03 -1.62774E+04  7.40889E+03 -2.25147E+04  1.47209E+04 -1.44701E+04
  1.29715E+04  3.29443E+03 -6.23917E+03  1.22763E+04 -1.84686E+04 -1.72699E+03 -8.03356E+03 -2.94743E+04
  2.11597E+04 -4.07595E+04  4.42872E+04 -1.69872E+04  4.16002E+04  1.73080E+04  1.42118E+04  4.15728E+04
 -1.49327E+04  3.12743E+04 -2.26967E+04  9.23597E+02 -8.16361E+03 -2.64276E+04  2.10089E+04 -3.03295E+04
  3.72400E+04 -6.78998E+03  3.04835E+04  2.20054E+04  1.53537E+04  4.13939E+04 -7.68909E+03  4.42745E+04
 -2.75385E+04  2.84028E+04 -3.65025E+04  7.61359E+03 -3.77449E+04 -1.48279E+04 -2.08451E+04 -3.45762E+04
  6.66042E+03 -3.41611E+04  2.90803E+04 -1.25975E+04  2.63805E+04  1.09245E+04  2.06037E+03  1.76841E+04
 -1.37082E+04  7.42058E+03 -9.89570E+03 -6.80742E+03  5.74307E+03 -1.08928E+04  1.81399E+04  6.34798E+03
  1.22984E+04  2.16781E+04 -6.84967E+03  2.27747E+04 -2.16189E+04  8.18848E+03 -2.49327E+04 -6.39186E+03
 -1.75497E+04 -1.64734E+04 -4.87607E+03 -1.60895E+04  3.36831E+03 -1.45144E+04  1.24339E+04 -1.35890E+04
  2.13623E+04 -1.09500E+04  2.74991E+04  1.24486E+02  2.08783E+04  1.55711E+04  4.46616E+03  3.22670E+04
 -1.62301E+04  2.66298E+04 -2.53732E+04  8.76632E+03 -1.89802E+04 -9.75741E+03 -4.44298E+03 -1.47368E+04
  2.44241E+03 -2.99898E+03 -1.88114E+03  4.75369E+03 -1.22148E+04  4.54502E+03 -1.36016E+04 -4.44345E+03
 -8.61670E+03 -1.63642E+04  4.46673E+03 -1.85075E+04  1.18525E+04 -1.36289E+04  1.28834E+04 -8.95344E+02
  8.67930E+03  1.08272E+04  2.28478E+02  1.57497E+04 -9.83245E+03  8.84464E+03 -1.52019E+04 -3.26178E+03
 -1.10065E+04 -1.44841E+04 -2.00078E+03 -1.89777E+04  8.72337E+03 -1.64569E+04  1.61267E+04 -6.43345E+03
  1.38673E+04  5.06751E+02  9.42599E+03  2.81956E+03  5.12913E+03  6.14092E+02  7.12897E+03 -1.40371E+03
  1.36666E+04  2.26958E+03  1.48474E+04  1.20594E+04  8.81456E+03  2.46795E+04 -2.70629E+03  2.44707E+04
 -1.45975E+04  1.92016E+04 -2.38201E+04  9.25950E+03 -2.38027E+04 -1.94900E+03 -2.07787E+04 -1.30556E+04
 -1.04264E+04 -1.82925E+04  6.12598E+03 -1.86551E+04  1.56472E+04 -1.04846E+04  1.54117E+04  2.08010E+03
  5.77690E+03  1.19751E+04 -6.96660E+03  9.92249E+03 -1.28485E+04  2.46316E+03 -1.02676E+04 -8.31290E+03
  2.63056E+02 -1.24291E+04  6.71768E+03 -9.08565E+03  8.33193E+03 -5.19906E+02  6.03309E+02  5.46051E+03
 -5.12326E+03  1.47575E+03 -2.91563E+03 -3.91952E+03  1.09130E+03 -1.03780E+04  7.54553E+03 -1.03130E+04
  1.09151E+04 -5.36874E+03  1.07254E+04  2.71115E+03  1.01721E+04  8.07757E+03  4.44715E+03  1.40614E+04
 -7.32626E+02  1.44748E+04 -7.75680E+03  9.57111E+03 -1.02692E+04  2.62498E+03 -8.44139E+03 -1.37074E+03
 -2.81984E+03 -3.60020E+03 -1.15593E+03  1.21059E+03 -2.01911E+03  2.70653E+03 -3.56419E+03  4.23086E+03
 -7.31166E+03 -1.06437E+03 -7.41867E+03 -6.94772E+03 -2.26289E+03 -1.08702E+04  3.75852E+03 -7.96134E+03
  6.96153E+03 -3.21677E+03  4.78671E+03  1.21003E+03  3.22517E+02  2.57875E+03 -3.29614E+03 -1.57163E+02
 -3.22805E+03 -4.70431E+03 -1.33255E+03 -6.27677E+03  3.75553E+03 -7.10449E+03  8.85674E+03 -3.83145E+03
  1.09668E+04  6.97004E+02  9.15726E+03  5.41398E+03  2.94216E+03  8.02591E+03 -4.95589E+03  7.86909E+03
 -7.62749E+03  1.85365E+03 -2.94941E+03 -1.61995E+03  2.15161E+03 -2.40720E+03  4.96006E+03 -1.85192E+03
  3.95205E+03  2.85997E+03  2.37547E+02  5.93620E+03 -4.08264E+03  6.24906E+03 -6.92420E+03  1.22718E+03
 -4.66619E+03 -4.75720E+03  1.05596E+03 -6.52141E+03  4.46605E+03 -2.99171E+03  2.60785E+03  5.46516E+02
  3.97834E+02  2.95106E+03 -4.86078E+03  3.46460E+03 -4.89655E+03  1.85221E+03 -4.30679E+03 -1.01187E+03
 -2.52707E+03 -5.59329E+03  3.95351E+02 -7.38257E+03  6.01302E+03 -3.60868E+03  5.96071E+03  8.85539E+02
  4.97635E+03  5.28032E+03 -2.16462E+02  7.41044E+03 -5.46304E+03  4.19343E+03 -5.42953E+03 -1.00446E+03
 -5.44807E+03 -5.35291E+03 -6.05419E+02 -6.02042E+03  2.28209E+03 -4.47970E+03  3.59401E+03 -2.84932E+03
  2.27900E+03  3.16271E+02  7.83816E+01  1.92528E+03  7.41837E+02  8.81567E+01 -6.06883E+02 -1.41777E+03
  2.67454E+03 -6.69966E+02  6.15876E+03  1.11575E+03  5.62126E+03  2.90122E+03  4.47928E+03  7.22001E+03
 -1.23009E+03  6.67035E+03 -7.06727E+03  5.82506E+03 -8.05277E+03  8.40367E+02 -7.67482E+03 -1.70059E+03
 -3.36019E+03 -6.04597E+03 -7.79308E+02 -4.20830E+03  7.67454E+02 -2.31136E+03  1.73028E+03 -2.57399E+03
  1.37977E+03 -1.38668E+03  1.20665E+03 -1.30761E+03  3.07100E+03 -5.84124E+02  3.41404E+03 -6.99534E+02
  3.93011E+03  1.74763E+03  1.01660E+03  2.92349E+03 -1.74122E+03  3.62730E+03 -4.69802E+03  2.83523E+03
 -4.55372E+03 -1.84889E+03 -1.83880E+03 -3.62857E+03  1.09010E+03 -4.04144E+03  2.38917E+03 -3.88973E+03
  5.03415E+03 -2.63253E+03  5.91773E+03  3.41976E+02  4.94836E+03  3.67269E+03  8.51821E+02  6.40967E+03
 -1.65423E+03  6.24248E+03 -2.82205E+03  1.95130E+03 -1.82683E+03  5.16946E+02 -1.52491E+03  3.79026E+02
 -7.16313E+02  7.62618E+02 -1.30596E+03  2.57526E+03 -2.60060E+03  1.31296E+03 -4.02004E+03 -1.64897E+03
 -7.43900E+02 -3.76968E+03  1.23719E+03 -4.80654E+03  2.58156E+03 -3.91217E+03  3.38898E+03 -2.99442E+02
  4.48501E+03  1.32218E+03  2.41244E+03  1.96434E+03 -8.38538E+02  4.00364E+03 -1.89795E+03  2.26681E+03
 -3.28013E+03  1.63217E+03 -3.30553E+03 -2.31351E+03  1.63238E+02 -2.78319E+03  1.58603E+03 -1.51057E+03
  2.61860E+03 -6.94737E+02  8.14369E+02  1.37128E+02  3.56747E+02  2.08885E+03  1.02762E+03  1.05225E+03
  1.63209E+03  7.60592E+02  1.88182E+03  7.88659E+02  1.20041E+03  1.98185E+03  7.13947E+02  1.11441E+03
 -1.60994E+03  3.27933E+03 -2.07004E+03  3.72687E+03 -3.18011E+03  1.61137E+03 -3.17065E+03 -4.50443E+02
 -2.09310E+03 -3.47824E+03  3.94966E+02 -4.79418E+03  1.06569E+03 -1.87725E+03  2.97647E+03 -9.37475E+02
  1.48871E+03  1.51377E+03  1.07563E+02  2.09727E+03 -8.61002E+02  4.34460E+02 -1.10994E+03 -5.38572E+02
 -8.44843E+02 -1.72364E+03  9.64733E+02 -1.45847E+03  1.58636E+03 -1.13140E+03  1.10233E+03  3.99798E+01
  8.92943E+02  7.38568E+02  4.64840E+02 -6.18353E+02 -1.77815E+02  5.01418E+02  1.66498E+03  1.43089E+02
 -2.36878E+02 -4.02869E+02  2.44330E+03  1.44535E+03  7.19157E+02  2.32207E+03 -4.58423E+02  2.14924E+03
 -1.42076E+03  7.12904E+02 -1.78341E+03  7.37336E+02 -2.73978E+03 -8.53308E+02 -8.56890E+02 -8.09452E+02
  1.52541E+01 -1.24726E+03  1.34569E+03 -6.15031E+02  1.21566E+03  1.02124E+03 -5.26686E+02  1.66354E+03
 -1.18064E+03  4.44112E+02 -2.00497E+02 -1.21870E+03 -4.76212E+02 -1.13487E+03  3.43298E+02 -1.61939E+03
  7.42786E+02 -3.72054E+02  1.29710E+03  1.98270E+02  1.69516E+03  6.28878E+02  2.28781E+02  5.96990E+02
  6.09585E+02  5.51527E+02 -7.03155E+02 -1.27130E+03  4.91823E+02 -9.51254E+02  2.18447E+03 -7.53356E+00
  2.02502E+03  8.17238E+02  2.93501E+03  1.56820E+03  1.55133E+03  2.73301E+03 -9.22269E+01  1.61926E+03
 -2.32366E+03  1.31523E+03 -1.55613E+03  1.19411E+01 -1.19558E+03 -1.10110E+03  5.90322E+02  1.24486E+02
  1.75039E+03 -1.31236E+03  1.35315E+03  1.63930E+03 -7.41023E+02  1.07071E+03  1.33293E+02  9.32766E+02
  3.11491E+02  8.85089E+02  6.53432E+02 -5.83968E+02 -5.86130E+01 -5.00749E+02 -7.83341E+00  1.10851E+03
  4.83629E+02 -2.74020E+02 -3.40975E+03 -5.57795E+02 -1.48447E+03  1.49900E+03 -2.84841E+03 -6.96857E+02
 -8.91862E+02 -1.91726E+03  9.71731E+00 -2.38613E+03  1.02892E+03 -2.74422E+03  3.30837E+03 -3.67156E+02
  1.55365E+03 -1.28187E+02  3.23854E+02  1.96204E+03 -2.81059E+02  1.88470E+03  3.43116E+02  1.10161E+03
 -7.32871E+02  7.79496E+02  6.61549E+01 -2.52493E+02  5.14037E+02 -2.48821E+02 -5.20085E+02 -2.59862E+02
 -1.17199E+03 -7.25827E+02 -5.59430E+02 -5.06686E+01 -5.82584E+02  3.83735E+01 -2.64004E+00 -1.06695E+03
  1.43527E+03 -7.57878E+02  3.40667E+02 -7.13627E+02  2.85440E+02  1.05235E+03 -9.59173E+02  1.81058E+03
 -8.09081E+02  3.16248E+03 -1.58020E+03  1.31746E+03 -1.28340E+03  4.57719E+02 -2.27551E+03 -6.29434E+02
 -1.22967E+03 -1.32984E+03  2.96780E+02 -8.26856E+02  1.03843E+03 -7.38893E+02 -2.64031E+02  4.32616E+02
  6.90369E+02 -2.24411E+02  4.12633E+02  9.85309E+02 -5.00518E+02  1.26842E+03  3.53092E+02 -1.82095E+02
  6.18695E+02  1.68523E+02  1.69527E+02  1.18650E+02 -1.23213E+03 -1.09222E+02  7.17998E+02 -9.85449E+01
 -6.74071E+02  8.58178E+02 -2.55086E+02  8.34123E+01  3.36200E+02 -8.46293E+02  7.72793E+02 -9.56283E+02
  1.91007E+02 -4.14280E+02  7.47354E+02 -7.12372E+02  2.95088E+02  6.89369E+02  8.20250E+02  9.65589E+02
  7.37132E+02  1.90962E+03 -1.59651E+02  7.17412E+02 -1.12993E+02  3.73555E+02 -9.05364E+01  9.61768E+02
  4.28922E+02 -1.19450E+02 -3.98998E+02  4.37076E+02 -7.64077E+02 -3.95763E+02 -9.47138E+01 -1.04845E+03
 -8.95940E+02  6.43770E+02 -1.18515E+03 -8.32637E+02  9.06734E+01 -8.12046E+02  1.66267E+03  3.50703E+02
  1.58672E+03 -3.47342E+01  4.18976E+02 -8.29065E+02 -2.28960E+02  4.60690E+02 -1.74239E+03  8.00616E+02
