 $NMID ID='MM_0lb_SNR200_20hz_g55_95.RAW', FMTDAT='(8E13.5)'
 TRAMP=1., VOLUME=1. $END
  3.10051E+05  5.04610E+02  3.37044E+05  2.51175E+05  8.42572E+04  3.36751E+05 -1.32604E+05  2.50101E+05
 -1.90906E+05  8.20198E+04 -1.11047E+05 -3.24651E+04  1.11707E+03 -4.97483E+04  5.33681E+04 -1.88747E+02
  3.56516E+04  5.35099E+04 -1.80268E+04  7.52193E+04 -5.96642E+04  6.31239E+04 -8.25770E+04  3.11526E+04
 -7.98876E+04 -1.10015E+04 -5.69522E+04 -5.00108E+04 -1.58666E+04 -6.82172E+04  2.73501E+04 -4.58482E+04
  3.87905E+04  4.94183E+03  1.52342E+04  4.78636E+04 -3.39516E+04  4.56256E+04 -6.53384E+04 -1.45233E+03
 -5.24607E+04 -5.57465E+04 -6.75196E+03 -7.53288E+04  3.31170E+04 -5.41802E+04  4.68179E+04 -1.58454E+04
  4.24599E+04  1.02309E+04  3.07762E+04  2.51210E+04  1.54062E+04  2.82350E+04 -3.88177E+03  2.61547E+04
 -2.12518E+04  1.30928E+04 -1.97989E+04 -5.08778E+03  3.39167E+03 -7.54671E+03  2.16929E+04  1.14831E+04
  7.28058E+03  3.30142E+04 -3.16179E+04  3.26855E+04 -6.13716E+04  2.23057E+03 -5.63251E+04 -4.10340E+04
 -1.22835E+04 -6.03156E+04  3.77956E+04 -4.29716E+04  5.52521E+04 -1.84089E+03  3.18043E+04  3.08401E+04
 -5.64132E+03  3.36777E+04 -2.74551E+04  1.25507E+04 -2.74882E+04 -5.55076E+03 -1.63052E+04 -9.65346E+03
 -7.40091E+03 -1.07935E+04  3.28203E+02 -1.77538E+04  6.49154E+03 -2.34044E+04  1.56334E+04 -1.46701E+04
  1.17200E+04  4.92633E+03 -5.98406E+03  1.27991E+04 -1.85779E+04 -2.02144E+03 -8.02701E+03 -3.10571E+04
  2.03314E+04 -4.02852E+04  4.47238E+04 -1.76752E+04  4.17786E+04  1.86592E+04  1.45896E+04  4.25635E+04
 -1.54980E+04  3.10497E+04 -2.26347E+04  1.44566E+03 -7.73645E+03 -2.63551E+04  1.96182E+04 -3.09522E+04
  3.85545E+04 -6.94762E+03  3.16710E+04  2.30567E+04  1.49059E+04  4.25937E+04 -7.32165E+03  4.58044E+04
 -2.77166E+04  3.03534E+04 -3.64385E+04  8.49495E+03 -3.82651E+04 -1.47652E+04 -2.08962E+04 -3.42373E+04
  6.52259E+03 -3.36180E+04  2.87485E+04 -1.31198E+04  2.73457E+04  1.27127E+04  2.91564E+03  1.89971E+04
 -1.26378E+04  7.83773E+03 -9.80731E+03 -7.65587E+03  6.24473E+03 -1.05924E+04  1.75652E+04  6.88449E+03
  1.15795E+04  2.18561E+04 -7.10665E+03  2.38380E+04 -2.07310E+04  8.44156E+03 -2.63811E+04 -5.83586E+03
 -1.79807E+04 -1.62814E+04 -5.43892E+03 -1.66180E+04  3.42023E+03 -1.52684E+04  1.31129E+04 -1.50462E+04
  2.15869E+04 -1.10011E+04  2.85837E+04  1.41900E+03  2.05834E+04  1.62063E+04  3.94525E+03  3.27688E+04
 -1.59845E+04  2.79870E+04 -2.55785E+04  9.24030E+03 -1.98096E+04 -9.42546E+03 -4.26954E+03 -1.36555E+04
  3.03188E+03 -3.55759E+03 -1.79826E+03  6.30002E+03 -1.24191E+04  5.40895E+03 -1.28717E+04 -4.51866E+03
 -8.04781E+03 -1.52745E+04  4.66640E+03 -1.82125E+04  1.27094E+04 -1.30122E+04  1.47595E+04 -8.74373E+02
  8.60918E+03  1.07353E+04  3.82843E+02  1.46368E+04 -9.94233E+03  8.99598E+03 -1.52602E+04 -3.18883E+03
 -1.12416E+04 -1.32545E+04 -1.94893E+03 -1.94779E+04  9.22078E+03 -1.53705E+04  1.50452E+04 -7.18057E+03
  1.39648E+04  1.76779E+03  1.02567E+04  3.87757E+03  5.85312E+03  3.32792E+02  7.31889E+03 -4.74795E+02
  1.34103E+04  3.42776E+03  1.50666E+04  1.28197E+04  9.31690E+03  2.43582E+04 -2.39780E+03  2.54158E+04
 -1.51823E+04  1.95678E+04 -2.41136E+04  1.00198E+04 -2.57054E+04 -1.92612E+03 -2.04887E+04 -1.32373E+04
 -9.73825E+03 -1.98782E+04  7.65337E+03 -1.82483E+04  1.65479E+04 -1.08914E+04  1.46472E+04  3.79328E+03
  5.66415E+03  1.04180E+04 -6.69818E+03  1.09860E+04 -1.32346E+04  2.45201E+03 -1.09808E+04 -8.53391E+03
 -2.10256E+02 -1.28353E+04  5.08761E+03 -8.76816E+03  7.15260E+03 -2.07184E+02  1.73363E+03  3.81474E+03
 -4.93869E+03  6.60304E+02 -3.92666E+03 -4.70944E+03  1.61588E+03 -1.10959E+04  7.91772E+03 -9.97847E+03
  1.06427E+04 -4.48231E+03  1.17893E+04  3.14538E+03  9.86850E+03  8.44074E+03  4.30987E+03  1.33093E+04
 -1.85146E+03  1.56810E+04 -8.82014E+03  1.02544E+04 -9.33896E+03  3.15820E+03 -7.96742E+03 -9.74143E+02
 -4.33493E+03 -2.83719E+03 -2.08769E+03  2.08165E+03 -1.47124E+03  2.30385E+03 -3.11716E+03  4.23754E+03
 -7.70025E+03  1.17399E+02 -7.68154E+03 -6.86715E+03 -3.18610E+03 -1.06332E+04  3.51268E+03 -6.16096E+03
  6.40405E+03 -2.93479E+03  5.21118E+03  2.03486E+03  1.02126E+03  2.60327E+03 -3.10432E+03  6.06733E+01
 -3.81845E+03 -5.26205E+03 -3.38113E+02 -6.78502E+03  3.64892E+03 -8.06786E+03  8.31281E+03 -3.88959E+03
  1.04866E+04  1.55139E+03  8.34141E+03  5.54112E+03  2.29774E+03  8.21542E+03 -3.99094E+03  7.52496E+03
 -7.86763E+03  1.86339E+03 -3.40756E+03 -1.53217E+03  7.34915E+02 -1.82419E+03  4.31890E+03 -2.01281E+03
  3.66637E+03  1.85097E+03  6.85541E+02  4.90655E+03 -5.13949E+03  6.19238E+03 -7.50125E+03  1.49842E+03
 -4.07363E+03 -3.20612E+03 -1.50345E+02 -6.24125E+03  3.29963E+03 -4.04760E+03  3.23165E+03  3.42065E+02
 -8.40511E+02  2.61491E+03 -4.72663E+03  4.05285E+03 -3.76512E+03  2.32709E+03 -2.91393E+03  2.08540E+02
 -3.31774E+03 -5.86500E+03  1.51980E+03 -5.07563E+03  6.49711E+03 -4.97041E+03  5.88213E+03 -3.91448E+02
  5.17841E+03  5.24477E+03  2.36147E+02  7.66888E+03 -3.50060E+03  4.25221E+03 -4.79302E+03  3.67625E+01
 -4.42935E+03 -3.87319E+03 -7.93126E+02 -3.93852E+03  2.73440E+03 -3.68708E+03  1.90926E+03 -3.40854E+03
  1.73337E+03  3.69210E+02 -6.48036E+02  1.60930E+03  1.07408E+03 -3.35745E+01 -7.49233E+01 -1.07481E+03
  2.69513E+03 -1.27596E+02  3.62017E+03  5.59233E+02  3.89513E+03  2.38012E+03  5.14069E+03  6.42846E+03
 -7.72093E+02  8.32365E+03 -6.71628E+03  5.29751E+03 -8.67457E+03  1.44818E+03 -7.41519E+03 -1.51376E+03
 -4.70086E+03 -6.29820E+03 -3.22625E+02 -3.44454E+03  2.00037E+03 -1.22091E+03  2.74886E+03 -2.13422E+03
  1.04675E+03 -8.52389E+02  1.53922E+03 -1.68004E+03  3.63697E+03 -1.88957E+03  2.77938E+03  6.83844E+01
  4.31090E+03  1.28474E+03  1.41984E+03  4.15820E+03 -1.47890E+03  2.45199E+03 -3.85380E+03  1.94133E+03
 -4.48872E+03 -1.04967E+03 -1.50044E+03 -2.92789E+03 -4.65536E+02 -4.63468E+03  3.44934E+03 -4.49331E+03
  5.19243E+03 -3.44102E+03  6.47695E+03 -3.15693E+02  4.89454E+03  3.21611E+03  1.48681E+03  4.87442E+03
 -2.54484E+03  4.40564E+03 -2.86222E+03  1.80926E+03 -5.21968E+02 -6.36246E+02 -5.49568E+02 -1.12348E+03
 -6.10559E+02  8.71761E+02 -5.54022E+02  2.55100E+03 -2.38052E+03 -7.71206E+01 -4.49661E+03 -3.23284E+02
 -1.82718E+03 -3.72382E+03  4.82380E+02 -4.04139E+03  2.04813E+03 -4.46106E+03  1.76433E+03 -1.86554E+03
  3.16797E+03  2.15929E+03  1.02869E+03  2.72852E+03 -5.46396E+02  5.07899E+03 -4.64946E+02  2.94549E+03
 -2.89000E+03  3.35780E+02 -1.51951E+03 -1.16652E+03 -1.35388E+02 -3.10943E+03  3.13970E+03 -2.19443E+03
  1.79542E+03 -1.20790E+03  1.24439E+03  1.24469E+03  3.89472E+02  7.36514E+02  6.35939E+02  8.21511E+01
  9.92683E+02  3.61932E+02  9.09872E+02  4.56408E+02  9.68834E+02  1.67691E+03  8.53106E+02  1.17808E+03
 -1.53277E+03  2.41991E+03 -1.11727E+03  3.85988E+03 -1.29968E+03  2.00046E+03 -2.89540E+03  8.18015E+02
 -1.64202E+03 -3.03631E+03  5.90357E+02 -4.05283E+03  1.42539E+03 -1.96576E+03  2.93646E+03 -7.66897E+02
  1.79865E+03  1.82002E+03  2.56873E+02  1.84117E+03 -8.22950E+02  1.07094E+03 -6.34135E+02  3.05137E+02
  1.78972E+02 -1.39043E+03  5.06661E+02  3.21867E+02  8.63297E+02 -6.56488E+02  1.41753E+03  7.50425E+02
  1.13040E+03  3.95622E+02  1.66405E+02  8.25146E+02  7.80418E+01  1.58040E+03  1.94763E+03 -1.11865E+03
 -7.55385E+02  3.46166E+02  9.11512E+02  3.53749E+02  2.40354E+02  6.94572E+02  2.43945E+02  1.03739E+03
 -4.96964E+02  1.16606E+03 -1.85529E+03 -6.92478E+02 -1.50533E+03  5.75881E+02  8.54390E+02 -2.35812E+02
  2.50762E+02 -8.44245E+02 -7.62782E+01  3.36294E+01  5.08843E+02  5.49183E+02 -7.81114E+02  1.17948E+03
 -1.10853E+03  3.43455E+02 -3.67275E+02 -1.47128E+03 -5.47389E+02 -1.36858E+03 -5.88991E+02 -1.91078E+03
 -2.77284E+02  1.29277E+02  7.64973E+02 -2.79091E+01  8.42365E+02 -7.57375E+02  6.51319E+02  6.88463E+02
 -7.48187E+02  9.46564E+02 -8.33437E+02 -5.46591E+01  2.22821E+02 -6.25087E+02  7.83631E+02 -3.34919E+02
  1.01944E+03  7.13564E+01  2.09552E+03  6.14364E+02  1.18062E+02  1.23971E+03 -2.30903E+02  1.30254E+03
 -1.87479E+03  1.86298E+02 -1.14606E+02 -1.24246E+03 -6.13510E+02 -8.99243E+02 -4.69540E+02  5.42845E+02
  9.38286E+02 -1.63654E+02  1.19571E+02  6.69849E+02  5.39101E+02  7.50217E+02  8.58320E+02  1.01096E+03
  8.99614E+02  1.80772E+03 -9.08785E+02  1.18826E+02  7.64657E+02  6.79481E+02 -2.49619E+03  8.72351E+02
 -7.71031E+02  5.33371E+02 -1.37001E+03 -3.17239E+01 -1.45427E+03 -2.35926E+02 -2.60518E+03 -8.14395E+02
 -1.19958E+03 -2.33786E+03 -2.38956E+02 -2.10337E+03  1.27425E+03 -1.76376E+03  1.42173E+03 -1.15262E+03
  1.54149E+03 -8.66660E+02  3.28788E+02  8.31592E+02 -9.07680E+02  7.89472E+02 -1.17413E+03  1.00935E+03
 -2.88542E+02 -2.19370E+02  4.27896E+00 -3.67277E+02 -5.42403E+02  4.81980E+01 -1.02292E+03 -7.70990E+02
 -6.40862E+02 -1.08834E+03 -1.03640E+02 -5.58228E+02 -8.98180E+02 -1.24469E+03 -3.17965E+02 -8.37610E+02
  1.97540E+03 -8.17501E+02 -3.23917E+02 -8.66599E+00  1.46159E+02  1.56918E+03 -7.04733E+02  4.71005E+01
 -7.60820E+02  1.49533E+03 -1.25907E+03  1.49760E+03 -1.52854E+03 -5.03375E+02  2.83315E+02 -5.97669E+02
 -1.02963E+03 -1.77260E+02  3.79046E+02 -1.20642E+03 -1.19484E+02  4.40796E+02 -1.17580E+02  5.00508E+02
  1.16444E+03 -7.22057E+02  4.76572E+00  1.74851E+03 -1.91527E+02 -2.05392E+02  4.98766E+02  4.39078E+01
 -2.50026E+02 -7.41736E+02 -2.18695E+02  3.84438E+02  5.26312E+00 -2.60578E+02  8.06969E+02  2.40865E+01
  6.35823E+02  5.55676E+01 -1.31737E+03 -4.94938E+01 -5.06486E+02 -3.05560E+01 -3.30659E+02 -1.70800E+03
  3.40584E+02  5.34677E+01 -4.67187E+02 -2.58029E+02  5.41372E+02 -2.78512E+02  1.04748E+02 -2.07643E+02
  1.55818E+03 -1.40597E+02 -5.48489E+02  1.44568E+03  5.54209E+02  5.42960E+02 -3.14558E+02  1.14945E+03
  2.67395E+02  9.97389E+02 -1.18319E+03  6.22841E+02 -1.17478E+03  1.66343E+02 -3.44350E+02 -2.07908E+02
 -7.80484E+02  8.45150E+02 -1.49635E+03 -1.47119E+03  5.88199E+02 -1.24785E+03  7.16410E+02  2.78198E+02
  6.61525E+02 -6.57723E+02 -1.33096E+01 -1.45567E+01 -6.84951E+02  9.82390E+02 -9.14792E+02  6.28597E+02
