 $NMID ID='MM_0lb_SNR200_16hz_g40_42.RAW', FMTDAT='(8E13.5)'
 TRAMP=1., VOLUME=1. $END
  3.10273E+05 -1.77996E+01  3.36304E+05  2.50911E+05  8.46221E+04  3.38149E+05 -1.32025E+05  2.51194E+05
 -1.90662E+05  8.38992E+04 -1.11879E+05 -3.32487E+04  1.88841E+03 -5.06807E+04  5.34142E+04  6.32206E+02
  3.43178E+04  5.33208E+04 -1.64741E+04  7.51895E+04 -6.01114E+04  6.27958E+04 -8.24930E+04  3.17197E+04
 -8.00361E+04 -1.10590E+04 -5.55861E+04 -4.90441E+04 -1.46785E+04 -6.87962E+04  2.68159E+04 -4.48847E+04
  3.77958E+04  4.04774E+03  1.67093E+04  4.80602E+04 -3.53207E+04  4.58266E+04 -6.65288E+04 -4.06485E+02
 -5.27999E+04 -5.63882E+04 -6.81311E+03 -7.62023E+04  3.35680E+04 -5.43358E+04  4.67724E+04 -1.61472E+04
  4.24418E+04  1.07643E+04  3.12836E+04  2.47367E+04  1.62549E+04  2.84302E+04 -5.08391E+03  2.66243E+04
 -2.20285E+04  1.27221E+04 -1.91797E+04 -4.32561E+03  4.54372E+03 -7.14436E+03  2.15980E+04  1.17872E+04
  7.13719E+03  3.41866E+04 -3.00863E+04  3.27616E+04 -6.26924E+04  5.34439E+02 -5.56464E+04 -4.18778E+04
 -1.24431E+04 -6.20473E+04  3.86583E+04 -4.49550E+04  5.68732E+04 -3.08025E+03  3.23709E+04  3.06929E+04
 -7.18957E+03  3.44297E+04 -2.97354E+04  1.40873E+04 -2.78539E+04 -5.00257E+03 -1.49137E+04 -1.12854E+04
 -7.67323E+03 -1.12213E+04 -1.31318E+03 -1.74734E+04  7.76423E+03 -2.28524E+04  1.50476E+04 -1.41642E+04
  1.18163E+04  4.75287E+03 -6.71368E+03  1.27312E+04 -2.01867E+04 -2.26830E+03 -8.50487E+03 -3.04120E+04
  2.10751E+04 -4.22829E+04  4.61739E+04 -1.88202E+04  4.24694E+04  1.85303E+04  1.48461E+04  4.22484E+04
 -1.50862E+04  3.03372E+04 -2.25907E+04  4.29108E+02 -8.44263E+03 -2.68852E+04  2.07031E+04 -3.17269E+04
  3.92121E+04 -7.30696E+03  3.25186E+04  2.32861E+04  1.65373E+04  4.33622E+04 -6.17935E+03  4.62556E+04
 -2.96952E+04  3.17581E+04 -3.80231E+04  9.31560E+03 -4.01705E+04 -1.58384E+04 -2.19473E+04 -3.57117E+04
  6.94487E+03 -3.58836E+04  2.93725E+04 -1.35531E+04  2.76779E+04  1.04552E+04  3.80519E+03  1.78765E+04
 -1.36836E+04  8.02949E+03 -9.98036E+03 -7.88249E+03  4.88889E+03 -9.63420E+03  1.75497E+04  6.88751E+03
  1.29678E+04  2.14362E+04 -5.82479E+03  2.34970E+04 -2.21356E+04  9.83692E+03 -2.47520E+04 -5.77966E+03
 -1.71179E+04 -1.70495E+04 -6.08554E+03 -1.85431E+04  4.06674E+03 -1.61892E+04  1.38539E+04 -1.63330E+04
  2.26055E+04 -1.12890E+04  3.09435E+04  2.53764E+03  2.15607E+04  1.69847E+04  3.77063E+03  3.40075E+04
 -1.66879E+04  2.77807E+04 -2.66044E+04  1.10538E+04 -1.96838E+04 -1.02706E+04 -4.30774E+03 -1.32701E+04
  2.40575E+03 -3.90087E+03 -2.23907E+03  5.72706E+03 -1.46513E+04  5.22631E+03 -1.42967E+04 -4.50827E+03
 -9.71919E+03 -1.75136E+04  2.99501E+03 -2.01476E+04  1.42362E+04 -1.42399E+04  1.40731E+04 -1.20450E+03
  9.35195E+03  1.14156E+04 -6.53563E+02  1.73140E+04 -1.17761E+04  1.02099E+04 -1.84494E+04 -3.45608E+03
 -1.23254E+04 -1.45187E+04 -1.49151E+03 -2.04588E+04  9.58421E+03 -1.63922E+04  1.69247E+04 -7.49012E+03
  1.62059E+04 -1.82522E+02  1.17535E+04  3.67676E+03  5.48862E+03  5.14960E+02  8.53094E+03 -1.35919E+03
  1.47291E+04  3.03672E+03  1.58122E+04  1.30902E+04  1.05729E+04  2.66133E+04 -3.05208E+03  2.89578E+04
 -1.72214E+04  2.30984E+04 -2.76508E+04  1.19119E+04 -2.78219E+04 -2.66825E+03 -2.40808E+04 -1.56289E+04
 -1.08855E+04 -2.29972E+04  7.13405E+03 -1.98063E+04  1.83306E+04 -1.18264E+04  1.70386E+04  3.95885E+03
  7.11255E+03  1.07540E+04 -7.57158E+03  1.12644E+04 -1.48875E+04  2.71472E+03 -1.09708E+04 -8.92711E+03
 -8.33846E+01 -1.38425E+04  6.78136E+03 -1.01954E+04  7.91718E+03 -2.00623E+03  2.02039E+03  4.84207E+03
 -6.28776E+03  2.08003E+03 -4.86793E+03 -5.34467E+03  3.75356E+02 -1.19118E+04  8.48932E+03 -1.11967E+04
  1.35971E+04 -5.08760E+03  1.38546E+04  2.76882E+03  1.32415E+04  1.08477E+04  5.68481E+03  1.72013E+04
 -2.89196E+03  1.82427E+04 -1.07272E+04  1.12425E+04 -1.41806E+04  4.57232E+03 -1.01999E+04 -2.60040E+03
 -4.50562E+03 -3.96239E+03 -1.25860E+03  8.97252E+02 -2.60909E+03  2.44442E+03 -3.53273E+03  4.57255E+03
 -8.77816E+03 -1.12005E+03 -9.54321E+03 -7.81379E+03 -4.20374E+03 -1.28156E+04  3.90315E+03 -9.73748E+03
  7.80402E+03 -4.03091E+03  5.26091E+03  1.82866E+03 -1.70176E+02  4.40908E+03 -4.40945E+03  4.02484E+02
 -3.76621E+03 -6.50676E+03 -3.10963E+02 -1.00489E+04  4.43313E+03 -7.94202E+03  1.16885E+04 -5.32973E+03
  1.40542E+04  6.87119E+02  1.13903E+04  7.83871E+03  3.56858E+03  9.72530E+03 -5.53260E+03  9.23697E+03
 -7.14590E+03  4.01786E+03 -2.59505E+03 -4.14479E+02  1.69202E+03 -3.01318E+03  5.33251E+03 -1.09778E+03
  5.07026E+03  3.65328E+03  2.41411E+03  5.66219E+03 -6.02400E+03  6.96941E+03 -8.81531E+03  1.25773E+03
 -5.99724E+03 -3.63920E+03  1.09828E+03 -7.60401E+03  4.55776E+03 -2.87455E+03  4.90532E+03  2.19321E+03
 -3.58638E+02  5.67976E+03 -4.27713E+03  5.71691E+03 -6.27669E+03  3.09689E+03 -5.85404E+03 -1.75128E+03
 -3.19677E+03 -7.23500E+03  8.47925E+02 -7.68922E+03  6.90820E+03 -5.94561E+03  7.96011E+03  1.10272E+03
  5.59397E+03  6.28333E+03 -7.15663E+02  9.60851E+03 -6.33873E+03  5.45088E+03 -6.16574E+03  2.44804E+01
 -6.93533E+03 -5.58134E+03 -1.26700E+03 -6.00613E+03  3.08074E+03 -5.21061E+03  2.15554E+03 -2.83240E+03
  2.77052E+03  4.85081E+02  7.29488E+02  1.92896E+03 -9.11476E+02 -2.26654E+02  1.99742E+03 -3.06018E+03
  5.35316E+03 -2.20262E+03  7.46505E+03  8.68056E+02  6.47837E+03  4.48708E+03  4.29967E+03  9.49279E+03
 -1.69713E+03  1.19512E+04 -9.76756E+03  7.19007E+03 -1.23080E+04  2.14099E+03 -8.61518E+03 -3.00711E+03
 -4.83501E+03 -8.21755E+03 -5.30210E+02 -7.02014E+03  2.23485E+03 -2.41273E+03  1.59060E+03 -1.48802E+03
  1.70121E+03 -2.02103E+03  3.60051E+03 -3.33020E+03  3.35302E+03 -2.27256E+03  4.87081E+03 -5.66690E+02
  4.89788E+03  8.12907E+02  2.25812E+03  3.63012E+03 -7.90217E+02  4.37070E+03 -4.68001E+03  3.71316E+03
 -6.17297E+03 -2.38181E+02 -2.35488E+03 -4.54903E+03  9.01873E+02 -6.61056E+03  3.98118E+03 -6.23864E+03
  6.54690E+03 -4.63337E+03  8.36909E+03  1.33264E+03  6.36560E+03  6.11963E+03  4.83643E+02  7.58087E+03
 -2.52669E+03  7.07551E+03 -4.63093E+03  1.93856E+03 -4.11622E+03 -9.38423E+02 -1.66198E+02 -6.64196E+02
 -6.55093E+02  7.39496E+02 -4.29130E+02  3.42696E+03 -2.93388E+03  7.55511E+02 -4.11598E+03 -1.11009E+03
 -2.53319E+03 -5.38818E+03  5.49420E+02 -6.32405E+03  3.39789E+03 -6.14282E+03  5.17910E+03 -1.76068E+03
  5.66105E+03  3.64935E+03  2.73731E+03  5.31600E+03  1.69404E+02  6.14594E+03 -4.03673E+03  3.91342E+03
 -4.90291E+03 -3.19583E+02 -5.23477E+03 -3.37343E+03  6.82518E+01 -3.71176E+03  2.46104E+03 -4.59071E+03
  3.87377E+03 -8.68082E+02  1.54662E+03  1.30516E+03  6.70159E+02  1.85924E+03  1.10162E+03  6.76828E+02
  2.02499E+03  1.30973E+03  2.40952E+03  5.06921E+02  1.25226E+03  2.35514E+03  2.03240E+03  2.24587E+03
 -2.37503E+03  5.47572E+03 -3.63183E+03  5.00927E+03 -5.57364E+03  1.88399E+03 -5.58610E+03 -1.08106E+03
 -1.85426E+03 -4.86415E+03  1.27354E+03 -7.34818E+03  3.18284E+03 -3.63618E+03  4.32803E+03 -7.67182E+02
  4.09193E+03  2.89639E+03  2.89636E+02  3.44278E+03 -1.51965E+03  9.41081E+02 -1.81243E+03 -6.25471E+01
 -8.49462E+02 -1.09968E+03  2.16413E+03 -1.57302E+03  1.98248E+03 -1.93632E+03  1.11807E+03  1.24391E+03
  1.48269E+03  1.43591E+03  9.95232E+02  1.98270E+02 -1.02186E+02  1.69445E+03  1.13479E+03 -5.83108E+02
  8.09898E+02 -8.84515E+01  2.11374E+03  7.54972E+02  1.24953E+03  2.63467E+03  3.79503E+02  3.91195E+03
 -2.95485E+03  1.11587E+03 -3.60955E+03  1.73257E+01 -3.65082E+03  3.64714E+02 -5.54697E+02 -2.35499E+03
  1.04860E+03 -2.44616E+03  1.80477E+03 -3.77576E+02  1.26301E+03  9.01255E+02 -9.40234E+02  1.92524E+03
 -2.22290E+03  6.33324E+02 -1.06695E+03 -8.76733E+02 -1.92905E+03 -3.84131E+03 -3.65669E+02 -2.51174E+03
  1.09270E+03 -1.30221E+03  1.62914E+03  9.25248E+02  1.77396E+03  1.53599E+02  7.33695E+02  1.46327E+03
 -8.86705E+02 -6.74503E+02 -2.21717E+02 -7.43130E+02  1.01565E+03 -2.01564E+03  3.33770E+03 -2.10940E+03
  2.08633E+03  2.95785E+02  3.73079E+03  1.71240E+03  1.50825E+03  2.72124E+03 -5.16816E+02  3.76295E+03
 -2.12232E+03  4.08839E+02 -1.74505E+03 -9.69962E+02 -1.25566E+02 -2.21198E+03  6.98543E+02 -1.54745E+03
  2.48462E+03 -1.13094E+03  2.14450E+03  5.88426E+02  1.31247E+03  1.57695E+03  3.85165E+02  8.19760E+02
 -9.35515E+02  1.90820E+03 -4.41955E+01  6.89169E+02  5.37180E+02  1.22349E+03 -2.35058E+03  5.15080E+02
 -5.04881E+02  2.11720E+03 -2.21734E+03  6.60165E+02 -3.50491E+03 -8.07766E+02 -3.74225E+03 -1.99189E+03
 -1.27154E+03 -4.95520E+03  1.07892E+03 -4.26925E+03  2.42520E+03 -4.25909E+03  4.14295E+03 -1.58509E+03
  4.38147E+03  6.21972E+02  2.07699E+03  1.86715E+03  4.59117E+02  4.27673E+03 -1.11960E+03  1.62049E+03
 -1.48829E+03  1.41707E+03 -2.15783E+03  1.30601E+02 -1.18354E+03 -1.04767E+02 -1.20652E+03  1.56339E+02
 -1.84255E+03  1.27558E+02 -1.82805E+03  5.91598E+01  1.51989E+02 -1.41554E+03 -5.95827E+02 -1.43370E+03
  1.55362E+03 -1.67228E+03  9.28426E+02 -2.47084E+00  1.13624E+03  2.58834E+03  3.86848E+02  2.82918E+03
 -1.25275E+03  3.34930E+03 -2.49337E+03  2.43563E+03 -1.90438E+03 -1.08747E+03 -3.14554E+03 -2.22986E+03
 -4.63101E+02 -1.54444E+03  1.05593E+03 -2.14481E+03  7.13355E+02 -2.14496E+02  2.29551E+03  1.61052E+03
  1.30624E+03  3.76554E+02  9.13869E+02  4.72419E+02 -9.42211E+02  1.40326E+02 -1.45615E+02 -3.36427E+02
  1.69526E+03 -2.59147E+02 -4.43427E+02  1.14812E+03  5.58026E+02  1.57609E+03  8.95555E+02  2.42953E+03
 -3.87001E+00  1.78979E+03 -1.16693E+03 -6.70973E+02 -5.41186E+02 -3.15212E+02 -3.63052E+02 -1.71536E+03
  4.09404E+02 -2.12551E+03  1.51046E+03 -9.91583E+02  2.00877E+03 -6.86952E+02  2.36145E+03  1.50280E+03
  9.28353E+01  1.14449E+03 -1.17241E+03  5.22217E+02 -1.17577E+03  2.09893E+01 -1.50163E+03  3.12721E+02
 -5.87857E+02  2.52856E+01 -1.79660E+03  1.16729E+03 -1.43362E+03 -1.87047E+02 -1.75237E+03 -2.68569E+02
 -9.60566E+02  2.86665E+02 -4.25516E+02 -2.94281E+03  1.37402E+03 -1.85590E+03  1.05686E+03 -2.04118E+03
  1.25917E+03 -7.60326E+02  9.50382E+02  1.29448E+03  1.45456E+02  2.58673E+03 -8.72773E+02  5.03566E+02
