 $NMID ID='MM_0lb_SNR200_12hz_g60_63.RAW', FMTDAT='(8E13.5)'
 TRAMP=1., VOLUME=1. $END
  3.10163E+05 -9.30033E+02  3.37694E+05  2.49245E+05  8.48734E+04  3.39157E+05 -1.32870E+05  2.52131E+05
 -1.90683E+05  8.44443E+04 -1.11139E+05 -3.23556E+04  2.31604E+02 -5.00176E+04  5.23831E+04 -4.06155E+02
  3.57323E+04  5.19413E+04 -1.84184E+04  7.68596E+04 -6.07188E+04  6.50184E+04 -8.57195E+04  3.37042E+04
 -8.28316E+04 -1.21338E+04 -5.81704E+04 -5.21941E+04 -1.45431E+04 -7.11809E+04  3.02106E+04 -4.71353E+04
  3.99312E+04  4.09995E+03  1.74663E+04  4.79446E+04 -3.46952E+04  4.83462E+04 -6.66263E+04 -4.49453E+02
 -5.40433E+04 -5.77804E+04 -7.06442E+03 -7.74407E+04  3.49015E+04 -5.71843E+04  4.97488E+04 -1.89610E+04
  4.34266E+04  1.31898E+04  3.27892E+04  2.67316E+04  1.66651E+04  2.97725E+04 -5.34103E+03  2.67787E+04
 -2.21467E+04  1.23939E+04 -1.78870E+04 -5.17338E+03  6.81129E+03 -8.17682E+03  2.21061E+04  1.30889E+04
  7.00221E+03  3.55522E+04 -3.37307E+04  3.56882E+04 -6.48866E+04  2.61116E+03 -5.64610E+04 -4.31756E+04
 -1.39838E+04 -6.50550E+04  4.10919E+04 -4.66938E+04  6.16758E+04 -4.20027E+02  3.48655E+04  3.46587E+04
 -6.06015E+03  3.74835E+04 -3.06481E+04  1.66356E+04 -3.15878E+04 -3.19814E+03 -1.68783E+04 -1.20301E+04
 -9.46583E+03 -1.52159E+04 -1.49389E+02 -1.95311E+04  8.42426E+03 -2.31621E+04  1.55868E+04 -1.28489E+04
  1.15114E+04  5.71202E+03 -1.08009E+04  1.31798E+04 -2.25049E+04 -5.86891E+03 -8.69201E+03 -3.57561E+04
  2.39268E+04 -4.45755E+04  5.25984E+04 -1.92432E+04  4.65531E+04  2.11036E+04  1.63123E+04  4.66995E+04
 -1.81629E+04  3.56127E+04 -2.72047E+04  3.56109E+03 -1.17882E+04 -2.97002E+04  2.02362E+04 -3.63403E+04
  4.28184E+04 -1.00514E+04  3.89783E+04  2.41787E+04  2.04523E+04  4.98575E+04 -8.52764E+03  5.43354E+04
 -3.52987E+04  3.59533E+04 -4.66946E+04  1.08285E+04 -4.60900E+04 -1.81819E+04 -2.46236E+04 -4.18254E+04
  7.78329E+03 -3.98934E+04  3.29022E+04 -1.55545E+04  3.15952E+04  1.12891E+04  4.25465E+03  1.96345E+04
 -1.50916E+04  8.77017E+03 -1.02469E+04 -6.88380E+03  4.37988E+03 -1.25071E+04  1.90245E+04  5.68196E+03
  1.43888E+04  2.43353E+04 -4.58406E+03  2.78786E+04 -2.40132E+04  1.37952E+04 -3.04841E+04 -3.45558E+03
 -2.15530E+04 -1.90492E+04 -1.07941E+04 -2.35447E+04  4.26287E+03 -2.43972E+04  1.81520E+04 -1.93451E+04
  2.94909E+04 -1.40369E+04  3.56466E+04  4.82834E+03  2.61736E+04  2.20077E+04  3.22204E+03  3.92902E+04
 -1.83595E+04  3.35215E+04 -3.11363E+04  1.11734E+04 -2.21581E+04 -1.14749E+04 -4.65916E+03 -1.19617E+04
  9.95181E+02 -2.84628E+02 -6.73064E+03  8.03952E+03 -1.87727E+04  6.20850E+03 -1.85803E+04 -7.42078E+03
 -1.09522E+04 -2.22639E+04  5.93648E+03 -2.50039E+04  1.71919E+04 -1.88088E+04  2.12188E+04 -1.31512E+03
  1.38799E+04  1.47756E+04 -7.72006E+02  2.00626E+04 -1.57183E+04  1.32542E+04 -1.99015E+04 -5.88567E+03
 -1.51757E+04 -1.92536E+04 -2.35561E+03 -2.69688E+04  1.11797E+04 -2.09362E+04  2.27328E+04 -1.16795E+04
  2.03540E+04 -9.96224E+02  1.42526E+04  6.61769E+03  7.93519E+03  1.67232E+03  1.15594E+04 -1.38970E+03
  2.05752E+04  2.72318E+03  2.21706E+04  1.63752E+04  1.51917E+04  3.48765E+04 -3.05475E+03  4.08335E+04
 -2.37883E+04  3.31526E+04 -3.84831E+04  1.65896E+04 -3.96120E+04 -2.87460E+03 -3.16512E+04 -2.41568E+04
 -1.27266E+04 -3.40197E+04  1.12238E+04 -2.93143E+04  2.57741E+04 -1.44173E+04  2.22275E+04  5.42828E+03
  6.96425E+03  1.67196E+04 -1.23551E+04  1.38694E+04 -1.89494E+04  3.13467E+03 -1.55969E+04 -1.20441E+04
 -2.28953E+02 -1.77147E+04  1.02053E+04 -1.14087E+04  1.14293E+04 -2.00051E+03  3.67519E+03  8.05527E+03
 -8.56207E+03  4.53717E+03 -8.33503E+03 -6.55532E+03 -1.52457E+03 -1.68485E+04  1.18823E+04 -1.64417E+04
  2.16978E+04 -9.27900E+03  2.36693E+04  2.45992E+03  1.88522E+04  1.79811E+04  9.22492E+03  2.55042E+04
 -4.51916E+03  2.77065E+04 -1.75535E+04  1.84257E+04 -1.96995E+04  4.19998E+03 -1.42785E+04 -4.43221E+03
 -6.36472E+03 -5.54088E+03 -1.74188E+03  5.24347E+02 -1.36614E+03  6.08563E+02 -5.80377E+03  5.19465E+03
 -1.31753E+04  9.33869E+01 -1.37833E+04 -1.18345E+04 -3.27868E+03 -1.73291E+04  6.96033E+03 -1.30540E+04
  1.14184E+04 -5.04866E+03  7.24720E+03  3.34816E+03 -7.54147E+02  4.79587E+03 -8.00474E+03 -1.29090E+03
 -7.04681E+03 -8.50068E+03 -1.54043E+03 -1.35256E+04  6.17317E+03 -1.34256E+04  1.70501E+04 -6.15378E+03
  2.13010E+04  2.88017E+03  1.58445E+04  1.19573E+04  2.77190E+03  1.42205E+04 -9.65148E+03  1.15737E+04
 -1.05459E+04  4.37278E+03 -5.05097E+03 -3.64803E+03  1.64610E+03 -4.06571E+03  8.21016E+03 -2.38780E+03
  5.52591E+03  5.36929E+03  1.96147E+02  1.03005E+04 -7.28224E+03  1.05261E+04 -1.34421E+04  3.59115E+03
 -9.09463E+03 -7.51922E+03 -8.67256E+02 -1.16352E+04  6.16159E+03 -5.62138E+03  9.50360E+03  2.51356E+03
  1.03202E+03  7.54958E+03 -7.38719E+03  8.07767E+03 -9.98786E+03  4.52613E+03 -1.21042E+04 -3.04065E+03
 -5.13738E+03 -1.20961E+04  1.94908E+03 -1.52958E+04  1.16366E+04 -9.01743E+03  1.39641E+04  2.10693E+03
  9.11874E+03  1.23612E+04 -2.51234E+03  1.24404E+04 -1.02353E+04  7.31699E+03 -1.15981E+04  2.57527E+02
 -9.40227E+03 -9.61646E+03 -1.13122E+03 -1.18293E+04  4.56264E+03 -8.47270E+03  6.01464E+03 -3.07436E+03
  4.69594E+03  9.66381E+02 -4.83169E+02  2.20958E+03 -1.06422E+03 -2.88676E+03  2.01320E+03 -6.83929E+03
  8.23967E+03 -3.87519E+03  1.36255E+04  1.67879E+03  1.41444E+04  8.74854E+03  9.93088E+03  1.67003E+04
 -3.33038E+03  1.95984E+04 -1.64770E+04  1.24923E+04 -1.90805E+04  1.95933E+03 -1.70178E+04 -7.29155E+03
 -8.15770E+03 -1.53416E+04 -7.01698E+02 -1.17826E+04  3.54309E+03 -6.77546E+03  3.54753E+03 -3.91849E+03
  3.90131E+03 -3.98675E+03  1.33718E+03 -4.27001E+03  4.55509E+03 -3.82329E+03  7.71075E+03 -1.04868E+03
  9.16919E+03  3.13150E+03  5.22458E+03  6.53884E+03 -2.63168E+03  8.70535E+03 -9.76460E+03  7.86453E+03
 -1.16988E+04 -1.40989E+03 -7.41272E+03 -7.44753E+03  9.40518E+02 -1.25478E+04  6.37843E+03 -1.27238E+04
  1.33259E+04 -7.61676E+03  1.56667E+04  8.20739E+02  1.11116E+04  1.11910E+04  2.03757E+03  1.43145E+04
 -5.77205E+03  1.22477E+04 -7.55434E+03  4.43081E+03 -5.96421E+03 -2.25561E+03 -2.24024E+03 -2.87286E+03
 -6.03504E+02 -2.95107E+02 -2.54645E+03  2.84338E+03 -5.04210E+03  1.84447E+03 -7.46346E+03 -1.43261E+03
 -6.48340E+03 -8.42351E+03 -7.60609E+01 -1.16345E+04  7.60651E+03 -1.12998E+04  1.20956E+04 -3.37314E+03
  1.12768E+04  5.70599E+03  5.63386E+03  9.39185E+03 -3.35736E+03  1.08291E+04 -9.62554E+03  6.61920E+03
 -1.10545E+04 -1.83868E+02 -9.21957E+03 -7.36337E+03 -1.20355E+03 -7.82644E+03  4.48964E+03 -6.59724E+03
  7.72977E+03 -2.88815E+03  4.72042E+03  2.17480E+03  8.92778E+02  3.35936E+03  1.30118E+03  2.02940E+03
  1.82088E+03  1.76298E+03  2.81467E+03  1.69155E+03  4.82359E+03  3.83942E+03  3.18449E+03  6.79393E+03
 -2.69359E+03  8.60427E+03 -7.17937E+03  8.39853E+03 -1.00700E+04  1.01730E+03 -1.36114E+04 -3.97651E+03
 -5.50738E+03 -1.28492E+04  1.82309E+03 -1.23305E+04  6.56967E+03 -7.89113E+03  8.03711E+03 -1.35180E+03
  8.91993E+03  3.26324E+03  5.53538E+02  5.68741E+03 -4.00057E+03  2.11759E+03 -3.73168E+03 -3.52250E+02
 -2.83005E+03 -5.22185E+03  2.16588E+03 -5.93680E+03  5.76914E+03 -2.09414E+03  5.18803E+03 -3.35749E+02
  2.89811E+03  1.60806E+03  2.33577E+03  9.94535E+02 -1.43935E+03  8.21310E+02  2.11720E+03 -1.40183E+02
  1.40779E+03  6.41971E+02  3.92704E+03  2.31662E+03  3.39438E+03  6.29862E+03 -6.42631E+01  7.95534E+03
 -6.02138E+03  5.02276E+03 -6.75578E+03  1.88506E+03 -5.79667E+03 -1.25104E+03 -3.72672E+03 -3.66603E+03
 -7.58961E+00 -3.48900E+03  2.09870E+03 -1.15342E+03  2.88386E+03  1.66958E+03 -1.58683E+02  3.35221E+03
 -3.81776E+03  8.98327E+02 -3.84938E+03 -2.51016E+03 -3.75849E+03 -5.88190E+03 -2.81972E+02 -6.12298E+03
  2.53047E+03 -3.93833E+03  3.65147E+03 -3.34431E+02  2.17086E+03  5.07029E+02  4.73781E+02  3.27911E+03
 -1.77016E+03  7.57914E+02 -3.59065E+02 -2.46112E+03  1.80648E+03 -4.21696E+03  4.71667E+03 -3.52303E+03
  5.72925E+03  1.18591E+02  6.47917E+03  4.44047E+03  1.72272E+03  6.16280E+03 -2.88444E+03  4.95488E+03
 -6.32554E+03  6.67392E+02 -6.55763E+03 -1.80132E+03 -3.38292E+03 -5.29954E+03  1.15599E+03 -2.96907E+03
  4.71024E+03 -1.99546E+03  1.21115E+03  1.97695E+03 -8.75603E+01  2.55358E+03  5.78770E+02  3.46099E+03
 -2.30581E+03  2.90197E+03 -7.81068E+02  7.24845E+02  7.58095E+01  6.82289E+01 -1.06877E+03  1.03188E+03
 -1.97262E+03  2.71325E+03 -4.35352E+03  2.21113E+03 -7.20363E+03 -1.63486E+03 -6.95408E+03 -3.63624E+03
 -2.89115E+03 -9.05316E+03  1.65731E+03 -1.01251E+04  5.45966E+03 -7.38405E+03  9.22647E+03 -3.26351E+03
  8.47135E+03  4.42569E+03  6.21169E+03  6.32133E+03  1.35170E+03  7.21907E+03 -1.38290E+03  5.42228E+03
 -3.33876E+03  1.24043E+03 -2.04866E+03 -7.09610E+02 -1.62415E+03 -2.08062E+01 -8.71404E+02  3.06760E+02
 -1.56454E+03  8.81187E+02 -1.56978E+03 -1.15179E+03  1.50660E+02 -1.72195E+03  6.93088E+02 -2.89520E+03
  2.33397E+03 -2.66903E+03  3.92940E+03 -1.76168E+02  3.96484E+03  3.44839E+03 -1.41842E+02  5.94690E+03
 -3.40966E+03  6.42135E+03 -6.79520E+03  4.38678E+03 -7.76593E+03 -1.14530E+03 -5.17451E+03 -4.67394E+03
 -2.37466E+03 -7.31798E+03  1.90186E+03 -7.89368E+03  3.93877E+03 -2.47164E+03  4.73741E+03 -5.53786E+02
  2.13119E+03  3.77908E+03  1.19280E+03  1.16665E+03 -4.09812E+02  3.45286E+02 -1.12276E+03 -1.07659E+03
  1.97447E+03 -1.76890E+03  2.56875E+03  5.35431E+01  2.21193E+03  2.70070E+03  1.11815E+03  3.81007E+03
 -1.93325E+03  3.30238E+03 -4.47120E+03  1.43835E+03 -5.14067E+03 -3.22175E+03  3.69581E+02 -5.34666E+03
  2.01252E+03 -4.11498E+03  3.08118E+03 -6.72734E+02  3.68945E+03  1.53561E+03  2.09174E+03  3.29337E+03
  3.52982E+01  4.52325E+03 -1.31375E+03  2.82300E+03 -2.71328E+03  2.04938E+03 -1.65734E+03 -3.97888E+02
 -1.23182E+03 -8.67454E+02 -2.31203E+03  1.03497E+03 -2.55483E+03  7.18157E+02 -3.57071E+03 -1.31651E+03
 -2.76662E+03 -2.16855E+03 -1.46546E+03 -4.39978E+03  1.73377E+03 -4.44003E+03  3.31010E+03 -1.86454E+03
  3.22006E+03  3.98834E+02  3.00894E+03  2.22011E+03 -1.07831E+03  5.48365E+03 -2.79275E+03  4.12639E+03
