 $NMID ID='MM_0lb_SNR200_10hz_g55_1.RAW', FMTDAT='(8E13.5)'
 TRAMP=1., VOLUME=1. $END
  3.09453E+05 -7.59171E+01  3.37963E+05  2.49064E+05  8.35404E+04  3.37153E+05 -1.33045E+05  2.52229E+05
 -1.91172E+05  8.23508E+04 -1.12035E+05 -3.31566E+04  8.71247E+02 -4.96206E+04  5.48531E+04 -5.07982E+02
  3.55346E+04  5.32470E+04 -1.56491E+04  7.43032E+04 -6.09273E+04  6.40508E+04 -8.56754E+04  3.28068E+04
 -8.17569E+04 -1.29696E+04 -5.95730E+04 -5.11747E+04 -1.45158E+04 -7.04414E+04  2.70719E+04 -4.58674E+04
  4.18052E+04  4.41551E+03  1.65117E+04  4.96541E+04 -3.42636E+04  4.83195E+04 -6.74291E+04  1.02682E+03
 -5.50864E+04 -5.81026E+04 -6.40964E+03 -7.90979E+04  3.52852E+04 -5.62887E+04  4.87155E+04 -1.81078E+04
  4.41779E+04  1.25074E+04  3.09781E+04  2.74920E+04  1.60979E+04  2.98073E+04 -5.72730E+03  2.79945E+04
 -2.13322E+04  1.27608E+04 -1.75962E+04 -6.22129E+03  8.00376E+03 -6.85957E+03  2.36784E+04  1.41196E+04
  7.66767E+03  3.74741E+04 -3.51417E+04  3.53714E+04 -6.63259E+04  4.60241E+03 -5.87905E+04 -4.38302E+04
 -1.14373E+04 -6.61499E+04  4.10468E+04 -4.69452E+04  6.16873E+04 -3.46893E+03  3.74739E+04  3.39058E+04
 -7.12467E+03  3.90650E+04 -3.10622E+04  1.78966E+04 -3.29713E+04 -2.88796E+03 -1.93991E+04 -1.28961E+04
 -9.52000E+03 -1.43569E+04 -5.60650E+00 -1.92085E+04  8.62431E+03 -2.46250E+04  1.70436E+04 -1.38162E+04
  1.20886E+04  7.73230E+03 -1.03825E+04  1.26691E+04 -2.35323E+04 -7.10019E+03 -8.62335E+03 -3.71744E+04
  2.46248E+04 -4.57361E+04  5.20093E+04 -1.96467E+04  4.94344E+04  2.08911E+04  1.61538E+04  4.82142E+04
 -1.68918E+04  3.53711E+04 -2.61593E+04  3.41622E+03 -1.04519E+04 -2.82264E+04  2.10313E+04 -3.69333E+04
  4.38885E+04 -1.21770E+04  3.98961E+04  2.30795E+04  2.21061E+04  5.12585E+04 -6.65877E+03  5.57164E+04
 -3.45279E+04  3.83265E+04 -4.72068E+04  1.06316E+04 -4.84940E+04 -1.75928E+04 -2.53810E+04 -4.21060E+04
  6.25638E+03 -4.13221E+04  3.36319E+04 -1.66419E+04  3.03462E+04  1.09119E+04  4.80719E+03  1.96902E+04
 -1.34871E+04  9.58268E+03 -1.18070E+04 -7.64802E+03  5.78851E+03 -1.32353E+04  1.84754E+04  5.16504E+03
  1.49307E+04  2.23497E+04 -4.68396E+03  2.75165E+04 -2.30309E+04  1.41963E+04 -3.08022E+04 -2.32609E+03
 -2.56928E+04 -1.84815E+04 -1.43112E+04 -2.43882E+04  2.15370E+03 -2.44981E+04  2.04555E+04 -2.15009E+04
  3.24502E+04 -1.38409E+04  3.75510E+04  4.11327E+03  2.77593E+04  2.41328E+04  5.39040E+03  4.24551E+04
 -1.89634E+04  3.36525E+04 -3.04303E+04  1.26452E+04 -2.21881E+04 -1.03066E+04 -4.38699E+03 -1.38708E+04
  6.94561E+01 -1.71968E+03 -7.32601E+03  8.65964E+03 -1.85600E+04  6.52357E+03 -2.08800E+04 -9.86593E+03
 -1.07057E+04 -2.42977E+04  7.41365E+03 -2.78154E+04  1.62340E+04 -1.89527E+04  2.34640E+04 -1.95868E+03
  1.41173E+04  1.55312E+04 -1.01473E+03  2.33514E+04 -1.64377E+04  1.29378E+04 -2.46019E+04 -3.56072E+03
 -1.72634E+04 -2.03130E+04 -2.19938E+03 -2.62851E+04  1.31583E+04 -2.36059E+04  2.16562E+04 -1.10736E+04
  2.17006E+04  1.39578E+02  1.51802E+04  4.79129E+03  8.36531E+03  1.15881E+03  1.18874E+04 -2.00649E+03
  2.16845E+04  4.33177E+03  2.47224E+04  1.84142E+04  1.82600E+04  3.74312E+04 -3.02890E+03  4.28051E+04
 -2.59604E+04  3.53229E+04 -4.08112E+04  1.76627E+04 -4.33212E+04 -3.12657E+03 -3.47934E+04 -2.54223E+04
 -1.41822E+04 -3.54146E+04  1.30300E+04 -3.13287E+04  2.66479E+04 -1.50786E+04  2.30653E+04  8.35661E+03
  8.63649E+03  1.73397E+04 -1.00352E+04  1.52767E+04 -1.90764E+04  2.68695E+03 -1.37990E+04 -1.33864E+04
 -4.77575E+01 -1.97136E+04  1.18469E+04 -1.46643E+04  1.25239E+04 -1.93057E+03  3.17677E+03  8.94875E+03
 -7.97641E+03  3.57655E+03 -7.58115E+03 -5.57564E+03 -1.43722E+03 -1.80578E+04  1.12231E+04 -1.77523E+04
  2.27600E+04 -1.16660E+04  2.49907E+04  3.08934E+03  2.28910E+04  1.88419E+04  9.18524E+03  2.80899E+04
 -5.74662E+03  3.03810E+04 -1.94371E+04  1.82574E+04 -2.16391E+04  2.91319E+03 -1.42021E+04 -3.85949E+03
 -5.38886E+03 -6.26164E+03  1.00780E+03 -7.94315E+02 -1.85104E+03  4.08618E+03 -8.65601E+03  5.53123E+03
 -1.49202E+04 -3.41294E+02 -1.51487E+04 -1.10080E+04 -4.54776E+03 -1.99029E+04  5.90169E+03 -1.63530E+04
  1.24142E+04 -6.94216E+03  1.00593E+04  5.39192E+03 -1.51014E+03  7.06724E+03 -6.83000E+03 -8.70632E+02
 -7.20078E+03 -9.63785E+03  4.45584E+02 -1.40398E+04  7.68013E+03 -1.63813E+04  2.04257E+04 -7.13582E+03
  2.31405E+04  2.68249E+03  1.74720E+04  1.36850E+04  3.20248E+03  1.96356E+04 -8.71742E+03  1.40575E+04
 -1.16307E+04  3.29156E+03 -6.49252E+03 -3.89996E+03  1.44683E+03 -4.18429E+03  8.15727E+03 -2.87207E+02
  6.16002E+03  6.71317E+03  1.62549E+03  1.14424E+04 -8.65149E+03  1.03123E+04 -1.69683E+04  4.02314E+03
 -8.67801E+03 -8.24936E+03  8.80938E+02 -1.33553E+04  9.76208E+03 -6.82514E+03  8.19690E+03  2.55623E+03
  2.37112E+01  8.14354E+03 -7.64749E+03  1.16196E+04 -1.27992E+04  5.14563E+03 -1.30923E+04 -5.12976E+03
 -7.29494E+03 -1.47845E+04  4.17289E+03 -1.74576E+04  1.60443E+04 -1.02256E+04  1.43076E+04  2.41827E+03
  1.01450E+04  1.20838E+04 -1.60868E+03  1.50454E+04 -9.79034E+03  9.59295E+03 -1.24469E+04  1.45311E+02
 -9.67417E+03 -1.06374E+04 -1.36592E+03 -1.20202E+04  6.56815E+03 -8.73906E+03  7.59455E+03 -2.79645E+03
  4.42838E+03  2.56753E+03 -1.29278E+03  2.81992E+03 -1.16800E+03 -2.55402E+03  1.34106E+03 -8.13589E+03
  1.13191E+04 -3.17751E+03  1.53715E+04  5.47803E+02  1.54133E+04  1.03125E+04  9.42967E+03  2.02214E+04
 -5.01787E+03  2.24032E+04 -2.13210E+04  1.69949E+04 -2.34688E+04  4.77768E+03 -1.99285E+04 -8.05114E+03
 -1.08628E+04 -1.61457E+04  1.47285E+02 -1.37703E+04  5.25380E+03 -8.27371E+03  3.54757E+03 -5.68883E+03
  3.13640E+03 -2.43467E+03  4.23870E+03 -3.65798E+03  6.19290E+03 -2.87093E+03  8.02343E+03 -5.94750E+02
  1.06370E+04  2.90289E+03  4.81841E+03  9.81288E+03 -1.93729E+03  1.19294E+04 -9.41005E+03  8.32225E+03
 -1.44140E+04 -1.70416E+03 -8.21972E+03 -9.66810E+03 -1.07340E+03 -1.46182E+04  8.31217E+03 -1.38353E+04
  1.62137E+04 -7.51844E+03  1.65307E+04  1.48536E+03  1.24137E+04  1.52262E+04  2.73169E+03  1.92838E+04
 -7.66741E+03  1.23264E+04 -9.19658E+03  3.87771E+03 -6.22628E+03 -2.55341E+03 -2.43551E+03 -2.32661E+03
 -8.57477E+01  8.34909E+02 -1.96068E+03  2.72993E+03 -5.82246E+03  3.24232E+03 -1.02915E+04 -2.86531E+03
 -6.80303E+03 -1.02759E+04 -3.63891E+02 -1.25857E+04  7.19465E+03 -1.19066E+04  1.41379E+04 -3.97063E+03
  1.29222E+04  6.77572E+03  8.45953E+03  1.14981E+04 -4.20183E+03  1.52599E+04 -1.00578E+04  8.44551E+03
 -1.35896E+04  2.33581E+02 -9.58588E+03 -8.47748E+03 -1.32229E+03 -1.17791E+04  3.35903E+03 -9.25894E+03
  8.86766E+03 -2.93733E+03  6.73532E+03  2.14929E+03  1.83093E+03  3.83387E+03  1.13104E+03  1.14059E+03
  2.21471E+03  1.52890E+03  4.77737E+03  3.20405E+03  5.32712E+03  5.71605E+03  3.20680E+03  7.04691E+03
 -2.36338E+03  1.10127E+04 -9.21714E+03  1.04075E+04 -1.42554E+04  1.71069E+03 -1.42150E+04 -4.93072E+03
 -8.19714E+03 -1.28494E+04  8.55582E+02 -1.53936E+04  8.61719E+03 -9.16198E+03  1.26590E+04 -2.90017E+03
  1.02360E+04  5.19795E+03  2.79541E+03  8.56818E+03 -4.53769E+03  5.23548E+03 -5.83769E+03  2.64955E+01
 -3.37806E+03 -5.93207E+03  4.60791E+03 -5.81444E+03  6.58585E+03 -4.60985E+03  5.59900E+03  1.73413E+03
  2.70406E+03  3.17423E+03  1.96085E+03  2.53523E+03 -2.44463E+02  1.30014E+03  1.62415E+03 -1.06609E+02
  1.41533E+03 -1.56340E+03  5.67273E+03  3.99374E+03  3.90924E+03  7.97900E+03  4.49634E+02  9.34158E+03
 -6.35347E+03  5.86796E+03 -8.98912E+03  1.90647E+03 -5.85235E+03 -3.76044E+03 -2.14532E+03 -5.24039E+03
  1.11612E+03 -5.15454E+03  3.78865E+03 -1.61531E+03  3.82840E+03  3.46764E+03 -1.63627E+03  5.36294E+03
 -5.64143E+03  2.67308E+03 -7.23188E+03 -3.13352E+03 -3.81862E+03 -7.99904E+03  7.99934E+02 -8.38410E+03
  5.27414E+03 -5.56166E+03  7.32951E+03 -4.58843E+02  5.94339E+03  1.27443E+03  1.38286E+01  2.77442E+03
 -2.12202E+03  6.02040E+02 -2.61396E+03 -4.07499E+03  3.03218E+03 -7.24126E+03  6.53649E+03 -4.93973E+03
  8.67544E+03 -4.16947E+01  7.15886E+03  5.28735E+03  4.14702E+03  1.02170E+04 -3.18587E+03  1.01558E+04
 -5.81033E+03  4.32136E+03 -6.99442E+03 -1.77400E+03 -6.26246E+03 -5.74695E+03  7.09690E+02 -4.86205E+03
  5.65977E+03 -2.94817E+03  6.33890E+03  2.24319E+03  7.92301E+02  5.65644E+03  6.12891E+02  2.46584E+03
 -2.24379E+03  1.42413E+03 -1.69161E+03  7.37008E+02 -7.53612E+02  1.21558E+03 -8.28225E+02  2.68967E+03
 -4.27548E+03  3.79890E+03 -7.37774E+03  2.78932E+03 -7.34660E+03  9.10955E+02 -9.47970E+03 -6.57366E+03
 -6.44044E+03 -1.17989E+04  3.21580E+03 -1.34890E+04  9.80815E+03 -1.09724E+04  1.30203E+04 -5.30650E+03
  1.31254E+04  3.40183E+03  7.22803E+03  7.49663E+03 -2.42952E+01  7.72262E+03 -3.20220E+03  8.17448E+03
 -3.94541E+03  3.01538E+03 -4.18409E+03 -1.38915E+03  3.85619E+02 -1.45630E+03  4.31235E+02  3.07805E+02
 -3.20557E+03  4.45351E+02 -1.54138E+03 -4.60683E+02 -4.36664E+02 -2.96339E+03 -3.31937E+02 -3.47034E+03
  3.84690E+03 -2.43725E+03  4.60576E+03  1.67010E+03  6.20231E+03  4.35226E+03  2.08257E+03  9.13983E+03
 -4.10261E+03  1.04644E+04 -8.82600E+03  6.02850E+03 -1.08060E+04 -3.79134E+02 -6.87854E+03 -5.04121E+03
 -3.89547E+03 -1.04730E+04  3.00881E+03 -8.30315E+03  5.92553E+03 -3.36224E+03  6.14250E+03  8.95892E+02
  4.03597E+03  1.10445E+03 -5.07544E+02  1.83313E+03 -7.41633E+02 -1.18775E+03  1.01573E+03 -1.33449E+03
  3.45122E+03 -2.98660E+03  4.35187E+03  8.86450E+02  3.04389E+03  2.86037E+03  1.16542E+03  6.42518E+03
 -3.74070E+03  4.42667E+03 -6.57334E+03  7.74979E+02 -4.42132E+03 -6.00229E+03 -1.31003E+03 -6.06266E+03
  4.87950E+03 -5.05836E+03  6.13260E+03 -2.48184E+03  6.21662E+03  2.45449E+03  4.70791E+03  6.49024E+03
 -1.26810E+01  5.16947E+03 -1.91228E+03  4.05352E+03 -4.41995E+03  3.65988E+03 -2.82718E+03 -3.54620E+01
  1.21487E+03 -7.96354E+01 -2.16158E+03  5.72504E+02 -2.69582E+03  1.04333E+03 -5.47110E+03 -1.91644E+03
 -4.99005E+03 -2.63470E+03 -1.59047E+03 -5.73587E+03  3.04430E+03 -6.76984E+03  6.06889E+03 -2.67111E+03
  6.34187E+03  1.55908E+03  1.90433E+03  4.41856E+03 -7.42941E+02  7.30388E+03 -4.56745E+03  3.83256E+03
