 $NMID ID='MM_0lb_SNR200_18hz_g55_88.RAW', FMTDAT='(8E13.5)'
 TRAMP=1., VOLUME=1. $END
  3.09573E+05  2.90793E+02  3.37166E+05  2.50983E+05  8.49769E+04  3.37880E+05 -1.31989E+05  2.50279E+05
 -1.89813E+05  8.28516E+04 -1.11660E+05 -3.27336E+04  1.37379E+03 -5.04258E+04  5.31193E+04  2.30549E+02
  3.51883E+04  5.27599E+04 -1.67824E+04  7.59626E+04 -6.11405E+04  6.32791E+04 -8.28569E+04  3.16223E+04
 -7.91396E+04 -1.10155E+04 -5.67481E+04 -4.97224E+04 -1.44714E+04 -6.89630E+04  2.63092E+04 -4.45034E+04
  3.86293E+04  3.72066E+03  1.51276E+04  4.86370E+04 -3.54005E+04  4.72086E+04 -6.56757E+04 -1.10704E+03
 -5.29062E+04 -5.73862E+04 -5.45599E+03 -7.57618E+04  3.38471E+04 -5.33078E+04  4.68327E+04 -1.58989E+04
  4.34950E+04  1.19178E+04  3.05576E+04  2.44632E+04  1.54936E+04  2.89207E+04 -4.72748E+03  2.61419E+04
 -2.22525E+04  1.25421E+04 -1.82708E+04 -3.94132E+03  4.96202E+03 -7.35262E+03  2.20573E+04  1.16412E+04
  8.05293E+03  3.50150E+04 -3.15064E+04  3.42020E+04 -6.07533E+04  1.64776E+03 -5.61806E+04 -4.15329E+04
 -1.22211E+04 -6.16417E+04  3.96615E+04 -4.42019E+04  5.70364E+04 -2.16300E+03  3.26468E+04  3.17235E+04
 -6.54739E+03  3.47076E+04 -2.77215E+04  1.51570E+04 -2.86803E+04 -5.30790E+03 -1.52422E+04 -1.08113E+04
 -7.20379E+03 -1.21932E+04 -1.15309E+03 -1.66491E+04  6.51261E+03 -2.23142E+04  1.51368E+04 -1.36158E+04
  1.19463E+04  4.02394E+03 -6.96830E+03  1.37943E+04 -1.94358E+04 -3.90069E+03 -7.84475E+03 -3.20603E+04
  2.06773E+04 -4.17248E+04  4.72302E+04 -1.97790E+04  4.32787E+04  1.75150E+04  1.47322E+04  4.25821E+04
 -1.51296E+04  3.22933E+04 -2.43621E+04  8.60338E+02 -8.42808E+03 -2.62945E+04  1.95116E+04 -3.29612E+04
  3.91654E+04 -7.89736E+03  3.28325E+04  2.43545E+04  1.62609E+04  4.35122E+04 -8.12594E+03  4.78501E+04
 -2.96216E+04  3.21992E+04 -3.95280E+04  8.65163E+03 -4.05525E+04 -1.59772E+04 -2.27733E+04 -3.66362E+04
  7.00554E+03 -3.54027E+04  3.04804E+04 -1.33638E+04  2.85088E+04  1.14131E+04  3.97076E+03  1.71129E+04
 -1.35102E+04  7.75315E+03 -1.05399E+04 -6.77028E+03  6.09115E+03 -1.05795E+04  1.74873E+04  5.61087E+03
  1.28332E+04  2.12838E+04 -5.31210E+03  2.38667E+04 -2.21546E+04  9.91265E+03 -2.60649E+04 -5.88507E+03
 -1.88381E+04 -1.60266E+04 -7.79662E+03 -1.77990E+04  3.93443E+03 -1.59254E+04  1.40509E+04 -1.52143E+04
  2.28708E+04 -1.28162E+04  2.87536E+04  2.22206E+03  2.26862E+04  1.79728E+04  2.66694E+03  3.43105E+04
 -1.69810E+04  2.89174E+04 -2.63486E+04  1.13842E+04 -2.08204E+04 -1.11979E+04 -3.99111E+03 -1.28068E+04
  2.71249E+03 -4.25311E+03 -2.42700E+03  6.52135E+03 -1.28462E+04  5.64350E+03 -1.46041E+04 -5.16470E+03
 -8.21748E+03 -1.71909E+04  4.78056E+03 -2.09262E+04  1.29712E+04 -1.51423E+04  1.56420E+04 -4.54517E+02
  9.64560E+03  1.22260E+04 -1.13549E+03  1.65378E+04 -1.08766E+04  9.84473E+03 -1.65975E+04 -3.54278E+03
 -1.29862E+04 -1.44606E+04 -2.57561E+03 -2.05988E+04  8.45910E+03 -1.48930E+04  1.69383E+04 -8.22568E+03
  1.57931E+04  1.70554E+03  1.12870E+04  4.64438E+03  5.43464E+03  5.51200E+02  8.52358E+03 -1.35302E+03
  1.47504E+04  1.88062E+03  1.64591E+04  1.33368E+04  1.06737E+04  2.58758E+04 -3.64063E+03  2.84521E+04
 -1.75938E+04  2.28940E+04 -2.75070E+04  9.90695E+03 -2.71893E+04 -1.33938E+03 -2.36219E+04 -1.60379E+04
 -9.67702E+03 -2.37559E+04  7.24093E+03 -1.98397E+04  1.72239E+04 -1.15476E+04  1.73764E+04  3.93256E+03
  6.50187E+03  1.18354E+04 -7.99394E+03  1.12463E+04 -1.33346E+04  2.03903E+03 -1.11655E+04 -8.01997E+03
  3.45334E+02 -1.39202E+04  5.68132E+03 -1.01653E+04  8.46885E+03 -9.03082E+02  9.78366E+02  4.70706E+03
 -6.05534E+03  2.36773E+03 -4.28206E+03 -5.27089E+03  1.57573E+03 -1.15140E+04  8.54953E+03 -1.16488E+04
  1.27448E+04 -5.29058E+03  1.46152E+04  2.63917E+03  1.10192E+04  9.86673E+03  6.43278E+03  1.47802E+04
 -9.50372E+02  1.83178E+04 -1.02225E+04  1.24067E+04 -1.21858E+04  3.87141E+03 -9.62753E+03 -4.04418E+03
 -3.84646E+03 -3.92051E+03  1.79578E+02  1.20912E+03 -2.58965E+03  1.30181E+03 -4.05204E+03  4.05277E+03
 -8.54269E+03 -3.40963E+02 -9.47757E+03 -7.52419E+03 -3.67671E+03 -1.21628E+04  3.12813E+03 -9.21657E+03
  8.21593E+03 -5.87712E+03  5.32686E+03  2.09137E+03 -8.29873E+01  3.25790E+03 -3.75012E+03  8.22595E+02
 -3.74773E+03 -5.65626E+03 -2.37002E+03 -8.34272E+03  3.94482E+03 -7.69934E+03  1.23369E+04 -4.61800E+03
  1.29655E+04  1.08076E+03  8.83418E+03  6.06719E+03  6.70421E+02  9.98415E+03 -5.91035E+03  8.92246E+03
 -7.80662E+03  2.94960E+03 -4.38180E+03 -8.70329E+02  1.28526E+03 -1.77500E+03  5.12132E+03  3.75148E+02
  5.66116E+03  4.62618E+03  1.58080E+03  6.88132E+03 -5.76422E+03  6.68415E+03 -8.84146E+03  1.72845E+03
 -6.50482E+03 -3.26783E+03 -2.67247E+02 -5.73987E+03  5.13802E+03 -3.39268E+03  3.57505E+03  1.45774E+03
  9.72540E+02  3.93564E+03 -4.44353E+03  5.49026E+03 -5.27917E+03  2.26963E+03 -5.25876E+03 -2.19712E+03
 -3.87909E+03 -6.84573E+03  1.36535E+03 -7.64341E+03  7.42474E+03 -5.30745E+03  8.60395E+03  9.24777E+02
  4.67381E+03  5.58859E+03  9.74356E+02  7.56730E+03 -5.89650E+03  4.67183E+03 -5.77005E+03 -4.03376E+02
 -4.82483E+03 -5.97309E+03 -1.39729E+03 -5.26848E+03  2.94778E+03 -4.44757E+03  1.91221E+03 -4.62171E+03
  3.17131E+03  4.42696E+02  2.71938E+02  1.55927E+03  1.09183E+02 -2.08126E+02 -2.58443E+02 -2.49579E+03
  4.34148E+03 -1.99268E+03  6.06398E+03  1.22904E+03  6.55959E+03  3.50110E+03  6.21171E+03  8.46167E+03
 -1.43762E+03  9.33774E+03 -9.44091E+03  8.12254E+03 -1.15971E+04  1.79349E+03 -8.65589E+03 -2.84577E+03
 -5.51640E+03 -7.92494E+03 -6.32187E+02 -5.50077E+03  1.14244E+03 -2.43607E+03  2.34615E+03 -1.91131E+03
 -9.32468E+01 -2.56330E+03  1.99370E+03 -2.01350E+03  2.96166E+03 -1.54650E+03  3.44929E+03  7.86386E+02
  5.71382E+03  6.75697E+02  1.31848E+03  3.76908E+03 -1.44745E+03  2.52633E+03 -4.81931E+03  3.17729E+03
 -4.50872E+03 -1.16339E+03 -2.72494E+03 -4.60859E+03  5.46186E+02 -5.18984E+03  2.91027E+03 -5.85300E+03
  5.19825E+03 -3.93102E+03  6.03520E+03 -3.15505E+02  5.05463E+03  4.39170E+03  1.31483E+03  6.25121E+03
 -1.79669E+03  6.45398E+03 -4.23836E+03  2.39679E+03 -1.71482E+03 -1.30545E+03 -5.20881E+02 -4.25281E+02
 -4.82512E+02  7.53292E+00  5.98240E+02  1.75014E+03 -3.22005E+03  1.54536E+03 -5.19341E+03 -8.36806E+02
 -1.49772E+03 -4.73814E+03  1.22565E+03 -5.35225E+03  3.21805E+03 -4.86889E+03  3.12452E+03 -6.18128E+00
  4.17721E+03  2.97475E+03  1.26038E+03  4.08630E+03 -2.12910E+03  4.10387E+03 -3.56680E+03  3.22766E+03
 -4.40890E+03  9.89270E+02 -4.29314E+03 -1.66445E+03 -5.65215E+02 -3.93069E+03  1.64050E+03 -3.43743E+03
  3.18526E+03 -1.30476E+03  1.57338E+03 -8.75759E+01  1.16861E+03  7.22181E+02  1.05327E+02  7.96987E+02
  1.34088E+03 -3.12632E+02  6.83163E+02 -2.04851E+02  8.88764E+02  2.97423E+03  1.28083E+03  1.53412E+03
 -1.56000E+03  2.99501E+03 -2.32009E+03  4.82962E+03 -4.10352E+03  1.43574E+03 -4.80155E+03 -1.95685E+03
 -1.69342E+03 -3.59706E+03  1.11065E+03 -6.29683E+03  1.78459E+03 -2.74678E+03  2.37395E+03 -1.57048E+03
  3.89011E+03  2.91469E+03  4.79337E+02  2.73754E+03 -1.07053E+03  1.81854E+03 -1.48214E+03 -3.13544E+01
  1.83506E+02 -1.17662E+03  1.34488E+03 -2.08592E+03  2.11588E+03 -6.19272E+02  1.51294E+03  5.85233E+02
  1.16519E+03 -3.89951E+02  1.53592E+03 -1.64538E+02 -1.02351E+03 -1.85273E+02  1.64410E+03 -5.51705E+01
 -3.20611E+02 -1.89484E+02  1.98616E+03  4.92823E+02  5.79739E+02  2.43070E+03 -2.72540E+02  3.20056E+03
 -1.93177E+03  8.05501E+02 -2.03379E+03  1.73321E+02 -3.78501E+03 -6.49952E+02 -3.96122E+02 -7.29170E+02
 -2.70837E+02 -1.24053E+03  5.83731E+02 -1.91324E+03 -2.07430E+01  1.04289E+03 -6.26139E+02  1.30820E+03
 -1.51834E+03 -7.19294E+01 -1.16715E+03 -1.93457E+03 -1.00232E+03 -1.97221E+03 -2.95849E+02 -2.88317E+02
  7.37444E+02 -5.30379E+01  1.84209E+03  8.80203E+02  1.46342E+03  1.41592E+00  1.30066E+03  1.17132E+03
 -6.60911E+02  5.99806E+02 -2.28771E+03  5.37271E+02  3.79136E+02 -6.68989E+02  6.74690E+02 -6.37825E+02
  1.96137E+03  6.29727E+02  1.29949E+03  1.23263E+03  1.51273E+03  1.41665E+03  2.72497E+02  1.98382E+03
 -1.98484E+03  4.62808E+02 -3.30015E+03 -4.08510E+02 -1.61731E+03 -1.39247E+03  9.23534E+02 -1.59652E+03
  1.57037E+03 -6.11137E+02  5.23208E+02  5.20205E+01 -7.61818E+02  2.12162E+03  4.51171E+02  9.35983E+02
 -1.54846E+02  4.96584E+02 -3.31848E+02 -9.09154E+02  3.75577E+02 -4.29662E+02 -2.67198E+02 -2.92796E+01
 -1.56023E+02  5.33176E+02 -2.15362E+03  1.58469E+03 -2.28461E+03  3.47615E+02 -2.23055E+03 -6.91450E+02
 -1.40714E+03 -4.22955E+03  7.27623E+02 -2.96976E+03  7.65747E+02 -2.60442E+03  3.84116E+03 -1.37194E+03
  1.29124E+03 -1.04144E+03  1.38004E+03  2.24854E+03 -9.16069E+02  1.84147E+03 -9.30243E+02  1.57188E+03
 -2.07755E+03  6.64687E+02 -9.86690E+02 -1.27517E+03 -4.38402E+02  1.04719E+03  4.21047E+02 -4.74647E+02
 -4.67049E+02 -7.07338E+02 -4.65936E+02 -1.16174E+03  1.00757E+03 -5.18799E+02 -4.43234E+02 -2.17520E+03
  5.41659E+02 -1.24855E+03 -6.31133E+02 -5.09030E+01  1.40159E+03  1.36679E+03 -6.48993E+02  2.11560E+03
 -8.95737E+02  2.68249E+03 -2.93922E+03  5.25591E+02 -1.04859E+03 -4.86665E+02 -1.16159E+03 -1.03984E+03
 -5.36298E+02 -2.23830E+03  5.62198E+02 -1.34215E+03  6.20617E+02 -3.91003E+02  8.94650E+02  4.49235E+01
  1.32677E+03 -2.34147E+02 -1.57509E+02  7.95985E+02 -8.79831E+01  2.00650E+02  8.75230E+02  5.40846E+02
  6.56461E+02 -3.22780E+02  1.37073E+03  6.36291E+02  2.46919E+02  4.62439E+02  7.87470E+02  3.65908E+02
 -3.15817E+02  1.45081E+03 -6.58163E+02  1.19423E+03 -1.02527E+03 -1.44186E+03  3.37524E+02 -1.78108E+03
  6.86974E+02 -1.99492E+03  1.99263E+02  3.50609E+02  4.18539E+02 -7.40501E+02  1.05860E+03  1.79657E+02
 -3.36413E+02  1.65808E+02 -4.49884E+01  8.70770E+02 -1.68246E+03  1.88239E+02 -1.55235E+03  2.76029E+02
 -4.40317E+02 -6.95684E+02 -7.11148E+02 -1.56652E+02 -1.10896E+03  2.25879E+02 -4.39371E+02 -1.29009E+03
 -9.60198E+02  1.76215E+02 -1.02469E+03 -1.78524E+03  9.34192E+02 -1.29166E+02  9.06757E+02 -3.77037E+02
  4.21547E+02 -2.84843E+02 -7.28389E+02 -3.80185E+02 -4.35417E+02  1.45974E+03 -5.86292E+02  1.02305E+03
