 $NMID ID='MM_0lb_SNR200_18hz_g60_80.RAW', FMTDAT='(8E13.5)'
 TRAMP=1., VOLUME=1. $END
  3.09940E+05  3.61945E+02  3.36303E+05  2.50696E+05  8.41175E+04  3.37848E+05 -1.32492E+05  2.50313E+05
 -1.89452E+05  8.25614E+04 -1.11398E+05 -3.27896E+04  3.42282E+02 -5.16056E+04  5.38073E+04 -9.08221E+02
  3.54927E+04  5.18809E+04 -1.68146E+04  7.47087E+04 -6.00792E+04  6.29769E+04 -8.38572E+04  3.20431E+04
 -7.98410E+04 -1.10756E+04 -5.77564E+04 -5.12367E+04 -1.50413E+04 -6.90072E+04  2.80179E+04 -4.52447E+04
  3.99009E+04  2.32827E+03  1.61099E+04  4.71390E+04 -3.42774E+04  4.68623E+04 -6.66367E+04 -4.82378E+02
 -5.30659E+04 -5.71196E+04 -7.00935E+03 -7.58463E+04  3.32249E+04 -5.48186E+04  4.74145E+04 -1.76888E+04
  4.40288E+04  1.04096E+04  3.18617E+04  2.46498E+04  1.66804E+04  2.87958E+04 -4.72214E+03  2.70694E+04
 -2.24277E+04  1.16594E+04 -1.91438E+04 -4.70613E+03  5.45216E+03 -7.74687E+03  2.18814E+04  1.24406E+04
  7.95613E+03  3.54608E+04 -3.15041E+04  3.47688E+04 -6.35251E+04  2.24230E+03 -5.68240E+04 -4.24190E+04
 -1.20200E+04 -6.23067E+04  3.92830E+04 -4.51312E+04  5.84993E+04 -1.31344E+03  3.35612E+04  3.22903E+04
 -6.39047E+03  3.53348E+04 -3.01557E+04  1.52807E+04 -3.05706E+04 -5.32865E+03 -1.53630E+04 -1.07746E+04
 -8.42772E+03 -1.27117E+04 -8.39385E+02 -1.81158E+04  7.48624E+03 -2.36440E+04  1.55931E+04 -1.36367E+04
  1.26582E+04  5.70261E+03 -8.19495E+03  1.25220E+04 -2.12615E+04 -3.17738E+03 -8.34786E+03 -3.33966E+04
  2.25730E+04 -4.27895E+04  4.73737E+04 -1.87262E+04  4.43693E+04  2.00511E+04  1.52884E+04  4.28982E+04
 -1.49023E+04  3.18630E+04 -2.45673E+04  8.30461E+02 -9.20715E+03 -2.67437E+04  2.03704E+04 -3.24799E+04
  3.99523E+04 -9.23609E+03  3.32279E+04  2.34274E+04  1.57858E+04  4.53797E+04 -7.90374E+03  4.88851E+04
 -3.06585E+04  3.19132E+04 -4.04517E+04  8.94400E+03 -4.03509E+04 -1.58752E+04 -2.37603E+04 -3.60517E+04
  6.95507E+03 -3.53981E+04  2.97269E+04 -1.41223E+04  2.74900E+04  1.09754E+04  3.81653E+03  1.89202E+04
 -1.31202E+04  8.31663E+03 -1.00672E+04 -7.43112E+03  6.11408E+03 -1.01622E+04  1.84356E+04  7.27896E+03
  1.24706E+04  2.19362E+04 -6.47482E+03  2.36890E+04 -2.25948E+04  1.05743E+04 -2.76447E+04 -6.24208E+03
 -1.82863E+04 -1.69248E+04 -6.86921E+03 -1.75690E+04  3.76560E+03 -1.69937E+04  1.39508E+04 -1.56817E+04
  2.40050E+04 -1.27864E+04  3.20560E+04  1.03715E+03  2.11404E+04  1.86282E+04  3.98692E+03  3.47409E+04
 -1.75608E+04  3.07539E+04 -2.76583E+04  9.25306E+03 -2.01371E+04 -1.03534E+04 -3.79587E+03 -1.41734E+04
  2.14590E+03 -3.41641E+03 -3.26172E+03  6.84339E+03 -1.47421E+04  5.02259E+03 -1.48669E+04 -5.60852E+03
 -8.47729E+03 -1.71040E+04  5.20598E+03 -2.12253E+04  1.35795E+04 -1.54701E+04  1.60297E+04 -2.15864E+03
  1.01654E+04  1.24291E+04 -1.71177E+03  1.82975E+04 -1.16579E+04  1.03539E+04 -1.71561E+04 -2.64990E+03
 -1.26967E+04 -1.49956E+04 -1.16341E+03 -2.14568E+04  8.63204E+03 -1.70020E+04  1.64233E+04 -7.80282E+03
  1.64346E+04  9.63691E+02  1.23618E+04  4.55596E+03  6.33837E+03  9.16681E+02  8.89742E+03 -1.83668E+03
  1.52002E+04  2.30391E+03  1.69790E+04  1.44186E+04  1.08223E+04  2.70136E+04 -2.67416E+03  3.02392E+04
 -1.81701E+04  2.28306E+04 -2.62618E+04  1.25684E+04 -2.82236E+04 -1.88114E+03 -2.39177E+04 -1.70942E+04
 -1.15755E+04 -2.35092E+04  7.51006E+03 -2.13048E+04  1.79362E+04 -1.25254E+04  1.69816E+04  5.40481E+03
  6.50893E+03  1.26697E+04 -8.39182E+03  1.03900E+04 -1.48305E+04  3.02868E+03 -1.26388E+04 -9.08735E+03
 -6.67118E+01 -1.36690E+04  7.16084E+03 -1.00273E+04  8.98000E+03 -2.24441E+03  1.65885E+03  4.84403E+03
 -6.55960E+03  1.97229E+03 -3.77372E+03 -5.42110E+03  2.52375E+00 -1.22405E+04  8.18317E+03 -1.12254E+04
  1.40341E+04 -6.40865E+03  1.38005E+04  2.61268E+03  1.24356E+04  1.14159E+04  5.29088E+03  1.57965E+04
 -2.96060E+03  1.90422E+04 -1.09958E+04  1.16923E+04 -1.32175E+04  2.37926E+03 -1.00277E+04 -1.99702E+03
 -5.65202E+03 -3.33620E+03 -1.35820E+03  9.16475E+02 -1.51690E+03  1.78287E+03 -3.64620E+03  2.75232E+03
 -8.80352E+03  4.71625E+02 -1.05546E+04 -7.55506E+03 -4.22537E+03 -1.31969E+04  4.20419E+03 -9.71200E+03
  8.52486E+03 -3.45607E+03  6.36542E+03  3.40127E+03 -2.11217E+02  3.10228E+03 -4.86082E+03 -1.65622E+01
 -4.41566E+03 -6.52207E+03 -1.58964E+03 -8.66590E+03  4.54771E+03 -8.80166E+03  1.20132E+04 -3.01848E+03
  1.33596E+04  5.97090E+02  9.45180E+03  7.67593E+03  1.30078E+03  8.86792E+03 -5.99354E+03  9.47744E+03
 -8.59344E+03  2.74335E+03 -5.18392E+03 -8.42651E+02  9.93877E+02 -1.64616E+03  4.61773E+03 -1.92944E+03
  4.41632E+03  3.64263E+03  1.41906E+03  6.49678E+03 -4.48858E+03  7.63813E+03 -8.21341E+03  1.65592E+03
 -5.28749E+03 -4.20884E+03 -8.10986E+02 -8.52951E+03  3.37984E+03 -4.31523E+03  3.68068E+03  6.72092E+02
  7.99313E+02  4.07571E+03 -4.97749E+03  4.81169E+03 -5.52486E+03  3.34277E+03 -6.34991E+03 -5.65371E+02
 -3.34193E+03 -6.82040E+03  5.08819E+02 -7.46961E+03  7.24080E+03 -4.42023E+03  7.10093E+03  1.24504E+03
  4.79330E+03  6.43546E+03  1.06655E+02  8.41790E+03 -4.97146E+03  4.25788E+03 -5.33931E+03 -2.19974E+02
 -6.26787E+03 -6.23194E+03 -9.52236E+02 -6.09684E+03  3.92075E+03 -4.81024E+03  3.68471E+03 -3.08832E+03
  3.31675E+03  1.20718E+03  3.68919E+02  1.50523E+03 -1.56052E+02  1.74240E+02  2.88028E+02 -2.19395E+03
  4.44700E+03 -1.50502E+03  5.40260E+03 -6.28122E+01  6.98470E+03  3.66343E+03  5.57180E+03  8.93436E+03
 -2.45895E+03  1.04953E+04 -9.29324E+03  7.89161E+03 -1.07179E+04  1.73860E+03 -8.84106E+03 -3.35565E+03
 -4.57236E+03 -7.33034E+03 -5.75728E+02 -5.42531E+03  2.01877E+03 -2.65953E+03  2.22410E+03 -2.85848E+03
  2.77342E+03 -7.83110E+01  2.70092E+03 -2.41807E+03  3.69697E+03 -1.80192E+03  3.79864E+03 -2.10440E+02
  4.57708E+03  3.73041E+02  1.51377E+03  3.61802E+03 -2.09306E+03  2.98163E+03 -4.27661E+03  3.49859E+03
 -5.22049E+03 -1.61902E+03 -3.28701E+03 -3.95538E+03 -5.51345E+02 -5.26458E+03  3.14652E+03 -6.39345E+03
  6.05152E+03 -3.81416E+03  7.26611E+03 -9.47824E+01  5.76624E+03  5.36840E+03  9.49742E+02  7.64116E+03
 -3.32473E+03  6.77409E+03 -3.85659E+03  2.34009E+03 -2.72540E+03 -1.02117E+03 -9.64298E+02 -1.32516E+03
 -9.45519E+02  5.82437E+02 -1.06407E+03  2.37612E+03 -3.05286E+03  2.45129E+03 -5.03546E+03  5.47174E+02
 -3.19340E+03 -4.54409E+03 -5.34628E+02 -5.00550E+03  1.82313E+03 -4.99821E+03  4.00971E+03 -2.30818E+03
  4.24953E+03  3.05350E+03  2.24250E+03  3.09250E+03 -1.79852E+03  5.19477E+03 -2.54697E+03  3.92418E+03
 -4.48551E+03  1.95533E+03 -4.52270E+03 -3.39415E+03 -1.09774E+01 -3.84253E+03  9.75970E+02 -2.41968E+03
  3.54512E+03 -1.42517E+03  1.75844E+03  8.20941E+02  9.95580E+02  1.06288E+03  5.26545E+02  8.11152E+02
  2.54276E+03  1.15523E+03  1.15180E+03  1.28147E+03  1.53927E+03  2.41515E+03  1.04912E+03  2.35020E+03
 -3.53270E+02  3.61257E+03 -2.83887E+03  3.70671E+03 -3.33676E+03  3.81863E+02 -4.69123E+03 -1.32475E+03
 -2.53163E+03 -3.81274E+03  5.73633E+02 -5.71442E+03  3.09508E+03 -3.01644E+03  3.67506E+03 -1.26461E+03
  2.27953E+03  1.46963E+03  5.78097E+02  3.15151E+03 -1.97413E+03  2.00309E+03 -1.49106E+03 -5.04215E+01
 -9.94773E+02 -3.00084E+03  7.27284E+02 -1.52466E+03  1.52760E+03 -1.21487E+02  1.42470E+03 -1.28337E+02
 -3.36105E+02  6.51495E+02  2.35454E+02  4.89765E+02 -1.47423E+03  1.38480E+03  1.55194E+03  8.61170E+02
  1.70590E+03 -5.32369E+02  2.00719E+03  1.05998E+02  2.03623E+03  2.26114E+03 -6.87611E+02  2.88948E+03
 -1.24420E+03  1.00101E+03 -2.94769E+03  1.15831E+03 -2.63647E+03 -1.03108E+03 -8.40139E+02 -2.75172E+02
  7.25924E+01 -5.90116E+02 -3.08951E+02  9.68289E+01  8.25220E+02  1.24141E+03  6.02131E+02  1.58706E+03
 -2.21284E+03  1.24136E+03 -1.71486E+03 -1.08321E+03 -1.46743E+03 -3.09847E+03  9.61964E+01 -2.66912E+03
  5.56900E+02 -1.74613E+03  1.29953E+03  6.98548E+02  2.74693E+03  1.10800E+02  1.07741E+03  1.48313E+03
 -6.45206E+02  3.51865E+02 -1.23434E+02  3.76898E+01  1.50638E+03 -6.94909E+02  3.05134E+03 -1.42669E+03
  1.57713E+03 -2.56821E+01  2.85852E+03  1.07086E+03  2.36584E+02  1.84450E+03  1.01327E+03  1.94322E+03
 -1.37363E+03  2.91290E+02 -6.18728E+02  4.81768E+01 -8.61110E+02 -1.60410E+03  1.38156E+03 -2.93942E+02
  1.79539E+03 -4.30647E+02 -3.30306E+02  1.33304E+03 -4.62482E+02  1.56140E+03 -3.26330E+02  1.11073E+03
 -5.84362E+02  1.10917E+03 -1.58008E+03 -5.08228E+02 -2.98748E+02  1.41219E+03  2.33315E+02  7.11821E+02
 -5.14420E+02  6.09954E+02 -3.11256E+03 -4.63035E+02 -1.23709E+03 -5.41307E+02 -2.32492E+03 -2.02573E+03
 -7.74088E+02 -2.40852E+03  1.14473E+02 -1.77044E+03  6.01826E+02 -3.13530E+03  3.63016E+03 -1.11763E+03
  2.93552E+03  1.28532E+02  2.01730E+03  2.39626E+03 -1.45586E+03  1.59438E+03 -1.26487E+03  1.41828E+03
 -1.95421E+03  1.65558E+03  7.88924E+01 -2.92327E+02 -1.01535E+03 -1.26346E+03 -7.57062E+02 -4.46661E+02
 -9.01729E+02 -2.77583E+02 -1.00542E+03  1.04346E+03 -4.20903E+02 -7.55167E+02 -1.14566E+03 -1.72485E+03
  2.07040E+03 -7.23027E+02  6.07022E+01  2.52903E+02  2.03345E+03  1.64182E+03 -3.41159E+02  9.65116E+02
 -5.92228E+02  2.89093E+03 -1.19023E+03  1.26757E+03 -1.57770E+03  1.04065E+02 -1.47358E+03 -1.75462E+01
 -1.43670E+03 -1.99607E+03  2.89165E+02 -1.24932E+03  7.34388E+02 -1.06038E+02  1.42015E+03  8.33807E+02
  2.57240E+02  1.01446E+03  6.78500E+02  1.53610E+03 -1.11275E+03 -5.50860E+02  5.25376E+02  8.29433E+02
  2.04341E+03 -7.18626E+02 -2.67760E+02  5.50327E+02 -6.82872E+02  3.28220E+02 -4.26469E+02  2.12063E+02
 -2.57438E+02  9.48754E+02 -4.66986E+02 -6.21694E+02 -1.43451E+03 -4.14292E+02 -2.84043E+01 -1.06601E+03
 -9.37811E+00 -1.38321E+03  1.50693E+03 -4.80435E+02  5.42823E+02 -2.12116E+02 -2.16738E+02 -3.94789E+02
  3.24448E+02  1.26688E+03 -2.73134E+02  6.38240E+02 -2.34201E+01  1.35857E+02 -1.35642E+03  3.04376E+02
  1.07429E+02  2.53676E+02 -7.89253E+02  6.37607E+02 -1.28160E+03  5.41177E+02 -9.62446E+02 -9.85899E+02
 -4.24949E+02  7.21648E+02  5.83626E+01 -1.09062E+03  5.05113E+02 -5.85435E+02  5.82484E+02  6.84670E+02
  1.50777E+02  5.79013E+02  5.82971E+02  9.51005E+02  3.66635E+02  5.03884E+02  1.63134E+01  1.65077E+03
