 $NMID ID='MM_0lb_SNR200_13hz_g45_92.RAW', FMTDAT='(8E13.5)'
 TRAMP=1., VOLUME=1. $END
  3.09914E+05  1.85940E+03  3.37256E+05  2.49609E+05  8.48946E+04  3.38756E+05 -1.32012E+05  2.51937E+05
 -1.89471E+05  8.24981E+04 -1.12211E+05 -3.29388E+04  7.57967E+02 -5.11618E+04  5.26409E+04 -6.37694E+02
  3.57811E+04  5.32983E+04 -1.64311E+04  7.55144E+04 -6.06217E+04  6.33662E+04 -8.36334E+04  3.23279E+04
 -8.10152E+04 -1.14617E+04 -5.73974E+04 -5.05546E+04 -1.58860E+04 -7.08596E+04  2.73438E+04 -4.58338E+04
  4.05931E+04  3.55799E+03  1.57758E+04  4.77991E+04 -3.49059E+04  4.70503E+04 -6.62396E+04 -5.26560E+02
 -5.35867E+04 -5.65150E+04 -7.58173E+03 -7.67387E+04  3.32176E+04 -5.39885E+04  4.76731E+04 -1.79088E+04
  4.32917E+04  1.08170E+04  3.27841E+04  2.60660E+04  1.63260E+04  2.77832E+04 -5.07858E+03  2.70098E+04
 -2.23666E+04  1.26940E+04 -1.95159E+04 -6.00182E+03  4.39374E+03 -8.01006E+03  2.25497E+04  1.33940E+04
  7.51501E+03  3.60296E+04 -3.27256E+04  3.51767E+04 -6.40259E+04  1.74292E+03 -5.73900E+04 -4.30888E+04
 -1.17980E+04 -6.25292E+04  4.14412E+04 -4.59239E+04  5.75042E+04 -1.97561E+03  3.51510E+04  3.26189E+04
 -6.55753E+03  3.59712E+04 -2.91659E+04  1.48741E+04 -3.09829E+04 -4.68426E+03 -1.68747E+04 -1.11082E+04
 -7.54177E+03 -1.34514E+04 -6.64300E+02 -1.90348E+04  7.62889E+03 -2.29448E+04  1.36827E+04 -1.36316E+04
  1.18773E+04  5.52729E+03 -8.45680E+03  1.19174E+04 -2.14425E+04 -4.89468E+03 -8.00446E+03 -3.44776E+04
  2.29353E+04 -4.31755E+04  4.94152E+04 -1.91406E+04  4.68161E+04  2.00260E+04  1.73201E+04  4.50228E+04
 -1.53302E+04  3.40953E+04 -2.52643E+04  3.01166E+03 -9.67893E+03 -2.86991E+04  2.16586E+04 -3.38730E+04
  4.11661E+04 -9.67620E+03  3.64626E+04  2.45529E+04  1.75107E+04  4.79682E+04 -7.68552E+03  5.11813E+04
 -3.20099E+04  3.46417E+04 -4.08898E+04  8.85722E+03 -4.38794E+04 -1.53148E+04 -2.48547E+04 -3.71844E+04
  6.50736E+03 -3.92377E+04  3.10043E+04 -1.46014E+04  2.99878E+04  9.94652E+03  2.84478E+03  2.07273E+04
 -1.30194E+04  9.22125E+03 -9.52781E+03 -6.69571E+03  5.06145E+03 -1.05046E+04  1.83753E+04  6.01479E+03
  1.38418E+04  2.31002E+04 -5.73357E+03  2.42312E+04 -2.21023E+04  1.09183E+04 -2.81918E+04 -4.35725E+03
 -2.04335E+04 -1.73706E+04 -8.16407E+03 -2.10282E+04  4.11061E+03 -2.01122E+04  1.65848E+04 -1.85205E+04
  2.74294E+04 -1.17022E+04  3.25340E+04  3.65177E+03  2.39261E+04  2.11649E+04  4.84922E+03  3.80635E+04
 -1.75500E+04  3.05658E+04 -2.75069E+04  1.17601E+04 -2.16177E+04 -1.00907E+04 -4.76015E+03 -1.33217E+04
  8.74052E+02 -1.81090E+03 -4.89815E+03  5.36882E+03 -1.65719E+04  4.91246E+03 -1.71523E+04 -7.87426E+03
 -9.98141E+03 -1.80546E+04  5.63715E+03 -2.33435E+04  1.63999E+04 -1.56314E+04  1.86457E+04 -1.14826E+03
  1.21627E+04  1.33566E+04 -1.60804E+03  1.98935E+04 -1.41171E+04  1.13651E+04 -1.91602E+04 -4.80023E+03
 -1.39326E+04 -1.79598E+04 -2.16047E+03 -2.45488E+04  1.05595E+04 -2.01635E+04  1.92991E+04 -9.77221E+03
  1.72759E+04  1.17219E+02  1.34549E+04  5.11486E+03  7.57040E+03  1.00385E+03  8.70998E+03 -2.35685E+03
  1.81048E+04  3.32155E+03  1.96641E+04  1.59655E+04  1.31169E+04  3.11897E+04 -2.39253E+03  3.45729E+04
 -2.08058E+04  2.86175E+04 -3.12793E+04  1.30899E+04 -3.42309E+04 -1.79888E+03 -2.86409E+04 -2.11567E+04
 -1.15031E+04 -2.79383E+04  1.06769E+04 -2.62511E+04  2.21555E+04 -1.32342E+04  2.08078E+04  6.63760E+03
  6.18893E+03  1.57092E+04 -9.60589E+03  1.32815E+04 -1.65340E+04  1.52212E+03 -1.40653E+04 -9.81403E+03
 -5.94958E+02 -1.54674E+04  7.44907E+03 -1.28341E+04  9.91167E+03 -1.01821E+03  2.37874E+03  6.14630E+03
 -6.66673E+03  2.65674E+03 -6.27826E+03 -6.67344E+03 -8.01111E+02 -1.35173E+04  9.76325E+03 -1.39111E+04
  1.69556E+04 -7.64828E+03  1.91401E+04  2.92593E+03  1.67836E+04  1.31961E+04  9.01541E+03  2.04185E+04
 -3.30162E+03  2.29234E+04 -1.49910E+04  1.45483E+04 -1.72159E+04  3.55991E+03 -1.21627E+04 -3.29877E+03
 -5.32946E+03 -4.83807E+03 -7.50270E+02  1.16722E+03 -1.97727E+03  3.98917E+03 -6.60149E+03  3.99573E+03
 -1.14504E+04 -1.69593E+03 -1.25976E+04 -9.06117E+03 -3.51181E+03 -1.47545E+04  3.82220E+03 -1.21538E+04
  9.75576E+03 -4.09163E+03  6.51315E+03  2.12782E+03 -8.53877E+02  4.99212E+03 -5.68271E+03 -1.74266E+01
 -6.53097E+03 -6.65982E+03 -2.03714E+03 -1.11263E+04  6.48384E+03 -1.11779E+04  1.51529E+04 -6.75321E+03
  1.58115E+04  3.00383E+03  1.30584E+04  1.08150E+04  2.80398E+03  1.42322E+04 -7.52640E+03  1.10987E+04
 -9.60425E+03  3.12626E+03 -5.16286E+03 -1.55919E+03  1.37856E+03 -3.22263E+03  8.20465E+03 -4.84539E+02
  5.40528E+03  5.32831E+03  1.21382E+03  9.41381E+03 -5.36743E+03  7.90714E+03 -1.29351E+04  2.32229E+03
 -7.74859E+03 -4.83955E+03  1.54833E+01 -1.10994E+04  5.44282E+03 -5.30250E+03  7.37993E+03  1.80382E+03
  1.04610E+03  6.51367E+03 -6.01783E+03  7.39438E+03 -8.93860E+03  2.97148E+03 -8.43920E+03 -2.72449E+03
 -5.19313E+03 -1.02484E+04  2.70112E+03 -1.09593E+04  9.99478E+03 -6.74125E+03  1.03771E+04  1.10206E+03
  7.69320E+03  1.04062E+04 -6.88151E+02  1.22061E+04 -8.63416E+03  5.52794E+03 -8.74196E+03 -8.21495E+02
 -7.72180E+03 -6.85846E+03 -1.63212E+03 -8.38445E+03  4.80538E+03 -7.17323E+03  4.83316E+03 -2.32948E+03
  3.50453E+03  5.56688E+02 -5.26952E+02  1.86826E+03 -4.77235E+02 -2.51270E+03  1.01832E+03 -3.67044E+03
  6.99672E+03 -3.90188E+03  9.02081E+03  1.09976E+03  8.99086E+03  6.49374E+03  7.13549E+03  1.26587E+04
 -2.92315E+03  1.52470E+04 -1.31079E+04  1.31435E+04 -1.76233E+04  2.85949E+03 -1.35913E+04 -5.52197E+03
 -7.12344E+03 -1.09380E+04 -1.38735E+03 -9.34929E+03  4.49639E+03 -4.81669E+03  3.16204E+03 -3.73156E+03
  3.24151E+03 -1.10449E+03  1.96999E+03 -1.88266E+03  4.80278E+03 -1.67139E+03  6.35867E+03 -1.08760E+03
  7.16937E+03  9.19958E+02  2.72855E+03  5.95148E+03 -3.06277E+03  8.54305E+03 -8.54380E+03  4.91222E+03
 -8.35593E+03 -1.39366E+03 -3.93193E+03 -6.12420E+03 -7.02882E+02 -1.09226E+04  6.77475E+03 -1.14429E+04
  9.95947E+03 -5.11404E+03  1.25943E+04  6.53899E+02  8.38152E+03  8.74921E+03  1.43676E+03  1.01694E+04
 -4.87302E+03  1.01274E+04 -5.87667E+03  1.78130E+03 -5.01496E+03 -2.12774E+03 -2.59492E+03 -1.90789E+03
 -1.46922E+03 -8.93222E+02 -1.08029E+03  2.66763E+03 -3.33130E+03 -2.93408E+02 -6.91315E+03  8.76714E+02
 -4.48839E+03 -6.68170E+03 -2.09367E+02 -8.38362E+03  5.78885E+03 -8.23575E+03  8.52652E+03 -2.89088E+03
  1.01048E+04  4.12677E+03  3.69290E+03  6.52982E+03 -2.67190E+03  8.31688E+03 -6.24666E+03  3.52441E+03
 -7.16414E+03  3.85794E+01 -7.54457E+03 -5.30871E+03 -1.54157E+03 -6.61355E+03  3.53954E+03 -5.48915E+03
  5.17581E+03 -1.97218E+03  3.76527E+03  1.28400E+03  1.16425E+03  3.25254E+03  8.34197E+02  2.44457E+03
  1.55693E+03  6.35772E+02  3.10680E+03  1.46870E+03  1.65227E+03  2.36890E+03 -3.09157E+01  5.28595E+03
 -1.19280E+03  6.14889E+03 -7.49887E+03  7.09555E+03 -8.74183E+03  8.48309E+02 -9.72392E+03 -2.91349E+03
 -3.64431E+03 -7.45993E+03  7.08280E+02 -8.73793E+03  4.83877E+03 -6.06415E+03  7.36896E+03 -1.04349E+03
  6.20920E+03  4.04112E+03  1.71364E+03  5.16127E+03 -7.76698E+02  3.53712E+03 -3.37861E+03 -1.02642E+03
 -1.57938E+03 -4.42813E+03  1.60359E+03 -3.35111E+03  3.31528E+03 -1.79061E+03  1.51610E+03  2.56225E+03
  1.05930E+03  5.50924E+02  1.04964E+03  8.08255E+02 -1.90127E+02  2.14046E+03  1.19480E+03 -8.19931E+02
  1.18745E+03 -1.71918E+02  2.12493E+03  1.99927E+03  6.81984E+02  5.21321E+03 -1.38971E+02  5.60716E+03
 -3.96313E+03  3.08589E+03 -4.03389E+03  2.13474E+02 -4.86295E+03 -2.14940E+03 -2.13818E+03 -2.70245E+03
  2.00586E+02 -2.66562E+03  2.09014E+03 -1.80330E+03  1.60847E+03  1.74308E+03 -1.50677E+03  2.27996E+03
 -2.72509E+03  1.17747E+03 -3.22460E+03 -1.81004E+03 -1.66538E+03 -4.10903E+03 -2.75748E+02 -4.27859E+03
  2.39245E+03 -2.17815E+03  2.94075E+03 -3.93140E+02  2.87393E+03  1.61745E+03  1.18922E+03  2.22870E+03
 -1.81224E+03 -5.91474E+01 -2.31528E+03 -1.60951E+03  1.04095E+03 -3.68668E+03  4.06823E+03 -3.03719E+03
  4.68765E+03 -1.26387E+02  4.99605E+03  2.73556E+03  7.94925E+02  4.29988E+03 -6.05402E+02  4.96038E+03
 -4.01050E+03  2.44327E+03 -5.04016E+03  5.21296E+02 -1.61132E+03 -1.81295E+03  1.55220E+03 -2.89713E+03
  2.08799E+03 -1.13157E+03  1.78425E+03  1.99069E+03  1.69983E+03  2.86460E+03 -6.39866E+02  2.61837E+03
 -6.88152E+02  1.68631E+03 -1.24086E+03  1.28270E+03 -5.06976E+02  3.86610E+02 -1.91334E+03  3.99044E+02
 -8.25975E+02  1.41997E+03 -4.42421E+03  2.81760E+03 -5.58285E+03 -9.74488E+01 -6.75406E+03 -3.55563E+03
 -3.14105E+03 -6.44684E+03  2.98469E+03 -6.20559E+03  3.85391E+03 -4.91938E+03  7.01914E+03 -9.42160E+02
  6.16043E+03  2.14094E+02  3.19611E+03  4.84651E+03  2.41440E+01  3.76320E+03 -2.95967E+03  2.47612E+03
 -2.95313E+03  2.82018E+03 -6.42532E+02 -4.14243E+02 -6.47022E+02  2.27275E+02 -1.74053E+03 -5.55180E+02
 -6.07765E+02 -7.41654E+02 -2.25994E+03 -5.63886E+02 -9.44572E+01 -5.99421E+02 -1.10767E+03 -1.38659E+03
  2.51050E+03 -1.68122E+03  2.07241E+03  5.00913E+01  2.74061E+03  3.11795E+03  8.96594E+02  4.41872E+03
 -2.86410E+03  6.04527E+03 -5.51007E+03  2.22002E+03 -6.05830E+03 -4.37417E+02 -5.08605E+03 -2.24240E+03
 -2.20416E+03 -4.33079E+03  1.37042E+03 -4.79255E+03  1.92092E+03 -2.01981E+03  4.00231E+03  1.83485E+02
  2.01582E+03  1.11361E+03  1.82525E+02  1.19632E+03 -1.16870E+03 -2.33269E+02 -4.39927E+02 -6.16362E+02
  1.18909E+03 -6.86565E+02  5.41773E+02  6.64167E+02  1.06358E+03  2.96845E+03  1.21917E+03  1.03640E+03
 -1.82445E+03  1.92893E+03 -2.77455E+03 -1.92086E+02 -3.86073E+03 -1.69160E+03  4.84920E+02 -4.99979E+03
  2.33230E+03 -3.55105E+03  1.56407E+03 -1.11651E+03  2.81438E+03  9.95323E+02  3.17630E+03  2.78575E+03
  1.06351E+03  1.72245E+03 -1.48685E+03  2.57781E+03 -1.05848E+03  3.73064E+02 -7.09433E+02 -5.68384E+02
 -1.27144E+03  2.06693E+02 -7.32616E+02  1.16356E+03 -2.27886E+03  8.59551E+02 -2.93656E+03 -2.29716E+02
 -1.93138E+03 -8.58286E+02 -2.30691E+03 -3.13080E+03  2.30137E+03 -3.30863E+03  2.46623E+03 -6.70103E+02
  2.90592E+03  9.18211E+02  1.67551E+03  1.99951E+03 -6.63313E+02  2.30335E+03 -2.53677E+03  2.26263E+03
