 $NMID ID='MM_0lb_SNR200_13hz_g50_57.RAW', FMTDAT='(8E13.5)'
 TRAMP=1., VOLUME=1. $END
  3.09860E+05  6.17975E+02  3.37492E+05  2.51222E+05  8.39909E+04  3.37954E+05 -1.31946E+05  2.51821E+05
 -1.90142E+05  8.27116E+04 -1.11218E+05 -3.20202E+04  1.44840E+03 -5.15413E+04  5.33069E+04 -1.66710E+02
  3.54742E+04  5.23105E+04 -1.51398E+04  7.52455E+04 -6.04819E+04  6.41845E+04 -8.41319E+04  3.16569E+04
 -8.25699E+04 -1.14419E+04 -5.71025E+04 -5.17316E+04 -1.53058E+04 -6.95713E+04  2.74648E+04 -4.58802E+04
  3.87692E+04  3.88336E+03  1.62133E+04  4.75517E+04 -3.47217E+04  4.68467E+04 -6.67991E+04 -7.04551E+02
 -5.32213E+04 -5.72584E+04 -6.35296E+03 -7.74560E+04  3.52553E+04 -5.57783E+04  4.81596E+04 -1.78926E+04
  4.38261E+04  1.14856E+04  3.18890E+04  2.55875E+04  1.64212E+04  3.01662E+04 -5.15852E+03  2.63594E+04
 -2.07488E+04  1.14402E+04 -1.87886E+04 -5.19837E+03  6.08098E+03 -6.41314E+03  2.26054E+04  1.31888E+04
  7.00005E+03  3.53412E+04 -3.09927E+04  3.50089E+04 -6.36085E+04  1.20213E+03 -5.75918E+04 -4.29107E+04
 -1.22328E+04 -6.42350E+04  3.92725E+04 -4.60659E+04  5.98316E+04 -2.44772E+03  3.40327E+04  3.32596E+04
 -4.66287E+03  3.66307E+04 -2.89519E+04  1.54711E+04 -3.07656E+04 -4.16339E+03 -1.67665E+04 -1.04018E+04
 -8.06334E+03 -1.37717E+04 -1.85701E+02 -1.81097E+04  8.83386E+03 -2.36808E+04  1.65803E+04 -1.38935E+04
  1.09388E+04  5.76866E+03 -8.78353E+03  1.39680E+04 -2.25723E+04 -4.25356E+03 -6.95363E+03 -3.53722E+04
  2.42235E+04 -4.37225E+04  4.84283E+04 -2.04059E+04  4.58863E+04  2.02520E+04  1.52674E+04  4.68715E+04
 -1.59163E+04  3.46458E+04 -2.54353E+04  7.61366E+02 -9.63508E+03 -2.77695E+04  2.15191E+04 -3.50381E+04
  4.11090E+04 -9.20504E+03  3.72060E+04  2.45010E+04  1.90956E+04  4.74010E+04 -7.50037E+03  4.99720E+04
 -3.26636E+04  3.51969E+04 -4.41896E+04  1.11127E+04 -4.40525E+04 -1.70684E+04 -2.41261E+04 -3.98259E+04
  7.09363E+03 -3.86864E+04  3.20468E+04 -1.68215E+04  2.95608E+04  1.01714E+04  3.92417E+03  1.92353E+04
 -1.45910E+04  9.16351E+03 -1.04713E+04 -8.07802E+03  5.69471E+03 -1.05804E+04  1.82382E+04  5.85793E+03
  1.34308E+04  2.22190E+04 -6.43654E+03  2.49712E+04 -2.13147E+04  1.24402E+04 -2.89595E+04 -4.00604E+03
 -2.13721E+04 -1.79457E+04 -8.67829E+03 -2.15137E+04  4.20126E+03 -2.01895E+04  1.58576E+04 -2.04779E+04
  2.77743E+04 -1.23302E+04  3.46086E+04  3.54100E+03  2.48579E+04  2.07216E+04  4.13699E+03  3.69919E+04
 -1.75440E+04  3.11469E+04 -2.78881E+04  1.09944E+04 -2.14885E+04 -1.04634E+04 -5.31574E+03 -1.16062E+04
  7.70902E+02 -2.46484E+03 -5.59540E+03  6.53181E+03 -1.66144E+04  5.86695E+03 -1.62713E+04 -7.37529E+03
 -1.04911E+04 -2.06096E+04  5.97867E+03 -2.37097E+04  1.45664E+04 -1.72736E+04  1.91712E+04 -5.13084E+02
  1.16529E+04  1.47168E+04 -1.29412E+03  2.09261E+04 -1.27206E+04  1.11833E+04 -2.03853E+04 -2.81351E+03
 -1.42999E+04 -1.79488E+04 -2.35892E+03 -2.27287E+04  1.11674E+04 -2.01087E+04  1.89091E+04 -9.83417E+03
  1.78841E+04  1.30756E+03  1.36505E+04  5.06401E+03  6.79913E+03  1.78185E+03  1.04471E+04 -1.11394E+03
  1.93611E+04  2.05161E+03  2.12708E+04  1.61652E+04  1.31009E+04  3.02799E+04 -2.96836E+03  3.53261E+04
 -2.06176E+04  2.96627E+04 -3.41505E+04  1.42365E+04 -3.59992E+04 -2.93948E+03 -2.85739E+04 -2.13074E+04
 -1.18799E+04 -2.95352E+04  1.04778E+04 -2.62879E+04  2.26587E+04 -1.37076E+04  1.97547E+04  6.48097E+03
  7.46919E+03  1.66169E+04 -9.34800E+03  1.29357E+04 -1.71035E+04  2.74076E+03 -1.23613E+04 -8.94625E+03
 -7.88348E+02 -1.64120E+04  7.81575E+03 -1.17626E+04  9.99890E+03 -1.20172E+03  1.76965E+03  7.11197E+03
 -5.36581E+03  2.59833E+03 -6.69772E+03 -6.08751E+03 -6.91088E+02 -1.42049E+04  1.07221E+04 -1.59966E+04
  1.88245E+04 -7.48127E+03  2.01071E+04  3.54117E+03  1.69344E+04  1.35566E+04  7.15441E+03  2.22917E+04
 -3.12929E+03  2.40034E+04 -1.47291E+04  1.44399E+04 -1.61585E+04  2.63261E+03 -1.20203E+04 -4.56165E+03
 -6.04397E+03 -6.18555E+03 -1.05801E+03  1.28948E+03 -1.04346E+03  1.34634E+03 -5.98107E+03  4.52033E+03
 -1.01282E+04 -1.15436E+03 -1.17945E+04 -9.46817E+03 -5.94582E+03 -1.52808E+04  5.49278E+03 -1.13454E+04
  1.06257E+04 -5.96038E+03  7.05646E+03  3.89288E+03 -3.85113E+02  4.16204E+03 -5.19805E+03  5.77230E+02
 -4.87106E+03 -7.57050E+03 -2.46527E+03 -1.14135E+04  6.30412E+03 -1.26049E+04  1.52801E+04 -6.28881E+03
  1.80388E+04  1.44357E+03  1.37265E+04  1.08173E+04  3.99662E+03  1.50981E+04 -7.80412E+03  1.09499E+04
 -1.04821E+04  3.67861E+03 -5.21899E+03 -2.98735E+03  2.51100E+03 -3.69281E+03  6.61035E+03 -1.42586E+03
  4.64041E+03  5.35710E+03  3.57632E+02  1.00171E+04 -7.46253E+03  8.25975E+03 -1.27527E+04  2.83870E+03
 -9.27265E+03 -5.71020E+03  9.28001E+02 -8.80855E+03  5.58409E+03 -5.39212E+03  6.49598E+03  2.33322E+03
  2.05070E+03  6.25122E+03 -5.84469E+03  7.42831E+03 -8.53004E+03  3.25870E+03 -8.93325E+03 -3.25867E+03
 -6.46010E+03 -1.13744E+04  2.91703E+03 -1.29880E+04  9.56694E+03 -8.10779E+03  1.22862E+04  1.03781E+03
  7.43671E+03  9.12020E+03 -2.37805E+02  1.18280E+04 -1.00970E+04  7.04198E+03 -9.43686E+03 -1.29368E+03
 -7.66438E+03 -7.92299E+03 -1.52958E+03 -8.78921E+03  3.07627E+03 -8.47988E+03  4.92962E+03 -2.65590E+03
  3.09503E+03  1.05829E+03 -4.98541E+02  2.41583E+03 -1.11872E+01 -1.87702E+03  2.00828E+03 -3.92869E+03
  7.34035E+03 -3.49389E+03  1.15365E+04  8.81124E+02  9.67060E+03  5.52878E+03  7.23027E+03  1.40126E+04
 -3.11694E+03  1.65216E+04 -1.45859E+04  1.23136E+04 -1.79111E+04  2.07008E+03 -1.52290E+04 -6.56971E+03
 -7.87845E+03 -1.18123E+04 -3.27543E+02 -1.05131E+04  3.78168E+03 -4.59564E+03  3.28857E+03 -3.35033E+03
  1.87480E+03 -2.26867E+03  3.37392E+03 -3.47042E+03  5.19363E+03 -1.55477E+03  4.24386E+03 -1.12844E+02
  5.87321E+03  1.39733E+03  1.83270E+03  6.04701E+03 -2.63315E+03  6.08432E+03 -7.60301E+03  5.93138E+03
 -9.71147E+03 -1.02317E+03 -5.20714E+03 -7.69849E+03  2.65388E+02 -9.85691E+03  6.30081E+03 -1.06889E+04
  1.02077E+04 -5.38120E+03  1.29476E+04  1.65637E+03  9.32624E+03  8.81312E+03  8.88394E+02  1.12466E+04
 -4.72984E+03  8.58944E+03 -6.60287E+03  3.47117E+03 -3.48611E+03 -3.12826E+03 -1.24404E+03 -4.20184E+02
 -9.90391E+01  1.11531E+03 -1.27810E+03  1.61851E+03 -6.33875E+03  1.10963E+03 -7.21681E+03 -1.34049E+03
 -4.55315E+03 -6.82802E+03  4.04010E+01 -7.97454E+03  5.74556E+03 -9.12500E+03  9.35953E+03 -2.87121E+03
  8.87437E+03  4.29540E+03  4.40809E+03  8.01954E+03 -1.24322E+03  8.43648E+03 -7.74066E+03  5.39873E+03
 -8.88750E+03  7.74218E+02 -6.91015E+03 -4.87700E+03 -1.46008E+03 -6.62161E+03  4.68856E+03 -5.53405E+03
  5.09741E+03 -3.00714E+03  3.02622E+03 -3.62696E+00  1.08372E+03  2.24580E+03  5.15595E+02  1.82202E+03
  1.98272E+03 -4.49727E+02  2.56036E+03  5.56291E+02  2.48045E+03  3.61502E+03  2.58999E+03  3.60338E+03
 -1.57450E+03  7.26215E+03 -6.19558E+03  6.21565E+03 -9.87238E+03  2.33186E+03 -8.28088E+03 -3.31853E+03
 -4.24160E+03 -7.56096E+03  2.51675E+03 -9.24382E+03  4.62297E+03 -5.28347E+03  7.35705E+03 -2.70027E+03
  6.11405E+03  2.51487E+03  3.27561E+03  4.97519E+03 -2.24115E+03  3.37144E+03 -3.48401E+03  4.44208E+02
 -1.97998E+03 -3.58144E+03  1.71623E+03 -3.86450E+03  4.04874E+03 -2.79529E+03  3.63410E+03  1.32750E+03
  1.34882E+03  2.84283E+03  1.26284E+03  1.07134E+03 -5.30143E+02  2.85562E+03  1.32490E+03 -2.83707E+02
  1.09275E+03 -1.64733E+03  4.07532E+03  1.47894E+03  2.97513E+03  3.86797E+03 -4.27580E+02  5.46081E+03
 -3.91697E+03  4.45779E+03 -5.78590E+03  4.00006E+02 -4.30216E+03 -1.61056E+03 -1.36217E+03 -3.45225E+03
  8.30919E+02 -3.39791E+03  1.52270E+03 -2.33095E+03  1.57734E+03  2.13111E+03 -1.55564E+03  3.45139E+03
 -4.46409E+03  2.43331E+03 -4.83890E+03 -1.90833E+03 -1.98269E+03 -5.28641E+03  1.20683E+02 -5.89199E+03
  1.48297E+03 -2.87391E+03  1.23018E+03  5.43492E+02  2.63040E+03  1.14305E+03  5.05694E+02  2.14377E+03
 -6.49837E+02  8.25511E+02 -3.22760E+03 -2.84894E+03  1.48501E+03 -4.63425E+03  5.06947E+03 -3.75820E+03
  4.83938E+03  1.26462E+03  5.65852E+03  2.79904E+03  2.01621E+03  6.37320E+03 -1.93677E+03  5.30500E+03
 -3.57893E+03  2.88940E+03 -3.28629E+03 -1.61233E+03 -3.59363E+03 -4.37935E+03  1.28573E+03 -1.77570E+03
  3.73197E+03 -1.12388E+03  1.75680E+03  1.42669E+03  9.18758E+02  2.73262E+03  1.32585E+01  1.71456E+03
 -4.19392E+02  2.53893E+03 -1.52595E+03  5.42812E+02 -1.45120E+03  1.45245E+03 -1.53045E+03  2.06145E+03
 -1.09229E+03  1.80307E+03 -4.35376E+03  1.61912E+03 -6.24515E+03  6.62953E+02 -6.23037E+03 -1.78691E+03
 -2.26609E+03 -6.40404E+03  1.18710E+03 -7.70297E+03  3.17648E+03 -5.20794E+03  7.71373E+03 -1.60847E+03
  5.98255E+03  1.03573E+03  3.63345E+03  4.73507E+03 -6.09226E+02  4.68109E+03 -2.67785E+03  5.01777E+03
 -2.68293E+03  3.30456E+02 -2.41085E+03 -1.44780E+03 -1.03735E+02  2.28241E+03 -9.21396E+02 -2.00926E+01
 -4.69375E+02 -1.57293E+02 -8.79312E+02 -3.78395E+02  1.34702E+03 -5.95927E+02  1.23894E+03 -2.93755E+03
  1.59031E+03 -1.92974E+03  4.27344E+03 -4.05918E+02  2.97793E+03  3.19240E+03  1.02023E+03  3.50823E+03
 -2.75373E+03  5.67050E+03 -5.35269E+03  3.72262E+03 -5.77674E+03 -1.07479E+03 -4.03620E+03 -4.08294E+03
 -1.37676E+03 -5.03998E+03 -2.17491E+01 -5.70345E+03  3.33759E+03 -3.68122E+03  2.78734E+03  1.08064E+01
  1.80469E+03  1.08611E+03 -3.53936E+02  1.97533E+03 -1.49386E+02  5.86258E+02 -1.44925E+02 -1.36562E+03
  1.68728E+03 -1.24939E+03  8.39647E+02  4.68489E+01  5.61731E+02  1.00994E+03 -1.57697E+02  2.45805E+03
 -2.59073E+03  1.57747E+03 -3.27386E+03 -1.04947E+02 -3.85445E+03 -2.36053E+03 -6.60903E+02 -2.86324E+03
  1.75085E+03 -2.20013E+03  2.40584E+03  1.46747E+03  3.40713E+03  3.16855E+02  1.42636E+03  2.53788E+03
 -2.87501E+02  3.53868E+03 -5.08604E+02  1.83964E+03 -1.45926E+03  1.02263E+03 -1.40334E+03  4.05780E+02
 -6.80304E+01 -8.76393E+02 -1.58618E+03  1.09082E+03 -2.24540E+03  9.88112E+02 -2.01885E+03  6.46777E+02
 -3.03150E+03 -4.27047E+02 -4.63221E+02 -2.93964E+03  1.63500E+03 -3.97755E+03  2.93196E+03 -7.44740E+02
  2.30930E+03  5.74532E+02  8.73575E+02  1.92179E+03 -2.40061E+02  2.95290E+03 -4.00778E+03  2.36147E+03
