 $NMID ID='MM_0lb_SNR200_9hz_g45_53.RAW', FMTDAT='(8E13.5)'
 TRAMP=1., VOLUME=1. $END
  3.09551E+05 -1.03645E+03  3.36687E+05  2.50714E+05  8.39940E+04  3.38055E+05 -1.31715E+05  2.51239E+05
 -1.89913E+05  8.39721E+04 -1.13443E+05 -3.13540E+04 -3.33761E+02 -5.02866E+04  5.31003E+04  5.54805E+02
  3.66150E+04  5.45733E+04 -1.67105E+04  7.52474E+04 -6.05639E+04  6.54353E+04 -8.60975E+04  3.19408E+04
 -8.02811E+04 -1.20998E+04 -5.69324E+04 -5.24334E+04 -1.51281E+04 -7.05515E+04  2.95039E+04 -4.74778E+04
  4.06292E+04  2.74149E+03  1.65979E+04  4.80807E+04 -3.53680E+04  4.88481E+04 -6.72681E+04 -1.06419E+03
 -5.31220E+04 -5.71202E+04 -7.28924E+03 -7.80974E+04  3.50277E+04 -5.60458E+04  4.99571E+04 -1.82393E+04
  4.66960E+04  1.17690E+04  3.30426E+04  2.63184E+04  1.75713E+04  2.87712E+04 -5.53752E+03  2.79762E+04
 -2.20127E+04  1.25653E+04 -1.91497E+04 -5.74788E+03  7.40675E+03 -5.81270E+03  2.40840E+04  1.32851E+04
  6.08104E+03  3.80017E+04 -3.45952E+04  3.69988E+04 -6.63053E+04  8.04843E+02 -5.84738E+04 -4.45546E+04
 -1.15902E+04 -6.39666E+04  4.09029E+04 -4.79122E+04  6.05874E+04 -1.55269E+03  3.52876E+04  3.32057E+04
 -5.86967E+03  4.00596E+04 -3.11498E+04  1.92573E+04 -3.30199E+04 -5.47449E+03 -1.91652E+04 -1.16433E+04
 -7.85476E+03 -1.59472E+04 -1.02269E+03 -1.97879E+04  8.08056E+03 -2.28304E+04  1.54262E+04 -1.35346E+04
  8.93510E+03  5.90800E+03 -9.94286E+03  1.45852E+04 -2.22870E+04 -6.96962E+03 -8.54997E+03 -3.69875E+04
  2.44612E+04 -4.77077E+04  5.03087E+04 -2.19022E+04  4.94821E+04  2.26822E+04  1.83845E+04  4.70829E+04
 -1.66413E+04  3.48794E+04 -2.82834E+04  1.59973E+03 -1.14426E+04 -2.94210E+04  2.18124E+04 -3.67765E+04
  4.47291E+04 -9.81368E+03  4.02478E+04  2.39989E+04  2.18779E+04  5.15114E+04 -7.81174E+03  5.66291E+04
 -3.46042E+04  3.71190E+04 -4.77461E+04  1.07924E+04 -4.82976E+04 -1.94240E+04 -2.59470E+04 -4.34194E+04
  6.21911E+03 -4.24819E+04  3.25878E+04 -1.55082E+04  3.14325E+04  1.23423E+04  4.70201E+03  1.86794E+04
 -1.30386E+04  1.04359E+04 -1.11741E+04 -6.94019E+03  6.32127E+03 -1.22892E+04  1.74078E+04  4.70114E+03
  1.40658E+04  2.28190E+04 -6.54165E+03  2.78172E+04 -2.46066E+04  1.34301E+04 -3.05822E+04 -3.10173E+03
 -2.55756E+04 -1.87232E+04 -1.21513E+04 -2.45385E+04  4.94130E+03 -2.37074E+04  1.91827E+04 -2.32263E+04
  3.17829E+04 -1.58937E+04  3.58882E+04  5.00726E+03  2.66823E+04  2.47673E+04  5.61260E+03  4.14668E+04
 -1.99236E+04  3.29100E+04 -3.29893E+04  1.12255E+04 -2.38260E+04 -9.13215E+03 -3.72371E+03 -1.23891E+04
  6.16820E+02 -5.41630E+02 -8.36189E+03  7.30314E+03 -1.99222E+04  4.17375E+03 -2.01988E+04 -7.80121E+03
 -1.22050E+04 -2.28587E+04  6.29357E+03 -2.74089E+04  1.84773E+04 -1.90954E+04  2.20310E+04 -1.62873E+03
  1.51313E+04  1.44724E+04 -2.13311E+03  2.30662E+04 -1.44492E+04  1.16841E+04 -2.24636E+04 -4.38132E+03
 -1.69394E+04 -2.17751E+04 -2.79967E+03 -2.72329E+04  1.17885E+04 -2.24741E+04  2.27070E+04 -1.31380E+04
  2.20876E+04 -4.78065E+02  1.71196E+04  7.38920E+03  9.96592E+03  6.92743E+02  1.24442E+04 -2.74706E+03
  2.11552E+04  2.51733E+03  2.43279E+04  1.69848E+04  1.67805E+04  3.76537E+04 -3.23862E+03  4.32961E+04
 -2.44904E+04  3.63426E+04 -4.12498E+04  1.83575E+04 -4.49686E+04 -4.59930E+03 -3.57045E+04 -2.41787E+04
 -1.46120E+04 -3.67935E+04  1.29573E+04 -3.17697E+04  2.67827E+04 -1.46881E+04  2.36063E+04  8.50405E+03
  7.26096E+03  1.68501E+04 -1.21301E+04  1.63059E+04 -1.90941E+04  3.77392E+03 -1.47759E+04 -1.30159E+04
 -9.02063E+01 -1.80244E+04  1.13829E+04 -1.40946E+04  1.39603E+04 -4.67304E+02  2.97984E+03  8.71803E+03
 -8.34157E+03  3.64647E+03 -9.09202E+03 -6.70229E+03 -1.21657E+03 -1.76402E+04  1.16975E+04 -1.91766E+04
  2.21667E+04 -1.12293E+04  2.60641E+04  3.35080E+03  2.29527E+04  1.86761E+04  1.04168E+04  2.84855E+04
 -4.93214E+03  2.98850E+04 -2.14072E+04  1.83139E+04 -2.40240E+04  2.98004E+03 -1.41781E+04 -8.07276E+03
 -6.01140E+03 -8.07465E+03 -8.05786E+02 -2.30848E+02 -3.74038E+03  3.73250E+03 -7.67977E+03  5.25771E+03
 -1.40175E+04 -1.56050E+03 -1.51295E+04 -1.18869E+04 -5.34560E+03 -1.91542E+04  7.21111E+03 -1.57083E+04
  1.25347E+04 -7.75106E+03  8.35607E+03  3.06263E+03  1.89063E+02  4.67438E+03 -6.31960E+03  4.99744E+02
 -7.57485E+03 -1.00226E+04 -4.54561E+02 -1.59256E+04  9.74262E+03 -1.51577E+04  1.97382E+04 -7.10551E+03
  2.34148E+04  3.10529E+03  1.56089E+04  1.29717E+04  3.06009E+03  1.85627E+04 -8.43234E+03  1.53009E+04
 -1.18137E+04  3.24355E+03 -5.75682E+03 -3.16903E+03  2.62374E+03 -4.31223E+03  7.92548E+03 -1.18765E+03
  7.90404E+03  6.77923E+03  1.75705E+03  1.40110E+04 -9.26004E+03  1.14377E+04 -1.52909E+04  4.59635E+03
 -9.84913E+03 -8.58283E+03  1.49579E+03 -1.33156E+04  7.04827E+03 -6.14986E+03  7.65555E+03  3.60747E+03
  1.83285E+03  9.80543E+03 -8.03304E+03  1.08613E+04 -1.37460E+04  4.53490E+03 -1.36034E+04 -3.95517E+03
 -7.80175E+03 -1.44429E+04  4.57600E+03 -1.80145E+04  1.46038E+04 -1.13652E+04  1.72658E+04  2.98638E+03
  1.07239E+04  1.17857E+04 -2.72650E+03  1.42604E+04 -1.17978E+04  8.31845E+03 -1.14786E+04 -6.86668E+02
 -9.80098E+03 -1.00145E+04 -1.09167E+03 -1.28532E+04  6.49432E+03 -8.50104E+03  8.82657E+03 -2.73909E+03
  4.42157E+03  1.75513E+03 -7.52649E+02  2.53190E+03 -2.01872E+02 -2.55369E+03  4.56563E+03 -9.72892E+03
  1.08568E+04 -6.61360E+03  1.61895E+04  2.27649E+03  1.63366E+04  1.05918E+04  1.03794E+04  2.14512E+04
 -4.23691E+03  2.37063E+04 -1.97408E+04  1.71572E+04 -2.47446E+04  3.05167E+03 -1.88434E+04 -7.78874E+03
 -1.01392E+04 -1.67320E+04 -8.28793E+02 -1.41860E+04  6.11998E+03 -7.62304E+03  6.01985E+03 -4.15475E+03
  4.53732E+03 -3.26529E+03  5.46751E+03 -2.33049E+03  5.52328E+03 -3.20448E+03  7.62181E+03 -1.20940E+03
  9.02951E+03  2.49900E+03  5.92111E+03  7.99194E+03 -1.81900E+03  1.28262E+04 -1.08681E+04  8.59144E+03
 -1.46128E+04 -9.09065E+02 -9.32697E+03 -1.03265E+04 -2.34387E+03 -1.55129E+04  9.27774E+03 -1.41707E+04
  1.68296E+04 -9.15480E+03  1.96861E+04  2.68154E+03  1.37731E+04  1.30807E+04  1.28797E+03  1.85993E+04
 -6.31894E+03  1.28971E+04 -9.87715E+03  5.19375E+03 -7.88687E+03 -1.37872E+03 -2.54815E+03 -3.36553E+03
 -1.40178E+03  1.04511E+03 -2.57549E+03  2.76801E+03 -7.62453E+03  2.29205E+03 -1.07919E+04 -1.50924E+03
 -7.93104E+03 -9.02358E+03  1.64409E+03 -1.32339E+04  9.95263E+03 -1.30680E+04  1.59277E+04 -4.15345E+03
  1.31544E+04  6.59347E+03  6.03341E+03  1.40124E+04 -2.18630E+03  1.50053E+04 -9.66553E+03  8.96366E+03
 -1.30236E+04  9.06337E+02 -1.01037E+04 -8.40292E+03 -1.51776E+03 -1.00244E+04  4.75865E+03 -1.03392E+04
  8.18145E+03 -3.12735E+03  5.14339E+03  2.83934E+03  2.71657E+03  4.03165E+03  2.60438E+03  5.07267E+02
  3.97916E+02  5.74413E+02  3.66987E+03  2.11390E+03  3.55188E+03  3.52539E+03  4.24438E+03  7.41948E+03
 -2.71921E+03  1.14144E+04 -1.10666E+04  1.17023E+04 -1.35318E+04  5.06303E+03 -1.68471E+04 -6.87658E+03
 -5.83380E+03 -1.46445E+04  1.28645E+03 -1.71196E+04  9.18437E+03 -8.91579E+03  1.16122E+04 -2.67165E+03
  9.88688E+03  4.70637E+03  1.72110E+03  9.29687E+03 -2.94752E+03  5.59711E+03 -4.69923E+03 -2.73481E+03
 -1.76557E+03 -7.64523E+03  3.31466E+03 -6.64806E+03  7.06752E+03 -2.89054E+03  6.51117E+03  3.72585E+02
  3.06482E+03  2.04263E+03  2.14729E+03  1.07175E+03  4.77494E+02  2.39387E+03  1.74388E+03 -1.15319E+03
  2.11132E+03 -2.62194E+02  6.88549E+03  1.99951E+03  4.12300E+03  7.16110E+03 -1.74589E+03  1.20638E+04
 -6.76202E+03  5.87299E+03 -8.99316E+03  2.68435E+03 -9.14607E+03 -3.30225E+03 -2.12858E+03 -6.16566E+03
  2.08427E+03 -4.95448E+03  4.75101E+03 -2.79042E+03  4.35935E+03  2.21753E+03 -1.24506E+03  3.85896E+03
 -4.68664E+03  3.64393E+03 -7.32671E+03 -3.40669E+03 -4.12620E+03 -9.86026E+03  2.03716E+03 -8.62666E+03
  4.41073E+03 -5.64736E+03  5.76214E+03 -7.50100E+02  4.50199E+03  2.30334E+03  3.83707E+02  4.33275E+03
 -3.06528E+03  2.15138E+03 -3.47996E+03 -2.87970E+03  1.80582E+03 -7.23172E+03  6.81596E+03 -5.32309E+03
  1.01134E+04  1.03992E+03  8.65578E+03  6.67768E+03  2.53934E+03  1.09501E+04 -3.37767E+03  9.83690E+03
 -9.60898E+03  3.84037E+03 -8.90750E+03 -1.02376E+03 -4.43680E+03 -7.40249E+03  2.16323E+03 -5.25553E+03
  6.19185E+03 -3.44053E+03  4.95725E+03  3.18725E+03  1.16096E+03  6.54945E+03 -1.19941E+03  5.71268E+03
 -3.36438E+03  4.41953E+03 -2.24792E+03  2.02191E+03 -1.24186E+03 -5.90365E+02 -1.84921E+03  2.05150E+03
 -1.79270E+03  3.43746E+03 -5.85701E+03  2.74178E+03 -1.01877E+04 -1.01224E+03 -9.94316E+03 -7.07210E+03
 -6.83568E+03 -1.22283E+04  1.91427E+03 -1.69899E+04  1.07543E+04 -1.15654E+04  1.47771E+04 -5.32142E+03
  1.25672E+04  2.51452E+03  7.41896E+03  7.58802E+03  1.20421E+03  1.04669E+04 -4.56075E+03  6.33669E+03
 -6.34086E+03  3.64523E+03 -3.42530E+03 -1.22171E+03  2.34306E+02  1.04073E+03 -1.55098E+03 -2.40412E+02
 -2.18034E+03  3.41658E+02 -2.94592E+03 -7.19112E+02 -5.33698E+02 -3.52033E+03 -2.44970E+02 -2.62624E+03
  3.20837E+03 -2.84289E+03  4.15538E+03 -5.88222E+02  8.13647E+03  5.48508E+03  2.33670E+03  1.10138E+04
 -4.66441E+03  1.05282E+04 -1.13772E+04  7.21163E+03 -1.35642E+04 -9.32045E+02 -7.28814E+03 -6.13969E+03
 -2.67040E+03 -1.12679E+04  2.28813E+03 -9.08924E+03  5.53786E+03 -6.00982E+03  6.67158E+03  2.72105E+03
  3.62224E+03  4.15716E+03 -1.10704E+03  3.84802E+03 -2.53465E+03  2.38136E+02  1.26277E+03 -2.08349E+03
  3.64536E+03 -8.29247E+02  3.12358E+03  1.57778E+03  3.91786E+03  2.43069E+03  7.48532E+02  6.21407E+03
 -6.11939E+03  2.79544E+03 -6.29550E+03 -6.86908E+02 -7.10631E+03 -5.77950E+03 -2.21146E+03 -8.72373E+03
  4.64569E+03 -7.84907E+03  7.81959E+03 -1.34486E+03  6.65623E+03  2.71055E+03  5.35790E+03  6.40917E+03
  1.38949E+03  5.13565E+03 -4.14923E+03  3.52501E+03 -3.18105E+03  3.33208E+03 -2.26723E+03  8.93528E+02
 -1.84734E+03 -9.73018E+02 -2.98497E+03  1.03505E+03 -4.56955E+03  1.82537E+03 -5.00938E+03 -2.05880E+03
 -4.29133E+03 -3.77495E+03 -1.43567E+03 -7.27367E+03  4.26855E+03 -5.81527E+03  5.78610E+03 -4.58124E+03
  8.85382E+03  1.86532E+03  3.07165E+03  6.05178E+03 -4.16830E+02  7.07465E+03 -6.55971E+03  3.07276E+03
