 $NMID ID='MM_0lb_SNR200_20hz_g40_3.RAW', FMTDAT='(8E13.5)'
 TRAMP=1., VOLUME=1. $END
  3.09682E+05  1.22150E+03  3.37533E+05  2.50556E+05  8.38405E+04  3.37161E+05 -1.32558E+05  2.49856E+05
 -1.89386E+05  8.20643E+04 -1.10276E+05 -3.28730E+04  1.29074E+03 -5.09760E+04  5.42736E+04  7.17631E+02
  3.53452E+04  5.25810E+04 -1.71973E+04  7.54227E+04 -5.98720E+04  6.25113E+04 -8.36694E+04  3.07444E+04
 -7.96375E+04 -1.05358E+04 -5.54037E+04 -4.88097E+04 -1.50193E+04 -6.77840E+04  2.64832E+04 -4.46374E+04
  3.89155E+04  3.46226E+03  1.55826E+04  4.71821E+04 -3.30901E+04  4.54617E+04 -6.40898E+04 -5.73345E+02
 -5.21858E+04 -5.47131E+04 -5.35380E+03 -7.52909E+04  3.26512E+04 -5.18275E+04  4.66691E+04 -1.59907E+04
  4.11221E+04  1.07720E+04  3.04317E+04  2.30506E+04  1.56270E+04  2.68714E+04 -3.20366E+03  2.71928E+04
 -2.21765E+04  1.29634E+04 -1.88741E+04 -3.52784E+03  4.14873E+03 -7.74876E+03  2.14661E+04  1.10837E+04
  7.09075E+03  3.24531E+04 -2.93545E+04  3.33129E+04 -5.97997E+04  2.20617E+03 -5.38867E+04 -4.10183E+04
 -1.20801E+04 -5.90644E+04  3.63707E+04 -4.30038E+04  5.31814E+04 -7.87145E+02  3.07069E+04  2.87477E+04
 -6.06161E+03  3.20645E+04 -2.73244E+04  1.21578E+04 -2.79167E+04 -5.41296E+03 -1.32772E+04 -8.05715E+03
 -6.79308E+03 -1.03639E+04 -6.67469E+02 -1.60315E+04  5.94929E+03 -2.20811E+04  1.53898E+04 -1.39983E+04
  1.24571E+04  3.51487E+03 -5.97684E+03  1.32798E+04 -1.85361E+04 -1.09879E+03 -8.59676E+03 -2.82168E+04
  2.00478E+04 -3.93268E+04  4.18551E+04 -1.74194E+04  4.07549E+04  1.73839E+04  1.33628E+04  4.03248E+04
 -1.43452E+04  3.02633E+04 -2.18919E+04  9.28097E+02 -7.77364E+03 -2.55784E+04  2.01738E+04 -2.98311E+04
  3.71527E+04 -5.95091E+03  2.90397E+04  2.26191E+04  1.40806E+04  4.07001E+04 -7.32700E+03  4.26964E+04
 -2.71454E+04  2.85560E+04 -3.53325E+04  8.10873E+03 -3.57733E+04 -1.43636E+04 -2.01762E+04 -3.36749E+04
  6.46671E+03 -3.22602E+04  2.75519E+04 -1.25998E+04  2.64352E+04  1.15458E+04  2.35292E+03  1.65697E+04
 -1.32491E+04  7.16360E+03 -9.41114E+03 -8.10543E+03  5.12278E+03 -1.02073E+04  1.66807E+04  7.24983E+03
  1.19799E+04  2.02335E+04 -7.09160E+03  2.22737E+04 -2.11470E+04  7.87290E+03 -2.49838E+04 -6.92511E+03
 -1.47314E+04 -1.69844E+04 -4.93515E+03 -1.45867E+04  3.15282E+03 -1.21608E+04  1.05690E+04 -1.26575E+04
  2.03372E+04 -1.16135E+04  2.50626E+04  3.15836E+02  2.03322E+04  1.40861E+04  4.10601E+03  3.04332E+04
 -1.48124E+04  2.63381E+04 -2.44562E+04  8.69032E+03 -2.00366E+04 -1.06404E+04 -4.37049E+03 -1.51815E+04
  2.67341E+03 -4.07029E+03 -2.09567E+03  5.72271E+03 -1.08350E+04  5.89911E+03 -1.27251E+04 -4.94266E+03
 -6.96744E+03 -1.33167E+04  3.91245E+03 -1.83331E+04  1.07320E+04 -1.30946E+04  1.26714E+04 -1.54512E+03
  6.87774E+03  1.00235E+04 -2.49910E+02  1.44788E+04 -1.01002E+04  8.23380E+03 -1.45428E+04 -2.97824E+03
 -1.06369E+04 -1.39757E+04 -1.82599E+03 -1.76042E+04  7.52754E+03 -1.41337E+04  1.53238E+04 -6.41311E+03
  1.40896E+04  4.42045E+02  9.70082E+03  3.57632E+03  5.08128E+03  4.72791E+02  6.52820E+03 -1.08767E+03
  1.19921E+04  2.31736E+03  1.29883E+04  1.19880E+04  7.73542E+03  2.21733E+04 -3.90492E+03  2.37205E+04
 -1.38885E+04  1.71407E+04 -2.16586E+04  7.65572E+03 -2.21085E+04 -1.88040E+03 -1.92400E+04 -1.23632E+04
 -9.30582E+03 -1.82258E+04  5.83701E+03 -1.64637E+04  1.34038E+04 -8.98734E+03  1.47281E+04  3.77096E+03
  5.90543E+03  9.78331E+03 -6.14475E+03  8.74489E+03 -1.21841E+04  2.57618E+03 -9.10536E+03 -7.06516E+03
  1.25155E+03 -1.13202E+04  5.81551E+03 -8.69671E+03  6.90217E+03 -1.00566E+03  1.38708E+03  3.69450E+03
 -4.83450E+03  1.33894E+03 -2.81635E+03 -4.65697E+03  2.52372E+03 -9.35568E+03  6.08700E+03 -7.93969E+03
  1.10460E+04 -3.74351E+03  1.02357E+04  3.09217E+03  7.49035E+03  8.12269E+03  3.48606E+03  1.12709E+04
 -1.02157E+03  1.41428E+04 -8.35749E+03  8.95472E+03 -9.78662E+03  2.86350E+03 -7.40280E+03  1.91381E+02
 -3.58426E+03 -3.10401E+03 -1.40294E+03  1.78719E+03 -3.92816E+02  1.41679E+03 -3.45127E+03  3.18743E+03
 -6.16886E+03 -5.30902E+02 -7.94390E+03 -5.60826E+03 -3.38107E+03 -9.20170E+03  3.19141E+03 -6.95009E+03
  5.82737E+03 -2.54584E+03  4.54312E+03  2.01792E+03  4.72914E+02  3.02540E+03 -2.14251E+03 -4.62709E+02
 -2.67448E+03 -4.65691E+03  2.57942E+02 -6.58305E+03  2.73260E+03 -7.13869E+03  9.61049E+03 -2.55739E+03
  9.89680E+03  7.59247E+02  7.32260E+03  4.78400E+03  1.01270E+03  7.15884E+03 -4.67238E+03  6.94484E+03
 -5.75207E+03  4.41352E+03 -3.15268E+03 -2.02843E+02  6.84651E+02 -7.70249E+02  4.08007E+03 -1.02152E+03
  3.97269E+03  2.81481E+03  9.27794E+02  5.95499E+03 -3.71040E+03  5.22022E+03 -6.03102E+03  2.10438E+03
 -4.00334E+03 -3.15242E+03 -3.54899E+02 -6.03052E+03  3.39114E+03 -2.48741E+03  3.57226E+03  1.25338E+03
 -3.24343E+02  2.17570E+03 -4.23109E+03  4.77263E+03 -3.77251E+03  1.67756E+03 -2.50059E+03 -2.90045E+02
 -2.63284E+03 -4.69554E+03  8.25770E+02 -6.27657E+03  5.28375E+03 -3.44276E+03  5.05549E+03  7.34369E+02
  4.52518E+03  5.08221E+03  9.83261E+02  6.04441E+03 -4.37528E+03  4.17644E+03 -4.28376E+03 -1.37073E+03
 -5.13380E+03 -5.12117E+03 -1.45717E+03 -3.76583E+03  1.69849E+03 -4.49936E+03  2.64450E+03 -2.98682E+03
  2.87324E+03  8.90675E+01 -5.14318E+02  1.84346E+03  1.30408E+03 -7.75719E+02 -4.69601E+02 -1.71758E+03
  3.43262E+03  1.35911E+02  3.64955E+03  1.72404E+03  4.22184E+03  3.39212E+03  4.55565E+03  4.75638E+03
 -1.39219E+03  6.89951E+03 -6.84993E+03  4.94312E+03 -7.46373E+03  6.73174E+02 -5.42603E+03 -1.82068E+03
 -2.93865E+03 -6.34760E+03  2.43329E+02 -4.01581E+03  2.70553E+03 -1.13762E+03  1.46120E+03 -2.80308E+03
  6.22747E+02 -1.22454E+03  1.25553E+03 -2.14554E+03  3.83701E+03 -1.14414E+03  3.08806E+03  8.45790E+02
  2.59089E+03  4.65261E+02  9.33349E+02  3.31401E+03 -1.26522E+03  9.75454E+02 -4.26428E+03  1.41077E+03
 -3.71742E+03 -8.47111E+02 -1.04337E+03 -2.88325E+03  1.00612E+03 -3.84188E+03  2.30571E+03 -4.33683E+03
  3.03151E+03 -3.90253E+03  5.69096E+03  7.15330E+01  4.00388E+03  3.60597E+03  7.47876E+02  5.15028E+03
 -1.14851E+03  4.67661E+03 -2.89551E+03  1.84148E+03 -1.19326E+03 -1.82301E+03 -6.76054E+02  9.98602E+01
 -1.18854E+02  4.64750E+02 -1.42300E+03  5.70101E+02 -2.63547E+03  1.27993E+03 -3.16392E+03 -1.50375E+02
 -5.86088E+02 -3.17757E+03  2.08926E+02 -3.14902E+03  3.02812E+03 -4.06554E+03  2.45919E+03 -5.29821E+02
  3.24985E+03  2.29272E+03  1.61307E+03  3.93400E+03 -4.04653E+02  2.79248E+03 -2.18592E+03  2.66810E+03
 -3.41078E+03  2.20645E+03 -3.70767E+03 -8.40641E+02 -5.28227E+02 -2.46535E+03  6.90650E+02 -1.80112E+03
  1.41585E+03 -1.36800E+02  7.41227E+02  3.88244E+02 -4.05827E+02  2.07501E+03  1.53970E+03 -4.00681E+01
  1.56047E+03  2.21485E+02  3.78227E+02  1.62754E+03  6.52503E+02  2.84691E+03  1.51379E+03  8.09949E+02
 -3.51407E+02  1.90243E+03 -2.38651E+03  3.59853E+03 -1.05533E+03 -1.22236E+02 -3.82451E+03 -4.10733E+02
 -1.66626E+03 -3.32713E+03  1.64194E+03 -3.76758E+03  1.35770E+03 -1.74727E+03  1.86908E+03 -9.60611E+02
  1.86731E+03  8.83800E+02 -2.79643E+02  1.98342E+03 -4.81589E+02  4.57609E+02 -2.07817E+02 -4.84924E+02
 -1.61866E+02 -2.80732E+03  1.22684E+03 -1.35148E+03  9.35464E+02 -2.22916E+02  1.09977E+03 -4.91934E+02
  1.35991E+03  6.87436E+02  9.06895E+02  6.89183E+01  6.62155E+02  1.54573E+03  1.78129E+03  8.69875E+02
  8.42797E+02  3.07545E+02  1.39096E+03  6.90516E+02 -7.48574E+02  2.56836E+03 -2.45340E+02  2.01941E+03
 -1.14247E+03  7.04030E+02 -1.85326E+03 -2.76313E+02 -1.51667E+03 -3.80213E+02  4.99818E+02 -1.21414E+03
 -6.03822E+02 -1.05345E+03  6.80067E+02 -7.70685E+02  4.24715E+02  5.45489E+02 -1.42300E+03  4.18931E+02
 -6.65344E+02  1.60586E+03 -9.64428E+02 -2.80732E+03 -7.46406E+02 -1.32947E+03  7.57544E+02 -4.67200E+02
  3.59486E+02 -6.88426E+02  6.76510E+02  1.09453E+03  6.22067E+02  7.08570E+02  1.05539E+03  1.04209E+03
  2.88294E+02  1.20335E+03 -1.47699E+03  5.58574E+02  3.57628E+02 -1.44133E+03  1.12718E+03  9.40198E+01
  1.91814E+03  1.02184E+03  2.37755E+03  3.46680E+02  2.43962E+03  9.38785E+02  7.68937E+02  1.74636E+03
 -1.17175E+03 -7.75442E+02 -4.84788E+02  2.23441E+02 -9.89777E+02 -8.59879E+02  1.02868E+03 -6.64569E+02
  1.82222E+03  3.41802E+01  8.89008E+01  9.97583E+02 -9.08271E+02  7.60281E+02 -9.44196E+02  1.00673E+03
 -8.39340E+02  1.35014E+03 -5.67667E+02  1.20893E+02  5.30013E+02  7.78742E+02 -7.04999E+02  4.30660E+02
 -5.12771E+02  3.84608E+02 -1.40560E+03  7.27813E+01 -2.05571E+03  1.07726E+03 -1.85594E+03 -3.14589E+02
 -3.02248E+02 -1.63148E+03  5.07434E+02 -1.82223E+03  3.03120E+02 -1.27164E+03  2.88232E+03 -3.15530E+02
  8.72936E+02  1.16469E+02  8.31444E+02  1.27316E+03 -1.63535E+03  1.33269E+03  3.91085E+02  2.51852E+03
 -1.60881E+03 -2.34111E+01  1.01630E+02  2.75036E+02 -5.58356E+02 -9.94348E+01 -1.51202E+03 -3.72700E+02
 -1.51175E+03  3.15161E+02 -1.54074E+03  8.93861E+02  1.21650E+02 -8.28864E+02 -8.99413E+01 -1.00665E+03
  8.84836E+02 -8.06587E+02  2.26349E+01 -3.58015E+01  7.58096E+02  7.96741E+02 -3.96156E+02  6.90698E+02
 -1.12257E+03  2.01987E+03 -9.39231E+02  8.92444E+02 -9.29435E+02 -7.30052E+02 -4.98188E+02  2.32092E+02
 -7.80209E+02 -8.36406E+02  4.66609E+02 -6.77265E+01  9.48860E+02 -4.09884E+02  1.28534E+03  6.24386E+02
  1.38759E+03  8.93680E+01  8.09204E+02  7.40403E+02  1.29295E+02  2.79354E+02 -3.03589E+02 -2.06497E+02
  5.95737E+02 -8.54889E+02 -1.06618E+03  2.29062E+02  8.60876E+02  5.03973E+02  4.52636E+02  6.26529E+02
 -1.19673E+03  9.47139E+02 -4.87276E+01  7.28180E+02 -1.58758E+02 -1.18833E+03 -1.30423E+02 -1.01411E+03
  4.55560E+02 -5.32145E+02  8.31142E-01  5.34448E+02  8.07800E+02 -4.19494E+02  5.55172E+02  8.74794E+02
  8.61049E+02  4.69276E+02  7.66019E+02  3.32553E+02  6.14298E+02  3.63995E+02 -3.71375E+02 -9.44160E+01
  8.01731E+02 -1.26875E+03 -1.04426E+03  3.34951E+02 -4.61682E+02 -2.07586E+02 -4.02405E+02 -4.96484E+02
 -8.83348E+02 -1.85658E+02  2.67626E+02 -1.04403E+03  1.44207E+03 -7.18926E+02  8.55564E+02 -2.47570E+02
  1.03298E+03  2.45949E+02  2.55462E+02  6.34910E+02 -3.57531E+02  4.42077E+02 -1.28375E+02  7.31018E+02
