 $NMID ID='MM_0lb_SNR200_9hz_g40_44.RAW', FMTDAT='(8E13.5)'
 TRAMP=1., VOLUME=1. $END
  3.10182E+05 -9.53279E+02  3.39264E+05  2.49450E+05  8.50077E+04  3.38793E+05 -1.32368E+05  2.52374E+05
 -1.89364E+05  8.47871E+04 -1.12396E+05 -3.28814E+04 -1.34873E+03 -5.09438E+04  5.33745E+04  3.21149E+02
  3.60027E+04  5.31154E+04 -1.69765E+04  7.59519E+04 -6.10264E+04  6.43274E+04 -8.49505E+04  3.21343E+04
 -8.28818E+04 -1.07625E+04 -5.79652E+04 -5.15396E+04 -1.55592E+04 -7.01368E+04  2.87204E+04 -4.66717E+04
  4.11251E+04  3.22008E+03  1.60462E+04  4.68170E+04 -3.47359E+04  4.81483E+04 -6.81257E+04 -1.19356E+03
 -5.46142E+04 -5.91794E+04 -7.04174E+03 -7.93461E+04  3.39831E+04 -5.72482E+04  4.78985E+04 -1.92170E+04
  4.46936E+04  1.15035E+04  3.35105E+04  2.64228E+04  1.70579E+04  3.03706E+04 -4.85122E+03  2.61587E+04
 -2.11628E+04  1.11828E+04 -1.77338E+04 -5.23471E+03  7.14101E+03 -5.76129E+03  2.19338E+04  1.33222E+04
  5.57319E+03  3.67422E+04 -3.37138E+04  3.58467E+04 -6.41668E+04  2.55005E+03 -5.94586E+04 -4.35408E+04
 -1.26342E+04 -6.51210E+04  4.15198E+04 -4.82270E+04  6.11556E+04 -2.35520E+03  3.80941E+04  3.49126E+04
 -5.59808E+03  3.83599E+04 -3.18084E+04  1.62068E+04 -3.38124E+04 -3.18322E+03 -1.83342E+04 -1.10651E+04
 -9.58044E+03 -1.58385E+04  1.36757E+02 -1.86050E+04  7.73097E+03 -2.38117E+04  1.46816E+04 -1.30179E+04
  1.11235E+04  5.88577E+03 -1.12791E+04  1.33984E+04 -2.28501E+04 -6.77787E+03 -9.07281E+03 -3.62869E+04
  2.67023E+04 -4.63913E+04  5.01182E+04 -2.03131E+04  4.86937E+04  2.18304E+04  1.72092E+04  4.46163E+04
 -1.80209E+04  3.51176E+04 -2.83659E+04  3.01292E+03 -9.32349E+03 -2.87712E+04  2.08532E+04 -3.72285E+04
  4.41814E+04 -1.09950E+04  4.03154E+04  2.34787E+04  2.05732E+04  4.99529E+04 -7.57892E+03  5.43826E+04
 -3.48619E+04  3.70983E+04 -4.66470E+04  1.10965E+04 -4.73978E+04 -1.91928E+04 -2.51229E+04 -4.29705E+04
  8.64422E+03 -4.18363E+04  3.29861E+04 -1.52794E+04  3.08549E+04  9.38866E+03  6.12556E+03  1.97663E+04
 -1.33061E+04  8.84298E+03 -1.10816E+04 -7.93106E+03  5.78870E+03 -9.94456E+03  1.83030E+04  5.78600E+03
  1.46029E+04  2.34779E+04 -6.90831E+03  2.57196E+04 -2.26435E+04  1.33732E+04 -3.14339E+04 -3.07790E+03
 -2.40364E+04 -1.85772E+04 -1.18437E+04 -2.35621E+04  5.08800E+03 -2.56554E+04  1.96615E+04 -2.02061E+04
  3.02571E+04 -1.34478E+04  3.81142E+04  5.93820E+03  2.76114E+04  2.22218E+04  5.51251E+03  3.86407E+04
 -1.97190E+04  3.39591E+04 -3.02897E+04  1.03975E+04 -2.09353E+04 -1.12145E+04 -4.09784E+03 -1.36669E+04
  1.37030E+03 -1.00046E+03 -6.65739E+03  8.83295E+03 -1.77456E+04  3.19278E+03 -2.04841E+04 -8.59125E+03
 -1.17793E+04 -2.30368E+04  6.84720E+03 -2.71289E+04  1.77461E+04 -1.95011E+04  2.25823E+04 -1.47841E+03
  1.43815E+04  1.61215E+04 -1.23501E+03  2.21841E+04 -1.53211E+04  1.26306E+04 -2.30524E+04 -4.65537E+03
 -1.83885E+04 -1.92331E+04 -2.41189E+03 -2.63941E+04  1.17262E+04 -2.22109E+04  2.29683E+04 -1.22230E+04
  2.29280E+04 -5.44788E+02  1.55502E+04  5.01647E+03  8.27182E+03  9.28256E+02  1.14546E+04 -2.17199E+03
  2.29121E+04  3.64901E+03  2.59673E+04  1.85194E+04  1.59842E+04  3.58263E+04 -2.83015E+03  4.16942E+04
 -2.36096E+04  3.44961E+04 -3.99121E+04  1.76444E+04 -4.48034E+04 -5.79420E+03 -3.59832E+04 -2.66544E+04
 -1.45361E+04 -3.47704E+04  1.34072E+04 -3.07800E+04  2.79213E+04 -1.49444E+04  2.33019E+04  6.96802E+03
  8.34972E+03  1.74909E+04 -1.24417E+04  1.54129E+04 -1.91543E+04  1.66768E+03 -1.34543E+04 -1.23736E+04
 -2.68883E+02 -1.81455E+04  1.11609E+04 -1.26568E+04  1.28415E+04 -2.02418E+03  2.50394E+03  1.01916E+04
 -6.74927E+03  4.47393E+03 -8.67101E+03 -6.62418E+03 -2.54087E+03 -1.73348E+04  1.30033E+04 -1.87596E+04
  2.16997E+04 -1.09023E+04  2.43595E+04  1.12900E+03  2.26322E+04  1.75051E+04  1.08410E+04  2.74395E+04
 -5.24720E+03  2.98927E+04 -1.78580E+04  1.89039E+04 -2.23956E+04  3.15851E+03 -1.53191E+04 -5.24588E+03
 -4.87249E+03 -6.75905E+03 -1.97287E+03  2.11108E+03 -2.78963E+03  3.51237E+03 -6.48128E+03  5.23237E+03
 -1.37772E+04 -3.76042E+02 -1.38385E+04 -9.98198E+03 -6.22122E+03 -1.92143E+04  6.65832E+03 -1.70282E+04
  1.01075E+04 -4.93342E+03  9.28983E+03  3.52440E+03 -1.14341E+03  7.43940E+03 -7.54702E+03  2.67609E+02
 -6.43334E+03 -1.00904E+04 -1.51500E+03 -1.52114E+04  9.24635E+03 -1.45104E+04  1.70376E+04 -7.86422E+03
  2.18895E+04  2.26853E+03  1.71894E+04  1.36345E+04  2.08940E+03  1.78249E+04 -1.00955E+04  1.52930E+04
 -1.31067E+04  4.05276E+03 -7.44612E+03 -2.94698E+03  1.62070E+03 -4.51024E+03  8.36859E+03 -1.49612E+03
  6.73773E+03  7.23499E+03  2.08373E+03  1.26575E+04 -8.80584E+03  1.16039E+04 -1.46436E+04  3.74796E+03
 -9.51442E+03 -8.06871E+03  6.21604E+02 -1.25853E+04  7.52781E+03 -8.03680E+03  8.85945E+03  2.46387E+03
  1.98537E+03  9.33691E+03 -8.24887E+03  1.02192E+04 -1.31612E+04  5.67972E+03 -1.35807E+04 -6.05130E+03
 -6.68476E+03 -1.44931E+04  5.25788E+03 -1.83217E+04  1.34103E+04 -1.05458E+04  1.53656E+04  1.82799E+03
  8.44213E+03  1.35026E+04 -1.71520E+03  1.42058E+04 -1.06793E+04  6.65735E+03 -1.04154E+04 -9.81336E+02
 -1.10583E+04 -1.03735E+04 -2.45773E+03 -1.12558E+04  5.79173E+03 -8.86256E+03  7.07449E+03 -3.55213E+03
  6.19080E+03  2.20604E+03 -1.34239E+03  1.77310E+02  5.50221E+01 -1.54357E+03  3.61406E+03 -7.15277E+03
  1.09810E+04 -4.04810E+03  1.57640E+04  9.46155E+02  1.57411E+04  1.07500E+04  9.74240E+03  1.88324E+04
 -3.39101E+03  2.12987E+04 -1.68209E+04  1.82547E+04 -2.41941E+04  2.70414E+03 -1.86002E+04 -9.12728E+03
 -1.03699E+04 -1.47981E+04 -6.04000E+02 -1.37433E+04  4.87031E+03 -9.22377E+03  4.37040E+03 -5.89053E+03
  3.22855E+03 -2.70386E+03  4.56904E+03 -3.51341E+03  5.44650E+03 -2.62957E+03  9.09086E+03 -1.58838E+03
  1.17331E+04  1.10082E+03  7.70682E+03  9.08782E+03 -1.88392E+03  1.09069E+04 -1.03730E+04  8.79347E+03
 -1.37565E+04 -2.34149E+03 -8.36157E+03 -9.14020E+03 -3.81763E+02 -1.48514E+04  7.48066E+03 -1.55262E+04
  1.72184E+04 -7.43038E+03  1.98851E+04  3.18287E+03  1.34095E+04  1.40205E+04  5.83055E+02  1.60259E+04
 -6.78688E+03  1.19883E+04 -1.06774E+04  2.80003E+03 -7.35254E+03 -2.19657E+03 -1.53215E+03 -1.39201E+03
 -1.10921E+03 -3.79012E+02 -2.71129E+03  1.71189E+03 -7.12528E+03  1.88879E+03 -9.00857E+03 -1.45116E+03
 -7.38412E+03 -8.87763E+03 -7.48256E+02 -1.38426E+04  8.53655E+03 -1.10467E+04  1.32708E+04 -3.48442E+03
  1.39312E+04  5.95007E+03  5.76598E+03  1.10302E+04 -2.03562E+03  1.34942E+04 -1.02810E+04  8.34667E+03
 -1.34237E+04  2.19189E+03 -1.08090E+04 -8.12968E+03  4.40952E+02 -9.59767E+03  5.84258E+03 -9.23757E+03
  7.48728E+03 -2.01493E+03  7.22236E+03  3.04907E+03  1.44352E+03  4.08331E+03  2.47541E+03  1.75638E+03
  2.24254E+03  2.52049E+02  2.17695E+03  2.55355E+03  4.88594E+03  3.71110E+03  3.15800E+03  7.67067E+03
 -1.42157E+03  1.16357E+04 -9.21586E+03  1.17479E+04 -1.46503E+04  4.84576E+03 -1.57227E+04 -5.01301E+03
 -7.89097E+03 -1.58260E+04  3.17132E+03 -1.57563E+04  6.78316E+03 -8.92623E+03  1.11135E+04 -2.08445E+03
  9.00217E+03  5.06570E+03  3.60752E+03  9.20509E+03 -2.68721E+03  5.17828E+03 -6.55318E+03 -5.38616E+02
 -3.27020E+03 -6.93948E+03  5.02073E+03 -6.35433E+03  6.22169E+03 -3.60981E+03  5.65961E+03  2.78530E+03
  4.26707E+03  3.57402E+03  4.77958E+02  2.10341E+03  2.84804E+02  2.80870E+03  2.70330E+03  1.39512E+03
  1.70756E+03 -1.70167E+03  6.16470E+03  2.50090E+03  3.03126E+03  8.70953E+03 -5.31423E+02  9.91853E+03
 -6.76765E+03  6.76013E+03 -9.27115E+03  3.14980E+03 -8.24566E+03 -4.50247E+03 -3.41883E+03 -4.89850E+03
  7.41441E+02 -6.14905E+03  4.19691E+03 -3.01685E+03  3.29086E+03  4.09218E+03 -1.65661E+03  5.49667E+03
 -5.35874E+03  1.13415E+03 -6.51087E+03 -4.85576E+03 -4.42828E+03 -8.03346E+03  2.10074E+03 -7.71837E+03
  5.33389E+03 -6.24971E+03  5.41362E+03 -9.68648E+02  5.47274E+03  8.33375E+02  9.76890E+02  4.70149E+03
 -3.50809E+03  1.76717E+03 -3.52645E+03 -8.02276E+02  6.36124E+02 -4.62129E+03  7.76450E+03 -7.10338E+03
  8.35293E+03  2.22362E+02  9.01310E+03  5.82378E+03  3.92555E+03  8.60419E+03 -3.11601E+03  7.19199E+03
 -6.92913E+03  3.30863E+03 -7.58670E+03 -1.08825E+02 -5.42563E+03 -5.66530E+03  2.89077E+03 -5.66988E+03
  3.63356E+03 -1.52516E+03  5.30203E+03  1.74210E+03  2.03218E+03  4.52243E+03 -2.16165E+03  4.64711E+03
 -2.62999E+03  3.50882E+03 -3.27751E+03  3.19954E+03 -1.32199E+03  2.12604E+02 -1.71321E+03  2.50829E+03
 -3.50820E+03  4.08590E+03 -6.82519E+03  4.07509E+03 -9.17114E+03  3.73760E+02 -1.06992E+04 -5.50291E+03
 -5.24394E+03 -1.29456E+04  3.33240E+03 -1.57018E+04  8.72610E+03 -1.20944E+04  1.38263E+04 -3.84264E+03
  1.28544E+04  2.84931E+03  6.31052E+03  8.92833E+03  1.00800E+03  9.23652E+03 -4.95967E+03  6.52100E+03
 -6.31089E+03  2.70958E+03 -3.80497E+03 -1.33906E+03 -1.93047E+03 -5.94263E+02  6.29049E+02 -1.18202E+03
 -1.90110E+03  1.52376E+03 -2.17367E+03 -3.97381E+02 -8.08501E+02 -3.69713E+03  9.39560E+02 -3.00759E+03
  6.03759E+03 -2.69300E+03  4.83479E+03 -4.94191E+02  5.90503E+03  4.39047E+03  2.22099E+03  9.57522E+03
 -5.18216E+03  1.00527E+04 -1.00653E+04  6.45333E+03 -1.17221E+04 -1.37202E+03 -7.39110E+03 -7.39109E+03
 -2.90461E+03 -9.84078E+03  3.03102E+03 -9.94616E+03  5.67166E+03 -4.72436E+03  6.14679E+03  1.96701E+02
  4.42194E+03  3.60509E+03  8.46915E+02  4.34526E+03 -1.35645E+03 -5.41420E+02 -3.65291E+02 -2.70723E+03
  3.33574E+03 -2.00884E+02  2.59948E+03  1.72219E+03  4.02956E+03  3.87959E+03 -8.16426E+01  6.05684E+03
 -4.70011E+03  4.20630E+03 -6.37041E+03  1.10893E+03 -6.44155E+03 -6.02148E+03 -1.12607E+03 -8.11933E+03
  5.05124E+03 -6.08124E+03  9.72879E+03 -2.47078E+03  7.25016E+03  1.79933E+03  4.96877E+03  7.38826E+03
  5.99884E+02  5.87393E+03 -2.88525E+03  4.70551E+03 -5.11402E+03  3.54167E+03 -4.34497E+03  3.48861E+02
 -2.15464E+03 -3.14630E+02 -2.97659E+03 -3.26633E+02 -4.82570E+03  4.33992E+02 -4.92005E+03 -8.75692E+02
 -5.27704E+03 -4.03415E+03 -1.99816E+03 -6.19410E+03  3.29258E+03 -6.31504E+03  5.55691E+03 -2.59089E+03
  6.00365E+03  1.52611E+03  2.70843E+03  4.97115E+03  2.38260E+02  5.63280E+03 -3.28477E+03  4.71929E+03
