 $NMID ID='MM_0lb_SNR200_16hz_g60_50.RAW', FMTDAT='(8E13.5)'
 TRAMP=1., VOLUME=1. $END
  3.09794E+05  1.10488E+03  3.37567E+05  2.50467E+05  8.46235E+04  3.38407E+05 -1.32945E+05  2.51544E+05
 -1.90459E+05  8.24321E+04 -1.12037E+05 -3.28099E+04  3.08913E+02 -5.04839E+04  5.39020E+04 -7.40935E+02
  3.57933E+04  5.15927E+04 -1.60951E+04  7.50792E+04 -6.05239E+04  6.39082E+04 -8.54223E+04  3.18661E+04
 -8.11407E+04 -1.18615E+04 -5.66671E+04 -5.18883E+04 -1.53089E+04 -7.03321E+04  2.81438E+04 -4.62875E+04
  4.06928E+04  4.99850E+03  1.69040E+04  4.83160E+04 -3.52026E+04  4.67439E+04 -6.74117E+04 -4.47782E+02
 -5.28336E+04 -5.72388E+04 -7.24569E+03 -7.63525E+04  3.31215E+04 -5.51676E+04  4.88078E+04 -1.76907E+04
  4.46690E+04  1.22862E+04  3.12621E+04  2.60617E+04  1.53772E+04  2.97086E+04 -5.60564E+03  2.77712E+04
 -2.17628E+04  1.26258E+04 -1.92939E+04 -4.91611E+03  5.11348E+03 -7.05204E+03  2.28331E+04  1.16707E+04
  7.03227E+03  3.51207E+04 -3.26032E+04  3.54867E+04 -6.28905E+04  2.62945E+03 -5.76297E+04 -4.23073E+04
 -1.39034E+04 -6.28653E+04  4.03963E+04 -4.47638E+04  5.83663E+04 -2.68760E+03  3.33577E+04  3.19895E+04
 -5.77387E+03  3.59557E+04 -3.03352E+04  1.60538E+04 -3.08172E+04 -3.35888E+03 -1.64948E+04 -1.06289E+04
 -8.12808E+03 -1.25345E+04 -1.43735E+03 -1.83588E+04  8.43377E+03 -2.29087E+04  1.69265E+04 -1.33276E+04
  1.03979E+04  4.92755E+03 -8.27331E+03  1.28923E+04 -2.18379E+04 -3.23594E+03 -8.96750E+03 -3.35116E+04
  2.34648E+04 -4.27784E+04  4.79656E+04 -1.95335E+04  4.44350E+04  2.00556E+04  1.59405E+04  4.33732E+04
 -1.47466E+04  3.28477E+04 -2.54663E+04  1.55058E+03 -8.66341E+03 -2.75536E+04  2.03999E+04 -3.39843E+04
  4.07940E+04 -9.53313E+03  3.63437E+04  2.40841E+04  1.83402E+04  4.70994E+04 -8.79533E+03  4.96427E+04
 -3.25565E+04  3.41165E+04 -4.22192E+04  9.63165E+03 -4.24309E+04 -1.71033E+04 -2.34820E+04 -3.87940E+04
  6.49905E+03 -3.61691E+04  3.14659E+04 -1.42277E+04  2.82284E+04  1.07232E+04  3.66415E+03  1.97499E+04
 -1.37474E+04  7.27913E+03 -1.10188E+04 -8.03682E+03  6.91446E+03 -1.04090E+04  1.82130E+04  4.95405E+03
  1.32513E+04  2.00884E+04 -5.38081E+03  2.63429E+04 -2.17725E+04  1.12508E+04 -2.76085E+04 -5.13487E+03
 -1.89371E+04 -1.75124E+04 -6.85348E+03 -2.12944E+04  3.18494E+03 -2.01430E+04  1.44247E+04 -1.82411E+04
  2.56218E+04 -1.29450E+04  3.29214E+04  2.70338E+03  2.32987E+04  1.88633E+04  3.57089E+03  3.67264E+04
 -1.76209E+04  2.97343E+04 -2.80297E+04  9.73804E+03 -2.04646E+04 -9.70823E+03 -4.09710E+03 -1.30199E+04
  2.93892E+03 -2.33039E+03 -5.16787E+03  6.65838E+03 -1.65307E+04  5.70186E+03 -1.71014E+04 -7.09473E+03
 -1.01026E+04 -1.84825E+04  5.59144E+03 -2.17902E+04  1.54275E+04 -1.61200E+04  1.76090E+04 -9.83836E+02
  1.10440E+04  1.35192E+04 -1.54101E+03  1.98098E+04 -1.31853E+04  1.00481E+04 -1.97716E+04 -3.32771E+03
 -1.38780E+04 -1.67545E+04 -2.10727E+03 -2.33987E+04  1.06858E+04 -1.78734E+04  1.80847E+04 -8.50410E+03
  1.76399E+04  3.13139E+02  1.27150E+04  5.61107E+03  6.64383E+03 -9.85708E+01  9.74148E+03 -1.53919E+03
  1.77833E+04  1.64737E+03  1.96251E+04  1.47426E+04  1.25716E+04  3.05621E+04 -4.48052E+03  3.32883E+04
 -1.88710E+04  2.64893E+04 -3.00517E+04  1.27638E+04 -3.17244E+04 -3.25178E+03 -2.74843E+04 -1.79759E+04
 -1.20349E+04 -2.66173E+04  9.16206E+03 -2.44886E+04  2.14255E+04 -1.19487E+04  1.88072E+04  5.62144E+03
  8.37906E+03  1.38594E+04 -9.58479E+03  1.30893E+04 -1.49428E+04  3.18786E+03 -1.15970E+04 -1.10504E+04
 -9.19323E+02 -1.46968E+04  7.24385E+03 -1.00825E+04  9.82693E+03 -1.23368E+03  2.36182E+03  6.16920E+03
 -6.39727E+03  2.03543E+03 -5.85447E+03 -4.46794E+03  4.87686E+02 -1.25533E+04  9.55423E+03 -1.29329E+04
  1.51872E+04 -7.32988E+03  1.66267E+04  3.23454E+03  1.42791E+04  1.27910E+04  7.72538E+03  1.90560E+04
 -3.02226E+03  2.14260E+04 -1.38829E+04  1.30762E+04 -1.50997E+04  4.32176E+03 -9.57909E+03 -2.74404E+03
 -5.67180E+03 -4.20858E+03 -1.27970E+03  8.30670E+02 -2.64416E+03  2.47193E+03 -4.91999E+03  3.87251E+03
 -9.30114E+03 -7.31182E+02 -1.11004E+04 -8.84997E+03 -4.83001E+03 -1.41098E+04  4.14460E+03 -1.04665E+04
  9.09722E+03 -3.81429E+03  6.79477E+03  2.69735E+03  4.84330E+02  3.89487E+03 -5.86726E+03 -1.20083E+03
 -3.73744E+03 -7.27547E+03  7.81217E+02 -1.01056E+04  4.92403E+03 -1.03351E+04  1.23791E+04 -4.65440E+03
  1.43259E+04  1.77836E+03  1.04398E+04  7.17189E+03  2.18129E+03  1.12562E+04 -7.40285E+03  1.24197E+04
 -8.72547E+03  2.77700E+03 -3.98350E+03 -1.70832E+03  9.84135E+02 -3.09846E+03  5.97221E+03 -1.37662E+03
  5.77084E+03  4.67203E+03  9.18391E+02  9.05789E+03 -4.98998E+03  9.25535E+03 -8.82495E+03  2.81290E+03
 -6.70514E+03 -3.87376E+03  1.10677E+03 -1.02492E+04  5.33427E+03 -4.51618E+03  5.99675E+03  1.89874E+03
  4.75600E+02  4.19778E+03 -5.38965E+03  6.33306E+03 -6.29278E+03  3.79983E+03 -6.67934E+03 -2.47621E+03
 -4.66124E+03 -9.31968E+03  1.24816E+03 -1.11237E+04  9.41037E+03 -5.55673E+03  1.03307E+04  1.64336E+03
  5.99359E+03  8.81072E+03 -2.83424E+02  1.06433E+04 -5.75800E+03  5.70689E+03 -7.58368E+03 -1.56439E+03
 -7.12006E+03 -6.50030E+03 -1.10007E+03 -7.69827E+03  3.93421E+03 -6.11038E+03  3.94325E+03 -2.34111E+03
  3.28172E+03  8.81854E+02  2.32550E+02  2.09712E+03  4.40800E+02 -7.54533E+02  2.70232E+02 -4.19678E+03
  5.87719E+03 -1.83793E+03  7.54846E+03  1.55865E+03  8.04740E+03  6.08753E+03  6.29021E+03  1.00911E+04
 -2.83922E+03  1.25876E+04 -1.01772E+04  8.54221E+03 -1.32823E+04  1.09639E+03 -1.08495E+04 -5.21449E+03
 -5.82387E+03 -9.56499E+03  6.33582E+02 -7.33601E+03  2.68635E+03 -4.37916E+03  1.39295E+03 -1.54892E+03
  2.24818E+03 -2.16157E+03  2.81290E+03 -2.56668E+03  3.47111E+03 -2.31176E+03  4.70708E+03 -9.70598E+01
  5.92513E+03  5.71439E+02  2.95058E+03  4.73751E+03 -2.28493E+03  6.36219E+03 -6.00976E+03  4.71074E+03
 -5.41326E+03 -1.71934E+03 -4.57132E+03 -4.61763E+03 -5.31245E+02 -7.09279E+03  4.22711E+03 -8.19719E+03
  7.56200E+03 -4.83124E+03  8.64226E+03 -6.48329E+02  7.13820E+03  6.58452E+03  1.34257E+03  8.05708E+03
 -3.20011E+03  7.92908E+03 -5.88071E+03  3.54913E+03 -2.23849E+03 -1.40141E+03 -5.89489E+02 -2.03609E+03
 -1.05307E+03  7.05670E+02 -8.84019E+02  3.18724E+03 -2.59077E+03  1.59017E+03 -5.25706E+03 -2.20179E+02
 -3.99525E+03 -6.85946E+03 -3.84529E+02 -6.59621E+03  4.86178E+03 -6.08866E+03  6.10341E+03 -1.95933E+03
  7.76305E+03  2.04831E+03  3.28995E+03  5.93843E+03 -1.08825E+03  7.18084E+03 -3.57589E+03  4.54620E+03
 -4.93498E+03  1.22138E+03 -4.05962E+03 -4.37178E+03 -3.32981E+02 -6.34480E+03  1.85245E+03 -3.68630E+03
  4.60101E+03 -2.13355E+03  3.15465E+03  9.24810E+02  5.94332E+02  1.11129E+03  4.42140E+02  5.14079E+02
  2.10932E+03  6.61598E+02  1.69418E+03  2.75601E+02  2.01525E+03  1.87898E+03  2.05350E+03  2.95047E+03
 -1.51081E+03  4.95914E+03 -3.96977E+03  4.64488E+03 -4.69409E+03  1.61414E+03 -5.95554E+03 -4.77656E+02
 -3.26252E+03 -6.14386E+03  2.46441E+02 -7.32567E+03  3.60455E+03 -4.72389E+03  5.09731E+03 -9.27640E+02
  2.40145E+03  2.70591E+03  1.11297E+03  2.50980E+03 -2.55377E+03  1.14314E+03 -1.55608E+03 -5.95751E+02
 -1.22247E+03 -2.90647E+03  1.83449E+03 -1.09986E+03  1.84454E+03 -1.83915E+03  1.84267E+03  7.19362E+02
  1.25945E+03  1.36688E+03  5.50871E+02  4.37661E+02  5.27073E+02 -2.79329E+01  1.45997E+03 -1.56792E+02
  7.75036E+02 -9.11222E+02  2.72239E+03  6.90459E+02  5.50479E+02  2.91047E+03 -9.97194E+02  3.91426E+03
 -2.65459E+03  2.04004E+03 -3.13825E+03  4.89716E+02 -3.47103E+03 -5.64094E+02 -1.48246E+03 -2.32893E+03
  6.61165E+02 -2.13581E+03  1.63970E+03 -1.71872E+03  1.38627E+03  2.81785E+03 -1.99240E+02  1.77288E+03
 -2.18283E+03  3.06320E+03 -2.51336E+03 -1.63816E+03 -1.30786E+03 -2.29641E+03  1.68040E+03 -3.01981E+03
  8.57663E+01 -9.06799E+02  1.39724E+03 -1.64143E+02  2.64227E+03  4.34426E+02  1.04487E+03  1.50288E+03
 -2.56016E+02  1.25453E+03 -9.49854E+02 -1.74158E+02  7.21137E+02 -5.30743E+02  2.68010E+03 -2.34434E+03
  2.94796E+03  7.75603E+02  3.38934E+03  2.06942E+03  1.64682E+03  3.42862E+03  1.89440E+02  3.53898E+03
 -1.83077E+03  5.80823E+02 -2.11119E+03 -1.62753E+02 -1.92413E+03 -1.79502E+03  1.05037E+03 -1.09520E+03
  2.91838E+03 -1.04036E+03  1.59263E+03  1.63914E+03  1.56675E+03  1.24570E+03  1.26416E+03  2.51472E+03
 -1.24984E+03  7.68572E+02 -1.88311E+02  6.96169E+02  9.05162E+02  9.70018E+02 -1.14092E+03  2.20721E+02
 -9.13221E+02  1.52189E+03 -1.44627E+03  5.13994E+02 -3.58222E+03 -6.46380E+02 -4.55027E+03 -1.99840E+03
 -1.39065E+03 -4.38987E+03 -2.32671E+02 -4.19108E+03  1.39273E+03 -2.91257E+03  3.65262E+03 -5.65944E+02
  4.73998E+03 -3.25291E+01  2.57755E+03  1.23469E+03 -3.93261E+02  2.06770E+03 -5.98440E+02  1.99958E+03
 -1.26227E+03  1.74191E+03 -9.41301E+01 -5.10979E+02 -6.37395E+02  1.45080E+02 -5.89780E+02  4.55838E+01
 -2.11288E+03  8.42487E+01 -1.74983E+03  2.98033E+02 -1.19942E+02 -9.56339E+02  7.43112E+02 -8.20908E+02
  1.57063E+03 -6.86762E+02  1.26469E+03  1.61954E+02  1.34473E+03  2.25130E+03 -1.09564E+02  1.79908E+03
 -3.21693E+02  3.45677E+03 -2.73108E+03  1.98907E+03 -3.36085E+03 -1.24192E+03 -2.49579E+03 -1.83320E+03
 -4.17207E+02 -3.00113E+03  8.65286E+02 -1.17733E+03  1.24456E+03 -1.19619E+03  2.14337E+03  6.30877E+02
  1.58386E+03  6.38671E+01  1.57679E+02  4.68815E+01 -1.04821E+02 -2.72045E+01  4.77220E+02 -1.61099E+03
  1.38135E+03  8.38282E+02  7.31155E+02  2.05995E+03 -6.04554E+02  2.45103E+03  1.15732E+03  1.13071E+03
  1.78691E+02  1.21032E+03 -1.47905E+03 -2.41456E+02 -1.98172E+03 -2.07589E+02 -5.07476E+02 -3.25728E+03
  6.30339E+02 -1.73154E+03  2.54193E+03  7.05318E+02  2.33904E+03 -2.07529E+02  9.53580E+01  5.26315E+02
  3.88109E+02  6.36208E+02 -1.61044E+03  1.37662E+03 -8.15284E+02  1.00754E+03 -5.79735E+02 -1.48832E+02
 -3.49695E+02  3.64957E+02 -1.54396E+03  2.82007E+02 -6.39183E+02  4.51924E+02 -1.03572E+02 -6.18899E+02
 -1.20837E+03 -4.62370E+02 -1.45005E+03 -1.03841E+03 -4.76907E+01 -1.09084E+03  1.62600E+03 -8.89694E+02
  9.22353E+02  1.02193E+03  5.67400E+02  8.21262E+02  8.70575E+02  4.64914E+02 -3.92830E+02  1.63175E+03
