 $NMID ID='MM_0lb_SNR200_12hz_g45_80.RAW', FMTDAT='(8E13.5)'
 TRAMP=1., VOLUME=1. $END
  3.10373E+05  3.98002E+02  3.38447E+05  2.50202E+05  8.47019E+04  3.37474E+05 -1.32846E+05  2.51176E+05
 -1.90493E+05  8.37230E+04 -1.11122E+05 -3.30388E+04 -1.10083E+02 -5.05767E+04  5.30588E+04 -3.76982E+02
  3.44903E+04  5.23119E+04 -1.73285E+04  7.58143E+04 -6.01956E+04  6.40711E+04 -8.45477E+04  3.23061E+04
 -8.17694E+04 -1.11758E+04 -5.78566E+04 -5.18541E+04 -1.44148E+04 -7.01927E+04  2.80204E+04 -4.67767E+04
  4.09119E+04  4.44035E+03  1.65738E+04  4.95949E+04 -3.49601E+04  4.84735E+04 -6.89370E+04 -2.26598E+02
 -5.45084E+04 -5.63473E+04 -6.30449E+03 -7.75048E+04  3.42803E+04 -5.71661E+04  4.86532E+04 -1.85394E+04
  4.36908E+04  1.21275E+04  3.22622E+04  2.56239E+04  1.65324E+04  2.96800E+04 -5.09331E+03  2.65639E+04
 -2.14458E+04  1.13460E+04 -1.84406E+04 -5.35281E+03  5.87544E+03 -7.40572E+03  2.30133E+04  1.26919E+04
  8.00163E+03  3.51173E+04 -3.08967E+04  3.62802E+04 -6.34818E+04  1.55171E+03 -5.69798E+04 -4.22903E+04
 -1.26250E+04 -6.49855E+04  4.04187E+04 -4.63407E+04  5.83894E+04 -2.94156E+03  3.62495E+04  3.24102E+04
 -6.56352E+03  3.71403E+04 -2.99692E+04  1.76604E+04 -3.09197E+04 -3.57779E+03 -1.74664E+04 -1.15262E+04
 -8.54405E+03 -1.40860E+04 -1.98821E+02 -1.88234E+04  6.67026E+03 -2.28709E+04  1.66915E+04 -1.30502E+04
  1.19176E+04  5.16408E+03 -7.38302E+03  1.33609E+04 -2.25090E+04 -4.05430E+03 -7.22393E+03 -3.45487E+04
  2.29571E+04 -4.43392E+04  5.00611E+04 -1.97945E+04  4.63732E+04  1.85151E+04  1.62698E+04  4.43688E+04
 -1.60340E+04  3.51633E+04 -2.62958E+04  2.18300E+03 -1.04843E+04 -2.84471E+04  2.00524E+04 -3.38806E+04
  4.13140E+04 -9.36972E+03  3.60770E+04  2.48215E+04  1.84605E+04  4.83987E+04 -7.78070E+03  5.24786E+04
 -3.09973E+04  3.42712E+04 -4.31819E+04  1.07265E+04 -4.43091E+04 -1.76711E+04 -2.42557E+04 -3.99897E+04
  8.97145E+03 -3.90349E+04  3.19573E+04 -1.51849E+04  2.96218E+04  1.09641E+04  3.99158E+03  2.08408E+04
 -1.38301E+04  8.42406E+03 -1.18642E+04 -6.86309E+03  5.85761E+03 -1.11748E+04  1.80152E+04  7.07571E+03
  1.38115E+04  2.24321E+04 -5.08621E+03  2.58782E+04 -2.36497E+04  1.24351E+04 -2.80990E+04 -3.60267E+03
 -2.16518E+04 -1.81057E+04 -9.65512E+03 -2.07806E+04  4.65853E+03 -2.14063E+04  1.74730E+04 -1.98856E+04
  2.78824E+04 -1.28495E+04  3.40648E+04  3.97991E+03  2.46158E+04  2.18248E+04  5.22084E+03  3.65903E+04
 -1.94813E+04  3.25815E+04 -2.95916E+04  1.14642E+04 -2.07941E+04 -9.68509E+03 -4.10340E+03 -1.27631E+04
  8.20431E+02 -1.88052E+03 -5.33533E+03  6.57441E+03 -1.76140E+04  5.12531E+03 -1.74381E+04 -7.85831E+03
 -9.66840E+03 -1.95788E+04  3.98209E+03 -2.45294E+04  1.66056E+04 -1.76502E+04  1.94249E+04 -2.20760E+03
  1.25848E+04  1.42758E+04 -1.01043E+03  2.10552E+04 -1.46588E+04  1.09505E+04 -1.99136E+04 -4.34672E+03
 -1.50958E+04 -1.84955E+04 -1.71051E+03 -2.60731E+04  1.19334E+04 -2.11043E+04  2.13223E+04 -1.01121E+04
  1.88850E+04  1.03434E+03  1.51020E+04  3.93954E+03  6.50222E+03  1.48090E+03  9.77137E+03 -2.32334E+03
  1.90882E+04  2.65676E+03  2.26881E+04  1.61753E+04  1.49972E+04  3.30635E+04 -2.95111E+03  3.74274E+04
 -2.04814E+04  2.97458E+04 -3.47049E+04  1.54646E+04 -3.64822E+04 -3.57579E+03 -2.98118E+04 -2.28853E+04
 -1.20392E+04 -2.94783E+04  1.09962E+04 -2.69450E+04  2.35698E+04 -1.26932E+04  2.14701E+04  5.49294E+03
  8.31211E+03  1.58457E+04 -9.12400E+03  1.23900E+04 -1.69028E+04  2.68751E+03 -1.30925E+04 -1.15369E+04
 -4.99129E+02 -1.64554E+04  8.72830E+03 -1.24101E+04  1.18589E+04 -2.03401E+01  2.61399E+03  7.81558E+03
 -6.65037E+03  2.16056E+03 -7.68785E+03 -5.53737E+03 -6.99651E+02 -1.53703E+04  1.13973E+04 -1.45876E+04
  1.82419E+04 -8.63678E+03  2.06162E+04  3.47622E+03  1.72314E+04  1.57582E+04  1.00879E+04  2.28152E+04
 -4.49095E+03  2.51679E+04 -1.71960E+04  1.54292E+04 -1.77170E+04  3.29642E+03 -1.12213E+04 -4.90487E+03
 -5.64670E+03 -5.55629E+03  8.63066E+02  1.01939E+03 -2.98243E+03  4.22881E+03 -5.89017E+03  6.34884E+03
 -1.21811E+04 -7.69360E+02 -1.10857E+04 -8.69628E+03 -4.30837E+03 -1.64707E+04  5.56107E+03 -1.36581E+04
  9.20562E+03 -6.18821E+03  7.41496E+03  3.46032E+03 -3.49427E+02  6.65874E+03 -6.31679E+03 -1.59125E+03
 -5.75635E+03 -7.81205E+03 -1.19750E+03 -1.28471E+04  7.24869E+03 -1.27250E+04  1.52640E+04 -6.69064E+03
  1.98741E+04  2.07298E+03  1.50586E+04  9.94873E+03  1.10815E+03  1.48457E+04 -7.19005E+03  1.44898E+04
 -1.03734E+04  3.69178E+03 -5.52662E+03 -6.09719E+02  2.59494E+03 -3.54577E+03  6.72532E+03 -1.66677E+03
  7.31268E+03  5.46577E+03  1.29965E+03  9.60040E+03 -7.03310E+03  8.19973E+03 -1.13969E+04  3.03806E+03
 -8.46698E+03 -6.46870E+03 -3.03774E+02 -1.00817E+04  6.69231E+03 -5.23843E+03  5.32832E+03  2.98374E+03
  2.19075E+03  6.67313E+03 -6.59449E+03  8.85240E+03 -9.66951E+03  3.99937E+03 -1.09849E+04 -2.57490E+03
 -6.39152E+03 -1.12796E+04  2.43695E+03 -1.32113E+04  1.08749E+04 -8.50036E+03  1.28578E+04  1.09503E+03
  8.13344E+03  9.54308E+03 -7.57054E+02  1.18385E+04 -8.87822E+03  6.66354E+03 -9.53030E+03  1.05138E+03
 -8.42009E+03 -7.56771E+03 -2.00297E+03 -8.50015E+03  5.91001E+03 -7.08150E+03  6.17627E+03 -3.09851E+03
  4.58301E+03  1.10887E+03 -1.16412E+03  2.35265E+03 -1.16139E+03 -1.63405E+03  1.59022E+03 -5.55142E+03
  8.92222E+03 -3.80406E+03  1.10979E+04  8.57442E+02  1.20895E+04  8.06404E+03  8.14191E+03  1.56394E+04
 -3.78571E+03  1.74820E+04 -1.40987E+04  1.26975E+04 -1.78405E+04  1.96747E+03 -1.41514E+04 -6.39410E+03
 -7.59183E+03 -1.17818E+04  1.91192E+02 -1.01071E+04  4.88973E+03 -5.61846E+03  3.83996E+03 -3.63844E+03
  3.82494E+03 -2.56414E+03  2.32527E+03 -3.21623E+03  4.07208E+03 -1.88700E+03  4.87181E+03 -1.03559E+03
  8.46951E+03  2.17693E+03  4.25751E+03  7.24824E+03 -1.73977E+03  6.98576E+03 -7.79646E+03  5.70270E+03
 -1.13199E+04 -8.08327E+02 -6.42331E+03 -6.88606E+03 -1.05814E+03 -1.19884E+04  6.02419E+03 -1.06461E+04
  1.05236E+04 -5.26017E+03  1.37318E+04  6.90441E+02  9.85938E+03  8.74387E+03  1.32103E+03  1.27070E+04
 -6.99259E+03  1.09878E+04 -7.83663E+03  3.63457E+03 -3.52998E+03 -1.67874E+03 -1.52997E+03 -1.84641E+03
 -1.35973E+03 -1.60586E+03 -1.41796E+03  2.80497E+03 -3.89506E+03  2.48146E+03 -7.35646E+03 -1.82616E+03
 -4.27715E+03 -7.80646E+03  3.09272E+02 -1.15033E+04  6.10041E+03 -9.13863E+03  9.66459E+03 -1.58001E+03
  9.02348E+03  4.64482E+03  4.98448E+03  8.63438E+03 -1.83469E+03  9.37704E+03 -7.58018E+03  5.13930E+03
 -8.68248E+03  4.64719E+02 -6.76170E+03 -5.77977E+03 -7.37243E+02 -8.55079E+03  4.51570E+03 -4.99818E+03
  6.79816E+03 -2.90580E+03  4.01431E+03  1.56160E+03  1.87892E+03  3.34162E+03  2.31237E+03  5.44774E+02
  2.59984E+03  8.55471E+01  2.05680E+03  1.67312E+03  3.51197E+03  4.10994E+03  4.31604E+03  6.35381E+03
 -2.12772E+03  7.61698E+03 -7.09385E+03  7.32561E+03 -9.83168E+03  1.28033E+03 -1.03173E+04 -3.56200E+03
 -5.81441E+03 -9.43372E+03  2.83909E+03 -1.05364E+04  7.08959E+03 -7.97176E+03  8.62154E+03 -1.43947E+03
  7.59306E+03  3.29071E+03  6.34071E+02  4.85682E+03 -2.76800E+03  2.87668E+03 -4.14808E+03 -2.91998E+02
 -1.77566E+03 -4.63034E+03  1.51876E+03 -4.15156E+03  4.30734E+03 -1.12349E+03  3.97934E+03  2.05400E+03
  2.21225E+03  2.96280E+03  3.79563E+02  5.01650E+02 -1.09269E+03  2.90423E+03  5.31235E+02  1.70113E+02
  1.58004E+03 -6.18545E+02  3.57881E+03  1.82581E+03  1.83848E+03  6.14911E+03 -6.67793E+02  8.12863E+03
 -2.56904E+03  3.98123E+03 -5.95704E+03  2.55314E+03 -5.06819E+03 -9.25916E+02 -1.08248E+03 -2.31785E+03
  9.29945E+02 -2.92627E+03  2.16379E+03 -2.25634E+03  2.51024E+03  3.53255E+03 -1.58781E+03  2.77504E+03
 -4.01026E+03  1.96514E+03 -3.78828E+03 -1.36347E+03 -2.30612E+03 -5.74867E+03  1.27740E+03 -4.96124E+03
  3.04376E+03 -2.15243E+03  3.63868E+03 -1.29734E+02  2.07197E+03  1.34783E+03 -2.49986E+02  1.98144E+03
 -1.93957E+03 -4.16676E+02 -3.54784E+03 -1.92585E+03  5.93868E+02 -4.54673E+03  4.75719E+03 -3.98024E+03
  4.66440E+03  6.56587E+02  6.27491E+03  4.03054E+03  1.69608E+03  6.57894E+03 -1.67176E+03  6.93019E+03
 -5.17603E+03  3.13132E+03 -4.57773E+03 -9.36776E+02 -2.84385E+03 -6.26697E+03  1.80441E+03 -3.10514E+03
  4.24802E+03 -2.57284E+03  3.65512E+03  1.50057E+03  1.56065E+03  2.65162E+03 -1.34106E+02  2.98801E+03
 -1.75640E+03  2.23282E+03 -2.26877E+03  6.31447E+02 -4.00742E+02  1.16479E+03 -7.62654E+02  2.20841E+03
 -2.46458E+03  2.09583E+03 -4.40108E+03  2.93355E+03 -6.37711E+03 -2.15833E+02 -6.16740E+03 -3.73069E+03
 -3.34849E+03 -9.49815E+03  1.69838E+03 -8.36131E+03  5.49858E+03 -7.13791E+03  8.43134E+03 -2.60799E+03
  8.61385E+03  1.71542E+03  3.70565E+03  4.32284E+03  6.57046E+02  5.54826E+03 -2.34425E+03  3.34473E+03
 -3.13044E+03  9.52554E+02 -2.07653E+03 -3.82115E+02  4.36145E+00  1.73895E+02 -8.23332E+02  7.05447E+02
 -2.02401E+03 -9.55407E+02 -2.39207E+02  6.38869E+02 -1.64054E+02 -2.48489E+03 -4.35886E+01 -2.75676E+03
  4.35152E+03 -3.02346E+03  3.31656E+03 -7.61862E+01  4.37880E+03  2.68389E+03  1.18850E+03  6.26623E+03
 -3.30445E+03  6.22201E+03 -6.04407E+03  3.50464E+03 -6.94732E+03 -3.15971E+02 -5.13046E+03 -4.74980E+03
 -3.01535E+03 -6.27690E+03  1.90046E+03 -5.42424E+03  3.30372E+03 -3.04506E+03  3.68314E+03  2.12265E+03
  2.74919E+03  3.13043E+03 -3.34158E+02  1.24117E+03 -1.63012E+03  6.55021E+02  1.00610E+02 -2.67410E+03
  1.92645E+03 -3.67089E+02  1.76212E+03  1.67013E+03  1.37693E+03  2.71146E+03  6.26864E+02  2.68879E+03
 -1.33330E+03  1.76475E+03 -2.73383E+03 -4.13661E+02 -1.71119E+03 -2.77626E+03 -7.10221E+02 -5.28289E+03
  3.52766E+03 -4.58280E+03  3.86396E+03  2.79798E+02  4.17534E+03  7.71975E+02  3.17601E+03  4.31200E+03
  1.10394E+03  3.80001E+03 -1.16991E+03  2.20111E+03 -2.68893E+03  5.18037E+02 -3.52082E+03 -6.72791E+02
 -1.75595E+03 -2.72754E+02 -1.47313E+03  1.45726E+03 -2.39598E+03  1.19677E+03 -2.99736E+03 -1.02099E+03
 -4.20727E+03 -1.91502E+03  3.71270E+02 -4.09705E+03  1.74860E+03 -4.78431E+03  3.52036E+03 -2.75548E+03
  3.79017E+03 -3.25996E+01  1.42283E+03  3.28181E+03 -4.97628E+02  3.30064E+03 -3.39333E+03  2.23503E+03
