 $NMID ID='MM_0lb_SNR200_20hz_g60_50.RAW', FMTDAT='(8E13.5)'
 TRAMP=1., VOLUME=1. $END
  3.09876E+05  1.76971E+02  3.37084E+05  2.50040E+05  8.46083E+04  3.37924E+05 -1.33212E+05  2.50417E+05
 -1.88451E+05  8.30903E+04 -1.10182E+05 -3.22889E+04  9.95869E+02 -5.05607E+04  5.40829E+04 -3.91996E+02
  3.42253E+04  5.28030E+04 -1.66907E+04  7.49651E+04 -6.10122E+04  6.19714E+04 -8.31663E+04  3.09851E+04
 -7.99901E+04 -1.20579E+04 -5.67614E+04 -4.99156E+04 -1.56419E+04 -6.85399E+04  2.70023E+04 -4.56206E+04
  3.86943E+04  3.92662E+03  1.59148E+04  4.68595E+04 -3.42119E+04  4.59211E+04 -6.58033E+04 -5.28186E+02
 -5.25532E+04 -5.61343E+04 -6.03894E+03 -7.61043E+04  3.29337E+04 -5.31758E+04  4.68234E+04 -1.70863E+04
  4.24831E+04  1.10377E+04  3.04423E+04  2.51812E+04  1.61331E+04  2.90208E+04 -4.59804E+03  2.70295E+04
 -2.18823E+04  1.14711E+04 -1.94309E+04 -3.82703E+03  4.08844E+03 -6.74801E+03  2.15915E+04  1.11039E+04
  8.00089E+03  3.34255E+04 -3.08959E+04  3.48702E+04 -6.18382E+04  2.14002E+03 -5.53422E+04 -4.20033E+04
 -1.25440E+04 -6.20296E+04  3.80954E+04 -4.44437E+04  5.60436E+04 -1.25319E+03  3.23242E+04  3.08776E+04
 -6.07451E+03  3.45471E+04 -2.88245E+04  1.47010E+04 -2.86309E+04 -5.48211E+03 -1.39928E+04 -1.07312E+04
 -7.99200E+03 -1.05806E+04 -1.55085E+03 -1.71094E+04  7.45883E+03 -2.21483E+04  1.55575E+04 -1.49597E+04
  1.26101E+04  3.69766E+03 -6.96350E+03  1.35711E+04 -2.05534E+04 -4.16608E+03 -9.14909E+03 -3.04010E+04
  2.21702E+04 -4.10747E+04  4.57343E+04 -1.82086E+04  4.23070E+04  1.89123E+04  1.48726E+04  4.20195E+04
 -1.46540E+04  3.23207E+04 -2.31622E+04  1.88770E+03 -8.00798E+03 -2.60451E+04  2.05459E+04 -3.19336E+04
  3.94148E+04 -8.10287E+03  3.21545E+04  2.39389E+04  1.56566E+04  4.42499E+04 -8.14000E+03  4.61793E+04
 -2.93773E+04  3.03282E+04 -3.82977E+04  8.51157E+03 -3.88938E+04 -1.53676E+04 -2.20185E+04 -3.50747E+04
  6.86972E+03 -3.48111E+04  2.93400E+04 -1.31988E+04  2.79507E+04  1.16094E+04  3.64266E+03  1.89127E+04
 -1.34392E+04  7.38892E+03 -1.00450E+04 -7.17252E+03  5.94511E+03 -1.02718E+04  1.67511E+04  5.15091E+03
  1.23753E+04  2.22702E+04 -6.56650E+03  2.43027E+04 -2.28456E+04  8.68938E+03 -2.57065E+04 -5.58794E+03
 -1.67219E+04 -1.63136E+04 -5.88305E+03 -1.68034E+04  4.62494E+03 -1.51445E+04  1.34743E+04 -1.50340E+04
  2.24239E+04 -1.09856E+04  2.87549E+04  2.16923E+03  2.09592E+04  1.68526E+04  3.87928E+03  3.25369E+04
 -1.58256E+04  2.87982E+04 -2.53865E+04  9.11715E+03 -1.98430E+04 -1.00008E+04 -4.75030E+03 -1.37426E+04
  2.54131E+03 -4.47614E+03 -2.36788E+03  5.68028E+03 -1.35970E+04  4.29745E+03 -1.30656E+04 -4.43989E+03
 -8.76838E+03 -1.62422E+04  4.59147E+03 -2.03912E+04  1.26554E+04 -1.49331E+04  1.51719E+04 -1.34536E+03
  9.79702E+03  1.09809E+04 -1.70400E+03  1.59328E+04 -1.17704E+04  8.43679E+03 -1.51803E+04 -3.97121E+03
 -1.22386E+04 -1.52494E+04 -5.34456E+02 -2.02304E+04  9.24109E+03 -1.56762E+04  1.61505E+04 -7.09098E+03
  1.50404E+04  1.43608E+03  1.04430E+04  3.95272E+03  5.16398E+03  6.39168E+02  7.67955E+03 -2.11464E+03
  1.44904E+04  2.26209E+03  1.55565E+04  1.25051E+04  8.40219E+03  2.50091E+04 -3.48849E+03  2.72768E+04
 -1.62786E+04  2.07073E+04 -2.40952E+04  9.59678E+03 -2.54541E+04 -1.69117E+03 -2.17406E+04 -1.36645E+04
 -1.01831E+04 -2.01054E+04  7.36296E+03 -1.99620E+04  1.65020E+04 -1.17056E+04  1.60637E+04  3.64268E+03
  6.36462E+03  1.17970E+04 -8.05312E+03  1.09084E+04 -1.22812E+04  3.82852E+03 -1.14522E+04 -7.98261E+03
 -1.63766E+03 -1.19981E+04  6.19271E+03 -1.04866E+04  8.53857E+03 -1.11756E+03  7.27873E+02  4.99148E+03
 -5.13942E+03  6.69071E+02 -3.11825E+03 -4.49581E+03  7.97360E+02 -9.87119E+03  8.47086E+03 -1.00372E+04
  1.16801E+04 -4.33531E+03  1.18031E+04  2.03834E+03  9.88804E+03  9.25881E+03  4.19800E+03  1.39450E+04
 -2.18904E+03  1.61241E+04 -9.05458E+03  9.98675E+03 -1.03436E+04  2.75790E+03 -7.73117E+03 -1.09709E+03
 -4.30303E+03 -3.29783E+03 -8.71291E+02  9.71056E+02 -1.80525E+03  2.35279E+03 -4.06252E+03  3.98995E+03
 -8.63230E+03 -7.07260E+02 -9.05752E+03 -7.71903E+03 -4.65342E+03 -1.14554E+04  4.46085E+03 -8.56935E+03
  7.37837E+03 -3.80386E+03  5.71913E+03  2.07562E+03  1.15908E+03  2.29480E+03 -3.17654E+03 -8.21835E+02
 -3.38306E+03 -4.45721E+03 -1.10068E+03 -8.16826E+03  4.33310E+03 -7.49602E+03  8.90539E+03 -3.97258E+03
  1.13217E+04  3.15794E+02  8.47730E+03  4.57137E+03  2.47406E+03  8.23510E+03 -4.58511E+03  8.41125E+03
 -6.99672E+03  1.89451E+03 -3.01796E+03 -1.31572E+03  1.38636E+03 -2.30493E+03  5.18900E+03 -1.44626E+03
  4.34341E+03  4.70837E+03  9.44317E+02  6.93593E+03 -4.46514E+03  6.21998E+03 -8.43182E+03  2.45533E+03
 -4.11855E+03 -3.68251E+03 -1.64384E+02 -7.13973E+03  3.29521E+03 -2.00639E+03  2.39360E+03 -6.49861E+02
  3.69794E+01  2.84087E+03 -3.96921E+03  4.77520E+03 -4.30930E+03  3.49736E+03 -4.41967E+03 -1.35874E+03
 -2.36756E+03 -5.71629E+03  1.03622E+03 -6.92511E+03  5.50370E+03 -3.69043E+03  6.07310E+03  1.31599E+03
  5.28736E+03  4.80338E+03  5.57537E+02  7.02163E+03 -5.15998E+03  4.23044E+03 -4.53720E+03 -4.30173E+02
 -5.88095E+03 -5.03761E+03 -3.39685E+02 -4.91017E+03  2.87386E+03 -4.38407E+03  2.57312E+03 -2.63664E+03
  2.14734E+03  8.66379E+02 -4.60232E+02  2.95279E+01  8.61239E+02 -1.32504E+02 -2.57421E+02 -1.86357E+03
  3.09130E+03 -7.29097E+02  5.35877E+03  1.45847E+03  5.08936E+03  2.58066E+03  5.18406E+03  6.59745E+03
 -1.28328E+02  7.73655E+03 -6.43375E+03  7.25989E+03 -8.65000E+03  1.21728E+03 -7.73353E+03 -1.19720E+03
 -3.39193E+03 -6.21932E+03 -7.31611E+02 -4.74745E+03  2.78756E+03 -1.36086E+03  1.68196E+03 -1.13849E+03
  1.64623E+03 -8.94953E+02  1.85360E+03 -1.37525E+03  3.57349E+03 -1.16178E+03  3.96494E+03  1.04232E+03
  4.62120E+03  1.90458E+03  4.10022E+02  2.23163E+03 -1.69266E+03  2.85973E+03 -4.22072E+03  2.71195E+03
 -4.18828E+03 -2.07680E+03 -1.43221E+03 -2.84261E+03  4.81965E+02 -4.78723E+03  2.81979E+03 -4.40533E+03
  4.80093E+03 -2.54638E+03  5.60515E+03  1.37365E+03  3.98810E+03  4.65611E+03  5.92167E+02  6.04498E+03
 -2.57074E+03  5.39161E+03 -2.53608E+03  2.87806E+03 -7.27123E+02 -1.69942E+03  3.77758E+02 -3.33380E+01
 -2.86992E+02 -1.44118E+02 -1.07300E+03  1.99090E+03 -2.95434E+03  1.24732E+03 -2.75198E+03 -7.87900E+02
 -1.98327E+03 -3.72329E+03  5.83267E+02 -3.54446E+03  1.59506E+03 -3.92492E+03  3.20375E+03 -1.01988E+03
  3.44606E+03  1.24674E+03  1.47814E+03  2.49743E+03 -1.04018E+03  3.72481E+03 -1.99901E+03  2.53068E+03
 -3.69783E+03  9.33218E+01 -2.51129E+03 -1.89960E+03  9.35084E+02 -2.00018E+03  1.16403E+03 -2.14073E+03
  1.26658E+03 -8.52912E+02  1.07989E+03  4.14413E+02  2.94473E+02  1.01013E+03  1.95597E+02 -3.42181E+02
  1.77558E+03  5.17311E+02 -8.52895E+01  8.83292E+02  2.11733E+02  1.64421E+03  2.20034E+03  1.68465E+03
 -1.63310E+02  2.96594E+03 -1.72231E+03  3.65510E+03 -2.58703E+03  1.84568E+03 -3.24662E+03  8.35492E+02
 -1.04922E+03 -3.11353E+03  1.78155E+02 -3.54652E+03  1.33108E+03 -1.59527E+03  1.94463E+03 -4.08885E+02
  1.53590E+03  1.93811E+03  1.64204E+02  1.12832E+03 -7.58424E+02  1.32561E+03 -9.48637E+02 -6.49841E+02
 -5.69815E+02 -1.14826E+03  1.61074E+03 -1.06388E+03  4.98895E+02 -1.32250E+03  8.49361E+02  3.42192E+01
 -5.23485E+01  9.66218E+01  6.99878E+02 -7.37177E+02  2.61182E+02  9.83722E+02  1.65948E+03 -9.09682E+02
 -1.09745E+03  2.40669E+02  1.71767E+03  6.92358E+02  9.68500E+02  2.20016E+03  3.57389E+02  2.43819E+03
 -1.29145E+03  6.81440E+02 -2.19397E+03  4.19795E+02 -2.47622E+03 -4.29815E+02  1.26770E+02 -6.41098E+02
 -6.03071E+01 -1.00040E+03  1.25946E+03  9.16697E+01  1.95153E+02  2.51537E+03 -1.44091E+03  4.36417E+02
 -1.60891E+03  4.80910E+02 -1.38373E+02 -5.34075E+02 -3.76774E+02 -1.77050E+03 -5.79978E+02 -2.23885E+03
  1.87994E+01 -1.39296E+03  1.54699E+02  6.22910E+02  1.84376E+03 -4.07672E+02 -1.49003E+01  2.39837E+02
 -1.47910E+02 -4.30983E+02 -5.26096E+02  6.73889E+02  1.56479E+02 -7.58741E+02  1.64907E+03 -1.12551E+03
  6.30490E+02  7.34277E+02  1.51706E+03 -1.74757E+02  7.34519E+02  1.33313E+03  5.78198E+02  1.42582E+03
 -1.24542E+03  5.94921E+02 -1.21619E+03 -6.15416E+02  5.41899E+02 -8.20324E+02  1.33902E+03  6.59696E+02
  1.32052E+03 -5.25546E+02 -3.18954E+02  2.22668E+02  1.30267E+02  2.10777E+03  5.70285E+02  3.85558E+02
 -9.72763E+02 -6.05747E+02 -2.96315E+02 -4.20947E+02 -7.85127E+01  7.30097E+02 -9.66126E+02  1.30277E+03
 -9.03763E+02  1.74492E+03 -1.93799E+03  9.14235E+02 -9.84092E+02  2.65322E+02 -5.55727E+02 -7.97350E+02
 -3.95675E+02 -1.46131E+03 -5.15202E+02 -1.26858E+03 -5.18766E+02 -2.88278E+03  1.71737E+03 -7.48486E+02
  1.38081E+03 -6.25885E+02  1.24496E+01  1.21618E+03 -1.14644E+03  1.12231E+03  3.27504E+02  1.07469E+02
 -2.26756E+02  7.78069E+02 -1.10479E+03 -3.36496E+02 -3.38628E+02  1.02414E+03 -7.56067E+02  8.05013E+02
 -9.85287E+02 -2.46233E+02 -3.69808E+02  9.44174E+02 -9.20753E+02 -4.34078E+02 -5.12632E+02 -2.87521E+02
 -2.53774E+02 -2.73222E+02 -6.50786E+02 -3.97109E+02  1.30914E+03  3.06493E+02 -5.95902E+02  1.59702E+03
 -6.06433E+01  1.58192E+03 -1.53016E+03  9.41465E+01 -6.44679E+02 -7.14864E+02 -1.21217E+03 -1.11068E+03
 -3.28377E+02 -4.78137E+02  9.59029E+02 -1.04383E+03  3.95279E+02 -2.53481E+02 -1.31823E+02  3.80587E+02
  7.02700E+02 -2.17251E+02 -3.76531E+02  1.37385E+03  6.62497E+01  1.77409E+02  7.06662E+02 -4.65601E+02
  2.62351E+02  4.18961E+02  5.20443E+02 -5.04607E+02  1.08613E+02  3.01653E+02  1.90090E+03 -7.84254E+02
  8.72635E+01  1.48253E+02 -1.36548E+02  6.58989E+02 -7.89877E+02 -9.46108E+02  1.00830E+03 -1.11193E+03
  1.39920E+02 -5.31933E+02 -2.36756E+02  6.51338E+02 -4.24413E+02 -1.16713E+03 -3.19746E+02  6.39753E+02
 -7.74120E+02  4.87809E+01  7.65707E+02 -1.42049E+02 -3.54549E+02  3.87286E+02  5.18636E+02  4.33498E+01
  2.72561E+01 -3.34438E+02 -5.26753E+02  1.84988E+02 -8.82444E+02 -1.95337E+02 -6.38287E+02  4.40055E+01
  9.70283E+02  5.87095E+02  1.28055E+02 -5.87207E+02  1.15637E+03 -2.01335E+03  6.93872E+02  2.26797E+02
 -9.77745E+01 -9.06638E+02 -2.88188E+02 -9.72646E+02  2.83398E+02  6.41233E+02 -7.07581E+02  4.90914E+02
