 $NMID ID='MM_0lb_SNR200_18hz_g50_4.RAW', FMTDAT='(8E13.5)'
 TRAMP=1., VOLUME=1. $END
  3.09650E+05  6.95181E+02  3.37210E+05  2.50370E+05  8.40853E+04  3.38632E+05 -1.31918E+05  2.50362E+05
 -1.90150E+05  8.18043E+04 -1.10771E+05 -3.24942E+04  8.62136E+02 -4.99725E+04  5.42972E+04  1.07686E+02
  3.54446E+04  5.21238E+04 -1.76294E+04  7.52000E+04 -6.11593E+04  6.25649E+04 -8.28998E+04  3.13262E+04
 -8.04894E+04 -1.13642E+04 -5.57361E+04 -4.88142E+04 -1.49902E+04 -6.85467E+04  2.71495E+04 -4.41337E+04
  3.89514E+04  2.47246E+03  1.55647E+04  4.73527E+04 -3.36522E+04  4.62847E+04 -6.72930E+04 -1.76095E+03
 -5.28894E+04 -5.54082E+04 -6.32692E+03 -7.53992E+04  3.30932E+04 -5.23315E+04  4.72680E+04 -1.74715E+04
  4.22753E+04  1.26648E+04  3.14535E+04  2.40897E+04  1.60721E+04  2.96134E+04 -4.99491E+03  2.71968E+04
 -2.13340E+04  1.32045E+04 -1.79171E+04 -3.58263E+03  4.33752E+03 -6.78269E+03  2.26987E+04  1.04969E+04
  7.32049E+03  3.31005E+04 -3.11642E+04  3.35846E+04 -6.20610E+04  2.09048E+03 -5.61414E+04 -4.06764E+04
 -1.24265E+04 -6.16330E+04  3.83694E+04 -4.34736E+04  5.58683E+04 -7.38868E+02  3.20022E+04  3.07556E+04
 -5.95671E+03  3.42135E+04 -2.87595E+04  1.39749E+04 -2.65953E+04 -4.32984E+03 -1.43909E+04 -9.91316E+03
 -6.72075E+03 -1.22572E+04 -1.24641E+03 -1.71743E+04  4.90789E+03 -2.33530E+04  1.46632E+04 -1.36130E+04
  1.30628E+04  4.39326E+03 -6.25499E+03  1.35626E+04 -1.95856E+04 -2.06229E+03 -8.63969E+03 -3.15726E+04
  2.14948E+04 -4.04857E+04  4.56473E+04 -1.93611E+04  4.33768E+04  1.90537E+04  1.41192E+04  4.19036E+04
 -1.60466E+04  3.09147E+04 -2.33108E+04  1.75478E+03 -9.24917E+03 -2.74626E+04  2.03410E+04 -3.03031E+04
  3.88177E+04 -7.14441E+03  3.21854E+04  2.22850E+04  1.61364E+04  4.35004E+04 -6.56962E+03  4.64361E+04
 -2.85451E+04  3.07473E+04 -3.76656E+04  8.48996E+03 -3.90163E+04 -1.56938E+04 -2.21435E+04 -3.49592E+04
  7.20421E+03 -3.49816E+04  2.93182E+04 -1.28177E+04  2.72808E+04  1.12195E+04  2.95930E+03  1.87284E+04
 -1.33298E+04  7.30497E+03 -9.97514E+03 -8.47879E+03  5.95426E+03 -1.02505E+04  1.76618E+04  7.18792E+03
  1.33657E+04  2.18941E+04 -6.26492E+03  2.29443E+04 -2.21755E+04  9.40627E+03 -2.58074E+04 -5.64050E+03
 -1.70114E+04 -1.73839E+04 -6.18650E+03 -1.86146E+04  3.47949E+03 -1.57663E+04  1.25903E+04 -1.51375E+04
  2.23031E+04 -1.18103E+04  2.91049E+04  7.36640E+02  2.17235E+04  1.71909E+04  4.10093E+03  3.42405E+04
 -1.57235E+04  2.72380E+04 -2.74220E+04  8.95592E+03 -1.94715E+04 -1.02701E+04 -4.03015E+03 -1.35846E+04
  2.27784E+03 -3.34534E+03 -2.35271E+03  5.47562E+03 -1.36912E+04  5.26739E+03 -1.44885E+04 -5.65362E+03
 -9.18292E+03 -1.57952E+04  3.81466E+03 -1.95816E+04  1.29538E+04 -1.53432E+04  1.48885E+04 -1.40146E+03
  9.26484E+03  1.18560E+04 -1.27964E+03  1.60422E+04 -1.15626E+04  7.54049E+03 -1.60997E+04 -3.45638E+03
 -1.22861E+04 -1.36875E+04 -1.71196E+03 -2.02199E+04  9.16517E+03 -1.59442E+04  1.68174E+04 -7.65646E+03
  1.46832E+04  2.16863E+02  1.11808E+04  4.62011E+03  5.87401E+03  2.78104E+02  9.14452E+03  5.58712E+02
  1.39774E+04  3.18915E+03  1.57805E+04  1.25483E+04  1.08024E+04  2.63979E+04 -3.87023E+03  2.80399E+04
 -1.65484E+04  2.16633E+04 -2.55516E+04  1.04176E+04 -2.63205E+04 -1.68796E+03 -2.17862E+04 -1.48698E+04
 -1.04257E+04 -2.07012E+04  6.25444E+03 -1.99062E+04  1.72722E+04 -1.13288E+04  1.66644E+04  4.07860E+03
  6.21962E+03  1.13843E+04 -7.84434E+03  1.07740E+04 -1.45396E+04  2.65960E+03 -1.10304E+04 -9.45682E+03
 -3.02247E+02 -1.40706E+04  6.20288E+03 -9.76493E+03  7.54279E+03 -2.60339E+03  1.88220E+03  5.15636E+03
 -5.46018E+03  1.79578E+03 -4.17757E+03 -4.19982E+03 -8.68922E+02 -1.02213E+04  6.83981E+03 -1.08534E+04
  1.34367E+04 -6.41224E+03  1.29385E+04  2.84450E+03  1.07501E+04  9.50272E+03  5.02100E+03  1.52391E+04
 -1.71769E+03  1.78836E+04 -9.28676E+03  1.08900E+04 -1.19450E+04  2.17088E+03 -8.49953E+03 -9.88079E+02
 -4.86947E+03 -3.42886E+03 -1.82928E+03  1.36608E+03 -2.20041E+03  2.39431E+03 -3.80157E+03  3.61679E+03
 -9.95306E+03  6.86564E+02 -9.21558E+03 -7.53838E+03 -3.98499E+03 -1.19458E+04  3.94355E+03 -9.89398E+03
  6.73875E+03 -5.09830E+03  5.47890E+03  1.60558E+03  8.50879E+02  2.93743E+03 -3.51991E+03 -8.43916E+02
 -3.58200E+03 -4.98725E+03 -5.80898E+02 -8.09244E+03  4.33894E+03 -7.92096E+03  1.08897E+04 -4.13722E+03
  1.22181E+04  1.07315E+02  1.04642E+04  7.35052E+03  1.60093E+03  9.16719E+03 -6.09794E+03  8.75865E+03
 -8.15851E+03  2.83944E+03 -4.34040E+03 -1.11738E+03  9.63497E+02 -1.00291E+03  5.49848E+03  2.61877E+02
  4.67346E+03  3.68876E+03  3.33435E+02  6.14118E+03 -4.24746E+03  6.22990E+03 -8.11684E+03  1.59013E+03
 -5.64630E+03 -4.11494E+03 -3.30989E+02 -6.72426E+03  3.98305E+03 -2.89159E+03  3.86680E+03  1.11711E+03
  2.64120E+01  3.63767E+03 -3.99181E+03  5.05317E+03 -5.89472E+03  2.29109E+03 -3.70710E+03 -9.85923E+02
 -1.85665E+03 -6.04808E+03  7.77849E+02 -7.77725E+03  6.59632E+03 -5.16570E+03  5.85148E+03  1.08911E+03
  4.18103E+03  5.44270E+03  3.68444E+02  7.30442E+03 -5.56990E+03  4.68406E+03 -6.24427E+03 -5.79111E+02
 -5.64717E+03 -6.25174E+03 -1.13765E+03 -6.42922E+03  1.69871E+03 -5.40762E+03  2.55590E+03 -2.72418E+03
  2.95148E+03 -8.80847E+02  2.55686E+02  1.64386E+03  1.45674E+03 -4.71784E+02  6.01585E+02 -9.39093E+02
  4.27561E+03 -7.59844E+02  5.63132E+03  6.16230E+02  5.88760E+03  3.88620E+03  5.00236E+03  7.37002E+03
 -1.74445E+03  8.05419E+03 -7.17143E+03  7.48079E+03 -1.06133E+04  1.37651E+03 -8.02433E+03 -3.55052E+03
 -4.67151E+03 -7.60292E+03 -9.34319E+02 -5.44374E+03  3.42035E+03 -2.63399E+03  1.20738E+03 -4.78563E+02
  2.11371E+03 -1.44871E+03  1.60506E+03 -1.63979E+03  4.77885E+03 -1.80563E+03  3.60470E+03  5.52957E+01
  4.56115E+03  1.51356E+03  6.09849E+02  3.50687E+03 -7.89965E+02  3.40573E+03 -5.03237E+03  3.10575E+03
 -4.91516E+03 -1.22041E+03 -2.35545E+03 -3.97078E+03 -8.06821E+01 -5.26053E+03  4.32368E+03 -6.16472E+03
  5.81103E+03 -3.19813E+03  6.57125E+03 -6.57267E+02  4.56364E+03  3.61830E+03  1.26374E+03  6.25691E+03
 -3.14211E+03  6.15468E+03 -2.85805E+03  2.03578E+03 -1.85614E+03 -1.30956E+03 -1.22340E+03 -8.80000E+02
 -4.77376E+02  6.51830E+02 -1.23217E+03  1.05380E+03 -2.44527E+03  1.27915E+03 -5.30279E+03 -8.32525E+02
 -3.10794E+03 -4.74731E+03  1.12248E+03 -4.96632E+03  3.07583E+03 -5.05196E+03  4.01377E+03 -1.23610E+03
  3.28653E+03  3.78939E+03  2.00376E+03  3.45844E+03  6.04489E+02  4.57687E+03 -2.07097E+03  2.68510E+03
 -3.53242E+03 -8.12076E+02 -3.50406E+03 -2.52384E+03 -2.12931E+02 -3.00238E+03  1.35711E+03 -2.73145E+03
  3.94446E+03 -1.74320E+03  1.88846E+03  1.42972E+03  1.08120E+03  2.85544E+03  3.45968E+01  9.83031E+02
  1.40462E+03  1.28941E+03  1.67311E+03 -1.57304E+02  1.01232E+03  1.91193E+03  1.30869E+03  1.46671E+03
 -4.75910E+02  4.13852E+03 -3.20296E+03  4.28950E+03 -3.69595E+03  3.94454E+02 -4.20689E+03 -6.44284E+02
 -2.36943E+03 -4.86530E+03  1.08489E+03 -6.09834E+03  2.19956E+03 -3.05618E+03  3.23975E+03 -1.17271E+00
  2.33252E+03  2.50799E+03  7.98269E+02  2.43543E+03 -1.07322E+03  1.50899E+03 -7.36815E+02 -9.22552E+02
 -9.30240E+02 -2.03198E+03  8.11873E+02 -1.01917E+03  2.14536E+03 -1.68053E+02  1.65782E+03  2.54732E+02
  7.38624E+02  1.06342E+03 -4.92036E+02  5.20750E+02  3.80751E+02  4.90343E+02  1.92178E+03 -4.47163E+02
  1.12413E+02 -5.18138E+02  1.18405E+03  1.27403E+03 -2.64009E+02  2.44119E+03 -7.63327E+02  2.96354E+03
 -1.81244E+03  1.03776E+03 -2.88468E+03 -9.82756E+02 -2.06158E+03 -9.27734E+02 -4.63913E+02 -1.11609E+03
  2.51365E+02 -8.63396E+02  8.43904E+02 -1.79012E+03  2.21306E+02  1.94557E+03  7.65846E+02  5.27307E+02
 -3.11170E+02  5.91369E+02 -8.52012E+02 -9.68751E+02  1.08576E+02 -2.41304E+03  1.16483E+02 -2.97248E+03
  9.51166E+02 -9.02694E+02  4.98157E+02  1.02287E+03  3.06857E+03 -7.68697E+02  1.47159E+03  8.66656E+02
 -1.11113E+03 -2.43119E+02 -1.79826E+03 -1.93892E+02  1.20700E+03 -1.09625E+03  1.45694E+03 -1.59705E+03
  9.91217E+02  6.45412E+02  2.30096E+03  2.29572E+02  1.49071E+03  1.48181E+03 -4.80036E+01  2.03537E+03
 -1.85461E+03 -6.54681E+02 -2.91039E+03 -7.68962E+00 -1.61287E+03 -1.88227E+03  5.11370E+02 -1.22945E+03
  2.57413E+03 -8.27237E+02  3.95424E+02  3.77211E+02 -5.11575E+02  1.88143E+03 -3.63020E+02  3.47573E+02
 -1.49395E+03  2.00860E+03 -9.79924E+02  7.08948E+02 -6.35021E+02  3.53387E+02  1.97525E+02  9.80464E+02
  4.75446E+01  1.37497E+03 -1.19321E+03  1.64565E+03 -2.82346E+03  1.87305E+02 -2.58498E+03 -1.29205E+03
 -1.14996E+02 -3.07076E+03 -3.35801E+02 -3.17393E+03  1.21932E+03 -2.49018E+03  3.31982E+03 -9.68240E+02
  2.78782E+03 -1.69679E+02  1.78418E+03  1.72888E+03 -2.51927E+02  1.85682E+03 -1.40012E+03  1.73696E+03
 -7.34587E+02  1.23678E+03 -3.07478E+01  3.07994E+02 -1.83225E+02  1.61153E+02 -1.52739E+03 -6.42651E+02
 -1.11820E+03  1.01363E+03 -1.20399E+03 -2.22497E+02  2.19905E+02 -1.49983E+03 -2.29331E+02 -1.11717E+03
  1.26767E+03 -1.57491E+03 -2.37552E+02  2.72381E+02  1.44372E+03  3.98513E+02 -7.86555E+02  2.06378E+03
 -1.14518E+03  2.43875E+03 -1.29877E+03  2.21013E+03 -1.13245E+03 -4.52424E+02 -1.89012E+03 -1.87004E+03
 -1.28046E+03 -1.41014E+03  1.76279E+02 -4.30545E+02  1.49169E+03 -2.16775E+02  9.03203E+02  1.00031E+03
  6.89990E+02 -5.96502E+02  1.09651E+03  4.84806E+02 -8.54609E+02 -2.67717E+02 -4.98676E+02 -4.19361E+02
  6.12869E+02  1.61030E+03  1.18288E+03  1.47254E+03  1.45948E+03 -3.27250E+01  1.11099E+03  1.10241E+03
 -4.67917E+02 -5.03451E+02 -7.81169E+02 -3.58813E+02 -1.17896E+03 -1.32911E+03  6.21948E+02 -2.08216E+03
 -6.87337E+02 -9.88242E+02 -1.05160E+03 -8.53053E+01  1.44958E+03 -7.46448E+02  3.02719E+02  8.82989E+01
  7.30160E+02  1.22743E+03 -1.38195E+03  1.03409E+03 -4.05627E+02  3.24428E+02 -2.38700E+02  7.26182E+02
 -2.10935E+02  7.03087E+02 -1.01847E+03 -1.99974E+02 -9.95596E+02  6.87093E+02 -1.48164E+02 -5.04510E+02
 -1.41061E+03  1.16795E+03 -5.34966E+02 -2.32127E+02  1.41953E+03 -5.42155E+02  9.25953E+02  9.79130E+02
  1.43654E+03 -5.75900E+02  7.00276E+02  2.55371E+02 -1.23495E+03  1.40527E+03 -1.05460E+02  5.38468E+02
