 $NMID ID='MM_0lb_SNR200_7hz_g55_83.RAW', FMTDAT='(8E13.5)'
 TRAMP=1., VOLUME=1. $END
  3.09510E+05 -5.34395E+02  3.38394E+05  2.51648E+05  8.52094E+04  3.37665E+05 -1.32790E+05  2.52309E+05
 -1.91901E+05  8.49320E+04 -1.13204E+05 -3.27499E+04 -6.96559E+02 -5.05942E+04  5.41298E+04 -7.64932E+02
  3.53561E+04  5.20882E+04 -1.56114E+04  7.66943E+04 -6.19209E+04  6.34483E+04 -8.56794E+04  3.28262E+04
 -8.31036E+04 -1.24864E+04 -5.83417E+04 -5.25183E+04 -1.54786E+04 -7.15817E+04  2.89216E+04 -4.87128E+04
  4.00926E+04  3.02893E+03  1.67697E+04  4.75789E+04 -3.34127E+04  4.97722E+04 -6.95135E+04  1.68724E+03
 -5.65523E+04 -5.86746E+04 -8.55616E+03 -8.02302E+04  3.30636E+04 -5.63273E+04  4.98258E+04 -1.86644E+04
  4.68078E+04  1.11506E+04  3.41021E+04  2.62530E+04  1.67535E+04  2.93269E+04 -6.66136E+03  2.59592E+04
 -2.35279E+04  1.05244E+04 -1.87908E+04 -7.70507E+03  7.83973E+03 -8.11726E+03  2.67461E+04  1.45099E+04
  8.48405E+03  3.83186E+04 -3.73870E+04  3.90000E+04 -6.78030E+04  9.25711E+02 -5.76744E+04 -4.59462E+04
 -1.24115E+04 -6.69030E+04  4.12035E+04 -4.86365E+04  6.33584E+04 -9.33255E+02  3.87594E+04  3.45506E+04
 -3.85276E+03  4.06399E+04 -3.15820E+04  1.93615E+04 -3.41318E+04 -3.01448E+03 -2.13561E+04 -1.33492E+04
 -9.42182E+03 -1.40152E+04  1.98218E+03 -1.95871E+04  8.15225E+03 -2.41564E+04  1.56808E+04 -1.14045E+04
  8.73929E+03  7.29442E+03 -1.05772E+04  1.47390E+04 -2.38016E+04 -8.41027E+03 -8.39045E+03 -3.86143E+04
  2.56232E+04 -4.89817E+04  5.27985E+04 -2.20562E+04  4.96912E+04  2.17883E+04  1.89124E+04  5.09956E+04
 -1.54587E+04  3.68516E+04 -2.62277E+04  3.77739E+03 -1.14791E+04 -3.01961E+04  2.22902E+04 -3.76608E+04
  4.56756E+04 -1.17595E+04  4.33341E+04  2.49006E+04  2.51963E+04  5.38484E+04 -7.57555E+03  5.83994E+04
 -3.59854E+04  3.89161E+04 -5.24354E+04  1.17955E+04 -5.04283E+04 -1.92178E+04 -2.74450E+04 -4.42510E+04
  1.07254E+04 -4.40267E+04  3.64365E+04 -1.82101E+04  3.41075E+04  1.30208E+04  5.48986E+03  2.08593E+04
 -1.37722E+04  1.11031E+04 -1.17616E+04 -7.10082E+03  6.46216E+03 -1.15191E+04  1.84214E+04  4.60889E+03
  1.60964E+04  2.21874E+04 -4.52068E+03  2.98978E+04 -2.35781E+04  1.54580E+04 -3.28588E+04 -1.22036E+03
 -2.80783E+04 -1.97531E+04 -1.34565E+04 -2.76865E+04  5.44828E+03 -2.79830E+04  2.26715E+04 -2.69924E+04
  3.34769E+04 -1.34301E+04  3.96871E+04  6.79894E+03  2.76877E+04  2.82037E+04  5.04798E+03  4.37000E+04
 -1.95834E+04  3.56846E+04 -3.11826E+04  1.27633E+04 -2.28093E+04 -1.00264E+04 -6.52890E+03 -1.13787E+04
  1.01033E+03 -2.29967E+03 -8.25620E+03  8.54972E+03 -2.20401E+04  3.87896E+03 -2.34392E+04 -1.01019E+04
 -1.23057E+04 -2.60269E+04  5.06877E+03 -3.03924E+04  1.99540E+04 -1.96700E+04  2.43635E+04 -4.54486E+03
  1.57774E+04  1.80505E+04 -4.21289E+03  2.50258E+04 -1.74264E+04  1.66871E+04 -2.50139E+04 -4.48639E+03
 -1.72942E+04 -2.27433E+04 -3.43248E+03 -3.08729E+04  1.36417E+04 -2.87045E+04  2.62770E+04 -1.47046E+04
  2.45201E+04 -1.63231E+02  1.75671E+04  6.11172E+03  1.02429E+04 -8.01495E+02  1.36859E+04 -1.64119E+03
  2.49247E+04  4.39486E+03  2.89098E+04  1.97262E+04  2.12622E+04  4.24037E+04 -1.80953E+03  5.13267E+04
 -2.88972E+04  4.22946E+04 -4.54562E+04  2.35752E+04 -5.01010E+04 -4.24306E+03 -4.12046E+04 -2.91878E+04
 -1.60207E+04 -4.12476E+04  1.38479E+04 -3.75568E+04  3.08363E+04 -1.63496E+04  2.77859E+04  8.76608E+03
  9.43328E+03  2.02683E+04 -1.47138E+04  1.60476E+04 -2.05916E+04  2.91359E+03 -1.68978E+04 -1.59019E+04
  3.69727E+01 -2.10338E+04  1.15463E+04 -1.66953E+04  1.75769E+04 -2.81855E+03  5.74943E+03  9.13780E+03
 -7.82290E+03  6.97502E+03 -1.20511E+04 -5.72421E+03 -3.57617E+03 -2.05304E+04  1.55414E+04 -2.15191E+04
  2.68770E+04 -1.34956E+04  3.11502E+04  4.56220E+03  2.68947E+04  2.31737E+04  1.11988E+04  3.48096E+04
 -6.98979E+03  3.72220E+04 -2.45715E+04  2.20171E+04 -2.60241E+04  5.78570E+03 -1.82007E+04 -7.75260E+03
 -7.70591E+03 -9.30396E+03  1.29822E+03  1.48389E+03 -3.10803E+03  2.92410E+03 -8.80082E+03  4.67949E+03
 -1.58743E+04 -2.14254E+03 -1.64693E+04 -1.20342E+04 -6.48268E+03 -2.26733E+04  8.07743E+03 -1.90519E+04
  1.53185E+04 -8.65402E+03  9.77622E+03  4.68482E+03 -1.18166E+03  7.32546E+03 -8.09474E+03 -5.26558E+02
 -9.39626E+03 -1.07427E+04  1.46741E+02 -1.75512E+04  1.11700E+04 -2.05285E+04  2.31325E+04 -1.05171E+04
  2.90230E+04  1.53414E+03  2.13531E+04  1.55946E+04  4.39587E+03  2.33166E+04 -1.17090E+04  1.63935E+04
 -1.60496E+04  4.43754E+03 -6.81803E+03 -6.07635E+03  4.85346E+03 -6.05807E+03  8.72956E+03 -1.79663E+03
  7.96534E+03  9.06937E+03  3.16933E+02  1.45719E+04 -1.08385E+04  1.62767E+04 -2.00817E+04  5.37256E+03
 -1.19215E+04 -9.15496E+03 -4.86981E+02 -1.77843E+04  9.71825E+03 -7.75044E+03  9.54827E+03  4.28137E+03
  3.12234E+03  1.19605E+04 -9.46220E+03  1.32706E+04 -1.82092E+04  5.47960E+03 -1.80448E+04 -8.20900E+03
 -1.07936E+04 -1.93549E+04  7.08438E+03 -2.11051E+04  1.80799E+04 -1.36215E+04  2.31691E+04  2.29582E+03
  1.12666E+04  1.54234E+04 -3.65820E+03  1.87682E+04 -1.61246E+04  9.65253E+03 -1.50204E+04 -5.77602E+02
 -1.19990E+04 -1.15641E+04 -2.05613E+03 -1.41059E+04  7.42959E+03 -1.13262E+04  9.97033E+03 -3.41220E+03
  6.02252E+03  2.81165E+03 -1.17487E+03  1.20133E+03 -1.76051E+03 -4.95395E+03  2.61673E+03 -7.84960E+03
  1.49493E+04 -6.35661E+03  1.99613E+04  3.19616E+03  2.05818E+04  1.43731E+04  1.22290E+04  2.69308E+04
 -4.59911E+03  3.04079E+04 -2.32429E+04  2.00292E+04 -3.18948E+04  3.41108E+03 -2.56668E+04 -1.16751E+04
 -1.17578E+04 -2.12232E+04 -7.41747E+02 -1.90263E+04  5.65234E+03 -9.64108E+03  6.52765E+03 -5.65404E+03
  2.94379E+03 -2.83249E+03  4.82790E+03 -4.32691E+03  6.89683E+03 -4.06098E+03  9.16473E+03 -5.09007E+02
  1.49209E+04  2.37492E+03  8.10319E+03  1.21787E+04 -2.43726E+03  1.58102E+04 -1.44155E+04  1.18209E+04
 -1.99511E+04 -2.04930E+03 -1.24905E+04 -1.08569E+04 -2.16982E+03 -2.24039E+04  9.09392E+03 -2.08267E+04
  2.14180E+04 -1.19563E+04  2.43353E+04  4.92224E+03  1.69083E+04  1.83854E+04  2.23089E+03  2.33045E+04
 -1.03774E+04  1.73735E+04 -1.46130E+04  5.25883E+03 -1.02203E+04 -2.00670E+03 -5.17322E+03 -2.92276E+03
 -4.89251E+02  1.98977E+02 -1.97775E+03  3.11073E+03 -8.42731E+03  4.07522E+03 -1.23903E+04 -4.28452E+03
 -8.47677E+03 -1.20694E+04 -1.11249E+03 -1.76840E+04  1.20336E+04 -1.63682E+04  1.86714E+04 -5.71865E+03
  1.98835E+04  1.08429E+04  7.62921E+03  1.76156E+04 -5.05018E+03  2.09371E+04 -1.38848E+04  1.21135E+04
 -1.72198E+04  6.58660E+02 -1.29443E+04 -1.12574E+04 -1.13429E+03 -1.62024E+04  7.43378E+03 -1.25729E+04
  1.37558E+04 -4.03792E+03  7.53111E+03  4.10936E+03  4.42068E+03  5.83403E+03  2.42167E+03  3.46734E+03
  3.90117E+03  8.24357E+02  4.41277E+03  1.77864E+03  7.79763E+03  5.67926E+03  3.20691E+03  1.25162E+04
 -2.78142E+03  1.68814E+04 -1.39812E+04  1.46798E+04 -2.09453E+04  4.17035E+03 -2.18508E+04 -8.68228E+03
 -1.06672E+04 -2.07719E+04  3.65149E+03 -2.14268E+04  1.28125E+04 -1.58697E+04  1.70394E+04 -4.27251E+03
  1.42610E+04  8.57086E+03  1.67316E+03  1.16359E+04 -5.25969E+03  7.87774E+03 -8.88429E+03 -2.48914E+03
 -3.95712E+03 -8.70422E+03  4.72936E+03 -8.18362E+03  7.62745E+03 -6.10548E+03  7.08503E+03  2.66739E+03
  5.58261E+03  2.19120E+03  2.08190E+03  5.96270E+03 -9.90652E+02  3.78549E+03  1.28946E+03  5.95252E+02
  2.53208E+03 -2.45897E+03  8.20950E+03  2.72751E+03  4.65411E+03  1.23290E+04  1.20442E+03  1.39413E+04
 -9.49512E+03  1.17440E+04 -1.21041E+04  2.95384E+03 -1.36120E+04 -4.71574E+03 -4.35288E+03 -7.76014E+03
  1.90852E+03 -7.66060E+03  4.23671E+03 -3.74893E+03  4.19454E+03  3.60009E+03 -1.95288E+02  5.37929E+03
 -8.41619E+03  2.53616E+03 -1.02267E+04 -3.24574E+03 -6.72838E+03 -9.63453E+03  2.99065E+03 -1.32714E+04
  7.42713E+03 -8.29346E+03  1.00389E+04  5.83368E+02  6.55391E+03  2.61351E+03 -2.67158E+02  6.76948E+03
 -4.38145E+03  3.37405E+03 -5.13155E+03 -4.75187E+03  2.59291E+03 -8.98138E+03  1.01023E+04 -6.04004E+03
  1.52405E+04  4.16645E+02  1.14053E+04  9.21444E+03  4.97529E+03  1.47585E+04 -5.17283E+03  1.29515E+04
 -1.10428E+04  7.94253E+03 -1.08869E+04 -1.82709E+03 -7.21787E+03 -9.81938E+03  3.56253E+03 -9.84722E+03
  1.04876E+04 -3.19586E+03  7.64291E+03  2.81203E+03  2.45666E+03  9.13351E+03 -2.90951E+02  6.33482E+03
 -3.18065E+03  3.50532E+03 -2.78916E+03  4.11931E+02 -1.55384E+03  3.08994E+02 -2.60626E+03  4.08766E+03
 -2.19772E+03  5.86646E+03 -1.02541E+04  6.17559E+03 -1.37695E+04 -1.80723E+02 -1.81497E+04 -1.01557E+04
 -9.16082E+03 -2.07920E+04  3.84937E+03 -2.29512E+04  1.32271E+04 -1.82813E+04  1.99450E+04 -8.18438E+03
  1.74825E+04  4.05459E+03  1.38846E+04  1.40875E+04  2.04584E+03  1.68728E+04 -6.21638E+03  1.28447E+04
 -7.59747E+03  4.96550E+03 -7.50540E+03 -2.06812E+03 -2.27400E+03 -2.29061E+03  8.35314E+02  5.65404E+02
 -1.92390E+03  7.09826E+02 -2.23973E+03 -1.50355E+03  3.66673E+02 -3.61252E+03  1.51472E+03 -5.27848E+03
  4.63775E+03 -4.74389E+03  9.00360E+03  1.46433E+03  1.18260E+04  8.15556E+03  2.88592E+03  1.38268E+04
 -8.13544E+03  1.58636E+04 -1.72645E+04  9.74756E+03 -1.82822E+04 -1.51784E+03 -1.49541E+04 -1.32211E+04
 -5.60533E+03 -1.70955E+04  3.28824E+03 -1.54557E+04  9.93626E+03 -8.39444E+03  1.11958E+04 -1.34089E+03
  6.44337E+03  6.18505E+03 -1.40222E+03  3.29595E+03 -2.78191E+03 -9.61639E+02  7.82012E+02 -4.34199E+03
  5.83688E+03 -9.32581E+02  6.07692E+03  3.26151E+03  2.64379E+03  5.99284E+03 -1.56096E+03  6.59702E+03
 -7.28112E+03  7.06781E+03 -9.31280E+03  1.53475E+03 -1.05233E+04 -7.42123E+03 -1.26491E+03 -1.40366E+04
  9.61353E+03 -1.01697E+04  1.27276E+04 -3.07638E+03  1.07359E+04  3.58174E+03  6.72423E+03  9.69092E+03
  8.73339E+02  1.00173E+04 -4.43895E+03  9.29834E+03 -8.41880E+03  5.88463E+03 -6.63320E+03  9.74951E+02
 -4.63722E+03  7.25018E+02 -3.23403E+03  2.11474E+03 -6.22420E+03  6.22459E+02 -7.93579E+03 -2.66730E+03
 -8.58027E+03 -5.26004E+03 -3.62035E+02 -1.08357E+04  5.56505E+03 -1.04854E+04  8.43366E+03 -5.73922E+03
  9.38099E+03  1.98248E+03  6.85163E+03  9.18726E+03 -2.20018E+03  1.17195E+04 -8.14224E+03  7.36824E+03
