 $NMID ID='MM_0lb_SNR200_19hz_g45_29.RAW', FMTDAT='(8E13.5)'
 TRAMP=1., VOLUME=1. $END
  3.09296E+05  8.53913E+02  3.37177E+05  2.50527E+05  8.49235E+04  3.37112E+05 -1.32143E+05  2.50942E+05
 -1.89686E+05  8.20723E+04 -1.10608E+05 -3.32431E+04  1.49772E+03 -5.09281E+04  5.41383E+04  5.96274E+01
  3.47134E+04  5.35455E+04 -1.76133E+04  7.52844E+04 -5.98477E+04  6.16870E+04 -8.24714E+04  3.16399E+04
 -7.84055E+04 -1.08206E+04 -5.55616E+04 -4.92939E+04 -1.38908E+04 -6.71329E+04  2.74016E+04 -4.45529E+04
  3.92807E+04  4.74275E+03  1.55704E+04  4.71655E+04 -3.45527E+04  4.51145E+04 -6.55625E+04 -6.87774E+02
 -5.16999E+04 -5.61267E+04 -4.92170E+03 -7.38151E+04  3.34612E+04 -5.33960E+04  4.47590E+04 -1.66841E+04
  4.16244E+04  1.16064E+04  3.18442E+04  2.52558E+04  1.49816E+04  2.85866E+04 -4.34090E+03  2.58063E+04
 -2.17893E+04  1.32115E+04 -1.95167E+04 -4.21368E+03  4.41702E+03 -7.49134E+03  2.08021E+04  1.04421E+04
  6.82545E+03  3.27049E+04 -3.02220E+04  3.37993E+04 -6.03335E+04  1.10797E+03 -5.59677E+04 -4.12263E+04
 -1.24156E+04 -5.89992E+04  3.82885E+04 -4.28328E+04  5.50061E+04 -2.26401E+03  3.22066E+04  3.05062E+04
 -6.46134E+03  3.17756E+04 -2.93984E+04  1.30555E+04 -2.62252E+04 -5.15307E+03 -1.39830E+04 -8.72743E+03
 -7.54904E+03 -1.17676E+04 -2.36508E+03 -1.61650E+04  7.13057E+03 -2.23007E+04  1.62315E+04 -1.40969E+04
  1.23338E+04  4.36174E+03 -6.07378E+03  1.24051E+04 -1.83452E+04 -1.03285E+03 -7.80757E+03 -3.04643E+04
  2.09111E+04 -4.11770E+04  4.36041E+04 -1.79887E+04  4.02922E+04  1.80557E+04  1.32069E+04  4.08109E+04
 -1.55854E+04  3.11023E+04 -2.28087E+04  2.18298E+03 -7.90698E+03 -2.69583E+04  2.06228E+04 -3.02415E+04
  3.77202E+04 -7.23556E+03  3.08507E+04  2.21054E+04  1.52306E+04  4.17739E+04 -7.31502E+03  4.46567E+04
 -2.77742E+04  2.85303E+04 -3.71192E+04  7.70480E+03 -3.75731E+04 -1.48144E+04 -2.04710E+04 -3.28110E+04
  6.55283E+03 -3.32423E+04  2.81730E+04 -1.31693E+04  2.58125E+04  1.18242E+04  2.32582E+03  1.78611E+04
 -1.27367E+04  6.83119E+03 -1.06082E+04 -6.29842E+03  5.95079E+03 -1.01810E+04  1.67284E+04  6.30261E+03
  1.22269E+04  2.30832E+04 -6.80084E+03  2.25713E+04 -2.09390E+04  8.99657E+03 -2.48027E+04 -6.47884E+03
 -1.60241E+04 -1.62669E+04 -4.07884E+03 -1.59691E+04  3.53694E+03 -1.35259E+04  1.10024E+04 -1.39557E+04
  1.97189E+04 -1.05473E+04  2.79155E+04  4.25290E+01  2.06758E+04  1.58755E+04  2.78762E+03  3.18399E+04
 -1.52268E+04  2.64412E+04 -2.53368E+04  8.98844E+03 -1.90793E+04 -1.06079E+04 -3.49801E+03 -1.43058E+04
  3.39455E+03 -4.34265E+03 -1.75110E+03  5.93620E+03 -1.22144E+04  4.13224E+03 -1.35480E+04 -5.10540E+03
 -8.20070E+03 -1.51148E+04  4.77332E+03 -1.84995E+04  1.21821E+04 -1.41688E+04  1.42310E+04 -1.83168E+03
  7.68677E+03  1.03038E+04 -1.66859E+03  1.48266E+04 -8.25840E+03  8.47516E+03 -1.57634E+04 -2.87362E+03
 -1.07874E+04 -1.32221E+04 -1.16182E+03 -1.82799E+04  8.51693E+03 -1.54800E+04  1.54606E+04 -7.07814E+03
  1.42603E+04  6.77843E+02  9.74840E+03  2.65286E+03  4.64563E+03  9.16062E+02  8.61199E+03 -1.82655E+03
  1.37863E+04  2.40796E+03  1.35228E+04  1.16972E+04  8.17027E+03  2.47789E+04 -3.34009E+03  2.59147E+04
 -1.46469E+04  1.93445E+04 -2.27023E+04  8.88981E+03 -2.23117E+04 -1.97389E+03 -1.98327E+04 -1.36659E+04
 -9.93485E+03 -1.90530E+04  7.37625E+03 -1.82775E+04  1.60453E+04 -1.01828E+04  1.52715E+04  3.48889E+03
  6.52758E+03  1.12308E+04 -7.10186E+03  1.00952E+04 -1.10754E+04  2.38818E+03 -1.00838E+04 -8.39140E+03
 -1.22493E+02 -1.12388E+04  5.47552E+03 -9.23269E+03  7.66380E+03 -1.59170E+03  1.53082E+03  3.96910E+03
 -5.13147E+03  5.24362E+02 -3.18836E+03 -4.07521E+03 -6.92679E+01 -1.07985E+04  6.33495E+03 -8.80895E+03
  1.12425E+04 -4.10788E+03  1.00152E+04  2.78712E+03  9.59823E+03  8.97190E+03  4.45679E+03  1.35137E+04
 -1.41110E+03  1.47295E+04 -9.38188E+03  1.03168E+04 -1.10393E+04  2.13894E+03 -8.17992E+03 -1.31528E+03
 -3.06303E+03 -3.31203E+03  1.49623E+02  9.36574E+02 -2.45685E+03  1.93669E+03 -3.06466E+03  3.31152E+03
 -7.48117E+03  2.14345E+02 -9.58784E+03 -7.20110E+03 -3.49519E+03 -9.50439E+03  3.58077E+03 -7.77249E+03
  6.20100E+03 -3.31997E+03  6.13746E+03  1.39037E+03  2.76985E+02  3.42805E+03 -2.37679E+03 -8.36843E+02
 -3.07194E+03 -4.83402E+03 -1.45108E+02 -6.27715E+03  3.57631E+03 -7.72163E+03  9.61045E+03 -3.34022E+03
  1.09029E+04  1.23120E+03  7.89583E+03  6.45875E+03  1.60239E+03  8.23151E+03 -4.67972E+03  7.72874E+03
 -6.05722E+03  3.96110E+03 -3.40206E+03 -4.30398E+02  1.95574E+03 -9.84825E+02  4.91301E+03 -1.44538E+03
  3.61681E+03  3.40028E+03  3.48095E+02  5.92564E+03 -4.57434E+03  6.30759E+03 -7.19987E+03  1.07905E+03
 -4.69251E+03 -2.88023E+03  1.12051E+02 -6.17076E+03  3.26430E+03 -2.61711E+03  2.89712E+03  4.48874E+02
  1.39842E+03  2.83561E+03 -3.56493E+03  5.17142E+03 -4.51455E+03  2.12802E+03 -4.48756E+03  9.95317E+01
 -2.84653E+03 -3.28303E+03  1.82034E+03 -7.22850E+03  6.47437E+03 -5.08784E+03  6.09619E+03  2.06010E+03
  3.35653E+03  5.71563E+03  3.76323E+02  7.11500E+03 -3.99534E+03  3.25248E+03 -4.64388E+03 -2.21923E+02
 -6.18789E+03 -4.68758E+03 -9.09075E+02 -4.83426E+03  1.69497E+03 -3.92738E+03  3.16427E+03 -3.54584E+03
  2.04643E+03  2.35473E+02  8.93277E+02  1.64520E+03 -9.55308E+01 -7.17134E+02  4.66466E+02 -1.17448E+03
  2.71531E+03 -6.30492E+01  4.63646E+03  7.40464E+02  5.22888E+03  2.19941E+03  5.47367E+03  7.71396E+03
 -1.43814E+03  8.65600E+03 -7.08272E+03  6.18967E+03 -9.04886E+03  9.39826E+02 -7.36594E+03 -2.42831E+03
 -3.63041E+03 -4.99007E+03 -8.36414E+02 -4.72030E+03  2.16860E+03 -3.65484E+03  1.15556E+03 -2.03141E+03
  1.51316E+03 -1.55345E+03  1.67167E+03 -2.44713E+03  3.50505E+03 -1.00661E+03  3.82032E+03  5.95776E+02
  4.68207E+03  1.00414E+03  8.28289E+02  2.28374E+03 -6.70510E+02  3.47965E+03 -4.30725E+03  2.56104E+03
 -3.90063E+03 -1.61730E+02 -5.30676E+02 -2.98845E+03  1.58959E+03 -4.10913E+03  1.91512E+03 -5.43031E+03
  4.87035E+03 -3.58888E+03  6.12790E+03  2.17970E+02  5.16424E+03  4.29008E+03  1.72791E+03  5.74117E+03
 -2.62848E+03  4.37640E+03 -3.97465E+03  2.34836E+03 -1.94231E+03 -1.78313E+03 -1.10273E+03 -9.72668E+01
 -2.46130E+01 -4.92664E-01 -1.15605E+03  2.36821E+03 -2.11754E+03  5.63202E+02 -3.34230E+03 -6.21895E+02
 -2.04707E+03 -3.73446E+03  9.62548E+02 -5.13281E+03  1.68209E+03 -4.53500E+03  4.04621E+03 -5.17870E+02
  4.14301E+03  3.07673E+03  1.50665E+03  3.29961E+03 -2.25304E+02  4.00522E+03 -3.37463E+03  2.09113E+03
 -3.82990E+03  3.25684E+02 -3.35914E+03 -1.73934E+03  5.98882E+02 -2.60590E+03  1.06388E+03 -2.53019E+03
  2.17705E+03 -1.96414E+03  1.52931E+03  4.50863E+02  3.82504E+02  2.53432E+03  6.71574E+02 -3.52279E+02
  1.87808E+03  5.50590E+02  5.49720E+02  7.64465E+02  7.71383E+02  2.26013E+03  2.04980E+03  2.15410E+03
 -1.07198E+03  3.26484E+03 -2.86920E+03  4.32063E+03 -1.89716E+03  6.27150E+02 -4.03438E+03 -5.04588E+01
 -1.52408E+03 -4.46701E+03  8.38191E+02 -4.27351E+03  2.17428E+03 -2.86786E+03  3.76321E+03 -5.86381E+02
  1.68165E+03  1.51814E+03  4.13183E+02  2.73108E+03 -4.38192E+02  8.33382E+02 -1.64925E+03 -1.14242E+02
 -5.82755E+02 -1.12651E+03  1.29386E+03 -5.11821E+02  1.03652E+03 -1.49920E+03  1.49471E+03  6.32093E+02
 -9.66319E+01  7.09043E+02 -7.71287E+02 -8.28062E+02 -1.42442E+02  8.56107E+02  1.39918E+03  2.23749E+02
 -6.69087E+02  3.43023E+02  9.02594E+02  1.29789E+03  6.73238E+02  1.83415E+03 -4.94915E+02  3.36841E+03
 -1.58790E+03  3.45685E+02 -2.55834E+03  3.24853E+02 -1.77141E+03 -3.32022E+00  4.11894E+01 -2.65709E+02
  7.29596E+02 -1.60768E+03  1.24788E+03 -9.97166E+02  4.46307E+02  2.37102E+03 -4.18311E+02  2.01029E+02
 -1.65213E+03  1.90409E+03 -4.33829E+02 -1.32765E+03 -5.98246E+02 -1.63743E+03  1.14329E+00 -2.80946E+03
  5.42226E+02  2.97784E+02  4.85965E+02 -1.42958E+02  1.71154E+03  4.75631E+02  1.56529E+03  5.92392E+02
 -3.45792E+02  6.92573E+02 -2.16495E+03  2.10633E+02 -1.30958E+02 -2.03196E+02  1.58528E+03 -7.99449E+02
  2.23231E+03  2.17444E+01  2.07767E+03 -1.50394E+01  8.48405E+02  2.67857E+03 -7.79707E+02  2.38570E+03
 -1.54011E+03  1.33513E+03 -1.14930E+03  4.59160E+01 -7.16403E+02 -1.32701E+03  8.93118E+02 -2.16290E+02
  4.05597E+02 -2.60962E+02  4.80799E+02  2.70416E+02 -1.16718E+02  1.30061E+03  9.91602E+02  6.27325E+02
 -6.10212E+02  2.11391E+03 -5.94807E+02 -4.83378E+01  7.51481E+01  1.03406E+03 -6.56067E+02  3.32410E+02
 -8.74443E+02  2.14242E+03 -2.13957E+03  1.43670E+03 -2.96649E+03 -1.55057E+02 -2.31795E+03 -7.90850E+02
 -1.08012E+03 -1.87116E+03  4.66640E+02 -2.77009E+03  1.10291E+03 -1.97758E+03  2.31635E+03 -1.41576E+03
  1.46606E+03 -1.03681E+03  7.54504E+02  1.15279E+03  9.10247E+01  3.78510E+02 -1.75466E+02  1.31778E+03
 -1.51609E+03  4.59184E+02 -2.20115E+03 -9.49080E+01 -1.02898E+03  1.02442E+03 -5.98356E+02 -8.39324E+02
 -1.33814E+03  3.80339E+01  4.84803E+01  8.89150E+02  1.70179E+02 -4.76641E+02 -3.90014E+02 -2.17669E+03
  1.75331E+03 -9.08151E+02  4.95448E+02  1.74146E+01  1.31494E+03  8.71238E+02 -3.82957E+02  1.67585E+03
 -1.29703E+03  2.29114E+03  2.73008E+01  1.67076E+03 -2.35089E+03 -3.70348E+01 -1.73366E+03 -8.71706E+02
 -1.76050E+03 -1.06254E+03  6.90307E+02 -6.21936E+02  7.93951E+02 -5.53151E+02  1.58479E+03 -3.26988E+02
 -2.91096E+02  3.04524E+02  6.46134E+02  2.76662E+02  3.47156E+02 -1.59304E+02 -1.61690E+02  9.13827E+02
  2.68568E+02  1.23020E+02 -2.01439E+01  9.77395E+02 -8.07149E+01  4.39046E+01  5.18414E+02  2.73345E+02
  1.21933E+02  4.70926E+02  6.84295E+02 -6.13509E+02 -6.96148E+02 -7.39734E+02 -6.06090E+02 -1.61689E+03
 -9.32256E+01 -1.20981E+03 -1.07230E+03 -8.64529E+02  2.93323E+02 -1.07977E+03  4.74782E+02  2.75214E-01
  3.63812E+02  2.35436E+02 -4.07913E+02  4.14238E+02 -3.42349E+02  5.15084E+02  7.43027E+02 -4.23550E+02
  8.89926E+02  1.28506E+02  6.42447E+01  3.27764E+02  2.02421E+01  8.86506E+01 -1.13930E+03  1.70106E+02
 -1.44606E+03 -2.73412E+02 -9.72634E+02 -1.79655E+03  1.22744E+03 -1.37776E+03  1.31767E+03 -3.19636E+02
 -5.30570E+01  7.82074E+01 -1.30823E+03  1.03158E+03  2.28104E+02  1.56371E+03  4.26000E+02  9.31821E+02
