 $NMID ID='MM_0lb_SNR200_11hz_g40_71.RAW', FMTDAT='(8E13.5)'
 TRAMP=1., VOLUME=1. $END
  3.09765E+05 -3.66844E+02  3.37019E+05  2.50620E+05  8.44369E+04  3.39129E+05 -1.32180E+05  2.51757E+05
 -1.91162E+05  8.37748E+04 -1.12341E+05 -3.35080E+04  3.37361E+02 -4.99948E+04  5.30277E+04 -3.81256E+01
  3.50633E+04  5.33508E+04 -1.86867E+04  7.60650E+04 -6.11333E+04  6.38501E+04 -8.42320E+04  3.08695E+04
 -8.04606E+04 -1.04882E+04 -5.72036E+04 -5.10279E+04 -1.57525E+04 -7.02516E+04  2.66405E+04 -4.63411E+04
  4.03100E+04  2.62501E+03  1.59465E+04  4.78262E+04 -3.45282E+04  4.73393E+04 -6.76366E+04  3.61102E+02
 -5.59668E+04 -5.67966E+04 -6.80284E+03 -7.84396E+04  3.42443E+04 -5.65913E+04  4.88738E+04 -1.90926E+04
  4.47824E+04  1.09166E+04  3.21408E+04  2.60430E+04  1.68377E+04  3.08296E+04 -5.37382E+03  2.75914E+04
 -2.19731E+04  1.29992E+04 -1.90298E+04 -5.23027E+03  6.36888E+03 -6.42972E+03  2.26404E+04  1.22346E+04
  7.37353E+03  3.61179E+04 -3.07786E+04  3.58696E+04 -6.34982E+04  5.47671E+02 -5.72613E+04 -4.38487E+04
 -1.25994E+04 -6.48174E+04  4.14042E+04 -4.65403E+04  5.96205E+04 -3.33023E+03  3.54134E+04  3.41567E+04
 -6.08968E+03  3.74868E+04 -3.19730E+04  1.65767E+04 -3.15054E+04 -4.41079E+03 -1.84579E+04 -1.25703E+04
 -8.03275E+03 -1.43131E+04  4.03940E+02 -1.90680E+04  7.87140E+03 -2.28732E+04  1.35823E+04 -1.35505E+04
  9.03998E+03  4.91417E+03 -9.64325E+03  1.42830E+04 -2.15550E+04 -3.50215E+03 -9.17365E+03 -3.47227E+04
  2.42899E+04 -4.46436E+04  5.00210E+04 -2.06781E+04  4.53631E+04  1.98859E+04  1.61076E+04  4.61437E+04
 -1.77313E+04  3.38190E+04 -2.63325E+04  2.64791E+03 -1.16144E+04 -3.03166E+04  2.20185E+04 -3.46891E+04
  4.05028E+04 -1.04673E+04  3.73152E+04  2.52745E+04  1.98114E+04  4.82877E+04 -8.41187E+03  5.13578E+04
 -3.31501E+04  3.49961E+04 -4.37368E+04  1.03776E+04 -4.46463E+04 -1.62639E+04 -2.44523E+04 -3.95299E+04
  8.43085E+03 -4.05845E+04  3.12805E+04 -1.54309E+04  3.05333E+04  1.03879E+04  4.95134E+03  1.97522E+04
 -1.29434E+04  7.60889E+03 -1.07734E+04 -6.88838E+03  6.22373E+03 -8.90005E+03  1.75977E+04  4.71671E+03
  1.41868E+04  2.16697E+04 -7.66576E+03  2.57613E+04 -2.25051E+04  1.22172E+04 -2.94715E+04 -4.96097E+03
 -2.17946E+04 -1.73986E+04 -9.72700E+03 -2.14262E+04  4.12635E+03 -2.13950E+04  1.73282E+04 -1.93712E+04
  2.82328E+04 -1.40879E+04  3.50325E+04  4.27391E+03  2.48830E+04  2.15141E+04  5.40464E+03  3.86562E+04
 -1.94350E+04  3.07351E+04 -2.81476E+04  1.15148E+04 -2.04920E+04 -9.72835E+03 -4.31798E+03 -1.45280E+04
  2.30966E+03 -1.50306E+03 -6.00274E+03  7.17862E+03 -1.79557E+04  4.50866E+03 -1.78284E+04 -7.69225E+03
 -1.06696E+04 -2.09003E+04  5.65374E+03 -2.59608E+04  1.66814E+04 -1.81524E+04  1.97542E+04 -1.05743E+03
  1.16674E+04  1.50830E+04 -1.94891E+03  2.01237E+04 -1.46022E+04  1.08042E+04 -2.02391E+04 -4.58036E+03
 -1.57845E+04 -1.76343E+04 -2.74957E+03 -2.52235E+04  1.23971E+04 -2.10310E+04  2.09960E+04 -1.06629E+04
  1.90288E+04 -7.11875E+02  1.39347E+04  4.33356E+03  6.16069E+03  6.78951E+02  1.06057E+04 -2.03609E+03
  1.96315E+04  2.17932E+03  2.17514E+04  1.61046E+04  1.43992E+04  3.33772E+04 -3.14141E+03  3.72907E+04
 -2.23624E+04  3.13842E+04 -3.49820E+04  1.54899E+04 -3.84758E+04 -2.36298E+03 -2.99509E+04 -2.19714E+04
 -1.27312E+04 -3.27545E+04  1.10485E+04 -2.77665E+04  2.39924E+04 -1.29577E+04  2.06989E+04  5.71110E+03
  6.91398E+03  1.57330E+04 -1.07806E+04  1.28220E+04 -1.68933E+04  2.52957E+03 -1.27732E+04 -1.01867E+04
 -7.89313E+02 -1.72486E+04  9.26277E+03 -1.48046E+04  1.17450E+04 -1.65757E+03  2.90045E+03  6.85421E+03
 -7.15851E+03  4.03163E+03 -7.51382E+03 -5.57000E+03 -1.01532E+03 -1.47522E+04  1.05716E+04 -1.61924E+04
  1.81726E+04 -8.74669E+03  2.09549E+04  3.27309E+03  1.92968E+04  1.43805E+04  9.35953E+03  2.47589E+04
 -4.73218E+03  2.54735E+04 -1.65141E+04  1.60755E+04 -1.87566E+04  5.03379E+03 -1.34643E+04 -3.92679E+03
 -5.89798E+03 -6.37231E+03 -1.29330E+03 -3.05504E+01 -1.88627E+03  4.18072E+03 -6.58783E+03  5.23910E+03
 -1.29719E+04 -1.47619E+03 -1.24873E+04 -9.43271E+03 -4.86967E+03 -1.72166E+04  4.38009E+03 -1.18363E+04
  9.67637E+03 -5.88196E+03  8.10644E+03  4.96935E+03  8.80848E+02  5.71631E+03 -5.33060E+03  1.11533E+03
 -6.37025E+03 -8.37820E+03 -1.16097E+03 -1.24249E+04  6.98061E+03 -1.43807E+04  1.66311E+04 -7.35637E+03
  2.01550E+04  1.38119E+03  1.47264E+04  1.15358E+04  1.64714E+03  1.47704E+04 -7.71816E+03  1.23190E+04
 -1.17341E+04  2.90759E+03 -5.72346E+03 -2.93198E+03  2.29926E+03 -2.03695E+03  7.17816E+03 -9.35981E+02
  5.98030E+03  6.08054E+03  2.02441E+03  1.06657E+04 -7.75713E+03  9.72439E+03 -1.33596E+04  1.20031E+03
 -8.33738E+03 -6.96179E+03  3.46250E+01 -1.13870E+04  6.69188E+03 -5.36627E+03  8.24245E+03  2.56787E+03
  1.79148E+03  6.89330E+03 -7.87656E+03  7.69556E+03 -9.51576E+03  3.26694E+03 -9.98184E+03 -5.05443E+03
 -4.46992E+03 -1.24288E+04  3.79431E+03 -1.51223E+04  1.16829E+04 -7.99269E+03  1.27851E+04  1.92798E+03
  9.10192E+03  9.85481E+03 -1.40899E+03  1.31949E+04 -1.03853E+04  8.76433E+03 -1.03482E+04 -1.78796E+03
 -9.82063E+03 -8.50536E+03 -1.08716E+03 -9.09943E+03  4.82933E+03 -8.67774E+03  5.53603E+03 -3.99046E+03
  3.60601E+03  1.80454E+03 -6.82617E+02  2.05796E+03 -4.11562E+02 -3.53047E+03  2.51096E+03 -4.24179E+03
  8.77886E+03 -3.95008E+03  1.12174E+04  9.35916E+02  1.24903E+04  7.48018E+03  7.90583E+03  1.50345E+04
 -3.82220E+03  1.66417E+04 -1.55279E+04  1.40123E+04 -1.96822E+04  1.97167E+03 -1.69381E+04 -7.83921E+03
 -1.03555E+04 -1.20141E+04 -3.36265E+02 -9.92590E+03  4.66684E+03 -5.92136E+03  3.58744E+03 -3.80883E+03
  3.24534E+03 -2.27618E+03  2.76640E+03 -1.97631E+03  6.97720E+03 -2.42720E+03  7.67425E+03  1.13474E+03
  7.26751E+03  1.61891E+03  3.33212E+03  6.93910E+03 -2.46954E+03  8.40885E+03 -7.30936E+03  5.45481E+03
 -1.13327E+04 -6.28705E+02 -7.04752E+03 -6.87880E+03 -2.97423E+00 -1.17558E+04  7.41115E+03 -1.36375E+04
  1.21386E+04 -5.88959E+03  1.48311E+04  2.27144E+03  1.09727E+04  1.04044E+04  3.24939E+02  1.42748E+04
 -7.07460E+03  1.15211E+04 -7.76700E+03  3.94043E+03 -3.65510E+03 -1.79894E+03 -2.45393E+03 -1.23049E+03
 -1.37632E+03 -9.51399E+02 -7.41566E+02  1.76652E+03 -5.02936E+03  1.17190E+03 -8.64415E+03 -4.39087E+02
 -5.26243E+03 -7.96713E+03 -1.86492E+02 -1.16337E+04  6.70854E+03 -1.14209E+04  1.21236E+04 -3.35278E+03
  1.16305E+04  6.42690E+03  5.34705E+03  9.63981E+03 -1.05057E+03  1.11303E+04 -7.65736E+03  7.16382E+03
 -1.07849E+04  1.12763E+03 -7.60271E+03 -7.21579E+03 -8.15046E+02 -9.28011E+03  4.90984E+03 -7.21857E+03
  6.10756E+03 -1.77804E+03  4.26011E+03  3.00550E+03  1.95461E+03  3.68290E+03  4.29442E+02  1.31994E+03
  2.17471E+03  3.30709E+02  2.41518E+03  6.88926E+02  3.32234E+03  4.13674E+03  2.91005E+03  5.93309E+03
 -2.24550E+03  9.42832E+03 -8.05481E+03  1.09165E+04 -1.01078E+04  2.37028E+03 -1.08959E+04 -5.04795E+03
 -7.11440E+03 -9.84414E+03  1.63701E+03 -1.20289E+04  6.94649E+03 -7.01227E+03  8.98468E+03 -1.54010E+03
  7.44388E+03  4.89269E+03  1.71481E+03  6.05606E+03 -2.59422E+03  4.56536E+03 -4.77157E+03 -8.00360E+01
 -1.59384E+03 -3.76283E+03  3.88324E+03 -4.15608E+03  5.31674E+03 -2.31335E+03  4.77079E+03  1.74278E+03
  1.41851E+03  2.65657E+03  9.11307E+02  2.07780E+03 -5.54804E+02  4.16774E+02  1.91718E+03 -1.12733E+03
  1.71120E+03  3.03414E+02  6.05631E+03  1.88776E+03  1.79356E+03  5.24687E+03 -8.82423E+02  6.82284E+03
 -5.32337E+03  5.65731E+03 -6.87374E+03 -1.63509E+02 -6.07064E+03 -2.78247E+03 -2.38526E+03 -3.43524E+03
  5.21055E+02 -5.70176E+03  2.13934E+03 -2.59318E+03  3.07167E+03  2.52840E+03 -8.27089E+02  4.48110E+03
 -3.88295E+03  3.40150E+03 -3.47118E+03 -1.94978E+03 -2.98209E+03 -6.90118E+03  7.07517E+02 -6.36476E+03
  4.16027E+03 -4.11000E+03  5.55253E+03 -1.18062E+03  2.34034E+03  1.28806E+03  5.58435E+02  1.02712E+03
 -1.84533E+03  5.82115E+02 -3.45662E+03 -2.40112E+03  1.64295E+03 -3.79141E+03  5.73158E+03 -1.94402E+03
  5.55012E+03  1.79953E+03  5.39516E+03  3.73992E+03  3.42918E+03  7.01062E+03 -2.28149E+03  5.60133E+03
 -4.68134E+03  2.48817E+03 -4.66447E+03 -3.47903E+02 -2.40078E+03 -4.73197E+03  2.32009E+03 -3.96319E+03
  5.40164E+03 -2.78951E+03  2.92531E+03  1.12262E+03  8.55026E+02  2.66859E+03 -1.00096E+03  2.98735E+03
 -2.71697E+03  1.21143E+03 -1.50624E+03  1.06642E+02 -3.81778E+03  5.61073E+01 -1.50866E+03  1.22233E+03
 -1.37645E+03  2.48317E+03 -4.55106E+03  2.27407E+03 -6.81206E+03 -4.86105E+02 -9.44169E+03 -3.82727E+03
 -4.76164E+03 -9.22037E+03  1.13442E+03 -9.81941E+03  5.78727E+03 -5.84599E+03  1.01516E+04 -3.84424E+03
  8.49133E+03  2.60966E+03  5.14917E+03  6.18099E+03  2.83215E+02  7.10314E+03 -2.23999E+03  4.23314E+03
 -4.37611E+03  1.43103E+03 -3.25074E+03 -1.40142E+02 -1.76488E+03 -1.33842E+03  4.23047E+02  5.40386E+02
 -1.33420E+03 -2.10976E+02 -5.87974E+02  1.41045E+02 -6.37483E+02 -4.39478E+02  4.76118E+02 -2.85424E+03
  3.30218E+03 -3.23441E+03  3.37359E+03  4.73987E+02  4.44286E+03  4.11355E+03  1.96187E+03  7.92428E+03
 -3.23884E+03  7.18814E+03 -7.06982E+03  5.45593E+03 -8.24113E+03 -1.32285E+03 -6.41823E+03 -6.63513E+03
 -2.60738E+03 -7.30024E+03  3.41075E+03 -5.87758E+03  4.70309E+03 -2.31908E+03  6.16659E+03  1.57389E+02
  3.30907E+03  4.33081E+02  1.43910E+03  2.42964E+03 -1.38132E+03 -1.40439E+03 -4.38033E+02 -2.70834E+03
  1.59064E+03 -1.82432E+02  3.49721E+03  8.50118E+02  1.35387E+03  1.88650E+03  1.10941E+03  2.50950E+03
 -3.46705E+03  2.72820E+03 -4.37042E+03 -4.12915E+02 -2.95715E+03 -2.83463E+03 -4.78564E+02 -5.14362E+03
  2.53584E+03 -4.49423E+03  4.40209E+03 -4.86292E+02  5.36431E+03  2.39578E+03  2.53418E+03  3.51976E+03
 -2.96024E+01  4.65700E+03 -1.54820E+03  4.73849E+03 -2.84376E+03  2.01544E+03 -2.70890E+03  1.01221E+03
 -2.17826E+03 -1.10849E+03 -2.74379E+02  6.17392E+02 -3.70291E+03  1.59476E+03 -2.50241E+03  2.65020E+01
 -4.91228E+03 -2.46898E+03  8.96995E+02 -4.54854E+03  2.92627E+03 -5.28021E+03  4.19389E+03 -2.18098E+03
  3.28906E+03  4.15294E+02  2.90108E+03  3.84509E+03 -4.86451E+01  4.65654E+03 -2.65014E+03  3.27018E+03
