 $NMID ID='MM_0lb_SNR200_19hz_g50_12.RAW', FMTDAT='(8E13.5)'
 TRAMP=1., VOLUME=1. $END
  3.09958E+05 -2.27689E+01  3.38598E+05  2.50455E+05  8.47472E+04  3.36526E+05 -1.31690E+05  2.49845E+05
 -1.90005E+05  8.24601E+04 -1.11913E+05 -3.25429E+04  1.92736E+03 -4.97964E+04  5.29245E+04 -9.58993E+02
  3.49110E+04  5.29400E+04 -1.63178E+04  7.32817E+04 -6.04972E+04  6.27498E+04 -8.33770E+04  3.12309E+04
 -7.92606E+04 -1.08897E+04 -5.58408E+04 -5.02544E+04 -1.48077E+04 -6.73315E+04  2.70307E+04 -4.56681E+04
  3.84660E+04  3.61716E+03  1.55882E+04  4.78026E+04 -3.45113E+04  4.61863E+04 -6.45076E+04 -8.82577E+02
 -5.24683E+04 -5.57031E+04 -6.20643E+03 -7.54044E+04  3.28182E+04 -5.41100E+04  4.57150E+04 -1.64100E+04
  4.10371E+04  1.12375E+04  2.95459E+04  2.37782E+04  1.62228E+04  2.82552E+04 -4.53248E+03  2.64221E+04
 -2.18425E+04  1.23970E+04 -1.83407E+04 -3.97782E+03  4.34891E+03 -7.46783E+03  2.12984E+04  1.20589E+04
  7.46604E+03  3.36001E+04 -3.08306E+04  3.37885E+04 -6.14542E+04  2.07241E+03 -5.61613E+04 -4.04447E+04
 -1.24424E+04 -6.15357E+04  3.79299E+04 -4.36293E+04  5.57240E+04 -1.38577E+03  3.12833E+04  3.01612E+04
 -7.30099E+03  3.20974E+04 -2.80942E+04  1.42625E+04 -2.68376E+04 -5.21161E+03 -1.43187E+04 -1.02136E+04
 -7.52742E+03 -1.16419E+04 -3.85085E+02 -1.62440E+04  6.15377E+03 -2.28633E+04  1.54864E+04 -1.40687E+04
  1.18020E+04  4.20889E+03 -5.64553E+03  1.34681E+04 -1.89707E+04 -1.76874E+03 -7.92674E+03 -3.05793E+04
  2.10287E+04 -4.01305E+04  4.49813E+04 -1.80198E+04  4.29521E+04  1.77820E+04  1.46450E+04  4.13659E+04
 -1.49865E+04  3.07901E+04 -2.33747E+04  8.89813E+02 -8.04051E+03 -2.60439E+04  1.99073E+04 -3.15764E+04
  3.85703E+04 -7.83025E+03  3.31186E+04  2.21297E+04  1.57943E+04  4.27360E+04 -7.81671E+03  4.56232E+04
 -2.83629E+04  3.10010E+04 -3.80675E+04  8.76543E+03 -3.80552E+04 -1.47895E+04 -2.15287E+04 -3.39377E+04
  7.32697E+03 -3.42366E+04  2.86547E+04 -1.26680E+04  2.64832E+04  1.03656E+04  3.18655E+03  1.74823E+04
 -1.24070E+04  7.86659E+03 -8.64828E+03 -7.56610E+03  5.85163E+03 -9.36662E+03  1.70759E+04  6.08812E+03
  1.28680E+04  2.14156E+04 -6.48017E+03  2.38079E+04 -2.11730E+04  9.10720E+03 -2.50272E+04 -7.56862E+03
 -1.61092E+04 -1.67542E+04 -6.10541E+03 -1.69805E+04  3.69218E+03 -1.49157E+04  1.27940E+04 -1.44004E+04
  2.13766E+04 -1.19837E+04  2.86719E+04  1.67324E+03  2.16139E+04  1.67439E+04  3.35536E+03  3.23676E+04
 -1.58100E+04  2.71171E+04 -2.63084E+04  1.02921E+04 -1.93986E+04 -1.03755E+04 -3.37655E+03 -1.41244E+04
  2.72004E+03 -4.90430E+03 -3.11055E+03  5.43012E+03 -1.23514E+04  5.43118E+03 -1.25450E+04 -5.25474E+03
 -8.72767E+03 -1.57940E+04  5.12264E+03 -1.92730E+04  1.41504E+04 -1.42280E+04  1.27444E+04 -1.55094E+03
  1.06142E+04  1.05291E+04 -5.98783E+02  1.63611E+04 -1.07147E+04  7.87212E+03 -1.61229E+04 -3.71989E+03
 -1.26331E+04 -1.44856E+04 -1.09051E+03 -1.92630E+04  7.94948E+03 -1.62674E+04  1.58388E+04 -6.55264E+03
  1.49140E+04 -1.51250E+02  9.25566E+03  3.77146E+03  3.96891E+03  5.81450E+02  8.41221E+03 -9.29901E+02
  1.47913E+04  2.80550E+03  1.52617E+04  1.17597E+04  8.18702E+03  2.56021E+04 -2.74721E+03  2.64474E+04
 -1.54477E+04  2.00022E+04 -2.51137E+04  1.01862E+04 -2.46721E+04 -1.72745E+03 -2.14490E+04 -1.45457E+04
 -9.44782E+03 -2.00021E+04  6.61414E+03 -1.86423E+04  1.65991E+04 -1.03333E+04  1.58266E+04  4.19558E+03
  7.10483E+03  1.13881E+04 -7.19627E+03  1.03465E+04 -1.25307E+04  2.12965E+03 -9.79920E+03 -8.71167E+03
 -3.29630E+02 -1.35763E+04  5.82345E+03 -1.04022E+04  7.74512E+03 -1.88034E+03  1.53550E+03  4.91359E+03
 -5.37316E+03  1.03169E+03 -3.87596E+03 -4.04164E+03  7.98468E+02 -1.04740E+04  7.63986E+03 -9.96918E+03
  1.13755E+04 -4.19438E+03  1.18967E+04  2.52722E+03  9.89113E+03  9.79571E+03  4.44111E+03  1.26873E+04
 -1.38354E+03  1.63078E+04 -1.06083E+04  1.01894E+04 -1.11916E+04  3.64559E+03 -7.99332E+03 -1.56289E+03
 -3.62660E+03 -2.90741E+03 -1.07362E+03  1.37941E+03 -1.74347E+03  1.70061E+03 -2.91971E+03  3.15592E+03
 -8.48168E+03 -5.49091E+02 -9.64176E+03 -7.48957E+03 -2.48159E+03 -1.22901E+04  2.96346E+03 -8.90775E+03
  6.82508E+03 -3.82789E+03  5.33920E+03  1.79953E+03  1.28382E+03  3.75280E+03 -3.45271E+03 -5.86098E+02
 -2.96025E+03 -4.44534E+03 -7.34676E+02 -6.83518E+03  4.05718E+03 -6.93197E+03  1.06383E+04 -3.66289E+03
  1.11659E+04  1.46210E+02  9.85877E+03  5.93366E+03  2.16543E+03  8.21738E+03 -4.71071E+03  7.96683E+03
 -6.16569E+03  2.66256E+03 -3.01060E+03 -1.91966E+03  1.82782E+03 -1.94442E+03  5.74437E+03 -6.67326E+02
  4.61128E+03  3.15784E+03  6.94793E+01  5.17234E+03 -4.71524E+03  6.80668E+03 -7.86192E+03  9.31485E+02
 -5.44732E+03 -3.54426E+03  3.64041E+02 -6.87145E+03  3.24215E+03 -2.86335E+03  2.65410E+03  1.39613E+02
  2.77309E+02  3.78174E+03 -3.63591E+03  5.35664E+03 -4.72069E+03  2.06831E+03 -3.86466E+03 -1.74173E+03
 -2.77063E+03 -5.29568E+03  8.31606E+02 -7.18163E+03  5.75399E+03 -4.58593E+03  7.19126E+03  7.54882E+02
  4.04745E+03  4.65140E+03  3.27776E+02  7.99405E+03 -3.92087E+03  3.79986E+03 -4.60439E+03  1.95794E+02
 -5.44682E+03 -4.58132E+03 -2.17975E+03 -4.70985E+03  2.18644E+03 -5.14034E+03  3.56953E+03 -3.44693E+03
  2.80045E+03  1.20569E+03  1.07000E+03  1.88009E+03  2.11079E+03  9.96890E+02 -5.41552E+02 -1.43363E+03
  2.35091E+03 -3.06891E+02  4.65135E+03  3.43041E+02  5.89787E+03  3.08243E+03  4.45735E+03  6.91611E+03
 -2.10011E+03  9.18606E+03 -7.18839E+03  7.31728E+03 -9.40340E+03  5.05256E+02 -7.38282E+03 -1.93762E+03
 -4.16862E+03 -5.70110E+03 -8.55870E+02 -5.11012E+03  2.35964E+03 -2.81844E+03  1.92459E+03 -2.08958E+03
  1.24627E+03 -1.10453E+03  2.89305E+03 -2.21351E+03  2.06460E+03 -1.57854E+03  4.36174E+03  9.78106E+02
  3.92109E+03  8.71876E+02  1.36429E+03  2.61496E+03 -1.78137E+03  2.69949E+03 -3.54493E+03  2.07491E+03
 -5.10217E+03 -2.03522E+03 -1.86049E+03 -3.65999E+03  8.03080E+02 -5.45065E+03  2.65619E+03 -5.66602E+03
  4.68477E+03 -3.27291E+03  5.85834E+03  7.70314E+02  4.12307E+03  4.47617E+03  1.24542E+02  5.78890E+03
 -2.07527E+03  5.37032E+03 -2.37292E+03  1.53249E+03 -2.71959E+03 -6.42571E+02 -1.30914E+03 -1.26967E+03
 -3.28565E+02 -5.44227E+01 -3.11291E+02  2.44492E+03 -1.92710E+03  7.40466E+02 -3.11919E+03  1.71434E+02
 -1.45033E+03 -3.96834E+03  1.03283E+03 -4.46152E+03  2.02703E+03 -3.25156E+03  3.11061E+03 -4.47450E+02
  3.02009E+03  3.50473E+03  2.36633E+03  2.57535E+03 -2.31766E+03  3.62228E+03 -2.10725E+03  2.02806E+03
 -3.30087E+03  1.11963E+03 -3.47555E+03 -2.28074E+03 -2.80211E+02 -3.22914E+03  1.49040E+03 -2.16241E+03
  2.46999E+03 -5.10396E+02  2.03414E+03  9.78814E+02  4.42329E+02  1.18974E+03  1.05255E+03  7.25964E+02
  1.86850E+03  5.20858E+01  1.19172E+03  1.03482E+03  8.99049E+02  1.19515E+03  8.33466E+02  8.15641E+02
 -1.79651E+03  2.37129E+03 -2.14993E+03  4.34166E+03 -3.34790E+03  2.02232E+03 -3.64697E+03 -1.57436E+02
 -3.16213E+03 -4.33589E+03  5.96087E+02 -4.12205E+03  7.86224E+02 -2.17929E+03  2.67858E+03 -2.93971E+02
  3.06427E+03  1.76641E+03 -8.18757E+01  1.76649E+03 -3.03364E+02  1.07153E+03 -7.60928E+02 -6.21618E+02
 -3.49221E+02 -1.25581E+03  5.59429E+02 -1.31775E+03  1.05539E+03 -2.56323E+03  2.01509E+03 -4.05461E+01
  6.80490E+02  4.65345E+02  8.25874E+02  1.57227E+02 -8.39390E+02  8.95299E+02  1.71647E+03 -7.87597E+02
 -1.18897E+02 -7.81110E+02  7.83654E+02  5.95601E+02 -1.06478E+02  2.14199E+03 -6.02006E+02  2.77357E+03
 -1.54788E+03  9.60515E+02 -1.79051E+03  4.10097E+02 -1.26323E+03  5.28300E+02 -1.93611E+02 -2.97084E+02
  2.79694E+02 -7.48317E+02  7.18383E+02  1.03080E+02  3.49651E+01  1.49486E+03 -1.27476E+03  1.45411E+03
 -6.13573E+02  7.16228E+02 -1.70158E+03 -1.62695E+03 -3.63090E+02 -1.31446E+03  5.25105E+02 -1.75221E+03
 -2.83040E+02 -1.57084E+03  4.36439E+02  4.29466E+02  2.36824E+03 -9.58571E+02  1.28310E+02  7.75680E+02
  3.59706E+02  1.34794E+02 -8.27665E+02  1.24857E+02 -8.32479E+01 -5.80692E+02  1.63887E+03 -1.72754E+03
  6.47649E+02 -8.88337E+01  2.12641E+03  3.89587E+02  7.66392E+02  1.82032E+03  6.74300E+02  1.36340E+03
 -6.23288E+02  7.84327E+02 -3.66349E+02 -3.36796E+02 -8.17665E+02 -9.87345E+02 -7.20158E+02  4.94121E+02
  1.63060E+03 -8.08220E+02  3.72242E+02  6.93436E+02  1.37658E+02  1.19210E+03  1.15397E+03  2.50067E+03
 -6.46440E+02  7.99462E+02 -7.28534E+02  4.62161E+02  5.31923E+02  3.17632E+00 -4.02438E+02  7.29064E+02
 -3.38750E+02  1.59409E+03 -1.72371E+03 -4.57611E+02 -4.54758E+02  5.09383E+02 -2.96929E+03 -4.13018E+02
 -8.16642E+02 -1.77967E+03  1.57295E+03 -2.46130E+03  1.31091E+03 -3.15120E+03  1.89217E+03 -9.05694E+02
  3.09790E+03 -1.10047E+02  2.30734E+02  1.64382E+03 -2.92523E+02  2.15084E+03  6.87840E+01  8.16767E+02
  2.04105E+02  4.05146E+02 -5.31796E+02 -3.14076E+01 -5.23101E+02  4.34889E+01 -2.70419E+02 -8.25567E+01
 -6.00991E+02 -2.53458E+02  5.11343E+02 -2.07274E+02  2.20908E+02  8.02141E+02 -8.93848E+02 -1.01634E+03
  5.30141E+02  6.56419E+01  9.09351E+01  2.94629E+02  2.12811E+03  1.37830E+02 -1.07774E+03  2.83566E+02
 -9.19750E+02  1.98175E+03 -9.46859E+02 -1.52639E+02 -2.26699E+03  3.03557E+02 -2.10427E+03 -8.21911E+02
 -1.11876E+03 -1.03466E+03  4.72729E+02 -1.27383E+03 -3.50935E+02 -5.29045E+02  5.14792E+02  1.80498E+02
  1.20738E+03  2.48651E+02 -7.44988E+02  6.10795E+02  2.89806E+02  9.41141E+01  2.00186E+02  6.43824E+02
  4.44037E+02  1.36080E+03  4.31505E+02 -1.16588E+02 -2.12232E+02  2.94111E+02  2.47379E+02  8.82771E+02
 -9.59029E+02  2.56254E+02 -2.17886E+02  8.83178E+02 -9.87928E+02 -6.47821E+02  5.04228E+02 -2.62089E+02
  1.67227E+02 -1.59752E+03  3.92721E+02 -2.49051E+02  8.64425E+02 -1.03465E+03  5.39030E+02 -6.87533E+02
  7.36718E+02 -5.92468E+02 -1.11995E+02  7.43135E+02 -1.79835E+02  7.11991E+01  7.44611E+02  2.05181E+02
  2.74780E+02 -1.10595E+03 -5.87017E+02 -5.59444E+02 -3.48745E+01  3.55450E+02 -8.78840E+02 -6.46935E+02
 -7.33397E+01 -1.29069E+03  4.93753E+02 -1.03156E+03  1.15309E+03 -2.37411E+03  8.55410E+02  1.89068E+02
 -1.97783E+02  3.72186E+02 -1.44821E+02 -8.55158E+02 -9.83957E+02  3.06113E+02 -1.12924E+02 -7.00764E+01
