 $NMID ID='MM_0lb_SNR200_19hz_g55_13.RAW', FMTDAT='(8E13.5)'
 TRAMP=1., VOLUME=1. $END
  3.10081E+05  1.00480E+03  3.37400E+05  2.51847E+05  8.44166E+04  3.37607E+05 -1.33153E+05  2.50428E+05
 -1.89255E+05  8.29935E+04 -1.10966E+05 -3.38112E+04  1.21760E+03 -5.06092E+04  5.32008E+04 -1.50471E+03
  3.57044E+04  5.30426E+04 -1.67446E+04  7.47792E+04 -6.03315E+04  6.26027E+04 -8.41599E+04  3.21549E+04
 -8.02512E+04 -1.08184E+04 -5.62196E+04 -5.17356E+04 -1.57154E+04 -6.82982E+04  2.68494E+04 -4.46413E+04
  3.91815E+04  3.98809E+03  1.61573E+04  4.76037E+04 -3.40626E+04  4.67384E+04 -6.56196E+04 -1.84757E+02
 -5.20945E+04 -5.66129E+04 -6.68304E+03 -7.66600E+04  3.39745E+04 -5.44297E+04  4.61348E+04 -1.59881E+04
  4.24796E+04  1.17282E+04  3.13673E+04  2.43606E+04  1.57536E+04  2.87940E+04 -3.90052E+03  2.70172E+04
 -2.07786E+04  1.26337E+04 -1.92079E+04 -4.85339E+03  3.94620E+03 -8.02690E+03  2.21130E+04  1.05688E+04
  7.35774E+03  3.37643E+04 -3.11528E+04  3.33823E+04 -6.21194E+04  2.53268E+03 -5.61828E+04 -4.24341E+04
 -1.37984E+04 -6.11963E+04  3.88798E+04 -4.32176E+04  5.47188E+04 -2.36713E+03  3.23500E+04  3.05008E+04
 -5.99248E+03  3.42386E+04 -2.85474E+04  1.35963E+04 -2.74561E+04 -4.50002E+03 -1.49001E+04 -9.76657E+03
 -6.43107E+03 -1.15291E+04 -1.35821E+03 -1.63982E+04  7.19389E+03 -2.33500E+04  1.54489E+04 -1.49620E+04
  1.26362E+04  4.07877E+03 -7.43249E+03  1.30993E+04 -2.02489E+04 -3.01593E+03 -8.18594E+03 -3.17528E+04
  2.17057E+04 -4.08974E+04  4.55784E+04 -1.87022E+04  4.27523E+04  1.90971E+04  1.30570E+04  4.22166E+04
 -1.56390E+04  3.25177E+04 -2.30807E+04  8.90895E+02 -8.42225E+03 -2.73835E+04  2.11739E+04 -3.12528E+04
  3.85349E+04 -8.00514E+03  3.23212E+04  2.36909E+04  1.62000E+04  4.33907E+04 -8.17624E+03  4.59567E+04
 -2.87680E+04  3.03528E+04 -3.81384E+04  8.63088E+03 -3.90927E+04 -1.57680E+04 -2.26766E+04 -3.52116E+04
  6.81494E+03 -3.40858E+04  3.00342E+04 -1.19885E+04  2.77006E+04  1.08601E+04  2.85588E+03  1.86296E+04
 -1.26019E+04  6.92985E+03 -1.09829E+04 -7.30086E+03  6.67168E+03 -1.05236E+04  1.69693E+04  6.41314E+03
  1.22599E+04  2.22159E+04 -5.77512E+03  2.44400E+04 -2.06852E+04  1.01385E+04 -2.55949E+04 -6.10545E+03
 -1.74272E+04 -1.58714E+04 -6.31112E+03 -1.74801E+04  3.37132E+03 -1.60494E+04  1.39609E+04 -1.50333E+04
  2.21130E+04 -1.16064E+04  2.69774E+04  5.76935E+02  2.00237E+04  1.74800E+04  4.63047E+03  3.31246E+04
 -1.63002E+04  2.80340E+04 -2.61148E+04  1.03077E+04 -1.92430E+04 -1.01347E+04 -3.80730E+03 -1.45975E+04
  2.29325E+03 -5.29906E+03 -3.56811E+03  6.04852E+03 -1.24867E+04  4.97102E+03 -1.35178E+04 -5.67613E+03
 -9.43557E+03 -1.59151E+04  3.92998E+03 -1.92061E+04  1.33362E+04 -1.44947E+04  1.44898E+04 -1.28989E+03
  9.18156E+03  1.10834E+04 -6.35499E+02  1.64664E+04 -1.11859E+04  8.89075E+03 -1.67003E+04 -3.72476E+03
 -1.13119E+04 -1.49919E+04 -1.75256E+03 -1.93673E+04  9.07577E+03 -1.52476E+04  1.67582E+04 -9.21562E+03
  1.53458E+04  3.18723E+02  1.08337E+04  4.00124E+03  4.64923E+03  2.27539E+02  7.15746E+03 -1.71029E+02
  1.37769E+04  1.86932E+03  1.47449E+04  1.32064E+04  8.61537E+03  2.58881E+04 -2.87985E+03  2.83223E+04
 -1.55815E+04  2.07915E+04 -2.40557E+04  1.08615E+04 -2.63442E+04 -1.97210E+03 -2.19062E+04 -1.54005E+04
 -9.98351E+03 -2.01113E+04  6.56915E+03 -1.86326E+04  1.79588E+04 -1.18983E+04  1.68859E+04  4.18311E+03
  7.27176E+03  1.09431E+04 -7.42770E+03  1.07796E+04 -1.29523E+04  2.74485E+03 -1.12875E+04 -7.95874E+03
 -3.50039E+02 -1.21487E+04  5.73419E+03 -9.29782E+03  8.26404E+03 -1.70001E+03  2.86073E+03  4.96945E+03
 -4.26677E+03  1.33304E+03 -4.37865E+03 -4.87320E+03  7.17137E+02 -1.09794E+04  7.49953E+03 -1.05821E+04
  1.20419E+04 -5.29141E+03  1.11926E+04  2.72499E+03  1.13450E+04  9.33282E+03  5.16271E+03  1.44509E+04
 -1.51636E+03  1.60567E+04 -1.02824E+04  1.01287E+04 -1.16531E+04  1.99910E+03 -8.51560E+03 -1.72609E+03
 -4.92355E+03 -4.42470E+03  2.61920E+01  2.29106E+03 -2.41089E+03  1.36123E+03 -4.46644E+03  4.57877E+03
 -7.73503E+03 -3.10779E+02 -7.56254E+03 -7.11701E+03 -3.16911E+03 -1.09203E+04  2.72571E+03 -8.37365E+03
  6.24567E+03 -4.35494E+03  5.83695E+03  2.15125E+03  9.63606E+02  2.73483E+03 -3.78058E+03  2.29793E+02
 -3.97295E+03 -5.55629E+03 -5.64507E+02 -7.37569E+03  4.60365E+03 -8.73635E+03  8.69324E+03 -3.59032E+03
  1.16630E+04  6.50363E+02  9.02927E+03  5.92589E+03  2.42473E+03  8.31853E+03 -5.50147E+03  8.65352E+03
 -6.90617E+03  2.40050E+03 -3.36099E+03 -1.67290E+03  2.17696E+03 -1.76142E+03  6.81005E+03 -1.23333E+03
  3.41430E+03  4.27421E+03  1.19209E+03  7.04425E+03 -5.28582E+03  6.05349E+03 -7.34992E+03  2.26157E+03
 -4.93256E+03 -4.46725E+03  1.20824E+02 -5.98836E+03  4.16743E+03 -3.86838E+03  3.70652E+03  1.42249E+03
  7.99421E+02  2.95014E+03 -4.37751E+03  5.52247E+03 -5.27070E+03  2.55163E+03 -4.72840E+03 -1.38535E+03
 -3.55311E+03 -5.92443E+03  1.16736E+03 -6.40551E+03  5.48528E+03 -5.35861E+03  6.73334E+03  1.08568E+03
  5.47111E+03  4.75012E+03 -2.71043E+02  7.97698E+03 -4.72905E+03  4.68678E+03 -4.71137E+03 -1.33310E+02
 -4.44981E+03 -5.00630E+03 -8.67875E+02 -5.63313E+03  2.74484E+03 -4.34494E+03  3.10064E+03 -4.04214E+03
  2.50388E+03 -6.58610E+02  2.83870E+02  1.20660E+03  1.27670E+03 -3.41899E+02 -1.00149E+03 -1.54419E+03
  4.22763E+03 -9.97070E+02  5.67574E+03  1.25977E+03  4.99956E+03  4.34391E+03  5.80392E+03  7.42936E+03
 -2.46146E+03  8.92870E+03 -8.17983E+03  7.07506E+03 -8.70887E+03  4.17171E+02 -7.49344E+03 -1.99778E+03
 -5.02333E+03 -5.17930E+03 -7.30397E+02 -5.92055E+03  1.55545E+03 -1.75532E+03  1.41605E+03 -1.54141E+03
  1.42427E+03 -2.31193E+03  1.48554E+03 -3.02065E+03  5.29335E+03 -7.24000E+02  4.87186E+03  1.69044E+03
  3.85752E+03  7.49614E+02 -1.78004E+02  3.34298E+03 -1.11386E+03  2.78156E+03 -3.74727E+03  2.93676E+03
 -4.86559E+03 -1.48768E+03 -2.19165E+03 -3.27460E+03  1.39188E+03 -4.22518E+03  2.78395E+03 -5.03812E+03
  4.59811E+03 -3.48853E+03  7.45030E+03  5.23298E+02  4.54348E+03  3.23331E+03  1.26463E+03  6.03450E+03
 -2.14734E+03  5.45687E+03 -2.99146E+03  2.37389E+03 -1.17803E+03 -1.13129E+03  2.34196E+01 -2.02223E+03
 -1.71674E+03  4.31856E+02 -9.69239E+02  1.77800E+03 -2.46713E+03  1.07851E+03 -3.33313E+03 -9.41279E+02
 -1.64092E+03 -5.24383E+03  9.29911E+02 -4.00015E+03  2.13220E+03 -3.92423E+03  3.48779E+03 -1.70095E+03
  4.46488E+03  2.20549E+03  2.55340E+03  2.90362E+03 -1.15912E+03  5.14614E+03 -2.68550E+03  1.45628E+03
 -3.80285E+03  8.73588E+01 -3.53423E+03 -3.24170E+03 -5.64879E+02 -2.50202E+03  2.08066E+03 -1.93862E+03
  2.75871E+03 -2.42821E+03  1.96073E+03  1.27376E+02  1.40137E+03  1.80891E+03  5.32588E+02 -1.58453E+02
  2.13973E+03 -2.75655E+02  1.94224E+03  1.04674E+03  1.67454E+03  2.61619E+03  1.07665E+03  1.68850E+03
 -2.38379E+02  3.39146E+03 -2.06778E+03  4.02564E+03 -1.91440E+03  8.16295E+02 -3.55789E+03 -5.26631E+02
 -1.43638E+03 -3.02172E+03  1.27296E+03 -3.62376E+03  1.82908E+03 -2.28081E+03  2.75640E+03 -5.65517E+02
  1.66024E+03  2.37594E+03  5.61144E+02  1.50999E+03 -1.18996E+03  1.67411E+03 -7.90308E+02  7.03888E+02
 -6.11203E+02 -1.53949E+03  1.34931E+03 -1.57711E+02  7.14082E+02 -1.66551E+03  9.70166E+02  5.13313E+02
  1.27429E+02 -1.60094E+02  1.12157E+03 -4.06327E+01  9.94541E+02  1.10793E+03  1.59207E+03 -5.74167E+02
  9.54513E+02  7.05999E+02 -5.84895E+01  6.90750E+02  1.67098E+03  2.83494E+03 -6.49276E+02  2.18052E+03
 -1.71184E+03  1.36729E+03 -2.27079E+03  6.83598E+02 -8.22644E+02 -5.83061E+01  3.86627E+02 -2.69555E+01
  1.96007E+02 -6.27782E+02  7.16575E+02 -8.44571E+02  6.43039E+02  2.66274E+02 -8.16830E+02  7.52288E+02
 -1.36802E+03  1.02934E+03 -6.25328E+02 -1.94152E+03 -8.90357E+02 -2.19732E+03  1.17077E+03 -2.63861E+03
 -7.28876E+01 -2.06885E+02  1.63321E+03  1.19361E+02  7.65850E+02  5.22691E+02  1.61407E+03 -3.86602E+02
 -5.54668E+02 -5.92899E+02 -8.91258E+02 -5.25687E+02  7.58758E+02 -2.00351E+03  7.54947E+02 -1.33785E+03
  1.24215E+03  1.59883E+02  2.56823E+03  1.05957E+03  7.17565E+02  5.53451E+01  6.43362E+02  1.62179E+03
 -9.71029E+02 -1.29778E+03 -1.57125E+03  4.41700E+02  1.02683E+03 -2.01929E+03 -1.11669E+03 -8.29834E+02
  1.54634E+03 -4.29825E+02  7.67988E+02  4.86638E+02 -3.69463E+02  9.84705E+02  9.36041E+02  8.20063E+02
 -1.17387E+03  2.75868E+02 -4.80026E+02  3.44464E+02  8.50286E+02 -8.36497E+00 -2.80656E+02 -1.37639E+02
 -8.76441E+02 -1.39167E+02 -4.42218E+02  9.03692E+02 -8.83653E+02  1.56026E+03 -2.70752E+03 -1.30638E+03
 -1.23265E+03 -2.47970E+03  1.04290E+03 -1.94449E+03  8.94746E+02 -2.71065E+03  1.79475E+03 -2.15197E+02
  2.59251E+03 -5.05172E+02  1.74064E+03  1.27049E+03 -2.88199E+02  8.70279E+02 -4.43737E+02  1.06210E+03
 -4.50570E+02 -8.21479E+02  2.53040E+02 -6.77693E+02  5.10627E+02  5.41199E+01  1.75726E+02 -5.19998E+02
 -1.15160E+03 -7.03598E+02 -3.69158E+02  1.01070E+03  3.94085E+02 -5.33075E+02 -6.90034E+02 -1.86838E+03
  1.48912E+03 -7.69774E+02 -6.01130E+02  8.70105E+02  1.31718E+03  1.38948E+03 -1.05299E+02  1.60231E+03
 -5.62185E+02  1.77614E+03 -9.69617E+02  1.06280E+03 -1.82307E+03 -6.11005E+02 -6.98785E+02 -7.09525E+02
 -1.41386E+03 -1.25755E+03 -2.45878E+02 -8.49348E+02  9.46117E+02 -1.63288E+02  2.02759E+02 -1.06910E+03
  1.06678E+03 -8.00772E+01  3.63900E+02  3.43055E+02 -2.07415E+02 -7.27410E+02 -4.05136E+02 -5.15340E+02
  6.88497E+02 -1.26366E+02 -1.28137E+02  1.42585E+02 -7.11966E+02  9.24071E+02 -7.39334E+02  1.37805E+03
  1.08297E+02  1.23118E+03 -1.31251E+03  2.00858E+02 -7.72609E+02 -7.77183E+02 -3.50473E+02 -1.73926E+03
 -1.14984E+02  6.22374E+02 -1.06818E+02 -5.19320E+02  1.59722E+02  4.88900E+02  1.35511E+03  2.86935E+01
  9.50602E+02  5.74402E+02  4.26685E+02  8.23819E+02  2.23879E+02  6.14687E+02 -2.96563E+02 -2.96528E+02
 -1.28033E+02 -3.00260E+02 -6.40464E+01  9.66589E+02 -1.87244E+03 -2.77576E+02 -4.51977E+02  2.18585E+02
 -2.92347E+02  3.74880E+01 -1.17240E+03  2.11059E+02 -9.85659E+01 -1.88725E+03  1.21312E+03 -4.93902E+02
  6.87905E+02  4.22087E+02  8.98321E+02 -4.34297E+02  1.05078E+03  8.61583E+02 -5.41300E+02  1.27134E+02
