 $NMID ID='MM_0lb_SNR200_7hz_g45_32.RAW', FMTDAT='(8E13.5)'
 TRAMP=1., VOLUME=1. $END
  3.10523E+05  3.92435E+01  3.40436E+05  2.52096E+05  8.62285E+04  3.38696E+05 -1.32478E+05  2.51718E+05
 -1.90684E+05  8.33394E+04 -1.12307E+05 -3.29600E+04 -8.80307E+02 -5.05029E+04  5.31366E+04 -1.61691E+03
  3.36196E+04  5.57524E+04 -1.70664E+04  7.52047E+04 -6.11306E+04  6.34997E+04 -8.50163E+04  3.40776E+04
 -8.25500E+04 -1.31356E+04 -5.81736E+04 -5.34007E+04 -1.62143E+04 -7.13716E+04  2.77537E+04 -4.82712E+04
  4.15902E+04  3.85757E+03  1.84116E+04  5.01043E+04 -3.47940E+04  4.82776E+04 -6.71277E+04 -1.52057E+02
 -5.61411E+04 -5.85343E+04 -7.02291E+03 -7.99803E+04  3.22860E+04 -5.76338E+04  4.95389E+04 -2.05646E+04
  4.69621E+04  1.29000E+04  3.36993E+04  2.52572E+04  1.58234E+04  3.02475E+04 -3.66373E+03  2.88617E+04
 -2.34895E+04  1.19667E+04 -1.61830E+04 -6.35151E+03  7.82741E+03 -8.40705E+03  2.23678E+04  1.49505E+04
  5.83556E+03  3.74321E+04 -3.32054E+04  3.79019E+04 -6.71868E+04  2.25477E+03 -6.06175E+04 -4.56114E+04
 -1.10382E+04 -6.63212E+04  4.45318E+04 -4.88030E+04  6.11368E+04 -2.17293E+03  3.89303E+04  3.55908E+04
 -5.92319E+03  4.02457E+04 -3.23265E+04  2.02232E+04 -3.33731E+04 -3.91359E+03 -1.90658E+04 -1.17767E+04
 -1.01991E+04 -1.28627E+04  1.38436E+03 -1.96850E+04  7.70641E+03 -2.33640E+04  1.66133E+04 -1.22464E+04
  1.15459E+04  8.77149E+03 -1.09994E+04  1.23053E+04 -2.40093E+04 -6.80183E+03 -9.66236E+03 -3.80730E+04
  2.62778E+04 -4.80433E+04  5.38494E+04 -2.12233E+04  5.04245E+04  2.09484E+04  1.91243E+04  4.89539E+04
 -1.47612E+04  3.53654E+04 -3.08732E+04  2.76629E+03 -1.17232E+04 -2.96145E+04  2.25879E+04 -3.82726E+04
  4.48750E+04 -1.30372E+04  4.10604E+04  2.53877E+04  2.24270E+04  5.30913E+04 -9.30992E+03  5.89545E+04
 -3.71008E+04  4.03752E+04 -4.91163E+04  1.05723E+04 -5.00972E+04 -1.98337E+04 -2.80341E+04 -4.37565E+04
  9.13422E+03 -4.42418E+04  3.49230E+04 -2.10523E+04  3.36333E+04  9.49856E+03  6.48806E+03  2.33544E+04
 -1.26830E+04  9.40042E+03 -1.07309E+04 -7.37581E+03  6.48935E+03 -1.11840E+04  1.90116E+04  5.72830E+03
  1.57614E+04  2.29464E+04 -4.74313E+03  2.75067E+04 -2.30978E+04  1.54948E+04 -3.21102E+04 -6.73471E+02
 -2.76746E+04 -1.90565E+04 -1.22227E+04 -2.65689E+04  4.69138E+03 -2.88785E+04  2.18866E+04 -2.56304E+04
  3.33306E+04 -1.45088E+04  4.01183E+04  5.43498E+03  2.87168E+04  2.37251E+04  4.59068E+03  4.34449E+04
 -2.06878E+04  3.70190E+04 -3.17158E+04  1.22547E+04 -2.26691E+04 -1.06807E+04 -4.33898E+03 -1.35168E+04
  2.14568E+02 -1.21277E+03 -1.02818E+04  8.78531E+03 -2.04499E+04  4.65131E+03 -2.18696E+04 -1.03086E+04
 -1.25973E+04 -2.66919E+04  5.16206E+03 -2.89502E+04  2.06117E+04 -2.28173E+04  2.32998E+04 -2.23840E+03
  1.60709E+04  1.44507E+04 -2.83392E+03  2.52486E+04 -1.90487E+04  1.37887E+04 -2.43393E+04 -5.08195E+03
 -1.75814E+04 -2.34463E+04 -7.70365E+02 -2.84804E+04  1.25752E+04 -2.44616E+04  2.57467E+04 -1.35373E+04
  2.40693E+04 -1.65971E+03  1.67400E+04  6.79373E+03  9.02807E+03  1.34476E+03  1.21348E+04 -2.71054E+03
  2.25958E+04  2.37723E+03  2.84687E+04  1.95570E+04  1.83130E+04  4.17617E+04 -3.52151E+03  4.73701E+04
 -2.72552E+04  4.04444E+04 -4.56402E+04  2.19885E+04 -4.90991E+04 -4.09058E+03 -3.98480E+04 -2.93079E+04
 -1.58980E+04 -3.98579E+04  1.27809E+04 -3.51846E+04  2.89426E+04 -1.47555E+04  2.63959E+04  8.28292E+03
  7.98118E+03  2.22810E+04 -1.02615E+04  1.50631E+04 -2.10513E+04  2.58135E+03 -1.65323E+04 -1.36928E+04
  8.42285E+02 -2.06354E+04  1.09164E+04 -1.41347E+04  1.45240E+04 -6.55317E+02  3.60265E+03  9.26871E+03
 -1.06949E+04  4.41864E+03 -9.51330E+03 -6.83348E+03 -1.96360E+03 -1.98193E+04  1.28853E+04 -2.48011E+04
  2.52953E+04 -1.27688E+04  2.90382E+04  2.01386E+03  2.44454E+04  1.99670E+04  1.22439E+04  3.36419E+04
 -3.91367E+03  3.65256E+04 -2.31873E+04  1.98446E+04 -2.46155E+04  5.07841E+03 -1.47677E+04 -6.91007E+03
 -7.24891E+03 -8.23213E+03 -1.63798E+02  1.61618E+03 -4.41719E+03  5.02022E+03 -6.80427E+03  6.35613E+03
 -1.55345E+04 -2.78171E+03 -1.69824E+04 -1.23719E+04 -5.62565E+03 -2.17571E+04  6.04415E+03 -1.83860E+04
  1.47594E+04 -7.84722E+03  9.14762E+03  3.73490E+03  1.27761E+03  5.68796E+03 -9.16230E+03 -5.59097E+02
 -8.56364E+03 -1.13544E+04 -8.46487E+02 -1.64644E+04  1.09491E+04 -1.70697E+04  2.31651E+04 -1.00676E+04
  2.81526E+04  2.92478E+03  1.93548E+04  1.60860E+04  5.29000E+03  2.14511E+04 -9.96227E+03  1.63042E+04
 -1.39271E+04  4.55125E+03 -7.15358E+03 -4.65692E+03  1.99726E+03 -4.71289E+03  8.18603E+03 -1.23752E+03
  7.00065E+03  4.98735E+03 -8.89571E+01  1.48925E+04 -9.72991E+03  1.22857E+04 -1.83089E+04  2.55089E+03
 -1.20984E+04 -8.48382E+03  1.82993E+03 -1.65775E+04  8.01615E+03 -7.04810E+03  1.08093E+04  3.37377E+03
  1.59002E+03  1.06049E+04 -9.55527E+03  1.28912E+04 -1.61184E+04  4.03979E+03 -1.87188E+04 -6.53975E+03
 -1.00002E+04 -1.65529E+04  6.08318E+03 -2.07698E+04  1.74856E+04 -1.32846E+04  2.00914E+04  2.22288E+03
  1.21161E+04  1.59167E+04 -1.96944E+03  1.78963E+04 -1.30158E+04  9.43518E+03 -1.58372E+04 -1.64071E+03
 -1.01502E+04 -1.33962E+04 -1.63149E+03 -1.52478E+04  7.07713E+03 -1.06439E+04  7.73697E+03 -3.61522E+03
  4.78219E+03  2.55574E+03 -1.82902E+03  1.01218E+03 -1.30224E+02 -3.96644E+03  3.06290E+03 -8.49152E+03
  1.42847E+04 -6.85377E+03  1.69067E+04  9.37117E+02  1.78901E+04  1.50537E+04  9.61743E+03  2.48330E+04
 -6.42807E+03  2.77156E+04 -2.14987E+04  2.09025E+04 -3.11429E+04  3.45690E+03 -2.40064E+04 -1.19282E+04
 -1.23415E+04 -1.94177E+04  2.94256E+02 -1.77676E+04  5.93426E+03 -1.01675E+04  7.19189E+03 -6.62674E+03
  5.56101E+03 -3.15087E+03  4.47657E+03 -3.62256E+03  4.11285E+03 -4.13301E+03  9.33058E+03 -8.98072E+02
  1.24572E+04  2.98128E+03  5.09262E+03  1.32665E+04 -2.31125E+03  1.51807E+04 -1.40002E+04  1.14084E+04
 -1.84977E+04 -1.20048E+03 -1.03636E+04 -1.05039E+04 -3.24560E+03 -1.86638E+04  1.10888E+04 -1.74817E+04
  1.85781E+04 -9.65000E+03  2.40734E+04  4.05017E+03  1.65996E+04  1.63379E+04  3.04486E+03  2.05838E+04
 -9.70331E+03  1.93390E+04 -1.35727E+04  4.55506E+03 -1.03474E+04 -2.44207E+03 -5.53376E+03 -1.90240E+03
 -2.54448E+03 -1.77219E+03 -1.66691E+03  2.88869E+03 -7.88455E+03  3.33054E+03 -1.28083E+04 -1.90478E+03
 -7.98172E+03 -1.29079E+04  1.46025E+03 -1.86848E+04  8.98537E+03 -1.63641E+04  1.86315E+04 -4.70736E+03
  1.71371E+04  7.97720E+03  7.41889E+03  1.52637E+04 -4.46168E+03  1.95556E+04 -1.17703E+04  1.14423E+04
 -1.65286E+04  3.93158E+02 -1.40793E+04 -1.00717E+04 -2.15372E+03 -1.52215E+04  7.20798E+03 -9.97881E+03
  1.13742E+04 -3.73607E+03  7.92131E+03  2.93953E+03  2.96708E+03  2.88377E+03  8.79918E+02  2.37045E+03
  3.57196E+03  1.46351E+03  4.33935E+03  8.36792E+02  6.96166E+03  6.93827E+03  1.73114E+03  8.51516E+03
 -1.13313E+03  1.44764E+04 -1.42509E+04  1.41373E+04 -1.71757E+04  3.50248E+03 -2.03343E+04 -7.59092E+03
 -9.61301E+03 -1.85560E+04  4.05565E+03 -1.98694E+04  1.20007E+04 -1.20286E+04  1.53293E+04 -4.59452E+03
  1.28466E+04  6.30590E+03  2.01306E+03  1.04320E+04 -7.57106E+03  6.82465E+03 -6.68066E+03 -8.48147E+02
 -3.84279E+03 -6.92023E+03  3.70722E+03 -9.54533E+03  6.80380E+03 -5.66961E+03  6.90496E+03  2.01390E+03
  3.51442E+03  3.46319E+03  7.07511E+02  3.77499E+03 -6.73713E+01  1.30194E+03  1.68111E+03 -1.14430E+03
  4.54504E+03 -1.73694E+03  8.27036E+03  3.20025E+03  5.81847E+03  1.09060E+04 -2.91598E+03  1.34083E+04
 -8.77163E+03  8.80944E+03 -1.31551E+04  2.96588E+03 -1.12667E+04 -5.39556E+03 -4.78699E+03 -8.56239E+03
  2.16786E+03 -9.46003E+03  5.66123E+03 -3.56757E+03  2.57683E+03  3.06018E+03 -1.69645E+03  5.94187E+03
 -6.20849E+03  3.69054E+03 -9.70422E+03 -4.98586E+03 -4.92163E+03 -1.18606E+04  1.32722E+03 -1.13046E+04
  5.26896E+03 -8.78622E+03  7.95017E+03  1.65546E+03  7.68527E+03  4.28164E+03  3.65054E+03  4.98175E+03
 -3.66014E+03  1.71620E+03 -4.57767E+03 -5.20593E+03  1.72502E+03 -6.79883E+03  8.45285E+03 -5.70668E+03
  1.32344E+04 -4.05598E+02  1.05349E+04  9.48766E+03  5.25020E+03  1.25656E+04 -4.13372E+03  1.22045E+04
 -1.19441E+04  6.71994E+03 -1.22531E+04 -2.82278E+03 -5.76123E+03 -6.66718E+03  7.74815E+02 -7.80689E+03
  8.22272E+03 -5.45651E+03  8.06746E+03  4.02568E+03  3.73103E+03  6.95213E+03 -8.53895E+02  6.67241E+03
 -5.43831E+03  4.54783E+03 -1.16943E+03  2.38015E+03 -3.21054E+03  8.89565E+02 -5.13570E+01  2.92601E+03
 -2.04762E+03  5.70064E+03 -8.94440E+03  5.29709E+03 -1.41747E+04 -6.38700E+02 -1.32175E+04 -8.77806E+03
 -8.68994E+03 -1.80975E+04  3.44422E+03 -1.99275E+04  1.34697E+04 -1.51277E+04  2.02062E+04 -5.84783E+03
  1.86097E+04  4.69392E+03  1.25254E+04  1.16389E+04  7.49151E+02  1.32934E+04 -4.31072E+03  9.60692E+03
 -7.46157E+03  4.05991E+03 -4.17950E+03 -5.42510E+02 -2.45398E+03 -1.16737E+03 -1.16524E+03 -3.27595E+02
 -2.32465E+03  1.07582E+03 -3.39664E+03  7.71357E+02 -1.19774E+03 -3.29135E+03  2.22931E+03 -7.08786E+03
  5.28297E+03 -5.66585E+03  9.13838E+03 -1.69592E+03  8.05364E+03  6.78460E+03  1.94740E+03  1.44033E+04
 -4.47661E+03  1.72013E+04 -1.41240E+04  1.05161E+04 -1.63226E+04 -9.82123E+02 -1.38007E+04 -9.25105E+03
 -4.45680E+03 -1.38277E+04  5.13101E+03 -1.44726E+04  1.04135E+04 -5.69776E+03  1.08766E+04 -8.60933E+01
  4.47732E+03  3.27627E+03 -5.88672E+02  4.50578E+03 -1.80768E+03  8.48843E+01 -8.30355E+02 -3.45099E+03
  3.64381E+03 -2.07759E+03  6.55285E+03  1.22740E+03  4.70283E+03  6.37777E+03  1.30146E+03  5.69250E+03
 -7.23090E+03  8.23971E+03 -8.74253E+03  2.10087E+03 -8.36419E+03 -6.72988E+03 -5.95336E+02 -1.05677E+04
  4.73290E+03 -1.10284E+04  1.16876E+04 -4.63493E+03  1.12999E+04  2.52328E+03  5.54881E+03  8.51738E+03
  1.50426E+03  1.07813E+04 -4.04861E+03  6.64507E+03 -6.58353E+03  4.44208E+03 -4.59754E+03 -9.67437E+02
 -4.03119E+03 -1.65892E+03 -2.01348E+03  1.69490E+03 -4.72457E+03  2.04342E+03 -7.70560E+03 -1.70583E+03
 -7.10613E+03 -6.46110E+03 -8.77757E+02 -8.66743E+03  3.83305E+03 -9.65288E+03  9.26936E+03 -5.66142E+03
  1.05052E+04  3.60223E+03  5.88070E+03  6.53598E+03 -4.74666E+02  1.00741E+04 -6.24110E+03  5.39968E+03
