 $NMID ID='MM_0lb_SNR200_11hz_g55_30.RAW', FMTDAT='(8E13.5)'
 TRAMP=1., VOLUME=1. $END
  3.10347E+05  1.92649E+03  3.39119E+05  2.52703E+05  8.28443E+04  3.36799E+05 -1.32174E+05  2.52060E+05
 -1.90119E+05  8.21604E+04 -1.12687E+05 -3.43612E+04 -2.01849E+02 -5.02675E+04  5.32691E+04 -6.21784E+02
  3.68873E+04  5.28174E+04 -1.73303E+04  7.55084E+04 -6.25468E+04  6.34855E+04 -8.49519E+04  3.23326E+04
 -8.23285E+04 -1.12906E+04 -5.67449E+04 -5.23518E+04 -1.44408E+04 -7.15094E+04  2.69348E+04 -4.55634E+04
  4.06906E+04  4.86112E+03  1.68354E+04  4.77946E+04 -3.49765E+04  4.77113E+04 -6.79752E+04 -6.18859E+02
 -5.53657E+04 -5.72044E+04 -6.27619E+03 -7.89823E+04  3.43584E+04 -5.78632E+04  4.88333E+04 -1.84994E+04
  4.53963E+04  1.21698E+04  3.27364E+04  2.65639E+04  1.61535E+04  3.10613E+04 -6.15416E+03  2.76923E+04
 -2.18355E+04  1.32091E+04 -1.81865E+04 -5.23520E+03  6.14011E+03 -6.78642E+03  2.31615E+04  1.21288E+04
  5.94768E+03  3.58184E+04 -3.21231E+04  3.77581E+04 -6.57500E+04  1.62222E+03 -5.86879E+04 -4.41172E+04
 -1.28862E+04 -6.61761E+04  4.14835E+04 -4.68471E+04  5.92242E+04 -3.43721E+03  3.67266E+04  3.20775E+04
 -6.54681E+03  3.82755E+04 -3.29069E+04  1.76778E+04 -3.20891E+04 -3.32912E+03 -1.91050E+04 -1.23839E+04
 -9.11252E+03 -1.52333E+04 -1.11629E+03 -1.96713E+04  8.07655E+03 -2.26816E+04  1.60759E+04 -1.40128E+04
  1.07916E+04  5.13279E+03 -9.07652E+03  1.35681E+04 -2.21447E+04 -6.43097E+03 -7.87618E+03 -3.64524E+04
  2.44684E+04 -4.43466E+04  5.12127E+04 -1.88852E+04  4.82675E+04  2.10030E+04  1.69010E+04  4.55504E+04
 -1.81268E+04  3.51217E+04 -2.79192E+04  1.01621E+03 -1.12087E+04 -2.96836E+04  2.16278E+04 -3.56167E+04
  4.25902E+04 -1.18100E+04  3.91265E+04  2.37236E+04  1.97043E+04  4.87156E+04 -9.30397E+03  5.46693E+04
 -3.43752E+04  3.61619E+04 -4.55695E+04  1.01566E+04 -4.58408E+04 -1.95045E+04 -2.58204E+04 -4.06955E+04
  8.80782E+03 -4.10648E+04  3.37778E+04 -1.64104E+04  3.22345E+04  1.11642E+04  4.56036E+03  1.99426E+04
 -1.34577E+04  9.07089E+03 -1.18315E+04 -7.92455E+03  4.73535E+03 -9.61347E+03  1.82783E+04  4.48642E+03
  1.37171E+04  2.37715E+04 -4.51206E+03  2.67651E+04 -2.21389E+04  1.28728E+04 -3.06889E+04 -4.46463E+03
 -2.49761E+04 -1.93591E+04 -1.05527E+04 -2.51883E+04  4.28291E+03 -2.36015E+04  1.86665E+04 -2.17343E+04
  3.02046E+04 -1.25048E+04  3.70983E+04  5.13232E+03  2.48781E+04  2.22991E+04  5.07256E+03  3.93897E+04
 -2.04160E+04  3.33413E+04 -3.10908E+04  1.02111E+04 -2.18033E+04 -1.09708E+04 -3.92686E+03 -1.27916E+04
  4.12075E+02  1.08019E+02 -6.72670E+03  7.74467E+03 -2.08291E+04  3.64076E+03 -1.99316E+04 -7.95249E+03
 -1.15280E+04 -2.20690E+04  5.86070E+03 -2.62186E+04  1.70579E+04 -2.01269E+04  2.16965E+04 -2.02458E+03
  1.30340E+04  1.36775E+04 -2.26691E+03  2.27740E+04 -1.57257E+04  1.26881E+04 -2.28939E+04 -3.54162E+03
 -1.55578E+04 -1.83409E+04 -2.61397E+03 -2.57722E+04  1.25940E+04 -2.10954E+04  2.35277E+04 -1.15201E+04
  1.99892E+04 -1.62113E+03  1.50144E+04  4.25059E+03  7.37821E+03  1.32359E+03  1.18039E+04 -1.85101E+03
  2.03670E+04  3.30060E+03  2.39591E+04  1.70921E+04  1.50593E+04  3.61582E+04 -2.77312E+03  4.06033E+04
 -2.23644E+04  3.44667E+04 -3.70350E+04  1.56225E+04 -4.17413E+04 -2.46241E+03 -3.32099E+04 -2.44504E+04
 -1.31337E+04 -3.43113E+04  1.21525E+04 -2.89728E+04  2.63375E+04 -1.46090E+04  2.34879E+04  7.91570E+03
  9.11955E+03  1.89314E+04 -1.00495E+04  1.42878E+04 -1.89311E+04  8.60020E+02 -1.40333E+04 -1.28364E+04
 -5.00268E+02 -1.78363E+04  9.29853E+03 -1.32531E+04  1.26219E+04 -9.36155E+02  2.07001E+03  9.26330E+03
 -8.21532E+03  3.33773E+03 -8.15138E+03 -7.44328E+03 -6.76050E+02 -1.69207E+04  1.18129E+04 -1.80887E+04
  2.03854E+04 -1.07114E+04  2.39817E+04  1.98557E+03  2.07731E+04  1.61143E+04  9.99456E+03  2.62203E+04
 -5.46235E+03  2.82279E+04 -1.73461E+04  1.91150E+04 -1.86961E+04  2.83240E+03 -1.53854E+04 -4.10405E+03
 -5.45252E+03 -5.76615E+03 -8.29065E+02 -1.00882E+03 -2.02157E+03  2.43811E+03 -7.50821E+03  4.17249E+03
 -1.34895E+04  2.33799E+02 -1.39675E+04 -1.08181E+04 -5.98053E+03 -1.91296E+04  3.77546E+03 -1.38872E+04
  1.23346E+04 -7.24053E+03  8.56405E+03  4.47423E+03 -7.13314E+02  5.53223E+03 -6.93143E+03 -1.10273E+03
 -5.87612E+03 -7.73085E+03 -1.33085E+03 -1.48301E+04  7.83595E+03 -1.55930E+04  1.85337E+04 -8.01767E+03
  2.19064E+04  2.88966E+02  1.51238E+04  1.29641E+04  2.80331E+03  1.62144E+04 -8.88653E+03  1.38738E+04
 -1.18394E+04  4.23804E+03 -6.94234E+03 -4.04910E+03  2.15410E+03 -4.81992E+03  6.56332E+03 -9.52384E+02
  7.46614E+03  6.13776E+03  1.06420E+03  1.10594E+04 -7.61869E+03  1.08601E+04 -1.32526E+04  2.45122E+03
 -9.88145E+03 -7.66939E+03  8.16093E+02 -1.37936E+04  6.68390E+03 -5.36796E+03  9.06935E+03  3.79244E+03
  1.94257E+03  8.66138E+03 -8.48417E+03  9.62434E+03 -1.04477E+04  4.91399E+03 -1.19293E+04 -3.98691E+03
 -6.98847E+03 -1.38685E+04  3.34123E+03 -1.73744E+04  1.37024E+04 -1.03670E+04  1.56444E+04  3.13768E+03
  9.50914E+03  1.01708E+04 -2.30699E+03  1.23198E+04 -1.02342E+04  8.17253E+03 -1.02614E+04 -6.85925E+02
 -9.82242E+03 -9.56457E+03 -2.17078E+03 -1.13369E+04  5.33209E+03 -8.71016E+03  6.08989E+03 -3.47539E+03
  5.10380E+03  2.66655E+03 -1.07840E+03  1.63479E+03 -9.65425E+02 -3.75617E+03  4.56211E+02 -7.14546E+03
  9.22794E+03 -4.21455E+03  1.42337E+04  1.03196E+03  1.20289E+04  8.32232E+03  9.93542E+03  1.66526E+04
 -4.99144E+03  2.06200E+04 -1.71518E+04  1.63842E+04 -2.31639E+04  3.86475E+03 -1.71024E+04 -7.96782E+03
 -1.00710E+04 -1.51373E+04 -4.29569E+02 -1.26042E+04  4.85675E+03 -7.06216E+03  4.63955E+03 -3.88673E+03
  2.47103E+03 -3.39850E+03  5.88664E+03 -4.17148E+03  6.17626E+03 -2.68165E+03  8.00492E+03 -9.83383E+02
  9.58393E+03  1.94464E+03  5.24184E+03  8.04840E+03 -2.96506E+03  8.07999E+03 -9.56451E+03  6.76166E+03
 -1.25465E+04 -3.21499E+02 -7.55201E+03 -8.30266E+03 -2.37184E+03 -1.18367E+04  7.63792E+03 -1.33504E+04
  1.48282E+04 -6.58892E+03  1.63425E+04  1.80169E+03  1.18372E+04  1.12827E+04  1.51022E+03  1.38943E+04
 -5.46284E+03  1.20400E+04 -9.72881E+03  4.54037E+03 -7.06518E+03 -1.93518E+03 -3.18078E+03 -2.03923E+03
 -1.07976E+03 -4.87322E+02 -2.76245E+03  3.41299E+03 -6.37409E+03  2.66497E+03 -8.40209E+03 -1.44845E+03
 -6.13960E+03 -8.43416E+03  1.21540E+03 -1.20161E+04  6.66335E+03 -1.14337E+04  1.25308E+04 -4.15876E+03
  1.34140E+04  6.07361E+03  5.96984E+03  1.07952E+04 -2.27112E+03  1.17574E+04 -9.62533E+03  6.50157E+03
 -1.07065E+04  6.42096E+02 -9.68209E+03 -6.92575E+03 -8.47379E+02 -1.03385E+04  5.43510E+03 -6.86190E+03
  6.65095E+03 -2.73542E+03  3.60480E+03  1.41766E+03  1.81514E+03  4.35206E+03  1.04525E+03  1.59963E+03
  2.38236E+03  5.96545E+02  2.47464E+03  2.03185E+03  4.37101E+03  5.01190E+03  2.89384E+03  6.15244E+03
 -3.33100E+03  9.70237E+03 -8.92043E+03  1.04403E+04 -1.24941E+04  2.93569E+03 -1.35965E+04 -4.85134E+03
 -5.88602E+03 -1.26425E+04  1.44196E+03 -1.38674E+04  6.66255E+03 -6.74752E+03  9.30594E+03 -2.96809E+03
  8.62852E+03  4.89794E+03  1.92271E+03  6.21442E+03 -3.36235E+03  4.73758E+03 -5.50190E+03 -7.29158E+02
 -2.34324E+03 -5.82417E+03  2.91347E+03 -5.49649E+03  5.38786E+03 -9.63218E+02  2.63357E+03 -5.46589E+02
  3.27034E+03  1.90781E+03  1.56907E+03  3.63153E+03 -9.29723E+02  9.96401E+02  2.24408E+03  1.05338E+02
  2.32887E+03 -1.45580E+02  5.53366E+03  9.22875E+02  3.43550E+03  8.09814E+03 -1.24083E+03  9.56378E+03
 -5.98952E+03  4.92876E+03 -7.26564E+03  1.51934E+03 -6.60962E+03 -2.71564E+03 -1.84208E+03 -3.41745E+03
  8.99721E+02 -4.23398E+03  2.99082E+03 -1.67470E+03  3.48262E+03  2.08382E+02 -1.28198E+03  3.98332E+03
 -3.65695E+03  3.17139E+03 -4.57766E+03 -3.19855E+03 -3.56404E+03 -8.18835E+03 -2.41142E+02 -6.27763E+03
  4.25454E+03 -2.52147E+03  4.53713E+03 -7.41584E+02  4.28512E+03  2.46449E+03  5.22743E+02  3.17221E+03
 -2.10231E+03 -4.06599E+02 -3.27603E+03 -2.06937E+03  7.01626E+02 -5.90874E+03  6.65072E+03 -3.34208E+03
  8.52258E+03 -2.23698E+02  8.31894E+03  3.78415E+03  2.04594E+03  7.51754E+03 -2.08755E+03  7.09590E+03
 -7.46453E+03  2.33075E+03 -7.25413E+03 -6.42395E+02 -3.31420E+03 -4.94800E+03  7.02118E+02 -4.20900E+03
  4.75346E+03 -2.43927E+03  2.93333E+03  2.09148E+03  7.24100E+02  4.40220E+03  3.12112E+02  4.22846E+03
 -1.12021E+03  3.64217E+03 -2.54871E+03  1.29615E+03 -8.89695E+02  1.33598E+03 -1.17914E+03  1.06582E+03
 -2.03515E+03  4.62372E+03 -6.22377E+03  1.78594E+03 -7.22178E+03  6.40205E+02 -8.03586E+03 -4.71699E+03
 -5.27372E+03 -9.53918E+03  2.31493E+03 -1.11500E+04  7.54066E+03 -8.54989E+03  1.09704E+04 -2.97395E+03
  9.78230E+03  2.61107E+03  6.46262E+03  6.71552E+03  2.70031E+02  6.40688E+03 -3.90996E+03  5.80701E+03
 -4.48300E+03  1.48072E+03 -2.81033E+03 -3.21937E+02 -2.14246E+03 -4.85390E+02 -2.77238E+02 -1.63654E+03
 -2.53297E+03  1.22650E+02 -2.00062E+03  5.10072E+02 -1.07238E+03 -1.49387E+03  4.72512E+02 -3.43031E+03
  3.70282E+03 -1.73287E+03  4.69264E+03  4.26307E+02  6.29453E+03  3.85029E+03 -2.45647E+02  7.41211E+03
 -4.19542E+03  8.20521E+03 -7.71572E+03  5.19881E+03 -9.99475E+03 -1.27665E+03 -7.82972E+03 -5.78425E+03
 -1.66579E+03 -7.97723E+03  4.17971E+03 -8.72135E+03  6.57162E+03 -3.57571E+03  4.19586E+03 -2.77874E+02
  3.52282E+03  1.84061E+03 -3.99804E+02  1.93411E+03 -1.36598E+03  7.09241E+02 -5.35207E+02 -6.98323E+02
  7.08776E+02 -2.22282E+03  4.09035E+03  1.40683E+03  2.37419E+03  2.37559E+03  1.37870E+03  2.33311E+03
 -1.91041E+03  3.23589E+03 -5.30352E+03  5.41944E+02 -4.70273E+03 -3.59646E+03 -1.34719E+02 -6.60443E+03
  4.93882E+03 -4.48379E+03  5.03236E+03  2.35009E+02  6.73147E+03  1.53219E+03  2.72229E+03  4.59393E+03
  1.43893E+02  4.71194E+03 -2.81597E+03  3.50024E+03 -3.59101E+03  2.55108E+03 -2.86967E+03 -3.27389E+02
 -1.52942E+03  6.57745E+02 -5.02534E+02  3.76287E+02 -1.91404E+03  5.16472E+02 -4.29132E+03 -2.43343E+03
 -4.31374E+03 -2.14943E+03 -6.72574E+02 -4.76285E+03  2.84567E+03 -5.22211E+03  5.68976E+03 -2.93311E+03
  5.04157E+03 -3.61975E+02  2.80007E+03  3.94988E+03  5.31730E+02  5.71856E+03 -4.46203E+03  4.19465E+03
