 $NMID ID='MM_0lb_SNR200_12hz_g45_90.RAW', FMTDAT='(8E13.5)'
 TRAMP=1., VOLUME=1. $END
  3.09681E+05  1.40924E+03  3.37163E+05  2.50109E+05  8.48488E+04  3.38748E+05 -1.32957E+05  2.51163E+05
 -1.91248E+05  8.32973E+04 -1.12093E+05 -3.28976E+04  1.16002E+03 -5.03841E+04  5.41626E+04 -5.64413E+02
  3.54535E+04  5.25816E+04 -1.74992E+04  7.43323E+04 -6.12034E+04  6.39634E+04 -8.37809E+04  3.11181E+04
 -8.04899E+04 -1.11402E+04 -5.75290E+04 -5.12222E+04 -1.49215E+04 -6.88217E+04  2.69916E+04 -4.61316E+04
  4.03594E+04  3.41012E+03  1.65052E+04  4.77623E+04 -3.42423E+04  4.77081E+04 -6.84101E+04  1.90574E+02
 -5.39696E+04 -5.75629E+04 -7.40243E+03 -7.77253E+04  3.45119E+04 -5.59816E+04  4.93589E+04 -1.89068E+04
  4.34394E+04  1.11078E+04  3.22042E+04  2.52972E+04  1.62632E+04  2.91267E+04 -6.33931E+03  2.63982E+04
 -2.14367E+04  1.08960E+04 -2.01180E+04 -4.70546E+03  8.05945E+03 -6.46613E+03  2.29597E+04  1.15959E+04
  6.59642E+03  3.54232E+04 -3.36564E+04  3.49528E+04 -6.41970E+04  2.37029E+03 -5.76733E+04 -4.40228E+04
 -1.26238E+04 -6.31086E+04  3.98584E+04 -4.64041E+04  5.83390E+04 -4.01518E+03  3.36328E+04  3.27514E+04
 -6.43211E+03  3.78265E+04 -3.05467E+04  1.60977E+04 -3.04051E+04 -4.41275E+03 -1.66610E+04 -9.85947E+03
 -8.04384E+03 -1.39880E+04  4.06641E+02 -1.93692E+04  6.38538E+03 -2.21055E+04  1.60189E+04 -1.23642E+04
  1.15821E+04  5.26767E+03 -9.29754E+03  1.30870E+04 -2.07979E+04 -5.27148E+03 -8.11731E+03 -3.56810E+04
  2.19631E+04 -4.35004E+04  4.98832E+04 -2.05084E+04  4.74898E+04  1.93404E+04  1.57351E+04  4.37831E+04
 -1.63131E+04  3.40782E+04 -2.64601E+04  1.89321E+03 -1.17169E+04 -2.86266E+04  2.12452E+04 -3.58947E+04
  4.14766E+04 -9.43861E+03  3.59466E+04  2.21911E+04  1.85442E+04  4.79293E+04 -7.39356E+03  5.17819E+04
 -3.22256E+04  3.69453E+04 -4.35402E+04  9.56786E+03 -4.37236E+04 -1.77633E+04 -2.45504E+04 -3.94263E+04
  6.23361E+03 -3.87988E+04  3.25840E+04 -1.64576E+04  2.90839E+04  1.12744E+04  4.69321E+03  2.00956E+04
 -1.48887E+04  9.10675E+03 -1.10263E+04 -8.34302E+03  5.27115E+03 -1.01300E+04  1.82273E+04  7.35180E+03
  1.49084E+04  2.20139E+04 -5.80408E+03  2.53647E+04 -2.29445E+04  1.16186E+04 -2.92053E+04 -3.77210E+03
 -2.09098E+04 -1.68434E+04 -9.75101E+03 -2.25876E+04  3.69230E+03 -2.16004E+04  1.58121E+04 -2.04410E+04
  2.84132E+04 -1.22647E+04  3.42163E+04  3.55466E+03  2.42901E+04  2.07932E+04  3.64483E+03  3.70318E+04
 -1.78093E+04  3.21368E+04 -2.80187E+04  1.16832E+04 -2.12821E+04 -9.64405E+03 -4.58756E+03 -1.28122E+04
  7.26098E+01 -1.94460E+03 -6.50007E+03  7.37965E+03 -1.73036E+04  4.49499E+03 -1.76163E+04 -7.87067E+03
 -1.07539E+04 -2.06337E+04  5.70347E+03 -2.42235E+04  1.65585E+04 -1.67967E+04  1.86751E+04 -2.58575E+03
  1.16235E+04  1.29314E+04 -1.49266E+02  2.03768E+04 -1.30707E+04  1.14641E+04 -2.21526E+04 -5.28424E+03
 -1.53600E+04 -1.92240E+04 -2.95250E+03 -2.46695E+04  1.19428E+04 -2.06681E+04  2.13188E+04 -9.66383E+03
  1.91889E+04 -9.39154E+02  1.36559E+04  4.62668E+03  7.12265E+03 -3.37927E+02  1.11296E+04 -2.80825E+03
  1.74539E+04  2.52938E+03  2.05308E+04  1.54143E+04  1.35577E+04  3.34571E+04 -3.12757E+03  3.82251E+04
 -2.22644E+04  3.04128E+04 -3.48092E+04  1.46347E+04 -3.65953E+04 -1.95051E+03 -2.97131E+04 -2.12603E+04
 -1.33424E+04 -2.97218E+04  1.09497E+04 -2.75268E+04  2.38710E+04 -1.35070E+04  2.15577E+04  7.25663E+03
  7.59303E+03  1.48504E+04 -1.01924E+04  1.36149E+04 -1.74311E+04  3.18327E+03 -1.35212E+04 -1.16401E+04
 -1.39016E+03 -1.56024E+04  8.42813E+03 -1.21311E+04  1.05633E+04 -8.91810E+02  1.48903E+03  6.14514E+03
 -6.19742E+03  3.40333E+03 -7.16012E+03 -5.35111E+03 -7.60477E+02 -1.55465E+04  1.08800E+04 -1.58325E+04
  1.84848E+04 -9.51054E+03  2.14753E+04  2.84229E+03  1.84688E+04  1.46047E+04  7.98774E+03  2.24053E+04
 -4.42489E+03  2.55560E+04 -1.53499E+04  1.48542E+04 -1.72905E+04  3.77315E+03 -1.25022E+04 -3.46384E+03
 -5.76593E+03 -6.13712E+03 -6.55159E+02  5.56346E+02 -2.70977E+03  3.12969E+03 -6.92307E+03  3.28804E+03
 -1.16690E+04  1.60221E+02 -1.32847E+04 -1.03241E+04 -4.91874E+03 -1.52859E+04  4.53752E+03 -1.12237E+04
  1.00122E+04 -6.32068E+03  6.65803E+03  3.01621E+03 -4.38274E+02  4.00083E+03 -6.22801E+03 -3.54743E+02
 -7.19282E+03 -7.63660E+03 -8.72503E+02 -1.31277E+04  6.27730E+03 -1.22165E+04  1.52201E+04 -7.13152E+03
  1.85909E+04  1.53428E+03  1.29140E+04  9.74946E+03  2.50907E+03  1.53440E+04 -6.82146E+03  1.14048E+04
 -9.65108E+03  4.61629E+03 -6.08803E+03 -2.84947E+03  1.28662E+03 -4.51676E+03  7.20383E+03 -1.55885E+03
  5.13363E+03  5.60803E+03  3.09819E+02  8.86746E+03 -7.08195E+03  9.74939E+03 -1.21194E+04  3.47455E+03
 -7.02970E+03 -6.14745E+03  3.02733E+02 -1.07554E+04  5.29952E+03 -5.47589E+03  6.31136E+03  2.07491E+03
  1.22992E+03  7.35038E+03 -6.13410E+03  8.81785E+03 -1.00827E+04  3.23066E+03 -9.27427E+03 -3.66871E+03
 -7.07069E+03 -1.19421E+04  1.13452E+03 -1.43414E+04  9.99067E+03 -8.84847E+03  1.34797E+04  3.59917E+03
  7.62294E+03  1.04261E+04 -1.03802E+03  1.17146E+04 -9.61764E+03  6.98747E+03 -1.09429E+04  4.22030E+02
 -7.92739E+03 -8.95713E+03 -2.60773E+03 -7.37384E+03  5.89981E+03 -7.69179E+03  5.17730E+03 -3.05655E+03
  5.14689E+03  6.95356E+02  1.93433E+02  3.38833E+02 -1.06426E+03 -3.01905E+03  1.70049E+03 -6.29351E+03
  7.14139E+03 -2.59761E+03  9.98939E+03 -5.27462E+01  1.15742E+04  7.39524E+03  7.93882E+03  1.47215E+04
 -4.52230E+03  1.73275E+04 -1.36585E+04  1.31549E+04 -1.88969E+04  2.34145E+03 -1.48434E+04 -6.65713E+03
 -7.71230E+03 -1.22722E+04 -2.80435E+02 -1.17286E+04  4.32395E+03 -5.91700E+03  4.26686E+03 -5.06371E+03
  2.54545E+03 -1.38380E+03  3.69776E+03 -2.64067E+03  4.94906E+03 -3.38884E+03  6.14140E+03 -1.97230E+03
  8.62349E+03  3.04422E+03  3.34163E+03  6.20714E+03 -2.56235E+03  8.36934E+03 -7.78009E+03  7.08028E+03
 -1.01784E+04 -1.09479E+03 -4.48231E+03 -8.18858E+03 -1.21345E+03 -1.27363E+04  6.88648E+03 -1.18025E+04
  1.26842E+04 -6.68661E+03  1.33408E+04  1.34299E+03  9.93310E+03  9.77127E+03  1.59856E+03  1.28457E+04
 -5.78418E+03  1.05761E+04 -8.02576E+03  4.42404E+03 -4.04562E+03 -1.52064E+03 -2.02754E+03 -1.83504E+03
 -1.47500E+03  3.25548E+02 -9.52382E+02  1.51019E+03 -6.03038E+03  1.52820E+03 -6.84643E+03 -7.81634E+02
 -3.71436E+03 -6.74906E+03 -4.42577E+02 -1.06089E+04  6.75841E+03 -9.23926E+03  8.95396E+03 -3.14542E+03
  9.98775E+03  6.26172E+03  4.64971E+03  8.93197E+03 -2.32443E+03  9.42311E+03 -7.21737E+03  6.77027E+03
 -9.96223E+03  5.45478E+02 -8.15517E+03 -6.74104E+03 -7.39141E+01 -8.28203E+03  4.02297E+03 -6.55270E+03
  6.87713E+03 -2.30321E+03  4.03954E+03  9.16897E+02  2.29441E+03  3.57327E+03  1.77891E+03  1.33041E+02
  1.65373E+03  1.40313E+03  3.38925E+03  1.38667E+03  4.41844E+03  3.36299E+03  2.38084E+03  5.80984E+03
 -1.96027E+03  6.96068E+03 -6.27454E+03  7.23029E+03 -8.99046E+03  1.96547E+03 -9.97642E+03 -2.82967E+03
 -4.62276E+03 -1.08061E+04  1.90884E+03 -1.15931E+04  4.69129E+03 -6.82669E+03  8.38863E+03 -1.75564E+03
  5.81807E+03  3.80126E+03  2.15035E+03  5.15102E+03 -1.58336E+03  4.03511E+03 -3.64814E+03  4.08547E+02
 -3.03074E+03 -4.08585E+03  2.16080E+03 -3.81934E+03  3.33012E+03 -8.78782E+02  3.43290E+03  1.21476E+03
  2.59704E+03  1.71564E+03  2.55578E+02  5.44177E+02 -3.36384E+02  2.42128E+03  1.37502E+03  1.62969E+02
  2.28254E+03 -5.76563E+02  3.98657E+03  1.16128E+03  2.82917E+03  5.15665E+03  5.45461E+02  7.28579E+03
 -5.15007E+03  3.24613E+03 -4.93768E+03  1.46377E+03 -5.56522E+03 -1.62896E+03 -1.64964E+03 -3.13452E+03
 -3.29542E+02 -2.87168E+03  8.97591E+02 -1.21309E+03  2.03779E+03  2.28564E+03 -1.11613E+03  3.18759E+03
 -3.56354E+03  1.44906E+03 -5.78254E+03 -3.18409E+03 -1.84650E+03 -4.45616E+03  1.50332E+03 -4.94283E+03
  3.74043E+03 -3.40268E+03  2.08801E+03  2.55774E+02  3.91770E+03  4.08345E+02 -4.89680E+02  3.85884E+03
 -1.86942E+03  1.87985E+03 -3.26354E+03 -1.62644E+03  2.19298E+03 -3.81742E+03  4.77382E+03 -3.12983E+03
  6.51597E+03  1.15575E+03  6.94160E+03  3.61684E+03  1.90349E+03  6.31771E+03 -8.91448E+02  4.51157E+03
 -5.44376E+03  2.10359E+03 -6.11086E+03 -3.17064E+02 -3.34986E+03 -4.56932E+03 -4.37950E+02 -3.73866E+03
  4.52380E+03 -2.42248E+03  2.48459E+03  2.77212E+03  6.18580E+02  3.32902E+03  2.48293E+00  3.07865E+03
 -2.87772E+03  8.94193E+02 -2.40700E+03  1.40922E+03 -4.00723E+02  6.41996E+02 -2.78883E+03  1.42105E+03
 -1.89917E+03  3.49573E+03 -3.86732E+03  1.00490E+03 -5.02065E+03  5.17503E+02 -7.66109E+03 -4.41247E+03
 -3.10724E+03 -7.87024E+03  2.93248E+03 -8.78714E+03  5.00479E+03 -7.06226E+03  7.19107E+03 -3.20788E+03
  7.94382E+03  2.35170E+03  4.66144E+03  5.24939E+03 -6.51462E+02  6.20528E+03 -1.60887E+03  4.45111E+03
 -3.26779E+03  2.57871E+03 -1.42239E+03 -1.10028E+02 -7.73251E+02 -9.55722E+02 -6.05494E+02  1.24979E+03
 -1.10572E+03 -7.98818E+02 -1.46985E+03 -7.83972E+01 -1.56347E+03 -1.83098E+03  8.57901E+02 -1.95620E+03
  2.22426E+03 -2.36420E+02  4.46339E+03 -1.41899E+02  5.53552E+03  2.69191E+03  3.99191E+02  5.79989E+03
 -2.44782E+03  7.26755E+03 -6.85755E+03  3.83230E+03 -7.63603E+03  1.40799E+03 -6.09938E+03 -4.23529E+03
 -1.95137E+03 -6.28291E+03  1.89486E+03 -5.75574E+03  3.13411E+03 -3.30520E+03  3.85658E+03  1.38971E+03
  2.09328E+03  1.25702E+03  1.27488E+03  2.03952E+03 -8.81127E+01 -1.64670E+02  7.73462E+02 -9.68698E+02
  2.42544E+03  5.78501E+02  2.07531E+03  1.31034E+03  2.04534E+03  1.32282E+03  1.20840E+03  3.19999E+03
 -2.53917E+03  2.44242E+03 -4.06031E+03  2.90880E+01 -3.56877E+03 -2.05461E+03 -5.97589E+02 -5.61052E+03
  2.19177E+03 -2.48648E+03  4.49700E+03  5.36419E+02  4.34492E+03  6.43345E+02  1.06153E+03  3.97997E+03
  1.94364E+03  3.74233E+03 -1.35546E+03  2.34595E+03 -2.76989E+03  7.43638E+01 -2.33810E+03  2.01550E+01
 -9.56956E+02  2.68169E+02 -1.66673E+03 -5.94198E+02 -1.95673E+03  7.24299E+02 -1.77800E+03 -1.41200E+03
 -4.86655E+03 -1.54856E+03 -1.26222E+03 -3.86841E+03  2.83905E+03 -4.10066E+03  2.44235E+03 -1.66853E+03
  2.92900E+03  4.85874E+02  2.12048E+03  2.76639E+03 -1.15092E+01  4.89151E+03 -1.28524E+03  1.91033E+03
