 $NMID ID='MM_0lb_SNR200_18hz_g60_41.RAW', FMTDAT='(8E13.5)'
 TRAMP=1., VOLUME=1. $END
  3.10233E+05  1.65130E+03  3.36994E+05  2.50546E+05  8.47147E+04  3.38267E+05 -1.32341E+05  2.50351E+05
 -1.90488E+05  8.26852E+04 -1.11356E+05 -3.34543E+04  1.11788E+03 -5.09600E+04  5.37649E+04  2.84306E+02
  3.54616E+04  5.29025E+04 -1.64433E+04  7.55999E+04 -6.11195E+04  6.30456E+04 -8.59196E+04  3.18729E+04
 -8.06514E+04 -1.17392E+04 -5.70803E+04 -5.09247E+04 -1.47714E+04 -6.82577E+04  2.77292E+04 -4.52003E+04
  3.91237E+04  3.42570E+03  1.56962E+04  4.73537E+04 -3.41898E+04  4.71123E+04 -6.63599E+04  2.22467E+00
 -5.32741E+04 -5.64761E+04 -5.89239E+03 -7.62249E+04  3.23985E+04 -5.45033E+04  4.79162E+04 -1.69121E+04
  4.29852E+04  1.16352E+04  3.11986E+04  2.45078E+04  1.53503E+04  2.96995E+04 -5.38716E+03  2.70300E+04
 -2.21003E+04  1.32276E+04 -1.79958E+04 -5.20316E+03  4.34142E+03 -6.58308E+03  2.17687E+04  1.21383E+04
  7.39369E+03  3.54319E+04 -3.12669E+04  3.48221E+04 -6.19736E+04  1.96346E+03 -5.65707E+04 -4.23708E+04
 -1.28182E+04 -6.26636E+04  4.03407E+04 -4.39847E+04  5.80230E+04 -1.67594E+03  3.32554E+04  3.23031E+04
 -6.01461E+03  3.51492E+04 -3.00261E+04  1.50873E+04 -2.92859E+04 -4.91746E+03 -1.62204E+04 -1.08442E+04
 -7.35336E+03 -1.29354E+04 -7.33805E+02 -1.74345E+04  7.39261E+03 -2.24681E+04  1.51812E+04 -1.33948E+04
  1.15799E+04  5.65220E+03 -7.05254E+03  1.33640E+04 -2.08334E+04 -4.56885E+03 -8.96191E+03 -3.27407E+04
  2.34292E+04 -4.10896E+04  4.66877E+04 -1.99950E+04  4.42069E+04  1.82159E+04  1.48502E+04  4.35411E+04
 -1.52951E+04  3.24145E+04 -2.48568E+04  6.07274E+02 -9.09411E+03 -2.66690E+04  2.01564E+04 -3.27781E+04
  4.04565E+04 -8.31865E+03  3.42691E+04  2.22438E+04  1.68924E+04  4.38159E+04 -7.93475E+03  4.79926E+04
 -3.10188E+04  3.19905E+04 -3.93305E+04  8.37192E+03 -4.11556E+04 -1.59805E+04 -2.25498E+04 -3.75544E+04
  7.74302E+03 -3.52742E+04  3.08648E+04 -1.42891E+04  2.77050E+04  1.03608E+04  3.58465E+03  1.93964E+04
 -1.38269E+04  7.20317E+03 -9.30408E+03 -8.86248E+03  6.56982E+03 -1.00392E+04  1.80451E+04  6.70274E+03
  1.37010E+04  2.22296E+04 -7.04366E+03  2.52919E+04 -2.19402E+04  1.08900E+04 -2.67203E+04 -5.33230E+03
 -1.85186E+04 -1.70559E+04 -7.60219E+03 -1.89718E+04  5.26928E+03 -1.77938E+04  1.45889E+04 -1.63802E+04
  2.37861E+04 -1.22636E+04  3.03711E+04  1.38838E+03  2.17426E+04  1.83085E+04  3.67752E+03  3.53884E+04
 -1.63357E+04  2.84077E+04 -2.71826E+04  1.10349E+04 -2.12581E+04 -1.03502E+04 -4.82437E+03 -1.34688E+04
  8.08202E+02 -3.01716E+03 -3.60855E+03  7.10025E+03 -1.45004E+04  5.45321E+03 -1.47570E+04 -6.63771E+03
 -1.07515E+04 -1.68227E+04  5.63580E+03 -2.16767E+04  1.41729E+04 -1.58380E+04  1.68258E+04 -8.71535E+02
  9.37391E+03  1.22165E+04  1.19779E+02  1.71533E+04 -1.16982E+04  9.50214E+03 -1.64059E+04 -3.10007E+03
 -1.33762E+04 -1.46932E+04 -2.04250E+03 -2.09568E+04  8.37089E+03 -1.69842E+04  1.74337E+04 -7.80957E+03
  1.66881E+04  5.22560E+02  1.03547E+04  4.15611E+03  7.06826E+03  8.75397E+02  8.59989E+03 -1.53844E+03
  1.52319E+04  2.23225E+03  1.67895E+04  1.42580E+04  1.14957E+04  2.74181E+04 -2.36717E+03  3.10622E+04
 -1.73835E+04  2.40271E+04 -2.72475E+04  1.22253E+04 -2.89582E+04 -2.41711E+03 -2.46635E+04 -1.71861E+04
 -1.12307E+04 -2.23035E+04  8.31271E+03 -2.24306E+04  1.97130E+04 -1.23853E+04  1.60044E+04  4.35772E+03
  7.38705E+03  1.22789E+04 -7.43859E+03  1.07694E+04 -1.45469E+04  2.99941E+03 -9.99356E+03 -8.10648E+03
  9.43824E+02 -1.33589E+04  7.99016E+03 -9.40427E+03  9.64249E+03 -2.10046E+03  3.46374E+03  4.96007E+03
 -6.07652E+03  3.14442E+03 -5.71175E+03 -4.71439E+03  4.97083E+02 -1.13981E+04  9.83534E+03 -1.18610E+04
  1.34741E+04 -5.58243E+03  1.41749E+04  2.80061E+03  1.28500E+04  1.21541E+04  6.88500E+03  1.67217E+04
 -2.60184E+03  1.77547E+04 -1.03507E+04  1.09554E+04 -1.21591E+04  3.15016E+03 -9.72669E+03 -2.12155E+03
 -5.30273E+03 -3.98591E+03 -1.41450E+03  8.18841E+02 -2.91001E+03  2.73085E+03 -5.22824E+03  5.18787E+03
 -8.56498E+03 -9.86892E+02 -9.15935E+03 -8.25509E+03 -3.02554E+03 -1.29155E+04  3.09252E+03 -8.41369E+03
  8.01859E+03 -4.20678E+03  5.43765E+03  2.04037E+03  1.29285E+03  2.97719E+03 -3.69693E+03 -2.47696E+02
 -3.66282E+03 -5.65680E+03 -1.09955E+03 -8.66721E+03  4.81628E+03 -9.33769E+03  1.12750E+04 -4.14686E+03
  1.36172E+04  4.74128E+02  1.01172E+04  7.99607E+03  2.00658E+03  1.04271E+04 -5.52254E+03  8.71257E+03
 -8.15291E+03  2.53236E+03 -3.87977E+03 -8.23130E+02  1.40595E+03 -9.79917E+02  4.52055E+03 -1.80039E+03
  5.26835E+03  4.08869E+03  7.07524E+02  7.51595E+03 -4.02735E+03  7.82241E+03 -8.55487E+03  2.43770E+03
 -5.08765E+03 -4.57673E+03 -1.01877E+03 -6.75060E+03  3.27298E+03 -3.55283E+03  4.52347E+03  1.36834E+03
  8.51703E+02  5.24899E+03 -4.35846E+03  5.40770E+03 -5.56820E+03  2.94948E+03 -6.12287E+03 -2.00078E+03
 -2.96554E+03 -6.71622E+03  1.72698E+03 -7.95206E+03  6.56168E+03 -5.56018E+03  8.08525E+03  1.21301E+03
  4.24067E+03  5.96674E+03  8.03314E+02  8.35230E+03 -6.07547E+03  4.79638E+03 -5.82606E+03  4.68769E+02
 -6.00030E+03 -5.01163E+03 -1.32053E+03 -5.57407E+03  3.14482E+03 -5.00910E+03  4.93527E+03 -1.96288E+03
  3.86147E+03  6.14981E+02 -1.30836E+01  8.71534E+02  1.19129E+03 -1.20863E+03  4.92499E+02 -2.41365E+03
  4.31218E+03  3.35146E+02  4.51733E+03  6.61466E+02  5.44231E+03  3.78483E+03  5.98446E+03  8.26003E+03
 -1.27897E+03  9.15427E+03 -8.33950E+03  7.32241E+03 -1.10340E+04  2.06367E+03 -8.19566E+03 -3.22567E+03
 -5.00092E+03 -7.54006E+03  1.29016E+02 -5.58108E+03  2.70531E+03 -2.17866E+03  8.35467E+02 -2.90855E+03
  2.91398E+03 -1.90283E+03  1.82550E+03 -3.15340E+03  4.71143E+03 -2.44833E+03  4.00630E+03  7.33674E+02
  4.99679E+03  1.06877E+03 -3.45706E+01  4.37794E+03 -2.22709E+03  3.56304E+03 -4.06530E+03  2.83540E+03
 -6.25744E+03  6.86010E+01 -2.24437E+03 -4.07393E+03 -6.22228E+02 -5.56447E+03  4.52406E+03 -6.13817E+03
  5.65436E+03 -4.29652E+03  8.22882E+03  8.83655E+02  4.43474E+03  4.31712E+03  1.45307E+03  6.93915E+03
 -2.80664E+03  5.75942E+03 -3.45999E+03  2.05483E+03 -3.17166E+03 -5.19313E+02  7.27250E+01 -1.13976E+03
 -1.13727E+03 -3.76447E+02 -7.59655E+02  2.66724E+03 -2.94248E+03  2.36206E+03 -4.12356E+03 -8.00858E+02
 -1.44198E+03 -4.11870E+03  1.28626E+03 -5.56986E+03  3.53750E+03 -2.98288E+03  3.15758E+03 -1.68098E+03
  4.89737E+03  2.79607E+03  1.39430E+03  4.31354E+03 -1.37704E+03  4.87100E+03 -2.37983E+03  3.00898E+03
 -5.11046E+03  2.09421E+03 -3.21433E+03 -2.36083E+03 -4.29971E+02 -4.08876E+03  9.33090E+02 -3.23717E+03
  3.61776E+03 -1.21523E+03  1.55266E+03  3.98187E+02  1.53705E+03  1.83562E+03  8.55710E+02  8.51871E+02
  1.03650E+03  9.62376E+02  1.83383E+03  1.53493E+03  2.05259E+03  2.72600E+03  2.07033E+03  2.13664E+03
 -6.75590E+02  2.87384E+03 -3.31665E+03  4.58428E+03 -4.02169E+03  1.97017E+03 -4.99870E+03 -4.18304E+02
 -2.93837E+03 -3.24689E+03  2.01821E+03 -4.76218E+03  2.49834E+03 -3.33476E+03  4.18578E+03 -3.40431E+02
  2.53527E+03  1.20074E+03  5.07516E+02  3.27894E+03 -9.28137E+02  1.55155E+03 -2.05722E+03  4.32825E+02
 -6.77674E+02 -1.39240E+03  8.05812E+02 -1.91586E+03  7.20445E+02 -1.56703E+03  5.89176E+02  9.98738E+02
 -6.60827E+02  3.01608E+02 -3.25899E+01 -6.57526E+02 -1.67807E+02  1.05689E+03  2.66236E+03 -8.21204E+01
  6.24098E+02  4.49728E+02  2.53733E+03  2.40402E+02  5.48155E+02  2.57913E+03 -7.05797E+02  3.59074E+03
 -2.02143E+03  2.16055E+03 -2.33815E+03  1.04268E+03 -9.14676E+02 -1.24116E+03 -4.35205E+02 -6.35640E+02
 -1.46907E+02 -6.18153E+02  1.26151E+03 -9.28029E+02  8.27213E+02  1.38006E+03  8.50433E+02  1.14399E+03
 -1.85411E+03  1.00624E+03 -1.41632E+03 -1.39431E+03 -3.30225E+02 -2.36849E+03 -2.91466E+02 -1.28210E+03
  1.96024E+03 -5.07886E+02  9.39914E+02  8.75888E+02  1.55660E+03  2.02154E+02  2.21422E+02  9.48790E+02
 -4.84636E+01  7.80973E+02 -9.97225E+02 -7.30935E+02  4.24357E+02 -1.73228E+03  1.22784E+03 -4.18770E+02
  1.39518E+03  8.06552E+02  3.30385E+03  5.72335E+02  1.78788E+03  1.07863E+03 -7.95500E+02  1.31391E+03
 -7.96760E+02  7.93823E+02 -1.57314E+03  1.49776E+02 -9.50125E+02 -2.73389E+03  6.45357E+02 -6.44924E+02
  1.98336E+03 -2.22372E+02  3.16688E+02  4.11430E+02 -4.01505E+02  7.35044E+02  1.33649E+03  7.43594E+02
 -9.73180E+02  1.86437E+03 -4.24586E+01  3.09073E+02 -1.17256E+03 -2.00917E+01 -4.06697E+02  1.84317E+03
 -7.30825E+02  1.46720E+03 -1.99598E+03 -5.63753E+02 -1.81222E+03 -3.54178E+02 -2.25866E+03 -2.16417E+03
 -1.46729E+03 -2.30586E+03 -1.21800E+03 -4.08150E+03  8.72130E+02 -6.62920E+02  3.57982E+03 -7.43369E+02
  2.40817E+03 -5.85678E+02  2.67649E+03  5.58045E+02  2.97299E+01  1.41879E+03 -9.88712E+02  1.98659E+03
  4.16482E+02  1.16214E+03 -6.52023E+02 -8.67911E+02  7.92261E+02  2.92643E+02 -1.60681E+02 -5.32211E+02
 -8.99169E+02 -9.40182E+02 -1.60951E+02 -5.00524E+02 -9.96277E+02 -8.56009E+02  1.19794E+03 -7.27582E+02
  1.14858E+03 -1.08625E+02  1.25218E+03 -5.36257E+02  1.82460E+03  1.21766E+03  2.10814E+02  1.53322E+03
 -5.22347E+02  2.83334E+03 -1.43263E+03  1.82716E+03 -1.44506E+03 -7.42898E+02 -6.95837E+02 -1.34898E+03
 -3.28739E+02 -1.73683E+03 -5.08032E+02 -1.40464E+03  6.51280E+02 -7.75080E+02  1.34604E+03  2.13496E+02
  2.63457E+02  6.74287E+02 -4.39890E+01  1.39896E+02 -3.76475E+02  5.60210E+02  3.01306E+02 -6.88052E+02
  2.73369E+02 -4.39921E+02  5.40303E+02  7.04100E+02  6.38496E+02  6.24133E+02 -1.42852E+01  6.41570E+02
 -1.66564E+03  1.06484E+03 -8.39345E+02 -3.78312E+02 -1.03594E+03 -6.20104E+02  3.23246E+02 -6.80008E+02
  3.55066E+02 -1.16640E+03  9.35336E+02  1.69306E+02  1.65101E+03 -2.12551E+02  4.08017E+01  1.59290E+03
 -5.46158E+01  3.22577E+02 -1.21834E+03  1.25765E+03 -1.32990E+03  5.59797E+02 -1.69474E+03  2.16199E+02
  4.19960E+02  1.65873E+01 -1.10443E+03 -5.79670E+01 -1.52929E+02 -3.56753E+02 -2.75396E+02 -3.89326E+02
 -2.41703E+03  5.53976E+02  1.61648E+02 -1.20706E+03  1.03378E+03 -1.18790E+03  1.02710E+03 -7.18746E+02
  4.23044E+02  8.67170E+00 -2.74472E+02  1.96086E+02 -1.01799E+03  1.24887E+03 -1.26324E+02  5.76102E+02
