 $NMID ID='MM_0lb_SNR200_9hz_g60_59.RAW', FMTDAT='(8E13.5)'
 TRAMP=1., VOLUME=1. $END
  3.09392E+05  1.58879E+03  3.38576E+05  2.50559E+05  8.47278E+04  3.38047E+05 -1.32237E+05  2.52385E+05
 -1.90524E+05  8.58165E+04 -1.10363E+05 -3.32313E+04  2.01675E+03 -4.94054E+04  5.25861E+04 -5.88245E+01
  3.69238E+04  5.21000E+04 -1.53995E+04  7.61850E+04 -5.95075E+04  6.31131E+04 -8.59552E+04  3.29846E+04
 -8.34242E+04 -1.05021E+04 -5.77989E+04 -5.22916E+04 -1.60443E+04 -7.15681E+04  2.81231E+04 -4.70725E+04
  4.05701E+04  4.14343E+03  1.81588E+04  4.94564E+04 -3.37473E+04  4.79062E+04 -6.88555E+04  4.41234E+02
 -5.35176E+04 -5.86658E+04 -6.22580E+03 -8.11596E+04  3.45316E+04 -5.89725E+04  5.06061E+04 -1.93733E+04
  4.46819E+04  1.13142E+04  3.26776E+04  2.67030E+04  1.56291E+04  3.06152E+04 -5.42650E+03  2.70285E+04
 -2.31645E+04  1.11850E+04 -1.73603E+04 -5.62217E+03  7.59979E+03 -7.51316E+03  2.45287E+04  1.38612E+04
  7.34826E+03  3.73754E+04 -3.56415E+04  3.72578E+04 -6.70697E+04  7.00728E+02 -5.95042E+04 -4.41987E+04
 -1.33710E+04 -6.70445E+04  4.26425E+04 -4.90262E+04  6.30373E+04 -2.84905E+03  3.75575E+04  3.49490E+04
 -5.28140E+03  3.98350E+04 -3.29531E+04  2.05929E+04 -3.34203E+04 -4.13337E+03 -1.97355E+04 -1.32997E+04
 -9.27118E+03 -1.57667E+04 -1.56492E+03 -1.99665E+04  8.32233E+03 -2.30219E+04  1.53891E+04 -1.30693E+04
  1.02387E+04  6.70452E+03 -1.09200E+04  1.32958E+04 -2.51753E+04 -6.76807E+03 -8.28367E+03 -3.69676E+04
  2.58781E+04 -4.70224E+04  5.22481E+04 -2.06215E+04  4.79519E+04  2.30951E+04  1.61924E+04  4.76749E+04
 -1.69190E+04  3.68999E+04 -2.82490E+04  2.59982E+03 -1.20150E+04 -3.00242E+04  2.22880E+04 -3.70729E+04
  4.55653E+04 -1.17262E+04  4.06633E+04  2.62810E+04  2.04441E+04  5.26190E+04 -8.60275E+03  5.76619E+04
 -3.64056E+04  3.72475E+04 -4.95037E+04  1.23981E+04 -4.94959E+04 -1.87962E+04 -2.65901E+04 -4.50534E+04
  7.83859E+03 -4.30404E+04  3.58557E+04 -1.76286E+04  3.33984E+04  1.26708E+04  5.34231E+03  2.07997E+04
 -1.38346E+04  9.59414E+03 -1.29286E+04 -7.92547E+03  4.99991E+03 -1.08562E+04  1.90985E+04  5.82163E+03
  1.69814E+04  2.13575E+04 -2.50956E+03  2.71921E+04 -2.48123E+04  1.52088E+04 -3.16018E+04 -5.41598E+02
 -2.63465E+04 -1.96855E+04 -1.46707E+04 -2.51268E+04  4.62618E+03 -2.69451E+04  2.06843E+04 -2.38501E+04
  3.39587E+04 -1.28743E+04  3.99383E+04  4.92736E+03  2.90991E+04  2.55718E+04  4.24153E+03  4.45096E+04
 -1.96396E+04  3.56974E+04 -3.07503E+04  1.25053E+04 -2.27543E+04 -1.05724E+04 -7.04087E+03 -1.26642E+04
 -9.40342E+02 -1.20015E+03 -8.35487E+03  8.99803E+03 -2.00222E+04  5.33635E+03 -2.14540E+04 -1.01358E+04
 -1.11152E+04 -2.41940E+04  7.67936E+03 -2.95815E+04  1.89262E+04 -2.06121E+04  2.45066E+04 -7.39841E+02
  1.58238E+04  1.59157E+04 -7.03397E+02  2.40323E+04 -1.67164E+04  1.39157E+04 -2.55219E+04 -5.62621E+03
 -1.73371E+04 -2.19859E+04 -3.41532E+03 -2.78662E+04  1.13026E+04 -2.39578E+04  2.35063E+04 -1.35772E+04
  2.39394E+04 -1.88110E+03  1.67362E+04  4.98497E+03  1.04724E+04  2.03065E+03  1.23598E+04 -2.70416E+03
  2.22402E+04  2.76138E+03  2.81069E+04  1.85481E+04  1.84778E+04  3.91573E+04 -9.09224E+02  4.75236E+04
 -2.60606E+04  3.93364E+04 -4.43631E+04  2.07230E+04 -4.67964E+04 -3.62550E+03 -3.93655E+04 -2.88071E+04
 -1.59412E+04 -3.84452E+04  1.25165E+04 -3.50477E+04  2.85016E+04 -1.58588E+04  2.49540E+04  1.02933E+04
  8.14944E+03  2.07506E+04 -1.23718E+04  1.64192E+04 -2.19583E+04  2.61661E+03 -1.52186E+04 -1.28210E+04
 -5.84033E+02 -1.90248E+04  1.10376E+04 -1.43394E+04  1.47339E+04 -1.53824E+03  2.95751E+03  9.80340E+03
 -1.03557E+04  5.37759E+03 -9.35642E+03 -6.32870E+03 -3.70123E+03 -1.82937E+04  1.17981E+04 -2.07907E+04
  2.54922E+04 -1.27802E+04  2.80894E+04  2.92848E+03  2.27568E+04  2.00135E+04  1.17010E+04  3.07378E+04
 -5.77468E+03  3.36013E+04 -2.08406E+04  2.05571E+04 -2.46859E+04  3.43414E+03 -1.65182E+04 -7.40135E+03
 -5.79379E+03 -8.28493E+03 -5.19569E+02 -6.67143E+02 -3.94036E+03  2.58723E+03 -7.89241E+03  6.49823E+03
 -1.41849E+04 -1.14173E+03 -1.52505E+04 -1.32756E+04 -7.05910E+03 -2.06325E+04  7.67622E+03 -1.68169E+04
  1.27057E+04 -6.99084E+03  8.78299E+03  5.23491E+03 -7.70106E+01  7.04148E+03 -7.63623E+03 -9.13453E+01
 -8.77264E+03 -1.25788E+04  8.02955E+01 -1.67713E+04  9.74356E+03 -1.72565E+04  2.14654E+04 -1.02518E+04
  2.44910E+04  4.08275E+03  1.92962E+04  1.59680E+04  5.88740E+03  1.93726E+04 -1.13656E+04  1.47341E+04
 -1.37547E+04  4.88865E+03 -8.20968E+03 -2.88603E+03  2.68393E+03 -4.45450E+03  9.34533E+03 -4.74359E+02
  7.55361E+03  7.60505E+03  3.20388E+03  1.41051E+04 -9.69762E+03  1.39426E+04 -1.60365E+04  1.46675E+03
 -1.14559E+04 -1.00870E+04 -8.59937E+01 -1.45109E+04  8.18496E+03 -7.02317E+03  1.03334E+04  3.85968E+03
  1.81397E+03  1.23654E+04 -7.53027E+03  1.20143E+04 -1.43169E+04  6.51739E+03 -1.53254E+04 -6.72125E+03
 -8.67277E+03 -1.77354E+04  4.41767E+03 -2.02171E+04  1.60290E+04 -1.21060E+04  1.68525E+04  1.90633E+03
  9.58259E+03  1.43312E+04 -2.63463E+03  1.68234E+04 -1.24614E+04  9.24423E+03 -1.33483E+04 -1.95394E+03
 -1.08139E+04 -1.00100E+04 -2.01447E+03 -1.21477E+04  5.86450E+03 -9.94922E+03  7.73729E+03 -5.25506E+03
  4.52869E+03  1.73206E+03 -2.39441E+03  1.65843E+03 -8.64946E+02 -4.80260E+03  2.86450E+03 -9.41675E+03
  1.34686E+04 -6.82871E+03  1.82893E+04  2.08131E+03  1.64403E+04  1.20285E+04  1.12400E+04  2.22787E+04
 -5.33323E+03  2.59671E+04 -2.09874E+04  1.86312E+04 -2.74581E+04  4.04438E+03 -2.21311E+04 -9.79765E+03
 -1.15901E+04 -1.94867E+04 -1.05652E+03 -1.57063E+04  6.91268E+03 -7.92430E+03  4.93952E+03 -5.88088E+03
  3.80689E+03 -3.95295E+03  4.45849E+03 -3.65703E+03  6.57361E+03 -2.47229E+03  8.34574E+03 -1.57831E+03
  1.22050E+04  1.96622E+03  7.79114E+03  1.06271E+04 -1.88644E+03  1.12050E+04 -1.39345E+04  8.04423E+03
 -1.50256E+04 -7.28246E+02 -1.02845E+04 -1.20173E+04 -1.34814E+03 -1.68767E+04  9.51317E+03 -1.71470E+04
  1.82489E+04 -9.04320E+03  2.08848E+04  2.33204E+03  1.50260E+04  1.38878E+04  1.90794E+03  2.07850E+04
 -7.54755E+03  1.49214E+04 -1.11863E+04  4.38465E+03 -7.07297E+03 -2.30564E+03 -3.29193E+03 -3.36497E+03
 -1.71852E+03 -1.01463E+02 -4.03041E+03  3.40440E+03 -6.53145E+03  3.50785E+03 -1.10753E+04 -1.51009E+03
 -8.14642E+03 -1.01904E+04 -6.58683E+02 -1.66170E+04  9.33128E+03 -1.39206E+04  1.46903E+04 -5.50897E+03
  1.51005E+04  6.03565E+03  7.34825E+03  1.52049E+04 -1.90741E+03  1.64959E+04 -1.04039E+04  1.09064E+04
 -1.50084E+04 -9.09793E+02 -1.19841E+04 -1.17334E+04 -1.94203E+03 -1.23488E+04  6.97235E+03 -9.68728E+03
  1.06079E+04 -3.23210E+03  5.96917E+03  3.75629E+03  3.18144E+03  4.00898E+03  8.52210E+02  3.54166E+03
  2.77794E+03  2.15429E+03  3.72031E+03  1.20743E+03  4.39539E+03  6.37267E+03  3.00850E+03  8.81787E+03
 -1.76307E+03  1.27083E+04 -1.18075E+04  1.31454E+04 -1.55959E+04  5.08506E+03 -1.66690E+04 -7.82418E+03
 -8.29963E+03 -1.50940E+04  2.54479E+03 -1.90351E+04  9.77308E+03 -1.15702E+04  1.39114E+04 -3.30139E+03
  9.54395E+03  6.06534E+03  1.17989E+03  9.17932E+03 -4.12229E+03  6.73116E+03 -7.85627E+03 -1.81516E+02
 -3.97336E+03 -7.42775E+03  3.35868E+03 -7.97945E+03  6.19965E+03 -4.35273E+03  4.67442E+03  2.70706E+03
  5.22183E+03  3.92123E+03  1.17326E+03  2.57973E+03  1.14950E+02  3.95788E+02  8.52987E+02 -4.35018E+02
  3.23983E+03 -1.73214E+03  6.33074E+03  2.76159E+03  4.49382E+03  1.03730E+04 -2.68540E+03  1.11748E+04
 -8.09866E+03  8.04200E+03 -7.74584E+03  1.50321E+03 -8.37391E+03 -3.68097E+03 -4.24381E+03 -5.95826E+03
  9.92643E+02 -6.27610E+03  4.75195E+03 -2.31394E+03  4.89712E+03  2.96141E+03 -1.73489E+02  4.13837E+03
 -8.03215E+03  3.06740E+03 -6.28296E+03 -5.93681E+03 -3.72289E+03 -9.70982E+03  1.88347E+03 -8.28142E+03
  5.59309E+03 -3.61316E+03  6.84752E+03 -1.48729E+03  5.68169E+03  3.52472E+03  4.89981E+01  4.29643E+03
 -2.10728E+03 -6.81283E+01 -2.69783E+03 -4.40519E+03  2.87275E+03 -7.72210E+03  8.32755E+03 -6.99403E+03
  1.17310E+04  2.15697E+03  1.15265E+04  7.22889E+03  5.09320E+03  1.11760E+04 -3.30441E+03  1.07708E+04
 -7.42335E+03  4.79616E+03 -1.07073E+04 -1.62760E+03 -5.57787E+03 -6.34853E+03  1.48827E+03 -7.60457E+03
  5.70083E+03 -2.32535E+03  5.68643E+03  1.88782E+03  2.62904E+03  5.58426E+03 -1.04917E+03  4.47241E+03
 -3.32579E+03  3.80969E+03 -3.37811E+03  3.29786E+02 -9.25914E+01  1.00885E+03 -2.45465E+03  1.85190E+03
 -3.14859E+03  3.73179E+03 -6.32992E+03  2.61001E+03 -1.11671E+04  1.06419E+03 -1.29831E+04 -6.20361E+03
 -6.31086E+03 -1.53989E+04  1.36876E+03 -1.73813E+04  9.78218E+03 -1.27667E+04  1.60289E+04 -4.69266E+03
  1.41850E+04  4.61842E+03  9.31523E+03  9.47357E+03  1.14720E+03  1.17330E+04 -5.47239E+03  7.56473E+03
 -5.78567E+03  3.08423E+03 -4.54804E+03 -1.52839E+03  2.97323E+01  4.52882E+02  3.14447E+02  1.58368E+02
 -2.21027E+03 -4.44282E+02 -4.88973E+03  7.46622E+00 -9.80053E+02 -2.53451E+03  1.23578E+03 -5.89183E+03
  4.46851E+03 -3.81895E+03  8.06222E+03  1.29540E+03  8.95658E+03  6.73065E+03  3.03732E+03  1.08339E+04
 -5.38051E+03  1.35831E+04 -1.30995E+04  6.83487E+03 -1.25263E+04 -1.78831E+03 -1.05326E+04 -6.76369E+03
 -4.21463E+03 -1.12055E+04  4.00161E+03 -1.12198E+04  7.68813E+03 -6.47743E+03  7.27338E+03  8.43051E+02
  3.36198E+03  1.05255E+03 -2.91034E+02  2.66810E+03 -6.70158E+02  7.70098E+01  4.83362E+02 -1.04035E+03
  3.21224E+03 -2.78287E+03  5.37192E+03  2.18305E+03  2.63028E+03  4.28929E+03  9.85550E+02  7.49998E+03
 -5.69115E+03  5.44751E+03 -8.52021E+03  6.22696E+02 -5.94678E+03 -5.22527E+03 -1.66998E+03 -9.44897E+03
  5.41304E+03 -8.37612E+03  8.78651E+03 -2.26850E+03  8.77827E+03  3.63721E+03  5.07142E+03  5.73569E+03
 -5.96069E+02  8.43743E+03 -4.36850E+03  7.12638E+03 -4.04213E+03  2.35566E+03 -3.29032E+03  1.84831E+03
 -2.02917E+03 -4.26135E+02 -1.64071E+03  1.47463E+03 -3.70209E+03  2.10617E+03 -4.84901E+03 -1.79904E+02
 -5.99734E+03 -2.68115E+03 -6.99972E+02 -7.33988E+03  4.27484E+03 -8.00952E+03  6.36891E+03 -4.01634E+03
  6.50501E+03  1.55104E+03  4.00718E+03  5.05785E+03  9.67766E+02  9.43914E+03 -5.93149E+03  5.13312E+03
