 $NMID ID='MM_0lb_SNR200_9hz_g55_3.RAW', FMTDAT='(8E13.5)'
 TRAMP=1., VOLUME=1. $END
  3.10247E+05  1.10688E+03  3.36826E+05  2.50618E+05  8.51433E+04  3.38303E+05 -1.31945E+05  2.52346E+05
 -1.90029E+05  8.34389E+04 -1.12815E+05 -3.10732E+04 -1.07726E+03 -5.18069E+04  5.36510E+04 -1.63382E+03
  3.44166E+04  5.41068E+04 -1.67910E+04  7.77293E+04 -6.10129E+04  6.58093E+04 -8.52026E+04  3.10212E+04
 -8.25056E+04 -1.23533E+04 -5.87299E+04 -5.14535E+04 -1.44587E+04 -7.07944E+04  2.86515E+04 -4.57725E+04
  4.17849E+04  3.36092E+03  1.76953E+04  4.86111E+04 -3.42868E+04  4.87331E+04 -6.70730E+04 -6.35018E+02
 -5.53899E+04 -5.82061E+04 -7.37800E+03 -7.79780E+04  3.64243E+04 -5.77096E+04  4.96456E+04 -1.74077E+04
  4.59839E+04  1.17456E+04  3.23627E+04  2.65781E+04  1.50592E+04  3.10427E+04 -5.95353E+03  2.71792E+04
 -2.16677E+04  1.12898E+04 -1.84432E+04 -5.02730E+03  8.33723E+03 -8.63104E+03  2.33416E+04  1.39284E+04
  6.35488E+03  3.86069E+04 -3.54256E+04  3.72718E+04 -6.66343E+04  1.47763E+03 -6.11446E+04 -4.54011E+04
 -1.14651E+04 -6.53601E+04  4.02320E+04 -4.68035E+04  6.19078E+04 -2.28811E+03  3.79434E+04  3.58372E+04
 -6.18154E+03  3.96448E+04 -3.05195E+04  2.02542E+04 -3.36642E+04 -1.80920E+03 -1.95820E+04 -1.30858E+04
 -9.95680E+03 -1.46451E+04 -3.37500E+01 -1.89011E+04  9.52436E+03 -2.52896E+04  1.66218E+04 -1.20302E+04
  1.03342E+04  8.38007E+03 -1.11460E+04  1.34614E+04 -2.37881E+04 -6.28826E+03 -8.72301E+03 -3.81432E+04
  2.42378E+04 -4.80403E+04  5.29044E+04 -2.08060E+04  4.95028E+04  2.18598E+04  1.74150E+04  4.73988E+04
 -1.58140E+04  3.60104E+04 -2.82127E+04  4.04789E+03 -1.15209E+04 -2.98666E+04  2.08186E+04 -3.77724E+04
  4.55248E+04 -1.31049E+04  4.11735E+04  2.48677E+04  2.31017E+04  5.02359E+04 -7.35111E+03  5.68035E+04
 -3.53058E+04  4.00935E+04 -4.80848E+04  1.16003E+04 -4.94175E+04 -1.98023E+04 -2.62193E+04 -4.24993E+04
  8.57241E+03 -4.20023E+04  3.44254E+04 -1.61328E+04  3.25818E+04  9.88951E+03  4.10880E+03  2.15989E+04
 -1.48444E+04  9.53448E+03 -1.20880E+04 -7.76306E+03  5.93795E+03 -1.10088E+04  1.89747E+04  4.80596E+03
  1.52557E+04  2.18633E+04 -3.81841E+03  2.79473E+04 -2.36909E+04  1.52846E+04 -3.23131E+04 -2.41596E+03
 -2.57162E+04 -1.88794E+04 -1.15789E+04 -2.46802E+04  4.87276E+03 -2.68506E+04  2.13499E+04 -2.38169E+04
  3.32350E+04 -1.31772E+04  3.84009E+04  4.77174E+03  2.64789E+04  2.56460E+04  4.42159E+03  4.28257E+04
 -1.99279E+04  3.48625E+04 -3.17482E+04  1.32923E+04 -2.23593E+04 -1.11886E+04 -3.69945E+03 -1.28194E+04
 -1.89490E+03 -2.12389E+03 -7.54222E+03  9.90699E+03 -2.10678E+04  4.95952E+03 -2.06307E+04 -8.86697E+03
 -1.26759E+04 -2.41458E+04  8.02158E+03 -2.90283E+04  2.09128E+04 -2.05561E+04  2.42136E+04 -1.40058E+03
  1.48142E+04  1.62360E+04 -1.42778E+03  2.28181E+04 -1.64958E+04  1.33854E+04 -2.42604E+04 -3.85372E+03
 -1.81140E+04 -2.18328E+04 -3.82191E+03 -2.96130E+04  1.22358E+04 -2.48789E+04  2.37671E+04 -1.15799E+04
  2.07729E+04 -4.67766E+02  1.62634E+04  6.98178E+03  9.59603E+03  6.76085E+02  1.20449E+04 -1.25335E+03
  2.41021E+04  3.78552E+03  2.66895E+04  1.85402E+04  1.74961E+04  3.69925E+04 -3.03473E+03  4.50280E+04
 -2.56444E+04  3.76313E+04 -4.39678E+04  1.93105E+04 -4.69282E+04 -3.28072E+03 -3.60894E+04 -2.61311E+04
 -1.47918E+04 -3.69133E+04  1.25022E+04 -3.31264E+04  2.80530E+04 -1.52500E+04  2.37369E+04  8.36653E+03
  6.84369E+03  1.91907E+04 -1.13639E+04  1.48308E+04 -1.98975E+04  2.61943E+03 -1.62457E+04 -1.54005E+04
 -1.10429E+03 -1.97990E+04  1.04894E+04 -1.55984E+04  1.47693E+04 -2.77677E+03  3.51280E+03  9.95958E+03
 -9.08869E+03  3.44605E+03 -9.55016E+03 -6.04983E+03 -7.89155E+02 -1.95966E+04  1.28061E+04 -1.87897E+04
  2.47531E+04 -1.09937E+04  2.44269E+04  3.20040E+03  2.43129E+04  1.90913E+04  1.10799E+04  2.94350E+04
 -5.17094E+03  3.19822E+04 -2.14303E+04  1.96247E+04 -2.44849E+04  3.06790E+03 -1.55047E+04 -6.46454E+03
 -7.72223E+03 -5.90965E+03 -3.99425E+02  4.48566E+02 -3.29313E+03  4.76355E+03 -7.13840E+03  6.12905E+03
 -1.43481E+04 -1.77033E+03 -1.48918E+04 -1.20595E+04 -5.23986E+03 -1.82927E+04  6.20342E+03 -1.67079E+04
  1.29555E+04 -6.92207E+03  9.32556E+03  4.69703E+03 -4.55697E+01  6.37425E+03 -7.25436E+03 -2.22982E+02
 -6.62632E+03 -1.11162E+04 -1.95620E+03 -1.74295E+04  9.23154E+03 -1.53673E+04  2.08328E+04 -7.08046E+03
  2.36200E+04  3.99046E+03  1.65721E+04  1.31195E+04  2.14151E+03  2.01164E+04 -9.01400E+03  1.54810E+04
 -1.46909E+04  5.32075E+03 -6.33185E+03 -3.39540E+03  2.63858E+03 -4.74139E+03  9.02148E+03 -2.76726E+02
  7.62810E+03  6.95869E+03  3.68331E+02  1.39210E+04 -8.08573E+03  1.17453E+04 -1.62760E+04  3.47936E+03
 -9.76316E+03 -7.59079E+03 -6.91195E+02 -1.32350E+04  9.46343E+03 -7.21956E+03  1.09323E+04  3.24657E+03
  2.79464E+03  1.21893E+04 -6.96317E+03  1.28293E+04 -1.30076E+04  5.74530E+03 -1.44540E+04 -5.61523E+03
 -7.55227E+03 -1.53085E+04  3.77038E+03 -1.97049E+04  1.55960E+04 -1.23474E+04  1.71355E+04  2.64126E+03
  1.19637E+04  1.19238E+04 -9.97973E+02  1.58937E+04 -1.22142E+04  9.82967E+03 -1.24627E+04 -1.85904E+03
 -1.03162E+04 -1.14983E+04 -3.62647E+03 -1.14326E+04  6.26547E+03 -8.79558E+03  9.41766E+03 -4.58660E+03
  4.80976E+03  2.03257E+03 -1.37328E+03  1.74346E+03 -2.52523E+02 -3.45377E+03  2.84117E+03 -6.84076E+03
  1.17057E+04 -5.39680E+03  1.62543E+04  1.24289E+03  1.66060E+04  1.36079E+04  1.16583E+04  2.29982E+04
 -5.56366E+03  2.58369E+04 -2.05144E+04  1.93272E+04 -2.69255E+04  3.55577E+03 -2.20901E+04 -9.59133E+03
 -9.94171E+03 -1.91447E+04  9.84244E+01 -1.45038E+04  8.10772E+03 -7.69297E+03  5.44203E+03 -5.26660E+03
  4.71372E+03 -6.01398E+03  3.80567E+03 -2.01867E+03  5.68746E+03 -4.33512E+03  8.03053E+03 -1.18754E+03
  1.12695E+04  2.24023E+03  6.61077E+03  1.04804E+04 -1.16579E+03  1.16391E+04 -1.17960E+04  8.73948E+03
 -1.57179E+04 -9.82269E+02 -8.23994E+03 -1.01353E+04 -2.06775E+03 -1.50769E+04  9.76460E+03 -1.71019E+04
  1.84835E+04 -8.01812E+03  2.17783E+04  3.74594E+03  1.50452E+04  1.42009E+04  3.16967E+03  1.84571E+04
 -7.42921E+03  1.36676E+04 -1.05282E+04  6.34749E+03 -8.47180E+03 -1.82148E+03 -2.52745E+03 -1.73078E+03
 -1.48239E+03 -1.16856E+03 -2.70988E+02  1.82339E+03 -7.32842E+03  1.41159E+03 -1.03901E+04 -1.89149E+03
 -7.83415E+03 -8.49608E+03 -7.14052E+02 -1.37915E+04  1.10450E+04 -1.41128E+04  1.52122E+04 -5.28537E+03
  1.50950E+04  6.74926E+03  6.52367E+03  1.36955E+04 -3.50981E+03  1.52278E+04 -1.04893E+04  9.11420E+03
 -1.50815E+04 -7.05901E+02 -1.23102E+04 -1.03260E+04 -2.16460E+03 -1.27636E+04  6.78942E+03 -9.92617E+03
  1.00613E+04 -3.60129E+03  6.52346E+03  2.90647E+03  3.05209E+03  3.93247E+03  3.84934E+03  2.75713E+03
  2.56576E+03  1.47038E+03  5.79237E+03  2.73989E+03  6.30934E+03  5.45482E+03  3.97710E+03  8.48394E+03
 -1.97719E+03  1.23568E+04 -1.03286E+04  1.25083E+04 -1.56253E+04  2.98777E+03 -1.55510E+04 -6.72086E+03
 -7.17036E+03 -1.71351E+04  4.21488E+03 -1.86907E+04  1.04658E+04 -1.20822E+04  1.19004E+04 -3.11836E+03
  1.02628E+04  5.16364E+03  2.55408E+03  8.09171E+03 -3.95289E+03  5.09885E+03 -6.91335E+03 -2.56149E+03
 -2.93848E+03 -7.36556E+03  2.96863E+03 -8.73696E+03  6.78108E+03 -2.50342E+03  7.46223E+03  1.28827E+03
  4.47851E+03  1.57078E+03  2.05934E+03  2.40340E+03 -7.41660E+02  2.22988E+03  1.49413E+03 -1.41828E+03
  1.78191E+03  8.62863E+00  5.41652E+03  3.08609E+03  4.31510E+03  9.01043E+03 -4.07094E+02  1.10701E+04
 -7.81779E+03  7.66789E+03 -1.02939E+04  1.64029E+03 -9.10861E+03 -4.00451E+03 -2.30816E+03 -6.11354E+03
  1.49516E+03 -5.22917E+03  6.09018E+03 -3.03919E+03  3.62322E+03  2.91340E+03 -4.41708E+02  6.03762E+03
 -7.68847E+03  2.86274E+03 -8.68839E+03 -3.76362E+03 -4.54700E+03 -9.21432E+03  2.36153E+03 -8.68108E+03
  6.76921E+03 -5.39034E+03  6.91529E+03 -1.94007E+03  6.59105E+03  2.37841E+03  1.37616E+03  3.80393E+03
 -2.37123E+03  1.89646E+02 -4.11284E+03 -2.20473E+03  9.81385E+02 -6.45848E+03  7.01780E+03 -4.66424E+03
  9.97526E+03  1.89349E+02  8.00450E+03  6.69296E+03  2.20209E+03  1.08511E+04 -5.20009E+03  1.06785E+04
 -9.97385E+03  3.37995E+03 -1.01565E+04 -2.05293E+03 -5.30026E+03 -7.46335E+03  3.05289E+03 -4.91758E+03
  6.30146E+03 -3.65458E+03  4.02729E+03  2.54164E+03  2.32145E+03  6.42086E+03 -4.49770E+02  4.98050E+03
 -2.66944E+03  3.41270E+03 -1.21244E+03 -1.38576E+02 -6.92252E+02  1.07465E+03 -1.42721E+03  1.86532E+03
 -2.93637E+03  4.85641E+03 -7.05879E+03  2.84585E+03 -1.08737E+04  1.36813E+03 -1.14958E+04 -6.70776E+03
 -5.34065E+03 -1.36656E+04  3.44365E+03 -1.48274E+04  1.14545E+04 -1.30553E+04  1.43696E+04 -3.76199E+03
  1.54995E+04  8.36537E+02  8.90402E+03  9.78315E+03  2.16483E+03  1.14421E+04 -4.39181E+03  6.31388E+03
 -5.14448E+03  4.12343E+03 -3.61542E+03 -7.98012E+02 -1.94155E+03 -1.27079E+03  3.14771E+02 -1.58816E+03
 -4.41614E+03  1.78234E+03 -2.77316E+03 -6.80317E+01 -1.73334E+02 -2.30684E+03 -1.03376E+02 -5.35269E+03
  4.38926E+03 -5.02460E+03  5.88514E+03 -1.81232E+03  7.41893E+03  5.78899E+03  2.98215E+03  1.08354E+04
 -5.25508E+03  1.27462E+04 -1.13346E+04  7.13154E+03 -1.42987E+04 -2.40112E+03 -9.77380E+03 -8.10253E+03
 -4.98674E+03 -1.22386E+04  2.67762E+03 -9.96448E+03  6.50903E+03 -4.58544E+03  5.90770E+03 -3.24076E+02
  3.32793E+03  5.30418E+03  2.45424E+02  1.43075E+03 -1.17886E+03 -5.16191E+02 -4.47666E+02 -2.31805E+03
  3.36276E+03 -1.50373E+03  6.15927E+03  2.05923E+03  3.62563E+03  2.47563E+03 -2.80067E+02  4.94508E+03
 -5.29723E+03  6.05641E+03 -7.99331E+03  6.57829E+02 -6.33707E+03 -4.15927E+03  3.89629E+01 -8.00520E+03
  4.82499E+03 -6.94254E+03  8.81018E+03 -2.44841E+03  9.77213E+03  2.24944E+03  5.47723E+03  5.17835E+03
  4.15596E+02  7.54932E+03 -1.72090E+03  4.09451E+03 -3.79230E+03  3.68882E+03 -3.87293E+03 -3.46006E+02
 -2.52993E+03 -7.66947E+02 -2.34508E+03  4.86005E+02 -3.58651E+03  1.29035E+03 -5.90074E+03 -7.70475E+02
 -5.02991E+03 -3.71030E+03 -2.89689E+03 -6.38251E+03  3.64158E+03 -8.37650E+03  7.35133E+03 -3.81428E+03
  8.11474E+03  1.25076E+03  4.09266E+03  5.82609E+03  6.48074E+02  6.65617E+03 -6.62841E+03  6.03345E+03
