 $NMID ID='MM_0lb_SNR200_12hz_g45_82.RAW', FMTDAT='(8E13.5)'
 TRAMP=1., VOLUME=1. $END
  3.09891E+05  8.81869E+01  3.37528E+05  2.51607E+05  8.40089E+04  3.37538E+05 -1.31924E+05  2.52011E+05
 -1.90780E+05  8.32052E+04 -1.12584E+05 -3.23670E+04  6.80589E+02 -4.94074E+04  5.17677E+04  3.49356E+02
  3.52467E+04  5.13118E+04 -1.76059E+04  7.56391E+04 -5.88648E+04  6.33221E+04 -8.47285E+04  3.33191E+04
 -8.11889E+04 -1.18903E+04 -5.76890E+04 -5.12579E+04 -1.52368E+04 -7.00306E+04  2.76165E+04 -4.61283E+04
  3.93668E+04  3.78676E+03  1.72916E+04  4.95191E+04 -3.46896E+04  4.72319E+04 -6.61614E+04 -3.65272E+02
 -5.41323E+04 -5.81671E+04 -5.42751E+03 -7.61561E+04  3.39547E+04 -5.48073E+04  4.83669E+04 -1.67559E+04
  4.43483E+04  1.13261E+04  3.07729E+04  2.58947E+04  1.49969E+04  2.99274E+04 -5.30762E+03  2.84496E+04
 -2.34130E+04  1.09763E+04 -1.91937E+04 -4.67341E+03  5.65256E+03 -8.02417E+03  2.27244E+04  1.27121E+04
  8.63668E+03  3.50295E+04 -3.31864E+04  3.39997E+04 -6.33558E+04  3.07718E+03 -5.66059E+04 -4.33511E+04
 -1.26814E+04 -6.34259E+04  4.07582E+04 -4.70568E+04  5.90371E+04 -3.18049E+03  3.53658E+04  3.25583E+04
 -6.53395E+03  3.73254E+04 -3.06603E+04  1.64840E+04 -3.13611E+04 -4.62088E+03 -1.76982E+04 -1.03546E+04
 -8.55820E+03 -1.46842E+04  1.30709E+02 -1.79525E+04  7.49225E+03 -2.21825E+04  1.55469E+04 -1.24900E+04
  1.03654E+04  5.79519E+03 -8.21115E+03  1.32580E+04 -2.14794E+04 -5.15651E+03 -8.60482E+03 -3.43415E+04
  2.41506E+04 -4.42597E+04  4.87416E+04 -2.09085E+04  4.53363E+04  1.99066E+04  1.60137E+04  4.50810E+04
 -1.60884E+04  3.36283E+04 -2.53010E+04  1.70310E+03 -1.05472E+04 -2.78265E+04  2.10020E+04 -3.50305E+04
  4.17984E+04 -8.39214E+03  3.73300E+04  2.52595E+04  1.90386E+04  4.79400E+04 -7.54110E+03  5.09663E+04
 -3.32596E+04  3.54023E+04 -4.40878E+04  9.91103E+03 -4.53280E+04 -1.72753E+04 -2.41263E+04 -3.90516E+04
  7.06544E+03 -3.94513E+04  3.26127E+04 -1.47333E+04  3.07923E+04  1.07728E+04  5.11930E+03  1.91101E+04
 -1.39179E+04  7.85397E+03 -1.17064E+04 -7.32578E+03  6.06850E+03 -1.08038E+04  1.87784E+04  5.45155E+03
  1.49105E+04  2.17875E+04 -5.64925E+03  2.65202E+04 -2.27133E+04  1.13229E+04 -2.92286E+04 -4.19515E+03
 -2.26559E+04 -1.76779E+04 -8.72899E+03 -2.29525E+04  4.97668E+03 -2.12472E+04  1.54590E+04 -1.94978E+04
  2.78714E+04 -1.19990E+04  3.34627E+04  4.48105E+03  2.42341E+04  2.13141E+04  3.79212E+03  3.76252E+04
 -1.76351E+04  3.14074E+04 -2.93965E+04  1.07407E+04 -2.18859E+04 -1.05793E+04 -5.38993E+03 -1.36042E+04
  1.47224E+03 -3.43899E+03 -6.39955E+03  6.38337E+03 -1.66501E+04  5.37035E+03 -1.83013E+04 -8.00658E+03
 -1.03123E+04 -2.07107E+04  5.87410E+03 -2.41945E+04  1.64746E+04 -1.72470E+04  2.06609E+04 -1.75036E+03
  1.22633E+04  1.37281E+04 -1.55794E+03  1.98533E+04 -1.33249E+04  1.15614E+04 -2.03219E+04 -3.04644E+03
 -1.59351E+04 -1.73378E+04 -1.37294E+03 -2.37634E+04  1.13296E+04 -2.14583E+04  1.94701E+04 -9.14011E+03
  1.96341E+04  4.27726E+02  1.39114E+04  4.25041E+03  5.95434E+03  1.63233E+03  1.03221E+04 -1.08654E+03
  1.78263E+04  2.48197E+03  2.07861E+04  1.65728E+04  1.36426E+04  3.21469E+04 -2.15125E+03  3.77300E+04
 -2.21632E+04  3.01351E+04 -3.46873E+04  1.50144E+04 -3.75855E+04 -2.56125E+03 -3.01510E+04 -2.18137E+04
 -1.37892E+04 -3.12196E+04  9.84285E+03 -2.79153E+04  2.25375E+04 -1.32064E+04  2.15871E+04  6.78205E+03
  7.10867E+03  1.63354E+04 -8.79642E+03  1.38953E+04 -1.85583E+04  3.45474E+03 -1.30722E+04 -1.07184E+04
  1.02670E+03 -1.75567E+04  9.57400E+03 -1.24590E+04  1.16581E+04 -3.94877E+02  1.93548E+03  6.99180E+03
 -7.43869E+03  3.51485E+03 -7.37746E+03 -5.85662E+03 -1.88595E+03 -1.46893E+04  1.09736E+04 -1.74201E+04
  1.80450E+04 -1.00584E+04  1.85428E+04  2.78503E+03  1.83370E+04  1.49505E+04  7.63834E+03  2.34758E+04
 -4.76302E+03  2.51395E+04 -1.62626E+04  1.59094E+04 -1.74212E+04  5.32689E+03 -1.33295E+04 -4.86521E+03
 -5.17346E+03 -5.89104E+03 -1.35734E+03  8.11372E+02 -2.00970E+03  4.05470E+03 -5.21239E+03  5.21529E+03
 -1.24274E+04 -1.72864E+03 -1.24733E+04 -1.01583E+04 -5.23658E+03 -1.61805E+04  5.33129E+03 -1.24003E+04
  1.01478E+04 -4.74553E+03  7.11372E+03  4.74779E+03  3.82787E+01  4.85498E+03 -5.58750E+03  5.88566E+00
 -5.62677E+03 -7.91093E+03 -1.76884E+03 -1.27391E+04  5.66118E+03 -1.36077E+04  1.58074E+04 -8.18333E+03
  1.84216E+04  3.16665E+03  1.32357E+04  1.04736E+04  4.35076E+03  1.43671E+04 -8.12847E+03  1.34076E+04
 -9.60094E+03  4.31777E+03 -6.06418E+03 -2.53854E+03  9.08276E+02 -4.43169E+03  6.20821E+03 -1.47156E+03
  5.80579E+03  5.69508E+03  1.36749E+03  9.80465E+03 -6.82916E+03  1.05582E+04 -1.15672E+04  2.56398E+03
 -8.39507E+03 -5.92441E+03 -4.38479E+02 -1.02492E+04  5.95233E+03 -6.59324E+03  8.16504E+03  1.04782E+03
  1.65734E+03  7.50588E+03 -6.62839E+03  8.66893E+03 -1.00536E+04  4.62130E+03 -1.02573E+04 -3.60264E+03
 -5.65993E+03 -1.03596E+04  1.70847E+03 -1.36731E+04  1.17726E+04 -7.83425E+03  1.16730E+04  2.31251E+03
  8.22471E+03  9.67117E+03 -1.61420E+03  1.12312E+04 -1.04848E+04  6.63254E+03 -9.84816E+03 -1.19111E+03
 -8.20390E+03 -8.48867E+03 -1.89774E+03 -7.53679E+03  5.35326E+03 -7.72265E+03  4.94189E+03 -3.73927E+03
  4.64898E+03  1.74127E+03 -1.36784E+03  1.13753E+03 -1.05147E+03 -2.79098E+03  1.42965E+03 -4.88459E+03
  9.04700E+03 -4.20103E+03  1.15583E+04  1.79143E+03  1.02738E+04  7.89098E+03  6.72050E+03  1.48601E+04
 -3.18701E+03  1.73106E+04 -1.30717E+04  1.25993E+04 -2.01402E+04  1.60006E+03 -1.50206E+04 -7.13746E+03
 -7.69973E+03 -1.26072E+04 -3.56555E+02 -1.06783E+04  3.10801E+03 -5.87797E+03  4.37411E+03 -2.19412E+03
  2.32644E+03 -2.67151E+03  5.67289E+03 -3.23443E+03  4.85219E+03 -2.27450E+03  5.97448E+03  8.77714E+01
  6.82584E+03  1.75694E+03  3.67560E+03  5.12247E+03 -2.06601E+03  8.48295E+03 -8.01479E+03  5.86253E+03
 -1.10757E+04 -3.25913E+02 -5.05833E+03 -8.84526E+03 -7.44735E+02 -1.08299E+04  5.64866E+03 -1.13402E+04
  1.25635E+04 -5.98553E+03  1.36012E+04  1.75342E+03  1.02886E+04  9.24260E+03  1.25180E+03  1.19124E+04
 -5.17077E+03  1.00099E+04 -7.24541E+03  3.70868E+03 -5.21159E+03 -1.95697E+03 -1.13420E+03 -1.61258E+03
 -4.78350E+02  1.71602E+02 -1.05224E+03  1.12981E+03 -6.01529E+03  2.66459E+03 -8.18122E+03 -1.91759E+03
 -5.62874E+03 -7.27337E+03 -1.54621E+03 -9.95324E+03  5.59967E+03 -9.37305E+03  8.96336E+03 -4.36862E+03
  9.40297E+03  5.01212E+03  4.69132E+03  7.98494E+03 -3.16670E+03  9.94816E+03 -4.53546E+03  6.13080E+03
 -9.97117E+03  1.32256E+03 -7.14474E+03 -4.66019E+03 -8.39333E+02 -8.12316E+03  3.37094E+03 -7.51816E+03
  6.84219E+03 -2.69811E+03  3.37368E+03  1.98438E+03  1.12334E+03  1.92931E+03 -3.52162E+01  8.58606E+02
  3.00298E+03  4.13988E+02  2.51561E+03  1.47104E+03  2.72468E+03  2.67432E+03  2.16703E+03  5.67693E+03
 -2.88218E+03  8.65284E+03 -5.50064E+03  8.42931E+03 -9.86981E+03  1.96604E+03 -1.06963E+04 -4.45757E+03
 -6.71249E+03 -9.95840E+03  2.47618E+03 -1.07337E+04  5.71309E+03 -5.67391E+03  8.47565E+03 -3.13448E+03
  7.04477E+03  3.32421E+03  1.07129E+03  5.38404E+03 -3.02655E+03  3.08317E+03 -3.73601E+03 -9.62948E+02
 -1.87657E+03 -4.90359E+03  2.40159E+03 -4.11534E+03  4.28411E+03 -1.53546E+03  3.88404E+03  3.05479E+02
  2.94674E+03 -1.95197E+02  3.92917E+02  6.63289E+02 -1.18820E+03  1.98047E+03  1.22601E+03 -2.67966E+02
  2.19418E+03 -3.65493E+02  3.18030E+03  1.87483E+03  2.37361E+03  6.95551E+03 -2.85927E+02  6.70131E+03
 -3.59801E+03  4.07367E+03 -6.07922E+03  5.29779E+02 -5.02837E+03 -2.28287E+03 -1.64586E+03 -4.48714E+03
  8.47188E+02 -3.68421E+03  2.35135E+03 -1.76353E+03  1.75443E+03  3.72451E+03 -1.89869E+03  3.92019E+03
 -3.51529E+03  1.17962E+03 -3.70892E+03 -4.14287E+03 -1.73603E+03 -6.14467E+03  1.16148E+03 -4.91550E+03
  3.42587E+03 -3.40298E+03  4.17940E+03  3.07916E+02  3.09457E+03  3.37858E+02  9.84033E+02  2.26850E+03
 -1.94891E+03  4.92921E+01 -9.42514E+02 -1.21959E+03  1.09829E+02 -3.68547E+03  3.14817E+03 -4.64528E+03
  5.74234E+03  1.65305E+03  7.16369E+03  4.50594E+03  1.43986E+03  5.42207E+03 -1.45479E+03  6.49612E+03
 -5.35296E+03  2.82125E+03 -5.83396E+03 -7.83630E+01 -2.99985E+03 -4.47397E+03  1.53966E+03 -2.87111E+03
  4.11779E+03 -1.25117E+02  2.90784E+03  4.93182E+02  2.41334E+03  1.70228E+03 -3.31291E+02  3.08203E+03
 -1.67306E+03  2.63231E+03 -9.87389E+02 -4.48518E+02  2.33485E+02  1.12321E+03 -1.21166E+03 -2.26017E+02
 -1.48490E+03  1.35747E+03 -5.36209E+03  2.02688E+03 -6.03519E+03  3.53419E+02 -6.58473E+03 -4.67624E+03
 -3.50061E+03 -8.18907E+03  1.17365E+03 -9.25280E+03  4.46146E+03 -7.66179E+03  8.71169E+03 -1.82221E+03
  7.85483E+03  9.42498E+02  4.56761E+03  5.48805E+03  1.18875E+03  6.53065E+03 -2.68877E+03  3.95807E+03
 -3.21936E+03  2.59266E+03 -1.53358E+03 -3.83957E+02 -1.08851E+03 -6.34160E+02 -1.00126E+03 -8.59376E+02
 -2.35071E+03  9.53014E+02 -3.18882E+03 -7.59306E+02  3.86703E+02 -1.70606E+03  2.93220E+02 -2.73495E+03
  1.55272E+03 -1.88146E+03  3.45608E+03 -5.11656E+02  4.05744E+03  2.69294E+03  4.25611E+02  6.45471E+03
 -3.36594E+03  6.17363E+03 -5.89508E+03  3.24143E+03 -8.84733E+03  4.88981E+01 -2.92661E+03 -4.01728E+03
 -2.42666E+03 -5.30533E+03  2.12884E+03 -5.15682E+03  2.97533E+03 -2.40851E+03  3.34059E+03 -1.30809E+03
  2.16353E+03  2.55885E+03 -1.44532E+03  1.87260E+03  8.45913E+02 -9.63149E+02 -5.78256E+02 -6.97261E+02
  8.12754E+02 -4.89960E+02  2.14698E+03  6.09643E+02  1.99397E+03  1.59127E+03 -2.65946E+01  2.44265E+03
 -2.11058E+03  3.56261E+03 -4.44283E+03 -1.48917E+03 -3.82202E+03 -3.19552E+03 -1.44168E+03 -5.89877E+03
  2.81785E+03 -3.05928E+03  4.40232E+03 -1.25863E+03  3.57618E+03  1.77168E+03  1.66041E+03  4.62603E+03
  1.03836E+03  2.40493E+03 -1.09819E+03  2.28035E+03 -2.72400E+03  2.21149E+03 -1.95935E+03  9.18277E+02
 -2.67062E+02  7.08525E+02 -9.75818E+02  9.57216E+02 -4.92254E+02  8.66225E+02 -3.38627E+03 -1.65931E+03
 -2.74723E+03 -2.76583E+03 -7.58355E+02 -4.76475E+03  2.78253E+03 -3.78024E+03  1.48504E+03 -1.61546E+03
  5.45903E+03  2.12881E+03  1.93065E+03  1.47465E+03 -6.40993E+02  2.82514E+03 -2.32600E+03  3.16928E+03
