 $NMID ID='MM_0lb_SNR200_9hz_g60_21.RAW', FMTDAT='(8E13.5)'
 TRAMP=1., VOLUME=1. $END
  3.10317E+05  1.64008E+03  3.37581E+05  2.50077E+05  8.49409E+04  3.38846E+05 -1.33892E+05  2.51772E+05
 -1.90512E+05  8.38941E+04 -1.12159E+05 -3.22124E+04 -1.72502E+03 -5.18007E+04  5.32223E+04 -4.49272E+02
  3.67934E+04  5.27394E+04 -1.57991E+04  7.61246E+04 -6.19831E+04  6.52507E+04 -8.50512E+04  3.31045E+04
 -8.17340E+04 -1.01192E+04 -5.86195E+04 -5.32221E+04 -1.66517E+04 -7.12243E+04  2.93235E+04 -4.94491E+04
  4.19322E+04  3.81850E+03  1.80374E+04  4.96179E+04 -3.62957E+04  4.79875E+04 -6.83563E+04 -3.35831E+02
 -5.62224E+04 -5.79458E+04 -7.01111E+03 -7.92364E+04  3.38718E+04 -5.95962E+04  4.98497E+04 -1.84822E+04
  4.53599E+04  1.24342E+04  3.27011E+04  2.59246E+04  1.63776E+04  3.13054E+04 -7.02171E+03  2.79399E+04
 -2.40267E+04  1.07591E+04 -1.93139E+04 -6.03375E+03  5.90068E+03 -7.07672E+03  2.45379E+04  1.38392E+04
  9.00376E+03  3.81334E+04 -3.29016E+04  3.76119E+04 -6.53543E+04  3.79629E+03 -5.94070E+04 -4.46344E+04
 -1.39677E+04 -6.60402E+04  4.19014E+04 -4.69084E+04  6.07001E+04 -1.93502E+03  3.82235E+04  3.42908E+04
 -5.00192E+03  3.94622E+04 -3.38259E+04  1.92234E+04 -3.47607E+04 -4.55749E+03 -2.07173E+04 -1.15612E+04
 -1.05532E+04 -1.65823E+04 -3.40144E+02 -1.95390E+04  9.74358E+03 -2.37549E+04  1.61286E+04 -1.27779E+04
  1.11403E+04  5.43960E+03 -1.05513E+04  1.11470E+04 -2.34748E+04 -7.30163E+03 -7.05062E+03 -3.74282E+04
  2.45202E+04 -4.82485E+04  5.29531E+04 -2.26321E+04  4.91151E+04  2.22146E+04  1.63321E+04  4.71691E+04
 -1.61045E+04  3.80336E+04 -2.84377E+04  2.23528E+03 -1.05439E+04 -2.73873E+04  2.07004E+04 -3.70856E+04
  4.55498E+04 -1.16893E+04  4.16826E+04  2.64096E+04  2.40509E+04  5.37558E+04 -8.36644E+03  5.69555E+04
 -3.54751E+04  4.12964E+04 -4.96278E+04  1.10403E+04 -4.80861E+04 -2.06463E+04 -2.60579E+04 -4.42477E+04
  8.14206E+03 -4.40727E+04  3.42562E+04 -1.79723E+04  3.28010E+04  1.19309E+04  6.10892E+03  2.03266E+04
 -1.38420E+04  1.09519E+04 -1.20321E+04 -7.02936E+03  5.80715E+03 -1.09696E+04  1.89926E+04  4.74705E+03
  1.65917E+04  2.33496E+04 -5.22366E+03  2.84664E+04 -2.50400E+04  1.39134E+04 -3.12895E+04 -1.49555E+03
 -2.69322E+04 -1.98347E+04 -1.35104E+04 -2.66456E+04  5.53812E+03 -2.57697E+04  2.10736E+04 -2.53020E+04
  3.43009E+04 -1.48666E+04  4.06458E+04  5.56384E+03  2.78493E+04  2.56913E+04  4.90465E+03  4.15268E+04
 -2.11172E+04  3.39884E+04 -3.18789E+04  1.18469E+04 -2.30587E+04 -9.38673E+03 -6.08680E+03 -1.19161E+04
  7.58360E+02 -6.72696E+02 -5.78811E+03  7.91881E+03 -2.20872E+04  3.30846E+03 -2.03707E+04 -1.17486E+04
 -1.00991E+04 -2.35706E+04  7.45321E+03 -2.71803E+04  1.72113E+04 -2.16875E+04  2.19803E+04 -2.28627E+03
  1.46323E+04  1.77441E+04 -1.17894E+03  2.28114E+04 -1.60141E+04  1.32152E+04 -2.41141E+04 -3.72079E+03
 -1.80502E+04 -2.16807E+04 -2.12954E+03 -2.86270E+04  1.28575E+04 -2.51434E+04  2.58571E+04 -1.13949E+04
  2.29651E+04  8.21396E+02  1.64143E+04  4.77298E+03  8.83662E+03  2.55595E+03  1.27241E+04 -1.46306E+03
  2.29368E+04  1.10067E+03  2.66266E+04  2.09055E+04  1.82015E+04  3.81817E+04 -4.23607E+03  4.64385E+04
 -2.45116E+04  3.96637E+04 -4.41459E+04  2.08203E+04 -4.66371E+04 -2.45719E+03 -3.84962E+04 -2.76271E+04
 -1.49899E+04 -3.84772E+04  1.39917E+04 -3.32602E+04  2.85060E+04 -1.49877E+04  2.62095E+04  8.92228E+03
  8.43860E+03  1.95254E+04 -1.07511E+04  1.59208E+04 -2.11371E+04  1.45194E+03 -1.63691E+04 -1.35809E+04
  5.10794E+02 -2.12065E+04  1.19882E+04 -1.49353E+04  1.34694E+04  2.16939E+02  2.82799E+03  9.22758E+03
 -9.16750E+03  5.95126E+03 -1.05464E+04 -8.64590E+03 -2.94404E+03 -2.05862E+04  1.21131E+04 -2.11276E+04
  2.41018E+04 -1.41795E+04  2.72290E+04  4.57739E+03  2.43539E+04  1.85409E+04  1.15826E+04  3.13408E+04
 -5.98645E+03  3.48227E+04 -2.12763E+04  2.09621E+04 -2.37313E+04  2.47811E+03 -1.74939E+04 -5.89069E+03
 -6.82450E+03 -7.45922E+03 -7.39126E+02  1.73389E+03 -4.22357E+03  4.13616E+03 -7.39948E+03  5.18672E+03
 -1.50902E+04 -2.28481E+03 -1.57263E+04 -1.24024E+04 -6.59457E+03 -1.89761E+04  6.58883E+03 -1.72558E+04
  1.39848E+04 -7.35682E+03  8.41607E+03  4.43552E+03 -5.92439E+02  7.80217E+03 -9.14284E+03 -1.61091E+03
 -8.85436E+03 -1.10801E+04 -2.79311E+02 -1.71392E+04  1.15884E+04 -1.76745E+04  2.21574E+04 -9.23209E+03
  2.58410E+04  2.85704E+03  1.93302E+04  1.53059E+04  3.90852E+03  2.13179E+04 -9.85445E+03  1.53857E+04
 -1.28681E+04  4.93204E+03 -7.13889E+03 -3.29369E+03  3.28497E+03 -5.93823E+03  8.39855E+03 -1.65220E+03
  7.59441E+03  7.68234E+03  6.49998E+02  1.32497E+04 -7.51395E+03  1.33532E+04 -1.67388E+04  1.45510E+03
 -1.19031E+04 -8.89611E+03 -6.80996E+01 -1.40272E+04  7.46781E+03 -5.90998E+03  9.53531E+03  4.54949E+03
  2.63044E+03  1.04828E+04 -8.66880E+03  1.36124E+04 -1.64474E+04  5.85174E+03 -1.47509E+04 -4.82501E+03
 -9.10753E+03 -1.66417E+04  4.85756E+03 -1.83485E+04  1.52589E+04 -1.14602E+04  1.92230E+04  4.98406E+03
  1.20239E+04  1.22963E+04 -2.81547E+03  1.71579E+04 -1.31758E+04  9.51579E+03 -1.24392E+04 -1.40178E+03
 -1.34860E+04 -1.15463E+04 -1.04067E+03 -1.22263E+04  7.93021E+03 -1.25544E+04  8.25481E+03 -4.62002E+03
  5.42252E+03  3.94731E+03 -1.13526E+03  2.92079E+03 -1.34017E+03 -3.03666E+03  4.56995E+03 -7.88113E+03
  1.27872E+04 -5.75509E+03  1.81355E+04  1.49451E+03  1.61269E+04  1.23829E+04  1.04572E+04  2.32267E+04
 -5.15463E+03  2.63417E+04 -2.10615E+04  1.96213E+04 -2.75265E+04  4.10181E+03 -2.29986E+04 -1.08413E+04
 -1.00129E+04 -1.76749E+04 -8.58864E+02 -1.59314E+04  4.94446E+03 -7.93489E+03  6.12891E+03 -6.02100E+03
  2.66814E+03 -1.93142E+03  3.75694E+03 -4.07389E+03  7.49583E+03 -2.79861E+03  9.98491E+03 -8.82363E+02
  1.27956E+04  1.77042E+03  6.67066E+03  1.02472E+04 -2.90041E+03  9.83286E+03 -1.23623E+04  9.73762E+03
 -1.59817E+04 -2.44986E+03 -1.10578E+04 -1.08569E+04 -3.01021E+03 -1.60115E+04  9.46584E+03 -1.69347E+04
  1.96715E+04 -7.98900E+03  2.14483E+04  2.22779E+03  1.37788E+04  1.50936E+04  2.50077E+03  1.86816E+04
 -7.06139E+03  1.47233E+04 -1.04185E+04  4.54386E+03 -8.88509E+03 -1.88144E+03 -3.99433E+03 -8.75686E+02
 -2.11386E+03 -6.77529E+02  2.84033E+02  1.84296E+03 -6.34939E+03  4.35948E+03 -9.30469E+03 -3.55629E+02
 -8.58162E+03 -1.19508E+04  1.63193E+03 -1.61576E+04  1.18028E+04 -1.47087E+04  1.62345E+04 -3.41983E+03
  1.44657E+04  7.63634E+03  7.36625E+03  1.41596E+04 -1.85413E+03  1.54127E+04 -1.17319E+04  1.16472E+04
 -1.48031E+04  1.40205E+03 -1.11034E+04 -8.31772E+03 -9.27218E+02 -1.24116E+04  7.75164E+03 -8.66663E+03
  1.05764E+04 -4.38483E+02  6.83238E+03  1.96994E+03  1.33362E+03  5.15259E+03  1.86190E+03  9.46476E+02
  1.91989E+03  1.67344E+03  2.37288E+03  3.51852E+03  4.44429E+03  5.85054E+03  2.75765E+03  9.67741E+03
 -2.57547E+03  1.31863E+04 -1.05610E+04  1.51203E+04 -1.74140E+04  4.64647E+03 -1.80643E+04 -7.08866E+03
 -8.10201E+03 -1.60965E+04  2.55229E+03 -1.79622E+04  1.10441E+04 -1.30903E+04  1.40066E+04 -2.33670E+03
  9.54340E+03  5.42462E+03  2.83017E+03  1.11972E+04 -4.61630E+03  5.92951E+03 -8.59870E+03 -7.77935E+02
 -5.08623E+03 -7.53683E+03  5.08808E+03 -5.61400E+03  8.22484E+03 -4.45112E+03  6.33204E+03  1.76452E+03
  5.07610E+03  3.01821E+03  1.58352E+03  1.59862E+03 -1.69421E+03  1.94080E+03  1.64545E+03 -9.30145E+02
  2.02129E+03 -1.78450E+03  7.26459E+03  2.77858E+03  5.88909E+03  6.30466E+03 -1.89674E+03  1.00775E+04
 -7.97671E+03  6.35665E+03 -1.17565E+04  2.05530E+03 -9.56948E+03 -3.38250E+03 -3.49040E+03 -5.88397E+03
  1.68650E+03 -6.48560E+03  4.10345E+03 -3.11725E+03  4.10199E+03  1.67416E+03 -2.07810E+03  5.39705E+03
 -6.69771E+03  4.26855E+03 -8.34392E+03 -2.59850E+03 -5.52355E+03 -8.24726E+03  1.41423E+03 -8.22376E+03
  4.37379E+03 -4.96629E+03  6.17046E+03 -1.98874E+03  6.36695E+03  3.17194E+03  8.43664E+02  3.65088E+03
 -4.52717E+03  2.58804E+03 -3.87671E+03 -3.03564E+03  1.60271E+03 -8.25476E+03  7.17666E+03 -5.37378E+03
  1.09959E+04 -8.82697E+01  1.13585E+04  6.78455E+03  1.86953E+03  1.05235E+04 -5.66810E+03  1.05587E+04
 -7.73065E+03  4.61701E+03 -1.02717E+04 -1.19895E+03 -4.20713E+03 -6.18699E+03  9.92560E+02 -6.93817E+03
  6.92211E+03 -2.37418E+03  6.73875E+03  3.65835E+03  1.30527E+03  6.59198E+03 -8.18137E+02  4.34476E+03
 -3.42337E+03  2.36210E+03 -3.62285E+03  1.18331E+03 -2.43480E+03  1.57216E+03 -2.93929E+03  2.27342E+03
 -4.32633E+03  4.62950E+03 -6.00461E+03  3.13165E+03 -1.05472E+04 -1.14083E+03 -1.37921E+04 -7.51350E+03
 -7.69648E+03 -1.38560E+04  3.54176E+03 -1.74575E+04  9.60620E+03 -1.38095E+04  1.73161E+04 -3.55382E+03
  1.49420E+04  3.13737E+03  7.72188E+03  1.02163E+04  2.62719E+03  1.16230E+04 -5.11850E+03  8.36657E+03
 -6.63689E+03  1.75368E+03 -2.88170E+03 -6.22588E+02 -2.39537E+03 -1.50275E+03 -5.17194E+02 -8.14927E+02
 -7.32974E+02  6.05054E+02 -3.61124E+03 -3.15691E+02 -1.83097E+03 -2.61314E+03 -2.38931E+03 -5.52065E+03
  4.31710E+03 -3.45952E+03  6.40224E+03 -8.47013E+02  7.64778E+03  6.66270E+03  2.21193E+03  1.29413E+04
 -6.18527E+03  1.21773E+04 -1.36156E+04  9.37749E+03 -1.44193E+04 -1.62560E+03 -9.81198E+03 -8.81163E+03
 -4.48010E+03 -1.19602E+04  3.18589E+03 -9.93405E+03  7.09334E+03 -6.32236E+03  6.27113E+03  6.28920E+02
  4.43190E+03  3.76986E+03 -2.13106E+03  4.23923E+03 -2.20545E+03  6.79693E+02  1.15575E+03 -3.04487E+03
  3.70027E+03 -1.20887E+03  3.36289E+03 -3.53352E+02  3.81129E+03  4.75087E+03  3.24988E+02  7.28607E+03
 -6.11546E+03  4.48270E+03 -6.71950E+03  5.32886E+02 -5.83209E+03 -7.40550E+03  1.73424E+02 -1.03264E+04
  4.26062E+03 -7.74740E+03  8.02767E+03 -3.31783E+03  7.42678E+03  1.23438E+03  4.35526E+03  6.35525E+03
 -5.95805E+02  7.97490E+03 -3.72482E+03  5.33025E+03 -5.04093E+03  3.40569E+03 -6.42041E+03  1.82954E+03
 -1.74268E+03 -1.03582E+03 -1.53879E+03  2.13403E+03 -2.98635E+03  6.56855E+02 -5.91762E+03 -7.91585E+02
 -6.76679E+03 -4.32122E+03 -2.02660E+03 -8.47496E+03  3.19446E+03 -8.29632E+03  5.34193E+03 -3.57007E+03
  7.93259E+03 -6.05632E+02  3.88932E+03  5.77983E+03 -1.02070E+03  8.06403E+03 -6.03496E+03  4.90154E+03
