 $NMID ID='MM_0lb_SNR200_12hz_g55_33.RAW', FMTDAT='(8E13.5)'
 TRAMP=1., VOLUME=1. $END
  3.08692E+05 -2.73556E+02  3.38054E+05  2.51168E+05  8.52878E+04  3.38690E+05 -1.32231E+05  2.51179E+05
 -1.89944E+05  8.47764E+04 -1.10993E+05 -3.21694E+04  1.73139E+03 -5.01102E+04  5.37260E+04 -2.74510E+02
  3.60871E+04  5.40048E+04 -1.53826E+04  7.49094E+04 -6.10252E+04  6.55565E+04 -8.45466E+04  3.25237E+04
 -8.04206E+04 -1.19478E+04 -5.72638E+04 -5.26597E+04 -1.53234E+04 -7.08291E+04  2.81653E+04 -4.69615E+04
  3.97839E+04  3.31458E+03  1.50981E+04  4.90356E+04 -3.41221E+04  4.87141E+04 -6.91901E+04 -2.77466E+02
 -5.41141E+04 -5.78897E+04 -7.29668E+03 -7.76489E+04  3.26083E+04 -5.47808E+04  4.90638E+04 -1.78854E+04
  4.56675E+04  1.02543E+04  3.27187E+04  2.75202E+04  1.59550E+04  3.10657E+04 -5.88399E+03  2.69597E+04
 -2.25282E+04  1.23685E+04 -1.82389E+04 -5.72877E+03  6.65304E+03 -7.07613E+03  2.27948E+04  1.50588E+04
  7.27021E+03  3.67394E+04 -3.30051E+04  3.78007E+04 -6.39356E+04  2.04308E+03 -5.85810E+04 -4.24785E+04
 -1.37442E+04 -6.39529E+04  4.18313E+04 -4.70281E+04  5.89902E+04 -2.99652E+03  3.57403E+04  3.40859E+04
 -5.65912E+03  3.69634E+04 -3.10804E+04  1.75227E+04 -3.27209E+04 -4.37782E+03 -1.74756E+04 -1.16679E+04
 -9.38020E+03 -1.23916E+04 -4.93475E+01 -2.04717E+04  8.00791E+03 -2.40867E+04  1.60545E+04 -1.29023E+04
  1.05581E+04  6.57867E+03 -9.24109E+03  1.19171E+04 -2.34646E+04 -6.37854E+03 -8.46058E+03 -3.52828E+04
  2.51380E+04 -4.56715E+04  5.02784E+04 -2.10992E+04  4.65166E+04  2.06948E+04  1.62573E+04  4.47008E+04
 -1.68438E+04  3.44259E+04 -2.61367E+04  1.91847E+03 -9.66080E+03 -2.82866E+04  2.07372E+04 -3.48645E+04
  4.43909E+04 -1.20168E+04  3.84302E+04  2.60072E+04  1.94579E+04  4.97883E+04 -8.93658E+03  5.28750E+04
 -3.30357E+04  3.61119E+04 -4.45963E+04  1.03302E+04 -4.57962E+04 -1.75451E+04 -2.42831E+04 -3.97682E+04
  7.73198E+03 -4.02888E+04  3.19542E+04 -1.59055E+04  3.09281E+04  1.11821E+04  4.84627E+03  2.16079E+04
 -1.37226E+04  8.40415E+03 -1.05443E+04 -7.18194E+03  5.48833E+03 -1.13820E+04  1.87023E+04  5.93790E+03
  1.29903E+04  2.26646E+04 -5.45232E+03  2.52561E+04 -2.25299E+04  1.41611E+04 -2.84936E+04 -3.30743E+03
 -2.28840E+04 -1.71319E+04 -9.78186E+03 -2.30162E+04  4.05331E+03 -2.22601E+04  1.85678E+04 -2.07533E+04
  3.00620E+04 -1.31747E+04  3.58236E+04  4.22761E+03  2.63320E+04  2.20176E+04  4.48079E+03  3.93457E+04
 -1.95447E+04  3.19506E+04 -2.99257E+04  1.13144E+04 -2.06287E+04 -1.01015E+04 -4.63674E+03 -1.34278E+04
  2.04752E+03 -1.94719E+03 -5.03262E+03  7.75464E+03 -1.77049E+04  4.66767E+03 -1.82809E+04 -9.23234E+03
 -1.03679E+04 -2.15444E+04  6.67616E+03 -2.50972E+04  1.72271E+04 -1.76940E+04  1.94120E+04 -7.01558E+02
  1.33827E+04  1.27608E+04 -1.10123E+03  2.10365E+04 -1.30707E+04  1.16923E+04 -2.20574E+04 -4.47033E+03
 -1.63059E+04 -1.86034E+04 -9.56922E+02 -2.55155E+04  1.18154E+04 -2.17493E+04  2.14261E+04 -1.17587E+04
  2.04816E+04 -5.59172E+02  1.43007E+04  4.96716E+03  7.78917E+03  8.41124E+02  9.68622E+03 -1.82412E+03
  1.93047E+04  3.17502E+03  2.31003E+04  1.63165E+04  1.37784E+04  3.49234E+04 -2.76864E+03  3.93776E+04
 -2.12389E+04  3.21974E+04 -3.62707E+04  1.64110E+04 -3.97844E+04 -4.45157E+03 -3.08549E+04 -2.20303E+04
 -1.30946E+04 -3.45260E+04  1.15193E+04 -2.85912E+04  2.42307E+04 -1.52587E+04  2.17355E+04  6.68446E+03
  6.41646E+03  1.64500E+04 -9.57191E+03  1.46008E+04 -1.72845E+04  3.60008E+03 -1.22315E+04 -1.11025E+04
 -1.75867E+03 -1.73621E+04  9.22125E+03 -1.44036E+04  1.21053E+04 -1.70725E+03  3.69127E+03  8.02795E+03
 -7.61871E+03  3.62673E+03 -7.60497E+03 -5.82596E+03 -4.41965E+01 -1.57956E+04  1.08388E+04 -1.77402E+04
  1.83730E+04 -8.16435E+03  2.18925E+04  3.32227E+03  1.95802E+04  1.41404E+04  9.23389E+03  2.50538E+04
 -6.25400E+03  2.57999E+04 -1.62793E+04  1.67821E+04 -1.79004E+04  3.51746E+03 -1.29027E+04 -5.17563E+03
 -6.90085E+03 -6.31982E+03 -6.59788E+02  6.91921E+02 -3.12692E+03  4.09781E+03 -6.01539E+03  5.15508E+03
 -1.24021E+04 -1.39864E+03 -1.33885E+04 -1.23304E+04 -5.24799E+03 -1.68526E+04  5.48763E+03 -1.24861E+04
  1.12967E+04 -5.00006E+03  7.33244E+03  2.43539E+03 -3.56638E+01  5.75489E+03 -6.62320E+03  2.33518E+02
 -6.47624E+03 -7.54811E+03 -1.95667E+03 -1.24394E+04  7.53430E+03 -1.35026E+04  1.75919E+04 -6.35341E+03
  2.07555E+04  2.64520E+03  1.51483E+04  1.21331E+04  1.58092E+03  1.57911E+04 -8.24198E+03  1.38110E+04
 -1.08830E+04  3.57570E+03 -5.35314E+03 -2.70901E+03  2.43434E+03 -4.17251E+03  8.30643E+03 -1.22057E+03
  6.59223E+03  6.83755E+03  5.95778E+02  1.02478E+04 -6.84105E+03  1.18071E+04 -1.39901E+04  1.98182E+03
 -9.57159E+03 -6.88696E+03 -1.18020E+03 -1.15827E+04  5.73015E+03 -6.93411E+03  7.95800E+03  2.08140E+03
  2.15717E+03  7.72408E+03 -6.86222E+03  1.04115E+04 -9.89168E+03  3.90090E+03 -1.03218E+04 -4.22719E+03
 -5.45079E+03 -1.30890E+04  1.91232E+03 -1.48844E+04  1.21608E+04 -7.24010E+03  1.25799E+04  1.13419E+03
  7.70224E+03  9.57020E+03 -1.76141E+03  1.33563E+04 -1.00015E+04  6.54864E+03 -9.87933E+03 -1.80796E+03
 -8.75955E+03 -8.20381E+03 -9.08572E+02 -9.71653E+03  3.53693E+03 -8.06808E+03  7.14513E+03 -3.17611E+03
  3.70279E+03  2.85391E+03 -4.86995E+02  2.04543E+03 -4.46567E+02 -3.01560E+03  8.13902E+02 -6.36177E+03
  1.02683E+04 -3.07060E+03  1.32932E+04  1.00173E+02  1.27952E+04  6.83011E+03  8.57139E+03  1.65413E+04
 -3.80316E+03  1.90799E+04 -1.54595E+04  1.51000E+04 -2.07003E+04  1.42671E+03 -1.53719E+04 -7.25639E+03
 -7.86786E+03 -1.21712E+04 -3.94981E+01 -1.30341E+04  4.45511E+03 -6.46264E+03  4.15914E+03 -3.52185E+03
  2.74329E+03 -3.85280E+03  3.73792E+03 -3.23855E+03  6.63559E+03 -2.37491E+03  6.55740E+03 -1.76798E+03
  7.20625E+03  2.05622E+03  5.03704E+03  6.63034E+03 -1.97630E+03  8.11366E+03 -9.83418E+03  6.30360E+03
 -1.07414E+04 -1.64609E+03 -6.60314E+03 -8.32518E+03 -1.53707E+03 -1.15956E+04  6.80239E+03 -1.18183E+04
  1.20683E+04 -5.83905E+03  1.42504E+04  2.47053E+03  1.00708E+04  9.17754E+03  1.72961E+03  1.32343E+04
 -4.71535E+03  1.11952E+04 -8.67991E+03  4.66558E+03 -5.77023E+03 -1.62399E+03 -1.96885E+03 -2.11949E+03
 -9.67711E+02 -1.36331E+03 -1.88071E+03  2.67267E+03 -4.39681E+03  2.40706E+03 -8.13756E+03 -2.03606E+03
 -5.40776E+03 -7.60575E+03  1.07434E+03 -1.03503E+04  6.27540E+03 -9.34774E+03  9.77686E+03 -2.11535E+03
  1.12650E+04  4.42071E+03  5.99832E+03  9.07694E+03 -2.86493E+03  1.19999E+04 -6.75587E+03  6.53816E+03
 -1.11055E+04  5.17273E+02 -7.03455E+03 -4.59675E+03 -2.34261E+03 -9.22027E+03  3.67733E+03 -5.10574E+03
  6.50901E+03 -2.41617E+03  4.80011E+03  2.33003E+03  5.92626E+02  2.47784E+03  1.89549E+03  1.01354E+03
  2.21636E+03  1.62500E+03  2.91167E+03  3.10536E+03  3.22327E+03  3.77728E+03  3.53722E+03  5.73228E+03
 -3.18499E+03  8.66844E+03 -5.83540E+03  8.74732E+03 -9.54451E+03  8.21765E+02 -1.14025E+04 -4.08618E+03
 -5.56767E+03 -9.50105E+03  1.14059E+03 -1.20043E+04  6.46951E+03 -7.18639E+03  6.55337E+03 -3.54459E+03
  6.48511E+03  5.53932E+03  1.87901E+03  5.58475E+03 -2.73948E+03  4.51367E+03 -4.68174E+03 -9.57969E+02
 -1.82775E+03 -3.22940E+03  3.10306E+03 -3.96068E+03  4.54353E+03 -2.60339E+03  4.71388E+03  1.70518E+03
  1.87855E+03  2.66709E+03  6.10262E+02  1.76235E+03 -7.64502E+02  2.17084E+03  2.18668E+03 -1.86258E+02
  7.98532E+02 -1.30894E+03  4.46004E+03  2.31302E+03  2.71337E+03  5.94298E+03  8.20656E+02  7.70352E+03
 -4.73966E+03  3.52210E+03 -6.64279E+03  2.13127E+03 -6.75864E+03 -2.90149E+03 -8.85672E+02 -3.63166E+03
  1.17220E+03 -4.42592E+03  3.71888E+03 -1.05231E+03  3.80363E+03  1.77873E+03 -1.07252E+03  4.13984E+03
 -4.05733E+03  1.74681E+03 -5.06116E+03 -1.17352E+03 -1.25102E+03 -4.96494E+03 -5.07891E+02 -5.21788E+03
  4.78997E+03 -3.46274E+03  4.46496E+03 -7.21441E+01  4.54037E+03  6.23490E+02  4.71393E+02  4.53763E+03
 -2.38915E+03  1.69047E+03 -9.22227E+02 -3.16333E+03 -4.57664E+02 -3.71499E+03  4.93378E+03 -2.15586E+03
  5.38946E+03 -2.77444E+02  6.30638E+03  3.05180E+03  2.68342E+03  6.46421E+03 -1.23249E+03  6.05313E+03
 -5.14936E+03  3.34848E+03 -6.03811E+03 -1.64002E+03 -3.73171E+03 -2.66805E+03  9.54459E+02 -3.20022E+03
  3.93610E+03 -1.54878E+03  3.93239E+03  2.12049E+03  1.27192E+03  3.87526E+03 -7.21613E+02  2.37089E+03
 -1.76773E+03  1.09766E+03 -1.09116E+03  7.30490E+02 -8.12899E+02 -2.71092E+02 -3.10734E+02  2.12434E+03
 -2.00349E+03  1.93797E+03 -4.32235E+03  2.56607E+03 -5.45511E+03 -6.31579E+02 -5.88337E+03 -3.44280E+03
 -4.32830E+03 -9.78343E+03  1.96953E+03 -1.09202E+04  5.29761E+03 -7.14640E+03  8.76038E+03 -1.64688E+03
  8.58483E+03  1.36665E+03  5.70461E+03  5.33341E+03 -7.69070E+02  6.74988E+03 -2.78400E+03  3.15922E+03
 -4.12756E+03  2.25047E+03 -2.41002E+03 -4.17941E+02 -1.71908E+03  2.00951E+02 -6.70511E+02  2.49049E+02
 -1.08179E+03 -3.60777E+02 -1.71906E+03  9.58516E+02  3.28097E+02 -1.87996E+03 -8.87193E+02 -2.10667E+03
  2.76517E+03 -1.54206E+03  3.63265E+03 -5.40921E+02  4.13600E+03  3.80329E+03  1.78683E+03  5.96035E+03
 -3.38682E+03  6.85657E+03 -6.39374E+03  2.56824E+03 -6.93050E+03 -1.57089E+03 -6.69472E+03 -3.58807E+03
 -1.81141E+03 -6.82429E+03  1.53953E+03 -6.13817E+03  3.72148E+03 -2.16077E+03  3.57033E+03  1.34585E+02
  1.26831E+03  3.21643E+03  1.40896E+03  1.81707E+03 -1.20656E+03 -3.31758E+02  1.85439E+02 -1.05962E+03
  2.91930E+02 -3.95698E+02  2.02870E+03  4.21442E+02  3.65598E+03  2.66994E+03 -3.82337E+02  2.44531E+03
 -3.22131E+03  1.08971E+03 -4.78949E+03 -2.37665E+02 -4.38407E+03 -2.60274E+03 -6.79219E+02 -4.54812E+03
  3.13261E+03 -3.52501E+03  5.31443E+03 -1.22340E+03  4.86216E+03  1.21489E+03  3.61415E+03  4.36171E+03
  8.98710E+02  3.80761E+03 -1.56856E+03  2.55916E+03 -2.61262E+03  1.98007E+03 -2.29958E+03  4.36373E+02
 -3.94488E+02  9.03688E+00 -1.77520E+03  5.19356E+02 -2.05363E+03  1.03246E+03 -1.89376E+03 -1.66078E+03
 -3.58086E+03 -1.58452E+03 -9.63563E+02 -3.09466E+03  1.92709E+03 -3.98863E+03  2.58123E+03 -1.07941E+03
  4.28553E+03 -5.76655E+02  1.79957E+03  2.36188E+03  4.59199E+02  4.18266E+03 -2.97060E+03  3.19852E+03
