 $NMID ID='MM_0lb_SNR200_20hz_g55_98.RAW', FMTDAT='(8E13.5)'
 TRAMP=1., VOLUME=1. $END
  3.09208E+05  6.09595E+02  3.37591E+05  2.49690E+05  8.45840E+04  3.37836E+05 -1.33478E+05  2.50994E+05
 -1.90394E+05  8.24540E+04 -1.10589E+05 -3.23779E+04  1.43404E+03 -5.01381E+04  5.37804E+04  8.98338E+02
  3.48274E+04  5.33711E+04 -1.76755E+04  7.44223E+04 -5.99845E+04  6.24943E+04 -8.32923E+04  3.21589E+04
 -7.97809E+04 -1.04125E+04 -5.54479E+04 -4.98867E+04 -1.51017E+04 -6.78583E+04  2.63597E+04 -4.45380E+04
  3.90426E+04  3.89437E+03  1.47216E+04  4.81420E+04 -3.25022E+04  4.66356E+04 -6.57423E+04 -6.92088E+02
 -5.14732E+04 -5.55801E+04 -6.58031E+03 -7.49041E+04  3.35206E+04 -5.31918E+04  4.67931E+04 -1.62885E+04
  4.16605E+04  9.88333E+03  3.18775E+04  2.44758E+04  1.50107E+04  2.76510E+04 -3.72837E+03  2.64623E+04
 -2.14898E+04  1.29734E+04 -1.83057E+04 -5.48508E+03  4.35083E+03 -7.94731E+03  2.23489E+04  1.07063E+04
  7.54068E+03  3.28506E+04 -3.13666E+04  3.39252E+04 -6.14279E+04  2.25676E+03 -5.49436E+04 -4.25819E+04
 -1.30542E+04 -6.07646E+04  3.81124E+04 -4.31293E+04  5.43903E+04 -2.03259E+03  3.13905E+04  3.09770E+04
 -7.19190E+03  3.32370E+04 -2.78888E+04  1.27358E+04 -2.79762E+04 -5.54131E+03 -1.49458E+04 -9.05629E+03
 -7.55722E+03 -1.18904E+04 -7.98608E+02 -1.65451E+04  6.53030E+03 -2.29560E+04  1.54190E+04 -1.38519E+04
  1.10359E+04  4.68458E+03 -6.39046E+03  1.31877E+04 -1.88911E+04 -2.46501E+03 -8.44071E+03 -2.98819E+04
  2.08326E+04 -3.95094E+04  4.54006E+04 -1.88641E+04  4.20289E+04  1.90024E+04  1.45869E+04  4.22508E+04
 -1.59998E+04  3.21806E+04 -2.35598E+04  7.89636E+02 -8.56969E+03 -2.70421E+04  1.97829E+04 -3.17993E+04
  3.78532E+04 -7.18439E+03  3.07589E+04  2.32876E+04  1.62024E+04  4.22642E+04 -7.54809E+03  4.55255E+04
 -2.75688E+04  2.91984E+04 -3.70377E+04  8.54208E+03 -3.83533E+04 -1.53318E+04 -2.13394E+04 -3.40857E+04
  5.60876E+03 -3.38662E+04  2.90036E+04 -1.24348E+04  2.62305E+04  1.09529E+04  2.28091E+03  1.82715E+04
 -1.31742E+04  7.85468E+03 -1.02505E+04 -7.78322E+03  5.93585E+03 -9.37675E+03  1.71503E+04  5.50276E+03
  1.05673E+04  2.15807E+04 -6.12913E+03  2.30247E+04 -2.14573E+04  8.45092E+03 -2.58447E+04 -5.49355E+03
 -1.62894E+04 -1.67213E+04 -6.01129E+03 -1.62446E+04  3.05626E+03 -1.34301E+04  1.25581E+04 -1.56896E+04
  2.13332E+04 -1.11853E+04  2.80596E+04  6.26956E+02  2.19639E+04  1.68329E+04  4.41794E+03  3.18194E+04
 -1.60030E+04  2.64863E+04 -2.48979E+04  9.03936E+03 -1.93182E+04 -9.57549E+03 -4.66260E+03 -1.35683E+04
  3.12646E+03 -4.40997E+03 -3.18286E+03  5.14529E+03 -1.25143E+04  6.20968E+03 -1.34785E+04 -5.13762E+03
 -7.75351E+03 -1.54030E+04  4.89278E+03 -2.00928E+04  1.23834E+04 -1.38334E+04  1.50956E+04 -1.38124E+03
  8.67433E+03  1.11292E+04 -1.04449E+03  1.64589E+04 -9.62891E+03  9.02147E+03 -1.47012E+04 -2.98890E+03
 -1.24641E+04 -1.35406E+04 -2.19795E+03 -1.83249E+04  8.70508E+03 -1.47615E+04  1.62148E+04 -7.62668E+03
  1.53209E+04  2.47117E+02  9.86559E+03  3.59659E+03  5.12921E+03  5.22406E+02  7.39123E+03 -1.21061E+03
  1.35411E+04  2.51756E+03  1.42777E+04  1.19050E+04  8.74935E+03  2.33779E+04 -3.45276E+03  2.53100E+04
 -1.53774E+04  1.97381E+04 -2.34587E+04  9.70766E+03 -2.47078E+04 -1.73129E+03 -2.09301E+04 -1.30158E+04
 -1.02264E+04 -1.91178E+04  6.85019E+03 -1.75564E+04  1.62909E+04 -1.03124E+04  1.57920E+04  3.56576E+03
  5.09433E+03  1.11516E+04 -6.42431E+03  1.17858E+04 -1.33522E+04  2.59774E+03 -9.72995E+03 -7.31657E+03
 -6.78670E+02 -1.24936E+04  5.88883E+03 -8.30239E+03  7.55001E+03 -6.13116E+02  9.14281E+02  5.25297E+03
 -4.89014E+03  1.33391E+03 -3.74353E+03 -4.99174E+03  1.91486E+03 -1.07982E+04  7.58891E+03 -8.59752E+03
  1.08369E+04 -3.60935E+03  1.04125E+04  2.51392E+03  9.47347E+03  9.55302E+03  4.84092E+03  1.36605E+04
 -1.98760E+03  1.57052E+04 -9.06632E+03  1.07215E+04 -1.04319E+04  2.15072E+03 -7.85968E+03 -1.84151E+03
 -3.79949E+03 -3.83854E+03 -1.04989E+03  1.95240E+03 -1.22902E+03  1.43073E+03 -4.03908E+03  2.69858E+03
 -8.11970E+03 -2.31383E+02 -8.58494E+03 -7.54631E+03 -4.30479E+03 -1.09438E+04  3.60488E+03 -8.58554E+03
  6.70915E+03 -4.24459E+03  5.40150E+03  3.06833E+03  1.09127E+03  3.81343E+03 -4.40691E+03  7.07646E+02
 -3.43006E+03 -4.30335E+03 -1.05480E+03 -6.26182E+03  3.70876E+03 -6.50779E+03  9.63047E+03 -4.59987E+03
  1.08766E+04  9.29297E+02  8.96973E+03  6.16976E+03  1.72248E+03  8.13806E+03 -4.65123E+03  7.37712E+03
 -6.62897E+03  2.48669E+03 -4.45028E+03 -2.07318E+03  1.75692E+03 -1.32339E+03  3.66795E+03 -1.32610E+03
  4.52101E+03  2.92014E+03  1.90204E+03  5.89900E+03 -3.23766E+03  5.40508E+03 -8.60570E+03  1.95659E+03
 -4.85454E+03 -3.93551E+03 -5.16615E+01 -4.94103E+03  3.70688E+03 -2.87161E+03  3.12254E+03  4.96195E+02
  2.78436E+02  2.42074E+03 -4.07751E+03  4.50120E+03 -4.46616E+03  2.48870E+03 -3.98038E+03 -7.27825E+02
 -2.28374E+03 -6.25651E+03  9.30087E+02 -6.23695E+03  5.28894E+03 -4.09259E+03  5.67632E+03  1.48938E+03
  5.82531E+03  5.37675E+03 -1.12926E+03  6.65533E+03 -4.34113E+03  3.98701E+03 -5.14041E+03 -8.26257E+01
 -5.41461E+03 -4.84121E+03 -1.01520E+03 -4.38557E+03  3.05613E+03 -4.57613E+03  2.86816E+03 -2.23064E+03
  3.64581E+03  5.21670E+02  1.35807E+03  1.22079E+03  5.55297E+02 -2.66010E+02  2.30992E+02 -1.37318E+03
  3.02841E+03 -6.87296E+02  4.31129E+03 -1.59264E+02  4.72001E+03  2.08612E+03  4.85148E+03  5.82095E+03
 -2.29773E+02  8.51996E+03 -7.44046E+03  6.25244E+03 -8.88203E+03  2.28685E+03 -6.10258E+03 -1.78409E+03
 -3.61003E+03 -6.39852E+03 -6.30586E+02 -4.59359E+03  2.68062E+03 -2.10750E+03  1.45068E+03 -2.46274E+03
  3.77010E+02 -1.32066E+03  2.07291E+03 -2.76531E+03  2.59157E+03 -1.52331E+03  4.40519E+03  1.67508E+03
  3.82862E+03  1.16056E+03  1.28194E+03  3.76062E+03 -1.68893E+03  2.00962E+03 -3.68844E+03  3.30275E+03
 -4.39289E+03 -1.65310E+03 -1.84211E+03 -3.03598E+03  9.84292E+02 -3.76995E+03  1.10458E+03 -4.51557E+03
  4.28936E+03 -2.67402E+03  6.26469E+03 -2.57878E+02  3.43979E+03  3.58525E+03  1.35562E+03  4.90988E+03
 -1.71478E+03  5.12286E+03 -3.16086E+03  1.61984E+03 -1.32208E+03 -7.00257E+02 -8.26904E+02 -7.88918E+02
  4.69265E+02 -1.83601E+02 -6.13228E+01  2.15640E+03 -1.55110E+03  7.14164E+02 -4.12375E+03 -4.36644E+02
 -7.02900E+02 -3.41648E+03 -4.46529E+02 -3.68018E+03  2.41472E+03 -3.85996E+03  2.97892E+03 -1.18494E+03
  3.58581E+03  1.61862E+03  6.85028E+02  1.94703E+03 -1.13086E+02  4.03706E+03 -2.59082E+03  2.99529E+03
 -3.27536E+03  1.49731E+02 -3.99270E+03 -2.15958E+03 -1.17265E+02 -2.50266E+03  1.74694E+03 -1.68101E+03
  2.14755E+03 -8.34807E+02  2.53134E+03  9.84762E+02  9.03923E+02  9.08607E+02  4.15387E+02  1.39459E+03
  9.77159E+02  3.67649E+02  1.11203E+03  1.36865E+02 -2.01072E+02  1.62871E+03  1.77906E+03  7.45743E+02
 -2.53623E+03  3.02430E+03 -2.68982E+03  4.29884E+03 -1.73923E+03  1.33333E+03 -2.69237E+03  8.70734E+01
 -8.44191E+02 -3.85166E+03  3.86715E+02 -4.20459E+03  1.16033E+03 -1.60653E+03  2.73268E+03 -2.86023E+02
  1.24222E+03  1.49811E+03 -9.29291E+02  2.88922E+03 -1.20696E+03  5.96985E+02 -5.31860E+02  5.44156E+02
 -9.79561E+02 -9.76620E+02  2.17324E+03 -4.75846E+02  5.88879E+02 -6.56659E+02 -7.84798E+00  4.79401E+02
  1.43674E+03 -2.51567E+02 -3.71072E+02 -2.02116E+02 -3.30363E+02 -1.72489E+02  1.93084E+03  6.77926E+01
 -4.63742E+01 -1.37035E+03  1.84933E+03  4.94948E+02 -4.58962E+02  1.13348E+03  6.21988E+01  1.53342E+03
 -2.36117E+03  9.73671E+02 -1.99860E+03  1.54448E+02 -2.44704E+03 -8.09935E+01 -1.27914E+01 -1.19122E+03
  8.95007E+02 -3.73064E+02 -3.81870E+02 -5.22976E+02  1.33949E+02  1.69256E+03 -4.80440E+02  9.19159E+02
 -7.41220E+02  5.73831E+01 -3.48407E+01 -1.30189E+03 -4.13649E+02 -1.75011E+03  1.03310E+02 -4.45881E+02
 -5.25228E+02 -4.35619E+02  1.26414E+03 -1.04141E+03  6.26019E+02  9.07728E+01  6.09671E+02  4.37446E+02
  1.03911E+02 -1.39438E+03 -4.23462E+02  2.40018E+02  7.43755E+02 -7.04383E+02  1.38757E+03  4.81940E+01
  1.68036E+03  5.70271E+02  1.84824E+03 -5.37871E+01  7.42157E+02  8.39939E+02 -6.50224E+02  1.38479E+03
 -1.09170E+03 -1.02942E+03 -6.07372E+02 -1.03456E+03 -6.77148E+02 -1.29644E+03  8.92917E+02 -1.16158E+03
  6.53213E+02 -1.17588E+03  4.47705E+02  3.80987E+02  6.91874E+02 -4.66378E+02 -6.92591E+02  1.04407E+03
  9.42669E+02  1.24912E+03 -6.86691E+02  4.28897E+02 -1.10887E+03 -1.68733E+02 -2.42756E+02  7.95144E+02
 -8.55409E+02  1.11092E+03 -1.19197E+03  1.20855E+03 -1.20780E+03 -2.99325E+02 -2.82714E+03 -6.10775E+02
 -1.15657E+03 -1.94753E+03  7.98224E+02 -2.09785E+03  9.13578E+02 -1.50258E+03  2.09118E+03 -1.71178E+03
  1.44683E+03 -3.23153E+02  3.09255E+02  1.40354E+03 -7.38434E+02  1.07544E+03  9.21841E+01  1.29406E+03
 -3.46829E+02  8.78257E+02 -5.33185E+02 -6.77808E+02 -4.55128E+02  7.63099E+02 -1.11242E+03 -6.31386E+02
 -9.47875E+02 -1.60761E+02 -1.28394E+03 -3.94668E+01  2.54221E+02 -2.70254E+02 -9.02296E+02 -2.27456E+03
  2.24738E+03  7.75657E+02 -3.65341E+02  6.56052E+02  6.53431E+02  2.04087E+02 -6.48371E+02  9.66665E+02
 -6.56710E+02  2.15483E+03 -1.37725E+03  9.85822E+02 -7.51707E+02 -4.72590E+02 -1.31290E+03 -6.25479E+02
 -4.13163E+02 -3.97756E+02 -8.84248E+02 -6.53014E+02 -4.48733E+02 -8.60478E+02  3.58486E+02 -2.06208E+02
  7.45903E+01 -4.26046E+01 -4.41462E+02  1.42805E+03 -1.94820E+02  5.76798E+02 -1.29202E+02  7.05012E+02
  8.78497E+01  1.35150E+02 -8.46845E+02  1.08379E+03  8.43276E+01  9.21639E+02  1.27415E+03  7.83687E+02
  2.11918E+02  1.09647E+02 -4.31837E+02  5.17825E+02 -1.59476E+03 -7.63460E+02  2.27518E+02 -1.08450E+03
  5.05427E+02 -1.00002E+03  2.71735E+02 -1.09203E+03  2.93088E+00 -8.08697E+02 -6.69192E+02  8.07394E+02
 -7.00667E+01 -4.43835E+02  9.86591E+01 -5.77539E+02  6.36244E+02  5.18697E+02  8.97596E+02  6.10433E+02
 -8.44636E+02 -3.57096E+02  4.30864E+00  8.60963E+02 -2.03693E+02  1.26371E+03 -6.28789E+02 -9.11630E+02
 -7.16507E+02  4.34906E+02 -9.92511E+02 -1.62776E+03  2.06691E+02 -1.03007E+03 -3.31749E+02  1.15473E+02
  1.22803E+03  1.28766E+02  4.35695E+02  2.03257E+02  2.08672E+02 -4.89750E+02 -7.06684E+01  6.67674E+02
