 $NMID ID='MM_0lb_SNR200_19hz_g45_45.RAW', FMTDAT='(8E13.5)'
 TRAMP=1., VOLUME=1. $END
  3.10370E+05  1.03845E+03  3.36301E+05  2.50058E+05  8.37781E+04  3.37310E+05 -1.32576E+05  2.50292E+05
 -1.90927E+05  8.16815E+04 -1.11030E+05 -3.20627E+04  1.83488E+03 -5.04301E+04  5.45182E+04  1.04897E+03
  3.55938E+04  5.27911E+04 -1.70716E+04  7.42463E+04 -5.96945E+04  6.36625E+04 -8.19937E+04  3.23868E+04
 -7.84666E+04 -1.09045E+04 -5.58495E+04 -4.95936E+04 -1.47907E+04 -6.64647E+04  2.66589E+04 -4.49222E+04
  3.81323E+04  4.32829E+03  1.50330E+04  4.70436E+04 -3.41035E+04  4.62694E+04 -6.46980E+04 -1.00029E+02
 -5.25178E+04 -5.55949E+04 -5.54062E+03 -7.57878E+04  3.30464E+04 -5.28500E+04  4.61442E+04 -1.68138E+04
  4.09875E+04  1.14512E+04  3.09941E+04  2.36415E+04  1.70349E+04  2.67157E+04 -4.90424E+03  2.73019E+04
 -2.21739E+04  1.30634E+04 -1.85218E+04 -3.83206E+03  3.86215E+03 -8.04413E+03  2.13695E+04  1.04240E+04
  7.23671E+03  3.29244E+04 -3.06640E+04  3.29031E+04 -6.10309E+04  1.66529E+03 -5.46704E+04 -4.05666E+04
 -1.31129E+04 -6.04364E+04  3.76455E+04 -4.33269E+04  5.46579E+04 -2.13617E+03  3.18152E+04  2.96663E+04
 -6.48521E+03  3.23710E+04 -2.79667E+04  1.29872E+04 -2.69789E+04 -5.12113E+03 -1.56440E+04 -1.05776E+04
 -7.89279E+03 -1.11467E+04 -7.10346E+02 -1.69783E+04  6.95963E+03 -2.25071E+04  1.51737E+04 -1.41608E+04
  1.17256E+04  4.24909E+03 -5.29223E+03  1.11620E+04 -1.95954E+04 -1.37166E+03 -7.97087E+03 -3.13773E+04
  1.97219E+04 -3.92062E+04  4.34652E+04 -1.82452E+04  4.19815E+04  1.76168E+04  1.36070E+04  4.15033E+04
 -1.51316E+04  3.01298E+04 -2.27536E+04  4.71409E+02 -7.56893E+03 -2.61063E+04  2.11001E+04 -3.06414E+04
  3.77290E+04 -7.67040E+03  3.03552E+04  2.31808E+04  1.49473E+04  4.38774E+04 -7.69792E+03  4.49047E+04
 -2.81427E+04  2.81854E+04 -3.61645E+04  7.97542E+03 -3.76972E+04 -1.50915E+04 -2.09627E+04 -3.28274E+04
  7.99763E+03 -3.37939E+04  2.92707E+04 -1.24776E+04  2.67379E+04  1.15763E+04  1.65954E+03  1.78013E+04
 -1.17638E+04  6.93626E+03 -8.96980E+03 -7.38065E+03  6.54172E+03 -1.09962E+04  1.73151E+04  6.48831E+03
  1.35479E+04  2.13100E+04 -6.83166E+03  2.35618E+04 -2.13982E+04  8.23844E+03 -2.43595E+04 -5.63218E+03
 -1.70569E+04 -1.61404E+04 -4.24424E+03 -1.62561E+04  3.31549E+03 -1.36453E+04  1.28020E+04 -1.29860E+04
  2.02025E+04 -1.16969E+04  2.78391E+04  2.08908E+03  2.08050E+04  1.56471E+04  3.70786E+03  3.12375E+04
 -1.59868E+04  2.81948E+04 -2.55479E+04  9.98606E+03 -1.93236E+04 -1.01316E+04 -4.08785E+03 -1.38821E+04
  2.23513E+03 -4.39935E+03 -1.38442E+03  5.82204E+03 -1.27440E+04  5.56438E+03 -1.30041E+04 -4.93594E+03
 -8.73770E+03 -1.46109E+04  3.89064E+03 -1.91643E+04  1.28285E+04 -1.32351E+04  1.47171E+04 -3.89664E+02
  7.55174E+03  1.17483E+04 -6.90948E+02  1.61634E+04 -9.56422E+03  7.76256E+03 -1.52952E+04 -2.52278E+03
 -1.19186E+04 -1.31322E+04 -4.18350E+02 -1.86739E+04  9.22414E+03 -1.47695E+04  1.69377E+04 -6.45194E+03
  1.44771E+04  1.27656E+03  1.01032E+04  3.07718E+03  4.04225E+03  2.23239E+02  7.77507E+03 -1.51066E+03
  1.18787E+04  3.56841E+03  1.53486E+04  1.24209E+04  8.54914E+03  2.36384E+04 -3.23870E+03  2.54690E+04
 -1.54501E+04  1.86893E+04 -2.26844E+04  9.09092E+03 -2.63035E+04 -1.30403E+03 -2.02416E+04 -1.34739E+04
 -1.05552E+04 -1.95902E+04  6.38652E+03 -1.87400E+04  1.67122E+04 -1.02453E+04  1.41166E+04  3.23606E+03
  6.25747E+03  1.10184E+04 -7.04818E+03  1.16376E+04 -1.25848E+04  1.26155E+03 -8.99316E+03 -7.15475E+03
 -6.51646E+02 -1.21767E+04  6.16654E+03 -9.30368E+03  7.95994E+03 -7.81458E+02  6.55556E+02  4.90838E+03
 -5.33180E+03  1.14929E+03 -3.58063E+03 -5.08630E+03  8.54823E+02 -9.64637E+03  7.11788E+03 -9.68856E+03
  1.16285E+04 -4.24967E+03  1.17177E+04  2.43092E+03  9.30170E+03  8.96883E+03  5.16507E+03  1.38656E+04
 -1.35346E+03  1.46847E+04 -9.07314E+03  9.79421E+03 -1.11095E+04  2.30075E+03 -7.25706E+03 -2.29268E+03
 -3.69513E+03 -2.93286E+03 -6.46484E+02  1.74814E+03 -2.46197E+03  9.53220E+02 -3.90570E+03  3.35576E+03
 -7.32840E+03 -5.50354E+01 -9.16095E+03 -5.64570E+03 -3.82857E+03 -1.15174E+04  3.50101E+03 -8.41749E+03
  5.73654E+03 -3.15032E+03  5.46377E+03  2.29140E+03  1.18848E+03  2.76657E+03 -4.02707E+03 -5.95132E+02
 -3.36730E+03 -4.72886E+03 -2.42779E+02 -6.58763E+03  3.76104E+03 -7.82417E+03  9.59513E+03 -3.79664E+03
  1.11673E+04  3.09415E+02  8.69885E+03  4.87714E+03  1.65186E+03  8.44399E+03 -4.44037E+03  7.17509E+03
 -7.25102E+03  3.34168E+03 -4.03015E+03 -1.07834E+03  1.78585E+03 -2.43132E+03  3.43851E+03 -1.26521E+03
  4.32401E+03  2.22993E+03  2.92900E+02  6.46246E+03 -4.70224E+03  7.32184E+03 -7.21987E+03  2.59601E+03
 -4.70637E+03 -3.90047E+03  9.79504E+02 -7.02678E+03  5.25651E+03 -3.53322E+03  3.70792E+03  5.06787E+02
  7.77372E+02  3.80739E+03 -4.35190E+03  4.60141E+03 -3.53807E+03  2.14257E+03 -3.88742E+03 -2.54575E+01
 -3.61264E+03 -4.62706E+03  1.27348E+03 -6.65196E+03  5.46202E+03 -4.46604E+03  5.56438E+03  7.66805E+02
  3.98196E+03  4.92722E+03  1.07866E+03  7.50608E+03 -3.72902E+03  5.06564E+03 -4.22609E+03 -1.25751E+03
 -6.29133E+03 -5.66248E+03 -2.35448E+03 -3.72048E+03  2.12785E+03 -3.58953E+03  2.16306E+03 -2.98498E+03
  3.10477E+03  3.77271E+02  2.47079E+02  1.66572E+03  6.38521E+02 -5.59240E+02  7.77155E+02 -1.63667E+03
  4.21511E+03 -6.11564E+02  4.61105E+03  4.91971E+02  4.57321E+03  2.69898E+03  5.59615E+03  7.31469E+03
 -8.75374E+02  7.46113E+03 -8.49545E+03  5.02278E+03 -9.48337E+03  1.46301E+02 -6.41857E+03 -1.43834E+03
 -4.35728E+03 -5.36741E+03 -6.84762E+02 -5.69637E+03  2.08391E+03 -2.23589E+03  2.35628E+03 -1.52505E+03
  3.61050E+02 -2.45169E+03  1.74106E+03 -2.45486E+03  3.67855E+03 -1.37914E+03  2.65117E+03  1.73289E+03
  3.53495E+03  1.31556E+03  1.35602E+03  3.81865E+03 -1.66911E+03  2.72386E+03 -4.87121E+03  1.23410E+03
 -4.18430E+03 -1.51189E+03 -1.49488E+03 -3.01627E+03 -1.40709E+02 -4.29087E+03  1.55085E+03 -5.49601E+03
  5.71574E+03 -3.38353E+03  6.70121E+03  4.41648E+02  5.41377E+03  2.96846E+03  6.79421E+02  6.14119E+03
 -2.09400E+03  5.24364E+03 -3.09545E+03  1.41951E+03 -1.55653E+03 -1.34708E+01  2.14635E+02  1.99262E+01
  8.50278E+02  6.38982E+02 -1.32354E+03  2.27244E+03 -2.62549E+03  1.06829E+03 -3.90630E+03 -1.33167E+03
 -1.53780E+03 -3.78205E+03  1.26141E+03 -4.52158E+03  3.00587E+03 -4.97853E+03  2.89061E+03 -6.47108E+02
  4.11057E+03  1.55398E+03  1.31007E+03  2.97213E+03 -9.98729E+02  4.33571E+03 -1.99195E+03  3.12277E+03
 -3.34022E+03  3.94398E+02 -3.80273E+03 -2.41367E+03  2.13072E+02 -3.47931E+03  9.12941E+02 -3.39583E+03
  1.59939E+03 -1.05707E+03  2.23814E+02 -1.10926E+01  9.93095E+02  1.69596E+03  1.98424E+03  1.68591E+03
  7.52465E+02  1.48785E+02  1.22994E+03  9.56601E+02  1.74555E+03  3.44642E+03  1.10901E+03  2.62350E+03
 -9.04180E+02  2.98963E+03 -1.97785E+03  2.84060E+03 -1.33793E+03 -1.96460E+02 -3.59661E+03 -7.41760E+02
 -2.46300E+03 -3.06206E+03  5.95855E+02 -4.93496E+03  1.76383E+03 -1.91224E+03  2.64666E+03 -1.52044E+03
  2.36163E+03  1.52133E+03  3.77061E+02  2.91265E+03 -7.89621E+02  2.13151E+03  9.54185E+01 -2.71314E+01
  1.63322E+02 -1.18415E+03  1.37655E+03 -1.77137E+03  3.95391E+02 -1.16914E+03  2.06856E+03  1.01021E+02
  7.68249E+02  1.39477E+03  8.90364E+02 -1.27580E+02 -1.25643E+03  1.10193E+03  1.34050E+03  3.85145E+02
 -1.18366E+03 -8.30266E+02  1.15777E+03  4.67086E+02  1.31195E+03  2.28054E+03 -9.36458E+02  3.75585E+03
 -1.00482E+03  1.24574E+03 -3.58645E+02  3.19931E+02 -1.33266E+03 -9.51348E+02  1.19806E+03 -7.81681E+02
  5.96770E+02 -2.45020E+03  7.14738E+02 -5.87333E+02  7.44635E+02  1.49511E+03 -4.48551E+02  5.61972E+02
 -1.51434E+03  7.89276E+02 -1.04202E+03 -1.25781E+03 -7.58894E+02 -1.38698E+03  7.14204E+02 -7.64199E+02
  7.72329E+02 -5.54104E+02  1.28154E+03 -1.43963E+02  8.79413E+02  1.86976E+02 -1.21721E+02  1.63734E+03
  8.66884E+02 -1.69126E+02 -8.47441E+02 -5.14099E+02  3.84216E+02 -9.51515E+02  1.48411E+03 -3.86126E+02
  5.42063E+02  1.35874E+03  3.71437E+03  9.92533E+02  1.37211E+03  1.68838E+03  5.75775E+02  1.11910E+03
 -1.18141E+03  2.89526E+02 -1.36588E+03  1.19451E+02  1.56839E+02 -1.54971E+03 -7.62138E+01 -1.41818E+02
  8.42919E+02 -1.53084E+03  4.55826E+02  6.48733E+02 -4.30351E+02  1.22594E+03 -2.95244E+02  5.31060E+02
 -2.83952E+02  8.93232E+02 -1.57155E+02  5.59069E+02 -1.55933E+02  9.02072E+02 -1.70336E+03  1.42993E+02
 -8.29384E+02  4.78766E+02 -1.51998E+03 -1.46063E+02 -1.99164E+03  9.30816E+02 -2.05305E+03 -1.03054E+03
 -1.13777E+03 -2.15142E+03 -1.01638E+03 -9.64641E+02  1.44668E+03 -2.11474E+03  2.25105E+03 -9.74199E+02
  1.47830E+03 -7.47124E+02  1.57562E+03  1.89074E+03 -9.80171E+00  8.96554E+02 -1.54958E+02  1.69454E+03
 -1.07699E+03  1.96312E+03  3.76818E+02 -4.84399E+02  4.52525E+02  5.53683E+02 -6.23913E+02  1.92125E+02
 -1.20837E+03  3.53149E+02 -8.88975E+02  7.75575E+02  8.99521E+01 -3.39579E+02 -1.06994E+02 -7.30483E+02
  2.35227E+03 -8.10105E+02 -3.95852E+02  6.61975E+02  8.89083E+02  5.13690E+02 -9.40659E+02  1.16889E+02
 -6.13118E+02  1.91652E+03 -1.02226E+03  1.25303E+03 -1.70288E+03 -5.34310E+02 -1.68492E+03 -5.25704E+02
 -9.82725E+02 -8.76121E+02  8.50791E+02 -1.57058E+03  1.89711E+02 -8.41090E+00  1.12074E+03  3.85375E+02
  3.90031E+02  6.64015E+02  1.23621E+03  6.78656E+02 -6.51529E+00 -1.95663E+01  5.37916E+02  1.01641E+01
  4.69739E+02  3.61286E+02 -7.44275E+02  5.87394E+02 -3.45567E+02  7.18069E+02  1.71449E+03  1.11418E+03
 -7.68539E+02  7.12355E+02  5.23074E+02  4.81835E+02  1.69949E+02 -6.98293E+02  3.30196E+02 -1.13718E+03
 -4.72613E+02  3.96358E+01 -4.34535E+02  4.77901E+00  1.33810E+03 -1.14843E+03  6.39553E+02  4.84803E+02
 -5.64812E+02  3.75745E+02  1.04265E+02  4.02419E+02 -8.44225E+01  1.25063E+03 -1.12179E+03  1.13052E+02
  2.50060E+02 -6.05059E+02 -8.37694E+02 -6.66806E+02 -5.66747E+02  7.42769E+02 -2.52521E+02 -3.50454E+02
 -1.17898E+03 -2.48262E+02  2.39501E+02 -1.03212E+03  8.72866E+02 -1.58550E+03  8.33083E+02 -6.27186E+02
  8.43178E+02 -1.68588E+02 -1.13001E+03  4.85461E+02  2.02098E+02 -3.89322E+02 -1.87811E+02  3.82828E+02
