 $NMID ID='MM_0lb_SNR200_11hz_g40_4.RAW', FMTDAT='(8E13.5)'
 TRAMP=1., VOLUME=1. $END
  3.09694E+05 -1.63794E+01  3.39225E+05  2.50719E+05  8.43157E+04  3.37608E+05 -1.32115E+05  2.52164E+05
 -1.90559E+05  8.36998E+04 -1.12739E+05 -3.12097E+04  1.41486E+03 -4.96163E+04  5.38688E+04 -2.56251E+02
  3.60129E+04  5.27777E+04 -1.65060E+04  7.47773E+04 -6.18697E+04  6.25673E+04 -8.35779E+04  3.19888E+04
 -8.08329E+04 -9.99368E+03 -5.73038E+04 -5.11913E+04 -1.53146E+04 -6.97946E+04  2.80008E+04 -4.61932E+04
  4.02909E+04  3.66661E+03  1.69071E+04  4.69936E+04 -3.50760E+04  4.78957E+04 -6.73952E+04 -6.49281E+02
 -5.36672E+04 -5.75725E+04 -6.72472E+03 -7.79847E+04  3.48368E+04 -5.58696E+04  4.85413E+04 -1.69233E+04
  4.30847E+04  1.08886E+04  3.12176E+04  2.51809E+04  1.50325E+04  2.95668E+04 -5.64849E+03  2.71253E+04
 -2.23093E+04  1.22715E+04 -1.81533E+04 -5.18229E+03  5.12024E+03 -8.32443E+03  2.37814E+04  1.31641E+04
  8.83650E+03  3.63842E+04 -3.21198E+04  3.58315E+04 -6.35595E+04  2.91901E+03 -5.77698E+04 -4.25130E+04
 -1.24806E+04 -6.41579E+04  4.06747E+04 -4.69309E+04  5.87157E+04 -3.10762E+03  3.39759E+04  3.43187E+04
 -5.65359E+03  3.86274E+04 -2.98462E+04  1.72897E+04 -3.10812E+04 -4.01004E+03 -1.88221E+04 -1.05610E+04
 -8.30402E+03 -1.48213E+04 -2.61274E+02 -1.98089E+04  6.56899E+03 -2.32449E+04  1.67054E+04 -1.44336E+04
  1.06917E+04  5.33665E+03 -8.55904E+03  1.29641E+04 -2.31607E+04 -4.20279E+03 -8.58152E+03 -3.55861E+04
  2.31897E+04 -4.50809E+04  5.00274E+04 -2.01146E+04  4.71138E+04  2.09187E+04  1.62388E+04  4.44865E+04
 -1.66392E+04  3.41316E+04 -2.55980E+04  1.32696E+03 -1.13191E+04 -2.94462E+04  2.02785E+04 -3.52774E+04
  4.25941E+04 -9.75496E+03  3.66366E+04  2.24269E+04  1.90861E+04  4.78553E+04 -7.28576E+03  5.32282E+04
 -3.38382E+04  3.49525E+04 -4.43046E+04  1.06087E+04 -4.37754E+04 -1.78395E+04 -2.41722E+04 -3.94362E+04
  7.33387E+03 -3.92219E+04  3.19944E+04 -1.52636E+04  3.05551E+04  1.11571E+04  5.00599E+03  2.00245E+04
 -1.36277E+04  8.97274E+03 -1.10939E+04 -6.48892E+03  5.50511E+03 -8.87610E+03  1.91710E+04  5.88084E+03
  1.37212E+04  2.26169E+04 -4.53460E+03  2.62046E+04 -2.28267E+04  1.20759E+04 -2.89566E+04 -3.72190E+03
 -2.22065E+04 -1.82569E+04 -9.05516E+03 -2.23747E+04  4.23354E+03 -2.14512E+04  1.62449E+04 -2.02973E+04
  2.85388E+04 -1.33568E+04  3.46116E+04  5.30033E+03  2.47942E+04  2.12215E+04  4.93086E+03  3.76829E+04
 -1.76928E+04  3.06530E+04 -2.83801E+04  1.19987E+04 -2.12647E+04 -1.05760E+04 -5.17579E+03 -1.36733E+04
  2.16644E+03 -2.09377E+03 -5.72581E+03  8.66861E+03 -1.91857E+04  4.54940E+03 -1.61072E+04 -8.70595E+03
 -9.92974E+03 -1.93146E+04  6.99376E+03 -2.52596E+04  1.71837E+04 -1.75309E+04  1.99714E+04 -2.32486E+03
  1.33903E+04  1.65031E+04 -3.02460E+02  1.93710E+04 -1.46026E+04  1.32252E+04 -2.11018E+04 -4.49805E+03
 -1.55449E+04 -1.77133E+04 -2.54577E+03 -2.40606E+04  1.16636E+04 -1.98763E+04  2.18098E+04 -9.57883E+03
  1.88926E+04 -2.49357E+02  1.44732E+04  6.55205E+03  6.29116E+03  2.22004E+02  9.47064E+03 -1.48278E+03
  1.93430E+04  2.92187E+03  2.25333E+04  1.64783E+04  1.37661E+04  3.43704E+04 -3.09508E+03  3.81231E+04
 -2.23488E+04  3.17991E+04 -3.64819E+04  1.63603E+04 -3.78192E+04 -2.64673E+03 -3.05526E+04 -2.14287E+04
 -1.19105E+04 -3.16841E+04  1.13476E+04 -2.75362E+04  2.35879E+04 -1.37827E+04  2.13835E+04  7.18910E+03
  7.72916E+03  1.73393E+04 -9.57652E+03  1.29761E+04 -1.78303E+04  2.13413E+03 -1.21486E+04 -1.04272E+04
 -6.63112E+02 -1.63816E+04  9.22758E+03 -1.14980E+04  1.05061E+04 -1.36271E+03  2.64830E+03  7.15357E+03
 -8.35088E+03  2.43662E+03 -7.81900E+03 -6.30759E+03 -9.57280E+02 -1.64201E+04  9.98941E+03 -1.60137E+04
  1.99255E+04 -8.95989E+03  2.12927E+04  3.06555E+03  1.86896E+04  1.43505E+04  9.19774E+03  2.29822E+04
 -4.67893E+03  2.48661E+04 -1.75181E+04  1.64127E+04 -1.84495E+04  2.87654E+03 -1.20806E+04 -4.05648E+03
 -5.76903E+03 -4.83850E+03 -9.75448E+02  1.06310E+03 -4.01209E+03  2.36239E+03 -5.73288E+03  4.71620E+03
 -1.24618E+04  2.15063E+02 -1.06174E+04 -1.04896E+04 -5.71925E+03 -1.68694E+04  5.68395E+03 -1.23578E+04
  1.03617E+04 -5.61315E+03  7.97534E+03  2.70956E+03 -7.20831E+02  6.07123E+03 -5.82004E+03  3.07466E+02
 -5.79628E+03 -8.05819E+03 -2.47828E+03 -1.12408E+04  7.63429E+03 -1.35565E+04  1.57062E+04 -8.75463E+03
  2.04563E+04  6.01824E+02  1.45418E+04  1.13287E+04  2.75905E+03  1.52554E+04 -8.10347E+03  1.30998E+04
 -1.04988E+04  3.04276E+03 -4.99285E+03 -2.30772E+03  8.19508E+02 -4.60011E+03  6.26949E+03 -1.77818E+03
  5.08747E+03  5.29353E+03  2.37420E+02  1.00898E+04 -7.41196E+03  8.88016E+03 -1.28645E+04  3.11830E+03
 -8.55051E+03 -8.07933E+03  1.06338E+03 -9.99285E+03  7.93804E+03 -5.13060E+03  5.96620E+03  2.34839E+03
  1.54949E+03  7.56226E+03 -8.40538E+03  1.07894E+04 -1.12167E+04  3.66958E+03 -1.06320E+04 -3.87169E+03
 -5.33255E+03 -1.16652E+04  3.56204E+03 -1.37348E+04  1.14751E+04 -1.05824E+04  1.48367E+04  2.31251E+03
  7.02430E+03  1.18271E+04  2.33865E+02  1.25610E+04 -9.16749E+03  6.87736E+03 -1.04019E+04  2.74933E+02
 -9.19136E+03 -7.34914E+03 -2.35136E+03 -9.01024E+03  5.38691E+03 -6.69585E+03  4.88063E+03 -4.09165E+03
  3.08277E+03  4.88488E+02 -9.47592E+02  1.85289E+03 -1.19080E+03 -1.73403E+03 -4.66723E+02 -6.64606E+03
  8.11882E+03 -4.01866E+03  1.25984E+04  9.26570E+02  1.28244E+04  7.48676E+03  7.60527E+03  1.64766E+04
 -3.22497E+03  1.84464E+04 -1.58209E+04  1.41530E+04 -2.08920E+04  2.93469E+03 -1.58721E+04 -5.02337E+03
 -9.06079E+03 -1.37155E+04 -4.38468E+02 -1.20774E+04  3.44102E+03 -5.88004E+03  4.01474E+03 -3.99654E+03
  2.78062E+03 -3.22506E+03  3.10493E+03 -3.50060E+03  6.27607E+03 -2.74779E+03  6.26796E+03  7.50665E+02
  8.93190E+03  2.91143E+03  4.97164E+03  6.88920E+03 -1.73688E+03  8.47743E+03 -9.01690E+03  6.53841E+03
 -1.14524E+04 -5.41216E+02 -7.34413E+03 -6.51780E+03 -4.32694E+02 -1.14740E+04  5.64941E+03 -1.08961E+04
  1.22736E+04 -8.43745E+03  1.50188E+04  2.40131E+03  9.96044E+03  1.10251E+04  2.06571E+03  1.39333E+04
 -6.05028E+03  1.22508E+04 -8.44786E+03  3.25044E+03 -5.78926E+03 -3.75863E+02 -2.78649E+03 -2.07677E+03
 -1.24409E+03  8.99734E+02 -2.79237E+03  1.34444E+03 -4.65917E+03  2.03036E+03 -8.64056E+03 -7.96280E+02
 -5.35631E+03 -7.70921E+03  8.23427E+02 -1.06860E+04  5.56976E+03 -9.41661E+03  9.19684E+03 -3.58260E+03
  1.07290E+04  5.65886E+03  4.35522E+03  8.60572E+03 -4.94505E+02  1.02679E+04 -7.38266E+03  8.14370E+03
 -9.43271E+03 -8.19128E+02 -7.60285E+03 -7.68485E+03 -2.64302E+03 -8.40471E+03  4.24353E+03 -5.18390E+03
  6.36027E+03 -2.86402E+03  4.16679E+03  1.36709E+03  1.46714E+03  4.29168E+03 -2.98379E+02  8.02230E+02
  2.18184E+03  1.80573E+03  3.56751E+03  1.37831E+03  3.06502E+03  3.07239E+03  2.52725E+03  6.88350E+03
 -1.60672E+03  8.36166E+03 -5.88879E+03  8.45585E+03 -1.11189E+04  1.23712E+03 -1.29880E+04 -4.10559E+03
 -4.38681E+03 -9.67759E+03  1.20656E+03 -1.29550E+04  5.23870E+03 -7.36578E+03  9.74181E+03 -2.56038E+03
  7.29512E+03  3.46641E+03  1.60955E+03  6.85580E+03 -2.65476E+03  3.83537E+03 -3.69407E+03 -7.43510E+02
 -3.20877E+03 -4.52769E+03  1.38616E+03 -3.02305E+03  4.92673E+03 -3.27115E+03  4.79528E+03  1.32989E+03
  2.89466E+03  2.33622E+03  5.56178E+02  2.41618E+03 -1.62014E+03  1.34082E+03  1.86117E+03 -8.02068E+02
  2.78419E+03  9.70950E+01  5.38302E+03  1.32839E+03  2.09843E+03  5.18232E+03 -1.51304E+01  7.33490E+03
 -5.46313E+03  4.89055E+03 -5.52772E+03  5.50005E+02 -4.17654E+03 -1.81496E+03 -2.39954E+03 -4.51899E+03
  9.98418E+02 -3.97666E+03  2.16756E+03 -1.54012E+03  4.91297E+02  2.51855E+03 -1.31435E+02  2.58454E+03
 -3.78524E+03  2.26054E+03 -5.53866E+03 -2.43807E+03 -2.97779E+03 -7.62882E+03  9.23413E+02 -4.68899E+03
  2.35665E+03 -3.61414E+03  5.17080E+03  1.28151E+03  3.77865E+03  2.50863E+03 -4.29980E+00  3.17560E+03
 -2.13855E+03  1.62310E+03 -2.71797E+03 -6.55388E+02  1.20669E+03 -5.72690E+03  5.61688E+03 -3.66692E+03
  6.17830E+03  3.56196E+02  7.35325E+03  4.04257E+03  2.11469E+03  8.23243E+03 -2.11964E+03  6.43641E+03
 -4.15365E+03  2.92014E+03 -5.72218E+03 -8.28094E+02 -3.18176E+03 -4.19278E+03  1.61176E+03 -3.42792E+03
  3.81779E+03 -3.68959E+03  4.57807E+03  1.59382E+03  4.00841E+02  3.93992E+03 -4.98746E+02  3.39642E+03
 -2.47567E+03  2.73076E+03 -1.88394E+03 -1.01433E+03 -1.81259E+03  1.34979E+03 -1.60689E+03  7.20985E+02
 -1.54117E+03  1.34049E+03 -4.04553E+03  9.85675E+02 -6.71199E+03  2.06324E+03 -6.62214E+03 -3.78392E+03
 -3.31793E+03 -8.29391E+03  3.20662E+03 -1.11791E+04  5.80189E+03 -8.26546E+03  1.06772E+04 -3.33252E+03
  8.46210E+03  1.37400E+03  6.81559E+03  5.76135E+03 -4.52669E+02  8.21709E+03 -3.21167E+03  5.76401E+03
 -4.41036E+03  3.31465E+02 -1.64750E+03  6.63474E+01 -1.02272E+03 -8.44457E+02 -1.11425E+03 -1.00064E+03
 -2.53624E+03  3.33899E+02 -1.90509E+03 -3.27420E+02  5.73068E+01 -2.02396E+03 -1.43088E+02 -4.26154E+03
  4.53237E+03 -2.75592E+03  3.70220E+03  3.33593E+02  3.82405E+03  5.79736E+03  1.17340E+03  7.85724E+03
 -3.53396E+03  7.32191E+03 -7.75484E+03  3.74348E+03 -7.78045E+03 -1.10099E+03 -6.41217E+03 -4.71334E+03
 -2.73170E+03 -6.56668E+03  2.24500E+03 -7.35964E+03  4.67837E+03 -3.49893E+03  4.78401E+03 -6.03365E+02
  2.81558E+03  2.89878E+03  3.90446E+02  1.57502E+03 -1.31513E+03 -1.10507E+03 -2.83570E+02 -7.06927E+02
  1.64228E+03 -1.62108E+03  2.89897E+03  9.69180E+02  1.72751E+03  2.47118E+03  9.64845E+01  4.87182E+03
 -1.33720E+03  5.04015E+03 -4.06999E+03  6.87312E+02 -4.47138E+03 -3.54592E+03 -6.87303E+02 -5.43958E+03
  1.50131E+03 -5.31169E+03  4.44876E+03 -1.52415E+03  5.81310E+03  2.97207E+03  2.85687E+03  4.48687E+03
  5.43028E+02  3.79622E+03 -1.81451E+03  3.61925E+03 -2.39109E+03  2.00801E+03 -2.76389E+03 -1.81854E+03
 -9.64885E+02 -1.50544E+03 -1.00360E+03  8.17102E+02 -3.41955E+03  7.47819E+02 -2.95065E+03  8.92902E+02
 -1.96233E+03 -2.43776E+03 -2.98789E+03 -5.00311E+03  2.66600E+03 -6.05723E+03  3.01424E+03 -9.42748E+02
  4.72030E+03  1.95445E+03  3.35698E+03  2.22409E+03  6.08566E+02  4.13431E+03 -3.59531E+03  3.78568E+03
