 $NMID ID='MM_0lb_SNR200_10hz_g50_35.RAW', FMTDAT='(8E13.5)'
 TRAMP=1., VOLUME=1. $END
  3.10830E+05  1.42582E+03  3.38354E+05  2.51307E+05  8.43152E+04  3.38551E+05 -1.32278E+05  2.52503E+05
 -1.90306E+05  8.33037E+04 -1.10803E+05 -3.24114E+04  5.62824E+02 -4.92228E+04  5.36141E+04 -3.38036E+02
  3.64578E+04  5.32329E+04 -1.65308E+04  7.53697E+04 -6.23771E+04  6.36766E+04 -8.60702E+04  3.22825E+04
 -8.12032E+04 -1.26762E+04 -5.87741E+04 -5.11686E+04 -1.53686E+04 -7.04335E+04  2.87388E+04 -4.58707E+04
  4.15624E+04  3.19536E+03  1.65578E+04  4.92577E+04 -3.42532E+04  4.94177E+04 -6.72135E+04 -6.19025E+02
 -5.46843E+04 -5.74015E+04 -7.03704E+03 -7.96006E+04  3.47500E+04 -5.63808E+04  4.99221E+04 -1.84221E+04
  4.46301E+04  1.37944E+04  3.33359E+04  2.55392E+04  1.67220E+04  3.11678E+04 -4.77082E+03  2.99750E+04
 -2.26636E+04  1.18229E+04 -1.78712E+04 -4.51760E+03  6.60467E+03 -8.30037E+03  2.33427E+04  1.32875E+04
  7.59477E+03  3.71897E+04 -3.33131E+04  3.71088E+04 -6.54055E+04  2.57864E+03 -5.82251E+04 -4.43769E+04
 -1.32697E+04 -6.48900E+04  4.09122E+04 -4.52958E+04  6.17882E+04 -3.97445E+03  3.64004E+04  3.41398E+04
 -5.51637E+03  3.84465E+04 -3.04678E+04  1.76267E+04 -3.25464E+04 -3.23054E+03 -1.76003E+04 -1.26757E+04
 -8.90174E+03 -1.42133E+04 -2.12860E+02 -1.95881E+04  8.33249E+03 -2.38623E+04  1.72109E+04 -1.30389E+04
  1.02335E+04  7.62983E+03 -9.41248E+03  1.33239E+04 -2.45243E+04 -6.70096E+03 -1.01996E+04 -3.75161E+04
  2.27357E+04 -4.67342E+04  5.00381E+04 -1.98977E+04  4.81024E+04  1.95249E+04  1.86748E+04  4.65859E+04
 -1.83160E+04  3.66381E+04 -2.58752E+04  3.08113E+03 -1.05626E+04 -2.88128E+04  2.17789E+04 -3.61106E+04
  4.36420E+04 -9.04565E+03  3.98942E+04  2.48026E+04  1.98078E+04  5.25035E+04 -8.99359E+03  5.41749E+04
 -3.42789E+04  3.90494E+04 -4.58907E+04  1.23280E+04 -4.62893E+04 -1.61736E+04 -2.51383E+04 -4.12432E+04
  7.72465E+03 -4.17314E+04  3.36602E+04 -1.53349E+04  3.14048E+04  1.20849E+04  4.97413E+03  2.07408E+04
 -1.42104E+04  9.92936E+03 -1.12217E+04 -6.88276E+03  5.90902E+03 -1.06483E+04  1.99162E+04  5.39509E+03
  1.53498E+04  2.29016E+04 -5.98188E+03  2.60125E+04 -2.32570E+04  1.35612E+04 -3.01441E+04 -1.77787E+03
 -2.52971E+04 -1.81106E+04 -1.06139E+04 -2.38058E+04  5.17371E+03 -2.42431E+04  1.91812E+04 -2.17806E+04
  3.04351E+04 -1.33883E+04  3.48906E+04  3.92971E+03  2.57990E+04  2.31281E+04  5.42364E+03  3.99895E+04
 -2.01929E+04  3.30304E+04 -3.01679E+04  1.16444E+04 -2.13382E+04 -9.09924E+03 -4.47352E+03 -1.35090E+04
  4.04472E+02 -2.77549E+03 -7.05295E+03  6.66422E+03 -1.91461E+04  4.46610E+03 -1.88359E+04 -7.77945E+03
 -9.88834E+03 -2.38341E+04  5.72878E+03 -2.81835E+04  1.79961E+04 -2.04308E+04  2.09283E+04 -1.48754E+02
  1.29714E+04  1.50683E+04 -2.64524E+02  2.33519E+04 -1.57480E+04  1.20595E+04 -2.23250E+04 -3.80167E+03
 -1.62676E+04 -2.07493E+04 -3.55112E+03 -2.72764E+04  1.26874E+04 -2.16909E+04  2.13753E+04 -1.09095E+04
  2.21934E+04  5.92198E+02  1.68586E+04  3.98641E+03  8.41971E+03  1.56944E+03  1.23325E+04 -2.09604E+03
  2.02456E+04  2.38119E+03  2.51257E+04  1.78536E+04  1.71492E+04  3.56534E+04 -3.12624E+03  4.18679E+04
 -2.35894E+04  3.52379E+04 -3.86681E+04  1.86549E+04 -4.28526E+04 -3.04443E+03 -3.45408E+04 -2.50083E+04
 -1.55200E+04 -3.56648E+04  1.35669E+04 -3.04808E+04  2.61913E+04 -1.56043E+04  2.35150E+04  7.55214E+03
  7.64811E+03  1.84361E+04 -1.04728E+04  1.43895E+04 -1.94166E+04  3.87833E+03 -1.37027E+04 -1.29303E+04
  1.75387E+03 -1.80697E+04  1.08966E+04 -1.42115E+04  1.25777E+04 -1.90436E+03  3.38311E+03  8.86177E+03
 -7.70532E+03  3.22098E+03 -8.30107E+03 -6.24271E+03 -1.56131E+03 -1.76459E+04  1.13992E+04 -1.81574E+04
  2.07460E+04 -1.12043E+04  2.51942E+04  4.01069E+03  1.96800E+04  1.73657E+04  1.01025E+04  2.72281E+04
 -5.36486E+03  2.99871E+04 -2.00345E+04  1.84569E+04 -1.95029E+04  3.45624E+03 -1.39858E+04 -6.32778E+03
 -5.87688E+03 -5.68180E+03 -7.42429E+02  1.23722E+03 -3.04173E+03  2.38399E+03 -7.96937E+03  5.39276E+03
 -1.35129E+04 -1.83080E+03 -1.55144E+04 -1.34706E+04 -5.61385E+03 -1.97949E+04  5.26699E+03 -1.50665E+04
  1.20861E+04 -3.51178E+03  7.34174E+03  4.64789E+03 -1.97130E+03  6.04675E+03 -6.91711E+03  6.40410E+02
 -7.26516E+03 -8.52787E+03 -2.01515E+03 -1.45051E+04  7.86412E+03 -1.58091E+04  1.84239E+04 -7.01602E+03
  2.06072E+04  2.94621E+03  1.59375E+04  1.25530E+04  3.70345E+03  1.87682E+04 -8.79701E+03  1.34478E+04
 -1.18560E+04  2.71541E+03 -5.70610E+03 -3.45057E+03  1.83083E+03 -3.55279E+03  9.02119E+03 -2.88342E+02
  6.69534E+03  6.50166E+03  1.57485E+03  1.18572E+04 -8.80832E+03  1.14520E+04 -1.48787E+04  1.15352E+03
 -8.51224E+03 -7.24209E+03  1.45356E+03 -1.18253E+04  6.95448E+03 -6.61196E+03  8.76052E+03  1.97534E+03
  1.02338E+03  9.80592E+03 -8.52559E+03  1.01212E+04 -1.31211E+04  4.38721E+03 -1.34003E+04 -6.06499E+03
 -5.69330E+03 -1.44011E+04  4.37825E+03 -1.67634E+04  1.43192E+04 -1.00243E+04  1.53588E+04  2.61516E+03
  9.61517E+03  1.08007E+04 -1.77266E+03  1.41063E+04 -9.58080E+03  7.36602E+03 -1.10301E+04 -9.17760E+02
 -1.00940E+04 -7.35847E+03 -2.28964E+03 -1.05955E+04  5.30946E+03 -7.97152E+03  8.88629E+03 -4.85619E+03
  4.89078E+03  1.38454E+03 -1.58119E+03  9.22203E+02 -9.72559E+02 -3.47826E+03  1.92189E+03 -6.08671E+03
  1.16436E+04 -3.92003E+03  1.45694E+04  2.42458E+03  1.60775E+04  9.14822E+03  9.30808E+03  1.77762E+04
 -4.69769E+03  2.17174E+04 -1.82525E+04  1.65051E+04 -2.38228E+04  3.38453E+03 -1.92026E+04 -8.38704E+03
 -8.47562E+03 -1.61568E+04 -4.80695E+02 -1.30501E+04  4.20971E+03 -7.81508E+03  4.92075E+03 -4.91007E+03
  3.08711E+03 -2.67232E+03  3.71613E+03 -3.71138E+03  5.85152E+03 -2.95146E+03  7.35451E+03 -1.96938E+03
  9.46298E+03  2.05869E+03  4.88471E+03  8.69355E+03 -1.55263E+03  1.04541E+04 -9.57430E+03  8.17983E+03
 -1.38329E+04 -4.70093E+02 -8.45665E+03 -9.70654E+03 -2.67999E+03 -1.55298E+04  7.44309E+03 -1.38457E+04
  1.49832E+04 -9.71694E+03  1.74091E+04  2.64628E+03  1.09512E+04  1.20246E+04  5.16679E+02  1.59983E+04
 -5.88225E+03  1.27409E+04 -8.49871E+03  3.55537E+03 -5.91990E+03 -2.70123E+03 -2.07748E+03 -1.38005E+03
 -1.03448E+03  1.67990E+03 -2.09196E+03  3.98239E+03 -4.66387E+03  3.04741E+03 -9.01337E+03 -9.65028E+02
 -4.90270E+03 -9.76214E+03 -7.27968E+02 -1.43097E+04  7.38591E+03 -1.11021E+04  1.15982E+04 -3.25907E+03
  1.22329E+04  6.43243E+03  5.69625E+03  1.20833E+04 -3.12334E+03  1.41410E+04 -9.65902E+03  9.27548E+03
 -1.37017E+04  5.44763E+02 -9.05719E+03 -6.92674E+03  6.88371E+02 -9.81645E+03  5.83697E+03 -7.57975E+03
  8.59985E+03 -2.86382E+03  5.07435E+03  2.83985E+03  2.30454E+03  3.57600E+03  1.20139E+03  1.33493E+03
  1.41378E+03  5.98070E+02  4.19717E+03  2.67030E+03  3.41946E+03  4.26319E+03  2.71492E+03  7.82683E+03
 -2.34173E+03  1.02687E+04 -8.84824E+03  1.14567E+04 -1.40708E+04  3.29604E+03 -1.49288E+04 -5.16774E+03
 -7.14586E+03 -1.34878E+04  2.97901E+03 -1.31496E+04  8.48741E+03 -9.37379E+03  9.28789E+03 -2.31546E+03
  7.94698E+03  4.04464E+03  1.18930E+03  7.03042E+03 -4.58426E+03  4.22493E+03 -4.45033E+03  5.77645E+02
 -1.35444E+03 -6.35207E+03  1.60704E+03 -5.75975E+03  3.09954E+03 -2.71717E+03  5.61766E+03  1.98479E+03
  3.65184E+03  2.63783E+03  2.07523E+03  6.84684E+02 -1.22960E+03  7.91976E+02  1.64549E+03  1.55024E+02
  2.82149E+03 -1.36480E+02  3.35455E+03  3.03278E+03  2.99038E+03  7.63360E+03 -7.73945E+02  9.72375E+03
 -5.58904E+03  5.57131E+03 -9.08379E+03  2.94483E+03 -7.56546E+03 -2.55251E+03 -2.01757E+03 -4.92304E+03
  9.41556E+02 -4.46301E+03  1.99149E+03 -1.32641E+03  2.48269E+03  3.99560E+03 -2.11794E+03  3.99193E+03
 -5.58648E+03  1.87272E+03 -5.60785E+03 -4.08825E+03 -2.44848E+03 -9.42307E+03  5.54314E+02 -6.59754E+03
  5.32165E+03 -4.76126E+03  4.95506E+03 -1.37397E+02  4.02088E+03  1.89107E+03 -2.46173E+02  4.73590E+03
 -2.15462E+03  2.23369E+03 -1.91663E+03 -8.52532E+01  9.81151E+02 -5.63130E+03  7.64824E+03 -4.54612E+03
  8.81704E+03 -5.30270E+02  1.00211E+04  5.65977E+03  2.95592E+03  8.88902E+03 -3.52815E+03  7.99036E+03
 -6.81565E+03  2.54227E+03 -8.31033E+03 -1.29795E+03 -2.77363E+03 -5.10885E+03  1.02524E+03 -4.66897E+03
  4.56661E+03 -9.65886E+02  4.72923E+03  1.61581E+03  3.64703E+02  4.41720E+03 -4.01770E+02  2.47591E+03
 -1.72066E+03  6.68998E+02 -1.99925E+03  1.82734E+03 -1.41633E+03  5.98729E+02 -1.27479E+03  2.81200E+03
 -1.25275E+03  4.20483E+03 -5.91828E+03  1.69510E+03 -8.31664E+03  4.02608E+02 -9.44940E+03 -5.62527E+03
 -6.26416E+03 -1.18635E+04  2.80689E+03 -1.46585E+04  8.45034E+03 -8.16177E+03  1.35946E+04 -3.83157E+03
  1.22183E+04  1.29623E+03  8.46309E+03  9.42727E+03  1.96964E+03  8.80215E+03 -4.28414E+03  5.42153E+03
 -5.85930E+03  3.82801E+03 -3.18892E+03 -6.43774E+02 -1.78243E+03 -1.88455E+03 -2.93285E+02  8.48801E+02
 -1.95042E+03  4.12709E+02 -1.43049E+03  7.85717E+02 -1.09213E+03 -2.24412E+03 -3.19818E+02 -3.01058E+03
  3.06773E+03 -2.75079E+03  4.74297E+03 -5.23838E+01  5.91697E+03  3.79714E+03  3.02026E+03  8.73689E+03
 -3.51060E+03  1.07018E+04 -8.38582E+03  5.63109E+03 -1.05006E+04 -2.22117E+03 -8.72492E+03 -7.05875E+03
 -2.70851E+03 -8.06354E+03  2.22533E+03 -8.07520E+03  6.45476E+03 -4.64481E+03  4.56862E+03  3.02802E+03
  3.41783E+03  4.77798E+03  1.38794E+02  1.66979E+03 -3.68659E+03  3.05404E+02 -3.71421E+01 -1.16633E+03
  3.56707E+03 -5.13112E+02  2.77149E+03  1.92870E+02  4.34876E+03  2.74979E+03 -1.80007E+03  4.49298E+03
 -3.48429E+03  4.51167E+03 -6.57079E+03  1.58074E+03 -5.34401E+03 -3.93433E+03  1.26266E+02 -5.96768E+03
  3.81986E+03 -6.48430E+03  7.08827E+03 -3.36732E+02  5.89293E+03  5.70093E+02  5.27650E+03  3.54176E+03
  1.03068E+02  6.44376E+03 -2.14967E+03  4.77392E+03 -2.45531E+03  2.25761E+03 -1.57210E+03  1.16487E+03
 -2.19595E+03 -6.14358E+02 -2.57556E+03 -1.35896E+03 -2.70532E+03  1.14083E+03 -4.63614E+03 -1.62178E+03
 -6.13901E+03 -3.85289E+03 -1.38500E+03 -5.90443E+03  2.75048E+03 -6.85754E+03  4.30392E+03 -4.12563E+03
  5.45105E+03  2.31389E+02  4.23369E+03  1.39982E+03 -1.65092E+03  5.24346E+03 -4.93349E+03  3.40648E+03
