 $NMID ID='MM_0lb_SNR200_13hz_g45_9.RAW', FMTDAT='(8E13.5)'
 TRAMP=1., VOLUME=1. $END
  3.10212E+05  8.52310E+01  3.37386E+05  2.50425E+05  8.44776E+04  3.37808E+05 -1.32174E+05  2.52871E+05
 -1.90216E+05  8.42259E+04 -1.11888E+05 -3.35471E+04  1.36648E+03 -4.93912E+04  5.36662E+04  1.32173E+03
  3.60425E+04  5.23317E+04 -1.53081E+04  7.44085E+04 -6.07986E+04  6.19296E+04 -8.40264E+04  3.32096E+04
 -8.09518E+04 -1.10546E+04 -5.60009E+04 -5.11486E+04 -1.48225E+04 -6.92586E+04  2.78793E+04 -4.60596E+04
  4.04009E+04  4.96436E+03  1.60875E+04  4.80287E+04 -3.50594E+04  4.77173E+04 -6.62164E+04 -4.28104E+01
 -5.42419E+04 -5.69573E+04 -6.91081E+03 -7.61510E+04  3.42906E+04 -5.49000E+04  4.82945E+04 -1.79427E+04
  4.27693E+04  1.22527E+04  3.22873E+04  2.41947E+04  1.61713E+04  3.00692E+04 -6.14454E+03  2.82857E+04
 -2.15093E+04  1.13413E+04 -1.84473E+04 -5.67207E+03  7.06147E+03 -6.80130E+03  2.13993E+04  1.22719E+04
  7.99192E+03  3.56117E+04 -3.30065E+04  3.58345E+04 -6.32945E+04  2.18203E+03 -5.73227E+04 -4.19316E+04
 -1.17826E+04 -6.36734E+04  3.99609E+04 -4.54773E+04  5.88132E+04 -1.80179E+03  3.40639E+04  3.32905E+04
 -4.72467E+03  3.60380E+04 -3.06306E+04  1.66589E+04 -3.02570E+04 -3.73119E+03 -1.63248E+04 -1.11236E+04
 -8.46997E+03 -1.31867E+04 -7.84870E+02 -1.87811E+04  7.29288E+03 -2.18522E+04  1.53846E+04 -1.33065E+04
  1.14393E+04  4.26353E+03 -8.66491E+03  1.29647E+04 -2.19197E+04 -5.38430E+03 -7.90553E+03 -3.34516E+04
  2.30876E+04 -4.54377E+04  4.89303E+04 -1.91635E+04  4.55379E+04  2.00434E+04  1.65622E+04  4.42947E+04
 -1.56532E+04  3.51977E+04 -2.53136E+04  1.30963E+03 -9.15554E+03 -2.76676E+04  2.07241E+04 -3.38719E+04
  4.05410E+04 -8.92897E+03  3.64860E+04  2.44723E+04  1.73656E+04  4.72164E+04 -6.89946E+03  5.22458E+04
 -3.21939E+04  3.56286E+04 -4.10728E+04  1.02616E+04 -4.37454E+04 -1.69804E+04 -2.32299E+04 -3.83452E+04
  7.47697E+03 -3.96647E+04  3.26437E+04 -1.54693E+04  2.86515E+04  1.08930E+04  3.75600E+03  1.91223E+04
 -1.30272E+04  9.94935E+03 -1.06424E+04 -7.96956E+03  5.34013E+03 -1.09131E+04  1.85802E+04  5.54567E+03
  1.33428E+04  2.20734E+04 -4.40985E+03  2.52583E+04 -2.18213E+04  1.17218E+04 -2.84357E+04 -4.73185E+03
 -2.08327E+04 -1.82831E+04 -8.33677E+03 -2.18672E+04  2.90874E+03 -2.01213E+04  1.47314E+04 -2.05520E+04
  2.58927E+04 -1.40288E+04  3.30470E+04  3.74096E+03  2.50214E+04  2.02180E+04  4.90288E+03  3.74303E+04
 -1.80633E+04  2.95060E+04 -2.80326E+04  1.01327E+04 -2.24055E+04 -1.13887E+04 -4.97666E+03 -1.24783E+04
  1.81601E+03 -3.49863E+03 -5.67242E+03  6.17385E+03 -1.62951E+04  3.54826E+03 -1.62788E+04 -6.67125E+03
 -1.01780E+04 -1.95891E+04  6.38880E+03 -2.34194E+04  1.54039E+04 -1.69587E+04  1.81083E+04 -2.22639E+03
  1.24407E+04  1.30771E+04 -7.36727E+02  1.83405E+04 -1.30742E+04  1.02637E+04 -1.91110E+04 -5.33865E+03
 -1.49434E+04 -1.84362E+04 -2.18832E+03 -2.42754E+04  1.10163E+04 -1.95986E+04  2.05440E+04 -9.77307E+03
  1.68095E+04  4.68465E+02  1.17131E+04  4.72636E+03  7.35072E+03  6.97040E+02  1.04727E+04 -2.06807E+03
  1.82768E+04  3.71930E+03  1.96021E+04  1.41634E+04  1.35571E+04  3.07925E+04 -3.35636E+03  3.64568E+04
 -1.88873E+04  2.82446E+04 -3.40721E+04  1.39211E+04 -3.56286E+04 -1.58216E+03 -2.89579E+04 -2.15206E+04
 -1.30058E+04 -2.80335E+04  8.93976E+03 -2.57295E+04  2.26367E+04 -1.26511E+04  2.10356E+04  6.03171E+03
  5.55006E+03  1.46048E+04 -9.13912E+03  1.43211E+04 -1.60160E+04  2.41804E+03 -1.22277E+04 -1.01148E+04
 -6.39211E+02 -1.49567E+04  6.46392E+03 -1.24881E+04  1.04989E+04 -1.49032E+03  1.83021E+03  7.57689E+03
 -6.72255E+03  2.61682E+03 -6.04407E+03 -5.25770E+03 -1.75123E+03 -1.52959E+04  9.60371E+03 -1.53063E+04
  1.82171E+04 -8.24982E+03  1.82751E+04  3.47786E+03  1.64222E+04  1.53270E+04  7.62972E+03  2.11150E+04
 -3.31080E+03  2.45839E+04 -1.39401E+04  1.49675E+04 -1.68862E+04  4.06180E+03 -1.10968E+04 -2.95827E+03
 -5.04087E+03 -4.80079E+03 -1.37874E+03  7.63572E+01 -1.99061E+03  3.38117E+03 -4.97747E+03  3.97624E+03
 -1.06722E+04  6.18834E+02 -1.10040E+04 -9.51091E+03 -5.03455E+03 -1.50622E+04  3.59202E+03 -1.13200E+04
  9.55978E+03 -4.71904E+03  7.51088E+03  3.93983E+03 -1.33350E+03  4.85210E+03 -5.12041E+03 -1.83065E+03
 -5.26534E+03 -6.58407E+03 -8.41863E+02 -1.04837E+04  7.77431E+03 -1.25503E+04  1.45492E+04 -5.77758E+03
  1.77575E+04  2.13521E+03  1.36711E+04  9.68440E+03  2.74429E+03  1.37602E+04 -7.43352E+03  9.68373E+03
 -9.36661E+03  3.41795E+03 -4.26051E+03 -5.36351E+02  1.81394E+03 -2.35539E+03  6.07351E+03 -2.92837E+02
  6.08926E+03  4.42950E+03  7.59756E+02  8.48344E+03 -7.00647E+03  9.38897E+03 -1.12212E+04  1.39289E+03
 -7.71255E+03 -5.92122E+03 -5.47112E+02 -9.36015E+03  5.25513E+03 -5.01782E+03  6.13393E+03  1.39923E+03
  1.24590E+03  6.38866E+03 -5.21099E+03  6.79054E+03 -9.19785E+03  3.53771E+03 -9.11042E+03 -2.64852E+03
 -5.74263E+03 -1.01771E+04  3.18045E+03 -1.25329E+04  1.00089E+04 -7.67517E+03  1.12922E+04  2.32582E+03
  7.01753E+03  9.08071E+03  1.29056E+02  9.84028E+03 -7.75111E+03  6.01235E+03 -7.47535E+03  2.88209E+02
 -7.89758E+03 -6.61774E+03 -1.92650E+03 -8.13760E+03  5.39777E+03 -7.59126E+03  5.36159E+03 -4.13503E+03
  4.69432E+03 -2.87995E+02 -2.19850E+02  3.49607E+02 -5.75140E+02 -1.67000E+03  7.87120E+02 -4.08028E+03
  7.49211E+03 -3.74358E+03  1.02735E+04  1.04807E+03  1.00290E+04  6.68086E+03  6.48804E+03  1.36818E+04
 -3.88889E+03  1.55719E+04 -1.24540E+04  1.26781E+04 -1.79254E+04  8.36124E+02 -1.36929E+04 -5.91952E+03
 -6.31431E+03 -1.21511E+04 -1.14007E+03 -9.26037E+03  2.70241E+03 -4.17455E+03  3.59454E+03 -3.36006E+03
  3.02917E+03 -2.41434E+03  3.38316E+03 -3.31588E+03  5.26160E+03 -2.68361E+03  5.81985E+03 -2.23516E+03
  7.60076E+03  2.75511E+03  3.37537E+03  7.00979E+03 -2.96373E+03  7.21772E+03 -7.48740E+03  5.05197E+03
 -8.86069E+03 -5.26109E+02 -6.24088E+03 -5.47821E+03  6.36549E+02 -9.48425E+03  6.32399E+03 -9.80925E+03
  9.88812E+03 -6.00981E+03  1.22963E+04  1.73139E+03  7.62525E+03  9.34897E+03  1.28222E+03  1.10707E+04
 -4.68615E+03  9.96338E+03 -6.01761E+03  3.18405E+03 -3.52847E+03 -1.58094E+03 -1.15997E+03 -1.05900E+03
 -1.13329E+03 -1.48617E+02 -2.37597E+03  1.56482E+03 -3.94890E+03  2.12820E+03 -6.02285E+03 -1.25901E+03
 -4.20337E+03 -6.67051E+03 -5.92216E+02 -8.49635E+03  4.84766E+03 -8.17089E+03  9.12505E+03 -2.22683E+03
  9.32838E+03  4.63032E+03  3.77198E+03  7.55702E+03 -1.11688E+03  8.45359E+03 -6.80863E+03  5.56781E+03
 -8.25682E+03  3.46869E+02 -5.47860E+03 -4.38936E+03 -5.23735E+02 -6.77094E+03  3.90432E+03 -5.43862E+03
  5.91613E+03 -2.46873E+03  4.16933E+03  1.02105E+03  1.54239E+03  1.88443E+03  1.86871E+03  8.77751E+02
  2.07346E+03  1.51656E+03  2.00359E+03  2.55304E+03  1.86636E+03  3.91080E+03  1.63539E+03  4.37786E+03
 -2.25097E+03  6.63450E+03 -5.96499E+03  8.75001E+03 -7.99894E+03  3.26239E+03 -9.51755E+03 -3.32705E+03
 -4.56706E+03 -8.52532E+03  2.02943E+03 -9.93654E+03  3.74326E+03 -5.18750E+03  6.73486E+03 -2.76433E+03
  4.71437E+03  3.00718E+03  1.11041E+03  4.81878E+03 -2.32666E+03  3.65524E+03 -2.48110E+03  3.76735E+00
 -2.28413E+03 -4.88883E+03  2.06644E+03 -2.75102E+03  3.54043E+03 -1.03793E+03  3.61258E+03  1.40511E+03
  1.85307E+03  1.01754E+03  1.48436E+03  4.86522E+02  5.34538E+01 -7.48757E-01  1.52064E+03 -1.52134E+03
  9.18640E+02 -6.88840E+02  3.09260E+03  9.54571E+02  2.02747E+02  5.73632E+03  5.55522E+02  5.88154E+03
 -3.52845E+03  3.35408E+03 -3.96870E+03  1.04877E+03 -4.54914E+03 -2.36635E+03 -2.11055E+03 -3.14145E+03
  1.20509E+03 -3.22659E+03  1.20380E+03 -1.52201E+03  1.15725E+03  3.28303E+03 -1.16126E+03  1.98026E+03
 -3.95705E+03  2.02784E+03 -4.46018E+03 -2.14596E+03 -2.58205E+03 -3.91226E+03  5.26878E+02 -4.38037E+03
  2.60654E+03 -2.83220E+03  4.22174E+03 -8.97475E+02  2.69001E+03  1.26446E+03  7.71570E+02  2.61174E+03
 -1.06293E+03  1.81777E+03 -2.44879E+03 -7.20346E+02  2.13507E+03 -3.57508E+03  4.33978E+03 -2.88259E+03
  4.99666E+03  1.34915E+03  5.29179E+03  2.46576E+03  1.48094E+03  4.84992E+03 -2.05868E+03  3.73010E+03
 -4.58376E+03  1.31178E+03 -4.34794E+03 -6.13069E+02 -1.55492E+03 -3.54922E+03  1.24238E+03 -2.13974E+03
  3.09471E+03 -1.80118E+03  2.70654E+03  6.35800E+02  1.16250E+03  2.46709E+03 -3.94742E+02  1.93473E+03
 -7.12792E+02  1.16580E+03 -2.06057E+03 -8.01599E+01 -2.00847E+02  1.03289E+03 -1.31418E+03  3.30690E+03
 -9.40167E+02  3.24050E+03 -3.25927E+03  1.11691E+03 -4.19033E+03  6.47812E+02 -6.34060E+03 -4.24755E+03
 -3.57683E+03 -6.03890E+03  1.87628E+03 -8.53764E+03  3.04906E+03 -5.78565E+03  6.65641E+03 -1.18703E+03
  7.22306E+03  1.18940E+03  3.68885E+03  4.42512E+03  7.55796E+01  4.59923E+03 -1.68335E+03  2.97992E+03
 -1.91092E+03  2.12148E+03 -1.57090E+03 -1.42654E+03 -5.48945E+02 -1.06115E+02 -9.07860E+02 -3.58791E+02
 -1.03766E+03 -2.75296E+02 -1.02438E+03 -9.47689E+02  5.87176E+02  3.97931E+02 -1.11959E+03 -1.87344E+03
  2.80614E+03 -1.62471E+03  2.70191E+03  2.38590E+02  3.25279E+03  2.81859E+03  4.56480E+02  6.42332E+03
 -3.66580E+03  5.99893E+03 -3.78847E+03  3.63189E+03 -6.32634E+03 -1.11652E+03 -3.73557E+03 -3.32339E+03
 -1.24230E+03 -4.66448E+03  1.56259E+02 -4.17103E+03  1.64894E+03 -2.90242E+03  3.31009E+03  1.00027E+03
  2.07702E+03  1.49564E+03 -7.37838E+02  2.14683E+03 -1.29362E+03  6.85468E+01 -4.69804E+02 -8.67553E+02
  1.21299E+03 -6.18342E+02  1.18248E+03  8.32236E+02  1.77166E+03  1.24732E+03 -4.59537E+02  2.15625E+03
 -2.65883E+03  3.02792E+03 -2.59706E+03  1.22694E+03 -2.12672E+03 -3.47841E+03 -1.36703E+02 -2.56171E+03
  2.04743E+03 -4.16993E+03  3.75289E+03 -1.16103E+03  3.99283E+03  1.02322E+01  1.57475E+03  4.08410E+03
  4.73168E+02  2.59634E+03 -1.71747E+03  1.80987E+03 -1.90111E+03  2.14325E+03 -6.10948E+02 -9.24327E+02
  2.80522E+02 -2.25622E+02  1.13510E+02  7.92768E+02 -1.10872E+03  5.55553E+02 -3.88580E+03  1.09946E+03
 -2.04800E+03 -2.09650E+03 -4.08466E+02 -3.20844E+03  1.74966E+03 -3.04405E+03  2.16824E+03 -9.41899E+02
  2.38346E+03 -8.02705E+02  6.06991E+02  8.45306E+02 -6.09065E+02  2.74925E+03 -2.43927E+03  2.89051E+03
