 $NMID ID='MM_0lb_SNR200_19hz_g45_7.RAW', FMTDAT='(8E13.5)'
 TRAMP=1., VOLUME=1. $END
  3.09067E+05  2.71261E+02  3.37236E+05  2.51046E+05  8.44054E+04  3.36735E+05 -1.31709E+05  2.50981E+05
 -1.89959E+05  8.28746E+04 -1.09992E+05 -3.36700E+04  5.68776E+02 -4.98704E+04  5.41712E+04  1.28241E+03
  3.64982E+04  5.36501E+04 -1.64694E+04  7.56060E+04 -6.02178E+04  6.27683E+04 -8.26839E+04  3.06052E+04
 -7.98828E+04 -1.07154E+04 -5.66197E+04 -4.97043E+04 -1.57228E+04 -6.73845E+04  2.63542E+04 -4.42131E+04
  3.92056E+04  3.71836E+03  1.50822E+04  4.79045E+04 -3.39099E+04  4.67815E+04 -6.54339E+04 -1.06274E+03
 -5.13338E+04 -5.67589E+04 -5.67357E+03 -7.52431E+04  3.32186E+04 -5.33609E+04  4.70444E+04 -1.64991E+04
  4.18053E+04  1.15283E+04  3.15243E+04  2.39871E+04  1.58779E+04  2.78401E+04 -4.72829E+03  2.55368E+04
 -2.12544E+04  1.28230E+04 -1.88980E+04 -4.35500E+03  4.66887E+03 -7.97320E+03  2.09880E+04  1.05755E+04
  8.04081E+03  3.34088E+04 -2.98312E+04  3.35736E+04 -6.08897E+04  1.78758E+03 -5.45642E+04 -4.16742E+04
 -1.16474E+04 -6.06059E+04  3.85595E+04 -4.36490E+04  5.48593E+04 -1.80950E+03  3.18011E+04  3.02459E+04
 -6.25327E+03  3.19953E+04 -2.80980E+04  1.35956E+04 -2.61887E+04 -5.09437E+03 -1.42087E+04 -1.00964E+04
 -6.62342E+03 -1.05626E+04 -1.49543E+03 -1.68898E+04  7.64732E+03 -2.10666E+04  1.51014E+04 -1.32695E+04
  1.19751E+04  4.28382E+03 -4.94024E+03  1.32465E+04 -1.80097E+04 -2.72383E+03 -8.60341E+03 -2.99503E+04
  2.08083E+04 -4.03334E+04  4.31313E+04 -1.81707E+04  4.08361E+04  1.77774E+04  1.44506E+04  4.13619E+04
 -1.50909E+04  3.10620E+04 -2.28152E+04  6.71854E+02 -8.77883E+03 -2.61862E+04  1.98014E+04 -3.08565E+04
  3.76480E+04 -6.60322E+03  3.15851E+04  2.32368E+04  1.58028E+04  4.18253E+04 -7.35310E+03  4.40395E+04
 -2.72065E+04  2.88049E+04 -3.68806E+04  8.31250E+03 -3.72569E+04 -1.36355E+04 -2.05153E+04 -3.47042E+04
  6.59451E+03 -3.43771E+04  2.95495E+04 -1.27061E+04  2.61736E+04  1.15922E+04  2.70612E+03  1.60648E+04
 -1.35787E+04  7.22714E+03 -8.69632E+03 -8.45620E+03  6.47344E+03 -9.39213E+03  1.62696E+04  6.09182E+03
  1.27608E+04  2.19212E+04 -7.51678E+03  2.21258E+04 -2.12016E+04  8.49085E+03 -2.43053E+04 -7.62618E+03
 -1.51551E+04 -1.63971E+04 -5.19847E+03 -1.62067E+04  4.26760E+03 -1.35148E+04  1.25664E+04 -1.41109E+04
  2.03707E+04 -1.12077E+04  2.71142E+04  1.20547E+03  2.01958E+04  1.55770E+04  4.89438E+03  3.29865E+04
 -1.56099E+04  2.72884E+04 -2.63129E+04  9.77669E+03 -1.93740E+04 -1.08737E+04 -2.68327E+03 -1.44049E+04
  2.13341E+03 -4.37553E+03 -7.45375E+02  5.47560E+03 -1.30643E+04  5.02320E+03 -1.25486E+04 -4.30370E+03
 -7.76599E+03 -1.45959E+04  3.82349E+03 -1.82483E+04  1.23716E+04 -1.35607E+04  1.40235E+04 -2.50015E+03
  9.20409E+03  1.04237E+04 -5.80441E+02  1.52250E+04 -9.79769E+03  7.82530E+03 -1.55828E+04 -3.36726E+03
 -1.11261E+04 -1.33991E+04 -7.22247E+02 -1.90221E+04  8.88359E+03 -1.54841E+04  1.52864E+04 -6.87155E+03
  1.38294E+04  1.14837E+03  9.85821E+03  3.00352E+03  4.62465E+03  7.94590E+02  7.70517E+03 -1.10775E+03
  1.35025E+04  2.42538E+03  1.41883E+04  1.20918E+04  8.00679E+03  2.40493E+04 -3.43964E+03  2.59566E+04
 -1.56877E+04  1.97384E+04 -2.41094E+04  9.58383E+03 -2.39886E+04 -1.61865E+03 -2.09853E+04 -1.42938E+04
 -9.62947E+03 -1.98394E+04  7.31912E+03 -1.95455E+04  1.66979E+04 -1.07122E+04  1.50167E+04  2.77839E+03
  6.41082E+03  1.00849E+04 -6.68060E+03  1.00671E+04 -1.25669E+04  2.61647E+03 -1.05648E+04 -7.12480E+03
  6.74940E+02 -1.27680E+04  5.40140E+03 -9.62846E+03  7.95303E+03 -8.12496E+02  1.47646E+03  5.61566E+03
 -5.20616E+03  1.03393E+03 -3.19419E+03 -4.58933E+03  1.25624E+03 -9.31722E+03  8.39275E+03 -8.57981E+03
  1.10314E+04 -5.36525E+03  1.01602E+04  2.46292E+03  9.30580E+03  9.57146E+03  5.22446E+03  1.28353E+04
 -1.21778E+03  1.43252E+04 -9.81932E+03  9.95804E+03 -1.14822E+04  4.32906E+03 -8.79884E+03 -2.74921E+03
 -3.61814E+03 -3.48968E+03 -9.06000E+02  1.60652E+03 -1.99522E+03  2.36487E+03 -3.38457E+03  2.42147E+03
 -7.93087E+03 -6.10716E+02 -8.95446E+03 -7.34374E+03 -4.04700E+03 -1.13684E+04  3.12081E+03 -7.54836E+03
  6.09694E+03 -1.75463E+03  5.32907E+03  1.70103E+03  7.28134E+02  3.38710E+03 -3.23001E+03 -5.48920E+02
 -3.64328E+03 -4.78967E+03 -1.19494E+03 -6.70315E+03  3.51706E+03 -8.74963E+03  9.47544E+03 -3.17826E+03
  9.37161E+03  4.62662E+02  9.05817E+03  5.49438E+03  1.33498E+03  8.02789E+03 -4.91176E+03  8.62071E+03
 -7.61649E+03  3.00993E+03 -3.46204E+03 -9.94239E+02  1.24092E+03 -1.63706E+03  3.91307E+03 -1.87543E+03
  4.26623E+03  3.84873E+03  1.24917E+02  7.01018E+03 -4.51861E+03  6.08647E+03 -7.49754E+03  1.48419E+03
 -4.64355E+03 -3.75157E+03  9.85411E+02 -5.36307E+03  3.01842E+03 -3.41766E+03  2.70104E+03  1.57921E+03
  1.34468E+02  1.80455E+03 -3.72903E+03  4.46447E+03 -3.62157E+03  1.49493E+03 -4.50851E+03 -1.43575E+03
 -1.81498E+03 -5.26135E+03 -3.43957E+02 -5.43719E+03  5.24296E+03 -4.81839E+03  6.69027E+03  3.96151E+02
  3.84982E+03  5.21298E+03 -3.89199E+02  6.66271E+03 -4.62973E+03  3.58569E+03 -5.13183E+03 -8.57896E+02
 -5.78142E+03 -4.98109E+03 -1.32455E+03 -5.19701E+03  1.60862E+03 -4.62819E+03  2.34374E+03 -1.92820E+03
  2.01984E+03 -3.26411E+02  2.69062E+02  6.72164E+02 -1.22107E+02  1.63917E+02  2.33028E+02 -1.13036E+03
  3.92499E+03  4.07418E+02  4.60327E+03 -1.58565E+02  5.28677E+03  1.72212E+03  4.35148E+03  7.91427E+03
 -1.24433E+03  7.27011E+03 -7.15697E+03  6.00682E+03 -8.00454E+03  1.48016E+03 -7.38131E+03 -2.66611E+03
 -3.55037E+03 -6.91770E+03 -9.29941E+02 -4.75575E+03  1.83884E+03 -1.32097E+03  1.59652E+03 -2.61438E+03
  1.42931E+03 -1.00439E+03  2.77842E+03 -2.39147E+03  3.46292E+03  3.32252E+01  2.34055E+03 -4.28964E+02
  4.39467E+03  7.34483E+02  9.05763E+02  4.17235E+03 -1.89930E+03  1.71630E+03 -2.71548E+03  2.78175E+03
 -5.62948E+03 -1.19676E+03 -8.80129E+01 -3.89320E+03  5.16671E+02 -4.51381E+03  2.20565E+03 -4.58808E+03
  5.67627E+03 -3.40665E+03  5.95531E+03  1.77248E+02  3.98015E+03  3.62065E+03  1.16165E+03  5.95841E+03
 -1.93173E+03  5.45692E+03 -3.53047E+03  6.83779E+02 -1.88482E+03 -9.55446E+02 -2.81749E+02 -1.43044E+02
 -1.62428E+00  4.03323E+02 -1.18633E+02  2.99282E+02 -2.83821E+03  1.09445E+03 -4.49289E+03  4.74327E+02
 -1.03245E+03 -4.53722E+03  1.84794E+03 -5.01561E+03  1.64985E+03 -4.34890E+03  1.98921E+03 -5.01026E+02
  2.89051E+03  2.58964E+03  1.47905E+03  2.50435E+03 -1.34995E+03  4.76837E+03 -2.84186E+03  1.29606E+03
 -3.80811E+03  3.43390E+02 -2.47664E+03 -1.89082E+03 -3.15714E+02 -2.38541E+03  8.94722E+02 -2.44049E+03
  2.00654E+03 -1.81073E+03  2.09636E+03 -3.00593E+02 -5.34051E+02  3.47444E+02  2.71679E+01  7.46696E+02
  1.84881E+03  1.36083E+03  1.72262E+03  1.90285E+03  3.07668E+02  2.59441E+03  1.53624E+03  1.97432E+03
 -1.66550E+03  2.82297E+03 -1.87338E+03  3.36972E+03 -1.67484E+03  2.06409E+02 -4.37245E+03 -1.01852E+02
 -1.67967E+03 -4.37868E+03  1.68340E+03 -4.55706E+03  1.22792E+03 -2.19031E+03  2.69301E+03 -5.01477E+02
  2.17311E+03  1.72020E+03 -4.64325E+02  2.28964E+03 -1.08015E+03  1.50713E+03  1.97659E+02 -1.66392E+02
 -6.44683E+02 -1.69932E+03  7.50977E+02 -1.92956E+03  1.18747E+03 -1.30492E+03  1.56406E+03  1.49111E+03
  7.02889E+02  3.11151E+02  1.04981E+03  1.53273E+01  7.19652E+02  3.87820E+02  5.24346E+02  2.32862E+02
 -8.22629E+02  4.87597E+02  1.07972E+03  1.17568E+03  1.08666E+02  2.55567E+03  6.62876E+02  2.24983E+03
 -1.57399E+03  1.04504E+03 -3.03028E+03 -2.49208E+02 -2.41758E+03 -9.79350E+02 -2.04918E+01 -9.59166E+01
 -3.21670E+02 -8.18629E+02  1.18728E+03 -4.51710E+02  1.24801E+03  1.37756E+03 -8.88977E+02  1.72694E+02
 -6.87939E+02  1.08942E+03 -2.74880E+03 -1.49227E+03 -8.88606E+02 -2.70553E+03  1.46891E+03 -4.70527E+02
  9.51548E+02 -4.30521E+02  9.08245E+02  1.57382E+02  1.67155E+03  2.04866E+02  2.32032E+02  7.88755E+02
  4.22446E+01 -1.10746E+03 -1.07819E+03 -8.71960E+02 -4.87182E+02 -1.13985E+03  2.03915E+03 -1.01454E+03
  1.20694E+03  1.71705E+02  2.87359E+03  3.44560E+02  6.42937E+02  2.20027E+03 -4.03840E+02  3.25288E+03
 -1.61749E+03  5.24106E+02 -1.73190E+03 -1.48090E+02 -7.84530E+02 -1.62627E+03 -1.87788E+02 -4.21977E+02
  1.98394E+03  8.62087E+01  7.13540E+02  1.36433E+03 -3.18973E+01  1.88996E+02  3.56361E+02  5.22988E+02
  9.98632E+02  3.08245E+02 -3.65122E+01  3.51062E+02  2.85268E+02  3.70948E+02 -2.82173E+02  2.23568E+02
 -1.85363E+03  1.05572E+03 -1.82787E+03 -1.06651E+02 -1.86050E+03  1.23840E+02 -2.24448E+03 -6.53576E+02
 -1.39292E+03 -1.39917E+03  1.06512E+03 -2.41097E+03 -3.56544E+02 -2.56615E+03  2.27146E+03 -1.32713E+02
  2.40307E+03  3.87752E+00  7.98497E+02  1.19790E+03 -3.15619E+02  4.86499E+02 -5.93169E+02  1.20025E+03
 -1.49789E+03  8.88835E+02 -3.46579E+01 -3.74240E+02 -8.46363E+02  9.95021E+01 -1.03541E+03 -3.53095E+01
 -1.90181E+03  7.29343E+02 -1.14981E+03  1.13729E+03 -7.74597E+02 -8.00542E+02  2.72009E+02 -8.54502E+02
  1.70200E+03 -5.15359E+02  7.34987E+02 -6.59491E+02  1.68025E+03  1.84373E+03 -4.10556E+02  2.63126E+02
 -1.55088E+03  2.33629E+03 -1.78965E+03  1.65960E+03 -1.74161E+03 -8.61854E+02 -1.24651E+03 -1.71981E+03
 -1.25261E+03 -1.68806E+03 -9.99588E+02 -1.82351E+03  8.46591E+02 -1.83787E+03 -1.89217E+02  3.85894E+02
  7.08952E+02  1.80261E+02  1.68562E+03  2.20839E+02 -1.06603E+02 -7.20525E+02 -1.22876E+02  3.44177E+02
  4.16191E+02  1.02086E+03  7.01620E+01  9.01648E+02 -1.40933E+02  1.11154E+03  8.96076E+01 -3.17912E+02
 -7.38220E+02  7.54480E+02  1.67776E+02 -4.39674E+02 -5.46311E+02 -7.84363E+02  3.99656E+02 -1.19903E+03
  8.52827E+02 -2.77061E+02  1.24138E+03 -3.92244E+02 -5.87744E+01 -8.26430E+02  2.25729E+02  4.60568E+02
  6.86514E+01  5.90234E+02 -1.03722E+02  7.59241E+02 -1.54927E+03  4.48310E+02 -1.02669E+03  7.84637E+02
  7.31826E+01 -6.71290E+02 -8.81474E+01 -5.05884E+02 -9.67213E+02  1.00790E+03 -1.38402E+03 -6.76269E+02
 -1.64136E+02 -1.24427E+02 -1.00072E+03 -5.71133E+02  8.54879E+02 -1.59268E+03  1.52082E+03 -2.46866E+02
  1.20113E+03  1.41617E+02 -1.98190E+01 -1.00664E+03 -4.82911E+02  1.78984E+01  2.33809E+02 -1.34387E+02
