 $NMID ID='MM_0lb_SNR200_19hz_g40_87.RAW', FMTDAT='(8E13.5)'
 TRAMP=1., VOLUME=1. $END
  3.09690E+05  5.92724E+02  3.36601E+05  2.50440E+05  8.41837E+04  3.37802E+05 -1.31584E+05  2.49112E+05
 -1.90379E+05  8.26089E+04 -1.11169E+05 -3.31945E+04  2.16159E+03 -5.02552E+04  5.43673E+04  9.01942E+02
  3.50812E+04  5.29932E+04 -1.71281E+04  7.54141E+04 -5.97769E+04  6.14757E+04 -8.22957E+04  3.07953E+04
 -7.99151E+04 -1.06992E+04 -5.57305E+04 -4.99177E+04 -1.46963E+04 -6.73815E+04  2.61143E+04 -4.36833E+04
  3.97387E+04  3.16338E+03  1.47175E+04  4.74703E+04 -3.44680E+04  4.61032E+04 -6.47752E+04 -1.41952E+03
 -5.11098E+04 -5.56209E+04 -5.71458E+03 -7.44845E+04  3.35500E+04 -5.18941E+04  4.51742E+04 -1.67455E+04
  4.16811E+04  1.13071E+04  3.01487E+04  2.33578E+04  1.53248E+04  2.73588E+04 -4.37368E+03  2.72447E+04
 -2.14473E+04  1.35093E+04 -2.00605E+04 -4.18379E+03  3.09573E+03 -7.85911E+03  2.10725E+04  9.74399E+03
  7.55249E+03  3.29783E+04 -2.97710E+04  3.39858E+04 -5.99482E+04  2.93223E+03 -5.50962E+04 -3.94842E+04
 -1.19417E+04 -5.89684E+04  3.69977E+04 -4.24824E+04  5.53839E+04 -2.06488E+03  3.13586E+04  3.03576E+04
 -5.98329E+03  3.29078E+04 -2.76644E+04  1.38201E+04 -2.70828E+04 -6.13535E+03 -1.50954E+04 -1.03004E+04
 -7.08889E+03 -1.13890E+04 -1.38309E+03 -1.63194E+04  7.10623E+03 -2.25994E+04  1.46752E+04 -1.37770E+04
  1.26346E+04  3.37077E+03 -5.62777E+03  1.22204E+04 -1.82852E+04 -1.25720E+03 -8.25628E+03 -2.96472E+04
  1.98636E+04 -4.04270E+04  4.36167E+04 -1.84454E+04  4.05869E+04  1.73687E+04  1.43492E+04  4.16838E+04
 -1.57609E+04  2.98720E+04 -2.25112E+04  1.53677E+03 -7.35939E+03 -2.60281E+04  2.05963E+04 -3.01125E+04
  3.73176E+04 -6.61101E+03  2.93791E+04  2.27948E+04  1.44262E+04  4.19919E+04 -6.88193E+03  4.44535E+04
 -2.79607E+04  2.88356E+04 -3.63757E+04  8.07444E+03 -3.67943E+04 -1.42641E+04 -1.95949E+04 -3.25074E+04
  7.34385E+03 -3.25894E+04  2.87585E+04 -1.17096E+04  2.69190E+04  1.14590E+04  4.06080E+03  1.80679E+04
 -1.28228E+04  6.76121E+03 -9.62098E+03 -8.16717E+03  6.50717E+03 -9.21396E+03  1.70025E+04  6.71828E+03
  1.19175E+04  2.15034E+04 -6.53502E+03  2.21257E+04 -2.13754E+04  8.42187E+03 -2.38881E+04 -6.45856E+03
 -1.46517E+04 -1.67623E+04 -4.89558E+03 -1.54687E+04  4.29725E+03 -1.36367E+04  1.10708E+04 -1.26909E+04
  1.95206E+04 -1.09993E+04  2.76549E+04  1.16384E+03  2.05112E+04  1.50765E+04  3.76294E+03  3.18591E+04
 -1.53601E+04  2.65234E+04 -2.51067E+04  9.98325E+03 -1.95672E+04 -9.92401E+03 -3.99906E+03 -1.46462E+04
  3.18091E+03 -5.01747E+03 -1.71460E+03  4.06973E+03 -1.15793E+04  6.14132E+03 -1.15465E+04 -4.35438E+03
 -8.18149E+03 -1.46231E+04  4.29709E+03 -1.88883E+04  1.22923E+04 -1.31010E+04  1.35445E+04 -1.16094E+03
  8.03722E+03  1.01027E+04  1.21118E+01  1.42304E+04 -9.88129E+03  7.50964E+03 -1.51548E+04 -2.63265E+03
 -1.08100E+04 -1.34387E+04 -1.44260E+03 -1.77066E+04  7.10655E+03 -1.43306E+04  1.62845E+04 -6.10429E+03
  1.49324E+04  2.49787E+02  9.63307E+03  4.47829E+03  4.79234E+03 -6.58843E+00  7.24862E+03 -8.46859E+02
  1.35323E+04  2.91532E+03  1.31356E+04  1.11827E+04  8.38366E+03  2.27255E+04 -3.33591E+03  2.63773E+04
 -1.44642E+04  1.80261E+04 -2.22844E+04  8.85723E+03 -2.28517E+04 -1.29448E+03 -2.00333E+04 -1.31171E+04
 -9.60629E+03 -1.88078E+04  5.20044E+03 -1.62142E+04  1.61387E+04 -1.06810E+04  1.46170E+04  3.75696E+03
  7.03086E+03  1.09936E+04 -6.31489E+03  1.01560E+04 -1.24584E+04  2.05407E+03 -9.36933E+03 -7.98783E+03
 -2.96683E+02 -1.15995E+04  5.56007E+03 -9.74659E+03  7.32659E+03 -1.46621E+03  1.55815E+03  4.30396E+03
 -4.81838E+03  1.10544E+03 -2.58033E+03 -4.67683E+03  6.28347E+02 -9.40900E+03  7.09089E+03 -8.62525E+03
  1.19994E+04 -3.56100E+03  1.05486E+04  1.65787E+03  8.95282E+03  8.51449E+03  4.40184E+03  1.32577E+04
 -1.73989E+03  1.40698E+04 -9.24494E+03  8.91536E+03 -1.07367E+04  1.66311E+03 -8.26998E+03 -2.86002E+03
 -3.67780E+03 -3.34416E+03 -5.44516E+02  2.06292E+03 -2.63183E+03  1.48033E+03 -3.13180E+03  3.93471E+03
 -8.04522E+03 -1.05434E+03 -8.41185E+03 -6.17750E+03 -2.80097E+03 -1.10416E+04  3.72633E+03 -8.58050E+03
  5.95973E+03 -3.19630E+03  5.55232E+03  1.92404E+03  9.03222E+01  3.39980E+03 -2.87207E+03  3.27921E+01
 -3.71473E+03 -5.10668E+03 -7.84781E+02 -6.44511E+03  3.98080E+03 -7.51079E+03  8.56100E+03 -3.09258E+03
  1.07943E+04  3.74288E+02  8.33468E+03  4.93771E+03  2.58494E+03  8.24385E+03 -4.26190E+03  7.91013E+03
 -5.51307E+03  2.99781E+03 -3.37489E+03 -1.83585E+03  2.15045E+03 -2.91029E+03  5.00679E+03 -6.61690E+02
  4.27126E+03  2.53302E+03  1.44656E+03  6.11219E+03 -3.64671E+03  6.06536E+03 -7.62129E+03  2.15327E+03
 -4.24813E+03 -2.54919E+03  4.25833E+02 -6.34915E+03  3.04021E+03 -3.41884E+03  2.32467E+03  4.67710E+02
 -4.31027E+02  4.31917E+03 -3.26345E+03  3.64485E+03 -3.81844E+03  1.42350E+03 -4.39239E+03 -8.69318E+02
 -2.34941E+03 -6.72224E+03  8.95343E+02 -6.53749E+03  5.03464E+03 -3.50935E+03  4.54917E+03  1.83915E+02
  3.91392E+03  4.41157E+03  8.89433E+02  7.48655E+03 -4.80964E+03  3.55652E+03 -4.78739E+03  1.38845E+02
 -5.70962E+03 -5.13780E+03 -1.07964E+03 -4.87394E+03  1.67426E+03 -3.26767E+03  3.38021E+03 -3.07844E+03
  4.27590E+03  1.60765E+02 -6.08177E+02  1.47752E+03  3.00321E+02 -4.86726E+02  1.71126E+02 -1.49325E+03
  3.97752E+03 -5.91139E+02  5.45835E+03  4.20484E+02  5.54025E+03  1.44678E+03  4.27477E+03  6.94320E+03
 -1.33790E+01  6.65366E+03 -5.64436E+03  5.76318E+03 -8.84345E+03  6.90733E+02 -8.05399E+03 -2.58808E+03
 -3.72723E+03 -7.17836E+03 -1.23957E+03 -3.47230E+03  1.64843E+03 -1.54761E+03  1.19028E+03 -1.92019E+03
  1.18000E+03 -1.10596E+03  1.80585E+03 -2.19673E+03  3.08692E+03 -5.50943E+02  3.51608E+03  6.52637E+02
  5.14589E+03  1.02204E+03  1.86503E+03  3.95032E+03 -2.45564E+03  3.08411E+03 -3.98810E+03  3.33938E+03
 -4.22722E+03 -7.24766E+02 -1.44533E+03 -3.67485E+03  3.99060E+02 -3.79421E+03  2.01400E+03 -5.47508E+03
  3.78212E+03 -2.50174E+03  6.88449E+03  1.02687E+02  4.28402E+03  3.10813E+03  1.66067E+03  6.36215E+03
 -1.87778E+03  5.00819E+03 -2.54810E+03  1.25313E+03 -1.62332E+03 -1.40475E+03 -7.46019E+02 -1.03377E+03
 -5.53039E+02  8.26350E+02 -1.98835E+03  2.28309E+03 -1.89450E+03 -1.27162E+02 -4.04547E+03 -5.43760E+02
 -1.08081E+03 -3.72286E+03  9.50962E+02 -4.23858E+03  1.45540E+03 -4.29630E+03  3.79218E+03 -1.75674E+03
  5.01574E+03  2.19089E+03  1.14770E+03  3.30108E+03 -8.63908E+02  4.83917E+03 -3.00212E+03  7.48999E+02
 -3.95225E+03  1.31577E+02 -2.89558E+03 -2.11170E+03  4.57345E+02 -2.26962E+03  3.29972E+02 -1.88563E+03
  2.25268E+03 -6.79225E+02  2.00354E+03  7.47892E+02  8.29911E+01  1.63184E+03  7.77674E+02  4.75621E+02
  1.32018E+03  8.18132E+02  1.33016E+03  1.63435E+03  4.69548E+02  1.34083E+03  1.59119E+03  1.99733E+03
 -1.72751E+03  2.56618E+03 -3.03980E+03  3.91604E+03 -3.13848E+03 -5.25782E+01 -4.83925E+03 -2.82653E+02
 -1.59631E+03 -3.74235E+03  1.01214E+03 -3.90557E+03  1.33019E+03 -2.40491E+03  3.20500E+03 -1.42246E+03
  2.43094E+03  1.86075E+03  8.01571E+02  2.73559E+03  5.22086E+02  1.66193E+03 -7.71755E+02 -9.72505E+01
 -3.28477E+02 -1.87802E+03  1.99405E+03  1.67037E+01  5.60957E+02 -1.46152E+03  4.51634E+02  2.17587E+02
  5.16869E+02  5.33365E+01  6.03658E+02 -1.14494E+02 -9.14049E+02  1.32711E+03  1.78749E+03  3.43973E+02
  4.09575E+02 -4.94721E+02  1.54857E+03 -5.31280E+02 -9.31191E+01  2.29614E+03  6.76695E+02  2.44027E+03
 -1.41467E+03  2.15263E+03 -1.42818E+03 -1.11337E+02 -2.59830E+03 -1.81738E+02  3.65434E+02 -8.94504E+02
  6.27485E+01 -1.87038E+03  1.10623E+03 -9.00503E+02 -8.90399E+01  8.49598E+02 -1.97730E+03  2.28938E+02
 -1.80946E+03  7.76883E+02 -1.91647E+02 -4.77270E+02 -2.98132E+02 -1.24347E+03 -5.95012E+02 -2.02251E+03
  3.12394E+02 -1.21590E+03  3.21158E+02  2.85686E+02  9.58511E+02  3.47463E+02  5.22002E+02  1.13111E+03
  4.13374E+02  4.45317E+02 -4.12661E+02  1.89142E+02  1.25864E+03 -1.01157E+03  1.12919E+03 -2.88262E+02
  1.60054E+03  5.19416E+02  2.83193E+03  7.73284E+02  8.13819E+02  6.72572E+02  6.46418E+02  9.21854E+02
 -6.95251E+02 -1.18113E+02 -1.24192E+03  2.25913E+02 -1.51899E+03 -1.80633E+03  3.99801E+02 -3.92858E+02
  1.14981E+03 -8.06120E+02  7.53464E+02  1.15468E+03  1.07228E+03  1.64178E+03  1.19316E+03  1.92322E+03
  9.54993E+01  1.10672E+03 -5.82504E+02  7.24054E+02 -1.19329E+02  1.05936E+02  1.44649E+02  5.28822E+02
 -1.97952E+03  1.23701E+03 -1.42862E+03  2.55528E+02 -9.47434E+02  1.96402E+02 -2.68408E+03 -6.85141E+02
 -1.56902E+03 -2.42504E+03  7.88987E+02 -1.61008E+03  9.47951E+02 -2.42406E+03  2.61888E+03 -2.26214E+02
  2.69384E+03  4.81574E+02  2.93382E+02 -1.86529E+02 -1.55512E+02  1.08478E+02 -7.97515E+02  1.40317E+03
 -1.68289E+03  1.27900E+03 -2.98400E+02 -1.18300E+01 -1.02283E+03  2.33326E+02 -9.90697E+02 -1.91781E+02
 -1.47877E+02  6.36427E+02 -8.03942E+02 -2.24124E+02  6.20346E+02 -4.84246E+02 -3.67243E+02 -3.41354E+02
  7.06551E+02  1.49328E+02  1.54734E+02 -6.11180E+02  2.38724E+02  1.57987E+03 -1.04744E+02  2.34043E+02
 -7.75197E+02  2.06614E+03 -2.52613E+03  9.70754E+02 -1.39137E+03  1.69067E+02  2.00656E+02 -1.62520E+03
 -1.00368E+03 -1.36915E+03 -3.54615E+02 -7.50566E+02 -3.83790E+02 -9.47041E+02  3.38421E+02  1.67149E+02
  1.01508E+03  3.01779E+02 -5.60733E+02  3.12778E+01  1.21792E+02  8.26314E+02  3.06384E+02  4.51076E+02
  5.09660E+02 -8.61994E+02  1.11473E+03 -3.72684E+02 -1.15733E+02  9.15011E+02  4.22117E+02  9.25929E+02
  6.27967E+02  1.51144E+03  3.11730E+02  1.61230E+02  3.81493E+00 -7.48095E+02 -3.27388E+02 -1.30290E+03
  6.33216E+00 -9.70527E+02  1.12496E+03 -2.01357E+02  1.17135E+03 -5.78802E+02 -4.88687E+01  5.64616E+02
 -6.45932E+01  1.07140E+02 -6.92679E+02  8.81133E+01 -4.72852E+02  2.37326E+02  5.02386E+02  6.69267E+02
  5.29676E+02  2.92575E+02 -3.80602E+02  5.19336E+02 -1.61221E+02 -2.64320E+02 -2.33556E+02  3.82550E+02
 -1.79563E+03  8.36464E+02 -1.27765E+03  4.25638E+02  1.12924E+03 -2.24757E+03  1.43437E+03  4.94761E+02
  4.67116E+01 -1.10657E+03 -1.19393E+03 -3.01144E+02 -4.07519E+02  6.29907E+02 -9.08972E+02  5.25380E+02
