 $NMID ID='MM_0lb_SNR200_15hz_g40_78.RAW', FMTDAT='(8E13.5)'
 TRAMP=1., VOLUME=1. $END
  3.10794E+05  5.58615E+02  3.38765E+05  2.50174E+05  8.37335E+04  3.37928E+05 -1.31694E+05  2.50533E+05
 -1.90372E+05  8.33865E+04 -1.11742E+05 -3.32928E+04  1.20824E+03 -5.15530E+04  5.49656E+04  3.46899E+02
  3.55864E+04  5.28472E+04 -1.68115E+04  7.41296E+04 -5.98505E+04  6.30846E+04 -8.26455E+04  3.08580E+04
 -8.13070E+04 -1.05963E+04 -5.76371E+04 -5.11515E+04 -1.53024E+04 -6.99620E+04  2.77117E+04 -4.50732E+04
  3.94962E+04  3.19350E+03  1.52789E+04  4.84653E+04 -3.43965E+04  4.78541E+04 -6.65254E+04 -9.49071E+02
 -5.29456E+04 -5.60317E+04 -6.58363E+03 -7.59367E+04  3.43297E+04 -5.44837E+04  4.67491E+04 -1.75150E+04
  4.24171E+04  1.17584E+04  3.09657E+04  2.59799E+04  1.51218E+04  2.74633E+04 -4.94092E+03  2.73542E+04
 -2.09297E+04  1.15432E+04 -1.91431E+04 -3.53869E+03  5.65041E+03 -7.58736E+03  2.22909E+04  1.25397E+04
  6.24507E+03  3.39219E+04 -3.11808E+04  3.61928E+04 -6.16679E+04  1.93952E+03 -5.62912E+04 -4.07357E+04
 -1.21628E+04 -6.21089E+04  3.82229E+04 -4.42000E+04  5.58576E+04 -3.07660E+03  3.26466E+04  3.11366E+04
 -7.04648E+03  3.49081E+04 -2.92485E+04  1.41203E+04 -2.87919E+04 -5.63991E+03 -1.66590E+04 -1.16838E+04
 -8.00469E+03 -1.22128E+04 -1.31636E+03 -1.87807E+04  7.64736E+03 -2.26779E+04  1.54237E+04 -1.29010E+04
  1.26486E+04  5.23262E+03 -7.73639E+03  1.40287E+04 -2.02275E+04 -3.45726E+03 -9.46386E+03 -3.26337E+04
  2.19074E+04 -4.18958E+04  4.66049E+04 -1.86447E+04  4.25980E+04  1.96165E+04  1.57540E+04  4.34251E+04
 -1.57271E+04  3.10440E+04 -2.47281E+04  1.85225E+03 -9.16744E+03 -2.62216E+04  2.03736E+04 -3.14716E+04
  4.04034E+04 -7.77158E+03  3.28578E+04  2.22904E+04  1.67831E+04  4.49394E+04 -7.82073E+03  4.74180E+04
 -2.87645E+04  3.18019E+04 -4.05186E+04  8.83301E+03 -4.01628E+04 -1.60878E+04 -2.27580E+04 -3.50604E+04
  7.35393E+03 -3.50944E+04  2.91125E+04 -1.46541E+04  2.79580E+04  1.18669E+04  3.26983E+03  1.86364E+04
 -1.35341E+04  7.72095E+03 -9.66872E+03 -7.13142E+03  6.20595E+03 -9.69085E+03  1.80975E+04  5.98628E+03
  1.18914E+04  2.15832E+04 -5.33575E+03  2.38819E+04 -2.24373E+04  1.10140E+04 -2.61211E+04 -5.97663E+03
 -1.87038E+04 -1.65257E+04 -7.82029E+03 -1.95415E+04  3.69095E+03 -1.64574E+04  1.43423E+04 -1.66407E+04
  2.36960E+04 -1.27768E+04  3.04532E+04  8.15248E+02  2.27643E+04  1.79124E+04  4.10092E+03  3.53050E+04
 -1.68574E+04  2.99682E+04 -2.63461E+04  1.08775E+04 -2.05721E+04 -1.14502E+04 -5.36470E+03 -1.27948E+04
  2.30535E+03 -2.98366E+03 -3.60940E+03  5.67519E+03 -1.54806E+04  6.13247E+03 -1.41070E+04 -7.64726E+03
 -9.73823E+03 -1.74860E+04  4.29729E+03 -2.20882E+04  1.33590E+04 -1.53733E+04  1.65454E+04 -6.95868E+02
  9.90487E+03  1.16953E+04 -9.19870E+02  1.84997E+04 -1.16271E+04  1.14333E+04 -1.68429E+04 -4.25351E+03
 -1.28981E+04 -1.51073E+04 -8.51699E+02 -2.17814E+04  9.85515E+03 -1.77798E+04  1.80661E+04 -8.01744E+03
  1.66889E+04  1.11024E+03  1.23636E+04  3.90594E+03  7.46373E+03  8.29285E+02  8.61990E+03 -2.73184E+03
  1.53546E+04  3.50526E+03  1.75909E+04  1.36159E+04  1.11591E+04  2.81591E+04 -4.67264E+03  3.08835E+04
 -1.72465E+04  2.50814E+04 -2.82280E+04  1.12206E+04 -2.87531E+04 -2.01003E+03 -2.61390E+04 -1.68585E+04
 -9.02696E+03 -2.56912E+04  7.60469E+03 -2.20559E+04  1.90437E+04 -1.28559E+04  1.74962E+04  4.85471E+03
  6.47295E+03  1.31615E+04 -8.46108E+03  1.24080E+04 -1.52397E+04  1.04509E+03 -1.19921E+04 -8.64341E+03
  4.59670E+02 -1.34066E+04  7.10201E+03 -1.09947E+04  9.26710E+03 -1.49857E+03  5.34082E+02  6.11298E+03
 -7.00202E+03  2.41582E+03 -5.50114E+03 -5.68589E+03 -7.31358E+02 -1.22274E+04  9.49830E+03 -1.15920E+04
  1.48042E+04 -5.71346E+03  1.57646E+04  2.16973E+03  1.43457E+04  1.25717E+04  7.04981E+03  1.76689E+04
 -2.80223E+03  1.92431E+04 -1.21216E+04  1.23869E+04 -1.44361E+04  3.37310E+03 -1.02918E+04 -3.11300E+03
 -5.42641E+03 -3.81064E+03 -9.59405E+02  1.37032E+03 -2.94840E+03  1.93940E+03 -4.11579E+03  4.40970E+03
 -9.89093E+03  2.53084E+01 -9.77602E+03 -8.08717E+03 -4.55894E+03 -1.36964E+04  4.71663E+03 -1.04083E+04
  7.78492E+03 -3.33994E+03  7.11178E+03  2.54736E+03 -3.65470E+01  3.22455E+03 -3.57424E+03 -9.62568E+02
 -4.39925E+03 -5.59762E+03 -1.02131E+03 -9.19340E+03  5.90898E+03 -1.10557E+04  1.28236E+04 -4.31604E+03
  1.38978E+04  1.88127E+03  1.15103E+04  9.05603E+03  1.63996E+03  1.08222E+04 -5.98634E+03  1.10542E+04
 -7.05457E+03  2.25512E+03 -4.58842E+03 -1.63330E+03  1.95565E+03 -1.94493E+03  5.80584E+03 -2.27614E+03
  4.68002E+03  4.24080E+03 -1.77147E+02  7.69500E+03 -5.34000E+03  7.56977E+03 -9.45510E+03  1.97985E+03
 -6.00709E+03 -3.74124E+03  3.65584E+02 -6.98867E+03  4.78156E+03 -3.54954E+03  5.65269E+03  2.62688E+03
  9.85725E+02  5.88164E+03 -5.25641E+03  5.95003E+03 -6.55509E+03  2.68765E+03 -6.55942E+03 -3.49135E+03
 -4.78421E+03 -7.38294E+03  2.19731E+03 -9.11064E+03  7.02670E+03 -5.79217E+03  9.35766E+03  1.20419E+03
  5.32882E+03  6.85546E+03  9.12369E+01  8.24461E+03 -5.31132E+03  5.14836E+03 -8.96396E+03  3.35734E+02
 -7.41591E+03 -7.38325E+03 -1.78363E+03 -5.74894E+03  3.76101E+03 -5.68878E+03  4.67215E+03 -1.47876E+03
  2.49718E+03  9.07405E+02 -9.03820E+02  1.42449E+03 -1.37068E+02 -6.55123E+02  1.04524E+03 -3.13488E+03
  5.29081E+03 -1.80927E+03  7.95519E+03  1.31930E+03  8.23718E+03  3.87526E+03  5.41124E+03  9.83755E+03
 -2.12243E+03  1.08579E+04 -1.08784E+04  8.18000E+03 -1.42212E+04  2.13248E+03 -1.01796E+04 -4.42318E+03
 -6.26814E+03 -8.52237E+03  2.38018E+02 -7.96886E+03  3.58647E+03 -3.98914E+03  2.95740E+03 -3.04813E+03
  1.96369E+03 -1.81867E+03  2.79860E+03 -2.90812E+03  5.02213E+03 -1.75152E+03  5.15734E+03 -4.50169E+02
  5.81192E+03  1.58538E+03  1.64643E+03  4.82805E+03 -1.85978E+03  4.06373E+03 -6.52682E+03  4.36935E+03
 -6.15002E+03 -1.39382E+03 -2.92183E+03 -6.24183E+03  1.07088E+03 -8.17210E+03  3.22914E+03 -6.77311E+03
  8.38154E+03 -3.79586E+03  1.03158E+04  2.35536E+03  6.28929E+03  5.58072E+03  2.10046E+03  8.21266E+03
 -3.09734E+03  7.84541E+03 -4.68040E+03  2.29448E+03 -3.37842E+03 -2.31145E+03 -1.25434E+03 -5.90250E+02
 -7.55995E+02  9.74621E+01 -2.34381E+03  3.13686E+03 -3.20072E+03  1.45637E+03 -4.94011E+03 -4.91097E+02
 -3.06350E+03 -5.49122E+03  6.99855E+01 -6.92002E+03  4.72041E+03 -6.43179E+03  6.28879E+03 -1.85472E+03
  6.30848E+03  3.01977E+03  2.93860E+03  5.25884E+03 -1.65017E+03  6.48848E+03 -3.34556E+03  4.87585E+03
 -7.24733E+03  1.63506E+02 -5.36787E+03 -4.47377E+03 -5.22153E+02 -5.44392E+03  3.28866E+03 -3.87429E+03
  4.88565E+03 -9.53744E+02  3.48405E+03  7.94042E+02  1.56205E+03  1.75676E+03  1.14215E+02 -1.09849E+01
  1.90050E+03  8.53592E+02  2.82079E+03  8.20171E+02  1.92516E+03  4.22628E+03  2.22290E+03  2.53138E+03
 -1.21650E+03  3.91231E+03 -4.24598E+03  6.22868E+03 -5.97105E+03  2.05410E+03 -6.88230E+03 -1.18407E+03
 -3.07489E+03 -6.69338E+03  3.58957E+02 -6.79277E+03  3.36295E+03 -4.08442E+03  4.11511E+03 -1.93343E+03
  3.87290E+03  2.21138E+03  2.71658E+01  4.11303E+03 -8.78633E+02  3.05919E+03 -2.74764E+03 -1.51195E+03
 -1.45839E+03 -1.57822E+03  2.15255E+03 -2.71146E+03  1.67697E+03 -1.53515E+03  2.82274E+03 -6.78407E+01
  1.33575E+03  1.37854E+03 -3.88215E+02  2.69035E+02 -1.13702E+03  1.28494E+03  1.40696E+03 -1.02769E+03
  1.84381E+03 -7.37355E+02  3.18673E+03  1.39677E+03  3.39741E+02  3.08958E+03 -7.29394E+02  5.11078E+03
 -2.85421E+03  2.85356E+03 -3.80444E+03  1.25052E+03 -4.81718E+03 -8.20745E+02 -1.58306E+03 -2.82718E+03
  8.03694E+02 -1.64040E+03  1.80703E+03 -1.06190E+03  1.96722E+03  2.60931E+03 -7.33771E+02  1.06320E+03
 -1.88852E+03  1.80135E+03 -3.00376E+03 -1.78510E+03 -1.07686E+03 -4.13374E+03  1.10427E+02 -3.57264E+03
  7.22196E+02 -1.89338E+03  2.31189E+03 -7.57590E+01  1.32683E+03 -9.78253E+02  4.17143E+02  1.73288E+03
  6.26746E+01 -1.10417E+03 -1.03965E+03 -1.37682E+02  1.10315E+03 -1.64333E+03  2.85082E+03 -1.40331E+03
  2.97674E+03  8.26602E+02  2.96920E+03  1.41634E+03  1.20036E+03  3.60775E+03 -1.24476E+02  3.83336E+03
 -3.29508E+03  6.99751E+01 -2.36410E+03  4.36499E+02 -2.19588E+03 -2.10939E+03  7.19589E+02 -9.64637E+02
  2.48392E+03 -5.75822E+02  1.77674E+03  5.50598E+00  1.98041E+03  1.92236E+03 -2.33966E+02  2.95733E+03
 -1.74668E+03  1.25182E+03 -1.10790E+03 -4.79372E+02 -5.42299E+02 -3.47469E+02 -7.06013E+02  1.76093E+03
 -5.41300E+02  1.55410E+03 -2.44817E+03  1.55885E+03 -3.29882E+03 -6.33687E+01 -4.05979E+03 -2.84015E+03
 -1.23248E+03 -4.82619E+03  5.64563E+02 -3.97486E+03  3.83711E+03 -3.32357E+03  5.10366E+03 -1.71611E+03
  5.41354E+03  9.32509E+02  3.31452E+03  2.27978E+03 -1.01960E+03  4.33542E+03 -1.61905E+02  2.66801E+03
 -8.15534E+02  5.93170E+02 -2.56366E+02 -8.89648E+02 -1.29654E+03  7.74490E+02 -2.28332E+02  9.40305E+02
 -1.49896E+03  4.38235E+02 -1.79310E+03 -6.75817E+02  5.48045E+02 -9.63143E+02 -4.11562E+02 -1.12422E+03
  1.24877E+03 -1.70173E+03  6.92742E+02 -1.48198E+02  1.70030E+03  1.57968E+03  9.22828E+01  2.66084E+03
 -2.03197E+03  3.64752E+03 -2.61328E+03  2.23204E+03 -3.31176E+03  1.12331E+03 -2.59648E+03 -2.75912E+03
 -1.05865E+03 -2.84748E+03  3.83450E+02 -3.80433E+03  2.34573E+03 -1.90593E+03  2.05360E+03  3.44841E+02
  2.08263E+03  1.64481E+03 -4.66611E+02  1.62335E+03 -1.43133E+03 -5.36646E+02  4.11195E+02 -7.16088E+02
  1.21487E+03 -7.43641E+02  9.63113E+02 -6.69600E+02  1.78792E+03  1.60088E+03  9.38261E+02  2.35251E+03
 -1.28541E+03  7.42780E+02 -1.79810E+03 -6.80409E+00 -2.62475E+03 -1.69398E+03 -4.24291E+02 -2.09793E+03
  8.73116E+02 -1.69776E+03  2.59181E+03 -1.01721E+03  2.55966E+03 -5.85391E+02  5.29566E+02  2.52111E+03
 -7.54767E+01  2.98292E+03 -7.38455E+02  2.36793E+03 -1.69090E+03  2.66067E+03 -4.79371E+01  1.82136E+02
  4.31233E+01  1.50883E+02 -8.04985E+02  3.63005E+02 -1.28678E+03  4.02762E+02 -2.06826E+03  1.18474E+02
 -1.78060E+03  1.53224E+02 -1.09065E+03 -1.87191E+03  1.52545E+03 -2.56898E+03  1.57487E+03 -3.87027E+02
  1.71653E+03  9.00047E+02  1.83611E+02  3.66990E+02 -7.40419E+02  1.91749E+03 -1.01723E+03  9.34052E+02
