 $NMID ID='MM_0lb_SNR200_17hz_g50_24.RAW', FMTDAT='(8E13.5)'
 TRAMP=1., VOLUME=1. $END
  3.09320E+05  8.04522E+02  3.38134E+05  2.51362E+05  8.46812E+04  3.37635E+05 -1.32836E+05  2.51203E+05
 -1.89642E+05  8.16940E+04 -1.11205E+05 -3.27223E+04  5.96799E+02 -5.00488E+04  5.42862E+04  2.52753E+02
  3.56293E+04  5.28877E+04 -1.70649E+04  7.53878E+04 -6.08544E+04  6.31974E+04 -8.31674E+04  3.18412E+04
 -8.06263E+04 -9.82858E+03 -5.76469E+04 -4.99974E+04 -1.44686E+04 -6.89797E+04  2.79544E+04 -4.55302E+04
  3.98774E+04  2.54497E+03  1.46599E+04  4.85712E+04 -3.46522E+04  4.56162E+04 -6.64751E+04  8.52596E+01
 -5.20880E+04 -5.61147E+04 -5.81083E+03 -7.62893E+04  3.43011E+04 -5.36165E+04  4.66582E+04 -1.73247E+04
  4.23578E+04  1.10790E+04  3.09027E+04  2.56433E+04  1.55354E+04  3.04200E+04 -5.25153E+03  2.62397E+04
 -2.19127E+04  1.32383E+04 -1.75233E+04 -4.07092E+03  5.61088E+03 -8.32428E+03  2.05860E+04  1.18223E+04
  7.27373E+03  3.45713E+04 -3.04760E+04  3.45729E+04 -6.21676E+04  1.74736E+03 -5.60543E+04 -4.10845E+04
 -1.27945E+04 -6.25168E+04  3.88799E+04 -4.42697E+04  5.60645E+04 -1.74729E+03  3.29728E+04  3.13636E+04
 -6.90665E+03  3.48277E+04 -2.93916E+04  1.35704E+04 -2.86490E+04 -5.62354E+03 -1.54142E+04 -1.06231E+04
 -7.68300E+03 -1.28378E+04 -4.95123E+02 -1.67255E+04  6.28841E+03 -2.23199E+04  1.46182E+04 -1.36489E+04
  1.14365E+04  4.48048E+03 -7.36896E+03  1.28885E+04 -1.94235E+04 -3.59739E+03 -8.44018E+03 -3.27618E+04
  2.11093E+04 -4.10964E+04  4.66857E+04 -1.78799E+04  4.35868E+04  1.93955E+04  1.57926E+04  4.26923E+04
 -1.56212E+04  3.14784E+04 -2.44300E+04  1.94787E+03 -9.79425E+03 -2.74862E+04  2.16333E+04 -3.20873E+04
  4.00847E+04 -7.62542E+03  3.29786E+04  2.27334E+04  1.71934E+04  4.42620E+04 -7.69828E+03  4.72984E+04
 -3.04702E+04  3.11639E+04 -3.94710E+04  8.03084E+03 -4.11863E+04 -1.50529E+04 -2.30814E+04 -3.61414E+04
  7.14407E+03 -3.63103E+04  3.03095E+04 -1.29942E+04  2.70068E+04  1.13142E+04  3.13739E+03  1.89118E+04
 -1.33915E+04  6.93153E+03 -9.81244E+03 -8.06285E+03  6.02789E+03 -9.23096E+03  1.79787E+04  6.32283E+03
  1.25024E+04  2.14686E+04 -6.11943E+03  2.34387E+04 -2.15043E+04  1.00112E+04 -2.74837E+04 -4.29595E+03
 -1.76278E+04 -1.77030E+04 -5.71662E+03 -1.67944E+04  3.88181E+03 -1.70392E+04  1.38931E+04 -1.52628E+04
  2.30361E+04 -1.19928E+04  2.87393E+04  1.83464E+03  2.25820E+04  1.75178E+04  4.34721E+03  3.40345E+04
 -1.73899E+04  2.80134E+04 -2.68583E+04  9.94521E+03 -1.97498E+04 -1.06577E+04 -1.87011E+03 -1.45875E+04
  2.69685E+03 -4.31749E+03 -2.59694E+03  6.50381E+03 -1.32575E+04  4.68148E+03 -1.40593E+04 -7.22611E+03
 -1.02496E+04 -1.61836E+04  4.46005E+03 -2.07303E+04  1.35925E+04 -1.47969E+04  1.64831E+04 -1.25021E+03
  9.51032E+03  1.19180E+04 -4.12059E+02  1.72871E+04 -1.18153E+04  8.83094E+03 -1.63227E+04 -3.10428E+03
 -1.22903E+04 -1.62028E+04 -2.13102E+03 -1.99325E+04  8.36262E+03 -1.69601E+04  1.67746E+04 -7.62309E+03
  1.58987E+04  4.52771E+02  1.12684E+04  4.25442E+03  5.43638E+03  8.54653E+02  9.08687E+03 -1.41981E+03
  1.48431E+04  1.99917E+03  1.48907E+04  1.47980E+04  1.02865E+04  2.65187E+04 -4.18709E+03  2.90504E+04
 -1.63634E+04  2.34593E+04 -2.76694E+04  1.14294E+04 -2.80254E+04 -2.18664E+03 -2.31494E+04 -1.59819E+04
 -1.02422E+04 -2.30529E+04  8.59063E+03 -2.05724E+04  1.79964E+04 -1.15961E+04  1.69147E+04  3.15446E+03
  6.96004E+03  1.27665E+04 -8.21709E+03  1.18312E+04 -1.43973E+04  1.61913E+03 -1.18961E+04 -9.33783E+03
  2.54882E+02 -1.35966E+04  6.38346E+03 -1.01223E+04  9.49213E+03 -6.22036E+02  1.11062E+03  6.54289E+03
 -5.70477E+03  2.23108E+03 -3.48200E+03 -3.83334E+03 -9.31277E+01 -1.06032E+04  8.01307E+03 -1.12340E+04
  1.38622E+04 -6.30115E+03  1.46713E+04  3.42602E+03  1.30212E+04  1.16104E+04  6.76494E+03  1.56968E+04
 -1.51823E+03  1.77403E+04 -1.25662E+04  1.14050E+04 -1.22487E+04  2.61018E+03 -1.01380E+04 -2.55809E+03
 -3.09646E+03 -4.57416E+03 -1.20443E+03  3.29967E+02 -1.49968E+03  2.50661E+03 -3.55104E+03  4.60322E+03
 -9.21216E+03 -1.55901E+01 -8.73442E+03 -8.45673E+03 -3.82374E+03 -1.17646E+04  4.57828E+03 -9.95471E+03
  7.80513E+03 -4.44525E+03  5.52240E+03  3.39388E+03 -2.04308E+02  3.81328E+03 -4.99541E+03 -1.80003E+02
 -4.40554E+03 -5.48527E+03  1.67087E+01 -8.13687E+03  4.41104E+03 -9.24174E+03  1.07709E+04 -4.70891E+03
  1.31645E+04  1.06094E+03  1.12670E+04  6.92397E+03  1.36954E+03  9.74424E+03 -5.91356E+03  1.12877E+04
 -6.95186E+03  3.46187E+03 -2.93781E+03 -9.72453E+02  1.46287E+03 -2.14554E+03  5.29718E+03 -2.80674E+02
  4.76574E+03  3.27115E+03  2.44558E+03  6.92482E+03 -5.37011E+03  7.95390E+03 -8.52552E+03  2.39195E+03
 -6.02533E+03 -4.95442E+03  1.09525E+03 -7.11734E+03  5.17328E+03 -3.79490E+03  4.08174E+03  1.72755E+03
  2.75819E+02  4.72177E+03 -4.11126E+03  6.43097E+03 -5.81937E+03  2.43206E+03 -6.69092E+03 -1.35217E+03
 -3.22721E+03 -6.48811E+03  1.65349E+03 -8.17774E+03  7.73913E+03 -4.70287E+03  7.84528E+03  1.44213E+03
  4.26041E+03  6.27206E+03  4.15249E+02  8.61593E+03 -6.81067E+03  5.30875E+03 -5.78659E+03 -5.51743E+02
 -6.41834E+03 -6.18250E+03 -6.82742E+02 -6.79058E+03  1.89915E+03 -6.26253E+03  4.16850E+03 -2.57781E+03
  4.13743E+03 -3.18635E+02 -3.89535E+02  7.79380E+02  9.39224E+02 -7.88332E+02  3.84510E+02 -3.33093E+03
  5.45305E+03 -1.44607E+03  6.41495E+03  9.68780E+02  6.88015E+03  3.73025E+03  5.87673E+03  8.15618E+03
 -1.83107E+03  1.06513E+04 -9.95315E+03  7.82196E+03 -1.16654E+04  3.33927E+02 -9.58353E+03 -3.14079E+03
 -5.74514E+03 -7.34242E+03 -1.73674E+02 -6.56997E+03  2.62372E+03 -2.34297E+03  2.67064E+03 -1.34414E+03
  1.78503E+03 -1.04562E+03  2.98106E+03 -2.78520E+03  3.69180E+03 -5.84854E+02  4.51019E+03 -3.55201E+02
  4.10572E+03  1.69919E+03  1.07393E+03  4.14956E+03 -2.48263E+03  3.89446E+03 -5.10612E+03  2.61954E+03
 -5.93026E+03 -1.91708E+03 -2.99225E+03 -3.68264E+03  3.24306E+02 -6.63564E+03  3.05647E+03 -6.23500E+03
  5.99736E+03 -4.51397E+03  8.14509E+03  4.76785E+02  6.56010E+03  5.65679E+03  6.15256E+02  7.35432E+03
 -1.59877E+03  7.62772E+03 -4.50183E+03  1.64822E+03 -2.77032E+03 -1.97935E+03 -6.63931E+02 -4.59163E+02
 -2.05159E+02 -2.00636E+02 -6.59039E+02  2.96678E+03 -3.42034E+03  2.00801E+03 -5.29755E+03 -5.78787E+02
 -1.76979E+03 -4.65918E+03  4.81906E+02 -6.56151E+03  4.27053E+03 -4.85704E+03  5.42129E+03 -1.75308E+03
  4.97705E+03  3.45043E+03  3.81458E+03  4.55419E+03 -1.33240E+03  5.03334E+03 -3.97776E+03  2.82441E+03
 -4.95170E+03  1.48113E+03 -4.40195E+03 -3.23413E+03 -8.87135E+02 -3.67308E+03  1.76776E+03 -3.52488E+03
  4.40333E+03 -2.27883E+03  1.96167E+03  6.01237E+02  9.56447E+02  1.71727E+03  7.51909E+01  1.35377E+03
  1.42785E+03  1.47814E+03  1.40836E+03  9.19598E+02  1.90365E+03  3.81761E+03  7.91323E+02  1.87178E+03
 -7.86475E+02  3.46725E+03 -3.16473E+03  5.17200E+03 -4.96729E+03  1.57981E+03 -5.92795E+03 -1.65172E+03
 -1.63383E+03 -4.47134E+03  1.89715E+03 -4.99592E+03  3.08531E+03 -3.67917E+03  4.12075E+03 -2.09302E+03
  2.67531E+03  1.55518E+03  8.77595E+02  2.15206E+03 -7.36022E+02  2.24797E+03 -8.46793E+02 -7.81345E+01
 -8.30582E+02 -2.83864E+03  1.33547E+03 -3.47922E+03  1.72636E+03 -1.23269E+03  1.47661E+03  9.06445E+02
  1.62434E+03  7.40611E+02  1.30579E+03 -7.49982E+01 -1.34520E+02  3.92994E+02  2.60632E+03 -2.55725E+02
  6.84280E+02  8.22065E+02  2.61772E+03  1.51982E+03  1.00073E+03  2.84729E+03 -6.27766E+02  3.73864E+03
 -2.47815E+03  1.74984E+03 -1.76068E+03  8.13169E+01 -1.84742E+03 -5.33561E+02 -2.83250E+01 -2.09605E+03
  3.17066E+02 -3.91655E+03 -1.91955E+02  1.73161E+02  1.02347E+03  1.51164E+03  4.74592E+02  2.07779E+03
 -1.79863E+03  1.21161E+03 -2.24304E+03 -1.69705E+03 -9.52952E+02 -2.87679E+03 -1.86546E+02 -2.82828E+03
  2.96993E+02 -1.15981E+03  1.89408E+03 -1.47965E+02  1.34700E+03  1.81900E+02  1.43579E+03  2.35626E+03
 -6.74181E+02  3.66884E+02 -1.42889E+03 -1.11692E+03 -1.51707E+02 -4.06607E+02  1.98831E+03  3.20775E+02
  1.80470E+03  1.33443E+02  3.38764E+03  2.24457E+03  1.40543E+03  1.90670E+03 -1.15375E+03  2.85830E+03
 -1.46278E+03  5.48404E+02 -2.89990E+03 -1.10881E+02 -5.02215E+02 -2.07322E+03  1.08004E+03 -9.69088E+02
  3.37119E+03 -5.15430E+02  1.29762E+03  1.05168E+03  7.21648E+02  1.05198E+03 -3.82899E+02  2.44696E+03
 -8.13499E+02  1.37290E+03 -4.39988E+02  2.41900E+02 -2.80940E+02  1.43361E+03 -8.77802E+01  7.23190E+02
 -1.15206E+03  1.27672E+03 -2.14601E+03  1.03512E+03 -2.17929E+03 -4.89944E+02 -3.40261E+03 -3.74355E+02
 -3.16544E+02 -2.55752E+03 -2.19242E+02 -2.72921E+03  1.47563E+03 -3.11394E+03  2.50013E+03 -1.49173E+03
  3.32117E+03  1.13903E+03  1.56226E+03  1.25490E+03 -1.12319E+03  2.61867E+03  3.13412E+02  7.72064E+02
 -1.38982E+03  6.00085E+02 -1.89320E+03 -2.14505E+02  8.65713E+01  7.35397E+02 -1.02772E+03 -8.11998E+01
 -7.16541E+02  8.33948E+02 -1.81614E+03 -2.93374E+02 -9.17244E+02 -1.24188E+03 -9.10473E+02 -1.68714E+03
  9.45808E+02 -1.48037E+02  1.56085E+03  2.43025E+02  1.65328E+03  9.62970E+02 -9.62885E+01  1.75969E+03
 -1.20400E+03  3.28279E+03 -2.76895E+03  2.34428E+03 -3.13438E+03  8.64227E+01 -1.45088E+03 -1.79158E+03
 -1.52613E+03 -1.58404E+03  3.66258E+02 -1.83191E+03  3.34451E+02 -1.92773E+02  1.46948E+03 -1.69793E+02
  3.99059E+02 -4.70068E+02  6.84806E+02 -6.31540E+01 -6.13178E+02  1.73413E+02  2.65825E+02  4.95758E+02
  1.07162E+03  1.48029E+03  8.01955E+02  1.77443E+03  9.36104E+02  7.22712E+02  9.37300E+01  1.26371E+03
 -1.09749E+03  1.36676E+03 -4.60503E+02 -8.33833E+02 -1.01915E+02 -1.56091E+03 -1.41696E+03 -2.27129E+03
 -4.87828E+00  2.06925E+02  4.74822E+02  1.28614E+03  1.80148E+03 -5.02447E+02 -7.42113E+02  2.02730E+03
 -1.45854E+02  1.89860E+03 -3.81568E+02  8.00727E+02 -1.09198E+03  9.67765E+02 -3.48020E+02  3.13919E+02
 -6.03028E+02 -1.77062E+01 -5.76309E+02  1.17435E+03 -6.85121E+02 -2.53047E+02 -4.12056E+02 -9.13766E+02
 -1.30100E+03  1.65450E+03  6.25474E+02 -1.54555E+03  1.10915E+03 -1.96750E+03  8.07925E+02 -8.74798E+02
  4.61194E+02 -3.64766E+02  8.54171E+01  7.35635E+02  1.08097E+02  2.35023E+03  3.41556E+02  7.75643E+02
