 $NMID ID='MM_0lb_SNR200_13hz_g50_1.RAW', FMTDAT='(8E13.5)'
 TRAMP=1., VOLUME=1. $END
  3.09498E+05  4.69599E+02  3.38369E+05  2.49422E+05  8.40013E+04  3.37803E+05 -1.32089E+05  2.52259E+05
 -1.91022E+05  8.33772E+04 -1.12809E+05 -3.18641E+04  8.57492E+02 -5.09789E+04  5.20190E+04  8.29401E+02
  3.55026E+04  5.34135E+04 -1.63295E+04  7.55928E+04 -6.15431E+04  6.33357E+04 -8.44809E+04  3.15437E+04
 -8.15422E+04 -1.14723E+04 -5.76490E+04 -5.10415E+04 -1.58979E+04 -7.11526E+04  2.72158E+04 -4.65043E+04
  3.95626E+04  3.65753E+03  1.68173E+04  4.71633E+04 -3.53324E+04  4.78317E+04 -6.68275E+04 -1.67347E+02
 -5.35876E+04 -5.70746E+04 -7.10017E+03 -7.79779E+04  3.46167E+04 -5.57142E+04  4.75775E+04 -1.65661E+04
  4.42597E+04  1.16696E+04  3.17599E+04  2.61039E+04  1.65286E+04  3.00825E+04 -6.61984E+03  2.69535E+04
 -2.24912E+04  1.22252E+04 -1.82391E+04 -6.46057E+03  5.32456E+03 -7.87175E+03  2.31485E+04  1.23693E+04
  8.43306E+03  3.54954E+04 -3.22697E+04  3.51832E+04 -6.28792E+04  2.22928E+03 -5.78818E+04 -4.32691E+04
 -1.25293E+04 -6.37380E+04  3.95341E+04 -4.55774E+04  5.85589E+04 -1.36805E+03  3.45157E+04  3.24068E+04
 -4.83809E+03  3.55435E+04 -3.10053E+04  1.61178E+04 -3.22597E+04 -4.81000E+03 -1.73262E+04 -1.03295E+04
 -7.70602E+03 -1.37482E+04  1.09498E+03 -1.84246E+04  7.15046E+03 -2.38961E+04  1.51408E+04 -1.34651E+04
  1.12195E+04  6.38457E+03 -8.75622E+03  1.36940E+04 -2.05589E+04 -4.65338E+03 -8.88175E+03 -3.46454E+04
  2.26885E+04 -4.51665E+04  4.87370E+04 -2.11474E+04  4.62843E+04  1.96112E+04  1.54770E+04  4.40728E+04
 -1.67407E+04  3.38985E+04 -2.62292E+04  2.27919E+03 -1.09765E+04 -2.91087E+04  2.17437E+04 -3.36439E+04
  4.31567E+04 -9.90196E+03  3.78223E+04  2.47073E+04  1.89307E+04  4.69209E+04 -7.29404E+03  5.11422E+04
 -3.27822E+04  3.48799E+04 -4.31415E+04  9.91656E+03 -4.37041E+04 -1.76241E+04 -2.41720E+04 -3.89892E+04
  6.97717E+03 -3.90890E+04  3.17705E+04 -1.57519E+04  2.98375E+04  1.17636E+04  3.17391E+03  1.92716E+04
 -1.39960E+04  7.77613E+03 -9.48846E+03 -6.93233E+03  5.62802E+03 -1.07678E+04  1.76423E+04  7.64806E+03
  1.32057E+04  2.25948E+04 -4.95468E+03  2.57881E+04 -2.24856E+04  1.26580E+04 -2.87122E+04 -4.74010E+03
 -2.36882E+04 -1.72408E+04 -9.13751E+03 -2.18552E+04  3.87053E+03 -1.99475E+04  1.55470E+04 -1.88150E+04
  2.74986E+04 -1.15736E+04  3.37269E+04  2.34466E+03  2.56248E+04  2.11981E+04  4.27942E+03  3.86675E+04
 -1.67887E+04  3.16167E+04 -2.81263E+04  1.07685E+04 -2.09357E+04 -1.01266E+04 -3.82156E+03 -1.23546E+04
  1.54519E+03 -2.73597E+03 -3.64558E+03  7.11557E+03 -1.75089E+04  6.13515E+03 -1.62225E+04 -6.71914E+03
 -1.06313E+04 -2.06356E+04  4.60524E+03 -2.53899E+04  1.54830E+04 -1.80302E+04  1.91273E+04 -1.47435E+03
  1.14006E+04  1.38289E+04 -9.11221E+02  2.10169E+04 -1.48574E+04  1.07725E+04 -1.97685E+04 -3.71551E+03
 -1.54695E+04 -1.82342E+04 -2.11624E+03 -2.41624E+04  1.08082E+04 -1.88208E+04  2.03397E+04 -1.07168E+04
  1.92640E+04 -6.39650E+02  1.36679E+04  4.68802E+03  7.38692E+03  4.11443E+02  1.19496E+04 -1.32430E+03
  1.78173E+04  2.70294E+03  2.12393E+04  1.58410E+04  1.43974E+04  3.17108E+04 -3.59357E+03  3.77603E+04
 -2.07025E+04  2.97100E+04 -3.50230E+04  1.55011E+04 -3.53500E+04 -2.48430E+03 -2.94715E+04 -2.10587E+04
 -1.15706E+04 -2.80238E+04  9.50171E+03 -2.63214E+04  2.16232E+04 -1.20255E+04  2.12387E+04  4.73823E+03
  7.76537E+03  1.49390E+04 -1.02887E+04  1.19660E+04 -1.64577E+04  1.84197E+03 -1.29299E+04 -1.11308E+04
 -2.10371E+02 -1.71885E+04  8.13202E+03 -1.17948E+04  1.03426E+04 -1.53828E+03  4.24338E+03  7.75069E+03
 -7.40981E+03  3.73853E+03 -6.85179E+03 -4.87114E+03 -1.09036E+03 -1.44770E+04  9.98587E+03 -1.46761E+04
  1.82964E+04 -6.60487E+03  1.84308E+04  2.48859E+03  1.71533E+04  1.42577E+04  7.20429E+03  2.22078E+04
 -4.34833E+03  2.42945E+04 -1.55108E+04  1.47579E+04 -1.67973E+04  3.56484E+03 -1.20486E+04 -4.49689E+03
 -4.75474E+03 -6.31553E+03  1.85459E+02  1.43165E+03 -1.58939E+03  2.74478E+03 -5.94386E+03  5.13186E+03
 -1.19253E+04  3.67733E+02 -1.16694E+04 -9.71548E+03 -5.37583E+03 -1.56649E+04  5.18669E+03 -1.21535E+04
  1.18638E+04 -5.08728E+03  8.07846E+03  2.52958E+03  1.22905E+03  3.85395E+03 -5.94292E+03  3.07674E+02
 -5.64287E+03 -7.22503E+03 -5.20249E+02 -1.15418E+04  6.66339E+03 -1.16146E+04  1.40379E+04 -6.61640E+03
  1.75786E+04  9.84992E+02  1.37950E+04  1.04013E+04  2.23620E+03  1.46226E+04 -7.95149E+03  1.22807E+04
 -1.00523E+04  3.70612E+03 -5.71491E+03 -2.53740E+03  1.97476E+03 -2.45579E+03  7.11394E+03 -1.37047E+03
  6.74653E+03  5.15048E+03  1.16956E+03  9.78149E+03 -6.41185E+03  9.87971E+03 -1.11485E+04  1.98142E+03
 -7.76407E+03 -5.77829E+03  8.02862E+02 -8.93539E+03  7.03396E+03 -5.70632E+03  7.01132E+03  1.65632E+03
  1.00913E+03  6.79075E+03 -5.70768E+03  8.42860E+03 -9.08541E+03  3.92114E+03 -1.05851E+04 -3.21117E+03
 -6.33270E+03 -1.09692E+04  2.16398E+03 -1.33484E+04  1.21677E+04 -7.53065E+03  1.10432E+04  1.81508E+03
  9.25050E+03  9.14621E+03 -1.46380E+03  1.12058E+04 -8.03706E+03  6.42925E+03 -9.59650E+03 -1.00263E+03
 -7.96222E+03 -6.36911E+03 -1.77562E+03 -6.85365E+03  3.67879E+03 -6.50788E+03  4.83967E+03 -2.71340E+03
  4.35674E+03  1.15307E+03 -5.84448E+02  2.75806E+03 -1.22041E+03 -1.54933E+03  2.27552E+03 -3.34542E+03
  7.59238E+03 -1.58902E+03  1.09189E+04  1.67314E+03  1.02491E+04  6.84839E+03  7.26970E+03  1.36043E+04
 -3.66575E+03  1.56381E+04 -1.33003E+04  1.29410E+04 -1.64451E+04  3.35394E+03 -1.34824E+04 -5.47565E+03
 -7.38060E+03 -1.13616E+04  8.48716E+01 -9.06487E+03  3.85745E+03 -5.39004E+03  2.93231E+03 -4.40804E+03
  2.19157E+03 -4.92507E+02  2.88628E+03 -2.49986E+03  4.00477E+03 -2.64965E+03  6.08034E+03  1.28973E+02
  7.38921E+03  2.53737E+03  4.72750E+03  4.62754E+03 -3.02639E+03  6.13630E+03 -7.29050E+03  6.18700E+03
 -9.70448E+03 -9.41420E+02 -4.94751E+03 -6.70082E+03 -7.26114E+02 -1.09800E+04  5.81251E+03 -1.07090E+04
  1.10100E+04 -5.54954E+03  1.25831E+04  2.58901E+03  1.01963E+04  7.79488E+03  2.46876E+03  1.09363E+04
 -4.70847E+03  1.08195E+04 -7.10862E+03  1.86500E+03 -5.41580E+03 -1.20298E+03  2.92385E+02 -7.78045E+02
 -1.11720E+03  6.35243E+02 -2.47111E+03  1.65069E+03 -2.92052E+03  2.44590E+03 -5.74944E+03 -1.45944E+03
 -3.90814E+03 -6.83100E+03  5.66458E+02 -9.05643E+03  4.85859E+03 -8.40860E+03  8.42782E+03 -3.73001E+03
  7.47289E+03  3.30553E+03  4.27156E+03  7.48084E+03 -1.39692E+03  8.30198E+03 -5.72824E+03  5.26506E+03
 -8.84703E+03  7.91142E+02 -7.38519E+03 -6.17105E+03 -7.55549E+02 -6.22554E+03  4.27930E+03 -5.73933E+03
  5.70003E+03 -2.33706E+03  4.00799E+03  2.09656E+03  4.02173E+01  3.65847E+03  1.15040E+03  2.86476E+03
  2.04583E+03 -4.15915E+02  3.70635E+03  1.27603E+03  2.15427E+03  3.42309E+03  2.14090E+03  4.60237E+03
 -2.03196E+03  6.85410E+03 -6.33157E+03  7.32968E+03 -8.02886E+03  2.85960E+03 -9.74112E+03 -3.59063E+03
 -4.48284E+03 -7.90360E+03  1.59173E+03 -9.05227E+03  5.50194E+03 -6.32725E+03  7.89138E+03 -2.08602E+03
  5.27694E+03  3.42430E+03  2.27704E+03  6.27256E+03 -1.78690E+03  2.81569E+03 -2.69934E+03 -1.04447E+03
 -2.15630E+03 -4.03882E+03  2.60073E+03 -4.62112E+03  3.15969E+03 -7.28364E+02  2.91627E+03  1.57222E+03
  1.60454E+03  9.35852E+01  8.47598E+02  2.54752E+02  1.01708E+03  1.18077E+03  1.53989E+03 -2.79453E+02
  1.80819E+03  9.98248E+02  3.59560E+03  2.19606E+03  2.46550E+03  4.33042E+03 -9.95926E+02  7.29408E+03
 -3.89808E+03  3.37259E+03 -5.57260E+03  2.74567E+02 -3.65103E+03 -1.88220E+03 -1.82615E+03 -1.19735E+03
  9.96875E+02 -3.07748E+03  1.78857E+03 -1.73126E+03  7.29051E+02  1.40828E+03  2.98316E+02  3.22155E+03
 -3.58195E+03  2.31991E+03 -2.61417E+03 -1.68826E+03 -2.20111E+03 -4.78823E+03  7.89658E+02 -5.89876E+03
  8.05118E+02 -1.58022E+03  3.25123E+03 -1.48101E+02  3.40623E+03  1.66879E+03  1.21266E+03  2.71467E+03
 -9.32049E+02 -1.71393E+02 -2.82372E+03 -1.66814E+03  1.38785E+03 -2.17790E+03  4.02155E+03 -3.28089E+03
  5.34753E+03 -1.16398E+02  5.60423E+03  3.60378E+03  1.53946E+03  4.22244E+03 -2.16460E+03  4.98573E+03
 -4.45641E+03  2.85200E+03 -4.93669E+03 -2.25195E+03 -2.08165E+03 -4.06134E+03 -1.24380E+02 -3.39805E+03
  3.57407E+03 -3.77885E+03  2.60287E+03  1.60483E+03  4.99852E+02  2.76080E+03 -1.58510E+03  3.19877E+03
 -1.79529E+03  3.64666E+03 -6.89427E+02  1.62877E+03  1.17699E+03  4.71537E+01 -1.60300E+03  1.73536E+03
 -7.33856E+02  1.37534E+03 -3.47811E+03  1.48189E+03 -5.56576E+03 -7.45137E+02 -6.37628E+03 -4.08648E+03
 -4.66030E+03 -6.96239E+03  9.46354E+02 -7.57875E+03  4.42357E+03 -7.52408E+03  6.36606E+03 -2.10921E+03
  7.03080E+03  9.18757E+02  3.91205E+03  5.55925E+03 -1.82351E+03  6.32675E+03 -2.09005E+03  3.49865E+03
 -2.99371E+03  1.62984E+03 -1.60159E+03 -4.79963E+02 -9.33699E+02  2.16608E+02  5.51874E+02 -1.09635E+03
  3.15367E+02 -2.36027E+02 -7.08510E+02  1.22262E+00  3.65573E+02 -4.32337E+02 -5.69440E+02 -2.31541E+03
  1.99660E+03 -1.49045E+03  2.99808E+03 -1.99820E+02  3.46188E+03  1.69512E+03  9.91275E+02  5.29081E+03
 -2.01216E+03  5.85903E+03 -5.53884E+03  3.41742E+03 -6.22991E+03 -1.75527E+03 -4.24222E+03 -3.60821E+03
 -7.69944E+02 -4.68878E+03  1.75319E+03 -4.36972E+03  2.20793E+03 -2.09485E+03  2.90604E+03  1.14217E+03
  2.72194E+03  7.89974E+02  2.84295E+01  1.38119E+03 -9.69923E+02 -7.94084E+02  9.47088E+02  8.02117E+02
  1.33869E+03 -1.96042E+02  2.20497E+03 -1.24881E+02  5.38534E+02  1.74008E+03  2.13060E+03  1.39373E+03
 -1.96291E+03  1.79271E+03 -2.26186E+03 -3.88647E+02 -2.64487E+03 -1.78794E+03 -1.30936E+03 -4.84546E+03
  2.01772E+03 -3.53347E+03  2.07844E+03 -1.66846E+03  2.81645E+03  1.26544E+03  3.32007E+03  1.49458E+03
  1.81651E+03  1.72830E+03 -2.33304E+03  2.95898E+03 -2.15775E+03  1.90333E+03 -2.52709E+03 -3.25373E+02
 -9.32564E+02 -1.01711E+02 -1.38220E+03 -2.99517E+02 -2.38036E+03  7.68335E+02 -1.83266E+03  1.58629E+02
 -2.21056E+03 -1.66178E+03 -1.45014E+03 -3.34279E+03  1.76478E+03 -4.17825E+03  3.80673E+03 -2.43292E+03
  3.04313E+03  4.43677E+02  8.76433E+02  2.57944E+03  8.66629E+02  3.95236E+03 -2.42813E+03  2.38793E+03
