 $NMID ID='MM_0lb_SNR200_7hz_g50_72.RAW', FMTDAT='(8E13.5)'
 TRAMP=1., VOLUME=1. $END
  3.10209E+05 -6.46624E+02  3.37691E+05  2.49698E+05  8.60943E+04  3.38770E+05 -1.33313E+05  2.53548E+05
 -1.89829E+05  8.31929E+04 -1.12044E+05 -3.05606E+04 -1.04391E+01 -5.08587E+04  5.41014E+04 -3.00792E+02
  3.62992E+04  5.28556E+04 -1.57209E+04  7.52259E+04 -5.88199E+04  6.42353E+04 -8.67262E+04  3.19453E+04
 -8.39505E+04 -1.32791E+04 -5.68171E+04 -5.27089E+04 -1.50095E+04 -7.08605E+04  3.06356E+04 -4.52371E+04
  4.06235E+04  2.92790E+03  1.55248E+04  5.06761E+04 -3.39233E+04  4.90330E+04 -7.00513E+04 -1.86998E+02
 -5.56257E+04 -5.75231E+04 -8.16283E+03 -8.08535E+04  3.34091E+04 -5.87822E+04  5.15745E+04 -1.99120E+04
  4.54831E+04  1.07735E+04  3.34167E+04  2.61557E+04  1.55571E+04  3.25877E+04 -4.00094E+03  2.98857E+04
 -2.13770E+04  1.05682E+04 -1.78964E+04 -5.31587E+03  8.23478E+03 -7.68347E+03  2.52237E+04  1.38650E+04
  7.83244E+03  3.89917E+04 -3.53804E+04  3.66495E+04 -6.68592E+04  3.22150E+03 -5.86930E+04 -4.63480E+04
 -1.20957E+04 -6.55042E+04  4.21155E+04 -4.96888E+04  6.23793E+04 -1.42582E+03  3.80270E+04  3.64089E+04
 -7.70628E+03  4.12949E+04 -3.20875E+04  2.13900E+04 -3.52193E+04 -2.61007E+03 -2.06159E+04 -1.29986E+04
 -1.05963E+04 -1.66758E+04 -4.47227E+02 -2.16149E+04  9.73385E+03 -2.47989E+04  1.74727E+04 -1.15154E+04
  8.58982E+03  6.44527E+03 -1.16270E+04  1.39103E+04 -2.47891E+04 -6.80440E+03 -8.95021E+03 -3.90827E+04
  2.49482E+04 -4.61490E+04  5.36323E+04 -2.11637E+04  5.02810E+04  2.11632E+04  1.80964E+04  4.76170E+04
 -1.73543E+04  3.60077E+04 -2.76075E+04  2.25255E+03 -1.26065E+04 -2.98281E+04  2.05932E+04 -3.85469E+04
  4.58467E+04 -1.47613E+04  4.32127E+04  2.49449E+04  2.38294E+04  5.26677E+04 -6.95525E+03  6.03505E+04
 -3.66014E+04  4.20439E+04 -5.06015E+04  1.16693E+04 -4.98826E+04 -1.97237E+04 -2.69056E+04 -4.53966E+04
  8.17367E+03 -4.26717E+04  3.55864E+04 -1.82099E+04  3.35444E+04  1.17921E+04  5.48104E+03  2.10153E+04
 -1.47062E+04  8.41656E+03 -1.19870E+04 -6.59708E+03  4.76996E+03 -1.09605E+04  1.94986E+04  5.46314E+03
  1.59349E+04  2.23660E+04 -5.61940E+03  2.90704E+04 -2.65352E+04  1.64730E+04 -3.17662E+04 -2.85906E+03
 -2.57961E+04 -1.88985E+04 -1.31697E+04 -2.63409E+04  5.49403E+03 -2.71449E+04  2.25946E+04 -2.46361E+04
  3.42782E+04 -1.39268E+04  3.87329E+04  6.66107E+03  2.80983E+04  2.87911E+04  4.99391E+03  4.09026E+04
 -2.01100E+04  3.62606E+04 -3.18067E+04  1.21891E+04 -2.27018E+04 -9.83280E+03 -5.14298E+03 -1.26903E+04
  2.18827E+02 -2.14139E+03 -9.78966E+03  8.15228E+03 -2.15854E+04  4.94466E+03 -2.37263E+04 -9.74943E+03
 -1.40918E+04 -2.33737E+04  6.91599E+03 -3.03367E+04  1.92682E+04 -1.97501E+04  2.48420E+04 -1.78482E+03
  1.61018E+04  1.61424E+04  2.24990E+02  2.58602E+04 -1.80272E+04  1.28695E+04 -2.55641E+04 -3.57477E+03
 -1.76907E+04 -2.14152E+04 -2.48375E+03 -3.07968E+04  1.49702E+04 -2.63111E+04  2.54141E+04 -1.40307E+04
  2.43853E+04 -2.16533E+03  1.71116E+04  5.67433E+03  1.00182E+04  2.40759E+03  1.30023E+04 -2.95014E+03
  2.39583E+04  4.79056E+03  2.77405E+04  2.03385E+04  1.90388E+04  4.24091E+04 -2.36968E+03  5.06141E+04
 -2.91337E+04  4.22784E+04 -4.52153E+04  2.05044E+04 -5.01203E+04 -2.89323E+03 -4.02084E+04 -2.92880E+04
 -1.55030E+04 -4.11175E+04  1.30351E+04 -3.47876E+04  3.04522E+04 -1.48343E+04  2.74017E+04  9.58626E+03
  8.12515E+03  1.92162E+04 -1.17125E+04  1.81097E+04 -2.35663E+04  3.26752E+03 -1.58615E+04 -1.41506E+04
  6.34677E+02 -2.10511E+04  1.01933E+04 -1.57497E+04  1.52112E+04 -1.12769E+03  2.08357E+03  1.05625E+04
 -9.81357E+03  3.90928E+03 -9.42981E+03 -7.90458E+03 -2.35146E+03 -2.08348E+04  1.25971E+04 -2.34298E+04
  2.54087E+04 -1.21849E+04  2.94618E+04  2.18109E+03  2.61489E+04  2.02740E+04  1.20410E+04  3.18228E+04
 -7.58399E+03  3.55498E+04 -2.34549E+04  2.20980E+04 -2.46091E+04  4.53499E+03 -1.75562E+04 -6.98744E+03
 -7.50422E+03 -8.72993E+03 -6.01955E+02 -1.91909E+03 -2.63502E+03  6.14826E+03 -9.02361E+03  5.34820E+03
 -1.71967E+04 -6.49614E+02 -1.78288E+04 -1.21336E+04 -6.68731E+03 -1.88978E+04  6.73050E+03 -1.75501E+04
  1.35044E+04 -6.47396E+03  1.07415E+04  5.67805E+03 -1.34301E+03  7.71322E+03 -8.13366E+03 -1.24190E+03
 -8.43165E+03 -1.16853E+04 -7.34392E+02 -1.81995E+04  1.15851E+04 -1.96912E+04  2.24856E+04 -1.04750E+04
  2.75380E+04  2.81319E+03  1.98277E+04  1.62148E+04  4.84922E+03  2.08531E+04 -9.14522E+03  1.62721E+04
 -1.45687E+04  3.94059E+03 -9.12531E+03 -6.21369E+03  2.77893E+03 -4.69993E+03  1.10563E+04 -8.71786E+02
  7.72657E+03  8.64600E+03  1.33218E+03  1.36169E+04 -9.43405E+03  1.22260E+04 -1.91260E+04  2.98573E+03
 -1.08183E+04 -1.01517E+04 -1.02095E+03 -1.44338E+04  1.13468E+04 -9.33341E+03  9.56169E+03  4.40154E+03
  2.76633E+03  1.03521E+04 -1.04595E+04  1.41206E+04 -1.77085E+04  6.90061E+03 -1.71528E+04 -5.04755E+03
 -9.74184E+03 -2.04600E+04  3.55614E+03 -2.07501E+04  1.81955E+04 -1.43282E+04  2.12926E+04  3.12661E+03
  9.24155E+03  1.65324E+04 -3.23928E+02  1.95160E+04 -1.35903E+04  8.64407E+03 -1.39964E+04 -2.64908E+03
 -1.24855E+04 -1.32549E+04 -1.34854E+03 -1.45196E+04  6.79478E+03 -9.96029E+03  9.18627E+03 -4.47405E+03
  5.34015E+03  2.13546E+03 -1.20018E+03  1.50100E+03 -1.42666E+03 -4.63016E+03  4.58870E+03 -1.02492E+04
  1.55957E+04 -7.25940E+03  1.88416E+04  2.27199E+03  1.88759E+04  1.49685E+04  1.40639E+04  2.53088E+04
 -5.74725E+03  2.99297E+04 -2.26925E+04  2.18974E+04 -3.10181E+04  6.44674E+03 -2.59625E+04 -1.15296E+04
 -1.21392E+04 -2.00321E+04 -5.68972E+02 -1.75124E+04  5.22951E+03 -1.09074E+04  7.73151E+03 -7.49339E+03
  4.11880E+03 -5.09514E+03  5.04730E+03 -4.42025E+03  5.60650E+03 -4.24796E+03  1.15949E+04 -1.04423E+03
  1.33653E+04  2.40084E+03  7.60144E+03  1.18038E+04 -2.49274E+03  1.70519E+04 -1.16774E+04  1.14978E+04
 -1.97163E+04 -1.05546E+03 -1.32511E+04 -1.30842E+04 -5.38761E+02 -1.85924E+04  9.16815E+03 -1.93078E+04
  1.90948E+04 -1.00072E+04  2.51183E+04  3.72050E+03  1.60975E+04  1.79352E+04  2.93739E+03  2.45262E+04
 -8.46946E+03  1.61894E+04 -1.39101E+04  6.48317E+03 -9.57291E+03 -2.37509E+03 -2.32710E+03 -1.77610E+03
 -2.83939E+03  4.82462E+02 -3.80023E+03  1.51147E+03 -7.54489E+03  3.78881E+03 -1.01241E+04 -2.21694E+03
 -1.14819E+04 -1.29891E+04  2.85183E+02 -1.89120E+04  1.11208E+04 -1.78923E+04  2.01726E+04 -6.94487E+03
  1.77318E+04  9.83096E+03  9.51627E+03  1.66371E+04 -3.37666E+03  1.80086E+04 -1.47676E+04  1.17576E+04
 -1.73633E+04 -2.12728E+02 -1.29182E+04 -1.06088E+04 -5.42817E+02 -1.55670E+04  6.35056E+03 -1.22664E+04
  1.36234E+04 -3.28525E+03  7.80325E+03  4.65785E+03  4.43005E+03  4.27104E+03  1.63246E+03  1.11829E+03
  2.61666E+03  1.50522E+03  4.82066E+03  3.21229E+03  6.65218E+03  5.96357E+03  5.08152E+03  1.04708E+04
 -3.29627E+03  1.49091E+04 -1.38465E+04  1.40806E+04 -2.01734E+04  5.07468E+03 -2.02082E+04 -9.68098E+03
 -9.59842E+03 -2.00634E+04  4.77632E+03 -2.16574E+04  1.16548E+04 -1.29493E+04  1.67655E+04 -7.25438E+03
  1.26894E+04  7.42427E+03  1.49499E+03  1.15565E+04 -6.10489E+03  8.65847E+03 -8.30391E+03 -2.46714E+03
 -3.10127E+03 -8.27641E+03  4.50688E+03 -7.87581E+03  1.07720E+04 -3.35980E+03  7.23315E+03  1.38890E+03
  4.50905E+03  5.97835E+03  1.44767E+03  5.84171E+03 -1.48339E+03  2.63191E+03  3.08353E+02 -3.24286E+03
  3.05389E+03  4.33248E+02  7.46905E+03  4.08289E+03  5.93552E+03  1.13063E+04 -2.36532E+03  1.47369E+04
 -8.36673E+03  1.09107E+04 -1.28783E+04  1.61735E+03 -1.08982E+04 -4.84695E+03 -6.20154E+03 -8.66806E+03
  4.78764E+02 -6.35576E+03  5.22426E+03 -9.72009E+02  4.41987E+03  3.99969E+03 -2.07557E+03  7.07061E+03
 -9.02099E+03  5.75649E+03 -8.91472E+03 -5.74474E+03 -6.00429E+03 -1.32700E+04  2.15992E+03 -1.32557E+04
  7.17914E+03 -7.68434E+03  8.80952E+03 -1.10408E+03  4.59906E+03  3.43064E+03  1.80809E+03  5.77165E+03
 -4.93535E+03  2.16925E+03 -4.72216E+03 -4.67751E+03  2.78493E+03 -8.03490E+03  1.13450E+04 -8.11119E+03
  1.17222E+04  1.34691E+03  1.19256E+04  8.55921E+03  2.37481E+03  1.43957E+04 -3.81461E+03  1.30425E+04
 -1.21323E+04  4.73817E+03 -1.20054E+04 -1.22121E+03 -6.96758E+03 -8.84352E+03 -4.26929E+02 -9.41066E+03
  7.65297E+03 -4.07161E+03  7.87923E+03  4.35827E+03  2.22219E+03  7.39617E+03 -3.64618E+03  4.97780E+03
 -3.10461E+03  4.49029E+03 -4.60913E+03  1.83455E+03 -4.16326E+02  2.38780E+03 -6.73737E+02  3.70787E+03
 -4.87112E+03  5.66870E+03 -8.38589E+03  5.45147E+03 -1.29523E+04  9.67515E+02 -1.59178E+04 -8.24063E+03
 -7.31711E+03 -1.81033E+04  3.63163E+03 -2.05192E+04  1.36410E+04 -1.71079E+04  2.05204E+04 -6.20046E+03
  1.86252E+04  6.14150E+03  1.07452E+04  1.43733E+04  2.96241E+03  1.51260E+04 -6.45663E+03  1.16778E+04
 -7.26567E+03  2.97129E+03 -4.29540E+03 -1.62971E+03 -9.98044E+02 -9.41574E+02 -4.40621E+02 -1.07229E+03
 -3.18594E+03  9.92594E+02 -2.26400E+03  1.27131E+03 -8.33562E+02 -2.90613E+03 -2.11185E+02 -5.61033E+03
  8.05349E+03 -3.26142E+03  9.13389E+03  7.20007E+02  8.96155E+03  8.63119E+03  1.18365E+03  1.38519E+04
 -6.81779E+03  1.72023E+04 -1.58257E+04  1.11917E+04 -1.97865E+04 -6.72030E+02 -1.40486E+04 -1.21222E+04
 -7.38797E+03 -1.50333E+04  3.72596E+03 -1.40102E+04  1.12408E+04 -7.45117E+03  8.32633E+03 -3.92192E+01
  3.13210E+03  6.10580E+03  7.73485E+02  4.82973E+03 -3.93257E+03 -7.51236E+02  4.60753E+02 -3.21908E+03
  5.82560E+03 -2.62181E+03  7.95261E+03  1.26679E+03  4.32522E+03  5.24317E+03  4.50674E+00  8.47224E+03
 -7.33107E+03  6.63677E+03 -1.03030E+04  4.63255E+02 -9.03342E+03 -8.22475E+03 -1.35572E+03 -1.40432E+04
  6.42355E+03 -1.04389E+04  1.21035E+04 -3.04308E+03  1.37381E+04  3.83387E+03  6.97272E+03  9.49867E+03
  5.38031E+02  1.05457E+04 -2.63599E+03  8.94883E+03 -5.52070E+03  4.41232E+03 -5.21809E+03  2.91508E+02
 -2.61636E+03  1.62955E+03 -4.22575E+03  2.35817E+03 -5.79443E+03  6.59764E+02 -8.33294E+03 -1.13918E+03
 -8.43480E+03 -4.18037E+03 -2.43230E+03 -1.08103E+04  5.02716E+03 -1.14072E+04  1.02978E+04 -6.77642E+03
  1.20998E+04  2.39613E+03  7.24117E+03  7.53296E+03 -1.80584E+03  1.01292E+04 -8.76838E+03  6.84424E+03
