 $NMID ID='MM_0lb_SNR200_12hz_g60_40.RAW', FMTDAT='(8E13.5)'
 TRAMP=1., VOLUME=1. $END
  3.10384E+05  1.41572E+03  3.37026E+05  2.51021E+05  8.38773E+04  3.39099E+05 -1.33343E+05  2.50156E+05
 -1.90946E+05  8.49645E+04 -1.11144E+05 -3.30294E+04 -8.17978E+02 -5.07704E+04  5.42877E+04  1.04022E+03
  3.49274E+04  5.20733E+04 -1.72815E+04  7.60582E+04 -6.00506E+04  6.36800E+04 -8.49578E+04  3.18900E+04
 -8.32868E+04 -1.28868E+04 -5.69493E+04 -5.27518E+04 -1.57409E+04 -7.14627E+04  2.69022E+04 -4.48311E+04
  4.14482E+04  3.73221E+03  1.61529E+04  4.70859E+04 -3.43434E+04  4.86555E+04 -6.79997E+04  1.02827E+02
 -5.47506E+04 -5.78857E+04 -6.52102E+03 -7.82850E+04  3.46715E+04 -5.71560E+04  5.00187E+04 -1.84340E+04
  4.46765E+04  1.07806E+04  3.31612E+04  2.63343E+04  1.52059E+04  3.15263E+04 -4.59125E+03  2.70154E+04
 -2.12867E+04  1.29739E+04 -1.88872E+04 -4.81068E+03  6.86877E+03 -8.38364E+03  2.33825E+04  1.31573E+04
  5.91125E+03  3.74435E+04 -3.41466E+04  3.52314E+04 -6.46948E+04  3.80688E+03 -5.63244E+04 -4.28962E+04
 -1.36940E+04 -6.50138E+04  3.98241E+04 -4.64936E+04  6.07047E+04 -1.91004E+03  3.42311E+04  3.39124E+04
 -5.87996E+03  3.79555E+04 -3.18912E+04  1.76649E+04 -3.23366E+04 -4.46033E+03 -1.90962E+04 -1.26713E+04
 -9.74242E+03 -1.45429E+04 -1.38648E+03 -1.84647E+04  8.70288E+03 -2.32837E+04  1.60865E+04 -1.20396E+04
  1.06919E+04  5.14112E+03 -9.64677E+03  1.37795E+04 -2.30809E+04 -5.05363E+03 -9.77778E+03 -3.71041E+04
  2.42312E+04 -4.67661E+04  5.14257E+04 -2.07203E+04  4.76578E+04  2.13276E+04  1.67531E+04  4.57600E+04
 -1.58207E+04  3.42483E+04 -2.78389E+04  2.96265E+03 -1.11202E+04 -2.90482E+04  2.29816E+04 -3.66627E+04
  4.45188E+04 -9.95575E+03  3.86929E+04  2.45345E+04  2.10478E+04  5.14997E+04 -8.36369E+03  5.45728E+04
 -3.40708E+04  3.69427E+04 -4.70524E+04  9.79756E+03 -4.57773E+04 -1.77318E+04 -2.60652E+04 -4.04150E+04
  6.96212E+03 -4.05253E+04  3.26140E+04 -1.63206E+04  3.12421E+04  1.10287E+04  4.85983E+03  2.08511E+04
 -1.37460E+04  9.51811E+03 -9.84801E+03 -7.13155E+03  6.21640E+03 -1.07669E+04  1.90120E+04  6.56638E+03
  1.45049E+04  2.17991E+04 -5.45025E+03  2.53805E+04 -2.26487E+04  1.32072E+04 -2.96513E+04 -4.40913E+03
 -2.27234E+04 -1.73606E+04 -9.08322E+03 -2.37002E+04  5.24704E+03 -2.27050E+04  1.84190E+04 -2.06607E+04
  2.99859E+04 -1.45138E+04  3.54909E+04  2.96572E+03  2.55127E+04  2.52708E+04  3.39856E+03  3.92331E+04
 -1.90563E+04  3.19570E+04 -3.05697E+04  1.18802E+04 -2.30330E+04 -1.08394E+04 -4.44528E+03 -1.32920E+04
  1.08249E+03  2.77968E-01 -5.90555E+03  9.17225E+03 -1.87535E+04  5.06931E+03 -1.94767E+04 -8.50022E+03
 -1.14509E+04 -2.11031E+04  5.76518E+03 -2.58593E+04  1.69203E+04 -1.86680E+04  2.11365E+04 -2.53658E+03
  1.43658E+04  1.55274E+04 -1.72972E+03  2.02315E+04 -1.60338E+04  1.16406E+04 -2.31224E+04 -3.87813E+03
 -1.58207E+04 -1.91357E+04 -2.21037E+03 -2.68375E+04  1.18841E+04 -2.18902E+04  2.26642E+04 -1.11243E+04
  1.97933E+04 -2.03903E+02  1.45693E+04  4.01733E+03  7.06963E+03  1.40873E+03  1.14338E+04 -2.11025E+03
  2.01619E+04  2.79374E+03  2.20622E+04  1.59931E+04  1.31387E+04  3.58744E+04 -3.27513E+03  4.12188E+04
 -2.25102E+04  3.42541E+04 -3.78495E+04  1.68974E+04 -3.96332E+04 -4.51798E+03 -3.33933E+04 -2.38748E+04
 -1.40111E+04 -3.37607E+04  1.19668E+04 -2.92891E+04  2.51182E+04 -1.34123E+04  2.25218E+04  7.05615E+03
  7.83141E+03  1.77015E+04 -8.35139E+03  1.22115E+04 -1.86539E+04  1.96792E+03 -1.41887E+04 -1.15699E+04
  6.54211E+02 -1.72944E+04  9.83216E+03 -1.16511E+04  1.18979E+04  3.26072E+02  3.02827E+03  8.06671E+03
 -8.55842E+03  4.26435E+03 -8.71633E+03 -6.26820E+03 -1.07867E+03 -1.62975E+04  1.03205E+04 -1.73960E+04
  2.07846E+04 -9.46298E+03  2.35561E+04  3.80177E+03  2.04330E+04  1.67803E+04  8.86158E+03  2.50652E+04
 -4.29915E+03  2.77884E+04 -1.88679E+04  1.62141E+04 -1.94565E+04  2.99798E+03 -1.52053E+04 -4.23834E+03
 -6.98940E+03 -6.86419E+03  1.06399E+03  4.34750E+02 -2.56078E+03  4.01782E+03 -6.33214E+03  5.77451E+03
 -1.25002E+04 -7.03382E+02 -1.24539E+04 -1.14109E+04 -4.54154E+03 -1.73181E+04  5.95810E+03 -1.43642E+04
  1.02527E+04 -4.46707E+03  8.07447E+03  3.94585E+03 -8.69411E+02  6.02432E+03 -6.80161E+03  1.27762E+03
 -6.79729E+03 -9.03218E+03 -2.11029E+03 -1.43835E+04  6.90647E+03 -1.39687E+04  1.66470E+04 -8.74080E+03
  2.03744E+04  1.53172E+03  1.33871E+04  1.39859E+04  2.93879E+03  1.82640E+04 -8.93435E+03  1.38729E+04
 -1.05621E+04  4.37923E+03 -5.76746E+03 -4.09083E+03  2.16950E+03 -4.14767E+03  7.79390E+03 -1.32092E+03
  6.24801E+03  6.11889E+03  1.37848E+03  1.06885E+04 -8.12874E+03  1.05284E+04 -1.30514E+04  3.31070E+03
 -8.27757E+03 -6.25961E+03  5.66240E+01 -1.14627E+04  7.70729E+03 -7.15872E+03  7.14206E+03  3.01723E+03
  1.36323E+03  7.38241E+03 -6.96292E+03  9.56449E+03 -1.16134E+04  4.83842E+03 -1.29374E+04 -3.37321E+03
 -6.89001E+03 -1.22645E+04  3.26099E+03 -1.51472E+04  1.26282E+04 -8.99210E+03  1.39864E+04  1.09505E+03
  8.52480E+03  1.09933E+04 -1.41438E+03  1.30181E+04 -8.66623E+03  7.96300E+03 -1.09176E+04 -2.96200E+02
 -8.50105E+03 -1.00415E+04 -1.29529E+03 -9.92388E+03  4.45339E+03 -8.42832E+03  5.95218E+03 -2.74810E+03
  5.73992E+03  8.74272E+02 -2.43159E+03  1.01426E+03 -7.39168E+02 -2.75856E+03  2.91863E+03 -6.26840E+03
  6.82697E+03 -2.61643E+03  1.25746E+04  9.56856E+02  1.37584E+04  7.63885E+03  7.93661E+03  1.51243E+04
 -3.74051E+03  1.91108E+04 -1.71551E+04  1.45540E+04 -2.08308E+04  2.68585E+03 -1.54070E+04 -6.94424E+03
 -8.67998E+03 -1.23651E+04 -1.02183E+03 -1.11539E+04  5.29905E+03 -5.49176E+03  2.96565E+03 -4.34463E+03
  2.47606E+03 -1.74637E+03  3.18225E+03 -3.32523E+03  4.90140E+03 -2.23448E+03  6.03504E+03  4.48403E+02
  8.16033E+03  5.76600E+02  4.51133E+03  7.06159E+03 -2.58288E+03  7.80665E+03 -9.17818E+03  6.70341E+03
 -1.20524E+04 -1.36376E+03 -8.16073E+03 -8.23925E+03  1.41377E+02 -1.12218E+04  7.85379E+03 -1.24712E+04
  1.29853E+04 -6.83781E+03  1.60348E+04  1.43076E+03  9.84302E+03  1.16396E+04  1.70664E+03  1.52212E+04
 -5.67349E+03  9.87766E+03 -6.69521E+03  4.30542E+03 -4.58373E+03 -3.78897E+02 -3.20318E+03 -3.52715E+03
 -7.28969E+02  2.54936E+02 -1.43077E+03  3.36726E+03 -5.04439E+03  2.04941E+03 -7.53186E+03 -1.02123E+03
 -5.68108E+03 -7.87627E+03  4.77423E+02 -1.19751E+04  6.67810E+03 -1.01530E+04  1.01499E+04 -3.58185E+03
  1.05626E+04  5.51275E+03  4.58520E+03  1.00116E+04 -3.04890E+03  9.81594E+03 -8.16336E+03  6.82706E+03
 -1.03845E+04 -5.62603E+02 -8.09239E+03 -5.51553E+03 -1.11672E+02 -9.59722E+03  4.38748E+03 -7.69869E+03
  7.34149E+03 -3.94808E+03  4.39953E+03  1.42458E+03  1.61747E+03  2.25921E+03  2.72631E+02  1.88649E+03
  5.74295E+02  3.90348E+02  2.42843E+03  1.20307E+03  3.86048E+03  3.60685E+03  1.93804E+03  5.52646E+03
 -2.06830E+03  9.35039E+03 -6.31687E+03  1.01885E+04 -1.07057E+04  3.05269E+03 -1.19204E+04 -4.65610E+03
 -4.92017E+03 -1.12226E+04  1.48529E+03 -1.17409E+04  6.36610E+03 -7.05664E+03  8.85262E+03 -1.60866E+03
  7.56274E+03  4.58777E+03  1.57755E+03  5.87741E+03 -4.07134E+03  4.36293E+03 -4.29036E+03 -1.11336E+03
 -1.66613E+03 -3.80402E+03  3.48821E+03 -4.32935E+03  3.54661E+03 -3.41763E+03  2.95195E+03  1.88481E+03
  1.17158E+03  1.02313E+03  1.63505E+03  1.90507E+03 -1.07365E+03  2.06868E+03  1.50120E+03 -1.39812E+03
  1.45884E+03 -1.13598E+03  3.80985E+03  1.72587E+03  2.82990E+03  5.50758E+03 -2.15880E+03  7.64785E+03
 -6.69537E+03  6.37158E+03 -7.79151E+03  1.19046E+03 -6.51816E+03 -1.51355E+03 -1.21895E+03 -5.00543E+03
  1.44087E+03 -4.76838E+03  2.99373E+03 -1.86442E+03  2.91666E+03  2.01480E+03 -1.14527E+03  2.79552E+03
 -4.79385E+03  3.10491E+02 -4.02820E+03 -3.51221E+03 -3.14381E+03 -5.58341E+03  5.20233E+02 -5.60956E+03
  2.41232E+03 -2.72991E+03  3.29889E+03  5.20630E+02  3.54062E+03  1.41505E+03  1.74709E+03  3.07767E+03
 -2.83395E+03 -1.37788E+03 -3.84798E+03 -5.37795E+02 -1.77938E+02 -3.85988E+03  4.06243E+03 -4.44832E+03
  7.83257E+03 -8.35004E+02  5.19455E+03  2.63295E+03  1.36392E+03  7.43242E+03 -2.39766E+03  6.28724E+03
 -6.50211E+03  3.49287E+03 -5.29325E+03 -1.72823E+03 -1.74191E+03 -4.77162E+03  1.73792E+03 -4.73009E+03
  4.77918E+03 -2.92475E+03  4.29584E+03  1.59769E+03  2.45495E+02  2.93024E+03  2.25805E+02  3.28633E+03
 -7.03276E+02  2.08867E+03 -9.10423E+01 -3.76238E+02 -1.24292E+02  2.37747E+02 -9.06074E+02  2.39652E+03
 -2.29159E+02  2.70408E+03 -4.24914E+03  1.76340E+03 -6.87431E+03  2.58505E+01 -8.86674E+03 -3.36187E+03
 -3.84855E+03 -8.17585E+03  2.00122E+03 -9.48426E+03  5.60721E+03 -9.02727E+03  1.07163E+04 -3.18818E+03
  1.02507E+04  1.41687E+03  4.96369E+03  5.21477E+03  6.43818E+02  6.77616E+03 -3.31015E+03  4.57226E+03
 -3.30489E+03  1.93984E+03 -3.37369E+03  6.19802E+02 -2.50462E+02 -5.71141E+02 -4.15415E+02 -7.61296E+02
 -1.52269E+03 -6.10860E+02 -2.96863E+03 -1.05432E+02  4.24227E+02 -9.94196E+02 -3.79553E+02 -3.21924E+03
  3.08099E+03 -5.41918E+02  3.81744E+03  3.60342E+02  1.45636E+03  2.04228E+03  5.13953E+02  7.64564E+03
 -2.91019E+03  6.17945E+03 -6.29852E+03  4.85604E+03 -8.31156E+03 -8.77324E+02 -5.53069E+03 -5.02392E+03
 -3.74367E+03 -6.60232E+03  1.57802E+03 -5.89163E+03  3.95151E+03 -3.71990E+03  3.88290E+03 -1.41592E+02
  2.58317E+03  2.69275E+03 -9.74007E+02  5.58697E+02 -9.70294E+02 -1.80168E+02  1.80473E+03 -1.35459E+03
  1.11227E+03 -7.39596E+02  2.22910E+03  3.26493E+02  2.36595E+03  3.59906E+03 -9.58561E+02  2.97556E+03
 -2.31984E+03  4.79652E+03 -3.60982E+03 -8.23342E+02 -3.03949E+03 -4.11114E+03 -7.59034E+02 -5.44747E+03
  1.24544E+03 -1.42603E+03  4.45988E+03 -1.82980E+03  3.81088E+03 -1.30321E+02  3.37182E+03  3.79850E+03
  1.61780E+03  4.17679E+03 -5.36826E+02  3.08341E+03 -1.80296E+03  9.95639E+02 -3.77320E+03 -3.65807E+02
  6.66947E+01 -7.73484E+02 -2.56013E+02  1.74360E+03 -2.65014E+03  1.10046E+03 -2.72577E+03 -5.43619E+02
 -3.39480E+03 -1.88096E+03 -3.61177E+02 -3.95590E+03  1.26737E+03 -4.02360E+03  4.78907E+03 -1.74265E+03
  3.76510E+03  8.81982E+02  1.97976E+03  2.32523E+03 -2.90251E+02  2.77005E+03 -2.24972E+03  4.21335E+03
