 $NMID ID='MM_0lb_SNR200_19hz_g45_70.RAW', FMTDAT='(8E13.5)'
 TRAMP=1., VOLUME=1. $END
  3.10776E+05  5.33419E+02  3.37791E+05  2.50392E+05  8.39605E+04  3.37065E+05 -1.32624E+05  2.49891E+05
 -1.89401E+05  8.20573E+04 -1.10574E+05 -3.17687E+04  1.39896E+03 -5.01693E+04  5.27424E+04  1.27162E+03
  3.57962E+04  5.20906E+04 -1.65475E+04  7.51556E+04 -6.02685E+04  6.35551E+04 -8.33326E+04  3.09536E+04
 -7.93142E+04 -1.09241E+04 -5.63971E+04 -5.00461E+04 -1.35209E+04 -6.81754E+04  2.66852E+04 -4.38125E+04
  3.95845E+04  5.29203E+03  1.57447E+04  4.64489E+04 -3.42340E+04  4.48297E+04 -6.46300E+04 -6.41848E+02
 -5.11174E+04 -5.53362E+04 -6.13528E+03 -7.52631E+04  3.34452E+04 -5.42341E+04  4.61343E+04 -1.64077E+04
  4.11682E+04  1.11356E+04  3.13505E+04  2.33233E+04  1.62964E+04  2.89940E+04 -4.99933E+03  2.72084E+04
 -2.11530E+04  1.31075E+04 -1.91795E+04 -3.93137E+03  4.27270E+03 -7.79946E+03  2.12536E+04  1.07415E+04
  7.11775E+03  3.26894E+04 -3.02372E+04  3.44949E+04 -6.08332E+04  1.72260E+03 -5.51367E+04 -3.99533E+04
 -1.28423E+04 -6.10232E+04  3.70021E+04 -4.32361E+04  5.47782E+04 -2.34354E+03  3.26957E+04  3.18003E+04
 -6.36904E+03  3.23548E+04 -2.83935E+04  1.37569E+04 -2.80725E+04 -4.71652E+03 -1.36510E+04 -1.05553E+04
 -7.06388E+03 -1.06367E+04 -1.12284E+03 -1.59246E+04  7.36303E+03 -2.27466E+04  1.56537E+04 -1.36016E+04
  1.33789E+04  4.16616E+03 -6.88046E+03  1.31155E+04 -1.80677E+04 -3.12474E+03 -7.88098E+03 -2.88576E+04
  1.96019E+04 -4.08326E+04  4.42917E+04 -1.85820E+04  4.12784E+04  1.82610E+04  1.41812E+04  4.01268E+04
 -1.50840E+04  2.99324E+04 -2.25681E+04  5.56809E+02 -8.56768E+03 -2.57915E+04  2.09347E+04 -3.01243E+04
  3.82219E+04 -6.37122E+03  3.13865E+04  2.22058E+04  1.57549E+04  4.33637E+04 -7.45781E+03  4.52474E+04
 -2.83464E+04  2.85443E+04 -3.61213E+04  7.32649E+03 -3.85467E+04 -1.47316E+04 -2.07446E+04 -3.39111E+04
  6.38296E+03 -3.47815E+04  2.87853E+04 -1.23098E+04  2.68856E+04  1.17335E+04  2.34887E+03  1.78458E+04
 -1.37021E+04  6.51736E+03 -9.00148E+03 -6.83948E+03  5.31320E+03 -8.65379E+03  1.71626E+04  6.22355E+03
  1.28274E+04  2.16147E+04 -5.64249E+03  2.29200E+04 -2.08618E+04  9.04902E+03 -2.46173E+04 -5.93991E+03
 -1.57834E+04 -1.65065E+04 -4.91916E+03 -1.48219E+04  4.12024E+03 -1.28746E+04  1.22998E+04 -1.48686E+04
  2.13418E+04 -1.17955E+04  2.68606E+04  1.64362E+03  2.08958E+04  1.52601E+04  4.10013E+03  3.24735E+04
 -1.67165E+04  2.67877E+04 -2.57002E+04  8.93561E+03 -2.04314E+04 -1.08904E+04 -4.06110E+03 -1.32175E+04
  2.05746E+03 -3.96808E+03 -2.21820E+03  5.82102E+03 -1.20889E+04  5.66740E+03 -1.29557E+04 -4.93569E+03
 -8.38669E+03 -1.52148E+04  5.76703E+03 -1.99320E+04  1.23725E+04 -1.41371E+04  1.34178E+04 -1.94274E+03
  8.96427E+03  1.07015E+04 -8.92936E+02  1.57123E+04 -1.08413E+04  8.17464E+03 -1.49664E+04 -4.18812E+03
 -1.13511E+04 -1.32499E+04 -7.24191E+02 -1.82877E+04  9.37243E+03 -1.52449E+04  1.56199E+04 -7.73749E+03
  1.43144E+04  4.79565E+02  9.91323E+03  3.62776E+03  3.97993E+03  4.60030E+01  7.26207E+03 -3.35661E+02
  1.31905E+04  2.08353E+03  1.36406E+04  1.24788E+04  8.60992E+03  2.44503E+04 -2.74218E+03  2.54495E+04
 -1.51776E+04  1.98548E+04 -2.43845E+04  8.84209E+03 -2.49581E+04 -4.53835E+01 -2.01028E+04 -1.37270E+04
 -8.59577E+03 -1.82467E+04  7.25687E+03 -1.83667E+04  1.62904E+04 -9.76886E+03  1.53978E+04  2.63082E+03
  6.59346E+03  1.11706E+04 -7.70033E+03  9.70121E+03 -1.23780E+04  3.91593E+03 -1.01234E+04 -8.58139E+03
  1.57317E+02 -1.17408E+04  4.89135E+03 -9.16392E+03  7.14235E+03 -2.10033E+03  7.49340E+02  5.63320E+03
 -5.58477E+03  1.30307E+03 -2.26852E+03 -4.73158E+03  3.39107E+02 -8.97175E+03  6.90003E+03 -8.72752E+03
  1.09423E+04 -3.49456E+03  1.03031E+04  2.80843E+03  9.38378E+03  8.54958E+03  4.20835E+03  1.39292E+04
 -2.00397E+03  1.53834E+04 -9.18429E+03  1.04078E+04 -1.09190E+04  2.60638E+03 -8.67491E+03 -1.70119E+03
 -4.48820E+03 -2.55138E+03  9.47309E+01  1.01055E+03 -2.23440E+03  2.53989E+03 -3.03360E+03  4.23951E+03
 -7.55794E+03 -6.80545E+02 -8.06997E+03 -7.28129E+03 -3.02284E+03 -1.23772E+04  2.97262E+03 -7.65183E+03
  7.01473E+03 -3.77626E+03  4.99547E+03  2.19325E+03  8.66862E+02  2.95227E+03 -3.12282E+03  1.25913E+02
 -2.40205E+03 -5.22442E+03 -9.75725E+02 -6.63102E+03  3.79927E+03 -8.07780E+03  9.10317E+03 -3.65330E+03
  1.04122E+04  8.28377E+02  9.29828E+03  5.80954E+03  7.78489E+02  9.11596E+03 -4.83210E+03  6.99908E+03
 -6.28355E+03  3.61967E+03 -4.29009E+03 -1.17401E+03  1.29387E+03 -2.86107E+03  4.32663E+03 -2.98988E+02
  4.81771E+03  3.41825E+03  7.54675E+02  6.53866E+03 -3.72298E+03  5.44133E+03 -8.10640E+03  2.26013E+03
 -4.76371E+03 -3.40772E+03  1.05938E+03 -6.96106E+03  3.88863E+03 -3.14101E+03  3.25039E+03  1.08560E+03
  9.58525E+02  1.50815E+03 -3.92007E+03  4.47800E+03 -3.87483E+03  2.00795E+03 -3.91348E+03 -7.66003E+02
 -2.08451E+03 -6.43919E+03  1.59759E+03 -6.47781E+03  4.90640E+03 -4.20055E+03  5.94190E+03  2.02245E+03
  4.34551E+03  4.86126E+03 -7.55973E+01  7.25022E+03 -5.50239E+03  4.19068E+03 -4.61883E+03 -1.25827E+03
 -5.21371E+03 -5.29776E+03 -1.37546E+03 -4.35398E+03  2.13210E+03 -5.22030E+03  3.04971E+03 -1.98955E+03
  2.22050E+03 -2.89134E+02  5.43560E+01  1.87351E+02  4.48068E+02 -8.60706E+02  2.14293E+02 -9.85480E+02
  5.23277E+03  4.56555E+01  4.43615E+03 -9.31439E+02  4.74442E+03  3.85216E+03  5.09039E+03  6.50252E+03
 -9.52207E+02  6.85607E+03 -7.58627E+03  5.92050E+03 -9.16211E+03  1.57259E+03 -6.48844E+03 -2.13179E+03
 -3.86316E+03 -6.78725E+03 -6.41406E+02 -4.06391E+03  2.22695E+03 -2.37034E+03  1.42694E+03 -1.96838E+03
  4.98014E+02 -1.85038E+03  2.66931E+03 -1.94555E+03  3.35876E+03 -6.19319E+02  3.49028E+03  4.84227E+02
  3.53421E+03 -3.21661E+02  8.35495E+02  3.30582E+03 -1.72266E+03  3.40808E+03 -3.65563E+03  2.13502E+03
 -4.63957E+03 -7.34521E+02 -2.02723E+03 -2.98158E+03  6.27290E+02 -5.04726E+03  2.21692E+03 -4.21217E+03
  4.18247E+03 -2.87661E+03  7.76797E+03 -3.75532E+02  3.97014E+03  3.97408E+03  1.66316E+03  6.06869E+03
 -2.37311E+03  6.11781E+03 -2.71628E+03  1.75161E+03 -1.75903E+03 -1.28824E+03 -1.62860E+02 -4.43401E+02
 -7.69555E+02 -3.24727E+02 -7.67740E+02  1.14403E+03 -2.48110E+03  8.33722E+02 -3.84577E+03 -5.20161E+02
 -1.69084E+03 -3.12589E+03  3.33279E+02 -3.97967E+03  2.35704E+03 -4.11173E+03  1.95245E+03 -1.08103E+03
  4.39729E+03  1.17082E+03  1.10390E+03  3.81781E+03 -2.90122E+02  4.57395E+03 -1.66215E+03  1.65481E+03
 -4.69472E+03  5.68349E+02 -2.44403E+03 -1.38078E+03  3.47141E+01 -2.54381E+03  1.58613E+03 -1.61819E+03
  2.49624E+03 -2.05568E+03  1.34514E+03  1.27132E+03  8.03762E+02  1.98971E+03  1.42822E+02  8.56710E+02
  1.51987E+03  4.38763E+02  2.08860E+03  3.23386E+02  1.81590E+03  2.09344E+03  1.47861E+03  1.95574E+03
 -5.90054E+02  2.50718E+03 -2.12119E+03  3.32060E+03 -3.05949E+03  8.44492E+02 -3.03831E+03 -5.94914E+01
 -7.30794E+02 -3.39573E+03  5.78265E+02 -3.72607E+03  2.09248E+03 -1.41204E+03  2.32480E+03 -1.33746E+03
  3.12113E+03  1.32890E+03  2.13467E+02  1.46191E+03 -1.67750E+02  1.13423E+03 -8.14107E+02 -7.71181E+02
 -5.98522E+02 -9.29198E+02  1.96336E+03 -1.59722E+03  1.99323E+03 -1.24264E+03  7.75849E+02  5.30796E+01
  1.32580E+03 -8.10860E+02  1.00254E+03 -3.78652E+02  5.84812E+02  8.21551E+02  1.73340E+03  5.12868E+02
  5.70584E+01 -6.18579E+01  1.19941E+03 -6.91759E+02  8.43688E+02  1.41136E+03 -5.05587E+01  2.27447E+03
 -1.93102E+03  3.55760E+02 -1.64912E+03  1.00700E+03 -2.21800E+03 -5.46474E+01 -3.12309E+02 -1.24514E+03
  3.49833E+02 -3.80390E+02  7.95071E+02 -7.83338E+02  6.32496E+02  2.32767E+03 -1.32618E+03  1.07709E+03
 -1.03236E+03  9.54732E+02 -1.02553E+03 -7.84726E+02 -6.65123E+02 -2.31887E+03  2.83215E+02 -1.98514E+03
 -4.13397E+02 -4.21425E+02  8.17191E+02  2.67974E+02  8.22909E+02 -1.39473E+03  3.80485E+02  9.82183E+02
 -2.00849E+02  1.03850E+03 -1.17603E+03  3.04236E+02  6.86514E+02 -1.11347E+03  1.43089E+03 -9.49114E+02
  9.70473E+02 -6.48148E+02  2.09683E+03 -1.49301E+02  6.50351E+02  2.01426E+03 -1.37801E+02  9.66116E+02
 -8.57323E+02 -3.34000E+02 -4.10671E+02  4.19233E+02 -1.69415E+03 -2.16428E+03  3.54440E+01 -6.63337E+02
 -3.29080E+02  3.90480E+02  1.59684E+03  6.45888E+02 -8.90280E+02  1.60311E+03 -1.02551E+01  6.85239E+02
  5.60503E+02 -4.73969E+02 -2.89493E+02 -7.77301E+02  1.00953E+03  5.11089E+02 -4.04537E+02  7.35915E+02
  1.17496E+01  1.97285E+03 -2.28995E+03 -2.87940E+02 -5.48149E+02  1.58554E+02 -3.09479E+03 -1.02608E+03
 -1.19359E+02 -1.38790E+03 -2.07001E+02 -2.71662E+03  7.75751E+02 -3.58418E+03  1.26068E+03 -1.09660E+03
  3.21754E+03  4.98817E+02  5.94872E+02  1.86663E+03  7.46785E+02  1.06177E+03 -2.20975E+02  4.86190E+02
  2.31021E+01  1.61628E+03 -1.17279E+03 -7.37204E+02 -7.75233E+02  5.13806E+02 -5.10822E+02 -3.86974E+02
 -8.83551E+02 -9.59645E+01  3.64919E+02 -2.09217E+02  1.16711E+02 -1.09884E+03 -3.45593E+02 -9.45340E+02
  1.79479E+03 -1.31003E+03 -1.78533E+02 -2.30751E+02  1.83767E+03  1.14281E+03 -6.39096E+02  1.10095E+03
 -8.92650E+02  1.60795E+03 -1.77853E+03  6.09399E+02 -2.51738E+03 -1.64415E+02 -1.19542E+03 -5.62720E+02
 -1.48928E+02 -7.69812E+02  6.74382E+02 -1.34463E+03  6.68949E+02 -3.32351E+02 -3.50658E+01  1.29795E+03
  8.99249E+02 -3.56611E+02 -1.24720E+03  3.27961E+02 -2.27011E+02  7.67778E+02  1.23613E+03  5.35307E+02
  8.98985E+02  4.70561E+02  4.17666E+02 -6.04489E+02  2.03901E+01 -2.20514E+02  2.31647E+02  9.78094E+02
 -2.37206E+02  1.00555E+03 -3.02546E+02 -7.53172E+00 -8.40528E+02 -1.40624E+03 -7.85150E+02 -8.83459E+02
 -1.01137E+02 -1.08319E+03 -7.14203E+02 -8.58671E+02  8.68833E+02 -1.59370E+03  7.36850E+02  8.19067E+02
  2.65738E+02  1.17734E+03  2.73706E+02  1.14129E+03 -1.88613E+01  9.37438E+02 -1.06361E+03  9.12714E+02
  1.97629E+02 -1.18915E+02 -4.58807E+02 -6.13365E+02 -6.73964E+02  1.71399E+02 -7.65915E+02 -9.49975E+02
 -6.42240E+02  7.35497E+02 -5.74919E+02 -8.26332E+02  1.38363E+03 -2.46961E+02 -8.21273E+02 -5.97696E+02
  5.54799E+02 -1.55314E+02  7.49004E+02  3.50283E+02 -2.53871E+02  7.40260E+02 -1.61548E+03  8.24421E+02
