 $NMID ID='MM_0lb_SNR200_8hz_g40_40.RAW', FMTDAT='(8E13.5)'
 TRAMP=1., VOLUME=1. $END
  3.09226E+05  1.67658E+03  3.38073E+05  2.52180E+05  8.43862E+04  3.37686E+05 -1.32885E+05  2.51470E+05
 -1.90651E+05  8.26412E+04 -1.12957E+05 -3.38196E+04  6.37120E+02 -5.18816E+04  5.35547E+04 -7.74325E+02
  3.57551E+04  5.26602E+04 -1.80094E+04  7.60507E+04 -6.19404E+04  6.51360E+04 -8.54390E+04  3.23810E+04
 -8.30482E+04 -1.24366E+04 -5.94429E+04 -5.42345E+04 -1.62441E+04 -7.21095E+04  2.67807E+04 -4.79114E+04
  3.99059E+04  2.71380E+03  1.77760E+04  4.76125E+04 -3.57562E+04  4.90147E+04 -6.93070E+04 -5.66836E+02
 -5.51837E+04 -5.82740E+04 -6.57059E+03 -7.90405E+04  3.43359E+04 -5.71634E+04  4.92739E+04 -1.79737E+04
  4.51993E+04  1.03213E+04  3.30579E+04  2.93793E+04  1.59877E+04  3.03226E+04 -5.74556E+03  2.75202E+04
 -2.30630E+04  1.23350E+04 -1.64955E+04 -5.32752E+03  6.31493E+03 -8.76892E+03  2.44135E+04  1.34693E+04
  7.59091E+03  3.81079E+04 -3.27287E+04  3.72502E+04 -6.42854E+04  1.42320E+03 -6.03320E+04 -4.43550E+04
 -1.30715E+04 -6.70776E+04  4.27150E+04 -4.86134E+04  6.19683E+04 -3.59522E+03  3.69007E+04  3.49252E+04
 -4.79302E+03  3.88268E+04 -3.10941E+04  1.91611E+04 -3.21413E+04 -3.71365E+03 -1.90864E+04 -1.27527E+04
 -1.18313E+04 -1.75706E+04  2.15073E+02 -1.87455E+04  9.00045E+03 -2.21133E+04  1.61980E+04 -1.18840E+04
  1.08554E+04  5.67421E+03 -1.05545E+04  1.26803E+04 -2.41693E+04 -7.10779E+03 -8.94258E+03 -3.68266E+04
  2.59659E+04 -4.72528E+04  5.25900E+04 -2.03955E+04  4.85313E+04  2.20666E+04  1.64967E+04  4.78322E+04
 -1.47440E+04  3.65710E+04 -2.71723E+04  1.91236E+03 -1.29315E+04 -2.99645E+04  2.15637E+04 -3.73246E+04
  4.52156E+04 -9.00825E+03  4.00092E+04  2.43526E+04  2.30044E+04  4.97098E+04 -8.30272E+03  5.57777E+04
 -3.51456E+04  3.75075E+04 -4.80415E+04  1.05394E+04 -4.78613E+04 -1.97958E+04 -2.68762E+04 -4.06041E+04
  8.80193E+03 -4.36157E+04  3.43951E+04 -1.93435E+04  3.17941E+04  1.03538E+04  5.28567E+03  1.98943E+04
 -1.39320E+04  1.01786E+04 -1.18715E+04 -7.19948E+03  5.79540E+03 -9.02483E+03  1.95550E+04  6.81872E+03
  1.61809E+04  2.43994E+04 -4.99709E+03  2.83525E+04 -2.46141E+04  1.49744E+04 -3.12090E+04 -1.57450E+03
 -2.50738E+04 -1.88991E+04 -1.10203E+04 -2.65623E+04  4.20689E+03 -2.75902E+04  2.10476E+04 -2.27713E+04
  3.19162E+04 -1.43711E+04  3.61341E+04  4.37247E+03  2.85114E+04  2.39394E+04  4.00705E+03  4.05523E+04
 -1.89833E+04  3.45108E+04 -3.05964E+04  1.29066E+04 -2.32650E+04 -1.03532E+04 -4.84265E+03 -1.35950E+04
  4.05807E+02 -9.26055E+02 -8.33268E+03  7.85107E+03 -2.10056E+04  4.36249E+03 -2.03294E+04 -1.05967E+04
 -1.09619E+04 -2.42521E+04  5.98641E+03 -2.78913E+04  1.87188E+04 -1.89118E+04  2.38224E+04 -1.11030E+03
  1.41047E+04  1.70148E+04  7.41516E+02  2.32098E+04 -1.71823E+04  1.30909E+04 -2.37082E+04 -4.13900E+03
 -1.70998E+04 -2.13272E+04 -1.59666E+03 -2.90153E+04  1.43155E+04 -2.32744E+04  2.31122E+04 -1.27160E+04
  2.16831E+04 -9.19510E+02  1.54977E+04  4.50315E+03  7.98970E+03  1.03041E+03  1.34728E+04 -2.17872E+03
  2.24261E+04  3.00146E+03  2.69480E+04  1.83821E+04  1.72804E+04  3.84463E+04 -1.95504E+03  4.54487E+04
 -2.53590E+04  3.69684E+04 -4.24966E+04  1.98912E+04 -4.54500E+04 -3.96388E+03 -3.60720E+04 -2.52019E+04
 -1.45864E+04 -3.61894E+04  1.30229E+04 -3.09040E+04  2.82044E+04 -1.48714E+04  2.65547E+04  6.31429E+03
  8.95997E+03  1.73599E+04 -1.17964E+04  1.54868E+04 -2.01670E+04  2.26687E+03 -1.59079E+04 -1.32540E+04
 -6.90345E+02 -1.88515E+04  1.21647E+04 -1.49149E+04  1.46004E+04 -3.00933E+03  4.26422E+03  8.82235E+03
 -7.95307E+03  3.99397E+03 -9.59046E+03 -6.18781E+03 -2.21728E+03 -1.85164E+04  1.17082E+04 -2.11036E+04
  2.36031E+04 -1.16878E+04  2.56197E+04  2.13428E+03  2.55888E+04  1.91243E+04  1.11717E+04  2.98614E+04
 -5.65193E+03  3.13369E+04 -2.06250E+04  2.15879E+04 -2.25428E+04  3.53783E+03 -1.61538E+04 -6.51309E+03
 -7.88840E+03 -6.92006E+03 -6.49722E+02 -2.32737E+02 -4.14159E+03  2.21800E+03 -7.82994E+03  5.66849E+03
 -1.45819E+04 -1.64892E+03 -1.40947E+04 -1.42104E+04 -5.85578E+03 -2.07006E+04  4.33313E+03 -1.55406E+04
  1.18268E+04 -5.93572E+03  7.76585E+03  3.72670E+03 -2.20296E+03  9.35046E+03 -7.58815E+03 -1.01893E+03
 -7.92936E+03 -9.16234E+03 -8.27880E+02 -1.59521E+04  9.95402E+03 -1.72770E+04  1.99974E+04 -9.37614E+03
  2.36358E+04  3.16122E+03  1.76310E+04  1.45989E+04  2.90608E+03  1.84741E+04 -1.03320E+04  1.53754E+04
 -1.38316E+04  4.26482E+03 -6.70840E+03 -4.46097E+03  2.31171E+03 -5.92211E+03  8.13835E+03 -1.09851E+03
  7.33194E+03  6.91271E+03  2.00173E+03  1.37954E+04 -8.21181E+03  1.44853E+04 -1.42708E+04  2.92142E+03
 -1.07495E+04 -6.95708E+03  6.99819E+02 -1.20084E+04  8.72114E+03 -8.15133E+03  1.00018E+04  3.35993E+03
  2.92972E+03  1.02339E+04 -8.18838E+03  1.14774E+04 -1.30459E+04  5.15157E+03 -1.38050E+04 -5.82171E+03
 -9.79621E+03 -1.77444E+04  5.27006E+03 -1.94346E+04  1.62166E+04 -1.15675E+04  1.57548E+04  2.69882E+03
  1.06689E+04  1.29797E+04 -2.68110E+03  1.71548E+04 -1.43305E+04  9.87478E+03 -1.35127E+04 -1.63074E+03
 -1.11904E+04 -1.15248E+04 -9.99769E+02 -1.21526E+04  7.19409E+03 -8.07010E+03  8.10523E+03 -3.63026E+03
  5.21539E+03  8.50808E+02 -2.09414E+03  1.93445E+03 -1.43205E+03 -4.67867E+03  3.52445E+03 -7.73048E+03
  1.28508E+04 -4.88678E+03  1.67971E+04  5.61300E+02  1.45658E+04  1.02246E+04  1.07487E+04  2.20516E+04
 -5.05218E+03  2.52291E+04 -1.91442E+04  1.65941E+04 -2.61983E+04  3.09196E+03 -2.16330E+04 -1.06342E+04
 -9.69038E+03 -1.67069E+04  3.08576E+02 -1.59735E+04  4.98614E+03 -1.01669E+04  5.76224E+03 -4.68698E+03
  4.84712E+03 -4.54210E+03  5.86887E+03 -4.43872E+03  6.50463E+03 -2.33632E+03  9.20269E+03 -2.87297E+03
  1.08033E+04  2.67993E+03  5.66096E+03  1.10145E+04 -4.46147E+03  1.19619E+04 -1.28379E+04  8.93258E+03
 -1.44549E+04 -2.68850E+03 -1.05969E+04 -1.08422E+04 -8.91661E+02 -1.74988E+04  8.10983E+03 -1.56790E+04
  1.63820E+04 -9.26729E+03  1.99673E+04  3.61678E+03  1.51660E+04  1.53355E+04  1.43981E+03  2.02203E+04
 -7.74128E+03  1.52390E+04 -1.04999E+04  5.42655E+03 -8.30295E+03 -2.26168E+03 -5.89159E+03 -1.84459E+03
 -8.55237E+02 -3.51885E+02 -2.28134E+03  1.75059E+03 -8.05044E+03  2.63632E+03 -1.06008E+04 -1.85420E+03
 -7.64467E+03 -1.02343E+04 -5.81299E+02 -1.60264E+04  1.25476E+04 -1.37659E+04  1.42321E+04 -4.59187E+03
  1.49438E+04  6.98509E+03  8.02848E+03  1.41936E+04 -2.68602E+03  1.46705E+04 -1.05308E+04  1.02256E+04
 -1.59155E+04  1.84671E+03 -1.26315E+04 -9.28527E+03  1.95940E+02 -1.32428E+04  6.54033E+03 -9.48035E+03
  1.08013E+04 -2.40047E+03  5.33895E+03  3.70400E+03  3.44255E+03  4.73236E+03  7.95942E+02  1.19657E+03
  4.04506E+03  5.36432E+02  4.88576E+03  3.12258E+03  4.88104E+03  4.64420E+03  4.64443E+03  8.18634E+03
 -4.32942E+03  1.11521E+04 -1.01423E+04  1.37954E+04 -1.78835E+04  2.72867E+03 -1.81630E+04 -7.44700E+03
 -7.29048E+03 -1.53487E+04  1.70508E+03 -1.80051E+04  9.58538E+03 -1.09515E+04  1.39057E+04 -3.33694E+03
  9.92089E+03  7.49304E+03  2.22840E+03  8.72424E+03 -4.11394E+03  6.46316E+03 -8.86684E+03 -1.31353E+03
 -3.26486E+03 -7.39280E+03  3.15689E+03 -7.76583E+03  7.67742E+03 -2.57523E+03  7.74852E+03  7.84105E+02
  2.22555E+03  2.85812E+03  1.72468E+03  2.50674E+03 -1.34941E+03  1.54408E+03  2.00862E+03 -5.78660E+02
  2.82666E+03  1.38272E+01  7.65245E+03  1.82121E+03  4.45780E+03  9.55873E+03 -2.90023E+03  1.09317E+04
 -8.99732E+03  6.67053E+03 -9.62532E+03  1.12710E+03 -9.16040E+03 -3.14529E+03 -3.14603E+03 -6.53527E+03
  1.13492E+03 -5.36836E+03  2.62431E+03 -2.09218E+03  3.19921E+03  4.97310E+03 -2.20346E+03  4.71751E+03
 -7.28769E+03  3.06583E+03 -8.12673E+03 -4.75550E+03 -4.76794E+03 -9.87370E+03  6.88746E+02 -8.47079E+03
  6.11290E+03 -5.86973E+03  7.98888E+03 -3.40427E+02  6.16378E+03  1.07291E+03  8.28357E+02  4.20097E+03
 -4.77035E+03  1.80776E+03 -4.08574E+03 -4.04205E+03  8.97725E+02 -8.89145E+03  7.20283E+03 -6.67064E+03
  1.00935E+04  1.82481E+03  1.09952E+04  7.17029E+03  3.11708E+03  1.26989E+04 -4.11510E+03  1.15860E+04
 -9.51031E+03  4.92830E+03 -8.26854E+03 -6.22935E+02 -4.98575E+03 -6.75316E+03  1.70855E+03 -6.99832E+03
  5.77476E+03 -3.67828E+03  6.39331E+03  3.95898E+03  1.85937E+03  5.83429E+03 -1.71558E+03  5.51186E+03
 -2.73118E+03  1.92943E+03 -2.78362E+03  2.32406E+03 -3.91637E+03  2.74776E+03 -1.14600E+03  4.99725E+02
 -3.14641E+03  2.47711E+03 -8.11857E+03  3.27808E+03 -1.04887E+04  1.21423E+03 -1.11401E+04 -7.57990E+03
 -6.89839E+03 -1.44930E+04  2.53655E+03 -1.85947E+04  1.04621E+04 -1.33082E+04  1.62581E+04 -6.27133E+03
  1.47979E+04  3.28050E+03  8.17059E+03  1.13459E+04  6.05402E+02  1.19007E+04 -6.17533E+03  8.42874E+03
 -7.52201E+03  4.46787E+03 -3.50268E+03 -8.88427E+02 -3.26013E+03 -5.90691E+02 -6.87979E+02  4.07953E+00
 -1.95493E+03  6.58540E+01 -2.90274E+03  1.84226E+02 -1.17015E+03 -2.39617E+03  5.13711E+02 -4.98076E+03
  4.56012E+03 -2.22439E+03  7.56673E+03 -3.77955E+01  9.42371E+03  5.45770E+03  1.76622E+03  1.16173E+04
 -4.35158E+03  1.46807E+04 -1.10150E+04  7.79153E+03 -1.48546E+04 -1.30133E+03 -1.03690E+04 -7.61716E+03
 -5.28927E+03 -1.21220E+04  3.13415E+03 -9.44975E+03  8.24036E+03 -6.92925E+03  8.12330E+03  1.22198E+03
  4.01050E+03  3.38658E+03  3.19738E+02  1.90717E+03 -2.82110E+03 -2.66559E+03 -6.09477E+02 -2.22961E+03
  4.49626E+03 -9.91359E+02  3.14162E+03  3.22460E+03  3.19516E+03  5.23686E+03 -1.99585E+02  6.53860E+03
 -5.60264E+03  5.81463E+03 -9.61325E+03  1.89509E+03 -7.24041E+03 -4.18919E+03 -2.21867E+03 -1.04082E+04
  3.51595E+03 -8.20760E+03  8.03806E+03 -8.99643E+02  1.00186E+04  2.49228E+03  5.94434E+03  5.86668E+03
  9.09441E+02  7.48173E+03 -2.05044E+03  7.21404E+03 -5.44867E+03  5.08812E+03 -5.45785E+03  7.33497E+02
 -1.85636E+03  1.00321E+02 -3.03709E+03  1.36837E+03 -2.85429E+03  3.00935E+03 -6.62451E+03 -2.19252E+03
 -6.22803E+03 -4.55620E+03 -2.33291E+03 -7.94109E+03  2.25464E+03 -9.76035E+03  6.96908E+03 -3.86517E+03
  7.29634E+03 -1.06005E+02  3.95172E+03  5.36213E+03 -9.27383E+02  8.35449E+03 -5.21289E+03  3.86694E+03
