 $NMID ID='MM_0lb_SNR200_7hz_g50_69.RAW', FMTDAT='(8E13.5)'
 TRAMP=1., VOLUME=1. $END
  3.09609E+05  1.66201E+03  3.38360E+05  2.51030E+05  8.49474E+04  3.38742E+05 -1.34158E+05  2.51120E+05
 -1.90727E+05  8.40912E+04 -1.14244E+05 -3.23403E+04  1.70754E+03 -4.91984E+04  5.45776E+04 -2.71251E+03
  3.57289E+04  5.35042E+04 -1.58361E+04  7.65812E+04 -5.97885E+04  6.39857E+04 -8.45578E+04  3.25497E+04
 -8.40450E+04 -1.13529E+04 -5.65397E+04 -5.10321E+04 -1.49343E+04 -7.23702E+04  2.96002E+04 -4.74062E+04
  4.09783E+04  4.36966E+03  1.85373E+04  4.83067E+04 -3.55064E+04  4.78022E+04 -6.76227E+04 -1.84786E+02
 -5.41764E+04 -5.59135E+04 -8.23906E+03 -7.98073E+04  3.43681E+04 -5.82922E+04  5.11546E+04 -1.74301E+04
  4.65588E+04  1.27993E+04  3.30372E+04  2.71551E+04  1.53715E+04  2.97200E+04 -4.32179E+03  2.89027E+04
 -2.42453E+04  1.26433E+04 -2.01995E+04 -5.16086E+03  5.86102E+03 -5.62051E+03  2.35472E+04  1.35801E+04
  8.01973E+03  3.80703E+04 -3.38369E+04  3.70739E+04 -6.59595E+04  3.86366E+03 -5.98082E+04 -4.68814E+04
 -1.17084E+04 -6.62137E+04  4.23130E+04 -4.91593E+04  6.09657E+04 -2.36680E+03  3.91091E+04  3.49502E+04
 -5.48928E+03  3.90113E+04 -3.30267E+04  2.12788E+04 -3.31672E+04 -3.48318E+03 -1.94158E+04 -1.36883E+04
 -9.95130E+03 -1.67346E+04 -1.13564E+03 -2.08153E+04  7.91537E+03 -2.26253E+04  1.75377E+04 -1.23696E+04
  1.14860E+04  4.70641E+03 -1.18636E+04  1.30182E+04 -2.40395E+04 -7.51128E+03 -9.55351E+03 -4.06876E+04
  2.60380E+04 -4.80859E+04  5.32552E+04 -2.06629E+04  4.95912E+04  2.06702E+04  1.93878E+04  4.83740E+04
 -1.70749E+04  3.70321E+04 -2.80901E+04  3.33754E+03 -1.04202E+04 -3.07142E+04  2.10951E+04 -4.00852E+04
  4.63586E+04 -1.20256E+04  4.20896E+04  2.44205E+04  2.19132E+04  5.20372E+04 -6.17858E+03  5.98646E+04
 -3.65122E+04  3.83029E+04 -5.01121E+04  1.13580E+04 -4.99322E+04 -1.88587E+04 -2.77781E+04 -4.39967E+04
  8.17189E+03 -4.39381E+04  3.42983E+04 -1.79648E+04  3.46683E+04  1.08631E+04  5.44981E+03  2.15644E+04
 -1.65354E+04  1.00449E+04 -1.05460E+04 -7.80006E+03  4.33379E+03 -1.39995E+04  1.88580E+04  7.14611E+03
  1.42657E+04  2.16024E+04 -5.29215E+03  2.70448E+04 -2.35940E+04  1.59141E+04 -3.23225E+04 -1.89735E+03
 -2.87217E+04 -1.80049E+04 -1.26687E+04 -2.59467E+04  3.93697E+03 -2.85269E+04  2.09830E+04 -2.36649E+04
  3.45051E+04 -1.49970E+04  4.03039E+04  5.61029E+03  2.85274E+04  2.52163E+04  4.57413E+03  4.35335E+04
 -1.93037E+04  3.49056E+04 -3.18552E+04  1.00930E+04 -2.22187E+04 -9.14413E+03 -5.04063E+03 -1.17366E+04
 -1.24948E+03 -1.50738E+03 -9.66714E+03  8.44821E+03 -2.26995E+04  4.59001E+03 -2.10758E+04 -1.19914E+04
 -1.19376E+04 -2.70105E+04  7.24214E+03 -3.08556E+04  2.03132E+04 -2.18048E+04  2.41246E+04  5.67082E+01
  1.52315E+04  1.65169E+04 -1.76565E+03  2.67621E+04 -1.72892E+04  1.47486E+04 -2.72909E+04 -4.85137E+03
 -1.77588E+04 -2.07725E+04 -3.72619E+03 -3.09720E+04  1.48414E+04 -2.60510E+04  2.58019E+04 -1.20861E+04
  2.41267E+04 -7.28523E+02  1.69061E+04  5.21510E+03  1.03212E+04  2.86915E+03  1.26348E+04 -3.05709E+03
  2.36984E+04  2.98563E+03  2.79026E+04  1.87436E+04  1.77746E+04  4.12837E+04 -3.17845E+03  4.91085E+04
 -2.74211E+04  4.17694E+04 -4.78898E+04  2.08262E+04 -4.94500E+04 -4.61359E+03 -3.95180E+04 -2.83726E+04
 -1.51351E+04 -4.29921E+04  1.38438E+04 -3.45142E+04  2.97951E+04 -1.55157E+04  2.64922E+04  8.62867E+03
  7.65888E+03  2.18822E+04 -1.33278E+04  1.76016E+04 -2.13988E+04  1.91838E+03 -1.50499E+04 -1.29259E+04
  5.56574E+02 -2.06463E+04  1.05505E+04 -1.48395E+04  1.37259E+04 -6.17847E+01  3.68725E+03  1.04823E+04
 -1.08269E+04  3.69290E+03 -9.30167E+03 -6.73418E+03 -2.34240E+03 -1.78892E+04  1.23260E+04 -2.16576E+04
  2.66372E+04 -1.27611E+04  3.01018E+04  3.93251E+03  2.66694E+04  2.05550E+04  1.19243E+04  3.36083E+04
 -6.85578E+03  3.59885E+04 -2.18198E+04  2.19722E+04 -2.54454E+04  5.28879E+03 -1.81435E+04 -7.75746E+03
 -6.66019E+03 -8.96563E+03 -5.74598E+02 -7.76149E+02 -4.65140E+03  4.62606E+03 -8.12959E+03  6.40017E+03
 -1.65149E+04 -1.42268E+03 -1.70486E+04 -1.39975E+04 -6.65615E+03 -2.14695E+04  7.10366E+03 -1.67118E+04
  1.32387E+04 -8.03362E+03  1.02853E+04  5.99789E+03  5.01919E+02  7.80746E+03 -9.55343E+03  8.05497E+02
 -8.32483E+03 -1.02743E+04 -2.53427E+02 -1.75821E+04  9.47950E+03 -1.94041E+04  2.21912E+04 -1.06929E+04
  2.47167E+04  3.91827E+03  1.92899E+04  1.59036E+04  3.62152E+03  2.16332E+04 -1.33068E+04  1.73614E+04
 -1.38127E+04  4.34812E+03 -7.78945E+03 -4.20887E+03  2.97229E+03 -6.33119E+03  1.12097E+04 -3.58033E+02
  7.90633E+03  8.95688E+03  1.93014E+03  1.48369E+04 -9.34155E+03  1.40347E+04 -1.78568E+04  3.70787E+03
 -1.17582E+04 -1.07190E+04 -3.76830E+01 -1.62850E+04  1.00482E+04 -7.30387E+03  1.19715E+04  3.15094E+03
  4.36583E+03  1.00105E+04 -8.40284E+03  1.14529E+04 -1.70517E+04  6.94280E+03 -1.75107E+04 -6.45681E+03
 -1.10726E+04 -1.82758E+04  6.54895E+03 -2.16201E+04  1.86274E+04 -1.31454E+04  1.95854E+04  3.52323E+03
  1.16913E+04  1.57451E+04 -1.40575E+03  1.77903E+04 -1.52485E+04  1.03300E+04 -1.45871E+04 -2.58121E+03
 -1.09977E+04 -1.06315E+04 -2.71768E+03 -1.43471E+04  6.70224E+03 -1.10658E+04  9.75016E+03 -3.22306E+03
  5.21003E+03  1.53795E+03  8.03311E+01  1.74800E+03 -9.79927E+02 -3.69338E+03  2.80831E+03 -9.98468E+03
  1.31066E+04 -5.04421E+03  1.85212E+04  2.96433E+03  1.86646E+04  1.45320E+04  1.11394E+04  2.57075E+04
 -5.63831E+03  2.90552E+04 -2.31197E+04  2.17282E+04 -3.11923E+04  6.26595E+03 -2.71648E+04 -1.06239E+04
 -1.35466E+04 -1.93584E+04 -1.95850E+03 -1.73013E+04  6.43474E+03 -1.05652E+04  4.96616E+03 -5.36663E+03
  3.55284E+03 -4.09409E+03  5.52945E+03 -4.63059E+03  5.02609E+03 -4.75100E+03  1.03969E+04 -2.76491E+03
  1.39101E+04  1.92364E+03  7.41096E+03  1.14082E+04 -3.66614E+03  1.52007E+04 -1.42569E+04  1.02041E+04
 -1.88970E+04 -1.52238E+03 -1.15130E+04 -1.21370E+04 -1.71273E+03 -2.22038E+04  1.08658E+04 -1.78742E+04
  1.97858E+04 -1.22334E+04  2.33258E+04  3.97297E+03  1.46350E+04  1.70172E+04  3.57618E+03  2.11657E+04
 -7.02196E+03  1.71971E+04 -1.37423E+04  5.82616E+03 -9.28466E+03 -1.56101E+03 -4.79006E+03 -3.11680E+03
 -7.37144E+02 -2.93785E+02 -2.40695E+03  1.80930E+03 -6.76364E+03  2.99531E+03 -1.23489E+04 -5.61102E+03
 -9.90777E+03 -1.26687E+04 -3.68659E+02 -1.78433E+04  1.19152E+04 -1.69462E+04  1.73513E+04 -5.84119E+03
  1.87509E+04  1.03549E+04  8.10864E+03  1.92530E+04 -4.73635E+03  1.84690E+04 -1.40021E+04  1.07931E+04
 -1.68356E+04  6.22299E+02 -1.39784E+04 -1.13535E+04 -2.80169E+03 -1.60381E+04  7.67812E+03 -1.06612E+04
  1.22009E+04 -5.10997E+03  7.72182E+03  3.70277E+03  3.44502E+03  4.32275E+03  1.51034E+03  1.39053E+03
  2.73557E+03  3.56484E+02  5.98587E+03  2.40692E+03  6.14616E+03  6.18033E+03  4.35559E+03  1.02096E+04
 -3.22172E+03  1.43632E+04 -1.54792E+04  1.43657E+04 -2.01377E+04  5.03533E+03 -2.04073E+04 -8.49290E+03
 -1.05028E+04 -2.22569E+04  4.53602E+03 -2.16822E+04  1.12365E+04 -1.47530E+04  1.71496E+04 -4.45925E+03
  1.31718E+04  5.12996E+03  3.18290E+03  1.08535E+04 -5.47476E+03  6.78951E+03 -9.22209E+03 -2.28197E+03
 -4.85693E+03 -8.27329E+03  3.37306E+03 -1.03769E+04  7.65157E+03 -3.59506E+03  7.17941E+03  9.43270E+02
  4.77167E+03  4.18874E+03  9.25796E+02  2.65202E+03 -2.70230E+03  2.24024E+03  3.92033E+03 -1.77062E+03
  3.93109E+03 -1.79662E+03  8.74872E+03  3.54417E+03  4.81828E+03  1.14043E+04 -3.46947E+02  1.41172E+04
 -9.67480E+03  8.73928E+03 -1.43386E+04  2.61335E+03 -1.19104E+04 -3.26964E+03 -4.26074E+03 -8.19617E+03
  1.67190E+03 -8.89298E+03  5.86286E+03 -2.96779E+03  4.14469E+03  3.73452E+03 -1.25412E+03  5.44009E+03
 -9.38547E+03  4.18119E+03 -1.10977E+04 -5.33859E+03 -6.17954E+03 -1.12759E+04  3.02107E+03 -1.12275E+04
  5.95746E+03 -7.81400E+03  8.46403E+03 -1.69665E+03  6.23169E+03  4.54565E+03  2.06648E+03  5.79661E+03
 -4.19005E+03  1.43952E+03 -6.24295E+03 -2.89370E+03  1.57122E+03 -8.11503E+03  1.05471E+04 -6.26372E+03
  1.39505E+04  1.86530E+03  1.14471E+04  8.64654E+03  2.40721E+03  1.35545E+04 -3.57067E+03  1.40562E+04
 -1.11487E+04  5.87310E+03 -1.27592E+04 -1.87726E+03 -6.70688E+03 -8.61339E+03 -1.31451E+02 -9.24317E+03
  9.88462E+03 -3.89777E+03  1.01807E+04  4.14257E+03  2.84591E+03  6.96504E+03 -7.58290E+02  5.80383E+03
 -2.03817E+03  7.45836E+03 -2.81418E+03  2.32720E+03 -1.58557E+03 -1.19877E+02 -1.63056E+03  2.75825E+03
 -3.07304E+03  5.11739E+03 -1.00008E+04  5.01556E+03 -1.36403E+04 -5.79565E+02 -1.47374E+04 -8.87523E+03
 -7.72980E+03 -1.88598E+04  3.19896E+03 -2.19435E+04  1.25971E+04 -1.46854E+04  2.03038E+04 -6.75448E+03
  1.98059E+04  3.95172E+03  1.08919E+04  1.35728E+04  5.18713E+03  1.59998E+04 -6.29474E+03  9.60470E+03
 -8.08695E+03  2.43963E+03 -5.55197E+03 -2.57798E+03 -1.66801E+03 -2.05290E+03 -1.11427E+03 -5.58920E+02
 -1.23995E+03  1.21606E+03 -1.78385E+03 -3.04924E+03 -1.38881E+03 -2.97130E+03  7.90669E+02 -5.97610E+03
  6.75565E+03 -5.24391E+03  8.61369E+03 -1.50127E+03  1.02647E+04  7.60277E+03  2.87941E+03  1.51138E+04
 -7.48906E+03  1.59047E+04 -1.68435E+04  9.73350E+03 -1.68490E+04 -1.76780E+03 -1.32832E+04 -1.01117E+04
 -3.55557E+03 -1.50378E+04  2.41319E+03 -1.52199E+04  1.03719E+04 -7.26887E+03  8.89541E+03  5.08314E+02
  7.43620E+03  4.56673E+03 -7.72310E+02  4.02352E+03 -3.60678E+03 -1.45904E+03 -1.64336E+03 -4.16220E+03
  3.75577E+03 -2.98219E+03  5.33410E+03  1.07245E+03  3.57310E+03  5.47885E+03 -1.40478E+03  8.53108E+03
 -6.53377E+03  6.54584E+03 -1.08934E+04  2.86670E+02 -8.56603E+03 -7.11598E+03 -7.89468E+02 -1.26445E+04
  7.07460E+03 -1.13060E+04  1.34284E+04 -3.81837E+03  1.21861E+04  3.88457E+03  8.92864E+03  9.27857E+03
  2.63519E+03  9.59446E+03 -5.89244E+03  6.74018E+03 -6.98124E+03  5.36298E+03 -5.52391E+03 -6.84973E+01
 -3.17507E+03  1.19879E+02 -5.11225E+03  2.22057E+03 -3.74177E+03  1.65576E+03 -9.75155E+03 -8.46749E+02
 -5.61696E+03 -6.64368E+03 -1.23482E+03 -1.10753E+04  4.89673E+03 -9.73231E+03  9.06113E+03 -7.39212E+03
  1.14324E+04  3.13790E+03  6.16002E+03  7.65279E+03 -6.90168E+02  1.04390E+04 -8.27247E+03  6.15982E+03
