 $NMID ID='MM_0lb_SNR200_14hz_g60_40.RAW', FMTDAT='(8E13.5)'
 TRAMP=1., VOLUME=1. $END
  3.10356E+05  5.28264E+02  3.37399E+05  2.50939E+05  8.40490E+04  3.37858E+05 -1.31995E+05  2.51450E+05
 -1.90519E+05  8.36218E+04 -1.10718E+05 -3.31570E+04  8.96617E+02 -5.06560E+04  5.29263E+04 -8.54629E+02
  3.65867E+04  5.29537E+04 -1.71298E+04  7.62337E+04 -6.11050E+04  6.51828E+04 -8.48994E+04  3.17025E+04
 -8.13244E+04 -1.17968E+04 -5.95629E+04 -5.13683E+04 -1.53537E+04 -6.99770E+04  2.74665E+04 -4.72780E+04
  4.15902E+04  4.88821E+03  1.74012E+04  4.80484E+04 -3.59683E+04  4.75534E+04 -6.74346E+04 -8.00909E+02
 -5.41774E+04 -5.73637E+04 -7.65932E+03 -7.94451E+04  3.34023E+04 -5.62079E+04  4.91263E+04 -1.82949E+04
  4.42969E+04  1.11954E+04  3.10103E+04  2.54976E+04  1.71960E+04  2.96784E+04 -6.20425E+03  2.74189E+04
 -2.22950E+04  1.28418E+04 -1.78415E+04 -5.77192E+03  5.64191E+03 -7.28447E+03  2.34532E+04  1.21451E+04
  7.48689E+03  3.64754E+04 -3.27387E+04  3.79330E+04 -6.50562E+04  1.33745E+03 -5.82914E+04 -4.35574E+04
 -1.21935E+04 -6.46179E+04  4.03088E+04 -4.64018E+04  6.06960E+04 -1.81713E+03  3.58394E+04  3.31657E+04
 -6.06551E+03  3.74976E+04 -3.08879E+04  1.76730E+04 -3.12789E+04 -4.81275E+03 -1.78571E+04 -1.03726E+04
 -9.23231E+03 -1.39812E+04 -7.25709E+02 -1.89843E+04  9.07831E+03 -2.37044E+04  1.61711E+04 -1.33909E+04
  1.03268E+04  6.88233E+03 -9.53024E+03  1.30168E+04 -2.16399E+04 -5.62884E+03 -8.78739E+03 -3.57015E+04
  2.34143E+04 -4.37328E+04  5.02850E+04 -1.97720E+04  4.62456E+04  2.05477E+04  1.54675E+04  4.56279E+04
 -1.62135E+04  3.45287E+04 -2.51352E+04  3.91048E+03 -1.05713E+04 -2.91359E+04  2.17639E+04 -3.49807E+04
  4.09424E+04 -8.67693E+03  3.66431E+04  2.37149E+04  1.77328E+04  4.73788E+04 -7.69553E+03  5.23040E+04
 -3.35143E+04  3.58014E+04 -4.42955E+04  9.80321E+03 -4.49811E+04 -1.74620E+04 -2.24539E+04 -3.96915E+04
  8.82879E+03 -3.89138E+04  3.24397E+04 -1.64409E+04  3.05854E+04  1.14652E+04  5.65745E+03  2.02584E+04
 -1.37730E+04  9.79169E+03 -1.01849E+04 -7.95409E+03  5.52822E+03 -1.10423E+04  1.82728E+04  5.65517E+03
  1.40716E+04  2.18354E+04 -6.37967E+03  2.62284E+04 -2.22141E+04  1.18361E+04 -2.77310E+04 -5.05051E+03
 -2.25744E+04 -1.81740E+04 -8.71811E+03 -2.17324E+04  3.89707E+03 -2.19606E+04  1.77800E+04 -1.94432E+04
  2.72258E+04 -1.31235E+04  3.35496E+04  4.78864E+03  2.45581E+04  2.16853E+04  4.78102E+03  3.84915E+04
 -1.75942E+04  3.11327E+04 -2.79446E+04  1.16553E+04 -2.03838E+04 -1.10161E+04 -5.33360E+03 -1.25212E+04
  1.97350E+03 -1.78100E+03 -5.11818E+03  6.37418E+03 -1.76383E+04  4.55426E+03 -1.69243E+04 -8.13655E+03
 -1.11996E+04 -2.02429E+04  4.65833E+03 -2.31370E+04  1.55655E+04 -1.74378E+04  1.95373E+04 -1.26186E+03
  1.28041E+04  1.40662E+04 -7.00209E+02  2.04483E+04 -1.45777E+04  1.16188E+04 -2.10295E+04 -4.25117E+03
 -1.58939E+04 -1.95185E+04 -3.08681E+03 -2.45228E+04  1.14516E+04 -2.06669E+04  2.04535E+04 -1.16365E+04
  1.98677E+04  9.71700E+01  1.34380E+04  3.71160E+03  6.52113E+03  1.62930E+03  1.06865E+04 -2.59258E+03
  1.87603E+04  2.85095E+03  2.18962E+04  1.62993E+04  1.35580E+04  3.25105E+04 -3.71699E+03  3.63341E+04
 -2.13215E+04  3.05616E+04 -3.45418E+04  1.41861E+04 -3.62933E+04 -1.29671E+03 -2.84484E+04 -2.08121E+04
 -1.27577E+04 -3.00523E+04  1.07817E+04 -2.75553E+04  2.38132E+04 -1.29554E+04  1.99880E+04  6.44153E+03
  7.12009E+03  1.39086E+04 -9.78949E+03  1.38257E+04 -1.71099E+04  3.62770E+03 -1.14983E+04 -1.00710E+04
  4.57493E+02 -1.64174E+04  7.50740E+03 -1.12088E+04  1.06631E+04 -1.59004E+03  2.61755E+03  6.09680E+03
 -6.73689E+03  2.20331E+03 -6.31125E+03 -5.24639E+03 -1.66981E+03 -1.51124E+04  1.03966E+04 -1.60704E+04
  1.85018E+04 -7.71323E+03  2.11980E+04  3.11805E+03  1.85814E+04  1.28142E+04  9.04031E+03  2.26291E+04
 -3.65325E+03  2.55017E+04 -1.70224E+04  1.53794E+04 -1.77283E+04  2.57317E+03 -1.27381E+04 -4.46399E+03
 -5.92580E+03 -5.74517E+03 -1.43080E+02  5.88568E+02 -1.08577E+03  3.06682E+03 -4.92751E+03  3.73946E+03
 -1.10921E+04  1.44467E+02 -1.11669E+04 -1.04488E+04 -4.49093E+03 -1.61738E+04  4.86070E+03 -1.14551E+04
  1.00074E+04 -5.16737E+03  7.39667E+03  2.99487E+03 -5.77416E+01  4.87327E+03 -4.81565E+03  3.58242E+02
 -6.21286E+03 -6.60518E+03 -1.16570E+02 -1.21028E+04  6.02063E+03 -1.23574E+04  1.44356E+04 -6.60282E+03
  1.81863E+04  2.00686E+03  1.38000E+04  1.06761E+04  2.13198E+03  1.39300E+04 -7.42277E+03  1.24003E+04
 -9.90749E+03  3.99975E+03 -4.55356E+03 -2.12623E+03  1.30221E+03 -5.61030E+03  6.78122E+03  1.01203E+02
  6.52575E+03  5.26397E+03  1.24231E+03  9.12365E+03 -6.46235E+03  8.77553E+03 -1.09437E+04  2.32014E+03
 -8.43529E+03 -7.01748E+03  1.64542E+03 -8.89072E+03  5.99651E+03 -5.08248E+03  7.43077E+03  2.73417E+03
  1.82817E+03  7.07018E+03 -6.44625E+03  7.86151E+03 -8.99682E+03  3.14393E+03 -9.23821E+03 -3.77215E+03
 -5.33664E+03 -9.29780E+03  1.70082E+03 -1.28510E+04  1.11139E+04 -7.08698E+03  1.15249E+04  2.08479E+03
  7.07118E+03  9.54540E+03 -6.92989E+02  1.06497E+04 -9.57959E+03  6.42603E+03 -9.25695E+03 -7.37243E+02
 -8.73600E+03 -7.19399E+03 -2.62411E+03 -8.61029E+03  5.52326E+03 -6.57950E+03  4.96495E+03 -4.05366E+03
  3.17571E+03  1.38564E+03 -3.18463E+02  1.70649E+03  8.64651E+02 -2.02549E+03  4.79487E+02 -3.38251E+03
  7.71494E+03 -1.71134E+03  1.04278E+04  1.92754E+03  9.78277E+03  6.63830E+03  7.53394E+03  1.35488E+04
 -2.89176E+03  1.51625E+04 -1.30415E+04  1.21543E+04 -1.75664E+04  2.98328E+03 -1.29065E+04 -6.31131E+03
 -6.74654E+03 -1.07113E+04 -5.35853E+02 -1.02716E+04  4.07535E+03 -5.29523E+03  3.24336E+03 -3.28723E+03
  3.77683E+03 -1.00176E+03  2.55377E+03 -3.24689E+03  3.32161E+03 -2.30420E+03  5.84663E+03 -2.31626E+02
  6.73120E+03  1.26528E+03  3.82791E+03  6.95785E+03 -1.88030E+03  5.88620E+03 -7.33774E+03  6.00943E+03
 -9.75091E+03 -1.42471E+03 -6.53485E+03 -5.25726E+03  4.47680E+02 -9.38221E+03  5.61293E+03 -9.31041E+03
  1.11133E+04 -5.20260E+03  1.28005E+04  1.44488E+03  8.26851E+03  7.48400E+03  1.03281E+03  1.13080E+04
 -3.20201E+03  1.01200E+04 -6.22965E+03  3.06649E+03 -3.19189E+03 -1.31495E+03 -2.47317E+03 -9.59944E+02
 -1.61153E+03 -2.34514E+02 -1.62167E+03  2.55701E+03 -3.75154E+03  1.95572E+03 -7.59299E+03  7.89569E+01
 -2.63740E+03 -6.90128E+03  1.52254E+03 -9.20604E+03  4.82420E+03 -8.05108E+03  8.88156E+03 -2.30561E+03
  8.65818E+03  4.26391E+03  2.96903E+03  6.83400E+03 -1.44178E+03  8.50565E+03 -6.37628E+03  5.56500E+03
 -9.14507E+03  8.45200E+02 -6.12420E+03 -4.91984E+03  3.55508E+02 -7.08256E+03  3.51453E+03 -6.28874E+03
  5.95565E+03 -1.93464E+03  2.36275E+03  2.09503E+03  7.15504E+02  1.92097E+03  7.88407E+02  5.49823E+02
  2.94631E+03  1.64035E+03  2.43416E+03  2.04943E+03  2.17520E+03  3.16609E+03  2.94179E+03  3.32021E+03
 -1.63686E+03  6.21394E+03 -5.67035E+03  7.47600E+03 -8.50714E+03  2.10571E+03 -8.76564E+03 -2.55717E+03
 -4.71211E+03 -9.23087E+03  1.82680E+03 -8.56702E+03  4.54476E+03 -5.99232E+03  6.85917E+03 -1.04060E+03
  5.30712E+03  3.46379E+03  2.28671E+03  4.85580E+03 -2.13975E+03  3.25945E+03 -3.53554E+03 -1.06504E+02
 -1.50645E+03 -3.13889E+03  1.60376E+03 -4.05161E+03  3.06014E+03 -1.64570E+03  3.70791E+03  1.73249E+03
  1.26848E+03  9.94390E+02  1.10865E+03  7.64603E+02 -5.43929E+02  1.10235E+03  3.39862E+03 -1.26661E+02
  1.07444E+03  1.72163E+02  4.23119E+03  1.50975E+03  9.70913E+02  4.12667E+03  1.19904E+02  5.94248E+03
 -2.96068E+03  2.58530E+03 -4.29371E+03  5.56996E+02 -2.83195E+03 -1.85106E+03 -1.85348E+03 -1.91234E+03
  5.87758E+02 -2.80461E+03  1.13228E+03 -1.12385E+03  1.66175E+03  1.76582E+03 -7.59752E+02  1.97092E+03
 -2.90477E+03  1.47900E+03 -3.72751E+03 -2.33883E+03 -1.53383E+03 -4.59801E+03  8.68456E+02 -4.36433E+03
  1.95710E+03 -2.37755E+03  3.46199E+03  6.37021E+02  3.34037E+03  1.96542E+03  2.06028E+02  1.49140E+03
 -3.03251E+03  1.10343E+03 -1.13405E+03 -2.07834E+03  1.76372E+03 -1.76062E+03  3.33168E+03 -3.57647E+03
  3.30082E+03  9.82390E+02  5.18658E+03  3.32595E+03  9.67261E+02  5.36892E+03 -2.20883E+03  4.27615E+03
 -3.04304E+03  2.22515E+03 -2.72257E+03 -1.05576E+03 -1.17773E+03 -2.17238E+03  1.26945E+03 -2.72683E+03
  3.18542E+03 -9.61962E+02  2.84260E+03  2.33923E+03  9.71392E+02  3.13970E+03 -5.80386E+02  2.68511E+03
 -8.15503E+02  1.73286E+03 -8.10571E+02  3.23693E+02 -1.82955E+03 -8.57468E+02 -2.58357E+02  2.05211E+03
 -1.05277E+03  2.53988E+03 -3.12195E+03  3.63820E+02 -4.12879E+03 -4.03459E+02 -5.80783E+03 -1.42269E+03
 -3.39512E+03 -6.33665E+03  8.47426E+02 -6.54562E+03  4.99291E+03 -6.88547E+03  7.30668E+03 -2.90049E+03
  4.64890E+03  1.31884E+02  3.59465E+03  3.43882E+03 -1.82476E+02  5.05450E+03 -2.24435E+03  4.44924E+03
 -2.27232E+03  9.56960E+02 -2.17604E+03  7.84164E+02 -4.34486E+02 -6.20835E+02 -5.99983E+02 -1.01000E+03
 -1.27534E+03 -1.21823E+03 -6.73587E+02  5.38187E+02  1.33653E+03 -1.98384E+03 -1.03783E+03 -2.11982E+03
  1.27681E+03 -1.13796E+03  2.83541E+03  7.61100E+02  2.75482E+03  3.10598E+03 -8.75579E+02  4.79908E+03
 -1.37839E+03  5.09412E+03 -4.01370E+03  2.90260E+03 -5.70885E+03  7.55571E+02 -3.56181E+03 -3.80169E+03
 -1.78001E+03 -3.75997E+03  1.19218E+03 -3.59390E+03  1.24790E+03 -1.38598E+03  3.39113E+03  1.00353E+01
  1.70378E+03  9.90235E+02  9.24562E+02  6.23978E+02 -2.02619E+03  9.00846E+02 -2.51699E+02 -1.18209E+03
  1.78233E+03  2.06116E+02 -7.09546E+01  1.36824E+03  3.54742E+02  1.52378E+03  1.16020E+03  4.03945E+02
 -2.99849E+03  1.70210E+03 -2.87436E+03  2.68038E+02 -2.25544E+03 -8.33950E+02 -3.50000E+02 -2.94268E+03
  2.58285E+03 -3.45365E+03  2.72845E+03 -8.48819E+02  2.95156E+03 -8.17842E+02  2.61760E+03  1.31057E+03
  1.93580E+03  2.42370E+03 -5.35345E+02  1.80587E+03 -3.05227E+03  2.02202E+03 -3.89098E+01 -6.21996E+01
  4.38826E+02 -7.36517E+02 -1.12745E+03  1.26356E+03 -2.58159E+03  1.16444E+01 -1.37892E+03 -2.43089E+02
 -1.28896E+03 -1.20512E+03 -1.63670E+02 -1.41258E+03  1.57059E+03 -2.35856E+03  2.27708E+03 -1.45223E+03
  1.75618E+03 -1.98582E+02  2.14868E+03  2.12650E+03  2.78643E+02  1.08129E+03 -1.33936E+03  2.68986E+03
