 $NMID ID='MM_0lb_SNR200_14hz_g45_88.RAW', FMTDAT='(8E13.5)'
 TRAMP=1., VOLUME=1. $END
  3.09838E+05  7.55542E+02  3.37693E+05  2.50409E+05  8.39594E+04  3.38804E+05 -1.34016E+05  2.52496E+05
 -1.90351E+05  8.35898E+04 -1.11224E+05 -3.22343E+04  9.14249E+02 -5.06916E+04  5.41641E+04 -2.61098E+02
  3.55070E+04  5.22067E+04 -1.69174E+04  7.62640E+04 -6.22054E+04  6.32285E+04 -8.49019E+04  3.22266E+04
 -8.09271E+04 -1.13911E+04 -5.59135E+04 -5.01430E+04 -1.55447E+04 -7.01791E+04  2.79715E+04 -4.54858E+04
  3.84515E+04  3.92225E+03  1.57635E+04  4.90317E+04 -3.36511E+04  4.74180E+04 -6.71149E+04  4.25250E+02
 -5.29681E+04 -5.60577E+04 -6.64190E+03 -7.74102E+04  3.40739E+04 -5.48804E+04  4.70555E+04 -1.65238E+04
  4.42486E+04  1.18223E+04  3.16814E+04  2.51886E+04  1.61999E+04  2.93585E+04 -6.68701E+03  2.81512E+04
 -2.11716E+04  1.33470E+04 -1.96867E+04 -5.33337E+03  5.50763E+03 -8.35124E+03  2.27548E+04  1.21099E+04
  7.23455E+03  3.46035E+04 -3.08370E+04  3.47092E+04 -6.21999E+04  1.99455E+03 -5.71920E+04 -4.25713E+04
 -1.19176E+04 -6.27007E+04  4.00137E+04 -4.50038E+04  5.91303E+04 -2.40188E+03  3.39259E+04  3.24842E+04
 -5.56153E+03  3.53237E+04 -2.95472E+04  1.49773E+04 -3.09860E+04 -5.02370E+03 -1.63627E+04 -1.13696E+04
 -8.06661E+03 -1.37686E+04 -3.69531E+02 -1.71242E+04  8.08852E+03 -2.35793E+04  1.48424E+04 -1.36346E+04
  9.98655E+03  5.49210E+03 -8.45769E+03  1.26489E+04 -2.02440E+04 -6.19759E+03 -8.44558E+03 -3.30026E+04
  2.23213E+04 -4.25982E+04  4.72144E+04 -1.90571E+04  4.45993E+04  1.85039E+04  1.53463E+04  4.48285E+04
 -1.64067E+04  3.41276E+04 -2.55303E+04  3.38465E+03 -9.56697E+03 -2.88731E+04  2.04501E+04 -3.33755E+04
  4.02385E+04 -8.04935E+03  3.55244E+04  2.33893E+04  1.79417E+04  4.48785E+04 -8.20722E+03  4.97656E+04
 -3.04954E+04  3.33334E+04 -4.11399E+04  9.15761E+03 -4.08709E+04 -1.62702E+04 -2.37236E+04 -3.75383E+04
  7.32843E+03 -3.57803E+04  3.06501E+04 -1.47819E+04  2.92855E+04  1.10880E+04  3.21162E+03  1.98885E+04
 -1.34024E+04  8.54457E+03 -9.30777E+03 -7.60100E+03  6.03278E+03 -1.10997E+04  1.81578E+04  6.65841E+03
  1.32932E+04  2.36716E+04 -5.65096E+03  2.56225E+04 -2.28170E+04  1.07564E+04 -2.66022E+04 -4.86920E+03
 -1.97975E+04 -1.77568E+04 -8.83965E+03 -2.02701E+04  5.15813E+03 -1.94052E+04  1.46938E+04 -1.75223E+04
  2.41104E+04 -1.24797E+04  3.21259E+04  3.04913E+03  2.35750E+04  1.91136E+04  4.65871E+03  3.70516E+04
 -1.77626E+04  2.94347E+04 -2.80922E+04  1.07689E+04 -1.97895E+04 -1.01249E+04 -3.09481E+03 -1.37926E+04
  1.99320E+03 -3.23541E+03 -4.89861E+03  6.87062E+03 -1.52285E+04  4.51370E+03 -1.45880E+04 -6.96380E+03
 -1.02294E+04 -1.86262E+04  3.93464E+03 -2.26096E+04  1.52391E+04 -1.71017E+04  1.83355E+04 -1.25822E+03
  1.09579E+04  1.23817E+04 -1.02438E+03  1.84405E+04 -1.27743E+04  1.16994E+04 -1.89842E+04 -3.24738E+03
 -1.27651E+04 -1.69740E+04 -2.25205E+03 -2.22076E+04  1.01472E+04 -1.80414E+04  1.81869E+04 -8.95201E+03
  1.70520E+04 -5.03474E+02  1.07601E+04  4.60015E+03  5.52237E+03  7.75200E+02  9.68833E+03 -2.11952E+03
  1.76443E+04  3.18533E+03  1.84629E+04  1.57197E+04  1.25235E+04  2.90824E+04 -4.31468E+03  3.40052E+04
 -1.96090E+04  2.62564E+04 -3.04519E+04  1.21525E+04 -3.30667E+04 -2.40266E+03 -2.62415E+04 -1.93985E+04
 -1.16201E+04 -2.70821E+04  9.54534E+03 -2.56146E+04  2.15893E+04 -1.14565E+04  1.92124E+04  5.89371E+03
  6.73168E+03  1.44473E+04 -8.69565E+03  1.36570E+04 -1.50547E+04  1.29662E+03 -1.20885E+04 -8.37608E+03
  1.52789E+03 -1.48809E+04  8.02697E+03 -1.10300E+04  9.54448E+03 -9.41503E+02  2.75833E+03  5.91788E+03
 -5.89259E+03  2.94722E+03 -5.18904E+03 -5.13900E+03  1.70904E+02 -1.24780E+04  1.00084E+04 -1.53999E+04
  1.60325E+04 -6.60969E+03  1.72335E+04  2.54145E+03  1.53651E+04  1.38513E+04  8.30588E+03  2.05020E+04
 -2.74123E+03  2.21714E+04 -1.41756E+04  1.48007E+04 -1.58827E+04  3.88193E+03 -1.15737E+04 -3.99310E+03
 -4.08644E+03 -6.08817E+03  3.87080E+02  9.74923E+02 -1.95797E+03  2.15868E+03 -5.40551E+03  4.37102E+03
 -9.12974E+03  3.95089E+02 -1.17877E+04 -8.59548E+03 -4.65371E+03 -1.58536E+04  5.56727E+03 -1.07264E+04
  9.34027E+03 -5.54820E+03  7.57767E+03  3.08090E+03  1.10406E+03  3.78379E+03 -5.19967E+03  6.38388E+02
 -5.80250E+03 -7.73223E+03 -1.08003E+03 -8.52901E+03  4.77380E+03 -1.16451E+04  1.41217E+04 -5.59033E+03
  1.49904E+04  9.71969E+02  1.14347E+04  1.02866E+04  2.66444E+03  1.28529E+04 -7.10446E+03  1.05552E+04
 -8.66237E+03  4.35526E+03 -3.47327E+03 -2.61256E+03  1.10583E+03 -1.63155E+03  6.40243E+03 -1.17839E+03
  4.88095E+03  5.36162E+03  1.12518E+03  8.89845E+03 -6.95267E+03  8.07537E+03 -1.03193E+04  2.90463E+03
 -7.24873E+03 -5.71918E+03  3.06574E+02 -1.02792E+04  5.95298E+03 -4.87961E+03  6.11748E+03  7.54089E+02
  1.64785E+03  6.78496E+03 -6.52132E+03  8.49646E+03 -9.51541E+03  4.10018E+03 -7.93082E+03 -2.58767E+03
 -5.08073E+03 -1.02245E+04  1.97352E+03 -1.08949E+04  9.38549E+03 -6.79708E+03  9.86909E+03  1.94996E+03
  6.31299E+03  7.76701E+03 -1.50035E+03  9.48416E+03 -6.61098E+03  5.07069E+03 -6.74308E+03 -5.38830E+02
 -7.55356E+03 -7.22039E+03 -4.24769E+02 -7.62337E+03  4.39712E+03 -6.53399E+03  4.07196E+03 -4.09383E+03
  4.03566E+03  1.84266E+03 -1.30591E+03  1.32155E+03 -1.63640E+02 -1.68224E+03  2.72452E+01 -4.81199E+03
  6.62767E+03 -2.13922E+03  1.05683E+04  2.31714E+03  7.56716E+03  7.07098E+03  6.66918E+03  1.23075E+04
 -3.18505E+03  1.32850E+04 -1.17270E+04  1.03941E+04 -1.45129E+04  1.69510E+03 -1.22475E+04 -6.32223E+03
 -5.27204E+03 -9.54053E+03 -9.68512E+02 -6.33652E+03  3.96760E+03 -4.27576E+03  3.07896E+03 -2.97717E+03
  2.22236E+03 -2.33335E+03  3.05926E+03 -2.45822E+03  4.25401E+03 -2.30696E+03  5.08099E+03 -8.86299E+02
  7.38872E+03  2.10408E+03  2.98500E+03  5.23441E+03 -2.11931E+03  5.46174E+03 -7.50394E+03  4.35403E+03
 -9.02681E+03 -6.34338E+02 -4.93677E+03 -7.19373E+03 -1.34131E+03 -7.57570E+03  5.90718E+03 -8.98673E+03
  9.53835E+03 -5.56008E+03  1.00051E+04 -5.27176E+02  8.43773E+03  7.57574E+03  1.20104E+03  9.50754E+03
 -4.03888E+03  8.86713E+03 -6.44694E+03  2.70306E+03 -4.14611E+03 -1.54754E+03 -1.43456E+03 -8.73968E+02
 -6.37683E+02  5.27434E+01 -8.69911E+02  2.40635E+03 -4.25105E+03  2.12379E+03 -6.28439E+03 -8.93573E+02
 -4.14733E+03 -5.35149E+03  1.92086E+02 -7.91756E+03  3.88409E+03 -6.69952E+03  7.18773E+03 -2.52838E+03
  8.25972E+03  3.64567E+03  3.70969E+03  6.41050E+03 -3.28773E+03  8.04254E+03 -4.77766E+03  4.87051E+03
 -7.25538E+03  6.12780E+02 -5.81774E+03 -5.55037E+03  3.78026E+02 -6.27775E+03  3.11472E+03 -4.18341E+03
  5.16368E+03 -5.60398E+02  2.96686E+03  1.01776E+03  3.88299E+02  3.08111E+03  5.60907E+02  2.30083E+02
  2.37198E+03  1.01750E+03  1.24896E+03  2.38210E+02  2.71437E+03  3.56365E+03  1.79053E+03  4.25149E+03
 -6.70660E+02  7.14690E+03 -5.75150E+03  6.68365E+03 -7.05499E+03  2.12544E+03 -8.92059E+03 -2.33643E+03
 -4.00614E+03 -7.77452E+03  2.03237E+02 -9.04710E+03  4.74721E+03 -4.50240E+03  5.25031E+03 -1.97632E+03
  6.14649E+03  4.57461E+03  8.27326E+02  3.25024E+03 -1.50797E+03  2.11348E+03 -2.29336E+03  8.99228E+02
 -2.10921E+02 -3.21963E+03  1.83886E+03 -3.38286E+03  2.70083E+03 -1.45970E+03  3.06978E+03 -2.14746E+02
  1.20000E+03  1.23684E+03  1.76831E+03  2.80463E+02 -4.18591E+01  9.75102E+02  1.62778E+03 -1.51037E+03
  1.55926E+02  4.98621E+02  3.02528E+03  1.35764E+03  2.43640E+03  3.53732E+03 -3.85878E+02  4.71444E+03
 -2.61485E+03  3.46496E+03 -5.65121E+03  1.56384E+03 -5.98541E+03 -1.82708E+03 -1.08551E+03 -1.25821E+03
  1.02248E+03 -1.45183E+03  1.72853E+03 -1.00638E+03  1.17839E+03  1.82206E+03 -1.47578E+03  1.93165E+03
 -2.41443E+03  1.14033E+03 -3.68250E+03 -2.53545E+03 -1.69451E+03 -5.08866E+03  8.20206E+02 -2.70389E+03
  2.17666E+03 -1.47657E+03  1.78202E+03 -7.39158E+02  2.21791E+03  7.39191E+02  8.18706E+02  3.97462E+03
 -1.67767E+03  2.10864E+02 -8.63304E+02 -4.43131E+02  1.39027E+03 -2.47916E+03  3.18687E+03 -2.59244E+03
  3.84128E+03  6.72514E+02  5.12652E+03  2.99875E+03  6.44268E+02  2.90162E+03 -1.24681E+03  4.65382E+03
 -2.13528E+03  2.60045E+03 -3.81753E+03 -6.05604E+02 -1.69809E+03 -2.94496E+03  8.66346E+02 -6.98845E+02
  2.01393E+03 -9.48520E+02  9.24103E+02  1.34498E+03  2.07115E+03  2.41460E+03  1.67531E+02  2.78137E+03
 -2.14749E+02  1.37358E+03 -4.45818E+02 -2.89579E+02 -1.41714E+03 -1.08816E+02 -1.35783E+03  1.90300E+03
 -6.89432E+02  3.12964E+03 -3.40069E+03  1.42434E+03 -3.73933E+03  7.71999E+02 -4.43502E+03 -2.36264E+03
 -1.99994E+03 -6.57283E+03  1.95712E+03 -6.99506E+03  3.09726E+03 -5.13719E+03  8.11354E+03 -2.20868E+03
  6.65938E+03  1.32305E+03  3.46070E+03  3.98915E+03 -6.96892E+02  5.26348E+03 -1.05779E+03  3.17405E+03
 -1.31330E+03  9.91323E+02 -2.07955E+03  2.57166E+02 -9.06803E+02 -9.06553E+01 -1.55019E+03  6.53980E+01
 -1.19184E+03 -7.68539E+02 -2.01436E+03 -1.69307E+02 -3.80634E+02 -1.90627E+02 -5.11875E+02 -1.46749E+03
  3.36594E+03 -3.98220E+02  2.22793E+03  8.83980E+01  2.38888E+03  1.13392E+03 -1.20394E+03  4.51212E+03
 -3.20644E+03  4.95304E+03 -4.01267E+03  2.21504E+03 -3.99431E+03  9.96327E+02 -3.42495E+03 -1.65235E+03
 -1.60044E+03 -3.39351E+03  1.25970E+03 -2.50721E+03  2.28870E+03 -2.77129E+03  1.35354E+03 -2.70949E+02
  2.44703E+03  1.46715E+03 -6.77862E+02  1.20498E+03  3.00124E+01 -1.76473E+02  3.74422E+02 -1.37337E+03
  7.80990E+02 -2.66050E+02  2.03277E+03  8.34615E+02  7.69279E+02  1.03000E+03  9.15515E+01  2.51334E+03
 -8.01844E+02  1.61104E+03 -8.74472E+02 -1.07100E+03 -1.18688E+03 -2.04542E+03 -8.51363E+02 -3.86646E+03
  2.64206E+03 -1.86210E+03  1.75882E+03 -3.03018E+02  2.73925E+03 -2.48216E+02  1.89203E+03  1.46434E+03
  1.65037E+03  2.08576E+03 -2.19838E+02  1.46451E+03 -1.45296E+03  1.81256E+03 -1.97433E+03 -2.55894E+02
 -7.59426E+02  3.32578E+02 -2.47803E+02 -1.12346E+03 -1.21309E+03 -2.55315E+02 -2.33056E+03 -4.19429E+02
 -1.70150E+03 -7.39663E+02  1.99137E+02 -2.31893E+03  1.13359E+03 -3.32316E+03  2.41545E+03 -1.75913E+03
  2.62795E+03 -2.41918E+02  1.64927E+03  2.38190E+03 -2.17148E+02  2.93438E+03 -2.66380E+03  2.35001E+03
