 $NMID ID='MM_0lb_SNR200_8hz_g45_17.RAW', FMTDAT='(8E13.5)'
 TRAMP=1., VOLUME=1. $END
  3.09760E+05  4.42123E+02  3.37249E+05  2.52425E+05  8.53071E+04  3.39023E+05 -1.32881E+05  2.50978E+05
 -1.92732E+05  8.45965E+04 -1.12033E+05 -3.27065E+04  1.32856E+03 -5.11185E+04  5.39703E+04 -1.39246E+03
  3.60115E+04  5.14103E+04 -1.65166E+04  7.64093E+04 -6.17300E+04  6.61303E+04 -8.64357E+04  3.23626E+04
 -8.28061E+04 -1.17188E+04 -5.87282E+04 -5.20299E+04 -1.48649E+04 -7.11106E+04  2.82008E+04 -4.67292E+04
  4.15416E+04  4.13840E+03  1.60650E+04  4.78695E+04 -3.69734E+04  4.92306E+04 -6.73853E+04 -3.45024E+02
 -5.48606E+04 -5.82815E+04 -6.15825E+03 -8.05039E+04  3.41453E+04 -5.76488E+04  4.94180E+04 -1.78143E+04
  4.53604E+04  1.16516E+04  3.20405E+04  2.75116E+04  1.54689E+04  3.12031E+04 -5.11482E+03  2.75698E+04
 -2.35468E+04  1.19680E+04 -1.93140E+04 -6.73367E+03  7.63524E+03 -6.88665E+03  2.32085E+04  1.32461E+04
  7.44028E+03  3.79886E+04 -3.39172E+04  3.59534E+04 -6.57558E+04  2.52522E+03 -5.90837E+04 -4.54566E+04
 -1.12568E+04 -6.51775E+04  4.31966E+04 -4.75177E+04  6.14732E+04 -2.92282E+03  3.58089E+04  3.43883E+04
 -5.55164E+03  3.93923E+04 -3.20890E+04  1.87899E+04 -3.28419E+04 -3.21849E+03 -1.96755E+04 -1.08558E+04
 -1.11002E+04 -1.60946E+04 -8.25796E+02 -2.05836E+04  9.00452E+03 -2.26439E+04  1.53517E+04 -1.07929E+04
  1.19166E+04  6.75326E+03 -9.70097E+03  1.22853E+04 -2.63992E+04 -6.28010E+03 -9.02417E+03 -3.91129E+04
  2.51585E+04 -4.68247E+04  5.27508E+04 -2.05166E+04  5.02868E+04  2.02429E+04  1.78529E+04  4.66865E+04
 -1.84224E+04  3.69899E+04 -2.75579E+04  3.09761E+03 -1.28472E+04 -3.01578E+04  2.14786E+04 -3.60429E+04
  4.48897E+04 -1.15904E+04  4.24510E+04  2.55840E+04  1.99040E+04  5.16152E+04 -8.65545E+03  5.53207E+04
 -3.50907E+04  3.84143E+04 -4.87347E+04  1.24499E+04 -4.81622E+04 -1.99940E+04 -2.59883E+04 -4.29432E+04
  8.14977E+03 -4.34597E+04  3.35904E+04 -1.72858E+04  3.27752E+04  9.40063E+03  5.75423E+03  2.14182E+04
 -1.29300E+04  8.99334E+03 -1.20072E+04 -7.32228E+03  4.75862E+03 -9.72980E+03  2.03517E+04  5.44473E+03
  1.47720E+04  2.09233E+04 -5.59974E+03  2.80014E+04 -2.53493E+04  1.36639E+04 -3.17845E+04 -3.76269E+03
 -2.56360E+04 -2.01947E+04 -1.21334E+04 -2.48793E+04  4.77788E+03 -2.78856E+04  2.14072E+04 -2.32872E+04
  3.18314E+04 -1.42081E+04  3.76459E+04  6.27337E+03  2.79126E+04  2.44856E+04  5.21449E+03  4.25376E+04
 -2.10281E+04  3.31785E+04 -2.95109E+04  1.16457E+04 -2.32397E+04 -1.07599E+04 -4.96440E+03 -1.15329E+04
 -1.96395E+01 -1.23225E+03 -6.29186E+03  7.64785E+03 -2.00023E+04  5.15428E+03 -2.07758E+04 -1.19196E+04
 -1.17539E+04 -2.38409E+04  6.54526E+03 -2.86974E+04  1.94219E+04 -2.01094E+04  2.28773E+04 -1.61629E+03
  1.50492E+04  1.51053E+04 -6.04685E+02  2.36106E+04 -1.64919E+04  1.32758E+04 -2.40655E+04 -3.64194E+03
 -1.80523E+04 -2.02066E+04 -2.67538E+03 -2.89124E+04  1.19160E+04 -2.58284E+04  2.36208E+04 -1.37270E+04
  2.30988E+04  4.01386E+02  1.68726E+04  5.61776E+03  9.74771E+03  2.36028E+03  1.30340E+04 -1.23285E+03
  2.28360E+04  2.99171E+03  2.62700E+04  1.88683E+04  1.99561E+04  3.81979E+04 -2.49329E+03  4.55907E+04
 -2.69938E+04  3.80560E+04 -4.20524E+04  1.91485E+04 -4.77487E+04 -3.68695E+03 -3.82612E+04 -2.75446E+04
 -1.46763E+04 -3.83132E+04  1.50166E+04 -3.53562E+04  3.04980E+04 -1.68109E+04  2.40503E+04  8.29432E+03
  6.84106E+03  2.15517E+04 -1.16637E+04  1.62356E+04 -2.05240E+04  2.06220E+03 -1.55375E+04 -1.26287E+04
 -4.35058E+02 -1.91786E+04  1.12253E+04 -1.37379E+04  1.35242E+04  4.38034E+02  4.08843E+03  8.23716E+03
 -7.56154E+03  4.02579E+03 -1.05627E+04 -8.03944E+03 -1.71382E+03 -1.84949E+04  1.36176E+04 -2.01628E+04
  2.39751E+04 -1.15009E+04  2.71505E+04  3.41245E+03  2.61033E+04  1.71984E+04  1.04182E+04  3.09744E+04
 -7.85440E+03  3.33878E+04 -2.21311E+04  1.98923E+04 -2.39332E+04  3.36296E+03 -1.72491E+04 -6.53961E+03
 -7.11247E+03 -8.31821E+03 -8.18020E+02 -1.26382E+02 -2.59337E+03  2.85488E+03 -8.56612E+03  5.21307E+03
 -1.54293E+04 -1.16920E+03 -1.37069E+04 -1.16281E+04 -7.00146E+03 -1.98489E+04  5.31538E+03 -1.65174E+04
  1.42205E+04 -6.04099E+03  8.74101E+03  6.06724E+03 -2.13487E+03  6.09433E+03 -8.85705E+03  1.14418E+03
 -9.32915E+03 -1.04057E+04 -1.52671E+03 -1.76276E+04  8.96066E+03 -1.79989E+04  2.03840E+04 -9.90339E+03
  2.52417E+04  3.36537E+03  1.77395E+04  1.41999E+04  3.05614E+03  2.11907E+04 -1.06079E+04  1.68513E+04
 -1.23112E+04  4.88809E+03 -6.97306E+03 -3.31321E+03  2.15145E+03 -3.16130E+03  7.37236E+03 -1.33738E+03
  7.36369E+03  7.41828E+03  8.74847E+02  1.17229E+04 -9.88346E+03  1.29971E+04 -1.82770E+04  2.10419E+03
 -1.07119E+04 -9.84445E+03 -1.43721E+03 -1.22388E+04  7.99375E+03 -6.64946E+03  8.78092E+03  2.54746E+03
  2.50883E+03  1.18382E+04 -9.73228E+03  1.15478E+04 -1.41367E+04  4.62856E+03 -1.53574E+04 -5.99435E+03
 -8.01347E+03 -1.52899E+04  3.52778E+03 -2.08765E+04  1.72362E+04 -1.08101E+04  1.88366E+04  4.25378E+03
  1.04087E+04  1.51909E+04 -1.44493E+03  1.57508E+04 -1.14468E+04  9.22010E+03 -1.49874E+04  2.19918E+02
 -1.11781E+04 -1.07924E+04  6.45885E+02 -1.37494E+04  6.69129E+03 -1.04676E+04  8.05680E+03 -3.28062E+03
  5.85344E+03  2.01483E+03 -2.43982E+03  3.86719E+03 -1.01607E+03 -4.67266E+03  3.74909E+03 -8.42081E+03
  1.31197E+04 -6.86328E+03  1.69462E+04 -6.66833E+02  1.57868E+04  1.36192E+04  9.78095E+03  2.26524E+04
 -4.66981E+03  2.53138E+04 -2.14824E+04  1.99960E+04 -2.87292E+04  3.69863E+03 -2.25929E+04 -1.03908E+04
 -1.26158E+04 -1.78105E+04 -1.61547E+03 -1.70822E+04  5.48359E+03 -8.43752E+03  4.70010E+03 -6.80606E+03
  5.43000E+03 -1.40840E+03  3.63607E+03 -3.93780E+03  4.99629E+03 -2.10601E+03  8.80066E+03 -1.73652E+03
  1.19607E+04  3.76216E+03  5.99781E+03  9.69101E+03 -2.78398E+03  1.31633E+04 -1.24599E+04  9.66476E+03
 -1.66875E+04 -1.50062E+03 -9.00672E+03 -1.20918E+04 -2.28458E+03 -1.73334E+04  9.57404E+03 -1.76648E+04
  1.76276E+04 -1.00038E+04  2.05217E+04  3.13953E+03  1.38424E+04  1.55427E+04  1.22092E+03  1.88688E+04
 -6.51304E+03  1.39282E+04 -1.13802E+04  6.04324E+03 -6.85866E+03 -1.47454E+03 -1.79300E+03 -4.85228E+03
 -2.52267E+03  5.56304E+02 -1.52729E+03  4.02902E+03 -6.71827E+03  2.99507E+03 -9.45359E+03 -3.15055E+03
 -9.45603E+03 -9.67853E+03 -8.89056E+01 -1.54346E+04  8.86639E+03 -1.58755E+04  1.56729E+04 -4.15420E+03
  1.66772E+04  9.97807E+03  5.60454E+03  1.44890E+04 -4.08062E+03  1.70805E+04 -1.01667E+04  1.13249E+04
 -1.50401E+04  1.61465E+03 -1.05429E+04 -9.50775E+03 -5.95186E+02 -1.38668E+04  6.09597E+03 -1.00576E+04
  1.00030E+04 -3.64494E+03  6.69243E+03  2.19281E+03  3.30631E+03  4.04202E+03  1.01682E+03  2.72470E+03
  4.05179E+03  7.40852E+02  3.61285E+03  3.95054E+03  2.92493E+03  5.27682E+03  4.38799E+03  8.95803E+03
 -4.01976E+03  1.17683E+04 -1.04212E+04  1.21358E+04 -1.72303E+04  3.43375E+03 -1.80716E+04 -6.56557E+03
 -7.64059E+03 -1.69975E+04  2.85495E+03 -1.67439E+04  9.65107E+03 -1.10986E+04  1.24632E+04 -2.82160E+03
  1.08345E+04  7.40841E+03  2.65465E+03  1.05962E+04 -3.99431E+03  5.88023E+03 -6.65730E+03 -2.37120E+03
 -4.12568E+03 -7.32793E+03  4.60729E+03 -6.84279E+03  8.30438E+03 -4.57308E+03  7.63804E+03  1.25299E+03
  3.10706E+03  2.11502E+03  1.33283E+03  3.83313E+03 -1.00124E+03  3.90086E+03  1.04911E+02 -1.46031E+02
  3.20502E+03 -1.17792E+03  6.54097E+03  1.87416E+03  4.20953E+03  8.60845E+03 -6.18288E+02  1.17415E+04
 -9.99576E+03  7.58357E+03 -1.02237E+04  1.48211E+03 -9.90574E+03 -3.14851E+03 -3.49462E+03 -6.57159E+03
  1.92876E+03 -6.72890E+03  4.25217E+03 -3.55339E+03  4.38097E+03  2.79945E+03 -1.33037E+03  4.32787E+03
 -8.30681E+03  3.12271E+03 -8.25713E+03 -3.86514E+03 -4.68212E+03 -1.01810E+04  1.96853E+03 -1.02151E+04
  4.99184E+03 -4.76808E+03  6.13820E+03 -2.84724E+03  4.54975E+03  2.36781E+03 -1.12923E+03  3.72376E+03
 -2.34124E+03  1.14655E+03 -4.46167E+03 -5.89121E+03  5.48773E+02 -7.38187E+03  1.06173E+04 -5.74253E+03
  1.14844E+04  1.55777E+03  1.16631E+04  7.74358E+03  2.70963E+03  1.25217E+04 -4.03219E+03  1.02119E+04
 -7.68492E+03  3.75230E+03 -9.40471E+03 -5.27141E+02 -6.33085E+03 -6.57019E+03  2.14977E+03 -7.23219E+03
  6.52246E+03 -2.77318E+03  6.24142E+03  3.98547E+03  1.44676E+03  6.29136E+03 -5.92932E+02  5.18763E+03
 -5.24628E+03  2.45864E+03 -2.86182E+03  1.26891E+03 -2.88325E+02  2.08156E+03 -1.93380E+03  1.90800E+03
 -1.59666E+03  4.52475E+03 -7.91904E+03  3.17525E+03 -1.19575E+04  2.49913E+03 -1.30606E+04 -6.91551E+03
 -7.14931E+03 -1.48361E+04  3.50127E+03 -1.72859E+04  9.92060E+03 -1.14432E+04  1.75462E+04 -4.92362E+03
  1.54666E+04  3.02241E+03  1.02812E+04  1.08375E+04  2.21866E+02  1.29748E+04 -4.18247E+03  9.10356E+03
 -6.94979E+03  3.57433E+03 -3.63152E+03 -1.65202E+03 -3.47457E+03 -1.35819E+03 -2.94157E+03  4.88274E+02
 -2.20941E+03 -2.91189E+02 -4.25665E+03  6.44313E+02 -1.17974E+03 -4.57226E+03  9.50844E+02 -3.61618E+03
  4.40057E+03 -3.57193E+03  6.06804E+03  5.52783E+02  8.95940E+03  6.10759E+03  1.60633E+03  1.25918E+04
 -5.29712E+03  1.40918E+04 -1.25702E+04  8.53126E+03 -1.47280E+04 -6.59527E+02 -1.11207E+04 -8.17353E+03
 -3.10410E+03 -1.12127E+04  4.40561E+03 -1.13432E+04  6.87930E+03 -7.40042E+03  9.75630E+03  1.62813E+03
  3.93913E+03  3.76950E+03  1.49523E+03  2.47133E+03 -2.80053E+03 -1.04703E+03 -1.58980E+03 -3.44115E+03
  4.31747E+03 -1.73657E+03  4.44130E+03  2.47981E+03  3.17173E+03  4.24164E+03 -9.12770E+02  7.25019E+03
 -5.44466E+03  7.32731E+03 -8.74994E+03  8.03397E+02 -6.57098E+03 -6.00996E+03 -1.56741E+03 -9.67461E+03
  5.16060E+03 -1.02879E+04  1.10307E+04 -2.55534E+03  8.84187E+03  2.69555E+03  5.50714E+03  5.64375E+03
 -5.89301E+02  7.13073E+03 -3.60464E+03  5.71878E+03 -4.58995E+03  4.06937E+03 -3.37415E+03 -5.40523E+02
 -1.75798E+03  5.29077E+01 -4.12683E+03  1.64311E+03 -5.20414E+03  8.28514E+02 -6.20435E+03 -2.26001E+02
 -7.61349E+03 -3.50513E+03 -2.92741E+03 -9.46968E+03  4.30096E+03 -7.86225E+03  6.09112E+03 -4.11704E+03
  8.28029E+03  4.48883E+02  6.82915E+03  7.13259E+03 -5.84508E+02  7.65375E+03 -4.81211E+03  4.42605E+03
