 $NMID ID='MM_0lb_SNR200_9hz_g50_95.RAW', FMTDAT='(8E13.5)'
 TRAMP=1., VOLUME=1. $END
  3.09125E+05  2.69542E+00  3.38912E+05  2.50169E+05  8.53535E+04  3.37731E+05 -1.33108E+05  2.52213E+05
 -1.90169E+05  8.36264E+04 -1.11419E+05 -3.12345E+04 -6.35961E+02 -5.14907E+04  5.43659E+04  6.63310E+02
  3.55801E+04  5.24495E+04 -1.67242E+04  7.73396E+04 -5.98725E+04  6.45529E+04 -8.42919E+04  3.22031E+04
 -8.33251E+04 -1.36998E+04 -5.80443E+04 -5.22855E+04 -1.52438E+04 -7.00396E+04  2.80226E+04 -4.77172E+04
  4.26197E+04  3.98592E+03  1.47122E+04  4.86803E+04 -3.50139E+04  4.81245E+04 -6.93663E+04  2.02662E+01
 -5.42857E+04 -5.90085E+04 -7.77070E+03 -7.71453E+04  3.50675E+04 -5.74433E+04  4.94627E+04 -1.91970E+04
  4.54112E+04  1.16828E+04  3.41752E+04  2.59021E+04  1.60796E+04  3.22708E+04 -4.01505E+03  2.76292E+04
 -2.22861E+04  1.16248E+04 -1.83182E+04 -5.26282E+03  7.07636E+03 -7.67059E+03  2.46359E+04  1.35582E+04
  7.21375E+03  3.64720E+04 -3.33273E+04  3.64874E+04 -6.53735E+04  2.71213E+03 -5.85590E+04 -4.51922E+04
 -1.35477E+04 -6.53085E+04  4.11744E+04 -4.70997E+04  6.08231E+04 -1.86798E+03  3.67852E+04  3.46399E+04
 -4.20646E+03  3.90985E+04 -3.10877E+04  1.77565E+04 -3.40491E+04 -2.75998E+03 -2.09130E+04 -9.75563E+03
 -9.12104E+03 -1.53580E+04  2.59728E+02 -2.02902E+04  8.50559E+03 -2.38743E+04  1.51513E+04 -1.19255E+04
  1.05280E+04  6.27449E+03 -9.24057E+03  1.37384E+04 -2.39506E+04 -7.80889E+03 -8.66635E+03 -3.73202E+04
  2.53314E+04 -4.68033E+04  5.16760E+04 -2.06561E+04  4.94753E+04  2.24243E+04  1.70782E+04  4.67489E+04
 -1.57848E+04  3.64969E+04 -2.67215E+04  3.14174E+03 -1.30648E+04 -2.75908E+04  2.06038E+04 -3.67867E+04
  4.46887E+04 -1.32574E+04  4.17808E+04  2.54191E+04  2.26776E+04  5.15861E+04 -6.98450E+03  5.33445E+04
 -3.59953E+04  3.78067E+04 -4.68012E+04  1.16864E+04 -4.68902E+04 -1.90584E+04 -2.68733E+04 -4.03098E+04
  7.06579E+03 -4.25937E+04  3.48804E+04 -1.78055E+04  3.34288E+04  1.03341E+04  3.59046E+03  2.28811E+04
 -1.42019E+04  9.64132E+03 -1.08110E+04 -6.95410E+03  6.12912E+03 -1.20530E+04  1.91884E+04  6.81999E+03
  1.26720E+04  2.17709E+04 -5.58649E+03  2.75038E+04 -2.33959E+04  1.45009E+04 -3.20316E+04 -2.81628E+03
 -2.44209E+04 -1.74347E+04 -1.14845E+04 -2.59210E+04  3.99451E+03 -2.41780E+04  1.87443E+04 -2.15481E+04
  3.18792E+04 -1.43728E+04  3.89151E+04  6.10968E+03  2.69765E+04  2.52402E+04  4.92810E+03  4.04955E+04
 -1.96386E+04  3.33970E+04 -3.09991E+04  1.27672E+04 -2.28754E+04 -1.07655E+04 -5.30300E+03 -1.31569E+04
  1.43920E+03 -9.95447E+02 -7.38867E+03  8.98340E+03 -2.07351E+04  3.91807E+03 -1.96766E+04 -9.30397E+03
 -1.27767E+04 -2.25241E+04  6.85773E+03 -2.91906E+04  1.89966E+04 -1.98491E+04  2.09414E+04 -1.93979E+03
  1.50346E+04  1.60793E+04 -1.89811E+03  2.36110E+04 -1.61095E+04  1.29093E+04 -2.28882E+04 -5.36544E+03
 -1.74288E+04 -2.07601E+04 -2.22446E+03 -2.90389E+04  1.26789E+04 -2.26895E+04  2.39732E+04 -1.20326E+04
  2.20990E+04  7.05475E+02  1.53091E+04  4.06270E+03  9.48742E+03  3.04122E+02  1.38443E+04 -6.94421E+02
  2.37444E+04  1.58509E+03  2.51759E+04  1.75822E+04  1.74159E+04  3.74989E+04 -1.75454E+03  4.34719E+04
 -2.47121E+04  3.61083E+04 -4.13511E+04  1.99570E+04 -4.42613E+04 -3.30564E+03 -3.63165E+04 -2.62064E+04
 -1.41791E+04 -3.87654E+04  1.35268E+04 -3.15512E+04  2.93121E+04 -1.55742E+04  2.40959E+04  7.90907E+03
  9.09267E+03  1.83820E+04 -1.12181E+04  1.57132E+04 -1.93971E+04  1.50066E+03 -1.45549E+04 -1.25052E+04
 -1.20820E+03 -2.00003E+04  1.11674E+04 -1.36503E+04  1.47086E+04 -8.42863E+02  2.99631E+03  9.48972E+03
 -8.78905E+03  4.55966E+03 -9.05192E+03 -6.74832E+03 -2.35249E+03 -1.83778E+04  1.24495E+04 -2.00790E+04
  2.24886E+04 -1.21538E+04  2.60261E+04  3.29967E+03  2.40946E+04  1.75116E+04  1.12035E+04  3.02502E+04
 -6.31367E+03  3.20784E+04 -2.08890E+04  1.91694E+04 -2.34330E+04  4.80847E+03 -1.62033E+04 -5.25083E+03
 -5.62264E+03 -7.82120E+03 -9.41638E+02  8.44396E+02 -2.09712E+03  4.07776E+03 -6.93210E+03  5.90604E+03
 -1.33392E+04 -2.37415E+03 -1.48946E+04 -1.22935E+04 -6.98358E+03 -1.76049E+04  7.40467E+03 -1.63562E+04
  1.30351E+04 -7.08435E+03  8.37446E+03  3.03230E+03  6.29565E+02  5.70658E+03 -6.90876E+03 -7.94428E+02
 -7.75136E+03 -1.00717E+04 -7.36679E+02 -1.55297E+04  8.75001E+03 -1.74268E+04  2.14241E+04 -9.18427E+03
  2.42146E+04  2.02510E+03  1.64252E+04  1.30200E+04  3.90147E+03  1.99801E+04 -1.05183E+04  1.45118E+04
 -1.07957E+04  5.19027E+03 -6.16890E+03 -3.16043E+03  1.55825E+03 -4.19753E+03  7.62949E+03 -1.33315E+03
  7.71062E+03  7.53661E+03 -6.39936E+02  1.11426E+04 -8.52181E+03  1.27335E+04 -1.66219E+04  3.94365E+03
 -1.20260E+04 -8.83528E+03  2.13943E+03 -1.51654E+04  8.74539E+03 -7.43980E+03  1.01655E+04  3.93335E+03
  1.98592E+03  9.33393E+03 -8.09299E+03  1.20923E+04 -1.29971E+04  5.16882E+03 -1.43462E+04 -5.95721E+03
 -7.06940E+03 -1.75169E+04  3.49486E+03 -1.80713E+04  1.59928E+04 -1.04643E+04  1.73138E+04  2.98454E+03
  1.02292E+04  1.23910E+04 -1.33135E+03  1.61894E+04 -1.01771E+04  9.52025E+03 -1.24332E+04 -2.28779E+03
 -1.11679E+04 -1.03930E+04 -1.28607E+03 -1.45373E+04  5.90003E+03 -1.09129E+04  6.84176E+03 -2.96450E+03
  4.10670E+03  2.82532E+03 -5.87479E+02  1.94636E+03 -5.51330E+02 -3.66508E+03  1.89284E+03 -7.57964E+03
  1.09520E+04 -5.22462E+03  1.49271E+04  2.13658E+03  1.71604E+04  1.06282E+04  1.01302E+04  2.16337E+04
 -4.76984E+03  2.52465E+04 -1.88342E+04  1.84342E+04 -2.61922E+04  2.45265E+03 -2.14794E+04 -9.86970E+03
 -1.03795E+04 -1.62037E+04  2.44151E+02 -1.48508E+04  5.61084E+03 -6.20763E+03  5.60106E+03 -6.56915E+03
  3.35543E+03 -1.36303E+03  4.34194E+03 -3.95616E+03  5.64403E+03 -2.52529E+03  6.92344E+03 -1.81817E+03
  1.13850E+04  1.73438E+03  4.42751E+03  8.00713E+03 -4.15455E+02  1.20575E+04 -9.72003E+03  8.92990E+03
 -1.47406E+04 -1.27802E+03 -9.09547E+03 -1.19037E+04 -2.02792E+03 -1.57734E+04  7.24688E+03 -1.58004E+04
  1.49864E+04 -8.45972E+03  2.00743E+04  2.17908E+03  1.60314E+04  1.29150E+04  3.49608E+03  1.86672E+04
 -6.85604E+03  1.51900E+04 -9.56022E+03  5.08706E+03 -7.06012E+03 -1.75861E+03 -2.67081E+03 -2.67641E+03
 -1.84284E+03 -1.52465E+02 -3.08843E+03  3.73167E+03 -7.29938E+03  2.83876E+03 -1.13967E+04 -2.37163E+03
 -7.79661E+03 -1.09556E+04  1.15904E+03 -1.47023E+04  9.39600E+03 -1.33791E+04  1.61166E+04 -5.01026E+03
  1.31109E+04  6.93912E+03  5.67911E+03  1.41553E+04 -2.11168E+03  1.61497E+04 -1.02820E+04  9.98484E+03
 -1.26211E+04 -4.45467E+01 -1.09041E+04 -9.24597E+03 -8.97353E+02 -1.28171E+04  6.61006E+03 -9.13039E+03
  8.79134E+03 -3.50867E+03  6.27179E+03  2.51220E+03  2.57967E+03  4.62487E+03  1.29308E+03  1.40213E+03
  1.22649E+03  9.42713E+02  3.42491E+03  2.17395E+03  5.05138E+03  4.25744E+03  3.05289E+03  8.47353E+03
 -3.52204E+03  1.17387E+04 -9.65219E+03  1.08486E+04 -1.59058E+04  3.80000E+03 -1.53939E+04 -6.88747E+03
 -7.63987E+03 -1.49012E+04  3.16068E+03 -1.72064E+04  8.82245E+03 -9.55099E+03  1.22658E+04 -1.48532E+03
  9.35972E+03  6.24883E+03  2.93167E+03  9.36855E+03 -4.48471E+03  5.10927E+03 -6.64869E+03  1.17999E+03
 -3.41504E+03 -7.09492E+03  5.15891E+03 -7.75679E+03  4.89500E+03 -3.24630E+03  6.52138E+03  8.45343E+02
  4.34288E+03  4.22329E+03  1.51988E+03  1.94576E+03 -1.66261E+03  3.01889E+03  3.50646E+03 -6.54428E+02
  3.40403E+03 -8.87618E+02  8.15969E+03  2.86144E+03  2.70595E+03  8.78359E+03 -1.84676E+03  8.89732E+03
 -7.10240E+03  5.54330E+03 -9.42487E+03  9.55145E+02 -8.19329E+03 -2.02116E+03 -3.94983E+03 -5.61282E+03
  6.46269E+02 -4.72859E+03  3.24004E+03 -3.79122E+03  3.70290E+03  2.75564E+03 -2.48764E+03  6.69763E+03
 -6.20595E+03  3.05419E+03 -7.15690E+03 -2.32251E+03 -5.88869E+03 -8.75402E+03  8.83640E+02 -7.16665E+03
  5.78000E+03 -5.83270E+03  5.61385E+03 -1.62715E+03  4.87265E+03  1.80720E+03  1.03600E+03  3.29714E+03
 -3.16837E+03  1.28694E+03 -3.66031E+03 -1.97344E+03  4.69270E+02 -7.90486E+03  7.67607E+03 -5.28104E+03
  9.91694E+03  5.56647E+02  1.04966E+04  6.56931E+03  1.99417E+03  8.59020E+03 -3.19563E+03  8.28402E+03
 -9.95520E+03  1.94493E+03 -7.99561E+03 -9.29467E+02 -4.35095E+03 -6.72892E+03  1.35024E+03 -5.15433E+03
  5.07583E+03 -4.36713E+03  5.48767E+03  1.92275E+03  1.67163E+03  5.57737E+03  1.83663E+03  5.64541E+03
 -3.70626E+03  3.62331E+03 -2.02700E+03  2.96191E+00 -9.57692E+02  8.76448E+02 -1.46992E+03  1.26566E+03
 -2.07007E+03  4.75040E+03 -6.01183E+03  3.67563E+03 -1.00137E+04 -2.55351E+03 -9.52832E+03 -7.84332E+03
 -5.75369E+03 -1.34592E+04  2.19192E+03 -1.40960E+04  9.35277E+03 -1.13679E+04  1.38278E+04 -3.93765E+03
  1.42500E+04  1.95637E+03  8.76599E+03  6.81392E+03  7.83428E+02  1.08031E+04 -3.31151E+03  7.33375E+03
 -4.62267E+03  1.91843E+03 -4.30034E+03 -1.10132E+03  7.02853E+01 -1.14881E+02  1.61536E+01 -5.19592E+01
 -2.56413E+03 -3.45394E+02 -1.89188E+03 -1.08225E+03  5.13978E+02 -2.49030E+03  4.44546E+02 -3.31844E+03
  5.71728E+03 -5.16370E+03  6.13352E+03  5.27176E+02  8.96934E+03  4.91406E+03  3.56890E+02  1.10142E+04
 -5.71292E+03  1.24354E+04 -1.07986E+04  6.04808E+03 -1.31509E+04 -7.66163E+02 -9.18769E+03 -7.54670E+03
 -4.11285E+03 -1.08152E+04  2.00860E+03 -1.01250E+04  7.06013E+03 -5.27774E+03  6.26682E+03 -3.20153E+02
  2.92381E+03  4.93349E+03  3.15912E+02  2.49058E+03 -2.52880E+03  3.13570E+02 -5.95539E+02 -7.11842E+02
  1.93304E+03 -1.23076E+03  4.25756E+03  2.59882E+02  3.41203E+03  4.66750E+03  9.13631E+02  6.79121E+03
 -6.49396E+03  4.34564E+03 -7.55572E+03  5.65018E+02 -6.64848E+03 -4.73121E+03 -5.92976E+02 -9.29693E+03
  3.41959E+03 -6.59033E+03  8.40571E+03 -3.36096E+03  8.18414E+03  3.08061E+03  4.67873E+03  6.95801E+03
  1.23992E+03  8.09706E+03 -2.28242E+03  4.45222E+03 -4.15153E+03  3.32848E+03 -3.65997E+03  5.48148E+02
 -2.82150E+03 -4.41172E+02 -1.82965E+03  3.49068E+00 -4.72631E+03 -5.86781E+02 -6.64724E+03 -9.63365E+02
 -5.54792E+03 -3.48813E+03 -2.15521E+03 -6.88019E+03  2.87663E+03 -7.86250E+03  6.06128E+03 -3.64532E+03
  7.24956E+03  1.17604E+03  3.73508E+03  6.19651E+03 -1.60108E+03  7.22867E+03 -4.07685E+03  4.06664E+03
