 $NMID ID='MM_0lb_SNR200_19hz_g60_74.RAW', FMTDAT='(8E13.5)'
 TRAMP=1., VOLUME=1. $END
  3.09958E+05  6.16917E+02  3.37783E+05  2.49854E+05  8.40709E+04  3.37988E+05 -1.33103E+05  2.50799E+05
 -1.90188E+05  8.20904E+04 -1.11681E+05 -3.28082E+04  1.20304E+03 -4.99131E+04  5.31205E+04  5.26574E+02
  3.46933E+04  5.26662E+04 -1.63854E+04  7.55962E+04 -5.95831E+04  6.22855E+04 -8.37865E+04  3.03189E+04
 -8.11790E+04 -1.24570E+04 -5.70571E+04 -5.14672E+04 -1.56354E+04 -6.87527E+04  2.68389E+04 -4.57003E+04
  4.00201E+04  4.21952E+03  1.66195E+04  4.74515E+04 -3.41164E+04  4.71750E+04 -6.58473E+04 -7.69677E+02
 -5.28388E+04 -5.55975E+04 -7.92727E+03 -7.62166E+04  3.46721E+04 -5.35024E+04  4.63566E+04 -1.77281E+04
  4.17559E+04  1.04212E+04  3.04054E+04  2.54553E+04  1.64070E+04  2.75162E+04 -5.10116E+03  2.72943E+04
 -2.09945E+04  1.33284E+04 -1.90942E+04 -4.46320E+03  4.96935E+03 -7.33487E+03  2.15753E+04  1.05569E+04
  7.44505E+03  3.36836E+04 -3.15024E+04  3.58279E+04 -6.24066E+04  1.45997E+03 -5.56201E+04 -4.16015E+04
 -1.23465E+04 -6.27056E+04  3.93049E+04 -4.51983E+04  5.66540E+04 -1.87201E+03  3.22226E+04  3.10824E+04
 -7.08251E+03  3.42309E+04 -2.88609E+04  1.60294E+04 -2.85874E+04 -4.83264E+03 -1.49189E+04 -1.13321E+04
 -8.29682E+03 -1.21615E+04 -1.22591E+03 -1.84229E+04  7.22426E+03 -2.27852E+04  1.55579E+04 -1.36224E+04
  1.16797E+04  4.35787E+03 -7.22630E+03  1.30295E+04 -1.95392E+04 -2.82670E+03 -8.80479E+03 -3.19683E+04
  2.05168E+04 -4.21450E+04  4.52660E+04 -1.93156E+04  4.37357E+04  1.91925E+04  1.47472E+04  4.31453E+04
 -1.52337E+04  3.20818E+04 -2.46411E+04  1.54642E+03 -9.86946E+03 -2.74455E+04  2.09452E+04 -3.33815E+04
  3.97517E+04 -7.75380E+03  3.22819E+04  2.46093E+04  1.66021E+04  4.38083E+04 -6.62486E+03  4.72220E+04
 -2.90723E+04  3.14222E+04 -4.00071E+04  8.88250E+03 -3.97688E+04 -1.60940E+04 -2.28560E+04 -3.59585E+04
  6.81432E+03 -3.66081E+04  2.93211E+04 -1.32309E+04  2.81722E+04  1.02455E+04  4.14743E+03  1.78898E+04
 -1.35138E+04  8.47656E+03 -1.01163E+04 -6.81402E+03  6.73726E+03 -1.03601E+04  1.75562E+04  5.99389E+03
  1.34297E+04  2.13238E+04 -6.24796E+03  2.45408E+04 -2.11133E+04  9.09673E+03 -2.70621E+04 -5.46604E+03
 -1.90350E+04 -1.71363E+04 -6.10084E+03 -1.85464E+04  3.59044E+03 -1.58682E+04  1.30404E+04 -1.55102E+04
  2.26890E+04 -1.26586E+04  2.95610E+04  1.97144E+03  2.21380E+04  1.73873E+04  4.85050E+03  3.37951E+04
 -1.63879E+04  2.87953E+04 -2.59480E+04  9.70078E+03 -2.07222E+04 -1.08095E+04 -3.75834E+03 -1.34821E+04
  2.85063E+03 -3.28153E+03 -3.81928E+03  5.73892E+03 -1.43482E+04  5.42400E+03 -1.55281E+04 -6.18456E+03
 -8.86721E+03 -1.54936E+04  4.34653E+03 -2.14197E+04  1.39361E+04 -1.48267E+04  1.50025E+04 -1.17104E+03
  1.05194E+04  1.22556E+04 -2.26797E+02  1.67076E+04 -1.03801E+04  1.01190E+04 -1.62260E+04 -2.63276E+03
 -1.21586E+04 -1.48716E+04 -1.43089E+03 -2.03454E+04  8.82211E+03 -1.57966E+04  1.72131E+04 -8.16836E+03
  1.62950E+04  1.08908E+03  1.01502E+04  4.09818E+03  6.10075E+03  7.50640E+02  8.08244E+03 -2.21990E+03
  1.43291E+04  3.23067E+03  1.61553E+04  1.35185E+04  1.02168E+04  2.66425E+04 -2.42752E+03  2.74691E+04
 -1.66823E+04  2.28291E+04 -2.68368E+04  1.06179E+04 -2.76513E+04 -2.53447E+03 -2.23570E+04 -1.54993E+04
 -9.93415E+03 -2.22265E+04  7.42488E+03 -1.94958E+04  1.67545E+04 -1.11599E+04  1.60111E+04  4.10332E+03
  6.37804E+03  1.16200E+04 -7.63051E+03  1.14165E+04 -1.31437E+04  2.76720E+03 -1.11802E+04 -7.89787E+03
 -1.11647E+03 -1.22477E+04  7.15126E+03 -1.09866E+04  8.27403E+03 -6.79563E+02  8.98827E+02  6.11211E+03
 -5.33469E+03  9.29265E+02 -4.13902E+03 -4.06998E+03 -1.20859E+00 -1.14836E+04  8.40016E+03 -1.15473E+04
  1.36453E+04 -5.28658E+03  1.26601E+04  2.87160E+03  1.13350E+04  1.00743E+04  5.87285E+03  1.59457E+04
 -1.60155E+03  1.68386E+04 -1.09087E+04  1.00281E+04 -1.16244E+04  2.60989E+03 -9.22014E+03 -9.27435E+02
 -5.04418E+03 -3.03876E+03 -8.97383E+02  1.31861E+03 -2.38825E+03  2.35128E+03 -3.10037E+03  3.71627E+03
 -8.77815E+03 -7.38057E+02 -9.57198E+03 -6.20384E+03 -3.99966E+03 -1.15367E+04  3.67669E+03 -9.59179E+03
  6.79390E+03 -3.42176E+03  6.25197E+03  3.65907E+03  1.90444E+01  3.42340E+03 -3.61489E+03 -6.68829E+02
 -3.27066E+03 -5.70421E+03 -4.46931E+02 -6.54533E+03  4.08393E+03 -9.40097E+03  1.03624E+04 -4.29166E+03
  1.23044E+04  9.17109E+02  8.96377E+03  6.08570E+03  2.03450E+03  9.64892E+03 -5.65634E+03  7.84831E+03
 -8.12142E+03  3.56835E+03 -3.56737E+03 -5.83096E+02  9.42866E+02 -3.67989E+03  4.87222E+03 -1.36536E+03
  5.35779E+03  4.57604E+03  1.42844E+03  6.56041E+03 -3.57463E+03  7.06618E+03 -8.74204E+03  1.63051E+03
 -5.40691E+03 -4.31726E+03 -1.47244E+02 -6.84374E+03  3.78804E+03 -2.41299E+03  3.91393E+03  5.82248E+02
  9.06375E+02  4.24122E+03 -4.67328E+03  5.92833E+03 -4.78348E+03  2.68027E+03 -3.96277E+03 -2.01962E+03
 -4.01434E+03 -6.24770E+03  9.51865E+02 -8.29543E+03  6.81781E+03 -4.74044E+03  6.71729E+03 -1.74580E+02
  4.78126E+03  5.46573E+03  2.82790E+02  7.48812E+03 -4.62050E+03  4.57971E+03 -3.42842E+03 -9.13296E+02
 -5.85525E+03 -4.76725E+03 -8.70083E+02 -5.66069E+03  2.90203E+03 -4.48329E+03  3.31682E+03 -2.47815E+03
  3.49213E+03  2.56058E+02  7.42432E+02  3.14163E+02  2.15846E+02  6.54495E+02 -1.31493E+02 -2.08148E+03
  4.31798E+03 -1.35953E+03  5.31091E+03  1.97060E+03  5.66337E+03  3.09699E+03  5.19640E+03  7.40045E+03
 -1.44438E+03  8.89449E+03 -7.57056E+03  6.19337E+03 -1.08915E+04  6.16930E+02 -7.36486E+03 -3.02361E+03
 -3.66104E+03 -5.59895E+03 -4.79729E+02 -5.35499E+03  1.87726E+03 -2.48428E+03  2.74737E+03 -1.80994E+03
  1.27965E+03 -2.97755E+03  2.58774E+03 -1.35040E+03  4.00318E+03 -1.45101E+03  2.85050E+03 -7.60794E+02
  4.62359E+03  3.83579E+02  2.29509E+02  2.76387E+03 -2.19658E+03  2.86067E+03 -4.71833E+03  2.86396E+03
 -5.31036E+03 -8.85680E+02 -2.24433E+03 -3.30004E+03 -1.17895E+03 -6.08917E+03  2.59339E+03 -5.30451E+03
  4.26097E+03 -2.53606E+03  6.94260E+03  2.82806E+02  4.82919E+03  4.60139E+03  1.68276E+03  5.56029E+03
 -2.63851E+03  6.34940E+03 -3.97060E+03  1.66019E+03 -1.78890E+03 -9.93158E+01 -4.77777E+02 -3.79090E+02
 -6.07704E+02  3.55560E+02 -1.09176E+03  2.06179E+03 -2.25523E+03  3.61391E+02 -3.89069E+03 -7.92621E+02
 -1.74176E+03 -3.45960E+03  1.04522E+03 -4.95261E+03  2.08548E+03 -5.87868E+03  1.99493E+03 -1.13288E+03
  5.12090E+03  1.78515E+03  2.14300E+03  3.82382E+03 -1.65570E+03  4.57461E+03 -2.09013E+03  1.92541E+03
 -4.35705E+03 -9.11495E+01 -4.07562E+03 -1.78765E+03 -6.06342E+01 -1.72783E+03  1.56224E+03 -3.10398E+03
  2.48004E+03 -1.31281E+03  2.07959E+03 -1.29382E+02  2.65137E+02  1.46216E+03  1.60907E+03  6.53713E+02
  2.92131E+03  4.24105E+02  1.46965E+03  1.12949E+03  1.05835E+03  1.61125E+03  5.89171E+02  1.80978E+03
 -1.48252E+03  3.38141E+03 -3.00354E+03  3.44791E+03 -2.56844E+03  3.73294E+02 -3.80402E+03 -1.07038E+02
 -1.71045E+03 -4.01616E+03  7.56031E+02 -4.92706E+03  4.97506E+02 -2.68467E+03  2.94604E+03 -1.90812E+03
  2.69261E+03  1.43991E+03  1.31592E+01  2.81654E+03 -2.00831E+02  1.23854E+03 -1.75014E+03 -1.26472E+03
 -7.89104E+02 -7.26179E+01  6.11702E+02 -1.06943E+03  1.96311E+02 -1.74115E+03  1.04347E+03  7.76896E+02
  1.04316E+03  2.79429E+02  1.98588E+02 -1.04677E+02 -7.23051E+02  6.03681E+02  2.45774E+03 -7.54176E+00
  2.72608E+02  2.19231E+00  8.97869E+02  1.49474E+03  5.38064E+02  9.84810E+02  4.75927E+02  2.59693E+03
 -1.19995E+03  5.20353E+02 -9.51172E+02  4.21639E+02 -1.54225E+03 -8.36724E+02  2.73298E+01 -6.37234E+02
  4.15707E+02 -1.40996E+03  3.87788E+02  2.57403E+02  4.16360E+02  1.09748E+03 -1.01378E+03  1.14063E+03
 -1.69930E+03  2.16007E+00 -1.15225E+03 -2.58311E+03 -5.53890E+02 -1.81704E+03 -4.49202E+02 -1.91973E+03
  3.49018E+02 -1.44275E+03  2.15639E+02 -3.47215E+02  1.44430E+03 -2.98276E+02  9.92687E+02  2.04003E+03
 -1.47462E+03  7.48907E+02 -9.37936E+02  3.98535E+02  1.07222E+03  2.62549E+02  1.02075E+03 -1.09266E+03
  7.51920E+02  7.27964E+02  1.49636E+03 -1.99053E+02  8.26958E+02  6.40147E+02 -5.26731E+02  6.78198E+02
 -1.94320E+03  8.05447E+02 -1.47830E+03 -8.54154E+02 -8.26020E+02 -1.71698E+03  7.17616E+02  5.07020E+02
  1.21280E+03  5.77308E+02  3.42222E+02  1.30722E+02  2.38917E+02  1.93295E+03  1.59456E+02 -3.62799E+02
 -1.97678E+03 -2.91744E+00  6.02804E+02 -4.67099E+02  3.86032E+02  9.92389E+02 -1.94253E+02 -4.18121E+02
 -9.70874E+02  2.81665E+02 -2.88818E+03  5.34976E+02 -2.31653E+03  7.38199E+01 -1.91963E+03 -1.46080E+03
 -9.37915E+02 -2.14843E+03 -1.82770E+02 -2.90894E+03  9.86791E+01 -1.32238E+03  3.01974E+03 -9.12132E+01
  2.55338E+03 -5.63985E+02  2.21934E+03  8.73443E+02 -7.93935E+02  2.06039E+03  3.62457E+01  1.33180E+03
 -9.14414E+02  4.96285E+02 -2.17264E+02 -4.98079E+02 -1.46222E+03  3.22735E+02 -1.62079E+03 -8.38746E+02
 -2.95686E+02  3.94930E+02  6.63415E+02  2.66983E+01  9.70532E+02 -2.06988E+03 -5.20079E+02 -1.75047E+03
  3.71022E+02 -6.31940E+02  4.09320E+02 -5.04927E+01  9.82614E+02  1.38612E+03 -1.67793E+03  1.73763E+03
  2.76377E+02  1.25622E+03 -2.41671E+03  1.31186E+03 -2.62667E+03  1.08690E+03 -1.91422E+03  8.98660E+01
 -3.54632E+02 -5.86562E+02 -1.53377E+02 -1.45157E+03  1.48752E+03 -5.80039E+02 -2.59580E+02  5.79980E+01
  3.75460E+02 -7.26021E+02  1.80736E+02  9.97990E+02 -5.42414E+02  2.61905E+02  3.58057E+02 -6.11380E+01
  4.39026E+02 -4.13638E+02 -2.76932E+02  1.04115E+03  9.57204E+02 -7.00822E+02  3.46786E+02  9.18738E+02
  5.87780E+02  2.64063E+02 -4.57744E+02  2.07937E+02 -1.34237E+02  1.01482E+03 -3.77160E+02 -1.38597E+03
  1.25879E+03  1.24108E+02 -4.39514E+02 -9.59273E+01  6.34470E+02  8.48091E+01 -9.32544E+01  8.50574E+01
 -8.09815E+02  6.29916E+02 -5.04427E+02  4.66665E+02 -7.67119E+02  1.23590E+03 -3.12828E+02 -6.21717E+02
  1.54699E+02 -4.77155E+02  4.28640E+02  1.11258E+03  1.79783E+02  1.49778E+03 -7.97580E+02 -3.36262E+01
  3.56643E+02  1.44274E+03  4.44157E+02 -8.83713E+02  5.70153E+02 -2.17284E+03  2.63245E+02  1.37727E+02
  1.23824E+03 -2.34579E+02 -4.35758E+02 -1.70629E+02 -3.37048E+02 -6.07746E+02 -3.55772E+02 -4.05291E+02
