 $NMID ID='MM_0lb_SNR200_20hz_g40_60.RAW', FMTDAT='(8E13.5)'
 TRAMP=1., VOLUME=1. $END
  3.08866E+05  1.85982E+03  3.36908E+05  2.49527E+05  8.43179E+04  3.36613E+05 -1.32239E+05  2.49638E+05
 -1.90229E+05  8.17994E+04 -1.10022E+05 -3.25032E+04  2.52571E+03 -5.12102E+04  5.31575E+04 -4.07555E+02
  3.53530E+04  5.34434E+04 -1.67304E+04  7.53209E+04 -5.96855E+04  6.20122E+04 -8.19954E+04  3.17926E+04
 -7.79399E+04 -9.92966E+03 -5.52335E+04 -4.98692E+04 -1.56692E+04 -6.68514E+04  2.60015E+04 -4.37120E+04
  3.99161E+04  4.59325E+03  1.56494E+04  4.58475E+04 -3.28121E+04  4.63664E+04 -6.48764E+04 -1.43883E+03
 -5.16146E+04 -5.51012E+04 -5.94510E+03 -7.31347E+04  3.26933E+04 -5.22322E+04  4.44865E+04 -1.45197E+04
  4.07371E+04  1.12526E+04  3.03048E+04  2.41885E+04  1.60047E+04  2.75830E+04 -4.02704E+03  2.59231E+04
 -2.16658E+04  1.31445E+04 -1.93609E+04 -4.28940E+03  4.10915E+03 -7.26736E+03  2.02136E+04  1.06592E+04
  7.98194E+03  3.26955E+04 -3.00617E+04  3.35933E+04 -5.93684E+04  1.86687E+03 -5.49374E+04 -4.10587E+04
 -1.27745E+04 -5.85401E+04  3.74877E+04 -4.17875E+04  5.36834E+04 -1.73331E+03  3.05453E+04  3.02257E+04
 -7.38969E+03  3.16804E+04 -2.70015E+04  1.22739E+04 -2.63179E+04 -6.14556E+03 -1.36790E+04 -1.01941E+04
 -6.34186E+03 -1.03800E+04 -7.50117E+02 -1.55805E+04  6.12856E+03 -2.29047E+04  1.55225E+04 -1.42011E+04
  1.25166E+04  2.99762E+03 -5.76330E+03  1.32236E+04 -1.80057E+04 -2.97861E+03 -8.05161E+03 -2.93085E+04
  1.99861E+04 -3.85985E+04  4.28416E+04 -1.84959E+04  4.08126E+04  1.74487E+04  1.37057E+04  4.07214E+04
 -1.48845E+04  2.97818E+04 -2.22466E+04  7.95763E+02 -6.48396E+03 -2.51823E+04  2.04687E+04 -2.91180E+04
  3.62302E+04 -6.75065E+03  2.98900E+04  2.19264E+04  1.38428E+04  4.04498E+04 -8.07320E+03  4.23339E+04
 -2.63894E+04  2.74730E+04 -3.48909E+04  7.51888E+03 -3.65279E+04 -1.42488E+04 -1.99896E+04 -3.27675E+04
  5.93833E+03 -3.21882E+04  2.81326E+04 -1.11447E+04  2.58239E+04  1.13832E+04  2.88705E+03  1.64285E+04
 -1.36174E+04  6.57516E+03 -9.68843E+03 -7.37097E+03  5.97906E+03 -8.83942E+03  1.74494E+04  6.84329E+03
  1.22817E+04  2.13110E+04 -7.30064E+03  2.17375E+04 -2.15519E+04  8.57427E+03 -2.31428E+04 -7.76229E+03
 -1.53921E+04 -1.50910E+04 -4.50882E+03 -1.45610E+04  3.69532E+03 -1.26889E+04  1.17204E+04 -1.27640E+04
  1.94824E+04 -1.20890E+04  2.64051E+04  3.62558E+02  1.92947E+04  1.46498E+04  3.66233E+03  3.10681E+04
 -1.50013E+04  2.66526E+04 -2.52935E+04  8.67920E+03 -1.95598E+04 -1.11021E+04 -3.99551E+03 -1.40896E+04
  3.36094E+03 -4.34585E+03 -1.74858E+03  4.45724E+03 -1.15980E+04  5.14693E+03 -1.15599E+04 -4.65568E+03
 -7.66669E+03 -1.31395E+04  3.62184E+03 -1.78912E+04  1.15014E+04 -1.20948E+04  1.31109E+04 -2.00997E+03
  8.68682E+03  1.05572E+04 -6.15816E+02  1.38413E+04 -8.83712E+03  9.06238E+03 -1.50698E+04 -3.07508E+03
 -9.98591E+03 -1.31673E+04 -1.47529E+03 -1.72586E+04  8.06456E+03 -1.27750E+04  1.46481E+04 -5.67279E+03
  1.40631E+04 -3.99665E+02  8.51468E+03  4.40225E+03  4.19229E+03  4.44414E+02  7.08990E+03 -1.75405E+02
  1.19467E+04  2.57176E+03  1.28587E+04  1.00938E+04  6.78422E+03  2.27416E+04 -3.46294E+03  2.29956E+04
 -1.37242E+04  1.82824E+04 -2.09033E+04  9.09247E+03 -2.13816E+04 -1.75244E+03 -1.90268E+04 -1.20732E+04
 -8.83733E+03 -1.73783E+04  6.54511E+03 -1.79649E+04  1.48917E+04 -1.01151E+04  1.47367E+04  3.40916E+03
  5.85961E+03  8.96348E+03 -6.04285E+03  9.28121E+03 -1.27047E+04  2.22504E+03 -9.79852E+03 -7.36251E+03
 -5.35589E+02 -1.09260E+04  6.47766E+03 -7.97710E+03  6.24168E+03 -1.39395E+03  7.13626E+02  3.63780E+03
 -6.02516E+03  5.40502E+02 -3.14769E+03 -4.40739E+03  1.41713E+03 -8.86331E+03  7.90168E+03 -9.16498E+03
  1.10076E+04 -3.37594E+03  9.73917E+03  2.15884E+03  8.62988E+03  8.41792E+03  4.05300E+03  1.25520E+04
 -2.01780E+03  1.40062E+04 -7.94570E+03  9.03534E+03 -8.64414E+03  2.67355E+03 -8.01935E+03 -1.99997E+03
 -4.11805E+03 -2.69034E+03 -9.03198E+02  1.46167E+03 -1.72936E+03  1.33683E+03 -2.60432E+03  3.54038E+03
 -6.62336E+03 -9.42833E+02 -7.89177E+03 -5.90691E+03 -3.42252E+03 -1.01701E+04  4.21832E+03 -7.95322E+03
  6.61143E+03 -2.74746E+03  5.30348E+03  1.03618E+03  7.50344E+02  2.63327E+03 -2.51739E+03 -7.38803E+01
 -3.02783E+03 -5.04515E+03 -1.75575E+03 -6.22275E+03  2.25446E+03 -5.42247E+03  9.27935E+03 -2.59749E+03
  9.44834E+03  6.04648E+02  7.13242E+03  6.33301E+03  2.35869E+03  7.08561E+03 -4.63599E+03  6.38368E+03
 -6.10461E+03  1.61393E+03 -3.38998E+03 -8.70580E+02  1.36302E+03 -1.78560E+03  4.24702E+03 -1.10141E+03
  3.59087E+03  2.71910E+03  1.69034E+03  6.16092E+03 -3.96230E+03  5.38455E+03 -7.34744E+03  1.45829E+03
 -3.67584E+03 -2.73486E+03  2.58129E+02 -5.92439E+03  2.70743E+03 -2.59404E+03  2.58742E+03 -1.95373E+02
  8.15814E+02  2.19881E+03 -3.48759E+03  3.68281E+03 -4.19135E+03  1.86778E+03 -3.41429E+03 -1.03495E+03
 -2.45655E+03 -4.39385E+03  1.16709E+03 -5.84238E+03  4.97352E+03 -4.08382E+03  4.05991E+03 -4.84488E+00
  4.74936E+03  4.32835E+03  3.86022E+02  6.80690E+03 -4.09132E+03  4.02182E+03 -4.16100E+03 -5.09334E+02
 -4.17247E+03 -4.77581E+03 -1.50145E+03 -4.52052E+03  1.08617E+03 -3.18739E+03  1.41683E+03 -2.28853E+03
  2.12028E+03  1.16854E+02  5.30164E+02  1.14381E+03  8.05685E+02  6.22548E+02 -1.12193E+03 -7.47956E+02
  2.14088E+03  6.00746E+02  3.33179E+03  7.00689E+02  5.59582E+03  2.83923E+03  4.63399E+03  5.14515E+03
 -5.26956E+02  7.33841E+03 -6.28040E+03  5.18624E+03 -8.72484E+03  1.44819E+03 -6.55972E+03 -1.56583E+03
 -3.57692E+03 -5.24907E+03 -9.79782E+02 -4.05245E+03  7.25138E+02 -1.52948E+03  1.57577E+03 -1.68331E+03
  4.40644E+02 -1.32388E+03  1.53122E+03 -2.56428E+03  2.96171E+03 -1.50416E+03  2.74554E+03  1.48530E+03
  3.96094E+03  8.79982E+02  7.72429E+02  3.30972E+03 -2.35623E+03  2.48734E+03 -3.64281E+03  2.58716E+03
 -3.99713E+03 -1.04051E+03 -6.77159E+02 -3.03038E+03  1.15002E+03 -3.80433E+03  2.22254E+03 -4.56033E+03
  4.38285E+03 -1.76012E+03  5.12853E+03 -8.30466E+00  4.51565E+03  4.00259E+03  1.63208E+03  4.73181E+03
 -1.43713E+03  5.38711E+03 -3.57488E+03  2.06763E+03 -1.75973E+03 -6.45497E+02  2.34372E+02  9.29576E+01
  2.84832E+02  6.73511E+02 -1.64828E+03  1.98302E+03 -2.95159E+03  7.73614E+02 -4.59296E+03 -7.86349E+02
 -7.39093E+02 -3.54809E+03  8.72843E+02 -3.90317E+03  1.67090E+03 -3.36692E+03  2.47798E+03 -4.64912E+02
  2.82039E+03  2.29089E+03  2.28715E+03  2.89232E+03 -3.33408E+02  3.13967E+03 -1.31404E+03  2.04980E+03
 -3.09862E+03 -1.83506E+02 -2.79657E+03 -1.14171E+03  2.80829E+02 -2.19410E+03  2.61848E+02 -2.42105E+03
  1.84691E+03 -1.36722E+03  8.24315E+02 -4.15837E+02  5.17554E+01  1.15458E+03  8.10589E+02  8.22911E+02
  1.86689E+03  7.46779E+02  1.40975E+03  8.26704E+02  9.91512E+01  2.04680E+03  1.02975E+03  1.09174E+03
 -1.37217E+03  2.06631E+03 -1.45284E+03  2.79156E+03 -2.39175E+03  1.02403E+03 -2.97526E+03  1.59726E+01
 -2.36753E+02 -2.61855E+03  3.59909E+02 -4.54228E+03  1.37237E+03 -1.41787E+03  2.28698E+03 -6.81775E+02
  1.10428E+03  1.77625E+03  1.17692E+03  2.84941E+03 -7.97105E+02  1.45491E+03 -6.41759E+02  4.66227E+02
 -2.43512E+02 -5.60629E+02  2.26183E+02 -2.00514E+02  1.00062E+03 -1.40184E+03  1.96164E+03  1.92822E+02
  5.08992E+02  4.33473E+02  1.55056E+03 -9.42177E+02  9.22313E+02  4.15055E+02  1.12807E+03  7.45029E+02
 -7.25425E+01  5.71112E+02  9.80186E+02 -1.03257E+02 -3.90407E+02  1.52364E+03 -7.42344E+02  2.87679E+03
 -2.00464E+03  7.87711E+02 -6.32080E+02  6.78481E+02 -1.71743E+03 -7.10095E+02 -5.45938E+02 -1.89660E+03
  5.35388E+02 -4.07204E+02  1.38140E+02 -2.11092E+02  5.90326E+02  1.96215E+03 -3.92626E+02  5.99651E+02
 -1.20707E+03  8.88029E+02  1.15875E+02 -7.17482E+02 -1.38306E+03 -2.34397E+03  3.27020E+02 -1.15964E+03
  1.03275E+02 -3.43583E+02  7.79976E+01 -1.01520E+03  1.03187E+03 -7.88300E+02  3.02191E+02  8.52086E+02
  4.48194E+02 -6.06986E+02 -1.04040E+03  9.22486E+02  1.12220E+03 -1.28561E+03  1.99996E+03  1.94070E+02
  7.59536E+02  1.69708E+02  3.13732E+03  4.23541E+02  8.78975E+02  1.50898E+03  2.01561E+02  7.35707E+02
 -7.54664E+02 -8.26703E+02 -1.60868E+03 -3.72036E+02 -4.30536E+02  7.17805E+00 -5.48075E+02 -6.18538E+02
  1.64545E+03 -1.99147E+03  9.06479E+02  3.59653E+02  6.89026E+02  1.08551E+03  1.75066E+02 -2.96017E+01
 -4.10244E+02  9.55184E+02  3.19954E+01  6.44545E+02 -8.61560E+01  3.59665E+02 -1.37274E+03  8.24134E+01
 -3.24087E+02  1.20928E+03 -9.40201E+02 -2.91611E+02 -1.49433E+03  1.08546E+02 -1.96511E+03 -8.68090E+02
 -1.07185E+03 -2.10921E+03  6.98408E+02 -1.88614E+03  1.45875E+03 -1.88225E+03  1.92636E+03 -1.73468E+03
  1.65845E+03 -2.84287E+02  3.10844E+02  9.68840E+02 -6.80163E+02  4.96751E+02  4.63476E+02  1.77925E+03
 -1.44199E+03  2.98285E+02 -1.29313E+02 -2.85795E+02 -7.23876E+02  9.15248E+01 -5.86516E+02  4.51758E+02
 -1.52412E+03  2.26852E+02 -2.23067E+03  2.41782E+02  2.38740E+02 -2.89850E+02 -1.31619E+03 -8.79082E+02
  2.49574E+02  1.08949E+03  4.16063E+02  4.78117E+02  5.22805E+02  8.95770E+02  3.21319E+01  1.22357E+03
 -5.20338E+02  1.58996E+03 -7.77152E+02  4.92485E+02 -1.58428E+03 -6.03072E+02 -9.84032E+02 -1.31008E+03
 -2.14488E+02  6.50241E+02 -4.03534E+02 -8.86861E+02  8.33758E+02 -4.43870E+01  2.63999E+02  6.16641E+02
  5.26862E+02  7.24309E+02  2.53059E+02 -5.47254E+02 -3.02665E+02  7.54535E+02 -8.64087E+02 -2.54766E+02
 -9.51629E+01  7.32093E+02  5.77698E+02  5.58708E+02  4.90410E+02 -4.29606E+01  1.02914E+03  9.70429E+02
 -3.25666E+02  9.42118E+02  6.08996E+02  4.12678E+02  2.53918E+02 -6.55354E+02  4.51512E+02 -9.17802E+02
  5.86261E+02 -1.40969E+03 -3.47465E+01 -3.74307E+02  8.23333E+02 -1.00228E+03 -9.74286E+01 -2.12256E+01
 -1.43217E+02  4.59417E+02 -9.33693E+01  3.85993E+02  1.08264E+01  4.22292E+02 -6.85629E+02  2.26092E+02
 -8.00022E+02  4.07969E+01 -1.63636E+02  6.88180E+02 -6.02369E+02  2.76406E+02 -1.37610E+03 -1.56432E+02
 -1.45353E+03  6.52751E+02  5.46747E+02 -6.39334E+02 -1.08518E+02 -1.41392E+03 -3.09743E+02  5.68229E+02
  6.72987E+02 -5.35705E+02 -5.75165E+02 -3.79197E+02 -8.47995E+02  6.23754E+02 -1.82503E+02  6.34311E+02
