 $NMID ID='MM_0lb_SNR200_9hz_g60_39.RAW', FMTDAT='(8E13.5)'
 TRAMP=1., VOLUME=1. $END
  3.08881E+05  1.29893E+02  3.37250E+05  2.49855E+05  8.51793E+04  3.39846E+05 -1.31886E+05  2.49908E+05
 -1.91772E+05  8.33854E+04 -1.12960E+05 -3.23940E+04  8.61043E+02 -5.09203E+04  5.39990E+04 -1.54497E+03
  3.79048E+04  5.35089E+04 -1.65381E+04  7.73812E+04 -6.08883E+04  6.60765E+04 -8.64687E+04  3.18609E+04
 -8.13587E+04 -1.25658E+04 -5.69741E+04 -5.34223E+04 -1.53418E+04 -7.02218E+04  2.74230E+04 -4.75203E+04
  4.19772E+04  2.76621E+03  1.76132E+04  4.89289E+04 -3.47211E+04  4.88038E+04 -6.82737E+04 -1.41449E+03
 -5.59155E+04 -5.64777E+04 -7.88230E+03 -7.86226E+04  3.59076E+04 -5.72077E+04  5.01667E+04 -1.99782E+04
  4.59828E+04  1.19167E+04  3.35574E+04  2.73837E+04  1.59768E+04  3.13607E+04 -4.60219E+03  2.90085E+04
 -2.16928E+04  1.29966E+04 -1.75345E+04 -6.28310E+03  8.11187E+03 -6.42243E+03  2.37852E+04  1.47769E+04
  5.47405E+03  3.74634E+04 -3.59068E+04  3.84868E+04 -6.58718E+04  1.33546E+03 -6.00999E+04 -4.41189E+04
 -1.07717E+04 -6.71188E+04  4.27420E+04 -4.64197E+04  6.34123E+04 -2.65240E+03  3.67654E+04  3.49056E+04
 -5.96945E+03  3.97886E+04 -3.09941E+04  1.97875E+04 -3.39620E+04 -3.71864E+03 -2.01686E+04 -1.19912E+04
 -9.54594E+03 -1.55324E+04  9.05312E+02 -2.04332E+04  8.21131E+03 -2.30900E+04  1.52427E+04 -1.10462E+04
  1.15373E+04  7.66067E+03 -1.21403E+04  1.17518E+04 -2.43427E+04 -6.01462E+03 -8.76140E+03 -3.98532E+04
  2.67411E+04 -4.99464E+04  5.24631E+04 -2.12236E+04  4.93100E+04  2.08068E+04  1.75707E+04  4.88690E+04
 -1.69353E+04  3.69269E+04 -2.79885E+04  3.34867E+03 -1.38541E+04 -2.92105E+04  2.27701E+04 -3.73685E+04
  4.49427E+04 -1.07502E+04  4.15040E+04  2.68779E+04  2.32656E+04  5.21276E+04 -7.56307E+03  5.70461E+04
 -3.54822E+04  4.02423E+04 -4.98641E+04  1.07583E+04 -4.75656E+04 -1.81681E+04 -2.66377E+04 -4.18352E+04
  8.89410E+03 -4.31241E+04  3.40114E+04 -1.83366E+04  3.34223E+04  1.19190E+04  5.86223E+03  2.22558E+04
 -1.41243E+04  1.00839E+04 -1.16386E+04 -6.52382E+03  2.47772E+03 -1.11820E+04  1.93399E+04  6.81164E+03
  1.62059E+04  2.40590E+04 -5.64709E+03  2.69156E+04 -2.33687E+04  1.44758E+04 -3.16872E+04 -3.82965E+03
 -2.75907E+04 -1.97196E+04 -1.41897E+04 -2.84167E+04  4.96119E+03 -2.77349E+04  2.03718E+04 -2.53287E+04
  3.17520E+04 -1.38480E+04  3.94727E+04  3.72559E+03  3.00825E+04  2.55722E+04  2.60190E+03  4.25409E+04
 -1.97110E+04  3.46472E+04 -3.12861E+04  1.23460E+04 -1.96941E+04 -1.01758E+04 -3.74674E+03 -1.27257E+04
  2.35789E+03 -1.40563E+03 -8.94086E+03  8.36585E+03 -2.15531E+04  6.58245E+03 -2.22273E+04 -9.96042E+03
 -1.22363E+04 -2.29578E+04  6.97179E+03 -2.75535E+04  1.97362E+04 -1.93382E+04  2.31037E+04 -2.41863E+03
  1.46495E+04  1.46723E+04 -1.85595E+03  2.44997E+04 -1.56718E+04  1.46275E+04 -2.44737E+04 -4.97772E+03
 -1.80715E+04 -2.17029E+04 -2.88832E+03 -2.91894E+04  1.35691E+04 -2.48123E+04  2.49473E+04 -1.42237E+04
  2.26979E+04  3.42250E+02  1.44153E+04  6.41060E+03  1.04934E+04  2.55801E+03  1.41789E+04 -7.54129E+02
  2.31270E+04  3.43971E+03  2.59279E+04  1.94562E+04  1.88322E+04  3.80609E+04 -3.26281E+03  4.59035E+04
 -2.63278E+04  3.80225E+04 -4.41097E+04  2.11660E+04 -4.74856E+04 -3.99985E+03 -3.58643E+04 -2.69175E+04
 -1.57307E+04 -3.85700E+04  1.54786E+04 -3.43005E+04  2.92099E+04 -1.63955E+04  2.53501E+04  8.96420E+03
  8.56873E+03  1.96969E+04 -1.23708E+04  1.85520E+04 -2.04792E+04  2.37136E+03 -1.52507E+04 -1.47983E+04
 -7.20538E+02 -2.09762E+04  1.00745E+04 -1.44936E+04  1.33932E+04 -1.40864E+03  4.99499E+03  8.80423E+03
 -8.84780E+03  6.04507E+03 -9.13732E+03 -6.23828E+03 -1.34841E+03 -1.93585E+04  1.31641E+04 -1.88194E+04
  2.45574E+04 -1.14809E+04  2.73826E+04  3.93285E+03  2.49790E+04  1.88884E+04  1.09105E+04  3.01389E+04
 -5.46122E+03  3.21414E+04 -2.42015E+04  1.99726E+04 -2.36818E+04  5.01604E+03 -1.54883E+04 -6.84760E+03
 -6.39021E+03 -6.56677E+03 -1.09232E+03  4.58690E+02 -3.83250E+03  3.51849E+03 -7.17093E+03  6.25033E+03
 -1.51550E+04 -1.74723E+03 -1.62112E+04 -1.41649E+04 -6.73217E+03 -1.96006E+04  5.85646E+03 -1.64778E+04
  1.23111E+04 -4.97198E+03  9.56202E+03  4.07093E+03 -3.31078E+02  6.60299E+03 -8.24724E+03 -6.44135E+02
 -8.38720E+03 -1.05010E+04  1.30881E+03 -1.69922E+04  8.49531E+03 -1.76451E+04  2.13344E+04 -8.20663E+03
  2.45334E+04  3.40494E+03  1.94187E+04  1.62627E+04  3.90499E+03  1.93787E+04 -9.71818E+03  1.81165E+04
 -1.19597E+04  4.33684E+03 -6.50823E+03 -3.43547E+03  2.98864E+03 -3.85550E+03  8.74273E+03 -6.29242E+02
  6.88584E+03  7.92705E+03  1.81702E+03  1.43350E+04 -9.55453E+03  1.32138E+04 -1.57328E+04  1.39200E+03
 -1.14692E+04 -1.01815E+04 -9.03279E+02 -1.48328E+04  1.04104E+04 -5.94210E+03  8.69952E+03  3.34995E+03
  1.97086E+03  1.02105E+04 -9.20669E+03  1.11091E+04 -1.34740E+04  5.44591E+03 -1.57398E+04 -6.20175E+03
 -8.02170E+03 -1.70246E+04  3.51678E+03 -1.90474E+04  1.74913E+04 -9.98987E+03  1.93416E+04  2.96427E+03
  1.01332E+04  1.74181E+04 -1.13440E+03  1.71931E+04 -1.43917E+04  7.04583E+03 -1.46034E+04 -1.00072E+03
 -1.07610E+04 -1.17593E+04 -4.89935E+02 -1.33505E+04  6.91254E+03 -1.11780E+04  9.36569E+03 -4.10329E+03
  4.72646E+03  3.02433E+03 -1.41627E+03  1.89248E+03 -1.28010E+03 -3.06649E+03  2.10520E+03 -7.86656E+03
  1.20091E+04 -4.40896E+03  1.75961E+04  3.18001E+03  1.43478E+04  1.12937E+04  1.20421E+04  2.34764E+04
 -5.08289E+03  2.61148E+04 -1.98503E+04  2.01217E+04 -2.69578E+04  2.72517E+03 -2.20004E+04 -8.81401E+03
 -1.26562E+04 -1.71382E+04  4.55076E+02 -1.55303E+04  6.12946E+03 -9.26330E+03  4.41524E+03 -6.58397E+03
  4.42282E+03 -3.81446E+03  5.38422E+03 -4.52372E+03  6.42186E+03 -2.90333E+03  1.01890E+04 -2.42495E+03
  1.23253E+04  1.44247E+03  7.28707E+03  9.20158E+03 -3.33378E+03  1.25166E+04 -1.30187E+04  9.45833E+03
 -1.57714E+04 -2.02029E+03 -1.05354E+04 -1.19844E+04 -5.96789E+02 -1.92934E+04  1.11138E+04 -1.85026E+04
  1.75526E+04 -9.60833E+03  2.07125E+04  2.13697E+03  1.41017E+04  1.53681E+04  1.56925E+03  2.08230E+04
 -7.51867E+03  1.46013E+04 -1.30480E+04  5.63442E+03 -8.76824E+03 -1.37061E+03 -4.48078E+03 -3.17620E+03
 -1.17347E+03 -1.16698E+02 -2.27997E+03  2.79419E+03 -6.09681E+03  1.61395E+03 -1.06100E+04 -1.98076E+03
 -9.59441E+03 -1.16223E+04  2.23822E+02 -1.68825E+04  1.05949E+04 -1.35257E+04  1.65355E+04 -4.49601E+03
  1.64841E+04  6.95246E+03  9.47050E+03  1.41900E+04 -2.77794E+03  1.69230E+04 -1.09452E+04  1.08695E+04
 -1.54081E+04 -1.05635E+02 -1.14650E+04 -9.12865E+03 -1.65449E+03 -1.40163E+04  5.34678E+03 -1.11740E+04
  9.44781E+03 -2.09945E+03  7.52663E+03  2.63227E+03  3.15060E+03  4.24981E+03  9.48762E+02  2.26541E+03
  3.23206E+03  1.26978E+03  4.40622E+03  4.01103E+03  5.29500E+03  6.21953E+03  5.82421E+03  8.23298E+03
 -2.78178E+03  1.25024E+04 -1.15593E+04  1.19287E+04 -1.54619E+04  1.76551E+03 -1.61352E+04 -7.55071E+03
 -9.15158E+03 -1.57188E+04  1.87101E+03 -1.83313E+04  9.70569E+03 -9.13171E+03  1.33011E+04 -2.97023E+03
  1.13754E+04  6.11540E+03  1.29585E+03  1.04015E+04 -4.09754E+03  5.77309E+03 -8.07721E+03 -5.68895E+02
 -3.26310E+03 -6.61572E+03  3.19549E+03 -7.86261E+03  6.44633E+03 -4.89773E+03  7.77102E+03  1.83427E+03
  3.67935E+03  2.71958E+03  2.48034E+03  3.16714E+03 -9.99646E+02  2.28235E+03  4.03142E+02  8.94092E+02
  2.04129E+03 -1.55071E+03  7.88243E+03  2.16259E+03  3.25032E+03  9.86480E+03 -1.25843E+03  9.96491E+03
 -6.80136E+03  8.44146E+03 -8.86621E+03  1.82000E+03 -9.61833E+03 -3.65897E+03 -4.77700E+03 -6.06703E+03
  8.75324E+02 -6.43846E+03  3.81759E+03 -3.05481E+03  4.08656E+03  4.29935E+03 -4.42518E+02  6.18698E+03
 -6.46774E+03  5.47580E+03 -8.17898E+03 -4.04303E+03 -3.67890E+03 -8.42155E+03  1.44606E+03 -1.04248E+04
  4.71185E+03 -4.53897E+03  7.59630E+03 -6.86063E+02  6.15024E+03  2.44977E+03  1.11214E+03  4.98155E+03
 -2.54529E+03  2.08689E+03 -2.44304E+03 -3.90329E+03  2.49243E+03 -9.05094E+03  8.43195E+03 -5.64681E+03
  1.06673E+04  2.69459E+03  1.05658E+04  7.53503E+03  3.39108E+03  9.24268E+03 -4.51210E+03  1.12391E+04
 -9.97042E+03  5.88581E+03 -8.57822E+03 -2.49999E+02 -4.70792E+03 -6.08766E+03  1.07768E+03 -7.38321E+03
  6.98294E+03 -2.38859E+03  6.00344E+03  3.61185E+03  1.89638E+03  6.16177E+03 -1.27442E+03  5.67282E+03
 -3.09067E+03  2.35866E+03 -2.91021E+03  2.36219E+03 -7.75287E+02 -1.67915E+02 -9.91045E+02  8.96047E+02
 -3.32153E+03  3.43048E+03 -7.10322E+03  4.35685E+03 -9.37958E+03  1.63984E+03 -1.32580E+04 -6.17820E+03
 -7.17074E+03 -1.53761E+04  3.44080E+03 -1.79397E+04  1.04174E+04 -1.24870E+04  1.47844E+04 -3.68813E+03
  1.51689E+04  2.70702E+03  8.78410E+03  1.07110E+04  1.44010E+03  1.12570E+04 -6.34334E+03  8.33937E+03
 -5.40143E+03  5.90162E+03 -4.50084E+03 -2.23377E+02 -2.16739E+03 -1.16259E+03 -1.03801E+03  2.39461E+02
 -3.09395E+03 -4.75172E+02 -2.22246E+03  4.89045E+01 -3.29240E+02 -2.35037E+03  5.12711E+02 -4.79221E+03
  5.57199E+03 -3.30545E+03  7.88327E+03  2.58406E+00  7.34570E+03  5.71241E+03  1.98073E+03  1.37954E+04
 -6.80011E+03  1.41612E+04 -1.23874E+04  7.92521E+03 -1.49009E+04 -1.94667E+03 -9.70375E+03 -8.33735E+03
 -4.81526E+03 -1.22876E+04  3.42982E+03 -1.12544E+04  7.94518E+03 -7.50129E+03  6.72009E+03  3.08470E+02
  4.54579E+03  4.18147E+03 -2.89162E+01  2.08345E+03 -2.97480E+03 -7.45929E+01  1.36879E+03 -1.68681E+03
  4.50841E+03 -1.72195E+03  5.47794E+03  2.21953E+03  1.95139E+03  4.93179E+03  6.15554E+02  6.28840E+03
 -6.14633E+03  5.78732E+03 -8.50437E+03  1.55869E+03 -7.51887E+03 -4.41833E+03  7.46486E+01 -1.13516E+04
  6.15671E+03 -9.56375E+03  8.35207E+03 -3.72625E+03  8.71632E+03  3.17124E+03  5.39305E+03  7.08123E+03
  7.21880E+01  5.67255E+03 -3.67468E+03  6.54218E+03 -5.38214E+03  2.64081E+03 -2.43448E+03  9.41801E+02
 -1.39855E+03 -1.59993E+02 -2.09590E+03  2.18056E+03 -4.35227E+03  1.00642E+03 -6.38348E+03 -2.27943E+03
 -5.15049E+03 -4.14581E+03 -2.15184E+03 -7.62750E+03  3.16376E+03 -7.61321E+03  4.97567E+03 -3.01471E+03
  7.77668E+03  8.99131E+02  2.81112E+03  5.30282E+03 -1.67117E+03  8.44302E+03 -5.31770E+03  6.13800E+03
