 $NMID ID='MM_0lb_SNR200_13hz_g40_59.RAW', FMTDAT='(8E13.5)'
 TRAMP=1., VOLUME=1. $END
  3.09482E+05 -3.01311E+02  3.38266E+05  2.51886E+05  8.48994E+04  3.37680E+05 -1.32938E+05  2.50882E+05
 -1.90311E+05  8.34163E+04 -1.10739E+05 -3.26451E+04  1.14236E+03 -5.08652E+04  5.25894E+04 -8.28971E+02
  3.53008E+04  5.33827E+04 -1.60625E+04  7.56890E+04 -6.10501E+04  6.47019E+04 -8.49107E+04  3.21059E+04
 -8.16952E+04 -1.23095E+04 -5.69206E+04 -5.01113E+04 -1.42512E+04 -7.03456E+04  2.69513E+04 -4.54434E+04
  4.02933E+04  3.92697E+03  1.74054E+04  4.73700E+04 -3.46918E+04  4.66340E+04 -6.75766E+04 -4.74255E+02
 -5.26381E+04 -5.67516E+04 -7.03912E+03 -7.61877E+04  3.43039E+04 -5.37916E+04  4.77270E+04 -1.76357E+04
  4.34355E+04  1.15556E+04  3.16005E+04  2.46208E+04  1.54105E+04  2.88273E+04 -4.78563E+03  2.67187E+04
 -2.22847E+04  1.14581E+04 -1.92292E+04 -5.29391E+03  5.09179E+03 -7.40501E+03  2.28852E+04  1.29871E+04
  7.21043E+03  3.44019E+04 -3.22522E+04  3.47728E+04 -6.40218E+04  2.45407E+03 -5.86160E+04 -4.32140E+04
 -1.24803E+04 -6.39888E+04  3.99936E+04 -4.75122E+04  5.74343E+04 -1.89155E+03  3.46913E+04  3.29289E+04
 -5.99802E+03  3.55018E+04 -3.11830E+04  1.71117E+04 -3.06918E+04 -4.94155E+03 -1.60893E+04 -9.29678E+03
 -8.21868E+03 -1.34567E+04 -2.18032E+03 -1.82005E+04  7.32218E+03 -2.34844E+04  1.68291E+04 -1.28759E+04
  1.18740E+04  5.75495E+03 -7.80540E+03  1.33586E+04 -2.06721E+04 -4.37241E+03 -8.39931E+03 -3.40336E+04
  2.18359E+04 -4.33969E+04  4.78237E+04 -2.01573E+04  4.52718E+04  1.95396E+04  1.46281E+04  4.54700E+04
 -1.53376E+04  3.28241E+04 -2.50961E+04  1.66255E+03 -9.57205E+03 -2.83448E+04  1.96965E+04 -3.38166E+04
  4.06663E+04 -8.04618E+03  3.54003E+04  2.48523E+04  1.79339E+04  4.47923E+04 -7.92460E+03  4.94292E+04
 -3.20764E+04  3.40000E+04 -4.11353E+04  8.83314E+03 -4.25051E+04 -1.71021E+04 -2.39509E+04 -3.72595E+04
  8.52217E+03 -3.71759E+04  3.12523E+04 -1.38416E+04  2.87699E+04  1.08154E+04  3.81536E+03  1.97762E+04
 -1.42411E+04  8.53719E+03 -1.03536E+04 -8.43400E+03  6.62071E+03 -9.49887E+03  1.75831E+04  5.59852E+03
  1.33554E+04  2.13220E+04 -5.60627E+03  2.44149E+04 -2.34060E+04  1.17456E+04 -2.72185E+04 -4.76593E+03
 -2.08138E+04 -1.61955E+04 -7.46350E+03 -2.14999E+04  3.51498E+03 -1.91661E+04  1.58651E+04 -1.82020E+04
  2.64008E+04 -1.23146E+04  3.30206E+04  2.72947E+03  2.41138E+04  1.96941E+04  4.56777E+03  3.60369E+04
 -1.78488E+04  3.04596E+04 -2.72453E+04  9.40905E+03 -2.01182E+04 -9.77203E+03 -5.03018E+03 -1.49568E+04
  2.30224E+03 -2.93053E+03 -4.65248E+03  6.62345E+03 -1.48693E+04  5.56378E+03 -1.60733E+04 -7.70284E+03
 -8.63529E+03 -1.86232E+04  5.76282E+03 -2.32288E+04  1.60929E+04 -1.75909E+04  1.66551E+04 -2.90209E+03
  1.06554E+04  1.35259E+04 -6.02765E+02  1.82875E+04 -1.39406E+04  1.10418E+04 -1.85996E+04 -4.47034E+03
 -1.38193E+04 -1.87806E+04 -1.28145E+03 -2.28215E+04  1.08395E+04 -1.84304E+04  2.07334E+04 -9.54553E+03
  1.82007E+04 -4.66191E+02  1.17873E+04  4.42999E+03  6.78425E+03 -2.73753E+02  9.40446E+03 -5.76904E+02
  1.73850E+04  2.59294E+03  1.87546E+04  1.46946E+04  1.17255E+04  3.01954E+04 -2.57064E+03  3.53927E+04
 -1.96132E+04  2.62301E+04 -3.18456E+04  1.33342E+04 -3.36503E+04 -2.43409E+03 -2.69977E+04 -1.87368E+04
 -1.17944E+04 -2.78625E+04  9.53179E+03 -2.47095E+04  2.15191E+04 -1.16640E+04  2.07865E+04  4.42347E+03
  7.23074E+03  1.36655E+04 -8.46355E+03  1.19751E+04 -1.74334E+04  1.11868E+03 -1.33126E+04 -1.07044E+04
  4.08299E+00 -1.47120E+04  8.46643E+03 -1.15130E+04  9.68254E+03 -1.69321E+03  3.60878E+03  5.90577E+03
 -7.15317E+03  2.02897E+03 -6.27043E+03 -6.53671E+03 -1.01510E+03 -1.31196E+04  1.02807E+04 -1.35221E+04
  1.62876E+04 -8.18197E+03  1.79464E+04  2.67660E+03  1.71061E+04  1.33952E+04  8.06387E+03  1.94426E+04
 -3.41117E+03  2.21830E+04 -1.31035E+04  1.34000E+04 -1.58176E+04  3.00831E+03 -1.14026E+04 -3.85617E+03
 -4.84118E+03 -5.24900E+03 -1.02980E+03  1.37362E+03 -1.01284E+03  2.49693E+03 -4.28335E+03  4.61017E+03
 -9.87534E+03 -8.78653E+02 -1.25800E+04 -9.65134E+03 -5.30229E+03 -1.29307E+04  5.11489E+03 -1.31893E+04
  1.00049E+04 -5.34524E+03  6.35467E+03  3.83747E+03  4.14745E+01  5.39579E+03 -5.62869E+03 -7.47759E+02
 -4.49628E+03 -7.95521E+03 -9.71391E+02 -9.98203E+03  6.47156E+03 -1.26306E+04  1.38725E+04 -7.02706E+03
  1.70386E+04  1.05529E+03  1.18632E+04  9.43753E+03  2.37170E+03  1.41705E+04 -6.10930E+03  1.17118E+04
 -9.19161E+03  4.52574E+03 -4.43956E+03 -1.73790E+03  1.42871E+03 -3.24878E+03  5.22020E+03 -4.94518E+02
  4.59800E+03  4.98403E+03  1.66934E+03  8.35828E+03 -6.25387E+03  8.32005E+03 -1.04166E+04  1.75973E+03
 -6.80190E+03 -6.49874E+03  6.69280E+02 -9.13787E+03  5.96152E+03 -4.96706E+03  6.80630E+03  2.14035E+03
  1.73321E+03  5.10973E+03 -6.47528E+03  8.77552E+03 -8.74471E+03  3.49299E+03 -8.20698E+03 -3.97766E+03
 -5.29780E+03 -1.08757E+04  2.14705E+03 -1.13714E+04  9.69620E+03 -6.87288E+03  1.06642E+04  1.54567E+03
  8.09884E+03  7.72953E+03  5.49211E+02  1.11028E+04 -7.58548E+03  7.14836E+03 -7.85900E+03 -5.82768E+02
 -6.94546E+03 -6.94910E+03 -2.25060E+03 -7.48496E+03  4.36630E+03 -5.07411E+03  5.68483E+03 -2.99609E+03
  4.40587E+03  6.17561E+02 -4.02514E+02  2.08376E+03 -2.69042E+02 -1.82070E+03  1.79711E+03 -4.32432E+03
  6.84049E+03 -2.76006E+03  1.09594E+04  1.15917E+03  1.08980E+04  6.78352E+03  7.80177E+03  1.27977E+04
 -3.11834E+03  1.51583E+04 -1.32944E+04  1.15383E+04 -1.58421E+04  2.91359E+03 -1.43072E+04 -5.62126E+03
 -6.37847E+03 -1.15730E+04 -1.20058E+03 -9.16602E+03  2.60674E+03 -3.84848E+03  2.28873E+03 -4.43161E+03
  3.04609E+03 -7.43427E+02  3.08689E+03 -3.08188E+03  4.47996E+03 -2.24304E+03  4.98870E+03 -2.87642E+02
  6.27806E+03  2.26868E+03  3.20943E+03  6.55533E+03 -1.00872E+03  5.42283E+03 -7.14052E+03  4.53888E+03
 -9.46893E+03 -1.51552E+03 -4.76764E+03 -5.85477E+03 -8.76679E+02 -9.03043E+03  6.44640E+03 -8.51589E+03
  1.03783E+04 -4.50069E+03  1.17246E+04  3.25285E+02  8.10714E+03  7.84198E+03  1.54082E+03  9.83388E+03
 -4.05800E+03  9.70032E+03 -7.14475E+03  2.37559E+03 -3.73330E+03 -6.34554E+02 -1.45544E+03 -1.07200E+03
 -1.90479E+02  2.96899E+02 -1.23811E+03  1.38321E+03 -3.95724E+03  1.15859E+03 -7.02272E+03 -1.66417E+03
 -4.54448E+03 -6.56555E+03  1.39871E+03 -9.06462E+03  5.03405E+03 -8.33431E+03  8.02876E+03 -2.02664E+03
  6.65339E+03  5.04856E+03  3.66344E+03  6.65994E+03 -1.74665E+03  8.62919E+03 -5.49088E+03  5.62237E+03
 -7.38918E+03 -5.25064E+02 -8.39409E+03 -3.85086E+03 -6.88990E+02 -7.84434E+03  3.58631E+03 -4.42780E+03
  6.43445E+03 -3.26492E+03  4.10333E+03  1.94196E+03  1.10688E+03  3.10113E+03  1.19679E+03  2.20925E+03
  1.02500E+03  8.75866E+02  1.91644E+03  1.65137E+03  2.52741E+03  3.81708E+03  2.00986E+03  4.66613E+03
 -1.74458E+03  6.63641E+03 -4.56507E+03  6.98245E+03 -8.28565E+03  1.61542E+03 -8.60736E+03 -3.05229E+03
 -5.36624E+03 -7.50655E+03  2.04844E+03 -9.42879E+03  4.31955E+03 -6.80001E+03  6.97124E+03 -1.48631E+03
  6.11899E+03  3.05564E+03  4.10869E+02  6.17584E+03 -1.66036E+03  1.50815E+03 -3.95458E+03 -3.38520E+02
 -2.25883E+03 -3.11344E+03  2.88188E+03 -2.04278E+03  3.34919E+03 -4.74688E+02  3.20930E+03  7.64801E+02
  1.01615E+03  1.83535E+03  9.14186E+02  4.94326E+01 -1.36523E+03  1.65690E+03  1.64109E+03  5.03205E+02
  5.23645E+02 -1.68699E+03  3.15922E+03  2.98201E+03  1.13807E+03  5.02079E+03 -2.66231E+02  5.20219E+03
 -3.93385E+03  3.19028E+03 -4.01844E+03  6.46112E+02 -3.24893E+03 -1.94727E+03 -8.50151E+02 -4.43451E+03
  9.32647E+02 -2.73177E+03  1.26405E+03 -1.48171E+03  1.83329E+03  1.49231E+03  7.79618E+00  1.81409E+03
 -4.56364E+03  7.36065E+02 -3.76027E+03 -2.76993E+03 -1.57196E+03 -4.09416E+03  1.34787E+03 -3.62456E+03
  2.56920E+03 -2.18711E+03  2.50744E+03  2.29258E+02  3.23706E+03  1.84532E+03  4.26846E+02  2.43391E+03
 -1.97265E+03  4.74758E+02 -1.05954E+03 -1.87933E+03  2.48465E+02 -3.06878E+03  4.22090E+03 -2.06134E+03
  4.77398E+03  1.48702E+03  4.77226E+03  3.28059E+03  1.56112E+03  4.54992E+03 -1.88827E+03  3.56931E+03
 -4.00346E+03  1.22860E+03 -5.27385E+03 -3.50182E+02 -2.20858E+03 -3.55842E+03  2.99352E+02 -2.65771E+03
  2.45439E+03 -1.21519E+03  2.73778E+03 -4.44654E+02  1.25744E+03  2.53726E+03  2.69551E+02  2.01903E+03
 -1.33725E+03  1.57619E+03 -1.34830E+03  1.57349E+02  4.71804E+02  1.23457E+03 -1.76043E+03  9.23215E+02
 -7.41128E+02  1.99176E+03 -3.91083E+03  1.64606E+03 -5.25962E+03  4.24267E+02 -4.71123E+03 -2.79728E+03
 -3.12531E+03 -6.67189E+03  4.41567E+02 -7.19126E+03  4.32865E+03 -5.71093E+03  7.17219E+03 -1.73549E+03
  6.31245E+03  7.30613E+02  2.17086E+03  4.67108E+03  6.08169E+02  5.24874E+03 -1.40342E+03  5.53064E+03
 -2.78367E+03  1.96747E+02 -2.08049E+03 -9.55453E+02 -1.13410E+03 -1.39239E+02 -1.10425E+03  5.88656E+02
 -5.19630E+02 -5.15927E+02 -1.42457E+03 -1.12222E+03  1.17184E+03 -7.87122E+02 -8.03810E+02 -2.51936E+03
  1.99436E+03 -1.39602E+03  2.29321E+03 -7.10993E+02  3.09763E+03  1.56149E+03  6.80839E+02  4.84104E+03
 -1.12698E+03  5.05496E+03 -4.99526E+03  3.97420E+03 -6.06107E+03 -1.02815E+02 -4.41320E+03 -2.74243E+03
 -2.01310E+03 -3.41734E+03  5.22090E+02 -4.52311E+03  2.43927E+03 -2.35728E+03  2.72637E+03  5.94587E+02
  8.74873E+02  1.59086E+03 -1.24643E+02  5.86370E+02 -9.39663E+02  2.92774E+02 -1.06993E+03 -1.37422E+03
  1.30664E+03 -6.37477E+02  2.19105E+03  1.00147E+03  8.96443E+02  3.04511E+03  6.24613E+02  1.34777E+03
 -2.28283E+03  2.84103E+03 -3.41032E+03  7.49304E+02 -2.93204E+03 -2.66474E+03  2.49597E+02 -2.87302E+03
  1.43805E+03 -2.67938E+03  3.74581E+03 -1.00591E+03  3.21075E+03  8.56397E+02  2.49874E+03  2.86603E+03
  1.28276E+03  4.35063E+03 -4.92260E+02  3.53067E+03 -1.93474E+03  2.26063E+03 -1.53810E+03  1.18033E+03
  3.75069E+02 -1.74007E+03 -1.75629E+03 -1.15116E+03 -1.74717E+03  6.70561E+02 -2.73514E+03 -9.90668E+02
 -2.07718E+03 -2.58947E+02 -1.35453E+03 -2.96096E+03  1.76864E+03 -3.63005E+03  3.26926E+03 -1.38760E+03
  2.45174E+03  1.21996E+03 -3.41518E+02  1.87324E+03 -3.14803E+02  3.75790E+03 -1.89996E+03  2.26533E+03
