 $NMID ID='MM_0lb_SNR200_18hz_g50_38.RAW', FMTDAT='(8E13.5)'
 TRAMP=1., VOLUME=1. $END
  3.10979E+05  9.38651E+02  3.37545E+05  2.50259E+05  8.39135E+04  3.37977E+05 -1.32292E+05  2.50433E+05
 -1.90397E+05  8.17822E+04 -1.11154E+05 -3.29901E+04  2.07777E+03 -4.94819E+04  5.36817E+04 -4.45323E+02
  3.49434E+04  5.23954E+04 -1.64022E+04  7.51953E+04 -6.02568E+04  6.43319E+04 -8.30695E+04  3.19597E+04
 -8.02421E+04 -1.15816E+04 -5.63014E+04 -4.98786E+04 -1.49675E+04 -6.99476E+04  2.61542E+04 -4.42349E+04
  4.00132E+04  3.05284E+03  1.64163E+04  4.71755E+04 -3.43920E+04  4.62040E+04 -6.49715E+04 -2.90984E+02
 -5.21458E+04 -5.63730E+04 -6.65523E+03 -7.62204E+04  3.36334E+04 -5.41501E+04  4.66354E+04 -1.63775E+04
  4.10834E+04  1.16103E+04  3.11339E+04  2.37842E+04  1.63845E+04  2.85051E+04 -4.30200E+03  2.68075E+04
 -2.24724E+04  1.32319E+04 -1.95619E+04 -4.96022E+03  4.89480E+03 -7.72104E+03  2.20448E+04  1.14223E+04
  7.01507E+03  3.37032E+04 -3.02653E+04  3.34265E+04 -6.14561E+04  2.08509E+03 -5.59582E+04 -4.21994E+04
 -1.17036E+04 -6.11451E+04  3.92166E+04 -4.47824E+04  5.58886E+04 -1.95576E+03  3.29640E+04  3.10771E+04
 -6.13405E+03  3.35138E+04 -2.93718E+04  1.42128E+04 -2.85954E+04 -4.76665E+03 -1.55918E+04 -9.76916E+03
 -7.27106E+03 -1.22965E+04 -1.43327E+03 -1.67618E+04  6.76009E+03 -2.15671E+04  1.53034E+04 -1.40517E+04
  1.28887E+04  4.14470E+03 -7.17084E+03  1.27029E+04 -1.96949E+04 -3.08815E+03 -8.07807E+03 -3.04102E+04
  2.08051E+04 -4.19588E+04  4.62898E+04 -1.93281E+04  4.39838E+04  1.84458E+04  1.44184E+04  4.18017E+04
 -1.56076E+04  3.06869E+04 -2.31163E+04  7.74180E+02 -9.15048E+03 -2.55902E+04  2.03579E+04 -3.09674E+04
  3.85238E+04 -8.50801E+03  3.26241E+04  2.34585E+04  1.49896E+04  4.25880E+04 -7.54638E+03  4.61612E+04
 -2.93982E+04  3.02811E+04 -3.92330E+04  8.89377E+03 -3.93477E+04 -1.57869E+04 -2.19778E+04 -3.49548E+04
  5.74496E+03 -3.46440E+04  2.91832E+04 -1.33200E+04  2.76653E+04  1.07398E+04  2.67167E+03  1.80436E+04
 -1.33164E+04  8.78344E+03 -9.86305E+03 -6.65449E+03  5.64535E+03 -9.54506E+03  1.80965E+04  5.69388E+03
  1.17249E+04  2.13974E+04 -5.98495E+03  2.38607E+04 -2.20875E+04  9.81282E+03 -2.56675E+04 -6.13392E+03
 -1.77168E+04 -1.73119E+04 -6.12075E+03 -1.77817E+04  4.55399E+03 -1.67943E+04  1.26722E+04 -1.56643E+04
  2.24310E+04 -1.08012E+04  2.94347E+04  2.12057E+03  2.13195E+04  1.59021E+04  3.24013E+03  3.42229E+04
 -1.75755E+04  2.76774E+04 -2.57084E+04  8.34404E+03 -1.99644E+04 -9.92204E+03 -3.80635E+03 -1.46816E+04
  2.76045E+03 -4.53426E+03 -2.98749E+03  5.31904E+03 -1.39197E+04  4.54232E+03 -1.40668E+04 -4.68209E+03
 -8.74173E+03 -1.61283E+04  4.09703E+03 -2.09342E+04  1.38054E+04 -1.49154E+04  1.54126E+04  1.32025E+01
  9.34413E+03  1.27671E+04 -1.70024E+03  1.67081E+04 -1.03469E+04  8.19837E+03 -1.70958E+04 -3.46851E+03
 -1.16789E+04 -1.44317E+04 -2.97274E+02 -1.92481E+04  9.68409E+03 -1.65141E+04  1.73148E+04 -8.14268E+03
  1.60527E+04  7.77808E+02  1.03018E+04  4.23124E+03  5.27712E+03  1.34365E+03  8.09912E+03 -6.94455E+02
  1.39303E+04  1.81485E+03  1.51345E+04  1.26483E+04  9.51068E+03  2.60112E+04 -3.08134E+03  2.77042E+04
 -1.57083E+04  2.09465E+04 -2.60747E+04  9.73316E+03 -2.68228E+04 -1.70497E+03 -2.17130E+04 -1.47467E+04
 -1.00851E+04 -2.18687E+04  6.52062E+03 -2.08307E+04  1.73906E+04 -1.03711E+04  1.61568E+04  3.93040E+03
  6.55531E+03  1.02489E+04 -6.71073E+03  1.02477E+04 -1.37477E+04  2.90119E+03 -1.03058E+04 -7.56740E+03
  3.31293E+02 -1.23449E+04  7.04769E+03 -1.04850E+04  8.06203E+03 -2.50635E+03  1.22167E+03  5.00316E+03
 -6.14435E+03  1.97981E+03 -3.51593E+03 -4.21050E+03  7.05471E+02 -1.11051E+04  7.39595E+03 -9.94154E+03
  1.35034E+04 -4.74722E+03  1.35224E+04  3.34570E+03  1.13347E+04  9.96897E+03  5.22558E+03  1.37773E+04
 -2.56212E+03  1.70875E+04 -1.03378E+04  1.01320E+04 -1.32597E+04  1.95241E+03 -9.15668E+03 -2.22131E+03
 -4.69108E+03 -4.35872E+03  5.57576E+02  2.63007E+03 -2.84081E+03  2.06236E+03 -4.42547E+03  3.57812E+03
 -7.94877E+03 -7.24390E+02 -9.62125E+03 -6.77755E+03 -2.46679E+03 -1.11170E+04  4.05264E+03 -8.80412E+03
  7.79744E+03 -3.69453E+03  5.93115E+03  2.80299E+03  1.25893E+03  3.01095E+03 -3.99567E+03  4.43563E+02
 -3.61411E+03 -4.57554E+03  2.64158E+02 -6.90348E+03  3.95881E+03 -8.15568E+03  1.07600E+04 -4.53012E+03
  1.26959E+04  3.72131E+02  9.07288E+03  6.73583E+03  1.94475E+03  8.50195E+03 -5.96658E+03  8.51819E+03
 -7.92938E+03  3.49113E+03 -3.77625E+03 -1.00239E+03  1.71903E+03 -2.66008E+03  4.95653E+03 -1.76413E+03
  4.23975E+03  3.12742E+03 -5.77011E+01  6.30316E+03 -3.01309E+03  5.93831E+03 -7.41211E+03  9.20156E+02
 -5.43345E+03 -4.06006E+03  1.09882E+03 -6.79998E+03  3.75961E+03 -3.60941E+03  3.33685E+03  1.30189E+03
  3.36386E+02  4.22615E+03 -4.04539E+03  5.02364E+03 -6.01652E+03  2.18717E+03 -5.33928E+03 -8.48858E+02
 -3.90644E+03 -6.82002E+03  2.24652E+03 -6.71775E+03  6.06034E+03 -4.88417E+03  8.60634E+03  3.67423E+02
  5.29291E+03  5.54953E+03  1.51768E+02  7.55576E+03 -6.04080E+03  4.61440E+03 -4.23784E+03  3.61117E+02
 -6.54284E+03 -5.86264E+03 -2.13523E+03 -4.21790E+03  2.30372E+03 -4.72749E+03  4.36554E+03 -3.58166E+03
  2.25328E+03  3.45178E+02  8.92329E+02  1.55510E+03  1.09548E+03  3.67400E+02  2.04991E+02 -2.23685E+03
  3.52889E+03 -1.39216E+03  5.39144E+03  1.41342E+03  5.70112E+03  3.69108E+03  5.81594E+03  7.75024E+03
 -2.10610E+03  8.92635E+03 -6.89471E+03  6.70331E+03 -1.04296E+04  1.34574E+03 -7.79034E+03 -3.58091E+03
 -3.21498E+03 -6.60872E+03 -1.41143E+03 -5.43162E+03  2.51241E+03 -1.97651E+03  1.78737E+03 -2.13258E+03
  2.29884E+03 -1.64586E+03  2.90179E+03 -3.35447E+03  4.69370E+03 -5.91597E+02  3.82928E+03  1.97133E+03
  4.80598E+03  2.13390E+03  8.98527E+02  3.01543E+03 -8.27296E+02  2.37805E+03 -5.51632E+03  3.03460E+03
 -5.26216E+03 -1.96937E+03 -2.64665E+03 -3.25877E+03  1.22111E+03 -5.79101E+03  3.02565E+03 -6.07402E+03
  6.05240E+03 -4.32468E+03  6.65317E+03  1.12181E+03  5.21580E+03  4.64170E+03  1.19674E+03  6.54372E+03
 -2.61092E+03  6.20402E+03 -4.55434E+03  1.40543E+03 -1.07182E+03 -1.26320E+03 -1.01662E+03 -9.56350E+02
 -5.65776E+02  5.53689E+02 -1.53768E+03  1.37581E+03 -1.51003E+03  1.54694E+03 -3.54426E+03 -1.05320E+03
 -4.88899E+02 -5.91648E+03  5.44752E+02 -5.27138E+03  3.52267E+03 -3.97891E+03  3.75002E+03 -1.82749E+03
  5.40785E+03  2.93688E+03  1.93857E+03  3.60824E+03 -5.69935E+02  4.71380E+03 -2.97309E+03  1.69692E+03
 -4.80254E+03  2.80962E+02 -2.81099E+03 -2.11263E+03 -5.12314E+02 -3.68657E+03  1.21703E+03 -2.92506E+03
  3.29793E+03 -1.84475E+03  2.33626E+03  6.60846E+02  1.64839E+02  1.86473E+03  6.12934E+02  1.21124E+03
  2.08670E+03  7.80496E+01  1.09478E+03  1.45444E+03  1.29672E+03  3.05992E+03  1.36613E+03  1.53934E+03
 -1.19676E+03  2.75012E+03 -2.58137E+03  3.93535E+03 -3.42360E+03  9.77339E+02 -4.79185E+03 -1.09079E+03
 -1.33732E+03 -4.87901E+03 -1.39920E+02 -5.68568E+03  1.87806E+03 -2.62215E+03  2.47443E+03 -1.74952E+03
  1.50485E+03  2.54844E+03  2.05820E+02  1.86385E+03 -5.87901E+02  6.45022E+02 -1.15391E+03  5.21118E+02
 -1.72581E+03 -9.14959E+02  1.50407E+03 -1.89055E+03  2.09787E+03 -1.34789E+03  1.12814E+03  9.64611E+02
 -2.99233E+02  2.32283E+02  7.02221E+02 -5.35800E+02  1.57521E+02  5.95134E+02  1.82208E+03 -1.41580E+03
 -1.96387E+01 -8.57923E+01  1.58979E+03 -3.14085E+02  4.31047E+02  2.43262E+03  1.63858E+02  3.72177E+03
 -1.63631E+03  1.51274E+03 -1.34200E+03  7.16279E+01 -2.79307E+03 -1.52686E+03 -8.08807E+02 -1.25161E+03
  7.95298E+01 -1.14443E+03  8.81448E+02  4.23769E+02  1.97405E+03  1.26614E+03 -1.23902E+03  2.56065E+02
 -1.44278E+03  8.42908E+02 -6.23246E+01 -1.25145E+03 -1.86356E+02 -2.83777E+03  5.04887E+02 -9.84525E+02
  8.86828E+01 -7.14160E+02  6.15221E+02 -3.28904E+02  1.88394E+03 -3.53612E+02  7.09189E+02  1.94861E+03
 -6.73865E+02  7.33047E+01 -4.99119E+02  1.05122E+02  1.05851E+03  8.80810E+00  2.36327E+03 -1.09378E+03
  4.75058E+02 -4.13545E+02  2.85246E+03  1.50537E+02  1.01301E+03  2.22098E+03 -1.07655E+03  1.97302E+03
 -1.54650E+03  1.29471E+03 -2.45397E+03 -2.79021E+02 -1.48126E+03 -2.14764E+03  5.51323E+02 -3.85015E+02
  8.51291E+02 -3.89391E+02  1.17787E+03  1.14134E+03  4.75975E+02  1.84063E+03  8.76708E+02  1.40078E+03
  1.28968E+03  4.94510E+02 -5.18984E+02  1.03725E+03  5.46657E+02  1.27361E+03 -7.29296E+02  9.74031E+02
 -7.16003E+02  2.31801E+03 -1.56372E+03  6.31463E+01 -2.27598E+03  1.77615E+03 -2.03660E+03 -4.44890E+02
 -1.42260E+03 -1.10829E+03  3.23217E+02 -3.40950E+03  1.24942E+03 -3.00834E+03  2.52150E+03 -1.38078E+03
  3.06897E+03 -3.60176E+02  1.79616E+03  1.06015E+03 -4.39533E+02  4.37030E+02  1.43219E+02  1.37365E+03
 -9.91903E+02  1.01742E+02 -1.66147E+03  5.87118E+02 -4.41622E+01  1.83483E+02 -7.55863E+02  2.57739E+02
 -1.06788E+03 -1.40778E+02 -5.52955E+02  3.74617E+02 -1.06033E+02 -4.73086E+02 -2.86854E+02 -3.37847E+02
  8.40696E+02  7.84506E+02 -7.17379E+02  4.78263E+01  9.93863E+02  5.13290E+02 -1.16357E+03  2.39970E+03
 -1.28087E+03  2.27078E+03 -2.03115E+03  1.19633E+03 -1.62338E+03 -2.10749E+02 -1.75428E+03 -1.18596E+03
 -9.26689E+02 -1.42741E+03 -2.42564E+01 -1.26818E+03 -3.75718E+02  8.59218E+01  1.72456E+03  1.73706E+02
 -2.88545E+02  6.11951E+02 -3.52661E+02  1.34481E+03 -6.50789E+02 -6.17748E+02 -2.91506E+02 -9.00471E+02
  6.54425E+02 -1.47769E+02  7.72698E+02  5.73531E+02  5.69860E+02  4.90449E+02 -1.95468E+02  1.09102E+02
 -7.23635E+02  1.04082E+03  6.47412E+02  4.93632E+02  3.43712E+02  3.76863E+01 -4.29448E+02 -6.58264E+02
  6.67751E+02 -1.52090E+03  2.95933E+02 -1.77041E+02  8.55099E+02 -1.23874E+03  4.60405E+02  8.01110E+02
 -1.04128E+03  8.54592E+02 -1.01331E+03  1.64799E+03 -4.55719E+02  3.10435E+02 -7.89704E+02 -1.45143E+02
  8.03624E+02  5.57844E+02 -1.16932E+02 -1.02125E+02 -7.68412E+02  3.37640E+02 -1.18250E+03 -8.79277E+02
 -2.61739E+03 -7.71350E+02  1.51039E+02 -3.88650E+02  2.22841E+03 -2.01079E+03  6.17845E+02 -8.23960E+02
  1.49701E+03  5.07315E+02 -2.21935E+02 -2.76827E+02 -7.17884E+02  6.40491E+02  1.78967E+02  6.68154E+02
