 $NMID ID='MM_0lb_SNR200_19hz_g50_27.RAW', FMTDAT='(8E13.5)'
 TRAMP=1., VOLUME=1. $END
  3.10796E+05  3.05135E+02  3.38160E+05  2.50232E+05  8.38985E+04  3.37222E+05 -1.32478E+05  2.51147E+05
 -1.89904E+05  8.32310E+04 -1.11910E+05 -3.28869E+04  2.13773E+03 -5.00172E+04  5.37331E+04  6.33178E+02
  3.48642E+04  5.28018E+04 -1.70659E+04  7.48843E+04 -5.98801E+04  6.29740E+04 -8.28111E+04  3.14271E+04
 -7.98605E+04 -1.00942E+04 -5.66333E+04 -5.04686E+04 -1.53286E+04 -6.81815E+04  2.65577E+04 -4.41925E+04
  3.83452E+04  4.11107E+03  1.48921E+04  4.68229E+04 -3.43481E+04  4.49663E+04 -6.49347E+04 -1.27658E+03
 -5.23895E+04 -5.67503E+04 -6.28479E+03 -7.53954E+04  3.33765E+04 -5.26257E+04  4.61194E+04 -1.65701E+04
  4.18538E+04  1.15891E+04  3.10024E+04  2.46404E+04  1.50244E+04  2.81860E+04 -4.46536E+03  2.71025E+04
 -2.26002E+04  1.23574E+04 -1.88418E+04 -3.86999E+03  5.33258E+03 -7.90677E+03  2.13379E+04  1.03317E+04
  7.41501E+03  3.40722E+04 -3.02866E+04  3.34424E+04 -6.08274E+04  3.12158E+03 -5.55723E+04 -4.05361E+04
 -1.13687E+04 -6.09351E+04  3.84362E+04 -4.40016E+04  5.64912E+04 -3.15562E+03  3.17209E+04  2.96112E+04
 -5.85400E+03  3.22078E+04 -2.83405E+04  1.29796E+04 -2.68193E+04 -6.22760E+03 -1.41377E+04 -1.04303E+04
 -7.86377E+03 -1.14396E+04 -1.56165E+03 -1.69515E+04  6.70208E+03 -2.34909E+04  1.56152E+04 -1.37045E+04
  1.30607E+04  5.36824E+03 -6.64574E+03  1.30909E+04 -1.92774E+04 -2.15879E+03 -7.28319E+03 -3.01258E+04
  2.21076E+04 -3.99371E+04  4.48868E+04 -1.78157E+04  4.24356E+04  1.88885E+04  1.38139E+04  4.08253E+04
 -1.50217E+04  3.21032E+04 -2.31065E+04  9.09967E+02 -8.31028E+03 -2.66788E+04  2.06429E+04 -3.14674E+04
  3.75081E+04 -7.95751E+03  3.20979E+04  2.30510E+04  1.50126E+04  4.39277E+04 -8.37834E+03  4.46736E+04
 -2.73674E+04  2.97764E+04 -3.75557E+04  7.79280E+03 -3.98914E+04 -1.45640E+04 -2.10722E+04 -3.46254E+04
  6.96948E+03 -3.45915E+04  2.87457E+04 -1.22571E+04  2.70208E+04  1.14149E+04  3.67225E+03  1.81573E+04
 -1.29641E+04  7.92123E+03 -9.83486E+03 -7.26709E+03  5.97955E+03 -1.06195E+04  1.76380E+04  6.50206E+03
  1.29612E+04  2.20105E+04 -6.44321E+03  2.31469E+04 -2.14929E+04  9.61135E+03 -2.60476E+04 -5.90497E+03
 -1.78665E+04 -1.66959E+04 -6.07191E+03 -1.66901E+04  3.17542E+03 -1.40262E+04  1.23508E+04 -1.33897E+04
  2.11729E+04 -1.16041E+04  2.84950E+04  1.47348E+03  2.18397E+04  1.57512E+04  3.91744E+03  3.18329E+04
 -1.57366E+04  2.80377E+04 -2.55940E+04  8.63441E+03 -1.97867E+04 -1.01715E+04 -4.53827E+03 -1.45054E+04
  2.73944E+03 -3.86402E+03 -2.01215E+03  4.97629E+03 -1.30392E+04  5.60083E+03 -1.31235E+04 -4.28014E+03
 -8.66168E+03 -1.58762E+04  3.73553E+03 -1.87757E+04  1.17530E+04 -1.54255E+04  1.43302E+04 -2.02111E+03
  8.95718E+03  1.01993E+04 -1.76905E+03  1.69827E+04 -1.04414E+04  9.25265E+03 -1.47421E+04 -3.70261E+03
 -1.07588E+04 -1.37324E+04 -9.94447E+02 -1.88516E+04  8.94054E+03 -1.52241E+04  1.64244E+04 -7.59267E+03
  1.48752E+04  1.57070E+03  9.89997E+03  3.19030E+03  5.44218E+03  1.10265E+02  6.95528E+03 -1.50101E+03
  1.37334E+04  2.43837E+03  1.34371E+04  1.36860E+04  8.44088E+03  2.46089E+04 -2.88035E+03  2.60026E+04
 -1.53077E+04  2.02599E+04 -2.44030E+04  9.34886E+03 -2.54446E+04 -2.22427E+03 -2.09143E+04 -1.43490E+04
 -9.47606E+03 -2.09538E+04  6.67568E+03 -2.04632E+04  1.63324E+04 -1.07990E+04  1.67789E+04  4.31756E+03
  6.95892E+03  1.13434E+04 -7.15275E+03  1.11229E+04 -1.27934E+04  4.32541E+03 -9.35517E+03 -7.39911E+03
 -9.98746E+02 -1.28610E+04  6.73415E+03 -9.59628E+03  7.87561E+03 -1.36512E+03  1.38062E+03  4.22212E+03
 -6.90267E+03  1.10848E+03 -3.21678E+03 -4.00107E+03  2.73397E+02 -9.59676E+03  8.01235E+03 -1.03757E+04
  1.17501E+04 -5.24507E+03  1.14101E+04  1.99871E+03  9.47536E+03  9.72788E+03  4.55910E+03  1.39735E+04
 -2.05741E+03  1.53543E+04 -1.10598E+04  9.77446E+03 -1.19794E+04  1.96118E+03 -8.29780E+03 -1.97832E+03
 -4.66980E+03 -3.51163E+03 -1.35732E+03  1.52464E+03 -2.37849E+03  1.16981E+03 -3.31618E+03  3.58022E+03
 -8.04102E+03 -7.80738E+01 -1.02590E+04 -7.10120E+03 -4.25925E+03 -1.04924E+04  2.91959E+03 -7.73907E+03
  6.22839E+03 -3.35097E+03  5.26254E+03  2.05762E+03  8.07575E+02  3.14262E+03 -2.98816E+03 -2.19585E+02
 -4.32878E+03 -4.83861E+03 -8.75335E+02 -7.15637E+03  3.90750E+03 -7.29857E+03  1.03966E+04 -2.99920E+03
  1.14333E+04 -4.99497E+02  9.30594E+03  5.93435E+03  2.30182E+03  7.76581E+03 -5.35867E+03  8.75568E+03
 -6.70668E+03  2.54907E+03 -3.44757E+03 -1.43112E+03  1.44176E+03 -1.05495E+03  4.29378E+03 -9.88932E+02
  3.93100E+03  1.89725E+03  1.31460E+03  5.97524E+03 -4.74973E+03  6.61724E+03 -8.47243E+03  1.53012E+03
 -5.25995E+03 -3.73516E+03  1.69232E+02 -6.90116E+03  2.95048E+03 -3.15249E+03  2.41715E+03 -6.27082E+01
 -1.00042E+02  3.00672E+03 -4.21087E+03  4.23873E+03 -3.96930E+03  2.52842E+02 -4.10163E+03 -6.93724E+02
 -2.08178E+03 -6.39377E+03  8.52284E+02 -6.34204E+03  5.07519E+03 -4.93419E+03  6.08899E+03  1.27128E+03
  4.93777E+03  6.12094E+03 -5.00666E+02  6.88435E+03 -5.29501E+03  4.36547E+03 -4.83073E+03 -6.65111E+02
 -5.35738E+03 -5.58794E+03 -2.02834E+03 -4.72597E+03  3.52087E+03 -5.45053E+03  3.60105E+03 -2.64692E+03
  2.87102E+03 -9.40533E+01 -5.57285E+02  2.07375E+03  3.73280E+02 -3.56353E+02 -7.84262E+01 -1.77596E+03
  2.43749E+03 -1.04753E+03  4.45558E+03  1.52064E+03  5.22344E+03  1.74356E+03  5.74979E+03  6.23453E+03
 -2.36412E+03  8.53907E+03 -7.02047E+03  6.05436E+03 -9.46956E+03  2.29824E+03 -6.81175E+03 -1.59538E+03
 -4.94461E+03 -6.62986E+03 -5.23727E+02 -5.19681E+03  1.55557E+03 -1.70412E+03  6.95490E+02 -1.73606E+03
  1.38351E+03  4.96314E+01  2.16893E+03 -2.48281E+03  3.26896E+03 -1.10548E+03  3.09280E+03  3.68040E+02
  4.83771E+03  1.62115E+03  1.11941E+03  3.51276E+03 -1.66657E+03  3.00888E+03 -5.24477E+03  2.80930E+03
 -4.17296E+03 -7.15663E+02 -1.92491E+03 -3.69868E+03  7.72636E+02 -5.12094E+03  2.37927E+03 -5.22223E+03
  4.62544E+03 -3.26790E+03  5.67354E+03  2.78375E+02  4.48740E+03  3.86453E+03  7.56299E+02  5.77133E+03
 -1.40978E+03  5.22756E+03 -5.34646E+03  2.53051E+03 -9.84041E+02 -3.17589E+02 -1.01854E+03 -6.36693E+02
 -5.91035E+02  6.59784E+02 -1.12970E+03  1.54321E+03 -2.33261E+03  1.26165E+03 -3.03294E+03 -1.01849E+03
 -4.59432E+02 -4.02392E+03  1.56638E+02 -4.88838E+03  2.92153E+03 -3.83901E+03  3.55797E+03 -1.05370E+03
  3.75293E+03  1.77403E+03  2.05614E+03  3.49051E+03 -1.25689E+03  4.15450E+03 -2.57242E+03  2.75470E+03
 -3.24025E+03  7.72941E+02 -2.79384E+03 -2.25184E+03 -2.11275E+02 -3.01054E+03  1.46909E+03 -3.95952E+03
  2.28507E+03 -1.38623E+03  1.43566E+03  1.20511E+03  2.00447E+01  1.95447E+03  4.92971E+02  6.29424E+02
  1.88845E+03  1.31799E+02  1.46420E+03  1.86329E+03  2.40758E+03  1.96870E+03  4.47244E+02  1.89218E+03
 -7.81455E+02  3.49986E+03 -2.24231E+03  3.64050E+03 -1.52289E+03  2.35780E+03 -4.99011E+03 -4.48297E+02
 -1.39921E+03 -2.85898E+03  1.86868E+02 -4.29777E+03  2.16165E+03 -2.67076E+03  2.83102E+03 -5.65774E+02
  2.09031E+03  5.97857E+02  2.17949E+02  2.00454E+03 -1.94533E+03  9.66243E+02 -7.57105E+02 -1.08218E+03
  2.22687E+01 -2.12518E+03  1.72480E+03 -2.15556E+03  1.13806E+03 -1.03574E+03  6.83912E+02  1.54223E+02
  1.25567E+02  2.74260E+01  2.69964E+02 -3.61447E+02 -2.82460E+02  7.55371E+02  2.58617E+03 -8.76812E+02
 -7.63019E+02 -5.00643E+02  2.89640E+03  9.23116E+02 -3.74420E+02  2.64012E+03 -1.34883E+02  2.28491E+03
 -9.04386E+02  1.21821E+03 -1.45382E+03 -1.24134E+03 -2.08660E+03 -4.25221E+02 -5.87201E+02 -1.22621E+03
  1.75546E+02 -1.51546E+03  5.75754E+02 -9.89722E+02  7.18577E+02  1.41166E+03 -1.33515E+03  1.98780E+03
 -1.55595E+03  1.62337E+03 -1.54322E+03 -1.60632E+03 -3.41081E+02 -1.90541E+03  2.22406E+02 -1.54559E+03
  6.02992E+02 -1.47797E+03  1.35436E+03 -2.40852E+02  2.04651E+03  3.04122E+02  5.22699E+02 -2.09562E+02
  1.55171E+02  4.56623E+02 -1.11637E+03 -1.43235E+02  8.04129E+01 -1.32895E+03  1.85918E+03 -1.13502E+03
  1.43391E+03  2.60709E+02  3.21055E+03  5.03297E+02  1.28092E+03  4.90020E+02  1.22123E+02  2.51872E+03
 -1.10818E+03 -2.51222E+02 -1.22933E+03  2.14116E+01 -1.32540E+03 -1.52056E+03  2.14006E+01 -4.78139E+02
  1.63373E+03 -1.59871E+02  1.31769E+03  6.17304E+02  2.32800E+02  3.99671E+02 -1.20843E+03  5.20963E+02
 -1.35180E+02  8.22428E+02 -3.45669E+02  3.54212E+02  9.07772E+02  1.94191E+02 -6.92416E+02  7.34269E+02
 -1.07452E+03  2.15531E+03 -2.79352E+03 -3.93176E+02 -8.82533E+02 -2.89997E+01 -2.28658E+03 -1.38455E+03
 -9.07571E+02 -2.75355E+03  3.35892E+02 -2.05672E+03  9.74544E+02 -2.17931E+03  2.33697E+03 -1.90179E+03
  1.85928E+03 -6.70330E+02  1.76676E+03  1.41941E+03 -2.73218E+01  1.08171E+03 -9.02716E+02  1.63573E+03
 -6.27945E+02  3.11700E+02  7.57638E+02 -3.32677E+02  1.87825E+02  3.33940E+02 -1.22610E+03  3.88487E+02
 -4.65358E+02 -4.25443E+02 -3.58877E+02 -3.36007E+02  1.19880E+02 -7.14951E+02 -8.26197E+02 -1.36489E+03
  1.61840E+03 -5.86993E+02  3.26774E+01  1.36640E+03  1.37876E+03  5.80767E+02 -3.32503E+02  1.50783E+03
 -5.80254E+02  2.01340E+03 -1.09782E+03  1.05365E+03 -7.88002E+02 -1.30963E+03 -1.59683E+03 -3.51787E+02
  5.71823E+01 -1.24474E+03  6.10069E+02 -1.39953E+03  1.04829E+03 -1.30217E+02  1.77836E+02  3.09072E+02
 -1.70944E+02 -4.08868E+02  1.31644E+01 -5.26554E+02 -3.44916E+02  4.05750E+02  6.03753E+02 -5.37114E+02
  9.76262E+02 -7.53622E+02  4.51745E+02  2.94513E+02 -2.99076E+02 -1.19808E+02  4.81695E+02  2.56410E+02
 -2.33739E+02  6.95225E+02 -1.37843E+02 -5.55006E+02 -1.82239E+03  1.47034E+03  7.43575E+02 -1.09038E+03
 -4.48008E+02 -1.12778E+03  4.06116E+02 -1.09960E+02 -8.10104E+01 -7.84796E+02 -3.11418E+01  6.14250E+02
  4.09725E+02  3.59058E+02  1.34362E+03  1.44415E+03 -9.92841E+02  1.04315E+03  6.09123E+02 -7.81319E+02
  2.20943E+02 -1.07873E+02 -1.58787E+03  1.13772E+03 -1.96877E+02 -4.35458E+02 -5.53298E+02 -8.68600E+02
 -9.37647E+02  6.10113E+02 -3.35820E+02 -1.33315E+03 -1.02884E+02 -2.43888E+03  3.11228E+02 -3.84867E+02
 -7.09154E+02  9.06952E+01  5.04042E+01  5.38472E+01  1.43609E+02  1.27493E+03 -1.10751E+03  1.95147E+02
