 $NMID ID='MM_0lb_SNR200_16hz_g45_64.RAW', FMTDAT='(8E13.5)'
 TRAMP=1., VOLUME=1. $END
  3.08313E+05 -9.30376E+02  3.36507E+05  2.50340E+05  8.33873E+04  3.37868E+05 -1.32620E+05  2.50415E+05
 -1.89362E+05  8.28116E+04 -1.11234E+05 -3.29902E+04  3.79176E+02 -5.13340E+04  5.36155E+04 -7.37471E+02
  3.56085E+04  5.25181E+04 -1.72177E+04  7.51805E+04 -6.03781E+04  6.31957E+04 -8.25686E+04  3.13278E+04
 -7.95996E+04 -1.18074E+04 -5.77320E+04 -5.02160E+04 -1.55453E+04 -6.94559E+04  2.75546E+04 -4.50963E+04
  4.03491E+04  3.51964E+03  1.57982E+04  4.61536E+04 -3.28580E+04  4.75505E+04 -6.50331E+04 -3.97163E+02
 -5.13579E+04 -5.59411E+04 -6.91824E+03 -7.59040E+04  3.28324E+04 -5.38748E+04  4.73433E+04 -1.64237E+04
  4.28244E+04  1.14289E+04  3.08749E+04  2.60259E+04  1.59674E+04  2.89695E+04 -4.85196E+03  2.81175E+04
 -2.16316E+04  1.30588E+04 -1.89357E+04 -4.12023E+03  5.16335E+03 -8.00816E+03  2.14210E+04  1.18926E+04
  7.53750E+03  3.43051E+04 -3.09365E+04  3.47083E+04 -6.34492E+04  1.32550E+03 -5.62361E+04 -4.16095E+04
 -1.33511E+04 -6.15162E+04  3.91669E+04 -4.38716E+04  5.72424E+04 -1.78792E+03  3.30266E+04  3.29657E+04
 -6.21760E+03  3.43584E+04 -2.91580E+04  1.46597E+04 -2.89123E+04 -4.97902E+03 -1.48429E+04 -1.00686E+04
 -8.41713E+03 -1.24969E+04 -1.48700E+03 -1.87045E+04  7.87889E+03 -2.34085E+04  1.42241E+04 -1.31054E+04
  1.06826E+04  4.83919E+03 -7.70878E+03  1.24558E+04 -1.98714E+04 -3.16905E+03 -8.30627E+03 -3.24372E+04
  2.30653E+04 -4.22271E+04  4.65763E+04 -1.82599E+04  4.36334E+04  1.95084E+04  1.39106E+04  4.36960E+04
 -1.55929E+04  3.24162E+04 -2.38310E+04  2.33774E+02 -8.31541E+03 -2.62903E+04  2.02750E+04 -3.23559E+04
  4.01573E+04 -8.05295E+03  3.25315E+04  2.35359E+04  1.68222E+04  4.39571E+04 -8.94254E+03  4.70273E+04
 -3.02971E+04  3.13830E+04 -3.94769E+04  9.49374E+03 -4.02607E+04 -1.62001E+04 -2.22153E+04 -3.56533E+04
  6.30264E+03 -3.43114E+04  3.08591E+04 -1.41191E+04  2.64940E+04  1.03047E+04  2.42793E+03  1.73101E+04
 -1.39512E+04  6.64339E+03 -9.54280E+03 -7.75461E+03  6.66347E+03 -1.06439E+04  1.78378E+04  6.72026E+03
  1.31461E+04  2.04128E+04 -6.79543E+03  2.34907E+04 -2.18472E+04  1.01026E+04 -2.67771E+04 -4.60505E+03
 -1.91934E+04 -1.72323E+04 -7.05291E+03 -1.96162E+04  3.49645E+03 -1.66524E+04  1.41950E+04 -1.71030E+04
  2.35584E+04 -1.25008E+04  3.00241E+04  2.06568E+03  2.23959E+04  1.83347E+04  4.90804E+03  3.45923E+04
 -1.61944E+04  2.88458E+04 -2.61746E+04  1.03087E+04 -1.92085E+04 -1.05740E+04 -4.40873E+03 -1.36905E+04
  3.12588E+03 -3.21528E+03 -4.05166E+03  6.61666E+03 -1.44934E+04  4.53592E+03 -1.42817E+04 -5.85359E+03
 -8.86514E+03 -1.71443E+04  4.39666E+03 -2.14354E+04  1.43847E+04 -1.50077E+04  1.64042E+04 -9.42511E+02
  1.09241E+04  1.10198E+04 -8.09496E+02  1.78784E+04 -1.23311E+04  9.36539E+03 -1.68359E+04 -4.65438E+03
 -1.21786E+04 -1.63192E+04 -3.73000E+02 -2.16429E+04  9.53632E+03 -1.68659E+04  1.70591E+04 -8.96959E+03
  1.54876E+04 -2.55921E+02  1.08376E+04  4.22732E+03  6.66845E+03 -2.17820E+02  7.87434E+03  2.97638E+02
  1.57587E+04  3.00841E+03  1.70803E+04  1.40855E+04  1.13706E+04  2.74256E+04 -3.70451E+03  3.02186E+04
 -1.74995E+04  2.38100E+04 -2.74588E+04  1.14786E+04 -2.87750E+04 -1.70989E+03 -2.36381E+04 -1.59688E+04
 -1.08444E+04 -2.43720E+04  8.91564E+03 -2.15965E+04  1.87438E+04 -1.05542E+04  1.66002E+04  4.47148E+03
  7.05074E+03  1.28830E+04 -7.07796E+03  1.05725E+04 -1.43620E+04  3.47343E+03 -1.14833E+04 -9.63318E+03
  9.61316E+02 -1.48508E+04  6.64650E+03 -9.77714E+03  8.67339E+03 -1.31635E+03  1.87918E+03  6.28393E+03
 -5.84376E+03  7.76884E+02 -4.52387E+03 -4.39741E+03 -4.16702E+02 -1.23682E+04  8.92779E+03 -1.12232E+04
  1.38879E+04 -5.88939E+03  1.44243E+04  2.79148E+03  1.31191E+04  1.07848E+04  5.54281E+03  1.59403E+04
 -1.33513E+03  1.90074E+04 -1.10188E+04  1.20198E+04 -1.27826E+04  2.80969E+03 -9.58774E+03 -3.43571E+03
 -4.45273E+03 -4.07264E+03 -4.11344E+02  1.30860E+03 -2.84207E+03  2.60014E+03 -3.04577E+03  2.80237E+03
 -8.20411E+03 -1.73407E+03 -9.97098E+03 -8.54330E+03 -3.87490E+03 -1.26943E+04  5.27651E+03 -9.44818E+03
  8.40452E+03 -4.45992E+03  6.16511E+03  1.31603E+03 -4.23328E+02  3.88146E+03 -4.02508E+03 -9.43650E+02
 -2.73175E+03 -5.79706E+03 -2.32015E+03 -8.84974E+03  3.74873E+03 -9.79990E+03  1.13133E+04 -5.33579E+03
  1.36516E+04  1.43110E+03  9.43935E+03  7.91498E+03  8.40318E+02  1.10863E+04 -7.66652E+03  9.77062E+03
 -7.51525E+03  2.94429E+03 -3.92883E+03 -2.81133E+03  1.02418E+03 -2.27394E+03  4.78117E+03 -3.76688E+02
  4.33663E+03  4.04098E+03  2.26652E+02  6.76491E+03 -6.20970E+03  6.70294E+03 -9.62303E+03  1.37840E+03
 -6.23778E+03 -4.46841E+03 -3.73202E+02 -6.36506E+03  4.62616E+03 -4.38907E+03  4.16439E+03  1.51999E+03
  6.73275E+02  4.73500E+03 -5.75310E+03  5.86020E+03 -6.33358E+03  2.76145E+03 -6.21057E+03 -1.97702E+03
 -3.32080E+03 -8.30059E+03  1.46965E+03 -9.19245E+03  6.27455E+03 -5.21645E+03  8.14586E+03  1.24910E+03
  5.64124E+03  6.62080E+03  2.37240E+02  9.59865E+03 -6.42968E+03  5.06556E+03 -6.90002E+03 -1.51164E+03
 -6.72184E+03 -6.53254E+03 -1.17381E+03 -5.51113E+03  3.94207E+03 -4.75613E+03  2.90449E+03 -2.54972E+03
  3.50105E+03  1.25335E+03 -7.61254E+01  1.32928E+03  6.39077E+02 -7.46316E+02  1.51712E+03 -2.56949E+03
  5.42493E+03 -1.68224E+03  8.24239E+03  1.40053E+03  6.79882E+03  3.96931E+03  5.47383E+03  9.18598E+03
 -1.96654E+03  1.13063E+04 -8.92411E+03  7.95297E+03 -1.24425E+04  1.96427E+03 -9.82241E+03 -4.69108E+03
 -5.39506E+03 -8.47489E+03  5.81712E+02 -7.22350E+03  2.26982E+03 -3.80025E+03  2.78113E+03 -3.01668E+03
  1.35547E+03 -1.28686E+03  3.10304E+03 -2.51175E+03  3.81256E+03 -2.11578E+03  4.50409E+03  1.08379E+03
  4.81456E+03  1.59923E+03  2.88028E+03  3.93361E+03 -1.31406E+03  3.41822E+03 -5.47626E+03  4.19248E+03
 -5.75687E+03 -1.62952E+03 -2.70414E+03 -4.60467E+03 -3.09759E+02 -7.20094E+03  3.02661E+03 -6.36904E+03
  7.16709E+03 -4.69991E+03  8.90779E+03  7.68803E+02  6.62798E+03  6.22775E+03  1.28901E+03  8.46212E+03
 -2.98511E+03  6.50104E+03 -4.49914E+03  2.19151E+03 -1.87852E+03 -1.40756E+03 -1.04482E+03 -7.23468E+02
 -8.84138E+02 -7.62477E+02 -5.44676E+02  1.53001E+03 -3.84040E+03  6.97341E+02 -4.48161E+03 -5.78029E+02
 -2.93658E+03 -5.86145E+03  6.32410E+02 -5.54371E+03  3.29150E+03 -6.61496E+03  3.22911E+03 -1.07903E+03
  6.30438E+03  3.32199E+03  3.00483E+03  5.97565E+03 -1.72466E+03  6.88804E+03 -3.86543E+03  3.03588E+03
 -4.99254E+03  2.38843E+02 -5.56114E+03 -4.18551E+03  6.79748E+02 -4.85739E+03  2.81236E+03 -3.56181E+03
  3.14195E+03 -1.97223E+03  2.67686E+03  4.79074E+02  6.62093E+02  3.14808E+03  1.80601E+03  1.26808E+03
  2.97247E+03  1.91833E+03  4.60908E+02  1.53526E+03  1.63914E+03  2.70093E+03  1.76108E+03  2.80122E+03
 -5.74408E+02  4.46997E+03 -2.92782E+03  5.13689E+03 -4.79097E+03  2.65096E+03 -6.59131E+03 -1.93320E+03
 -3.37665E+03 -5.90128E+03  9.42104E+02 -6.53953E+03  2.84676E+03 -3.29612E+03  4.81209E+03 -2.29769E+03
  2.99771E+03  1.09822E+03  6.35293E+02  3.06347E+03 -1.65061E+03  1.74557E+03 -1.48950E+03 -8.67991E+01
 -1.25455E+03 -2.88979E+03  1.55953E+03 -2.22253E+03  5.17436E+02 -2.71020E+02  2.50831E+03  1.56048E+02
  1.24874E+03  1.26681E+03  1.36704E+03  5.22695E+02 -6.49658E+02  6.35933E+02  2.40331E+03 -1.17548E+02
  1.49229E+03  5.56667E+02  2.23384E+03  1.40260E+03  1.04569E+03  2.93401E+03  1.03075E+02  4.97669E+03
 -3.08277E+03  1.17852E+03 -4.24101E+03  4.18693E+02 -2.71150E+03 -3.01688E+02 -8.10396E+02 -1.68521E+03
 -2.24302E+01 -7.81072E+02  2.22934E+02 -9.90827E+02 -3.49146E+02  1.75152E+03 -8.92737E+02  1.75719E+03
 -2.99984E+03  5.34199E+02 -2.43476E+03 -9.95918E+02 -2.36920E+03 -3.38661E+03  8.79922E+02 -1.89063E+03
  2.49353E+03 -1.93010E+03  1.72016E+03 -5.88881E+02  2.73024E+03  2.56148E+02  7.22842E+02  2.09922E+03
 -1.42464E+02 -2.43492E+02 -1.27388E+03 -5.05491E+02  1.69369E+03 -2.36534E+03  2.77545E+03 -9.22901E+02
  2.00588E+03 -5.04020E+02  3.03789E+03  3.17327E+02  1.28067E+03  3.52820E+03 -8.78731E+02  2.98545E+03
 -2.04259E+03  2.79425E+02 -2.73680E+03 -1.63359E+02 -1.34297E+03 -1.13691E+03  2.33376E+02 -5.79767E+02
  2.45964E+03 -1.95333E+03  1.40372E+03  1.75588E+03  2.87447E+02  2.83559E+03  2.46055E+02  8.27548E+02
 -7.00908E+02  5.27201E+02 -1.62135E+03  1.96957E+03 -3.90847E+02 -7.01279E+01 -9.06116E+02  3.04696E+02
 -4.67850E+02  9.99982E+02 -3.15653E+03 -3.91895E+02 -3.49063E+03  4.18655E+02 -4.16576E+03 -1.62099E+03
 -1.04882E+03 -4.47745E+03  4.38396E+02 -4.24860E+03  2.16511E+03 -3.95346E+03  3.49183E+03 -1.16360E+02
  3.23534E+03 -1.70069E+02  1.89036E+03  1.28746E+03  1.95414E+02  3.54935E+03 -6.35992E+02  2.60863E+03
 -2.16047E+03  7.68843E+02 -1.30429E+03  9.13744E+02 -2.70994E+02  4.95117E+02 -1.01793E+03 -1.03616E+03
 -1.05756E+03 -2.43982E+02 -1.02831E+03 -5.23793E+02 -4.02625E+02 -3.07184E+02  1.54629E+01 -1.30769E+03
  1.68230E+03 -1.61360E+03  1.17222E+03  4.39422E+02  1.74302E+03  2.67988E+03  3.34412E+02  2.47488E+03
 -2.17424E+03  3.98192E+03 -4.64140E+03  1.12546E+03 -3.61831E+03  3.54513E+02 -8.99983E+02 -1.63539E+03
 -1.38012E+03 -2.07725E+03  1.18182E+03 -1.68762E+03  3.70600E+02 -9.08958E+02  2.27861E+03 -5.84715E+02
 -3.96026E+01  2.46057E+03 -1.19181E+03  1.14922E+03 -1.37379E+02 -9.24705E+01 -3.91090E+02 -6.64841E+02
  6.10771E+02 -1.62744E+02  1.08533E+03  1.20037E+03 -8.84182E+02  4.77629E+02  5.42015E+02  5.91196E+02
 -7.73201E+02  9.26491E+02 -1.99159E+03  3.78231E+02 -1.24948E+03 -1.71398E+03 -6.41098E+02 -2.89968E+03
  8.42064E+02 -1.56029E+03  9.47008E+02  1.45446E+02  2.82581E+03 -4.75931E+02  8.50659E+02  1.20246E+03
 -2.29055E+02  7.16743E+02 -8.81888E+02  1.30949E+03 -1.28938E+03  7.61396E+02 -1.96159E+03  4.45118E+02
 -3.78326E+02  4.85573E+02 -1.24127E+03 -2.93423E+02 -3.55299E+01 -5.64326E+02 -1.27599E+03  3.43167E+02
 -1.07956E+03  9.93665E+02 -2.92551E+02 -1.16012E+03  1.53838E+03 -1.57296E+03  1.81525E+03 -1.54160E+03
  2.08862E+03 -5.11968E+02 -2.20767E+02  7.42444E+02  3.05954E+02  1.03880E+03 -8.55950E+02  1.12356E+03
