 $NMID ID='MM_0lb_SNR200_9hz_g40_95.RAW', FMTDAT='(8E13.5)'
 TRAMP=1., VOLUME=1. $END
  3.09987E+05 -1.56341E+03  3.37364E+05  2.51249E+05  8.44038E+04  3.38403E+05 -1.33205E+05  2.51508E+05
 -1.90805E+05  8.27001E+04 -1.10373E+05 -3.26841E+04  8.04148E+02 -5.15216E+04  5.55598E+04  7.69252E+02
  3.46087E+04  5.21563E+04 -1.85087E+04  7.62799E+04 -6.19809E+04  6.57716E+04 -8.48869E+04  3.07772E+04
 -8.05293E+04 -1.11331E+04 -5.70586E+04 -5.35076E+04 -1.58833E+04 -7.03216E+04  2.70900E+04 -4.55399E+04
  3.95786E+04  4.38330E+03  1.60016E+04  4.98664E+04 -3.50752E+04  4.83570E+04 -6.82738E+04  1.47301E+03
 -5.44622E+04 -5.82298E+04 -7.02387E+03 -7.88895E+04  3.34546E+04 -5.66255E+04  5.00219E+04 -1.76324E+04
  4.45385E+04  1.22309E+04  3.25814E+04  2.70343E+04  1.59242E+04  2.99451E+04 -5.16618E+03  2.92510E+04
 -2.02686E+04  1.21255E+04 -1.81722E+04 -5.88475E+03  6.78833E+03 -7.00461E+03  2.22853E+04  1.22896E+04
  8.59382E+03  3.73605E+04 -3.32409E+04  3.61811E+04 -6.57246E+04  2.32683E+03 -5.82622E+04 -4.53120E+04
 -1.29505E+04 -6.52660E+04  4.10173E+04 -4.85855E+04  6.06415E+04 -1.74066E+03  3.56833E+04  3.66696E+04
 -4.60010E+03  3.91587E+04 -3.15602E+04  1.82821E+04 -3.31405E+04 -3.38318E+03 -1.90814E+04 -1.24215E+04
 -9.39426E+03 -1.48646E+04 -7.10099E+02 -1.97326E+04  8.77300E+03 -2.29888E+04  1.73565E+04 -1.19677E+04
  1.12352E+04  6.40156E+03 -1.02592E+04  1.41769E+04 -2.37892E+04 -4.62989E+03 -7.67764E+03 -3.68955E+04
  2.35825E+04 -4.56298E+04  5.17834E+04 -2.01622E+04  4.83010E+04  2.08756E+04  1.65241E+04  4.72591E+04
 -1.59718E+04  3.54446E+04 -2.61984E+04  2.06905E+03 -1.18647E+04 -2.70635E+04  2.28260E+04 -3.62792E+04
  4.36792E+04 -9.93913E+03  4.08982E+04  2.42964E+04  2.05391E+04  4.95383E+04 -7.23558E+03  5.53459E+04
 -3.57198E+04  3.67198E+04 -4.58841E+04  1.09053E+04 -4.61216E+04 -1.81361E+04 -2.60973E+04 -4.31650E+04
  9.03601E+03 -4.00002E+04  3.47902E+04 -1.71140E+04  3.11095E+04  1.16444E+04  4.05529E+03  2.05774E+04
 -1.36258E+04  9.03399E+03 -1.01194E+04 -7.80097E+03  6.13769E+03 -1.18985E+04  1.77064E+04  4.59465E+03
  1.36539E+04  2.25088E+04 -6.36769E+03  2.56975E+04 -2.29718E+04  1.31270E+04 -2.99486E+04 -2.01935E+03
 -2.45329E+04 -1.87046E+04 -9.62072E+03 -2.42464E+04  2.88178E+03 -2.55348E+04  2.00119E+04 -2.25820E+04
  3.11458E+04 -1.34524E+04  3.68873E+04  3.30139E+03  2.61353E+04  2.42304E+04  4.76453E+03  4.06364E+04
 -2.04134E+04  3.40568E+04 -2.99549E+04  1.26161E+04 -2.14902E+04 -9.55542E+03 -5.42795E+03 -1.19353E+04
  5.62835E+02 -2.26450E+03 -7.17321E+03  7.34288E+03 -1.94507E+04  5.69674E+03 -1.88689E+04 -8.78067E+03
 -1.10036E+04 -2.25169E+04  4.75708E+03 -2.70803E+04  1.68707E+04 -1.86199E+04  2.14534E+04 -7.83713E+02
  1.38196E+04  1.63054E+04 -1.69093E+03  2.24633E+04 -1.64660E+04  1.25085E+04 -2.18883E+04 -4.60820E+03
 -1.65320E+04 -1.95982E+04 -3.22014E+03 -2.65356E+04  1.33295E+04 -2.16867E+04  2.26508E+04 -1.18789E+04
  2.15320E+04  4.64877E+02  1.55455E+04  5.09506E+03  7.77991E+03  1.14978E+03  1.23582E+04 -2.27885E+03
  2.17475E+04  2.42254E+03  2.23270E+04  1.80888E+04  1.71246E+04  3.53011E+04 -3.77067E+03  4.15747E+04
 -2.49111E+04  3.43461E+04 -4.02612E+04  1.81915E+04 -4.28925E+04 -2.40970E+03 -3.35737E+04 -2.48144E+04
 -1.30226E+04 -3.67787E+04  1.12722E+04 -3.17285E+04  2.65057E+04 -1.55740E+04  2.34300E+04  6.43819E+03
  7.88296E+03  1.94908E+04 -1.12713E+04  1.48446E+04 -1.78929E+04  3.69706E+03 -1.47649E+04 -1.22406E+04
 -1.74425E+00 -1.80007E+04  8.93895E+03 -1.26456E+04  1.14530E+04 -3.19378E+02  2.78820E+03  7.68365E+03
 -7.81667E+03  3.13810E+03 -9.18483E+03 -6.07021E+03 -2.77275E+03 -1.90465E+04  1.20998E+04 -1.82219E+04
  2.31225E+04 -1.04097E+04  2.54636E+04  2.61399E+03  2.16154E+04  1.70516E+04  1.06220E+04  2.71506E+04
 -5.72263E+03  2.95113E+04 -1.86596E+04  1.74266E+04 -2.18045E+04  4.95924E+03 -1.49094E+04 -6.08833E+03
 -4.59648E+03 -7.28756E+03  8.73648E+02  1.67875E+02 -3.08530E+03  1.89217E+03 -7.49928E+03  6.41667E+03
 -1.36936E+04 -1.48056E+03 -1.24237E+04 -1.11911E+04 -5.07434E+03 -2.12290E+04  6.01022E+03 -1.51724E+04
  1.30356E+04 -5.75416E+03  8.88290E+03  3.95641E+03  7.98047E+02  6.28882E+03 -6.23891E+03  4.04819E+02
 -6.49725E+03 -9.51311E+03 -1.63528E+03 -1.56011E+04  7.63115E+03 -1.60415E+04  1.91123E+04 -9.15000E+03
  2.08970E+04  1.98957E+03  1.68726E+04  1.46359E+04  3.94137E+03  1.72000E+04 -8.89629E+03  1.39574E+04
 -1.18373E+04  3.42368E+03 -5.19463E+03 -3.23210E+03  2.67350E+03 -3.77454E+03  8.53435E+03 -3.58824E+02
  6.30978E+03  6.14969E+03  2.05835E+03  9.88529E+03 -9.00249E+03  1.16524E+04 -1.30560E+04  7.81403E+02
 -1.06755E+04 -6.96586E+03  5.31570E+02 -1.33187E+04  8.72986E+03 -6.89769E+03  8.43697E+03  1.97924E+03
  2.08301E+03  8.00966E+03 -7.52061E+03  1.06615E+04 -1.31305E+04  5.70675E+03 -1.36929E+04 -6.17709E+03
 -7.85689E+03 -1.46389E+04  3.57457E+03 -1.61715E+04  1.22800E+04 -1.04595E+04  1.62489E+04  3.46248E+03
  9.73276E+03  1.25027E+04 -2.56004E+03  1.55429E+04 -1.23630E+04  8.62074E+03 -1.16225E+04 -1.77277E+03
 -1.01666E+04 -9.23445E+03 -1.51509E+03 -1.17665E+04  5.62176E+03 -9.09887E+03  6.87645E+03 -5.04752E+03
  5.41513E+03  3.03502E+03 -2.39956E+03  2.05551E+03 -1.07099E+03 -3.88017E+03  2.27718E+03 -5.99817E+03
  1.04378E+04 -4.07197E+03  1.43042E+04  2.48745E+03  1.45388E+04  9.65767E+03  8.97969E+03  2.02085E+04
 -3.90280E+03  2.18849E+04 -1.77663E+04  1.90083E+04 -2.44953E+04  2.85974E+03 -1.84486E+04 -7.83895E+03
 -1.02544E+04 -1.60520E+04 -6.69355E+02 -1.49269E+04  4.64205E+03 -8.61176E+03  4.38318E+03 -3.79679E+03
  4.13997E+03 -2.86275E+03  3.55221E+03 -2.54605E+03  5.09778E+03 -2.28582E+03  7.85937E+03 -1.21289E+03
  1.02376E+04  1.79037E+03  6.75310E+03  9.77779E+03 -1.39745E+03  1.06642E+04 -1.06020E+04  8.38519E+03
 -1.35654E+04 -1.07478E+03 -7.53126E+03 -1.10484E+04 -1.22114E+03 -1.40533E+04  9.35124E+03 -1.57354E+04
  1.59395E+04 -7.77235E+03  1.84664E+04  2.27548E+03  1.34556E+04  1.35669E+04  8.83385E+02  1.67450E+04
 -7.50509E+03  1.40483E+04 -9.31595E+03  5.30584E+03 -6.16336E+03 -1.60173E+03 -2.59252E+03 -9.03362E+02
 -6.15930E+02  9.33635E+02 -1.40748E+03  3.90186E+03 -5.28937E+03  1.98265E+03 -1.08713E+04 -9.89603E+02
 -6.64634E+03 -1.03235E+04  2.58206E+02 -1.31826E+04  8.79277E+03 -1.19191E+04  1.23267E+04 -3.40896E+03
  1.48872E+04  6.03584E+03  4.72699E+03  1.23415E+04 -3.75845E+03  1.30779E+04 -1.04909E+04  8.29285E+03
 -1.30053E+04 -1.27367E+03 -1.10457E+04 -8.04405E+03 -6.63497E+02 -1.20202E+04  4.53686E+03 -1.06814E+04
  8.95875E+03 -1.88154E+03  5.95741E+03  2.16242E+03  2.59633E+03  3.97181E+03  9.04832E+02  1.11626E+03
  3.37836E+03  1.70217E+03  5.53334E+03  1.09644E+03  3.84966E+03  4.31258E+03  3.56925E+03  8.52085E+03
 -3.82606E+03  1.06686E+04 -1.06960E+04  1.00328E+04 -1.25389E+04  3.19848E+03 -1.44791E+04 -5.30849E+03
 -7.66492E+03 -1.39054E+04  2.69886E+03 -1.69151E+04  8.24659E+03 -1.08989E+04  1.29928E+04 -2.20154E+03
  8.53767E+03  6.46336E+03  1.43761E+03  8.09589E+03 -3.19843E+03  5.24173E+03 -5.29358E+03 -1.48375E+03
 -1.94615E+03 -6.12961E+03  3.55888E+03 -6.80933E+03  5.57852E+03 -3.77602E+03  5.92203E+03  1.09554E+02
  3.55080E+03  2.43300E+03  2.10641E+03  2.99969E+03 -9.29065E+02  4.08478E+02  2.72887E+03  7.38466E+02
  3.09812E+03  1.04418E+02  5.23441E+03  2.63000E+03  1.41693E+03  7.20222E+03 -3.08108E+03  1.07597E+04
 -5.67241E+03  6.97262E+03 -9.00922E+03  1.59039E+03 -6.87271E+03 -2.89016E+03 -2.98868E+03 -5.53494E+03
  1.31379E+03 -4.19450E+03  2.38851E+03 -2.01614E+03  4.36653E+03  1.88872E+03 -2.61827E+03  4.41270E+03
 -5.86761E+03  4.38418E+03 -6.42390E+03 -3.75391E+03 -3.55498E+03 -8.37694E+03  1.29309E+03 -8.14598E+03
  3.62816E+03 -3.47033E+03  6.04830E+03  3.10591E+02  3.77456E+03  1.32435E+03  9.94130E+02  4.64731E+03
 -4.78843E+03  1.05882E+03 -3.80186E+03 -3.39134E+03  3.21413E+02 -6.63157E+03  6.91297E+03 -4.48378E+03
  1.01790E+04  1.94024E+02  8.91046E+03  6.63425E+03  1.37573E+03  1.02817E+04 -4.62556E+03  8.52572E+03
 -8.43834E+03  4.69888E+03 -8.16337E+03 -6.95314E+02 -4.14523E+03 -6.25459E+03  2.20871E+03 -5.86824E+03
  5.21258E+03 -2.15202E+03  5.57503E+03  1.47392E+03  2.53441E+03  5.27195E+03 -3.85801E+02  4.89872E+03
 -2.72689E+03  3.16822E+03 -2.34944E+03  2.43074E+03 -2.60762E+03  1.51259E+03 -6.68490E+02  2.18885E+03
 -2.95433E+03  3.92341E+03 -5.69955E+03  2.91756E+03 -9.86264E+03 -1.37249E+02 -1.03675E+04 -5.98412E+03
 -5.21133E+03 -1.36679E+04  3.13794E+03 -1.59868E+04  7.80271E+03 -1.18661E+04  1.46654E+04 -3.67028E+03
  1.42925E+04  7.64411E+02  6.42144E+03  1.06311E+04  4.01371E+02  1.02880E+04 -4.83700E+03  9.76491E+03
 -4.98926E+03  2.66130E+03 -3.68169E+03 -1.16292E+03 -1.23764E+03 -2.19930E+03 -2.14448E+03 -1.20185E+03
 -1.37171E+03  3.48905E+02 -3.18323E+03 -1.08104E+03  2.01732E+01 -2.81459E+03  1.74210E+02 -5.40528E+03
  3.47988E+03 -2.96640E+03  5.60542E+03  3.15488E+02  6.87322E+03  6.14873E+03  3.16639E+03  8.63240E+03
 -3.94657E+03  1.25586E+04 -1.11873E+04  6.84907E+03 -1.18460E+04 -1.87176E+02 -1.05897E+04 -7.52900E+03
 -4.76019E+03 -1.08679E+04  3.63233E+03 -1.05233E+04  6.12459E+03 -5.87128E+03  7.72706E+03  1.21263E+02
  5.10403E+03  2.91397E+03  4.71202E+02  4.47170E+03 -2.30447E+03 -1.35411E+02  1.00534E+03 -2.20642E+03
  3.23564E+03  9.91484E+01  2.86869E+03  1.51042E+03  4.52981E+03  3.60415E+03  9.83541E+02  5.99328E+03
 -3.54776E+03  3.59945E+03 -6.83065E+03  1.56248E+03 -5.72614E+03 -4.03740E+03 -8.58029E+02 -8.19202E+03
  5.64448E+03 -7.30450E+03  6.15148E+03 -1.28051E+03  7.67749E+03  1.90265E+03  4.39146E+03  6.06127E+03
  1.06080E+03  6.29856E+03 -1.14438E+03  5.74994E+03 -5.20284E+03  2.71390E+03 -4.21582E+03 -7.71481E+02
 -2.96082E+03 -6.92099E+02 -8.83343E+02  1.03005E+03 -4.95541E+03  1.53208E+02 -4.63160E+03 -1.61657E+03
 -4.96448E+03 -3.46802E+03 -2.26650E+03 -7.23153E+03  3.33368E+03 -6.36057E+03  6.34405E+03 -1.75909E+03
  6.41513E+03  4.43248E+02  3.11548E+03  5.85710E+03 -6.70931E+02  7.39888E+03 -5.80475E+03  3.90663E+03
