 $NMID ID='MM_0lb_SNR200_13hz_g50_11.RAW', FMTDAT='(8E13.5)'
 TRAMP=1., VOLUME=1. $END
  3.09945E+05  1.35582E+03  3.37965E+05  2.51184E+05  8.53723E+04  3.39433E+05 -1.32679E+05  2.50800E+05
 -1.89730E+05  8.31621E+04 -1.11142E+05 -3.20294E+04  1.19705E+03 -4.99397E+04  5.46831E+04 -9.93927E+02
  3.53636E+04  5.24259E+04 -1.77255E+04  7.57406E+04 -6.03786E+04  6.50585E+04 -8.49192E+04  3.22425E+04
 -8.22323E+04 -1.20074E+04 -5.83555E+04 -5.02196E+04 -1.50538E+04 -7.09325E+04  2.80345E+04 -4.52990E+04
  4.02437E+04  3.19156E+03  1.49926E+04  4.73182E+04 -3.51077E+04  4.68506E+04 -6.84346E+04  1.74481E+02
 -5.31131E+04 -5.65177E+04 -5.78046E+03 -7.79870E+04  3.44329E+04 -5.62521E+04  4.87060E+04 -1.86717E+04
  4.33118E+04  1.17602E+04  3.18010E+04  2.62642E+04  1.65913E+04  3.00209E+04 -4.71369E+03  2.70775E+04
 -2.22755E+04  1.19206E+04 -1.93922E+04 -4.10338E+03  6.20180E+03 -6.33015E+03  2.21073E+04  1.26947E+04
  6.69227E+03  3.49218E+04 -3.19146E+04  3.63574E+04 -6.43292E+04  1.97371E+03 -5.71070E+04 -4.29016E+04
 -1.32394E+04 -6.38205E+04  4.07717E+04 -4.56351E+04  5.80456E+04 -1.12499E+03  3.52300E+04  3.33888E+04
 -5.52554E+03  3.80408E+04 -2.91999E+04  1.62371E+04 -3.08288E+04 -4.58768E+03 -1.78743E+04 -1.04658E+04
 -7.73642E+03 -1.33288E+04  5.66280E+02 -1.81076E+04  7.06861E+03 -2.29929E+04  1.47691E+04 -1.38135E+04
  1.16345E+04  4.86809E+03 -8.80446E+03  1.36532E+04 -2.09263E+04 -4.95181E+03 -8.23658E+03 -3.41873E+04
  2.35508E+04 -4.32342E+04  4.91808E+04 -1.94964E+04  4.48357E+04  2.03180E+04  1.55763E+04  4.42439E+04
 -1.54751E+04  3.42086E+04 -2.54346E+04  1.94719E+03 -9.72069E+03 -2.65141E+04  2.24521E+04 -3.33023E+04
  4.09425E+04 -8.78686E+03  3.51927E+04  2.46086E+04  1.82654E+04  4.71151E+04 -9.12351E+03  5.26910E+04
 -3.32864E+04  3.46489E+04 -4.29430E+04  9.29736E+03 -4.35244E+04 -1.72512E+04 -2.44961E+04 -3.89684E+04
  8.97505E+03 -3.83783E+04  3.20828E+04 -1.66901E+04  3.02693E+04  1.07852E+04  3.72923E+03  2.04999E+04
 -1.34237E+04  9.36723E+03 -1.07428E+04 -6.75571E+03  6.32925E+03 -1.09095E+04  1.80266E+04  5.05600E+03
  1.44211E+04  2.15703E+04 -5.41449E+03  2.53825E+04 -2.22797E+04  1.18202E+04 -2.97430E+04 -4.32012E+03
 -2.14955E+04 -1.68348E+04 -9.23396E+03 -2.00603E+04  2.67095E+03 -2.02482E+04  1.71099E+04 -1.94313E+04
  2.71802E+04 -1.18646E+04  3.23503E+04  3.29578E+03  2.40218E+04  1.91703E+04  4.07698E+03  3.74185E+04
 -1.67083E+04  3.15822E+04 -2.86094E+04  1.04023E+04 -2.05310E+04 -1.02761E+04 -4.23298E+03 -1.28085E+04
  1.02410E+03 -2.64333E+03 -5.01089E+03  6.69304E+03 -1.84404E+04  6.10807E+03 -1.74080E+04 -7.80610E+03
 -9.25464E+03 -1.94205E+04  5.41123E+03 -2.44096E+04  1.69239E+04 -1.69236E+04  1.92188E+04 -1.75213E+03
  1.19291E+04  1.34188E+04 -6.44237E+02  2.00518E+04 -1.43007E+04  1.19281E+04 -2.00493E+04 -4.18591E+03
 -1.34510E+04 -1.82565E+04 -1.71695E+03 -2.44164E+04  1.10914E+04 -2.06853E+04  1.91132E+04 -1.01857E+04
  1.96880E+04  5.85471E+01  1.25133E+04  4.63898E+03  7.76631E+03  1.25308E+03  9.93307E+03 -2.22734E+03
  1.86008E+04  3.57179E+03  2.08530E+04  1.65468E+04  1.32489E+04  3.19108E+04 -2.38788E+03  3.57565E+04
 -2.12523E+04  2.94829E+04 -3.21117E+04  1.63987E+04 -3.53012E+04 -1.66651E+03 -2.81012E+04 -2.07390E+04
 -1.20645E+04 -2.94775E+04  1.09718E+04 -2.70301E+04  2.14574E+04 -1.31872E+04  2.05207E+04  4.66646E+03
  8.01225E+03  1.37978E+04 -1.04121E+04  1.34379E+04 -1.64817E+04  3.80328E+03 -1.25828E+04 -9.31216E+03
  8.52686E+02 -1.60158E+04  9.32389E+03 -1.26673E+04  1.05515E+04 -9.49750E+02  3.05635E+03  6.15787E+03
 -7.27539E+03  2.09834E+03 -6.16747E+03 -4.46932E+03 -8.22400E+02 -1.36781E+04  1.13927E+04 -1.54109E+04
  1.73479E+04 -8.68307E+03  2.02441E+04  3.54642E+03  1.63870E+04  1.39746E+04  8.28003E+03  2.23240E+04
 -3.89031E+03  2.49239E+04 -1.59084E+04  1.43492E+04 -1.65657E+04  4.40207E+03 -1.16828E+04 -3.99107E+03
 -5.10653E+03 -4.44401E+03 -3.22879E+02  2.01799E+03 -3.03696E+03  2.49465E+03 -4.53804E+03  4.40557E+03
 -9.48281E+03 -3.59063E+01 -1.09981E+04 -1.01686E+04 -5.70172E+03 -1.60841E+04  5.96099E+03 -1.15918E+04
  9.98474E+03 -5.37835E+03  6.38125E+03  3.52585E+03 -3.77822E+01  4.91784E+03 -5.23468E+03  5.85880E+02
 -5.93747E+03 -7.78189E+03 -7.46588E+02 -1.19788E+04  6.96557E+03 -1.17881E+04  1.34981E+04 -7.54959E+03
  1.71406E+04  1.71196E+03  1.32986E+04  1.01138E+04  2.78714E+03  1.36743E+04 -8.56960E+03  1.19591E+04
 -1.10726E+04  3.81180E+03 -4.95480E+03 -3.14436E+03  1.88993E+03 -4.02681E+03  7.04189E+03 -3.96777E+02
  5.00799E+03  5.42338E+03  9.03451E+02  8.81871E+03 -6.03176E+03  1.02506E+04 -1.25128E+04  2.01973E+03
 -7.09693E+03 -4.76566E+03  1.11542E+03 -1.02172E+04  6.56465E+03 -5.11325E+03  5.34092E+03  3.23858E+03
 -5.89076E+01  6.73721E+03 -5.03549E+03  8.50924E+03 -9.72079E+03  4.18949E+03 -8.30954E+03 -3.78444E+03
 -4.84246E+03 -9.88796E+03  2.00736E+03 -1.31830E+04  1.04665E+04 -8.53475E+03  1.21790E+04  1.45417E+03
  7.93071E+03  9.16335E+03 -1.13774E+02  1.20271E+04 -7.51941E+03  5.97888E+03 -8.15267E+03 -1.74917E+03
 -7.66583E+03 -7.47671E+03 -1.00802E+03 -8.53699E+03  3.64968E+03 -6.75444E+03  6.47580E+03 -4.37272E+03
  3.88583E+03  5.64299E+02 -1.63159E+03  1.24512E+03  5.01316E+02 -1.10922E+03  4.03566E+03 -4.74949E+03
  7.80207E+03 -8.85552E+02  8.62463E+03  1.38258E+03  1.08841E+04  7.08802E+03  8.25304E+03  1.36979E+04
 -3.12937E+03  1.72685E+04 -1.54681E+04  1.28830E+04 -1.70725E+04  2.23424E+03 -1.51665E+04 -6.00027E+03
 -7.25928E+03 -1.22938E+04 -1.50443E+02 -8.36006E+03  4.47400E+03 -4.92377E+03  4.08866E+03 -3.55063E+03
  2.12902E+03 -1.94984E+03  3.95406E+03 -2.58163E+03  5.12969E+03 -2.95390E+03  5.89467E+03 -1.34006E+03
  6.31928E+03  1.42126E+03  1.21305E+03  6.20864E+03 -8.89037E+02  6.43643E+03 -7.87066E+03  6.34833E+03
 -9.11329E+03 -7.09754E+02 -4.32150E+03 -6.22325E+03 -4.12524E+02 -8.44140E+03  5.88356E+03 -9.68069E+03
  1.13711E+04 -4.73960E+03  1.33030E+04  1.42010E+03  8.66606E+03  8.66968E+03  2.17745E+03  1.22176E+04
 -4.25511E+03  1.13640E+04 -6.42038E+03  2.78924E+03 -5.76753E+03 -1.86994E+03 -1.70772E+03 -1.24370E+03
 -1.89940E+03  8.93545E+02 -7.00590E+02  3.47627E+03 -3.16357E+03  1.82912E+03 -7.22640E+03 -9.21702E+02
 -5.07456E+03 -7.29677E+03  5.16524E+02 -9.79657E+03  5.87146E+03 -7.64409E+03  8.26113E+03 -3.02204E+03
  9.42196E+03  4.65556E+03  4.96049E+03  7.47087E+03 -5.60927E+02  9.83313E+03 -6.73042E+03  4.97216E+03
 -8.71491E+03  4.02516E+02 -5.67948E+03 -6.23909E+03 -6.39193E+02 -7.27458E+03  3.43195E+03 -4.80392E+03
  4.47748E+03 -1.63578E+03  4.36922E+03  1.50739E+03  2.33180E+03  4.11058E+03  3.55166E+02  7.10230E+02
  1.37541E+03 -7.49698E+01  1.68182E+03  2.68429E+03  1.60981E+03  3.56565E+03  2.48153E+03  4.96795E+03
 -1.41237E+03  6.67574E+03 -6.44963E+03  8.32100E+03 -7.88990E+03  1.88103E+03 -8.96665E+03 -2.90381E+03
 -3.86123E+03 -8.02031E+03  1.22076E+03 -9.35100E+03  5.76741E+03 -7.41564E+03  7.61195E+03 -1.21370E+03
  5.79856E+03  2.01389E+03  7.60268E+02  4.62123E+03 -2.09157E+03  3.97667E+03 -3.78073E+03 -1.16065E+03
 -1.28129E+03 -3.68542E+03  2.86477E+03 -4.34832E+03  1.80632E+03 -1.51395E+03  2.57126E+03  1.97574E+03
  3.16579E+03 -4.46579E+02  1.05033E+03  2.31007E+03  2.40505E+01 -3.01065E+02  1.37011E+03 -5.87396E+02
  7.06720E+02 -2.88014E+02  3.95705E+03  2.03406E+03  1.00227E+03  5.45072E+03  1.13084E+02  5.25685E+03
 -3.61952E+03  3.86488E+03 -5.66901E+03  7.47201E+02 -4.88868E+03 -2.15908E+03 -2.08270E+03 -3.17449E+03
  4.52715E+02 -2.77030E+03  1.21268E+03 -2.41634E+03  3.06406E+03  2.29594E+03 -9.55544E+02  2.11030E+03
 -4.02971E+03  2.66756E+03 -3.85620E+03 -2.18612E+03 -1.11939E+03 -5.14751E+03 -1.54763E+02 -5.80027E+03
  1.95673E+03 -2.04806E+03  2.89431E+03 -1.14089E+02  2.99662E+03  1.40477E+03  1.16949E+03  2.42274E+03
 -1.16595E+03 -6.03320E+02 -2.07478E+03 -6.33201E+02  7.56237E+02 -3.34733E+03  4.15019E+03 -3.08154E+03
  5.02973E+03  1.22116E+03  4.58710E+03  3.20968E+03  1.75329E+03  4.54364E+03 -7.56804E+02  4.91942E+03
 -4.27090E+03  1.74090E+03 -2.77244E+03 -1.86224E+03 -2.77564E+03 -3.99310E+03  2.05178E+02 -1.87312E+03
  4.71110E+03 -2.18186E+03  2.36681E+03  3.88806E+02  6.99607E+02  2.67275E+03 -1.31268E+03  3.59722E+03
 -9.55595E+02  1.68982E+03 -2.34746E+03  1.07988E+03 -9.80010E+02  7.99974E+02 -3.33928E+02  1.49462E+03
 -1.18493E+03  3.41133E+03 -3.44373E+03  1.38404E+03 -4.18190E+03  2.13835E+02 -6.62934E+03 -2.60925E+03
 -3.61953E+03 -5.58171E+03  1.89959E+03 -7.00274E+03  3.97478E+03 -4.17830E+03  8.00982E+03 -3.52640E+03
  5.99572E+03 -1.06437E+03  3.51344E+03  3.84701E+03  2.57130E+02  4.30018E+03 -1.51254E+03  3.65703E+03
 -2.19238E+03  3.93840E+03 -1.49090E+03 -5.58499E+00 -6.82258E+02 -1.39488E+03 -8.99661E+02 -1.25538E+02
 -1.64967E+03  1.49049E+02 -2.05903E+03 -7.93665E+02  7.15516E+02 -6.73731E+02 -6.04680E+01 -1.97951E+03
  2.03836E+03 -1.19687E+03  3.18889E+03 -1.76725E+02  4.90792E+03  3.03300E+03  1.76552E+03  4.95776E+03
 -2.25395E+03  5.88549E+03 -4.25209E+03  2.46776E+03 -6.49948E+03 -1.94890E+03 -3.69737E+03 -3.23770E+03
 -1.40976E+03 -5.14393E+03  1.53567E+03 -4.04248E+03  4.00337E+03 -2.02225E+03  3.71744E+03 -7.06689E+01
  9.28264E+02  7.76130E+02  4.74488E+02  1.15204E+03 -8.24294E+02 -1.03377E+03  6.45461E+02 -8.11278E+02
  2.07774E+03  4.35004E+02  2.06727E+03 -8.88316E+02  1.64859E+02  1.03616E+03  7.43208E+02  2.29865E+03
 -1.16389E+03  2.74439E+03 -3.98921E+03 -1.90845E+03 -3.28838E+03 -2.63817E+03 -1.02137E+03 -4.55551E+03
  1.14760E+03 -3.83252E+03  2.47574E+03 -7.16918E+01  2.65242E+03  8.85598E+02  3.91312E+03  7.41670E+02
  1.54958E+03  3.97888E+03 -5.20613E+02  1.92301E+03 -9.13364E+02  1.47791E+03 -8.57358E+02 -7.30200E+02
 -1.62764E+03 -8.53258E+02 -9.97685E+02 -1.23522E+02 -2.23118E+03  9.31345E+02 -1.20989E+03 -1.38481E+03
 -7.92185E+02 -1.15662E+03 -7.21156E+02 -3.32187E+03  1.38776E+03 -3.18107E+03  3.28000E+03 -8.85832E+02
  2.14547E+03  2.84227E+02  9.27904E+01  2.84133E+03  3.29833E+02  3.28969E+03 -3.05999E+03  1.48041E+03
