 $NMID ID='MM_0lb_SNR200_11hz_g40_54.RAW', FMTDAT='(8E13.5)'
 TRAMP=1., VOLUME=1. $END
  3.10289E+05  5.11409E+01  3.37850E+05  2.51055E+05  8.53914E+04  3.37574E+05 -1.32078E+05  2.51468E+05
 -1.90635E+05  8.32317E+04 -1.11223E+05 -3.23523E+04  4.32427E+02 -5.11200E+04  5.39282E+04 -4.71564E+02
  3.50163E+04  5.34908E+04 -1.76721E+04  7.58281E+04 -6.10490E+04  6.27972E+04 -8.58163E+04  3.20346E+04
 -8.11443E+04 -1.06528E+04 -5.94991E+04 -5.19338E+04 -1.66119E+04 -7.10336E+04  2.78780E+04 -4.57251E+04
  3.99909E+04  4.95533E+03  1.61844E+04  4.76413E+04 -3.46924E+04  4.82991E+04 -6.74168E+04 -6.29428E+02
 -5.39019E+04 -5.76576E+04 -6.42090E+03 -7.82571E+04  3.40870E+04 -5.63189E+04  4.80046E+04 -1.67740E+04
  4.27431E+04  1.18903E+04  3.18092E+04  2.60990E+04  1.55009E+04  3.08538E+04 -4.71664E+03  2.68880E+04
 -2.28815E+04  1.22966E+04 -1.82255E+04 -5.27712E+03  6.30707E+03 -8.17575E+03  2.31081E+04  1.22855E+04
  6.07342E+03  3.51034E+04 -3.31223E+04  3.54708E+04 -6.43221E+04  2.70541E+03 -5.71306E+04 -4.31364E+04
 -1.23862E+04 -6.52072E+04  4.08731E+04 -4.59979E+04  5.92036E+04 -3.58610E+03  3.50192E+04  3.26981E+04
 -6.04286E+03  3.58198E+04 -3.11510E+04  1.69988E+04 -3.17822E+04 -4.27178E+03 -1.73462E+04 -1.22202E+04
 -8.02705E+03 -1.47204E+04  4.94634E+02 -1.94023E+04  8.00524E+03 -2.34175E+04  1.56093E+04 -1.43859E+04
  1.17344E+04  5.70840E+03 -1.00979E+04  1.34905E+04 -2.28485E+04 -4.20431E+03 -9.17958E+03 -3.29590E+04
  2.53179E+04 -4.40430E+04  4.92732E+04 -1.99990E+04  4.48760E+04  2.08727E+04  1.57935E+04  4.51556E+04
 -1.68481E+04  3.36437E+04 -2.56688E+04  3.20833E+03 -8.78962E+03 -2.82383E+04  2.17206E+04 -3.55303E+04
  4.21498E+04 -9.66032E+03  3.65453E+04  2.40177E+04  1.97545E+04  4.77779E+04 -8.60128E+03  5.30178E+04
 -3.19741E+04  3.55760E+04 -4.37126E+04  1.00896E+04 -4.48559E+04 -1.72373E+04 -2.58540E+04 -3.86124E+04
  7.73569E+03 -3.99616E+04  3.21272E+04 -1.57481E+04  2.94303E+04  1.07871E+04  5.73225E+03  1.97014E+04
 -1.30536E+04  9.75725E+03 -9.07293E+03 -7.46088E+03  5.37224E+03 -1.08837E+04  1.74534E+04  5.48858E+03
  1.47872E+04  2.17007E+04 -6.76605E+03  2.70344E+04 -2.15006E+04  1.08271E+04 -3.01076E+04 -4.10673E+03
 -2.25906E+04 -1.85011E+04 -1.09009E+04 -2.25557E+04  3.39469E+03 -2.24938E+04  1.71856E+04 -1.96233E+04
  2.93534E+04 -1.41094E+04  3.37994E+04  4.20129E+03  2.56627E+04  2.27858E+04  4.12886E+03  3.92578E+04
 -1.91234E+04  3.17803E+04 -2.86693E+04  1.14467E+04 -2.09435E+04 -9.96966E+03 -5.04344E+03 -1.18934E+04
  1.89649E+03 -1.07404E+03 -5.23177E+03  7.41984E+03 -1.65966E+04  4.85538E+03 -1.92654E+04 -8.46735E+03
 -1.21680E+04 -1.94162E+04  7.18888E+03 -2.48533E+04  1.70455E+04 -1.82503E+04  1.84332E+04 -1.25385E+03
  1.38010E+04  1.42748E+04 -1.99367E+03  1.99780E+04 -1.31621E+04  1.21071E+04 -1.97798E+04 -3.88982E+03
 -1.56670E+04 -1.76079E+04 -2.97864E+03 -2.50915E+04  1.10972E+04 -1.95271E+04  2.13749E+04 -1.04584E+04
  2.04022E+04  4.17416E+02  1.39114E+04  4.05042E+03  6.67052E+03  2.10622E+03  1.02962E+04 -1.96992E+03
  1.79349E+04  2.56092E+03  2.13666E+04  1.66988E+04  1.53891E+04  3.45273E+04 -2.20810E+03  3.85210E+04
 -2.33539E+04  3.07983E+04 -3.65259E+04  1.60925E+04 -3.76181E+04 -2.17204E+03 -3.03796E+04 -2.23073E+04
 -1.29554E+04 -3.19792E+04  1.14894E+04 -2.81970E+04  2.49982E+04 -1.47316E+04  2.24332E+04  6.63651E+03
  7.83069E+03  1.54224E+04 -9.84953E+03  1.39281E+04 -1.74194E+04  3.61721E+03 -1.50680E+04 -1.17981E+04
  1.46572E+02 -1.90309E+04  9.46613E+03 -1.18794E+04  1.20735E+04 -3.35291E+02  3.29547E+03  6.19515E+03
 -7.72383E+03  3.80901E+03 -8.78099E+03 -6.14994E+03 -5.76322E+02 -1.41537E+04  9.78905E+03 -1.66570E+04
  1.93107E+04 -9.73111E+03  2.18515E+04  3.35342E+03  1.87064E+04  1.59374E+04  8.46158E+03  2.38836E+04
 -3.87045E+03  2.45668E+04 -1.70113E+04  1.71685E+04 -1.91200E+04  3.30892E+03 -1.41471E+04 -4.60288E+03
 -5.47043E+03 -6.65320E+03 -1.54080E+03  9.21122E+02 -3.69511E+03  2.94366E+03 -4.67322E+03  4.81606E+03
 -1.18812E+04  1.99466E+01 -1.24630E+04 -9.13478E+03 -3.88989E+03 -1.67619E+04  5.79638E+03 -1.20112E+04
  1.20065E+04 -7.15522E+03  6.61223E+03  3.39968E+03 -1.14343E+03  4.43708E+03 -6.10566E+03  3.05914E+02
 -5.88308E+03 -1.01358E+04 -1.41842E+03 -1.36172E+04  8.09698E+03 -1.47273E+04  1.59379E+04 -7.71261E+03
  1.94081E+04  2.74312E+03  1.17064E+04  1.24666E+04  3.30222E+03  1.64328E+04 -6.58382E+03  1.21124E+04
 -1.04659E+04  3.95505E+03 -5.51683E+03 -3.15991E+03  1.49189E+03 -3.05059E+03  6.76784E+03 -4.88630E+02
  7.07365E+03  5.98770E+03  1.32582E+03  1.03030E+04 -8.31920E+03  8.55167E+03 -1.36675E+04  1.84378E+03
 -9.20304E+03 -6.35001E+03 -8.95671E+01 -1.04275E+04  7.61005E+03 -6.94417E+03  8.09311E+03  1.16286E+03
  6.83104E+02  6.83935E+03 -6.10464E+03  9.54626E+03 -1.13514E+04  5.30630E+03 -1.05030E+04 -4.53700E+03
 -8.13615E+03 -1.26419E+04  3.80954E+03 -1.42078E+04  1.09589E+04 -8.35708E+03  1.25556E+04  1.88752E+03
  8.53518E+03  8.42078E+03 -1.77692E+03  1.33099E+04 -8.81215E+03  7.17153E+03 -1.04797E+04 -2.36091E+03
 -1.02335E+04 -8.49760E+03 -2.44787E+03 -7.51461E+03  5.08562E+03 -8.80675E+03  7.49006E+03 -3.10963E+03
  3.83035E+03  1.71425E+03 -4.40924E+02  1.58602E+03 -5.44658E+00 -2.61234E+03  2.00461E+03 -5.72033E+03
  8.42099E+03 -3.19554E+03  1.20660E+04  2.33899E+03  1.29254E+04  8.26963E+03  8.01388E+03  1.71544E+04
 -5.51023E+03  1.99623E+04 -1.60769E+04  1.29497E+04 -2.08517E+04  2.53401E+03 -1.57286E+04 -5.93199E+03
 -8.04721E+03 -1.43380E+04 -1.54989E+02 -9.46440E+03  4.18305E+03 -6.27269E+03  4.48909E+03 -4.15284E+03
  3.09287E+03 -2.11416E+03  4.20805E+03 -3.85850E+03  3.61715E+03 -2.43654E+03  5.42151E+03  2.55737E+02
  8.19189E+03  3.21367E+03  5.19742E+03  7.11333E+03 -1.64428E+03  8.30926E+03 -9.37433E+03  6.14036E+03
 -1.01751E+04 -1.22520E+03 -6.54402E+03 -7.58757E+03  1.43251E+02 -1.18117E+04  7.28279E+03 -1.18093E+04
  1.14412E+04 -7.94908E+03  1.52303E+04  3.71078E+03  9.34309E+03  1.09608E+04  2.57558E+03  1.25270E+04
 -5.05602E+03  1.15306E+04 -7.13852E+03  3.65066E+03 -4.07236E+03 -1.92677E+03 -1.71850E+03 -2.48567E+03
 -2.15427E+03 -3.78284E+02 -1.26719E+03  6.63142E+02 -4.72948E+03  2.53185E+03 -8.26664E+03 -1.56969E+03
 -5.35067E+03 -9.30589E+03  2.26439E+02 -1.12722E+04  6.12982E+03 -1.05661E+04  1.16169E+04 -4.05945E+03
  9.99481E+03  5.95436E+03  6.44198E+03  9.06770E+03 -1.15617E+03  1.07694E+04 -7.79986E+03  5.97595E+03
 -1.16614E+04  1.02108E+03 -9.04420E+03 -6.56818E+03 -6.93869E+02 -9.64436E+03  4.34018E+03 -6.90061E+03
  7.39070E+03 -2.66996E+03  4.85950E+03  1.56453E+03  1.67473E+03  2.67182E+03  1.87714E+03  4.14906E+02
  1.19098E+03  1.44676E+03  2.61358E+03  6.20371E+02  3.90020E+03  2.93027E+03  4.41690E+03  5.19183E+03
 -2.82526E+03  8.74346E+03 -7.98941E+03  8.30408E+03 -1.02554E+04  1.63306E+03 -1.20583E+04 -3.98491E+03
 -5.01738E+03 -1.10932E+04  1.28428E+03 -1.19778E+04  5.57876E+03 -6.49531E+03  9.83769E+03 -2.20444E+03
  6.34199E+03  3.73751E+03  1.79168E+03  6.98457E+03 -3.58987E+03  4.29638E+03 -3.61779E+03 -1.29227E+03
 -1.09838E+03 -4.84759E+03  1.56107E+03 -4.44453E+03  4.95064E+03 -3.68963E+03  4.76093E+03 -7.28155E+02
  2.97320E+03  2.99595E+03  2.02013E+03  1.60304E+03  1.04710E+01  1.41428E+03  2.78595E+03 -1.87733E+01
  2.98643E+03 -1.35891E+03  4.78254E+03  2.97126E+03  3.48867E+03  5.58124E+03 -6.19145E+02  8.05983E+03
 -3.80360E+03  4.71543E+03 -6.93704E+03  1.87142E+03 -5.66821E+03 -1.11724E+03 -1.26078E+03 -3.82093E+03
 -2.54806E+02 -4.04425E+03  3.30559E+03 -9.63762E+02  2.67844E+03  3.33532E+03 -6.55507E+02  3.83246E+03
 -5.27475E+03  2.23705E+03 -4.80338E+03 -2.80515E+03 -2.11619E+03 -6.30944E+03  1.19593E+03 -6.17339E+03
  2.72153E+03 -4.25292E+03  4.38153E+03 -1.03825E+03  3.82019E+03  1.40743E+03 -5.91135E+02  4.08381E+03
 -1.96559E+03  1.72346E+02 -3.82631E+03 -1.54276E+03  9.54728E+02 -3.33564E+03  4.15909E+03 -4.31365E+03
  6.11627E+03  1.84448E+02  7.75688E+03  4.19202E+03  3.93869E+03  6.97932E+03 -1.92319E+03  5.87014E+03
 -5.55649E+03  2.35612E+03 -6.69699E+03  6.61743E+02 -2.60804E+03 -5.20434E+03  1.49386E+03 -3.54724E+03
  4.25906E+03 -1.29519E+03  4.23131E+03  2.48867E+03  1.98998E+03  3.42491E+03 -3.47976E+02  3.82000E+03
 -1.35272E+03  2.22901E+03 -1.75612E+03  2.02844E+03 -1.14687E+03  1.39371E+03 -9.55785E+02  1.66966E+03
 -2.16814E+03  3.27656E+03 -5.00822E+03  1.28767E+03 -6.07049E+03 -4.74607E+02 -7.79783E+03 -4.67415E+03
 -4.65060E+03 -8.92778E+03  2.26214E+03 -1.01065E+04  4.16051E+03 -8.03294E+03  9.78501E+03 -2.65055E+03
  9.66343E+03  2.58551E+02  5.13718E+03  5.50294E+03  9.77752E+02  7.51537E+03 -3.34950E+03  5.48021E+03
 -3.85772E+03  1.85543E+03 -2.10515E+03 -9.40383E+02 -1.01420E+03 -7.67778E+02 -9.99059E+02  1.32286E+02
 -2.78417E+03 -2.33890E+02 -1.87980E+03 -2.58629E+02  1.97599E+02 -2.26795E+03  7.54249E+02 -2.18762E+03
  3.04333E+03 -1.46005E+03  3.11692E+03  1.78172E+02  4.87795E+03  2.18772E+03 -6.09843E+02  6.40155E+03
 -4.26496E+03  7.02000E+03 -7.41643E+03  3.05349E+03 -8.00369E+03 -2.37620E+03 -5.48987E+03 -4.81858E+03
 -2.58886E+03 -6.90248E+03  1.06098E+03 -5.85219E+03  3.84402E+03 -3.64176E+03  4.52019E+03  2.69672E+02
  3.30395E+03  9.09853E+02  2.36057E+02  1.21156E+03 -1.25909E+03  6.29336E+02  3.13548E+02 -5.50541E+02
  2.40222E+03  3.97252E+01  2.91503E+03 -3.30827E+01  6.73313E+02  2.68963E+03 -1.03717E+03  2.61460E+03
 -2.08132E+03  2.16464E+03 -4.87966E+03  4.04548E+02 -3.86680E+03 -3.91744E+03 -1.96830E+03 -5.37629E+03
  3.16974E+03 -5.80765E+03  4.49963E+03 -9.65427E+02  5.28040E+03 -3.91932E+02  2.72100E+03  4.31828E+03
 -9.73332E+02  3.83596E+03 -1.24837E+03  2.87736E+03 -2.20098E+03  1.68397E+03 -3.17052E+03 -4.21989E+02
 -1.96795E+03  1.10594E+03 -5.97958E+02  4.91522E+02 -1.86044E+03  9.66588E+02 -3.32965E+03 -9.02298E+02
 -2.51326E+03 -2.74643E+03 -2.51513E+03 -3.13248E+03  2.63894E+03 -5.52271E+03  3.98053E+03 -2.85613E+03
  4.17551E+03  6.89308E+02  1.80905E+03  3.64913E+03  1.13915E+03  4.63270E+03 -2.90533E+03  3.78153E+03
