 $NMID ID='MM_0lb_SNR200_18hz_g60_79.RAW', FMTDAT='(8E13.5)'
 TRAMP=1., VOLUME=1. $END
  3.10140E+05  5.85607E+02  3.37304E+05  2.49693E+05  8.40682E+04  3.37954E+05 -1.31592E+05  2.50933E+05
 -1.89598E+05  8.29444E+04 -1.11438E+05 -3.15591E+04  6.03316E+02 -4.99992E+04  5.40834E+04  9.64409E+00
  3.51402E+04  5.23122E+04 -1.58061E+04  7.54439E+04 -6.00369E+04  6.42189E+04 -8.54422E+04  3.28789E+04
 -7.99383E+04 -1.20803E+04 -5.72546E+04 -5.18779E+04 -1.49715E+04 -6.87481E+04  2.72196E+04 -4.52523E+04
  3.87209E+04  3.51120E+03  1.48014E+04  4.86587E+04 -3.38954E+04  4.69568E+04 -6.62571E+04  6.89605E+02
 -5.23347E+04 -5.68534E+04 -7.55441E+03 -7.65374E+04  3.36151E+04 -5.44253E+04  4.80326E+04 -1.69784E+04
  4.36659E+04  9.87093E+03  3.19251E+04  2.56206E+04  1.57542E+04  2.82882E+04 -5.76723E+03  2.73615E+04
 -2.28884E+04  1.26877E+04 -1.92236E+04 -4.66170E+03  5.49071E+03 -6.24596E+03  2.17745E+04  1.12117E+04
  7.20271E+03  3.48985E+04 -3.25083E+04  3.46517E+04 -6.15538E+04  2.25993E+03 -5.58163E+04 -4.21267E+04
 -1.31082E+04 -6.25218E+04  3.91474E+04 -4.48682E+04  5.70713E+04 -2.45029E+03  3.21558E+04  3.21558E+04
 -6.67349E+03  3.55379E+04 -3.04227E+04  1.53260E+04 -2.92107E+04 -3.93264E+03 -1.45061E+04 -1.13665E+04
 -7.68039E+03 -1.32429E+04 -1.06170E+03 -1.78103E+04  7.55511E+03 -2.17332E+04  1.51958E+04 -1.34508E+04
  1.14416E+04  4.96858E+03 -7.71170E+03  1.29232E+04 -2.06870E+04 -3.48215E+03 -8.93097E+03 -3.16012E+04
  2.16016E+04 -4.23913E+04  4.71695E+04 -2.07260E+04  4.37336E+04  1.90986E+04  1.45377E+04  4.48134E+04
 -1.52238E+04  3.28589E+04 -2.36788E+04  1.70905E+03 -9.58232E+03 -2.63122E+04  2.04554E+04 -3.34894E+04
  3.97810E+04 -6.70758E+03  3.49779E+04  2.36825E+04  1.82491E+04  4.44976E+04 -8.37036E+03  4.83040E+04
 -2.92487E+04  3.24705E+04 -3.97542E+04  8.59489E+03 -4.02425E+04 -1.63518E+04 -2.19068E+04 -3.56484E+04
  7.77673E+03 -3.65681E+04  3.01099E+04 -1.39683E+04  2.79178E+04  1.10308E+04  2.68918E+03  1.92526E+04
 -1.31584E+04  8.34302E+03 -1.04414E+04 -7.96091E+03  6.33424E+03 -1.08458E+04  1.82950E+04  6.60817E+03
  1.20268E+04  2.26267E+04 -7.10729E+03  2.35906E+04 -2.19543E+04  1.03982E+04 -2.67132E+04 -6.37990E+03
 -1.93857E+04 -1.76636E+04 -7.18831E+03 -1.89450E+04  4.04645E+03 -1.69363E+04  1.33652E+04 -1.56390E+04
  2.28985E+04 -1.13830E+04  3.06915E+04  1.54770E+03  2.22529E+04  1.79422E+04  4.15238E+03  3.46346E+04
 -1.70495E+04  2.83272E+04 -2.67903E+04  9.73013E+03 -2.00686E+04 -1.05827E+04 -4.51122E+03 -1.44834E+04
  3.28219E+03 -3.73764E+03 -3.70190E+03  6.37649E+03 -1.47903E+04  5.37849E+03 -1.46335E+04 -5.52775E+03
 -9.22720E+03 -1.70783E+04  4.71064E+03 -2.04988E+04  1.37680E+04 -1.66125E+04  1.67050E+04 -1.16140E+03
  1.08190E+04  1.18239E+04 -1.01591E+03  1.76795E+04 -1.21145E+04  9.84259E+03 -1.73983E+04 -2.97118E+03
 -1.38229E+04 -1.56009E+04 -1.10505E+03 -2.07747E+04  9.66052E+03 -1.67857E+04  1.83428E+04 -7.18439E+03
  1.58843E+04  1.01306E+03  1.04990E+04  4.87366E+03  4.72684E+03 -4.14049E+02  8.57021E+03 -1.70509E+03
  1.50805E+04  4.09199E+03  1.79109E+04  1.52241E+04  1.01949E+04  2.72387E+04 -3.89862E+03  3.04447E+04
 -1.77155E+04  2.40776E+04 -2.82021E+04  1.14163E+04 -2.87227E+04 -1.37518E+03 -2.34527E+04 -1.52006E+04
 -1.02295E+04 -2.37905E+04  7.69088E+03 -2.18347E+04  1.77829E+04 -1.16652E+04  1.69649E+04  4.66541E+03
  6.99540E+03  1.38911E+04 -7.21992E+03  1.21708E+04 -1.41399E+04  1.64986E+03 -1.14015E+04 -8.70077E+03
  2.63433E+02 -1.40844E+04  7.25651E+03 -1.11631E+04  9.23337E+03 -1.58508E+03  1.71365E+03  5.00339E+03
 -6.39122E+03  1.38384E+03 -3.85909E+03 -5.11075E+03 -8.66934E+02 -1.13569E+04  8.32398E+03 -1.20175E+04
  1.38520E+04 -5.68876E+03  1.40176E+04  3.04579E+03  1.24821E+04  1.10779E+04  5.71256E+03  1.68627E+04
 -1.27507E+03  1.64174E+04 -1.19650E+04  1.18548E+04 -1.19107E+04  3.14711E+03 -9.87065E+03 -1.60101E+03
 -4.90317E+03 -4.43649E+03 -2.09429E+03  6.67204E+02 -2.75151E+03  2.28722E+03 -4.51975E+03  3.65116E+03
 -6.99476E+03 -5.68973E+02 -9.53031E+03 -7.41832E+03 -4.65792E+03 -1.34465E+04  4.01803E+03 -9.22076E+03
  8.58882E+03 -4.98512E+03  5.82326E+03  2.88291E+03  6.38709E+02  2.29358E+03 -3.37244E+03  4.86444E+02
 -3.79436E+03 -6.20035E+03 -8.51823E+02 -8.66152E+03  4.09935E+03 -9.12605E+03  1.09876E+04 -4.17368E+03
  1.32459E+04  1.21514E+03  9.47982E+03  7.05482E+03  2.28038E+03  1.05957E+04 -5.46733E+03  9.16922E+03
 -8.32600E+03  3.51421E+03 -2.89173E+03 -2.12359E+03  1.43038E+03 -1.15920E+03  5.07398E+03 -1.41636E+03
  4.55044E+03  5.20523E+03  8.97070E+02  7.59102E+03 -4.63095E+03  6.32832E+03 -8.39741E+03  2.72725E+03
 -5.56330E+03 -4.48540E+03  1.36273E+03 -7.85544E+03  5.06388E+03 -4.09329E+03  4.33249E+03  1.31642E+03
  4.76893E+02  3.61343E+03 -4.34196E+03  4.97605E+03 -6.58668E+03  3.19727E+03 -6.12686E+03 -1.53076E+03
 -4.81431E+03 -7.33790E+03  1.93666E+03 -9.02329E+03  6.71158E+03 -5.13558E+03  8.14146E+03  1.62772E+03
  5.63985E+03  5.91334E+03 -2.22956E+02  7.52860E+03 -5.73376E+03  4.83139E+03 -7.02511E+03  2.67985E+02
 -6.35851E+03 -4.60774E+03 -1.16338E+03 -6.33942E+03  3.16093E+03 -5.41658E+03  2.36601E+03 -2.34265E+03
  2.88827E+03  1.12611E+03  1.86880E+02  2.65664E+03  5.34386E+02 -1.31516E+03  2.68221E+02 -2.90827E+03
  4.08141E+03 -1.49163E+03  7.36170E+03  1.72138E+02  6.87337E+03  3.32622E+03  5.68441E+03  8.82390E+03
 -1.48815E+03  9.25674E+03 -7.34692E+03  6.55237E+03 -1.22107E+04  2.28075E+03 -8.50391E+03 -2.94456E+03
 -4.55333E+03 -7.32168E+03  3.16900E+02 -6.15729E+03  2.54040E+03 -2.56905E+03  2.16516E+03 -2.38880E+03
  1.77009E+03 -9.77019E+02  2.32771E+03 -1.59571E+03  4.05419E+03 -7.20574E+02  4.83417E+03  2.09788E+02
  4.84834E+03  1.67993E+03  1.28007E+03  3.18143E+03 -6.01213E+02  3.79433E+03 -5.09071E+03  1.83349E+03
 -4.87938E+03 -7.76273E+02 -2.04123E+03 -3.38384E+03 -2.91753E+02 -5.81967E+03  3.72669E+03 -6.35767E+03
  5.40446E+03 -3.96931E+03  6.68302E+03  6.78068E+02  5.56346E+03  4.08535E+03  2.19389E+03  7.08522E+03
 -2.29184E+03  6.48337E+03 -2.96558E+03  2.02364E+03 -3.20960E+03 -1.64401E+03 -1.48816E+03 -3.64450E+02
 -4.86093E+02  3.84420E+02 -1.41326E+03  1.86211E+03 -3.74597E+03  1.38927E+03 -4.75602E+03 -5.70300E+02
 -1.12136E+03 -4.05771E+03 -2.00469E+02 -5.58327E+03  3.04807E+03 -5.42585E+03  3.71629E+03 -1.20918E+03
  5.01111E+03  2.96098E+03  1.28790E+03  4.30768E+03 -3.36074E+02  5.53717E+03 -2.48081E+03  2.78134E+03
 -3.63511E+03  8.97279E+02 -4.46839E+03 -3.00931E+03 -3.34147E+02 -3.22480E+03  2.40369E+03 -2.20643E+03
  3.20115E+03 -1.75709E+03  1.00901E+03  7.78374E+02  6.20617E+02  1.51512E+03  3.52453E+02  6.29887E+02
  1.33803E+03  8.89247E+02  2.36333E+03  2.34078E+03  2.74964E+03  2.16868E+03  4.51237E+02  3.20978E+03
 -9.75704E+02  3.48661E+03 -2.89044E+03  3.56589E+03 -4.00625E+03  9.44749E+02 -5.21045E+03 -5.47332E+02
 -1.39716E+03 -4.78101E+03  3.62833E+02 -4.38904E+03  1.06664E+03 -2.59779E+03  2.75495E+03 -6.65912E+02
  3.66017E+03  1.22786E+03  4.11536E+02  3.37945E+03 -1.53917E+03  1.43048E+03 -2.09006E+03 -1.81390E+02
 -5.63415E+01 -1.15825E+03  1.12769E+03 -1.64180E+03  1.12671E+03 -9.79380E+02  1.76099E+03 -4.41710E+00
  6.80824E+02  1.27678E+03  6.83621E+02 -5.68955E+02 -4.21696E+02  8.81469E+02  1.74747E+03 -1.22473E+03
  3.97831E+02  3.14269E+02  1.53652E+03  1.80004E+03  1.59843E+02  2.77345E+03 -1.97029E+03  3.76740E+03
 -1.89590E+03  1.63124E+03 -2.87955E+03  5.66040E+02 -2.13483E+03 -1.42536E+03  7.84141E+02 -1.50806E+03
  5.80916E+02 -1.63405E+03  4.57775E+02 -1.55603E+03  6.42599E+02  1.39739E+02 -1.57731E+03  1.11336E+03
 -3.08183E+03 -1.91836E+02  6.22406E+02 -2.15085E+03 -1.37817E+03 -2.57343E+03  1.68363E+02 -1.49597E+03
  2.94958E+02 -8.22880E+01  5.49915E+02  1.24844E+02  9.04690E+02 -6.25048E+02  4.28189E+02  1.04080E+03
 -5.50316E+01  5.12862E+02 -4.47640E+02  1.29109E+00  2.20306E+03 -1.80707E+03  1.31700E+03 -1.72950E+03
  1.94221E+03  3.06250E+02  2.32939E+03  2.56910E+03  1.97860E+03  1.00218E+03 -1.01324E+03  1.98747E+03
 -2.37081E+03  7.27423E+01 -2.60053E+03  2.84227E+02  6.85198E+02 -8.68248E+02 -1.47065E+02 -1.14918E+03
  9.47508E+02 -6.30589E+02  6.49639E+02  1.16823E+03  3.71498E+02  2.21911E+03  1.68491E+02  3.66840E+02
 -6.31331E+02  4.73589E+02 -1.51025E+03 -1.62940E+02  5.97941E+02  1.34334E+03 -8.50631E+02  2.20067E+02
 -4.94061E+02 -8.93941E+01 -1.37442E+03  6.62749E+02 -7.40850E+02 -2.99486E+02 -2.32394E+03 -7.21380E+02
 -1.30916E+03 -2.71107E+03  9.47281E+02 -3.07669E+03  1.94554E+03 -2.08953E+03  3.14764E+03 -1.45979E+03
  1.95238E+03 -8.09569E+02  1.50472E+03  1.33857E+03 -6.12174E+02  6.55880E+02 -3.71013E+02  5.30646E+02
 -1.41513E+03  1.64403E+03 -9.29452E+02  5.53665E+00 -7.75026E+02 -3.68203E+02 -1.70203E+02  1.04358E+03
 -4.69901E+02  2.85524E+02 -1.77355E+03  3.50314E+02  5.10533E+02  6.37869E+02 -3.48062E+02 -5.96828E+02
  1.12608E+03 -2.18694E+02  3.01409E+02 -5.21878E+02  2.73293E+03  2.78775E+02 -3.27178E+02  8.17871E+02
 -4.71012E+02  1.92677E+03 -1.68851E+03  1.19747E+03 -1.02330E+03 -1.60697E+03 -5.10838E+02 -1.93436E+03
 -1.73949E+03 -2.29231E+03  4.34513E+02 -4.73352E+02  5.50325E+02 -6.37611E+02 -1.44349E+02  8.39212E+02
  4.61746E+01  7.67621E+02 -1.52513E+02  1.03589E+01  6.90767E+02 -1.03221E+03 -1.22851E+03 -8.56902E+02
  1.21811E+03  1.05936E+02  7.28983E+02 -2.39231E+02 -6.98802E+02  1.41672E+03  9.38325E+02  2.14813E+02
 -1.15897E+02  7.35016E+02 -8.52801E+02  2.64175E+02 -8.64118E+02  1.45312E+02 -4.30408E+02 -1.71975E+03
  1.31773E+03 -1.04711E+03  4.94066E+02 -4.62314E+01  1.09623E+03  6.33868E+02  7.21447E+02  1.18438E+03
  1.18477E+03  1.15588E+03 -3.85759E+02  1.65293E+03 -7.42059E+02  5.33637E+02  2.47659E+02  4.23366E+02
  3.74060E+02 -1.54384E+03 -3.64844E+02  2.33046E+02 -6.98505E+01  5.09953E+02 -1.13521E+03  1.06073E+02
 -9.31041E+02  6.72209E+02  4.02863E+02 -1.41872E+03  1.13123E+02 -7.33512E+02  4.49637E+02 -1.55429E+02
  5.53176E+02  3.74450E+02 -6.14607E+02 -8.85622E+02  3.23336E+01  1.06826E+03 -9.18225E+02  4.92265E+02
