 $NMID ID='MM_0lb_SNR200_18hz_g40_70.RAW', FMTDAT='(8E13.5)'
 TRAMP=1., VOLUME=1. $END
  3.10269E+05  1.43528E+03  3.37211E+05  2.49573E+05  8.53419E+04  3.35979E+05 -1.32429E+05  2.51015E+05
 -1.89562E+05  8.18434E+04 -1.11451E+05 -3.19259E+04  2.13882E+03 -5.06246E+04  5.34035E+04 -9.70933E+02
  3.54271E+04  5.31167E+04 -1.78200E+04  7.48557E+04 -5.93518E+04  6.29605E+04 -8.23771E+04  3.18568E+04
 -7.83702E+04 -1.18429E+04 -5.60830E+04 -5.02710E+04 -1.42397E+04 -6.68182E+04  2.61443E+04 -4.52515E+04
  3.79703E+04  4.37308E+03  1.57671E+04  4.68631E+04 -3.30280E+04  4.58973E+04 -6.55131E+04 -1.11994E+03
 -5.13261E+04 -5.66139E+04 -5.36973E+03 -7.60604E+04  3.29226E+04 -5.43929E+04  4.59274E+04 -1.68317E+04
  4.21084E+04  1.03983E+04  3.06613E+04  2.42046E+04  1.61328E+04  2.83316E+04 -4.64359E+03  2.68147E+04
 -2.10472E+04  1.35761E+04 -1.91158E+04 -3.83313E+03  4.48577E+03 -7.41670E+03  2.10495E+04  1.07608E+04
  7.58720E+03  3.30537E+04 -3.03244E+04  3.44655E+04 -6.01852E+04  1.39121E+03 -5.48910E+04 -4.09844E+04
 -1.23510E+04 -6.03718E+04  3.85714E+04 -4.19935E+04  5.40792E+04 -2.24383E+03  3.18656E+04  3.13253E+04
 -6.36930E+03  3.33745E+04 -2.79036E+04  1.48639E+04 -2.68730E+04 -6.49130E+03 -1.39861E+04 -9.73668E+03
 -7.19015E+03 -1.07733E+04 -1.95040E+03 -1.63869E+04  7.29889E+03 -2.23652E+04  1.54091E+04 -1.38581E+04
  1.15442E+04  3.82668E+03 -5.46869E+03  1.36440E+04 -1.83249E+04 -2.91520E+03 -7.74041E+03 -2.97017E+04
  2.09712E+04 -3.93332E+04  4.43060E+04 -1.90206E+04  4.13826E+04  1.85165E+04  1.41978E+04  4.20336E+04
 -1.48680E+04  3.14786E+04 -2.30332E+04  9.60167E+02 -9.08643E+03 -2.66355E+04  2.08835E+04 -3.08001E+04
  3.76155E+04 -6.45568E+03  3.12963E+04  2.25451E+04  1.57685E+04  4.28366E+04 -6.46421E+03  4.50582E+04
 -2.88567E+04  2.90225E+04 -3.73327E+04  8.01255E+03 -3.79791E+04 -1.57497E+04 -1.96336E+04 -3.45776E+04
  7.12554E+03 -3.35897E+04  2.94761E+04 -1.22216E+04  2.63386E+04  1.12929E+04  2.70977E+03  1.74301E+04
 -1.28445E+04  7.60584E+03 -8.98828E+03 -7.93768E+03  6.26639E+03 -9.67653E+03  1.72913E+04  6.19578E+03
  1.20113E+04  2.21756E+04 -5.90709E+03  2.34650E+04 -2.04652E+04  8.27791E+03 -2.46746E+04 -6.39671E+03
 -1.69465E+04 -1.69412E+04 -5.49606E+03 -1.58077E+04  3.02203E+03 -1.44429E+04  1.20023E+04 -1.36035E+04
  2.09295E+04 -1.11891E+04  2.86615E+04  1.96887E+03  1.99311E+04  1.55808E+04  2.88488E+03  3.19267E+04
 -1.54335E+04  2.77969E+04 -2.60719E+04  8.90940E+03 -1.89141E+04 -9.49479E+03 -5.04481E+03 -1.43631E+04
  3.00645E+03 -3.90172E+03 -3.78889E+03  6.95787E+03 -1.23898E+04  5.35057E+03 -1.38677E+04 -5.05373E+03
 -8.86372E+03 -1.51096E+04  5.21446E+03 -1.78590E+04  1.29566E+04 -1.37375E+04  1.39928E+04 -1.61234E+03
  9.18024E+03  9.75102E+03 -1.35329E+03  1.59494E+04 -9.81857E+03  9.38590E+03 -1.58665E+04 -3.83154E+03
 -1.18617E+04 -1.42953E+04 -2.20024E+03 -1.81679E+04  8.49313E+03 -1.46047E+04  1.63120E+04 -6.40121E+03
  1.49493E+04  1.07469E+03  9.51594E+03  4.22841E+03  5.35781E+03  1.34330E+03  7.03297E+03 -1.15100E+03
  1.41428E+04  2.91804E+03  1.50374E+04  1.21356E+04  9.76761E+03  2.44328E+04 -3.42062E+03  2.64893E+04
 -1.61792E+04  1.97520E+04 -2.43080E+04  8.88613E+03 -2.50021E+04 -2.13929E+03 -2.12497E+04 -1.43139E+04
 -9.64970E+03 -2.01866E+04  5.96622E+03 -1.99885E+04  1.70649E+04 -1.02456E+04  1.57396E+04  3.38217E+03
  5.58334E+03  1.09922E+04 -6.75605E+03  1.08811E+04 -1.26312E+04  2.46108E+03 -1.05647E+04 -7.18673E+03
 -4.26102E+02 -1.27309E+04  6.81419E+03 -9.49940E+03  7.40540E+03 -5.93320E+02  1.33542E+03  5.25282E+03
 -5.00886E+03  1.80976E+03 -3.13803E+03 -4.12721E+03  1.23861E+03 -1.00273E+04  7.76963E+03 -9.28894E+03
  1.22279E+04 -5.39806E+03  1.18543E+04  2.54098E+03  9.10562E+03  8.78934E+03  4.95902E+03  1.35188E+04
 -8.48533E+02  1.52367E+04 -1.00957E+04  9.30462E+03 -1.11044E+04  2.84805E+03 -8.89030E+03 -1.74220E+03
 -4.72508E+03 -4.03259E+03 -9.74630E+02  2.39919E+03 -1.45071E+03  5.85114E+02 -3.26116E+03  4.03517E+03
 -7.39704E+03 -8.31387E+02 -8.76870E+03 -6.36164E+03 -3.32356E+03 -1.18497E+04  3.60872E+03 -8.03564E+03
  7.08498E+03 -4.09867E+03  5.14195E+03  1.62210E+03  1.13385E+03  2.51042E+03 -3.27133E+03  6.54489E+02
 -3.58241E+03 -5.43813E+03 -8.10765E+02 -7.16236E+03  4.35392E+03 -7.72200E+03  9.39447E+03 -3.04392E+03
  1.11696E+04  1.25942E+03  8.49421E+03  6.64320E+03  1.51571E+03  7.96674E+03 -6.17904E+03  7.62699E+03
 -7.81477E+03  2.80044E+03 -3.88628E+03 -1.33865E+03  3.20582E+02 -1.21362E+03  5.24529E+03 -1.90976E+03
  3.56278E+03  3.35103E+03  9.49253E+02  5.63043E+03 -3.60605E+03  5.97613E+03 -8.12476E+03  2.58773E+03
 -5.10018E+03 -4.44955E+03  3.05948E+01 -7.12767E+03  3.56835E+03 -3.10427E+03  4.49973E+03  6.49313E+02
  1.53190E+02  3.83511E+03 -3.64237E+03  4.55006E+03 -4.97597E+03  3.33557E+03 -4.88443E+03 -1.18374E+03
 -4.09133E+03 -6.91171E+03  1.13987E+03 -5.82669E+03  6.36712E+03 -4.92676E+03  6.64401E+03  1.14072E+03
  4.16040E+03  5.53092E+03 -9.99397E+01  7.15808E+03 -5.52318E+03  5.49420E+03 -4.48597E+03 -1.36571E+03
 -4.83486E+03 -5.52580E+03 -1.13786E+03 -4.44402E+03  3.19919E+03 -5.02640E+03  2.35476E+03 -2.54503E+03
  2.67534E+03  3.50343E+02  4.43754E+02  1.36577E+03  6.91645E+02 -3.67277E+02  2.76666E+02 -2.78838E+03
  4.27868E+03 -2.63195E+02  5.20188E+03  2.15834E+02  5.49531E+03  3.98254E+03  4.85646E+03  7.11020E+03
 -1.17621E+03  9.34598E+03 -7.34677E+03  7.18995E+03 -9.55618E+03  1.10633E+03 -7.29938E+03 -2.30257E+03
 -4.22240E+03 -7.15506E+03 -7.06098E+02 -4.56518E+03  1.71303E+03 -3.30668E+03  3.18096E+03 -2.02696E+03
  5.45988E+02 -1.91056E+03  2.49205E+03 -2.16646E+03  4.53568E+03 -1.89668E+03  2.59006E+03  5.45852E+02
  5.59390E+03  1.78904E+03  7.15270E+02  3.25985E+03 -2.04820E+03  3.40509E+03 -4.19220E+03  2.73333E+03
 -5.01388E+03 -4.36995E+02 -2.10173E+03 -1.98578E+03  1.32831E+03 -4.59857E+03  3.68170E+03 -5.73260E+03
  5.39044E+03 -4.58977E+03  6.41957E+03  3.54949E+02  5.95271E+03  4.39240E+03  1.07822E+03  6.07610E+03
 -2.52552E+03  6.09136E+03 -3.06185E+03  2.38005E+03 -1.05497E+03 -8.38276E+02 -4.45761E+02 -1.09443E+03
 -2.66551E+02  9.14449E+02 -1.58105E+03  1.70772E+03 -2.75844E+03  2.29220E+03 -5.01035E+03 -7.32694E+02
 -1.41164E+03 -3.95141E+03  4.21716E+02 -4.87743E+03  1.83704E+03 -4.65673E+03  4.02175E+03 -7.28623E+02
  3.46163E+03  2.14549E+03  2.14799E+03  3.05869E+03 -1.18454E+03  4.55119E+03 -3.15565E+03  2.31149E+03
 -4.14532E+03  8.56508E+02 -3.77427E+03 -3.03240E+03  1.13427E+02 -2.70350E+03  1.61308E+03 -2.65134E+03
  2.40563E+03 -1.04177E+03  2.52102E+03  5.17354E+02 -1.38715E+03  2.38761E+03  4.34539E+02 -1.31319E+02
  2.36404E+03  2.19240E+02  4.59557E+02  1.24947E+03  9.50464E+02  2.14775E+03  2.62489E+03  1.64198E+03
 -1.42664E+03  2.94033E+03 -2.15043E+03  3.32922E+03 -3.71587E+03  2.30651E+03 -4.89567E+03 -5.54839E+02
 -1.79923E+03 -2.36050E+03 -1.35261E+02 -4.70652E+03  7.52697E+02 -2.40341E+03  3.51597E+03 -1.02670E+03
  2.56551E+03  2.49035E+03  2.88828E+02  2.49435E+03 -4.14826E+02  1.58226E+03 -9.35566E+02 -8.56464E+02
 -1.07961E+02 -1.18404E+03  3.04547E+02 -1.55822E+03 -6.39084E+02 -1.64139E+03  1.75873E+03  8.23762E+01
  5.78343E+02 -2.30342E+02  1.03191E+03  3.36738E+02 -9.66439E+01  1.05780E+03  1.71818E+03  3.11193E+01
  2.25503E+03 -1.15976E+03  1.35559E+03 -2.70731E+02  4.71261E+01  2.59349E+03 -1.77518E+03  2.99407E+03
 -2.59206E+03  1.21074E+03 -2.63154E+03  8.68901E+02 -8.94370E+02 -1.13245E+03  1.71580E+02 -7.44587E+02
  9.26612E+01 -2.18218E+03  1.49424E+03  8.83269E+01 -4.10338E+02  1.82331E+03 -1.14417E+03  2.31518E+03
 -1.68726E+03  3.82913E+02 -1.25702E+03 -9.87175E+02 -7.33894E+02 -2.06858E+03  1.76962E+02 -1.12370E+03
 -2.10525E+02 -1.59957E+03  8.72572E+02 -3.57073E+02  1.30736E+03  5.68237E+02 -1.25520E+02  1.32282E+03
 -9.22082E+02 -1.11505E+02 -5.32068E+02 -3.16077E+01  1.02585E+03 -2.30856E+02  2.17343E+03 -6.67258E+02
  1.00858E+03  1.04982E+03  2.67275E+03  1.74821E+02  7.20123E+02  2.15543E+03 -1.15965E+03  1.95164E+03
 -8.65184E+02 -4.59834E+02 -2.31808E+03  1.13914E+03 -9.57867E+02 -1.57640E+03  7.79798E+02 -8.01808E+02
  1.80471E+03 -1.31945E+02  1.52981E+03  6.26056E+02 -1.93626E+02  4.80265E+02  6.48885E+02  2.21116E+03
 -5.50205E+02  5.51579E+02 -5.73867E+02  4.06429E+02  1.45055E+01  1.53721E+03 -5.60925E+02  1.13241E+03
 -7.61577E+02  1.37373E+03 -1.62936E+03  5.02819E+02 -1.90806E+03  4.10948E+02 -2.35031E+03 -2.62571E+02
 -7.95269E+02 -2.32697E+03  8.40225E+02 -3.07982E+03  1.00002E+03 -3.29207E+03  3.07846E+03 -8.56475E+02
  2.84151E+03  2.19076E+02  1.30184E+03  2.12287E+03 -1.13424E+02  1.80874E+03 -6.33608E+01  1.22719E+03
 -1.09755E+03  4.12792E+02 -8.49431E+02 -2.93466E+02  4.32423E+02 -3.20883E+02 -1.75201E+02 -1.00752E+02
 -1.29362E+03  1.05263E+03 -7.26916E+02  5.27499E+02 -6.06082E+02  3.44613E+02  6.10347E+02 -6.13579E+02
  1.43934E+03 -4.29425E+00  6.47143E+02 -1.62689E+03  2.04210E+03  5.98053E+02 -5.81683E+02  1.50580E+03
 -1.36362E+03  2.52623E+03 -2.29465E+03  9.36522E+02 -1.90331E+03  2.18556E+02 -1.65854E+03 -1.42513E+03
 -9.71138E+02 -1.78199E+03  2.69352E+02 -1.30615E+03  9.49129E+02 -1.09142E+03 -5.95660E+02  5.97214E+02
  9.45967E+02 -5.82995E+02  8.58529E+01  3.65673E+02 -2.78175E+02 -8.05917E+02  3.34310E+02  1.62823E+02
 -1.64271E+02  4.05592E+02  1.44788E+02  6.13015E+02 -3.41917E+01 -2.15899E+02 -1.33835E+02  5.52501E+02
 -1.64939E+03  5.26566E+02 -2.64060E+02 -1.53855E+02 -5.06303E+02 -4.17734E+02 -1.45503E+03 -1.22848E+03
  1.49329E+03 -1.06146E+03  8.84063E+02 -2.20344E+02  1.49712E+03 -5.26861E+02 -1.74026E+02  3.30289E+02
  7.44952E+01  7.91085E+02  5.15439E+01  1.10853E+03 -3.56881E+02  1.51624E+03 -6.18732E+02  2.16232E+02
  7.06248E+02 -7.78124E+02 -2.02779E+03 -5.18982E+02 -9.89034E+02 -3.50406E+02 -4.44207E+02 -1.00416E+03
 -3.11439E+02 -5.55107E+02 -1.19777E+03 -1.54298E+03  9.40013E+02 -1.01254E+03  1.22454E+03 -7.21317E+02
  1.41406E+03  9.09960E+02 -3.28688E+01  8.03601E+02 -4.03859E+02  1.12885E+03  8.06851E+02  1.35119E+03
