 $NMID ID='MM_0lb_SNR200_17hz_g40_77.RAW', FMTDAT='(8E13.5)'
 TRAMP=1., VOLUME=1. $END
  3.09839E+05 -4.96014E+02  3.37270E+05  2.50474E+05  8.38596E+04  3.37765E+05 -1.32049E+05  2.50449E+05
 -1.88945E+05  8.31038E+04 -1.10649E+05 -3.22650E+04  1.77861E+03 -4.98563E+04  5.29207E+04  8.13920E+02
  3.49734E+04  5.24760E+04 -1.74924E+04  7.43704E+04 -6.03292E+04  6.27527E+04 -8.34164E+04  3.16406E+04
 -7.94745E+04 -1.04395E+04 -5.58393E+04 -5.06912E+04 -1.54593E+04 -6.83385E+04  2.76862E+04 -4.47453E+04
  3.95260E+04  3.27869E+03  1.56744E+04  4.65608E+04 -3.43794E+04  4.54145E+04 -6.54559E+04 -1.30081E+03
 -5.24167E+04 -5.57939E+04 -6.53140E+03 -7.59305E+04  3.36121E+04 -5.32158E+04  4.64324E+04 -1.64239E+04
  4.18592E+04  1.06527E+04  3.04496E+04  2.48046E+04  1.54901E+04  2.90145E+04 -4.15337E+03  2.66176E+04
 -2.12479E+04  1.23054E+04 -1.86924E+04 -3.81919E+03  4.42369E+03 -7.24798E+03  2.04683E+04  1.12530E+04
  7.40009E+03  3.29307E+04 -2.98984E+04  3.44805E+04 -6.22770E+04  2.08921E+03 -5.55485E+04 -4.07930E+04
 -1.22999E+04 -6.12333E+04  3.81435E+04 -4.25822E+04  5.56637E+04 -1.62207E+03  3.12723E+04  3.10995E+04
 -6.51057E+03  3.29114E+04 -2.84338E+04  1.39746E+04 -2.82398E+04 -5.12062E+03 -1.29280E+04 -9.81700E+03
 -7.95963E+03 -1.08881E+04 -2.83364E+02 -1.73183E+04  6.61031E+03 -2.17048E+04  1.55592E+04 -1.43705E+04
  1.27818E+04  4.52907E+03 -5.62728E+03  1.36043E+04 -1.90474E+04 -2.96768E+03 -7.76620E+03 -3.08789E+04
  2.14812E+04 -4.10030E+04  4.47402E+04 -1.78804E+04  4.28861E+04  1.88207E+04  1.38649E+04  4.16335E+04
 -1.55232E+04  3.08612E+04 -2.43129E+04  1.33512E+03 -7.62908E+03 -2.66900E+04  2.13307E+04 -3.11135E+04
  3.85114E+04 -7.74602E+03  3.09870E+04  2.20482E+04  1.59876E+04  4.36470E+04 -8.43097E+03  4.53416E+04
 -2.92508E+04  2.96323E+04 -3.66613E+04  9.04952E+03 -3.89818E+04 -1.58112E+04 -2.17101E+04 -3.36692E+04
  6.68221E+03 -3.44689E+04  3.01398E+04 -1.37423E+04  2.65059E+04  1.12423E+04  2.74860E+03  1.78952E+04
 -1.39842E+04  7.80597E+03 -9.84134E+03 -7.69006E+03  6.16923E+03 -9.60050E+03  1.71407E+04  7.17323E+03
  1.22819E+04  2.10080E+04 -6.90122E+03  2.29584E+04 -2.20046E+04  9.55095E+03 -2.56908E+04 -6.31212E+03
 -1.83833E+04 -1.63266E+04 -5.58106E+03 -1.66426E+04  4.25137E+03 -1.52273E+04  1.18982E+04 -1.48751E+04
  2.19017E+04 -1.14217E+04  2.83934E+04  1.16403E+03  2.08116E+04  1.65719E+04  4.33388E+03  3.37050E+04
 -1.63580E+04  2.84084E+04 -2.59437E+04  1.04492E+04 -1.95172E+04 -9.94163E+03 -4.02395E+03 -1.42049E+04
  2.52740E+03 -3.53806E+03 -4.10892E+03  5.95575E+03 -1.37846E+04  5.64751E+03 -1.41239E+04 -5.16013E+03
 -8.74108E+03 -1.55455E+04  4.87655E+03 -2.07330E+04  1.34104E+04 -1.40765E+04  1.54125E+04 -2.44309E+03
  9.77110E+03  1.06456E+04 -1.22900E+03  1.65594E+04 -1.16220E+04  1.06322E+04 -1.51976E+04 -2.74367E+03
 -1.12926E+04 -1.47961E+04 -1.54431E+03 -2.00925E+04  9.15402E+03 -1.58501E+04  1.62956E+04 -7.74661E+03
  1.63344E+04  2.12349E+03  1.05283E+04  4.39124E+03  5.87848E+03  1.86364E+03  7.29874E+03 -6.25532E+02
  1.50696E+04  1.90348E+03  1.56156E+04  1.27520E+04  1.05559E+04  2.52414E+04 -3.69172E+03  2.83808E+04
 -1.61021E+04  2.11273E+04 -2.52134E+04  1.02201E+04 -2.71059E+04 -1.60387E+03 -2.17302E+04 -1.50961E+04
 -1.09495E+04 -2.13716E+04  7.99412E+03 -1.97172E+04  1.74184E+04 -1.16863E+04  1.52969E+04  3.03380E+03
  6.02180E+03  1.16850E+04 -6.92148E+03  9.40829E+03 -1.44944E+04  3.45213E+03 -1.08249E+04 -7.82575E+03
 -5.69812E+02 -1.23143E+04  5.42519E+03 -9.60988E+03  8.75637E+03 -1.20364E+03  2.00183E+03  5.27339E+03
 -4.97727E+03  9.41322E+02 -3.83783E+03 -4.80863E+03  4.64438E+02 -1.07242E+04  8.25765E+03 -1.12516E+04
  1.31888E+04 -4.37348E+03  1.22741E+04  3.24712E+03  1.18011E+04  1.00001E+04  5.17552E+03  1.46412E+04
 -1.27701E+03  1.73843E+04 -9.82677E+03  1.18458E+04 -1.11192E+04  3.32205E+03 -8.47621E+03 -2.47445E+03
 -4.72905E+03 -4.48888E+03 -1.22421E+03  2.19419E+03 -2.95112E+03  2.34243E+03 -4.84882E+03  2.87658E+03
 -7.59502E+03 -4.22285E+02 -9.24881E+03 -7.34214E+03 -3.78683E+03 -1.12886E+04  4.22149E+03 -8.92488E+03
  7.12225E+03 -3.92808E+03  4.60213E+03  2.34799E+03  1.02686E+03  4.23807E+03 -3.56800E+03  5.88331E+01
 -2.80427E+03 -6.97998E+03 -1.51256E+03 -8.46813E+03  4.32558E+03 -6.80977E+03  1.02463E+04 -4.44883E+03
  1.29035E+04  1.16357E+03  9.27564E+03  5.03399E+03  1.47898E+03  9.03284E+03 -6.20073E+03  7.97232E+03
 -6.56729E+03  3.37170E+03 -2.58220E+03 -1.62979E+03  9.84845E+02 -2.46515E+03  5.88932E+03 -5.83417E+02
  4.19686E+03  3.52929E+03  1.65999E+03  6.25677E+03 -5.47872E+03  7.15025E+03 -8.11649E+03  3.02717E+03
 -5.08533E+03 -3.33284E+03 -3.67430E+02 -6.49496E+03  4.51658E+03 -2.41511E+03  4.20060E+03  1.25085E+03
 -2.22633E+02  3.68597E+03 -4.72792E+03  4.96797E+03 -5.36743E+03  3.04141E+03 -5.39239E+03 -2.24872E+03
 -3.62625E+03 -6.41321E+03  9.23725E+02 -7.31122E+03  6.88190E+03 -4.92476E+03  7.18757E+03  2.58689E+02
  4.72031E+03  5.71061E+03 -4.84323E+02  7.87264E+03 -5.15436E+03  4.13435E+03 -6.93858E+03 -1.44292E+02
 -5.61999E+03 -5.11125E+03 -1.06191E+03 -4.81662E+03  2.42363E+03 -5.42826E+03  4.14385E+03 -2.15859E+03
  2.09009E+03  4.64075E+02 -2.78945E+02  1.08140E+03  7.32596E+02 -1.03395E+03  4.64110E+02 -1.27807E+03
  4.43115E+03 -1.14040E+03  5.98714E+03  2.73325E+02  5.57179E+03  3.32807E+03  5.83154E+03  8.14608E+03
 -1.28738E+03  9.43350E+03 -7.15396E+03  7.15751E+03 -1.10193E+04  1.28399E+03 -7.80991E+03 -3.98451E+03
 -4.26163E+03 -7.28489E+03  6.99751E+01 -5.65524E+03  2.78791E+03 -3.06668E+03  8.56472E+02 -2.50169E+03
  1.31560E+03 -8.12680E+02  1.26507E+03 -1.79781E+03  4.27233E+03 -2.21470E+03  3.89886E+03 -1.30831E+02
  4.70414E+03  5.58242E+02  1.95655E+03  3.44896E+03 -1.35791E+03  2.86625E+03 -5.60657E+03  3.48821E+03
 -6.47774E+03 -1.11729E+03 -2.24732E+03 -4.51947E+03  1.04349E+03 -6.01348E+03  3.26596E+03 -5.98669E+03
  6.22073E+03 -3.61250E+03  6.84648E+03  3.51194E+02  5.62472E+03  4.94044E+03  1.50922E+03  6.59038E+03
 -2.49018E+03  7.98045E+03 -4.51230E+03  2.46727E+03 -2.39809E+03 -1.54618E+03 -3.95927E+02 -1.13531E+03
 -4.02625E+02  3.82944E+02 -1.08642E+03  2.75515E+03 -2.99789E+03  1.47123E+03 -3.99826E+03  4.56483E+02
 -1.50014E+03 -3.95338E+03  1.19224E+03 -4.80427E+03  3.18720E+03 -5.08005E+03  4.80278E+03 -5.45973E+02
  4.69790E+03  3.06039E+03  1.75314E+03  4.53598E+03 -3.93605E+02  5.00449E+03 -3.04095E+03  3.06573E+03
 -4.14774E+03  1.08207E+01 -3.78875E+03 -2.62697E+03 -2.50226E+02 -4.97118E+03  1.67325E+03 -2.75018E+03
  2.95347E+03 -1.27752E+03  2.21333E+03 -6.57498E+02  1.43468E+03  2.27186E+03  1.11915E+03  1.04540E+03
  2.30085E+03  1.70923E+03  1.40096E+03  8.19521E+02  2.87344E+03  2.50223E+03  2.62380E+03  1.73315E+03
 -1.37244E+03  2.53197E+03 -4.14973E+03  4.53394E+03 -3.72033E+03  1.28270E+03 -4.93653E+03 -1.70423E+03
 -2.57986E+03 -3.68357E+03  2.34431E+02 -5.51287E+03  1.53379E+03 -2.81959E+03  4.18420E+03 -2.22001E+02
  3.10567E+03  2.60660E+03  1.38574E+03  2.62071E+03 -8.63456E+02  8.54301E+02 -8.77431E+02  3.14162E+02
 -1.04809E+03 -1.70636E+03  2.22979E+03 -2.06165E+02  1.98231E+03 -4.63147E+02  1.11210E+03 -7.55448E+02
  1.56567E+03  1.02724E+03  1.37837E+03 -4.94880E+02 -6.89492E+02 -4.09558E+02  1.45186E+03  4.42287E+02
  2.79138E+02  4.03970E+02  2.45273E+03 -4.18816E+02  3.71065E+02  3.24279E+03 -6.22620E+02  3.16218E+03
 -2.00185E+03  1.85366E+03 -2.43618E+03  8.50196E+02 -2.86589E+03 -1.16671E+03 -3.83716E+02 -2.07994E+03
 -8.37557E+02 -2.62435E+03  2.55765E+03 -4.13261E+02 -8.71705E+01  1.55907E+03 -2.20039E+03  2.79022E+03
 -8.57000E+02  9.30111E+02 -2.13838E+03 -2.45598E+03 -1.35456E+03 -1.91695E+03  9.55743E+02 -2.66996E+03
  7.17838E+02 -9.00655E+02  2.36041E+03 -2.72600E+02  1.71039E+03  6.52064E+01  5.70375E+02  2.04641E+03
 -6.91338E+02  7.09854E+02 -1.17783E+03 -1.00139E+03  4.09169E+02 -1.16331E+03  2.33348E+03 -1.47899E+03
  2.83551E+03  2.26850E+02  3.82825E+03  2.16121E+03  1.02806E+03  2.77289E+03 -7.50988E+02  1.81147E+03
 -2.09555E+03  9.17634E+02 -2.30698E+03 -1.07887E+03 -1.55385E+03 -1.31031E+03  8.69738E+01  1.27891E+02
  1.60655E+03 -1.72695E+03  1.32650E+03  6.10774E+02 -1.38256E+01  1.82783E+03  4.24304E+02  1.77326E+03
  4.94533E+02  9.16467E+02 -5.88060E+02  6.57444E+02  1.70678E+02  9.73289E+02 -3.72786E+02  4.53487E+02
 -7.82317E+02  7.63041E+02 -6.04235E+02  1.57135E+02 -2.44839E+03 -2.69239E+02 -2.78448E+03 -1.49121E+03
 -6.74147E+02 -2.09737E+03  2.06953E+02 -3.48811E+03  1.63843E+03 -4.40575E+03  3.94654E+03 -2.28287E+03
  3.22434E+03  8.51951E+02  1.74443E+03  2.70267E+03 -3.77629E+02  1.93989E+03  1.23472E+01  1.96092E+03
 -1.40161E+03  1.16340E+03 -9.19912E+02 -6.91271E+02 -4.08412E+02  1.29483E+03 -1.63529E+03  7.58210E+02
 -1.34882E+03 -2.89458E+02 -1.48963E+03 -6.16023E+02 -2.25052E+02 -5.51689E+02 -1.03296E+03 -6.03995E+02
  1.02905E+03 -1.74214E+03 -4.31917E+02 -6.59091E+02  2.13992E+03  1.71404E+03 -2.23760E+03  2.57424E+03
 -1.13948E+03  2.52256E+03 -1.53174E+03  2.29826E+03 -2.24157E+03 -7.56469E+02 -1.79918E+03 -1.04914E+03
 -6.70833E+01 -3.64837E+03  6.31247E+02 -7.86876E+02  5.24772E+02 -4.10662E+01  1.29815E+03  5.47901E+02
  9.11271E+02  1.65449E+03 -2.49951E+02 -3.88460E+01 -1.59054E+03  2.23332E+02 -3.17633E+02 -4.34346E+02
 -3.65135E+01 -1.37064E+02  3.25924E+02  2.82949E+02 -2.24633E+02  1.92259E+03  9.14974E+02  3.22691E+02
  4.23029E+02  1.26477E+03 -1.27903E+03 -1.21129E+03 -1.76952E+02 -5.75262E+02  5.62628E+02 -1.05878E+03
  7.20746E+02 -1.79759E+03  2.68737E+02 -2.33178E+01  1.59748E+03 -2.36371E+02  2.56984E+02  1.17257E+03
  9.83622E+02  4.02661E+02 -5.76922E+02  1.08635E+03 -1.67810E+03  1.28496E+03 -8.12573E+02  4.37754E+02
 -3.87629E+02 -3.11178E+02 -8.53667E+02 -2.49450E+02 -8.53686E+02 -8.08354E+02 -1.46182E+03 -5.97224E+02
 -9.47097E+02  3.75715E+02 -2.55125E+02 -1.29312E+03  9.62016E+02 -1.79475E+03  9.98056E+02  1.32816E+03
  6.56795E+02  2.51451E+02 -8.33811E+02  6.40146E+02 -4.87818E+01  2.31085E+03 -3.67603E+02  1.84877E+02
