 $NMID ID='MM_0lb_SNR200_19hz_g50_68.RAW', FMTDAT='(8E13.5)'
 TRAMP=1., VOLUME=1. $END
  3.09983E+05  5.06960E+02  3.36424E+05  2.50485E+05  8.51497E+04  3.38361E+05 -1.32213E+05  2.50666E+05
 -1.90999E+05  8.25120E+04 -1.11403E+05 -3.32175E+04  4.43038E+02 -4.91932E+04  5.39004E+04  1.17332E+03
  3.48700E+04  5.22624E+04 -1.74938E+04  7.41495E+04 -6.07005E+04  6.18981E+04 -8.26740E+04  3.17397E+04
 -8.11839E+04 -1.06786E+04 -5.65623E+04 -5.02049E+04 -1.48951E+04 -6.84305E+04  2.63973E+04 -4.57234E+04
  3.87474E+04  3.03805E+03  1.52116E+04  4.80009E+04 -3.37880E+04  4.63309E+04 -6.47706E+04 -7.55140E+02
 -5.24884E+04 -5.60917E+04 -5.92332E+03 -7.49496E+04  3.28282E+04 -5.41630E+04  4.60642E+04 -1.64744E+04
  4.15986E+04  1.06358E+04  3.08689E+04  2.41880E+04  1.55630E+04  2.97515E+04 -4.94151E+03  2.69994E+04
 -2.19974E+04  1.20678E+04 -1.88554E+04 -4.49676E+03  4.04003E+03 -6.54694E+03  2.20489E+04  1.05203E+04
  6.85361E+03  3.38880E+04 -2.99326E+04  3.39058E+04 -6.07899E+04  1.22400E+03 -5.52399E+04 -4.17293E+04
 -1.17673E+04 -6.05427E+04  3.69884E+04 -4.34678E+04  5.57914E+04 -1.39618E+03  3.30365E+04  3.13694E+04
 -5.80530E+03  3.28622E+04 -2.86068E+04  1.40561E+04 -2.71381E+04 -5.21029E+03 -1.34646E+04 -9.59057E+03
 -6.98781E+03 -1.13832E+04 -3.71598E+02 -1.69274E+04  6.26115E+03 -2.22229E+04  1.43545E+04 -1.48211E+04
  1.17796E+04  4.00182E+03 -5.22102E+03  1.35103E+04 -1.98465E+04 -3.46589E+03 -8.19554E+03 -3.07796E+04
  2.13913E+04 -4.10790E+04  4.46816E+04 -1.80025E+04  4.19377E+04  1.89729E+04  1.44009E+04  4.12919E+04
 -1.54870E+04  3.07034E+04 -2.37106E+04  1.04788E+03 -7.90655E+03 -2.71553E+04  2.05016E+04 -3.10219E+04
  3.80899E+04 -7.66245E+03  3.09826E+04  2.22985E+04  1.57420E+04  4.30544E+04 -8.44653E+03  4.54315E+04
 -2.76251E+04  2.95694E+04 -3.62220E+04  8.80576E+03 -3.88270E+04 -1.45114E+04 -2.15075E+04 -3.46986E+04
  6.62154E+03 -3.47932E+04  2.88892E+04 -1.31097E+04  2.67513E+04  1.08508E+04  2.73618E+03  1.79213E+04
 -1.35914E+04  8.15938E+03 -9.38914E+03 -7.95795E+03  4.91001E+03 -1.04633E+04  1.65890E+04  6.24177E+03
  1.19146E+04  2.13575E+04 -6.04964E+03  2.47040E+04 -2.16733E+04  9.12099E+03 -2.49626E+04 -6.87303E+03
 -1.65915E+04 -1.64607E+04 -5.61028E+03 -1.73855E+04  3.19200E+03 -1.44489E+04  1.27753E+04 -1.33558E+04
  2.05349E+04 -1.03612E+04  2.70638E+04  7.44823E+02  2.12476E+04  1.77622E+04  4.44654E+03  3.30155E+04
 -1.65323E+04  2.80881E+04 -2.59734E+04  7.69563E+03 -1.97211E+04 -9.92740E+03 -4.38528E+03 -1.44677E+04
  2.56113E+03 -4.78129E+03 -2.78991E+03  5.81611E+03 -1.25329E+04  5.63353E+03 -1.26737E+04 -5.01046E+03
 -8.83941E+03 -1.53542E+04  5.70886E+03 -1.93546E+04  1.22506E+04 -1.42171E+04  1.53410E+04 -1.42582E+03
  8.73299E+03  1.14493E+04 -1.48676E+02  1.62170E+04 -9.12249E+03  7.79856E+03 -1.56060E+04 -3.43735E+03
 -1.19534E+04 -1.50683E+04 -1.63945E+03 -1.86030E+04  8.39983E+03 -1.55336E+04  1.58094E+04 -7.47474E+03
  1.47621E+04  1.38460E+03  1.06414E+04  3.72425E+03  4.08328E+03  2.32178E+02  7.99467E+03 -1.54801E+03
  1.53428E+04  3.15675E+03  1.52364E+04  1.28849E+04  9.55697E+03  2.46623E+04 -3.27564E+03  2.76040E+04
 -1.55279E+04  1.97681E+04 -2.42286E+04  1.01799E+04 -2.55365E+04 -1.28029E+03 -2.14936E+04 -1.40913E+04
 -9.70005E+03 -2.05329E+04  7.36134E+03 -1.82394E+04  1.67376E+04 -1.10653E+04  1.58901E+04  3.56709E+03
  7.31127E+03  1.20434E+04 -8.32378E+03  1.07776E+04 -1.32961E+04  2.84865E+03 -9.74577E+03 -8.63810E+03
  4.46813E+02 -1.19948E+04  5.60988E+03 -1.01943E+04  7.09293E+03 -2.03688E+03  1.73118E+03  5.09139E+03
 -4.84521E+03  7.32007E+02 -3.85543E+03 -4.34796E+03  3.83399E+02 -1.04927E+04  8.94780E+03 -8.55229E+03
  1.24033E+04 -3.88132E+03  1.12042E+04  2.92480E+03  8.84262E+03  9.19103E+03  5.09296E+03  1.27717E+04
 -1.82495E+03  1.49702E+04 -8.30874E+03  1.08351E+04 -1.17230E+04  2.88577E+03 -8.51869E+03 -2.12088E+03
 -3.99954E+03 -2.56083E+03 -6.91442E+02  1.75944E+03 -1.90406E+03  2.22593E+03 -3.45285E+03  2.69072E+03
 -8.31299E+03 -2.40530E+01 -8.11344E+03 -6.53578E+03 -3.96244E+03 -1.08479E+04  2.89402E+03 -8.60779E+03
  7.59422E+03 -3.77436E+03  5.23243E+03  2.16391E+03  7.73032E+02  1.88385E+03 -2.29104E+03 -2.45518E+01
 -2.36564E+03 -6.27774E+03  3.00968E+02 -7.12419E+03  4.35324E+03 -7.66155E+03  9.71562E+03 -3.99600E+03
  1.10846E+04  3.16020E+02  8.45582E+03  6.34309E+03  1.93982E+03  8.23381E+03 -5.83448E+03  8.96130E+03
 -7.59983E+03  3.01975E+03 -3.22277E+03 -1.22940E+03  1.19919E+03 -1.02694E+03  4.43384E+03 -6.51473E+02
  3.24863E+03  3.08558E+03  1.28697E+03  5.98982E+03 -4.38726E+03  7.24106E+03 -8.11846E+03  1.72899E+03
 -5.81219E+03 -4.50796E+03 -4.59258E+02 -6.04524E+03  3.71426E+03 -3.35781E+03  4.14966E+03  1.06871E+03
  1.04692E+03  2.55344E+03 -2.89807E+03  4.47788E+03 -4.80896E+03  3.51335E+03 -3.90195E+03 -1.28421E+03
 -2.79261E+03 -5.59753E+03  1.32542E+03 -7.25015E+03  5.93494E+03 -4.93815E+03  5.71708E+03  5.80490E+02
  5.20921E+03  5.43988E+03  2.14259E+02  7.10953E+03 -4.49143E+03  3.23943E+03 -5.89104E+03 -1.29854E+03
 -5.42596E+03 -5.52122E+03 -1.51476E+03 -5.03523E+03  1.99554E+03 -3.87263E+03  2.44887E+03 -4.33660E+03
  1.68484E+03  1.09533E+03 -7.10271E+01  1.95678E+03  6.05438E+02 -1.71421E+03  3.23201E+02 -1.09648E+03
  3.63568E+03 -5.18732E+02  4.06783E+03  1.01023E+03  4.75805E+03  4.07614E+03  4.98804E+03  6.73061E+03
 -1.32019E+03  7.85969E+03 -6.38761E+03  7.18107E+03 -9.72952E+03  1.13024E+03 -6.60729E+03 -1.72601E+03
 -4.18743E+03 -7.11288E+03 -2.01537E+02 -5.10826E+03  1.72792E+03 -1.41843E+03  1.14830E+03 -1.71042E+03
  1.67706E+03 -1.58990E+03  2.69595E+03 -2.22986E+03  3.09481E+03 -9.59223E+02  3.84116E+03  9.75204E+02
  4.65290E+03  9.49894E+02  1.67020E+03  3.00821E+03 -9.83639E+02  2.83238E+03 -5.04747E+03  2.30102E+03
 -4.15020E+03 -1.56530E+03 -1.52438E+03 -3.05718E+03  7.66898E+02 -4.60707E+03  2.68161E+03 -5.26342E+03
  5.98504E+03 -4.40455E+03  7.11899E+03  6.88052E+02  5.19913E+03  4.09250E+03  1.39838E+03  5.06757E+03
 -1.70106E+03  6.27325E+03 -2.25780E+03  1.20457E+03 -1.88780E+03 -1.31281E+03  6.24034E+02 -6.46044E+02
 -5.34110E+02  4.78723E+02 -6.60095E+02  2.21030E+03 -2.45997E+03  7.27696E+02 -5.33273E+03 -2.49758E+02
 -2.01179E+03 -3.19740E+03  3.10867E+02 -5.40422E+03  2.14594E+03 -4.43949E+03  3.60926E+03 -1.53195E+03
  5.04791E+03  2.30654E+03  1.15080E+03  2.90510E+03 -1.07506E+03  4.79243E+03 -2.89698E+03  2.73795E+03
 -3.43368E+03  7.67994E+02 -2.63429E+03 -2.56943E+03  3.85267E+02 -2.95842E+03  1.87696E+03 -2.43430E+03
  2.44336E+03 -1.56975E+03  1.46216E+03  9.56363E+01  4.74562E+02  5.37590E+02  3.29606E+02  5.60515E+02
  7.88653E+02  1.55168E+03  1.23072E+03  1.08654E+03  1.17968E+03  1.64704E+03  2.45731E+03  1.87982E+03
 -2.11994E+03  1.85055E+03 -2.58479E+03  3.50514E+03 -2.13120E+03  9.52911E+02 -3.02880E+03 -1.52973E+01
 -1.57192E+03 -3.88116E+03  1.07533E+03 -3.52813E+03  1.26493E+03 -2.21056E+03  2.45193E+03 -1.79179E+03
  2.94572E+03  1.15658E+03  5.60813E+02  1.93193E+03 -2.03726E+02  1.58648E+03 -1.28883E+03  6.67072E+02
 -3.14197E+02 -1.22523E+03  1.08155E+03  2.35964E+02  1.53796E+03 -1.17509E+03  2.15786E+03  4.67915E+02
  1.66102E+03  1.23077E+03 -8.11687E+01  5.23133E+02 -1.02281E+02 -6.96471E+02  1.19410E+03 -1.80509E+02
 -1.79060E+02 -1.30775E+03  2.37199E+03  7.29721E+02 -3.43134E+02  2.50749E+03 -1.98871E+02  3.23459E+03
 -1.67131E+03 -8.04763E+01 -1.61850E+03  4.41550E+02 -1.34080E+03 -9.86936E+02  2.78467E+02 -7.31243E+02
  4.24232E+02 -9.04471E+00  9.11461E+02 -1.82640E+02 -7.00669E+01  1.77902E+03 -1.04708E+03  7.28258E+02
 -8.81647E+02  3.90858E+02 -1.03809E+03 -1.79111E+03 -1.82353E+02 -1.62600E+03 -8.82961E+02 -8.58353E+02
 -8.05025E+01  2.57903E+02  5.95566E+01  6.63613E+02  1.64627E+03  2.52616E+02  9.13058E+02  1.46096E+02
  1.06992E+03 -4.84993E+02 -1.97207E+03  4.09821E+02 -4.09359E+02 -8.18330E+02  2.04621E+03 -4.15774E+01
  1.71631E+03 -9.46259E+02  3.34181E+03  6.62695E+02  1.19587E+03  8.39360E+02  3.23243E+02  3.23237E+03
 -1.87474E+03 -5.89660E+02 -9.66736E+02 -2.28852E+02 -2.39838E+02 -1.11226E+03  2.28699E+02 -6.30933E+02
  9.02205E+02 -1.68001E+03  1.24963E+03  1.57559E+03  1.03111E+03  1.82351E+03  4.38659E+01  1.42087E+03
 -8.37289E+02  1.23175E+03 -8.94957E+02 -9.90227E+02  4.42776E+02 -1.15120E+02 -8.81130E+02  1.91413E+02
 -1.26979E+03  1.37201E+03 -2.65340E+03  2.21646E+02 -9.52502E+02  6.94242E+02 -2.79455E+03 -1.70872E+03
 -1.22850E+03 -2.11359E+03  3.33181E+02 -3.67790E+03  1.20645E+03 -1.50222E+03  1.76683E+03 -1.67444E+03
  2.74394E+03 -4.48156E+02  4.79903E+02  2.37431E+02 -5.77030E+02  1.58303E+03 -1.19782E+03  9.46680E+02
 -2.80676E+02  4.84370E+02  5.49913E+02  2.01687E+02  4.31885E+01 -6.81649E+02 -1.09450E+03  2.09878E+02
 -2.17297E+03 -1.02185E+03 -2.05245E+03 -3.89860E+02  8.58271E+02 -4.55497E+02 -1.00868E+03 -1.19952E+03
  1.11905E+03 -1.07621E+03  6.38569E+02 -5.20621E+02  9.91558E+02  1.04548E+03 -1.49605E+02 -1.47924E+02
 -6.34802E+02  1.65034E+03 -1.84216E+03  3.75980E+02 -2.81174E+03  3.49592E+02 -8.44977E+02 -1.51535E+03
 -1.05370E+03 -5.83632E+02  3.31513E+02 -3.01430E+02 -5.31359E+01 -6.00613E+02  1.04297E+03  3.05697E+02
  5.43108E+02 -5.14307E+02 -6.86121E+02  6.28261E+02 -8.07821E+02 -2.86268E+02 -7.46830E+02 -1.36358E+02
 -3.86599E+02  1.02354E+03  3.57076E+02 -3.81117E+02  3.10741E+02  4.38759E+02  1.69391E+03  7.64869E+02
 -2.52208E+02 -8.00452E+02 -1.07281E+03 -3.31518E+02  5.64831E+02 -6.79208E+02 -2.56731E+02 -9.39313E+02
  6.41768E+02 -1.69742E+01  1.37799E+02  7.58352E+02  1.80073E+03 -3.79115E+02  6.53177E+01  3.30444E+02
 -7.06721E+02 -7.26032E+02 -1.21556E+03  8.72292E+02 -5.26293E+02  1.41981E+03 -7.47156E+02  8.00056E+02
  1.11198E+03 -6.10867E+02 -9.52294E+02 -2.77502E+02 -1.06183E+03 -1.05486E+03 -8.46695E+02  1.95037E+02
 -5.59668E+02  1.78430E+02 -1.60021E+02 -7.37973E+02  2.03728E+02 -1.46047E+03  1.10143E+03  2.03550E+02
 -2.09386E+02 -4.84900E+02 -1.28729E+03 -4.80428E+02 -2.62327E+02 -3.13993E+02 -1.31566E+03  5.22877E+02
