 $NMID ID='MM_0lb_SNR200_10hz_g45_92.RAW', FMTDAT='(8E13.5)'
 TRAMP=1., VOLUME=1. $END
  3.10649E+05 -7.66357E+02  3.37037E+05  2.51035E+05  8.51474E+04  3.38509E+05 -1.31074E+05  2.52053E+05
 -1.90445E+05  8.32051E+04 -1.13118E+05 -3.15539E+04 -6.32569E+02 -5.12799E+04  5.32483E+04 -5.14055E+02
  3.53838E+04  5.26082E+04 -1.59437E+04  7.52245E+04 -6.20019E+04  6.22517E+04 -8.50206E+04  3.32375E+04
 -8.27892E+04 -1.17747E+04 -5.66916E+04 -5.29932E+04 -1.52291E+04 -7.13482E+04  2.82768E+04 -4.62288E+04
  4.15593E+04  2.59504E+03  1.67103E+04  4.89753E+04 -3.56665E+04  4.86650E+04 -6.87867E+04  2.97997E+01
 -5.45991E+04 -5.70077E+04 -7.88885E+03 -7.87388E+04  3.66842E+04 -5.51170E+04  4.90111E+04 -1.70086E+04
  4.62872E+04  1.07029E+04  3.33370E+04  2.74944E+04  1.44962E+04  2.95515E+04 -4.59530E+03  2.81427E+04
 -2.09852E+04  1.19928E+04 -1.88372E+04 -5.78935E+03  7.03473E+03 -5.18853E+03  2.21644E+04  1.36076E+04
  6.00346E+03  3.61955E+04 -3.47621E+04  3.57935E+04 -6.51246E+04  2.32436E+03 -5.79497E+04 -4.48789E+04
 -1.29711E+04 -6.48224E+04  4.15723E+04 -4.55630E+04  5.97661E+04 -2.80160E+03  3.56306E+04  3.49761E+04
 -5.24266E+03  3.78005E+04 -3.22597E+04  1.95985E+04 -3.35444E+04 -3.84575E+03 -1.78379E+04 -1.14546E+04
 -8.00957E+03 -1.34821E+04 -1.90577E+03 -1.94370E+04  8.15232E+03 -2.30240E+04  1.56629E+04 -1.30431E+04
  1.06919E+04  5.47712E+03 -8.64029E+03  1.44557E+04 -2.33161E+04 -5.03657E+03 -9.77870E+03 -3.65697E+04
  2.48289E+04 -4.53764E+04  5.12473E+04 -1.94197E+04  4.75818E+04  1.96363E+04  1.69007E+04  4.47678E+04
 -1.77578E+04  3.57451E+04 -2.70241E+04  3.03704E+03 -1.14485E+04 -2.75363E+04  2.19879E+04 -3.63725E+04
  4.46596E+04 -1.06879E+04  3.98187E+04  2.43128E+04  2.06479E+04  5.02511E+04 -9.88506E+03  5.37587E+04
 -3.43339E+04  3.68725E+04 -4.64781E+04  1.02001E+04 -4.53071E+04 -1.83397E+04 -2.64782E+04 -4.02224E+04
  6.89480E+03 -4.09729E+04  3.40491E+04 -1.59432E+04  3.26178E+04  1.13085E+04  2.93306E+03  1.95223E+04
 -1.34649E+04  8.46781E+03 -1.20537E+04 -8.14199E+03  6.33698E+03 -1.15129E+04  1.90550E+04  5.53182E+03
  1.36491E+04  2.34833E+04 -5.27235E+03  2.62595E+04 -2.30317E+04  1.41219E+04 -2.99107E+04 -3.63607E+03
 -2.31328E+04 -1.97809E+04 -1.00632E+04 -2.30405E+04  3.97056E+03 -2.21064E+04  1.66572E+04 -2.08525E+04
  3.08675E+04 -1.35703E+04  3.56072E+04  3.62468E+03  2.82014E+04  2.31552E+04  3.75638E+03  3.90785E+04
 -2.00042E+04  3.31589E+04 -3.01269E+04  1.19969E+04 -2.18608E+04 -1.12117E+04 -4.88255E+03 -1.21178E+04
  1.66637E+02 -1.18303E+03 -5.77884E+03  7.74178E+03 -1.82606E+04  5.14640E+03 -1.83211E+04 -8.11382E+03
 -1.12250E+04 -2.22131E+04  6.63979E+03 -2.70565E+04  1.78993E+04 -1.89628E+04  2.06695E+04 -1.00956E+03
  1.37021E+04  1.53921E+04 -1.44705E+03  2.25051E+04 -1.57925E+04  1.29367E+04 -2.23960E+04 -4.72773E+03
 -1.51674E+04 -2.03703E+04 -2.02075E+03 -2.64002E+04  1.29450E+04 -2.10719E+04  2.20465E+04 -1.00418E+04
  2.00278E+04  1.27361E+03  1.35105E+04  5.63920E+03  8.62156E+03  2.23611E+03  1.23433E+04 -5.11460E+02
  2.13336E+04  2.01459E+03  2.50149E+04  1.79062E+04  1.61570E+04  3.52937E+04 -3.32387E+03  4.11621E+04
 -2.38169E+04  3.41894E+04 -3.73332E+04  1.86423E+04 -4.22028E+04 -3.91192E+03 -3.40982E+04 -2.55215E+04
 -1.41913E+04 -3.44867E+04  1.22214E+04 -2.87680E+04  2.45828E+04 -1.46812E+04  2.29709E+04  7.00718E+03
  9.65202E+03  1.70158E+04 -1.20773E+04  1.46401E+04 -1.97704E+04  2.06422E+03 -1.34680E+04 -1.23103E+04
 -1.05786E+03 -1.75857E+04  8.98262E+03 -1.32530E+04  1.17939E+04 -1.70770E+03  4.22339E+03  7.72555E+03
 -6.94233E+03  3.36349E+03 -8.48371E+03 -7.51311E+03 -1.22860E+03 -1.66604E+04  1.12180E+04 -1.75585E+04
  2.02466E+04 -9.33244E+03  2.43765E+04  2.79870E+03  2.08106E+04  1.77387E+04  9.10932E+03  2.59263E+04
 -5.00315E+03  2.73124E+04 -1.85076E+04  1.60237E+04 -2.18099E+04  5.04877E+03 -1.33032E+04 -5.03259E+03
 -4.44001E+03 -6.50173E+03  1.31720E+03  1.88309E+03 -3.45427E+03  3.49423E+03 -6.05374E+03  4.50183E+03
 -1.32335E+04 -1.19514E+03 -1.24964E+04 -1.13261E+04 -5.79128E+03 -1.74205E+04  5.51203E+03 -1.42559E+04
  1.08629E+04 -6.30477E+03  9.74703E+03  3.67539E+03  9.21227E+02  6.11917E+03 -6.84444E+03  6.22736E+02
 -7.45575E+03 -8.86187E+03 -7.67179E+02 -1.46435E+04  8.33166E+03 -1.52955E+04  1.79315E+04 -7.93405E+03
  2.17506E+04  2.41495E+03  1.55436E+04  1.37053E+04  3.47347E+03  1.74975E+04 -8.14170E+03  1.38267E+04
 -1.21013E+04  3.86072E+03 -4.13580E+03 -2.26780E+03  3.30201E+03 -4.21443E+03  8.25770E+03 -8.66367E+02
  4.89050E+03  6.73764E+03  2.03975E+03  1.15188E+04 -6.86454E+03  1.07855E+04 -1.36882E+04  2.59385E+03
 -8.56751E+03 -7.71794E+03  2.56116E+02 -1.30373E+04  7.74562E+03 -6.45317E+03  8.17422E+03  2.15744E+03
  2.53508E+03  8.86851E+03 -5.43979E+03  9.88343E+03 -1.29507E+04  6.05651E+03 -1.32444E+04 -5.21475E+03
 -6.06025E+03 -1.41627E+04  4.36493E+03 -1.64114E+04  1.30777E+04 -1.03356E+04  1.52553E+04  3.05789E+03
  9.45277E+03  1.13766E+04 -4.20096E+01  1.38986E+04 -9.81535E+03  7.12843E+03 -1.07898E+04 -1.43507E+03
 -1.02619E+04 -1.01769E+04 -2.18903E+03 -1.09351E+04  5.23514E+03 -9.25082E+03  6.46645E+03 -4.69392E+03
  3.92844E+03 -1.71867E+02 -1.10578E+03  2.59286E+03 -1.95638E+03 -3.60594E+03  2.45330E+03 -6.28264E+03
  1.08152E+04 -3.88132E+03  1.40895E+04  3.79428E+02  1.35000E+04  7.15501E+03  8.94129E+03  1.81318E+04
 -5.33642E+03  2.09604E+04 -1.78721E+04  1.56811E+04 -2.29507E+04  1.86070E+03 -1.87225E+04 -7.95565E+03
 -8.90113E+03 -1.64337E+04  4.39957E+02 -1.35954E+04  5.15011E+03 -6.86580E+03  2.80875E+03 -5.11790E+03
  3.05962E+03 -3.10517E+03  2.55816E+03 -3.34828E+03  5.87858E+03 -4.67483E+03  6.28664E+03  6.28453E+02
  9.82364E+03  1.39776E+03  5.06998E+03  8.21545E+03 -1.77467E+03  1.03075E+04 -9.98055E+03  5.87806E+03
 -1.22675E+04 -1.49745E+03 -6.93242E+03 -8.11157E+03 -5.40232E+02 -1.30255E+04  7.90222E+03 -1.41407E+04
  1.39126E+04 -8.44583E+03  1.68468E+04  9.96873E+02  1.19538E+04  1.12160E+04  1.35993E+03  1.60011E+04
 -6.03902E+03  1.24758E+04 -8.67097E+03  3.70123E+03 -5.74316E+03 -7.75794E+02 -1.57856E+03 -2.31040E+03
 -3.28143E+02  3.08191E+02 -1.52395E+03  3.25129E+03 -5.86898E+03  2.46536E+03 -9.40788E+03 -4.94867E+01
 -5.89673E+03 -9.78972E+03 -4.33760E+02 -1.27665E+04  6.50396E+03 -1.22772E+04  1.20848E+04 -3.18227E+03
  1.39185E+04  4.88636E+03  6.59715E+03  1.18137E+04 -2.68909E+03  1.32108E+04 -8.32101E+03  7.82141E+03
 -1.18281E+04 -1.37694E+01 -8.63084E+03 -8.47670E+03 -4.26871E+02 -1.04949E+04  5.69021E+03 -6.86692E+03
  6.93149E+03 -2.34647E+03  5.59004E+03 -5.43352E+02  3.22770E+03  4.77586E+03  1.13625E+03  2.31437E+03
  2.25115E+03  1.12923E+02  3.87467E+03  2.09273E+03  4.06482E+03  4.74109E+03  4.31530E+03  5.83136E+03
 -2.19737E+03  1.10814E+04 -8.15701E+03  1.07725E+04 -1.33598E+04  2.76994E+03 -1.45872E+04 -5.03772E+03
 -5.78890E+03 -1.45940E+04  1.36377E+03 -1.36611E+04  9.30038E+03 -8.24071E+03  1.11317E+04 -2.12773E+03
  9.12677E+03  4.17746E+03  1.48830E+03  8.63931E+03 -4.44645E+03  5.09066E+03 -5.32710E+03 -5.63904E+02
 -3.30694E+03 -5.46458E+03  4.65470E+03 -5.81323E+03  5.72951E+03 -3.84008E+03  4.46611E+03  7.23330E+02
  3.14450E+03  1.82552E+03  3.47295E+03  3.78182E+03 -6.25465E+02  2.18391E+03  1.70941E+03  5.45373E+02
  1.95550E+03 -1.17992E+03  4.45339E+03  2.39195E+03  2.89406E+03  6.39810E+03 -2.54775E+02  8.96034E+03
 -4.51123E+03  5.90056E+03 -6.19355E+03  3.30856E+03 -7.48463E+03 -1.11350E+03 -2.93928E+03 -4.61403E+03
  1.04599E+03 -4.20927E+03  3.83129E+03 -2.17942E+03  3.30674E+03  3.12449E+03 -8.06381E+02  5.58766E+03
 -4.61792E+03  2.24361E+03 -5.35535E+03 -3.58064E+03 -3.92720E+03 -7.31207E+03 -1.38132E+02 -7.80832E+03
  4.80885E+03 -3.06776E+03  5.15126E+03 -8.49780E+02  5.49379E+03  2.83596E+03  1.28752E+03  1.46366E+03
 -1.73853E+03  1.50680E+03 -4.29320E+03 -1.57500E+03  1.24507E+03 -5.25130E+03  7.21237E+03 -4.22933E+03
  8.71670E+03  3.99885E+02  8.18467E+03  4.68530E+03  4.17438E+03  9.67845E+03 -2.00982E+03  8.69065E+03
 -7.00765E+03  3.33684E+03 -7.39815E+03 -7.85993E+02 -3.46171E+03 -4.18872E+03  9.27524E+02 -4.73831E+03
  4.87871E+03 -3.44838E+03  3.82375E+03  3.01160E+03  1.41608E+03  3.86755E+03  4.84069E+02  3.94090E+03
  5.17093E+02  3.28018E+03 -2.17406E+03  3.07219E+02 -2.60036E+03  1.41891E+02 -7.98370E+02  1.02492E+03
 -1.56951E+03  3.09870E+03 -5.86127E+03  2.25345E+03 -8.62730E+03  8.43002E+02 -8.74365E+03 -6.20281E+03
 -4.33060E+03 -1.07775E+04  3.04093E+03 -1.14520E+04  7.03673E+03 -9.39090E+03  1.40056E+04 -4.20899E+03
  1.03947E+04  1.70528E+03  6.75970E+03  8.00731E+03 -3.56329E+02  8.38295E+03 -2.62214E+03  6.66496E+03
 -5.74843E+03  2.47406E+03 -3.71842E+03  9.41749E+02 -9.64548E+02 -8.05848E+02 -1.68916E+02 -3.33476E+02
 -1.87844E+03  7.01030E+02 -8.94120E+02  1.08185E+03  1.09858E+03 -2.17762E+03  2.41716E+01 -4.07028E+03
  3.49999E+03 -1.98585E+03  7.42343E+03  3.40344E+02  6.45929E+03  5.42091E+03  2.33564E+03  7.79296E+03
 -2.96115E+03  8.29565E+03 -7.79640E+03  4.57158E+03 -1.06375E+04 -8.49040E+02 -8.19395E+03 -5.19050E+03
 -4.37970E+03 -8.42659E+03  1.17389E+03 -7.89674E+03  4.75104E+03 -3.95847E+03  4.86501E+03  1.62051E+02
  1.46886E+03  1.96213E+03  5.78989E+01  3.78354E+03 -2.65400E+03  3.20504E+02  3.73885E+02  4.39663E+02
  3.01220E+03 -3.48761E+02  3.24018E+03  1.22652E+03  1.65013E+03  3.97269E+03 -2.40175E+02  4.42382E+03
 -3.94604E+03  3.42474E+03 -4.74437E+03 -3.39552E+01 -6.05174E+03 -4.17717E+03 -4.35564E+02 -5.41416E+03
  3.68981E+03 -6.99506E+03  5.78304E+03 -2.51953E+03  7.13731E+03  2.05255E+03  4.10115E+03  3.92372E+03
  8.83448E+02  5.68997E+03 -1.22798E+03  5.00125E+03 -2.89616E+03  2.36492E+03 -1.86203E+03 -8.44388E+02
 -1.78017E+03 -1.45455E+03 -2.02808E+03  6.09754E+02 -3.25418E+03  1.02113E+03 -4.17033E+03 -2.52262E+03
 -3.61449E+03 -3.81604E+03 -4.42436E+01 -5.40970E+03  3.77419E+03 -7.42530E+03  5.28533E+03 -3.13422E+03
  5.31497E+03 -9.73958E+02  2.36697E+03  2.87027E+03  5.68072E+02  5.75913E+03 -5.17898E+03  2.45477E+03
