 $NMID ID='MM_0lb_SNR200_10hz_g60_1.RAW', FMTDAT='(8E13.5)'
 TRAMP=1., VOLUME=1. $END
  3.07737E+05  4.29846E+02  3.39031E+05  2.50314E+05  8.39117E+04  3.40448E+05 -1.31912E+05  2.51019E+05
 -1.90256E+05  8.40611E+04 -1.12392E+05 -3.18531E+04 -2.72419E+02 -5.13695E+04  5.30267E+04 -4.10171E+02
  3.56345E+04  5.38329E+04 -1.60960E+04  7.59728E+04 -6.16252E+04  6.41280E+04 -8.53339E+04  3.16810E+04
 -8.37686E+04 -1.14411E+04 -5.88973E+04 -5.23006E+04 -1.50672E+04 -7.17845E+04  2.94324E+04 -4.79724E+04
  4.14884E+04  2.00859E+03  1.60540E+04  4.86548E+04 -3.51323E+04  4.82826E+04 -6.84997E+04  6.22577E+02
 -5.61690E+04 -5.76555E+04 -6.05621E+03 -7.99646E+04  3.36946E+04 -5.73213E+04  4.99305E+04 -1.82609E+04
  4.48745E+04  1.13405E+04  3.47722E+04  2.71598E+04  1.65583E+04  3.01032E+04 -6.54013E+03  2.72429E+04
 -2.29585E+04  1.32394E+04 -1.86804E+04 -4.92333E+03  7.54042E+03 -8.14425E+03  2.33604E+04  1.48659E+04
  7.00149E+03  3.77680E+04 -3.36474E+04  3.73279E+04 -6.48942E+04  2.25401E+03 -5.90476E+04 -4.60435E+04
 -1.16050E+04 -6.68536E+04  4.15031E+04 -4.73943E+04  6.05469E+04 -2.28533E+03  3.63625E+04  3.44453E+04
 -4.95465E+03  3.94687E+04 -3.16067E+04  2.09607E+04 -3.31450E+04 -4.22146E+03 -1.88961E+04 -1.26739E+04
 -1.07710E+04 -1.54322E+04 -1.33818E+03 -1.84528E+04  8.03623E+03 -2.42706E+04  1.48726E+04 -1.20986E+04
  9.74516E+03  7.77764E+03 -1.05183E+04  1.24526E+04 -2.29923E+04 -8.33456E+03 -7.98406E+03 -3.69252E+04
  2.54073E+04 -4.57487E+04  5.22535E+04 -2.06209E+04  4.90981E+04  2.12788E+04  1.65808E+04  4.69676E+04
 -1.67714E+04  3.60390E+04 -2.64377E+04  1.94303E+03 -1.19102E+04 -2.84353E+04  2.15226E+04 -3.78848E+04
  4.51368E+04 -1.18056E+04  3.98456E+04  2.50500E+04  2.31936E+04  5.25040E+04 -9.48997E+03  5.69123E+04
 -3.39390E+04  3.85487E+04 -4.77715E+04  1.17195E+04 -4.82875E+04 -1.85407E+04 -2.73319E+04 -4.22660E+04
  7.82888E+03 -4.20475E+04  3.49957E+04 -1.78060E+04  3.23183E+04  1.03658E+04  4.60479E+03  2.03320E+04
 -1.54502E+04  9.95777E+03 -1.04387E+04 -7.85773E+03  3.73741E+03 -1.14057E+04  1.81576E+04  6.28118E+03
  1.50590E+04  2.29272E+04 -5.35313E+03  2.83431E+04 -2.36376E+04  1.43801E+04 -3.11856E+04 -3.49305E+03
 -2.61142E+04 -1.78717E+04 -1.24735E+04 -2.53506E+04  4.02692E+03 -2.62871E+04  1.99294E+04 -2.12232E+04
  3.21539E+04 -1.44462E+04  3.85294E+04  6.09705E+03  2.78812E+04  2.38108E+04  3.45490E+03  4.05170E+04
 -1.99261E+04  3.39639E+04 -3.03993E+04  1.17611E+04 -2.22537E+04 -9.69433E+03 -3.69833E+03 -1.26515E+04
 -1.61475E+02 -2.63190E+03 -6.34177E+03  9.01566E+03 -2.20008E+04  5.66512E+03 -1.96062E+04 -8.94561E+03
 -1.29627E+04 -2.36123E+04  5.28718E+03 -2.83229E+04  1.87925E+04 -2.05242E+04  2.15777E+04 -2.69869E+03
  1.44050E+04  1.62498E+04 -2.23490E+03  2.40647E+04 -1.61132E+04  1.41417E+04 -2.54008E+04 -6.07148E+03
 -1.69281E+04 -2.23974E+04 -3.13440E+03 -2.88220E+04  1.24798E+04 -2.31341E+04  2.32885E+04 -1.20600E+04
  2.26687E+04 -7.11253E+02  1.55785E+04  4.20965E+03  1.06291E+04 -1.75549E+02  1.25551E+04 -8.10328E+02
  2.16111E+04  2.99545E+03  2.56160E+04  1.91297E+04  1.77318E+04  3.88497E+04 -2.56781E+03  4.37553E+04
 -2.53234E+04  3.65245E+04 -4.22627E+04  2.06926E+04 -4.50141E+04 -4.54832E+03 -3.67493E+04 -2.55169E+04
 -1.52632E+04 -3.74062E+04  1.31572E+04 -3.24525E+04  2.83926E+04 -1.46912E+04  2.45176E+04  8.21739E+03
  8.62322E+03  1.95729E+04 -1.10044E+04  1.60154E+04 -2.10308E+04  2.49477E+03 -1.60612E+04 -1.37061E+04
 -5.31334E+02 -2.04900E+04  8.64057E+03 -1.51162E+04  1.37107E+04 -1.60517E+03  3.30960E+03  9.26220E+03
 -8.79170E+03  5.04915E+03 -9.54859E+03 -5.58601E+03 -1.96195E+03 -1.71583E+04  1.30785E+04 -2.01270E+04
  2.29079E+04 -1.14950E+04  2.57757E+04  1.50844E+03  2.44705E+04  1.75595E+04  1.15895E+04  2.93117E+04
 -4.29229E+03  3.12586E+04 -2.15735E+04  1.90788E+04 -2.21308E+04  2.68365E+03 -1.59333E+04 -5.29777E+03
 -7.54212E+03 -7.51012E+03 -7.08607E+01  3.86777E+02 -2.92464E+03  3.90588E+03 -7.39720E+03  5.68383E+03
 -1.36205E+04 -6.56142E+02 -1.37015E+04 -1.22599E+04 -5.81889E+03 -1.89348E+04  7.60644E+03 -1.55651E+04
  1.33451E+04 -5.40540E+03  8.80785E+03  4.24111E+03 -4.36324E+02  6.15751E+03 -9.39343E+03  5.29421E+01
 -6.35627E+03 -9.60532E+03 -1.48922E+03 -1.54005E+04  7.74516E+03 -1.50564E+04  2.01157E+04 -8.79154E+03
  2.31717E+04  2.42920E+03  1.62671E+04  1.43881E+04  3.55925E+03  1.82377E+04 -9.36792E+03  1.62988E+04
 -1.40949E+04  4.93306E+03 -5.95217E+03 -3.39684E+03  1.98739E+03 -4.85949E+03  6.38431E+03 -1.08200E+03
  9.75474E+03  7.92082E+03  2.16691E+03  1.22789E+04 -9.69359E+03  1.15731E+04 -1.62541E+04  4.51208E+03
 -1.03710E+04 -7.62031E+03  5.22368E+02 -1.34864E+04  7.72676E+03 -7.35373E+03  9.83281E+03  2.50421E+03
  1.89860E+03  1.02148E+04 -8.45706E+03  1.18576E+04 -1.48368E+04  4.60295E+03 -1.20291E+04 -4.25336E+03
 -8.47835E+03 -1.51096E+04  2.87837E+03 -1.70074E+04  1.66372E+04 -1.12420E+04  1.46309E+04  1.68979E+03
  8.83957E+03  1.25787E+04 -2.75851E+03  1.61399E+04 -1.13626E+04  8.87503E+03 -1.29014E+04 -1.15376E+03
 -9.80266E+03 -1.12825E+04 -9.54689E+02 -1.16108E+04  6.29322E+03 -9.92438E+03  8.00096E+03 -2.86926E+03
  4.88729E+03  1.40951E+03 -1.36060E+03  1.91427E+03  8.05616E+01 -1.20031E+03  1.34162E+03 -4.83684E+03
  1.12022E+04 -4.07872E+03  1.63121E+04  2.33551E+03  1.46493E+04  1.04459E+04  1.03572E+04  2.13427E+04
 -4.64875E+03  2.36164E+04 -1.82848E+04  1.80099E+04 -2.53481E+04  3.08322E+03 -2.07643E+04 -8.65293E+03
 -1.05554E+04 -1.72251E+04  6.80191E+02 -1.48261E+04  5.37072E+03 -8.28043E+03  3.86550E+03 -6.24143E+03
  3.73307E+03 -3.09330E+03  3.94258E+03 -4.36141E+03  5.33410E+03 -3.86179E+03  6.85332E+03 -1.12472E+03
  9.96873E+03  5.79218E+02  4.40273E+03  1.00714E+04 -8.72894E+02  1.17712E+04 -1.18486E+04  8.09576E+03
 -1.44954E+04 -3.14599E+02 -1.06180E+04 -1.01384E+04 -9.81988E+02 -1.47730E+04  8.84373E+03 -1.54523E+04
  1.71239E+04 -8.37962E+03  1.98740E+04  2.59132E+03  1.29890E+04  1.20489E+04 -2.42634E+01  1.67899E+04
 -8.22465E+03  1.39869E+04 -1.16124E+04  4.67370E+03 -6.66773E+03 -2.29769E+03 -4.26140E+03 -2.50935E+03
 -2.21946E+03  7.46525E+01 -2.16132E+03  3.45141E+03 -4.21022E+03  2.12338E+03 -8.31942E+03  1.87517E+02
 -7.88772E+03 -8.70433E+03 -5.50702E+02 -1.24907E+04  8.53635E+03 -1.28512E+04  1.44040E+04 -3.90391E+03
  1.45705E+04  7.21321E+03  6.05395E+03  1.40790E+04 -2.95498E+03  1.42677E+04 -9.58385E+03  9.03061E+03
 -1.43464E+04  2.73724E+02 -1.17577E+04 -8.48939E+03 -1.38015E+03 -1.25114E+04  6.78761E+03 -9.87044E+03
  9.58987E+03 -1.99391E+03  7.16445E+03  3.55453E+03  2.39730E+03  4.77252E+03 -1.11298E+02  1.80756E+03
  3.78408E+03  2.20773E+03  3.41387E+03  2.79356E+03  5.32685E+03  4.98946E+03  4.10336E+03  6.37613E+03
 -2.95821E+03  9.07138E+03 -9.65087E+03  1.01354E+04 -1.50242E+04  2.16090E+03 -1.41226E+04 -7.25457E+03
 -7.30702E+03 -1.45993E+04  2.34300E+03 -1.63183E+04  8.39365E+03 -1.09646E+04  1.20557E+04 -3.16078E+03
  8.44238E+03  5.73682E+03  2.04126E+03  7.72529E+03 -4.82596E+03  6.13113E+03 -6.05903E+03 -1.14402E+03
 -3.07645E+03 -5.73426E+03  2.17976E+03 -5.09771E+03  5.95032E+03 -2.39740E+03  5.41184E+03  1.80450E+03
  3.09184E+03  4.80116E+03  8.07670E+02  1.11768E+03 -1.33252E+03  2.15408E+03  5.99471E+02 -6.74981E+02
  1.90284E+03  2.37502E+02  6.21445E+03  2.10932E+03  4.25342E+03  6.30643E+03 -6.30100E+02  9.62948E+03
 -7.65975E+03  7.20014E+03 -8.33115E+03 -4.30905E+02 -9.82781E+03 -2.84535E+03 -4.13938E+03 -5.55713E+03
  1.88918E+03 -7.27158E+03  4.62950E+03 -3.56370E+03  1.78013E+03  2.24255E+03 -4.15651E+02  5.40059E+03
 -5.49730E+03  4.54196E+03 -7.49454E+03 -2.56857E+03 -4.54283E+03 -8.19514E+03  1.53933E+03 -6.18667E+03
  4.88855E+03 -4.24946E+03  6.48548E+03 -1.29652E+03  6.29937E+03  3.14167E+03  2.30473E+02  2.75083E+03
 -3.34334E+03  5.37474E+02 -3.03129E+03 -2.83795E+03  1.98029E+03 -6.21519E+03  8.29277E+03 -4.32120E+03
  9.87250E+03  1.79833E+03  7.62735E+03  5.50305E+03  3.38519E+03  8.63907E+03 -2.74893E+03  8.27352E+03
 -8.23583E+03  4.27142E+03 -6.88268E+03 -2.28043E+03 -4.98301E+03 -5.68191E+03  1.42256E+03 -3.52842E+03
  5.15169E+03 -2.18705E+03  4.29640E+03  1.26692E+03  5.80020E+02  5.86821E+03 -2.54974E+02  6.60502E+03
 -3.28431E+03  4.08651E+03 -2.74489E+03  1.00122E+03  6.02144E+01  7.09039E+02 -2.09221E+03  2.96648E+03
 -1.26817E+03  4.18058E+03 -7.76110E+03  2.62767E+03 -1.04310E+04  3.55970E+02 -1.04686E+04 -7.23777E+03
 -5.30332E+03 -1.10186E+04  1.89989E+03 -1.24003E+04  6.37334E+03 -1.09471E+04  1.40671E+04 -3.19020E+03
  1.34036E+04  1.63494E+03  6.57161E+03  9.25614E+03  4.49620E+02  8.59961E+03 -4.23282E+03  8.24456E+03
 -4.41779E+03  2.53467E+03 -3.04880E+03 -7.65100E+02 -2.55546E+03 -8.98796E+02 -1.01178E+03  5.11352E+02
 -3.85979E+02 -7.31818E+02 -5.94020E+02  8.12663E+02 -1.94096E+03 -1.48166E+03  2.41769E+03 -3.84884E+03
  3.04457E+03 -3.38329E+03  5.23466E+03  1.30364E+03  5.98336E+03  5.63820E+03  2.12960E+03  9.76155E+03
 -4.39627E+03  9.47317E+03 -9.66272E+03  7.24064E+03 -1.12864E+04 -2.67101E+02 -8.04117E+03 -8.52566E+03
 -4.10003E+03 -8.37877E+03  1.97450E+03 -8.90047E+03  5.50141E+03 -4.34326E+03  5.47084E+03  9.97516E+02
  4.19279E+03  2.37751E+03 -7.42315E+02  3.84207E+03 -1.77072E+03  1.60958E+02  4.44876E+02 -1.05682E+03
  2.95402E+03 -5.32232E+02  4.34392E+03  2.46069E+03  4.34658E+03  3.45429E+03  1.92694E+02  4.34351E+03
 -3.37089E+03  4.84925E+03 -5.33521E+03  1.39785E+03 -4.88793E+03 -5.28346E+03 -3.65184E+02 -7.82471E+03
  3.33206E+03 -6.51673E+03  7.33369E+03 -1.73616E+03  6.32328E+03  1.18808E+03  3.03799E+03  5.89948E+03
  1.42119E+03  6.17425E+03 -3.05993E+03  4.39836E+03 -3.40951E+03  4.02601E+03 -3.69960E+03  1.78968E+03
 -6.32990E+02 -2.24079E+02 -2.68548E+03  1.56795E+03 -2.42110E+03  2.25335E+02 -4.94394E+03 -7.01928E+02
 -3.95694E+03 -3.07653E+03 -1.19313E+03 -5.27199E+03  2.72260E+03 -6.39202E+03  5.05763E+03 -2.85041E+03
  4.60267E+03  2.75909E+02  3.27788E+03  4.24839E+03 -9.52335E+02  4.99230E+03 -3.50352E+03  3.39656E+03
