 $NMID ID='MM_0lb_SNR200_8hz_g60_53.RAW', FMTDAT='(8E13.5)'
 TRAMP=1., VOLUME=1. $END
  3.10100E+05 -8.53774E+02  3.38223E+05  2.49584E+05  8.44627E+04  3.38394E+05 -1.35269E+05  2.52671E+05
 -1.90145E+05  8.41272E+04 -1.13224E+05 -3.28523E+04 -1.30597E+03 -5.05606E+04  5.41030E+04  5.99418E+02
  3.54002E+04  5.38798E+04 -1.66597E+04  7.65623E+04 -6.19463E+04  6.43050E+04 -8.48869E+04  3.25465E+04
 -8.21378E+04 -1.26051E+04 -5.71919E+04 -5.36916E+04 -1.71775E+04 -7.07992E+04  2.97670E+04 -4.63061E+04
  4.20005E+04  4.59810E+03  1.82385E+04  4.84892E+04 -3.36331E+04  4.76858E+04 -6.93401E+04  1.79498E+02
 -5.43149E+04 -5.80286E+04 -8.30107E+03 -7.98570E+04  3.66396E+04 -5.76210E+04  5.07423E+04 -1.78192E+04
  4.69197E+04  1.10899E+04  3.16434E+04  2.67446E+04  1.68387E+04  3.14582E+04 -6.15987E+03  2.86342E+04
 -2.24900E+04  1.15261E+04 -1.80861E+04 -5.43208E+03  7.02668E+03 -5.70350E+03  2.45059E+04  1.50327E+04
  5.91002E+03  3.80658E+04 -3.37745E+04  3.64876E+04 -6.80804E+04  1.77911E+03 -5.93139E+04 -4.52008E+04
 -1.35449E+04 -6.61118E+04  4.31613E+04 -4.87720E+04  6.31862E+04 -4.63875E+03  3.80842E+04  3.53273E+04
 -3.64731E+03  4.08381E+04 -3.20614E+04  1.98833E+04 -3.34999E+04 -2.99424E+03 -2.08831E+04 -1.06933E+04
 -9.76517E+03 -1.52309E+04 -1.55376E+03 -2.00923E+04  8.51980E+03 -2.39061E+04  1.67215E+04 -1.53768E+04
  1.09998E+04  6.08017E+03 -1.01008E+04  1.25189E+04 -2.34266E+04 -7.89573E+03 -8.55687E+03 -3.80150E+04
  2.55752E+04 -4.80098E+04  5.44788E+04 -2.19872E+04  5.01219E+04  2.09416E+04  2.01687E+04  4.75445E+04
 -1.74638E+04  3.80788E+04 -2.66173E+04  4.23685E+03 -1.25533E+04 -2.87430E+04  1.92243E+04 -3.79370E+04
  4.70203E+04 -1.19115E+04  4.12618E+04  2.45184E+04  2.37184E+04  5.22130E+04 -8.20840E+03  5.85350E+04
 -3.95828E+04  4.07011E+04 -5.02848E+04  1.29062E+04 -5.30019E+04 -2.00588E+04 -2.63997E+04 -4.35542E+04
  9.64566E+03 -4.28376E+04  3.63366E+04 -1.81669E+04  3.22061E+04  1.20679E+04  5.77081E+03  2.02038E+04
 -1.22409E+04  9.30428E+03 -1.10474E+04 -7.48366E+03  5.74179E+03 -1.20781E+04  1.96073E+04  6.56793E+03
  1.71514E+04  2.15409E+04 -5.30976E+03  2.75242E+04 -2.31007E+04  1.50804E+04 -3.30829E+04  5.90516E+02
 -2.79525E+04 -1.89026E+04 -1.22248E+04 -2.87232E+04  4.19586E+03 -2.90950E+04  2.22213E+04 -2.56859E+04
  3.36299E+04 -1.53719E+04  4.02061E+04  5.23122E+03  2.82357E+04  2.64009E+04  4.50104E+03  4.31972E+04
 -2.03632E+04  3.64253E+04 -3.09236E+04  1.22828E+04 -2.20782E+04 -1.04322E+04 -5.36352E+03 -1.29850E+04
  8.28121E+02 -1.34634E+02 -8.56335E+03  9.48215E+03 -2.23085E+04  4.43082E+03 -2.08583E+04 -9.94981E+03
 -1.34341E+04 -2.43623E+04  7.66118E+03 -2.74048E+04  2.04377E+04 -2.41749E+04  2.46777E+04 -3.39905E+03
  1.49894E+04  1.55872E+04 -1.86195E+03  2.55273E+04 -1.88221E+04  1.24862E+04 -2.55520E+04 -4.09122E+03
 -1.98280E+04 -2.22230E+04 -3.38028E+03 -2.94862E+04  1.43476E+04 -2.61088E+04  2.53527E+04 -1.35466E+04
  2.33633E+04 -2.09720E+03  1.94779E+04  5.90995E+03  8.08385E+03  1.68493E+03  1.32835E+04 -1.66817E+03
  2.41398E+04  3.76504E+03  2.80085E+04  1.79127E+04  2.00131E+04  4.07922E+04 -2.41122E+03  4.70349E+04
 -2.70007E+04  4.24728E+04 -4.69890E+04  2.17149E+04 -4.98629E+04 -3.48458E+03 -3.88929E+04 -2.92162E+04
 -1.48604E+04 -4.27500E+04  1.56629E+04 -3.64657E+04  3.10624E+04 -1.53016E+04  2.57001E+04  1.04025E+04
  8.96006E+03  1.85539E+04 -1.27371E+04  1.64133E+04 -2.19022E+04  2.34980E+03 -1.48645E+04 -1.38122E+04
  1.39278E+03 -2.07653E+04  1.22335E+04 -1.68844E+04  1.51432E+04 -8.57215E+02  2.67276E+03  9.58004E+03
 -1.10270E+04  3.72848E+03 -8.76220E+03 -7.11222E+03 -2.72651E+03 -1.92303E+04  1.53052E+04 -2.25081E+04
  2.64933E+04 -1.27211E+04  2.77805E+04  2.23842E+03  2.51935E+04  2.11611E+04  1.17234E+04  3.25363E+04
 -6.39553E+03  3.51244E+04 -2.19749E+04  2.04519E+04 -2.67509E+04  5.50397E+03 -1.78760E+04 -7.46078E+03
 -7.43191E+03 -9.85642E+03 -1.61636E+03  2.48343E+03 -3.56386E+03  2.66459E+03 -7.17595E+03  6.06429E+03
 -1.37785E+04 -2.21829E+03 -1.49375E+04 -1.03404E+04 -5.88819E+03 -2.05897E+04  6.26752E+03 -1.80473E+04
  1.17695E+04 -7.57805E+03  9.50303E+03  5.61350E+03 -1.05556E+03  7.18591E+03 -1.02706E+04  1.61300E+03
 -8.14267E+03 -1.07254E+04  1.30676E+02 -1.79652E+04  1.00713E+04 -1.83554E+04  2.40907E+04 -9.43684E+03
  2.71855E+04  2.48317E+03  2.06114E+04  1.63572E+04  4.20879E+03  2.11359E+04 -1.19564E+04  1.76954E+04
 -1.36712E+04  5.24414E+03 -6.61888E+03 -4.90241E+03  3.57463E+03 -3.32098E+03  9.47977E+03 -6.69670E+02
  7.63041E+03  7.77441E+03  1.02113E+03  1.54860E+04 -1.11754E+04  1.18870E+04 -1.84555E+04  2.23892E+03
 -1.15121E+04 -8.24375E+03  6.71619E+02 -1.52321E+04  7.91242E+03 -6.40777E+03  9.80980E+03  5.37725E+03
  1.92496E+03  1.22681E+04 -9.90429E+03  1.26638E+04 -1.53683E+04  7.12170E+03 -1.66548E+04 -7.21868E+03
 -8.22345E+03 -1.81418E+04  5.95024E+03 -2.26091E+04  1.78589E+04 -1.29901E+04  1.92152E+04  2.84863E+03
  1.16266E+04  1.54261E+04 -2.76305E+03  1.82209E+04 -1.53638E+04  1.03108E+04 -1.53703E+04  1.25365E+02
 -1.20367E+04 -1.22319E+04 -3.21011E+03 -1.50107E+04  6.24574E+03 -9.27694E+03  8.36259E+03 -3.02424E+03
  7.08074E+03  2.52371E+03 -2.73883E+03  2.24879E+03 -7.84311E+02 -4.49562E+03  3.75118E+03 -1.00476E+04
  1.39146E+04 -5.10293E+03  1.91684E+04  2.41080E+03  1.94007E+04  1.31496E+04  1.15738E+04  2.37741E+04
 -5.60906E+03  2.64576E+04 -2.09922E+04  2.22262E+04 -3.08940E+04  4.99115E+03 -2.53002E+04 -1.00768E+04
 -1.15467E+04 -2.00748E+04  1.32789E+03 -1.97780E+04  7.13290E+03 -1.05334E+04  4.72277E+03 -5.65631E+03
  6.93665E+03 -3.79240E+03  5.54416E+03 -5.46792E+03  6.72891E+03 -4.29673E+03  9.21405E+03 -2.31211E+03
  1.08098E+04  2.44060E+03  6.34936E+03  1.29192E+04 -8.89723E+02  1.25394E+04 -1.59517E+04  9.81050E+03
 -1.78737E+04 -3.00649E+03 -1.13425E+04 -1.19388E+04 -1.24453E+03 -1.75720E+04  1.12021E+04 -1.97060E+04
  1.79561E+04 -1.20422E+04  2.25964E+04  4.10651E+03  1.58717E+04  1.78561E+04  2.37507E+03  2.07040E+04
 -1.02063E+04  1.73783E+04 -1.39961E+04  6.85069E+03 -8.55570E+03 -2.58775E+03 -4.24745E+03 -1.65841E+03
 -1.34413E+03 -1.83741E+03 -1.96342E+03  2.73457E+03 -7.65475E+03  3.08846E+03 -1.07732E+04 -2.03280E+03
 -8.78448E+03 -1.46201E+04  4.93953E+02 -1.77806E+04  1.23269E+04 -1.43843E+04  1.77855E+04 -4.87800E+03
  1.71612E+04  8.72067E+03  8.37286E+03  1.68611E+04 -4.07697E+03  1.92759E+04 -1.38998E+04  1.03604E+04
 -1.82186E+04 -4.01417E+02 -1.32382E+04 -1.10762E+04 -1.90540E+03 -1.52114E+04  9.18979E+03 -1.16730E+04
  1.10059E+04 -4.23434E+03  8.38059E+03  2.05758E+03  3.07863E+03  5.07538E+03  3.41849E+03  1.58959E+03
  3.59344E+03  1.62334E+03  2.41666E+03  1.98145E+03  5.69067E+03  6.16327E+03  4.85775E+03  1.19411E+04
 -2.33099E+03  1.40602E+04 -1.24613E+04  1.37939E+04 -2.03345E+04  3.99071E+03 -1.97561E+04 -8.13117E+03
 -9.94578E+03 -1.83464E+04  2.97288E+03 -1.97335E+04  1.22494E+04 -1.33425E+04  1.48326E+04 -3.57904E+03
  1.17885E+04  7.18861E+03  4.54648E+03  1.04041E+04 -6.61860E+03  7.58312E+03 -7.13002E+03 -2.18417E+03
 -5.98172E+03 -7.51681E+03  4.80369E+03 -7.73185E+03  8.63870E+03 -4.82366E+03  8.88102E+03  4.80090E+02
  2.75695E+03  5.80614E+03  1.77407E+03  4.15633E+03  3.39675E+02  1.79463E+03  6.30581E+02  1.37257E+02
  4.45290E+03 -2.56558E+02  8.34344E+03  3.60758E+03  5.37212E+03  8.05556E+03 -3.40359E+03  1.17639E+04
 -9.16464E+03  9.44230E+03 -1.21077E+04  3.77579E+03 -1.04725E+04 -5.48498E+03 -4.66158E+03 -7.56280E+03
 -8.65845E+02 -6.73046E+03  5.24065E+03 -1.46010E+03  5.95490E+03  3.65903E+03 -1.81274E+03  5.93350E+03
 -8.64556E+03  3.34837E+03 -8.86951E+03 -5.11642E+03 -3.86970E+03 -1.09473E+04  1.35058E+03 -1.00139E+04
  5.00646E+03 -7.21183E+03  9.29430E+03 -7.04182E+02  5.81102E+03  3.84959E+03  9.19349E+02  5.83557E+03
 -5.79458E+03  1.43984E+03 -5.41994E+03 -4.43810E+03  6.38551E+02 -9.85410E+03  8.78445E+03 -6.46812E+03
  1.18540E+04 -2.60820E+02  1.22281E+04  8.98748E+03  2.69811E+03  1.28363E+04 -5.15229E+03  1.13726E+04
 -9.90697E+03  4.67821E+03 -1.19018E+04  5.59339E+02 -7.82531E+03 -1.01017E+04  1.14004E+03 -8.00205E+03
  7.53787E+03 -3.85798E+03  7.05807E+03  3.22209E+03  3.82161E+03  6.54980E+03 -2.43835E+03  7.32131E+03
 -3.03819E+03  5.27281E+03 -2.68511E+03  2.48879E+03 -2.67736E+03  1.52625E+03 -2.66488E+03  2.17448E+03
 -3.54008E+03  3.07842E+03 -9.31325E+03  5.02110E+03 -1.41911E+04 -1.72376E+03 -1.37568E+04 -9.10027E+03
 -7.21565E+03 -1.56454E+04  5.18493E+03 -2.01820E+04  1.24416E+04 -1.36787E+04  1.85138E+04 -6.93111E+03
  1.77050E+04  4.64378E+03  9.47492E+03  1.09989E+04  6.71790E+02  1.44288E+04 -4.68021E+03  8.67200E+03
 -8.56337E+03  4.40266E+03 -4.83363E+03 -2.07920E+02 -1.61934E+03 -3.03030E+03 -4.45329E+02  2.64773E+02
 -3.19867E+03  1.78507E+02 -2.85731E+03 -7.73223E+02 -2.80018E+03 -2.67070E+03  2.23428E+03 -3.90185E+03
  8.89807E+03 -3.20332E+03  5.85228E+03  8.11249E+02  8.19388E+03  7.44459E+03  2.59590E+03  1.19397E+04
 -6.86464E+03  1.73905E+04 -1.52059E+04  7.93204E+03 -1.69122E+04 -3.39665E+03 -1.18568E+04 -1.06424E+04
 -7.12722E+03 -1.10392E+04  4.14509E+03 -1.57773E+04  6.90268E+03 -7.15842E+03  9.83940E+03 -1.05874E+03
  4.69563E+03  4.12624E+03 -2.52505E+02  3.79861E+03 -4.23850E+03  1.21816E+02  1.91830E+02 -3.81042E+03
  4.26191E+03 -2.36646E+03  5.25496E+03 -6.80296E+02  2.86265E+03  6.30973E+03  1.15471E+03  7.64902E+03
 -5.93634E+03  4.87570E+03 -9.92403E+03  1.52233E+03 -9.15209E+03 -6.36128E+03 -1.74015E+03 -1.36172E+04
  7.78325E+03 -9.46899E+03  1.01844E+04 -3.56775E+03  9.95018E+03  2.60840E+03  6.32408E+03  7.59926E+03
  5.79257E+02  7.92621E+03 -3.76809E+03  9.00169E+03 -3.83710E+03  4.18823E+03 -6.18318E+03 -7.44800E+02
 -1.77895E+03 -7.12164E+02 -1.99338E+03  1.12921E+03 -4.77442E+03  4.45794E+02 -8.59174E+03 -1.53187E+03
 -5.53598E+03 -6.29304E+03 -1.03667E+03 -8.69927E+03  3.37259E+03 -9.17352E+03  9.04550E+03 -5.12482E+03
  9.17988E+03 -2.78779E+02  5.84106E+03  6.59738E+03 -1.42081E+03  9.83078E+03 -7.50129E+03  6.98241E+03
