 $NMID ID='MM_0lb_SNR200_12hz_g40_47.RAW', FMTDAT='(8E13.5)'
 TRAMP=1., VOLUME=1. $END
  3.10519E+05  2.04525E+03  3.36488E+05  2.51516E+05  8.43008E+04  3.38836E+05 -1.32831E+05  2.49804E+05
 -1.91005E+05  8.34444E+04 -1.11913E+05 -3.38602E+04  1.52493E+03 -5.05945E+04  5.22564E+04 -4.49476E+01
  3.39275E+04  5.28787E+04 -1.73730E+04  7.68294E+04 -6.10642E+04  6.36735E+04 -8.38632E+04  3.23708E+04
 -8.25785E+04 -1.14119E+04 -5.77652E+04 -5.13219E+04 -1.49082E+04 -6.92491E+04  2.87965E+04 -4.67698E+04
  4.09015E+04  3.32357E+03  1.62130E+04  4.69124E+04 -3.40259E+04  4.67540E+04 -6.68585E+04 -2.43775E+02
 -5.43625E+04 -5.73277E+04 -6.81436E+03 -7.67471E+04  3.27150E+04 -5.62005E+04  4.98957E+04 -1.63778E+04
  4.42826E+04  1.12398E+04  3.27771E+04  2.59127E+04  1.66423E+04  2.94904E+04 -5.53483E+03  2.67271E+04
 -2.26835E+04  1.31913E+04 -1.78046E+04 -4.34771E+03  7.07293E+03 -7.39403E+03  2.33701E+04  1.25933E+04
  7.86998E+03  3.49975E+04 -3.20716E+04  3.67900E+04 -6.39392E+04  1.76389E+03 -5.78364E+04 -4.26508E+04
 -1.27228E+04 -6.48415E+04  3.96565E+04 -4.65447E+04  5.79589E+04 -1.76801E+03  3.41982E+04  3.25683E+04
 -5.13398E+03  3.67607E+04 -3.06852E+04  1.46199E+04 -3.07183E+04 -4.42591E+03 -1.61215E+04 -1.04178E+04
 -8.14950E+03 -1.39633E+04 -1.05878E+03 -1.80671E+04  7.05093E+03 -2.13038E+04  1.67952E+04 -1.37526E+04
  1.14454E+04  6.22692E+03 -8.58959E+03  1.35175E+04 -2.11251E+04 -4.70008E+03 -7.78568E+03 -3.41908E+04
  2.34460E+04 -4.30819E+04  4.95386E+04 -1.97783E+04  4.60140E+04  1.93878E+04  1.53839E+04  4.51408E+04
 -1.78489E+04  3.43006E+04 -2.50093E+04  2.52006E+03 -1.04291E+04 -2.72675E+04  2.07917E+04 -3.27928E+04
  4.18697E+04 -9.54168E+03  3.85841E+04  2.42106E+04  1.85363E+04  4.80446E+04 -7.16756E+03  5.21257E+04
 -3.22759E+04  3.49162E+04 -4.27898E+04  1.01860E+04 -4.26514E+04 -1.71285E+04 -2.41070E+04 -3.77799E+04
  7.93037E+03 -3.86877E+04  3.27347E+04 -1.58472E+04  3.24194E+04  1.10174E+04  3.42008E+03  1.98317E+04
 -1.41094E+04  9.37153E+03 -1.00346E+04 -7.79500E+03  5.62099E+03 -9.72637E+03  1.86065E+04  7.89893E+03
  1.37136E+04  2.29761E+04 -6.43494E+03  2.49348E+04 -2.23380E+04  1.18476E+04 -2.95350E+04 -3.42961E+03
 -2.17869E+04 -1.81867E+04 -8.82299E+03 -1.94159E+04  4.90759E+03 -1.97524E+04  1.71447E+04 -1.81790E+04
  2.70924E+04 -1.28664E+04  3.29694E+04  2.70575E+03  2.36037E+04  2.07808E+04  4.22342E+03  3.72325E+04
 -1.72456E+04  3.05857E+04 -2.84011E+04  1.04736E+04 -2.18618E+04 -1.04962E+04 -3.02854E+03 -1.18932E+04
  1.84175E+03 -3.84456E+03 -4.84624E+03  5.78822E+03 -1.64245E+04  4.30368E+03 -1.65607E+04 -7.20032E+03
 -9.44631E+03 -2.06417E+04  3.59522E+03 -2.42163E+04  1.64843E+04 -1.82086E+04  1.90907E+04 -1.28624E+03
  1.23521E+04  1.39000E+04 -1.56405E+03  2.00487E+04 -1.41289E+04  1.15677E+04 -1.86994E+04 -4.82622E+03
 -1.45442E+04 -1.85281E+04 -2.29301E+03 -2.42898E+04  1.04420E+04 -1.89081E+04  2.11248E+04 -1.01958E+04
  1.90695E+04 -1.54484E+02  1.29949E+04  5.22522E+03  7.00286E+03  1.19516E+03  9.73860E+03 -1.33384E+03
  1.83966E+04  2.92078E+03  2.06858E+04  1.58949E+04  1.34991E+04  3.19751E+04 -2.67711E+03  3.75537E+04
 -2.14652E+04  2.93846E+04 -3.40423E+04  1.49832E+04 -3.50791E+04 -1.23283E+03 -2.87763E+04 -2.11245E+04
 -1.30754E+04 -3.03970E+04  1.13428E+04 -2.66524E+04  2.23606E+04 -1.24798E+04  1.85947E+04  6.13033E+03
  7.85006E+03  1.55132E+04 -8.65733E+03  1.33913E+04 -1.59309E+04  1.46240E+03 -1.24225E+04 -1.11422E+04
 -5.60853E+02 -1.62144E+04  9.00392E+03 -1.24295E+04  1.07209E+04 -1.81703E+03  1.56389E+03  7.68191E+03
 -7.17382E+03  2.64988E+03 -7.52509E+03 -5.09856E+03 -1.32747E+03 -1.31508E+04  9.28090E+03 -1.59381E+04
  1.76303E+04 -7.43447E+03  1.80775E+04  2.48077E+03  1.65938E+04  1.39308E+04  8.26623E+03  2.39252E+04
 -3.84903E+03  2.44308E+04 -1.48719E+04  1.51238E+04 -1.67739E+04  2.50664E+03 -1.17179E+04 -2.98530E+03
 -5.62642E+03 -5.48041E+03 -4.12767E+02 -2.30301E+02 -2.90594E+03  1.83678E+03 -6.18270E+03  5.57805E+03
 -1.05544E+04 -1.74908E+03 -1.17531E+04 -9.52037E+03 -5.43786E+03 -1.63837E+04  3.47459E+03 -1.38892E+04
  1.07204E+04 -4.54074E+03  8.46403E+03  2.53263E+03 -6.29680E+02  4.99238E+03 -6.12440E+03 -8.53462E+02
 -5.14275E+03 -8.16819E+03 -8.87338E+02 -1.15091E+04  4.89179E+03 -1.29142E+04  1.47495E+04 -6.32330E+03
  1.85723E+04  1.52728E+03  1.55524E+04  1.08399E+04  2.80602E+03  1.48302E+04 -8.10935E+03  1.26755E+04
 -1.05603E+04  3.31689E+03 -4.32713E+03 -3.52386E+03  3.16962E+03 -1.55923E+03  6.77766E+03 -3.04619E+02
  6.79982E+03  6.85796E+03  6.93696E+02  9.91075E+03 -7.08841E+03  9.78719E+03 -1.26336E+04  3.05030E+03
 -9.40547E+03 -5.23902E+03  7.01994E+02 -9.97462E+03  5.28865E+03 -5.25661E+03  6.32187E+03  3.06631E+03
  9.56376E+02  6.26901E+03 -6.29074E+03  8.10758E+03 -1.03398E+04  3.32903E+03 -1.04777E+04 -3.59372E+03
 -5.93517E+03 -1.12620E+04  2.00817E+03 -1.16291E+04  9.18948E+03 -7.63408E+03  1.20376E+04  2.27556E+03
  8.12556E+03  9.22176E+03 -1.93845E+03  1.21122E+04 -8.82624E+03  6.85164E+03 -1.06277E+04 -7.84078E+02
 -6.00867E+03 -8.20422E+03 -8.19557E+02 -9.98616E+03  4.57285E+03 -8.20248E+03  5.73786E+03 -3.22408E+03
  3.49484E+03  1.25827E+03 -1.25435E+03  2.12778E+03  2.66942E+02 -2.11857E+03  1.05014E+03 -5.78874E+03
  7.99978E+03 -3.14770E+03  1.12399E+04  8.09687E+02  1.10291E+04  6.26455E+03  7.62596E+03  1.37716E+04
 -3.25224E+03  1.65468E+04 -1.36123E+04  1.26393E+04 -1.88887E+04  2.10825E+03 -1.55610E+04 -5.99831E+03
 -7.78699E+03 -1.25028E+04  1.30668E+03 -9.53121E+03  2.79041E+03 -5.14773E+03  3.59848E+03 -4.52553E+03
  2.80110E+03 -2.30405E+03  1.89690E+03 -3.15526E+03  4.04972E+03 -1.20273E+03  5.56936E+03 -8.43991E+02
  8.27424E+03  1.96873E+03  3.54612E+03  6.93265E+03 -1.99992E+03  7.82496E+03 -7.03312E+03  4.88562E+03
 -9.65541E+03 -1.33040E+03 -5.91990E+03 -7.06603E+03 -1.69796E+03 -1.00948E+04  7.12894E+03 -1.20890E+04
  1.01958E+04 -6.76101E+03  1.24968E+04  1.71930E+03  8.50969E+03  9.61298E+03  2.16661E+02  1.20595E+04
 -5.27100E+03  1.12991E+04 -6.49708E+03  2.59663E+03 -4.50728E+03 -1.50007E+03 -2.54905E+03 -2.22894E+03
 -2.02877E+03 -9.14106E+02 -1.51316E+03  3.25161E+03 -5.48306E+03  2.29922E+03 -6.96614E+03  2.35240E+02
 -4.47540E+03 -6.45601E+03  6.09619E+02 -9.31881E+03  5.62803E+03 -8.48304E+03  9.02257E+03 -2.27707E+03
  1.05863E+04  4.89539E+03  2.65202E+03  8.60955E+03 -2.40247E+03  9.67711E+03 -7.19413E+03  5.70002E+03
 -8.73628E+03  7.74958E+02 -6.25002E+03 -5.67207E+03 -1.57537E+03 -8.22220E+03  4.66140E+03 -5.58729E+03
  7.21244E+03 -2.66362E+03  2.78085E+03  1.14359E+03  1.26168E+03  3.07386E+03  6.54932E+02  1.20651E+03
  2.43134E+03 -4.12313E+02  1.68977E+03  1.72690E+03  2.68128E+03  3.76653E+03  3.02065E+03  4.69809E+03
 -2.31111E+03  7.52098E+03 -6.34579E+03  9.03233E+03 -9.03651E+03  1.64651E+03 -1.10736E+04 -3.36009E+03
 -4.52361E+03 -9.27147E+03  1.84793E+02 -1.04137E+04  7.07693E+03 -4.94325E+03  7.73857E+03 -1.51395E+03
  5.88024E+03  2.70134E+03  1.04620E+03  5.43977E+03 -3.41269E+03  3.47093E+03 -3.60139E+03 -9.39878E+02
 -1.61461E+03 -4.71943E+03  2.54104E+03 -5.20622E+03  4.19989E+03 -1.85763E+03  4.04387E+03  2.25933E+03
  2.65701E+03  2.46221E+03  1.06905E+03  1.32357E+03 -1.70591E+02  1.01962E+03  2.23862E+03  3.79296E+02
  3.62910E+02 -3.04804E+02  4.16660E+03  1.85548E+03  2.94775E+03  5.17188E+03 -1.68339E+03  5.62538E+03
 -4.31390E+03  4.35444E+03 -7.78413E+03  2.56836E+03 -5.06857E+03 -1.74195E+03 -1.27591E+03 -4.37608E+03
  1.51785E+03 -3.37741E+03  7.69017E+02 -9.18207E+02  1.07450E+03  2.12220E+03 -5.72610E+02  3.30302E+03
 -3.84065E+03  1.64343E+03 -3.66601E+03 -2.70845E+03 -2.86914E+03 -5.17681E+03 -5.66511E+02 -5.00331E+03
  3.31920E+03 -2.67311E+03  3.26157E+03 -4.97553E+02  1.74222E+03  1.58120E+03 -3.03551E+02  3.66165E+03
 -5.64811E+02  1.59574E+02 -1.48703E+03 -1.71548E+03  1.03750E+03 -3.34903E+03  3.08296E+03 -2.30424E+03
  6.09179E+03  6.02206E+01  5.84232E+03  5.08457E+03  2.24464E+03  5.83126E+03 -1.14741E+03  6.50085E+03
 -5.05893E+03  1.85435E+03 -4.44455E+03 -1.35288E+03 -1.92624E+03 -2.79988E+03  9.34830E+02 -3.71295E+03
  3.63643E+03 -1.91232E+03  3.24747E+03  1.22436E+03  9.69929E+02  2.17362E+03 -4.47485E+02  2.70176E+03
 -2.03512E+03  2.61066E+03 -1.39423E+03  4.82392E+02  2.62339E+02  6.78054E+02 -1.75284E+03  1.35803E+03
 -1.63991E+03  2.80342E+03 -3.95576E+03  6.40892E+02 -6.61043E+03 -1.57316E+03 -7.29170E+03 -3.17110E+03
 -4.00248E+03 -8.10728E+03  1.52417E+03 -9.18515E+03  5.31611E+03 -6.40372E+03  7.31575E+03 -3.24904E+03
  6.96443E+03  1.47393E+03  4.57902E+03  5.75681E+03 -6.08770E+02  6.81357E+03 -1.22065E+03  4.81395E+03
 -2.83701E+03  2.67142E+03 -3.82251E+02  5.45167E+02 -1.18567E+03  1.23938E+02 -1.13325E+03 -1.50920E+03
 -1.54835E+03 -8.89361E+02 -1.43394E+03 -1.96154E+02 -2.88132E+02 -1.37945E+03  5.95263E+02 -2.31555E+03
  3.15208E+03 -2.56791E+03  3.97001E+03  2.44754E+02  6.26949E+03  2.08100E+03  1.14155E+03  4.84652E+03
 -2.27465E+03  6.20558E+03 -5.93094E+03  2.39719E+03 -6.17091E+03  4.51505E+01 -6.38527E+03 -4.96673E+03
 -3.12560E+03 -5.60278E+03  1.72817E+03 -4.92088E+03  3.53512E+03 -2.76060E+03  3.84165E+03  9.98011E+02
  1.75781E+03  3.26997E+03  8.50804E+01  3.10128E+03 -4.30586E+02 -1.05132E+03 -1.02394E+02 -1.40380E+03
  2.25402E+03 -1.66345E+03  2.14138E+03  8.60065E+02  1.20707E+03  1.79495E+03  6.03006E+02  3.59141E+03
 -3.36815E+03  2.36918E+03 -3.52059E+03 -1.19104E+03 -3.83494E+03 -2.62426E+03 -5.98594E+02 -4.54587E+03
  2.87521E+03 -3.80744E+03  4.89000E+03 -9.77598E+02  3.48054E+03  3.39920E+02  1.06040E+03  2.70751E+03
  8.33369E+02  3.45465E+03 -5.35756E+02  3.08444E+03 -2.11740E+03  2.16156E+03 -2.73191E+03 -6.47670E+02
 -7.66848E+02 -7.94257E+02 -7.88196E+02 -3.10228E+02 -2.38048E+03  9.79224E+02 -2.52116E+03  7.61259E+02
 -4.37168E+03 -2.31862E+03 -8.55112E+02 -4.52830E+03  2.31726E+02 -3.56359E+03  2.62628E+03 -5.91427E+02
  3.81554E+03  4.73620E+02  1.98153E+03  2.07250E+03 -1.02763E+03  4.59781E+03 -1.83271E+03  2.48952E+03
