 $NMID ID='MM_0lb_SNR200_19hz_g40_22.RAW', FMTDAT='(8E13.5)'
 TRAMP=1., VOLUME=1. $END
  3.10020E+05  1.01786E+02  3.38115E+05  2.49874E+05  8.48565E+04  3.37176E+05 -1.32190E+05  2.51022E+05
 -1.89948E+05  8.11608E+04 -1.10557E+05 -3.32767E+04  2.52764E+03 -4.94106E+04  5.40177E+04  4.40148E+02
  3.53157E+04  5.34491E+04 -1.68008E+04  7.49770E+04 -6.06047E+04  6.19298E+04 -8.23818E+04  3.12849E+04
 -7.85916E+04 -1.04537E+04 -5.56678E+04 -5.06167E+04 -1.58985E+04 -6.86800E+04  2.69573E+04 -4.43640E+04
  3.86468E+04  4.18904E+03  1.39604E+04  4.71083E+04 -3.49817E+04  4.57428E+04 -6.52709E+04 -2.39448E+02
 -5.14696E+04 -5.45673E+04 -5.85305E+03 -7.57762E+04  3.34113E+04 -5.28007E+04  4.62142E+04 -1.59881E+04
  4.07445E+04  1.05665E+04  2.99319E+04  2.46721E+04  1.57404E+04  2.77794E+04 -3.46820E+03  2.72809E+04
 -2.11880E+04  1.31513E+04 -1.89555E+04 -3.97126E+03  3.73660E+03 -7.72997E+03  2.06736E+04  1.13949E+04
  7.74327E+03  3.22943E+04 -2.99243E+04  3.45019E+04 -6.09333E+04  3.23309E+03 -5.49097E+04 -4.03469E+04
 -1.27392E+04 -6.02866E+04  3.81979E+04 -4.25318E+04  5.40033E+04 -2.82844E+03  3.06554E+04  3.06418E+04
 -6.87890E+03  3.29073E+04 -2.71053E+04  1.28932E+04 -2.69513E+04 -4.95201E+03 -1.35838E+04 -9.21989E+03
 -6.39064E+03 -1.04905E+04 -1.81943E+03 -1.77165E+04  6.26100E+03 -2.26572E+04  1.51567E+04 -1.51038E+04
  1.24151E+04  3.47987E+03 -6.14799E+03  1.24363E+04 -1.84505E+04 -1.65464E+03 -7.43424E+03 -3.08149E+04
  2.05609E+04 -3.99158E+04  4.27909E+04 -1.87852E+04  4.14622E+04  1.73812E+04  1.40274E+04  4.02859E+04
 -1.54695E+04  2.96396E+04 -2.31049E+04  1.68139E+03 -7.04559E+03 -2.63129E+04  2.08216E+04 -3.05364E+04
  3.74117E+04 -6.27061E+03  2.93606E+04  2.23624E+04  1.53459E+04  4.07445E+04 -8.02200E+03  4.35581E+04
 -2.79043E+04  2.95263E+04 -3.58350E+04  7.66476E+03 -3.74864E+04 -1.44698E+04 -1.98395E+04 -3.35148E+04
  6.95745E+03 -3.22566E+04  2.91420E+04 -1.23509E+04  2.61456E+04  1.13994E+04  3.73615E+03  1.83915E+04
 -1.25147E+04  6.13074E+03 -9.97146E+03 -7.94379E+03  6.30659E+03 -8.97008E+03  1.61228E+04  6.08862E+03
  1.18311E+04  2.16554E+04 -7.60819E+03  2.27132E+04 -2.07541E+04  7.64061E+03 -2.47010E+04 -6.16928E+03
 -1.60981E+04 -1.61294E+04 -5.15680E+03 -1.68732E+04  4.59049E+03 -1.36136E+04  1.11219E+04 -1.31348E+04
  2.01432E+04 -1.15510E+04  2.72289E+04  6.39400E+02  2.03092E+04  1.59870E+04  3.19221E+03  3.15505E+04
 -1.46885E+04  2.69271E+04 -2.55761E+04  7.90256E+03 -1.96583E+04 -9.29779E+03 -3.06662E+03 -1.45539E+04
  2.76343E+03 -3.86195E+03 -7.52231E+02  5.43360E+03 -1.16789E+04  5.16874E+03 -1.26628E+04 -5.08286E+03
 -8.49959E+03 -1.44376E+04  4.38821E+03 -1.99686E+04  1.28039E+04 -1.35391E+04  1.39176E+04 -1.60252E+03
  7.84256E+03  1.03102E+04 -1.17377E+03  1.44189E+04 -9.49109E+03  7.65898E+03 -1.42613E+04 -3.02499E+03
 -1.16555E+04 -1.43742E+04 -1.53229E+03 -1.87410E+04  7.94905E+03 -1.54610E+04  1.54333E+04 -6.75149E+03
  1.38754E+04  9.82459E+02  9.91367E+03  3.41865E+03  4.12268E+03  6.95610E+02  7.24682E+03 -1.24051E+03
  1.31397E+04  2.63065E+03  1.32152E+04  1.22028E+04  8.04324E+03  2.45317E+04 -2.75940E+03  2.42399E+04
 -1.44855E+04  1.84978E+04 -2.41133E+04  8.65994E+03 -2.27791E+04 -1.79084E+03 -2.01429E+04 -1.31108E+04
 -9.79102E+03 -1.91908E+04  6.13182E+03 -1.79270E+04  1.53199E+04 -1.09397E+04  1.50168E+04  2.61040E+03
  6.12513E+03  1.01763E+04 -6.10371E+03  9.71822E+03 -1.26475E+04  2.93758E+03 -1.05263E+04 -7.64987E+03
  3.68595E+02 -1.27847E+04  5.33499E+03 -9.03694E+03  7.70908E+03 -2.28677E+03  1.57610E+03  4.83840E+03
 -4.40197E+03  1.77139E+03 -3.33998E+03 -4.05854E+03  2.36201E+03 -8.96336E+03  7.38419E+03 -8.53039E+03
  1.01869E+04 -3.84706E+03  9.56800E+03  3.76754E+03  8.64596E+03  8.50545E+03  3.21558E+03  1.29455E+04
 -1.17314E+03  1.51534E+04 -7.02786E+03  9.04334E+03 -1.03930E+04  3.18431E+03 -8.55670E+03 -1.25170E+03
 -4.47182E+03 -4.39783E+03 -4.20829E+02  1.45301E+02 -1.88984E+03  1.24320E+03 -2.44539E+03  4.59055E+03
 -7.61309E+03 -6.39648E+02 -7.91400E+03 -7.35066E+03 -2.87041E+03 -1.17709E+04  3.22943E+03 -8.45633E+03
  6.89631E+03 -2.73468E+03  4.80621E+03  2.12060E+03  1.78153E+03  2.89719E+03 -3.35327E+03 -1.19931E+02
 -1.92944E+03 -4.80746E+03 -2.43030E+02 -6.22933E+03  3.23682E+03 -7.47993E+03  7.85869E+03 -3.68119E+03
  1.13068E+04  1.10782E+03  7.83470E+03  5.87020E+03  1.07676E+03  7.90118E+03 -4.66332E+03  8.44237E+03
 -5.67932E+03  3.16437E+03 -2.85764E+03 -1.44341E+03  9.34153E+02 -2.63047E+03  4.22239E+03 -1.42351E+03
  3.00681E+03  3.40575E+03 -1.11624E+02  6.39527E+03 -4.36581E+03  6.18395E+03 -7.46710E+03  1.84267E+03
 -4.68542E+03 -2.58023E+03  4.32459E+01 -6.53890E+03  2.48551E+03 -2.58453E+03  3.14480E+03  8.44095E+02
  2.11987E+02  3.14311E+03 -4.25630E+03  4.75698E+03 -3.81686E+03  8.82141E+02 -3.33030E+03 -1.52119E+03
 -3.43641E+03 -5.12782E+03  1.22316E+03 -5.16844E+03  6.13630E+03 -4.76998E+03  5.87850E+03  1.15658E+03
  3.74759E+03  4.49794E+03  1.14306E+03  7.04038E+03 -3.83578E+03  3.99918E+03 -4.73641E+03 -1.23673E+03
 -5.64819E+03 -4.79556E+03 -1.60336E+03 -5.46078E+03  2.47647E+03 -5.28511E+03  2.11481E+03 -3.66905E+03
  2.39712E+03 -4.68671E+02  1.07886E+03  1.84591E+03  1.77514E+02  1.78673E+02 -4.77679E+02 -1.65898E+03
  3.38661E+03 -5.00301E+02  3.72435E+03  7.71977E+02  5.37019E+03  2.22588E+03  4.29721E+03  6.19763E+03
 -1.30717E+03  7.14898E+03 -7.05063E+03  5.52861E+03 -9.53247E+03  2.80072E+03 -6.86605E+03 -2.79015E+03
 -4.53090E+03 -6.27873E+03 -6.62414E+01 -4.53230E+03  8.53043E+02 -1.86557E+03  1.57280E+03 -1.01911E+03
  2.48682E+03 -2.36942E+03  2.57115E+03 -1.73922E+03  3.98505E+03 -6.15704E+02  4.98497E+03  9.28167E+02
  3.84592E+03  1.91093E+03  5.14311E+02  4.41293E+03 -1.41053E+03  3.89479E+03 -3.77095E+03  3.26150E+03
 -4.75810E+03 -1.28989E+03 -1.97716E+03 -3.43160E+03  4.74238E+02 -3.54795E+03  2.95900E+03 -5.14614E+03
  3.99340E+03 -2.88074E+03  5.80394E+03  1.11232E+03  4.24517E+03  4.11449E+03  1.11635E+03  4.97143E+03
 -1.39888E+03  5.91638E+03 -2.65297E+03  1.47822E+03 -1.83724E+03 -1.01467E+03 -1.50059E+02 -1.30508E+03
 -1.88728E+02 -9.77515E+02  1.03475E+02  1.31565E+03 -3.40410E+03  7.64143E+02 -2.72500E+03  6.87193E+01
 -8.41390E+02 -3.53132E+03  3.92859E+02 -4.64991E+03  3.23626E+03 -2.76792E+03  3.38061E+03 -7.31631E+02
  4.35518E+03  1.65997E+03  2.29848E+03  3.10421E+03 -1.21762E+03  4.12116E+03 -2.35746E+03  1.34168E+03
 -3.65879E+03  4.19004E+02 -2.70236E+03 -3.32836E+03  4.51793E+01 -2.97829E+03  1.34196E+03 -1.78028E+03
  2.24445E+03 -1.87532E+03  1.56636E+03  1.51202E+02  6.46790E+02  1.15268E+03  5.35244E+02  1.59637E+03
  8.90169E+02  1.50940E+02  1.51204E+03  4.16362E+02  1.52868E+03  2.44991E+03  1.33749E+03  2.96647E+03
 -3.10809E+01  2.53559E+03 -2.41385E+03  4.66744E+03 -2.20656E+03  2.26187E+03 -2.59690E+03 -1.07832E+02
 -1.21135E+03 -2.82256E+03 -1.85974E+02 -3.41863E+03  9.17623E+02 -1.61023E+03  3.25915E+03 -2.04414E+03
  2.89423E+03  1.65137E+03 -9.86763E+01  9.44437E+02 -5.52876E+02  4.62113E+02 -1.45450E+03 -4.26596E+02
 -1.04980E+03 -8.18967E+02  1.61909E+03 -1.37086E+03  1.47243E+03 -1.15996E+03  6.22709E+02  3.15946E+02
  9.44554E+02  5.42514E+02  1.37760E+03 -4.44916E+02 -6.27493E+02  5.30972E+02  8.20695E+02 -2.99628E+02
 -1.21661E+03 -4.16561E+02  2.03874E+03 -8.64254E+01  1.04789E+03  2.24855E+03 -7.51526E+02  3.59464E+03
 -2.65907E+03  1.53083E+03 -1.54171E+03  9.68777E+02 -1.38484E+03 -1.00923E+03  7.44598E+02 -3.55975E+02
  6.14186E+02 -9.79093E+02  6.66251E+02 -8.49967E+01  8.76107E+02  1.40288E+03 -6.60687E+02  1.85756E+03
 -2.36833E+03  9.65422E+01 -1.58853E+02 -1.13699E+03 -1.51856E+03 -2.35900E+03  6.25362E+02 -1.63990E+03
  6.17333E+02 -8.20477E+02  1.89348E+03  1.93042E+03  1.08226E+03  9.61731E+02 -8.85716E+02  2.28222E+03
 -3.33492E+02  3.33081E+02 -9.81454E+02 -1.12785E+02  1.03746E+03 -7.89468E+02  1.33749E+03 -1.05671E+03
  2.57112E+02 -1.92108E+02  3.02720E+03  1.04445E+03  1.28424E+03  5.77391E+02 -1.66223E+02  1.54739E+03
  1.00735E+02 -7.96308E+01 -1.08484E+03 -3.85515E+02 -1.59197E+03 -1.13499E+03  1.81544E+02 -1.02469E+03
  2.36112E+03 -4.74522E+02  5.03188E+02  9.46037E+02 -5.05515E+02  1.02489E+03 -9.45759E+02 -2.39553E+02
 -4.62301E+02  2.03373E+03 -4.60999E+02 -7.82785E+01 -7.85214E+02  4.17729E+02 -1.07337E+02  1.48222E+03
 -9.75766E+02  3.09513E+02 -1.56879E+03  4.85431E+02 -1.52710E+03  1.22714E+03 -1.33710E+03 -1.16336E+03
 -5.10141E+02 -2.33423E+03  1.32472E+03 -2.28100E+03 -7.41796E+02 -2.01804E+03  3.12622E+03 -9.49867E+02
  1.53164E+03  4.10454E+02  4.97333E+02  1.61261E+03 -4.69003E+02  4.86639E+02 -3.47711E+02  1.47567E+03
 -8.03096E+02  1.20112E+03 -3.73154E+02 -8.50469E+02 -1.04347E+02 -3.95069E+02 -7.03181E+02  8.59930E+02
  7.96223E+01  1.89293E+02 -1.11753E+03 -4.87068E+02  6.29416E+02 -1.98969E+01 -1.40336E+02 -4.28016E+02
  1.55955E+01  3.66006E+01  5.65019E+02 -4.58380E+02  1.52613E+03  5.90257E+02  1.48026E+02  6.23498E+02
 -9.70807E+02  1.34568E+03 -1.83812E+03  1.02194E+03 -2.10954E+03  2.17712E+02 -8.84702E+02 -4.79053E+02
 -7.06321E+02 -1.56485E+03  7.86749E+01 -1.83493E+03 -3.43173E+02 -2.87798E+02  1.05436E+02  4.35225E+01
  4.74174E+02  4.59805E+02  1.18268E+03 -6.01549E+02  2.48829E+02  6.02429E+02 -2.42106E+02  3.08699E+02
  7.47578E+02  7.64345E+02 -2.93512E+02  1.55640E+03  1.16542E+03  1.56754E+03  3.71854E+02 -8.83507E+02
 -3.98517E+02 -2.08364E+02  2.41926E+02  2.29451E+02 -6.29441E+02 -5.75241E+02  4.42093E+02 -3.14775E+02
  4.45202E+02 -1.63264E+03  7.86273E+02  3.63116E+02  9.09820E+02 -1.28750E+03 -1.51356E+03  3.42658E+02
  4.25756E+02  3.76298E+02  8.70249E+02  1.36050E+03 -6.02347E+02 -2.65536E+02 -1.56673E+03 -4.73235E+02
  1.35466E+02 -1.09684E+02 -1.46977E+03  1.06897E+02 -1.43981E+03  2.77486E+02 -7.12933E+02  2.24830E+02
 -4.04022E+02 -4.92766E+02  3.36866E+02 -8.13113E+02  4.91650E+02 -1.14417E+03 -1.54074E+02  6.10871E+01
  1.58741E+03  2.57838E+02 -8.86709E+01  4.06237E+02  3.87723E+01  1.68286E+03 -5.71425E+02  1.31735E+02
