 $NMID ID='MM_0lb_SNR200_14hz_g45_79.RAW', FMTDAT='(8E13.5)'
 TRAMP=1., VOLUME=1. $END
  3.10249E+05  3.67306E+01  3.37459E+05  2.50405E+05  8.57083E+04  3.38076E+05 -1.31632E+05  2.50366E+05
 -1.91654E+05  8.24478E+04 -1.11471E+05 -3.18873E+04  1.20948E+03 -5.08534E+04  5.39595E+04  1.30082E+01
  3.57822E+04  5.24304E+04 -1.78586E+04  7.50993E+04 -6.05190E+04  6.22211E+04 -8.43933E+04  3.21598E+04
 -7.98153E+04 -1.14134E+04 -5.61062E+04 -5.15170E+04 -1.46346E+04 -6.90367E+04  2.65005E+04 -4.60293E+04
  3.97119E+04  4.38530E+03  1.68970E+04  4.78852E+04 -3.46701E+04  4.76202E+04 -6.66925E+04 -2.80372E+02
 -5.12686E+04 -5.59176E+04 -6.65904E+03 -7.67950E+04  3.32202E+04 -5.40843E+04  4.82371E+04 -1.70645E+04
  4.34255E+04  1.16505E+04  3.27298E+04  2.49413E+04  1.52102E+04  2.93083E+04 -5.45976E+03  2.66577E+04
 -2.19473E+04  1.27412E+04 -1.83066E+04 -3.58334E+03  5.18464E+03 -7.00301E+03  2.25128E+04  1.17879E+04
  7.81396E+03  3.48372E+04 -3.21017E+04  3.42375E+04 -6.33004E+04  1.76863E+03 -5.70375E+04 -4.26234E+04
 -1.29630E+04 -6.35117E+04  3.81022E+04 -4.61086E+04  5.85704E+04 -2.24171E+03  3.31348E+04  3.24178E+04
 -6.27640E+03  3.56961E+04 -2.98281E+04  1.60333E+04 -2.89973E+04 -5.06023E+03 -1.68020E+04 -1.13940E+04
 -7.41418E+03 -1.32318E+04 -1.35097E+03 -1.82804E+04  7.36962E+03 -2.33742E+04  1.47367E+04 -1.29533E+04
  1.23199E+04  6.06331E+03 -7.52479E+03  1.30721E+04 -1.95298E+04 -3.67966E+03 -8.78195E+03 -3.32788E+04
  2.16359E+04 -4.31898E+04  4.79470E+04 -1.92910E+04  4.47153E+04  1.92045E+04  1.72249E+04  4.46684E+04
 -1.62858E+04  3.35376E+04 -2.42064E+04  2.47295E+03 -9.56724E+03 -2.87006E+04  2.10296E+04 -3.31344E+04
  4.16010E+04 -8.31819E+03  3.56928E+04  2.28622E+04  1.75437E+04  4.64466E+04 -7.39950E+03  4.91739E+04
 -3.14726E+04  3.27642E+04 -4.17702E+04  9.13721E+03 -4.31195E+04 -1.70413E+04 -2.32396E+04 -3.82227E+04
  8.15254E+03 -3.73600E+04  3.09056E+04 -1.46595E+04  2.88666E+04  1.10310E+04  3.56728E+03  1.93759E+04
 -1.31620E+04  9.35162E+03 -8.68574E+03 -7.04480E+03  6.16130E+03 -1.05553E+04  1.66591E+04  6.87398E+03
  1.30874E+04  2.16307E+04 -5.60341E+03  2.54669E+04 -2.21636E+04  1.23813E+04 -2.67407E+04 -3.57772E+03
 -2.02222E+04 -1.81589E+04 -8.15979E+03 -1.95651E+04  3.27981E+03 -1.90572E+04  1.51001E+04 -1.70315E+04
  2.57442E+04 -1.13832E+04  3.23223E+04  2.98036E+03  2.42348E+04  2.04563E+04  5.01329E+03  3.49804E+04
 -1.71925E+04  3.05914E+04 -2.78991E+04  1.07687E+04 -1.96555E+04 -1.02988E+04 -3.82183E+03 -1.38450E+04
  1.18491E+03 -3.40153E+03 -5.01560E+03  6.08227E+03 -1.59110E+04  4.67256E+03 -1.58626E+04 -5.84713E+03
 -9.97451E+03 -1.86829E+04  4.68201E+03 -2.34637E+04  1.49369E+04 -1.61321E+04  1.81802E+04 -2.25178E+03
  1.12391E+04  1.32237E+04 -4.86085E+02  1.74041E+04 -1.27961E+04  1.08890E+04 -1.84400E+04 -4.28780E+03
 -1.35238E+04 -1.70638E+04 -2.82938E+03 -2.30470E+04  9.62780E+03 -1.83170E+04  1.84108E+04 -8.66629E+03
  1.76600E+04  4.10691E+02  1.31087E+04  3.36932E+03  6.63186E+03  3.04036E+02  9.78399E+03 -5.91467E+02
  1.78652E+04  1.83939E+03  1.86722E+04  1.39800E+04  1.12280E+04  2.90404E+04 -3.08925E+03  3.34011E+04
 -1.93981E+04  2.74421E+04 -3.19385E+04  1.41447E+04 -3.27139E+04 -2.20293E+03 -2.78037E+04 -1.85611E+04
 -1.10815E+04 -2.73464E+04  8.88314E+03 -2.43071E+04  2.08900E+04 -1.19879E+04  1.87469E+04  6.05755E+03
  7.80533E+03  1.38929E+04 -9.30571E+03  1.30286E+04 -1.63099E+04  1.72641E+03 -1.19602E+04 -1.02412E+04
  4.90991E+02 -1.55707E+04  7.02719E+03 -1.11482E+04  9.08281E+03 -1.30894E+03  2.84743E+03  6.56146E+03
 -6.19465E+03  2.79964E+03 -4.31041E+03 -5.58380E+03 -4.89406E+02 -1.41049E+04  1.05094E+04 -1.43756E+04
  1.57744E+04 -7.88717E+03  1.74404E+04  2.68569E+03  1.57540E+04  1.32255E+04  7.50102E+03  2.06150E+04
 -3.04881E+03  2.16454E+04 -1.31386E+04  1.41866E+04 -1.69622E+04  3.47901E+03 -1.15326E+04 -3.45765E+03
 -5.38418E+03 -4.96407E+03 -1.69843E+03  1.33328E+03 -2.05365E+03  1.59771E+03 -5.22389E+03  4.33135E+03
 -1.01255E+04 -1.50540E+03 -1.09197E+04 -8.19611E+03 -4.41057E+03 -1.51579E+04  4.70209E+03 -1.13633E+04
  9.85261E+03 -4.32744E+03  6.46318E+03  3.11920E+03  3.92007E+01  3.89740E+03 -3.70013E+03 -1.17957E+03
 -4.43359E+03 -7.88479E+03 -2.03726E+03 -1.17158E+04  4.27793E+03 -1.11500E+04  1.31672E+04 -4.95872E+03
  1.55384E+04  1.74073E+03  1.30849E+04  9.61838E+03  2.16631E+03  1.28013E+04 -6.77686E+03  1.08925E+04
 -8.89704E+03  3.67484E+03 -4.27435E+03 -2.01753E+03  1.82403E+03 -2.46206E+03  6.06843E+03 -7.47751E+02
  6.24187E+03  4.53930E+03  2.38801E+03  8.40544E+03 -6.46203E+03  8.67490E+03 -1.00801E+04  2.50731E+03
 -6.69888E+03 -6.18877E+03 -9.47447E+01 -9.88572E+03  4.64125E+03 -4.16643E+03  5.10604E+03  1.33718E+03
  2.12910E+03  4.48594E+03 -3.44524E+03  7.24572E+03 -8.02835E+03  3.58661E+03 -9.75541E+03 -2.06707E+03
 -5.10210E+03 -8.59207E+03  1.64330E+03 -1.15753E+04  8.85485E+03 -7.72321E+03  1.05453E+04  3.57685E+03
  5.64376E+03  6.60466E+03 -7.82979E+02  9.56693E+03 -7.54893E+03  6.46274E+03 -7.65180E+03 -1.42752E+03
 -8.17703E+03 -7.62319E+03 -1.18396E+03 -7.22808E+03  4.80307E+03 -6.39804E+03  5.10985E+03 -2.97533E+03
  3.65604E+03  9.56576E+02 -8.96516E+02  1.41650E+03  2.13583E+02 -5.90503E+02  1.63922E+03 -3.22651E+03
  5.88604E+03 -2.51516E+03  8.87653E+03  1.30444E+03  8.38957E+03  4.90805E+03  7.61288E+03  1.16489E+04
 -2.18273E+03  1.47380E+04 -1.19391E+04  1.07611E+04 -1.43879E+04  1.32049E+03 -1.35895E+04 -4.92060E+03
 -5.95033E+03 -1.00375E+04  1.88590E+02 -8.07812E+03  2.20642E+03 -4.67288E+03  2.67957E+03 -3.21624E+03
  2.75213E+03 -1.78241E+03  4.02563E+03 -2.87636E+03  3.64373E+03 -2.45423E+03  5.51003E+03 -9.73024E+02
  6.38472E+03  1.67044E+03  3.44071E+03  5.66471E+03 -2.05494E+03  5.21419E+03 -5.34810E+03  3.78443E+03
 -7.29674E+03 -1.66658E+03 -4.09109E+03 -5.90804E+03 -8.55848E+02 -9.57385E+03  6.17125E+03 -8.08197E+03
  9.53540E+03 -4.99906E+03  1.19485E+04  1.73116E+02  7.10266E+03  7.45544E+03  1.35437E+03  1.01972E+04
 -2.81911E+03  7.90714E+03 -6.15902E+03  3.81815E+03 -3.68839E+03 -3.19883E+02 -7.07954E+02 -1.15127E+03
 -1.44769E+02  3.70954E+02 -1.35824E+03  2.28435E+03 -2.69026E+03  8.95817E+02 -5.82426E+03 -2.55570E+01
 -3.17617E+03 -6.12598E+03  9.99262E+02 -8.97307E+03  5.46169E+03 -8.12401E+03  7.39775E+03 -2.68404E+03
  6.95415E+03  4.48952E+03  3.10678E+03  6.37589E+03 -2.29532E+03  7.21871E+03 -5.21215E+03  4.45742E+03
 -6.60854E+03  6.49630E+02 -4.72567E+03 -5.10758E+03 -6.14206E+01 -7.32318E+03  3.17422E+03 -3.83464E+03
  4.61524E+03 -3.38641E+03  3.88102E+03  4.83982E+02  5.21691E+02  2.34386E+03  1.63873E+03  1.87394E+03
  2.85532E+03  4.75889E+02  1.55382E+03  8.22030E+02  2.59840E+03  2.25119E+03  2.26806E+03  3.26645E+03
 -2.32619E+03  5.84550E+03 -3.97501E+03  6.79571E+03 -7.33786E+03  1.69812E+03 -7.85484E+03 -3.53670E+03
 -4.36666E+03 -7.97659E+03  2.49407E+03 -8.62655E+03  4.31660E+03 -6.14679E+03  6.16819E+03 -2.09676E+03
  4.93007E+03  2.89847E+03  1.10699E+03  4.21364E+03 -1.88612E+03  3.42746E+03 -2.38798E+03 -9.94855E+02
 -2.73652E+02 -3.01418E+03  1.51410E+03 -2.30685E+03  4.41800E+03 -1.59893E+03  3.18986E+03  3.74135E+02
  1.65901E+03  8.66562E+02  4.42128E+02  5.30265E+02 -1.04939E+03  1.88176E+03  1.69791E+03  3.35842E+02
  2.56234E+02 -1.29018E+03  3.74487E+03  8.18472E+02  2.00455E+03  3.32123E+03 -4.16318E+02  4.53922E+03
 -3.22692E+03  3.19478E+03 -3.70710E+03  1.32662E+03 -2.64775E+03 -1.68005E+03 -1.57554E+03 -2.73641E+03
  2.21015E+02 -2.62831E+03  1.30239E+03 -1.58255E+03  1.08443E+03  2.13230E+03 -9.00630E+02  2.68992E+03
 -2.42659E+03  1.47092E+03 -3.36970E+03 -2.08135E+03 -1.44534E+03 -3.60199E+03  9.29825E+01 -3.90465E+03
  2.64595E+03 -1.43717E+03  2.28277E+03 -2.54254E+02  1.66235E+03  8.88971E+02 -2.56775E+02  2.60476E+03
 -3.64987E+02 -1.04407E+03 -1.29029E+03 -1.29982E+03 -3.37038E+02 -2.63773E+03  4.18101E+03 -1.59444E+03
  4.95803E+03  8.34027E+00  5.44898E+03  8.34030E+02  2.44662E+03  3.53276E+03  5.97176E+01  4.90933E+03
 -3.54047E+03  1.76859E+03 -4.01141E+03 -4.38588E+02 -2.02262E+03 -2.06307E+03 -2.69289E+01 -1.94985E+03
  2.59606E+03 -1.81719E+03  1.64016E+03  1.42551E+03 -6.48867E+01  1.92219E+03  9.50927E+02  2.57188E+03
  1.56266E+02  4.14221E+02 -2.03266E+03 -6.04838E+02 -1.70197E+03  4.46985E+02 -1.63260E+03 -1.80864E+02
 -1.75684E+03  3.29403E+03 -2.81710E+03  6.45450E+02 -4.34498E+03  5.13515E+02 -3.29756E+03 -2.01237E+03
 -3.37419E+03 -5.97456E+03 -3.09460E+01 -7.54505E+03  3.64289E+03 -5.41267E+03  5.76768E+03 -2.26896E+03
  4.74616E+03  9.63235E+02  2.79319E+03  4.02542E+03 -1.14570E+03  4.89026E+03 -9.26575E+02  2.77809E+03
 -2.46670E+03  1.16057E+03 -1.84860E+03  6.05553E+02 -3.61654E+02  1.46464E+03 -9.18967E+02 -1.98671E+02
 -1.65827E+03  1.22172E+03 -1.97569E+03  8.69127E+02 -1.04993E+03 -1.18160E+03 -8.52197E+02 -1.93815E+03
  2.43187E+03 -1.30168E+03  2.69145E+03 -1.09700E+02  3.13624E+03  1.71036E+03  1.40296E+03  4.66794E+03
 -1.46137E+03  4.48299E+03 -3.81398E+03  2.87273E+03 -5.02942E+03 -7.39648E+02 -4.01612E+03 -3.65146E+03
 -1.61638E+03 -4.88540E+03  6.63936E+02 -3.02635E+03  2.57192E+03 -2.37700E+03  3.64704E+03  8.67809E+02
  9.32800E+02  2.99244E+03  4.31986E+02  3.47204E+03 -7.86484E+01  2.89934E+02 -1.90633E+02 -1.66491E+03
  1.22342E+03 -6.08647E+02  2.04595E+03  8.74736E+02  1.59408E+03  1.47424E+03  4.40600E+02  2.04972E+03
 -2.40591E+03  9.32501E+02 -2.83591E+03  1.70458E+03 -3.64280E+03 -3.18782E+03 -4.48644E+02 -2.37655E+03
  2.32014E+03 -1.67170E+03  9.70639E+02 -1.11255E+03  2.89391E+03  5.56435E+02  2.31672E+03  3.11478E+03
  8.15165E+02  2.42589E+03  3.67489E+02  1.92372E+03 -2.07191E+03  1.15939E+03 -8.51435E+02 -4.33794E+02
 -3.58873E+02 -8.45933E+02 -8.76787E+02  6.10988E+01 -6.28496E+02  4.24521E+02 -2.65154E+03 -2.05586E+02
 -2.21869E+03 -1.85423E+03  7.13234E+01 -2.06009E+03  7.62790E+02 -2.59609E+03  2.46866E+03 -1.27530E+03
  2.18663E+03 -3.40675E+02  9.67810E+02  9.32687E+02  8.35905E+02  2.58994E+03 -1.48429E+03  2.64686E+03
