 $NMID ID='MM_0lb_SNR200_16hz_g45_39.RAW', FMTDAT='(8E13.5)'
 TRAMP=1., VOLUME=1. $END
  3.10019E+05  4.48505E+02  3.38662E+05  2.49610E+05  8.43495E+04  3.38099E+05 -1.32359E+05  2.50976E+05
 -1.89248E+05  8.27379E+04 -1.11431E+05 -3.21402E+04  1.69195E+03 -5.10606E+04  5.27082E+04 -4.51060E+00
  3.61089E+04  5.28000E+04 -1.60133E+04  7.46663E+04 -6.02186E+04  6.30683E+04 -8.35183E+04  3.11719E+04
 -8.00224E+04 -1.04578E+04 -5.70449E+04 -5.02015E+04 -1.42905E+04 -6.84063E+04  2.70298E+04 -4.44827E+04
  3.92490E+04  4.93478E+03  1.48232E+04  4.69394E+04 -3.42856E+04  4.66656E+04 -6.49161E+04 -1.18953E+03
 -5.30562E+04 -5.82418E+04 -6.32973E+03 -7.64518E+04  3.27462E+04 -5.40720E+04  4.71261E+04 -1.61827E+04
  4.35643E+04  1.09754E+04  3.15965E+04  2.51296E+04  1.66157E+04  2.83400E+04 -5.51522E+03  2.99594E+04
 -2.16208E+04  1.25221E+04 -1.94481E+04 -4.47654E+03  5.19312E+03 -7.51175E+03  2.12038E+04  1.21021E+04
  7.96767E+03  3.38281E+04 -3.15670E+04  3.47887E+04 -6.26310E+04  1.62575E+03 -5.69229E+04 -4.22988E+04
 -1.23353E+04 -6.07274E+04  3.86257E+04 -4.44886E+04  5.59452E+04 -1.43290E+03  3.26371E+04  3.26632E+04
 -6.53109E+03  3.47486E+04 -2.89522E+04  1.43672E+04 -2.92471E+04 -4.56544E+03 -1.59543E+04 -1.09634E+04
 -6.75962E+03 -1.23503E+04 -2.32884E+03 -1.77817E+04  6.90704E+03 -2.23764E+04  1.53270E+04 -1.31011E+04
  1.12826E+04  6.08305E+03 -7.47461E+03  1.34400E+04 -1.99704E+04 -2.26052E+03 -8.83671E+03 -3.31297E+04
  2.09149E+04 -4.02764E+04  4.61577E+04 -1.96722E+04  4.29741E+04  1.83788E+04  1.59244E+04  4.29586E+04
 -1.62696E+04  3.16855E+04 -2.46152E+04  1.97661E+03 -9.35541E+03 -2.75021E+04  2.02829E+04 -3.25151E+04
  3.92390E+04 -8.12643E+03  3.36998E+04  2.24612E+04  1.63686E+04  4.38934E+04 -8.04030E+03  4.70580E+04
 -2.93100E+04  3.12240E+04 -3.97597E+04  9.01186E+03 -3.99892E+04 -1.57492E+04 -2.24888E+04 -3.64201E+04
  7.71368E+03 -3.53863E+04  2.86566E+04 -1.41118E+04  2.77319E+04  9.52245E+03  3.18308E+03  1.82324E+04
 -1.41678E+04  8.53751E+03 -8.99160E+03 -7.95291E+03  5.59254E+03 -1.13059E+04  1.78972E+04  6.69410E+03
  1.17575E+04  2.19571E+04 -6.21063E+03  2.44179E+04 -2.28175E+04  9.83114E+03 -2.70597E+04 -5.50399E+03
 -1.80099E+04 -1.71242E+04 -7.89558E+03 -1.82734E+04  3.88735E+03 -1.71228E+04  1.40558E+04 -1.64079E+04
  2.26316E+04 -1.21371E+04  2.96813E+04  2.12098E+03  2.32220E+04  1.84990E+04  3.58841E+03  3.53794E+04
 -1.59924E+04  2.86852E+04 -2.56769E+04  1.02227E+04 -1.98994E+04 -1.04196E+04 -4.93737E+03 -1.34600E+04
  1.83470E+03 -2.83015E+03 -1.92343E+03  5.72784E+03 -1.39104E+04  5.17469E+03 -1.46164E+04 -7.02440E+03
 -9.85853E+03 -1.69852E+04  5.14348E+03 -2.12149E+04  1.40525E+04 -1.50677E+04  1.68197E+04 -2.19830E+03
  9.57357E+03  1.17620E+04 -5.02470E+02  1.81019E+04 -1.16558E+04  9.86542E+03 -1.75731E+04 -4.14470E+03
 -1.23974E+04 -1.47481E+04 -1.77953E+03 -2.12372E+04  9.06550E+03 -1.69738E+04  1.72518E+04 -7.11959E+03
  1.52081E+04  7.43736E+02  1.04340E+04  4.46279E+03  5.51585E+03  1.55503E+03  7.64112E+03 -8.03908E+02
  1.54646E+04  2.18143E+03  1.55526E+04  1.34432E+04  1.06177E+04  2.61060E+04 -2.13287E+03  2.97716E+04
 -1.75658E+04  2.36878E+04 -2.92842E+04  1.10502E+04 -2.86754E+04 -1.76872E+03 -2.36557E+04 -1.77960E+04
 -1.00646E+04 -2.40038E+04  7.48232E+03 -2.22245E+04  1.83691E+04 -1.27674E+04  1.67506E+04  4.48618E+03
  7.46955E+03  1.36277E+04 -7.90191E+03  1.16101E+04 -1.53023E+04  2.92543E+03 -1.20489E+04 -8.74155E+03
  1.04299E+03 -1.31368E+04  7.53068E+03 -9.30490E+03  8.63250E+03 -1.23817E+03  1.48025E+03  5.97085E+03
 -6.93291E+03  1.85720E+03 -3.52510E+03 -5.06324E+03 -2.72225E+02 -1.29681E+04  8.39688E+03 -1.16495E+04
  1.45073E+04 -5.56698E+03  1.52887E+04  3.71708E+03  1.24394E+04  1.20060E+04  6.15201E+03  1.67984E+04
 -2.00609E+03  1.93409E+04 -1.13661E+04  1.16287E+04 -1.37592E+04  3.46544E+03 -1.01313E+04 -1.91982E+03
 -5.03744E+03 -3.88239E+03 -1.16745E+03  2.87074E+02 -1.95799E+03  3.96798E+03 -4.96110E+03  3.26891E+03
 -9.14181E+03 -1.69431E+03 -8.65623E+03 -8.13402E+03 -4.77153E+03 -1.37791E+04  4.42262E+03 -8.95011E+03
  8.73208E+03 -4.44066E+03  7.18030E+03  2.11951E+03  7.46034E+02  3.58484E+03 -5.46986E+03 -4.53789E+02
 -3.77834E+03 -6.64392E+03 -1.28448E+03 -9.77874E+03  3.78298E+03 -8.14615E+03  1.03972E+04 -4.37244E+03
  1.30541E+04  7.51987E+02  1.03577E+04  7.35629E+03  2.96919E+03  1.15246E+04 -6.11248E+03  1.01587E+04
 -7.70145E+03  3.39138E+03 -5.01896E+03 -6.07323E+02  9.55088E+01 -2.39723E+03  5.66944E+03 -1.00126E+03
  5.55531E+03  3.26932E+03  1.02629E+03  7.79522E+03 -4.31584E+03  8.27124E+03 -8.83199E+03  1.15546E+03
 -5.64233E+03 -3.53311E+03  5.45174E+02 -6.48351E+03  4.63343E+03 -3.76852E+03  4.29134E+03  2.09809E+03
  8.72780E+02  5.08497E+03 -3.75832E+03  4.61797E+03 -7.26384E+03  4.29428E+03 -6.44290E+03 -9.24045E+02
 -2.64811E+03 -7.78940E+03  1.13809E+03 -8.55112E+03  7.45511E+03 -5.94047E+03  8.81173E+03  6.82524E+02
  5.55555E+03  7.21454E+03 -1.40722E+03  8.45588E+03 -7.58718E+03  4.22795E+03 -6.90149E+03 -6.20217E+02
 -7.32525E+03 -6.02936E+03 -7.09503E+01 -6.30956E+03  1.82256E+03 -5.68628E+03  3.28167E+03 -2.92139E+03
  1.62226E+03 -2.20241E+02  1.77886E+02  1.78803E+03 -4.37894E+02 -1.45932E+03  1.42996E+02 -2.87267E+03
  4.98153E+03 -2.69749E+03  7.36326E+03  1.66053E+03  6.44478E+03  3.72430E+03  6.36506E+03  8.76753E+03
 -1.01929E+03  1.18163E+04 -8.33875E+03  9.03331E+03 -1.24932E+04  2.09222E+03 -9.86221E+03 -3.98719E+03
 -5.29232E+03 -6.89484E+03 -4.47801E+02 -6.10457E+03  3.40017E+03 -3.06919E+03  2.20470E+03 -2.41542E+03
  1.90562E+03 -1.99427E+03  1.90516E+03 -1.49421E+03  4.32508E+03 -1.68924E+03  4.69911E+03 -3.37732E+00
  5.63985E+03 -2.19721E+02  2.21105E+03  4.10441E+03 -2.65546E+03  5.10155E+03 -5.83033E+03  3.94831E+03
 -5.42149E+03 -1.76204E+03 -2.65573E+03 -4.85878E+03 -2.83070E+02 -7.51636E+03  3.79333E+03 -6.50987E+03
  6.80778E+03 -5.18331E+03  8.87809E+03  1.27342E+03  6.05244E+03  5.44142E+03  1.27367E+03  7.74324E+03
 -2.62215E+03  7.12923E+03 -4.71705E+03  2.09830E+03 -1.80476E+03 -4.30062E+02 -2.49699E+02 -1.37106E+03
 -8.01399E+02  1.62865E+02 -1.39070E+03  2.59270E+03 -3.70312E+03  4.05294E+02 -4.26655E+03 -1.38984E+03
 -2.50437E+03 -5.35938E+03 -4.28850E+02 -6.61973E+03  4.99668E+03 -6.21287E+03  4.08585E+03 -9.80988E+02
  6.49463E+03  3.82598E+03  2.23513E+03  4.72133E+03 -1.24712E+03  5.26170E+03 -3.78611E+03  4.84583E+03
 -4.36051E+03  5.05969E+02 -5.40135E+03 -3.60374E+03 -3.09317E+02 -5.40983E+03  1.70270E+03 -3.00148E+03
  2.66331E+03 -3.67446E+02  3.16782E+03  1.13752E+03  1.36842E+03  2.13399E+03  6.85428E+02  1.59274E+03
  1.90597E+03 -5.07434E+01  7.84998E+02  1.47196E+03  8.07816E+02  2.33851E+03  2.07970E+03  2.78815E+03
 -9.52707E+02  3.47220E+03 -3.49530E+03  4.39260E+03 -3.61125E+03  1.59519E+03 -5.79665E+03 -7.17626E+02
 -2.25389E+03 -4.95563E+03  1.00496E+03 -6.67390E+03  1.94101E+03 -3.05196E+03  3.96595E+03 -1.52728E+03
  4.00477E+03  3.27587E+03  1.00321E+02  4.21127E+03 -5.56977E+02  1.78817E+03 -7.18633E+02 -8.73700E+02
 -3.33950E+01 -2.81226E+03  4.73683E+02 -1.66461E+03  1.36933E+03 -2.22329E+03  1.64251E+03  1.38087E+03
  1.74256E+03  1.75728E+03  1.18387E+03 -9.21938E+02 -3.25755E+02  1.42096E+03  1.89936E+03  9.02434E+02
  2.08676E+02 -6.06703E+01  2.52749E+03  1.25065E+03  1.95311E+03  4.34618E+03 -3.33293E+02  3.28867E+03
 -7.36870E+02  9.38541E+02 -3.00541E+03 -9.51499E+01 -3.98035E+03 -2.00881E+03 -8.28965E+02 -2.24560E+02
  3.80463E+02 -2.09526E+03  1.47113E+03 -4.17741E+01  5.87594E+02  9.30290E+02 -9.22592E+02 -1.15232E+02
 -1.53712E+03  4.46325E+02 -1.93408E+03 -2.37509E+03 -2.72951E+03 -3.19170E+03  1.95528E+02 -2.92050E+03
  7.05865E+02 -2.19766E+03  1.37995E+03  1.26710E+03  9.71973E+02  7.44450E+02 -1.32406E+02  5.30719E+02
 -8.96861E+02  5.10736E+02 -2.22352E+03 -2.52050E+02  1.32381E+03 -9.75343E+02  2.04088E+03 -1.40140E+03
  2.05527E+03  1.38799E+02  2.74120E+03  1.88334E+03  1.00711E+03  3.05517E+03 -5.60226E+02  3.42187E+03
 -1.56216E+03 -8.29016E+01 -2.16073E+03  1.71027E+02 -1.27741E+02 -1.70350E+03  1.44180E+03 -1.24391E+03
  1.72679E+03  2.75654E+02  1.42517E+03  1.10299E+03  1.37273E+03  1.27698E+03  1.29426E+03  1.59625E+03
 -5.67095E+02  1.37823E+03 -1.12963E+03  5.97551E+02 -2.71597E+02 -9.97853E+02 -1.99672E+03  5.78806E+02
 -9.73921E+02  6.75230E+02 -2.15849E+03  9.14836E+02 -2.68825E+03  3.80119E+02 -3.22279E+03 -2.34319E+03
 -1.57872E+03 -3.42800E+03  1.75018E+03 -3.69502E+03  1.66228E+03 -3.27954E+03  5.78970E+03 -1.36817E+03
  3.62070E+03  8.45660E+02  1.81563E+03  2.79274E+03 -4.14510E+01  2.18845E+03 -6.99016E+01  2.89316E+03
 -4.91833E+02  2.45344E+03 -1.35721E+03 -1.30051E+02 -9.88554E+02 -2.81391E+02 -5.06941E+02 -9.61002E+02
 -5.45256E+02  6.75502E+02 -1.57522E+03 -3.74163E+02  2.27025E+02 -8.05733E+02 -5.59026E+02 -1.12822E+03
  9.68506E+02 -9.46111E+02  1.24609E+03 -4.87892E+02  1.90061E+03  1.84157E+03 -7.12814E+02  2.38068E+03
 -1.47931E+03  3.50890E+03 -1.81165E+03  1.65247E+03 -2.11358E+03 -1.20066E+03 -2.09806E+03 -2.19406E+03
 -8.96446E+02 -3.04221E+03  7.67358E+02 -2.32677E+03  1.05853E+03 -1.53228E+03  2.37397E+03  1.02539E+03
  5.39821E+02  8.84831E+02  3.55575E+02  1.86816E+03 -1.24689E+03 -2.89309E+02 -3.03857E+02 -5.74083E+02
  1.13255E+03 -5.29419E+02  4.46426E+02  4.25920E+02  4.48879E+02  1.20864E+03  6.92859E+02  7.11396E+02
 -7.02884E+02  1.02747E+03 -7.72932E+02  4.34943E+02 -7.41065E+02 -1.34924E+03  1.08653E+03 -1.96835E+03
  2.42216E+02 -1.75796E+03  1.39858E+03 -9.34847E+02  1.38996E+03 -4.66154E+02  7.17624E+02  1.44185E+03
  8.29628E+02  1.00701E+03  7.32314E+01  1.12616E+03 -9.59031E+02  1.17400E+03 -7.28852E+02  3.47425E+02
  1.29534E+02 -3.05381E+02 -5.80480E+02  2.06954E+02 -1.80231E+02 -3.88893E+02 -2.16522E+03  7.10841E+01
 -1.27011E+03  5.03509E+02  4.96401E+01 -1.90039E+03  8.72072E+02 -2.38929E+03  6.78802E+02  1.20951E+02
  1.74063E+03  6.25571E+02  4.11171E+02  1.13565E+03 -7.79582E+02  2.02548E+03 -3.97913E+02  1.43279E+03
