 $NMID ID='MM_0lb_SNR200_20hz_g50_13.RAW', FMTDAT='(8E13.5)'
 TRAMP=1., VOLUME=1. $END
  3.08835E+05  1.20905E+03  3.36021E+05  2.50584E+05  8.34327E+04  3.38027E+05 -1.32066E+05  2.50198E+05
 -1.89585E+05  8.22791E+04 -1.11274E+05 -3.20397E+04  2.06603E+03 -4.97204E+04  5.43015E+04  2.73150E+02
  3.55486E+04  5.37163E+04 -1.68084E+04  7.48477E+04 -6.06385E+04  6.29817E+04 -8.27011E+04  3.25510E+04
 -7.94410E+04 -1.06088E+04 -5.61183E+04 -5.09140E+04 -1.55345E+04 -6.84535E+04  2.71567E+04 -4.56067E+04
  3.90930E+04  2.53483E+03  1.50596E+04  4.64323E+04 -3.49781E+04  4.69823E+04 -6.43592E+04 -5.10604E+02
 -5.16482E+04 -5.64709E+04 -5.44196E+03 -7.64931E+04  3.27666E+04 -5.31054E+04  4.44378E+04 -1.59035E+04
  4.06945E+04  1.20780E+04  3.05285E+04  2.43366E+04  1.51339E+04  2.71387E+04 -5.34804E+03  2.74923E+04
 -2.23170E+04  1.26024E+04 -1.96017E+04 -4.56788E+03  3.62982E+03 -8.64267E+03  2.07671E+04  1.00145E+04
  8.03504E+03  3.28293E+04 -3.01109E+04  3.38025E+04 -5.98801E+04  3.03446E+03 -5.52522E+04 -4.04499E+04
 -1.19575E+04 -6.02853E+04  3.86042E+04 -4.25655E+04  5.58839E+04 -2.14708E+03  3.12918E+04  2.99984E+04
 -6.55997E+03  3.32608E+04 -2.75882E+04  1.27420E+04 -2.71576E+04 -5.70236E+03 -1.41996E+04 -9.84588E+03
 -7.43180E+03 -1.12394E+04 -1.37133E+03 -1.66788E+04  5.75732E+03 -2.24484E+04  1.49507E+04 -1.45316E+04
  1.17796E+04  3.13487E+03 -6.38624E+03  1.29203E+04 -1.78039E+04 -2.65048E+03 -8.35626E+03 -2.95390E+04
  2.07004E+04 -4.07036E+04  4.40184E+04 -1.86323E+04  4.11713E+04  1.90801E+04  1.40755E+04  4.17101E+04
 -1.56361E+04  3.01590E+04 -2.24788E+04  2.89001E+02 -8.48026E+03 -2.69057E+04  2.04779E+04 -3.07090E+04
  3.83998E+04 -7.43756E+03  3.15181E+04  2.28854E+04  1.49309E+04  4.32494E+04 -8.07519E+03  4.40083E+04
 -2.79733E+04  2.89578E+04 -3.67285E+04  8.21251E+03 -3.75541E+04 -1.36661E+04 -2.11530E+04 -3.34770E+04
  7.35915E+03 -3.26601E+04  2.76380E+04 -1.23890E+04  2.57081E+04  1.09882E+04  3.09649E+03  1.69169E+04
 -1.31741E+04  7.84154E+03 -1.00964E+04 -8.28298E+03  5.99157E+03 -9.92624E+03  1.87429E+04  6.76105E+03
  1.15360E+04  2.20606E+04 -6.02179E+03  2.36154E+04 -1.99565E+04  8.53919E+03 -2.51071E+04 -6.58373E+03
 -1.59926E+04 -1.65487E+04 -4.82504E+03 -1.58622E+04  3.93926E+03 -1.33361E+04  1.23711E+04 -1.40507E+04
  2.14513E+04 -1.25382E+04  2.78334E+04  1.46868E+02  2.12505E+04  1.58484E+04  4.86279E+03  3.21103E+04
 -1.67747E+04  2.68296E+04 -2.61285E+04  8.91710E+03 -1.89512E+04 -1.05732E+04 -3.13652E+03 -1.42548E+04
  3.54104E+03 -5.12630E+03 -2.29092E+03  4.70864E+03 -1.20136E+04  5.26671E+03 -1.32776E+04 -4.56685E+03
 -8.24153E+03 -1.61395E+04  5.33681E+03 -1.89821E+04  1.16535E+04 -1.43996E+04  1.36131E+04 -1.73810E+03
  8.04928E+03  8.63114E+03 -5.04216E+02  1.38878E+04 -9.27921E+03  7.54787E+03 -1.46345E+04 -3.78679E+03
 -1.10932E+04 -1.36753E+04 -2.83179E+03 -1.79413E+04  7.54407E+03 -1.39995E+04  1.54068E+04 -6.13057E+03
  1.43229E+04  9.61317E+02  1.02951E+04  3.46128E+03  4.08122E+03  2.28730E+02  7.52798E+03 -2.20207E+03
  1.35797E+04  3.35746E+03  1.32953E+04  1.14831E+04  9.32808E+03  2.33635E+04 -2.67973E+03  2.48276E+04
 -1.42558E+04  1.91366E+04 -2.18233E+04  9.31133E+03 -2.32645E+04 -1.71014E+03 -2.01139E+04 -1.24928E+04
 -9.89490E+03 -1.83336E+04  6.20468E+03 -1.78307E+04  1.57605E+04 -9.90321E+03  1.48768E+04  2.72193E+03
  7.72838E+03  1.13587E+04 -7.05203E+03  9.58942E+03 -1.30435E+04  2.67188E+03 -9.84962E+03 -7.52806E+03
 -2.19005E+01 -1.17739E+04  6.23058E+03 -9.64065E+03  7.56365E+03 -1.39222E+03  1.06569E+03  4.54559E+03
 -4.69661E+03  9.47865E+02 -4.02608E+03 -5.19457E+03  3.64026E+02 -1.00595E+04  8.42572E+03 -9.60582E+03
  1.09640E+04 -4.85786E+03  1.08166E+04  2.51515E+03  8.56403E+03  8.99889E+03  4.24326E+03  1.27592E+04
 -1.90363E+03  1.33538E+04 -9.12513E+03  9.62565E+03 -1.02239E+04  3.42493E+03 -7.22577E+03 -1.02771E+03
 -4.44835E+03 -3.63886E+03 -9.66869E+02  1.20403E+03 -1.52102E+03  2.22961E+03 -2.60057E+03  3.43053E+03
 -7.40193E+03 -5.69367E+02 -7.91544E+03 -6.97720E+03 -2.12264E+03 -1.12446E+04  2.70067E+03 -7.59330E+03
  7.02650E+03 -3.95629E+03  5.20785E+03  2.35132E+03  6.26894E+02  2.66882E+03 -3.52296E+03  4.69123E+02
 -3.11916E+03 -5.12813E+03 -1.38819E+03 -5.56605E+03  4.13149E+03 -8.40985E+03  8.27942E+03 -3.75748E+03
  1.05032E+04  2.88647E+02  8.52304E+03  5.11602E+03  4.90962E+02  7.15587E+03 -3.90713E+03  7.54628E+03
 -7.35963E+03  2.89869E+03 -2.36194E+03 -1.39360E+03  1.63249E+03 -2.58221E+03  4.30893E+03 -1.39959E+03
  4.02735E+03  2.52993E+03  8.27673E+02  5.57792E+03 -3.64437E+03  5.24168E+03 -6.70477E+03  2.13383E+03
 -4.60812E+03 -3.60615E+03 -5.36965E+02 -5.41597E+03  3.31969E+03 -2.72446E+03  3.26059E+03  1.67890E+03
  3.44928E+02  2.02476E+03 -3.67506E+03  3.41741E+03 -4.47431E+03  1.92808E+03 -3.51502E+03  2.76366E+02
 -2.41842E+03 -5.55693E+03  1.86047E+03 -6.66463E+03  4.63788E+03 -3.88835E+03  5.19616E+03  1.36726E+02
  3.04776E+03  4.50048E+03  8.95847E+02  6.70814E+03 -4.34487E+03  3.28871E+03 -5.61174E+03 -1.13444E+03
 -6.46462E+03 -5.38358E+03 -1.47376E+03 -3.76661E+03  2.51778E+03 -3.70400E+03  1.63677E+03 -3.32449E+03
  2.48860E+03 -1.14115E+03  4.38680E+02  1.37104E+03  4.54320E+01  8.97623E+02  2.43217E+02 -1.42036E+03
  2.56405E+03 -1.80183E+03  4.47419E+03  1.15003E+03  4.96202E+03  1.07257E+03  5.52204E+03  6.84715E+03
 -1.24727E+01  7.18931E+03 -6.59987E+03  5.66032E+03 -7.91288E+03  1.06913E+03 -7.34963E+03 -1.97763E+03
 -4.43357E+03 -5.61651E+03 -4.37070E+02 -3.67307E+03  1.65810E+03 -7.58647E+02  1.19320E+03 -3.18730E+03
  1.01610E+03 -1.23752E+03  2.45042E+03 -3.04696E+03  4.34501E+03 -1.14515E+03  3.51026E+03  4.62519E+02
  3.29680E+03  1.07690E+03  1.56533E+03  2.08925E+03 -1.71929E+03  1.07755E+03 -3.45051E+03  2.51718E+03
 -3.30579E+03 -1.21846E+03 -7.99107E+02 -2.49141E+03  5.16598E+02 -3.56317E+03  2.66359E+03 -3.04166E+03
  5.08154E+03 -2.26596E+03  5.16258E+03 -3.91041E+01  4.74207E+03  3.40330E+03  3.01795E+02  4.02858E+03
 -1.76528E+03  5.03427E+03 -2.26698E+03  1.30302E+03 -2.03877E+03 -7.40332E+02 -5.39684E+02 -1.04283E+03
 -9.68394E+02 -1.25709E+02 -9.07413E+02  1.73258E+03 -2.32591E+03  4.62170E+02 -3.18895E+03 -8.32860E+02
 -1.17964E+03 -3.63408E+03  3.17540E+02 -3.10828E+03  2.09148E+03 -4.10068E+03  3.35349E+03 -6.54038E+02
  3.21876E+03  2.48583E+03  1.72243E+03  2.76066E+03  2.90584E+02  4.11659E+03 -2.86671E+03  2.38177E+03
 -2.24727E+03  1.05835E+03 -2.24247E+03 -1.52356E+03 -1.09667E+01 -2.12570E+03  8.63855E+02 -1.46720E+03
  2.71650E+03 -1.31514E+03  1.36416E+03  3.20312E+01 -8.83619E+02  1.39596E+03  3.86024E+02  5.75018E+02
  1.59486E+03  6.87115E+01  1.33556E+03  8.99422E+02  3.44225E+02  2.63827E+03  2.91527E+03  9.63489E+02
 -1.17712E+03  1.69516E+03 -1.75973E+03  4.47398E+03 -1.48387E+03  1.16264E+03 -3.69559E+03  3.16774E+02
 -1.29245E+03 -3.14821E+03  1.23950E+03 -4.65097E+03  1.25356E+03 -2.61159E+03  2.38709E+03 -6.78130E+02
  2.16438E+03  1.99603E+03  9.44440E+02  1.07646E+03  7.01168E+02  1.13536E+03 -1.27999E+03  2.01208E+02
 -6.61507E+02 -9.77477E+02  1.16050E+03 -1.34288E+03  1.10299E+03 -7.36219E+02  1.91903E+03 -4.98635E+01
  5.53977E+02  1.03882E+03 -8.40403E+02 -2.61990E+02 -9.49024E+01  4.25470E+02  2.79394E+03  3.86894E+02
  6.10783E+02 -5.34213E+02  2.00988E+03  7.83401E+02  1.10263E+02  1.24115E+03 -7.30642E+02  2.97105E+03
 -1.87884E+03  1.55199E+03 -1.35150E+03 -5.64904E+02 -2.34369E+03 -1.11398E+03  6.07736E+02 -9.55099E+02
  3.16417E+01 -1.00696E+03  1.16761E+03  3.39656E+02  1.39578E+03  1.64181E+03 -3.62527E+02  8.59512E+02
 -1.72711E+03  5.71416E+02 -9.45131E+02 -1.41161E+03 -2.87013E+02 -1.99382E+03  2.04365E+02 -1.26985E+03
  7.98885E+01 -4.04892E+02  1.37736E+02 -3.46959E+02  5.21106E+02  5.01770E+01  2.01688E+01  9.39637E+02
 -1.14551E+02  1.95388E+02 -1.26389E+03 -3.81999E+02  8.18994E+02 -1.99770E+02  2.02872E+03 -5.95737E+02
  1.66863E+03  1.38904E+02  3.45125E+03  7.40314E+02  1.19805E+03  4.64879E+02 -4.90003E+01  1.11620E+03
 -1.02676E+03  2.81678E+02 -4.98711E+02 -4.35810E+02 -4.16434E+01 -1.05049E+03 -8.58618E+02 -6.32758E+02
  1.16704E+03 -8.86653E+02  6.68856E+02  1.39821E+03 -5.12757E+02  8.26386E+02 -2.46446E+02  3.34176E+02
  7.54946E+02  9.83441E+02  2.14502E+02 -1.00124E+02  7.84841E+02 -5.85331E+02 -1.04542E+03  1.78445E+02
 -3.21179E+02  6.01247E+02 -1.06006E+03  9.70448E+02 -1.47330E+03  6.92917E+02 -2.46256E+03 -5.58073E+02
 -3.91019E+02 -1.70959E+03 -5.43734E+02 -2.27940E+03  1.56380E+02 -2.30222E+03  1.58621E+03 -5.39482E+01
  5.46976E+02  2.89915E+02 -1.44899E+02  1.04339E+03  1.74779E+02  9.65837E+02 -7.46376E+02  8.55250E+02
  5.76986E+02  1.26426E+03 -9.20147E+02 -2.23831E+02  6.13506E+02  9.37140E+01  7.25286E+01  3.21863E+02
 -1.68431E+03 -1.91402E+02 -1.13490E+03  3.59012E+02  1.60072E+03  6.84004E+01  4.11711E+02 -1.20944E+03
 -3.95147E+02 -3.53412E+02 -9.05949E+02 -1.31515E+03  4.22589E+02  5.53533E+02 -6.79221E+01  1.75169E+03
 -6.27151E+02  2.74688E+03 -1.00481E+03  5.74983E+02 -1.57162E+03 -3.29426E+02  2.60873E+02 -1.83359E+03
 -7.71514E+02 -5.71921E+02 -4.21457E+02 -1.99294E+03 -2.47492E+02 -9.88387E+02 -1.58874E+02  3.34084E+01
  7.41898E+02  2.74220E+02  4.77804E+02  5.76523E+02  9.20180E+01 -4.02798E+01 -2.61643E+02  5.69649E+02
  6.27511E+02  1.05865E+03 -2.77425E+02 -5.01151E+01 -6.86791E+02  5.40484E+02  1.96680E+02 -2.04214E+02
 -6.41892E+01  6.28151E+02 -6.11525E+02  1.19153E+02 -1.15653E+02 -1.74428E+02 -4.22001E+02  9.85694E+01
  5.92054E+02 -2.68693E+02 -1.13526E+02  7.57628E+02  1.08792E+03 -9.59031E+02  3.45433E+02 -1.16254E+02
  5.91527E+02  4.70487E+02 -7.14919E+02  6.67096E+02 -1.93156E+02  6.25258E+02 -6.74390E+02 -1.15841E+02
 -2.12310E+02 -2.69012E+02 -6.43783E+02 -2.72283E+02  2.35993E+02  8.08271E+02  1.89563E+02  4.92076E+02
 -5.31395E+02  3.62492E+01 -2.51004E+02 -6.46521E+02  6.50843E+02 -1.32961E+03  7.80530E+02 -7.06696E+02
  5.93290E+02  2.42370E+02 -5.22105E+02  2.73628E+02  7.96124E+02  3.42690E+02 -7.66837E+02  7.81294E+02
