 $NMID ID='MM_0lb_SNR200_7hz_g45_79.RAW', FMTDAT='(8E13.5)'
 TRAMP=1., VOLUME=1. $END
  3.11010E+05 -6.31822E+02  3.37617E+05  2.48736E+05  8.63601E+04  3.37071E+05 -1.30319E+05  2.53028E+05
 -1.91841E+05  8.59828E+04 -1.14476E+05 -3.02390E+04 -3.46844E+02 -5.25689E+04  5.29573E+04  2.59502E+02
  3.55892E+04  5.34026E+04 -1.71864E+04  7.57631E+04 -5.98393E+04  6.44330E+04 -8.63512E+04  3.31377E+04
 -8.25068E+04 -1.16829E+04 -5.96217E+04 -5.30692E+04 -1.47075E+04 -7.19601E+04  2.95234E+04 -4.77140E+04
  4.20651E+04  5.35627E+03  1.79700E+04  4.89534E+04 -3.40720E+04  4.88168E+04 -6.69195E+04  4.03730E+02
 -5.55789E+04 -5.84569E+04 -6.71876E+03 -7.92152E+04  3.36135E+04 -5.71126E+04  5.06372E+04 -1.86760E+04
  4.55683E+04  1.19359E+04  3.26967E+04  2.70894E+04  1.70586E+04  3.06749E+04 -3.82669E+03  2.70538E+04
 -2.23062E+04  1.17212E+04 -1.78112E+04 -6.94723E+03  6.76886E+03 -9.76265E+03  2.32037E+04  1.40179E+04
  7.25659E+03  3.81231E+04 -3.39217E+04  3.64838E+04 -6.65303E+04  3.25221E+03 -5.77876E+04 -4.50957E+04
 -1.18435E+04 -6.72978E+04  4.30829E+04 -4.77720E+04  6.35223E+04 -3.08325E+03  3.63341E+04  3.43971E+04
 -6.19451E+03  3.97459E+04 -3.23933E+04  2.09763E+04 -3.36971E+04 -4.02990E+02 -1.97348E+04 -1.53165E+04
 -1.04921E+04 -1.57129E+04  1.68479E+03 -2.02971E+04  8.90827E+03 -2.34210E+04  1.70423E+04 -1.33456E+04
  1.19556E+04  7.82060E+03 -1.20232E+04  1.26527E+04 -2.47749E+04 -7.46873E+03 -9.06340E+03 -3.97640E+04
  2.60091E+04 -4.79817E+04  5.41704E+04 -2.08146E+04  5.10904E+04  2.27937E+04  1.73741E+04  4.71284E+04
 -1.40320E+04  3.67067E+04 -2.77810E+04  4.81694E+03 -1.24740E+04 -2.98059E+04  2.27901E+04 -3.89199E+04
  4.65937E+04 -1.11412E+04  4.12893E+04  2.52604E+04  2.32466E+04  5.40735E+04 -8.14910E+03  5.87573E+04
 -3.78103E+04  4.12339E+04 -4.90895E+04  1.12724E+04 -4.89021E+04 -1.87869E+04 -2.65835E+04 -4.41205E+04
  8.19501E+03 -4.35341E+04  3.48039E+04 -1.79803E+04  3.37190E+04  1.08917E+04  5.62247E+03  2.18403E+04
 -1.35866E+04  1.07506E+04 -1.19527E+04 -5.68071E+03  5.70880E+03 -1.14994E+04  1.83691E+04  6.81572E+03
  1.48568E+04  2.42468E+04 -3.36235E+03  2.90590E+04 -2.40039E+04  1.37806E+04 -3.29193E+04 -3.21020E+03
 -2.86526E+04 -1.87108E+04 -1.06127E+04 -2.82615E+04  3.00203E+03 -2.60332E+04  2.12641E+04 -2.48441E+04
  3.23507E+04 -1.46311E+04  4.25559E+04  4.88306E+03  2.74609E+04  2.48558E+04  5.69500E+03  4.26397E+04
 -2.08761E+04  3.48721E+04 -3.16523E+04  1.27615E+04 -2.34140E+04 -1.08910E+04 -6.47753E+03 -1.27716E+04
  7.72487E+02  7.57526E+02 -7.90574E+03  8.29666E+03 -2.19774E+04  4.51235E+03 -2.09250E+04 -1.26461E+04
 -1.26069E+04 -2.51359E+04  4.82358E+03 -2.93563E+04  2.05487E+04 -2.21478E+04  2.42009E+04 -1.97274E+03
  1.54728E+04  1.69860E+04 -2.87650E+03  2.67625E+04 -1.71750E+04  1.38111E+04 -2.54946E+04 -6.81838E+03
 -1.74981E+04 -2.18396E+04 -2.20581E+03 -2.89703E+04  1.50682E+04 -2.34684E+04  2.46895E+04 -1.20685E+04
  2.34215E+04  4.81296E+02  1.90212E+04  6.51768E+03  9.66192E+03  9.35731E+02  1.15188E+04 -1.05044E+03
  2.34676E+04  3.37105E+03  2.78190E+04  1.86778E+04  1.79678E+04  3.98154E+04 -3.00757E+03  4.85915E+04
 -2.73759E+04  3.99927E+04 -4.48390E+04  1.96740E+04 -4.75265E+04 -2.13398E+03 -3.87817E+04 -2.85184E+04
 -1.31859E+04 -4.06527E+04  1.57050E+04 -3.65519E+04  2.99348E+04 -1.71298E+04  2.63927E+04  8.11234E+03
  8.16024E+03  1.95166E+04 -1.29529E+04  1.65136E+04 -2.22024E+04  3.67784E+03 -1.59657E+04 -1.33963E+04
  4.86418E+02 -2.07164E+04  1.13999E+04 -1.51469E+04  1.48606E+04 -1.39691E+03  4.04133E+03  1.09612E+04
 -7.98698E+03  5.52947E+03 -1.07310E+04 -7.41698E+03 -2.88131E+03 -1.93192E+04  1.32767E+04 -2.03190E+04
  2.67118E+04 -1.29680E+04  3.03403E+04  3.15892E+03  2.69781E+04  2.07297E+04  1.23903E+04  3.14974E+04
 -5.90602E+03  3.39651E+04 -2.16072E+04  2.11269E+04 -2.63188E+04  3.89624E+03 -1.82508E+04 -6.71581E+03
 -7.88873E+03 -1.09028E+04 -4.40477E+02 -3.60017E+02 -3.44330E+03  4.91812E+03 -9.21256E+03  6.21529E+03
 -1.41928E+04 -7.77552E+02 -1.56620E+04 -1.25132E+04 -7.46039E+03 -1.98440E+04  5.94871E+03 -1.67949E+04
  1.47139E+04 -8.07692E+03  1.01450E+04  3.59304E+03 -1.79409E+03  7.68924E+03 -7.67128E+03  1.25855E+02
 -1.04896E+04 -1.17449E+04 -1.07259E+03 -1.74386E+04  1.09779E+04 -1.90124E+04  2.25463E+04 -1.01422E+04
  2.75753E+04  3.37984E+03  1.80426E+04  1.52657E+04  4.60270E+03  2.05516E+04 -1.00535E+04  1.74125E+04
 -1.48698E+04  5.12700E+03 -7.01624E+03 -4.70103E+03  1.43378E+03 -4.33539E+03  9.76035E+03 -7.18573E+01
  6.05059E+03  7.54004E+03  9.11226E+02  1.61351E+04 -9.75338E+03  1.53211E+04 -1.80109E+04  5.22259E+03
 -1.26282E+04 -9.47605E+03  6.55082E+02 -1.44378E+04  8.75768E+03 -6.69355E+03  1.06609E+04  3.30978E+03
  1.73897E+03  1.10858E+04 -9.56247E+03  1.39586E+04 -1.48721E+04  6.55704E+03 -1.70171E+04 -4.52654E+03
 -9.08330E+03 -1.96834E+04  4.07811E+03 -2.17707E+04  1.87505E+04 -1.28532E+04  1.92373E+04  1.95259E+03
  1.24146E+04  1.47375E+04 -3.34790E+03  1.64754E+04 -1.32844E+04  9.73793E+03 -1.40879E+04 -2.22242E+03
 -1.25631E+04 -1.30263E+04 -8.87596E+02 -1.46633E+04  8.35366E+03 -1.24137E+04  8.15014E+03 -4.42499E+03
  4.93152E+03  1.85408E+03 -1.02054E+03  5.44432E+02 -1.02237E+03 -4.32025E+03  5.14856E+03 -8.17201E+03
  1.17063E+04 -6.97675E+03  1.84707E+04  3.96771E+03  1.83343E+04  1.38734E+04  1.15671E+04  2.42214E+04
 -5.88314E+03  2.82340E+04 -2.34593E+04  2.07098E+04 -3.22620E+04  3.62326E+03 -2.52507E+04 -1.06868E+04
 -1.13408E+04 -1.84401E+04 -6.52496E+02 -1.64470E+04  4.76895E+03 -1.03319E+04  6.40155E+03 -5.37994E+03
  3.93395E+03 -3.36199E+03  4.80535E+03 -5.82451E+03  5.85399E+03 -5.48434E+03  9.61682E+03 -2.21716E+03
  1.28784E+04  3.83025E+03  8.65334E+03  1.22591E+04 -1.78111E+03  1.21382E+04 -1.34914E+04  1.04490E+04
 -1.70621E+04 -4.42133E+02 -1.09458E+04 -1.16482E+04 -2.32466E+03 -1.99913E+04  1.13863E+04 -2.01792E+04
  2.16585E+04 -9.13998E+03  2.32542E+04  3.88334E+03  1.40937E+04  1.75966E+04  1.54580E+02  2.17041E+04
 -9.84397E+03  1.72287E+04 -1.19804E+04  6.20402E+03 -7.59422E+03 -2.77304E+03 -3.67606E+03 -3.21394E+03
 -1.82459E+03 -4.84756E+02 -2.99035E+03  4.48469E+03 -7.13204E+03  4.08397E+03 -1.11985E+04 -2.44618E+03
 -9.54148E+03 -1.30365E+04 -6.92016E+02 -1.69270E+04  1.13054E+04 -1.53846E+04  1.71060E+04 -5.20907E+03
  1.72604E+04  9.22161E+03  7.12625E+03  1.68119E+04 -2.21502E+03  1.80149E+04 -1.12415E+04  1.10537E+04
 -1.70391E+04  4.16053E+02 -1.36678E+04 -9.62740E+03 -4.30855E+02 -1.44040E+04  7.81290E+03 -1.04355E+04
  1.23271E+04 -2.40458E+03  6.87974E+03  4.86366E+03  2.33318E+03  6.18688E+03  2.91580E+03  1.82011E+03
  3.51716E+03  7.57797E-01  4.34919E+03  4.33648E+03  4.64170E+03  5.34445E+03  3.00038E+03  9.70940E+03
 -3.65037E+03  1.52270E+04 -1.29226E+04  1.51239E+04 -2.11763E+04  6.00085E+03 -2.07442E+04 -7.93539E+03
 -9.68203E+03 -1.87346E+04  2.38403E+03 -2.07668E+04  1.08446E+04 -1.35208E+04  1.57144E+04 -3.36275E+03
  1.34411E+04  4.95919E+03  2.78696E+03  1.19018E+04 -6.01978E+03  8.35951E+03 -6.63662E+03 -8.87729E+02
 -4.09336E+03 -5.66505E+03  4.97771E+03 -6.64403E+03  9.97669E+03 -1.11546E+03  7.60767E+03  1.31551E+03
  4.27336E+03  2.12192E+03  3.31076E+03  3.72233E+03 -2.38472E+02  2.98675E+03  2.58840E+03 -1.79819E+03
  3.16744E+03 -1.12972E+03  7.23948E+03  4.36929E+03  3.73734E+03  1.04169E+04 -1.65914E+03  1.35273E+04
 -8.40903E+03  8.02652E+03 -1.07405E+04  1.80585E+03 -1.16526E+04 -2.41450E+03 -3.91414E+03 -6.43661E+03
  2.16823E+03 -8.58217E+03  5.06037E+03 -4.40878E+03  5.15330E+03  3.73269E+03 -5.18743E+02  5.93303E+03
 -9.52308E+03  5.12118E+03 -1.08663E+04 -2.98994E+03 -5.08128E+03 -9.85120E+03  1.98568E+03 -1.16447E+04
  7.19211E+03 -6.54500E+03  7.99487E+03 -1.87444E+03  7.98554E+03  2.70140E+03 -5.10305E+02  6.78731E+03
 -6.70224E+03  2.97920E+03 -4.29727E+03 -4.80177E+03  1.60663E+03 -9.43530E+03  9.12317E+03 -7.70338E+03
  1.05963E+04 -1.42079E+03  1.13638E+04  9.56035E+03  3.69676E+03  1.27599E+04 -4.76039E+03  1.08104E+04
 -1.03795E+04  6.39136E+03 -1.24251E+04 -9.56218E+02 -7.31678E+03 -9.87082E+03  3.63126E+02 -8.54067E+03
  8.17704E+03 -5.04532E+03  8.79229E+03  4.56536E+03  2.59213E+03  5.30828E+03 -9.69497E+02  6.41946E+03
 -4.72517E+03  4.01638E+03 -3.55227E+03  1.07866E+03 -1.12896E+03  9.12098E+02 -2.13304E+03  2.02404E+03
 -4.79537E+03  5.94177E+03 -7.49872E+03  6.14966E+03 -1.30050E+04  1.83418E+02 -1.40484E+04 -8.23314E+03
 -7.32548E+03 -1.68535E+04  4.52520E+03 -2.13006E+04  1.28967E+04 -1.66479E+04  1.91701E+04 -7.66654E+03
  1.95197E+04  4.52819E+03  1.16781E+04  1.33509E+04  3.04286E+03  1.53009E+04 -5.43240E+03  9.35736E+03
 -6.84203E+03  4.29798E+03 -5.81181E+03 -9.25684E+02 -2.06671E+03 -8.04821E+02 -1.94867E+03 -4.56760E+02
 -2.73557E+03  7.44569E+02 -2.74394E+03 -2.05833E+02 -4.39168E+03 -3.96577E+03  8.97242E+01 -5.56623E+03
  5.79315E+03 -3.37729E+03  9.05292E+03  6.39970E+02  7.21894E+03  8.57704E+03  4.62097E+03  1.37284E+04
 -5.99714E+03  1.61924E+04 -1.47080E+04  8.44412E+03 -1.71564E+04 -3.98483E+02 -1.45311E+04 -1.05650E+04
 -4.10459E+03 -1.45718E+04  2.98476E+03 -1.40422E+04  8.79544E+03 -6.63695E+03  9.35681E+03  2.44240E+03
  4.74536E+03  2.74117E+03 -4.35115E+03  4.80662E+03 -3.28392E+03 -1.26670E+03  1.48229E+03 -2.66305E+03
  3.79775E+03 -4.64197E+03  6.32108E+03  2.98810E+02  3.93437E+03  5.38284E+03  9.25373E+02  8.17267E+03
 -8.48189E+03  6.33543E+03 -9.38605E+03  9.78132E+01 -9.12117E+03 -8.74748E+03 -1.04118E+03 -1.25015E+04
  7.97170E+03 -9.31865E+03  1.08487E+04 -2.31004E+03  1.46855E+04  2.99181E+03  4.34318E+03  9.86040E+03
  1.21625E+03  1.02498E+04 -1.81778E+03  8.36957E+03 -6.59382E+03  5.73853E+03 -5.88944E+03  6.24466E+02
 -4.24569E+03 -1.11029E+03 -3.51347E+03  1.61198E+03 -6.15809E+03  4.34236E+03 -5.19294E+03 -1.15010E+03
 -5.28358E+03 -5.84154E+03 -2.62807E+03 -1.03241E+04  5.35153E+03 -1.04064E+04  7.98214E+03 -5.28022E+03
  8.58711E+03  2.05127E+03  5.02443E+03  7.39532E+03  1.17572E+03  8.01862E+03 -7.67731E+03  6.47652E+03
