 $NMID ID='MM_0lb_SNR200_18hz_g40_46.RAW', FMTDAT='(8E13.5)'
 TRAMP=1., VOLUME=1. $END
  3.09771E+05  8.82418E+02  3.37581E+05  2.50826E+05  8.42063E+04  3.37946E+05 -1.32909E+05  2.50346E+05
 -1.89290E+05  8.19306E+04 -1.11045E+05 -3.33519E+04  2.00561E+03 -4.94774E+04  5.38372E+04 -4.79999E+02
  3.50386E+04  5.24745E+04 -1.65895E+04  7.44889E+04 -6.08233E+04  6.25201E+04 -8.27236E+04  3.28481E+04
 -8.02394E+04 -1.26788E+04 -5.65716E+04 -5.06633E+04 -1.45491E+04 -6.79823E+04  2.58689E+04 -4.48902E+04
  3.92748E+04  4.64045E+03  1.62188E+04  4.70174E+04 -3.39279E+04  4.58601E+04 -6.51864E+04 -6.63973E+02
 -5.15990E+04 -5.54167E+04 -5.80125E+03 -7.42778E+04  3.32011E+04 -5.23228E+04  4.49990E+04 -1.67091E+04
  4.26342E+04  1.15865E+04  3.09620E+04  2.39485E+04  1.54222E+04  2.79981E+04 -4.16081E+03  2.66488E+04
 -2.08719E+04  1.30572E+04 -1.91651E+04 -5.17654E+03  4.32630E+03 -7.26245E+03  2.22730E+04  1.08978E+04
  8.11915E+03  3.37731E+04 -3.01291E+04  3.31204E+04 -6.10233E+04  2.18506E+03 -5.61444E+04 -4.11205E+04
 -1.21279E+04 -6.03261E+04  3.84378E+04 -4.28797E+04  5.50454E+04 -1.84963E+03  3.06440E+04  3.13558E+04
 -6.18852E+03  3.32589E+04 -2.77876E+04  1.24741E+04 -2.66814E+04 -6.10850E+03 -1.37717E+04 -1.02312E+04
 -7.52949E+03 -1.14055E+04 -4.01890E+02 -1.62756E+04  6.32946E+03 -2.34246E+04  1.48551E+04 -1.34231E+04
  1.09308E+04  3.52603E+03 -5.85106E+03  1.28028E+04 -1.93120E+04 -3.00112E+03 -8.18171E+03 -2.99649E+04
  1.97079E+04 -4.09575E+04  4.47381E+04 -1.88062E+04  4.11981E+04  1.80275E+04  1.41148E+04  4.16875E+04
 -1.49320E+04  3.10160E+04 -2.22138E+04  1.75101E+03 -7.98334E+03 -2.53432E+04  2.20054E+04 -3.12032E+04
  3.71920E+04 -7.84499E+03  3.07220E+04  2.32923E+04  1.54661E+04  4.20795E+04 -8.38911E+03  4.56086E+04
 -2.84587E+04  2.92093E+04 -3.77078E+04  8.74382E+03 -3.85551E+04 -1.38888E+04 -2.09059E+04 -3.47289E+04
  6.87679E+03 -3.53025E+04  2.95464E+04 -1.29983E+04  2.68703E+04  9.99752E+03  3.24931E+03  1.75838E+04
 -1.23440E+04  7.38078E+03 -8.83431E+03 -7.18428E+03  6.56950E+03 -9.98027E+03  1.69689E+04  7.57519E+03
  1.32766E+04  2.16041E+04 -6.75111E+03  2.22401E+04 -2.10611E+04  9.67940E+03 -2.45380E+04 -7.35054E+03
 -1.66395E+04 -1.67665E+04 -4.62734E+03 -1.57190E+04  4.80769E+03 -1.48631E+04  1.23813E+04 -1.37217E+04
  2.10081E+04 -1.17505E+04  2.83630E+04  3.23171E+02  2.15616E+04  1.64186E+04  3.36988E+03  3.20055E+04
 -1.61683E+04  2.67725E+04 -2.50365E+04  8.38336E+03 -1.81563E+04 -1.02147E+04 -3.87189E+03 -1.44295E+04
  3.18984E+03 -3.95998E+03 -2.26646E+03  5.47314E+03 -1.31007E+04  5.72137E+03 -1.26562E+04 -4.70650E+03
 -8.33649E+03 -1.53541E+04  4.79883E+03 -1.95013E+04  1.28520E+04 -1.31902E+04  1.41569E+04 -5.60080E+02
  8.06790E+03  1.10008E+04 -1.39150E+03  1.57886E+04 -9.36321E+03  7.81253E+03 -1.45119E+04 -3.35730E+03
 -1.18150E+04 -1.39244E+04 -2.04695E+03 -1.87882E+04  7.99888E+03 -1.57151E+04  1.56438E+04 -7.80400E+03
  1.46032E+04 -3.86261E+02  9.61034E+03  3.79372E+03  5.77313E+03  4.70249E+02  7.93589E+03 -6.80660E+02
  1.32488E+04  3.66570E+03  1.46044E+04  1.22931E+04  8.43197E+03  2.36252E+04 -2.64316E+03  2.64712E+04
 -1.60688E+04  2.08121E+04 -2.41995E+04  9.80128E+03 -2.37443E+04 -2.20854E+03 -2.02499E+04 -1.37528E+04
 -1.00578E+04 -2.04946E+04  6.01981E+03 -1.99648E+04  1.73387E+04 -1.08524E+04  1.41011E+04  3.80997E+03
  6.64659E+03  1.13343E+04 -6.28231E+03  1.09434E+04 -1.38815E+04  3.20593E+03 -1.07875E+04 -7.35375E+03
  6.63261E+02 -1.26424E+04  5.27968E+03 -8.87162E+03  7.08818E+03 -1.28522E+03  4.05639E+02  4.80206E+03
 -4.99710E+03  1.69390E+03 -3.48595E+03 -5.38367E+03  9.85932E+02 -9.49464E+03  7.22594E+03 -9.43129E+03
  1.24230E+04 -5.58994E+03  1.22672E+04  3.57932E+03  1.01099E+04  9.90650E+03  5.60208E+03  1.34024E+04
 -7.80749E+02  1.55618E+04 -9.24137E+03  1.02265E+04 -1.14148E+04  2.81411E+03 -8.50378E+03 -1.02426E+03
 -5.11528E+03 -3.18061E+03 -7.14909E+02  2.21536E+03 -2.37995E+03  2.69727E+03 -4.75661E+03  3.74486E+03
 -6.56130E+03 -1.85959E+02 -9.38639E+03 -6.20035E+03 -3.68431E+03 -1.20145E+04  2.83337E+03 -8.93050E+03
  6.48886E+03 -4.32724E+03  5.04254E+03  2.03926E+03  1.19232E+03  3.49991E+03 -4.32281E+03 -7.53029E+02
 -2.53903E+03 -5.65116E+03 -8.01646E+02 -8.20856E+03  3.50423E+03 -8.73351E+03  9.85897E+03 -4.14512E+03
  1.11408E+04  6.62637E+02  8.72181E+03  7.47908E+03  2.18677E+03  8.82821E+03 -4.82188E+03  8.89346E+03
 -7.78622E+03  2.80992E+03 -2.80189E+03 -1.46408E+03  1.06390E+03 -1.71008E+03  4.94251E+03 -6.68318E+02
  3.80613E+03  3.77244E+03  1.18760E+03  5.93801E+03 -3.99690E+03  6.03682E+03 -8.00514E+03  2.01003E+03
 -4.87208E+03 -3.21737E+03 -1.17752E+02 -7.41669E+03  3.60465E+03 -3.01307E+03  2.94118E+03  1.60775E+03
  1.93765E+03  2.53235E+03 -4.59349E+03  4.69770E+03 -4.42814E+03  3.07940E+03 -4.18241E+03 -5.24938E+02
 -2.74930E+03 -5.21295E+03  1.37792E+03 -6.92459E+03  6.10257E+03 -4.50535E+03  6.55911E+03  1.49648E+03
  4.93137E+03  5.61008E+03  6.37162E+02  6.55012E+03 -6.09005E+03  3.27252E+03 -6.11356E+03  3.58601E+02
 -5.91080E+03 -5.86794E+03 -9.99726E+02 -4.56083E+03  2.34771E+03 -4.05244E+03  2.77614E+03 -2.70689E+03
  3.07125E+03  1.05337E+03 -4.43928E+02  1.83428E+03  2.82835E+02 -5.12617E+02 -4.18388E+02 -7.15112E+02
  4.14492E+03 -8.31538E+02  5.69950E+03  1.07411E+03  5.93061E+03  3.81910E+03  5.15381E+03  6.89338E+03
 -1.18686E+03  7.75894E+03 -7.09507E+03  6.81235E+03 -9.41950E+03  6.69639E+02 -8.08052E+03 -2.67297E+03
 -3.66978E+03 -6.31948E+03 -1.58900E+02 -4.41893E+03  1.42429E+03 -1.76443E+03  2.06140E+03 -2.23923E+03
  1.09225E+03 -1.95176E+03  3.12937E+03 -4.09888E+02  3.37380E+03 -1.08100E+03  3.96579E+03  5.91408E+02
  4.72866E+03  8.89307E+02  2.52519E+03  2.93479E+03 -1.43491E+03  2.91111E+03 -4.38999E+03  2.78945E+03
 -5.84933E+03 -1.23789E+03 -2.44470E+03 -3.50664E+03 -4.44810E+01 -5.20203E+03  3.24329E+03 -5.99827E+03
  5.06595E+03 -3.36959E+03  7.23458E+03  6.90194E+02  4.81074E+03  3.59166E+03  1.38108E+03  6.59376E+03
 -2.22676E+03  5.96998E+03 -3.19142E+03  1.19248E+03 -2.15016E+03 -9.38715E+02 -7.21033E+02  1.99226E+02
 -7.64092E+02  1.29851E+03  4.23830E+00  1.69945E+03 -3.22352E+03  1.73749E+03 -4.37441E+03 -1.64508E+02
 -2.20137E+03 -3.99059E+03  9.50038E+02 -3.63470E+03  2.44096E+03 -4.20315E+03  4.93745E+03  2.94769E+01
  3.87952E+03  2.65560E+03  1.97864E+03  3.33636E+03 -1.16761E+03  4.74555E+03 -2.65111E+03  3.61617E+03
 -3.18241E+03  1.01055E+03 -3.06588E+03 -1.83590E+03 -9.26474E+02 -3.48219E+03  2.40939E+03 -2.07881E+03
  3.15887E+03 -1.53590E+03  2.29389E+03 -7.26149E+02  3.06455E+02  1.75740E+03  1.61294E+03  8.55755E+02
  2.16950E+03  7.23453E+02  1.44652E+03  9.57227E+02  9.46546E+02  1.27041E+03  6.35423E+02  2.16845E+03
 -1.29799E+03  2.38487E+03 -2.23977E+03  4.14048E+03 -3.27500E+03  1.72023E+03 -4.19549E+03 -2.86727E+02
 -2.07889E+03 -3.99214E+03  4.75499E+02 -3.55730E+03  3.00368E+03 -2.57158E+03  3.82855E+03 -9.09542E+02
  3.78650E+03  2.91467E+03 -2.56149E+02  1.32202E+03 -9.23534E+02  1.50323E+03 -9.86922E+02 -2.51152E+02
 -3.01605E+02 -1.63939E+03  1.35907E+03 -6.29304E+02  1.91178E+03 -1.63243E+03  1.77789E+03  2.85957E+02
  1.13107E+02  7.63036E+02  1.34802E+03 -5.31940E+02 -7.02069E+02  1.94213E+02  1.28600E+03  7.97402E+02
  1.25998E+02 -1.17530E+03  2.23510E+03  5.80171E+02  5.97642E+02  2.17482E+03 -1.00832E+03  2.86493E+03
 -2.15427E+03  1.88162E+02 -2.42031E+03 -2.02801E+02 -3.22981E+03 -1.14022E+03 -2.40896E+02 -5.15902E+02
  5.08516E+02 -1.30265E+03  1.14346E+03 -6.06405E+02  6.24732E+00  8.14697E+02 -2.28412E+02  1.75836E+03
 -2.59793E+03  1.17691E+03 -1.92963E+03 -7.90323E+02 -1.59249E+02 -2.28550E+03  1.32137E+02 -2.17278E+03
  8.53223E+02 -8.93315E-01  1.13609E+03  1.01618E+03  2.16555E+03 -1.09392E+02  4.28854E+02  1.81555E+03
 -6.26769E+02  8.07466E+02 -1.06297E+03 -1.12144E+03  1.36281E+02  6.57352E+02  2.52267E+03 -1.65025E+03
  1.31937E+03 -1.87294E+01  3.11730E+03  1.41165E+03  1.39665E+03  1.24883E+03 -1.87656E+00  1.02133E+03
 -1.94302E+03  2.30668E+02 -1.78590E+03 -6.01949E+02  6.42369E+01 -5.40055E+02  2.60057E+02 -8.02870E+02
  1.36180E+03 -8.90560E+02  3.68068E+02  8.96083E+02 -6.20760E+02  5.43692E+02  1.19368E+03  6.34870E+02
 -1.86223E+02  1.58146E+03 -1.36948E+03  2.99797E+02  1.64577E+02  1.10617E+03 -3.63459E+02  1.36147E+03
 -7.25855E+02  7.82996E+02 -9.22460E+02  1.58281E+03 -2.31640E+03  3.96079E+02 -1.26744E+03 -1.12585E+03
 -1.77614E+03 -3.13028E+03  7.40670E+02 -2.22052E+03  1.62733E+03 -1.96725E+03  2.36521E+03 -1.25668E+03
  1.88732E+03 -9.86195E+02  2.41174E+03  1.90897E+03 -8.55221E+02  1.59930E+03 -1.83679E+03  1.17301E+03
 -1.89032E+03  2.39544E+03 -1.77395E+02  3.72369E+02  2.16530E+02  1.67791E+02 -3.94945E+02 -4.60590E+02
 -2.04985E+03 -4.22430E+02 -7.96115E+02  1.36269E+02 -7.07912E+02 -8.01026E+02 -5.73366E+02 -1.38755E+03
  1.23895E+03 -5.46941E+02  4.62425E+01 -4.75093E+02  1.18438E+03  6.77728E+02  4.89651E+02  1.78702E+03
 -5.76476E+00  2.92155E+03 -1.75953E+03  1.43239E+03 -1.84427E+03 -2.83512E+02 -2.03683E+03 -1.11670E+03
 -1.47145E+03 -1.38164E+03  9.91824E+02 -1.68843E+03  6.84349E+02  7.09797E+02 -2.00212E+02 -8.76437E+00
  2.78130E+02 -3.70629E+01 -3.09673E+02  2.89499E+02 -6.77658E+02 -2.51759E+02  4.80019E+02  2.38005E+02
 -4.03531E+02  3.70996E+02  1.44862E+02  7.64379E+02 -2.12997E+02  3.53200E+02  1.23940E+02  1.52171E+03
 -1.16144E+03  3.06995E+01 -7.85017E+02 -2.61373E+02 -4.99658E+02 -5.48721E+02 -9.73022E+02 -6.81995E+02
  4.42844E+02 -2.57205E+02 -3.86728E+02  7.35668E+02 -2.28286E+02 -1.06262E+03 -1.59090E+02  4.21548E+02
 -1.31846E+01  6.66287E+02  3.15497E+02  8.65455E+02 -1.29892E+03  2.48429E+02 -4.92131E+02  6.40489E+02
 -6.73044E+01 -9.39748E+02 -4.07352E+01  7.88757E+02 -2.68207E+02 -4.73229E+02 -5.05477E+02  9.69909E+01
 -9.55729E+02  6.18917E+02 -9.72960E+02 -6.39634E+02  1.63056E+03 -3.65743E+02 -1.43203E+02 -6.41642E+02
  1.82143E+02 -3.94131E+01 -1.03440E+03 -1.31877E+02 -1.16541E+02  1.23426E+03  4.28419E+02  1.17517E+03
