 $NMID ID='MM_0lb_SNR200_16hz_g50_21.RAW', FMTDAT='(8E13.5)'
 TRAMP=1., VOLUME=1. $END
  3.09315E+05  6.51873E+02  3.36276E+05  2.50459E+05  8.39552E+04  3.37195E+05 -1.31449E+05  2.51891E+05
 -1.88712E+05  8.41641E+04 -1.12396E+05 -3.33950E+04  1.48954E+03 -5.06031E+04  5.45962E+04  8.42352E+02
  3.55490E+04  5.26161E+04 -1.67184E+04  7.48840E+04 -6.15862E+04  6.37509E+04 -8.49346E+04  3.15637E+04
 -8.03735E+04 -1.10675E+04 -5.66734E+04 -5.07635E+04 -1.47431E+04 -6.82527E+04  2.71356E+04 -4.52385E+04
  4.12553E+04  3.38006E+03  1.70967E+04  4.82838E+04 -3.34472E+04  4.83730E+04 -6.62752E+04 -3.08173E+02
 -5.37296E+04 -5.66676E+04 -6.41882E+03 -7.64515E+04  3.29811E+04 -5.42599E+04  4.83141E+04 -1.64842E+04
  4.40330E+04  9.88422E+03  3.19439E+04  2.60991E+04  1.56743E+04  2.86306E+04 -4.12323E+03  2.68297E+04
 -2.17325E+04  1.29657E+04 -1.88340E+04 -4.59937E+03  4.66380E+03 -6.58930E+03  2.19494E+04  1.19919E+04
  7.30289E+03  3.35136E+04 -3.19727E+04  3.43385E+04 -6.24365E+04  1.72962E+03 -5.60974E+04 -4.22880E+04
 -1.31150E+04 -6.15498E+04  3.86514E+04 -4.40981E+04  5.67104E+04 -1.88270E+03  3.32452E+04  3.26124E+04
 -5.51478E+03  3.48785E+04 -2.75181E+04  1.51749E+04 -2.93244E+04 -4.94017E+03 -1.52279E+04 -9.84767E+03
 -8.12879E+03 -1.22316E+04 -1.64071E+03 -1.72234E+04  8.13108E+03 -2.34252E+04  1.52852E+04 -1.33519E+04
  1.30880E+04  4.44484E+03 -7.66920E+03  1.30812E+04 -1.99688E+04 -4.38409E+03 -8.25333E+03 -3.26259E+04
  2.24978E+04 -4.20896E+04  4.62956E+04 -1.82503E+04  4.33054E+04  1.88596E+04  1.51896E+04  4.37876E+04
 -1.65772E+04  3.23574E+04 -2.44364E+04  2.52238E+03 -9.64661E+03 -2.76113E+04  2.07015E+04 -3.26891E+04
  4.06648E+04 -8.20952E+03  3.37494E+04  2.26118E+04  1.70572E+04  4.51578E+04 -6.72463E+03  4.94313E+04
 -2.90263E+04  3.18974E+04 -4.01258E+04  9.05369E+03 -4.15679E+04 -1.66199E+04 -2.15767E+04 -3.60868E+04
  6.25364E+03 -3.58548E+04  2.92874E+04 -1.26492E+04  2.86250E+04  9.72011E+03  3.39748E+03  1.84091E+04
 -1.31555E+04  8.60948E+03 -9.27359E+03 -7.43292E+03  6.33445E+03 -1.02273E+04  1.84024E+04  6.73949E+03
  1.41588E+04  2.25820E+04 -6.17728E+03  2.32736E+04 -2.11755E+04  1.15293E+04 -2.75035E+04 -5.99389E+03
 -1.90360E+04 -1.55223E+04 -7.03238E+03 -1.94700E+04  3.64249E+03 -1.76443E+04  1.43044E+04 -1.67443E+04
  2.49240E+04 -1.22136E+04  3.08085E+04  1.32177E+03  2.40930E+04  1.91082E+04  4.61256E+03  3.41470E+04
 -1.75676E+04  2.95038E+04 -2.64427E+04  9.10646E+03 -1.99070E+04 -1.04765E+04 -4.34095E+03 -1.34587E+04
  2.74642E+03 -3.27791E+03 -4.58011E+03  6.48201E+03 -1.48254E+04  4.68504E+03 -1.58922E+04 -5.79638E+03
 -9.27308E+03 -1.77435E+04  4.69930E+03 -2.18677E+04  1.44738E+04 -1.56569E+04  1.64786E+04 -1.48033E+03
  1.04734E+04  1.17456E+04 -2.18651E+03  1.72918E+04 -1.13933E+04  9.67833E+03 -1.76252E+04 -3.60216E+03
 -1.46371E+04 -1.54620E+04 -1.95581E+03 -2.15893E+04  1.01922E+04 -1.78207E+04  1.74358E+04 -8.72386E+03
  1.66639E+04  6.95612E+02  1.05200E+04  4.80172E+03  6.44817E+03  1.24463E+03  8.60901E+03 -2.82317E+03
  1.67177E+04  3.56066E+03  1.65493E+04  1.41817E+04  1.19593E+04  2.71302E+04 -3.30939E+03  3.03373E+04
 -1.77636E+04  2.51450E+04 -2.92621E+04  1.35404E+04 -3.00480E+04 -2.34620E+03 -2.40369E+04 -1.64949E+04
 -1.08659E+04 -2.40042E+04  8.21704E+03 -2.22448E+04  2.04131E+04 -1.19911E+04  1.80458E+04  5.26043E+03
  6.81815E+03  1.38641E+04 -6.88426E+03  1.15968E+04 -1.51793E+04  2.05211E+03 -1.13678E+04 -7.60364E+03
 -5.62409E+02 -1.39757E+04  6.80233E+03 -1.00938E+04  1.06567E+04 -1.98683E+02  1.87995E+03  6.03630E+03
 -6.20225E+03  2.70134E+03 -5.02615E+03 -6.08273E+03  4.29423E+01 -1.17265E+04  9.20918E+03 -1.32242E+04
  1.48040E+04 -6.97326E+03  1.46083E+04  3.19451E+03  1.34638E+04  1.24321E+04  6.65075E+03  1.75282E+04
 -2.33611E+03  1.81630E+04 -1.18737E+04  1.18109E+04 -1.37750E+04  3.15675E+03 -8.48679E+03 -3.17480E+03
 -5.32760E+03 -5.53924E+03 -8.29153E+02  1.73266E+03 -2.23605E+03  1.89869E+03 -4.74746E+03  4.53870E+03
 -1.02029E+04 -7.86428E+02 -9.73140E+03 -9.24542E+03 -3.80009E+03 -1.32481E+04  4.27720E+03 -1.05703E+04
  6.97483E+03 -3.82483E+03  4.94212E+03  2.44720E+03  1.01246E+03  3.34256E+03 -3.77653E+03  6.31690E+02
 -4.35187E+03 -6.95618E+03 -1.20295E+03 -8.52332E+03  4.24338E+03 -9.67129E+03  1.16033E+04 -4.68087E+03
  1.37200E+04  6.14761E+02  1.10976E+04  7.53662E+03  2.69096E+03  1.16257E+04 -6.86963E+03  9.19430E+03
 -8.99983E+03  3.46865E+03 -3.69988E+03 -2.32355E+03  1.19419E+03 -1.73428E+03  5.10921E+03 -1.16173E+03
  5.05408E+03  5.42412E+03  1.21992E+03  7.93251E+03 -6.41084E+03  8.20113E+03 -1.01994E+04  3.79831E+03
 -5.40909E+03 -5.40474E+03  4.85307E+02 -7.48653E+03  4.60910E+03 -4.61599E+03  3.79674E+03  2.12433E+03
  5.77887E+02  4.22411E+03 -5.39577E+03  7.24927E+03 -5.83253E+03  2.99175E+03 -6.48482E+03 -6.76868E+02
 -4.25638E+03 -8.11588E+03  2.08415E+03 -1.00662E+04  7.94096E+03 -5.62245E+03  8.22451E+03  1.09676E+03
  5.26526E+03  6.44290E+03 -7.56222E+02  9.49147E+03 -7.62306E+03  4.16025E+03 -7.32648E+03 -1.42966E+03
 -6.90160E+03 -5.55479E+03 -1.22013E+03 -6.83159E+03  3.19275E+03 -3.86411E+03  3.48241E+03 -4.38901E+03
  3.55774E+03 -7.10302E+01 -5.59143E+01  1.92942E+03  1.33758E+02 -8.78774E+02  1.19268E+03 -2.79221E+03
  4.79909E+03 -4.11275E+02  8.18570E+03  6.96618E+02  6.42753E+03  4.88964E+03  6.82935E+03  1.01244E+04
 -1.49704E+03  1.08710E+04 -9.12222E+03  8.77712E+03 -1.27889E+04  7.86792E+02 -1.05511E+04 -3.86657E+03
 -5.71203E+03 -8.51677E+03 -1.19729E+03 -7.58893E+03  1.91567E+03 -3.01048E+03  9.63927E+02 -2.81489E+03
  2.38773E+03 -1.68943E+03  1.93392E+03 -3.31626E+03  3.95866E+03 -2.79387E+03  4.00834E+03 -9.94254E+02
  5.11581E+03  1.25443E+03  1.33289E+03  4.18255E+03 -2.74161E+03  5.14991E+03 -5.76169E+03  3.76029E+03
 -6.52059E+03 -1.71016E+02 -1.87011E+03 -6.43701E+03  4.95052E+02 -7.47343E+03  4.63027E+03 -7.77769E+03
  6.87955E+03 -4.16722E+03  8.14124E+03  1.71317E+03  6.89442E+03  6.11563E+03  9.37251E+02  7.16018E+03
 -2.24549E+03  6.49379E+03 -3.72807E+03  3.11291E+03 -2.95996E+03 -9.12503E+02 -1.84746E+03 -3.11518E+02
 -8.96225E+02 -2.27693E+01 -2.26349E+02  1.96225E+03 -2.18076E+03  2.34580E+03 -5.20110E+03 -8.31426E+02
 -2.62982E+03 -4.60588E+03  3.47894E+02 -7.26331E+03  2.63228E+03 -5.05877E+03  5.08145E+03 -1.08305E+03
  5.10494E+03  3.56677E+03  2.29526E+03  5.69887E+03 -1.62722E+03  5.42105E+03 -3.93654E+03  3.57520E+03
 -5.88958E+03  6.96205E+01 -3.70128E+03 -3.07812E+03  2.25714E+02 -5.81725E+03  3.44692E+03 -4.43951E+03
  5.37978E+03 -1.43606E+03  8.89009E+02  2.34011E+03 -2.89671E+02  3.48912E+02  3.01075E+02  1.11016E+03
  2.66986E+03  3.68982E+02  1.46813E+03  1.32723E+03  1.40587E+03  1.86817E+03  1.91083E+03  2.96663E+03
 -2.20750E+03  3.39234E+03 -4.18394E+03  5.16696E+03 -6.09867E+03  1.18045E+03 -5.52963E+03 -1.58686E+03
 -2.58162E+03 -5.67599E+03  5.22643E+02 -7.06638E+03  3.36929E+03 -3.43640E+03  4.35472E+03 -1.18286E+03
  2.49774E+03  1.35714E+03 -3.03307E+02  3.00924E+03 -9.64638E+02  3.04477E+03 -1.38314E+03  3.43687E+02
 -1.30872E+03 -2.97958E+03  1.39357E+03 -2.63544E+03  1.82041E+03 -1.66359E+02  2.91970E+03  9.15410E+02
  1.08775E+03  8.66447E+02  1.30311E+03 -1.21809E+02 -1.27086E+03  2.42383E+03  1.26931E+02 -9.32628E+02
  8.04805E+02  2.28618E+00  1.09039E+03  2.36022E+03  3.40538E+02  3.17295E+03 -9.57576E+02  4.72427E+03
 -2.14773E+03  2.33819E+03 -2.97723E+03  7.38606E+02 -2.96791E+03 -1.32426E+03 -1.66629E+03 -2.49364E+03
  5.72472E+02 -2.01138E+03  1.82133E+03 -3.37287E+02  1.24882E+03  1.79422E+03 -1.53578E+03  1.39681E+03
 -2.15055E+03  1.13035E+03 -1.61968E+03 -1.12403E+03 -1.03875E+03 -3.69951E+03  2.34995E+02 -1.24011E+03
  2.23136E+03 -1.46899E+03  8.26226E+02  3.19109E+02  2.89500E+03  2.34266E+02  1.31923E+03  8.42691E+02
 -7.62150E+02  1.44026E+03 -2.59982E+03 -1.07355E+03  1.62293E+03 -7.98246E+02  2.49712E+03 -1.93043E+03
  2.62513E+03  1.78803E+03  3.96523E+03  1.72541E+03  1.71023E+03  2.68935E+03 -8.64038E+01  3.01655E+03
 -2.42832E+03  5.72867E+02 -3.69165E+03  3.98021E+02 -1.48408E+03 -2.48900E+03  6.80307E+02 -1.82685E+03
  2.87463E+03 -1.93512E+03  1.69674E+03  3.06379E+02  1.19757E+03  1.02849E+03 -1.64411E+01  1.48390E+03
 -1.36183E+03  1.87278E+03 -2.79290E+02  9.26582E+02  3.13173E+02  4.60472E+02 -1.06128E+03  8.09232E+02
 -1.88145E+03  2.24211E+03 -2.76527E+03  7.23286E+02 -3.73852E+03  1.26542E+02 -3.63484E+03 -1.53954E+03
 -2.58870E+03 -4.41828E+03  2.40397E+03 -4.34509E+03  1.86559E+03 -3.11777E+03  4.17290E+03 -6.35658E+02
  3.78663E+03 -1.74286E+03  2.60044E+03  2.24530E+03 -1.41411E+02  1.51678E+03 -1.70363E+03  2.43988E+03
 -1.81285E+03  5.24099E+02 -1.82786E+03  7.01361E+02 -1.35158E+03 -1.48243E+02 -9.60478E+02  1.34278E+02
 -7.57404E+02 -7.32414E+01 -8.73957E+02  1.04648E+03 -9.12267E+02 -1.87718E+03 -8.40854E+02 -8.00958E+02
  1.40050E+03 -3.93832E+02  1.37601E+03  2.06587E+02  1.51974E+03  1.75978E+03  2.27616E+02  2.35209E+03
 -1.42668E+03  3.38498E+03 -2.89236E+03  1.76315E+03 -3.38634E+03 -1.73736E+02 -2.59739E+03 -2.62752E+03
 -1.25532E+03 -1.64040E+03 -9.75844E+02 -1.66635E+03  1.68106E+03 -1.78305E+03  8.32453E+02  1.96360E+02
  5.68117E+02  9.29778E+02  8.15852E+02  5.88378E+02 -3.73703E+02  1.07037E+03 -3.41039E+02 -1.44599E+03
  4.60000E+02 -8.49900E+02  8.19440E+01 -5.03793E+02  1.29536E+03  1.12315E+03 -2.35782E+02 -3.16218E+02
 -1.32878E+03  1.04174E+03 -1.43885E+03 -8.09219E+02 -2.39860E+03 -1.23786E+03 -1.46309E+02 -1.65137E+03
  1.63516E+03 -5.32512E+02  1.61385E+03  1.29090E+03  2.15229E+03 -1.37946E+03  1.47445E+03  1.42198E+03
 -5.87743E+01  2.00149E+03 -1.85387E+02  1.51556E+03 -1.59984E+03  1.00783E+03 -1.24135E+03 -1.22220E+02
 -1.94095E+03  6.78497E+02 -5.65013E+02  9.14650E+02 -5.25764E+02  6.61215E+02 -7.85739E+02 -6.51238E+02
 -1.85177E+03 -1.64125E+03  2.32218E+02 -7.28579E+02  1.65504E+03 -1.58788E+03  6.53368E+01 -8.92193E+02
  1.56126E+03 -8.63427E+02 -1.53037E+02  6.92322E+02 -9.48017E+01  2.23040E+03 -7.39896E+01  7.76425E+02
