 $NMID ID='MM_0lb_SNR200_19hz_g45_37.RAW', FMTDAT='(8E13.5)'
 TRAMP=1., VOLUME=1. $END
  3.10189E+05  5.23385E+02  3.37326E+05  2.50971E+05  8.42023E+04  3.37561E+05 -1.32418E+05  2.50744E+05
 -1.89390E+05  8.34567E+04 -1.11150E+05 -3.37846E+04  8.38606E+02 -5.00648E+04  5.42413E+04  3.35420E+02
  3.54223E+04  5.37173E+04 -1.75567E+04  7.49777E+04 -6.02358E+04  6.27804E+04 -8.27099E+04  3.10409E+04
 -7.94150E+04 -1.17346E+04 -5.49365E+04 -4.98491E+04 -1.50048E+04 -6.84238E+04  2.58855E+04 -4.47935E+04
  3.90429E+04  3.63410E+03  1.50325E+04  4.74258E+04 -3.34060E+04  4.63390E+04 -6.55733E+04 -5.76202E+02
 -5.22847E+04 -5.55418E+04 -5.95855E+03 -7.47826E+04  3.30840E+04 -5.25044E+04  4.66658E+04 -1.59713E+04
  4.12328E+04  1.09801E+04  3.10438E+04  2.35428E+04  1.57542E+04  2.73255E+04 -4.23715E+03  2.65794E+04
 -2.09185E+04  1.24102E+04 -1.92093E+04 -4.59426E+03  4.60053E+03 -7.58021E+03  2.20507E+04  9.36113E+03
  7.47455E+03  3.34280E+04 -3.02541E+04  3.26957E+04 -6.06885E+04  2.63671E+03 -5.41465E+04 -4.03131E+04
 -1.14613E+04 -5.89290E+04  3.84644E+04 -4.31708E+04  5.45613E+04 -2.38095E+03  3.13703E+04  2.98365E+04
 -6.31730E+03  3.20283E+04 -2.80642E+04  1.20856E+04 -2.64506E+04 -6.42137E+03 -1.42343E+04 -8.70248E+03
 -6.40055E+03 -1.14859E+04 -1.17658E+03 -1.70430E+04  6.57921E+03 -2.25074E+04  1.56026E+04 -1.42043E+04
  1.35312E+04  3.80779E+03 -5.09042E+03  1.30976E+04 -1.87688E+04 -2.44037E+03 -7.00084E+03 -3.05282E+04
  2.03137E+04 -3.92829E+04  4.42071E+04 -1.82170E+04  4.20986E+04  1.76304E+04  1.34656E+04  4.08807E+04
 -1.47773E+04  3.10994E+04 -2.23439E+04  1.29102E+03 -7.68294E+03 -2.57464E+04  2.04708E+04 -3.13742E+04
  3.67967E+04 -6.99298E+03  3.07116E+04  2.20924E+04  1.36427E+04  4.17142E+04 -8.43876E+03  4.53667E+04
 -2.77860E+04  2.90322E+04 -3.60941E+04  7.40216E+03 -3.75999E+04 -1.55268E+04 -2.11202E+04 -3.47783E+04
  7.62700E+03 -3.35631E+04  2.89212E+04 -1.29291E+04  2.66729E+04  9.67295E+03  3.09971E+03  1.67090E+04
 -1.36326E+04  6.37287E+03 -8.99991E+03 -8.17458E+03  5.97784E+03 -1.01108E+04  1.71688E+04  6.42588E+03
  1.19742E+04  2.05605E+04 -5.87614E+03  2.32776E+04 -2.00999E+04  9.50296E+03 -2.45375E+04 -6.01406E+03
 -1.59179E+04 -1.57915E+04 -5.16829E+03 -1.59926E+04  4.09263E+03 -1.47134E+04  1.18661E+04 -1.41032E+04
  2.02719E+04 -1.07313E+04  2.64784E+04  1.57841E+03  2.03353E+04  1.66013E+04  3.11649E+03  3.23485E+04
 -1.54909E+04  2.71388E+04 -2.55590E+04  1.00136E+04 -1.89976E+04 -1.08286E+04 -3.59424E+03 -1.40357E+04
  2.89032E+03 -4.18346E+03 -3.59365E+03  5.15326E+03 -1.33235E+04  5.38181E+03 -1.35588E+04 -4.52996E+03
 -8.42518E+03 -1.47405E+04  5.45809E+03 -1.81111E+04  1.23298E+04 -1.35287E+04  1.37342E+04 -9.02312E+02
  8.40932E+03  1.01870E+04 -9.01148E+02  1.47128E+04 -1.03440E+04  8.04492E+03 -1.46919E+04 -3.48658E+03
 -1.10806E+04 -1.32445E+04 -7.19410E+02 -1.85370E+04  8.46256E+03 -1.51069E+04  1.58764E+04 -7.06381E+03
  1.39464E+04  6.71029E+02  1.05350E+04  3.32293E+03  4.56689E+03  6.04356E+02  6.82058E+03 -1.32901E+03
  1.30518E+04  3.09909E+03  1.44992E+04  1.28243E+04  7.16488E+03  2.31879E+04 -2.33431E+03  2.58110E+04
 -1.55982E+04  2.05945E+04 -2.31884E+04  9.69862E+03 -2.29481E+04 -1.42952E+03 -2.04226E+04 -1.36570E+04
 -9.49847E+03 -2.01745E+04  6.24926E+03 -1.81818E+04  1.62032E+04 -9.85373E+03  1.58011E+04  4.31302E+03
  5.99887E+03  1.06628E+04 -6.92898E+03  9.39811E+03 -1.33608E+04  2.50620E+03 -9.14870E+03 -7.94084E+03
 -2.74198E+02 -1.23902E+04  5.43169E+03 -1.03771E+04  8.26177E+03 -1.89707E+03  1.30817E+03  4.30408E+03
 -5.05994E+03  1.54370E+03 -2.85616E+03 -4.42773E+03  1.65206E+03 -1.01006E+04  6.85404E+03 -9.72268E+03
  1.11144E+04 -4.35117E+03  1.07690E+04  2.57196E+03  9.33855E+03  9.04120E+03  4.31513E+03  1.30614E+04
 -1.43019E+03  1.55103E+04 -8.86716E+03  1.04408E+04 -9.76373E+03  3.69777E+03 -7.55634E+03 -1.68531E+03
 -4.64595E+03 -4.29708E+03 -1.28647E+03  1.13203E+03 -1.44436E+03  1.57572E+03 -4.28130E+03  2.48560E+03
 -8.01347E+03  1.51126E+02 -8.24071E+03 -6.68400E+03 -3.58617E+03 -1.11011E+04  2.55924E+03 -7.65785E+03
  7.32613E+03 -2.50541E+03  4.69000E+03  1.35376E+03  1.06954E+03  1.97915E+03 -3.94833E+03 -4.53321E+02
 -3.30832E+03 -5.00087E+03 -1.12946E+02 -6.77410E+03  4.12195E+03 -7.90960E+03  8.23872E+03 -4.95088E+03
  1.15228E+04  4.90422E+00  8.36751E+03  6.33322E+03  1.84779E+03  7.85964E+03 -5.89602E+03  7.93425E+03
 -6.53957E+03  3.12089E+03 -2.92677E+03 -4.91376E+02  1.46757E+03 -1.15140E+03  5.19843E+03 -1.12777E+03
  2.68007E+03  4.29970E+03  2.29522E+03  5.88805E+03 -5.31103E+03  6.27242E+03 -7.35979E+03  2.00781E+03
 -3.97998E+03 -3.99215E+03 -5.38076E+02 -5.65909E+03  3.46723E+03 -2.60891E+03  3.05278E+03  2.25713E+02
  5.56888E+01  2.41681E+03 -3.34314E+03  5.37831E+03 -3.74738E+03  3.27929E+03 -4.35940E+03 -2.85192E+02
 -2.27764E+03 -4.99164E+03  1.13914E+03 -7.21290E+03  4.20873E+03 -5.11221E+03  5.60687E+03  7.43789E+02
  4.09374E+03  4.63514E+03  1.04456E+03  6.59998E+03 -3.91888E+03  5.69414E+03 -5.01825E+03 -1.63400E+02
 -5.32441E+03 -4.76417E+03 -1.52683E+03 -4.91964E+03  1.82840E+03 -5.29404E+03  3.17506E+03 -3.44035E+03
  1.64735E+03  5.44804E+02 -6.25396E+02  2.51984E+02 -8.68975E+01 -5.92315E+02 -8.06895E+02 -1.15732E+03
  3.63854E+03 -5.36641E+02  5.17102E+03  9.35273E+02  4.97815E+03  3.52415E+03  4.54337E+03  6.54370E+03
 -1.69381E+03  8.02938E+03 -7.23969E+03  5.59270E+03 -9.18632E+03  1.12191E+03 -7.30050E+03 -1.82885E+03
 -3.42955E+03 -4.39138E+03 -7.73849E+02 -4.66386E+03  2.47918E+03 -1.36635E+03  1.99897E+03 -2.03213E+03
  5.94806E+02 -1.48142E+03  1.88109E+03 -1.12266E+03  2.39850E+03 -1.54638E+03  3.61556E+03 -4.82782E+02
  5.38378E+03  8.47361E+01  4.91877E+02  3.18099E+03 -1.64454E+03  2.06128E+03 -4.53669E+03  1.21814E+03
 -4.07823E+03 -1.30508E+03 -2.40406E+03 -2.92351E+03  1.48060E+03 -5.41702E+03  2.75294E+03 -5.08751E+03
  4.41122E+03 -3.22517E+03  6.47758E+03  7.77057E+02  4.89344E+03  4.33439E+03  1.51682E+03  5.10379E+03
 -3.95582E+03  5.30971E+03 -4.03316E+03  1.93496E+03 -1.52119E+03 -8.59203E+02 -1.78858E+03 -1.34436E+03
  8.66620E+02 -9.36985E+02 -1.13543E+03  2.12553E+03 -2.54374E+03  1.41296E+03 -4.81390E+03  2.06242E+02
 -9.65238E+02 -3.81951E+03  7.51734E+02 -4.28106E+03  2.05518E+03 -4.78364E+03  3.44714E+03 -7.94041E+02
  2.52508E+03  2.52502E+03  8.94655E+02  2.49385E+03 -2.49486E+02  3.54985E+03 -2.24870E+03  2.17018E+03
 -3.24011E+03  6.37807E+02 -2.95625E+03 -3.83212E+03  6.83461E+02 -3.33325E+03  2.00876E+03 -1.83734E+03
  2.43202E+03 -5.84039E+02  1.02002E+03  2.05078E+02  4.56604E+02  1.62828E+03  7.73615E+02 -3.87586E+02
  2.14794E+03  1.90086E+02  1.17642E+03  9.37266E+01  1.08916E+03  2.71725E+03  1.79673E+03  1.62645E+03
 -1.44923E+03  2.01767E+03 -3.00086E+03  4.11383E+03 -2.96613E+03  7.48323E+02 -3.50282E+03 -4.02719E+02
 -1.18158E+03 -3.63237E+03  6.88675E+02 -4.88062E+03  1.74401E+03 -2.74647E+03  2.36511E+03 -1.74736E+03
  2.12288E+03  2.31804E+03  6.66059E+02  2.09653E+03 -7.05479E+02  1.79897E+03 -2.79481E+01 -7.84781E+02
 -6.71167E+02 -8.67680E+02  9.53647E+02 -1.95748E+03  1.29173E+03 -5.47327E+02  1.15848E+03 -6.71658E+02
  3.08959E+02 -4.83922E+02  4.75678E+02 -1.36506E+02 -5.19878E+02  3.51321E+02  1.63197E+03 -5.67885E-01
 -2.03750E+02 -4.82872E+02  2.19483E+03 -1.15180E+01  5.33447E+02  2.72744E+03 -8.79308E+02  2.59325E+03
 -1.50013E+03  1.25007E+03 -2.15559E+03 -4.04578E+02 -2.78661E+03 -3.96236E+02 -5.61785E+02 -1.49672E+03
  7.84773E+02 -5.99382E+02  1.17933E+03 -1.21375E+03 -5.43879E+01  7.65821E+02 -1.06559E+03  1.11834E+03
 -9.92704E+02  5.64162E+02 -8.40149E+02 -9.74552E+02 -1.32859E+03 -2.56813E+03 -4.77695E+02 -1.30847E+03
 -4.53354E+01 -4.34456E+02  1.06328E+03  5.71473E+02  1.37350E+03  2.47412E+02  1.21368E+02  8.68516E+02
 -1.02022E+02 -2.11258E+01 -9.00852E+02 -9.00872E+02  1.24259E+03 -3.01527E+02  1.03583E+03 -3.48608E+02
  1.60048E+03 -4.71748E+02  1.67431E+03  5.39756E+02  1.19338E+03  2.28356E+02  5.18300E+02  1.49089E+03
 -9.86190E+02  5.21437E+02 -1.87734E+03 -5.35759E+02 -6.42022E+02 -1.43883E+03  1.22374E+00 -3.60507E+02
  1.85457E+03 -1.16147E+03  7.18052E+02  3.13491E+02  7.46439E+02  1.13439E+03  1.06813E+03  7.04222E+02
 -8.71357E+00  1.59189E+03 -2.46679E+01  2.46081E+02  8.49321E+02  4.30297E+01 -1.30798E+03 -6.95323E+02
  3.01173E+01  4.84815E+02 -1.81135E+03 -9.24221E+02 -1.30390E+03 -1.77947E+02 -2.28361E+03 -1.09646E+03
 -5.68592E+02 -1.35629E+03  3.82489E+02 -3.14644E+03  6.48498E+02 -2.46364E+03  2.52807E+03 -1.82768E+03
  1.40080E+03 -1.31387E+02  1.35188E+03  1.30404E+03 -5.45367E+02  7.26760E+02 -3.99852E+02  1.15390E+03
 -1.27378E+03  1.23588E+03 -8.96114E+01 -3.95482E+02 -1.07317E+03  9.78131E+02 -6.21562E+02  8.12232E+01
 -8.62442E+02 -9.04228E+01 -1.26203E+03  7.95422E+02  2.63298E+02  1.55432E+02  2.71552E+02 -1.46323E+03
  1.03267E+03 -8.30555E+02  8.42360E+02  5.32454E+02  9.55719E+02  5.40535E+02 -1.01549E+03  3.57303E+02
 -1.47901E+03  1.55180E+03 -4.19855E+02  8.24362E+02 -5.98595E+02 -7.24843E+02 -8.30915E+02 -1.45060E+03
 -1.45083E+02 -1.93060E+03 -3.71980E+02 -5.61653E+02  6.96029E+02 -7.57834E+02  3.51636E+02  5.00142E+02
  2.86132E+02  3.63625E+02 -2.86448E+02  7.85028E+02 -2.43121E+02 -6.73403E+02 -4.11186E+01  1.10139E+02
  1.71516E+03 -1.65351E+02  1.31931E+03 -2.28797E+01  3.62669E+02  8.36344E+01  5.63017E+02  1.13529E+02
 -2.36767E+02  4.54330E+02 -9.22522E+02  2.20656E+02 -5.69862E+02  7.89318E+02 -3.78241E+02 -1.57346E+03
  5.75396E+02 -1.93263E+02  9.16792E+01 -1.59298E+01  1.25367E+03 -1.65146E+03  3.59160E+02  5.18100E+02
  3.15107E+02  1.19844E+03  4.46195E+02 -4.08286E+02  2.52481E+02 -7.02445E+01 -7.32599E+02  1.11361E+03
  4.04870E+02 -4.51791E+02 -7.25431E+02  5.11243E+02 -3.26969E+02 -2.08849E+02 -1.43366E+03  5.39711E+02
 -1.66902E+03  5.10804E+02 -1.15723E+03 -1.10402E+03  1.37761E+03 -2.43262E+03 -4.73271E+01 -4.65122E+01
  1.06917E+03 -5.79276E+02 -1.03081E+02 -1.55579E+02 -1.45329E+02  7.51696E+02  1.71763E+02  3.27030E+02
