 $NMID ID='MM_0lb_SNR200_17hz_g50_100.RAW', FMTDAT='(8E13.5)'
 TRAMP=1., VOLUME=1. $END
  3.09241E+05 -2.96007E+02  3.38332E+05  2.49825E+05  8.48087E+04  3.37870E+05 -1.32599E+05  2.50886E+05
 -1.89238E+05  8.25463E+04 -1.11436E+05 -3.23401E+04  1.44472E+03 -5.07943E+04  5.43447E+04  2.34799E+02
  3.55002E+04  5.28138E+04 -1.62423E+04  7.58044E+04 -6.06398E+04  6.31740E+04 -8.33126E+04  3.18690E+04
 -8.06128E+04 -1.15343E+04 -5.65912E+04 -4.99625E+04 -1.47152E+04 -6.89042E+04  2.77957E+04 -4.55974E+04
  3.94243E+04  3.56014E+03  1.66541E+04  4.79314E+04 -3.45813E+04  4.76034E+04 -6.67137E+04 -4.80929E+02
 -5.27524E+04 -5.71268E+04 -6.08129E+03 -7.50753E+04  3.37794E+04 -5.33699E+04  4.75857E+04 -1.58590E+04
  4.32413E+04  1.17206E+04  3.05895E+04  2.48804E+04  1.57119E+04  2.82301E+04 -5.05413E+03  2.63901E+04
 -2.07267E+04  1.29185E+04 -1.72222E+04 -4.48105E+03  3.90781E+03 -8.22435E+03  2.23358E+04  1.19626E+04
  7.55908E+03  3.45914E+04 -3.16133E+04  3.35602E+04 -6.17873E+04  2.24664E+03 -5.59050E+04 -4.20378E+04
 -1.27524E+04 -6.26513E+04  3.97523E+04 -4.39851E+04  5.64930E+04 -1.40482E+03  3.31982E+04  3.08366E+04
 -5.72996E+03  3.51903E+04 -2.86249E+04  1.32186E+04 -2.97585E+04 -4.34855E+03 -1.54025E+04 -9.85029E+03
 -6.96029E+03 -1.26913E+04  6.75696E+02 -1.65864E+04  8.86077E+03 -2.37795E+04  1.57248E+04 -1.35632E+04
  1.20270E+04  3.85827E+03 -6.55331E+03  1.31461E+04 -1.91340E+04 -4.14604E+03 -7.88233E+03 -3.28748E+04
  2.04570E+04 -4.17067E+04  4.55996E+04 -1.85901E+04  4.22509E+04  1.83199E+04  1.59205E+04  4.30561E+04
 -1.48490E+04  3.20670E+04 -2.49329E+04  1.28463E+03 -8.59175E+03 -2.69402E+04  2.02423E+04 -3.18732E+04
  3.91725E+04 -8.02550E+03  3.25861E+04  2.39993E+04  1.70153E+04  4.47421E+04 -7.96721E+03  4.67345E+04
 -2.99688E+04  3.07570E+04 -3.99408E+04  8.77046E+03 -3.91149E+04 -1.54152E+04 -2.26653E+04 -3.51741E+04
  6.89248E+03 -3.56382E+04  3.02871E+04 -1.29692E+04  2.74732E+04  1.05952E+04  3.03890E+03  1.86171E+04
 -1.31232E+04  7.68424E+03 -1.04200E+04 -6.93646E+03  5.43989E+03 -9.92261E+03  1.63009E+04  6.65844E+03
  1.23549E+04  2.21696E+04 -6.75958E+03  2.43866E+04 -2.14421E+04  1.00441E+04 -2.62518E+04 -5.50754E+03
 -1.83742E+04 -1.69426E+04 -7.74570E+03 -1.88849E+04  4.01860E+03 -1.74865E+04  1.25760E+04 -1.73110E+04
  2.46881E+04 -1.14161E+04  2.95386E+04  2.09347E+03  2.30229E+04  1.76695E+04  4.18103E+03  3.35433E+04
 -1.56847E+04  2.81748E+04 -2.69562E+04  1.01818E+04 -2.10516E+04 -1.03590E+04 -4.77987E+03 -1.33716E+04
  1.88877E+03 -2.66175E+03 -3.51941E+03  5.96481E+03 -1.46339E+04  5.18350E+03 -1.43591E+04 -4.72088E+03
 -8.92767E+03 -1.61088E+04  5.27973E+03 -2.13317E+04  1.29424E+04 -1.57744E+04  1.65353E+04 -1.19790E+03
  9.67129E+03  1.10113E+04  1.53983E+02  1.56698E+04 -1.10879E+04  1.00338E+04 -1.71155E+04 -3.54460E+03
 -1.21891E+04 -1.58953E+04 -1.85047E+03 -2.04222E+04  9.58007E+03 -1.76151E+04  1.77738E+04 -8.25783E+03
  1.58943E+04  1.77059E+02  1.25312E+04  4.68835E+03  5.94708E+03  3.74181E+02  8.61636E+03 -1.38087E+03
  1.52421E+04  2.64662E+03  1.67129E+04  1.38200E+04  1.14100E+04  2.61430E+04 -2.97756E+03  2.98917E+04
 -1.76628E+04  2.34400E+04 -2.71679E+04  1.10943E+04 -2.87770E+04 -2.36814E+03 -2.32382E+04 -1.55506E+04
 -1.15325E+04 -2.28905E+04  7.18218E+03 -2.16533E+04  1.72117E+04 -1.15774E+04  1.73991E+04  5.12780E+03
  6.11656E+03  1.12404E+04 -8.54551E+03  1.09159E+04 -1.48728E+04  2.19072E+03 -1.28795E+04 -8.08998E+03
  6.52999E+02 -1.26555E+04  6.76099E+03 -1.15034E+04  9.25780E+03 -1.05141E+03  1.14005E+03  5.30042E+03
 -4.86323E+03  1.74718E+03 -3.96301E+03 -5.61761E+03  9.21481E+02 -1.15646E+04  8.34277E+03 -1.20313E+04
  1.42207E+04 -6.09628E+03  1.43703E+04  3.12428E+03  1.21893E+04  1.12517E+04  6.17719E+03  1.63158E+04
 -3.05944E+03  1.89814E+04 -1.26512E+04  1.07888E+04 -1.23199E+04  2.80887E+03 -1.00943E+04 -1.75522E+03
 -3.76477E+03 -4.83782E+03 -5.78452E+02  1.39960E+03 -2.25115E+03  1.06391E+03 -4.09707E+03  3.89619E+03
 -8.08298E+03 -1.01046E+03 -1.06398E+04 -8.09050E+03 -3.43627E+03 -1.31292E+04  4.50138E+03 -9.13855E+03
  8.23293E+03 -4.36318E+03  4.98145E+03  1.72042E+03  5.81709E+02  3.91960E+03 -3.65875E+03 -3.37747E+02
 -5.00122E+03 -6.06315E+03 -9.50884E+02 -8.25491E+03  5.51174E+03 -8.71558E+03  1.17993E+04 -4.83781E+03
  1.32879E+04  4.16776E+02  1.04634E+04  8.33200E+03  2.92184E+03  9.80084E+03 -5.57573E+03  9.57036E+03
 -8.40645E+03  3.25276E+03 -4.03789E+03 -1.90543E+03  1.64165E+03 -1.18013E+03  5.49956E+03 -2.02776E+03
  4.45915E+03  4.05402E+03  1.15827E+03  7.69231E+03 -5.21159E+03  7.03434E+03 -8.72717E+03  1.44062E+03
 -5.40932E+03 -4.06016E+03 -2.54931E+02 -8.03887E+03  4.83558E+03 -4.00062E+03  4.50533E+03  1.79616E+03
  3.87615E+02  4.73675E+03 -4.38880E+03  6.30262E+03 -5.77377E+03  2.32601E+03 -5.61122E+03 -1.55558E+03
 -4.06647E+03 -7.54159E+03  1.76166E+03 -9.02628E+03  7.48366E+03 -5.85581E+03  8.38281E+03  1.10072E+03
  5.67938E+03  6.45807E+03 -7.41891E+01  7.20051E+03 -5.07067E+03  4.33983E+03 -6.30151E+03 -6.35841E+02
 -6.62522E+03 -5.76537E+03 -1.61745E+03 -4.82361E+03  2.91365E+03 -5.90306E+03  4.38840E+03 -2.36543E+03
  2.54315E+03  5.67498E+01 -7.67743E+02  1.95967E+03  4.03417E+01 -1.49170E+03  1.05374E+03 -2.93332E+03
  5.95873E+03 -1.91816E+03  8.21816E+03  1.41962E+03  7.91268E+03  3.43810E+03  5.57140E+03  9.53218E+03
 -2.55570E+03  1.02404E+04 -9.66956E+03  8.12379E+03 -1.11266E+04  1.98841E+03 -8.69970E+03 -4.13350E+03
 -5.56455E+03 -7.09724E+03 -1.37784E+03 -6.53136E+03  2.69521E+03 -2.76907E+03  2.35846E+03 -2.57538E+03
  8.32511E+02 -1.11360E+03  1.21713E+03 -1.97083E+03  3.92526E+03 -1.40468E+03  4.25780E+03  8.54284E+02
  5.79498E+03  1.90967E+03  1.62809E+03  4.13207E+03 -3.07170E+03  5.32902E+03 -3.72798E+03  3.02179E+03
 -5.76483E+03 -1.07491E+03 -2.88899E+03 -4.24163E+03  7.54346E+02 -5.82491E+03  3.13652E+03 -7.32131E+03
  6.89902E+03 -3.71038E+03  9.19164E+03  3.41709E+02  5.91924E+03  5.00792E+03  9.79212E+02  7.13197E+03
 -3.20778E+03  8.13719E+03 -3.87800E+03  1.75526E+03 -1.71950E+03 -1.20123E+03 -4.98144E+01 -9.34252E+02
 -6.27536E+02  1.54277E+03 -9.85157E+02  2.68202E+03 -2.33782E+03  6.10054E+02 -4.64075E+03 -2.62226E+02
 -1.59402E+03 -5.37689E+03  7.68097E+02 -6.35730E+03  3.46627E+03 -5.95310E+03  5.08038E+03 -5.68587E+02
  4.79510E+03  2.97905E+03  2.39755E+03  3.98999E+03 -1.64991E+03  5.14158E+03 -3.42852E+03  3.13341E+03
 -4.96751E+03  8.57757E+02 -3.72629E+03 -2.60733E+03  3.24622E+02 -4.19568E+03  1.76546E+03 -3.91349E+03
  3.62169E+03 -1.38017E+03  1.57793E+03  1.90405E+03  2.07578E+03  2.43821E+03  7.59234E+02  7.04852E+02
  1.75127E+03  1.13857E+03  1.70302E+03  1.57610E+02  1.60625E+03  2.38750E+03  1.91662E+03  5.18672E+02
 -1.30616E+03  3.85060E+03 -1.33572E+03  4.41329E+03 -5.85423E+03  1.30013E+03 -4.22086E+03 -1.49015E+03
 -2.10253E+03 -5.05870E+03  1.84846E+03 -5.84968E+03  1.63522E+03 -3.81204E+03  3.51905E+03 -1.14372E+03
  4.14803E+03  1.57193E+03  2.71639E+02  2.21849E+03 -5.94889E+02  1.15915E+03 -1.86379E+03  1.16350E+02
  1.30017E+02 -2.32523E+03  3.55277E+02 -1.84877E+03  1.86890E+03 -4.86079E+02  2.44334E+03  3.24289E+01
  9.47048E+02  4.92203E+02 -2.12781E+02 -7.43993E+02 -4.40124E+02  1.64337E+02  2.03950E+03 -1.79976E+03
 -5.23124E+01 -2.55363E+02  2.07659E+03  1.38054E+03  7.37440E+02  1.98371E+03  1.22274E+02  3.79538E+03
 -2.10985E+03  9.02271E+02 -2.52098E+03 -7.09175E+02 -2.84609E+03 -8.47020E+02  7.02941E+02 -1.80004E+03
  3.23644E+02 -1.11620E+03  1.88920E+03 -1.02619E+03  1.40283E+03  1.41236E+03 -7.11515E+02  9.76433E+02
 -2.76638E+03  2.93819E+02 -1.23548E+03 -8.67791E+02 -7.15513E+00 -2.64571E+03 -3.49116E+02 -2.85094E+03
  7.68050E+02 -1.02332E+03  9.44421E+02 -5.54261E+02  1.19547E+03  5.93830E+02  1.02935E+02  1.50359E+03
 -4.39023E+02 -2.20130E+02 -7.31583E+02 -5.56488E+02  9.22812E+01 -4.67533E+02  1.78655E+03 -2.35971E+03
  1.72226E+03  8.35511E+02  3.49739E+03  5.07831E+02  1.58326E+03  2.80385E+03  1.86910E+02  2.94020E+03
 -1.20924E+03 -2.47150E+02 -2.25596E+03  1.07938E+03 -2.75903E+03 -2.30655E+03  5.82544E+02 -4.06499E+01
  1.38483E+03 -6.46922E+02  1.43942E+03  1.56423E+03  8.09747E+02  2.99560E+03 -3.29863E+02  1.71499E+03
 -8.36175E+02  1.23058E+03 -7.49405E+02  3.02474E+02 -1.23694E+03  9.61659E+02 -4.97719E+02  9.73402E+02
 -1.53871E+03  5.68908E+02 -2.14519E+03  1.02484E+03 -2.08747E+03  3.01300E+00 -3.98496E+03 -1.72930E+03
 -2.31544E+03 -2.29385E+03 -4.53349E+01 -4.71955E+03  2.26572E+03 -3.56218E+03  3.41349E+03 -8.97838E+02
  3.37755E+03  3.92778E+02  2.79168E+02  1.57645E+03 -5.64707E+02  1.70590E+03 -3.59368E+02  1.57264E+03
 -1.48912E+03  5.56173E+02 -1.46775E+03 -1.74001E+02  3.42189E+02  1.60566E+03 -2.13932E+03  2.63983E+02
 -1.17495E+03 -1.16692E+03 -1.14886E+03 -5.01093E+01  1.00145E+03 -1.96231E+02 -5.11618E+02 -1.65623E+03
  2.11635E+03 -6.33694E+02  1.01894E+03  1.28329E+02  1.78908E+03  1.78928E+03 -4.90074E+02  1.19310E+03
 -1.34269E+03  2.35395E+03 -2.32836E+03  1.58357E+03 -2.26229E+03  4.66226E+02 -8.58458E+02 -1.12363E+03
 -1.16747E+03 -2.68360E+03  1.14676E+03 -1.95748E+03  7.08853E+02 -1.24512E+03  9.23100E+02  9.56678E+02
 -4.51142E+02  9.85093E+02 -4.39045E+02  3.21678E+02 -5.48465E+02 -1.84940E+02 -5.32532E+02 -5.27606E+02
 -3.84148E+02 -4.96027E+01  9.53932E+01  1.13216E+03  1.56279E+01 -1.26712E+02  7.67671E+02  6.76414E+02
 -3.96457E+02  9.11829E+02 -1.59415E+03  1.34340E+03 -1.70705E+03 -2.57909E+02 -7.52505E+02 -3.99836E+02
  1.17516E+03 -1.23235E+03 -1.31533E+03 -1.09271E+02  9.68499E+02  6.62403E+02  9.12462E+02  1.58494E+03
  1.55629E+03  1.06528E+03  5.28692E+02  1.03809E+03 -5.60364E+01 -8.32308E+02 -3.52487E+02 -3.89723E+02
 -1.20401E+03 -5.76366E+02 -7.59631E+02  1.44378E+03 -5.96558E+02 -3.30580E+01 -1.07535E+03  1.62827E+02
 -1.68112E+03  4.39249E+02 -1.87795E+02 -2.08941E+03  8.52393E+02 -3.21264E+03  8.19801E+02 -1.09578E+03
  6.25381E+02 -2.13160E+02 -5.16216E+02 -4.77499E+02 -6.30159E+02  2.20967E+03 -3.88027E+02  1.01888E+03
