 $NMID ID='MM_0lb_SNR200_12hz_g40_92.RAW', FMTDAT='(8E13.5)'
 TRAMP=1., VOLUME=1. $END
  3.09590E+05  5.66126E+02  3.37011E+05  2.49436E+05  8.43085E+04  3.38762E+05 -1.31984E+05  2.50789E+05
 -1.91602E+05  8.39112E+04 -1.11964E+05 -3.17410E+04  1.10820E+03 -4.96133E+04  5.40980E+04 -8.67706E+02
  3.50367E+04  5.20959E+04 -1.60267E+04  7.52186E+04 -6.20601E+04  6.31304E+04 -8.58115E+04  3.22983E+04
 -8.14624E+04 -1.19717E+04 -5.62429E+04 -5.22392E+04 -1.49159E+04 -6.95613E+04  2.86136E+04 -4.52425E+04
  4.05820E+04  3.93415E+03  1.56234E+04  4.82506E+04 -3.37387E+04  4.74361E+04 -6.67951E+04  7.37311E+02
 -5.41422E+04 -5.65202E+04 -6.59083E+03 -7.76492E+04  3.25031E+04 -5.43765E+04  4.88851E+04 -1.76071E+04
  4.35291E+04  1.21440E+04  3.42404E+04  2.50774E+04  1.58878E+04  2.90949E+04 -4.38201E+03  2.64953E+04
 -2.12638E+04  1.30761E+04 -1.77364E+04 -5.99635E+03  6.37574E+03 -7.06352E+03  2.33961E+04  1.23956E+04
  7.73311E+03  3.62033E+04 -3.14198E+04  3.50128E+04 -6.48822E+04  1.14647E+03 -5.77683E+04 -4.27422E+04
 -1.22145E+04 -6.48551E+04  3.99923E+04 -4.48152E+04  5.83738E+04 -1.52022E+03  3.44732E+04  3.34015E+04
 -5.54961E+03  3.61443E+04 -3.03142E+04  1.59367E+04 -3.03017E+04 -3.79557E+03 -1.69906E+04 -1.18355E+04
 -9.27596E+03 -1.43620E+04 -6.29134E+02 -1.88440E+04  6.75825E+03 -2.31221E+04  1.55899E+04 -1.33527E+04
  1.19445E+04  5.89121E+03 -9.41382E+03  1.28660E+04 -2.15828E+04 -3.21913E+03 -7.72468E+03 -3.42028E+04
  2.35040E+04 -4.43306E+04  4.94738E+04 -1.93254E+04  4.51305E+04  1.85623E+04  1.66502E+04  4.39281E+04
 -1.66281E+04  3.45845E+04 -2.71332E+04  2.03915E+03 -9.24136E+03 -2.91174E+04  2.07775E+04 -3.55004E+04
  4.05810E+04 -1.00419E+04  3.73093E+04  2.34560E+04  1.84323E+04  4.74172E+04 -6.50028E+03  5.14358E+04
 -3.14332E+04  3.47853E+04 -4.34510E+04  9.84074E+03 -4.27969E+04 -1.71362E+04 -2.39096E+04 -3.90397E+04
  7.11149E+03 -3.80778E+04  3.24720E+04 -1.56313E+04  2.94373E+04  1.05162E+04  3.91389E+03  2.06130E+04
 -1.34450E+04  8.62459E+03 -1.11093E+04 -7.21563E+03  4.97566E+03 -1.13300E+04  1.76911E+04  6.46934E+03
  1.36554E+04  2.16885E+04 -6.11748E+03  2.57546E+04 -2.24386E+04  1.24101E+04 -2.75502E+04 -3.80344E+03
 -2.17122E+04 -1.70107E+04 -9.57722E+03 -2.07153E+04  3.44666E+03 -2.07980E+04  1.63912E+04 -1.88814E+04
  2.68595E+04 -1.24959E+04  3.46867E+04  3.15188E+03  2.57574E+04  2.10251E+04  2.06829E+03  3.64034E+04
 -1.78526E+04  3.22008E+04 -2.82707E+04  1.19296E+04 -2.08914E+04 -9.77951E+03 -4.40365E+03 -1.39612E+04
  4.20910E+02 -2.66217E+03 -5.45982E+03  8.19198E+03 -1.60293E+04  3.76623E+03 -1.73043E+04 -7.73587E+03
 -1.01159E+04 -1.92525E+04  5.02476E+03 -2.33383E+04  1.58507E+04 -1.71800E+04  1.80937E+04 -3.00946E+03
  1.25538E+04  1.35251E+04 -1.25987E+03  1.95412E+04 -1.29287E+04  1.13234E+04 -1.86481E+04 -3.36796E+03
 -1.41166E+04 -1.77387E+04 -1.20892E+03 -2.43517E+04  1.12258E+04 -1.92060E+04  1.85557E+04 -1.06751E+04
  1.91604E+04  1.78460E+03  1.25530E+04  5.00567E+03  7.39713E+03  1.91119E+02  1.08384E+04 -1.57953E+03
  1.84188E+04  3.06564E+03  2.08855E+04  1.48012E+04  1.26709E+04  3.24849E+04 -1.53925E+03  3.52998E+04
 -2.15850E+04  2.98292E+04 -3.42090E+04  1.47781E+04 -3.52026E+04 -1.47698E+03 -3.01928E+04 -1.92232E+04
 -1.25498E+04 -2.92064E+04  1.01064E+04 -2.62335E+04  2.32883E+04 -1.30132E+04  2.05019E+04  5.10261E+03
  7.45228E+03  1.47065E+04 -9.35065E+03  1.35839E+04 -1.68799E+04  3.17244E+03 -1.35244E+04 -1.01929E+04
  8.42330E+02 -1.70905E+04  9.10903E+03 -1.35097E+04  1.10857E+04 -1.35782E+03  3.22482E+03  6.31647E+03
 -7.39779E+03  3.11213E+03 -7.54905E+03 -6.12001E+03 -1.81893E+03 -1.36910E+04  9.42350E+03 -1.57525E+04
  1.87082E+04 -9.55649E+03  2.03715E+04  3.96584E+03  1.77114E+04  1.38466E+04  7.20020E+03  2.35418E+04
 -3.79120E+03  2.52069E+04 -1.53732E+04  1.50959E+04 -1.70814E+04  2.84252E+03 -1.20518E+04 -4.34816E+03
 -5.49243E+03 -5.21443E+03 -3.61913E+02  1.50621E+03 -3.80767E+03  3.24838E+03 -5.37255E+03  4.57573E+03
 -1.19305E+04 -3.36123E+02 -1.27628E+04 -1.05538E+04 -6.63791E+03 -1.57403E+04  5.77451E+03 -1.25503E+04
  1.01155E+04 -5.45353E+03  6.40515E+03  4.93302E+03  8.67864E+02  3.78274E+03 -6.87862E+03 -8.94888E+02
 -5.05516E+03 -7.50308E+03 -7.39375E+02 -1.19432E+04  6.62690E+03 -1.28235E+04  1.56660E+04 -6.52520E+03
  1.80732E+04  2.22124E+03  1.36809E+04  1.12041E+04  1.92920E+03  1.39408E+04 -7.47626E+03  1.16261E+04
 -1.01731E+04  4.48754E+03 -5.81685E+03 -2.73859E+03  2.60795E+03 -4.44948E+03  6.45179E+03 -9.45363E+02
  4.74846E+03  4.77411E+03 -1.57272E+02  9.57509E+03 -6.68814E+03  9.26382E+03 -1.11164E+04  3.23016E+03
 -9.54910E+03 -4.78478E+03  2.76487E+02 -1.05898E+04  8.66290E+03 -5.30980E+03  6.84135E+03  1.59364E+03
  1.77693E+03  6.86456E+03 -5.92335E+03  7.82645E+03 -8.56835E+03  4.11315E+03 -9.38318E+03 -2.76742E+03
 -6.09550E+03 -1.10919E+04  3.16485E+03 -1.30496E+04  9.86434E+03 -9.09850E+03  1.23942E+04  3.86392E+03
  6.53939E+03  8.19225E+03 -2.54304E+02  1.20468E+04 -8.88605E+03  6.80137E+03 -9.32185E+03 -1.59901E+03
 -8.78920E+03 -8.07306E+03 -2.21792E+03 -9.51477E+03  3.94914E+03 -7.24298E+03  3.09954E+03 -3.98114E+03
  4.78269E+03  7.21469E+02 -5.06706E+02  1.41239E+03  6.69251E+01 -2.18811E+03  1.21923E+03 -3.70242E+03
  8.14421E+03 -1.72221E+03  1.11700E+04  2.51489E+03  1.16047E+04  7.89270E+03  7.29129E+03  1.51341E+04
 -2.66879E+03  1.63690E+04 -1.28385E+04  1.23287E+04 -1.91910E+04  1.15380E+03 -1.35956E+04 -6.09215E+03
 -6.13698E+03 -1.23268E+04 -2.22925E+02 -1.10011E+04  2.83928E+03 -5.04174E+03  3.23839E+03 -4.61095E+03
  3.09805E+03 -1.40614E+03  2.88627E+03 -2.84148E+03  5.35144E+03 -3.09721E+03  7.37293E+03 -5.33579E+02
  7.27218E+03  3.00320E+03  3.52964E+03  6.70089E+03 -3.11883E+03  6.52371E+03 -8.91383E+03  6.97904E+03
 -1.07895E+04 -1.67693E+03 -5.41585E+03 -8.44730E+03 -3.03673E+01 -9.50250E+03  7.88866E+03 -1.08036E+04
  1.12969E+04 -5.79463E+03  1.47035E+04  2.15989E+03  8.28450E+03  9.61482E+03  2.03783E+03  1.26150E+04
 -3.95367E+03  9.52193E+03 -6.20140E+03  3.06959E+03 -4.71153E+03 -5.96389E+02 -2.32145E+03 -2.03317E+03
 -1.25972E+03 -4.57905E+01 -1.69660E+03  1.82670E+03 -4.49298E+03  1.80395E+03 -5.94000E+03 -1.00872E+03
 -5.64270E+03 -6.65396E+03 -9.59720E+01 -7.84230E+03  5.80826E+03 -9.12351E+03  9.37390E+03 -3.28413E+03
  1.12007E+04  4.01269E+03  5.26844E+03  9.23473E+03 -3.32903E+03  8.69653E+03 -6.99269E+03  6.13607E+03
 -8.66993E+03  1.26668E+03 -5.64915E+03 -5.73305E+03 -1.60254E+03 -8.30382E+03  4.08769E+03 -5.77117E+03
  5.79373E+03 -2.90253E+03  4.76398E+03  1.23483E+03  6.89698E+02  2.53613E+03  1.16080E+03  8.37477E+02
  1.86731E+03  4.65369E+02  1.81781E+03  2.23516E+03  2.16496E+03  3.50231E+03  2.07326E+03  4.01302E+03
 -1.62240E+03  7.03234E+03 -5.82898E+03  8.34027E+03 -9.10427E+03  2.20929E+03 -9.41019E+03 -3.80098E+03
 -5.25959E+03 -9.70094E+03  1.17772E+03 -1.01801E+04  5.97657E+03 -5.92122E+03  7.79493E+03 -2.92164E+03
  7.91424E+03  4.29805E+03  2.51771E+03  5.00367E+03 -2.38269E+03  4.95083E+03 -3.26916E+03 -1.13974E+03
 -2.40417E+03 -4.42606E+03  1.98016E+03 -5.05687E+03  3.03688E+03 -3.79397E+03  4.56717E+03  2.38603E+03
  2.63772E+03  2.31138E+03  1.75994E+02  1.58276E+03 -1.47553E+03 -1.52417E+01  1.05585E+03 -1.10714E+03
  2.49700E+03 -1.07301E+03  4.24068E+03  1.63908E+03  1.42048E+03  5.07350E+03 -6.66918E+02  6.73308E+03
 -2.85407E+03  4.11357E+03 -5.66668E+03  3.34417E+02 -5.46453E+03 -1.90949E+03 -2.22925E+03 -2.40538E+03
  2.35337E+02 -4.05679E+03  1.08291E+03 -8.85624E+02  1.41076E+03  1.35392E+03 -1.23028E+03  3.45866E+03
 -3.63064E+03  8.63338E+02 -4.92370E+03 -3.48064E+03 -9.72821E+02 -5.98310E+03 -1.03078E+03 -6.11181E+03
  1.65656E+03 -3.74363E+03  5.04383E+03 -1.59381E+02  2.61526E+03  5.64772E+02  1.61331E+03  2.64369E+03
 -2.75399E+03  1.40760E+02 -2.79723E+03 -1.74366E+03  2.59273E+03 -3.45235E+03  3.72178E+03 -3.37276E+03
  4.38470E+03  4.55550E+01  5.46919E+03  3.94121E+03  1.80426E+03  5.62093E+03 -2.19105E+03  4.83844E+03
 -3.72791E+03  2.12065E+03 -4.40392E+03  3.37898E+02 -3.02210E+03 -2.95301E+03  8.81930E+02 -2.78031E+03
  4.88278E+03 -2.54611E+03  2.85226E+03  1.90377E+03  2.26386E+03  3.73199E+03 -9.59520E+02  4.23763E+03
 -4.77427E+02  1.43220E+03 -2.30083E+03  1.57981E+03 -2.32815E+03  1.45948E+03 -1.39575E+03  2.27592E+03
 -1.40810E+03  2.15840E+03 -3.60408E+03  2.19368E+03 -6.16674E+03  5.44606E+02 -5.78395E+03 -3.56213E+03
 -3.76397E+03 -8.03778E+03  1.58257E+03 -8.74064E+03  5.37220E+03 -6.99451E+03  8.40761E+03 -2.48897E+03
  8.83678E+03  1.58879E+03  4.32756E+03  4.58766E+03  5.68131E+02  4.71741E+03 -2.43396E+03  3.17813E+03
 -3.40927E+03  2.66599E+03 -1.87461E+03 -4.98703E+02 -6.75844E+02 -9.89091E+02 -1.50820E+03  8.38992E+02
 -6.71078E+02  5.64861E+02 -1.79662E+03 -3.74470E+02  1.84406E+02 -2.26176E+03 -7.96587E+02 -1.07116E+03
  2.55652E+03 -1.62838E+03  2.28878E+03  4.12569E+01  3.48285E+03  3.57713E+03  1.93743E+03  5.10069E+03
 -2.94475E+03  4.89487E+03 -5.16224E+03  5.09215E+03 -5.74503E+03 -1.51382E+03 -3.76349E+03 -4.34183E+03
 -3.74576E+03 -4.61108E+03  1.25798E+03 -5.34583E+03  2.82896E+03 -3.26852E+03  2.96236E+03  1.35578E+03
  2.48718E+03  2.79907E+03 -1.36832E+02  1.56849E+03 -1.00302E+03  7.43226E+02 -1.67531E+02 -7.49633E+02
  1.20453E+03 -1.34195E+02  1.56783E+03  2.21051E+03  1.68890E+03  2.41095E+03 -1.11489E+03  2.70921E+03
 -2.68202E+03  3.02000E+03 -3.16594E+03 -6.14467E+02 -3.73813E+03 -1.78328E+03 -7.40142E+02 -4.51875E+03
  1.91385E+03 -2.49055E+03  3.94067E+03 -2.43043E+03  4.14854E+03  1.88995E+03  2.21231E+03  2.99269E+03
  1.11988E+03  3.13184E+03 -1.88550E+03  2.76221E+03 -3.18745E+03 -8.99574E+02 -1.05639E+03 -3.37027E+02
 -1.37505E+03  1.30191E+03 -1.02806E+03  4.78456E+02 -1.93393E+03  1.00802E+03 -1.95580E+03  7.97017E+02
 -2.51249E+03 -1.75812E+03 -9.85587E+02 -3.66961E+03  3.20479E+02 -2.62974E+03  3.71831E+03 -2.62309E+03
  4.84902E+03  5.36699E+02  3.23197E+03  2.18806E+03 -2.15761E+03  2.82278E+03 -2.72306E+03  2.21382E+03
