 $NMID ID='MM_0lb_SNR200_18hz_g60_11.RAW', FMTDAT='(8E13.5)'
 TRAMP=1., VOLUME=1. $END
  3.09420E+05  2.79413E+02  3.37437E+05  2.51268E+05  8.48075E+04  3.37711E+05 -1.32501E+05  2.50765E+05
 -1.89878E+05  8.20505E+04 -1.11102E+05 -3.27663E+04  1.21419E+03 -4.99619E+04  5.49744E+04 -1.02363E+02
  3.56950E+04  5.25522E+04 -1.66082E+04  7.57029E+04 -5.96765E+04  6.33286E+04 -8.32342E+04  3.16247E+04
 -8.12485E+04 -1.24025E+04 -5.70725E+04 -5.07583E+04 -1.48729E+04 -6.86586E+04  2.78053E+04 -4.53216E+04
  4.00619E+04  3.45182E+03  1.76359E+04  4.77431E+04 -3.37245E+04  4.77229E+04 -6.63033E+04 -1.02945E+03
 -5.24521E+04 -5.73905E+04 -5.34205E+03 -7.63800E+04  3.29777E+04 -5.48019E+04  4.68392E+04 -1.73554E+04
  4.22325E+04  1.12863E+04  3.17108E+04  2.47585E+04  1.50263E+04  2.93823E+04 -4.89379E+03  2.84323E+04
 -2.25370E+04  1.30351E+04 -1.91031E+04 -4.93100E+03  5.96763E+03 -7.82334E+03  2.21820E+04  1.17940E+04
  7.36028E+03  3.45737E+04 -3.16267E+04  3.38326E+04 -6.28490E+04  3.09601E+03 -5.64505E+04 -4.21264E+04
 -1.27453E+04 -6.16677E+04  3.88175E+04 -4.48455E+04  5.74726E+04 -2.41179E+03  3.35569E+04  3.19283E+04
 -6.37415E+03  3.49284E+04 -2.95977E+04  1.54912E+04 -2.93478E+04 -4.83169E+03 -1.52164E+04 -1.08454E+04
 -8.17793E+03 -1.26571E+04 -8.17467E+02 -1.79195E+04  6.76715E+03 -2.35016E+04  1.47585E+04 -1.32272E+04
  1.16571E+04  4.58686E+03 -7.69620E+03  1.28521E+04 -2.03579E+04 -3.94964E+03 -8.22289E+03 -3.33652E+04
  2.21028E+04 -4.27686E+04  4.79974E+04 -1.99776E+04  4.51390E+04  1.84770E+04  1.41090E+04  4.34109E+04
 -1.49182E+04  3.27368E+04 -2.31753E+04  1.90779E+03 -1.00014E+04 -2.78605E+04  2.06863E+04 -3.26352E+04
  4.00467E+04 -8.09264E+03  3.38836E+04  2.33525E+04  1.91530E+04  4.42002E+04 -7.59058E+03  4.82940E+04
 -3.10204E+04  3.01052E+04 -4.12915E+04  9.91132E+03 -4.02607E+04 -1.51205E+04 -2.21302E+04 -3.67321E+04
  6.83827E+03 -3.76882E+04  3.03932E+04 -1.43331E+04  2.91600E+04  1.03849E+04  4.64556E+03  1.78969E+04
 -1.28172E+04  8.56728E+03 -9.51183E+03 -7.23199E+03  6.25029E+03 -9.41033E+03  1.77854E+04  6.94274E+03
  1.22271E+04  2.13975E+04 -6.45457E+03  2.40456E+04 -2.09238E+04  1.10408E+04 -2.69583E+04 -4.55136E+03
 -1.94323E+04 -1.64756E+04 -6.20412E+03 -1.85780E+04  3.34863E+03 -1.77325E+04  1.45000E+04 -1.59006E+04
  2.35266E+04 -1.22570E+04  3.09995E+04  1.84762E+03  2.23334E+04  1.83895E+04  4.24072E+03  3.45226E+04
 -1.67354E+04  2.90471E+04 -2.80159E+04  9.76663E+03 -1.97280E+04 -1.05850E+04 -3.60987E+03 -1.30235E+04
  2.28446E+03 -4.15061E+03 -4.97543E+03  5.53506E+03 -1.35588E+04  6.27846E+03 -1.57129E+04 -5.58774E+03
 -1.01321E+04 -1.69735E+04  3.77027E+03 -2.02285E+04  1.38847E+04 -1.39282E+04  1.63510E+04 -1.40349E+03
  1.03948E+04  1.17367E+04 -4.21345E+02  1.73384E+04 -1.20420E+04  9.54347E+03 -1.68899E+04 -4.04666E+03
 -1.30934E+04 -1.60036E+04 -1.16278E+03 -2.05768E+04  1.00600E+04 -1.60481E+04  1.66918E+04 -8.14685E+03
  1.67087E+04 -6.93310E+02  1.13910E+04  3.46399E+03  5.48770E+03  1.38746E+03  8.93225E+03 -2.20952E+03
  1.59174E+04  3.08029E+03  1.66366E+04  1.46601E+04  1.14327E+04  2.73428E+04 -2.08909E+03  2.92230E+04
 -1.81591E+04  2.32876E+04 -2.75175E+04  1.14048E+04 -2.84150E+04 -1.93966E+03 -2.39054E+04 -1.62748E+04
 -1.10446E+04 -2.28563E+04  7.50509E+03 -2.16652E+04  1.87975E+04 -1.08722E+04  1.67659E+04  4.36284E+03
  7.46706E+03  1.30458E+04 -6.67719E+03  1.07019E+04 -1.48556E+04  2.27107E+03 -1.15130E+04 -9.07741E+03
 -2.83438E+02 -1.41306E+04  6.56135E+03 -1.08242E+04  9.85420E+03 -1.71580E+03  9.84479E+02  5.99899E+03
 -5.71602E+03  8.74287E+02 -4.25384E+03 -5.77030E+03 -2.32420E+02 -1.16046E+04  8.24222E+03 -1.09921E+04
  1.32564E+04 -5.52658E+03  1.49082E+04  2.66775E+03  1.26175E+04  1.07056E+04  5.77972E+03  1.71778E+04
 -2.50808E+03  1.85955E+04 -1.14358E+04  1.06712E+04 -1.26107E+04  3.56477E+03 -9.55585E+03 -2.20918E+03
 -4.72650E+03 -3.82767E+03 -1.04025E+03  1.95143E+03 -2.48215E+03  1.28669E+03 -3.40664E+03  2.98062E+03
 -8.40791E+03  5.49323E+02 -9.48238E+03 -7.14673E+03 -3.54713E+03 -1.22709E+04  3.92200E+03 -1.04776E+04
  8.21798E+03 -4.46074E+03  5.68885E+03  2.44884E+03  7.68577E+02  2.49008E+03 -4.12095E+03 -5.83195E+02
 -3.98968E+03 -5.25714E+03 -1.09440E+03 -7.87758E+03  4.10502E+03 -8.44607E+03  1.09799E+04 -4.24873E+03
  1.35893E+04  2.31059E+03  9.43706E+03  6.29612E+03  1.98034E+03  1.02569E+04 -5.55127E+03  9.36663E+03
 -9.13487E+03  2.63500E+03 -3.86666E+03 -1.98124E+03  2.55023E+03 -2.17972E+03  5.23849E+03 -2.43624E+02
  3.82521E+03  4.05696E+03  1.76255E+03  6.07770E+03 -4.68001E+03  8.38345E+03 -8.76942E+03  2.30653E+03
 -4.95902E+03 -3.95944E+03  4.37196E+02 -7.23141E+03  4.25271E+03 -4.18383E+03  4.15080E+03  8.68799E+02
  1.76916E+03  4.84974E+03 -3.73827E+03  4.85711E+03 -6.18422E+03  2.96842E+03 -5.00428E+03 -2.56970E+03
 -2.97032E+03 -6.75121E+03  1.31713E+03 -7.74744E+03  6.97823E+03 -5.34980E+03  7.87792E+03  1.25773E+03
  4.96992E+03  6.02634E+03  3.21238E+02  8.01618E+03 -6.65207E+03  5.64055E+03 -5.15995E+03 -1.63961E+03
 -5.30756E+03 -5.32704E+03 -1.63387E+03 -5.29332E+03  2.27749E+03 -5.38969E+03  2.86759E+03 -2.05729E+03
  2.64846E+03  5.30453E+02 -5.03461E+02  5.87185E+02  1.09620E+03 -1.00029E+03  3.17097E+02 -1.78426E+03
  5.22166E+03 -1.56458E+03  6.53641E+03  1.38429E+03  6.65186E+03  3.79416E+03  5.71259E+03  7.96653E+03
 -1.63605E+03  9.32180E+03 -8.77127E+03  6.94670E+03 -1.07071E+04  1.41268E+03 -8.88214E+03 -3.13112E+03
 -5.09639E+03 -7.95376E+03  3.51218E+02 -5.32866E+03  2.00739E+03 -1.95972E+03  1.42792E+03 -3.51894E+03
  4.61064E+02 -1.58036E+03  1.28446E+03 -2.23945E+03  4.93048E+03 -1.96426E+03  3.86773E+03 -8.80815E+02
  4.77274E+03  1.06143E+03  1.35168E+03  4.46774E+03 -1.76486E+03  3.95958E+03 -4.37781E+03  3.20080E+03
 -6.12759E+03 -8.70576E+02 -2.24429E+03 -4.13281E+03  5.89043E+01 -6.02969E+03  1.91639E+03 -5.39797E+03
  6.52383E+03 -4.16127E+03  7.20848E+03  1.06926E+03  4.67585E+03  3.73797E+03  7.04907E+02  6.30573E+03
 -2.65903E+03  6.25949E+03 -3.91370E+03  1.90839E+03 -2.36759E+03 -1.81429E+02 -1.34149E+03 -1.47791E+03
 -6.87792E+01  2.68219E+02 -1.03091E+03  3.61862E+03 -3.95475E+03  1.28546E+03 -5.26821E+03 -1.11469E+03
 -1.98425E+03 -4.35619E+03  1.86905E+03 -5.13730E+03  2.48533E+03 -3.68532E+03  4.61006E+03 -9.48241E+02
  2.55964E+03  1.94954E+03  2.32979E+03  3.53535E+03 -1.41539E+03  5.89254E+03 -2.59347E+03  2.50387E+03
 -3.48410E+03  8.40126E+02 -3.52699E+03 -1.79691E+03  1.06332E+03 -4.11516E+03  2.84569E+03 -2.60068E+03
  2.47316E+03 -1.72947E+03  2.09263E+03  3.12006E+02 -1.79738E+01  3.89657E+02  7.30778E+02  1.18518E+03
  1.25918E+03  1.73411E+03  1.26678E+03  1.45703E+03  2.07542E+03  1.58069E+03  2.25199E+03  2.34571E+03
 -1.76221E+03  3.31063E+03 -1.17465E+03  5.03098E+03 -3.82316E+03  1.73791E+03 -4.73538E+03 -8.04305E+02
 -1.83180E+03 -4.73883E+03  5.14896E+02 -5.19815E+03  2.34317E+02 -3.03955E+03  3.20236E+03 -1.16403E+03
  2.28799E+03  1.48747E+03  3.05300E+02  1.83432E+03 -1.17934E+03  8.59031E+02 -1.56222E+03 -8.00399E+02
 -4.04185E+02 -1.43083E+03  1.37516E+03 -2.70086E+03  1.40617E+03 -9.36384E+02  2.75873E+03 -7.25647E+01
  7.33105E+02  3.91425E+02  1.89772E+03  6.43636E+02 -3.42537E+02  8.23201E+02  1.57234E+03 -4.17178E+02
  9.22615E+02  1.92182E+02  1.29978E+03  8.61458E+02  7.57398E+02  1.30238E+03 -8.42153E+02  3.94117E+03
 -1.05392E+03  1.65474E+03 -1.87351E+03  7.60913E+02 -2.81595E+03 -1.54820E+03 -2.16403E+02 -1.06537E+02
  2.78475E+02 -7.09361E+02  5.64088E+01 -5.37841E+02  3.27532E+01  1.36150E+03 -6.91650E+02  1.31418E+03
 -2.06217E+03 -1.03264E+02 -6.01397E+02 -1.56581E+03 -4.90459E+02 -2.10797E+03 -4.54755E+02 -2.30123E+03
  4.47674E+01 -3.42733E+02  1.42752E+03  9.29382E+02  1.43939E+03  2.95094E+02  4.63150E+02  1.43764E+03
 -1.38339E+03 -6.64768E+01 -7.88086E+02 -5.25549E+02 -4.20912E+02 -7.05928E+01  1.76620E+03 -2.09551E+02
  1.01044E+03  5.21541E+02  3.78247E+03  1.13945E+03  1.71540E+03  1.47826E+03 -5.45058E+01  1.80388E+03
 -1.73197E+03 -2.31723E+01 -1.81989E+03  2.20391E+02 -1.53651E+02 -1.51710E+03 -4.13250E+02  8.12701E+01
  2.20617E+03 -1.53964E+03  7.67186E+02  1.34837E+03 -6.15089E+02  1.61251E+03 -2.02295E+02  1.93856E+03
 -6.06380E+02  1.17606E+03  4.36273E+02 -5.17786E+02  5.22220E+01 -2.41428E+01 -1.02502E+03  4.16776E+02
 -1.01139E+02  1.38671E+03 -2.15576E+03  8.82364E+02 -1.18471E+03  3.26106E+02 -1.35406E+03 -3.64980E+02
 -1.97252E+03 -2.20842E+03  7.83562E+02 -3.96658E+03  9.66531E+02 -3.37033E+03  3.01677E+03 -1.21518E+03
  2.65925E+03  3.11749E+01  1.20705E+03  3.44246E+02 -1.18205E+03  2.60729E+03 -6.91795E+02  8.97698E+02
 -1.15591E+03  1.15251E+03 -1.94295E+02 -3.91134E+02  7.08222E+01  1.02040E+03 -8.56288E+02  7.07664E+01
 -1.04347E+03 -5.46150E+02 -1.18549E+03 -7.09596E+02  7.67388E+02 -7.75802E+02 -6.61501E+02 -1.17022E+03
  2.07560E+03 -4.55214E+01  7.90622E+02 -5.58619E+01  8.63798E+02  4.99404E+02  1.23136E+01  1.74722E+03
 -4.43256E+02  2.02246E+03 -1.67641E+03  8.02942E+02 -2.03575E+03  5.32262E+02 -1.05121E+03 -1.14142E+03
 -6.99171E+02 -7.19307E+01 -1.22550E+03 -1.33156E+03  1.26657E+03 -1.25609E+03  1.08912E+03 -3.64492E+02
  1.01809E+03 -8.46849E+02  2.11992E+02  5.78180E+02 -3.39123E+02  6.15581E+02  2.12872E+02 -2.71459E+02
  1.00475E+03  8.59601E+02  1.22533E+03  1.69875E+03 -5.37462E+02  4.19318E+02  1.18971E+03  6.74904E+01
 -1.90362E+02  7.41026E+02 -1.75443E+02 -1.08240E+03 -1.08015E+03 -8.57713E+02 -1.46494E+03 -1.42217E+03
  1.30409E+03 -1.14575E+03 -3.32068E+02  2.60536E+02  3.49033E+02 -8.03411E+02  1.83210E+02  4.46314E+02
  8.28382E+02  6.46150E+02  6.10846E+01 -7.14249E+02 -1.61742E+02  8.20449E+02 -6.88968E+02  5.00925E+02
  1.09106E+02 -1.86383E+02  1.14513E+03  3.38902E+02  3.59530E+02 -4.61649E+02 -1.13136E+03 -4.80805E+02
 -9.97432E+02  1.34099E+03 -3.48435E+02 -1.28759E+03 -7.59389E+01 -1.33250E+03  8.51250E+02 -4.18762E+02
  4.49628E+02 -1.13883E+03 -2.23986E+02 -7.67910E+02 -1.05163E+03 -1.41394E+02 -1.26458E+03  1.07414E+03
