 $NMID ID='MM_0lb_SNR200_7hz_g60_100.RAW', FMTDAT='(8E13.5)'
 TRAMP=1., VOLUME=1. $END
  3.09153E+05 -3.92227E+02  3.40883E+05  2.50805E+05  8.77027E+04  3.39515E+05 -1.32270E+05  2.53554E+05
 -1.91893E+05  8.45621E+04 -1.12554E+05 -3.21248E+04 -7.39083E+02 -5.06469E+04  5.46242E+04 -1.21418E+03
  3.54791E+04  5.26637E+04 -1.80482E+04  7.77666E+04 -6.08735E+04  6.45975E+04 -8.56268E+04  3.26818E+04
 -8.39501E+04 -1.13150E+04 -5.99484E+04 -5.35445E+04 -1.53721E+04 -7.23422E+04  2.71498E+04 -4.86604E+04
  4.22984E+04  2.72116E+03  1.60487E+04  5.03399E+04 -3.69816E+04  4.82532E+04 -6.92849E+04  2.58998E+01
 -5.63880E+04 -5.81568E+04 -8.45362E+03 -7.84117E+04  3.39367E+04 -5.70849E+04  5.32786E+04 -1.89900E+04
  4.59443E+04  1.09941E+04  3.37407E+04  2.71528E+04  1.53791E+04  3.05374E+04 -5.53113E+03  2.77713E+04
 -2.23430E+04  1.10855E+04 -1.66813E+04 -6.83653E+03  7.48939E+03 -8.86735E+03  2.29354E+04  1.42181E+04
  7.38657E+03  3.76241E+04 -3.50685E+04  3.84962E+04 -6.65708E+04  2.20709E+03 -5.86567E+04 -4.63467E+04
 -1.19377E+04 -6.65530E+04  4.22892E+04 -4.91781E+04  6.27593E+04 -1.51098E+03  3.91152E+04  3.74988E+04
 -5.44933E+03  4.01993E+04 -3.33909E+04  2.07495E+04 -3.50376E+04 -3.81223E+03 -1.94468E+04 -1.37493E+04
 -1.01403E+04 -1.59961E+04 -4.96251E+02 -1.95593E+04  7.31236E+03 -2.27146E+04  1.62727E+04 -1.17553E+04
  1.15859E+04  7.16067E+03 -1.17054E+04  1.21911E+04 -2.48806E+04 -8.80761E+03 -7.02995E+03 -4.00212E+04
  2.69357E+04 -4.89385E+04  5.47937E+04 -2.25315E+04  5.11630E+04  2.05938E+04  1.69785E+04  5.02048E+04
 -1.49853E+04  3.77202E+04 -2.76785E+04  3.92915E+03 -1.51518E+04 -2.94295E+04  2.11110E+04 -4.06858E+04
  4.60264E+04 -1.15278E+04  4.39255E+04  2.48393E+04  2.40180E+04  5.26921E+04 -8.95558E+03  6.06187E+04
 -3.78566E+04  4.19024E+04 -5.05875E+04  1.24571E+04 -4.93237E+04 -1.95373E+04 -2.90988E+04 -4.40459E+04
  9.09865E+03 -4.49010E+04  3.49853E+04 -1.95182E+04  3.43441E+04  1.17160E+04  4.88364E+03  2.25964E+04
 -1.37749E+04  1.20556E+04 -1.20039E+04 -6.94059E+03  3.41862E+03 -1.19981E+04  2.06994E+04  3.66414E+03
  1.50122E+04  2.28558E+04 -5.21007E+03  2.69176E+04 -2.36293E+04  1.55188E+04 -3.35258E+04 -1.21445E+03
 -2.67661E+04 -2.05847E+04 -1.40052E+04 -2.76391E+04  5.00643E+03 -3.04176E+04  2.11875E+04 -2.66814E+04
  3.69689E+04 -1.53362E+04  4.31695E+04  6.36909E+03  2.83450E+04  2.80466E+04  4.17327E+03  4.56644E+04
 -1.88593E+04  3.62013E+04 -3.33014E+04  1.32305E+04 -2.39315E+04 -8.98360E+03 -4.37686E+03 -1.31358E+04
  5.30954E+02  2.20783E+02 -6.04727E+03  9.52055E+03 -2.37487E+04  5.31186E+03 -2.18295E+04 -1.02011E+04
 -1.18892E+04 -2.53854E+04  5.80961E+03 -2.98472E+04  2.19210E+04 -2.19227E+04  2.61793E+04 -1.85410E+03
  1.58407E+04  1.95578E+04 -2.58846E+03  2.60389E+04 -1.83037E+04  1.69741E+04 -2.70039E+04 -5.83132E+03
 -1.81339E+04 -2.28734E+04 -2.40434E+03 -3.19964E+04  1.47578E+04 -2.78336E+04  2.43722E+04 -1.57070E+04
  2.40853E+04 -9.95221E+02  1.59087E+04  7.11949E+03  9.92824E+03  5.47483E+02  1.45154E+04 -3.09235E+03
  2.52763E+04  5.55552E+02  3.06830E+04  1.85691E+04  2.18245E+04  4.18258E+04 -1.76362E+03  4.80887E+04
 -2.79557E+04  4.41476E+04 -4.66502E+04  2.28915E+04 -5.17657E+04 -3.68297E+03 -4.27707E+04 -3.11529E+04
 -1.46619E+04 -4.35594E+04  1.59883E+04 -3.63063E+04  3.47979E+04 -1.89386E+04  2.65660E+04  9.90553E+03
  1.13807E+04  2.08730E+04 -1.40816E+04  1.81612E+04 -2.14594E+04  2.04716E+03 -1.69694E+04 -1.49968E+04
  3.23475E+02 -2.15496E+04  1.28525E+04 -1.50494E+04  1.27518E+04 -2.60001E+03  5.11563E+03  1.04067E+04
 -7.20731E+03  3.76927E+03 -1.12615E+04 -8.79210E+03 -2.82920E+03 -1.99045E+04  1.41331E+04 -2.43649E+04
  2.74593E+04 -1.14772E+04  3.29204E+04  3.86581E+03  2.91571E+04  2.28418E+04  1.40931E+04  3.49496E+04
 -7.73466E+03  3.58136E+04 -2.27041E+04  2.26417E+04 -2.72747E+04  4.52619E+03 -1.82164E+04 -6.81062E+03
 -5.34173E+03 -9.45574E+03 -2.01986E+03 -4.41504E+02 -3.89132E+03  3.63138E+03 -1.17931E+04  5.92667E+03
 -1.51571E+04 -1.55547E+03 -1.72683E+04 -1.50518E+04 -7.24547E+03 -2.02214E+04  7.29467E+03 -1.69960E+04
  1.63531E+04 -8.37530E+03  1.09364E+04  3.80802E+03 -2.00311E+03  6.78618E+03 -9.15129E+03 -1.50868E+02
 -9.46550E+03 -1.22714E+04 -2.05784E+03 -1.84666E+04  1.04004E+04 -2.09220E+04  2.49142E+04 -1.19688E+04
  3.04917E+04  2.94275E+03  2.13742E+04  1.61964E+04  5.25191E+03  2.30496E+04 -1.17399E+04  1.73364E+04
 -1.77151E+04  6.22314E+03 -7.92972E+03 -6.47183E+03  4.09560E+03 -6.31950E+03  9.01922E+03 -1.01389E+03
  8.04022E+03  9.93995E+03  7.32648E+02  1.58750E+04 -1.04654E+04  1.40320E+04 -2.06433E+04  3.15889E+03
 -1.47296E+04 -1.06503E+04  3.61286E+02 -1.83814E+04  1.16670E+04 -8.40065E+03  1.04402E+04  5.43030E+03
  3.87405E+03  1.36926E+04 -8.79867E+03  1.52763E+04 -1.76579E+04  4.87402E+03 -1.94220E+04 -6.11097E+03
 -1.05506E+04 -1.92462E+04  6.02828E+03 -2.05017E+04  1.94800E+04 -1.30763E+04  2.19217E+04  3.43579E+03
  1.12484E+04  1.73897E+04 -8.10754E+02  2.07810E+04 -1.49684E+04  1.23900E+04 -1.58340E+04 -1.25554E+03
 -1.29959E+04 -1.41050E+04 -1.40623E+03 -1.62936E+04  6.27515E+03 -1.21048E+04  9.28303E+03 -4.41768E+03
  6.72308E+03  3.65850E+03 -2.13673E+03  2.04511E+03 -1.72320E+03 -4.49704E+03  2.96454E+03 -9.21420E+03
  1.32042E+04 -4.70221E+03  2.18983E+04  6.69882E+02  2.25429E+04  1.40236E+04  1.27894E+04  2.73927E+04
 -6.62507E+03  3.13248E+04 -2.46929E+04  2.24323E+04 -3.31972E+04  4.28806E+03 -2.70586E+04 -1.38939E+04
 -1.32833E+04 -2.22238E+04 -1.59371E+03 -1.83314E+04  6.75172E+03 -1.17271E+04  7.64062E+03 -6.60792E+03
  6.13272E+03 -3.28862E+03  5.24931E+03 -4.20058E+03  6.19958E+03 -5.29939E+03  9.60623E+03 -2.32952E+03
  1.42864E+04  2.97139E+03  8.50681E+03  1.07377E+04 -2.12076E+03  1.55215E+04 -1.22059E+04  1.17361E+04
 -1.92142E+04 -3.17226E+03 -1.50381E+04 -1.53781E+04 -3.09585E+03 -2.07680E+04  1.18233E+04 -2.23194E+04
  2.07317E+04 -1.11541E+04  2.69967E+04  5.42945E+03  1.92124E+04  2.01962E+04  2.15205E+03  2.45580E+04
 -1.06832E+04  1.87828E+04 -1.25886E+04  4.56639E+03 -9.42236E+03 -3.38818E+03 -3.67730E+03 -4.04614E+03
 -6.38063E+02  6.55037E+02 -3.73175E+03  3.48952E+03 -8.41130E+03  3.54088E+03 -1.32608E+04 -2.27577E+03
 -8.83670E+03 -1.12316E+04  6.62402E+02 -1.76908E+04  1.20689E+04 -1.82087E+04  1.95375E+04 -5.33299E+03
  1.95975E+04  1.05958E+04  1.01713E+04  1.85390E+04 -3.02047E+03  2.00069E+04 -1.42487E+04  1.50317E+04
 -1.92825E+04  2.49724E+02 -1.39780E+04 -1.30254E+04 -1.53065E+03 -1.67099E+04  9.04895E+03 -1.15301E+04
  1.10626E+04 -4.21990E+03  8.94041E+03  2.24324E+03  2.76268E+03  7.09725E+03  9.38302E+02  4.95206E+03
  3.09630E+03  1.82806E+03  4.36406E+03  2.45898E+03  7.48898E+03  8.88033E+03  4.96125E+03  8.14177E+03
 -5.20255E+03  1.79079E+04 -1.24079E+04  1.47841E+04 -1.99542E+04  2.54329E+03 -2.30800E+04 -1.07709E+04
 -1.16731E+04 -2.04347E+04  3.02254E+03 -2.29951E+04  1.21258E+04 -1.45229E+04  1.71236E+04 -5.66604E+03
  1.30756E+04  8.31588E+03  1.96915E+03  1.11797E+04 -5.53948E+03  8.06050E+03 -1.01327E+04 -2.21751E+02
 -3.94874E+03 -9.78287E+03  4.97750E+03 -8.77449E+03  9.50411E+03 -3.94210E+03  1.03163E+04  8.92405E+02
  3.10492E+03  3.99767E+03  8.83345E+02  5.21992E+03 -4.61230E+02  5.00373E+03  2.57425E+03 -6.88787E+02
  4.74668E+03 -5.59027E+02  8.32410E+03  2.80312E+03  5.41196E+03  1.15453E+04 -2.81681E+03  1.41122E+04
 -1.09779E+04  1.19996E+04 -1.49959E+04  2.87469E+03 -1.06786E+04 -4.38325E+03 -5.01082E+03 -7.80180E+03
  3.63912E+02 -8.20744E+03  4.21958E+03 -3.68218E+03  4.12885E+03  4.41983E+03 -1.64606E+03  6.20562E+03
 -8.39765E+03  5.04312E+03 -1.16003E+04 -5.14018E+03 -6.29452E+03 -1.21762E+04  1.05185E+03 -1.32507E+04
  6.95134E+03 -7.41264E+03  9.79340E+03 -3.00300E+03  7.21609E+03  3.79015E+03  1.86012E+03  6.81614E+03
 -4.02350E+03  4.15237E+03 -5.42098E+03 -4.30313E+03  1.90066E+03 -9.40541E+03  1.05307E+04 -6.51703E+03
  1.31669E+04  1.01513E+03  1.29968E+04  9.09098E+03  4.52388E+03  1.57282E+04 -4.29578E+03  1.30635E+04
 -1.38136E+04  5.59751E+03 -1.41980E+04 -1.02254E+03 -7.32493E+03 -9.42415E+03  1.67584E+03 -7.85196E+03
  1.13837E+04 -6.35016E+03  8.22934E+03  4.43721E+03  2.91836E+03  8.95187E+03 -8.89182E+02  7.46607E+03
 -3.99136E+03  4.99247E+03 -3.47057E+03  5.25469E+02 -1.79303E+03  1.39272E+03 -1.75263E+03  1.60083E+03
 -4.97049E+03  5.72147E+03 -9.46088E+03  5.17090E+03 -1.50612E+04  5.03183E+02 -1.65091E+04 -9.86826E+03
 -1.15313E+04 -1.85071E+04  2.82157E+03 -2.11255E+04  1.43102E+04 -1.83136E+04  2.17182E+04 -5.99394E+03
  2.02623E+04  4.89961E+03  1.27668E+04  1.31816E+04  4.59529E+02  1.60635E+04 -6.60156E+03  1.04564E+04
 -9.98722E+03  5.60983E+03 -6.15018E+03 -2.95335E+03 -1.48244E+03 -2.65362E+03 -2.39909E+02 -1.28416E+03
 -1.40198E+03  5.09215E+02 -5.02200E+03  3.26372E+02 -2.82558E+03 -2.32132E+03  6.15934E+02 -8.16419E+03
  5.39072E+03 -6.25463E+03  1.02168E+04 -1.13027E+03  1.13952E+04  9.26817E+03  4.79190E+03  1.68203E+04
 -5.99415E+03  1.84254E+04 -1.71990E+04  1.22692E+04 -1.95606E+04 -1.65106E+03 -1.39487E+04 -1.25888E+04
 -5.03183E+03 -1.45757E+04  4.22431E+03 -1.32225E+04  1.23150E+04 -8.23433E+03  1.10599E+04 -1.09078E+02
  5.95794E+03  5.64143E+03 -2.56171E+03  5.48602E+03 -3.07166E+03 -1.00923E+03 -1.39997E+03 -5.39281E+03
  4.49090E+03 -3.75871E+03  6.96546E+03  2.17207E+03  3.91137E+03  6.73957E+03 -1.65895E+03  1.06361E+04
 -7.63208E+03  7.03852E+03 -1.13616E+04  2.80215E+02 -9.90049E+03 -1.09390E+04 -2.87795E+03 -1.46059E+04
  7.97746E+03 -1.32502E+04  1.16458E+04 -3.42458E+03  1.41443E+04  3.61434E+03  7.15764E+03  1.16033E+04
  1.08008E+03  1.30692E+04 -3.65300E+03  8.81720E+03 -6.24803E+03  6.00852E+03 -6.25268E+03  2.63049E+02
 -1.20585E+03  3.12763E+02 -3.21641E+03  1.48887E+03 -7.40282E+03  1.99948E+03 -9.10399E+03  5.33100E+02
 -6.90347E+03 -3.86975E+03 -3.85657E+03 -1.20184E+04  4.77759E+03 -1.08264E+04  1.00192E+04 -5.65580E+03
  1.24406E+04  5.36243E+02  7.00367E+03  7.63919E+03 -3.19936E+03  1.14648E+04 -9.42807E+03  7.19293E+03
