 $NMID ID='MM_0lb_SNR200_13hz_g60_24.RAW', FMTDAT='(8E13.5)'
 TRAMP=1., VOLUME=1. $END
  3.09822E+05  2.69756E+02  3.37773E+05  2.49339E+05  8.47889E+04  3.39082E+05 -1.32014E+05  2.50747E+05
 -1.91272E+05  8.33417E+04 -1.11857E+05 -3.24669E+04  1.88187E+02 -4.98089E+04  5.42954E+04  5.54738E+02
  3.46184E+04  5.26522E+04 -1.73608E+04  7.66832E+04 -6.20828E+04  6.39554E+04 -8.41949E+04  3.36242E+04
 -8.26128E+04 -1.10019E+04 -5.79842E+04 -5.38112E+04 -1.47343E+04 -6.89194E+04  2.95406E+04 -4.64450E+04
  4.04966E+04  4.22389E+03  1.64348E+04  4.78608E+04 -3.50388E+04  4.72138E+04 -6.60916E+04  3.82011E+02
 -5.36628E+04 -5.65532E+04 -7.11652E+03 -7.83019E+04  3.46662E+04 -5.62218E+04  4.78937E+04 -1.73343E+04
  4.36608E+04  1.12606E+04  3.22016E+04  2.65224E+04  1.51894E+04  3.07297E+04 -5.63488E+03  2.80120E+04
 -2.20207E+04  1.32643E+04 -1.78839E+04 -5.30152E+03  5.68896E+03 -6.96200E+03  2.32032E+04  1.30325E+04
  6.02970E+03  3.71534E+04 -3.40551E+04  3.67733E+04 -6.47675E+04  1.49554E+03 -5.78296E+04 -4.37254E+04
 -1.20718E+04 -6.38188E+04  4.07131E+04 -4.77177E+04  5.98296E+04 -1.78566E+03  3.59363E+04  3.29290E+04
 -4.95831E+03  3.79707E+04 -2.97748E+04  1.84524E+04 -3.27198E+04 -2.94839E+03 -1.74756E+04 -1.20618E+04
 -9.35939E+03 -1.35458E+04 -3.53792E+02 -2.00040E+04  7.85001E+03 -2.21306E+04  1.66415E+04 -1.28686E+04
  1.11896E+04  5.53177E+03 -9.86698E+03  1.30466E+04 -2.30726E+04 -6.06405E+03 -9.03603E+03 -3.64055E+04
  2.45237E+04 -4.61477E+04  5.04435E+04 -1.97343E+04  4.65835E+04  1.88401E+04  1.64076E+04  4.67127E+04
 -1.72344E+04  3.42507E+04 -2.57962E+04  1.52306E+03 -1.11238E+04 -2.89076E+04  2.07806E+04 -3.57756E+04
  4.32270E+04 -8.94376E+03  3.79340E+04  2.32351E+04  1.93395E+04  4.97971E+04 -7.75346E+03  5.31162E+04
 -3.49810E+04  3.62919E+04 -4.46969E+04  1.08494E+04 -4.61322E+04 -1.72059E+04 -2.55636E+04 -4.09278E+04
  8.09055E+03 -3.93178E+04  3.33382E+04 -1.54095E+04  3.04515E+04  1.11017E+04  4.24888E+03  1.87303E+04
 -1.46583E+04  7.71767E+03 -1.06103E+04 -6.61608E+03  6.21898E+03 -1.14154E+04  1.85963E+04  4.91835E+03
  1.51325E+04  2.42092E+04 -5.91356E+03  2.63998E+04 -2.19704E+04  1.24268E+04 -2.99523E+04 -4.50732E+03
 -2.27982E+04 -1.76989E+04 -9.94953E+03 -2.25108E+04  4.96885E+03 -2.30697E+04  1.62424E+04 -1.95721E+04
  2.84344E+04 -1.34885E+04  3.67414E+04  4.45933E+03  2.56272E+04  2.22754E+04  5.07509E+03  3.92916E+04
 -1.74990E+04  3.19036E+04 -3.08014E+04  9.77459E+03 -2.10460E+04 -9.54743E+03 -3.61313E+03 -1.22272E+04
  9.37373E+02 -1.68980E+03 -6.03390E+03  8.14484E+03 -1.68670E+04  4.43766E+03 -1.88287E+04 -7.95802E+03
 -1.12630E+04 -2.11810E+04  5.11363E+03 -2.61496E+04  1.80645E+04 -1.76105E+04  2.07337E+04 -2.63566E+03
  1.24379E+04  1.42374E+04 -2.30641E+03  1.98663E+04 -1.47728E+04  1.23512E+04 -2.02122E+04 -4.33506E+03
 -1.60496E+04 -1.83270E+04 -2.18871E+03 -2.44302E+04  1.00896E+04 -2.01057E+04  2.06599E+04 -1.13554E+04
  1.91552E+04  9.86582E+02  1.45135E+04  4.23308E+03  6.59670E+03  1.21665E+03  1.04468E+04 -1.17733E+03
  1.98024E+04  2.59604E+03  2.25537E+04  1.67222E+04  1.41322E+04  3.38875E+04 -3.58402E+03  3.87359E+04
 -2.07002E+04  3.22870E+04 -3.66453E+04  1.57002E+04 -3.81757E+04 -3.98123E+03 -3.07713E+04 -2.36697E+04
 -1.33489E+04 -3.07809E+04  1.04846E+04 -2.82996E+04  2.32042E+04 -1.31837E+04  2.08421E+04  6.66458E+03
  7.25354E+03  1.53475E+04 -1.08869E+04  1.58675E+04 -1.66072E+04  1.52469E+03 -1.45950E+04 -1.13897E+04
 -1.51122E+02 -1.70571E+04  8.61174E+03 -1.33278E+04  1.04254E+04 -6.48587E+02  2.84467E+03  6.32006E+03
 -7.82749E+03  3.32536E+03 -6.77040E+03 -5.56137E+03  8.34517E+01 -1.57542E+04  1.13296E+04 -1.46394E+04
  1.99336E+04 -9.35741E+03  2.04586E+04  3.17721E+03  1.75303E+04  1.45298E+04  8.80278E+03  2.19818E+04
 -4.74869E+03  2.58885E+04 -1.51368E+04  1.65536E+04 -1.93517E+04  2.57287E+03 -1.26416E+04 -5.06795E+03
 -5.52483E+03 -5.30431E+03 -1.23451E+03 -2.20562E+02 -1.86574E+03  2.61164E+03 -5.21470E+03  5.25172E+03
 -1.21603E+04  7.59443E+02 -1.22919E+04 -9.77417E+03 -5.42486E+03 -1.60482E+04  4.31099E+03 -1.29816E+04
  1.11272E+04 -5.43467E+03  6.91486E+03  3.76252E+03  9.25675E+01  5.26320E+03 -6.06691E+03 -3.05924E+02
 -4.97067E+03 -8.67708E+03 -1.59339E+02 -1.24873E+04  7.12985E+03 -1.30484E+04  1.71904E+04 -7.20622E+03
  1.91852E+04  2.25931E+03  1.44417E+04  1.20706E+04  3.59403E+03  1.71535E+04 -7.22595E+03  1.35703E+04
 -1.09475E+04  4.53282E+03 -5.11999E+03 -2.53676E+03  1.55975E+03 -4.15734E+03  7.31924E+03 -6.94706E+02
  6.36962E+03  6.92192E+03  5.08842E+02  1.04710E+04 -7.20279E+03  1.05955E+04 -1.17346E+04  3.06296E+03
 -8.48472E+03 -6.15507E+03  1.42322E+03 -9.93137E+03  6.76913E+03 -6.40638E+03  7.07241E+03 -5.75328E+01
  1.88985E+03  7.33052E+03 -5.31367E+03  8.69709E+03 -1.00170E+04  4.53656E+03 -9.69465E+03 -4.55675E+03
 -6.19490E+03 -1.08823E+04  2.26038E+03 -1.27000E+04  1.14306E+04 -8.04421E+03  1.27811E+04  2.34934E+03
  8.18395E+03  1.09640E+04  6.77427E+02  1.29356E+04 -1.00252E+04  8.13971E+03 -8.83456E+03 -7.26960E+02
 -8.10659E+03 -7.51841E+03 -2.07553E+03 -8.90952E+03  4.81136E+03 -6.95016E+03  5.91032E+03 -3.28293E+03
  4.90747E+03  2.74109E+03  8.98250E+02  1.92690E+03 -1.88030E+02 -2.82843E+03  1.38312E+03 -4.78709E+03
  8.02014E+03 -3.43626E+03  1.20712E+04  1.73106E+03  1.29348E+04  7.90923E+03  8.49780E+03  1.54214E+04
 -2.57290E+03  1.72412E+04 -1.38021E+04  1.34399E+04 -1.93377E+04  2.77857E+03 -1.49136E+04 -6.41671E+03
 -8.23744E+03 -1.13583E+04  1.33919E+00 -1.00314E+04  4.31094E+03 -5.17957E+03  4.54970E+03 -5.03626E+03
  2.66951E+03 -3.16781E+03  3.47705E+03 -2.00532E+03  4.93621E+03 -1.54191E+03  6.82490E+03 -3.59844E+02
  8.75309E+03  1.75682E+03  2.73547E+03  7.45807E+03 -2.96917E+03  8.30035E+03 -7.22101E+03  6.25831E+03
 -1.07285E+04 -1.75570E+03 -5.67289E+03 -6.60888E+03 -3.27782E+02 -1.06180E+04  6.01267E+03 -1.04223E+04
  1.12652E+04 -5.63153E+03  1.43020E+04  1.40390E+03  9.49467E+03  9.95410E+03  2.78949E+03  1.24698E+04
 -4.71761E+03  1.06179E+04 -7.29489E+03  3.40860E+03 -4.08215E+03 -2.43513E+03 -1.61073E+03 -2.42870E+03
 -1.51416E+03  9.36593E+02 -1.62067E+03  2.80714E+03 -4.47896E+03  2.36215E+03 -8.23238E+03 -1.38502E+03
 -6.07747E+03 -7.56426E+03  8.69265E+02 -9.55052E+03  6.30048E+03 -8.27823E+03  9.57152E+03 -2.62944E+03
  9.11952E+03  4.81381E+03  5.44574E+03  7.79990E+03 -2.63496E+03  9.27081E+03 -5.94805E+03  5.66691E+03
 -9.78105E+03  7.57262E+02 -6.91317E+03 -6.85573E+03 -1.10447E+03 -7.36094E+03  4.69278E+03 -5.40117E+03
  6.08784E+03 -6.66143E+02  3.96772E+03  4.29705E+02  9.05511E+02  4.01950E+03  8.45347E+02  1.48607E+03
  1.69158E+03  1.98282E+03  1.41045E+03  3.58000E+02  2.54493E+03  4.67979E+03  3.90640E+03  4.24675E+03
 -1.79762E+03  6.11983E+03 -6.24252E+03  8.00424E+03 -9.30853E+03  2.83625E+03 -1.00728E+04 -4.01915E+03
 -4.40359E+03 -9.18328E+03  6.80262E+02 -1.08043E+04  5.33876E+03 -7.15918E+03  7.89599E+03 -2.56572E+03
  6.28835E+03  3.82976E+03  9.86010E+02  6.54396E+03 -2.23784E+03  3.78542E+03 -2.98789E+03 -5.90083E+02
 -1.32344E+03 -4.14812E+03  2.84472E+03 -2.86282E+03  4.54422E+03 -2.99821E+03  3.20933E+03  5.30498E+02
  1.57415E+03  2.26581E+03  1.88477E+03  9.37659E+02  5.12328E+01  7.44995E+02  1.80085E+03  5.97780E+02
  1.67154E+03  9.26553E+02  3.09443E+03  1.54849E+03  3.07193E+03  5.17801E+03 -9.42743E+02  7.26521E+03
 -4.93537E+03  5.35825E+03 -5.64295E+03  9.37715E+02 -5.27330E+03 -2.83494E+03 -1.71854E+03 -2.44685E+03
 -7.98834E+02 -4.72857E+03  2.32810E+03 -2.30202E+03  2.50602E+03  3.48163E+03 -5.60802E+02  3.19290E+03
 -4.30318E+03  1.61028E+03 -2.94015E+03 -3.31112E+03 -2.64137E+03 -3.91316E+03  1.17188E+03 -4.73782E+03
  2.55596E+03 -4.33647E+03  2.99014E+03 -1.03394E+03  3.03508E+03  1.28589E+03  6.35640E+02  2.00808E+03
 -1.60363E+03  1.08392E+03 -2.22545E+03 -9.64039E+02  9.49844E+02 -3.41052E+03  4.32371E+03 -3.13135E+03
  5.55957E+03  1.40091E+03  5.61361E+03  3.24615E+03  2.64011E+03  6.36428E+03 -1.88984E+03  5.56171E+03
 -4.73059E+03  2.05951E+03 -4.51151E+03  6.71686E+02 -2.44896E+03 -3.86487E+03  1.49844E+03 -4.25100E+03
  3.45895E+03 -2.15018E+03  1.59641E+03  2.77048E+03  7.89903E+02  2.99349E+03 -6.77179E+02  1.93458E+03
 -2.65516E+03  9.03948E+02 -1.26725E+03 -4.43396E+02  4.68223E+02  2.79272E+02 -1.15717E+03  1.14277E+03
 -1.58391E+03  2.14811E+03 -3.03398E+03  1.39663E+03 -4.24107E+03 -1.13210E+03 -5.26909E+03 -3.20712E+03
 -3.00252E+03 -7.23674E+03  9.96432E+01 -6.35171E+03  5.48542E+03 -6.01691E+03  7.32219E+03 -1.79036E+03
  6.24984E+03  1.09317E+03  3.00931E+03  5.29848E+03 -1.21852E+02  6.21483E+03 -1.39061E+03  3.94066E+03
 -4.02081E+03  1.08032E+03 -1.74507E+03  3.10185E+02 -1.07527E+03 -1.59191E+03 -1.27069E+03 -1.82797E+02
 -1.60003E+03 -2.58450E+01 -1.92210E+03 -4.81101E+02  1.38939E+03 -2.31394E+03  3.20234E+01 -1.50126E+03
  3.66748E+03 -9.28308E+02  2.64772E+03  1.35013E+03  3.71441E+03  2.53731E+03  7.32201E+02  3.61382E+03
 -4.01069E+03  5.16801E+03 -4.37810E+03  3.56156E+03 -5.98281E+03 -2.44537E+02 -5.31741E+03 -2.54924E+03
 -1.73111E+03 -4.94108E+03 -4.45236E+01 -3.34991E+03  3.26349E+03 -2.36529E+03  2.37219E+03  2.61766E+02
  3.64730E+03  1.80722E+03 -7.95621E+02  8.42941E+02 -4.59441E+02 -7.70741E+02 -2.54161E+02 -8.87647E+02
  1.53318E+03 -3.92160E+02  2.46320E+03  5.93439E+02  1.37665E+03  1.88864E+03  2.49418E+02  2.48880E+03
 -1.77735E+03  1.68695E+03 -1.76805E+03 -3.79384E+02 -2.22781E+03 -2.35650E+03  2.78511E+02 -3.84467E+03
  3.11119E+03 -2.67740E+03  2.42513E+03 -1.03298E+03  2.88838E+03 -1.20386E+03  2.86137E+03  2.99510E+03
  6.08079E+02  2.75316E+03 -6.89678E+02  3.03845E+03 -2.03689E+03  1.03475E+03 -1.06652E+03  7.74127E+02
  5.67255E+02 -9.77439E+02 -2.08632E+03  7.39376E+02 -9.92235E+02  1.77835E+02 -1.81698E+03 -6.18375E+02
 -1.15947E+03 -1.01000E+03 -6.29650E+02 -3.11662E+03  9.43254E+02 -4.78185E+03  1.85669E+03 -1.80051E+03
  3.67078E+03 -5.27935E+02  2.20450E+03  1.31627E+03  3.09516E+02  3.06071E+03 -6.31388E+02  3.59931E+03
