 $NMID ID='MM_0lb_SNR200_18hz_g50_87.RAW', FMTDAT='(8E13.5)'
 TRAMP=1., VOLUME=1. $END
  3.09557E+05  4.15813E+02  3.38230E+05  2.50268E+05  8.41621E+04  3.37931E+05 -1.33313E+05  2.50209E+05
 -1.89998E+05  8.25794E+04 -1.11354E+05 -3.23891E+04  1.25192E+03 -5.07062E+04  5.42123E+04 -6.46265E+02
  3.55126E+04  5.31180E+04 -1.70914E+04  7.48828E+04 -5.97980E+04  6.36254E+04 -8.29573E+04  3.14036E+04
 -7.98841E+04 -1.12145E+04 -5.72591E+04 -5.09543E+04 -1.46740E+04 -6.92203E+04  2.68363E+04 -4.41615E+04
  3.94324E+04  4.07583E+03  1.54307E+04  4.75893E+04 -3.30775E+04  4.63698E+04 -6.57760E+04  6.82547E+01
 -5.19645E+04 -5.61216E+04 -6.24643E+03 -7.51499E+04  3.33613E+04 -5.39947E+04  4.64740E+04 -1.73274E+04
  4.17076E+04  1.11989E+04  3.01720E+04  2.41090E+04  1.68932E+04  2.90391E+04 -3.89465E+03  2.63262E+04
 -2.20504E+04  1.26963E+04 -1.81955E+04 -4.27751E+03  4.09737E+03 -7.30912E+03  2.17038E+04  1.05619E+04
  7.78308E+03  3.35232E+04 -3.16693E+04  3.53717E+04 -6.15681E+04  1.77493E+03 -5.60283E+04 -4.23421E+04
 -1.27577E+04 -6.13483E+04  3.92296E+04 -4.44437E+04  5.54702E+04 -2.37340E+03  3.14774E+04  3.06034E+04
 -4.83290E+03  3.42460E+04 -2.91729E+04  1.33393E+04 -2.85919E+04 -5.75423E+03 -1.46695E+04 -9.30319E+03
 -7.54225E+03 -1.14195E+04 -1.12065E+03 -1.74775E+04  7.53375E+03 -2.33889E+04  1.55096E+04 -1.37107E+04
  1.09736E+04  5.17400E+03 -6.11218E+03  1.28477E+04 -1.95196E+04 -2.53991E+03 -8.26594E+03 -3.14093E+04
  2.25445E+04 -4.21301E+04  4.51891E+04 -1.88717E+04  4.35065E+04  1.88209E+04  1.47391E+04  4.16125E+04
 -1.52594E+04  3.14499E+04 -2.38091E+04  1.81324E+03 -9.02389E+03 -2.51654E+04  2.16800E+04 -3.17780E+04
  3.89237E+04 -7.77591E+03  3.21510E+04  2.29700E+04  1.58592E+04  4.36562E+04 -7.23516E+03  4.61856E+04
 -2.91807E+04  3.04537E+04 -3.80191E+04  9.84523E+03 -3.94241E+04 -1.57621E+04 -2.15185E+04 -3.52863E+04
  6.82518E+03 -3.44223E+04  2.93541E+04 -1.31125E+04  2.65611E+04  1.13227E+04  2.73984E+03  1.79165E+04
 -1.39529E+04  7.30928E+03 -9.76388E+03 -8.99801E+03  6.18348E+03 -1.06112E+04  1.87222E+04  5.58071E+03
  1.30095E+04  2.19815E+04 -6.10907E+03  2.33658E+04 -2.13821E+04  9.34922E+03 -2.62867E+04 -6.20610E+03
 -1.72322E+04 -1.72016E+04 -6.06510E+03 -1.72969E+04  3.31361E+03 -1.58182E+04  1.33982E+04 -1.49833E+04
  2.08141E+04 -1.25122E+04  2.90708E+04  9.40589E+02  2.23071E+04  1.84155E+04  3.41838E+03  3.43995E+04
 -1.67856E+04  2.79368E+04 -2.66555E+04  9.65740E+03 -2.03180E+04 -1.10215E+04 -3.60548E+03 -1.41000E+04
  2.43019E+03 -4.32078E+03 -2.07714E+03  5.12528E+03 -1.38245E+04  4.30303E+03 -1.35111E+04 -4.46916E+03
 -8.96655E+03 -1.57763E+04  5.10369E+03 -2.06099E+04  1.40444E+04 -1.32234E+04  1.57193E+04 -1.43438E+03
  9.61752E+03  1.07964E+04 -3.85953E+02  1.62905E+04 -1.07516E+04  9.38392E+03 -1.58602E+04 -4.00388E+03
 -1.23662E+04 -1.46992E+04 -6.39635E+02 -1.87643E+04  9.78949E+03 -1.56334E+04  1.79845E+04 -7.22728E+03
  1.51946E+04 -4.07679E+02  1.01115E+04  3.46059E+03  5.21386E+03  1.47454E+03  7.57696E+03 -1.23093E+03
  1.47919E+04  2.88849E+03  1.47440E+04  1.31349E+04  9.81069E+03  2.63855E+04 -3.27433E+03  2.74995E+04
 -1.56064E+04  2.28317E+04 -2.69584E+04  1.09509E+04 -2.70123E+04 -1.97343E+03 -2.13969E+04 -1.58008E+04
 -1.08061E+04 -2.26063E+04  7.19500E+03 -1.98780E+04  1.69014E+04 -1.10539E+04  1.65334E+04  3.66561E+03
  5.63130E+03  1.06555E+04 -7.32992E+03  1.10383E+04 -1.34349E+04  2.18665E+03 -1.15760E+04 -9.52113E+03
 -1.54141E+02 -1.31819E+04  7.06113E+03 -1.06898E+04  7.95765E+03 -1.21426E+03  1.97835E+03  6.50584E+03
 -5.84128E+03  3.20383E+02 -3.99186E+03 -5.32074E+03 -4.74253E+02 -1.06641E+04  7.85316E+03 -1.04854E+04
  1.27958E+04 -4.98675E+03  1.31240E+04  3.01654E+03  1.13235E+04  9.58755E+03  5.06432E+03  1.35462E+04
 -1.51404E+03  1.63839E+04 -1.06837E+04  1.09465E+04 -1.23403E+04  3.11991E+03 -8.21690E+03 -2.15509E+03
 -4.09160E+03 -3.94747E+03 -9.10329E+02  5.30016E+02 -1.55718E+03  2.29410E+03 -3.03959E+03  3.82909E+03
 -8.09243E+03 -1.32518E+03 -9.96538E+03 -7.28643E+03 -4.28775E+03 -1.10793E+04  3.23449E+03 -9.35091E+03
  8.38445E+03 -3.92168E+03  5.64239E+03  1.73219E+03 -3.67010E+02  2.88311E+03 -3.39696E+03 -1.23913E+03
 -3.76859E+03 -4.94389E+03 -8.67790E+02 -9.48799E+03  4.41199E+03 -8.33911E+03  1.13283E+04 -4.05314E+03
  1.29350E+04  3.66084E+02  9.98074E+03  5.99946E+03  1.16701E+03  9.43890E+03 -5.25817E+03  8.91010E+03
 -7.78522E+03  3.36633E+03 -2.64043E+03 -1.17097E+03  1.38606E+03 -1.53911E+03  4.83758E+03 -1.40513E+03
  4.36183E+03  3.76860E+03  1.42888E+03  5.61048E+03 -4.93342E+03  7.33144E+03 -6.61439E+03  9.90228E+02
 -5.57112E+03 -2.92011E+03  8.84183E+01 -7.27604E+03  5.07295E+03 -3.65723E+03  4.43045E+03  1.22280E+03
  2.88538E+02  3.89652E+03 -4.44741E+03  4.96900E+03 -6.23822E+03  2.94131E+03 -4.44176E+03 -2.11697E+03
 -3.67613E+03 -6.06650E+03  1.92048E+03 -7.45168E+03  5.73222E+03 -3.69788E+03  7.57972E+03 -5.38258E+02
  4.97549E+03  5.10079E+03  6.19726E+02  8.11831E+03 -5.53779E+03  4.16459E+03 -5.70581E+03  2.22800E+02
 -6.24919E+03 -4.64312E+03 -7.98152E+02 -5.56548E+03  2.82013E+03 -3.68824E+03  2.55946E+03 -3.65307E+03
  2.84518E+03  5.18033E+02 -6.70637E+02  8.18316E+02  2.23325E+02 -5.83051E+02  1.28519E+03 -1.95836E+03
  5.35551E+03 -3.29825E+02  5.20384E+03  1.00211E+03  7.17442E+03  3.16280E+03  5.34784E+03  8.31287E+03
 -1.58499E+03  7.74786E+03 -8.12683E+03  7.32945E+03 -1.10935E+04  1.53725E+03 -8.13841E+03 -2.00764E+03
 -5.10843E+03 -6.61267E+03 -8.73203E+01 -6.16652E+03  2.54869E+03 -2.56332E+03  1.38277E+03 -2.49179E+03
  1.69037E+03 -1.56375E+03  2.30057E+03 -2.94006E+03  3.19034E+03 -2.00776E+03  4.65394E+03  1.70624E+02
  5.15397E+03  1.33502E+03  2.03787E+03  3.68508E+03 -1.20553E+03  3.23353E+03 -5.19505E+03  3.15300E+03
 -5.35994E+03 -1.45560E+03 -2.56521E+03 -4.08024E+03 -1.28619E+02 -4.61010E+03  2.56501E+03 -4.94914E+03
  6.47009E+03 -4.03287E+03  6.97322E+03  1.60327E+02  5.22743E+03  5.00866E+03  1.49080E+03  6.34545E+03
 -3.09927E+03  6.30370E+03 -2.56166E+03  2.42229E+03 -2.12735E+03 -9.54963E+02 -3.60314E+02 -7.19362E+02
 -1.51047E+03  6.38882E+02 -1.17597E+03  2.31917E+03 -2.15364E+03  1.02592E+03 -4.93577E+03 -1.80078E+03
 -1.89163E+03 -3.86736E+03  5.21422E+02 -5.19741E+03  2.92444E+03 -4.21704E+03  3.96255E+03 -6.52991E+02
  4.42407E+03  3.13437E+03  1.91807E+03  4.17363E+03  8.65872E+02  3.70087E+03 -2.84932E+03  2.73893E+03
 -4.33375E+03 -9.56569E+01 -3.65472E+03 -3.34391E+03 -3.85471E+01 -3.54947E+03  9.76100E+02 -3.99496E+03
  1.72789E+03 -8.97836E+02  1.65858E+03  7.82764E+02  2.50894E+02  1.07220E+03  1.70076E+02  6.09139E+02
  2.24922E+03  4.66571E+02  1.69948E+03  1.73576E+03  1.48775E+03  2.79713E+03  1.53168E+03  1.92683E+03
 -8.33346E+02  3.45321E+03 -4.61448E+03  3.34217E+03 -2.88410E+03  5.88657E+02 -4.83545E+03 -3.68080E+02
 -3.22781E+03 -3.67511E+03  1.94669E+02 -4.64904E+03  2.27987E+03 -1.86475E+03  2.86835E+03 -8.65163E+02
  3.24819E+03  1.23574E+03  7.37460E+02  2.73416E+03 -5.08541E+02  4.29864E+02 -1.07811E+03  3.22900E+02
 -9.15155E+01 -1.48940E+03  1.25154E+03 -1.68823E+03  9.96022E+02 -4.75690E+02  9.98621E+02  5.19701E+02
  8.77246E+02  1.16149E+02  1.45851E+03  5.33569E+02 -1.07743E+03  2.67419E+02  7.30443E+02 -8.18087E+02
  6.98400E+02 -1.08411E+03  1.70222E+03  1.23239E+03  1.03103E+03  2.63133E+03 -6.65465E+02  2.59147E+03
 -1.98020E+03  1.74770E+03 -3.03592E+03  1.01322E+03 -2.46945E+03 -2.39700E+02 -1.20235E+03 -7.14913E+02
  7.01213E+02 -1.62987E+03  1.32709E+03 -9.78766E+02  2.47116E+01  2.36984E+03 -8.71256E+02  9.48350E+02
 -1.01212E+03  3.25093E+02 -1.63690E+03 -2.06382E+03 -1.16888E+03 -2.25591E+03  3.66010E+02 -8.18914E+02
  7.57397E+02 -2.35138E+02  1.97294E+02  1.23775E+02  7.03697E+02  2.76407E+02  9.67657E+01  1.12318E+03
  4.80037E+02  7.45631E+02 -2.28207E+03  1.45010E+03  1.68528E+02 -1.22565E+03  2.06765E+03 -1.62954E+03
  9.20712E+02 -2.64091E+00  3.89323E+03  4.06494E+02  7.99390E+02  5.28681E+02 -1.40327E+02  2.41333E+03
 -1.94306E+03  8.61843E+02 -1.88599E+03 -1.70626E+03 -1.83987E+03 -1.57950E+03 -2.97187E+02 -5.00311E+02
  7.57968E+02 -1.05141E+03  1.07671E+03 -2.18793E+02 -6.76429E+01  1.59549E+03  1.08309E+02  8.57877E+02
 -2.24010E+02  1.53527E+03 -8.79691E+02  8.77136E+02 -1.16338E+03  1.01556E+03 -6.66291E+02 -5.18229E+01
 -1.09390E+03  1.66421E+03 -2.00930E+03  8.54682E+02 -2.12268E+03  5.92518E+02 -3.15203E+03 -8.80805E+02
 -1.17782E+03 -3.05879E+03  6.95044E+02 -3.20864E+03  1.49275E+03 -2.95223E+03  2.98000E+03 -1.75918E+03
  2.95475E+03 -7.69942E+02  1.27825E+03  1.18559E+03 -5.17909E+02  1.68942E+02  1.29548E+02  2.02119E+03
 -1.38128E+03  5.43579E+02 -1.45748E+03  6.68201E+02 -3.60292E+02  6.93280E+02 -9.56821E+02 -1.97289E+02
 -1.13332E+03  8.50122E+01 -1.35385E+02 -8.12208E+01  3.94665E+02 -7.16464E+02 -7.39112E+02 -2.39949E+02
  1.67364E+03  2.99423E+02  4.42950E+01 -1.58094E+03  6.07221E+02  1.77350E+03 -1.30762E+02  1.63922E+03
 -1.14696E+03  1.24391E+03 -1.80198E+03  2.00915E+03 -2.18762E+03  6.59656E+02 -1.48134E+03 -8.73599E+02
 -1.53226E+03 -1.90182E+03  1.72116E+03 -1.78169E+03  3.44064E+02 -1.01929E+03  1.54517E+03 -3.36556E+02
  1.84940E+02  1.11749E+03  1.03256E+03  1.26957E+03 -4.96454E+02 -6.59261E+02 -4.77002E+02 -6.87364E+02
  2.93805E+01  6.65454E+02 -3.66711E+02  6.72518E+02 -3.84396E+02  9.13570E+02  5.37528E+02 -8.70417E+01
  4.27929E+02  2.09054E+03 -7.76940E+02 -1.03953E+02  1.33020E+02 -1.01120E+02 -2.15499E+02 -9.39028E+02
  9.41530E+02 -1.23777E+03  1.03956E+03  3.97709E+02  2.02013E+03 -1.25632E+03  1.04731E+03 -7.78699E+01
  2.07825E+03  4.52697E+02 -8.07004E+02  1.69076E+03 -4.01742E+02  2.27801E+02  6.98285E+02 -3.83900E+02
  5.87114E+02  6.54027E+02 -9.08026E+02  3.99595E+02  1.34451E+02 -1.05584E+03 -1.78713E+03 -8.10067E-01
 -1.34474E+03 -1.16659E+02 -1.76002E+02 -8.64265E+02  8.48580E+02 -4.17229E+02  6.93418E+02 -8.43072E+02
  1.06472E+03  5.67984E+01 -9.33258E+02 -1.28388E+03 -1.32737E+02  1.32958E+03  5.96739E+02  3.40859E+02
