 $NMID ID='MM_0lb_SNR200_14hz_g45_25.RAW', FMTDAT='(8E13.5)'
 TRAMP=1., VOLUME=1. $END
  3.09069E+05  7.72621E+02  3.37952E+05  2.51363E+05  8.36014E+04  3.37503E+05 -1.31949E+05  2.50797E+05
 -1.89176E+05  8.39595E+04 -1.12468E+05 -3.41490E+04  1.27937E+03 -5.04493E+04  5.22808E+04 -7.53689E+02
  3.46498E+04  5.31776E+04 -1.69518E+04  7.47436E+04 -5.97839E+04  6.44719E+04 -8.44489E+04  3.26617E+04
 -8.10668E+04 -1.14293E+04 -5.73257E+04 -5.21227E+04 -1.60236E+04 -6.87621E+04  2.63892E+04 -4.59446E+04
  3.82549E+04  2.60119E+03  1.63918E+04  4.70924E+04 -3.53897E+04  4.78678E+04 -6.62624E+04 -7.27035E+02
 -5.30914E+04 -5.65484E+04 -6.95962E+03 -7.64275E+04  3.40252E+04 -5.56804E+04  4.79843E+04 -1.84035E+04
  4.34662E+04  1.21898E+04  3.11472E+04  2.50005E+04  1.68526E+04  2.87928E+04 -6.29680E+03  2.68811E+04
 -2.19375E+04  1.19294E+04 -1.91537E+04 -4.43109E+03  4.66454E+03 -6.84736E+03  2.30947E+04  1.27186E+04
  7.19141E+03  3.40869E+04 -3.18750E+04  3.53694E+04 -6.41754E+04  2.55276E+03 -5.60826E+04 -4.27794E+04
 -1.25507E+04 -6.37723E+04  3.94749E+04 -4.51499E+04  5.80729E+04 -2.10625E+03  3.39674E+04  3.23657E+04
 -5.63755E+03  3.64002E+04 -2.90791E+04  1.58280E+04 -2.98923E+04 -4.54446E+03 -1.66928E+04 -9.60161E+03
 -9.10218E+03 -1.22843E+04  8.89139E-01 -1.78886E+04  8.63404E+03 -2.29008E+04  1.52084E+04 -1.24082E+04
  1.15249E+04  5.32091E+03 -7.08538E+03  1.22597E+04 -2.16053E+04 -3.48902E+03 -8.25871E+03 -3.33150E+04
  2.28784E+04 -4.32625E+04  4.80045E+04 -1.85999E+04  4.44661E+04  1.99921E+04  1.56484E+04  4.45642E+04
 -1.60443E+04  3.34538E+04 -2.53009E+04  1.85032E+03 -1.07425E+04 -2.75299E+04  2.22020E+04 -3.42315E+04
  4.05099E+04 -7.38788E+03  3.55635E+04  2.33697E+04  1.79091E+04  4.73820E+04 -8.18114E+03  4.99689E+04
 -3.19086E+04  3.29671E+04 -4.12463E+04  1.03151E+04 -4.27221E+04 -1.62648E+04 -2.43835E+04 -3.79059E+04
  7.40171E+03 -3.68433E+04  3.08924E+04 -1.38194E+04  2.91960E+04  1.02730E+04  4.68042E+03  1.95514E+04
 -1.38235E+04  9.01825E+03 -1.08455E+04 -8.35211E+03  5.22755E+03 -1.09847E+04  1.80224E+04  5.91396E+03
  1.42882E+04  2.10767E+04 -6.90769E+03  2.42688E+04 -2.17384E+04  1.16140E+04 -2.71927E+04 -5.69237E+03
 -2.06356E+04 -1.76860E+04 -8.45800E+03 -2.00974E+04  3.63488E+03 -2.04585E+04  1.58743E+04 -1.80029E+04
  2.49801E+04 -1.20346E+04  3.17829E+04  2.17392E+03  2.39285E+04  1.86906E+04  4.45738E+03  3.55125E+04
 -1.76234E+04  3.02891E+04 -2.85681E+04  1.10454E+04 -2.08348E+04 -1.01637E+04 -4.29321E+03 -1.32300E+04
  2.41146E+03 -2.70422E+03 -4.18663E+03  6.07942E+03 -1.60281E+04  5.56628E+03 -1.59949E+04 -6.53653E+03
 -1.01317E+04 -1.83272E+04  4.62612E+03 -2.36111E+04  1.55167E+04 -1.66204E+04  1.69336E+04 -1.42634E+03
  1.00632E+04  1.20684E+04 -2.27836E+02  1.96891E+04 -1.33395E+04  1.05055E+04 -1.89051E+04 -2.90945E+03
 -1.38357E+04 -1.64632E+04 -1.98762E+03 -2.29936E+04  9.45399E+03 -1.77848E+04  1.95105E+04 -7.39236E+03
  1.78386E+04 -6.54798E+02  1.21727E+04  3.86058E+03  5.64333E+03  8.92605E+02  9.37449E+03 -1.78220E+03
  1.69889E+04  1.32243E+03  1.89181E+04  1.48474E+04  1.21730E+04  3.01173E+04 -3.50880E+03  3.45121E+04
 -2.05265E+04  2.60848E+04 -3.04379E+04  1.31556E+04 -3.14620E+04 -2.83006E+03 -2.73921E+04 -1.84705E+04
 -1.10074E+04 -2.74981E+04  9.49170E+03 -2.32519E+04  2.09545E+04 -1.22142E+04  2.02113E+04  5.84110E+03
  7.02411E+03  1.36297E+04 -8.27910E+03  1.26377E+04 -1.64172E+04  2.44542E+03 -1.28866E+04 -8.80214E+03
 -5.26961E+02 -1.56749E+04  8.42963E+03 -1.10250E+04  1.04292E+04 -1.88160E+03  1.59424E+03  6.34922E+03
 -6.46854E+03  2.02300E+03 -4.85496E+03 -5.96698E+03 -9.50374E+02 -1.34042E+04  8.64054E+03 -1.24719E+04
  1.62726E+04 -6.58189E+03  1.62580E+04  2.53663E+03  1.42000E+04  1.33245E+04  8.84464E+03  1.97339E+04
 -3.93346E+03  2.16364E+04 -1.33157E+04  1.42076E+04 -1.58843E+04  3.78975E+03 -1.10115E+04 -4.16009E+03
 -6.86078E+03 -3.41503E+03 -1.71280E+03  1.99342E+03 -2.23791E+03  2.07718E+03 -5.29648E+03  3.62112E+03
 -9.83086E+03 -1.74118E+02 -1.04866E+04 -9.20020E+03 -4.51986E+03 -1.43839E+04  4.56496E+03 -1.17389E+04
  9.44411E+03 -4.46345E+03  6.83414E+03  2.28233E+03  2.21913E+02  3.63347E+03 -5.36906E+03 -2.16888E+02
 -5.44912E+03 -8.39615E+03 -4.56477E+01 -9.63745E+03  5.24471E+03 -1.10838E+04  1.36178E+04 -4.55744E+03
  1.68384E+04  2.56482E+03  1.12503E+04  9.03243E+03  2.65563E+03  1.18613E+04 -6.93053E+03  1.07809E+04
 -9.78165E+03  3.25563E+03 -5.43406E+03 -1.80561E+03  1.20840E+03 -1.76892E+03  6.51223E+03 -2.90671E+02
  6.13887E+03  5.25480E+03  1.21787E+03  9.15972E+03 -6.03283E+03  7.98957E+03 -8.86294E+03  1.90715E+03
 -7.39522E+03 -4.58175E+03  4.78636E+02 -9.51780E+03  5.64757E+03 -4.42884E+03  5.73099E+03  2.35847E+03
 -3.83169E+02  6.71105E+03 -6.31747E+03  8.10328E+03 -9.52570E+03  2.00527E+03 -9.38561E+03 -3.36159E+03
 -5.26588E+03 -9.71217E+03  1.85251E+03 -1.09034E+04  9.37040E+03 -7.71840E+03  9.68817E+03  1.12107E+03
  6.29717E+03  8.30955E+03 -6.64959E+02  1.01197E+04 -6.81581E+03  5.35842E+03 -7.48586E+03 -8.32622E+02
 -7.96110E+03 -7.25140E+03 -2.02234E+03 -7.11907E+03  3.23740E+03 -7.35362E+03  4.73499E+03 -3.43708E+03
  4.29045E+03  8.53083E+02 -1.42710E+03  1.80983E+03  5.91623E+02 -1.26627E+03  1.61341E+03 -3.81186E+03
  7.22060E+03 -1.12605E+03  9.84392E+03 -9.28499E+00  7.83188E+03  6.95829E+03  6.82595E+03  1.14887E+04
 -2.34377E+03  1.38044E+04 -1.15044E+04  1.03243E+04 -1.50679E+04  7.41714E+02 -1.27358E+04 -3.73437E+03
 -7.19437E+03 -9.57659E+03 -3.30525E+02 -9.39671E+03  2.90223E+03 -3.91806E+03  3.51691E+03 -4.06817E+03
  2.64692E+03 -1.99681E+03  1.40283E+03 -1.73527E+03  4.13699E+03 -1.99645E+03  3.77124E+03  9.17400E+01
  6.14079E+03  1.08696E+03  2.92283E+03  4.40346E+03 -1.75340E+03  4.68904E+03 -6.83693E+03  4.19456E+03
 -8.55478E+03 -7.28785E+02 -3.64675E+03 -5.90078E+03  1.98108E+02 -7.34079E+03  4.26735E+03 -7.80744E+03
  9.21622E+03 -4.75215E+03  1.02676E+04  9.47049E+02  6.83357E+03  8.58460E+03  9.48218E+02  9.25658E+03
 -3.48134E+03  8.12960E+03 -5.57186E+03  1.73910E+03 -3.96437E+03 -1.44315E+03 -1.06312E+03 -8.81565E+02
 -1.60760E+02 -7.60040E+02 -1.53166E+03  2.28235E+03 -2.65813E+03  1.54267E+03 -5.01241E+03 -6.15583E+02
 -3.74640E+03 -5.56037E+03  5.67585E+02 -8.91982E+03  4.52829E+03 -7.11268E+03  6.85850E+03 -2.24192E+03
  7.30202E+03  4.64459E+03  2.58292E+03  5.68580E+03 -8.98353E+02  6.15230E+03 -5.40284E+03  5.11897E+03
 -6.33204E+03  1.07875E+03 -5.20571E+03 -4.49879E+03 -3.44672E+02 -5.16450E+03  2.41269E+03 -4.10198E+03
  4.81586E+03 -1.14403E+03  3.02645E+03 -1.94400E+01  8.76064E+02  2.58597E+03 -9.88501E+01  5.75744E+02
  9.80357E+02  1.75250E+02  2.85857E+03  1.79270E+03  3.21967E+03  2.08673E+03  1.99798E+03  4.04334E+03
 -1.08894E+03  5.66687E+03 -5.76691E+03  5.88676E+03 -7.80952E+03  1.70430E+03 -7.80286E+03 -2.05537E+03
 -2.60856E+03 -7.39457E+03  5.22073E+02 -8.76841E+03  5.17239E+03 -5.91316E+03  6.15911E+03 -7.90254E+02
  5.03752E+03  2.21442E+03  4.75177E+02  4.08991E+03 -1.89571E+03  1.74582E+03 -2.31121E+03 -3.00450E+02
 -1.81811E+03 -3.65052E+03  7.32746E+02 -4.51007E+03  3.87343E+03 -1.71274E+03  3.76020E+03  5.00289E+02
  5.13411E+02  2.91443E+02 -3.26871E+02  2.11196E+03 -6.46036E+02  2.02419E+03  1.83794E+03  2.72887E+02
  5.22092E+02 -9.82750E+02  3.57926E+03  6.73097E+02  6.35716E+02  4.05810E+03  1.80396E+02  5.15103E+03
 -4.36268E+03  3.25227E+03 -5.44380E+03 -4.59005E+02 -4.62372E+03 -2.11894E+03 -7.69665E+02 -2.50737E+03
  1.56588E+03 -3.83792E+03  3.13185E+03 -2.38933E+01  3.42099E+02  6.40421E+02 -9.57167E+02  1.93757E+03
 -2.30257E+03  1.41015E+03 -3.22403E+03 -2.11173E+03 -2.40863E+03 -3.40934E+03  1.22251E+03 -4.08401E+03
  1.36360E+03 -1.91970E+03  2.41310E+03  6.40067E+02  2.36223E+03  4.21144E+02  3.85321E+02  1.79393E+03
 -9.93921E+02  6.26094E+02 -9.70585E+02 -2.17062E+03  1.38262E+03 -1.94856E+03  3.36555E+03 -1.22268E+03
  3.28426E+03  4.27761E+02  4.98046E+03  1.85893E+03  2.53077E+03  3.95058E+03 -1.76618E+03  2.89379E+03
 -3.42212E+03  1.83174E+03 -3.40973E+03 -2.34623E+02 -2.75762E+03 -2.89029E+03  1.69653E+03 -2.23314E+03
  2.42134E+03 -1.49869E+03  2.95268E+03  1.55288E+03  8.25747E+02  3.54627E+03 -8.57182E+02  2.65740E+03
 -1.41828E+03  1.51862E+03 -1.81747E+03 -2.84902E+01  3.79315E+01  1.66927E+03  3.68474E+02  2.28753E+03
 -1.91587E+03  2.51610E+03 -2.21106E+03  1.10420E+03 -4.39736E+03 -5.78072E+02 -3.89977E+03 -3.79086E+03
 -3.00023E+03 -5.11340E+03  1.61980E+03 -5.87281E+03  3.27112E+03 -6.57076E+03  5.83975E+03 -1.28032E+03
  6.10954E+03 -2.87883E+01  2.65179E+03  4.13952E+03  5.65335E+02  2.69860E+03 -1.11858E+03  4.11776E+03
 -3.12384E+03  1.30686E+03 -1.91899E+03 -1.79923E+03 -8.72726E+02  3.43137E+01 -1.22751E+03 -7.78526E+02
 -5.20330E+02 -1.74811E+03 -1.68346E+03  4.88738E+02  1.35323E+03 -2.62682E+03 -2.20912E+02 -1.19463E+03
  2.10527E+03 -8.30064E+02  1.93392E+03  4.98184E+02  2.63732E+03  1.87761E+03  9.98597E+02  4.75119E+03
 -2.10297E+03  6.03085E+03 -4.13121E+03  8.63685E+02 -4.47761E+03 -5.70931E+02 -2.79535E+03 -3.02916E+03
 -5.68310E+02 -4.66607E+03  4.03665E+02 -3.39167E+03  2.11651E+03 -1.37882E+03  2.78325E+03  5.93506E+02
  7.24981E+02  1.06379E+03 -1.92822E+02  9.52192E+02 -2.50781E+03 -1.98496E+03  8.02798E+02 -4.19614E+02
  3.19120E+02 -1.59074E+03  1.33056E+03  5.25371E+02  1.36587E+03  1.84517E+03  3.75525E+02  8.73081E+02
 -1.37986E+03  1.46299E+03 -2.20855E+03  2.74247E+02 -1.08992E+03 -2.49723E+03 -6.14655E+02 -3.35069E+03
  1.75410E+03 -2.28570E+03  2.81161E+03  1.96202E+02  3.89840E+03 -7.20012E+02  6.27507E+02  3.26930E+03
  1.04040E+03  2.26810E+03 -1.69094E+02  3.51863E+03 -8.43972E+02  3.05157E+02 -1.18982E+03  4.72703E+02
 -1.36185E+03  1.19700E+03 -2.92965E+02 -7.08798E+02 -1.67672E+03 -3.85431E+02 -1.41597E+03 -3.27875E+02
 -2.36647E+03  2.40555E+02 -9.21207E+02 -2.52953E+03  1.17027E+03 -3.20169E+03  3.12085E+03 -1.84029E+03
  1.90568E+03  4.13129E+02  7.60339E+02  2.18969E+03  3.46144E+02  2.32797E+03 -1.39569E+03  1.43804E+03
