 $NMID ID='MM_0lb_SNR200_19hz_g50_17.RAW', FMTDAT='(8E13.5)'
 TRAMP=1., VOLUME=1. $END
  3.09070E+05  8.26301E+02  3.37294E+05  2.49694E+05  8.33239E+04  3.37289E+05 -1.32280E+05  2.49273E+05
 -1.90549E+05  8.29092E+04 -1.11558E+05 -3.23445E+04  1.90160E+03 -5.00955E+04  5.41062E+04  1.21674E+02
  3.50325E+04  5.33662E+04 -1.74178E+04  7.38610E+04 -6.06824E+04  6.29771E+04 -8.29268E+04  3.08425E+04
 -7.98510E+04 -1.12003E+04 -5.59796E+04 -5.00404E+04 -1.46085E+04 -6.82158E+04  2.66349E+04 -4.48051E+04
  3.92552E+04  3.85362E+03  1.47899E+04  4.65349E+04 -3.42504E+04  4.72674E+04 -6.52725E+04 -5.10006E+02
 -5.18342E+04 -5.56098E+04 -6.44936E+03 -7.62888E+04  3.27656E+04 -5.28413E+04  4.57072E+04 -1.67089E+04
  4.18953E+04  1.14633E+04  3.08049E+04  2.60008E+04  1.55293E+04  2.84634E+04 -5.13984E+03  2.63516E+04
 -2.31445E+04  1.28174E+04 -1.87633E+04 -3.53150E+03  4.73724E+03 -8.26054E+03  2.05629E+04  1.12700E+04
  7.18050E+03  3.41650E+04 -3.15392E+04  3.54670E+04 -6.11985E+04  1.91425E+03 -5.54602E+04 -4.14683E+04
 -1.12263E+04 -6.17417E+04  3.93287E+04 -4.28824E+04  5.52766E+04 -2.19070E+03  3.22030E+04  3.00874E+04
 -5.51149E+03  3.29633E+04 -2.76940E+04  1.36500E+04 -2.82157E+04 -4.92127E+03 -1.45310E+04 -1.09178E+04
 -7.05840E+03 -1.07686E+04 -9.43444E+02 -1.66082E+04  6.79308E+03 -2.24100E+04  1.38770E+04 -1.37770E+04
  1.23086E+04  4.83532E+03 -6.66091E+03  1.27151E+04 -1.99272E+04 -3.35733E+03 -8.61785E+03 -3.02159E+04
  2.11150E+04 -4.08345E+04  4.53887E+04 -1.90817E+04  4.27068E+04  1.85411E+04  1.36886E+04  4.15236E+04
 -1.59706E+04  3.22333E+04 -2.48423E+04  4.73085E+02 -8.06298E+03 -2.60447E+04  2.06236E+04 -3.05158E+04
  3.81048E+04 -6.78780E+03  3.22431E+04  2.33025E+04  1.54306E+04  4.31526E+04 -8.26255E+03  4.49935E+04
 -2.87710E+04  2.98803E+04 -3.75692E+04  7.20191E+03 -3.87781E+04 -1.44511E+04 -2.09896E+04 -3.40658E+04
  6.36847E+03 -3.39169E+04  2.99159E+04 -1.26229E+04  2.65362E+04  1.03478E+04  3.33558E+03  1.77233E+04
 -1.31197E+04  7.32285E+03 -9.53558E+03 -7.66078E+03  5.34979E+03 -1.00915E+04  1.72006E+04  6.08154E+03
  1.21938E+04  2.15066E+04 -6.57248E+03  2.30028E+04 -2.09234E+04  9.05923E+03 -2.40320E+04 -6.13517E+03
 -1.64224E+04 -1.55954E+04 -5.57386E+03 -1.68429E+04  3.34172E+03 -1.41729E+04  1.19185E+04 -1.45307E+04
  2.04962E+04 -1.23514E+04  2.83272E+04  1.59782E+03  2.00718E+04  1.73159E+04  3.43694E+03  3.24636E+04
 -1.62183E+04  2.70126E+04 -2.59760E+04  9.19345E+03 -1.87030E+04 -1.14737E+04 -3.65663E+03 -1.41412E+04
  3.14734E+03 -3.97654E+03 -2.15967E+03  5.15342E+03 -1.25534E+04  4.76921E+03 -1.35493E+04 -4.67795E+03
 -8.93233E+03 -1.64494E+04  4.85799E+03 -1.85638E+04  1.25341E+04 -1.42089E+04  1.53800E+04 -1.88305E+03
  8.32456E+03  1.14161E+04 -1.02832E+03  1.57824E+04 -9.39862E+03  8.23222E+03 -1.54139E+04 -3.67571E+03
 -1.13178E+04 -1.42392E+04 -1.97193E+03 -1.78552E+04  9.55690E+03 -1.58911E+04  1.59008E+04 -7.14215E+03
  1.43513E+04 -4.70325E+02  1.03341E+04  4.57511E+03  4.87246E+03  9.61708E+02  7.49752E+03 -1.84918E+03
  1.27789E+04  3.31763E+03  1.48001E+04  1.24628E+04  9.31386E+03  2.43507E+04 -2.54578E+03  2.62837E+04
 -1.49263E+04  1.99164E+04 -2.31576E+04  9.44904E+03 -2.44608E+04 -1.28715E+03 -2.10773E+04 -1.53051E+04
 -1.09275E+04 -1.94845E+04  7.23745E+03 -1.91259E+04  1.70843E+04 -1.03136E+04  1.62333E+04  3.45850E+03
  6.97988E+03  1.05860E+04 -7.22852E+03  1.14728E+04 -1.25793E+04  2.63810E+03 -1.04005E+04 -8.56270E+03
 -8.07031E+02 -1.25657E+04  6.61855E+03 -9.77388E+03  8.38871E+03 -2.40078E+03  1.68037E+03  5.08519E+03
 -4.68654E+03  1.02868E+03 -3.98784E+03 -4.50861E+03  7.82536E+02 -9.73940E+03  8.00193E+03 -9.78920E+03
  1.12790E+04 -3.97482E+03  1.31558E+04  3.47954E+03  1.00578E+04  9.94527E+03  4.12108E+03  1.33377E+04
 -2.03168E+03  1.55862E+04 -9.41645E+03  1.01845E+04 -1.10982E+04  2.00538E+03 -9.06998E+03 -2.49045E+03
 -3.66412E+03 -1.84170E+03 -1.22002E+03  1.14304E+03 -1.65037E+03  2.71314E+03 -3.39109E+03  2.59853E+03
 -7.77630E+03 -8.57963E+02 -9.08226E+03 -7.11516E+03 -3.96764E+03 -1.15863E+04  3.79697E+03 -8.72391E+03
  7.00495E+03 -3.48780E+03  5.01154E+03  2.27292E+03  5.70236E+02  2.76483E+03 -3.38744E+03 -1.22244E+03
 -3.17998E+03 -5.68478E+03 -9.05172E+02 -8.13917E+03  4.03986E+03 -7.82145E+03  9.26717E+03 -4.18249E+03
  1.10641E+04  1.79880E+02  8.37667E+03  6.05559E+03  2.09833E+03  8.55490E+03 -5.18216E+03  7.84095E+03
 -5.72560E+03  2.98310E+03 -3.82863E+03 -2.92645E+02  9.27822E+02 -2.06311E+03  4.23197E+03 -9.05616E+02
  3.76039E+03  4.57091E+03  1.15963E+03  5.07601E+03 -4.50681E+03  6.00938E+03 -6.85262E+03  1.62624E+03
 -5.26025E+03 -3.71753E+03  3.97272E+02 -5.94133E+03  3.89053E+03 -4.35602E+03  3.58957E+03  1.17527E+03
  5.02665E+02  2.16597E+03 -5.11845E+03  5.16852E+03 -3.35068E+03  1.38686E+03 -3.65514E+03 -9.11069E+02
 -1.84449E+03 -6.47280E+03  2.11082E+03 -6.63320E+03  5.93279E+03 -3.45297E+03  6.00631E+03  2.51589E+03
  4.25535E+03  4.71942E+03  7.49290E+02  5.35191E+03 -5.31962E+03  3.84902E+03 -4.23926E+03 -3.53471E+02
 -4.95667E+03 -4.62880E+03 -1.52496E+03 -5.06944E+03  2.16719E+03 -3.81029E+03  3.38714E+03 -3.15872E+03
  2.50583E+03  5.83732E+02  5.39193E+02  1.96320E+03  1.46544E+03  1.09456E+03  1.47552E+02 -2.32155E+03
  3.74506E+03 -1.75285E+02  5.24264E+03  1.35293E+02  5.08736E+03  4.57036E+03  4.91086E+03  8.18807E+03
 -1.45890E+03  9.62013E+03 -7.59063E+03  6.20216E+03 -9.26648E+03  7.64927E+02 -7.39082E+03 -1.96789E+03
 -4.05410E+03 -6.59543E+03 -8.16396E+02 -3.63676E+03  2.31526E+03 -1.83416E+03  1.14600E+03 -3.12348E+03
  1.27969E+01 -8.45974E+02  8.67587E+02 -2.97678E+03  3.26655E+03 -1.30348E+03  3.94057E+03  7.81132E+02
  4.09831E+03  1.56498E+03  1.09244E+03  2.96684E+03 -1.45224E+03  1.32104E+03 -3.20251E+03  2.40562E+03
 -5.23855E+03 -1.81377E+03 -1.68663E+03 -3.93140E+03  4.65840E+02 -4.63545E+03  2.54999E+03 -5.21249E+03
  5.36607E+03 -2.80118E+03  6.86494E+03 -9.07657E+01  5.49327E+03  4.25610E+03  1.98634E+03  6.13856E+03
 -1.97743E+03  5.45950E+03 -2.77632E+03  2.14697E+03 -1.51019E+03 -2.05572E+03 -9.26407E+02 -1.03888E+03
 -4.39380E+02  6.37413E+01 -7.58441E+02  2.15968E+03 -2.29094E+03  2.47625E+02 -3.89084E+03 -9.39694E+02
 -1.08224E+03 -3.89393E+03 -1.12230E+02 -3.94708E+03  2.99873E+03 -4.02457E+03  2.85580E+03  5.82933E+01
  3.98227E+03  2.55017E+03  1.70642E+03  3.70330E+03 -2.72933E+03  4.49733E+03 -2.47089E+03  2.96719E+03
 -3.58447E+03  3.22811E+02 -3.23475E+03 -1.18363E+03  5.66996E+02 -3.74317E+03  2.36184E+03 -2.34816E+03
  1.33655E+03 -1.23199E+03  1.79651E+03  1.15762E+03  3.29089E+01  1.37141E+03  8.06417E+02  5.03177E+02
  2.07348E+03  4.05493E+02  4.45415E+02  6.03956E+02  8.60297E+02  3.18927E+03  2.11442E+03  1.86099E+03
 -9.66811E+02  2.90115E+03 -2.48693E+03  4.28993E+03 -3.46555E+03  6.78757E+02 -4.18537E+03 -3.25787E+02
 -1.39568E+03 -3.57704E+03  1.73321E+02 -4.44824E+03  2.07072E+02 -2.19997E+03  3.48731E+03 -1.45629E+03
  2.04378E+03  1.45812E+03  3.29700E+02  2.20943E+03 -1.66933E+03  9.66167E+02 -1.14318E+03 -6.40096E+01
 -1.61169E+03 -1.80812E+03  1.05214E+03 -1.61276E+03  1.11216E+03 -1.78370E+03  1.66544E+03 -5.63772E+02
  4.78221E+02 -7.55599E+02  8.90216E+02  1.32330E+02 -2.30200E+02  5.67407E+02  2.77977E+03 -3.36603E+01
 -9.60936E+02 -2.56608E+02  1.19744E+03  9.13375E+02  2.38925E+02  2.21254E+03 -9.76561E+02  2.55503E+03
 -1.08561E+03  9.44465E+02 -2.20353E+03  8.74833E+01 -2.99228E+03 -9.29717E+02 -8.31301E+02 -1.33471E+03
  1.74421E+03 -1.25722E+03  1.05199E+03  2.56648E+02  9.38409E+02  1.44055E+03  2.04763E+02  1.65956E+03
 -2.21205E+03  1.28450E+03 -1.18733E+03 -2.45223E+03  1.22075E+02 -1.97247E+03 -4.13069E+02 -2.10988E+03
  4.63466E+02 -9.04243E+02  9.67035E+02  1.69039E+02  5.35866E+02  1.63663E+02 -3.57814E+02  7.29553E+02
 -1.20226E+03 -6.30204E+01 -1.11966E+03 -1.24823E+03  6.47456E+02 -1.64909E+03  1.41144E+03 -3.40765E+02
  1.14577E+03 -6.57620E+01  3.48160E+03  9.14341E+02  1.48714E+03  8.21534E+02  1.96441E+01  1.69433E+03
 -1.03224E+02 -1.48600E+02 -1.58848E+03 -1.20725E+02 -6.01951E+02 -1.94266E+03 -2.18613E+02 -2.57197E+02
  1.71648E+03 -2.19530E+02  4.51575E+02  1.23452E+03 -5.29632E+02  1.06110E+03  7.98708E+01  1.96059E+03
 -1.36303E+02  1.13344E+03 -1.21911E+03  3.23990E+02 -1.73803E+02  8.81148E+02 -7.83827E+02  5.87880E+02
 -4.28830E+02  5.39831E+02 -6.55047E+02 -9.27229E+01 -3.80990E+02  1.60450E+02 -2.44332E+03  3.72738E+02
 -1.22359E+03 -1.43151E+03  5.43552E+02 -2.16297E+03  9.16465E+02 -2.80257E+03  2.45044E+03 -1.19193E+03
  2.72831E+03  5.23419E+02  1.07392E+03  8.97395E+02 -7.80411E+02  9.61427E+02 -7.77543E+02  6.04001E+02
  3.13382E+02  7.13825E+02 -5.62590E+02 -1.14322E+03 -1.46057E+02  6.84802E+01  3.49518E+02 -4.15842E+02
 -9.37742E+02 -3.31567E+02 -5.14187E+02  4.50844E+02  3.23258E+02 -4.55222E+02 -3.22782E+02 -3.19302E+01
  1.69118E+03 -7.50124E+02  1.99413E+02  6.57629E+02  7.71963E+02  6.75062E+02 -7.52297E+01  5.85920E+02
 -9.99878E+02  1.02349E+03 -1.75978E+03  1.08402E+03 -1.55874E+03 -7.37441E+02 -6.54223E+02 -1.56430E+03
 -1.52596E+03 -1.30621E+02  8.88937E+02 -1.47011E+03 -6.96213E+02 -2.13134E+02  9.80042E+02  3.50491E+02
  6.07035E+01 -7.44804E+01 -5.31581E+02  6.58054E+02 -1.18420E+03 -8.45760E+02  5.50824E+02 -6.93678E+02
 -9.70352E+02  4.69450E+02 -6.74459E+02  9.94945E+02 -1.08968E+03  4.98777E+02  6.68412E+02  4.48845E+01
 -1.10405E+03 -6.14616E+02 -4.54134E+02 -3.77790E+02  2.95671E+02 -3.05027E+02 -2.41027E+02 -8.81498E+02
  4.29302E+02  5.05380E+01  1.78448E+02 -2.79417E+02  2.23901E+02 -5.61468E+02  7.16029E+02  7.61151E+02
 -4.94134E+02  1.19773E+03 -3.60118E+02  1.83290E+02 -1.00539E+03  4.99609E+02 -2.55043E+02 -7.11215E+01
 -4.05894E+02  5.35807E+02 -6.93918E+02 -2.47015E+02 -4.80900E+01 -4.52449E+02 -1.46384E+03 -8.72318E+02
 -5.21623E+02  6.53888E+02 -1.38382E+02 -9.73981E+02  7.80995E+02 -1.94104E+03  5.53083E+02 -4.81482E+02
  1.89583E+02  2.78647E+02 -5.06215E+02  5.72387E+02 -7.45580E+02  9.78018E+02 -5.98586E+02 -3.62053E+01
