 $NMID ID='MM_0lb_SNR200_20hz_g55_21.RAW', FMTDAT='(8E13.5)'
 TRAMP=1., VOLUME=1. $END
  3.09870E+05  2.02457E+02  3.37452E+05  2.50323E+05  8.52312E+04  3.37398E+05 -1.31740E+05  2.50688E+05
 -1.89702E+05  8.41899E+04 -1.10769E+05 -3.31985E+04  1.29848E+03 -5.02694E+04  5.31945E+04 -7.30047E+02
  3.54603E+04  5.26029E+04 -1.69021E+04  7.52868E+04 -5.90772E+04  6.26841E+04 -8.30297E+04  3.20391E+04
 -7.93312E+04 -1.20142E+04 -5.65814E+04 -4.99637E+04 -1.49961E+04 -6.82732E+04  2.71780E+04 -4.43516E+04
  3.93053E+04  4.24588E+03  1.59358E+04  4.74881E+04 -3.44961E+04  4.55871E+04 -6.54005E+04 -2.64493E+02
 -5.28630E+04 -5.57416E+04 -5.58604E+03 -7.49519E+04  3.35191E+04 -5.23467E+04  4.69498E+04 -1.64152E+04
  4.13934E+04  1.17688E+04  3.07688E+04  2.49476E+04  1.59976E+04  2.86762E+04 -4.34495E+03  2.69085E+04
 -2.20993E+04  1.29100E+04 -1.90322E+04 -5.14082E+03  3.13317E+03 -7.82709E+03  2.14182E+04  1.14673E+04
  7.32790E+03  3.31366E+04 -3.14545E+04  3.42809E+04 -6.24885E+04  2.90980E+03 -5.58917E+04 -4.10914E+04
 -1.19788E+04 -6.15786E+04  3.87570E+04 -4.34522E+04  5.56808E+04 -2.09262E+03  3.15327E+04  3.05832E+04
 -7.50012E+03  3.22292E+04 -2.82371E+04  1.39916E+04 -2.81111E+04 -4.92037E+03 -1.38747E+04 -1.09559E+04
 -6.97649E+03 -1.18962E+04 -1.13957E+03 -1.74960E+04  5.99983E+03 -2.24799E+04  1.57239E+04 -1.30785E+04
  1.26158E+04  5.09905E+03 -6.31921E+03  1.33087E+04 -1.93334E+04 -1.95261E+03 -8.28505E+03 -3.12583E+04
  2.13668E+04 -3.96774E+04  4.48045E+04 -1.80331E+04  4.31671E+04  1.87866E+04  1.50364E+04  4.15008E+04
 -1.47962E+04  3.09550E+04 -2.34880E+04  1.71956E+03 -8.02860E+03 -2.63048E+04  2.03317E+04 -3.12490E+04
  3.78956E+04 -7.56635E+03  3.19724E+04  2.23195E+04  1.46141E+04  4.13581E+04 -7.35726E+03  4.58297E+04
 -2.82003E+04  3.07843E+04 -3.77937E+04  8.79876E+03 -3.88543E+04 -1.52022E+04 -2.14188E+04 -3.44875E+04
  6.26733E+03 -3.31154E+04  2.84261E+04 -1.37942E+04  2.69753E+04  1.00523E+04  3.06395E+03  1.67707E+04
 -1.31241E+04  7.07864E+03 -9.31460E+03 -8.02065E+03  7.18473E+03 -1.07394E+04  1.67065E+04  7.11805E+03
  1.23589E+04  2.20383E+04 -6.51469E+03  2.29861E+04 -2.22280E+04  9.65570E+03 -2.44947E+04 -7.73705E+03
 -1.76914E+04 -1.63223E+04 -6.01744E+03 -1.68938E+04  2.91467E+03 -1.42263E+04  1.22307E+04 -1.45571E+04
  2.08524E+04 -1.18518E+04  2.78625E+04  7.92174E+02  2.13269E+04  1.62762E+04  4.61836E+03  3.26330E+04
 -1.55332E+04  2.83083E+04 -2.65276E+04  8.78837E+03 -1.96249E+04 -1.03345E+04 -4.18298E+03 -1.44976E+04
  3.07309E+03 -4.14659E+03 -2.94141E+03  5.16065E+03 -1.35859E+04  4.56198E+03 -1.35760E+04 -4.61888E+03
 -9.45918E+03 -1.53552E+04  3.98945E+03 -1.88735E+04  1.18388E+04 -1.29866E+04  1.54288E+04 -1.75832E+03
  7.83360E+03  1.06770E+04 -1.39023E+03  1.67577E+04 -9.54705E+03  9.12384E+03 -1.53833E+04 -3.77601E+03
 -1.14081E+04 -1.35980E+04 -1.79162E+03 -1.87969E+04  9.26192E+03 -1.48255E+04  1.55019E+04 -6.72528E+03
  1.35649E+04  1.79774E+03  9.84937E+03  3.24874E+03  4.75440E+03 -3.31128E+01  8.05487E+03 -2.38543E+03
  1.32338E+04  3.03743E+03  1.39159E+04  1.30236E+04  9.13093E+03  2.45349E+04 -3.29629E+03  2.71475E+04
 -1.53011E+04  2.05668E+04 -2.37774E+04  9.56690E+03 -2.43670E+04 -2.19365E+03 -2.13543E+04 -1.38532E+04
 -1.06911E+04 -1.95147E+04  7.50230E+03 -1.87029E+04  1.55377E+04 -1.11857E+04  1.49246E+04  4.03111E+03
  6.67383E+03  1.12184E+04 -6.78908E+03  1.11187E+04 -1.21588E+04  3.06404E+03 -1.07792E+04 -7.96942E+03
  8.34239E+01 -1.16843E+04  5.82596E+03 -9.25896E+03  8.29548E+03 -2.21950E+02  2.18825E+03  4.45452E+03
 -4.72071E+03  1.23580E+03 -2.70426E+03 -4.13176E+03  1.47424E+03 -1.01304E+04  7.92898E+03 -9.52942E+03
  1.19686E+04 -4.16883E+03  1.13175E+04  3.46010E+03  9.04122E+03  9.35682E+03  4.74469E+03  1.29729E+04
 -2.24642E+03  1.48210E+04 -8.91701E+03  9.22306E+03 -1.09386E+04  3.07068E+03 -7.93553E+03 -1.87992E+03
 -5.60015E+03 -2.71794E+03 -1.66205E+03  2.29144E+03 -2.12832E+03  2.26150E+03 -4.09210E+03  4.18824E+03
 -6.97788E+03 -1.75999E+03 -8.30832E+03 -7.22768E+03 -4.59221E+03 -1.09064E+04  2.91304E+03 -8.14776E+03
  6.79859E+03 -3.68611E+03  5.33469E+03  2.50203E+03  8.72524E+02  2.88124E+03 -3.19370E+03  4.78775E+02
 -3.24366E+03 -5.56360E+03 -4.94942E+02 -7.30098E+03  3.62498E+03 -7.13014E+03  8.90925E+03 -4.31769E+03
  1.15365E+04  5.06617E+02  9.42713E+03  4.65115E+03  1.66976E+03  7.51420E+03 -5.27274E+03  7.80759E+03
 -7.59629E+03  2.66244E+03 -4.32849E+03  9.32309E+02  1.31001E+03 -1.51571E+03  4.57096E+03 -2.31330E+02
  2.94900E+03  2.72726E+03  7.49271E+02  5.80083E+03 -4.08721E+03  6.10655E+03 -7.74245E+03  9.07979E+02
 -4.68547E+03 -3.02297E+03  1.20100E+02 -6.27116E+03  5.06540E+03 -3.78205E+03  2.96358E+03  1.09012E+03
  2.70316E+02  2.66357E+03 -2.47519E+03  3.92774E+03 -4.96343E+03  2.92454E+03 -4.03854E+03 -8.48400E+02
 -3.71772E+03 -5.65788E+03  8.35203E+02 -6.09013E+03  5.70378E+03 -3.97554E+03  5.48204E+03  7.22910E+02
  5.53808E+03  4.88475E+03  4.48608E+02  6.40468E+03 -4.11415E+03  4.25834E+03 -4.72188E+03  3.39795E+02
 -6.96293E+03 -5.15650E+03 -1.63194E+03 -4.52953E+03  1.12457E+03 -4.95954E+03  2.30355E+03 -2.74965E+03
  1.93759E+03 -9.82014E+00  1.01022E+02  9.66387E+02  1.31915E+02  1.61044E+02  2.19072E+02 -9.28834E+02
  4.19260E+03 -6.93605E+02  4.28972E+03 -8.33177E+02  5.78114E+03  3.62334E+03  4.11236E+03  4.23440E+03
 -1.32062E+03  6.20067E+03 -6.05636E+03  5.29627E+03 -8.13727E+03  1.97413E+03 -7.52192E+03 -1.81510E+03
 -3.94158E+03 -6.26896E+03 -1.73062E+03 -3.99536E+03  1.54587E+03 -1.49031E+03  1.26295E+03 -2.31501E+03
  7.58894E+02 -1.77879E+03  2.07936E+03 -1.67347E+03  2.43048E+03 -9.07915E+02  2.60223E+03 -2.59581E+02
  4.24107E+03  1.70943E+03  5.13263E+02  2.62816E+03 -2.90663E+02  1.98253E+03 -4.37048E+03  1.75423E+03
 -3.34967E+03 -1.57423E+03 -1.25721E+03 -1.97491E+03  2.55897E+02 -5.12394E+03  3.13595E+03 -5.12376E+03
  4.21849E+03 -2.80033E+03  4.39771E+03 -5.18528E+02  5.28814E+03  4.75385E+03  1.16895E+03  4.53089E+03
 -1.20882E+03  5.03501E+03 -2.97634E+03  1.72783E+03 -1.67441E+03 -6.86296E+02 -4.65205E+02 -6.80361E+02
 -7.57845E+02  5.11038E+02 -1.52366E+03  1.30242E+03 -2.40015E+03  1.70941E+03 -4.23063E+03  3.35161E+02
 -1.31430E+03 -2.90620E+03  1.22190E+03 -3.66444E+03  2.77083E+03 -4.88437E+03  1.95433E+03 -1.56915E+03
  3.52369E+03  2.10591E+03  8.03552E+02  2.12444E+03 -7.64195E+02  3.73925E+03 -2.62417E+03  1.41042E+03
 -3.43681E+03  5.37737E+02 -3.16632E+03 -1.67406E+03 -4.77756E+02 -2.93229E+03  1.60599E+03 -2.19521E+03
  2.92304E+03 -5.75999E+02  1.88875E+03  1.66376E+03  2.87307E+02  1.70875E+03  1.44642E+03  5.89532E+01
  9.06636E+02  4.90281E+02  1.28579E+03  1.51511E+03  1.34916E+03  2.39788E+03  1.21755E+03  1.47024E+03
 -1.61640E+02  2.20490E+03 -1.72405E+03  3.38752E+03 -2.18091E+03  2.07019E+03 -3.54936E+03  7.17310E+02
 -2.04157E+03 -1.77151E+03  4.24655E+02 -4.13929E+03  2.07815E+03 -2.47653E+03  2.42308E+03 -4.31024E+02
  1.85889E+03  2.45961E+03  3.21931E+02  1.58562E+03 -1.16742E+03  5.92095E+02 -4.62482E+00 -4.55431E+02
 -1.18835E+03 -6.92768E+02  4.88269E+02 -1.49265E+03  8.24612E+02 -1.08836E+03 -1.28376E+02  1.04559E+03
  3.00984E+02  1.01162E+03  7.47477E+02  4.62893E+02  4.69313E+02  6.02963E+02  1.01047E+03 -2.28319E+02
 -2.85565E+02  5.59927E+02  1.83368E+03 -3.81149E+02 -1.37674E+02  2.92189E+03 -3.81545E+02  2.77151E+03
 -1.27910E+03  3.45118E+02 -1.85124E+03 -2.96980E+02 -1.98790E+03 -7.48759E+02  1.83726E+02 -7.20652E+02
 -4.65808E+01 -6.06258E+02  8.38469E+02 -9.86749E+01  5.21936E+02  1.96994E+03 -2.90714E+02  4.88915E+02
 -1.39991E+03  9.11088E+02 -6.85463E+02 -2.40620E+03 -1.31320E+03 -8.04892E+02 -8.14227E+02 -6.47451E+02
  1.32597E+02  5.50467E+02  4.71462E+02  1.01128E+03  1.69545E+03  1.55052E+02 -2.42561E+02 -1.31609E+03
  2.04943E+02  3.12393E+02 -1.53818E+02  1.49640E+02  5.85992E+02 -8.09024E+02  7.88636E+02  1.94481E+02
 -8.86067E+02  1.54038E+01  1.95069E+03  2.01918E+02  6.75977E+02  1.00180E+03 -8.34776E+02  2.68735E+03
 -1.52898E+03  3.89977E+02 -7.00977E+02 -7.51122E+02 -4.83843E+02 -1.47180E+02  1.96332E+03  3.91002E+01
  5.79603E+01  2.48530E+02 -5.06238E+01 -3.15215E+02 -7.17711E+02 -5.97266E+01 -5.76902E+02  9.43789E+02
 -4.96016E+02  1.99556E+03  7.48142E+02 -3.54624E+02 -4.20208E+02  1.92601E+02 -6.90215E+02  6.69206E+02
 -6.00321E+02  1.44606E+03 -1.49977E+03  2.41960E+02 -1.88048E+03 -9.97364E+02 -2.01704E+03 -7.28743E+02
 -1.84449E+02 -7.52184E+02 -5.93940E+02 -1.39713E+03  2.47153E+02 -1.89490E+03  1.20375E+03 -1.57561E+03
  1.14491E+03 -4.68998E+02 -2.15109E+02  1.28680E+03 -8.83079E+02  1.11496E+03 -2.39555E+02  1.07713E+03
 -6.50651E+02  2.61214E+02  3.06339E+01 -8.83482E+02 -2.21155E+02  5.92921E+02 -6.19169E+02 -5.59561E+02
 -1.15106E+03 -5.89198E+02 -1.01378E+03 -1.97020E+02 -9.04742E+01 -5.61747E+02 -3.03750E+02 -1.35932E+03
  4.08890E+02 -1.66159E+03 -1.44525E+02  4.15280E+01  7.75428E+02  3.28402E+02  6.22369E+02  1.19982E+03
 -2.16140E+03  1.49242E+03 -1.30342E+03  7.85280E+01 -4.44756E+02  1.40973E+02 -1.28750E+03 -1.15977E+03
 -8.59489E+02 -1.00297E+03 -5.75170E+02 -7.65189E+02  5.55523E+02  1.77840E+02  8.76688E+02  1.76135E+02
  1.81268E+02  2.19161E+02  2.13133E+02 -2.47940E+02 -4.64212E+02 -1.83459E+01 -1.03560E+01 -7.71984E+02
  5.45050E+01  1.00830E+03  9.44172E+02 -5.70923E+01 -2.83061E+02  3.16637E+02  2.23160E+02 -1.75765E+02
 -1.81352E+02  1.11779E+03  7.15287E+02 -8.79400E+00 -5.14463E+02 -1.13978E+03 -5.32833E+02 -1.02493E+03
  1.19272E+03 -6.74173E+01  3.19593E+02  9.66585E+02 -3.98393E+01 -1.49037E+03 -5.95261E+02  9.86989E+02
  1.00083E+02  4.85644E+02 -1.16524E+03  3.20161E+02 -8.68628E+02  7.29664E+02 -1.50102E+02  1.81443E+02
 -6.77963E+02  1.43508E+02 -6.34079E+02  6.73825E+02 -4.91379E+02 -3.94137E+01 -8.46090E+02  7.52833E+02
 -1.16690E+03  1.69376E+03  6.34072E+02 -1.07079E+03  6.86527E+02 -9.15594E+02  6.44876E+02  1.37229E+03
  1.01300E+02 -6.08157E+02 -1.28711E+02  5.30146E+02  2.27644E+02  3.77835E+02  7.39874E+02  2.39240E+00
