 $NMID ID='MM_0lb_SNR200_9hz_g45_66.RAW', FMTDAT='(8E13.5)'
 TRAMP=1., VOLUME=1. $END
  3.08510E+05 -3.74496E+02  3.36757E+05  2.51771E+05  8.56404E+04  3.37221E+05 -1.33097E+05  2.52135E+05
 -1.89553E+05  8.30672E+04 -1.13001E+05 -3.32649E+04 -2.18422E+02 -5.15050E+04  5.46317E+04 -9.99008E+02
  3.47845E+04  5.19040E+04 -1.61070E+04  7.59472E+04 -6.07847E+04  6.65803E+04 -8.55558E+04  3.12121E+04
 -8.16107E+04 -1.04397E+04 -5.80451E+04 -5.03316E+04 -1.53041E+04 -7.15522E+04  2.93399E+04 -4.66723E+04
  3.92228E+04  3.86420E+03  1.67029E+04  4.95927E+04 -3.36999E+04  4.82142E+04 -6.79703E+04 -8.98944E+02
 -5.42317E+04 -5.70437E+04 -7.32086E+03 -7.81772E+04  3.38546E+04 -5.75829E+04  4.87196E+04 -1.81678E+04
  4.46155E+04  1.14456E+04  3.37550E+04  2.61840E+04  1.64827E+04  2.98803E+04 -6.79205E+03  2.76564E+04
 -2.27919E+04  1.13637E+04 -1.89292E+04 -6.16097E+03  7.97190E+03 -7.79263E+03  2.39208E+04  1.33112E+04
  8.30397E+03  3.75983E+04 -3.46668E+04  3.78042E+04 -6.72424E+04  2.06155E+03 -5.89466E+04 -4.23859E+04
 -1.17138E+04 -6.58826E+04  3.90318E+04 -4.79844E+04  6.06887E+04 -2.71969E+03  3.72919E+04  3.52878E+04
 -7.06284E+03  3.86577E+04 -3.28757E+04  1.80044E+04 -3.28342E+04 -4.58196E+03 -1.91232E+04 -1.33382E+04
 -9.51394E+03 -1.47482E+04 -1.50694E+02 -1.85623E+04  9.23250E+03 -2.51413E+04  1.67592E+04 -1.23975E+04
  1.25300E+04  6.50654E+03 -1.13187E+04  1.22108E+04 -2.40952E+04 -6.17842E+03 -9.46331E+03 -3.55022E+04
  2.50744E+04 -4.57923E+04  5.22935E+04 -2.21273E+04  5.07376E+04  2.21939E+04  1.72570E+04  4.60792E+04
 -1.75985E+04  3.62092E+04 -2.79828E+04  2.59620E+03 -1.19876E+04 -2.76598E+04  2.18157E+04 -3.60773E+04
  4.33225E+04 -1.26502E+04  3.98798E+04  2.51313E+04  2.10116E+04  5.07022E+04 -8.49613E+03  5.74730E+04
 -3.53777E+04  3.82011E+04 -4.56099E+04  1.10574E+04 -4.86271E+04 -1.91928E+04 -2.58589E+04 -4.10980E+04
  6.68623E+03 -4.18029E+04  3.35197E+04 -1.82598E+04  3.27301E+04  1.03564E+04  5.41691E+03  2.17814E+04
 -1.47982E+04  9.71397E+03 -1.14368E+04 -7.69498E+03  5.17315E+03 -1.22427E+04  1.89362E+04  5.90843E+03
  1.50513E+04  2.35020E+04 -4.48983E+03  2.69642E+04 -2.28579E+04  1.44486E+04 -3.22406E+04 -3.15552E+03
 -2.48221E+04 -1.89599E+04 -1.11783E+04 -2.42025E+04  5.04314E+03 -2.54819E+04  1.91311E+04 -2.27112E+04
  3.16698E+04 -1.37558E+04  3.61624E+04  4.47876E+03  2.85285E+04  2.38004E+04  3.64428E+03  4.05325E+04
 -1.92420E+04  3.26624E+04 -2.88838E+04  1.13364E+04 -2.20847E+04 -9.87152E+03 -3.68763E+03 -1.28546E+04
  7.69761E+02 -3.01612E+03 -5.98306E+03  7.81435E+03 -2.10803E+04  4.47202E+03 -1.88286E+04 -8.89943E+03
 -1.19925E+04 -2.23376E+04  6.13202E+03 -2.65859E+04  1.76230E+04 -1.82340E+04  2.20970E+04 -3.55274E+03
  1.53158E+04  1.50177E+04 -8.78736E+02  2.36397E+04 -1.50337E+04  1.39252E+04 -2.33031E+04 -3.98339E+03
 -1.64420E+04 -2.06724E+04 -2.30980E+03 -2.79777E+04  1.07508E+04 -2.30962E+04  2.28411E+04 -1.16159E+04
  2.00359E+04  2.39270E+02  1.59349E+04  6.33040E+03  7.85864E+03  1.58869E+03  1.37534E+04 -2.92281E+03
  2.19607E+04  3.24576E+03  2.44567E+04  1.86210E+04  1.65815E+04  3.78670E+04 -1.38851E+03  4.30559E+04
 -2.43871E+04  3.60195E+04 -3.99781E+04  1.74264E+04 -4.46998E+04 -4.02572E+03 -3.57653E+04 -2.63134E+04
 -1.38611E+04 -3.60035E+04  1.24106E+04 -3.00427E+04  2.78648E+04 -1.63427E+04  2.26867E+04  8.08664E+03
  8.26524E+03  1.83195E+04 -1.05027E+04  1.60807E+04 -1.88353E+04  3.60308E+03 -1.49167E+04 -1.21192E+04
 -1.43010E+03 -1.83614E+04  1.06317E+04 -1.34453E+04  1.32188E+04 -1.78217E+03  3.71998E+03  8.25560E+03
 -9.85491E+03  3.96998E+03 -1.05621E+04 -5.54180E+03 -2.78230E+03 -1.75892E+04  1.26856E+04 -1.80207E+04
  2.22250E+04 -1.13501E+04  2.55265E+04  4.00611E+03  2.14511E+04  1.72300E+04  8.98098E+03  2.90192E+04
 -5.77420E+03  2.96207E+04 -2.17582E+04  2.13556E+04 -2.20048E+04  4.62010E+03 -1.54856E+04 -6.01518E+03
 -7.86019E+03 -6.27979E+03 -1.48070E+03  1.89619E+03 -2.15182E+03  3.20440E+03 -6.74545E+03  4.82577E+03
 -1.43900E+04 -9.82688E+02 -1.43715E+04 -1.18650E+04 -6.09965E+03 -1.81876E+04  6.18639E+03 -1.63910E+04
  1.24418E+04 -5.60832E+03  9.50887E+03  4.77319E+03 -1.97647E+02  6.11489E+03 -8.00583E+03  7.78295E+02
 -7.93658E+03 -8.34216E+03  5.78523E+02 -1.43455E+04  8.15085E+03 -1.36371E+04  1.85478E+04 -8.86317E+03
  2.42128E+04  1.98084E+03  1.80724E+04  1.38016E+04  3.40986E+03  1.70213E+04 -1.00059E+04  1.53454E+04
 -1.15923E+04  3.56139E+03 -8.31775E+03 -3.83782E+03  1.42707E+03 -3.79435E+03  8.33341E+03 -7.51661E+02
  8.07811E+03  6.40280E+03  1.69659E+03  1.20360E+04 -9.21242E+03  1.13153E+04 -1.53703E+04  1.78401E+03
 -1.07868E+04 -8.56154E+03  4.64994E+02 -1.36463E+04  1.01657E+04 -7.99783E+03  9.90841E+03  2.04416E+03
  1.86281E+03  8.76363E+03 -7.65619E+03  1.17380E+04 -1.38098E+04  4.64532E+03 -1.42981E+04 -5.47570E+03
 -6.90388E+03 -1.58416E+04  3.50909E+03 -1.82895E+04  1.54277E+04 -1.03169E+04  1.72115E+04  2.73348E+03
  9.85718E+03  1.14471E+04 -1.33416E+03  1.37870E+04 -1.25743E+04  9.81251E+03 -1.19765E+04 -4.83466E+02
 -1.07116E+04 -1.10083E+04 -2.62152E+03 -1.31355E+04  6.85942E+03 -9.73472E+03  7.06697E+03 -4.70442E+03
  5.92010E+03  1.63718E+03  4.72497E+02  1.12518E+03 -6.68913E+02 -2.71165E+03  2.49759E+03 -6.20357E+03
  1.12538E+04 -5.02724E+03  1.56777E+04  2.77566E+03  1.55370E+04  1.22504E+04  1.02284E+04  2.02176E+04
 -4.91549E+03  2.27977E+04 -1.91719E+04  1.83956E+04 -2.52683E+04  3.59098E+03 -2.03689E+04 -1.09532E+04
 -9.97671E+03 -1.66329E+04 -4.37527E+02 -1.54916E+04  5.36910E+03 -9.16408E+03  4.34369E+03 -5.03659E+03
  3.42914E+03 -2.92402E+03  3.65689E+03 -5.03485E+03  6.73025E+03 -4.14896E+03  8.47833E+03 -1.05704E+03
  9.85318E+03  1.56182E+03  5.21632E+03  8.99898E+03 -4.58816E+03  1.09726E+04 -1.05304E+04  9.20564E+03
 -1.28647E+04 -1.34144E+03 -8.53042E+03 -9.74958E+03 -1.72210E+03 -1.42456E+04  8.18005E+03 -1.57460E+04
  1.66331E+04 -8.82462E+03  2.01735E+04  3.79113E+03  1.19097E+04  1.24609E+04  2.65745E+03  1.73739E+04
 -7.16202E+03  1.47477E+04 -9.25018E+03  5.00602E+03 -5.73966E+03 -1.67074E+03 -3.24144E+03 -2.48190E+03
 -1.64018E+02 -8.52659E+02 -3.31132E+03  2.64789E+03 -8.12402E+03  1.62438E+03 -1.13486E+04 -6.31099E+02
 -7.02001E+03 -1.01371E+04 -3.20817E+02 -1.43742E+04  8.52584E+03 -1.44366E+04  1.38814E+04 -5.57979E+03
  1.44360E+04  8.00940E+03  6.99199E+03  1.37597E+04 -4.54241E+03  1.51999E+04 -1.02182E+04  9.72676E+03
 -1.40218E+04 -1.00184E+03 -9.63522E+03 -9.31004E+03 -2.16562E+03 -1.28378E+04  6.49734E+03 -8.55793E+03
  8.02104E+03 -2.82491E+03  5.55022E+03  2.25329E+03  3.69249E+03  3.20654E+03  2.58940E+02  9.88463E+02
  1.43160E+03 -2.24541E+02  3.38390E+03  3.33907E+03  2.86759E+03  6.41218E+03  4.36291E+03  7.71686E+03
 -2.21417E+03  1.12255E+04 -9.60871E+03  1.15636E+04 -1.36113E+04  3.21688E+03 -1.58568E+04 -6.87805E+03
 -7.03499E+03 -1.46324E+04  2.31650E+03 -1.36411E+04  7.87275E+03 -1.11263E+04  1.28593E+04 -3.17844E+03
  1.04805E+04  5.11347E+03  3.00717E+03  8.41630E+03 -3.67711E+03  5.21295E+03 -5.76296E+03 -7.75523E+02
 -3.03834E+03 -5.16855E+03  3.74826E+03 -7.41836E+03  7.37935E+03 -3.69100E+03  5.44670E+03  7.70624E+02
  3.18433E+03  3.62313E+03 -6.64417E+01  2.95978E+03 -1.56369E+02  8.41322E+02  1.24840E+03  3.40230E+02
  2.77678E+03  1.36856E+03  6.62184E+03  2.55517E+03  2.93569E+03  7.96363E+03 -8.90156E+02  1.03273E+04
 -6.44786E+03  6.87246E+03 -8.99432E+03  2.01356E+03 -9.45366E+03 -2.56181E+03 -4.00096E+03 -6.90148E+03
  4.59306E+02 -5.51521E+03  4.29857E+03 -2.01597E+03  4.01028E+03  1.22124E+03  6.98241E+02  4.76020E+03
 -7.64870E+03  4.27075E+03 -6.69535E+03 -3.75186E+03 -4.80070E+03 -8.08543E+03 -1.72855E+02 -9.23649E+03
  3.75395E+03 -6.35529E+03  6.45938E+03 -4.43916E+02  6.24588E+03  2.03953E+03  2.37010E+02  5.07729E+03
 -3.11922E+03  2.90966E+01 -3.85206E+03 -3.09148E+03  2.17731E+03 -5.90123E+03  6.65857E+03 -3.96033E+03
  1.07594E+04  8.81293E+02  8.74318E+03  5.23909E+03  4.14442E+03  9.92820E+03 -3.66961E+03  9.54162E+03
 -5.22624E+03  3.82609E+03 -9.30095E+03 -3.06281E+03 -4.97921E+03 -6.69757E+03  7.74674E+02 -3.96319E+03
  6.02455E+03 -3.84657E+03  5.12834E+03  2.46989E+03  2.31677E+03  4.99529E+03 -1.67654E+03  5.21616E+03
 -2.67508E+03  3.81874E+03 -3.63680E+03 -1.59866E+02 -2.15458E+03 -3.77786E+02 -1.64941E+03  2.00512E+03
 -2.36816E+03  3.01136E+03 -6.65463E+03  4.49927E+03 -9.77807E+03  2.10619E+02 -1.20852E+04 -5.54893E+03
 -5.17361E+03 -1.19709E+04  1.62718E+03 -1.49358E+04  9.76100E+03 -1.31049E+04  1.39199E+04 -4.64824E+03
  1.24671E+04  1.87193E+03  8.86340E+03  9.65791E+03  2.09960E+03  9.84146E+03 -4.15312E+03  7.38919E+03
 -5.40202E+03  4.13436E+03 -2.62990E+03 -1.28507E+03 -1.09533E+03 -1.49983E+03 -1.25457E+03 -1.20269E+02
 -3.14101E+03  5.55163E+02 -1.97352E+03  1.21078E+03 -8.42527E+02 -2.77994E+03  3.07920E+02 -2.16200E+03
  4.94347E+03 -3.61907E+03  4.97180E+03  5.42081E+02  8.20907E+03  4.85160E+03  2.63780E+03  1.04483E+04
 -5.66102E+03  1.05917E+04 -1.17533E+04  6.54792E+03 -1.27643E+04  9.31536E+02 -9.64840E+03 -8.36723E+03
 -4.58270E+03 -1.21326E+04  3.13344E+03 -9.38252E+03  6.37493E+03 -4.33685E+03  7.70696E+03 -9.69014E+02
  3.58574E+03  2.61371E+03 -1.58511E+03  1.59990E+03 -8.05393E+02  5.38502E+02 -9.38785E+02 -1.55149E+03
  2.45008E+03 -1.36903E+03  3.76404E+03  1.81438E+03  3.54769E+03  4.99468E+03 -1.15718E+03  5.48398E+03
 -3.64335E+03  3.51884E+03 -6.23624E+03  8.21925E+02 -6.48985E+03 -3.79680E+03 -2.14529E+03 -7.87136E+03
  6.21788E+03 -5.38335E+03  6.06594E+03 -1.59006E+03  8.38423E+03  2.41330E+03  4.73534E+03  5.72742E+03
  1.87344E+03  6.01938E+03 -1.53888E+03  5.89577E+03 -3.90094E+03  3.79469E+03 -2.48899E+03  8.23176E+02
 -2.38027E+03  3.68465E+02 -8.16025E+02  2.92535E+03 -3.56807E+03  1.09795E+03 -5.08221E+03 -3.76604E+02
 -5.26401E+03 -3.97602E+03 -1.94585E+03 -5.93971E+03  2.47683E+03 -8.02249E+03  5.84188E+03 -3.27946E+03
  7.06308E+03 -4.66882E+02  4.38204E+03  6.28108E+03 -2.94254E+02  5.27352E+03 -5.54645E+03  4.76284E+03
