 $NMID ID='MM_0lb_SNR200_16hz_g60_86.RAW', FMTDAT='(8E13.5)'
 TRAMP=1., VOLUME=1. $END
  3.10211E+05  9.54386E+02  3.38064E+05  2.50810E+05  8.58102E+04  3.36467E+05 -1.32414E+05  2.51607E+05
 -1.91141E+05  8.39922E+04 -1.11414E+05 -3.22567E+04  7.98963E+02 -5.16014E+04  5.29581E+04  9.28685E+00
  3.56763E+04  5.32070E+04 -1.76936E+04  7.61436E+04 -5.99112E+04  6.42939E+04 -8.44599E+04  3.05749E+04
 -8.05685E+04 -1.22260E+04 -5.69698E+04 -5.07678E+04 -1.53529E+04 -6.90722E+04  2.77950E+04 -4.57735E+04
  4.05259E+04  3.19957E+03  1.66724E+04  4.82350E+04 -3.37574E+04  4.68578E+04 -6.57439E+04  7.90797E+02
 -5.40028E+04 -5.70138E+04 -6.38914E+03 -7.80953E+04  3.36727E+04 -5.50214E+04  4.70866E+04 -1.79577E+04
  4.33983E+04  1.09361E+04  3.24097E+04  2.45697E+04  1.60044E+04  2.96387E+04 -5.62707E+03  2.73822E+04
 -2.16882E+04  1.19937E+04 -1.83677E+04 -4.21619E+03  6.32006E+03 -7.94779E+03  2.16760E+04  1.19499E+04
  7.34111E+03  3.53924E+04 -3.22382E+04  3.52461E+04 -6.38175E+04  1.87901E+03 -5.75468E+04 -4.34970E+04
 -1.35796E+04 -6.22628E+04  4.08519E+04 -4.59340E+04  5.74031E+04 -2.21868E+03  3.40718E+04  3.16375E+04
 -5.19716E+03  3.55664E+04 -3.03934E+04  1.63887E+04 -2.97329E+04 -5.01056E+03 -1.67477E+04 -1.14456E+04
 -7.74289E+03 -1.22249E+04 -1.40461E+03 -1.88138E+04  6.70772E+03 -2.29072E+04  1.50433E+04 -1.31489E+04
  1.09965E+04  4.68676E+03 -7.52254E+03  1.33955E+04 -2.11686E+04 -3.82451E+03 -7.22348E+03 -3.49364E+04
  2.34104E+04 -4.42344E+04  4.85060E+04 -2.10351E+04  4.57039E+04  1.95932E+04  1.55636E+04  4.37803E+04
 -1.56449E+04  3.32782E+04 -2.49175E+04  1.31899E+03 -1.04946E+04 -2.86264E+04  2.11986E+04 -3.30974E+04
  4.09437E+04 -9.26608E+03  3.44464E+04  2.38635E+04  1.75349E+04  4.67950E+04 -7.83606E+03  5.07048E+04
 -3.21389E+04  3.35902E+04 -4.10980E+04  9.42527E+03 -4.25174E+04 -1.69748E+04 -2.31520E+04 -3.85435E+04
  6.04424E+03 -3.71646E+04  3.08981E+04 -1.45577E+04  2.72462E+04  1.13326E+04  3.38721E+03  1.89175E+04
 -1.35127E+04  8.69173E+03 -1.06873E+04 -8.61569E+03  5.53821E+03 -1.17419E+04  1.82660E+04  5.33097E+03
  1.28612E+04  2.22188E+04 -6.06414E+03  2.48621E+04 -2.15152E+04  1.14579E+04 -2.79485E+04 -5.38728E+03
 -2.12457E+04 -1.80877E+04 -8.08024E+03 -2.12293E+04  4.62994E+03 -1.84382E+04  1.54437E+04 -1.78572E+04
  2.50723E+04 -1.14832E+04  3.23046E+04  2.80742E+03  2.22842E+04  2.00650E+04  4.75703E+03  3.66151E+04
 -1.79505E+04  3.06251E+04 -2.90609E+04  1.05746E+04 -1.96756E+04 -1.02536E+04 -4.56231E+03 -1.42035E+04
  2.20369E+03 -4.67035E+03 -4.46643E+03  7.23318E+03 -1.64417E+04  5.65704E+03 -1.51509E+04 -7.67104E+03
 -9.42479E+03 -1.83396E+04  5.35975E+03 -2.32180E+04  1.43306E+04 -1.47059E+04  1.82416E+04 -2.93783E+03
  1.02182E+04  1.34018E+04 -1.18130E+03  1.81921E+04 -1.31595E+04  1.03318E+04 -1.87456E+04 -3.59999E+03
 -1.47431E+04 -1.66520E+04 -9.08311E+02 -2.35227E+04  1.08221E+04 -1.91684E+04  1.89195E+04 -9.07523E+03
  1.77048E+04  2.44858E+01  1.35259E+04  3.86175E+03  7.59934E+03  1.31842E+03  9.60896E+03 -1.03605E+03
  1.77295E+04  3.03588E+03  1.91826E+04  1.34802E+04  1.19926E+04  2.93978E+04 -3.33950E+03  3.29494E+04
 -2.00663E+04  2.62004E+04 -3.02099E+04  1.46744E+04 -3.19136E+04 -2.08143E+03 -2.71060E+04 -1.86559E+04
 -1.19263E+04 -2.74968E+04  1.00587E+04 -2.35547E+04  1.97458E+04 -1.21572E+04  1.85966E+04  6.40697E+03
  7.70745E+03  1.41691E+04 -9.77121E+03  1.25731E+04 -1.55435E+04  2.48520E+03 -1.02560E+04 -8.97778E+03
 -6.14539E+02 -1.37563E+04  8.18575E+03 -1.11651E+04  1.04882E+04 -1.98554E+03  1.60053E+03  7.83814E+03
 -6.60061E+03  3.14813E+03 -6.74340E+03 -5.20372E+03 -3.63590E+02 -1.24419E+04  8.97897E+03 -1.42818E+04
  1.64284E+04 -7.76782E+03  1.69798E+04  3.22484E+03  1.49259E+04  1.22796E+04  6.15873E+03  1.82233E+04
 -2.07207E+03  2.08730E+04 -1.33154E+04  1.31070E+04 -1.40931E+04  3.73363E+03 -1.13667E+04 -3.87297E+03
 -5.90036E+03 -5.15159E+03 -8.65892E+02  1.67284E+03 -2.22215E+03  2.07187E+03 -5.25199E+03  4.36495E+03
 -1.00850E+04 -6.32733E+02 -1.13033E+04 -9.18659E+03 -4.06009E+03 -1.38766E+04  4.99735E+03 -9.73319E+03
  9.54646E+03 -4.08301E+03  5.86965E+03  2.64845E+03 -8.64893E+02  5.45762E+03 -5.68959E+03  5.15806E+02
 -5.40962E+03 -6.02561E+03 -4.28142E+02 -9.65794E+03  5.82688E+03 -1.04810E+04  1.22166E+04 -6.23506E+03
  1.56044E+04  1.52784E+03  1.17773E+04  9.43292E+03  9.76179E+02  1.22087E+04 -7.26301E+03  1.01145E+04
 -8.93513E+03  2.85091E+03 -4.85156E+03 -2.48632E+03  1.07819E+03 -3.24511E+03  5.49635E+03 -1.03777E+03
  6.64421E+03  4.88405E+03  6.45153E+02  8.82508E+03 -5.93202E+03  7.24872E+03 -9.93022E+03  1.70042E+03
 -6.70405E+03 -4.29001E+03  4.19064E+02 -8.80493E+03  4.77472E+03 -4.72603E+03  5.85574E+03  1.96634E+03
  1.11210E+03  5.71817E+03 -5.49239E+03  7.40431E+03 -6.82368E+03  3.58787E+03 -6.85337E+03 -1.99982E+03
 -4.49636E+03 -8.77285E+03  1.49571E+03 -1.22298E+04  1.07977E+04 -6.31108E+03  9.86865E+03  1.34753E+03
  5.00155E+03  6.73653E+03  2.61260E+02  9.56830E+03 -6.84472E+03  5.24838E+03 -7.08608E+03 -8.46627E+02
 -6.97963E+03 -6.14154E+03 -5.85518E+02 -7.79063E+03  2.55453E+03 -6.51940E+03  4.11606E+03 -4.02462E+03
  3.32493E+03  8.21939E+02 -1.21887E+03  2.32852E+03  9.07952E+02 -1.61995E+03  4.11950E+02 -2.74347E+03
  5.69408E+03 -8.17838E+02  8.15252E+03  1.37976E+03  8.78321E+03  4.53454E+03  5.48523E+03  1.07311E+04
 -1.54461E+03  1.22377E+04 -1.10048E+04  8.24194E+03 -1.42786E+04  2.14634E+03 -1.06123E+04 -4.12447E+03
 -5.29651E+03 -8.15913E+03  8.61637E+01 -6.08804E+03  3.60167E+03 -3.29608E+03  3.70853E+03 -3.53165E+03
  2.75542E+03 -1.19619E+03  1.93280E+03 -2.61381E+03  4.21875E+03 -1.60557E+03  5.34001E+03 -1.06763E+03
  6.02529E+03  1.71251E+03  1.61399E+03  3.91212E+03 -1.41703E+03  4.47895E+03 -6.89395E+03  4.63337E+03
 -7.17533E+03  3.86740E+02 -3.46331E+03 -5.60482E+03 -4.87340E+02 -7.78683E+03  3.46877E+03 -6.71705E+03
  8.34237E+03 -3.92288E+03  9.08191E+03  1.86431E+03  6.43877E+03  5.70210E+03  1.76690E+03  8.67592E+03
 -2.41640E+03  7.64568E+03 -4.27777E+03  2.18380E+03 -3.44504E+03 -1.26121E+03 -1.17437E+03 -1.79606E+03
 -3.29546E+01 -4.71425E+02  4.69596E+02  1.79721E+03 -3.79909E+03  2.02545E+02 -5.09726E+03 -2.11404E+02
 -2.60677E+03 -5.34765E+03  2.07881E+03 -6.84962E+03  3.79917E+03 -6.01571E+03  5.25793E+03 -1.39381E+03
  6.71034E+03  3.28801E+03  3.00650E+03  5.17219E+03 -9.53325E+02  5.67030E+03 -4.90731E+03  4.09026E+03
 -5.64595E+03  3.70766E+02 -4.97111E+03 -3.96472E+03  9.88493E+01 -5.29332E+03  2.29780E+03 -3.78692E+03
  3.70756E+03 -1.43998E+03  2.64842E+03  1.35911E+03  5.58331E+02  2.48372E+03  5.81563E+02  2.10036E+02
  2.18376E+03  1.14227E+03  2.45922E+03 -9.80129E+01  2.06189E+03  3.13830E+03  1.64589E+03  2.90372E+03
 -2.11489E+03  4.12834E+03 -4.52565E+03  6.40744E+03 -4.71327E+03  1.92173E+03 -6.07218E+03 -1.64804E+03
 -3.42155E+03 -4.99566E+03 -5.60088E+01 -6.45572E+03  1.97800E+03 -3.39946E+03  4.96942E+03 -1.27788E+03
  4.27072E+03  2.35508E+03  1.86078E+03  3.25738E+03 -1.31954E+03  1.36838E+03 -2.39656E+03 -1.09939E+03
 -3.56945E+02 -1.14225E+03  2.07829E+03 -1.01671E+03  3.26215E+03 -1.42925E+03  1.47035E+03  7.68686E+02
  8.00787E+02  9.94602E+02 -1.68199E+02 -1.41670E+03 -1.92549E+02  1.46802E+02  1.13024E+03 -7.77093E+02
  2.83078E+02  6.35843E+02  2.15373E+03  1.37745E+03  1.91951E+03  4.02071E+03 -4.77399E+02  3.48709E+03
 -3.48976E+03  2.24966E+03 -1.79129E+03  2.32255E+02 -3.42799E+03 -6.92168E+02 -1.89641E+03 -2.78662E+03
  8.53519E+02 -2.41431E+03 -1.62418E+02 -4.45616E+01  1.72713E+03  9.79290E+02 -1.50763E+02  9.56288E+02
 -2.97079E+03  9.69182E+02 -1.97177E+03 -1.07001E+03 -8.98617E+02 -2.71969E+03 -1.49930E+02 -2.51314E+03
  1.43065E+03 -1.74802E+03  1.74006E+03 -2.04113E+02  1.78159E+03  7.22595E+02 -7.31428E+02  1.53239E+03
  3.37829E+02  7.22923E+02 -1.24898E+03 -7.00338E+02  9.85608E+02 -1.53656E+03  2.56467E+03 -2.02068E+03
  3.66123E+03  7.00304E+02  3.53583E+03  1.57025E+03  1.44269E+03  4.56298E+03  2.29491E+02  1.43218E+03
 -2.94706E+03  1.89757E+03 -1.74477E+03 -1.92994E+02 -2.10523E+03 -1.94225E+03  4.19898E+02 -1.77319E+03
  1.30258E+03 -1.93395E+03  6.71335E+02  8.97041E+02  5.34540E+02  1.69112E+03 -7.61289E+02  1.60553E+03
 -4.77543E+00  1.54074E+03 -4.76686E+02  3.16904E+02 -1.98751E+02  7.65633E+02 -1.82802E+03  5.82312E+02
 -1.30860E+03  1.57862E+03 -2.38512E+03  1.73646E+03 -1.95519E+03  6.83737E+02 -3.10314E+03 -1.52731E+03
 -1.31760E+03 -3.97045E+03  1.43582E+03 -5.16482E+03  1.80480E+03 -1.91660E+03  4.01769E+03 -3.02883E+03
  4.23077E+03  1.54275E+02  2.24462E+03  2.45211E+03 -1.21858E+03  3.18964E+03 -2.18981E+03  2.04696E+03
 -1.10576E+03  4.08110E+02 -1.47058E+03 -7.67692E+01  1.12186E+01  1.76986E+02 -2.03475E+02  1.08477E+03
 -1.00350E+03  3.35477E+02 -1.16331E+03  2.38355E+02 -7.48301E+02 -2.06276E+02 -5.62865E+02 -8.52064E+02
  1.53278E+03 -9.45625E+02  1.27286E+03  2.66974E+02  3.13459E+03  2.03986E+03 -4.49394E+02  1.85739E+03
 -1.60897E+03  4.28908E+03 -2.52950E+03  2.94808E+03 -4.35408E+03 -7.43123E+02 -3.04414E+03  7.32935E+01
 -9.31429E+02 -2.03691E+03  3.18257E+02 -2.43829E+03  9.37721E+02 -5.93339E+02  7.45796E+02 -3.24795E+02
  6.29525E+02 -6.03213E+02 -4.45611E+02 -5.09312E+01 -5.17686E+01  7.97985E+02 -1.45649E+02 -6.50207E+02
  7.40127E+02 -1.26286E+03  2.77906E+02  7.51320E+02  5.79005E+02 -1.20357E+03  7.63058E+02  2.22460E+02
 -9.06717E+02  8.48257E+02 -1.98944E+03  3.22019E+02 -2.06764E+03 -2.48432E+02 -9.18763E+01 -2.26772E+03
  3.01387E+02 -1.40485E+03  2.19581E+03 -9.16942E+02  1.20742E+03 -1.04545E+03  4.10331E+02  1.72177E+03
 -6.65098E+02  1.53881E+03 -5.07740E+02  1.61299E+03  1.14020E+02  1.50877E+03 -1.68867E+02 -4.94907E+02
 -1.29980E+03 -2.28076E+02 -5.15633E+02 -2.41150E+02  4.59046E+02 -2.98950E+02 -1.76981E+03 -5.14682E+02
 -1.51206E+03 -2.84891E+02 -7.09629E+02 -2.01385E+03  1.12487E+03 -2.67433E+03  2.60759E+02 -1.98946E+01
 -1.48905E+02  1.07399E+03  4.60895E+02  8.24769E+02  3.45264E+02  2.22030E+03 -9.56137E+02 -8.61025E+01
