 $NMID ID='MM_0lb_SNR200_20hz_g60_78.RAW', FMTDAT='(8E13.5)'
 TRAMP=1., VOLUME=1. $END
  3.10571E+05  1.17383E+03  3.37959E+05  2.51008E+05  8.44849E+04  3.38843E+05 -1.31919E+05  2.50067E+05
 -1.88884E+05  8.20204E+04 -1.11223E+05 -3.24071E+04  7.24909E+02 -4.98150E+04  5.43274E+04 -2.66091E+02
  3.56991E+04  5.26345E+04 -1.71834E+04  7.61134E+04 -6.07554E+04  6.30311E+04 -8.33939E+04  3.23001E+04
 -8.11734E+04 -1.10353E+04 -5.70717E+04 -5.07776E+04 -1.45864E+04 -6.93149E+04  2.76291E+04 -4.49215E+04
  4.01811E+04  3.85678E+03  1.57885E+04  4.73756E+04 -3.41378E+04  4.68604E+04 -6.56669E+04 -1.84323E+02
 -5.21527E+04 -5.68815E+04 -6.71833E+03 -7.60974E+04  3.34090E+04 -5.35553E+04  4.75663E+04 -1.56972E+04
  4.21342E+04  1.17685E+04  3.17459E+04  2.43391E+04  1.62673E+04  2.87585E+04 -4.87043E+03  2.66111E+04
 -2.13388E+04  1.27113E+04 -2.00374E+04 -5.47388E+03  5.07406E+03 -7.28985E+03  2.21846E+04  1.11833E+04
  7.28968E+03  3.32916E+04 -2.98991E+04  3.45743E+04 -6.19035E+04  2.23263E+03 -5.52097E+04 -4.18347E+04
 -1.17838E+04 -6.18781E+04  3.90071E+04 -4.32752E+04  5.62103E+04 -1.63005E+03  3.19687E+04  3.17131E+04
 -6.08713E+03  3.34879E+04 -2.80525E+04  1.51604E+04 -2.94038E+04 -4.74375E+03 -1.29510E+04 -1.04676E+04
 -8.03818E+03 -1.15312E+04 -3.18020E+02 -1.87484E+04  6.37051E+03 -2.33746E+04  1.36722E+04 -1.41536E+04
  1.25123E+04  5.26649E+03 -6.69731E+03  1.28945E+04 -1.98650E+04 -2.94364E+03 -7.75380E+03 -3.18638E+04
  2.17180E+04 -4.12791E+04  4.41661E+04 -1.93551E+04  4.24455E+04  2.01250E+04  1.49901E+04  4.30992E+04
 -1.55579E+04  3.09431E+04 -2.35922E+04  6.70803E+02 -9.21566E+03 -2.73562E+04  2.12567E+04 -3.10783E+04
  3.94340E+04 -8.21933E+03  3.28714E+04  2.24750E+04  1.63085E+04  4.27598E+04 -7.93663E+03  4.57290E+04
 -2.95088E+04  2.94213E+04 -3.77410E+04  9.26683E+03 -3.90461E+04 -1.54416E+04 -2.15006E+04 -3.56189E+04
  7.42907E+03 -3.49510E+04  2.91669E+04 -1.40841E+04  2.82334E+04  1.16070E+04  2.61264E+03  1.78600E+04
 -1.35476E+04  8.51982E+03 -7.82056E+03 -6.79249E+03  6.28251E+03 -1.08801E+04  1.67301E+04  5.75175E+03
  1.25446E+04  2.14315E+04 -5.95157E+03  2.25978E+04 -2.13577E+04  1.09243E+04 -2.59950E+04 -5.50134E+03
 -1.75131E+04 -1.60304E+04 -5.58279E+03 -1.66633E+04  4.66653E+03 -1.61780E+04  1.35971E+04 -1.53074E+04
  2.25206E+04 -1.19818E+04  2.81003E+04  8.05152E+02  2.23432E+04  1.73490E+04  4.19289E+03  3.28578E+04
 -1.62152E+04  2.78783E+04 -2.61768E+04  9.07245E+03 -1.93396E+04 -9.90464E+03 -4.08827E+03 -1.46748E+04
  1.68189E+03 -2.35217E+03 -2.52164E+03  6.00802E+03 -1.34093E+04  4.77100E+03 -1.32737E+04 -4.52700E+03
 -9.03749E+03 -1.59968E+04  3.74430E+03 -1.97981E+04  1.31159E+04 -1.46270E+04  1.50322E+04 -2.85761E+03
  8.41454E+03  1.10203E+04 -2.93424E+01  1.54408E+04 -1.07674E+04  9.25470E+03 -1.50601E+04 -3.72544E+03
 -1.19296E+04 -1.51290E+04 -1.00976E+03 -1.90727E+04  9.32369E+03 -1.63447E+04  1.58076E+04 -7.68293E+03
  1.52346E+04  7.28309E+02  1.04757E+04  3.32190E+03  4.59464E+03  4.18363E+02  7.84850E+03 -9.33714E+02
  1.38410E+04  2.97269E+03  1.51962E+04  1.22568E+04  9.65701E+03  2.45141E+04 -3.19247E+03  2.68576E+04
 -1.60172E+04  1.97942E+04 -2.56375E+04  1.02613E+04 -2.61513E+04 -1.78067E+03 -2.22546E+04 -1.38016E+04
 -9.85680E+03 -2.07451E+04  6.89896E+03 -1.92724E+04  1.63917E+04 -1.05880E+04  1.48063E+04  3.82798E+03
  6.45120E+03  1.20617E+04 -6.63904E+03  9.43255E+03 -1.35239E+04  2.04359E+03 -1.02484E+04 -7.90302E+03
  6.45404E+02 -1.21541E+04  6.60245E+03 -1.01472E+04  7.61049E+03 -1.61830E+03  1.09463E+03  4.25990E+03
 -5.89011E+03  1.88095E+03 -3.60411E+03 -4.69638E+03 -6.22389E+02 -1.01524E+04  7.77084E+03 -1.00461E+04
  1.11315E+04 -4.94842E+03  1.12731E+04  2.36408E+03  1.08766E+04  9.66148E+03  4.27933E+03  1.49492E+04
 -1.85512E+03  1.56443E+04 -9.00610E+03  1.00852E+04 -1.00953E+04  3.00717E+03 -8.70794E+03 -9.38054E+02
 -4.13695E+03 -3.38963E+03 -6.59701E+02  1.35219E+03 -8.85190E+02  1.98158E+03 -1.98517E+03  2.89647E+03
 -8.55473E+03  6.05836E+02 -8.63381E+03 -7.73665E+03 -3.29396E+03 -1.17562E+04  3.77432E+03 -8.66337E+03
  9.03229E+03 -3.85505E+03  5.40131E+03  2.22495E+03  8.67004E+00  3.32066E+03 -3.19662E+03  8.76948E+02
 -3.20859E+03 -4.87500E+03 -1.15204E+02 -8.36799E+03  4.71511E+03 -8.69102E+03  9.21662E+03 -4.13724E+03
  1.13221E+04  5.28204E+02  8.60769E+03  5.72761E+03  1.63117E+03  8.92153E+03 -4.13971E+03  8.63974E+03
 -6.07253E+03  2.48213E+03 -3.69935E+03 -1.64687E+03  2.00475E+03 -1.52162E+03  4.27638E+03 -1.71438E+02
  3.81868E+03  4.12289E+03  2.48317E+03  6.40104E+03 -4.60457E+03  7.30194E+03 -6.75907E+03  1.66964E+03
 -5.86387E+03 -2.63720E+03  7.08533E+00 -6.89246E+03  3.82873E+03 -2.83693E+03  3.63150E+03  1.69376E+03
  5.68030E+02  3.15529E+03 -4.75006E+03  4.54961E+03 -4.91466E+03  2.02397E+03 -3.67444E+03 -1.37645E+03
 -2.15767E+03 -5.45330E+03  3.62595E+02 -7.42272E+03  5.38861E+03 -3.40546E+03  5.32003E+03  9.65931E+02
  4.20844E+03  4.99762E+03 -3.57757E+02  6.28253E+03 -4.90893E+03  4.48786E+03 -4.79855E+03 -4.14053E+02
 -5.04269E+03 -4.94262E+03 -1.68433E+03 -5.52166E+03  2.35897E+03 -5.26652E+03  1.35021E+03 -2.74102E+03
  2.69629E+03  7.23488E+02 -3.66976E+02  1.55423E+03  5.58315E+02  3.06106E+01 -3.22006E+02 -1.05385E+03
  2.86300E+03  7.87420E+01  4.19138E+03  3.07957E+02  5.13168E+03  3.56359E+03  3.96742E+03  7.19249E+03
 -1.28918E+03  7.77377E+03 -7.57982E+03  5.36301E+03 -9.00663E+03  9.43132E+02 -7.56901E+03 -1.91674E+03
 -4.09208E+03 -5.98593E+03 -3.44496E+02 -4.28807E+03  1.87268E+03 -2.69742E+03  1.71934E+03 -1.62092E+03
  4.10230E+01 -1.05396E+03  2.65681E+03 -1.83273E+03  3.50013E+03 -1.03682E+03  2.58794E+03  4.95340E+02
  4.52624E+03  8.81697E+02  3.59811E+02  3.21002E+03 -7.74395E+02  3.03915E+03 -3.37112E+03  1.99182E+03
 -3.75709E+03 -6.49973E+02 -7.49110E+02 -2.58380E+03 -1.78905E+02 -3.96040E+03  2.72098E+03 -5.73699E+03
  4.63478E+03 -2.92456E+03  5.30360E+03  2.02638E+02  4.85990E+03  3.90888E+03  4.46010E+02  6.35342E+03
 -2.73193E+03  5.40663E+03 -2.16698E+03  2.21564E+03 -1.04524E+03 -7.15922E+02  8.52523E+02 -6.22772E+02
  3.49247E+01  7.07265E+02 -6.78502E+02  2.70736E+03 -1.63595E+03  3.45554E+02 -3.28092E+03  2.68564E+01
 -2.13725E+03 -2.82045E+03  1.00603E+03 -3.34522E+03  2.92405E+03 -3.82370E+03  2.13215E+03 -1.67676E+02
  3.28279E+03  1.38141E+03  1.15623E+03  2.64538E+03 -1.03239E+03  3.84687E+03 -2.70038E+03  3.50844E+03
 -2.99578E+03  9.73336E+02 -3.57714E+03 -1.15750E+03  2.19778E+02 -2.25107E+03  6.80067E+02 -1.91369E+03
  3.05997E+03 -7.08997E+02  1.75833E+03  7.10710E+02  1.15392E+03  2.21119E+03  3.33046E+02  6.77681E+02
  1.06099E+03  5.55744E+02  6.51562E+02  1.60047E+03  1.24012E+03  1.54866E+03  1.34663E+03  4.37945E+02
 -2.74111E+02  2.24593E+03 -3.11285E+03  3.50711E+03 -2.15367E+03  2.05099E+03 -2.97633E+03 -1.25235E+03
 -1.97019E+03 -2.08006E+03 -6.60662E+02 -4.21232E+03  1.71174E+03 -1.65030E+03  3.29767E+03 -2.64773E+02
  1.19114E+03  2.28682E+03  8.77746E+01  2.74850E+03  4.42855E+02  1.20815E+03 -1.23139E+03 -3.10176E+02
 -6.05905E+02 -6.98965E+02  4.82277E+02 -1.02017E+03  1.39376E+03 -9.19767E+02  8.28477E+02 -5.72805E+01
  1.59223E+03 -2.13660E+02  1.02920E+03 -1.40134E+03 -8.08247E+02  1.74952E+02  1.76885E+03 -2.80531E+02
 -2.63280E+02 -2.05669E+02  1.20856E+03  1.98883E+02  2.44249E+02  1.95602E+03  1.11272E+02  3.69611E+03
 -1.35297E+03  3.15526E+02 -2.25993E+03 -2.69470E+02 -1.08818E+03 -6.79323E+02 -4.50102E+02 -8.56271E+02
  6.44826E+02 -1.78182E+03  1.00695E+03  2.56553E+02  7.17827E+02  3.30520E+01 -7.51748E+02  4.47210E+02
 -2.00332E+03  2.04915E+03  2.91958E+02 -1.36651E+03  4.76958E+02 -2.14793E+03  7.30146E+02 -1.30305E+03
 -1.27733E+03 -2.67725E+02 -4.48548E+01 -9.10615E+02  8.79033E+02  5.08524E+02 -5.10847E+02  7.27383E+02
 -3.49599E+02 -6.14710E+02 -1.04404E+03 -5.34932E+02  8.51359E+02 -1.15428E+03  2.26364E+03 -1.06458E+03
  8.32540E+02  7.48783E+02  2.78137E+03 -7.69929E+02 -8.38772E+01  1.17951E+03 -4.13912E+02  1.60930E+03
 -6.87612E+01  8.38567E+02 -3.08567E+02 -3.18501E+01 -6.43553E+02 -3.87388E+02 -1.42489E+02  5.24945E+02
  1.21802E+03  6.24924E+01  1.14162E+03 -3.16154E+02  8.31502E+02  1.26053E+03  1.04335E+03  4.73614E+02
 -8.01432E+02  2.01591E+03  2.75919E+02 -2.50672E+02  4.34567E+02  7.33379E+02 -2.74546E+02  1.66708E+02
  1.60004E+02  1.01935E+03 -1.81911E+03 -1.90339E+01 -1.21057E+03  2.60721E+01 -1.85762E+03 -1.48367E+02
 -1.12106E+03 -2.17043E+03 -5.03965E+01 -2.98351E+03  4.98004E+02 -2.34578E+03  2.68207E+03 -7.39251E+02
  7.40321E+02  2.49635E+02  1.09263E+03  1.62782E+03 -4.03919E+02  1.29669E+03  5.84352E+00 -4.15720E+01
 -7.88741E+02  9.82185E+02  5.10950E+02  1.69281E+02 -1.34348E+03  5.15897E+01 -5.99940E+02 -6.74493E+02
 -5.16168E+02 -7.56294E+02 -1.24823E+03  1.05364E+02  1.62740E+03 -5.23276E+02  4.88132E+02  3.03135E+02
  1.21527E+03 -3.41196E+01 -3.18552E+02  1.52646E+03  1.46090E+03  5.01998E+02  3.49509E+02  1.20404E+03
 -8.27475E+02  5.76588E+02 -1.18477E+03  1.98956E+03 -1.53121E+03  5.98077E+02 -8.50247E+02 -8.25124E+02
 -3.64787E+02 -1.76848E+02  5.30892E+02 -2.26587E+02  1.00695E+03 -8.06815E+02 -1.23075E+02  3.42590E+02
  5.07329E+02  4.66197E+02  2.87507E+02  5.47185E+02  3.32387E+02  2.90978E+02 -3.17545E+02 -5.62953E+02
  1.54028E+03 -3.02414E+02 -7.18458E+01  7.38365E+02  5.66475E+02  8.02987E+02  1.48802E+03 -2.46922E+02
 -9.48716E+02  2.20510E+02 -1.00577E+03  6.95722E+02  4.83205E+02 -4.81597E+02  1.27538E+03 -7.86352E+02
  8.37285E+01  6.88920E+01  4.33511E+02 -1.22167E+02  1.20804E+03  2.16071E+02 -3.48491E+02 -7.10947E+01
  1.60621E+02 -2.88749E+02 -3.83038E+02  5.24960E+01 -3.89517E+02  8.52808E+02 -2.83373E+02  3.16066E+02
  8.40150E+01 -5.89384E+01 -3.67759E+02  1.82548E+02  3.71415E+02  1.22426E+03 -4.27591E+02  6.98056E+02
 -1.00316E+03  6.68285E+02 -4.56271E+02 -1.09347E+03  1.45693E+03 -1.16715E+03  7.23383E+02  6.12089E+02
  6.96264E+02  7.38877E+02 -5.45106E+02  1.36847E+02 -2.62655E+02  1.05930E+03 -2.38213E+02  3.61112E+02
