 $NMID ID='MM_0lb_SNR200_13hz_g55_59.RAW', FMTDAT='(8E13.5)'
 TRAMP=1., VOLUME=1. $END
  3.09906E+05 -3.22813E+02  3.37701E+05  2.51401E+05  8.47640E+04  3.38195E+05 -1.31337E+05  2.51714E+05
 -1.90133E+05  8.40182E+04 -1.13343E+05 -3.26166E+04  3.49903E+01 -5.05011E+04  5.49335E+04  6.53137E+01
  3.48025E+04  5.28611E+04 -1.74427E+04  7.41121E+04 -6.05966E+04  6.34564E+04 -8.49423E+04  3.16121E+04
 -8.15440E+04 -1.15239E+04 -5.89194E+04 -5.17484E+04 -1.56452E+04 -7.03585E+04  2.63810E+04 -4.62791E+04
  3.96929E+04  3.90392E+03  1.63713E+04  4.87867E+04 -3.48815E+04  4.76845E+04 -6.70859E+04 -1.82191E+03
 -5.48486E+04 -5.68622E+04 -6.49827E+03 -7.74095E+04  3.55629E+04 -5.44598E+04  4.89035E+04 -1.76297E+04
  4.49264E+04  1.12227E+04  3.26080E+04  2.63197E+04  1.65578E+04  2.93967E+04 -6.85750E+03  2.63223E+04
 -2.21770E+04  1.25107E+04 -1.89884E+04 -4.81153E+03  6.06218E+03 -7.56533E+03  2.42402E+04  1.23309E+04
  7.06467E+03  3.62998E+04 -3.23186E+04  3.53752E+04 -6.44296E+04  1.48084E+03 -5.77549E+04 -4.32863E+04
 -1.22777E+04 -6.49971E+04  4.03369E+04 -4.59761E+04  5.93113E+04 -3.65324E+03  3.48178E+04  3.41196E+04
 -5.15445E+03  3.72356E+04 -3.12814E+04  1.70208E+04 -3.20907E+04 -3.82213E+03 -1.84022E+04 -1.17621E+04
 -8.72583E+03 -1.38762E+04  1.11352E+03 -1.86789E+04  8.17763E+03 -2.39411E+04  1.53053E+04 -1.24895E+04
  1.10974E+04  7.18971E+03 -9.86116E+03  1.32982E+04 -2.23368E+04 -5.10600E+03 -8.24718E+03 -3.48797E+04
  2.17370E+04 -4.46481E+04  4.92666E+04 -2.02842E+04  4.59243E+04  1.92174E+04  1.71988E+04  4.48915E+04
 -1.67105E+04  3.46712E+04 -2.56149E+04  2.80604E+03 -1.08203E+04 -2.77141E+04  2.06073E+04 -3.51329E+04
  4.31268E+04 -9.89948E+03  3.80967E+04  2.38917E+04  1.91092E+04  4.84755E+04 -7.57787E+03  5.23622E+04
 -3.33874E+04  3.58290E+04 -4.43964E+04  9.34127E+03 -4.33226E+04 -1.55874E+04 -2.45638E+04 -4.02844E+04
  8.46117E+03 -3.87755E+04  3.25019E+04 -1.52152E+04  3.07614E+04  1.01845E+04  5.16344E+03  1.92469E+04
 -1.31085E+04  8.81390E+03 -1.11236E+04 -7.39779E+03  4.82143E+03 -1.11445E+04  1.72128E+04  6.00179E+03
  1.35292E+04  2.18062E+04 -4.54909E+03  2.61872E+04 -2.28037E+04  1.19195E+04 -2.91004E+04 -5.34081E+03
 -2.18285E+04 -1.75604E+04 -1.02876E+04 -2.12732E+04  3.64656E+03 -2.19074E+04  1.65364E+04 -1.88820E+04
  2.89671E+04 -1.23690E+04  3.38287E+04  2.75404E+03  2.44364E+04  2.07070E+04  4.09382E+03  3.67959E+04
 -1.90711E+04  3.07449E+04 -2.90864E+04  1.03404E+04 -2.01745E+04 -1.05959E+04 -5.26194E+03 -1.31825E+04
  1.53785E+03 -3.18899E+03 -5.77020E+03  7.07910E+03 -1.78404E+04  4.94916E+03 -1.83548E+04 -7.67501E+03
 -1.11939E+04 -2.06992E+04  4.71183E+03 -2.40123E+04  1.69176E+04 -1.81879E+04  1.95034E+04 -3.18258E+03
  1.24977E+04  1.45338E+04 -6.14070E+02  2.00081E+04 -1.29745E+04  1.16923E+04 -1.89608E+04 -4.58124E+03
 -1.53257E+04 -1.86692E+04 -1.46229E+03 -2.44621E+04  1.11924E+04 -2.06020E+04  1.95786E+04 -1.06060E+04
  1.87646E+04 -2.09844E+01  1.35320E+04  6.21103E+03  7.44424E+03  2.22076E+03  9.64338E+03 -1.85955E+03
  1.94451E+04  3.10168E+03  2.30340E+04  1.71743E+04  1.52237E+04  3.21674E+04 -2.46175E+03  3.65758E+04
 -2.13072E+04  3.06636E+04 -3.48550E+04  1.49786E+04 -3.71021E+04 -2.36200E+03 -3.09399E+04 -2.22008E+04
 -1.35429E+04 -2.99585E+04  1.08096E+04 -2.70067E+04  2.38301E+04 -1.26164E+04  2.07834E+04  6.45837E+03
  7.70208E+03  1.53973E+04 -9.55455E+03  1.35356E+04 -1.88866E+04  2.89551E+03 -1.33484E+04 -1.09108E+04
 -2.39120E+02 -1.58231E+04  7.63203E+03 -1.30471E+04  1.11060E+04 -7.06648E+02  2.43709E+03  7.22342E+03
 -6.45906E+03  3.73270E+03 -6.38228E+03 -6.30818E+03 -1.53637E+03 -1.38539E+04  1.10505E+04 -1.68885E+04
  1.80926E+04 -9.63306E+03  1.99694E+04  2.35236E+03  1.70620E+04  1.56718E+04  9.08967E+03  2.25441E+04
 -3.68178E+03  2.50351E+04 -1.67660E+04  1.56310E+04 -1.82359E+04  3.72600E+03 -1.19601E+04 -4.25371E+03
 -4.86206E+03 -6.46453E+03 -1.70122E+03  1.73072E+03 -3.94556E+03  2.62953E+03 -6.05929E+03  4.39891E+03
 -1.17455E+04 -8.02746E+02 -1.19786E+04 -1.09164E+04 -5.29104E+03 -1.71346E+04  5.73806E+03 -1.20132E+04
  9.74379E+03 -5.19281E+03  7.57941E+03  3.41911E+03 -7.46627E+02  5.84007E+03 -5.83938E+03 -6.67838E+01
 -5.15112E+03 -6.70848E+03 -4.13562E+02 -1.12885E+04  7.66786E+03 -1.15433E+04  1.57509E+04 -6.96981E+03
  1.84469E+04  8.25959E+02  1.26043E+04  1.16064E+04  1.70880E+03  1.57590E+04 -7.31318E+03  1.14934E+04
 -1.08782E+04  4.14222E+03 -6.18194E+03 -4.42852E+03  7.52965E+02 -3.51793E+03  7.50669E+03 -8.19930E+02
  4.07033E+03  5.67533E+03  1.31318E+03  1.04353E+04 -7.52579E+03  9.74533E+03 -1.22638E+04  2.72923E+03
 -8.96444E+03 -5.60766E+03  6.10835E+02 -1.08510E+04  7.38657E+03 -5.45742E+03  6.67139E+03  1.56254E+03
  1.84457E+03  7.30861E+03 -6.93994E+03  7.60811E+03 -9.28153E+03  4.26808E+03 -9.40779E+03 -3.24521E+03
 -5.76667E+03 -1.14801E+04  2.21616E+03 -1.19578E+04  1.25190E+04 -7.87865E+03  1.11694E+04  2.38269E+03
  7.80339E+03  9.91472E+03 -1.01817E+03  1.22060E+04 -9.27730E+03  6.78554E+03 -8.79648E+03 -4.59841E+02
 -8.82507E+03 -7.42835E+03 -1.62406E+03 -8.47124E+03  4.49337E+03 -7.20207E+03  5.38401E+03 -3.01543E+03
  2.88592E+03  3.20884E+02  1.44803E+02  7.16019E+02 -1.94406E+02 -1.23097E+03  1.34074E+03 -4.70205E+03
  8.57175E+03 -4.15520E+03  1.02029E+04  2.69465E+03  1.03586E+04  7.58808E+03  7.70650E+03  1.41635E+04
 -2.05743E+03  1.63732E+04 -1.53680E+04  1.23740E+04 -1.76614E+04  2.64804E+03 -1.39143E+04 -5.89299E+03
 -5.57049E+03 -1.17423E+04  9.22664E+02 -1.01153E+04  3.52204E+03 -5.16367E+03  3.18933E+03 -3.52850E+03
  3.84852E+03 -2.59057E+03  2.18574E+03 -3.33447E+03  5.05451E+03 -2.49932E+03  6.85540E+03 -2.98614E+02
  7.56802E+03  1.76106E+03  2.47589E+03  5.82330E+03 -1.78328E+03  7.32883E+03 -7.33166E+03  5.78174E+03
 -1.05977E+04 -1.33486E+03 -5.03973E+03 -7.84866E+03 -4.28499E+02 -9.50668E+03  6.01117E+03 -1.20020E+04
  1.08922E+04 -6.49745E+03  1.36797E+04  2.49581E+03  8.80220E+03  8.93460E+03  2.20533E+03  1.05650E+04
 -5.29377E+03  9.72573E+03 -7.43138E+03  3.37975E+03 -3.49205E+03 -1.07478E+03 -2.78534E+03 -8.95708E+02
 -6.11122E+02  9.17723E+02 -1.27581E+03  2.26497E+03 -3.90715E+03  1.53618E+03 -7.65597E+03 -2.92202E+02
 -5.31281E+03 -6.45179E+03 -1.20025E+02 -9.48025E+03  7.05267E+03 -8.62636E+03  8.61429E+03 -1.69506E+03
  9.44899E+03  4.76886E+03  4.37319E+03  7.20819E+03 -2.46520E+03  9.89032E+03 -7.09884E+03  6.66165E+03
 -8.77323E+03  7.47890E+02 -5.96524E+03 -6.05017E+03  8.70759E+01 -7.18217E+03  3.70691E+03 -6.19447E+03
  5.43285E+03 -2.28771E+03  4.97832E+03  2.11956E+03  1.38975E+03  2.18335E+03  1.99571E+03  1.18563E+03
  2.40072E+03 -9.32045E+02  1.74701E+03  5.57762E+02  1.40099E+03  4.31942E+03  2.63591E+03  5.28967E+03
 -2.31142E+03  7.21184E+03 -6.44866E+03  8.45583E+03 -8.88906E+03  9.51679E+02 -9.78788E+03 -2.60331E+03
 -4.15603E+03 -8.62008E+03  4.43921E+02 -9.69471E+03  5.04830E+03 -7.12929E+03  6.48081E+03 -1.39822E+03
  4.55296E+03  5.41668E+03  1.26235E+03  6.38978E+03 -2.04277E+03  3.41393E+03 -4.35874E+03 -4.78099E+02
 -4.95717E+02 -3.15720E+03  2.73981E+03 -4.25751E+03  2.53014E+03 -2.34720E+03  3.55003E+03  5.70891E+02
  1.79994E+03  1.57270E+03  2.57413E+02  1.60934E+03 -7.09961E+02  1.15285E+03  1.71786E+03  5.88534E+02
  9.53323E+02  1.19643E+02  4.47010E+03  1.34827E+03  1.82724E+03  5.82810E+03 -1.20564E+03  7.08399E+03
 -4.18279E+03  3.79292E+03 -5.97376E+03  1.71245E+03 -6.23043E+03 -1.70739E+03 -2.31833E+03 -2.95830E+03
  1.07061E+03 -3.69235E+03  3.51442E+03 -2.00563E+03  1.28404E+03  2.44124E+03 -7.07640E+02  2.53613E+03
 -3.34286E+03  5.96076E+02 -4.11045E+03 -2.56411E+03 -1.59883E+03 -4.63669E+03  1.16423E+03 -4.53185E+03
  7.98814E+02 -2.05672E+03  2.42073E+03  2.94287E+02  4.08034E+03  1.54521E+03  7.62243E+02  2.95231E+03
 -2.29889E+03  1.56517E+03 -2.50852E+03 -1.69153E+03  9.96374E+02 -4.05101E+03  4.04966E+03 -2.62958E+03
  4.60646E+03  1.08181E+03  5.98190E+03  3.45341E+03  2.48965E+03  5.45699E+03 -2.55558E+03  5.79733E+03
 -2.65508E+03  1.66985E+03 -4.83259E+03  8.59469E+01 -1.53018E+03 -2.97867E+03  1.03590E+03 -3.14132E+03
  4.02940E+03 -1.20359E+03  3.01285E+03  5.61181E+02  9.99487E+02  2.08964E+03 -9.68495E+02  2.79477E+03
 -2.13480E+03  1.95257E+03 -1.95977E+03  1.64966E+03 -1.42242E+02  1.33173E+03 -1.98321E+03  2.50098E+03
 -5.14167E+02  3.56194E+03 -4.48262E+03  2.06451E+03 -5.63744E+03 -5.37601E+02 -4.76956E+03 -3.06662E+03
 -3.99530E+03 -8.07479E+03  1.35097E+03 -6.67232E+03  5.08719E+03 -6.09778E+03  6.83376E+03 -1.45583E+03
  6.47913E+03  3.16251E+03  4.49195E+03  3.91428E+03  9.49053E+02  3.09721E+03 -2.80805E+03  5.70653E+03
 -3.05581E+03  5.12079E+02 -9.06286E+02 -1.04334E+03 -2.33373E+03 -8.49892E+01 -7.87176E+02 -5.45221E+02
 -1.01184E+03  4.13479E+00 -1.43170E+03 -2.97283E+03 -4.82873E+02 -3.30157E+02 -1.58316E+02 -1.02855E+03
  2.45280E+03 -7.55522E+02  4.39062E+03 -5.39387E+02  3.89863E+03  2.30477E+03  7.78105E+02  3.88037E+03
 -1.17876E+03  6.66323E+03 -5.42534E+03  3.03742E+03 -7.00251E+03 -8.88504E+01 -5.17325E+03 -3.33172E+03
 -2.52645E+03 -4.88863E+03  1.42438E+03 -4.53565E+03  4.08344E+03 -1.68693E+03  4.41428E+03 -1.50801E+02
  1.90431E+03  1.73674E+03 -1.91866E+03  1.49247E+03 -1.64520E+03 -4.87350E+01  4.79479E+02 -5.78269E+02
  1.60993E+03 -4.20688E+02  2.29896E+03  2.62798E+03  1.60427E+03  1.15699E+03 -3.19823E+02  3.56022E+03
 -1.96604E+03  2.39655E+03 -3.66837E+03  8.34169E+02 -1.68624E+03 -2.29455E+03 -1.10421E+03 -2.83136E+03
  2.86545E+03 -3.03802E+03  3.36050E+03 -9.64616E+02  2.09557E+03  3.67409E+02  1.92179E+03  2.70016E+03
  1.76614E+03  3.45619E+03 -1.47301E+03  2.56681E+03 -1.42704E+03  2.17558E+03 -2.46769E+02 -7.24821E+02
 -6.28843E+02  3.83234E+02 -6.63765E+02  4.73749E+02 -1.71556E+03 -5.39194E+02 -2.35250E+03  5.58436E+02
 -2.51195E+03 -1.03231E+03 -4.55115E+02 -3.07085E+03  1.43173E+03 -1.94925E+03  3.38250E+03 -1.02938E+03
  2.67392E+03  2.50135E+02  1.62823E+03  2.17216E+03  3.89994E+02  2.39251E+03 -2.84066E+03  3.38825E+03
