 $NMID ID='MM_0lb_SNR200_13hz_g55_30.RAW', FMTDAT='(8E13.5)'
 TRAMP=1., VOLUME=1. $END
  3.09384E+05 -1.23400E+02  3.38364E+05  2.51216E+05  8.43979E+04  3.37853E+05 -1.33633E+05  2.50907E+05
 -1.89759E+05  8.30888E+04 -1.11606E+05 -3.31971E+04  5.54484E+02 -4.94049E+04  5.29023E+04  1.19987E+02
  3.45808E+04  5.30929E+04 -1.61118E+04  7.56510E+04 -6.12128E+04  6.33728E+04 -8.55200E+04  3.32908E+04
 -8.08802E+04 -1.13361E+04 -5.71890E+04 -5.21637E+04 -1.47205E+04 -7.06872E+04  2.78431E+04 -4.60120E+04
  4.06039E+04  2.84408E+03  1.67909E+04  4.86930E+04 -3.56835E+04  4.73274E+04 -6.72289E+04 -1.23299E+03
 -5.49206E+04 -5.75903E+04 -7.35741E+03 -7.77995E+04  3.31777E+04 -5.45921E+04  4.99064E+04 -1.92528E+04
  4.47227E+04  1.15845E+04  3.27577E+04  2.62317E+04  1.76734E+04  2.90775E+04 -4.92811E+03  2.71473E+04
 -2.16393E+04  1.09561E+04 -1.83750E+04 -4.34831E+03  5.41007E+03 -7.11246E+03  2.23084E+04  1.14273E+04
  7.06957E+03  3.54386E+04 -3.22370E+04  3.53201E+04 -6.48424E+04  2.68649E+03 -5.77034E+04 -4.38939E+04
 -1.29381E+04 -6.40574E+04  4.17403E+04 -4.61853E+04  5.92474E+04 -2.19299E+03  3.61562E+04  3.24834E+04
 -4.38665E+03  3.72416E+04 -2.97515E+04  1.71950E+04 -3.21051E+04 -5.15233E+03 -1.85185E+04 -1.07093E+04
 -8.95441E+03 -1.28738E+04  8.29534E+02 -1.84568E+04  7.27520E+03 -2.23005E+04  1.52183E+04 -1.40515E+04
  1.24018E+04  5.69814E+03 -9.24048E+03  1.37129E+04 -2.15262E+04 -4.03439E+03 -8.83492E+03 -3.41375E+04
  2.41196E+04 -4.53164E+04  5.02539E+04 -1.95380E+04  4.58189E+04  2.01462E+04  1.65687E+04  4.60230E+04
 -1.69131E+04  3.33366E+04 -2.65076E+04  3.18193E+03 -1.04585E+04 -2.85246E+04  2.08105E+04 -3.46152E+04
  4.20395E+04 -9.99222E+03  3.73342E+04  2.28412E+04  2.03997E+04  4.84218E+04 -7.94510E+03  5.29721E+04
 -3.33905E+04  3.58805E+04 -4.37033E+04  9.87183E+03 -4.42929E+04 -1.76746E+04 -2.47395E+04 -3.93479E+04
  6.69050E+03 -4.01445E+04  3.12897E+04 -1.56435E+04  3.04548E+04  1.00088E+04  3.06511E+03  2.01608E+04
 -1.33988E+04  8.50094E+03 -1.11896E+04 -6.94773E+03  5.61999E+03 -1.04273E+04  1.97869E+04  6.75140E+03
  1.34695E+04  2.13361E+04 -6.50445E+03  2.54406E+04 -2.33909E+04  1.30175E+04 -2.93613E+04 -3.43165E+03
 -2.27907E+04 -1.81717E+04 -9.51123E+03 -2.19525E+04  4.81920E+03 -2.19184E+04  1.71186E+04 -2.07747E+04
  2.80167E+04 -1.32636E+04  3.36119E+04  3.23437E+03  2.59051E+04  2.15312E+04  5.36743E+03  3.81999E+04
 -1.89362E+04  3.13716E+04 -2.88857E+04  1.04670E+04 -2.19761E+04 -9.57423E+03 -4.14379E+03 -1.24673E+04
  2.66053E+02 -1.58520E+03 -5.25923E+03  8.62607E+03 -1.78776E+04  4.67418E+03 -1.80781E+04 -7.41031E+03
 -8.60410E+03 -1.90754E+04  4.93998E+03 -2.36389E+04  1.66781E+04 -1.77914E+04  1.95811E+04 -1.89999E+03
  1.23581E+04  1.28788E+04 -3.04244E+02  2.12832E+04 -1.39824E+04  1.13348E+04 -2.05592E+04 -3.41932E+03
 -1.35555E+04 -1.94040E+04 -2.95689E+03 -2.51708E+04  9.97715E+03 -1.98667E+04  1.93962E+04 -1.04413E+04
  1.89686E+04  6.72190E+01  1.32315E+04  4.44623E+03  6.84965E+03  8.65016E+02  1.02745E+04 -3.18514E+03
  1.81030E+04  2.92889E+03  2.10024E+04  1.53486E+04  1.44871E+04  3.21966E+04 -2.34659E+03  3.78644E+04
 -2.03379E+04  3.10361E+04 -3.60044E+04  1.47175E+04 -3.64409E+04 -3.41310E+03 -3.18243E+04 -2.07062E+04
 -1.18288E+04 -3.20450E+04  1.00022E+04 -2.70689E+04  2.52437E+04 -1.22512E+04  1.98532E+04  6.19378E+03
  7.83691E+03  1.59021E+04 -8.85355E+03  1.42947E+04 -1.70986E+04  4.26825E+03 -1.21272E+04 -1.08592E+04
  7.78175E+01 -1.66772E+04  9.78453E+03 -1.20347E+04  1.09290E+04 -1.74999E+03  2.91745E+03  7.35206E+03
 -8.17567E+03  2.03786E+03 -7.12186E+03 -4.83726E+03 -1.75691E+02 -1.48807E+04  8.35880E+03 -1.48631E+04
  2.03817E+04 -9.41824E+03  1.90876E+04  3.06179E+03  1.84998E+04  1.42019E+04  7.90428E+03  2.33629E+04
 -4.56423E+03  2.55891E+04 -1.59373E+04  1.58913E+04 -1.85832E+04  3.44314E+03 -1.20688E+04 -3.60677E+03
 -5.80466E+03 -4.93694E+03 -1.83499E+02  5.19487E+02 -3.18115E+03  2.26797E+03 -5.14926E+03  4.64596E+03
 -1.19201E+04 -1.24983E+03 -1.24347E+04 -1.00032E+04 -4.85632E+03 -1.67577E+04  4.81976E+03 -1.31539E+04
  1.02996E+04 -5.99681E+03  7.46255E+03  3.89327E+03  3.02704E+02  4.87490E+03 -4.51138E+03 -1.03376E+03
 -6.15584E+03 -7.85959E+03 -8.61979E+02 -1.19564E+04  7.78186E+03 -1.27947E+04  1.51881E+04 -6.16076E+03
  1.88990E+04  2.65299E+03  1.25489E+04  1.14795E+04  2.58378E+03  1.52621E+04 -7.65352E+03  1.21575E+04
 -1.06443E+04  2.90472E+03 -6.88661E+03 -2.73787E+03  2.48028E+03 -1.32418E+03  7.73914E+03 -9.53276E+02
  5.92166E+03  6.09269E+03  9.76993E+02  1.02434E+04 -8.55016E+03  8.01859E+03 -1.22736E+04  2.74356E+03
 -7.25941E+03 -6.64621E+03 -7.89670E+02 -9.35889E+03  7.84807E+03 -4.83456E+03  6.46931E+03  1.25173E+03
  6.40629E+02  7.24854E+03 -5.12246E+03  6.99460E+03 -1.03358E+04  3.57967E+03 -8.61463E+03 -3.40978E+03
 -5.09924E+03 -1.11763E+04  2.83410E+03 -1.38913E+04  1.11443E+04 -7.61933E+03  1.18502E+04  2.90480E+03
  8.79614E+03  9.18554E+03 -2.23369E+03  1.25219E+04 -8.05214E+03  8.19078E+03 -1.00431E+04 -1.03781E+03
 -7.64471E+03 -8.00248E+03 -2.09067E+03 -9.35503E+03  4.14482E+03 -7.50100E+03  4.80168E+03 -3.38822E+03
  4.20565E+03  1.15567E+03 -6.94538E+01  1.08947E+03 -2.42065E+02 -1.78970E+03  1.13665E+03 -5.49056E+03
  7.16204E+03 -3.58236E+03  1.15856E+04  3.52444E+02  1.04589E+04  7.00442E+03  8.85198E+03  1.45425E+04
 -2.48615E+03  1.76717E+04 -1.48748E+04  1.24374E+04 -1.77886E+04  2.14864E+03 -1.39663E+04 -6.21533E+03
 -7.39749E+03 -1.12832E+04 -6.03608E+02 -1.10529E+04  4.62456E+03 -4.88108E+03  3.05449E+03 -4.05033E+03
  1.70881E+03 -2.73454E+03  4.35113E+03 -2.85255E+03  5.19468E+03 -1.91623E+03  5.63829E+03 -4.57819E+00
  8.71970E+03  2.61568E+03  2.70786E+03  7.06750E+03 -2.09563E+03  8.22522E+03 -8.63196E+03  7.24192E+03
 -9.81633E+03 -7.81262E+02 -5.17447E+03 -7.41631E+03 -1.00995E+03 -1.06139E+04  6.07243E+03 -1.13393E+04
  1.16834E+04 -6.28871E+03  1.24984E+04  1.35544E+03  8.64522E+03  9.60509E+03  2.84744E+03  1.22780E+04
 -4.38944E+03  1.04902E+04 -7.51238E+03  3.86566E+03 -4.23643E+03 -1.04221E+03 -2.81457E+03 -2.35360E+03
 -1.10113E+03  1.17995E+03 -1.60838E+03  2.93508E+03 -5.25438E+03  8.77280E+02 -7.82527E+03 -1.23679E+03
 -3.20481E+03 -6.91341E+03 -1.79996E+03 -9.82896E+03  5.83334E+03 -7.66120E+03  8.91219E+03 -2.24254E+03
  8.80397E+03  4.70426E+03  4.44949E+03  7.50613E+03 -1.54729E+03  9.44588E+03 -5.20462E+03  6.17511E+03
 -8.83549E+03  2.38302E+02 -7.03174E+03 -6.06642E+03  1.30916E+02 -7.78075E+03  4.38530E+03 -5.52305E+03
  4.77150E+03 -3.06713E+03  4.51089E+03  2.02169E+03 -3.94655E+02  2.30929E+03 -7.04340E+02  9.99700E+02
  1.86742E+03 -2.40197E+02  1.31057E+03  9.38252E+02  3.70044E+03  3.40473E+03  1.96877E+03  4.78846E+03
 -2.14668E+03  7.19225E+03 -5.77311E+03  8.10747E+03 -7.70148E+03  2.38575E+03 -1.08202E+04 -2.38356E+03
 -4.05384E+03 -8.58722E+03  1.24021E+03 -9.62557E+03  6.34642E+03 -6.54608E+03  7.38962E+03 -1.53330E+03
  6.63548E+03  3.73219E+03  2.02217E+03  5.71659E+03 -2.95283E+03  4.63103E+03 -3.46988E+03 -3.75906E+02
 -2.95209E+03 -3.38050E+03  2.57084E+03 -3.07055E+03  2.68838E+03 -3.10275E+03  3.22533E+03  2.03748E+03
  2.54158E+03  1.70083E+03  1.57089E+03  1.18354E+03 -6.04655E+01  1.64330E+03  1.89443E+03  7.54049E+02
  1.71327E+03 -3.79598E+02  4.45976E+03  1.59495E+03  1.70210E+03  5.07067E+03 -2.33661E+03  7.28439E+03
 -4.70347E+03  3.21191E+03 -5.17526E+03  3.82292E+02 -3.79787E+03 -2.24536E+03 -3.35486E+03 -3.99403E+03
  9.06380E+02 -4.16220E+03  1.81265E+03 -1.01792E+03  6.04647E+02  2.20200E+03 -1.45469E+03  2.21837E+03
 -3.46985E+03  1.94261E+03 -4.01597E+03 -2.77838E+03 -2.09179E+03 -4.40411E+03  1.06005E+03 -4.69804E+03
  2.66750E+03 -2.49908E+03  2.86609E+03 -1.57300E+03  3.53118E+03  1.62616E+03  5.56500E+02  1.90836E+03
 -1.44693E+03  8.72991E+02 -3.40210E+03 -1.15614E+03  1.88710E+03 -3.16478E+03  4.00137E+03 -3.09195E+03
  4.01863E+03  1.16544E+03  5.19897E+03  3.33479E+03  1.14809E+03  5.61753E+03 -2.83734E+03  4.78037E+03
 -4.44725E+03  1.74688E+03 -5.27324E+03 -5.46757E+02 -3.39610E+03 -3.14508E+03  4.42122E+02 -2.69952E+03
  2.64182E+03 -2.33917E+03  3.49649E+03  1.51703E+03  2.62048E+02  1.92087E+03 -1.33792E+03  3.27853E+03
  1.06272E+02  1.86913E+03 -1.68474E+03  7.18465E+02 -1.96152E+03  1.76193E+03 -3.19479E+03  1.13480E+03
 -1.91140E+03  1.48383E+03 -3.80587E+03  1.17947E+03 -5.61976E+03  1.71189E+02 -5.28548E+03 -2.69985E+03
 -3.64505E+03 -7.33856E+03  2.19120E+03 -7.95369E+03  3.99601E+03 -6.70555E+03  8.12046E+03 -2.71670E+03
  7.18574E+03  9.87801E+02  4.51304E+03  4.33776E+03 -1.10951E+03  5.82322E+03 -1.02827E+03  4.23835E+03
 -4.18310E+03  6.80832E+00 -1.78722E+03  7.08422E+01 -2.63189E+02  1.29891E+02 -4.63551E+02 -2.18067E+01
 -9.71923E+00 -3.75831E+02 -1.16016E+03 -2.68498E+02 -2.18135E+02 -1.97064E+03 -4.50665E+01 -2.28227E+03
  2.47318E+03 -1.62045E+03  2.15488E+03 -1.31246E+03  4.62399E+03  2.20809E+03  1.62762E+03  5.13714E+03
 -1.70332E+03  6.52763E+03 -5.09014E+03  4.10220E+03 -5.02588E+03 -1.76773E+02 -2.23996E+03 -3.36800E+03
 -1.22826E+03 -5.07668E+03  3.11440E+03 -3.87901E+03  4.53062E+03 -1.16053E+03  3.42780E+03  6.13684E+02
  2.58757E+03  7.45730E+02 -3.67016E+02  1.79348E+03 -7.70347E+02  7.55421E+00  1.20534E+03 -2.19508E+03
  1.52171E+03  6.17982E+02  1.28154E+03  8.09525E+02 -1.91928E+02  8.79660E+02 -7.90374E+02  3.17027E+03
 -1.20178E+03  2.04748E+03 -4.49092E+03 -1.01268E+02 -4.09365E+03 -2.51575E+03 -1.15936E+03 -4.18038E+03
  2.19282E+03 -3.88623E+03  3.06569E+03 -1.44760E+03  4.13672E+03  1.37353E+03  1.86678E+03  2.59044E+03
 -3.01454E+02  2.73895E+03 -1.33781E+02  2.74261E+03 -1.23088E+03  1.65378E+03 -1.73536E+03 -3.94243E+02
 -1.26581E+03 -7.65683E+02 -1.45173E+03  3.10983E+01 -1.13124E+03  3.25420E+02 -2.93690E+03 -1.24697E+03
 -2.97241E+03 -9.93037E+02 -1.03133E+03 -2.36838E+03  2.31546E+03 -4.26206E+03  2.56462E+03 -1.15763E+03
  3.06327E+03 -9.99441E+02  1.12262E+03  8.85062E+02 -1.72599E+03  3.21570E+03 -2.59483E+03  1.78962E+03
