 $NMID ID='MM_0lb_SNR200_10hz_g45_37.RAW', FMTDAT='(8E13.5)'
 TRAMP=1., VOLUME=1. $END
  3.10931E+05  1.75488E+03  3.38462E+05  2.51373E+05  8.55328E+04  3.38279E+05 -1.32020E+05  2.51482E+05
 -1.90983E+05  8.35522E+04 -1.12338E+05 -3.23690E+04  9.44601E+02 -4.99895E+04  5.37030E+04 -9.68957E+02
  3.51450E+04  5.39798E+04 -1.74381E+04  7.65919E+04 -6.08737E+04  6.46233E+04 -8.54620E+04  3.14357E+04
 -8.15933E+04 -1.18719E+04 -5.71068E+04 -5.21592E+04 -1.56729E+04 -6.97279E+04  2.84987E+04 -4.57064E+04
  4.11105E+04  2.75553E+03  1.53591E+04  4.94888E+04 -3.45625E+04  4.65616E+04 -6.75824E+04 -2.27016E+02
 -5.37015E+04 -5.72792E+04 -6.49677E+03 -7.98376E+04  3.48724E+04 -5.55916E+04  4.84107E+04 -1.75473E+04
  4.37934E+04  1.20342E+04  3.34326E+04  2.55557E+04  1.68268E+04  2.96880E+04 -5.43414E+03  2.78018E+04
 -2.02669E+04  1.21736E+04 -1.77437E+04 -4.63404E+03  7.62500E+03 -5.97278E+03  2.22633E+04  1.50778E+04
  7.06187E+03  3.55018E+04 -3.27455E+04  3.59538E+04 -6.44123E+04  4.28310E+03 -5.73430E+04 -4.38853E+04
 -1.24770E+04 -6.56709E+04  4.16792E+04 -4.75917E+04  6.01066E+04 -2.48101E+03  3.76783E+04  3.33630E+04
 -4.83786E+03  3.80713E+04 -3.15405E+04  1.77760E+04 -3.29002E+04 -3.00960E+03 -1.77446E+04 -1.10719E+04
 -7.90580E+03 -1.43957E+04 -1.95836E+02 -1.98763E+04  8.78196E+03 -2.27439E+04  1.51369E+04 -1.28654E+04
  1.09107E+04  5.14882E+03 -1.12894E+04  1.25201E+04 -2.36100E+04 -7.19345E+03 -8.95763E+03 -3.52227E+04
  2.45370E+04 -4.64364E+04  5.02215E+04 -1.96932E+04  4.83074E+04  1.98621E+04  1.68365E+04  4.61373E+04
 -1.64724E+04  3.51991E+04 -2.63162E+04  2.72754E+03 -1.18467E+04 -2.77297E+04  2.09439E+04 -3.61583E+04
  4.47758E+04 -9.37693E+03  3.87350E+04  2.32089E+04  2.09939E+04  4.95095E+04 -8.17878E+03  5.34003E+04
 -3.45529E+04  3.70727E+04 -4.66797E+04  1.20144E+04 -4.59001E+04 -1.68670E+04 -2.60083E+04 -4.03405E+04
  6.37996E+03 -4.16548E+04  3.22711E+04 -1.71391E+04  2.99907E+04  1.04748E+04  4.32593E+03  2.18403E+04
 -1.42901E+04  9.28541E+03 -1.10343E+04 -7.04223E+03  4.61325E+03 -1.13753E+04  1.96163E+04  4.23404E+03
  1.49278E+04  2.22072E+04 -6.13281E+03  2.58853E+04 -2.35743E+04  1.33835E+04 -3.05879E+04 -2.31024E+03
 -2.39275E+04 -1.85461E+04 -9.22325E+03 -2.22789E+04  4.83036E+03 -2.34091E+04  1.82546E+04 -2.12705E+04
  2.83972E+04 -1.34181E+04  3.47576E+04  3.19292E+03  2.47011E+04  2.33842E+04  5.27579E+03  4.02732E+04
 -1.90253E+04  3.38788E+04 -3.01804E+04  1.23736E+04 -2.34645E+04 -9.88968E+03 -4.36488E+03 -1.28424E+04
  1.42513E+03 -7.44629E+02 -5.63307E+03  8.71960E+03 -1.79026E+04  4.72379E+03 -1.84983E+04 -7.60569E+03
 -1.05865E+04 -2.06930E+04  5.01315E+03 -2.52184E+04  1.78786E+04 -1.89696E+04  2.17453E+04 -2.34725E+03
  1.31878E+04  1.56567E+04 -2.55922E+02  2.24608E+04 -1.40997E+04  1.31963E+04 -2.33355E+04 -3.86537E+03
 -1.66557E+04 -2.07228E+04 -3.21013E+03 -2.56612E+04  1.23539E+04 -2.34693E+04  2.09777E+04 -1.08083E+04
  1.91578E+04 -4.79472E+02  1.49488E+04  4.14094E+03  7.54907E+03  2.13916E+03  1.01527E+04 -1.15022E+03
  2.13259E+04  3.18247E+03  2.34739E+04  1.76366E+04  1.66216E+04  3.51169E+04 -2.92467E+03  4.13476E+04
 -2.28849E+04  3.38366E+04 -3.77241E+04  1.76055E+04 -4.14519E+04 -3.51227E+03 -3.41475E+04 -2.40682E+04
 -1.32663E+04 -3.32261E+04  1.27166E+04 -2.96273E+04  2.33209E+04 -1.40006E+04  2.31145E+04  7.12548E+03
  8.17655E+03  1.85463E+04 -1.13170E+04  1.43947E+04 -1.88711E+04  2.43231E+03 -1.34021E+04 -1.17659E+04
  5.30118E+02 -1.85862E+04  9.60590E+03 -1.24476E+04  1.36126E+04 -2.70266E+03  1.97831E+03  8.33591E+03
 -8.30446E+03  4.29284E+03 -8.92916E+03 -5.17688E+03 -1.83768E+03 -1.72130E+04  1.14943E+04 -1.83489E+04
  2.23973E+04 -8.70226E+03  2.44971E+04  2.65581E+03  2.11001E+04  1.62612E+04  1.03042E+04  2.71661E+04
 -4.75019E+03  2.83816E+04 -1.72760E+04  1.75834E+04 -2.15811E+04  5.10211E+03 -1.49355E+04 -5.98288E+03
 -5.35663E+03 -6.68875E+03 -3.88570E+02  2.66481E+02 -2.90797E+03  1.79521E+03 -7.19887E+03  5.03398E+03
 -1.29358E+04 -4.55377E+02 -1.35074E+04 -1.06356E+04 -5.12198E+03 -1.87255E+04  6.03837E+03 -1.45166E+04
  1.28663E+04 -6.68009E+03  9.02870E+03  4.90036E+03  1.67265E+02  6.54537E+03 -5.19749E+03  4.15018E+01
 -5.95466E+03 -9.38929E+03 -1.01725E+03 -1.31216E+04  9.09209E+03 -1.51878E+04  1.82224E+04 -8.25314E+03
  2.13981E+04  2.88604E+03  1.44162E+04  1.42335E+04  2.59557E+03  1.57552E+04 -8.68362E+03  1.42623E+04
 -1.19115E+04  3.05492E+03 -5.43502E+03 -3.60362E+03  1.68838E+03 -5.00602E+03  8.50661E+03 -2.08591E+03
  6.66117E+03  4.92542E+03  3.23056E+02  1.18549E+04 -8.51329E+03  1.10464E+04 -1.40149E+04  2.61630E+03
 -1.02013E+04 -7.29952E+03  1.11682E+02 -1.24215E+04  7.67060E+03 -5.49632E+03  7.72654E+03  3.21331E+03
  1.78428E+03  8.51973E+03 -6.70763E+03  1.16651E+04 -1.11808E+04  4.94738E+03 -1.05092E+04 -4.05103E+03
 -6.29102E+03 -1.34970E+04  3.86397E+03 -1.58830E+04  1.46685E+04 -8.50728E+03  1.63713E+04  2.71359E+03
  9.08925E+03  1.21899E+04 -1.32874E+03  1.40337E+04 -1.08521E+04  8.68327E+03 -1.29278E+04 -1.84903E+03
 -1.02263E+04 -9.47355E+03 -1.74484E+03 -1.02884E+04  5.44414E+03 -8.99267E+03  6.24020E+03 -3.82170E+03
  6.15400E+03  2.46952E+03 -1.42295E+03  2.88546E+03 -8.37435E+02 -2.75756E+03  2.77946E+03 -5.32944E+03
  1.03393E+04 -4.07668E+03  1.54114E+04  2.56223E+03  1.39922E+04  8.29894E+03  9.93574E+03  1.90689E+04
 -4.50969E+03  2.08926E+04 -1.70600E+04  1.41265E+04 -2.32779E+04  3.90241E+03 -1.90088E+04 -9.69204E+03
 -8.16230E+03 -1.44944E+04 -1.80423E+03 -1.25560E+04  3.39567E+03 -6.90353E+03  4.76483E+03 -5.34899E+03
  2.97206E+03 -1.97151E+03  2.80803E+03 -2.75211E+03  5.35212E+03 -3.95919E+03  7.08345E+03 -1.34130E+03
  1.00987E+04  1.70025E+03  4.38193E+03  7.26940E+03 -1.88898E+03  8.88374E+03 -1.03688E+04  9.54525E+03
 -1.41506E+04 -2.85978E+03 -9.73917E+03 -7.65561E+03 -2.35350E+02 -1.33621E+04  7.90252E+03 -1.34138E+04
  1.36908E+04 -6.83201E+03  1.60071E+04  2.12741E+03  1.18455E+04  1.09744E+04  4.57290E+02  1.54458E+04
 -7.09082E+03  1.28227E+04 -7.56249E+03  5.29641E+03 -6.37640E+03 -1.87390E+03 -2.93003E+03 -2.41880E+03
 -9.62545E+02 -4.69080E+02 -2.47350E+03  2.34307E+03 -2.61247E+03  1.91426E+03 -1.02831E+04 -4.45191E+02
 -5.76429E+03 -1.13436E+04  6.58749E+01 -1.17071E+04  7.94744E+03 -1.19614E+04  1.35658E+04 -3.46700E+03
  1.28145E+04  5.64871E+03  5.14864E+03  1.05714E+04 -2.38586E+03  1.17967E+04 -9.20037E+03  9.11186E+03
 -1.25789E+04  9.38492E+02 -1.05686E+04 -6.87142E+03 -1.22556E+03 -1.05888E+04  6.10690E+03 -9.20390E+03
  8.04694E+03 -2.03299E+03  4.74758E+03  1.90795E+03  2.15943E+03  4.04534E+03  2.39521E+03  2.40860E+03
  2.40667E+03  5.72094E+02  3.19733E+03  4.51558E+02  3.78960E+03  5.38307E+03  2.95952E+03  6.01848E+03
 -3.88180E+03  9.35857E+03 -1.02457E+04  8.98182E+03 -1.30358E+04  2.91881E+03 -1.36987E+04 -4.42901E+03
 -6.10951E+03 -1.32657E+04  1.98903E+03 -1.31636E+04  7.70976E+03 -9.51384E+03  9.91861E+03 -1.97457E+03
  8.15491E+03  5.16909E+03  1.24249E+03  7.62133E+03 -3.55936E+03  5.63863E+03 -3.59760E+03  1.33203E+02
 -3.13000E+03 -6.21936E+03  3.09542E+03 -6.06867E+03  6.32663E+03 -2.66247E+03  5.46413E+03  1.27851E+03
  2.87774E+03  2.25280E+03  2.42536E+03  9.67360E+02 -5.06727E+02  1.28804E+03  2.79410E+03 -1.57591E+03
  2.91866E+03 -6.14123E+02  5.84574E+03  3.02390E+03  3.38642E+03  6.71381E+03  1.44929E+03  8.43882E+03
 -5.01948E+03  5.47410E+03 -7.40013E+03  1.88310E+03 -8.00179E+03 -1.48915E+03 -3.10739E+03 -6.22111E+03
  6.80897E+02 -4.19315E+03  5.01307E+03 -1.41460E+03  2.41426E+03  2.82320E+03 -2.03313E+03  5.22257E+03
 -5.56051E+03  3.68535E+03 -6.89920E+03 -2.86437E+03 -3.54593E+03 -7.14111E+03  1.03547E+03 -6.89648E+03
  4.16116E+03 -5.01864E+03  5.09320E+03  1.25305E+03  2.82128E+03  2.03609E+03  9.51603E+02  5.41027E+03
 -2.14543E+03  1.46607E+03 -3.64130E+03 -4.33910E+03  4.47696E+02 -4.61306E+03  6.94092E+03 -4.71934E+03
  8.62400E+03  2.79888E+03  7.63073E+03  6.92611E+03  4.40331E+03  8.26110E+03 -2.92359E+03  7.89486E+03
 -5.79398E+03  3.37372E+03 -7.01474E+03 -1.56038E+03 -4.72494E+03 -7.38474E+03  9.69039E+02 -4.93974E+03
  5.59766E+03 -2.40465E+03  5.18419E+03  2.58805E+03  1.71107E+03  4.28376E+03 -1.04229E+03  5.49260E+03
 -7.23088E+02  2.85164E+03 -2.37349E+03  6.16552E+02 -3.72181E+02  1.80322E+03 -9.03769E+02  1.14085E+03
 -3.09282E+03  2.71141E+03 -6.16763E+03  3.14333E+03 -7.30579E+03  1.05261E+03 -8.50611E+03 -4.79447E+03
 -5.23309E+03 -1.19264E+04  2.57348E+03 -1.25940E+04  7.20082E+03 -9.64733E+03  1.21440E+04 -3.35499E+03
  1.24324E+04  5.60305E+02  4.96614E+03  6.67772E+03  3.61740E+02  6.80473E+03 -3.92000E+03  5.85531E+03
 -4.44697E+03  3.52953E+03 -4.89041E+03 -5.53558E+02 -2.02022E+03  3.14969E+01 -1.74484E+03 -1.24251E+03
 -2.73247E+03 -7.67455E+02 -1.86393E+03 -1.03694E+03 -5.79025E+02 -1.92492E+03  2.08987E+02 -3.51726E+03
  5.40615E+03 -3.58397E+03  5.19210E+03  6.17012E+02  5.23793E+03  4.86529E+03 -3.64937E+02  7.96323E+03
 -6.65849E+03  1.17868E+04 -8.98624E+03  5.31496E+03 -1.02929E+04 -2.56616E+03 -6.58533E+03 -5.68119E+03
 -3.27808E+03 -8.51772E+03  1.16141E+03 -8.53901E+03  4.49061E+03 -3.78425E+03  4.67072E+03 -7.63984E+01
  2.53295E+03  3.26843E+03 -3.39406E+02  3.95988E+03 -3.73956E+03  1.50184E+03 -7.10974E+02 -1.74921E+03
  3.20922E+03  3.42728E+02  3.23906E+03  1.44049E+03  2.92822E+03  2.67374E+03 -1.25606E+03  4.73859E+03
 -3.54349E+03  3.65316E+03 -4.26516E+03  1.30174E+03 -4.00942E+03 -5.11543E+03 -1.70223E+03 -7.11641E+03
  4.34066E+03 -5.54587E+03  6.20668E+03 -2.08768E+03  5.58428E+03  1.92163E+03  4.91899E+03  6.06450E+03
  2.79681E+03  4.86811E+03 -1.17795E+03  4.14488E+03 -4.57421E+03  1.94020E+03 -3.63661E+03 -6.00635E+02
 -1.05544E+03  1.59620E+03 -2.08304E+03 -6.40033E+02 -2.78695E+03 -5.54614E+00 -4.27213E+03 -5.71374E+02
 -4.55673E+03 -3.41510E+03  2.79429E+02 -6.88498E+03  2.48222E+03 -6.05918E+03  5.35225E+03 -2.50281E+03
  6.04923E+03 -5.59968E+02  3.99430E+03  5.03266E+03 -2.22808E+02  7.52335E+03 -4.16343E+03  4.04213E+03
