 $NMID ID='MM_0lb_SNR200_8hz_g50_14.RAW', FMTDAT='(8E13.5)'
 TRAMP=1., VOLUME=1. $END
  3.08839E+05 -3.52749E+02  3.37922E+05  2.52274E+05  8.42680E+04  3.38369E+05 -1.33838E+05  2.52290E+05
 -1.90580E+05  8.32022E+04 -1.10456E+05 -3.34223E+04 -7.74950E+02 -5.22414E+04  5.27268E+04  1.05893E+03
  3.46346E+04  5.30468E+04 -1.71363E+04  7.75962E+04 -6.28576E+04  6.38632E+04 -8.46732E+04  3.17961E+04
 -8.19125E+04 -1.02911E+04 -5.80140E+04 -5.31328E+04 -1.59072E+04 -7.18851E+04  2.97725E+04 -4.65239E+04
  3.99901E+04  4.32733E+03  1.79491E+04  5.00269E+04 -3.53676E+04  4.93414E+04 -6.94954E+04  1.82034E+02
 -5.38053E+04 -5.88931E+04 -6.20453E+03 -8.17930E+04  3.71003E+04 -5.73958E+04  4.98233E+04 -1.84233E+04
  4.54020E+04  1.08865E+04  3.25627E+04  2.68925E+04  1.56544E+04  3.30014E+04 -6.18079E+03  2.73023E+04
 -2.19851E+04  1.16726E+04 -1.81181E+04 -4.29181E+03  6.06047E+03 -7.83281E+03  2.43812E+04  1.45486E+04
  7.18801E+03  3.94052E+04 -3.42090E+04  3.69418E+04 -6.41158E+04  3.81238E+03 -5.99419E+04 -4.70734E+04
 -1.27419E+04 -6.65718E+04  4.24954E+04 -4.68936E+04  6.18104E+04 -3.85199E+03  3.86511E+04  3.50378E+04
 -5.45934E+03  4.09239E+04 -3.19503E+04  2.00557E+04 -3.45901E+04 -2.59041E+03 -1.87499E+04 -1.21277E+04
 -1.01477E+04 -1.58443E+04 -7.95798E+02 -2.20777E+04  1.01118E+04 -2.36900E+04  1.56161E+04 -1.20928E+04
  8.29813E+03  6.89957E+03 -9.49900E+03  1.36683E+04 -2.35227E+04 -7.90094E+03 -8.38517E+03 -3.92347E+04
  2.61132E+04 -4.73446E+04  5.43939E+04 -2.18546E+04  4.94175E+04  2.05949E+04  1.60412E+04  4.75060E+04
 -1.63734E+04  3.62483E+04 -2.70321E+04  2.26717E+03 -1.08874E+04 -2.96906E+04  2.13118E+04 -3.65022E+04
  4.50125E+04 -1.18514E+04  4.03567E+04  2.39967E+04  2.27279E+04  5.07082E+04 -7.48741E+03  5.76523E+04
 -3.58069E+04  3.99223E+04 -4.83325E+04  1.12550E+04 -4.86096E+04 -1.85478E+04 -2.60595E+04 -4.13114E+04
  5.67698E+03 -4.33992E+04  3.30648E+04 -1.99582E+04  3.20051E+04  1.06015E+04  6.29789E+03  2.14355E+04
 -1.47201E+04  9.41636E+03 -1.17700E+04 -8.04080E+03  4.89343E+03 -1.26801E+04  1.88336E+04  5.43969E+03
  1.47558E+04  2.26484E+04 -5.57539E+03  2.90764E+04 -2.29361E+04  1.57751E+04 -3.32530E+04 -1.46068E+03
 -2.58196E+04 -1.99918E+04 -1.16183E+04 -2.58383E+04  3.74004E+03 -2.58527E+04  2.08047E+04 -2.39930E+04
  3.32104E+04 -1.42174E+04  3.79904E+04  6.26209E+03  2.84532E+04  2.49070E+04  4.80980E+03  4.39186E+04
 -1.87970E+04  3.40775E+04 -3.19470E+04  1.09922E+04 -2.16529E+04 -1.04649E+04 -4.56456E+03 -1.31350E+04
  1.84545E+03 -2.55033E+02 -7.56305E+03  8.90022E+03 -2.16167E+04  5.34997E+03 -1.99759E+04 -1.00796E+04
 -1.09542E+04 -2.43551E+04  5.88049E+03 -2.82517E+04  2.12133E+04 -2.02206E+04  2.56484E+04 -1.73367E+03
  1.42128E+04  1.74742E+04 -8.71907E+02  2.36414E+04 -1.91889E+04  1.39503E+04 -2.57596E+04 -6.69302E+03
 -1.76296E+04 -2.22257E+04 -2.02828E+03 -2.95844E+04  1.19174E+04 -2.41151E+04  2.36809E+04 -1.32431E+04
  2.34384E+04 -3.93777E+01  1.76839E+04  4.85491E+03  1.00811E+04  1.41351E+03  1.26004E+04 -1.81887E+03
  2.11799E+04  2.55295E+03  2.70857E+04  1.92555E+04  1.91158E+04  4.04544E+04 -2.55422E+03  4.58216E+04
 -2.81380E+04  4.00601E+04 -4.42916E+04  1.93798E+04 -4.74582E+04 -3.45482E+03 -4.03411E+04 -2.87439E+04
 -1.50054E+04 -3.89688E+04  1.31667E+04 -3.44821E+04  2.96311E+04 -1.62085E+04  2.40567E+04  8.31779E+03
  9.53251E+03  1.98665E+04 -1.15847E+04  1.65869E+04 -2.04777E+04  3.80099E+03 -1.49544E+04 -1.20523E+04
  4.76000E+00 -2.08970E+04  1.07896E+04 -1.41557E+04  1.36964E+04 -4.64747E+02  3.26091E+03  9.12798E+03
 -9.99457E+03  3.54077E+03 -8.79364E+03 -8.11794E+03 -2.86419E+02 -1.81607E+04  1.26548E+04 -2.02209E+04
  2.37981E+04 -1.07717E+04  2.87753E+04  3.33231E+03  2.33732E+04  2.05867E+04  1.03179E+04  3.20593E+04
 -5.86638E+03  3.24832E+04 -2.27555E+04  2.04598E+04 -2.47394E+04  4.39665E+03 -1.63553E+04 -6.61135E+03
 -6.98376E+03 -9.35683E+03 -1.03860E+03  6.56650E+02 -2.85627E+03  3.05230E+03 -6.45706E+03  5.88977E+03
 -1.51980E+04 -4.75304E+02 -1.63455E+04 -1.27733E+04 -8.04309E+03 -2.08760E+04  7.23856E+03 -1.67123E+04
  1.38887E+04 -7.52634E+03  9.81498E+03  4.30027E+03 -1.65123E+02  6.77602E+03 -8.87202E+03 -8.96768E+02
 -9.94304E+03 -1.04601E+04 -9.60547E+01 -1.64834E+04  1.01172E+04 -1.64921E+04  2.19260E+04 -9.34499E+03
  2.38687E+04  1.56671E+03  1.98563E+04  1.78073E+04  4.77396E+03  2.14076E+04 -1.23181E+04  1.52317E+04
 -1.30137E+04  6.85691E+03 -6.42984E+03 -3.86974E+03  2.95931E+03 -5.67922E+03  9.01230E+03  3.79546E+02
  7.54760E+03  7.06234E+03 -3.59261E+02  1.19188E+04 -1.21212E+04  1.35635E+04 -1.71202E+04  2.91902E+03
 -1.19288E+04 -9.27519E+03  6.65152E+02 -1.44053E+04  9.73849E+03 -7.95254E+03  1.14280E+04  3.30836E+03
  2.99078E+03  9.75901E+03 -7.86550E+03  1.09361E+04 -1.49850E+04  3.98018E+03 -1.56420E+04 -7.03418E+03
 -8.60346E+03 -1.74192E+04  4.27718E+03 -2.05775E+04  1.78296E+04 -1.26477E+04  1.88522E+04  2.09297E+03
  1.07780E+04  1.53493E+04 -6.84193E+02  1.61510E+04 -1.26924E+04  9.81632E+03 -1.45523E+04 -1.19482E+03
 -1.13828E+04 -1.06143E+04 -1.28351E+03 -1.26593E+04  7.36397E+03 -1.08456E+04  9.59305E+03 -4.80737E+03
  4.22041E+03  7.85294E+02 -1.44651E+03  4.74525E+02 -2.06777E+03 -3.76834E+03  3.17075E+03 -8.54088E+03
  1.20491E+04 -6.18344E+03  1.75134E+04  2.01170E+03  1.69788E+04  1.35294E+04  1.14660E+04  2.35093E+04
 -4.90872E+03  2.69924E+04 -2.12296E+04  1.89606E+04 -2.87620E+04  4.31240E+03 -2.21620E+04 -1.09182E+04
 -1.03165E+04 -1.76817E+04 -1.18138E+03 -1.63489E+04  6.99570E+03 -1.05614E+04  5.48198E+03 -7.52169E+03
  4.40200E+03 -3.57240E+03  5.29656E+03 -4.09119E+03  5.69727E+03 -2.92029E+03  1.01015E+04 -1.26294E+03
  1.10754E+04  2.60257E+03  6.64821E+03  8.13986E+03 -1.77496E+03  1.16021E+04 -1.10041E+04  7.39198E+03
 -1.68299E+04 -1.76050E+03 -1.27129E+04 -1.18036E+04 -2.17735E+03 -1.84098E+04  1.08699E+04 -1.78291E+04
  1.83922E+04 -1.02240E+04  2.10520E+04  2.17699E+03  1.58706E+04  1.49498E+04  1.22399E+03  2.08659E+04
 -9.05238E+03  1.65450E+04 -1.18163E+04  4.36866E+03 -7.53968E+03 -1.57236E+03 -3.28670E+03 -2.96509E+03
 -1.41593E+03 -2.28090E+02 -1.82537E+03  4.63827E+03 -5.78462E+03  1.23192E+03 -1.27865E+04 -2.00309E+03
 -7.61563E+03 -1.02755E+04  2.80409E+01 -1.52917E+04  1.13267E+04 -1.53843E+04  1.70995E+04 -6.23722E+03
  1.67400E+04  8.27015E+03  8.58659E+03  1.37641E+04 -5.47367E+03  1.69906E+04 -1.18893E+04  1.12362E+04
 -1.65933E+04  6.50995E+02 -1.24722E+04 -9.37477E+03 -1.75428E+03 -1.39069E+04  7.52885E+03 -1.03976E+04
  9.70780E+03 -1.85592E+03  8.30698E+03  2.99637E+03  9.85544E+02  5.21629E+03  1.99330E+03  1.95286E+03
  7.73364E+02  1.37601E+03  3.61076E+03  8.25639E+02  4.83604E+03  6.54463E+03  4.63136E+03  1.03005E+04
 -2.08791E+03  1.27493E+04 -1.10136E+04  1.30080E+04 -1.76495E+04  3.30129E+03 -1.67400E+04 -7.60111E+03
 -8.64527E+03 -1.57385E+04  3.14408E+03 -1.84466E+04  8.59948E+03 -1.24442E+04  1.43280E+04 -3.95287E+03
  1.09727E+04  6.28288E+03  4.55198E+03  1.04936E+04 -4.73747E+03  8.00185E+03 -8.84238E+03 -1.17413E+03
 -3.13314E+03 -7.57485E+03  4.40023E+03 -8.70412E+03  6.40237E+03 -4.53015E+03  8.30115E+03  1.38240E+03
  4.92402E+03  5.08104E+03  2.00833E+03  3.21803E+03 -1.84817E+03  2.77448E+03  2.68900E+03 -1.22764E+03
  6.03319E+02 -1.08950E+03  6.83909E+03  2.77841E+03  4.13661E+03  1.00609E+04 -1.75886E+03  1.24566E+04
 -8.16546E+03  8.72960E+03 -1.05046E+04  2.51456E+03 -1.05845E+04 -4.18503E+03 -2.79920E+03 -9.59220E+03
  3.04736E+01 -6.89537E+03  2.50666E+03 -2.93993E+03  5.78394E+03  1.59756E+03 -1.08641E+03  6.09131E+03
 -7.48814E+03  3.54205E+03 -6.98562E+03 -5.35982E+03 -6.00536E+03 -9.25641E+03 -2.64690E+02 -8.07562E+03
  6.16058E+03 -6.12092E+03  8.37442E+03 -1.65494E+03  4.12701E+03  2.11640E+03  1.87927E+03  4.16941E+03
 -4.18962E+03  3.13507E+03 -3.29324E+03 -2.37828E+03  2.03975E+03 -7.59309E+03  7.85337E+03 -8.25300E+03
  1.09525E+04 -6.49875E+02  9.02357E+03  8.53388E+03  3.92722E+03  1.10714E+04 -4.53276E+03  1.15132E+04
 -1.06061E+04  3.91512E+03 -1.12167E+04 -1.76176E+03 -3.84150E+03 -6.45376E+03  1.81197E+03 -7.86003E+03
  7.67089E+03 -3.96517E+03  5.48440E+03  3.40863E+03  3.07766E+03  5.76110E+03 -1.13162E+03  6.97020E+03
 -3.74358E+03  2.76239E+03 -2.27077E+03  2.80582E+03 -2.15357E+03 -5.57491E+02 -2.27011E+02  3.14720E+03
 -3.67021E+03  4.93139E+03 -6.68547E+03  2.84726E+03 -1.17889E+04 -9.10245E+02 -1.37995E+04 -8.52332E+03
 -4.07342E+03 -1.62264E+04  3.92166E+03 -1.80106E+04  1.26846E+04 -1.50897E+04  1.85332E+04 -4.03276E+03
  1.69823E+04  2.73567E+03  1.04699E+04  1.10375E+04  1.01700E+03  1.15564E+04 -5.17008E+03  9.53257E+03
 -8.64304E+03  1.12657E+03 -4.17402E+03 -1.75279E+03 -3.73784E+02  9.26814E+02 -6.54924E+02  2.91085E+02
 -3.00915E+03  1.01288E+03 -2.15400E+03 -2.78215E+03 -2.26539E+03 -3.60564E+03  6.63096E+02 -4.60036E+03
  6.21155E+03 -4.04619E+03  7.75572E+03 -1.23769E+03  7.59351E+03  7.46976E+03  5.86721E+03  1.26670E+04
 -7.45693E+03  1.53253E+04 -1.44676E+04  9.07454E+03 -1.71181E+04 -1.85764E+03 -1.27205E+04 -8.96191E+03
 -6.36955E+03 -1.17979E+04  4.32454E+03 -1.19034E+04  6.62132E+03 -7.36944E+03  7.29254E+03  1.53226E+03
  4.33268E+03  3.76190E+03 -5.32872E+02  2.65078E+03 -3.77493E+03 -7.83823E+02  2.15413E+02 -3.35002E+03
  2.07674E+03 -3.30630E+03  4.39790E+03  1.45024E+03  3.75881E+03  5.30501E+03  2.72183E+02  7.69903E+03
 -5.64644E+03  5.39745E+03 -6.79234E+03  1.13641E+03 -8.37437E+03 -7.73012E+03 -2.03714E+03 -1.06486E+04
  5.98401E+03 -9.53183E+03  1.00191E+04 -2.35065E+03  1.10324E+04  1.98679E+03  3.66982E+03  8.11891E+03
  2.61621E+03  8.32048E+03 -5.30017E+03  7.66455E+03 -4.75229E+03  4.09855E+03 -3.49546E+03  6.56840E+01
 -1.78348E+03 -3.45192E+02 -3.27509E+03  2.28080E+03 -4.09033E+03  1.41169E+03 -6.72901E+03 -1.07882E+03
 -7.75312E+03 -4.50970E+03 -1.84726E+03 -9.61297E+03  4.40571E+03 -8.98364E+03  6.23264E+03 -2.53673E+03
  9.45298E+03  4.96736E+02  4.70923E+03  5.80067E+03 -1.90452E+02  7.00963E+03 -8.76023E+03  4.85092E+03
