 $NMID ID='MM_0lb_SNR200_19hz_g60_41.RAW', FMTDAT='(8E13.5)'
 TRAMP=1., VOLUME=1. $END
  3.08746E+05  1.05345E+03  3.37033E+05  2.50651E+05  8.54432E+04  3.37662E+05 -1.32738E+05  2.49994E+05
 -1.90709E+05  8.41195E+04 -1.12447E+05 -3.26566E+04  5.96007E+02 -5.23234E+04  5.40718E+04  2.13416E+02
  3.53867E+04  5.21188E+04 -1.49790E+04  7.64652E+04 -6.03138E+04  6.26228E+04 -8.34398E+04  3.13594E+04
 -7.98733E+04 -1.15690E+04 -5.75807E+04 -5.10132E+04 -1.45774E+04 -6.79482E+04  2.74412E+04 -4.58644E+04
  3.92841E+04  4.25258E+03  1.55526E+04  4.73257E+04 -3.40456E+04  4.64557E+04 -6.73981E+04  1.22708E+01
 -5.31061E+04 -5.49412E+04 -5.91489E+03 -7.71238E+04  3.41510E+04 -5.46482E+04  4.70240E+04 -1.61070E+04
  4.23021E+04  1.16332E+04  3.11479E+04  2.43263E+04  1.61860E+04  2.84605E+04 -5.35044E+03  2.72255E+04
 -2.12755E+04  1.18990E+04 -1.89479E+04 -5.08678E+03  4.77266E+03 -7.61834E+03  2.15784E+04  1.18882E+04
  6.83695E+03  3.47452E+04 -3.13927E+04  3.50295E+04 -6.24262E+04  2.44187E+03 -5.67307E+04 -4.05406E+04
 -1.22544E+04 -6.16216E+04  3.97626E+04 -4.39823E+04  5.62671E+04 -2.24791E+03  3.17486E+04  3.17595E+04
 -6.97371E+03  3.48987E+04 -2.93407E+04  1.46037E+04 -2.88740E+04 -6.02229E+03 -1.50549E+04 -1.06677E+04
 -7.00852E+03 -1.22039E+04 -1.67890E+03 -1.76283E+04  5.85484E+03 -2.26624E+04  1.48331E+04 -1.31164E+04
  1.07006E+04  3.84566E+03 -7.08234E+03  1.33799E+04 -1.92895E+04 -2.80202E+03 -8.57175E+03 -3.20884E+04
  2.13043E+04 -4.24300E+04  4.60920E+04 -1.97097E+04  4.18708E+04  1.85703E+04  1.46892E+04  4.23851E+04
 -1.63040E+04  3.20599E+04 -2.52189E+04  2.11383E+03 -9.31950E+03 -2.68618E+04  2.09941E+04 -3.25672E+04
  3.89125E+04 -8.42312E+03  3.33723E+04  2.28734E+04  1.63077E+04  4.48024E+04 -6.92183E+03  4.74225E+04
 -2.99403E+04  3.11885E+04 -3.96067E+04  9.58438E+03 -3.93832E+04 -1.64736E+04 -2.28723E+04 -3.63834E+04
  6.40902E+03 -3.63763E+04  2.88820E+04 -1.47186E+04  2.74185E+04  9.37301E+03  3.81006E+03  1.80855E+04
 -1.27567E+04  7.69476E+03 -9.93287E+03 -8.16748E+03  5.04338E+03 -1.07959E+04  1.75615E+04  6.31306E+03
  1.37561E+04  2.16606E+04 -6.91209E+03  2.21036E+04 -2.24318E+04  1.02562E+04 -2.55507E+04 -4.83729E+03
 -1.84461E+04 -1.68751E+04 -6.25362E+03 -1.86705E+04  4.41724E+03 -1.61680E+04  1.32507E+04 -1.47990E+04
  2.31097E+04 -1.27376E+04  2.94585E+04  2.30791E+03  2.19831E+04  1.68570E+04  4.83338E+03  3.39318E+04
 -1.81039E+04  2.93810E+04 -2.59682E+04  9.73839E+03 -2.03554E+04 -9.89162E+03 -3.61769E+03 -1.39742E+04
  2.52204E+03 -3.98838E+03 -3.10035E+03  5.75962E+03 -1.32064E+04  5.30487E+03 -1.46413E+04 -5.66722E+03
 -8.54398E+03 -1.67502E+04  5.27216E+03 -2.14952E+04  1.30707E+04 -1.53376E+04  1.53134E+04 -7.42464E+02
  9.17224E+03  1.19591E+04 -7.43512E+02  1.52257E+04 -1.24132E+04  9.64213E+03 -1.61574E+04 -3.33156E+03
 -1.24081E+04 -1.57130E+04 -2.36230E+03 -1.98575E+04  9.13545E+03 -1.64770E+04  1.63518E+04 -8.01134E+03
  1.55813E+04  8.69561E+02  1.12844E+04  4.41485E+03  6.06929E+03  7.54737E+02  8.91819E+03 -6.78310E+02
  1.50679E+04  2.67507E+03  1.54572E+04  1.35558E+04  1.03958E+04  2.44758E+04 -3.59583E+03  2.76213E+04
 -1.69848E+04  2.24368E+04 -2.62181E+04  1.19757E+04 -2.71340E+04 -2.14405E+03 -2.27466E+04 -1.63224E+04
 -1.07959E+04 -2.23345E+04  7.34377E+03 -1.94881E+04  1.82767E+04 -1.06058E+04  1.61957E+04  4.63443E+03
  7.46630E+03  1.18596E+04 -8.25676E+03  1.13673E+04 -1.37185E+04  1.72816E+03 -9.68914E+03 -9.03276E+03
 -5.37486E+01 -1.34871E+04  6.81755E+03 -9.52008E+03  8.72385E+03 -1.34358E+03  1.31750E+03  5.59371E+03
 -6.01141E+03  1.10463E+03 -3.16293E+03 -4.77521E+03 -6.65161E+02 -1.01722E+04  9.71006E+03 -1.12635E+04
  1.38283E+04 -4.50633E+03  1.30828E+04  1.77822E+03  1.25439E+04  9.04758E+03  4.63746E+03  1.56627E+04
 -2.21048E+03  1.74273E+04 -1.04406E+04  9.54444E+03 -1.04875E+04  3.77522E+03 -9.88788E+03 -2.35875E+03
 -5.29072E+03 -4.79356E+03 -1.46921E+03  2.27401E+03 -2.49014E+03  1.51285E+03 -3.56614E+03  4.59557E+03
 -7.82424E+03  2.39397E+02 -8.83075E+03 -8.25441E+03 -3.24818E+03 -1.14854E+04  4.78497E+03 -8.44095E+03
  7.14520E+03 -4.24420E+03  5.62715E+03  3.49083E+03 -5.63663E+01  3.33387E+03 -3.18738E+03  2.14935E+02
 -4.11861E+03 -5.27542E+03  2.17072E+02 -7.11451E+03  5.06028E+03 -7.95933E+03  1.07227E+04 -3.44111E+03
  1.25277E+04  6.28162E+02  9.48371E+03  6.70403E+03  2.18620E+03  8.45703E+03 -5.44610E+03  7.64666E+03
 -7.57916E+03  3.17635E+03 -3.20955E+03 -1.71712E+03  2.11792E+03 -2.76036E+03  5.15038E+03 -9.96539E+02
  4.38231E+03  2.97900E+03  1.28786E+03  7.18103E+03 -4.17692E+03  6.41373E+03 -7.47974E+03  2.56066E+03
 -4.72638E+03 -3.70219E+03  6.98045E+02 -7.25552E+03  3.71586E+03 -2.93268E+03  2.83234E+03  9.37816E+02
  1.22310E+03  3.55458E+03 -4.03374E+03  4.67634E+03 -6.48901E+03  3.55944E+03 -5.35049E+03 -8.58446E+02
 -4.09685E+03 -6.41227E+03  2.44026E+03 -6.73584E+03  6.45121E+03 -4.75441E+03  6.62600E+03  4.52045E+02
  3.76530E+03  5.49325E+03 -2.46262E+01  7.46224E+03 -4.21331E+03  4.24581E+03 -5.62408E+03 -8.00701E+02
 -6.70570E+03 -4.84478E+03 -7.64939E+02 -6.01607E+03  2.68738E+03 -4.97219E+03  2.99840E+03 -2.56148E+03
  2.05844E+03 -3.32651E+02  5.33866E+02  9.34948E+02  8.33648E+02 -2.80615E+02 -1.67766E+01 -1.66852E+03
  3.47070E+03 -3.62750E+02  5.31617E+03  1.16699E+03  5.85251E+03  2.84979E+03  4.29081E+03  7.06262E+03
 -7.28290E+02  8.63135E+03 -7.17973E+03  6.91802E+03 -9.38103E+03  4.60394E+02 -8.67756E+03 -2.23358E+03
 -4.35534E+03 -6.65986E+03 -1.38491E+02 -5.72278E+03  2.40647E+03 -2.79452E+03  2.39288E+03 -3.36785E+03
  1.49448E+03 -1.55815E+03  2.60011E+03 -3.07932E+03  3.30932E+03 -1.52427E+03  4.08772E+03  2.96462E+02
  4.91851E+03  5.02073E+02  2.82835E+02  3.50021E+03 -8.57382E+02  2.20351E+03 -4.59387E+03  3.23560E+03
 -5.46553E+03 -9.60945E+02 -1.32312E+03 -3.31204E+03 -5.17177E+01 -4.34822E+03  2.61080E+03 -4.81817E+03
  5.60923E+03 -3.91999E+03  5.70356E+03 -6.87317E+01  5.15278E+03  3.34539E+03  1.86834E+02  6.29013E+03
 -1.44044E+03  6.22996E+03 -3.57258E+03  3.17785E+03 -1.35190E+03 -1.01351E+03  1.98807E+02 -9.10917E+02
  3.04436E+02  2.17100E+02 -1.87356E+03  2.10529E+03 -1.77372E+03  6.08350E+02 -3.65650E+03 -3.49790E+00
 -1.87536E+03 -3.93169E+03  1.43195E+02 -4.75351E+03  2.74605E+03 -4.52242E+03  4.58626E+03 -1.64238E+03
  2.99195E+03  1.98358E+03  5.05894E+02  2.79015E+03 -1.44368E+03  4.37204E+03 -4.20165E+03  2.81556E+03
 -3.88350E+03 -1.07954E+02 -3.67922E+03 -2.18901E+03  5.00461E+02 -2.87405E+03  1.81390E+03 -3.29265E+03
  2.76060E+03 -4.69427E+02  1.48012E+03 -3.21451E+02  2.55809E+02  9.05937E+02  6.46848E+02  8.34770E+02
  3.09218E+03  1.32881E+03  2.51849E+02  1.33457E+03  1.46503E+03  1.97514E+03  1.91784E+03  7.54267E+02
 -1.35533E+03  3.21651E+03 -2.70609E+03  4.24417E+03 -2.91789E+03  1.22986E+03 -3.38589E+03 -6.92119E+02
 -2.05218E+03 -3.15175E+03  5.35955E+02 -4.68831E+03  1.97446E+03 -2.34937E+03  3.49853E+03 -4.59473E+02
  2.69001E+03  2.05068E+03  2.28780E+02  2.52665E+03 -6.09749E+02  1.56229E+03 -1.43970E+03  2.29357E+02
 -6.68906E+02 -4.36949E+02  1.09040E+03 -6.98966E+02  6.04540E+02 -9.35434E+02  1.70859E+03  5.12305E+02
  3.58462E+02  2.54687E+02  7.38398E+02 -1.42827E+02  9.90129E+01  5.38780E+02  1.46388E+03 -9.84161E+02
  8.18511E+02  1.82037E+02  1.65778E+03  7.29195E+02 -7.37251E+02  1.86591E+03  2.91475E+02  2.27881E+03
 -2.34110E+03 -2.38102E+02 -2.03055E+03  1.24630E+02 -2.70529E+03 -1.57772E+03 -1.21581E+03 -8.63598E+01
 -2.50539E+02  1.85677E+02  4.37929E+02 -1.47759E+03  6.31313E+02  8.09244E+02  1.72263E+02  1.43061E+03
 -1.41969E+03  1.20945E+03 -1.33201E+03 -1.02272E+03 -8.93639E+01 -8.08574E+02  1.07302E+03 -1.67116E+03
 -1.69861E+02 -1.04123E+02  4.63631E+02  9.84151E+02  1.50168E+03 -8.42366E+01  5.92723E+02  1.23240E+03
 -5.40702E+02 -8.00007E+02 -5.16587E+02  4.61405E+02  8.14930E+02 -1.15542E+03  2.00160E+03 -7.78217E+02
  1.21760E+03  7.47421E+02  1.82693E+03  1.66899E+03  5.53426E+02  7.39318E+02 -1.84234E+02  1.54820E+03
 -4.74256E+02 -2.91749E+02 -6.65198E+02 -6.73454E+02 -2.86937E+01 -1.24940E+03  1.32547E+01  3.53377E+02
  5.69397E+01 -7.27204E+02  3.77565E+02 -7.97439E+02 -2.75122E+02 -2.05780E+01 -2.06076E+02  1.66463E+03
  1.70066E+02  5.20912E+02 -8.25037E+02  8.56957E+02  6.63382E+01  2.24144E+02  3.23602E+02  1.24669E+02
 -1.18955E+03  1.23179E+03 -1.10431E+03  7.81002E+02 -1.18483E+03  3.73682E+02 -1.94376E+03 -2.15996E+03
 -3.37765E+02 -2.88124E+03  2.41089E+02 -1.88569E+03  1.83252E+03 -3.05171E+03  3.42130E+03 -1.73065E+03
  3.17906E+03  7.09989E+02  1.41785E+03  2.98952E+02 -7.17243E+02  1.43700E+03 -2.52859E+02  3.16900E+02
  6.04528E+02  1.71308E+03  3.10834E+02 -3.37670E+02 -1.09698E+03 -7.36241E+02 -8.71707E+02 -4.52061E+02
 -1.32224E+03  7.51368E+02 -8.96939E+02 -3.79746E+02 -7.35985E+02 -3.13606E+02  6.05903E+02 -4.99928E+02
  1.08730E+03 -8.92618E+02 -3.72155E+02  8.71960E+02  7.40215E+02  9.07856E+02 -1.90889E+02  9.05026E+02
 -1.26806E+03  3.11894E+03 -1.11155E+03  1.81032E+03 -2.34149E+02  7.22746E+02 -1.34145E+03 -1.22214E+03
 -1.41539E+03 -7.51543E+02  6.88302E+02 -2.15576E+02 -1.90054E+01 -2.51406E+02  3.18650E+02  8.22228E+02
  1.00347E+03  1.16670E+03  8.93959E+02  1.03499E+03 -6.92775E+02 -7.43277E+02  5.49897E+01  4.02229E+01
  1.83586E+02  6.74281E+02  2.20101E+02  1.39723E+03  8.85608E+01  1.57457E+02  1.74675E+03  1.08463E+03
 -1.23461E+02  8.80076E+02 -1.53775E+02 -5.41008E+01 -2.57382E+02 -8.70991E+02  5.52503E+02 -3.88606E+02
  8.57688E+02 -4.78944E+02  1.05394E+03  2.75983E+02  1.44671E+03 -1.10831E+02 -3.41323E+02  5.38421E+02
  4.83504E+02  5.99783E+02 -5.76232E+02  7.35972E+02  2.97151E+02  2.03637E+02 -4.13917E+02  1.46230E+02
 -9.57782E+02 -2.67866E+02  6.00910E+01  7.65181E+02 -9.27951E+02 -1.23470E+01  1.72046E+00 -8.27530E+02
  1.50164E+02  7.72456E+02 -5.65637E+02 -5.53373E+02  6.79478E+02 -1.24954E+03  7.53588E+02 -2.44144E+02
  9.90800E+02 -3.82924E+02  1.96015E-01  7.74401E+01  4.79329E+02  4.99724E+02 -1.03133E+03  8.21066E+02
