 $NMID ID='MM_0lb_SNR200_8hz_g50_88.RAW', FMTDAT='(8E13.5)'
 TRAMP=1., VOLUME=1. $END
  3.11373E+05  3.51934E-01  3.37535E+05  2.51112E+05  8.64528E+04  3.38408E+05 -1.31193E+05  2.50626E+05
 -1.90578E+05  8.33103E+04 -1.11944E+05 -3.36805E+04 -8.97112E+02 -4.92674E+04  5.29985E+04 -1.52679E+03
  3.59357E+04  5.17253E+04 -1.73167E+04  7.48879E+04 -6.19169E+04  6.54781E+04 -8.63238E+04  3.12349E+04
 -8.20039E+04 -1.28082E+04 -5.92935E+04 -5.25693E+04 -1.47386E+04 -7.09627E+04  2.88552E+04 -4.58466E+04
  4.00174E+04  3.61061E+03  1.70866E+04  4.96989E+04 -3.56445E+04  4.84635E+04 -6.95164E+04  7.23838E+02
 -5.55857E+04 -5.67864E+04 -7.26032E+03 -7.97524E+04  3.50576E+04 -5.78330E+04  4.98871E+04 -1.88037E+04
  4.63942E+04  1.13479E+04  3.22416E+04  2.79405E+04  1.69582E+04  2.96889E+04 -7.69269E+03  2.89009E+04
 -2.21258E+04  1.24654E+04 -1.69293E+04 -6.99777E+03  8.58586E+03 -8.52333E+03  2.38495E+04  1.46212E+04
  7.53127E+03  3.79817E+04 -3.22694E+04  3.99380E+04 -6.71804E+04  2.49346E+02 -5.86866E+04 -4.43779E+04
 -1.24523E+04 -6.73880E+04  4.15064E+04 -4.65468E+04  6.22955E+04 -2.62085E+03  3.48633E+04  3.47569E+04
 -6.50717E+03  4.11892E+04 -3.25755E+04  1.98774E+04 -3.25453E+04 -2.93865E+03 -1.98909E+04 -1.19086E+04
 -1.02729E+04 -1.54977E+04  2.36845E+03 -2.04669E+04  9.05086E+03 -2.64248E+04  1.57903E+04 -1.08515E+04
  9.08315E+03  7.78322E+03 -9.53953E+03  1.37020E+04 -2.38202E+04 -8.43592E+03 -8.50278E+03 -3.79578E+04
  2.63964E+04 -4.71584E+04  5.29869E+04 -2.17680E+04  4.68426E+04  2.25022E+04  1.73307E+04  4.74497E+04
 -1.73219E+04  3.72920E+04 -2.82616E+04  1.62236E+03 -1.07183E+04 -3.03605E+04  2.15641E+04 -3.86037E+04
  4.58744E+04 -1.18683E+04  4.07076E+04  2.50998E+04  2.26850E+04  5.25849E+04 -8.80738E+03  5.72714E+04
 -3.66146E+04  3.86376E+04 -4.91877E+04  1.20515E+04 -5.06282E+04 -1.94079E+04 -2.60309E+04 -4.31240E+04
  8.25258E+03 -4.17774E+04  3.58367E+04 -1.68302E+04  3.14020E+04  1.12052E+04  4.50086E+03  2.02365E+04
 -1.47217E+04  1.01608E+04 -1.17241E+04 -6.16556E+03  6.76539E+03 -1.08213E+04  1.93303E+04  4.64938E+03
  1.64304E+04  2.29503E+04 -5.70248E+03  2.89543E+04 -2.37174E+04  1.48324E+04 -3.44648E+04 -2.96667E+03
 -2.42646E+04 -1.83353E+04 -1.10631E+04 -2.54475E+04  2.98798E+03 -2.66391E+04  2.00973E+04 -2.24464E+04
  3.31464E+04 -1.44836E+04  3.90486E+04  5.92531E+03  2.89272E+04  2.49742E+04  3.84228E+03  4.29029E+04
 -2.16984E+04  3.38672E+04 -3.27528E+04  1.26146E+04 -2.19398E+04 -1.06928E+04 -2.86168E+03 -1.14792E+04
  4.87702E+02  1.81235E+02 -6.95233E+03  1.06893E+04 -2.03526E+04  5.10047E+03 -1.85731E+04 -1.11110E+04
 -1.34533E+04 -2.42234E+04  5.35101E+03 -3.00755E+04  1.85244E+04 -2.05186E+04  2.28800E+04 -2.51167E+03
  1.49757E+04  1.67183E+04 -2.87012E+02  2.35863E+04 -1.58796E+04  1.37570E+04 -2.42083E+04 -4.43687E+03
 -1.86617E+04 -2.07961E+04 -3.60929E+03 -3.02246E+04  1.33417E+04 -2.59603E+04  2.51441E+04 -1.29961E+04
  2.37330E+04  3.06637E+02  1.48734E+04  4.14842E+03  9.47985E+03  2.74096E+03  1.31240E+04 -1.11943E+03
  2.37204E+04  4.61710E+03  2.63436E+04  1.96046E+04  1.90682E+04  3.78536E+04 -3.29655E+03  4.64479E+04
 -2.59779E+04  4.08273E+04 -4.41123E+04  1.97136E+04 -4.65555E+04 -3.91082E+03 -3.73017E+04 -2.80868E+04
 -1.43116E+04 -4.00949E+04  1.43578E+04 -3.65647E+04  2.93471E+04 -1.48014E+04  2.38307E+04  8.83806E+03
  8.55200E+03  1.95708E+04 -1.20038E+04  1.53428E+04 -2.04002E+04  1.02807E+03 -1.46153E+04 -1.49307E+04
 -4.83312E+02 -1.95863E+04  9.52696E+03 -1.45650E+04  1.40109E+04 -2.30305E+03  3.34750E+03  9.54600E+03
 -1.01885E+04  4.97000E+03 -8.55244E+03 -7.71126E+03 -1.98080E+03 -1.89021E+04  1.25488E+04 -2.16370E+04
  2.34220E+04 -1.06007E+04  2.76494E+04  4.46411E+03  2.42111E+04  1.99803E+04  1.20063E+04  3.00331E+04
 -7.65061E+03  3.31409E+04 -2.15689E+04  1.94050E+04 -2.56683E+04  2.59457E+03 -1.69516E+04 -7.68920E+03
 -5.67460E+03 -7.89131E+03 -8.27041E+02  1.39036E+02 -3.87910E+03  4.14366E+03 -7.93296E+03  4.37558E+03
 -1.50494E+04 -2.11260E+03 -1.46221E+04 -1.42079E+04 -5.89453E+03 -2.21692E+04  7.46143E+03 -1.73897E+04
  1.39445E+04 -6.27603E+03  8.64304E+03  4.48289E+03 -2.36763E+03  6.19095E+03 -8.22002E+03 -2.64135E+03
 -8.26717E+03 -1.05474E+04 -1.40391E+03 -1.72730E+04  1.16366E+04 -1.54308E+04  2.18015E+04 -9.10336E+03
  2.54351E+04  1.72812E+03  1.75479E+04  1.68519E+04  2.59785E+03  2.19640E+04 -1.07880E+04  1.48787E+04
 -1.35100E+04  3.02947E+03 -7.66992E+03 -5.25604E+03  2.42618E+03 -4.24814E+03  9.28011E+03  4.19985E+02
  8.59047E+03  7.86956E+03  5.79828E+00  1.43968E+04 -1.07207E+04  1.35568E+04 -1.81510E+04  2.77304E+03
 -1.30594E+04 -9.44269E+03 -1.00912E+03 -1.46652E+04  1.08920E+04 -9.42831E+03  1.05547E+04  4.31527E+03
  1.61754E+03  1.21067E+04 -8.83898E+03  1.30838E+04 -1.36280E+04  5.91975E+03 -1.68173E+04 -7.08878E+03
 -1.03284E+04 -1.78462E+04  4.81549E+03 -1.98012E+04  1.80609E+04 -1.21327E+04  1.80900E+04  3.60458E+03
  9.62663E+03  1.47706E+04 -1.63769E+03  1.67560E+04 -1.25830E+04  9.87955E+03 -1.48892E+04 -1.19094E+03
 -1.05900E+04 -1.21486E+04 -2.52588E+03 -1.32338E+04  6.29962E+03 -1.11539E+04  7.53289E+03 -3.14593E+03
  6.20809E+03  2.48837E+03 -8.12629E+02  2.03289E+03 -6.78483E+01 -3.45222E+03  2.41437E+03 -7.97138E+03
  1.22542E+04 -5.81920E+03  1.77660E+04  2.25074E+03  1.54679E+04  1.27082E+04  1.15013E+04  2.35866E+04
 -4.98269E+03  2.87642E+04 -2.09492E+04  1.87747E+04 -2.86406E+04  3.68761E+03 -2.22559E+04 -9.71835E+03
 -1.23540E+04 -1.79962E+04  1.26238E+02 -1.47155E+04  4.91106E+03 -8.64001E+03  4.85900E+03 -7.09074E+03
  5.23062E+03 -4.38200E+03  5.23147E+03 -4.95441E+03  5.34695E+03 -3.58850E+03  8.54765E+03 -2.01548E+03
  1.09954E+04  4.18302E+03  7.12328E+03  8.76189E+03 -1.82359E+03  1.31793E+04 -1.22268E+04  8.02175E+03
 -1.63300E+04 -2.29274E+03 -9.16318E+03 -1.15467E+04 -7.03814E+02 -1.92050E+04  1.00815E+04 -1.72026E+04
  1.96369E+04 -9.74995E+03  2.20153E+04  3.05815E+03  1.65280E+04  1.56473E+04  1.98681E+03  1.89984E+04
 -9.63130E+03  1.68698E+04 -1.27922E+04  5.88338E+03 -7.61920E+03 -1.77891E+03 -2.60044E+03 -3.11024E+03
 -2.17749E+03 -2.25690E+03 -3.85569E+03  2.92526E+03 -7.44195E+03  2.42869E+03 -9.43147E+03 -7.47509E+02
 -8.97226E+03 -1.10737E+04 -1.36892E+03 -1.52114E+04  1.03117E+04 -1.46311E+04  1.66325E+04 -5.76740E+03
  1.60449E+04  7.47637E+03  7.03934E+03  1.51347E+04 -2.05765E+03  1.76835E+04 -1.07050E+04  9.82525E+03
 -1.58213E+04  8.38668E+02 -1.15531E+04 -1.15383E+04 -2.79220E+03 -1.51469E+04  6.47599E+03 -9.00854E+03
  1.06717E+04 -4.76658E+03  7.19103E+03  2.11953E+03  2.41714E+03  5.14064E+03  2.27981E+03  2.43918E+03
  3.39217E+03  1.62459E+03  5.27301E+03  1.95972E+03  4.91315E+03  4.63037E+03  4.11522E+03  1.03055E+04
 -2.52601E+03  1.37056E+04 -1.09859E+04  1.25457E+04 -1.70816E+04  4.11544E+03 -1.78942E+04 -7.01865E+03
 -9.55301E+03 -1.69166E+04  4.43805E+03 -1.76129E+04  8.01824E+03 -1.07534E+04  1.46921E+04 -2.35033E+03
  1.11019E+04  6.95022E+03  3.05914E+03  1.05047E+04 -4.17285E+03  6.27627E+03 -6.51554E+03 -9.31822E+02
 -3.37835E+03 -7.20108E+03  3.13400E+03 -7.04376E+03  6.48016E+03 -2.89122E+03  6.75296E+03  2.15769E+03
  3.84454E+03  3.29860E+03  7.78958E+02  3.84260E+03 -6.74227E+02  2.59959E+03  1.10111E+03  5.44215E+02
  2.98133E+03 -3.17035E+02  7.34018E+03  1.67472E+03  2.93182E+03  9.15062E+03 -1.76869E+03  1.33275E+04
 -8.91681E+03  8.10899E+03 -1.05030E+04  4.18580E+03 -1.01698E+04 -4.10886E+03 -4.70330E+03 -6.09061E+03
  1.91050E+03 -6.58944E+03  3.49173E+03 -4.83194E+03  1.60523E+03  4.35334E+03 -2.70419E+03  7.40106E+03
 -7.30144E+03  3.09935E+03 -9.12885E+03 -3.85438E+03 -5.67966E+03 -1.03916E+04  1.17210E+03 -1.06370E+04
  6.46675E+03 -6.69062E+03  4.39080E+03 -4.29374E+02  4.60320E+03  2.67201E+03  1.11249E+03  5.15095E+03
 -3.78805E+03  3.37730E+02 -4.68746E+03 -1.48224E+03  2.06770E+03 -7.82487E+03  7.20668E+03 -5.56896E+03
  1.08812E+04  6.95136E+02  1.03078E+04  7.15984E+03  3.77597E+03  1.21541E+04 -5.20244E+03  1.07987E+04
 -9.49347E+03  5.31519E+03 -1.04625E+04 -1.04152E+03 -3.96705E+03 -7.51501E+03  7.61681E+02 -7.77069E+03
  7.54405E+03 -3.11199E+03  6.88566E+03  3.63641E+03  2.08316E+03  8.04737E+03 -7.41662E+02  5.19097E+03
 -3.10086E+03  2.62190E+03 -1.98010E+03  3.33621E+02 -1.01507E+03  1.89570E+03 -1.17852E+03  3.44565E+03
 -4.16518E+03  5.48461E+03 -9.47728E+03  1.86279E+03 -1.31939E+04  1.15828E+03 -1.37896E+04 -6.95803E+03
 -5.66150E+03 -1.52253E+04  4.16944E+03 -1.63417E+04  1.25659E+04 -1.51956E+04  1.70317E+04 -5.94541E+03
  1.53806E+04  3.47129E+03  1.10689E+04  1.13880E+04  7.65250E+02  1.20347E+04 -5.54104E+03  9.13702E+03
 -6.71001E+03  2.80374E+03 -5.51550E+03 -2.43082E+03 -3.19434E+03 -1.46805E+03 -9.64432E+02 -6.47031E+02
 -7.38369E+02 -5.32458E+02 -1.42068E+03 -9.41680E+02  2.70608E+02 -3.02876E+03 -3.96490E+02 -4.16420E+03
  5.26993E+03 -4.66250E+03  8.50073E+03 -5.42299E+02  9.41443E+03  6.70007E+03  2.23233E+03  1.22251E+04
 -7.15224E+03  1.30564E+04 -1.39369E+04  8.29945E+03 -1.53737E+04 -2.89513E+03 -1.03656E+04 -8.37575E+03
 -3.05016E+03 -1.28619E+04  2.65441E+03 -1.11613E+04  8.63321E+03 -6.34618E+03  7.46300E+03  9.87141E+02
  2.56787E+03  3.52353E+03 -5.34752E+02  4.37758E+03 -3.78633E+03 -5.91323E+02  2.37170E+02 -2.55296E+03
  4.48172E+03 -1.56085E+03  4.20735E+03  2.09195E+03  3.17729E+03  7.15719E+03 -1.99469E+02  7.19080E+03
 -5.61210E+03  5.83534E+03 -9.40216E+03  1.25004E+03 -8.80585E+03 -9.00665E+03 -1.88847E+03 -1.16507E+04
  6.10848E+03 -9.62600E+03  1.08781E+04 -3.64427E+03  9.62317E+03  3.32786E+02  2.99341E+03  7.33684E+03
  1.56204E+03  8.80775E+03 -4.09377E+03  6.76567E+03 -5.90209E+03  2.96801E+03 -4.51441E+03 -5.86318E+02
 -2.64844E+03  4.38514E+02 -1.73424E+03  2.92539E+03 -4.94096E+03  1.28779E+02 -6.38347E+03 -1.09960E+03
 -4.76674E+03 -5.53922E+03 -2.02529E+03 -8.01434E+03  1.99836E+03 -7.61752E+03  6.71734E+03 -7.00753E+03
  7.29897E+03 -1.35227E+03  5.78460E+03  4.82122E+03  5.29459E+02  7.35563E+03 -6.63864E+03  5.30600E+03
