 $NMID ID='MM_0lb_SNR200_20hz_g50_6.RAW', FMTDAT='(8E13.5)'
 TRAMP=1., VOLUME=1. $END
  3.09590E+05  4.18200E+01  3.37200E+05  2.49810E+05  8.33334E+04  3.37886E+05 -1.32246E+05  2.49624E+05
 -1.88644E+05  8.18580E+04 -1.11232E+05 -3.42200E+04  1.24762E+03 -5.12564E+04  5.31252E+04  4.58984E+02
  3.50559E+04  5.24829E+04 -1.82021E+04  7.53576E+04 -5.99895E+04  6.29831E+04 -8.33805E+04  3.17108E+04
 -7.96141E+04 -1.11050E+04 -5.58357E+04 -5.01722E+04 -1.56187E+04 -6.87471E+04  2.59877E+04 -4.46411E+04
  3.88120E+04  4.72931E+03  1.66592E+04  4.73223E+04 -3.40934E+04  4.63217E+04 -6.59089E+04 -4.75402E+01
 -5.19935E+04 -5.48656E+04 -6.77427E+03 -7.46184E+04  3.28072E+04 -5.29441E+04  4.61756E+04 -1.60160E+04
  4.16559E+04  1.18708E+04  3.11122E+04  2.30967E+04  1.55318E+04  2.84587E+04 -3.82713E+03  2.60419E+04
 -2.18368E+04  1.25205E+04 -1.96392E+04 -4.51406E+03  3.99786E+03 -7.62570E+03  2.14126E+04  1.07185E+04
  8.11273E+03  3.25961E+04 -2.96636E+04  3.42903E+04 -6.14136E+04  2.73686E+03 -5.50969E+04 -4.16813E+04
 -1.14585E+04 -5.91388E+04  3.75346E+04 -4.32626E+04  5.49882E+04 -7.12953E+02  3.19036E+04  3.05546E+04
 -7.72062E+03  3.24138E+04 -2.75978E+04  1.22756E+04 -2.80405E+04 -6.94132E+03 -1.40063E+04 -9.53417E+03
 -6.89952E+03 -1.13077E+04 -1.22840E+03 -1.73911E+04  6.48800E+03 -2.31840E+04  1.44302E+04 -1.38719E+04
  1.14024E+04  3.78196E+03 -5.67381E+03  1.26059E+04 -1.82727E+04 -1.71495E+03 -9.11026E+03 -3.05848E+04
  2.09001E+04 -3.98799E+04  4.43202E+04 -1.81795E+04  4.14710E+04  1.77249E+04  1.37439E+04  4.14061E+04
 -1.45295E+04  3.05432E+04 -2.33990E+04  1.64823E+02 -7.51298E+03 -2.70527E+04  2.07284E+04 -3.10069E+04
  3.78151E+04 -7.11486E+03  3.04144E+04  2.35531E+04  1.59159E+04  4.27185E+04 -7.49109E+03  4.42465E+04
 -2.77093E+04  2.91454E+04 -3.67718E+04  7.85375E+03 -3.89043E+04 -1.46030E+04 -2.14227E+04 -3.39851E+04
  6.63395E+03 -3.31426E+04  2.86164E+04 -1.14891E+04  2.62349E+04  1.04682E+04  3.09211E+03  1.76040E+04
 -1.24766E+04  7.73020E+03 -7.98986E+03 -8.42384E+03  4.97920E+03 -9.92189E+03  1.70400E+04  5.06306E+03
  1.20591E+04  2.24818E+04 -6.76148E+03  2.31710E+04 -2.09381E+04  7.88793E+03 -2.38757E+04 -6.32902E+03
 -1.46134E+04 -1.57618E+04 -4.45466E+03 -1.54548E+04  4.96491E+03 -1.34181E+04  1.24313E+04 -1.33448E+04
  1.99152E+04 -1.16853E+04  2.68639E+04  9.89698E+01  1.93309E+04  1.53804E+04  3.34121E+03  3.14281E+04
 -1.55415E+04  2.75613E+04 -2.55395E+04  9.41953E+03 -1.89431E+04 -1.08774E+04 -4.03749E+03 -1.31462E+04
  2.74978E+03 -4.68726E+03 -2.40709E+03  5.41484E+03 -1.26285E+04  6.24849E+03 -1.20397E+04 -3.96617E+03
 -8.47625E+03 -1.51560E+04  4.05336E+03 -1.87742E+04  1.15911E+04 -1.40629E+04  1.31884E+04 -1.38903E+03
  8.81440E+03  1.01410E+04 -5.58926E+02  1.50639E+04 -9.76854E+03  7.55278E+03 -1.50253E+04 -3.09203E+03
 -1.11581E+04 -1.30352E+04 -1.43703E+03 -1.74215E+04  8.93115E+03 -1.54410E+04  1.57638E+04 -6.40930E+03
  1.37398E+04  3.45235E+02  1.12973E+04  4.23824E+03  5.32251E+03  1.59273E+03  7.85796E+03 -1.12769E+03
  1.24297E+04  3.11409E+03  1.31952E+04  1.23397E+04  8.36326E+03  2.28188E+04 -4.02929E+03  2.49319E+04
 -1.56806E+04  1.94405E+04 -2.27918E+04  8.65347E+03 -2.40333E+04 -4.01155E+02 -1.93537E+04 -1.32403E+04
 -9.31687E+03 -1.93356E+04  6.34603E+03 -1.86591E+04  1.55751E+04 -9.92114E+03  1.41750E+04  3.42597E+03
  5.55571E+03  1.01887E+04 -6.45726E+03  9.46656E+03 -1.26909E+04  2.10191E+03 -1.04266E+04 -6.68139E+03
  2.31373E+02 -1.15625E+04  5.37717E+03 -8.20454E+03  6.36282E+03 -1.65574E+03  1.27409E+03  4.63143E+03
 -5.13645E+03  1.21348E+02 -3.08026E+03 -4.18538E+03 -6.74509E+01 -1.00573E+04  7.23992E+03 -8.89620E+03
  1.09589E+04 -4.69908E+03  1.08934E+04  3.17086E+03  8.69228E+03  9.95956E+03  4.40865E+03  1.33983E+04
 -1.79203E+03  1.43930E+04 -8.62742E+03  9.64135E+03 -9.03302E+03  2.14560E+03 -7.77947E+03 -1.61485E+03
 -4.71194E+03 -2.04660E+03 -4.83081E+02  7.92312E+02 -1.74824E+03  2.86358E+03 -3.05898E+03  3.19753E+03
 -7.06436E+03  5.72433E+02 -8.59163E+03 -5.42532E+03 -2.70771E+03 -1.07191E+04  3.58791E+03 -7.52471E+03
  6.93143E+03 -4.04587E+03  4.49165E+03  1.74531E+03  1.80685E+03  2.24893E+03 -2.93466E+03  5.59307E+02
 -2.64204E+03 -4.27907E+03 -6.40783E+02 -7.07800E+03  4.37088E+03 -6.30439E+03  9.60219E+03 -3.25501E+03
  1.02702E+04  5.77050E+02  8.24402E+03  5.52689E+03  2.79213E+03  7.78569E+03 -3.96567E+03  7.78747E+03
 -6.47199E+03  2.42867E+03 -3.19553E+03 -3.91764E+02  1.41978E+03 -1.71538E+03  5.43626E+03 -1.17025E+03
  3.72393E+03  3.48327E+03 -6.69206E+01  6.60726E+03 -4.58822E+03  5.96899E+03 -7.03137E+03  1.72732E+03
 -5.11457E+03 -2.19790E+03 -9.66682E+01 -6.87230E+03  2.99176E+03 -3.59612E+03  3.00915E+03  1.72448E+03
  3.66311E+02  3.36885E+03 -4.66680E+03  4.64753E+03 -4.61013E+03  1.61888E+03 -4.47043E+03 -9.97240E+02
 -2.80039E+03 -5.25060E+03 -2.51260E+01 -5.80768E+03  4.64232E+03 -4.53753E+03  5.89426E+03  3.94524E+02
  3.22218E+03  4.12669E+03 -2.92434E+01  6.15704E+03 -4.57502E+03  3.76653E+03 -4.69354E+03 -1.01474E+03
 -5.37825E+03 -4.83248E+03 -2.80918E+03 -3.96697E+03  2.75799E+03 -3.82786E+03  1.25764E+03 -2.69882E+03
  2.37635E+03  4.29598E+01  5.20086E+02  9.59791E+02  1.23953E+03 -1.83707E+02  1.58288E+02 -1.41833E+03
  4.47052E+03 -3.71128E+02  4.03582E+03  6.60357E+02  5.16292E+03  2.29334E+03  4.61473E+03  6.69459E+03
 -1.50283E+03  6.54326E+03 -7.08019E+03  5.77611E+03 -7.72265E+03  9.38513E+02 -6.55153E+03 -2.36953E+03
 -3.39718E+03 -6.24498E+03 -7.38348E+02 -4.69656E+03  1.85217E+03 -1.17896E+03  1.49427E+03 -2.20101E+03
  1.44735E+03 -1.12878E+03  2.63237E+03 -1.92110E+03  3.66220E+03 -5.13942E+02  3.35375E+03  9.65324E+02
  3.57167E+03  6.98957E+02  8.49912E+02  4.42524E+03 -2.00864E+03  2.43787E+03 -3.71395E+03  1.71115E+03
 -3.87282E+03 -6.07377E+02 -6.05395E+02 -2.20799E+03  2.17553E+02 -4.20749E+03  2.33220E+03 -4.95020E+03
  4.52768E+03 -3.54119E+03  4.33027E+03 -1.15666E+02  3.49769E+03  2.40061E+03  8.71937E+02  5.07276E+03
 -1.77466E+03  6.23735E+03 -2.59455E+03  1.48557E+03 -1.60946E+03 -1.11988E+03 -3.83316E+02 -6.17906E+02
  3.30585E+02  2.05558E+03 -1.26617E+03  1.73521E+03 -2.34830E+03  4.74283E+02 -4.24633E+03  1.73416E+02
 -1.20731E+03 -3.25498E+03  4.48845E+02 -3.69340E+03  2.22559E+03 -4.61279E+03  2.63736E+03 -3.82028E+02
  3.49516E+03  1.91557E+03  2.10412E+03  1.49430E+03  2.88485E+02  3.35241E+03 -1.99299E+03  2.28880E+03
 -3.32145E+03  1.03482E+03 -3.61005E+03 -1.50707E+03 -1.39180E+02 -1.75239E+03  1.35800E+03 -2.03460E+03
  1.41227E+03 -8.61360E+02  1.77149E+03 -2.67634E+02  2.51365E+02  2.62197E+03  2.90561E+02 -3.28942E+02
  1.59640E+03  1.46454E+03  1.39154E+02  8.08375E+02  1.64355E+03  1.92354E+03  1.08098E+03  9.77525E+02
 -9.06215E+02  2.49599E+03 -2.36195E+03  3.58654E+03 -1.36809E+03  1.08501E+03 -3.28129E+03 -2.49273E+02
 -2.06624E+03 -2.36727E+03  4.06554E+02 -4.62852E+03  1.32783E+03 -1.88310E+03  3.02614E+03 -9.69653E+02
  2.56590E+03  2.62104E+03 -3.30799E+02  1.50541E+03 -5.42184E+02  6.70725E+02 -1.68412E+03 -6.83788E+02
 -7.06260E+02 -1.54295E+03  1.54736E+03 -1.62201E+03  7.67677E+02 -8.08143E+02  1.77033E+03  1.34791E+03
  1.18163E+03  7.12416E+02  1.33368E+03 -7.04444E+01 -1.25556E+02 -4.23487E+02  1.85718E+03  7.44093E+01
 -7.12861E+01 -9.13562E+02  9.09846E+02  4.08301E+02  8.58229E+02  2.01632E+03  5.40913E+02  3.24350E+03
 -6.18387E+02  7.46502E+02 -7.55851E+02  1.09661E+03 -2.42902E+03 -1.12403E+03 -6.43994E+02  1.13948E+01
  2.45915E+02 -4.91626E+02  7.87309E+02 -1.03522E+03  1.25810E+03  7.51321E+02 -6.32243E+02  4.85160E+02
 -1.34106E+03  3.02609E+02 -1.43076E+03 -3.74477E+02 -5.45549E+02 -2.41392E+03 -8.17786E+02 -1.06864E+03
  4.35206E+02  5.07654E+02  2.40934E+02  1.56676E+02  1.20744E+03  2.41939E+02  1.01468E+03  8.47906E+01
  1.54747E+01  1.37733E+02  4.78162E+01  4.35059E+02 -9.58798E+01 -4.72527E+01  5.87616E+02 -5.71796E+02
  1.37511E+03  7.31456E+02  2.54110E+03  6.10449E+02  1.33321E+03  1.92821E+03  6.14772E+02  1.27371E+03
 -1.13561E+03 -3.70596E+01 -1.47119E+03  1.96378E+02 -5.78171E+02 -1.21570E+03  1.97230E+02  2.17339E+02
  5.93977E+02 -1.88709E+02  1.89960E+02 -3.60544E+02 -7.79746E+02  7.52524E+02  6.06265E+02  9.01674E+02
  2.96417E+02  1.56224E+03 -5.25742E+01  3.75600E+02 -2.33002E+02  7.94969E+02  4.14190E+02  7.88376E+01
 -6.60908E+02  4.84743E+02 -1.98604E+03 -5.92396E+02 -1.71143E+03  1.53790E+02 -2.25207E+03 -9.46634E+02
 -7.66521E+02 -2.58422E+03  7.61063E+02 -2.68169E+03  1.21780E+03 -2.37989E+03  2.28461E+03 -1.06346E+03
  1.38922E+03 -2.92171E+02  8.64515E+02  6.36739E+02 -5.62319E+02  7.64540E+02  6.64782E+01  6.33870E+02
 -8.11238E+02  4.61261E+02 -7.35328E+02 -6.75624E+02 -6.47789E+02  1.10381E+03  7.30209E+02 -1.87021E+02
 -3.08888E+02 -3.08926E+02  1.83224E+02  1.55322E+03 -1.18796E+02 -5.11089E+02  2.20945E+02 -6.62459E+02
  9.90733E+02 -8.91333E+01  5.14264E+02  1.33573E+02  2.87419E+02 -5.96485E+01 -6.54422E+02  1.13091E+03
 -3.15404E+01  1.80890E+03 -1.30836E+03  8.91773E+02 -1.88187E+03  5.36859E+02 -4.23336E+02 -3.95968E+02
 -7.62012E+02 -5.31152E+02 -6.25526E+02 -5.29303E+02  1.16071E+03 -6.94047E+02 -6.43661E+02  1.50347E+02
 -6.26124E+02  3.75190E+02  1.17282E+03  1.41883E+02  9.46526E+02 -1.04527E+02  4.41320E+02 -1.67351E+02
  5.26973E+02 -2.89865E+02  5.57462E+02  1.25116E+03  2.40156E+01 -2.70727E+02  4.88456E+01  7.36406E+02
  1.37699E+02  8.44180E+02 -3.62699E+02  9.09803E+02 -3.53388E+02 -6.33805E+02 -2.53446E+02 -9.89005E+02
  3.36440E+02 -7.65994E+02  2.19934E+02 -9.12562E+02  2.09401E+01  6.67645E+01  5.03683E+02 -6.70491E+02
  5.60208E+02  2.68090E+02 -4.38178E+02  1.04465E+03 -7.43068E+01  2.07029E+02 -4.69609E+02 -4.04387E+01
 -1.09911E+02  1.48768E+02  2.65090E+02 -3.53672E+01 -3.64101E+02 -1.01238E+03 -1.83842E+02 -6.63360E+02
 -1.44614E+03  1.88583E+02 -7.03199E+01 -5.03115E+02  9.50940E+02 -7.13530E+02  5.42703E+02  6.85869E+01
 -2.15362E+02 -2.01586E+02 -4.06252E+02  4.83613E+02  3.93136E+02  1.06524E+03  4.51646E+02  1.11746E+02
