 $NMID ID='MM_0lb_SNR200_11hz_g55_81.RAW', FMTDAT='(8E13.5)'
 TRAMP=1., VOLUME=1. $END
  3.08603E+05  4.45968E+01  3.38683E+05  2.51848E+05  8.58633E+04  3.37286E+05 -1.33303E+05  2.52188E+05
 -1.91443E+05  8.36025E+04 -1.11837E+05 -3.25942E+04  3.25976E+02 -5.13058E+04  5.36997E+04 -6.90982E+01
  3.59302E+04  5.43246E+04 -1.61158E+04  7.56187E+04 -6.21588E+04  6.36080E+04 -8.53042E+04  3.29294E+04
 -8.25139E+04 -1.19347E+04 -5.82622E+04 -5.13624E+04 -1.54406E+04 -7.14177E+04  2.77996E+04 -4.73469E+04
  4.16589E+04  3.65182E+03  1.74013E+04  4.98241E+04 -3.48653E+04  4.81708E+04 -6.85978E+04 -3.22943E+02
 -5.36590E+04 -5.81766E+04 -8.67961E+03 -7.81049E+04  3.51005E+04 -5.62142E+04  4.78083E+04 -1.88843E+04
  4.41610E+04  1.33145E+04  3.14706E+04  2.68863E+04  1.51037E+04  3.08430E+04 -4.38955E+03  2.66807E+04
 -2.24599E+04  1.14511E+04 -1.84398E+04 -6.39225E+03  5.87359E+03 -5.92441E+03  2.21423E+04  1.45024E+04
  7.16869E+03  3.77446E+04 -3.50114E+04  3.78855E+04 -6.45968E+04  2.15670E+03 -5.85320E+04 -4.50634E+04
 -1.24816E+04 -6.69172E+04  4.05439E+04 -4.70094E+04  5.97216E+04 -2.86425E+03  3.70269E+04  3.37409E+04
 -6.00419E+03  3.91504E+04 -2.96452E+04  1.89057E+04 -3.42542E+04 -5.00750E+03 -1.98749E+04 -1.12424E+04
 -8.16198E+03 -1.59638E+04 -3.79175E+02 -1.99355E+04  7.99995E+03 -2.49397E+04  1.69640E+04 -1.19017E+04
  1.13010E+04  3.94915E+03 -9.90170E+03  1.29415E+04 -2.36335E+04 -5.08347E+03 -8.41338E+03 -3.70874E+04
  2.49647E+04 -4.60080E+04  5.11708E+04 -1.90168E+04  4.76348E+04  2.12976E+04  1.76226E+04  4.55183E+04
 -1.53281E+04  3.50839E+04 -2.73481E+04  1.44441E+03 -1.05065E+04 -2.69580E+04  2.05567E+04 -3.59993E+04
  4.47802E+04 -1.10169E+04  3.85424E+04  2.47865E+04  2.00334E+04  4.95976E+04 -8.27936E+03  5.46211E+04
 -3.46717E+04  3.61180E+04 -4.47783E+04  1.21326E+04 -4.48813E+04 -1.89685E+04 -2.43477E+04 -4.05239E+04
  7.67565E+03 -3.96232E+04  3.37670E+04 -1.53516E+04  3.27709E+04  1.11943E+04  5.12634E+03  2.07878E+04
 -1.30175E+04  9.11130E+03 -1.11830E+04 -7.59945E+03  6.15997E+03 -1.08344E+04  1.87253E+04  7.27061E+03
  1.46421E+04  2.31762E+04 -5.47350E+03  2.69801E+04 -2.35573E+04  1.37528E+04 -3.04572E+04 -4.35984E+03
 -2.27588E+04 -1.65549E+04 -1.03321E+04 -2.51285E+04  4.75653E+03 -2.46837E+04  1.86542E+04 -2.13543E+04
  3.15974E+04 -1.30525E+04  3.52759E+04  3.81610E+03  2.49554E+04  2.31631E+04  4.94471E+03  4.04653E+04
 -1.97135E+04  3.35322E+04 -3.03331E+04  1.15187E+04 -2.14567E+04 -1.12837E+04 -4.96823E+03 -1.29004E+04
  2.17942E+03 -1.00205E+03 -7.24844E+03  8.94248E+03 -1.98868E+04  4.33858E+03 -1.99778E+04 -7.89942E+03
 -1.15245E+04 -2.22897E+04  5.39841E+03 -2.64428E+04  1.63625E+04 -1.97798E+04  2.08157E+04 -1.01987E+03
  1.37925E+04  1.52924E+04 -9.27786E+02  2.21410E+04 -1.40989E+04  1.29328E+04 -2.22151E+04 -4.78706E+03
 -1.48809E+04 -1.98374E+04 -1.77334E+03 -2.73705E+04  1.23363E+04 -2.08746E+04  2.13916E+04 -1.21378E+04
  1.95437E+04 -2.40981E+02  1.51078E+04  4.20013E+03  8.72891E+03  1.60966E+03  1.25790E+04 -2.11057E+03
  2.06418E+04  2.57849E+03  2.12687E+04  1.74759E+04  1.55572E+04  3.53979E+04 -3.15837E+03  4.19098E+04
 -2.23795E+04  3.48410E+04 -3.96722E+04  1.82624E+04 -4.33843E+04 -4.84715E+03 -3.34270E+04 -2.49756E+04
 -1.41997E+04 -3.46667E+04  1.13506E+04 -2.89894E+04  2.51910E+04 -1.37684E+04  2.21554E+04  5.06523E+03
  1.00170E+04  1.75373E+04 -1.20713E+04  1.44576E+04 -1.84837E+04  2.89275E+03 -1.47863E+04 -1.36170E+04
  8.15496E+02 -1.96536E+04  9.18102E+03 -1.30181E+04  1.18050E+04 -2.68401E+02  3.32279E+03  7.81675E+03
 -7.62893E+03  3.21910E+03 -8.71284E+03 -7.24393E+03 -3.28512E+03 -1.59480E+04  1.01159E+04 -1.92130E+04
  2.06632E+04 -9.17230E+03  2.26920E+04  2.93900E+03  1.87142E+04  1.76807E+04  8.41294E+03  2.58445E+04
 -4.37229E+03  2.83927E+04 -1.88210E+04  1.79304E+04 -1.97461E+04  3.96007E+03 -1.39119E+04 -5.72373E+03
 -6.07816E+03 -6.64447E+03 -8.57683E+02 -2.33120E+02 -2.27163E+03  3.88058E+03 -7.35789E+03  5.35760E+03
 -1.24795E+04 -1.73668E+03 -1.29435E+04 -1.17090E+04 -5.29440E+03 -1.66335E+04  5.37216E+03 -1.39630E+04
  1.26426E+04 -4.58148E+03  8.10953E+03  4.09219E+03 -2.82542E+02  6.12721E+03 -7.72978E+03 -4.06127E+02
 -6.69699E+03 -7.29370E+03 -9.01649E+02 -1.39135E+04  8.49992E+03 -1.35890E+04  1.80748E+04 -8.03091E+03
  2.11790E+04  1.50481E+03  1.63932E+04  1.25834E+04  2.26584E+03  1.70185E+04 -9.16662E+03  1.35677E+04
 -1.15967E+04  5.15118E+03 -6.11899E+03 -1.54830E+03  1.92749E+03 -3.93622E+03  7.95685E+03 -8.42405E+02
  5.32015E+03  6.26936E+03  1.61945E+03  1.11271E+04 -9.77113E+03  1.00005E+04 -1.55036E+04  1.35301E+03
 -8.65328E+03 -7.26412E+03  7.66533E+01 -1.10784E+04  6.91325E+03 -7.80438E+03  7.83365E+03  3.21242E+03
  3.52905E+03  8.00687E+03 -6.45652E+03  1.05583E+04 -1.43661E+04  5.17568E+03 -1.19623E+04 -3.47608E+03
 -6.27244E+03 -1.27468E+04  3.77985E+03 -1.50543E+04  1.28833E+04 -9.75002E+03  1.48543E+04  4.01937E+03
  8.63939E+03  1.09330E+04 -1.87723E+03  1.29391E+04 -9.99708E+03  8.49984E+03 -1.31134E+04 -1.64582E+03
 -9.14218E+03 -9.20900E+03 -6.95111E+02 -9.17562E+03  5.35158E+03 -7.98406E+03  7.07350E+03 -2.11465E+03
  3.48284E+03  6.93423E+02 -2.29631E+02  1.94206E+03 -1.45664E+03 -3.95366E+03  2.73127E+03 -6.01848E+03
  8.90440E+03 -4.91898E+03  1.36908E+04  1.67072E+03  1.31253E+04  1.03800E+04  9.11168E+03  1.84206E+04
 -4.92755E+03  2.05410E+04 -1.72942E+04  1.48604E+04 -2.33355E+04  2.85035E+03 -1.84534E+04 -8.10465E+03
 -8.20896E+03 -1.49157E+04 -7.94999E+02 -1.19662E+04  5.18296E+03 -6.16149E+03  4.30732E+03 -4.04648E+03
  4.02584E+03 -3.92997E+03  4.83987E+03 -2.89706E+03  6.82753E+03 -3.95524E+03  6.91934E+03 -1.11854E+03
  9.14191E+03  2.96933E+03  4.90538E+03  7.41978E+03 -2.07587E+03  9.08657E+03 -9.50084E+03  7.07385E+03
 -1.11324E+04 -1.42012E+03 -7.31309E+03 -8.97012E+03 -4.80902E+02 -1.24741E+04  7.57608E+03 -1.28598E+04
  1.53545E+04 -7.48888E+03  1.70089E+04  1.90741E+03  1.14863E+04  1.16683E+04  1.34189E+03  1.39800E+04
 -7.35562E+03  1.07450E+04 -7.46282E+03  4.31978E+03 -6.19193E+03 -1.25620E+03 -3.25148E+03 -1.25206E+03
 -1.02750E+03 -1.72092E+02 -5.84589E+02  3.22883E+03 -7.15855E+03  1.71798E+03 -9.66988E+03 -1.31124E+03
 -4.97917E+03 -1.00689E+04 -1.29038E+03 -1.22626E+04  6.31251E+03 -1.18090E+04  1.08634E+04 -2.87376E+03
  1.26131E+04  5.80892E+03  5.96122E+03  1.14976E+04 -2.45737E+03  1.26854E+04 -7.58546E+03  6.55163E+03
 -1.18959E+04  1.03063E+03 -8.11113E+03 -5.90847E+03 -1.30606E+03 -1.02861E+04  5.21679E+03 -5.89691E+03
  7.40938E+03 -2.13001E+03  5.60846E+03  6.73852E+02  1.07115E+03  4.04953E+03  8.65445E+02  8.28302E+02
  1.33712E+03  1.02865E+03  4.72377E+03  2.54875E+03  3.56184E+03  5.69536E+03  3.67499E+03  4.39204E+03
 -3.03159E+03  1.00110E+04 -7.96312E+03  9.86599E+03 -1.17495E+04  3.73636E+03 -1.17609E+04 -6.72142E+03
 -6.27500E+03 -1.21251E+04  1.03966E+03 -1.12381E+04  8.18812E+03 -7.42979E+03  1.14135E+04 -3.26233E+03
  8.06914E+03  4.88170E+03  2.81714E+03  6.07951E+03 -3.54733E+03  4.67650E+03 -4.02947E+03 -1.59275E+02
 -2.77044E+03 -4.99411E+03  2.57417E+03 -6.59043E+03  5.00767E+03 -4.02591E+03  4.94537E+03  2.12721E+03
  1.84658E+03  2.57002E+03  1.15194E+03  9.94568E+02 -6.81883E+02  1.93179E+03  1.44379E+03 -7.19438E+02
  2.38379E+03  2.72273E+02  5.30232E+03  2.01431E+03  1.77051E+03  7.32584E+03 -1.45261E+03  9.03613E+03
 -6.43217E+03  5.82362E+03 -7.49593E+03  2.19320E+03 -6.79018E+03 -2.77095E+03 -2.42451E+03 -5.04054E+03
  7.19811E+02 -4.29159E+03  1.67986E+03 -2.09911E+03  2.12881E+03  2.60678E+03 -5.61732E+02  3.06586E+03
 -4.74066E+03  2.76032E+03 -5.92684E+03 -3.72789E+03 -3.39998E+03 -7.12496E+03  4.22617E+02 -6.19523E+03
  3.77694E+03 -5.32534E+03  3.44841E+03 -1.19350E+03  3.76816E+03  1.55967E+03  8.76725E+02  3.46010E+03
 -7.31573E+02 -2.10151E+01 -1.41482E+03  3.45289E+01  6.59974E+02 -5.46893E+03  6.70559E+03 -3.89351E+03
  7.18965E+03  5.98628E+02  5.74225E+03  4.83519E+03  7.14220E+02  7.26084E+03 -3.12854E+03  6.79574E+03
 -4.57472E+03  2.78362E+03 -6.62429E+03 -4.40180E+02 -3.22313E+03 -5.40705E+03  6.91825E+02 -4.96769E+03
  4.27746E+03 -1.42012E+03  4.96081E+03  1.77685E+03 -1.32498E+03  3.80333E+03 -3.91870E+02  3.22292E+03
 -1.94538E+03  3.29193E+03 -4.19321E+02 -8.46840E+01 -7.16747E+02  1.20171E+03 -2.67117E+03  6.39625E+02
 -2.79029E+03  1.66139E+03 -6.21962E+03  1.66946E+03 -6.89123E+03 -8.13835E+02 -7.80700E+03 -5.13480E+03
 -3.67795E+03 -9.66900E+03  3.23896E+03 -1.10019E+04  6.59634E+03 -9.19675E+03  1.18942E+04 -2.91255E+03
  1.00915E+04  2.20189E+03  5.65303E+03  6.64607E+03  2.57068E+02  7.81666E+03 -3.00308E+03  5.78526E+03
 -4.41572E+03  2.26839E+03 -2.94682E+03 -1.86351E+03  1.22938E+03 -1.53831E+03  8.72630E+02  3.10416E+02
 -2.32474E+03  1.28950E+03 -2.29703E+03 -2.31385E+02 -1.20955E+03 -2.51662E+03  1.22832E+03 -3.42804E+03
  2.27514E+03 -1.98854E+03  3.49908E+03 -1.85269E+00  5.23103E+03  4.58965E+03  9.13811E+02  6.33978E+03
 -3.49742E+03  8.70856E+03 -6.82194E+03  5.56125E+03 -9.68041E+03 -1.57672E+03 -7.63954E+03 -5.18538E+03
 -2.91395E+03 -5.52015E+03  2.43894E+03 -5.84566E+03  3.70298E+03 -3.42637E+03  3.65992E+03 -7.42612E+02
  1.64576E+03  2.01345E+03 -8.84103E+02  2.34452E+03 -1.71133E+02  2.65637E+02 -2.25661E+02 -5.23103E+02
  2.24197E+03  4.66041E+02  2.98564E+03  2.66124E+02  3.11121E+03  1.65166E+03  1.73929E+02  3.10518E+03
 -2.46572E+03  2.91205E+03 -4.94258E+03 -5.59791E+02 -4.00697E+03 -3.38752E+03 -9.14281E+02 -7.09553E+03
  3.08990E+03 -5.69705E+03  5.54513E+03 -6.21664E+02  5.61794E+03 -7.29437E+02  3.34387E+03  4.61602E+03
  1.99816E+03  4.56187E+03 -8.00919E+02  3.74579E+03 -4.10610E+03  2.94232E+03 -2.59719E+03  5.45865E+02
 -1.32033E+03 -1.19075E+03 -1.22113E+03 -1.69538E+02 -2.63640E+03  1.18582E+03 -3.21280E+03  2.26815E+02
 -2.71918E+03 -2.70943E+03 -2.13699E+02 -4.47196E+03  1.20718E+03 -5.33548E+03  4.33288E+03 -1.49408E+03
  5.02004E+03  1.11655E+03  2.09058E+03  2.23890E+03  9.03432E+01  6.56515E+03 -3.81960E+03  3.95069E+03
