 $NMID ID='MM_0lb_SNR200_10hz_g55_26.RAW', FMTDAT='(8E13.5)'
 TRAMP=1., VOLUME=1. $END
  3.08994E+05 -3.12024E+02  3.38412E+05  2.50856E+05  8.53978E+04  3.38314E+05 -1.33258E+05  2.50309E+05
 -1.90208E+05  8.34588E+04 -1.12414E+05 -3.43048E+04  1.00717E+03 -5.19892E+04  5.18721E+04 -5.56821E+02
  3.57502E+04  5.24165E+04 -1.69754E+04  7.52646E+04 -5.97210E+04  6.39339E+04 -8.49656E+04  3.07290E+04
 -8.22310E+04 -1.24786E+04 -5.82596E+04 -5.06402E+04 -1.40134E+04 -7.07869E+04  2.80635E+04 -4.74625E+04
  4.14008E+04  2.75135E+03  1.84325E+04  4.78036E+04 -3.51608E+04  4.85598E+04 -6.75564E+04  6.71020E+02
 -5.51238E+04 -5.73744E+04 -6.76418E+03 -7.95924E+04  3.45816E+04 -5.52142E+04  4.90173E+04 -1.67355E+04
  4.51993E+04  1.13967E+04  3.22859E+04  2.63259E+04  1.81303E+04  3.00940E+04 -4.92971E+03  2.89615E+04
 -2.15106E+04  1.25411E+04 -1.75292E+04 -6.63646E+03  7.87628E+03 -7.28888E+03  2.23217E+04  1.25381E+04
  5.64255E+03  3.69854E+04 -3.59989E+04  3.58460E+04 -6.49109E+04  2.38187E+03 -5.85553E+04 -4.55383E+04
 -1.29371E+04 -6.59554E+04  4.18851E+04 -4.67738E+04  6.15206E+04 -2.40739E+03  3.63998E+04  3.22787E+04
 -5.71135E+03  3.97936E+04 -3.27266E+04  1.89415E+04 -3.47171E+04 -3.63928E+03 -1.93835E+04 -1.07333E+04
 -1.02849E+04 -1.41926E+04 -6.00634E+02 -2.06652E+04  7.46020E+03 -2.33983E+04  1.55837E+04 -1.28126E+04
  1.01544E+04  6.01002E+03 -1.03192E+04  1.29586E+04 -2.31472E+04 -6.90059E+03 -9.09335E+03 -3.67847E+04
  2.49714E+04 -4.74630E+04  5.18367E+04 -2.08221E+04  4.75905E+04  1.99986E+04  1.80589E+04  4.69960E+04
 -1.56029E+04  3.62767E+04 -2.74871E+04  2.70418E+03 -1.20338E+04 -2.82031E+04  2.15045E+04 -3.71629E+04
  4.38266E+04 -1.13439E+04  4.02408E+04  2.48051E+04  2.10053E+04  4.95962E+04 -8.89530E+03  5.68434E+04
 -3.26285E+04  3.66913E+04 -4.68877E+04  1.10506E+04 -4.66426E+04 -1.93364E+04 -2.70809E+04 -4.05985E+04
  7.67683E+03 -4.18666E+04  3.52414E+04 -1.94322E+04  3.28592E+04  9.72677E+03  4.29212E+03  1.93291E+04
 -1.45286E+04  8.50880E+03 -1.20772E+04 -6.85446E+03  6.67760E+03 -1.27291E+04  1.85051E+04  5.74042E+03
  1.42583E+04  2.28977E+04 -5.66983E+03  2.68510E+04 -2.38115E+04  1.42831E+04 -3.06559E+04 -2.64371E+03
 -2.72302E+04 -1.88193E+04 -1.06237E+04 -2.29030E+04  4.46174E+03 -2.50481E+04  1.76103E+04 -2.24550E+04
  3.09755E+04 -1.49313E+04  3.63853E+04  4.66671E+03  2.58430E+04  2.37911E+04  5.63991E+03  4.07897E+04
 -1.95316E+04  3.32296E+04 -3.21920E+04  1.19629E+04 -2.08402E+04 -1.15361E+04 -5.23670E+03 -1.27331E+04
  1.09969E+03  2.72036E+02 -6.95402E+03  8.53972E+03 -2.00951E+04  5.56589E+03 -1.88528E+04 -7.60958E+03
 -1.08493E+04 -2.33133E+04  5.76604E+03 -2.70306E+04  1.83224E+04 -1.99036E+04  2.18396E+04 -2.02443E+03
  1.45424E+04  1.67007E+04 -3.76323E+02  2.28469E+04 -1.67452E+04  1.30385E+04 -2.33761E+04 -4.74940E+03
 -1.61804E+04 -2.01819E+04 -1.62219E+03 -2.69184E+04  1.29490E+04 -2.14952E+04  2.27930E+04 -1.11879E+04
  2.18093E+04 -9.59081E+02  1.56036E+04  4.07316E+03  8.36812E+03  9.30294E+02  1.19168E+04 -9.68886E+02
  2.19863E+04  1.18576E+03  2.47865E+04  1.69485E+04  1.69906E+04  3.73758E+04 -2.65907E+03  4.30204E+04
 -2.53860E+04  3.55998E+04 -4.10798E+04  1.90901E+04 -4.36418E+04 -4.10872E+03 -3.73177E+04 -2.50737E+04
 -1.43318E+04 -3.58895E+04  1.04773E+04 -3.14931E+04  2.77511E+04 -1.42066E+04  2.29083E+04  8.15762E+03
  1.02651E+04  1.66613E+04 -1.16036E+04  1.68110E+04 -2.00059E+04  2.56966E+03 -1.32187E+04 -1.31338E+04
 -1.02776E+03 -2.00607E+04  1.24655E+04 -1.37600E+04  1.28694E+04 -4.71303E+02  3.99941E+03  8.30932E+03
 -9.22921E+03  3.68749E+03 -9.07081E+03 -8.65820E+03 -1.33146E+03 -1.78293E+04  1.20058E+04 -1.77157E+04
  2.20915E+04 -1.09219E+04  2.44241E+04  2.37747E+03  2.25516E+04  1.78273E+04  1.03422E+04  2.73372E+04
 -6.28712E+03  2.92901E+04 -1.94362E+04  1.96484E+04 -2.18961E+04  4.59788E+03 -1.39247E+04 -6.46765E+03
 -5.46791E+03 -9.88683E+03 -1.17578E+03  1.23746E+03 -2.23538E+03  3.40077E+03 -7.27047E+03  5.23666E+03
 -1.41622E+04 -6.58296E+02 -1.29459E+04 -1.13643E+04 -6.34514E+03 -1.91113E+04  6.01068E+03 -1.53453E+04
  1.26694E+04 -6.31287E+03  7.89022E+03  5.06847E+03 -6.36087E+02  6.33399E+03 -7.63701E+03 -8.39502E+02
 -6.86128E+03 -9.84570E+03 -1.21868E+03 -1.56967E+04  7.59458E+03 -1.58143E+04  1.95568E+04 -7.91945E+03
  2.16294E+04  4.11019E+03  1.61844E+04  1.28991E+04  2.63427E+03  1.79458E+04 -8.94212E+03  1.57315E+04
 -1.24811E+04  3.67824E+03 -4.76364E+03 -2.71201E+03  8.91329E+02 -2.90686E+03  9.24091E+03 -2.40250E+03
  7.90505E+03  8.27599E+03  8.90202E+02  1.23802E+04 -8.19125E+03  1.12831E+04 -1.44129E+04  2.30176E+03
 -9.91628E+03 -7.36690E+03  1.19764E+03 -1.34497E+04  9.52989E+03 -7.21977E+03  7.98465E+03  3.88922E+03
  1.70257E+03  9.59467E+03 -8.78151E+03  1.18856E+04 -1.43004E+04  5.06365E+03 -1.25914E+04 -5.07092E+03
 -5.38424E+03 -1.51951E+04  4.84285E+03 -1.71432E+04  1.44607E+04 -8.95189E+03  1.59396E+04  3.11851E+03
  8.86563E+03  1.25693E+04 -1.42386E+03  1.41244E+04 -1.14400E+04  7.72418E+03 -1.25888E+04 -1.88513E+03
 -1.12269E+04 -9.05811E+03 -2.14281E+03 -1.17856E+04  4.48214E+03 -9.79152E+03  6.28326E+03 -3.28197E+03
  5.42531E+03  3.53118E+03  2.27464E+02  2.02069E+03 -6.92450E+02 -4.45779E+03  1.94088E+03 -5.41126E+03
  1.12707E+04 -5.40612E+03  1.43121E+04  2.06436E+03  1.52093E+04  1.02619E+04  1.13099E+04  1.88038E+04
 -3.97660E+03  2.43304E+04 -1.86381E+04  1.67922E+04 -2.45181E+04  4.44566E+03 -1.97887E+04 -8.57677E+03
 -8.26343E+03 -1.41006E+04 -6.19665E+02 -1.35124E+04  5.33652E+03 -6.78476E+03  4.59843E+03 -4.05250E+03
  3.47083E+03 -3.15025E+03  4.22262E+03 -4.16287E+03  4.68947E+03 -3.91753E+03  5.57717E+03 -3.01538E+03
  1.08849E+04  1.53572E+03  5.94635E+03  1.02271E+04 -1.54744E+03  1.09124E+04 -1.03620E+04  6.86589E+03
 -1.24084E+04 -8.25995E+02 -9.75452E+03 -9.10808E+03 -9.27654E+02 -1.53731E+04  6.73696E+03 -1.42944E+04
  1.60888E+04 -7.27351E+03  1.76529E+04  1.73731E+03  1.22957E+04  1.33710E+04  1.76832E+03  1.73556E+04
 -7.31357E+03  1.47099E+04 -9.44910E+03  4.83098E+03 -5.11104E+03 -2.71376E+03 -4.46795E+03 -3.15297E+03
 -7.27474E+02  6.03243E+02 -3.92137E+03  3.20722E+03 -6.32229E+03  3.32869E+03 -8.43143E+03 -1.57084E+03
 -6.43273E+03 -8.95523E+03  7.91633E+02 -1.24337E+04  7.31594E+03 -1.06225E+04  1.31811E+04 -3.83575E+03
  1.33343E+04  6.02087E+03  5.79856E+03  1.31754E+04 -3.53463E+03  1.42115E+04 -1.12029E+04  8.03307E+03
 -1.41104E+04  9.49106E+02 -1.03432E+04 -7.44411E+03 -2.26889E+03 -1.12217E+04  5.42142E+03 -8.50797E+03
  9.11424E+03 -2.78988E+03  5.00880E+03  2.55960E+03  5.83113E+02  4.40455E+03  3.59712E+02  1.69587E+03
  1.54251E+03  4.50327E+02  4.00003E+03  1.79791E+03  5.58661E+03  4.98059E+03  3.57091E+03  7.72677E+03
 -1.68049E+03  1.10151E+04 -9.49893E+03  1.20308E+04 -1.38167E+04  1.95888E+03 -1.56095E+04 -6.72764E+03
 -7.34842E+03 -1.31787E+04  1.39933E+03 -1.44158E+04  7.52617E+03 -1.00817E+04  1.05620E+04 -2.99419E+03
  8.56704E+03  5.29452E+03  2.14845E+03  8.83728E+03 -3.33503E+03  6.00715E+03 -4.07019E+03 -6.20734E+02
 -2.72650E+03 -7.37020E+03  2.57187E+03 -5.95826E+03  6.60593E+03 -2.30270E+03  5.32943E+03  2.02619E+03
  2.56414E+03  2.60039E+03  2.06863E+03  1.92067E+03  8.89405E+02  2.24562E+03  2.07699E+03  9.43769E+00
  2.43956E+03 -7.42543E+02  7.09542E+03  7.78145E+02  3.91758E+03  6.91003E+03 -6.07115E+02  9.21176E+03
 -6.02016E+03  5.43735E+03 -8.79392E+03  1.88357E+03 -6.42131E+03 -2.22477E+03 -3.63702E+03 -5.31948E+03
 -5.62670E+01 -4.69846E+03  3.15145E+03 -2.47858E+03  1.69793E+03  1.81267E+03 -2.70217E+02  5.53166E+03
 -3.79056E+03  3.14883E+03 -7.64608E+03 -3.40392E+03 -2.94807E+03 -7.43030E+03  2.46507E+03 -8.28400E+03
  3.98577E+03 -4.61163E+03  5.92945E+03 -1.52557E+03  4.18281E+03  2.99293E+03  1.32430E+03  3.70089E+03
 -3.81509E+03  1.07397E+03 -4.01521E+03 -2.59935E+03  6.86297E+02 -6.69874E+03  6.77264E+03 -5.81224E+03
  9.31370E+03  1.80001E+02  9.36666E+03  6.61298E+03  3.12498E+03  8.64037E+03 -2.69655E+03  9.05574E+03
 -5.67834E+03  4.32228E+03 -8.02730E+03 -1.81948E+03 -5.01991E+03 -5.18182E+03  2.44451E+03 -3.27737E+03
  4.33195E+03 -3.65100E+03  5.54955E+03  2.05299E+03  2.10041E+03  4.40065E+03 -5.29563E+02  2.63016E+03
 -3.61793E+03  2.70139E+03 -3.22477E+03  2.87809E+02 -8.41071E+02  1.11695E+03 -7.22465E+02  1.78911E+03
 -1.58670E+03  3.94372E+03 -6.14046E+03  2.81458E+03 -8.72773E+03 -3.47952E+01 -1.10706E+04 -6.53964E+03
 -5.43764E+03 -1.13350E+04  1.49259E+03 -1.33573E+04  6.31837E+03 -1.03508E+04  1.21040E+04 -3.09695E+03
  1.23024E+04  2.00689E+03  7.49372E+03  8.01860E+03 -6.02146E+02  9.11532E+03 -2.87171E+03  6.45980E+03
 -6.27491E+03  3.40500E+03 -3.07858E+03 -1.10098E+03 -1.42956E+03 -1.54635E+03  6.08457E+02 -5.55704E+02
  9.27923E+01  7.53098E+02 -2.49855E+03  8.29986E+01 -1.22647E+03 -2.51319E+03 -1.27487E+02 -3.50937E+03
  3.55479E+03 -2.97001E+03  7.13298E+03  4.42518E+01  7.53504E+03  6.09801E+03  1.99710E+03  8.78242E+03
 -5.12890E+03  9.03595E+03 -1.04522E+04  6.50621E+03 -1.16514E+04  1.04731E+03 -7.72364E+03 -7.89953E+03
 -2.20111E+03 -1.07044E+04  2.07539E+03 -7.97916E+03  6.63919E+03 -5.13507E+03  5.98762E+03 -8.25821E+02
  2.81606E+03  1.90777E+03 -5.69135E+02  1.99145E+03 -2.38234E+03 -2.32101E+02  9.16226E+02 -2.22046E+03
  2.95370E+03 -9.29743E+02  3.12288E+03  5.77444E+02  1.98530E+03  2.43711E+03  5.38477E+01  2.65752E+03
 -4.74090E+03  5.55195E+03 -5.76018E+03  5.54080E+02 -5.70182E+03 -4.94837E+03 -8.95791E+02 -7.28308E+03
  4.30644E+03 -6.49350E+03  7.06379E+03 -2.05724E+03  6.88140E+03  1.55735E+03  4.16867E+03  4.00669E+03
  4.14697E+02  4.01295E+03 -3.25011E+03  6.48573E+03 -4.33520E+03  3.47005E+03 -3.70477E+03  3.69543E+02
 -1.80609E+03 -9.67197E+02 -2.40208E+03  1.17767E+03 -3.17621E+03  9.87791E+02 -4.22778E+03 -9.46024E+02
 -3.18012E+03 -3.97583E+03 -2.41219E+03 -6.07517E+03  1.75678E+03 -7.46291E+03  5.61114E+03 -2.61206E+03
  6.88865E+03  3.00938E+02  2.21321E+03  4.10182E+03  1.05853E+02  6.21888E+03 -4.86419E+03  4.25705E+03
