 $NMID ID='MM_0lb_SNR200_15hz_g55_39.RAW', FMTDAT='(8E13.5)'
 TRAMP=1., VOLUME=1. $END
  3.10012E+05  1.95360E+02  3.36434E+05  2.50369E+05  8.49142E+04  3.38993E+05 -1.33958E+05  2.51699E+05
 -1.90265E+05  8.29156E+04 -1.11774E+05 -3.37249E+04  1.32521E+03 -5.13406E+04  5.36439E+04 -5.95449E+02
  3.60468E+04  5.37884E+04 -1.65645E+04  7.47391E+04 -6.14794E+04  6.30387E+04 -8.37260E+04  3.20280E+04
 -8.02144E+04 -1.09431E+04 -5.78587E+04 -5.09427E+04 -1.59200E+04 -6.95633E+04  2.73631E+04 -4.46404E+04
  3.91301E+04  3.40994E+03  1.56873E+04  4.84790E+04 -3.50942E+04  4.65182E+04 -6.70438E+04  1.50696E+02
 -5.24879E+04 -5.66592E+04 -6.27937E+03 -7.63957E+04  3.40865E+04 -5.66271E+04  4.71464E+04 -1.68487E+04
  4.35231E+04  1.11157E+04  3.26892E+04  2.52071E+04  1.56178E+04  2.96497E+04 -4.96655E+03  2.82624E+04
 -2.21719E+04  1.30647E+04 -1.92179E+04 -4.76817E+03  5.25020E+03 -6.59292E+03  2.21121E+04  1.16530E+04
  7.11910E+03  3.50798E+04 -3.29627E+04  3.58734E+04 -6.33951E+04  1.48605E+03 -5.63009E+04 -4.21347E+04
 -1.26473E+04 -6.39951E+04  4.01524E+04 -4.59166E+04  5.82382E+04 -3.15845E+03  3.34618E+04  3.16786E+04
 -5.23474E+03  3.63081E+04 -3.01161E+04  1.68165E+04 -3.03731E+04 -4.39884E+03 -1.68807E+04 -1.12377E+04
 -8.64302E+03 -1.36937E+04 -1.70445E+03 -1.73087E+04  7.56742E+03 -2.32075E+04  1.51040E+04 -1.24345E+04
  1.09646E+04  5.29221E+03 -8.29051E+03  1.31543E+04 -2.22502E+04 -5.73160E+03 -8.72004E+03 -3.49493E+04
  2.29737E+04 -4.33909E+04  4.81053E+04 -1.95239E+04  4.49736E+04  1.94379E+04  1.51988E+04  4.44028E+04
 -1.54877E+04  3.21748E+04 -2.49224E+04  1.69672E+03 -1.00362E+04 -2.75130E+04  2.14007E+04 -3.35156E+04
  4.15664E+04 -8.98173E+03  3.56535E+04  2.28464E+04  1.81840E+04  4.63152E+04 -7.76374E+03  4.94618E+04
 -3.07102E+04  3.40376E+04 -4.14372E+04  8.28406E+03 -4.30304E+04 -1.57243E+04 -2.44729E+04 -3.69882E+04
  7.52319E+03 -3.78291E+04  3.06849E+04 -1.51461E+04  3.00133E+04  1.12756E+04  3.83802E+03  1.98359E+04
 -1.27791E+04  8.18968E+03 -1.03874E+04 -7.53450E+03  6.38098E+03 -9.71223E+03  1.82919E+04  6.12090E+03
  1.25118E+04  2.03494E+04 -5.29790E+03  2.45356E+04 -2.27449E+04  1.14214E+04 -2.78797E+04 -4.78321E+03
 -1.92211E+04 -1.69600E+04 -8.25678E+03 -1.91445E+04  4.11723E+03 -2.05272E+04  1.51284E+04 -1.79897E+04
  2.66445E+04 -1.30855E+04  3.28261E+04  1.56523E+03  2.34873E+04  1.94843E+04  3.73507E+03  3.51478E+04
 -1.71794E+04  3.09521E+04 -2.75616E+04  1.09356E+04 -2.19328E+04 -9.59314E+03 -4.73703E+03 -1.38316E+04
  1.11144E+03 -3.07872E+03 -5.12804E+03  5.22758E+03 -1.59790E+04  5.33868E+03 -1.67666E+04 -6.81230E+03
 -8.99676E+03 -1.82020E+04  5.20855E+03 -2.25404E+04  1.45148E+04 -1.61689E+04  1.89022E+04 -1.29177E+03
  1.22704E+04  1.27382E+04 -7.17637E+02  1.91141E+04 -1.35356E+04  1.19005E+04 -1.82182E+04 -4.68443E+03
 -1.52445E+04 -1.54747E+04 -1.63292E+03 -2.21177E+04  9.24294E+03 -1.94225E+04  1.89976E+04 -9.97997E+03
  1.81057E+04 -1.01666E+03  1.39078E+04  3.65349E+03  7.17013E+03  9.59476E+02  9.81416E+03 -2.26558E+03
  1.84961E+04  2.40188E+03  1.96467E+04  1.50363E+04  1.21622E+04  2.97407E+04 -2.52462E+03  3.53477E+04
 -2.05584E+04  2.73962E+04 -3.10177E+04  1.31231E+04 -3.25847E+04 -1.39682E+03 -2.80570E+04 -1.77482E+04
 -1.16048E+04 -2.64895E+04  8.82123E+03 -2.41928E+04  2.24039E+04 -1.18217E+04  1.98887E+04  5.24180E+03
  7.60163E+03  1.49845E+04 -8.72913E+03  1.25160E+04 -1.59013E+04  1.35868E+03 -1.18019E+04 -9.15366E+03
 -4.85417E+02 -1.50984E+04  8.88211E+03 -1.20515E+04  9.47571E+03 -2.28589E+03  2.27275E+03  7.57403E+03
 -5.80330E+03  3.38538E+03 -6.31197E+03 -6.20626E+03 -6.31350E+02 -1.34435E+04  8.51127E+03 -1.35084E+04
  1.61370E+04 -6.75964E+03  1.74578E+04  2.52130E+03  1.48022E+04  1.21545E+04  7.86524E+03  2.01016E+04
 -3.47265E+03  2.13928E+04 -1.43030E+04  1.35228E+04 -1.46656E+04  3.63218E+03 -1.02948E+04 -2.04560E+03
 -6.46551E+03 -5.44956E+03 -1.44932E+03  1.34925E+03 -1.91088E+03  2.59860E+03 -3.87617E+03  4.58593E+03
 -1.02772E+04 -1.02462E+03 -1.08949E+04 -9.95025E+03 -3.18540E+03 -1.49931E+04  5.37992E+03 -1.27455E+04
  9.96310E+03 -5.39800E+03  7.35209E+03  3.51845E+03 -1.05112E+02  4.13253E+03 -5.75573E+03 -3.86672E+02
 -5.51726E+03 -7.23838E+03 -1.16512E+03 -1.03920E+04  6.11525E+03 -1.02069E+04  1.23504E+04 -5.43731E+03
  1.47982E+04  1.99089E+03  1.22492E+04  8.75369E+03  1.96807E+03  1.37278E+04 -6.46898E+03  1.12881E+04
 -8.92066E+03  4.05504E+03 -3.88462E+03 -2.22799E+03  1.87154E+03 -3.75865E+03  5.66318E+03 -1.07371E+03
  5.36252E+03  3.96519E+03  4.43306E+02  9.08783E+03 -5.71810E+03  8.74895E+03 -1.08989E+04  2.06653E+03
 -7.10280E+03 -5.19336E+03  5.49076E+02 -8.73432E+03  6.08171E+03 -4.66345E+03  5.99113E+03  9.43770E+02
  3.96059E+02  5.93988E+03 -6.69394E+03  7.26428E+03 -8.48722E+03  3.90899E+03 -8.52807E+03 -1.85121E+03
 -5.56749E+03 -9.60563E+03  2.50537E+03 -1.05400E+04  9.14486E+03 -6.96431E+03  1.01153E+04  2.27742E+03
  8.29290E+03  6.96464E+03 -5.12403E+02  1.13220E+04 -7.31149E+03  4.92499E+03 -7.33279E+03 -1.11002E+03
 -7.40340E+03 -6.62085E+03 -1.88016E+03 -8.54990E+03  4.44806E+03 -6.29072E+03  3.87747E+03 -1.92340E+03
  3.45225E+03  3.50743E+03 -6.21240E+02  3.18058E+02 -2.25785E+02 -1.51949E+03 -6.24173E+02 -2.99186E+03
  7.07383E+03 -2.07304E+03  7.93312E+03 -4.90253E+02  8.19898E+03  6.31994E+03  6.83438E+03  1.10780E+04
 -2.44023E+03  1.35342E+04 -1.05745E+04  1.03800E+04 -1.66564E+04  2.08643E+03 -1.20995E+04 -5.35608E+03
 -6.18344E+03 -1.04032E+04  8.19977E+02 -8.25330E+03  2.88531E+03 -3.51100E+03  2.63092E+03 -1.96380E+03
  2.94705E+03 -2.89087E+03  5.67233E+02 -2.15521E+03  5.73458E+03 -1.99732E+03  4.55830E+03 -4.23669E+02
  6.90858E+03  1.34602E+03  2.26475E+03  5.51095E+03 -1.49311E+03  5.53783E+03 -5.24698E+03  4.10072E+03
 -8.52323E+03 -6.26203E+02 -4.08669E+03 -4.11066E+03 -5.12272E+02 -9.13584E+03  5.47515E+03 -8.05969E+03
  8.39299E+03 -4.81210E+03  1.06475E+04  6.70078E+02  7.44531E+03  7.40336E+03  1.78347E+03  9.31454E+03
 -4.33054E+03  8.91651E+03 -5.65084E+03  2.70491E+03 -2.52400E+03 -1.62240E+03 -5.21786E+02 -1.33711E+02
  3.93516E+01  1.63500E+03 -1.00946E+03  3.18669E+03 -3.38144E+03  6.86432E+02 -5.76464E+03 -7.43236E+02
 -2.78620E+03 -5.37179E+03  1.22128E+03 -6.68856E+03  3.46732E+03 -7.71749E+03  6.45578E+03 -2.35451E+03
  8.45781E+03  3.89612E+03  3.85252E+03  6.47061E+03 -1.24067E+03  6.45141E+03 -3.79591E+03  4.75763E+03
 -7.03147E+03  7.30265E+02 -5.68417E+03 -3.00468E+03  4.82670E+02 -6.03793E+03  4.75894E+03 -3.29570E+03
  5.08845E+03 -1.13667E+03  2.77665E+03  5.48232E+01  1.57651E+03  2.80966E+03  1.53441E+03  1.10704E+03
  8.54321E+02 -3.94459E+02  1.71191E+03  5.35344E+02  3.43113E+03  3.25461E+03  2.32066E+03  4.27274E+03
 -7.59402E+02  5.16017E+03 -4.21479E+03  5.99629E+03 -6.21061E+03  2.21892E+03 -7.25023E+03 -2.55038E+03
 -4.05298E+03 -7.25464E+03  1.94343E+03 -8.08457E+03  3.57535E+03 -5.99085E+03  5.43568E+03  2.28706E+02
  4.80672E+03  2.15156E+03  1.14278E+03  4.45524E+03 -1.52769E+03  2.69829E+03 -2.58020E+03  2.41821E+02
 -1.53272E+03 -2.00055E+03  1.92492E+03 -3.22351E+03  1.83737E+03 -1.25740E+03  2.44320E+03  6.19347E+02
  1.91350E+03  3.76143E+02  8.06245E+02  7.15333E+01 -7.13797E+02  1.86957E+03  2.96742E+02 -1.11112E+03
  3.06622E+02  1.48823E+02  2.79462E+03  2.86425E+02  3.05579E+02  4.07497E+03  1.41764E+03  4.46529E+03
 -3.01418E+03  3.01312E+03 -4.28154E+03  1.09866E+03 -4.31202E+03 -2.22112E+03 -1.27299E+03 -1.99915E+03
  8.86985E+02 -2.20967E+03  2.09319E+03 -1.09505E+03  2.21904E+03  2.38476E+03 -1.92559E+03  2.35995E+03
 -2.68542E+03  1.32076E+03 -2.54578E+03 -1.67343E+03 -1.64056E+03 -4.22837E+03 -4.76457E+02 -2.54278E+03
  2.16232E+03 -1.56181E+03  1.95285E+03  6.86401E+02  2.13651E+03  1.19698E+03  7.48625E+02  9.22522E+02
 -1.42356E+03  5.44062E+02 -1.50284E+03 -9.06439E+02  1.13555E+03 -1.57512E+03  2.28269E+03 -1.58305E+03
  3.13671E+03  5.50763E+02  4.01008E+03  2.11281E+03  1.56501E+03  4.47451E+03 -1.54951E+03  3.49853E+03
 -2.75101E+03  1.87212E+03 -2.81919E+03 -7.99577E+01 -1.38603E+03 -3.30659E+03 -8.49257E+02 -1.11929E+03
  3.37548E+03 -1.19217E+02  1.87226E+03  1.26542E+03  7.09319E+02  4.20993E+03 -5.92080E+02  1.52662E+03
 -8.88988E+02  3.64921E+02 -1.24213E+03  5.34931E+02  5.19480E+02  2.84006E+02 -9.86598E+02 -1.07904E+02
 -8.44548E+02  1.52790E+03 -2.90077E+03  8.41846E+02 -3.55895E+03  7.16041E+02 -3.98991E+03 -2.16254E+03
 -1.65520E+03 -4.47937E+03  1.37106E+03 -4.52044E+03  2.56281E+03 -4.75487E+03  5.98481E+03 -2.58122E+03
  4.60913E+03  1.84478E+03  4.10479E+03  3.63112E+03 -1.61512E+02  2.54684E+03 -1.32223E+03  2.02809E+03
 -1.79908E+03  1.17921E+03 -1.11240E+03  1.22424E+03 -6.32131E+02 -4.77478E+02 -3.74258E+02  6.10017E+02
 -8.56776E+02  1.31930E+02 -1.16618E+03  6.77311E+02 -3.98731E+02 -1.24715E+03 -3.83470E+02 -1.68182E+03
  2.21529E+03 -1.62038E+03  1.35583E+03  6.53506E+02  2.42445E+03  3.14982E+03  1.58606E+03  3.48964E+03
 -3.63361E+03  3.73392E+03 -3.30314E+03  3.84609E+03 -3.27083E+03 -1.10688E+03 -3.17911E+03 -1.25586E+03
 -1.01651E+03 -3.48900E+03  1.48860E+01 -3.60397E+03  2.67281E+03 -2.63092E+02  2.00164E+03 -2.54712E+02
  2.71851E+03  1.33816E+03  1.18275E+03  1.60717E+03 -9.53375E+02 -8.40115E+02  6.68541E+02 -1.48991E+02
  1.34006E+03  7.21029E+02  1.31692E+03  7.49036E+02  4.51088E+02  1.98489E+03  7.58610E+02  1.92306E+03
 -1.66178E+03  9.35500E+02 -2.37928E+03 -6.60841E+02 -1.11183E+03 -2.20455E+03  4.59434E+02 -2.25904E+03
  1.97282E+03  7.32191E+00  1.42441E+03  1.54634E+02  2.65126E+03 -1.81660E+02  6.38835E+02  2.08598E+03
  7.26974E+02  1.07775E+03 -7.60766E+02  4.01666E+02 -1.45248E+03  1.07035E+03 -8.73337E+02 -5.54885E+02
 -2.69264E+02  2.02084E+02  9.00076E+02 -2.16167E+02 -1.57423E+03  1.00465E+03 -1.18687E+03 -3.69644E+02
 -1.99357E+03 -2.91817E+02  7.20967E+02 -1.49902E+03  1.21682E+03 -2.38303E+03  1.37697E+03 -1.71209E+03
  9.81895E+02 -4.18383E+02  8.52996E+02  1.09240E+03 -3.49036E+02  2.23938E+03 -1.18058E+03  1.30635E+03
