 $NMID ID='MM_0lb_SNR200_11hz_g60_50.RAW', FMTDAT='(8E13.5)'
 TRAMP=1., VOLUME=1. $END
  3.09675E+05  8.59608E+02  3.37253E+05  2.49199E+05  8.62284E+04  3.39016E+05 -1.33178E+05  2.53167E+05
 -1.90243E+05  8.52491E+04 -1.12619E+05 -3.42374E+04 -1.04688E+03 -4.94280E+04  5.41373E+04 -4.31556E+02
  3.66096E+04  5.31387E+04 -1.54597E+04  7.66172E+04 -6.04188E+04  6.35240E+04 -8.41699E+04  3.43862E+04
 -8.24044E+04 -1.12408E+04 -5.78561E+04 -5.25133E+04 -1.41386E+04 -7.16890E+04  2.76422E+04 -4.62130E+04
  4.19314E+04  3.11815E+03  1.50452E+04  4.83142E+04 -3.49195E+04  4.75382E+04 -6.94719E+04  6.68287E+02
 -5.48581E+04 -5.64131E+04 -7.52377E+03 -7.81276E+04  3.47371E+04 -5.70309E+04  5.05965E+04 -1.72392E+04
  4.41194E+04  1.11579E+04  3.27624E+04  2.59045E+04  1.65815E+04  3.03929E+04 -6.89379E+03  2.82224E+04
 -2.25207E+04  1.16860E+04 -1.83004E+04 -6.55932E+03  6.47572E+03 -9.21740E+03  2.37730E+04  1.39852E+04
  6.85114E+03  3.61203E+04 -3.37241E+04  3.61133E+04 -6.61224E+04  1.15447E+03 -6.06039E+04 -4.35233E+04
 -1.31082E+04 -6.65037E+04  4.20118E+04 -4.70104E+04  6.02734E+04 -1.32491E+03  3.68572E+04  3.36911E+04
 -5.80648E+03  3.86951E+04 -3.19283E+04  1.73624E+04 -3.41173E+04 -4.36187E+03 -2.02747E+04 -1.19262E+04
 -8.76013E+03 -1.50352E+04 -2.55654E+03 -1.85516E+04  7.19171E+03 -2.41987E+04  1.53585E+04 -1.21747E+04
  9.32557E+03  5.31997E+03 -9.94608E+03  1.16646E+04 -2.50340E+04 -8.03126E+03 -9.82407E+03 -3.66546E+04
  2.52191E+04 -4.64640E+04  5.17552E+04 -2.01408E+04  4.84224E+04  1.90164E+04  1.70102E+04  4.74278E+04
 -1.62597E+04  3.48253E+04 -2.88297E+04  3.17223E+03 -1.20223E+04 -2.98023E+04  2.18774E+04 -3.66178E+04
  4.45874E+04 -1.08374E+04  3.99305E+04  2.48138E+04  2.10867E+04  5.05436E+04 -9.42188E+03  5.59317E+04
 -3.48574E+04  3.86590E+04 -4.64582E+04  1.02028E+04 -4.60465E+04 -1.80814E+04 -2.49439E+04 -4.07459E+04
  8.16779E+03 -4.12501E+04  3.36311E+04 -1.70233E+04  3.09052E+04  1.06471E+04  5.77835E+03  2.16610E+04
 -1.26551E+04  9.19213E+03 -1.17174E+04 -7.52894E+03  6.94636E+03 -1.10590E+04  1.92875E+04  5.11558E+03
  1.49798E+04  2.41891E+04 -5.04191E+03  2.77107E+04 -2.32735E+04  1.51805E+04 -3.03834E+04 -3.26393E+03
 -2.43188E+04 -1.81596E+04 -1.12078E+04 -2.37974E+04  3.59648E+03 -2.36952E+04  1.83427E+04 -2.38139E+04
  3.19639E+04 -1.49367E+04  3.68181E+04  4.61000E+03  2.67870E+04  2.41136E+04  3.96654E+03  4.13346E+04
 -2.07493E+04  3.36332E+04 -3.16191E+04  1.04030E+04 -2.30093E+04 -9.59834E+03 -6.01062E+03 -1.26663E+04
  1.65174E+03 -5.24241E+02 -6.59140E+03  7.12911E+03 -1.99429E+04  6.20083E+03 -1.95241E+04 -8.87122E+03
 -1.10359E+04 -2.12928E+04  4.82769E+03 -2.57826E+04  1.75862E+04 -1.89109E+04  2.29358E+04 -2.70682E+03
  1.49495E+04  1.54675E+04 -1.11992E+03  2.13636E+04 -1.48522E+04  1.29917E+04 -2.13415E+04 -5.04654E+03
 -1.75240E+04 -2.06779E+04 -2.25284E+03 -2.64551E+04  1.26075E+04 -2.13902E+04  2.24874E+04 -1.10576E+04
  2.15329E+04  1.77101E+02  1.61938E+04  4.51258E+03  7.32385E+03  5.84962E+02  1.04889E+04 -1.48012E+03
  2.12695E+04  3.75468E+03  2.42358E+04  1.86023E+04  1.64089E+04  3.59501E+04 -1.96285E+03  4.25255E+04
 -2.52679E+04  3.51874E+04 -3.90326E+04  1.90468E+04 -4.11407E+04 -2.58676E+03 -3.54028E+04 -2.22744E+04
 -1.29293E+04 -3.40957E+04  1.21435E+04 -3.08744E+04  2.69640E+04 -1.62139E+04  2.29669E+04  7.94696E+03
  8.33366E+03  1.74089E+04 -1.16261E+04  1.45845E+04 -1.82925E+04  2.97844E+03 -1.47462E+04 -1.26401E+04
 -3.89003E+02 -1.97417E+04  1.10585E+04 -1.32064E+04  1.20755E+04 -7.98149E+02  3.56342E+03  8.32260E+03
 -8.84392E+03  3.74913E+03 -6.76589E+03 -6.61214E+03 -2.31294E+03 -1.75780E+04  1.12947E+04 -1.88757E+04
  2.07764E+04 -1.01061E+04  2.53735E+04  3.42376E+03  2.11702E+04  1.63266E+04  9.05111E+03  2.76601E+04
 -5.63276E+03  2.86983E+04 -1.74094E+04  1.88609E+04 -2.11747E+04  3.66246E+03 -1.43040E+04 -5.57754E+03
 -6.03795E+03 -6.59405E+03 -2.06020E+03  7.24676E+02 -2.67657E+03  2.54998E+03 -7.60888E+03  4.28718E+03
 -1.37296E+04 -7.05129E+02 -1.36326E+04 -1.19961E+04 -6.25906E+03 -2.01442E+04  3.70161E+03 -1.45105E+04
  1.08719E+04 -5.27108E+03  1.04157E+04  3.94847E+03 -4.08507E+02  7.25179E+03 -7.51258E+03 -4.25464E+02
 -7.41858E+03 -1.00884E+04 -7.06051E+02 -1.48762E+04  8.40031E+03 -1.61002E+04  1.88971E+04 -8.37345E+03
  2.17868E+04  1.89484E+03  1.56651E+04  1.43744E+04  4.89189E+03  1.78332E+04 -8.72676E+03  1.57519E+04
 -1.16528E+04  3.46566E+03 -5.91540E+03 -4.12232E+03  1.64717E+03 -3.92286E+03  6.55783E+03  1.69738E+03
  6.43129E+03  7.54748E+03  1.11898E+03  1.42279E+04 -8.13008E+03  1.11245E+04 -1.32614E+04  3.52220E+03
 -8.50207E+03 -7.72385E+03  4.03004E+02 -1.21764E+04  8.65803E+03 -6.47507E+03  7.18302E+03  2.33135E+03
  7.41517E+02  9.51342E+03 -6.72016E+03  9.41731E+03 -1.39418E+04  4.73454E+03 -1.22278E+04 -4.46369E+03
 -7.26077E+03 -1.49763E+04  2.90947E+03 -1.71661E+04  1.46895E+04 -1.16338E+04  1.44077E+04  2.61043E+03
  9.46640E+03  1.15533E+04 -9.17962E+02  1.46922E+04 -1.11402E+04  8.62865E+03 -1.15887E+04 -9.26807E+02
 -9.60215E+03 -1.06787E+04 -1.69515E+03 -1.19461E+04  5.14629E+03 -9.23884E+03  6.29393E+03 -2.69019E+03
  5.26321E+03  1.83742E+03 -5.23083E+02  1.77827E+03  1.20420E+02 -3.44874E+03  1.88295E+03 -5.92826E+03
  1.11150E+04 -4.99795E+03  1.59631E+04  2.70548E+03  1.39815E+04  9.36316E+03  9.80920E+03  1.82919E+04
 -4.33595E+03  2.13265E+04 -1.86050E+04  1.59282E+04 -2.15444E+04  3.49420E+03 -1.86555E+04 -8.00997E+03
 -9.23640E+03 -1.47255E+04 -4.62755E+02 -1.33919E+04  4.64312E+03 -8.49422E+03  4.38828E+03 -4.79086E+03
  3.05312E+03 -3.05745E+03  3.71037E+03 -1.82165E+03  3.87149E+03 -4.20838E+03  6.25697E+03 -1.00997E+03
  1.00985E+04  3.86012E+03  4.46805E+03  8.71827E+03 -2.03069E+01  1.07246E+04 -1.10038E+04  8.25473E+03
 -1.11022E+04 -2.25202E+00 -7.48684E+03 -8.96660E+03 -3.04286E+03 -1.38235E+04  8.36603E+03 -1.43684E+04
  1.44316E+04 -8.01535E+03  1.72137E+04  2.84890E+03  1.21367E+04  1.17976E+04  3.29048E+03  1.34993E+04
 -6.21459E+03  1.33396E+04 -8.40962E+03  4.72596E+03 -6.31587E+03 -5.09070E+02 -1.86490E+03 -2.16932E+03
 -1.01363E+03 -2.95367E+02 -7.17179E+02  2.68267E+03 -4.49637E+03  2.95175E+03 -7.85930E+03 -1.32795E+03
 -6.23218E+03 -8.23369E+03 -4.30066E+02 -1.24259E+04  8.51021E+03 -1.06269E+04  1.29268E+04 -3.74019E+03
  1.27679E+04  6.64178E+03  5.77752E+03  1.11412E+04 -2.40622E+03  1.35097E+04 -8.92585E+03  6.92792E+03
 -1.20681E+04  3.08709E+02 -8.70161E+03 -8.75671E+03 -2.11882E+03 -1.05201E+04  5.20568E+03 -8.56660E+03
  7.09361E+03 -3.32818E+03  4.44096E+03  9.36089E+02  1.93255E+03  3.08913E+03  7.42325E+02  2.40323E+03
  1.33482E+03  1.57187E+03  2.87504E+03  1.43318E+03  4.15398E+03  4.35254E+03  3.40020E+03  6.86275E+03
 -1.88188E+03  9.21529E+03 -7.97967E+03  1.14336E+04 -1.31788E+04  3.78499E+03 -1.20986E+04 -3.94356E+03
 -6.02662E+03 -1.19654E+04  1.53162E+03 -1.39449E+04  7.32817E+03 -8.72042E+03  1.09469E+04 -3.03638E+03
  9.40566E+03  3.30585E+03  1.19620E+03  6.36467E+03 -2.77166E+03  4.11334E+03 -4.86814E+03 -1.79553E+03
 -2.86820E+03 -4.40258E+03  4.03705E+03 -4.33148E+03  5.07109E+03 -2.73644E+03  5.39436E+03  1.59427E+03
  2.74593E+03  1.53870E+03  1.39021E+03  2.13614E+03 -7.92197E+02  2.20941E+03  1.96507E+03 -1.90928E+02
  2.13876E+03 -2.19373E+03  4.84142E+03  2.37366E+03  2.69554E+03  7.05144E+03 -9.44311E+02  7.69860E+03
 -6.35986E+03  5.80395E+03 -8.13480E+03  1.42123E+03 -4.58522E+03 -3.16466E+03 -1.83585E+03 -6.03694E+03
 -1.14671E+02 -4.45907E+03  4.68293E+03 -2.47835E+03  2.44553E+03  3.17420E+03 -1.46391E+02  5.20126E+03
 -5.01829E+03  1.34548E+03 -4.88178E+03 -3.82305E+03 -4.98961E+03 -6.75866E+03  1.00014E+03 -6.76378E+03
  3.96833E+03 -3.54247E+03  4.62473E+03 -7.89366E+02  3.45536E+03  1.22158E+03  3.20555E+02  3.52276E+03
 -1.68074E+03  1.06536E+03 -4.27584E+03 -2.30018E+03  2.57999E+03 -4.39935E+03  5.87657E+03 -4.83429E+03
  7.10508E+03  3.29468E+03  7.02621E+03  6.21838E+03  1.46940E+03  8.68046E+03 -3.41747E+03  9.42890E+03
 -8.20922E+03  1.16511E+03 -4.71082E+03 -2.23103E+03 -3.98780E+03 -5.28834E+03  1.00676E+03 -3.66784E+03
  5.80886E+03 -1.56891E+03  5.43241E+03  1.60314E+03 -9.82159E+02  4.92711E+03 -1.51718E+03  3.75097E+03
 -2.70296E+03  3.58355E+03 -2.30330E+03  1.44992E+03 -1.48958E+03  2.68933E+02 -1.81896E+03  1.78937E+03
 -3.02834E+02  2.60425E+03 -6.09482E+03  2.37990E+03 -7.65865E+03 -4.43149E+02 -8.48840E+03 -5.07584E+03
 -5.42413E+03 -1.07385E+04  2.19402E+03 -1.18368E+04  7.81418E+03 -1.00576E+04  1.24832E+04 -4.54440E+03
  1.03577E+04  5.37241E+02  5.50122E+03  6.86036E+03 -4.51387E+01  6.80409E+03 -4.57885E+03  7.04697E+03
 -3.73134E+03  2.70258E+03 -2.34370E+03 -5.34784E+02 -1.02325E+03 -3.40803E+02 -6.96545E+02  5.24493E+02
 -1.50296E+03  1.28844E+03 -1.58817E+03  6.57873E+02 -1.39104E+03 -3.02892E+03 -6.35371E+02 -2.57139E+03
  4.76604E+03 -3.24910E+03  4.94710E+03 -2.14950E+03  5.89449E+03  4.22280E+03  1.98581E+03  7.68955E+03
 -3.58795E+03  9.00889E+03 -7.46281E+03  3.75453E+03 -8.90618E+03 -7.57640E+02 -7.76419E+03 -6.30360E+03
 -3.29785E+03 -9.10875E+03  3.18387E+03 -8.19885E+03  3.82035E+03 -4.93060E+03  6.41756E+03 -8.40031E+01
  3.78085E+03  3.34550E+03  5.45653E+02  3.93859E+03 -1.36763E+03  1.41726E+03  5.23487E+02 -9.99667E+02
  2.82321E+03 -6.72164E+02  2.01707E+03  7.63612E+02  2.40096E+03  3.59230E+03  7.46809E+02  4.82543E+03
 -3.35262E+03  1.98159E+03 -4.91573E+03  4.12665E+02 -4.74804E+03 -2.97548E+03  1.14435E+03 -5.79113E+03
  4.00017E+03 -4.14357E+03  5.00164E+03 -1.65975E+03  4.02258E+03  7.68162E+02  3.52823E+03  4.98145E+03
 -1.66010E+01  4.51251E+03 -2.71561E+03  3.98727E+03 -3.10375E+03  1.91240E+03 -3.71387E+03  1.03323E+03
 -1.06093E+03  1.38450E+03 -1.82160E+03  1.19312E+03 -2.66707E+03  1.80572E+03 -3.21706E+03 -1.78682E+03
 -4.95326E+03 -1.68602E+03 -1.03199E+03 -5.46857E+03  2.14475E+03 -5.32131E+03  5.04006E+03 -3.91432E+03
  5.96858E+03  4.61361E+02  1.91403E+03  2.99613E+03  2.21022E+02  3.32268E+03 -3.82156E+03  2.90692E+03
