 $NMID ID='MM_0lb_SNR200_12hz_g40_81.RAW', FMTDAT='(8E13.5)'
 TRAMP=1., VOLUME=1. $END
  3.11343E+05  6.02693E+01  3.37762E+05  2.51188E+05  8.52799E+04  3.38651E+05 -1.32510E+05  2.51373E+05
 -1.90778E+05  8.35104E+04 -1.11917E+05 -3.24588E+04 -6.98664E+02 -4.89062E+04  5.32741E+04  1.27705E+02
  3.54045E+04  5.29178E+04 -1.66744E+04  7.57114E+04 -6.17925E+04  6.37229E+04 -8.54518E+04  3.17092E+04
 -8.16309E+04 -1.18107E+04 -5.76413E+04 -5.17012E+04 -1.53877E+04 -7.02699E+04  2.68313E+04 -4.56831E+04
  3.93362E+04  2.48476E+03  1.70265E+04  4.80149E+04 -3.43053E+04  4.71344E+04 -6.77423E+04 -5.89236E+02
 -5.43873E+04 -5.65087E+04 -6.63982E+03 -7.72537E+04  3.42998E+04 -5.44347E+04  4.91125E+04 -1.77237E+04
  4.26325E+04  1.06197E+04  3.18068E+04  2.56755E+04  1.48730E+04  2.97773E+04 -4.50027E+03  2.57665E+04
 -2.20817E+04  1.18631E+04 -1.94164E+04 -5.30067E+03  5.65525E+03 -7.37248E+03  2.21678E+04  1.28632E+04
  5.38640E+03  3.59916E+04 -3.17286E+04  3.62090E+04 -6.41384E+04  2.68088E+03 -5.58511E+04 -4.22796E+04
 -1.21981E+04 -6.41334E+04  3.92646E+04 -4.59359E+04  5.85214E+04 -2.84248E+03  3.36281E+04  3.30299E+04
 -6.71994E+03  3.66385E+04 -3.02976E+04  1.65043E+04 -3.10559E+04 -4.80633E+03 -1.91804E+04 -1.14456E+04
 -1.01157E+04 -1.39728E+04 -9.27802E+02 -1.89793E+04  7.87267E+03 -2.18334E+04  1.46501E+04 -1.45019E+04
  1.04447E+04  4.92698E+03 -8.42226E+03  1.30465E+04 -2.26106E+04 -4.94261E+03 -8.33119E+03 -3.39539E+04
  2.31779E+04 -4.36492E+04  4.89734E+04 -2.02565E+04  4.65858E+04  1.90107E+04  1.51275E+04  4.47837E+04
 -1.77785E+04  3.49955E+04 -2.43953E+04  1.96904E+03 -1.01026E+04 -2.77039E+04  2.13880E+04 -3.48180E+04
  4.16251E+04 -8.63261E+03  3.72590E+04  2.42117E+04  1.75751E+04  4.81622E+04 -7.97844E+03  5.16080E+04
 -3.18893E+04  3.50502E+04 -4.37999E+04  9.26973E+03 -4.38797E+04 -1.67826E+04 -2.42583E+04 -3.90537E+04
  8.00833E+03 -3.86348E+04  3.18381E+04 -1.62490E+04  3.03476E+04  1.12470E+04  2.78873E+03  1.97273E+04
 -1.37717E+04  8.09286E+03 -8.91309E+03 -6.53640E+03  7.21078E+03 -1.08648E+04  1.77294E+04  5.81335E+03
  1.34804E+04  2.26794E+04 -6.07485E+03  2.47775E+04 -2.23462E+04  1.25311E+04 -2.85618E+04 -4.70765E+03
 -2.17229E+04 -1.83626E+04 -1.01223E+04 -2.27253E+04  5.16509E+03 -2.10292E+04  1.63083E+04 -1.88792E+04
  2.73734E+04 -1.35923E+04  3.33494E+04  1.64348E+03  2.46542E+04  2.13727E+04  3.22148E+03  3.70477E+04
 -1.85981E+04  2.97915E+04 -2.80640E+04  1.13207E+04 -2.15729E+04 -1.06727E+04 -4.61304E+03 -1.24989E+04
  1.77160E+03 -2.85493E+03 -5.60736E+03  6.24128E+03 -1.55819E+04  4.16681E+03 -1.71899E+04 -7.38506E+03
 -1.17347E+04 -2.03606E+04  6.24179E+03 -2.43856E+04  1.59177E+04 -1.74663E+04  1.90223E+04 -1.63014E+03
  1.15999E+04  1.37677E+04 -4.65124E+02  2.03541E+04 -1.38045E+04  1.02753E+04 -1.99592E+04 -4.46795E+03
 -1.50495E+04 -1.85092E+04 -3.12069E+03 -2.43814E+04  1.06025E+04 -1.82835E+04  2.01488E+04 -9.59511E+03
  1.92571E+04 -6.74625E+01  1.20086E+04  4.68171E+03  7.14965E+03  1.15994E+02  1.12167E+04 -1.62987E+03
  1.68029E+04  1.42547E+03  2.09865E+04  1.50979E+04  1.28049E+04  3.24804E+04 -2.52845E+03  3.61501E+04
 -2.13738E+04  2.94008E+04 -3.37299E+04  1.46186E+04 -3.59994E+04 -1.72779E+03 -2.94695E+04 -2.05437E+04
 -1.21760E+04 -2.87259E+04  1.02718E+04 -2.60107E+04  2.23337E+04 -1.24776E+04  2.05574E+04  4.91454E+03
  7.31472E+03  1.56541E+04 -8.26618E+03  1.33362E+04 -1.70296E+04  2.46726E+03 -1.33222E+04 -1.20207E+04
 -7.33477E+02 -1.66691E+04  7.95661E+03 -1.29604E+04  1.01191E+04 -2.33485E+03  2.15205E+03  6.62383E+03
 -7.90125E+03  3.04116E+03 -7.20228E+03 -6.85977E+03  1.54570E+03 -1.47220E+04  9.32608E+03 -1.42305E+04
  1.84156E+04 -6.87706E+03  2.02947E+04  2.61690E+03  1.73294E+04  1.41542E+04  7.91952E+03  2.16938E+04
 -5.17097E+03  2.44307E+04 -1.54605E+04  1.52428E+04 -1.78425E+04  3.70375E+03 -1.27310E+04 -4.10234E+03
 -4.59321E+03 -5.10383E+03  2.11307E+02  3.14185E+03 -2.81807E+03  2.53193E+03 -5.58837E+03  4.92966E+03
 -1.07878E+04 -1.25631E+03 -1.18647E+04 -1.06076E+04 -5.46971E+03 -1.51461E+04  4.88689E+03 -1.10060E+04
  1.02450E+04 -5.27026E+03  7.79994E+03  2.35174E+03  4.38226E+02  4.96714E+03 -4.97132E+03 -2.39456E+02
 -5.41917E+03 -7.94153E+03 -2.00752E+02 -1.29862E+04  6.41744E+03 -1.16169E+04  1.46106E+04 -5.39020E+03
  1.81215E+04  3.34062E+03  1.37156E+04  1.01015E+04  2.62681E+03  1.43738E+04 -7.39251E+03  1.20497E+04
 -1.12744E+04  3.17562E+03 -5.14352E+03 -3.90372E+03  2.27208E+03 -2.99650E+03  6.67055E+03 -2.87725E+03
  5.81934E+03  6.34899E+03  5.60978E+02  9.95567E+03 -8.34060E+03  9.27116E+03 -1.02275E+04  3.37251E+03
 -7.26879E+03 -5.06832E+03 -1.13234E+02 -9.17276E+03  6.64344E+03 -5.62789E+03  6.89221E+03  9.89774E+02
  1.35408E+03  6.29902E+03 -6.89522E+03  9.87849E+03 -9.63168E+03  3.69879E+03 -9.72056E+03 -3.42007E+03
 -5.91721E+03 -1.04402E+04  3.17052E+03 -1.39971E+04  1.01703E+04 -7.65051E+03  1.22515E+04  2.65059E+03
  7.04148E+03  8.63349E+03 -1.63252E+03  1.16680E+04 -9.00540E+03  5.98127E+03 -9.41899E+03 -8.67220E+02
 -8.21473E+03 -8.52434E+03 -1.92816E+03 -9.00362E+03  4.70510E+03 -6.93893E+03  7.34416E+03 -2.87764E+03
  3.55274E+03  1.65526E+02 -1.77918E+03  1.52503E+03  2.37412E+02 -1.46413E+03  1.09373E+03 -3.89252E+03
  7.30309E+03 -3.13749E+03  1.17101E+04  1.64816E+03  1.11452E+04  7.85620E+03  9.05136E+03  1.48771E+04
 -3.13613E+03  1.52718E+04 -1.41922E+04  1.17285E+04 -1.81552E+04  2.77624E+03 -1.46998E+04 -4.66607E+03
 -7.44316E+03 -1.14130E+04  1.31596E+01 -1.01516E+04  2.73939E+03 -5.89891E+03  2.26779E+03 -3.43645E+03
  1.55961E+03 -2.66918E+03  2.28903E+03 -4.42930E+03  4.75586E+03 -3.36104E+03  4.99598E+03 -1.61150E+02
  6.95230E+03  1.88235E+03  2.20434E+03  5.92424E+03 -1.18003E+03  8.15839E+03 -9.04861E+03  4.95439E+03
 -1.04968E+04 -1.50623E+03 -7.07929E+03 -7.55216E+03 -6.43975E+02 -1.02321E+04  6.68891E+03 -1.02547E+04
  1.05153E+04 -4.76439E+03  1.16699E+04  7.58690E+02  1.00553E+04  8.10902E+03  8.30870E+02  1.21181E+04
 -4.95206E+03  1.02257E+04 -6.87589E+03  3.70737E+03 -5.10830E+03 -1.52164E+03 -2.02577E+03 -1.85749E+03
 -7.25137E+02 -1.22130E+03 -1.07367E+03  3.29934E+03 -5.24713E+03  8.15586E+02 -7.25440E+03 -8.21712E+02
 -5.03170E+03 -7.05895E+03 -1.30182E+02 -9.97229E+03  6.06601E+03 -9.23655E+03  8.77707E+03 -3.60625E+03
  9.62777E+03  5.02556E+03  4.04282E+03  7.62667E+03 -2.08679E+03  9.03683E+03 -6.61550E+03  5.75636E+03
 -9.19627E+03  1.45310E+03 -5.76659E+03 -4.62415E+03 -1.14005E+03 -7.74564E+03  3.88521E+03 -5.51001E+03
  6.36459E+03 -3.12771E+03  4.51247E+03  2.26101E+03  2.15988E+03  3.42215E+03  8.22791E+02  2.29436E+03
  3.00503E+03  5.49794E+02  2.61192E+03  1.50367E+03  2.84582E+03  3.32254E+03  2.28030E+03  5.34925E+03
 -1.71247E+03  7.55505E+03 -6.49004E+03  8.55032E+03 -9.37702E+03  1.83489E+03 -1.02410E+04 -3.65384E+03
 -3.24276E+03 -9.70023E+03  1.06603E+03 -1.01145E+04  6.17243E+03 -7.94430E+03  6.84227E+03 -1.32425E+03
  6.21744E+03  3.62111E+03  1.12692E+03  4.80726E+03 -2.98213E+03  2.71967E+03 -3.66147E+03 -2.74395E+03
 -1.99962E+03 -3.63710E+03  2.38915E+03 -4.70801E+03  3.45108E+03 -1.73979E+03  3.53033E+03 -9.21289E+01
  2.39389E+03  1.93477E+03  1.53916E+03  2.22395E+03 -6.80187E+02  1.74587E+03  1.51306E+03  7.32540E+02
  1.42251E+03  7.62415E+01  4.57231E+03  2.30235E+03  4.20367E+02  5.29167E+03 -1.27763E+03  6.19619E+03
 -4.01256E+03  4.69683E+03 -6.15922E+03  1.42130E+03 -4.98210E+03 -1.28301E+03 -2.07112E+03 -4.60110E+03
  1.30040E+03 -3.18995E+03  2.07041E+03 -6.47269E+02  1.96424E+03  2.73781E+03  1.14656E+02  2.62229E+03
 -3.99981E+03  2.06255E+03 -4.40452E+03 -2.82383E+03 -2.40020E+03 -4.89417E+03  1.58446E+03 -5.53213E+03
  3.17609E+03 -2.21075E+03  4.10416E+03  1.65627E+02  2.39073E+03  9.06334E+02  5.55032E+02  2.67680E+03
 -1.52700E+03  1.36952E+03 -2.93507E+03  8.16303E+02  2.72036E+02 -3.55135E+03  4.95453E+03 -2.21855E+03
  5.78909E+03  2.14687E+02  5.42741E+03  3.50583E+03  3.43379E+03  5.05731E+03 -1.83487E+03  5.30605E+03
 -6.55750E+03  3.04106E+03 -4.76256E+03 -5.12671E+02 -3.79970E+03 -3.72772E+03  9.25686E+02 -3.77484E+03
  4.71345E+03 -3.37335E+03  3.20715E+03  2.18493E+03  7.64577E+02  3.84325E+03 -5.12217E+02  2.67311E+03
 -2.23405E+03  1.49243E+03 -1.18657E+03  7.53966E+02 -4.91511E+02  7.68226E+02 -9.90836E+02  3.34099E+02
 -2.12697E+03  1.44305E+03 -4.32725E+03  2.07484E+03 -4.99338E+03 -5.15843E+02 -6.93108E+03 -3.41304E+03
 -3.22777E+03 -7.63606E+03  1.62753E+03 -7.70307E+03  4.21395E+03 -8.83697E+03  9.18063E+03 -2.47985E+03
  7.58009E+03  1.13150E+03  5.49187E+03  5.95227E+03  1.18606E+02  5.19180E+03 -2.25308E+03  4.05331E+03
 -3.44110E+03  1.58065E+03 -7.76125E+02 -2.95517E+02 -1.66962E+03 -1.36005E+03 -1.68112E+03  1.02474E+03
 -1.18532E+03  1.77312E+02 -2.06782E+03  9.67459E+02  1.68673E+02 -1.32895E+03  3.97515E+02 -1.96131E+03
  2.16688E+03 -8.70224E+02  2.31549E+03 -3.98472E+02  3.80629E+03  2.97011E+03  6.36488E+01  5.68156E+03
 -2.89452E+03  6.72973E+03 -6.49601E+03  4.13944E+03 -7.28594E+03 -2.14378E+02 -4.67575E+03 -3.15057E+03
 -2.12087E+03 -6.21660E+03  1.34086E+03 -6.12600E+03  2.96901E+03 -3.64644E+03  3.71711E+03 -6.68505E+00
  1.66380E+03  1.36764E+03 -3.23051E+02  2.89512E+03 -2.70990E+02  7.63705E+02 -3.34568E+01 -2.03235E+03
  1.93718E+03 -1.99095E+02  2.10600E+03  8.54363E+02  1.88420E+03  2.80409E+03  1.26020E+03  1.28890E+03
 -2.85887E+03  3.88339E+03 -3.69772E+03 -5.32084E+02 -3.49925E+03 -1.78393E+03  1.51571E+02 -4.74728E+03
  1.42626E+03 -4.50349E+03  3.63231E+03 -1.96278E+02  4.76382E+03  5.24341E+02  2.05022E+03  3.03849E+03
  2.37080E+03  4.71977E+03 -2.21875E+03  3.44786E+03 -1.96927E+03  1.06859E+03 -1.57010E+03 -2.36885E+00
 -1.45985E+03  1.45780E+02 -1.12188E+03  1.34351E+03 -2.57666E+03  5.43494E+02 -3.08517E+03  3.60370E+02
 -2.28960E+03 -1.39743E+03  3.99930E+02 -2.65528E+03  2.26314E+03 -3.24877E+03  4.03555E+03 -1.78623E+03
  3.48300E+03  1.83579E+03  2.24495E+03  3.04519E+03 -3.04542E+02  2.95694E+03 -3.05924E+03  2.15974E+03
