 $NMID ID='MM_0lb_SNR200_15hz_g40_17.RAW', FMTDAT='(8E13.5)'
 TRAMP=1., VOLUME=1. $END
  3.09580E+05  3.32025E+02  3.37555E+05  2.50052E+05  8.53943E+04  3.37218E+05 -1.31811E+05  2.50969E+05
 -1.88971E+05  8.30542E+04 -1.11669E+05 -3.36413E+04  7.37060E+02 -4.91667E+04  5.36244E+04 -2.99833E+01
  3.48182E+04  5.25687E+04 -1.69018E+04  7.50169E+04 -6.06706E+04  6.23651E+04 -8.42878E+04  3.18135E+04
 -8.03847E+04 -1.12664E+04 -5.76200E+04 -5.10479E+04 -1.48298E+04 -6.93792E+04  2.72063E+04 -4.61381E+04
  3.89790E+04  4.94738E+03  1.50383E+04  4.72283E+04 -3.34253E+04  4.68850E+04 -6.58451E+04 -4.00853E+02
 -5.28039E+04 -5.72915E+04 -6.50298E+03 -7.55723E+04  3.30464E+04 -5.46917E+04  4.70648E+04 -1.73946E+04
  4.33368E+04  1.12496E+04  3.12788E+04  2.49417E+04  1.55841E+04  2.94171E+04 -5.11401E+03  2.75334E+04
 -2.11020E+04  1.24723E+04 -1.80527E+04 -5.61487E+03  4.52604E+03 -9.29694E+03  2.18679E+04  1.22305E+04
  6.90388E+03  3.43602E+04 -3.04713E+04  3.55623E+04 -6.29906E+04  2.22567E+03 -5.70348E+04 -4.23469E+04
 -1.39364E+04 -6.16160E+04  3.94773E+04 -4.48077E+04  5.71509E+04 -3.23066E+03  3.35044E+04  3.17208E+04
 -5.87262E+03  3.37731E+04 -2.87475E+04  1.44231E+04 -2.80794E+04 -5.77321E+03 -1.61141E+04 -1.16624E+04
 -8.26361E+03 -1.23706E+04 -5.01480E+02 -1.67752E+04  7.54805E+03 -2.25194E+04  1.47709E+04 -1.27206E+04
  1.22501E+04  4.45647E+03 -7.24396E+03  1.32686E+04 -1.97717E+04 -2.50027E+03 -7.39486E+03 -3.35780E+04
  2.23131E+04 -4.16113E+04  4.68460E+04 -1.97677E+04  4.40686E+04  2.01288E+04  1.52207E+04  4.28265E+04
 -1.58588E+04  3.05918E+04 -2.53380E+04  8.39324E+02 -9.20671E+03 -2.66005E+04  1.95162E+04 -3.24992E+04
  4.02937E+04 -7.81418E+03  3.35705E+04  2.33201E+04  1.76212E+04  4.40093E+04 -8.14245E+03  4.75500E+04
 -3.06187E+04  3.07708E+04 -4.07060E+04  8.60056E+03 -4.06725E+04 -1.62648E+04 -2.10816E+04 -3.62157E+04
  6.16576E+03 -3.47824E+04  3.00142E+04 -1.22890E+04  2.68831E+04  9.72171E+03  3.03548E+03  1.75556E+04
 -1.38086E+04  7.91895E+03 -9.46911E+03 -8.26693E+03  5.90940E+03 -1.02684E+04  1.79230E+04  5.88223E+03
  1.26811E+04  2.24161E+04 -6.48147E+03  2.54257E+04 -2.24279E+04  9.82038E+03 -2.71291E+04 -4.20126E+03
 -1.93195E+04 -1.74271E+04 -7.15493E+03 -1.90976E+04  4.62540E+03 -1.77679E+04  1.51619E+04 -1.65666E+04
  2.35348E+04 -1.23673E+04  3.01809E+04  1.40365E+03  2.26985E+04  1.86397E+04  4.11699E+03  3.49823E+04
 -1.65825E+04  2.94329E+04 -2.65416E+04  9.85335E+03 -2.10282E+04 -1.06708E+04 -3.87292E+03 -1.27097E+04
  1.44726E+03 -2.89422E+03 -4.67715E+03  6.45709E+03 -1.56581E+04  5.74107E+03 -1.50905E+04 -6.54007E+03
 -9.73325E+03 -1.79167E+04  4.35938E+03 -2.11414E+04  1.53723E+04 -1.63331E+04  1.66525E+04 -2.19734E+03
  1.05090E+04  1.09908E+04 -9.65646E+02  1.78439E+04 -1.15420E+04  9.65374E+03 -1.66083E+04 -3.01280E+03
 -1.22607E+04 -1.49093E+04 -1.99902E+03 -2.13456E+04  9.85716E+03 -1.68818E+04  1.69957E+04 -7.71671E+03
  1.66832E+04  6.96655E+02  1.20274E+04  4.57287E+03  6.89616E+03  1.30501E+03  8.94306E+03 -1.72239E+03
  1.63309E+04  2.26819E+03  1.85070E+04  1.48246E+04  1.16653E+04  2.75031E+04 -3.54008E+03  3.01603E+04
 -1.81159E+04  2.34703E+04 -2.89376E+04  1.14135E+04 -3.04883E+04 -2.24400E+03 -2.46120E+04 -1.78015E+04
 -1.26033E+04 -2.47548E+04  7.72211E+03 -2.25127E+04  1.92464E+04 -1.12434E+04  1.69636E+04  5.13805E+03
  6.80767E+03  1.32170E+04 -8.30507E+03  1.16924E+04 -1.44912E+04  3.17498E+03 -1.05162E+04 -9.35780E+03
  5.79658E+02 -1.40777E+04  6.18687E+03 -1.00976E+04  9.21348E+03 -1.41381E+03  1.71404E+03  5.75280E+03
 -6.81292E+03  1.57326E+03 -5.51530E+03 -6.00397E+03 -4.70745E+02 -1.31737E+04  9.23391E+03 -1.33393E+04
  1.50341E+04 -6.59404E+03  1.56427E+04  2.81064E+03  1.35380E+04  1.18898E+04  6.31995E+03  1.80052E+04
 -2.65708E+03  1.98830E+04 -1.16143E+04  1.26446E+04 -1.48104E+04  2.92433E+03 -9.16212E+03 -1.73368E+03
 -4.97300E+03 -4.66107E+03 -1.60898E+03  1.48792E+03 -2.53644E+03  2.68574E+03 -5.11739E+03  5.43081E+03
 -8.71021E+03 -5.55027E+01 -1.07870E+04 -7.88789E+03 -4.10198E+03 -1.38030E+04  4.75562E+03 -9.77067E+03
  8.59177E+03 -4.28271E+03  5.76219E+03  3.77517E+03  5.99983E+02  3.11654E+03 -5.13287E+03 -9.92259E+01
 -4.91603E+03 -6.05333E+03 -2.36674E+02 -9.69056E+03  6.15227E+03 -1.07608E+04  1.27864E+04 -5.07192E+03
  1.52300E+04 -2.10111E+02  9.68930E+03  6.89071E+03  1.96476E+03  1.12441E+04 -5.95922E+03  1.07679E+04
 -9.09185E+03  2.31612E+03 -3.88406E+03 -1.87163E+03  9.59047E+02 -1.50608E+03  5.47536E+03 -4.58671E+02
  4.55839E+03  4.03507E+03  9.82286E+02  8.65970E+03 -5.51098E+03  7.32464E+03 -9.52703E+03  2.11726E+03
 -6.03781E+03 -5.73275E+03  9.53617E+02 -8.65401E+03  5.24747E+03 -3.12674E+03  5.58246E+03  2.08944E+03
  3.62620E+02  6.74209E+03 -4.79508E+03  7.08866E+03 -7.24006E+03  2.98173E+03 -6.84203E+03 -2.92352E+03
 -2.77169E+03 -8.71976E+03  1.51208E+03 -9.91465E+03  7.35427E+03 -6.32017E+03  8.10290E+03  1.33988E+03
  6.68427E+03  6.56476E+03 -5.87379E+02  9.66653E+03 -6.82980E+03  6.06044E+03 -6.16357E+03 -1.47571E+03
 -7.50666E+03 -6.04662E+03 -1.30262E+03 -7.15671E+03  4.72918E+03 -4.72555E+03  3.34639E+03 -3.53779E+03
  3.22446E+03  3.00948E+02 -9.47773E+02  1.14584E+03  1.12871E+02 -1.33831E+03 -3.93360E+02 -2.91203E+03
  4.57412E+03 -1.50183E+03  7.67033E+03  1.87641E+03  7.52082E+03  6.07991E+03  5.99768E+03  1.09183E+04
 -9.12153E+02  1.14988E+04 -1.06278E+04  1.04097E+04 -1.32670E+04  2.00913E+03 -1.15552E+04 -3.95932E+03
 -4.95149E+03 -7.76095E+03 -1.17683E+03 -8.31230E+03  2.93896E+03 -2.89982E+03  1.84709E+03 -2.16894E+03
  1.80322E+03 -1.91671E+03  1.23806E+03 -2.26999E+03  3.85175E+03 -1.23450E+03  4.70601E+03 -7.83629E+02
  5.60682E+03  3.33712E+02  1.92522E+03  4.66725E+03 -1.80643E+03  4.57589E+03 -5.72436E+03  2.78904E+03
 -7.50384E+03 -7.43551E+02 -2.85447E+03 -3.96796E+03  8.15972E+02 -7.32635E+03  4.26108E+03 -7.95479E+03
  8.99699E+03 -3.86830E+03  9.66414E+03  4.61903E+02  5.78357E+03  7.25010E+03  1.44687E+03  9.47762E+03
 -3.62557E+03  8.07384E+03 -4.76124E+03  2.79391E+03 -2.28279E+03 -1.23432E+03 -6.10513E+02 -8.28773E+02
 -1.60641E+03  1.69265E+03 -6.33087E+02  2.16045E+03 -4.71920E+03  1.01985E+03 -5.25758E+03 -8.63260E+02
 -2.63154E+03 -4.34284E+03  4.26430E+02 -7.99936E+03  4.40556E+03 -6.01864E+03  6.81733E+03 -6.38992E+02
  5.43927E+03  4.27971E+03  2.76748E+03  6.18244E+03 -7.62915E+02  7.06914E+03 -3.56662E+03  3.99125E+03
 -5.74518E+03 -1.12241E+03 -4.33315E+03 -3.75822E+03 -4.82345E+02 -4.98381E+03  2.85164E+03 -4.77479E+03
  3.80039E+03 -2.26253E+03  3.38245E+03  7.75825E+02  9.18769E+02  1.98394E+03  8.03089E+02  3.10014E+02
  1.78355E+03  1.00649E+03  2.55500E+03  6.17355E+02  1.67927E+03  3.31715E+03  2.39329E+03  3.40917E+03
 -2.32892E+03  4.33834E+03 -5.20214E+03  5.84086E+03 -5.96961E+03  3.05759E+03 -6.65627E+03 -1.58036E+03
 -3.71443E+03 -5.40947E+03  1.29038E+03 -7.28827E+03  4.60740E+03 -4.28103E+03  5.27765E+03 -1.13256E+03
  4.97946E+03  2.50497E+03  9.75366E+02  3.92679E+03 -5.78443E+02  1.23878E+03 -1.61485E+03 -8.93631E+01
  3.76631E+02 -2.23816E+03  1.36935E+03 -2.46025E+03  1.95122E+03 -1.19346E+03  3.78559E+03  1.23896E+02
  1.11966E+03  5.18645E+02  1.84833E+03 -2.04931E+02 -5.60498E+02  1.22752E+03  2.00597E+03  1.08630E+02
 -1.68041E+02 -2.43866E+02  3.63951E+03  1.33188E+03  1.97272E+03  3.24834E+03 -1.61044E+02  4.94168E+03
 -3.52381E+03  3.00044E+03 -3.47734E+03  9.33285E+02 -2.65790E+03 -1.58938E+03 -9.04792E+02 -1.63186E+03
  9.13934E+02 -1.83133E+03  7.05169E+02 -1.13609E+03  4.96376E+02  1.27287E+03 -2.23090E+02  2.71001E+03
 -9.49173E+02  3.51522E+02 -2.00115E+03 -1.90222E+03 -2.43633E+03 -3.08936E+03  1.61120E+03 -3.91226E+03
  1.21740E+03 -2.27518E+03  1.68344E+03 -4.04248E+02  3.36355E+03  1.62373E+02  4.44199E+01  1.04788E+03
 -1.42156E+03 -2.81329E+02 -1.84839E+03  1.24964E+02  1.38484E+03 -1.83763E+03  3.66601E+03 -1.48531E+03
  3.24649E+03  1.27833E+02  4.01988E+03  2.26579E+03  1.62249E+03  3.24540E+03 -1.24213E+03  3.28420E+03
 -2.32449E+03  3.79614E+02 -2.86538E+03  5.71434E+01 -1.49017E+03 -1.97012E+03 -6.39275E+02 -2.30258E+03
  1.76207E+03 -1.04883E+03  2.86732E+03  1.25108E+03  1.54333E+03  2.20905E+03 -6.99778E+02  2.27179E+03
 -9.85688E+02  1.65348E+03 -1.07309E+03  3.65287E+02 -6.15786E+02  2.02155E+03 -3.34057E+02  1.09068E+03
 -1.58168E+03  1.19879E+03 -2.06774E+03  9.35568E+02 -3.48350E+03  1.19446E+03 -4.66982E+03 -2.31650E+03
 -1.82796E+03 -4.30031E+03  4.26680E+02 -5.08569E+03  2.24334E+03 -4.56849E+03  4.35334E+03 -1.15899E+03
  4.02477E+03  1.02432E+03  3.26529E+03  2.47549E+03 -6.31255E+02  2.83290E+03 -1.24255E+03  2.78600E+03
 -2.12419E+03  1.20052E+03 -1.21727E+03 -1.29899E+03 -3.35467E+02 -2.22123E+02 -1.04752E+03  7.02343E+02
 -2.12003E+03 -8.66860E+02 -4.06219E+02 -4.68869E+02  3.93698E+02 -9.18417E+02 -4.73720E+02 -6.31965E+02
  1.24375E+03 -9.66887E+02  2.17397E+03 -2.14931E+02  2.22358E+03  8.27320E+02 -5.31276E+02  4.05128E+03
 -1.57437E+03  3.97676E+03 -4.59387E+03  1.23373E+03 -3.61595E+03  1.15281E+01 -3.11506E+03 -3.32370E+03
 -1.67364E+03 -2.47759E+03  1.52934E+03 -2.78776E+03  2.06910E+03 -2.97768E+03  9.63697E+02  1.71829E+03
  5.11296E+02  1.34275E+03  3.65688E+02  1.50187E+03 -6.58094E+02  1.76803E+02  8.40942E+02 -4.07576E+02
  1.80803E+03  1.01470E+03 -4.42167E+02  8.58125E+01  2.61042E+02  5.53904E+02  2.09890E+02  2.65348E+03
 -7.16896E+02  1.30583E+03 -2.54668E+03  6.46802E+02 -1.73992E+03 -1.93517E+03  4.41026E+02 -2.75001E+03
  1.56087E+03 -1.16429E+03  1.91740E+03  4.21438E+02  2.03045E+03 -6.66719E+02  5.25466E+02  2.17536E+03
  2.72267E+02  1.83373E+03 -5.38467E+02  1.19812E+03 -1.94422E+03  1.26497E+03 -2.40148E+03 -5.18324E+01
  5.50824E+02  6.92193E+01 -4.69236E+02  1.42054E+03 -8.66389E+02 -1.98228E+02 -1.29735E+03 -5.38749E+02
 -1.41561E+03  7.94228E+01 -1.28637E+03 -1.71568E+03  1.83733E+03 -2.67867E+03  2.07815E+03 -1.71046E+03
  2.59322E+03  6.31909E+02  5.69421E+02  7.46988E+02 -6.04810E+02  2.09775E+03  9.95477E+01  1.72940E+03
