 $NMID ID='MM_0lb_SNR200_9hz_g40_18.RAW', FMTDAT='(8E13.5)'
 TRAMP=1., VOLUME=1. $END
  3.09553E+05  1.46034E+01  3.37854E+05  2.51166E+05  8.42347E+04  3.38019E+05 -1.32353E+05  2.49965E+05
 -1.89743E+05  8.08053E+04 -1.14198E+05 -3.41720E+04 -4.55532E+02 -4.97388E+04  5.46742E+04 -5.08410E+02
  3.51110E+04  5.42877E+04 -1.56911E+04  7.69523E+04 -6.09848E+04  6.31970E+04 -8.41529E+04  3.14625E+04
 -8.14991E+04 -1.12752E+04 -5.81560E+04 -5.29542E+04 -1.65582E+04 -7.00372E+04  2.77821E+04 -4.45159E+04
  4.14280E+04  5.63726E+03  1.61798E+04  4.85170E+04 -3.48629E+04  4.77046E+04 -6.63630E+04  4.18076E+02
 -5.61946E+04 -5.67502E+04 -8.57803E+03 -7.91057E+04  3.38402E+04 -5.62585E+04  4.99489E+04 -1.69824E+04
  4.47850E+04  1.16546E+04  3.12709E+04  2.61228E+04  1.62183E+04  3.03281E+04 -5.69331E+03  2.77264E+04
 -2.37238E+04  1.14227E+04 -1.76827E+04 -5.88827E+03  7.45191E+03 -6.98065E+03  2.32582E+04  1.40871E+04
  6.56283E+03  3.56250E+04 -3.39639E+04  3.69618E+04 -6.69369E+04  2.88496E+03 -5.92269E+04 -4.57829E+04
 -1.37186E+04 -6.49012E+04  4.04833E+04 -4.67583E+04  6.25626E+04 -2.40024E+03  3.55200E+04  3.36666E+04
 -6.15922E+03  3.90388E+04 -3.19502E+04  1.95805E+04 -3.31556E+04 -2.90798E+03 -1.87262E+04 -1.30852E+04
 -9.21637E+03 -1.46429E+04 -6.65046E+02 -1.94567E+04  7.63330E+03 -2.44428E+04  1.61694E+04 -1.36904E+04
  1.10162E+04  7.10110E+03 -1.11256E+04  1.13639E+04 -2.31456E+04 -5.99673E+03 -8.55875E+03 -3.70468E+04
  2.45339E+04 -4.59458E+04  5.10440E+04 -2.08377E+04  4.83936E+04  2.09605E+04  1.61187E+04  4.82697E+04
 -1.66918E+04  3.65554E+04 -2.64103E+04  3.30830E+03 -1.30212E+04 -2.96226E+04  2.00659E+04 -3.63381E+04
  4.36086E+04 -1.17194E+04  4.00585E+04  2.60648E+04  1.97075E+04  4.94435E+04 -7.56582E+03  5.42314E+04
 -3.50236E+04  3.61184E+04 -4.53760E+04  1.17829E+04 -4.72056E+04 -1.79742E+04 -2.43835E+04 -4.14612E+04
  8.26359E+03 -4.04779E+04  3.25961E+04 -1.65918E+04  3.12445E+04  9.75409E+03  3.68566E+03  2.15647E+04
 -1.26598E+04  1.00853E+04 -1.21784E+04 -7.58611E+03  4.17834E+03 -1.22810E+04  1.76887E+04  6.55923E+03
  1.36383E+04  2.17792E+04 -6.58681E+03  2.70015E+04 -2.21098E+04  1.33104E+04 -3.16064E+04 -4.66380E+03
 -2.35161E+04 -1.78221E+04 -9.59939E+03 -2.34248E+04  3.92985E+03 -2.55067E+04  1.71285E+04 -2.24226E+04
  3.12630E+04 -1.35721E+04  3.68494E+04  6.45325E+03  2.49760E+04  2.43986E+04  3.64372E+03  4.05454E+04
 -1.86758E+04  3.19665E+04 -3.01083E+04  1.27314E+04 -2.17124E+04 -9.44355E+03 -5.31658E+03 -1.29247E+04
  1.66452E+01 -5.05814E+01 -7.18309E+03  8.84538E+03 -1.90855E+04  5.40051E+03 -1.86673E+04 -1.03950E+04
 -1.16763E+04 -2.35292E+04  6.33429E+03 -2.57755E+04  1.96054E+04 -1.91513E+04  2.09113E+04 -1.12871E+03
  1.61224E+04  1.50775E+04 -1.59688E+03  2.32742E+04 -1.62745E+04  1.30278E+04 -2.27131E+04 -5.46039E+03
 -1.69458E+04 -1.93057E+04 -2.47704E+03 -2.76882E+04  1.20040E+04 -2.27961E+04  2.21909E+04 -1.20913E+04
  2.22661E+04 -7.68424E+02  1.56125E+04  5.86219E+03  8.93417E+03  7.92139E+02  1.31568E+04 -4.30299E+02
  2.14420E+04  2.50953E+03  2.44808E+04  1.90608E+04  1.59944E+04  3.66968E+04 -9.93209E+02  4.20109E+04
 -2.33421E+04  3.73172E+04 -4.12022E+04  1.78142E+04 -4.27266E+04 -3.23337E+03 -3.56968E+04 -2.41800E+04
 -1.31184E+04 -3.38444E+04  1.39473E+04 -3.18931E+04  2.68485E+04 -1.55529E+04  2.33284E+04  8.22632E+03
  7.06643E+03  1.79416E+04 -1.07049E+04  1.54373E+04 -2.01122E+04  2.55626E+03 -1.42569E+04 -1.13562E+04
  7.41767E+02 -1.71102E+04  9.10626E+03 -1.32977E+04  1.24181E+04 -2.03761E+03  1.60507E+03  8.10614E+03
 -8.65295E+03  2.88718E+03 -8.27372E+03 -6.27979E+03 -3.37533E+02 -1.74033E+04  1.27362E+04 -1.86862E+04
  2.13789E+04 -1.13048E+04  2.42758E+04  3.38484E+03  2.08726E+04  1.80994E+04  1.06958E+04  2.67366E+04
 -4.74279E+03  3.02979E+04 -1.99954E+04  1.83827E+04 -2.13049E+04  3.77355E+03 -1.45933E+04 -6.24531E+03
 -6.29643E+03 -9.05985E+03 -8.82531E+02  2.33559E+03 -2.69666E+03  2.88002E+03 -6.17767E+03  2.37583E+03
 -1.40524E+04  1.74973E+02 -1.42419E+04 -9.81923E+03 -6.22372E+03 -1.81224E+04  5.58193E+03 -1.49811E+04
  1.33857E+04 -5.64336E+03  8.48560E+03  4.35294E+03 -1.43177E+03  5.42133E+03 -6.36413E+03 -4.27091E+02
 -6.40908E+03 -8.92757E+03 -9.07481E+02 -1.46217E+04  9.04607E+03 -1.64202E+04  1.72607E+04 -7.32728E+03
  2.06900E+04  3.05840E+03  1.50866E+04  1.15010E+04  3.66254E+03  1.64546E+04 -9.88123E+03  1.39926E+04
 -1.29967E+04  6.55438E+03 -5.53929E+03 -4.21263E+03  2.52289E+03 -3.72172E+03  6.13932E+03 -1.69126E+03
  6.37857E+03  5.87433E+03  1.30581E+03  1.22462E+04 -1.00979E+04  1.12966E+04 -1.47906E+04  2.94416E+03
 -1.08490E+04 -9.26641E+03  8.92209E+02 -1.45629E+04  7.26126E+03 -6.30774E+03  8.57690E+03  3.45778E+03
  1.17220E+03  9.00266E+03 -8.22055E+03  1.08979E+04 -1.55286E+04  5.97067E+03 -1.29879E+04 -4.73978E+03
 -7.02346E+03 -1.52013E+04  3.67160E+03 -1.71120E+04  1.53800E+04 -1.01178E+04  1.59844E+04  2.22976E+03
  9.22240E+03  1.21320E+04 -9.27323E+02  1.41118E+04 -1.12774E+04  8.17431E+03 -1.10008E+04 -2.20756E+03
 -9.59798E+03 -9.07127E+03 -2.48314E+03 -1.04800E+04  4.76138E+03 -7.89365E+03  9.12797E+03 -4.14743E+03
  4.57102E+03 -2.35888E+01  1.93563E+02  1.58367E+03 -1.47882E+03 -4.30787E+03  3.13022E+03 -7.05997E+03
  1.14269E+04 -3.96697E+03  1.67179E+04  1.84221E+03  1.61706E+04  1.19374E+04  9.80977E+03  2.02732E+04
 -4.12864E+03  2.18031E+04 -1.94494E+04  1.71802E+04 -2.44662E+04  3.52893E+03 -2.03975E+04 -9.58583E+03
 -9.77697E+03 -1.74101E+04 -7.40433E+02 -1.47671E+04  4.63946E+03 -6.77057E+03  3.88064E+03 -5.10259E+03
  2.94902E+03 -3.08772E+03  2.49843E+03 -5.83101E+03  5.75869E+03 -2.30606E+03  6.89989E+03 -2.60632E+03
  1.13250E+04  1.80206E+03  4.42150E+03  9.02714E+03 -1.76250E+03  1.21594E+04 -1.09719E+04  7.69175E+03
 -1.29713E+04 -8.72269E+02 -8.87560E+03 -9.94607E+03 -2.42534E+03 -1.49271E+04  8.13476E+03 -1.40972E+04
  1.45703E+04 -8.04273E+03  1.68371E+04  2.45135E+03  1.16923E+04  1.14519E+04  1.70009E+03  1.54195E+04
 -6.76757E+03  1.32632E+04 -1.10975E+04  4.02842E+03 -6.46143E+03 -3.56694E+03 -2.32207E+03 -2.56221E+03
 -1.50196E+03 -1.83295E+03 -2.63959E+03  1.20269E+03 -6.04430E+03  2.93662E+03 -9.59001E+03 -9.20674E+02
 -6.19066E+03 -9.60045E+03  1.18135E+03 -1.39654E+04  8.60588E+03 -1.28138E+04  1.59657E+04 -5.08404E+03
  1.34545E+04  5.26759E+03  5.38747E+03  1.29933E+04 -3.29138E+03  1.48718E+04 -1.03948E+04  1.02188E+04
 -1.40204E+04  1.12071E+03 -1.06360E+04 -9.15912E+03 -1.49580E+03 -1.24477E+04  4.77292E+03 -9.22126E+03
  8.32298E+03 -3.03361E+03  7.03825E+03  3.72879E+03  3.12205E+03  3.71260E+03  1.49888E+03  1.82078E+03
  3.23993E+03  1.60587E+03  3.21218E+03  2.68806E+03  4.44433E+03  4.62453E+03  4.43794E+03  8.62495E+03
 -3.58783E+03  1.14144E+04 -8.91102E+03  1.00716E+04 -1.52454E+04  2.66568E+03 -1.56934E+04 -5.39982E+03
 -7.00918E+03 -1.49828E+04  2.69778E+03 -1.52783E+04  9.24617E+03 -8.23301E+03  1.26460E+04 -3.53336E+03
  8.66808E+03  5.43025E+03  2.41490E+03  8.95006E+03 -3.82144E+03  4.50775E+03 -4.27490E+03 -6.67840E+02
 -2.31754E+03 -5.70864E+03  2.45150E+03 -7.16260E+03  6.55511E+03 -3.41679E+03  5.22072E+03  1.55138E+03
  4.36423E+03  2.60866E+03  2.23852E+03  4.40251E+03 -1.62884E+03  3.10439E+03  2.67509E+03 -1.52010E+01
  2.94570E+03 -1.27930E+03  4.86745E+03  1.93484E+03  4.00498E+03  9.04687E+03 -1.21164E+03  1.02383E+04
 -5.34303E+03  6.37179E+03 -9.08082E+03  2.15150E+03 -7.30704E+03 -3.51529E+03 -4.63701E+03 -6.91558E+03
  1.48404E+03 -5.52219E+03  4.67194E+03 -2.43157E+03  3.42324E+03  2.59646E+03 -1.62839E+02  5.25817E+03
 -7.37360E+03  3.91084E+03 -6.60371E+03 -1.64032E+03 -3.79350E+03 -8.36608E+03  8.34401E+02 -8.23868E+03
  3.27711E+03 -4.59692E+03  4.39156E+03 -5.66977E+02  3.50245E+03  1.26785E+03  8.30049E+02  6.54444E+03
 -2.57851E+03  2.16989E+03 -4.01982E+03 -3.75297E+03  1.78726E+03 -7.00211E+03  7.45858E+03 -5.68179E+03
  9.14860E+03  4.40103E+02  9.79989E+03  7.87969E+03  3.14829E+03  9.07645E+03 -1.61154E+03  8.83586E+03
 -8.38861E+03  4.50266E+03 -8.68225E+03 -3.63511E+02 -4.63141E+03 -6.15108E+03  2.21327E+03 -5.30304E+03
  5.72489E+03 -3.39109E+03  4.15592E+03  1.70006E+03  1.00230E+03  5.50143E+03 -6.76108E+02  5.26531E+03
 -1.75819E+03  3.98553E+03 -1.96584E+03  5.92987E+02 -1.40623E+03  2.20888E+03 -1.76955E+03  1.26065E+03
 -2.66938E+03  1.72009E+03 -6.65270E+03  2.85942E+03 -9.72327E+03  6.99261E+02 -1.05390E+04 -5.02523E+03
 -6.43802E+03 -1.32088E+04  3.39581E+03 -1.29967E+04  7.74832E+03 -1.11786E+04  1.44921E+04 -4.70809E+03
  1.18146E+04  3.64532E+03  7.92880E+03  9.06192E+03  2.58728E+02  1.01024E+04 -3.44171E+03  7.44961E+03
 -6.19118E+03  1.25177E+03 -3.28049E+03 -1.54117E+03 -4.47589E+01 -4.08023E+02 -7.18543E+02 -3.72913E+02
 -1.22849E+03  8.67731E+02 -2.77265E+03 -3.21040E+02  7.63088E+02 -2.11629E+03  1.10463E+03 -3.99703E+03
  2.83739E+03 -2.41773E+03  6.65428E+03 -4.02638E+02  7.09332E+03  5.79414E+03  1.07807E+03  9.27133E+03
 -5.52910E+03  1.09692E+04 -1.09295E+04  6.83740E+03 -1.19683E+04 -7.52532E+02 -7.78707E+03 -8.48104E+03
 -4.93661E+03 -9.28498E+03  2.43488E+03 -1.13457E+04  6.37636E+03 -4.94411E+03  7.07044E+03 -3.22082E+02
  3.75296E+03  2.89679E+03 -8.56698E+02  2.41395E+03 -2.53651E+03 -5.94289E+02  4.93923E+02 -9.07120E+02
  2.86724E+03 -3.01066E+03  2.61670E+03  1.66283E+03  3.45486E+03  4.62544E+03  1.58019E+02  5.86425E+03
 -6.75988E+03  4.03807E+03 -7.40924E+03 -6.18472E+01 -5.43486E+03 -5.49618E+03  2.88189E+02 -8.92867E+03
  4.51160E+03 -6.97412E+03  7.50836E+03 -2.87123E+03  9.03162E+03  1.01531E+03  5.30771E+03  7.00460E+03
  1.04957E+03  5.73424E+03 -2.29248E+03  4.97984E+03 -4.12736E+03  3.67901E+03 -3.73899E+03 -2.23998E+02
 -9.58753E+01  3.66404E+02 -9.74139E+02 -2.55310E+02 -2.89744E+03 -3.10692E+02 -4.31342E+03 -2.02475E+02
 -4.46639E+03 -3.83510E+03  3.45430E+02 -5.77617E+03  3.97923E+03 -6.96080E+03  6.98306E+03 -3.26900E+03
  5.85471E+03  2.01583E+03  3.70775E+03  5.71144E+03 -1.03464E+03  6.53902E+03 -4.62103E+03  4.02293E+03
