 $NMID ID='MM_0lb_SNR200_13hz_g40_45.RAW', FMTDAT='(8E13.5)'
 TRAMP=1., VOLUME=1. $END
  3.08307E+05  5.00958E+02  3.37613E+05  2.51226E+05  8.47114E+04  3.36426E+05 -1.31324E+05  2.51633E+05
 -1.90816E+05  8.23243E+04 -1.11970E+05 -3.27059E+04  6.10389E+02 -5.06160E+04  5.32109E+04  4.81784E+02
  3.41894E+04  5.18984E+04 -1.83311E+04  7.44368E+04 -6.20006E+04  6.22567E+04 -8.39245E+04  3.34926E+04
 -8.06174E+04 -1.16935E+04 -5.66116E+04 -5.15312E+04 -1.51451E+04 -6.93329E+04  2.68191E+04 -4.55290E+04
  3.96735E+04  3.44411E+03  1.62395E+04  4.81471E+04 -3.37519E+04  4.62791E+04 -6.65583E+04  1.49760E+01
 -5.38405E+04 -5.68670E+04 -7.21503E+03 -7.60851E+04  3.41295E+04 -5.61452E+04  4.75700E+04 -1.68469E+04
  4.19667E+04  1.34272E+04  3.23821E+04  2.56414E+04  1.49470E+04  2.91452E+04 -6.55968E+03  2.80492E+04
 -2.25271E+04  1.30802E+04 -1.86186E+04 -3.01597E+03  5.66859E+03 -6.71244E+03  2.24366E+04  1.30546E+04
  6.48449E+03  3.48966E+04 -3.16026E+04  3.56435E+04 -6.22397E+04  2.76708E+03 -5.64220E+04 -4.16880E+04
 -1.31894E+04 -6.22535E+04  3.95988E+04 -4.55691E+04  5.76101E+04 -1.05896E+03  3.39700E+04  3.24930E+04
 -5.89919E+03  3.52941E+04 -3.00737E+04  1.51645E+04 -2.90944E+04 -3.87795E+03 -1.66459E+04 -1.04764E+04
 -8.18798E+03 -1.32024E+04 -4.56492E+02 -1.94113E+04  7.69296E+03 -2.35414E+04  1.61754E+04 -1.30648E+04
  1.21654E+04  4.73835E+03 -8.30337E+03  1.24340E+04 -2.08296E+04 -4.23660E+03 -8.49691E+03 -3.34743E+04
  2.23097E+04 -4.27214E+04  4.65224E+04 -1.85901E+04  4.41824E+04  1.81978E+04  1.46124E+04  4.45953E+04
 -1.56380E+04  3.32446E+04 -2.64343E+04  1.85335E+03 -1.14099E+04 -2.73687E+04  2.09966E+04 -3.52725E+04
  4.09081E+04 -7.90499E+03  3.55909E+04  2.46351E+04  1.79261E+04  4.60610E+04 -8.27833E+03  4.95135E+04
 -3.20856E+04  3.28829E+04 -4.19257E+04  9.76805E+03 -4.25394E+04 -1.61560E+04 -2.25518E+04 -3.85947E+04
  7.35312E+03 -3.80703E+04  3.13623E+04 -1.40076E+04  2.96939E+04  1.01924E+04  3.82623E+03  1.92772E+04
 -1.41265E+04  7.95786E+03 -8.94658E+03 -8.18863E+03  6.48610E+03 -1.10248E+04  1.89108E+04  6.96149E+03
  1.32352E+04  2.20211E+04 -6.43718E+03  2.59289E+04 -2.25689E+04  1.17454E+04 -2.81611E+04 -5.00656E+03
 -2.07939E+04 -1.80194E+04 -8.99324E+03 -2.07007E+04  3.89774E+03 -1.88537E+04  1.63221E+04 -1.76408E+04
  2.79240E+04 -1.20810E+04  3.14428E+04  2.23444E+03  2.37480E+04  2.17755E+04  4.39040E+03  3.63281E+04
 -1.73298E+04  3.08314E+04 -2.77896E+04  1.04823E+04 -2.08448E+04 -1.05805E+04 -5.32831E+03 -1.32091E+04
  1.46675E+03 -2.18533E+03 -3.79073E+03  6.48203E+03 -1.67943E+04  5.09240E+03 -1.60854E+04 -7.19666E+03
 -9.78972E+03 -1.94885E+04  5.64246E+03 -2.43290E+04  1.65980E+04 -1.62305E+04  1.78455E+04 -1.86983E+03
  1.09852E+04  1.33427E+04 -7.43012E+02  1.89994E+04 -1.34484E+04  1.09230E+04 -1.90030E+04 -4.73099E+03
 -1.38801E+04 -1.76603E+04 -2.84833E+03 -2.18643E+04  1.04844E+04 -1.78341E+04  1.95781E+04 -1.01604E+04
  1.96022E+04 -1.83784E+02  1.27526E+04  4.04858E+03  6.34879E+03  1.48760E+03  8.61612E+03 -9.95207E+02
  1.83492E+04  2.97588E+03  1.91731E+04  1.55039E+04  1.31530E+04  3.05552E+04 -2.93289E+03  3.32591E+04
 -1.89476E+04  2.73748E+04 -3.22836E+04  1.26499E+04 -3.27272E+04 -3.81485E+03 -2.83027E+04 -1.90175E+04
 -1.11971E+04 -2.89763E+04  9.06095E+03 -2.40804E+04  2.10408E+04 -1.40616E+04  1.88282E+04  4.14688E+03
  6.92904E+03  1.42233E+04 -9.50049E+03  1.27317E+04 -1.63273E+04  2.02758E+03 -1.31955E+04 -9.19932E+03
 -1.12874E+03 -1.50968E+04  7.95420E+03 -1.10298E+04  1.11477E+04 -1.67934E+03  2.34950E+03  6.43597E+03
 -7.07936E+03  1.58170E+03 -7.31358E+03 -6.75627E+03 -9.00679E+02 -1.38363E+04  9.59878E+03 -1.49472E+04
  1.67266E+04 -7.84541E+03  1.73999E+04  2.84969E+03  1.69810E+04  1.28098E+04  6.31013E+03  2.10770E+04
 -3.22827E+03  2.25765E+04 -1.45038E+04  1.35390E+04 -1.55959E+04  4.41824E+03 -1.27228E+04 -2.86610E+03
 -6.52142E+03 -5.25709E+03 -1.07629E+03  1.31498E+03 -2.29372E+03  2.43634E+03 -5.47028E+03  5.14480E+03
 -1.09689E+04  1.31356E+03 -1.14850E+04 -9.68636E+03 -3.98009E+03 -1.54451E+04  4.50767E+03 -1.11939E+04
  9.49245E+03 -4.52509E+03  6.34699E+03  3.66111E+03 -4.43895E+02  4.23189E+03 -6.36252E+03  1.56015E+02
 -4.78864E+03 -7.46072E+03 -9.33378E+02 -1.17112E+04  5.07104E+03 -1.23644E+04  1.30104E+04 -5.35464E+03
  1.67258E+04  7.44361E+02  1.24389E+04  8.27916E+03  2.35550E+03  1.23694E+04 -6.89458E+03  1.14645E+04
 -1.05488E+04  2.22301E+03 -4.84771E+03 -2.42812E+03  5.95402E+02 -2.94833E+03  6.14714E+03 -5.48449E+02
  4.76863E+03  4.40315E+03  1.91360E+03  9.25895E+03 -6.21009E+03  7.47781E+03 -1.04883E+04  2.85522E+03
 -7.50393E+03 -5.58817E+03 -5.55042E+01 -1.02456E+04  5.54492E+03 -4.89003E+03  5.70802E+03  2.23121E+03
  4.96792E+02  7.21757E+03 -6.60865E+03  7.69713E+03 -8.84410E+03  3.99572E+03 -8.44775E+03 -2.52443E+03
 -5.05847E+03 -9.30920E+03  3.04329E+03 -1.18496E+04  9.82668E+03 -7.28248E+03  1.04809E+04  3.94976E+02
  7.91129E+03  8.44923E+03  1.40449E+02  1.06090E+04 -8.58971E+03  5.54240E+03 -1.00759E+04 -9.45469E+02
 -8.03335E+03 -7.14250E+03 -1.55729E+03 -7.61200E+03  4.32126E+03 -7.14828E+03  6.31556E+03 -2.27547E+03
  3.19836E+03  2.27292E+03 -3.13124E+02  3.31400E+02 -5.19276E+02 -1.17952E+03  1.86749E+03 -4.57335E+03
  6.79344E+03 -2.14503E+03  9.87608E+03  4.14761E+02  8.80434E+03  6.42211E+03  7.45344E+03  1.22487E+04
 -2.42543E+03  1.44722E+04 -1.24599E+04  1.08792E+04 -1.68414E+04  2.28663E+03 -1.37935E+04 -5.25250E+03
 -6.64753E+03 -1.07806E+04  3.94429E+02 -8.22334E+03  4.30441E+03 -4.32049E+03  2.74606E+03 -2.59757E+03
  2.82224E+03 -2.95279E+03  4.11837E+03 -2.25198E+03  5.17405E+03 -2.54579E+03  6.07852E+03  1.48377E+03
  6.44366E+03  1.05759E+03  3.24295E+03  5.58562E+03 -2.51110E+03  7.26696E+03 -7.88870E+03  4.82262E+03
 -9.91411E+03 -1.08602E+02 -4.93067E+03 -7.09328E+03 -1.07659E+03 -9.30952E+03  6.35032E+03 -9.82957E+03
  9.02638E+03 -4.78595E+03  1.15071E+04  2.87742E+02  7.30043E+03  6.94565E+03  9.64581E+02  1.12648E+04
 -4.43255E+03  9.91717E+03 -5.33193E+03  4.06645E+03 -3.53802E+03 -2.29293E+03 -1.96018E+03 -1.43907E+03
 -1.99695E+03 -2.63203E+02 -1.50453E+03  1.13525E+03 -4.59802E+03  2.33307E+03 -6.66085E+03 -6.56683E+02
 -3.26678E+03 -6.32288E+03  8.03517E+01 -9.69330E+03  5.22914E+03 -8.00804E+03  8.81977E+03 -6.88086E+02
  9.40455E+03  4.07225E+03  4.38835E+03  8.06473E+03 -1.78063E+03  8.47129E+03 -5.99365E+03  3.95639E+03
 -7.46073E+03  1.41369E+03 -6.82226E+03 -5.80056E+03 -1.64645E+03 -6.31488E+03  3.48525E+03 -4.54900E+03
  6.55117E+03 -2.39386E+03  2.28293E+03  1.98291E+03  1.68252E+03  2.64133E+03  1.95303E+02  7.59120E+02
  3.07859E+03 -5.23089E+02  2.25516E+03  3.88004E+02  1.65324E+03  3.95793E+03  2.29498E+03  4.51451E+03
 -2.66979E+03  7.48704E+03 -5.48921E+03  8.18830E+03 -8.22351E+03  1.19976E+03 -9.00582E+03 -3.21010E+03
 -3.58839E+03 -7.64634E+03  9.23546E+02 -8.42861E+03  3.56033E+03 -5.41088E+03  6.55472E+03 -8.53083E+02
  5.18623E+03  3.55585E+03  1.24224E+03  4.94692E+03 -2.76523E+03  3.23392E+03 -3.40986E+03 -8.25999E+02
 -1.14834E+03 -3.19154E+03  1.96417E+03 -2.90440E+03  3.56552E+03  1.09207E+02  1.74021E+03 -4.72034E+02
  2.48406E+03  2.25437E+03  1.58137E+03  1.82088E+03 -6.47057E+02  1.40303E+03  1.03600E+01 -2.51110E+02
  1.45999E+03 -9.86254E+02  4.18320E+03  2.41515E+03  1.46742E+03  5.32266E+03 -9.32860E+02  5.64063E+03
 -3.03045E+03  3.40429E+03 -6.10767E+03  4.17784E+01 -5.41447E+03 -1.96210E+03 -8.99754E+02 -3.45100E+03
  1.30959E+03 -3.80793E+03  1.89692E+03 -1.45406E+03  1.27464E+03  1.54179E+03 -6.87118E+02  2.20016E+03
 -3.29918E+03  1.79446E+03 -3.34458E+03 -2.68521E+03 -1.18642E+03 -4.82558E+03  3.90174E+02 -2.08607E+03
  2.34189E+03 -1.28632E+03  2.99356E+03  3.10256E+02  2.07666E+03  8.13452E+02  7.74428E+02  2.49793E+03
 -1.83302E+03  2.34096E+02 -1.71635E+03 -2.33820E+03  3.44053E+02 -2.61209E+03  3.81897E+03 -3.27144E+03
  3.71979E+03 -4.36775E+02  6.32345E+03  1.85505E+03  2.27909E+03  5.05727E+03 -3.29412E+03  4.31809E+03
 -4.36047E+03  2.41819E+03 -4.15930E+03 -7.57246E+02 -2.58917E+03 -3.45354E+03  1.15728E+03 -3.24427E+03
  3.90000E+03 -1.73633E+03  3.05605E+03  1.22271E+03  7.78868E+02  2.09803E+03  6.17820E+02  2.85094E+03
 -9.46991E+02  2.25222E+03 -1.35845E+03  5.68190E+02 -2.61750E+02 -8.59701E+02 -2.07492E+03  5.24844E+02
 -7.38171E+02  2.92320E+03 -3.60674E+03  3.11022E+03 -3.32303E+03 -5.64120E+02 -4.67559E+03 -3.81138E+03
 -3.40283E+03 -5.60415E+03  3.38192E+02 -7.16644E+03  3.81931E+03 -6.37276E+03  6.82210E+03 -2.55184E+03
  6.79440E+03  1.72271E+03  4.55495E+03  3.23877E+03 -4.81483E+02  4.69659E+03 -2.81899E+03  4.71812E+03
 -3.24057E+03  2.77479E+02 -1.33962E+03  2.68712E+01 -2.82765E+02 -5.90787E+02 -1.76096E+03  7.83155E+02
 -1.40339E+03  1.65541E+02 -2.97538E+03  8.05564E+02  1.62930E+02 -1.69587E+03 -7.29788E+01 -3.01150E+03
  1.24391E+03 -1.29155E+03  3.14024E+03 -9.97098E+02  3.62405E+03  3.02989E+03  1.86403E+03  5.27116E+03
 -1.25779E+03  6.06907E+03 -5.39091E+03  3.37129E+03 -6.05135E+03 -6.19597E+02 -3.29830E+03 -4.60178E+03
 -2.67019E+03 -4.84420E+03  1.10813E+02 -4.75029E+03  2.49650E+03 -2.67671E+03  2.35445E+03  1.45119E+03
  2.07882E+03  1.37599E+03 -1.11258E+03  2.29986E+02 -1.31580E+03 -6.67335E+02  3.49251E+02 -4.07520E+02
  2.09402E+03  3.23381E+02  1.61584E+03  1.46932E+03  1.01639E+02  1.19895E+03 -8.70875E+02  1.60126E+03
 -7.44969E+02  1.91785E+03 -2.49491E+03  4.62240E+02 -2.11387E+03 -1.73883E+03  1.33122E+03 -4.26235E+03
  1.81265E+03 -2.49264E+03  3.56132E+03 -1.22348E+03  2.83731E+03 -2.65706E+02  1.82583E+03  4.16799E+03
  1.08867E+03  1.85826E+03 -8.18305E+02  2.09292E+03 -2.77114E+03  1.03109E+03 -1.73179E+03  2.01188E+02
  8.82801E+02 -1.01737E+03 -7.64031E+02  3.66464E+02 -4.94583E+02  6.10799E+02 -2.31297E+03  5.39113E+02
 -2.52640E+03 -1.56766E+02  2.65074E+02 -1.90026E+03  2.01006E+03 -3.93439E+03  4.35357E+03 -2.43256E+03
  3.11062E+03  1.13924E+03  3.55430E+02  1.76271E+03 -4.28256E+02  3.14356E+03 -1.79032E+03  8.77048E+02
