 $NMID ID='MM_0lb_SNR200_20hz_g55_1.RAW', FMTDAT='(8E13.5)'
 TRAMP=1., VOLUME=1. $END
  3.09320E+05 -2.22848E+02  3.37709E+05  2.49664E+05  8.48605E+04  3.37985E+05 -1.32627E+05  2.48793E+05
 -1.90262E+05  8.30530E+04 -1.11333E+05 -3.28413E+04  5.24540E+02 -5.04675E+04  5.43979E+04  2.49821E+02
  3.40240E+04  5.37909E+04 -1.66107E+04  7.53543E+04 -6.16187E+04  6.24278E+04 -8.28999E+04  3.13834E+04
 -8.07865E+04 -1.19418E+04 -5.63916E+04 -5.11073E+04 -1.52449E+04 -6.82925E+04  2.71343E+04 -4.43042E+04
  3.89572E+04  4.32915E+03  1.56014E+04  4.60957E+04 -3.45482E+04  4.58801E+04 -6.64590E+04 -1.00772E+03
 -5.22190E+04 -5.58599E+04 -6.49704E+03 -7.43537E+04  3.35301E+04 -5.28116E+04  4.67319E+04 -1.64112E+04
  4.21621E+04  1.01789E+04  3.12090E+04  2.39850E+04  1.66115E+04  2.91260E+04 -4.63200E+03  2.73613E+04
 -2.25878E+04  1.21054E+04 -2.04936E+04 -4.90419E+03  3.81870E+03 -7.78961E+03  2.09176E+04  1.12434E+04
  7.16595E+03  3.45195E+04 -2.94933E+04  3.34737E+04 -6.18288E+04  1.64662E+03 -5.62098E+04 -4.17202E+04
 -1.18830E+04 -6.19706E+04  3.94708E+04 -4.37150E+04  5.50539E+04 -2.18149E+03  3.11146E+04  3.06141E+04
 -7.03077E+03  3.33771E+04 -2.85793E+04  1.43995E+04 -2.79407E+04 -4.92007E+03 -1.38093E+04 -1.02937E+04
 -7.39196E+03 -1.25166E+04 -9.98686E+02 -1.68303E+04  6.15563E+03 -2.34728E+04  1.49613E+04 -1.47907E+04
  1.23390E+04  4.73687E+03 -6.50196E+03  1.25982E+04 -1.97004E+04 -2.41288E+03 -9.00474E+03 -2.94075E+04
  2.11888E+04 -4.02226E+04  4.54456E+04 -1.78091E+04  4.31412E+04  1.80249E+04  1.38918E+04  4.14706E+04
 -1.52117E+04  3.13901E+04 -2.26163E+04  1.65946E+03 -7.31292E+03 -2.60926E+04  2.16061E+04 -3.10453E+04
  3.81798E+04 -6.57281E+03  3.23446E+04  2.26937E+04  1.57614E+04  4.21954E+04 -8.42273E+03  4.50328E+04
 -2.81996E+04  3.01023E+04 -3.68107E+04  7.62714E+03 -3.85858E+04 -1.56692E+04 -2.08810E+04 -3.51646E+04
  7.19743E+03 -3.40887E+04  2.98451E+04 -1.34459E+04  2.66783E+04  1.09761E+04  3.45180E+03  1.83245E+04
 -1.29725E+04  7.49243E+03 -9.74486E+03 -7.91999E+03  5.67200E+03 -1.07395E+04  1.77435E+04  6.78399E+03
  1.31378E+04  2.13084E+04 -6.55311E+03  2.32731E+04 -2.16405E+04  9.51641E+03 -2.53802E+04 -6.09221E+03
 -1.64890E+04 -1.62870E+04 -6.36980E+03 -1.67973E+04  3.19404E+03 -1.45262E+04  1.20274E+04 -1.50099E+04
  2.15007E+04 -1.17637E+04  2.74705E+04  1.51344E+03  2.13172E+04  1.62961E+04  4.12716E+03  3.30064E+04
 -1.55959E+04  2.65906E+04 -2.54218E+04  9.41808E+03 -1.89441E+04 -1.05925E+04 -3.08237E+03 -1.38902E+04
  2.35875E+03 -3.29067E+03 -2.09060E+03  5.24423E+03 -1.39076E+04  3.89389E+03 -1.33363E+04 -4.81258E+03
 -8.15893E+03 -1.54951E+04  4.63118E+03 -1.86713E+04  1.24379E+04 -1.39770E+04  1.37300E+04 -1.28913E+03
  9.27973E+03  1.08963E+04 -2.00903E+03  1.56029E+04 -1.06052E+04  8.88257E+03 -1.54590E+04 -4.22167E+03
 -1.14205E+04 -1.51959E+04 -1.46930E+03 -1.82121E+04  9.23470E+03 -1.59135E+04  1.59613E+04 -6.17375E+03
  1.42863E+04  2.89463E+02  1.07106E+04  3.65075E+03  4.69041E+03 -2.61061E+02  7.28981E+03 -1.37429E+03
  1.34324E+04  3.43831E+03  1.37884E+04  1.32122E+04  9.27437E+03  2.32688E+04 -3.52843E+03  2.56333E+04
 -1.55870E+04  1.97302E+04 -2.35271E+04  1.00968E+04 -2.36956E+04 -2.73845E+03 -2.14782E+04 -1.54111E+04
 -9.72877E+03 -1.97586E+04  6.86978E+03 -1.80128E+04  1.58788E+04 -1.07895E+04  1.52945E+04  3.54822E+03
  6.95398E+03  1.12597E+04 -7.77272E+03  1.08863E+04 -1.32946E+04  2.68787E+03 -1.06085E+04 -7.55392E+03
 -7.51048E+02 -1.19604E+04  5.77364E+03 -8.84050E+03  8.65888E+03 -1.11131E+03  1.16574E+03  3.16356E+03
 -5.51911E+03  1.41644E+03 -3.39519E+03 -5.18330E+03  7.65542E+02 -1.06696E+04  7.32269E+03 -1.01664E+04
  1.17275E+04 -4.95868E+03  1.19336E+04  2.49219E+03  9.34924E+03  9.42325E+03  4.14480E+03  1.31547E+04
 -1.61757E+03  1.45692E+04 -7.92547E+03  1.10569E+04 -1.03093E+04  2.13186E+03 -8.71938E+03 -2.42832E+03
 -3.74873E+03 -3.80855E+03 -7.25381E+02  1.29090E+03 -1.76234E+03  2.75937E+03 -2.22259E+03  3.26860E+03
 -7.83439E+03 -9.52004E+02 -8.10509E+03 -6.71628E+03 -2.94712E+03 -1.09522E+04  3.49100E+03 -8.23522E+03
  6.29062E+03 -3.54129E+03  5.01952E+03  1.77364E+03  2.26005E+02  3.81474E+03 -3.41313E+03  5.67493E+02
 -2.33044E+03 -5.55183E+03 -6.33147E+01 -6.42423E+03  3.56747E+03 -8.48155E+03  9.48537E+03 -3.99657E+03
  1.16163E+04  2.58537E+02  8.64030E+03  5.71830E+03  1.41762E+03  8.07603E+03 -3.68188E+03  8.21637E+03
 -6.38269E+03  2.78352E+03 -2.42989E+03 -9.96343E+02  6.59952E+02 -7.79253E+02  4.80128E+03 -1.54583E+03
  3.32751E+03  3.26744E+03  1.60831E+03  5.88675E+03 -4.87677E+03  5.41951E+03 -8.29097E+03  1.84625E+03
 -4.03043E+03 -3.55310E+03  8.70837E+02 -6.09539E+03  2.11666E+03 -2.84439E+03  2.82017E+03  1.41375E+03
 -7.60637E+01  2.46723E+03 -2.77538E+03  5.06976E+03 -3.75222E+03  2.23723E+03 -4.13650E+03 -6.30722E+02
 -2.03461E+03 -5.60290E+03  5.23295E+02 -6.73156E+03  5.53499E+03 -4.01620E+03  5.95000E+03  5.98424E+02
  4.08161E+03  5.60678E+03  4.00117E+02  7.61534E+03 -5.34068E+03  4.63633E+03 -4.53901E+03 -8.49788E+02
 -5.73261E+03 -5.63294E+03 -1.48715E+03 -4.44698E+03  2.84863E+03 -3.30498E+03  2.64244E+03 -2.77031E+03
  1.72677E+03 -1.17112E+02 -5.50804E+02  1.67064E+03 -1.00721E+02  3.82663E+02  8.22872E+01 -1.05809E+03
  3.71983E+03 -3.09507E+02  5.17537E+03  1.48557E+03  4.60107E+03  2.89131E+03  5.51161E+03  5.67505E+03
 -1.00724E+03  7.27754E+03 -7.35478E+03  5.76749E+03 -8.60158E+03  1.44846E+03 -7.53417E+03 -2.41464E+03
 -3.91914E+03 -6.00717E+03 -1.02624E+03 -4.62333E+03  1.49527E+03 -2.31484E+03  1.54150E+03 -2.09700E+03
  1.48021E+01 -1.81181E+03  1.57103E+03 -2.13927E+03  4.52989E+03 -1.55046E+03  3.70136E+03 -2.34076E+02
  4.03473E+03  1.99877E+03  1.02357E+03  3.20989E+03 -1.67384E+03  1.19826E+03 -3.91738E+03  2.40284E+03
 -4.68054E+03 -1.49914E+03 -1.66479E+03 -2.35531E+03  8.75901E+02 -4.15949E+03  2.05514E+03 -6.02619E+03
  4.20023E+03 -2.97075E+03  6.14123E+03  3.64517E+02  4.32665E+03  3.57723E+03  1.69251E+03  5.33802E+03
 -9.28067E+02  5.15132E+03 -2.79153E+03  1.65922E+03 -2.50431E+03 -3.04358E+02  3.98267E+02 -2.04469E+02
 -7.18351E+02  4.37301E+02 -1.94664E+02  3.12636E+03 -2.87290E+03  1.26881E+03 -3.37173E+03 -4.16802E+02
 -2.08159E+03 -4.11037E+03  1.29306E+03 -4.94837E+03  2.02744E+03 -4.18165E+03  2.93500E+03 -6.99654E+02
  2.50487E+03  1.95774E+03  1.52534E+03  2.42250E+03 -2.11286E+02  3.92142E+03 -1.34502E+03  1.56183E+03
 -2.23340E+03  8.44393E+02 -2.80787E+03 -2.42810E+03  6.79477E+01 -3.25284E+03  2.74154E+03 -1.89821E+03
  3.31054E+03 -1.06834E+03  1.38156E+03 -5.15449E+02  3.74174E+02  1.15680E+03  6.40642E+02 -2.91373E+01
  2.04615E+03  4.14464E+02  9.87621E+02  1.55996E+03  7.47732E+02  9.29149E+02  4.51055E+02  2.11873E+03
 -9.22492E+02  1.72093E+03 -8.77888E+02  3.85760E+03 -2.02773E+03  3.04429E+02 -3.44927E+03 -2.51718E+02
 -9.93774E+02 -3.17904E+03  1.24702E+03 -3.54209E+03  2.13866E+03 -1.67988E+03  2.22874E+03 -8.44817E+02
  1.32456E+03  1.37389E+03  1.91703E+02  2.33482E+03  1.88885E+02  4.55617E+02 -1.06683E+03 -6.98479E+02
 -5.66804E+02 -7.12212E+02  2.33222E+03 -5.94744E+02  8.68140E+02 -3.22691E+02  1.19860E+03 -5.58846E+02
 -2.50419E+01  8.44575E+02  1.04069E+03 -5.59465E+02 -2.96329E+02  1.72949E+03  1.14638E+03 -1.56353E+02
  1.19580E+02 -8.50532E+02  1.97297E+03 -5.85773E+02 -1.50690E+03  1.87608E+03 -2.76182E+02  1.84340E+03
 -8.70762E+02  4.09784E+02 -1.55830E+03 -4.91815E+02 -1.44679E+03 -7.88041E+02 -9.47255E+02  2.07474E+01
  3.50183E+02 -1.00497E+03  1.25225E+03 -1.06076E+03  7.34464E+02  1.83174E+03 -8.85258E+01  3.84142E+02
 -1.63411E+03  3.16485E+02 -1.01266E+03 -1.05847E+03 -1.38927E+02 -7.15264E+02  1.27004E+01 -5.60472E+02
 -1.89582E+02  6.26102E+01  6.39553E+02  5.59537E+02  1.13147E+03 -4.08328E+02  2.87986E+02  1.32236E+03
 -5.19122E+01  3.28590E+02 -1.86876E+03  5.80151E+01  1.35142E+02  3.54371E+00  1.86069E+03 -1.39622E+03
  4.76912E+02  2.72371E+02  2.17229E+03  6.41794E+02  1.64855E+03 -2.43100E+02  4.18813E+02  9.93748E+02
 -6.61868E+02 -6.81790E+02 -2.51548E+02  3.07469E+02 -5.82844E+02 -9.10400E+02  7.28173E+01 -1.03582E+02
  1.85200E+03 -1.44246E+03  5.75881E+02 -1.17758E+02 -4.16148E+02  9.11835E+02 -4.44034E+02  1.67145E+03
 -1.80387E+02 -1.82064E+01 -8.18772E+02  7.93500E+00  6.77096E+02  4.86828E+02 -2.91103E+02 -4.85674E+02
 -5.01063E+02  7.58912E+02 -2.64493E+03 -2.66822E+02 -1.25704E+03 -4.96817E+02 -1.60651E+03 -3.52318E+02
 -1.12099E+03 -1.33889E+03  5.46966E+02 -2.19069E+03  1.89944E+03 -1.36151E+03  1.11288E+03 -1.29294E+03
  2.04604E+03 -2.19786E+02  4.53369E+02  1.06621E+03 -9.00083E+02  1.74842E+02 -9.35214E+02  4.52125E+02
 -4.35266E+02  6.83348E+02  1.89101E+02 -2.44688E+01  8.24667E+01 -5.33802E+01 -5.90646E+02 -1.52135E+02
 -9.52316E+02  4.80957E+02 -3.94482E+02 -8.43158E+01  6.81584E+02 -4.00440E+00 -1.03833E+03 -5.49538E+02
  1.19732E+03 -7.13323E+02 -1.16089E+02  1.96272E+03  1.52882E+03  1.42972E+03  1.95346E+02  8.88077E+02
 -9.92976E+02  1.56449E+03 -1.26131E+03  1.43807E+03 -5.73511E+02 -1.91737E+02  2.68644E+02  7.06644E+01
 -1.16281E+03 -1.13500E+03 -2.25789E+02 -1.06207E+03  1.87929E+02  7.25311E+02  4.81264E+02  4.42203E+02
 -9.35751E+01  4.45148E+02  4.34269E+02  3.32053E+02  1.07636E+03 -4.26708E+02 -7.27881E+02  2.28592E+02
 -6.98120E+02  1.90872E+02 -5.23900E+02  3.39979E+02  6.44018E+02  1.52732E+02  5.30772E+02 -7.77589E+01
 -3.00095E+02  1.01655E+03 -4.04386E+02  1.16652E+03 -4.62937E+01 -9.75915E+01  8.74391E+01 -4.64821E+01
 -3.50438E+01 -7.87739E+02 -5.88846E+02  2.94148E+02  6.03835E+02 -1.19367E+03 -7.97824E+02  7.01769E+02
  3.88867E+02  7.16525E+02 -1.52473E+02  6.58719E+02 -4.59288E+02  9.82025E+02 -9.65332E+02 -7.71081E+01
 -1.61916E+02 -1.30544E+03  2.32006E+02  6.36198E+02 -6.98475E+02 -5.07929E+02 -1.17780E+03  1.82516E+02
 -1.41191E+03  9.30582E+02 -1.17571E+03 -8.51671E+02  4.99756E+01 -9.73449E+02  1.11138E+03 -1.00294E+02
 -4.98007E+02  1.36042E+02 -1.59150E+03  7.20432E-01  1.09650E+02  3.92527E+02 -1.09267E+03  9.74217E+02
