 $NMID ID='MM_0lb_SNR200_10hz_g55_40.RAW', FMTDAT='(8E13.5)'
 TRAMP=1., VOLUME=1. $END
  3.08684E+05 -6.81402E+02  3.38648E+05  2.51134E+05  8.41905E+04  3.38281E+05 -1.33679E+05  2.52252E+05
 -1.91197E+05  8.25371E+04 -1.12247E+05 -3.19476E+04  7.13832E+02 -5.18566E+04  5.31506E+04 -4.89599E+02
  3.66077E+04  5.29430E+04 -1.63204E+04  7.61520E+04 -6.15846E+04  6.43781E+04 -8.47334E+04  3.20353E+04
 -8.11269E+04 -1.29131E+04 -5.90848E+04 -5.20774E+04 -1.52268E+04 -7.03596E+04  2.83013E+04 -4.70601E+04
  4.05529E+04  4.09798E+03  1.61271E+04  4.84667E+04 -3.54084E+04  4.65088E+04 -6.80285E+04 -7.95638E+00
 -5.47003E+04 -5.90519E+04 -6.99456E+03 -7.97223E+04  3.31267E+04 -5.51189E+04  4.96326E+04 -1.69761E+04
  4.50471E+04  1.10343E+04  3.37520E+04  2.77716E+04  1.51337E+04  3.15563E+04 -6.19873E+03  2.76343E+04
 -2.24948E+04  1.16119E+04 -1.87690E+04 -5.54063E+03  4.87612E+03 -8.57362E+03  2.41147E+04  1.39627E+04
  6.19050E+03  3.63498E+04 -3.39098E+04  3.75694E+04 -6.58458E+04  3.69720E+03 -5.77016E+04 -4.51936E+04
 -1.29189E+04 -6.50578E+04  4.14355E+04 -4.57011E+04  6.16499E+04 -2.56931E+03  3.84041E+04  3.36911E+04
 -4.83851E+03  3.85831E+04 -3.21456E+04  1.84892E+04 -3.27308E+04 -4.06542E+03 -1.95683E+04 -1.19724E+04
 -9.63884E+03 -1.51098E+04  9.66446E+00 -1.96801E+04  8.45955E+03 -2.34239E+04  1.53209E+04 -1.12976E+04
  1.11605E+04  7.08331E+03 -1.07392E+04  1.30629E+04 -2.42040E+04 -6.31418E+03 -1.00958E+04 -3.63635E+04
  2.47200E+04 -4.58688E+04  5.18630E+04 -2.11975E+04  4.82140E+04  2.21157E+04  1.73560E+04  4.67281E+04
 -1.67959E+04  3.52841E+04 -2.75661E+04  3.25899E+03 -1.23730E+04 -2.94553E+04  2.26445E+04 -3.62309E+04
  4.28413E+04 -1.20064E+04  3.96196E+04  2.53508E+04  2.07170E+04  5.09747E+04 -9.22125E+03  5.51973E+04
 -3.43857E+04  3.89459E+04 -4.71040E+04  1.20753E+04 -4.68948E+04 -1.89073E+04 -2.52359E+04 -4.47525E+04
  9.38587E+03 -4.14437E+04  3.33001E+04 -1.62892E+04  3.18585E+04  1.18993E+04  4.38615E+03  2.09445E+04
 -1.60803E+04  9.02704E+03 -1.09333E+04 -7.42927E+03  5.93851E+03 -1.19528E+04  1.88277E+04  5.04941E+03
  1.35574E+04  2.35308E+04 -5.25620E+03  2.52787E+04 -2.29029E+04  1.32421E+04 -3.10075E+04 -4.03365E+03
 -2.36514E+04 -1.87699E+04 -1.05235E+04 -2.55484E+04  3.99790E+03 -2.48348E+04  1.87165E+04 -2.15492E+04
  3.13682E+04 -1.70914E+04  3.77498E+04  4.98644E+03  2.58942E+04  2.32350E+04  5.64083E+03  4.18430E+04
 -1.93479E+04  3.33203E+04 -3.01387E+04  1.09765E+04 -2.35062E+04 -8.97246E+03 -5.39054E+03 -1.31728E+04
 -3.86228E+01 -1.89267E+02 -8.56911E+03  9.23263E+03 -2.10534E+04  6.30276E+03 -2.01666E+04 -1.02013E+04
 -1.06909E+04 -2.27215E+04  4.89502E+03 -2.57661E+04  1.96135E+04 -1.91505E+04  2.11043E+04 -1.68118E+03
  1.41219E+04  1.53675E+04 -1.64074E+03  2.21081E+04 -1.55559E+04  1.43188E+04 -2.47853E+04 -6.05719E+03
 -1.67293E+04 -2.16831E+04 -2.45750E+03 -2.84471E+04  1.25789E+04 -2.37363E+04  2.24404E+04 -1.16593E+04
  2.02300E+04  4.55093E+01  1.56746E+04  5.36626E+03  8.43086E+03  1.57037E+03  1.18707E+04 -2.52997E+03
  2.09785E+04  3.41390E+03  2.38385E+04  1.86707E+04  1.52704E+04  3.56049E+04 -2.09277E+03  4.37225E+04
 -2.55990E+04  3.67766E+04 -4.06093E+04  1.93355E+04 -4.36592E+04 -4.06418E+03 -3.39681E+04 -2.55715E+04
 -1.38407E+04 -3.63562E+04  1.15336E+04 -3.24311E+04  2.63311E+04 -1.50384E+04  2.53759E+04  7.80151E+03
  7.27815E+03  1.73874E+04 -1.17407E+04  1.67000E+04 -1.97174E+04  2.21049E+03 -1.31703E+04 -1.22280E+04
 -1.21161E+03 -1.92823E+04  9.69489E+03 -1.32419E+04  1.22234E+04 -2.45418E+03  1.96562E+03  8.92168E+03
 -8.54508E+03  3.62408E+03 -8.96167E+03 -6.24321E+03 -1.01499E+03 -1.71212E+04  1.13088E+04 -1.92481E+04
  2.17590E+04 -1.05252E+04  2.54173E+04  2.76200E+03  2.11996E+04  1.80743E+04  1.07451E+04  2.80788E+04
 -5.65866E+03  3.06264E+04 -2.01977E+04  1.89684E+04 -2.16765E+04  3.52207E+03 -1.57307E+04 -5.65535E+03
 -5.78292E+03 -6.63931E+03 -7.70589E+02  1.33669E+03 -2.99590E+03  3.57548E+03 -7.14403E+03  5.28748E+03
 -1.33242E+04 -1.21099E+03 -1.51879E+04 -1.13159E+04 -4.51548E+03 -1.77912E+04  6.32674E+03 -1.45851E+04
  1.40853E+04 -6.40115E+03  7.92295E+03  4.09149E+03 -1.23171E+03  5.33195E+03 -8.08821E+03 -4.11744E+02
 -6.52593E+03 -9.68406E+03 -2.34397E+03 -1.48592E+04  8.69605E+03 -1.63973E+04  1.74982E+04 -8.10747E+03
  2.23663E+04  3.69882E+03  1.59697E+04  1.46133E+04  4.69022E+03  1.62640E+04 -1.04723E+04  1.55472E+04
 -1.28922E+04  4.44018E+03 -5.94939E+03 -3.63500E+03  3.65710E+03 -3.73229E+03  8.06505E+03 -3.75062E+02
  7.85519E+03  6.88614E+03  1.74379E+03  1.22104E+04 -8.29479E+03  1.12635E+04 -1.49359E+04  3.48620E+03
 -1.03156E+04 -7.31842E+03  3.27911E+02 -1.27428E+04  9.08648E+03 -6.58907E+03  8.41279E+03  3.12593E+03
  3.40788E+03  9.89518E+03 -8.04400E+03  1.16833E+04 -1.32166E+04  3.83497E+03 -1.37681E+04 -5.10686E+03
 -7.55689E+03 -1.42913E+04  3.57431E+03 -1.66623E+04  1.46931E+04 -8.83475E+03  1.59106E+04  2.99429E+03
  9.41517E+03  1.22971E+04 -2.27008E+03  1.40567E+04 -1.17680E+04  7.10142E+03 -1.34374E+04 -1.50917E+03
 -9.94293E+03 -1.11459E+04 -2.49971E+03 -1.12606E+04  7.35285E+03 -1.03060E+04  7.43811E+03 -3.37656E+03
  5.49728E+03  2.23528E+03 -2.21050E+03  2.89906E+03 -2.40101E+02 -3.77512E+03  2.75585E+03 -7.44501E+03
  1.01824E+04 -4.42410E+03  1.32823E+04  1.75276E+03  1.51146E+04  1.00535E+04  1.09758E+04  1.81144E+04
 -3.30566E+03  2.20378E+04 -1.95362E+04  1.70534E+04 -2.34353E+04  2.85891E+03 -1.99357E+04 -7.87409E+03
 -8.56085E+03 -1.53867E+04  1.55151E+02 -1.19833E+04  4.23136E+03 -8.89034E+03  6.76642E+03 -4.13958E+03
  2.76223E+03 -5.07518E+03  3.83167E+03 -3.96012E+03  6.29739E+03 -3.24064E+03  6.50803E+03 -6.71917E+02
  1.04224E+04  1.82941E+03  5.09046E+03  7.81993E+03 -1.56031E+03  1.00206E+04 -1.03228E+04  7.69608E+03
 -1.50522E+04 -9.77041E+02 -8.68181E+03 -8.99889E+03  2.06287E+02 -1.44033E+04  7.41237E+03 -1.46322E+04
  1.42327E+04 -9.97961E+03  1.77010E+04  2.35833E+03  1.26121E+04  1.33428E+04  2.19877E+03  1.60484E+04
 -6.85776E+03  1.43285E+04 -1.00021E+04  4.07943E+03 -5.31366E+03 -2.30734E+03 -2.54993E+03 -2.12472E+03
 -1.79924E+03 -6.58784E+02 -3.19072E+03  3.13038E+03 -5.81113E+03  2.41632E+03 -1.13919E+04 -8.36495E+02
 -5.97530E+03 -9.92087E+03  1.16504E+03 -1.36703E+04  9.06443E+03 -1.32308E+04  1.41006E+04 -3.67451E+03
  1.41658E+04  7.34919E+03  7.26049E+03  1.24678E+04 -2.33261E+03  1.42587E+04 -1.06627E+04  9.79104E+03
 -1.21155E+04  1.77789E+03 -1.02471E+04 -8.71659E+03 -1.51488E+03 -1.31503E+04  4.90480E+03 -7.53621E+03
  8.56291E+03 -3.98693E+03  5.83867E+03  3.84112E+02  7.62052E+02  4.54009E+03  1.51514E+03  1.90814E+03
  1.83985E+03  9.40964E+01  4.22073E+03  1.84931E+03  4.36012E+03  5.32274E+03  3.19235E+03  6.83179E+03
 -1.69988E+03  1.04172E+04 -1.06146E+04  9.78097E+03 -1.35386E+04  3.59266E+03 -1.51607E+04 -6.34733E+03
 -7.15551E+03 -1.37939E+04  3.11206E+03 -1.51219E+04  7.63208E+03 -9.69727E+03  1.11416E+04 -1.92127E+03
  8.04381E+03  4.20436E+03  2.73180E+03  8.25088E+03 -4.74439E+03  4.91071E+03 -6.54919E+03 -1.37284E+03
 -3.43372E+03 -6.70933E+03  3.28779E+03 -5.69397E+03  6.12540E+03 -1.50227E+03  6.22381E+03  1.63009E+03
  3.27815E+03  2.04151E+03  2.42291E+03  3.01468E+03 -3.33920E+01  7.12932E+02  2.54798E+03 -8.54948E+02
  6.53628E+02 -1.51773E+03  4.95055E+03  2.15183E+03  3.60206E+03  6.37323E+03 -1.61901E+03  8.84042E+03
 -5.82261E+03  6.33545E+03 -9.91998E+03  2.62311E+03 -9.15359E+03 -2.56833E+03 -3.61270E+03 -4.63438E+03
 -3.86316E+02 -5.57322E+03  3.36005E+03 -4.30538E+03  2.59334E+03  3.44398E+03 -3.19232E+03  4.41237E+03
 -5.63355E+03  2.49950E+03 -7.82241E+03 -4.01533E+03 -3.51612E+03 -8.01539E+03  1.81183E+03 -8.14895E+03
  4.00205E+03 -4.86646E+03  6.32459E+03  1.85143E+03  5.46361E+03  2.41530E+03  1.62590E+03  4.89949E+03
 -2.33464E+03  6.92027E+02 -4.00824E+03 -2.53273E+03  1.74185E+03 -6.37070E+03  7.56462E+03 -5.05444E+03
  8.00702E+03  6.98575E+02  6.94797E+03  5.26545E+03  3.38980E+03  1.01142E+04 -3.69830E+03  9.33298E+03
 -7.60839E+03  4.77374E+03 -8.03503E+03 -1.54022E+03 -3.55019E+03 -6.57679E+03  2.20245E+03 -4.76265E+03
  5.96826E+03 -2.48184E+03  5.27771E+03  1.39300E+03  2.51691E+03  5.71293E+03 -7.16014E+02  2.69650E+03
 -2.99250E+03  4.11996E+03 -4.70377E+02  5.35447E+02 -1.70892E+03 -3.78871E+02 -2.08569E+03  2.45355E+03
  9.75552E+01  3.09843E+03 -6.47999E+03  2.11426E+03 -8.52245E+03  3.62883E+02 -9.75671E+03 -5.38052E+03
 -4.94156E+03 -1.20749E+04  3.12685E+03 -1.26467E+04  8.02979E+03 -1.03366E+04  1.24788E+04 -3.44204E+03
  1.26383E+04  2.51233E+03  7.60363E+03  6.70257E+03  1.31315E+03  8.43419E+03 -3.44577E+03  6.06364E+03
 -6.24209E+03  4.04007E+03 -4.42686E+03 -3.37063E+02 -1.43715E+03 -7.02110E+02  9.30093E+02  1.73939E+02
 -1.65221E+03 -1.57444E+02 -1.44239E+03 -9.14002E+02 -1.44668E+03 -3.12174E+03 -1.56363E+03 -3.59908E+03
  3.75767E+03 -3.07634E+03  5.51422E+03 -2.32297E+02  6.27857E+03  5.69921E+03  2.15888E+03  8.99477E+03
 -3.61213E+03  9.66867E+03 -9.39461E+03  5.96908E+03 -1.04525E+04  4.04226E+00 -8.74029E+03 -7.42220E+03
 -2.39952E+03 -9.67778E+03  2.92060E+03 -9.56040E+03  5.96004E+03 -6.12829E+03  4.86790E+03 -1.90528E+03
  3.36850E+03  2.38547E+03  8.80485E+02  2.57013E+03 -2.04510E+03  5.50848E+02 -2.99940E+02 -1.14350E+03
  2.18938E+03 -8.32882E+02  4.05402E+03  5.30611E+01  2.16513E+03  4.41181E+03  8.72745E+02  4.97300E+03
 -2.91957E+03  3.87196E+03 -7.80613E+03  1.98290E+03 -5.06034E+03 -4.62486E+03 -1.39623E+03 -8.19227E+03
  5.17436E+03 -6.46220E+03  7.07414E+03 -9.94396E+02  7.32890E+03  1.82326E+03  3.28865E+03  5.78492E+03
  2.48556E+03  5.72293E+03 -1.40001E+03  5.28589E+03 -5.20552E+03  2.92996E+03 -1.86366E+03  5.36626E+02
 -2.21939E+03 -7.87183E+02 -2.19911E+03 -1.64874E+01 -3.70466E+03 -1.28766E+02 -5.63767E+03 -2.01082E+03
 -3.19111E+03 -3.31388E+03 -3.13180E+03 -4.34663E+03  2.09675E+03 -6.30044E+03  4.64294E+03 -2.57995E+03
  4.28278E+03  1.48179E+03  3.10787E+03  4.32681E+03 -1.07859E+03  6.97571E+03 -5.69327E+03  4.38263E+03
