 $NMID ID='MM_0lb_SNR200_11hz_g60_12.RAW', FMTDAT='(8E13.5)'
 TRAMP=1., VOLUME=1. $END
  3.07947E+05  5.47797E+02  3.38185E+05  2.50442E+05  8.44735E+04  3.38373E+05 -1.34845E+05  2.51544E+05
 -1.90259E+05  8.38749E+04 -1.12425E+05 -3.10116E+04  2.41829E+02 -5.08837E+04  5.28920E+04 -1.07506E+03
  3.47904E+04  5.29227E+04 -1.62563E+04  7.49257E+04 -5.89871E+04  6.39817E+04 -8.61929E+04  3.10514E+04
 -8.23005E+04 -1.36129E+04 -5.86856E+04 -5.17223E+04 -1.54202E+04 -7.05677E+04  2.68799E+04 -4.63745E+04
  4.01589E+04  3.40744E+03  1.65910E+04  4.91733E+04 -3.40504E+04  4.82220E+04 -6.75114E+04 -4.53979E+02
 -5.44750E+04 -5.73796E+04 -7.57788E+03 -7.84688E+04  3.45915E+04 -5.64392E+04  4.95843E+04 -1.89102E+04
  4.47800E+04  1.07326E+04  3.25411E+04  2.75150E+04  1.49749E+04  3.08523E+04 -4.35427E+03  2.80330E+04
 -2.25664E+04  1.07909E+04 -1.84247E+04 -5.00501E+03  6.36054E+03 -8.63049E+03  2.33567E+04  1.26911E+04
  5.69722E+03  3.74380E+04 -3.37550E+04  3.73580E+04 -6.64155E+04  2.40860E+03 -5.93042E+04 -4.36360E+04
 -1.35628E+04 -6.58021E+04  4.21213E+04 -4.63461E+04  6.20562E+04 -2.02911E+03  3.56524E+04  3.51079E+04
 -4.42876E+03  3.98025E+04 -3.10707E+04  1.77213E+04 -3.34603E+04 -3.39202E+03 -2.00488E+04 -1.22585E+04
 -8.48856E+03 -1.48050E+04 -1.04191E+03 -1.98709E+04  7.75812E+03 -2.38955E+04  1.70923E+04 -1.13106E+04
  1.13000E+04  5.87494E+03 -9.68351E+03  1.29251E+04 -2.35448E+04 -5.12692E+03 -9.19937E+03 -3.59890E+04
  2.57410E+04 -4.68535E+04  5.07585E+04 -2.07059E+04  4.92506E+04  1.99416E+04  1.74656E+04  4.75517E+04
 -1.64550E+04  3.59715E+04 -2.70525E+04  1.77339E+03 -1.32083E+04 -2.98854E+04  2.27236E+04 -3.57888E+04
  4.45943E+04 -1.11013E+04  3.94183E+04  2.46080E+04  2.10582E+04  5.03265E+04 -7.31312E+03  5.44676E+04
 -3.47270E+04  3.79861E+04 -4.62482E+04  1.15886E+04 -4.72255E+04 -1.99806E+04 -2.53629E+04 -4.14544E+04
  6.84461E+03 -4.37334E+04  3.37481E+04 -1.69590E+04  3.15527E+04  1.06065E+04  4.89754E+03  1.99263E+04
 -1.23932E+04  9.44584E+03 -1.09268E+04 -7.91597E+03  5.04563E+03 -1.14382E+04  1.77048E+04  4.96364E+03
  1.42400E+04  2.35563E+04 -5.18534E+03  2.57174E+04 -2.45324E+04  1.41898E+04 -3.14321E+04 -2.53381E+03
 -2.21742E+04 -1.79534E+04 -1.23146E+04 -2.48563E+04  4.18948E+03 -2.42750E+04  1.94863E+04 -2.18256E+04
  3.08137E+04 -1.41413E+04  3.88793E+04  3.73076E+03  2.78359E+04  2.52452E+04  4.10060E+03  3.92123E+04
 -1.93318E+04  3.12901E+04 -3.19075E+04  1.13401E+04 -2.29954E+04 -1.01698E+04 -4.39448E+03 -1.41653E+04
  1.97104E+03 -9.08849E+02 -6.87790E+03  7.98811E+03 -1.94135E+04  5.06688E+03 -2.00947E+04 -9.26833E+03
 -1.21039E+04 -2.16260E+04  5.54459E+03 -2.78810E+04  1.87771E+04 -1.99625E+04  2.13914E+04 -2.92320E+03
  1.33308E+04  1.43162E+04 -1.53707E+02  2.41399E+04 -1.58004E+04  1.36602E+04 -2.31809E+04 -3.21690E+03
 -1.64548E+04 -1.98836E+04 -2.67692E+03 -2.72877E+04  1.29254E+04 -2.10839E+04  2.14996E+04 -1.14678E+04
  2.25454E+04 -5.50926E+02  1.46610E+04  5.21778E+03  8.74476E+03 -2.87939E+01  1.21367E+04 -1.10328E+03
  2.21600E+04  3.04316E+03  2.47856E+04  1.76846E+04  1.55732E+04  3.60752E+04 -1.92112E+03  4.25621E+04
 -2.49742E+04  3.53231E+04 -3.87289E+04  1.88842E+04 -4.39995E+04 -1.57029E+03 -3.42232E+04 -2.68692E+04
 -1.41215E+04 -3.51483E+04  1.46378E+04 -3.08812E+04  2.70168E+04 -1.44260E+04  2.16587E+04  7.66374E+03
  8.37262E+03  1.75377E+04 -1.01193E+04  1.47304E+04 -1.84999E+04  3.39216E+03 -1.32328E+04 -1.20750E+04
 -9.96065E+02 -1.71785E+04  9.87865E+03 -1.25907E+04  1.15754E+04 -1.71322E+03  3.34642E+03  8.53040E+03
 -7.87385E+03  2.32860E+03 -8.52068E+03 -7.61153E+03 -3.35715E+02 -1.67470E+04  1.04019E+04 -1.86162E+04
  2.16535E+04 -1.11950E+04  2.51293E+04  3.24125E+03  2.17597E+04  1.58611E+04  9.79566E+03  2.66971E+04
 -4.01836E+03  2.85920E+04 -1.90570E+04  1.93683E+04 -2.12537E+04  4.03622E+03 -1.60417E+04 -4.49982E+03
 -6.17932E+03 -6.83613E+03 -5.62636E+02  1.75260E+03 -3.61680E+03  4.04305E+03 -6.57360E+03  4.69281E+03
 -1.35612E+04 -1.51364E+03 -1.37516E+04 -1.19687E+04 -5.16713E+03 -1.82251E+04  5.57364E+03 -1.62572E+04
  1.40160E+04 -5.18981E+03  8.67873E+03  2.48196E+03  3.60268E+02  6.45763E+03 -7.61324E+03  1.60612E+03
 -7.46525E+03 -1.04897E+04 -1.37104E+03 -1.33074E+04  9.04239E+03 -1.60330E+04  1.79461E+04 -7.90190E+03
  2.17623E+04  2.20119E+03  1.52961E+04  1.25100E+04  4.23695E+03  1.84657E+04 -8.97122E+03  1.55669E+04
 -1.20976E+04  4.60417E+03 -6.93733E+03 -2.10721E+03  7.86269E+02 -4.28780E+03  7.02915E+03 -1.73802E+02
  5.14539E+03  7.02302E+03  1.64608E+03  1.25419E+04 -8.33519E+03  1.21750E+04 -1.32999E+04  2.28119E+03
 -9.55168E+03 -7.97986E+03  7.38091E+02 -1.15514E+04  8.83785E+03 -6.51024E+03  9.83354E+03  3.84304E+03
  2.40293E+03  8.43755E+03 -7.61837E+03  9.80601E+03 -1.14174E+04  3.63561E+03 -1.22522E+04 -4.62187E+03
 -6.32794E+03 -1.50870E+04  3.05978E+03 -1.55853E+04  1.43157E+04 -9.65590E+03  1.49715E+04  1.87958E+03
  8.48405E+03  1.42644E+04 -2.27476E+03  1.51364E+04 -1.01483E+04  9.12734E+03 -1.11410E+04 -1.58736E+03
 -9.28275E+03 -8.54695E+03 -1.36024E+03 -1.05287E+04  5.89571E+03 -9.69344E+03  7.71711E+03 -3.31566E+03
  5.68208E+03  2.03768E+03 -4.87019E+02  1.68159E+03 -2.03399E+02 -3.66912E+03  2.64425E+03 -6.23267E+03
  9.80322E+03 -4.48160E+03  1.38997E+04  4.89109E+02  1.37083E+04  9.63251E+03  8.81314E+03  1.63626E+04
 -2.38951E+03  2.14466E+04 -1.70857E+04  1.64544E+04 -2.42397E+04  2.30160E+03 -1.75208E+04 -8.41890E+03
 -8.93311E+03 -1.46138E+04 -2.61718E+03 -1.38056E+04  3.81740E+03 -7.59163E+03  3.23070E+03 -3.59731E+03
  2.19962E+03 -2.27632E+03  3.82808E+03 -3.00787E+03  6.04010E+03 -1.67725E+03  7.38008E+03 -9.32968E+02
  9.24417E+03  1.67167E+03  5.56829E+03  8.76187E+03 -3.79015E+03  9.20134E+03 -8.92783E+03  7.95836E+03
 -1.40174E+04 -1.47797E+03 -8.46354E+03 -9.99496E+03 -1.12723E+03 -1.38173E+04  9.21154E+03 -1.32066E+04
  1.35422E+04 -7.50629E+03  1.83217E+04  1.31854E+03  1.03174E+04  1.13791E+04  1.39993E+03  1.66456E+04
 -6.01710E+03  1.28014E+04 -9.58857E+03  3.65706E+03 -6.15325E+03 -1.59352E+03 -2.70276E+03 -1.97237E+03
 -1.77418E+03 -5.01196E+02 -1.81602E+03  2.85905E+03 -5.75575E+03  7.32106E+02 -9.18083E+03 -1.72239E+03
 -6.08821E+03 -1.08486E+04 -7.12850E+02 -1.32962E+04  7.30794E+03 -1.27149E+04  1.22398E+04 -3.45447E+03
  1.25459E+04  5.40435E+03  3.66001E+03  1.13080E+04 -2.53133E+03  1.21113E+04 -8.95625E+03  8.12856E+03
 -1.28260E+04  1.78610E+03 -9.98522E+03 -9.09715E+03 -6.67537E+02 -1.11515E+04  5.02471E+03 -7.77851E+03
  8.57973E+03 -1.97140E+03  6.68624E+03  2.16623E+03  1.79940E+03  4.68771E+03  2.62142E+02  2.29622E+03
  2.69717E+03  2.25297E+03  1.62539E+03  1.43667E+03  3.76890E+03  5.13810E+03  3.75079E+03  6.07394E+03
 -2.58739E+03  8.03101E+03 -8.09790E+03  1.04466E+04 -1.39562E+04  4.57525E+03 -1.19967E+04 -5.81975E+03
 -6.99397E+03 -1.20913E+04  2.57024E+03 -1.46003E+04  7.32103E+03 -8.01916E+03  9.25852E+03 -2.99145E+03
  7.81896E+03  5.55500E+03  3.00617E+03  7.45374E+03 -3.22743E+03  3.75486E+03 -6.28507E+03  1.24912E+03
 -1.90615E+03 -6.36293E+03  2.94408E+03 -4.90085E+03  2.98342E+03 -3.31945E+03  6.28286E+03  1.52179E+03
  2.16728E+03  2.96881E+03  1.68188E+02  1.96957E+03  1.72442E+02  1.75248E+03  2.68824E+03  4.44781E+02
  1.77048E+03 -1.96884E+03  3.91930E+03  1.05693E+03  3.89392E+03  7.80431E+03 -1.89580E+03  7.59671E+03
 -5.21422E+03  7.61326E+03 -8.20365E+03  1.59639E+03 -7.14948E+03 -3.14390E+03 -3.28685E+03 -4.06217E+03
  1.34378E+03 -6.24392E+03  2.76490E+03 -3.61643E+03  4.01736E+03  2.72219E+03 -2.71806E+03  4.07385E+03
 -5.04010E+03  1.98826E+03 -6.22067E+03 -3.49554E+03 -2.38677E+03 -7.16585E+03  1.48488E+02 -6.98043E+03
  2.54749E+03 -4.61455E+03  4.54360E+03  4.04832E+02  5.55288E+03  1.70193E+03  1.12596E+03  4.88143E+03
 -1.87762E+03  2.46549E+02 -2.37999E+03 -2.80946E+03  1.88882E+03 -6.69772E+03  7.20446E+03 -4.89946E+03
  7.78662E+03  1.04315E+03  6.01502E+03  5.61938E+03  2.13996E+03  9.10053E+03 -2.03807E+03  6.46302E+03
 -5.48581E+03  3.10721E+03 -6.89364E+03  1.83495E+02 -3.75755E+03 -4.99988E+03  7.29042E+02 -5.35210E+03
  4.01314E+03 -3.03203E+03  5.10717E+03  9.02865E+02  1.28252E+03  4.01245E+03 -1.10237E+03  3.18770E+03
 -2.35339E+03  1.76838E+03 -1.70066E+03  9.62845E+02 -9.54367E+02  5.35303E+02 -2.61090E+03  1.42991E+03
 -2.58948E+03  2.96842E+03 -6.16142E+03  2.55166E+03 -7.57780E+03 -1.24791E+02 -7.09399E+03 -5.08094E+03
 -4.72833E+03 -8.86739E+03  2.45550E+03 -1.11172E+04  7.22915E+03 -1.08740E+04  1.02654E+04 -4.06097E+03
  1.11616E+04  2.24151E+03  7.11443E+03  8.46553E+03 -5.35978E+02  8.34683E+03 -2.97235E+03  5.90832E+03
 -5.21359E+03  1.54184E+03 -2.19629E+03  1.80151E+02 -1.23422E+03 -1.38575E+02  3.23997E+02 -4.85386E+02
 -3.19516E+03  3.28373E+02 -1.48676E+03  6.11943E+02 -5.84462E+02 -1.90515E+03 -2.30962E+02 -3.01325E+03
  2.45722E+03 -2.67852E+03  4.04465E+03  3.95080E+02  4.74779E+03  6.41671E+03  4.87933E+02  8.34487E+03
 -2.36269E+03  9.63629E+03 -8.93396E+03  6.57337E+03 -9.37400E+03 -1.02301E+02 -6.31027E+03 -5.24678E+03
 -2.45640E+03 -6.47845E+03  2.11227E+03 -6.32191E+03  5.54879E+03 -3.72098E+03  4.95653E+03  1.51612E+03
  3.38346E+03  2.69294E+03  2.63239E+02  1.59616E+03 -2.60169E+03 -1.35607E+02 -5.03389E+02 -2.01181E+03
  3.36650E+03 -4.75987E+02  3.03579E+03  7.06369E+02  1.40378E+03  3.32861E+03 -1.69284E+03  3.54681E+03
 -2.87004E+03  3.71713E+03 -4.54465E+03  1.43319E+03 -2.99711E+03 -4.75468E+03  6.39775E+02 -5.88795E+03
  3.46728E+03 -4.87609E+03  5.92844E+03 -1.09729E+03  6.38031E+03  6.79087E+02  3.53317E+03  4.56202E+03
 -2.06545E+02  4.06901E+03 -1.43611E+03  5.57286E+03 -3.11239E+03  3.60637E+03 -2.87406E+03  1.05514E+03
 -6.74923E+02 -6.41402E+02 -1.73580E+03 -2.35923E+02 -1.27881E+03  2.21819E+03 -3.03233E+03 -8.98136E+02
 -3.54829E+03 -2.72004E+03 -2.39202E+03 -5.12580E+03  1.57994E+03 -5.14611E+03  4.64630E+03 -1.50796E+03
  5.82829E+03  1.62998E+03  1.81786E+03  1.86746E+03 -3.92374E+02  3.26945E+03 -4.45667E+03  2.60082E+03
