 $NMID ID='MM_0lb_SNR200_7hz_g50_21.RAW', FMTDAT='(8E13.5)'
 TRAMP=1., VOLUME=1. $END
  3.10055E+05  1.56215E+03  3.37949E+05  2.50413E+05  8.48365E+04  3.39845E+05 -1.32831E+05  2.52861E+05
 -1.90503E+05  8.42088E+04 -1.13165E+05 -3.23237E+04 -6.09863E+02 -5.10075E+04  5.28302E+04  5.76586E+02
  3.72677E+04  5.31440E+04 -1.81066E+04  7.54194E+04 -6.03277E+04  6.31434E+04 -8.63561E+04  3.33950E+04
 -8.22113E+04 -1.29599E+04 -5.87379E+04 -5.14502E+04 -1.70472E+04 -7.19669E+04  2.83608E+04 -4.76483E+04
  4.13270E+04  4.42849E+03  1.61687E+04  4.80214E+04 -3.42523E+04  4.83863E+04 -6.96194E+04  3.46479E+02
 -5.55052E+04 -5.75169E+04 -6.87942E+03 -8.11347E+04  3.55161E+04 -5.70159E+04  5.09142E+04 -1.93176E+04
  4.75456E+04  1.12145E+04  3.52102E+04  2.65625E+04  1.59133E+04  3.22674E+04 -6.91323E+03  2.61552E+04
 -2.26951E+04  1.05993E+04 -1.66143E+04 -6.72043E+03  8.51266E+03 -7.86058E+03  2.49006E+04  1.47938E+04
  6.36974E+03  3.75999E+04 -3.62545E+04  3.63575E+04 -6.68052E+04  2.43648E+03 -5.98437E+04 -4.40507E+04
 -1.34256E+04 -6.80403E+04  4.28333E+04 -4.72050E+04  6.02561E+04 -3.03094E+03  3.69713E+04  3.53893E+04
 -3.70009E+03  4.12465E+04 -3.37258E+04  2.08303E+04 -3.37387E+04 -3.34421E+03 -2.12443E+04 -1.08788E+04
 -7.46469E+03 -1.55424E+04 -4.83672E+02 -1.89851E+04  8.82643E+03 -2.49165E+04  1.68975E+04 -1.42020E+04
  1.12016E+04  5.83756E+03 -1.07347E+04  1.28394E+04 -2.26995E+04 -8.48291E+03 -8.76808E+03 -4.02329E+04
  2.53765E+04 -4.83706E+04  5.37023E+04 -2.19099E+04  5.04670E+04  2.14721E+04  1.74081E+04  4.88768E+04
 -1.78821E+04  3.70649E+04 -2.99274E+04  2.71391E+03 -1.12725E+04 -2.95601E+04  2.18135E+04 -3.73024E+04
  4.65975E+04 -1.31698E+04  4.23234E+04  2.50018E+04  2.39797E+04  5.34778E+04 -8.38750E+03  5.89174E+04
 -3.76144E+04  3.96938E+04 -4.90873E+04  1.26269E+04 -4.93251E+04 -1.92055E+04 -2.76244E+04 -4.46057E+04
  7.71165E+03 -4.25199E+04  3.48474E+04 -1.56602E+04  3.34146E+04  1.05002E+04  5.77694E+03  2.21175E+04
 -1.34217E+04  1.01203E+04 -1.12680E+04 -7.48537E+03  6.47543E+03 -1.04578E+04  1.91777E+04  5.45426E+03
  1.47584E+04  2.30305E+04 -4.53367E+03  2.74457E+04 -2.50799E+04  1.49618E+04 -3.36214E+04 -2.73533E+03
 -2.51123E+04 -1.93949E+04 -1.21175E+04 -2.82444E+04  3.85374E+03 -2.58419E+04  1.97669E+04 -2.49991E+04
  3.43476E+04 -1.49679E+04  4.07514E+04  6.60826E+03  2.91781E+04  2.82619E+04  3.13143E+03  4.47493E+04
 -2.02054E+04  3.48147E+04 -3.18491E+04  1.11774E+04 -2.19670E+04 -1.04527E+04 -5.61914E+03 -1.25786E+04
  5.66114E+02 -1.54693E+03 -8.38959E+03  8.41851E+03 -2.17988E+04  5.01393E+03 -2.09286E+04 -1.22483E+04
 -1.30909E+04 -2.51315E+04  4.55889E+03 -3.02473E+04  2.12986E+04 -2.16174E+04  2.48360E+04 -1.14212E+03
  1.48432E+04  1.57238E+04 -2.65882E+03  2.61519E+04 -1.86272E+04  1.41760E+04 -2.58099E+04 -3.84592E+03
 -1.87156E+04 -2.37761E+04 -9.88113E+02 -2.98438E+04  1.35635E+04 -2.59457E+04  2.65735E+04 -1.13840E+04
  2.34836E+04 -8.86681E+02  1.85772E+04  4.76404E+03  9.92806E+03  3.17405E+03  1.34262E+04 -1.65432E+03
  2.29977E+04  4.82240E+03  2.77504E+04  1.89716E+04  1.96496E+04  4.23701E+04 -3.31539E+03  5.04738E+04
 -2.71505E+04  4.24329E+04 -4.60897E+04  2.19480E+04 -5.10182E+04 -4.84202E+03 -3.93488E+04 -2.84872E+04
 -1.53367E+04 -4.17896E+04  1.52591E+04 -3.61232E+04  3.06442E+04 -1.76631E+04  2.47758E+04  8.04568E+03
  7.90807E+03  2.25196E+04 -1.50479E+04  1.57663E+04 -2.15616E+04  4.36061E+02 -1.63764E+04 -1.38652E+04
 -3.19956E+02 -2.09573E+04  1.10812E+04 -1.59879E+04  1.42782E+04 -1.73659E+03  4.67442E+03  1.04047E+04
 -7.63219E+03  4.41684E+03 -1.27838E+04 -6.63247E+03 -3.18768E+03 -2.09586E+04  1.46623E+04 -2.41011E+04
  2.71564E+04 -1.35386E+04  3.03955E+04  2.99121E+03  2.51389E+04  2.34016E+04  1.14883E+04  3.27557E+04
 -6.69519E+03  3.68968E+04 -2.32271E+04  2.13390E+04 -2.74363E+04  1.96821E+03 -1.77841E+04 -8.29495E+03
 -6.79693E+03 -8.77416E+03 -4.68221E+02 -5.36945E+02 -3.02511E+03  2.84598E+03 -8.73345E+03  7.81680E+03
 -1.68143E+04 -1.71876E+01 -1.65703E+04 -1.23591E+04 -6.91381E+03 -2.19109E+04  6.35768E+03 -1.87962E+04
  1.45774E+04 -7.94221E+03  9.66898E+03  5.93792E+03  1.20063E+03  6.52974E+03 -9.91097E+03 -1.24926E+03
 -9.99328E+03 -1.14449E+04 -2.55733E+03 -1.84688E+04  1.03029E+04 -1.67034E+04  2.25248E+04 -7.92612E+03
  2.80230E+04  3.48180E+03  2.00778E+04  1.68585E+04  4.13525E+03  2.14015E+04 -1.12774E+04  1.59276E+04
 -1.42864E+04  5.68067E+03 -8.93216E+03 -4.75473E+03  2.87180E+03 -4.37809E+03  9.94777E+03 -3.05609E+02
  7.33922E+03  7.97570E+03 -1.26773E+02  1.55647E+04 -9.65475E+03  1.22888E+04 -1.83039E+04  4.62653E+03
 -1.24480E+04 -1.08842E+04  1.60392E+03 -1.59116E+04  1.06050E+04 -7.79269E+03  1.04741E+04  4.76592E+03
  1.94359E+03  1.20724E+04 -9.16381E+03  1.40958E+04 -1.60001E+04  5.93587E+03 -1.69858E+04 -5.56733E+03
 -1.01216E+04 -1.88202E+04  5.12834E+03 -2.25190E+04  1.64332E+04 -1.27797E+04  1.97583E+04  3.44293E+03
  1.23889E+04  1.54555E+04 -7.71713E+02  1.72371E+04 -1.37714E+04  1.13476E+04 -1.55886E+04 -1.88241E+03
 -1.10710E+04 -1.28304E+04 -1.98002E+03 -1.55772E+04  6.78972E+03 -1.10323E+04  1.03957E+04 -2.72154E+03
  5.62121E+03  3.27900E+03 -1.11321E+03  2.21688E+03 -2.24140E+02 -5.33581E+03  4.47497E+03 -9.48185E+03
  1.30372E+04 -5.38032E+03  2.10679E+04  1.49348E+03  1.75720E+04  1.40010E+04  1.22568E+04  2.72361E+04
 -6.55803E+03  2.92358E+04 -2.48861E+04  2.22631E+04 -3.02609E+04  3.10656E+03 -2.62165E+04 -1.04320E+04
 -1.29135E+04 -2.09610E+04  6.01347E+02 -1.75736E+04  8.02976E+03 -1.05035E+04  5.27692E+03 -4.91475E+03
  5.11946E+03 -2.84511E+03  4.06065E+03 -5.55167E+03  5.22064E+03 -3.56351E+03  6.96545E+03 -3.67642E+03
  1.25026E+04  2.77584E+03  5.22641E+03  1.17221E+04 -3.21935E+03  1.57949E+04 -1.49231E+04  1.05735E+04
 -1.81926E+04 -1.81872E+03 -1.22321E+04 -1.22964E+04 -2.10311E+03 -2.07404E+04  1.05849E+04 -1.99030E+04
  2.07548E+04 -9.35885E+03  2.31471E+04  3.43578E+03  1.52158E+04  1.75355E+04  3.48870E+03  2.26630E+04
 -9.17963E+03  1.75344E+04 -1.41142E+04  6.81887E+03 -8.96894E+03 -1.43557E+03 -4.27054E+03 -2.99236E+03
 -2.58566E+03 -4.31539E+02 -3.15359E+03  3.64583E+03 -6.69522E+03  2.91652E+03 -1.22905E+04 -1.79369E+03
 -1.11657E+04 -1.22472E+04 -7.78088E+02 -1.82627E+04  1.23248E+04 -1.64805E+04  1.89493E+04 -5.24815E+03
  1.80781E+04  9.82896E+03  8.26243E+03  1.63407E+04 -4.63596E+03  1.89263E+04 -1.34537E+04  1.18843E+04
 -1.71763E+04  8.68251E+02 -1.20550E+04 -1.26055E+04 -5.43829E+02 -1.57442E+04  8.97590E+03 -1.25477E+04
  1.30702E+04 -2.51754E+03  7.34492E+03  4.19239E+03  7.01961E+03  5.54459E+03  1.47279E+03  1.97561E+03
  2.62356E+03  1.30172E+03  5.18074E+03  2.25285E+03  5.73337E+03  7.63646E+03  4.91753E+03  9.40825E+03
 -3.88728E+03  1.57262E+04 -1.37738E+04  1.41887E+04 -2.04085E+04  3.85393E+03 -1.95495E+04 -9.95086E+03
 -1.03746E+04 -1.93430E+04  7.94500E+02 -2.09188E+04  1.13342E+04 -1.49594E+04  1.54065E+04 -4.75573E+03
  1.17247E+04  8.08293E+03  2.20075E+03  1.10785E+04 -5.88729E+03  7.27941E+03 -9.96598E+03  3.33190E+02
 -3.75746E+03 -9.03324E+03  5.26644E+03 -1.10094E+04  1.03225E+04 -3.59162E+03  7.99025E+03  1.02401E+03
  5.91501E+03  6.01464E+03  2.41388E+02  2.31996E+03 -2.84495E+02  4.55659E+03  1.54053E+03  1.93696E+03
  5.97845E+03  5.60562E+02  8.38156E+03  1.47940E+03  5.64565E+03  1.22973E+04 -2.72564E+03  1.46415E+04
 -9.44454E+03  9.66591E+03 -1.15472E+04  3.57623E+03 -1.04156E+04 -6.60752E+03 -7.72533E+03 -7.43131E+03
  1.66407E+03 -6.87439E+03  5.07294E+03 -4.23015E+03  4.78707E+03  4.25415E+03 -2.71874E+03  6.60919E+03
 -8.78168E+03  4.27830E+03 -9.19400E+03 -3.66016E+03 -4.35435E+03 -9.90162E+03  2.59844E+03 -1.07710E+04
  5.68592E+03 -7.33665E+03  8.61332E+03 -4.64153E+02  7.88411E+03  2.58080E+03  1.50103E+03  6.16511E+03
 -3.41870E+03  5.40419E+02 -6.72940E+03 -4.78110E+03  2.68292E+02 -8.18515E+03  1.00052E+04 -5.31452E+03
  1.11140E+04  3.22466E+03  1.37096E+04  7.99866E+03  2.77455E+03  1.48871E+04 -5.82402E+03  1.39429E+04
 -9.64250E+03  6.14656E+03 -1.27506E+04 -3.00650E+03 -7.06892E+03 -9.23755E+03  1.71351E+03 -8.17466E+03
  7.16964E+03 -4.95918E+03  7.68623E+03  4.43240E+03  3.04937E+03  7.80653E+03 -1.83763E+03  5.24859E+03
 -6.53462E+03  5.54760E+03 -2.05245E+03  1.70291E+03 -3.01603E+03  1.28777E+03 -1.66237E+03  4.11116E+03
 -3.12407E+03  4.57303E+03 -9.34962E+03  5.90440E+03 -1.31350E+04  2.21715E+02 -1.56124E+04 -9.05199E+03
 -8.69485E+03 -1.78606E+04  4.67419E+03 -2.13662E+04  1.31217E+04 -1.79458E+04  2.03139E+04 -4.51056E+03
  1.83882E+04  3.47842E+03  1.04971E+04  1.27337E+04  2.62607E+03  1.59148E+04 -8.10982E+03  1.15532E+04
 -9.26693E+03  3.49880E+03 -4.44460E+03 -2.08709E+03 -1.26261E+03 -2.40909E+03 -1.92408E+03 -3.29227E+02
 -1.44832E+03  1.10836E+03 -2.47998E+03 -2.11279E+03  1.15447E+02 -4.84102E+03 -4.39412E+01 -6.46843E+03
  6.16289E+03 -4.46695E+03  8.50352E+03 -7.45515E+02  8.24135E+03  8.07294E+03  1.61836E+03  1.45044E+04
 -8.01286E+03  1.62852E+04 -1.51415E+04  8.18194E+03 -1.83233E+04 -8.57815E+02 -1.37918E+04 -9.82735E+03
 -5.84593E+03 -1.59501E+04  3.48469E+03 -1.39695E+04  9.40149E+03 -6.01612E+03  9.25632E+03  8.35407E+02
  5.63535E+03  3.45254E+03 -2.07469E+03  4.26259E+03 -4.09020E+03 -1.80334E+03 -2.38717E+02 -4.56020E+03
  5.02101E+03 -2.72244E+03  7.32566E+03  1.25289E+03  3.58050E+03  6.05936E+03  1.89005E+02  8.86480E+03
 -7.67738E+03  6.31553E+03 -1.16405E+04 -3.53435E+02 -9.45333E+03 -8.93985E+03 -2.14777E+03 -1.22921E+04
  7.83033E+03 -1.13932E+04  1.28930E+04 -3.69837E+03  1.13645E+04  3.35019E+03  7.00799E+03  1.20210E+04
  2.01512E+03  9.73468E+03 -2.18992E+03  7.44571E+03 -7.36663E+03  3.90154E+03 -4.71880E+03  2.30813E+03
 -3.11751E+03 -9.04862E+02 -3.09949E+03  1.74234E+03 -4.93489E+03  2.11340E+02 -7.42400E+03 -2.47242E+02
 -9.08670E+03 -5.89075E+03 -2.05810E+03 -1.16307E+04  4.35998E+03 -9.22437E+03  1.07925E+04 -6.58808E+03
  9.57907E+03  8.91941E+02  6.81548E+03  8.38828E+03 -1.46284E+03  1.16298E+04 -8.09235E+03  9.20944E+03
