 $NMID ID='MM_0lb_SNR200_18hz_g40_8.RAW', FMTDAT='(8E13.5)'
 TRAMP=1., VOLUME=1. $END
  3.09184E+05  5.75906E+02  3.36519E+05  2.51391E+05  8.45364E+04  3.37023E+05 -1.33446E+05  2.49827E+05
 -1.89674E+05  8.29872E+04 -1.10826E+05 -3.37644E+04  1.96789E+03 -5.07595E+04  5.41952E+04 -8.03666E+01
  3.39372E+04  5.21438E+04 -1.71747E+04  7.48501E+04 -6.13351E+04  6.36357E+04 -8.30323E+04  3.02255E+04
 -8.07379E+04 -1.03952E+04 -5.61178E+04 -4.88402E+04 -1.43536E+04 -6.87493E+04  2.65275E+04 -4.48934E+04
  3.89594E+04  4.88411E+03  1.45489E+04  4.71850E+04 -3.28775E+04  4.64563E+04 -6.48936E+04 -5.44554E+02
 -5.06638E+04 -5.48827E+04 -6.73287E+03 -7.55559E+04  3.29654E+04 -5.33738E+04  4.64631E+04 -1.60870E+04
  4.16994E+04  1.08529E+04  3.07008E+04  2.48604E+04  1.63780E+04  2.72370E+04 -4.38031E+03  2.62253E+04
 -2.27727E+04  1.25221E+04 -1.88318E+04 -4.76697E+03  3.32066E+03 -8.45625E+03  2.10715E+04  1.07079E+04
  6.72555E+03  3.30455E+04 -3.06385E+04  3.39317E+04 -6.16893E+04  2.12684E+03 -5.62321E+04 -4.06674E+04
 -1.23853E+04 -5.97655E+04  3.75426E+04 -4.25154E+04  5.46671E+04 -1.74007E+03  3.16167E+04  2.96474E+04
 -7.74980E+03  3.29133E+04 -2.62606E+04  1.36716E+04 -2.71102E+04 -5.79764E+03 -1.36658E+04 -1.05845E+04
 -6.72250E+03 -1.08353E+04  1.08597E+02 -1.60359E+04  6.67878E+03 -2.28042E+04  1.51042E+04 -1.27058E+04
  1.18850E+04  4.44576E+03 -5.65929E+03  1.26224E+04 -1.94404E+04 -1.79682E+03 -7.78140E+03 -3.05642E+04
  1.99692E+04 -3.98774E+04  4.47824E+04 -1.87182E+04  4.12068E+04  1.75009E+04  1.39221E+04  4.16229E+04
 -1.52973E+04  3.00037E+04 -2.34244E+04 -2.99401E+00 -8.78502E+03 -2.62274E+04  2.07561E+04 -3.06561E+04
  3.68718E+04 -7.77926E+03  3.10777E+04  2.18987E+04  1.50690E+04  4.25476E+04 -7.23313E+03  4.54127E+04
 -2.82371E+04  2.99287E+04 -3.76795E+04  8.24762E+03 -3.79590E+04 -1.44717E+04 -2.11516E+04 -3.52707E+04
  6.77536E+03 -3.22480E+04  2.84271E+04 -1.26085E+04  2.60419E+04  1.06498E+04  3.19286E+03  1.77084E+04
 -1.38611E+04  7.86643E+03 -8.76324E+03 -7.76811E+03  6.45639E+03 -1.02654E+04  1.80931E+04  5.08255E+03
  1.26694E+04  2.19865E+04 -6.35913E+03  2.35761E+04 -2.18526E+04  8.51234E+03 -2.41692E+04 -7.43629E+03
 -1.64545E+04 -1.61668E+04 -6.20791E+03 -1.64089E+04  4.66138E+03 -1.45721E+04  1.36448E+04 -1.47917E+04
  2.07273E+04 -1.19235E+04  2.63247E+04  1.62245E+03  2.20567E+04  1.64572E+04  4.39244E+03  3.21755E+04
 -1.52027E+04  2.71826E+04 -2.64073E+04  8.31837E+03 -2.02453E+04 -9.70570E+03 -3.93982E+03 -1.47429E+04
  2.05363E+03 -4.36273E+03 -2.52238E+03  5.19471E+03 -1.31516E+04  5.19018E+03 -1.43206E+04 -4.43582E+03
 -8.13586E+03 -1.57526E+04  3.45079E+03 -1.93375E+04  1.26916E+04 -1.46915E+04  1.43401E+04 -4.72740E+02
  9.09777E+03  1.05544E+04 -1.98306E+03  1.61513E+04 -9.72431E+03  8.81037E+03 -1.50015E+04 -2.81210E+03
 -1.15011E+04 -1.50286E+04 -2.89094E+03 -1.89024E+04  7.48810E+03 -1.47643E+04  1.54328E+04 -7.53055E+03
  1.48169E+04  3.40736E+02  1.04904E+04  3.10720E+03  5.03729E+03  1.03727E+03  6.77942E+03 -1.97788E+03
  1.32327E+04  3.02650E+03  1.40129E+04  1.27198E+04  9.14445E+03  2.48314E+04 -3.49107E+03  2.64485E+04
 -1.57972E+04  2.07258E+04 -2.46261E+04  1.02387E+04 -2.44783E+04 -2.74604E+03 -2.16787E+04 -1.33151E+04
 -1.06444E+04 -1.96749E+04  7.13720E+03 -1.87490E+04  1.59512E+04 -1.01601E+04  1.48291E+04  3.86234E+03
  6.16626E+03  1.09927E+04 -6.37977E+03  1.00758E+04 -1.29636E+04  2.83473E+03 -1.13043E+04 -6.99675E+03
 -5.31005E+02 -1.24390E+04  6.82874E+03 -9.01555E+03  7.22976E+03 -1.12010E+03  1.43929E+03  4.76523E+03
 -4.83830E+03  1.42920E+03 -3.91778E+03 -3.50083E+03  8.52850E+02 -9.31881E+03  7.80034E+03 -1.00965E+04
  1.31643E+04 -4.11120E+03  1.15556E+04  3.35368E+03  9.95909E+03  9.12839E+03  4.74402E+03  1.41686E+04
 -2.05254E+03  1.55461E+04 -1.04276E+04  1.06220E+04 -1.13716E+04  2.28489E+03 -8.30171E+03 -2.14742E+03
 -3.81664E+03 -2.05239E+03 -1.62802E+03  5.34803E+02 -1.67077E+03  3.10454E+03 -3.94789E+03  3.60045E+03
 -7.49546E+03  3.61357E+02 -8.37762E+03 -7.30917E+03 -4.33344E+03 -1.20970E+04  2.92533E+03 -8.80429E+03
  6.57126E+03 -3.88798E+03  5.47921E+03  1.94698E+03  1.27276E+03  3.13258E+03 -3.16892E+03 -1.93031E+02
 -2.87178E+03 -4.40084E+03 -1.69113E+03 -7.25918E+03  4.31438E+03 -8.82370E+03  9.58513E+03 -4.98860E+03
  1.10625E+04  4.72079E+02  8.79826E+03  6.15741E+03  1.87989E+03  8.33365E+03 -5.53761E+03  7.84967E+03
 -7.37508E+03  3.28006E+03 -3.21556E+03  7.85484E+02  1.66641E+03 -1.87994E+03  5.15506E+03 -9.06446E+02
  5.76423E+03  2.94470E+03  9.98873E+02  6.16625E+03 -4.63273E+03  6.85521E+03 -7.44055E+03  1.95863E+03
 -4.92158E+03 -3.42509E+03  8.85795E+02 -7.16026E+03  3.68792E+03 -3.79335E+03  4.03246E+03  1.56147E+03
  6.58604E+02  4.38237E+03 -4.49923E+03  5.05082E+03 -4.82164E+03  2.62885E+03 -4.64035E+03 -8.71466E+02
 -3.08435E+03 -6.07585E+03  1.83254E+03 -7.74690E+03  6.34567E+03 -5.18344E+03  6.88352E+03  1.08851E+03
  5.21532E+03  4.91504E+03  3.81730E+02  7.38128E+03 -4.79507E+03  3.99814E+03 -4.14375E+03 -9.36696E+02
 -6.65858E+03 -5.41392E+03 -2.88457E+03 -4.89367E+03  1.64759E+03 -5.02392E+03  2.49475E+03 -2.61673E+03
  2.81684E+03 -7.27285E+02  2.10422E+02  9.13590E+02  7.20981E+02  1.61073E+02 -1.23006E+01 -2.28693E+03
  3.36262E+03 -6.97458E+02  5.67730E+03  1.13108E+03  5.05516E+03  3.00857E+03  6.43528E+03  7.15514E+03
 -1.79743E+03  7.94610E+03 -6.55649E+03  6.75377E+03 -1.08508E+04  5.59461E+02 -8.12803E+03 -1.71112E+03
 -5.36401E+03 -7.63215E+03 -9.82393E+02 -5.57038E+03  1.91312E+03 -3.26907E+03  1.35976E+03 -1.86947E+03
  2.20401E+03 -1.34642E+03  1.88536E+03 -2.79307E+03  2.57949E+03 -6.66937E+02  3.08738E+03  9.45526E+02
  4.49338E+03  1.45737E+03  1.61486E+03  3.68849E+03 -8.40961E+02  2.69605E+03 -4.37756E+03  2.24274E+03
 -5.72855E+03 -5.87201E+02 -2.40417E+03 -2.67355E+03  1.41481E+03 -4.60385E+03  3.29543E+03 -5.40191E+03
  4.66051E+03 -2.43240E+03  6.80707E+03  6.13654E+02  3.99496E+03  4.51525E+03  6.33397E+02  6.12809E+03
 -2.70959E+03  6.51195E+03 -2.67663E+03  2.61076E+03 -2.15087E+03  9.92820E+01 -2.03459E+02 -1.06352E+03
 -1.11715E+03  1.40725E+03 -1.93401E+03  2.33785E+03 -2.70642E+03  8.40282E+02 -4.02673E+03 -7.06654E+02
 -2.04778E+03 -3.91424E+03  8.72692E+02 -3.72270E+03  2.35644E+03 -4.95328E+03  3.66921E+03 -8.45762E+02
  2.75414E+03  2.14047E+03  3.20094E+03  3.71453E+03  4.31450E+02  4.50660E+03 -1.16091E+03  2.57179E+03
 -3.35614E+03  2.21975E+03 -3.08597E+03 -2.39028E+03 -1.40326E+02 -2.95493E+03  1.80440E+03 -1.74237E+03
  3.66824E+03 -1.06237E+03  1.62338E+03  5.03590E+02  7.94018E+00  1.34758E+03  1.62101E+03  4.11766E+02
  1.49214E+03 -4.68508E+02  4.14641E+02  7.16026E+02  6.80329E+02  2.12150E+03  4.61935E+02  2.49292E+03
 -8.60551E+02  2.85532E+03 -2.30172E+03  3.75391E+03 -2.17888E+03  1.43621E+03 -3.92553E+03 -1.44826E+03
 -1.80457E+03 -3.43311E+03  1.31496E+03 -4.85619E+03  1.71807E+03 -2.38359E+03  2.73101E+03  3.37227E+02
  3.24255E+03  2.28839E+03  3.78617E+02  1.51231E+03 -2.11648E+03  1.70340E+03 -1.18427E+03 -8.91140E+02
 -7.06075E+02 -1.95822E+03  1.97045E+03 -9.45462E+02  9.32144E+02 -9.67266E+02  1.37772E+03  1.00176E+03
  4.14703E+02 -3.09525E+02  1.30460E+03  5.90408E+01 -2.29505E+02  1.10559E+03  1.42261E+03 -4.43364E+02
  8.01161E+02  2.49923E+02  9.52819E+02 -2.80098E+02  1.27021E+03  2.26928E+03 -9.81559E+01  3.29646E+03
 -5.32785E+02  1.65728E+03 -3.74947E+03  7.83163E+02 -2.39485E+03 -8.55557E+02  3.32696E+02 -1.05221E+03
  4.54494E+02 -8.73031E+02  6.00584E+02 -1.09024E+03  1.25957E+03  1.28572E+03  3.21374E+02  6.60166E+02
 -1.43097E+03  5.14175E+02 -2.06397E+03 -1.63680E+03 -5.47787E+02 -2.76091E+03  3.79564E+00 -2.15967E+03
  1.00900E+02 -5.38372E+02 -1.02954E+02  1.49162E+02  1.29236E+03  3.32436E+02  1.28074E+03  1.70093E+03
 -1.38501E+03 -2.35302E+02 -6.80240E+02 -6.51774E+02  1.65196E+02 -6.31584E+02  1.75348E+03 -1.81402E+03
  1.73098E+03 -9.30118E+02  3.53313E+03  8.08798E+02  2.67163E+02  1.48447E+03 -3.55971E+02  1.32029E+03
 -1.83716E+03  2.95742E+02 -1.30373E+03  7.22789E+02 -1.24523E+03 -1.13664E+03  4.92267E+02 -3.46539E+02
  1.07833E+03 -1.03125E+03  1.68725E+03  6.99605E+02  1.19953E+03  1.57797E+03  8.42103E+02  1.56244E+03
  4.60125E+02  1.66908E+03  3.82382E+02  9.33028E+02 -8.78690E+01  6.75405E+02 -1.49376E+03  5.51133E+02
 -7.17010E+02  5.77604E+02 -2.28615E+03  7.13668E+02 -1.24558E+03  6.97784E+02 -3.08717E+03 -1.35562E+03
  1.95596E+02 -3.00066E+03 -5.07105E+02 -2.51043E+03  5.33588E+02 -2.60401E+03  3.17777E+03 -1.77692E+03
  2.69038E+03  6.28265E+02  1.88857E+03  1.67405E+03 -1.03075E+03  1.83500E+03 -2.43155E+02  1.81740E+03
 -1.07845E+03  1.71277E+03 -1.48998E+02 -4.28284E+02 -2.75986E+02  6.28574E+02  9.07076E+01 -1.73772E+02
 -3.46517E+02 -3.99445E+02 -1.03903E+03  1.50493E+02 -7.57306E+02 -4.35360E+02  3.52928E+02  2.21096E+01
  1.40534E+03 -7.83742E+01  3.70192E+02  3.96243E+02  2.05973E+02  2.90316E+02 -6.06875E+02  1.88142E+03
 -1.42136E+03  1.95230E+03 -2.22699E+03  5.69784E+02 -1.83279E+03 -4.63038E+02 -2.38667E+03 -1.73491E+03
 -3.30706E+02 -2.13096E+03  8.90720E+02 -7.99936E+02  5.98987E+02 -1.11296E+03  4.75052E+02 -3.03324E+02
  1.40900E+03  7.06208E+02 -3.32690E+02  9.45145E+02 -6.85601E+02 -2.04751E+02  1.85748E+02  4.93537E+01
  7.58597E+02  1.02991E+03  5.15397E+02 -8.94041E+02  8.97218E+02  8.91810E+02  8.26752E+02  2.36067E+02
 -1.12706E+03  2.88814E+02 -8.15018E+01  4.23999E+02 -1.74323E+03  5.01551E+02  3.67064E+02 -1.18316E+03
  8.14754E+02 -9.27204E+02  3.05899E+02 -8.07058E+02  5.95436E+01 -7.50564E+02  1.33043E+03  3.73451E+02
  5.83165E+02  1.03638E+03  4.84284E+02  5.30548E+02 -1.25812E+03  2.09514E+03 -9.23837E+01  8.58033E+02
 -6.74648E+02  4.15330E+02 -6.04644E+02  9.21737E+01 -1.14509E+03  4.50615E+02 -2.59128E+03 -3.65131E+02
 -1.62856E+03  2.03906E+02 -1.80219E+02 -8.50338E+02  1.89638E+03 -1.61675E+03  1.28500E+02 -3.92867E+02
  1.12133E+03 -4.07123E+02 -7.06059E+02 -2.80467E+02 -1.16502E+01  1.84252E+03  1.49506E+02  1.23728E+03
