 $NMID ID='MM_0lb_SNR200_14hz_g45_77.RAW', FMTDAT='(8E13.5)'
 TRAMP=1., VOLUME=1. $END
  3.10805E+05  6.90801E+02  3.37010E+05  2.49617E+05  8.35706E+04  3.37380E+05 -1.32240E+05  2.51512E+05
 -1.89783E+05  8.28829E+04 -1.10238E+05 -3.15703E+04  1.03759E+03 -5.14003E+04  5.39579E+04  6.38595E+02
  3.53290E+04  5.23656E+04 -1.61352E+04  7.59968E+04 -6.15322E+04  6.30885E+04 -8.45632E+04  3.20893E+04
 -8.19963E+04 -1.12216E+04 -5.74478E+04 -5.13156E+04 -1.50176E+04 -6.88877E+04  2.77495E+04 -4.41481E+04
  4.07987E+04  4.49448E+03  1.54550E+04  4.81763E+04 -3.40030E+04  4.69013E+04 -6.77159E+04 -3.47350E+02
 -5.44970E+04 -5.63846E+04 -5.85416E+03 -7.65364E+04  3.39226E+04 -5.44002E+04  4.85219E+04 -1.76269E+04
  4.34152E+04  1.21209E+04  3.28726E+04  2.64828E+04  1.53738E+04  3.01971E+04 -4.37133E+03  2.73860E+04
 -2.12594E+04  1.39736E+04 -1.88196E+04 -4.44081E+03  4.22674E+03 -8.53488E+03  2.18799E+04  1.27460E+04
  8.47155E+03  3.39711E+04 -3.19795E+04  3.48976E+04 -6.21908E+04  1.54496E+03 -5.68557E+04 -4.24151E+04
 -1.30911E+04 -6.37337E+04  3.97924E+04 -4.52528E+04  5.73411E+04 -3.75385E+03  3.40933E+04  3.10459E+04
 -5.20580E+03  3.67417E+04 -2.83458E+04  1.52049E+04 -2.98815E+04 -4.05726E+03 -1.67335E+04 -1.07127E+04
 -7.63225E+03 -1.19760E+04 -3.12946E+02 -1.72510E+04  7.82481E+03 -2.29172E+04  1.44487E+04 -1.28301E+04
  1.13534E+04  3.87949E+03 -8.68906E+03  1.20257E+04 -2.14369E+04 -5.56683E+03 -8.34336E+03 -3.34209E+04
  2.15927E+04 -4.30974E+04  4.62296E+04 -2.03625E+04  4.51930E+04  1.87254E+04  1.68007E+04  4.35308E+04
 -1.48901E+04  3.42349E+04 -2.52509E+04  2.39916E+03 -8.79973E+03 -2.74838E+04  2.06352E+04 -3.37660E+04
  4.09142E+04 -9.40790E+03  3.57355E+04  2.29460E+04  1.73877E+04  4.44330E+04 -8.43303E+03  5.01338E+04
 -3.11593E+04  3.30655E+04 -4.08062E+04  9.43285E+03 -4.17713E+04 -1.68080E+04 -2.27847E+04 -3.76483E+04
  8.08882E+03 -3.68018E+04  3.12212E+04 -1.34555E+04  2.89286E+04  1.11039E+04  4.54763E+03  1.96845E+04
 -1.31377E+04  8.62188E+03 -1.02515E+04 -6.88630E+03  5.78550E+03 -1.17177E+04  1.80282E+04  6.18467E+03
  1.28602E+04  2.21869E+04 -6.16539E+03  2.52731E+04 -2.15767E+04  1.13831E+04 -2.65773E+04 -5.90905E+03
 -2.09335E+04 -1.75229E+04 -8.07898E+03 -1.93906E+04  3.53249E+03 -1.79515E+04  1.53848E+04 -1.91332E+04
  2.49311E+04 -1.30627E+04  3.25579E+04  3.25334E+03  2.36878E+04  1.91523E+04  5.08938E+03  3.51327E+04
 -1.73071E+04  2.96449E+04 -2.82487E+04  1.06330E+04 -2.01882E+04 -1.04414E+04 -5.39698E+03 -1.40519E+04
  5.60598E+02 -3.32183E+03 -4.29577E+03  6.90360E+03 -1.57475E+04  5.79968E+03 -1.71331E+04 -7.20036E+03
 -1.03798E+04 -1.80258E+04  5.77860E+03 -2.23734E+04  1.38923E+04 -1.61602E+04  1.76989E+04 -1.81734E+03
  1.11662E+04  1.19769E+04 -9.07285E+02  1.82648E+04 -1.36453E+04  1.09213E+04 -1.85035E+04 -3.56996E+03
 -1.41194E+04 -1.65583E+04 -1.77822E+03 -2.31100E+04  1.08160E+04 -1.79663E+04  1.84185E+04 -9.17382E+03
  1.80170E+04  7.22283E+02  1.35359E+04  4.36669E+03  7.33395E+03  1.68885E+03  1.03998E+04 -1.62951E+03
  1.69531E+04  2.86493E+03  1.91985E+04  1.55268E+04  1.25123E+04  3.03517E+04 -3.16638E+03  3.40270E+04
 -1.96605E+04  2.62280E+04 -3.14161E+04  1.29283E+04 -3.23763E+04 -2.28005E+03 -2.76876E+04 -1.79329E+04
 -1.18810E+04 -2.73829E+04  1.06674E+04 -2.34986E+04  2.07855E+04 -1.24598E+04  1.79202E+04  6.22698E+03
  7.08182E+03  1.31911E+04 -9.50813E+03  1.35134E+04 -1.57325E+04  3.05671E+03 -1.23308E+04 -9.71399E+03
 -1.20454E+03 -1.50965E+04  8.23149E+03 -1.03702E+04  1.04603E+04 -8.23416E+02  3.22707E+03  5.02199E+03
 -7.28084E+03  1.76013E+03 -4.97267E+03 -4.59443E+03 -6.00603E+02 -1.22728E+04  9.90162E+03 -1.33103E+04
  1.52072E+04 -6.64286E+03  1.57367E+04  2.99983E+03  1.57806E+04  1.24975E+04  7.74458E+03  1.94351E+04
 -4.47370E+03  2.12207E+04 -1.40012E+04  1.32728E+04 -1.56952E+04  4.09667E+03 -1.19416E+04 -2.46705E+03
 -5.08489E+03 -4.99704E+03 -1.41605E+03  1.42885E+03 -2.96312E+03  3.33591E+03 -5.14074E+03  5.84050E+03
 -1.00965E+04 -1.13377E+03 -1.10788E+04 -8.81776E+03 -4.65540E+03 -1.37578E+04  2.93398E+03 -1.10786E+04
  9.92724E+03 -4.21259E+03  6.37542E+03  2.98006E+03  1.01426E+00  4.14124E+03 -4.93039E+03 -7.05187E+02
 -3.17422E+03 -6.31910E+03 -6.59037E+02 -1.06259E+04  5.80640E+03 -9.25166E+03  1.30823E+04 -6.43432E+03
  1.63394E+04  2.18183E+03  1.13079E+04  8.89374E+03  2.80912E+03  1.22583E+04 -7.04113E+03  1.15235E+04
 -9.61059E+03  3.06865E+03 -4.42607E+03 -1.06912E+03  1.69602E+03 -2.56581E+03  6.62232E+03 -8.53913E+02
  5.96261E+03  4.61096E+03  3.90833E+02  8.66161E+03 -5.74648E+03  7.81729E+03 -1.02479E+04  7.29862E+02
 -7.92219E+03 -4.17523E+03  2.22182E+03 -9.74236E+03  4.46709E+03 -4.30762E+03  4.67412E+03  2.47644E+03
  1.66360E+03  5.08249E+03 -6.14566E+03  4.75963E+03 -7.65866E+03  2.72200E+03 -6.86902E+03 -1.37827E+03
 -6.11265E+03 -8.83947E+03  1.57898E+03 -1.08320E+04  8.89320E+03 -7.27465E+03  1.03124E+04  1.65130E+03
  6.40721E+03  8.12496E+03 -3.48654E+02  1.06213E+04 -6.66497E+03  5.76425E+03 -8.02417E+03 -1.18827E+03
 -7.72838E+03 -7.27561E+03 -1.98688E+03 -7.02480E+03  3.88655E+03 -6.42664E+03  4.10415E+03 -4.09155E+03
  2.25843E+03  6.69882E+02  8.41280E+02  1.78203E+03 -7.64712E+02 -1.45563E+03  1.11494E+03 -3.96561E+03
  7.51251E+03 -2.24303E+03  9.39175E+03  1.85277E+03  8.88474E+03  6.10100E+03  6.53082E+03  1.23632E+04
 -3.44753E+03  1.38009E+04 -1.15811E+04  1.06273E+04 -1.66067E+04  1.24824E+03 -1.24099E+04 -4.27961E+03
 -5.42721E+03 -8.89066E+03 -1.47800E+03 -7.88178E+03  2.68606E+03 -3.50679E+03  3.25818E+03 -2.75377E+03
  8.36099E+02 -2.22768E+03  3.65195E+03 -3.64397E+03  5.56650E+03 -9.05049E+02  6.16698E+03  4.28776E+02
  6.09469E+03  1.77287E+03  3.05165E+03  6.84973E+03 -1.52381E+03  6.68105E+03 -6.31656E+03  4.94751E+03
 -8.63376E+03 -1.81936E+03 -3.92891E+03 -5.91435E+03  5.15529E+02 -9.10863E+03  3.91540E+03 -8.69558E+03
  8.87371E+03 -4.85480E+03  1.06338E+04  2.45778E+03  8.17516E+03  7.04418E+03  1.27948E+03  9.36428E+03
 -3.05514E+03  8.43462E+03 -6.11437E+03  3.52798E+03 -3.51732E+03 -1.32731E+03 -5.45763E+02 -1.53394E+03
  1.62841E+02  1.09850E+03 -1.80903E+03  1.56491E+03 -3.10338E+03  5.72864E+02 -5.40327E+03 -1.19234E+03
 -2.41065E+03 -6.48832E+03  1.72396E+03 -8.30772E+03  4.62989E+03 -8.17940E+03  6.67972E+03 -2.77373E+03
  8.13517E+03  4.44723E+03  4.29623E+03  6.87392E+03 -1.31289E+03  8.34414E+03 -3.18182E+03  4.49983E+03
 -7.86905E+03  2.50358E+02 -7.51139E+03 -4.28824E+03  1.26145E+02 -6.49383E+03  2.33306E+03 -5.23125E+03
  5.27713E+03 -1.74536E+03  3.78001E+03  1.96399E+03  8.81398E+02  2.99428E+03 -6.98093E+01  5.64470E+02
  1.73988E+03  3.81147E+02  3.27901E+03  1.13236E+03  1.77208E+03  3.50068E+03  3.08516E+03  4.91899E+03
 -1.61938E+03  6.36948E+03 -5.54213E+03  6.19653E+03 -6.84008E+03  1.17801E+03 -6.91840E+03 -9.76477E+02
 -3.96357E+03 -7.57174E+03  5.59783E+02 -8.18988E+03  4.12113E+03 -4.96501E+03  6.14181E+03 -1.14297E+03
  4.21917E+03  3.66537E+03  4.31418E+02  3.04977E+03 -1.65722E+03  2.54434E+03 -2.15339E+03 -1.29482E+03
 -1.06149E+03 -3.38474E+03  1.33558E+03 -4.18908E+03  2.62590E+03 -1.84313E+03  2.35593E+03  1.32897E+03
  1.48439E+03  4.81700E+02 -3.40398E+02  1.62059E+03 -5.88516E+02  1.83857E+03  1.61362E+03 -3.85523E+02
  8.77649E+02 -6.53488E+02  2.84766E+03  9.52527E+02  2.20644E+03  4.12698E+03  5.22445E+00  4.37539E+03
 -4.05110E+03  3.57198E+03 -4.82030E+03  1.52913E+03 -3.70988E+03 -7.92297E+02 -1.40641E+03 -1.84668E+03
  1.20741E+03 -2.82006E+03  2.41069E+03 -1.19126E+03  1.36730E+03  2.12785E+03 -2.16737E+03  1.50230E+03
 -3.90272E+03  1.46180E+03 -2.71401E+03 -2.55004E+03 -2.51213E+03 -3.28592E+03 -2.95251E+02 -3.63656E+03
  1.85578E+03 -1.63807E+03  3.22557E+03 -6.47093E+02  3.21627E+03  4.61855E+02  7.95769E+02  2.16721E+03
 -2.00775E+03  1.84786E+03 -1.99868E+03 -4.00369E+02  1.62558E+03 -2.22957E+03  3.46284E+03 -2.47215E+03
  3.32270E+03  5.86714E+02  4.10139E+03  2.60318E+03  2.32455E+03  4.61041E+03 -1.84448E+03  3.93975E+03
 -2.50698E+03  6.11658E+02 -3.19970E+03 -1.55963E+03 -2.24147E+03 -2.62946E+03  1.32376E+03 -1.44566E+03
  2.43291E+03 -5.22843E+02  1.66416E+03  5.21250E+01  8.30760E+02  3.85156E+03 -1.12150E+02  2.21682E+03
 -1.22743E+03  1.72629E+03 -5.70146E+02  5.17520E+02 -6.40775E+02  1.55140E+03 -3.28521E+02  1.71915E+03
 -1.25127E+03  1.57005E+03 -2.58646E+03  1.16412E+03 -5.37252E+03 -3.12526E+01 -5.50329E+03 -1.72066E+03
 -2.84022E+03 -5.53653E+03  8.96147E+02 -7.37613E+03  3.71227E+03 -4.92291E+03  5.68378E+03 -1.60179E+03
  5.49293E+03 -8.75482E+01  2.25724E+03  3.98540E+03  5.94614E+02  3.09858E+03 -1.15815E+03  3.27853E+03
 -4.31460E+03  9.29002E+02 -1.94022E+03 -3.52484E+02  1.57583E+02 -1.24787E+03 -3.53954E+02 -2.04477E+02
 -6.65214E+02 -9.22926E+02 -1.09743E+03  3.01762E+02  3.57307E+02 -1.04836E+03  2.11863E+02 -2.87203E+03
  1.02190E+03 -1.01294E+03  2.66821E+03 -1.31215E+02  3.51211E+03  2.11116E+03  1.04364E+03  2.85114E+03
 -2.35979E+03  5.22477E+03 -3.33751E+03  2.47993E+03 -4.27555E+03 -2.27619E+02 -3.29249E+03 -3.68729E+03
 -1.60501E+03 -2.11030E+03  2.10856E+02 -4.11856E+03  2.73329E+03 -2.23197E+03  2.23124E+03  8.29244E+02
  1.30993E+03  8.37034E+02 -3.12602E+01  6.16155E+02 -7.56337E+02  1.54284E+02  1.29943E+03 -5.47339E+02
  2.82858E+02 -4.85323E+02  1.70489E+03  1.47127E+03  6.05213E+02  8.96564E+02  1.68931E+03  2.04806E+03
 -1.75838E+03  2.74100E+03 -2.62596E+03 -3.49975E+02 -2.36489E+03 -8.13687E+02  1.95834E+03 -3.46423E+03
  2.59495E+03 -2.17100E+03  3.10279E+03  3.91981E+02  3.67712E+03  3.95096E+02  5.14251E+02  3.12240E+03
  1.24453E+03  1.41553E+03 -2.98225E+02  1.02594E+03 -1.95292E+03  1.35978E+03 -2.08605E+03  1.11513E+02
 -9.18398E+02  2.92297E+02 -1.23282E+03  4.88299E+01 -9.63415E+02  5.50669E+02 -3.05461E+03 -1.19019E+03
 -2.06207E+03 -3.91902E+02 -1.40224E+03 -2.46437E+03  1.01247E+03 -2.21256E+03  2.28420E+03 -1.29678E+03
  3.52064E+03 -1.09734E+01  5.81857E+02  1.05233E+03 -7.46146E+02  2.18731E+03 -2.81768E+03  2.59393E+03
