 $NMID ID='MM_0lb_SNR200_10hz_g55_87.RAW', FMTDAT='(8E13.5)'
 TRAMP=1., VOLUME=1. $END
  3.09312E+05  2.06520E+03  3.38286E+05  2.51297E+05  8.52767E+04  3.38486E+05 -1.30205E+05  2.51648E+05
 -1.91716E+05  8.46168E+04 -1.12372E+05 -2.99680E+04  1.08005E+03 -4.92527E+04  5.18329E+04 -4.36220E+02
  3.48319E+04  5.31886E+04 -1.70841E+04  7.58242E+04 -6.08495E+04  6.36512E+04 -8.58635E+04  3.38258E+04
 -8.33651E+04 -1.37963E+04 -5.88704E+04 -5.33450E+04 -1.54647E+04 -7.07325E+04  2.83181E+04 -4.63551E+04
  4.09807E+04  3.21582E+03  1.70673E+04  4.82733E+04 -3.38119E+04  4.80031E+04 -6.86402E+04  2.76495E+02
 -5.63713E+04 -5.86364E+04 -6.23441E+03 -7.88429E+04  3.41722E+04 -5.55661E+04  4.82392E+04 -1.78030E+04
  4.44086E+04  1.05616E+04  3.36053E+04  2.69443E+04  1.70766E+04  3.06950E+04 -6.65703E+03  2.67700E+04
 -2.12389E+04  1.14378E+04 -1.83582E+04 -6.42278E+03  7.01607E+03 -7.68932E+03  2.37900E+04  1.24664E+04
  7.39612E+03  3.79118E+04 -3.33649E+04  3.66155E+04 -6.57466E+04  2.14072E+03 -5.95449E+04 -4.51447E+04
 -1.23894E+04 -6.37948E+04  4.20230E+04 -4.61828E+04  6.07199E+04 -3.31573E+03  3.69787E+04  3.40773E+04
 -6.40776E+03  3.87231E+04 -3.17230E+04  2.00466E+04 -3.29007E+04 -3.86675E+03 -1.93173E+04 -1.27035E+04
 -1.06569E+04 -1.64286E+04 -2.40519E+03 -1.93289E+04  8.97406E+03 -2.32860E+04  1.49007E+04 -1.14263E+04
  1.08194E+04  4.55645E+03 -9.44043E+03  1.31429E+04 -2.22543E+04 -6.38753E+03 -7.45812E+03 -3.80988E+04
  2.57350E+04 -4.80955E+04  5.14417E+04 -2.12399E+04  4.73858E+04  2.02828E+04  1.81750E+04  4.69260E+04
 -1.73921E+04  3.57653E+04 -2.78514E+04  3.03210E+03 -1.10154E+04 -3.03939E+04  2.12552E+04 -3.52447E+04
  4.36524E+04 -1.26430E+04  3.98945E+04  2.38405E+04  2.00739E+04  5.21767E+04 -7.84842E+03  5.62724E+04
 -3.65522E+04  3.83082E+04 -4.63148E+04  1.08380E+04 -4.63974E+04 -1.80140E+04 -2.74055E+04 -4.12137E+04
  6.48663E+03 -4.10729E+04  3.34132E+04 -1.71871E+04  3.32803E+04  1.24180E+04  4.43545E+03  2.15579E+04
 -1.36164E+04  1.10391E+04 -1.08966E+04 -7.75519E+03  5.92937E+03 -1.18931E+04  1.87882E+04  4.59994E+03
  1.45676E+04  2.34055E+04 -5.72700E+03  2.76292E+04 -2.32960E+04  1.18123E+04 -3.14039E+04 -3.27960E+03
 -2.51653E+04 -1.75559E+04 -1.07144E+04 -2.47690E+04  3.27558E+03 -2.64511E+04  1.95170E+04 -2.27053E+04
  2.87698E+04 -1.48167E+04  3.76581E+04  4.31714E+03  2.77381E+04  2.52777E+04  4.84751E+03  4.06179E+04
 -1.81867E+04  3.51027E+04 -3.13216E+04  1.25151E+04 -2.26058E+04 -1.01306E+04 -5.07410E+03 -1.35014E+04
  1.81151E+03 -2.50856E+03 -7.65460E+03  6.80760E+03 -2.16936E+04  5.94615E+03 -1.82389E+04 -8.67198E+03
 -1.04033E+04 -2.21408E+04  4.77668E+03 -2.75591E+04  1.76433E+04 -1.97973E+04  2.30056E+04 -1.05409E+03
  1.43675E+04  1.62441E+04 -6.52109E+02  2.33648E+04 -1.62945E+04  1.45222E+04 -2.34375E+04 -4.31317E+03
 -1.61708E+04 -2.10870E+04 -2.24693E+03 -2.93129E+04  1.26457E+04 -2.37875E+04  2.30401E+04 -1.19367E+04
  2.17200E+04 -1.70202E+03  1.44754E+04  4.66859E+03  8.35708E+03  1.25153E+03  1.22948E+04 -2.04708E+03
  2.07161E+04  3.04295E+03  2.67526E+04  1.87071E+04  1.62749E+04  3.79386E+04 -3.57913E+03  4.43161E+04
 -2.45881E+04  3.59475E+04 -4.01226E+04  1.78668E+04 -4.38106E+04 -3.68152E+03 -3.43019E+04 -2.51669E+04
 -1.50035E+04 -3.65013E+04  1.21447E+04 -3.27371E+04  2.67264E+04 -1.35795E+04  2.32684E+04  7.39048E+03
  8.14112E+03  1.70586E+04 -1.12741E+04  1.63684E+04 -2.09509E+04  2.73205E+03 -1.58664E+04 -1.17380E+04
  4.51918E+02 -1.86397E+04  1.10133E+04 -1.41339E+04  1.23977E+04 -2.31227E+03  4.09061E+03  7.91175E+03
 -7.09436E+03  4.01194E+03 -9.11001E+03 -7.51705E+03 -1.59934E+03 -1.71459E+04  1.28665E+04 -1.93983E+04
  2.18034E+04 -1.17316E+04  2.55545E+04  4.14637E+03  2.22485E+04  1.73472E+04  9.99356E+03  2.83702E+04
 -4.64711E+03  2.91379E+04 -1.98844E+04  1.85409E+04 -2.20879E+04  4.93995E+03 -1.50590E+04 -6.46096E+03
 -6.45562E+03 -6.61124E+03 -1.40265E+03 -6.34099E+02 -3.15234E+03  4.08125E+03 -7.48050E+03  6.18365E+03
 -1.43032E+04 -3.16355E+02 -1.47386E+04 -1.11314E+04 -5.21639E+03 -1.79156E+04  5.71848E+03 -1.55845E+04
  1.33067E+04 -6.80498E+03  8.20757E+03  3.23201E+03 -8.74451E+02  5.78597E+03 -8.53083E+03 -4.78265E+02
 -6.77340E+03 -1.00911E+04 -1.91018E+02 -1.43245E+04  9.07395E+03 -1.60840E+04  1.91230E+04 -8.10483E+03
  2.22594E+04  1.63655E+03  1.62028E+04  1.53068E+04  4.46502E+03  1.83159E+04 -7.90039E+03  1.54708E+04
 -1.25862E+04  4.62994E+03 -7.02052E+03 -3.85284E+03  7.83048E+02 -5.50456E+03  7.34138E+03 -1.91478E+03
  7.53932E+03  5.59898E+03  1.64436E+03  1.12971E+04 -8.86253E+03  1.12214E+04 -1.58181E+04  3.74996E+03
 -1.02656E+04 -8.24080E+03  2.59402E+02 -1.39293E+04  9.61030E+03 -5.08627E+03  8.93059E+03  3.17007E+03
  2.29863E+03  1.03079E+04 -6.76707E+03  1.24153E+04 -1.37783E+04  5.17151E+03 -1.27907E+04 -5.48582E+03
 -7.70247E+03 -1.55292E+04  4.06114E+03 -1.72027E+04  1.45427E+04 -1.13002E+04  1.67578E+04  2.73192E+03
  1.04437E+04  1.25978E+04 -1.54249E+03  1.28846E+04 -1.10619E+04  9.30038E+03 -1.18743E+04 -8.04003E+02
 -1.23336E+04 -9.92500E+03 -1.58583E+03 -9.72455E+03  6.03849E+03 -8.23289E+03  7.90427E+03 -4.05742E+03
  4.58393E+03  3.25996E+03 -9.79599E+02  1.02671E+03 -2.56519E+02 -3.22081E+03  1.19876E+03 -7.50040E+03
  1.03599E+04 -5.44479E+03  1.46977E+04  2.25208E+03  1.35165E+04  1.01322E+04  1.10903E+04  2.03998E+04
 -3.81944E+03  2.33305E+04 -1.94829E+04  1.61483E+04 -2.35529E+04  4.50494E+03 -1.97234E+04 -8.38296E+03
 -9.80606E+03 -1.80461E+04  4.63720E+02 -1.30746E+04  3.47670E+03 -6.66084E+03  4.26319E+03 -4.28471E+03
  4.10808E+03 -3.88503E+03  3.51246E+03 -4.22694E+03  6.49251E+03 -3.90119E+03  8.48479E+03 -1.08377E+03
  9.76205E+03  2.63404E+03  5.46431E+03  9.41981E+03 -1.89835E+03  9.66591E+03 -1.19364E+04  8.14655E+03
 -1.33176E+04 -1.27238E+03 -8.92457E+03 -1.05312E+04 -1.61993E+03 -1.58678E+04  8.99880E+03 -1.32818E+04
  1.44124E+04 -8.53808E+03  1.79006E+04  2.37278E+03  1.22879E+04  1.21560E+04  2.45004E+03  1.68437E+04
 -6.65225E+03  1.23793E+04 -8.35495E+03  4.75470E+03 -6.83986E+03 -1.93078E+03 -3.91454E+03 -1.73266E+03
 -1.87038E+03 -1.22281E+03 -3.15376E+03  3.33827E+03 -5.60023E+03  3.68127E+03 -9.05844E+03 -1.98801E+03
 -8.08064E+03 -9.54304E+03  4.69161E-02 -1.47217E+04  7.71465E+03 -1.27234E+04  1.30775E+04 -2.87875E+03
  1.36573E+04  6.79330E+03  5.90540E+03  1.17002E+04 -2.96168E+03  1.42197E+04 -1.03346E+04  8.25841E+03
 -1.36532E+04  5.06300E+02 -1.03398E+04 -8.28261E+03 -5.63418E+02 -1.20625E+04  7.24525E+03 -7.80611E+03
  8.88261E+03 -4.30578E+03  6.03446E+03  2.88288E+03  1.65983E+03  5.91341E+03  2.01746E+03  3.98413E+03
  1.76572E+03  5.95814E+01  2.20427E+03  1.73343E+03  3.62018E+03  5.96842E+03  4.10769E+03  6.80940E+03
 -7.74438E+02  9.28167E+03 -8.25320E+03  1.03700E+04 -1.34675E+04  3.64354E+03 -1.33577E+04 -6.74112E+03
 -7.48466E+03 -1.45651E+04  6.70129E+02 -1.48132E+04  8.15659E+03 -9.86307E+03  1.09238E+04 -3.14489E+03
  1.01977E+04  5.79762E+03  1.84265E+03  7.74721E+03 -4.54223E+03  5.06941E+03 -4.81863E+03 -9.28079E+02
 -1.48211E+03 -4.67113E+03  2.74912E+03 -6.09151E+03  6.88602E+03 -3.60934E+03  6.05819E+03  1.18509E+03
  4.41353E+03  3.24665E+03  1.47966E+03  1.44281E+03 -1.41782E+03  2.68141E+03  2.73919E+03 -1.24863E+03
  2.98012E+03 -1.34681E+03  5.52456E+03  1.75424E+03  2.64490E+03  7.97974E+03 -1.71106E+03  9.66592E+03
 -6.31875E+03  6.69771E+03 -8.53204E+03  9.44431E+02 -7.33727E+03 -3.52960E+03 -3.38907E+03 -4.67890E+03
  1.07418E+03 -4.89685E+03  2.73387E+03 -2.77146E+03  2.36213E+03  3.44617E+03 -4.96451E+02  5.09709E+03
 -5.17609E+03  1.74423E+03 -5.81200E+03 -3.98706E+03 -4.78352E+03 -7.90596E+03  9.98612E+02 -6.98965E+03
  5.00598E+03 -3.63580E+03  5.21357E+03 -7.08387E+02  4.55631E+03  1.23215E+03 -4.58642E+01  4.70164E+03
 -2.58103E+03  2.90640E+02 -2.34146E+03 -4.37102E+03  1.56078E+03 -5.50984E+03  8.40837E+03 -5.68123E+03
  8.54254E+03  8.38676E+02  8.38686E+03  5.86343E+03  3.36591E+03  1.16089E+04 -1.39320E+03  7.24034E+03
 -7.43679E+03  3.73258E+03 -6.42204E+03  1.77598E+02 -4.94763E+03 -5.27682E+03  1.12404E+03 -5.63854E+03
  6.90268E+03 -2.23835E+03  5.23102E+03  2.96939E+03  1.39581E+03  5.11860E+03 -4.60785E+02  4.74344E+03
 -2.50862E+03  3.13483E+03 -1.93306E+03  2.75064E+02  1.15381E+02  1.66070E+01 -4.59617E+02  2.32719E+03
 -2.40729E+03  4.52638E+03 -4.85199E+03  4.18829E+03 -9.24673E+03  2.95062E+02 -1.05214E+04 -5.55486E+03
 -5.26446E+03 -1.10538E+04  1.05933E+03 -1.30971E+04  8.16544E+03 -1.11997E+04  1.31761E+04 -2.66904E+03
  1.27162E+04  3.34758E+03  6.52559E+03  8.07933E+03  1.46340E+03  1.09031E+04 -3.64924E+03  6.89886E+03
 -4.22010E+03  1.57589E+03 -3.18759E+03  9.81740E+01 -1.66652E+03 -1.84727E+03  5.61248E+02  1.31844E+02
 -2.11323E+03  7.37404E+02 -1.42010E+03 -2.06061E+03 -6.73501E+02 -1.70629E+03 -1.18230E+03 -3.41107E+03
  3.53079E+03 -3.65964E+03  5.22861E+03 -5.69117E+02  6.75194E+03  5.47652E+03  1.93450E+03  8.00088E+03
 -3.80201E+03  1.04257E+04 -9.35896E+03  6.13355E+03 -1.11057E+04 -2.41566E+03 -8.40915E+03 -7.91405E+03
 -2.37505E+03 -8.71528E+03  2.73252E+03 -8.57333E+03  6.86839E+03 -4.97778E+03  5.61459E+03  4.10957E+02
  3.97321E+03  3.45393E+03 -3.94647E+02  2.61322E+03 -2.08885E+03  4.90538E+02 -2.66171E+02 -2.13565E+03
  2.03633E+03 -1.73190E+03  2.38474E+03  1.77433E+03  1.73552E+03  3.01362E+03  6.12925E+02  4.98939E+03
 -3.51544E+03  3.83245E+03 -6.07140E+03  5.13891E+02 -6.60007E+03 -4.03428E+03 -2.16233E+02 -7.68705E+03
  4.47599E+03 -7.38199E+03  7.34152E+03 -1.44371E+03  8.24984E+03  2.95837E+03  3.42412E+03  3.81247E+03
  5.84922E+02  6.36297E+03 -2.54491E+03  4.04268E+03 -3.56733E+03  2.86855E+03 -3.38780E+03  6.17646E+00
 -9.76331E+02  5.08247E+02 -2.44515E+03  4.98536E+01 -4.38308E+03  8.38658E+02 -5.27719E+03 -1.63400E+03
 -3.78971E+03 -2.95618E+03 -1.83555E+03 -5.58490E+03  3.68686E+03 -6.00489E+03  4.60291E+03 -1.89600E+03
  6.72392E+03  5.54138E+02  3.17382E+03  4.11316E+03 -1.06676E+03  4.86671E+03 -4.57171E+03  3.13445E+03
