 $NMID ID='MM_0lb_SNR200_10hz_g55_29.RAW', FMTDAT='(8E13.5)'
 TRAMP=1., VOLUME=1. $END
  3.10230E+05  1.09047E+03  3.39508E+05  2.50846E+05  8.59732E+04  3.38147E+05 -1.32186E+05  2.53963E+05
 -1.89923E+05  8.37556E+04 -1.12650E+05 -3.31192E+04  6.46481E+02 -5.05907E+04  5.27602E+04 -7.95752E+02
  3.66596E+04  5.39485E+04 -1.60711E+04  7.66915E+04 -6.11590E+04  6.49389E+04 -8.67768E+04  3.19668E+04
 -8.29766E+04 -1.16462E+04 -5.67984E+04 -5.36241E+04 -1.44785E+04 -7.00719E+04  2.90292E+04 -4.77879E+04
  4.11645E+04  3.20012E+03  1.71177E+04  4.83031E+04 -3.39086E+04  4.76316E+04 -6.74539E+04  1.53914E+03
 -5.44484E+04 -5.84122E+04 -7.61012E+03 -7.87996E+04  3.47088E+04 -5.58944E+04  5.06445E+04 -1.69472E+04
  4.60604E+04  1.03278E+04  3.24676E+04  2.46357E+04  1.66156E+04  2.96924E+04 -4.66602E+03  2.65298E+04
 -2.09651E+04  1.21002E+04 -1.85979E+04 -6.01962E+03  7.83109E+03 -5.78781E+03  2.34094E+04  1.45022E+04
  6.63232E+03  3.68598E+04 -3.30021E+04  3.60716E+04 -6.40686E+04  1.67384E+03 -5.85156E+04 -4.40899E+04
 -1.31073E+04 -6.39757E+04  4.13187E+04 -4.69839E+04  6.14782E+04 -3.00456E+03  3.66608E+04  3.34272E+04
 -6.27120E+03  4.08587E+04 -3.26648E+04  1.82042E+04 -3.27260E+04 -4.97980E+03 -1.99472E+04 -1.13651E+04
 -8.15120E+03 -1.45651E+04 -1.99925E+03 -2.02033E+04  7.59579E+03 -2.37143E+04  1.50912E+04 -1.29755E+04
  1.12487E+04  5.44980E+03 -1.24066E+04  1.27354E+04 -2.20622E+04 -7.92195E+03 -8.03800E+03 -3.70226E+04
  2.59005E+04 -4.55345E+04  5.14227E+04 -2.18931E+04  4.93888E+04  2.06549E+04  1.58128E+04  4.67621E+04
 -1.61418E+04  3.55949E+04 -2.82571E+04  4.56802E+03 -1.18075E+04 -2.67394E+04  2.03931E+04 -3.72215E+04
  4.51371E+04 -1.11471E+04  3.92947E+04  2.46652E+04  2.24290E+04  5.09703E+04 -7.77560E+03  5.46202E+04
 -3.46197E+04  3.88693E+04 -4.68157E+04  1.16183E+04 -4.75801E+04 -1.91120E+04 -2.73106E+04 -4.13089E+04
  7.30386E+03 -4.19320E+04  3.45038E+04 -1.72238E+04  3.13362E+04  1.22063E+04  4.23364E+03  1.98237E+04
 -1.34788E+04  1.07607E+04 -1.20446E+04 -8.04466E+03  6.23768E+03 -1.17252E+04  1.81188E+04  5.30797E+03
  1.56611E+04  2.31643E+04 -3.36812E+03  2.71224E+04 -2.28189E+04  1.30260E+04 -3.21330E+04 -4.00409E+03
 -2.33724E+04 -1.96414E+04 -9.86815E+03 -2.36448E+04  3.97244E+03 -2.59363E+04  1.83992E+04 -2.24346E+04
  3.37704E+04 -1.32966E+04  3.72637E+04  4.79661E+03  2.77210E+04  2.41347E+04  5.30389E+03  4.17489E+04
 -2.04062E+04  3.40632E+04 -2.96447E+04  1.30371E+04 -2.21683E+04 -1.03252E+04 -5.12245E+03 -1.44639E+04
  9.43536E+02 -5.90652E+02 -8.53641E+03  8.59672E+03 -1.95055E+04  5.50927E+03 -1.88558E+04 -9.75288E+03
 -1.24739E+04 -2.31850E+04  7.11764E+03 -2.86018E+04  1.97699E+04 -1.96581E+04  2.21468E+04 -1.26832E+03
  1.32270E+04  1.52815E+04 -2.82882E+03  2.25732E+04 -1.59142E+04  1.32831E+04 -2.37246E+04 -5.43849E+03
 -1.68781E+04 -2.03526E+04 -1.14983E+03 -2.75884E+04  1.31101E+04 -2.27421E+04  2.23841E+04 -1.06293E+04
  2.07580E+04  3.89776E+02  1.50504E+04  5.64582E+03  1.04295E+04  9.24127E+02  1.22108E+04 -1.73750E+03
  2.35389E+04  1.64378E+03  2.51933E+04  2.01983E+04  1.81680E+04  3.67337E+04 -1.85746E+03  4.31609E+04
 -2.48884E+04  3.52468E+04 -3.85330E+04  1.75845E+04 -4.43201E+04 -5.24322E+03 -3.38698E+04 -2.67283E+04
 -1.55302E+04 -3.62119E+04  1.17008E+04 -3.19203E+04  2.61878E+04 -1.56206E+04  2.45070E+04  7.58923E+03
  7.16113E+03  1.60278E+04 -1.09229E+04  1.65818E+04 -1.91867E+04  2.65004E+03 -1.48691E+04 -1.23571E+04
 -4.88499E+02 -2.00032E+04  1.07074E+04 -1.32879E+04  1.31702E+04  6.78059E+02  2.53692E+03  8.04098E+03
 -7.52317E+03  5.00215E+03 -7.91181E+03 -7.23676E+03 -5.52307E+02 -1.69026E+04  1.17609E+04 -1.91859E+04
  2.15680E+04 -1.12353E+04  2.48617E+04  2.08280E+03  2.27098E+04  1.68683E+04  8.99003E+03  2.92760E+04
 -5.40779E+03  3.13485E+04 -1.92416E+04  1.74557E+04 -2.18509E+04  4.89723E+03 -1.57251E+04 -7.28110E+03
 -5.38632E+03 -6.35364E+03 -2.52158E+03  4.61296E+01 -1.84959E+03  2.78597E+03 -7.75785E+03  6.83752E+03
 -1.45301E+04 -1.59467E+03 -1.39424E+04 -1.09074E+04 -6.76525E+03 -1.88950E+04  4.30927E+03 -1.65898E+04
  1.26662E+04 -6.37443E+03  8.07545E+03  4.00770E+03 -1.20470E+03  7.26325E+03 -6.99587E+03  1.32165E+02
 -7.15001E+03 -9.00311E+03 -9.25723E+02 -1.49683E+04  8.76309E+03 -1.70168E+04  1.90015E+04 -7.79419E+03
  2.27391E+04  3.51038E+03  1.64488E+04  1.34942E+04  2.77647E+03  1.79933E+04 -9.02167E+03  1.40448E+04
 -1.22929E+04  4.12177E+03 -6.42236E+03 -4.68395E+03  1.96784E+03 -5.59568E+03  1.01341E+04 -1.81443E+03
  6.26990E+03  6.09648E+03  1.94938E+03  1.16918E+04 -7.26159E+03  1.02246E+04 -1.57312E+04  2.27490E+03
 -1.02987E+04 -6.84014E+03  1.59848E+03 -1.22260E+04  7.84773E+03 -5.65359E+03  9.03591E+03  3.83441E+03
  4.82244E+02  8.90390E+03 -7.40937E+03  1.08515E+04 -1.20917E+04  4.35378E+03 -1.35357E+04 -4.28856E+03
 -8.52152E+03 -1.53850E+04  4.94557E+03 -1.63537E+04  1.48085E+04 -1.03190E+04  1.50013E+04  2.83278E+03
  1.08683E+04  1.26012E+04 -1.06159E+03  1.46742E+04 -1.26171E+04  8.24214E+03 -1.29440E+04 -1.58421E+03
 -1.08683E+04 -1.05747E+04 -1.60772E+03 -1.05957E+04  6.58153E+03 -9.64841E+03  7.34347E+03 -2.43306E+03
  5.09964E+03  1.25805E+03 -1.11315E+03  9.84752E+02 -8.08909E+00 -2.71061E+03  3.34050E+03 -6.01202E+03
  1.00193E+04 -4.77068E+03  1.54343E+04  2.49043E+03  1.56512E+04  1.03762E+04  9.02665E+03  1.88943E+04
 -3.77026E+03  2.29620E+04 -1.71031E+04  1.67090E+04 -2.37853E+04  3.65860E+03 -1.97329E+04 -8.75868E+03
 -1.09175E+04 -1.45423E+04 -4.30090E+02 -1.39216E+04  4.41446E+03 -7.49816E+03  4.99866E+03 -3.45507E+03
  2.27847E+03 -2.43286E+03  4.08893E+03 -3.81818E+03  5.37359E+03 -4.55250E+03  6.51122E+03 -6.72883E+02
  1.01483E+04  1.10947E+03  6.33796E+03  8.55921E+03 -1.51806E+03  9.49479E+03 -9.78020E+03  8.71184E+03
 -1.32526E+04 -8.30157E+02 -8.02434E+03 -9.71227E+03  3.51463E+02 -1.45594E+04  7.73927E+03 -1.52526E+04
  1.59251E+04 -7.43433E+03  1.81343E+04  3.24556E+03  1.25549E+04  1.26807E+04  1.71119E+03  1.70065E+04
 -6.63287E+03  1.58063E+04 -8.60047E+03  3.94343E+03 -5.52868E+03 -1.40050E+03 -2.10110E+03 -1.46362E+03
 -1.50694E+03 -5.17912E+02 -2.58560E+03  2.82921E+03 -5.99276E+03  3.38738E+03 -9.53004E+03 -1.77287E+03
 -5.32934E+03 -8.59688E+03  9.37630E+02 -1.32159E+04  8.35760E+03 -1.46864E+04  1.22404E+04 -3.53592E+03
  1.44493E+04  8.29205E+03  5.79713E+03  1.20143E+04 -2.61566E+03  1.26558E+04 -9.90334E+03  8.75589E+03
 -1.37187E+04 -1.05731E+02 -8.78462E+03 -8.10702E+03 -8.45211E+02 -1.17175E+04  5.52873E+03 -6.94717E+03
  8.27022E+03 -2.96519E+03  4.96915E+03  2.37175E+03  1.93305E+03  3.61306E+03  4.63185E+02  2.04123E+03
  2.34240E+03  2.64592E+03  4.24791E+03  2.65376E+03  5.95417E+03  6.78900E+03  4.32584E+03  6.02203E+03
 -2.15831E+03  1.09063E+04 -9.30442E+03  1.11473E+04 -1.47577E+04  1.46170E+03 -1.29357E+04 -6.37082E+03
 -5.74298E+03 -1.38577E+04  2.74611E+03 -1.67546E+04  7.73596E+03 -8.33176E+03  1.07309E+04 -1.77402E+03
  8.42506E+03  5.12917E+03  2.67498E+03  7.59942E+03 -3.97731E+03  4.58273E+03 -5.01946E+03 -4.28760E+02
 -4.74559E+03 -3.59084E+03  2.05118E+03 -5.10112E+03  6.74333E+03 -3.25321E+03  5.95884E+03  3.70230E+02
  2.96083E+03  3.47217E+03  2.11943E+03  2.12299E+03 -2.15123E+03  1.46051E+03  3.00260E+03 -3.89711E+02
  2.12694E+03 -9.67516E+02  6.05720E+03  2.54909E+03  2.88330E+03  7.24681E+03 -7.40253E+02  1.02713E+04
 -5.90728E+03  6.60862E+03 -9.20604E+03  2.26889E+03 -7.32787E+03 -3.71564E+03 -5.05937E+03 -5.34536E+03
  2.27833E+03 -5.52593E+03  3.74535E+03 -9.66274E+02  3.22207E+03  3.06493E+03 -1.27138E+03  5.65346E+03
 -5.49401E+03  2.54830E+03 -5.82995E+03 -4.21011E+03 -2.61310E+03 -6.65470E+03  1.20666E+03 -7.28778E+03
  3.49257E+03 -3.95603E+03  6.17739E+03 -2.00670E+02  4.44858E+03  2.22585E+03  1.32748E+03  2.87417E+03
 -3.58177E+03  1.72498E+03 -1.55185E+03 -2.44355E+03  1.32235E+03 -4.17134E+03  6.13603E+03 -4.62687E+03
  1.05058E+04  3.64581E+02  1.05915E+04  5.51524E+03  1.60691E+03  8.40818E+03 -2.58659E+03  8.94484E+03
 -7.08177E+03  2.81352E+03 -8.87620E+03 -1.72257E+03 -3.41807E+03 -5.87340E+03  9.09088E+02 -5.17533E+03
  6.39173E+03 -2.50953E+03  3.79131E+03  2.13285E+03  2.07621E+03  4.87429E+03  7.01514E+02  3.08398E+03
 -2.66422E+03  4.30255E+03 -2.65800E+03  9.76133E+02 -5.44264E+02 -4.78776E+02 -1.07033E+03  3.09149E+03
 -2.96889E+03  4.40002E+03 -6.27755E+03  3.61693E+03 -9.30311E+03  1.54862E+03 -1.01006E+04 -5.97057E+03
 -5.48591E+03 -1.23852E+04  9.21673E+02 -1.44726E+04  9.16050E+03 -1.20686E+04  1.23305E+04 -3.83128E+03
  1.29699E+04  2.51131E+03  7.83728E+03  7.25187E+03  1.28490E+03  7.52693E+03 -3.87933E+03  6.38373E+03
 -6.16542E+03  8.19343E+02 -3.68929E+03 -7.52846E+02 -1.67714E+03 -1.59991E+03  7.96198E+02  1.79825E+03
 -2.51360E+03  7.12585E+02 -1.41087E+03  9.69375E+02  2.41805E+02 -1.28821E+03  1.99614E+03 -3.40455E+03
  4.41035E+03 -3.64849E+03  4.96706E+03 -4.41566E+02  6.13156E+03  5.61039E+03  4.31874E+02  9.33042E+03
 -4.23531E+03  1.00716E+04 -8.95070E+03  4.92443E+03 -1.10685E+04 -8.97920E+02 -8.35662E+03 -7.38736E+03
 -3.91107E+03 -9.38432E+03  2.19569E+03 -8.56529E+03  5.92918E+03 -3.55517E+03  6.49897E+03  6.77733E+01
  2.96792E+03  3.93388E+03 -9.91643E+02  2.65404E+02 -1.88024E+03  5.05919E+02  8.81411E+02 -1.39559E+03
  2.30032E+03 -1.43237E+03  3.30388E+03  1.69528E+03  2.70704E+03  3.87681E+03  9.12106E+02  4.76182E+03
 -2.81537E+03  4.41836E+03 -5.87016E+03  1.13271E+03 -5.46420E+03 -4.66158E+03 -5.18527E+02 -7.94621E+03
  4.52265E+03 -5.75116E+03  7.08407E+03 -2.74376E+03  7.44890E+03  1.96670E+03  5.02047E+03  5.13939E+03
  1.61945E+03  7.63316E+03 -2.10047E+03  4.89398E+03 -3.33772E+03  1.11014E+03 -3.80104E+03 -1.56528E+00
 -8.94012E+02  1.44613E+03 -1.71139E+03  1.15613E+02 -3.53336E+03  6.70689E+02 -6.15089E+03 -2.63496E+01
 -5.63351E+03 -4.47567E+03 -1.82265E+03 -5.63334E+03  3.77031E+03 -4.83145E+03  5.35638E+03 -3.82223E+03
  5.29169E+03  9.12366E+02  4.07996E+03  4.29466E+03 -6.62153E+02  5.40946E+03 -4.50843E+03  3.50930E+03
