 $NMID ID='MM_0lb_SNR200_8hz_g45_8.RAW', FMTDAT='(8E13.5)'
 TRAMP=1., VOLUME=1. $END
  3.09635E+05  1.48521E+03  3.37727E+05  2.51752E+05  8.61059E+04  3.38561E+05 -1.32074E+05  2.51585E+05
 -1.88595E+05  8.39929E+04 -1.11558E+05 -3.21995E+04 -7.36429E+02 -4.93393E+04  5.39566E+04 -2.19439E+02
  3.63861E+04  5.24592E+04 -1.71632E+04  7.63812E+04 -5.94258E+04  6.25683E+04 -8.53283E+04  3.40384E+04
 -8.18302E+04 -1.22199E+04 -5.83555E+04 -5.45676E+04 -1.75677E+04 -7.24644E+04  2.70210E+04 -4.69718E+04
  4.01707E+04  2.59298E+03  1.60460E+04  4.88205E+04 -3.58233E+04  4.78482E+04 -6.81189E+04 -2.54492E+02
 -5.59963E+04 -5.63467E+04 -8.56724E+03 -7.86950E+04  3.54152E+04 -5.78906E+04  5.04966E+04 -1.78039E+04
  4.66549E+04  1.17637E+04  3.42580E+04  2.72069E+04  1.70427E+04  3.00717E+04 -7.13665E+03  2.64966E+04
 -2.28317E+04  1.04740E+04 -1.74850E+04 -6.79095E+03  8.06527E+03 -8.85666E+03  2.41560E+04  1.37235E+04
  7.54715E+03  3.78634E+04 -3.29519E+04  3.89115E+04 -6.60046E+04  2.58440E+03 -5.96267E+04 -4.54485E+04
 -1.36848E+04 -6.56519E+04  4.31348E+04 -4.59210E+04  6.13017E+04 -3.60460E+03  3.72838E+04  3.62666E+04
 -4.29901E+03  3.96037E+04 -3.11745E+04  1.80115E+04 -3.36362E+04 -4.97002E+03 -1.99986E+04 -1.32209E+04
 -8.43007E+03 -1.51941E+04  8.40582E+02 -1.85532E+04  8.30406E+03 -2.24111E+04  1.46890E+04 -1.17548E+04
  1.00249E+04  6.32979E+03 -9.64806E+03  1.36435E+04 -2.37377E+04 -5.67643E+03 -8.97547E+03 -3.76767E+04
  2.52922E+04 -4.64288E+04  5.26214E+04 -2.08139E+04  4.89791E+04  2.09112E+04  1.77163E+04  4.64918E+04
 -1.63828E+04  3.73619E+04 -2.77142E+04  3.09996E+03 -1.19045E+04 -3.00109E+04  1.90709E+04 -3.71429E+04
  4.63452E+04 -1.00641E+04  4.29150E+04  2.57599E+04  2.19499E+04  5.15202E+04 -8.91653E+03  5.68195E+04
 -3.59378E+04  3.70611E+04 -4.91174E+04  1.28339E+04 -4.80731E+04 -2.05006E+04 -2.68694E+04 -4.37475E+04
  5.81193E+03 -4.24786E+04  3.41733E+04 -1.79520E+04  3.22469E+04  1.09756E+04  6.38242E+03  2.03486E+04
 -1.39213E+04  9.83941E+03 -9.71486E+03 -7.97559E+03  7.03426E+03 -1.15511E+04  1.86073E+04  6.47931E+03
  1.59283E+04  2.32215E+04 -3.77529E+03  2.67302E+04 -2.36727E+04  1.53428E+04 -3.17585E+04 -3.39218E+03
 -2.65834E+04 -1.93494E+04 -1.30164E+04 -2.57631E+04  3.19018E+03 -2.71734E+04  1.93724E+04 -2.41084E+04
  3.25021E+04 -1.45644E+04  3.70426E+04  5.41622E+03  2.69467E+04  2.43119E+04  6.10451E+03  4.23989E+04
 -2.05194E+04  3.42558E+04 -3.12470E+04  1.32768E+04 -2.41987E+04 -8.97888E+03 -4.27824E+03 -1.08609E+04
 -1.57403E+03  4.67010E+02 -7.39189E+03  8.22900E+03 -2.18031E+04  5.95761E+03 -2.12153E+04 -9.28271E+03
 -1.18655E+04 -2.31069E+04  6.59102E+03 -2.76045E+04  1.93273E+04 -2.06247E+04  2.33477E+04 -3.62692E+03
  1.57974E+04  1.55726E+04 -2.01925E+03  2.37478E+04 -1.72535E+04  1.34041E+04 -2.34793E+04 -4.44694E+03
 -1.70635E+04 -2.27453E+04 -2.41345E+03 -2.78075E+04  1.19290E+04 -2.27303E+04  2.23428E+04 -1.18898E+04
  2.25551E+04  5.04167E+02  1.73008E+04  5.24902E+03  7.09286E+03  1.48084E+03  1.44838E+04 -1.92760E+03
  2.30848E+04  1.01200E+03  2.57408E+04  1.85776E+04  1.63978E+04  3.94773E+04 -1.88070E+03  4.36752E+04
 -2.60158E+04  3.81854E+04 -4.26589E+04  1.91736E+04 -4.43009E+04 -3.21925E+03 -3.83779E+04 -2.65086E+04
 -1.43812E+04 -3.85707E+04  1.48827E+04 -3.35852E+04  2.99317E+04 -1.59623E+04  2.49718E+04  8.03782E+03
  7.99239E+03  1.89769E+04 -1.24132E+04  1.59617E+04 -2.17774E+04  1.59071E+03 -1.58443E+04 -1.29705E+04
 -1.19684E+03 -1.96054E+04  1.25585E+04 -1.40690E+04  1.33107E+04 -1.26597E+01  3.80533E+03  1.02774E+04
 -9.63199E+03  4.78010E+03 -1.02083E+04 -7.56672E+03 -1.87305E+03 -1.79451E+04  1.10751E+04 -2.02882E+04
  2.31196E+04 -1.31212E+04  2.82723E+04  4.85259E+03  2.30602E+04  1.86643E+04  1.18873E+04  3.19631E+04
 -8.19064E+03  3.37650E+04 -1.99851E+04  2.06675E+04 -2.36067E+04  3.21690E+03 -1.59690E+04 -6.62649E+03
 -7.53547E+03 -8.75463E+03 -7.45386E+02  1.73311E+03 -2.85135E+03  1.80624E+03 -7.38714E+03  5.37341E+03
 -1.43513E+04 -8.51279E+02 -1.64906E+04 -1.22757E+04 -6.12473E+03 -2.06302E+04  5.76755E+03 -1.51048E+04
  1.22976E+04 -4.80201E+03  9.41053E+03  4.76911E+03  7.41401E+02  5.37437E+03 -7.77923E+03  4.56921E+02
 -7.72672E+03 -1.19784E+04 -2.00783E+03 -1.72322E+04  8.50493E+03 -1.66945E+04  2.00761E+04 -9.65970E+03
  2.34250E+04  2.73275E+03  1.71635E+04  1.64335E+04  3.61390E+03  1.99097E+04 -9.85553E+03  1.66708E+04
 -1.21955E+04  4.41606E+03 -7.73079E+03 -2.67833E+03  3.68648E+03 -4.87455E+03  9.78783E+03 -1.87920E+03
  9.17682E+03  8.08014E+03  1.32838E+03  1.26796E+04 -9.54577E+03  1.13076E+04 -1.72493E+04  2.32527E+03
 -1.08965E+04 -9.88905E+03 -1.90177E+03 -1.39947E+04  9.22256E+03 -9.79064E+03  9.23334E+03  3.84873E+03
  1.94456E+03  1.10069E+04 -7.36245E+03  1.15756E+04 -1.60210E+04  5.41069E+03 -1.62985E+04 -5.91729E+03
 -7.52704E+03 -1.68535E+04  3.33443E+03 -2.00846E+04  1.59612E+04 -1.23339E+04  1.93273E+04  2.46431E+03
  1.12646E+04  1.61220E+04 -2.08896E+03  1.71975E+04 -1.22196E+04  9.93075E+03 -1.52174E+04 -1.72254E+03
 -1.06245E+04 -1.19336E+04 -2.18166E+03 -1.19877E+04  6.06445E+03 -1.08791E+04  7.71023E+03 -3.16377E+03
  4.26419E+03  3.08861E+03 -2.90827E+03  1.36000E+03 -5.38762E+02 -5.46481E+03  1.76292E+03 -8.24971E+03
  1.11169E+04 -5.89651E+03  1.67106E+04  2.13497E+03  1.73187E+04  1.25927E+04  9.26119E+03  2.25048E+04
 -6.05669E+03  2.73787E+04 -1.92027E+04  1.91185E+04 -2.83025E+04  3.71123E+03 -2.21508E+04 -1.16766E+04
 -1.18433E+04 -1.81672E+04 -1.17966E+02 -1.50434E+04  6.59332E+03 -8.25992E+03  5.89289E+03 -6.77011E+03
  3.88703E+03 -3.61415E+03  4.12720E+03 -4.27849E+03  5.70791E+03 -3.74398E+03  9.20607E+03 -9.68753E+02
  1.24499E+04  2.61678E+03  6.87637E+03  1.06131E+04 -2.15539E+03  1.26389E+04 -1.12038E+04  8.85463E+03
 -1.86401E+04 -9.50719E+02 -1.13767E+04 -1.08690E+04 -1.23517E+02 -1.73023E+04  9.53534E+03 -1.74223E+04
  1.90300E+04 -9.97128E+03  1.97133E+04  2.01165E+03  1.47747E+04  1.43020E+04  3.27322E+03  1.98703E+04
 -1.00413E+04  1.49550E+04 -1.00694E+04  5.28098E+03 -9.04865E+03 -2.10307E+03 -4.19455E+03 -5.44968E+02
 -7.01540E+02 -9.69852E+02 -1.29558E+03  3.58781E+03 -6.38302E+03  3.00886E+03 -9.81131E+03 -2.06412E+03
 -6.92581E+03 -1.10693E+04  3.03850E+02 -1.74670E+04  1.16050E+04 -1.50256E+04  1.56639E+04 -4.35608E+03
  1.72680E+04  7.89082E+03  5.54597E+03  1.35373E+04 -4.17634E+03  1.64557E+04 -1.13418E+04  9.90528E+03
 -1.51430E+04  2.13154E+02 -1.19255E+04 -1.00989E+04 -1.16904E+03 -1.32047E+04  6.97812E+03 -8.99124E+03
  1.12832E+04 -2.12589E+03  6.55486E+03  4.23930E+03  1.52533E+03  4.87247E+03  2.53915E+03  1.90036E+03
  3.44489E+03  1.86689E+03  4.57592E+03  1.98921E+03  4.50343E+03  7.01679E+03  5.32231E+03  9.38999E+03
 -3.48601E+03  1.25535E+04 -1.09861E+04  1.32344E+04 -1.64901E+04  3.83280E+03 -1.63516E+04 -8.71763E+03
 -9.23884E+03 -1.69256E+04  3.21006E+03 -1.80355E+04  1.02313E+04 -1.16401E+04  1.30850E+04 -3.43248E+03
  1.02162E+04  5.11400E+03  1.86970E+03  9.92881E+03 -2.76103E+03  6.18635E+03 -7.33015E+03 -7.90305E+02
 -2.95180E+03 -6.97597E+03  4.17447E+03 -7.64818E+03  5.96207E+03 -3.95699E+03  6.81469E+03  2.50389E+03
  5.86580E+03  3.92176E+03  2.22418E+03  3.09514E+03 -9.62570E+02  2.24066E+03  1.94226E+03 -1.46250E+03
  2.98487E+03 -1.43118E+02  8.35477E+03  3.65403E+03  3.99568E+03  9.23499E+03 -1.82890E+03  1.11945E+04
 -7.72718E+03  7.67152E+03 -1.11429E+04  3.58209E+03 -1.04021E+04 -3.74386E+03 -4.42380E+03 -7.61088E+03
  2.06054E+03 -6.72412E+03  4.22633E+03 -3.65264E+03  3.35201E+03  4.38220E+03 -2.72624E+03  5.26548E+03
 -7.86704E+03  2.95263E+03 -7.04579E+03 -4.10282E+03 -6.49229E+03 -9.27008E+03  9.38537E+02 -1.01255E+04
  5.88422E+03 -4.40760E+03  6.88948E+03 -4.05600E+02  7.17203E+03  2.67764E+03 -2.80110E+02  3.68769E+03
 -2.15057E+03  2.03299E+03 -5.26990E+03 -3.23252E+03  1.06150E+03 -5.37347E+03  8.97194E+03 -6.64186E+03
  1.13510E+04  1.98780E+03  1.04998E+04  8.77144E+03  5.28960E+03  1.11037E+04 -4.04493E+03  1.02534E+04
 -1.01461E+04  4.62662E+03 -1.05060E+04 -1.53309E+03 -5.30372E+03 -6.66799E+03  1.22151E+03 -6.67086E+03
  7.38378E+03 -2.89682E+03  6.19037E+03  2.50780E+03  1.80742E+03  6.23709E+03 -4.83214E+02  4.80391E+03
 -1.23635E+03  1.56741E+03 -2.66223E+03  1.57266E+03 -1.26293E+03  1.10743E+03 -1.39027E+03  1.92479E+03
 -2.29450E+03  3.72214E+03 -7.67798E+03  4.75914E+03 -1.31419E+04  4.04723E+02 -1.10040E+04 -7.95442E+03
 -6.64082E+03 -1.55524E+04  4.83448E+03 -1.82838E+04  1.18305E+04 -1.31496E+04  1.56533E+04 -5.12916E+03
  1.50965E+04  3.61302E+03  8.91861E+03  1.04764E+04  1.03879E+03  1.07995E+04 -3.54605E+03  7.60951E+03
 -7.20705E+03  3.08971E+03 -3.66001E+03 -9.39574E+02 -1.56203E+03 -6.45300E+02 -1.52422E+03 -1.11895E+02
 -1.80297E+03  1.24242E+02 -2.31436E+03  1.25961E+03 -2.57000E+02 -1.95257E+03  1.02637E+03 -3.63956E+03
  5.20585E+03 -4.51561E+03  6.95569E+03  1.15140E+02  6.53411E+03  6.33290E+03  1.79771E+03  1.02132E+04
 -6.62264E+03  1.37326E+04 -1.27161E+04  8.98630E+03 -1.43544E+04 -5.68283E+02 -9.98781E+03 -9.59557E+03
 -4.16421E+03 -1.25815E+04  4.03913E+03 -1.27890E+04  7.39365E+03 -6.83000E+03  7.57520E+03  6.40438E+02
  4.24568E+03  4.67373E+03 -1.56601E+03  3.61606E+03 -1.39303E+03 -8.54415E+02  6.51212E+02 -3.41676E+03
  2.72764E+03 -7.06590E+02  6.47748E+03  8.09665E+02  2.99080E+03  6.33823E+03 -9.75854E+02  6.36628E+03
 -4.89053E+03  6.34734E+03 -9.92953E+03 -8.10018E+02 -6.33216E+03 -4.70922E+03 -1.68052E+02 -1.17235E+04
  5.38566E+03 -1.02587E+04  1.05623E+04 -3.14921E+03  1.00835E+04  1.44669E+03  5.47059E+03  9.08179E+03
  2.50292E+03  9.72972E+03 -4.66948E+03  6.89583E+03 -4.12852E+03  4.71631E+03 -4.27601E+03 -2.56764E+01
 -1.74803E+03 -8.47492E+02 -4.43207E+03  1.11149E+02 -4.44062E+03  3.30868E+03 -7.23963E+03  2.03705E+02
 -7.58970E+03 -4.83810E+03 -1.90619E+03 -8.06689E+03  4.03270E+03 -8.17680E+03  5.30598E+03 -3.14051E+03
  7.94665E+03  2.67591E+02  2.87426E+03  6.47057E+03  5.85477E+02  8.77016E+03 -3.85681E+03  6.75521E+03
