 $NMID ID='MM_0lb_SNR200_15hz_g40_27.RAW', FMTDAT='(8E13.5)'
 TRAMP=1., VOLUME=1. $END
  3.10156E+05 -2.74155E+02  3.37840E+05  2.51218E+05  8.40162E+04  3.36228E+05 -1.32334E+05  2.50774E+05
 -1.89677E+05  8.23272E+04 -1.10391E+05 -3.21552E+04  6.24917E+02 -5.02969E+04  5.45973E+04 -5.83316E+01
  3.45692E+04  5.21117E+04 -1.87439E+04  7.47487E+04 -5.99762E+04  6.30730E+04 -8.28718E+04  3.18444E+04
 -8.07284E+04 -1.09911E+04 -5.64520E+04 -5.05875E+04 -1.38107E+04 -6.91681E+04  2.65791E+04 -4.43737E+04
  3.89402E+04  3.29588E+03  1.49141E+04  4.76362E+04 -3.33244E+04  4.66000E+04 -6.85243E+04  8.89201E+02
 -5.27629E+04 -5.64274E+04 -7.17546E+03 -7.57366E+04  3.35796E+04 -5.57548E+04  4.72904E+04 -1.60372E+04
  4.18575E+04  1.14663E+04  3.14915E+04  2.46200E+04  1.62063E+04  2.90939E+04 -5.90045E+03  2.80643E+04
 -2.16959E+04  1.24321E+04 -1.81856E+04 -4.74211E+03  4.49824E+03 -7.36982E+03  2.24992E+04  1.20651E+04
  8.21868E+03  3.42987E+04 -3.13478E+04  3.51648E+04 -6.29807E+04  1.94642E+03 -5.62542E+04 -4.19360E+04
 -1.25449E+04 -6.20018E+04  3.76671E+04 -4.39268E+04  5.68184E+04 -2.55837E+03  3.37247E+04  3.12255E+04
 -6.84442E+03  3.31252E+04 -2.86937E+04  1.44249E+04 -2.97715E+04 -4.05734E+03 -1.59462E+04 -1.14454E+04
 -8.55892E+03 -1.20107E+04 -2.25271E+02 -1.72795E+04  7.09063E+03 -2.31135E+04  1.55105E+04 -1.46816E+04
  1.11530E+04  4.69507E+03 -5.71228E+03  1.30904E+04 -1.95297E+04 -4.39073E+03 -8.29583E+03 -3.18864E+04
  2.17116E+04 -4.12359E+04  4.74060E+04 -1.90872E+04  4.46271E+04  1.86426E+04  1.49714E+04  4.33236E+04
 -1.58900E+04  3.26249E+04 -2.36499E+04  9.85900E+02 -9.58701E+03 -2.73682E+04  1.92337E+04 -3.35142E+04
  4.01689E+04 -8.74419E+03  3.47859E+04  2.25731E+04  1.74007E+04  4.62907E+04 -6.77564E+03  4.81832E+04
 -2.92840E+04  3.26330E+04 -4.10243E+04  9.11781E+03 -4.18440E+04 -1.55560E+04 -2.10613E+04 -3.54555E+04
  7.56731E+03 -3.63863E+04  3.07294E+04 -1.26870E+04  2.70703E+04  1.16362E+04  4.54943E+03  1.92046E+04
 -1.35814E+04  7.52285E+03 -1.08387E+04 -6.66473E+03  6.62595E+03 -1.13136E+04  1.67719E+04  6.25125E+03
  1.39613E+04  2.13534E+04 -6.48473E+03  2.31397E+04 -2.12248E+04  1.04266E+04 -2.74877E+04 -5.92648E+03
 -1.93395E+04 -1.53423E+04 -5.80865E+03 -1.89274E+04  2.72646E+03 -1.78449E+04  1.49551E+04 -1.77546E+04
  2.31670E+04 -1.25137E+04  3.01602E+04  1.50641E+03  2.37760E+04  1.87995E+04  4.79811E+03  3.35148E+04
 -1.76820E+04  2.98472E+04 -2.69223E+04  9.79514E+03 -2.06482E+04 -1.07636E+04 -3.38638E+03 -1.42289E+04
  3.55046E+03 -2.55450E+03 -4.07678E+03  5.35662E+03 -1.40736E+04  4.54330E+03 -1.44489E+04 -6.12129E+03
 -9.34561E+03 -1.69957E+04  4.47159E+03 -2.10408E+04  1.51838E+04 -1.51634E+04  1.70537E+04 -1.89686E+03
  1.02102E+04  1.26088E+04 -1.28524E+03  1.71260E+04 -1.21981E+04  9.75106E+03 -1.63821E+04 -3.95384E+03
 -1.28027E+04 -1.59691E+04 -1.46476E+03 -2.15246E+04  1.10500E+04 -1.64213E+04  1.87478E+04 -8.41212E+03
  1.68476E+04  1.61910E+03  1.04302E+04  4.29773E+03  5.71612E+03 -6.39428E+02  9.07666E+03 -2.84229E+03
  1.64683E+04  2.96894E+03  1.74392E+04  1.51581E+04  1.11211E+04  2.86246E+04 -2.65040E+03  3.13461E+04
 -1.73350E+04  2.34887E+04 -2.86980E+04  1.09873E+04 -2.99826E+04 -1.49994E+03 -2.48514E+04 -1.65379E+04
 -1.06247E+04 -2.39082E+04  8.64847E+03 -2.29317E+04  1.93031E+04 -1.16599E+04  1.78693E+04  5.36151E+03
  7.80591E+03  1.27809E+04 -8.49269E+03  1.05734E+04 -1.51975E+04  1.77002E+03 -1.20390E+04 -9.60479E+03
  1.03668E+03 -1.38885E+04  6.83056E+03 -9.71136E+03  9.27249E+03 -1.77426E+03  2.64118E+03  6.41428E+03
 -6.26338E+03  2.01415E+03 -4.66307E+03 -5.41994E+03 -9.92082E+02 -1.13374E+04  8.56205E+03 -1.25179E+04
  1.55335E+04 -6.52851E+03  1.45693E+04  2.80486E+03  1.37093E+04  1.22008E+04  5.47233E+03  1.79165E+04
 -3.09062E+03  1.96069E+04 -1.29701E+04  1.27466E+04 -1.50099E+04  2.20013E+03 -9.34432E+03 -4.35358E+03
 -5.15933E+03 -3.28657E+03 -5.18182E+01  2.10904E+03 -2.02031E+03  2.09377E+03 -3.83046E+03  3.63839E+03
 -8.49616E+03 -1.12541E+03 -1.08086E+04 -9.24199E+03 -4.77375E+03 -1.31578E+04  4.29302E+03 -1.01145E+04
  8.50560E+03 -4.19818E+03  6.48290E+03  2.98376E+03  7.57196E+02  4.28258E+03 -4.63490E+03  1.79785E+02
 -3.99458E+03 -7.00013E+03 -9.37120E+02 -8.15041E+03  5.82660E+03 -1.12031E+04  1.33270E+04 -5.39446E+03
  1.42768E+04  1.07004E+03  1.07206E+04  8.51096E+03  2.32438E+03  1.15400E+04 -6.72100E+03  9.29641E+03
 -6.97779E+03  3.62523E+03 -3.29458E+03 -1.94173E+03  1.67968E+03 -2.03020E+03  5.59374E+03  9.59865E+01
  4.70089E+03  4.60779E+03  4.31171E+01  8.54812E+03 -5.29160E+03  7.05136E+03 -9.42740E+03  2.29842E+03
 -6.11625E+03 -4.08187E+03 -1.05799E+02 -8.34249E+03  5.47184E+03 -5.09070E+03  4.96384E+03  1.16286E+03
  2.62047E+02  4.68656E+03 -4.76986E+03  6.79727E+03 -6.66294E+03  3.96687E+03 -7.72723E+03 -2.29502E+03
 -4.39063E+03 -7.68229E+03  1.74717E+03 -1.06770E+04  7.93055E+03 -7.08133E+03  8.19390E+03  1.98623E+03
  4.80341E+03  7.30861E+03 -1.01456E+03  8.54111E+03 -6.48815E+03  4.45521E+03 -7.88722E+03  2.28691E+02
 -5.81754E+03 -6.66675E+03 -1.42040E+03 -6.19498E+03  3.25130E+03 -6.40079E+03  2.53180E+03 -2.95307E+03
  3.36934E+03  1.33889E+03  4.15071E+02  8.99873E+02  4.52301E+02 -5.39209E+02  7.34373E+02 -4.25093E+03
  6.04521E+03 -2.07981E+03  7.34724E+03  1.38386E+03  7.65365E+03  5.20183E+03  6.61945E+03  9.86169E+03
 -2.78623E+03  1.23629E+04 -8.96681E+03  8.28325E+03 -1.48627E+04  5.70809E+02 -1.06087E+04 -4.20003E+03
 -4.95665E+03 -9.60474E+03 -6.78915E+02 -7.71570E+03  2.61970E+03 -3.95402E+03  1.59386E+03 -2.18175E+03
  1.42164E+03 -1.41748E+03  2.82157E+03 -2.24322E+03  4.15884E+03 -2.35865E+03  3.91644E+03 -8.35277E+02
  6.36507E+03  1.54438E+03  2.92956E+03  4.54403E+03 -1.65842E+03  4.29272E+03 -6.70482E+03  2.61704E+03
 -7.38507E+03 -5.67278E+02 -4.32640E+03 -6.16621E+03  1.36337E+03 -8.20297E+03  3.97277E+03 -7.46217E+03
  8.39221E+03 -3.93373E+03  8.65795E+03  1.81163E+02  6.85857E+03  5.50260E+03  1.49202E+03  8.23009E+03
 -3.44765E+03  7.39000E+03 -4.15587E+03  1.99428E+03 -3.32378E+03 -1.57708E+03 -1.11161E+03  2.47016E+01
 -4.85702E+02  8.48097E+02 -1.53541E+03  1.91068E+03 -4.04002E+03  2.29419E+03 -5.76504E+03 -1.17010E+03
 -2.44191E+03 -5.30735E+03  2.13290E+02 -5.43772E+03  4.11190E+03 -5.97957E+03  6.59684E+03 -1.99095E+03
  7.50583E+03  3.71685E+03  2.43843E+03  5.16052E+03 -1.34527E+03  6.91995E+03 -5.14293E+03  5.19482E+03
 -7.27128E+03  6.56844E+02 -4.50887E+03 -3.53049E+03 -1.22282E+03 -5.98869E+03  2.61315E+03 -4.44571E+03
  3.38475E+03 -1.01002E+03  2.70084E+03  9.31516E+02  1.17198E+03  3.12516E+03  2.29191E+02  1.03626E+03
  2.94445E+03 -1.24781E+02  7.10547E+02  9.14268E+02  1.55415E+03  2.44137E+03  1.94610E+03  4.00917E+03
 -2.90930E+03  3.56201E+03 -4.23107E+03  4.81499E+03 -4.98158E+03  1.21123E+03 -7.16062E+03 -2.26499E+03
 -4.18638E+03 -6.26266E+03  6.47309E+02 -6.54117E+03  3.96755E+03 -3.26455E+03  4.31181E+03 -8.09973E+02
  3.43425E+03  1.82120E+03  1.01958E+03  3.40364E+03 -6.71498E+02  2.06698E+03 -2.16196E+03 -4.47769E+02
 -1.43199E+03 -2.24902E+03  8.39641E+02 -2.62727E+03  2.91865E+03 -9.84348E+02  1.79558E+03  8.02896E+02
  4.29317E+02  6.43202E+02  1.20466E+03  1.68699E+02 -1.21359E+03  4.43795E+02  1.44889E+03  1.13033E+02
  4.02372E+02  9.64155E+01  2.97248E+03 -2.01161E+02  5.82599E+02  4.24858E+03 -1.46694E+03  5.06753E+03
 -2.84685E+03  1.80593E+03 -3.18023E+03  3.77298E+02 -3.96885E+03 -7.52568E+02 -1.30422E+03 -2.44023E+03
 -2.72914E+02 -2.31326E+03  1.25176E+03 -1.69099E+03  1.54604E+03  1.81883E+03 -1.43366E+03  2.66840E+03
 -2.89748E+03  1.72335E+03 -2.39614E+03 -6.74802E+02 -1.54352E+03 -2.16854E+03  9.49827E+02 -3.48165E+03
  1.00421E+03 -1.12427E+03  1.60977E+03 -1.18423E+03  1.76576E+03  9.53781E+01  3.22588E+02  2.06608E+03
 -8.04356E+02  3.08913E+02 -1.64080E+03 -2.15311E+03  1.03622E+03 -1.78768E+03  4.00946E+03 -8.16317E+02
  3.22492E+03 -5.57939E+02  3.09277E+03  2.51271E+03  2.53053E+03  3.89972E+03 -1.14429E+01  1.69909E+03
 -2.46880E+03  6.46839E+02 -3.04675E+03 -2.14503E+02 -1.18929E+02 -2.25320E+03  6.49285E+02 -1.06968E+03
  2.50651E+03 -1.82366E+03  2.76904E+03  1.81760E+03  8.38910E+02  1.99426E+03  6.01554E+02  2.14977E+03
 -6.65731E+02  2.11650E+03 -1.87950E+02 -3.83702E+02  6.19969E+02  1.17940E+03 -6.81635E+02  7.23667E+02
 -1.06942E+03  1.11832E+03 -2.01534E+03  1.18226E+03 -2.68882E+03  6.01614E+02 -4.56442E+03 -1.21691E+03
 -2.17850E+03 -5.28207E+03  1.42321E+03 -5.30688E+03  1.70868E+03 -4.02243E+03  4.40501E+03 -2.06338E+03
  4.23779E+03  2.59870E+02  2.50659E+03  2.80615E+03 -4.25942E+01  3.39988E+03 -1.51418E+03  2.50341E+03
 -2.51826E+03 -1.17322E+02 -1.83790E+03 -6.40074E+02 -7.63899E+02  9.11494E+02  2.20371E+02  7.02663E+02
 -1.41990E+03  2.72320E+01 -5.89130E+02 -4.63258E+02  3.19321E+02 -1.43432E+03 -7.02963E+02 -1.03314E+03
  2.03715E+03 -1.73398E+03  1.26004E+03 -6.71263E+01  2.46667E+03  1.80459E+03  7.35700E+02  3.78724E+03
 -1.07531E+03  5.41720E+03 -4.92029E+03  1.82672E+03 -3.38344E+03  1.16888E+02 -2.93398E+03 -2.97427E+03
 -1.72213E+03 -2.45021E+03  4.52231E+01 -2.01334E+03  1.54545E+03 -2.39529E+03  2.23931E+03  2.10660E+02
 -3.56346E+02  4.46596E+02  4.94737E+02  1.22115E+03 -2.87889E+02  5.75312E+02 -6.80532E+02 -3.43714E+02
  1.06009E+03 -9.68871E+00 -1.90595E+02  8.75227E+02  1.47866E+03  1.86127E+03 -6.82818E+02  1.00877E+03
 -1.69447E+03  4.65716E+02 -2.36846E+03  1.05125E+03 -2.07508E+03 -1.83976E+03 -1.64857E+03 -3.17450E+03
  1.57449E+03 -1.16613E+03  1.84417E+03  7.71474E+02  1.63056E+03 -4.92747E+02  1.01763E+03  2.04525E+03
  2.45660E+03  1.80386E+03 -2.06170E+02  1.09447E+03 -1.40182E+03  1.47610E+03 -1.38680E+03 -8.66371E+02
  2.84276E+02 -2.69693E+02 -5.68710E+02 -2.67000E+02 -6.02537E+02  1.83552E+03 -1.63457E+03  4.07733E+01
 -1.85554E+03  4.09739E+02 -4.82970E+02 -2.42679E+03  5.17765E+02 -1.80962E+03  1.26021E+03 -8.27308E+02
  2.11095E+03 -3.26654E+02  5.33311E+02  1.46787E+03  2.10569E+02  1.88149E+03 -5.83222E+02  1.22047E+03
