 $NMID ID='MM_0lb_SNR200_19hz_g60_99.RAW', FMTDAT='(8E13.5)'
 TRAMP=1., VOLUME=1. $END
  3.10054E+05  3.39671E+02  3.36806E+05  2.50633E+05  8.46663E+04  3.37626E+05 -1.32338E+05  2.50138E+05
 -1.89983E+05  8.30762E+04 -1.11090E+05 -3.34772E+04  1.68059E+03 -4.98539E+04  5.30612E+04 -5.79803E+02
  3.48972E+04  5.22252E+04 -1.63267E+04  7.54814E+04 -6.13267E+04  6.35410E+04 -8.40958E+04  3.13335E+04
 -7.99254E+04 -1.21063E+04 -5.67702E+04 -5.05037E+04 -1.51391E+04 -6.89014E+04  2.70341E+04 -4.53089E+04
  3.83054E+04  3.46501E+03  1.58844E+04  4.81074E+04 -3.34387E+04  4.69175E+04 -6.65066E+04  4.01580E+00
 -5.30533E+04 -5.59198E+04 -6.85853E+03 -7.67016E+04  3.47731E+04 -5.44671E+04  4.76490E+04 -1.76603E+04
  4.30961E+04  1.21050E+04  3.10604E+04  2.53384E+04  1.60321E+04  2.90947E+04 -5.78011E+03  2.79736E+04
 -2.10120E+04  1.30780E+04 -1.94342E+04 -5.26604E+03  4.90216E+03 -8.04260E+03  2.14514E+04  1.18408E+04
  7.44102E+03  3.38978E+04 -3.20749E+04  3.56545E+04 -6.23432E+04  2.20864E+03 -5.54057E+04 -4.14160E+04
 -1.22391E+04 -6.20098E+04  3.88697E+04 -4.49643E+04  5.55635E+04 -2.69894E+03  3.35120E+04  3.10914E+04
 -6.25560E+03  3.38225E+04 -2.90353E+04  1.41487E+04 -2.90356E+04 -4.48996E+03 -1.57727E+04 -1.12523E+04
 -7.55782E+03 -1.30107E+04 -3.64312E+02 -1.58881E+04  6.52969E+03 -2.25320E+04  1.55286E+04 -1.28937E+04
  1.22260E+04  3.76731E+03 -7.18004E+03  1.24311E+04 -2.03449E+04 -4.28036E+03 -8.46121E+03 -3.18197E+04
  2.16467E+04 -4.16269E+04  4.75981E+04 -1.90471E+04  4.36701E+04  1.96784E+04  1.46698E+04  4.27802E+04
 -1.67323E+04  3.11160E+04 -2.41520E+04  1.57096E+03 -8.60671E+03 -2.69663E+04  2.09860E+04 -3.28679E+04
  3.94675E+04 -7.86808E+03  3.37169E+04  2.34529E+04  1.71084E+04  4.47610E+04 -9.12156E+03  4.65245E+04
 -3.05789E+04  3.09233E+04 -3.99139E+04  8.84188E+03 -3.99241E+04 -1.54650E+04 -2.30401E+04 -3.53010E+04
  6.84409E+03 -3.55503E+04  2.93485E+04 -1.37299E+04  2.75389E+04  1.05833E+04  3.11772E+03  1.82463E+04
 -1.25182E+04  7.03205E+03 -9.75991E+03 -7.41559E+03  6.63291E+03 -1.06101E+04  1.65330E+04  6.61085E+03
  1.22408E+04  2.29685E+04 -6.77025E+03  2.43664E+04 -2.09793E+04  1.08295E+04 -2.60303E+04 -5.16538E+03
 -1.75384E+04 -1.64449E+04 -6.98915E+03 -1.89828E+04  3.93717E+03 -1.63358E+04  1.32228E+04 -1.52661E+04
  2.27300E+04 -1.13406E+04  2.91279E+04  1.26481E+03  2.17787E+04  1.77065E+04  3.89343E+03  3.38378E+04
 -1.64318E+04  2.88099E+04 -2.60513E+04  8.71822E+03 -2.04999E+04 -9.53018E+03 -3.67846E+03 -1.41339E+04
  2.66793E+03 -4.64024E+03 -3.85278E+03  6.16418E+03 -1.39834E+04  5.35143E+03 -1.39953E+04 -6.15014E+03
 -8.85424E+03 -1.64511E+04  4.57077E+03 -1.94170E+04  1.28020E+04 -1.43239E+04  1.51776E+04 -8.10790E+02
  9.82112E+03  1.17388E+04 -5.01170E+02  1.66553E+04 -1.04624E+04  9.75735E+03 -1.63626E+04 -4.78653E+03
 -1.18871E+04 -1.55895E+04 -2.00122E+03 -1.99994E+04  1.00830E+04 -1.54634E+04  1.72930E+04 -7.56783E+03
  1.52752E+04  1.35047E+03  1.18363E+04  4.55393E+03  6.31816E+03  6.34207E+02  9.22168E+03 -2.17686E+03
  1.46271E+04  1.33828E+03  1.63106E+04  1.26368E+04  9.76455E+03  2.53963E+04 -2.89318E+03  2.92591E+04
 -1.72626E+04  2.09741E+04 -2.56437E+04  9.81923E+03 -2.72481E+04 -2.64430E+03 -2.30642E+04 -1.51663E+04
 -1.04916E+04 -2.18041E+04  6.98933E+03 -2.01001E+04  1.64366E+04 -1.09325E+04  1.60767E+04  4.53503E+03
  7.13736E+03  1.19428E+04 -7.94464E+03  1.10792E+04 -1.22559E+04  2.17505E+03 -1.08838E+04 -8.65140E+03
  1.72589E+03 -1.38945E+04  5.90758E+03 -8.99541E+03  8.64792E+03 -8.75737E+02  9.06635E+02  5.02661E+03
 -5.62471E+03  1.42041E+03 -3.99010E+03 -4.62654E+03  1.15339E+03 -1.10401E+04  7.49321E+03 -1.00718E+04
  1.26404E+04 -4.69029E+03  1.37777E+04  1.83550E+03  1.13489E+04  1.05325E+04  6.14621E+03  1.57236E+04
 -2.56743E+03  1.62905E+04 -9.82148E+03  1.16324E+04 -1.25842E+04  3.33532E+03 -8.94349E+03 -7.59090E+02
 -4.06038E+03 -4.07173E+03 -9.84206E+01  2.24249E+03 -1.81354E+03  2.60718E+03 -3.48023E+03  3.60507E+03
 -8.67689E+03 -1.48268E+03 -8.63840E+03 -7.29816E+03 -3.72262E+03 -1.22334E+04  3.65777E+03 -9.10527E+03
  7.24530E+03 -3.44018E+03  5.37616E+03  1.91330E+03  9.38197E+01  2.89047E+03 -3.78174E+03 -5.77907E+02
 -4.03729E+03 -4.79287E+03  3.46532E+02 -7.23247E+03  4.28755E+03 -9.38805E+03  9.84331E+03 -3.79813E+03
  1.18963E+04  1.57331E+03  8.78776E+03  7.50531E+03  1.56237E+03  9.18774E+03 -5.95611E+03  8.35465E+03
 -7.31263E+03  2.46913E+03 -3.67101E+03 -1.60981E+03  9.46709E+02 -1.89921E+03  5.22371E+03 -3.91625E+02
  4.64603E+03  3.31091E+03  1.34141E+03  6.01333E+03 -3.89681E+03  6.18597E+03 -8.66898E+03  1.89846E+03
 -5.47172E+03 -3.52803E+03 -2.90620E+02 -7.39618E+03  4.28413E+03 -4.19138E+03  3.86556E+03  8.88257E+02
  7.71833E+02  3.92051E+03 -4.19417E+03  5.59259E+03 -4.85826E+03  2.19018E+03 -3.92504E+03 -7.80495E+02
 -4.44718E+03 -6.45990E+03  6.26112E+02 -7.50383E+03  6.63184E+03 -5.26349E+03  6.23942E+03  1.61005E+03
  5.46930E+03  5.43873E+03  1.44968E+02  7.01939E+03 -5.34931E+03  3.39394E+03 -5.13315E+03 -6.07920E+02
 -5.70623E+03 -4.39521E+03 -1.49770E+03 -4.95375E+03  2.97362E+03 -4.20382E+03  2.24286E+03 -2.28929E+03
  4.09903E+03  7.81512E+01  1.49502E+03  9.37449E+02  3.05177E+02  2.28123E+00  1.19248E+02 -1.36879E+03
  2.96679E+03 -4.04257E+02  5.57325E+03  6.04057E+02  6.21445E+03  2.84037E+03  5.55949E+03  8.22276E+03
 -4.72483E+02  8.09481E+03 -7.64811E+03  6.36797E+03 -8.58842E+03  2.04328E+03 -7.14524E+03 -2.42245E+03
 -4.33911E+03 -7.61098E+03 -8.96808E+02 -4.98506E+03  3.01364E+03 -1.90111E+03  1.42833E+03 -3.28563E+03
  1.99729E+03 -5.07695E+02  1.56197E+03 -2.50730E+03  3.63666E+03 -1.01291E+03  3.21446E+03  7.17915E+02
  3.51769E+03  2.79311E+03  8.82174E+02  4.00064E+03 -7.78075E+02  2.60913E+03 -4.19322E+03  3.75183E+03
 -6.44786E+03 -8.22462E+02 -2.11670E+03 -2.84951E+03  3.71988E+01 -3.68511E+03  3.87074E+03 -5.90774E+03
  4.24366E+03 -3.29243E+03  7.26354E+03  1.02991E+03  5.79494E+03  5.07164E+03  1.10174E+03  6.64413E+03
 -1.45430E+03  5.17726E+03 -3.93460E+03  1.43098E+03 -1.60605E+03 -6.27497E+02 -1.73435E+03  4.37008E+01
 -9.49443E+02  1.06633E+02 -1.34995E+03  1.34849E+03 -3.43771E+03  8.77388E+02 -4.13119E+03  4.43711E+02
 -1.82150E+03 -4.77071E+03  1.03387E+03 -4.92820E+03  3.16175E+03 -4.60844E+03  2.24363E+03 -1.23453E+03
  3.36314E+03  1.57919E+03  1.54811E+03  2.44622E+03 -1.27089E+03  4.89410E+03 -1.88413E+03  3.28660E+03
 -3.35877E+03  1.36876E+03 -3.71300E+03 -3.16937E+03  3.53811E+02 -2.90296E+03  2.36518E+03 -2.59885E+03
  3.07778E+03 -1.32762E+03  8.88368E+02  7.92495E+02  6.89299E+01  1.44703E+03  1.28723E+03  9.88178E+02
  2.13990E+03  2.79849E+02  1.28792E+03  1.22108E+03  5.22397E+02  2.61555E+03  1.15197E+03  2.35277E+03
 -1.59566E+03  3.37913E+03 -2.43882E+03  5.04158E+03 -1.72532E+03  1.09148E+03 -3.86766E+03 -1.23949E+03
 -1.10301E+03 -3.23616E+03  3.07540E+01 -5.35902E+03  1.48669E+03 -2.28205E+03  3.00546E+03 -1.06347E+01
  1.87197E+03  1.90816E+03  4.35184E+02  1.59969E+03 -1.56428E+03  1.09802E+03 -2.33528E+01  6.39071E+02
  1.44824E+02 -1.35858E+03  1.30067E+03 -1.65740E+03  1.04365E+03 -3.79494E+02  8.52022E+02  1.70966E+03
  1.27796E+03 -2.58116E+02 -5.66120E+01  3.20403E+02 -4.32815E+02 -1.14387E+02  1.30824E+03 -1.21463E+02
  3.17866E+02 -6.35996E+02  6.70168E+02  7.15353E+02  5.33580E+02  1.86320E+03  6.22473E+02  1.56797E+03
 -1.79346E+03  1.34847E+03 -1.63472E+03  1.35942E+02 -1.87035E+03 -5.75941E+02 -4.58581E+02 -8.70725E+02
  1.77196E+02 -1.12850E+03  6.76062E+02 -1.60748E+03 -5.98188E+02  6.90752E+02 -9.60449E+02  4.74609E+02
 -1.90964E+03  1.21695E+03 -1.03467E+03 -2.14113E+03 -1.31316E+03 -1.29560E+03  5.56225E+02 -1.22843E+03
  3.85706E+02 -3.06642E+02  3.09520E+01  2.39925E+02  2.12600E+03 -2.67353E+02  5.11963E+02  9.17711E+02
 -7.85928E+02  5.73547E+02 -4.44794E+02  9.75625E+02  5.38942E+02 -1.59983E+03  1.73645E+03 -3.69307E+02
  1.75747E+03  2.19294E+02  2.66100E+03  1.10703E+02  1.17427E+03  8.91849E+02  7.78008E+01  1.69458E+03
 -1.49168E+02 -3.49848E+02 -1.66697E+03  3.63647E+02 -2.55098E+02 -1.07063E+03  6.17794E+01  2.08332E+02
  1.46514E+03 -4.46886E+02  5.87424E+02 -2.56641E+02 -5.76066E+02  1.66245E+03 -1.51421E+02  3.16105E+02
 -4.33933E+02  1.46688E+03 -6.71980E+02  1.32818E+03  8.07794E+02  9.74568E+02 -1.09987E+03 -2.06406E+01
 -1.09446E+03  1.64699E+03 -6.13785E+02  3.94783E+02 -1.76893E+03  1.19088E+02 -2.86593E+03 -7.29964E+02
 -1.00001E+03 -3.37367E+03  5.49361E+02 -2.06598E+03  6.44341E+02 -2.23452E+03  2.44121E+03 -2.51863E+01
  2.22954E+03 -1.94514E+03  2.47854E+03  8.30959E+02 -1.25926E+03  2.82766E+02 -1.18547E+03  1.12394E+03
 -1.43700E+03  3.45371E+02 -1.03217E+03  7.16620E+00  1.26765E+02  9.34669E+02 -1.54307E+03 -8.57322E+01
 -3.37735E+01 -5.20079E+02 -1.66015E+03  1.00186E+03  1.31773E+03  5.65392E+02  2.62663E+02 -2.16949E+03
  1.02606E+03 -4.79194E+02  1.73908E+02 -1.65871E+01  7.64304E+02  1.52584E+03 -4.82530E+02  1.71466E+03
 -1.56099E+03  1.66581E+03 -2.21935E+03  1.15024E+03 -1.15491E+03  2.22757E+02 -7.42047E+02 -1.45368E+03
 -6.61424E+02  6.46603E+01  4.31733E+02 -1.01360E+03  5.91436E+02 -4.28300E+01  1.79683E+02  1.46405E+02
  6.60316E+01 -9.72262E+02  5.96552E+01 -5.19430E+02  9.30505E+01 -7.85443E+01  3.01933E+02  2.68369E+02
  6.57017E+02  4.15559E+02 -2.20575E+02  1.36705E+03 -4.96380E+02  1.57924E+03  5.90302E+02 -2.00789E+02
 -1.24761E+03  3.00125E+02 -3.78996E+01  6.14481E+02 -1.16685E+03  1.49097E+02 -6.37932E+02 -1.27884E+03
  6.57025E+02  7.69427E+02 -8.66097E+02  9.78442E+01  6.40777E+02 -1.91608E+02 -5.77742E+02  3.54270E+02
  1.98821E+03 -5.47889E+02  4.40333E+02  4.75873E+02  3.16632E+02  4.65498E+02 -1.68207E+03  4.84748E+02
 -5.41896E+02  3.07318E+02 -4.04697E+02  1.03368E+03 -4.89734E+02  8.49881E+02 -1.06630E+03 -5.40589E+02
 -6.09210E+02  7.18109E+02  4.29605E+02  1.64814E+02  1.86620E+03 -1.27168E+03 -4.20662E+02 -2.76793E+02
  3.73925E+02 -5.21956E+02 -6.05661E+02  7.54499E+01  1.40582E+01  1.00903E+03  7.17278E+02  1.26413E+03
