 $NMID ID='MM_0lb_SNR200_19hz_g45_12.RAW', FMTDAT='(8E13.5)'
 TRAMP=1., VOLUME=1. $END
  3.08641E+05  2.73096E+02  3.38005E+05  2.50011E+05  8.38468E+04  3.37437E+05 -1.33532E+05  2.51153E+05
 -1.88781E+05  8.26202E+04 -1.10910E+05 -3.31601E+04  2.54040E+03 -5.02651E+04  5.38855E+04  1.04085E+03
  3.45595E+04  5.25263E+04 -1.72471E+04  7.54244E+04 -6.05590E+04  6.22736E+04 -8.22203E+04  3.13366E+04
 -7.88859E+04 -1.03014E+04 -5.57128E+04 -4.96918E+04 -1.56293E+04 -6.81284E+04  2.71721E+04 -4.45247E+04
  3.85707E+04  4.62235E+03  1.55312E+04  4.67459E+04 -3.35415E+04  4.68295E+04 -6.59203E+04 -2.88936E+02
 -5.27578E+04 -5.48793E+04 -6.84685E+03 -7.50729E+04  3.29796E+04 -5.21879E+04  4.57992E+04 -1.61847E+04
  4.17180E+04  1.13360E+04  3.08733E+04  2.40302E+04  1.70258E+04  2.83086E+04 -4.94206E+03  2.72104E+04
 -2.16489E+04  1.13259E+04 -1.91376E+04 -4.76560E+03  3.80816E+03 -9.09770E+03  2.02324E+04  1.12044E+04
  6.97352E+03  3.34778E+04 -2.95260E+04  3.40355E+04 -6.03357E+04  2.25879E+03 -5.50485E+04 -4.15404E+04
 -1.21973E+04 -6.10451E+04  3.81061E+04 -4.35168E+04  5.53246E+04 -1.18361E+03  3.12498E+04  3.03253E+04
 -7.30084E+03  3.29372E+04 -2.73351E+04  1.31781E+04 -2.65979E+04 -5.16011E+03 -1.34300E+04 -9.13269E+03
 -7.09729E+03 -1.15186E+04 -1.69533E+03 -1.60806E+04  6.75362E+03 -2.17922E+04  1.55156E+04 -1.44700E+04
  1.12366E+04  5.01892E+03 -5.72354E+03  1.35676E+04 -1.94788E+04 -2.70603E+03 -9.06272E+03 -2.97224E+04
  1.98034E+04 -4.04903E+04  4.41983E+04 -1.85163E+04  4.12120E+04  1.79333E+04  1.28888E+04  4.10680E+04
 -1.60220E+04  3.15097E+04 -2.33726E+04  1.06304E+03 -6.97766E+03 -2.57086E+04  2.05414E+04 -3.00407E+04
  3.79050E+04 -7.27032E+03  3.05161E+04  2.29949E+04  1.54868E+04  4.19035E+04 -7.51065E+03  4.48189E+04
 -2.77621E+04  2.92863E+04 -3.71051E+04  8.43428E+03 -3.77633E+04 -1.52362E+04 -2.13713E+04 -3.42219E+04
  7.85215E+03 -3.37371E+04  2.99939E+04 -1.25801E+04  2.69294E+04  1.06613E+04  2.44932E+03  1.61763E+04
 -1.23965E+04  7.69444E+03 -9.14732E+03 -5.96591E+03  6.41848E+03 -1.00204E+04  1.68464E+04  6.64135E+03
  1.27237E+04  2.11455E+04 -7.03816E+03  2.32640E+04 -2.12834E+04  9.60475E+03 -2.54473E+04 -6.63567E+03
 -1.47726E+04 -1.63429E+04 -5.40544E+03 -1.60410E+04  3.60162E+03 -1.44539E+04  1.21657E+04 -1.37506E+04
  2.20628E+04 -1.04969E+04  2.79477E+04  1.11561E+03  2.12690E+04  1.66900E+04  4.13485E+03  3.27106E+04
 -1.63303E+04  2.87893E+04 -2.55049E+04  8.76282E+03 -1.94563E+04 -1.09581E+04 -4.00990E+03 -1.40805E+04
  1.95232E+03 -4.44391E+03 -2.16828E+03  6.53459E+03 -1.25893E+04  6.10019E+03 -1.30991E+04 -4.94208E+03
 -9.03242E+03 -1.41758E+04  4.64379E+03 -1.91160E+04  1.17344E+04 -1.32395E+04  1.38286E+04 -4.47964E+02
  8.66736E+03  9.66036E+03 -1.94474E+03  1.46808E+04 -9.70495E+03  8.31952E+03 -1.52322E+04 -3.27897E+03
 -1.10087E+04 -1.29556E+04 -1.59409E+03 -1.96670E+04  8.18527E+03 -1.47904E+04  1.53091E+04 -6.95172E+03
  1.39879E+04  1.66176E+03  9.52174E+03  3.74802E+03  4.58565E+03 -2.31273E+02  7.06367E+03 -1.43782E+03
  1.36470E+04  4.17189E+03  1.37708E+04  1.24807E+04  9.74780E+03  2.39588E+04 -3.74043E+03  2.54905E+04
 -1.52027E+04  1.90225E+04 -2.38582E+04  1.00271E+04 -2.34980E+04 -1.21210E+03 -2.13814E+04 -1.36214E+04
 -9.87925E+03 -1.91076E+04  6.68554E+03 -1.79278E+04  1.56460E+04 -1.11885E+04  1.50382E+04  3.45652E+03
  7.25422E+03  1.14786E+04 -7.33456E+03  1.01285E+04 -1.37692E+04  1.37979E+03 -1.10712E+04 -7.83796E+03
  2.56883E+02 -1.08666E+04  5.98421E+03 -9.05170E+03  8.21776E+03 -1.76191E+03  1.07727E+03  5.01746E+03
 -5.93433E+03  9.12369E+02 -4.06319E+03 -4.89732E+03  1.12210E+03 -1.03087E+04  7.16329E+03 -1.01696E+04
  1.13415E+04 -4.71359E+03  1.10163E+04  2.06951E+03  1.10017E+04  9.87621E+03  4.88255E+03  1.32440E+04
 -1.46766E+03  1.53949E+04 -9.99435E+03  9.62532E+03 -1.04236E+04  1.95922E+03 -8.39417E+03 -1.64329E+03
 -4.85945E+03 -2.52468E+03 -5.15084E+02  1.26167E+03 -1.95825E+03  2.57140E+03 -3.36400E+03  3.86631E+03
 -7.54831E+03 -5.53212E+02 -8.37432E+03 -7.03151E+03 -2.71604E+03 -1.13760E+04  3.78438E+03 -7.82874E+03
  7.25594E+03 -3.94344E+03  4.50040E+03  3.30756E+03  1.35341E+03  2.07269E+03 -3.21377E+03 -7.18441E+01
 -2.78862E+03 -5.56421E+03 -1.15997E+03 -6.90231E+03  3.71590E+03 -8.27456E+03  1.01264E+04 -3.97688E+03
  1.15687E+04  6.48076E+02  8.77406E+03  4.48317E+03  6.80054E+02  8.82825E+03 -5.54473E+03  8.01431E+03
 -7.11174E+03  2.39827E+03 -3.62226E+03 -1.82764E+03  1.37534E+03 -2.09235E+03  5.47031E+03 -1.07611E+03
  4.51303E+03  3.27503E+03  6.11098E+02  6.99783E+03 -5.48442E+03  5.36650E+03 -8.18274E+03  1.14212E+03
 -4.61989E+03 -3.86302E+03 -3.82996E+02 -6.99112E+03  2.38054E+03 -3.51512E+03  3.19245E+03 -3.08473E+02
 -1.11717E+03  3.04699E+03 -2.69444E+03  4.48131E+03 -4.22618E+03  1.29518E+03 -4.57217E+03 -7.26762E+02
 -1.94038E+03 -4.95730E+03  7.99144E+02 -6.52131E+03  6.41423E+03 -4.97191E+03  5.15769E+03  1.11989E+03
  5.12729E+03  4.76062E+03  6.22442E+02  6.88189E+03 -4.48206E+03  4.67651E+03 -6.24928E+03 -7.27662E+02
 -5.56143E+03 -4.82882E+03 -1.19767E+03 -5.25482E+03  2.77663E+03 -4.07581E+03  3.07403E+03 -3.02983E+03
  3.01696E+03  9.57404E+02 -8.85888E+02  5.40230E+02  4.47999E+02  4.96008E+02 -6.22881E+02 -7.51576E+02
  3.04245E+03 -8.87472E+02  3.94199E+03  7.46842E+02  4.80538E+03  1.66209E+03  5.33433E+03  6.49612E+03
 -1.40308E+03  7.93355E+03 -6.77505E+03  6.82634E+03 -9.25768E+03  2.06521E+03 -6.93297E+03 -2.35018E+03
 -4.69582E+03 -5.98630E+03  3.23649E+02 -4.19570E+03  7.98417E+02 -1.52213E+03  1.39219E+03 -1.18885E+03
  9.84447E+02 -1.65491E+03  1.84014E+03 -1.33436E+03  2.60561E+03 -1.20785E+03  2.90154E+03  4.59908E+02
  3.78888E+03  1.80640E+03  1.29742E+03  3.56644E+03 -1.47702E+03  2.06839E+03 -4.56307E+03  2.53783E+03
 -5.20849E+03 -6.41618E+02 -1.82878E+03 -2.68971E+03 -1.37136E+01 -5.18203E+03  2.96166E+03 -4.74666E+03
  5.32310E+03 -2.67432E+03  6.30600E+03 -1.34365E+01  5.32353E+03  2.79294E+03 -3.63011E+02  6.00850E+03
 -1.80021E+03  4.49349E+03 -3.13432E+03  2.52303E+03 -1.38076E+03 -1.08064E+03  7.76148E+02 -4.04844E+01
 -1.17010E+03  3.45053E+02 -1.17304E+03  2.28684E+03 -2.92609E+03  7.98055E+02 -3.84246E+03 -9.55610E+02
 -1.52849E+03 -3.76951E+03  6.92426E+02 -3.53991E+03  2.63245E+03 -4.18918E+03  2.78813E+03 -2.17445E+03
  4.64954E+03  1.78399E+03  1.41332E+03  2.57950E+03 -7.60198E+02  3.93627E+03 -2.83453E+03  3.18819E+03
 -3.00054E+03  3.87182E+02 -3.01665E+03 -1.78102E+03  4.00965E+02 -2.31053E+03  1.38418E+03 -2.85906E+03
  3.95913E+03 -1.23574E+03  1.31436E+03  1.11677E+03 -2.81703E+02  6.16975E+02  1.23774E+03  1.53992E+03
  1.53371E+03 -7.51295E+01  4.67951E+02  5.89609E+02  1.27744E+03  3.04788E+03  1.39045E+03  1.59663E+03
 -1.43042E+03  3.54233E+03 -1.96800E+03  3.62010E+03 -1.14817E+03  9.88173E+02 -3.67417E+03 -8.06774E+02
 -1.85752E+03 -3.45987E+03  7.11448E+00 -5.06870E+03  8.02714E+01 -1.96655E+03  1.71488E+03 -1.18919E+03
  1.69527E+03  2.18317E+03 -2.33410E+02  1.40446E+03 -1.88364E+01  2.03452E+03 -2.31992E+01 -1.40806E+02
 -2.21171E+03 -1.06217E+03  1.46540E+03 -2.45241E+03  2.07614E+03 -1.25106E+03  1.15159E+03 -5.46663E+02
  1.50790E+03  3.70896E+02  5.00854E+02 -1.03296E+03 -4.03959E+02  2.26002E+03  3.13746E+03 -7.87572E+01
  1.31726E+03  4.26826E+02  2.73972E+03  1.64527E+03 -8.69802E+02  2.33539E+03 -9.81265E+02  2.84045E+03
 -1.97327E+03  1.25852E+03 -1.62940E+03 -5.41157E+02 -2.39167E+03  4.85789E+01  4.20036E+02 -9.65855E+02
  9.51936E+02 -1.38152E+03  1.64475E+03 -9.50092E+02  1.20966E+03  2.41576E+02 -1.48262E+03  1.55970E+03
 -1.16882E+03  1.18228E+03 -2.08075E+03 -7.66059E+02 -8.74335E+02 -2.65290E+03  2.41051E+02 -2.02298E+03
  2.92860E+01 -1.14967E+03 -1.13702E+02 -7.08157E+02  1.43158E+03 -5.25375E+02  6.39697E+02  1.65355E+03
 -2.64857E+01 -9.48650E+02 -9.93978E+02  1.33119E+02 -8.01412E+01 -6.34070E+02  1.82274E+03 -5.62161E+02
  1.00594E+03 -1.04428E+03  3.51542E+03  9.24564E+02  6.85973E+02  1.80280E+03 -1.48741E+03  1.28940E+03
 -6.26152E+02 -2.31840E+01 -9.77010E+02 -4.68662E+02 -1.03043E+03 -1.30173E+03  2.53454E+02 -1.83046E+02
  1.80358E+03 -8.29516E+02  3.41759E+02  1.22118E+03  6.23959E+02  2.09026E+03  1.31213E+02  9.99048E+02
  6.04232E+02  1.28137E+03 -1.42353E+02 -2.89241E+02  7.08702E+02 -5.53999E+02  2.80446E+02 -3.99400E+02
 -2.93798E+02  5.60174E+02 -1.87682E+03  5.30950E+02 -1.78528E+03  9.34959E+02 -2.13617E+03 -9.56829E+02
 -1.14599E+03 -1.96002E+03  9.32684E+02 -2.47341E+03  9.50735E+02 -1.73929E+03  1.99763E+03 -4.79463E+02
  2.70506E+03 -1.00995E+03  1.48106E+03  1.31336E+03 -1.65605E+02  7.07689E+02 -5.42933E+02  3.42135E+02
 -3.16414E+02  1.41911E+03 -3.43940E+02  1.18293E+02 -7.14276E+02 -5.82524E+01 -2.56587E+02 -1.00773E+02
 -1.26407E+03  6.53826E+02 -1.13056E+03  1.69821E+01 -6.00125E+00 -3.15073E+02 -1.43974E+02 -1.35442E+03
  1.40849E+03  2.80341E+01  1.25256E+03  3.52331E+02  8.73029E+02  9.14616E+02 -2.04649E+02  1.96971E+03
 -1.20884E+03  2.32888E+03 -1.61188E+03  1.59206E+03 -1.00739E+03 -1.36464E+03 -6.36957E+02 -1.55429E+03
 -1.59905E+03  3.93849E+02  3.74514E+02 -1.59240E+03  2.35807E+02 -1.14756E+03  1.22482E+03  6.23793E+01
  7.06721E+02 -2.14131E+02  2.36214E+02 -4.79262E+02 -6.85813E+02  6.14792E+02  4.38642E+01  8.87296E+02
  2.74485E+02 -7.21903E+02  6.99637E+02  1.19280E+03  7.06972E+02  1.25830E+03  7.76705E+02  1.57379E+01
 -7.60752E+02  1.46167E+02 -8.10956E+02  9.05919E+01 -1.22590E+03 -9.81731E+02 -2.12999E+02 -1.12321E+03
  4.95629E+02 -6.25744E+02 -1.26381E+02 -3.66493E+01  8.31372E+02  2.54704E+02  6.30036E+02  3.34204E+02
  7.55658E+02  8.13431E+02  7.63174E+02  1.65289E+03 -4.09033E+02  9.14863E+02 -8.10572E+02  7.40242E+02
  8.23377E+02 -3.59540E+02 -6.94501E+02 -6.35001E+02  5.88374E+02  4.33460E+02 -3.06737E+02 -8.78345E+02
 -1.13361E+03  4.82644E+02 -1.06720E+03  3.03212E+02  1.06401E+03  9.14601E+01  3.75062E+02  6.48558E+01
  9.34129E+02  6.11125E+02 -7.33348E+02  9.33713E+01  1.23343E+03  1.09483E+03  1.14988E+02  9.87910E+02
