 $NMID ID='MM_0lb_SNR200_12hz_g60_80.RAW', FMTDAT='(8E13.5)'
 TRAMP=1., VOLUME=1. $END
  3.09262E+05 -4.66522E+01  3.37383E+05  2.51907E+05  8.42284E+04  3.40643E+05 -1.32907E+05  2.51921E+05
 -1.90995E+05  8.35174E+04 -1.11824E+05 -3.22620E+04 -3.91641E+02 -4.87588E+04  5.36095E+04 -3.61405E+02
  3.63138E+04  5.23668E+04 -1.68412E+04  7.62394E+04 -6.20619E+04  6.41188E+04 -8.53936E+04  3.24214E+04
 -8.18917E+04 -1.23317E+04 -5.86854E+04 -5.29251E+04 -1.47357E+04 -7.10554E+04  3.01871E+04 -4.64232E+04
  4.08746E+04  3.86812E+03  1.59114E+04  4.83644E+04 -3.46628E+04  4.84479E+04 -6.75220E+04  1.89706E+03
 -5.46291E+04 -5.85935E+04 -5.69417E+03 -7.85516E+04  3.50071E+04 -5.61364E+04  4.98550E+04 -1.78199E+04
  4.41454E+04  1.14187E+04  3.21295E+04  2.58270E+04  1.64173E+04  3.04532E+04 -5.42068E+03  2.68836E+04
 -2.40804E+04  1.23456E+04 -1.83801E+04 -6.35906E+03  6.24044E+03 -6.87002E+03  2.25227E+04  1.20366E+04
  5.93591E+03  3.60573E+04 -3.27038E+04  3.66259E+04 -6.33292E+04  3.27121E+03 -5.91434E+04 -4.40450E+04
 -1.13980E+04 -6.42035E+04  4.13714E+04 -4.56243E+04  5.97033E+04 -2.87498E+03  3.58979E+04  3.33731E+04
 -5.08742E+03  3.80282E+04 -3.27930E+04  1.86265E+04 -3.29193E+04 -4.72684E+03 -1.77516E+04 -1.16735E+04
 -9.90941E+03 -1.42955E+04 -2.64223E+02 -2.08204E+04  8.49410E+03 -2.42145E+04  1.65498E+04 -1.27667E+04
  1.12732E+04  5.01465E+03 -9.74611E+03  1.43631E+04 -2.25313E+04 -5.09188E+03 -9.54040E+03 -3.67526E+04
  2.42441E+04 -4.60989E+04  5.03906E+04 -2.08929E+04  4.72456E+04  1.99267E+04  1.68851E+04  4.66828E+04
 -1.73513E+04  3.60697E+04 -2.62069E+04  2.53348E+03 -1.09025E+04 -2.85146E+04  2.10779E+04 -3.61908E+04
  4.36373E+04 -1.08531E+04  3.86061E+04  2.30486E+04  2.05584E+04  5.05824E+04 -8.81478E+03  5.51964E+04
 -3.46088E+04  3.71450E+04 -4.50197E+04  1.10792E+04 -4.61263E+04 -1.83491E+04 -2.64179E+04 -4.07247E+04
  8.33651E+03 -4.10833E+04  3.27374E+04 -1.57386E+04  3.05472E+04  1.04777E+04  4.99206E+03  2.03524E+04
 -1.36627E+04  9.83691E+03 -1.13230E+04 -7.55179E+03  7.55432E+03 -9.82602E+03  1.87296E+04  5.23585E+03
  1.58485E+04  2.27894E+04 -6.22829E+03  2.67275E+04 -2.36067E+04  1.35420E+04 -3.14753E+04 -3.09313E+03
 -2.38249E+04 -1.74214E+04 -1.08099E+04 -2.34666E+04  4.48003E+03 -2.26461E+04  1.77313E+04 -2.29420E+04
  2.95441E+04 -1.21680E+04  3.65065E+04  4.61475E+03  2.67719E+04  2.29441E+04  4.31261E+03  3.96933E+04
 -1.89619E+04  3.28888E+04 -2.86876E+04  1.01705E+04 -2.17995E+04 -1.00713E+04 -3.67874E+03 -1.44994E+04
  5.60655E+02 -1.39303E+03 -7.42113E+03  6.83697E+03 -1.88751E+04  5.14495E+03 -1.93839E+04 -8.36964E+03
 -1.13574E+04 -2.17726E+04  4.72060E+03 -2.75027E+04  1.78552E+04 -1.96359E+04  2.28055E+04 -1.75249E+03
  1.36601E+04  1.56344E+04 -6.42912E+02  2.17966E+04 -1.59730E+04  1.29522E+04 -2.20234E+04 -5.17904E+03
 -1.55728E+04 -1.98304E+04 -2.38919E+03 -2.65044E+04  1.33185E+04 -2.15428E+04  2.16818E+04 -1.12506E+04
  2.01078E+04 -3.33541E+02  1.51086E+04  4.60059E+03  7.11295E+03  1.46900E+03  1.14703E+04 -2.11925E+03
  2.05848E+04  1.78097E+03  2.37216E+04  1.68893E+04  1.61572E+04  3.42235E+04 -3.16113E+03  3.96903E+04
 -2.33266E+04  3.41501E+04 -3.75811E+04  1.64262E+04 -4.08160E+04 -2.65052E+03 -3.21676E+04 -2.31252E+04
 -1.31207E+04 -3.32911E+04  1.21074E+04 -2.99456E+04  2.61969E+04 -1.50288E+04  2.18793E+04  8.10491E+03
  6.71671E+03  1.67690E+04 -9.82154E+03  1.45391E+04 -1.92470E+04  1.49517E+03 -1.49457E+04 -1.20598E+04
  5.10475E+02 -1.77234E+04  9.37420E+03 -1.41752E+04  1.31535E+04 -7.13475E+02  3.24647E+03  8.11199E+03
 -7.91979E+03  3.44082E+03 -8.13625E+03 -5.11026E+03 -1.37047E+03 -1.78336E+04  1.03498E+04 -1.76334E+04
  2.09826E+04 -9.37449E+03  2.23302E+04  3.57382E+03  1.91149E+04  1.60634E+04  1.02263E+04  2.59614E+04
 -5.50637E+03  2.82432E+04 -1.84259E+04  1.70680E+04 -2.11721E+04  4.18089E+03 -1.31080E+04 -6.12884E+03
 -4.32637E+03 -8.17740E+03 -1.80537E+03 -2.07757E+02 -3.05075E+03  2.63660E+03 -8.93936E+03  3.36377E+03
 -1.36623E+04 -1.76446E+03 -1.33611E+04 -1.23830E+04 -5.83481E+03 -1.78445E+04  6.01093E+03 -1.39227E+04
  1.14082E+04 -5.45375E+03  8.31771E+03  2.75137E+03 -6.68094E+02  6.63978E+03 -6.58012E+03 -7.34627E+02
 -5.65165E+03 -9.87361E+03 -9.11443E+02 -1.40491E+04  7.46728E+03 -1.40023E+04  1.70393E+04 -7.92209E+03
  1.93898E+04  1.79152E+03  1.59739E+04  1.19688E+04  2.66074E+03  1.53563E+04 -7.83523E+03  1.37256E+04
 -1.09510E+04  3.62859E+03 -5.84317E+03 -3.24413E+03  1.30202E+03 -4.82716E+03  7.73923E+03 -1.42243E+03
  6.23006E+03  7.05567E+03  8.25242E+02  1.09398E+04 -7.29658E+03  1.14703E+04 -1.32650E+04  2.75752E+03
 -8.63350E+03 -8.54731E+03 -5.57174E+02 -1.07854E+04  7.96443E+03 -5.96246E+03  7.47610E+03  2.81343E+03
  4.85006E+02  9.29620E+03 -6.15273E+03  9.22915E+03 -1.19637E+04  3.23339E+03 -9.91449E+03 -3.35299E+03
 -6.06644E+03 -1.31136E+04  2.72515E+03 -1.53645E+04  1.39672E+04 -8.13991E+03  1.29758E+04  1.96255E+03
  8.59747E+03  1.00323E+04 -1.40867E+03  1.33803E+04 -1.03641E+04  7.25803E+03 -1.01493E+04 -2.90714E+03
 -8.61605E+03 -1.02864E+04 -3.15009E+03 -9.25577E+03  3.95287E+03 -8.50801E+03  6.14966E+03 -3.00732E+03
  4.63586E+03  2.12691E+03 -1.71599E+02  1.96511E+03 -1.45144E+03 -1.96162E+03  2.02835E+03 -6.95480E+03
  1.01719E+04 -2.69885E+03  1.25788E+04  2.00872E+03  1.25425E+04  9.07686E+03  8.71020E+03  1.78799E+04
 -3.89016E+03  2.00912E+04 -1.73209E+04  1.45448E+04 -1.99571E+04  2.56679E+03 -1.75490E+04 -8.10013E+03
 -9.34341E+03 -1.35216E+04 -3.80635E+02 -1.27032E+04  3.73280E+03 -7.06524E+03  3.79553E+03 -3.76327E+03
  2.59845E+03 -3.40401E+03  2.24404E+03 -4.07496E+03  4.97485E+03 -3.93416E+03  7.45503E+03 -1.98016E+03
  7.39504E+03  2.42148E+03  3.55277E+03  7.75976E+03 -2.66350E+02  9.02609E+03 -9.42315E+03  6.95446E+03
 -1.21436E+04  1.33504E+02 -7.54501E+03 -8.02653E+03 -1.99571E+02 -1.33417E+04  7.25220E+03 -1.24187E+04
  1.35276E+04 -6.59788E+03  1.57372E+04  1.74633E+03  1.08385E+04  1.04952E+04  1.30426E+03  1.26613E+04
 -5.86819E+03  1.21364E+04 -8.18524E+03  4.45339E+03 -4.35209E+03 -2.16598E+03 -3.93038E+03 -1.61549E+03
 -7.40457E+02 -2.50624E+02 -2.27078E+03  1.84596E+03 -5.36232E+03  2.69793E+03 -8.57682E+03 -4.69416E+02
 -5.36059E+03 -8.30417E+03  1.49166E+03 -1.08074E+04  6.82789E+03 -9.41210E+03  1.07300E+04 -2.63573E+03
  1.05240E+04  6.31971E+03  4.23694E+03  9.05950E+03 -3.00004E+03  1.02443E+04 -6.95758E+03  8.37335E+03
 -1.12285E+04  1.54212E+03 -8.69891E+03 -6.77975E+03 -2.02208E+02 -9.02956E+03  5.36728E+03 -7.61077E+03
  6.29593E+03 -3.39769E+03  6.17664E+03  1.37314E+03  1.97735E+03  4.00297E+03  1.03593E+03  1.45433E+03
  1.36806E+03  1.05413E+03  2.98534E+03  2.30893E+03  2.97345E+03  3.53292E+03  2.95856E+03  6.14075E+03
 -2.28064E+03  7.42351E+03 -6.04302E+03  9.12818E+03 -1.19923E+04  2.94371E+03 -1.17020E+04 -4.82811E+03
 -4.89116E+03 -1.08659E+04  8.02214E+02 -1.22583E+04  7.09289E+03 -7.10619E+03  8.89503E+03 -2.22164E+03
  5.72461E+03  4.37128E+03  1.39707E+03  5.78017E+03 -2.99531E+03  4.71302E+03 -4.34068E+03 -3.52730E+02
 -1.65273E+03 -5.67923E+03  2.35762E+03 -4.98646E+03  5.05408E+03 -2.36337E+03  4.05638E+03  8.78375E+02
  1.52411E+03  2.65454E+03  5.17545E+00  1.19972E+03 -8.24895E+02  1.03359E+02  1.22093E+03 -1.74616E+03
  2.36673E+03 -8.83691E+02  3.82437E+03  9.13833E+02  4.01848E+03  7.83977E+03 -3.49174E+02  8.57340E+03
 -5.07636E+03  4.39256E+03 -7.08271E+03  9.90543E+02 -7.02487E+03 -3.38170E+03 -1.69462E+03 -4.35673E+03
  2.75862E+02 -3.88887E+03  3.12967E+03 -2.85767E+03  1.17036E+03  1.24035E+03 -1.56835E+03  3.94056E+03
 -3.86115E+03  2.22647E+03 -3.74944E+03 -2.17848E+03 -2.93345E+03 -5.74469E+03  5.24972E+02 -4.69120E+03
  3.69738E+03 -4.42027E+03  4.06856E+03 -7.43787E+02  4.30073E+03  4.43664E+01  1.37372E+03  3.12874E+03
 -2.66319E+03 -9.38213E+02 -1.53443E+03 -2.09814E+03  1.73386E+03 -3.99953E+03  6.47761E+03 -4.04366E+03
  7.83519E+03  3.52468E+02  7.53781E+03  5.97926E+03  2.58616E+03  5.74330E+03 -2.48598E+03  6.75456E+03
 -4.07357E+03  2.39867E+03 -5.20581E+03 -1.99861E+03 -3.51120E+03 -5.26434E+03  2.53706E+03 -4.25141E+03
  3.46401E+03 -3.33732E+03  5.20103E+03  1.55648E+03  1.10974E+03  3.23390E+03 -1.08876E+02  3.93630E+03
 -3.09093E+03  3.21399E+03 -1.85174E+02 -1.05154E+02 -1.53669E+03  1.44109E+03 -1.54097E+03  2.12745E+03
 -2.19202E+03  3.30223E+03 -3.03043E+03  1.32548E+03 -5.71728E+03  3.68639E+02 -7.45169E+03 -4.37618E+03
 -3.80321E+03 -7.91276E+03  3.81283E+02 -1.02097E+04  5.02828E+03 -6.47707E+03  8.50148E+03 -3.75213E+03
  8.75674E+03  6.56417E+02  6.58306E+03  6.80177E+03  5.84413E+02  7.62718E+03 -3.09105E+03  4.55567E+03
 -3.49177E+03  1.58268E+03 -1.10709E+03  5.06716E+02  6.34741E+02 -5.20197E+02  6.24445E+02  1.92799E+02
 -1.60538E+02  2.49924E+02 -2.06840E+03 -1.06393E+03 -2.34783E+03 -3.45378E+02 -7.18284E+02 -1.76488E+03
  3.63312E+03 -2.99029E+03  1.87628E+03 -3.79106E+02  4.77740E+03  3.31400E+03  1.59345E+03  5.99222E+03
 -2.05890E+03  8.18342E+03 -7.38781E+03  4.83841E+03 -6.59786E+03 -4.95379E+02 -6.25726E+03 -4.80207E+03
 -2.20305E+03 -5.55052E+03  2.35140E+03 -6.57590E+03  3.09365E+03 -2.51231E+03  5.08428E+03  2.13131E+02
  1.87204E+03  1.08270E+03  5.25718E+02  2.26093E+03 -1.96656E+03  4.17695E+02  6.53249E+02 -9.87922E+02
  2.36707E+03 -4.30386E+02  2.87673E+03  1.03711E+02  1.69538E+03  2.03084E+03  1.48904E+03  2.71202E+03
 -2.53261E+03  2.94441E+03 -2.55598E+03  6.07205E+02 -4.21299E+03 -2.90703E+03 -1.47590E+03 -3.95797E+03
  2.29912E+03 -2.71823E+03  5.20210E+03 -6.16304E+02  5.04480E+03  6.83989E+01  1.90987E+03  3.17922E+03
  1.20391E+03  4.12700E+03 -8.46780E+02  2.03282E+03 -1.50267E+03  1.03086E+03 -1.32208E+03 -2.45090E+02
 -3.94795E+02  7.38677E+02 -3.16183E+03  9.66490E+02 -2.42490E+03  6.36520E+02 -2.71079E+03 -8.02812E+02
 -2.85806E+03 -1.96279E+03 -1.23979E+03 -3.54065E+03  2.82889E+03 -3.70845E+03  2.45259E+03 -1.50789E+03
  4.61994E+03 -9.57035E+02  2.68577E+03  2.60646E+03 -7.24108E+02  4.76627E+03 -2.94062E+03  2.95181E+03
