 $NMID ID='MM_0lb_SNR200_7hz_g40_48.RAW', FMTDAT='(8E13.5)'
 TRAMP=1., VOLUME=1. $END
  3.08749E+05 -3.32512E+02  3.38436E+05  2.49759E+05  8.41807E+04  3.38962E+05 -1.32811E+05  2.53026E+05
 -1.91980E+05  8.52584E+04 -1.14621E+05 -3.27394E+04 -1.19302E+03 -5.12560E+04  5.36214E+04 -9.24763E+02
  3.55524E+04  5.21784E+04 -1.53584E+04  7.65173E+04 -6.03865E+04  6.56539E+04 -8.58583E+04  3.18919E+04
 -8.15679E+04 -1.10407E+04 -6.09104E+04 -5.25057E+04 -1.61526E+04 -7.15786E+04  2.86008E+04 -4.70723E+04
  4.23270E+04  1.85455E+03  1.78476E+04  4.90252E+04 -3.49105E+04  5.06024E+04 -6.60489E+04  1.14108E+03
 -5.48669E+04 -5.77780E+04 -7.49509E+03 -7.85154E+04  3.55599E+04 -5.71839E+04  5.04666E+04 -2.03510E+04
  4.56844E+04  1.24053E+04  3.25293E+04  2.60236E+04  1.74106E+04  2.95700E+04 -6.77416E+03  2.93373E+04
 -2.32204E+04  8.98380E+03 -1.66506E+04 -6.10428E+03  6.36030E+03 -6.46688E+03  2.56173E+04  1.32765E+04
  6.05273E+03  3.89149E+04 -3.39354E+04  3.93703E+04 -6.58618E+04  3.03866E+03 -6.02296E+04 -4.53248E+04
 -1.18770E+04 -6.61178E+04  4.23072E+04 -4.65783E+04  6.04426E+04 -2.78730E+03  3.81946E+04  3.40100E+04
 -5.15818E+03  4.00060E+04 -3.18314E+04  1.85074E+04 -3.40913E+04 -2.06616E+03 -1.98142E+04 -1.21952E+04
 -9.17264E+03 -1.66200E+04 -2.53298E+02 -2.08824E+04  9.70458E+03 -2.22178E+04  1.59348E+04 -1.16895E+04
  1.22809E+04  4.81740E+03 -9.92403E+03  1.15079E+04 -2.46609E+04 -7.01595E+03 -7.59316E+03 -3.57218E+04
  2.48287E+04 -4.81777E+04  5.44181E+04 -2.05036E+04  5.00622E+04  2.08383E+04  1.53674E+04  4.66882E+04
 -1.64544E+04  3.81261E+04 -2.86235E+04  2.08112E+03 -1.09417E+04 -3.09290E+04  2.32621E+04 -3.80379E+04
  4.50934E+04 -1.21430E+04  4.09228E+04  2.36674E+04  2.22701E+04  5.00178E+04 -9.70565E+03  5.89662E+04
 -3.74629E+04  4.04066E+04 -4.84616E+04  1.18556E+04 -4.83883E+04 -1.75128E+04 -2.64043E+04 -4.18135E+04
  7.54049E+03 -4.27301E+04  3.52953E+04 -1.86255E+04  3.22873E+04  1.25402E+04  6.04010E+03  2.09152E+04
 -1.33896E+04  1.00962E+04 -1.35211E+04 -6.64928E+03  5.20811E+03 -1.19258E+04  2.02310E+04  6.00989E+03
  1.43993E+04  2.06207E+04 -5.69562E+03  2.78816E+04 -2.30490E+04  1.66532E+04 -3.20441E+04 -2.90024E+03
 -2.68637E+04 -1.89471E+04 -1.31446E+04 -2.50426E+04  5.46648E+03 -2.67234E+04  2.31304E+04 -2.41463E+04
  3.53127E+04 -1.26602E+04  3.90965E+04  5.88887E+03  2.75444E+04  2.54233E+04  4.83271E+03  4.35453E+04
 -2.07707E+04  3.61789E+04 -3.19290E+04  1.25203E+04 -2.18799E+04 -1.08382E+04 -4.42107E+03 -1.22055E+04
  1.13400E+03 -1.60886E+03 -7.92873E+03  9.09973E+03 -2.10975E+04  3.44594E+03 -1.95960E+04 -9.23837E+03
 -1.37256E+04 -2.45476E+04  6.38361E+03 -2.85119E+04  1.93388E+04 -2.02858E+04  2.24535E+04 -7.94131E+02
  1.53724E+04  1.67112E+04  7.23710E+02  2.32003E+04 -1.62192E+04  1.39089E+04 -2.47784E+04 -5.23896E+03
 -1.85640E+04 -2.09261E+04 -2.86428E+03 -2.90005E+04  1.12809E+04 -2.47387E+04  2.14781E+04 -1.53655E+04
  2.30093E+04  2.06182E+03  1.73440E+04  5.56149E+03  9.75602E+03  7.74685E+02  1.35164E+04 -2.27548E+03
  2.45760E+04  2.20240E+03  2.61626E+04  2.03959E+04  1.92592E+04  3.87414E+04 -2.47109E+03  4.72671E+04
 -2.70103E+04  3.89720E+04 -4.61111E+04  2.31885E+04 -4.89078E+04 -2.65156E+03 -3.77424E+04 -2.79452E+04
 -1.57118E+04 -3.99305E+04  1.39889E+04 -3.51137E+04  3.01095E+04 -1.63218E+04  2.61600E+04  8.90320E+03
  9.05876E+03  1.89326E+04 -9.91309E+03  1.76563E+04 -2.03972E+04  2.81198E+03 -1.40243E+04 -1.39542E+04
  5.64609E+02 -2.05107E+04  1.15928E+04 -1.35427E+04  1.40853E+04 -1.53408E+03  2.80589E+03  7.43679E+03
 -9.06706E+03  4.48436E+03 -9.99960E+03 -7.70911E+03 -2.65699E+03 -1.86751E+04  1.24000E+04 -2.13340E+04
  2.46247E+04 -1.21087E+04  2.82131E+04  4.19978E+03  2.58023E+04  2.00834E+04  1.23131E+04  3.17782E+04
 -5.77571E+03  3.46418E+04 -2.23510E+04  2.21243E+04 -2.42469E+04  5.53920E+03 -1.61359E+04 -8.59494E+03
 -7.30350E+03 -6.69583E+03  5.13786E+01  1.25969E+03 -3.39750E+03  3.54801E+03 -8.20742E+03  6.91162E+03
 -1.39785E+04  8.78783E+01 -1.75636E+04 -1.00012E+04 -6.72833E+03 -1.83104E+04  6.88135E+03 -1.62781E+04
  1.39956E+04 -5.21351E+03  9.16276E+03  2.92677E+03  2.57797E+02  7.26451E+03 -6.90379E+03 -1.23566E+03
 -8.09701E+03 -1.04976E+04 -1.62362E+03 -1.71499E+04  9.45841E+03 -1.82821E+04  2.35834E+04 -8.93828E+03
  2.54389E+04  2.16331E+03  1.91890E+04  1.50822E+04  3.70259E+03  2.07039E+04 -1.04058E+04  1.60350E+04
 -1.38397E+04  4.57405E+03 -8.20945E+03 -4.57834E+03  2.77437E+03 -4.59278E+03  7.94885E+03 -8.10677E+02
  9.08120E+03  7.48173E+03  1.98842E+03  1.47249E+04 -9.19383E+03  1.23590E+04 -1.70261E+04  2.76086E+03
 -1.26596E+04 -9.94211E+03 -6.79906E+00 -1.50095E+04  9.01115E+03 -8.17239E+03  1.00704E+04  2.63862E+03
  2.90923E+03  1.25612E+04 -8.63081E+03  1.28649E+04 -1.53956E+04  5.63483E+03 -1.66240E+04 -4.91857E+03
 -9.01883E+03 -1.89370E+04  4.73713E+03 -2.08743E+04  1.80983E+04 -1.37891E+04  1.98659E+04  2.56317E+03
  1.02760E+04  1.48558E+04 -2.33397E+03  1.65179E+04 -1.47826E+04  1.11257E+04 -1.29049E+04 -6.98226E+02
 -1.31323E+04 -1.19956E+04 -8.50917E+02 -1.09097E+04  7.21914E+03 -8.42527E+03  7.03131E+03 -2.58547E+03
  4.06562E+03  4.70542E+03 -5.77420E+02  3.24962E+03 -1.02284E+03 -4.55385E+03  4.21159E+03 -9.92546E+03
  1.43506E+04 -6.07787E+03  1.75544E+04  2.66122E+03  1.81608E+04  1.35003E+04  1.27994E+04  2.40614E+04
 -5.40946E+03  2.92641E+04 -2.31486E+04  2.10298E+04 -3.03491E+04  3.52082E+03 -2.42202E+04 -1.10773E+04
 -1.06288E+04 -1.86532E+04  4.31643E+02 -1.47644E+04  7.25491E+03 -8.96430E+03  6.97136E+03 -8.10421E+03
  6.18456E+03 -3.39660E+03  3.98814E+03 -3.94335E+03  5.95096E+03 -4.80191E+03  8.26156E+03 -2.95578E+03
  1.12722E+04  2.80046E+03  5.54111E+03  1.16814E+04 -2.83542E+03  1.55641E+04 -1.38804E+04  9.69210E+03
 -1.76180E+04 -2.29606E+03 -1.25303E+04 -1.23698E+04 -1.55556E+03 -1.84549E+04  1.03507E+04 -1.88440E+04
  1.97068E+04 -1.04613E+04  2.34525E+04  5.01177E+03  1.44640E+04  1.64487E+04  2.68712E+03  1.97302E+04
 -9.44789E+03  1.60424E+04 -1.21236E+04  6.46671E+03 -9.39047E+03 -2.17159E+03 -3.01234E+03 -2.08801E+03
 -1.51051E+03 -3.23155E+02 -6.81025E+02  3.16038E+03 -6.91462E+03  4.23839E+03 -1.26190E+04 -2.43803E+03
 -8.22389E+03 -1.13874E+04  8.29512E+01 -1.49875E+04  1.24658E+04 -1.54035E+04  1.76643E+04 -4.77733E+03
  1.87288E+04  7.78347E+03  7.12918E+03  1.55692E+04 -3.26015E+03  1.73523E+04 -1.40277E+04  1.17249E+04
 -1.82123E+04  5.48983E+02 -1.21018E+04 -1.02537E+04 -1.48668E+03 -1.57860E+04  7.77291E+03 -1.08515E+04
  1.10044E+04 -3.91554E+03  7.42241E+03  2.35875E+03  4.14867E+03  4.55058E+03  5.95853E+02  1.24062E+03
  5.22092E+03  1.78029E+03  2.80752E+03  1.51438E+03  4.72151E+03  5.29068E+03  4.48817E+03  1.06045E+04
 -3.70404E+03  1.42418E+04 -1.36634E+04  1.33264E+04 -1.95507E+04  4.99489E+03 -1.69169E+04 -7.36586E+03
 -9.93089E+03 -1.73495E+04  2.08623E+03 -2.13536E+04  1.24884E+04 -1.37839E+04  1.53555E+04 -3.55049E+03
  1.05217E+04  6.60108E+03  2.74631E+03  1.19295E+04 -6.22977E+03  7.68488E+03 -7.03550E+03 -1.61398E+03
 -2.69405E+03 -7.41215E+03  2.57839E+03 -8.71443E+03  7.34258E+03 -4.36078E+03  6.73464E+03  5.56260E+02
  3.13373E+03  4.57819E+03  4.58414E+02  3.35516E+03 -1.03890E+03  1.86483E+03  2.94430E+03 -9.47606E+01
  2.76914E+03  9.39636E+02  8.19853E+03  1.08469E+03  4.16729E+03  9.46054E+03 -2.20446E+03  1.34166E+04
 -1.05760E+04  8.73051E+03 -1.31190E+04  6.05685E+02 -1.02282E+04 -3.15141E+03 -4.54265E+03 -8.84812E+03
  1.41392E+02 -7.01317E+03  4.58471E+03 -3.47425E+03  4.86307E+03  3.66736E+03 -2.66796E+03  5.61880E+03
 -7.18522E+03  5.23173E+03 -9.38044E+03 -5.38846E+03 -4.44045E+03 -1.04880E+04  2.27078E+03 -1.05199E+04
  8.36727E+03 -6.89886E+03  7.70168E+03 -8.93848E+02  6.27352E+03  3.22578E+03  8.81411E+02  6.41928E+03
 -2.92355E+03  1.80846E+03 -3.66679E+03 -3.22644E+03  2.41922E+03 -9.47077E+03  1.07863E+04 -5.75656E+03
  1.24122E+04  6.77359E+02  1.19521E+04  6.99763E+03  2.47789E+03  1.21206E+04 -5.21662E+03  1.20049E+04
 -9.96940E+03  6.64138E+03 -1.04860E+04 -2.57721E+03 -6.34296E+03 -8.68026E+03  2.36675E+03 -7.98432E+03
  7.87177E+03 -4.09160E+03  7.13350E+03  5.03151E+03  1.86509E+03  8.36502E+03 -9.30039E+01  6.43095E+03
 -4.20096E+03  4.51404E+03 -3.19714E+03  8.40829E+02 -1.39121E+03  8.85531E+02 -2.28355E+03  4.21827E+02
 -5.19128E+03  3.17761E+03 -9.78226E+03  3.89926E+03 -1.33781E+04 -1.20503E+02 -1.39195E+04 -7.81089E+03
 -6.78685E+03 -1.67328E+04  2.99678E+03 -2.16157E+04  1.27305E+04 -1.51156E+04  1.81491E+04 -7.52523E+03
  1.74482E+04  2.37183E+03  1.33034E+04  1.20361E+04 -1.19716E+03  1.38353E+04 -5.65051E+03  1.03363E+04
 -6.85223E+03  3.18279E+03 -4.89687E+03 -1.16525E+03 -3.25240E+02 -2.29716E+03  7.60165E+02 -1.32720E+03
 -7.69568E+00  9.74867E+01 -1.99928E+03 -1.76019E+03 -8.87870E+02 -3.06975E+03  8.75116E+02 -4.69109E+03
  5.81074E+03 -4.75601E+03  8.61989E+03  2.20505E+03  9.93380E+03  6.67175E+03  4.22731E+03  1.45522E+04
 -6.48251E+03  1.56947E+04 -1.49471E+04  9.49250E+03 -1.73778E+04  1.73934E+02 -1.23806E+04 -7.78805E+03
 -5.79462E+03 -1.38213E+04  4.77586E+03 -1.40651E+04  1.02468E+04 -8.24069E+03  8.74932E+03  1.43370E+02
  5.18694E+03  5.80046E+03  9.90406E+02  3.24035E+03 -1.63965E+03 -5.56730E+02  3.36857E+02 -2.39894E+03
  2.79140E+03 -2.19752E+03  5.34471E+03  1.87148E+03  2.66596E+03  6.30311E+03  7.47353E+02  6.23972E+03
 -6.33874E+03  6.73209E+03 -1.12558E+04 -3.43870E+02 -7.72601E+03 -6.96934E+03 -1.94433E+03 -1.15053E+04
  8.07655E+03 -9.34844E+03  1.19803E+04 -2.12152E+03  1.13119E+04  8.03857E+02  7.65545E+03  9.15443E+03
  1.48188E+03  9.86340E+03 -4.78202E+03  8.28330E+03 -6.97374E+03  2.97368E+03 -2.35781E+03  1.11511E+03
 -2.65722E+03  1.04083E+03 -3.52717E+03  4.47467E+02 -5.98594E+03  1.62677E+03 -8.11317E+03 -2.75873E+03
 -7.75537E+03 -5.44682E+03 -1.29986E+03 -8.77217E+03  4.21680E+03 -1.07613E+04  7.49677E+03 -4.14726E+03
  9.15084E+03  2.70854E+02  6.84528E+03  7.40784E+03 -6.43125E+01  1.07193E+04 -7.78582E+03  5.39386E+03
