 $NMID ID='MM_0lb_SNR200_15hz_g60_82.RAW', FMTDAT='(8E13.5)'
 TRAMP=1., VOLUME=1. $END
  3.08976E+05  1.02013E+03  3.37360E+05  2.49678E+05  8.47954E+04  3.37861E+05 -1.31765E+05  2.51699E+05
 -1.90535E+05  8.17305E+04 -1.13660E+05 -3.16156E+04 -4.12327E+02 -5.05637E+04  5.35752E+04 -9.12273E+02
  3.53462E+04  5.34425E+04 -1.72226E+04  7.56184E+04 -6.25641E+04  6.33327E+04 -8.58615E+04  3.31765E+04
 -8.14036E+04 -1.11285E+04 -5.70762E+04 -5.07806E+04 -1.64495E+04 -6.98354E+04  2.83908E+04 -4.58072E+04
  4.03903E+04  4.12837E+03  1.76318E+04  4.76420E+04 -3.59641E+04  4.71063E+04 -6.78683E+04 -1.32879E+02
 -5.31950E+04 -5.78543E+04 -8.18205E+03 -7.69347E+04  3.40874E+04 -5.48467E+04  4.85406E+04 -1.71842E+04
  4.49470E+04  1.27176E+04  3.17856E+04  2.56687E+04  1.53314E+04  2.96068E+04 -5.32156E+03  2.88813E+04
 -2.21981E+04  1.22132E+04 -1.88222E+04 -5.79268E+03  5.87095E+03 -8.19426E+03  2.23710E+04  1.14770E+04
  8.56357E+03  3.41040E+04 -3.20555E+04  3.60812E+04 -6.39871E+04  2.76540E+03 -5.63252E+04 -4.24308E+04
 -1.25770E+04 -6.36291E+04  4.00209E+04 -4.54238E+04  5.78675E+04 -1.55334E+03  3.38191E+04  3.34591E+04
 -6.17538E+03  3.72698E+04 -3.11819E+04  1.69870E+04 -3.10767E+04 -4.69115E+03 -1.66766E+04 -1.24902E+04
 -9.40929E+03 -1.36181E+04 -5.26442E+02 -1.89731E+04  7.41983E+03 -2.39323E+04  1.56744E+04 -1.26702E+04
  1.11103E+04  4.19538E+03 -8.82034E+03  1.36414E+04 -2.12340E+04 -5.79469E+03 -7.58916E+03 -3.38720E+04
  2.27091E+04 -4.36368E+04  4.93994E+04 -1.95143E+04  4.58084E+04  2.05250E+04  1.63249E+04  4.57802E+04
 -1.55644E+04  3.35795E+04 -2.54911E+04  5.62721E+02 -1.06315E+04 -2.86439E+04  2.02016E+04 -3.37453E+04
  4.11891E+04 -9.76319E+03  3.57447E+04  2.43695E+04  1.81977E+04  4.66455E+04 -8.73098E+03  5.12601E+04
 -3.34424E+04  3.45899E+04 -4.18103E+04  7.85940E+03 -4.41334E+04 -1.74643E+04 -2.42878E+04 -3.95377E+04
  7.07164E+03 -3.81303E+04  3.25301E+04 -1.48050E+04  2.91036E+04  1.05623E+04  3.48390E+03  2.00624E+04
 -1.43412E+04  8.85548E+03 -1.12387E+04 -6.92906E+03  6.66907E+03 -1.03382E+04  1.88725E+04  6.78531E+03
  1.39937E+04  2.38269E+04 -5.76524E+03  2.47641E+04 -2.34541E+04  1.05856E+04 -2.83701E+04 -3.82586E+03
 -2.03394E+04 -1.72390E+04 -9.57356E+03 -2.14264E+04  4.76114E+03 -2.08076E+04  1.76884E+04 -1.91894E+04
  2.67199E+04 -1.29704E+04  3.29461E+04  3.74983E+03  2.37313E+04  2.05573E+04  3.93717E+03  3.55341E+04
 -1.74720E+04  3.01528E+04 -2.75254E+04  9.71209E+03 -2.05179E+04 -1.15994E+04 -3.33108E+03 -1.37539E+04
  1.24229E+02 -2.72263E+03 -4.96613E+03  6.01786E+03 -1.70391E+04  5.96297E+03 -1.67043E+04 -7.96633E+03
 -1.00765E+04 -1.85954E+04  5.59210E+03 -2.51783E+04  1.57499E+04 -1.69540E+04  1.84539E+04 -8.66352E+02
  1.31632E+04  1.28691E+04 -3.88575E+02  1.96099E+04 -1.25336E+04  1.01817E+04 -2.02025E+04 -3.90962E+03
 -1.40765E+04 -1.78088E+04 -1.57280E+03 -2.26643E+04  9.07828E+03 -1.89428E+04  1.95193E+04 -1.06528E+04
  1.83945E+04  4.68774E+02  1.30503E+04  4.01158E+03  5.84582E+03  7.17091E+02  9.17649E+03 -1.02959E+03
  1.67893E+04  2.35968E+03  2.14064E+04  1.46833E+04  1.19565E+04  3.03509E+04 -2.65892E+03  3.53705E+04
 -2.14740E+04  2.84667E+04 -3.28186E+04  1.43027E+04 -3.44656E+04 -3.36975E+03 -2.71320E+04 -1.95883E+04
 -1.18781E+04 -2.94911E+04  9.05783E+03 -2.59680E+04  2.12589E+04 -1.25309E+04  1.95256E+04  6.19316E+03
  6.69957E+03  1.50324E+04 -8.60581E+03  1.26124E+04 -1.56090E+04  2.23592E+03 -1.26520E+04 -9.70798E+03
  7.14434E+02 -1.58572E+04  7.49443E+03 -1.15205E+04  1.06064E+04 -1.00395E+03  3.31301E+03  6.81610E+03
 -7.00478E+03  3.90209E+03 -5.31603E+03 -5.78368E+03 -1.44590E+03 -1.41942E+04  9.45118E+03 -1.44993E+04
  1.69380E+04 -6.89144E+03  1.88469E+04  3.37511E+03  1.67688E+04  1.25882E+04  6.81943E+03  2.05120E+04
 -3.56403E+03  2.29177E+04 -1.40559E+04  1.42423E+04 -1.44811E+04  3.10539E+03 -1.13469E+04 -4.11896E+03
 -5.91517E+03 -4.56852E+03 -1.21756E+03  2.16185E+03 -3.89267E+03  2.45145E+03 -5.72423E+03  4.70898E+03
 -1.10171E+04 -2.04341E+01 -1.06288E+04 -9.92452E+03 -3.40390E+03 -1.58341E+04  5.29311E+03 -1.08998E+04
  1.01390E+04 -5.54363E+03  8.25736E+03  3.19173E+03  9.91866E+02  4.03953E+03 -6.12543E+03 -6.98329E+01
 -3.54968E+03 -7.49240E+03 -1.05643E+03 -1.03405E+04  5.76328E+03 -1.22657E+04  1.41151E+04 -5.60632E+03
  1.63711E+04  1.41363E+03  1.26263E+04  8.60786E+03  2.09839E+03  1.22666E+04 -8.36528E+03  1.15899E+04
 -8.39136E+03  2.05513E+03 -4.16029E+03 -2.56371E+03  2.84814E+03 -1.46452E+03  5.27890E+03 -1.68560E+03
  6.19554E+03  6.34171E+03  2.36753E+03  6.71674E+03 -6.19623E+03  9.20401E+03 -1.12093E+04  3.05250E+03
 -7.76608E+03 -6.10912E+03  1.99940E+03 -8.55092E+03  6.36845E+03 -5.00101E+03  7.07656E+03  2.36639E+03
  2.01778E+03  5.64211E+03 -5.09611E+03  7.39549E+03 -8.22672E+03  4.22691E+03 -8.43805E+03 -2.89747E+03
 -5.57449E+03 -9.94228E+03  1.14652E+03 -1.09089E+04  1.01863E+04 -6.36986E+03  1.08371E+04  2.31414E+03
  6.27724E+03  9.22069E+03 -1.51332E+03  1.04519E+04 -6.57212E+03  5.51609E+03 -8.44222E+03 -6.21568E+02
 -8.24515E+03 -7.25881E+03 -1.12354E+03 -7.55965E+03  2.79792E+03 -6.60707E+03  3.83972E+03 -2.23376E+03
  3.01712E+03  7.80910E+01 -8.66561E+02  3.46885E+03  7.51470E+02  1.09894E+02  2.54024E+03 -3.70756E+03
  7.37317E+03 -1.93611E+03  8.82404E+03  7.60895E+02  9.96929E+03  5.01617E+03  7.11780E+03  1.26796E+04
 -2.66928E+03  1.33791E+04 -1.19530E+04  1.17041E+04 -1.57044E+04  1.59471E+03 -1.38576E+04 -4.73612E+03
 -6.89694E+03 -1.06707E+04 -3.41586E+02 -8.76813E+03  3.99004E+03 -5.21822E+03  3.00022E+03 -3.13528E+03
  2.29293E+03 -1.46687E+03  1.58425E+03 -2.03828E+03  4.09685E+03 -2.99933E+03  5.49247E+03  1.10257E+03
  6.54347E+03  2.12830E+03  1.78272E+03  4.42504E+03 -2.24573E+03  5.37655E+03 -5.78048E+03  4.80093E+03
 -8.86012E+03 -1.39598E+03 -4.85286E+03 -5.01456E+03  3.55523E+02 -8.53885E+03  3.99829E+03 -8.89329E+03
  9.24404E+03 -5.09410E+03  1.17217E+04  1.54672E+03  6.23002E+03  5.19453E+03  1.91660E+03  1.08159E+04
 -3.63734E+03  8.80273E+03 -4.95489E+03  2.66110E+03 -4.12906E+03 -2.19034E+03 -1.12839E+03 -4.44277E+02
 -9.16581E+02  8.43084E+02 -9.55944E+02  3.85498E+03 -3.78019E+03  1.89780E+03 -5.29443E+03 -4.91451E+00
 -2.61322E+03 -4.18495E+03 -1.03805E+02 -6.74389E+03  4.86860E+03 -6.77749E+03  7.78907E+03 -2.39774E+03
  9.20366E+03  3.79449E+03  3.87593E+03  5.77692E+03 -1.00042E+03  6.76687E+03 -4.64106E+03  3.95639E+03
 -8.56494E+03  6.16512E+02 -6.05464E+03 -4.30923E+03 -1.49208E+02 -5.06278E+03  3.39679E+03 -3.37271E+03
  4.30721E+03 -2.26979E+03  2.56769E+03  9.28647E+02  6.73678E+02  2.00305E+03  1.06112E+03  1.20343E+02
  2.43990E+03  1.39291E+03  2.07568E+03  9.97531E+02  1.93624E+03  3.76849E+03  2.18202E+03  2.97796E+03
 -7.76494E+02  4.73201E+03 -5.52960E+03  5.88616E+03 -4.92734E+03  1.44639E+03 -7.20054E+03 -1.57713E+03
 -2.61940E+03 -7.82285E+03  8.31265E+02 -7.06724E+03  4.70306E+03 -5.34057E+03  5.12050E+03 -7.25102E+02
  4.87712E+03  1.38273E+03  1.38734E+03  4.29256E+03 -1.75877E+03  3.04941E+03 -2.85695E+03 -4.62168E+02
 -1.31912E+03 -2.74549E+03  1.44581E+03 -1.75838E+03  2.41087E+03 -2.03093E+03  2.94220E+03  1.18840E+03
  4.33188E+02  1.45381E+03  9.03637E+02 -7.76242E+01 -9.95585E+02  2.12975E+03  2.18486E+03  5.99181E+01
  1.66154E+02  1.51599E+02  3.50624E+03  1.81424E+03  8.73371E+02  4.05672E+03 -1.18047E+03  5.25086E+03
 -2.00243E+03  1.67968E+03 -3.71516E+03 -1.80798E+02 -4.14596E+03 -3.36368E+03 -1.49066E+02 -1.36135E+03
  1.36005E+03 -2.77652E+03  1.87374E+03 -4.00763E+02  1.57512E+03  1.53270E+03 -1.98388E+03  2.82782E+03
 -2.62517E+03  9.98310E+02 -2.71972E+03 -1.89724E+03 -2.64875E+03 -3.88915E+03 -1.05085E+02 -3.70242E+03
  1.11324E+02  4.32607E+02  3.18969E+03 -6.66291E+02  2.36725E+03  1.71926E+02  2.13481E+02  1.38805E+03
 -4.65092E+02  4.06523E+02 -1.72614E+03 -5.75873E+02  1.07619E+03 -2.24133E+03  3.06196E+03 -2.53659E+03
  4.38327E+03  5.92480E+02  3.01026E+03  1.47871E+03  2.59843E+03  4.82943E+03 -2.76391E+03  2.39590E+03
 -2.84459E+03  8.96138E+02 -2.84040E+03 -6.91039E+00 -7.27652E+02 -2.77302E+03  1.29484E+03 -2.19672E+03
  2.88159E+03 -1.76335E+03  1.43675E+03  1.29364E+03  4.16921E+02  1.40651E+03  1.23207E+02  2.07043E+03
 -1.56994E+03  1.69442E+03 -4.17272E+02  7.59948E+02  1.05859E+02  6.67598E+02  7.84859E+01  1.43162E+02
 -4.13836E+02  2.09183E+03 -3.88850E+03  3.36732E+02 -4.33007E+03  4.01512E+02 -4.34708E+03 -1.56593E+03
 -2.64515E+03 -5.36610E+03  1.63061E+03 -6.72871E+03  3.18570E+03 -4.08991E+03  7.15822E+03 -2.92121E+03
  4.73240E+03  4.17145E+02  1.93075E+03  2.40748E+03  6.47713E+02  1.76051E+03 -1.53698E+03  2.75756E+03
 -1.98804E+03  2.03298E+03 -4.02068E+02 -5.10471E+02  5.15341E+02  2.70370E+01 -3.98588E+02  4.64001E+02
 -1.56134E+03 -3.58222E+02 -4.17703E+02  1.61156E+02  5.67118E+00 -2.12422E+03 -3.87564E+02 -2.53428E+03
  2.14126E+03 -1.46587E+03  9.27504E+02 -3.20333E+02  1.85142E+03  1.65814E+03 -3.82548E+02  1.55566E+03
 -1.58129E+03  5.02213E+03 -4.66349E+03  2.77941E+03 -3.35302E+03  1.00135E+03 -3.40595E+03 -3.32063E+03
 -5.68660E+02 -2.80192E+03  1.04587E+03 -3.65835E+03  2.01025E+03 -6.81374E+02  2.26996E+03  8.90786E+02
  5.49641E+02  2.67455E+02  1.89476E+02  1.22854E+03 -1.06294E+03  6.08219E+02 -1.19437E+03 -6.82671E+02
  1.35402E+03  1.93996E+02  9.17186E+02  1.26825E+03  7.78830E+02  1.93464E+03  2.03928E+02  4.50670E+02
 -1.21250E+03  1.12615E+03 -1.44021E+03 -2.87031E+02 -5.28086E+02 -8.56663E+02  7.45600E+02 -2.06109E+03
  1.42738E+03 -1.55101E+03  2.59535E+03 -2.18431E+01  2.23420E+03  1.28315E+03  1.17680E+03  2.85162E+03
 -8.60380E+01  1.55356E+03  7.31371E+01  1.05873E+03 -2.00065E+03  1.71470E+03 -7.34362E+02 -3.15473E+02
 -9.45341E+02  7.56154E+01 -9.35118E+02 -2.52452E+02 -3.99377E+02  7.37565E+02 -2.64290E+03 -1.55605E+03
 -2.83246E+03  6.54467E+01 -2.37151E+03 -2.44076E+03  5.23954E+02 -2.84041E+03  9.34002E+02 -1.59462E+03
  1.53998E+03 -1.93272E+02  1.19910E+03  1.16518E+03 -2.20711E+02  9.44103E+02 -1.31745E+03  1.25883E+03
