 $NMID ID='MM_0lb_SNR200_7hz_g45_38.RAW', FMTDAT='(8E13.5)'
 TRAMP=1., VOLUME=1. $END
  3.09208E+05 -2.53501E+02  3.37187E+05  2.50412E+05  8.51398E+04  3.38544E+05 -1.32774E+05  2.53369E+05
 -1.90081E+05  8.29678E+04 -1.13539E+05 -3.29510E+04  1.74542E+03 -4.87538E+04  5.20858E+04 -6.95356E+02
  3.43879E+04  5.23675E+04 -1.62886E+04  7.59470E+04 -6.31380E+04  6.44976E+04 -8.52946E+04  3.27259E+04
 -8.32856E+04 -1.22609E+04 -5.80638E+04 -5.28535E+04 -1.50062E+04 -7.13340E+04  2.73966E+04 -4.80408E+04
  4.11035E+04  3.26645E+03  1.68214E+04  4.87619E+04 -3.45041E+04  4.82086E+04 -6.85623E+04  1.86843E+02
 -5.52166E+04 -5.82798E+04 -7.20108E+03 -7.92065E+04  3.41809E+04 -5.74977E+04  5.01729E+04 -1.69080E+04
  4.60090E+04  1.10146E+04  3.16478E+04  2.79030E+04  1.57827E+04  3.12007E+04 -6.30843E+03  2.67470E+04
 -2.17994E+04  1.23308E+04 -1.78527E+04 -5.94952E+03  7.71598E+03 -7.91046E+03  2.54179E+04  1.32705E+04
  7.27530E+03  3.81636E+04 -3.41273E+04  3.80460E+04 -6.41621E+04  2.22991E+03 -5.79458E+04 -4.63290E+04
 -1.34752E+04 -6.67431E+04  4.13801E+04 -4.82007E+04  6.12020E+04 -2.37623E+03  3.50606E+04  3.42767E+04
 -4.05906E+03  4.14412E+04 -3.16239E+04  1.79223E+04 -3.49183E+04 -2.44728E+03 -2.04924E+04 -1.31543E+04
 -7.85230E+03 -1.42870E+04 -1.02104E+03 -2.09322E+04  8.17915E+03 -2.35866E+04  1.67323E+04 -1.12014E+04
  9.48329E+03  9.02961E+03 -1.13236E+04  1.27903E+04 -2.34622E+04 -7.22448E+03 -9.81769E+03 -3.90187E+04
  2.72027E+04 -4.67746E+04  5.29043E+04 -2.21249E+04  5.08847E+04  2.16857E+04  1.84503E+04  4.90649E+04
 -1.57735E+04  3.64456E+04 -2.75825E+04  2.88137E+03 -1.23380E+04 -3.06298E+04  2.31797E+04 -3.71344E+04
  4.59489E+04 -1.09909E+04  4.19128E+04  2.65128E+04  2.31363E+04  5.25348E+04 -8.04176E+03  5.76623E+04
 -3.55527E+04  3.84040E+04 -5.06254E+04  1.34680E+04 -4.88558E+04 -1.92990E+04 -2.61709E+04 -4.36690E+04
  6.32202E+03 -4.39485E+04  3.42558E+04 -1.67900E+04  3.30037E+04  1.19336E+04  4.82222E+03  2.28494E+04
 -1.27719E+04  1.04830E+04 -1.14180E+04 -7.26193E+03  5.62058E+03 -1.34827E+04  1.77268E+04  6.97169E+03
  1.61897E+04  2.40935E+04 -5.03585E+03  2.74167E+04 -2.38338E+04  1.57163E+04 -3.16552E+04 -2.51658E+03
 -2.65362E+04 -1.87133E+04 -1.29520E+04 -2.60421E+04  4.97621E+03 -2.67829E+04  2.18869E+04 -2.52030E+04
  3.41117E+04 -1.44214E+04  3.95285E+04  7.46335E+03  2.87562E+04  2.43234E+04  3.33567E+03  4.11369E+04
 -2.08566E+04  3.54879E+04 -3.20661E+04  1.19828E+04 -2.31529E+04 -9.74935E+03 -2.86626E+03 -1.19928E+04
 -6.68594E+02  4.21754E+02 -8.56609E+03  8.17345E+03 -2.27121E+04  4.40427E+03 -2.18218E+04 -1.03748E+04
 -1.22541E+04 -2.47551E+04  6.23155E+03 -2.93803E+04  2.06455E+04 -1.99898E+04  2.39676E+04 -2.21439E+03
  1.67237E+04  1.62589E+04 -4.04324E+02  2.32212E+04 -1.77334E+04  1.38757E+04 -2.52635E+04 -3.78079E+03
 -1.88911E+04 -2.30298E+04 -2.85877E+03 -2.97201E+04  1.09592E+04 -2.58067E+04  2.49492E+04 -1.31937E+04
  2.15112E+04  1.18019E+02  1.92534E+04  5.34814E+03  9.39498E+03  3.09584E+03  1.25991E+04 -1.30111E+03
  2.40381E+04  4.59341E+03  2.75764E+04  1.89900E+04  1.84361E+04  4.08266E+04 -2.34298E+03  4.84521E+04
 -2.94173E+04  3.90276E+04 -4.51374E+04  2.13569E+04 -4.94758E+04 -4.32138E+03 -3.98964E+04 -2.90058E+04
 -1.76832E+04 -4.02653E+04  1.61284E+04 -3.63619E+04  2.92733E+04 -1.50175E+04  2.53037E+04  9.38664E+03
  8.61553E+03  2.03261E+04 -1.22213E+04  1.71463E+04 -2.13170E+04  1.70273E+03 -1.51361E+04 -1.36788E+04
 -2.69923E+03 -2.23392E+04  1.17382E+04 -1.59449E+04  1.63093E+04 -7.66633E+02  3.75368E+03  1.07408E+04
 -9.59111E+03  4.41606E+03 -1.25974E+04 -9.02798E+03 -1.53146E+03 -1.95421E+04  1.53623E+04 -2.14739E+04
  2.46610E+04 -1.24105E+04  2.86460E+04  3.49257E+03  2.67081E+04  2.12513E+04  9.15052E+03  3.20049E+04
 -7.17047E+03  3.52733E+04 -2.22702E+04  2.26214E+04 -2.50152E+04  3.84422E+03 -1.71890E+04 -6.14782E+03
 -7.89051E+03 -6.78855E+03 -1.53801E+03  7.69274E+01 -3.71555E+03  2.75535E+03 -7.24605E+03  5.67816E+03
 -1.34008E+04 -1.68262E+03 -1.66136E+04 -1.20059E+04 -5.36059E+03 -2.10492E+04  7.52494E+03 -1.72246E+04
  1.50491E+04 -7.07696E+03  1.06553E+04  6.11337E+03  4.95709E+01  7.28377E+03 -8.65758E+03  2.54147E+02
 -9.20031E+03 -1.14323E+04 -2.61727E+03 -1.77474E+04  9.90142E+03 -1.80483E+04  2.28352E+04 -9.33302E+03
  2.69750E+04  1.88481E+03  1.91289E+04  1.61784E+04  3.17874E+03  2.07172E+04 -1.21241E+04  1.80567E+04
 -1.25101E+04  3.47369E+03 -7.11590E+03 -3.43693E+03  1.91293E+03 -3.39326E+03  1.03045E+04 -1.28141E+03
  6.87564E+03  8.66367E+03  1.25874E+03  1.42723E+04 -1.01645E+04  1.22674E+04 -1.69267E+04  4.04322E+03
 -1.22026E+04 -7.81759E+03  1.58194E+03 -1.46827E+04  1.15404E+04 -5.79880E+03  1.23062E+04  3.86417E+03
  4.04173E+03  1.16118E+04 -9.69881E+03  1.35653E+04 -1.48430E+04  6.67541E+03 -1.74049E+04 -5.05677E+03
 -9.55338E+03 -1.89820E+04  5.81799E+03 -2.22598E+04  1.70770E+04 -1.42201E+04  1.94254E+04  3.23386E+03
  1.29202E+04  1.30391E+04 -1.83551E+03  1.96959E+04 -1.27222E+04  1.07481E+04 -1.44115E+04 -2.24303E+02
 -1.27437E+04 -1.06695E+04 -2.18447E+03 -1.56851E+04  5.57792E+03 -1.14901E+04  8.24297E+03 -5.31553E+03
  5.46149E+03  3.32245E+03 -9.05776E+01  1.05837E+03 -2.86253E+03 -4.69997E+03  3.64824E+03 -8.90490E+03
  1.35610E+04 -5.87303E+03  1.84531E+04  4.01148E+03  1.73181E+04  1.37997E+04  1.29153E+04  2.56471E+04
 -5.21089E+03  2.60588E+04 -2.25589E+04  1.89573E+04 -2.99019E+04  3.60368E+03 -2.38499E+04 -9.67254E+03
 -1.23346E+04 -1.97249E+04 -9.24530E+02 -1.79253E+04  4.49669E+03 -1.00618E+04  4.52637E+03 -5.94050E+03
  3.31586E+03 -4.02115E+03  5.72347E+03 -4.09300E+03  8.14700E+03 -5.71107E+03  9.94157E+03 -2.90351E+03
  1.22793E+04  3.90099E+03  7.19128E+03  1.16364E+04 -3.67366E+03  1.38257E+04 -1.46887E+04  9.05027E+03
 -1.73681E+04 -2.88956E+03 -1.35115E+04 -1.26648E+04  7.59788E+02 -1.79111E+04  8.69653E+03 -1.92879E+04
  2.03559E+04 -1.06456E+04  2.21175E+04  2.59954E+03  1.53920E+04  1.58732E+04  8.87209E+02  2.23194E+04
 -9.07289E+03  1.52975E+04 -1.37797E+04  6.89830E+03 -9.04701E+03 -3.28044E+03 -3.77378E+03 -1.95982E+03
 -1.31102E+03  1.10032E+03 -3.12976E+03  4.96325E+03 -7.97980E+03  5.09490E+03 -1.31516E+04 -1.39843E+03
 -8.85885E+03 -1.29435E+04 -9.71608E+02 -1.70316E+04  1.15975E+04 -1.77773E+04  1.68189E+04 -4.29619E+03
  1.89712E+04  8.76295E+03  7.29725E+03  1.39866E+04 -2.98304E+03  1.99649E+04 -1.38904E+04  1.13145E+04
 -1.72545E+04 -2.46933E+02 -1.17109E+04 -9.90787E+03 -1.89222E+03 -1.67475E+04  7.67405E+03 -1.21438E+04
  1.28321E+04 -3.20106E+03  8.67667E+03  4.68129E+03  3.79203E+03  5.35232E+03  1.85187E+03  2.69692E+03
  3.57732E+03  1.79338E+03  2.72066E+03  9.15829E+02  6.70110E+03  6.29759E+03  5.71316E+03  1.00758E+04
 -1.01829E+03  1.55999E+04 -1.21994E+04  1.45542E+04 -1.95538E+04  3.88443E+03 -1.95013E+04 -8.84198E+03
 -8.94363E+03 -1.85617E+04  2.00285E+03 -2.06341E+04  1.31865E+04 -1.33230E+04  1.53165E+04 -3.51509E+03
  1.25564E+04  6.46970E+03  2.91978E+03  1.06334E+04 -4.18874E+03  8.37745E+03 -7.62194E+03 -2.19805E+03
 -4.87179E+03 -7.89496E+03  4.69671E+03 -8.76651E+03  9.87983E+03 -6.24766E+03  7.17222E+03  1.06018E+03
  2.97585E+03  3.63497E+03  1.16903E+03  3.11716E+03 -7.29882E+02  3.72216E+03  1.56884E+03 -3.18507E+02
  3.05861E+03  9.01687E+02  6.45782E+03  2.01366E+03  5.10859E+03  1.09407E+04  4.53145E+02  1.30125E+04
 -9.59463E+03  8.51240E+03 -1.08933E+04  3.45280E+03 -1.11741E+04 -3.79790E+03 -5.05850E+03 -5.97815E+03
  9.95357E+02 -6.56164E+03  6.76875E+03 -5.93407E+03  3.45526E+03  4.26446E+03  7.43407E+01  7.62957E+03
 -7.46753E+03  4.50534E+03 -8.33313E+03 -4.53706E+03 -4.92347E+03 -9.01326E+03  3.70287E+03 -1.09752E+04
  6.78111E+03 -5.10245E+03  9.06241E+03 -8.81511E+02  6.31481E+03  4.07163E+03  8.43836E+02  4.11979E+03
 -4.54066E+03  1.96678E+03 -4.11631E+03 -4.96110E+03  1.41225E+03 -1.09378E+04  9.87258E+03 -6.49267E+03
  1.34318E+04 -3.10604E+02  1.34380E+04  8.82716E+03  2.72210E+03  1.48065E+04 -6.09175E+03  1.38893E+04
 -9.78732E+03  4.66839E+03 -1.29161E+04 -1.89119E+03 -4.76020E+03 -9.26542E+03  2.74173E+03 -6.63910E+03
  7.60713E+03 -2.00778E+03  7.09402E+03  5.12244E+03  3.62131E+03  6.97814E+03 -1.75984E+03  5.33626E+03
 -3.05087E+03  4.32567E+03 -4.00401E+03  1.44210E+03 -9.53121E+02 -8.46220E+02 -1.26400E+03  2.89615E+03
 -4.92789E+03  4.66132E+03 -9.94377E+03  2.56453E+03 -1.40243E+04 -1.09779E+02 -1.51172E+04 -9.52724E+03
 -6.68934E+03 -1.71454E+04  3.45128E+03 -2.04395E+04  1.27984E+04 -1.73922E+04  2.12316E+04 -6.09218E+03
  1.83731E+04  5.51896E+03  1.04820E+04  1.41879E+04  1.64698E+03  1.53730E+04 -6.95515E+03  9.89645E+03
 -8.55468E+03  5.86946E+03 -6.18390E+03 -2.53313E+03 -1.74635E+03 -1.96125E+03  6.12951E+02  8.21446E+02
 -2.66592E+03  1.92064E+02 -3.35027E+03 -1.22884E+03 -1.28565E+03 -3.60783E+03  2.01664E+03 -3.82616E+03
  5.85489E+03 -5.17386E+03  1.10044E+04  8.99092E+02  1.05558E+04  8.52079E+03  3.16489E+03  1.43907E+04
 -6.52650E+03  1.76848E+04 -1.75953E+04  9.97721E+03 -1.68748E+04 -1.65316E+03 -1.21055E+04 -1.07777E+04
 -3.57552E+03 -1.32454E+04  3.89912E+03 -1.23523E+04  9.00704E+03 -6.20995E+03  8.65539E+03 -9.81876E+02
  5.49422E+03  5.68395E+03  4.35024E+01  4.21546E+03 -1.62665E+03  6.07946E+02  5.17455E+01 -4.55706E+03
  5.74910E+03 -3.03051E+03  6.08297E+03  3.00654E+03  5.22948E+03  4.14058E+03  7.83215E+02  6.55466E+03
 -7.03646E+03  7.25431E+03 -1.21992E+04 -2.93770E+02 -8.91115E+03 -5.39732E+03 -5.69916E+02 -1.21791E+04
  6.94392E+03 -9.56218E+03  1.13695E+04 -4.45904E+03  9.77652E+03  3.93109E+03  7.24826E+03  9.95699E+03
  3.38166E+03  1.16255E+04 -3.56560E+03  7.99991E+03 -6.18868E+03  3.26251E+03 -7.28301E+03  1.40319E+03
 -2.63309E+03 -1.65173E+03 -2.68974E+03  1.39588E+03 -5.02931E+03  1.88780E+03 -9.26009E+03 -8.54749E+02
 -9.19010E+03 -4.74705E+03 -6.78348E+02 -8.68941E+03  4.79190E+03 -1.02778E+04  8.95953E+03 -4.06156E+03
  1.14552E+04  8.69537E+02  7.17454E+03  8.10431E+03 -8.77167E+02  9.63098E+03 -8.66445E+03  6.83352E+03
