 $NMID ID='MM_0lb_SNR200_14hz_g40_92.RAW', FMTDAT='(8E13.5)'
 TRAMP=1., VOLUME=1. $END
  3.08952E+05  4.28632E+02  3.36389E+05  2.50980E+05  8.41605E+04  3.38331E+05 -1.32733E+05  2.50295E+05
 -1.90175E+05  8.27775E+04 -1.12105E+05 -3.33156E+04  1.09818E+03 -5.07492E+04  5.35781E+04 -5.97648E+02
  3.42920E+04  5.16056E+04 -1.61684E+04  7.52002E+04 -6.12563E+04  6.42003E+04 -8.39781E+04  3.15235E+04
 -8.05430E+04 -1.15724E+04 -5.68251E+04 -5.12627E+04 -1.47036E+04 -6.83699E+04  2.70378E+04 -4.50299E+04
  3.94541E+04  4.26705E+03  1.65299E+04  4.83340E+04 -3.28557E+04  4.74267E+04 -6.60275E+04 -3.74806E+02
 -5.29332E+04 -5.60911E+04 -6.10969E+03 -7.52729E+04  3.36199E+04 -5.60044E+04  4.71907E+04 -1.65376E+04
  4.30972E+04  1.16081E+04  3.24224E+04  2.44712E+04  1.59674E+04  2.85761E+04 -5.79568E+03  2.70732E+04
 -2.12027E+04  1.07868E+04 -1.83582E+04 -4.24321E+03  5.08411E+03 -7.60396E+03  2.14343E+04  1.18186E+04
  6.55526E+03  3.49722E+04 -3.11928E+04  3.41344E+04 -6.46928E+04  2.80290E+03 -5.68211E+04 -4.24092E+04
 -1.32231E+04 -6.32900E+04  4.05524E+04 -4.53133E+04  5.85721E+04 -2.59270E+03  3.44045E+04  3.15915E+04
 -5.88861E+03  3.60703E+04 -2.93143E+04  1.53150E+04 -3.04603E+04 -4.47651E+03 -1.63451E+04 -9.53427E+03
 -8.32070E+03 -1.29344E+04 -2.73532E+02 -1.91117E+04  7.32456E+03 -2.28180E+04  1.48488E+04 -1.42104E+04
  1.17444E+04  5.22842E+03 -7.27002E+03  1.32214E+04 -1.93968E+04 -3.79113E+03 -7.85082E+03 -3.36508E+04
  2.24639E+04 -4.22063E+04  4.77922E+04 -1.91691E+04  4.49064E+04  1.91541E+04  1.51517E+04  4.32248E+04
 -1.57557E+04  3.36085E+04 -2.38305E+04  1.63038E+03 -9.96971E+03 -2.80913E+04  1.98452E+04 -3.20410E+04
  4.07047E+04 -9.53921E+03  3.47800E+04  2.30735E+04  1.72661E+04  4.53122E+04 -7.91619E+03  4.83717E+04
 -2.99498E+04  3.22530E+04 -4.11607E+04  1.01782E+04 -4.20564E+04 -1.68640E+04 -2.36720E+04 -3.66354E+04
  6.62279E+03 -3.65127E+04  3.14516E+04 -1.49002E+04  2.82907E+04  1.06366E+04  4.52287E+03  1.86341E+04
 -1.29909E+04  8.09695E+03 -1.02120E+04 -7.91244E+03  5.84619E+03 -1.11636E+04  1.73726E+04  6.00764E+03
  1.47538E+04  2.22073E+04 -6.27487E+03  2.53098E+04 -2.24625E+04  1.16061E+04 -2.63469E+04 -5.03241E+03
 -2.11387E+04 -1.85156E+04 -7.84572E+03 -2.08448E+04  5.16658E+03 -1.85310E+04  1.53060E+04 -1.68113E+04
  2.42914E+04 -1.30801E+04  3.13771E+04  3.09188E+03  2.35971E+04  1.94321E+04  3.79968E+03  3.62274E+04
 -1.69820E+04  2.93088E+04 -2.79062E+04  9.78998E+03 -1.94453E+04 -1.04212E+04 -3.47777E+03 -1.50869E+04
  1.70508E+03 -3.72693E+03 -3.34328E+03  6.07974E+03 -1.51947E+04  5.42624E+03 -1.59522E+04 -6.85122E+03
 -9.29696E+03 -1.64099E+04  5.31495E+03 -2.11794E+04  1.47278E+04 -1.59505E+04  1.77056E+04 -2.17525E+03
  9.96525E+03  1.25159E+04 -4.72925E+02  1.88423E+04 -1.27463E+04  1.04533E+04 -1.86767E+04 -4.12044E+03
 -1.37397E+04 -1.61654E+04 -1.63624E+03 -2.13063E+04  1.06263E+04 -1.75769E+04  1.82749E+04 -1.05015E+04
  1.71003E+04 -3.23419E+01  1.23685E+04  4.64065E+03  7.29672E+03  6.58055E+01  9.68819E+03 -3.12202E+03
  1.78505E+04  3.18347E+03  1.80451E+04  1.52885E+04  1.08051E+04  2.93132E+04 -3.54493E+03  3.28304E+04
 -1.87990E+04  2.59828E+04 -2.98132E+04  1.40146E+04 -3.13895E+04 -3.00353E+03 -2.63949E+04 -1.91631E+04
 -1.01911E+04 -2.63130E+04  9.81116E+03 -2.31788E+04  2.00471E+04 -1.24174E+04  1.97641E+04  3.35070E+03
  6.41837E+03  1.35339E+04 -9.46544E+03  1.20053E+04 -1.61531E+04  1.70253E+03 -1.19197E+04 -1.00361E+04
  1.59935E+02 -1.47945E+04  8.16583E+03 -1.03074E+04  1.09147E+04 -1.52762E+03  2.32144E+03  7.48664E+03
 -6.87637E+03  2.41046E+03 -4.52118E+03 -5.35310E+03 -2.21810E+02 -1.21532E+04  9.24512E+03 -1.44029E+04
  1.71364E+04 -7.13516E+03  1.73714E+04  3.30895E+03  1.50980E+04  1.21943E+04  7.07419E+03  1.89379E+04
 -2.95929E+03  2.03141E+04 -1.24288E+04  1.33693E+04 -1.49188E+04  3.49679E+03 -1.14525E+04 -4.08383E+03
 -5.90269E+03 -5.18058E+03 -4.92735E+02  6.88880E+02 -1.89916E+03  8.08844E+02 -4.87430E+03  3.57687E+03
 -1.01093E+04 -4.06310E+02 -1.07415E+04 -9.48459E+03 -5.88768E+03 -1.38183E+04  4.82126E+03 -1.11322E+04
  7.50204E+03 -4.92521E+03  7.57584E+03  3.33131E+03  5.99610E+01  4.74830E+03 -3.32482E+03  5.10452E+02
 -5.75585E+03 -5.54771E+03 -1.76704E+03 -1.01653E+04  5.80586E+03 -1.07841E+04  1.30975E+04 -5.74500E+03
  1.49305E+04  9.84480E+02  1.19262E+04  8.77239E+03  3.67241E+03  1.27961E+04 -6.40513E+03  1.05133E+04
 -7.97227E+03  2.84124E+03 -4.32957E+03 -1.98366E+03  2.72859E+03 -3.22720E+03  5.61568E+03 -1.31667E+03
  5.00000E+03  5.29210E+03  3.31617E+03  9.12078E+03 -5.92515E+03  8.40418E+03 -1.01611E+04  2.16208E+03
 -7.84174E+03 -5.27804E+03  1.75021E+02 -8.62813E+03  5.52061E+03 -4.07431E+03  5.86406E+03  2.01247E+03
  1.26932E+03  5.04607E+03 -6.04521E+03  7.06799E+03 -7.89696E+03  2.67565E+03 -6.75580E+03 -2.75930E+03
 -4.72265E+03 -8.43725E+03  1.90548E+03 -1.07657E+04  8.55070E+03 -7.19222E+03  9.87628E+03  2.26693E+03
  7.22282E+03  7.71101E+03 -5.78729E+01  9.38772E+03 -6.59901E+03  6.47858E+03 -7.27456E+03 -1.35676E+03
 -6.36230E+03 -7.83418E+03 -1.62665E+03 -5.85016E+03  3.94886E+03 -6.34478E+03  4.29880E+03 -3.73080E+03
  2.97441E+03  6.92207E+02  7.01357E+02  1.82481E+03 -2.35293E+02 -1.71551E+03 -5.25969E+02 -3.34749E+03
  6.62049E+03 -2.46176E+03  9.09742E+03  1.00475E+03  8.47833E+03  6.82501E+03  6.48265E+03  1.11808E+04
 -1.97738E+03  1.35073E+04 -1.12365E+04  1.01377E+04 -1.55571E+04  7.67660E+02 -1.16886E+04 -4.38110E+03
 -7.06662E+03 -1.04342E+04 -1.18413E+03 -6.02707E+03  2.74647E+03 -4.21956E+03  3.44615E+03 -2.11397E+03
  2.87611E+03 -1.18810E+03  2.23523E+03 -1.13861E+03  4.30894E+03 -2.43265E+03  5.12685E+03  1.69399E+02
  6.54730E+03  1.17466E+03  2.36335E+03  5.14752E+03 -2.40397E+03  6.10078E+03 -6.48608E+03  5.58075E+03
 -8.83757E+03 -1.45162E+03 -4.98297E+03 -6.43781E+03 -2.62186E+02 -8.53704E+03  4.76276E+03 -8.53486E+03
  9.22314E+03 -5.05731E+03  1.01239E+04  1.16959E+03  7.43445E+03  7.34333E+03  1.71948E+03  9.67589E+03
 -4.44500E+03  8.08459E+03 -5.62148E+03  3.53519E+03 -2.77826E+03 -1.87959E+03 -1.73889E+03  1.22978E+02
 -8.26943E+02 -1.07534E+03 -8.80295E+02  1.50459E+03 -3.67739E+03  1.67967E+03 -4.97594E+03 -6.43996E+02
 -3.14836E+03 -5.73801E+03  8.75348E+02 -7.78847E+03  5.86814E+03 -8.20463E+03  6.63144E+03 -2.07007E+03
  7.32883E+03  3.30667E+03  3.25862E+03  6.75227E+03 -5.66100E+02  7.77360E+03 -5.11932E+03  5.28777E+03
 -7.26348E+03  7.80293E+02 -5.31358E+03 -4.94397E+03  8.35267E+01 -6.03864E+03  2.65265E+03 -3.62480E+03
  5.47486E+03 -2.13634E+03  4.36170E+03  9.28285E+02  8.18633E+02  2.80850E+03  4.07784E+02 -2.14020E+02
  1.68413E+03  3.92742E+02  1.82288E+03  1.02851E+03  2.11599E+03  3.80121E+03  2.80168E+03  4.44746E+03
 -1.49914E+03  6.08114E+03 -5.13023E+03  5.83559E+03 -6.10356E+03  1.83751E+02 -8.02931E+03 -1.82324E+03
 -3.37203E+03 -6.72698E+03  7.51845E+02 -8.07349E+03  3.47159E+03 -5.96921E+03  5.22550E+03 -1.74881E+03
  3.59657E+03  3.64926E+03  3.88418E+02  4.85167E+03 -2.25959E+03  2.43693E+03 -3.66454E+03 -1.22432E+03
 -1.92432E+03 -1.80554E+03  2.02010E+03 -3.33872E+03  3.14597E+03 -1.63659E+03  3.79023E+03  2.87718E+02
  1.50173E+03  6.71310E+02  1.37419E+03  1.62073E+03  1.85409E+01  1.85544E+03  2.72507E+03  2.58944E+02
  2.11056E+02 -3.33598E+02  2.19674E+03  1.36729E+03  8.26177E+02  3.94425E+03 -5.86630E+02  6.06014E+03
 -3.70037E+03  2.65313E+03 -5.17535E+03  1.07556E+03 -4.46094E+03 -1.35865E+03 -1.10781E+03 -2.01747E+03
  1.14328E+03 -2.42183E+03  1.86574E+03 -2.57813E+03  2.55377E+03  1.53975E+03 -1.52153E+03  1.90740E+03
 -2.94658E+03  7.84184E+02 -3.24823E+03 -1.36083E+03 -1.09455E+03 -4.66711E+03 -3.41041E+02 -2.93974E+03
  2.47143E+03 -1.64336E+03  3.17652E+03  3.72234E+02  2.74772E+03  4.46343E+02  1.09607E+03  2.27943E+03
 -1.08877E+03  7.67797E+02 -2.51857E+03 -1.48267E+03  1.19927E+03 -3.49754E+03  2.43821E+03 -2.35985E+03
  3.70199E+03 -1.34206E+02  5.83223E+03  2.34420E+03  1.24263E+03  4.09097E+03 -7.59335E+02  3.78167E+03
 -3.35929E+03  1.41753E+02 -2.73253E+03 -5.64814E+02 -2.38147E+03 -1.45611E+03  9.26972E+02 -1.23052E+03
  3.10033E+03  1.35850E+02  1.59633E+03  1.13798E+03  5.99610E+02  2.34973E+03 -3.12000E+00  2.53900E+03
 -1.19410E+03  1.92949E+03 -2.13783E+02  2.82151E+02 -9.24197E+02  5.74789E+02 -3.00931E+02  3.46704E+02
 -1.22739E+03  2.19606E+03 -1.57014E+03  1.42374E+03 -4.79736E+03 -7.44788E+02 -4.58426E+03 -1.65233E+03
 -3.14700E+03 -4.95834E+03  1.51093E+03 -6.26144E+03  3.60740E+03 -3.71742E+03  6.64902E+03 -2.01241E+03
  5.73251E+03  9.00680E+02  2.96408E+03  4.22789E+03 -1.18218E+03  4.85561E+03 -1.39347E+03  2.41608E+03
 -2.10812E+03  1.56750E+03 -2.85540E+03 -7.24262E+02 -8.27453E+02  1.31389E+02  2.16502E+02  6.58333E+02
 -9.55233E+02  4.76824E+02 -1.77093E+03 -5.47980E+02 -4.91208E+02 -2.63219E+03  2.78624E+02 -1.34108E+03
  2.65283E+03 -6.83420E+02  1.90729E+03  6.89568E+02  1.73785E+03  2.60350E+03  2.76312E+02  4.18970E+03
 -1.22027E+03  4.94009E+03 -5.37553E+03  2.99044E+03 -5.15956E+03 -2.27434E+02 -2.30203E+03 -4.06424E+03
 -1.97066E+03 -3.75893E+03  2.31128E+03 -1.56154E+03  1.53103E+03 -2.76739E+03  2.09764E+03  5.61395E+02
  2.16791E+03  6.93255E+02 -1.46091E+03  1.60323E+03 -8.64816E+02 -4.03130E+02  4.63176E+02 -9.16048E+02
  1.27131E+03 -5.74600E+00  1.74887E+03  3.48129E+02  8.50847E+02  9.90295E+02 -8.47666E+02  5.50278E+02
 -5.06386E+02  2.32905E+03 -2.34792E+03  1.15615E+03 -3.13630E+03 -5.50286E+02 -6.07282E+02 -3.47460E+03
  1.41811E+03 -3.16999E+03  2.21928E+03 -1.26775E+03  2.79494E+03  5.14588E+02  6.39234E+02  1.95159E+03
  8.03334E+02  2.30642E+03 -4.31728E+02  2.35434E+03 -1.65774E+03  1.13579E+03 -1.74398E+03 -1.55801E+02
 -9.87661E+02  2.66236E+02 -1.80727E+03 -1.20142E+02 -2.03108E+03 -2.67849E+02 -1.70056E+03  1.60884E+02
 -1.61356E+03  3.39867E+02 -1.22760E+03 -2.66029E+03  8.58401E+02 -2.66715E+03  3.11333E+03 -1.35521E+03
  2.33137E+03  1.33192E+03  1.14117E+03  1.66900E+03 -3.52764E+02  2.20102E+03 -1.80161E+03  2.05211E+03
