 $NMID ID='MM_0lb_SNR200_9hz_g40_86.RAW', FMTDAT='(8E13.5)'
 TRAMP=1., VOLUME=1. $END
  3.10612E+05 -1.20928E+03  3.36652E+05  2.48957E+05  8.40531E+04  3.40017E+05 -1.31762E+05  2.52137E+05
 -1.89304E+05  8.37758E+04 -1.13255E+05 -3.30529E+04  6.05257E+02 -4.89345E+04  5.22523E+04 -1.88534E+02
  3.67512E+04  5.44751E+04 -1.54178E+04  7.56421E+04 -6.23253E+04  6.55151E+04 -8.64377E+04  3.21491E+04
 -8.34860E+04 -1.18354E+04 -5.85724E+04 -5.17651E+04 -1.52327E+04 -7.04238E+04  2.78601E+04 -4.71667E+04
  4.14718E+04  2.67879E+03  1.58009E+04  4.94713E+04 -3.40483E+04  4.74205E+04 -6.63807E+04  1.38831E+03
 -5.39363E+04 -5.81681E+04 -6.63696E+03 -7.85127E+04  3.49769E+04 -5.61089E+04  4.84906E+04 -1.72813E+04
  4.54337E+04  1.20805E+04  3.13778E+04  2.69350E+04  1.68587E+04  3.09312E+04 -6.10622E+03  2.87723E+04
 -2.22221E+04  1.18306E+04 -1.88616E+04 -4.02170E+03  6.37330E+03 -8.10284E+03  2.30177E+04  1.35837E+04
  6.75309E+03  3.58770E+04 -3.42076E+04  3.57103E+04 -6.50709E+04  2.62565E+03 -5.77539E+04 -4.37374E+04
 -1.26763E+04 -6.45921E+04  4.06750E+04 -4.73436E+04  6.10941E+04 -2.57143E+03  3.68584E+04  3.46131E+04
 -5.49521E+03  4.05157E+04 -3.18301E+04  1.81921E+04 -3.29469E+04 -3.96564E+03 -1.89436E+04 -1.24021E+04
 -9.50753E+03 -1.43668E+04  4.21522E+02 -1.92555E+04  7.67524E+03 -2.31409E+04  1.61534E+04 -1.28926E+04
  9.33090E+03  5.56652E+03 -1.02276E+04  1.19810E+04 -2.35811E+04 -6.27105E+03 -7.43937E+03 -3.68891E+04
  2.54686E+04 -4.60152E+04  5.20216E+04 -1.96943E+04  4.76570E+04  2.23055E+04  1.64779E+04  4.54721E+04
 -1.49050E+04  3.47990E+04 -2.78654E+04  3.82476E+03 -1.30708E+04 -2.95912E+04  2.15915E+04 -3.65463E+04
  4.39655E+04 -1.14082E+04  3.91053E+04  2.38239E+04  2.13775E+04  5.07321E+04 -9.36839E+03  5.55721E+04
 -3.45665E+04  3.68775E+04 -4.46994E+04  1.10424E+04 -4.89138E+04 -1.84822E+04 -2.53489E+04 -4.10412E+04
  9.45116E+03 -4.04535E+04  3.31912E+04 -1.73067E+04  2.96745E+04  1.09081E+04  4.47816E+03  2.05949E+04
 -1.42106E+04  8.78370E+03 -1.16051E+04 -8.60436E+03  5.62834E+03 -1.06117E+04  1.83839E+04  6.29168E+03
  1.37625E+04  2.23392E+04 -5.70078E+03  2.65003E+04 -2.29601E+04  1.38451E+04 -3.03333E+04 -3.00054E+03
 -2.44292E+04 -1.81570E+04 -1.08113E+04 -2.37518E+04  3.94185E+03 -2.44749E+04  1.95609E+04 -2.15808E+04
  2.99553E+04 -1.38288E+04  3.76305E+04  3.18584E+03  2.61075E+04  2.31025E+04  4.49117E+03  3.96492E+04
 -1.99928E+04  3.29359E+04 -3.05774E+04  1.19837E+04 -2.23200E+04 -1.05235E+04 -3.33726E+03 -1.34229E+04
 -5.75200E+02 -2.91125E+03 -6.55368E+03  7.71951E+03 -1.79602E+04  5.50887E+03 -1.80918E+04 -8.30362E+03
 -1.06375E+04 -2.18811E+04  5.58121E+03 -2.79956E+04  1.71306E+04 -1.90708E+04  2.02153E+04 -2.80834E+03
  1.35841E+04  1.50787E+04  7.76657E+01  2.17900E+04 -1.47696E+04  1.32655E+04 -2.35066E+04 -3.22491E+03
 -1.59777E+04 -2.08420E+04 -2.08012E+03 -2.65366E+04  1.24907E+04 -2.14943E+04  2.23218E+04 -1.17310E+04
  2.06089E+04 -7.62439E+02  1.43684E+04  5.24491E+03  7.78686E+03  2.65214E+02  1.12238E+04 -3.04260E+03
  2.17304E+04  1.79299E+03  2.30602E+04  1.88834E+04  1.77163E+04  3.57175E+04 -2.62580E+03  4.29740E+04
 -2.41259E+04  3.51060E+04 -4.07645E+04  1.82012E+04 -4.14289E+04 -3.82728E+03 -3.59584E+04 -2.56604E+04
 -1.40760E+04 -3.82834E+04  1.20030E+04 -3.15516E+04  2.68644E+04 -1.43808E+04  2.38757E+04  8.46789E+03
  8.45635E+03  1.78397E+04 -1.12043E+04  1.37889E+04 -1.89141E+04  1.24169E+03 -1.56770E+04 -1.19947E+04
 -2.44496E+02 -2.01026E+04  1.07610E+04 -1.33246E+04  1.19144E+04 -6.09949E+02  3.26340E+03  8.35720E+03
 -8.69028E+03  3.73621E+03 -1.01215E+04 -8.02974E+03 -1.48604E+03 -1.62827E+04  1.14360E+04 -1.89475E+04
  2.21350E+04 -9.55916E+03  2.37304E+04  2.18357E+03  2.21073E+04  1.67936E+04  1.06533E+04  2.72965E+04
 -5.64925E+03  3.01141E+04 -2.09563E+04  2.04811E+04 -2.05797E+04  2.51904E+03 -1.52617E+04 -5.00067E+03
 -6.37106E+03 -6.79684E+03 -9.02046E+02  1.85253E+03 -4.35201E+03  3.29897E+03 -6.20862E+03  5.75565E+03
 -1.45685E+04 -9.28237E+02 -1.50232E+04 -1.07223E+04 -5.87080E+03 -1.85417E+04  5.52053E+03 -1.48022E+04
  1.18165E+04 -5.88178E+03  8.81159E+03  3.90038E+03 -3.22210E+02  6.23732E+03 -8.12248E+03 -6.96259E+02
 -5.93532E+03 -1.01603E+04 -2.71744E+02 -1.47600E+04  8.87987E+03 -1.46267E+04  1.76684E+04 -8.51806E+03
  2.23162E+04  2.12466E+03  1.77771E+04  1.42221E+04  3.97305E+03  1.80807E+04 -9.91878E+03  1.48903E+04
 -1.21682E+04  2.98544E+03 -6.48531E+03 -4.75615E+03  2.92762E+03 -4.61322E+03  8.38022E+03 -1.08544E+03
  6.34208E+03  5.64358E+03  3.18742E+03  1.30133E+04 -8.09825E+03  1.08796E+04 -1.48846E+04  1.38232E+03
 -1.12684E+04 -6.56712E+03  7.50705E+02 -1.39315E+04  8.33333E+03 -6.25234E+03  9.47333E+03  2.91020E+03
  2.25121E+03  8.86131E+03 -8.03290E+03  1.07144E+04 -1.29524E+04  4.30048E+03 -1.44449E+04 -4.93245E+03
 -7.31917E+03 -1.59474E+04  2.59808E+03 -1.68260E+04  1.52794E+04 -1.03289E+04  1.71205E+04  4.34799E+03
  7.91901E+03  1.30851E+04 -2.05519E+03  1.56606E+04 -9.10074E+03  7.79447E+03 -1.18262E+04 -8.56082E+02
 -1.10109E+04 -9.08655E+03 -1.78058E+03 -1.20397E+04  6.76255E+03 -9.73395E+03  6.23804E+03 -3.36575E+03
  4.78462E+03  1.90558E+03 -3.25063E+02  9.61903E+02  7.20159E+02 -4.03900E+03  1.79884E+03 -6.91107E+03
  1.03967E+04 -3.79011E+03  1.59473E+04  2.81572E+03  1.54546E+04  9.23937E+03  8.81575E+03  2.08302E+04
 -5.16733E+03  2.22840E+04 -1.86451E+04  1.63735E+04 -2.32702E+04  2.75064E+03 -1.67803E+04 -7.94463E+03
 -1.10969E+04 -1.70889E+04  5.82487E+02 -1.20821E+04  3.75828E+03 -9.85505E+03  5.46458E+03 -6.34200E+03
  4.09633E+03 -1.97850E+03  3.68747E+03 -3.62264E+03  6.24923E+03 -2.85121E+03  7.69117E+03 -1.86889E+03
  9.84957E+03  1.99289E+03  5.27739E+03  9.15602E+03 -1.98973E+03  1.21436E+04 -1.05665E+04  8.69980E+03
 -1.25329E+04 -2.13761E+02 -1.09301E+04 -9.77050E+03 -2.32755E+02 -1.37303E+04  7.94318E+03 -1.54213E+04
  1.48809E+04 -8.65121E+03  1.81234E+04  3.62278E+03  1.37193E+04  1.36288E+04  3.09792E+03  1.45980E+04
 -7.68522E+03  1.25980E+04 -9.55704E+03  3.85721E+03 -6.86206E+03 -1.32781E+03 -2.48396E+03 -3.01946E+03
 -5.12416E+01  2.43899E+02 -3.35753E+03  3.34178E+03 -6.58704E+03  1.42469E+03 -9.19205E+03 -1.12604E+02
 -7.19924E+03 -9.70335E+03  1.06584E+03 -1.61095E+04  8.34785E+03 -1.36167E+04  1.36478E+04 -3.15846E+03
  1.43197E+04  5.57718E+03  5.64924E+03  1.31652E+04 -3.68378E+03  1.41920E+04 -9.64970E+03  8.57305E+03
 -1.38855E+04 -2.49837E+02 -1.00554E+04 -9.23922E+03 -4.47845E+02 -1.15076E+04  4.49193E+03 -7.33000E+03
  9.13153E+03 -2.51258E+03  6.02416E+03  1.55621E+03  2.78704E+03  4.65010E+03  2.54763E+03  2.04800E+03
  2.14557E+03  1.24997E+03  3.70019E+03  2.09360E+03  5.41983E+03  5.71794E+03  2.36168E+03  7.49762E+03
 -1.74597E+03  1.15764E+04 -9.95899E+03  1.02033E+04 -1.54283E+04  1.81630E+03 -1.41614E+04 -6.78971E+03
 -6.16960E+03 -1.53408E+04  1.37502E+03 -1.63496E+04  8.60420E+03 -1.06987E+04  1.15258E+04 -1.52769E+03
  9.93369E+03  5.30735E+03  1.99714E+03  8.32271E+03 -3.16217E+03  7.03457E+03 -5.85427E+03 -1.01366E+03
 -3.13763E+03 -5.70947E+03  3.00563E+03 -5.34086E+03  5.31658E+03 -3.91071E+03  6.09535E+03  1.19767E+03
  1.81740E+03  3.04426E+03  1.25582E+02  2.53632E+03 -2.18021E+03  3.59161E+03  1.25944E+03 -7.83938E+02
  2.16117E+03 -8.29877E+02  4.39098E+03  2.59691E+03  2.85001E+03  6.65851E+03 -1.52939E+03  9.34862E+03
 -8.78939E+03  4.72843E+03 -9.37707E+03  7.27047E+02 -7.19792E+03 -2.30668E+03 -2.90883E+03 -5.29120E+03
  1.99091E+03 -6.14758E+03  3.78207E+03 -2.63452E+03  3.41156E+03  3.35145E+03 -1.22837E+03  5.23059E+03
 -5.70309E+03  3.43912E+03 -6.80165E+03 -4.41134E+03 -3.99107E+03 -8.61523E+03  6.09066E+02 -8.53622E+03
  5.82014E+03 -5.68220E+03  6.49463E+03 -1.80593E+03  4.60801E+03  2.41923E+03  6.36136E+02  3.52692E+03
 -3.53143E+03  1.41215E+03 -2.41018E+03 -3.38478E+03  1.49289E+03 -6.11234E+03  7.59504E+03 -3.72743E+03
  1.02244E+04 -2.78619E+02  9.70179E+03  5.77609E+03  3.47640E+03  9.01804E+03 -2.40468E+03  8.54825E+03
 -7.63322E+03  4.28990E+03 -9.49233E+03 -5.95422E+02 -2.53997E+03 -6.67553E+03  6.74091E+02 -5.59669E+03
  7.29794E+03 -1.21010E+03  3.68152E+03  3.24547E+03  5.55341E+02  6.13096E+03 -5.02059E+02  4.88930E+03
 -3.24153E+03  3.26149E+03 -7.45491E+02  1.37660E+03  2.16103E+02  7.74956E+02 -1.50067E+03  2.11994E+03
 -2.06258E+03  4.23327E+03 -7.33474E+03  3.61024E+03 -8.61439E+03 -1.05590E+02 -1.09952E+04 -6.37668E+03
 -6.31278E+03 -1.26901E+04  7.56932E+02 -1.40970E+04  9.96539E+03 -1.08015E+04  1.32028E+04 -3.03366E+03
  1.38080E+04  2.84359E+03  8.24515E+03  8.88246E+03  1.17407E+03  8.34930E+03 -4.14416E+03  8.74420E+03
 -4.82987E+03  1.11383E+03 -4.42558E+03 -1.45988E+03 -4.13207E+02  1.75019E+02  2.88448E+02 -1.27084E+02
  1.96360E+02 -8.38561E+01 -1.13145E+03  5.03600E+01 -6.28803E+00 -1.99727E+03 -1.82535E+02 -5.00080E+03
  5.07719E+03 -3.24319E+03  5.88840E+03 -2.83755E+02  8.22950E+03  4.35048E+03  1.35970E+03  1.04998E+04
 -4.69127E+03  1.04391E+04 -9.86790E+03  6.67590E+03 -1.21973E+04 -1.73903E+03 -8.96531E+03 -9.21157E+03
 -3.94475E+03 -8.65141E+03  3.38079E+03 -8.95698E+03  6.87891E+03 -5.16984E+03  6.77176E+03  3.91799E+01
  3.23538E+03  3.32235E+03  3.21343E+02  2.73918E+03 -1.82443E+03  6.02616E+02  8.31728E+02 -2.77820E+03
  6.84553E+02 -2.62379E+03  2.58388E+03  6.27882E+02  2.17336E+03  4.26169E+03 -3.49910E+02  4.30217E+03
 -4.45822E+03  4.32317E+03 -6.44108E+03  3.57005E+02 -6.33041E+03 -6.02262E+03 -1.43789E+03 -7.73416E+03
  4.98923E+03 -8.74111E+03  6.31857E+03 -2.63422E+03  7.23941E+03  1.51147E+03  4.65488E+03  6.83894E+03
  1.73093E+03  6.52937E+03 -6.35142E+02  5.19127E+03 -3.81504E+03  2.35219E+03 -2.15815E+03  9.60520E+02
 -2.21053E+03 -1.02578E+03 -1.84037E+03  2.71024E+02 -2.29736E+03  9.00797E+02 -5.58688E+03 -1.07148E+03
 -5.77301E+03 -4.01490E+03 -1.60753E+03 -5.43004E+03  4.45487E+03 -5.75215E+03  6.95326E+03 -3.21415E+03
  6.35759E+03  8.62199E+02  2.26730E+03  5.18952E+03 -8.65098E+02  6.44841E+03 -5.47607E+03  3.71706E+03
