 $NMID ID='MM_0lb_SNR200_15hz_g55_2.RAW', FMTDAT='(8E13.5)'
 TRAMP=1., VOLUME=1. $END
  3.10148E+05 -2.05997E+01  3.37100E+05  2.51016E+05  8.51933E+04  3.37791E+05 -1.31085E+05  2.50960E+05
 -1.90963E+05  8.27147E+04 -1.12014E+05 -3.25168E+04  1.49693E+03 -4.99610E+04  5.36169E+04  4.84276E+02
  3.64113E+04  5.16461E+04 -1.75841E+04  7.49074E+04 -5.98289E+04  6.27342E+04 -8.46310E+04  3.21593E+04
 -7.97222E+04 -1.15408E+04 -5.66181E+04 -5.20334E+04 -1.63518E+04 -6.93632E+04  2.86748E+04 -4.64293E+04
  4.01028E+04  4.81297E+03  1.71048E+04  4.83302E+04 -3.46240E+04  4.81565E+04 -6.56594E+04 -2.12008E+03
 -5.26597E+04 -5.66161E+04 -6.50310E+03 -7.66738E+04  3.41186E+04 -5.36451E+04  4.87572E+04 -1.70377E+04
  4.26722E+04  1.03874E+04  3.35606E+04  2.54327E+04  1.58178E+04  2.90057E+04 -5.90002E+03  2.78126E+04
 -2.15594E+04  1.22194E+04 -1.85684E+04 -4.02370E+03  4.41784E+03 -7.24805E+03  2.30402E+04  1.34939E+04
  6.90718E+03  3.58787E+04 -3.30110E+04  3.53129E+04 -6.36039E+04  1.27489E+03 -5.68083E+04 -4.19262E+04
 -1.37362E+04 -6.31118E+04  3.99274E+04 -4.50769E+04  5.83132E+04 -1.16779E+03  3.43712E+04  3.14971E+04
 -5.47023E+03  3.76588E+04 -2.90080E+04  1.69277E+04 -2.99515E+04 -4.63000E+03 -1.72479E+04 -1.12702E+04
 -8.22885E+03 -1.37303E+04 -6.86070E+02 -1.82110E+04  6.28069E+03 -2.34586E+04  1.56636E+04 -1.30560E+04
  1.12541E+04  4.62731E+03 -8.36548E+03  1.33501E+04 -2.17149E+04 -3.47731E+03 -9.10875E+03 -3.35831E+04
  2.46280E+04 -4.21023E+04  4.90259E+04 -2.00096E+04  4.47531E+04  1.84901E+04  1.67343E+04  4.40018E+04
 -1.61523E+04  3.24823E+04 -2.64836E+04  1.74637E+03 -9.11623E+03 -2.75993E+04  2.19433E+04 -3.51503E+04
  4.16783E+04 -1.09088E+04  3.56281E+04  2.25725E+04  1.80894E+04  4.60495E+04 -8.66719E+03  5.02931E+04
 -3.23717E+04  3.40380E+04 -4.19895E+04  8.70843E+03 -4.29665E+04 -1.62101E+04 -2.31591E+04 -3.71274E+04
  6.89719E+03 -3.83781E+04  3.00846E+04 -1.33865E+04  2.93439E+04  1.09922E+04  3.76057E+03  1.99468E+04
 -1.30965E+04  8.01403E+03 -1.00299E+04 -8.07532E+03  5.95273E+03 -9.22600E+03  1.79552E+04  6.32057E+03
  1.34021E+04  2.18300E+04 -7.07415E+03  2.48005E+04 -2.25141E+04  1.05831E+04 -2.79481E+04 -5.04849E+03
 -2.04797E+04 -1.77271E+04 -8.26428E+03 -2.00780E+04  4.45515E+03 -1.94615E+04  1.51879E+04 -1.87342E+04
  2.59509E+04 -1.22551E+04  3.23306E+04  2.88731E+03  2.38352E+04  2.02693E+04  4.21647E+03  3.47632E+04
 -1.81293E+04  3.09120E+04 -2.67763E+04  9.59087E+03 -2.05356E+04 -1.04628E+04 -5.25489E+03 -1.38102E+04
  2.26963E+03 -2.36033E+03 -5.14095E+03  6.07560E+03 -1.62347E+04  6.41615E+03 -1.67783E+04 -7.31537E+03
 -9.52777E+03 -1.91080E+04  5.23840E+03 -2.12612E+04  1.55652E+04 -1.66978E+04  1.76132E+04 -1.44188E+03
  1.15585E+04  1.25843E+04 -2.53644E+02  1.83016E+04 -1.26585E+04  9.94030E+03 -1.81356E+04 -4.40943E+03
 -1.26979E+04 -1.63129E+04 -1.27907E+03 -2.32198E+04  1.11309E+04 -1.91268E+04  1.82535E+04 -8.83671E+03
  1.72902E+04  6.56899E+02  1.24621E+04  4.43133E+03  6.37148E+03  1.15998E+03  9.69909E+03 -1.67425E+03
  1.82448E+04  3.37272E+03  1.86865E+04  1.54603E+04  1.28598E+04  3.00496E+04 -3.57198E+03  3.36168E+04
 -1.83935E+04  2.68380E+04 -3.13593E+04  1.34219E+04 -3.23489E+04 -2.27649E+03 -2.85364E+04 -1.90542E+04
 -1.28067E+04 -2.75551E+04  9.49803E+03 -2.48903E+04  2.18474E+04 -1.34633E+04  1.96505E+04  5.95276E+03
  6.98074E+03  1.43610E+04 -9.00488E+03  1.23858E+04 -1.69188E+04  1.78599E+03 -1.18842E+04 -1.03016E+04
 -9.82747E+02 -1.44558E+04  9.68722E+03 -1.18016E+04  8.95378E+03 -1.81757E+03  2.69732E+03  5.32223E+03
 -7.53105E+03  2.08816E+03 -6.80835E+03 -4.98593E+03 -1.11554E+03 -1.28932E+04  8.70765E+03 -1.45673E+04
  1.65823E+04 -6.85942E+03  1.78859E+04  4.18626E+03  1.51688E+04  1.25291E+04  6.51156E+03  1.95137E+04
 -3.19674E+03  2.14119E+04 -1.37518E+04  1.48389E+04 -1.57242E+04  3.84781E+03 -1.11110E+04 -3.24962E+03
 -5.61880E+03 -5.72526E+03 -1.48730E+03  2.47059E+03 -3.00509E+03  2.18868E+03 -5.44106E+03  4.53504E+03
 -9.06098E+03 -3.08247E+02 -1.09629E+04 -8.73263E+03 -4.34150E+03 -1.52915E+04  4.89086E+03 -1.17886E+04
  1.00989E+04 -5.65275E+03  5.49633E+03  2.10057E+03  3.19798E+02  4.85522E+03 -4.44591E+03 -1.36147E+03
 -4.94090E+03 -5.89087E+03 -1.07667E+03 -1.02993E+04  5.36437E+03 -1.06689E+04  1.33597E+04 -6.04342E+03
  1.46677E+04  1.24344E+03  1.16609E+04  8.51231E+03  3.19225E+03  1.16276E+04 -6.42408E+03  1.12726E+04
 -1.00917E+04  4.52572E+03 -4.03101E+03 -3.50847E+03  1.11646E+03 -2.75944E+03  6.20071E+03 -7.01852E+02
  5.54674E+03  4.79931E+03  1.22686E+03  7.41037E+03 -6.34734E+03  8.63273E+03 -1.11119E+04  2.58563E+03
 -6.93184E+03 -6.00810E+03  4.11782E+02 -8.57045E+03  5.55251E+03 -5.43036E+03  6.55887E+03  3.74919E+02
  1.84596E+03  5.62223E+03 -5.98889E+03  7.33261E+03 -8.21008E+03  2.51150E+03 -8.17055E+03 -2.90504E+03
 -4.30149E+03 -8.36417E+03  2.14099E+03 -9.97576E+03  8.45206E+03 -7.56330E+03  9.13785E+03  4.27124E+02
  6.85285E+03  7.20113E+03 -2.10017E+02  9.76397E+03 -7.73144E+03  5.89339E+03 -7.91267E+03 -8.68331E+02
 -6.19770E+03 -7.87412E+03 -4.51356E+02 -6.75037E+03  3.64682E+03 -6.54641E+03  4.10872E+03 -3.67163E+03
  2.97426E+03  1.25246E+03  3.32760E+02  1.46856E+03  3.36295E+02 -3.82866E+02  3.99990E+02 -4.01255E+03
  6.56827E+03 -1.44880E+03  9.34776E+03  1.64526E+03  9.01709E+03  5.19505E+03  6.00033E+03  1.15555E+04
 -3.67233E+03  1.39078E+04 -1.18324E+04  1.17508E+04 -1.48812E+04  2.65233E+03 -1.14658E+04 -3.21124E+03
 -5.48637E+03 -9.56225E+03 -5.33992E+02 -8.31729E+03  3.02771E+03 -3.92587E+03  1.80179E+03 -3.41995E+03
  1.03591E+03 -3.06845E+03  2.72001E+03 -3.86072E+03  4.51061E+03 -1.47661E+03  4.96321E+03 -8.12494E+02
  6.11682E+03  6.61467E+02  1.92912E+03  5.39721E+03 -2.00260E+03  5.26456E+03 -6.81191E+03  2.87260E+03
 -8.11225E+03 -2.62796E+03 -3.35379E+03 -4.20482E+03 -6.30731E+02 -8.93073E+03  5.13970E+03 -8.43043E+03
  8.70130E+03 -4.47754E+03  1.03998E+04  2.01805E+03  6.99312E+03  5.96126E+03  1.31710E+03  1.15167E+04
 -2.93975E+03  8.37217E+03 -4.57437E+03  2.17161E+03 -3.71836E+03 -2.12918E+03 -2.44256E+03 -1.67300E+03
 -1.97654E+02  7.31465E+02 -1.21377E+03  3.99153E+03 -3.43818E+03  1.67925E+03 -6.36682E+03 -2.43834E+02
 -2.20394E+03 -6.13047E+03  5.39621E+02 -7.17604E+03  4.24742E+03 -7.47275E+03  7.23778E+03 -2.09244E+03
  8.49247E+03  3.41140E+03  2.00407E+03  6.14367E+03 -5.86316E+02  7.59044E+03 -4.88039E+03  3.83482E+03
 -6.43812E+03 -2.79200E+02 -5.08349E+03 -4.48850E+03 -8.24931E+02 -5.86390E+03  4.00218E+03 -4.65109E+03
  4.77765E+03 -2.96225E+03  3.26706E+03  1.45283E+03  1.80670E+03  3.82002E+03  9.97087E+02  1.16264E+03
  1.72867E+03  7.39442E+02  2.38347E+03  1.01267E+03  3.52494E+03  3.23539E+03  2.12213E+03  2.92892E+03
 -1.55825E+03  5.20815E+03 -4.60849E+03  7.02944E+03 -6.95751E+03  2.56798E+03 -7.37845E+03 -9.83365E+02
 -2.54195E+03 -6.95184E+03  3.61308E+02 -8.10847E+03  3.30102E+03 -4.73075E+03  6.42892E+03 -1.65586E+03
  4.57001E+03  2.88326E+03  1.28479E+02  4.87536E+03 -5.36937E+02  2.23077E+03 -1.61415E+03 -3.09480E+01
 -1.20404E+03 -2.83462E+03  9.64682E+02 -2.51680E+03  2.82766E+03 -2.20633E+03  3.07070E+03  8.01021E+02
  2.12294E+03  2.13202E+03  1.47465E+03  9.22979E+02 -1.03042E+03  7.00840E+02  1.81947E+03 -1.23771E+03
  1.83428E+03 -1.16211E+02  3.42735E+03  4.52462E+02 -9.12227E+02  2.97967E+03 -6.36703E+02  4.16494E+03
 -3.19894E+03  2.27295E+03 -5.13784E+03  1.12496E+03 -2.97383E+03 -1.44071E+03 -1.54342E+03 -2.64120E+03
  7.09991E+02 -2.37885E+03  1.45910E+03 -9.33295E+02  2.00624E+03  2.14410E+03 -5.70966E+02  1.44860E+03
 -2.79807E+03  1.65637E+03 -1.14401E+03 -2.20124E+03 -1.77437E+03 -2.70234E+03 -1.91813E+02 -2.72007E+03
  1.61104E+03 -2.14966E+03  2.61783E+03 -7.26097E+01  1.78453E+03  6.05604E+02  4.54089E+01  1.63937E+03
 -5.04484E+02 -9.29198E+01 -1.61894E+03 -1.21840E+03  1.21397E+03 -1.45777E+03  2.00426E+03 -2.12374E+03
  4.44530E+03  8.18813E+02  4.40941E+03  1.15780E+03  4.08091E+02  2.49178E+03 -7.42028E+02  2.70961E+03
 -3.00379E+03  9.44536E+02 -3.44137E+03 -3.88390E+02 -1.94112E+03 -2.58920E+03  4.24455E+02 -2.03816E+03
  3.30860E+03 -1.17170E+03  9.49796E+02 -5.22221E+02  9.94317E+02  2.17515E+03 -3.75011E+02  2.83460E+03
 -1.26240E+03  1.63676E+03 -9.08575E+02 -1.76288E+03 -1.47978E+03  1.28068E+03  3.17662E+01  4.40825E+02
 -9.45272E+02  1.93032E+03 -2.88936E+03  4.36670E+02 -3.32276E+03  1.14196E+02 -4.08119E+03 -1.82681E+03
 -2.82652E+03 -4.15932E+03  1.31594E+03 -4.72980E+03  3.40900E+03 -4.40277E+03  4.54966E+03 -1.23096E+03
  4.98860E+03  8.82677E+02  2.26657E+03  2.81872E+03  3.59931E+02  3.10367E+03 -1.20729E+03  2.01018E+03
 -2.13356E+03  9.20553E+02 -1.11792E+03  1.15678E+03 -6.89871E+02 -2.05267E+02  2.27376E+02  7.34662E+02
 -4.66665E+02 -1.20887E+03 -1.02151E+03 -5.20680E+02  1.35357E+03  5.29754E+02 -3.46710E+02 -9.97010E+02
  2.80694E+03 -2.06611E+03  2.24134E+03 -1.47016E+02  2.92181E+03  6.20883E+02  5.53302E+01  1.45177E+03
 -1.82190E+03  2.92030E+03 -3.57305E+03  3.74812E+03 -4.74785E+03  1.16573E+03 -2.87793E+03 -2.67453E+03
 -2.98726E+03 -2.71363E+03 -2.77420E+02 -2.61841E+03  1.41591E+03  8.24256E+02  2.08605E+03 -3.19223E+02
  5.70108E+02  4.85571E+02 -1.07720E+02  7.11899E+02 -7.02344E+02 -4.64394E+02 -1.21466E+02 -1.27051E+02
  3.16663E+02  6.40037E+02  6.75734E+02  9.15500E+02  1.19365E+03  8.87560E+02  1.43087E+02  1.30167E+03
  4.43504E+02  1.31456E+03 -2.29649E+03  7.70961E+02 -9.95428E+02 -1.61173E+03  1.78533E+02 -1.83404E+03
  1.47940E+03 -1.56487E+03  2.87597E+03  3.74070E+02  1.99549E+03  3.69208E+02  1.40857E+02  1.49664E+03
  6.32243E+02  2.11588E+03 -1.95889E+02  5.06316E+02  7.33470E+02  1.05327E+03 -2.06161E+03  6.04768E+02
 -9.76087E+02 -8.86481E+02 -1.90234E+03 -4.98002E+02 -9.16963E+02 -4.74350E+02 -1.80371E+03 -1.30821E+03
 -2.36980E+03 -1.47399E+03 -1.18481E+02 -1.81341E+03  2.38992E+03 -1.42947E+03  1.84218E+03 -2.53337E+02
  2.33276E+03  3.07963E+02 -2.86544E+02  3.84378E+02  7.46681E+02  1.45353E+03 -6.37120E+02  6.91286E+02
