 $NMID ID='MM_0lb_SNR200_13hz_g55_47.RAW', FMTDAT='(8E13.5)'
 TRAMP=1., VOLUME=1. $END
  3.08797E+05  1.93042E+02  3.37676E+05  2.50460E+05  8.44964E+04  3.38501E+05 -1.33672E+05  2.52874E+05
 -1.91051E+05  8.30845E+04 -1.13493E+05 -3.10671E+04 -1.15877E+03 -5.03647E+04  5.42439E+04  1.84426E+02
  3.62173E+04  5.24739E+04 -1.74639E+04  7.69363E+04 -6.16441E+04  6.44148E+04 -8.34248E+04  3.01803E+04
 -8.16691E+04 -1.26631E+04 -5.81845E+04 -5.08626E+04 -1.58747E+04 -7.01703E+04  2.65141E+04 -4.84127E+04
  3.90566E+04  3.32285E+03  1.62647E+04  4.88783E+04 -3.41989E+04  4.67705E+04 -6.74975E+04 -3.58120E+02
 -5.28765E+04 -5.63924E+04 -7.70107E+03 -7.72773E+04  3.28084E+04 -5.57566E+04  4.84071E+04 -1.81265E+04
  4.35479E+04  1.19954E+04  3.19155E+04  2.63025E+04  1.60986E+04  2.85039E+04 -4.92844E+03  2.76767E+04
 -2.22669E+04  1.25540E+04 -1.87013E+04 -5.52280E+03  6.58637E+03 -7.00145E+03  2.17973E+04  1.18458E+04
  7.14448E+03  3.54393E+04 -3.28311E+04  3.56591E+04 -6.48622E+04  3.22071E+03 -5.88007E+04 -4.50391E+04
 -1.25160E+04 -6.32983E+04  4.09091E+04 -4.53178E+04  5.87521E+04 -1.05614E+03  3.53255E+04  3.18185E+04
 -6.09332E+03  3.62119E+04 -3.01372E+04  1.61591E+04 -3.14223E+04 -4.44671E+03 -1.81330E+04 -1.17046E+04
 -7.95721E+03 -1.32735E+04  2.40062E+02 -1.91665E+04  8.30132E+03 -2.25003E+04  1.60877E+04 -1.36983E+04
  1.00671E+04  4.54573E+03 -9.54374E+03  1.31057E+04 -2.16530E+04 -5.89016E+03 -8.37293E+03 -3.49939E+04
  2.43155E+04 -4.50042E+04  4.90166E+04 -1.99739E+04  4.67069E+04  1.99994E+04  1.62785E+04  4.67004E+04
 -1.60797E+04  3.43021E+04 -2.57338E+04  1.73991E+03 -9.80408E+03 -2.82154E+04  2.01008E+04 -3.65573E+04
  4.24375E+04 -9.98241E+03  3.70363E+04  2.45817E+04  1.93779E+04  4.76124E+04 -8.54977E+03  5.20789E+04
 -3.28466E+04  3.48327E+04 -4.35067E+04  1.03279E+04 -4.53110E+04 -1.78073E+04 -2.37519E+04 -3.77342E+04
  7.04938E+03 -3.85188E+04  3.37398E+04 -1.39263E+04  2.92031E+04  1.16041E+04  3.29303E+03  1.90278E+04
 -1.24166E+04  7.79248E+03 -1.08121E+04 -6.83657E+03  6.76905E+03 -1.24195E+04  1.76417E+04  5.16163E+03
  1.35314E+04  2.09600E+04 -5.04206E+03  2.51090E+04 -2.33981E+04  1.18341E+04 -2.93236E+04 -4.88530E+03
 -2.34359E+04 -1.75157E+04 -9.48618E+03 -2.17868E+04  2.64462E+03 -2.10690E+04  1.60470E+04 -1.86383E+04
  2.70986E+04 -1.24469E+04  3.35468E+04  4.04405E+03  2.42954E+04  2.08652E+04  3.99038E+03  3.82226E+04
 -2.04662E+04  3.15657E+04 -2.70371E+04  1.12509E+04 -2.20295E+04 -1.04082E+04 -4.57138E+03 -1.45993E+04
  2.40522E+03 -2.07910E+03 -6.69243E+03  6.22457E+03 -1.74544E+04  4.53131E+03 -1.76707E+04 -7.83070E+03
 -1.01626E+04 -1.87318E+04  5.52840E+03 -2.54493E+04  1.73587E+04 -1.81101E+04  1.95637E+04 -2.08045E+03
  1.29167E+04  1.43156E+04 -1.60705E+03  1.95672E+04 -1.40533E+04  1.03525E+04 -2.05557E+04 -5.22641E+03
 -1.49268E+04 -1.78918E+04 -1.75680E+03 -2.40599E+04  1.11452E+04 -1.99034E+04  2.03973E+04 -9.96330E+03
  1.87514E+04 -1.41313E+03  1.34224E+04  4.07789E+03  8.70221E+03  7.96945E+02  1.12622E+04 -2.04396E+03
  1.79023E+04  2.85043E+03  2.07784E+04  1.64056E+04  1.44385E+04  3.31503E+04 -4.10354E+03  3.76906E+04
 -2.22134E+04  3.02066E+04 -3.60522E+04  1.67154E+04 -3.64258E+04 -3.12916E+03 -3.09794E+04 -2.17520E+04
 -1.23663E+04 -2.87747E+04  1.19500E+04 -2.60836E+04  2.41389E+04 -1.38628E+04  2.16734E+04  5.74317E+03
  8.09403E+03  1.69373E+04 -9.99321E+03  1.39707E+04 -1.68027E+04  3.35224E+03 -1.38216E+04 -1.08043E+04
  9.48624E+02 -1.61311E+04  9.19153E+03 -1.25150E+04  1.02818E+04 -1.41006E+03  2.67719E+03  7.06344E+03
 -6.01200E+03  3.47566E+03 -7.40487E+03 -6.36112E+03 -1.48312E+03 -1.39131E+04  1.05268E+04 -1.53772E+04
  1.89996E+04 -9.43519E+03  1.93175E+04  3.42407E+03  1.59016E+04  1.59725E+04  7.96195E+03  2.27013E+04
 -4.42249E+03  2.55837E+04 -1.65748E+04  1.49986E+04 -1.74493E+04  3.55421E+03 -1.21404E+04 -3.58307E+03
 -4.50038E+03 -5.00505E+03 -1.03525E+03  7.86334E+02 -3.77494E+03  3.81574E+03 -6.62752E+03  4.92062E+03
 -1.31075E+04 -1.67283E+03 -1.35077E+04 -1.05110E+04 -3.92548E+03 -1.63523E+04  4.63760E+03 -1.36587E+04
  1.04958E+04 -5.35370E+03  8.22751E+03  2.74011E+03 -1.41772E+03  5.57934E+03 -6.44416E+03 -1.57392E+02
 -6.66797E+03 -9.23244E+03 -1.40800E+03 -1.11184E+04  5.82058E+03 -1.24546E+04  1.51501E+04 -6.66802E+03
  1.88851E+04  2.50913E+03  1.50398E+04  1.19961E+04  2.52257E+03  1.35758E+04 -8.71812E+03  1.20275E+04
 -1.07931E+04  4.26995E+03 -5.02500E+03 -2.79028E+03  2.22223E+03 -2.31323E+03  7.44511E+03 -3.32449E+01
  6.73826E+03  6.01808E+03  1.19856E+03  1.00253E+04 -7.37029E+03  1.04428E+04 -1.13501E+04  1.99709E+03
 -8.46035E+03 -5.55021E+03 -2.56036E+02 -1.09901E+04  5.11593E+03 -5.49639E+03  7.35984E+03  1.88982E+03
  1.91441E+03  7.34032E+03 -5.23978E+03  8.14471E+03 -9.69913E+03  4.72544E+03 -9.64115E+03 -2.14119E+03
 -6.32858E+03 -1.15960E+04  3.61285E+03 -1.37514E+04  1.20887E+04 -8.28544E+03  1.16561E+04  2.43043E+03
  7.08509E+03  1.03192E+04 -1.36558E+03  1.20502E+04 -9.09089E+03  6.15956E+03 -9.88769E+03 -1.61851E+03
 -7.85166E+03 -8.57348E+03 -1.46628E+03 -7.59316E+03  4.56484E+03 -7.36810E+03  6.00055E+03 -2.71346E+03
  3.63567E+03  1.38023E+03 -1.19668E+03  2.09657E+03 -2.59540E+02 -2.05364E+03  6.11199E+02 -4.44574E+03
  7.86371E+03 -3.03735E+03  1.06812E+04  3.84707E+02  1.04990E+04  6.65220E+03  8.48895E+03  1.50437E+04
 -3.58726E+03  1.65809E+04 -1.39372E+04  1.21282E+04 -1.71734E+04  2.77171E+03 -1.40588E+04 -6.32321E+03
 -7.84010E+03 -1.11759E+04 -8.91462E+02 -1.08822E+04  4.53717E+03 -5.62866E+03  3.29874E+03 -4.24875E+03
  2.34180E+03 -1.78702E+03  2.66375E+03 -3.62818E+03  4.95836E+03 -2.19556E+03  5.41639E+03 -1.01498E+03
  8.08692E+03  6.86045E+02  4.21267E+03  6.30858E+03 -2.00679E+03  7.18274E+03 -8.57754E+03  5.30576E+03
 -9.53592E+03 -3.86253E+02 -5.38430E+03 -7.71677E+03 -1.24923E+02 -1.10085E+04  5.94561E+03 -1.12159E+04
  1.12741E+04 -6.85657E+03  1.19233E+04  1.65785E+03  8.64055E+03  9.43645E+03  1.26885E+03  1.18052E+04
 -3.91480E+03  8.96481E+03 -6.31772E+03  2.55055E+03 -4.65754E+03 -2.07682E+03 -2.70227E+03 -9.55164E+02
 -1.81408E+03  4.51863E+02 -2.21526E+03  3.02144E+03 -4.04593E+03  1.92114E+03 -6.78201E+03 -8.30418E+02
 -5.12680E+03 -7.36266E+03  4.71050E+01 -9.08935E+03  6.34271E+03 -8.23417E+03  9.51876E+03 -3.96805E+03
  1.02367E+04  4.80519E+03  5.42742E+03  7.06283E+03 -3.20494E+03  9.00145E+03 -6.32342E+03  5.44944E+03
 -8.74438E+03  1.96140E+01 -6.73463E+03 -5.71601E+03 -2.72408E+02 -7.52672E+03  3.89656E+03 -5.37592E+03
  5.32491E+03 -1.56633E+03  3.14540E+03  7.31220E+02  1.65099E+03  3.02428E+03  8.31973E+02  1.40390E+03
  2.29259E+03  1.03626E+02  2.29146E+03  1.17278E+03  4.93275E+03  2.82051E+03  4.30006E+03  5.08135E+03
 -2.22637E+03  8.11464E+03 -6.66375E+03  8.29905E+03 -9.34581E+03  3.29950E+03 -9.71685E+03 -3.51114E+03
 -4.08915E+03 -8.76629E+03  2.05982E+03 -1.02599E+04  6.54613E+03 -4.78985E+03  7.89402E+03 -1.50538E+03
  4.07595E+03  4.10313E+03  2.81740E+02  6.00179E+03 -2.58324E+03  3.67869E+03 -2.98455E+03 -1.54458E+03
 -1.03218E+03 -4.25415E+03  1.08992E+03 -3.70310E+03  3.03335E+03  1.21037E+01  4.51247E+03  1.37170E+03
  2.37770E+03  2.10980E+03  8.97554E+02 -1.52400E+02 -4.23328E+02  2.03177E+02  1.43099E+03  2.19293E+02
  1.61405E+03  7.06352E+02  3.94931E+03  1.59049E+03  6.37662E+02  4.81733E+03 -5.68496E+02  6.15980E+03
 -4.27026E+03  3.45413E+03 -4.64795E+03  6.85311E+02 -6.32074E+03 -2.58786E+03 -6.29224E+02 -4.19181E+03
 -1.33353E+02 -3.26259E+03  2.90111E+03 -1.95395E+03  1.37036E+03  2.82861E+03 -1.05289E+03  3.42092E+03
 -3.72744E+03  2.47161E+03 -3.75403E+03 -2.13486E+03 -3.13353E+03 -3.68539E+03  1.21102E+03 -4.30417E+03
  3.03653E+03 -1.39658E+03  2.58325E+03  7.92453E+02  3.59564E+03  7.01730E+01  1.55280E+03  1.81054E+03
 -3.71100E+02  1.13492E+03 -2.68842E+03  1.02998E+03 -7.91440E+02 -4.57274E+03  4.11365E+03 -2.48043E+03
  3.84278E+03 -3.01377E+02  5.96410E+03  3.11364E+03  1.87248E+03  4.76422E+03 -2.20275E+03  5.35180E+03
 -4.43748E+03  1.09976E+03 -4.49697E+03 -6.87456E+02 -2.21342E+03 -3.75187E+03 -3.98530E+02 -3.06858E+03
  4.85033E+03 -2.24096E+03  2.75042E+03  2.78713E+03 -6.08906E+01  4.18382E+03 -2.08038E+02  2.00956E+03
 -7.38758E+02  2.18026E+03 -2.37561E+03  8.69104E+02 -3.42656E+02  1.51315E+03 -2.02692E+03  2.22292E+03
 -2.63291E+03  3.19913E+03 -4.21616E+03  1.17945E+03 -5.65134E+03  1.20056E+03 -6.98404E+03 -4.21992E+03
 -3.50392E+03 -7.28618E+03  9.05723E+02 -9.01827E+03  3.89979E+03 -8.24380E+03  6.73547E+03 -2.25038E+03
  7.27887E+03  1.52317E+03  4.13919E+03  4.51242E+03  6.64605E+01  5.17898E+03 -3.03193E+03  4.29835E+03
 -2.83484E+03  1.69749E+03 -1.54406E+03 -7.77161E+02 -1.56327E+03 -3.38144E+02 -1.13979E+03  4.52860E+02
  1.40575E+02  5.53534E+02 -1.34133E+03 -8.90557E+02 -4.71176E+02 -2.32813E+03 -3.72638E+02 -2.62745E+03
  3.11547E+03 -1.67860E+03  3.01848E+03  3.00087E+02  3.92001E+03  3.36573E+03  1.40670E+03  5.60499E+03
 -2.46043E+03  6.54360E+03 -5.19844E+03  4.05106E+03 -6.75205E+03  1.07963E+03 -5.17747E+03 -4.63268E+03
 -3.28713E+03 -4.36731E+03  9.81615E+02 -4.12733E+03  4.13056E+03 -3.38225E+03  2.81573E+03 -2.24555E+02
  1.23591E+03  2.95565E+03 -1.02849E+03  2.07974E+03 -2.87370E+03  5.75186E+02  1.36565E+03 -1.14122E+03
  1.29401E+03 -6.76065E+02  1.38771E+03  4.54135E+01  8.88132E+02  1.87544E+03  9.46444E+02  1.52154E+03
 -1.18147E+03  2.19672E+03 -2.39299E+03  6.58195E+02 -2.20803E+03 -3.11237E+03 -6.65646E+02 -2.95179E+03
  2.44058E+03 -2.52126E+03  2.38155E+03 -1.26858E+03  3.94089E+03  4.41766E+02  1.41366E+03  3.04701E+03
  9.64045E+02  2.76098E+03 -4.54248E+02  2.05383E+03 -2.42396E+03  7.20213E+02 -1.05737E+03  7.92418E+02
  1.19506E+03  4.45334E+01 -1.19999E+03  1.13254E+03 -2.45688E+03  2.22424E+02 -3.14425E+03 -8.06342E+02
 -1.69541E+03 -1.31818E+03 -8.68295E+01 -3.90055E+03  1.70675E+03 -3.17402E+03  3.73792E+03 -2.78890E+03
  3.31708E+03 -7.04166E+02 -2.24300E+02  1.37346E+03 -9.62751E+02  2.98171E+03 -2.49874E+03  3.36787E+03
