 $NMID ID='MM_0lb_SNR200_16hz_g50_35.RAW', FMTDAT='(8E13.5)'
 TRAMP=1., VOLUME=1. $END
  3.10202E+05  6.00390E+02  3.38362E+05  2.49506E+05  8.56796E+04  3.37548E+05 -1.32089E+05  2.50303E+05
 -1.90232E+05  8.34393E+04 -1.11206E+05 -3.26217E+04  8.52944E+02 -5.06966E+04  5.52611E+04  1.71410E+02
  3.48718E+04  5.19417E+04 -1.57314E+04  7.54374E+04 -6.06904E+04  6.32007E+04 -8.51126E+04  3.20322E+04
 -7.99993E+04 -1.09397E+04 -5.68587E+04 -4.99644E+04 -1.40691E+04 -6.92916E+04  2.69253E+04 -4.50569E+04
  3.90599E+04  4.59418E+03  1.44565E+04  4.73579E+04 -3.46331E+04  4.69829E+04 -6.58588E+04 -4.56914E+02
 -5.20044E+04 -5.58258E+04 -6.14433E+03 -7.64727E+04  3.36108E+04 -5.49605E+04  4.83057E+04 -1.84121E+04
  4.30474E+04  1.05809E+04  3.22894E+04  2.55121E+04  1.58345E+04  2.89457E+04 -5.74885E+03  2.73495E+04
 -2.18173E+04  1.20290E+04 -1.84048E+04 -3.82374E+03  4.81899E+03 -6.46249E+03  2.21858E+04  1.19073E+04
  6.51429E+03  3.51290E+04 -3.15601E+04  3.46772E+04 -6.32383E+04  3.26896E+03 -5.69311E+04 -4.23950E+04
 -1.21268E+04 -6.30583E+04  3.83926E+04 -4.40197E+04  5.72490E+04 -2.83849E+03  3.41486E+04  3.27079E+04
 -5.70400E+03  3.52986E+04 -2.92421E+04  1.46065E+04 -2.91104E+04 -2.75288E+03 -1.54400E+04 -1.02598E+04
 -9.02156E+03 -1.24045E+04 -2.07363E+02 -1.75501E+04  6.94567E+03 -2.24816E+04  1.66544E+04 -1.29821E+04
  1.15418E+04  4.25043E+03 -7.63498E+03  1.21801E+04 -2.05765E+04 -3.63331E+03 -7.50700E+03 -3.21297E+04
  2.14454E+04 -4.33335E+04  4.74143E+04 -1.98944E+04  4.40123E+04  1.87221E+04  1.49743E+04  4.34207E+04
 -1.60623E+04  3.17750E+04 -2.50430E+04  1.13949E+03 -9.23228E+03 -2.73216E+04  1.96066E+04 -3.33934E+04
  4.09638E+04 -8.26118E+03  3.40897E+04  2.48417E+04  1.78563E+04  4.57719E+04 -7.96096E+03  4.89101E+04
 -3.09845E+04  3.26043E+04 -4.07145E+04  7.99334E+03 -4.11514E+04 -1.71316E+04 -2.21736E+04 -3.51911E+04
  5.96839E+03 -3.63577E+04  3.09054E+04 -1.36176E+04  2.83640E+04  1.06530E+04  3.15276E+03  1.84252E+04
 -1.33437E+04  7.38930E+03 -9.71534E+03 -8.34352E+03  6.26253E+03 -9.90539E+03  1.73853E+04  6.26560E+03
  1.42976E+04  2.08281E+04 -4.94523E+03  2.41124E+04 -2.20647E+04  1.06070E+04 -2.71624E+04 -5.13692E+03
 -1.94822E+04 -1.65165E+04 -7.76118E+03 -1.96220E+04  3.80164E+03 -1.78723E+04  1.42241E+04 -1.62056E+04
  2.46834E+04 -1.24669E+04  3.08789E+04  2.81473E+03  2.22498E+04  1.75918E+04  3.45519E+03  3.44658E+04
 -1.71340E+04  2.93210E+04 -2.66144E+04  1.05733E+04 -2.08433E+04 -9.99715E+03 -4.22105E+03 -1.37950E+04
  1.89036E+03 -4.12351E+03 -2.23793E+03  6.32300E+03 -1.50917E+04  5.07584E+03 -1.56792E+04 -7.24226E+03
 -9.49018E+03 -1.70905E+04  5.66150E+03 -2.04567E+04  1.32791E+04 -1.43594E+04  1.71442E+04 -1.12586E+03
  1.09720E+04  1.14063E+04 -1.31332E+03  1.82995E+04 -1.12686E+04  9.42766E+03 -1.80963E+04 -3.02410E+03
 -1.29556E+04 -1.60442E+04 -2.23847E+03 -2.17742E+04  1.06027E+04 -1.66788E+04  1.85553E+04 -8.62757E+03
  1.68263E+04  4.22508E+02  1.30772E+04  3.63770E+03  5.64990E+03  6.42873E+02  1.00438E+04 -8.51366E+02
  1.57327E+04  1.89487E+03  1.60675E+04  1.51016E+04  1.16082E+04  2.81117E+04 -2.92580E+03  3.11795E+04
 -1.88344E+04  2.39464E+04 -2.84902E+04  1.24599E+04 -3.02014E+04 -2.62009E+03 -2.41138E+04 -1.58203E+04
 -1.12866E+04 -2.41495E+04  8.88185E+03 -2.22149E+04  1.85640E+04 -1.33598E+04  1.81173E+04  4.31080E+03
  6.42765E+03  1.27980E+04 -7.20352E+03  1.12418E+04 -1.45698E+04  1.58493E+03 -1.30730E+04 -9.40365E+03
  5.04613E+02 -1.29524E+04  6.01390E+03 -1.12517E+04  9.67607E+03 -1.32948E+03  1.91402E+03  6.62238E+03
 -5.93102E+03  2.94261E+03 -4.57334E+03 -5.44996E+03 -1.70482E+02 -1.24196E+04  8.51183E+03 -1.39969E+04
  1.51511E+04 -6.03275E+03  1.61325E+04  3.45273E+03  1.20294E+04  1.13245E+04  5.70222E+03  1.73164E+04
 -3.17002E+03  1.87625E+04 -1.19657E+04  1.16993E+04 -1.31899E+04  3.27627E+03 -1.02269E+04 -3.55945E+03
 -5.00083E+03 -4.03946E+03 -1.42074E+03 -2.71549E+02 -1.77332E+03  1.98267E+03 -4.49733E+03  3.64339E+03
 -8.95776E+03 -1.26415E+02 -8.66261E+03 -7.42508E+03 -4.46252E+03 -1.46282E+04  4.42733E+03 -8.90546E+03
  9.23828E+03 -4.10307E+03  6.00336E+03  2.53274E+03  7.83871E+02  3.98600E+03 -3.69955E+03  5.00662E+02
 -4.26173E+03 -6.88176E+03  1.30338E+02 -9.46448E+03  5.88195E+03 -9.30298E+03  1.14027E+04 -5.32878E+03
  1.47540E+04  4.91355E+02  1.15688E+04  7.54993E+03  2.04539E+03  1.12223E+04 -6.35952E+03  1.03694E+04
 -9.21309E+03  3.66875E+03 -4.80843E+03 -2.18455E+03  1.80712E+03 -2.38338E+03  5.89749E+03 -1.75288E+02
  3.76407E+03  4.69064E+03  3.61074E+02  7.83842E+03 -5.93835E+03  5.95240E+03 -1.06244E+04  2.01989E+03
 -5.82555E+03 -4.58341E+03  1.19381E+03 -9.53165E+03  4.93002E+03 -4.95504E+03  5.92798E+03  2.11583E+03
 -7.90244E+02  5.41630E+03 -5.38855E+03  6.10922E+03 -6.43355E+03  2.04730E+03 -6.85268E+03 -1.26313E+03
 -3.92471E+03 -8.39312E+03  1.40274E+03 -9.72409E+03  7.72201E+03 -5.99655E+03  8.87516E+03  2.34829E+03
  5.07337E+03  7.44083E+03  2.47704E+02  8.79105E+03 -6.31673E+03  4.72910E+03 -6.98532E+03 -1.89008E+02
 -6.49447E+03 -5.64992E+03 -2.42591E+03 -6.69875E+03  3.17275E+03 -6.25583E+03  5.15248E+03 -3.35604E+03
  2.79363E+03  6.02068E+02  4.74450E+02  1.98442E+03  2.96088E+02 -1.12146E+03 -2.88027E+02 -2.97975E+03
  5.08067E+03 -9.71381E+02  7.35624E+03  1.65242E+03  7.18585E+03  5.25358E+03  7.12469E+03  1.03314E+04
 -3.36967E+03  1.16863E+04 -9.31959E+03  8.91071E+03 -1.18158E+04  1.55332E+03 -9.81125E+03 -4.14384E+03
 -4.29245E+03 -8.83227E+03 -5.15151E+02 -7.74782E+03  2.96088E+03 -3.33643E+03  2.35918E+03 -2.84028E+03
  1.16605E+03 -1.83642E+03  2.43669E+03 -2.78895E+03  4.54579E+03 -1.64498E+03  4.56445E+03 -3.03482E+02
  4.98706E+03  1.55105E+03  1.31160E+03  3.35533E+03 -2.56696E+03  4.76977E+03 -5.60808E+03  2.93993E+03
 -5.79115E+03 -1.63969E+03 -3.32705E+03 -5.50525E+03 -1.43695E+02 -6.28033E+03  3.43100E+03 -6.97652E+03
  7.30431E+03 -4.44944E+03  9.94571E+03  1.18406E+03  7.03173E+03  4.81241E+03  1.71792E+03  7.70324E+03
 -2.97119E+03  7.63153E+03 -4.25484E+03  3.67882E+03 -2.74622E+03 -1.33493E+03 -2.69117E+02 -1.04401E+03
 -6.13374E+02 -8.66477E+01 -8.64192E+02  2.39569E+03 -2.22548E+03  2.03334E+03 -5.93877E+03 -4.62759E+02
 -3.59403E+03 -5.33285E+03  1.32841E+03 -6.36188E+03  3.18440E+03 -6.10472E+03  6.25268E+03 -1.44250E+03
  5.13488E+03  3.47025E+03  2.03071E+03  4.82656E+03 -1.29917E+03  5.56268E+03 -4.17875E+03  4.15778E+03
 -6.56167E+03  7.67103E+02 -3.85461E+03 -3.71584E+03 -1.71918E+02 -4.68733E+03  2.27409E+03 -3.39005E+03
  3.81188E+03 -8.10386E+02  2.48617E+03  1.14954E+02  1.47964E+01  2.13087E+03 -9.08602E+02 -1.06564E+02
  2.85753E+03  2.05838E+03  9.72279E+02  2.03751E+03  2.19096E+03  2.39828E+03  1.68948E+03  3.29635E+03
 -1.80029E+03  4.53249E+03 -5.06321E+03  5.22923E+03 -3.40000E+03  5.62426E+02 -6.06149E+03 -7.19879E+02
 -2.52661E+03 -6.91592E+03 -5.93642E+02 -6.05315E+03  3.16716E+03 -4.06022E+03  4.94794E+03 -7.73978E+02
  3.52087E+03  1.83094E+03  6.48991E+02  2.76399E+03 -1.14926E+03  2.52900E+03 -1.70119E+03  3.96396E+02
 -1.27988E+03 -2.68380E+03  2.14453E+03 -1.33015E+03 -7.59407E+01 -8.86163E+02  2.50935E+03  2.67760E+02
  1.32076E+03  1.48699E+03  3.21132E+02 -4.88454E+01  3.24829E+02  1.45870E+03  1.52516E+03  3.07821E+02
  4.28799E+02  1.16817E+01  2.51104E+03  1.13138E+03  1.15149E+03  3.50110E+03  3.43916E+02  4.22215E+03
 -2.54650E+03  1.86314E+03 -3.42947E+03  3.61759E+02 -2.95104E+03 -1.68579E+03  2.20188E+02 -1.44898E+02
  7.52639E+02 -1.29210E+03  1.97733E+03 -8.31426E+02  2.73346E+02  1.36482E+03 -3.45197E+02  6.47021E+02
 -1.78494E+03  7.95816E+02 -2.09458E+03 -1.90389E+03 -2.43321E+03 -3.12784E+03 -1.83422E+02 -1.97650E+03
  1.07364E+03 -4.58720E+02  5.13870E+02  4.18102E+02  2.48103E+03 -9.60282E+02  1.45833E+03  1.74671E+03
 -4.49425E+02  8.25661E+02 -1.94345E+03 -1.23309E+03  1.74712E+03 -2.36533E+03  2.90777E+03 -1.52634E+03
  2.55549E+03 -1.52510E+02  4.17615E+03  1.05394E+03  1.89336E+03  2.97875E+03 -4.95083E+02  3.16846E+03
 -2.17729E+03  2.96907E+02 -1.80076E+03 -5.80327E+02 -1.75084E+03 -1.91261E+03  9.11715E+02 -1.25373E+03
  2.68458E+03 -1.59499E+02  1.48051E+03  1.62562E+03 -1.93320E+01  2.23072E+03  7.51222E+02  1.39411E+03
 -1.20858E+03  2.35745E+03 -9.11076E+02 -7.10387E+01 -2.98214E+02  6.17254E+02 -1.52063E+03  1.55285E+03
 -7.65768E+02  1.47190E+03 -1.59608E+03  4.21823E+02 -2.96653E+03  5.02113E+02 -3.55081E+03 -1.48169E+03
 -1.63727E+03 -5.35014E+03  1.08731E+03 -4.01105E+03  2.73513E+03 -3.81444E+03  4.36950E+03 -1.97501E+03
  4.05251E+03  6.32990E+02  1.32703E+03  1.21460E+03 -3.62182E+02  4.33409E+03 -1.61272E+03  1.26901E+03
 -1.91945E+03  6.48681E+02  4.41464E+01 -4.21091E+02 -1.09710E+03 -1.83605E+02 -7.20511E+02  7.17034E+02
 -6.42871E+02  6.15995E+02 -9.22508E+02 -3.92674E+02 -1.17135E+03 -1.28633E+03  7.80067E+00 -8.34616E+02
  1.83788E+03 -5.44356E+02  1.04688E+03 -5.04588E+02  1.72258E+03  6.93415E+02  3.43298E+02  2.05610E+03
 -2.03013E+03  4.78051E+03 -3.70629E+03  2.31164E+03 -2.23133E+03 -1.56473E+03 -2.84882E+03 -3.34148E+02
 -1.56138E+03 -1.78014E+03  9.04717E+02 -1.88761E+03  9.36346E+02 -2.50302E+03  1.56456E+03 -1.89085E+01
  9.76330E+02  9.37527E+02  6.60767E+02 -2.35531E+02 -4.46399E+02 -1.26674E+03  1.94114E+02 -9.58206E+02
  1.30481E+03  3.41100E+02  2.24944E+03  5.02048E+02 -1.24099E+03  6.22546E+02  7.01364E+02  1.62256E+03
 -1.39696E+03  1.62753E+03 -7.83276E+02 -3.30133E+02 -1.46408E+03 -1.38916E+03 -1.11319E+02 -1.60580E+03
  1.86177E+02 -4.29441E+02  7.89141E+02 -1.03561E+03  1.44582E+03  1.88383E+02  1.95797E+03  1.11302E+03
 -8.85959E+02  2.52084E+03 -6.80049E+02  1.54493E+03 -2.99134E+02  5.06063E+02  1.70183E+02  7.44448E+02
 -1.11078E+03  1.88283E+02 -4.32254E+02  6.37901E+02 -2.78371E+03  9.25905E+02 -1.35918E+03 -5.14482E+02
 -2.69215E+03 -1.12373E+03 -2.22808E+02 -2.33009E+03  1.01145E+03 -2.71874E+03  1.97659E+03 -2.48035E+03
  1.49327E+03  7.81890E+02  1.37131E+03  1.20697E+03  7.90927E+02  1.36377E+03 -1.01771E+03  1.84033E+03
