 $NMID ID='MM_0lb_SNR200_14hz_g40_95.RAW', FMTDAT='(8E13.5)'
 TRAMP=1., VOLUME=1. $END
  3.09816E+05  1.79148E+03  3.37032E+05  2.50461E+05  8.39209E+04  3.36986E+05 -1.33157E+05  2.50445E+05
 -1.90849E+05  8.22495E+04 -1.11296E+05 -3.39029E+04  7.12127E+02 -4.96016E+04  5.38305E+04  8.80655E+02
  3.35567E+04  5.23085E+04 -1.64123E+04  7.47478E+04 -5.96627E+04  6.26909E+04 -8.30697E+04  3.17162E+04
 -8.12787E+04 -1.10172E+04 -5.66907E+04 -5.00628E+04 -1.48879E+04 -6.97331E+04  2.66375E+04 -4.68233E+04
  3.85250E+04  4.19749E+03  1.62814E+04  4.81330E+04 -3.37500E+04  4.74135E+04 -6.57589E+04 -8.01384E+02
 -5.21753E+04 -5.73345E+04 -6.18811E+03 -7.54708E+04  3.27823E+04 -5.54092E+04  4.72875E+04 -1.73681E+04
  4.24081E+04  1.12920E+04  3.02885E+04  2.51196E+04  1.51870E+04  2.87983E+04 -4.51603E+03  2.71530E+04
 -2.10336E+04  1.28258E+04 -1.96407E+04 -3.88890E+03  5.12651E+03 -6.97954E+03  2.29402E+04  1.30349E+04
  6.44929E+03  3.44250E+04 -3.01965E+04  3.45079E+04 -6.28841E+04  2.15871E+03 -5.56155E+04 -4.37718E+04
 -1.25629E+04 -6.24265E+04  3.90282E+04 -4.60480E+04  5.64117E+04 -2.01711E+03  3.52256E+04  3.29024E+04
 -6.62423E+03  3.51526E+04 -3.04670E+04  1.56805E+04 -2.96583E+04 -4.17884E+03 -1.50900E+04 -9.69416E+03
 -8.29441E+03 -1.18507E+04 -1.60329E+03 -1.75031E+04  7.86089E+03 -2.30593E+04  1.59427E+04 -1.44043E+04
  1.22013E+04  4.85999E+03 -6.36956E+03  1.26803E+04 -2.11774E+04 -3.62303E+03 -7.84173E+03 -3.18245E+04
  2.11187E+04 -4.23461E+04  4.72378E+04 -1.99159E+04  4.40813E+04  1.87471E+04  1.39440E+04  4.36132E+04
 -1.60528E+04  3.28823E+04 -2.42352E+04  1.61314E+03 -9.83412E+03 -2.67592E+04  1.99797E+04 -3.30326E+04
  4.03210E+04 -8.83073E+03  3.48515E+04  2.38123E+04  1.75106E+04  4.57153E+04 -8.12170E+03  4.93394E+04
 -3.14625E+04  3.38613E+04 -4.22769E+04  8.98466E+03 -4.09586E+04 -1.57414E+04 -2.22745E+04 -3.70781E+04
  6.74284E+03 -3.72504E+04  3.07558E+04 -1.50841E+04  2.89864E+04  1.04938E+04  3.17799E+03  2.03705E+04
 -1.33788E+04  8.19300E+03 -1.14608E+04 -8.95785E+03  4.86300E+03 -1.02872E+04  1.73356E+04  5.05431E+03
  1.24387E+04  2.27209E+04 -6.04467E+03  2.42681E+04 -2.29006E+04  1.08361E+04 -2.69545E+04 -6.04718E+03
 -1.83430E+04 -1.66373E+04 -7.40057E+03 -1.91011E+04  4.56103E+03 -1.71423E+04  1.29095E+04 -1.73306E+04
  2.46239E+04 -1.21464E+04  3.23409E+04  1.70822E+03  2.46118E+04  1.86352E+04  5.50495E+03  3.63675E+04
 -1.66214E+04  2.93245E+04 -2.81657E+04  9.22318E+03 -2.02784E+04 -1.02406E+04 -4.52309E+03 -1.36442E+04
  1.26067E+03 -2.65062E+03 -3.57690E+03  7.14056E+03 -1.58285E+04  5.36580E+03 -1.56077E+04 -7.05555E+03
 -9.74574E+03 -1.75461E+04  5.06220E+03 -2.17441E+04  1.57058E+04 -1.55263E+04  1.84700E+04 -6.37733E+02
  9.78973E+03  1.19017E+04 -2.38499E+02  1.87043E+04 -1.13633E+04  1.09246E+04 -1.72847E+04 -4.40511E+03
 -1.40910E+04 -1.56881E+04 -1.27417E+03 -2.26980E+04  1.04190E+04 -1.73333E+04  1.81816E+04 -9.00188E+03
  1.71377E+04  4.57457E+02  1.26136E+04  3.95627E+03  6.12547E+03  1.01897E+03  7.85803E+03 -2.37463E+03
  1.70365E+04  3.12074E+03  1.70943E+04  1.43065E+04  1.25296E+04  2.94437E+04 -3.24622E+03  3.21882E+04
 -1.92995E+04  2.51661E+04 -3.00694E+04  1.27518E+04 -3.29913E+04 -2.26233E+03 -2.56453E+04 -1.71845E+04
 -1.12970E+04 -2.86255E+04  9.64019E+03 -2.35377E+04  1.99368E+04 -1.26134E+04  1.79042E+04  4.93879E+03
  8.26509E+03  1.40691E+04 -8.51814E+03  1.17997E+04 -1.47389E+04  2.27524E+03 -1.17555E+04 -9.84609E+03
  3.94798E+02 -1.37230E+04  7.56406E+03 -1.15509E+04  8.48303E+03 -1.08227E+03  2.13111E+03  6.11214E+03
 -6.33589E+03  3.37330E+03 -5.19005E+03 -5.10898E+03 -1.25568E+03 -1.35286E+04  8.54262E+03 -1.27811E+04
  1.57593E+04 -7.53053E+03  1.72277E+04  2.47975E+03  1.50528E+04  1.14473E+04  8.06746E+03  1.83339E+04
 -2.90832E+03  1.96571E+04 -1.32753E+04  1.34659E+04 -1.62124E+04  3.19142E+03 -1.03541E+04 -2.93886E+03
 -5.70449E+03 -4.68329E+03  3.07691E+02  1.43167E+03 -2.59126E+03  2.41635E+03 -4.73982E+03  3.80353E+03
 -9.96274E+03  6.18964E+02 -1.05841E+04 -9.32683E+03 -3.75484E+03 -1.38376E+04  5.59462E+03 -1.11287E+04
  9.20395E+03 -5.28250E+03  7.04424E+03  2.46916E+03  6.49724E+02  3.80912E+03 -5.39429E+03 -1.31126E+03
 -4.42261E+03 -6.99010E+03 -2.06318E+03 -1.05151E+04  6.59353E+03 -1.12353E+04  1.30319E+04 -5.59846E+03
  1.56358E+04  3.40086E+02  1.21261E+04  9.44414E+03  1.70415E+03  1.19918E+04 -6.34307E+03  1.08907E+04
 -8.36685E+03  3.50173E+03 -4.35380E+03 -2.11334E+03  1.50253E+03 -2.30720E+03  6.12409E+03 -1.61415E+03
  5.19025E+03  4.74152E+03  7.72500E+02  9.45551E+03 -5.50516E+03  8.50783E+03 -9.44005E+03  1.49745E+03
 -7.40252E+03 -5.28050E+03  1.14533E+03 -8.04462E+03  4.92627E+03 -4.88125E+03  4.36929E+03  2.68911E+03
  1.20600E+03  5.44589E+03 -5.32075E+03  6.02707E+03 -7.85812E+03  3.19162E+03 -6.78876E+03 -1.73511E+03
 -3.74796E+03 -8.92161E+03  2.28037E+03 -1.03523E+04  8.95767E+03 -6.97118E+03  1.06654E+04  7.71377E+02
  6.27204E+03  6.78567E+03 -9.71022E+02  1.03309E+04 -6.40477E+03  5.90019E+03 -8.52613E+03 -1.04460E+03
 -7.36874E+03 -6.78447E+03 -2.60260E+02 -8.64498E+03  3.43672E+03 -5.72186E+03  3.36565E+03 -3.17327E+03
  4.02290E+03  6.92018E+02  1.16804E+02  2.46292E+03  1.09861E+03 -1.89686E+03  1.09047E+03 -3.85809E+03
  5.69667E+03 -1.14802E+03  8.92904E+03  3.59361E+02  8.25290E+03  5.38857E+03  7.89597E+03  1.08347E+04
 -2.66303E+03  1.38312E+04 -1.14455E+04  9.03225E+03 -1.52254E+04  7.73595E+00 -1.06843E+04 -5.38673E+03
 -5.67407E+03 -1.01713E+04 -1.64942E+01 -8.28562E+03  3.52069E+03 -4.98918E+03  1.55577E+03 -2.79034E+03
  2.04964E+03 -2.40913E+03  3.04492E+03 -3.80240E+03  5.18401E+03 -1.38052E+03  6.48611E+03  6.88489E+02
  7.08279E+03  2.10698E+03  2.94032E+03  5.49086E+03 -2.15585E+03  4.92837E+03 -6.56312E+03  4.55811E+03
 -8.59539E+03 -2.22765E+03 -4.16627E+03 -5.63250E+03  3.51969E+02 -8.84829E+03  6.15855E+03 -9.74300E+03
  9.33337E+03 -5.03666E+03  9.98030E+03  1.72429E+02  8.45986E+03  7.03403E+03  9.30641E+02  1.00362E+04
 -4.05509E+03  8.82432E+03 -4.98980E+03  3.42585E+03 -4.98369E+03 -9.72039E+01 -1.47342E+03 -1.66581E+03
 -2.18238E+03  6.20866E+02 -2.15581E+03  1.42814E+03 -3.82983E+03  1.72681E+03 -5.91475E+03 -1.71232E+03
 -3.13790E+03 -5.05275E+03  3.19479E+02 -8.45989E+03  5.15465E+03 -7.95655E+03  6.10967E+03 -2.11967E+03
  7.73770E+03  4.28277E+03  4.01460E+03  6.00976E+03 -2.44892E+03  7.88831E+03 -3.83057E+03  3.62560E+03
 -6.72522E+03  2.10704E+03 -6.63011E+03 -4.24916E+03 -7.74329E+02 -5.89438E+03  3.35257E+03 -4.20952E+03
  5.86237E+03 -9.01024E+02  3.49220E+03  2.47582E+03  2.29117E+03  2.11559E+03  5.10027E+02  2.57722E+03
  2.27330E+03  2.13781E+03  1.89462E+03  3.90251E+02  2.28308E+03  3.89238E+03  1.85342E+03  3.76630E+03
 -1.90107E+03  6.14000E+03 -5.60877E+03  7.18982E+03 -7.28648E+03  2.02398E+03 -6.74977E+03 -2.59507E+03
 -3.48526E+03 -6.56399E+03  8.21801E+02 -7.81517E+03  4.22959E+03 -4.71680E+03  6.71009E+03 -5.40494E+02
  5.57411E+03  3.10973E+03  6.00536E+02  4.23300E+03 -7.30231E+02  2.04763E+03 -2.45537E+03  1.28207E+02
 -1.69339E+03 -3.64693E+03  3.12496E+03 -1.80041E+03  2.61677E+03 -1.19003E+03  3.77317E+03  1.79096E+03
  5.96916E+02  1.66663E+03  1.21563E+03  1.41675E+03 -2.22234E+02  8.90476E+02  2.49419E+03  4.10511E+02
  8.81007E+02 -1.55021E+02  3.57016E+03  4.02383E+02  2.55461E+03  3.44659E+03 -7.66557E+02  5.59986E+03
 -2.97912E+03  2.47539E+03 -4.48904E+03  1.31953E+03 -4.57279E+03 -1.87730E+03 -2.09853E+03 -2.29911E+03
  5.11903E+02 -2.45513E+03  1.72610E+03 -2.43578E+03  1.81534E+03  1.52852E+03 -1.56471E+02  3.17138E+03
 -2.35702E+03  1.00050E+03 -3.64071E+03 -2.26999E+03 -5.18424E+02 -3.41173E+03  8.02293E+01 -3.64138E+03
  1.97191E+03 -2.03242E+03  2.92310E+03  3.19343E+02  1.23759E+03  4.05271E+01  1.34905E+03  2.51156E+03
 -2.22456E+03  4.86968E+02 -1.09640E+03 -8.46905E+02  2.28733E+02 -3.11086E+03  2.05902E+03 -1.61573E+03
  3.27758E+03  6.06266E+02  4.82887E+03  3.47426E+03  2.33239E+03  4.57416E+03 -4.36797E+02  5.63052E+03
 -2.12384E+03  1.27664E+03 -3.31644E+03 -1.03938E+03 -1.39386E+03 -3.02696E+03  6.06379E+01 -2.29158E+03
  3.00298E+03 -7.13212E+02  1.03713E+03  3.83800E+02  1.13644E+03  1.85571E+03 -5.70096E+02  1.25110E+03
 -6.90673E+02  2.21195E+02 -1.17338E+03  8.68555E+02  5.98767E+02 -1.10182E+02 -1.85464E+03  1.35719E+03
 -2.46295E+02  2.95568E+03 -3.03040E+03  2.70180E+03 -3.39116E+03  3.67887E+02 -5.87757E+03 -2.09053E+03
 -1.86666E+03 -5.27076E+03  1.15383E+03 -6.18453E+03  2.92986E+03 -6.04480E+03  5.13526E+03 -1.33462E+03
  5.33078E+03  5.57194E+02  2.30296E+03  4.14254E+03  1.18986E+02  3.58829E+03 -2.34905E+03  2.80712E+03
 -2.08312E+03  1.31047E+03 -8.40711E+02 -9.78079E+02 -5.16316E+01 -4.86201E+02 -1.71915E+02 -7.19825E+02
 -7.10814E+02  2.11558E+02 -1.10726E+03 -3.38922E+02  5.10483E+02 -1.59479E+03  4.92352E+01 -1.68618E+03
  1.05237E+03 -8.69134E+02  1.87377E+03 -7.39746E+02  2.32401E+03  2.29678E+03  4.99392E+02  3.36002E+03
 -2.76932E+03  5.05436E+03 -4.50767E+03  2.62474E+03 -5.31634E+03  7.39749E+01 -4.00666E+03 -2.66963E+03
 -1.71967E+03 -3.66642E+03  8.62579E+02 -3.71256E+03  1.96815E+03 -1.60015E+03  2.74374E+03  3.05061E+02
  2.12946E+03  2.05299E+03  3.86555E+02  4.75332E+02 -7.64238E+02 -8.05162E+02  6.39544E+02  6.14582E+02
  5.57610E+02 -7.07315E+02  1.24642E+03  2.14395E+02  2.73669E+02  6.83864E+02  7.55359E+02  2.21063E+03
 -1.89100E+03  6.30084E+02 -3.02160E+03 -1.68375E+02 -1.95889E+03 -1.54457E+03  1.06544E+03 -3.27946E+03
  1.97899E+03 -2.11910E+03  2.64762E+03 -1.57671E+03  3.46765E+03 -9.97181E+02  2.08997E+03  2.16511E+03
  8.60315E+02  1.19218E+03 -1.07345E+03  1.54340E+03 -1.68241E+03  6.66962E+02 -5.00632E+02 -6.33824E+02
 -1.13563E+03 -1.52117E+03 -1.14933E+03 -7.23580E+02 -1.11675E+03 -9.58770E+01 -1.93391E+03 -1.60688E+02
 -2.93023E+03 -4.02111E+02 -4.06560E+02 -1.80808E+03  1.10775E+03 -3.58564E+03  7.84811E+02 -1.30487E+03
  2.25314E+03 -1.18630E+03  1.10735E+03  1.40807E+03 -1.07616E+02  2.35003E+03 -1.95195E+03  1.92465E+03
