 $NMID ID='MM_0lb_SNR200_8hz_g50_83.RAW', FMTDAT='(8E13.5)'
 TRAMP=1., VOLUME=1. $END
  3.09450E+05  7.00316E+02  3.39222E+05  2.48757E+05  8.61422E+04  3.39668E+05 -1.32501E+05  2.53431E+05
 -1.91013E+05  8.38463E+04 -1.13495E+05 -3.22506E+04 -5.63463E+02 -5.03870E+04  5.46443E+04 -4.87156E+02
  3.69282E+04  5.35133E+04 -1.70832E+04  7.66069E+04 -6.14608E+04  6.45714E+04 -8.53215E+04  3.27668E+04
 -8.25352E+04 -1.29593E+04 -5.83776E+04 -5.30769E+04 -1.51928E+04 -7.27984E+04  2.71845E+04 -4.63139E+04
  4.28141E+04  3.48937E+03  1.79100E+04  4.84167E+04 -3.43945E+04  4.94822E+04 -6.66809E+04 -1.04235E+03
 -5.61136E+04 -5.74253E+04 -8.16181E+03 -7.98058E+04  3.41859E+04 -5.70257E+04  5.04797E+04 -1.83906E+04
  4.64235E+04  1.40121E+04  3.41676E+04  2.78165E+04  1.55558E+04  3.06070E+04 -4.27144E+03  2.87334E+04
 -2.18023E+04  1.17990E+04 -1.73389E+04 -5.23743E+03  8.45532E+03 -7.94102E+03  2.25187E+04  1.44804E+04
  5.45644E+03  3.84287E+04 -3.30803E+04  3.70725E+04 -6.54450E+04  1.12582E+03 -5.84019E+04 -4.29335E+04
 -1.31274E+04 -6.39961E+04  4.21977E+04 -4.80178E+04  6.14891E+04 -2.33269E+03  3.67431E+04  3.53322E+04
 -5.85923E+03  4.04651E+04 -3.34189E+04  2.01223E+04 -3.28159E+04 -4.25717E+03 -1.88771E+04 -1.08994E+04
 -1.06044E+04 -1.53658E+04  3.71060E+02 -1.91897E+04  1.00699E+04 -2.37872E+04  1.76355E+04 -1.44361E+04
  8.82294E+03  5.53591E+03 -1.02510E+04  1.20846E+04 -2.44597E+04 -7.21089E+03 -8.01587E+03 -3.84461E+04
  2.58768E+04 -4.59849E+04  5.35762E+04 -2.15883E+04  5.01478E+04  1.96750E+04  1.97415E+04  4.77109E+04
 -1.75038E+04  3.83511E+04 -2.68692E+04  3.38584E+03 -1.19606E+04 -2.98784E+04  2.16438E+04 -3.69946E+04
  4.52307E+04 -9.51463E+03  4.18498E+04  2.48949E+04  2.23281E+04  5.29791E+04 -8.56916E+03  5.69247E+04
 -3.59320E+04  3.89408E+04 -4.78245E+04  1.10735E+04 -4.84354E+04 -1.85481E+04 -2.83817E+04 -4.31796E+04
  6.94979E+03 -4.23149E+04  3.50444E+04 -1.67887E+04  3.21693E+04  1.15979E+04  7.00555E+03  2.03413E+04
 -1.24466E+04  1.22857E+04 -1.24634E+04 -8.84438E+03  5.79117E+03 -1.01395E+04  1.88434E+04  4.49833E+03
  1.54145E+04  2.32000E+04 -5.52709E+03  2.65103E+04 -2.27530E+04  1.51404E+04 -3.14437E+04 -3.29063E+03
 -2.62405E+04 -1.81819E+04 -1.22141E+04 -2.64857E+04  5.35973E+03 -2.58236E+04  2.03910E+04 -2.25848E+04
  3.25660E+04 -1.51412E+04  3.90113E+04  5.55047E+03  2.75001E+04  2.51241E+04  3.21312E+03  3.99255E+04
 -2.05653E+04  3.42437E+04 -3.23034E+04  1.09412E+04 -2.30953E+04 -1.07648E+04 -5.45651E+03 -1.26356E+04
  1.47597E+03 -5.23505E+02 -7.75195E+03  9.86737E+03 -2.13386E+04  5.93172E+03 -1.87795E+04 -1.01944E+04
 -1.16445E+04 -2.48932E+04  5.99160E+03 -2.97102E+04  1.87212E+04 -1.97924E+04  2.36100E+04 -1.53599E+03
  1.68610E+04  1.63858E+04 -9.88782E+02  2.48128E+04 -1.68428E+04  1.47251E+04 -2.40167E+04 -3.89098E+03
 -1.77908E+04 -2.27939E+04 -1.49713E+03 -3.08085E+04  1.39195E+04 -2.57439E+04  2.33158E+04 -1.24519E+04
  2.34798E+04 -1.69673E+03  1.63917E+04  5.65749E+03  1.11851E+04  2.27334E+03  1.30779E+04 -2.44582E+03
  2.37772E+04  2.86052E+03  2.87585E+04  1.94340E+04  1.95442E+04  3.91035E+04 -1.64320E+03  4.63721E+04
 -2.56996E+04  3.88085E+04 -4.40278E+04  1.95604E+04 -4.57778E+04 -3.36010E+03 -3.60027E+04 -2.73286E+04
 -1.44707E+04 -3.93061E+04  1.32004E+04 -3.37760E+04  2.84024E+04 -1.46449E+04  2.47949E+04  8.15354E+03
  8.52359E+03  1.88314E+04 -1.28997E+04  1.50070E+04 -1.97148E+04  2.64519E+03 -1.60244E+04 -1.16168E+04
 -1.12204E+03 -1.78066E+04  9.56509E+03 -1.47797E+04  1.53883E+04 -5.42214E+02  3.98362E+03  9.11372E+03
 -1.02447E+04  5.56357E+03 -9.93538E+03 -7.26654E+03 -3.68430E+03 -1.87031E+04  1.32991E+04 -2.04405E+04
  2.52077E+04 -1.23372E+04  2.76343E+04  3.14611E+03  2.45177E+04  1.83657E+04  1.27870E+04  3.21827E+04
 -6.90761E+03  3.38960E+04 -1.93666E+04  1.99907E+04 -2.38240E+04  3.53233E+03 -1.86575E+04 -6.88555E+03
 -6.82137E+03 -6.30062E+03 -5.88533E+02  2.42779E+03 -4.69557E+03  3.38184E+03 -7.56232E+03  6.38853E+03
 -1.31818E+04  9.91383E+01 -1.54317E+04 -1.37972E+04 -6.29092E+03 -1.99998E+04  6.61832E+03 -1.72212E+04
  1.41912E+04 -6.29550E+03  9.52030E+03  3.74819E+03 -1.65040E+03  6.85395E+03 -8.00089E+03 -9.06565E+02
 -8.30521E+03 -1.09798E+04 -2.28477E+03 -1.68424E+04  9.78640E+03 -1.81170E+04  2.16574E+04 -8.90959E+03
  2.55247E+04  3.32316E+03  1.85702E+04  1.48623E+04  3.37413E+03  2.12571E+04 -1.01816E+04  1.70411E+04
 -1.26085E+04  6.16758E+03 -7.48122E+03 -3.66964E+03  1.82197E+03 -4.63327E+03  9.18297E+03 -1.29753E+03
  7.61026E+03  8.78858E+03  1.86846E+03  1.46167E+04 -1.01682E+04  1.26490E+04 -1.72929E+04  4.11851E+03
 -1.29328E+04 -8.23299E+03 -3.06829E+02 -1.34730E+04  8.46090E+03 -7.23570E+03  9.61418E+03  4.31728E+03
  2.63882E+03  1.15496E+04 -8.95573E+03  1.16750E+04 -1.52523E+04  5.72899E+03 -1.74108E+04 -5.20537E+03
 -1.04343E+04 -1.56477E+04  4.36514E+03 -2.15389E+04  1.74252E+04 -1.08309E+04  1.95546E+04  1.67877E+03
  1.08083E+04  1.33272E+04 -2.13909E+03  1.64498E+04 -1.25111E+04  9.93888E+03 -1.30664E+04 -2.30145E+03
 -1.15130E+04 -1.10054E+04 -1.89491E+03 -1.32414E+04  6.52026E+03 -1.16515E+04  8.75651E+03 -4.96407E+03
  4.96951E+03  3.12341E+03 -1.52068E+03  2.08417E+03 -5.55289E+02 -2.74078E+03  2.51996E+03 -7.86753E+03
  1.38933E+04 -6.29756E+03  1.92653E+04  3.93754E+03  1.86216E+04  1.21564E+04  9.62972E+03  2.25733E+04
 -5.07172E+03  2.63094E+04 -2.02542E+04  1.91176E+04 -2.94055E+04  2.92632E+03 -2.19919E+04 -1.14247E+04
 -1.15172E+04 -1.91136E+04 -3.43862E+02 -1.52444E+04  5.80364E+03 -8.61858E+03  4.92142E+03 -5.39244E+03
  3.64684E+03 -3.85544E+03  3.22708E+03 -5.30667E+03  6.74442E+03 -3.22838E+03  9.17517E+03 -8.95657E+02
  1.21476E+04  2.43979E+03  6.82814E+03  1.00166E+04 -2.44262E+03  1.44878E+04 -1.32279E+04  1.02787E+04
 -1.83735E+04 -3.07987E+03 -9.91036E+03 -1.17018E+04 -2.36146E+03 -1.78940E+04  9.86380E+03 -1.77141E+04
  1.86858E+04 -8.51474E+03  2.30205E+04  4.17902E+03  1.51073E+04  1.51536E+04  3.12563E+03  2.15249E+04
 -1.02719E+04  1.55578E+04 -1.25258E+04  5.81004E+03 -7.84132E+03 -1.71287E+03 -3.72022E+03 -1.86874E+03
  4.40083E+02 -1.58538E+02 -3.35950E+03  2.55256E+03 -9.18443E+03  2.50432E+03 -1.10403E+04  6.03735E+02
 -7.43587E+03 -1.12469E+04  7.13755E+02 -1.73130E+04  9.26322E+03 -1.59842E+04  1.75150E+04 -6.60363E+03
  1.58762E+04  8.15979E+03  8.21479E+03  1.37416E+04 -2.21910E+03  1.79691E+04 -1.36893E+04  8.98447E+03
 -1.52156E+04  4.37437E+02 -1.16022E+04 -9.66260E+03  9.22321E+02 -1.37646E+04  5.15608E+03 -1.01570E+04
  9.54907E+03 -3.52503E+03  7.18736E+03  1.98264E+03  3.95360E+03  5.20891E+03 -2.11600E+02  3.02943E+03
  2.14047E+03 -1.10237E+02  3.38299E+03  4.79442E+03  5.66601E+03  4.25712E+03  3.86131E+03  1.04897E+04
 -3.75851E+03  1.21182E+04 -1.29005E+04  1.33500E+04 -1.93533E+04  3.37952E+03 -1.75023E+04 -7.76737E+03
 -8.20010E+03 -1.91745E+04  3.21326E+03 -1.71987E+04  9.98609E+03 -1.30977E+04  1.34861E+04 -4.37135E+03
  1.01337E+04  7.88708E+03  1.47194E+03  9.32533E+03 -6.89277E+03  7.44811E+03 -7.12135E+03 -1.25832E+03
 -2.55654E+03 -7.58817E+03  4.36316E+03 -7.54171E+03  8.37390E+03 -5.48731E+03  8.14437E+03  1.18294E+03
  4.45388E+03  4.30269E+03  2.35952E+03  4.27735E+03 -2.39555E+03  1.47937E+03  1.29787E+03 -7.37535E+02
  3.27160E+03 -1.84202E+03  7.35781E+03  3.66198E+03  4.13662E+03  7.75892E+03 -4.85557E+02  1.22147E+04
 -7.62967E+03  9.09376E+03 -1.14247E+04  2.31434E+03 -1.00405E+04 -3.85510E+03 -2.97957E+03 -8.27040E+03
  2.59642E+03 -5.54743E+03  5.14133E+03 -3.51111E+03  3.57306E+03  3.34161E+03 -1.76003E+03  4.72213E+03
 -6.87650E+03  3.78826E+03 -8.79800E+03 -4.34109E+03 -4.87099E+03 -9.39468E+03  1.17466E+03 -1.01482E+04
  4.66537E+03 -5.28676E+03  6.53808E+03 -2.16918E+02  5.59324E+03  3.68869E+03  3.46308E+02  2.73745E+03
 -3.41757E+03  2.44937E+03 -5.75844E+03 -3.69204E+03  1.79341E+03 -8.06042E+03  8.57862E+03 -7.37081E+03
  1.15367E+04  3.35883E+02  1.03716E+04  8.79358E+03  4.63345E+03  1.25747E+04 -4.47558E+03  1.23379E+04
 -1.19074E+04  7.18223E+03 -8.23439E+03 -1.56170E+03 -6.55669E+03 -8.29094E+03  1.65706E+02 -5.81755E+03
  7.67971E+03 -3.62200E+03  7.14448E+03  3.28016E+03  1.46108E+03  6.72452E+03 -8.62569E+02  3.72199E+03
 -3.64172E+03  4.19865E+03 -2.11843E+03 -9.56558E+01 -1.69836E+03 -4.02370E+02 -2.67085E+03  3.54249E+03
 -3.40342E+03  7.01896E+03 -8.31176E+03  3.99874E+03 -1.25843E+04 -5.85972E+02 -1.26980E+04 -7.96307E+03
 -6.99474E+03 -1.58156E+04  4.38074E+03 -1.73833E+04  1.18631E+04 -1.26345E+04  1.76972E+04 -5.52025E+03
  1.65443E+04  2.57362E+03  1.05076E+04  1.05566E+04  1.20756E+03  1.31415E+04 -2.98915E+03  1.00898E+04
 -5.84072E+03  3.17100E+03 -4.90507E+03 -1.83334E+03 -3.05491E+03 -3.17857E+02 -5.74395E+02  7.61598E+02
 -1.82694E+03  4.84062E+02 -2.63410E+03 -8.19853E+02 -2.82402E+02 -3.51229E+03  1.65880E+03 -4.05016E+03
  6.02565E+03 -4.65547E+03  6.82688E+03 -1.33372E+03  9.61576E+03  5.97341E+03  2.68896E+03  1.50952E+04
 -5.08398E+03  1.34826E+04 -1.19018E+04  6.71430E+03 -1.59908E+04 -9.48372E+01 -1.01847E+04 -8.09274E+03
 -4.57602E+03 -1.27032E+04  3.14476E+03 -1.15059E+04  8.90052E+03 -7.86504E+03  8.21289E+03  3.62778E+02
  4.36645E+03  3.58515E+03  6.82439E+02  3.14753E+03 -2.81881E+03 -1.97224E+03  1.61907E+03 -3.44706E+03
  3.87898E+03 -2.92581E+03  5.81781E+03  1.42570E+03  2.46064E+03  5.36409E+03 -6.96915E+02  6.21604E+03
 -5.91538E+03  5.37018E+03 -9.11567E+03  1.96080E+03 -9.15183E+03 -5.30884E+03  2.70068E+02 -8.19082E+03
  5.28463E+03 -8.67287E+03  8.91701E+03 -4.56146E+03  8.70224E+03  2.45021E+03  5.67756E+03  6.57680E+03
  1.09078E+03  8.35940E+03 -2.33679E+03  7.57244E+03 -5.39023E+03  3.67435E+03 -2.31178E+03 -4.33949E+02
 -1.60087E+03 -1.05518E+03 -2.81274E+03  2.13904E+03 -5.66351E+03  1.15374E+03 -7.00266E+03 -1.74948E+01
 -5.33071E+03 -2.42088E+03 -1.92516E+03 -1.05100E+04  3.54037E+03 -9.46972E+03  7.81742E+03 -4.42733E+03
  8.74879E+03  9.59776E+02  6.56049E+03  5.39622E+03 -1.73719E+03  8.46776E+03 -6.67081E+03  5.72141E+03
