 $NMID ID='MM_0lb_SNR200_12hz_g50_100.RAW', FMTDAT='(8E13.5)'
 TRAMP=1., VOLUME=1. $END
  3.09883E+05  7.99629E+02  3.37760E+05  2.51209E+05  8.52091E+04  3.36853E+05 -1.32815E+05  2.50740E+05
 -1.91372E+05  8.27138E+04 -1.12556E+05 -3.10253E+04  6.50844E+02 -5.00574E+04  5.37862E+04 -6.29964E+02
  3.49064E+04  5.24357E+04 -1.69000E+04  7.63908E+04 -6.26815E+04  6.34717E+04 -8.41952E+04  3.28373E+04
 -8.18211E+04 -1.16682E+04 -5.78296E+04 -5.28479E+04 -1.52759E+04 -6.90793E+04  2.70912E+04 -4.63227E+04
  4.10830E+04  4.57863E+03  1.72042E+04  4.75180E+04 -3.38214E+04  4.71653E+04 -6.66449E+04 -8.46564E+02
 -5.40108E+04 -5.59871E+04 -8.60172E+03 -7.79626E+04  3.41614E+04 -5.43670E+04  4.86965E+04 -1.73960E+04
  4.41359E+04  1.04081E+04  3.23743E+04  2.50834E+04  1.65980E+04  2.92550E+04 -6.72772E+03  2.61952E+04
 -2.29339E+04  1.28535E+04 -1.79930E+04 -4.33248E+03  5.02374E+03 -9.01630E+03  2.17584E+04  1.18281E+04
  6.90172E+03  3.61479E+04 -3.30797E+04  3.61128E+04 -6.37864E+04  1.43711E+03 -5.83289E+04 -4.28844E+04
 -1.41926E+04 -6.39021E+04  4.05585E+04 -4.60747E+04  5.94558E+04 -2.59369E+03  3.58685E+04  3.24217E+04
 -5.69951E+03  3.68601E+04 -2.97094E+04  1.67421E+04 -3.14154E+04 -5.31850E+03 -1.76535E+04 -1.14851E+04
 -8.70659E+03 -1.21635E+04 -1.50326E+03 -1.77196E+04  7.62985E+03 -2.42623E+04  1.54068E+04 -1.41886E+04
  1.12535E+04  4.47912E+03 -9.67267E+03  1.28153E+04 -2.09436E+04 -5.22661E+03 -8.51303E+03 -3.41291E+04
  2.59536E+04 -4.48553E+04  5.08665E+04 -2.00515E+04  4.69316E+04  2.13770E+04  1.65162E+04  4.47918E+04
 -1.46478E+04  3.54067E+04 -2.66093E+04  2.91004E+03 -1.23001E+04 -2.92245E+04  2.17040E+04 -3.47863E+04
  4.23768E+04 -9.17560E+03  3.76578E+04  2.41730E+04  1.91059E+04  4.78369E+04 -8.23720E+03  5.26067E+04
 -3.33140E+04  3.55658E+04 -4.33359E+04  1.02153E+04 -4.45591E+04 -1.78328E+04 -2.61028E+04 -4.07019E+04
  7.38865E+03 -3.99326E+04  3.41019E+04 -1.60621E+04  3.02112E+04  9.81630E+03  4.41822E+03  2.00642E+04
 -1.32217E+04  9.15340E+03 -1.15908E+04 -7.57381E+03  6.27090E+03 -1.08814E+04  1.83691E+04  5.65075E+03
  1.40459E+04  2.32735E+04 -5.72247E+03  2.72879E+04 -2.16129E+04  1.33024E+04 -3.00070E+04 -5.17376E+03
 -2.14273E+04 -1.71290E+04 -9.46668E+03 -2.13141E+04  4.08847E+03 -2.18864E+04  1.85060E+04 -2.06065E+04
  2.88502E+04 -1.38000E+04  3.53278E+04  3.96887E+03  2.49249E+04  2.09173E+04  4.01849E+03  3.77486E+04
 -1.86130E+04  3.26407E+04 -2.94395E+04  1.06373E+04 -2.06135E+04 -1.05246E+04 -3.32238E+03 -1.35165E+04
  1.60981E+03 -1.53025E+03 -6.70354E+03  6.54271E+03 -1.74987E+04  3.92502E+03 -1.76728E+04 -6.79788E+03
 -1.18888E+04 -2.04065E+04  5.73528E+03 -2.48415E+04  1.62541E+04 -1.82450E+04  1.79178E+04 -1.88453E+03
  1.23218E+04  1.56103E+04 -8.85719E+02  2.05880E+04 -1.39035E+04  1.11819E+04 -2.14313E+04 -4.92846E+03
 -1.51793E+04 -1.79789E+04 -1.88543E+03 -2.42161E+04  1.19910E+04 -2.00784E+04  2.17009E+04 -1.12445E+04
  1.76034E+04  8.30375E+02  1.24744E+04  4.82221E+03  6.96900E+03  1.06655E+03  1.22897E+04 -2.40198E+03
  1.85308E+04  2.73620E+03  2.11373E+04  1.69625E+04  1.37768E+04  3.33115E+04 -2.18061E+03  3.88785E+04
 -2.04191E+04  3.01307E+04 -3.62815E+04  1.62121E+04 -3.70801E+04 -2.70636E+03 -3.18817E+04 -2.15170E+04
 -1.21083E+04 -3.05824E+04  1.05294E+04 -2.87850E+04  2.39717E+04 -1.44480E+04  2.27057E+04  5.06128E+03
  6.95065E+03  1.61475E+04 -9.32319E+03  1.35462E+04 -1.79428E+04  2.50991E+03 -1.31666E+04 -1.16334E+04
 -1.66098E+03 -1.53257E+04  7.79285E+03 -1.15662E+04  1.14069E+04 -1.18766E+03  3.46934E+03  7.72308E+03
 -8.44037E+03  3.07048E+03 -7.59592E+03 -6.59518E+03 -5.93583E+02 -1.46821E+04  1.14290E+04 -1.70165E+04
  1.91485E+04 -8.83509E+03  2.08959E+04  3.50215E+03  1.79437E+04  1.51024E+04  8.00094E+03  2.41334E+04
 -4.04083E+03  2.49302E+04 -1.54637E+04  1.62652E+04 -1.89831E+04  3.13398E+03 -1.22508E+04 -3.83586E+03
 -5.23876E+03 -6.71956E+03 -7.71644E+02  1.62857E+03 -2.38560E+03  3.75041E+03 -5.39072E+03  4.64372E+03
 -1.20867E+04 -7.34994E+02 -1.23075E+04 -1.12234E+04 -4.66362E+03 -1.63569E+04  5.04369E+03 -1.28818E+04
  1.15260E+04 -5.55077E+03  6.73791E+03  2.98753E+03 -3.45795E+02  4.84921E+03 -6.89344E+03 -1.08005E+03
 -6.29099E+03 -7.59913E+03 -3.14355E+02 -1.22438E+04  7.94533E+03 -1.26015E+04  1.60740E+04 -6.04885E+03
  1.87506E+04  2.79271E+03  1.37634E+04  1.14261E+04  2.42891E+03  1.51635E+04 -8.54223E+03  1.29033E+04
 -9.88816E+03  4.33594E+03 -4.78099E+03 -1.32559E+03  2.60871E+03 -3.38569E+03  6.41467E+03 -2.56463E+03
  6.67972E+03  5.93608E+03  1.20602E+03  1.03913E+04 -8.02986E+03  1.03482E+04 -1.21111E+04  2.41777E+03
 -7.77559E+03 -6.16082E+03  1.03241E+03 -1.02853E+04  6.74131E+03 -4.27812E+03  7.33063E+03  2.16422E+03
  1.79262E+03  6.58330E+03 -7.46529E+03  9.79029E+03 -8.96646E+03  3.56043E+03 -1.05899E+04 -2.67198E+03
 -5.60033E+03 -1.11814E+04  2.29882E+03 -1.31003E+04  1.11323E+04 -8.96291E+03  1.31246E+04  2.13290E+03
  7.34300E+03  1.04136E+04 -2.28444E+03  1.24780E+04 -9.42632E+03  7.38604E+03 -8.85592E+03  9.48931E+01
 -8.32364E+03 -8.22938E+03 -8.43946E+02 -9.38338E+03  6.04687E+03 -8.76847E+03  5.87179E+03 -1.07640E+03
  3.76264E+03  1.16338E+03 -1.10189E+02  2.24190E+03  5.71656E+02 -3.34272E+03  2.25037E+03 -5.46041E+03
  8.71210E+03 -2.92676E+03  1.17986E+04  6.54221E+02  1.16759E+04  7.02394E+03  6.95439E+03  1.50462E+04
 -4.83097E+03  1.78363E+04 -1.52163E+04  1.34843E+04 -1.81442E+04  2.87384E+03 -1.47645E+04 -6.48432E+03
 -7.62495E+03 -1.30150E+04 -1.50781E+03 -1.08725E+04  3.68999E+03 -7.55928E+03  3.24430E+03 -3.78959E+03
  2.37516E+03 -3.97856E+03  4.25352E+03 -3.07741E+03  4.16102E+03 -7.42838E+02  7.23250E+03 -2.08918E+02
  8.78852E+03  3.70763E+03  3.07959E+03  7.04541E+03 -2.38248E+03  9.15102E+03 -8.00558E+03  6.57574E+03
 -9.67105E+03  1.55890E+02 -5.47464E+03 -7.06954E+03 -1.35541E+03 -1.21995E+04  6.94506E+03 -1.24216E+04
  1.15250E+04 -5.84731E+03  1.42328E+04  2.20483E+03  8.07462E+03  9.13211E+03  2.37223E+03  1.38190E+04
 -4.75084E+03  1.10812E+04 -7.93610E+03  4.33484E+03 -4.26532E+03 -1.32716E+03 -1.55757E+03 -1.21437E+03
 -1.14795E+03  5.21649E+02 -1.52492E+03  3.64390E+03 -4.40554E+03  1.29498E+03 -6.90151E+03 -2.56121E+03
 -4.81825E+03 -7.01700E+03  1.12872E+03 -1.03328E+04  6.88907E+03 -9.69686E+03  1.05378E+04 -2.52990E+03
  1.20699E+04  5.32764E+03  3.89409E+03  8.74162E+03 -1.92062E+03  1.04570E+04 -7.06452E+03  6.42734E+03
 -9.30223E+03 -1.38201E+01 -7.21415E+03 -5.74220E+03  9.74335E+01 -8.56102E+03  3.88710E+03 -6.44769E+03
  5.16820E+03 -1.71285E+03  3.11802E+03  2.07699E+03  2.37270E+03  4.33568E+03  1.24131E+03  2.16701E+03
  1.61075E+03  2.08379E+03  3.19067E+03  1.42075E+03  3.09107E+03  3.92052E+03  1.64347E+03  6.00151E+03
 -1.77519E+03  7.41070E+03 -7.44207E+03  8.34458E+03 -1.09674E+04  8.85929E+02 -1.15483E+04 -3.96506E+03
 -5.09503E+03 -9.37201E+03  1.83965E+03 -1.10128E+04  6.07462E+03 -6.92626E+03  7.89985E+03 -3.08080E+02
  4.84265E+03  2.52853E+03  1.71819E+03  7.22447E+03 -1.97153E+03  3.96510E+03 -3.36214E+03 -1.63045E+02
 -1.83365E+03 -5.01566E+03  3.52516E+03 -4.35418E+03  3.91614E+03 -2.26501E+03  3.75064E+03 -7.39800E+02
  1.61637E+03  2.20173E+03  1.50261E+03  2.59607E+03  4.16538E+01 -6.18145E+02  1.09064E+03 -1.20102E+03
  1.99776E+03 -1.27905E+03  3.98637E+03  2.01314E+03  1.81030E+03  6.52706E+03  1.01954E+02  7.72597E+03
 -3.64665E+03  5.26588E+03 -5.53722E+03  7.32362E+02 -4.68812E+03 -3.95152E+03 -2.02547E+03 -3.95962E+03
  1.39173E+03 -3.32767E+03  2.99907E+03 -9.17841E+02  1.48123E+03  2.01767E+03 -1.22843E+03  3.38230E+03
 -4.08772E+03  1.00374E+03 -4.13684E+03 -3.06792E+03 -1.11168E+03 -6.43448E+03  1.90277E+03 -5.92803E+03
  2.17117E+03 -3.12279E+03  2.24902E+03 -8.30119E+02  2.25314E+03  1.68329E+03  1.58789E+03  1.94043E+03
 -1.60136E+03  7.71553E+02 -2.27967E+03 -5.14752E+02  4.19393E+02 -5.84182E+03  5.33695E+03 -2.52188E+03
  6.53014E+03  5.30003E+02  6.10533E+03  3.97658E+03  2.73455E+03  6.18326E+03 -1.79374E+03  5.73779E+03
 -4.28254E+03  2.60798E+03 -4.87826E+03 -6.44284E+02 -2.68937E+03 -4.84375E+03  1.84256E+02 -4.33716E+03
  3.88423E+03 -2.49698E+03  3.39693E+03  1.20589E+03  9.61004E+02  2.79154E+03  1.25295E+03  1.93463E+03
 -4.02979E+02  1.69577E+03 -1.34815E+03  1.67914E+03 -4.94359E+02  8.42748E+02 -9.48464E+02  1.75657E+03
 -1.41918E+03  3.65603E+03 -3.82040E+03  1.77082E+03 -4.87569E+03  1.87015E+03 -7.49765E+03 -2.75301E+03
 -1.71527E+03 -9.06338E+03  2.10571E+03 -9.44556E+03  5.79330E+03 -7.47199E+03  9.61651E+03 -3.42480E+03
  8.02600E+03  2.23353E+03  4.53486E+03  5.49440E+03  6.03268E+02  6.62104E+03 -1.49681E+03  3.31356E+03
 -4.13966E+03  2.35623E+03 -1.98500E+03 -1.51554E+03  3.26649E+02 -1.13034E+02 -1.78636E+03 -9.77537E+02
 -1.95303E+03 -1.82386E+03 -1.67411E+03 -1.15192E+03  6.78064E+02 -1.76934E+03  8.59780E+02 -1.94799E+03
  2.81468E+03 -1.53625E+03  4.97338E+03  7.83962E+02  2.67068E+03  2.51606E+03  8.01482E+02  5.71408E+03
 -2.43421E+03  7.13660E+03 -6.02518E+03  4.99513E+03 -7.67883E+03 -1.14756E+03 -6.23883E+03 -5.48915E+03
 -2.92084E+03 -6.34604E+03  2.81861E+01 -4.48647E+03  3.86748E+03 -3.65999E+03  4.00795E+03 -4.81065E+02
  1.20174E+03  1.27912E+03  9.77985E+02  1.37054E+03 -9.26952E+02 -6.25901E+02 -3.94603E+02 -1.53346E+03
  1.81010E+03 -1.19134E+03  2.10263E+03 -8.00655E+02  2.06258E+03  1.25115E+03 -2.17804E+02  3.45883E+03
 -3.10834E+03  2.56825E+03 -3.78029E+03 -3.19982E+02 -1.83273E+03 -2.35015E+03  3.38309E+02 -5.55080E+03
  3.52547E+03 -3.60856E+03  3.53864E+03 -1.50214E+03  3.79542E+03 -4.75242E+02  2.90240E+03  2.28122E+03
  1.31038E+03  3.65400E+03 -2.05243E+03  3.33161E+03 -3.08310E+03  1.71896E+03 -8.49264E+02  5.69412E+02
 -1.90145E+03 -3.09684E+02 -1.02573E+03  5.44036E+02 -2.81484E+03  7.39044E+02 -3.33820E+03 -1.09166E+03
 -1.73174E+03 -8.89848E+02 -1.40283E+03 -4.37628E+03  1.73312E+03 -3.58317E+03  2.65378E+03 -1.87316E+03
  4.73479E+03  1.42112E+03  1.95613E+03  3.39931E+03 -3.85869E+02  3.90173E+03 -3.36476E+03  2.34612E+03
