 $NMID ID='MM_0lb_SNR200_11hz_g45_38.RAW', FMTDAT='(8E13.5)'
 TRAMP=1., VOLUME=1. $END
  3.09687E+05  1.20076E+02  3.38614E+05  2.50545E+05  8.43468E+04  3.39290E+05 -1.32670E+05  2.51015E+05
 -1.90250E+05  8.41535E+04 -1.13125E+05 -3.12701E+04  6.54215E+02 -5.08251E+04  5.28206E+04 -4.51154E+02
  3.61734E+04  5.40427E+04 -1.56361E+04  7.37172E+04 -6.21182E+04  6.41324E+04 -8.45539E+04  3.07723E+04
 -8.21421E+04 -1.00055E+04 -5.89684E+04 -5.11748E+04 -1.51914E+04 -7.00108E+04  2.77553E+04 -4.48747E+04
  4.02441E+04  2.90295E+03  1.71734E+04  4.77485E+04 -3.37948E+04  4.81818E+04 -6.81689E+04 -1.97456E+02
 -5.23697E+04 -5.77224E+04 -5.71046E+03 -7.86596E+04  3.37311E+04 -5.66432E+04  4.88081E+04 -1.90499E+04
  4.38112E+04  1.14026E+04  3.03843E+04  2.72557E+04  1.51483E+04  3.04269E+04 -5.46437E+03  2.80659E+04
 -2.19425E+04  1.20468E+04 -1.79609E+04 -4.29333E+03  4.93993E+03 -5.64480E+03  2.19829E+04  1.33028E+04
  6.90668E+03  3.67738E+04 -3.40302E+04  3.50520E+04 -6.35435E+04  2.19394E+03 -5.88389E+04 -4.33036E+04
 -1.23656E+04 -6.49742E+04  4.02084E+04 -4.52058E+04  5.89620E+04 -2.46537E+03  3.61197E+04  3.26210E+04
 -5.08479E+03  3.75020E+04 -2.93836E+04  1.85092E+04 -3.26031E+04 -4.25698E+03 -1.75884E+04 -1.11304E+04
 -1.01410E+04 -1.39082E+04  3.05496E+02 -1.94092E+04  8.93361E+03 -2.40465E+04  1.61302E+04 -1.39403E+04
  1.14074E+04  5.76720E+03 -9.19834E+03  1.35858E+04 -2.30102E+04 -5.95866E+03 -8.94482E+03 -3.69336E+04
  2.36083E+04 -4.52994E+04  4.98253E+04 -2.11260E+04  4.59763E+04  2.03623E+04  1.87093E+04  4.63343E+04
 -1.65336E+04  3.33121E+04 -2.57733E+04  9.57660E+02 -1.05651E+04 -2.92187E+04  2.10404E+04 -3.66791E+04
  4.35711E+04 -9.72079E+03  3.76733E+04  2.31396E+04  1.91802E+04  4.83414E+04 -8.52733E+03  5.22843E+04
 -3.24409E+04  3.54743E+04 -4.44703E+04  1.07695E+04 -4.48163E+04 -1.93726E+04 -2.39878E+04 -3.96260E+04
  8.13802E+03 -3.95730E+04  3.32710E+04 -1.53062E+04  3.14795E+04  9.81637E+03  4.73956E+03  1.92456E+04
 -1.42722E+04  8.34876E+03 -1.11334E+04 -6.62303E+03  5.54910E+03 -1.07191E+04  1.74477E+04  5.75636E+03
  1.45810E+04  2.28736E+04 -6.54086E+03  2.60947E+04 -2.44561E+04  1.45434E+04 -3.01435E+04 -3.78887E+03
 -2.35152E+04 -1.69122E+04 -9.35451E+03 -2.40617E+04  3.76476E+03 -2.29895E+04  1.66489E+04 -2.01820E+04
  2.85038E+04 -1.35043E+04  3.45429E+04  3.72615E+03  2.54446E+04  2.20782E+04  3.67820E+03  3.78704E+04
 -1.81242E+04  3.24859E+04 -3.02305E+04  1.17888E+04 -2.07171E+04 -1.00372E+04 -6.49158E+03 -1.33302E+04
  6.67471E+02 -2.24203E+03 -7.40369E+03  6.36384E+03 -1.84320E+04  6.28373E+03 -1.82221E+04 -7.63174E+03
 -1.04220E+04 -2.09539E+04  5.80527E+03 -2.52391E+04  1.81806E+04 -1.84120E+04  2.03775E+04 -1.74169E+03
  1.24579E+04  1.40713E+04 -1.83390E+03  2.13480E+04 -1.48463E+04  1.23582E+04 -2.12634E+04 -4.49123E+03
 -1.51061E+04 -1.93966E+04 -2.22396E+03 -2.54324E+04  1.15591E+04 -2.13680E+04  2.08694E+04 -1.12029E+04
  2.15399E+04 -4.75713E+02  1.39881E+04  4.71424E+03  6.97775E+03  2.56541E+03  1.10387E+04 -2.48020E+03
  2.05572E+04  2.38574E+03  2.12362E+04  1.72902E+04  1.46248E+04  3.34022E+04 -3.61999E+03  3.87009E+04
 -2.39312E+04  3.33986E+04 -3.71257E+04  1.70083E+04 -3.84824E+04 -3.27756E+03 -3.25455E+04 -2.19510E+04
 -1.15965E+04 -3.24075E+04  1.08882E+04 -2.82417E+04  2.53503E+04 -1.37001E+04  2.03172E+04  6.81456E+03
  8.03603E+03  1.67788E+04 -1.10498E+04  1.26994E+04 -1.87573E+04  2.95794E+03 -1.33780E+04 -1.18707E+04
 -1.51853E+01 -1.68895E+04  9.37691E+03 -1.30041E+04  1.11571E+04 -1.30745E+03  1.18338E+03  7.02715E+03
 -8.40314E+03  3.47536E+03 -8.15366E+03 -6.05384E+03 -1.31730E+03 -1.61263E+04  1.20360E+04 -1.73471E+04
  1.88393E+04 -8.79663E+03  2.19885E+04  2.04352E+03  1.88319E+04  1.78671E+04  1.02767E+04  2.46693E+04
 -4.37142E+03  2.69813E+04 -1.77610E+04  1.67478E+04 -1.99474E+04  1.84234E+03 -1.36372E+04 -5.14636E+03
 -5.92869E+03 -6.79741E+03 -1.25564E+03  7.79017E+02 -2.93566E+03  2.91354E+03 -7.19455E+03  5.65199E+03
 -1.23493E+04 -5.40932E+02 -1.42034E+04 -1.13593E+04 -2.42192E+03 -1.70400E+04  5.19051E+03 -1.42853E+04
  1.06572E+04 -6.63987E+03  8.00029E+03  3.90430E+03  2.85313E+02  6.28048E+03 -6.55593E+03 -8.56448E+02
 -5.33278E+03 -8.45322E+03 -1.16818E+03 -1.31119E+04  7.57367E+03 -1.37314E+04  1.58255E+04 -6.35577E+03
  2.03468E+04  2.76853E+03  1.40651E+04  1.29321E+04  1.63871E+03  1.66685E+04 -7.43033E+03  1.18927E+04
 -9.84910E+03  3.15151E+03 -7.08224E+03 -3.24671E+03  1.59298E+03 -3.17073E+03  7.55030E+03 -1.19118E+03
  8.18109E+03  4.95839E+03  2.09961E+03  1.08723E+04 -8.08279E+03  1.02949E+04 -1.33623E+04  1.79370E+03
 -1.00479E+04 -7.91060E+03 -2.35291E+02 -1.10543E+04  6.93812E+03 -6.82001E+03  8.21121E+03  2.78236E+03
  1.92734E+03  7.73307E+03 -7.62014E+03  1.01788E+04 -1.14613E+04  5.02642E+03 -1.11800E+04 -3.24948E+03
 -8.60296E+03 -1.48495E+04  1.97326E+03 -1.33941E+04  1.24031E+04 -9.70180E+03  1.37719E+04  2.58021E+03
  8.26098E+03  9.99813E+03 -5.74938E+02  1.28131E+04 -9.36396E+03  6.18228E+03 -1.11264E+04  1.77015E+02
 -1.03186E+04 -9.84383E+03 -8.78651E+02 -9.77095E+03  4.61087E+03 -8.18193E+03  5.57233E+03 -3.15314E+03
  5.17451E+03  1.76227E+03 -6.08438E+02  6.21272E+02 -3.67664E+02 -2.00577E+03  8.31051E+02 -6.02216E+03
  1.00282E+04 -3.21461E+03  1.29214E+04  5.14738E+02  1.27518E+04  9.14026E+03  9.00392E+03  1.67470E+04
 -2.53599E+03  1.99204E+04 -1.64322E+04  1.53545E+04 -2.09732E+04  2.01658E+03 -1.67242E+04 -6.59976E+03
 -8.79574E+03 -1.23727E+04 -9.97777E+00 -1.21850E+04  3.94906E+03 -6.16654E+03  4.52351E+03 -5.81467E+03
  2.65668E+03 -1.70457E+03  3.23013E+03 -3.70948E+03  5.37999E+03 -3.47095E+03  6.29734E+03 -6.13933E+02
  8.65501E+03  3.33970E+03  4.64364E+03  7.68718E+03 -2.25153E+03  7.56976E+03 -8.77576E+03  6.25611E+03
 -1.12052E+04 -5.22265E+02 -6.66363E+03 -7.13557E+03 -8.81189E+02 -1.23858E+04  6.61120E+03 -1.38545E+04
  1.21173E+04 -7.37043E+03  1.49990E+04  2.64162E+03  1.09932E+04  1.08543E+04  2.63257E+03  1.34591E+04
 -6.74043E+03  1.15997E+04 -8.17263E+03  4.68131E+03 -6.13174E+03 -1.13148E+03 -2.37631E+03 -2.05077E+03
 -2.39406E+03 -1.37194E+03 -2.65002E+03  2.08678E+03 -5.81728E+03  2.53947E+03 -7.11491E+03 -6.80874E+02
 -4.43298E+03 -8.78798E+03 -1.89901E+02 -1.11235E+04  7.73311E+03 -1.15178E+04  1.11736E+04 -3.69968E+03
  1.10167E+04  4.83046E+03  6.15279E+03  8.45725E+03 -9.07881E+02  1.01778E+04 -7.33392E+03  7.92540E+03
 -1.08968E+04  5.96269E+01 -7.82539E+03 -5.81369E+03 -6.72727E+02 -8.92078E+03  3.60101E+03 -6.00253E+03
  7.23211E+03  1.90000E+02  5.81827E+03  2.36092E+03  1.42413E+03  3.94177E+03  1.39290E+03  2.16498E+03
  1.99991E+03  1.69068E+03  1.35641E+03  8.51927E+02  4.33076E+03  4.69762E+03  2.50622E+03  5.64430E+03
 -2.30816E+03  8.34055E+03 -7.22930E+03  8.81708E+03 -1.10944E+04  3.14572E+03 -1.17898E+04 -4.50305E+03
 -6.10089E+03 -1.17758E+04  1.98447E+03 -1.16430E+04  7.83115E+03 -6.80339E+03  9.15288E+03 -2.42533E+03
  8.37244E+03  4.07913E+03  3.01027E+03  6.73770E+03 -2.50487E+03  2.82209E+03 -5.01295E+03 -1.29676E+03
 -8.03535E+02 -3.92832E+03  2.47341E+03 -5.41106E+03  4.32631E+03 -3.88659E+03  4.89457E+03  8.66287E+02
  1.81078E+03  1.59788E+03  1.13753E+03  1.62787E+03  1.34120E+03  2.25974E+03  2.41288E+03 -7.57216E+02
  2.29393E+03  2.33791E+02  4.71151E+03  1.88833E+03  3.04684E+03  5.62064E+03 -1.89107E+02  9.23369E+03
 -4.13291E+03  4.36715E+03 -6.24387E+03 -1.63818E+02 -5.39320E+03 -3.28286E+03 -3.39879E+03 -2.97810E+03
 -3.69583E+02 -3.76396E+03  2.10782E+03 -2.55665E+03  2.55110E+03  1.86610E+03 -1.43355E+03  3.54264E+03
 -2.86923E+03  2.39818E+03 -5.28682E+03 -3.33424E+03 -1.70611E+03 -6.53620E+03  1.70926E+03 -6.91311E+03
  5.25213E+03 -4.53401E+03  4.98905E+03 -8.18444E+02  2.44062E+03  2.08425E+03 -3.55053E+02  2.85052E+03
 -1.56629E+03  4.04758E+02 -3.40075E+03 -2.44002E+03  1.71884E+03 -3.61212E+03  6.40708E+03 -3.95809E+03
  6.75751E+03  4.15725E+02  6.99297E+03  4.09859E+03  2.57563E+03  7.64029E+03 -1.35095E+03  7.02319E+03
 -5.09351E+03  3.86040E+03 -5.98922E+03 -1.25174E+03 -2.83451E+03 -4.81769E+03  2.00776E+03 -4.72554E+03
  3.24739E+03 -2.23225E+03  3.98491E+03  1.08915E+03  7.24801E+02  4.50608E+03  2.42230E+02  4.20309E+03
 -2.17894E+03  3.08232E+03 -7.54536E+02  8.10269E+02  7.27197E+02  3.71057E+02 -2.21082E+03  1.18450E+03
 -7.52962E+02  3.91644E+03 -5.77600E+03  2.06885E+03 -7.56967E+03  2.30161E+02 -7.43063E+03 -4.35990E+03
 -4.82825E+03 -9.92508E+03  3.29941E+03 -1.12025E+04  6.02010E+03 -1.00757E+04  9.48409E+03 -3.62971E+03
  8.61595E+03  2.76016E+03  5.55768E+03  6.68503E+03  7.69576E+02  7.33423E+03 -2.88604E+03  4.14556E+03
 -4.24233E+03  1.26500E+03 -1.01431E+03 -4.59431E+02 -2.58048E+02 -6.85734E+02  5.64409E+02  1.12018E+03
 -2.33243E+03  9.35971E+02 -2.14973E+03  2.85277E+02  1.02369E+03 -1.76046E+03  7.71576E+02 -1.92842E+03
  3.01210E+03 -2.94186E+03  4.10150E+03  2.29033E+02  5.89913E+03  3.16373E+03  1.39610E+03  6.54663E+03
 -3.40332E+03  7.77102E+03 -7.86449E+03  5.01927E+03 -8.35585E+03  9.25768E+01 -6.28716E+03 -6.01475E+03
 -1.74437E+03 -6.76245E+03  2.18560E+03 -7.44987E+03  5.36013E+03 -4.04426E+03  6.67027E+03  1.57197E+03
  3.51358E+03  3.03620E+03 -5.41733E+02  7.82837E+02 -8.26040E+02 -1.12529E+03  4.45184E+01 -1.69614E+03
  1.96296E+03 -9.99625E+02  2.14416E+03  1.61847E+03  1.66126E+03  3.92625E+03  6.40726E+02  3.13935E+03
 -3.44812E+03  3.64259E+03 -3.56859E+03  1.35884E+03 -3.75859E+03 -2.51558E+03  6.07891E+00 -4.80110E+03
  3.08475E+03 -5.41049E+03  5.06573E+03 -1.37906E+03  6.10319E+03  3.58285E+02  3.66318E+03  4.34265E+03
  8.95776E+01  4.04016E+03 -2.29694E+03  3.90573E+03 -8.86237E+02  2.65754E+03 -2.27470E+03  5.71126E+02
 -1.13744E+03  2.66655E+02 -1.04461E+03  6.11107E+02 -2.31411E+03  2.55285E+02 -4.12140E+03 -1.03314E+03
 -3.01864E+03 -1.55019E+03 -4.92815E+02 -5.20173E+03  3.52561E+03 -5.93225E+03  1.44973E+03 -1.41959E+03
  5.42563E+03  6.83983E+02  2.24786E+03  3.16782E+03 -8.55928E+02  4.18830E+03 -2.85346E+03  1.74801E+03
