 $NMID ID='MM_0lb_SNR200_13hz_g40_82.RAW', FMTDAT='(8E13.5)'
 TRAMP=1., VOLUME=1. $END
  3.10931E+05  1.02205E+03  3.37709E+05  2.49226E+05  8.46500E+04  3.36725E+05 -1.32629E+05  2.51211E+05
 -1.89525E+05  8.32945E+04 -1.11694E+05 -3.39413E+04  2.71349E+02 -5.05790E+04  5.35064E+04 -7.06474E+02
  3.47261E+04  5.35002E+04 -1.54646E+04  7.51215E+04 -6.13662E+04  6.51731E+04 -8.42498E+04  3.26220E+04
 -8.06210E+04 -1.16399E+04 -5.68760E+04 -5.16262E+04 -1.46163E+04 -7.08145E+04  2.74517E+04 -4.61871E+04
  3.94223E+04  3.67564E+03  1.56709E+04  4.66921E+04 -3.43003E+04  4.64625E+04 -6.73778E+04  5.80551E+02
 -5.32609E+04 -5.70761E+04 -6.69367E+03 -7.65210E+04  3.35451E+04 -5.45642E+04  4.85821E+04 -1.61826E+04
  4.34711E+04  1.18286E+04  2.99415E+04  2.53585E+04  1.60190E+04  2.93345E+04 -6.42410E+03  2.61016E+04
 -2.20439E+04  1.26802E+04 -1.82173E+04 -4.85529E+03  4.72257E+03 -7.80614E+03  2.36476E+04  1.25765E+04
  7.85267E+03  3.56301E+04 -3.24419E+04  3.70931E+04 -6.37601E+04  1.87740E+03 -5.60506E+04 -4.17418E+04
 -1.29318E+04 -6.27733E+04  3.98584E+04 -4.58481E+04  5.81690E+04 -1.58440E+03  3.41451E+04  3.35796E+04
 -4.76804E+03  3.55388E+04 -2.92386E+04  1.58784E+04 -3.02847E+04 -3.41847E+03 -1.68968E+04 -1.15833E+04
 -8.23945E+03 -1.23399E+04 -1.88918E+02 -1.79345E+04  7.65013E+03 -2.27913E+04  1.66476E+04 -1.29845E+04
  1.25307E+04  4.83996E+03 -7.35675E+03  1.22615E+04 -2.12742E+04 -3.56137E+03 -8.97401E+03 -3.38773E+04
  2.43745E+04 -4.14507E+04  4.81740E+04 -1.96956E+04  4.53004E+04  1.99814E+04  1.66705E+04  4.47583E+04
 -1.53155E+04  3.32319E+04 -2.59807E+04  1.67260E+03 -1.06482E+04 -2.77014E+04  2.09103E+04 -3.40533E+04
  3.97140E+04 -9.01465E+03  3.64205E+04  2.48392E+04  1.81170E+04  4.64487E+04 -7.46931E+03  5.05027E+04
 -3.05693E+04  3.32877E+04 -4.20092E+04  9.77739E+03 -4.28662E+04 -1.66178E+04 -2.29157E+04 -3.80609E+04
  7.60142E+03 -3.80718E+04  3.25304E+04 -1.46092E+04  2.86492E+04  9.95873E+03  4.36095E+03  1.95379E+04
 -1.35237E+04  7.68743E+03 -1.11261E+04 -5.81663E+03  6.71009E+03 -1.13025E+04  1.65366E+04  6.51662E+03
  1.39292E+04  2.16587E+04 -5.25660E+03  2.40354E+04 -2.22649E+04  1.19192E+04 -2.71131E+04 -3.67149E+03
 -2.05617E+04 -1.74526E+04 -7.79899E+03 -2.11848E+04  2.65014E+03 -1.96040E+04  1.47392E+04 -1.83852E+04
  2.56543E+04 -1.26045E+04  3.19963E+04  1.41308E+03  2.39123E+04  1.92492E+04  5.58582E+03  3.59592E+04
 -1.72504E+04  3.07636E+04 -2.75680E+04  1.01745E+04 -2.03439E+04 -1.00513E+04 -4.63132E+03 -1.32593E+04
  1.34659E+03 -3.29190E+03 -5.31605E+03  5.83967E+03 -1.63134E+04  4.50623E+03 -1.62696E+04 -7.65161E+03
 -9.46805E+03 -1.85622E+04  4.89074E+03 -2.22852E+04  1.41673E+04 -1.83390E+04  1.79649E+04 -2.17796E+03
  1.19899E+04  1.36561E+04 -1.56408E+03  1.85728E+04 -1.25759E+04  1.20697E+04 -1.75910E+04 -4.22145E+03
 -1.43152E+04 -1.56502E+04 -1.96564E+03 -2.27266E+04  1.10276E+04 -1.89891E+04  1.92897E+04 -1.00122E+04
  1.65224E+04  6.88011E+02  1.42067E+04  3.47192E+03  6.71070E+03  1.31697E+03  9.64650E+03 -1.93095E+03
  1.67465E+04  3.21090E+03  1.95763E+04  1.52721E+04  1.23825E+04  2.93937E+04 -2.38350E+03  3.35644E+04
 -2.06633E+04  2.74806E+04 -3.29959E+04  1.48260E+04 -3.32903E+04 -2.98224E+03 -2.84524E+04 -1.86226E+04
 -1.22636E+04 -2.78571E+04  8.87034E+03 -2.58444E+04  2.08035E+04 -1.14345E+04  2.02442E+04  5.48201E+03
  6.40053E+03  1.56496E+04 -1.01897E+04  1.31734E+04 -1.68391E+04  2.91207E+03 -1.11631E+04 -9.92477E+03
  1.76473E+01 -1.51645E+04  7.68668E+03 -1.15183E+04  1.02331E+04 -5.13491E+02  3.65063E+03  5.45025E+03
 -7.20556E+03  2.26271E+03 -6.30933E+03 -4.55851E+03 -6.74489E+02 -1.43351E+04  9.51101E+03 -1.48537E+04
  1.71952E+04 -7.89574E+03  1.82652E+04  2.97688E+03  1.50764E+04  1.24376E+04  7.60043E+03  2.16769E+04
 -2.75783E+03  2.26325E+04 -1.52576E+04  1.39781E+04 -1.72234E+04  2.99799E+03 -1.09362E+04 -5.18105E+03
 -4.79672E+03 -4.22214E+03 -6.87760E+02  3.53173E+02 -2.16311E+03  1.61688E+03 -6.90773E+03  4.69587E+03
 -1.09481E+04  1.51868E+02 -1.14039E+04 -9.07208E+03 -4.30684E+03 -1.43330E+04  5.39019E+03 -1.02006E+04
  8.99316E+03 -5.32415E+03  7.69623E+03  2.13342E+03  1.28604E+03  4.44851E+03 -4.64439E+03 -1.20762E+03
 -4.70076E+03 -7.54141E+03 -4.32454E+02 -1.04427E+04  6.93224E+03 -1.15441E+04  1.44491E+04 -5.34173E+03
  1.66723E+04  1.11067E+03  1.22530E+04  8.57360E+03 -1.37687E+02  1.20228E+04 -7.14452E+03  1.17720E+04
 -9.51900E+03  3.56278E+03 -5.38818E+03 -2.28172E+03  1.51072E+03 -2.84535E+03  5.86523E+03 -5.26106E+02
  6.15115E+03  4.31875E+03  9.27027E+02  9.62340E+03 -5.25552E+03  8.34777E+03 -1.23253E+04  2.03185E+03
 -8.48307E+03 -5.37097E+03  1.00184E+03 -9.69913E+03  5.72791E+03 -3.75940E+03  5.17127E+03  1.39357E+03
  6.27455E+02  7.16967E+03 -6.83311E+03  7.19427E+03 -8.85140E+03  3.86526E+03 -7.75348E+03 -2.14124E+03
 -4.99710E+03 -1.07033E+04  1.91147E+03 -1.07389E+04  1.08176E+04 -7.00155E+03  1.08989E+04  2.65120E+03
  6.45471E+03  9.96653E+03 -6.71804E+02  1.05775E+04 -8.01806E+03  6.38515E+03 -8.22983E+03 -2.26842E+03
 -7.26765E+03 -7.16464E+03  2.67449E+00 -7.82962E+03  4.54649E+03 -6.50224E+03  4.51149E+03 -3.48247E+03
  3.63435E+03  5.41207E+02  8.97945E+01  2.29219E+03  6.36078E+00 -1.50440E+03  1.86881E+03 -4.24118E+03
  6.52150E+03 -1.70616E+03  9.59684E+03  4.93770E+02  1.11263E+04  5.67983E+03  6.64509E+03  1.29994E+04
 -3.58093E+03  1.45143E+04 -1.25982E+04  1.00875E+04 -1.63194E+04  2.83457E+03 -1.31319E+04 -5.57264E+03
 -6.64728E+03 -1.21836E+04 -1.16974E+03 -8.59125E+03  3.72684E+03 -4.90728E+03  2.81557E+03 -3.19120E+03
  1.44194E+03 -2.02452E+03  3.13447E+03 -2.97961E+03  5.04995E+03 -2.79681E+03  4.83682E+03 -6.61334E+02
  6.56750E+03  1.81241E+03  2.94053E+03  4.70301E+03 -2.66866E+03  5.94937E+03 -7.06169E+03  5.42645E+03
 -9.84121E+03 -1.67766E+03 -5.12864E+03 -6.40754E+03 -8.51271E+02 -8.91246E+03  5.42877E+03 -9.63708E+03
  9.98618E+03 -5.52636E+03  1.15140E+04  6.13394E+02  8.32084E+03  8.32232E+03  1.03465E+03  1.15612E+04
 -4.37101E+03  9.29692E+03 -6.65197E+03  3.05426E+03 -4.81363E+03 -1.34506E+03 -1.65056E+03 -4.06359E+02
 -7.75964E+02  1.08770E+03 -2.32464E+03  3.58649E+03 -2.85143E+03  8.63103E+02 -6.35366E+03 -1.11469E+03
 -2.51150E+03 -6.39169E+03  2.88284E+02 -8.41904E+03  4.27930E+03 -7.10785E+03  8.00775E+03 -2.72476E+03
  8.42443E+03  4.70775E+03  4.15470E+03  7.66001E+03 -8.46982E+00  9.43338E+03 -5.99435E+03  5.34494E+03
 -7.10120E+03  1.35819E+03 -6.69726E+03 -5.25531E+03 -1.78813E+03 -8.02458E+03  3.29873E+03 -5.62687E+03
  5.58181E+03 -1.75070E+03  4.40141E+03  1.76723E+03  1.79944E+03  3.20612E+03  2.56534E+02  2.05266E+03
  1.93228E+03  4.62381E+02  3.15376E+03  6.92622E+02  1.22139E+03  3.64743E+03  1.27841E+03  4.74321E+03
 -1.98721E+03  6.27808E+03 -6.87942E+03  7.65327E+03 -7.52378E+03  2.72335E+03 -9.62546E+03 -1.92073E+03
 -3.63788E+03 -7.04427E+03  1.08114E+03 -9.37285E+03  4.59886E+03 -6.01813E+03  6.99216E+03 -2.47116E+03
  6.93372E+03  2.71379E+03  1.86665E+03  4.94506E+03 -2.18653E+03  2.16552E+03 -2.23037E+03  8.15681E+01
 -1.84920E+03 -5.39455E+03  2.81743E+03 -2.95290E+03  2.74088E+03 -2.92712E+03  4.37008E+03  4.88188E+02
  1.97112E+03  1.05406E+03  3.61418E+02  1.30931E+03 -6.45887E+02  1.31572E+03  1.37644E+03 -1.16990E+03
  2.51758E+02 -2.39571E+02  3.60410E+03  1.31343E+03  2.30199E+03  5.27643E+03 -6.56858E+02  5.51976E+03
 -2.77353E+03  4.48331E+03 -4.92724E+03  1.47858E+03 -5.50061E+03 -2.15968E+03 -1.05872E+03 -2.60183E+03
  1.34179E+03 -3.45673E+03  1.93151E+03 -2.21083E+03  1.52538E+03  2.04485E+03 -1.03867E+02  2.94352E+03
 -4.35894E+03 -1.93958E+02 -3.49861E+03 -2.15518E+03 -2.81948E+03 -4.40698E+03 -3.81674E+02 -4.17399E+03
  2.59925E+03 -2.49801E+03  2.96188E+03  7.34426E+02  2.95540E+03  1.45620E+02  6.42611E+02  2.67489E+03
  1.41502E+02 -7.19376E+01 -2.84547E+03 -1.36635E+03  1.20536E+03 -3.71034E+03  3.44179E+03 -3.37513E+03
  3.88544E+03  4.56787E+02  5.90350E+03  2.81816E+03  1.24533E+03  6.10881E+03 -1.21801E+03  4.39043E+03
 -3.72810E+03  7.52838E+02 -3.28030E+03 -1.27813E+03 -1.70615E+03 -2.66109E+03  1.42807E+03 -2.25928E+03
  3.28731E+03 -1.88393E+03  2.24138E+03  1.47852E+03  9.73790E+02  2.07013E+03 -1.00965E+03  3.52588E+03
 -1.59568E+03  2.79291E+03 -4.88508E+02  5.31642E+02  7.69473E+02  8.12950E+02 -1.45300E+03  1.32564E+03
 -1.38639E+03  1.56934E+03 -3.95227E+03  2.65395E+03 -4.88899E+03 -1.47001E+00 -5.51449E+03 -2.95988E+03
 -2.91478E+03 -6.52954E+03  1.33084E+03 -6.86551E+03  4.21015E+03 -5.98609E+03  8.86816E+03 -1.58428E+03
  6.81228E+03  1.37187E+03  6.06393E+03  4.58619E+03  3.43162E+02  5.06226E+03 -2.02838E+03  3.38080E+03
 -2.25225E+03  1.20858E+03 -1.09700E+03 -2.01096E+02 -9.29922E+02 -6.18684E+02 -1.14451E+03 -5.31932E+02
 -1.33683E+02 -2.27594E+02 -1.26636E+03 -9.18243E+02 -9.60051E+02 -3.84055E+02 -3.93159E+02 -9.14863E+02
  2.61461E+03 -2.36907E+03  3.57326E+03  1.32772E+03  2.84020E+03  2.43583E+03  1.04231E+03  3.60342E+03
 -1.43008E+03  5.80353E+03 -4.37031E+03  3.54987E+03 -5.55128E+03 -9.01211E+02 -2.83217E+03 -2.97831E+03
 -2.69319E+03 -4.33674E+03  1.65176E+03 -4.21406E+03  2.25874E+03 -1.45035E+03  3.04173E+03  3.45749E+02
  1.90569E+03  1.83712E+03 -3.17148E+02  5.53003E+02 -6.33078E+02 -7.48218E+02  6.08752E+02  9.61335E+02
  2.31957E+03  2.42365E+02  3.25050E+03 -1.32044E+02  1.59756E+03  2.09052E+03 -3.18040E+02  1.17105E+03
 -3.49081E+03  2.54569E+02 -2.20184E+03  1.79052E+02 -3.14670E+03 -2.21007E+03 -2.56840E+02 -3.67002E+03
  2.16051E+03 -2.05532E+03  3.27581E+03 -2.88461E+02  3.33024E+03  9.79231E+02  1.27694E+02  3.20771E+03
  5.68336E+00  4.75251E+03 -1.41756E+03  7.53477E+02 -1.34324E+03  3.65313E+02 -2.38677E+03  7.22595E+01
 -2.01977E+03 -3.78327E+02 -1.85382E+03  8.94343E+01 -1.48053E+03  8.96651E+02 -2.60901E+03  2.11724E+02
 -1.80301E+03 -1.95736E+03  5.03106E+01 -3.08303E+03  2.15776E+03 -3.61664E+03  3.23675E+03 -2.08325E+03
  2.88550E+03  1.85235E+03  1.22658E+03  1.65945E+03  1.30174E+03  3.24898E+03 -1.94778E+03  1.56025E+03
