 $NMID ID='MM_0lb_SNR200_10hz_g40_62.RAW', FMTDAT='(8E13.5)'
 TRAMP=1., VOLUME=1. $END
  3.09980E+05  5.77990E+02  3.37633E+05  2.50666E+05  8.52697E+04  3.39184E+05 -1.32030E+05  2.51484E+05
 -1.90787E+05  8.32877E+04 -1.11413E+05 -3.28517E+04 -9.64555E+02 -5.04566E+04  5.44862E+04  5.81737E+02
  3.68035E+04  5.26833E+04 -1.74643E+04  7.58874E+04 -5.97191E+04  6.44548E+04 -8.48079E+04  3.18316E+04
 -8.25553E+04 -1.16574E+04 -5.88455E+04 -5.23653E+04 -1.51752E+04 -6.91226E+04  2.89465E+04 -4.69426E+04
  4.08323E+04  4.35901E+03  1.72931E+04  4.84175E+04 -3.38378E+04  4.79813E+04 -6.77507E+04  1.09224E+03
 -5.28374E+04 -5.71110E+04 -7.52067E+03 -7.80643E+04  3.40392E+04 -5.52381E+04  4.84579E+04 -1.78371E+04
  4.45108E+04  1.11962E+04  3.24290E+04  2.66673E+04  1.56549E+04  2.96621E+04 -5.87873E+03  2.71208E+04
 -2.16251E+04  1.27909E+04 -1.81592E+04 -5.59041E+03  5.48590E+03 -6.69344E+03  2.27652E+04  1.34638E+04
  6.25745E+03  3.66604E+04 -3.36479E+04  3.68897E+04 -6.55779E+04  3.79481E+03 -5.84412E+04 -4.38735E+04
 -1.25463E+04 -6.42601E+04  4.01474E+04 -4.72431E+04  5.89926E+04 -1.91818E+03  3.65302E+04  3.24365E+04
 -5.67804E+03  3.69636E+04 -3.03048E+04  1.76953E+04 -3.22791E+04 -3.21793E+03 -1.79913E+04 -1.15277E+04
 -8.55277E+03 -1.27962E+04 -1.13920E+03 -1.91542E+04  8.63014E+03 -2.35136E+04  1.75498E+04 -1.36834E+04
  1.10440E+04  4.81581E+03 -1.00065E+04  1.22629E+04 -2.33145E+04 -5.95132E+03 -8.15876E+03 -3.55700E+04
  2.41107E+04 -4.58295E+04  5.03057E+04 -2.00882E+04  4.70567E+04  1.94287E+04  1.70794E+04  4.56289E+04
 -1.58724E+04  3.43390E+04 -2.69679E+04  1.73901E+03 -1.14768E+04 -3.00627E+04  2.14303E+04 -3.66502E+04
  4.27426E+04 -1.00676E+04  3.89948E+04  2.38847E+04  2.11429E+04  4.90374E+04 -6.17768E+03  5.34109E+04
 -3.50109E+04  3.73875E+04 -4.31639E+04  1.12564E+04 -4.61850E+04 -1.80124E+04 -2.50722E+04 -3.98663E+04
  8.26514E+03 -4.09244E+04  3.31982E+04 -1.65947E+04  3.02361E+04  1.13236E+04  6.29459E+03  1.91910E+04
 -1.34973E+04  1.06462E+04 -1.02115E+04 -6.92862E+03  6.59418E+03 -1.12759E+04  1.93750E+04  4.50672E+03
  1.36668E+04  2.17591E+04 -5.79789E+03  2.52682E+04 -2.37841E+04  1.47733E+04 -3.08562E+04 -3.68604E+03
 -2.32021E+04 -1.82059E+04 -1.01286E+04 -2.34089E+04  4.84128E+03 -2.29603E+04  1.94398E+04 -2.23440E+04
  3.08974E+04 -1.38094E+04  3.62967E+04  4.06600E+03  2.50191E+04  2.27780E+04  4.75590E+03  3.95046E+04
 -1.91517E+04  3.39170E+04 -2.93331E+04  1.18334E+04 -2.26648E+04 -1.23759E+04 -5.42313E+03 -1.29541E+04
  2.89805E+03 -9.34920E+02 -4.72864E+03  6.86661E+03 -1.89076E+04  5.22546E+03 -1.87382E+04 -7.66708E+03
 -1.10142E+04 -2.15233E+04  5.49193E+03 -2.54060E+04  1.73338E+04 -1.88846E+04  2.08538E+04 -1.68405E+03
  1.28338E+04  1.30205E+04 -1.49156E+03  2.25698E+04 -1.60393E+04  1.26072E+04 -2.27603E+04 -4.68145E+03
 -1.62903E+04 -1.89020E+04 -1.09044E+03 -2.56121E+04  1.14820E+04 -2.07775E+04  2.19287E+04 -1.14860E+04
  1.94014E+04 -5.46043E+02  1.38947E+04  5.75288E+03  7.12479E+03  1.08818E+03  1.14639E+04 -2.46571E+03
  2.08207E+04  3.47533E+03  2.47688E+04  1.75522E+04  1.64586E+04  3.62846E+04 -2.75795E+03  3.97270E+04
 -2.38609E+04  3.20907E+04 -3.84972E+04  1.72686E+04 -3.95168E+04 -3.45872E+03 -3.25997E+04 -2.33709E+04
 -1.36655E+04 -3.39391E+04  1.13271E+04 -2.99517E+04  2.64514E+04 -1.43524E+04  2.25974E+04  7.12485E+03
  7.49083E+03  1.74233E+04 -8.89188E+03  1.43880E+04 -1.85164E+04  2.07106E+03 -1.39502E+04 -1.32897E+04
 -1.17063E+03 -1.77910E+04  9.93453E+03 -1.31750E+04  1.09241E+04 -1.89975E+03  2.23763E+03  8.30130E+03
 -8.78136E+03  3.58737E+03 -7.86526E+03 -6.12234E+03 -6.13480E+02 -1.76165E+04  1.24361E+04 -1.94947E+04
  2.21466E+04 -9.43131E+03  2.28405E+04  3.73530E+03  2.05720E+04  1.71793E+04  8.90125E+03  2.64647E+04
 -3.70168E+03  2.90032E+04 -1.79031E+04  1.86268E+04 -2.03453E+04  3.24219E+03 -1.48118E+04 -4.32023E+03
 -5.65964E+03 -5.91413E+03  2.19406E+02  4.27666E+02 -2.91936E+03  3.78807E+03 -6.70680E+03  4.59374E+03
 -1.20662E+04 -1.85992E+03 -1.29205E+04 -1.17751E+04 -6.63553E+03 -1.75330E+04  5.10996E+03 -1.29529E+04
  1.21509E+04 -6.02467E+03  8.44817E+03  2.78974E+03  1.54910E+03  5.78051E+03 -7.16540E+03 -1.76583E+01
 -6.01905E+03 -1.06360E+04 -3.86874E+02 -1.35167E+04  6.39544E+03 -1.42203E+04  1.78546E+04 -6.84946E+03
  2.14872E+04  2.45650E+03  1.54142E+04  1.15804E+04  3.91720E+03  1.64618E+04 -7.43101E+03  1.36650E+04
 -1.30934E+04  4.42169E+03 -5.92392E+03 -3.40447E+03  2.40953E+03 -3.87630E+03  7.97763E+03 -1.36690E+03
  8.07632E+03  6.05603E+03  1.14449E+03  1.24168E+04 -8.35707E+03  1.02056E+04 -1.39296E+04  2.22501E+03
 -1.03663E+04 -5.65527E+03  5.90021E+02 -1.17738E+04  6.44142E+03 -7.10120E+03  8.69457E+03  3.95798E+03
  1.25919E+03  9.99674E+03 -7.29090E+03  1.03105E+04 -1.14072E+04  3.49014E+03 -1.12310E+04 -5.95788E+03
 -7.18008E+03 -1.40423E+04  2.92090E+03 -1.49828E+04  1.33514E+04 -1.02808E+04  1.48543E+04  2.43010E+03
  9.21851E+03  1.23121E+04 -1.22986E+03  1.30822E+04 -1.03020E+04  6.61908E+03 -1.03140E+04 -3.48261E+02
 -1.00923E+04 -9.91718E+03 -2.75593E+03 -1.07359E+04  5.58338E+03 -8.35615E+03  6.56869E+03 -2.26694E+03
  4.94608E+03  9.45625E+02 -1.37542E+03  2.11894E+03 -2.29285E+03 -2.28346E+03  2.28296E+03 -6.93301E+03
  9.36256E+03 -3.71889E+03  1.24857E+04  8.27935E+02  1.31078E+04  8.13281E+03  9.01729E+03  1.74493E+04
 -2.53561E+03  2.06651E+04 -1.82999E+04  1.50414E+04 -2.17689E+04  3.49059E+03 -1.78433E+04 -6.80119E+03
 -8.37537E+03 -1.40039E+04  1.07000E+02 -1.19182E+04  4.67151E+03 -7.11669E+03  4.29098E+03 -4.38334E+03
  3.54902E+03 -2.75109E+03  3.77354E+03 -3.86806E+03  4.04080E+03 -2.43898E+03  6.80447E+03 -8.94073E+02
  7.48755E+03  2.25700E+03  6.50963E+03  6.78069E+03 -2.03227E+03  1.03606E+04 -1.00846E+04  7.41984E+03
 -1.34558E+04 -1.61794E+03 -7.66628E+03 -8.93021E+03 -7.70362E+02 -1.28724E+04  6.65760E+03 -1.33581E+04
  1.24608E+04 -6.18588E+03  1.68637E+04  2.92925E+03  1.12219E+04  1.05507E+04  2.68531E+03  1.61298E+04
 -5.89235E+03  1.26116E+04 -9.06591E+03  4.33920E+03 -4.81850E+03 -2.06159E+03 -3.27719E+03 -9.14370E+02
 -1.94825E+03  7.00722E+02 -1.58240E+03  3.89459E+03 -5.12883E+03  1.86402E+03 -8.38681E+03 -2.15166E+03
 -5.83009E+03 -7.69758E+03  1.73397E+03 -1.30831E+04  5.61478E+03 -1.13683E+04  1.34533E+04 -3.31195E+03
  1.33063E+04  5.60551E+03  5.54893E+03  1.18485E+04 -2.14451E+03  1.21909E+04 -8.77537E+03  7.03468E+03
 -1.11696E+04  5.09564E+02 -8.80861E+03 -5.95205E+03 -3.00611E+02 -1.22817E+04  4.47036E+03 -8.55410E+03
  7.01063E+03 -3.57885E+03  5.28699E+03  1.75296E+03  1.53264E+03  3.52034E+03  2.98109E+03  2.94641E+03
  1.86982E+03  1.15939E+03  2.35290E+03  1.98216E+03  2.96424E+03  3.38915E+03  3.47315E+03  5.72433E+03
 -1.72316E+03  9.91161E+03 -8.57975E+03  1.04851E+04 -1.40836E+04  3.68341E+03 -1.15048E+04 -5.93308E+03
 -6.41833E+03 -1.20433E+04  2.27464E+03 -1.44034E+04  7.79552E+03 -8.00347E+03  9.53652E+03 -2.59361E+03
  8.02776E+03  5.68945E+03  1.48978E+03  6.64442E+03 -3.72970E+03  3.91473E+03 -5.14828E+03 -1.00053E+03
 -1.35736E+03 -5.27531E+03  3.98989E+03 -5.72300E+03  6.25339E+03 -1.88770E+03  5.80252E+03  1.85287E+03
  2.52068E+03  2.55473E+03  1.72050E+03  3.85147E+03  5.27066E+02  6.49851E+02  1.23748E+03 -2.43379E+03
  2.86498E+03 -2.99950E+02  4.14577E+03  2.18844E+03  1.77753E+03  6.26278E+03 -7.82574E+02  9.04485E+03
 -7.07796E+03  5.77003E+03 -8.77029E+03  1.22019E+03 -7.42450E+03 -3.57162E+03 -4.27051E+03 -4.16163E+03
 -9.22998E+02 -4.89189E+03  2.23909E+03 -2.73706E+03  7.45956E+02  1.87929E+03 -1.15804E+03  4.23111E+03
 -5.28058E+03  3.15605E+03 -6.27891E+03 -3.37793E+03 -2.95684E+03 -6.83742E+03 -3.30570E+01 -6.48952E+03
  4.20748E+03 -2.98468E+03  4.45578E+03 -1.48836E+01  4.46609E+03  7.95143E+02 -5.71697E+01  3.99081E+03
 -2.05705E+03  2.76139E+03 -2.05959E+03 -2.66784E+03  1.16695E+03 -6.06867E+03  6.94046E+03 -3.50555E+03
  6.89943E+03  6.83525E+02  6.78076E+03  6.35636E+03  3.49017E+03  8.01293E+03 -3.13270E+03  8.38908E+03
 -5.33946E+03  2.87088E+03 -7.01560E+03 -1.17511E+03 -2.26084E+03 -4.72147E+03  6.27237E+02 -4.27706E+03
  4.17598E+03 -2.32612E+03  2.94812E+03  2.82448E+03 -6.57071E+01  4.89500E+03 -5.59525E+02  4.17668E+03
 -5.97234E+02  3.49323E+03 -1.36478E+03  9.58402E+02 -8.04865E+02  1.31707E+03  5.97794E+02  2.85287E+03
 -1.52076E+03  2.36925E+03 -4.92566E+03  2.40776E+03 -7.39152E+03  5.04461E+02 -9.64511E+03 -6.05357E+03
 -5.39761E+03 -9.95621E+03  1.98781E+03 -1.25913E+04  6.68230E+03 -9.67852E+03  1.04602E+04 -3.12672E+03
  1.02694E+04  1.77854E+03  6.06974E+03  7.97413E+03 -2.48923E+02  8.34222E+03 -4.76143E+03  5.85445E+03
 -4.59399E+03  2.83890E+03 -3.17100E+03 -1.47280E+03 -9.77337E+02 -1.45058E+03 -1.08786E+03 -1.50475E+03
 -5.70386E+02 -1.89196E+02 -1.28774E+03  7.13041E+01  2.63976E+02 -3.08692E+03 -4.40485E+02 -3.65161E+03
  2.34061E+03 -2.78371E+03  4.76728E+03 -3.63760E+02  6.31475E+03  3.61907E+03  5.21563E+02  7.12864E+03
 -4.04581E+03  9.03840E+03 -1.01594E+04  4.44467E+03 -9.73934E+03 -2.61641E+03 -8.15702E+03 -7.58214E+03
 -3.43051E+03 -8.24030E+03  1.12785E+03 -7.53766E+03  4.94761E+03 -4.79358E+03  6.17027E+03  4.67894E+02
  4.38135E+03  2.46354E+03 -2.12707E+03  4.27047E+02 -1.18454E+03 -9.48841E+02  9.21627E+02 -1.51624E+03
  2.56731E+03 -1.21626E+03  3.95830E+03  2.58138E+02  2.79576E+03  3.71380E+03  1.64592E+03  4.68332E+03
 -3.98332E+03  4.05984E+03 -5.49986E+03  8.59863E+02 -5.37520E+03 -3.85998E+03 -3.13456E+02 -6.62787E+03
  2.41149E+03 -6.50870E+03  6.66034E+03 -2.61493E+03  6.24517E+03  1.83591E+03  3.17809E+03  4.59862E+03
  2.05985E+03  4.21244E+03 -1.46051E+03  4.40925E+03 -4.40127E+03  2.81347E+03 -3.48472E+03  2.54633E+02
 -1.77991E+03  4.91495E+01 -2.69195E+03  2.55041E+03 -2.11561E+03  5.80794E+02 -3.68669E+03 -4.48043E+02
 -3.91203E+03 -3.10323E+03 -7.37011E+02 -5.24725E+03  3.04598E+03 -5.02631E+03  4.59558E+03 -3.25777E+03
  4.01700E+03 -2.98367E+02  2.35631E+03  4.00623E+03  4.24328E+02  5.28295E+03 -3.68134E+03  2.92091E+03
