 $NMID ID='MM_0lb_SNR200_20hz_g50_47.RAW', FMTDAT='(8E13.5)'
 TRAMP=1., VOLUME=1. $END
  3.08926E+05  3.91467E+02  3.35875E+05  2.49900E+05  8.40936E+04  3.37963E+05 -1.32810E+05  2.50406E+05
 -1.91001E+05  8.20782E+04 -1.11013E+05 -3.31603E+04  1.34874E+03 -4.99760E+04  5.39041E+04 -1.99280E+02
  3.45115E+04  5.26292E+04 -1.72584E+04  7.49792E+04 -6.10308E+04  6.23922E+04 -8.38081E+04  3.11816E+04
 -7.92483E+04 -1.02625E+04 -5.61132E+04 -5.06073E+04 -1.46637E+04 -6.77582E+04  2.50018E+04 -4.46613E+04
  3.81030E+04  4.55001E+03  1.51608E+04  4.64913E+04 -3.41019E+04  4.57717E+04 -6.46375E+04 -1.16743E+03
 -5.16638E+04 -5.62218E+04 -5.04626E+03 -7.56610E+04  3.13719E+04 -5.34866E+04  4.65369E+04 -1.63489E+04
  4.15914E+04  1.03748E+04  3.04678E+04  2.43979E+04  1.46645E+04  2.79888E+04 -3.86729E+03  2.61467E+04
 -2.11390E+04  1.32672E+04 -1.96275E+04 -4.41479E+03  4.96224E+03 -7.29626E+03  2.09384E+04  1.12515E+04
  7.46583E+03  3.32194E+04 -2.96052E+04  3.29264E+04 -6.11719E+04  1.95900E+03 -5.54610E+04 -4.11248E+04
 -1.21857E+04 -6.04401E+04  3.88590E+04 -4.45793E+04  5.59027E+04 -1.37241E+03  3.17158E+04  2.93601E+04
 -6.54492E+03  3.22835E+04 -2.80599E+04  1.32309E+04 -2.75476E+04 -6.03637E+03 -1.46216E+04 -1.03346E+04
 -6.60190E+03 -1.19389E+04 -2.58530E+03 -1.74003E+04  6.31029E+03 -2.21039E+04  1.52652E+04 -1.42883E+04
  1.21996E+04  3.64166E+03 -5.64138E+03  1.28067E+04 -1.89268E+04 -2.68359E+03 -7.94832E+03 -3.02573E+04
  2.03159E+04 -4.12507E+04  4.31982E+04 -1.91637E+04  4.03785E+04  1.82926E+04  1.36809E+04  4.10274E+04
 -1.38901E+04  3.07102E+04 -2.39591E+04  1.42165E+03 -7.96606E+03 -2.60966E+04  1.97534E+04 -3.07677E+04
  3.75298E+04 -8.47218E+03  3.12048E+04  2.29020E+04  1.45071E+04  4.11865E+04 -7.69233E+03  4.38218E+04
 -2.82288E+04  2.95948E+04 -3.59043E+04  7.98502E+03 -3.83567E+04 -1.58521E+04 -2.07562E+04 -3.24095E+04
  7.13576E+03 -3.35574E+04  2.93194E+04 -1.18645E+04  2.61410E+04  1.06329E+04  1.85255E+03  1.79522E+04
 -1.32355E+04  7.05065E+03 -9.76928E+03 -7.40496E+03  6.22555E+03 -1.10331E+04  1.74218E+04  8.23420E+03
  1.20228E+04  2.16357E+04 -6.78359E+03  2.36902E+04 -2.11525E+04  8.89167E+03 -2.46922E+04 -5.78957E+03
 -1.61695E+04 -1.56046E+04 -4.98231E+03 -1.66455E+04  4.67413E+03 -1.51625E+04  1.04995E+04 -1.37959E+04
  2.11498E+04 -1.13139E+04  2.63540E+04  1.95515E+03  1.97981E+04  1.54016E+04  3.25846E+03  3.10635E+04
 -1.65482E+04  2.66215E+04 -2.61284E+04  8.59472E+03 -1.94287E+04 -1.08053E+04 -3.12933E+03 -1.37390E+04
  2.17983E+03 -4.68943E+03 -3.60181E+03  5.39398E+03 -1.28923E+04  5.29237E+03 -1.26087E+04 -5.13402E+03
 -8.57031E+03 -1.43103E+04  3.91645E+03 -1.93551E+04  1.23569E+04 -1.38048E+04  1.39344E+04 -1.24319E+03
  9.09875E+03  1.02547E+04 -1.34880E+03  1.45385E+04 -9.48996E+03  8.76969E+03 -1.56107E+04 -3.42360E+03
 -1.01551E+04 -1.45906E+04 -1.89481E+03 -1.76808E+04  7.61913E+03 -1.35778E+04  1.52529E+04 -6.92189E+03
  1.44692E+04  1.70066E+03  1.05300E+04  4.88094E+03  5.17107E+03  2.72160E+02  7.23424E+03 -2.05602E+03
  1.42275E+04  2.82929E+03  1.35968E+04  1.20541E+04  8.67378E+03  2.31602E+04 -3.83917E+03  2.52521E+04
 -1.47909E+04  1.79421E+04 -2.21182E+04  9.23292E+03 -2.38807E+04 -2.08340E+03 -2.04427E+04 -1.35067E+04
 -9.72800E+03 -1.92157E+04  6.93473E+03 -1.87581E+04  1.53610E+04 -1.13045E+04  1.45153E+04  3.53351E+03
  6.66274E+03  1.10092E+04 -6.81696E+03  1.03999E+04 -1.22363E+04  2.60280E+03 -8.95297E+03 -7.21573E+03
 -2.88753E+02 -1.15486E+04  5.86112E+03 -8.02141E+03  7.94190E+03 -1.46623E+03 -1.95325E+01  4.34769E+03
 -5.59231E+03  6.59278E+02 -3.70689E+03 -4.11830E+03  9.05625E+02 -9.26612E+03  7.68860E+03 -8.42670E+03
  1.10530E+04 -3.92003E+03  1.08979E+04  2.78560E+03  1.01675E+04  9.33999E+03  4.19615E+03  1.20315E+04
 -5.92933E+02  1.35860E+04 -8.84162E+03  9.34229E+03 -1.00179E+04  3.14714E+03 -7.72217E+03 -1.91390E+03
 -4.69510E+03 -3.20539E+03 -7.26396E+02  1.50453E+03 -1.76833E+03  2.63053E+03 -1.70418E+03  3.19518E+03
 -7.65879E+03  4.29204E+02 -8.09930E+03 -6.25155E+03 -3.00736E+03 -1.16870E+04  4.05998E+03 -7.44221E+03
  6.59455E+03 -3.50287E+03  5.11359E+03  6.18473E+02  1.80879E+02  2.98894E+03 -2.95403E+03 -5.80544E+01
 -2.53021E+03 -4.03711E+03 -1.12610E+03 -6.76175E+03  2.11880E+03 -7.60151E+03  9.61690E+03 -3.78574E+03
  1.18986E+04  5.31587E+02  7.80066E+03  5.72613E+03  1.55314E+03  7.09096E+03 -5.46809E+03  7.04979E+03
 -6.70748E+03  2.49338E+03 -2.51440E+03 -2.43114E+03  3.18483E+02 -8.00889E+02  4.74230E+03 -8.42443E+02
  3.78674E+03  3.11647E+03 -8.75976E+02  5.94321E+03 -4.19152E+03  5.55679E+03 -7.84230E+03  2.45513E+03
 -4.18965E+03 -3.37057E+03 -5.88258E+01 -5.84675E+03  2.39396E+03 -3.00698E+03  3.89966E+03  4.22570E+02
  1.27575E+03  3.45825E+03 -3.87056E+03  4.02762E+03 -4.49092E+03  2.01696E+03 -3.83628E+03 -4.48882E+02
 -1.71148E+03 -5.48445E+03  1.06733E+03 -5.99695E+03  5.44757E+03 -3.21268E+03  4.47431E+03  7.70328E+02
  4.02480E+03  5.15877E+03  2.20469E+02  6.70190E+03 -5.83599E+03  3.81286E+03 -4.41242E+03 -7.42799E+02
 -5.38579E+03 -4.71065E+03 -8.10654E+02 -4.63447E+03  9.51584E+02 -4.59046E+03  3.38041E+03 -2.37415E+03
  2.31118E+03 -5.57335E+02  3.43818E+02  1.13590E+03  7.47301E+02 -4.38178E+02  5.44625E+02 -1.38089E+03
  2.93776E+03 -9.80697E+01  5.38738E+03  5.02514E+02  4.79209E+03  2.63484E+03  5.55614E+03  6.23000E+03
 -1.32119E+03  7.50117E+03 -7.45459E+03  5.52701E+03 -8.18981E+03  2.48232E+02 -6.43779E+03 -2.94856E+03
 -3.91217E+03 -5.99003E+03  4.46386E+01 -5.24591E+03  2.27664E+03 -1.39943E+03  1.31599E+03 -5.37646E+02
  1.18412E+03 -1.45680E+03  1.11958E+03 -8.25753E+02  3.80268E+03 -1.64173E+03  2.85942E+03  8.09906E+02
  4.63435E+03  3.70373E+02  5.08031E+02  2.85966E+03 -2.21821E+03  2.16545E+03 -3.67371E+03  2.35079E+03
 -3.97982E+03 -1.37530E+03 -1.59085E+03 -3.53237E+03  7.68186E+02 -4.43254E+03  3.10176E+03 -3.53760E+03
  3.31148E+03 -2.09955E+03  5.28397E+03  3.86167E+02  3.18189E+03  3.41805E+03  1.66855E+03  5.75822E+03
 -1.20233E+03  6.05925E+03 -2.90652E+03  1.55892E+03 -1.02307E+03 -1.34175E+03  1.78347E+02 -6.88175E+02
 -6.17377E+02 -1.42885E+02 -1.37593E+03  2.80039E+03 -2.57439E+03  1.05440E+03 -3.40684E+03  3.82030E+02
 -1.02647E+03 -3.37181E+03  1.10910E+03 -3.15284E+03  1.84429E+03 -3.90883E+03  3.03015E+03 -8.68789E+02
  2.82138E+03  2.26604E+03  8.76924E+02  2.50470E+03 -1.56105E+02  3.04355E+03 -2.45506E+03  2.66055E+03
 -2.85446E+03  7.60819E+02 -3.17244E+03 -1.62903E+03 -1.91577E+02 -2.25862E+03  2.04828E+03 -2.23264E+03
  1.94465E+03 -1.48628E+03  1.22461E+03 -4.59518E+02  6.01115E+02  7.88136E+02  1.56160E+03  3.11242E+02
  3.06647E+03  1.12926E+03 -2.54810E+02  3.87256E+02  9.62048E+02  2.77699E+03  1.10004E+03  7.45495E+02
 -8.35113E+02  3.99883E+03 -1.21958E+03  4.37633E+03 -3.57864E+03  1.54031E+03 -3.40329E+03  5.81587E+02
 -2.16544E+03 -3.46546E+03  4.66188E+02 -2.99099E+03  9.35175E+02 -1.17346E+03  2.62389E+03 -3.27525E+02
  1.64114E+03  8.33849E+02  9.27470E+02  9.67845E+02 -5.89866E+02  5.48225E+02 -5.63439E+02 -2.38218E+02
 -2.57277E+01 -1.12779E+03  1.00113E+03 -1.31216E+03 -4.28194E+02 -1.25937E+03  1.10693E+03 -6.03663E+02
  7.81923E+02 -1.01538E+02  1.43346E+03 -1.52986E+03 -6.51434E+02  1.24236E+03  2.12888E+03 -1.16169E+02
  3.53659E+01  2.13017E-01  2.16389E+03  7.88755E+02  4.67893E+02  1.67929E+03 -1.71178E+03  1.42529E+03
 -3.33419E+02  6.80655E+02 -1.29255E+03 -8.06198E+02 -2.79202E+03 -2.20359E+02  5.90188E+02 -1.39003E+03
  1.85572E+02 -7.31306E+02  1.20660E+03 -8.36221E+02  9.62789E+02  4.84000E+02 -2.27573E+02  1.24148E+03
 -1.89793E+03  1.76651E+03 -7.95898E+02 -6.03804E+02  1.98407E+02 -8.33039E+02  1.46809E+02 -1.01210E+03
 -2.66723E+02 -4.21655E+02 -8.23607E+02  5.15734E+02  1.40430E+03 -4.69599E+02  8.75832E+02  1.54745E+03
 -1.32922E+01 -4.47553E+01 -1.68997E+03  3.06670E+02  4.30228E+02 -4.02121E+02  1.14787E+03 -8.85166E+02
  1.44112E+03  5.69864E+02  2.08300E+03  6.40688E+02  3.13101E+02  9.46470E+02  3.56358E+02  1.16991E+03
 -4.53283E+02 -4.06738E+02 -5.08517E+01  5.59752E+02 -4.46483E+02 -1.45320E+03  3.42052E+02  7.92038E+02
  1.02629E+03 -9.88358E+02  8.59333E+02 -7.60074E+01  7.67626E+01  5.90664E+01  1.58367E+02  2.55284E+03
 -3.05607E+02  8.97447E+02 -5.13018E+02  2.46952E+02  3.53248E+02 -4.69403E+02 -1.74713E+03  8.92066E+02
 -3.42663E+02  1.31938E+03 -2.13180E+03  1.04267E+03 -2.77619E+03 -1.35034E+02 -1.83860E+03 -6.21780E+02
 -5.91321E+02 -1.27944E+03  1.66665E+03 -2.40294E+03 -6.11642E+02 -1.71223E+03  2.06693E+03 -7.12038E+02
  1.42997E+03 -6.77630E+02 -1.88726E+02  1.61725E+03 -7.70844E+01  1.51303E+03  1.91078E+02  1.15221E+03
 -1.11320E+02  3.42825E+02 -2.39760E+02 -2.59694E+02 -2.56698E+01 -7.19083E+02 -1.19632E+03  1.96055E+02
 -1.01303E+03 -5.46294E+02 -9.87691E+02 -1.01416E+03 -6.31126E+01 -3.70579E+02 -6.92958E+02 -8.90708E+02
  1.66818E+03  4.30575E+02 -1.12007E+03  3.31377E+02  9.69299E+02  1.55866E+03 -6.83500E+02  1.16947E+03
 -9.29855E+02  2.73454E+03 -4.98528E+01  3.68301E+02 -2.04163E+03 -5.78676E+02 -1.05109E+03 -5.65478E+02
 -1.12632E+03 -1.85967E+03  2.77522E+01 -9.97817E+02  4.59700E+02 -4.84984E+02  1.70102E+03 -1.16036E+03
  1.22348E+03 -2.43859E+02  7.47706E+02  4.92873E+02 -1.45885E+02 -3.67567E+02 -5.12035E+02 -1.57137E+01
  1.09699E+02  6.27244E+02  4.42258E+02 -9.55784E+02 -4.42769E+02  5.72533E+02  1.51691E+03  9.05901E+02
  1.83745E+01  6.49651E+02  6.94654E+02 -1.60686E+02 -2.89217E+02 -1.02266E+03  6.23750E+02 -3.34380E+02
  3.29584E+02 -3.29614E+02  3.15874E+02 -3.12573E+02  8.30609E+02 -8.69159E+02  6.65962E+02  6.11443E+02
  1.14695E+03  3.85017E+02 -4.27167E+02  5.14541E+02 -1.34210E+01 -4.75663E+01 -3.07564E+02 -3.19336E+02
  6.67973E+02 -1.18035E+03 -1.95828E+02 -8.52505E+02 -4.66211E+02  6.83722E+02 -7.91347E+02  5.57158E+01
 -1.31583E+03  2.28231E+02 -4.66719E+02 -1.20205E+03  6.69624E+02 -1.97166E+03  1.25317E+03  5.52570E+01
  6.55811E+02  1.15115E+01  4.30593E+02 -9.55190E+02 -3.38378E+02  1.38919E+03 -7.62366E+02  4.47043E+02
