 $NMID ID='MM_0lb_SNR200_20hz_g40_53.RAW', FMTDAT='(8E13.5)'
 TRAMP=1., VOLUME=1. $END
  3.09014E+05  2.74042E-01  3.37731E+05  2.49509E+05  8.36890E+04  3.37637E+05 -1.32076E+05  2.49766E+05
 -1.89783E+05  8.28908E+04 -1.11598E+05 -3.23310E+04  6.96831E+02 -5.02042E+04  5.32785E+04 -8.69920E+02
  3.47097E+04  5.23126E+04 -1.69110E+04  7.49253E+04 -6.04231E+04  6.21833E+04 -8.21996E+04  3.04910E+04
 -7.73740E+04 -1.00160E+04 -5.55816E+04 -5.00584E+04 -1.44538E+04 -6.72637E+04  2.68428E+04 -4.34259E+04
  3.67223E+04  3.95247E+03  1.49308E+04  4.61164E+04 -3.43471E+04  4.63640E+04 -6.40542E+04 -8.33871E+02
 -5.08812E+04 -5.46740E+04 -6.36795E+03 -7.36635E+04  3.25143E+04 -5.21399E+04  4.54397E+04 -1.63388E+04
  3.98051E+04  1.10366E+04  3.06429E+04  2.40817E+04  1.59695E+04  2.72929E+04 -4.51264E+03  2.64047E+04
 -2.20921E+04  1.33323E+04 -1.95605E+04 -3.81980E+03  4.07744E+03 -8.11240E+03  2.03746E+04  9.69475E+03
  7.27348E+03  3.16447E+04 -2.91697E+04  3.36500E+04 -5.96147E+04  2.24112E+03 -5.44305E+04 -4.04072E+04
 -1.22042E+04 -5.89379E+04  3.79074E+04 -4.26135E+04  5.35808E+04 -2.01161E+03  3.08034E+04  2.91684E+04
 -5.93945E+03  3.16595E+04 -2.77886E+04  1.25135E+04 -2.63137E+04 -6.38148E+03 -1.38933E+04 -1.06245E+04
 -7.15829E+03 -1.01216E+04 -8.88113E+02 -1.62472E+04  5.45540E+03 -2.21071E+04  1.43609E+04 -1.39954E+04
  1.21994E+04  4.32199E+03 -5.01520E+03  1.33667E+04 -1.82129E+04 -1.10400E+03 -7.22469E+03 -2.89435E+04
  1.89142E+04 -3.87309E+04  4.32185E+04 -1.82236E+04  3.94040E+04  1.81477E+04  1.32518E+04  4.07186E+04
 -1.54503E+04  2.96728E+04 -2.20920E+04  6.28643E+02 -7.36991E+03 -2.44444E+04  2.09803E+04 -2.95877E+04
  3.71459E+04 -6.69448E+03  2.98085E+04  2.22226E+04  1.44637E+04  4.11722E+04 -7.87111E+03  4.21412E+04
 -2.67454E+04  2.70379E+04 -3.49227E+04  7.69434E+03 -3.59850E+04 -1.45805E+04 -1.98578E+04 -3.37975E+04
  6.68979E+03 -3.16615E+04  2.81161E+04 -1.10630E+04  2.58433E+04  1.04162E+04  2.67024E+03  1.79237E+04
 -1.34449E+04  7.19038E+03 -8.77380E+03 -8.00365E+03  5.69588E+03 -1.01251E+04  1.59814E+04  6.80687E+03
  1.22884E+04  2.11153E+04 -6.94297E+03  2.30192E+04 -2.07752E+04  8.01242E+03 -2.40768E+04 -7.22021E+03
 -1.53191E+04 -1.64164E+04 -4.18685E+03 -1.42063E+04  3.15820E+03 -1.14278E+04  9.97617E+03 -1.18152E+04
  1.90221E+04 -1.03437E+04  2.58286E+04  7.52026E+02  2.04652E+04  1.44526E+04  3.45307E+03  3.10311E+04
 -1.60258E+04  2.67587E+04 -2.45399E+04  8.80793E+03 -1.85787E+04 -1.04966E+04 -3.58787E+03 -1.29967E+04
  3.34110E+03 -4.07059E+03 -2.16419E+03  4.92134E+03 -1.21203E+04  6.17672E+03 -1.10930E+04 -4.38087E+03
 -7.01701E+03 -1.35389E+04  4.06432E+03 -1.85127E+04  1.09539E+04 -1.20080E+04  1.23973E+04 -1.27844E+03
  7.50101E+03  8.71803E+03 -1.50137E+03  1.43266E+04 -9.20718E+03  8.07310E+03 -1.39637E+04 -3.28850E+03
 -1.07456E+04 -1.35927E+04 -1.06243E+03 -1.71354E+04  7.80583E+03 -1.41607E+04  1.52440E+04 -5.90459E+03
  1.40511E+04  1.10683E+03  1.04098E+04  3.48848E+03  5.02086E+03  9.11761E+02  6.48554E+03 -1.46885E+03
  1.11168E+04  2.95803E+03  1.29755E+04  1.16194E+04  7.91178E+03  2.20974E+04 -3.00245E+03  2.34754E+04
 -1.35616E+04  1.73151E+04 -2.16046E+04  8.08110E+03 -2.24540E+04 -1.06752E+03 -1.89804E+04 -1.19171E+04
 -1.01954E+04 -1.74580E+04  6.29427E+03 -1.61271E+04  1.45974E+04 -1.01548E+04  1.38653E+04  3.14813E+03
  6.93863E+03  9.56673E+03 -6.20869E+03  9.44959E+03 -1.17583E+04  2.38303E+03 -9.75736E+03 -7.14635E+03
 -1.49264E+03 -1.07970E+04  6.21093E+03 -9.07304E+03  6.36375E+03 -4.82105E+02  1.47565E+03  4.02740E+03
 -5.67575E+03  1.38755E+03 -3.23691E+03 -4.73441E+03  1.85660E+03 -9.04258E+03  6.52947E+03 -7.51984E+03
  1.08077E+04 -4.55241E+03  9.54448E+03  3.74175E+03  8.62263E+03  8.39245E+03  2.92210E+03  1.19556E+04
 -1.74045E+03  1.32550E+04 -9.63225E+03  8.26569E+03 -9.03712E+03  2.98585E+03 -8.40485E+03 -1.63508E+03
 -3.20507E+03 -2.20148E+03  3.01176E+02  1.23834E+03 -2.15838E+03  2.19360E+03 -2.46455E+03  4.02770E+03
 -6.82334E+03 -1.23895E+03 -7.68858E+03 -5.96100E+03 -3.80478E+03 -1.02247E+04  3.27907E+03 -6.23084E+03
  7.27821E+03 -3.90435E+03  4.34220E+03  2.66152E+03  1.14949E+03  2.77047E+03 -2.29831E+03 -1.38931E+02
 -3.54271E+03 -3.02544E+03 -2.77307E+02 -5.84859E+03  3.39836E+03 -5.67365E+03  8.57265E+03 -2.28917E+03
  9.39938E+03  1.37187E+03  7.98076E+03  4.60639E+03  8.17696E+02  7.49538E+03 -3.89929E+03  6.84636E+03
 -6.38439E+03  2.06778E+03 -2.56756E+03 -3.58347E+02  1.85894E+03 -1.72126E+03  4.34831E+03 -5.05473E+02
  3.14690E+03  3.25154E+03  1.50524E+03  4.53798E+03 -4.09322E+03  5.21458E+03 -8.12572E+03  2.09900E+03
 -3.31891E+03 -3.21530E+03  8.06057E+02 -4.48782E+03  2.79162E+03 -3.77150E+03  2.14393E+03  6.86426E+02
  1.03045E+03  1.65752E+03 -4.52253E+03  2.85644E+03 -4.28544E+03  1.97666E+03 -3.05178E+03 -6.27679E+01
 -2.16299E+03 -4.03550E+03  9.70843E+02 -6.41383E+03  5.57882E+03 -3.24074E+03  5.26823E+03  1.15174E+03
  3.73511E+03  4.32782E+03  6.74770E+02  6.27857E+03 -3.12109E+03  4.18674E+03 -4.03905E+03  9.69388E+02
 -5.02903E+03 -3.37807E+03 -2.03344E+03 -4.41388E+03  2.55529E+03 -4.17419E+03  2.69340E+03 -3.60449E+03
  2.78525E+03  1.37036E+03 -3.15549E+02  1.64745E+03  1.29152E+03 -1.06309E+03 -5.91166E+02 -8.82210E+02
  3.66307E+03 -1.25450E+03  3.94940E+03  1.22536E+03  4.33281E+03  2.83228E+03  4.09151E+03  6.80486E+03
 -1.08549E+03  6.15282E+03 -6.67351E+03  5.41388E+03 -8.02416E+03  7.89116E+02 -6.43181E+03 -1.33844E+03
 -3.58645E+03 -4.99727E+03 -8.42224E+01 -2.85651E+03  2.92463E+03 -1.44500E+03  1.96471E+03 -1.87793E+03
  2.65355E+02 -1.77846E+03  2.18745E+03 -2.04663E+03  3.70710E+03 -3.23461E+02  2.58361E+03 -4.10392E+02
  3.28991E+03  8.03324E+02  6.72638E+02  1.86391E+03 -1.71631E+03  1.70270E+03 -2.80267E+03  2.00795E+03
 -3.82206E+03 -1.34505E+02  2.55291E+02 -2.25102E+03  4.97431E+02 -3.54085E+03  3.41760E+03 -3.65760E+03
  2.87211E+03 -1.44512E+03  5.35810E+03 -2.55252E+02  4.25354E+03  4.32886E+03  1.12517E+03  5.16763E+03
 -1.82125E+03  4.49838E+03 -2.90016E+03  1.79807E+03 -1.59402E+03 -7.35350E+02 -1.43244E+03 -6.54752E+02
  2.28219E+02 -2.98997E+02 -6.39247E+02  3.14119E+03 -1.97070E+03  5.17940E+02 -3.89940E+03  2.19888E+02
 -6.84179E+02 -3.13526E+03  7.82639E+02 -3.19938E+03  2.20517E+03 -2.57340E+03  2.62179E+03 -8.69093E+02
  3.66325E+03  1.44128E+03  2.44244E+03  1.72947E+03 -1.22508E+03  3.04649E+03 -1.61336E+03  1.68846E+03
 -3.00462E+03  4.94298E+02 -2.87766E+03 -1.28136E+03 -2.37847E+01 -2.56015E+03  1.62695E+03 -2.86789E+03
  1.76120E+03 -5.70825E+02  2.13204E+03  5.53165E+02  2.94537E+02  2.19641E+03  2.04202E+02  9.50303E+02
  1.99260E+03  1.43173E+02  9.58323E+02  1.94808E+01  8.06137E+01  2.49044E+03  5.97297E+02  1.76239E+03
 -1.17369E+03  2.51047E+03 -1.73065E+03  4.37300E+03 -1.31327E+03  2.54946E+03 -4.13975E+03  1.61006E+02
 -1.47486E+03 -2.68003E+03 -7.48663E+01 -5.05853E+03  1.29774E+03 -2.22906E+03  2.88673E+03 -1.06943E+03
  2.09203E+03  2.30555E+03  7.85775E+02  1.66523E+03 -8.40256E+02  1.55571E+03  4.26029E+01  2.78829E+02
 -6.75730E+02 -4.37621E+01  1.55725E+03 -1.54000E+03  1.09731E+03 -6.24267E+02 -2.41369E+02  5.14259E+02
 -3.19254E+02  5.59815E+02  1.11215E+03 -7.22773E+02 -8.99423E+02  1.68638E+02  1.19823E+03  5.64306E+02
 -4.65874E+02  1.38229E+02  1.04815E+03  5.90302E+02 -1.44329E+03  3.04289E+03 -1.00058E+03  1.96837E+03
 -1.00032E+03  2.69520E+01 -9.89339E+02  2.44711E+02 -1.83473E+03 -3.30781E+02  1.08391E+02 -2.81767E+02
  3.04496E+02 -8.03418E+02 -5.64397E+00 -3.51382E+02 -6.71061E+02  2.60677E+03 -6.36996E+02  1.73544E+03
 -1.53407E+03 -1.12565E+02 -1.25716E+03 -6.43620E+02 -8.84041E+02 -1.97727E+03  1.66343E+02 -1.44365E+03
  2.46765E+02 -6.05367E+02  6.65045E+02 -1.24977E+03  1.56143E+03 -7.96692E+02  8.44298E+02  6.08969E+02
  2.14646E+02 -3.97524E+02 -6.91311E+02 -7.73686E+02  6.46341E+02 -3.36218E+02  2.28804E+03 -1.26309E+03
  9.96919E+02  5.68242E+02  1.88406E+03  1.02511E+03  9.89075E+02  1.46220E+03 -5.44969E+02  1.75902E+03
 -7.33356E+02  4.02421E+02 -7.67553E+02 -2.59204E+02 -3.76537E+02 -6.94661E+02 -4.84551E+02  2.82490E+02
  1.23775E+03  7.87588E+02  2.51746E+02  9.93288E+02 -5.62417E+01  1.46205E+03  4.53407E+02  8.79317E+02
 -1.23593E+02  1.32247E+02 -3.39877E+02 -1.95402E+02  2.28379E+02  6.54120E+02 -2.72142E+02  1.26444E+03
 -4.64493E+02  9.83454E+02 -1.56373E+03  9.93926E+02 -1.57667E+03  3.31072E+02 -1.73381E+03  3.62928E+02
 -4.75156E+02 -1.40291E+03  6.19391E+02 -1.64302E+03  9.02370E+00 -1.01391E+03  2.21029E+03 -1.45041E+03
  2.24757E+03  5.09318E+01  4.48283E+02  1.67936E+03 -9.49601E+02  1.34483E+03 -5.93637E+02  1.90630E+03
 -8.09724E+02  6.30546E+02  3.93040E+02  1.65360E+02 -6.12506E+01  5.19320E+02 -6.22293E+02  4.42306E+02
 -2.35500E+03  2.96229E+02 -8.78939E+02  5.37841E+02  3.38137E+02 -6.40352E+02 -4.80692E+02 -7.34416E+02
  1.28551E+03 -1.75478E+02  9.22268E+02 -1.32475E+03  6.29072E+02  6.41324E+02 -9.00131E+02  2.56337E+03
 -1.03899E+03  1.77781E+03 -9.47974E+02  5.49926E+02 -2.24669E+03  2.81919E+02 -1.02984E+03 -1.44168E+03
 -7.78883E+02 -1.12531E+03  5.15939E+02 -1.79404E+03 -3.20454E+02  2.77710E+02  1.61075E+03  1.23538E+03
  4.71461E+02 -9.46546E+01  1.15905E+03  8.90460E+02  4.37440E+01  1.55317E+02 -5.67263E+02 -9.11085E+01
  1.09825E+03 -7.10974E+01  4.81770E+02  1.19832E+03  2.91434E+02 -2.37202E+02  9.86631E+02 -6.79980E+02
 -2.56598E+02  5.79673E+01 -2.53752E+02  1.89534E+02  2.25228E+02  5.35780E+01 -3.58058E+02 -7.82660E+02
 -9.55721E+02 -6.09134E+02 -4.71084E+02 -6.40048E+01 -3.29879E+02 -6.14741E+02  6.58403E+02  8.28445E+02
  9.04876E+02 -5.26694E+02  3.52552E+02 -5.45435E+00 -2.56567E+02  4.26599E+01 -1.33807E+02 -7.64087E+02
  4.54812E+02  2.49680E+02 -4.27215E+02  2.89908E+02 -2.61307E+02  1.06327E+03 -1.15995E+02 -3.57696E+02
 -1.10057E+03  1.23786E+03 -6.40975E+02 -4.73000E+02  4.69508E+02 -1.26337E+03  9.38493E+02  1.29155E+02
  1.19405E+03 -1.27875E+02 -6.21396E+02 -6.40232E+02 -7.96085E+01  9.67225E+02 -2.27262E+02  1.08452E+03
