 $NMID ID='MM_0lb_SNR200_18hz_g55_12.RAW', FMTDAT='(8E13.5)'
 TRAMP=1., VOLUME=1. $END
  3.08936E+05 -2.09350E+01  3.37743E+05  2.51331E+05  8.51617E+04  3.38568E+05 -1.33414E+05  2.50159E+05
 -1.90150E+05  8.18428E+04 -1.10745E+05 -3.31595E+04  1.83198E+03 -5.03485E+04  5.48082E+04 -5.22266E+02
  3.53025E+04  5.30095E+04 -1.65468E+04  7.50559E+04 -6.16021E+04  6.25945E+04 -8.33714E+04  3.15339E+04
 -8.01026E+04 -1.08524E+04 -5.65362E+04 -5.00128E+04 -1.47209E+04 -6.88246E+04  2.80766E+04 -4.46628E+04
  3.99735E+04  3.74250E+03  1.63309E+04  4.73224E+04 -3.40168E+04  4.69439E+04 -6.66060E+04 -2.58580E+02
 -5.34062E+04 -5.64502E+04 -6.39562E+03 -7.55815E+04  3.40040E+04 -5.43517E+04  4.66390E+04 -1.69015E+04
  4.27264E+04  1.11559E+04  3.08289E+04  2.46582E+04  1.61606E+04  2.84985E+04 -4.12473E+03  2.62661E+04
 -2.10916E+04  1.25796E+04 -1.80924E+04 -5.34823E+03  4.59424E+03 -8.29564E+03  2.26195E+04  1.07918E+04
  7.31239E+03  3.46418E+04 -3.10904E+04  3.43454E+04 -6.19489E+04  2.45452E+03 -5.62329E+04 -4.30695E+04
 -1.27936E+04 -6.12990E+04  3.87398E+04 -4.37200E+04  5.74084E+04 -1.61381E+03  3.35501E+04  3.15473E+04
 -6.64145E+03  3.43153E+04 -2.85415E+04  1.33821E+04 -2.83294E+04 -4.98968E+03 -1.66084E+04 -9.80793E+03
 -6.61989E+03 -1.25547E+04 -1.08980E+03 -1.67559E+04  6.54777E+03 -2.41720E+04  1.55671E+04 -1.46567E+04
  1.14937E+04  4.70049E+03 -7.29589E+03  1.33044E+04 -2.02533E+04 -4.27711E+03 -8.69004E+03 -3.27241E+04
  2.11887E+04 -4.26732E+04  4.52539E+04 -1.94650E+04  4.19048E+04  1.91682E+04  1.50998E+04  4.24388E+04
 -1.57955E+04  3.16655E+04 -2.36910E+04  2.35275E+03 -9.81879E+03 -2.62003E+04  2.07787E+04 -3.19344E+04
  3.88150E+04 -7.69366E+03  3.38939E+04  2.28599E+04  1.70352E+04  4.38054E+04 -8.06873E+03  4.75958E+04
 -2.98742E+04  3.13646E+04 -3.90229E+04  7.16995E+03 -3.91681E+04 -1.49713E+04 -2.19916E+04 -3.63277E+04
  6.40400E+03 -3.62311E+04  3.04778E+04 -1.31681E+04  2.71820E+04  1.09282E+04  2.63951E+03  1.76011E+04
 -1.47223E+04  7.18090E+03 -9.56746E+03 -7.40254E+03  6.49407E+03 -1.05209E+04  1.89085E+04  6.63581E+03
  1.32232E+04  2.18953E+04 -7.39841E+03  2.37441E+04 -2.13617E+04  1.03757E+04 -2.57996E+04 -5.87039E+03
 -1.78579E+04 -1.67689E+04 -7.13664E+03 -1.87320E+04  4.95566E+03 -1.60865E+04  1.38145E+04 -1.51460E+04
  2.28391E+04 -1.19947E+04  2.99839E+04  9.96833E+02  2.25298E+04  1.78152E+04  4.33487E+03  3.41686E+04
 -1.67616E+04  2.82060E+04 -2.67926E+04  1.03061E+04 -1.94185E+04 -1.00348E+04 -5.04008E+03 -1.48175E+04
  1.67204E+03 -3.84353E+03 -2.52933E+03  5.67191E+03 -1.42071E+04  5.53657E+03 -1.59441E+04 -6.25483E+03
 -9.64830E+03 -1.54147E+04  5.61078E+03 -2.04331E+04  1.36449E+04 -1.62643E+04  1.51032E+04 -1.04449E+03
  1.00984E+04  1.09497E+04 -1.08240E+03  1.70945E+04 -1.06398E+04  9.27773E+03 -1.68021E+04 -2.85134E+03
 -1.26942E+04 -1.38924E+04 -7.58506E+02 -2.08751E+04  9.26606E+03 -1.63289E+04  1.81873E+04 -7.61564E+03
  1.63403E+04  5.33606E+02  1.05317E+04  3.21964E+03  5.58019E+03  1.21680E+03  8.08734E+03 -1.47085E+03
  1.45548E+04  2.54937E+03  1.63336E+04  1.46764E+04  1.10258E+04  2.62799E+04 -2.61164E+03  2.78614E+04
 -1.73943E+04  2.28598E+04 -2.79019E+04  1.18410E+04 -2.70975E+04 -1.51002E+03 -2.43281E+04 -1.59902E+04
 -1.08979E+04 -2.25372E+04  7.41032E+03 -2.08146E+04  1.78572E+04 -1.03313E+04  1.73986E+04  4.84277E+03
  6.42698E+03  1.19266E+04 -7.21730E+03  1.16646E+04 -1.38113E+04  2.40765E+03 -1.09556E+04 -9.13059E+03
 -1.25305E+03 -1.21786E+04  6.52318E+03 -9.78855E+03  8.95089E+03 -2.07427E+03  1.98225E+03  5.17979E+03
 -5.84840E+03  1.50027E+03 -3.78613E+03 -6.66258E+03  6.43819E+02 -1.18382E+04  8.89989E+03 -1.09690E+04
  1.29459E+04 -5.04217E+03  1.40010E+04  3.09576E+03  1.20406E+04  1.03419E+04  5.39222E+03  1.52397E+04
 -1.78606E+03  1.71421E+04 -1.10073E+04  1.17038E+04 -1.23169E+04  2.92931E+03 -9.84042E+03 -2.45068E+03
 -3.66726E+03 -3.46909E+03 -5.75681E+02  1.08408E+03 -2.83915E+03  2.31773E+03 -3.48458E+03  4.35273E+03
 -7.69968E+03 -1.11999E+03 -8.39009E+03 -7.62029E+03 -2.89274E+03 -1.10107E+04  3.89072E+03 -8.84222E+03
  7.99807E+03 -3.95130E+03  4.50013E+03  1.39976E+03 -4.09232E+02  3.75134E+03 -3.91081E+03 -1.41141E+01
 -3.40463E+03 -5.11964E+03 -7.01641E+02 -7.85830E+03  3.12302E+03 -8.54212E+03  1.03260E+04 -4.75989E+03
  1.33359E+04  1.24253E+03  8.94802E+03  8.14186E+03  2.15596E+03  9.27407E+03 -5.92386E+03  7.72236E+03
 -6.77246E+03  2.83687E+03 -3.55087E+03 -2.33352E+03  1.19319E+03 -2.26034E+03  3.55406E+03 -1.45182E+03
  4.94369E+03  3.63974E+03  1.89157E+03  7.33173E+03 -3.94217E+03  7.30362E+03 -1.00247E+04  2.66827E+03
 -5.48381E+03 -2.67653E+03 -7.73522E+02 -7.22743E+03  3.57534E+03 -3.62413E+03  3.83331E+03  1.17638E+03
 -1.08284E+03  4.39667E+03 -4.52744E+03  5.68508E+03 -5.90140E+03  1.92859E+03 -6.48514E+03 -1.34094E+03
 -3.44589E+03 -6.54018E+03  4.71549E+02 -9.00100E+03  6.97751E+03 -5.75381E+03  7.24060E+03  2.06557E+02
  4.88055E+03  7.33150E+03 -2.62036E+02  8.08887E+03 -6.16684E+03  5.72160E+03 -5.26351E+03 -5.77166E+02
 -5.75473E+03 -5.19081E+03 -2.25990E+03 -5.57455E+03  2.44337E+03 -5.31740E+03  3.65334E+03 -2.52620E+03
  2.54637E+03 -8.44948E+02 -5.56140E+02  1.29683E+03  3.87781E+02 -1.33114E+03  7.20516E+01 -2.08801E+03
  4.43847E+03 -9.26692E+02  4.73739E+03  6.08241E+02  6.59556E+03  2.93785E+03  5.90404E+03  8.03915E+03
 -6.46714E+02  9.78096E+03 -8.51227E+03  6.84189E+03 -1.07884E+04  1.50617E+03 -7.63834E+03 -3.46075E+03
 -5.35727E+03 -7.87856E+03 -6.31086E+02 -5.92586E+03  1.63980E+03 -1.97878E+03  2.58168E+03 -1.71992E+03
  1.64115E+03 -1.12783E+03  2.08690E+03 -1.39891E+03  4.50387E+03 -6.84481E+02  4.24804E+03  3.25879E+02
  4.98431E+03 -9.49758E+01  1.13540E+03  3.80758E+03 -1.21513E+03  2.27221E+03 -4.91482E+03  3.94540E+03
 -4.90113E+03 -2.02405E+03 -1.85099E+02 -3.37956E+03  2.90916E+02 -5.67937E+03  3.24786E+03 -6.12216E+03
  5.94088E+03 -3.62057E+03  6.92783E+03  3.28495E+02  5.86616E+03  4.32891E+03  2.03605E+03  5.87242E+03
 -3.10728E+03  6.79569E+03 -2.77050E+03  3.32636E+03 -1.96474E+03 -9.82361E+02 -3.98831E+02 -7.98743E+02
 -6.13815E+02  1.15587E+03  1.05987E+02  1.85804E+03 -2.58789E+03  7.65014E+02 -3.96625E+03 -8.67213E+02
 -1.70236E+03 -4.01458E+03  9.59283E+02 -4.18590E+03  3.11096E+03 -4.33236E+03  4.79692E+03 -1.72266E+03
  4.32691E+03  1.36879E+03  1.68754E+03  4.86333E+03 -9.84375E+02  4.47425E+03 -3.14360E+03  3.31107E+03
 -5.14476E+03  3.59994E+02 -4.02597E+03 -2.88300E+03  6.35808E+02 -3.94072E+03  1.69562E+03 -2.21343E+03
  2.98307E+03 -2.55410E+03  2.31157E+03 -2.91099E+01  5.35393E+02  1.14333E+03 -4.55540E+02  8.33864E+01
 -2.12303E+02  9.18187E+02  1.72014E+03  2.34197E+02  1.45070E+02  2.45530E+03  3.09796E+03  1.42212E+03
 -1.52001E+03  3.51167E+03 -3.29687E+03  4.98140E+03 -3.73888E+03  1.69194E+03 -5.15207E+03 -6.40283E+02
 -2.04138E+03 -4.32137E+03  9.87419E+02 -4.52870E+03  1.87626E+03 -3.05436E+03  3.07275E+03 -1.20355E+03
  1.96921E+03  1.93919E+03  6.31422E+02  2.75807E+03 -1.54769E+03  1.13419E+03 -1.55258E+03 -3.21676E+02
 -4.02818E+02 -2.28791E+03  1.34956E+03 -6.61547E+02  8.07215E+02 -1.56188E+03  1.87479E+03  8.45564E+02
  7.46667E+02 -2.82741E+02  5.06985E+02  1.84027E+03 -5.83491E+02  1.11882E+03  7.57452E+02 -7.98638E+02
  6.32870E+01 -1.93014E+02  2.19360E+03  7.64837E+02  2.73529E+02  3.29948E+03 -7.44437E+02  4.12672E+03
 -1.35590E+03  1.45887E+03 -1.54327E+03  1.00051E+03 -2.38392E+03 -3.39550E+02  1.24949E+03 -1.50691E+03
  1.90865E+03 -9.18419E+01  1.37293E+03 -8.88632E+02  2.00208E+03  2.20313E+02 -1.08334E+03  1.67480E+03
 -1.20988E+03  2.05470E+02 -1.61659E+03 -9.53321E+02 -8.99539E+02 -1.93397E+03  7.04581E+01 -1.57747E+03
  3.32779E+02 -1.09765E+03  2.03910E+03 -1.92541E+02  1.94652E+03  1.25750E+03  6.98790E+02  2.28046E+03
 -2.36454E+02 -3.49049E+02  4.70213E+02  9.69906E+02  4.07752E+02 -6.84838E+02  2.42033E+03 -1.16109E+03
  2.65312E+03  3.80307E+01  3.12365E+03  1.13682E+03  2.22280E+03  2.12548E+03 -9.70720E+02  2.21723E+03
 -2.63928E+03 -7.01254E+00 -1.92826E+03 -4.85232E+01 -5.54788E+02 -2.01202E+03  5.13698E+01 -1.51073E+03
  1.48381E+03 -7.10076E+02  1.60880E+03  9.78504E+01  2.45236E+02  1.55623E+03 -1.12328E+03  1.04305E+03
  2.47071E+02  9.98819E+01 -3.02269E+02  8.42573E+02 -2.24431E+01  1.21279E+02 -1.15721E+03  7.09698E+02
  7.90205E+01  8.79274E+02 -2.41813E+03  7.27591E+02 -1.73373E+03 -8.67902E+02 -2.90336E+03 -9.50125E+02
 -5.67080E+02 -2.46364E+03  4.79121E+02 -3.33630E+03  1.39059E+03 -2.68188E+03  3.19554E+03 -1.25488E+03
  2.07579E+03 -1.13261E+03  7.06214E+02  2.30011E+03 -4.40020E+02  1.05212E+03 -5.55241E+02  1.19538E+03
  7.97481E+01  1.18884E+03 -1.22964E+03 -1.47518E+03  2.19777E+01  4.57473E+02 -1.10608E+03  1.55129E+03
 -7.24388E+02 -1.39404E+02 -2.24000E+03 -1.08629E+03  5.34143E+02 -9.25091E+02 -8.13594E+02 -1.69101E+03
  1.57598E+03 -3.52241E+02  1.56324E+02  9.10348E+01  1.90422E+03  6.20070E+02  4.94454E+02  1.91222E+03
 -4.92031E+02  2.24721E+03 -2.49288E+03  1.33424E+03 -1.60935E+03  2.56987E+02 -1.29252E+03 -1.17682E+03
 -1.93828E+03 -2.02783E+03 -3.90604E+02 -1.36858E+03  7.04182E+02 -3.17747E+02  2.18285E+03  6.59944E+02
  8.71135E+02 -3.84378E+02  1.09056E+01 -1.08022E+03 -1.39817E+02 -1.51944E+03 -8.54966E+01 -8.80554E+02
  2.54749E+02  1.95524E+02  8.09148E+02 -5.74681E+01  1.55005E+02  1.13348E+03  3.73281E+02  1.61015E+02
 -1.93630E+02  1.29291E+03  7.86637E+02  3.66416E+02 -3.00415E+01 -8.91969E+02 -1.16653E+02 -6.15615E+02
  2.68438E+02 -1.24088E+03  3.77955E+02  7.15334E+02  3.56558E+02 -7.64441E+01  3.44260E+02  1.19057E+03
  6.66942E+02  7.44552E+02 -1.06812E+03  4.83855E+02 -1.13934E+03  2.82821E+02 -1.40121E+03  8.24915E+01
 -3.85075E+02  4.97882E+02  2.82487E+02 -2.79471E+02 -1.51738E+03  9.85960E+02 -6.51648E+02 -8.53727E+02
 -9.16835E+02  2.65149E+02  5.99519E+02 -6.28484E+02  2.29894E+02 -2.59882E+03  6.01813E+02 -1.05983E+03
  1.46448E+03  4.02466E+02 -3.02520E+02 -4.28114E+01  2.99102E+02  1.31437E+03  7.77476E+01 -1.19398E+02
