 $NMID ID='MM_0lb_SNR200_18hz_g60_57.RAW', FMTDAT='(8E13.5)'
 TRAMP=1., VOLUME=1. $END
  3.09717E+05  1.08491E+02  3.37612E+05  2.49131E+05  8.48647E+04  3.37289E+05 -1.32673E+05  2.50810E+05
 -1.90563E+05  8.21058E+04 -1.10916E+05 -3.18809E+04  6.13541E+02 -5.12520E+04  5.32217E+04 -4.10610E+02
  3.41626E+04  5.20800E+04 -1.64339E+04  7.45518E+04 -6.07726E+04  6.34414E+04 -8.53717E+04  3.07935E+04
 -8.14644E+04 -1.18360E+04 -5.66432E+04 -5.00326E+04 -1.52000E+04 -7.03324E+04  2.56863E+04 -4.52620E+04
  3.86851E+04  2.40125E+03  1.69839E+04  4.77223E+04 -3.35306E+04  4.69298E+04 -6.71345E+04 -3.44108E+02
 -5.26320E+04 -5.59123E+04 -6.88576E+03 -7.69788E+04  3.35856E+04 -5.42611E+04  4.68061E+04 -1.75099E+04
  4.26794E+04  1.06130E+04  3.05309E+04  2.50354E+04  1.57211E+04  2.88807E+04 -4.97208E+03  2.67032E+04
 -2.16611E+04  1.20199E+04 -1.85790E+04 -4.75025E+03  5.34756E+03 -7.38124E+03  2.12662E+04  1.15427E+04
  6.94419E+03  3.45817E+04 -3.19771E+04  3.48989E+04 -6.14880E+04  1.89220E+03 -5.61879E+04 -4.22896E+04
 -1.22680E+04 -6.36209E+04  4.03991E+04 -4.47787E+04  5.69544E+04 -2.27270E+03  3.24356E+04  3.20254E+04
 -5.91346E+03  3.47345E+04 -2.90217E+04  1.54147E+04 -3.01782E+04 -4.88710E+03 -1.51121E+04 -1.18032E+04
 -8.15509E+03 -1.24471E+04 -2.21372E+03 -1.81419E+04  7.30940E+03 -2.31608E+04  1.58810E+04 -1.30711E+04
  1.13242E+04  5.75911E+03 -8.12188E+03  1.31400E+04 -2.20163E+04 -2.81170E+03 -7.41481E+03 -3.25795E+04
  2.10255E+04 -4.20702E+04  4.63028E+04 -1.92493E+04  4.47537E+04  2.02287E+04  1.43653E+04  4.33673E+04
 -1.56010E+04  3.34474E+04 -2.47803E+04  1.19851E+03 -9.28683E+03 -2.61627E+04  2.17543E+04 -3.25511E+04
  4.00554E+04 -8.65429E+03  3.36557E+04  2.34151E+04  1.69480E+04  4.48089E+04 -7.12114E+03  4.73612E+04
 -3.09656E+04  3.18233E+04 -4.15221E+04  8.81951E+03 -4.03785E+04 -1.65939E+04 -2.27208E+04 -3.64805E+04
  7.12530E+03 -3.64593E+04  2.97529E+04 -1.32881E+04  2.85446E+04  1.13647E+04  3.91360E+03  1.93517E+04
 -1.31794E+04  6.77398E+03 -1.04430E+04 -7.57087E+03  6.87899E+03 -1.00093E+04  1.81999E+04  5.97789E+03
  1.29170E+04  2.19407E+04 -7.09607E+03  2.49853E+04 -2.25866E+04  9.93586E+03 -2.60032E+04 -5.82370E+03
 -1.83112E+04 -1.67266E+04 -6.72359E+03 -1.81727E+04  4.01690E+03 -1.81004E+04  1.38242E+04 -1.54846E+04
  2.44769E+04 -1.26094E+04  2.96859E+04  2.97304E+03  2.23767E+04  1.88807E+04  4.07445E+03  3.39758E+04
 -1.73948E+04  2.90029E+04 -2.65155E+04  9.95841E+03 -1.96800E+04 -1.11270E+04 -3.74788E+03 -1.47149E+04
  1.19362E+03 -3.68223E+03 -4.07446E+03  6.35153E+03 -1.59214E+04  5.69716E+03 -1.55745E+04 -5.56525E+03
 -9.49009E+03 -1.73491E+04  5.06632E+03 -2.03934E+04  1.40439E+04 -1.50518E+04  1.56063E+04 -2.72755E+02
  1.01764E+04  1.22196E+04 -1.51493E+03  1.86200E+04 -1.27200E+04  9.86589E+03 -1.78162E+04 -4.54365E+03
 -1.35589E+04 -1.43373E+04 -2.77893E+03 -2.09289E+04  9.08234E+03 -1.72963E+04  1.74834E+04 -8.25898E+03
  1.49090E+04  2.01466E+02  1.18436E+04  5.99561E+03  5.48217E+03  3.86695E+02  7.98834E+03 -2.15560E+03
  1.46436E+04  2.72866E+03  1.71691E+04  1.38637E+04  9.59586E+03  2.71003E+04 -3.65690E+03  2.94536E+04
 -1.75643E+04  2.31141E+04 -2.69366E+04  1.09993E+04 -2.89524E+04 -2.46934E+03 -2.36903E+04 -1.60091E+04
 -1.06438E+04 -2.33541E+04  7.21511E+03 -2.15065E+04  1.86487E+04 -1.06624E+04  1.72302E+04  5.68840E+03
  7.76498E+03  1.27525E+04 -8.69710E+03  1.12905E+04 -1.41248E+04  3.20722E+03 -1.13804E+04 -9.10065E+03
 -4.01397E+02 -1.43096E+04  6.91063E+03 -1.14429E+04  8.55400E+03 -7.59997E+02  1.53530E+03  4.96916E+03
 -6.09614E+03  1.05171E+03 -4.76844E+03 -4.78864E+03  6.80591E+02 -1.09931E+04  8.06361E+03 -1.08084E+04
  1.31499E+04 -6.07395E+03  1.42858E+04  4.22486E+03  1.18260E+04  1.13128E+04  5.09138E+03  1.66546E+04
 -2.47500E+03  1.80304E+04 -1.22293E+04  1.24909E+04 -1.28338E+04  3.32265E+03 -9.47117E+03 -2.12044E+03
 -4.80658E+03 -3.73386E+03 -9.10727E+02  1.79671E+03 -9.51379E+02  1.80271E+03 -3.95081E+03  3.50755E+03
 -9.57811E+03 -2.13633E+03 -1.06882E+04 -6.95140E+03 -3.31498E+03 -1.24881E+04  4.91987E+03 -1.01816E+04
  7.09939E+03 -4.03991E+03  5.59518E+03  2.09030E+03  4.89263E+02  2.87616E+03 -4.87912E+03 -1.29014E+03
 -3.31483E+03 -6.41520E+03 -1.20040E+02 -7.93054E+03  4.62917E+03 -9.68199E+03  1.13465E+04 -4.53470E+03
  1.33038E+04  1.13225E+03  9.89403E+03  6.90931E+03  2.32416E+03  1.02373E+04 -6.38895E+03  1.03772E+04
 -8.27678E+03  3.49293E+03 -3.57817E+03 -1.56701E+03  1.24339E+03 -1.67933E+03  4.35435E+03 -1.10208E+03
  3.35694E+03  1.99673E+03  9.85866E+02  7.28295E+03 -4.51736E+03  6.62892E+03 -8.10273E+03  2.13976E+03
 -5.16764E+03 -4.36743E+03  1.49319E+03 -7.73124E+03  4.29190E+03 -3.04051E+03  4.56656E+03  1.91626E+03
  5.11941E+02  4.42677E+03 -4.24555E+03  6.47589E+03 -6.34017E+03  2.66497E+03 -5.61021E+03 -8.83206E+02
 -3.43087E+03 -6.81260E+03 -5.54861E+01 -7.08294E+03  6.99404E+03 -4.76184E+03  7.89368E+03  1.26232E+03
  4.57617E+03  6.03773E+03 -4.59696E+02  9.17833E+03 -6.27272E+03  4.71562E+03 -6.89550E+03 -5.62242E+02
 -5.41601E+03 -5.46048E+03 -1.81818E+03 -5.54369E+03  2.38148E+03 -5.53251E+03  4.00380E+03 -2.94494E+03
  3.44060E+03  5.41459E+02  2.75370E+02  1.34153E+03  6.47035E+02 -1.39712E+03  1.09416E+03 -1.67277E+03
  5.20049E+03 -6.79470E+02  6.65280E+03  4.59671E+02  7.04743E+03  4.23622E+03  5.76464E+03  8.36484E+03
 -8.30276E+02  1.01564E+04 -8.17240E+03  7.46886E+03 -1.05846E+04  1.02375E+02 -9.11036E+03 -3.97023E+03
 -3.81782E+03 -7.51864E+03 -7.22840E+02 -6.93980E+03  2.70280E+03 -2.86865E+03  2.23050E+03 -1.69125E+03
  1.21723E+03 -1.73057E+03  9.39403E+02 -2.33834E+03  4.62565E+03 -6.83427E+02  3.69734E+03 -4.94007E+02
  5.19054E+03  1.06541E+03  2.11188E+03  3.43059E+03 -1.77930E+03  4.60613E+03 -3.63119E+03  3.57968E+03
 -5.30763E+03 -1.51310E+03 -2.70216E+03 -3.51574E+03  8.38699E+02 -4.79347E+03  2.06166E+03 -6.92361E+03
  6.19945E+03 -2.84076E+03  8.08831E+03  1.45283E+03  4.78657E+03  4.60213E+03  1.15811E+03  6.02251E+03
 -1.94387E+03  6.53918E+03 -3.59578E+03  3.01212E+03 -1.32194E+03 -1.33272E+02 -4.79849E+02 -1.27579E+03
 -4.68930E+02  6.79290E+02 -2.23425E+03  1.06352E+03 -3.42668E+03  9.08903E+02 -4.39678E+03 -5.26669E+02
 -1.88442E+03 -4.56743E+03  2.77104E+02 -6.28148E+03  3.78481E+03 -5.06264E+03  4.00706E+03 -6.43974E+02
  4.19193E+03  2.53995E+03  1.79242E+03  2.33346E+03 -1.34029E+03  5.29027E+03 -3.47560E+03  2.45864E+03
 -3.95867E+03 -2.40060E+02 -4.41502E+03 -3.25668E+03  2.28476E+01 -4.58515E+03  1.62347E+03 -3.37882E+03
  2.45636E+03 -1.44879E+03  1.61734E+03  2.78666E+02  2.17807E+02  1.18743E+03  6.32519E+02  1.56111E+03
  2.01388E+03  2.88058E+02  6.88349E+02  2.07103E+02  1.61862E+03  2.55590E+03  1.03498E+03  1.11287E+03
 -6.57007E+02  3.17532E+03 -3.38970E+03  4.89203E+03 -3.86548E+03  2.26733E+03 -4.64913E+03 -1.56217E+03
 -2.05708E+03 -3.58920E+03  9.19888E+02 -4.56329E+03  1.42621E+03 -2.87027E+03  3.26552E+03  3.72126E+02
  2.48294E+03  2.76605E+03 -3.07148E+02  3.84243E+03 -9.29540E+02  1.88024E+03 -1.81973E+03 -3.08824E+02
 -2.07914E+02 -1.92611E+03  1.16868E+03 -1.43751E+03  1.72276E+03 -2.39072E+03  2.02525E+03  1.34832E+03
  1.14319E+03  7.88070E+02  1.07616E+03  3.11135E+01 -7.77354E+02  9.32946E+02  7.79322E+02 -6.99296E+02
  6.15966E+01 -4.95523E+02  2.29767E+03 -1.78846E+01  5.58215E+02  1.95458E+03 -1.21878E+03  4.52187E+03
 -1.17359E+03  1.10054E+03 -2.37670E+03  2.60149E+02 -2.29603E+03 -1.21551E+03  6.13628E+02 -1.43467E+03
  3.67156E+02 -1.16427E+03  4.79479E+02 -1.79870E+03  4.73780E+02  1.39901E+03 -2.72594E+02  1.98603E+03
 -8.18948E+02  1.13735E+03 -1.94984E+03 -3.58900E+02 -1.51921E+03 -1.17043E+03 -6.99889E+02 -1.77061E+03
  7.63500E+02 -3.46954E+02  1.12718E+03  7.77293E+02  1.86160E+03  1.14690E+02  1.32220E+02  8.04922E+02
 -1.17826E+02  1.44193E+02 -1.15385E+03 -1.01434E+03  2.38274E+02 -1.72163E+03  1.91327E+03  3.18833E+02
  1.74993E+03  5.63353E+02  3.87360E+03  8.83084E+02  7.49813E+02  2.16602E+03 -1.20021E+03  3.31100E+03
 -1.37410E+03  1.91676E+02 -5.07446E+02  5.62964E+02 -1.12133E+03 -1.81764E+03  4.27925E+02  5.17730E+02
  1.13162E+03 -6.37609E+02  1.01665E+03  1.87800E+03  3.69746E+02  5.16598E+02 -2.16246E+02  1.31674E+03
  1.26530E+02  1.73559E+03 -1.03665E+02 -8.50797E+01 -1.14724E+02  4.48898E+01 -1.78769E+01  1.13844E+03
  1.41419E+02  6.05702E+02 -1.97898E+03  3.00360E+02 -1.60338E+03 -5.21200E+02 -1.75854E+03 -7.72200E+02
 -1.15300E+03 -1.52397E+03  1.50220E+03 -2.78549E+03  8.29310E+02 -3.03103E+03  3.63388E+03 -9.27870E+02
  2.13149E+03 -3.29673E+01  1.23957E+03  2.62378E+03 -1.31504E+03 -1.76836E+02 -2.29883E+02  2.24617E+03
 -1.15942E+03  1.30823E+03  4.44204E+02 -2.54884E+02  1.75841E+02 -5.92762E+00 -4.70984E+02  5.03749E+02
 -1.11665E+03  1.25257E+02 -7.04654E+02 -8.46779E+01  1.87692E+02 -3.03595E+02 -2.61597E+02 -1.18030E+03
  1.86259E+03 -1.79762E+03  8.72807E+02  8.04008E+02  2.12757E+03  1.67480E+03  4.41277E+02  5.89724E+02
 -8.69781E+02  2.12810E+03 -1.35734E+03  1.47315E+03 -8.05346E+02 -1.50060E+03 -1.27451E+03 -1.94080E+03
 -1.56169E+03 -1.85046E+02  1.30650E+03 -2.81074E+02  6.77831E+02 -6.84333E+02  1.18459E+03 -2.27192E+02
  1.43916E+03  5.87535E+02  3.37631E+02  7.63943E+02 -3.51319E+02  3.52594E+02 -1.14787E+03 -1.76768E+03
  1.02688E+03  1.11106E+03  1.75116E+03  3.17276E+01 -3.23019E+02 -2.42325E+02  1.30330E+03  8.08006E+02
 -1.11362E+03  5.79628E+02 -5.26051E+02 -1.34367E+02 -2.15466E+03 -4.83452E+02  5.41417E+01 -1.32665E+03
 -3.84563E+02 -1.98268E+02  6.90748E+02  7.74382E+01  1.67342E+03 -1.42656E+03  1.01129E+03  1.53436E+03
  1.25247E+03  7.49048E+02  3.29279E+01  2.34001E+01 -1.24340E+03  1.64634E+03 -1.86728E+02 -7.44551E+02
 -3.22309E+02  9.65525E+02 -1.26639E+03  8.48647E+02 -8.09122E+02  1.13218E+03  1.17907E+02 -3.11374E+02
 -1.69495E+03  5.75104E+02 -7.37948E+02 -6.63864E+02  4.36310E+02 -2.42817E+03  1.28151E+03 -8.29693E+02
  1.10475E+03  6.12623E+01 -7.97362E+01  8.42958E+02  3.49971E+02  1.45831E+03  1.12167E+03  1.22479E+03
