 $NMID ID='MM_0lb_SNR200_15hz_g45_51.RAW', FMTDAT='(8E13.5)'
 TRAMP=1., VOLUME=1. $END
  3.10487E+05  1.02009E+03  3.36427E+05  2.50729E+05  8.44973E+04  3.38468E+05 -1.32726E+05  2.50515E+05
 -1.90211E+05  8.35022E+04 -1.11645E+05 -3.21851E+04  7.34909E+02 -5.19080E+04  5.42772E+04  8.93901E+02
  3.62017E+04  5.17493E+04 -1.69520E+04  7.56226E+04 -6.03342E+04  6.18422E+04 -8.45043E+04  3.05993E+04
 -8.04950E+04 -1.09313E+04 -5.76211E+04 -5.05927E+04 -1.45604E+04 -6.99008E+04  2.67030E+04 -4.52532E+04
  3.96840E+04  4.14880E+03  1.60883E+04  4.79892E+04 -3.39088E+04  4.67507E+04 -6.68325E+04 -7.56670E+02
 -5.28626E+04 -5.60992E+04 -6.60920E+03 -7.74994E+04  3.40468E+04 -5.38427E+04  4.74225E+04 -1.57011E+04
  4.24660E+04  1.19001E+04  3.24534E+04  2.64702E+04  1.58788E+04  2.96714E+04 -5.63103E+03  2.71474E+04
 -2.23924E+04  1.27794E+04 -1.88503E+04 -4.45582E+03  5.13411E+03 -8.01320E+03  2.09422E+04  1.10721E+04
  6.63499E+03  3.42487E+04 -3.13678E+04  3.51686E+04 -6.21688E+04  3.05835E+03 -5.63899E+04 -4.27750E+04
 -1.30407E+04 -6.33655E+04  3.95223E+04 -4.44432E+04  5.83900E+04 -2.63130E+03  3.37284E+04  3.16433E+04
 -6.39801E+03  3.52675E+04 -3.08855E+04  1.51535E+04 -2.91542E+04 -5.02167E+03 -1.50686E+04 -1.17436E+04
 -8.25489E+03 -1.12308E+04 -5.06322E+02 -1.62050E+04  9.14675E+03 -2.12832E+04  1.53360E+04 -1.28471E+04
  1.16457E+04  3.99146E+03 -7.77768E+03  1.36365E+04 -1.96186E+04 -4.33667E+03 -7.78908E+03 -3.17147E+04
  2.15824E+04 -4.20837E+04  4.55084E+04 -1.96388E+04  4.41362E+04  1.89302E+04  1.61800E+04  4.26834E+04
 -1.56624E+04  3.32584E+04 -2.39799E+04  3.03870E+03 -1.00611E+04 -2.79746E+04  2.08339E+04 -3.31645E+04
  4.04436E+04 -9.29322E+03  3.49103E+04  2.38998E+04  1.68696E+04  4.48218E+04 -8.08756E+03  4.82095E+04
 -3.14053E+04  3.10673E+04 -4.09036E+04  9.92202E+03 -4.01665E+04 -1.59623E+04 -2.19680E+04 -3.58220E+04
  7.81075E+03 -3.56970E+04  3.13538E+04 -1.29230E+04  2.89728E+04  1.10863E+04  3.27487E+03  1.93270E+04
 -1.29351E+04  8.09812E+03 -9.60054E+03 -8.14218E+03  5.70502E+03 -1.13653E+04  1.83307E+04  6.07746E+03
  1.36311E+04  2.20174E+04 -6.56323E+03  2.51859E+04 -2.22598E+04  1.05044E+04 -2.86982E+04 -4.12849E+03
 -2.03177E+04 -1.72425E+04 -6.39446E+03 -1.81155E+04  3.75407E+03 -1.77241E+04  1.52967E+04 -1.75040E+04
  2.45063E+04 -1.09995E+04  2.99264E+04  2.23908E+03  2.31066E+04  1.85179E+04  3.37398E+03  3.51546E+04
 -1.67165E+04  2.86958E+04 -2.75988E+04  1.02427E+04 -2.04565E+04 -1.02231E+04 -3.84385E+03 -1.38094E+04
  1.92219E+03 -3.48376E+03 -4.02499E+03  6.08481E+03 -1.52918E+04  5.78291E+03 -1.61302E+04 -6.30922E+03
 -8.90798E+03 -1.75085E+04  3.83248E+03 -2.16836E+04  1.41440E+04 -1.58833E+04  1.81786E+04 -1.82424E+03
  1.03450E+04  1.30428E+04 -9.33691E+02  1.83353E+04 -1.24569E+04  1.01595E+04 -1.73721E+04 -4.33310E+03
 -1.28800E+04 -1.57586E+04 -3.99569E+02 -2.19354E+04  1.02443E+04 -1.76303E+04  1.86944E+04 -8.57887E+03
  1.64757E+04  1.43421E+03  1.15795E+04  4.88400E+03  5.89200E+03  1.20406E+03  8.06873E+03 -1.69645E+03
  1.67713E+04  3.80152E+03  1.79493E+04  1.41841E+04  1.16044E+04  2.83390E+04 -2.90365E+03  3.23352E+04
 -1.83030E+04  2.37129E+04 -2.89511E+04  1.23442E+04 -3.06113E+04 -2.27981E+03 -2.51068E+04 -1.74714E+04
 -1.22005E+04 -2.51635E+04  8.94935E+03 -2.18223E+04  2.09281E+04 -1.12826E+04  1.84982E+04  5.59991E+03
  7.14229E+03  1.39380E+04 -8.28919E+03  1.31461E+04 -1.57389E+04  2.77396E+03 -1.07234E+04 -9.83741E+03
  2.50657E+01 -1.37120E+04  6.43994E+03 -9.83361E+03  1.08591E+04 -1.30471E+03  1.80963E+03  5.47706E+03
 -5.55107E+03  3.12671E+03 -6.65034E+03 -4.53373E+03  1.09069E+02 -1.28428E+04  8.72654E+03 -1.23959E+04
  1.54454E+04 -6.10831E+03  1.50518E+04  2.69497E+03  1.25332E+04  1.39477E+04  6.62411E+03  1.77666E+04
 -2.81401E+03  2.04009E+04 -1.19907E+04  1.37496E+04 -1.44975E+04  3.42584E+03 -1.07725E+04 -3.31198E+03
 -4.89580E+03 -3.93526E+03 -7.89798E+02  2.29707E+03 -2.19017E+03  2.85610E+03 -3.18213E+03  5.24486E+03
 -1.03536E+04 -6.72709E+02 -1.01807E+04 -8.67018E+03 -3.80293E+03 -1.40978E+04  5.03612E+03 -1.07391E+04
  8.25281E+03 -3.90117E+03  7.27465E+03  2.21442E+03  4.46662E+02  4.00652E+03 -5.47539E+03  3.01454E+02
 -4.34352E+03 -5.92188E+03 -1.11391E+03 -9.80941E+03  4.78639E+03 -1.01518E+04  1.17594E+04 -5.59363E+03
  1.48354E+04  2.12385E+03  1.16930E+04  7.94957E+03  2.06524E+03  1.17998E+04 -5.96985E+03  9.28844E+03
 -9.12413E+03  3.19649E+03 -3.88206E+03 -2.40535E+03  1.88594E+03 -2.03360E+03  6.30174E+03 -2.01544E+03
  5.97553E+03  4.56960E+03  2.30770E+02  7.58908E+03 -4.72408E+03  7.64489E+03 -1.00256E+04  2.23220E+03
 -6.30992E+03 -5.06858E+03  6.49284E+02 -8.30115E+03  5.24545E+03 -4.80642E+03  5.82702E+03  2.66630E+03
  1.21158E+03  6.15540E+03 -4.85438E+03  7.72102E+03 -7.63617E+03  3.02380E+03 -5.95262E+03 -1.14499E+03
 -5.44230E+03 -8.26838E+03  1.63119E+03 -9.97786E+03  8.46711E+03 -6.71186E+03  9.27157E+03  1.87948E+03
  5.64196E+03  7.93467E+03 -4.27859E+02  9.34393E+03 -6.33762E+03  5.53233E+03 -8.02201E+03 -6.32268E+02
 -4.99769E+03 -6.56130E+03 -1.91309E+03 -6.09825E+03  3.88985E+03 -5.49573E+03  4.33666E+03 -3.03061E+03
  2.65659E+03  4.85763E+02 -5.14330E+02  9.47842E+02 -2.88306E+02  1.28357E+02  1.11757E+03 -3.28535E+03
  6.83174E+03 -1.53557E+03  7.73670E+03  9.70461E+02  7.55981E+03  5.37575E+03  7.40426E+03  1.11427E+04
 -2.81240E+03  1.16482E+04 -1.05089E+04  8.58759E+03 -1.46892E+04  1.59366E+03 -1.19170E+04 -4.36230E+03
 -4.83944E+03 -8.84780E+03 -6.88125E+02 -6.96828E+03  2.33501E+03 -3.19510E+03  3.32810E+03 -4.12826E+03
  1.47742E+03 -5.79155E+02  2.04193E+03 -2.43728E+03  4.57558E+03 -1.85666E+03  4.71574E+03  5.74226E+02
  5.74340E+03  1.84600E+03  2.08286E+03  5.50030E+03 -4.87628E+02  5.03222E+03 -6.50324E+03  3.08177E+03
 -7.64921E+03 -1.30504E+03 -4.22642E+03 -5.45148E+03  1.61462E+02 -7.46808E+03  4.86708E+03 -8.33971E+03
  8.61899E+03 -3.48816E+03  1.00971E+04  1.16372E+03  6.74323E+03  7.68451E+03  2.11809E+03  8.78870E+03
 -3.33982E+03  7.76689E+03 -4.33880E+03  1.99752E+03 -3.16865E+03 -1.48234E+03 -1.15119E+03  4.53377E+02
 -5.60058E+02  2.21281E+02 -1.58228E+03  1.55288E+03 -2.85894E+03  4.97455E+02 -4.94379E+03 -8.59641E+02
 -2.19584E+03 -5.53265E+03  4.67906E+02 -6.73966E+03  3.85400E+03 -6.84636E+03  5.55424E+03 -2.70980E+03
  6.78474E+03  3.08546E+03  2.42607E+03  5.32466E+03 -5.23621E+02  7.71605E+03 -4.58816E+03  4.68837E+03
 -7.37505E+03  1.38541E+03 -6.15259E+03 -3.71182E+03 -5.30859E+02 -5.70371E+03  2.81457E+03 -3.20844E+03
  3.44849E+03 -2.86749E+03  3.54174E+03  9.58251E+02  1.43592E+03  3.43391E+03  3.65267E+02  3.67850E+02
  2.46727E+03  4.01215E+02  1.07102E+03  2.02075E+03  1.96769E+03  3.02352E+03  2.42424E+03  2.61629E+03
 -3.27074E+02  4.96723E+03 -4.15901E+03  5.62936E+03 -5.09576E+03  1.13938E+03 -7.37538E+03 -8.63195E+02
 -2.50379E+03 -5.91375E+03  5.86169E+02 -5.89028E+03  1.83197E+03 -3.50361E+03  4.53534E+03 -1.79766E+03
  3.40710E+03  3.02115E+03  1.14580E+03  4.69987E+03 -7.93516E+02  2.33083E+03 -1.93650E+03 -2.93266E+02
 -1.58498E+03 -3.21367E+03  1.21864E+03 -3.51842E+03  2.71397E+03 -2.17685E+02  2.50800E+03  1.23338E+03
  4.35986E+01  1.09187E+02  1.08093E+03  4.38950E+01 -8.01682E+02 -2.17316E+02  2.07382E+03  2.56285E+02
  7.70313E+02 -1.98992E+02  3.12006E+03  1.29815E+03 -1.25629E+02  3.66266E+03 -2.06680E+02  3.91755E+03
 -2.24334E+03  2.28660E+03 -4.20888E+03  1.12140E+03 -4.04159E+03 -1.59078E+03 -1.83617E+03 -2.02556E+03
  2.24243E+03 -9.72767E+02  1.23187E+03 -1.95117E+03  2.02591E+03  1.64139E+03  1.23872E+02  1.97353E+03
 -2.19088E+03  9.82969E+02 -5.80867E+02 -1.61481E+03 -2.02506E+03 -3.07327E+03 -5.69556E+02 -3.70615E+03
  1.39386E+03 -1.90601E+03  2.49626E+03 -4.79369E+02  1.78478E+03 -3.44975E+01 -4.71540E+02  2.46653E+03
 -1.50741E+03 -1.54896E+02 -1.60328E+03  6.23928E+02 -4.76328E+02 -2.20670E+03  3.31441E+03 -1.25694E+03
  3.24408E+03  6.35899E+02  5.09272E+03  1.69863E+03  1.81097E+03  3.55477E+03 -6.99826E+02  2.62810E+03
 -2.71521E+03  2.10925E+03 -4.21466E+03 -2.08059E+03 -6.40352E+02 -2.54320E+03  3.25895E+02 -1.72419E+03
  1.94291E+03 -1.52015E+03  1.71657E+03  7.77599E+02  8.69571E+02  2.20556E+03 -1.87448E+02  1.57016E+03
 -3.35415E+02  9.60237E+02 -5.88516E+02  6.33113E+02 -1.17851E+03  1.12353E+03 -1.89605E+03  1.90903E+03
 -6.90440E+02  1.72869E+03 -2.47071E+03  8.69070E+02 -3.29101E+03 -3.69883E+02 -3.32247E+03 -2.22480E+03
 -1.65072E+03 -5.00198E+03  1.49361E+03 -5.14747E+03  3.15349E+03 -3.65917E+03  4.10415E+03 -9.68835E+02
  5.07959E+03  7.07759E+02  1.70259E+03  2.44627E+03 -1.76705E+01  3.32799E+03 -2.18978E+03  2.25676E+03
 -1.69612E+03  2.09748E+02 -1.36841E+03 -1.41955E+02 -1.58738E+03 -2.00291E+02  1.76137E+02 -7.08383E+02
 -9.21446E+02 -1.02814E+03 -1.48908E+03  7.09363E+02 -1.20784E+02 -9.14076E+02  4.50361E+02 -1.84447E+03
  1.20161E+03 -3.30970E+02  2.66780E+03  4.24179E+01  2.66643E+03  2.34721E+03  6.48873E+02  2.30014E+03
 -8.23437E+02  3.73305E+03 -2.31207E+03  2.79563E+03 -3.43504E+03  2.61805E+02 -2.19113E+03 -2.49229E+03
 -1.57909E+03 -2.25297E+03  9.59447E+02 -2.43493E+03  1.38100E+03 -1.85655E+03  2.02138E+03  1.13317E+03
 -5.20372E+01  1.67428E+03  3.55801E+02  8.03104E+02  6.96470E+02  1.25703E+02  7.11000E+02  1.98809E+02
  5.68326E+02  1.81630E+02  1.75541E+03  4.67287E+02  1.34136E+03  1.19897E+03 -6.03801E+02  5.22711E+02
 -5.59860E+02  2.50548E+03 -1.50783E+03  1.68962E+02 -3.07259E+03 -8.59323E+02  8.20033E+02 -2.78881E+03
  1.89138E+03 -1.57350E+03  2.20230E+03 -9.71664E+02  2.38338E+03  7.04003E+01  1.63488E+03  2.93158E+03
  3.35473E+02  2.20339E+03 -8.63992E+02  1.95939E+03 -6.62461E+02 -6.64596E+02 -9.77849E+02 -1.05346E+02
 -1.49410E+03 -1.42718E+02  4.60646E+02 -6.04660E+02 -1.99237E+03  1.53265E+01 -1.18425E+03 -7.27953E+01
 -1.16436E+03 -4.01326E+01 -2.23091E+03 -1.46233E+03  4.87210E+02 -2.68711E+03  1.94252E+03  6.43586E+02
  8.93708E+02  1.16406E+03  1.58428E+03  7.67803E+02  1.49564E+02  1.18397E+03 -1.12339E+03  2.29596E+03
