 $NMID ID='MM_0lb_SNR200_18hz_g60_45.RAW', FMTDAT='(8E13.5)'
 TRAMP=1., VOLUME=1. $END
  3.08601E+05  1.85072E+03  3.38071E+05  2.49689E+05  8.50046E+04  3.37381E+05 -1.32581E+05  2.50924E+05
 -1.90124E+05  8.36286E+04 -1.11615E+05 -3.15966E+04  8.04104E+02 -4.94536E+04  5.31483E+04 -5.01428E+02
  3.46650E+04  5.20060E+04 -1.74796E+04  7.60966E+04 -6.01205E+04  6.28401E+04 -8.40323E+04  3.18765E+04
 -8.14542E+04 -1.14727E+04 -5.69409E+04 -5.08644E+04 -1.52901E+04 -6.95758E+04  2.77533E+04 -4.57934E+04
  3.95411E+04  2.87904E+03  1.62088E+04  4.72959E+04 -3.55253E+04  4.62574E+04 -6.66686E+04  4.88164E+01
 -5.24064E+04 -5.72562E+04 -5.29918E+03 -7.69108E+04  3.42251E+04 -5.48643E+04  4.69478E+04 -1.78904E+04
  4.24900E+04  1.24315E+04  3.16466E+04  2.48975E+04  1.72477E+04  2.96058E+04 -4.97970E+03  2.65380E+04
 -2.27972E+04  1.28078E+04 -1.92553E+04 -4.32244E+03  5.52249E+03 -6.84469E+03  2.11335E+04  1.30511E+04
  8.09806E+03  3.51758E+04 -3.12031E+04  3.46873E+04 -6.22903E+04  1.20192E+03 -5.67481E+04 -4.17656E+04
 -1.28397E+04 -6.27046E+04  3.96863E+04 -4.47161E+04  5.65428E+04 -2.67081E+03  3.28579E+04  3.08481E+04
 -4.82336E+03  3.53902E+04 -2.87936E+04  1.53718E+04 -2.91482E+04 -3.93944E+03 -1.52624E+04 -1.04895E+04
 -8.21612E+03 -1.31191E+04 -1.30040E+03 -1.66233E+04  7.69507E+03 -2.26939E+04  1.50090E+04 -1.39839E+04
  1.18610E+04  4.08311E+03 -7.51530E+03  1.26169E+04 -1.98266E+04 -3.25519E+03 -9.12568E+03 -3.24304E+04
  2.21452E+04 -4.22271E+04  4.65759E+04 -1.89051E+04  4.41337E+04  1.87435E+04  1.51211E+04  4.35544E+04
 -1.54285E+04  3.29384E+04 -2.51537E+04  1.99603E+03 -1.02504E+04 -2.69036E+04  2.04276E+04 -3.29295E+04
  4.00479E+04 -7.98084E+03  3.44797E+04  2.29552E+04  1.73505E+04  4.37967E+04 -7.35256E+03  4.68079E+04
 -2.99727E+04  3.27170E+04 -4.00388E+04  9.25038E+03 -4.20854E+04 -1.57245E+04 -2.23943E+04 -3.56885E+04
  6.60211E+03 -3.60684E+04  3.09330E+04 -1.42191E+04  2.92059E+04  1.14599E+04  3.91363E+03  1.76909E+04
 -1.35588E+04  8.42219E+03 -8.99614E+03 -8.05107E+03  5.66101E+03 -1.06307E+04  1.78614E+04  6.33410E+03
  1.25567E+04  2.23782E+04 -5.54704E+03  2.38519E+04 -2.30885E+04  1.01158E+04 -2.66355E+04 -5.66079E+03
 -1.92094E+04 -1.68996E+04 -6.58705E+03 -1.85028E+04  3.59253E+03 -1.66139E+04  1.45570E+04 -1.66297E+04
  2.46457E+04 -1.22979E+04  3.12940E+04  1.71857E+03  2.26293E+04  1.79337E+04  3.37040E+03  3.42811E+04
 -1.80611E+04  2.91154E+04 -2.72306E+04  1.04694E+04 -2.09669E+04 -9.77879E+03 -3.53232E+03 -1.27394E+04
  1.45128E+03 -3.72185E+03 -5.23760E+03  5.84358E+03 -1.46492E+04  5.05593E+03 -1.52621E+04 -5.52372E+03
 -8.66825E+03 -1.79339E+04  4.30813E+03 -2.04458E+04  1.42160E+04 -1.63389E+04  1.59714E+04 -2.41247E+03
  9.91877E+03  1.23082E+04 -1.77452E+02  1.79680E+04 -1.16997E+04  9.55831E+03 -1.76863E+04 -2.75185E+03
 -1.24101E+04 -1.52674E+04 -2.10412E+03 -2.04373E+04  9.39824E+03 -1.71911E+04  1.69463E+04 -8.90364E+03
  1.66538E+04  2.37639E+02  1.20856E+04  3.28744E+03  5.80012E+03  1.16129E+03  9.25382E+03 -2.52953E+03
  1.54317E+04  2.51160E+03  1.59921E+04  1.46631E+04  1.17783E+04  2.72537E+04 -2.68392E+03  3.02633E+04
 -1.77351E+04  2.38415E+04 -2.68887E+04  1.12693E+04 -2.94512E+04 -2.37916E+03 -2.43640E+04 -1.61860E+04
 -1.20566E+04 -2.32968E+04  7.63500E+03 -2.14006E+04  1.89239E+04 -1.13749E+04  1.70761E+04  4.65738E+03
  6.97563E+03  1.21406E+04 -7.59528E+03  1.05885E+04 -1.47311E+04  3.11595E+03 -1.25202E+04 -9.24975E+03
  1.75823E+01 -1.36357E+04  5.81901E+03 -1.07421E+04  9.60932E+03 -1.82271E+03  2.48529E+03  5.67029E+03
 -5.68434E+03  3.02390E+03 -4.06694E+03 -5.67717E+03 -1.00672E+02 -1.23028E+04  8.23452E+03 -1.21803E+04
  1.35906E+04 -5.59708E+03  1.36836E+04  2.26379E+03  1.22242E+04  1.16051E+04  5.98228E+03  1.64731E+04
 -1.62847E+03  1.87113E+04 -1.07277E+04  1.20393E+04 -1.35751E+04  3.76393E+03 -9.73014E+03 -2.98597E+03
 -4.14804E+03 -3.82061E+03 -8.58324E+02  2.95624E+03 -2.29687E+03  2.14627E+03 -4.45904E+03  4.03113E+03
 -8.36465E+03 -4.34140E+02 -9.40250E+03 -6.64951E+03 -4.06987E+03 -1.21217E+04  4.45300E+03 -9.54137E+03
  8.91278E+03 -4.31721E+03  5.73228E+03  1.98540E+03  5.39896E+02  4.19739E+03 -4.64302E+03 -4.80185E+02
 -3.26386E+03 -6.37392E+03 -3.04911E+01 -8.31779E+03  4.29262E+03 -8.60487E+03  1.17764E+04 -5.04010E+03
  1.22608E+04  6.29985E+02  9.47219E+03  6.32366E+03  2.04477E+03  1.04091E+04 -4.89902E+03  8.97917E+03
 -6.96082E+03  4.08271E+03 -4.12455E+03 -1.75855E+03  6.63352E+02 -2.83762E+03  6.73383E+03 -1.57811E+03
  4.85234E+03  3.47938E+03  6.82388E+02  7.93197E+03 -4.14254E+03  7.81111E+03 -9.59919E+03  1.44014E+03
 -5.95137E+03 -4.91828E+03 -3.73157E+02 -7.75144E+03  5.35101E+03 -4.95751E+03  4.45017E+03  1.28256E+03
  9.86681E+02  4.18968E+03 -3.34776E+03  5.18304E+03 -5.64524E+03  3.35127E+03 -5.31762E+03 -2.69044E+03
 -3.16913E+03 -7.28205E+03  2.94043E+03 -8.22474E+03  7.33166E+03 -5.21414E+03  7.75923E+03  6.30624E+02
  5.40620E+03  6.04057E+03  1.13846E+03  9.10299E+03 -5.41961E+03  3.99923E+03 -5.70936E+03 -8.34412E+00
 -5.48062E+03 -6.15108E+03 -1.20181E+03 -5.82454E+03  3.09296E+03 -4.97940E+03  4.02507E+03 -3.40493E+03
  3.05687E+03 -2.73609E+02  4.17683E+02  7.05866E+02  6.80446E+02  6.33261E+02 -6.85946E+01 -3.60639E+03
  4.58397E+03 -1.10815E+03  6.53748E+03  2.35564E+02  7.03800E+03  4.25993E+03  6.42163E+03  9.20700E+03
 -1.40764E+03  9.72618E+03 -7.35002E+03  7.11005E+03 -1.07856E+04  1.47703E+03 -9.34117E+03 -2.94525E+03
 -5.40829E+03 -7.57769E+03 -8.53185E+01 -6.85442E+03  2.72601E+03 -3.19538E+03  2.34639E+03 -2.76465E+03
  1.64312E+03 -2.39448E+03  1.58535E+03 -3.90291E+03  2.77515E+03 -1.49589E+03  3.24806E+03  1.15669E+03
  4.53327E+03  9.03510E+02  1.29337E+03  4.28450E+03 -1.59480E+03  4.09873E+03 -5.09855E+03  3.35990E+03
 -6.59360E+03 -1.54063E+03 -1.97795E+03 -3.39726E+03 -1.59912E+02 -5.26262E+03  4.64042E+03 -5.96533E+03
  5.53029E+03 -3.96641E+03  7.63851E+03  3.23998E+02  5.22568E+03  4.20218E+03  2.51877E+03  6.97927E+03
 -3.33256E+03  6.68492E+03 -3.93105E+03  1.74922E+03 -2.17350E+03 -1.71895E+03 -1.48252E+03  4.48161E+02
 -3.93334E+02  1.09143E+03 -1.06267E+03  1.97120E+03 -3.22808E+03  2.11989E+03 -5.85744E+03  1.39132E+02
 -2.15360E+03 -4.47456E+03  5.11971E+02 -4.82691E+03  2.53010E+03 -4.71550E+03  4.58522E+03 -2.20643E+03
  3.91709E+03  2.10098E+03  2.69651E+03  3.12470E+03 -8.86287E+02  4.89592E+03 -1.89512E+03  2.74137E+03
 -4.10094E+03  1.13790E+03 -4.86729E+03 -1.95480E+03 -2.82355E+02 -3.97810E+03  1.51264E+03 -1.36646E+03
  3.85904E+03 -3.31672E+02  2.14164E+03  7.72683E+02  6.08749E+02  2.14188E+03  3.23273E+02  1.06569E+03
  3.06043E+03 -2.41685E+01  1.43985E+03  1.22497E+03  1.88481E+03  2.55996E+03  1.06927E+03  3.18268E+03
 -2.44375E+03  2.61053E+03 -2.00906E+03  4.49751E+03 -2.99775E+03  1.26376E+03 -5.51348E+03 -1.92192E+03
 -1.68451E+03 -3.38339E+03  4.50156E+02 -4.68649E+03  2.70674E+03 -2.41882E+03  3.28960E+03 -7.47881E+02
  2.42198E+03  2.03510E+03  5.77880E+02  3.22615E+03 -1.20653E+03  9.57470E+02 -1.09823E+03  1.56694E+03
 -2.17565E+01 -2.91849E+03  1.65499E+03 -1.56213E+03  4.48648E+02 -7.32839E+02  2.08663E+03 -3.38043E+02
  1.07085E+03  8.95176E+01  1.27870E+03 -2.28894E+02  3.32329E+02  8.06300E+02  1.57638E+03 -8.02854E+02
 -1.29787E+02 -5.80339E+01  2.99315E+03  1.34863E+03  3.03378E+02  3.33248E+03  8.25709E+02  3.14890E+03
 -1.61146E+03  1.43610E+03 -2.28781E+03  7.44790E+02 -2.70664E+03 -5.71786E+02  1.08636E+03 -4.00063E+02
 -5.12935E+01 -1.10341E+03  4.10815E+01 -1.38548E+03  2.68793E+02  8.16694E+02 -9.72543E+02  8.47851E+02
 -1.91756E+03  6.59065E+02 -6.57561E+02  3.87758E+02 -4.29503E+02 -1.76484E+03  9.48487E+02 -1.37133E+03
  2.08869E+01 -8.66752E+02 -4.56683E+02  2.74279E+00  1.18317E+03  7.88536E+01 -6.66809E+02  3.18727E+02
 -4.66607E+02  5.12889E+02 -1.14755E+03 -7.55291E+02  1.66074E+03 -2.77549E+02  1.83420E+03 -2.25913E+03
  1.23640E+03  1.34979E+02  3.56934E+03  1.06446E+03  1.32567E+03  9.94425E+02 -3.06950E+02  1.60358E+03
 -1.44760E+03  1.28957E+02 -5.67590E+02 -8.46685E+02 -1.07780E+03 -2.67499E+03  1.06749E+02 -1.51851E+03
  1.82330E+03 -6.98250E+02  9.22059E+02  6.05681E+02 -3.52233E+01  1.38110E+03  2.09082E+02  8.03776E+02
 -1.88450E+02 -8.38327E+01 -8.36315E+02 -3.21752E+02 -1.66939E+02  3.19155E+02 -8.32907E+02  1.22395E+03
 -7.75739E+02  1.43646E+03 -1.43093E+03  4.74394E+00 -1.72031E+03  3.55148E+01 -2.21023E+03 -5.61946E+02
 -1.59503E+03 -4.03603E+03  1.18864E+03 -3.93666E+03  9.04192E+02 -2.68502E+03  2.96712E+03 -2.00037E+02
  2.44768E+03 -3.88550E+02  1.27549E+03  2.40863E+03  2.66419E+02  2.28788E+03 -1.37587E+03  6.20227E+02
  4.98608E+02  1.20248E+03  8.13012E+01 -3.28115E+02  8.59992E+02 -9.79426E+01 -3.88142E+02 -2.19727E+02
 -1.59543E+03 -1.31047E+03 -7.89238E+02  1.20193E+02  7.34302E+02 -7.04153E+02 -9.85166E+02 -6.08480E+02
  1.44318E+03 -1.51330E+03  7.93249E+02  8.59910E+02  6.20778E+02  2.00424E+03 -7.87553E+02  1.13149E+03
 -7.95095E+02  2.33467E+03 -2.07285E+03  1.75712E+03 -1.96838E+03 -2.75938E+02 -2.01157E+03 -1.00412E+03
  2.16130E+02 -8.80085E+02  6.47296E+02 -1.82725E+03  1.48443E+03  1.71115E+02  7.57746E+02  1.17687E+03
  6.90997E+01  8.93624E+02  2.57179E+02  1.06919E+03  3.72868E+02  4.38012E+02 -4.59404E+02 -6.01049E+02
  1.43854E+03  6.97720E+02 -2.60769E+02  1.05818E+03  6.25513E+02  1.21871E+03  9.63630E+02  1.03698E+03
 -6.99297E+02  2.04487E+03 -1.27234E+02 -5.31646E+02 -1.07222E+03 -1.69199E+01 -3.61125E+02 -1.09142E+03
  1.51947E+03 -1.10199E+03  6.92852E+02  3.51932E+02  1.78502E+03 -7.53268E+02  2.11859E+03  5.66231E+02
  1.49155E+03  1.39768E+03 -2.09372E+02 -3.06954E+02  6.25959E+02  1.08749E+03 -6.68342E+02 -5.19864E+02
 -5.41997E+02 -7.86415E+02 -2.04859E+02  9.72502E+01  7.18226E+02  4.28404E+02 -3.69119E+02 -8.95854E+02
 -1.56719E+02  8.76560E+02 -3.77942E+02 -1.29300E+02  9.55387E+02 -1.10381E+03  7.55604E+02  9.56357E+02
  5.15186E+02  5.37868E+02  5.00632E+02  3.95532E+02  9.73990E+02  1.46529E+03 -1.30503E+03  1.49476E+03
