 $NMID ID='MM_0lb_SNR200_17hz_g45_4.RAW', FMTDAT='(8E13.5)'
 TRAMP=1., VOLUME=1. $END
  3.09378E+05  1.64366E+03  3.37022E+05  2.50018E+05  8.45494E+04  3.38611E+05 -1.32293E+05  2.49458E+05
 -1.89889E+05  8.24512E+04 -1.11518E+05 -3.35488E+04  2.30255E+03 -5.05098E+04  5.41383E+04  2.03019E+02
  3.56326E+04  5.31092E+04 -1.70225E+04  7.50406E+04 -6.05250E+04  6.27571E+04 -8.21582E+04  3.04411E+04
 -7.87990E+04 -1.15387E+04 -5.74421E+04 -5.13584E+04 -1.46347E+04 -6.84362E+04  2.59411E+04 -4.41380E+04
  4.06274E+04  3.67631E+03  1.57427E+04  4.70671E+04 -3.43978E+04  4.57025E+04 -6.56836E+04 -3.51815E+02
 -5.20495E+04 -5.58931E+04 -5.92822E+03 -7.49220E+04  3.34559E+04 -5.32683E+04  4.77084E+04 -1.60395E+04
  4.17553E+04  1.08711E+04  3.03044E+04  2.39390E+04  1.56529E+04  2.90701E+04 -4.25055E+03  2.67983E+04
 -2.20233E+04  1.15830E+04 -1.96662E+04 -3.99504E+03  4.87204E+03 -7.95951E+03  2.23372E+04  1.16492E+04
  7.95751E+03  3.39405E+04 -3.06511E+04  3.47675E+04 -6.09808E+04  2.76577E+03 -5.58421E+04 -4.18653E+04
 -1.29116E+04 -6.14735E+04  3.88839E+04 -4.36673E+04  5.60114E+04 -1.97087E+03  3.18853E+04  3.00243E+04
 -6.40189E+03  3.43433E+04 -2.85981E+04  1.36799E+04 -2.84835E+04 -5.88090E+03 -1.52749E+04 -1.07757E+04
 -6.89917E+03 -1.08940E+04 -9.16022E+02 -1.73921E+04  6.94975E+03 -2.34488E+04  1.54646E+04 -1.35756E+04
  1.19896E+04  4.47061E+03 -7.72366E+03  1.34097E+04 -1.94493E+04 -3.05542E+03 -7.83586E+03 -3.17704E+04
  2.19797E+04 -4.13233E+04  4.59414E+04 -1.83784E+04  4.23519E+04  1.90957E+04  1.30919E+04  4.36456E+04
 -1.64746E+04  3.11608E+04 -2.43862E+04  1.57858E+03 -8.27546E+03 -2.73533E+04  2.11527E+04 -3.24984E+04
  3.99077E+04 -7.97302E+03  3.20905E+04  2.21676E+04  1.54586E+04  4.41846E+04 -8.34805E+03  4.69624E+04
 -2.95166E+04  3.13638E+04 -3.87622E+04  7.58947E+03 -3.91473E+04 -1.68808E+04 -2.23388E+04 -3.48701E+04
  7.60058E+03 -3.50410E+04  2.83556E+04 -1.34351E+04  2.86043E+04  1.10074E+04  3.63171E+03  1.82849E+04
 -1.27598E+04  6.81783E+03 -9.18316E+03 -6.73066E+03  5.02374E+03 -1.06750E+04  1.74563E+04  6.40361E+03
  1.19134E+04  2.17339E+04 -5.83497E+03  2.29491E+04 -2.13375E+04  9.03182E+03 -2.62122E+04 -5.61887E+03
 -1.69198E+04 -1.74279E+04 -6.77466E+03 -1.75103E+04  3.19658E+03 -1.50361E+04  1.34326E+04 -1.55134E+04
  2.22871E+04 -1.22576E+04  2.93447E+04  1.86559E+03  2.11671E+04  1.69757E+04  4.10314E+03  3.21330E+04
 -1.63919E+04  2.85216E+04 -2.62734E+04  9.38396E+03 -1.83525E+04 -1.09342E+04 -3.27961E+03 -1.44719E+04
  2.66492E+03 -3.86213E+03 -3.65973E+03  6.82885E+03 -1.38154E+04  4.80718E+03 -1.45063E+04 -5.59131E+03
 -8.08453E+03 -1.68645E+04  4.61802E+03 -2.09174E+04  1.44923E+04 -1.48094E+04  1.51530E+04 -1.10196E+03
  1.01729E+04  1.13814E+04  9.69981E+01  1.69880E+04 -1.05149E+04  8.70711E+03 -1.64561E+04 -3.23107E+03
 -1.22101E+04 -1.53726E+04 -5.10619E+02 -1.97895E+04  8.53216E+03 -1.65906E+04  1.64817E+04 -7.36417E+03
  1.63898E+04  2.70383E+03  1.02359E+04  4.08348E+03  5.70325E+03 -3.34323E+02  8.00224E+03 -1.68617E+03
  1.59111E+04  3.99355E+03  1.56175E+04  1.35992E+04  9.99503E+03  2.58084E+04 -2.32010E+03  2.97025E+04
 -1.61417E+04  2.11274E+04 -2.58841E+04  1.02041E+04 -2.62611E+04 -1.38640E+03 -2.30059E+04 -1.50620E+04
 -1.06116E+04 -2.27029E+04  7.43387E+03 -2.13159E+04  1.82070E+04 -1.11452E+04  1.56194E+04  2.75823E+03
  6.11450E+03  1.20561E+04 -9.19330E+03  1.09112E+04 -1.48222E+04  2.24594E+03 -1.15388E+04 -8.19473E+03
  5.30766E+02 -1.33470E+04  6.17187E+03 -1.07931E+04  8.49130E+03 -1.31338E+03  1.69828E+03  5.82602E+03
 -6.33968E+03  2.46801E+03 -4.78160E+03 -5.61245E+03  6.68170E+02 -1.13634E+04  8.57949E+03 -1.23785E+04
  1.27048E+04 -5.62177E+03  1.42767E+04  2.56588E+03  1.19079E+04  9.37534E+03  5.08265E+03  1.46903E+04
 -2.31979E+03  1.70988E+04 -1.08628E+04  1.13042E+04 -1.24872E+04  3.77234E+03 -9.24080E+03 -1.74035E+03
 -4.22928E+03 -3.22092E+03 -6.95335E+02  1.17185E+03 -1.94491E+03  1.97714E+03 -4.43624E+03  3.18972E+03
 -8.92000E+03 -7.95415E+02 -9.97806E+03 -9.16501E+03 -3.29637E+03 -1.36817E+04  4.23623E+03 -9.83532E+03
  6.93988E+03 -3.05817E+03  6.75449E+03  1.49509E+03 -5.56177E+01  3.36357E+03 -4.07878E+03 -1.13552E+03
 -3.71836E+03 -5.75139E+03  3.46510E+01 -8.10707E+03  3.80279E+03 -8.76469E+03  1.15196E+04 -4.80196E+03
  1.36298E+04  9.08572E+02  9.40248E+03  7.91091E+03  2.83414E+03  9.51309E+03 -4.91620E+03  8.34637E+03
 -7.51262E+03  2.56678E+03 -4.26424E+03 -1.51527E+03  1.34007E+03 -2.52713E+03  4.73402E+03 -1.08964E+03
  3.35052E+03  3.69050E+03  1.09387E+03  8.11622E+03 -4.38794E+03  6.68614E+03 -9.56677E+03  1.82413E+02
 -5.38219E+03 -3.81087E+03  1.76679E+03 -7.89230E+03  4.41830E+03 -3.65094E+03  4.59260E+03  2.54256E+02
  4.80213E+02  4.87341E+03 -5.93357E+03  6.15496E+03 -5.99913E+03  2.44998E+03 -5.22888E+03 -2.27978E+03
 -4.02222E+03 -5.49052E+03  1.10607E+03 -8.18471E+03  7.15721E+03 -5.23994E+03  7.66368E+03  6.72039E+02
  4.99913E+03  6.01904E+03  2.43640E+02  7.88916E+03 -4.60566E+03  3.74006E+03 -6.44735E+03  4.56665E+02
 -6.74709E+03 -5.62301E+03 -1.93085E+03 -5.25177E+03  2.12206E+03 -5.39692E+03  3.01416E+03 -3.86773E+03
  1.88642E+03  1.02445E+03  5.29519E+02  2.19225E+03  9.50345E+02 -1.56972E+03  4.81084E+02 -1.79570E+03
  4.92271E+03 -9.12112E+02  6.14314E+03  3.65041E+02  5.43783E+03  3.11304E+03  5.49269E+03  8.50504E+03
 -2.42191E+03  9.45343E+03 -8.51662E+03  6.59491E+03 -1.07133E+04  1.22332E+03 -8.87215E+03 -3.14772E+03
 -5.38982E+03 -7.89370E+03 -1.81477E+02 -7.37665E+03  2.01959E+03 -1.16279E+03  1.54579E+03 -2.83555E+03
  2.19887E+03 -1.19937E+03  1.56310E+03 -1.59593E+03  5.64173E+03 -1.89612E+03  4.05702E+03 -2.35831E+02
  6.09715E+03  7.13026E+02  2.04460E+03  3.56682E+03 -1.68806E+03  4.55602E+03 -4.72631E+03  2.34997E+03
 -5.97695E+03  3.35889E+02 -3.23284E+03 -3.29356E+03  3.84051E+02 -5.94721E+03  3.31984E+03 -7.56744E+03
  5.38290E+03 -4.73149E+03  8.04248E+03 -1.09996E+02  6.08653E+03  4.04804E+03  1.17839E+03  7.07522E+03
 -2.70444E+03  7.25084E+03 -3.40246E+03  2.64223E+03 -2.58700E+03 -1.51231E+03 -5.28934E+02 -7.77672E+02
 -9.43960E+02  6.65284E+01 -8.88208E+02  2.62452E+03 -1.91512E+03  8.94600E+02 -4.42815E+03 -9.21629E+02
 -1.87210E+03 -4.42011E+03  5.60199E+02 -4.76126E+03  4.41968E+03 -5.42762E+03  4.69397E+03 -1.47529E+03
  4.44584E+03  1.85763E+03  3.46250E+03  2.82222E+03 -6.35405E+02  4.57805E+03 -3.38550E+03  3.45636E+03
 -4.52745E+03  1.79973E+03 -3.86471E+03 -2.17791E+03 -9.78774E+02 -3.72959E+03  2.26925E+03 -3.47225E+03
  3.95190E+03 -1.45232E+03  2.26675E+03  1.13444E+03  8.72737E+02  1.66133E+03  1.51009E+03  7.91854E+02
  8.85568E+02  9.19107E+01  3.61717E+02  7.07899E+02  1.74793E+03  2.40098E+03  1.50568E+03  1.40670E+03
 -1.91810E+03  4.41148E+03 -3.64508E+03  3.99968E+03 -4.77765E+03  6.62282E+02 -6.00203E+03 -9.26684E+02
 -1.72158E+03 -4.24048E+03  6.86612E+02 -5.87932E+03  2.89797E+03 -2.86694E+03  2.57720E+03 -2.90375E+02
  3.03443E+03  1.44365E+03  3.08987E+02  3.54315E+03 -1.67318E+03  1.59717E+03 -2.23593E+03  4.89991E+01
 -1.28388E+03 -2.06894E+03  1.13427E+03 -1.24779E+03  1.77069E+03  1.46051E+02  2.57393E+03  9.97349E+02
  3.75015E+02  1.26752E+03  1.10390E+03 -2.24145E+02 -1.95155E+02  1.09915E+03  7.15524E+02  1.48569E+03
 -1.84469E+02 -1.93698E+02  2.68797E+03  1.64563E+03  7.67283E+02  3.14728E+03 -1.01209E+03  4.01394E+03
 -2.86519E+03  2.68851E+02 -2.90669E+03  1.90698E+03 -4.17566E+03 -1.48830E+03 -2.91696E+02 -2.28023E+03
 -9.91089E+02 -2.42430E+03  5.70258E+02 -1.18410E+03  7.88356E+02  7.20267E+02 -1.23514E+03  1.13894E+03
 -6.67616E+02  7.26632E+02 -2.19549E+03 -1.85202E+03 -1.65136E+03 -1.92179E+03  2.44242E+02 -1.50650E+03
  8.47346E+02 -1.38282E+03  2.04492E+03 -6.36668E+02  1.11243E+03  5.37611E+02  2.73393E+02  1.20869E+03
 -9.99653E+02  3.84228E+01 -1.02542E+03 -9.66916E+02  4.76993E+02 -2.60586E+03  1.68019E+03 -1.87259E+03
  2.33665E+03  7.47249E+02  1.90435E+03  1.75648E+03  6.79277E+02  3.30188E+03 -1.19563E+03  1.56930E+03
 -2.53685E+03  1.29674E+03 -2.15320E+03  6.85325E+01 -5.86438E+02 -3.56520E+03 -3.05694E+02 -1.24862E+03
  2.76078E+03 -5.61987E+01  1.18535E+03  7.04852E+02  2.04853E+02  2.25016E+03  1.25179E+03  9.70921E+02
 -6.62536E+02  1.60371E+03 -1.01816E+03  3.86289E+02  3.67231E+02  4.78594E+01 -5.18942E+02  6.66488E+02
 -1.93298E+03  1.69500E+03 -2.52133E+03  4.85144E+02 -2.28181E+03 -4.61794E+02 -3.20196E+03 -1.59650E+03
 -9.81605E+02 -3.86983E+03  1.54363E+03 -3.96811E+03  1.76363E+03 -2.99059E+03  3.93572E+03 -5.54653E+02
  3.89804E+03  5.37072E+02  2.20469E+03  2.36426E+03 -1.17350E+03  1.79748E+03 -9.15835E+02  2.39746E+03
 -5.42123E+02  8.52546E+02 -2.55424E+02 -7.07796E+02 -3.05286E+02 -1.51896E+02 -1.47362E+03  2.35513E+02
 -3.75472E+02 -1.22396E+03 -1.58442E+02 -1.03347E+03  1.59493E+02 -6.38853E+02 -1.05773E+03 -1.02676E+03
  2.08702E+03 -6.37537E+02 -4.84662E+01  2.87611E+01  2.20148E+03  1.74195E+03 -1.26235E+03  2.48056E+03
 -9.86792E+02  3.20767E+03 -2.43112E+03  2.28832E+03 -2.90532E+03  8.36770E+02 -1.53741E+03 -2.92518E+03
 -2.15578E+02 -1.25661E+03  6.75775E+02 -2.82392E+03  9.60663E+02 -8.41320E+02  8.67295E+02 -6.09598E+02
  1.08229E+03  1.63321E+02  3.96401E+02  1.34854E+03 -2.50569E+02 -6.18904E+02 -9.89117E+02 -1.70088E+02
  8.69545E+01 -5.39774E+02  4.54218E+02  2.03915E+02 -4.51282E+02  9.48667E+02  2.27704E+02  1.19999E+02
 -1.14315E+03  8.10073E+02  9.30077E+00  4.78533E+02 -8.01695E+02 -5.67522E+02  5.46403E+02 -4.60606E+02
  6.64288E+02 -8.70111E+02  1.45216E+03 -5.62246E+02  1.66477E+03 -6.06810E+02  2.20277E+03  7.25414E+02
  6.78265E+02  1.25746E+03 -2.83003E+02  3.20884E+01 -1.18142E+03  9.60290E+02 -2.60382E+02 -5.52816E+02
 -1.27856E+03 -5.08894E+02 -3.56899E+02  5.31799E+02 -1.06571E+03  1.23378E+03 -1.10357E+03 -1.00294E+03
 -5.02103E+02 -8.15403E+02 -1.92139E+03 -1.90194E+03  1.05601E+03 -1.88254E+03  1.21374E+03  1.85541E+02
  1.04627E+03  9.32125E+02 -7.08204E+02  9.39916E+02  4.39735E+01  2.24285E+03 -1.01555E+03  8.50649E+02
