 $NMID ID='MM_0lb_SNR200_17hz_g60_16.RAW', FMTDAT='(8E13.5)'
 TRAMP=1., VOLUME=1. $END
  3.09401E+05  2.95376E+02  3.37557E+05  2.49917E+05  8.39154E+04  3.38306E+05 -1.32222E+05  2.50725E+05
 -1.91000E+05  8.34318E+04 -1.12692E+05 -3.37771E+04  7.95467E+02 -5.05228E+04  5.44763E+04 -4.80617E+02
  3.48038E+04  5.15991E+04 -1.59962E+04  7.51038E+04 -6.01312E+04  6.31626E+04 -8.36749E+04  3.20983E+04
 -8.06280E+04 -1.24148E+04 -5.80932E+04 -5.13424E+04 -1.51403E+04 -6.94044E+04  2.75542E+04 -4.56287E+04
  4.00617E+04  2.20458E+03  1.56934E+04  4.73294E+04 -3.53430E+04  4.76572E+04 -6.58697E+04 -5.48883E+02
 -5.34483E+04 -5.66724E+04 -6.72852E+03 -7.70105E+04  3.39959E+04 -5.49991E+04  4.70547E+04 -1.60036E+04
  4.27252E+04  1.18249E+04  3.16993E+04  2.56148E+04  1.58141E+04  2.99738E+04 -6.02839E+03  2.76827E+04
 -2.19977E+04  1.18636E+04 -1.84903E+04 -4.50799E+03  6.63042E+03 -6.98511E+03  2.19913E+04  1.17178E+04
  6.47931E+03  3.41328E+04 -3.16509E+04  3.51937E+04 -6.30795E+04  1.71867E+03 -5.74267E+04 -4.25600E+04
 -1.16417E+04 -6.32010E+04  3.87761E+04 -4.36951E+04  5.84670E+04 -1.83293E+03  3.25109E+04  3.19177E+04
 -6.08205E+03  3.56572E+04 -3.05854E+04  1.55287E+04 -2.98431E+04 -3.94449E+03 -1.57661E+04 -1.12848E+04
 -7.72326E+03 -1.30180E+04 -7.22400E+02 -1.83416E+04  7.00515E+03 -2.22804E+04  1.58886E+04 -1.40477E+04
  1.07090E+04  4.83627E+03 -7.84553E+03  1.14343E+04 -2.03847E+04 -3.37541E+03 -8.61061E+03 -3.36315E+04
  2.17807E+04 -4.33317E+04  4.77201E+04 -1.98549E+04  4.44251E+04  1.78479E+04  1.66258E+04  4.25669E+04
 -1.62590E+04  3.25238E+04 -2.40802E+04  1.52105E+03 -1.04709E+04 -2.62859E+04  2.13630E+04 -3.33613E+04
  4.00893E+04 -9.43435E+03  3.48982E+04  2.29786E+04  1.79107E+04  4.56440E+04 -8.68247E+03  4.97041E+04
 -3.15839E+04  3.31156E+04 -4.03974E+04  9.59277E+03 -4.10541E+04 -1.55721E+04 -2.23637E+04 -3.66776E+04
  7.34176E+03 -3.65439E+04  3.11841E+04 -1.47038E+04  2.88173E+04  1.09767E+04  3.53736E+03  1.93194E+04
 -1.27009E+04  7.47960E+03 -9.70537E+03 -7.75866E+03  5.58983E+03 -1.14284E+04  1.73105E+04  5.71676E+03
  1.32542E+04  2.10841E+04 -4.94663E+03  2.45452E+04 -2.15617E+04  1.09917E+04 -2.76328E+04 -4.24060E+03
 -1.85153E+04 -1.52291E+04 -8.70619E+03 -2.03746E+04  3.64228E+03 -1.76425E+04  1.56927E+04 -1.73462E+04
  2.43824E+04 -1.22469E+04  3.05507E+04  2.13810E+03  2.20958E+04  1.91324E+04  3.67513E+03  3.54642E+04
 -1.64767E+04  2.91270E+04 -2.67821E+04  1.07944E+04 -2.07169E+04 -9.98688E+03 -3.96271E+03 -1.39738E+04
  1.69515E+03 -2.93024E+03 -4.54814E+03  5.71234E+03 -1.62808E+04  4.16597E+03 -1.53082E+04 -6.85812E+03
 -9.43336E+03 -1.89901E+04  4.96733E+03 -2.16039E+04  1.44590E+04 -1.53128E+04  1.75301E+04 -9.49353E+02
  9.70183E+03  1.28952E+04 -1.50349E+03  1.84547E+04 -1.32587E+04  9.52419E+03 -1.86491E+04 -2.94953E+03
 -1.34320E+04 -1.58489E+04 -2.25466E+03 -2.11433E+04  1.01430E+04 -1.81236E+04  1.74661E+04 -8.68413E+03
  1.78340E+04  5.37106E+02  1.20886E+04  3.68331E+03  6.30326E+03  1.07433E+03  8.44993E+03 -1.23734E+03
  1.65675E+04  2.39372E+03  1.77447E+04  1.44061E+04  1.17305E+04  2.89726E+04 -3.18967E+03  3.17338E+04
 -1.85262E+04  2.38978E+04 -3.01934E+04  1.23427E+04 -3.15981E+04 -1.63146E+03 -2.50490E+04 -1.86778E+04
 -1.19790E+04 -2.47972E+04  8.29614E+03 -2.16092E+04  1.89996E+04 -1.11649E+04  1.74516E+04  4.83199E+03
  6.62075E+03  1.37558E+04 -7.67829E+03  1.19554E+04 -1.63696E+04  2.13520E+03 -1.14559E+04 -7.81874E+03
  1.04197E+02 -1.45210E+04  6.43165E+03 -1.18238E+04  9.55695E+03 -1.49645E+03  2.82621E+03  5.90842E+03
 -5.88052E+03  2.43839E+03 -6.08340E+03 -4.81236E+03  4.15908E+02 -1.19844E+04  8.55064E+03 -1.18070E+04
  1.57885E+04 -5.87671E+03  1.52555E+04  2.19986E+03  1.38636E+04  1.24325E+04  6.71420E+03  1.74656E+04
 -4.19232E+03  1.97870E+04 -1.21209E+04  1.21272E+04 -1.42428E+04  2.43983E+03 -1.05167E+04 -2.75015E+03
 -4.41896E+03 -4.04139E+03 -1.17064E+03  6.08348E+02 -2.63231E+03  1.76681E+03 -6.05502E+03  3.80188E+03
 -1.04315E+04 -1.05054E+03 -9.43530E+03 -7.50531E+03 -4.13380E+03 -1.32885E+04  4.74225E+03 -1.00516E+04
  7.92812E+03 -4.34620E+03  6.43310E+03  3.95477E+03 -4.49209E+02  3.88436E+03 -3.71174E+03 -9.16207E+01
 -2.90781E+03 -5.89200E+03 -1.19558E+02 -7.75845E+03  5.26761E+03 -9.13210E+03  1.20284E+04 -4.47492E+03
  1.54306E+04  1.82142E+03  1.02039E+04  7.86276E+03  2.42103E+03  1.06782E+04 -5.45771E+03  1.06037E+04
 -7.84576E+03  3.48514E+03 -4.50490E+03 -1.96608E+03  1.89987E+03 -1.28946E+03  5.91998E+03 -8.50125E+02
  5.00918E+03  4.14937E+03  1.48812E+03  6.78836E+03 -5.35435E+03  8.65730E+03 -9.74407E+03  1.18242E+03
 -4.93432E+03 -5.16050E+03  9.51571E+02 -7.33514E+03  5.35819E+03 -4.65571E+03  3.71911E+03  1.39995E+03
 -7.52205E+00  4.02107E+03 -5.77761E+03  5.72144E+03 -5.93221E+03  3.96163E+03 -5.64981E+03 -2.64252E+03
 -3.29643E+03 -7.52984E+03  1.86626E+03 -1.02273E+04  8.55613E+03 -6.33052E+03  7.99799E+03  8.12451E+02
  5.24612E+03  6.06345E+03 -7.60490E+02  8.24949E+03 -5.40084E+03  4.08465E+03 -7.29109E+03 -4.35284E+02
 -7.31780E+03 -6.29044E+03 -5.22564E+02 -6.32018E+03  3.66351E+03 -5.28457E+03  3.75657E+03 -3.30584E+03
  2.98407E+03  1.18638E+02  1.13204E+03  1.02299E+03 -6.90496E+02 -2.94763E+02  1.09906E+03 -2.12106E+03
  5.39920E+03 -1.16138E+03  7.83770E+03  4.32295E+02  7.06752E+03  3.92437E+03  5.93079E+03  9.15008E+03
 -2.23112E+03  1.16661E+04 -1.03440E+04  9.26565E+03 -1.28966E+04  1.26545E+03 -9.41362E+03 -2.70456E+03
 -4.40897E+03 -8.03946E+03 -4.91798E+02 -6.58449E+03  2.72276E+03 -3.27216E+03  3.18444E+03 -2.57105E+03
  2.05789E+03 -9.91547E+02  2.57488E+03 -2.70990E+03  3.63618E+03 -1.39760E+03  4.25006E+03  1.70313E+03
  6.20015E+03 -1.04068E+01  1.72344E+03  4.90711E+03 -1.25667E+03  3.90419E+03 -4.66937E+03  4.18486E+03
 -6.22547E+03 -2.64630E+02 -3.55034E+03 -5.06596E+03 -9.98818E+02 -7.74337E+03  3.37948E+03 -7.39711E+03
  6.44579E+03 -5.24675E+03  7.62340E+03  1.15304E+03  6.10408E+03  5.67878E+03  9.48731E+02  7.50589E+03
 -2.50134E+03  6.16650E+03 -5.72243E+03  1.36148E+03 -2.92723E+03 -1.86893E+03  6.00615E+01 -5.53086E+02
 -1.52509E+03 -6.18910E+02 -1.04267E+03  2.31352E+03 -3.75646E+03  8.42313E+02 -5.43291E+03 -1.11285E+03
 -3.37265E+03 -4.60660E+03  6.02815E+02 -6.41477E+03  4.53208E+03 -5.40992E+03  5.91612E+03 -1.00215E+03
  6.06752E+03  3.82974E+03  2.40983E+03  4.11754E+03  8.50702E+01  5.14568E+03 -3.87218E+03  3.79418E+03
 -4.47853E+03  1.31950E+03 -3.47488E+03 -3.82818E+03 -4.94842E+02 -4.39312E+03  3.56312E+03 -2.53679E+03
  2.90557E+03 -5.91992E+02  1.84868E+03  1.14962E+02  5.17359E+02  8.11886E+02  7.90385E+02  1.73308E+03
  1.59823E+03 -3.49581E+02  2.08041E+03  2.00721E+03  1.82079E+03  1.80864E+03  1.62969E+03  2.45960E+03
 -9.27746E+02  2.53122E+03 -3.42502E+03  5.70546E+03 -4.33777E+03  1.03972E+03 -5.88307E+03 -1.92969E+02
 -3.29302E+03 -5.82272E+03  1.78453E+03 -6.50635E+03  3.09955E+03 -3.65299E+03  4.51105E+03 -1.10650E+03
  2.98089E+03  1.93868E+03  2.98505E+02  2.72319E+03  1.58425E+02  1.60268E+03 -1.07613E+03 -3.76539E+01
 -1.11195E+03 -2.83857E+03  2.10298E+03 -2.49488E+03  2.37666E+03 -1.72830E+03  1.78213E+03 -2.50412E+02
  2.19370E+03  1.97173E+03  1.99851E+02 -5.04446E+01  2.96453E+02  3.86230E+02  1.43082E+03 -6.13765E+01
  5.74747E+02  3.68143E+01  2.96791E+03  1.44233E+03  9.13706E+02  2.78597E+03 -6.73783E+01  4.22904E+03
 -2.41346E+03  1.15853E+03 -1.54110E+03  1.22347E+02 -2.71100E+03 -9.04412E+02 -7.50212E+01 -1.94294E+03
 -3.05942E+02 -1.11161E+03  1.67179E+03 -8.75381E+02  1.87958E+03  2.02946E+03 -6.14818E+02  6.19264E+02
 -9.37693E+02  6.32251E+02  2.56832E+02 -2.67600E+03 -7.45829E+02 -3.37706E+03  4.89021E+02 -1.76508E+03
  1.64599E+03 -1.23353E+03  1.18847E+03  7.23514E+02  1.24562E+03  1.05999E+02  9.24784E+02  1.94112E+03
 -1.07736E+03  8.51209E+01 -1.74547E+03 -2.25579E+02  8.37167E+02 -1.35851E+03  1.72703E+03 -6.22668E+02
  2.40485E+03 -5.47700E+02  3.11775E+03  1.51610E+03  2.36460E+03  9.27790E+02 -2.51365E+02  2.67644E+03
 -2.24458E+03  1.53924E+03 -2.20347E+03  1.72836E+02 -1.11291E+03  1.80809E+02  7.45300E+02 -1.15165E+03
  3.23004E+03 -1.13419E+03  5.61542E+02  8.19220E+02 -7.29629E+02  2.25818E+03  5.76687E+02  5.23850E+02
 -9.20442E+02  1.19146E+03 -1.74952E+03  8.11797E+01  6.08682E+02 -3.15338E+02 -1.23066E+02  1.74856E+03
 -2.32122E+02  1.81692E+03 -1.91919E+03  1.87088E+03 -2.73730E+03 -8.80051E+02 -4.02492E+03 -1.27448E+03
 -9.15196E+02 -1.90535E+03  6.82438E+02 -4.27170E+03  2.12001E+03 -2.99971E+03  3.92146E+03  2.90571E+01
  2.77715E+03  1.83818E+02  1.84829E+03  5.32052E+01 -7.72332E+02  2.41277E+03 -7.58893E+02  1.85675E+03
 -9.69808E+02  1.51302E+03 -1.52311E+03 -4.12640E+02 -1.14996E+02 -1.47772E+03 -6.58816E+02 -4.02344E+02
 -2.21582E+03 -2.77565E+02 -3.02624E+02 -4.45673E+02  6.97608E+02 -7.88211E+02 -3.75751E+01 -1.14986E+03
  1.93027E+03 -9.38240E+02  1.29951E+03 -3.02320E+02  1.58444E+03  9.88908E+02 -4.62215E+02  2.13338E+03
 -7.94154E+02  3.66220E+03 -1.19531E+03  1.37815E+03 -2.40050E+03 -3.89660E+02 -1.64305E+03 -1.79600E+03
 -2.97262E+02 -1.87954E+03  1.16525E+03 -1.34380E+03  1.16904E+03 -4.96617E+02  3.22113E+02  4.60455E+02
 -6.77574E+01 -4.57754E+02 -2.65035E+02  5.34284E+02 -1.40993E+03 -4.32388E+02  5.30312E+02 -3.91398E+02
  1.69008E+03  4.01818E+02  8.72640E+02  1.72067E+02 -7.39810E+02  6.37917E+02  7.01143E+02  1.41569E+03
 -3.86106E+02  1.38700E+03 -6.97377E+02 -9.47100E+02 -1.37026E+03 -1.57072E+03  1.08897E+03 -2.54402E+03
  9.48375E+02  3.25586E+02  1.22256E+03  2.14741E+02  1.52111E+03 -7.67046E+02  1.40430E+03  1.65438E+03
  5.24346E+02  1.89660E+02 -8.82972E+02  1.40315E+03 -1.10715E+03  1.26302E+03 -1.73390E+03  8.23908E+02
 -4.96139E+02 -4.55967E+02 -1.05788E+03 -9.06786E+01 -1.16322E+03 -4.47594E+02 -6.21512E+02 -9.71755E+02
 -1.27443E+03  1.90409E+02 -1.23483E+02 -1.51863E+02  1.03385E+03 -1.75174E+03  1.19777E+03 -1.00606E+03
  8.49436E+02  3.67594E+01 -1.82507E+02  4.35416E+02 -8.08094E+02  1.06497E+03 -1.19360E+03  8.62118E+02
