 $NMID ID='MM_0lb_SNR200_19hz_g40_70.RAW', FMTDAT='(8E13.5)'
 TRAMP=1., VOLUME=1. $END
  3.10463E+05 -3.04349E+02  3.37111E+05  2.50662E+05  8.51740E+04  3.37502E+05 -1.32196E+05  2.50106E+05
 -1.89731E+05  8.18563E+04 -1.10392E+05 -3.34455E+04  1.49818E+03 -4.88075E+04  5.47710E+04  1.12290E+03
  3.43144E+04  5.25903E+04 -1.68927E+04  7.47928E+04 -5.95652E+04  6.27908E+04 -8.32344E+04  3.07126E+04
 -7.90727E+04 -1.15902E+04 -5.56946E+04 -4.95393E+04 -1.38834E+04 -6.73886E+04  2.62782E+04 -4.47625E+04
  3.89889E+04  3.31357E+03  1.62504E+04  4.53112E+04 -3.31691E+04  4.60098E+04 -6.51190E+04 -1.25970E+02
 -5.10064E+04 -5.66891E+04 -6.08952E+03 -7.51643E+04  3.28293E+04 -5.18198E+04  4.40128E+04 -1.55317E+04
  4.10294E+04  1.15039E+04  2.94026E+04  2.39958E+04  1.67579E+04  2.73823E+04 -5.48496E+03  2.57365E+04
 -2.13288E+04  1.25823E+04 -1.98897E+04 -4.79635E+03  3.65289E+03 -7.98483E+03  2.12441E+04  1.17709E+04
  7.62681E+03  3.33714E+04 -3.04340E+04  3.25941E+04 -6.03734E+04  1.75360E+03 -5.44213E+04 -4.11435E+04
 -1.20199E+04 -5.99918E+04  3.76279E+04 -4.25871E+04  5.41136E+04 -2.43967E+03  3.13951E+04  2.99801E+04
 -6.63717E+03  3.26120E+04 -2.87546E+04  1.27127E+04 -2.69060E+04 -5.63979E+03 -1.35572E+04 -9.58937E+03
 -7.21069E+03 -1.11246E+04 -1.37055E+03 -1.58535E+04  5.38566E+03 -2.27075E+04  1.49288E+04 -1.43367E+04
  1.16037E+04  4.82647E+03 -5.02888E+03  1.26822E+04 -1.90795E+04 -1.04652E+03 -7.85948E+03 -2.98770E+04
  2.02030E+04 -3.94592E+04  4.32063E+04 -1.82204E+04  4.09527E+04  1.75185E+04  1.35972E+04  4.06786E+04
 -1.57442E+04  2.95290E+04 -2.31533E+04  3.18564E+02 -8.92551E+03 -2.54276E+04  2.04350E+04 -3.10378E+04
  3.58830E+04 -7.77364E+03  2.82442E+04  2.17612E+04  1.37162E+04  4.18499E+04 -8.77757E+03  4.25232E+04
 -2.62820E+04  2.84115E+04 -3.52193E+04  7.55028E+03 -3.69692E+04 -1.53749E+04 -2.05386E+04 -3.37413E+04
  6.46284E+03 -3.35043E+04  2.86076E+04 -1.22645E+04  2.59625E+04  1.07628E+04  3.42395E+03  1.63800E+04
 -1.24714E+04  7.84024E+03 -9.44856E+03 -6.64896E+03  6.11070E+03 -1.07980E+04  1.60800E+04  6.87814E+03
  1.21495E+04  2.16637E+04 -7.04884E+03  2.21988E+04 -2.04464E+04  8.22840E+03 -2.51244E+04 -6.90264E+03
 -1.57387E+04 -1.58477E+04 -5.71098E+03 -1.55253E+04  4.21452E+03 -1.39879E+04  1.01467E+04 -1.39371E+04
  2.05623E+04 -1.17555E+04  2.83273E+04  7.27636E+02  2.01470E+04  1.56446E+04  3.39898E+03  3.09526E+04
 -1.50395E+04  2.61682E+04 -2.46521E+04  9.72651E+03 -1.98347E+04 -1.06155E+04 -4.62604E+03 -1.38816E+04
  2.81686E+03 -4.60250E+03 -2.07655E+03  4.38173E+03 -1.27614E+04  5.38724E+03 -1.29601E+04 -5.37205E+03
 -8.03624E+03 -1.34271E+04  5.13873E+03 -1.68750E+04  1.17630E+04 -1.39880E+04  1.40453E+04 -2.16999E+03
  9.16043E+03  9.21975E+03 -1.09874E+03  1.35594E+04 -9.80525E+03  7.45165E+03 -1.41485E+04 -3.68586E+03
 -1.10480E+04 -1.28553E+04 -3.02544E+02 -1.79344E+04  9.15572E+03 -1.43278E+04  1.51445E+04 -6.65213E+03
  1.32541E+04  1.42233E+03  1.01174E+04  3.38128E+03  5.87417E+03  7.70180E+02  7.05511E+03 -5.96120E+02
  1.33042E+04  2.09089E+03  1.38615E+04  1.21849E+04  7.39609E+03  2.34946E+04 -2.68083E+03  2.42681E+04
 -1.51774E+04  1.86071E+04 -2.31196E+04  8.12356E+03 -2.36800E+04 -2.48217E+03 -2.01121E+04 -1.30976E+04
 -9.49666E+03 -1.84284E+04  6.94225E+03 -1.75843E+04  1.65588E+04 -9.19774E+03  1.45273E+04  3.66428E+03
  6.45449E+03  1.03224E+04 -5.35974E+03  1.07634E+04 -1.26268E+04  2.70100E+03 -9.07980E+03 -7.50278E+03
 -8.45386E+01 -1.08296E+04  5.93217E+03 -9.49730E+03  7.96771E+03  5.85704E+01  1.01610E+03  5.28736E+03
 -4.54779E+03  1.28214E+03 -2.72943E+03 -4.48771E+03  9.44765E+02 -1.01163E+04  8.36044E+03 -8.86919E+03
  1.03483E+04 -3.64029E+03  1.04293E+04  2.60248E+03  8.73415E+03  8.69139E+03  4.23822E+03  1.26750E+04
 -1.61935E+03  1.43643E+04 -8.59913E+03  1.02396E+04 -9.18391E+03  3.25731E+03 -7.72446E+03 -2.23763E+03
 -4.30977E+03 -2.86671E+03 -8.59021E+02  7.62356E+02 -2.17942E+03  1.18016E+03 -3.45675E+03  3.90064E+03
 -7.72462E+03 -1.42616E+03 -7.14321E+03 -6.37034E+03 -4.01778E+03 -1.04668E+04  3.53298E+03 -8.66022E+03
  7.06145E+03 -4.08040E+03  4.49972E+03  1.43103E+03  7.23903E+02  3.37020E+03 -3.34744E+03  5.63873E+02
 -3.40720E+03 -4.37559E+03 -5.75322E+02 -6.72829E+03  3.78210E+03 -7.94081E+03  9.34233E+03 -3.13507E+03
  1.12930E+04 -2.97991E+02  8.58932E+03  5.67887E+03  2.68773E+03  8.58410E+03 -6.21576E+03  6.76286E+03
 -5.67282E+03  2.15570E+03 -2.90296E+03  1.12483E+01  1.68745E+03 -8.21019E+02  4.70309E+03 -7.07147E+02
  3.16971E+03  2.35332E+03  5.05280E+02  6.29998E+03 -4.90703E+03  5.38476E+03 -6.86532E+03  2.28389E+03
 -4.43071E+03 -4.43168E+03 -7.65849E+02 -6.07148E+03  4.36536E+03 -3.60054E+03  3.03835E+03  9.23883E+01
  4.51417E+02  3.19938E+03 -3.25687E+03  3.95793E+03 -4.32763E+03  3.46837E+03 -4.14016E+03 -7.90866E+02
 -2.78857E+03 -5.42661E+03  7.52685E+02 -7.18802E+03  4.54368E+03 -3.20631E+03  6.47402E+03  2.72547E+02
  3.72765E+03  5.09773E+03 -6.17086E+01  6.16817E+03 -4.12407E+03  5.33685E+03 -4.18869E+03 -7.67334E+02
 -5.64291E+03 -4.78642E+03 -1.38617E+03 -4.00879E+03  2.87413E+03 -4.54158E+03  2.65578E+03 -1.96103E+03
  1.83489E+03  1.06922E+03  4.21298E+02  1.53403E+03  1.02345E+03 -2.42833E+02 -1.40877E+02 -1.52753E+03
  3.19448E+03  3.70749E+02  5.35602E+03  8.46684E+01  5.74652E+03  1.90787E+03  4.37630E+03  6.29653E+03
 -5.31071E+02  7.45315E+03 -7.10311E+03  5.80063E+03 -9.12352E+03  1.03545E+03 -6.64014E+03 -1.92861E+03
 -3.34582E+03 -5.96186E+03 -5.95021E+02 -4.06663E+03  2.26328E+03 -2.52778E+03  2.15744E+03 -1.33535E+03
  1.85578E+03 -2.32160E+03  2.32209E+03 -2.86101E+03  2.84332E+03 -1.11457E+03  3.34622E+03  3.47316E+02
  4.72003E+03  1.12132E+03  1.13758E+03  3.28521E+03 -8.04331E+02  2.74164E+03 -4.13902E+03  2.86590E+03
 -4.78279E+03 -9.97612E+02 -3.22741E+03 -2.80199E+03  9.34666E+02 -4.58420E+03  3.51603E+03 -5.10405E+03
  5.29099E+03 -2.34912E+03  5.30412E+03  1.40094E+03  4.50644E+03  4.96716E+03  4.97241E+02  5.01091E+03
 -1.41303E+03  5.37468E+03 -4.48360E+03  1.53269E+03 -1.95548E+03 -4.24560E+02 -4.56837E+02  4.74177E+02
 -9.44555E+02 -4.08341E+02 -6.05934E+02  1.78189E+03 -1.58590E+03  1.43373E+03 -4.17502E+03 -1.75402E+02
 -1.64818E+03 -4.05670E+03  1.70679E+03 -3.90161E+03  3.54232E+03 -4.01165E+03  3.33136E+03 -1.71457E+03
  4.14074E+03  1.69833E+03  1.19103E+03  2.03547E+03 -9.64211E+02  3.95029E+03 -2.84359E+03  1.25676E+03
 -3.60646E+03  6.32066E+02 -2.84755E+03 -1.83526E+03  8.73131E+01 -2.57731E+03  2.32379E+03 -2.19921E+03
  1.81953E+03 -1.31085E+03  9.80184E+02  9.76903E+02  3.61454E+02  1.60405E+03  6.72521E+02  8.69513E+01
  2.15937E+03  7.80047E+02  8.13595E+02  5.91563E+02  6.66492E+02  2.32992E+03  1.54143E+03  1.17916E+03
 -1.70230E+03  2.47865E+03 -2.13327E+03  4.09613E+03 -1.43273E+03  8.11828E+02 -4.28817E+03  9.05405E+01
 -1.53379E+03 -3.39885E+03  9.61653E+02 -4.51338E+03  1.69600E+03 -1.93419E+03  2.48930E+03 -3.95142E+02
  2.50278E+03  1.47899E+03  7.24427E+02  2.03230E+03 -1.74818E+01  1.99512E+03 -4.32585E+02  7.04934E+02
 -5.92655E+02 -7.14090E+02  1.15343E+03 -1.36450E+03  2.04975E+03 -7.64634E+02  2.79922E+03 -2.09789E+01
 -1.29790E+01  2.74142E+01  1.71516E+02 -2.80951E+00  2.71624E+02  6.59354E+02  2.80755E+03 -1.00492E+02
 -4.00558E+02 -1.08206E+01  1.04688E+03 -1.38811E+02  4.47014E+02  2.39218E+03 -7.05837E+02  3.75764E+03
 -2.42305E+03  8.91034E+02 -2.09205E+03  1.55140E+03 -1.33529E+03  3.90383E+02  1.72305E+02 -8.46411E+02
  7.82779E+02 -1.31291E+03  1.20469E+02 -9.51596E+02  7.29201E+02  4.78560E+02 -1.24360E+03  1.36257E+03
 -1.39356E+03  9.13083E+02 -1.03536E+03 -9.91351E+02 -5.00088E+02 -1.14704E+03 -7.53822E+02 -1.60214E+03
  7.86259E+02 -3.30901E+02  5.97839E+02  1.05326E+03  5.27324E+02 -3.42598E+02 -1.27433E+02 -1.05058E+02
 -1.00882E+03  5.66170E+02 -9.60195E+02 -3.32265E+02  1.73978E+03 -4.43933E+02  7.31461E+02 -1.28689E+03
  2.00424E+03  2.88884E+02  2.85836E+03  1.14116E+02  1.69800E+03  3.70653E+03 -1.15292E+02  1.12568E+03
 -1.79096E+03  4.35154E+02 -8.96397E+02  7.28231E+02 -8.46765E+02 -1.65840E+03  4.91253E+02 -6.66469E+02
  1.33645E+03 -2.28310E+03  1.21711E+03  6.86941E+02  1.23648E+03  9.65012E+02 -9.72340E+01  1.27368E+03
 -9.75118E+02  8.04719E+02 -1.23536E+03  1.97235E+02  9.93100E+02  2.18914E+02 -3.23144E+02  2.36218E+02
 -1.20979E+03  9.89264E+02 -1.56795E+03 -4.86926E+02 -1.79634E+03  3.63385E+02 -1.94411E+03 -1.21492E+03
 -1.24892E+03 -1.30759E+03  2.96219E+02 -3.41427E+03  1.18502E+03 -1.51642E+03  1.87222E+03 -1.33976E+03
  1.20003E+03 -1.49039E+02  9.54320E+02  7.69342E+02 -1.39979E+02  5.17605E+02 -7.00488E+02  6.11851E+02
 -1.64180E+02  1.41362E+03 -2.05041E+02 -1.05610E+03  6.14069E+02  8.65619E+02 -8.83432E+02 -6.81548E+02
 -1.05214E+03  5.02982E+02 -8.55986E+02  1.37202E+03  1.19189E+02 -7.87706E+02 -6.41725E+02  1.42296E+01
  2.03230E+03 -4.17899E+01  7.61610E+02  8.05167E+02  3.36691E+02  1.31897E+03 -7.84322E+02  9.59179E+02
  5.05169E+02  2.71013E+03 -2.24397E+03  1.26897E+03 -3.15162E+03  2.06240E+02 -1.74630E+03 -7.44059E+02
 -2.16151E+02 -7.14803E+01  9.05404E+02 -1.73703E+03 -6.16047E+02 -4.41271E+02  1.41614E+03  6.38189E+02
  1.34522E+03  2.71654E+02  4.57154E+02  4.04837E+02 -1.07658E+03  3.43945E+02 -1.44091E+02 -3.04089E+01
 -5.36750E+02  9.03299E+02 -1.61952E+02  1.66954E+02  5.58131E+02  1.23764E+03  6.36597E+02 -5.96247E+02
 -7.48379E+02 -3.80094E+02 -7.27689E+02 -3.55596E+02 -7.37216E+02 -1.11672E+03 -6.70907E+02 -2.13828E+03
  1.35361E+03 -1.45197E+02  2.85897E+02  3.89547E+02 -3.52236E+02 -4.67591E+02  8.59116E+02  8.91581E+02
  3.30588E+02  4.50685E+02 -8.57799E+02  7.40608E+02 -1.78758E+02  5.55595E+02 -3.91801E+02  4.61291E+01
 -6.61835E+02 -8.67758E+00 -7.85899E+02 -2.93846E+02 -1.35265E+03  5.94815E+02 -1.08145E+03 -1.74133E+01
 -2.12643E+02  4.33380E+02  2.72310E+02 -1.44119E+03  7.09009E+02 -2.17046E+03  1.59044E+03  2.10526E+02
  3.91604E+02 -2.78041E+02  3.65666E+02  1.13064E+03  2.23388E+02  1.19857E+02  1.82506E+02  5.28860E+02
