 $NMID ID='MM_0lb_SNR200_10hz_g45_66.RAW', FMTDAT='(8E13.5)'
 TRAMP=1., VOLUME=1. $END
  3.09312E+05  1.52361E+03  3.37293E+05  2.50677E+05  8.60991E+04  3.37754E+05 -1.31103E+05  2.51934E+05
 -1.89535E+05  8.39818E+04 -1.11393E+05 -3.18626E+04  1.12038E+03 -4.91874E+04  5.50103E+04 -1.66424E+01
  3.43596E+04  5.23161E+04 -1.61733E+04  7.56427E+04 -6.22934E+04  6.47344E+04 -8.58164E+04  3.24976E+04
 -8.15898E+04 -1.21032E+04 -5.75924E+04 -5.35536E+04 -1.69617E+04 -7.17266E+04  2.87166E+04 -4.76029E+04
  3.97079E+04  1.84245E+03  1.77136E+04  4.93594E+04 -3.50596E+04  4.88157E+04 -6.78737E+04  5.10127E+02
 -5.53436E+04 -5.68342E+04 -7.73773E+03 -7.83411E+04  3.59501E+04 -5.42283E+04  5.07967E+04 -1.84875E+04
  4.52565E+04  1.27941E+04  3.31607E+04  2.60144E+04  1.74557E+04  2.90495E+04 -6.75868E+03  2.70808E+04
 -2.18930E+04  1.10773E+04 -1.76869E+04 -6.50234E+03  6.89951E+03 -7.41795E+03  2.40627E+04  1.29265E+04
  6.86497E+03  3.61129E+04 -3.32372E+04  3.65324E+04 -6.57709E+04  1.79382E+03 -5.79204E+04 -4.42677E+04
 -1.31488E+04 -6.63011E+04  3.99637E+04 -4.63160E+04  6.08523E+04 -2.80207E+03  3.47158E+04  3.28690E+04
 -4.64669E+03  3.77510E+04 -3.09868E+04  1.71932E+04 -3.27412E+04 -3.23133E+03 -1.79590E+04 -1.16493E+04
 -8.81403E+03 -1.48944E+04 -1.33719E+03 -1.82900E+04  8.06028E+03 -2.36549E+04  1.53024E+04 -1.23730E+04
  9.86464E+03  6.09926E+03 -8.80922E+03  1.26200E+04 -2.26573E+04 -5.27508E+03 -8.32844E+03 -3.67593E+04
  2.28533E+04 -4.52283E+04  5.24453E+04 -2.00259E+04  4.83813E+04  2.06146E+04  1.70394E+04  4.42532E+04
 -1.62243E+04  3.67049E+04 -2.63891E+04  2.53869E+03 -9.69303E+03 -2.95716E+04  2.17036E+04 -3.55177E+04
  4.44926E+04 -1.04830E+04  3.89527E+04  2.42041E+04  2.02194E+04  4.97491E+04 -8.84573E+03  5.46178E+04
 -3.34898E+04  3.82038E+04 -4.74050E+04  9.88388E+03 -4.50781E+04 -1.82934E+04 -2.46444E+04 -4.02279E+04
  7.82719E+03 -4.03655E+04  3.43603E+04 -1.66229E+04  3.07918E+04  1.04313E+04  4.74434E+03  1.98598E+04
 -1.40699E+04  9.29291E+03 -9.99171E+03 -6.16106E+03  5.10650E+03 -1.06913E+04  1.78011E+04  5.09985E+03
  1.51735E+04  2.15907E+04 -6.02904E+03  2.67595E+04 -2.27246E+04  1.45190E+04 -3.19317E+04 -3.75669E+03
 -2.45080E+04 -1.85575E+04 -1.04243E+04 -2.31052E+04  3.75140E+03 -2.54294E+04  1.80770E+04 -2.28223E+04
  2.93484E+04 -1.40182E+04  3.76981E+04  5.07839E+03  2.65709E+04  2.22202E+04  3.21903E+03  3.92263E+04
 -1.88575E+04  3.45276E+04 -2.96669E+04  1.17743E+04 -2.30029E+04 -1.01472E+04 -5.67556E+03 -1.32034E+04
 -4.51051E+01 -1.85346E+03 -6.99306E+03  7.25496E+03 -1.99976E+04  5.79376E+03 -1.95476E+04 -8.81131E+03
 -1.15747E+04 -2.24749E+04  4.40914E+03 -2.72997E+04  1.67682E+04 -1.75740E+04  2.13938E+04 -2.42717E+03
  1.31986E+04  1.42220E+04 -1.17700E+03  2.33717E+04 -1.71511E+04  1.22519E+04 -2.12475E+04 -4.98190E+03
 -1.78261E+04 -2.00405E+04 -1.49825E+03 -2.79636E+04  1.16538E+04 -2.27194E+04  2.09760E+04 -1.22023E+04
  2.04714E+04  8.38479E+02  1.61872E+04  5.22399E+03  7.57179E+03  1.21299E+03  1.27795E+04 -2.58585E+03
  2.15740E+04  3.49165E+03  2.41880E+04  1.76741E+04  1.68300E+04  3.48547E+04 -3.22399E+03  4.01363E+04
 -2.37093E+04  3.36415E+04 -3.90896E+04  1.79858E+04 -4.10670E+04 -3.26784E+03 -3.39289E+04 -2.36117E+04
 -1.36627E+04 -3.36250E+04  1.26977E+04 -2.84187E+04  2.78207E+04 -1.44739E+04  2.21537E+04  6.05130E+03
  7.66668E+03  1.71509E+04 -1.15606E+04  1.47378E+04 -1.97903E+04  2.30876E+03 -1.44364E+04 -1.17253E+04
 -6.17483E+02 -1.82832E+04  1.09825E+04 -1.48067E+04  1.20319E+04 -1.25632E+03  2.26873E+03  8.86226E+03
 -7.99699E+03  5.02786E+03 -1.04578E+04 -6.66251E+03 -1.34988E+03 -1.62006E+04  1.25252E+04 -1.72932E+04
  2.14055E+04 -1.01028E+04  2.55587E+04  2.66226E+03  2.12682E+04  1.56417E+04  9.28351E+03  2.71131E+04
 -5.24390E+03  2.71578E+04 -1.73021E+04  1.76871E+04 -1.96458E+04  3.68026E+03 -1.54604E+04 -4.71755E+03
 -6.93313E+03 -6.18150E+03  1.18187E+02  1.24893E+03 -2.99127E+03  2.17472E+03 -6.05850E+03  3.44660E+03
 -1.31796E+04 -3.01973E+02 -1.43120E+04 -9.96053E+03 -5.26956E+03 -1.84399E+04  4.61342E+03 -1.41406E+04
  1.21021E+04 -5.53011E+03  7.84535E+03  2.91107E+03 -3.14611E+02  4.92853E+03 -7.10340E+03 -4.53865E+02
 -6.71615E+03 -8.58638E+03 -5.96837E+02 -1.32542E+04  8.12219E+03 -1.60452E+04  1.76667E+04 -9.90107E+03
  2.21146E+04  1.85964E+03  1.49634E+04  1.37130E+04  3.81343E+03  1.63711E+04 -7.69455E+03  1.28323E+04
 -1.13540E+04  3.32873E+03 -7.13482E+03 -1.92710E+03  3.01936E+03 -5.03907E+03  7.83546E+03 -1.72278E+03
  5.62752E+03  5.17536E+03  1.73725E+03  1.14319E+04 -7.39377E+03  1.11483E+04 -1.33835E+04  2.17644E+03
 -9.24660E+03 -8.12859E+03 -6.53907E+02 -1.06333E+04  9.00329E+03 -4.92428E+03  7.84721E+03  2.71760E+03
  2.27307E+03  8.40318E+03 -8.18410E+03  9.82472E+03 -1.18164E+04  5.23385E+03 -1.19838E+04 -4.33938E+03
 -6.57242E+03 -1.33370E+04  3.22775E+03 -1.52116E+04  1.33176E+04 -8.92680E+03  1.53260E+04  1.65111E+03
  8.98065E+03  1.15904E+04 -4.50313E+02  1.33121E+04 -1.07701E+04  6.78646E+03 -1.13077E+04 -7.82574E+02
 -1.02658E+04 -1.02188E+04 -1.11160E+03 -9.90811E+03  6.11094E+03 -8.72861E+03  7.36632E+03 -3.63393E+03
  4.25334E+03  2.09311E+03 -2.59276E+03  2.69227E+03 -1.18979E+03 -2.03382E+03  1.85132E+03 -6.31347E+03
  1.05794E+04 -2.91899E+03  1.29594E+04  1.15610E+03  1.42627E+04  9.26546E+03  8.77024E+03  1.74091E+04
 -4.77519E+03  2.17800E+04 -1.70808E+04  1.60795E+04 -2.25826E+04  1.90761E+03 -1.88596E+04 -7.09608E+03
 -1.01725E+04 -1.38074E+04 -1.25871E+03 -1.24662E+04  5.15421E+03 -7.67667E+03  4.38119E+03 -4.64372E+03
  3.18035E+03 -1.24351E+03  4.96985E+03 -4.25828E+03  5.30837E+03 -2.48722E+03  7.43054E+03 -8.01924E+02
  9.26124E+03  2.10403E+03  4.90726E+03  9.72582E+03 -3.07129E+03  9.90258E+03 -8.82310E+03  8.21770E+03
 -1.31267E+04 -8.61792E+02 -8.00875E+03 -8.27949E+03 -1.29421E+03 -1.43154E+04  7.82201E+03 -1.30701E+04
  1.44641E+04 -7.41930E+03  1.72832E+04  3.83273E+03  1.16223E+04  1.34683E+04  3.09583E+03  1.70645E+04
 -7.87826E+03  1.24744E+04 -9.09997E+03  3.76846E+03 -5.45025E+03 -6.00949E+02 -2.78217E+03 -3.01759E+03
 -1.32674E+03 -3.28755E+02 -2.68488E+03  2.37633E+03 -4.89018E+03  1.32495E+03 -7.82871E+03 -8.18505E+02
 -5.91786E+03 -9.23044E+03  1.57627E+03 -1.20361E+04  7.67954E+03 -1.08025E+04  1.21856E+04 -1.87757E+03
  1.30440E+04  8.46764E+03  5.87057E+03  1.28180E+04 -3.12607E+03  1.28111E+04 -9.35101E+03  7.67045E+03
 -1.16592E+04  2.01291E+03 -8.14675E+03 -9.30507E+03 -1.54620E+03 -1.13654E+04  5.70626E+03 -7.62359E+03
  7.30062E+03 -1.77536E+03  5.95959E+03  4.20309E+03  1.64038E+03  2.52753E+03  2.10723E+03  4.44206E+02
  1.34832E+03  1.94967E+03  4.63711E+03  2.06200E+03  5.29165E+03  4.29554E+03  3.48197E+03  7.31052E+03
 -2.13786E+03  1.07519E+04 -6.79781E+03  9.68960E+03 -1.33426E+04  2.93724E+03 -1.26180E+04 -4.81394E+03
 -6.39511E+03 -1.31919E+04  1.19253E+03 -1.42570E+04  7.63950E+03 -9.18504E+03  1.06598E+04 -2.75219E+03
  7.63655E+03  4.95528E+03  3.36053E+03  7.44405E+03 -3.40590E+03  4.50847E+03 -5.51217E+03 -1.69535E+03
 -2.52844E+03 -4.63694E+03  2.89711E+03 -6.17785E+03  4.23813E+03 -2.28202E+03  4.56393E+03  8.23650E+02
  2.39741E+03  3.56731E+03  9.31449E+02  1.33085E+03 -9.44340E+02  2.12609E+03  2.29262E+03  2.94698E+01
  1.93799E+02 -8.02601E+02  6.28200E+03  1.50210E+03  3.44183E+03  6.77716E+03 -1.73857E+03  8.21136E+03
 -6.90747E+03  5.78097E+03 -9.26422E+03  1.65972E+03 -7.47469E+03 -2.56496E+03 -4.09359E+03 -5.56690E+03
  6.04428E+02 -4.50515E+03  3.69754E+03 -1.44186E+03  1.95324E+03  2.51564E+03 -1.09413E+03  3.56196E+03
 -5.81978E+03  2.91654E+03 -4.73047E+03 -4.49341E+03 -3.28449E+03 -6.21115E+03  1.22360E+03 -7.48381E+03
  4.51760E+03 -3.95495E+03  4.16302E+03 -1.85896E+03  5.42026E+03  3.07724E+03  9.50411E+02  4.37148E+03
 -2.17122E+03  6.46600E+02 -3.73136E+03 -3.11733E+03  1.63621E+03 -5.01684E+03  5.48669E+03 -4.56017E+03
  6.77956E+03  9.71753E+02  1.05338E+04  6.09443E+03  2.30944E+03  9.37180E+03 -1.81305E+03  7.87672E+03
 -6.94674E+03  4.40801E+03 -7.86706E+03 -1.08034E+03 -3.98333E+03 -5.65477E+03  2.73212E+02 -5.30589E+03
  6.07707E+03 -1.96190E+03  4.24097E+03  1.09670E+03  1.59716E+03  3.93541E+03  4.77146E+01  4.55646E+03
 -1.18892E+03  2.34533E+03 -1.03015E+03  5.73329E+02 -1.41320E+03  1.53241E+03 -2.56587E+03  2.92241E+03
 -2.09598E+03  3.42865E+03 -5.68913E+03  3.37821E+03 -8.43611E+03  5.03429E+02 -9.76304E+03 -6.61475E+03
 -5.77933E+03 -1.13087E+04  3.06126E+03 -1.11517E+04  9.32264E+03 -9.96634E+03  1.16349E+04 -3.16491E+03
  1.09857E+04  3.11958E+03  7.01636E+03  6.59110E+03  1.42376E+03  8.64878E+03 -3.80491E+03  6.01993E+03
 -4.85716E+03  2.19598E+03 -2.96009E+03 -8.02344E+02 -2.90933E+02 -1.95151E+03  5.34489E+02  6.43245E+02
 -1.45437E+03 -1.34717E+02 -1.59984E+03  1.60726E+02  2.22549E+02 -1.60478E+03 -4.26892E+02 -2.48458E+03
  4.36126E+03 -2.23075E+03  5.37358E+03 -1.24437E+03  5.78089E+03  5.47808E+03  1.36468E+03  8.10526E+03
 -4.40315E+03  9.94454E+03 -9.96728E+03  5.92818E+03 -1.02492E+04 -4.48270E+02 -7.81970E+03 -6.34752E+03
 -4.61960E+03 -1.02625E+04  2.85056E+03 -8.23672E+03  6.12927E+03 -4.57400E+03  5.61559E+03  1.54116E+03
  2.61882E+03  4.46652E+03 -1.17412E+03  4.11925E+03 -2.46203E+03 -1.78570E+01  1.37674E+03 -1.25537E+03
  3.27976E+03 -1.89048E+03  4.91684E+03  2.48727E+02  3.34846E+03  3.10952E+03  1.76348E+02  3.18848E+03
 -3.68786E+03  2.89446E+03 -5.57218E+03  9.89654E+02 -5.79048E+03 -3.68815E+03  5.47301E+02 -8.56134E+03
  3.46784E+03 -5.67031E+03  5.85352E+03 -2.13895E+03  6.46014E+03  2.63243E+03  3.37520E+03  5.07067E+03
  5.89400E+02  4.82365E+03 -2.71829E+03  2.83794E+03 -2.15704E+03  4.32306E+03 -3.32487E+03 -1.58679E+02
 -2.26042E+03  4.23580E+01 -2.36217E+03 -1.10614E+02 -3.48079E+03  5.22276E+02 -3.19879E+03 -1.17282E+03
 -5.15398E+03 -2.33078E+03 -1.43287E+03 -6.85568E+03  2.49408E+03 -5.06360E+03  5.21014E+03 -2.98068E+03
  5.36561E+03  4.34555E+02  3.10203E+03  2.87939E+03 -5.40842E+02  7.38495E+03 -3.29899E+03  4.66823E+03
