 $NMID ID='MM_0lb_SNR200_13hz_g50_78.RAW', FMTDAT='(8E13.5)'
 TRAMP=1., VOLUME=1. $END
  3.09728E+05  1.58259E+03  3.37864E+05  2.49673E+05  8.54783E+04  3.38947E+05 -1.33825E+05  2.52658E+05
 -1.90826E+05  8.31974E+04 -1.12054E+05 -3.17693E+04  1.67760E+03 -5.15903E+04  5.42586E+04 -9.31672E+02
  3.55166E+04  5.34016E+04 -1.72943E+04  7.53959E+04 -6.00455E+04  6.49058E+04 -8.28420E+04  3.22250E+04
 -8.14624E+04 -1.07894E+04 -5.74354E+04 -5.17952E+04 -1.40376E+04 -6.89864E+04  2.70151E+04 -4.67640E+04
  4.01490E+04  3.64914E+03  1.65762E+04  4.72187E+04 -3.46278E+04  4.73906E+04 -6.69043E+04  6.35253E+02
 -5.44122E+04 -5.64071E+04 -7.86466E+03 -7.74332E+04  3.39634E+04 -5.50830E+04  4.83229E+04 -1.92368E+04
  4.50479E+04  1.17796E+04  3.12700E+04  2.64693E+04  1.58300E+04  2.88087E+04 -5.29910E+03  2.73698E+04
 -2.13487E+04  1.25774E+04 -1.80956E+04 -4.01985E+03  6.37325E+03 -6.14059E+03  2.20172E+04  1.39627E+04
  7.38832E+03  3.52807E+04 -3.32526E+04  3.43744E+04 -6.36196E+04  2.09210E+03 -5.83216E+04 -4.33795E+04
 -1.23893E+04 -6.34523E+04  4.01888E+04 -4.61275E+04  5.92787E+04 -2.70768E+03  3.36426E+04  3.30890E+04
 -4.93788E+03  3.68808E+04 -3.07277E+04  1.65325E+04 -3.13331E+04 -4.56892E+03 -1.79945E+04 -1.11966E+04
 -8.83843E+03 -1.39913E+04 -9.53140E+02 -1.81228E+04  7.33831E+03 -2.18747E+04  1.60396E+04 -1.27177E+04
  1.07348E+04  5.71186E+03 -8.70333E+03  1.31377E+04 -2.17404E+04 -3.86368E+03 -8.96026E+03 -3.39250E+04
  2.34282E+04 -4.40923E+04  4.83792E+04 -1.89033E+04  4.52781E+04  1.85704E+04  1.72633E+04  4.58770E+04
 -1.62081E+04  3.35571E+04 -2.61165E+04  2.27763E+03 -1.05749E+04 -2.79695E+04  2.08644E+04 -3.47935E+04
  4.26058E+04 -9.48579E+03  3.64789E+04  2.36013E+04  1.90251E+04  4.81883E+04 -8.30932E+03  5.06217E+04
 -3.20353E+04  3.43947E+04 -4.22208E+04  9.40413E+03 -4.53537E+04 -1.75570E+04 -2.33944E+04 -3.87552E+04
  8.86204E+03 -3.92145E+04  3.12240E+04 -1.50630E+04  3.00869E+04  9.94022E+03  3.75772E+03  1.86132E+04
 -1.52492E+04  8.15333E+03 -1.00801E+04 -7.89951E+03  5.00100E+03 -1.10802E+04  1.82432E+04  5.17409E+03
  1.33619E+04  2.17138E+04 -6.61421E+03  2.57774E+04 -2.10708E+04  1.25196E+04 -2.86126E+04 -5.34486E+03
 -2.14723E+04 -1.62925E+04 -9.09353E+03 -2.12715E+04  3.03166E+03 -2.10392E+04  1.65776E+04 -2.06215E+04
  2.77548E+04 -1.33790E+04  3.40452E+04  3.36697E+03  2.37147E+04  1.92408E+04  4.69433E+03  3.73845E+04
 -1.79465E+04  3.16272E+04 -2.83007E+04  1.13280E+04 -2.19227E+04 -1.00313E+04 -4.01518E+03 -1.28234E+04
  2.03788E+03 -1.65095E+03 -5.19022E+03  6.76793E+03 -1.71158E+04  5.48552E+03 -1.70233E+04 -7.53831E+03
 -1.06527E+04 -2.09079E+04  5.52039E+03 -2.42823E+04  1.62199E+04 -1.74799E+04  1.97712E+04 -1.10304E+03
  1.22072E+04  1.29714E+04 -1.47850E+03  1.96010E+04 -1.34414E+04  1.17242E+04 -1.95404E+04 -4.40782E+03
 -1.59426E+04 -1.78672E+04 -2.84014E+03 -2.36227E+04  1.02785E+04 -1.85710E+04  1.89702E+04 -9.80170E+03
  1.85576E+04  6.25404E+02  1.30181E+04  5.09604E+03  8.11328E+03  1.27772E+02  1.03192E+04 -2.39987E+03
  1.88951E+04  1.63748E+03  2.01367E+04  1.55591E+04  1.40064E+04  3.26204E+04 -2.04083E+03  3.71816E+04
 -2.02412E+04  3.02985E+04 -3.32389E+04  1.50871E+04 -3.67106E+04 -3.19567E+03 -3.00760E+04 -2.10116E+04
 -1.22911E+04 -2.95765E+04  1.15554E+04 -2.76420E+04  2.11283E+04 -1.41838E+04  2.10353E+04  4.81247E+03
  7.70486E+03  1.51331E+04 -1.02200E+04  1.35738E+04 -1.57643E+04  2.24337E+03 -1.36358E+04 -1.13623E+04
  5.40381E+02 -1.60612E+04  8.03075E+03 -1.08343E+04  1.12876E+04 -1.12330E+03  3.47320E+03  7.02001E+03
 -6.69651E+03  3.54002E+03 -6.42763E+03 -6.56072E+03 -3.46215E+02 -1.44956E+04  1.04623E+04 -1.48564E+04
  1.67998E+04 -7.48038E+03  2.08244E+04  4.59017E+03  1.77415E+04  1.53725E+04  8.29581E+03  2.31451E+04
 -3.91478E+03  2.44332E+04 -1.46046E+04  1.47483E+04 -1.80577E+04  3.08948E+03 -1.17334E+04 -4.30411E+03
 -4.50814E+03 -5.80457E+03 -8.72734E+02  5.38633E+02 -1.42209E+03  3.68547E+03 -5.60607E+03  4.17585E+03
 -1.14485E+04 -1.62255E+03 -1.16458E+04 -1.02768E+04 -4.06467E+03 -1.55957E+04  5.38055E+03 -1.29816E+04
  8.57436E+03 -5.10592E+03  6.99335E+03  3.11809E+03  5.47181E+02  5.03464E+03 -6.20115E+03 -1.07709E+02
 -5.15958E+03 -8.41830E+03 -3.95484E+02 -1.04544E+04  6.24742E+03 -1.04335E+04  1.50294E+04 -5.58219E+03
  1.85268E+04  1.16015E+03  1.37730E+04  1.08741E+04  1.75183E+03  1.50094E+04 -7.49361E+03  1.27378E+04
 -9.64721E+03  3.73972E+03 -5.78588E+03 -2.19640E+03  1.32468E+03 -3.56058E+03  6.10256E+03 -9.06143E+02
  6.80976E+03  6.22517E+03  1.62514E+03  8.96694E+03 -7.94581E+03  1.01814E+04 -1.16745E+04  2.78345E+03
 -7.83061E+03 -5.71207E+03 -1.80657E+02 -1.05853E+04  6.54237E+03 -4.38165E+03  7.10040E+03  1.90166E+03
  9.32617E+02  6.59795E+03 -6.34572E+03  7.63973E+03 -9.88070E+03  3.73435E+03 -9.15764E+03 -2.85261E+03
 -4.09142E+03 -1.01233E+04  2.91637E+03 -1.30473E+04  9.68869E+03 -6.72668E+03  1.10562E+04  1.28612E+03
  6.87126E+03  9.13696E+03 -1.23905E+03  1.09921E+04 -8.88038E+03  6.38590E+03 -7.77725E+03 -1.51962E+03
 -7.64209E+03 -7.69263E+03 -8.85453E+02 -7.12571E+03  4.21704E+03 -8.00898E+03  5.01276E+03 -4.04430E+03
  2.78131E+03  1.81513E+03 -2.54973E+01  8.19706E+02  1.76070E+02 -8.08496E+02  1.48721E+03 -4.17213E+03
  7.23924E+03 -2.97632E+03  1.09640E+04  2.22354E+03  1.08680E+04  7.33922E+03  6.85863E+03  1.45304E+04
 -2.39613E+03  1.51374E+04 -1.34168E+04  1.10105E+04 -1.65069E+04  2.20455E+03 -1.41283E+04 -7.11779E+03
 -7.39796E+03 -1.09346E+04  5.72114E+01 -8.46230E+03  4.32745E+03 -5.93170E+03  3.19853E+03 -4.51995E+03
  2.98825E+03 -5.85103E+02  4.59695E+03 -3.42789E+03  5.13131E+03 -2.23766E+03  5.10258E+03 -9.61180E+02
  8.87568E+03  2.40632E+03  2.88263E+03  5.92774E+03 -6.26284E+02  6.51288E+03 -7.88056E+03  4.56361E+03
 -9.35159E+03 -8.82745E+02 -5.22454E+03 -6.35824E+03 -1.19535E+03 -1.06471E+04  5.34557E+03 -1.09937E+04
  1.07962E+04 -6.97553E+03  1.28409E+04  1.21418E+03  9.21198E+03  7.62144E+03  9.11293E+02  1.03042E+04
 -5.04400E+03  9.17899E+03 -6.38228E+03  2.39456E+03 -3.53218E+03 -1.76634E+03 -8.57939E+02 -2.57543E+03
 -7.28614E+02  8.44719E+02 -2.71742E+03  2.59772E+03 -3.92896E+03  3.06558E+03 -6.78682E+03 -1.50231E+03
 -4.61491E+03 -6.72651E+03  4.33664E+02 -9.19084E+03  6.33761E+03 -9.20962E+03  1.02681E+04 -2.59359E+03
  7.40428E+03  3.83813E+03  3.91770E+03  7.93521E+03 -1.80500E+03  8.17579E+03 -6.64093E+03  6.34251E+03
 -9.11833E+03  5.08872E+02 -7.70276E+03 -5.70512E+03 -1.82095E+03 -6.50407E+03  3.06468E+03 -5.95586E+03
  7.14809E+03 -1.76098E+03  4.58223E+03  8.95041E+02  2.94085E+03  3.19752E+03  3.21489E+02  1.59587E+03
  2.58457E+03  1.60474E+03  2.99673E+03  1.51285E+03  3.01382E+03  3.95836E+03  3.38928E+03  4.62169E+03
 -1.28894E+03  7.18358E+03 -6.59937E+03  7.42218E+03 -8.38661E+03  2.68798E+03 -8.08391E+03 -3.56678E+03
 -4.11856E+03 -9.17726E+03  1.78375E+03 -1.01713E+04  5.56984E+03 -5.98085E+03  7.09868E+03 -1.02562E+03
  5.59894E+03  4.68141E+03  1.24464E+03  4.16252E+03 -2.93883E+03  5.11409E+03 -1.50602E+03 -1.59312E+03
 -2.69201E+03 -2.95601E+03  2.71532E+03 -4.47277E+03  2.71476E+03 -1.92023E+03  2.87680E+03  3.21530E+02
  1.60105E+03  1.13659E+03  1.94171E+03 -4.41752E+02 -7.51502E+02  1.82003E+03  5.37246E+02  1.42374E+02
  5.07289E+02 -9.94656E+02  4.28843E+03  5.37177E+02  1.54240E+03  5.40418E+03 -1.23962E+03  6.78464E+03
 -3.79437E+03  4.35317E+03 -5.79545E+03  5.06857E+02 -6.73055E+03 -2.00342E+03 -1.32319E+03 -3.27357E+03
  2.50604E+02 -3.48768E+03  1.88068E+03 -1.98707E+03  1.05953E+03  2.10107E+03 -1.53790E+03  2.20209E+03
 -2.95510E+03  1.91134E+03 -3.65978E+03 -1.59209E+03 -2.06582E+03 -6.21175E+03  2.38649E+02 -3.38539E+03
  3.19468E+03 -2.60509E+03  3.53703E+03  4.20403E+02  4.29533E+03  1.21613E+03  1.42134E+02  3.11128E+03
 -1.97215E+03 -4.78523E+02 -2.33144E+03 -1.88999E+03  3.25060E+01 -2.35168E+03  4.92413E+03 -2.35756E+03
  5.98753E+03  3.07214E+02  5.92477E+03  3.31297E+03  8.97182E+02  4.37317E+03 -2.08061E+03  4.54570E+03
 -4.30399E+03  1.17349E+03 -3.70806E+03  5.74498E+02 -1.80455E+03 -3.46590E+03 -1.92310E+02 -2.82097E+03
  2.54492E+03 -1.73770E+03  2.10262E+03  1.57519E+03  7.11550E+02  3.58429E+03  5.05736E+02  2.68993E+03
 -2.22655E+03  1.45639E+03 -1.67783E+03  3.67352E+02 -6.24475E+02  4.11506E+02 -8.97668E+02  2.38751E+03
 -1.97219E+03  2.85946E+03 -3.76033E+03  1.87783E+03 -4.64065E+03 -2.35002E+02 -6.37021E+03 -3.20805E+03
 -3.16929E+03 -6.51545E+03  3.76391E+02 -8.50216E+03  5.66705E+03 -5.00699E+03  7.22084E+03 -2.69380E+03
  6.67379E+03  1.74555E+01  2.79172E+03  4.41208E+03 -7.76777E+02  5.00103E+03 -1.85066E+03  4.77985E+03
 -1.83372E+03  2.18859E+03 -2.91085E+03  5.56340E+02 -5.05350E+02 -2.59327E+02 -1.61325E+03  1.27336E+03
 -3.02506E+03  4.77143E+02 -1.81220E+03 -2.16272E+02  8.76195E+02 -1.69843E+02 -5.83415E+02 -2.51184E+03
  3.27889E+03 -2.65010E+03  3.80267E+03 -1.64124E+03  3.07854E+03  3.92179E+03  5.98306E+02  5.13162E+03
 -1.42349E+03  5.48507E+03 -5.86727E+03  4.22144E+03 -5.46564E+03  7.02443E+02 -3.57873E+03 -3.77173E+03
 -1.43240E+03 -4.55192E+03  6.39083E+02 -4.31073E+03  4.74016E+03 -3.28904E+03  2.03573E+03  6.41689E+02
  1.78669E+03  2.15212E+03 -4.77331E+02  1.53223E+03 -4.69777E+02  1.42882E+03  2.44775E+02 -7.38326E+02
  1.63662E+03 -4.97726E+02  4.19704E+02  1.46374E+03  7.94861E+02  1.88539E+03  7.46886E+02  2.16285E+03
 -2.87221E+03  1.91005E+03 -2.94430E+03  6.79230E+02 -1.95579E+03 -1.30861E+03  4.46020E+02 -2.54676E+03
  1.61389E+03 -3.95051E+03  3.71824E+03 -1.93047E+03  3.29768E+03  1.32290E+03  2.36698E+03  1.36404E+03
  1.08354E+03  1.53679E+03 -1.43399E+03  2.30986E+03 -2.20872E+03  2.09165E+03 -1.45934E+03  5.36629E+01
 -5.47049E+02  6.88613E+01 -7.31461E+02 -1.18346E+02 -2.01751E+03  1.35537E+03 -2.54670E+03  1.07953E+03
 -2.85303E+03 -7.96301E+02 -8.31260E+02 -2.57979E+03  2.72331E+02 -2.58824E+03  2.76545E+03 -2.71989E+03
  2.95925E+03 -3.29410E+02  4.40510E+02  2.33766E+03 -6.10868E+02  3.90968E+03 -3.21272E+03  1.97548E+03
