 $NMID ID='MM_0lb_SNR200_9hz_g55_36.RAW', FMTDAT='(8E13.5)'
 TRAMP=1., VOLUME=1. $END
  3.10215E+05  2.67381E+03  3.38290E+05  2.49928E+05  8.61171E+04  3.38744E+05 -1.34030E+05  2.51454E+05
 -1.90195E+05  8.48792E+04 -1.12337E+05 -3.14564E+04  7.68181E+02 -5.12364E+04  5.23289E+04 -1.19423E+03
  3.68277E+04  5.43093E+04 -1.61339E+04  7.62255E+04 -6.13774E+04  6.47929E+04 -8.64630E+04  3.20572E+04
 -8.37775E+04 -1.11056E+04 -5.79473E+04 -5.26889E+04 -1.55617E+04 -7.16253E+04  2.75812E+04 -4.75295E+04
  4.12359E+04  3.22854E+03  1.60592E+04  4.86725E+04 -3.53800E+04  4.92830E+04 -6.87005E+04 -2.16440E+03
 -5.54397E+04 -5.79550E+04 -7.42834E+03 -8.04957E+04  3.59431E+04 -5.69825E+04  4.96532E+04 -1.94050E+04
  4.60638E+04  1.13250E+04  3.14853E+04  2.71069E+04  1.69946E+04  3.12679E+04 -7.15056E+03  2.88688E+04
 -2.16455E+04  1.08257E+04 -1.68658E+04 -4.79741E+03  9.35668E+03 -8.68965E+03  2.42438E+04  1.55213E+04
  7.34753E+03  3.77053E+04 -3.33815E+04  3.81702E+04 -6.55868E+04  7.54661E+02 -5.79799E+04 -4.35814E+04
 -1.24867E+04 -6.71601E+04  4.18970E+04 -4.86199E+04  6.02441E+04 -1.42299E+03  3.83959E+04  3.41896E+04
 -5.36764E+03  4.03728E+04 -3.14322E+04  1.97243E+04 -3.35184E+04 -4.05265E+03 -2.09086E+04 -1.42500E+04
 -9.95643E+03 -1.70880E+04  8.96104E+02 -2.05277E+04  9.37026E+03 -2.41007E+04  1.47967E+04 -1.32388E+04
  1.05842E+04  5.85321E+03 -1.14996E+04  1.18715E+04 -2.29331E+04 -6.00278E+03 -8.62786E+03 -3.83411E+04
  2.47298E+04 -4.60132E+04  5.16056E+04 -2.12702E+04  5.05446E+04  2.08795E+04  1.85993E+04  4.67224E+04
 -1.90876E+04  3.66815E+04 -2.91880E+04  3.43228E+03 -1.39408E+04 -3.03898E+04  1.99108E+04 -3.61752E+04
  4.40043E+04 -1.14313E+04  4.09540E+04  2.50853E+04  2.22768E+04  5.31652E+04 -7.21496E+03  5.74340E+04
 -3.60533E+04  3.96198E+04 -4.70540E+04  9.92376E+03 -4.86899E+04 -1.98939E+04 -2.62517E+04 -4.29014E+04
  8.52794E+03 -4.37403E+04  3.50360E+04 -1.65712E+04  3.25002E+04  1.05166E+04  5.52007E+03  2.08869E+04
 -1.24325E+04  9.06840E+03 -9.98922E+03 -7.46822E+03  4.87062E+03 -1.10602E+04  1.91521E+04  5.16518E+03
  1.52511E+04  2.32773E+04 -5.57914E+03  2.77103E+04 -2.37517E+04  1.35736E+04 -3.27101E+04 -3.56903E+03
 -2.62205E+04 -1.94510E+04 -1.25664E+04 -2.57337E+04  5.76117E+03 -2.57104E+04  1.95794E+04 -2.40957E+04
  3.21660E+04 -1.51557E+04  3.80482E+04  5.86572E+03  2.81213E+04  2.49974E+04  5.70530E+03  4.07730E+04
 -1.99887E+04  3.46202E+04 -3.15187E+04  1.07196E+04 -2.21260E+04 -1.07034E+04 -6.20232E+03 -1.26900E+04
  6.17582E+02 -9.06128E+02 -8.06322E+03  6.41396E+03 -1.99245E+04  5.50719E+03 -2.08693E+04 -1.11565E+04
 -1.29338E+04 -2.52171E+04  6.54515E+03 -2.82913E+04  1.81758E+04 -1.87016E+04  2.33579E+04 -1.51197E+03
  1.55819E+04  1.57223E+04 -2.59466E+03  2.21097E+04 -1.76254E+04  1.34487E+04 -2.50959E+04 -4.56430E+03
 -1.61336E+04 -2.13628E+04 -3.59818E+03 -2.85959E+04  1.26788E+04 -2.38347E+04  2.23780E+04 -1.28938E+04
  2.11517E+04 -1.19226E+03  1.44821E+04  5.38296E+03  8.96369E+03  2.03168E+02  1.30702E+04 -2.35860E+03
  2.24010E+04  4.41171E+03  2.58280E+04  1.89649E+04  1.77176E+04  3.90911E+04 -2.26317E+03  4.61470E+04
 -2.65190E+04  3.70919E+04 -4.24603E+04  1.98569E+04 -4.52778E+04 -2.28277E+03 -3.71420E+04 -2.73548E+04
 -1.39994E+04 -3.87357E+04  1.33765E+04 -3.31495E+04  2.79730E+04 -1.54807E+04  2.51900E+04  8.78310E+03
  9.00251E+03  2.05033E+04 -1.22034E+04  1.63814E+04 -2.11741E+04  2.96152E+03 -1.60833E+04 -1.22181E+04
 -1.31289E+03 -1.91150E+04  9.17376E+03 -1.45563E+04  1.31062E+04 -1.61443E+03  4.94476E+03  1.02272E+04
 -7.66669E+03  5.31353E+03 -9.59448E+03 -7.34861E+03  6.65465E+02 -1.95616E+04  1.10440E+04 -2.01876E+04
  2.46086E+04 -1.10913E+04  2.69299E+04  2.39682E+03  2.42777E+04  1.86509E+04  1.22307E+04  2.99938E+04
 -6.37654E+03  3.23228E+04 -2.20168E+04  1.89360E+04 -2.37959E+04  5.18351E+03 -1.55424E+04 -7.62890E+03
 -4.52909E+03 -7.57788E+03  2.63303E+02 -5.71955E+02 -3.28973E+03  4.97171E+03 -6.85046E+03  3.92607E+03
 -1.53926E+04 -1.06022E+03 -1.45898E+04 -1.22284E+04 -6.92216E+03 -2.01585E+04  7.76277E+03 -1.60912E+04
  1.19867E+04 -7.60294E+03  9.33507E+03  4.30226E+03 -1.18887E+03  6.27945E+03 -8.02572E+03 -9.18614E+02
 -6.32907E+03 -1.20548E+04 -5.99792E+02 -1.57229E+04  1.04524E+04 -1.84915E+04  2.05963E+04 -9.85471E+03
  2.30698E+04  1.93799E+03  1.83766E+04  1.37741E+04  4.78869E+03  1.92557E+04 -1.00672E+04  1.51376E+04
 -1.42709E+04  6.12183E+03 -5.76261E+03 -4.14715E+03  1.18620E+03 -3.00739E+03  8.19574E+03 -1.35352E+03
  7.41679E+03  7.96551E+03  1.26970E+03  1.30572E+04 -1.11000E+04  1.23678E+04 -1.45127E+04  3.64497E+03
 -1.16647E+04 -8.05230E+03 -9.55013E+02 -1.45990E+04  9.84031E+03 -7.27142E+03  9.82427E+03  2.38778E+03
  2.01554E+03  1.00090E+04 -9.71429E+03  1.40470E+04 -1.36993E+04  3.18640E+03 -1.42029E+04 -4.92769E+03
 -7.41900E+03 -1.49906E+04  4.13238E+03 -1.86528E+04  1.48132E+04 -1.06349E+04  1.67326E+04  3.31543E+03
  9.52415E+03  1.38825E+04 -1.17642E+03  1.75737E+04 -1.04849E+04  8.15945E+03 -1.33771E+04 -2.85859E+03
 -1.24795E+04 -1.18807E+04 -2.88056E+03 -1.26248E+04  7.98000E+03 -8.76822E+03  7.18186E+03 -4.10274E+03
  5.15251E+03  3.39097E+03 -1.65201E+03  1.69776E+03  2.65484E+02 -3.62003E+03  2.70442E+03 -8.27600E+03
  1.06776E+04 -4.88572E+03  1.70792E+04  1.48617E+03  1.63891E+04  1.04214E+04  9.38039E+03  2.20344E+04
 -4.62536E+03  2.57541E+04 -2.04095E+04  1.90686E+04 -2.76143E+04  3.92949E+03 -2.15803E+04 -1.02229E+04
 -1.05753E+04 -1.83877E+04 -2.18385E+02 -1.53585E+04  6.41442E+03 -8.76427E+03  5.87732E+03 -5.32790E+03
  5.26104E+03 -4.21586E+03  4.26136E+03 -4.95323E+03  5.73038E+03 -3.28463E+03  8.24390E+03 -9.76087E+02
  1.16027E+04  3.63703E+03  4.64932E+03  9.30619E+03 -1.59972E+03  1.24587E+04 -1.23026E+04  8.04404E+03
 -1.47142E+04 -1.40246E+03 -7.85023E+03 -1.11248E+04 -1.63451E+03 -1.85516E+04  9.26984E+03 -1.59226E+04
  1.67112E+04 -1.00377E+04  2.04492E+04  3.16298E+03  1.48294E+04  1.46139E+04  1.75822E+03  1.73527E+04
 -8.38004E+03  1.50030E+04 -1.07813E+04  3.06681E+03 -6.82003E+03 -1.60814E+03 -3.97007E+03 -1.55373E+03
 -1.02579E+03 -7.19698E+02 -1.22091E+03  2.96493E+03 -5.51623E+03  1.82812E+03 -1.19912E+04 -2.63411E+03
 -7.42567E+03 -9.68147E+03  2.45043E+01 -1.64313E+04  1.04289E+04 -1.41631E+04  1.60271E+04 -4.45005E+03
  1.36949E+04  6.05853E+03  6.80240E+03  1.49379E+04 -2.80162E+03  1.49098E+04 -1.09936E+04  8.97468E+03
 -1.33228E+04  6.92113E+02 -1.03155E+04 -9.33303E+03 -2.02948E+03 -1.14546E+04  5.66027E+03 -9.89554E+03
  9.17461E+03 -2.12324E+03  6.49239E+03  3.36397E+03  1.52481E+03  2.60094E+03  2.72180E+02  1.70840E+03
  3.38321E+03  1.44304E+03  2.14904E+03  3.18621E+03  4.51807E+03  5.79334E+03  3.05558E+03  7.10625E+03
 -4.62336E+03  1.31882E+04 -1.01283E+04  1.15860E+04 -1.56505E+04  4.26557E+03 -1.57794E+04 -7.39301E+03
 -7.61633E+03 -1.58327E+04  2.02741E+03 -1.69172E+04  1.00293E+04 -1.17843E+04  1.35516E+04 -3.71972E+03
  8.80105E+03  5.34163E+03  2.16063E+03  9.70120E+03 -4.18457E+03  6.39361E+03 -6.22192E+03 -1.66458E+03
 -2.99984E+03 -5.38595E+03  4.88672E+03 -6.50355E+03  7.55736E+03 -4.90697E+03  7.13768E+03  2.43178E+03
  3.70401E+03  4.29356E+03  8.29874E+02  1.68058E+03 -1.42774E+03  1.55048E+03  2.31280E+03 -1.54822E+03
  2.27516E+03 -2.35183E+03  5.94668E+03  1.73256E+03  3.03281E+03  9.06466E+03 -1.63318E+03  1.05089E+04
 -6.17513E+03  7.60150E+03 -8.54000E+03  4.32039E+02 -7.70122E+03 -3.20476E+03 -3.67353E+03 -6.89479E+03
  5.85322E+02 -6.07446E+03  4.01962E+03 -2.08325E+03  4.12168E+03  3.68171E+03 -6.16027E+02  5.67455E+03
 -6.42687E+03  2.14796E+03 -6.27804E+03 -3.80397E+03 -4.98634E+03 -7.69864E+03  1.78927E+03 -9.45739E+03
  5.22105E+03 -4.85156E+03  7.73918E+03 -6.55697E+02  5.45021E+03  3.25014E+03  6.63666E+02  3.23581E+03
 -2.70566E+03  1.44278E+03 -3.76339E+03 -3.21407E+03  2.41620E+03 -7.92186E+03  7.95495E+03 -6.03308E+03
  9.75848E+03  8.61860E+02  8.25407E+03  8.18800E+03  3.34076E+03  1.11950E+04 -3.40953E+03  9.80995E+03
 -9.20592E+03  5.31271E+03 -7.37769E+03 -4.47255E+02 -3.46916E+03 -5.00740E+03  1.18004E+02 -4.72817E+03
  6.18861E+03 -2.20673E+03  6.73032E+03  2.77953E+03  1.65664E+03  4.14538E+03 -1.40432E+03  5.21875E+03
 -4.60101E+03  3.16235E+03 -1.85289E+03  1.34450E+03 -1.41567E+03  2.01875E+03 -2.05799E+03  3.38356E+03
 -2.96882E+03  3.62023E+03 -8.23048E+03  3.25342E+03 -1.00676E+04  2.18681E+03 -1.23676E+04 -6.43214E+03
 -6.60158E+03 -1.30916E+04  9.94309E+02 -1.68698E+04  9.94924E+03 -1.15302E+04  1.47553E+04 -4.93160E+03
  1.51291E+04  1.80073E+03  8.56606E+03  1.02693E+04 -2.46671E+00  1.09538E+04 -4.43927E+03  9.00549E+03
 -5.39555E+03  2.60988E+03 -3.14853E+03 -1.56722E+03 -1.36894E+03  8.10557E+01 -2.31373E+03 -1.81677E+02
 -1.44608E+03  4.99220E+02 -9.68490E+02 -3.86416E+02  6.14454E+02 -1.98422E+03  5.74758E+02 -3.76407E+03
  5.56102E+03 -3.53969E+03  4.95960E+03 -8.76341E+02  6.65674E+03  5.50497E+03  1.34156E+03  9.67102E+03
 -3.78328E+03  1.18911E+04 -1.04837E+04  7.68847E+03 -1.43355E+04  5.96006E+01 -9.94019E+03 -8.47324E+03
 -5.17781E+03 -1.18342E+04  2.28389E+03 -1.05903E+04  6.65410E+03 -6.60420E+03  7.48828E+03  9.05637E+02
  3.80868E+03  3.77543E+03 -1.67727E+03  1.99792E+03 -2.85591E+03 -4.98876E+02  1.40079E+03 -3.70249E+03
  2.78195E+03 -1.22487E+03  2.90788E+03  8.01211E+02  3.68844E+03  5.65299E+03  4.05658E+02  7.24920E+03
 -4.36801E+03  4.31462E+03 -6.54087E+03 -1.10336E+02 -7.30317E+03 -5.65675E+03 -3.11535E+03 -9.65102E+03
  4.41825E+03 -8.53135E+03  9.32148E+03 -3.99931E+03  8.65407E+03  2.20037E+03  4.83829E+03  7.34480E+03
  1.73319E+03  9.28689E+03 -1.74645E+03  5.33615E+03 -3.79083E+03  3.17776E+03 -5.14993E+03  4.85635E+01
 -2.08725E+03  1.55438E+02 -1.67785E+03  1.91051E+03 -3.59415E+03  1.03497E+03 -5.85699E+03 -9.76292E+02
 -7.06671E+03 -3.82417E+03 -3.26121E+03 -8.50658E+03  3.26777E+03 -8.82450E+03  9.05815E+03 -4.53129E+03
  8.07095E+03  1.48389E+03  3.19895E+03  6.05545E+03  6.74331E+02  8.80896E+03 -4.64518E+03  5.34958E+03
