 $NMID ID='MM_0lb_SNR200_10hz_g50_65.RAW', FMTDAT='(8E13.5)'
 TRAMP=1., VOLUME=1. $END
  3.08585E+05 -1.14230E+03  3.38140E+05  2.50470E+05  8.49745E+04  3.40336E+05 -1.32976E+05  2.52189E+05
 -1.89952E+05  8.31742E+04 -1.12008E+05 -3.20434E+04  1.94419E+03 -5.08474E+04  5.36227E+04 -2.85068E+02
  3.48933E+04  5.34205E+04 -1.57369E+04  7.45524E+04 -6.07742E+04  6.57517E+04 -8.46419E+04  3.35514E+04
 -8.27525E+04 -1.06912E+04 -5.74653E+04 -5.20401E+04 -1.57334E+04 -7.08795E+04  2.73648E+04 -4.63288E+04
  4.12614E+04  2.47981E+03  1.64721E+04  4.84744E+04 -3.36693E+04  4.65956E+04 -6.81309E+04 -7.33667E+02
 -5.41049E+04 -5.82132E+04 -7.14398E+03 -7.88714E+04  3.48469E+04 -5.54125E+04  4.88423E+04 -1.78167E+04
  4.44811E+04  1.15319E+04  3.28801E+04  2.76145E+04  1.57731E+04  2.90779E+04 -6.66569E+03  2.88947E+04
 -2.22230E+04  1.18717E+04 -1.84234E+04 -5.77976E+03  7.28264E+03 -8.07661E+03  2.20037E+04  1.27336E+04
  8.30762E+03  3.69322E+04 -3.43048E+04  3.65553E+04 -6.40760E+04  4.31588E+02 -5.80776E+04 -4.43108E+04
 -1.15594E+04 -6.45544E+04  4.24179E+04 -4.68595E+04  6.10469E+04 -3.60597E+03  3.55497E+04  3.31065E+04
 -6.54135E+03  3.88498E+04 -3.10472E+04  1.78925E+04 -3.28274E+04 -2.40644E+03 -1.81003E+04 -1.16481E+04
 -9.28859E+03 -1.56180E+04  4.04502E+02 -1.92346E+04  6.68809E+03 -2.26143E+04  1.50527E+04 -1.27880E+04
  1.20537E+04  7.06342E+03 -1.13241E+04  1.11688E+04 -2.30681E+04 -6.79881E+03 -9.20370E+03 -3.62359E+04
  2.46216E+04 -4.53430E+04  5.14066E+04 -2.02024E+04  4.96196E+04  2.00476E+04  1.61758E+04  4.67565E+04
 -1.69628E+04  3.58450E+04 -2.82323E+04  2.75549E+03 -9.28674E+03 -2.88667E+04  2.23005E+04 -3.63907E+04
  4.54987E+04 -1.08476E+04  4.07417E+04  2.46936E+04  2.06570E+04  4.99065E+04 -8.16042E+03  5.51309E+04
 -3.46129E+04  3.70180E+04 -4.67402E+04  9.46578E+03 -4.77891E+04 -1.78018E+04 -2.59704E+04 -3.97360E+04
  8.12006E+03 -4.07672E+04  3.43752E+04 -1.73657E+04  3.03693E+04  1.10989E+04  5.12857E+03  2.09496E+04
 -1.49469E+04  9.80976E+03 -1.14290E+04 -7.16113E+03  5.49984E+03 -9.82827E+03  1.94765E+04  5.54503E+03
  1.48472E+04  2.26423E+04 -5.56695E+03  2.75276E+04 -2.26373E+04  1.43952E+04 -3.19144E+04 -2.88221E+03
 -2.39709E+04 -1.63768E+04 -9.52088E+03 -2.26880E+04  3.45888E+03 -2.51821E+04  1.87561E+04 -2.21726E+04
  3.24566E+04 -1.22269E+04  3.74039E+04  5.32899E+03  2.78539E+04  2.36683E+04  3.80718E+03  4.07573E+04
 -1.89189E+04  3.20284E+04 -3.06104E+04  1.10572E+04 -2.34007E+04 -1.08045E+04 -6.50796E+03 -1.36858E+04
  3.17883E+02  2.04807E+02 -8.16613E+03  8.68217E+03 -1.97877E+04  4.34467E+03 -2.02271E+04 -8.40601E+03
 -1.20740E+04 -2.26060E+04  4.76024E+03 -2.76308E+04  1.76045E+04 -1.85984E+04  2.09815E+04 -1.46483E+03
  1.45975E+04  1.55964E+04 -1.61558E+03  2.25022E+04 -1.39369E+04  1.30664E+04 -2.30754E+04 -3.93634E+03
 -1.78793E+04 -2.07913E+04 -4.32604E+03 -2.62960E+04  1.19836E+04 -2.26746E+04  2.39549E+04 -1.25083E+04
  2.11410E+04 -2.25939E+02  1.65370E+04  5.39566E+03  7.71610E+03  2.66168E+03  1.28771E+04 -2.44513E+03
  2.15808E+04  2.63483E+03  2.29167E+04  1.62444E+04  1.60043E+04  3.74739E+04 -1.90765E+03  4.26711E+04
 -2.50200E+04  3.61611E+04 -3.87936E+04  1.74677E+04 -4.12427E+04 -3.38555E+03 -3.50448E+04 -2.50709E+04
 -1.37415E+04 -3.53516E+04  1.21416E+04 -3.17380E+04  2.71094E+04 -1.50936E+04  2.24160E+04  7.31919E+03
  7.75122E+03  1.62064E+04 -1.11173E+04  1.41458E+04 -1.88555E+04  1.50629E+03 -1.45051E+04 -1.28079E+04
 -8.47905E+02 -1.89678E+04  1.05426E+04 -1.39727E+04  1.00264E+04 -1.38551E+03  4.94370E+03  9.16483E+03
 -8.46604E+03  4.48602E+03 -7.40094E+03 -6.91519E+03 -1.65910E+03 -1.83902E+04  1.13299E+04 -1.81549E+04
  2.12209E+04 -1.12490E+04  2.31359E+04  4.28255E+03  2.16357E+04  1.90466E+04  1.06331E+04  2.57480E+04
 -5.04257E+03  3.06663E+04 -1.86388E+04  1.68608E+04 -2.01465E+04  3.41669E+03 -1.42670E+04 -5.35037E+03
 -6.46640E+03 -5.13033E+03 -8.77485E+02 -3.73961E+02 -2.33375E+03  1.88377E+03 -7.67821E+03  5.01371E+03
 -1.38733E+04 -2.07688E+03 -1.48670E+04 -9.69294E+03 -4.40469E+03 -1.68021E+04  4.43122E+03 -1.49514E+04
  1.26853E+04 -4.81658E+03  8.78243E+03  4.18884E+03 -8.97828E+02  5.46357E+03 -6.20086E+03  5.44587E+02
 -6.65049E+03 -1.04993E+04 -2.24845E+03 -1.32857E+04  8.70164E+03 -1.61482E+04  1.90549E+04 -9.45756E+03
  2.12220E+04  2.56421E+03  1.72560E+04  1.33839E+04  4.37821E+03  1.74212E+04 -9.13398E+03  1.50589E+04
 -1.20965E+04  3.69821E+03 -5.53432E+03 -3.67876E+03  1.07444E+03 -3.68729E+03  5.93985E+03 -2.44711E+03
  5.94999E+03  7.60642E+03  1.04841E+03  1.09947E+04 -8.80784E+03  1.10249E+04 -1.47621E+04  1.65412E+03
 -1.16212E+04 -8.15048E+03  6.12121E+02 -1.18521E+04  8.39151E+03 -6.51980E+03  9.33725E+03  3.13718E+03
  2.40437E+03  9.44943E+03 -7.51776E+03  1.04224E+04 -1.21751E+04  6.30523E+03 -1.28337E+04 -4.22431E+03
 -7.26673E+03 -1.48793E+04  4.42848E+03 -1.65944E+04  1.42343E+04 -9.94427E+03  1.48609E+04  2.97711E+03
  9.24925E+03  1.15771E+04 -1.42420E+03  1.47816E+04 -1.06975E+04  8.62620E+03 -1.25848E+04 -1.00018E+03
 -1.01459E+04 -9.71717E+03 -1.45362E+03 -1.14688E+04  5.45613E+03 -9.58685E+03  7.38831E+03 -2.93913E+03
  4.80957E+03  1.80920E+03 -6.16538E+02  1.80062E+03 -2.15512E+03 -1.68653E+03  1.92332E+03 -7.00603E+03
  1.16567E+04 -4.08037E+03  1.50633E+04  2.54180E+03  1.43303E+04  1.13453E+04  9.14251E+03  1.95451E+04
 -5.18260E+03  2.19967E+04 -1.80974E+04  1.63106E+04 -2.25743E+04  3.08397E+03 -1.77705E+04 -8.16620E+03
 -1.02924E+04 -1.45167E+04 -5.76040E+02 -1.34034E+04  3.14835E+03 -7.10750E+03  3.98559E+03 -5.14441E+03
  3.64606E+03 -3.65904E+03  3.98705E+03 -4.13482E+03  4.77353E+03 -3.36334E+03  7.93420E+03 -4.90281E+02
  9.74686E+03  4.01065E+03  5.63920E+03  9.53636E+03 -2.32892E+03  8.65598E+03 -1.13428E+04  8.39584E+03
 -1.28681E+04 -1.48950E+03 -8.62217E+03 -8.60794E+03  4.63622E+02 -1.52167E+04  8.72052E+03 -1.42666E+04
  1.55866E+04 -8.65569E+03  1.63163E+04  1.60054E+03  1.21661E+04  1.33164E+04  1.82535E+03  1.60503E+04
 -6.97167E+03  1.15663E+04 -8.68295E+03  4.61352E+03 -5.61951E+03 -9.76091E+02 -2.16103E+03 -3.47225E+03
 -6.36072E+02 -8.55369E+02 -1.49725E+03  2.20050E+03 -5.38968E+03  2.54436E+03 -9.06712E+03 -2.02991E+03
 -5.47951E+03 -9.31963E+03  1.20472E+03 -1.39691E+04  8.35324E+03 -1.11015E+04  1.30425E+04 -3.41073E+03
  1.30818E+04  5.83493E+03  6.31304E+03  1.13407E+04 -4.14130E+03  1.36403E+04 -1.00979E+04  7.96175E+03
 -1.18885E+04  7.98918E+02 -8.98735E+03 -8.43500E+03  6.56272E+02 -1.12214E+04  5.79383E+03 -8.07349E+03
  7.52145E+03 -2.43126E+03  5.00719E+03  2.79752E+03  1.30978E+03  5.42433E+03  1.10615E+03  5.74326E+02
  3.31179E+03 -4.06536E+02  4.39614E+03  2.44007E+03  3.66311E+03  5.24478E+03  2.76409E+03  7.98439E+03
 -3.24595E+03  1.17262E+04 -7.51963E+03  1.01597E+04 -1.42902E+04  2.54777E+03 -1.18693E+04 -6.43224E+03
 -6.63751E+03 -1.34212E+04  2.86541E+03 -1.39176E+04  8.41866E+03 -7.96082E+03  1.08818E+04 -2.95326E+03
  7.71557E+03  4.53545E+03  3.14326E+03  8.45913E+03 -3.83741E+03  4.11865E+03 -4.73762E+03 -4.20066E+02
 -3.76588E+03 -5.48468E+03  3.94454E+03 -5.25961E+03  4.84312E+03 -4.21585E+03  5.25870E+03  1.07915E+02
  4.65206E+03  5.96846E+02  2.36380E+03  2.81232E+03  2.64945E+02  1.23817E+03  2.60203E+03 -2.46054E+01
  1.34170E+03 -1.60664E+03  7.51585E+03  3.14360E+03  2.77004E+03  6.45539E+03 -2.16633E+03  8.28252E+03
 -6.74868E+03  6.59791E+03 -8.26989E+03  1.62752E+03 -8.14269E+03 -4.27392E+03 -3.25509E+03 -5.15782E+03
  2.79252E+02 -5.80843E+03  4.62951E+03 -3.90513E+03  2.53294E+03  2.64714E+03 -2.61502E+03  4.84419E+03
 -4.80462E+03  3.67603E+03 -6.06114E+03 -3.69457E+03 -3.75177E+03 -7.67331E+03 -4.54908E+02 -7.43322E+03
  3.95946E+03 -3.93818E+03  6.56175E+03  6.54846E+02  4.61302E+03  1.08017E+03  1.07869E+03  4.52905E+03
 -2.74733E+03  8.32834E+02 -3.42829E+03 -2.93034E+03  7.32490E+02 -5.42510E+03  7.43608E+03 -4.86789E+03
  8.86137E+03  1.16597E+03  8.98672E+03  4.70789E+03  2.47138E+03  8.48807E+03 -2.84695E+03  8.28015E+03
 -5.74165E+03  2.87825E+03 -7.55805E+03 -1.41136E+03 -2.93210E+03 -5.03676E+03  1.09571E+03 -5.09468E+03
  5.65954E+03 -2.01198E+03  3.93713E+03  2.20917E+03  1.54635E+03  3.31292E+03 -7.15185E+02  3.95647E+03
 -1.84676E+03  1.69556E+03 -3.05350E+03  1.04846E+03 -1.45535E+02  1.31844E+03 -1.19029E+03  1.61694E+03
 -1.31704E+03  3.42966E+03 -5.62842E+03  2.30501E+03 -8.45129E+03  3.30973E+02 -1.04012E+04 -4.64949E+03
 -5.64697E+03 -1.36526E+04  1.76796E+03 -1.42569E+04  8.65209E+03 -9.96946E+03  1.19538E+04 -4.17847E+03
  1.33785E+04  2.66051E+03  7.44614E+03  9.59340E+03  2.11886E+02  9.24111E+03 -3.15161E+03  6.87680E+03
 -5.85912E+03  2.60676E+03 -2.50826E+03 -2.66620E+02 -5.77815E+02 -1.06427E+03 -9.66877E+02 -5.15496E+01
 -1.26999E+03  6.67009E+02 -3.10637E+03 -1.14091E+03 -6.44697E+02 -2.13174E+03  6.22364E+01 -1.30005E+03
  3.69720E+03 -1.35577E+03  5.41101E+03 -9.78648E+02  8.17996E+03  5.35860E+03  1.79054E+03  6.08405E+03
 -3.11697E+03  9.48418E+03 -9.51318E+03  4.92903E+03 -1.00018E+04 -1.25552E+03 -8.30174E+03 -5.15822E+03
 -2.87711E+03 -9.24831E+03  1.61114E+03 -7.39821E+03  5.40645E+03 -3.26260E+03  5.27468E+03  5.58130E+02
  1.76435E+03  3.37703E+03  1.15848E+00  1.22656E+03 -1.44790E+03 -7.64576E+02  6.05998E+02 -3.08691E+03
  5.62903E+03  2.78960E+02  2.49526E+03  3.56909E+00  3.83518E+03  3.81073E+03 -2.82213E+03  4.73262E+03
 -3.09662E+03  3.05355E+03 -6.85597E+03  9.89325E+02 -5.53389E+03 -3.53756E+03  2.22522E+02 -8.01651E+03
  3.34486E+03 -6.49531E+03  6.91053E+03 -2.99374E+03  6.01677E+03  1.06777E+03  3.62848E+03  5.62202E+03
  7.98644E+02  6.00473E+03 -3.05646E+03  5.72624E+03 -4.53309E+03  4.25953E+03 -2.52991E+03 -1.65522E+02
 -1.66101E+03 -3.33703E+02 -1.96968E+03  2.58979E+03 -3.44450E+03  1.21254E+02 -3.76409E+03 -1.08210E+03
 -4.92264E+03 -2.19821E+03 -4.14002E+02 -5.95764E+03  2.57186E+03 -5.36527E+03  5.00360E+03 -9.01062E+02
  3.97447E+03  1.23876E+03  2.43847E+03  3.58362E+03  4.08649E+02  5.71126E+03 -3.59658E+03  3.32462E+03
