 $NMID ID='MM_0lb_SNR200_17hz_g40_84.RAW', FMTDAT='(8E13.5)'
 TRAMP=1., VOLUME=1. $END
  3.10614E+05  8.55800E+02  3.36917E+05  2.51160E+05  8.39556E+04  3.37728E+05 -1.31963E+05  2.50822E+05
 -1.89767E+05  8.28906E+04 -1.09701E+05 -3.29312E+04 -2.90839E+02 -4.90026E+04  5.36066E+04 -5.36909E+02
  3.59612E+04  5.33099E+04 -1.72377E+04  7.40186E+04 -6.11982E+04  6.39780E+04 -8.31577E+04  3.21602E+04
 -8.00464E+04 -1.10983E+04 -5.59095E+04 -5.03487E+04 -1.54980E+04 -6.79326E+04  2.59575E+04 -4.39881E+04
  4.02647E+04  4.62796E+03  1.56229E+04  4.55312E+04 -3.37831E+04  4.69635E+04 -6.62271E+04 -2.07219E+02
 -5.23453E+04 -5.55850E+04 -5.71676E+03 -7.52336E+04  3.45351E+04 -5.42609E+04  4.55578E+04 -1.69196E+04
  4.24783E+04  1.06853E+04  3.17434E+04  2.32497E+04  1.55359E+04  2.87133E+04 -5.01864E+03  2.68021E+04
 -2.14045E+04  1.31876E+04 -1.85846E+04 -3.16283E+03  4.41215E+03 -6.16700E+03  2.07083E+04  1.02738E+04
  7.33133E+03  3.48325E+04 -3.10730E+04  3.36157E+04 -6.22546E+04  2.38932E+03 -5.69042E+04 -4.06132E+04
 -1.33096E+04 -6.22363E+04  3.79381E+04 -4.40489E+04  5.64090E+04 -2.14508E+03  3.17510E+04  3.17263E+04
 -6.49153E+03  3.38092E+04 -2.83303E+04  1.44418E+04 -2.83945E+04 -5.09064E+03 -1.44766E+04 -1.01141E+04
 -6.18611E+03 -1.12960E+04 -4.39255E+02 -1.66858E+04  6.97705E+03 -2.21729E+04  1.52687E+04 -1.36560E+04
  1.24965E+04  4.10520E+03 -7.07593E+03  1.34845E+04 -1.95860E+04 -2.76936E+03 -7.56937E+03 -3.07102E+04
  2.17542E+04 -3.98818E+04  4.35618E+04 -1.81664E+04  4.20380E+04  1.90055E+04  1.52285E+04  4.17646E+04
 -1.64580E+04  3.07026E+04 -2.42034E+04  7.06207E+02 -9.04787E+03 -2.70629E+04  2.17792E+04 -3.16987E+04
  3.77402E+04 -8.21427E+03  3.29308E+04  2.19940E+04  1.46470E+04  4.30403E+04 -7.79451E+03  4.67815E+04
 -2.91553E+04  3.02779E+04 -3.90456E+04  8.23430E+03 -3.94287E+04 -1.46520E+04 -2.16036E+04 -3.59847E+04
  5.89172E+03 -3.46108E+04  2.92352E+04 -1.21341E+04  2.67969E+04  1.01831E+04  3.75848E+03  1.73603E+04
 -1.29084E+04  6.73228E+03 -9.38967E+03 -6.82250E+03  7.54380E+03 -1.00645E+04  1.71303E+04  6.69309E+03
  1.31605E+04  2.09393E+04 -6.79280E+03  2.41129E+04 -2.09275E+04  8.94570E+03 -2.52729E+04 -5.79911E+03
 -1.85765E+04 -1.60930E+04 -6.23852E+03 -1.68121E+04  3.25451E+03 -1.47657E+04  1.34996E+04 -1.55677E+04
  2.25681E+04 -1.15314E+04  2.82301E+04  2.07159E+03  2.16953E+04  1.70650E+04  4.39807E+03  3.35722E+04
 -1.57223E+04  2.73360E+04 -2.70407E+04  9.85429E+03 -2.00276E+04 -9.76637E+03 -5.17027E+03 -1.42858E+04
  2.42218E+03 -2.86841E+03 -2.74946E+03  5.07775E+03 -1.38629E+04  5.63336E+03 -1.35153E+04 -4.71207E+03
 -9.25251E+03 -1.62023E+04  5.21840E+03 -1.87263E+04  1.30206E+04 -1.37591E+04  1.39043E+04 -1.62654E+03
  9.09911E+03  1.12055E+04 -1.78391E+03  1.65083E+04 -1.05554E+04  9.56274E+03 -1.58570E+04 -3.08911E+03
 -1.17842E+04 -1.55231E+04 -1.19201E+03 -2.01323E+04  8.80620E+03 -1.51603E+04  1.64907E+04 -7.98884E+03
  1.38247E+04  6.84204E+02  1.02666E+04  2.70642E+03  6.14844E+03  1.16707E+03  7.73669E+03 -2.10828E+03
  1.33065E+04  3.80236E+03  1.50905E+04  1.31869E+04  9.52884E+03  2.46601E+04 -4.09002E+03  2.67575E+04
 -1.68498E+04  2.09631E+04 -2.49952E+04  1.09299E+04 -2.61777E+04 -1.75688E+03 -2.14818E+04 -1.56817E+04
 -1.09323E+04 -2.07041E+04  6.60327E+03 -1.97471E+04  1.73088E+04 -1.11462E+04  1.60373E+04  3.89147E+03
  6.96194E+03  1.16313E+04 -6.04760E+03  9.53477E+03 -1.48121E+04  2.63564E+03 -1.09973E+04 -8.47369E+03
 -4.22006E+01 -1.25906E+04  6.32493E+03 -9.62542E+03  7.73853E+03 -1.53704E+03  1.23632E+03  6.59503E+03
 -5.98192E+03  2.73649E+03 -3.23839E+03 -4.60376E+03  7.51527E+02 -1.13384E+04  7.63078E+03 -1.21916E+04
  1.27525E+04 -5.13209E+03  1.19126E+04  2.49832E+03  1.08603E+04  9.79758E+03  5.59299E+03  1.43320E+04
 -1.79338E+03  1.75301E+04 -9.89533E+03  1.09910E+04 -1.24231E+04  1.97858E+03 -9.09247E+03 -2.28291E+03
 -5.15804E+03 -3.69408E+03 -6.01404E+02  2.02357E+03 -1.96758E+03  1.97493E+03 -5.43836E+03  2.85429E+03
 -9.01001E+03 -1.26147E+03 -9.50701E+03 -6.48242E+03 -4.09395E+03 -1.13542E+04  4.24711E+03 -9.05567E+03
  7.57215E+03 -4.90818E+03  6.61621E+03  1.89316E+03  1.83645E+03  2.57681E+03 -3.22481E+03 -6.76576E+02
 -3.95097E+03 -4.71580E+03 -4.71825E+01 -7.47283E+03  4.34277E+03 -9.22382E+03  1.10020E+04 -4.22960E+03
  1.26905E+04  1.10350E+03  9.44503E+03  6.51648E+03  2.46179E+03  8.95466E+03 -5.44672E+03  8.46169E+03
 -8.64193E+03  2.17534E+03 -3.47582E+03 -1.16719E+03 -6.91708E+01 -1.86302E+03  4.36557E+03 -1.25716E+03
  4.50249E+03  2.59368E+03  7.57690E+02  6.49567E+03 -4.64912E+03  6.90628E+03 -9.23779E+03  1.53890E+03
 -4.94743E+03 -4.81549E+03  2.27396E+02 -7.22355E+03  4.01877E+03 -3.98040E+03  4.10090E+03  1.42780E+03
  2.37581E+02  2.97084E+03 -4.38313E+03  6.02188E+03 -6.55313E+03  2.06961E+03 -4.93089E+03 -2.69425E+02
 -2.90997E+03 -6.36988E+03  2.36073E+03 -7.54971E+03  6.46311E+03 -4.89581E+03  7.08499E+03  9.51451E+02
  6.09051E+03  5.82953E+03 -6.09454E+01  7.82384E+03 -6.38224E+03  4.66436E+03 -5.56468E+03 -1.60245E+03
 -5.50084E+03 -5.09059E+03 -1.58511E+03 -5.39260E+03  1.67427E+03 -4.58627E+03  2.87453E+03 -2.96520E+03
  3.52328E+03  7.46424E+02  8.87480E+02  2.67544E+03 -1.60172E+02 -2.71504E+02  8.81204E+02 -1.87098E+03
  4.72948E+03 -4.74920E+02  6.63492E+03  3.93254E+02  6.03876E+03  3.70753E+03  5.92046E+03  8.10386E+03
 -1.27177E+03  9.98644E+03 -8.91992E+03  7.19275E+03 -1.06746E+04  2.64785E+02 -8.85010E+03 -2.13124E+03
 -5.39425E+03 -7.02288E+03 -8.38808E+02 -4.38642E+03  2.56484E+03 -2.23667E+03  1.54438E+03 -1.42224E+03
  1.07424E+03 -2.01933E+03  2.35668E+03 -3.43118E+03  3.75971E+03 -1.14453E+03  3.56550E+03 -4.78369E+02
  4.98277E+03  1.15264E+03  9.40548E+02  3.46032E+03 -1.69189E+03  3.58072E+03 -4.59134E+03  2.61355E+03
 -5.88238E+03 -7.12882E+02 -2.60184E+03 -2.99846E+03  2.29395E+02 -6.52818E+03  3.95372E+03 -5.95257E+03
  5.42338E+03 -2.70987E+03  7.26498E+03 -3.35503E+02  4.31972E+03  5.11776E+03  1.36347E+03  5.92790E+03
 -4.29905E+03  6.37509E+03 -3.73893E+03  1.16277E+03 -2.79772E+03 -1.44812E+03 -6.50394E+02 -5.09991E+02
 -8.93398E+02 -7.00179E+02 -1.36323E+03  2.24490E+03 -2.05757E+03  1.06228E+03 -4.14193E+03 -1.26794E+03
 -2.19773E+03 -4.03216E+03  1.25246E+03 -5.31791E+03  2.43608E+03 -4.66231E+03  4.90793E+03 -1.12112E+03
  5.49485E+03  2.49340E+03  2.46118E+03  2.43395E+03 -4.09930E+02  5.97908E+03 -2.66206E+03  3.50940E+03
 -4.56456E+03  1.26818E+03 -3.80448E+03 -3.26813E+03 -9.90652E+02 -3.57264E+03  1.92319E+03 -3.94320E+03
  4.83063E+03 -1.19212E+03  2.29120E+03  8.23900E+02  3.77822E+01  1.21172E+03  5.67108E+02  6.36913E+02
  2.54872E+03  1.11883E+03  1.38952E+03  1.70720E+03  1.63321E+03  2.59428E+03  1.42939E+03  2.65528E+03
 -1.57868E+03  3.12522E+03 -3.18255E+03  3.39418E+03 -3.39178E+03  8.46788E+02 -5.95369E+03 -2.88818E+02
 -2.05639E+03 -4.71983E+03  2.16489E+03 -5.13646E+03  2.69526E+03 -3.63640E+03  3.97016E+03 -1.01725E+03
  2.18029E+03  2.73615E+03  4.69587E+02  2.57355E+03 -1.34050E+03  1.83140E+03 -1.05466E+03  1.03342E+02
 -1.03232E+03 -1.74789E+03  8.48740E+02 -1.57925E+03  1.14626E+03 -1.23891E+03  1.09813E+03  6.84663E+02
  1.62556E+03  5.28027E+02  3.32087E+02  1.70316E+02 -1.23727E+03  8.38503E+02  1.90028E+03 -8.40440E+02
 -6.77093E+02  7.35184E+00  2.29413E+03 -5.24788E+01  1.38145E+02  2.21026E+03 -1.01296E+03  4.08482E+03
 -1.67720E+03  1.92882E+03 -2.26191E+03  9.32139E+02 -2.10100E+03 -1.95042E+03 -1.04869E+02 -1.53605E+03
  1.84763E+03 -1.16698E+03  7.25619E+01 -8.27926E+02  8.41828E+02  1.56068E+03 -4.30641E+02  1.89395E+03
 -1.85915E+03  1.73297E+03 -1.13720E+03 -2.70652E+03 -5.49222E+02 -2.06093E+03 -4.52967E+02 -1.30990E+03
  9.54331E+02 -1.15213E+03  7.99234E+02  4.11525E+02  2.21342E+03  5.44461E+02  1.22446E+03  1.44467E+03
 -9.38662E+01  1.83290E+02 -1.14272E+03 -1.71464E+03 -1.51200E+02 -1.91689E+03  2.37828E+03 -2.18538E+03
  1.79296E+03 -1.37724E+02  2.83703E+03  7.97125E+02  6.14127E+02  2.75080E+03  1.30922E+02  3.21215E+03
 -2.54851E+03  5.75099E+02 -8.24978E+02 -1.17155E+03 -1.62724E+03 -2.36404E+03  8.77451E+02 -6.47810E+02
  1.57687E+03 -2.62199E+02  2.51645E+02  9.51647E+02  2.79180E+02  1.39265E+03 -4.58599E+02  1.05952E+03
 -4.17399E+02  9.59352E+02 -1.65326E+03 -7.50443E+01 -6.43835E+02  1.05158E+03  8.95487E+01  5.76601E+02
 -1.39295E+02  1.71062E+03 -2.73505E+03  1.59530E+02 -2.48604E+03  6.89496E+01 -3.05008E+03 -2.42401E+03
 -1.23696E+03 -3.31186E+03  3.90713E+02 -3.37954E+03  7.73112E+02 -3.77765E+03  3.81869E+03 -1.79724E+03
  2.92064E+03 -2.99181E+02  1.12218E+03  1.54593E+03 -1.23995E+03  2.59384E+03 -1.98813E+03  1.27294E+03
 -1.25330E+03  3.76471E+02 -3.05740E+02  1.47048E+02 -3.37390E+02  9.73525E+02 -1.12570E+02  1.82832E+02
 -1.11359E+03  2.68550E+02 -3.30370E+02  3.35538E+02 -3.46114E+02 -9.78723E+02 -2.16787E+00 -1.54919E+03
  1.09665E+03 -1.62155E+03 -3.05271E+02 -1.10896E+03  1.17792E+03  2.66414E+03  7.97732E+02  1.90415E+03
 -2.10517E+02  3.78729E+03 -2.28124E+03  7.74352E+02 -3.36119E+03 -8.55558E+01 -7.46591E+02 -1.39520E+02
 -1.18345E+03 -1.34029E+03  4.92726E+02 -2.02500E+03  4.67724E+02 -9.03127E+02  7.11568E+02  1.43096E+03
  5.28186E+02 -4.59697E+01 -9.57763E+01  4.66030E+01 -1.39151E+02  6.18309E+02 -3.92246E+02 -3.41338E+02
  3.49237E+02 -5.36630E+02  3.92006E+02  1.08332E+03  2.09755E+02  1.55608E+03 -4.86896E+00  8.31784E+02
 -4.87733E+02  8.57227E+02 -5.57699E+02 -2.02257E+02 -7.25822E+02 -7.20756E+02 -7.96284E+02 -1.00497E+03
  9.04536E+02 -6.69461E+02  1.70862E+03 -4.71226E+02  2.32733E+03 -8.92514E+01  1.43652E+03  5.45707E+02
  3.63161E+02  1.10029E+03 -1.05360E+02  1.97885E+03 -4.73919E+02  1.55911E+03  4.85250E+02  7.17506E+02
 -6.24299E+02  1.26231E+02 -6.56371E+01  5.67953E+02 -9.15325E+02  5.49756E+02 -2.43197E+03 -6.82133E+02
 -1.81345E+03  1.09370E+03 -6.56599E+02 -6.03897E+02  1.76515E+03 -2.35838E+03  1.01040E+03 -9.22693E+02
  1.15700E+03 -2.21804E+02 -4.16601E+00  1.39085E+03 -2.49153E+02  2.44049E+03  1.10977E+02  1.02782E+03
