 $NMID ID='MM_0lb_SNR200_8hz_g40_44.RAW', FMTDAT='(8E13.5)'
 TRAMP=1., VOLUME=1. $END
  3.08350E+05  5.11828E+02  3.37103E+05  2.50547E+05  8.47990E+04  3.38332E+05 -1.32786E+05  2.52088E+05
 -1.91179E+05  8.35278E+04 -1.12284E+05 -3.25332E+04  2.17303E+03 -5.13309E+04  5.27027E+04 -1.14388E+03
  3.67954E+04  5.23150E+04 -1.65346E+04  7.70301E+04 -6.26537E+04  6.40630E+04 -8.39766E+04  3.30341E+04
 -8.15616E+04 -1.24337E+04 -5.81654E+04 -5.27619E+04 -1.45050E+04 -7.16585E+04  2.70184E+04 -4.60789E+04
  4.05509E+04  4.37515E+03  1.57943E+04  4.85140E+04 -3.56064E+04  4.75127E+04 -6.86311E+04  3.43461E+02
 -5.47461E+04 -5.75898E+04 -7.46561E+03 -7.87349E+04  3.44659E+04 -5.54701E+04  4.95423E+04 -1.89723E+04
  4.48004E+04  1.11427E+04  3.24501E+04  2.56683E+04  1.43594E+04  3.00744E+04 -6.97275E+03  2.83426E+04
 -2.30938E+04  1.12287E+04 -1.86676E+04 -6.45204E+03  7.22991E+03 -8.08384E+03  2.42813E+04  1.44246E+04
  6.51779E+03  3.66066E+04 -3.35156E+04  3.70954E+04 -6.54003E+04  2.71323E+03 -5.89719E+04 -4.55791E+04
 -1.24837E+04 -6.65884E+04  4.36967E+04 -4.70877E+04  6.05038E+04 -3.23529E+03  3.54303E+04  3.49305E+04
 -5.22538E+03  3.91623E+04 -3.18383E+04  1.86359E+04 -3.32576E+04 -3.43392E+03 -1.95237E+04 -1.12356E+04
 -1.00103E+04 -1.47257E+04 -7.11727E+02 -2.05273E+04  8.41393E+03 -2.31837E+04  1.75608E+04 -1.24977E+04
  1.10451E+04  6.36187E+03 -1.08954E+04  1.35145E+04 -2.37761E+04 -6.82664E+03 -7.33607E+03 -3.72755E+04
  2.44984E+04 -4.67995E+04  5.31367E+04 -2.31150E+04  4.95957E+04  2.27591E+04  1.58183E+04  4.72057E+04
 -1.87960E+04  3.50319E+04 -2.75799E+04  4.97656E+03 -1.27392E+04 -3.03570E+04  2.18634E+04 -3.77626E+04
  4.41205E+04 -1.09798E+04  4.13125E+04  2.50460E+04  2.09547E+04  5.17736E+04 -7.15288E+03  5.64096E+04
 -3.50567E+04  3.91424E+04 -4.81320E+04  9.84997E+03 -4.92067E+04 -1.87523E+04 -2.54341E+04 -4.17902E+04
  5.28195E+03 -4.23560E+04  3.42103E+04 -1.79602E+04  2.99123E+04  1.00353E+04  5.71312E+03  2.03280E+04
 -1.59014E+04  1.01101E+04 -1.16473E+04 -7.70531E+03  4.92191E+03 -1.11894E+04  1.85700E+04  4.77763E+03
  1.61174E+04  2.29935E+04 -4.15326E+03  2.77844E+04 -2.21704E+04  1.44281E+04 -3.13389E+04 -2.09774E+03
 -2.71429E+04 -1.90523E+04 -1.27716E+04 -2.49402E+04  5.21892E+03 -2.68642E+04  1.90834E+04 -2.27009E+04
  3.16275E+04 -1.46826E+04  3.89490E+04  5.11522E+03  2.75754E+04  2.49005E+04  2.00890E+03  4.04085E+04
 -2.07529E+04  3.21808E+04 -2.95096E+04  1.34596E+04 -2.42207E+04 -9.94152E+03 -5.63283E+03 -1.34833E+04
  2.88515E+02 -1.56819E+03 -6.38772E+03  7.10999E+03 -2.12669E+04  5.00119E+03 -1.90401E+04 -8.87550E+03
 -1.21037E+04 -2.28416E+04  5.82504E+03 -2.72175E+04  1.84551E+04 -1.99206E+04  2.37353E+04 -2.00897E+03
  1.45927E+04  1.59150E+04 -2.83339E+03  2.28152E+04 -1.70566E+04  1.45375E+04 -2.41311E+04 -6.03595E+03
 -1.69819E+04 -2.23408E+04 -3.29985E+03 -2.72451E+04  1.36060E+04 -2.28804E+04  2.35574E+04 -1.23641E+04
  2.18367E+04  2.28171E+02  1.44855E+04  5.50528E+03  8.81566E+03  1.55191E+03  1.02312E+04 -2.50306E+02
  2.23851E+04  3.68180E+03  2.58806E+04  1.74399E+04  1.95789E+04  3.71694E+04 -2.73113E+03  4.56822E+04
 -2.43588E+04  3.63155E+04 -4.26120E+04  1.98435E+04 -4.60270E+04 -3.64199E+03 -3.44513E+04 -2.56664E+04
 -1.35688E+04 -3.94665E+04  1.31590E+04 -3.29271E+04  2.59036E+04 -1.49560E+04  2.35865E+04  6.32010E+03
  7.71246E+03  1.94030E+04 -1.10626E+04  1.59127E+04 -2.06985E+04  1.95978E+03 -1.46043E+04 -1.30382E+04
 -1.05271E+03 -2.09529E+04  1.13667E+04 -1.53937E+04  1.48220E+04 -1.28978E+03  4.56773E+03  1.10134E+04
 -8.11807E+03  4.11252E+03 -1.03865E+04 -7.18386E+03 -1.79768E+03 -1.63896E+04  1.18335E+04 -1.93909E+04
  2.45875E+04 -1.23875E+04  2.77814E+04  4.82069E+03  2.29515E+04  1.82921E+04  9.91772E+03  2.88828E+04
 -4.32719E+03  3.24470E+04 -2.00844E+04  1.83863E+04 -2.20884E+04  4.16763E+03 -1.66406E+04 -3.96789E+03
 -7.59457E+03 -7.81429E+03 -1.76115E+02 -8.06115E+01 -1.53932E+03  3.39550E+03 -9.58083E+03  4.47340E+03
 -1.48254E+04 -2.38456E+03 -1.53811E+04 -1.11991E+04 -6.89214E+03 -1.80348E+04  6.86707E+03 -1.75388E+04
  1.37424E+04 -6.16413E+03  6.21575E+03  2.36973E+03 -8.32643E+02  6.89042E+03 -8.81645E+03  7.05540E+02
 -7.28817E+03 -1.03993E+04 -1.11969E+03 -1.52489E+04  8.68875E+03 -1.63088E+04  2.03137E+04 -9.35565E+03
  2.23769E+04  2.65861E+03  1.78279E+04  1.40288E+04  2.58341E+03  1.98796E+04 -8.73344E+03  1.48708E+04
 -1.23250E+04  4.04889E+03 -5.34080E+03 -3.82313E+03  3.15889E+03 -3.62758E+03  8.70593E+03  3.59685E+01
  5.90212E+03  7.92403E+03  7.98389E+02  1.21998E+04 -9.56532E+03  1.07937E+04 -1.55474E+04  3.72264E+03
 -1.21019E+04 -6.56173E+03 -1.59933E+03 -1.35905E+04  9.15155E+03 -7.89640E+03  1.15812E+04  3.47180E+03
  2.10340E+03  9.80341E+03 -6.83087E+03  1.31091E+04 -1.50565E+04  4.70652E+03 -1.25150E+04 -6.00424E+03
 -9.94384E+03 -1.73092E+04  4.89203E+03 -1.89976E+04  1.87631E+04 -1.21824E+04  1.74314E+04  4.72745E+03
  9.62000E+03  1.65891E+04 -2.23096E+03  1.67039E+04 -1.13883E+04  8.58139E+03 -1.24804E+04 -2.12975E+01
 -1.03331E+04 -1.02205E+04 -9.22612E+02 -1.24800E+04  6.87615E+03 -8.32141E+03  7.57492E+03 -4.46625E+03
  5.64296E+03  3.98886E+02 -1.88478E+03  5.62981E+02 -5.41916E+02 -2.65738E+03  1.81465E+03 -8.89011E+03
  1.32919E+04 -5.26376E+03  1.76211E+04  2.32632E+03  1.74181E+04  1.07184E+04  1.01057E+04  2.06137E+04
 -6.10016E+03  2.46027E+04 -2.21075E+04  1.85071E+04 -2.60586E+04  4.68738E+03 -2.10539E+04 -8.44940E+03
 -1.03101E+04 -1.75466E+04 -3.13712E+02 -1.52965E+04  6.16893E+03 -7.60750E+03  7.12802E+03 -5.29765E+03
  3.02156E+03 -2.89676E+03  3.95084E+03 -1.85427E+03  5.43121E+03 -2.27841E+03  8.41379E+03 -3.46945E+03
  9.45082E+03  2.84666E+03  6.79118E+03  9.61844E+03 -2.64600E+03  1.32394E+04 -1.34559E+04  9.71028E+03
 -1.59335E+04 -1.53898E+03 -1.04435E+04 -1.23761E+04 -1.89910E+03 -1.75119E+04  9.36788E+03 -1.52364E+04
  1.62228E+04 -9.41485E+03  2.05403E+04  2.19184E+03  1.47089E+04  1.37242E+04  1.57029E+03  1.78573E+04
 -6.86231E+03  1.59017E+04 -1.23799E+04  5.51339E+03 -1.01373E+04 -1.05718E+03 -3.32266E+03 -1.13452E+03
 -8.22015E+02 -1.92172E+02 -2.73419E+03  5.46571E+03 -6.45323E+03  2.16542E+03 -9.67199E+03 -3.68918E+02
 -7.64609E+03 -9.86725E+03 -1.81355E+03 -1.54835E+04  1.01724E+04 -1.39718E+04  1.46756E+04 -3.15770E+03
  1.44015E+04  8.96510E+03  7.58241E+03  1.39074E+04 -2.68785E+03  1.32506E+04 -1.19630E+04  1.00049E+04
 -1.47503E+04  9.34881E+02 -1.15944E+04 -1.10475E+04 -1.25453E+03 -1.41315E+04  6.94048E+03 -1.07166E+04
  7.94711E+03 -3.66240E+03  5.30572E+03  2.01889E+03  2.24715E+03  4.45254E+03  6.05467E+02  3.41170E+03
  2.01473E+03  8.22517E+02  4.71816E+03  1.90472E+03  5.24239E+03  5.02543E+03  4.93422E+03  8.41424E+03
 -2.80705E+03  1.13123E+04 -1.11744E+04  1.21639E+04 -1.49870E+04  3.85498E+03 -1.66144E+04 -6.42685E+03
 -9.64561E+03 -1.54101E+04  4.33066E+03 -1.57579E+04  9.16236E+03 -1.07858E+04  1.29855E+04 -3.59259E+03
  1.12382E+04  6.55678E+03  4.41059E+03  9.78701E+03 -4.73561E+03  5.77821E+03 -6.63809E+03 -3.65558E+02
 -1.99358E+03 -7.47733E+03  3.61349E+03 -8.05831E+03  7.89073E+03 -4.23160E+03  5.08063E+03  1.92699E+03
  3.48329E+03  3.84380E+03  3.42173E+02  3.04351E+03 -1.30114E+03 -4.97630E+02  2.25186E+03 -2.08839E+03
  2.02821E+03 -2.18428E+03  5.98060E+03  3.37961E+03  4.04201E+03  1.02463E+04 -1.01979E+03  9.74297E+03
 -9.21494E+03  9.31548E+03 -1.12830E+04  7.56703E+02 -8.91987E+03 -3.67062E+03 -4.28422E+03 -6.71792E+03
  1.14605E+03 -6.31421E+03  3.94868E+03 -4.17243E+03  4.13057E+03  4.14246E+03 -2.33170E+03  5.29454E+03
 -6.02579E+03  5.72921E+03 -8.37306E+03 -2.90201E+03 -4.80025E+03 -7.50604E+03  2.35372E+03 -8.47636E+03
  5.76344E+03 -5.27802E+03  6.51985E+03 -5.65806E+02  5.08109E+03  2.80095E+03  9.64767E+02  5.65526E+03
 -2.56409E+03  2.92357E+02 -3.80775E+03 -4.57106E+03  1.77503E+03 -6.75582E+03  9.00187E+03 -5.24721E+03
  1.17048E+04  2.97177E+03  1.03446E+04  7.64968E+03  1.94023E+03  1.10990E+04 -4.77832E+03  1.13827E+04
 -9.34648E+03  5.66794E+03 -9.71852E+03 -1.05596E+03 -3.95358E+03 -7.63736E+03  1.37045E+03 -6.57255E+03
  6.72002E+03 -4.07284E+03  4.57189E+03  3.03804E+03  2.32784E+03  5.52014E+03 -1.71632E+03  4.48133E+03
 -3.38780E+03  4.16424E+03 -4.65703E+03  6.67577E+02 -1.86625E+03  8.16520E+02 -2.74776E+03  1.83384E+03
 -1.77120E+03  5.03135E+03 -7.53554E+03  3.25598E+03 -1.18767E+04  4.72239E+01 -1.21014E+04 -6.88677E+03
 -6.59133E+03 -1.32645E+04  2.41971E+03 -1.78404E+04  1.03329E+04 -1.26378E+04  1.54212E+04 -4.62748E+03
  1.49122E+04  2.84407E+03  1.01262E+04  9.37578E+03  1.99702E+03  1.05782E+04 -4.83214E+03  9.90699E+03
 -5.68192E+03  4.35303E+03 -6.18319E+03 -1.89054E+02 -6.16499E+02 -1.56265E+03 -1.14938E+03 -1.29096E+03
 -2.55448E+03  2.45592E+03 -1.57701E+03 -1.20107E+03 -1.57199E+03 -3.05411E+03 -5.88420E+02 -4.62951E+03
  5.39117E+03 -3.56484E+03  6.67421E+03 -9.91476E+02  9.43263E+03  6.05511E+03  1.18961E+03  1.03514E+04
 -5.33203E+03  1.35137E+04 -1.24892E+04  5.75085E+03 -1.37845E+04 -2.10413E+03 -1.28140E+04 -1.00599E+04
 -5.39931E+03 -1.26824E+04  2.20873E+03 -1.14035E+04  8.85746E+03 -6.11580E+03  8.91029E+03  2.13304E+03
  4.61229E+03  3.89049E+03  2.10144E+02  3.53952E+03 -3.76261E+03 -3.32487E+01  8.08826E+02 -2.16668E+03
  3.41675E+03 -5.18044E+02  4.34805E+03  1.51910E+03  4.48750E+03  4.25687E+03  8.52925E+02  6.00789E+03
 -6.08321E+03  4.65904E+03 -9.37644E+03  4.03601E+02 -7.57464E+03 -5.59549E+03 -1.28832E+03 -1.00306E+04
  6.12046E+03 -7.96096E+03  8.93649E+03 -1.87562E+03  9.06013E+03  1.98506E+03  4.04945E+03  7.12753E+03
  1.79041E+03  8.73019E+03 -2.77364E+03  6.86175E+03 -6.83518E+03  4.47627E+03 -5.52846E+03  2.46290E+03
 -3.00358E+03 -1.13535E+03 -1.82780E+03  4.05770E+00 -3.84249E+03  2.46781E+03 -6.30387E+03 -1.04889E+03
 -5.51797E+03 -4.77106E+03 -1.55928E+03 -8.46250E+03  4.45317E+03 -7.49116E+03  8.10529E+03 -5.69317E+03
  8.54142E+03  1.00787E+03  4.31728E+03  5.80191E+03  2.65432E+02  7.32420E+03 -6.39309E+03  4.47339E+03
