 $NMID ID='MM_0lb_SNR200_17hz_g55_76.RAW', FMTDAT='(8E13.5)'
 TRAMP=1., VOLUME=1. $END
  3.10010E+05  4.64704E+02  3.38243E+05  2.50963E+05  8.47255E+04  3.37668E+05 -1.32083E+05  2.50809E+05
 -1.91276E+05  8.35232E+04 -1.10991E+05 -3.24906E+04  1.97411E+03 -5.03447E+04  5.32759E+04 -5.50324E+02
  3.45185E+04  5.25205E+04 -1.63196E+04  7.49780E+04 -6.07165E+04  6.30509E+04 -8.42042E+04  3.27221E+04
 -8.07711E+04 -1.07689E+04 -5.63560E+04 -5.14285E+04 -1.49876E+04 -6.86333E+04  2.76879E+04 -4.56357E+04
  3.99739E+04  4.04283E+03  1.60884E+04  4.76114E+04 -3.39125E+04  4.67845E+04 -6.60062E+04 -1.06653E+02
 -5.31708E+04 -5.62511E+04 -5.94993E+03 -7.67731E+04  3.36430E+04 -5.44783E+04  4.76166E+04 -1.64606E+04
  4.27303E+04  1.11484E+04  3.21302E+04  2.50721E+04  1.54861E+04  2.86369E+04 -5.84402E+03  2.76152E+04
 -2.17109E+04  1.19909E+04 -1.94929E+04 -4.76545E+03  4.37238E+03 -7.28539E+03  2.14386E+04  1.22243E+04
  8.06918E+03  3.37933E+04 -3.10120E+04  3.53332E+04 -6.22070E+04  1.70249E+03 -5.62752E+04 -4.25561E+04
 -1.29355E+04 -6.29071E+04  3.79302E+04 -4.50742E+04  5.79317E+04 -1.76600E+03  3.26261E+04  3.11572E+04
 -5.34020E+03  3.49505E+04 -3.00453E+04  1.55054E+04 -2.98139E+04 -4.25662E+03 -1.49491E+04 -1.14421E+04
 -7.89044E+03 -1.22255E+04 -1.16511E+03 -1.74400E+04  7.13490E+03 -2.37567E+04  1.47447E+04 -1.37393E+04
  1.30710E+04  5.03822E+03 -7.73853E+03  1.39776E+04 -1.98825E+04 -4.12734E+03 -7.92435E+03 -3.24469E+04
  2.18645E+04 -4.22995E+04  4.71593E+04 -1.93760E+04  4.32236E+04  1.92866E+04  1.38185E+04  4.32422E+04
 -1.54283E+04  3.18336E+04 -2.52252E+04  1.48506E+03 -8.85824E+03 -2.75002E+04  2.01505E+04 -3.34472E+04
  4.05394E+04 -8.50859E+03  3.50202E+04  2.29523E+04  1.71146E+04  4.46977E+04 -8.59712E+03  4.76134E+04
 -3.07697E+04  3.31279E+04 -3.99874E+04  9.06156E+03 -4.09013E+04 -1.59291E+04 -2.31161E+04 -3.66067E+04
  6.43006E+03 -3.65738E+04  2.86596E+04 -1.45084E+04  2.79289E+04  1.11675E+04  4.36670E+03  1.84078E+04
 -1.38037E+04  8.81353E+03 -9.39678E+03 -7.44793E+03  6.12677E+03 -1.20329E+04  1.72994E+04  6.71426E+03
  1.20043E+04  2.12759E+04 -5.96208E+03  2.38607E+04 -2.26862E+04  9.48239E+03 -2.57887E+04 -5.21350E+03
 -1.87252E+04 -1.77318E+04 -7.60945E+03 -1.80585E+04  4.40520E+03 -1.66195E+04  1.44184E+04 -1.69649E+04
  2.44817E+04 -1.28616E+04  3.12704E+04  2.42593E+03  2.37025E+04  1.71838E+04  4.60111E+03  3.39938E+04
 -1.71339E+04  2.81103E+04 -2.67722E+04  1.00262E+04 -2.09541E+04 -1.07273E+04 -2.63821E+03 -1.31756E+04
  1.64274E+03 -4.15903E+03 -3.35972E+03  6.33322E+03 -1.57809E+04  5.07168E+03 -1.61070E+04 -6.09408E+03
 -9.90673E+03 -1.72408E+04  6.13338E+03 -2.12367E+04  1.32116E+04 -1.61127E+04  1.55344E+04 -1.36088E+03
  1.02040E+04  1.14444E+04 -1.90867E+03  1.83658E+04 -1.13585E+04  9.04404E+03 -1.66309E+04 -3.30797E+03
 -1.36981E+04 -1.64079E+04 -2.27400E+03 -2.14861E+04  1.02738E+04 -1.67132E+04  1.89418E+04 -9.16856E+03
  1.64132E+04  2.26392E+02  1.01007E+04  2.67604E+03  5.86773E+03  8.07881E+02  8.38130E+03 -1.99164E+03
  1.61938E+04  3.40273E+03  1.66369E+04  1.47297E+04  9.24364E+03  2.78093E+04 -2.78819E+03  2.95777E+04
 -1.74958E+04  2.43679E+04 -2.76839E+04  1.10725E+04 -2.97094E+04 -1.55792E+03 -2.42970E+04 -1.64599E+04
 -1.19062E+04 -2.40620E+04  8.35747E+03 -2.13944E+04  1.88812E+04 -1.19026E+04  1.69267E+04  3.36620E+03
  6.80296E+03  1.31299E+04 -8.43809E+03  1.06112E+04 -1.45879E+04  2.42678E+03 -1.07077E+04 -8.26180E+03
 -2.24470E+01 -1.41023E+04  5.85580E+03 -1.05544E+04  9.81175E+03 -1.45148E+03  1.41673E+03  5.89981E+03
 -6.09197E+03  1.97805E+03 -3.88421E+03 -4.85909E+03 -4.44460E+01 -1.16069E+04  8.46560E+03 -1.16412E+04
  1.48137E+04 -5.92983E+03  1.55832E+04  2.55125E+03  1.28199E+04  1.27321E+04  5.66050E+03  1.69829E+04
 -2.92585E+03  1.90107E+04 -1.11829E+04  1.21552E+04 -1.36911E+04  2.54448E+03 -9.72864E+03 -2.34816E+03
 -5.13893E+03 -4.74816E+03 -1.54531E+02  1.32249E+03 -2.29159E+03  2.02271E+03 -4.40860E+03  4.61957E+03
 -8.35723E+03  8.65840E+02 -9.07130E+03 -7.52272E+03 -3.19610E+03 -1.31523E+04  4.42319E+03 -1.03841E+04
  8.21209E+03 -6.02645E+03  6.24528E+03  1.75535E+03  2.00826E+02  2.72708E+03 -3.86139E+03 -4.20041E+02
 -3.46337E+03 -7.02462E+03  3.03845E+01 -8.94607E+03  5.43950E+03 -8.66180E+03  1.10001E+04 -4.51224E+03
  1.38534E+04  1.31238E+03  9.29982E+03  7.46555E+03  9.65096E+02  1.18211E+04 -6.50742E+03  9.69429E+03
 -8.24587E+03  2.88690E+03 -3.91112E+03 -8.48697E+02  1.97875E+03 -2.01409E+03  6.05478E+03 -8.87984E+02
  5.28921E+03  4.71715E+03  1.45428E+03  7.03321E+03 -5.17630E+03  7.43504E+03 -9.48846E+03  2.11596E+03
 -6.03123E+03 -3.89821E+03 -4.91534E+02 -8.25876E+03  5.44395E+03 -3.09025E+03  5.26772E+03  2.57646E+03
  7.13902E+02  3.97434E+03 -5.16166E+03  6.53813E+03 -5.66138E+03  2.18545E+03 -6.33014E+03 -2.67454E+03
 -3.83469E+03 -8.73669E+03  1.61032E+03 -8.43124E+03  6.99188E+03 -5.32824E+03  1.00210E+04  1.48846E+03
  5.08553E+03  5.41110E+03 -5.02233E+02  7.57878E+03 -5.64668E+03  4.18783E+03 -7.49937E+03  4.76776E+02
 -7.18652E+03 -5.77437E+03 -2.33285E+03 -5.62440E+03  3.52353E+03 -4.59748E+03  3.04306E+03 -2.89659E+03
  3.53688E+03  4.68053E+02 -6.71816E+02  7.78202E+02 -6.21684E+02 -3.13727E+02 -7.78307E+02 -2.61455E+03
  6.13729E+03 -5.28242E+02  7.37454E+03  5.95935E+02  6.22178E+03  3.67832E+03  7.47007E+03  8.22839E+03
 -1.86624E+03  1.07143E+04 -9.56870E+03  7.47881E+03 -1.27565E+04  1.00662E+03 -1.00408E+04 -3.60124E+03
 -4.98409E+03 -9.78157E+03 -1.24318E+03 -6.29802E+03  2.30135E+03 -2.87057E+03  2.88870E+03 -2.05940E+03
  1.74486E+03 -1.45122E+03  1.37087E+03 -2.74468E+03  3.12745E+03 -1.66046E+03  3.24984E+03  8.52327E+02
  5.92687E+03  9.00079E+02  1.88653E+03  4.65053E+03 -1.80940E+03  4.22741E+03 -5.97071E+03  4.92218E+03
 -6.14062E+03 -1.13717E+03 -3.29946E+03 -4.24422E+03 -1.93152E+02 -6.41095E+03  3.66862E+03 -7.03185E+03
  7.00975E+03 -3.28280E+03  8.02552E+03  1.54664E+03  6.07102E+03  6.12589E+03  4.18455E+02  7.96631E+03
 -3.13798E+03  8.25492E+03 -3.86639E+03  2.75948E+03 -1.87030E+03 -1.05321E+03 -8.75564E+02 -3.44479E+02
 -1.63460E+02 -1.61283E+02 -7.58800E+02  2.03388E+03 -3.73507E+03  1.87576E+03 -4.72918E+03  3.39940E+02
 -2.54146E+03 -5.66249E+03  1.36601E+03 -5.51201E+03  2.98044E+03 -4.35166E+03  5.74590E+03 -1.12702E+03
  5.92161E+03  3.41110E+03  1.11065E+03  3.83176E+03 -9.84331E+02  4.72021E+03 -4.05793E+03  3.15763E+03
 -5.08323E+03  1.82650E+03 -4.17732E+03 -2.31039E+03 -6.19598E+02 -4.32105E+03  2.38882E+03 -2.72476E+03
  3.35458E+03 -1.58794E+03  1.61121E+03  4.39091E+02  1.46675E+03  1.98861E+03  7.12042E+02  1.57401E+03
  1.93311E+03  4.51962E+02  1.89194E+03  1.31276E+03  5.40995E+02  2.73452E+03  1.31211E+03  2.47128E+03
 -1.88584E+03  4.02615E+03 -3.20587E+03  4.67907E+03 -4.93628E+03  1.84696E+03 -3.69702E+03 -6.17077E+02
 -4.14546E+03 -4.76129E+03  1.04266E+03 -5.81020E+03  3.64972E+03 -2.47270E+03  4.59120E+03 -2.05122E+03
  2.79065E+03  2.63712E+03 -4.84009E+02  2.89556E+03 -1.25810E+03  2.00252E+02 -7.48709E+02 -4.22308E+02
 -1.60092E+03 -1.96000E+03  1.49086E+03 -1.30524E+03  2.42091E+03  4.78001E+02  1.91859E+03  5.08772E+02
  9.68892E+02  1.09776E+03  1.17638E+03  1.24599E+03 -7.83719E+02  2.28983E+03  1.04274E+03 -1.14027E+03
  3.47852E+02  4.25726E+02  1.91876E+03  1.27988E+03  1.67353E+03  1.64023E+03  4.50469E+02  3.03880E+03
 -2.07162E+03  1.92151E+03 -2.55979E+03 -3.18990E+02 -2.42350E+03 -3.57806E+02 -1.02003E+03 -1.55916E+03
  9.38544E+02 -2.44652E+03  1.03158E+03 -1.19624E+03  8.27219E+02  7.88528E+02 -8.68990E+02  1.42253E+03
 -2.52987E+03 -5.35758E+02 -1.75538E+03 -1.19568E+03 -8.67623E+02 -2.68944E+03 -3.93458E+02 -2.91556E+03
  1.24669E+03  1.55803E+02  1.64860E+03 -1.44716E+02  2.93337E+03 -3.52007E+02  9.76011E+02  1.68088E+03
 -7.20673E+02  3.94146E+00 -1.98410E+03 -1.51553E+01  1.93330E+03  4.79850E+02  1.67093E+03 -1.91580E+03
  1.52431E+03  2.88571E+02  3.00451E+03  1.70409E+03  5.42994E+02  2.34670E+03 -7.42072E+01  2.10390E+03
 -2.65201E+03  4.26445E+01 -1.68477E+03 -9.58955E+02 -5.36742E+02 -2.04887E+03  1.38568E+03 -1.61198E+03
  1.47005E+03 -8.30781E+02  1.18783E+03  7.88348E+02  4.47108E+02  1.64457E+03  2.12861E+03  1.88984E+03
 -6.07147E+02  1.38308E+03 -1.67005E+02  8.64447E+00  2.47682E+02  1.70773E+03 -1.31474E+03  1.27394E+03
 -9.22075E+02  1.55014E+03 -1.38877E+03  8.29736E+02 -1.33560E+03 -1.86575E+02 -2.60290E+03 -1.31807E+03
 -9.03876E+02 -3.61919E+03  4.80756E+02 -3.66747E+03  1.20824E+03 -3.35807E+03  3.59346E+03 -1.52434E+03
  3.61036E+03 -1.56366E+02  1.73848E+03  1.50873E+03 -2.70893E+02  2.06112E+03 -5.63783E+02  1.39567E+03
 -2.30038E+03  4.57684E+02 -1.92620E+03  1.47089E+02 -5.26257E+02  3.45862E+02 -2.20353E+02 -1.78276E+02
 -1.39287E+03  2.79784E+02 -4.72689E+02 -1.02142E+03 -2.52428E+02 -9.54551E+02 -9.66941E+02 -4.40936E+02
  2.38957E+03 -8.94096E+02  8.42533E+02  8.92938E+02  1.72175E+03  1.67907E+03 -2.56788E+02  9.70476E+02
 -5.42887E+02  2.29209E+03 -2.50007E+03  1.70339E+03 -2.02337E+03  2.49830E+01 -2.36594E+03 -7.06474E+02
 -2.28241E+03 -2.14118E+03  8.45052E+02 -7.91656E+02  2.19038E+03 -1.68739E+02  5.08406E+02 -6.91731E+01
  1.39298E+03 -1.54664E+01 -4.74791E+02  1.64754E+03 -6.11045E+02  4.49866E+02 -7.13928E+02 -5.33648E+02
 -2.98987E+02 -5.20204E+01 -5.52855E+02  1.42208E+03 -1.63059E+02  1.41336E+03  1.57575E+03  9.80519E+02
 -1.05604E+03  1.41405E+03 -1.13770E+03  6.10057E+02 -1.15582E+03  4.68248E+01 -5.16915E+01 -1.19042E+03
  9.71269E+02 -9.46927E+02  1.15599E+03  6.12333E+01  2.10599E+03  5.66652E+01 -4.20111E+02  7.98196E+02
  1.06364E+03  8.26413E+02 -8.72824E+02  3.68831E+02 -6.73748E+02 -2.04484E+02  1.05874E+02  5.67816E+02
 -2.70040E+02 -1.05937E+03  3.83523E+02 -6.36397E+01  3.59086E+02  9.25356E+02 -1.60021E+02 -3.37365E+02
 -4.99161E+02  1.22636E+03 -3.27604E+02 -1.67202E+03  1.27704E+03 -9.94845E+02  1.89717E+02 -6.62876E+01
  8.82102E+02  9.12700E+01  1.94466E+02  5.71306E+02 -8.63214E+02  1.51539E+03 -8.74306E+02  1.94549E+02
