 $NMID ID='MM_0lb_SNR200_9hz_g55_72.RAW', FMTDAT='(8E13.5)'
 TRAMP=1., VOLUME=1. $END
  3.10302E+05  5.46052E+02  3.37931E+05  2.52148E+05  8.43367E+04  3.39198E+05 -1.33210E+05  2.51113E+05
 -1.90492E+05  8.45973E+04 -1.12596E+05 -3.33114E+04  8.49907E+02 -4.98577E+04  5.58916E+04 -1.25654E+03
  3.59625E+04  5.18144E+04 -1.65268E+04  7.42673E+04 -6.12610E+04  6.56001E+04 -8.55391E+04  3.31520E+04
 -8.20260E+04 -1.08401E+04 -5.88911E+04 -5.37548E+04 -1.35897E+04 -7.27549E+04  2.90642E+04 -4.63950E+04
  4.10130E+04  2.37043E+03  1.69199E+04  4.84892E+04 -3.58705E+04  4.72929E+04 -6.87446E+04  1.48927E+03
 -5.66589E+04 -5.75063E+04 -8.82783E+03 -8.09592E+04  3.31842E+04 -5.73985E+04  4.84825E+04 -1.79300E+04
  4.46362E+04  1.19429E+04  3.26285E+04  2.73639E+04  1.46370E+04  2.92207E+04 -5.93016E+03  2.83777E+04
 -2.23359E+04  1.25369E+04 -1.76226E+04 -5.55001E+03  6.55901E+03 -7.11946E+03  2.60259E+04  1.38751E+04
  7.05097E+03  3.86704E+04 -3.46678E+04  3.68186E+04 -6.58160E+04  1.46739E+03 -5.88374E+04 -4.53464E+04
 -1.18096E+04 -6.64894E+04  4.10305E+04 -4.65963E+04  6.22973E+04 -5.57989E+02  3.81313E+04  3.53186E+04
 -3.98374E+03  3.88580E+04 -3.05728E+04  1.85686E+04 -3.48016E+04 -2.69276E+03 -1.94260E+04 -1.31849E+04
 -1.23229E+04 -1.59470E+04 -9.91316E+02 -2.10986E+04  8.83739E+03 -2.36444E+04  1.60548E+04 -1.20353E+04
  1.05462E+04  7.60542E+03 -1.03831E+04  1.29647E+04 -2.31945E+04 -6.85641E+03 -9.30877E+03 -3.75404E+04
  2.59501E+04 -4.87773E+04  5.32977E+04 -1.98926E+04  4.98952E+04  2.10248E+04  1.98259E+04  4.82285E+04
 -1.80013E+04  3.57806E+04 -2.79213E+04  3.61880E+03 -1.14515E+04 -3.02187E+04  2.10034E+04 -3.76112E+04
  4.52451E+04 -1.08346E+04  4.30012E+04  2.54052E+04  2.12308E+04  5.26490E+04 -9.85122E+03  5.62185E+04
 -3.70435E+04  3.81496E+04 -4.76372E+04  1.05507E+04 -4.81163E+04 -1.86408E+04 -2.60955E+04 -4.45142E+04
  6.64848E+03 -4.27786E+04  3.53474E+04 -1.68979E+04  3.06093E+04  1.20868E+04  4.96319E+03  2.11776E+04
 -1.30852E+04  9.12013E+03 -9.43479E+03 -7.88931E+03  4.60518E+03 -1.14084E+04  1.95287E+04  5.69470E+03
  1.47035E+04  2.18332E+04 -5.67090E+03  2.78879E+04 -2.44453E+04  1.28280E+04 -3.19181E+04 -1.46909E+03
 -2.61276E+04 -1.84886E+04 -1.09957E+04 -2.54534E+04  5.21311E+03 -2.58618E+04  1.90886E+04 -2.28624E+04
  3.36922E+04 -1.38454E+04  3.85844E+04  6.75284E+03  2.62992E+04  2.35173E+04  6.54839E+03  4.25798E+04
 -1.99430E+04  3.44623E+04 -3.01548E+04  1.14144E+04 -2.30557E+04 -1.25217E+04 -4.54644E+03 -1.25636E+04
  1.51595E+03 -1.95228E+03 -9.28395E+03  8.14888E+03 -1.95809E+04  6.88504E+03 -1.94378E+04 -9.03916E+03
 -1.25444E+04 -2.20893E+04  5.59893E+03 -2.79766E+04  1.93117E+04 -2.04869E+04  2.35202E+04 -1.62507E+03
  1.44222E+04  1.62730E+04 -2.43763E+03  2.29694E+04 -1.63896E+04  1.35905E+04 -2.21219E+04 -5.08223E+03
 -1.76388E+04 -2.08828E+04 -3.07036E+03 -2.85975E+04  1.42552E+04 -2.34355E+04  2.35941E+04 -1.31859E+04
  2.08390E+04 -3.91457E+02  1.76652E+04  4.86537E+03  9.05076E+03  8.16381E+02  1.34742E+04 -1.40955E+03
  2.33892E+04  3.60853E+03  2.43908E+04  1.87540E+04  1.72562E+04  3.86742E+04 -2.86920E+03  4.58231E+04
 -2.35511E+04  3.75413E+04 -4.33182E+04  2.06734E+04 -4.34169E+04 -2.46422E+03 -3.64743E+04 -2.62935E+04
 -1.49474E+04 -3.78061E+04  1.39039E+04 -3.43250E+04  2.78226E+04 -1.55954E+04  2.57100E+04  7.84083E+03
  8.54426E+03  1.95790E+04 -1.22889E+04  1.59107E+04 -2.15209E+04  3.61195E+03 -1.55588E+04 -1.39466E+04
 -1.78639E+03 -1.91272E+04  1.12018E+04 -1.42193E+04  1.33164E+04 -3.33060E+03  4.52432E+03  8.96892E+03
 -1.00555E+04  5.71628E+03 -9.46137E+03 -5.43144E+03 -2.97593E+03 -1.82681E+04  1.30698E+04 -2.04749E+04
  2.40895E+04 -1.19472E+04  2.60977E+04  1.90363E+03  2.27720E+04  2.01685E+04  9.31474E+03  2.99117E+04
 -4.01590E+03  3.25939E+04 -2.10702E+04  2.01241E+04 -2.29733E+04  3.58430E+03 -1.78708E+04 -5.84723E+03
 -7.20225E+03 -6.93968E+03  6.17774E+02  1.39958E+03 -4.77477E+03  3.33392E+03 -7.88481E+03  5.66336E+03
 -1.44412E+04 -1.01686E+03 -1.27310E+04 -1.18766E+04 -7.17585E+03 -1.98095E+04  6.59190E+03 -1.60359E+04
  1.18626E+04 -7.04580E+03  9.78820E+03  4.35815E+03 -4.05253E+02  6.88638E+03 -8.86130E+03 -1.12997E+03
 -8.83109E+03 -1.10889E+04 -2.57856E+03 -1.65014E+04  1.02108E+04 -1.70584E+04  1.88042E+04 -8.55176E+03
  2.34997E+04  2.08351E+03  1.78365E+04  1.44213E+04  4.23817E+03  2.04531E+04 -1.01339E+04  1.70060E+04
 -1.26287E+04  4.14632E+03 -8.40382E+03 -2.86323E+03  2.03926E+03 -3.76334E+03  6.48185E+03  5.63683E+02
  9.05383E+03  7.73865E+03  1.48211E+03  1.35442E+04 -9.21229E+03  1.36727E+04 -1.54783E+04  2.50747E+03
 -1.16225E+04 -8.99599E+03  1.57362E+03 -1.51154E+04  1.11715E+04 -6.84925E+03  8.26371E+03  3.34747E+03
 -1.43386E+03  1.02408E+04 -8.21279E+03  1.23387E+04 -1.46475E+04  4.35722E+03 -1.39412E+04 -4.52734E+03
 -8.68407E+03 -1.49754E+04  3.26020E+03 -1.90122E+04  1.67553E+04 -1.15591E+04  1.74204E+04  2.61446E+03
  1.07520E+04  1.37365E+04 -1.83967E+03  1.70282E+04 -1.20729E+04  8.60087E+03 -1.34862E+04 -7.68039E+02
 -1.20198E+04 -9.16525E+03 -2.00212E+03 -1.29387E+04  7.39314E+03 -9.81535E+03  7.10000E+03 -4.28747E+03
  4.00610E+03  2.19786E+03 -2.17549E+03  2.32189E+03 -1.07904E+03 -1.89443E+03  2.33880E+03 -7.48151E+03
  1.14556E+04 -4.39013E+03  1.61266E+04  2.01498E+03  1.57605E+04  1.21034E+04  1.10957E+04  1.99052E+04
 -3.29669E+03  2.58563E+04 -2.14745E+04  1.79612E+04 -2.74894E+04  2.25277E+03 -2.10980E+04 -8.27290E+03
 -1.10377E+04 -1.80837E+04 -1.62019E+03 -1.58018E+04  4.49283E+03 -8.26297E+03  7.06068E+03 -5.01952E+03
  3.50226E+03 -3.01457E+03  3.30942E+03 -3.58359E+03  6.31971E+03 -3.34279E+03  8.82111E+03 -1.28378E+03
  1.05609E+04  2.32798E+03  6.31402E+03  1.09947E+04 -2.06734E+03  1.15213E+04 -1.26194E+04  9.06348E+03
 -1.60262E+04 -5.96233E+01 -1.13329E+04 -1.15985E+04 -1.88359E+03 -1.61563E+04  1.01261E+04 -1.88223E+04
  1.76556E+04 -7.98571E+03  2.07688E+04  2.68932E+03  1.47566E+04  1.40884E+04  3.41813E+03  1.80362E+04
 -8.42684E+03  1.39112E+04 -1.10895E+04  4.31876E+03 -7.28013E+03 -7.22186E+02 -3.84718E+03 -1.10957E+03
 -1.14296E+03 -1.19254E+03 -1.53523E+03  1.90476E+03 -5.93891E+03  1.85691E+03 -1.07359E+04 -1.64924E+03
 -8.02972E+03 -1.07104E+04  1.15618E+03 -1.48063E+04  9.59579E+03 -1.38962E+04  1.48854E+04 -3.88468E+03
  1.49413E+04  8.16237E+03  7.22184E+03  1.49640E+04 -2.96124E+03  1.61690E+04 -1.32690E+04  1.06261E+04
 -1.49397E+04 -2.18255E+02 -1.06147E+04 -1.00870E+04 -1.86465E+03 -1.29703E+04  7.33069E+03 -9.79193E+03
  9.18556E+03 -2.84402E+03  5.58662E+03  3.12532E+03  2.03556E+03  3.16904E+03  1.52071E+03  1.41291E+03
  2.32740E+03  8.18820E+02  3.51046E+03  1.44917E+03  5.13442E+03  5.94064E+03  2.08582E+03  7.90109E+03
 -3.91728E+03  1.19588E+04 -1.16018E+04  1.20216E+04 -1.50123E+04  2.85474E+03 -1.73904E+04 -6.52244E+03
 -8.96290E+03 -1.69843E+04  2.89140E+03 -1.51204E+04  8.74728E+03 -1.02757E+04  1.22039E+04 -1.19152E+03
  9.29936E+03  7.37913E+03  2.11634E+03  8.98550E+03 -4.92900E+03  5.25811E+03 -7.35696E+03 -1.96260E+03
 -3.07482E+03 -4.62632E+03  5.02434E+03 -5.01697E+03  6.13929E+03 -4.44080E+03  5.76859E+03  7.64464E+02
  3.19851E+03  3.43395E+03  2.55021E+03  3.55665E+03  7.54285E+02  2.26587E+03  4.79681E+02 -4.93625E+02
  1.99920E+03 -8.98928E+02  6.15488E+03  3.28922E+03  5.38538E+03  7.96065E+03 -7.91170E+02  1.26030E+04
 -9.17185E+03  6.96371E+03 -1.01806E+04  2.32892E+03 -9.22539E+03 -3.43744E+03 -4.31934E+03 -5.97701E+03
  1.86948E+03 -6.58197E+03  4.98219E+03 -2.71990E+03  2.77816E+03  2.15832E+03 -1.09558E+03  6.98432E+03
 -6.65777E+03  3.49532E+03 -7.11925E+03 -2.86238E+03 -5.19690E+03 -8.61500E+03  1.06062E+03 -7.09076E+03
  4.86413E+03 -4.03503E+03  6.52714E+03 -2.03124E+03  6.85022E+03  1.29761E+03  1.26445E+03  4.98734E+03
 -2.99285E+03  6.10988E+02 -3.39137E+03 -2.84786E+03  2.36060E+03 -6.78052E+03  7.80749E+03 -5.19480E+03
  1.08087E+04  2.01364E+03  8.74966E+03  6.80092E+03  4.18256E+03  1.12563E+04 -3.31796E+03  9.35808E+03
 -8.86946E+03  4.59613E+03 -1.01258E+04 -1.70562E+03 -4.74581E+03 -6.99622E+03  9.77641E+02 -6.72061E+03
  8.54393E+03 -2.95356E+03  4.69085E+03  2.96213E+03  1.53498E+03  7.00064E+03 -1.25066E+03  4.34578E+03
 -2.37133E+03  3.41875E+03 -2.31168E+03  1.15812E+03 -1.42684E+03  1.30300E+02 -2.13584E+03  2.20721E+03
 -2.30280E+03  5.12952E+03 -6.49808E+03  4.22878E+03 -1.15159E+04 -1.90056E+03 -1.14874E+04 -7.33101E+03
 -5.90201E+03 -1.48709E+04  2.26541E+03 -1.76150E+04  1.15270E+04 -1.16226E+04  1.40606E+04 -3.63741E+03
  1.47124E+04  2.88394E+03  8.18914E+03  8.53317E+03  2.36635E+03  1.11077E+04 -3.92228E+03  9.05382E+03
 -3.99797E+03  4.27685E+03 -3.27534E+03 -3.15081E+02 -1.51101E+03 -1.57617E+03  1.42584E+03  1.16578E+03
 -1.23930E+03  3.86584E+02 -3.29929E+03  2.18971E+02 -2.08443E+03 -2.67547E+03  2.42370E+02 -4.56962E+03
  4.98498E+03 -4.98731E+03  8.63147E+03  4.91307E+02  6.72531E+03  6.73899E+03  4.04031E+03  1.23113E+04
 -5.60533E+03  1.17641E+04 -1.18318E+04  6.90570E+03 -1.27255E+04 -7.64067E+02 -9.08987E+03 -9.39102E+03
 -4.81114E+03 -1.17960E+04  2.63958E+03 -8.97602E+03  6.52514E+03 -4.87971E+03  6.91075E+03 -2.68860E+02
  3.65694E+03  4.61365E+03 -1.18679E+03  3.67152E+03 -1.65203E+03  4.86415E+02 -1.39553E+03 -4.29153E+03
  2.48315E+03 -2.24065E+03  2.75257E+03  2.35542E+03  5.23024E+02  4.49863E+03 -3.27420E+02  5.04998E+03
 -4.38057E+03  3.72307E+03 -8.09952E+03  1.66731E+03 -7.41745E+03 -7.03952E+03 -1.08139E+03 -9.02720E+03
  3.32595E+03 -6.97588E+03  8.98108E+03 -1.98843E+03  8.52482E+03  1.49068E+03  5.41482E+03  5.65637E+03
  1.50356E+03  6.37784E+03 -1.96003E+03  6.34841E+03 -3.40760E+03  3.26547E+03 -3.88470E+03 -1.40114E+02
 -2.27148E+03  2.28246E+00 -1.65191E+03 -1.18839E+03 -4.15221E+03 -6.67954E+02 -5.16039E+03 -1.13237E+03
 -5.28406E+03 -4.20002E+03 -6.82951E+02 -9.54286E+03  3.82583E+03 -8.14442E+03  6.58819E+03 -2.65111E+03
  8.03881E+03  1.42969E+03  3.71104E+03  6.60080E+03  1.95698E+02  6.57310E+03 -6.94541E+03  4.75803E+03
