 $NMID ID='MM_0lb_SNR200_20hz_g45_50.RAW', FMTDAT='(8E13.5)'
 TRAMP=1., VOLUME=1. $END
  3.09976E+05  2.23569E+01  3.36760E+05  2.50688E+05  8.44493E+04  3.36570E+05 -1.32857E+05  2.49214E+05
 -1.89277E+05  8.43878E+04 -1.10031E+05 -3.21854E+04  7.49087E+02 -4.97801E+04  5.34787E+04  2.48559E+02
  3.45570E+04  5.26293E+04 -1.67017E+04  7.50667E+04 -5.98524E+04  6.18535E+04 -8.25580E+04  3.07679E+04
 -7.92359E+04 -1.13030E+04 -5.61937E+04 -5.09000E+04 -1.42214E+04 -6.70577E+04  2.68410E+04 -4.46633E+04
  3.87734E+04  3.29986E+03  1.53329E+04  4.69734E+04 -3.44885E+04  4.56697E+04 -6.44326E+04 -9.08065E+02
 -5.15823E+04 -5.58574E+04 -6.42313E+03 -7.35772E+04  3.35260E+04 -5.22947E+04  4.54497E+04 -1.54539E+04
  4.12039E+04  1.10950E+04  3.01645E+04  2.36228E+04  1.53822E+04  2.78156E+04 -3.73556E+03  2.67287E+04
 -2.16129E+04  1.27530E+04 -1.98362E+04 -3.60216E+03  3.65975E+03 -7.23858E+03  2.14817E+04  1.10776E+04
  7.68265E+03  3.16711E+04 -3.05569E+04  3.30923E+04 -5.99423E+04  1.88159E+03 -5.59597E+04 -4.09296E+04
 -1.19923E+04 -5.91770E+04  3.72093E+04 -4.24663E+04  5.40604E+04 -1.81712E+03  3.17496E+04  3.05222E+04
 -6.65831E+03  3.25788E+04 -2.73808E+04  1.21604E+04 -2.68027E+04 -5.44682E+03 -1.37491E+04 -1.01869E+04
 -7.08515E+03 -1.08849E+04 -1.63340E+03 -1.67838E+04  6.25862E+03 -2.17092E+04  1.48310E+04 -1.39639E+04
  1.18334E+04  3.27751E+03 -6.56460E+03  1.30357E+04 -1.96637E+04 -1.45462E+03 -8.32854E+03 -2.91045E+04
  1.92558E+04 -3.97084E+04  4.47741E+04 -1.77328E+04  4.13893E+04  1.79800E+04  1.36196E+04  4.02337E+04
 -1.47243E+04  2.95074E+04 -2.22138E+04  1.25205E+03 -8.37122E+03 -2.49883E+04  2.03662E+04 -3.04430E+04
  3.63678E+04 -6.02103E+03  3.03812E+04  2.21783E+04  1.41773E+04  4.05578E+04 -7.60018E+03  4.30498E+04
 -2.78608E+04  2.93376E+04 -3.59532E+04  7.92243E+03 -3.67862E+04 -1.51109E+04 -2.08674E+04 -3.38480E+04
  6.66571E+03 -3.22144E+04  2.77317E+04 -1.28201E+04  2.59617E+04  1.09838E+04  2.80123E+03  1.82696E+04
 -1.32836E+04  7.01174E+03 -9.35958E+03 -7.95381E+03  6.00788E+03 -1.01774E+04  1.79387E+04  5.97128E+03
  1.15493E+04  2.16076E+04 -6.88304E+03  2.34488E+04 -2.16954E+04  8.30878E+03 -2.40199E+04 -6.18758E+03
 -1.59149E+04 -1.62731E+04 -4.32866E+03 -1.51557E+04  3.34958E+03 -1.21409E+04  1.13784E+04 -1.32993E+04
  1.87944E+04 -1.24071E+04  2.71245E+04  3.40604E+01  2.07120E+04  1.46029E+04  4.25580E+03  3.10739E+04
 -1.58297E+04  2.75964E+04 -2.47206E+04  8.89462E+03 -1.92715E+04 -9.69495E+03 -4.64657E+03 -1.47195E+04
  3.22390E+03 -4.44124E+03 -2.55037E+03  5.32730E+03 -1.19922E+04  5.12689E+03 -1.21900E+04 -3.49067E+03
 -9.02729E+03 -1.42038E+04  5.47660E+03 -1.86026E+04  1.16437E+04 -1.23606E+04  1.30524E+04 -1.09987E+03
  8.41387E+03  1.04505E+04 -7.76870E+02  1.50253E+04 -8.80708E+03  7.86810E+03 -1.38962E+04 -2.54078E+03
 -1.03298E+04 -1.24733E+04 -9.76815E+02 -1.70283E+04  7.64373E+03 -1.48391E+04  1.57296E+04 -6.80984E+03
  1.33034E+04  1.65953E+02  9.19864E+03  4.01211E+03  4.62253E+03  6.38512E+02  6.65469E+03 -1.34443E+03
  1.22724E+04  2.83910E+03  1.37397E+04  1.18947E+04  7.37786E+03  2.32725E+04 -3.63078E+03  2.48752E+04
 -1.46928E+04  1.80819E+04 -2.20754E+04  7.28472E+03 -2.31504E+04 -1.34273E+03 -1.89476E+04 -1.32394E+04
 -8.90912E+03 -1.80495E+04  6.05735E+03 -1.78547E+04  1.44325E+04 -1.00772E+04  1.33221E+04  1.84828E+03
  6.45525E+03  1.05676E+04 -6.00106E+03  1.00698E+04 -1.15498E+04  2.02804E+03 -9.97638E+03 -8.28964E+03
  3.93951E+02 -1.13389E+04  4.80818E+03 -8.28526E+03  6.30555E+03 -7.73433E+02  1.87961E+03  4.64633E+03
 -4.16104E+03  3.70537E+02 -2.24010E+03 -5.09747E+03  1.31325E+03 -9.23829E+03  7.18216E+03 -9.34961E+03
  1.21651E+04 -4.07906E+03  1.00063E+04  2.29299E+03  8.26451E+03  7.54033E+03  4.43157E+03  1.17629E+04
 -1.86893E+03  1.34768E+04 -7.80560E+03  7.72208E+03 -9.10084E+03  2.42131E+03 -8.05178E+03 -2.29236E+03
 -4.21485E+03 -2.79908E+03 -4.70738E+02  5.84810E+02 -2.63155E+03  2.37431E+03 -3.70319E+03  2.34604E+03
 -7.66695E+03 -2.65196E+02 -8.08514E+03 -6.12348E+03 -2.95605E+03 -1.00240E+04  3.12414E+03 -7.67788E+03
  7.04149E+03 -4.02991E+03  4.65144E+03  2.44797E+03  4.78694E+02  2.31208E+03 -3.51165E+03 -1.01658E+03
 -3.26182E+03 -4.44784E+03  5.10809E+01 -7.41522E+03  2.66065E+03 -5.84598E+03  9.11885E+03 -3.02679E+03
  1.12456E+04  1.29696E+02  8.60653E+03  5.40931E+03  1.50411E+03  7.16055E+03 -4.25644E+03  7.68573E+03
 -7.04861E+03  2.28048E+03 -3.62947E+03 -1.14644E+03  1.60953E+03 -2.08838E+03  5.44394E+03 -7.91210E+02
  4.07543E+03  2.45913E+03  1.33981E+03  5.07997E+03 -4.17718E+03  5.95289E+03 -6.83419E+03  2.63534E+03
 -4.01234E+03 -2.27838E+03 -1.29827E+01 -5.89457E+03  3.80677E+03 -2.57675E+03  3.22794E+03  6.13483E+02
 -7.49456E+02  2.46056E+03 -3.75723E+03  3.39450E+03 -3.70586E+03  1.73547E+03 -3.38041E+03 -3.16987E+02
 -2.29999E+03 -4.89598E+03  1.08876E+03 -5.67623E+03  5.11124E+03 -5.12536E+03  6.23682E+03  5.96919E+02
  3.59162E+03  4.36575E+03  1.29546E+03  6.36240E+03 -4.46264E+03  3.28722E+03 -4.76563E+03 -8.67513E+02
 -4.74829E+03 -6.06967E+03 -1.42635E+03 -4.65991E+03  2.67838E+03 -5.33081E+03  2.45753E+03 -2.93988E+03
  2.43726E+03  5.52295E+02  3.53419E+02  2.15230E+03  5.20508E+02 -1.29318E+03 -8.88264E+01 -1.77794E+03
  3.51150E+03 -1.00578E+03  4.68938E+03 -6.23418E+02  4.12175E+03  1.53521E+03  4.60650E+03  6.21244E+03
 -1.72057E+03  6.51465E+03 -6.09884E+03  6.05409E+03 -8.49452E+03  5.89849E+02 -6.52025E+03 -2.40285E+03
 -3.00101E+03 -4.84043E+03 -8.92595E+02 -4.87436E+03  1.97770E+03 -1.18846E+03  1.15427E+03 -2.23966E+03
  3.75837E+02 -5.97554E+02  2.42095E+03 -3.80843E+03  2.14698E+03 -7.36470E+02  3.36081E+03 -9.06909E+02
  4.10212E+03  1.36646E+03  1.00412E+02  1.73232E+03 -2.09835E+03  2.14862E+03 -3.72655E+03  2.08471E+03
 -4.39034E+03 -2.57107E+02 -8.49919E+02 -2.53444E+03 -4.41530E+02 -4.20421E+03  3.30307E+03 -4.35090E+03
  4.85071E+03 -1.89484E+03  6.31344E+03 -1.23558E+03  5.09979E+03  4.16663E+03  1.37319E+03  5.24183E+03
 -1.36051E+03  5.32393E+03 -3.10925E+03  1.98778E+03 -1.35219E+03 -8.37084E+02 -3.94904E+02 -6.09630E+02
 -1.19949E+03  7.47701E+02 -5.27684E+02  2.66016E+03 -2.70701E+03  8.19642E+02 -3.57965E+03 -4.28316E+02
 -1.34168E+03 -3.15096E+03  9.05490E+02 -3.30661E+03  1.49345E+03 -3.16647E+03  3.33811E+03 -6.04516E+02
  3.78210E+03  2.31273E+03  9.85281E+02  2.16524E+03 -3.27378E+02  4.26570E+03 -1.56826E+03  2.36902E+03
 -2.91358E+03  8.79159E+02 -2.39708E+03 -1.32110E+03 -2.30329E+02 -2.97045E+03  9.03047E+02 -1.32452E+03
  2.32571E+03 -1.68497E+03  1.56039E+03  1.18155E+03 -2.97833E+02  2.29052E+03  2.89099E+02  1.09074E+02
  1.50735E+03  7.79970E+02  1.45153E+02  1.38991E+03  6.26854E+02  1.20885E+03  1.72527E+03  4.92052E+01
 -1.33696E+03  1.93641E+03 -2.04856E+03  3.68781E+03 -1.25964E+03  1.31944E+03 -3.16853E+03  4.98279E+02
 -2.00451E+03 -2.74923E+03  1.14571E+03 -3.34623E+03  1.31481E+03 -1.69434E+03  1.92458E+03 -5.58743E+02
  2.33475E+03  8.48698E+02  9.35157E+02  1.41287E+03  2.42152E+02  7.53968E+02 -1.60995E+03 -6.49495E+02
 -9.56720E+02 -2.11261E+03  3.57691E+02 -8.12461E+02  1.60998E+03  7.95294E+02  1.25208E+03 -7.96517E+01
 -1.76472E+02  1.67118E+02  1.01707E+03 -1.07301E+03 -5.25919E+02  7.87632E+02  2.38669E+03 -6.65293E+02
  2.44429E+02 -7.51000E+02  1.95116E+03  1.24676E+03  5.88913E+02  2.83602E+03 -2.63718E+02  2.72475E+03
 -1.24397E+03  4.81970E+01 -1.45600E+02  6.76621E+01 -1.20351E+03 -5.80778E+02 -3.55244E+02 -4.67522E+02
 -6.85809E+01 -8.75649E+02  7.61465E+02 -1.04515E+03  2.25524E+03  2.57830E+03 -6.29410E+02  1.11151E+03
 -1.51097E+03 -4.23801E+02 -1.11270E+03 -2.66996E+02  2.01666E+02 -1.87632E+03 -8.29457E+01 -9.38033E+02
  7.21660E+02 -5.58228E+02  3.93636E+01  6.12162E+02  1.72455E+03 -3.99691E+02  1.80722E+00  9.33450E+02
 -6.09802E+02  5.31579E+02 -1.44433E+01 -8.21776E+02  7.46591E+02  2.48777E+02  9.44195E+02 -8.86578E+01
  5.25257E+02 -1.18022E+02  1.84797E+03  6.10811E+02  1.46290E+03  1.41678E+03  7.70670E+02  1.58277E+03
 -1.23229E+03  5.89095E+02 -4.51584E+02 -4.52114E+02 -6.66451E+02 -1.19211E+03  3.17103E+02  8.44629E+01
  9.25564E+02 -5.70117E+02  1.50801E+03 -1.70479E+02  3.41871E+02  1.87008E+03 -1.32214E+02  1.52633E+03
 -1.33754E+03  1.33272E+03 -6.47063E+02  1.21817E+03  4.43277E+02  1.37864E+03 -9.75109E+02  3.41298E+02
 -8.03727E+02  4.01323E+02 -1.88739E+03  6.53589E+02 -1.69269E+03  6.56427E+02 -2.61993E+03 -7.61318E+02
 -4.91740E+02 -1.24854E+03 -1.74329E+02 -1.97335E+03  4.60972E+02 -1.76903E+03  1.78273E+03 -4.37748E+02
  1.76774E+03 -4.94513E+02  1.15062E+03  1.60383E+03 -1.67764E+02  5.16441E+02  6.32906E+02  1.49371E+03
 -8.54549E+02  3.08823E+02  2.61230E+01  2.31573E+02 -1.01692E+02  4.86881E+01  1.50028E+02 -1.49386E+02
 -1.61880E+03  2.96913E+02 -2.71811E+02 -2.99528E+02 -4.01208E+02 -7.01758E+02 -1.92382E+02 -4.87898E+02
  2.10862E+03  3.36865E+01  1.19295E+02  1.92665E+02  1.78480E+02 -8.88885E+01 -4.86118E+02  5.80976E+02
 -1.85262E+03  1.62597E+03 -5.81145E+02  1.28251E+03 -1.39002E+03 -6.22738E+02 -1.35997E+03 -1.99388E+03
 -2.20552E+02 -1.03721E+03  4.75178E+02  1.80296E+01  3.45156E+02  4.48143E+02  4.41165E+02 -3.95081E+02
  1.75974E+03 -8.15848E+02  9.43439E+02  4.96977E+02 -1.54463E+02 -1.03699E+03 -2.97037E+02 -5.22744E+02
  8.40453E-01  1.32606E+02  1.13783E+02  7.67811E+02 -3.80208E+02 -4.67886E+02  5.81876E+02 -5.90381E+02
 -1.12695E+00  3.84340E+02 -1.70163E+03  1.06299E+03 -4.47108E+01 -3.23391E+02  2.89744E+02 -6.55073E+02
  5.97782E+01 -8.03425E+02  1.07163E+03  2.09775E+01  3.61519E+02 -4.04948E+02  3.97869E+02  2.08764E+02
  3.87163E+02  3.61797E+02 -6.33748E+02  2.79952E+02  5.03254E+02  1.51785E+02 -6.26487E+02 -1.35155E+03
  3.85450E+02  3.39121E+02 -5.48709E+02 -8.50821E+02 -1.06175E+03 -8.43347E+02 -7.11137E+02  3.50281E+02
 -1.41020E+03  6.73560E+01  7.83589E+02 -4.61470E+02  4.28712E+02 -1.09324E+03  1.05754E+03 -4.07337E+02
  1.48747E+02  1.43420E+02  2.56947E+02 -2.30749E+02  1.78525E+02  4.55145E+02 -7.94105E+02  5.82839E+02
