 $NMID ID='MM_0lb_SNR200_15hz_g50_96.RAW', FMTDAT='(8E13.5)'
 TRAMP=1., VOLUME=1. $END
  3.09733E+05 -4.92702E+01  3.38973E+05  2.49936E+05  8.37600E+04  3.36860E+05 -1.32037E+05  2.50603E+05
 -1.90250E+05  8.31664E+04 -1.12285E+05 -3.18322E+04  1.16294E+02 -5.08121E+04  5.43030E+04  6.77941E+02
  3.74897E+04  5.28614E+04 -1.61423E+04  7.45533E+04 -6.06610E+04  6.32606E+04 -8.45778E+04  3.18964E+04
 -8.12671E+04 -1.14299E+04 -5.71361E+04 -5.08866E+04 -1.70663E+04 -6.98570E+04  2.86957E+04 -4.59716E+04
  3.96780E+04  3.94971E+03  1.53177E+04  4.75575E+04 -3.35462E+04  4.72031E+04 -6.74446E+04 -8.06149E+02
 -5.18382E+04 -5.70972E+04 -5.85836E+03 -7.64620E+04  3.21435E+04 -5.48256E+04  4.73561E+04 -1.64583E+04
  4.26885E+04  1.14561E+04  3.23920E+04  2.55464E+04  1.58243E+04  3.03541E+04 -4.37138E+03  2.71179E+04
 -2.10982E+04  1.26393E+04 -1.92600E+04 -6.51291E+03  5.34923E+03 -7.03243E+03  2.18201E+04  1.20413E+04
  8.52334E+03  3.34512E+04 -3.05964E+04  3.48055E+04 -6.29085E+04  2.14395E+03 -5.71239E+04 -4.23636E+04
 -1.39472E+04 -6.32734E+04  3.99604E+04 -4.51136E+04  5.80941E+04 -2.77219E+03  3.26460E+04  3.07374E+04
 -6.39663E+03  3.58374E+04 -2.98325E+04  1.61323E+04 -3.08200E+04 -5.05376E+03 -1.63701E+04 -1.09278E+04
 -7.78250E+03 -1.36693E+04 -1.57578E+03 -1.75933E+04  7.20040E+03 -2.28979E+04  1.49727E+04 -1.36250E+04
  1.12720E+04  4.90754E+03 -7.67362E+03  1.27637E+04 -2.05601E+04 -3.89690E+03 -8.44637E+03 -3.24319E+04
  2.07109E+04 -4.29546E+04  4.75710E+04 -1.92711E+04  4.45326E+04  1.83376E+04  1.55982E+04  4.44672E+04
 -1.64191E+04  3.30505E+04 -2.63538E+04  1.00666E+03 -8.76686E+03 -2.72906E+04  2.12692E+04 -3.36122E+04
  3.98988E+04 -8.21140E+03  3.66648E+04  2.43948E+04  1.79499E+04  4.69310E+04 -8.06890E+03  4.79401E+04
 -3.11355E+04  3.29047E+04 -4.20376E+04  1.00411E+04 -4.12150E+04 -1.53634E+04 -2.41871E+04 -3.76541E+04
  7.31577E+03 -3.72071E+04  3.04984E+04 -1.42422E+04  2.93605E+04  1.02007E+04  3.07793E+03  1.94670E+04
 -1.39433E+04  8.40864E+03 -8.76915E+03 -7.33478E+03  5.75957E+03 -1.02927E+04  1.80946E+04  7.21399E+03
  1.31433E+04  2.20980E+04 -6.11582E+03  2.56126E+04 -2.25177E+04  1.08698E+04 -2.87287E+04 -6.04742E+03
 -1.89912E+04 -1.82061E+04 -7.27202E+03 -1.94451E+04  4.92786E+03 -1.87435E+04  1.50533E+04 -1.94499E+04
  2.51021E+04 -1.23658E+04  3.26595E+04  3.33206E+03  2.36875E+04  1.98274E+04  4.00930E+03  3.60584E+04
 -1.72933E+04  3.04689E+04 -2.74223E+04  8.60489E+03 -1.98902E+04 -1.05027E+04 -5.03985E+03 -1.28333E+04
  5.90424E+02 -3.21728E+03 -5.23038E+03  7.52040E+03 -1.51851E+04  4.64828E+03 -1.55396E+04 -6.59490E+03
 -1.06472E+04 -1.84936E+04  5.44236E+03 -2.23711E+04  1.52360E+04 -1.54253E+04  1.74763E+04 -1.91804E+03
  1.09326E+04  1.19258E+04 -8.86430E+02  1.82335E+04 -1.26252E+04  9.95622E+03 -1.81348E+04 -4.41820E+03
 -1.32687E+04 -1.52659E+04 -1.79838E+03 -2.28313E+04  9.91058E+03 -1.83723E+04  1.87371E+04 -9.85715E+03
  1.70501E+04 -1.86803E+02  1.29179E+04  4.70463E+03  7.22352E+03 -1.45925E+02  1.05333E+04 -9.36627E+02
  1.69279E+04  3.14369E+03  1.92705E+04  1.39896E+04  1.19462E+04  2.89160E+04 -2.54074E+03  3.27956E+04
 -1.91354E+04  2.52770E+04 -2.97433E+04  1.27620E+04 -3.18837E+04 -2.11959E+03 -2.62382E+04 -1.76765E+04
 -1.26994E+04 -2.52812E+04  9.50969E+03 -2.39687E+04  1.98822E+04 -1.40312E+04  1.95942E+04  5.91586E+03
  7.36748E+03  1.45708E+04 -7.92331E+03  1.22465E+04 -1.66186E+04  3.35576E+03 -1.25587E+04 -9.48519E+03
 -5.83120E+02 -1.59495E+04  7.55061E+03 -1.10590E+04  1.10903E+04 -1.81102E+03  1.68109E+03  5.39465E+03
 -6.37602E+03  2.86586E+03 -6.25033E+03 -5.84459E+03  2.76519E+02 -1.31016E+04  8.85202E+03 -1.35773E+04
  1.57533E+04 -6.76662E+03  1.72679E+04  2.91003E+03  1.50446E+04  1.14174E+04  6.42882E+03  2.01661E+04
 -3.26463E+03  2.13591E+04 -1.22376E+04  1.28363E+04 -1.49367E+04  2.19333E+03 -1.07151E+04 -3.22838E+03
 -5.34002E+03 -4.25638E+03 -2.65628E+02  1.19571E+03 -2.88609E+03  1.76783E+03 -4.75522E+03  3.99601E+03
 -9.37616E+03 -4.11894E+02 -1.03708E+04 -9.07656E+03 -4.39660E+03 -1.29702E+04  4.29561E+03 -1.07652E+04
  8.63284E+03 -4.66391E+03  6.23097E+03  3.50812E+03  1.52771E+03  4.87731E+03 -6.16722E+03 -4.92234E+01
 -5.84927E+03 -6.80491E+03 -1.37340E+03 -9.84040E+03  4.91567E+03 -1.09190E+04  1.30969E+04 -5.94922E+03
  1.51355E+04  1.30015E+03  1.12501E+04  9.47768E+03  2.19898E+03  1.18150E+04 -7.03760E+03  1.04697E+04
 -8.26413E+03  3.32283E+03 -4.20933E+03 -2.97028E+03  1.51850E+03 -3.35596E+03  5.41614E+03 -7.17605E+02
  5.79894E+03  4.64033E+03  1.28305E+03  8.70973E+03 -5.20328E+03  8.10191E+03 -9.28259E+03  1.33071E+03
 -6.70573E+03 -5.05402E+03 -6.37017E+02 -9.28666E+03  5.71072E+03 -4.42868E+03  6.03059E+03  2.06214E+03
  1.59134E+03  5.37267E+03 -6.18551E+03  6.17959E+03 -7.13328E+03  3.81440E+03 -6.95121E+03 -2.13004E+03
 -3.47267E+03 -1.01686E+04  1.80888E+03 -9.97949E+03  8.93752E+03 -6.46629E+03  9.40143E+03  1.31588E+03
  5.29308E+03  8.40085E+03 -3.00887E+02  9.12193E+03 -7.42571E+03  5.43591E+03 -6.82884E+03 -5.43891E+02
 -6.93805E+03 -6.96975E+03 -1.60102E+03 -6.65473E+03  4.63607E+03 -6.95860E+03  4.28362E+03 -2.34303E+03
  3.57564E+03  9.38473E+02  6.41803E+02  1.94310E+03 -2.70276E+02 -6.58149E+02  1.03975E+03 -4.73883E+03
  6.50752E+03 -2.87155E+03  7.60725E+03  2.75160E+03  8.93366E+03  5.39987E+03  6.66954E+03  1.17914E+04
 -3.37238E+03  1.24827E+04 -1.13671E+04  1.02924E+04 -1.46714E+04  1.65162E+03 -1.13746E+04 -4.38568E+03
 -5.77080E+03 -9.57288E+03 -7.45469E+02 -7.28333E+03  2.55809E+03 -3.91248E+03  1.61598E+03 -1.87155E+03
  2.57065E+03 -1.32286E+03  2.14279E+03 -1.52793E+03  3.94765E+03 -2.29335E+03  4.83128E+03 -6.80438E+02
  6.00050E+03  7.90504E+02  2.50871E+03  4.72163E+03 -1.18195E+03  5.46315E+03 -6.33928E+03  5.19963E+03
 -7.69359E+03 -5.53785E+02 -3.64971E+03 -4.74733E+03 -1.27152E+03 -8.27213E+03  4.65526E+03 -8.40062E+03
  6.79282E+03 -4.64854E+03  1.09337E+04  1.01993E+02  7.43469E+03  6.94174E+03  2.02714E+03  9.17365E+03
 -4.06292E+03  9.20662E+03 -6.34800E+03  3.31314E+03 -2.90338E+03 -8.31651E+02 -1.87142E+03 -1.44333E+03
 -1.60287E+03  1.75776E+03 -8.81920E+02  2.33531E+03 -2.73069E+03  2.03469E+03 -6.25579E+03 -1.30298E+03
 -3.29603E+03 -5.00774E+03  1.56456E+03 -7.05015E+03  3.83439E+03 -6.47992E+03  7.98464E+03 -2.37543E+03
  6.75536E+03  3.56598E+03  3.06934E+03  5.03882E+03 -1.81225E+03  6.85232E+03 -4.59767E+03  5.53524E+03
 -7.13451E+03  2.09375E+03 -4.16438E+03 -3.69151E+03 -3.64213E+02 -5.49236E+03  2.14499E+03 -4.33226E+03
  3.37150E+03 -1.12496E+03  2.46196E+03  1.65327E+03  7.33640E+02  2.55187E+03  5.20776E+02  8.86546E+01
  2.59590E+03  7.60938E+02  6.55649E+02  1.27899E+03  2.82126E+03  3.00347E+03  1.24260E+03  3.77623E+03
 -8.13420E+02  5.94850E+03 -4.58066E+03  5.89593E+03 -6.09346E+03  1.44089E+03 -7.14217E+03 -1.67840E+03
 -3.83961E+03 -6.93085E+03  1.25893E+03 -7.89099E+03  3.82161E+03 -5.43595E+03  6.37815E+03 -3.10979E+02
  3.84117E+03  2.76469E+03  1.02987E+03  3.83104E+03 -6.39222E+02  2.88843E+03 -1.63005E+03  1.03328E+02
 -1.54002E+03 -2.80617E+03  3.45863E+03 -3.17004E+03  2.00901E+03 -8.67903E+02  2.68282E+03  3.65846E+02
  1.39989E+03 -9.16715E+02  3.98135E+02 -3.79472E+02 -1.67597E+03  1.37217E+03  1.99137E+03 -3.18508E+02
  6.90154E+02 -9.00482E+01  2.26346E+03  9.19285E+02  1.84607E+03  3.85393E+03 -3.55204E+02  4.46295E+03
 -1.81027E+03  1.58411E+03 -4.46999E+03 -3.59150E+02 -1.66735E+03 -2.15982E+03 -1.26813E+03 -1.42705E+03
  1.76839E+03 -3.28594E+03  1.33989E+03 -1.02002E+03  7.77417E+02  1.61521E+03 -3.67923E+02  2.13287E+03
 -2.18191E+03  8.08207E+02 -2.42571E+03 -1.70943E+03 -1.21008E+03 -3.71074E+03  4.49960E+02 -3.36287E+03
  1.44002E+03 -1.76247E+03  2.17877E+03  1.25106E+03  2.48216E+03  2.99801E+02 -1.08723E+02  1.38115E+03
  2.33331E+02  9.01085E+02 -1.16646E+03 -4.50329E+02  8.50554E+02 -2.99198E+03  2.81081E+03 -1.89399E+03
  2.62768E+03 -9.85066E+02  4.18742E+03  1.82575E+03  1.63621E+03  4.63095E+03  7.55010E+02  4.07617E+03
 -4.15330E+03  1.54083E+03 -3.26249E+03  9.00543E+02 -1.54406E+03 -2.60952E+03  1.82741E+02 -2.26552E+03
  3.27338E+03 -1.01045E+03  1.12521E+03  1.47774E+03  1.25717E+03  2.45208E+03  8.06022E+01  1.58623E+03
 -2.69751E+01  1.44095E+03 -1.68878E+03  5.99719E+01 -2.52777E+02  3.09364E+02 -8.34059E+02  4.20890E+02
 -8.24183E+02  2.38772E+03 -3.02073E+03  1.99393E+03 -4.93016E+03  1.87626E+02 -4.20829E+03 -1.65522E+03
 -2.36752E+03 -4.34523E+03  1.56800E+03 -5.06666E+03  1.99830E+03 -3.58443E+03  4.97639E+03 -1.67845E+03
  4.91282E+03  8.42330E+02  2.84010E+03  2.09651E+03  9.06383E+02  4.09893E+03 -1.84084E+03  1.69540E+03
 -1.92981E+03  1.84401E+03 -2.03405E+03 -4.88581E+02 -3.33214E+02  7.12301E+01 -1.98658E+03 -5.42322E+02
 -1.61345E+03 -1.69701E+02 -6.00401E+02  4.02117E+00 -7.68678E+02  4.37963E+02 -6.17204E+02 -1.54814E+03
  1.92373E+03 -1.38977E+03  1.43245E+03  3.31995E+02  1.79524E+03  1.90424E+03  6.79173E+02  1.96941E+03
 -1.41374E+03  3.93054E+03 -3.54587E+03  3.31429E+03 -3.70818E+03  6.34511E+02 -2.67675E+03 -1.88278E+03
 -1.22832E+03 -2.87130E+03  1.15911E+03 -3.39232E+03  1.20297E+03 -2.89107E+03  2.51215E+03  7.22233E+02
  6.97308E+02  8.62666E+02 -6.82725E+02  1.90655E+03 -1.47358E+03 -5.96699E+02 -1.02113E+03 -3.18248E+01
  1.14213E+03 -4.24981E+02  1.83352E+03 -3.03164E+00 -1.12740E+02  1.31138E+03  6.26467E+02 -9.51688E+01
 -1.99522E+03  2.05840E+03 -9.82609E+02  9.95810E+02 -2.26626E+03 -1.58263E+03 -9.32932E+00 -2.85651E+03
  9.01344E+02 -2.49118E+03  1.50869E+03  8.35900E+02  2.44812E+03 -1.11937E+03  6.95971E+02  1.23416E+03
  2.24560E+02  7.63690E+02 -1.15661E+03  1.51851E+03 -1.99121E+03  8.74333E+02 -1.29331E+03  6.79280E+02
 -3.41020E+02 -1.27947E+03 -1.28725E+03 -1.13825E+02 -8.48905E+01  7.08566E+02 -1.83591E+03 -1.11805E+03
 -7.49677E+02 -1.00339E+02 -4.23780E+02 -1.21963E+03  9.46740E+02 -3.92038E+03  1.34821E+03 -1.69208E+03
  1.31867E+03 -3.66406E+02  4.62313E+02  1.29719E+03  1.31329E+03  1.11854E+03 -6.44337E+02  1.98979E+03
