 $NMID ID='MM_0lb_SNR200_11hz_g60_88.RAW', FMTDAT='(8E13.5)'
 TRAMP=1., VOLUME=1. $END
  3.09661E+05  1.88932E+03  3.36802E+05  2.51407E+05  8.57272E+04  3.39099E+05 -1.33503E+05  2.51911E+05
 -1.89364E+05  8.33350E+04 -1.13257E+05 -3.20732E+04  7.99448E+02 -5.17547E+04  5.46675E+04 -3.61466E+02
  3.66989E+04  5.32420E+04 -1.65918E+04  7.50615E+04 -6.15753E+04  6.50206E+04 -8.44351E+04  3.34642E+04
 -8.22560E+04 -1.04948E+04 -5.78943E+04 -5.22962E+04 -1.46013E+04 -7.06988E+04  2.73833E+04 -4.61279E+04
  4.05293E+04  4.71983E+03  1.71551E+04  4.86662E+04 -3.48950E+04  4.87012E+04 -6.86152E+04  9.24024E+02
 -5.49237E+04 -5.75600E+04 -6.83908E+03 -7.81877E+04  3.55032E+04 -5.69142E+04  5.06027E+04 -1.84459E+04
  4.44576E+04  1.27137E+04  3.23714E+04  2.58089E+04  1.65871E+04  2.99581E+04 -7.53370E+03  2.73368E+04
 -2.21619E+04  1.18577E+04 -1.81589E+04 -6.58520E+03  7.68985E+03 -8.64341E+03  2.28813E+04  1.23861E+04
  7.03593E+03  3.75109E+04 -3.35715E+04  3.70497E+04 -6.50369E+04  1.37775E+03 -5.81858E+04 -4.30734E+04
 -1.35532E+04 -6.55343E+04  4.14733E+04 -4.73772E+04  6.12973E+04 -1.46584E+03  3.61296E+04  3.46267E+04
 -5.38534E+03  4.03398E+04 -3.23279E+04  1.76609E+04 -3.35429E+04 -2.52034E+03 -1.93339E+04 -1.46335E+04
 -9.90779E+03 -1.47188E+04 -3.67622E+02 -1.97038E+04  8.06902E+03 -2.32654E+04  1.55731E+04 -1.39376E+04
  1.00832E+04  5.95789E+03 -9.45703E+03  1.18320E+04 -2.28517E+04 -6.13969E+03 -8.71017E+03 -3.65516E+04
  2.39890E+04 -4.71275E+04  5.25724E+04 -2.09334E+04  4.84957E+04  2.06210E+04  1.79126E+04  4.76593E+04
 -1.56504E+04  3.69240E+04 -2.80961E+04  4.51420E+03 -1.25700E+04 -2.99065E+04  1.97255E+04 -3.72816E+04
  4.37538E+04 -1.09660E+04  3.96366E+04  2.43797E+04  2.18406E+04  5.10439E+04 -8.83751E+03  5.52680E+04
 -3.61430E+04  3.80644E+04 -4.80617E+04  9.97506E+03 -4.62438E+04 -1.75249E+04 -2.49485E+04 -4.08966E+04
  6.82606E+03 -4.12932E+04  3.30211E+04 -1.61861E+04  3.20439E+04  1.16649E+04  3.87123E+03  2.09514E+04
 -1.23735E+04  1.01819E+04 -1.15499E+04 -6.67159E+03  5.44387E+03 -1.23785E+04  2.01820E+04  6.88460E+03
  1.68972E+04  2.17848E+04 -6.44821E+03  2.68657E+04 -2.45677E+04  1.36011E+04 -2.93286E+04 -2.17319E+03
 -2.55441E+04 -1.90459E+04 -1.23640E+04 -2.43520E+04  3.97938E+03 -2.46300E+04  2.03868E+04 -2.14706E+04
  3.15053E+04 -1.44302E+04  3.73649E+04  4.82967E+03  2.61446E+04  2.39708E+04  4.74160E+03  4.10138E+04
 -1.93359E+04  3.28168E+04 -2.91992E+04  1.21265E+04 -2.14304E+04 -1.05906E+04 -5.20915E+03 -1.17764E+04
  6.87824E+02 -3.18877E+02 -7.79222E+03  7.80926E+03 -1.87677E+04  5.74641E+03 -1.95847E+04 -8.90688E+03
 -1.14944E+04 -2.17960E+04  5.92418E+03 -2.71451E+04  1.85650E+04 -1.98812E+04  2.16753E+04 -1.39901E+03
  1.39798E+04  1.59998E+04 -1.87206E+03  2.25898E+04 -1.49003E+04  1.31098E+04 -2.24997E+04 -4.61862E+03
 -1.62462E+04 -2.20037E+04  1.16286E+02 -2.69031E+04  1.24097E+04 -2.17807E+04  2.31218E+04 -1.07543E+04
  2.13931E+04 -2.11301E+02  1.53706E+04  5.03440E+03  8.87848E+03  1.11905E+03  1.13896E+04 -2.76918E+03
  2.12347E+04  1.98851E+03  2.44686E+04  1.72997E+04  1.75607E+04  3.42035E+04 -2.17783E+03  4.28233E+04
 -2.38436E+04  3.56990E+04 -3.96216E+04  1.73756E+04 -4.28785E+04 -2.73359E+03 -3.43562E+04 -2.55225E+04
 -1.43651E+04 -3.69555E+04  1.23083E+04 -3.20112E+04  2.50496E+04 -1.53623E+04  2.26146E+04  8.76849E+03
  8.16250E+03  1.72701E+04 -1.08416E+04  1.62590E+04 -1.99208E+04  1.84498E+03 -1.56436E+04 -1.35623E+04
 -6.98101E+01 -1.73627E+04  9.58003E+03 -1.34519E+04  1.30429E+04 -9.34911E+02  3.56810E+03  8.11412E+03
 -9.12181E+03  4.25670E+03 -7.93225E+03 -6.65019E+03 -1.07355E+03 -1.68476E+04  1.22099E+04 -1.98200E+04
  2.23518E+04 -1.12526E+04  2.47049E+04  3.04189E+03  2.08032E+04  1.60737E+04  9.94704E+03  2.66544E+04
 -4.76779E+03  3.03860E+04 -1.87820E+04  1.76443E+04 -2.14305E+04  5.93473E+03 -1.46079E+04 -5.24239E+03
 -5.79925E+03 -6.89661E+03 -4.69364E+02  9.59893E+02 -2.46717E+03  2.74545E+03 -7.16564E+03  5.30263E+03
 -1.43654E+04 -1.37094E+03 -1.50838E+04 -1.09434E+04 -6.11606E+03 -1.88776E+04  6.56438E+03 -1.64047E+04
  1.27528E+04 -6.92648E+03  8.36386E+03  4.48019E+03 -3.83907E+02  4.36850E+03 -7.60753E+03 -5.55436E+02
 -6.94524E+03 -1.01469E+04 -1.65183E+03 -1.50797E+04  8.04381E+03 -1.54994E+04  1.75152E+04 -7.91970E+03
  2.07972E+04  9.93042E+02  1.67008E+04  1.41060E+04  2.24295E+03  1.64311E+04 -9.36939E+03  1.33816E+04
 -1.20450E+04  5.56975E+03 -6.20110E+03 -3.10097E+03  2.22901E+03 -4.27306E+03  7.32107E+03 -1.17334E+03
  7.08203E+03  7.13080E+03  2.18676E+03  1.22112E+04 -8.02783E+03  1.17938E+04 -1.39041E+04  1.80310E+03
 -8.99578E+03 -8.70843E+03  1.00467E+02 -1.28217E+04  8.98397E+03 -5.13100E+03  6.86300E+03  3.49830E+03
  1.87163E+03  7.86821E+03 -9.00329E+03  1.12736E+04 -1.16417E+04  3.71927E+03 -1.34103E+04 -5.78939E+03
 -5.93479E+03 -1.36521E+04  3.20757E+03 -1.56572E+04  1.30875E+04 -1.06752E+04  1.52180E+04  2.57321E+03
  8.98149E+03  1.31658E+04 -9.75138E+02  1.53758E+04 -1.07167E+04  7.27620E+03 -1.18787E+04  4.61125E+00
 -9.92021E+03 -1.08633E+04 -1.16094E+03 -1.04925E+04  5.92112E+03 -9.61007E+03  6.68251E+03 -3.79610E+03
  4.11682E+03  2.43923E+03 -7.24587E+02  1.20843E+03 -2.70444E+02 -2.65370E+03  1.62233E+03 -7.70926E+03
  9.65907E+03 -3.49158E+03  1.41753E+04  1.82992E+03  1.45365E+04  8.89030E+03  9.12902E+03  1.71091E+04
 -5.33445E+03  2.29243E+04 -1.70875E+04  1.48295E+04 -2.28565E+04  3.41139E+03 -1.79273E+04 -6.71462E+03
 -9.68394E+03 -1.49728E+04  1.18424E+02 -1.23962E+04  5.90411E+03 -7.18667E+03  4.36913E+03 -4.24701E+03
  4.85635E+03 -1.96318E+03  3.66390E+03 -3.87619E+03  4.99342E+03 -3.72618E+03  6.17278E+03 -8.41303E+02
  9.15550E+03  3.00466E+03  4.44475E+03  8.36678E+03 -3.12482E+03  9.04338E+03 -1.15519E+04  7.34016E+03
 -1.36080E+04 -2.43552E+03 -8.70235E+03 -9.61579E+03 -8.54237E+02 -1.39148E+04  7.86024E+03 -1.52984E+04
  1.37792E+04 -8.16063E+03  1.76229E+04  1.29747E+03  1.30645E+04  1.19788E+04  2.65859E+03  1.55273E+04
 -6.63022E+03  1.25863E+04 -9.27290E+03  4.83278E+03 -5.85436E+03 -1.71558E+03 -2.65310E+03 -2.08225E+03
 -1.72351E+03 -3.00907E+02 -2.31764E+03  3.86480E+03 -5.64157E+03  1.84875E+03 -8.94251E+03 -9.72823E+02
 -7.12971E+03 -9.88766E+03  1.43514E+03 -1.24814E+04  8.00191E+03 -1.12871E+04  1.31800E+04 -3.80558E+03
  1.26373E+04  5.72454E+03  6.32504E+03  1.12566E+04 -3.81681E+03  1.38646E+04 -8.66564E+03  7.81762E+03
 -1.25611E+04  4.95198E+02 -1.03956E+04 -6.25177E+03 -1.25840E+03 -1.04303E+04  6.56285E+03 -9.42452E+03
  8.36543E+03 -3.28702E+03  5.59720E+03  1.66860E+03  1.33673E+03  2.74193E+03  1.08040E+03  2.45735E+03
  2.66551E+03  2.10882E+03  3.36365E+03 -3.11809E+02  1.46018E+03  4.15724E+03  2.73395E+03  6.29291E+03
 -2.43758E+03  1.01383E+04 -8.00663E+03  9.92784E+03 -1.20280E+04  2.68586E+03 -1.33881E+04 -7.33439E+03
 -6.94279E+03 -1.25212E+04  1.85084E+03 -1.52889E+04  6.13493E+03 -7.60645E+03  1.03468E+04 -3.81354E+03
  7.68011E+03  4.75286E+03 -1.10281E+03  7.87935E+03 -2.80144E+03  5.14692E+03 -3.60725E+03 -1.72381E+03
 -3.35427E+03 -4.77106E+03  3.29458E+03 -4.65151E+03  5.30395E+03 -3.62474E+03  4.16859E+03  9.88194E+02
  2.34397E+03  1.84262E+03  2.64395E+03  2.73334E+03  3.21873E+02  2.75245E+03  9.79472E+02 -1.27189E+03
  1.28095E+03 -1.09865E+03  6.86271E+03  1.88068E+03  2.73055E+03  8.05461E+03 -1.13981E+03  8.39290E+03
 -5.66099E+03  5.95065E+03 -8.15357E+03 -1.31613E+03 -6.62363E+03 -3.39829E+03 -2.87476E+03 -4.74676E+03
  1.23850E+03 -5.58801E+03  3.01751E+03 -1.87643E+03  3.11078E+03  2.02362E+03 -8.93378E+02  3.55284E+03
 -5.53972E+03  3.29014E+03 -6.58891E+03 -3.97310E+03 -2.06857E+03 -6.68010E+03  1.26255E+03 -5.58607E+03
  5.47275E+03 -3.02727E+03  4.72042E+03  1.83274E+02  5.28461E+03  7.97724E+02  1.42484E+03  2.16940E+03
 -3.78294E+03 -1.23946E+02 -3.41737E+03 -2.42903E+03  1.92316E+03 -5.80406E+03  5.45430E+03 -3.88061E+03
  8.27471E+03  3.70139E+02  6.97248E+03  4.70578E+03  2.15028E+03  7.48696E+03 -3.33985E+03  7.53147E+03
 -5.57051E+03  2.19653E+03 -6.67999E+03 -1.15185E+03 -3.34763E+03 -5.69583E+03  1.61753E+03 -5.75306E+03
  5.68752E+03 -1.98079E+03  5.21747E+03  2.00309E+03  6.51472E+02  4.97465E+03 -8.37755E+01  4.51560E+03
 -2.65128E+03  3.27172E+03 -2.46385E+03  1.14446E+03 -1.26718E+03  1.01007E+03 -2.01020E+03  3.00471E+03
 -2.73850E+03  3.42988E+03 -5.31221E+03  3.28718E+03 -7.11134E+03  5.19487E+02 -9.51460E+03 -3.32424E+03
 -4.28219E+03 -1.03470E+04  2.27150E+03 -1.11226E+04  8.07561E+03 -8.65250E+03  1.08943E+04 -4.30066E+03
  1.00467E+04  9.44859E+02  5.81885E+03  6.55570E+03  1.86619E+02  7.92177E+03 -3.28807E+03  5.67899E+03
 -4.48363E+03  3.19592E+03 -1.79839E+03 -1.70716E+03 -1.47843E+03 -1.13905E+03 -1.34295E+03  5.08856E+02
 -1.40349E+03 -5.00288E+00 -2.66730E+03 -1.29912E+03 -1.70106E+02 -1.74626E+03  2.05135E+03 -3.12102E+03
  2.69993E+03 -2.29006E+03  5.45411E+03 -9.15453E+02  5.37123E+03  5.06970E+03  4.80916E+02  8.01760E+03
 -6.14764E+03  8.29473E+03 -9.39483E+03  6.74931E+03 -8.60145E+03  3.49256E+02 -7.50506E+03 -4.71748E+03
 -3.42800E+03 -6.88883E+03  1.83881E+03 -8.23649E+03  6.20059E+03 -4.56978E+03  6.15247E+03  2.97475E+02
  3.03627E+03  4.01848E+03  5.09943E+02  3.60784E+03 -1.71122E+03 -7.35282E+02  1.25920E+02 -2.05338E+03
  3.30443E+03 -1.23003E+03  1.98626E+03 -2.61302E+02  1.46747E+03  3.40153E+03 -3.10540E+02  4.01449E+03
 -2.18660E+03  3.05689E+03 -3.26036E+03  1.29256E+03 -5.47685E+03 -4.43474E+03  3.63595E+02 -6.49615E+03
  3.44749E+03 -6.62373E+03  6.20450E+03 -1.97326E+03  4.91404E+03  2.11999E+02  3.23187E+03  7.27927E+03
  1.47811E+02  4.38566E+03 -2.52720E+03  4.50480E+03 -2.53172E+03  1.93677E+03 -1.13043E+03  1.56937E+02
 -6.87012E+02 -4.02627E+02 -1.54188E+03  9.98396E+02 -2.56604E+03  7.03547E+02 -3.94596E+03 -7.82116E+02
 -4.84887E+03 -2.30896E+03 -1.57468E+03 -4.54136E+03  2.30787E+03 -5.83176E+03  4.69716E+03 -2.39527E+03
  5.19942E+03  4.16087E+02  2.82074E+03  2.53210E+03 -8.29866E+02  3.66429E+03 -4.85127E+03  1.76082E+03
