 $NMID ID='MM_0lb_SNR200_10hz_g50_51.RAW', FMTDAT='(8E13.5)'
 TRAMP=1., VOLUME=1. $END
  3.08931E+05  9.79875E+02  3.37922E+05  2.50973E+05  8.62785E+04  3.39021E+05 -1.33383E+05  2.52774E+05
 -1.91787E+05  8.24999E+04 -1.12060E+05 -3.16212E+04  2.39573E+02 -4.99452E+04  5.50021E+04  1.00845E+03
  3.71047E+04  5.39178E+04 -1.66998E+04  7.54425E+04 -6.16441E+04  6.52115E+04 -8.54546E+04  3.27684E+04
 -8.15428E+04 -1.10271E+04 -5.83713E+04 -5.14643E+04 -1.52168E+04 -7.07227E+04  2.76411E+04 -4.71176E+04
  4.07873E+04  3.84636E+03  1.57462E+04  4.82845E+04 -3.43211E+04  4.73167E+04 -6.89592E+04  1.68305E+03
 -5.50182E+04 -5.83047E+04 -7.72282E+03 -7.87464E+04  3.54702E+04 -5.61270E+04  4.90231E+04 -1.77809E+04
  4.28423E+04  1.20155E+04  3.29056E+04  2.63076E+04  1.61681E+04  3.08098E+04 -6.03391E+03  2.77181E+04
 -2.30487E+04  1.26130E+04 -1.89164E+04 -4.31991E+03  5.38226E+03 -7.37284E+03  2.33069E+04  1.39510E+04
  6.70362E+03  3.77399E+04 -3.25896E+04  3.66149E+04 -6.60281E+04  2.39824E+03 -5.84928E+04 -4.28386E+04
 -1.33374E+04 -6.49838E+04  4.15032E+04 -4.71640E+04  6.20503E+04 -3.23918E+03  3.51680E+04  3.34613E+04
 -5.89142E+03  3.96339E+04 -3.03816E+04  1.89579E+04 -3.12362E+04 -2.82518E+03 -1.79586E+04 -9.95780E+03
 -8.02753E+03 -1.50226E+04  7.41749E+02 -1.89555E+04  7.46927E+03 -2.39770E+04  1.62314E+04 -1.36111E+04
  1.06968E+04  6.84940E+03 -1.00650E+04  1.23497E+04 -2.08799E+04 -7.24345E+03 -8.87139E+03 -3.70901E+04
  2.37183E+04 -4.54768E+04  5.19427E+04 -1.90175E+04  4.71889E+04  2.19455E+04  1.72844E+04  4.66985E+04
 -1.70842E+04  3.47625E+04 -2.64757E+04  3.25882E+03 -1.04212E+04 -2.89039E+04  2.16200E+04 -3.64853E+04
  4.28118E+04 -9.81809E+03  3.88048E+04  2.41697E+04  2.09490E+04  5.07495E+04 -8.18321E+03  5.38988E+04
 -3.46326E+04  3.80070E+04 -4.60065E+04  1.15077E+04 -4.70774E+04 -1.71717E+04 -2.52351E+04 -4.08258E+04
  8.23719E+03 -4.13660E+04  3.32944E+04 -1.63118E+04  3.08156E+04  1.09830E+04  5.04710E+03  2.12403E+04
 -1.32788E+04  1.02360E+04 -1.10616E+04 -7.62524E+03  6.52087E+03 -1.03921E+04  1.77497E+04  5.23669E+03
  1.48751E+04  2.40013E+04 -5.28549E+03  2.75944E+04 -2.49034E+04  1.28880E+04 -3.00483E+04 -3.12979E+03
 -2.46035E+04 -1.88953E+04 -1.14386E+04 -2.38719E+04  4.79483E+03 -2.45028E+04  1.89215E+04 -2.13700E+04
  2.94624E+04 -1.35588E+04  3.58209E+04  6.29987E+03  2.72136E+04  2.24970E+04  5.62279E+03  4.04781E+04
 -1.88752E+04  3.31179E+04 -3.00533E+04  1.09083E+04 -2.30952E+04 -1.09562E+04 -4.11500E+03 -1.32344E+04
  9.99626E+02 -6.76988E+02 -6.81459E+03  7.35687E+03 -1.95021E+04  4.41901E+03 -1.90215E+04 -9.55105E+03
 -1.11773E+04 -2.17939E+04  5.95407E+03 -2.68599E+04  1.80415E+04 -1.80132E+04  2.11426E+04 -2.48924E+03
  1.36730E+04  1.51782E+04 -1.25812E+03  2.22261E+04 -1.77366E+04  1.30816E+04 -2.17752E+04 -4.71162E+03
 -1.65313E+04 -2.01086E+04 -1.74014E+03 -2.70211E+04  1.20240E+04 -2.35659E+04  2.28782E+04 -1.07612E+04
  2.01451E+04 -1.00207E+03  1.56736E+04  2.96870E+03  7.32001E+03  8.08005E+02  1.26371E+04 -4.20841E+03
  2.04843E+04  3.56291E+03  2.42197E+04  1.67717E+04  1.52820E+04  3.53254E+04 -2.37147E+03  4.11871E+04
 -2.36250E+04  3.61146E+04 -4.24441E+04  1.81399E+04 -4.26641E+04 -2.08640E+03 -3.35271E+04 -2.55197E+04
 -1.29000E+04 -3.42509E+04  1.19799E+04 -3.15494E+04  2.77184E+04 -1.37077E+04  2.34956E+04  7.81026E+03
  7.79191E+03  1.82320E+04 -1.24834E+04  1.69660E+04 -1.83113E+04  2.73678E+03 -1.46723E+04 -1.20979E+04
 -5.81493E+02 -1.66765E+04  8.81453E+03 -1.47568E+04  1.46469E+04 -9.65755E+02  2.71810E+03  8.68700E+03
 -9.49850E+03  3.13937E+03 -9.18036E+03 -4.37094E+03 -7.00679E+02 -1.76760E+04  1.15677E+04 -1.78752E+04
  2.25204E+04 -1.00379E+04  2.37747E+04  2.63629E+03  2.21398E+04  1.72873E+04  1.01401E+04  2.65521E+04
 -6.13327E+03  2.75643E+04 -1.77638E+04  1.74386E+04 -2.07613E+04  3.96460E+03 -1.45107E+04 -6.29214E+03
 -6.87131E+03 -5.73234E+03 -9.75937E+02 -4.18176E+02 -2.23948E+03  3.35424E+03 -6.53892E+03  5.72455E+03
 -1.36878E+04 -3.02612E+02 -1.41861E+04 -1.13849E+04 -7.27025E+03 -1.86207E+04  5.60503E+03 -1.61771E+04
  1.33275E+04 -5.69532E+03  9.19455E+03  2.87733E+03  3.60480E+02  6.42608E+03 -7.37483E+03 -4.59721E+02
 -8.37134E+03 -9.13285E+03 -2.22263E+03 -1.40960E+04  8.00761E+03 -1.50156E+04  1.83365E+04 -7.43760E+03
  2.19215E+04  3.11514E+03  1.48909E+04  1.26151E+04  3.15314E+03  1.78561E+04 -9.23768E+03  1.50552E+04
 -1.21077E+04  5.35618E+03 -5.87059E+03 -3.56243E+03  1.69843E+03 -3.29901E+03  7.54069E+03 -9.10387E+02
  5.63812E+03  5.24203E+03  1.55802E+03  1.14149E+04 -7.71548E+03  1.16097E+04 -1.46232E+04  2.65230E+03
 -9.94250E+03 -7.56408E+03 -2.45069E+02 -1.41566E+04  7.46692E+03 -5.44729E+03  9.40776E+03  4.44710E+03
  1.82343E+03  8.80818E+03 -7.64400E+03  1.23701E+04 -1.29140E+04  5.96378E+03 -1.11993E+04 -5.04936E+03
 -7.83124E+03 -1.50235E+04  4.75796E+03 -1.76976E+04  1.41760E+04 -9.47154E+03  1.48330E+04  3.62200E+03
  9.42019E+03  1.24574E+04 -1.82326E+03  1.51447E+04 -1.08173E+04  8.80491E+03 -9.78837E+03 -8.41602E+02
 -8.58989E+03 -9.33431E+03 -2.51836E+03 -1.03647E+04  6.53026E+03 -8.11114E+03  6.38682E+03 -2.83145E+03
  5.66578E+03  5.17661E+02 -2.33793E+03  1.41897E+03 -1.16106E+03 -2.65437E+03  2.24906E+03 -6.69956E+03
  1.12267E+04 -4.31899E+03  1.34910E+04  2.07742E+02  1.41637E+04  1.04701E+04  9.26372E+03  1.97949E+04
 -5.12156E+03  2.09290E+04 -1.76614E+04  1.63979E+04 -2.35552E+04  3.03852E+03 -1.90035E+04 -7.31600E+03
 -8.47459E+03 -1.64986E+04 -2.92607E+02 -1.35958E+04  4.37423E+03 -7.41653E+03  5.09497E+03 -5.70529E+03
  2.64616E+03 -3.02491E+03  3.99365E+03 -3.63537E+03  7.13299E+03 -4.67360E+03  8.25827E+03 -1.99864E+03
  1.01790E+04  1.25178E+03  5.34151E+03  8.44438E+03 -3.08431E+03  9.93222E+03 -1.04211E+04  8.50255E+03
 -1.40458E+04 -3.33647E+02 -7.86860E+03 -8.36835E+03  7.19253E+01 -1.46861E+04  8.17512E+03 -1.37759E+04
  1.45041E+04 -7.69033E+03  1.81725E+04  3.52633E+03  1.01901E+04  1.38502E+04  1.06744E+03  1.54708E+04
 -6.91914E+03  1.11047E+04 -9.18183E+03  6.53704E+03 -5.68533E+03 -1.87869E+03 -2.96140E+03 -1.81687E+03
 -1.31280E+03 -1.29249E+02 -2.05650E+03  3.59724E+03 -3.67319E+03  2.81658E+03 -8.34562E+03 -1.32615E+03
 -6.80750E+03 -1.04441E+04  5.83018E+02 -1.23637E+04  6.73593E+03 -1.03673E+04  1.33300E+04 -4.91211E+03
  1.28170E+04  5.82663E+03  6.23526E+03  1.21431E+04 -2.40640E+03  1.50191E+04 -8.48911E+03  8.52685E+03
 -1.26063E+04  1.28588E+03 -9.25371E+03 -8.20476E+03 -1.33441E+03 -1.10801E+04  5.13234E+03 -8.53069E+03
  8.43504E+03 -4.01489E+03  6.03927E+03  2.39392E+03  1.49312E+03  3.14878E+03  1.36087E+03  2.05944E+03
  2.50972E+03 -1.75958E+02  1.55525E+03  2.80326E+03  3.94963E+03  4.71318E+03  4.69785E+03  5.45075E+03
 -2.80391E+03  1.01554E+04 -9.82649E+03  1.03483E+04 -1.26148E+04  2.39286E+03 -1.35781E+04 -5.79697E+03
 -7.62756E+03 -1.32215E+04  4.65869E+02 -1.59804E+04  7.52536E+03 -7.88166E+03  1.10174E+04 -2.31224E+03
  7.99239E+03  4.02040E+03  2.80025E+03  7.86017E+03 -3.56775E+03  4.81645E+03 -4.67303E+03 -9.46349E+02
 -3.95685E+03 -6.41514E+03  3.01888E+03 -7.23147E+03  5.24284E+03 -1.77766E+03  4.62652E+03  2.20755E+03
  2.97091E+03  3.27697E+03  3.13103E+02  2.32458E+03 -3.81310E+02  2.23470E+03  1.92980E+03 -3.18795E+02
  1.17074E+03 -8.20610E+02  5.18461E+03  2.49532E+03  4.17359E+03  7.54775E+03 -1.23324E+03  8.14915E+03
 -8.11671E+03  4.68829E+03 -9.02065E+03  9.26437E+02 -8.09074E+03 -2.85637E+03 -2.46838E+03 -4.64659E+03
  4.69532E+02 -5.85538E+03  3.40542E+03 -1.97532E+03  2.42250E+03  2.32419E+03 -2.76427E+02  5.63171E+03
 -5.79878E+03  1.72381E+03 -6.81943E+03 -3.90882E+03 -3.21983E+03 -6.62457E+03 -4.28066E+01 -7.38681E+03
  3.68541E+03 -4.09546E+03  5.13379E+03 -1.18194E+03  5.31441E+03  2.46690E+03  9.99701E+02  5.76148E+03
 -2.53010E+03  5.40249E+02 -3.17957E+03 -3.48849E+03  1.47424E+03 -6.29548E+03  6.91575E+03 -4.75196E+03
  8.13896E+03  1.10760E+03  8.96371E+03  5.85731E+03  1.77187E+03  8.55670E+03 -2.40820E+03  8.22890E+03
 -7.42907E+03  3.82922E+03 -6.46803E+03 -2.83919E+03 -3.39078E+03 -5.42068E+03  4.75904E+02 -4.54800E+03
  5.48494E+03 -3.39652E+03  4.61523E+03  2.96273E+03  2.32016E+03  4.50524E+03 -1.41863E+03  4.91984E+03
 -2.15780E+03  2.70763E+03 -2.55278E+03  7.49879E+02 -2.73009E+03 -4.41477E+02  1.79730E+02  2.28109E+03
 -1.80211E+03  4.52126E+03 -4.91583E+03  2.07091E+03 -8.79710E+03 -3.17192E+01 -9.43418E+03 -5.90930E+03
 -4.19303E+03 -1.10141E+04  2.61648E+03 -1.30316E+04  9.33842E+03 -1.00941E+04  1.29932E+04 -3.55201E+03
  1.12816E+04  1.33450E+03  6.42190E+03  7.86887E+03  4.31796E+02  9.14517E+03 -2.48832E+03  5.72830E+03
 -4.47217E+03  2.90313E+03 -2.48500E+03 -2.12484E+03 -1.37513E+03 -5.67557E+02 -7.67446E+02  8.71407E+02
 -9.42071E+02  1.22110E+03 -2.74310E+03 -2.86860E+02 -1.14483E+02 -1.68767E+03  9.09552E+02 -3.81078E+03
  5.17194E+03 -2.73792E+03  4.63477E+03 -9.93675E+02  7.46037E+03  4.11019E+03  1.13826E+03  9.52766E+03
 -3.84965E+03  9.66712E+03 -9.01049E+03  4.89513E+03 -1.10844E+04 -1.45446E+03 -8.16098E+03 -6.99141E+03
 -3.39235E+03 -9.19836E+03  2.45202E+03 -8.25035E+03  5.76446E+03 -5.22885E+03  4.89121E+03  4.25662E+02
  2.95430E+03  4.11388E+03  3.41246E+02  1.18933E+03 -2.54886E+03 -2.77620E+02 -8.57152E+02 -2.14067E+03
  3.49207E+03 -3.09235E+02  2.70454E+03  3.70100E+02  6.74780E+02  3.95681E+03 -9.70848E+02  3.42085E+03
 -5.22783E+03  3.80451E+03 -4.28081E+03 -7.55842E+01 -5.75071E+03 -4.06034E+03 -9.70334E+02 -6.30687E+03
  4.48875E+03 -8.25344E+03  5.63754E+03 -1.44969E+03  5.24513E+03  2.96890E+03  2.25768E+03  6.33246E+03
 -3.94339E+02  3.90900E+03 -2.47377E+03  4.54620E+03 -3.24762E+03  3.15839E+03 -4.38475E+03  3.40634E+02
 -1.70592E+03 -1.23245E+03 -1.84147E+03  1.67394E+03 -2.83947E+03  1.75050E+03 -5.79588E+03 -4.84692E+02
 -5.08397E+03 -3.70178E+03 -1.99430E+03 -5.22821E+03  2.57985E+03 -7.49793E+03  4.87677E+03 -2.27361E+03
  5.26497E+03 -6.65395E+02  5.61525E+03  3.17123E+03 -7.98151E+02  6.40675E+03 -4.64992E+03  3.27569E+03
