 $NMID ID='MM_0lb_SNR200_16hz_g50_18.RAW', FMTDAT='(8E13.5)'
 TRAMP=1., VOLUME=1. $END
  3.10900E+05  3.03090E+02  3.37704E+05  2.49837E+05  8.39909E+04  3.38475E+05 -1.32357E+05  2.51505E+05
 -1.90021E+05  8.36058E+04 -1.10839E+05 -3.40370E+04  6.83527E+02 -4.98051E+04  5.33894E+04  3.71270E+02
  3.47232E+04  5.26593E+04 -1.81586E+04  7.57845E+04 -6.05156E+04  6.21024E+04 -8.39016E+04  3.13805E+04
 -8.22833E+04 -1.18912E+04 -5.79809E+04 -4.99124E+04 -1.46105E+04 -6.94780E+04  2.63691E+04 -4.53563E+04
  4.01476E+04  3.31949E+03  1.50066E+04  4.81046E+04 -3.34936E+04  4.60148E+04 -6.49627E+04 -3.52999E+02
 -5.32538E+04 -5.71223E+04 -6.68655E+03 -7.59369E+04  3.41888E+04 -5.32766E+04  4.71591E+04 -1.64871E+04
  4.36007E+04  1.07820E+04  3.13806E+04  2.54519E+04  1.41813E+04  2.99942E+04 -5.58543E+03  2.78438E+04
 -2.19133E+04  1.27939E+04 -1.96067E+04 -5.50418E+03  5.35989E+03 -7.67721E+03  2.04439E+04  1.24226E+04
  5.83862E+03  3.48218E+04 -3.16615E+04  3.39576E+04 -6.26649E+04  3.12076E+03 -5.58356E+04 -4.24612E+04
 -1.18046E+04 -6.28317E+04  3.90483E+04 -4.50544E+04  5.71963E+04 -2.14341E+03  3.30505E+04  3.24556E+04
 -6.00528E+03  3.47039E+04 -2.94720E+04  1.56934E+04 -2.93820E+04 -3.85173E+03 -1.55770E+04 -1.13350E+04
 -8.32627E+03 -1.28335E+04 -6.04764E+02 -1.70422E+04  5.17630E+03 -2.30780E+04  1.49933E+04 -1.38131E+04
  1.13714E+04  5.58722E+03 -8.39338E+03  1.25455E+04 -2.14159E+04 -4.44744E+03 -8.66629E+03 -3.14260E+04
  2.20012E+04 -4.21434E+04  4.58622E+04 -1.97089E+04  4.50389E+04  1.72876E+04  1.52958E+04  4.27436E+04
 -1.56873E+04  3.21491E+04 -2.50531E+04  2.67051E+03 -8.92168E+03 -2.65065E+04  2.12361E+04 -3.41694E+04
  3.89716E+04 -7.80540E+03  3.44685E+04  2.37482E+04  1.70091E+04  4.49227E+04 -7.21208E+03  4.82767E+04
 -3.06249E+04  3.23357E+04 -3.99275E+04  8.10423E+03 -4.15064E+04 -1.61875E+04 -2.30471E+04 -3.73297E+04
  7.22486E+03 -3.59286E+04  3.11475E+04 -1.33055E+04  2.83314E+04  1.16881E+04  3.51028E+03  1.87277E+04
 -1.30878E+04  8.19907E+03 -7.96535E+03 -8.02221E+03  6.58299E+03 -1.05984E+04  1.79935E+04  5.77138E+03
  1.17706E+04  2.18558E+04 -7.49362E+03  2.45735E+04 -2.19187E+04  1.09484E+04 -2.57908E+04 -5.10439E+03
 -1.92415E+04 -1.68583E+04 -7.02835E+03 -1.91923E+04  3.53449E+03 -1.71917E+04  1.33140E+04 -1.68013E+04
  2.46353E+04 -1.28926E+04  3.08179E+04  1.19001E+03  2.35367E+04  1.85847E+04  4.79333E+03  3.59033E+04
 -1.67501E+04  2.87458E+04 -2.78210E+04  9.52974E+03 -2.10994E+04 -1.14537E+04 -3.35914E+03 -1.30951E+04
  2.83864E+03 -3.80947E+03 -3.33261E+03  5.35750E+03 -1.57194E+04  6.03322E+03 -1.51789E+04 -4.66753E+03
 -1.02596E+04 -1.69321E+04  5.96525E+03 -2.11381E+04  1.38728E+04 -1.62246E+04  1.64748E+04 -1.37234E+03
  1.05086E+04  1.21616E+04 -1.25685E+03  1.79428E+04 -1.16202E+04  9.90501E+03 -1.81576E+04 -3.37506E+03
 -1.31398E+04 -1.69914E+04 -1.74559E+03 -2.13189E+04  1.09112E+04 -1.68210E+04  1.80058E+04 -8.02879E+03
  1.59887E+04  4.18757E+02  1.25131E+04  4.42500E+03  6.28865E+03  6.20019E+02  9.52969E+03 -2.20186E+03
  1.51395E+04  2.80868E+03  1.78642E+04  1.49617E+04  1.07806E+04  2.82285E+04 -3.24416E+03  3.16863E+04
 -1.80364E+04  2.41605E+04 -2.91342E+04  1.22005E+04 -2.88009E+04 -2.38887E+03 -2.56141E+04 -1.72126E+04
 -1.11568E+04 -2.61669E+04  8.40308E+03 -2.08736E+04  1.93510E+04 -1.20667E+04  1.64438E+04  4.92706E+03
  7.46826E+03  1.30715E+04 -7.35425E+03  1.18953E+04 -1.47371E+04  2.14194E+03 -1.13876E+04 -9.07347E+03
 -1.09080E+01 -1.42686E+04  7.02904E+03 -9.69511E+03  9.74381E+03 -1.73354E+03  1.35437E+03  6.09274E+03
 -7.46677E+03  4.27654E+02 -4.21656E+03 -5.72677E+03  4.77445E+02 -1.23604E+04  9.25350E+03 -1.11292E+04
  1.42571E+04 -6.56642E+03  1.47964E+04  2.24038E+03  1.39010E+04  1.11504E+04  6.53723E+03  1.72457E+04
 -3.67372E+03  1.84966E+04 -1.16634E+04  1.24490E+04 -1.46230E+04  3.37587E+03 -9.39788E+03 -3.62556E+03
 -4.97064E+03 -5.12500E+03 -1.03478E+03  1.95032E+03 -1.60772E+03  2.34125E+03 -3.46603E+03  4.68003E+03
 -9.77792E+03  2.33820E+02 -1.03041E+04 -7.97200E+03 -4.63023E+03 -1.34519E+04  3.57025E+03 -8.63270E+03
  7.91304E+03 -5.44375E+03  6.89364E+03  2.13365E+03  6.36129E+02  3.57680E+03 -5.02730E+03 -1.45502E+02
 -5.15084E+03 -6.93783E+03 -1.36775E+03 -9.19056E+03  4.06739E+03 -9.38550E+03  1.14593E+04 -5.18005E+03
  1.44076E+04  8.54284E+02  1.15371E+04  7.67346E+03  1.28451E+03  1.10194E+04 -5.28843E+03  9.86244E+03
 -7.83570E+03  3.27625E+03 -4.81372E+03 -1.99248E+03  1.02023E+03 -3.69451E+03  5.72166E+03 -9.78099E+02
  5.24390E+03  3.43136E+03  1.86421E+03  7.23910E+03 -5.36418E+03  7.31494E+03 -9.40477E+03  1.28859E+03
 -5.42318E+03 -4.01787E+03  3.44065E+02 -7.76624E+03  5.15346E+03 -5.53132E+03  4.80560E+03  1.30158E+03
  5.83077E+02  4.31746E+03 -4.36515E+03  5.42374E+03 -6.29813E+03  3.42847E+03 -5.86419E+03 -1.97028E+03
 -4.28363E+03 -7.67839E+03  1.43696E+03 -9.35670E+03  7.98502E+03 -5.19626E+03  9.16361E+03  5.60209E+02
  5.34136E+03  7.67705E+03 -1.08076E+03  8.57888E+03 -6.18537E+03  3.98725E+03 -6.07035E+03 -1.55406E+03
 -6.46041E+03 -6.32144E+03 -1.40097E+03 -6.58083E+03  2.69376E+03 -6.25955E+03  3.47531E+03 -2.88494E+03
  3.83976E+03  1.21996E+03 -1.32672E+03  4.99861E+02  1.42808E+02  5.99160E+02  8.04838E+02 -4.14180E+03
  5.02686E+03 -1.52071E+03  7.66321E+03  1.16705E+03  7.89908E+03  4.69587E+03  6.83753E+03  9.69335E+03
 -1.28098E+03  1.08651E+04 -9.77333E+03  8.83309E+03 -1.25087E+04  1.78570E+03 -1.00841E+04 -3.01701E+03
 -5.27301E+03 -1.02433E+04 -7.58951E+02 -7.77286E+03  2.98961E+03 -4.12939E+03  2.53537E+03 -3.19773E+03
  1.01697E+03 -8.74226E+02  2.91628E+03 -2.43537E+03  4.26911E+03 -1.19813E+03  4.12958E+03  4.64066E+02
  5.88945E+03  2.23990E+03  2.85316E+03  4.56675E+03 -2.10048E+03  3.59964E+03 -6.61798E+03  3.81339E+03
 -6.14210E+03 -8.19873E+02 -1.87266E+03 -4.94303E+03  1.85723E+02 -7.36040E+03  4.47270E+03 -6.64864E+03
  7.08133E+03 -4.82500E+03  9.62722E+03  9.85566E+01  6.16285E+03  4.88985E+03  1.60535E+03  7.73721E+03
 -2.60311E+03  8.41293E+03 -4.38589E+03  2.43427E+03 -3.36660E+03 -2.50995E+03 -2.43333E+03 -8.62887E+02
  7.73341E+02  6.08052E+02 -6.53782E+02  1.86834E+03 -4.18027E+03  1.56717E+03 -5.97626E+03 -1.17446E+03
 -1.74525E+03 -4.98225E+03  1.84193E+02 -5.37932E+03  2.19162E+03 -6.23685E+03  6.53659E+03  4.50342E+01
  4.19474E+03  2.84851E+03  2.14125E+03  4.24885E+03 -1.38030E+03  7.08894E+03 -4.03113E+03  4.54246E+03
 -5.99787E+03  1.79966E+02 -4.50576E+03 -3.19805E+03 -6.33496E+02 -5.41721E+03  2.94273E+03 -2.30835E+03
  3.63653E+03 -1.11595E+03  2.40464E+03  3.00741E+02  1.01625E+03  1.50497E+03  1.00814E+03  8.21056E+02
  1.80691E+03  1.00345E+03  1.48524E+03  5.62159E+02  2.12833E+03  2.90509E+03  8.69797E+02  3.70915E+03
 -2.22388E+03  4.47086E+03 -3.65677E+03  6.37846E+03 -5.37060E+03  1.00588E+03 -6.76194E+03 -5.18080E+02
 -2.54231E+03 -5.63734E+03  2.36999E+01 -7.51443E+03  3.68125E+03 -3.75181E+03  5.00295E+03 -4.97115E+02
  2.97411E+03  2.08478E+03  3.35591E+02  3.32943E+03 -2.50749E+03  1.94474E+03 -1.10416E+03 -2.88550E+01
 -1.23096E+03 -3.80584E+03  1.16369E+03 -1.55138E+03  2.43457E+03 -1.53605E+03  1.79454E+03 -3.92178E+01
  3.17790E+03  1.15173E+03  1.76463E+03 -6.08744E+02 -2.95564E+02  5.47545E+02  1.13871E+03  4.36156E+02
  6.14902E+02 -1.41660E+03  1.70496E+03  7.46971E+02  6.40048E+02  2.83926E+03 -6.18491E+02  3.97412E+03
 -2.44747E+03  2.34769E+03 -3.76464E+03 -1.41861E+02 -2.87878E+03 -1.99932E+02 -5.66442E+02 -7.47326E+02
  2.37561E+02 -1.91894E+03  8.21905E+02 -1.51055E+03  7.19611E+02  1.65619E+03 -1.45403E+03  1.31118E+03
 -3.05205E+03  1.29542E+03 -2.54549E+03 -7.35511E+02 -8.18649E+02 -2.58429E+03  4.86706E+00 -2.85774E+03
  7.98259E+02 -1.91415E+03  1.27558E+03  3.51643E+02  1.40642E+03  1.51681E+02 -5.79805E+02  8.97535E+02
 -1.06789E+03 -1.64926E+02 -2.30153E+03 -7.07789E+02  1.61307E+03 -1.26953E+03  2.09691E+03 -9.58354E+02
  2.23368E+03 -4.73743E+02  2.55682E+03  1.49171E+03  1.01939E+03  3.28147E+03 -1.10014E+03  2.65297E+03
 -1.87735E+03  4.10055E+02 -2.95349E+03 -6.18489E+02 -9.18152E+02 -1.45826E+03  2.60312E+02 -2.15823E+03
  2.80709E+03 -1.35983E+03  1.47205E+03  1.50502E+03  9.36625E+02  3.64105E+03  5.22739E+02  2.05104E+03
  1.33559E+02  1.21723E+03 -8.68067E+02 -2.21508E+02 -1.09170E+03 -1.91859E+02 -1.55451E+02  1.17467E+03
 -9.65763E+02  1.40704E+03 -2.11209E+03  4.95203E+02 -2.91964E+03  9.03065E+02 -2.89979E+03 -1.35062E+03
 -2.12938E+03 -3.76989E+03  9.20014E+02 -2.99233E+03  1.63553E+03 -3.47601E+03  5.68865E+03 -1.31865E+03
  3.34175E+03 -5.73217E+02  2.79237E+03  2.37139E+03 -4.31747E+02  2.60890E+03 -9.60734E+02  2.45755E+03
 -2.13810E+03  8.97375E+02 -5.09109E+02 -5.39300E+02 -1.74665E+02  4.99017E+02  2.92968E+02  7.11229E+02
 -8.04793E+02 -2.42526E+02 -1.58266E+03 -5.88386E+02 -3.51096E+02 -1.33708E+03  1.94925E+01 -6.03908E+02
  1.89566E+03 -5.11372E+02  1.67842E+03  1.02082E+03  2.66437E+03  2.12625E+03  6.73869E+02  2.01600E+03
 -2.82912E+03  3.11704E+03 -2.45321E+03  1.80824E+03 -2.50779E+03 -6.41946E+02 -2.42169E+03 -1.05554E+03
 -1.98019E+03 -1.82218E+03 -1.95992E+02 -2.60981E+03  1.18031E+03 -8.18788E+02  9.31454E+02 -1.82378E+02
  1.45001E+03  1.52190E+03  3.09489E+01  7.41248E+02 -8.78966E+02  8.92058E+01 -1.84743E+03 -1.67006E+02
  4.11323E+02  5.06662E+02  1.16548E+03  1.11183E+03  1.80776E+02  3.46796E+02  2.57189E+02  1.49887E+03
 -1.05788E+03  1.18685E+03 -1.12926E+03  1.14107E+02 -7.41678E+02 -1.54789E+03 -9.83674E+02 -3.25792E+03
  6.45372E+02 -1.96277E+03  1.46473E+03 -4.08557E+02  1.48735E+03 -6.63448E+02  1.63834E+03  7.07271E+02
  1.44673E+03  9.98177E+02 -1.13725E+03  3.53851E+02 -2.52692E+02  1.50242E+03 -1.72508E+02  4.80576E+02
  2.50408E+01  1.48933E+03 -4.38996E+02  3.52848E+02 -1.29841E+02 -6.89238E+01 -1.73028E+03 -7.68403E+02
 -6.34878E+02  2.24881E+02 -8.51634E+02 -2.29728E+03  1.37941E+03 -1.79350E+03  1.60242E+03 -6.51870E+02
  2.73721E+03  3.75779E+02 -7.38994E+02  6.48472E+02 -5.48687E+02  9.95960E+02 -1.01546E+03  9.92895E+02
