 $NMID ID='MM_0lb_SNR200_20hz_g55_87.RAW', FMTDAT='(8E13.5)'
 TRAMP=1., VOLUME=1. $END
  3.08909E+05  2.35685E+02  3.37708E+05  2.49692E+05  8.42312E+04  3.38208E+05 -1.32779E+05  2.49974E+05
 -1.89452E+05  8.38509E+04 -1.10372E+05 -3.32373E+04  1.12503E+03 -5.01822E+04  5.44125E+04  6.39130E+02
  3.58229E+04  5.27076E+04 -1.72272E+04  7.50783E+04 -5.99712E+04  6.21103E+04 -8.37432E+04  3.13384E+04
 -7.98665E+04 -1.13684E+04 -5.71984E+04 -5.04390E+04 -1.53267E+04 -6.82188E+04  2.68716E+04 -4.52219E+04
  3.86791E+04  3.85184E+03  1.52205E+04  4.77039E+04 -3.39367E+04  4.62882E+04 -6.60324E+04 -4.12941E+02
 -5.19140E+04 -5.61824E+04 -5.66839E+03 -7.54040E+04  3.30792E+04 -5.35171E+04  4.54601E+04 -1.67734E+04
  4.18916E+04  1.12775E+04  3.04617E+04  2.47186E+04  1.64107E+04  2.80964E+04 -4.78565E+03  2.64376E+04
 -2.09558E+04  1.20885E+04 -1.97189E+04 -3.61835E+03  3.82001E+03 -7.47509E+03  2.09266E+04  1.06413E+04
  6.95723E+03  3.30807E+04 -3.13939E+04  3.46049E+04 -6.08406E+04  2.61801E+03 -5.55491E+04 -4.06741E+04
 -1.30374E+04 -6.06195E+04  3.86664E+04 -4.46316E+04  5.64722E+04 -1.75504E+03  3.18925E+04  3.02239E+04
 -6.11543E+03  3.32622E+04 -2.94025E+04  1.29082E+04 -2.82174E+04 -5.68109E+03 -1.45567E+04 -1.03987E+04
 -7.05718E+03 -1.12135E+04  2.90085E+02 -1.68996E+04  7.83828E+03 -2.16992E+04  1.55595E+04 -1.35817E+04
  1.22863E+04  3.81550E+03 -6.67625E+03  1.19342E+04 -1.99079E+04 -3.00605E+03 -7.73876E+03 -3.14575E+04
  2.07339E+04 -3.99882E+04  4.40873E+04 -1.81024E+04  4.14038E+04  1.89084E+04  1.45651E+04  4.22890E+04
 -1.61716E+04  3.18058E+04 -2.27561E+04  1.44820E+03 -8.02551E+03 -2.65253E+04  1.90720E+04 -3.09399E+04
  3.92052E+04 -8.42042E+03  3.19331E+04  2.27711E+04  1.56251E+04  4.15886E+04 -7.04740E+03  4.42461E+04
 -2.88116E+04  2.99551E+04 -3.63524E+04  7.28647E+03 -3.87751E+04 -1.56477E+04 -2.20243E+04 -3.37216E+04
  6.23514E+03 -3.46259E+04  2.91207E+04 -1.21677E+04  2.77263E+04  1.20742E+04  2.21414E+03  1.97512E+04
 -1.36754E+04  7.78831E+03 -1.01257E+04 -7.62063E+03  6.53193E+03 -1.05749E+04  1.75101E+04  5.79924E+03
  1.29712E+04  2.15158E+04 -7.38154E+03  2.39288E+04 -2.13870E+04  8.79009E+03 -2.45273E+04 -6.63426E+03
 -1.72715E+04 -1.57257E+04 -5.66858E+03 -1.70002E+04  5.45356E+03 -1.51996E+04  1.16917E+04 -1.49530E+04
  2.20455E+04 -1.15751E+04  2.87639E+04  4.19714E+01  2.16235E+04  1.65829E+04  3.71479E+03  3.15504E+04
 -1.62178E+04  2.71999E+04 -2.58058E+04  8.71310E+03 -1.89404E+04 -1.08094E+04 -3.77473E+03 -1.37966E+04
  2.48265E+03 -3.30197E+03 -2.30684E+03  5.98281E+03 -1.26101E+04  5.48968E+03 -1.30563E+04 -4.86114E+03
 -8.07267E+03 -1.47617E+04  5.08382E+03 -1.89976E+04  1.17509E+04 -1.31749E+04  1.43304E+04 -1.23798E+03
  9.05679E+03  1.06799E+04 -1.24098E+03  1.55415E+04 -1.02322E+04  8.55873E+03 -1.50335E+04 -3.83463E+03
 -1.17865E+04 -1.40255E+04 -2.14179E+03 -1.94546E+04  9.08852E+03 -1.43711E+04  1.53447E+04 -7.77044E+03
  1.46842E+04  1.47255E+03  1.08549E+04  4.38827E+03  4.65290E+03  2.47271E+02  8.26065E+03 -6.21228E+02
  1.48953E+04  3.02772E+03  1.40890E+04  1.34302E+04  9.52215E+03  2.34199E+04 -2.01291E+03  2.55787E+04
 -1.52924E+04  1.94601E+04 -2.39268E+04  9.88147E+03 -2.47641E+04 -1.55450E+03 -2.10857E+04 -1.43611E+04
 -1.01292E+04 -1.91551E+04  6.47303E+03 -1.77799E+04  1.58618E+04 -9.88892E+03  1.60938E+04  3.82886E+03
  6.96801E+03  1.12816E+04 -6.85917E+03  9.81574E+03 -1.30869E+04  2.98420E+03 -9.85869E+03 -7.60551E+03
 -9.33212E+02 -1.27662E+04  5.48097E+03 -9.31616E+03  7.34772E+03 -1.54626E+03  9.41870E+02  3.94266E+03
 -5.08206E+03  1.41571E+03 -3.64751E+03 -4.60243E+03  2.79771E+02 -1.05639E+04  8.53621E+03 -9.18779E+03
  1.26447E+04 -3.88652E+03  1.08770E+04  1.90396E+03  9.86196E+03  7.90483E+03  5.76021E+03  1.34482E+04
 -4.53370E+02  1.46927E+04 -9.17674E+03  8.82569E+03 -1.04002E+04  2.34989E+03 -8.13941E+03 -2.13793E+03
 -4.53295E+03 -3.09926E+03 -3.23100E+02  1.18570E+03 -1.69986E+03  1.39398E+03 -2.56388E+03  3.45704E+03
 -7.66155E+03  1.80071E+02 -8.39941E+03 -7.83750E+03 -2.68530E+03 -1.19139E+04  3.08090E+03 -9.48214E+03
  6.73225E+03 -4.32678E+03  5.76780E+03  1.92932E+03  4.74883E+02  3.64701E+03 -3.93640E+03 -4.83447E+02
 -2.22084E+03 -5.43599E+03 -1.28733E+03 -7.15208E+03  4.36737E+03 -8.11478E+03  8.80440E+03 -2.64986E+03
  1.02454E+04  5.90312E+02  8.58755E+03  6.74239E+03  2.10730E+03  8.34005E+03 -4.68124E+03  7.97737E+03
 -6.86796E+03  2.86050E+03 -3.29375E+03 -1.80039E+03  1.31270E+03 -2.24438E+03  4.93866E+03 -9.22638E+02
  3.81088E+03  3.15571E+03  4.59719E+02  6.41367E+03 -4.24044E+03  5.81892E+03 -6.93218E+03  2.56496E+03
 -4.76827E+03 -3.54766E+03  4.30209E+02 -7.45173E+03  2.61369E+03 -4.18560E+03  2.78917E+03  9.81921E+02
  7.64996E+02  2.90382E+03 -3.43637E+03  4.62124E+03 -5.03138E+03  2.28607E+03 -4.07138E+03 -1.26732E+03
 -2.83935E+03 -5.12978E+03  1.11569E+03 -6.34835E+03  5.73270E+03 -5.01118E+03  5.88592E+03  1.62461E+02
  5.74849E+03  4.26591E+03  1.18685E+03  6.14875E+03 -5.44065E+03  4.99685E+03 -4.31189E+03  3.37661E+02
 -4.91064E+03 -5.20519E+03 -9.86429E+02 -4.25393E+03  2.48676E+03 -4.87753E+03  2.41347E+03 -2.62600E+03
  1.89685E+03  2.48658E+02  3.77721E+02  9.99246E+02 -5.20343E+02  5.33781E+02 -3.52116E+02 -1.32294E+03
  3.56023E+03  9.46876E+01  4.44800E+03  3.08730E+02  6.25972E+03  2.98820E+03  5.71474E+03  6.85929E+03
 -1.34800E+03  6.88018E+03 -7.00159E+03  5.68401E+03 -8.90038E+03  1.56675E+03 -6.08794E+03 -2.45980E+03
 -3.52055E+03 -5.63987E+03  2.23012E+02 -4.41738E+03  2.05379E+03 -1.73771E+03  1.40474E+03 -1.70069E+03
  1.50698E+03 -1.25089E+03  2.34086E+03 -1.04317E+03  2.61877E+03 -6.32773E+02  4.05434E+03  2.18162E+02
  4.13894E+03  5.51163E+02  8.34623E+02  2.76840E+03 -5.95109E+02  1.98251E+03 -2.97374E+03  2.20709E+03
 -3.95281E+03 -2.11272E+03 -1.44294E+03 -2.99255E+03  8.47887E+02 -4.42649E+03  2.78247E+03 -4.86213E+03
  3.80620E+03 -3.48687E+03  6.24576E+03  2.27733E+02  3.78892E+03  4.36723E+03  1.07319E+03  5.30445E+03
 -1.76250E+03  4.83452E+03 -3.36060E+03  1.87793E+03 -1.24114E+03 -2.12835E+03 -1.48085E+03  1.43786E+03
 -9.75111E+02  2.53731E+02 -7.51330E+02  1.52471E+03 -3.86546E+03  1.25731E+03 -3.87990E+03 -3.55551E+02
 -7.62421E+02 -3.34176E+03  5.81237E+01 -4.07354E+03  2.44434E+03 -4.10910E+03  2.95778E+03 -7.63285E+02
  3.63389E+03  1.53527E+03  1.52523E+03  2.80862E+03 -7.22984E+02  3.75439E+03 -2.33911E+03  2.22388E+03
 -2.92319E+03  7.41471E+02 -2.66443E+03 -1.69143E+03  4.26668E+02 -3.90186E+03  2.12888E+03 -1.32716E+03
  1.86512E+03 -1.23367E+03  1.07066E+03  1.10559E+03  2.04589E+02  1.33039E+03  5.49505E+02  1.05820E+03
 -1.02623E+02  4.60490E+02  5.53947E+02  1.68168E+03  6.75017E+02  3.39458E+03  2.00309E+03  2.23206E+03
 -1.15707E+03  3.30642E+03 -1.24011E+03  3.68576E+03 -1.21580E+03  1.72743E+03 -2.66782E+03 -5.56529E+02
 -7.06213E+02 -2.80477E+03  2.91830E+02 -4.24657E+03  1.43889E+03 -1.93649E+03  3.12626E+03 -6.10717E+02
  1.78285E+03  1.37391E+03  4.14801E+02  1.50981E+03  1.58078E+02  1.09324E+03  6.02736E+02  4.08670E+02
 -1.02583E+02 -1.78831E+03  7.14958E+02 -1.47465E+03  1.77487E+03 -1.48400E+03  7.55190E+02  8.94559E+01
  3.84673E+02  6.92049E+02  3.97551E+02 -1.64704E+02 -3.70609E+02  7.16726E+02  1.39298E+03  3.71277E+02
 -8.22406E+02 -4.00625E+02  1.89319E+03  1.14562E+03 -2.87938E+02  1.83930E+03 -9.02113E+02  1.82644E+03
 -2.64375E+02 -2.78557E+02 -2.30375E+03  3.81127E+02 -9.75623E+02 -8.24646E+02  3.00206E+02 -8.11110E+02
 -5.04289E+01 -2.11697E+03  1.20701E+03 -1.22971E+03 -2.73777E+02  1.41657E+03 -4.66880E+02  9.70412E+02
  1.86646E+02  7.36092E+01 -7.83340E+02 -2.21200E+03 -8.56614E+02 -1.43465E+03 -7.96962E+02 -1.86667E+03
  3.11727E+02 -9.42436E+02  1.34740E+03  1.69090E+00  1.15178E+03 -1.06240E+03  2.81192E+02  4.90514E+02
 -1.03058E+03  3.12003E+02 -3.18472E+02 -1.08598E+03  3.88210E+02 -9.44282E+02  1.10807E+03 -1.53069E+03
  5.26256E+02  5.11490E+02  1.82021E+03  8.25814E+02  9.95928E+02  1.39538E+03 -1.11464E+01  2.23358E+03
  1.22274E+02 -9.15345E+02 -1.10649E+03 -5.53999E+02 -6.60473E+02 -1.99313E+03 -3.48594E+02 -1.42731E+02
  1.43551E+03 -8.02218E+02  2.25809E+02  3.46398E+02  6.55016E+02 -4.32910E+02  4.74709E+02  1.44118E+03
  9.60262E+01 -8.24697E+01 -8.23103E+02  3.88706E+02  1.32627E+03  2.49585E+02 -4.52281E+02  3.19819E+02
 -6.81774E+02  9.16223E+02 -1.40619E+03 -9.94902E+01 -8.23498E+02  6.26986E+02 -2.69384E+03 -3.49183E+02
 -5.31141E+02 -3.18472E+03  3.70732E+02 -1.41164E+03  7.11286E+02 -1.34230E+03  1.87116E+03 -7.98432E+02
  5.48810E+02 -5.70909E+02  9.98721E+02  1.17400E+03 -4.57170E+02  2.01806E+02  5.38695E+02 -6.79198E+01
 -7.62471E+02  1.05212E+03 -7.85978E+02 -4.15042E+01 -6.09056E+02  1.44063E+02 -8.25156E+02  5.43595E+02
 -6.77733E+02  7.28551E+01 -1.11268E+03  6.18915E+02  4.96235E+02 -1.26602E+03 -9.94498E+02 -1.33727E+03
  1.24230E+03  4.94193E+02  1.37447E+03  5.42009E+02  1.06463E+03  1.31976E+03 -1.15210E+03  1.12092E+03
 -4.68660E+02  2.95256E+03 -1.28359E+03  1.18346E+03 -1.32446E+03 -1.30392E+02 -1.80059E+03 -9.10819E+02
 -7.84688E+02 -5.48656E+02  7.23779E+02 -8.89942E+02  8.21394E+02 -2.76334E+01 -1.05863E+02  5.17491E+02
 -4.93787E+02  7.52309E+02 -3.84572E+02  6.41535E+02  3.48778E+02 -1.54378E+02 -2.40510E+02 -1.51533E+02
  1.14528E+03  6.22684E+02 -8.71350E+02  7.41885E+02  1.15138E+02  7.52446E+02  7.86534E+02  1.12596E+02
 -4.61595E+02  1.07314E+03 -5.17852E+02  8.03734E+02  3.70984E+02 -1.41834E+03 -9.04105E+02  3.20539E+02
 -1.90132E+02 -4.80100E+02  1.27690E+02 -2.10367E+02  1.12393E+03 -3.90159E+02  7.07560E+02  3.52972E+02
  3.11517E+02  1.52522E+02 -1.29749E+03 -1.02573E+03  1.25876E+02  1.38900E+03 -4.37680E+02 -1.14185E+03
  1.48203E+02 -1.28801E+03 -1.41788E+03 -1.79503E+02  4.83773E+02  4.28045E+02 -6.69660E+02  1.66768E+03
 -1.40542E+03  2.49303E+02 -3.37833E+02 -1.84700E+02  3.38900E+02 -2.14258E+03 -1.32405E+02 -3.71576E+02
  2.09284E+02 -6.75177E+01 -4.16884E+02 -1.10796E+03 -1.01291E+02  1.46603E+03 -1.04678E+02  4.04875E+02
