 $NMID ID='MM_0lb_SNR200_18hz_g55_8.RAW', FMTDAT='(8E13.5)'
 TRAMP=1., VOLUME=1. $END
  3.09007E+05 -1.12690E+03  3.36844E+05  2.50620E+05  8.45998E+04  3.36779E+05 -1.32409E+05  2.50268E+05
 -1.90282E+05  8.35144E+04 -1.12006E+05 -3.35906E+04  1.53946E+03 -5.01158E+04  5.33180E+04  2.76083E+02
  3.56839E+04  5.34852E+04 -1.77290E+04  7.49304E+04 -5.98009E+04  6.35842E+04 -8.40195E+04  3.15845E+04
 -8.01744E+04 -1.06821E+04 -5.64794E+04 -5.02453E+04 -1.44785E+04 -6.89500E+04  2.74004E+04 -4.53306E+04
  3.98025E+04  3.72726E+03  1.51660E+04  4.76906E+04 -3.36587E+04  4.54932E+04 -6.60362E+04 -2.36515E+02
 -5.33554E+04 -5.60794E+04 -5.54491E+03 -7.62362E+04  3.40027E+04 -5.37086E+04  4.70541E+04 -1.68343E+04
  4.14433E+04  1.14142E+04  3.15422E+04  2.49519E+04  1.58907E+04  2.88751E+04 -4.83784E+03  2.59360E+04
 -2.24838E+04  1.29752E+04 -1.79803E+04 -3.63129E+03  4.48118E+03 -8.03950E+03  2.12833E+04  1.10201E+04
  7.65150E+03  3.34853E+04 -2.98881E+04  3.58553E+04 -6.22985E+04  2.10108E+03 -5.58249E+04 -4.33540E+04
 -1.26852E+04 -6.16294E+04  3.88182E+04 -4.42577E+04  5.74994E+04 -2.59118E+03  3.26392E+04  3.12526E+04
 -6.05815E+03  3.43578E+04 -2.94668E+04  1.49069E+04 -3.00320E+04 -4.90990E+03 -1.64731E+04 -1.11634E+04
 -8.05614E+03 -1.18090E+04 -6.65279E+02 -1.79531E+04  7.01350E+03 -2.24670E+04  1.47678E+04 -1.36604E+04
  1.30908E+04  5.14109E+03 -6.41132E+03  1.29887E+04 -2.03905E+04 -4.47081E+03 -7.91145E+03 -3.12790E+04
  2.22044E+04 -4.02415E+04  4.58008E+04 -1.95851E+04  4.39115E+04  1.81115E+04  1.52587E+04  4.31955E+04
 -1.53059E+04  3.17036E+04 -2.41846E+04  2.27490E+02 -9.24751E+03 -2.73632E+04  2.17731E+04 -3.18056E+04
  3.94595E+04 -6.76279E+03  3.43258E+04  2.31635E+04  1.72565E+04  4.45381E+04 -7.31863E+03  4.72540E+04
 -2.95412E+04  3.12026E+04 -3.94977E+04  8.47504E+03 -4.06835E+04 -1.54429E+04 -2.07269E+04 -3.54183E+04
  7.38684E+03 -3.60984E+04  2.79967E+04 -1.38822E+04  2.66918E+04  1.00735E+04  3.41666E+03  1.76879E+04
 -1.24631E+04  7.46693E+03 -1.06589E+04 -6.81483E+03  5.63623E+03 -1.04259E+04  1.87394E+04  6.46601E+03
  1.18453E+04  2.15835E+04 -5.45693E+03  2.41381E+04 -2.24027E+04  9.10882E+03 -2.54275E+04 -5.19103E+03
 -1.86145E+04 -1.70665E+04 -6.53355E+03 -1.75307E+04  4.05954E+03 -1.57188E+04  1.39710E+04 -1.60021E+04
  2.30784E+04 -1.18920E+04  2.92425E+04  2.17260E+03  2.20960E+04  1.77612E+04  3.29588E+03  3.38417E+04
 -1.60271E+04  2.85834E+04 -2.68821E+04  1.02254E+04 -2.00426E+04 -1.06948E+04 -3.79399E+03 -1.19906E+04
  1.98782E+03 -4.52029E+03 -3.37650E+03  5.64987E+03 -1.41092E+04  6.12893E+03 -1.42812E+04 -6.63124E+03
 -8.93392E+03 -1.78800E+04  3.99437E+03 -1.98588E+04  1.41948E+04 -1.44982E+04  1.45381E+04 -3.06732E+03
  9.09920E+03  1.15960E+04 -2.06276E+03  1.71615E+04 -1.00823E+04  1.01184E+04 -1.69371E+04 -4.06978E+03
 -1.17250E+04 -1.59499E+04 -1.58476E+03 -1.89679E+04  8.00733E+03 -1.69514E+04  1.62561E+04 -8.08341E+03
  1.51516E+04  3.52093E+02  1.12315E+04  5.00787E+03  5.23103E+03  1.27748E+03  8.25315E+03 -9.47235E+02
  1.60066E+04  1.76858E+03  1.53864E+04  1.29984E+04  1.03631E+04  2.76500E+04 -3.23426E+03  2.87060E+04
 -1.63192E+04  2.25180E+04 -2.66355E+04  1.04731E+04 -2.71876E+04 -2.16449E+03 -2.30200E+04 -1.63869E+04
 -9.97851E+03 -2.24370E+04  5.97984E+03 -2.11828E+04  1.86245E+04 -1.20781E+04  1.60873E+04  4.13607E+03
  6.92116E+03  1.19291E+04 -6.33778E+03  1.00194E+04 -1.46588E+04  2.74573E+03 -1.08347E+04 -8.47937E+03
 -1.15063E+03 -1.35198E+04  6.69341E+03 -9.92203E+03  7.70361E+03 -7.37527E+02  2.18201E+03  5.00582E+03
 -5.84983E+03  2.54069E+03 -3.74874E+03 -5.22225E+03  6.87207E+02 -1.07972E+04  8.43635E+03 -1.11548E+04
  1.30740E+04 -5.52590E+03  1.40938E+04  3.45952E+03  1.26236E+04  9.44894E+03  5.82570E+03  1.45332E+04
 -2.72875E+03  1.76159E+04 -1.06372E+04  1.12578E+04 -1.18952E+04  3.11363E+03 -8.46795E+03 -1.67118E+03
 -4.37105E+03 -3.19633E+03 -9.88719E+02  1.03294E+03 -2.18251E+03  2.64871E+03 -3.81089E+03  2.92566E+03
 -8.88866E+03  1.05108E+02 -9.43794E+03 -8.93898E+03 -4.01251E+03 -1.21516E+04  3.29977E+03 -8.69549E+03
  8.86964E+03 -4.66317E+03  5.62044E+03  3.05434E+03  3.70590E+02  3.17550E+03 -3.78273E+03  5.78124E+01
 -4.94068E+03 -5.84176E+03 -4.38109E+02 -8.68846E+03  5.70315E+03 -8.90793E+03  1.17422E+04 -4.56542E+03
  1.28913E+04  1.76176E+03  9.69460E+03  6.69369E+03  2.34818E+03  9.53558E+03 -5.47733E+03  9.28359E+03
 -7.71483E+03  2.88927E+03 -3.52366E+03 -1.05118E+03  1.19663E+03 -2.33687E+03  4.94255E+03 -1.60477E+03
  4.98583E+03  4.62076E+03  1.84664E+03  7.07830E+03 -5.14480E+03  6.30806E+03 -8.28508E+03  2.48286E+03
 -5.92170E+03 -2.98144E+03  7.22158E+02 -6.87781E+03  4.08638E+03 -3.52957E+03  4.59289E+03  1.40871E+03
  4.37907E+02  4.21937E+03 -3.44238E+03  5.42730E+03 -5.96385E+03  1.54153E+03 -5.14020E+03 -2.49358E+03
 -3.85757E+03 -7.74365E+03  1.75471E+03 -8.31172E+03  6.95241E+03 -5.09490E+03  7.22472E+03  9.02765E+02
  4.92453E+03  6.13300E+03  2.30821E+02  6.53658E+03 -4.80280E+03  4.03235E+03 -6.44023E+03 -3.57176E+02
 -6.02549E+03 -4.89999E+03 -9.15585E+02 -5.14200E+03  2.51614E+03 -4.67899E+03  3.37088E+03 -1.33990E+03
  3.45710E+03  8.40106E+02  8.69183E+02  4.97773E+02  1.05895E+03 -1.24996E+02  6.05704E+02 -1.72398E+03
  4.49021E+03 -1.46860E+03  5.74408E+03  5.69349E+02  6.95112E+03  3.46321E+03  5.47367E+03  8.17012E+03
 -2.71456E+03  9.99742E+03 -8.94717E+03  7.78208E+03 -1.14769E+04  7.92857E+01 -9.11446E+03 -3.01705E+03
 -4.57438E+03 -7.90889E+03 -1.05950E+03 -5.25786E+03  1.93459E+03 -2.08982E+03  1.18471E+03 -3.52192E+03
 -2.29187E+02 -2.26451E+03  3.03185E+03 -3.44651E+03  4.14534E+03 -9.59039E+02  3.57453E+03  1.95529E+02
  5.57392E+03  5.48340E+02  1.99896E+03  3.21653E+03 -1.29107E+03  4.21117E+03 -4.91147E+03  3.31699E+03
 -4.83270E+03 -1.78253E+03 -2.60447E+03 -2.86865E+03  7.17322E+02 -5.40837E+03  3.73488E+03 -5.91841E+03
  5.31419E+03 -3.11046E+03  7.68682E+03  8.02203E+02  5.13102E+03  5.32359E+03  1.51952E+03  7.00426E+03
 -2.08313E+03  5.89654E+03 -4.17131E+03  2.58472E+03 -2.28556E+03 -4.51012E+02 -8.14230E+02 -1.06396E+03
  3.37612E+02  3.24344E+02 -1.09645E+03  1.30996E+03 -2.90847E+03  3.71645E+02 -4.88497E+03 -1.75434E+02
 -1.68140E+03 -4.79404E+03  3.87942E+02 -4.32447E+03  3.04435E+03 -4.68794E+03  4.93713E+03 -1.61909E+03
  4.40141E+03  2.74878E+03  1.42284E+03  3.75530E+03 -8.81657E+02  5.05525E+03 -3.57390E+03  3.12372E+03
 -4.70751E+03  6.25068E+02 -4.18413E+03 -2.07048E+03 -5.26688E+02 -3.66128E+03  2.03298E+03 -2.11228E+03
  4.40592E+03 -2.00642E+03  2.27490E+03  6.46793E+02  1.92789E+03  2.22006E+03  2.45493E+03  7.19930E+02
  1.84337E+03  1.04227E+03  2.07712E+03  1.54467E+03 -8.60836E+01  1.84971E+03  3.61529E+02  1.60681E+03
 -8.76017E+02  3.65917E+03 -3.59062E+03  3.80676E+03 -2.74196E+03  2.24859E+03 -4.40439E+03 -1.89249E+03
 -3.03389E+03 -3.90664E+03  1.68519E+02 -4.24958E+03  2.10806E+03 -2.26418E+03  3.26396E+03 -9.81721E+02
  2.71186E+03  6.87900E+02  1.30384E+03  3.17078E+03 -1.75504E+03  1.34930E+03 -2.47949E+03  1.34812E+03
  9.10870E+02 -2.33570E+03  2.29083E+03 -2.12951E+03  1.87320E+03 -5.29454E+02  1.47682E+03  9.56217E+02
  8.27294E+02  6.38278E+02  1.16793E+03  3.16316E+02  6.26051E+02 -6.33903E+00  6.59838E+02  3.30802E+02
  2.12106E+02 -3.87049E+02  2.75204E+03  8.40069E+02 -2.56562E+02  2.43180E+03 -1.23178E+03  2.40233E+03
 -1.29161E+03  1.05714E+03 -2.02010E+03  5.67484E+02 -1.89226E+03 -7.66083E+02 -2.19408E+02 -8.39118E+02
  3.89015E+02 -2.21448E+03  7.21019E+02 -1.85214E+03  9.77292E+02  4.22953E+02 -6.97574E+02  2.02679E+03
 -2.41179E+03  1.52760E+03 -1.88305E+03 -2.50138E+03  1.48194E+02 -2.18430E+03  5.06837E+02 -2.10869E+03
 -7.89408E+02 -1.01294E+03  1.91613E+03  8.00349E+02  2.26853E+03 -1.06897E+03  7.24344E+02  1.32833E+03
 -1.25105E+02  4.87304E+02 -1.23699E+03  2.49805E+02  4.47867E+02 -1.27023E+03  7.77424E+02 -1.36649E+03
  1.04883E+03  5.64592E+02  2.24823E+03  1.12514E+03  1.73120E+03  2.41498E+03 -3.99914E+02  1.49959E+03
 -8.59554E+02 -6.30088E+00 -4.76995E+02 -8.68701E+02 -1.91166E+03 -1.83480E+03  8.03617E+02 -5.37587E+02
  2.99718E+03 -1.48021E+03  8.33078E+02  1.08420E+03  1.04196E+02  1.05048E+03  5.21601E+02  8.31173E+02
  4.73904E+01  2.02864E+03 -1.08250E+03  1.10956E+03  8.04637E+01  9.86581E+02  1.29689E+02  8.68974E+02
 -1.36302E+03  1.57448E+03 -2.10844E+03  5.84204E+02 -2.68895E+03  1.02738E+03 -2.46931E+03 -1.35498E+03
 -1.68461E+02 -2.49136E+03  1.22928E+03 -4.13045E+03  1.02187E+03 -3.04129E+03  3.15436E+03 -2.11295E+03
  2.38265E+03 -3.33628E+02  8.55185E+02  7.96122E+01 -3.34886E+02  1.86014E+03 -3.35308E+02  1.19793E+03
 -7.57716E+02  1.10659E+03 -1.52637E+03 -1.64615E+02 -1.43846E+03 -6.35343E+02 -9.81848E+02  1.08316E+03
 -9.77396E+02 -2.06789E+02 -1.26560E+03 -1.01140E+02  2.76080E+02  3.55510E+02  3.69471E+02 -9.36744E+02
  8.10290E+02 -4.76745E+02  6.75136E+02  7.63978E+02  1.51258E+03  1.57117E+03 -5.26652E+02  2.16163E+03
 -2.89617E+02  3.24014E+03 -1.21186E+03  1.51717E+03 -1.92518E+03 -8.68453E+02 -7.41040E+02 -7.32234E+02
 -1.08835E+01 -1.04703E+03  2.74683E+02 -1.35200E+03  5.70588E+02 -1.62447E+03  1.53669E+03  1.25570E+01
  1.06903E+03  6.21476E+02 -1.10878E+03  1.09045E+03  5.84422E+02 -2.87345E+02  1.08167E+03 -1.46579E+03
 -5.26070E+02  1.39207E+02  1.09589E+03  4.75498E+02  1.23302E+03  2.90262E+02  1.46217E+03  5.57729E+02
 -2.83120E+02 -3.60353E+02  4.66208E+02 -9.98673E+02 -8.03269E+02 -2.76163E+01 -4.88491E+02 -6.67686E+02
  5.11444E+02 -1.11099E+03  1.02154E+03 -4.25268E+02 -3.09944E+02 -7.81107E+02  8.98086E+02  1.13663E+02
  2.01645E+02  9.60039E+02  2.41314E+02  1.62608E+03 -3.92681E+02  1.53323E+03 -1.49582E+03 -2.71337E+02
 -1.07454E+02  5.29953E+02  1.81145E+02  2.12361E+02 -6.39577E+02  9.97951E+01 -1.34325E+03  7.73851E+01
 -9.93121E+02 -6.42093E+02 -3.91106E+02 -2.94751E+03  4.97683E+02 -1.22448E+03  1.74492E+03  6.20860E+02
  1.70220E+03 -2.11492E+02 -8.07326E+01  5.43579E+02  1.01637E+03  1.48275E+03 -7.74820E+02  6.67307E+02
