 $NMID ID='MM_0lb_SNR200_14hz_g40_5.RAW', FMTDAT='(8E13.5)'
 TRAMP=1., VOLUME=1. $END
  3.09272E+05  1.20186E+03  3.36166E+05  2.49288E+05  8.42924E+04  3.37348E+05 -1.32434E+05  2.50223E+05
 -1.91358E+05  8.24096E+04 -1.11953E+05 -3.29071E+04  1.74795E+03 -5.01564E+04  5.32576E+04 -5.12502E+02
  3.59939E+04  5.33007E+04 -1.74125E+04  7.56769E+04 -6.03841E+04  6.42379E+04 -8.35015E+04  3.18049E+04
 -8.02817E+04 -1.08436E+04 -5.69623E+04 -5.09837E+04 -1.48108E+04 -6.98195E+04  2.79096E+04 -4.49994E+04
  4.00474E+04  4.41132E+03  1.59974E+04  4.67341E+04 -3.44723E+04  4.73167E+04 -6.61829E+04 -1.23829E+03
 -5.24655E+04 -5.68451E+04 -7.30208E+03 -7.60798E+04  3.39573E+04 -5.45853E+04  4.78684E+04 -1.72317E+04
  4.26566E+04  1.11988E+04  3.17368E+04  2.54239E+04  1.62311E+04  2.94327E+04 -4.81978E+03  2.67438E+04
 -2.17345E+04  1.28058E+04 -1.84972E+04 -5.84546E+03  4.68617E+03 -7.95788E+03  2.16720E+04  1.21976E+04
  7.81494E+03  3.51406E+04 -3.05288E+04  3.41159E+04 -6.35497E+04  2.27409E+03 -5.58790E+04 -4.20264E+04
 -1.31332E+04 -6.26507E+04  3.95503E+04 -4.50603E+04  5.64657E+04 -2.16360E+03  3.30259E+04  3.16402E+04
 -6.36117E+03  3.52448E+04 -3.02925E+04  1.41173E+04 -3.06587E+04 -4.43683E+03 -1.64099E+04 -1.11532E+04
 -8.04013E+03 -1.29831E+04 -3.46425E+02 -1.77054E+04  6.92926E+03 -2.30701E+04  1.48195E+04 -1.42597E+04
  1.14497E+04  4.99648E+03 -7.26057E+03  1.25997E+04 -2.02952E+04 -3.98690E+03 -7.77748E+03 -3.25747E+04
  2.20240E+04 -4.37544E+04  4.74075E+04 -1.95448E+04  4.48348E+04  1.93476E+04  1.58022E+04  4.44575E+04
 -1.51454E+04  3.32000E+04 -2.47929E+04  1.93035E+03 -9.90076E+03 -2.75184E+04  2.02540E+04 -3.47341E+04
  4.00964E+04 -9.40884E+03  3.44307E+04  2.33894E+04  1.66678E+04  4.52223E+04 -8.01584E+03  4.89473E+04
 -3.08809E+04  3.31407E+04 -4.09593E+04  9.23977E+03 -4.09719E+04 -1.52438E+04 -2.18782E+04 -3.81018E+04
  7.23292E+03 -3.68236E+04  2.96694E+04 -1.34846E+04  2.85022E+04  1.03370E+04  4.41446E+03  1.75215E+04
 -1.30760E+04  6.96336E+03 -1.02182E+04 -8.50971E+03  5.97615E+03 -1.10355E+04  1.82696E+04  6.33118E+03
  1.36416E+04  2.19661E+04 -5.37152E+03  2.47769E+04 -2.33383E+04  1.09419E+04 -2.60690E+04 -4.50925E+03
 -2.06097E+04 -1.79512E+04 -8.31326E+03 -1.86852E+04  3.42087E+03 -1.74943E+04  1.57599E+04 -1.60486E+04
  2.44320E+04 -1.24947E+04  3.14539E+04  2.10821E+03  2.29233E+04  1.91732E+04  4.75394E+03  3.58888E+04
 -1.59163E+04  3.01569E+04 -2.82867E+04  1.03352E+04 -2.06892E+04 -1.13702E+04 -5.07636E+03 -1.26339E+04
  2.56792E+03 -1.68681E+03 -4.78308E+03  7.52448E+03 -1.45730E+04  5.40064E+03 -1.62232E+04 -6.02992E+03
 -9.79376E+03 -1.73863E+04  5.24166E+03 -2.24760E+04  1.44370E+04 -1.66721E+04  1.65193E+04 -1.38651E+03
  1.02651E+04  1.33216E+04  4.26526E+02  1.79951E+04 -1.28960E+04  1.08894E+04 -1.94022E+04 -3.88646E+03
 -1.41081E+04 -1.63633E+04 -1.76761E+03 -2.32270E+04  1.04241E+04 -1.77716E+04  1.82368E+04 -1.00182E+04
  1.82341E+04  1.95159E+02  1.17532E+04  4.15093E+03  6.42411E+03 -9.21863E+00  9.56156E+03 -1.85522E+03
  1.70157E+04  2.27034E+03  1.69043E+04  1.49369E+04  1.18137E+04  2.98014E+04 -2.11675E+03  3.29975E+04
 -1.94319E+04  2.66253E+04 -3.06196E+04  1.23683E+04 -3.14999E+04 -1.46525E+03 -2.61425E+04 -1.81834E+04
 -1.14834E+04 -2.64297E+04  9.58560E+03 -2.35462E+04  2.09693E+04 -1.18545E+04  1.77948E+04  5.61639E+03
  6.89451E+03  1.28420E+04 -7.73651E+03  1.31341E+04 -1.57209E+04  2.69722E+03 -1.17900E+04 -9.21409E+03
  8.26250E+02 -1.61197E+04  7.55903E+03 -1.12622E+04  1.09518E+04 -1.78152E+03  1.36893E+03  6.36902E+03
 -6.18209E+03  2.44779E+03 -5.47072E+03 -4.12326E+03 -3.16946E+01 -1.26395E+04  9.22228E+03 -1.19230E+04
  1.73977E+04 -6.41200E+03  1.65283E+04  3.06108E+03  1.52491E+04  1.31907E+04  6.46174E+03  1.93920E+04
 -1.82093E+03  2.12681E+04 -1.23363E+04  1.20737E+04 -1.58706E+04  3.57684E+03 -1.14529E+04 -5.07837E+03
 -5.00941E+03 -5.38250E+03 -6.68080E+02  2.09744E+02 -1.54059E+03  3.01070E+03 -4.69781E+03  4.69934E+03
 -7.98987E+03 -4.20013E+02 -1.05186E+04 -9.19180E+03 -4.92880E+03 -1.33742E+04  4.52325E+03 -1.03519E+04
  8.83048E+03 -4.69205E+03  6.51821E+03  1.95062E+03  1.50554E+03  4.69493E+03 -4.21756E+03  5.49631E+02
 -4.51916E+03 -7.45038E+03 -1.11067E+03 -1.07685E+04  5.92933E+03 -1.03214E+04  1.20754E+04 -4.76101E+03
  1.62504E+04  1.78127E+03  1.05114E+04  8.91787E+03  1.79751E+03  1.22542E+04 -5.58373E+03  1.11745E+04
 -7.46126E+03  3.77549E+03 -4.28360E+03 -1.75931E+03  1.21624E+03 -1.87947E+03  6.70280E+03 -2.86206E+03
  4.54496E+03  4.22430E+03  1.09329E+03  8.91526E+03 -5.29405E+03  7.49578E+03 -1.02079E+04  1.54828E+03
 -7.41389E+03 -4.79311E+03 -9.67096E+02 -9.62451E+03  6.85782E+03 -4.72437E+03  5.95039E+03  8.80975E+02
  1.51963E+03  4.98002E+03 -5.16304E+03  6.42487E+03 -8.44751E+03  3.36341E+03 -5.76447E+03 -1.72911E+03
 -4.44335E+03 -8.93554E+03  1.96715E+03 -1.01505E+04  9.15502E+03 -6.98920E+03  9.66743E+03  1.99720E+03
  5.82031E+03  7.90794E+03 -3.85705E+01  9.59308E+03 -7.70789E+03  5.84555E+03 -7.91871E+03  5.26303E+02
 -7.15619E+03 -6.74893E+03 -1.40786E+03 -7.13479E+03  3.14726E+03 -6.54453E+03  4.50900E+03 -2.03770E+03
  3.03378E+03  8.57581E+02 -1.71032E+03  2.80673E+03  5.37691E+01 -9.38231E+02  1.05491E+03 -3.66401E+03
  6.68569E+03 -1.71494E+03  9.06813E+03  3.91718E+02  7.98444E+03  6.28322E+03  7.75451E+03  1.21271E+04
 -3.33067E+03  1.22553E+04 -1.11972E+04  1.06380E+04 -1.55745E+04  1.73304E+03 -1.18300E+04 -4.69748E+03
 -6.39386E+03 -1.04093E+04  5.82405E+02 -7.83460E+03  2.53449E+03 -3.94958E+03  2.60296E+03 -3.11337E+03
  1.15708E+03 -2.39750E+03  2.21933E+03 -2.26826E+03  3.69474E+03 -1.97948E+03  5.35656E+03  6.05577E+02
  5.53020E+03  2.69753E+03  2.36701E+03  5.72006E+03 -1.39556E+03  5.08831E+03 -7.94428E+03  3.95920E+03
 -7.49470E+03 -1.69402E+03 -3.11717E+03 -5.27529E+03 -5.50531E+02 -8.16010E+03  5.29129E+03 -8.48413E+03
  8.55985E+03 -4.46341E+03  1.24435E+04 -2.45766E+02  8.86943E+03  8.09568E+03  9.01520E+02  8.84285E+03
 -3.30484E+03  8.50312E+03 -5.10240E+03  2.77005E+03 -3.78020E+03 -1.13488E+03 -1.56099E+03 -1.21486E+03
 -4.61057E+02 -9.63664E+02 -1.29132E+03  1.11551E+03 -3.38484E+03  1.74817E+03 -5.21439E+03 -3.24715E+02
 -2.06207E+03 -4.89831E+03  5.65072E+02 -8.13935E+03  5.00586E+03 -7.89644E+03  7.67937E+03 -8.62697E+02
  7.19395E+03  4.13904E+03  3.53834E+03  5.08534E+03 -8.60035E+02  7.10005E+03 -4.75895E+03  4.52954E+03
 -7.12217E+03  1.44690E+03 -5.29198E+03 -3.48912E+03 -1.07410E+03 -5.92248E+03  3.41298E+03 -3.09569E+03
  5.04660E+03 -1.99546E+03  2.94672E+03  1.42787E+03  7.27067E+01  3.43176E+03  6.16941E+02  1.17274E+03
  1.21120E+03  1.28216E+03  1.40509E+03  8.24529E+02  2.06915E+03  3.17478E+03  1.26050E+03  4.53194E+03
 -3.69829E+03  7.40456E+03 -5.24707E+03  6.59971E+03 -6.59749E+03  2.23431E+03 -7.71287E+03 -2.13812E+03
 -3.55746E+03 -7.76642E+03  2.39363E+03 -8.92073E+03  4.31028E+03 -4.55751E+03  5.77482E+03 -1.61000E+03
  4.58290E+03  3.45402E+03  5.27637E+02  2.70922E+03 -1.86701E+03  3.67117E+03 -2.46771E+03 -1.93386E+03
 -1.56404E+03 -2.96436E+03  2.34683E+03 -4.03274E+03  2.96800E+03 -2.64604E+03  2.79113E+03  1.75479E+03
  2.68772E+03  1.94171E+03  5.09581E+02  1.27375E+03 -4.14145E+02  3.92684E+02  1.07405E+03 -1.83066E+02
  1.64469E+02  1.16219E+03  2.07333E+03  1.59448E+03  2.61992E+03  5.09404E+03 -7.82705E+02  6.70286E+03
 -3.31795E+03  2.94401E+03 -4.09764E+03 -1.37800E+02 -4.88317E+03 -5.63741E+02 -2.18656E+03 -2.69985E+03
  6.57204E+02 -1.94241E+03  2.34752E+03 -5.60112E+02  1.88650E+02  1.28225E+03 -9.96639E+02  2.18441E+03
 -2.81518E+03  1.22779E+03 -4.27287E+03 -2.30936E+03 -5.38993E+02 -3.61010E+03 -8.12425E+02 -2.99372E+03
  2.71355E+03 -9.44869E+02  2.33969E+03 -2.75643E+02  1.24142E+03  3.80243E+02  9.93118E+02  1.81978E+03
  4.38015E+01  4.82923E+02 -1.01600E+03 -2.71146E+03  1.03276E+03 -2.34821E+03  2.73817E+03 -2.44851E+03
  4.32041E+03  3.92227E+02  3.74491E+03  2.71106E+03  2.25642E+01  3.43108E+03 -1.28508E+03  4.85335E+03
 -4.05878E+03  1.12331E+03 -2.69976E+03 -1.39835E+03 -2.20745E+03 -2.87376E+03  2.50435E+02 -5.89402E+02
  2.64543E+03 -7.36636E+02  1.14364E+03  1.47576E+03 -3.70552E+02  3.34635E+03 -1.26692E+02  2.18775E+03
 -1.15026E+03  1.58392E+03 -1.19628E+03 -1.85930E+02  8.85002E+02  7.57471E+02 -1.64233E+03  1.90072E+03
 -1.02058E+03  1.91330E+03 -3.43573E+03  2.13834E+03 -3.75603E+03  4.45693E+02 -4.96276E+03 -2.93523E+03
 -2.16674E+03 -5.30769E+03  1.15352E+03 -7.09790E+03  3.26402E+03 -6.02782E+03  5.90038E+03 -2.73764E+03
  5.87268E+03  7.16565E+02  3.54138E+03  4.33298E+03 -1.99693E+02  4.67341E+03 -2.85204E+03  3.91266E+03
 -2.50551E+03  1.58362E+02 -1.80802E+03 -2.26803E+03 -1.00519E+03  8.77628E+02 -5.11360E+02  3.89316E+02
 -1.56309E+03 -1.59522E+02 -1.72683E+03 -6.75421E+02  1.13713E+02 -8.44832E+02  6.53880E+02 -2.19676E+03
  2.42288E+03 -9.31179E+02  2.26896E+03 -6.44822E+02  2.08310E+03  2.45565E+03 -1.61948E+03  3.68408E+03
 -3.25540E+03  3.68771E+03 -4.33279E+03  2.37594E+03 -4.33689E+03  2.69089E+02 -3.05053E+03 -3.47451E+03
 -3.13830E+02 -3.08137E+03  2.49616E+02 -3.51824E+03  1.58056E+03 -2.80777E+03  3.60726E+03  5.87525E+01
  1.17819E+03  2.03690E+03 -1.29476E+02  1.30733E+03 -1.41545E+03 -8.46323E+02  7.07447E+02  1.41881E+02
  1.79236E+03  2.65597E+02  2.57539E+03  4.09286E+02  1.31268E+03  1.51557E+03  7.06491E+02  1.24686E+03
 -1.46822E+03  4.31345E+02 -1.70899E+03 -2.62442E+02 -6.20106E+02 -2.25364E+03  2.81396E+02 -3.59194E+03
  7.68420E+02 -4.10354E+03  2.53652E+03  3.97841E+02  2.38672E+03 -8.93439E+02  3.21234E+02  2.09003E+03
  6.81547E+01  2.36199E+03 -1.58045E+02  2.05785E+03 -7.51558E+02  1.77072E+03 -1.98534E+03 -5.72585E+02
 -1.20554E+03  5.72116E+02 -1.45560E+03  3.86181E+00 -1.05796E+03  3.18297E+02 -1.79425E+03 -8.67148E+02
 -2.96921E+03  1.03266E+03 -5.24160E+00 -1.99138E+03  1.31997E+03 -2.76221E+03  3.06158E+03 -6.63912E+02
  1.35488E+03 -4.19121E+02 -9.87884E+01  8.46501E+02  5.31613E+02  2.91087E+03 -2.33284E+03  1.24630E+03
