 $NMID ID='MM_0lb_SNR200_13hz_g55_62.RAW', FMTDAT='(8E13.5)'
 TRAMP=1., VOLUME=1. $END
  3.09155E+05 -1.49042E+02  3.38793E+05  2.51292E+05  8.48254E+04  3.37542E+05 -1.31947E+05  2.51520E+05
 -1.90217E+05  8.42802E+04 -1.11998E+05 -3.22201E+04  1.09709E+03 -4.97513E+04  5.43106E+04 -1.08892E+03
  3.45941E+04  5.38127E+04 -1.80327E+04  7.55810E+04 -6.19725E+04  6.47221E+04 -8.49356E+04  3.24642E+04
 -8.19253E+04 -1.20742E+04 -5.75515E+04 -5.30948E+04 -1.60323E+04 -7.00450E+04  2.83982E+04 -4.55499E+04
  4.15055E+04  4.06269E+03  1.75626E+04  4.77147E+04 -3.50580E+04  4.76550E+04 -6.78937E+04  7.67890E+02
 -5.34772E+04 -5.75703E+04 -7.81892E+03 -7.74451E+04  3.47214E+04 -5.54934E+04  4.96726E+04 -1.73265E+04
  4.41167E+04  1.21734E+04  3.20085E+04  2.71091E+04  1.59558E+04  2.87166E+04 -6.18553E+03  2.70936E+04
 -2.24183E+04  1.09903E+04 -1.89193E+04 -5.12406E+03  6.68025E+03 -8.32684E+03  2.32132E+04  1.26861E+04
  6.01898E+03  3.70117E+04 -3.10361E+04  3.58104E+04 -6.41403E+04  1.37655E+03 -5.80663E+04 -4.31416E+04
 -1.31568E+04 -6.39996E+04  4.06575E+04 -4.50307E+04  6.05371E+04 -1.92292E+03  3.54219E+04  3.37892E+04
 -5.70720E+03  3.83416E+04 -3.12810E+04  1.66197E+04 -3.24527E+04 -4.17474E+03 -1.73987E+04 -1.13136E+04
 -9.03406E+03 -1.35325E+04 -2.12397E+03 -1.78564E+04  8.14142E+03 -2.38002E+04  1.57125E+04 -1.29325E+04
  1.09815E+04  5.97846E+03 -7.80645E+03  1.20825E+04 -2.14597E+04 -5.03590E+03 -8.48813E+03 -3.46317E+04
  2.38767E+04 -4.52044E+04  4.92616E+04 -1.97184E+04  4.60202E+04  1.86921E+04  1.66083E+04  4.38068E+04
 -1.65864E+04  3.50820E+04 -2.67318E+04  1.25472E+03 -1.04256E+04 -2.73443E+04  2.04551E+04 -3.38260E+04
  4.21528E+04 -1.08398E+04  3.70159E+04  2.46984E+04  1.86266E+04  4.72215E+04 -9.92908E+03  5.27047E+04
 -3.42057E+04  3.42777E+04 -4.40289E+04  1.12773E+04 -4.52996E+04 -1.85988E+04 -2.52439E+04 -3.89229E+04
  8.11710E+03 -4.04461E+04  3.16055E+04 -1.39741E+04  2.98256E+04  9.67381E+03  4.70265E+03  1.94741E+04
 -1.44524E+04  8.35355E+03 -1.10742E+04 -7.39559E+03  5.23067E+03 -1.04334E+04  1.87328E+04  6.18830E+03
  1.36814E+04  2.15059E+04 -5.56286E+03  2.58116E+04 -2.35868E+04  1.24172E+04 -2.92959E+04 -3.87675E+03
 -2.24754E+04 -1.84024E+04 -9.73568E+03 -2.18969E+04  5.11581E+03 -2.20780E+04  1.68441E+04 -1.99869E+04
  2.77967E+04 -1.25135E+04  3.49643E+04  4.20756E+03  2.56546E+04  2.17324E+04  3.12402E+03  3.88673E+04
 -1.89412E+04  3.27954E+04 -2.84278E+04  1.13708E+04 -2.07948E+04 -1.02427E+04 -4.92972E+03 -1.39219E+04
  2.28014E+03 -2.26338E+03 -6.37813E+03  8.18738E+03 -1.80788E+04  4.10314E+03 -1.78542E+04 -7.85003E+03
 -1.17974E+04 -2.13649E+04  5.70449E+03 -2.38429E+04  1.69150E+04 -1.83596E+04  1.88705E+04 -2.00390E+03
  1.11789E+04  1.56360E+04 -7.14864E+01  2.04051E+04 -1.42323E+04  1.22224E+04 -2.01386E+04 -4.45065E+03
 -1.55708E+04 -1.80884E+04 -3.17641E+03 -2.49015E+04  1.10795E+04 -2.02708E+04  2.03600E+04 -8.77910E+03
  1.79391E+04  8.30807E+01  1.43839E+04  4.72790E+03  6.94734E+03  1.48977E+03  1.07460E+04 -1.40378E+03
  1.91459E+04  2.84868E+03  2.04048E+04  1.54603E+04  1.45625E+04  3.23280E+04 -4.26795E+03  3.73580E+04
 -2.11058E+04  2.99933E+04 -3.38786E+04  1.55410E+04 -3.73023E+04 -3.34920E+03 -3.06506E+04 -2.21428E+04
 -1.28285E+04 -3.14472E+04  1.00540E+04 -2.89984E+04  2.40150E+04 -1.22034E+04  1.99978E+04  5.62912E+03
  7.84185E+03  1.61617E+04 -1.05601E+04  1.39957E+04 -1.72225E+04  2.27537E+03 -1.46337E+04 -1.15038E+04
 -2.38695E+02 -1.52068E+04  8.65981E+03 -1.21794E+04  1.13752E+04 -2.97506E+02  1.68768E+03  6.56544E+03
 -8.32969E+03  3.96572E+03 -7.88005E+03 -5.49936E+03 -8.57507E+02 -1.49208E+04  1.05782E+04 -1.65356E+04
  1.80662E+04 -1.04645E+04  1.98883E+04  3.11863E+03  1.86016E+04  1.33359E+04  8.57490E+03  2.22048E+04
 -5.15672E+03  2.51587E+04 -1.63226E+04  1.53024E+04 -1.59128E+04  2.51924E+03 -1.25653E+04 -4.78836E+03
 -5.81772E+03 -5.92150E+03 -6.15824E+02  3.40382E+02 -2.23561E+03  8.34590E+02 -6.13407E+03  4.49151E+03
 -1.19051E+04 -5.62198E+02 -1.27093E+04 -8.99135E+03 -5.23084E+03 -1.50175E+04  5.58662E+03 -1.27883E+04
  1.14613E+04 -5.14923E+03  6.65460E+03  2.50138E+03 -1.04175E+02  5.69750E+03 -5.81915E+03  9.57416E+02
 -5.92994E+03 -7.21926E+03 -1.05503E+03 -1.23628E+04  6.82867E+03 -1.18630E+04  1.45098E+04 -8.30135E+03
  1.82028E+04  1.57053E+03  1.37537E+04  1.07147E+04  3.32329E+03  1.40034E+04 -8.19290E+03  1.34106E+04
 -1.15795E+04  3.79166E+03 -5.45436E+03 -1.18395E+03  6.63252E+02 -3.15263E+03  7.26778E+03 -1.09217E+03
  5.62708E+03  4.97557E+03  2.01798E+03  9.35621E+03 -6.92875E+03  1.07141E+04 -1.23645E+04  2.04797E+03
 -7.54814E+03 -6.86364E+03  1.02520E+03 -1.02819E+04  6.66973E+03 -5.98362E+03  5.44070E+03  3.93444E+03
  6.77374E+02  7.53955E+03 -6.49460E+03  8.92152E+03 -1.04555E+04  3.73713E+03 -9.66309E+03 -3.67436E+03
 -6.80050E+03 -1.00473E+04  2.60894E+03 -1.26847E+04  1.13328E+04 -8.25553E+03  1.26507E+04  2.71596E+03
  6.84836E+03  1.01033E+04 -5.18137E+02  1.22234E+04 -7.69564E+03  6.45825E+03 -9.46050E+03 -1.38501E+03
 -6.71623E+03 -7.08860E+03 -7.64905E+02 -9.17989E+03  5.37256E+03 -6.11994E+03  5.87792E+03 -3.78119E+03
  3.46889E+03  1.73707E+03 -5.56064E+01  2.91849E+03  5.32305E+02 -3.25559E+03  2.39885E+03 -4.44207E+03
  7.51003E+03 -3.80166E+03  1.07476E+04  1.26794E+03  1.11781E+04  7.97193E+03  7.21291E+03  1.47795E+04
 -2.90745E+03  1.60962E+04 -1.56464E+04  1.33102E+04 -1.70472E+04  3.06315E+03 -1.43812E+04 -6.20222E+03
 -7.85582E+03 -1.28661E+04 -6.39318E+02 -8.90542E+03  3.95796E+03 -4.84806E+03  3.57734E+03 -3.36432E+03
  2.01244E+03 -2.42445E+03  2.21227E+03 -3.46215E+03  4.20786E+03 -2.00673E+03  5.73951E+03  1.03122E+02
  7.86111E+03  2.38142E+03  4.01291E+03  6.56489E+03 -2.16141E+03  6.45693E+03 -7.45819E+03  6.19256E+03
 -1.10879E+04 -7.44364E+02 -6.66614E+03 -6.18075E+03 -3.76808E+02 -1.09404E+04  7.17439E+03 -1.05467E+04
  1.13895E+04 -5.73030E+03  1.48916E+04  1.99574E+03  8.78632E+03  9.38274E+03  1.94933E+03  1.14565E+04
 -4.11331E+03  8.97117E+03 -5.83403E+03  4.04738E+03 -4.18847E+03 -2.19253E+03 -1.76221E+03 -2.34198E+03
  2.35277E+02 -5.81926E+02 -1.08727E+03  2.64244E+03 -5.29248E+03  3.29885E+03 -8.27927E+03 -6.42099E+02
 -3.56610E+03 -6.58172E+03  1.75751E+02 -1.10229E+04  5.45837E+03 -8.00843E+03  8.51822E+03 -2.26622E+03
  9.56480E+03  3.85312E+03  4.24646E+03  7.01345E+03 -1.46497E+03  9.14621E+03 -6.57974E+03  5.61609E+03
 -9.22187E+03  9.90027E+02 -7.02421E+03 -5.55444E+03 -8.24638E+02 -9.22747E+03  3.43307E+03 -5.28209E+03
  5.43280E+03 -2.03494E+03  3.09859E+03  1.31622E+03  1.65324E+02  1.80053E+03  1.06898E+03  1.10088E+03
  1.30869E+03  7.53017E+02  2.48808E+03  1.54187E+03  3.91234E+03  3.51659E+03  2.06015E+03  4.38901E+03
 -2.75734E+03  7.11690E+03 -7.19319E+03  8.01359E+03 -8.67179E+03  2.70758E+03 -9.76262E+03 -4.62021E+03
 -4.38365E+03 -9.55759E+03  2.38317E+03 -1.01424E+04  5.18051E+03 -6.31596E+03  7.54182E+03 -8.08789E+02
  5.40678E+03  3.70642E+03  1.44230E+03  6.49130E+03 -1.58131E+03  4.39553E+03 -3.30189E+03 -1.87165E+03
 -1.15307E+03 -4.12296E+03  2.95770E+03 -3.78512E+03  3.79941E+03 -1.15179E+03  2.72038E+03 -5.65637E+02
  1.62482E+03  1.64639E+03  7.02239E+02 -2.15665E+02 -2.13083E+03  1.86247E+03  2.50260E+03 -2.50205E+02
  1.03974E+03 -9.47882E+02  3.74001E+03  2.09149E+03  3.49779E+03  6.86207E+03 -5.36224E+02  6.17196E+03
 -4.35029E+03  4.81822E+03 -6.49051E+03  2.56739E+02 -4.57713E+03 -1.93469E+03 -1.22953E+03 -1.71190E+03
  6.75992E+02 -2.53452E+03  2.50408E+03 -1.55335E+03  2.62749E+03  1.77417E+03 -2.48866E+02  2.98149E+03
 -3.88950E+03  1.62829E+03 -4.40964E+03 -3.05124E+03 -2.73379E+03 -4.77162E+03  5.55951E+02 -4.63855E+03
  3.07997E+03 -3.08793E+03  3.67806E+03 -8.16431E+02  2.78742E+03  1.15449E+03  7.49200E+02  1.93514E+03
 -2.38347E+03  3.22245E+02 -2.62947E+03 -2.40381E+02  2.41735E+03 -3.40485E+03  4.15202E+03 -3.15905E+03
  5.22006E+03  2.46343E+02  6.62788E+03  2.97671E+03  1.50066E+03  6.00431E+03 -1.01440E+03  6.06496E+03
 -4.01110E+03  2.45581E+03 -4.37701E+03  3.93472E+02 -2.42778E+03 -5.03841E+03  1.79860E+03 -2.60888E+03
  3.86718E+03 -2.04884E+03  1.26735E+03 -2.06455E+01  1.23355E+03  2.63360E+03  5.06883E+02  2.31630E+03
 -1.21115E+03  2.45816E+03 -1.87243E+03  6.43407E+02 -9.43413E+01 -1.00721E+03 -1.00204E+03  1.81761E+03
 -1.38928E+03  1.11793E+03 -4.52221E+03  8.89826E+02 -5.03278E+03 -3.13389E+02 -5.80249E+03 -3.92269E+03
 -2.08521E+03 -7.43583E+03  1.27914E+03 -6.73983E+03  4.11682E+03 -5.49554E+03  6.96306E+03 -2.58656E+03
  5.78953E+03 -2.85525E+02  3.89307E+03  3.61828E+03  3.60404E+02  5.74516E+03 -2.55657E+03  4.66011E+03
 -3.20761E+03  3.16802E+03 -1.12343E+03 -5.98506E+02 -1.07552E+03  9.79868E+02 -1.96469E+03 -4.01949E+02
 -9.65399E+02 -1.84198E+01 -2.86289E+03  6.83279E+02  2.87388E+02 -1.53471E+02 -1.31515E+03 -6.03611E+02
  3.53412E+03 -1.51448E+03  3.40980E+03  9.44829E+02  3.86206E+03  2.46238E+03  1.13634E+03  6.06486E+03
 -2.67401E+03  5.29494E+03 -4.85547E+03  2.97977E+03 -5.79291E+03 -1.29347E+03 -3.39087E+03 -3.71680E+03
 -1.60888E+03 -4.59806E+03  2.05520E+03 -4.56265E+03  2.76560E+03 -2.70690E+03  2.26137E+03  4.73515E+02
  2.03217E+03  7.31216E+02  1.04751E+00  9.96824E+02 -1.13404E+03 -3.78802E+02  1.53263E+03 -1.43469E+03
  2.98431E+03 -2.18776E+01  1.58901E+03  2.13923E+03  7.71506E+02  1.34438E+03  5.41239E+02  2.92800E+03
 -1.54297E+03  4.71022E+03 -2.42013E+03 -9.00982E+02 -2.75152E+03 -2.68053E+03 -1.02948E+03 -4.11019E+03
  2.16151E+03 -3.02460E+03  3.06441E+03 -7.02008E+02  3.57987E+03  6.78536E+02  1.59073E+03  3.31190E+03
 -1.37430E+00  3.46363E+03 -5.87515E+02  2.24727E+03 -2.22508E+03  2.62597E+03 -9.18199E+02 -2.23084E+02
 -9.04130E+02 -3.56330E+02 -1.22000E+03  1.08650E+03 -2.56771E+03  3.22151E+02 -1.94422E+03 -1.11700E+03
 -2.19215E+03 -1.76477E+03 -1.39229E+03 -1.74691E+03  1.45210E+03 -4.84623E+03  2.50281E+03 -1.31745E+03
  2.89136E+03  7.39928E+02  1.88008E+03  2.50765E+03  7.46577E+01  3.48230E+03 -1.70241E+03  2.38430E+03
