 $NMID ID='MM_0lb_SNR200_7hz_g45_100.RAW', FMTDAT='(8E13.5)'
 TRAMP=1., VOLUME=1. $END
  3.09863E+05  1.36528E+03  3.36794E+05  2.49577E+05  8.47003E+04  3.38779E+05 -1.32392E+05  2.51869E+05
 -1.90325E+05  8.49490E+04 -1.13219E+05 -3.01725E+04 -3.41852E+01 -4.92050E+04  5.65240E+04 -4.93954E+02
  3.66816E+04  5.29808E+04 -1.53965E+04  7.55275E+04 -6.23303E+04  6.42479E+04 -8.66955E+04  3.38985E+04
 -8.18558E+04 -9.99377E+03 -5.87309E+04 -5.27676E+04 -1.55465E+04 -7.07121E+04  2.71083E+04 -4.71489E+04
  4.07416E+04  2.96318E+03  1.74036E+04  4.94361E+04 -3.46840E+04  4.90152E+04 -6.85218E+04 -7.87281E+02
 -5.47784E+04 -5.72397E+04 -6.98051E+03 -7.96440E+04  3.38201E+04 -5.87459E+04  5.04486E+04 -1.72677E+04
  4.57321E+04  9.97328E+03  3.37626E+04  2.79676E+04  1.84837E+04  3.10740E+04 -5.86764E+03  2.99028E+04
 -2.26231E+04  1.25472E+04 -2.00613E+04 -6.60807E+03  8.47143E+03 -7.21409E+03  2.47004E+04  1.30371E+04
  7.51546E+03  3.95035E+04 -3.36470E+04  3.79493E+04 -6.84022E+04  1.71006E+03 -6.02553E+04 -4.51455E+04
 -1.28501E+04 -6.66469E+04  4.22272E+04 -4.76695E+04  6.24635E+04 -2.48947E+03  3.78401E+04  3.32419E+04
 -6.38960E+03  3.96094E+04 -3.14458E+04  2.13073E+04 -3.31494E+04 -3.35710E+03 -1.96881E+04 -1.28552E+04
 -1.09862E+04 -1.70241E+04 -5.04753E+02 -2.06270E+04  8.24336E+03 -2.42630E+04  1.66068E+04 -1.17741E+04
  1.05864E+04  4.98699E+03 -1.13006E+04  1.27584E+04 -2.34412E+04 -8.10315E+03 -9.00519E+03 -3.82089E+04
  2.57062E+04 -4.63759E+04  5.27746E+04 -2.21017E+04  4.87056E+04  2.31210E+04  1.88663E+04  4.99873E+04
 -1.66342E+04  3.62114E+04 -2.81094E+04  3.87195E+03 -1.24754E+04 -3.11779E+04  2.01537E+04 -3.76556E+04
  4.68727E+04 -1.29888E+04  4.22315E+04  2.51357E+04  2.20843E+04  5.28433E+04 -8.32014E+03  5.95456E+04
 -3.88650E+04  4.01936E+04 -4.92881E+04  1.30574E+04 -4.96165E+04 -2.07039E+04 -2.53631E+04 -4.31705E+04
  8.34736E+03 -4.31892E+04  3.35411E+04 -1.74588E+04  3.14204E+04  1.27380E+04  4.09317E+03  2.07598E+04
 -1.52378E+04  1.06751E+04 -1.07040E+04 -8.34848E+03  5.35537E+03 -1.27828E+04  1.87366E+04  8.01259E+03
  1.45233E+04  2.10359E+04 -2.29635E+03  2.92940E+04 -2.31507E+04  1.50577E+04 -3.33651E+04 -2.76453E+03
 -2.60710E+04 -1.86160E+04 -1.26720E+04 -2.64200E+04  3.17111E+03 -2.78649E+04  2.22251E+04 -2.40788E+04
  3.23969E+04 -1.43307E+04  4.07935E+04  4.91815E+03  2.58572E+04  2.63918E+04  3.87655E+03  4.33524E+04
 -2.03036E+04  3.47045E+04 -3.37827E+04  1.21138E+04 -2.42639E+04 -1.17826E+04 -4.03063E+03 -1.35712E+04
  1.33866E+03  4.03385E+02 -9.44493E+03  9.94223E+03 -2.12043E+04  5.37359E+03 -2.17394E+04 -1.03445E+04
 -1.12239E+04 -2.54627E+04  4.90539E+03 -3.00234E+04  1.96282E+04 -2.17554E+04  2.42762E+04 -1.49019E+03
  1.57958E+04  1.73748E+04 -1.00605E+03  2.31680E+04 -1.82039E+04  1.46210E+04 -2.72497E+04 -4.50706E+03
 -1.93691E+04 -2.21392E+04 -4.32424E+03 -3.17186E+04  1.38066E+04 -2.52061E+04  2.44689E+04 -1.28871E+04
  2.47296E+04  4.77557E+02  1.74281E+04  6.14821E+03  9.69577E+03  1.75556E+03  1.34235E+04 -2.04596E+03
  2.35426E+04  3.91827E+03  2.77514E+04  1.90780E+04  1.84235E+04  4.11681E+04 -2.87189E+03  4.86090E+04
 -2.74927E+04  4.16181E+04 -4.60527E+04  2.10378E+04 -4.86188E+04 -4.46598E+03 -4.04885E+04 -2.77087E+04
 -1.43124E+04 -4.06778E+04  1.55800E+04 -3.49689E+04  2.82243E+04 -1.51402E+04  2.58877E+04  8.82784E+03
  8.99773E+03  1.83606E+04 -1.15595E+04  1.68917E+04 -2.21416E+04  3.16088E+03 -1.75857E+04 -1.18611E+04
 -6.91510E+02 -2.06567E+04  1.27870E+04 -1.52474E+04  1.37880E+04 -8.12470E+02  3.26527E+03  8.66231E+03
 -1.01445E+04  6.06165E+03 -1.12176E+04 -6.11997E+03 -3.20104E+03 -2.02154E+04  1.29856E+04 -2.15143E+04
  2.42407E+04 -1.16531E+04  3.09111E+04  2.78274E+03  2.75467E+04  2.26665E+04  1.13644E+04  3.28166E+04
 -8.37467E+03  3.32174E+04 -2.34179E+04  1.99366E+04 -2.61852E+04  5.21696E+03 -1.80773E+04 -5.35658E+03
 -7.88311E+03 -8.12401E+03 -7.35517E+02  1.94830E+02 -4.41799E+03  4.27127E+03 -9.16489E+03  5.34357E+03
 -1.53680E+04 -1.70015E+03 -1.47455E+04 -1.49357E+04 -6.45286E+03 -2.22731E+04  9.06703E+03 -1.78356E+04
  1.39596E+04 -8.12272E+03  9.36771E+03  2.49355E+03 -6.45570E+02  6.65132E+03 -7.36791E+03 -3.23577E+02
 -1.04657E+04 -1.06570E+04 -1.77738E+03 -1.92071E+04  1.17742E+04 -1.74968E+04  2.44803E+04 -9.51789E+03
  2.61348E+04  2.31245E+03  1.93001E+04  1.71746E+04  3.95155E+03  2.09693E+04 -9.63415E+03  1.60775E+04
 -1.45872E+04  5.28407E+03 -8.47320E+03 -3.63496E+03  2.18846E+03 -5.45602E+03  9.82041E+03 -1.98718E+02
  9.34782E+03  8.00791E+03  5.72400E+02  1.37092E+04 -1.00522E+04  1.22922E+04 -1.74561E+04  4.37878E+03
 -1.39995E+04 -9.52303E+03  2.37608E+02 -1.45130E+04  1.02817E+04 -8.05608E+03  1.08560E+04  2.77756E+03
  4.66928E+03  1.22260E+04 -9.25544E+03  1.38986E+04 -1.71105E+04  3.48507E+03 -1.52962E+04 -7.78434E+03
 -8.60298E+03 -1.90107E+04  4.88562E+03 -2.22661E+04  1.90209E+04 -1.32217E+04  1.81221E+04  4.50827E+03
  1.02185E+04  1.38411E+04 -1.58555E+03  1.95751E+04 -1.36799E+04  8.59913E+03 -1.43405E+04 -2.20940E+03
 -1.14017E+04 -1.11641E+04 -1.00708E+03 -1.42317E+04  7.95752E+03 -1.03266E+04  8.43749E+03 -3.40185E+03
  6.76643E+03  1.93202E+03 -2.68914E+02  1.18417E+03 -1.39128E+03 -5.82419E+03  3.36643E+03 -9.15409E+03
  1.40149E+04 -3.94171E+03  1.82628E+04  1.61622E+03  1.77234E+04  1.36373E+04  1.05774E+04  2.48214E+04
 -6.02405E+03  2.77552E+04 -2.35333E+04  2.19292E+04 -3.14220E+04  4.50509E+03 -2.33276E+04 -9.96997E+03
 -1.42536E+04 -1.84273E+04  1.61623E+03 -1.63921E+04  7.36393E+03 -8.29321E+03  4.42010E+03 -6.25596E+03
  6.92375E+03 -3.19316E+03  4.03259E+03 -3.41881E+03  5.74982E+03 -4.89575E+03  8.22912E+03 -1.77910E+03
  1.21857E+04  2.86654E+03  7.25490E+03  1.28522E+04 -2.23949E+03  1.51707E+04 -1.35265E+04  9.04371E+03
 -1.47841E+04 -2.80661E+03 -1.11566E+04 -1.23568E+04 -2.78420E+03 -2.14854E+04  1.07060E+04 -1.83234E+04
  2.00642E+04 -1.26351E+04  2.28764E+04  2.72071E+03  1.45035E+04  1.67919E+04  3.04668E+03  2.22456E+04
 -8.97267E+03  1.74617E+04 -1.33857E+04  6.42456E+03 -7.46444E+03 -2.19846E+03 -3.57739E+03 -2.03498E+03
 -2.35098E+03 -4.78121E+02 -1.84442E+03  4.51989E+03 -8.64300E+03  3.19677E+03 -1.26818E+04 -3.17181E+03
 -8.77599E+03 -1.23552E+04 -1.13057E+03 -1.69093E+04  1.17007E+04 -1.55949E+04  1.98180E+04 -4.88969E+03
  1.77139E+04  8.13784E+03  8.89121E+03  1.56611E+04 -3.12538E+03  1.87231E+04 -1.42829E+04  1.13992E+04
 -1.79131E+04  1.49474E+03 -1.26340E+04 -1.04333E+04 -1.28868E+03 -1.58297E+04  7.53827E+03 -1.09715E+04
  1.20397E+04 -4.18403E+03  8.90627E+03  3.23334E+03  1.32371E+03  6.27617E+03  1.27751E+03  2.81534E+03
  2.79059E+03  1.49685E+03  5.61457E+03  2.34617E+03  6.77719E+03  6.19692E+03  5.47726E+03  8.55601E+03
 -3.65851E+03  1.40902E+04 -1.34830E+04  1.45252E+04 -1.90838E+04  3.34494E+03 -2.05722E+04 -8.80552E+03
 -9.45462E+03 -2.02012E+04  3.16790E+03 -2.04728E+04  1.07473E+04 -1.43727E+04  1.40792E+04 -2.86726E+03
  1.17649E+04  5.99249E+03  3.68056E+03  1.33282E+04 -5.80102E+03  5.33909E+03 -9.40584E+03 -1.23307E+03
 -3.54572E+03 -8.68643E+03  4.64859E+03 -8.05891E+03  8.26153E+03 -4.38531E+03  6.52184E+03  3.73022E+03
  5.15452E+03  4.96080E+03  1.37304E+03  4.69802E+03 -1.06301E+03  1.72819E+03  3.25267E+03 -1.55368E+03
  4.49560E+03 -2.17614E+03  8.35939E+03  2.48263E+03  5.22238E+03  9.74970E+03 -1.59592E+03  1.39309E+04
 -9.90048E+03  9.05154E+03 -1.20417E+04  1.39467E+03 -1.09352E+04 -4.63484E+03 -6.12156E+03 -6.87284E+03
  1.52397E+03 -7.27016E+03  5.25947E+03 -4.15903E+03  3.96221E+03  3.18221E+03 -3.47413E+02  8.01532E+03
 -7.08923E+03  5.40032E+03 -8.08716E+03 -3.52047E+03 -6.36706E+03 -1.01137E+04  1.72056E+03 -1.13290E+04
  5.75050E+03 -6.93657E+03  8.39497E+03 -1.88544E+02  5.98665E+03  1.67372E+03  7.49708E+01  5.01095E+03
 -4.44845E+03  2.70530E+03 -6.54088E+03 -3.50409E+03  1.84020E+03 -8.70678E+03  1.01563E+04 -6.87904E+03
  1.19223E+04  1.11784E+03  1.08762E+04  8.70474E+03  2.72689E+03  1.20378E+04 -6.44051E+03  1.01896E+04
 -1.10051E+04  4.63928E+03 -1.08418E+04 -1.79504E+03 -6.05812E+03 -9.20477E+03  3.35565E+03 -8.26464E+03
  9.51376E+03 -4.77704E+03  8.78465E+03  4.21748E+03  2.27702E+03  7.32926E+03 -2.00443E+03  6.59316E+03
 -4.95837E+03  3.01434E+03 -3.36736E+03  7.50313E+02 -1.58185E+03  9.09264E+02 -1.42187E+03  2.74791E+03
 -4.06659E+03  4.57649E+03 -7.86751E+03  3.31070E+03 -1.42358E+04  1.07937E+03 -1.58562E+04 -9.47754E+03
 -8.13770E+03 -1.69731E+04  3.40669E+03 -2.12661E+04  1.29261E+04 -1.59982E+04  2.09594E+04 -7.48983E+03
  1.74784E+04  4.21649E+03  1.07035E+04  1.22783E+04  1.36290E+03  1.47303E+04 -5.99864E+03  1.02866E+04
 -7.04912E+03  2.97883E+03 -5.34965E+03 -8.87338E+02 -3.58203E+03 -9.68041E+02  2.37665E+02 -1.03355E+03
 -1.47865E+02  8.69877E+02 -1.18234E+03  2.22085E+01 -2.52305E+03 -4.13496E+03 -7.06516E+02 -4.56212E+03
  4.83553E+03 -6.04184E+03  8.43866E+03 -8.85366E+02  9.68289E+03  5.87445E+03  2.76968E+03  1.67876E+04
 -7.67521E+03  1.57548E+04 -1.56923E+04  9.54613E+03 -1.69633E+04 -7.24663E+02 -1.24713E+04 -1.13001E+04
 -5.27611E+03 -1.51523E+04  4.70729E+03 -1.46618E+04  8.46812E+03 -8.77945E+03  1.18739E+04  1.45624E+03
  6.04071E+03  4.63599E+03 -2.55101E+03  4.87056E+03 -1.22709E+03 -1.10710E+02 -7.43885E+00 -4.09804E+03
  4.99447E+03 -1.37774E+03  6.71708E+03  1.65209E+03  4.56160E+03  3.59002E+03 -4.38727E+02  7.00187E+03
 -5.53955E+03  6.50675E+03 -9.23983E+03  5.10326E+02 -8.71651E+03 -5.86696E+03 -3.48937E+03 -1.30375E+04
  7.03690E+03 -1.12505E+04  1.20049E+04 -2.60977E+03  1.00303E+04  4.12113E+03  5.45167E+03  9.85201E+03
  5.33855E+02  1.01331E+04 -3.42922E+03  7.37172E+03 -6.52953E+03  4.58442E+03 -5.30205E+03 -7.11646E+02
 -2.49851E+03  8.73526E+02 -3.95595E+03  7.84268E+02 -4.03226E+03  2.03063E+03 -5.58055E+03 -1.28133E+03
 -7.57729E+03 -6.50885E+03 -3.10260E+03 -1.08740E+04  3.40744E+03 -1.14716E+04  8.60783E+03 -6.00503E+03
  1.01040E+04  1.53513E+03  4.56842E+03  5.06491E+03 -2.04199E+03  9.64799E+03 -9.59706E+03  7.75906E+03
