 $NMID ID='MM_0lb_SNR200_10hz_g50_52.RAW', FMTDAT='(8E13.5)'
 TRAMP=1., VOLUME=1. $END
  3.08986E+05  3.79483E+02  3.38320E+05  2.51220E+05  8.42316E+04  3.39431E+05 -1.33021E+05  2.50324E+05
 -1.92132E+05  8.43706E+04 -1.13413E+05 -3.19755E+04  3.86897E+02 -4.98175E+04  5.33730E+04  6.70158E+02
  3.58446E+04  5.24217E+04 -1.59981E+04  7.55234E+04 -6.01702E+04  6.51046E+04 -8.48877E+04  3.21252E+04
 -8.24866E+04 -1.08067E+04 -5.90011E+04 -5.31091E+04 -1.61025E+04 -7.05449E+04  2.97028E+04 -4.69225E+04
  4.12552E+04  3.34133E+03  1.63699E+04  4.79596E+04 -3.35025E+04  4.93123E+04 -6.68031E+04  4.24202E+02
 -5.37691E+04 -5.72708E+04 -7.39596E+03 -7.89447E+04  3.45417E+04 -5.64496E+04  4.90243E+04 -1.79985E+04
  4.44574E+04  1.11623E+04  3.40695E+04  2.53819E+04  1.53512E+04  3.12989E+04 -6.98748E+03  2.65599E+04
 -2.29788E+04  1.29175E+04 -1.72155E+04 -6.77843E+03  5.78278E+03 -8.16201E+03  2.38730E+04  1.22636E+04
  7.63620E+03  3.66674E+04 -3.37259E+04  3.52317E+04 -6.52190E+04  2.51635E+03 -5.81330E+04 -4.46238E+04
 -1.18088E+04 -6.52263E+04  4.18988E+04 -4.59040E+04  6.04421E+04 -2.91203E+03  3.64972E+04  3.29773E+04
 -5.34561E+03  3.82863E+04 -3.19707E+04  1.79210E+04 -3.13687E+04 -2.96604E+03 -1.80278E+04 -1.10472E+04
 -8.72200E+03 -1.44904E+04  1.38405E+03 -1.98990E+04  7.95038E+03 -2.42257E+04  1.55797E+04 -1.11539E+04
  1.00568E+04  5.15971E+03 -1.03334E+04  1.33431E+04 -2.26828E+04 -7.33276E+03 -9.79156E+03 -3.77001E+04
  2.35829E+04 -4.65334E+04  5.08004E+04 -1.93173E+04  4.74109E+04  1.96629E+04  1.80511E+04  4.62634E+04
 -1.63547E+04  3.47416E+04 -2.63646E+04  2.90686E+03 -9.03797E+03 -2.80663E+04  2.21022E+04 -3.60102E+04
  4.40328E+04 -9.67732E+03  3.97258E+04  2.44182E+04  2.03793E+04  5.04512E+04 -7.61979E+03  5.51150E+04
 -3.59934E+04  3.68048E+04 -4.67050E+04  1.21447E+04 -4.60120E+04 -1.65642E+04 -2.50319E+04 -4.19349E+04
  7.44375E+03 -4.12275E+04  3.27569E+04 -1.71230E+04  3.12642E+04  1.21303E+04  4.94445E+03  1.89892E+04
 -1.39544E+04  1.07650E+04 -1.00021E+04 -7.21632E+03  6.16244E+03 -1.29658E+04  1.93287E+04  4.40043E+03
  1.39650E+04  2.24535E+04 -3.99236E+03  2.59084E+04 -2.27479E+04  1.31292E+04 -2.99031E+04 -3.63863E+03
 -2.43865E+04 -1.96354E+04 -9.67897E+03 -2.35392E+04  5.66816E+03 -2.41310E+04  1.89480E+04 -2.20573E+04
  3.03274E+04 -1.38655E+04  3.75104E+04  4.03168E+03  2.62362E+04  2.46085E+04  3.84255E+03  4.00335E+04
 -2.01954E+04  3.26235E+04 -3.07626E+04  1.26270E+04 -2.20484E+04 -1.20610E+04 -4.96684E+03 -1.35195E+04
  2.02454E+02 -9.77668E+02 -6.54159E+03  7.71793E+03 -1.93262E+04  4.25307E+03 -1.97543E+04 -9.63356E+03
 -1.07682E+04 -2.21402E+04  7.18286E+03 -2.60455E+04  1.79840E+04 -1.98854E+04  2.23728E+04 -1.12013E+03
  1.54593E+04  1.53073E+04 -3.34001E+02  2.24216E+04 -1.62420E+04  1.35860E+04 -2.34584E+04 -3.47220E+03
 -1.66874E+04 -1.99049E+04 -3.69128E+03 -2.71938E+04  1.08689E+04 -2.44786E+04  2.27695E+04 -1.17417E+04
  2.12443E+04  6.80064E+02  1.56323E+04  4.91881E+03  1.06509E+04  2.11526E+03  1.16041E+04 -1.63622E+03
  2.25613E+04  3.28470E+03  2.29770E+04  1.64659E+04  1.56199E+04  3.64513E+04 -2.87467E+03  4.17757E+04
 -2.55754E+04  3.59163E+04 -3.94737E+04  1.63275E+04 -4.24822E+04 -3.47522E+03 -3.35156E+04 -2.47149E+04
 -1.37306E+04 -3.60342E+04  1.27364E+04 -3.04655E+04  2.63081E+04 -1.40439E+04  2.38494E+04  6.80712E+03
  8.96018E+03  1.70009E+04 -1.03293E+04  1.62237E+04 -1.89696E+04  1.68378E+03 -1.52108E+04 -1.32908E+04
 -2.32218E+02 -1.91798E+04  1.05836E+04 -1.25350E+04  1.28927E+04 -1.44482E+03  4.43083E+03  8.99608E+03
 -8.31197E+03  3.68612E+03 -9.82157E+03 -7.81325E+03 -2.04558E+03 -1.79645E+04  1.03222E+04 -1.80999E+04
  2.13182E+04 -1.00414E+04  2.40089E+04  3.71153E+03  2.16986E+04  1.86964E+04  1.02854E+04  2.67190E+04
 -5.19220E+03  2.87601E+04 -1.85851E+04  1.86746E+04 -2.09963E+04  3.82971E+03 -1.46067E+04 -6.02617E+03
 -5.46545E+03 -5.97552E+03  1.17659E+03  3.60731E+02 -3.27959E+03  4.20321E+03 -6.86082E+03  4.80671E+03
 -1.36777E+04  7.75487E+02 -1.53245E+04 -1.10754E+04 -4.18370E+03 -1.81682E+04  6.87659E+03 -1.42975E+04
  1.24370E+04 -6.10284E+03  9.60981E+03  4.91072E+03  2.28641E+02  5.46185E+03 -6.47136E+03  3.47668E+02
 -5.40785E+03 -8.69061E+03 -1.75438E+03 -1.50545E+04  8.18059E+03 -1.40396E+04  2.06977E+04 -7.27819E+03
  2.12203E+04  2.25899E+03  1.66057E+04  1.40971E+04  2.97207E+03  1.70017E+04 -8.94208E+03  1.49993E+04
 -1.09414E+04  3.60597E+03 -6.00559E+03 -2.26675E+03  1.36404E+03 -2.75307E+03  7.57416E+03 -3.02445E+02
  6.53688E+03  6.46505E+03  1.21544E+03  1.25313E+04 -8.68221E+03  1.15045E+04 -1.42531E+04  2.41249E+03
 -9.67917E+03 -8.28542E+03 -2.21090E+02 -1.19520E+04  8.33887E+03 -6.32545E+03  7.92008E+03  2.04796E+03
  2.41408E+03  1.04822E+04 -7.19399E+03  1.05268E+04 -1.30243E+04  4.84098E+03 -1.30355E+04 -4.61518E+03
 -6.23303E+03 -1.40808E+04  3.68880E+03 -1.54446E+04  1.34175E+04 -1.00948E+04  1.40863E+04  2.19476E+03
  9.48140E+03  1.21884E+04 -1.90929E+03  1.59751E+04 -9.70987E+03  8.76162E+03 -1.10182E+04  6.65983E+02
 -1.06639E+04 -9.36778E+03 -7.03102E+02 -1.13839E+04  5.40319E+03 -8.67833E+03  8.22199E+03 -4.70485E+03
  4.36321E+03  8.95605E+02 -2.13286E+03  2.25199E+03 -1.11767E+03 -4.84698E+03  3.56033E+03 -8.02819E+03
  1.19979E+04 -3.93565E+03  1.52867E+04  8.38452E+02  1.52198E+04  1.00047E+04  1.00843E+04  1.80050E+04
 -4.13035E+03  2.11022E+04 -1.68630E+04  1.57047E+04 -2.35847E+04  2.84212E+03 -1.96922E+04 -7.25334E+03
 -1.00694E+04 -1.54441E+04 -1.56533E+03 -1.27379E+04  4.21826E+03 -7.51394E+03  4.12385E+03 -5.33893E+03
  2.63022E+03 -2.61111E+03  3.24997E+03 -3.10367E+03  6.07126E+03 -2.56079E+03  7.10180E+03 -7.39931E+02
  9.55654E+03  2.31569E+03  6.04859E+03  8.46100E+03 -1.90364E+03  8.88246E+03 -1.10553E+04  6.34779E+03
 -1.29170E+04 -1.46043E+03 -8.45274E+03 -9.17355E+03 -1.68530E+02 -1.23915E+04  8.73495E+03 -1.45965E+04
  1.51209E+04 -8.96948E+03  1.73185E+04  2.12771E+03  1.18093E+04  1.25434E+04  1.60417E+03  1.62107E+04
 -6.23563E+03  1.31104E+04 -9.37130E+03  4.31623E+03 -8.18968E+03 -2.46019E+03 -2.93073E+03 -2.26789E+03
 -1.86002E+03 -1.86747E+02 -4.81169E+02  2.80942E+03 -4.97286E+03  1.58591E+03 -9.90795E+03 -5.37176E+02
 -6.78698E+03 -8.42068E+03  8.73301E+02 -1.32492E+04  7.82624E+03 -1.25025E+04  1.26610E+04 -4.77939E+03
  1.23665E+04  6.95837E+03  5.11191E+03  1.24322E+04 -2.68699E+03  1.25938E+04 -9.09993E+03  9.11100E+03
 -1.33949E+04  5.54675E+02 -9.44749E+03 -8.08224E+03 -1.89200E+03 -1.12852E+04  5.12058E+03 -8.03405E+03
  8.92539E+03 -2.67876E+03  4.85421E+03  2.20484E+03  6.45521E+02  3.59456E+03  1.06140E+03  1.05380E+01
  3.46867E+03  1.35966E+03  3.14559E+03  2.17350E+03  3.33764E+03  4.09422E+03  3.22202E+03  7.83344E+03
 -2.69949E+03  1.03618E+04 -9.23062E+03  9.85475E+03 -1.25255E+04  2.46124E+03 -1.47856E+04 -6.17877E+03
 -6.16073E+03 -1.34966E+04  1.53318E+03 -1.48044E+04  7.46849E+03 -9.51457E+03  1.10672E+04 -2.77269E+03
  1.03660E+04  5.04318E+03 -1.53201E+03  7.75124E+03 -3.28818E+03  4.93427E+03 -4.10112E+03 -4.56152E+02
 -2.27243E+03 -7.48932E+03  3.10387E+03 -5.75494E+03  6.05501E+03 -3.61702E+03  5.08427E+03  4.71829E+02
  2.69024E+03  2.35576E+03  1.61223E+03  2.36958E+03 -1.14568E+02  2.29514E+03  1.40792E+03 -1.33584E+02
  2.33997E+03 -1.93325E+02  6.72578E+03  2.46789E+03  1.95026E+03  7.85742E+03 -8.66441E+02  9.51848E+03
 -6.56027E+03  5.57619E+03 -7.48839E+03  1.63078E+03 -6.11230E+03 -2.27464E+03 -2.46922E+03 -4.14039E+03
  3.38083E+02 -6.01532E+03  2.41819E+03 -1.77656E+03  3.43467E+03  3.01986E+03 -3.75482E+02  4.33447E+03
 -4.10844E+03  3.39877E+03 -6.48157E+03 -2.15034E+03 -3.59308E+03 -7.40761E+03  1.71996E+03 -8.36045E+03
  4.10021E+03 -2.71799E+03  3.95581E+03  1.65293E+02  4.42236E+03  1.35946E+03  8.89492E+02  4.12190E+03
 -2.51762E+03  1.54254E+03 -3.38242E+03 -3.33331E+03  1.54615E+03 -6.28173E+03  6.84585E+03 -3.80511E+03
  7.10252E+03  2.50261E+02  8.78310E+03  5.04395E+03  3.58702E+03  1.08838E+04 -3.98696E+03  7.86967E+03
 -5.08842E+03  1.62061E+03 -4.95314E+03 -2.10126E+02 -4.43421E+03 -6.58228E+03  2.49228E+03 -3.14865E+03
  5.74356E+03 -2.43605E+03  4.74412E+03  1.97533E+03  2.04138E+03  5.06655E+03 -1.29327E+03  4.96433E+03
 -2.96700E+03  2.82665E+03 -2.14397E+03  4.34577E+02  6.62333E+01  2.37450E+02 -1.12320E+03  1.09994E+03
 -4.76173E+03  3.24536E+03 -6.04826E+03  2.79385E+03 -7.61605E+03  1.55899E+03 -9.92180E+03 -6.14341E+03
 -5.33653E+03 -1.18359E+04  1.66162E+03 -1.23161E+04  8.89234E+03 -9.82123E+03  1.30216E+04 -3.40436E+03
  1.21993E+04  1.79623E+03  6.48381E+03  7.47788E+03  1.87455E+03  9.70781E+03 -3.22530E+03  6.22299E+03
 -7.01106E+03  2.22359E+03 -2.93476E+03 -7.70236E+02 -1.85827E+03 -1.87950E+03 -7.51298E+02  1.05896E+03
 -8.15808E+02  5.38052E+02 -3.02481E+03  3.16192E+02  2.22794E+02 -2.34620E+03  2.80763E+03 -2.54807E+03
  2.93241E+03 -2.49513E+03  4.42470E+03  2.88166E+02  5.90735E+03  4.58757E+03 -5.97626E+00  8.83662E+03
 -2.82339E+03  1.06998E+04 -9.33771E+03  6.03798E+03 -9.78002E+03 -2.15563E+02 -8.03222E+03 -7.59355E+03
 -3.00341E+03 -8.62091E+03  2.09758E+03 -8.47875E+03  7.23528E+03 -4.47000E+03  5.28735E+03  1.32881E+03
  2.68052E+03  1.29609E+03  6.21905E+02  1.23099E+03 -1.03434E+03 -1.82169E+03 -2.44147E+02 -3.46856E+03
  2.38273E+03 -2.77423E+03  4.25291E+03  1.15238E+03  2.23389E+03  4.06635E+03  1.47013E+03  4.36123E+03
 -2.75849E+03  2.70535E+03 -5.22567E+03  1.51932E+03 -5.78688E+03 -3.50465E+03  1.51779E+02 -5.93015E+03
  4.15951E+03 -6.41157E+03  6.97795E+03 -9.31380E+02  6.04903E+03  2.49371E+03  2.66558E+03  5.80458E+03
  1.56942E+03  6.03888E+03 -2.43421E+03  4.90073E+03 -4.08060E+03  3.36370E+03 -1.85263E+03  2.60216E+02
 -3.60489E+03 -2.21952E+03 -2.22000E+03 -1.93214E+02 -2.77008E+03 -7.50432E+01 -4.24796E+03 -1.49374E+03
 -4.56230E+03 -3.18690E+03 -2.64271E+03 -6.62767E+03  3.55007E+03 -7.58438E+03  5.36760E+03 -1.67777E+03
  5.61067E+03  1.53428E+03  3.15032E+03  4.65635E+03 -1.04377E+02  6.77890E+03 -4.58442E+03  1.95822E+03
