 $NMID ID='MM_0lb_SNR200_9hz_g45_86.RAW', FMTDAT='(8E13.5)'
 TRAMP=1., VOLUME=1. $END
  3.09015E+05 -6.14091E+02  3.37538E+05  2.49499E+05  8.40947E+04  3.36782E+05 -1.32571E+05  2.51381E+05
 -1.90902E+05  8.36308E+04 -1.11755E+05 -3.29994E+04 -8.71309E+02 -5.07219E+04  5.48924E+04 -1.46900E+02
  3.69687E+04  5.21312E+04 -1.75876E+04  7.66144E+04 -6.25426E+04  6.55019E+04 -8.59874E+04  3.37159E+04
 -8.15235E+04 -1.26657E+04 -5.76592E+04 -5.19283E+04 -1.44611E+04 -7.09643E+04  2.65676E+04 -4.70300E+04
  4.21995E+04  3.81611E+03  1.67126E+04  4.91686E+04 -3.43925E+04  4.63437E+04 -6.87442E+04 -2.75953E+02
 -5.57480E+04 -5.83336E+04 -7.22800E+03 -7.79325E+04  3.43704E+04 -5.52898E+04  4.89774E+04 -1.79888E+04
  4.63496E+04  1.14518E+04  3.33736E+04  2.58310E+04  1.62848E+04  3.01798E+04 -4.51170E+03  2.77802E+04
 -2.15383E+04  1.19478E+04 -1.80455E+04 -5.05984E+03  7.00210E+03 -6.90969E+03  2.36716E+04  1.35855E+04
  8.67661E+03  3.89316E+04 -3.33314E+04  3.63469E+04 -6.59359E+04  2.79245E+03 -5.89342E+04 -4.35819E+04
 -1.22311E+04 -6.38858E+04  3.92715E+04 -4.85585E+04  6.11343E+04 -3.39683E+03  3.66854E+04  3.46388E+04
 -4.93761E+03  3.92702E+04 -3.29342E+04  1.78561E+04 -3.28660E+04 -3.30137E+03 -1.93400E+04 -1.08092E+04
 -9.97046E+03 -1.45467E+04 -6.05698E+02 -1.95147E+04  6.73903E+03 -2.42552E+04  1.52903E+04 -1.25083E+04
  1.16664E+04  6.30324E+03 -9.70632E+03  1.29621E+04 -2.35708E+04 -6.62790E+03 -7.97089E+03 -3.66988E+04
  2.45230E+04 -4.69293E+04  5.02935E+04 -2.17244E+04  4.92700E+04  2.07763E+04  1.73496E+04  4.61419E+04
 -1.64152E+04  3.53624E+04 -2.77674E+04  2.78518E+03 -1.15981E+04 -3.04978E+04  2.11270E+04 -3.83947E+04
  4.47536E+04 -9.19952E+03  4.05325E+04  2.66400E+04  2.02800E+04  4.92729E+04 -8.61866E+03  5.57667E+04
 -3.53618E+04  3.85312E+04 -4.70997E+04  1.08752E+04 -4.83782E+04 -1.87885E+04 -2.60498E+04 -4.15151E+04
  7.51184E+03 -4.06464E+04  3.42768E+04 -1.70259E+04  3.14082E+04  1.07559E+04  4.29801E+03  2.04475E+04
 -1.35924E+04  1.03753E+04 -1.10779E+04 -8.71245E+03  6.37586E+03 -1.19667E+04  1.96442E+04  7.27447E+03
  1.41460E+04  2.17367E+04 -5.43801E+03  2.77888E+04 -2.30573E+04  1.55507E+04 -3.18806E+04 -3.91825E+03
 -2.53472E+04 -1.86706E+04 -1.24683E+04 -2.45221E+04  3.37058E+03 -2.49604E+04  1.94004E+04 -2.22237E+04
  3.18527E+04 -1.30469E+04  3.53026E+04  5.33052E+03  2.68473E+04  2.46762E+04  4.89501E+03  4.15883E+04
 -2.08442E+04  3.35891E+04 -3.04017E+04  1.22892E+04 -2.25634E+04 -1.04769E+04 -4.98155E+03 -1.31885E+04
 -2.37178E+02 -7.68802E+02 -6.79503E+03  7.88662E+03 -1.93088E+04  4.31822E+03 -1.92818E+04 -9.48328E+03
 -1.18063E+04 -2.22992E+04  5.31827E+03 -2.65960E+04  1.86658E+04 -1.98584E+04  2.10618E+04 -1.88446E+03
  1.51397E+04  1.46533E+04 -1.88584E+03  2.22328E+04 -1.54043E+04  1.29916E+04 -2.33545E+04 -6.46975E+03
 -1.72357E+04 -2.06051E+04 -1.62603E+03 -2.82074E+04  1.30996E+04 -2.23760E+04  2.16960E+04 -1.14090E+04
  2.30557E+04 -3.04083E+02  1.47098E+04  5.07071E+03  8.07737E+03  2.88712E+03  1.18983E+04 -2.55037E+03
  2.17722E+04  3.51237E+03  2.62884E+04  1.84681E+04  1.70838E+04  3.65945E+04 -4.13790E+03  4.33062E+04
 -2.57665E+04  3.75070E+04 -4.02885E+04  1.83502E+04 -4.47821E+04 -3.43552E+03 -3.58949E+04 -2.45467E+04
 -1.29767E+04 -3.68154E+04  1.29571E+04 -3.21358E+04  2.79175E+04 -1.54205E+04  2.48489E+04  7.50275E+03
  7.70470E+03  1.80861E+04 -1.02558E+04  1.53544E+04 -2.00177E+04  3.66686E+03 -1.49565E+04 -1.19819E+04
 -1.26686E+03 -1.94552E+04  1.01482E+04 -1.18753E+04  1.26243E+04 -2.26234E+03  4.12460E+03  8.99020E+03
 -7.64975E+03  2.45403E+03 -1.00048E+04 -8.29648E+03 -1.47193E+03 -1.83403E+04  1.21533E+04 -1.89593E+04
  2.19757E+04 -1.05939E+04  2.38855E+04  3.54698E+03  2.16928E+04  1.70113E+04  1.05758E+04  2.77376E+04
 -4.05852E+03  3.12113E+04 -2.09356E+04  1.85982E+04 -2.38802E+04  3.63339E+03 -1.65589E+04 -6.80375E+03
 -6.99205E+03 -7.90517E+03 -1.64604E+03  1.10940E+02 -3.54618E+03  2.10674E+03 -7.24241E+03  4.92280E+03
 -1.32284E+04 -7.57408E+01 -1.53384E+04 -1.18309E+04 -5.03300E+03 -1.89169E+04  6.33269E+03 -1.47635E+04
  1.20703E+04 -6.25239E+03  1.02468E+04  3.94012E+03 -3.59400E+02  6.56451E+03 -7.22539E+03  2.80493E+02
 -6.09136E+03 -8.90969E+03 -1.80623E+03 -1.56190E+04  8.86013E+03 -1.68564E+04  1.85039E+04 -9.07709E+03
  2.33455E+04  2.85417E+03  1.68539E+04  1.44620E+04  2.35265E+03  1.90217E+04 -8.82818E+03  1.55589E+04
 -1.35366E+04  3.69910E+03 -6.60563E+03 -4.08392E+03  2.19183E+03 -5.60958E+03  1.02800E+04 -5.86963E+02
  7.47591E+03  4.93517E+03 -6.41535E+02  1.27910E+04 -9.66397E+03  1.21411E+04 -1.52885E+04  2.17624E+03
 -9.55755E+03 -7.76093E+03  1.00887E+03 -1.24539E+04  8.85752E+03 -6.67104E+03  9.91685E+03  2.89542E+03
  7.01578E+02  9.73508E+03 -6.08226E+03  9.30449E+03 -1.16857E+04  6.13405E+03 -1.29467E+04 -4.41578E+03
 -8.02374E+03 -1.40093E+04  2.58240E+03 -1.86283E+04  1.63179E+04 -1.21242E+04  1.60491E+04  1.26234E+03
  9.87605E+03  1.23737E+04 -1.64155E+02  1.48404E+04 -1.18540E+04  8.46920E+03 -1.23752E+04 -1.11390E+03
 -1.23108E+04 -1.13505E+04 -1.68281E+03 -1.17275E+04  6.99721E+03 -9.08710E+03  6.50587E+03 -3.88320E+03
  5.45168E+03  1.91858E+03 -1.64526E+03  7.08100E+02 -5.42130E+02 -3.69264E+03  2.53327E+03 -7.51314E+03
  1.07025E+04 -4.00888E+03  1.35876E+04  2.45509E+03  1.31814E+04  1.00534E+04  1.05304E+04  2.01401E+04
 -5.42402E+03  2.34840E+04 -1.94356E+04  1.69158E+04 -2.49585E+04  2.96691E+03 -2.03105E+04 -9.16860E+03
 -1.03336E+04 -1.50415E+04 -1.34263E+02 -1.45612E+04  4.70114E+03 -8.13231E+03  5.78245E+03 -5.18859E+03
  3.76889E+03 -2.98809E+03  2.31917E+03 -3.89708E+03  5.40419E+03 -2.47773E+03  8.43486E+03 -1.46009E+03
  1.13136E+04  1.76452E+03  5.70434E+03  9.52453E+03 -2.30814E+03  1.04726E+04 -1.14574E+04  9.04810E+03
 -1.50548E+04 -1.08982E+03 -8.62566E+03 -1.08487E+04 -5.35016E+02 -1.60080E+04  1.05153E+04 -1.44648E+04
  1.48362E+04 -8.34360E+03  1.78233E+04  3.27468E+03  1.30118E+04  1.40836E+04  1.41477E+03  1.83874E+04
 -7.27059E+03  1.31762E+04 -1.09642E+04  5.06155E+03 -5.58000E+03 -4.54114E+02 -3.86009E+03 -1.47712E+03
 -1.65448E+03 -1.02136E+03 -1.28546E+03  4.07011E+03 -6.60995E+03  4.13125E+03 -1.18637E+04 -1.12550E+03
 -7.26214E+03 -1.03895E+04  1.10810E+03 -1.42206E+04  8.94742E+03 -1.28345E+04  1.52486E+04 -4.73252E+03
  1.44286E+04  7.29105E+03  6.96580E+03  1.21810E+04 -3.53644E+03  1.38655E+04 -1.07223E+04  8.33465E+03
 -1.34009E+04  1.31959E+03 -1.06962E+04 -8.49084E+03 -1.74769E+03 -1.22977E+04  4.58163E+03 -9.59480E+03
  1.02476E+04 -3.12144E+03  7.18444E+03  2.90523E+03  1.09097E+03  4.53172E+03  9.84593E+02  2.40479E+03
  3.56864E+03  7.84186E+02  3.14118E+03  1.64230E+03  3.04624E+03  4.86136E+03  5.18352E+03  6.98793E+03
 -2.59258E+03  1.25086E+04 -1.18145E+04  1.14176E+04 -1.51492E+04  2.39060E+03 -1.48229E+04 -4.54914E+03
 -6.71513E+03 -1.44211E+04  1.88594E+03 -1.62811E+04  8.60373E+03 -9.83062E+03  1.33905E+04 -4.17164E+03
  9.11215E+03  4.56378E+03  1.73029E+03  8.85952E+03 -4.37163E+03  4.01829E+03 -4.84679E+03 -2.31010E+03
 -3.61441E+03 -6.11431E+03  3.92830E+03 -7.32196E+03  5.65447E+03 -3.95945E+03  6.14179E+03  2.35506E+03
  3.59788E+03  2.39563E+03  2.60655E+03  1.84000E+03 -7.91880E+02  2.40774E+03  1.40835E+03  6.56171E+02
  1.60594E+03 -1.47299E+03  7.32475E+03  2.54470E+03  3.41192E+03  8.44560E+03 -1.31443E+03  9.01154E+03
 -8.04136E+03  6.82518E+03 -1.00294E+04  2.30669E+03 -8.41517E+03 -2.93843E+03 -3.27165E+03 -6.74690E+03
  7.07406E+02 -6.67313E+03  4.46762E+03 -6.93571E+02  1.56802E+03  3.33564E+03 -1.54106E+03  3.97216E+03
 -5.55408E+03  2.10463E+03 -5.75878E+03 -4.67756E+03 -4.53273E+03 -7.31933E+03  1.64905E+03 -8.45587E+03
  4.64533E+03 -4.92435E+03  5.08491E+03 -1.50314E+03  4.41063E+03  2.49780E+03  2.25114E+03  5.33972E+03
 -2.04632E+03  2.32315E+03 -3.63323E+03 -2.15053E+03  6.40373E+02 -5.14365E+03  6.92426E+03 -5.21448E+03
  8.16005E+03  5.10103E+02  9.34630E+03  6.34502E+03  1.35696E+03  8.83549E+03 -3.84929E+03  8.18514E+03
 -7.60052E+03  4.60373E+03 -8.60538E+03 -1.78848E+03 -4.97998E+03 -6.03050E+03  2.90626E+03 -4.49781E+03
  6.65972E+03 -3.37583E+03  5.46037E+03  9.31217E+02  1.81964E+03  4.59246E+03 -3.58859E+02  4.80496E+03
 -2.92904E+03  3.05750E+03 -3.90514E+03  1.11009E+03  3.55223E+01  6.17805E+02 -1.26260E+03  3.07104E+03
 -3.27142E+03  2.41003E+03 -7.13953E+03  4.65621E+03 -9.51065E+03 -1.09939E+02 -9.33142E+03 -5.42577E+03
 -6.89873E+03 -1.24630E+04  1.89710E+03 -1.53271E+04  8.36824E+03 -1.12135E+04  1.48499E+04 -3.89436E+03
  1.21999E+04  1.56513E+03  7.15904E+03  9.19446E+03 -4.39214E+02  9.43903E+03 -5.19702E+03  7.27032E+03
 -6.13450E+03  2.42199E+03 -4.22374E+03 -1.63916E+03 -2.11858E+03 -1.23846E+03 -1.95003E+02 -1.92070E+02
 -1.99063E+03  1.69624E+03 -2.35928E+03 -1.86279E+03 -3.32174E+02 -2.55037E+03  1.05221E+03 -4.09778E+03
  4.57933E+03 -4.41953E+03  6.60124E+03 -2.74141E+02  7.83617E+03  3.14550E+03  2.62302E+03  9.90610E+03
 -7.02137E+03  1.20098E+04 -1.24195E+04  6.36152E+03 -1.28261E+04  4.89680E+02 -9.26354E+03 -6.80982E+03
 -3.14067E+03 -1.01898E+04  1.98754E+03 -1.02088E+04  5.22661E+03 -3.78652E+03  6.57882E+03  1.75753E+02
  4.69202E+03  2.75402E+03 -5.66993E+02  1.94635E+03 -1.57435E+03 -3.09469E+02  7.08090E+02 -2.57250E+03
  3.03466E+03 -2.02877E+03  4.30551E+03  1.54919E+03  1.85542E+03  5.17557E+03  4.03223E+02  6.18348E+03
 -4.92036E+03  4.99998E+03 -6.65785E+03  7.69126E+02 -6.96725E+03 -4.84508E+03 -9.96724E+02 -8.12141E+03
  3.32428E+03 -6.36226E+03  7.63050E+03 -3.51620E+03  6.89764E+03  1.07547E+03  3.27708E+03  7.65327E+03
  1.23033E+03  7.74101E+03 -3.72610E+03  6.75991E+03 -4.07183E+03  3.10015E+03 -2.28882E+03  1.94728E+03
 -2.48578E+03 -7.23206E+02 -1.85204E+03  4.88794E+02 -5.28892E+03 -2.40768E+02 -5.82158E+03 -2.66953E+03
 -6.19425E+03 -2.72041E+03 -1.91911E+03 -5.57936E+03  4.81193E+03 -8.67381E+03  5.79821E+03 -3.38379E+03
  6.61724E+03  1.70069E+03  4.29731E+03  5.08934E+03 -7.51172E+02  8.19159E+03 -4.94781E+03  4.54257E+03
