 $NMID ID='MM_0lb_SNR200_14hz_g60_46.RAW', FMTDAT='(8E13.5)'
 TRAMP=1., VOLUME=1. $END
  3.09291E+05 -8.29061E+02  3.38560E+05  2.51553E+05  8.54917E+04  3.38149E+05 -1.32736E+05  2.51159E+05
 -1.89360E+05  8.29856E+04 -1.11610E+05 -3.22325E+04  1.76127E+03 -5.11608E+04  5.38684E+04 -9.39934E+02
  3.49855E+04  5.31382E+04 -1.60324E+04  7.59304E+04 -5.99080E+04  6.32931E+04 -8.39072E+04  3.18909E+04
 -8.00126E+04 -1.27529E+04 -5.73726E+04 -5.25548E+04 -1.54027E+04 -7.11503E+04  2.61271E+04 -4.65765E+04
  4.08930E+04  2.96679E+03  1.61160E+04  4.75177E+04 -3.48464E+04  4.70613E+04 -6.74118E+04 -7.34389E+02
 -5.35794E+04 -5.79585E+04 -7.52900E+03 -7.77915E+04  3.36472E+04 -5.60124E+04  4.81383E+04 -1.84640E+04
  4.38177E+04  1.07745E+04  3.18373E+04  2.65523E+04  1.50939E+04  2.84377E+04 -5.26253E+03  2.83355E+04
 -2.15813E+04  1.21406E+04 -1.90082E+04 -5.08608E+03  7.13819E+03 -8.19545E+03  2.35799E+04  1.32207E+04
  6.45432E+03  3.67715E+04 -3.26255E+04  3.53649E+04 -6.34780E+04  1.84427E+03 -5.72474E+04 -4.41030E+04
 -1.38492E+04 -6.61155E+04  4.09871E+04 -4.62060E+04  5.91277E+04 -2.79784E+03  3.56102E+04  3.27471E+04
 -5.69248E+03  3.70264E+04 -3.06660E+04  1.72959E+04 -3.16799E+04 -3.12835E+03 -1.64632E+04 -1.05862E+04
 -8.93474E+03 -1.36271E+04 -1.20315E+03 -1.76022E+04  8.23608E+03 -2.16483E+04  1.62059E+04 -1.28472E+04
  1.07418E+04  5.91860E+03 -8.27637E+03  1.22774E+04 -2.16446E+04 -5.59934E+03 -9.90134E+03 -3.40281E+04
  2.23704E+04 -4.41775E+04  4.96830E+04 -2.04217E+04  4.65411E+04  1.91510E+04  1.59129E+04  4.55540E+04
 -1.61956E+04  3.41694E+04 -2.59607E+04  2.35824E+03 -1.14321E+04 -2.91529E+04  2.03748E+04 -3.49853E+04
  4.29700E+04 -8.76801E+03  3.72600E+04  2.34489E+04  1.81034E+04  4.81516E+04 -7.25304E+03  5.22579E+04
 -3.24653E+04  3.46777E+04 -4.40349E+04  1.09827E+04 -4.42956E+04 -1.55645E+04 -2.51035E+04 -3.95003E+04
  6.90568E+03 -3.93153E+04  3.10879E+04 -1.58339E+04  3.00689E+04  1.12280E+04  3.84116E+03  1.97139E+04
 -1.24599E+04  8.86435E+03 -1.07760E+04 -6.92803E+03  6.54159E+03 -1.16956E+04  1.66030E+04  5.77348E+03
  1.40348E+04  2.25839E+04 -4.30486E+03  2.73172E+04 -2.23951E+04  1.17250E+04 -2.92511E+04 -2.82414E+03
 -2.25513E+04 -1.79008E+04 -8.48918E+03 -2.17150E+04  4.56872E+03 -2.12861E+04  1.59562E+04 -1.91699E+04
  2.69311E+04 -1.32919E+04  3.44314E+04  3.33906E+03  2.54816E+04  2.20250E+04  4.23127E+03  3.78309E+04
 -1.85716E+04  3.19320E+04 -2.94717E+04  1.06910E+04 -2.02016E+04 -1.01703E+04 -4.34456E+03 -1.37013E+04
  3.06296E+03 -2.48924E+03 -5.46474E+03  6.67248E+03 -1.81800E+04  4.41281E+03 -1.67285E+04 -8.21308E+03
 -1.05736E+04 -1.98583E+04  5.57893E+03 -2.47840E+04  1.56549E+04 -1.71686E+04  1.85659E+04 -1.78869E+03
  1.38181E+04  1.30996E+04 -1.37716E+03  2.05416E+04 -1.39020E+04  1.05137E+04 -2.03036E+04 -4.07550E+03
 -1.54522E+04 -1.81739E+04 -1.75698E+03 -2.33768E+04  1.19349E+04 -2.07219E+04  2.07335E+04 -9.37950E+03
  1.87821E+04  1.99893E+02  1.21625E+04  4.18273E+03  6.81249E+03  1.37687E+03  1.01794E+04 -1.17265E+03
  1.75110E+04  2.04721E+03  2.05352E+04  1.57991E+04  1.45622E+04  3.24487E+04 -1.86738E+03  3.67686E+04
 -1.98533E+04  2.94131E+04 -3.45679E+04  1.49863E+04 -3.70275E+04 -2.98921E+03 -3.06463E+04 -2.08662E+04
 -1.34523E+04 -2.99248E+04  1.10217E+04 -2.68390E+04  2.23681E+04 -1.29417E+04  1.97230E+04  5.50698E+03
  7.29076E+03  1.47884E+04 -9.95089E+03  1.18428E+04 -1.58754E+04  1.20347E+03 -1.25475E+04 -1.05733E+04
  1.01744E+03 -1.62187E+04  8.80329E+03 -1.25127E+04  1.15961E+04 -1.25576E+03  4.13595E+03  7.03113E+03
 -7.06296E+03  3.21211E+03 -6.13175E+03 -6.58021E+03 -2.25042E+02 -1.46561E+04  1.07629E+04 -1.61781E+04
  1.88839E+04 -8.08840E+03  1.90843E+04  3.64536E+03  1.61159E+04  1.50456E+04  7.24538E+03  2.21197E+04
 -4.21980E+03  2.34659E+04 -1.62497E+04  1.50281E+04 -1.71067E+04  3.63023E+03 -1.30994E+04 -4.65583E+03
 -4.41526E+03 -4.29574E+03 -6.89494E+02  4.08224E+01 -2.47494E+03  3.92831E+03 -6.57415E+03  5.39503E+03
 -1.12227E+04 -4.22109E+02 -1.08426E+04 -9.92211E+03 -5.90433E+03 -1.55801E+04  5.64127E+03 -1.16338E+04
  9.78621E+03 -4.28194E+03  8.12019E+03  2.51692E+03 -6.95536E+02  3.57082E+03 -5.36328E+03  4.59979E+01
 -6.39203E+03 -8.26549E+03 -2.56202E+03 -1.10753E+04  8.26754E+03 -1.22410E+04  1.45133E+04 -7.88334E+03
  1.68613E+04  2.41562E+03  1.33702E+04  1.07459E+04  3.14441E+03  1.42778E+04 -7.28469E+03  1.26497E+04
 -1.01174E+04  2.82662E+03 -4.78489E+03 -2.72884E+03  1.65519E+03 -2.76906E+03  5.19203E+03 -2.21707E+03
  6.64613E+03  4.88700E+03  1.75707E+03  9.09930E+03 -6.86063E+03  8.49185E+03 -1.23823E+04  2.77125E+03
 -7.84148E+03 -5.42268E+03  1.76179E+02 -9.58838E+03  7.03380E+03 -5.84902E+03  6.27588E+03  2.74994E+03
  8.01078E+02  5.55521E+03 -7.42422E+03  8.88385E+03 -9.41916E+03  2.01852E+03 -9.14171E+03 -3.14572E+03
 -6.61698E+03 -1.12403E+04  3.94759E+03 -1.14269E+04  1.10836E+04 -7.43963E+03  1.01975E+04  1.49952E+03
  6.68771E+03  8.51826E+03  2.24008E+02  1.20867E+04 -8.71380E+03  6.57185E+03 -8.72029E+03 -1.52239E+03
 -8.92045E+03 -6.54097E+03 -3.03355E+03 -7.75328E+03  4.77119E+03 -7.74347E+03  4.88533E+03 -2.62494E+03
  3.20988E+03  1.81003E+03 -4.05596E+02  1.05340E+03  1.38893E+03 -1.06390E+03  9.09300E+02 -4.90124E+03
  8.12661E+03 -3.03663E+03  1.07669E+04  1.17399E+02  9.32135E+03  5.62284E+03  7.44733E+03  1.39416E+04
 -2.60675E+03  1.48166E+04 -1.31209E+04  1.15241E+04 -1.66166E+04  2.92592E+03 -1.41213E+04 -4.37350E+03
 -7.32041E+03 -1.04969E+04 -2.90570E+02 -9.05315E+03  3.49981E+03 -5.21502E+03  4.26420E+03 -3.81902E+03
  2.92346E+03 -1.99802E+03  3.14674E+03 -3.63277E+03  5.45613E+03 -2.20088E+03  5.85307E+03  1.16797E+02
  6.89684E+03  1.47589E+03  3.36168E+03  7.10823E+03 -2.17782E+03  7.31822E+03 -8.07381E+03  4.02098E+03
 -9.80699E+03 -2.04139E+03 -4.99563E+03 -5.89085E+03  5.70759E+02 -9.99994E+03  4.42978E+03 -9.27681E+03
  1.03489E+04 -6.25170E+03  1.16059E+04  1.02803E+03  8.08497E+03  7.74320E+03  4.50658E+02  1.18041E+04
 -3.62229E+03  1.03419E+04 -7.06466E+03  3.80794E+03 -5.11831E+03 -1.33902E+03 -1.37644E+03 -2.68435E+02
 -1.68380E+03 -4.08383E+02 -3.03156E+03  1.81545E+03 -3.54139E+03  2.38319E+03 -6.59294E+03 -5.76359E+01
 -4.63862E+03 -6.55018E+03  7.52303E+02 -9.46668E+03  5.22671E+03 -7.80237E+03  7.67210E+03 -2.55300E+03
  9.23993E+03  4.32645E+03  3.22883E+03  8.52694E+03 -1.57928E+03  8.63628E+03 -5.60567E+03  5.10392E+03
 -7.53093E+03  2.68523E+02 -5.56580E+03 -5.36017E+03 -1.43357E+03 -6.79608E+03  2.43807E+03 -4.98957E+03
  5.68368E+03 -1.57135E+03  3.22877E+03  1.95462E+03  1.28006E+03  2.46783E+03  1.04688E+03  9.94593E+02
  3.00627E+03  1.32759E+03  1.83673E+03  1.30576E+03  2.74362E+03  3.59080E+03  1.96681E+03  3.46926E+03
 -7.49201E+02  6.07315E+03 -5.92894E+03  6.95044E+03 -8.66167E+03  2.83103E+03 -9.34624E+03 -2.60923E+03
 -4.05031E+03 -8.50707E+03  3.42143E+02 -9.99556E+03  5.85346E+03 -5.82651E+03  5.45547E+03 -2.05178E+03
  4.41277E+03  3.85349E+03  1.20852E+03  4.83788E+03 -1.27092E+03  3.44035E+03 -2.95949E+03  7.49793E+02
 -1.27368E+03 -3.79053E+03  2.28022E+03 -2.80420E+03  3.93900E+03 -3.50959E+03  3.58127E+03 -3.28949E+02
  1.75383E+03  1.22957E+03  7.05373E+02  1.97048E+03 -3.89077E+02  1.70282E+03  2.32159E+03 -5.92282E+02
  1.49812E+03  8.30798E+02  3.45249E+03  7.77602E+02  1.53102E+03  5.54843E+03  6.18826E+01  7.09367E+03
 -2.84174E+03  2.50010E+03 -4.59874E+03  1.14608E+03 -4.39556E+03 -3.07754E+03 -1.52166E+03 -2.03267E+03
  5.86855E+02 -2.72623E+03  1.53568E+03 -2.22460E+03  1.17441E+03  2.92573E+03 -1.71063E+03  2.89435E+03
 -4.02000E+03  2.69611E+02 -3.57943E+03 -1.15907E+03 -5.07244E+02 -3.82489E+03  1.03765E+03 -3.62711E+03
  8.35798E+02 -2.03954E+03  3.74442E+03 -2.83022E+02  1.96167E+03 -2.09200E+02  9.49720E+02  2.39801E+03
 -4.02125E+02 -6.40954E+02 -1.26448E+03 -1.12783E+03 -1.43829E+03 -2.98295E+03  3.74297E+03 -1.92160E+03
  4.06032E+03 -1.02444E+02  5.58515E+03  3.21134E+03  7.82776E+02  5.50824E+03 -1.60238E+03  4.74703E+03
 -3.93293E+03  2.12339E+03 -3.45439E+03  1.64426E+00 -1.46062E+03 -3.05189E+03  1.62673E+03 -2.70386E+03
  2.46176E+03 -2.27061E+03  3.16692E+03  8.24768E+02  3.14444E+02  2.14107E+03 -5.18421E+02  3.41318E+03
 -2.66364E+02  2.01215E+03 -9.74436E+02  1.55077E+02 -3.41753E+01  1.31917E+03 -6.79755E+02  2.80510E+03
 -1.39194E+03  9.03664E+02 -3.25687E+03  8.06600E+02 -5.48613E+03 -5.78967E+02 -5.05093E+03 -2.07621E+03
 -3.19662E+03 -4.77344E+03  2.24950E+03 -5.77665E+03  4.55589E+03 -5.13195E+03  6.31639E+03 -2.31161E+03
  7.57354E+03  3.59465E+02  3.46585E+03  3.56983E+03 -2.21923E+02  4.90434E+03 -5.41573E+02  3.35307E+03
 -2.08209E+03  1.42274E+03 -3.13502E+03 -9.38005E+02 -1.74308E+03  6.75766E+02 -5.84372E+02 -8.92192E+02
 -6.01416E+02 -9.57387E+02 -1.63912E+03 -1.69309E+02 -2.95028E+02 -1.84978E+03 -5.92674E+02 -1.23025E+03
  2.31348E+03 -2.25338E+03  3.68980E+03  6.62914E+02  2.21539E+03  2.94213E+03  4.80520E+01  3.90991E+03
 -1.66400E+03  4.87163E+03 -4.15581E+03  2.66809E+03 -4.92413E+03 -1.80665E+03 -3.59141E+03 -2.54666E+03
 -2.70215E+03 -4.40719E+03  2.24854E+02 -3.66057E+03  2.32845E+03 -2.35129E+03  2.27140E+03  8.09986E+01
  1.75762E+03  5.57663E+02 -2.77350E+02  6.90573E+02 -1.76647E+03 -8.42976E+02 -7.59063E+02 -5.02662E+02
  7.53977E+02 -9.87598E+02  1.91448E+03  8.19404E+02  1.48216E+03  1.61270E+03  1.42149E+03  1.97411E+03
 -2.01941E+03  2.90613E+03 -3.17877E+03 -8.82258E+02 -1.12743E+03 -1.67474E+03  1.04481E+03 -3.47162E+03
  1.15435E+03 -1.82315E+03  2.32971E+03  4.53694E+02  4.34722E+03  2.83540E+02  1.12798E+03  2.18685E+03
 -3.08127E+02  2.05264E+03 -2.40369E+02  1.01919E+03 -1.18260E+03  1.59803E+03 -8.61641E+02  3.28306E+01
 -2.52117E+03 -6.73976E+02 -6.15959E+02 -8.63277E+02 -2.98040E+03  1.67772E+03 -2.47354E+03 -5.80915E+02
 -1.54557E+03 -3.41591E+02 -6.42933E+01 -2.65438E+03  2.55136E+03 -2.76763E+03  1.33591E+03 -1.04032E+03
  2.28355E+03  1.04070E+03 -4.13333E+02  1.12616E+03  1.78478E+01  1.52996E+03 -1.13608E+03  1.24388E+03
