 $NMID ID='MM_0lb_SNR200_12hz_g50_1.RAW', FMTDAT='(8E13.5)'
 TRAMP=1., VOLUME=1. $END
  3.08846E+05 -4.75002E+02  3.37947E+05  2.49714E+05  8.47624E+04  3.37763E+05 -1.31997E+05  2.51671E+05
 -1.88867E+05  8.37255E+04 -1.12927E+05 -3.25770E+04  2.17487E+02 -5.10823E+04  5.38759E+04 -9.40798E+02
  3.62873E+04  5.24427E+04 -1.64627E+04  7.62925E+04 -6.07153E+04  6.39952E+04 -8.36628E+04  3.16431E+04
 -8.23242E+04 -1.15188E+04 -5.74253E+04 -5.11238E+04 -1.41744E+04 -7.08835E+04  2.90969E+04 -4.71979E+04
  4.07831E+04  3.48113E+03  1.60278E+04  4.75792E+04 -3.55029E+04  4.63117E+04 -6.55493E+04  6.15201E+02
 -5.52988E+04 -5.66075E+04 -6.23495E+03 -7.75557E+04  3.49879E+04 -5.60347E+04  4.81446E+04 -1.66077E+04
  4.36538E+04  1.19536E+04  3.23952E+04  2.63229E+04  1.63720E+04  2.94434E+04 -5.41451E+03  2.68932E+04
 -2.30742E+04  1.30654E+04 -1.76668E+04 -3.68373E+03  6.71600E+03 -8.33708E+03  2.33817E+04  1.31024E+04
  7.37152E+03  3.58308E+04 -3.31286E+04  3.48095E+04 -6.44803E+04  8.37504E+02 -5.78046E+04 -4.28349E+04
 -1.33242E+04 -6.39001E+04  4.14655E+04 -4.64274E+04  5.87770E+04 -3.28803E+03  3.60632E+04  3.22635E+04
 -4.39315E+03  3.72571E+04 -3.10286E+04  1.69278E+04 -3.11186E+04 -5.16101E+03 -1.87308E+04 -1.19827E+04
 -8.92925E+03 -1.41319E+04 -7.08461E+02 -1.87339E+04  8.32620E+03 -2.32067E+04  1.54954E+04 -1.07246E+04
  1.15497E+04  6.11458E+03 -8.22086E+03  1.24062E+04 -2.24252E+04 -5.77557E+03 -9.50431E+03 -3.29431E+04
  2.39679E+04 -4.59902E+04  5.07544E+04 -2.09920E+04  4.50437E+04  2.04005E+04  1.74831E+04  4.55725E+04
 -1.55633E+04  3.48131E+04 -2.62987E+04  1.36924E+03 -1.10375E+04 -2.82773E+04  2.09354E+04 -3.54268E+04
  4.13226E+04 -1.08772E+04  3.81976E+04  2.48440E+04  1.90478E+04  4.76743E+04 -7.98423E+03  5.24162E+04
 -3.20201E+04  3.57411E+04 -4.38870E+04  8.62007E+03 -4.55225E+04 -1.66711E+04 -2.46543E+04 -3.94747E+04
  7.85178E+03 -3.94786E+04  3.15984E+04 -1.47567E+04  3.04213E+04  1.05570E+04  4.10031E+03  1.81200E+04
 -1.39979E+04  8.69872E+03 -1.04348E+04 -7.13684E+03  4.31341E+03 -1.11753E+04  1.83115E+04  6.95773E+03
  1.45094E+04  2.23859E+04 -5.51055E+03  2.54177E+04 -2.30168E+04  1.22005E+04 -2.75221E+04 -3.72240E+03
 -2.16882E+04 -1.73625E+04 -8.44742E+03 -2.27928E+04  4.04749E+03 -2.23474E+04  1.71802E+04 -2.07345E+04
  2.83548E+04 -1.27280E+04  3.53877E+04  3.62893E+03  2.40495E+04  2.08194E+04  3.47493E+03  3.80933E+04
 -1.93060E+04  3.18709E+04 -2.93414E+04  1.33626E+04 -2.31449E+04 -1.11635E+04 -4.83301E+03 -1.33957E+04
  2.05462E+03 -1.45092E+03 -5.54788E+03  6.50769E+03 -1.79437E+04  3.71995E+03 -1.99358E+04 -8.58339E+03
 -1.07080E+04 -2.13166E+04  6.00788E+03 -2.52696E+04  1.59480E+04 -1.84386E+04  1.97467E+04 -2.79171E+03
  1.25465E+04  1.45928E+04  8.59049E+02  2.09184E+04 -1.46383E+04  1.20476E+04 -2.17879E+04 -4.01331E+03
 -1.58380E+04 -1.94232E+04 -2.52888E+03 -2.36578E+04  1.18007E+04 -2.07156E+04  2.03100E+04 -1.12571E+04
  1.86948E+04 -4.36422E+02  1.23896E+04  4.87391E+03  7.51097E+03  5.18294E+02  1.19752E+04 -2.38964E+03
  1.74843E+04  2.52195E+03  2.18991E+04  1.67382E+04  1.49007E+04  3.44419E+04 -2.42702E+03  3.84670E+04
 -2.22374E+04  3.16946E+04 -3.56275E+04  1.47754E+04 -3.81996E+04 -4.01708E+03 -3.09620E+04 -2.27409E+04
 -1.42348E+04 -3.26097E+04  1.23068E+04 -2.72761E+04  2.34253E+04 -1.45476E+04  2.15733E+04  6.20401E+03
  7.44894E+03  1.61416E+04 -1.02646E+04  1.40611E+04 -1.72876E+04  1.66641E+03 -1.33640E+04 -1.06872E+04
  4.09156E+02 -1.77175E+04  7.48402E+03 -1.28642E+04  1.27246E+04 -2.12417E+03  3.38350E+03  7.04766E+03
 -8.79278E+03  1.58900E+03 -7.20503E+03 -5.11905E+03 -2.39663E+02 -1.59504E+04  9.45262E+03 -1.68764E+04
  1.90008E+04 -7.41761E+03  2.06362E+04  2.89301E+03  1.82022E+04  1.56561E+04  9.50466E+03  2.42452E+04
 -4.02283E+03  2.59475E+04 -1.70512E+04  1.63492E+04 -1.99535E+04  3.41645E+03 -1.30352E+04 -4.99007E+03
 -6.45901E+03 -6.65084E+03 -1.08294E+03  6.13140E+02 -2.60198E+03  1.90097E+03 -6.73498E+03  5.71308E+03
 -1.04598E+04 -1.15861E+03 -1.24032E+04 -1.05318E+04 -4.51910E+03 -1.74360E+04  2.99443E+03 -1.14572E+04
  9.89078E+03 -5.52290E+03  8.60873E+03  2.32759E+03  8.53197E+02  5.88180E+03 -6.90974E+03  1.52238E+02
 -5.89715E+03 -7.03384E+03 -5.34266E+01 -1.23542E+04  7.37012E+03 -1.13348E+04  1.68958E+04 -7.99112E+03
  1.87177E+04  1.36493E+03  1.38531E+04  1.01306E+04  4.03009E+03  1.48803E+04 -7.93511E+03  1.29696E+04
 -1.10277E+04  3.62172E+03 -4.93849E+03 -2.63003E+03  2.04828E+03 -3.70690E+03  7.35339E+03  5.25660E+02
  6.03084E+03  3.84424E+03  1.74893E+03  1.02616E+04 -8.07989E+03  1.14779E+04 -1.28715E+04  3.37016E+03
 -8.95214E+03 -5.90202E+03 -3.77484E+02 -1.16446E+04  5.54075E+03 -5.62471E+03  5.98380E+03  2.39768E+03
  1.74108E+03  6.89659E+03 -5.68808E+03  1.01004E+04 -9.90562E+03  4.26853E+03 -1.09404E+04 -4.35730E+03
 -5.07079E+03 -1.28207E+04  3.64071E+03 -1.51834E+04  1.22205E+04 -9.80126E+03  1.44520E+04  1.14148E+03
  8.47864E+03  1.04774E+04 -3.09753E+02  1.32569E+04 -9.91877E+03  5.86173E+03 -9.21413E+03 -9.80012E+02
 -8.24482E+03 -7.50451E+03 -2.21041E+03 -9.36559E+03  3.97352E+03 -8.47612E+03  5.52064E+03 -3.73997E+03
  3.99975E+03  6.27702E+02 -2.79496E+02  1.75236E+03 -1.19587E+03 -1.04828E+03  2.07335E+03 -4.54784E+03
  8.79354E+03 -2.61909E+03  1.23127E+04 -2.15403E+01  1.12120E+04  8.85696E+03  9.76535E+03  1.57269E+04
 -3.20930E+03  1.75378E+04 -1.50845E+04  1.28149E+04 -1.94202E+04  3.65222E+03 -1.60511E+04 -7.56890E+03
 -7.48234E+03 -1.33174E+04  8.58731E+02 -1.11190E+04  5.30235E+03 -6.38609E+03  3.09903E+03 -3.80629E+03
  2.35252E+03 -2.83832E+03  4.12320E+03 -2.82706E+03  5.14260E+03 -1.52276E+03  6.81901E+03 -8.24753E+02
  9.60537E+03  1.41700E+03  3.92021E+03  7.16659E+03 -1.76069E+03  7.74184E+03 -8.38597E+03  7.05841E+03
 -1.11993E+04 -1.18196E+03 -5.63435E+03 -6.13079E+03 -1.64573E+03 -1.12171E+04  7.47637E+03 -1.23070E+04
  1.24271E+04 -7.69487E+03  1.40207E+04  2.58405E+03  1.01940E+04  9.62932E+03  2.26161E+03  1.40196E+04
 -5.60920E+03  1.12905E+04 -7.55553E+03  4.08007E+03 -4.36952E+03 -1.00579E+03 -2.18683E+03 -1.79631E+03
 -1.37043E+03 -1.00800E+03 -5.31199E+01  1.99484E+03 -3.53126E+03  2.29322E+03 -7.47032E+03  4.40435E+02
 -5.73946E+03 -9.24239E+03  7.89936E+02 -9.50486E+03  6.29479E+03 -8.78868E+03  1.14103E+04 -3.80353E+03
  9.60534E+03  5.51338E+03  4.35726E+03  8.88566E+03 -7.99972E+02  9.96643E+03 -6.95024E+03  5.82594E+03
 -9.86627E+03 -3.58426E+02 -7.36470E+03 -7.81432E+03  1.35925E+03 -7.84095E+03  4.35661E+03 -6.09434E+03
  6.47301E+03 -9.42205E+02  4.15417E+03  1.33557E+03  6.26514E+02  3.54201E+03  1.79748E+03  9.67724E+02
  7.80712E+02 -9.47263E+01  2.97351E+03  2.08791E+03  3.04588E+03  4.78790E+03  2.97532E+03  5.55420E+03
 -2.12035E+03  8.40146E+03 -6.12677E+03  8.08314E+03 -1.06028E+04  3.02021E+03 -9.39828E+03 -4.71596E+03
 -5.92649E+03 -1.00679E+04  1.36713E+03 -1.00370E+04  5.69269E+03 -7.74904E+03  8.37064E+03 -1.32403E+03
  6.82279E+03  3.63104E+03  1.10496E+03  6.74359E+03 -3.51150E+03  4.46362E+03 -4.57460E+03 -4.38944E+02
 -2.54730E+03 -3.25272E+03  2.02245E+03 -4.64007E+03  4.63765E+03 -2.59840E+03  4.54122E+03  2.43796E+02
  3.88694E+03  2.66379E+03  2.70327E+03  2.72538E+03  9.21052E+02  1.10539E+03  1.56541E+03 -4.21157E+02
  2.11613E+03 -1.38499E+03  6.08849E+03  2.56796E+03  1.91341E+03  6.07080E+03 -2.01236E+03  6.68717E+03
 -5.77289E+03  3.98535E+03 -6.58565E+03  1.34139E+03 -6.31062E+03 -1.53270E+03 -1.12607E+03 -2.73923E+03
  1.14221E+03 -2.74257E+03  2.86747E+03 -2.58089E+03  1.91552E+03  3.09907E+03 -9.95818E+02  2.74524E+03
 -4.23167E+03  1.60968E+03 -5.17122E+03 -2.96646E+03 -3.67851E+03 -4.75816E+03  1.11177E+03 -5.46701E+03
  1.65536E+03 -2.93751E+03  4.58172E+03 -1.96928E+02  3.74804E+03  8.05312E+02  1.60358E+03  3.86603E+03
 -2.13584E+03 -1.79557E+02 -2.24819E+03 -1.85453E+03  2.32314E+02 -3.40459E+03  5.35806E+03 -2.82668E+03
  6.13679E+03  3.37549E+02  5.21374E+03  3.25137E+03  2.65625E+03  6.38537E+03 -1.47412E+03  6.58221E+03
 -6.13905E+03  2.19693E+03 -4.93844E+03 -1.10271E+03 -2.76063E+03 -3.18709E+03  7.47714E+02 -3.32658E+03
  4.66053E+03 -1.58449E+03  3.86788E+03  1.82168E+03  7.55005E+02  3.58774E+03 -5.90300E+02  2.96342E+03
 -1.69230E+03  3.02376E+03 -1.21388E+03  3.38166E+02 -1.64938E+03 -4.35922E+02 -3.84723E+02  1.21092E+03
 -1.36157E+03  1.87269E+03 -5.39632E+03  1.89694E+03 -7.64439E+03  1.74445E+01 -7.17913E+03 -4.49484E+03
 -3.79948E+03 -7.99713E+03  2.69098E+03 -8.75551E+03  4.99827E+03 -5.62117E+03  8.54577E+03 -2.78398E+03
  8.33863E+03  1.24286E+03  4.04176E+03  5.62702E+03 -2.63651E+02  5.91919E+03 -2.39222E+03  5.69650E+03
 -2.77553E+03  2.11746E+03 -8.56485E+02 -3.02652E+02 -3.53541E+02 -4.55300E+02 -1.96095E+03  2.78962E+02
 -1.63917E+03 -5.26559E+02 -2.08800E+03  5.55519E+02  2.44227E+02 -8.01086E+02  1.18647E+02 -1.76074E+03
  2.08772E+03 -3.04404E+03  3.68821E+03 -8.69557E+02  4.61394E+03  2.91238E+03 -3.07300E+02  3.88229E+03
 -2.46626E+03  7.10711E+03 -4.79154E+03  4.44825E+03 -7.73180E+03 -2.71156E+02 -5.81860E+03 -5.35419E+03
 -3.03899E+03 -6.40512E+03  1.39853E+03 -5.38343E+03  3.31268E+03 -3.71983E+03  3.75745E+03  1.18844E+03
  1.03109E+03  9.18276E+02 -1.73073E+02  1.76783E+03  8.42546E+02  4.75028E+02  2.36888E+02 -7.63013E+02
  2.72392E+03 -1.88964E+03  1.65518E+03  4.43626E+02  1.04605E+03  1.37800E+03  7.65680E+01  3.94736E+03
 -3.46495E+03  3.06670E+03 -3.72784E+03 -6.03232E+02 -4.90649E+03 -2.72677E+03  3.42983E+02 -3.87848E+03
  2.26523E+03 -4.33789E+03  4.64421E+03  1.66635E+02  4.84309E+03  1.28252E+03  1.60545E+03  4.49888E+03
  1.12882E+03  2.74130E+03 -2.25731E+03  2.29820E+03 -2.64530E+03  1.81515E+03 -2.20711E+03  1.27896E+03
 -1.22782E+03  7.05621E+01  2.81885E+02  1.62818E+03 -2.55971E+03  2.46944E+03 -2.53734E+03 -6.62326E+02
 -2.60198E+03 -6.66111E+02 -1.01948E+03 -3.20495E+03  1.55847E+03 -4.67735E+03  3.87559E+03 -2.29562E+03
  3.58589E+03  2.40834E+02  1.68612E+03  3.41733E+03 -9.82255E+02  3.12930E+03 -3.51437E+03  1.44442E+03
