 $NMID ID='MM_0lb_SNR200_9hz_g60_38.RAW', FMTDAT='(8E13.5)'
 TRAMP=1., VOLUME=1. $END
  3.08083E+05 -1.06307E+03  3.38659E+05  2.51206E+05  8.64105E+04  3.40558E+05 -1.32809E+05  2.52658E+05
 -1.92424E+05  8.44625E+04 -1.11984E+05 -3.23085E+04 -9.68435E+02 -5.07948E+04  5.23462E+04 -3.20779E+02
  3.52782E+04  5.07586E+04 -1.62337E+04  7.83633E+04 -6.29660E+04  6.57898E+04 -8.49197E+04  3.19170E+04
 -8.30296E+04 -1.21871E+04 -5.86485E+04 -5.41130E+04 -1.38020E+04 -7.12309E+04  2.87591E+04 -4.66485E+04
  4.10586E+04  4.03351E+03  1.69076E+04  4.86366E+04 -3.51673E+04  4.96584E+04 -6.82424E+04 -1.81127E+03
 -5.43194E+04 -5.75420E+04 -6.07892E+03 -7.86467E+04  3.66318E+04 -5.89119E+04  5.06227E+04 -1.94348E+04
  4.47768E+04  1.20178E+04  3.26451E+04  2.76788E+04  1.64543E+04  3.28517E+04 -7.90895E+03  2.80074E+04
 -2.12192E+04  9.39830E+03 -1.74130E+04 -6.02290E+03  7.89833E+03 -7.73492E+03  2.39965E+04  1.41315E+04
  8.07334E+03  3.65406E+04 -3.46309E+04  3.82512E+04 -6.74832E+04  1.01511E+03 -5.93687E+04 -4.51021E+04
 -1.28222E+04 -6.74070E+04  4.15190E+04 -4.82770E+04  6.34905E+04 -3.04419E+03  3.66196E+04  3.48876E+04
 -5.32146E+03  4.16622E+04 -3.33328E+04  1.96130E+04 -3.32471E+04 -5.68209E+03 -2.07424E+04 -1.22787E+04
 -8.33779E+03 -1.69631E+04  6.66866E+02 -1.87028E+04  7.87764E+03 -2.60835E+04  1.64819E+04 -1.10345E+04
  1.06042E+04  7.12535E+03 -9.04191E+03  1.09830E+04 -2.48465E+04 -7.70804E+03 -9.11222E+03 -3.89301E+04
  2.55338E+04 -4.79299E+04  5.20593E+04 -2.16358E+04  4.80031E+04  2.04158E+04  1.81472E+04  4.71393E+04
 -1.62425E+04  3.68179E+04 -2.72519E+04  2.10976E+03 -1.24994E+04 -2.86890E+04  2.20180E+04 -3.51851E+04
  4.52364E+04 -1.09977E+04  4.00644E+04  2.47202E+04  2.07037E+04  5.07537E+04 -9.13216E+03  5.62481E+04
 -3.69570E+04  3.95720E+04 -4.89194E+04  1.27131E+04 -4.79268E+04 -1.83312E+04 -2.69558E+04 -4.30390E+04
  8.60569E+03 -4.27837E+04  3.51322E+04 -1.69150E+04  3.29193E+04  9.33587E+03  3.74663E+03  2.25668E+04
 -1.60433E+04  8.48204E+03 -1.25914E+04 -8.53371E+03  5.45432E+03 -1.19567E+04  1.81604E+04  6.79563E+03
  1.37877E+04  2.13214E+04 -4.89873E+03  2.74506E+04 -2.33942E+04  1.51103E+04 -3.11104E+04 -4.02287E+03
 -2.66267E+04 -2.05322E+04 -1.24895E+04 -2.48151E+04  4.73151E+03 -2.77843E+04  2.11184E+04 -2.42298E+04
  3.36330E+04 -1.44132E+04  4.03635E+04  4.57936E+03  2.60308E+04  2.59675E+04  1.99074E+03  4.12929E+04
 -2.02287E+04  3.30039E+04 -3.12458E+04  1.08249E+04 -2.34292E+04 -1.00947E+04 -4.31574E+03 -1.20263E+04
  1.61737E+03 -1.35451E+02 -7.97739E+03  7.99678E+03 -2.26077E+04  6.24933E+03 -2.02320E+04 -9.73060E+03
 -1.22751E+04 -2.37744E+04  5.80917E+03 -2.94960E+04  1.91370E+04 -2.06140E+04  2.24800E+04 -1.55586E+03
  1.50063E+04  1.80932E+04  7.05439E+00  2.39820E+04 -1.71847E+04  1.51839E+04 -2.60672E+04 -4.98371E+03
 -1.76606E+04 -2.24148E+04 -5.12675E+02 -2.89520E+04  1.21532E+04 -2.50203E+04  2.50059E+04 -1.16806E+04
  2.35475E+04 -9.50236E+02  1.77710E+04  5.25014E+03  7.44440E+03 -6.51733E+02  1.23550E+04 -2.10656E+03
  2.44185E+04  3.62050E+03  2.66656E+04  1.98485E+04  1.82623E+04  3.97839E+04 -2.21121E+03  4.75952E+04
 -2.56394E+04  3.84866E+04 -4.47541E+04  2.08900E+04 -4.56536E+04 -4.99500E+03 -3.65182E+04 -2.78587E+04
 -1.37279E+04 -4.03878E+04  1.43445E+04 -3.34197E+04  3.07433E+04 -1.50473E+04  2.54453E+04  7.10348E+03
  7.41393E+03  1.98103E+04 -1.29710E+04  1.70060E+04 -2.19752E+04  1.95765E+03 -1.40239E+04 -1.41659E+04
 -1.12628E+03 -2.15790E+04  1.25732E+04 -1.43082E+04  1.37685E+04 -1.33541E+03  4.29230E+03  8.35781E+03
 -9.63495E+03  5.57234E+03 -9.32761E+03 -5.89815E+03 -2.38199E+03 -1.91070E+04  1.24546E+04 -2.07502E+04
  2.27748E+04 -1.01396E+04  2.80808E+04  2.31728E+03  2.39093E+04  2.14480E+04  1.12329E+04  3.21735E+04
 -5.52998E+03  3.25594E+04 -2.03094E+04  2.01836E+04 -2.46177E+04  4.44672E+03 -1.50415E+04 -6.96192E+03
 -6.94139E+03 -9.23852E+03  5.48154E+02 -8.36294E+02 -2.93834E+03  4.86741E+03 -9.41280E+03  5.88363E+03
 -1.47590E+04  4.07615E+02 -1.57520E+04 -1.08224E+04 -5.93096E+03 -1.99872E+04  5.07612E+03 -1.62955E+04
  1.43888E+04 -6.99634E+03  8.46165E+03  5.15148E+03  7.55249E+00  7.59841E+03 -8.03421E+03  8.24248E+01
 -8.34360E+03 -1.11736E+04 -1.94860E+03 -1.67389E+04  9.32804E+03 -1.76386E+04  2.07939E+04 -9.13889E+03
  2.42623E+04  1.45996E+03  1.71639E+04  1.43842E+04  3.56821E+03  2.09586E+04 -1.18149E+04  1.71192E+04
 -1.21545E+04  4.27850E+03 -7.18612E+03 -2.28375E+03  2.71373E+03 -4.50272E+03  7.52682E+03 -9.64688E+02
  6.43739E+03  8.51098E+03  1.95724E+03  1.41638E+04 -1.03070E+04  1.24906E+04 -1.75576E+04  3.03925E+03
 -1.12596E+04 -7.90529E+03 -5.49648E+02 -1.47365E+04  8.77269E+03 -7.40759E+03  1.07316E+04  3.60027E+03
  2.73673E+03  1.14734E+04 -9.99198E+03  1.33181E+04 -1.42818E+04  4.69405E+03 -1.51385E+04 -5.83141E+03
 -7.45654E+03 -1.77663E+04  4.33070E+03 -1.98540E+04  1.61945E+04 -1.05193E+04  1.74405E+04  2.35154E+03
  1.20734E+04  1.42661E+04 -1.44868E+03  1.76432E+04 -1.37157E+04  9.26627E+03 -1.30606E+04  4.47342E+02
 -1.11160E+04 -1.02552E+04 -2.05263E+03 -1.23083E+04  8.06130E+03 -1.12510E+04  9.81649E+03 -4.00323E+03
  3.63608E+03  3.55347E+03 -1.18061E+03  1.83717E+03 -2.75589E+03 -2.76062E+03  3.32129E+03 -7.63274E+03
  1.17930E+04 -5.99002E+03  1.73975E+04  9.35212E+02  1.80488E+04  1.16784E+04  1.08924E+04  2.14645E+04
 -5.14067E+03  2.82845E+04 -2.14276E+04  1.80264E+04 -2.86269E+04  5.37625E+03 -2.24607E+04 -1.00802E+04
 -1.07563E+04 -1.67293E+04  1.82620E+03 -1.58680E+04  4.20464E+03 -8.63129E+03  6.68586E+03 -6.47877E+03
  3.80295E+03 -4.11774E+03  4.97597E+03 -4.42715E+03  5.99489E+03 -3.73109E+03  8.79384E+03  3.59033E+02
  1.00950E+04  3.82554E+03  5.38065E+03  1.15041E+04 -2.48721E+03  1.50982E+04 -1.06289E+04  1.07951E+04
 -1.74686E+04 -4.86240E+02 -1.00131E+04 -1.10397E+04 -1.12435E+03 -1.78078E+04  9.24945E+03 -1.77294E+04
  1.63902E+04 -9.36381E+03  2.10532E+04  2.14258E+03  1.47657E+04  1.75489E+04  2.39358E+03  2.01798E+04
 -8.71069E+03  1.62940E+04 -1.07813E+04  5.27637E+03 -7.06111E+03 -5.23054E+02 -3.31184E+03 -2.10775E+03
 -2.55945E+03 -5.35504E+02 -2.12247E+03  3.09671E+03 -7.69208E+03  2.95736E+03 -1.13912E+04 -1.74080E+03
 -9.69665E+03 -1.07189E+04 -2.17298E+02 -1.58658E+04  8.69767E+03 -1.41964E+04  1.59231E+04 -4.56204E+03
  1.51443E+04  7.37823E+03  8.52446E+03  1.27343E+04 -3.52437E+03  1.64026E+04 -1.06339E+04  8.87753E+03
 -1.48076E+04  1.84038E+03 -1.30214E+04 -8.79216E+03 -1.14252E+03 -1.31511E+04  6.47185E+03 -7.70863E+03
  1.08246E+04 -2.05648E+03  7.45463E+03  2.31690E+03  1.41740E+03  6.02433E+03  1.32743E+03  2.08035E+03
  3.91968E+03  8.82805E+02  4.24248E+03  2.77344E+03  5.11067E+03  6.04171E+03  2.93094E+03  9.13129E+03
 -2.20863E+03  1.41838E+04 -1.10158E+04  1.31632E+04 -1.51167E+04  3.82147E+03 -1.59153E+04 -5.85433E+03
 -8.14446E+03 -1.49847E+04  9.32640E+02 -1.69447E+04  9.65342E+03 -1.15287E+04  1.37376E+04 -2.10788E+03
  8.05034E+03  7.13100E+03  2.53203E+03  7.78802E+03 -5.17336E+03  5.69004E+03 -7.68914E+03 -9.88937E+02
 -3.80242E+03 -5.74356E+03  3.51207E+03 -6.30447E+03  6.73883E+03 -3.87144E+03  6.42617E+03  1.83626E+03
  3.24614E+03  3.24969E+03  1.80995E+03  3.40936E+03 -3.33350E+02  2.72713E+03  3.12064E+03 -7.59960E+00
  3.45367E+03 -6.94952E+02  7.17798E+03  3.62278E+03  3.47235E+03  8.77815E+03 -1.73644E+03  1.15859E+04
 -9.29640E+03  7.49782E+03 -9.95474E+03  1.34214E+03 -9.27295E+03 -4.67378E+03 -4.48092E+03 -4.78661E+03
  5.58239E+02 -5.74820E+03  4.49532E+03 -3.07274E+03  3.42474E+03  3.87150E+03 -2.30888E+03  4.72486E+03
 -5.93275E+03  3.44779E+03 -7.56444E+03 -2.00839E+03 -3.27777E+03 -8.65119E+03  3.46862E+02 -9.24054E+03
  5.37613E+03 -4.23325E+03  5.18617E+03 -1.74449E+03  4.80204E+03  2.43039E+03 -7.34148E+02  5.19201E+03
 -2.79413E+03  1.05010E+03 -3.51421E+03 -1.71627E+03  1.74502E+03 -6.13762E+03  8.89840E+03 -5.16583E+03
  1.16048E+04  6.15760E+02  1.14711E+04  7.84091E+03  5.13582E+03  1.08726E+04 -3.96846E+03  1.02010E+04
 -9.00254E+03  4.50627E+03 -9.18882E+03 -6.42594E+02 -5.18477E+03 -5.87888E+03  1.28249E+03 -7.47214E+03
  5.57579E+03 -4.22957E+03  5.02461E+03  1.48647E+03  1.41683E+03  5.17246E+03  2.37668E+02  6.18956E+03
 -3.45290E+03  4.28643E+03 -2.30494E+03  9.88024E+00 -1.02136E+03  1.54833E+02 -1.16994E+03  2.66812E+03
 -1.03607E+03  4.97005E+03 -7.09291E+03  4.18783E+03 -1.13992E+04  3.55437E+02 -1.29809E+04 -7.46008E+03
 -6.92659E+03 -1.32008E+04  2.40663E+03 -1.61641E+04  1.05216E+04 -1.25103E+04  1.56580E+04 -5.01482E+03
  1.56534E+04  2.96328E+03  9.85436E+03  1.13991E+04  8.30477E+02  1.20864E+04 -3.80395E+03  8.69388E+03
 -4.43117E+03  2.99851E+03 -2.81240E+03 -1.94806E+03 -1.77355E+03 -1.20268E+03 -5.53657E+02 -7.20944E+02
 -2.71802E+02  2.55133E+02 -1.92275E+03 -2.03575E+03 -1.08700E+03 -2.04845E+03  7.72477E+02 -2.87115E+03
  5.05020E+03 -3.98541E+03  7.40223E+03  4.55425E+02  6.82816E+03  5.39994E+03  1.43639E+03  1.26479E+04
 -5.79425E+03  1.35047E+04 -1.28445E+04  8.42002E+03 -1.47091E+04 -9.37311E+02 -1.10754E+04 -6.96398E+03
 -5.22985E+03 -1.20506E+04  2.44065E+03 -1.05365E+04  8.28863E+03 -6.96458E+03  8.86007E+03  7.07967E+02
  3.96623E+03  4.64563E+03  1.14113E+02  3.33695E+03 -2.01915E+03 -9.28267E+02  3.85256E+02 -3.03166E+03
  3.80313E+03 -1.30855E+03  4.90713E+03  1.46382E+03  2.99277E+03  5.63837E+03 -1.28603E+03  5.81064E+03
 -5.21699E+03  6.20970E+03 -8.38096E+03  9.92057E+02 -6.58841E+03 -7.52183E+03 -1.18714E+03 -8.31099E+03
  3.48284E+03 -7.19731E+03  8.89422E+03 -3.94457E+03  8.51921E+03  4.24018E+03  6.20020E+03  8.07345E+03
  9.69159E+02  7.18320E+03 -3.18004E+03  6.49487E+03 -5.84026E+03  4.83408E+03 -4.00699E+03 -1.98423E+02
 -2.94836E+03  1.20882E+02 -3.68554E+03  2.94813E+03 -3.77082E+03 -9.41492E+01 -5.04473E+03 -6.99481E+02
 -6.08680E+03 -3.68370E+03 -9.76987E+02 -1.01029E+04  5.32493E+03 -7.50889E+03  5.79931E+03 -2.95297E+03
  6.48927E+03  1.13250E+03  5.00129E+03  6.46766E+03 -2.85887E+02  8.40535E+03 -4.63182E+03  5.40317E+03
