 $NMID ID='MM_0lb_SNR200_17hz_g55_45.RAW', FMTDAT='(8E13.5)'
 TRAMP=1., VOLUME=1. $END
  3.11146E+05  4.95801E+02  3.36796E+05  2.50255E+05  8.41039E+04  3.38377E+05 -1.33518E+05  2.51236E+05
 -1.90125E+05  8.28587E+04 -1.11817E+05 -3.20886E+04  9.42283E+02 -4.96614E+04  5.51289E+04 -6.92479E+02
  3.55394E+04  5.29288E+04 -1.67494E+04  7.65322E+04 -6.04726E+04  6.30026E+04 -8.34438E+04  3.19541E+04
 -8.17348E+04 -1.12775E+04 -5.80947E+04 -5.16380E+04 -1.47986E+04 -7.01497E+04  2.71539E+04 -4.52008E+04
  4.00746E+04  3.49348E+03  1.65244E+04  4.76869E+04 -3.50683E+04  4.68749E+04 -6.71500E+04 -5.34663E+01
 -5.28208E+04 -5.62529E+04 -7.10753E+03 -7.60331E+04  3.41498E+04 -5.39881E+04  4.60462E+04 -1.68005E+04
  4.29661E+04  1.23479E+04  3.16587E+04  2.51385E+04  1.60056E+04  2.87705E+04 -4.68352E+03  2.76242E+04
 -2.07804E+04  1.27134E+04 -1.87357E+04 -4.85053E+03  5.18040E+03 -7.19849E+03  2.23691E+04  1.13369E+04
  7.47525E+03  3.51752E+04 -3.20708E+04  3.55931E+04 -6.17867E+04  1.30183E+03 -5.69838E+04 -4.29072E+04
 -1.06971E+04 -6.24766E+04  3.89704E+04 -4.35863E+04  5.74116E+04 -2.47012E+03  3.30351E+04  3.29687E+04
 -5.66010E+03  3.42812E+04 -2.98051E+04  1.50683E+04 -2.92530E+04 -5.96552E+03 -1.51982E+04 -1.07294E+04
 -7.12064E+03 -1.19939E+04 -1.35040E+03 -1.76335E+04  6.56051E+03 -2.21359E+04  1.51641E+04 -1.28745E+04
  1.29750E+04  3.39632E+03 -8.46550E+03  1.24169E+04 -2.09170E+04 -3.97128E+03 -8.96378E+03 -3.21186E+04
  2.12154E+04 -4.22650E+04  4.76594E+04 -1.80172E+04  4.44256E+04  1.87930E+04  1.45184E+04  4.23659E+04
 -1.57537E+04  3.27377E+04 -2.40063E+04  5.10372E+02 -9.47047E+03 -2.86543E+04  2.11104E+04 -3.29844E+04
  3.97969E+04 -8.40185E+03  3.37970E+04  2.40613E+04  1.81285E+04  4.49437E+04 -7.84586E+03  4.69270E+04
 -3.11121E+04  3.22635E+04 -3.94123E+04  8.85314E+03 -3.99140E+04 -1.56792E+04 -2.29097E+04 -3.67910E+04
  7.45783E+03 -3.65870E+04  3.10438E+04 -1.42951E+04  2.90542E+04  1.16438E+04  3.61310E+03  1.86770E+04
 -1.31793E+04  8.55645E+03 -9.24400E+03 -9.13677E+03  5.13370E+03 -1.08543E+04  1.72658E+04  5.73183E+03
  1.28078E+04  2.30970E+04 -6.87066E+03  2.50596E+04 -2.20629E+04  1.08554E+04 -2.71582E+04 -5.21362E+03
 -1.85112E+04 -1.64025E+04 -6.00163E+03 -1.80436E+04  3.52212E+03 -1.77902E+04  1.45292E+04 -1.68614E+04
  2.28112E+04 -1.17593E+04  3.10882E+04  1.51698E+03  2.27347E+04  1.74966E+04  3.01219E+03  3.39814E+04
 -1.63583E+04  2.90275E+04 -2.71591E+04  1.02492E+04 -2.02547E+04 -9.96903E+03 -3.81159E+03 -1.38050E+04
  2.41684E+03 -3.42912E+03 -4.37651E+03  5.89730E+03 -1.59543E+04  5.66316E+03 -1.51375E+04 -6.56975E+03
 -9.07478E+03 -1.64737E+04  4.89678E+03 -2.16364E+04  1.30783E+04 -1.55106E+04  1.64125E+04 -2.09256E+03
  1.14461E+04  1.15763E+04 -9.43277E+02  1.83595E+04 -1.07918E+04  1.00986E+04 -1.79906E+04 -2.94424E+03
 -1.29772E+04 -1.52296E+04 -1.58137E+03 -1.98396E+04  9.86174E+03 -1.70354E+04  1.67621E+04 -8.64469E+03
  1.68716E+04  3.84478E+02  1.00835E+04  3.99332E+03  6.16831E+03  2.83405E+02  8.67822E+03 -2.48020E+03
  1.51186E+04  3.18930E+03  1.80172E+04  1.36872E+04  1.09503E+04  2.75632E+04 -2.43389E+03  2.97513E+04
 -1.76255E+04  2.46165E+04 -2.75609E+04  1.18770E+04 -2.95070E+04 -1.42100E+03 -2.41670E+04 -1.67846E+04
 -1.16912E+04 -2.28209E+04  8.05681E+03 -2.14095E+04  1.82142E+04 -1.08226E+04  1.77444E+04  4.35533E+03
  6.62121E+03  1.18387E+04 -8.31485E+03  1.23884E+04 -1.50999E+04  2.38158E+03 -1.08023E+04 -9.32101E+03
  4.19936E+02 -1.34497E+04  6.27454E+03 -1.05595E+04  9.36533E+03 -1.77319E+03  1.61896E+03  5.72758E+03
 -6.70121E+03  3.00860E+03 -5.18441E+03 -4.85923E+03 -6.46784E+02 -1.15764E+04  7.93941E+03 -1.22218E+04
  1.41834E+04 -5.27742E+03  1.46290E+04  2.83437E+03  1.33962E+04  1.13588E+04  6.17683E+03  1.66072E+04
 -1.82230E+03  1.90611E+04 -1.06082E+04  1.29315E+04 -1.24162E+04  3.37136E+03 -9.14073E+03 -2.70559E+03
 -4.63980E+03 -4.81179E+03 -1.49721E+03  1.51705E+03 -2.11424E+03  1.84201E+03 -5.91915E+03  3.75946E+03
 -9.38627E+03  8.41841E+00 -1.02946E+04 -7.81183E+03 -3.01373E+03 -1.39485E+04  3.45907E+03 -9.49664E+03
  8.13080E+03 -2.86229E+03  6.81852E+03  2.70359E+03 -5.09506E+02  3.58192E+03 -3.69910E+03 -2.36701E+02
 -3.59729E+03 -5.20614E+03 -2.59045E+02 -8.97430E+03  4.62988E+03 -9.76506E+03  1.18681E+04 -5.14979E+03
  1.36530E+04  8.07970E+02  1.04540E+04  7.92561E+03  2.15821E+03  1.06960E+04 -7.27139E+03  9.75445E+03
 -7.28766E+03  3.60758E+03 -4.55825E+03 -1.63782E+03  1.12701E+03 -1.79169E+03  4.73229E+03 -2.43247E+02
  4.67196E+03  3.77285E+03  1.13770E+03  8.23625E+03 -3.76877E+03  6.64734E+03 -1.02839E+04  1.93361E+03
 -5.85696E+03 -3.73168E+03 -9.04987E+02 -7.30873E+03  4.63859E+03 -4.85942E+03  5.21777E+03  1.34647E+03
  5.95001E+02  5.01973E+03 -3.87633E+03  6.19504E+03 -6.80075E+03  4.37805E+03 -6.10895E+03 -2.27509E+03
 -4.66404E+03 -7.90840E+03  4.73262E+02 -8.18793E+03  6.18411E+03 -6.06325E+03  7.58693E+03  6.13317E+02
  5.70346E+03  7.00899E+03 -1.13409E+03  8.28523E+03 -5.51508E+03  4.32260E+03 -5.22920E+03 -7.11830E+02
 -7.26236E+03 -6.59900E+03 -1.05410E+03 -5.81833E+03  3.41940E+03 -5.06553E+03  3.83424E+03 -3.06646E+03
  3.22801E+03  4.40466E+01 -2.07730E+02  1.23263E+03  6.80507E+02  5.03422E+02  3.85003E+01 -3.37112E+03
  4.43634E+03 -1.02569E+03  5.72218E+03 -2.54231E+01  8.01993E+03  3.01083E+03  4.67413E+03  8.64926E+03
 -1.87023E+03  1.06791E+04 -9.28703E+03  8.17525E+03 -1.24340E+04  1.67152E+03 -9.36174E+03 -2.99643E+03
 -3.95004E+03 -7.45572E+03 -2.78200E+01 -6.24741E+03  3.28439E+03 -2.90497E+03  1.88070E+03 -3.97160E+03
  5.61108E+02 -1.41187E+03  1.66446E+03 -1.66071E+03  4.37876E+03 -3.06994E+03  4.36503E+03  1.14625E+03
  5.14372E+03  1.85969E+03  1.32614E+03  5.66230E+03 -4.92032E+02  3.33539E+03 -6.01530E+03  3.48356E+03
 -6.00172E+03 -1.02588E+03 -3.23151E+03 -4.27138E+03 -1.99618E+02 -5.68660E+03  4.00121E+03 -6.40895E+03
  6.50259E+03 -4.76356E+03  9.32200E+03  5.14599E+02  6.61417E+03  6.38312E+03  8.11418E+02  8.07046E+03
 -2.76306E+03  6.15781E+03 -3.96317E+03  2.46880E+03 -1.81276E+03 -1.56167E+03 -1.28132E+02 -1.41226E+03
 -6.20528E+02  6.89325E+02 -6.98001E+02  1.57794E+03 -3.03706E+03  1.62134E+03 -5.05023E+03 -8.27703E+02
 -1.45367E+03 -4.94705E+03  2.38599E+02 -5.56523E+03  4.60082E+03 -5.25922E+03  4.04595E+03 -3.22677E+02
  4.65418E+03  3.68150E+03  3.05186E+03  3.94533E+03 -3.39807E+02  7.21683E+03 -4.57033E+03  3.76718E+03
 -4.30452E+03  1.52942E+02 -3.43237E+03 -3.26973E+03 -1.52349E+03 -4.78895E+03  2.51572E+03 -3.03719E+03
  4.75716E+03 -1.88016E+03  2.50828E+03  5.92190E+02 -7.23865E+02  1.70509E+03  1.04243E+03  7.59925E+02
  2.75334E+03 -6.35249E+02  1.04884E+03  2.85302E+03  1.17130E+03  3.06043E+03  1.99456E+03  2.24974E+03
 -1.88681E+03  3.71887E+03 -2.26734E+03  4.13859E+03 -4.63552E+03  1.37181E+03 -4.69212E+03 -1.13773E+03
 -3.00536E+03 -4.46315E+03  2.16617E+03 -5.34375E+03  2.53857E+03 -3.44448E+03  4.53251E+03 -8.67843E+02
  2.75548E+03  1.74207E+03  1.59903E+03  3.00434E+03 -2.34721E+02  1.61345E+03 -1.46265E+03  1.01236E+03
 -1.44723E+03 -2.31658E+03  9.85684E+02 -1.68309E+03  1.59801E+03 -1.37078E+03  1.98439E+03  1.84674E+03
 -1.35185E+02  1.46412E+03  9.40922E+02  3.51628E+01  3.06791E+02  5.09687E+02  9.70626E+02 -4.28992E+02
  2.11075E+02 -4.27525E+02  8.68776E+02  9.20215E+01  1.76018E+03  2.25790E+03 -9.99324E+02  2.62431E+03
 -2.13220E+03  2.24454E+03 -3.75575E+03  4.94245E+02 -2.34346E+03 -8.90033E+02 -2.64264E+02 -9.64991E+02
  9.61383E+02 -2.00939E+03  1.23746E+03 -1.31027E+03  2.48725E+03  5.12204E+02 -1.24472E+03  2.83610E+03
 -3.19084E+03  1.12316E+03 -1.65098E+03 -1.81869E+03 -1.51596E+03 -2.37012E+03 -1.79161E+02 -3.99968E+03
  1.30149E+02 -2.02376E+03  1.50062E+03 -1.49646E+02  9.92989E+02 -3.79983E+02  4.41763E+02  1.98826E+03
 -1.22725E+03  8.72818E+02 -1.29922E+03  2.71435E+01 -9.23245E+01 -6.95522E+02  2.83462E+03 -2.30142E+03
  2.89824E+02 -5.39778E+02  4.29309E+03  1.84032E+03  2.02721E+03  2.03972E+03  3.41128E+02  1.27151E+03
 -2.28069E+03  7.70691E+02 -2.12753E+03  4.60383E+02 -9.07748E+02 -2.08028E+03  4.04880E+02 -1.15586E+03
  1.37059E+03 -1.63362E+02  2.22299E+03  1.68947E+03  8.82652E+02  1.27595E+03  6.84200E+02  1.12904E+03
 -7.22379E+01  2.07111E+03 -5.59604E+02  9.01531E+02 -2.37620E+02 -1.36047E+02 -3.74092E+02  9.51325E+02
 -6.18063E+02  8.62725E+02 -1.09565E+03 -2.70172E+02 -1.31652E+03  4.65925E+02 -3.35767E+03 -8.81396E+01
 -1.76773E+03 -3.52258E+03  9.24952E+02 -3.99558E+03  1.99715E+03 -2.95417E+03  3.04252E+03 -1.84164E+03
  3.21600E+03  2.25777E+02  1.14321E+03  2.05470E+03 -1.81221E+03  2.55010E+03 -7.30408E+02  1.46976E+03
 -8.71586E+02  6.04976E+02 -5.73455E+02 -9.96601E+02 -1.07754E+03 -1.19871E+02 -1.34303E+03 -3.70138E+02
  2.82147E+01  3.88561E+02 -1.21539E+03  3.14855E+01  4.90447E+02 -1.49400E+03 -4.63020E+02 -2.54424E+02
  1.74782E+03 -5.66991E+02  2.45580E+03  8.50997E+02  9.97019E+02  5.68799E+02  1.09461E+02  1.63854E+03
 -9.53630E+02  3.69884E+03 -2.98483E+03  1.11691E+03 -2.72426E+03 -2.19468E+02 -2.24659E+03 -2.20572E+03
 -8.44844E+02 -2.51859E+03 -1.31312E+02 -1.68031E+03  1.57002E+03 -1.23824E+03  4.68964E+02  4.31747E+02
 -3.91652E+02  1.44841E+02  7.08503E+01  1.59984E+03 -5.52379E+02  4.16401E+02 -4.00032E+01 -3.18379E+01
  4.96493E+02 -1.74268E+02  3.03475E+02  2.66543E+02  1.32126E+03  9.07139E+02  3.08567E+02  1.14790E+03
 -1.09323E+03  6.50981E+02 -9.14590E+02 -5.22113E+02 -1.09762E+03 -1.35365E+03  3.50984E+02 -8.83194E+02
  6.45737E+02  1.06964E+02  1.41650E+03  9.95961E+02  2.23519E+03 -6.97381E+02  3.99721E+02  1.10327E+03
  1.91382E+02  1.27410E+03  2.34789E+02  1.24845E+03 -3.12511E+02  2.40252E+03 -3.52056E+02 -2.98884E+02
 -4.34649E+02 -8.10908E+02 -7.37314E+02  4.96044E+02 -8.48059E+02 -9.79553E+00 -9.60141E+02  1.07822E+01
 -1.69559E+03  8.55297E+02 -1.44824E+02 -1.23544E+03  1.23195E+03 -1.28374E+03  1.81357E+02 -2.28112E+02
  8.50771E+02  1.26468E+03 -4.79075E+02  4.59489E+01 -6.31349E+02 -1.58363E+02 -6.98538E+02  1.65854E+03
