 $NMID ID='MM_0lb_SNR200_14hz_g45_24.RAW', FMTDAT='(8E13.5)'
 TRAMP=1., VOLUME=1. $END
  3.10224E+05  5.98665E+02  3.37696E+05  2.50713E+05  8.49845E+04  3.36247E+05 -1.32868E+05  2.51033E+05
 -1.90934E+05  8.45242E+04 -1.11840E+05 -3.20711E+04  3.29816E+02 -5.00662E+04  5.23848E+04  1.94502E+02
  3.64308E+04  5.19061E+04 -1.63480E+04  7.65882E+04 -5.99834E+04  6.34541E+04 -8.40654E+04  3.15644E+04
 -8.15283E+04 -1.16527E+04 -5.72903E+04 -5.11649E+04 -1.51952E+04 -6.90152E+04  2.78310E+04 -4.57497E+04
  4.07541E+04  4.79404E+03  1.60679E+04  4.76310E+04 -3.43884E+04  4.73465E+04 -6.62361E+04  9.12369E+02
 -5.37345E+04 -5.61830E+04 -6.63657E+03 -7.49281E+04  3.39878E+04 -5.26500E+04  4.77834E+04 -1.77083E+04
  4.37824E+04  1.06820E+04  3.10734E+04  2.59555E+04  1.63316E+04  2.83848E+04 -3.36811E+03  2.65716E+04
 -2.31657E+04  1.33400E+04 -1.80916E+04 -3.55234E+03  6.67379E+03 -7.44371E+03  2.18652E+04  1.16806E+04
  8.14440E+03  3.52704E+04 -3.09779E+04  3.47928E+04 -6.26677E+04  2.26254E+03 -5.68037E+04 -4.21613E+04
 -1.26117E+04 -6.35618E+04  3.95707E+04 -4.47231E+04  5.76531E+04 -1.61050E+03  3.45732E+04  3.21803E+04
 -6.20525E+03  3.61605E+04 -3.08960E+04  1.64316E+04 -2.94361E+04 -4.38266E+03 -1.69153E+04 -1.07090E+04
 -7.68689E+03 -1.24486E+04 -9.84356E+02 -1.72538E+04  6.62645E+03 -2.36480E+04  1.55145E+04 -1.35375E+04
  1.13014E+04  4.57169E+03 -7.58993E+03  1.37847E+04 -2.03219E+04 -4.77156E+03 -7.32597E+03 -3.28430E+04
  2.22861E+04 -4.32844E+04  4.76812E+04 -1.88576E+04  4.43954E+04  1.94356E+04  1.56927E+04  4.44967E+04
 -1.61139E+04  3.29748E+04 -2.36949E+04  1.90527E+03 -8.76046E+03 -2.72298E+04  2.03425E+04 -3.34118E+04
  4.09208E+04 -9.00204E+03  3.54839E+04  2.32332E+04  1.93527E+04  4.55113E+04 -7.90432E+03  4.88267E+04
 -3.05765E+04  3.33440E+04 -4.08481E+04  8.36129E+03 -4.17725E+04 -1.45581E+04 -2.37802E+04 -3.74328E+04
  5.84789E+03 -3.80086E+04  2.96349E+04 -1.41317E+04  2.80998E+04  1.15429E+04  3.52599E+03  1.97746E+04
 -1.31969E+04  8.51258E+03 -1.00491E+04 -7.92578E+03  5.97657E+03 -9.51178E+03  1.77324E+04  6.16064E+03
  1.38226E+04  2.21557E+04 -6.14552E+03  2.47130E+04 -2.23714E+04  1.12743E+04 -2.68916E+04 -5.56087E+03
 -2.11366E+04 -1.70134E+04 -8.58325E+03 -2.03270E+04  3.90620E+03 -1.95016E+04  1.45352E+04 -1.88220E+04
  2.66872E+04 -1.29172E+04  3.33904E+04  2.68001E+03  2.30771E+04  2.03543E+04  3.70706E+03  3.65209E+04
 -1.79809E+04  3.03196E+04 -2.81318E+04  1.07507E+04 -2.08631E+04 -1.05713E+04 -4.99797E+03 -1.43330E+04
  2.19332E+03 -2.50101E+03 -4.82117E+03  6.55299E+03 -1.70380E+04  4.62515E+03 -1.59731E+04 -6.29085E+03
 -1.01790E+04 -1.92734E+04  5.63109E+03 -2.32298E+04  1.53894E+04 -1.70487E+04  1.71092E+04 -2.49616E+03
  1.11758E+04  1.21159E+04 -9.69663E+02  1.94380E+04 -1.27849E+04  1.00215E+04 -1.82807E+04 -4.25741E+03
 -1.36008E+04 -1.66451E+04 -3.45199E+03 -2.19825E+04  9.34583E+03 -1.78111E+04  2.09843E+04 -9.57911E+03
  1.75354E+04 -2.84384E+02  1.24831E+04  4.46095E+03  6.63726E+03  1.79068E+03  9.23776E+03 -1.77878E+03
  1.69247E+04  4.18836E+03  1.81109E+04  1.54794E+04  1.22138E+04  3.03933E+04 -2.19389E+03  3.22703E+04
 -2.04381E+04  2.71437E+04 -3.10826E+04  1.19276E+04 -3.16827E+04 -1.91318E+03 -2.78181E+04 -1.88709E+04
 -1.18825E+04 -2.74185E+04  8.80962E+03 -2.55686E+04  2.03281E+04 -1.28176E+04  1.76773E+04  5.68118E+03
  8.46865E+03  1.30931E+04 -7.97807E+03  1.22976E+04 -1.64263E+04  2.91221E+03 -1.17459E+04 -9.69483E+03
  4.36127E+02 -1.49154E+04  8.36164E+03 -1.18437E+04  1.06547E+04 -1.26629E+03  2.26563E+03  6.35566E+03
 -6.10942E+03  1.84654E+03 -5.77488E+03 -5.24414E+03 -5.56359E+02 -1.37689E+04  1.02636E+04 -1.34025E+04
  1.63866E+04 -8.40936E+03  1.65153E+04  1.59709E+03  1.50158E+04  1.27554E+04  7.22853E+03  2.07086E+04
 -3.05848E+03  2.14762E+04 -1.31589E+04  1.44851E+04 -1.48712E+04  3.35292E+03 -1.08139E+04 -3.75363E+03
 -5.14290E+03 -4.72259E+03  1.91762E+02  1.40837E+03 -1.29270E+03  1.60138E+03 -5.22189E+03  4.93210E+03
 -1.01396E+04 -1.27955E+03 -1.11165E+04 -8.74706E+03 -4.25298E+03 -1.46841E+04  3.96973E+03 -1.06194E+04
  8.91845E+03 -4.19462E+03  7.02370E+03  1.90424E+03  1.27779E+03  4.56285E+03 -5.53390E+03 -1.99300E+02
 -4.08926E+03 -7.92934E+03 -1.14917E+03 -1.00562E+04  5.56792E+03 -1.03563E+04  1.45644E+04 -7.05459E+03
  1.69244E+04  1.21419E+03  1.28100E+04  9.85026E+03  6.41502E+02  1.24957E+04 -7.43011E+03  9.58366E+03
 -8.91742E+03  3.68218E+03 -4.49347E+03 -2.86179E+03  1.83958E+03 -2.57122E+03  4.71209E+03 -7.89939E+02
  4.81416E+03  4.94323E+03  4.75595E+02  7.63194E+03 -6.15255E+03  7.92806E+03 -1.21924E+04  3.16710E+03
 -6.72180E+03 -5.48707E+03  5.29022E+02 -1.01072E+04  6.06922E+03 -5.15629E+03  4.83432E+03  1.25437E+03
  2.32624E+03  4.74442E+03 -5.14585E+03  7.26805E+03 -7.52554E+03  3.63001E+03 -7.66413E+03 -3.31034E+03
 -4.75912E+03 -9.67754E+03  3.07630E+03 -1.12813E+04  9.13065E+03 -7.06789E+03  9.26950E+03  2.91307E+03
  5.26035E+03  6.69743E+03 -1.03611E+03  1.04751E+04 -6.39127E+03  6.53062E+03 -8.71042E+03 -1.01893E+03
 -7.05941E+03 -7.56304E+03 -1.33641E+03 -7.13596E+03  3.29690E+03 -6.37761E+03  4.91842E+03 -2.26866E+03
  4.19678E+03  7.37784E+02 -8.14983E+02  2.23514E+03 -3.50011E+02 -2.82949E+03  8.92568E+02 -2.78423E+03
  6.07394E+03 -2.85899E+03  9.03815E+03 -7.98282E+02  9.29931E+03  5.69122E+03  6.59912E+03  1.23788E+04
 -2.28442E+03  1.45170E+04 -1.13120E+04  1.01766E+04 -1.38507E+04  1.91891E+03 -1.24744E+04 -4.08588E+03
 -5.95049E+03 -1.10286E+04  4.22879E+02 -9.20279E+03  2.60864E+03 -4.58471E+03  3.66825E+03 -1.72320E+03
  2.55667E+03 -1.11702E+03  2.28660E+03 -2.59377E+03  2.88216E+03 -1.01694E+03  4.28641E+03  2.37662E+02
  6.59614E+03  1.70583E+03  3.94721E+03  5.44115E+03 -2.69167E+03  6.53453E+03 -6.28570E+03  5.08191E+03
 -8.50277E+03 -7.03163E+02 -4.00669E+03 -5.68577E+03 -3.18593E+02 -9.35844E+03  4.97646E+03 -8.49649E+03
  8.62963E+03 -5.95096E+03  1.20150E+04  9.98960E+02  7.70458E+03  6.75607E+03  2.92333E+03  1.08759E+04
 -4.86926E+03  7.95606E+03 -6.58495E+03  3.18389E+03 -3.09694E+03 -1.34118E+03 -9.79894E+02 -4.77716E+02
  3.87674E+02  7.73502E+02 -2.08935E+03  2.40553E+03 -2.71845E+03  1.99342E+03 -5.98746E+03 -5.72720E+02
 -2.79909E+03 -5.62058E+03  1.41799E+03 -6.39249E+03  3.65211E+03 -8.63785E+03  8.21490E+03 -2.48154E+03
  7.39784E+03  2.54890E+03  2.79275E+03  6.15303E+03 -4.55856E+02  7.79649E+03 -4.67628E+03  3.83262E+03
 -6.37492E+03  1.94411E+02 -5.57230E+03 -4.43553E+03  2.03521E+02 -6.77834E+03  4.17049E+03 -3.45616E+03
  5.68851E+03 -1.47772E+03  2.70354E+03  9.11140E+02  2.38830E+03  3.73817E+03  8.34249E+02  1.01856E+03
  2.79067E+03  6.70101E+02  1.86046E+03  1.23855E+03  9.20331E+02  2.96668E+03  2.43093E+03  3.28824E+03
 -2.91870E+03  5.63221E+03 -5.12927E+03  5.45243E+03 -6.90827E+03  2.55811E+03 -9.31477E+03 -2.84813E+03
 -4.02651E+03 -8.97834E+03  1.24956E+03 -8.63602E+03  3.16882E+03 -5.13218E+03  6.09791E+03 -4.97431E+02
  5.48142E+03  3.58314E+03  7.64583E+02  4.93737E+03 -2.44463E+03  2.88871E+03 -3.28172E+03 -4.46054E+02
 -1.50066E+03 -3.40723E+03  2.69631E+03 -2.48728E+03  2.58616E+03 -3.03322E+03  3.45540E+03 -6.06316E+02
  1.98026E+03  1.05108E+03  1.05645E+03 -6.68708E+01 -4.95315E+02  1.43066E+03  1.07809E+03 -3.69850E+02
  4.17245E+02  4.44031E+02  3.42202E+03  1.78388E+03  2.27208E+03  4.35742E+03  4.00353E+01  5.87188E+03
 -3.95404E+03  2.84302E+03 -4.18976E+03  9.43818E+02 -4.01067E+03 -1.68344E+03 -1.19890E+03 -2.58874E+03
  5.98123E+02 -3.59148E+03  1.07979E+03 -1.62624E+03 -1.42603E+02  1.47067E+03 -1.29265E+02  2.04217E+03
 -2.87591E+03  1.35938E+03 -2.50216E+03 -2.75363E+03 -1.27938E+03 -2.73409E+03  1.54743E+03 -3.38344E+03
  2.60536E+03 -1.10805E+03  1.42279E+03 -3.97349E+01  1.73928E+03  1.05520E+03  4.93463E+02  1.22639E+03
 -1.99219E+03  6.59880E+02 -1.98261E+03 -2.40240E+03  5.69507E+02 -1.85825E+03  4.35057E+03 -1.46817E+03
  1.93674E+03  8.71487E+02  5.64667E+03  2.87208E+03  1.26490E+03  3.29713E+03 -1.56582E+03  4.99798E+03
 -4.56350E+03  1.44801E+03 -3.77162E+03 -9.32346E+02 -2.26132E+03 -2.43474E+03  1.52892E+02 -1.86977E+03
  2.76265E+03 -1.15892E+03  3.40247E+02  6.53603E+02  1.28538E+03  1.51131E+03 -1.33938E+03  1.21758E+03
 -1.22386E+03  7.28542E+02 -1.68978E+03  1.15464E+03 -3.78020E+02  3.30607E+02 -7.60843E+02  6.14551E+02
 -1.03089E+03  2.65955E+03 -3.89913E+03  1.81555E+03 -3.85396E+03  8.58809E+02 -5.13819E+03 -2.88008E+03
 -1.46910E+03 -5.02851E+03  1.97762E+03 -6.81218E+03  3.12761E+03 -4.01967E+03  7.32394E+03 -1.47448E+03
  5.78587E+03  8.28810E+02  3.14692E+03  3.69737E+03  1.06469E+02  3.40766E+03 -1.99543E+03  3.31129E+03
 -2.30185E+03  2.30316E+03 -2.58444E+03 -6.74176E+02 -1.07473E+03 -3.80888E+00 -9.31080E+02 -6.11023E+02
 -4.64202E+02 -3.45331E+02 -4.77527E+02 -4.46910E+02  4.90342E+02 -2.40989E+03 -1.79024E+02 -3.16721E+03
  2.27655E+03 -1.47790E+03  1.17054E+03  1.44944E+03  2.73391E+03  2.46060E+03  6.29242E+02  3.72348E+03
 -1.92176E+03  3.96598E+03 -4.13631E+03  2.82703E+03 -4.33059E+03 -3.44234E+00 -3.53243E+03 -3.19430E+03
 -1.18179E+03 -3.29926E+03  1.52095E+03 -4.26024E+03  3.09948E+03 -9.20647E+02  2.51594E+03  6.17679E+02
  1.62416E+03  3.47807E+02 -1.39531E+02  1.20010E+03 -1.67223E+03 -1.76375E+02 -2.10653E+02 -1.40359E+03
  1.65481E+03 -1.40401E+03  1.46101E+03  6.89759E+02  6.88861E+02  9.26357E+02 -1.99277E+02  1.89350E+03
 -9.88945E+02  1.62905E+03 -2.48718E+03 -9.69630E+02 -3.17133E+03 -1.22034E+03 -2.81461E+02 -2.91283E+03
  1.97995E+03 -2.46199E+03  2.23791E+03 -5.47564E+02  3.94998E+03 -1.95425E+02  1.86054E+03  2.62152E+03
  6.07327E+02  1.98479E+03 -2.18566E+03  1.96706E+03 -7.06974E+02  1.38260E+03 -1.16162E+03  7.65283E+02
 -4.76924E+02 -1.23560E+03 -1.65355E+03 -6.79655E+02 -1.07752E+03 -1.83695E+02 -1.48730E+03 -4.51822E+02
 -2.97668E+03 -4.53192E+02 -8.58730E+02 -2.52478E+03  1.20996E+03 -2.40217E+03  2.69417E+03  3.02106E+02
  1.41874E+03 -3.47063E+02  7.15687E+02  1.44631E+03  5.43325E+02  1.82818E+03 -1.93280E+03  2.26636E+03
