 $NMID ID='MM_0lb_SNR200_17hz_g60_98.RAW', FMTDAT='(8E13.5)'
 TRAMP=1., VOLUME=1. $END
  3.09479E+05 -5.02606E+02  3.37191E+05  2.51056E+05  8.51995E+04  3.38560E+05 -1.31895E+05  2.51234E+05
 -1.89915E+05  8.31954E+04 -1.12262E+05 -3.41760E+04  9.09502E+02 -5.04313E+04  5.47297E+04 -1.31302E+03
  3.60537E+04  5.24989E+04 -1.61369E+04  7.50484E+04 -6.07289E+04  6.33362E+04 -8.51081E+04  3.10897E+04
 -7.96482E+04 -1.14652E+04 -5.78843E+04 -5.22270E+04 -1.54007E+04 -6.89146E+04  2.68947E+04 -4.48448E+04
  3.91635E+04  3.77401E+03  1.65568E+04  4.85821E+04 -3.42161E+04  4.68658E+04 -6.62459E+04  6.94021E+02
 -5.32274E+04 -5.62568E+04 -6.58117E+03 -7.68035E+04  3.33801E+04 -5.51003E+04  4.86272E+04 -1.70299E+04
  4.32650E+04  1.19236E+04  3.18850E+04  2.42235E+04  1.49862E+04  2.96659E+04 -4.98735E+03  2.74708E+04
 -2.16586E+04  1.23417E+04 -1.84514E+04 -5.64486E+03  4.77467E+03 -7.78270E+03  2.17003E+04  1.29455E+04
  7.47717E+03  3.50101E+04 -3.12363E+04  3.49174E+04 -6.20903E+04  1.95211E+03 -5.81968E+04 -4.25250E+04
 -1.09720E+04 -6.27108E+04  3.96672E+04 -4.42498E+04  5.69171E+04 -1.22882E+03  3.37843E+04  3.05953E+04
 -5.23979E+03  3.64974E+04 -2.98173E+04  1.57787E+04 -3.04919E+04 -5.40670E+03 -1.63471E+04 -9.78624E+03
 -9.79448E+03 -1.39683E+04 -2.13943E+03 -1.71769E+04  6.28779E+03 -2.34785E+04  1.56276E+04 -1.44219E+04
  1.15096E+04  5.35031E+03 -8.27841E+03  1.32473E+04 -2.06467E+04 -4.05596E+03 -8.81500E+03 -3.36513E+04
  2.16023E+04 -4.38232E+04  4.68358E+04 -1.96163E+04  4.42304E+04  2.02489E+04  1.43380E+04  4.32573E+04
 -1.60588E+04  3.30452E+04 -2.52815E+04  7.97041E+02 -9.46427E+03 -2.82614E+04  2.12566E+04 -3.20512E+04
  4.12280E+04 -8.47950E+03  3.39847E+04  2.38098E+04  1.74333E+04  4.71114E+04 -6.75011E+03  4.91472E+04
 -3.12088E+04  3.30071E+04 -4.02219E+04  9.97833E+03 -4.21245E+04 -1.55152E+04 -2.32159E+04 -3.71011E+04
  6.17214E+03 -3.73191E+04  3.10955E+04 -1.50810E+04  2.87722E+04  1.03302E+04  3.29066E+03  1.90699E+04
 -1.28622E+04  7.50069E+03 -1.02041E+04 -6.30645E+03  5.85339E+03 -1.06418E+04  1.67993E+04  5.88960E+03
  1.30860E+04  2.22831E+04 -6.25691E+03  2.54293E+04 -2.23845E+04  1.16956E+04 -2.76025E+04 -5.34094E+03
 -1.93097E+04 -1.78866E+04 -6.84779E+03 -2.03908E+04  2.81942E+03 -1.82827E+04  1.48191E+04 -1.79178E+04
  2.42130E+04 -1.14083E+04  3.17241E+04  2.72449E+03  2.35043E+04  1.84080E+04  4.78548E+03  3.51835E+04
 -1.68886E+04  2.92880E+04 -2.73483E+04  1.06007E+04 -2.00262E+04 -1.03794E+04 -5.89689E+03 -1.36301E+04
  1.41325E+03 -3.93987E+03 -4.29468E+03  5.73556E+03 -1.49194E+04  5.45448E+03 -1.52762E+04 -6.99295E+03
 -9.71039E+03 -1.80371E+04  3.71849E+03 -2.21035E+04  1.49343E+04 -1.45485E+04  1.75864E+04 -1.46915E+03
  1.06216E+04  1.26919E+04 -7.60524E+02  1.77390E+04 -1.13695E+04  1.05761E+04 -1.63404E+04 -3.61715E+03
 -1.32299E+04 -1.59802E+04 -3.14016E+03 -2.29618E+04  9.52269E+03 -1.90391E+04  1.77540E+04 -8.57963E+03
  1.72795E+04  1.31243E+03  1.20222E+04  4.58618E+03  6.15264E+03  3.00625E+02  9.51628E+03 -1.90075E+03
  1.56925E+04  2.97759E+03  1.75161E+04  1.43900E+04  1.14254E+04  2.91574E+04 -3.58781E+03  3.02326E+04
 -1.89863E+04  2.47689E+04 -2.94507E+04  1.20828E+04 -2.96713E+04 -2.02372E+03 -2.59451E+04 -1.76916E+04
 -1.08867E+04 -2.53385E+04  8.25545E+03 -2.33592E+04  1.98250E+04 -1.16057E+04  1.70251E+04  4.60594E+03
  7.77397E+03  1.37166E+04 -7.88063E+03  1.19217E+04 -1.49762E+04  1.97960E+03 -1.06933E+04 -1.09424E+04
 -1.20399E+01 -1.45644E+04  7.05227E+03 -1.07222E+04  1.11892E+04 -7.77152E+02  1.81049E+03  6.04697E+03
 -6.23840E+03  1.86946E+03 -5.64258E+03 -4.46728E+03 -4.58042E+02 -1.22913E+04  8.65435E+03 -1.30981E+04
  1.44679E+04 -6.08084E+03  1.58253E+04  2.47811E+03  1.37591E+04  1.20496E+04  7.14557E+03  1.63959E+04
 -3.52946E+03  1.95632E+04 -1.14187E+04  1.29963E+04 -1.38809E+04  3.61730E+03 -1.00021E+04 -3.18935E+03
 -5.38777E+03 -5.24008E+03 -4.54812E+02  8.39992E+02 -1.76892E+03  1.69162E+03 -4.31194E+03  3.58420E+03
 -9.29175E+03 -8.03771E+02 -1.01603E+04 -8.31815E+03 -5.07204E+03 -1.33318E+04  4.18624E+03 -1.03169E+04
  8.33335E+03 -5.30805E+03  6.06976E+03  2.29118E+03  5.24505E+01  3.58563E+03 -5.16807E+03 -5.72978E+02
 -3.16625E+03 -6.43316E+03 -1.89591E+03 -9.57831E+03  5.39925E+03 -9.76256E+03  1.15191E+04 -5.54414E+03
  1.53820E+04  1.42621E+03  1.15669E+04  7.74148E+03  2.44136E+03  1.05506E+04 -7.35721E+03  8.88591E+03
 -7.37419E+03  2.15303E+03 -4.46267E+03 -2.68153E+03  1.96637E+03 -2.73970E+03  7.49364E+03 -1.16621E+03
  5.20574E+03  3.45050E+03  1.87452E+03  8.24543E+03 -6.08947E+03  6.23797E+03 -8.63923E+03  3.14049E+03
 -6.80816E+03 -4.94961E+03 -7.46263E+01 -7.80356E+03  5.56503E+03 -4.92214E+03  4.80297E+03  1.93308E+03
  4.98192E+02  6.04483E+03 -3.85903E+03  7.03564E+03 -5.97335E+03  2.17549E+03 -6.01975E+03 -1.39862E+03
 -3.56309E+03 -9.24359E+03  1.67072E+03 -9.60202E+03  8.60626E+03 -5.46768E+03  8.71202E+03  1.21885E+03
  6.04202E+03  6.47404E+03 -7.85393E+02  8.67296E+03 -6.17850E+03  6.03541E+03 -5.92990E+03 -1.46833E+02
 -5.73945E+03 -6.26827E+03 -1.17585E+03 -7.45465E+03  3.73093E+03 -4.64458E+03  4.04150E+03 -2.39917E+03
  3.45574E+03  9.55753E+02 -2.43456E+02  1.11488E+03 -9.10826E+01  3.08609E+02 -2.07071E+02 -2.29392E+03
  5.40080E+03 -1.42291E+03  7.04801E+03  1.19203E+03  7.21088E+03  3.68048E+03  6.36250E+03  1.01262E+04
 -1.27285E+03  1.10156E+04 -9.17942E+03  8.22507E+03 -1.17714E+04  1.73448E+03 -1.00502E+04 -3.89775E+03
 -4.77650E+03 -8.14829E+03  5.42572E+02 -6.48176E+03  3.24659E+03 -2.80498E+03  2.60209E+03 -1.23927E+03
  1.66496E+03 -2.49743E+03  2.41564E+03 -2.33829E+03  3.09320E+03 -2.01948E+03  4.02926E+03  5.08493E+02
  5.89322E+03  2.02454E+03  2.80680E+03  4.79590E+03 -1.92816E+03  4.22239E+03 -5.86547E+03  4.65342E+03
 -7.37277E+03 -2.77914E+02 -2.60697E+03 -3.00979E+03  3.09065E+02 -6.37353E+03  3.87756E+03 -7.47052E+03
  6.84756E+03 -4.96210E+03  8.43084E+03  2.40547E+03  7.67816E+03  5.88105E+03  1.09647E+03  7.58431E+03
 -2.84078E+03  7.52256E+03 -4.31729E+03  2.48520E+03 -3.38985E+03 -1.18446E+03 -1.56024E+03  2.24239E+02
 -7.82812E+02  5.27738E+01 -2.06368E+03  3.50389E+03 -2.63990E+03  1.21413E+03 -4.58327E+03 -6.66827E+02
 -3.14298E+03 -5.45773E+03  1.25653E+03 -5.72615E+03  3.20200E+03 -6.17808E+03  5.20378E+03 -1.95446E+03
  6.52145E+03  4.71820E+03  2.46073E+03  4.97517E+03 -1.42781E+03  5.94023E+03 -3.62354E+03  3.16204E+03
 -5.22971E+03  5.95831E+02 -4.67557E+03 -3.43124E+03 -5.63191E+02 -5.11216E+03  2.85947E+03 -4.16099E+03
  3.16923E+03 -1.94860E+03  2.64107E+03 -4.63097E+02  4.86127E+02  2.56979E+03  3.08443E+02  1.99590E+03
  1.68072E+03  7.56982E+02  1.47373E+03 -3.62004E+02  1.46925E+03  3.02674E+03  2.20389E+03  2.64817E+03
 -1.35157E+03  4.39030E+03 -3.19248E+03  4.65570E+03 -3.71550E+03  1.18005E+03 -5.43657E+03 -1.12476E+03
 -1.58461E+03 -4.86243E+03  1.86665E+02 -5.44017E+03  2.20638E+03 -3.55673E+03  4.51046E+03 -1.00367E+03
  4.00635E+03  3.66061E+03 -3.56912E+02  2.13923E+03 -4.08951E+02  1.23303E+03 -1.35808E+03 -3.73474E+02
 -6.17373E+02 -2.73960E+03  1.12774E+03 -2.68794E+03  2.26529E+03 -1.68547E+03  2.90664E+03 -4.86015E+01
  4.97571E+02  1.00313E+03  2.54143E+02 -1.66488E+02 -4.33277E+02  1.58003E+03  1.75388E+03 -6.91501E+02
  1.03576E+03  4.61853E+02  1.44508E+03  1.59210E+02  2.59228E+02  2.13880E+03 -2.03610E+02  3.92883E+03
 -2.33276E+03  1.26210E+03 -1.91087E+03  1.45660E+03 -2.78888E+03 -1.18796E+03 -1.01658E+03 -2.24019E+03
  2.16441E+02 -2.39111E+03  1.80063E+01 -1.66871E+01  1.30162E+03  1.36564E+02 -1.62724E+03  8.09483E+02
 -1.63474E+03  1.33054E+03 -2.68124E+03 -6.69188E+02 -2.79643E+03 -2.83990E+03  7.61608E+01 -2.35915E+03
  1.66779E+03 -1.63956E+03  1.58200E+03  3.84997E+02  6.98150E+02  2.37196E+02  8.41206E+02  1.38232E+03
 -3.96461E+02  1.47176E+02 -2.09440E+03  4.63871E+01  1.32372E+03 -8.13616E+02  2.23059E+03 -1.45210E+03
  1.72583E+03  9.42335E+02  3.58822E+03  2.33973E+02  5.89068E+02  3.09967E+03 -3.41013E+02  2.99232E+03
 -9.40196E+02  5.34080E+02 -2.71851E+03 -2.17282E+02 -9.30836E+02 -2.58260E+03  3.58674E+02 -1.50632E+03
  1.95185E+03 -1.14603E+03  3.29352E+02  1.50149E+03 -5.75204E+01  1.50611E+03 -2.09486E+01  1.94107E+03
 -6.38840E+02  1.17515E+03 -5.61564E+02  1.44585E+02 -8.28933E+02 -1.58571E+00 -8.82225E+02  2.18873E+02
 -2.92881E+02  2.77132E+03 -2.21717E+03  5.84906E+02 -2.86166E+03 -3.05063E+01 -2.97015E+03 -1.27378E+03
 -1.16050E+03 -3.41054E+03 -5.49625E+02 -2.41454E+03  7.11176E+02 -2.63702E+03  4.51322E+03 -1.85091E+03
  3.01306E+03  7.19778E+02  9.33619E+02  1.97231E+03 -3.73714E+02  8.98375E+02 -8.20126E+02  2.23489E+03
 -1.24090E+03  1.01447E+03 -4.25221E+02 -1.04594E+02 -8.26206E+02  5.72923E+02 -1.32401E+03  6.95410E+02
 -1.68068E+03 -7.38035E+02 -4.19030E+02 -2.84978E+02  6.02738E+02 -1.45403E+03  2.80302E+02 -9.86482E+02
  1.02958E+03 -1.52214E+02  1.27922E+03 -7.31817E+02  7.14046E+02  1.61037E+03 -4.92989E+02  2.19979E+03
 -2.27241E+03  3.55659E+03 -3.16633E+03  1.26094E+03 -1.58550E+03 -3.29861E+02 -1.67650E+03 -1.80302E+03
 -6.70606E+02 -2.80852E+03  2.29433E+02 -1.11678E+03  1.81992E+03 -2.90489E+02  1.50427E+03  1.31891E+02
  2.74352E+02  5.52685E+02  2.50355E+02  1.78794E+03 -3.29056E+02 -1.18312E+02  1.02220E+03  2.84853E+02
  5.22077E+02 -5.07830E+01  1.27621E+03  4.24349E+02 -3.92946E+02  7.03409E+02  1.10755E+03  8.79528E+02
 -4.11328E+02  1.12222E+03 -1.10982E+03  5.42997E+02 -9.03513E+02 -6.49894E+02 -1.22774E+03 -2.49468E+03
  9.36446E+02 -1.19832E+03  2.54088E+03 -1.96301E+02  2.46944E+03 -1.30783E+03  7.55192E+02  2.59012E+03
  5.57940E+02 -2.77082E+02 -8.65017E+02  1.45486E+03 -1.13976E+03  7.63590E+02 -3.99893E+02  3.27605E+02
 -4.61055E+02 -5.36113E+02 -2.43213E+02  6.98702E+02  3.93444E+01  7.96793E+02 -1.37804E+03 -1.51626E+03
 -1.29222E+03  5.17176E+02 -9.92678E+02 -1.67784E+03  1.52172E+03 -2.23634E+03  6.98412E+02  4.03718E+01
  1.14460E+03 -1.00597E+03  2.26057E+02  2.27528E+01 -4.59497E+02  1.49626E+03  2.97352E+01  1.30266E+03
