 $NMID ID='MM_0lb_SNR200_17hz_g40_65.RAW', FMTDAT='(8E13.5)'
 TRAMP=1., VOLUME=1. $END
  3.10028E+05  4.94687E+02  3.38148E+05  2.49398E+05  8.41955E+04  3.37448E+05 -1.31821E+05  2.49297E+05
 -1.89816E+05  8.22281E+04 -1.10258E+05 -3.29730E+04  1.07212E+03 -4.99836E+04  5.35797E+04  1.21327E+03
  3.45756E+04  5.27814E+04 -1.73337E+04  7.60495E+04 -5.97550E+04  6.27459E+04 -8.23794E+04  3.24307E+04
 -7.90586E+04 -9.90960E+03 -5.54658E+04 -5.01847E+04 -1.51016E+04 -6.74632E+04  2.68695E+04 -4.54718E+04
  3.93903E+04  3.93246E+03  1.46291E+04  4.75820E+04 -3.36266E+04  4.60053E+04 -6.48299E+04 -1.30690E+03
 -5.18689E+04 -5.62727E+04 -6.53683E+03 -7.49133E+04  3.26372E+04 -5.32464E+04  4.59121E+04 -1.58818E+04
  4.13883E+04  1.04961E+04  3.06794E+04  2.47625E+04  1.50006E+04  2.80685E+04 -4.56757E+03  2.71300E+04
 -2.09938E+04  1.29144E+04 -2.03088E+04 -3.87253E+03  4.34470E+03 -9.06110E+03  2.13596E+04  1.12470E+04
  7.24951E+03  3.31738E+04 -3.08000E+04  3.31863E+04 -6.10787E+04  2.04116E+03 -5.47098E+04 -4.16965E+04
 -1.15352E+04 -6.06266E+04  3.79895E+04 -4.46771E+04  5.56705E+04 -2.60134E+03  3.29562E+04  3.00189E+04
 -7.72038E+03  3.30188E+04 -2.86688E+04  1.30927E+04 -2.75643E+04 -5.18897E+03 -1.42419E+04 -1.14088E+04
 -7.46119E+03 -1.17984E+04 -6.55989E+02 -1.64811E+04  6.71723E+03 -2.20643E+04  1.46655E+04 -1.42642E+04
  1.13503E+04  4.84250E+03 -7.00682E+03  1.25038E+04 -1.91749E+04 -2.46590E+03 -8.37755E+03 -3.07670E+04
  2.11811E+04 -4.06707E+04  4.55550E+04 -1.76143E+04  4.30912E+04  1.81214E+04  1.39902E+04  4.15941E+04
 -1.55284E+04  3.11302E+04 -2.39281E+04  8.88458E+02 -8.63417E+03 -2.67590E+04  2.04603E+04 -3.14068E+04
  3.81649E+04 -7.49965E+03  3.21566E+04  2.28908E+04  1.60777E+04  4.24091E+04 -8.08615E+03  4.56372E+04
 -2.86098E+04  2.99982E+04 -3.77198E+04  8.75659E+03 -3.81712E+04 -1.50188E+04 -2.09805E+04 -3.43755E+04
  7.14557E+03 -3.51213E+04  2.85195E+04 -1.32086E+04  2.66899E+04  1.08262E+04  2.32915E+03  1.71789E+04
 -1.23264E+04  7.81373E+03 -9.71628E+03 -6.86896E+03  5.07954E+03 -9.83689E+03  1.73512E+04  7.21623E+03
  1.25794E+04  2.22755E+04 -6.53905E+03  2.36466E+04 -2.12574E+04  9.63505E+03 -2.57255E+04 -5.72798E+03
 -1.83936E+04 -1.67450E+04 -5.82535E+03 -1.72805E+04  3.82093E+03 -1.51160E+04  1.37975E+04 -1.50414E+04
  2.12623E+04 -1.24971E+04  2.78638E+04  9.72300E+02  2.21376E+04  1.85309E+04  4.36772E+03  3.24854E+04
 -1.62543E+04  2.84141E+04 -2.69931E+04  9.23877E+03 -1.88623E+04 -1.00670E+04 -3.07223E+03 -1.36514E+04
  2.60082E+03 -4.25303E+03 -3.23931E+03  5.74171E+03 -1.38674E+04  5.06838E+03 -1.36608E+04 -5.58696E+03
 -8.41974E+03 -1.63612E+04  4.04635E+03 -1.91361E+04  1.23295E+04 -1.52852E+04  1.46542E+04 -1.90229E+03
  9.17231E+03  1.19197E+04  4.76205E+02  1.64582E+04 -1.13128E+04  8.42342E+03 -1.60467E+04 -3.85157E+03
 -1.22065E+04 -1.38114E+04 -1.55153E+03 -1.87514E+04  9.93694E+03 -1.52815E+04  1.56399E+04 -7.89739E+03
  1.57887E+04  1.37087E+03  1.11689E+04  4.18838E+03  5.43418E+03  5.04964E+02  8.36373E+03 -2.82004E+02
  1.45387E+04  2.21155E+03  1.60324E+04  1.25972E+04  8.93068E+03  2.55492E+04 -2.61988E+03  2.79604E+04
 -1.56867E+04  2.07771E+04 -2.52813E+04  9.29808E+03 -2.55834E+04 -2.60876E+03 -2.27800E+04 -1.57014E+04
 -9.39859E+03 -2.14414E+04  7.06558E+03 -2.09083E+04  1.83154E+04 -1.06718E+04  1.60320E+04  4.23470E+03
  6.76574E+03  1.06732E+04 -7.32611E+03  1.09877E+04 -1.33873E+04  3.26264E+03 -1.05199E+04 -8.26076E+03
  4.52078E+02 -1.35112E+04  5.80403E+03 -9.86071E+03  7.22338E+03 -1.80105E+03  1.34657E+03  4.83177E+03
 -5.71874E+03  2.09854E+03 -4.74280E+03 -4.35888E+03 -4.98032E+02 -1.16061E+04  8.34253E+03 -1.08981E+04
  1.35656E+04 -4.97975E+03  1.26920E+04  3.13695E+03  1.11461E+04  1.00027E+04  4.94056E+03  1.50269E+04
 -1.62409E+03  1.61933E+04 -1.01252E+04  1.17750E+04 -1.21263E+04  3.37486E+03 -8.09969E+03 -8.39071E+02
 -3.91856E+03 -2.97986E+03 -7.57019E+02  1.46450E+03 -1.18359E+03  3.25473E+03 -3.25332E+03  4.36462E+03
 -7.45183E+03 -5.48826E+02 -8.99617E+03 -8.08475E+03 -4.19131E+03 -1.11728E+04  3.46908E+03 -9.08086E+03
  7.46801E+03 -3.73539E+03  5.00932E+03  2.25827E+03 -6.84047E+02  3.37586E+03 -4.06332E+03 -3.40879E+02
 -4.23284E+03 -5.00393E+03 -1.37002E+03 -8.09795E+03  3.84050E+03 -8.72787E+03  9.76549E+03 -3.89011E+03
  1.20211E+04 -4.26950E+02  8.43373E+03  7.18551E+03  5.89313E+02  9.48429E+03 -5.84449E+03  8.88444E+03
 -7.66117E+03  3.04394E+03 -4.65744E+03 -1.69904E+03  1.25765E+03 -1.04951E+03  4.09162E+03 -5.28058E+02
  3.93033E+03  3.25282E+03  1.42031E+03  7.77861E+03 -4.57130E+03  6.86453E+03 -8.31610E+03  1.84223E+03
 -4.32503E+03 -4.06327E+03 -7.73714E+02 -6.90401E+03  4.07064E+03 -3.04411E+03  4.55655E+03  1.63040E+03
  7.19571E+02  4.29896E+03 -5.60081E+03  5.14665E+03 -5.11567E+03  2.69823E+03 -4.60609E+03 -2.43780E+03
 -4.17184E+03 -5.23517E+03  1.00855E+03 -7.66173E+03  6.66717E+03 -5.88296E+03  7.80021E+03  1.41941E+03
  4.15746E+03  5.28157E+03 -7.98776E+02  7.64845E+03 -5.44762E+03  4.57053E+03 -5.78998E+03 -1.23583E+03
 -6.24023E+03 -5.74395E+03 -1.02652E+03 -5.70036E+03  3.42719E+03 -5.41609E+03  3.36071E+03 -3.57572E+03
  2.72709E+03  3.86323E+02 -6.64079E+01  3.68667E+02  1.38975E+03 -1.02632E+03 -4.13557E+02 -1.84155E+03
  4.29706E+03 -9.37725E+02  5.22719E+03  1.66900E+03  4.91270E+03  5.10858E+03  4.50332E+03  8.52545E+03
 -1.59809E+03  1.05532E+04 -8.73028E+03  7.92441E+03 -1.07702E+04  2.02714E+03 -8.57714E+03 -3.92613E+03
 -4.56188E+03 -7.73622E+03 -5.91838E+02 -5.60244E+03  1.94456E+03 -1.98266E+03  2.09657E+03 -2.05480E+03
  1.39087E+03 -1.34418E+03  1.60711E+03 -3.10677E+03  2.63782E+03 -5.90571E+02  4.40286E+03  7.42970E+01
  4.86194E+03  6.03406E+02  2.04129E+03  2.92665E+03 -2.39971E+03  2.92811E+03 -5.65937E+03  2.74089E+03
 -4.86870E+03 -1.87952E+03 -1.70850E+03 -4.63278E+03  5.77107E+02 -5.27204E+03  4.44719E+03 -6.81152E+03
  6.09016E+03 -3.41370E+03  8.39573E+03  7.83612E+02  5.37990E+03  4.79235E+03  1.31490E+03  7.32068E+03
 -3.10237E+03  5.70929E+03 -3.98599E+03  1.82775E+03 -2.41105E+03 -5.09228E+02  3.91361E+02 -4.66789E+02
  9.13668E+02 -1.34360E+02 -1.10382E+03  2.68045E+03 -3.21648E+03  4.21908E+02 -4.46501E+03 -5.43460E+02
 -2.13905E+03 -3.87966E+03  7.43948E+02 -5.02955E+03  3.19475E+03 -4.33040E+03  4.86850E+03 -1.19301E+03
  4.10662E+03  2.55512E+03  2.78746E+03  3.63302E+03 -1.93230E+03  3.92960E+03 -3.13571E+03  2.57207E+03
 -5.61100E+03 -4.76638E+02 -3.75534E+03 -2.85389E+03 -1.33979E+03 -3.82575E+03  1.91354E+03 -2.13599E+03
  3.42117E+03 -7.93963E+02  3.79378E+03  1.17560E+03  1.71263E+03  1.00696E+03  6.68882E+02 -2.65746E+01
  1.40601E+03  1.10519E+03  1.34315E+03  1.43812E+03  8.93982E+02  2.63599E+03  1.98110E+03  1.46372E+03
 -1.52418E+03  3.49576E+03 -2.82348E+03  3.39802E+03 -4.41023E+03  1.20552E+03 -5.52469E+03  5.77581E+02
 -2.81994E+03 -4.68098E+03 -1.75588E+02 -5.89855E+03  3.44773E+03 -2.55593E+03  3.69233E+03 -1.53889E+03
  2.17128E+03  2.53274E+03  6.77326E+02  2.85768E+03 -1.84409E+03  5.64560E+02 -1.58504E+03  4.30924E+02
 -1.00650E+03 -2.48775E+03  1.94616E+03 -1.63772E+03  9.75385E+02 -7.58489E+02  6.22520E+02  2.26286E+01
  2.00943E+03  4.29027E+02 -3.80355E+01 -8.83476E+02 -5.95032E+02 -7.41340E+01  8.37048E+02 -7.83380E+02
  6.94875E+02 -1.66432E+03  1.68961E+03  1.04568E+03  5.04518E+02  2.95561E+03 -2.23636E+02  3.37291E+03
 -2.23495E+03  1.84645E+03 -1.78437E+03  7.60739E+01 -2.81839E+03  7.55846E+02 -9.48572E+02 -1.23215E+02
  3.64673E+02 -1.83942E+03  2.09382E+03 -1.38158E+03  7.56305E+02  8.09906E+02 -9.75767E+02  8.67100E+02
 -1.89150E+03  1.46643E+03 -2.32341E+03 -3.03836E+03 -1.53438E+03 -2.77472E+03 -4.51053E+02 -3.60556E+03
  6.63778E+02 -2.02183E+02  1.04668E+03 -4.44593E+02  1.85600E+03 -3.62825E+02  8.68434E+02  1.66686E+03
 -8.50551E+02 -2.11269E+02 -1.80401E+02 -8.14595E+01  7.69033E+02 -5.53712E+02  1.67328E+03 -1.02810E+03
  1.98147E+03  6.61673E+02  2.94715E+03  1.20697E+03  1.32649E+03  3.05983E+03 -6.81030E+02  2.43417E+03
 -2.36450E+03 -3.90514E+02 -2.42311E+03  1.66840E+02 -1.65438E+03 -1.70667E+03  1.16305E+02 -1.61541E+03
  2.44409E+03 -3.17574E+02  2.11918E+03  1.46574E+03  4.65954E+02  1.11052E+03  1.30338E+02  5.86057E+02
 -1.16041E+03  1.37323E+02 -1.11600E+03 -6.49407E+02  4.22725E+01  6.47158E+02 -5.27239E+02  8.29150E+02
 -5.70657E+02  1.95397E+03 -3.17722E+03  5.79586E+02 -2.23000E+03  2.23889E+02 -2.85963E+03 -2.36195E+03
 -1.49517E+03 -4.00142E+03  7.16064E+02 -2.74668E+03  1.43644E+03 -2.75277E+03  2.58661E+03 -1.31640E+03
  3.31178E+03  9.16228E+02  1.18598E+03  1.62615E+03 -1.31713E+02  2.61710E+03 -1.62267E+03  1.55606E+03
 -1.54006E+03  1.04750E+03 -8.21393E+02  3.58461E+02 -6.31763E+02 -6.38005E+02 -9.40607E+02  2.38164E+02
 -1.60493E+03  6.19601E+02 -1.10272E+02  3.37120E+02  2.60430E+02  6.68947E+02  7.13135E+02 -1.39818E+03
  7.37518E+02 -1.15861E+03  4.10112E+02  5.97731E+02  2.68678E+03  7.70234E+02 -7.39065E+02  2.75260E+03
 -1.83923E+02  4.10970E+03 -3.69740E+03  1.50626E+03 -1.72781E+03  2.74045E+02 -1.66534E+03 -1.68972E+03
 -8.97456E+02 -2.77699E+03  8.55802E+02 -1.79295E+03  1.15744E+03 -4.42960E+02  1.82493E+03 -3.56826E+02
  1.11825E+02  6.24027E+02  8.30210E+02  3.23465E+02 -3.11302E+02 -4.55492E+02  1.75017E+02 -5.46842E+02
  2.55702E+03  2.61876E+02 -7.85052E+01  3.04473E+02 -7.70942E+02  9.36551E+02  4.61360E+01  1.15160E+03
 -7.57331E+02  7.58214E+02 -1.81459E+03 -3.09374E+02 -1.10053E+03 -2.34490E+02 -3.25693E+02 -1.46179E+03
  6.32099E+02 -1.49796E+03  9.53730E+02 -1.46018E+02  6.00169E+02 -1.05625E+03 -5.64740E+01  7.82363E+01
  5.29088E+01  8.27996E+02 -1.01584E+03  3.19230E+02 -1.13523E+03 -8.94233E+01 -8.13554E+02  3.51331E+02
  8.66075E+02  2.97614E+02 -1.10296E+03 -3.47066E+02 -6.43390E+02 -1.28785E+02 -1.71521E+03 -1.08190E+03
 -1.91861E+03 -5.57971E+02 -4.50636E+01 -1.85439E+03  1.39785E+03 -2.10679E+03  8.68891E+02  6.43506E+02
  9.60277E+02  5.72233E+02 -2.25165E+02  1.11623E+03  2.42472E+02  1.45161E+03 -7.10739E+02  4.98282E+02
