 $NMID ID='MM_0lb_SNR200_16hz_g50_76.RAW', FMTDAT='(8E13.5)'
 TRAMP=1., VOLUME=1. $END
  3.09507E+05  8.03986E+01  3.38137E+05  2.48974E+05  8.55113E+04  3.37986E+05 -1.32752E+05  2.50246E+05
 -1.89881E+05  8.32502E+04 -1.10770E+05 -3.26375E+04  9.80598E+02 -5.00596E+04  5.33634E+04 -1.10258E+03
  3.50268E+04  5.28133E+04 -1.78811E+04  7.44670E+04 -6.09199E+04  6.26325E+04 -8.45428E+04  3.12071E+04
 -8.14036E+04 -1.18728E+04 -5.65057E+04 -5.06195E+04 -1.53161E+04 -6.82456E+04  2.76133E+04 -4.58253E+04
  3.96752E+04  2.95110E+03  1.56768E+04  4.76176E+04 -3.44024E+04  4.73325E+04 -6.58433E+04 -5.90613E+02
 -5.33921E+04 -5.71240E+04 -6.49000E+03 -7.72213E+04  3.47773E+04 -5.57240E+04  4.69373E+04 -1.63231E+04
  4.09046E+04  1.04993E+04  3.06283E+04  2.60441E+04  1.51440E+04  2.80493E+04 -3.95266E+03  2.65164E+04
 -2.11330E+04  1.30898E+04 -1.85678E+04 -3.51683E+03  4.83619E+03 -6.59060E+03  2.19761E+04  1.12423E+04
  6.44708E+03  3.43810E+04 -3.17967E+04  3.48713E+04 -6.23832E+04  2.94829E+03 -5.62108E+04 -4.27815E+04
 -1.31320E+04 -6.25854E+04  3.93702E+04 -4.41427E+04  5.85291E+04 -1.64726E+03  3.25036E+04  3.15598E+04
 -7.59208E+03  3.53248E+04 -2.97341E+04  1.50381E+04 -2.99894E+04 -5.11856E+03 -1.57391E+04 -1.01784E+04
 -8.67509E+03 -1.26069E+04 -8.19018E+02 -1.84799E+04  7.61251E+03 -2.33743E+04  1.41550E+04 -1.39832E+04
  1.24474E+04  4.89739E+03 -7.35215E+03  1.36416E+04 -2.04288E+04 -2.59004E+03 -7.47568E+03 -3.21404E+04
  2.22534E+04 -4.15358E+04  4.59914E+04 -1.89001E+04  4.42989E+04  1.86698E+04  1.41379E+04  4.35636E+04
 -1.51051E+04  3.19035E+04 -2.44770E+04  1.11554E+03 -9.18996E+03 -2.72280E+04  1.99806E+04 -3.21385E+04
  3.95463E+04 -8.02535E+03  3.39554E+04  2.35902E+04  1.71603E+04  4.45727E+04 -8.99040E+03  4.72455E+04
 -3.03135E+04  3.20250E+04 -4.08503E+04  9.46545E+03 -4.06691E+04 -1.60637E+04 -2.25509E+04 -3.54452E+04
  6.97732E+03 -3.59770E+04  3.12124E+04 -1.49603E+04  2.83621E+04  1.11333E+04  4.35834E+03  1.93894E+04
 -1.28135E+04  8.38004E+03 -1.01239E+04 -7.96512E+03  6.38932E+03 -1.01815E+04  1.72301E+04  6.71938E+03
  1.31437E+04  2.21954E+04 -6.10026E+03  2.52968E+04 -2.26343E+04  9.56984E+03 -2.59910E+04 -5.12864E+03
 -1.91630E+04 -1.68621E+04 -6.85992E+03 -1.96440E+04  3.16498E+03 -1.68045E+04  1.48460E+04 -1.54514E+04
  2.36027E+04 -1.34520E+04  3.03504E+04  2.30379E+03  2.19277E+04  1.82259E+04  4.54482E+03  3.43701E+04
 -1.74092E+04  2.86758E+04 -2.66194E+04  1.01928E+04 -2.04038E+04 -9.57609E+03 -3.87183E+03 -1.40587E+04
  3.31690E+03 -4.08532E+03 -4.08912E+03  6.56693E+03 -1.57495E+04  4.92827E+03 -1.46840E+04 -6.98483E+03
 -9.66023E+03 -1.78318E+04  3.74068E+03 -2.23433E+04  1.39493E+04 -1.62789E+04  1.59610E+04 -2.75834E+03
  9.69513E+03  1.16915E+04 -2.86795E+03  1.75583E+04 -1.32062E+04  1.05755E+04 -1.81741E+04 -3.21756E+03
 -1.25495E+04 -1.61978E+04 -2.27920E+03 -2.18663E+04  8.48362E+03 -1.84547E+04  1.84002E+04 -7.58219E+03
  1.65125E+04 -8.47318E+02  1.28128E+04  3.95115E+03  5.38209E+03  1.01304E+03  8.95849E+03 -1.29190E+03
  1.56239E+04  2.90278E+03  1.73355E+04  1.52190E+04  1.21696E+04  2.78335E+04 -2.21185E+03  3.02775E+04
 -1.69417E+04  2.48031E+04 -2.88971E+04  1.17874E+04 -2.99539E+04 -2.97522E+03 -2.49982E+04 -1.66283E+04
 -1.05750E+04 -2.43148E+04  7.60958E+03 -2.21967E+04  1.80739E+04 -1.19197E+04  1.84886E+04  4.75321E+03
  6.82064E+03  1.24218E+04 -7.88184E+03  1.15152E+04 -1.52117E+04  1.63229E+03 -1.16678E+04 -9.76482E+03
 -5.76840E+02 -1.38178E+04  6.50422E+03 -1.00557E+04  8.07910E+03 -1.05172E+03  2.01821E+03  3.99274E+03
 -6.44900E+03  2.07628E+03 -5.76341E+03 -5.45659E+03  1.59192E+03 -1.22551E+04  8.64341E+03 -1.17112E+04
  1.60320E+04 -6.74317E+03  1.49673E+04  2.38900E+03  1.35372E+04  1.17882E+04  5.58944E+03  1.84890E+04
 -2.07775E+03  1.89575E+04 -1.23386E+04  1.06899E+04 -1.49094E+04  2.77640E+03 -9.68824E+03 -2.31653E+03
 -5.35135E+03 -4.47281E+03 -9.62285E+02  1.52346E+03 -2.21146E+03  2.37996E+03 -4.41954E+03  3.58018E+03
 -1.00424E+04 -1.47490E+03 -1.07370E+04 -7.58178E+03 -3.31595E+03 -1.35472E+04  3.87275E+03 -9.72952E+03
  9.38664E+03 -5.92063E+03  6.78060E+03  2.77121E+03  2.35034E+02  3.08777E+03 -4.14862E+03 -6.08728E+02
 -4.96842E+03 -6.14582E+03 -1.24998E+03 -1.00273E+04  5.70702E+03 -1.02478E+04  1.24279E+04 -4.89341E+03
  1.43259E+04  8.86975E+02  1.01570E+04  8.11540E+03  1.93105E+03  1.24312E+04 -6.48490E+03  1.06095E+04
 -8.09250E+03  2.25113E+03 -3.58589E+03 -1.17603E+03  2.32003E+02 -2.70451E+03  5.57548E+03 -1.08486E+03
  5.30847E+03  3.58274E+03  1.73460E+03  7.01810E+03 -5.79253E+03  7.64839E+03 -9.62539E+03  2.52783E+03
 -5.65016E+03 -3.04536E+03 -2.92813E+02 -9.30823E+03  4.11826E+03 -3.38463E+03  5.00002E+03  2.88148E+02
  2.26955E+03  5.73896E+03 -5.00352E+03  5.56826E+03 -6.81563E+03  1.76496E+03 -6.40887E+03 -2.18190E+03
 -3.76805E+03 -7.74746E+03  2.80007E+03 -9.26870E+03  7.48037E+03 -5.85456E+03  8.72608E+03  1.56511E+03
  6.22628E+03  6.92940E+03 -9.52265E+01  8.93014E+03 -7.20064E+03  5.27625E+03 -5.59030E+03 -7.33975E+02
 -6.28108E+03 -6.34005E+03 -4.10564E+02 -6.04872E+03  3.43262E+03 -5.75216E+03  3.53538E+03 -3.25014E+03
  4.03177E+03  2.67777E+02 -1.55480E+02  1.07183E+03  6.03673E+02 -1.61374E+03  1.09727E+03 -4.92616E+03
  3.93924E+03 -6.65429E+02  7.59764E+03  9.38050E+02  7.68353E+03  4.17925E+03  7.36495E+03  9.71147E+03
 -2.79393E+03  1.12952E+04 -9.20195E+03  8.54449E+03 -1.34100E+04  1.54278E+03 -1.02619E+04 -5.24244E+03
 -5.70116E+03 -8.26323E+03 -2.82423E+02 -6.55500E+03  2.04898E+03 -3.46268E+03  3.22221E+03 -2.90062E+03
  1.25969E+03 -1.37949E+03  3.00394E+03 -3.24360E+03  3.48912E+03 -2.20799E+03  4.45609E+03  5.37418E+02
  5.92778E+03  2.34322E+03  1.37365E+03  4.27092E+03 -1.13250E+03  4.40663E+03 -5.54863E+03  3.55155E+03
 -5.12367E+03 -1.49748E+03 -2.87065E+03 -4.01845E+03 -1.42489E+02 -6.40500E+03  4.62174E+03 -7.23257E+03
  8.06284E+03 -4.60544E+03  7.97928E+03  8.24355E+01  6.41913E+03  4.67148E+03  1.48591E+03  8.77445E+03
 -2.72064E+03  8.15039E+03 -3.99105E+03  1.98662E+03 -2.50997E+03 -1.61360E+03 -3.65001E+02 -1.48395E+03
  3.58769E+02  8.72585E+02 -1.70190E+03  1.98929E+03 -4.26854E+03  8.36768E+02 -5.71383E+03 -7.28220E+01
 -1.85387E+03 -4.91519E+03  5.04576E+02 -6.21344E+03  3.44290E+03 -6.32666E+03  4.87648E+03 -1.57614E+03
  5.02998E+03  3.19754E+03  2.74156E+03  4.38255E+03 -2.03793E+03  6.52320E+03 -3.26097E+03  3.95218E+03
 -5.18316E+03 -2.81963E+02 -4.50486E+03 -3.06128E+03 -1.42525E+03 -4.93055E+03  1.72430E+03 -3.29854E+03
  4.77865E+03 -1.79024E+03  2.60313E+03  7.27351E+02  1.87877E+03  2.35738E+03  6.75791E+02  3.74053E+01
  2.41059E+03 -4.38944E+02  1.75527E+03  8.42886E+02  2.24533E+03  3.47973E+03  1.44546E+03  2.84216E+03
 -3.47423E+03  4.04512E+03 -3.37837E+03  6.61331E+03 -4.02807E+03 -8.78680E+01 -6.04786E+03 -1.21645E+03
 -3.13372E+03 -4.96247E+03 -1.04276E+03 -5.70113E+03  1.91918E+03 -3.42785E+03  5.76496E+03 -7.68751E+02
  3.58879E+03  2.41509E+03  1.09136E+02  3.64745E+03 -2.06553E+03  1.53467E+03 -2.19308E+03  5.43346E+02
 -2.17494E+03 -1.31398E+03  1.13893E+03 -2.38157E+03  2.55433E+03 -4.46105E+02  2.43214E+03  6.56233E+02
 -1.19150E+02  5.47132E+02  1.24639E+03  9.14753E+02  6.16155E+01  5.06803E+02  1.17664E+03  3.47595E+02
 -3.84446E+02 -6.19179E+02  2.38389E+03  1.07999E+03  1.52817E+03  3.04377E+03 -1.82702E+03  3.53328E+03
 -2.03624E+03  2.14037E+03 -2.61177E+03  4.30102E+02 -2.90629E+03 -2.05197E+03 -1.01713E+03 -2.19431E+03
  6.95315E+02 -1.73767E+03  1.81232E+03  2.28234E+02  5.94836E+02  2.23746E+03 -1.58557E+03  9.92971E+02
 -1.53419E+03  3.78169E+02 -1.14616E+03 -1.62071E+03 -1.71571E+03 -2.29040E+03  1.18947E+03 -1.80274E+03
  1.07570E+03 -1.26291E+03  1.33815E+03 -3.49898E+02  1.10089E+03  4.25007E+02  5.47431E+02  2.12655E+03
 -7.65482E+02  8.95795E+02 -3.02870E+02 -7.91625E+02  4.62136E+02 -2.29711E+03  2.33759E+03 -1.82892E+03
  3.02757E+03 -6.96931E+01  3.19105E+03  1.63828E+03  1.33240E+03  2.84398E+03 -3.99523E+02  3.93900E+03
 -2.60695E+03  1.43107E+02 -2.39922E+03  2.90841E+02 -1.41082E+03 -1.19168E+03  1.10253E+03 -1.43745E+03
  1.47635E+03 -7.95335E+02 -7.22532E+01  7.41004E+02  2.47493E+02  2.82530E+03  6.99695E+01  2.57694E+03
 -1.21256E+03  2.23101E+03 -1.58592E+02 -1.96117E+01 -3.03324E+02  1.04400E+03 -6.53091E+02  3.57202E+02
 -1.40239E+03  1.64435E+03 -2.04221E+03  5.02681E+02 -3.27384E+03 -2.04015E+02 -4.13067E+03 -1.49747E+03
 -1.38898E+03 -4.20423E+03  4.93975E+02 -3.24737E+03  2.06331E+03 -2.99983E+03  4.03962E+03 -7.18460E+02
  3.55548E+03 -3.60528E+02  1.24902E+03  1.98693E+03  6.98877E+02  4.18503E+03 -1.17300E+03  2.07373E+03
 -2.20256E+03  9.46136E+02 -2.27856E+00  1.06142E+03 -1.03356E+03  1.25946E+03 -1.13945E+03 -1.43576E+03
 -9.75409E+02  7.41935E+02 -2.98933E+02 -2.32702E+02 -2.86868E+02 -1.05649E+03  2.02942E+02 -7.79588E+02
  1.98099E+03 -4.63924E+02  4.88041E+02 -1.39632E+02  2.87471E+03  1.29717E+03  3.44040E+01  2.66434E+03
 -1.26715E+03  4.08619E+03 -2.43213E+03  5.51830E+02 -2.54246E+03 -7.45777E+02 -2.22739E+03 -2.24093E+03
 -1.47267E+03 -3.36404E+03  1.36773E+03 -2.57863E+03  1.13274E+03 -8.89904E+02  2.39236E+03  9.73188E+02
  1.51774E+03  1.04660E+03  1.09054E+03  2.67032E+02 -3.86622E+02  1.23219E+03  7.64437E+02 -5.27542E+02
  9.48181E+02 -1.79707E+02 -1.09100E+02  4.11128E+02 -4.41123E+02  2.68158E+02 -2.45601E+02  1.17281E+03
 -3.60052E+02  4.54813E+02 -1.47223E+03  3.68348E+02 -1.07652E+03 -1.08594E+03  5.58774E+02 -2.45365E+03
  9.16146E+02 -6.78794E+02  7.53601E+02 -7.71111E+02  1.77833E+03 -1.55100E+03  1.23930E+03  1.12844E+03
  1.51147E+02  2.35548E+03 -7.78124E+00  5.35211E+02 -1.85211E+03  1.11921E+03 -1.13196E+03  5.34115E+01
  2.43293E+02  1.83455E+02  3.25372E+02 -6.77022E+02 -6.88370E+02  8.09219E+02  4.67975E+02 -3.57531E+02
 -7.53022E+02 -7.03652E+02 -1.30273E+03 -1.83050E+03  1.33464E+03 -2.32119E+03  2.48986E+02 -1.88763E+03
  1.78307E+03 -5.02424E+02  1.69753E+03  2.63045E+02 -1.21676E+03  1.07958E+03 -1.04521E+03  9.67549E+02
