 $NMID ID='MM_0lb_SNR200_8hz_g60_37.RAW', FMTDAT='(8E13.5)'
 TRAMP=1., VOLUME=1. $END
  3.09995E+05  2.05819E+03  3.39149E+05  2.51277E+05  8.25439E+04  3.38158E+05 -1.33044E+05  2.52052E+05
 -1.90672E+05  8.23446E+04 -1.12970E+05 -3.05681E+04 -3.02667E+02 -4.96946E+04  5.32610E+04 -2.14356E+03
  3.54399E+04  5.50633E+04 -1.69698E+04  7.70115E+04 -6.00578E+04  6.42507E+04 -8.56421E+04  3.34554E+04
 -8.13579E+04 -1.28110E+04 -5.80937E+04 -5.08989E+04 -1.47107E+04 -7.05330E+04  2.89269E+04 -4.70008E+04
  3.99836E+04  5.70835E+03  1.62871E+04  4.94115E+04 -3.52489E+04  4.92680E+04 -6.79679E+04  2.61020E+02
 -5.67669E+04 -5.70738E+04 -5.84781E+03 -7.92021E+04  3.34325E+04 -5.87622E+04  5.04064E+04 -1.89275E+04
  4.58563E+04  1.10873E+04  3.31314E+04  2.72781E+04  1.61371E+04  3.09971E+04 -5.04309E+03  2.75395E+04
 -2.36796E+04  1.12294E+04 -1.79611E+04 -4.84129E+03  7.27756E+03 -7.09126E+03  2.38447E+04  1.48469E+04
  6.15570E+03  3.69223E+04 -3.51202E+04  3.67985E+04 -6.91270E+04  1.88948E+03 -5.91415E+04 -4.60912E+04
 -1.17484E+04 -6.71751E+04  4.36035E+04 -4.73461E+04  6.27478E+04 -4.54630E+03  3.89402E+04  3.43241E+04
 -6.28295E+03  3.92946E+04 -3.16365E+04  2.07558E+04 -3.52842E+04 -3.29092E+03 -1.86299E+04 -1.21205E+04
 -8.88446E+03 -1.59007E+04 -5.53283E+02 -2.10644E+04  8.25508E+03 -2.51773E+04  1.50331E+04 -1.37094E+04
  1.12437E+04  6.93319E+03 -9.90988E+03  1.36941E+04 -2.46746E+04 -5.86337E+03 -1.00517E+04 -3.82725E+04
  2.60415E+04 -4.70631E+04  5.46448E+04 -2.25066E+04  4.89711E+04  2.06658E+04  1.83087E+04  4.81878E+04
 -1.73231E+04  3.79124E+04 -3.02211E+04  3.05874E+03 -1.24760E+04 -2.97058E+04  2.22239E+04 -3.85565E+04
  4.59666E+04 -1.23432E+04  4.10000E+04  2.65377E+04  2.21772E+04  5.24523E+04 -8.83554E+03  5.96880E+04
 -3.59863E+04  4.03337E+04 -5.03237E+04  1.18274E+04 -4.94554E+04 -1.83939E+04 -2.67523E+04 -4.47326E+04
  6.69851E+03 -4.31721E+04  3.48757E+04 -1.67010E+04  3.38366E+04  1.02669E+04  3.97515E+03  2.16448E+04
 -1.37830E+04  9.92725E+03 -1.20641E+04 -7.82537E+03  7.38113E+03 -1.36608E+04  1.86550E+04  6.37056E+03
  1.62763E+04  2.23452E+04 -6.15842E+03  2.83647E+04 -2.31004E+04  1.49969E+04 -3.15036E+04 -4.18073E+03
 -2.53041E+04 -1.89266E+04 -1.30428E+04 -2.80027E+04  4.22920E+03 -2.92742E+04  2.25996E+04 -2.64962E+04
  3.64222E+04 -1.50774E+04  4.01600E+04  5.10667E+03  2.88416E+04  2.60920E+04  3.69341E+03  4.48074E+04
 -2.18461E+04  3.42061E+04 -3.11714E+04  1.24188E+04 -2.20611E+04 -8.08061E+03 -4.40347E+03 -1.25233E+04
 -1.07883E+02  6.37150E+02 -7.96104E+03  8.40702E+03 -2.28262E+04  5.45035E+03 -2.14130E+04 -8.88717E+03
 -1.34117E+04 -2.65043E+04  7.16275E+03 -3.04791E+04  2.17828E+04 -2.05869E+04  2.41054E+04 -8.07384E+02
  1.50752E+04  1.61784E+04 -1.90243E+03  2.68134E+04 -1.84181E+04  1.54420E+04 -2.59954E+04 -4.60945E+03
 -1.82609E+04 -2.30515E+04 -1.88240E+03 -2.99796E+04  1.22215E+04 -2.56942E+04  2.58057E+04 -1.09743E+04
  2.33335E+04 -8.20018E+02  1.79547E+04  5.66752E+03  1.02393E+04  2.09630E+03  1.38127E+04 -2.23242E+03
  2.37100E+04  3.66580E+03  2.70679E+04  1.90009E+04  2.07722E+04  4.01504E+04 -4.07559E+03  4.93732E+04
 -2.86699E+04  4.28893E+04 -4.61840E+04  1.99875E+04 -4.92801E+04 -3.16506E+03 -3.97649E+04 -2.75709E+04
 -1.45807E+04 -4.14890E+04  1.68079E+04 -3.78122E+04  3.16400E+04 -1.75818E+04  2.66711E+04  8.10843E+03
  9.62848E+03  2.05597E+04 -1.06559E+04  1.73492E+04 -2.25432E+04  3.60732E+03 -1.72222E+04 -1.48347E+04
  1.05355E+03 -2.10227E+04  1.00615E+04 -1.45517E+04  1.43333E+04 -7.08066E+02  3.39308E+03  1.01211E+04
 -8.75816E+03  6.18094E+03 -1.15047E+04 -9.01779E+03 -1.31734E+03 -2.11272E+04  1.27743E+04 -2.31292E+04
  2.64358E+04 -1.31148E+04  2.92612E+04  2.74886E+03  2.55368E+04  2.20573E+04  1.12566E+04  3.24541E+04
 -6.49705E+03  3.65283E+04 -2.36850E+04  2.08266E+04 -2.64060E+04  4.45584E+03 -1.65003E+04 -8.00119E+03
 -6.04563E+03 -8.60588E+03 -1.10046E+03  2.88432E+03 -2.11285E+03  5.62642E+03 -8.25915E+03  6.08148E+03
 -1.56471E+04 -7.50801E+02 -1.71952E+04 -1.21366E+04 -7.85142E+03 -2.18799E+04  7.52603E+03 -1.89985E+04
  1.37297E+04 -5.87203E+03  1.00197E+04  4.32174E+03  1.09788E+03  7.23944E+03 -9.36400E+03 -1.97514E+03
 -8.53896E+03 -9.67286E+03  9.61445E+02 -1.66363E+04  8.97922E+03 -1.83866E+04  2.35421E+04 -1.03991E+04
  2.69796E+04  2.55770E+03  1.90760E+04  1.45280E+04  4.51636E+03  2.04820E+04 -1.09740E+04  1.77976E+04
 -1.40695E+04  5.72221E+03 -5.94472E+03 -3.71737E+03  9.54707E+02 -4.77211E+03  1.07467E+04 -3.33772E+03
  6.98006E+03  7.16566E+03  4.38851E+02  1.45910E+04 -1.03528E+04  1.41556E+04 -1.69490E+04  3.48918E+03
 -1.24287E+04 -9.47550E+03  1.14771E+03 -1.55829E+04  1.04976E+04 -8.56438E+03  1.16097E+04  3.08249E+03
  4.51632E+03  1.09269E+04 -8.26624E+03  1.38564E+04 -1.64429E+04  5.81198E+03 -1.50909E+04 -6.84149E+03
 -9.92503E+03 -1.76057E+04  4.16977E+03 -2.23917E+04  1.86377E+04 -1.15725E+04  2.18887E+04  2.33940E+03
  1.24882E+04  1.53574E+04 -1.35571E+03  1.90681E+04 -1.35091E+04  9.21727E+03 -1.36887E+04 -1.33003E+03
 -1.23017E+04 -1.13403E+04 -1.91236E+03 -1.27494E+04  8.85614E+03 -9.56860E+03  8.56061E+03 -3.54360E+03
  6.44668E+03  2.91506E+03 -1.76551E+03  2.63543E+03 -9.02366E+02 -3.31706E+03  2.04327E+03 -8.02997E+03
  1.56900E+04 -6.16548E+03  1.95312E+04  2.39121E+03  1.86711E+04  1.46056E+04  1.25377E+04  2.34256E+04
 -4.25542E+03  3.09079E+04 -2.26628E+04  2.21847E+04 -3.08402E+04  3.86397E+03 -2.48980E+04 -1.06768E+04
 -1.26396E+04 -2.01452E+04 -2.69998E+03 -1.66208E+04  5.03617E+03 -9.57580E+03  5.47657E+03 -6.34586E+03
  3.54221E+03 -4.27661E+03  2.52474E+03 -5.33853E+03  6.93168E+03 -4.45443E+03  9.86470E+03 -2.55762E+03
  1.16696E+04  1.41393E+03  7.40064E+03  1.13696E+04 -2.76454E+03  1.40367E+04 -1.34733E+04  1.09349E+04
 -1.71801E+04  2.69256E+02 -1.26468E+04 -1.37252E+04 -4.61292E+02 -1.79507E+04  9.09112E+03 -1.90128E+04
  1.95081E+04 -1.00340E+04  2.33463E+04  3.55744E+03  1.67350E+04  1.62086E+04  4.54332E+03  2.18734E+04
 -8.79165E+03  1.77927E+04 -1.35583E+04  5.49411E+03 -8.14392E+03 -3.34054E+03 -2.44880E+03 -3.83620E+03
 -9.15521E+02  3.99242E+02 -2.79293E+03  3.79405E+03 -7.77575E+03  2.71688E+03 -1.17405E+04 -2.75058E+03
 -9.49468E+03 -1.23146E+04 -1.42020E+03 -1.73006E+04  1.13943E+04 -1.42112E+04  1.59806E+04 -5.08208E+03
  1.66837E+04  1.10550E+04  6.72958E+03  1.48109E+04 -4.46714E+03  1.79999E+04 -1.28138E+04  1.13075E+04
 -1.85981E+04  4.81254E+02 -1.23798E+04 -1.15127E+04 -7.18234E+02 -1.59269E+04  7.94766E+03 -9.99139E+03
  1.07939E+04 -1.81685E+03  9.42850E+03  4.76862E+03  2.87757E+03  5.64433E+03  1.92721E+03  2.47268E+03
  3.16932E+03  2.90147E+03  4.01019E+03  3.32471E+03  5.25343E+03  7.08448E+03  4.31027E+03  1.11870E+04
 -3.67835E+03  1.57662E+04 -1.08973E+04  1.36538E+04 -1.86393E+04  4.05939E+03 -1.77658E+04 -8.26526E+03
 -8.10296E+03 -1.91650E+04  4.16261E+03 -1.96183E+04  1.27102E+04 -1.40234E+04  1.54881E+04 -4.64844E+03
  9.21071E+03  6.95108E+03  1.19844E+03  1.01875E+04 -4.83242E+03  6.41726E+03 -8.55151E+03 -8.05497E+02
 -2.77469E+03 -6.84909E+03  4.33996E+03 -6.55026E+03  8.51473E+03 -4.99079E+03  7.35857E+03  2.23621E+03
  5.35374E+03  4.84147E+03 -1.56454E+02  2.17812E+03  8.03855E+02  1.50079E+03  2.53490E+03  7.72927E+01
  4.02056E+03 -3.27726E+03  8.30857E+03  3.99310E+03  5.81629E+03  8.63336E+03 -1.86111E+03  1.35672E+04
 -9.03188E+03  1.06750E+04 -1.14106E+04  2.36775E+03 -1.08364E+04 -6.31529E+03 -4.46896E+03 -8.89046E+03
  3.04638E+03 -9.08348E+03  4.94955E+03 -4.72474E+03  3.73261E+03  3.58553E+03 -1.01434E+03  7.42310E+03
 -7.30633E+03  3.01073E+03 -8.57483E+03 -5.05035E+03 -5.19741E+03 -1.00161E+04  1.15297E+03 -1.04532E+04
  5.24621E+03 -7.74282E+03  7.60205E+03 -1.71438E+03  6.34426E+03  3.91840E+03  2.02987E+03  5.72625E+03
 -3.72842E+03  2.41990E+03 -5.06864E+03 -4.40220E+03  2.23385E+03 -8.43910E+03  9.92717E+03 -7.31663E+03
  1.16524E+04  3.44267E+03  1.31548E+04  9.61080E+03  3.43558E+03  1.31716E+04 -4.05228E+03  1.14512E+04
 -1.13844E+04  4.00754E+03 -1.09669E+04 -7.65032E+02 -6.08916E+03 -8.74600E+03 -8.35481E+02 -8.78494E+03
  8.38131E+03 -4.31947E+03  7.10172E+03  2.65551E+03  2.45281E+03  6.31324E+03 -4.39239E+03  5.40454E+03
 -3.78039E+03  4.29017E+03 -4.68487E+03  2.22657E+02 -2.07426E+03  1.79673E+03 -1.53085E+03  3.84437E+03
 -2.17147E+03  6.55280E+03 -8.57098E+03  4.95351E+03 -1.41264E+04 -3.86512E+02 -1.25525E+04 -1.07550E+04
 -7.65283E+03 -1.71825E+04  3.35608E+03 -2.06896E+04  1.12572E+04 -1.57387E+04  1.69362E+04 -6.82363E+03
  1.68421E+04  3.55863E+03  1.04144E+04  1.03824E+04  1.00445E+02  1.48350E+04 -6.84163E+03  8.86894E+03
 -7.44838E+03  4.43385E+03 -3.64864E+03 -1.83389E+03 -1.86125E+03 -3.89252E+02 -1.91508E+03 -7.26911E+02
 -3.82830E+03 -3.49386E+02 -1.97464E+03  1.47414E+03 -6.36517E+02 -4.14092E+03  1.05315E+03 -3.29277E+03
  4.27521E+03 -3.31181E+03  8.93948E+03 -3.28548E+01  9.53764E+03  5.84012E+03  7.92756E+02  1.28184E+04
 -6.89437E+03  1.57931E+04 -1.41111E+04  9.41295E+03 -1.70693E+04 -4.54799E+01 -1.26868E+04 -1.02831E+04
 -4.88543E+03 -1.37461E+04  1.67989E+03 -1.21569E+04  8.97808E+03 -6.97892E+03  8.82630E+03 -7.82378E+02
  4.23296E+03  4.77985E+03 -6.98439E+02  5.02268E+03 -1.24230E+03 -1.76338E+03  2.02547E+02 -2.10827E+03
  3.76091E+03 -1.58149E+03  5.93266E+03  1.99764E+03  3.47217E+03  6.83446E+03 -1.57976E+03  7.86657E+03
 -5.66637E+03  7.63513E+03 -8.83189E+03  7.39479E+02 -9.03795E+03 -4.73038E+03 -1.72976E+03 -1.21482E+04
  6.76241E+03 -1.07181E+04  1.05023E+04 -3.44234E+03  1.01780E+04  3.78999E+03  8.10767E+03  8.25269E+03
  1.83337E+02  1.05595E+04 -2.44252E+03  8.46994E+03 -7.32407E+03  4.53032E+03 -5.72621E+03  2.18605E+03
 -1.96369E+03  4.91880E+02 -3.40235E+03  6.31281E+02 -5.10232E+03  1.48407E+03 -6.87668E+03 -1.36520E+03
 -5.22913E+03 -5.53018E+03 -8.25308E+02 -1.01242E+04  5.65898E+03 -1.02780E+04  9.20811E+03 -5.57534E+03
  9.50144E+03  1.13760E+03  6.11023E+03  6.75159E+03 -9.36707E+01  9.17092E+03 -8.78016E+03  5.82831E+03
