 $NMID ID='MM_0lb_SNR200_19hz_g55_57.RAW', FMTDAT='(8E13.5)'
 TRAMP=1., VOLUME=1. $END
  3.09380E+05  5.81595E+02  3.37102E+05  2.50586E+05  8.56432E+04  3.37328E+05 -1.32373E+05  2.50568E+05
 -1.88938E+05  8.15102E+04 -1.11434E+05 -3.28714E+04  1.63031E+03 -5.05151E+04  5.49061E+04 -1.95668E+02
  3.53105E+04  5.27801E+04 -1.70920E+04  7.50805E+04 -5.92730E+04  6.13887E+04 -8.30331E+04  3.28762E+04
 -7.99137E+04 -1.07796E+04 -5.74714E+04 -4.99539E+04 -1.35718E+04 -6.91114E+04  2.65791E+04 -4.53167E+04
  3.95752E+04  4.44152E+03  1.66509E+04  4.77566E+04 -3.35583E+04  4.73912E+04 -6.56732E+04 -5.39024E+02
 -5.27806E+04 -5.62829E+04 -6.36029E+03 -7.51529E+04  3.31029E+04 -5.36908E+04  4.71381E+04 -1.61651E+04
  4.17281E+04  1.12655E+04  3.15688E+04  2.37862E+04  1.56012E+04  2.91644E+04 -4.62525E+03  2.58245E+04
 -2.15002E+04  1.23033E+04 -1.93972E+04 -3.96351E+03  5.39821E+03 -7.87334E+03  2.09430E+04  1.22661E+04
  7.41839E+03  3.42266E+04 -3.12323E+04  3.49653E+04 -6.16238E+04  8.49926E+02 -5.43913E+04 -4.21384E+04
 -1.22273E+04 -6.12116E+04  3.88244E+04 -4.36007E+04  5.55329E+04 -2.27792E+03  3.26102E+04  3.01841E+04
 -6.49273E+03  3.31667E+04 -2.88992E+04  1.36008E+04 -2.80015E+04 -5.08235E+03 -1.46820E+04 -1.08346E+04
 -7.81258E+03 -1.21485E+04 -6.33781E+02 -1.79818E+04  6.66014E+03 -2.25314E+04  1.45136E+04 -1.46227E+04
  1.25869E+04  4.20392E+03 -6.55239E+03  1.27882E+04 -1.98336E+04 -2.92930E+03 -8.52839E+03 -3.05437E+04
  2.10641E+04 -4.20201E+04  4.43077E+04 -1.82454E+04  4.32934E+04  1.88623E+04  1.36968E+04  4.26922E+04
 -1.64528E+04  3.19389E+04 -2.50558E+04  1.72271E+03 -9.25366E+03 -2.58906E+04  2.16177E+04 -3.27608E+04
  3.91126E+04 -7.82039E+03  3.30679E+04  2.26227E+04  1.68820E+04  4.23016E+04 -7.34298E+03  4.72357E+04
 -2.95169E+04  3.01056E+04 -3.86539E+04  7.79539E+03 -3.93123E+04 -1.48211E+04 -2.17557E+04 -3.55234E+04
  5.86512E+03 -3.45726E+04  2.97166E+04 -1.31338E+04  2.78693E+04  1.19324E+04  2.42305E+03  1.76695E+04
 -1.23254E+04  8.10594E+03 -9.37020E+03 -7.24247E+03  6.82305E+03 -9.92157E+03  1.70885E+04  7.60924E+03
  1.24830E+04  2.19169E+04 -6.01621E+03  2.31939E+04 -2.24491E+04  9.02231E+03 -2.59840E+04 -5.93770E+03
 -1.74114E+04 -1.58742E+04 -5.99325E+03 -1.80492E+04  3.91667E+03 -1.60419E+04  1.37528E+04 -1.54966E+04
  2.21382E+04 -1.25628E+04  2.79779E+04  7.01093E+02  2.20480E+04  1.73669E+04  4.78267E+03  3.28927E+04
 -1.63928E+04  2.81622E+04 -2.55741E+04  9.36614E+03 -2.01546E+04 -1.21927E+04 -4.55266E+03 -1.26592E+04
  3.12734E+03 -3.50240E+03 -3.36384E+03  6.10546E+03 -1.29954E+04  4.21830E+03 -1.34906E+04 -4.90122E+03
 -9.52963E+03 -1.64666E+04  4.32045E+03 -2.07581E+04  1.39170E+04 -1.49526E+04  1.47981E+04 -1.30389E+03
  8.85409E+03  1.11255E+04 -3.65783E+02  1.67304E+04 -1.08015E+04  8.91321E+03 -1.56595E+04 -4.03322E+03
 -1.24895E+04 -1.45416E+04 -5.27357E+02 -1.98148E+04  7.85182E+03 -1.52326E+04  1.72397E+04 -6.96050E+03
  1.47094E+04  4.33387E+02  1.16771E+04  2.96894E+03  4.78491E+03  3.80849E+02  8.47672E+03 -1.89643E+02
  1.39995E+04  2.57689E+03  1.53107E+04  1.25719E+04  8.70602E+03  2.62504E+04 -2.81098E+03  2.84571E+04
 -1.65683E+04  2.16795E+04 -2.52808E+04  8.87565E+03 -2.57169E+04 -1.32580E+03 -2.23875E+04 -1.50201E+04
 -9.60856E+03 -1.99743E+04  6.07368E+03 -2.01729E+04  1.77224E+04 -1.06091E+04  1.60294E+04  3.76030E+03
  6.27182E+03  1.14127E+04 -7.99757E+03  1.13819E+04 -1.44507E+04  3.40260E+03 -1.08027E+04 -8.09236E+03
 -1.89428E+02 -1.22003E+04  5.98113E+03 -9.44716E+03  7.68908E+03 -1.82912E+03  1.67117E+03  6.09098E+03
 -5.43613E+03  1.59801E+03 -4.25410E+03 -4.32158E+03 -3.86801E+02 -1.10147E+04  8.46891E+03 -1.07760E+04
  1.12754E+04 -3.51223E+03  1.27411E+04  2.52173E+03  1.15189E+04  9.90616E+03  5.34480E+03  1.45931E+04
 -1.93934E+03  1.63234E+04 -9.40394E+03  1.01090E+04 -1.15841E+04  2.95606E+03 -7.87513E+03 -9.53886E+02
 -5.25446E+03 -3.08978E+03 -1.44622E+03  1.15246E+03 -1.86420E+03  1.91748E+03 -3.35275E+03  3.97608E+03
 -8.63596E+03 -5.54335E+02 -1.00591E+04 -7.54474E+03 -4.01800E+03 -1.24318E+04  4.50036E+03 -8.32792E+03
  7.41529E+03 -3.31482E+03  5.00162E+03  2.19305E+03  6.95179E+02  2.95667E+03 -4.07140E+03  8.25515E+02
 -2.95393E+03 -5.18103E+03 -1.49378E+03 -7.06738E+03  3.75934E+03 -7.29829E+03  1.04457E+04 -3.71713E+03
  1.18488E+04  6.31075E+02  9.26352E+03  6.01184E+03  1.69498E+03  8.85016E+03 -5.09464E+03  8.66256E+03
 -6.58793E+03  3.85587E+03 -3.03553E+03 -7.01193E+02  9.53089E+02 -2.59799E+03  4.78846E+03 -6.84813E+02
  5.53686E+03  2.82819E+03  9.76903E+02  5.66879E+03 -3.52512E+03  6.84291E+03 -9.08247E+03  1.41842E+03
 -4.00487E+03 -3.92969E+03  9.15686E+02 -7.63798E+03  4.12168E+03 -3.26600E+03  3.97032E+03  1.40922E+03
  3.56107E+02  3.42931E+03 -4.13105E+03  5.92411E+03 -4.76748E+03  2.13352E+03 -4.11434E+03 -1.25696E+03
 -3.02967E+03 -5.45404E+03  1.84296E+03 -7.06413E+03  5.00047E+03 -4.08178E+03  6.89492E+03  9.40907E+02
  4.25322E+03  5.55314E+03  4.75311E+02  7.69052E+03 -4.90234E+03  4.64537E+03 -5.64074E+03  8.36870E+01
 -6.04022E+03 -4.53296E+03 -1.15661E+03 -4.74360E+03  3.38645E+03 -3.86700E+03  2.59942E+03 -2.90526E+03
  2.49517E+03 -1.01011E+03  8.09951E+02  1.74621E+03  5.05743E+02  5.54672E+02  7.13825E+02 -1.77115E+03
  3.91320E+03 -1.35671E+03  5.25950E+03  9.33494E+02  4.74006E+03  3.22836E+03  5.20025E+03  6.95542E+03
 -1.80204E+03  9.28391E+03 -7.59529E+03  6.34415E+03 -9.34033E+03  1.56492E+03 -7.71690E+03 -2.67790E+03
 -5.00438E+03 -6.98336E+03 -2.00912E+02 -5.06097E+03  2.88905E+03 -9.65122E+02  1.15939E+03 -2.24467E+03
  8.51445E+02 -2.90611E+03  1.79949E+03 -2.61831E+03  4.20489E+03 -9.40846E+02  3.92522E+03  4.00185E+02
  3.64345E+03  1.56945E+02  8.17589E+02  3.61732E+03 -7.33629E+02  2.37512E+03 -4.46944E+03  1.92203E+03
 -4.49317E+03 -7.64299E+02 -2.53354E+03 -3.73739E+03  5.19602E+02 -4.50702E+03  2.76676E+03 -4.88242E+03
  5.73322E+03 -2.95209E+03  6.84011E+03  2.83438E+02  4.92208E+03  4.33917E+03  1.77045E+03  5.41535E+03
 -1.34244E+03  5.70724E+03 -3.41116E+03  2.33728E+03 -1.61309E+03 -9.13052E+02  7.50559E+00 -5.66817E+02
  1.14390E+03 -8.07833E+02 -1.77206E+02  1.26532E+03 -1.63064E+03  7.36206E+02 -4.08993E+03 -5.74800E+02
 -1.64740E+03 -4.38634E+03  7.33228E+02 -4.38564E+03  2.33910E+03 -4.45989E+03  3.89843E+03 -1.06905E+03
  4.34935E+03  2.55363E+03  1.65589E+03  2.57913E+03 -9.14500E+02  4.35996E+03 -3.30963E+03  3.33376E+03
 -3.11154E+03  1.25460E+02 -3.33393E+03 -1.63759E+03  5.92169E+02 -2.22301E+03  1.89009E+03 -2.56359E+03
  1.91446E+03 -1.95304E+03  1.64866E+03  4.94479E+02 -2.43998E+02  1.46453E+03  9.92381E+02 -1.77551E+02
  2.06255E+03  4.20754E+02  2.34216E+03  1.09311E+03  2.08627E+03  2.56490E+03  1.54875E+03  2.20889E+03
 -1.20022E+03  2.05430E+03 -2.89031E+03  3.87449E+03 -2.09627E+03  2.45100E+03 -3.55583E+03 -1.08251E+03
 -1.00347E+03 -3.95718E+03  1.13254E+03 -4.33986E+03  1.42093E+03 -3.38077E+03  3.53326E+03 -4.46490E+02
  2.24385E+03  1.96774E+03  4.36840E+02  2.71747E+03 -1.25530E+03  1.49422E+03 -1.47632E+03  5.05293E+02
 -1.27888E+03 -1.41045E+03  5.00919E+02 -4.67939E+02  1.67084E+03 -1.43356E+03  1.67315E+03 -8.18485E+02
  7.77326E+02  6.84259E+02  1.78375E+03 -1.26137E+02 -3.41615E+02 -5.54503E+00  1.30419E+03  2.05307E+02
  7.38648E+02 -1.32874E+02  2.73098E+03  1.42212E+03  5.84123E+02  2.14875E+03 -3.50692E+02  2.32483E+03
 -2.54446E+03  9.58995E+02 -6.11868E+02  3.37058E+02 -2.47169E+03 -6.99259E+02  1.19154E+03 -1.13557E+03
  2.78517E+02 -8.48310E+02  1.05645E+03 -8.28751E+02  1.68582E+03  9.52265E+02 -9.14067E+02  7.34893E+02
 -6.13297E+02  1.30274E+03 -6.28177E+02 -2.20047E+03 -7.47051E+02 -1.67481E+03 -1.02842E+03 -1.17612E+03
  1.41064E+03 -1.38935E+03  1.09097E+03 -1.78460E+02  1.37191E+03 -5.18976E+02  1.79423E+02  5.17255E+02
 -2.72939E+02 -8.44530E+02 -1.37556E+03 -1.31950E+02  5.94561E+01 -3.00447E+02  6.78238E+02 -1.07978E+03
  1.31255E+03  8.83616E+01  2.93918E+03  3.73254E+02  1.24569E+03  2.13453E+03  2.21974E+02  1.08235E+03
 -1.17711E+03  7.37436E+01 -1.65204E+03  8.94203E+01  6.86012E+01 -1.18140E+03 -3.62872E+02 -6.32497E+02
  7.44723E+02 -8.72918E+02  1.37334E+03  3.43939E+02  1.61601E+02  2.06062E+03 -6.92902E+02  7.67252E+02
  4.45706E+02  1.07437E+03 -2.44754E+02 -3.52450E+02 -4.13134E+01  7.50822E+02 -7.23288E+02 -6.76902E+02
 -4.16613E+02  2.59723E+02 -1.53222E+03  4.09421E+02 -3.28266E+02 -1.88850E+02 -1.07314E+03 -4.00032E+02
 -1.88150E+03 -1.18968E+03 -9.25355E+02 -2.43585E+03  6.04793E+02 -2.63566E+03  2.72241E+03 -5.21637E+02
  2.02542E+03 -6.33413E+02  7.66893E+02  8.17335E+02 -5.77907E+02  1.87002E+03 -1.10267E+03  1.70968E+03
 -7.95901E+02  3.68139E+02  1.92898E+02 -7.23172E+02 -1.24857E+03 -6.56743E+01 -1.07628E+03 -2.87251E+02
 -1.65301E+03  3.70871E+02 -1.20451E+03  1.94754E+02  8.49787E+02 -2.06954E+01 -1.40287E+03  7.59905E+01
  9.08972E+02 -1.04794E+03 -1.91317E+02  8.90139E+02  5.66142E+02  1.48295E+03 -7.74794E+02  1.49880E+03
 -9.64990E+02  2.35412E+03 -1.30262E+03  1.79897E+03 -2.40682E+03 -1.34189E+02 -1.88664E+03 -1.14017E+03
 -4.31639E+02 -3.31367E+02  1.51338E+02  1.93664E+01  1.10603E+03 -4.76710E+02 -2.47611E+02  7.34792E+02
  1.14720E+03  2.45432E+02 -1.39816E+02  2.81003E+02 -8.04002E+02  4.20589E+02  5.44307E+02  3.70524E+02
  7.87230E+02  6.19965E+02 -4.46385E+02  1.21663E+03 -4.17036E+02  1.52485E+02  5.97485E+02 -1.85396E+02
 -6.31783E+02  5.08247E+02  2.43737E+02  9.79175E+02 -6.89036E+02 -9.30044E+02 -1.08952E+02 -1.93033E+02
  2.08927E+03 -1.15605E+03  3.50576E+02  3.42804E+02  8.28803E+02 -2.39125E+02  4.05172E+01  1.15817E+03
  1.12858E+03  9.44427E+02 -1.15063E+02  4.72202E+02 -9.86304E+02  1.14135E+02 -7.78290E+02  7.28765E+02
  7.33188E+02 -6.88217E+01 -4.37053E+02  4.42838E+01 -2.11802E+02 -1.01639E+02 -1.35405E+03  3.57726E+02
 -6.15261E+02  1.28226E+03 -9.77237E+01 -2.92039E+02  2.12788E+02 -7.69202E+02  3.16801E+02  2.22756E+02
  1.21213E+03 -8.88406E+01 -5.14430E+02  7.33218E+01 -1.05110E+03  9.62428E+02 -1.41235E+03  4.66504E+02
