 $NMID ID='MM_0lb_SNR200_10hz_g50_67.RAW', FMTDAT='(8E13.5)'
 TRAMP=1., VOLUME=1. $END
  3.09372E+05  8.21682E+02  3.37103E+05  2.49536E+05  8.47217E+04  3.37852E+05 -1.32721E+05  2.50435E+05
 -1.90350E+05  8.41597E+04 -1.13786E+05 -3.08721E+04 -5.39681E+02 -5.15025E+04  5.57180E+04  6.40730E+02
  3.53331E+04  5.16681E+04 -1.52044E+04  7.57027E+04 -6.12219E+04  6.49233E+04 -8.46743E+04  3.19109E+04
 -8.14150E+04 -1.16648E+04 -5.75691E+04 -5.23641E+04 -1.58341E+04 -7.00107E+04  2.73908E+04 -4.64508E+04
  4.14426E+04  4.06893E+03  1.69537E+04  4.81618E+04 -3.73349E+04  4.69158E+04 -6.79871E+04 -2.02359E+03
 -5.54962E+04 -5.80618E+04 -7.08487E+03 -7.79686E+04  3.53054E+04 -5.61407E+04  5.01202E+04 -1.76113E+04
  4.59349E+04  1.21940E+04  3.26711E+04  2.68818E+04  1.59299E+04  2.93125E+04 -5.72391E+03  2.86647E+04
 -2.23511E+04  1.23089E+04 -1.84341E+04 -5.12393E+03  5.86250E+03 -6.20973E+03  2.28970E+04  1.18517E+04
  7.12342E+03  3.58720E+04 -3.37548E+04  3.76835E+04 -6.54735E+04  1.96262E+03 -5.78606E+04 -4.44962E+04
 -1.18194E+04 -6.59109E+04  4.04519E+04 -4.69537E+04  6.05285E+04 -9.22615E+02  3.68668E+04  3.51928E+04
 -5.07330E+03  3.90329E+04 -3.14871E+04  1.71202E+04 -3.25027E+04 -4.69055E+03 -1.75632E+04 -1.20321E+04
 -8.42728E+03 -1.46612E+04  6.29173E+02 -1.93818E+04  7.42525E+03 -2.26650E+04  1.67039E+04 -1.33832E+04
  1.03220E+04  6.23960E+03 -9.87140E+03  1.31348E+04 -2.36662E+04 -7.63413E+03 -7.47874E+03 -3.88309E+04
  2.40376E+04 -4.86026E+04  5.23509E+04 -1.93237E+04  4.80057E+04  2.03145E+04  1.81652E+04  4.64185E+04
 -1.71394E+04  3.49617E+04 -2.62377E+04  3.31819E+03 -1.15502E+04 -2.84497E+04  2.12533E+04 -3.62739E+04
  4.42987E+04 -1.04992E+04  4.06659E+04  2.48118E+04  2.11186E+04  4.95318E+04 -7.88575E+03  5.58558E+04
 -3.53893E+04  3.78565E+04 -4.58906E+04  1.17746E+04 -4.66114E+04 -1.82120E+04 -2.60130E+04 -4.01021E+04
  7.37809E+03 -4.01363E+04  3.39656E+04 -1.50441E+04  3.16234E+04  1.11250E+04  3.94673E+03  2.21381E+04
 -1.38809E+04  7.71936E+03 -1.02280E+04 -7.75120E+03  5.35833E+03 -9.37040E+03  1.94087E+04  5.70391E+03
  1.38100E+04  2.19997E+04 -3.86541E+03  2.69015E+04 -2.44326E+04  1.47115E+04 -3.15565E+04 -2.07745E+03
 -2.53065E+04 -1.71847E+04 -1.16530E+04 -2.35161E+04  5.26503E+03 -2.44105E+04  2.08925E+04 -2.14087E+04
  3.17370E+04 -1.41022E+04  3.68530E+04  4.45480E+03  2.76765E+04  2.31739E+04  3.13564E+03  3.89742E+04
 -1.86836E+04  3.33531E+04 -2.90749E+04  1.08822E+04 -2.28550E+04 -9.80779E+03 -4.65787E+03 -1.24869E+04
  2.91750E+03 -1.41979E+03 -8.23559E+03  8.10882E+03 -1.78989E+04  5.74165E+03 -1.96396E+04 -9.68734E+03
 -1.05734E+04 -2.20433E+04  6.54836E+03 -2.83786E+04  1.87965E+04 -1.89858E+04  2.22847E+04 -2.13063E+03
  1.48895E+04  1.47783E+04 -1.83273E+03  2.26426E+04 -1.60127E+04  1.12122E+04 -2.25387E+04 -4.49473E+03
 -1.53439E+04 -2.08881E+04 -2.32867E+03 -2.78012E+04  1.18788E+04 -2.26629E+04  2.30578E+04 -1.11804E+04
  2.00962E+04 -3.15055E+02  1.41221E+04  6.40599E+03  9.30122E+03 -2.26977E+02  1.14808E+04 -1.10418E+03
  1.94737E+04  3.15005E+03  2.41774E+04  1.74058E+04  1.63431E+04  3.60602E+04 -3.46344E+03  3.95445E+04
 -2.48628E+04  3.50427E+04 -3.87198E+04  1.82688E+04 -4.15724E+04 -4.01580E+03 -3.52242E+04 -2.42764E+04
 -1.42099E+04 -3.39478E+04  1.28332E+04 -3.12264E+04  2.78808E+04 -1.52965E+04  2.36834E+04  5.26467E+03
  8.71252E+03  1.70537E+04 -1.07147E+04  1.46002E+04 -1.98842E+04  2.01555E+03 -1.52286E+04 -1.15862E+04
 -1.19637E+03 -1.88945E+04  9.74922E+03 -1.32379E+04  1.27568E+04 -1.80316E+03  3.25767E+03  8.22708E+03
 -8.87760E+03  5.63043E+03 -8.98146E+03 -6.02254E+03 -1.40619E+03 -1.73511E+04  1.07283E+04 -1.73568E+04
  2.26496E+04 -1.04920E+04  2.30941E+04  3.42377E+03  2.08572E+04  1.75069E+04  1.00738E+04  2.79309E+04
 -5.78571E+03  2.97927E+04 -1.87953E+04  1.87048E+04 -2.20139E+04  5.28336E+03 -1.42943E+04 -4.48091E+03
 -6.85606E+03 -6.86467E+03 -9.73113E+02  1.35256E+03 -2.84053E+03  1.48331E+03 -8.26165E+03  4.67843E+03
 -1.29873E+04 -4.28884E+02 -1.42930E+04 -1.09784E+04 -5.67414E+03 -1.82871E+04  5.73830E+03 -1.41442E+04
  1.25849E+04 -5.27913E+03  9.24509E+03  3.89749E+03  4.34984E+02  5.53238E+03 -6.02378E+03 -5.56704E+02
 -7.22580E+03 -9.23788E+03 -1.61105E+02 -1.44697E+04  1.02712E+04 -1.52306E+04  1.85585E+04 -8.31630E+03
  2.08261E+04  1.64844E+03  1.53577E+04  1.30304E+04  3.83786E+03  1.82772E+04 -8.98773E+03  1.39370E+04
 -1.08197E+04  3.99481E+03 -6.42895E+03 -3.84975E+03 -4.85151E+02 -4.71167E+03  8.62458E+03 -8.20812E+02
  6.93612E+03  5.41667E+03  1.19255E+03  1.21074E+04 -7.56907E+03  1.09133E+04 -1.45089E+04  4.20251E+03
 -1.02887E+04 -7.34244E+03  1.65540E+03 -1.25980E+04  7.38760E+03 -5.51761E+03  7.53130E+03  4.59537E+03
  1.23378E+03  9.08194E+03 -7.36711E+03  1.03603E+04 -1.30004E+04  5.10282E+03 -1.37266E+04 -6.48360E+03
 -8.15154E+03 -1.40285E+04  4.78675E+03 -1.73283E+04  1.41238E+04 -1.06963E+04  1.42884E+04  3.02618E+03
  9.36426E+03  1.28835E+04 -1.62740E+03  1.46195E+04 -9.91038E+03  6.41032E+03 -1.28342E+04 -9.73155E+02
 -1.00555E+04 -1.24960E+04 -1.67070E+03 -1.11642E+04  6.26343E+03 -9.40005E+03  6.75173E+03 -3.94503E+03
  4.83880E+03  2.11390E+03 -1.31349E+03  1.06919E+03 -7.77241E+00 -3.65475E+03  2.83949E+03 -6.98525E+03
  1.05494E+04 -4.03055E+03  1.22717E+04  1.80898E+02  1.48994E+04  9.91811E+03  9.53126E+03  1.82252E+04
 -3.99641E+03  2.25704E+04 -1.81342E+04  1.68114E+04 -2.47688E+04  2.48622E+03 -2.00399E+04 -7.66044E+03
 -9.27059E+03 -1.49987E+04 -6.73764E+02 -1.41997E+04  4.44989E+03 -6.97395E+03  5.31069E+03 -3.84493E+03
  4.30854E+03 -2.21033E+03  3.86044E+03 -4.97355E+03  5.88350E+03 -1.92837E+03  8.03075E+03 -1.02548E+03
  9.95126E+03 -5.89486E+01  5.15798E+03  9.27809E+03 -8.81500E+02  9.37295E+03 -1.02504E+04  7.51598E+03
 -1.38813E+04 -1.43029E+03 -8.37843E+03 -9.07426E+03 -1.50104E+03 -1.48567E+04  8.52904E+03 -1.37796E+04
  1.47934E+04 -7.08886E+03  1.57921E+04  1.22723E+03  1.23631E+04  1.28155E+04  2.22258E+03  1.50547E+04
 -7.37260E+03  1.36128E+04 -9.76932E+03  4.76200E+03 -6.08841E+03 -1.50395E+03 -2.31084E+03 -3.15516E+03
 -2.65117E+03  5.33190E+02 -5.47904E+02  3.00346E+03 -6.24240E+03  1.09545E+03 -9.76473E+03 -2.31741E+02
 -7.09043E+03 -9.99570E+03  2.72767E+01 -1.26915E+04  8.18487E+03 -1.31442E+04  1.38646E+04 -2.54616E+03
  1.39209E+04  6.09001E+03  6.38005E+03  1.14257E+04 -2.27830E+03  1.33361E+04 -8.57446E+03  7.98765E+03
 -1.20854E+04  7.95311E+02 -1.02664E+04 -8.51014E+03 -1.83351E+03 -1.19543E+04  4.70681E+03 -8.07794E+03
  9.04225E+03 -2.37708E+03  6.66748E+03  1.30297E+03  1.74213E+03  4.04050E+03 -3.73387E+02  2.35388E+03
  3.60884E+03  1.56030E+03  3.79474E+03  1.41118E+03  4.40429E+03  5.58084E+03  3.78279E+03  7.00602E+03
 -1.85672E+03  9.44764E+03 -7.92434E+03  1.07021E+04 -1.44018E+04  1.96710E+03 -1.41156E+04 -5.57024E+03
 -6.36925E+03 -1.30815E+04  2.64431E+03 -1.59970E+04  7.70199E+03 -9.50264E+03  1.33116E+04 -2.48710E+03
  7.15934E+03  5.18218E+03  2.23938E+03  7.54017E+03 -3.79475E+03  5.95611E+03 -4.75200E+03 -5.58109E+02
 -2.86726E+03 -6.36167E+03  4.13785E+03 -5.49370E+03  6.59315E+03 -3.72401E+03  5.85509E+03  7.69893E+02
  5.27978E+03  2.94373E+03  1.69434E+03  1.51154E+03  2.55415E+02  1.77295E+03  1.26033E+03 -1.26114E+03
  2.04480E+03  4.68848E+02  7.98872E+03  3.26940E+03  3.27649E+03  5.63519E+03 -1.44762E+02  9.27109E+03
 -6.17187E+03  8.05063E+03 -7.57684E+03 -2.29494E+02 -7.10680E+03 -2.98121E+03 -2.38291E+03 -4.04794E+03
  2.39468E+02 -5.94419E+03  3.13210E+03 -1.45961E+03  2.32398E+03  2.18564E+03 -1.74715E+03  4.58172E+03
 -6.44434E+03  3.07692E+03 -5.85541E+03 -3.79911E+03 -3.81428E+03 -7.77486E+03  1.86609E+03 -7.79801E+03
  5.46469E+03 -4.77086E+03  4.99849E+03 -2.87169E+02  3.16316E+03  1.28948E+03  2.21039E+03  2.84975E+03
 -3.17821E+03  1.05003E+03 -4.22978E+03 -1.49223E+03  1.43137E+02 -6.01306E+03  6.98358E+03 -4.51202E+03
  8.09298E+03  1.67923E+03  8.38255E+03  5.58666E+03  3.24912E+03  8.68794E+03 -3.00244E+03  7.22873E+03
 -7.74835E+03  3.65437E+03 -7.69499E+03 -2.09772E+03 -3.68914E+03 -5.34446E+03 -9.87578E+02 -5.39038E+03
  6.00463E+03 -4.01057E+03  5.04688E+03  1.92365E+03  1.77326E+03  5.28779E+03 -1.92966E+02  5.13020E+03
 -3.42224E+03  1.51918E+03 -9.09433E+02  9.06784E+02 -5.57423E+02  1.30790E+03 -1.83163E+03  2.21891E+03
 -3.35423E+03  2.51988E+03 -5.92137E+03  3.29529E+03 -8.25114E+03 -3.37374E+01 -1.00240E+04 -5.86112E+03
 -3.26276E+03 -1.23335E+04  2.68844E+03 -1.39862E+04  8.14768E+03 -1.19909E+04  1.11371E+04 -3.46299E+03
  1.06124E+04  3.06902E+03  6.81124E+03  7.60153E+03  7.46380E+02  8.94397E+03 -4.15828E+03  6.69461E+03
 -4.54862E+03  1.15210E+03 -1.62697E+03 -2.70899E+02 -1.52669E+03 -1.66878E+03 -1.95277E+01 -1.15792E+02
 -1.49866E+03  5.84696E+02 -2.65562E+03  1.11759E+03 -6.67505E+02 -3.36229E+03 -5.06924E+02 -3.71138E+03
  5.54197E+03 -3.56992E+03  6.16103E+03 -1.42227E+03  6.70765E+03  3.71134E+03  1.55583E+03  8.12093E+03
 -4.16596E+03  9.71030E+03 -1.01336E+04  6.74344E+03 -1.00424E+04  7.75669E+02 -7.20390E+03 -5.55963E+03
 -3.36259E+03 -7.87499E+03  4.08320E+03 -8.58475E+03  5.01631E+03 -5.14267E+03  5.22886E+03  9.91130E+00
  4.30546E+03  2.72689E+03 -1.11670E+03  2.49541E+03 -1.48342E+03 -7.38552E+02 -2.55911E+02 -2.31769E+03
  1.87466E+03 -3.54996E+02  4.14598E+03 -5.29050E+02  3.91165E+03  3.05613E+03  1.08441E+03  5.08073E+03
 -3.96959E+03  4.88232E+03 -6.33424E+03  1.77252E+02 -5.59194E+03 -4.17006E+03 -1.50896E+03 -7.97824E+03
  4.02056E+03 -6.56001E+03  7.12459E+03 -3.07766E+03  5.05023E+03  7.47542E+02  3.71800E+03  5.04819E+03
 -5.09993E+02  5.65465E+03 -2.44824E+03  4.29651E+03 -5.39542E+03  3.14392E+03 -2.82265E+03 -7.26019E+02
 -1.04737E+03 -1.03922E+03 -2.20516E+03  3.99557E+02 -2.66231E+03  1.64422E+02 -3.61526E+03 -2.38911E+03
 -4.80489E+03 -4.32310E+03 -1.22974E+03 -6.14717E+03  3.35957E+03 -7.14627E+03  5.98201E+03 -3.39329E+03
  5.18482E+03 -9.69448E+01  2.92556E+03  3.66065E+03 -9.68486E+02  5.54647E+03 -3.94858E+03  4.76099E+03
