 $NMID ID='MM_0lb_SNR200_15hz_g40_25.RAW', FMTDAT='(8E13.5)'
 TRAMP=1., VOLUME=1. $END
  3.08974E+05  9.81684E+02  3.36514E+05  2.50038E+05  8.41067E+04  3.38112E+05 -1.31471E+05  2.50417E+05
 -1.91176E+05  8.38353E+04 -1.12202E+05 -3.24797E+04  1.49581E+03 -5.09222E+04  5.33389E+04 -7.62057E+02
  3.51389E+04  5.30515E+04 -1.63341E+04  7.50523E+04 -6.13071E+04  6.26560E+04 -8.40366E+04  3.23715E+04
 -8.05418E+04 -1.07047E+04 -5.74691E+04 -5.07389E+04 -1.36033E+04 -6.84712E+04  2.66523E+04 -4.50406E+04
  4.00996E+04  3.61251E+03  1.67192E+04  4.74803E+04 -3.44090E+04  4.67439E+04 -6.62893E+04 -1.42895E+03
 -5.35587E+04 -5.56331E+04 -6.16485E+03 -7.69756E+04  3.29584E+04 -5.39516E+04  4.71452E+04 -1.54157E+04
  4.25610E+04  9.76766E+03  3.15245E+04  2.48313E+04  1.51370E+04  2.89202E+04 -4.84926E+03  2.58074E+04
 -2.14610E+04  1.10257E+04 -1.92799E+04 -4.83116E+03  5.36833E+03 -8.30304E+03  2.14820E+04  1.12103E+04
  8.30740E+03  3.41911E+04 -3.02146E+04  3.44082E+04 -6.29176E+04  1.91251E+03 -5.70541E+04 -4.21912E+04
 -1.14040E+04 -6.12304E+04  3.88140E+04 -4.42196E+04  5.69621E+04 -2.93168E+03  3.27414E+04  3.09379E+04
 -6.55986E+03  3.41308E+04 -2.94012E+04  1.49303E+04 -2.95324E+04 -4.36157E+03 -1.56808E+04 -9.38236E+03
 -8.44958E+03 -1.16552E+04 -1.13555E+03 -1.77440E+04  7.19698E+03 -2.31696E+04  1.40867E+04 -1.22095E+04
  1.15035E+04  4.40858E+03 -8.00973E+03  1.23621E+04 -1.83892E+04 -3.94984E+03 -7.95632E+03 -3.22548E+04
  2.16391E+04 -3.99665E+04  4.55772E+04 -1.88508E+04  4.34076E+04  1.80238E+04  1.59673E+04  4.29600E+04
 -1.54497E+04  3.28180E+04 -2.44563E+04  2.01198E+03 -8.95921E+03 -2.77121E+04  2.01450E+04 -3.29663E+04
  4.05576E+04 -8.44899E+03  3.49920E+04  2.43129E+04  1.62370E+04  4.53355E+04 -7.27128E+03  4.80924E+04
 -3.04733E+04  3.20927E+04 -4.05345E+04  9.17155E+03 -4.10100E+04 -1.64860E+04 -2.16822E+04 -3.62592E+04
  6.88386E+03 -3.62859E+04  3.12703E+04 -1.40428E+04  2.78669E+04  1.14807E+04  3.37396E+03  1.81985E+04
 -1.32956E+04  7.48347E+03 -9.60912E+03 -7.24663E+03  6.83373E+03 -1.09006E+04  1.76609E+04  6.28943E+03
  1.39110E+04  2.26524E+04 -5.86590E+03  2.43232E+04 -2.26021E+04  1.12046E+04 -2.67341E+04 -6.55138E+03
 -1.92776E+04 -1.77216E+04 -5.67853E+03 -1.76819E+04  3.04991E+03 -1.75269E+04  1.32283E+04 -1.69199E+04
  2.45843E+04 -1.24358E+04  3.09072E+04  2.50438E+03  2.26644E+04  1.93246E+04  4.34216E+03  3.45832E+04
 -1.73231E+04  2.93967E+04 -2.72526E+04  1.03801E+04 -1.97983E+04 -1.06027E+04 -2.93871E+03 -1.39146E+04
  1.81565E+03 -2.43741E+03 -3.65223E+03  6.07773E+03 -1.41025E+04  5.30046E+03 -1.43420E+04 -6.39923E+03
 -9.06690E+03 -1.76113E+04  5.02007E+03 -2.08498E+04  1.47641E+04 -1.54749E+04  1.61429E+04 -1.22921E+03
  1.04923E+04  1.22393E+04 -8.14979E+02  1.85504E+04 -1.07006E+04  1.08213E+04 -1.72503E+04 -3.48872E+03
 -1.33961E+04 -1.68138E+04 -2.82660E+03 -2.23628E+04  9.87166E+03 -1.74752E+04  1.65965E+04 -7.81139E+03
  1.55928E+04  8.99706E+02  1.20693E+04  3.64264E+03  6.97992E+03  1.14526E+03  8.51520E+03 -3.37250E+03
  1.61788E+04  2.27576E+03  1.76051E+04  1.36753E+04  1.09536E+04  2.84169E+04 -3.25517E+03  3.18780E+04
 -1.81202E+04  2.42173E+04 -2.86569E+04  1.16162E+04 -3.03862E+04 -1.45081E+03 -2.48870E+04 -1.71105E+04
 -1.02272E+04 -2.51610E+04  8.84904E+03 -2.14403E+04  1.96991E+04 -1.25639E+04  1.75965E+04  4.94640E+03
  7.05810E+03  1.17673E+04 -8.83146E+03  1.23929E+04 -1.60456E+04  2.18375E+03 -1.20849E+04 -9.00697E+03
  2.64482E+01 -1.50101E+04  6.78210E+03 -9.83188E+03  1.05760E+04 -1.55168E+03  1.81152E+03  6.41809E+03
 -5.53467E+03  1.33409E+03 -6.24839E+03 -5.46085E+03  8.51089E+02 -1.27105E+04  9.38395E+03 -1.22425E+04
  1.55371E+04 -6.29456E+03  1.58395E+04  1.89136E+03  1.42960E+04  1.20652E+04  5.37501E+03  1.83469E+04
 -2.33994E+03  2.04567E+04 -1.13865E+04  1.28041E+04 -1.41388E+04  3.32577E+03 -9.25116E+03 -3.22421E+03
 -4.69356E+03 -3.39944E+03 -7.47428E+02  1.54421E+03 -1.72456E+03  2.43235E+03 -4.23007E+03  3.34352E+03
 -9.63451E+03 -1.26949E+03 -9.68277E+03 -9.27107E+03 -3.69691E+03 -1.40544E+04  3.76471E+03 -1.07669E+04
  8.62741E+03 -4.96061E+03  5.87116E+03  2.91890E+03  1.07216E+03  3.86890E+03 -4.48483E+03  1.69869E+02
 -3.94905E+03 -5.01015E+03 -1.01634E+03 -7.65410E+03  4.90025E+03 -1.11693E+04  1.31558E+04 -5.40978E+03
  1.40952E+04  1.52557E+03  1.12310E+04  8.35197E+03  2.48281E+03  1.03736E+04 -6.05240E+03  9.41129E+03
 -8.83966E+03  2.62115E+03 -4.12828E+03 -2.28758E+03  1.28594E+03 -1.94316E+03  5.04180E+03 -1.03909E+03
  5.25314E+03  5.08417E+03  9.88130E+02  6.60698E+03 -5.31515E+03  8.41199E+03 -9.95423E+03  1.25870E+03
 -6.75814E+03 -3.93992E+03  9.55920E+02 -8.22551E+03  5.40004E+03 -4.15385E+03  4.08918E+03  1.59951E+03
  1.31073E+03  5.49474E+03 -5.18199E+03  5.71116E+03 -6.79406E+03  3.46097E+03 -7.42308E+03 -1.49339E+03
 -4.48573E+03 -7.24140E+03  2.50540E+03 -9.50507E+03  8.69546E+03 -6.31242E+03  9.20875E+03  2.05655E+03
  3.72840E+03  7.24676E+03 -6.41537E+02  9.36566E+03 -6.97610E+03  4.76014E+03 -8.02310E+03 -5.88853E+02
 -7.13589E+03 -6.74842E+03 -1.02098E+03 -6.66250E+03  4.06891E+03 -5.71574E+03  3.38989E+03 -3.12247E+03
  1.89350E+03  8.39205E+02 -3.40534E+02  9.30333E+02 -5.23745E+02 -7.40340E+02  4.77173E+02 -2.34309E+03
  4.57710E+03 -7.49342E+02  8.14571E+03  9.24612E+02  7.55541E+03  5.19582E+03  7.06042E+03  9.23042E+03
 -2.65557E+03  1.32156E+04 -1.04581E+04  9.08730E+03 -1.31765E+04  2.24536E+03 -1.05427E+04 -3.93303E+03
 -4.31754E+03 -9.26651E+03  1.08924E+02 -7.33005E+03  3.24287E+03 -3.69338E+03  2.44058E+03 -2.49080E+03
  1.56383E+03 -2.94212E+03  2.32640E+03 -2.81699E+03  5.16242E+03 -2.49422E+03  5.21371E+03  3.82098E+02
  5.75755E+03  1.02956E+03  3.16864E+03  5.43216E+03 -1.75865E+03  4.72037E+03 -6.06992E+03  3.64160E+03
 -7.11063E+03 -7.84129E+02 -3.25222E+03 -5.46601E+03  1.74904E+02 -7.59430E+03  4.19115E+03 -8.46010E+03
  7.56907E+03 -4.09911E+03  8.90811E+03  4.41239E+02  6.34038E+03  6.13086E+03  1.53125E+03  8.74324E+03
 -2.18433E+03  8.93970E+03 -5.17179E+03  2.01349E+03 -2.85236E+03 -1.36074E+03 -1.98998E+03 -3.06940E+02
 -1.16214E+03  1.73257E+02 -1.51105E+03  2.58791E+03 -3.94189E+03  1.38672E+03 -5.63202E+03 -4.25294E+02
 -2.24187E+03 -6.13456E+03 -7.55566E+02 -7.33676E+03  3.05161E+03 -7.09921E+03  5.13828E+03 -1.22873E+03
  7.41845E+03  3.39716E+03  3.32752E+03  5.25651E+03 -4.15376E+02  6.46527E+03 -3.95429E+03  2.75391E+03
 -6.47998E+03  4.88334E+02 -3.98240E+03 -4.22770E+03 -1.84658E+03 -5.46333E+03  3.29513E+03 -3.94531E+03
  3.85017E+03 -2.28433E+03  1.29253E+03  1.33477E+03  1.14736E+03  1.74557E+03  3.43381E+02  1.21769E+03
  1.73561E+03  1.64289E+03  1.43097E+03  4.98669E+02  1.71466E+03  2.89206E+03  1.84037E+03  2.64426E+03
 -1.23216E+03  4.48814E+03 -4.05140E+03  5.16420E+03 -5.11488E+03  1.07264E+03 -6.36835E+03 -3.06085E+03
 -2.09319E+03 -5.03729E+03  6.25056E+02 -6.56087E+03  4.17518E+03 -3.33219E+03  3.93124E+03 -1.06425E+03
  4.24209E+03  2.14240E+03  6.62995E+02  3.55438E+03 -1.66233E+03  1.86772E+03 -2.42928E+03  5.54946E+01
  8.55973E+01 -2.67268E+03  1.88890E+03 -1.76977E+03  1.34808E+03 -1.72893E+03  2.20937E+03  3.28617E+02
  9.46492E+02  1.11216E+03  1.14592E+03  8.27188E+02 -6.83958E+02  1.54927E+03  7.24998E+02  1.31059E+03
  7.84519E+02  3.46825E+02  3.22088E+03  1.02543E+03  1.84680E+03  3.25728E+03  2.87029E+02  4.97599E+03
 -2.50906E+03  2.84937E+03 -2.28490E+03  1.16278E+03 -3.93875E+03 -1.31925E+03 -7.48199E+02 -1.35140E+03
  7.68430E+02 -2.69957E+03  5.94986E+02 -4.00163E+02  6.60021E+02  2.25230E+03 -1.29183E+02  2.42987E+03
 -2.02081E+03  1.13571E+03 -2.99586E+03 -2.08893E+03 -5.71814E+02 -3.63405E+03  1.50956E+03 -2.48959E+03
  1.46322E+03 -1.49290E+03  1.79203E+03 -1.04972E+02  1.29752E+03 -1.47488E+02  3.21309E+02  3.50422E+03
 -1.46513E+03  1.37737E+02 -9.42957E+02 -8.98294E+02  1.14136E+03 -2.01576E+03  2.82378E+03 -1.46859E+03
  4.08996E+03  5.22014E+02  3.80160E+03  1.27588E+03  7.43653E+02  3.22665E+03 -2.80342E+02  3.68077E+03
 -2.05918E+03  1.90630E+03 -3.36412E+03 -4.00248E+02 -2.68384E+03 -1.77652E+03  1.11657E+03 -1.16029E+03
  2.45230E+03 -6.64056E+02  1.55752E+03  8.62060E+02  4.60083E+02  3.06763E+03  1.24262E+02  1.64723E+03
 -2.01113E+03  2.17536E+02 -2.50603E+02  1.22724E+03  5.55520E+02 -2.99757E+02 -1.25766E+03  1.50841E+03
 -2.20448E+02  1.76021E+03 -3.01172E+03  6.95710E+02 -4.35145E+03 -1.84046E+02 -4.78940E+03 -1.49249E+03
 -2.32747E+03 -4.03119E+03  1.27448E+03 -5.54355E+03  2.02282E+03 -4.34573E+03  6.35455E+03 -1.19171E+03
  4.54166E+03  5.68486E+02  2.73838E+03  2.32632E+03  1.15823E+03  4.10344E+03 -1.85569E+03  2.45261E+03
 -7.48826E+02  7.95927E+02 -1.23247E+03 -1.26299E+03 -2.01241E+02  1.33272E+03 -9.21965E+02 -2.07403E+03
 -1.92144E+03 -8.89197E+02 -1.23133E+03 -2.21201E+02 -1.31182E+02 -1.37538E+03  3.08201E+02 -2.38974E+03
  2.36843E+03 -2.13085E+03  8.80668E+02  6.99058E+02  2.36917E+03  2.36044E+03 -1.77195E+02  1.57510E+03
 -5.86942E+02  3.49150E+03 -2.83574E+03  2.60156E+03 -4.07189E+03 -3.34040E+01 -3.45767E+03 -3.81050E+03
 -1.73391E+03 -3.95595E+03  2.71216E+02 -2.68278E+03  2.58505E+03 -2.40753E+03  1.39027E+03  2.11157E+02
  1.84943E+03  7.95435E+02  1.07390E+03  1.33652E+03 -4.55207E+02  1.75400E+02 -2.87683E+02 -9.78429E+02
  1.19935E+03  5.27474E+02  2.81146E+02  1.10056E+03  1.09283E+03  2.25698E+03  2.49642E+02  5.88258E+02
 -1.26347E+03  1.15518E+03 -1.55770E+03  1.37034E+03 -1.09563E+03 -2.24945E+03 -3.69734E+02 -1.48796E+03
  5.33965E+02 -9.90313E+02  1.90561E+03 -8.19555E+02  2.78945E+03 -7.71032E+02  1.96191E+03  3.86359E+03
 -4.14624E+02  1.91831E+03 -6.29268E+02  8.91768E+02 -2.20353E+03 -1.17386E+02 -9.74890E+02  7.01607E+02
  2.21506E+01 -2.16314E+02 -1.28364E+03  6.54119E+02 -8.65395E+02  6.37713E+02 -1.79840E+03  2.47502E+02
 -1.61891E+03 -1.77244E+02  7.80342E+01 -1.25601E+03  1.32426E+03 -3.43434E+03  1.06020E+03 -5.61236E+02
  1.81839E+03  2.70527E+02  4.98411E+01  1.18987E+03 -4.07088E+02  1.62207E+03 -1.47871E+03  1.33411E+03
