 $NMID ID='MM_0lb_SNR200_11hz_g50_39.RAW', FMTDAT='(8E13.5)'
 TRAMP=1., VOLUME=1. $END
  3.10437E+05  8.16011E+02  3.37419E+05  2.49672E+05  8.48211E+04  3.37922E+05 -1.31528E+05  2.51314E+05
 -1.90007E+05  8.42373E+04 -1.12123E+05 -3.17866E+04 -2.66395E+02 -5.10259E+04  5.31082E+04  1.09454E+03
  3.52358E+04  5.28907E+04 -1.75413E+04  7.51287E+04 -6.13511E+04  6.26027E+04 -8.52939E+04  3.29431E+04
 -8.19617E+04 -1.08904E+04 -5.78613E+04 -5.11187E+04 -1.66890E+04 -6.96558E+04  2.65948E+04 -4.49646E+04
  4.17301E+04  3.85860E+03  1.55653E+04  4.77911E+04 -3.46247E+04  4.91790E+04 -6.58741E+04 -8.86909E+02
 -5.40274E+04 -5.86110E+04 -5.55219E+03 -7.88402E+04  3.52661E+04 -5.45958E+04  4.82645E+04 -1.88177E+04
  4.51370E+04  1.27854E+04  3.26753E+04  2.57595E+04  1.67689E+04  2.93342E+04 -6.07760E+03  2.81078E+04
 -2.19232E+04  1.18978E+04 -1.81970E+04 -3.77946E+03  5.75111E+03 -4.92184E+03  2.29818E+04  1.34279E+04
  7.58233E+03  3.66438E+04 -3.34719E+04  3.70021E+04 -6.44567E+04  2.79233E+03 -5.82411E+04 -4.25309E+04
 -1.27281E+04 -6.45018E+04  4.11603E+04 -4.82650E+04  5.97304E+04 -2.59226E+03  3.46645E+04  3.45652E+04
 -5.48546E+03  3.87121E+04 -2.96024E+04  1.77230E+04 -3.30870E+04 -5.02407E+03 -1.87510E+04 -1.19348E+04
 -1.01166E+04 -1.46921E+04 -7.49354E+02 -1.86231E+04  8.45653E+03 -2.14870E+04  1.56539E+04 -1.30381E+04
  1.07325E+04  5.93149E+03 -8.73323E+03  1.30343E+04 -2.25639E+04 -5.72392E+03 -8.10410E+03 -3.58285E+04
  2.52115E+04 -4.54595E+04  5.07967E+04 -2.10315E+04  4.73970E+04  2.05479E+04  1.65625E+04  4.56107E+04
 -1.74350E+04  3.54583E+04 -2.74231E+04  2.84651E+03 -1.01442E+04 -2.82208E+04  2.26794E+04 -3.64914E+04
  4.26019E+04 -9.90187E+03  3.87115E+04  2.32330E+04  2.06292E+04  4.93364E+04 -8.52423E+03  5.25125E+04
 -3.45870E+04  3.74514E+04 -4.47655E+04  1.05752E+04 -4.60278E+04 -1.78601E+04 -2.51028E+04 -4.06984E+04
  8.10307E+03 -4.00954E+04  3.38674E+04 -1.60876E+04  3.09575E+04  1.03719E+04  4.81956E+03  1.98803E+04
 -1.31658E+04  8.66754E+03 -1.14256E+04 -7.65845E+03  4.24672E+03 -1.10653E+04  1.93032E+04  5.27748E+03
  1.61927E+04  2.25027E+04 -5.41495E+03  2.51660E+04 -2.45726E+04  1.34631E+04 -2.99866E+04 -3.43349E+03
 -2.23779E+04 -1.94169E+04 -9.15028E+03 -2.18945E+04  4.05675E+03 -2.34138E+04  1.70108E+04 -2.02829E+04
  3.07224E+04 -1.40460E+04  3.64187E+04  3.84028E+03  2.51494E+04  2.21705E+04  6.49279E+03  3.95066E+04
 -1.88127E+04  3.22460E+04 -3.02470E+04  1.10677E+04 -2.28071E+04 -9.75979E+03 -5.45496E+03 -1.42128E+04
  1.55526E+03 -2.70502E+03 -6.21472E+03  7.78517E+03 -1.87576E+04  5.05888E+03 -1.87417E+04 -8.31043E+03
 -1.10354E+04 -2.11801E+04  5.94453E+03 -2.52951E+04  1.64497E+04 -1.73650E+04  1.94903E+04 -1.22261E+03
  1.34864E+04  1.41508E+04 -2.22046E+03  2.20482E+04 -1.45739E+04  1.36313E+04 -2.07892E+04 -4.59038E+03
 -1.64719E+04 -2.01248E+04 -1.96531E+03 -2.57027E+04  1.13304E+04 -2.22140E+04  2.17388E+04 -1.15988E+04
  1.91722E+04  1.03631E+03  1.47251E+04  5.23807E+03  7.68186E+03  1.37922E+03  1.15052E+04 -1.44376E+03
  2.16436E+04  1.92469E+03  2.37742E+04  1.73638E+04  1.61382E+04  3.41578E+04 -2.31851E+03  4.10650E+04
 -2.23343E+04  3.32310E+04 -3.66655E+04  1.69496E+04 -3.96517E+04 -3.70488E+03 -3.42783E+04 -2.25759E+04
 -1.32657E+04 -3.36802E+04  1.26676E+04 -2.89821E+04  2.46921E+04 -1.32708E+04  2.17004E+04  8.29016E+03
  7.78462E+03  1.56611E+04 -9.89313E+03  1.49357E+04 -1.80073E+04  3.67581E+03 -1.45702E+04 -1.24220E+04
 -1.37246E+03 -1.72248E+04  1.04542E+04 -1.37214E+04  1.03099E+04  1.21685E+02  3.50869E+03  8.53488E+03
 -7.64732E+03  3.63802E+03 -8.08342E+03 -6.46285E+03 -7.53953E+02 -1.63247E+04  1.12419E+04 -1.66779E+04
  1.95019E+04 -1.06697E+04  2.20549E+04  3.30983E+03  2.14057E+04  1.53821E+04  1.06189E+04  2.64926E+04
 -4.84841E+03  2.82018E+04 -1.70811E+04  1.62398E+04 -2.00793E+04  4.01043E+03 -1.29603E+04 -4.86581E+03
 -5.58225E+03 -5.74893E+03 -3.29485E+02  8.71056E+02 -3.09402E+03  2.68944E+03 -6.01130E+03  5.57357E+03
 -1.17807E+04 -5.69645E+02 -1.29494E+04 -1.07794E+04 -5.73026E+03 -1.74571E+04  6.72352E+03 -1.38927E+04
  1.03347E+04 -4.98751E+03  8.09109E+03  3.55785E+03  4.01183E+02  4.22334E+03 -6.94581E+03  6.47124E+02
 -6.02695E+03 -8.92690E+03 -1.54504E+03 -1.30547E+04  8.04045E+03 -1.47238E+04  1.69623E+04 -7.79131E+03
  2.15059E+04  3.98780E+03  1.53101E+04  1.38122E+04  2.74300E+03  1.64535E+04 -8.30041E+03  1.43156E+04
 -1.11922E+04  3.99755E+03 -7.13737E+03 -2.84855E+03  7.00760E+02 -4.03363E+03  8.56380E+03 -1.82883E+03
  7.24346E+03  6.18380E+03 -1.37262E+02  1.02021E+04 -7.93411E+03  1.11802E+04 -1.40176E+04  2.84691E+03
 -9.84047E+03 -7.90320E+03  2.00330E+02 -1.19249E+04  8.46262E+03 -6.37817E+03  7.77230E+03  1.99476E+03
  1.54403E+03  9.56835E+03 -7.50926E+03  9.19713E+03 -1.04864E+04  3.78975E+03 -1.19064E+04 -3.32611E+03
 -6.62977E+03 -1.34408E+04  2.73170E+03 -1.58398E+04  1.20283E+04 -9.63460E+03  1.41914E+04  3.44120E+03
  8.52263E+03  1.07054E+04 -9.21913E+02  1.40932E+04 -1.07185E+04  8.18409E+03 -1.09316E+04  3.46252E+02
 -1.01358E+04 -8.86396E+03 -1.99856E+03 -9.10662E+03  5.41441E+03 -8.65025E+03  7.99826E+03 -2.28526E+03
  4.89429E+03  1.82327E+03 -9.36045E+02  1.39560E+02 -9.83855E+02 -1.33796E+03  1.31912E+03 -5.72521E+03
  9.03878E+03 -4.08984E+03  1.32821E+04  1.96287E+03  1.22298E+04  8.85618E+03  1.04718E+04  1.65058E+04
 -3.28844E+03  1.98403E+04 -1.68167E+04  1.31268E+04 -2.16118E+04  3.52487E+03 -1.81510E+04 -7.85857E+03
 -1.00401E+04 -1.39470E+04 -1.98564E+02 -1.26812E+04  4.45678E+03 -5.62764E+03  4.32857E+03 -3.39947E+03
  3.36176E+03 -3.73157E+03  4.29165E+03 -4.50473E+03  5.19592E+03 -3.53642E+03  7.38010E+03 -4.96369E+02
  8.04984E+03  9.94132E+02  5.19156E+03  7.99020E+03 -2.49298E+03  8.60857E+03 -1.00722E+04  7.24074E+03
 -1.28750E+04  8.51450E+01 -7.21683E+03 -7.69912E+03 -4.75242E+01 -1.30720E+04  6.75655E+03 -1.40184E+04
  1.31667E+04 -6.83180E+03  1.61315E+04  1.71523E+03  9.07370E+03  1.07300E+04  1.84612E+03  1.51706E+04
 -5.68652E+03  1.27845E+04 -7.50463E+03  3.70834E+03 -6.13578E+03 -2.12023E+03 -2.50855E+03 -2.08547E+03
 -1.51833E+03  6.51767E+02 -2.88461E+03  1.51119E+03 -6.22880E+03  1.52693E+03 -7.70965E+03 -2.29331E+03
 -6.30237E+03 -8.40569E+03 -9.01407E+02 -1.10994E+04  5.87991E+03 -9.89716E+03  1.13755E+04 -3.54339E+03
  1.08750E+04  5.90345E+03  5.61056E+03  9.90079E+03 -2.35762E+03  1.18330E+04 -8.12175E+03  8.39953E+03
 -1.09501E+04 -8.12915E+02 -7.80629E+03 -6.19241E+03 -1.74425E+03 -1.06254E+04  5.81170E+03 -8.48552E+03
  6.91224E+03 -2.65087E+03  5.05799E+03  3.04970E+03  2.18101E+03  5.37935E+03  1.68606E+03  1.50450E+03
  1.95986E+03  3.62943E+02  3.28043E+03  3.10168E+03  3.65248E+03  4.55584E+03  1.99109E+03  4.60005E+03
 -1.18583E+03  9.27689E+03 -8.23832E+03  9.10768E+03 -1.11667E+04  2.99378E+03 -1.25246E+04 -5.12100E+03
 -6.47171E+03 -1.04552E+04  1.04217E+03 -1.32718E+04  6.39896E+03 -9.63184E+03  8.67420E+03 -3.24747E+01
  7.10174E+03  4.10278E+03  6.67745E+02  6.19087E+03 -3.31367E+03  4.38536E+03 -4.37942E+03 -1.73153E+02
 -1.98301E+03 -5.66523E+03  3.36723E+03 -5.50227E+03  5.42181E+03 -2.24176E+03  6.70700E+03  7.04662E+02
  2.29164E+03  2.86219E+03  1.46297E+03  2.21060E+03 -7.10828E+02  1.60996E+03  1.39764E+03 -1.41800E+02
  1.69416E+03 -2.07697E+03  4.47962E+03  2.82559E+03  1.39543E+03  4.28871E+03 -1.57605E+03  8.43505E+03
 -6.09370E+03  5.17906E+03 -7.65075E+03  2.62450E+03 -5.69750E+03 -1.73643E+03 -2.49329E+03 -4.13962E+03
  1.21726E+03 -5.07819E+03  3.44820E+03  1.48296E+02  3.90753E+03  2.72008E+03 -5.23092E+02  4.29071E+03
 -5.39418E+03  2.10773E+03 -5.00704E+03 -2.24593E+03 -2.60662E+03 -6.62681E+03  7.24708E+02 -6.90842E+03
  4.52193E+03 -2.45306E+03  4.30597E+03 -1.27311E+03  3.21812E+03  1.26337E+03  6.65419E+02  3.90427E+03
 -2.62534E+03  2.38346E+03 -4.21545E+03 -2.88557E+03  1.57162E+03 -5.33492E+03  5.46242E+03 -3.74493E+03
  7.07840E+03 -9.54597E+01  6.23514E+03  6.31628E+03  3.10312E+03  7.72961E+03 -2.76355E+03  6.79775E+03
 -5.40292E+03  4.06232E+03 -6.64911E+03 -2.80897E+03 -3.17384E+03 -4.50705E+03  1.02096E+03 -4.27394E+03
  4.84995E+03 -7.76125E+02  3.82516E+03  3.64372E+03  1.16806E+03  4.19568E+03  6.37613E+02  3.19779E+03
 -1.83678E+03  3.24916E+03 -3.17534E+03 -4.52268E+01 -7.41043E+02  3.59376E+02 -1.22745E+03  1.42360E+03
 -2.19415E+03  3.80116E+03 -5.90947E+03  2.12529E+03 -8.83129E+03  1.66182E+03 -6.47411E+03 -4.58817E+03
 -3.89985E+03 -8.36363E+03  1.66593E+03 -9.80175E+03  7.67655E+03 -9.24832E+03  1.02527E+04 -1.94336E+03
  9.38645E+03  2.19047E+03  5.05520E+03  6.63201E+03  7.27696E+02  7.71477E+03 -5.17243E+03  6.07287E+03
 -4.44143E+03  3.42687E+03 -2.87343E+03 -2.50062E+02 -1.16910E+02 -2.04192E+03  8.69007E+01 -1.15616E+03
 -2.27447E+03 -3.69943E+01 -2.46641E+03  1.17106E+03  2.21337E+02 -2.48007E+03  8.19114E+01 -3.89409E+03
  3.75884E+03 -1.54033E+03  5.23175E+03 -1.59692E+03  6.42307E+03  2.43899E+03  2.67131E+03  6.07378E+03
 -3.05782E+03  7.61253E+03 -7.58494E+03  6.04462E+03 -7.57251E+03 -1.22911E+02 -7.42672E+03 -6.11057E+03
 -4.49128E+03 -6.61933E+03  1.46679E+03 -7.32423E+03  4.37600E+03 -3.22756E+03  4.37799E+03  6.35751E+02
  2.92892E+03  3.94748E+03  2.36440E+02  2.29740E+03 -1.81291E+03  3.70527E+02 -4.86055E+02 -8.73514E+02
  2.44379E+03 -1.52496E+03  1.38599E+03  3.68158E+02  1.32340E+03  3.03916E+03  3.79777E+02  3.12138E+03
 -4.91655E+03  2.87911E+03 -5.05682E+03  7.21685E+02 -3.64076E+03 -3.87358E+03 -9.10770E+02 -7.73107E+03
  4.65318E+03 -5.53864E+03  5.02870E+03 -2.06905E+03  4.81531E+03  1.69667E+03  3.20164E+03  4.42223E+03
  5.30135E+02  3.80783E+03 -1.30230E+03  5.02868E+03 -2.68477E+03  3.22295E+03 -2.61717E+03 -5.03542E+02
 -9.45836E+02 -3.86105E+02 -2.40835E+02  3.20967E+02 -3.47223E+03 -3.95702E+02 -4.53148E+03 -4.94261E+02
 -4.82769E+03 -2.97472E+03 -1.70575E+03 -3.61143E+03  2.99291E+03 -5.75941E+03  3.86505E+03 -2.62226E+03
  4.44380E+03  4.44294E+02  2.33964E+03  2.85288E+03 -3.01892E+02  4.10112E+03 -3.30778E+03  2.63052E+03
