 $NMID ID='MM_0lb_SNR200_11hz_g45_85.RAW', FMTDAT='(8E13.5)'
 TRAMP=1., VOLUME=1. $END
  3.09804E+05 -3.62828E+02  3.39126E+05  2.50253E+05  8.40360E+04  3.39022E+05 -1.31631E+05  2.51011E+05
 -1.91426E+05  8.37106E+04 -1.12087E+05 -3.28042E+04  1.20767E+02 -5.11048E+04  5.31925E+04  1.65286E+03
  3.48759E+04  5.27657E+04 -1.63569E+04  7.54527E+04 -6.05956E+04  6.32005E+04 -8.46404E+04  3.18291E+04
 -8.11565E+04 -1.07659E+04 -5.93060E+04 -5.12973E+04 -1.48920E+04 -7.07419E+04  2.78456E+04 -4.71745E+04
  4.05963E+04  3.97003E+03  1.63753E+04  4.74280E+04 -3.58250E+04  4.63472E+04 -6.71853E+04 -4.76007E+01
 -5.40000E+04 -5.70787E+04 -8.04092E+03 -7.67493E+04  3.47387E+04 -5.60843E+04  4.91853E+04 -1.86250E+04
  4.35525E+04  1.08711E+04  3.26832E+04  2.72654E+04  1.59370E+04  2.99047E+04 -5.28214E+03  2.75851E+04
 -2.16743E+04  1.20878E+04 -1.74144E+04 -5.32524E+03  6.38329E+03 -8.31382E+03  2.41188E+04  1.20809E+04
  7.95372E+03  3.76510E+04 -3.23713E+04  3.50599E+04 -6.39726E+04  1.41003E+03 -5.83023E+04 -4.29274E+04
 -1.11851E+04 -6.41435E+04  4.04882E+04 -4.54105E+04  5.98624E+04 -1.77589E+03  3.62192E+04  3.26313E+04
 -4.91920E+03  3.82428E+04 -3.04590E+04  1.79129E+04 -3.13772E+04 -4.82466E+03 -1.69846E+04 -1.23769E+04
 -9.07806E+03 -1.43464E+04 -5.52701E+02 -1.90268E+04  7.61354E+03 -2.25100E+04  1.69681E+04 -1.32867E+04
  1.03096E+04  5.54057E+03 -1.00586E+04  1.30510E+04 -2.26137E+04 -5.84685E+03 -8.81957E+03 -3.64237E+04
  2.36446E+04 -4.54282E+04  5.10470E+04 -2.08434E+04  4.67953E+04  2.04274E+04  1.48790E+04  4.60219E+04
 -1.69612E+04  3.47653E+04 -2.61212E+04  1.49178E+03 -1.05609E+04 -2.89375E+04  2.08378E+04 -3.55167E+04
  4.30492E+04 -9.92195E+03  3.66085E+04  2.49306E+04  2.00022E+04  4.89956E+04 -7.76783E+03  5.34776E+04
 -3.38111E+04  3.59854E+04 -4.38563E+04  1.02690E+04 -4.46804E+04 -1.76431E+04 -2.48522E+04 -3.94391E+04
  7.92354E+03 -4.11070E+04  3.30289E+04 -1.47344E+04  3.08629E+04  1.04372E+04  4.92126E+03  1.94983E+04
 -1.39184E+04  8.86365E+03 -1.02976E+04 -6.51226E+03  4.86393E+03 -1.04494E+04  1.92473E+04  5.72960E+03
  1.37105E+04  2.19593E+04 -4.38233E+03  2.70003E+04 -2.27139E+04  1.22519E+04 -3.04330E+04 -4.96707E+03
 -2.21165E+04 -1.84736E+04 -1.00287E+04 -2.35950E+04  4.30399E+03 -2.31312E+04  1.93879E+04 -2.03530E+04
  2.75738E+04 -1.20521E+04  3.39652E+04  4.05771E+03  2.65812E+04  2.08472E+04  3.79509E+03  3.82823E+04
 -1.85641E+04  3.17404E+04 -2.86170E+04  1.19445E+04 -2.24732E+04 -1.12960E+04 -4.25501E+03 -1.31752E+04
  7.80621E+02 -2.36378E+03 -5.15285E+03  7.76154E+03 -1.91058E+04  7.27136E+03 -1.76431E+04 -8.92010E+03
 -1.14855E+04 -2.11065E+04  4.51063E+03 -2.48653E+04  1.62936E+04 -1.89431E+04  2.07780E+04 -1.54518E+03
  1.48817E+04  1.48968E+04  1.84492E+02  2.02547E+04 -1.44015E+04  1.29211E+04 -2.07182E+04 -3.20125E+03
 -1.61757E+04 -1.81391E+04 -2.44561E+03 -2.57317E+04  1.16139E+04 -2.16985E+04  2.05134E+04 -1.21890E+04
  1.97995E+04  2.48448E+02  1.45463E+04  4.28534E+03  7.87798E+03  1.43350E+03  1.01412E+04 -1.50920E+03
  2.01280E+04  3.76382E+03  2.31832E+04  1.78517E+04  1.53342E+04  3.33428E+04 -3.32715E+03  3.88865E+04
 -2.21022E+04  3.07805E+04 -3.61175E+04  1.66343E+04 -3.95508E+04 -3.62179E+03 -3.20463E+04 -2.29293E+04
 -1.32143E+04 -3.17889E+04  1.13505E+04 -2.82889E+04  2.36690E+04 -1.38354E+04  2.19832E+04  6.39893E+03
  7.50123E+03  1.66705E+04 -1.14359E+04  1.52427E+04 -1.65337E+04  3.38058E+03 -1.38041E+04 -1.00781E+04
 -6.61275E+02 -1.76925E+04  8.90172E+03 -1.25331E+04  1.11081E+04 -9.16355E+02  1.58145E+03  8.84673E+03
 -9.86728E+03  3.48121E+03 -8.01192E+03 -6.58414E+03  3.36301E+02 -1.47504E+04  1.02029E+04 -1.69751E+04
  2.10430E+04 -7.94168E+03  2.32888E+04  2.03415E+03  1.94857E+04  1.52230E+04  8.61678E+03  2.54273E+04
 -3.81080E+03  2.69773E+04 -1.67113E+04  1.69407E+04 -1.96414E+04  2.76476E+03 -1.24644E+04 -4.85103E+03
 -5.19959E+03 -5.97308E+03  4.46474E+02  1.82280E+03 -2.42599E+03  2.51122E+03 -4.98568E+03  4.08135E+03
 -1.14980E+04 -5.02456E+02 -1.32534E+04 -1.03392E+04 -5.24594E+03 -1.79289E+04  7.37409E+03 -1.34134E+04
  1.33401E+04 -6.49933E+03  7.14601E+03  4.24063E+03  7.06131E+01  4.80846E+03 -5.81061E+03  4.36955E+02
 -6.64648E+03 -9.60982E+03  2.19632E+02 -1.24464E+04  7.89615E+03 -1.49025E+04  1.75098E+04 -6.12168E+03
  1.96527E+04  2.02946E+03  1.51628E+04  1.24083E+04  3.41793E+03  1.56918E+04 -8.40855E+03  1.33970E+04
 -9.72690E+03  4.91112E+03 -5.88362E+03 -3.03652E+03  1.19217E+03 -3.51805E+03  6.45557E+03 -7.59065E+02
  6.13799E+03  5.28203E+03 -1.93206E+02  1.11967E+04 -7.65271E+03  8.33075E+03 -1.27868E+04  1.24124E+03
 -7.96737E+03 -8.09920E+03  1.46354E+03 -1.13755E+04  7.07727E+03 -6.06926E+03  7.93268E+03  2.96528E+03
  3.05082E+03  8.85057E+03 -6.52464E+03  1.09540E+04 -1.13857E+04  4.55040E+03 -1.16319E+04 -2.81715E+03
 -4.43652E+03 -1.35060E+04  2.65879E+03 -1.53220E+04  1.27776E+04 -8.32999E+03  1.43374E+04  1.86393E+03
  8.94802E+03  1.05340E+04 -5.98031E+02  1.28425E+04 -9.57510E+03  7.43316E+03 -9.68261E+03 -1.29439E+03
 -9.44028E+03 -8.79341E+03 -2.19641E+03 -9.54525E+03  5.50746E+03 -9.27175E+03  7.25373E+03 -4.37944E+03
  3.65345E+03  2.07140E+03 -2.37693E+03  1.16615E+03 -6.76273E+02 -9.39674E+02  1.56720E+03 -5.33398E+03
  8.55730E+03 -4.37642E+03  1.31968E+04  1.49234E+03  1.17991E+04  8.63246E+03  8.88004E+03  1.54246E+04
 -3.06699E+03  1.94721E+04 -1.75654E+04  1.45071E+04 -2.01146E+04  4.33823E+03 -1.67022E+04 -6.66546E+03
 -7.88032E+03 -1.36968E+04 -7.57482E+02 -1.25700E+04  4.45321E+03 -5.77664E+03  5.50807E+03 -4.59715E+03
  4.17076E+03 -2.89964E+03  2.64819E+03 -2.83004E+03  5.18332E+03 -2.51596E+03  6.02106E+03 -5.69766E+02
  8.46471E+03  1.50090E+03  4.93032E+03  7.51847E+03 -2.22016E+03  7.40968E+03 -1.00724E+04  6.97906E+03
 -1.12810E+04 -5.13449E+02 -7.34566E+03 -7.86881E+03 -1.11532E+03 -1.34398E+04  6.60597E+03 -1.31126E+04
  1.41348E+04 -7.10529E+03  1.48778E+04  2.57866E+03  1.07313E+04  1.02812E+04  1.69266E+03  1.42929E+04
 -4.23734E+03  1.19368E+04 -7.74171E+03  3.70286E+03 -4.20250E+03 -1.20822E+03 -3.35633E+03 -1.29337E+03
 -2.39240E+03  7.51024E+02 -3.22054E+03  2.90719E+03 -4.66519E+03  2.08346E+03 -9.12423E+03 -1.93025E+02
 -4.28612E+03 -7.96789E+03  1.72929E+02 -1.10607E+04  7.68514E+03 -1.02659E+04  1.02067E+04 -3.38680E+03
  1.21347E+04  6.45625E+03  3.20948E+03  9.65570E+03 -8.33385E+02  1.13545E+04 -7.61584E+03  6.79487E+03
 -1.01958E+04  5.40770E+02 -6.50711E+03 -8.83155E+03 -7.97148E+02 -9.38647E+03  5.17270E+03 -6.29165E+03
  6.62679E+03 -1.21310E+03  5.64869E+03  2.11367E+03  1.75481E+03  3.52940E+03  2.99836E+03  1.49324E+03
  2.70286E+03  9.89450E+02  3.82788E+03  1.80308E+03  4.04048E+03  4.61296E+03  3.32017E+03  7.39741E+03
 -1.65088E+03  6.87722E+03 -8.18851E+03  8.60948E+03 -1.17518E+04  3.14962E+03 -1.13124E+04 -4.09770E+03
 -5.92694E+03 -1.09143E+04  2.17883E+03 -1.18601E+04  5.25203E+03 -6.27851E+03  9.25270E+03 -2.98519E+03
  5.97279E+03  2.86758E+03  1.65834E+03  5.50324E+03 -3.28017E+03  3.05038E+03 -5.02290E+03 -3.93369E+02
 -2.08846E+03 -4.88957E+03  3.16624E+03 -4.00113E+03  4.39449E+03 -2.60822E+03  4.13065E+03  5.50042E+02
  7.85436E+02  2.19952E+03  1.98841E+03  1.64722E+03 -1.32747E+03  1.78798E+03  2.00995E+03  2.05974E+02
  7.06910E+02 -8.77042E+02  4.45341E+03  1.60260E+03  2.67693E+03  7.08974E+03 -2.73528E+02  8.56610E+03
 -4.91237E+03  4.33667E+03 -6.01757E+03  2.29572E+03 -7.60426E+03 -1.85418E+03 -2.69439E+03 -3.91161E+03
  5.56162E+02 -3.80569E+03  3.20820E+03 -2.53519E+03  1.91506E+03  2.78601E+03 -1.80080E+03  3.22857E+03
 -4.91976E+03  2.91914E+03 -5.22333E+03 -2.68406E+03 -3.85204E+03 -6.38379E+03  8.31768E+02 -4.52042E+03
  2.99582E+03 -3.12788E+03  3.90697E+03 -1.72125E+00  4.63965E+03  2.23431E+03  3.48374E+02  3.50528E+03
 -2.10559E+03  5.90667E+02 -2.51720E+03 -1.82901E+03  2.32044E+03 -4.17143E+03  6.12824E+03 -3.19184E+03
  7.51793E+03  2.58303E+02  6.98651E+03  3.73408E+03  1.65603E+03  7.85655E+03 -1.06337E+03  6.64889E+03
 -6.50594E+03  2.95854E+03 -5.86539E+03 -2.03439E+02 -2.43151E+03 -3.87281E+03  8.38031E+01 -3.88003E+03
  4.85803E+03 -1.93206E+03  3.49562E+03  9.59128E+02  4.58709E+02  4.67679E+03 -8.48289E+02  4.95772E+03
 -2.05481E+03  2.21212E+03 -1.27869E+03  5.92072E+02 -7.30894E+01  1.86170E+03 -1.19741E+03  1.23304E+03
 -1.48873E+03  2.24837E+03 -5.54583E+03  1.16986E+03 -7.05010E+03  7.14522E+02 -8.13698E+03 -5.28581E+03
 -3.54734E+03 -9.42586E+03  1.74642E+03 -9.47190E+03  6.32434E+03 -9.39128E+03  1.11408E+04 -4.65223E+03
  8.07413E+03  2.16988E+03  5.53725E+03  6.12105E+03  8.20368E+02  5.51633E+03 -2.78356E+03  4.32775E+03
 -4.28613E+03  2.36571E+03 -3.05267E+03 -1.94869E+02 -1.10987E+03 -5.54126E+02 -4.38989E+02  1.23979E+03
 -1.28385E+03  3.27051E+02 -1.02115E+03 -6.71143E+02  1.01073E+03 -1.85247E+03 -2.69107E+02 -3.89297E+03
  4.82951E+03 -2.88543E+03  3.43275E+03  9.00435E+02  5.80439E+03  3.66291E+03  7.80030E+02  7.95384E+03
 -2.76285E+03  8.51292E+03 -7.95905E+03  4.32879E+03 -7.10138E+03 -1.20779E+03 -5.87328E+03 -5.28919E+03
 -3.55205E+03 -8.02250E+03  1.13871E+03 -7.10025E+03  3.76315E+03 -3.37507E+03  4.93831E+03  5.70436E+02
  3.24355E+03  2.69829E+03  3.18575E+02  1.40556E+03 -1.48183E+03  9.54890E+02 -1.43108E+03 -3.10386E+03
  2.48967E+03 -1.19844E+03  9.18528E+02  3.33276E+01  2.57008E+03  3.56178E+03 -9.76173E+01  3.16178E+03
 -2.77577E+03  2.64397E+03 -3.78163E+03 -1.01729E+03 -4.06043E+03 -2.44432E+03 -2.42597E+02 -7.56604E+03
  4.02919E+03 -4.63844E+03  5.22376E+03 -1.19628E+03  4.56956E+03  7.45046E+02  4.17141E+03  7.01463E+03
 -4.34863E+02  5.30033E+03 -1.56552E+03  3.56423E+03 -3.17174E+03  2.32500E+03 -2.08729E+03  2.46503E+03
 -3.09359E+02  2.47798E+02 -1.39090E+03  3.83741E+02 -2.15152E+03 -1.48374E+02 -3.98944E+03 -1.59946E+03
 -3.73911E+03 -2.48950E+03 -6.77935E+02 -3.42344E+03  2.71545E+03 -4.01223E+03  2.99085E+03 -1.74445E+03
  4.13351E+03 -7.70178E+02  2.57193E+03  2.15417E+03 -8.71227E+02  4.16562E+03 -3.64603E+03  2.30471E+03
