 $NMID ID='MM_0lb_SNR200_17hz_g45_61.RAW', FMTDAT='(8E13.5)'
 TRAMP=1., VOLUME=1. $END
  3.09936E+05 -6.94028E+02  3.36702E+05  2.50749E+05  8.46898E+04  3.37941E+05 -1.32348E+05  2.50660E+05
 -1.90324E+05  8.23835E+04 -1.10840E+05 -3.24494E+04  1.00728E+03 -5.07103E+04  5.45242E+04 -7.75870E+02
  3.57502E+04  5.40350E+04 -1.65173E+04  7.44336E+04 -6.12133E+04  6.22460E+04 -8.28651E+04  3.17027E+04
 -7.98169E+04 -1.06932E+04 -5.72161E+04 -5.10132E+04 -1.39040E+04 -6.91597E+04  2.75295E+04 -4.58320E+04
  3.75955E+04  3.12559E+03  1.60921E+04  4.72279E+04 -3.34815E+04  4.67975E+04 -6.61454E+04 -4.86758E+02
 -5.16431E+04 -5.58726E+04 -6.80054E+03 -7.58109E+04  3.30288E+04 -5.31572E+04  4.62340E+04 -1.59222E+04
  4.19854E+04  1.16827E+04  3.06335E+04  2.60467E+04  1.55049E+04  2.76866E+04 -5.34680E+03  2.67209E+04
 -2.21996E+04  1.27749E+04 -1.89434E+04 -4.31561E+03  4.92841E+03 -7.54066E+03  2.19945E+04  1.09541E+04
  8.12431E+03  3.29375E+04 -3.15010E+04  3.49031E+04 -6.17811E+04  2.27113E+03 -5.51385E+04 -4.04106E+04
 -1.20656E+04 -6.32130E+04  3.79513E+04 -4.42549E+04  5.64773E+04 -2.92685E+03  3.26378E+04  3.08253E+04
 -6.45610E+03  3.30952E+04 -2.92196E+04  1.46474E+04 -2.84396E+04 -5.16666E+03 -1.52637E+04 -1.01084E+04
 -6.59468E+03 -1.32806E+04 -5.89460E+02 -1.60162E+04  9.14518E+03 -2.21952E+04  1.50892E+04 -1.34975E+04
  1.18586E+04  5.09506E+03 -7.14643E+03  1.26912E+04 -1.94192E+04 -2.01985E+03 -8.08014E+03 -3.11262E+04
  2.13224E+04 -4.28161E+04  4.54445E+04 -1.85506E+04  4.21342E+04  1.87129E+04  1.55582E+04  4.24989E+04
 -1.53840E+04  3.15435E+04 -2.38652E+04  4.91831E+02 -8.70045E+03 -2.73423E+04  2.05837E+04 -3.14777E+04
  3.91334E+04 -8.24888E+03  3.18672E+04  2.29968E+04  1.61644E+04  4.32733E+04 -7.71120E+03  4.64926E+04
 -2.87383E+04  3.15064E+04 -3.74504E+04  8.49905E+03 -3.96391E+04 -1.50566E+04 -2.22873E+04 -3.50563E+04
  7.15540E+03 -3.51787E+04  2.93876E+04 -1.29560E+04  2.77407E+04  1.11733E+04  3.84542E+03  1.77727E+04
 -1.26602E+04  7.54579E+03 -1.05563E+04 -7.56070E+03  6.19863E+03 -8.82078E+03  1.73212E+04  6.13813E+03
  1.30595E+04  2.24449E+04 -6.13199E+03  2.40193E+04 -2.33378E+04  9.26416E+03 -2.62954E+04 -5.50975E+03
 -1.79685E+04 -1.69988E+04 -5.80424E+03 -1.68071E+04  4.46228E+03 -1.57867E+04  1.40509E+04 -1.59784E+04
  2.24644E+04 -1.21610E+04  2.88944E+04  1.43662E+03  2.14566E+04  1.82818E+04  4.02498E+03  3.41197E+04
 -1.58736E+04  2.76067E+04 -2.68673E+04  9.35315E+03 -2.05189E+04 -1.01641E+04 -5.07095E+03 -1.31471E+04
  2.35940E+03 -4.23904E+03 -3.15657E+03  4.50938E+03 -1.36001E+04  5.97752E+03 -1.40155E+04 -5.14383E+03
 -8.60146E+03 -1.58012E+04  5.20315E+03 -2.02124E+04  1.32245E+04 -1.49235E+04  1.64413E+04 -1.46756E+03
  1.06007E+04  1.10081E+04 -8.51623E+02  1.64328E+04 -1.08591E+04  8.62205E+03 -1.59427E+04 -4.14262E+03
 -1.23888E+04 -1.64379E+04 -2.21714E+03 -2.00015E+04  7.88509E+03 -1.63369E+04  1.67542E+04 -8.56054E+03
  1.55217E+04  8.80930E+02  1.11468E+04  3.81803E+03  5.16077E+03  6.75514E+02  8.76774E+03 -1.62237E+03
  1.53855E+04  3.03076E+03  1.67957E+04  1.38715E+04  1.12037E+04  2.59536E+04 -2.86622E+03  2.80837E+04
 -1.70936E+04  2.25849E+04 -2.57291E+04  1.02860E+04 -2.77269E+04 -2.51066E+03 -2.40474E+04 -1.53817E+04
 -1.12175E+04 -2.19950E+04  6.42431E+03 -2.00290E+04  1.85054E+04 -1.14666E+04  1.75083E+04  4.10150E+03
  6.31463E+03  1.14982E+04 -7.84131E+03  1.02159E+04 -1.37976E+04  3.60823E+03 -1.14037E+04 -7.40746E+03
  4.40253E+02 -1.36404E+04  6.78239E+03 -1.05877E+04  9.08302E+03 -1.09404E+03  1.55735E+03  5.02360E+03
 -5.09449E+03  1.69457E+03 -5.40997E+03 -4.97413E+03 -6.43372E+02 -1.19567E+04  8.72691E+03 -1.09643E+04
  1.32785E+04 -4.01719E+03  1.27369E+04  3.35402E+03  1.11278E+04  9.54153E+03  7.12901E+03  1.45252E+04
 -1.73996E+03  1.72073E+04 -1.06422E+04  1.16618E+04 -1.27605E+04  3.42644E+03 -8.60992E+03 -1.68961E+03
 -4.48471E+03 -3.67636E+03 -1.12003E+03  4.14698E+02 -1.88639E+03  2.90949E+03 -3.53803E+03  3.55643E+03
 -8.64633E+03 -6.68114E+02 -8.97257E+03 -7.33025E+03 -5.44079E+03 -1.14448E+04  3.61797E+03 -8.56397E+03
  7.46709E+03 -4.37094E+03  6.49649E+03  2.22745E+03 -4.59850E+02  3.99227E+03 -3.83845E+03  1.20861E+01
 -4.12783E+03 -5.65678E+03 -1.23918E+03 -7.61846E+03  3.67527E+03 -8.88407E+03  1.05209E+04 -4.28198E+03
  1.35735E+04  2.48687E+02  9.01023E+03  6.21777E+03  1.26374E+03  8.30348E+03 -7.23613E+03  1.02429E+04
 -6.87094E+03  2.70914E+03 -4.43173E+03 -1.98195E+03  1.24415E+03 -1.73308E+03  4.88401E+03  1.02164E+03
  3.75401E+03  4.19220E+03  1.09011E+03  6.75250E+03 -4.22653E+03  5.84710E+03 -8.38797E+03  2.99621E+03
 -4.92364E+03 -4.03551E+03 -2.45762E+00 -6.99354E+03  3.82053E+03 -3.65167E+03  4.73875E+03  1.44517E+03
  6.17346E+02  4.46182E+03 -2.88912E+03  5.66507E+03 -5.87640E+03  1.97053E+03 -5.91766E+03 -2.22915E+03
 -3.46985E+03 -6.76002E+03  1.61968E+03 -8.36776E+03  6.79576E+03 -5.41049E+03  8.35015E+03  1.97366E+03
  6.49421E+03  6.23319E+03  3.22712E+01  8.08816E+03 -6.99372E+03  4.32605E+03 -7.42688E+03 -1.45751E+02
 -5.66764E+03 -5.20958E+03 -1.42435E+03 -5.21279E+03  3.24379E+03 -5.95563E+03  2.65224E+03 -2.57933E+03
  2.59787E+03 -6.89175E+02  5.14126E+02  6.75215E+02  6.17478E+02  6.72871E+02  3.23640E+02 -3.12804E+03
  4.40351E+03 -1.27437E+03  6.59593E+03  1.14445E+02  6.21891E+03  4.89284E+03  5.73058E+03  8.48090E+03
 -1.36818E+03  9.45919E+03 -9.37546E+03  7.40101E+03 -1.13523E+04  1.52837E+03 -9.52124E+03 -2.35692E+03
 -5.14151E+03 -8.42658E+03  1.44218E+01 -6.71613E+03  2.65046E+03 -2.74666E+03  1.60994E+03 -3.05298E+03
  3.43143E+02 -2.22673E+03  2.97675E+03 -2.67495E+03  4.07870E+03 -1.50531E+03  3.58786E+03  7.58969E+02
  4.71033E+03  1.27422E+03  6.41222E+02  3.70557E+03 -1.26811E+03  1.99438E+03 -4.50817E+03  3.51490E+03
 -6.16849E+03 -1.17980E+03 -3.04070E+03 -3.96789E+03  4.38097E+02 -5.28480E+03  3.07251E+03 -6.36100E+03
  5.63803E+03 -3.34399E+03  9.41502E+03 -6.50995E+00  5.45077E+03  4.69767E+03  2.06127E+03  6.75076E+03
 -2.74560E+03  6.31542E+03 -3.34884E+03  3.69737E+03 -3.02351E+03 -9.68332E+02 -1.30114E+02 -9.54032E+02
 -1.55195E+03  1.33735E+02 -3.31807E+03  2.91295E+03 -3.44375E+03  1.67333E+03 -5.71281E+03 -2.75139E+01
 -2.18141E+03 -4.40477E+03  1.16184E+03 -4.78644E+03  4.24952E+03 -5.79451E+03  4.96706E+03 -1.62552E+03
  4.60084E+03  2.09299E+03  2.45362E+03  4.63000E+03 -2.06495E+03  5.53107E+03 -4.25534E+03  4.02945E+03
 -5.22765E+03  1.44430E+03 -3.91403E+03 -3.58079E+03 -8.63972E+02 -3.52340E+03  2.92098E+03 -3.55927E+03
  3.84140E+03 -2.55631E+03  2.23996E+03  2.50663E+01  9.97052E+02  2.46012E+03  1.26652E+02 -6.78466E+00
  1.97501E+03 -1.56374E+03  1.00352E+03  2.46110E+03  1.47706E+03  2.42363E+03  1.26382E+03  3.64085E+03
 -1.87227E+03  3.83137E+03 -1.99066E+03  5.44206E+03 -4.42763E+03  2.77772E+03 -5.22125E+03 -6.47041E+02
 -2.57620E+03 -4.80511E+03  1.03822E+03 -6.25586E+03  2.72122E+03 -3.13822E+03  4.02938E+03 -1.31622E+03
  1.80967E+03  1.09134E+03  1.44221E+03  2.40679E+03 -1.75988E+03  2.90559E+03 -7.22798E+02  7.42211E+02
 -2.44794E+02 -1.25454E+03  2.88273E+03 -2.79201E+03  9.84699E+02 -2.15724E+02  1.42479E+03  6.96502E+02
  1.56757E+03  8.92537E+02  1.76941E+02  3.58497E+02 -9.83635E+02  1.98347E+03  1.44723E+03 -1.18917E+02
  1.34341E+02 -8.89535E+02  2.23770E+03  1.87756E+02  1.68747E+02  2.37642E+03 -1.07346E+03  2.70947E+03
 -3.17067E+03  1.71719E+03 -3.90566E+03  4.33964E+02 -2.31279E+03 -1.14669E+03 -4.36040E+02 -2.00388E+03
  1.34015E+03 -2.11042E+03  6.13097E+02 -4.12377E+02  2.07877E+03  1.50284E+03 -1.19367E+02  9.22857E+02
 -2.35098E+03  2.94577E+02 -1.96336E+03 -1.93347E+03 -1.03355E+03 -3.40979E+03  4.56803E+02 -2.36286E+03
  1.26350E+02 -9.24057E+02  8.22951E+02 -2.03530E+02  1.91589E+03 -1.44748E+01  8.40403E+02  7.79052E+02
 -8.46230E+02  1.20672E+01 -1.10710E+03 -1.15144E+03  3.95413E+02 -1.36943E+03  1.15631E+03 -1.03692E+03
  2.62968E+03  4.05136E+02  4.31278E+03  1.45823E+03  7.55120E+02  1.86925E+03  1.02768E+03  2.07243E+03
 -2.73521E+03  1.00057E+02 -2.34171E+03 -4.04855E+01 -4.65077E+02 -1.98622E+03  7.86325E+02 -2.52723E+03
  2.11465E+03 -6.54175E+02  5.73692E+02  1.22549E+03  3.59039E+02  1.11562E+03  6.15845E+02  2.46340E+03
 -7.60790E+02  1.34136E+03 -1.02302E+03  5.10503E+02  7.81386E+02  2.33462E+02 -1.22504E+03  4.47529E+02
 -1.51882E+02  1.58857E+03 -3.01054E+03  6.56181E+02 -2.26521E+03  1.37506E+02 -3.39711E+03 -1.39560E+03
 -2.31417E+03 -2.82340E+03  2.09556E+03 -3.64791E+03  1.87161E+03 -2.94151E+03  2.96696E+03 -1.54633E+03
  2.91406E+03  1.11395E+01  1.68872E+03  2.36197E+03  6.49331E+01  2.87921E+03 -1.63123E+03  1.74522E+03
 -7.09835E+02  1.50805E+02 -1.40988E+03 -2.97454E+02 -1.38330E+03  3.39283E+02 -1.05545E+03 -1.39365E+02
 -1.34109E+03 -1.61367E+02 -7.58602E+02  7.68857E+02  2.19718E+02 -5.23448E+02 -1.34180E+03 -3.33345E+01
  1.66930E+03 -1.49599E+03  7.57030E+02 -3.20804E+02  1.67058E+03  1.49949E+03 -1.70657E+03  2.45975E+03
 -2.11944E+03  2.65281E+03 -2.23587E+03  2.05887E+03 -2.56255E+03 -4.36656E+02 -1.31357E+03 -2.43503E+03
 -1.46637E+03 -9.00499E+02  4.83606E+02 -1.33623E+03  1.01317E+02 -8.65968E+02  7.14533E+02 -5.51281E+02
  3.99327E+02  1.28026E+03 -2.62719E+02 -4.43046E+02 -7.95698E+02 -3.48196E+02  9.91315E+01 -2.90536E+02
  4.22142E+02 -1.14875E+03  9.99843E+02  1.59981E+02  3.07438E+02  5.35325E+02  1.03025E+03  1.96609E+02
 -5.06938E+02  1.50160E+03 -6.25944E+02 -2.64096E+02 -1.02089E+03 -1.81113E+02  1.18961E+03 -4.68056E+02
 -3.91404E+01 -1.81811E+03  1.35812E+03  2.56397E+02  2.01564E+03 -1.86791E+02  9.40448E+02  2.95168E+03
  5.77487E+02  1.06746E+03 -5.34491E+02  8.43668E+02 -7.65032E+02 -8.70094E+01 -4.89958E+02  3.30222E+02
 -3.75555E+02 -8.42303E+02  2.77702E+01  5.57848E+02 -1.68872E+02 -7.49682E+02 -1.19168E+03  1.74237E+02
 -1.35395E+03 -5.97364E+01 -3.44727E+02 -1.77970E+03  3.29812E+02 -2.25623E+03  1.52489E+03 -7.62430E+02
  1.12387E+03  7.51687E+02  4.97785E+02 -3.46949E+02  7.56771E+01  1.10715E+03 -1.98721E+02  9.92179E+02
