 $NMID ID='MM_0lb_SNR200_12hz_g55_20.RAW', FMTDAT='(8E13.5)'
 TRAMP=1., VOLUME=1. $END
  3.09931E+05  1.67963E+03  3.38419E+05  2.52015E+05  8.39337E+04  3.38147E+05 -1.31704E+05  2.52416E+05
 -1.89994E+05  8.38986E+04 -1.11670E+05 -3.24405E+04  1.24763E+03 -5.16181E+04  5.38425E+04  4.27827E+01
  3.49482E+04  5.24532E+04 -1.60489E+04  7.51115E+04 -5.97350E+04  6.22707E+04 -8.42903E+04  3.07909E+04
 -8.06953E+04 -1.19623E+04 -5.75288E+04 -5.12703E+04 -1.61020E+04 -7.10180E+04  2.93863E+04 -4.61846E+04
  4.01870E+04  3.46027E+03  1.63135E+04  4.96812E+04 -3.51422E+04  4.91949E+04 -6.77898E+04 -1.01584E+03
 -5.33659E+04 -5.67614E+04 -7.53788E+03 -7.78579E+04  3.51314E+04 -5.58920E+04  4.91510E+04 -1.77747E+04
  4.42136E+04  1.08625E+04  3.38427E+04  2.74308E+04  1.56409E+04  3.11448E+04 -6.34443E+03  2.82837E+04
 -2.21189E+04  1.31879E+04 -1.82834E+04 -6.23893E+03  5.24522E+03 -7.61328E+03  2.14534E+04  1.34209E+04
  5.91807E+03  3.69783E+04 -3.27106E+04  3.58567E+04 -6.26325E+04  3.23173E+03 -5.77612E+04 -4.47083E+04
 -1.28529E+04 -6.49213E+04  4.16146E+04 -4.69491E+04  5.97609E+04 -2.36793E+03  3.44226E+04  3.33348E+04
 -5.88034E+03  3.73199E+04 -2.92134E+04  1.71464E+04 -3.25715E+04 -3.56023E+03 -1.82962E+04 -1.13994E+04
 -8.64980E+03 -1.47031E+04  3.01893E+02 -1.94265E+04  6.98623E+03 -2.34040E+04  1.46270E+04 -1.12632E+04
  1.03643E+04  6.56939E+03 -9.85980E+03  1.17385E+04 -2.15157E+04 -5.19291E+03 -8.50372E+03 -3.61628E+04
  2.31955E+04 -4.50224E+04  5.05841E+04 -2.05117E+04  4.61332E+04  1.93372E+04  1.65891E+04  4.57534E+04
 -1.58640E+04  3.51619E+04 -2.69117E+04  2.27474E+03 -9.54069E+03 -2.91841E+04  2.17669E+04 -3.56365E+04
  4.20049E+04 -1.09411E+04  3.79575E+04  2.33500E+04  2.02486E+04  4.93170E+04 -8.67847E+03  5.18039E+04
 -3.41921E+04  3.64239E+04 -4.51240E+04  1.01060E+04 -4.57430E+04 -1.82398E+04 -2.44415E+04 -3.97920E+04
  6.41870E+03 -4.00212E+04  3.19752E+04 -1.51958E+04  2.98380E+04  1.05508E+04  4.55201E+03  2.02401E+04
 -1.49537E+04  8.52610E+03 -1.07882E+04 -6.16659E+03  6.41060E+03 -1.14460E+04  1.67346E+04  5.57151E+03
  1.49721E+04  2.18842E+04 -5.94307E+03  2.73921E+04 -2.29090E+04  1.41897E+04 -2.95817E+04 -2.34124E+03
 -2.27325E+04 -1.65877E+04 -1.07373E+04 -2.33933E+04  5.68462E+03 -2.39960E+04  1.69568E+04 -1.94554E+04
  2.88367E+04 -1.39857E+04  3.50846E+04  3.37239E+03  2.52167E+04  2.25236E+04  4.08320E+03  3.89640E+04
 -1.88621E+04  3.25441E+04 -2.95186E+04  1.12961E+04 -2.19253E+04 -1.03441E+04 -5.28288E+03 -1.20146E+04
  2.13432E+01 -2.78955E+03 -6.30113E+03  7.60906E+03 -1.87329E+04  6.45066E+03 -1.79088E+04 -8.16949E+03
 -1.14750E+04 -2.14958E+04  4.43819E+03 -2.54744E+04  1.58111E+04 -1.85621E+04  2.04577E+04 -3.95324E+03
  1.20432E+04  1.37507E+04 -9.79183E+02  2.05241E+04 -1.43822E+04  1.39062E+04 -2.20840E+04 -5.62902E+03
 -1.65833E+04 -2.03351E+04 -1.60638E+03 -2.57243E+04  1.20005E+04 -2.15071E+04  2.17677E+04 -1.07327E+04
  2.02262E+04  5.94896E+02  1.39935E+04  5.84920E+03  8.45810E+03  1.82813E+03  1.09778E+04 -1.50146E+03
  2.05459E+04  4.23650E+03  2.10832E+04  1.61583E+04  1.51092E+04  3.46065E+04 -3.14666E+03  3.76614E+04
 -2.33180E+04  3.12732E+04 -3.81789E+04  1.71248E+04 -3.85903E+04 -1.71885E+03 -3.18205E+04 -2.23814E+04
 -1.31761E+04 -3.25028E+04  1.03197E+04 -2.91809E+04  2.58901E+04 -1.48329E+04  2.12696E+04  7.06737E+03
  8.36123E+03  1.61476E+04 -9.70504E+03  1.39618E+04 -1.79668E+04  2.07399E+03 -1.44777E+04 -1.26839E+04
  1.58953E+02 -1.78277E+04  8.76483E+03 -1.26399E+04  1.10196E+04 -1.99174E+03  3.39226E+03  8.32160E+03
 -6.42953E+03  3.42329E+03 -7.47173E+03 -6.81460E+03 -3.19756E+03 -1.44303E+04  1.01685E+04 -1.63666E+04
  2.08995E+04 -9.44529E+03  2.20979E+04  3.16430E+03  1.82916E+04  1.50219E+04  9.24119E+03  2.51804E+04
 -3.25119E+03  2.52361E+04 -1.68145E+04  1.60379E+04 -1.97641E+04  1.36718E+03 -1.44453E+04 -4.97061E+03
 -6.63130E+03 -5.44928E+03 -1.77985E+03  1.27336E+03 -3.60654E+03  3.15024E+03 -6.36567E+03  3.85287E+03
 -1.19648E+04 -9.05676E+02 -1.42574E+04 -1.04069E+04 -4.34269E+03 -1.73032E+04  6.73364E+03 -1.40680E+04
  1.18485E+04 -6.23250E+03  8.10582E+03  3.83248E+03 -1.93067E+02  4.81205E+03 -6.10330E+03  4.27965E+02
 -5.99030E+03 -8.50312E+03 -1.38080E+03 -1.28966E+04  7.19124E+03 -1.36031E+04  1.65494E+04 -8.40746E+03
  1.88967E+04  9.39343E+02  1.41955E+04  1.09506E+04  2.83463E+03  1.59124E+04 -8.19601E+03  1.30832E+04
 -1.13765E+04  4.73198E+03 -6.03790E+03 -3.97131E+03  7.79782E+02 -4.30611E+03  6.75192E+03 -1.99643E+03
  6.00602E+03  6.13085E+03  8.54950E+02  1.13351E+04 -6.87891E+03  1.03733E+04 -1.31344E+04  1.78683E+03
 -8.86204E+03 -7.05040E+03 -1.02980E+03 -1.24097E+04  7.57232E+03 -4.82335E+03  7.69447E+03  2.08038E+03
  1.44353E+03  8.33313E+03 -6.72483E+03  9.89362E+03 -1.19813E+04  3.50903E+03 -1.11004E+04 -3.88607E+03
 -6.03316E+03 -1.27826E+04  2.37057E+03 -1.48143E+04  1.20455E+04 -8.60849E+03  1.25796E+04  2.74151E+03
  8.16756E+03  1.04068E+04 -7.80015E+02  1.12942E+04 -7.34119E+03  8.41658E+03 -1.04726E+04 -4.92113E+02
 -9.32928E+03 -7.75450E+03 -1.44436E+03 -9.78228E+03  4.36968E+03 -8.35561E+03  6.49425E+03 -2.79642E+03
  4.20455E+03  2.54012E+03  6.94977E+02  4.49845E+02 -1.95297E+02 -2.23044E+03  2.35226E+03 -5.73611E+03
  7.57683E+03 -2.98477E+03  1.23806E+04 -1.99446E+01  1.20802E+04  8.98807E+03  7.87674E+03  1.59973E+04
 -3.80696E+03  1.86633E+04 -1.54697E+04  1.31802E+04 -2.12377E+04  6.81005E+02 -1.68154E+04 -7.04461E+03
 -7.84169E+03 -1.24159E+04 -4.91144E+02 -1.28995E+04  3.86714E+03 -5.61093E+03  4.54364E+03 -2.64135E+03
  2.67621E+03 -4.06673E+03  2.86949E+03 -3.08629E+03  4.54111E+03 -3.98407E+03  6.40473E+03  2.74642E+01
  7.46042E+03  2.45147E+03  4.87761E+03  7.17190E+03 -1.87931E+03  7.69674E+03 -9.58508E+03  8.74514E+03
 -1.12637E+04  6.42377E+02 -6.83218E+03 -7.06440E+03 -1.30903E+03 -1.18639E+04  7.06421E+03 -1.19745E+04
  1.13139E+04 -6.58809E+03  1.50139E+04  1.64148E+03  1.13799E+04  1.03669E+04  1.33420E+03  1.46893E+04
 -4.99508E+03  1.09674E+04 -8.63552E+03  4.56945E+03 -5.37666E+03 -2.56438E+03 -2.29865E+03 -1.59869E+03
 -1.18765E+03 -1.26082E+03 -1.51221E+03  3.19505E+03 -5.46178E+03  1.88576E+03 -6.23891E+03 -7.75389E+02
 -5.58717E+03 -8.95108E+03 -8.01989E+01 -9.74640E+03  5.87506E+03 -1.07103E+04  1.16243E+04 -3.47069E+03
  9.83479E+03  6.21183E+03  4.67790E+03  8.31246E+03 -2.47818E+03  1.13195E+04 -7.16408E+03  6.60403E+03
 -9.63019E+03  1.57969E+03 -8.01624E+03 -6.96825E+03 -2.81324E+03 -8.49708E+03  4.57346E+03 -6.43965E+03
  7.25562E+03 -1.91472E+03  5.55389E+03  1.79389E+03  1.70496E+03  3.58529E+03  1.71501E+03  7.04971E+02
  1.80369E+03  1.39468E+02  2.50476E+03  1.83206E+03  3.28154E+03  4.76819E+03  2.60699E+03  6.13971E+03
 -3.98069E+03  8.51883E+03 -8.13156E+03  8.79770E+03 -9.25231E+03  1.71694E+03 -1.19594E+04 -2.58845E+03
 -5.66062E+03 -1.02715E+04  5.90938E+02 -1.12957E+04  5.77189E+03 -7.75972E+03  8.26344E+03 -3.66771E+03
  6.40080E+03  3.75052E+03  6.26832E+02  7.32778E+03 -2.84890E+03  4.60320E+03 -3.26665E+03 -8.30186E+02
 -2.46813E+03 -4.84402E+03  3.60567E+03 -4.65469E+03  3.79732E+03 -2.80808E+02  5.12242E+03  5.53579E+02
  1.52422E+03  2.11817E+03  2.71210E+02  3.24665E+02 -3.27234E+02  1.22040E+03  1.25576E+03 -3.42086E+02
  9.32971E+02  6.58856E+00  4.09754E+03  2.81540E+03  1.76156E+03  4.85649E+03 -4.33403E+02  7.60494E+03
 -4.41464E+03  5.63098E+03 -8.14536E+03  1.34940E+03 -5.56858E+03 -1.02047E+03 -3.49144E+01 -4.84081E+03
  6.17962E+02 -4.55179E+03  2.43910E+03 -2.80102E+03  2.52649E+03  1.43157E+03 -6.21902E+02  3.27635E+03
 -4.77954E+03  3.32373E+03 -5.93608E+03 -3.89952E+03 -2.06966E+03 -6.33849E+03  1.29407E+03 -4.90661E+03
  2.31194E+03 -3.26646E+03  2.73915E+03 -3.40146E+02  4.01080E+03  2.11511E+03  1.40671E+03  3.34428E+03
  2.18462E+02  9.71001E+00 -2.90254E+03 -8.22189E+02  1.40805E+03 -4.35049E+03  5.17549E+03 -2.59145E+03
  6.67937E+03 -7.32697E+02  8.31114E+03  4.32971E+03  2.78604E+03  5.26161E+03 -2.69030E+03  7.28552E+03
 -4.72693E+03  3.63499E+03 -7.31377E+03  1.13307E+01 -3.23639E+03 -3.01785E+03  4.87916E+02 -3.86027E+03
  2.88051E+03 -1.82202E+03  3.67227E+03  2.18723E+03  1.26858E+03  4.56999E+03 -1.17640E+03  4.40804E+03
 -1.43241E+03  1.54111E+03 -2.49310E+03 -3.97908E+02 -4.23210E+02  3.68831E+02 -1.89670E+03  1.40889E+03
 -1.01665E+03  1.74296E+03 -4.61002E+03  1.98691E+03 -6.84500E+03  4.34633E+02 -6.83026E+03 -3.73838E+03
 -3.41152E+03 -6.76567E+03  2.18780E+03 -1.08785E+04  4.48796E+03 -7.58549E+03  9.15866E+03 -2.88097E+03
  7.49075E+03  1.15503E+03  5.29986E+03  5.64902E+03  6.87184E+02  6.59139E+03 -3.18970E+03  4.52902E+03
 -2.88567E+03  3.65576E+02 -2.50640E+03 -1.28305E+03  5.63338E+01 -3.95213E+02  4.53024E+02  4.53102E+02
 -2.12812E+03 -3.03414E+02 -1.73998E+03 -6.20176E+02 -6.04507E+02 -7.85094E+02 -3.99782E+02 -2.38423E+03
  2.55641E+03 -1.48489E+03  3.30088E+03 -1.44116E+03  4.91919E+03  3.82583E+03 -2.41908E+02  6.25152E+03
 -2.53284E+03  7.25249E+03 -6.23098E+03  5.05997E+03 -7.74857E+03  9.70388E+02 -4.83442E+03 -5.07628E+03
 -2.64740E+03 -5.38449E+03  1.53718E+03 -6.10363E+03  4.15700E+03 -3.78474E+03  2.65554E+03  6.95159E+02
  2.81359E+03  2.00234E+03 -3.46990E+02  4.28104E+03 -7.07029E+02  7.29805E+01  2.91206E+02 -7.77342E+02
  1.09181E+03 -1.50246E+03  1.96235E+03  2.12818E+03  2.31720E+03  3.19102E+03 -1.33926E+02  3.86384E+03
 -3.72863E+03  2.74120E+03 -4.89562E+03 -3.34274E+02 -3.15117E+03 -2.11366E+03 -4.21010E+02 -4.14800E+03
  1.51210E+03 -4.40929E+03  4.43635E+03 -1.25248E+03  4.34291E+03  1.59367E+03  2.09550E+03  3.93518E+03
 -8.17071E+01  3.40390E+03 -1.30357E+03  4.06959E+03 -2.74167E+03  1.40246E+03 -1.51060E+03 -3.73178E+02
 -2.77587E+02 -7.72606E+01 -4.13862E+02 -2.82688E+02 -2.99724E+03  1.30264E+03 -3.07096E+03 -2.77360E+02
 -3.20374E+03 -1.13822E+03 -1.56666E+03 -4.64088E+03  1.82600E+03 -4.83131E+03  3.23745E+03 -2.08155E+03
  3.47361E+03  8.62728E+02  3.24905E+02  2.77883E+03 -6.95792E+02  2.79071E+03 -3.83588E+03  3.76113E+03
