 $NMID ID='MM_0lb_SNR200_9hz_g45_30.RAW', FMTDAT='(8E13.5)'
 TRAMP=1., VOLUME=1. $END
  3.09283E+05  1.08252E+03  3.38193E+05  2.50467E+05  8.42390E+04  3.39002E+05 -1.32687E+05  2.50698E+05
 -1.89891E+05  8.23187E+04 -1.13378E+05 -3.19964E+04 -8.62527E+01 -5.00867E+04  5.46183E+04 -4.14331E+01
  3.46764E+04  5.41104E+04 -1.82671E+04  7.52224E+04 -6.00571E+04  6.57598E+04 -8.52271E+04  3.27574E+04
 -8.28722E+04 -1.22796E+04 -5.95287E+04 -5.25010E+04 -1.53935E+04 -7.17556E+04  2.79093E+04 -4.76400E+04
  3.99297E+04  3.13984E+03  1.80034E+04  4.96123E+04 -3.59719E+04  4.79963E+04 -6.78076E+04  1.57472E+03
 -5.41092E+04 -5.70106E+04 -8.50483E+03 -7.77842E+04  3.31259E+04 -5.60138E+04  5.08634E+04 -1.86441E+04
  4.60306E+04  1.18510E+04  3.23878E+04  2.48410E+04  1.68846E+04  3.02985E+04 -6.98631E+03  2.76343E+04
 -2.24064E+04  1.20318E+04 -1.86752E+04 -4.51990E+03  7.77616E+03 -6.33806E+03  2.42305E+04  1.36866E+04
  6.72210E+03  3.75625E+04 -3.33503E+04  3.74735E+04 -6.56712E+04  1.73345E+03 -5.92635E+04 -4.51914E+04
 -1.12908E+04 -6.52270E+04  4.17588E+04 -4.79653E+04  6.14838E+04 -2.87782E+03  3.55934E+04  3.41191E+04
 -6.07756E+03  3.76337E+04 -3.20189E+04  1.79679E+04 -3.33029E+04 -1.59493E+03 -1.68967E+04 -1.37346E+04
 -8.28144E+03 -1.63646E+04 -3.27941E+02 -2.00645E+04  9.10855E+03 -2.25040E+04  1.36988E+04 -1.28816E+04
  1.02235E+04  5.88058E+03 -8.97609E+03  1.20668E+04 -2.43884E+04 -6.22499E+03 -7.42815E+03 -3.69130E+04
  2.51880E+04 -4.62422E+04  5.21543E+04 -2.10505E+04  4.78611E+04  2.06581E+04  1.72848E+04  4.55626E+04
 -1.78615E+04  3.53627E+04 -2.76634E+04  1.45803E+03 -1.06567E+04 -3.02264E+04  2.24102E+04 -3.55714E+04
  4.30488E+04 -1.13330E+04  4.04239E+04  2.48162E+04  2.00367E+04  5.07760E+04 -8.02810E+03  5.55296E+04
 -3.67405E+04  3.85764E+04 -4.78435E+04  1.08997E+04 -4.74193E+04 -1.80007E+04 -2.69288E+04 -4.22724E+04
  6.77643E+03 -4.03733E+04  3.40139E+04 -1.59692E+04  3.14095E+04  1.11598E+04  5.78641E+03  2.02514E+04
 -1.55240E+04  9.97857E+03 -1.01865E+04 -8.33424E+03  5.35697E+03 -1.07647E+04  1.76178E+04  5.67345E+03
  1.59468E+04  2.36181E+04 -5.67089E+03  2.61528E+04 -2.36115E+04  1.35352E+04 -3.08864E+04 -1.74142E+03
 -2.43988E+04 -1.87693E+04 -9.33185E+03 -2.45697E+04  5.13973E+03 -2.58414E+04  1.89941E+04 -2.20887E+04
  3.28914E+04 -1.38192E+04  3.73297E+04  5.21850E+03  2.77319E+04  2.42537E+04  5.11039E+03  4.14439E+04
 -1.88910E+04  3.37930E+04 -3.11547E+04  1.05305E+04 -2.21531E+04 -1.06378E+04 -3.71028E+03 -1.11697E+04
  2.38587E+03  4.91102E+02 -7.85409E+03  8.11248E+03 -2.01358E+04  6.53162E+03 -1.88143E+04 -8.31773E+03
 -1.23465E+04 -2.26933E+04  6.64367E+03 -2.75511E+04  1.75980E+04 -2.06694E+04  2.04785E+04 -1.61597E+03
  1.36801E+04  1.48461E+04 -1.07029E+03  2.20098E+04 -1.49985E+04  1.27831E+04 -2.31751E+04 -5.01982E+03
 -1.81811E+04 -2.05598E+04 -1.41311E+03 -2.83138E+04  1.22502E+04 -2.27466E+04  2.21220E+04 -1.13384E+04
  2.33293E+04 -9.66417E+02  1.46882E+04  4.74507E+03  8.63190E+03  1.17460E+03  1.40584E+04 -1.20472E+03
  2.11626E+04  2.24808E+03  2.43396E+04  1.86767E+04  1.84906E+04  3.62726E+04 -3.78671E+03  4.32334E+04
 -2.37734E+04  3.51235E+04 -4.22927E+04  1.99148E+04 -4.38661E+04 -4.12170E+03 -3.47300E+04 -2.61762E+04
 -1.29286E+04 -3.63457E+04  1.38698E+04 -3.29275E+04  2.79224E+04 -1.49156E+04  2.29239E+04  9.27722E+03
  7.78873E+03  1.86308E+04 -1.29449E+04  1.54144E+04 -1.87266E+04  2.59529E+03 -1.52875E+04 -1.34062E+04
 -7.78498E+01 -2.02066E+04  1.15046E+04 -1.50390E+04  1.33337E+04 -9.44817E+02  3.89540E+03  7.13897E+03
 -1.07473E+04  2.13230E+03 -1.04643E+04 -7.21589E+03 -2.23750E+03 -1.71778E+04  1.18504E+04 -1.92914E+04
  2.20443E+04 -1.09384E+04  2.60254E+04  4.89935E+03  2.25615E+04  1.82813E+04  1.10979E+04  2.82184E+04
 -5.59126E+03  3.04560E+04 -1.96762E+04  1.77151E+04 -2.13096E+04  4.76754E+03 -1.38071E+04 -6.99216E+03
 -6.24514E+03 -6.41393E+03 -4.87200E+02  1.24591E+03 -4.00525E+03  3.83142E+03 -7.68487E+03  5.75703E+03
 -1.39122E+04 -1.24017E+03 -1.34414E+04 -1.04705E+04 -6.21181E+03 -1.93552E+04  6.45945E+03 -1.53732E+04
  1.31080E+04 -6.21213E+03  8.44170E+03  4.72155E+03  3.27278E+01  6.31898E+03 -7.61234E+03 -1.00029E+03
 -6.51340E+03 -9.96109E+03 -6.70850E+02 -1.48738E+04  8.22829E+03 -1.56952E+04  2.02981E+04 -7.74725E+03
  2.26912E+04  2.14211E+03  1.50949E+04  1.24589E+04  2.35442E+03  1.89238E+04 -8.62332E+03  1.59087E+04
 -1.21419E+04  4.81404E+03 -6.60103E+03 -3.19225E+03  2.60624E+03 -4.50330E+03  7.39136E+03 -1.74224E+03
  6.54962E+03  7.87147E+03  3.44756E+02  1.23813E+04 -8.82142E+03  1.21036E+04 -1.55596E+04  6.58435E+02
 -1.11795E+04 -8.66944E+03  1.27506E+03 -1.38108E+04  7.57176E+03 -6.80872E+03  7.52718E+03  3.40370E+03
  1.16167E+03  9.96594E+03 -7.72175E+03  1.09086E+04 -1.38210E+04  5.48602E+03 -1.24889E+04 -3.77433E+03
 -7.93642E+03 -1.52443E+04  2.87833E+03 -1.93647E+04  1.54236E+04 -1.15701E+04  1.71437E+04  3.19399E+03
  9.13734E+03  1.28471E+04 -1.79727E+03  1.45631E+04 -1.14404E+04  7.70164E+03 -1.13392E+04 -1.23717E+03
 -1.13496E+04 -1.03215E+04 -1.02331E+03 -1.20378E+04  5.98338E+03 -8.51025E+03  8.07197E+03 -4.76716E+03
  5.42852E+03  1.53288E+03 -1.91915E+03  2.60406E+03 -3.61625E+02 -2.85198E+03  2.04395E+03 -7.21516E+03
  1.09819E+04 -4.55750E+03  1.52050E+04  3.10090E+03  1.44213E+04  1.14947E+04  9.67290E+03  1.98981E+04
 -5.14059E+03  2.41352E+04 -2.05743E+04  1.59932E+04 -2.58563E+04  2.62467E+03 -1.94182E+04 -9.45744E+03
 -1.09719E+04 -1.86389E+04 -1.53208E+03 -1.33088E+04  5.01283E+03 -7.36602E+03  5.21621E+03 -6.05774E+03
  3.03542E+03 -3.00773E+03  4.69215E+03 -4.47430E+03  6.80815E+03 -3.73252E+03  8.96475E+03 -1.79848E+03
  9.27556E+03  1.70856E+03  7.18567E+03  1.11221E+04 -1.86174E+03  1.04726E+04 -1.18014E+04  8.63127E+03
 -1.30789E+04 -2.52207E+03 -8.43118E+03 -9.52092E+03 -5.71641E+02 -1.69938E+04  8.16190E+03 -1.57173E+04
  1.49502E+04 -7.57182E+03  1.92839E+04  4.00889E+03  1.27000E+04  1.34464E+04  1.66934E+03  1.59918E+04
 -6.11996E+03  1.24559E+04 -1.08419E+04  5.29674E+03 -7.12171E+03 -1.16688E+03 -3.37141E+03 -2.55188E+03
  2.57412E+02 -3.87735E+02 -2.49719E+03  1.97583E+03 -4.93868E+03  1.83248E+03 -9.83001E+03 -1.07807E+03
 -8.30818E+03 -1.06835E+04 -5.93080E+02 -1.51013E+04  8.27397E+03 -1.34050E+04  1.33101E+04 -4.84369E+03
  1.50530E+04  9.09357E+03  6.41883E+03  1.31398E+04 -2.31975E+03  1.55213E+04 -1.22073E+04  9.03234E+03
 -1.34559E+04 -3.29541E+02 -9.44475E+03 -8.85535E+03 -2.16481E+03 -1.19295E+04  7.71881E+03 -9.63535E+03
  1.15697E+04 -4.29207E+03  6.03812E+03  3.35611E+03  2.33455E+03  4.12881E+03  1.50439E+02  1.50722E+03
  2.45468E+03  8.75936E+01  2.30062E+03  7.87490E+02  5.75886E+03  4.67532E+03  4.29435E+03  8.79101E+03
 -2.45143E+03  1.12648E+04 -1.03694E+04  1.13045E+04 -1.60230E+04  2.07019E+03 -1.62218E+04 -5.03820E+03
 -6.50018E+03 -1.48052E+04  1.49600E+03 -1.62000E+04  9.85181E+03 -9.32549E+03  1.15488E+04 -4.17758E+03
  9.75835E+03  5.95108E+03  4.88919E+02  8.25811E+03 -3.62879E+03  5.57382E+03 -5.02145E+03 -1.60542E+03
 -2.90594E+03 -5.96924E+03  2.55568E+03 -6.43883E+03  5.28478E+03 -2.86676E+03  4.01168E+03  1.23998E+03
  2.40916E+03  2.27086E+03  2.18738E+03  1.78024E+03 -1.21306E+03  2.75896E+03  2.46773E+03 -1.12790E+03
  1.70913E+03 -3.94592E+02  5.33793E+03  2.73844E+03  1.91185E+03  8.81790E+03 -1.42872E+03  1.06202E+04
 -6.01115E+03  6.36037E+03 -8.74974E+03  3.12437E+03 -7.85651E+03 -2.84212E+03 -4.50983E+03 -7.20026E+03
  1.31650E+03 -5.75423E+03  4.48834E+03 -1.83909E+03  2.93257E+03  1.82486E+03 -1.03858E+03  6.62975E+03
 -5.66964E+03  3.05353E+03 -6.66953E+03 -4.52758E+03 -3.86746E+03 -7.17823E+03  1.90699E+03 -9.51788E+03
  3.56072E+03 -6.15718E+03  4.95470E+03 -7.20850E+02  6.22690E+03  2.51519E+03  3.16377E+02  4.91221E+03
 -2.57152E+03  1.89283E+03 -2.30785E+03 -3.23290E+03 -4.82344E+02 -6.39179E+03  6.61756E+03 -5.24519E+03
  7.48118E+03  1.06869E+03  1.04066E+04  5.79899E+03  1.86183E+03  1.00209E+04 -5.25813E+03  9.36552E+03
 -7.94515E+03  4.18759E+03 -9.01377E+03 -1.55903E+03 -3.78374E+03 -7.01060E+03  3.99556E+02 -7.04496E+03
  5.36301E+03 -2.49709E+03  4.94699E+03  1.57217E+03  2.11574E+02  3.64465E+03 -1.50197E+03  3.73748E+03
 -2.89380E+03  2.54164E+03 -3.79192E+03  1.31938E+03 -1.50174E+03  2.31882E+03 -5.13952E+02  1.94885E+03
 -3.71600E+03  4.20685E+03 -5.83756E+03  4.07219E+03 -9.30215E+03  4.56358E+02 -1.14826E+04 -7.88974E+03
 -5.75867E+03 -1.32265E+04  3.53939E+03 -1.38231E+04  9.13843E+03 -1.20244E+04  1.27057E+04 -5.79745E+03
  1.29896E+04  4.96345E+03  9.22519E+03  9.94780E+03  1.69967E+03  1.28135E+04 -4.54926E+03  9.47896E+03
 -6.04247E+03  3.25618E+03 -2.94819E+03 -1.97036E+03  1.24236E+02 -1.75151E+03 -1.57088E+02 -5.11882E+02
 -3.09602E+03  9.44354E+01 -3.00972E+03  6.80430E+02  2.53754E+02 -1.87082E+03  1.04504E+03 -3.46023E+03
  4.17060E+03 -3.04423E+03  5.78225E+03  3.36040E+02  4.62102E+03  6.27818E+03  3.15421E+03  8.96030E+03
 -4.51745E+03  1.12603E+04 -1.07281E+04  9.40707E+03 -1.16677E+04 -2.10595E+03 -1.07650E+04 -8.49963E+03
 -4.84244E+03 -1.11792E+04  1.34889E+03 -1.03409E+04  6.39088E+03 -5.34885E+03  7.56804E+03 -4.42691E+02
  2.75584E+03  4.53540E+03  1.55751E+02  2.19949E+03 -3.77364E+03  5.35090E+02  1.59474E+03 -2.62452E+03
  3.53319E+03 -2.09305E+03  2.66463E+03  1.10875E+03  2.47503E+03  3.46051E+03 -1.21622E+03  4.68923E+03
 -4.10008E+03  4.84669E+03 -7.31614E+03  2.04598E+03 -6.06682E+03 -5.08842E+03 -1.09947E+03 -9.45369E+03
  5.28506E+03 -8.50036E+03  7.30510E+03 -3.23673E+03  9.21532E+03  2.76652E+03  4.52991E+03  5.13989E+03
  2.73801E+03  7.34449E+03 -2.83792E+03  6.73850E+03 -3.55461E+03  4.18114E+03 -3.35489E+03  1.20246E+03
 -2.89487E+03 -1.19117E+02 -3.20169E+03  1.93267E+03 -5.41013E+03  1.49412E+03 -5.77551E+03 -3.56566E+02
 -5.91634E+03 -2.47747E+03 -1.74745E+03 -6.66330E+03  3.08210E+03 -9.39833E+03  5.50626E+03 -3.56538E+03
  6.07645E+03  1.90884E+03  4.31371E+03  4.46272E+03  4.31126E+02  4.30168E+03 -5.26080E+03  5.45322E+03
