 $NMID ID='MM_0lb_SNR200_17hz_g40_94.RAW', FMTDAT='(8E13.5)'
 TRAMP=1., VOLUME=1. $END
  3.09886E+05 -1.22426E+02  3.37885E+05  2.50682E+05  8.40691E+04  3.35975E+05 -1.32062E+05  2.49702E+05
 -1.87800E+05  8.31765E+04 -1.11529E+05 -3.23952E+04  1.60454E+03 -5.01324E+04  5.36455E+04  1.02591E+02
  3.54567E+04  5.27370E+04 -1.66139E+04  7.52686E+04 -5.99265E+04  6.31415E+04 -8.30749E+04  3.15285E+04
 -8.01724E+04 -1.04683E+04 -5.58027E+04 -5.02751E+04 -1.52613E+04 -6.90978E+04  2.63926E+04 -4.46432E+04
  3.91927E+04  4.14606E+03  1.55649E+04  4.68488E+04 -3.43062E+04  4.58809E+04 -6.64422E+04 -7.73255E+02
 -5.16761E+04 -5.55819E+04 -5.48557E+03 -7.47416E+04  3.26940E+04 -5.30457E+04  4.62333E+04 -1.63285E+04
  4.24509E+04  1.13577E+04  3.19671E+04  2.47933E+04  1.55305E+04  2.83959E+04 -4.29793E+03  2.72989E+04
 -2.18202E+04  1.37651E+04 -2.02658E+04 -5.35720E+03  4.47495E+03 -7.35783E+03  2.07792E+04  1.01706E+04
  8.35552E+03  3.38159E+04 -3.07652E+04  3.48820E+04 -6.09811E+04  2.58226E+03 -5.49093E+04 -4.14842E+04
 -1.18490E+04 -6.10420E+04  3.80641E+04 -4.32683E+04  5.62006E+04 -1.75075E+03  3.13683E+04  3.15838E+04
 -5.88532E+03  3.22719E+04 -2.91306E+04  1.36165E+04 -2.81125E+04 -6.69227E+03 -1.51042E+04 -9.89694E+03
 -7.15801E+03 -1.07665E+04 -1.09668E+03 -1.54549E+04  7.74673E+03 -2.36981E+04  1.58602E+04 -1.39611E+04
  1.34476E+04  5.30178E+03 -5.56797E+03  1.37251E+04 -1.99247E+04 -1.93208E+03 -8.09298E+03 -3.07830E+04
  2.10500E+04 -4.06781E+04  4.55766E+04 -1.87961E+04  4.16953E+04  1.96166E+04  1.50358E+04  4.31362E+04
 -1.48588E+04  3.12707E+04 -2.41317E+04  3.60351E+02 -8.13124E+03 -2.60849E+04  2.04499E+04 -3.18223E+04
  3.82424E+04 -7.68591E+03  3.22286E+04  2.20873E+04  1.60841E+04  4.29239E+04 -7.72183E+03  4.59241E+04
 -2.86020E+04  2.99265E+04 -3.70953E+04  8.58734E+03 -3.85979E+04 -1.48317E+04 -2.07820E+04 -3.52782E+04
  6.89860E+03 -3.43391E+04  2.88162E+04 -1.18445E+04  2.60614E+04  1.14090E+04  3.89145E+03  1.73666E+04
 -1.38326E+04  7.15491E+03 -9.56034E+03 -7.22682E+03  6.68490E+03 -1.09042E+04  1.57626E+04  6.44842E+03
  1.20548E+04  2.27761E+04 -6.69292E+03  2.28539E+04 -2.07489E+04  8.98121E+03 -2.54228E+04 -6.04749E+03
 -1.69906E+04 -1.61803E+04 -5.75825E+03 -1.62845E+04  3.73209E+03 -1.63899E+04  1.34277E+04 -1.41721E+04
  2.18061E+04 -1.19610E+04  2.87011E+04  1.46747E+03  2.19066E+04  1.63892E+04  4.62295E+03  3.18746E+04
 -1.54733E+04  2.76439E+04 -2.62465E+04  9.41237E+03 -1.98847E+04 -9.74941E+03 -4.24357E+03 -1.30125E+04
  2.71421E+03 -3.75840E+03 -2.87318E+03  6.20449E+03 -1.45204E+04  6.72516E+03 -1.32862E+04 -4.86057E+03
 -9.64820E+03 -1.61445E+04  4.19052E+03 -2.02643E+04  1.40735E+04 -1.34060E+04  1.41124E+04 -1.34934E+03
  8.03905E+03  1.09279E+04 -5.04084E+02  1.81827E+04 -1.15961E+04  1.00605E+04 -1.54475E+04 -2.39055E+03
 -1.16632E+04 -1.36714E+04 -2.30060E+03 -1.95059E+04  8.53695E+03 -1.52105E+04  1.65684E+04 -7.82695E+03
  1.54997E+04  8.60228E+02  1.06674E+04  2.04261E+03  4.95637E+03  8.76016E+02  8.26472E+03 -1.12118E+03
  1.43045E+04  2.81501E+03  1.48107E+04  1.39128E+04  1.03201E+04  2.50305E+04 -4.52722E+03  2.74760E+04
 -1.67410E+04  2.12844E+04 -2.59939E+04  1.04487E+04 -2.63202E+04 -2.25166E+03 -2.34920E+04 -1.51234E+04
 -1.12347E+04 -2.15374E+04  6.81145E+03 -2.02952E+04  1.73500E+04 -1.03870E+04  1.59557E+04  3.44836E+03
  7.03758E+03  1.24437E+04 -6.86449E+03  1.12763E+04 -1.35243E+04  2.89364E+03 -1.05557E+04 -9.14914E+03
  2.31489E+02 -1.28079E+04  6.18197E+03 -9.03839E+03  8.72834E+03 -1.36525E+03  5.83251E+02  5.30633E+03
 -5.35015E+03  4.17143E+02 -4.13567E+03 -4.79722E+03  4.57893E+02 -1.13890E+04  7.26253E+03 -1.08478E+04
  1.35285E+04 -4.88361E+03  1.39276E+04  2.04792E+03  1.15247E+04  1.03679E+04  4.97406E+03  1.59603E+04
 -1.98377E+03  1.66239E+04 -1.07743E+04  1.07997E+04 -1.19196E+04  2.73808E+03 -8.96955E+03 -1.50083E+03
 -4.48116E+03 -4.12664E+03 -3.44795E+02  8.32394E+02 -2.28454E+03  1.81262E+03 -3.45476E+03  3.67403E+03
 -9.11015E+03  4.97277E+01 -9.51857E+03 -7.71698E+03 -4.04335E+03 -1.25854E+04  5.14991E+03 -8.27595E+03
  8.08198E+03 -3.94083E+03  5.77175E+03  2.47498E+03  8.33183E+02  3.05917E+03 -3.49452E+03  4.67832E+02
 -2.78002E+03 -5.02661E+03 -1.84012E+03 -8.43594E+03  4.06198E+03 -9.07044E+03  1.07486E+04 -4.91913E+03
  1.28073E+04  3.93729E+02  8.16205E+03  6.77687E+03  2.27120E+03  9.68462E+03 -5.41877E+03  9.07225E+03
 -6.72990E+03  2.89570E+03 -3.38342E+03 -3.30485E+02  1.13749E+03 -7.52834E+02  4.07162E+03 -1.89854E+03
  4.39234E+03  3.97642E+03  1.06661E+02  5.88878E+03 -5.07856E+03  7.11082E+03 -8.76752E+03  2.17755E+03
 -5.39545E+03 -4.25017E+03  9.38174E+02 -6.77305E+03  5.59195E+03 -3.46216E+03  3.91576E+03  6.92925E+02
 -1.67892E+02  4.24646E+03 -4.78469E+03  5.17864E+03 -5.29891E+03  2.20496E+03 -6.51940E+03 -1.78406E+03
 -2.90504E+03 -5.98572E+03  2.19627E+03 -6.82759E+03  7.51088E+03 -4.60501E+03  6.34477E+03  1.19269E+03
  5.39292E+03  4.75307E+03  6.67485E+02  7.89913E+03 -5.17252E+03  4.24504E+03 -6.00048E+03 -1.28007E+03
 -5.08424E+03 -5.18516E+03 -6.03160E+02 -4.83170E+03  3.70177E+03 -4.94452E+03  3.34409E+03 -3.72884E+03
  3.58793E+03  5.00489E+02  1.51308E+01 -2.88008E+02  7.66967E+02 -4.98466E+02  3.46617E+02 -1.77932E+03
  3.19484E+03 -1.30630E+03  7.28358E+03  2.02631E+03  4.64696E+03  4.03790E+03  6.14619E+03  8.46827E+03
 -1.88682E+03  1.07127E+04 -8.22824E+03  7.68428E+03 -1.21597E+04  1.09433E+03 -7.84422E+03 -3.63781E+03
 -4.72388E+03 -6.95414E+03 -8.97904E+01 -7.12880E+03  1.65447E+03 -2.81526E+03  2.21156E+03 -2.24104E+03
  1.60365E+03 -1.55165E+03  2.30340E+03 -1.47772E+03  3.48477E+03 -1.11310E+03  4.15662E+03 -1.19556E+02
  4.94590E+03  1.39170E+03  2.29500E+03  3.53558E+03 -2.81862E+03  3.88702E+03 -4.81045E+03  3.16601E+03
 -5.29835E+03 -1.03633E+03 -2.75509E+03 -4.54592E+03  2.12243E+02 -5.07529E+03  3.95153E+03 -6.76786E+03
  5.75031E+03 -3.52423E+03  7.66066E+03  3.72464E+02  5.52734E+03  4.95681E+03  1.47320E+03  7.24151E+03
 -1.36637E+03  6.16478E+03 -4.88581E+03  2.98432E+03 -1.82321E+03 -1.99707E+03 -6.90083E+02 -5.83628E+02
 -6.79313E+02 -5.82132E+02 -1.35990E+03  2.47838E+03 -2.73443E+03  1.20853E+03 -3.53561E+03 -3.39500E+02
 -2.61114E+03 -4.07088E+03  4.18287E+02 -5.04453E+03  2.66568E+03 -4.94499E+03  3.52567E+03 -3.91508E+02
  4.87374E+03  3.13650E+03  1.00635E+03  3.83368E+03 -1.08178E+03  4.82438E+03 -2.30344E+03  3.19885E+03
 -4.06917E+03  3.62499E+02 -3.35143E+03 -2.94403E+03 -1.60896E+03 -3.70221E+03  1.51582E+03 -3.23418E+03
  3.14920E+03 -1.79012E+03  1.92859E+03  2.12534E+03  1.26196E+03  1.84630E+03  1.15993E+03 -3.44973E+02
  2.47796E+03  9.64481E+02  1.07477E+03  1.90778E+03  4.94640E+02  1.98559E+03  1.58656E+03  2.10796E+03
 -8.47803E+02  4.06803E+03 -2.71124E+03  4.56106E+03 -4.97891E+03  3.67696E+01 -4.75102E+03 -1.69127E+03
 -1.33839E+03 -4.10931E+03  1.06962E+02 -5.69722E+03  2.50458E+03 -3.00566E+03  3.15354E+03 -1.25719E+02
  2.19634E+03  1.94299E+03  8.10081E+01  2.37333E+03 -5.86884E+02  6.49258E+02 -1.69525E+03 -1.07624E+03
 -1.25326E+03 -2.11086E+03  2.05114E+03 -2.30491E+03  1.11207E+03 -5.51203E+02  1.74069E+03  3.22197E+02
  8.30284E+02 -4.07126E+02  7.19669E+02 -2.27829E+02 -1.10455E+03  1.42169E+03  1.64867E+03  6.50656E+01
  4.69821E+02 -5.65673E+02  2.56292E+03  7.34933E+02  5.85557E+02  2.54208E+03  1.97355E+02  3.83343E+03
 -2.29408E+03  1.26429E+03 -3.18367E+03  2.62918E+02 -1.64316E+03 -1.35904E+03  3.45389E+02 -1.92634E+03
  7.60251E+02 -1.37783E+03  1.03167E+03 -1.43324E+03  5.95544E+02  2.02755E+03 -1.40838E+03  1.11320E+03
 -2.37561E+03  6.26835E+00 -1.33840E+03 -8.59548E+02 -6.08573E+02 -3.61309E+03  8.89414E+01 -2.39642E+03
  1.59341E+03  1.99839E+02  1.70803E+03  1.30401E+03  1.93655E+03 -4.38543E+02  6.01810E+01  6.56775E+02
 -1.65541E+03 -4.26868E+02 -6.11632E+02  8.35606E+02  1.32538E+03 -1.23042E+03  1.97829E+03 -2.01643E+03
  1.61410E+03  4.61933E+02  2.93493E+03  9.97790E+02  6.40354E+02  3.02396E+03 -4.08344E+02  1.88918E+03
 -1.99310E+03  1.88695E+02 -1.63398E+03 -1.87687E+02 -2.96981E+02 -1.53329E+03  2.92004E+02 -1.18102E+03
  1.52164E+03 -1.00663E+03  1.00796E+03 -2.37950E+00 -1.43910E+02  9.12393E+02 -4.12893E+02  2.37467E+03
 -4.92318E+02  1.20112E+03 -4.49340E+02 -3.06293E+02  3.21722E+02  3.91609E+02 -9.67627E+02  3.48941E+02
 -8.89719E+02  1.54155E+03 -8.73636E+02  1.57324E+03 -2.61795E+03 -4.13974E+02 -2.60585E+03 -2.45322E+03
 -7.39072E+02 -2.69894E+03 -6.65751E+02 -3.73069E+03  7.51696E+02 -2.64191E+03  2.98778E+03 -9.56959E+02
  1.90322E+03  2.08201E+02  4.56855E+02  2.15354E+03  4.95574E+02  1.62883E+03 -1.02510E+03  1.16834E+03
 -1.51497E+03  2.61569E+03 -9.05075E+02  7.56671E+02 -1.10027E+03  1.32936E+03 -9.63765E+02  6.96068E+02
 -1.65418E+03  7.40934E+02 -1.15158E+03 -1.25941E+02 -2.88519E+01 -8.33067E+02 -5.04797E+02 -1.59127E+03
  6.42428E+02 -1.98085E+02  6.16394E+02  6.33653E+01  8.82512E+02  1.66694E+03  1.06964E+03  2.82771E+03
 -1.48727E+03  3.25450E+03 -1.61588E+03  1.14958E+03 -3.09344E+03  3.63631E+02 -1.17304E+03 -1.70348E+03
 -1.94629E+03 -1.54481E+03 -4.09151E+02 -8.00238E+02  1.75870E+03 -1.65619E+03  4.30634E+02  2.88562E+02
 -6.25562E+02 -7.05903E+02  9.28588E+01  4.93939E+02 -6.81315E+02 -3.25969E+02  1.55702E+03 -3.29692E+02
  1.75389E+02  1.72975E+02  3.27022E+02 -7.97521E+02  5.13172E+02  1.39014E+03  2.74663E+02 -8.93250E+02
  1.28954E+02  1.56238E+03 -6.26252E+02  7.57643E+02 -5.01117E+02 -1.20401E+03 -5.64378E+02 -2.23032E+03
  2.05869E+02 -1.72712E+03  8.77786E+02  9.73976E+01  1.23817E+03 -9.39672E+02  9.28392E+02  5.59343E+02
  1.01723E+03 -1.96014E+02 -5.73483E+02  5.27340E+02 -1.02265E+03  1.23397E+03 -1.86350E+03 -1.82329E+02
 -1.27107E+03 -5.38475E+02  4.95825E+01  6.79894E+02 -1.04618E+03  6.42814E+02 -4.13576E+02 -4.88553E+02
 -1.38348E+03  2.81866E+02 -3.87243E+02 -1.01645E+03 -9.67417E+00 -1.72977E+03  1.50847E+03 -2.33231E+02
  1.43837E+03 -5.64527E+02 -6.77876E+02  8.91700E+02 -7.89978E+02  1.40293E+03 -3.12143E+02  1.37805E+03
