 $NMID ID='MM_0lb_SNR200_19hz_g55_44.RAW', FMTDAT='(8E13.5)'
 TRAMP=1., VOLUME=1. $END
  3.09048E+05  1.08674E+03  3.37364E+05  2.51719E+05  8.39376E+04  3.37925E+05 -1.32240E+05  2.50018E+05
 -1.90413E+05  8.20026E+04 -1.11140E+05 -3.31152E+04  1.61285E+03 -5.12270E+04  5.39680E+04  5.50246E+01
  3.53517E+04  5.36415E+04 -1.61733E+04  7.51686E+04 -6.04431E+04  6.27510E+04 -8.32012E+04  3.08693E+04
 -8.12196E+04 -1.02489E+04 -5.65041E+04 -5.16138E+04 -1.57606E+04 -6.95588E+04  2.72444E+04 -4.42141E+04
  3.95287E+04  4.27699E+03  1.56085E+04  4.69272E+04 -3.36939E+04  4.67485E+04 -6.56901E+04 -1.02008E+03
 -5.10539E+04 -5.64875E+04 -6.99354E+03 -7.50576E+04  3.33453E+04 -5.31481E+04  4.56105E+04 -1.66559E+04
  4.24991E+04  1.01014E+04  3.16549E+04  2.50365E+04  1.62420E+04  2.90587E+04 -5.10351E+03  2.67715E+04
 -2.16069E+04  1.26266E+04 -1.87196E+04 -5.18828E+03  5.30337E+03 -7.89354E+03  2.23750E+04  1.16577E+04
  6.15104E+03  3.49498E+04 -3.18209E+04  3.46148E+04 -6.10437E+04  2.47258E+03 -5.47098E+04 -4.10968E+04
 -1.23954E+04 -6.10362E+04  3.86767E+04 -4.32991E+04  5.72126E+04 -1.57158E+03  3.41101E+04  3.10586E+04
 -6.64063E+03  3.40627E+04 -2.87979E+04  1.46146E+04 -2.76257E+04 -5.79768E+03 -1.51609E+04 -9.51462E+03
 -7.67108E+03 -1.13210E+04 -1.41214E+03 -1.70195E+04  7.81375E+03 -2.22169E+04  1.57356E+04 -1.32552E+04
  1.23911E+04  4.57379E+03 -7.34289E+03  1.31669E+04 -2.10261E+04 -2.45250E+03 -8.18886E+03 -3.16789E+04
  2.05109E+04 -4.02712E+04  4.58088E+04 -2.05133E+04  4.31700E+04  1.80150E+04  1.46786E+04  4.20604E+04
 -1.52740E+04  3.15448E+04 -2.42783E+04  9.14091E+02 -9.67893E+03 -2.68731E+04  2.07951E+04 -3.25374E+04
  3.82527E+04 -7.70603E+03  3.17144E+04  2.22054E+04  1.62296E+04  4.28657E+04 -6.78124E+03  4.60207E+04
 -2.96036E+04  3.03075E+04 -3.73690E+04  8.04063E+03 -3.95784E+04 -1.53985E+04 -2.21071E+04 -3.48227E+04
  5.98637E+03 -3.40800E+04  2.89432E+04 -1.34085E+04  2.72001E+04  1.16634E+04  3.22846E+03  1.78949E+04
 -1.29442E+04  7.50681E+03 -9.68887E+03 -7.25852E+03  5.66242E+03 -9.91217E+03  1.73637E+04  6.32866E+03
  1.23111E+04  2.17137E+04 -5.97227E+03  2.28678E+04 -2.19544E+04  8.48277E+03 -2.44934E+04 -7.37336E+03
 -1.82519E+04 -1.68521E+04 -6.52712E+03 -1.77026E+04  3.36507E+03 -1.67486E+04  1.31032E+04 -1.57449E+04
  2.26374E+04 -1.12673E+04  2.81361E+04  1.87666E+03  2.19871E+04  1.81219E+04  3.43088E+03  3.25138E+04
 -1.60816E+04  2.83236E+04 -2.57850E+04  8.66092E+03 -1.92084E+04 -1.01358E+04 -3.85549E+03 -1.38733E+04
  3.09925E+03 -4.77259E+03 -2.61008E+03  5.93189E+03 -1.36689E+04  5.43883E+03 -1.37910E+04 -5.41944E+03
 -7.79994E+03 -1.57562E+04  4.95917E+03 -1.92917E+04  1.24389E+04 -1.37201E+04  1.41729E+04 -1.47745E+03
  8.41179E+03  1.06023E+04 -8.71947E+02  1.54923E+04 -9.90284E+03  8.84566E+03 -1.56085E+04 -2.46412E+03
 -1.25408E+04 -1.39493E+04 -1.54272E+03 -1.91526E+04  9.50335E+03 -1.60507E+04  1.64666E+04 -6.44239E+03
  1.48213E+04  1.09828E+03  1.09029E+04  3.34411E+03  5.33386E+03  7.24818E+02  7.56640E+03 -8.64631E+02
  1.41462E+04  1.74095E+03  1.52065E+04  1.24957E+04  1.02596E+04  2.46591E+04 -2.87751E+03  2.71241E+04
 -1.55862E+04  2.19386E+04 -2.50735E+04  1.09063E+04 -2.60686E+04 -1.17730E+03 -2.21146E+04 -1.42916E+04
 -1.02893E+04 -2.06353E+04  7.80132E+03 -1.91170E+04  1.75178E+04 -1.14733E+04  1.60493E+04  3.41477E+03
  6.93485E+03  1.14918E+04 -6.58460E+03  9.98309E+03 -1.20079E+04  3.05175E+03 -9.84203E+03 -7.50414E+03
  6.60969E+01 -1.37787E+04  6.80628E+03 -9.24374E+03  7.92813E+03 -2.34381E+03  1.97740E+03  5.60772E+03
 -5.77365E+03  9.26878E+02 -4.87329E+03 -4.73726E+03  3.03459E+02 -1.04165E+04  7.10530E+03 -9.87803E+03
  1.24390E+04 -6.28268E+03  1.26655E+04  3.24530E+03  9.85297E+03  1.05118E+04  5.15221E+03  1.37765E+04
 -2.37800E+03  1.55434E+04 -9.78732E+03  1.06860E+04 -1.09867E+04  2.97106E+03 -8.95419E+03 -2.07624E+03
 -4.93253E+03 -4.20550E+03 -1.72212E+03  1.48138E+03 -3.52478E+03  1.66843E+03 -3.24135E+03  3.09696E+03
 -8.59928E+03 -2.53298E+02 -8.82569E+03 -7.77868E+03 -4.27014E+03 -1.18954E+04  4.57024E+03 -8.10315E+03
  6.06984E+03 -2.56452E+03  5.92575E+03  1.75703E+03 -4.74342E+01  2.93974E+03 -3.39638E+03 -8.32875E+02
 -4.05760E+03 -6.29658E+03  1.91572E+02 -6.89970E+03  3.33093E+03 -7.83344E+03  1.05970E+04 -3.38246E+03
  1.11297E+04  1.49129E+03  8.64874E+03  6.46305E+03  1.28898E+03  9.20585E+03 -5.09030E+03  8.09915E+03
 -8.30013E+03  3.15267E+03 -3.08387E+03 -1.95645E+03  8.17345E+02 -2.24710E+03  4.69467E+03 -9.50596E+02
  4.16773E+03  3.93751E+03  7.38201E+02  7.18177E+03 -4.23770E+03  5.76925E+03 -8.11245E+03  1.59054E+03
 -5.03471E+03 -3.28356E+03  1.41671E+02 -6.27546E+03  2.61939E+03 -2.98301E+03  4.39426E+03  7.68110E+02
  3.06022E+02  3.88759E+03 -3.13715E+03  4.99378E+03 -6.03606E+03  2.43032E+03 -3.89436E+03 -1.48780E+03
 -3.04724E+03 -7.53362E+03  1.59693E+03 -7.09672E+03  5.99137E+03 -4.13158E+03  6.25420E+03  5.04997E+02
  4.36056E+03  4.29211E+03  6.75808E+02  6.87545E+03 -5.72585E+03  3.29426E+03 -4.95023E+03  3.26986E+01
 -5.56963E+03 -4.33358E+03 -2.07564E+03 -4.96902E+03  2.54614E+03 -4.50705E+03  2.88607E+03 -2.40731E+03
  3.10479E+03  2.10355E+02  2.32591E+02  9.56815E+02  1.88079E+03  2.62646E+02  7.20332E+02 -2.54473E+03
  3.72497E+03 -1.15906E+03  5.17272E+03  4.34062E+02  4.64856E+03  3.42038E+03  5.39786E+03  6.83520E+03
 -1.99325E+02  8.23422E+03 -8.70883E+03  6.83680E+03 -9.44341E+03  1.30212E+03 -7.94854E+03 -2.39737E+03
 -3.61460E+03 -6.19860E+03 -4.26703E+02 -5.69192E+03  2.61203E+03 -1.82626E+03  1.24338E+03 -2.37851E+03
  9.95687E+02 -2.23318E+03  2.32185E+03 -2.29574E+03  3.28110E+03 -1.89646E+03  2.68474E+03  1.40566E+03
  4.67775E+03  1.10612E+03  1.87170E+03  4.31610E+03 -1.23518E+03  2.91905E+03 -4.40251E+03  3.81641E+03
 -4.60797E+03 -9.71649E+02 -2.58028E+03 -2.62318E+03  3.06721E+02 -4.27700E+03  4.14532E+03 -5.77494E+03
  4.67351E+03 -3.64887E+03  7.26349E+03  1.70157E+02  3.95624E+03  3.73270E+03  1.03563E+03  4.60930E+03
 -1.97731E+03  5.17988E+03 -2.97477E+03  2.59525E+03 -2.84621E+03 -1.67385E+03  2.19823E+02 -5.00379E+02
 -7.87255E+02  7.30927E+01 -3.16217E+02  2.52651E+03 -1.55372E+03  1.06204E+03 -4.22856E+03 -7.78543E+02
 -1.11551E+03 -5.20166E+03  5.05985E+02 -3.47715E+03  2.04137E+03 -4.33217E+03  2.72058E+03 -1.62557E+03
  4.29575E+03  1.79790E+03  2.71566E+03  3.36267E+03 -2.64702E+02  4.88527E+03 -2.69170E+03  3.38630E+03
 -3.73061E+03  1.02394E+02 -2.60757E+03 -2.55565E+03  5.37396E+01 -2.82715E+03  1.79843E+03 -2.08684E+03
  2.35018E+03 -1.99673E+03  1.78009E+03 -6.65016E+01  1.69363E+03  1.42853E+03 -2.31033E+02  7.97436E+02
  1.51691E+03  3.90109E+02  1.48646E+03  7.72096E+02  8.84012E+02  2.93265E+03  1.16967E+03  1.55244E+03
 -1.47326E+03  2.53456E+03 -2.54176E+03  4.21576E+03 -3.00149E+03  2.16394E+03 -3.51792E+03 -2.64720E+02
 -2.94501E+02 -3.35982E+03  2.35208E+02 -4.74097E+03  1.82722E+03 -2.62046E+03  1.61258E+03 -1.42152E+03
  2.57431E+03  3.15052E+03 -4.92737E+01  2.16099E+03 -7.05555E+02  1.50213E+03 -1.58049E+03  3.17834E+02
 -2.16299E+02 -8.92263E+02  8.60865E+02 -1.65347E+03  1.80543E+03 -1.36017E+03  1.28711E+03  7.50044E+02
  2.43523E+02  2.11862E+02  2.70229E+02  3.44286E+02 -9.05645E+01  9.66721E+02  1.56340E+03 -4.04885E+02
  3.77480E+02  1.17186E+03  1.78142E+03  8.65352E+02  6.71860E+02  2.32342E+03 -1.03649E+02  3.03289E+03
 -1.86523E+03  1.41378E+03 -2.74961E+03 -3.19457E+02 -2.06810E+03 -8.36060E+02 -1.60532E+03 -9.50550E+02
  7.71695E+02 -7.33154E+02  1.43658E+03 -1.07275E+03  7.29052E+02  1.73298E+03 -3.64683E+02  5.05442E+02
 -1.29625E+03  1.35450E+03 -1.65764E+03 -9.40780E+02 -1.30580E+03 -1.41500E+03 -7.69164E+01 -1.37033E+03
  1.69417E+02 -1.09192E+02  1.38338E+03 -9.55100E+02  3.79896E+02  8.61562E+02 -9.51238E+01  5.34449E+02
  2.18769E+02 -9.42235E+02 -1.70393E+03  1.01060E+02  6.34927E+02 -1.23006E+03  7.75416E+02 -1.27919E+03
  7.09234E+02  7.48324E+02  2.59055E+03 -5.16663E+01  9.41435E+02  6.83327E+02 -6.56075E+02  9.39746E+02
 -1.44008E+03 -1.09590E+02 -8.01885E+02 -1.22474E+03 -4.38185E+02 -2.34936E+03  4.03152E+02 -6.19510E+02
  2.05659E+02 -2.48803E+02  8.30939E+02  5.26500E+02 -6.24665E+01  9.79580E+02  3.49059E+02  1.54268E+03
 -2.37907E+02  1.25698E+03 -8.22739E+02 -2.12228E+02 -1.27379E+02  2.69915E+02 -7.00185E+02  5.15880E+02
 -2.03172E+03  5.83388E+02 -1.90688E+03 -7.12650E+02 -5.86207E+02  6.86502E+02 -1.27528E+03 -1.26349E+02
 -9.64033E+02 -2.24679E+03 -1.24646E+03 -2.27663E+03  5.68454E+02 -1.66886E+03  2.32308E+03 -1.04720E+03
  1.79660E+03 -3.31715E+02  1.02387E+03  1.50093E+03 -1.37083E+03  1.10841E+03 -9.61987E+02  1.17254E+03
  1.91629E+02  1.12957E+03 -1.37584E+03  6.09489E+02 -9.11490E+02  6.98667E+02 -3.93973E+02  4.06810E+02
 -7.28631E+02 -1.55399E+02 -8.02144E+02  1.20714E+02  9.10471E+01 -1.93603E+02 -7.55016E+02 -2.84535E+02
  8.17511E+02 -1.25250E+03  2.85210E+02  4.74062E+02 -4.19452E+01  7.74903E+02 -1.19321E+02  1.01357E+03
 -1.48907E+03  1.86240E+03 -1.62027E+03  3.21286E+02 -1.52313E+03  5.53590E+02 -1.42163E+02 -8.32641E+02
 -1.15930E+03 -1.20467E+03 -2.94085E+02 -7.98428E+02  7.17129E+01 -5.24300E+02 -2.62521E+01  8.49144E+02
  7.56150E+02  4.00327E+02  3.25995E+02 -2.76212E+02 -6.17810E+02 -2.56813E+01  3.93907E+01 -5.70728E+02
  5.52468E+02  1.24236E+03 -3.90010E+02  3.12599E+02  1.61373E+02 -1.83152E+02  8.43002E+02  5.55640E+02
 -4.62519E+02  1.15268E+03 -8.67329E+02 -9.69204E+02 -3.87304E+02 -9.65864E+02 -4.32507E+02 -1.25587E+03
 -3.72148E+02 -8.67270E+02 -5.69417E+02  2.30661E+02  3.64435E+02 -7.74442E+02  1.86540E+03  4.98764E+02
  7.18783E+02 -5.27231E+02  4.60647E+02 -2.91191E+02  5.46499E+02  3.91500E+02 -2.27337E+02  9.30843E+02
 -4.12978E+02  1.05640E+02 -4.87719E+02  3.84204E+02 -8.54985E+02  4.13379E+02 -1.67037E+02  9.62414E+02
 -4.51987E+02 -3.60149E+02  4.00251E+02 -8.86683E+02  1.08919E+03 -2.12202E+03 -1.63155E+02 -1.71335E+02
  5.11796E+02  7.53181E+02  7.57350E+02 -4.86910E+02 -1.67542E+02 -2.64837E+01 -2.10796E+02 -6.34014E+02
