 $NMID ID='MM_0lb_SNR200_20hz_g40_74.RAW', FMTDAT='(8E13.5)'
 TRAMP=1., VOLUME=1. $END
  3.09186E+05  7.89307E+02  3.37670E+05  2.50237E+05  8.43573E+04  3.36498E+05 -1.32778E+05  2.50568E+05
 -1.89751E+05  8.07469E+04 -1.09677E+05 -3.24429E+04  4.43295E+02 -4.99601E+04  5.41919E+04  1.34679E+03
  3.45872E+04  5.31112E+04 -1.56692E+04  7.52077E+04 -6.06109E+04  6.13585E+04 -8.23182E+04  3.19812E+04
 -7.98179E+04 -1.15834E+04 -5.55826E+04 -5.00733E+04 -1.47649E+04 -6.73136E+04  2.54231E+04 -4.35644E+04
  3.79780E+04  3.36084E+03  1.46664E+04  4.75979E+04 -3.29981E+04  4.63545E+04 -6.48318E+04 -1.06655E+03
 -5.23269E+04 -5.47572E+04 -6.36744E+03 -7.35728E+04  3.28724E+04 -5.18556E+04  4.55487E+04 -1.54757E+04
  4.06375E+04  1.10766E+04  3.00922E+04  2.46338E+04  1.75375E+04  2.79716E+04 -4.62128E+03  2.71163E+04
 -2.14031E+04  1.34051E+04 -1.89349E+04 -3.52410E+03  2.85946E+03 -7.40713E+03  2.12227E+04  1.06490E+04
  9.11604E+03  3.17779E+04 -2.85678E+04  3.33064E+04 -5.90535E+04  9.82311E+02 -5.57470E+04 -4.01063E+04
 -1.26336E+04 -6.01741E+04  3.73198E+04 -4.29775E+04  5.27817E+04 -2.77662E+03  3.09559E+04  2.84722E+04
 -8.10659E+03  3.13149E+04 -2.72873E+04  1.16526E+04 -2.53816E+04 -6.17637E+03 -1.20236E+04 -8.89152E+03
 -6.44231E+03 -1.06896E+04  1.19088E+02 -1.64522E+04  6.75098E+03 -2.28152E+04  1.54131E+04 -1.48173E+04
  1.28603E+04  3.46979E+03 -5.68122E+03  1.30152E+04 -1.75153E+04 -1.43661E+03 -7.53962E+03 -2.88522E+04
  1.91029E+04 -4.00257E+04  4.29748E+04 -1.91327E+04  4.12013E+04  1.70860E+04  1.29383E+04  4.02600E+04
 -1.52046E+04  3.06529E+04 -2.27245E+04  4.70311E+02 -7.23457E+03 -2.64165E+04  2.08161E+04 -2.95013E+04
  3.63589E+04 -6.23835E+03  2.84394E+04  2.24753E+04  1.41086E+04  4.16713E+04 -7.51348E+03  4.25800E+04
 -2.70828E+04  2.78979E+04 -3.59625E+04  7.50810E+03 -3.75330E+04 -1.42225E+04 -2.03083E+04 -3.22860E+04
  7.05069E+03 -3.30274E+04  2.85076E+04 -1.17669E+04  2.69247E+04  1.10993E+04  1.69248E+03  1.71059E+04
 -1.25525E+04  5.63826E+03 -9.98322E+03 -7.89147E+03  5.30616E+03 -1.01895E+04  1.75000E+04  6.88578E+03
  1.23270E+04  1.98347E+04 -6.78436E+03  2.39103E+04 -2.19404E+04  8.42723E+03 -2.38790E+04 -6.66465E+03
 -1.50252E+04 -1.65396E+04 -4.54725E+03 -1.44935E+04  3.09468E+03 -1.24390E+04  1.06873E+04 -1.21390E+04
  1.93158E+04 -1.16256E+04  2.68340E+04  7.21701E+02  2.00441E+04  1.44696E+04  2.96486E+03  3.12544E+04
 -1.47558E+04  2.49466E+04 -2.47831E+04  9.20518E+03 -1.93082E+04 -1.02693E+04 -4.48434E+03 -1.45014E+04
  2.48981E+03 -4.80004E+03 -3.42638E+03  4.99629E+03 -1.14798E+04  5.95885E+03 -1.30745E+04 -3.04912E+03
 -7.82393E+03 -1.42171E+04  4.60165E+03 -1.69894E+04  1.10392E+04 -1.27805E+04  1.25807E+04 -8.97886E+02
  7.61935E+03  1.05387E+04 -8.38137E+02  1.47348E+04 -1.01248E+04  7.96774E+03 -1.44500E+04 -3.22814E+03
 -1.15187E+04 -1.37544E+04 -3.87179E+02 -1.74710E+04  7.81420E+03 -1.37690E+04  1.44548E+04 -6.52908E+03
  1.25093E+04  1.46516E+03  9.05711E+03  3.62480E+03  3.81327E+03 -6.94009E+02  6.10053E+03 -1.24388E+03
  1.23370E+04  2.54025E+03  1.29831E+04  1.19627E+04  6.27843E+03  2.33163E+04 -4.51923E+03  2.35276E+04
 -1.38014E+04  1.78969E+04 -2.14686E+04  8.25712E+03 -2.03400E+04 -9.61171E+02 -1.90065E+04 -1.27345E+04
 -9.04307E+03 -1.72845E+04  6.53612E+03 -1.74288E+04  1.50816E+04 -9.22430E+03  1.41439E+04  3.37946E+03
  5.52340E+03  1.06056E+04 -6.63584E+03  9.81339E+03 -1.29277E+04  2.79950E+03 -1.06369E+04 -8.18980E+03
  1.17766E+03 -1.14145E+04  5.13682E+03 -9.96487E+03  6.11372E+03 -3.06190E+03  1.16717E+03  4.11458E+03
 -4.68226E+03  5.31318E+02 -3.01456E+03 -5.34582E+03 -2.89078E+02 -1.00545E+04  7.34776E+03 -7.92856E+03
  1.01339E+04 -4.27611E+03  1.00360E+04  2.33971E+03  8.39245E+03  8.24752E+03  4.17225E+03  1.24471E+04
 -7.10826E+02  1.42878E+04 -7.09760E+03  8.37537E+03 -8.50701E+03  3.17941E+03 -7.70166E+03 -6.18672E+02
 -3.73182E+03 -2.81707E+03 -4.69674E+02  9.36575E+02 -3.18650E+03  1.83902E+03 -2.68973E+03  4.04218E+03
 -7.21700E+03 -9.66670E+02 -7.78522E+03 -6.88854E+03 -2.84018E+03 -9.06588E+03  2.47871E+03 -7.21075E+03
  5.44734E+03 -4.28940E+03  4.36184E+03  1.80230E+03  3.27283E+02  3.20510E+03 -2.78374E+03  1.24915E+02
 -2.16518E+03 -3.77132E+03 -1.44797E+03 -5.66829E+03  2.70181E+03 -6.45782E+03  7.78673E+03 -3.85778E+03
  1.14565E+04  6.05668E+02  8.33213E+03  4.35715E+03  1.02674E+03  6.40721E+03 -4.62260E+03  8.23895E+03
 -6.95146E+03  2.81643E+03 -2.55751E+03 -1.22628E+03  1.30450E+03 -1.11787E+03  4.88191E+03 -4.41548E+02
  3.84498E+03  2.17587E+03  3.46689E+02  5.34766E+03 -4.14093E+03  6.06204E+03 -7.37768E+03  1.70972E+03
 -4.91096E+03 -2.77408E+03  3.46963E+02 -4.87897E+03  2.59856E+03 -2.54000E+03  2.97445E+03 -2.56939E+02
  7.20645E+02  1.21191E+03 -3.46033E+03  3.95390E+03 -2.80153E+03  2.80857E+03 -3.07820E+03 -8.25470E+02
 -2.95852E+03 -4.97841E+03  4.59920E+02 -5.30319E+03  4.65139E+03 -3.65033E+03  4.35472E+03  4.84446E+02
  4.50810E+03  4.66002E+03 -4.34329E+01  6.11104E+03 -4.80369E+03  3.25912E+03 -4.61579E+03  2.66980E+02
 -6.09758E+03 -4.61938E+03 -1.12921E+03 -3.59198E+03  3.09287E+03 -4.26380E+03  2.88403E+03 -2.83290E+03
  3.69224E+03 -4.44762E+02  5.95821E+02  7.41609E+02  3.81434E+02  6.25666E+01  3.73273E+02 -1.24596E+03
  2.38031E+03  1.02694E+03  4.34591E+03  6.72806E+01  5.48580E+03  2.39215E+03  4.77303E+03  5.30046E+03
 -9.68823E+02  6.38731E+03 -6.75203E+03  5.33362E+03 -7.54736E+03  1.13292E+03 -5.98057E+03 -2.80785E+03
 -2.93795E+03 -4.83009E+03  4.08102E+02 -4.64936E+03  1.71788E+03 -9.30829E+02  1.63450E+03 -2.22325E+03
  1.05578E+03 -1.73665E+03  1.33886E+03 -2.48499E+03  3.08083E+03 -1.83249E+03  2.44455E+03  9.31305E+02
  4.11298E+03  1.18650E+03  1.09707E+03  2.23582E+03 -1.98604E+03  1.66852E+03 -2.72960E+03  2.00143E+03
 -3.87075E+03 -2.01249E+03 -1.45686E+03 -2.06660E+03  1.09666E+03 -4.38179E+03  3.15685E+03 -4.26568E+03
  4.05489E+03 -1.91804E+03  5.59854E+03  3.05953E+02  4.37033E+03  3.14030E+03 -8.55325E+01  4.73210E+03
 -2.70174E+03  5.14428E+03 -2.99492E+03  1.44613E+03 -4.95100E+02 -4.08639E+02 -1.30887E+03  2.46905E+01
 -1.54544E+03  6.80518E+02 -1.30645E+03  1.12115E+03 -2.45585E+03  1.51509E+03 -3.53904E+03 -7.11891E+02
 -8.98742E+02 -3.30593E+03  9.39753E+02 -3.93549E+03  2.40147E+03 -3.22781E+03  2.49339E+03 -1.10648E+03
  2.41583E+03  2.05490E+03  1.20052E+03  2.38084E+03 -9.08637E+02  5.30879E+03 -3.06193E+03  1.79494E+03
 -2.58196E+03  7.98726E+02 -2.20886E+03 -2.03357E+03 -1.06662E+02 -2.26281E+03  6.13780E+02 -7.29925E+02
  2.79526E+03 -1.13678E+03  1.34739E+03  5.56758E+01 -7.13720E+01  1.76848E+03  4.15028E+02  2.33289E+02
  1.58317E+03  1.65058E+02  2.11319E+03  8.00090E+02  1.20828E+03  2.39975E+03  1.11456E+03  1.39555E+03
 -7.44693E+02  3.18157E+03 -1.42453E+03  3.38452E+03 -2.98910E+03  1.99729E+03 -3.56497E+03  3.76208E+02
 -1.36203E+03 -2.61937E+03  6.96012E+02 -4.11246E+03  1.85611E+03 -1.94590E+03  2.21078E+03 -5.45104E+02
  1.98142E+03  1.64981E+03  3.90289E+02  6.34624E+02  8.21897E+02  1.32692E+03 -5.81880E+02  1.41964E+02
 -6.30771E+02 -6.61137E+02  1.74918E+03  7.16164E+01  6.49496E+02 -1.38399E+03  1.18122E+03  5.95981E+02
  4.54576E+02 -1.10196E+03  2.52150E+02  1.98951E+02 -5.17145E+02  6.57019E+02  1.97352E+03 -2.19398E+02
  3.11465E+02  7.19224E+02  1.95961E+03 -4.10620E+02  5.12864E+02  1.81025E+03 -1.00139E+03  1.59535E+03
 -1.52322E+03  1.03061E+03 -1.37591E+03  3.63969E+02 -1.59259E+03 -9.86312E+02 -4.15512E+02 -2.04704E+02
  1.05376E+03 -1.40687E+03  6.78788E+02 -3.64867E+02  6.28060E+02  1.98632E+03 -6.92768E+02  5.39629E+02
 -6.67800E+02  1.39661E+03 -1.73408E+03 -1.56017E+03 -2.74927E+02 -2.03363E+03  2.88572E+02 -1.28807E+03
  6.64241E+02 -2.77374E+02 -8.85577E+01  1.01615E+03  1.02176E+03  4.82356E+02  6.62654E+02  8.38225E+02
 -7.49719E+02  3.40626E+02 -7.47432E+02 -4.91197E+02 -6.03730E+02 -4.47790E+02  9.48285E+02 -9.76326E+02
  1.72874E+01  3.54990E+01  1.95961E+03 -2.86729E+02  9.80673E+02  1.32408E+03 -3.55893E+02  2.06911E+03
 -5.07604E+02  2.97605E+02 -6.56478E+02  1.32667E+02 -4.40594E+02 -9.77626E+02 -3.11069E+02 -5.63733E+02
  1.28956E+03 -7.60104E+01  7.36330E+02 -2.48531E+02  2.73076E+02  1.33997E+03 -5.00131E+02  4.44737E+02
 -1.33445E+03  4.73911E+02 -2.32012E+02 -3.23707E+02 -3.50659E-01  8.77823E+02 -6.48252E+02  9.76025E+02
  6.89646E+01  7.75641E+02 -3.00298E+03  8.98038E+02 -9.66596E+02  2.72549E+02 -1.11679E+03 -1.09291E+03
 -1.58214E+03 -2.08787E+03  8.49732E+02 -2.16159E+03  8.14649E+02 -2.98361E+03  2.13114E+03  2.39381E+02
  1.01992E+03 -8.78075E+02 -6.08646E+01  9.77110E+02 -9.08528E+02  9.77586E+02 -9.85538E+02  1.72781E+03
 -1.47130E+03  7.90682E+02 -1.26141E+02 -9.74085E+01 -5.98351E+01  3.30467E+02 -5.45470E+02 -2.24919E+02
 -3.63551E+02  2.09113E+02  2.22275E+02 -4.87753E+02  2.58134E+02  6.13324E+02 -4.43176E+02 -1.59330E+03
  1.29715E+03 -9.59471E+02 -3.56681E+02  2.99832E+01  1.17927E+03  1.77927E+03 -1.37227E+03 -3.75305E+02
 -2.00622E+02  2.23970E+03 -1.36562E+03  1.51154E+03 -1.32380E+03  2.83465E+02 -1.17225E+03 -1.01806E+03
 -5.36398E+02 -6.69521E+02  9.38225E+01 -1.07997E+03  1.29566E+02 -2.45538E+02  1.07767E+02  2.32971E+02
 -1.03404E+02  3.72863E+02  3.20686E+02 -1.20116E+02  6.95769E+02 -6.73424E+02  3.80699E+02  1.01171E+02
  9.12283E+02  7.22653E+02 -1.12328E+02  7.88636E+02  1.75914E+02  8.54183E+02  4.50918E+02 -6.39875E+02
 -3.34222E+02 -5.61793E+01  1.77672E+02  1.95623E+02 -7.99208E+02  9.36139E+00 -4.63011E+02 -6.79352E+02
  8.30046E+02  2.95826E+02 -5.07161E+02  1.12786E+03  2.62113E+02 -3.38860E+02 -1.05994E+01  2.08689E+02
  2.53260E+02 -4.55952E+01  5.06324E+02 -4.97099E+01  5.01013E+02  3.00674E+02 -8.21168E+02 -1.64189E+00
 -1.33372E+02  1.24756E+02  4.63709E+02 -5.02549E+02 -2.72460E+02  1.06959E+02 -2.50094E+02 -5.26485E+02
 -8.54401E+02  2.01104E+02 -2.00456E+02  4.89177E+01 -3.27128E+01 -9.01750E+02  1.81283E+02  1.77762E+02
  1.60321E+03 -1.30865E+01  5.02082E+02 -2.45622E+01  5.33481E+02  5.17030E+02  4.07010E+02  4.68539E+02
