 $NMID ID='MM_0lb_SNR200_13hz_g60_35.RAW', FMTDAT='(8E13.5)'
 TRAMP=1., VOLUME=1. $END
  3.10508E+05 -1.54990E+02  3.37943E+05  2.51386E+05  8.46896E+04  3.37624E+05 -1.33181E+05  2.51941E+05
 -1.90402E+05  8.28728E+04 -1.12164E+05 -3.16642E+04  2.65768E+03 -4.97380E+04  5.38881E+04  4.39470E+02
  3.58987E+04  5.26919E+04 -1.55427E+04  7.57382E+04 -6.08897E+04  6.47868E+04 -8.55211E+04  3.15739E+04
 -8.16013E+04 -1.07056E+04 -5.94188E+04 -5.16330E+04 -1.59055E+04 -7.09623E+04  2.74709E+04 -4.63502E+04
  4.12735E+04  4.10288E+03  1.70569E+04  4.82170E+04 -3.47766E+04  4.79095E+04 -6.62183E+04  1.57125E+02
 -5.42350E+04 -5.83009E+04 -6.33937E+03 -7.74873E+04  3.60862E+04 -5.62168E+04  4.81436E+04 -1.82086E+04
  4.46802E+04  1.19172E+04  3.27990E+04  2.70486E+04  1.58900E+04  3.12893E+04 -5.92429E+03  2.70933E+04
 -2.30785E+04  1.15414E+04 -1.84374E+04 -5.46315E+03  6.71610E+03 -7.20655E+03  2.33160E+04  1.29828E+04
  6.17449E+03  3.70674E+04 -3.29006E+04  3.56817E+04 -6.47531E+04  2.07766E+03 -5.65950E+04 -4.45241E+04
 -1.22298E+04 -6.56915E+04  4.19881E+04 -4.62181E+04  5.93257E+04 -2.96337E+03  3.47444E+04  3.48861E+04
 -5.63446E+03  3.91132E+04 -3.14941E+04  1.72724E+04 -3.13193E+04 -3.16849E+03 -1.79312E+04 -1.12473E+04
 -9.65756E+03 -1.43531E+04 -4.32687E+02 -1.79591E+04  9.07909E+03 -2.30786E+04  1.64389E+04 -1.28625E+04
  1.09935E+04  6.29539E+03 -1.03258E+04  1.28698E+04 -2.13428E+04 -4.97950E+03 -8.54007E+03 -3.57700E+04
  2.45503E+04 -4.42229E+04  5.06915E+04 -2.05101E+04  4.67462E+04  1.89102E+04  1.72837E+04  4.53133E+04
 -1.51721E+04  3.47445E+04 -2.64953E+04  1.97473E+03 -1.05691E+04 -2.86750E+04  2.16030E+04 -3.64123E+04
  4.32661E+04 -1.03301E+04  3.82050E+04  2.42315E+04  2.03588E+04  4.84999E+04 -8.50308E+03  5.36062E+04
 -3.23305E+04  3.57432E+04 -4.56762E+04  9.35018E+03 -4.54024E+04 -1.60565E+04 -2.59247E+04 -4.04929E+04
  6.75922E+03 -3.99279E+04  3.30539E+04 -1.55297E+04  2.97216E+04  1.08476E+04  5.08871E+03  2.11330E+04
 -1.42530E+04  8.20703E+03 -1.08570E+04 -6.30655E+03  4.88382E+03 -1.08708E+04  1.89713E+04  5.23622E+03
  1.47430E+04  2.28318E+04 -6.63762E+03  2.65465E+04 -2.21897E+04  1.29669E+04 -2.91802E+04 -2.84120E+03
 -2.27369E+04 -1.78461E+04 -1.06990E+04 -2.26000E+04  3.08924E+03 -2.14721E+04  1.52919E+04 -2.02662E+04
  2.69431E+04 -1.20143E+04  3.56100E+04  3.84979E+03  2.55152E+04  2.08655E+04  3.63197E+03  3.82008E+04
 -1.92899E+04  3.20785E+04 -2.90515E+04  1.13362E+04 -2.14164E+04 -1.03663E+04 -4.34970E+03 -1.17582E+04
  6.48891E+02 -2.34974E+03 -6.89043E+03  8.34868E+03 -1.86230E+04  4.53839E+03 -1.74405E+04 -7.96651E+03
 -1.20660E+04 -2.23806E+04  5.85435E+03 -2.47142E+04  1.62217E+04 -1.75705E+04  2.03605E+04 -1.32225E+03
  1.16180E+04  1.49284E+04 -1.05272E+03  2.00724E+04 -1.53912E+04  1.16119E+04 -2.33716E+04 -4.33987E+03
 -1.55714E+04 -1.91000E+04 -2.78350E+03 -2.57692E+04  8.85996E+03 -2.03796E+04  2.07058E+04 -1.11849E+04
  1.81518E+04  3.43107E+02  1.31727E+04  5.09078E+03  8.94512E+03  1.30819E+03  9.49799E+03 -1.19646E+03
  2.00398E+04  2.00258E+03  2.29246E+04  1.66210E+04  1.54734E+04  3.36843E+04 -3.03364E+03  3.95225E+04
 -2.22656E+04  3.20128E+04 -3.66488E+04  1.44193E+04 -3.78734E+04 -2.19349E+03 -3.14166E+04 -2.16930E+04
 -1.19827E+04 -3.21783E+04  1.08667E+04 -2.92668E+04  2.36873E+04 -1.40957E+04  2.09689E+04  7.26308E+03
  8.36976E+03  1.51878E+04 -9.54925E+03  1.32342E+04 -1.86196E+04  2.53164E+03 -1.33073E+04 -1.13801E+04
 -4.77754E+02 -1.70191E+04  8.71431E+03 -1.27949E+04  1.05338E+04 -1.19683E+03  3.92717E+03  6.56363E+03
 -6.95127E+03  1.76158E+03 -7.00523E+03 -5.92402E+03 -2.15301E+03 -1.57782E+04  1.14110E+04 -1.59892E+04
  1.85258E+04 -8.70152E+03  2.21414E+04  3.48910E+03  1.74824E+04  1.49801E+04  8.53452E+03  2.38146E+04
 -5.00696E+03  2.69542E+04 -1.79114E+04  1.71727E+04 -1.87076E+04  3.12552E+03 -1.34789E+04 -3.52470E+03
 -5.03772E+03 -6.99972E+03 -3.97437E+02  8.42547E+02 -2.51896E+03  1.66272E+03 -7.09280E+03  4.64296E+03
 -1.25165E+04 -9.06077E+02 -1.17703E+04 -9.86818E+03 -6.87289E+03 -1.59082E+04  5.51192E+03 -1.41221E+04
  1.07631E+04 -6.04623E+03  7.72861E+03  3.71799E+03  2.41770E+01  5.21800E+03 -6.67951E+03  6.01958E+02
 -5.44300E+03 -7.85676E+03 -7.19947E+02 -1.11426E+04  6.38887E+03 -1.49843E+04  1.74639E+04 -7.93912E+03
  2.01587E+04  2.16707E+03  1.36308E+04  1.13651E+04  3.68135E+03  1.55403E+04 -8.15465E+03  1.33978E+04
 -1.08630E+04  3.52257E+03 -5.97779E+03 -1.82718E+03  2.46796E+03 -3.93962E+03  6.81197E+03 -2.44890E+03
  5.13812E+03  6.07410E+03  1.72058E+03  1.10820E+04 -7.72654E+03  1.07666E+04 -1.26622E+04  2.65061E+03
 -8.48087E+03 -7.14406E+03  1.50916E+02 -1.21639E+04  7.51455E+03 -5.04868E+03  7.63989E+03  2.79160E+03
  1.11380E+03  5.97528E+03 -5.83690E+03  7.31171E+03 -1.09547E+04  4.51501E+03 -1.02008E+04 -4.00365E+03
 -6.36165E+03 -1.18680E+04  1.90662E+03 -1.32840E+04  1.14498E+04 -6.84966E+03  1.25969E+04  2.06628E+03
  8.57782E+03  1.01415E+04 -6.53071E+02  1.23280E+04 -8.60544E+03  7.51754E+03 -8.90746E+03 -1.45448E+03
 -9.09139E+03 -9.28061E+03 -2.05756E+03 -9.64155E+03  4.32008E+03 -8.52495E+03  5.73780E+03 -3.59663E+03
  4.88619E+03  1.04518E+03  8.77416E+02  2.12133E+03  8.46454E+02 -3.07098E+03  9.14036E+02 -3.90282E+03
  8.60540E+03 -3.95464E+03  1.04946E+04  1.19215E+03  1.14341E+04  7.56186E+03  7.38630E+03  1.60238E+04
 -4.12001E+03  1.79715E+04 -1.51400E+04  1.32705E+04 -1.95949E+04  4.08826E+03 -1.47410E+04 -5.78105E+03
 -7.76191E+03 -1.21325E+04 -2.13640E+02 -9.90344E+03  3.85512E+03 -5.30923E+03  3.91770E+03 -5.55837E+03
  1.91418E+03 -2.13289E+03  3.42163E+03 -2.41260E+03  3.53910E+03 -3.51899E+03  7.43403E+03 -1.12299E+03
  7.65754E+03  3.23425E+03  3.77834E+03  6.63448E+03 -1.40639E+03  7.13876E+03 -9.52793E+03  5.84655E+03
 -1.05798E+04 -1.27770E+03 -7.43707E+03 -6.25365E+03 -9.30099E+02 -1.08866E+04  7.16246E+03 -1.17211E+04
  1.25024E+04 -6.11899E+03  1.32141E+04  2.70644E+03  1.05868E+04  9.33551E+03  2.56785E+03  1.27207E+04
 -4.14940E+03  1.04710E+04 -7.93717E+03  1.79929E+03 -5.66369E+03 -1.41533E+03 -2.72247E+03 -1.77140E+03
 -1.46830E+03  4.01157E+02 -2.72036E+03  2.76020E+03 -4.08373E+03  1.26256E+03 -6.71691E+03 -1.65227E+03
 -4.21362E+03 -6.66484E+03  2.98871E+02 -9.60854E+03  6.71187E+03 -8.97315E+03  8.88936E+03 -3.78164E+03
  9.62176E+03  5.79894E+03  5.47904E+03  9.01159E+03 -1.76171E+03  9.00905E+03 -6.99388E+03  5.31610E+03
 -7.53150E+03  9.90891E+02 -6.89198E+03 -6.99899E+03 -3.52478E+02 -7.58269E+03  3.05331E+03 -5.98247E+03
  7.18227E+03 -1.72028E+03  4.11084E+03  3.52682E+02  2.15433E+03  3.35562E+03  1.39122E+02  1.38318E+02
  1.88728E+03  4.21076E+02  2.52167E+03  3.60886E+03  1.80305E+03  4.77242E+03  3.08731E+03  4.76930E+03
 -2.61490E+03  6.91974E+03 -7.27778E+03  8.70472E+03 -7.77607E+03  2.45819E+03 -9.00308E+03 -4.06578E+03
 -4.53096E+03 -9.87097E+03  9.81379E+02 -1.07981E+04  5.31197E+03 -7.22864E+03  9.18213E+03 -1.87537E+03
  5.50820E+03  4.16555E+03  1.99326E+02  5.90359E+03 -2.28616E+03  2.46688E+03 -4.02886E+03 -1.24973E+03
 -1.09158E+03 -5.16464E+03  3.82533E+03 -4.60556E+03  4.52164E+03 -1.41697E+03  2.99741E+03  1.36632E+03
  1.32576E+03  2.12316E+03 -1.94066E+00  1.96423E+03 -6.98605E+02  1.19341E+03  2.30596E+03  6.74193E+01
  1.94725E+03 -4.40360E+02  4.03782E+03  2.32159E+03  2.48866E+03  4.54971E+03  1.21923E+02  5.24880E+03
 -4.64025E+03  5.81442E+03 -6.98210E+03  2.78561E+02 -5.13422E+03 -1.85588E+03 -2.06659E+03 -3.35728E+03
 -8.58454E+02 -2.75373E+03  1.41640E+03 -2.57081E+03  9.90875E+02  2.17422E+03 -1.39880E+03  3.05820E+03
 -4.00094E+03  3.86886E+03 -4.44075E+03 -2.97542E+03 -3.38652E+03 -4.96680E+03  2.61130E+02 -4.76939E+03
  1.63206E+03 -2.63405E+03  2.93813E+03 -1.05257E+03  3.18481E+03  1.14569E+03  1.15701E+03  3.01577E+03
 -2.34913E+03  5.15922E+02 -8.39153E+02 -1.54909E+03  1.70910E+03 -3.61834E+03  3.82309E+03 -2.82011E+03
  4.26185E+03  1.57662E+03  5.29015E+03  2.28456E+03  2.30571E+03  6.16388E+03 -3.14190E+03  5.09145E+03
 -3.48080E+03  2.42687E+03 -3.96380E+03 -2.08098E+03 -2.12594E+03 -4.61620E+03  1.37007E+03 -3.43934E+03
  6.06377E+03 -1.80317E+03  1.95383E+03  2.14921E+03  1.63465E+03  4.37806E+03 -1.48540E+02  3.83708E+03
 -7.48844E+02  2.25723E+03 -4.35616E+02 -2.20503E+02 -1.09677E+02  1.53935E+03 -9.59813E+02  1.49341E+03
 -1.86686E+03  1.68941E+03 -3.58444E+03  2.86913E+03 -5.68512E+03  1.43190E+02 -7.37510E+03 -3.45393E+03
 -2.54319E+03 -7.58651E+03  1.79881E+03 -9.40929E+03  4.95069E+03 -8.53334E+03  8.00086E+03 -3.12329E+03
  7.38334E+03  1.13325E+03  4.76679E+03  4.01491E+03  5.13163E+01  4.72309E+03 -5.58882E+02  4.07153E+03
 -2.92033E+03  5.85805E+02 -1.65236E+03 -4.39723E+02 -6.50702E+02 -3.52783E+02  1.04642E+03  2.15489E+02
 -1.07611E+02 -4.75643E+02 -1.39966E+03 -3.27521E+00 -2.51261E+02 -1.18300E+03  2.12666E+02 -1.77138E+03
  2.75229E+03 -5.92581E+02  1.47248E+03 -2.63937E+02  4.13589E+03  4.31494E+03 -2.31170E+02  5.54184E+03
 -1.93630E+03  5.06238E+03 -4.94730E+03  3.87242E+03 -5.51807E+03 -3.50393E+02 -4.07677E+03 -4.54907E+03
 -2.96886E+03 -5.05465E+03  2.33690E+03 -4.48262E+03  4.26886E+03 -1.22563E+03  2.05193E+03  1.59536E+02
  1.96644E+03 -1.22116E+02  4.30513E-01  1.16755E+03  5.27248E+02 -3.31285E+02  6.75376E+02 -6.57279E+02
  1.28293E+03 -1.22423E+02  2.02862E+03  2.60550E+02  1.05776E+03  1.74683E+03  1.82490E+03  2.93879E+03
 -2.04671E+03  2.93512E+03 -3.71563E+03  4.77384E+02 -2.39023E+03 -1.85772E+03  2.12063E+02 -3.90424E+03
  1.33756E+03 -2.49320E+03  4.12202E+03 -7.27818E+02  2.65533E+03  2.63195E+02  2.04732E+03  3.64405E+03
  5.30665E+02  2.69365E+03 -8.40970E+02  1.81295E+03 -3.04786E+03  1.53631E+03 -1.50192E+03 -6.44625E+00
  2.27220E+02  1.26030E+02 -1.89881E+03 -4.52532E+01 -1.97544E+03 -5.18365E+02 -2.12688E+03 -1.75324E+03
 -3.15115E+03 -1.36108E+03 -1.85300E+03 -2.65185E+03  1.45444E+03 -3.59412E+03  2.36587E+03 -1.49782E+03
  3.35957E+03  6.18472E+02  1.84832E+03  1.97732E+03 -7.34334E+02  2.30687E+03 -4.29990E+03  3.37482E+03
