 $NMID ID='MM_0lb_SNR200_11hz_g45_70.RAW', FMTDAT='(8E13.5)'
 TRAMP=1., VOLUME=1. $END
  3.09912E+05  1.78523E+02  3.37474E+05  2.50390E+05  8.42771E+04  3.39056E+05 -1.32601E+05  2.51245E+05
 -1.89076E+05  8.32742E+04 -1.12318E+05 -3.22934E+04  4.60406E+02 -5.13388E+04  5.23570E+04 -3.30814E+02
  3.50705E+04  5.24564E+04 -1.66308E+04  7.67817E+04 -6.01740E+04  6.43805E+04 -8.45506E+04  3.16625E+04
 -8.21382E+04 -1.19124E+04 -5.76534E+04 -5.32485E+04 -1.53819E+04 -7.06445E+04  2.72966E+04 -4.72159E+04
  4.01822E+04  3.41382E+03  1.64203E+04  4.75355E+04 -3.55226E+04  4.83740E+04 -6.78484E+04 -1.59131E+02
 -5.48368E+04 -5.61578E+04 -6.07936E+03 -7.75349E+04  3.45018E+04 -5.60027E+04  4.92614E+04 -1.79156E+04
  4.41263E+04  1.04784E+04  3.02171E+04  2.72111E+04  1.44066E+04  2.94252E+04 -4.88726E+03  2.78342E+04
 -2.23274E+04  1.25961E+04 -1.53282E+04 -6.08351E+03  5.73974E+03 -8.28622E+03  2.26395E+04  1.26532E+04
  7.02095E+03  3.75483E+04 -3.41645E+04  3.49490E+04 -6.51410E+04  2.63547E+03 -5.82358E+04 -4.43976E+04
 -1.36357E+04 -6.32741E+04  4.06012E+04 -4.70387E+04  5.97711E+04 -1.85090E+03  3.41531E+04  3.31534E+04
 -6.10039E+03  3.84389E+04 -3.04540E+04  1.77315E+04 -3.18375E+04 -3.30728E+03 -1.88293E+04 -1.16744E+04
 -9.13121E+03 -1.32686E+04 -1.17283E+03 -1.88753E+04  7.76474E+03 -2.36264E+04  1.53325E+04 -1.21170E+04
  1.24831E+04  6.31480E+03 -9.14059E+03  1.17508E+04 -2.40953E+04 -7.15626E+03 -8.88049E+03 -3.48557E+04
  2.47164E+04 -4.54164E+04  5.05317E+04 -2.09185E+04  4.74301E+04  2.03299E+04  1.69649E+04  4.41870E+04
 -1.72270E+04  3.42152E+04 -2.62171E+04  1.66319E+03 -1.13010E+04 -2.72649E+04  2.18759E+04 -3.41368E+04
  4.31287E+04 -9.41262E+03  3.76755E+04  2.41918E+04  1.84841E+04  4.83602E+04 -8.20760E+03  5.35281E+04
 -3.35314E+04  3.65912E+04 -4.54811E+04  9.40359E+03 -4.51879E+04 -1.74180E+04 -2.42990E+04 -3.94627E+04
  6.92048E+03 -4.04338E+04  3.34239E+04 -1.68790E+04  3.14176E+04  1.16634E+04  6.73843E+03  2.03020E+04
 -1.32186E+04  1.02334E+04 -1.06753E+04 -8.15299E+03  6.58031E+03 -1.16745E+04  1.70243E+04  5.15852E+03
  1.47249E+04  2.22187E+04 -5.33112E+03  2.54158E+04 -2.27132E+04  1.29438E+04 -3.19558E+04 -4.19810E+03
 -2.31207E+04 -1.79908E+04 -9.56445E+03 -2.29005E+04  4.69999E+03 -2.36695E+04  1.82241E+04 -2.07490E+04
  2.92093E+04 -1.41348E+04  3.50958E+04  3.34333E+03  2.60903E+04  2.27014E+04  4.80004E+03  3.92369E+04
 -1.74244E+04  3.20935E+04 -2.93393E+04  1.21969E+04 -2.17390E+04 -9.61663E+03 -5.17121E+03 -1.28240E+04
  1.99690E+03 -3.09257E+03 -6.54913E+03  8.13349E+03 -1.85326E+04  5.36322E+03 -1.75650E+04 -6.75652E+03
 -1.23094E+04 -2.02814E+04  5.14239E+03 -2.43772E+04  1.65275E+04 -1.85034E+04  1.88218E+04 -1.98239E+03
  1.24710E+04  1.52391E+04 -1.90503E+03  2.18210E+04 -1.58113E+04  1.32089E+04 -2.13513E+04 -4.56525E+03
 -1.59954E+04 -1.82151E+04 -2.33431E+03 -2.46376E+04  1.19559E+04 -2.22899E+04  2.05658E+04 -9.59571E+03
  1.92395E+04 -1.43997E+03  1.51745E+04  5.22903E+03  8.70500E+03  1.34726E+03  1.13991E+04 -1.76595E+03
  1.95261E+04  3.38628E+03  2.22264E+04  1.57014E+04  1.43846E+04  3.37593E+04 -3.24206E+03  3.86942E+04
 -2.10888E+04  3.31331E+04 -3.59573E+04  1.72705E+04 -3.88568E+04 -2.68057E+03 -3.21355E+04 -2.30874E+04
 -1.30745E+04 -3.16373E+04  1.24718E+04 -2.84200E+04  2.54328E+04 -1.29434E+04  2.05365E+04  6.41681E+03
  8.92270E+03  1.78246E+04 -9.84708E+03  1.32611E+04 -1.72395E+04  2.79542E+03 -1.45623E+04 -1.09982E+04
 -2.13599E+02 -1.78363E+04  8.71524E+03 -1.41622E+04  1.24170E+04 -4.30942E+02  3.62504E+03  8.35882E+03
 -7.76673E+03  1.82165E+03 -7.37017E+03 -7.74265E+03 -6.05194E+02 -1.57592E+04  1.01336E+04 -1.64769E+04
  2.03433E+04 -1.06889E+04  2.11964E+04  1.73665E+03  1.82727E+04  1.61642E+04  9.22550E+03  2.36735E+04
 -4.53972E+03  2.76026E+04 -1.71951E+04  1.62990E+04 -1.89485E+04  2.42330E+03 -1.28043E+04 -4.09495E+03
 -5.38504E+03 -5.56618E+03 -7.90273E+02  9.17401E+02 -1.69931E+03  3.45043E+03 -5.74938E+03  5.04449E+03
 -1.30872E+04 -1.25657E+03 -1.38968E+04 -1.10247E+04 -5.56353E+03 -1.70106E+04  5.45860E+03 -1.50754E+04
  1.23260E+04 -4.39473E+03  8.08761E+03  3.28148E+03  6.70396E+00  5.68583E+03 -6.34207E+03  6.15034E+02
 -6.67036E+03 -8.71552E+03 -6.50286E+02 -1.33084E+04  7.88975E+03 -1.47778E+04  1.73295E+04 -7.79730E+03
  1.99124E+04  1.80439E+03  1.64192E+04  1.26720E+04  2.20779E+03  1.50387E+04 -6.89891E+03  1.43955E+04
 -1.16278E+04  4.14337E+03 -5.05205E+03 -3.37694E+03  3.07131E+03 -4.47593E+03  7.34882E+03 -1.52647E+03
  7.51365E+03  5.41704E+03  5.88865E+02  1.15140E+04 -7.10416E+03  1.07343E+04 -1.38573E+04  3.54960E+03
 -1.04235E+04 -7.30285E+03  2.30300E+02 -1.10922E+04  7.83992E+03 -5.96748E+03  7.50330E+03  2.07743E+03
  6.47991E+02  8.57170E+03 -7.28108E+03  8.67034E+03 -1.02424E+04  5.14207E+03 -1.07820E+04 -4.41446E+03
 -5.87487E+03 -1.15028E+04  4.52955E+03 -1.41980E+04  1.20843E+04 -8.65536E+03  1.17843E+04  2.35863E+03
  9.33641E+03  1.06538E+04 -1.22287E+03  1.42385E+04 -1.01127E+04  8.16211E+03 -1.03912E+04 -1.05692E+03
 -9.09674E+03 -8.26261E+03 -5.20874E+02 -1.05164E+04  6.18622E+03 -8.83517E+03  7.54345E+03 -3.18445E+03
  4.17565E+03  2.21224E+03 -3.95406E+02  2.09327E+03 -3.40246E+02 -3.46373E+03  2.08011E+03 -5.79258E+03
  8.43106E+03 -2.30971E+03  1.26635E+04  2.41312E+03  1.23745E+04  8.03532E+03  8.12399E+03  1.60052E+04
 -5.66021E+03  1.84460E+04 -1.56415E+04  1.55757E+04 -1.99567E+04  3.33396E+03 -1.71242E+04 -5.43857E+03
 -9.04905E+03 -1.42854E+04 -4.65885E+02 -1.12818E+04  4.25460E+03 -5.59362E+03  5.14823E+03 -3.29796E+03
  1.98170E+03 -2.19677E+03  2.19426E+03 -2.95166E+03  4.66627E+03 -3.49716E+03  6.28978E+03 -6.62633E+02
  8.68110E+03  1.76136E+03  4.18286E+03  7.42554E+03 -2.36612E+03  7.84548E+03 -9.79971E+03  6.25855E+03
 -1.12514E+04 -1.40566E+03 -5.56964E+03 -7.34748E+03 -6.17169E+02 -1.15769E+04  6.78087E+03 -1.08590E+04
  1.28665E+04 -7.28288E+03  1.49667E+04  1.02736E+03  1.12320E+04  1.03901E+04  1.86188E+03  1.39231E+04
 -6.30342E+03  1.18170E+04 -6.67608E+03  4.70581E+03 -5.29386E+03 -5.25340E+02 -1.99004E+03 -2.71970E+03
 -5.88117E+02  1.70320E+03 -1.85164E+03  4.62618E+03 -3.58403E+03  4.91404E+02 -9.72129E+03 -1.83609E+03
 -5.92860E+03 -8.01802E+03  1.48745E+03 -1.15438E+04  7.55700E+03 -9.85722E+03  1.17336E+04 -3.30759E+03
  1.11599E+04  6.90428E+03  5.20915E+03  9.94106E+03 -2.68967E+03  1.19683E+04 -8.99877E+03  7.57074E+03
 -1.11822E+04  1.51796E+03 -9.12894E+03 -7.39918E+03 -1.43244E+03 -8.37408E+03  5.13063E+03 -6.69024E+03
  5.97743E+03 -2.92393E+03  5.71504E+03  1.85467E+03  2.07420E+03  3.60794E+03  1.11613E+03  1.15848E+03
  2.23349E+03  1.49590E+03  3.72052E+03  1.51038E+03  3.14594E+03  4.89822E+03  2.55655E+03  5.43305E+03
 -2.38529E+03  9.74832E+03 -7.62454E+03  9.00289E+03 -1.11445E+04  3.14448E+03 -1.10025E+04 -5.12500E+03
 -6.26630E+03 -1.18402E+04  1.47001E+03 -1.25331E+04  7.40520E+03 -8.22668E+03  9.17428E+03 -7.63726E+02
  5.26690E+03  5.17896E+03  1.21040E+03  6.77231E+03 -4.40006E+03  4.91993E+03 -5.06575E+03  9.66067E+01
 -3.11021E+03 -4.13634E+03  1.02330E+03 -3.76277E+03  3.41787E+03 -3.54573E+03  4.08158E+03  1.07606E+03
  2.21745E+03  2.62325E+03  3.46319E+02  3.25402E+03 -1.08201E+03  1.82496E+03  1.20175E+03 -2.98282E+02
  2.08392E+03 -1.34701E+01  5.36649E+03  2.29454E+03  3.03820E+03  7.49756E+03 -6.21016E+02  7.45353E+03
 -4.28001E+03  4.44799E+03 -6.28042E+03  1.55083E+03 -7.30574E+03 -3.11529E+03 -4.23298E+03 -3.07979E+03
 -1.97380E+01 -4.15680E+03  2.25943E+03 -1.29495E+03  3.54643E+03  8.20589E+02 -1.52560E+03  2.50134E+03
 -4.03978E+03  2.75075E+03 -5.37933E+03 -3.48539E+03 -3.34287E+03 -5.52296E+03  1.52914E+03 -5.10969E+03
  2.96187E+03 -3.19087E+03  4.06008E+03 -1.40917E+03  3.40424E+03  4.63308E+02 -9.60271E+02  4.10094E+03
 -2.70514E+03  1.61647E+03 -2.93705E+03 -2.41139E+03  5.40649E+02 -4.23628E+03  5.56168E+03 -4.63701E+03
  6.59533E+03  1.25452E+03  7.67071E+03  4.54370E+03  2.79430E+03  6.78626E+03 -1.34933E+03  5.55859E+03
 -5.17424E+03  2.52180E+03 -5.45885E+03 -1.32980E+03 -3.30404E+03 -5.42079E+03  9.53618E+02 -4.53160E+03
  5.17358E+03 -1.69228E+03  4.10346E+03  2.83806E+03  1.20370E+03  3.30499E+03 -7.98082E+02  3.19460E+03
 -1.73628E+03  3.71824E+03 -8.00542E+02  1.31731E+03 -1.11893E+03  1.36903E+03 -8.03494E+02  2.75857E+02
 -9.94121E+02  4.58813E+03 -5.98045E+03  2.44067E+03 -6.26976E+03 -1.44464E+02 -7.82146E+03 -4.31166E+03
 -3.51442E+03 -9.57721E+03  2.18723E+03 -1.07974E+04  5.37103E+03 -7.98767E+03  1.05370E+04 -2.88890E+03
  9.13182E+03  1.78181E+03  6.60982E+03  5.23388E+03  5.25108E+02  7.86488E+03 -2.53893E+03  6.32206E+03
 -2.77379E+03  2.14023E+03 -3.05238E+03 -9.80214E+02  1.13408E+03 -1.85244E+03 -9.62304E+02  1.01148E+03
 -1.39506E+03  5.55694E+02 -7.77500E+02 -5.76502E+02  3.70262E+02 -2.16744E+03  6.56819E+02 -3.90907E+03
  2.81839E+03 -1.47812E+03  5.17260E+03  5.97241E+02  4.23948E+03  3.57219E+03  3.20385E+02  6.01124E+03
 -5.87915E+03  7.27510E+03 -7.70641E+03  4.88424E+03 -8.75830E+03  3.20152E+02 -5.08341E+03 -6.43704E+03
 -2.09384E+03 -7.08983E+03  1.89857E+03 -7.37705E+03  4.35196E+03 -4.18041E+03  3.66079E+03  5.28343E+02
  2.56826E+03  6.53732E+02  5.96888E+01  9.85001E+02 -9.66551E+02  1.40001E+03 -3.57407E+02 -1.71073E+03
  1.18813E+03 -1.12833E+03  2.52653E+03  1.61867E+03  1.99083E+03  2.13721E+03  1.31981E+03  3.69286E+03
 -2.68218E+03  2.71890E+03 -4.52111E+03  1.59338E+03 -3.91452E+03 -3.74547E+03 -9.21020E+02 -5.31535E+03
  2.24275E+03 -4.93414E+03  5.01858E+03 -1.64902E+03  5.91589E+03  3.24714E+02  2.88304E+03  5.00864E+03
  2.18489E+03  6.60479E+03 -8.58329E+02  5.38154E+03 -2.47613E+03  1.91583E+03 -3.26018E+03 -4.94061E+01
 -1.94680E+03 -7.83895E+02 -2.42741E+02  3.21131E+01 -3.16549E+03  1.25493E+03 -2.43888E+03 -2.23298E+03
 -4.73624E+03 -1.07918E+03 -1.69330E+02 -6.08467E+03  1.77363E+03 -6.29023E+03  4.20678E+03 -2.90051E+03
  4.16499E+03  2.60039E+02  1.08304E+03  3.33023E+03 -7.28096E+02  4.86468E+03 -3.49639E+03  1.83019E+03
