 $NMID ID='MM_0lb_SNR200_7hz_g50_11.RAW', FMTDAT='(8E13.5)'
 TRAMP=1., VOLUME=1. $END
  3.09505E+05 -1.24602E+03  3.38001E+05  2.51692E+05  8.58322E+04  3.38537E+05 -1.33742E+05  2.52082E+05
 -1.90457E+05  8.39833E+04 -1.11060E+05 -3.34943E+04 -4.64910E+02 -5.14084E+04  5.37175E+04 -1.57471E+03
  3.72575E+04  5.21975E+04 -1.75513E+04  7.51774E+04 -6.17464E+04  6.42975E+04 -8.65858E+04  3.31405E+04
 -8.20720E+04 -1.06395E+04 -5.66380E+04 -5.19287E+04 -1.60311E+04 -6.96570E+04  2.63061E+04 -4.84174E+04
  4.00173E+04  2.72580E+03  1.72783E+04  4.79003E+04 -3.57824E+04  5.06010E+04 -6.72923E+04  2.16726E+03
 -5.58603E+04 -5.82210E+04 -8.20312E+03 -8.01517E+04  3.43064E+04 -5.85139E+04  5.09559E+04 -1.71456E+04
  4.66907E+04  1.11769E+04  3.12231E+04  2.56773E+04  1.42968E+04  3.15574E+04 -6.31732E+03  2.74947E+04
 -2.43588E+04  1.25227E+04 -1.97108E+04 -5.14789E+03  8.87006E+03 -5.41113E+03  2.44076E+04  1.42833E+04
  8.96455E+03  3.95943E+04 -3.40340E+04  4.04067E+04 -6.68761E+04  2.08654E+03 -5.99139E+04 -4.46878E+04
 -1.21600E+04 -6.57098E+04  4.29793E+04 -4.83972E+04  6.42955E+04 -3.00813E+03  3.67339E+04  3.53730E+04
 -5.80590E+03  3.85543E+04 -3.27932E+04  1.94272E+04 -3.32138E+04 -4.93119E+03 -1.93627E+04 -1.07602E+04
 -8.93091E+03 -1.46286E+04 -3.32586E+02 -2.11631E+04  9.35430E+03 -2.35745E+04  1.75498E+04 -1.26083E+04
  1.07666E+04  7.58642E+03 -1.21664E+04  1.30365E+04 -2.50986E+04 -9.80168E+03 -7.05108E+03 -4.01044E+04
  2.68937E+04 -4.76785E+04  5.40594E+04 -2.11791E+04  4.75859E+04  2.14564E+04  1.85180E+04  4.78642E+04
 -1.80138E+04  3.75017E+04 -2.65412E+04  1.54498E+03 -9.69850E+03 -2.88261E+04  2.38291E+04 -3.81955E+04
  4.49498E+04 -1.12208E+04  4.21581E+04  2.47697E+04  2.39225E+04  5.28533E+04 -5.31064E+03  6.02642E+04
 -3.83840E+04  4.05111E+04 -5.03383E+04  1.31598E+04 -5.05060E+04 -1.94442E+04 -2.78157E+04 -4.52809E+04
  7.96201E+03 -4.31270E+04  3.48387E+04 -1.87647E+04  3.18718E+04  1.07932E+04  6.81067E+03  2.15466E+04
 -1.29973E+04  1.00985E+04 -1.26968E+04 -6.87772E+03  6.11832E+03 -1.04704E+04  2.11820E+04  3.49467E+03
  1.60977E+04  2.27860E+04 -6.31808E+03  2.67188E+04 -2.44593E+04  1.59681E+04 -3.13009E+04 -2.12596E+03
 -2.67783E+04 -1.84308E+04 -1.21583E+04 -2.75626E+04  3.61106E+03 -3.00187E+04  2.13969E+04 -2.46980E+04
  3.39816E+04 -1.59155E+04  4.09971E+04  6.85606E+03  2.90740E+04  2.68154E+04  5.73369E+03  4.15903E+04
 -2.11509E+04  3.46578E+04 -3.16653E+04  1.19315E+04 -2.29625E+04 -1.02264E+04 -4.31640E+03 -1.29959E+04
  1.36908E+03 -1.63419E+03 -1.00785E+04  9.48132E+03 -2.12197E+04  4.64945E+03 -2.21239E+04 -9.17645E+03
 -1.31409E+04 -2.57559E+04  8.02721E+03 -3.06932E+04  2.04087E+04 -2.31932E+04  2.63586E+04 -1.61722E+03
  1.54674E+04  1.66262E+04 -7.76243E+02  2.34806E+04 -1.83408E+04  1.33733E+04 -2.55471E+04 -5.95856E+03
 -2.01433E+04 -2.47334E+04 -2.52956E+03 -2.99932E+04  1.21766E+04 -2.66158E+04  2.48242E+04 -1.45688E+04
  2.30797E+04 -8.31015E+02  1.63516E+04  6.65165E+03  1.07236E+04  1.83344E+03  1.38634E+04 -1.88647E+03
  2.39997E+04  4.94542E+03  2.82093E+04  1.95408E+04  1.68459E+04  4.13222E+04 -2.91289E+03  5.00367E+04
 -2.61415E+04  4.10672E+04 -4.42675E+04  2.18810E+04 -4.87617E+04 -6.46359E+03 -3.88715E+04 -2.66415E+04
 -1.49065E+04 -4.13370E+04  1.55605E+04 -3.68167E+04  3.03991E+04 -1.68793E+04  2.46935E+04  8.70062E+03
  9.48930E+03  1.99245E+04 -1.31146E+04  1.62044E+04 -2.04764E+04  2.00905E+03 -1.56844E+04 -1.54214E+04
  4.18217E+02 -1.99225E+04  1.02228E+04 -1.60747E+04  1.51388E+04 -1.80132E+03  4.73114E+03  1.01727E+04
 -9.86849E+03  3.82340E+03 -1.29304E+04 -7.09240E+03 -2.84113E+03 -1.97887E+04  1.29013E+04 -2.21099E+04
  2.33637E+04 -1.27816E+04  3.04992E+04  4.50292E+03  2.65879E+04  1.97811E+04  1.26385E+04  3.35685E+04
 -9.16160E+03  3.43298E+04 -2.43147E+04  2.05438E+04 -2.63493E+04  4.70578E+03 -1.85938E+04 -7.61635E+03
 -5.71813E+03 -9.95382E+03 -2.00848E+03 -1.52633E+03 -4.43563E+03  3.55236E+03 -8.57790E+03  6.13312E+03
 -1.49277E+04 -1.64565E+03 -1.61240E+04 -1.44383E+04 -5.13589E+03 -2.16575E+04  6.47437E+03 -1.91475E+04
  1.56395E+04 -7.34896E+03  1.08608E+04  4.53648E+03  5.15155E+02  7.17712E+03 -8.25491E+03  2.70163E+02
 -8.50531E+03 -1.28340E+04 -6.46165E+02 -1.86058E+04  1.06634E+04 -2.00722E+04  2.30065E+04 -1.00828E+04
  2.78791E+04  2.87927E+03  1.93045E+04  1.79110E+04  4.56203E+03  2.31211E+04 -1.07789E+04  1.91210E+04
 -1.40390E+04  4.85194E+03 -8.02416E+03 -3.65936E+03  2.07596E+03 -5.81462E+03  1.12556E+04 -2.62642E+03
  8.57287E+03  8.96794E+03 -1.56750E+02  1.46931E+04 -9.81141E+03  1.51013E+04 -1.82664E+04  4.42228E+03
 -1.21802E+04 -9.74741E+03  1.46161E+03 -1.46704E+04  8.40362E+03 -7.67489E+03  9.70580E+03  6.41366E+03
  2.90766E+03  1.14262E+04 -8.59464E+03  1.44194E+04 -1.51840E+04  6.90810E+03 -1.66947E+04 -6.09818E+03
 -9.38730E+03 -1.76746E+04  3.79527E+03 -2.00216E+04  1.89806E+04 -1.37792E+04  2.03871E+04  4.19190E+03
  1.24508E+04  1.65930E+04 -5.04241E+02  1.87923E+04 -1.35127E+04  1.21429E+04 -1.45928E+04 -3.97928E+03
 -1.16940E+04 -1.06335E+04 -8.32500E+02 -1.43443E+04  6.74445E+03 -8.80803E+03  8.20384E+03 -4.74499E+03
  4.78859E+03  4.22308E+03 -2.77670E+03  1.53650E+03 -2.31462E+03 -3.56604E+03  2.96549E+03 -9.56498E+03
  1.61368E+04 -6.32251E+03  1.75549E+04  4.25796E+03  1.96064E+04  1.51857E+04  1.08931E+04  2.60680E+04
 -7.63733E+03  2.68458E+04 -2.51572E+04  2.06475E+04 -3.18645E+04  5.24422E+03 -2.60183E+04 -1.19169E+04
 -1.05365E+04 -2.08220E+04 -3.01834E+02 -1.76512E+04  6.65324E+03 -1.00006E+04  8.02616E+03 -4.94209E+03
  4.80092E+03 -1.86502E+03  4.93169E+03 -4.94812E+03  7.36849E+03 -3.04206E+03  1.00374E+04 -8.16269E+01
  1.40935E+04  3.14701E+03  5.90797E+03  1.16462E+04 -2.52652E+03  1.30771E+04 -1.32226E+04  1.16998E+04
 -1.73705E+04 -1.08192E+03 -1.27889E+04 -1.29486E+04 -1.90733E+03 -1.95928E+04  1.05516E+04 -1.98567E+04
  2.14823E+04 -1.18084E+04  2.24134E+04  5.07270E+03  1.72757E+04  1.69186E+04  3.12330E+03  2.21740E+04
 -8.46468E+03  1.81869E+04 -1.22449E+04  6.24988E+03 -7.94252E+03 -1.89610E+03 -4.47169E+03 -4.00160E+03
 -1.70727E+03 -1.18124E+03 -2.79482E+03  3.52990E+03 -9.17930E+03  3.56466E+03 -1.09015E+04 -3.58787E+03
 -9.10334E+03 -1.25808E+04 -2.68644E+02 -1.70898E+04  1.10097E+04 -1.68117E+04  1.85385E+04 -3.61335E+03
  1.67349E+04  9.65595E+03  8.64876E+03  1.54978E+04 -3.69581E+03  1.98046E+04 -1.39849E+04  1.06148E+04
 -1.83304E+04  5.66620E+02 -1.15571E+04 -1.10121E+04 -4.40740E+02 -1.58722E+04  8.20671E+03 -1.04802E+04
  1.12283E+04 -4.23841E+03  7.66046E+03  3.95351E+03  2.34687E+03  6.36320E+03  2.76329E+03  3.54913E+02
  3.94737E+03  2.51057E+03  3.70632E+03  1.20129E+03  4.11449E+03  5.51212E+03  5.26862E+03  9.51242E+03
 -1.98942E+03  1.54946E+04 -1.30239E+04  1.51115E+04 -2.13390E+04  2.13501E+03 -2.17862E+04 -9.38827E+03
 -1.09622E+04 -1.94596E+04  3.26071E+03 -2.00788E+04  1.25877E+04 -1.43512E+04  1.72086E+04 -3.59031E+03
  1.37381E+04  5.56337E+03  3.15194E+03  1.24480E+04 -6.06887E+03  6.09807E+03 -7.35796E+03 -2.32674E+03
 -5.44407E+03 -7.53491E+03  4.52396E+03 -8.38353E+03  9.58406E+03 -4.92372E+03  8.45816E+03  2.10415E+03
  5.21229E+03  2.73832E+03  2.51951E+03  3.66780E+03 -2.74860E+03  4.70855E+03  3.23711E+03  8.21636E+02
  2.16780E+03 -1.66124E+03  8.07538E+03  3.52343E+03  3.71383E+03  8.19850E+03 -1.35535E+03  1.38740E+04
 -8.77967E+03  1.05455E+04 -1.18008E+04  3.04305E+03 -1.05892E+04 -3.92447E+03 -5.84005E+03 -8.03647E+03
  1.28409E+03 -6.84334E+03  5.76327E+03 -3.39217E+03  4.32097E+03  3.66395E+03 -2.24616E+03  6.78966E+03
 -9.08912E+03  5.37651E+03 -1.08527E+04 -5.09440E+03 -5.02706E+03 -1.19752E+04  2.07809E+02 -1.20456E+04
  8.69747E+03 -9.53140E+03  7.37638E+03 -8.48725E+02  5.80678E+03  1.44772E+03  1.55942E+03  7.70357E+03
 -4.38855E+03  1.63317E+03 -4.22363E+03 -2.76531E+03  1.80484E+03 -8.98229E+03  1.07127E+04 -6.35303E+03
  1.19541E+04  2.32818E+03  1.22788E+04  7.75842E+03  4.01059E+03  1.51991E+04 -6.18036E+03  1.05798E+04
 -1.04845E+04  6.06537E+03 -1.14761E+04 -1.53125E+03 -3.91269E+03 -8.63303E+03  2.65448E+03 -9.27332E+03
  8.33344E+03 -1.53959E+03  6.90780E+03  3.36266E+03  4.10933E+03  8.05839E+03 -3.26976E+03  4.73249E+03
 -3.44782E+03  3.03027E+03 -3.85613E+03 -1.11081E+03  1.32226E+03  4.87464E+02 -2.52182E+03  2.46294E+03
 -3.91921E+03  5.42586E+03 -1.02619E+04  2.50224E+03 -1.49806E+04  1.27644E+03 -1.42041E+04 -8.60916E+03
 -9.73204E+03 -1.91373E+04  4.29168E+03 -2.11475E+04  1.19179E+04 -1.70285E+04  2.07292E+04 -6.80394E+03
  1.89140E+04  2.82683E+03  1.13306E+04  1.34681E+04  1.99710E+03  1.54509E+04 -6.77352E+03  1.12092E+04
 -6.90474E+03  3.36224E+03 -5.47021E+03 -1.88086E+03 -1.85930E+03 -4.18048E+02  2.44423E+02  1.46910E+03
 -2.16591E+03 -4.28840E+02 -2.96230E+03 -2.55736E+02 -1.32232E+03 -3.70006E+03  1.25745E+02 -4.44481E+03
  4.87841E+03 -4.34774E+03  8.61039E+03 -5.94924E+01  9.50949E+03  8.20676E+03  3.24431E+03  1.68644E+04
 -5.74826E+03  1.79826E+04 -1.42549E+04  1.01812E+04 -1.92854E+04 -6.38553E+02 -1.37763E+04 -1.02974E+04
 -4.74714E+03 -1.44571E+04  4.79753E+03 -1.35753E+04  1.06480E+04 -8.32035E+03  1.13589E+04 -7.57186E+02
  6.75992E+03  5.27148E+03 -1.23078E+03  3.89793E+03 -3.79479E+03 -8.30436E+02  1.21661E+03 -4.21508E+03
  5.60636E+03 -2.96393E+03  6.36743E+03  3.23742E+03  3.94986E+03  5.90010E+03  7.28958E+02  8.78586E+03
 -6.72010E+03  7.96390E+03 -1.10931E+04  1.24966E+03 -9.20720E+03 -7.88945E+03 -1.27176E+03 -1.37042E+04
  7.28674E+03 -1.06083E+04  1.32082E+04 -4.81708E+03  1.23435E+04  2.39391E+03  8.48921E+03  1.11351E+04
  2.20488E+03  1.17408E+04 -4.50114E+03  7.99818E+03 -6.95058E+03  5.84419E+03 -5.95251E+03 -7.62873E+02
 -1.69822E+03  1.75419E+02 -2.44385E+03  1.80706E+03 -4.26667E+03  1.79950E+03 -8.29067E+03 -3.26657E+03
 -7.26061E+03 -6.09322E+03 -3.96956E+03 -1.08708E+04  3.41876E+03 -1.06481E+04  9.16547E+03 -5.40348E+03
  9.04528E+03  3.26443E+03  6.74883E+03  8.28867E+03 -9.54719E+02  9.98147E+03 -7.48805E+03  8.30700E+03
