 $NMID ID='MM_0lb_SNR200_12hz_g40_61.RAW', FMTDAT='(8E13.5)'
 TRAMP=1., VOLUME=1. $END
  3.08948E+05 -6.07017E+02  3.37000E+05  2.50616E+05  8.45079E+04  3.38301E+05 -1.32792E+05  2.49950E+05
 -1.91037E+05  8.30419E+04 -1.12087E+05 -3.12286E+04  1.17022E+03 -5.04119E+04  5.35622E+04  2.84531E+02
  3.45988E+04  5.20738E+04 -1.57623E+04  7.72678E+04 -6.13412E+04  6.40793E+04 -8.36602E+04  3.33152E+04
 -8.08148E+04 -1.24646E+04 -5.71862E+04 -5.19251E+04 -1.51765E+04 -6.98722E+04  2.77722E+04 -4.71725E+04
  4.00708E+04  3.13620E+03  1.78718E+04  4.79033E+04 -3.47897E+04  4.69886E+04 -6.71743E+04 -3.72788E+02
 -5.42396E+04 -5.66158E+04 -7.83754E+03 -7.71957E+04  3.41099E+04 -5.46785E+04  4.71021E+04 -1.80742E+04
  4.25764E+04  1.10341E+04  3.27639E+04  2.62510E+04  1.59392E+04  3.01165E+04 -3.88042E+03  2.69262E+04
 -2.18650E+04  1.25498E+04 -1.80088E+04 -4.87403E+03  5.05816E+03 -6.95544E+03  2.22297E+04  1.12061E+04
  6.68326E+03  3.65067E+04 -3.17422E+04  3.56607E+04 -6.33010E+04  1.91754E+03 -5.72475E+04 -4.32424E+04
 -1.19740E+04 -6.33396E+04  4.01552E+04 -4.46284E+04  5.87511E+04 -1.99364E+03  3.36483E+04  3.26547E+04
 -5.76356E+03  3.58417E+04 -2.98531E+04  1.65556E+04 -3.18581E+04 -5.44944E+03 -1.64531E+04 -1.17394E+04
 -8.78361E+03 -1.27686E+04 -1.35059E+03 -1.84768E+04  8.70946E+03 -2.32989E+04  1.54100E+04 -1.30033E+04
  1.07315E+04  6.31092E+03 -7.88417E+03  1.29847E+04 -2.17092E+04 -3.59639E+03 -9.45078E+03 -3.39066E+04
  2.33694E+04 -4.54351E+04  4.86459E+04 -2.01530E+04  4.52085E+04  1.90473E+04  1.68033E+04  4.47472E+04
 -1.61693E+04  3.39252E+04 -2.63577E+04  2.30605E+03 -1.22793E+04 -2.93591E+04  2.12808E+04 -3.44706E+04
  4.22363E+04 -1.12191E+04  3.55456E+04  2.44625E+04  1.92727E+04  4.67563E+04 -6.84544E+03  5.18659E+04
 -3.21541E+04  3.35273E+04 -4.44406E+04  1.00217E+04 -4.40193E+04 -1.70887E+04 -2.43527E+04 -3.89068E+04
  7.82324E+03 -3.77668E+04  3.17272E+04 -1.44730E+04  2.96001E+04  1.16638E+04  5.28715E+03  1.88147E+04
 -1.30027E+04  9.70885E+03 -9.02304E+03 -6.60538E+03  6.78417E+03 -1.20546E+04  1.71856E+04  5.37557E+03
  1.43043E+04  2.18212E+04 -5.23274E+03  2.63417E+04 -2.26587E+04  1.12126E+04 -3.00313E+04 -4.73735E+03
 -2.14459E+04 -1.70166E+04 -8.02683E+03 -2.12875E+04  4.10271E+03 -2.05210E+04  1.65032E+04 -1.88774E+04
  2.70697E+04 -1.28657E+04  3.37290E+04  2.79047E+03  2.38922E+04  2.16525E+04  3.55348E+03  3.81230E+04
 -1.85752E+04  3.27866E+04 -2.82865E+04  1.16535E+04 -2.18634E+04 -1.06710E+04 -3.42168E+03 -1.42889E+04
  1.38757E+03 -1.84124E+03 -4.94497E+03  7.28148E+03 -1.59680E+04  6.37775E+03 -1.54908E+04 -7.10356E+03
 -1.12420E+04 -2.00776E+04  5.47483E+03 -2.51120E+04  1.55920E+04 -1.78354E+04  1.89395E+04 -1.69198E+03
  1.15765E+04  1.42370E+04 -1.56588E+03  1.97418E+04 -1.35117E+04  1.21229E+04 -2.04499E+04 -3.91021E+03
 -1.45973E+04 -1.67035E+04 -1.97379E+03 -2.45342E+04  1.09523E+04 -2.04286E+04  1.94105E+04 -1.02592E+04
  1.85565E+04 -4.03895E+02  1.33259E+04  4.08210E+03  7.55182E+03  1.06455E+03  8.52876E+03 -3.91522E+03
  1.91434E+04  3.35910E+03  2.10494E+04  1.67158E+04  1.41695E+04  3.18965E+04 -2.98045E+03  3.68628E+04
 -2.04032E+04  3.05228E+04 -3.45391E+04  1.53283E+04 -3.52849E+04 -2.74122E+03 -2.91074E+04 -2.16722E+04
 -1.22567E+04 -2.86476E+04  1.13339E+04 -2.71277E+04  2.17543E+04 -1.28114E+04  2.07871E+04  7.58181E+03
  7.01585E+03  1.54591E+04 -9.45360E+03  1.23176E+04 -1.78085E+04  2.65218E+03 -1.30260E+04 -1.05704E+04
 -7.23767E+02 -1.59373E+04  8.40288E+03 -1.26202E+04  1.02828E+04 -1.66078E+03  2.66004E+03  6.96733E+03
 -6.89207E+03  4.34609E+03 -7.52414E+03 -6.70323E+03 -5.60800E+02 -1.43107E+04  1.05300E+04 -1.48876E+04
  1.66658E+04 -8.65811E+03  1.96697E+04  3.60846E+03  1.77769E+04  1.47439E+04  8.10342E+03  2.21950E+04
 -3.60719E+03  2.43597E+04 -1.65916E+04  1.38108E+04 -1.78422E+04  3.76302E+03 -1.21788E+04 -4.67090E+03
 -4.99191E+03 -4.53203E+03 -1.69751E+03  1.32752E+03 -2.99274E+03  2.03638E+03 -5.73661E+03  5.24097E+03
 -1.29781E+04  2.12656E+02 -1.16674E+04 -1.01273E+04 -5.40514E+03 -1.59646E+04  4.73835E+03 -1.19582E+04
  1.09173E+04 -4.98893E+03  8.12844E+03  2.72926E+03  1.14986E+03  4.62304E+03 -6.11995E+03 -1.44249E+03
 -5.57741E+03 -7.96572E+03 -7.95058E+02 -1.22888E+04  6.29919E+03 -1.26450E+04  1.60209E+04 -6.95835E+03
  1.81478E+04  1.50799E+03  1.33230E+04  1.08066E+04  3.37062E+03  1.36160E+04 -7.65798E+03  1.10455E+04
 -9.44345E+03  4.57013E+03 -5.35616E+03 -2.76319E+03  8.60200E+02 -3.46864E+03  5.16177E+03 -9.07625E+02
  5.73162E+03  4.26486E+03  4.03719E+02  1.09592E+04 -6.61636E+03  9.89659E+03 -1.23228E+04  1.79578E+03
 -7.64728E+03 -4.38288E+03  1.80042E+03 -1.10941E+04  6.72317E+03 -5.64502E+03  5.65801E+03  1.23180E+03
  1.20680E+03  7.38620E+03 -6.50797E+03  8.24207E+03 -9.30217E+03  4.23922E+03 -9.61627E+03 -3.25466E+03
 -5.38856E+03 -1.20305E+04  1.98111E+03 -1.38342E+04  1.18060E+04 -8.49956E+03  1.24892E+04  1.59702E+03
  7.69212E+03  9.72244E+03 -6.02759E+02  1.30767E+04 -8.49743E+03  6.22630E+03 -8.84500E+03 -1.33774E+03
 -8.29347E+03 -8.00906E+03 -2.00610E+03 -8.89191E+03  4.49132E+03 -6.76097E+03  6.35056E+03 -2.35477E+03
  3.83543E+03  6.65905E+02 -9.18165E+02  1.76504E+03 -1.04891E+03 -1.70291E+03  6.55157E+02 -5.51275E+03
  7.01212E+03 -2.23317E+03  1.15191E+04  1.45446E+03  1.15730E+04  6.08020E+03  8.75948E+03  1.49988E+04
 -2.04994E+03  1.71915E+04 -1.37496E+04  1.26774E+04 -1.80492E+04  2.71701E+03 -1.47307E+04 -6.25798E+03
 -6.92325E+03 -1.16027E+04 -4.78351E+02 -1.00343E+04  3.34624E+03 -5.56353E+03  2.74905E+03 -4.34820E+03
  2.78716E+03 -1.96452E+03  3.46528E+03 -3.21709E+03  6.00349E+03 -3.23308E+03  6.70520E+03 -6.16693E+02
  8.81102E+03  6.09589E+02  4.11940E+03  7.20123E+03 -1.12427E+03  6.84601E+03 -7.04289E+03  5.66418E+03
 -1.19705E+04  5.97731E+01 -6.36378E+03 -7.37691E+03 -1.49374E+02 -1.03589E+04  5.71189E+03 -1.12126E+04
  1.15729E+04 -7.82887E+03  1.34124E+04  2.38383E+03  8.44561E+03  1.00401E+04  1.51352E+03  1.27869E+04
 -4.07718E+03  1.01519E+04 -7.47017E+03  2.71093E+03 -4.54122E+03 -1.27301E+03 -2.12884E+03 -1.17100E+03
 -1.51142E+03  3.89030E+02 -9.52726E+02  2.58139E+03 -3.37710E+03  1.76712E+03 -6.22471E+03 -1.36072E+03
 -4.64773E+03 -7.18804E+03  7.95608E+02 -9.33669E+03  5.59160E+03 -9.91110E+03  8.92873E+03 -3.64965E+03
  8.97536E+03  4.66114E+03  4.49749E+03  7.45836E+03 -6.66063E+02  1.00317E+04 -6.23196E+03  5.18299E+03
 -9.06801E+03 -3.93831E+02 -7.37832E+03 -6.84195E+03  4.98438E+02 -8.75102E+03  3.65891E+03 -5.94484E+03
  5.44322E+03 -2.85968E+03  3.91824E+03  1.79020E+03  1.89619E+03  2.48685E+03  1.04642E+03  1.78872E+03
  2.05527E+03  3.19355E+02  2.37024E+03  1.31896E+03  2.66185E+03  4.34387E+03  2.52008E+03  5.60935E+03
 -2.72683E+02  7.86193E+03 -6.57161E+03  8.09016E+03 -9.23255E+03  1.75718E+03 -1.15454E+04 -3.88180E+03
 -5.05612E+03 -8.00217E+03  2.09399E+03 -9.77079E+03  6.15660E+03 -6.62946E+03  7.72515E+03 -2.16317E+03
  6.47520E+03  3.38456E+03  1.04714E+03  6.65579E+03 -2.34739E+03  3.15816E+03 -3.15995E+03 -3.37004E+02
 -2.11798E+03 -3.10331E+03  2.95341E+03 -4.17158E+03  4.26253E+03 -1.42312E+03  4.16396E+03  8.70789E+02
  2.07612E+03 -9.65620E+01  1.57257E+03  1.88077E+03 -9.64618E+02  1.02997E+03  1.73808E+03 -8.22599E+02
  1.28883E+03 -1.98172E+03  4.89584E+03  2.11985E+03  1.21310E+03  5.78080E+03 -1.72949E+03  7.04843E+03
 -2.87598E+03  5.19265E+03 -6.32633E+03  7.35516E+02 -5.85667E+03 -2.32433E+03 -4.61553E+02 -4.17368E+03
  4.84305E+02 -4.10536E+03  2.02684E+03 -2.86153E+03  2.80901E+03  1.91440E+03 -1.59440E+03  2.74923E+03
 -5.22527E+03  1.68686E+03 -4.19197E+03 -1.86753E+03 -3.21465E+03 -5.23302E+03 -5.12985E+02 -4.01769E+03
  3.28079E+03 -2.77715E+03  3.66020E+03  5.43052E+02  3.43400E+03  7.75730E+02  1.31441E+03  2.06937E+03
 -1.99611E+03  2.42325E+03 -2.46069E+03 -1.49805E+03  1.21409E+03 -3.90423E+03  4.70534E+03 -3.42959E+03
  5.69059E+03  8.53017E+02  4.97078E+03  3.55188E+03  1.12956E+03  5.58587E+03 -2.39863E+03  5.41349E+03
 -4.76138E+03  2.52435E+03 -4.69980E+03 -7.78482E+02 -3.13166E+03 -3.51836E+03  7.01496E+02 -3.89043E+03
  3.64620E+03 -6.26145E+02  1.89738E+03  2.02034E+03  2.40401E+02  3.04419E+03 -4.32687E+02  2.36736E+03
 -1.03107E+03  1.47691E+03 -1.92237E+03 -1.27305E+03 -4.07846E+02  6.09248E+02 -1.43083E+03  1.56207E+02
 -1.44735E+03  1.79704E+03 -3.33452E+03  1.41025E+03 -5.91161E+03  9.02597E+02 -6.50097E+03 -5.31103E+03
 -3.55506E+03 -7.74983E+03  8.64147E+02 -9.19039E+03  4.12348E+03 -7.66942E+03  8.24419E+03 -2.27506E+03
  8.76374E+03  1.18071E+03  4.80220E+03  6.49925E+03 -7.54103E+02  6.43808E+03 -1.52571E+03  3.99042E+03
 -3.27452E+03  3.03528E+03 -2.45926E+03 -5.58411E+02  3.46460E+02 -2.23488E+03 -2.44237E+03 -1.23943E+03
  5.37920E+02  2.58424E+02 -1.52602E+03 -1.40631E+02 -1.03957E+03 -2.35995E+03  7.39669E+01 -2.20930E+03
  2.91752E+03 -1.72318E+03  3.01502E+03 -2.82993E+02  4.41472E+03  2.80397E+03  5.10310E+02  5.75096E+03
 -3.07851E+03  6.24735E+03 -5.32214E+03  4.24143E+03 -6.18235E+03 -1.72554E+02 -4.24143E+03 -4.10827E+03
 -2.14320E+03 -5.80745E+03  9.68220E+02 -5.66528E+03  3.10024E+03 -2.21848E+03  3.00204E+03 -9.01149E+02
  1.39731E+03  3.23615E+03 -1.17632E+03  7.57320E+02 -1.45791E+03 -9.29186E+02 -9.65586E+01 -1.00711E+03
  3.06622E+03 -3.56553E+02  2.59203E+03 -2.88908E+02 -1.03564E+02  1.93563E+03 -4.72450E+02  2.76739E+03
 -2.75359E+03  2.59797E+03 -3.34583E+03  4.90921E+02 -3.97731E+03 -3.06092E+03 -1.14431E+03 -3.67299E+03
  1.77238E+03 -3.79257E+03  3.90767E+03  1.34453E+02  4.66866E+03  4.80477E+02  2.32993E+03  2.28721E+03
  3.85756E+02  4.65735E+03 -9.71457E+02  1.89398E+03 -2.07679E+03  1.14067E+03 -2.52538E+03 -3.02176E+02
 -3.82695E+02 -1.43343E+03 -6.90229E+02 -5.18714E+02 -3.08249E+03  2.68013E+02 -4.13458E+03 -1.06725E+03
 -3.50946E+03 -1.29819E+03 -1.70173E+03 -2.77196E+03  1.47864E+03 -3.47187E+03  3.30250E+03 -3.73934E+03
  3.11119E+03  1.45972E+03  2.18126E+03  1.05811E+03 -2.25564E+02  4.68040E+03 -1.83944E+03  2.85745E+03
