 $NMID ID='MM_0lb_SNR200_8hz_g50_80.RAW', FMTDAT='(8E13.5)'
 TRAMP=1., VOLUME=1. $END
  3.09946E+05  5.12601E+02  3.38513E+05  2.52251E+05  8.51177E+04  3.37946E+05 -1.32721E+05  2.52939E+05
 -1.91318E+05  8.34123E+04 -1.12138E+05 -3.31426E+04  1.53683E+03 -5.12574E+04  5.32583E+04  1.35386E+02
  3.55455E+04  5.30014E+04 -1.54476E+04  7.65447E+04 -6.05708E+04  6.60783E+04 -8.33090E+04  3.22426E+04
 -8.18243E+04 -1.17321E+04 -5.78055E+04 -5.29892E+04 -1.34671E+04 -7.18833E+04  2.83292E+04 -4.69880E+04
  4.23053E+04  3.44235E+03  1.76784E+04  5.01134E+04 -3.56168E+04  4.82319E+04 -6.85708E+04 -7.28470E+02
 -5.57589E+04 -5.85727E+04 -6.62684E+03 -8.06006E+04  3.40097E+04 -5.62855E+04  5.02826E+04 -1.91979E+04
  4.59269E+04  1.07358E+04  3.17576E+04  2.54677E+04  1.82552E+04  3.04728E+04 -8.55780E+03  2.80290E+04
 -2.25103E+04  1.02957E+04 -1.76243E+04 -6.10954E+03  9.70808E+03 -8.68368E+03  2.47000E+04  1.47532E+04
  6.55470E+03  3.72132E+04 -3.34050E+04  3.67077E+04 -6.59625E+04  9.37716E+02 -6.04175E+04 -4.51137E+04
 -1.28624E+04 -6.76708E+04  4.25010E+04 -4.62271E+04  6.24461E+04 -3.10200E+03  3.95568E+04  3.42426E+04
 -4.60083E+03  3.77120E+04 -3.25223E+04  1.94910E+04 -3.28300E+04 -4.50267E+03 -2.02776E+04 -1.18750E+04
 -1.02579E+04 -1.43867E+04 -2.85747E+02 -2.09045E+04  9.06999E+03 -2.24199E+04  1.65811E+04 -1.27175E+04
  8.83866E+03  8.05779E+03 -9.93538E+03  1.31674E+04 -2.32757E+04 -5.78518E+03 -8.84116E+03 -3.96214E+04
  2.58977E+04 -4.79156E+04  5.21098E+04 -2.03699E+04  5.16424E+04  2.12913E+04  1.68899E+04  4.75819E+04
 -1.67887E+04  3.78962E+04 -2.75603E+04  3.01649E+03 -1.35851E+04 -2.89940E+04  2.09445E+04 -3.90596E+04
  4.53297E+04 -1.16095E+04  4.41951E+04  2.45826E+04  2.07462E+04  5.10252E+04 -7.35454E+03  5.80876E+04
 -3.59651E+04  3.92299E+04 -4.87371E+04  9.84064E+03 -5.00139E+04 -1.93463E+04 -2.69427E+04 -4.31489E+04
  8.62714E+03 -4.39608E+04  3.50564E+04 -1.78704E+04  3.24617E+04  1.00799E+04  6.06778E+03  2.07723E+04
 -1.42003E+04  9.22783E+03 -1.29010E+04 -7.60939E+03  6.63303E+03 -1.06456E+04  1.83415E+04  5.72122E+03
  1.63740E+04  2.25804E+04 -4.30136E+03  2.91296E+04 -2.45423E+04  1.34152E+04 -3.37033E+04 -3.03262E+03
 -2.67129E+04 -1.80786E+04 -1.22835E+04 -2.59476E+04  3.73439E+03 -2.75581E+04  2.08665E+04 -2.42281E+04
  3.30725E+04 -1.33530E+04  3.96280E+04  6.60110E+03  2.64116E+04  2.73608E+04  3.66165E+03  4.22202E+04
 -1.97942E+04  3.35446E+04 -3.04266E+04  1.13137E+04 -2.31819E+04 -1.12351E+04 -3.28872E+03 -1.31788E+04
  1.45459E+03 -2.79613E+02 -9.18214E+03  7.83939E+03 -2.16457E+04  5.85628E+03 -2.18683E+04 -1.00047E+04
 -1.04553E+04 -2.32998E+04  7.29419E+03 -2.81960E+04  1.77382E+04 -2.04856E+04  2.37129E+04 -1.26371E+03
  1.60922E+04  1.58734E+04 -1.89302E+03  2.39135E+04 -1.76210E+04  1.50237E+04 -2.42916E+04 -4.92343E+03
 -1.78621E+04 -2.15777E+04 -1.92722E+03 -2.95161E+04  1.26475E+04 -2.50220E+04  2.37142E+04 -1.46627E+04
  2.30965E+04  6.14952E+02  1.57366E+04  6.21760E+03  9.64782E+03  1.20372E+03  1.26909E+04 -4.49516E+03
  2.22279E+04  3.01033E+03  2.51180E+04  2.08265E+04  1.72651E+04  4.01571E+04 -2.64965E+03  4.69563E+04
 -2.60678E+04  4.00635E+04 -4.34442E+04  1.93364E+04 -4.53662E+04 -3.97922E+03 -3.67989E+04 -2.76951E+04
 -1.43739E+04 -3.89923E+04  1.34966E+04 -3.35420E+04  3.04096E+04 -1.56142E+04  2.44617E+04  8.90200E+03
  9.63964E+03  2.01772E+04 -1.26919E+04  1.64678E+04 -2.11749E+04  2.88751E+03 -1.59048E+04 -1.30365E+04
 -2.23407E+03 -2.00212E+04  1.14492E+04 -1.40028E+04  1.37397E+04 -2.58252E+00  4.09317E+03  1.02273E+04
 -1.03987E+04  4.76460E+03 -1.18293E+04 -6.83993E+03 -2.38035E+03 -1.89706E+04  1.13760E+04 -2.20811E+04
  2.50531E+04 -1.19944E+04  2.88665E+04  4.83004E+03  2.47563E+04  2.13653E+04  1.16584E+04  3.16201E+04
 -6.29049E+03  3.33310E+04 -2.19826E+04  2.08192E+04 -2.48211E+04  2.85723E+03 -1.73885E+04 -7.26646E+03
 -6.79441E+03 -8.76834E+03  8.51650E+02 -3.09385E+02 -3.22439E+03  3.67681E+03 -9.03667E+03  5.76268E+03
 -1.47288E+04 -7.81936E+02 -1.49244E+04 -1.31778E+04 -6.01525E+03 -1.94360E+04  7.53203E+03 -1.55309E+04
  1.47225E+04 -5.29086E+03  8.86005E+03  4.72769E+03  5.67039E+02  7.18140E+03 -9.28738E+03 -1.94770E+03
 -8.81821E+03 -1.23094E+04 -2.93489E+03 -1.79944E+04  8.68828E+03 -1.72355E+04  1.96947E+04 -9.83899E+03
  2.44711E+04  2.18293E+03  2.00539E+04  1.48746E+04  2.39423E+03  2.00173E+04 -1.03674E+04  1.67376E+04
 -1.39545E+04  4.84460E+03 -6.67451E+03 -4.18424E+03  3.11583E+03 -4.03488E+03  9.37482E+03 -1.96271E+03
  8.04366E+03  8.08206E+03  3.68862E+02  1.53236E+04 -8.64332E+03  1.26481E+04 -1.59222E+04  2.59903E+03
 -1.13688E+04 -1.12533E+04  3.44363E+03 -1.25237E+04  1.00591E+04 -8.54252E+03  9.85584E+03  4.57454E+03
  6.16235E+02  1.11223E+04 -9.32558E+03  1.17941E+04 -1.45893E+04  5.38052E+03 -1.49984E+04 -6.15809E+03
 -8.16260E+03 -1.76338E+04  5.53971E+03 -1.98575E+04  1.69776E+04 -1.21385E+04  1.86443E+04  4.13684E+03
  1.13575E+04  1.33416E+04 -4.25763E+02  1.81484E+04 -1.21142E+04  9.76339E+03 -1.37905E+04 -1.95765E+03
 -1.08476E+04 -1.22053E+04 -2.53325E+03 -1.25811E+04  6.79253E+03 -1.07056E+04  8.78463E+03 -3.63716E+03
  3.82422E+03  1.75063E+03  5.51078E+02  1.98260E+03 -1.41443E+03 -3.33616E+03  2.79543E+03 -9.33373E+03
  1.26704E+04 -5.74388E+03  1.93803E+04  1.93328E+03  1.67085E+04  1.23818E+04  1.07786E+04  2.22496E+04
 -4.53785E+03  2.74159E+04 -2.07086E+04  1.94398E+04 -2.99025E+04  3.36961E+03 -2.15872E+04 -1.08830E+04
 -1.20069E+04 -1.94935E+04 -1.54020E+03 -1.57017E+04  6.39741E+03 -1.00511E+04  5.36004E+03 -4.23989E+03
  4.39857E+03 -1.65771E+03  5.43369E+03 -3.02416E+03  5.95533E+03 -3.91357E+03  8.67547E+03 -2.90543E+03
  1.30421E+04  2.44171E+03  6.44579E+03  1.06228E+04 -3.17890E+03  1.13226E+04 -1.44008E+04  1.03560E+04
 -1.63644E+04 -2.49222E+03 -1.16223E+04 -1.12331E+04 -2.36919E+03 -1.63726E+04  7.64720E+03 -1.86131E+04
  1.88485E+04 -8.86143E+03  2.24143E+04  2.57726E+03  1.37687E+04  1.53250E+04  8.79673E+02  1.95765E+04
 -8.88282E+03  1.67112E+04 -1.13788E+04  7.38137E+03 -8.35499E+03 -2.63086E+03 -4.44293E+03 -3.22868E+03
 -7.26807E+02  5.42393E+02 -1.82234E+03  3.41756E+03 -6.86875E+03  1.71333E+03 -1.04912E+04 -2.03179E+03
 -7.59177E+03 -1.08622E+04  8.68650E+02 -1.71918E+04  1.05306E+04 -1.53434E+04  1.59647E+04 -4.70151E+03
  1.65031E+04  8.11656E+03  7.79224E+03  1.64458E+04 -2.17442E+03  1.69290E+04 -1.05000E+04  1.05571E+04
 -1.48647E+04  1.67075E+03 -1.23989E+04 -1.10484E+04  5.86133E+02 -1.41169E+04  7.37854E+03 -1.11843E+04
  1.15657E+04 -4.07126E+03  6.87356E+03  4.03433E+03  1.61141E+03  4.45040E+03  2.08774E+03 -2.16127E+02
  3.61958E+03  1.71270E+03  3.07257E+03  1.51803E+03  5.31843E+03  5.93343E+03  4.43933E+03  9.29433E+03
 -2.49749E+03  1.37462E+04 -1.28072E+04  1.42843E+04 -1.79154E+04  2.69996E+03 -1.58712E+04 -8.97488E+03
 -8.55847E+03 -1.80041E+04  2.46535E+03 -1.86964E+04  1.13584E+04 -1.11070E+04  1.41739E+04 -3.67805E+03
  1.21230E+04  5.21317E+03  1.45264E+03  9.45038E+03 -5.52822E+03  6.83812E+03 -8.36700E+03 -1.03123E+03
 -3.59036E+03 -6.86846E+03  5.10790E+03 -6.34291E+03  6.58557E+03 -2.12148E+03  6.68882E+03  3.39302E+03
  3.22152E+03  2.93149E+03  3.21334E+02  1.94617E+03 -9.07770E+02  3.59925E+03  1.64537E+03  1.04164E+00
  2.37027E+03  1.72106E+03  8.67556E+03  3.06451E+03  2.07811E+03  1.14171E+04 -2.30027E+03  1.21197E+04
 -7.68378E+03  6.60850E+03 -1.08947E+04  3.35006E+03 -1.02331E+04 -3.60179E+03 -5.43147E+03 -5.26587E+03
  9.24908E+02 -7.67120E+03  3.36485E+03 -2.44237E+03  5.39836E+03  3.21751E+03 -2.91840E+02  5.36677E+03
 -6.51108E+03  1.16399E+03 -7.32048E+03 -3.74716E+03 -4.78595E+03 -1.08647E+04  4.15961E+02 -1.14795E+04
  7.23952E+03 -6.05121E+03  8.03001E+03  2.78239E+02  5.84698E+03  2.67083E+03  2.06814E+03  5.83076E+03
 -3.91026E+03  1.80846E+03 -4.16958E+03 -4.03430E+03  2.65602E+03 -7.94513E+03  9.36416E+03 -5.66989E+03
  1.02384E+04  9.13750E+02  1.06524E+04  6.50811E+03  1.77088E+03  1.24562E+04 -3.94618E+03  1.22228E+04
 -1.08403E+04  5.32282E+03 -9.92026E+03 -2.05267E+03 -5.50503E+03 -6.91043E+03  2.66553E+03 -7.76141E+03
  7.60310E+03 -1.48247E+03  7.04269E+03  4.79682E+03  1.29902E+03  5.82880E+03 -3.58246E+03  5.90835E+03
 -3.30735E+03  1.49241E+03 -4.73897E+03  7.00726E+02 -1.40160E+02 -1.44770E+01 -2.09215E+03  1.27042E+03
 -3.36342E+03  5.12412E+03 -8.42065E+03  5.99544E+03 -1.17200E+04 -1.03008E+03 -1.30232E+04 -8.37903E+03
 -7.43388E+03 -1.64037E+04  4.47566E+03 -1.82171E+04  1.11780E+04 -1.37288E+04  1.71999E+04 -5.74011E+03
  1.59204E+04  2.55215E+03  9.47459E+03  1.02298E+04  2.56331E+03  1.14544E+04 -5.97843E+03  1.06791E+04
 -6.33532E+03  3.15687E+03 -3.61945E+03 -1.46172E+03 -1.34738E+03 -1.80199E+03 -1.64871E+03  2.49333E+02
 -1.47655E+03  1.03060E+03 -1.39163E+03 -8.74553E+02  3.49024E+02 -2.65377E+03 -1.38479E+01 -3.20647E+03
  4.68287E+03 -3.74221E+03  7.99690E+03  7.55621E+02  9.27129E+03  6.14595E+03  2.06191E+03  1.26199E+04
 -5.62829E+03  1.37953E+04 -1.39605E+04  9.14691E+03 -1.73329E+04 -1.66842E+03 -1.10989E+04 -9.01789E+03
 -4.42987E+03 -1.35965E+04  4.26252E+03 -1.23475E+04  7.94804E+03 -6.40478E+03  8.77074E+03  1.03760E+02
  3.74044E+03  5.21101E+03 -4.98509E+02  1.74945E+03 -2.55322E+03 -1.14144E+03 -6.33335E+02 -3.34399E+03
  4.89526E+03 -2.30044E+03  6.09981E+03  2.50399E+03  3.49016E+03  5.41509E+03 -1.49712E+03  5.51210E+03
 -6.33715E+03  7.70199E+03 -9.78996E+03  9.48894E+02 -7.84845E+03 -6.50660E+03 -1.41474E+03 -1.15880E+04
  6.64224E+03 -9.66709E+03  1.00661E+04 -2.57347E+03  1.05008E+04  2.37807E+03  5.90679E+03  8.02356E+03
 -1.35883E+02  8.24252E+03 -4.51195E+03  5.24654E+03 -6.01856E+03  3.67758E+03 -5.03529E+03  1.12056E+03
 -2.54205E+03 -6.88907E+02 -2.76292E+03  5.76352E+02 -4.76506E+03  2.66116E+03 -5.70813E+03 -2.00035E+03
 -5.19638E+03 -4.35676E+03 -1.60687E+03 -9.53336E+03  3.60791E+03 -9.25419E+03  7.83139E+03 -4.92099E+03
  1.04910E+04  6.78263E+02  5.84125E+03  7.29480E+03 -1.10633E+02  9.73809E+03 -6.48532E+03  6.86017E+03
