 $NMID ID='MM_0lb_SNR200_7hz_g60_84.RAW', FMTDAT='(8E13.5)'
 TRAMP=1., VOLUME=1. $END
  3.11991E+05  2.31171E+03  3.37440E+05  2.50944E+05  8.44319E+04  3.39501E+05 -1.31536E+05  2.53867E+05
 -1.91725E+05  8.49279E+04 -1.11251E+05 -3.12526E+04  8.32482E+02 -4.97601E+04  5.23571E+04 -1.44387E+02
  3.43528E+04  5.39461E+04 -1.66677E+04  7.83919E+04 -6.09732E+04  6.38430E+04 -8.60290E+04  3.32114E+04
 -8.29716E+04 -1.21120E+04 -5.98908E+04 -5.19901E+04 -1.49486E+04 -7.11983E+04  2.83670E+04 -4.88183E+04
  4.02755E+04  3.65016E+03  1.61866E+04  4.83168E+04 -3.46193E+04  4.75032E+04 -7.13880E+04 -1.20158E+03
 -5.46850E+04 -5.70954E+04 -8.72150E+03 -7.96031E+04  3.69721E+04 -5.95242E+04  4.91950E+04 -1.59257E+04
  4.58580E+04  1.19682E+04  3.30931E+04  2.66437E+04  1.66802E+04  3.19035E+04 -4.95867E+03  2.83105E+04
 -2.16452E+04  9.89720E+03 -1.79080E+04 -5.22186E+03  5.64424E+03 -6.91439E+03  2.46526E+04  1.18881E+04
  7.45947E+03  3.80423E+04 -3.50253E+04  3.78910E+04 -6.71588E+04  1.72675E+03 -6.07239E+04 -4.51319E+04
 -1.25288E+04 -6.74504E+04  4.12223E+04 -4.79706E+04  6.35899E+04 -2.29328E+03  3.77298E+04  3.50435E+04
 -6.28209E+03  4.24668E+04 -3.16336E+04  2.12314E+04 -3.60620E+04 -3.62174E+03 -2.25204E+04 -1.29464E+04
 -9.97812E+03 -1.50361E+04 -1.54072E+03 -2.02594E+04  1.01554E+04 -2.48110E+04  1.67098E+04 -1.04524E+04
  8.68355E+03  6.80912E+03 -1.01166E+04  1.23494E+04 -2.33780E+04 -9.00503E+03 -7.30879E+03 -4.06783E+04
  2.56352E+04 -4.86482E+04  5.31106E+04 -2.23702E+04  5.06073E+04  2.10098E+04  1.82969E+04  4.78224E+04
 -1.89231E+04  3.67173E+04 -2.81967E+04  4.25352E+03 -1.42171E+04 -3.01525E+04  2.20285E+04 -3.99365E+04
  4.80968E+04 -1.14946E+04  4.29356E+04  2.49305E+04  2.29724E+04  5.32564E+04 -7.74466E+03  5.81060E+04
 -3.66077E+04  4.19500E+04 -5.04982E+04  1.18260E+04 -5.01593E+04 -1.76545E+04 -2.89820E+04 -4.42522E+04
  8.08756E+03 -4.46043E+04  3.50689E+04 -1.91410E+04  3.29026E+04  9.67780E+03  3.52754E+03  2.32876E+04
 -1.37343E+04  7.56588E+03 -1.15023E+04 -8.45659E+03  6.12481E+03 -1.18244E+04  2.06246E+04  4.76577E+03
  1.51917E+04  2.25491E+04 -5.02001E+03  2.72127E+04 -2.46845E+04  1.57055E+04 -3.38573E+04 -1.36832E+03
 -2.87253E+04 -1.88685E+04 -1.49238E+04 -2.76032E+04  5.03841E+03 -2.98519E+04  2.32736E+04 -2.80729E+04
  3.61571E+04 -1.50013E+04  4.14751E+04  5.66158E+03  2.82424E+04  2.63459E+04  5.39485E+03  4.39403E+04
 -2.09895E+04  3.57405E+04 -3.30584E+04  1.12463E+04 -2.20247E+04 -1.10679E+04 -4.69775E+03 -1.26430E+04
 -4.72381E+02 -5.87133E+02 -8.54889E+03  9.95426E+03 -2.30149E+04  2.85377E+03 -2.30994E+04 -1.08853E+04
 -1.31111E+04 -2.55498E+04  6.37331E+03 -3.02896E+04  1.93407E+04 -2.07898E+04  2.61515E+04 -2.43340E+03
  1.74875E+04  1.85012E+04 -1.23984E+03  2.37651E+04 -1.84869E+04  1.68310E+04 -2.62184E+04 -5.16301E+03
 -1.77078E+04 -2.37341E+04 -2.31827E+03 -3.02751E+04  1.31486E+04 -2.74269E+04  2.62111E+04 -1.17005E+04
  2.48618E+04 -2.52982E+03  1.93646E+04  6.70952E+03  1.17900E+04  2.22528E+03  1.32172E+04 -1.75115E+03
  2.40712E+04  2.91472E+03  2.67349E+04  1.97970E+04  2.05781E+04  4.33015E+04 -1.61023E+03  5.05495E+04
 -3.10839E+04  4.41381E+04 -4.85994E+04  2.13575E+04 -5.26051E+04 -5.16806E+03 -4.12918E+04 -3.10491E+04
 -1.50862E+04 -4.28630E+04  1.50387E+04 -3.59486E+04  3.20451E+04 -1.67889E+04  2.85251E+04  1.10976E+04
  9.59272E+03  2.10408E+04 -1.30439E+04  1.80200E+04 -2.46981E+04  2.41268E+03 -1.65361E+04 -1.24762E+04
 -2.62314E+03 -2.15804E+04  1.26717E+04 -1.65006E+04  1.57186E+04 -2.76833E+03  3.63420E+03  1.17774E+04
 -1.09246E+04  5.68184E+03 -1.20376E+04 -7.77673E+03 -3.36764E+03 -2.12583E+04  1.36453E+04 -2.44121E+04
  2.61510E+04 -1.64080E+04  3.13230E+04  4.28437E+03  2.88951E+04  2.09476E+04  1.31073E+04  3.38540E+04
 -6.55125E+03  3.61468E+04 -2.50023E+04  2.37684E+04 -2.76978E+04  5.30662E+03 -1.91653E+04 -8.21490E+03
 -5.99517E+03 -9.13646E+03  2.54543E+02  5.22803E+02 -3.67189E+03  6.77664E+03 -8.42096E+03  7.79701E+03
 -1.72561E+04 -3.15372E+03 -1.60756E+04 -1.37287E+04 -6.86346E+03 -2.33539E+04  8.67047E+03 -1.74164E+04
  1.55799E+04 -7.74175E+03  1.04896E+04  3.80724E+03  3.25180E+02  7.05182E+03 -1.04584E+04 -1.26200E+03
 -1.10129E+04 -1.18084E+04 -6.59085E+02 -1.77950E+04  1.04915E+04 -1.84576E+04  2.33022E+04 -1.04086E+04
  2.88659E+04  3.14404E+03  1.87002E+04  1.88624E+04  4.04532E+03  2.41973E+04 -9.91297E+03  1.79224E+04
 -1.40633E+04  3.61537E+03 -6.40347E+03 -3.22323E+03  2.83950E+03 -2.71687E+03  8.42939E+03  4.64340E+02
  8.21164E+03  8.84836E+03  2.02484E+03  1.54995E+04 -9.24121E+03  1.43718E+04 -1.79675E+04  3.45234E+03
 -1.24425E+04 -9.52085E+03 -1.05942E+02 -1.56981E+04  9.97474E+03 -6.46892E+03  1.10803E+04  4.23232E+03
  4.27512E+03  1.22865E+04 -9.56361E+03  1.47574E+04 -1.77375E+04  6.52685E+03 -1.69759E+04 -5.25199E+03
 -1.13228E+04 -1.82554E+04  5.88573E+03 -2.21405E+04  1.73564E+04 -1.69156E+04  2.13986E+04  3.01025E+03
  1.14150E+04  1.75990E+04 -3.07610E+03  2.12466E+04 -1.53964E+04  9.40131E+03 -1.66149E+04 -3.15243E+03
 -1.30576E+04 -1.29129E+04 -1.18453E+03 -1.61016E+04  1.10410E+04 -1.03284E+04  8.58244E+03 -3.02850E+03
  6.80168E+03  2.24868E+03 -1.23322E+03  2.41987E+03 -3.24894E+03 -3.91489E+03  4.66559E+03 -1.03516E+04
  1.23007E+04 -8.16764E+03  2.20938E+04  2.95683E+03  2.04173E+04  1.63731E+04  1.21227E+04  2.86984E+04
 -5.89283E+03  2.99098E+04 -2.37656E+04  2.28123E+04 -3.53209E+04  4.60481E+03 -2.57445E+04 -1.27975E+04
 -1.31115E+04 -2.27939E+04 -2.36725E+02 -1.59219E+04  7.38681E+03 -1.02689E+04  7.74182E+03 -7.26018E+03
  5.37482E+03 -2.14400E+03  3.45542E+03 -3.67934E+03  8.42339E+03 -6.12204E+03  9.97590E+03 -4.21138E+03
  1.27635E+04  3.26340E+03  8.78278E+03  1.08656E+04 -1.75190E+03  1.37983E+04 -1.39875E+04  1.07708E+04
 -1.82299E+04 -1.48411E+03 -1.14823E+04 -1.33256E+04 -2.18631E+03 -1.99711E+04  1.10651E+04 -2.06001E+04
  2.36597E+04 -1.10180E+04  2.60483E+04  3.88536E+03  1.78190E+04  1.54942E+04  4.54194E+03  2.41105E+04
 -9.66469E+03  1.85404E+04 -1.41280E+04  6.24243E+03 -9.79862E+03 -2.72201E+03 -1.96841E+03 -3.81415E+03
 -7.10639E+02 -1.92386E+03 -5.49336E+02  2.81612E+03 -7.87404E+03  2.95290E+03 -1.20047E+04 -2.21303E+03
 -1.02522E+04 -1.16915E+04 -4.96817E+02 -1.92056E+04  1.20470E+04 -1.62833E+04  2.03291E+04 -6.15393E+03
  1.92197E+04  1.07208E+04  1.11270E+04  1.89285E+04 -4.95854E+03  2.10314E+04 -1.52952E+04  1.39727E+04
 -2.06774E+04 -3.05242E+02 -1.40674E+04 -1.27107E+04 -1.48340E+03 -1.71487E+04  1.09292E+04 -1.15600E+04
  1.17996E+04 -5.57445E+03  8.71899E+03  4.72427E+03  3.71905E+03  5.35056E+03  4.19164E+02  2.90868E+03
  1.83438E+03  1.42324E+03  5.07948E+03  2.01462E+03  4.85116E+03  7.25053E+03  4.52105E+03  1.08673E+04
 -3.79206E+03  1.73199E+04 -1.46182E+04  1.54813E+04 -2.29573E+04  4.85066E+03 -2.20978E+04 -9.89192E+03
 -9.30805E+03 -2.18096E+04  2.12950E+03 -2.25671E+04  1.44565E+04 -1.57586E+04  1.75634E+04 -3.26149E+03
  1.24623E+04  7.83927E+03  2.56572E+02  1.07089E+04 -6.97322E+03  8.60787E+03 -1.06033E+04 -1.15251E+03
 -4.34660E+03 -7.53939E+03  5.66287E+03 -9.62748E+03  7.44598E+03 -4.10347E+03  8.92542E+03  1.30933E+03
  5.76748E+03  6.28060E+03  2.19429E+03  4.78633E+03 -2.03236E+03  5.26733E+03  2.46549E+03  1.31254E+02
  3.22741E+03 -2.26566E+03  6.89232E+03  4.79973E+03  5.14670E+03  9.23011E+03 -7.80543E+02  1.55962E+04
 -8.46084E+03  8.66549E+03 -1.51320E+04  3.20374E+03 -1.30092E+04 -3.80492E+03 -6.90405E+03 -1.03008E+04
  1.94923E+03 -7.05993E+03  6.62863E+03 -2.66916E+03  3.68868E+03  4.34451E+03 -3.41452E+02  7.30360E+03
 -6.71121E+03  1.77077E+03 -8.96548E+03 -5.26015E+03 -8.19213E+03 -1.21022E+04  2.70882E+03 -1.32456E+04
  8.37343E+03 -6.93572E+03  9.68651E+03 -1.76566E+02  7.38152E+03  4.36829E+03  1.87605E+03  7.53042E+03
 -3.72672E+03  2.02944E+03 -4.64804E+03 -4.93190E+03  3.64877E+03 -8.66125E+03  1.01107E+04 -6.82557E+03
  1.51295E+04  2.78666E+03  1.18912E+04  9.38302E+03  4.63581E+03  1.51344E+04 -7.64506E+03  1.63122E+04
 -1.13729E+04  7.99167E+03 -1.39143E+04 -1.31699E+03 -5.25810E+03 -1.02232E+04  1.86629E+03 -7.36589E+03
  7.14141E+03 -2.50076E+03  8.56519E+03  3.88389E+03  3.54250E+03  7.22941E+03 -1.59217E+03  6.59860E+03
 -3.48064E+03  3.76601E+03 -2.61895E+03 -4.50320E+02 -2.07619E+03  7.08871E+02 -1.73241E+03  1.48912E+03
 -3.43087E+03  5.44347E+03 -1.04528E+04  4.98137E+03 -1.58956E+04  1.36239E+01 -1.78698E+04 -1.22959E+04
 -8.67192E+03 -2.04724E+04  3.65067E+03 -2.30556E+04  1.50826E+04 -1.82597E+04  2.12260E+04 -7.52827E+03
  1.96665E+04  3.17212E+03  1.24299E+04  1.23855E+04  6.00502E+02  1.63729E+04 -5.56839E+03  1.24034E+04
 -9.12779E+03  4.03144E+03 -4.87478E+03 -2.15826E+03  3.79658E+02 -1.63377E+03 -1.11191E+03  7.87688E+02
 -2.63960E+03  7.62111E+01 -3.69757E+03  6.03362E+02 -1.50428E+03 -2.10170E+03 -1.64599E+03 -6.21641E+03
  6.58102E+03 -4.60317E+03  1.12620E+04  1.06286E+03  1.23161E+04  8.89203E+03  2.53104E+03  1.55126E+04
 -7.06151E+03  1.80520E+04 -1.61399E+04  1.05071E+04 -2.27682E+04 -2.07361E+03 -1.35169E+04 -1.24305E+04
 -6.44997E+03 -1.65864E+04  6.55763E+03 -1.61797E+04  1.16434E+04 -8.29770E+03  1.31357E+04 -1.27885E+03
  5.87576E+03  6.63576E+03 -7.06281E+02  4.30961E+03 -4.06721E+03 -8.16457E+02 -6.56984E+02 -2.67843E+03
  5.46760E+03 -2.59299E+03  6.96863E+03  2.79648E+03  5.32730E+03  3.66168E+03 -5.70024E+02  8.61700E+03
 -7.17946E+03  9.44262E+03 -1.07025E+04  4.92331E+02 -8.61202E+03 -7.99110E+03 -2.10414E+03 -1.54255E+04
  7.22632E+03 -1.34709E+04  1.27395E+04 -5.31233E+03  1.25937E+04  4.01821E+03  7.11900E+03  9.33717E+03
  9.05127E+02  1.17733E+04 -5.24677E+03  9.47645E+03 -8.13216E+03  4.35822E+03 -5.51136E+03  1.52172E+03
 -2.63597E+03 -2.08721E+03 -2.96557E+03  2.89196E+03 -5.44470E+03  8.27840E+02 -9.04174E+03 -2.73892E+02
 -7.83000E+03 -6.65072E+03 -3.35735E+03 -1.13225E+04  4.92907E+03 -1.02555E+04  1.07139E+04 -6.50377E+03
  1.25986E+04  1.64026E+03  5.47026E+03  7.60014E+03 -1.52616E+03  1.38209E+04 -8.39316E+03  8.17338E+03
