 $NMID ID='MM_0lb_SNR200_20hz_g40_32.RAW', FMTDAT='(8E13.5)'
 TRAMP=1., VOLUME=1. $END
  3.09045E+05  1.24556E+03  3.37432E+05  2.51202E+05  8.35579E+04  3.37771E+05 -1.32367E+05  2.49353E+05
 -1.89603E+05  8.22959E+04 -1.11115E+05 -3.27753E+04  2.41982E+03 -4.94405E+04  5.30963E+04  1.29947E+01
  3.54018E+04  5.35166E+04 -1.69182E+04  7.43848E+04 -6.00674E+04  6.13494E+04 -8.25876E+04  3.13818E+04
 -7.84790E+04 -1.03067E+04 -5.46236E+04 -5.03079E+04 -1.48490E+04 -6.77317E+04  2.56812E+04 -4.47313E+04
  3.88870E+04  3.86333E+03  1.53176E+04  4.65380E+04 -3.41280E+04  4.61611E+04 -6.48276E+04 -1.77799E+03
 -5.06052E+04 -5.58823E+04 -5.89663E+03 -7.40458E+04  3.26999E+04 -5.11554E+04  4.53385E+04 -1.65344E+04
  4.12265E+04  1.15727E+04  2.98678E+04  2.46196E+04  1.60612E+04  2.79208E+04 -4.67414E+03  2.65007E+04
 -2.14265E+04  1.29155E+04 -1.93879E+04 -3.70362E+03  3.91941E+03 -7.94067E+03  2.09743E+04  1.04928E+04
  7.63695E+03  3.14005E+04 -3.02189E+04  3.37735E+04 -5.94049E+04  2.68864E+03 -5.34726E+04 -4.01190E+04
 -1.31017E+04 -6.01966E+04  3.66748E+04 -4.26481E+04  5.39880E+04 -1.21890E+03  3.05809E+04  3.00529E+04
 -7.21875E+03  3.11444E+04 -2.80351E+04  1.15910E+04 -2.69816E+04 -6.15654E+03 -1.34107E+04 -9.68078E+03
 -5.97864E+03 -1.01794E+04 -7.95503E+02 -1.58072E+04  5.95697E+03 -2.21227E+04  1.41026E+04 -1.42998E+04
  1.34404E+04  4.37267E+03 -6.09863E+03  1.21818E+04 -1.79914E+04 -8.12087E+02 -7.35165E+03 -2.82304E+04
  1.99676E+04 -3.80771E+04  4.25901E+04 -1.80554E+04  3.94907E+04  1.69049E+04  1.38286E+04  3.99193E+04
 -1.52418E+04  3.02220E+04 -2.17002E+04  7.58994E+02 -7.45355E+03 -2.49139E+04  1.84696E+04 -2.95348E+04
  3.61530E+04 -6.72602E+03  2.90629E+04  2.19574E+04  1.44074E+04  4.04186E+04 -7.09122E+03  4.37961E+04
 -2.71229E+04  2.83795E+04 -3.52920E+04  8.02164E+03 -3.54524E+04 -1.45296E+04 -1.99836E+04 -3.23874E+04
  5.94507E+03 -3.25465E+04  2.83558E+04 -1.15269E+04  2.56082E+04  9.27430E+03  3.23986E+03  1.64658E+04
 -1.22364E+04  7.50072E+03 -8.65718E+03 -5.98125E+03  5.12197E+03 -9.90658E+03  1.57465E+04  6.48266E+03
  1.09890E+04  2.16893E+04 -5.96206E+03  2.07268E+04 -2.14118E+04  6.97899E+03 -2.37865E+04 -6.86362E+03
 -1.49761E+04 -1.67106E+04 -3.99597E+03 -1.63585E+04  3.58899E+03 -1.24723E+04  1.08587E+04 -1.30989E+04
  1.87554E+04 -1.25369E+04  2.58506E+04  1.05979E+03  1.99626E+04  1.56829E+04  3.30685E+03  3.02892E+04
 -1.56951E+04  2.56734E+04 -2.40638E+04  8.08184E+03 -1.91775E+04 -1.02035E+04 -3.88098E+03 -1.46184E+04
  2.80635E+03 -4.60142E+03 -1.90610E+03  5.41547E+03 -1.14759E+04  4.47864E+03 -1.26510E+04 -4.02094E+03
 -8.26147E+03 -1.46131E+04  5.08974E+03 -1.86268E+04  1.20555E+04 -1.29134E+04  1.29127E+04 -4.74883E+02
  8.62072E+03  1.05390E+04 -9.77065E+02  1.44149E+04 -9.48832E+03  8.02456E+03 -1.33030E+04 -3.20708E+03
 -1.06735E+04 -1.32910E+04 -4.05191E+02 -1.74124E+04  8.12404E+03 -1.34531E+04  1.46642E+04 -6.02779E+03
  1.29549E+04  8.99457E+02  8.47803E+03  3.89254E+03  4.77441E+03 -3.02272E+02  6.97752E+03 -1.15748E+03
  1.24533E+04  2.10949E+03  1.23315E+04  1.24848E+04  7.53511E+03  2.26464E+04 -3.64914E+03  2.24689E+04
 -1.38613E+04  1.73585E+04 -2.10334E+04  7.95268E+03 -2.14233E+04 -1.30994E+03 -1.93537E+04 -1.12459E+04
 -9.31961E+03 -1.70235E+04  5.34488E+03 -1.69522E+04  1.51570E+04 -1.06433E+04  1.42190E+04  3.46315E+03
  5.94858E+03  1.05811E+04 -6.55844E+03  1.05178E+04 -1.10500E+04  3.61811E+03 -8.88099E+03 -6.41989E+03
 -5.05207E+02 -1.12688E+04  5.63272E+03 -8.92477E+03  6.83706E+03 -1.66142E+03  1.54802E+03  4.65413E+03
 -3.83992E+03  6.01769E+02 -2.82082E+03 -3.06268E+03  1.21016E+03 -8.73021E+03  7.43131E+03 -8.49365E+03
  1.01703E+04 -3.65459E+03  9.87406E+03  2.71024E+03  8.81437E+03  8.21995E+03  2.49577E+03  1.21888E+04
 -1.19440E+03  1.31943E+04 -7.16179E+03  9.04617E+03 -1.04394E+04  2.90164E+03 -8.29629E+03 -1.11614E+03
 -3.29632E+03 -2.42463E+03 -6.30606E+02  2.03780E+03 -1.66627E+03  1.33069E+03 -2.61979E+03  1.91084E+03
 -6.57610E+03 -4.66623E+02 -8.41401E+03 -6.60125E+03 -2.74200E+03 -1.06084E+04  2.79771E+03 -7.94991E+03
  5.42442E+03 -2.93254E+03  3.96660E+03  2.20836E+03 -4.20056E+02  1.60500E+03 -3.37951E+03  6.50507E+02
 -2.41197E+03 -5.29954E+03 -5.21245E+02 -6.29702E+03  3.26685E+03 -6.93809E+03  8.04024E+03 -2.97739E+03
  1.05426E+04  5.37288E+02  7.48657E+03  4.44446E+03  2.17105E+03  7.89614E+03 -4.09065E+03  7.47990E+03
 -6.58726E+03  2.75072E+03 -2.72631E+03 -6.24186E+02  4.41956E+02 -3.79186E+02  5.32038E+03 -5.75443E+02
  2.82037E+03  2.72711E+03  4.71051E+02  5.66995E+03 -4.03590E+03  4.12836E+03 -6.99087E+03  1.87585E+03
 -4.48068E+03 -3.17358E+03 -1.40098E+01 -6.09458E+03  3.76483E+03 -3.54214E+03  3.71622E+03  1.28590E+03
  3.36631E+02  2.18875E+03 -4.13712E+03  4.50458E+03 -2.96397E+03  1.39163E+03 -2.57940E+03 -6.34356E+02
 -1.59957E+03 -4.78691E+03  1.23036E+03 -5.11757E+03  4.93836E+03 -3.69990E+03  5.83885E+03  4.80497E+02
  3.23475E+03  3.61784E+03  2.34224E+02  5.87898E+03 -5.06072E+03  3.61203E+03 -4.66720E+03 -4.75463E+02
 -6.11973E+03 -4.38129E+03 -1.23690E+03 -3.64515E+03  2.78039E+03 -3.39774E+03  2.54917E+03 -2.08798E+03
  3.91011E+03 -2.55659E+02  4.22540E+01  2.06830E+03  8.03148E+02  6.28549E+02  2.13812E+01 -1.64349E+03
  3.89028E+03 -2.77462E+02  3.99785E+03 -9.64369E+02  5.26406E+03  1.92746E+03  3.97374E+03  6.08261E+03
 -8.30056E+02  6.63474E+03 -6.08295E+03  5.85746E+03 -7.78192E+03  9.96676E+02 -6.31229E+03 -2.01357E+03
 -3.71148E+03 -4.91497E+03 -1.54080E+02 -3.87666E+03  1.41694E+03 -1.74451E+03  1.52020E+03 -7.62162E+02
  6.67385E+02 -1.16014E+03  6.55498E+02 -1.62305E+03  3.21057E+03 -4.84243E+02  2.98585E+03  4.33296E+02
  4.72000E+03  1.07960E+03  5.21161E+02  1.90752E+03 -4.39597E+02  1.91770E+03 -4.85314E+03  1.94616E+03
 -3.99342E+03 -1.46529E+03 -1.44094E+03 -2.98997E+03  1.27523E+03 -4.49682E+03  3.32337E+03 -4.00156E+03
  3.43935E+03 -2.99723E+03  4.42692E+03 -1.44403E+02  3.95388E+03  3.38103E+03  4.26977E+02  5.41780E+03
 -2.01858E+03  5.33204E+03 -1.99037E+03  1.79913E+03 -1.26931E+03 -1.02402E+03 -1.76887E+03 -4.26939E+02
 -4.51853E+02  3.85699E+02 -1.14465E+02  1.69936E+03 -1.48653E+03  4.33773E+02 -4.41597E+03 -9.02782E+02
 -1.39128E+03 -3.09716E+03  8.62796E+02 -4.00323E+03  3.14834E+03 -3.37059E+03  3.25456E+03 -3.27991E+02
  2.03699E+03  1.60209E+03  2.08884E+03  2.33758E+03 -7.60459E+02  3.59791E+03 -3.15609E+03  2.81271E+03
 -3.34504E+03  9.60644E+02 -3.26482E+03 -2.58760E+03  1.11422E+02 -3.40345E+03  1.07948E+03 -1.38132E+03
  3.02285E+03 -1.65052E+03  1.48753E+03 -3.19424E+02  5.19657E+01  2.54622E+03  9.54893E+02  2.82003E+02
  1.73200E+03  1.78175E+02  1.24744E+03  1.21498E+03  2.30091E+02  2.31159E+03  7.31406E+02  1.23218E+02
 -1.29145E+03  2.71556E+03 -1.25126E+03  2.95548E+03 -2.08352E+03  1.13610E+03 -3.22294E+03  4.56677E+02
 -1.29026E+03 -1.66149E+03  5.76537E+02 -3.60589E+03  1.45860E+03 -1.76570E+03  2.46989E+03 -1.60248E+03
  2.02762E+03  6.62084E+02  7.96315E+02  2.17208E+03  3.49667E+02  1.16464E+03 -4.14815E+02 -2.72436E+02
 -7.10733E+02 -8.58625E+02  5.72534E+02 -1.60294E+03  1.44186E+02 -3.04311E+02  1.59677E+03  6.54906E+02
 -6.88754E+01 -6.76285E+02  1.87536E+03 -2.56576E+02  5.54802E+01  3.54187E+02  1.55795E+03  4.30392E+02
  2.07594E+02  9.13953E+02  1.22293E+03 -8.94891E+02  2.17377E+01  2.11633E+03 -1.71592E+00  1.92957E+03
 -1.62055E+03  7.73321E+02 -1.49818E+03 -7.79826E+02 -1.97367E+03 -5.77661E+02 -2.55927E+00 -3.72372E+02
 -3.61998E+02 -5.85599E+02 -1.90017E+02 -1.31949E+03  1.20599E+03  4.44331E+02 -2.62285E+02  1.10543E+03
 -7.67044E+02  6.12312E+02 -4.33098E+02 -7.09456E+02 -1.33137E+03 -7.80331E+02  4.53156E+02 -2.04566E+03
  5.87495E+02 -7.17426E+02 -5.09458E+02  9.23867E+02  1.33950E+03 -7.76700E+02 -2.67498E+02  8.39432E+02
 -4.29997E+02 -8.08601E+02 -1.38697E+03 -4.34256E+01  1.64123E+03 -2.42586E+02  1.23547E+03 -9.99807E+02
  1.04476E+03  3.86807E+02  1.36914E+03 -5.49364E+02  5.88299E+02  7.22507E+02  3.24261E+02  1.61512E+03
 -7.76150E+02  6.81494E+02 -6.00668E+02  2.79111E+02 -7.66002E+02 -1.78702E+03  4.10858E+02  5.67698E+01
  9.42910E+02 -5.44134E+02  1.02455E+03  9.13600E+02 -3.32012E+01  1.15707E+03  1.11587E+03  1.60500E+03
 -1.18559E+02  9.99806E+01 -2.63522E+02  1.74230E+02 -9.25130E+02  2.97360E+02  2.37770E+00  6.54586E+02
 -1.83987E+02  2.08907E+02 -1.72558E+03  4.68841E+02 -9.01697E+02 -1.57652E+02 -1.75700E+03 -5.73821E+02
 -1.20062E+03 -1.99421E+03  4.32791E+01 -2.57683E+03  1.15246E+03 -1.95488E+03  1.84260E+03 -9.76391E+02
  2.53632E+03  1.23144E+03  1.13435E+03  1.67259E+02  9.28993E+01  7.44546E+02  1.34074E+02  8.33043E+02
 -8.25739E+02  2.72341E+02 -2.91512E+02  4.68100E+02 -4.36459E+01 -2.02950E+02 -5.98394E+02 -2.95293E+02
 -5.87285E+02  1.34896E+02 -1.71979E+03 -7.77697E+02 -2.30602E+02 -9.37854E+02 -1.17694E+03 -5.62487E+02
  1.64112E+03  1.55420E+02  4.56422E+02 -1.18551E+03  1.22614E+03  4.37586E+02 -4.34011E+02  1.29820E+03
  3.03616E+01  1.62124E+03 -1.35619E+03  1.46995E+03 -1.29321E+03  5.12342E+02 -5.08643E+02 -7.80207E+02
 -6.22116E+02 -1.73295E+03  7.34205E+02 -6.31997E+02 -3.95540E+02 -7.37050E+02  5.22716E+02 -8.53075E+02
  5.26497E+02 -1.29248E+02  8.92954E+02  3.02210E+02  5.36882E+02  4.88158E+01 -3.51518E+02  6.87470E+02
  1.66105E+02 -6.12536E+02  1.40105E+03 -7.36666E+02 -3.20507E+02 -2.54217E+02  3.02608E+02 -9.57632E+02
 -5.43925E+02  5.90172E+02 -8.52607E+02  2.11953E+02 -5.66027E+02 -1.11372E+02 -1.06620E+02 -7.64667E+02
 -2.17249E+02 -4.59331E+02  4.89784E+02 -6.30661E+02  2.23910E+02 -2.88480E+02  6.61572E+02  1.31512E+03
 -3.01850E+02  1.02308E+03  3.30370E+02  3.32667E+01 -4.89675E+01  7.37169E+02 -1.13083E+02  7.81584E+02
  2.38357E+02  4.59213E+02 -1.25266E+02  4.49438E+01 -1.80005E+02  8.36385E+01 -3.55339E+00  5.76213E+02
 -3.79405E+02  7.30575E+02 -5.02242E+02 -3.10402E+02  3.87490E+02 -4.28119E+02 -1.65456E+02 -8.84507E+02
  9.37338E+01  3.90837E+02 -5.48494E+02 -2.40317E+02  2.11706E+01  4.17733E+02  8.47355E+02  1.68624E+02
