 $NMID ID='MM_0lb_SNR200_17hz_g60_10.RAW', FMTDAT='(8E13.5)'
 TRAMP=1., VOLUME=1. $END
  3.09831E+05 -2.05614E+00  3.36026E+05  2.50818E+05  8.42129E+04  3.37303E+05 -1.31211E+05  2.51293E+05
 -1.90842E+05  8.20232E+04 -1.12023E+05 -3.23022E+04  1.40956E+03 -5.01750E+04  5.30875E+04  9.62475E+00
  3.59123E+04  5.22213E+04 -1.73178E+04  7.55152E+04 -6.10129E+04  6.33649E+04 -8.41067E+04  3.26378E+04
 -8.06384E+04 -1.28549E+04 -5.77469E+04 -5.15604E+04 -1.49261E+04 -6.95200E+04  2.69921E+04 -4.53721E+04
  4.10159E+04  2.38597E+03  1.63872E+04  4.84328E+04 -3.41009E+04  4.73883E+04 -6.60033E+04  7.98559E+02
 -5.40378E+04 -5.58100E+04 -6.19036E+03 -7.78838E+04  3.44487E+04 -5.44691E+04  4.69371E+04 -1.76586E+04
  4.28620E+04  1.18350E+04  3.10656E+04  2.53715E+04  1.51221E+04  3.00279E+04 -5.38441E+03  2.72224E+04
 -2.29523E+04  1.26251E+04 -1.91529E+04 -5.05199E+03  4.38105E+03 -8.10237E+03  2.22397E+04  1.20501E+04
  7.29285E+03  3.41478E+04 -3.17774E+04  3.46410E+04 -6.32639E+04  2.31459E+03 -5.67523E+04 -4.33042E+04
 -1.16788E+04 -6.24779E+04  3.88856E+04 -4.52149E+04  5.71503E+04 -1.30652E+03  3.37208E+04  3.14981E+04
 -5.68776E+03  3.62754E+04 -2.92329E+04  1.61665E+04 -2.95841E+04 -4.76073E+03 -1.73001E+04 -1.01970E+04
 -8.73070E+03 -1.21239E+04 -1.64677E+02 -1.81448E+04  7.13205E+03 -2.38073E+04  1.50436E+04 -1.27646E+04
  1.16799E+04  4.80237E+03 -8.32667E+03  1.31774E+04 -2.03276E+04 -4.35099E+03 -8.27130E+03 -3.32368E+04
  2.31870E+04 -4.23852E+04  4.79978E+04 -2.00723E+04  4.38700E+04  1.85312E+04  1.50430E+04  4.33908E+04
 -1.51517E+04  3.28304E+04 -2.50408E+04  1.91412E+03 -8.96466E+03 -2.80602E+04  2.12456E+04 -3.31241E+04
  4.00995E+04 -9.69010E+03  3.38602E+04  2.29106E+04  1.68587E+04  4.58327E+04 -8.11647E+03  4.92340E+04
 -3.06635E+04  3.35896E+04 -4.15076E+04  8.48150E+03 -4.20410E+04 -1.78754E+04 -2.25204E+04 -3.81471E+04
  6.88044E+03 -3.68016E+04  3.19349E+04 -1.47035E+04  2.81861E+04  1.11376E+04  3.02874E+03  1.91651E+04
 -1.40637E+04  7.84759E+03 -1.03331E+04 -8.82276E+03  6.27442E+03 -9.99671E+03  1.82492E+04  5.30198E+03
  1.36102E+04  2.26657E+04 -4.96396E+03  2.47991E+04 -2.12843E+04  1.11573E+04 -2.74474E+04 -5.72072E+03
 -2.02610E+04 -1.76883E+04 -8.24596E+03 -1.94591E+04  3.72560E+03 -1.86354E+04  1.39350E+04 -1.78037E+04
  2.47609E+04 -1.27292E+04  3.18235E+04  3.51264E+03  2.41494E+04  1.81954E+04  5.12502E+03  3.60910E+04
 -1.79879E+04  2.99536E+04 -2.66001E+04  9.39140E+03 -2.01073E+04 -9.55300E+03 -3.33400E+03 -1.37056E+04
  1.26954E+03 -2.26238E+03 -4.29910E+03  5.72672E+03 -1.51620E+04  5.84434E+03 -1.46492E+04 -5.19858E+03
 -9.76638E+03 -1.81083E+04  4.61429E+03 -2.24681E+04  1.48811E+04 -1.63410E+04  1.74112E+04 -1.65507E+03
  1.02625E+04  1.11286E+04 -1.13635E+03  1.90527E+04 -1.30899E+04  1.06501E+04 -1.66317E+04 -3.61272E+03
 -1.30034E+04 -1.56022E+04 -2.40929E+03 -2.12621E+04  9.78188E+03 -1.71229E+04  1.87923E+04 -8.58877E+03
  1.72008E+04 -2.32255E+02  1.14484E+04  4.62779E+03  6.53632E+03  1.39050E+03  9.58178E+03 -1.95385E+03
  1.61715E+04  2.80255E+03  1.79541E+04  1.42366E+04  1.17035E+04  2.90731E+04 -3.42507E+03  3.30255E+04
 -1.82450E+04  2.58182E+04 -3.00242E+04  1.22422E+04 -3.02550E+04 -8.50797E+02 -2.50850E+04 -1.75795E+04
 -1.16733E+04 -2.51378E+04  8.86796E+03 -2.24374E+04  1.99961E+04 -1.16062E+04  1.79078E+04  4.59890E+03
  6.50151E+03  1.28235E+04 -9.50103E+03  1.03070E+04 -1.64504E+04  2.69387E+03 -1.18894E+04 -9.42543E+03
 -1.22533E+03 -1.42308E+04  6.39437E+03 -1.01348E+04  9.09658E+03 -8.49873E+02  6.62097E+02  6.95861E+03
 -7.02636E+03  2.33345E+03 -6.30983E+03 -3.73776E+03 -1.61170E+02 -1.25372E+04  9.26205E+03 -1.17759E+04
  1.42344E+04 -6.20857E+03  1.58915E+04  4.59749E+03  1.39517E+04  1.28121E+04  7.27487E+03  1.80273E+04
 -3.15884E+03  1.90522E+04 -1.21661E+04  1.27366E+04 -1.44342E+04  2.93801E+03 -9.11533E+03 -4.29501E+03
 -5.82834E+03 -3.95103E+03 -1.11619E+03  1.20162E+03 -2.16793E+03  1.50114E+03 -4.53072E+03  4.58588E+03
 -8.68851E+03 -7.13382E+02 -9.98879E+03 -7.57927E+03 -5.29923E+03 -1.36583E+04  4.67706E+03 -9.77766E+03
  9.32317E+03 -2.43667E+03  6.26460E+03  2.03078E+03  1.07426E+03  3.17383E+03 -5.06884E+03  1.95515E+02
 -4.84200E+03 -6.28103E+03 -7.61298E+02 -8.87254E+03  4.45661E+03 -1.01861E+04  1.26910E+04 -4.75314E+03
  1.33095E+04  9.04366E+02  9.67481E+03  7.65380E+03  1.23033E+03  1.14873E+04 -6.56028E+03  9.12575E+03
 -7.75392E+03  4.01026E+03 -4.36232E+03 -1.08609E+03  1.52825E+03 -2.72978E+03  5.24163E+03 -4.86251E+02
  4.92062E+03  4.17740E+03  1.25686E+03  6.62813E+03 -5.89935E+03  8.18915E+03 -9.27962E+03  2.45076E+03
 -6.51663E+03 -4.92799E+03  1.42950E+03 -8.12006E+03  4.19172E+03 -3.96748E+03  4.36585E+03  2.42182E+03
  1.14101E+02  4.14393E+03 -5.56495E+03  6.57069E+03 -6.69852E+03  3.68898E+03 -6.30054E+03 -1.60578E+03
 -4.97003E+03 -8.62379E+03  1.61509E+03 -9.44413E+03  7.76174E+03 -5.96951E+03  7.70187E+03  1.64487E+03
  6.26504E+03  6.13694E+03  7.69208E+02  9.46579E+03 -6.25907E+03  3.26089E+03 -6.81981E+03 -7.02527E+02
 -6.89376E+03 -4.85215E+03 -2.19454E+03 -5.99943E+03  4.77038E+03 -5.51263E+03  3.44023E+03 -3.14110E+03
  3.05935E+03 -3.54350E+01  5.10383E+02  1.18114E+03  1.51992E+03 -8.56013E+02  6.24530E+02 -2.68796E+03
  5.37654E+03 -8.13725E+02  7.53952E+03  8.04951E+02  7.93901E+03  4.69775E+03  5.87889E+03  1.01693E+04
 -1.84062E+03  1.00294E+04 -1.00878E+04  7.87076E+03 -1.37820E+04  1.23362E+03 -9.39423E+03 -3.92148E+03
 -4.83093E+03 -7.97460E+03 -6.57080E+02 -6.04151E+03  1.82519E+03 -2.05043E+03  1.65478E+03 -2.67912E+03
  1.64515E+03 -1.73366E+03  2.97744E+03 -2.42237E+03  3.29808E+03 -1.39389E+03  3.12220E+03 -3.23277E+02
  5.24356E+03  1.52420E+03  1.88806E+03  4.64107E+03 -1.12619E+03  4.59805E+03 -5.96883E+03  4.01764E+03
 -6.00002E+03 -7.14359E+02 -2.43338E+03 -5.82398E+03 -1.73685E+02 -7.24103E+03  2.61021E+03 -6.80665E+03
  6.19023E+03 -4.51468E+03  8.58422E+03  1.64319E+03  6.94122E+03  5.30937E+03  1.74199E+03  7.14200E+03
 -3.06528E+03  6.79182E+03 -4.23912E+03  2.98347E+03 -2.47257E+03 -1.14534E+03 -5.03654E+02 -1.36735E+03
 -1.93113E+03  8.66515E+02 -1.82009E+03  2.73629E+03 -3.20151E+03  5.26820E+02 -6.67361E+03 -8.20508E+02
 -3.52491E+03 -5.60709E+03  4.54096E+02 -5.60089E+03  3.64656E+03 -5.78178E+03  5.64554E+03 -2.24646E+03
  4.69517E+03  2.71420E+03  2.41962E+03  4.68332E+03 -6.93674E+02  5.47277E+03 -2.61434E+03  4.25458E+03
 -5.53140E+03  3.05683E+02 -4.21550E+03 -3.29802E+03 -4.37572E+02 -4.66438E+03  1.80122E+03 -4.06710E+03
  3.96059E+03 -2.49849E+02  2.98010E+03  2.41306E+02  1.41893E+03  1.74366E+03  6.03387E+02  1.30349E+03
  1.79746E+03 -6.76491E+02  1.92863E+03  8.07560E+02  2.63647E+03  2.91774E+03  1.20636E+03  2.66587E+03
 -7.62044E+02  3.99653E+03 -3.94427E+03  5.03306E+03 -4.84743E+03  1.55786E+03 -6.32152E+03 -6.00503E+02
 -2.37839E+03 -5.01567E+03  1.07180E+03 -6.56180E+03  2.87026E+03 -3.92729E+03  4.21751E+03 -1.37645E+03
  2.45117E+03  1.82376E+03  1.59749E+02  3.71576E+03 -1.57007E+03  1.42128E+03 -7.38612E+02 -6.67447E+01
 -1.57327E+03 -7.92042E+02  1.11386E+03 -2.32233E+03  2.04552E+03 -1.29574E+03  2.55651E+03  5.07754E+01
  7.70445E+02  1.19864E+02  8.77689E+02 -9.89244E+02 -3.48769E+02  1.17499E+03  1.92315E+03  7.37729E+02
  8.59081E+01 -5.48085E+02  1.74871E+03  1.11136E+02  1.25941E+03  3.32640E+03 -8.48185E+02  4.37554E+03
 -1.33079E+03  1.31734E+03 -3.57601E+03  4.46811E+01 -2.31201E+03 -1.29976E+03 -8.71776E+02 -1.08947E+03
 -8.67473E+01 -2.87185E+03  1.28261E+03 -1.65683E+03  1.64801E+03  1.03632E+03 -1.68756E+03  1.29527E+03
 -1.14218E+03  1.26831E+03 -2.31422E+03 -1.78945E+03 -5.21347E+01 -2.30722E+03  1.21332E+03 -2.21855E+03
  6.46207E+02 -7.68628E+02  1.67454E+03 -1.63733E+02  1.79591E+03  1.24515E+02  1.43589E+01  1.32156E+03
  7.24986E+02 -1.14182E+03 -6.13280E+02  1.82977E+02  3.09141E+02 -1.64089E+03  2.52397E+03 -7.87178E+02
  2.04727E+03  1.11795E+03  2.72482E+03  2.49651E+03  2.24830E+03  1.73865E+03  2.26191E+01  2.59435E+03
 -2.64677E+03  5.09457E+02 -2.04787E+03  6.20004E+02 -1.44599E+03 -1.97246E+03  3.57450E+02 -2.03713E+03
  2.16846E+03 -3.08914E+02  6.86211E+02  1.54360E+03  3.84856E+02  7.17413E+02 -7.35223E+02  1.41502E+03
 -5.12764E+02  1.94046E+03 -6.65618E+01 -1.75819E+02 -1.10611E+03 -4.74059E+02 -8.07333E+01  1.55132E+03
 -3.74818E+02  8.21646E+02 -2.58331E+03  1.26275E+03 -2.06813E+03 -6.34646E+02 -2.67937E+03 -9.97819E+02
 -1.84085E+03 -3.52196E+03  2.12076E+02 -2.93991E+03  9.79665E+02 -3.18923E+03  1.92027E+03 -6.71137E+02
  2.97550E+03 -3.83654E+02  1.08430E+03  2.42976E+03 -9.52562E+02  3.13682E+03 -9.96646E+02  1.66177E+03
 -4.32922E+02  9.65722E+02 -1.36613E+03 -2.99033E+02  8.20395E+02  4.95925E+02 -2.59456E+01  3.39155E+02
 -5.50266E+02 -1.41041E+02 -7.12511E+02  9.10912E+02  4.75873E+01 -4.87980E+02 -1.51614E+03 -4.21578E+02
  8.92735E+02  5.76295E+02  1.36437E+03  7.70605E+02  1.04376E+03  6.78484E+02 -9.30192E+02  1.90873E+03
 -1.30214E+03  2.30911E+03 -1.20309E+03  1.48442E+03 -2.62164E+03  3.99283E+02 -2.11490E+03 -1.81726E+03
 -4.24186E+02 -1.64196E+03  7.00790E+02 -1.41849E+03  1.09084E+03 -1.12196E+03  1.11943E+03  8.66911E+02
 -4.32031E+02  7.45371E+02 -4.50231E+02  2.27829E+02 -5.81786E+02 -9.54892E+02 -3.67590E+02 -9.36220E+02
 -4.75237E+02  1.65845E+03 -8.75539E+01  6.71100E+01  1.50624E+03 -3.83141E+02  1.52854E+02 -9.97435E+02
 -6.71630E+02  5.54546E+02 -6.98429E+02  6.49618E+02 -1.10036E+03 -1.35213E+03  4.41119E+02 -1.79620E+03
  1.13182E+03 -9.20977E+02  5.97627E+02 -1.86033E+02  6.89151E+02 -1.33804E+03  2.23063E+02  6.52971E+02
  5.80930E+02  5.33211E+02  1.33272E+03  6.47454E+01 -1.55074E+03  1.83411E+02 -4.16454E+02 -1.67378E+02
 -1.08944E+03  6.41374E+02 -1.27028E+03  2.37369E+02 -3.17860E+02  5.59241E+02 -1.95603E+03  3.87212E+02
 -1.64870E+03  2.79840E+02 -7.47714E+02 -9.15396E+02  8.80611E+02 -1.82169E+03  1.63378E+03  3.68798E+02
  9.23682E+02  2.02687E+02 -4.89481E+02  1.13756E+03 -2.95057E+02  9.26867E+02 -9.56938E+02  6.21629E+02
