 $NMID ID='MM_0lb_SNR200_7hz_g50_88.RAW', FMTDAT='(8E13.5)'
 TRAMP=1., VOLUME=1. $END
  3.11896E+05  4.54277E+02  3.36703E+05  2.51545E+05  8.44130E+04  3.37208E+05 -1.32658E+05  2.53215E+05
 -1.91167E+05  8.31478E+04 -1.10830E+05 -3.16792E+04 -3.01125E+03 -4.97373E+04  5.17744E+04 -4.89812E+02
  3.46916E+04  5.24857E+04 -1.58254E+04  7.72969E+04 -6.25380E+04  6.45185E+04 -8.54166E+04  3.27363E+04
 -8.34604E+04 -1.29072E+04 -5.75162E+04 -5.11643E+04 -1.50007E+04 -7.11955E+04  2.85128E+04 -4.73177E+04
  4.13287E+04  2.77700E+03  1.59037E+04  5.09837E+04 -3.66641E+04  5.06054E+04 -7.02858E+04  1.33373E+03
 -5.61409E+04 -5.82207E+04 -8.49397E+03 -7.91596E+04  3.44185E+04 -6.03257E+04  5.07784E+04 -1.75947E+04
  4.63396E+04  1.14409E+04  3.34424E+04  2.69360E+04  1.39912E+04  3.19322E+04 -5.36747E+03  2.67372E+04
 -2.23817E+04  1.13609E+04 -1.72221E+04 -6.18961E+03  8.23691E+03 -7.98776E+03  2.55925E+04  1.49474E+04
  6.73303E+03  3.89045E+04 -3.50285E+04  3.65149E+04 -6.66451E+04  2.48635E+03 -5.82749E+04 -4.32957E+04
 -1.14563E+04 -6.73250E+04  4.27967E+04 -4.82909E+04  6.16601E+04 -3.42123E+03  3.65445E+04  3.63629E+04
 -4.83711E+03  4.03785E+04 -3.15831E+04  1.83507E+04 -3.38406E+04 -4.02762E+03 -2.13412E+04 -1.23709E+04
 -8.52161E+03 -1.65754E+04 -2.16144E+03 -2.08754E+04  7.40520E+03 -2.40110E+04  1.55606E+04 -1.18597E+04
  1.11141E+04  6.51914E+03 -1.08907E+04  1.19911E+04 -2.33576E+04 -5.04446E+03 -8.71099E+03 -3.73883E+04
  2.43647E+04 -4.79023E+04  5.44791E+04 -2.07976E+04  5.16679E+04  1.98739E+04  1.81657E+04  4.70629E+04
 -1.84386E+04  3.59775E+04 -2.79629E+04  3.17281E+03 -1.27085E+04 -3.08985E+04  2.04148E+04 -3.72445E+04
  4.68285E+04 -1.28871E+04  4.15368E+04  2.58357E+04  2.25221E+04  5.31926E+04 -8.30066E+03  5.89617E+04
 -3.61701E+04  4.00976E+04 -5.12271E+04  1.10595E+04 -4.92478E+04 -1.91887E+04 -2.69143E+04 -4.33794E+04
  6.77864E+03 -4.33316E+04  3.61061E+04 -1.79509E+04  3.53196E+04  1.13225E+04  6.14191E+03  2.09886E+04
 -1.46192E+04  9.53401E+03 -1.20005E+04 -7.14469E+03  5.58992E+03 -1.12982E+04  1.99799E+04  6.04788E+03
  1.39047E+04  2.40484E+04 -5.28560E+03  2.74708E+04 -2.46355E+04  1.51305E+04 -3.13154E+04 -2.42988E+03
 -2.97729E+04 -1.80880E+04 -1.58230E+04 -2.74402E+04  4.58754E+03 -2.81472E+04  2.18309E+04 -2.44971E+04
  3.50940E+04 -1.44269E+04  4.01485E+04  8.78362E+03  2.93662E+04  2.63433E+04  4.90654E+03  4.23159E+04
 -2.01533E+04  3.51775E+04 -3.15048E+04  1.18492E+04 -2.28614E+04 -1.17235E+04 -3.68689E+03 -1.23815E+04
 -1.20370E+03  1.48811E+03 -8.16676E+03  9.84594E+03 -2.16719E+04  4.18614E+03 -2.17538E+04 -1.09055E+04
 -1.32194E+04 -2.50253E+04  7.95415E+03 -3.02533E+04  2.10739E+04 -2.21071E+04  2.54964E+04  5.84689E+02
  1.69088E+04  1.84460E+04 -7.00281E+02  2.47697E+04 -1.88758E+04  1.56284E+04 -2.61625E+04 -5.65838E+03
 -1.92794E+04 -2.17511E+04 -1.72174E+03 -3.06517E+04  1.41884E+04 -2.56056E+04  2.57384E+04 -1.55045E+04
  2.22605E+04 -8.54942E+02  1.86526E+04  5.98984E+03  7.41783E+03  1.88228E+03  1.35169E+04 -2.33908E+03
  2.54111E+04  1.93826E+03  2.71638E+04  2.01385E+04  1.91946E+04  4.09804E+04 -2.78769E+03  4.79870E+04
 -2.77062E+04  3.98401E+04 -4.67697E+04  2.13403E+04 -5.06837E+04 -3.88498E+03 -3.85061E+04 -2.81384E+04
 -1.59745E+04 -4.11935E+04  1.33561E+04 -3.47745E+04  3.10175E+04 -1.43831E+04  2.65849E+04  1.14144E+04
  1.01652E+04  2.05458E+04 -1.28795E+04  1.65092E+04 -2.17405E+04  3.78071E+03 -1.69772E+04 -1.48844E+04
 -2.48655E+03 -2.20874E+04  1.09788E+04 -1.45957E+04  1.46003E+04 -1.69702E+03  3.95348E+03  8.64301E+03
 -1.12036E+04  4.01898E+03 -1.12200E+04 -6.65267E+03 -2.65082E+03 -1.93769E+04  1.30585E+04 -2.21758E+04
  2.54726E+04 -1.45668E+04  3.03047E+04  3.22719E+03  2.70550E+04  2.13813E+04  1.11493E+04  3.40227E+04
 -6.58157E+03  3.52583E+04 -2.37894E+04  2.21676E+04 -2.69350E+04  5.58849E+03 -1.83506E+04 -7.22370E+03
 -9.48609E+03 -9.39123E+03  2.76755E+02 -2.91879E+02 -4.87898E+03  4.53444E+03 -7.73048E+03  6.47220E+03
 -1.66837E+04 -2.45150E+03 -1.69008E+04 -1.29365E+04 -4.08579E+03 -2.05680E+04  6.76621E+03 -1.72905E+04
  1.56431E+04 -6.83206E+03  1.02202E+04  4.23820E+03 -2.30873E+02  6.19923E+03 -8.53528E+03  2.82391E+02
 -7.59485E+03 -1.02807E+04 -1.91599E+03 -1.76477E+04  9.46885E+03 -1.80695E+04  2.21417E+04 -9.04690E+03
  2.94444E+04  4.42338E+03  2.10504E+04  1.93090E+04  3.23191E+03  2.14868E+04 -1.12154E+04  1.68735E+04
 -1.50652E+04  5.84386E+03 -6.04985E+03 -4.71958E+03  3.37490E+03 -5.54644E+03  8.20742E+03 -2.58633E+03
  9.29390E+03  8.83872E+03  2.05084E+03  1.31470E+04 -1.13313E+04  1.46476E+04 -1.86486E+04  1.05376E+03
 -1.17125E+04 -8.96149E+03 -6.16861E+02 -1.62998E+04  9.58508E+03 -8.70592E+03  9.94365E+03  4.50731E+03
  4.15504E+03  1.13538E+04 -1.07060E+04  1.44612E+04 -1.88961E+04  6.69218E+03 -1.62688E+04 -5.21427E+03
 -1.08575E+04 -1.92988E+04  4.57487E+03 -2.15355E+04  1.99274E+04 -1.21721E+04  1.87477E+04  3.48448E+03
  1.20138E+04  1.57085E+04 -1.78528E+03  1.85408E+04 -1.38948E+04  1.14892E+04 -1.83974E+04 -2.62311E+03
 -1.33701E+04 -1.42871E+04 -1.67524E+03 -1.56860E+04  6.30481E+03 -1.11645E+04  9.26084E+03 -4.08789E+03
  5.75757E+03  2.45169E+03 -1.55499E+03  2.61121E+03 -2.53517E+03 -4.48140E+03  2.82740E+03 -8.11897E+03
  1.30266E+04 -5.92635E+03  2.11591E+04 -7.95971E+01  1.94596E+04  1.40828E+04  1.25696E+04  2.48179E+04
 -7.66751E+03  3.14731E+04 -2.22470E+04  2.11639E+04 -2.95776E+04  3.88690E+03 -2.48624E+04 -1.10858E+04
 -1.33030E+04 -2.09462E+04 -1.18682E+03 -1.88047E+04  4.92860E+03 -1.20455E+04  6.56310E+03 -5.58034E+03
  4.08815E+03 -2.59586E+03  5.33597E+03 -3.91372E+03  7.45479E+03 -3.65305E+03  7.01897E+03 -1.84646E+03
  1.13139E+04  1.54596E+03  8.62897E+03  1.09913E+04 -3.91132E+03  1.41825E+04 -1.26261E+04  1.19255E+04
 -1.78659E+04 -1.40384E+02 -1.09224E+04 -1.21190E+04 -9.61119E+02 -1.94218E+04  1.02614E+04 -1.87089E+04
  1.90181E+04 -1.17514E+04  2.35582E+04  2.39396E+03  1.65131E+04  1.78499E+04  2.62204E+03  2.22311E+04
 -8.30612E+03  1.68190E+04 -1.45237E+04  5.09592E+03 -7.91249E+03 -2.55039E+03 -3.91233E+03 -1.98466E+03
 -2.00962E+03 -1.52161E+03 -1.03231E+03  5.80357E+03 -7.04378E+03  1.99845E+03 -1.31148E+04 -1.79607E+03
 -1.02772E+04 -1.13932E+04  2.43823E+02 -1.71966E+04  1.00880E+04 -1.85986E+04  2.03351E+04 -7.64797E+03
  1.97119E+04  6.92481E+03  7.26845E+03  1.89128E+04 -3.84554E+03  1.83214E+04 -1.43274E+04  1.16514E+04
 -1.86170E+04  9.22110E+02 -1.09860E+04 -1.11005E+04 -8.64436E+02 -1.52930E+04  7.43054E+03 -1.13789E+04
  1.21667E+04 -3.83157E+03  8.33532E+03  3.62451E+03  2.69381E+03  5.29099E+03  9.48051E+02  2.70117E+03
  2.84563E+03  3.84202E+02  3.65973E+03  2.71720E+03  4.40727E+03  3.79323E+03  5.20653E+03  1.06856E+04
 -6.25305E+03  1.62799E+04 -1.34662E+04  1.27388E+04 -2.17011E+04  6.09209E+03 -2.06101E+04 -8.79960E+03
 -9.68536E+03 -1.91892E+04  3.24506E+03 -1.97209E+04  9.87446E+03 -1.44595E+04  1.72395E+04 -3.73770E+03
  1.10395E+04  6.90069E+03  3.88933E+03  1.35871E+04 -4.11657E+03  7.23839E+03 -8.00333E+03  1.21034E+03
 -2.79232E+03 -8.94797E+03  4.77215E+03 -7.90706E+03  8.49397E+03 -4.09651E+03  6.40665E+03  2.89910E+03
  5.01851E+03  4.03928E+03  2.79174E+03  3.51948E+03 -1.67084E+03  1.83786E+03  2.79203E+03 -1.41705E+03
  2.86939E+03 -1.30764E+03  6.97905E+03  2.57349E+03  5.33818E+03  1.08767E+04 -8.08765E+02  1.32148E+04
 -9.48799E+03  9.04977E+03 -1.39820E+04  1.13990E+03 -1.16151E+04 -4.68225E+03 -3.08608E+03 -6.96019E+03
  1.83105E+03 -7.95893E+03  5.05923E+03 -5.16028E+03  3.42907E+03  3.04296E+03 -3.05352E+03  6.37522E+03
 -7.74848E+03  4.69593E+03 -1.04124E+04 -4.20828E+03 -5.70666E+03 -1.01504E+04 -2.76933E+02 -1.19920E+04
  8.42703E+03 -8.15619E+03  6.97735E+03 -1.74140E+03  7.31688E+03  1.63664E+03  7.22767E+02  6.48890E+03
 -3.71782E+03  1.70119E+03 -3.49243E+03 -5.66534E+03  1.74336E+03 -8.46169E+03  1.09001E+04 -4.92987E+03
  1.56244E+04  7.22972E+02  1.22851E+04  9.10124E+03  2.68436E+03  1.41646E+04 -6.14473E+03  1.37736E+04
 -1.13761E+04  6.37079E+03 -9.03064E+03 -3.13825E+03 -5.33939E+03 -7.63722E+03  1.14843E+03 -8.56987E+03
  7.14795E+03 -3.07988E+03  8.16618E+03  3.70107E+03  4.78529E+03  7.79291E+03  5.36071E+02  8.11325E+03
 -5.05373E+03  5.31002E+03 -3.37520E+03  3.54542E+02 -4.01011E+00 -4.28417E+01 -1.51034E+03  2.46342E+03
 -3.28174E+03  4.90201E+03 -9.57503E+03  4.27117E+03 -1.30713E+04 -2.33535E+03 -1.50355E+04 -8.66572E+03
 -8.60492E+03 -1.77577E+04  1.27692E+03 -2.07958E+04  1.29369E+04 -1.78167E+04  1.80617E+04 -4.11435E+03
  1.73961E+04  3.48416E+03  1.07363E+04  1.23489E+04  1.03059E+03  1.59614E+04 -5.83661E+03  1.05901E+04
 -7.01030E+03  4.39161E+03 -5.49217E+03  6.07589E+02 -2.21838E+03  3.77461E+02 -1.63373E+03  4.91189E+02
 -1.43597E+03 -1.24125E+02 -2.86161E+03 -4.69996E+01 -1.36161E+03 -2.81553E+03  6.15306E+02 -5.58390E+03
  7.04483E+03 -6.59618E+03  9.39016E+03 -1.64540E+03  1.11968E+04  9.13231E+03  3.56622E+03  1.41114E+04
 -8.56941E+03  1.54085E+04 -1.51307E+04  8.27865E+03 -1.87153E+04 -1.42716E+03 -1.43077E+04 -1.05830E+04
 -6.13729E+03 -1.49491E+04  3.20136E+03 -1.38992E+04  9.40420E+03 -7.42258E+03  1.09783E+04  1.48345E+03
  5.99880E+03  5.12693E+03 -6.37708E+02  4.43497E+03 -1.89968E+03 -5.90093E+02 -2.13945E+02 -3.31218E+03
  5.09581E+03 -1.30405E+03  6.55365E+03  2.36673E+03  5.08366E+03  6.66972E+03  1.58304E+02  8.15200E+03
 -6.87098E+03  7.40445E+03 -9.96859E+03  8.91031E+02 -8.59192E+03 -7.40873E+03 -3.25980E+03 -1.13100E+04
  4.30876E+03 -1.00059E+04  1.03909E+04 -5.38418E+03  1.24663E+04  5.36530E+03  6.03897E+03  1.00760E+04
  2.51673E+03  9.39827E+03 -4.01643E+03  9.18290E+03 -8.10289E+03  3.00355E+03 -5.78035E+03  3.52588E+03
 -4.54675E+03  2.20884E+02 -2.83428E+03  1.04579E+03 -6.07146E+03  4.56129E+02 -7.20657E+03 -3.22036E+03
 -8.19362E+03 -5.03483E+03 -1.39865E+03 -9.84953E+03  5.26739E+03 -1.14982E+04  8.97492E+03 -3.67965E+03
  1.07525E+04  1.23888E+03  6.20102E+03  8.64558E+03 -9.57629E+02  1.05931E+04 -7.83540E+03  6.57790E+03
