 $NMID ID='MM_0lb_SNR200_17hz_g55_71.RAW', FMTDAT='(8E13.5)'
 TRAMP=1., VOLUME=1. $END
  3.09330E+05  5.37937E+02  3.36403E+05  2.51515E+05  8.54446E+04  3.38344E+05 -1.33888E+05  2.50569E+05
 -1.89833E+05  8.28098E+04 -1.12298E+05 -3.31175E+04  4.72642E+02 -4.99789E+04  5.34426E+04  2.98251E+02
  3.48913E+04  5.40226E+04 -1.68459E+04  7.50205E+04 -5.98316E+04  6.32764E+04 -8.38501E+04  3.24195E+04
 -8.07259E+04 -1.20155E+04 -5.79337E+04 -5.20806E+04 -1.57194E+04 -6.90234E+04  2.77325E+04 -4.57381E+04
  3.93452E+04  3.83200E+03  1.54434E+04  4.68016E+04 -3.39944E+04  4.61266E+04 -6.76114E+04 -4.02866E+02
 -5.28717E+04 -5.72903E+04 -5.82947E+03 -7.56637E+04  3.42109E+04 -5.40720E+04  4.78368E+04 -1.76155E+04
  4.31645E+04  1.06266E+04  3.12423E+04  2.51958E+04  1.50843E+04  2.80542E+04 -4.55266E+03  2.75885E+04
 -2.29402E+04  1.32411E+04 -1.86722E+04 -5.63150E+03  4.37902E+03 -5.72802E+03  2.14821E+04  1.11156E+04
  6.49856E+03  3.40954E+04 -3.19414E+04  3.45506E+04 -6.12745E+04  1.23454E+03 -5.59028E+04 -4.29884E+04
 -1.31050E+04 -6.33459E+04  3.94797E+04 -4.33025E+04  5.72012E+04 -2.61099E+03  3.30898E+04  3.17532E+04
 -5.35099E+03  3.47803E+04 -2.93231E+04  1.44234E+04 -2.98428E+04 -5.06573E+03 -1.53342E+04 -1.03444E+04
 -8.84904E+03 -1.30168E+04 -5.02433E+02 -1.72704E+04  8.15550E+03 -2.21589E+04  1.49905E+04 -1.27682E+04
  1.15901E+04  5.22701E+03 -7.64406E+03  1.34456E+04 -2.16757E+04 -3.90548E+03 -8.26007E+03 -3.22713E+04
  2.22031E+04 -4.32325E+04  4.56813E+04 -1.90834E+04  4.28451E+04  1.87029E+04  1.59284E+04  4.26134E+04
 -1.56096E+04  3.20687E+04 -2.45572E+04  1.58372E+03 -8.95313E+03 -2.85059E+04  2.05092E+04 -3.28074E+04
  3.87417E+04 -8.58358E+03  3.32650E+04  2.36351E+04  1.68584E+04  4.42950E+04 -8.76843E+03  4.69912E+04
 -3.07517E+04  3.39363E+04 -3.98491E+04  9.35558E+03 -4.20080E+04 -1.63088E+04 -2.20791E+04 -3.61089E+04
  7.60084E+03 -3.58321E+04  3.11280E+04 -1.46086E+04  2.78831E+04  1.07916E+04  4.55472E+03  1.84471E+04
 -1.35068E+04  8.05613E+03 -1.04748E+04 -7.97423E+03  5.29035E+03 -1.11504E+04  1.72219E+04  5.46456E+03
  1.35420E+04  2.15695E+04 -6.98216E+03  2.38345E+04 -2.27888E+04  9.80853E+03 -2.66208E+04 -5.68766E+03
 -1.84052E+04 -1.71557E+04 -7.54790E+03 -1.98459E+04  4.08406E+03 -1.80749E+04  1.40008E+04 -1.61644E+04
  2.43706E+04 -1.06878E+04  2.97651E+04  9.56108E+02  2.26795E+04  1.79370E+04  3.90283E+03  3.49155E+04
 -1.77897E+04  2.82229E+04 -2.76077E+04  9.67800E+03 -2.03225E+04 -1.09966E+04 -3.44235E+03 -1.31329E+04
  3.78733E+03 -3.10883E+03 -3.76961E+03  6.50815E+03 -1.43248E+04  5.27128E+03 -1.48915E+04 -7.10805E+03
 -9.03393E+03 -1.62698E+04  4.71261E+03 -2.16557E+04  1.30957E+04 -1.47859E+04  1.63872E+04 -1.63165E+03
  1.03018E+04  1.23884E+04 -1.32401E+03  1.70191E+04 -1.19780E+04  1.00427E+04 -1.79992E+04 -3.63495E+03
 -1.41506E+04 -1.53001E+04 -8.81541E+02 -2.07810E+04  8.75084E+03 -1.66833E+04  1.65917E+04 -8.38095E+03
  1.71527E+04  2.17265E+02  1.18975E+04  3.72190E+03  6.46487E+03  5.88812E+02  8.56894E+03 -1.49062E+03
  1.50924E+04  1.77100E+03  1.73017E+04  1.33560E+04  1.13534E+04  2.77772E+04 -2.90024E+03  2.99626E+04
 -1.79141E+04  2.37431E+04 -2.91277E+04  1.18005E+04 -2.93535E+04 -1.14675E+03 -2.32586E+04 -1.69701E+04
 -1.11750E+04 -2.45783E+04  7.78026E+03 -2.36699E+04  1.79638E+04 -1.14237E+04  1.75395E+04  3.96416E+03
  7.22992E+03  1.13549E+04 -8.09705E+03  1.04015E+04 -1.40288E+04  2.66889E+03 -1.15080E+04 -8.75025E+03
 -7.68621E+02 -1.43828E+04  6.39547E+03 -8.67917E+03  9.63310E+03 -9.08100E+02  2.29806E+03  6.23916E+03
 -5.83848E+03  2.73086E+03 -4.44402E+03 -4.82097E+03  1.65791E+02 -1.11488E+04  7.13090E+03 -1.30088E+04
  1.63867E+04 -5.68619E+03  1.37272E+04  2.00735E+03  1.18233E+04  1.11472E+04  5.75122E+03  1.67935E+04
 -1.87242E+03  1.85720E+04 -1.23056E+04  1.13856E+04 -1.31586E+04  2.91076E+03 -1.03795E+04 -1.94921E+03
 -5.21231E+03 -3.60693E+03 -8.58232E+02  1.16567E+03 -9.70225E+02  2.69523E+03 -4.76305E+03  3.60184E+03
 -9.28890E+03 -1.54622E+03 -9.46414E+03 -8.26977E+03 -3.30742E+03 -1.38496E+04  4.36967E+03 -9.36883E+03
  7.70288E+03 -4.54865E+03  5.32377E+03  2.28382E+03  4.84140E+02  3.29868E+03 -4.05777E+03 -4.57307E+02
 -4.56511E+03 -6.55728E+03 -1.69049E+03 -7.51022E+03  5.57198E+03 -9.82759E+03  1.10179E+04 -5.60332E+03
  1.39673E+04  4.33193E+02  1.02914E+04  6.28800E+03  1.37898E+03  9.90861E+03 -6.17422E+03  1.09250E+04
 -8.87025E+03  3.76476E+03 -3.96080E+03 -1.26729E+03  1.32345E+03 -2.31133E+03  5.69067E+03 -1.13643E+03
  5.35588E+03  4.56079E+03  1.84383E+03  7.97626E+03 -5.63793E+03  7.20244E+03 -8.67878E+03  1.91475E+03
 -4.73532E+03 -3.86563E+03  8.00340E+02 -8.57641E+03  4.64965E+03 -3.98942E+03  5.28922E+03  9.72409E+02
  4.17970E+02  4.15791E+03 -5.31741E+03  5.70297E+03 -7.46937E+03  2.19652E+03 -6.01729E+03 -1.32080E+03
 -3.80352E+03 -8.08945E+03  1.32126E+03 -8.85269E+03  7.38680E+03 -4.82842E+03  6.37139E+03  6.85673E+02
  4.92833E+03  5.27815E+03 -8.96666E+02  8.38282E+03 -5.99213E+03  5.04948E+03 -6.92886E+03  2.05828E+02
 -7.00036E+03 -5.18410E+03 -2.37880E+03 -5.44773E+03  3.84567E+03 -4.91752E+03  4.24990E+03 -3.25969E+03
  2.17654E+03  1.17473E+03 -3.74173E+01  1.77916E+03 -9.02405E+02 -9.65883E+02  9.69406E+02 -2.65143E+03
  4.29047E+03 -7.04771E+02  6.81598E+03  1.59433E+03  6.40988E+03  4.18580E+03  6.15911E+03  9.64723E+03
 -2.96452E+03  1.09598E+04 -1.01793E+04  8.29658E+03 -1.14661E+04  1.34719E+03 -9.00454E+03 -3.11212E+03
 -4.92878E+03 -6.97692E+03 -5.35144E+02 -6.48340E+03  2.53312E+03 -3.12308E+03  2.05077E+03 -3.01661E+03
  4.43661E+02 -2.06952E+03  3.22451E+03 -2.61280E+03  3.99657E+03 -1.01562E+03  3.91695E+03  6.06967E+02
  5.34162E+03  9.20993E+02  1.29676E+03  3.56107E+03 -1.98958E+03  4.81632E+03 -4.60159E+03  3.45898E+03
 -6.56379E+03 -1.25030E+03 -2.65053E+03 -3.79907E+03  1.42561E+02 -6.02516E+03  4.13870E+03 -6.09273E+03
  6.34696E+03 -4.35545E+03  7.94116E+03  1.81246E+03  5.78871E+03  5.34275E+03  4.43943E+02  7.66922E+03
 -2.40499E+03  6.92800E+03 -4.21864E+03  2.58012E+03 -3.82720E+03 -1.33537E+03 -1.32199E+03 -1.69660E+02
 -1.48232E+03  6.27985E+02 -9.56854E+02  1.76108E+03 -2.53271E+03  1.40202E+03 -4.29366E+03 -2.62121E+02
 -2.44853E+03 -4.30560E+03  7.98187E+02 -6.31107E+03  2.71066E+03 -4.83089E+03  3.95444E+03 -2.06254E+03
  5.51767E+03  3.54114E+03  2.02343E+03  5.05652E+03 -2.16442E+03  5.92463E+03 -4.02311E+03  2.72332E+03
 -4.50498E+03  1.04914E+03 -4.42636E+03 -3.05038E+03  1.17745E+03 -4.95946E+03  3.06159E+03 -4.11212E+03
  3.12383E+03 -1.27326E+03  2.81450E+03  4.80257E+02  1.03587E+03  2.13502E+03  7.26075E+02  2.17691E+03
  2.33177E+03 -7.74586E+02  9.66377E+02  1.99903E+03  5.34769E+02  2.81167E+03  1.97002E+03  2.65026E+03
 -1.81426E+03  3.53937E+03 -3.67453E+03  5.33302E+03 -4.19625E+03  8.63632E+02 -5.86698E+03 -2.07049E+03
 -2.68573E+03 -6.08611E+03  3.53808E+02 -6.74336E+03  3.55494E+03 -4.68288E+03  3.82398E+03 -6.91182E+02
  3.79640E+03  1.46193E+03  1.21487E+03  2.16392E+03 -3.96079E+02  1.91571E+03 -7.63555E+02 -3.19641E+02
 -1.49494E+03 -3.12379E+03  1.73531E+03 -3.33109E+03  1.64031E+03 -2.07243E+03  1.00299E+03  4.14456E+02
  2.86622E+02 -4.85582E+02  7.10138E+02  5.57121E+02 -1.48737E+03  1.65842E+03  4.86206E+02 -5.16061E+02
  7.16179E+02  1.57909E+01  2.85554E+03  8.84633E+02  1.57244E+03  2.90751E+03 -7.79531E+02  4.05388E+03
 -2.58210E+03  7.20144E+02 -2.46836E+03  7.14833E+02 -3.01265E+03 -8.90004E+02  3.78810E+02 -2.03420E+03
  3.24712E+02 -1.99138E+03  5.70501E+02 -1.48167E+03  2.66402E+03  1.28041E+03 -8.09454E+02  1.02718E+03
 -1.45413E+03  1.68711E+03 -1.11819E+03 -1.22651E+03 -1.14149E+03 -2.10606E+03  3.12359E+02 -3.11929E+03
  1.38310E+03 -1.51418E+03  8.21566E+02 -7.52942E+01  2.02942E+03 -5.13514E+02 -1.29527E+02  1.30239E+03
 -1.04894E+03  1.19179E+02 -2.05830E+03 -1.28016E+02  4.48613E+02 -7.78838E+02  2.79185E+03 -2.34340E+03
  1.42090E+03 -1.67341E+02  3.34541E+03  1.82478E+03  1.19809E+03  3.11918E+03 -4.37814E+02  2.10152E+03
 -2.78819E+03  2.64574E+02 -2.26603E+03 -2.01266E+02 -1.02712E+03 -1.84259E+03 -3.47418E+02 -6.43243E+02
  1.57476E+03 -3.85199E+02  9.93027E+02  9.09786E+02 -1.15631E+03  2.36494E+03 -5.82151E+02  1.87249E+03
  5.02894E+02  5.43331E+02 -9.51110E+01  8.18995E+01 -1.73398E+03  1.40494E+03  3.31651E+02  3.97233E+01
 -1.42451E+03  2.29790E+02 -1.06779E+03  9.43877E+02 -1.99508E+03  1.61639E+02 -2.99374E+03 -7.15719E+02
 -1.31898E+03 -3.01821E+03  1.24687E+03 -4.86772E+03  1.41607E+03 -3.50304E+03  3.68744E+03 -1.66732E+03
  3.40504E+03 -6.52733E+02  1.45035E+03  1.98521E+03 -5.65765E+02  1.61133E+03 -1.33421E+03  2.22024E+03
 -8.70348E+02  7.17222E+02 -3.16336E+02 -4.38388E+02 -3.36791E+01 -1.11152E+03 -1.85225E+03  5.65388E+02
 -9.42222E+02 -5.04849E+02  4.07631E+02  7.95255E+01 -4.66885E+02  3.88230E+01  4.92695E+02 -5.43054E+02
  1.52327E+03 -1.48515E+03  3.62156E+02 -7.08172E+02  1.88666E+03  1.36980E+03 -7.72459E+02  2.08595E+03
 -1.41590E+03  2.26821E+03 -2.28905E+03  1.76923E+03 -2.09871E+03  8.55132E+02 -1.57259E+03 -1.84569E+03
 -1.20364E+03 -7.33540E+02  5.96636E+02 -1.72514E+03  7.79660E+02 -1.19869E+03  9.30347E+01 -6.42031E+02
  1.94587E+03 -1.40226E+02  7.50791E+02  7.04077E+02 -5.34060E+02 -8.36691E+02 -5.42514E+02 -8.03224E+02
  9.87203E+02  1.63921E+03  1.02555E+03  4.00200E+01  5.55318E+02  4.09470E+02 -3.15243E+02  1.18263E+03
 -1.42342E+03  1.45299E+03 -3.36335E+02  1.19668E+03 -6.11907E+02 -1.16872E+03  1.61051E+02 -1.29474E+03
  1.02529E+03 -5.69613E+02 -8.47418E+00 -1.10943E+03  1.88753E+03 -6.98409E+02  7.90547E+02  1.88838E+03
  8.55775E+02  4.93038E+02  2.93769E+02  1.35603E+03 -2.78421E+02  1.09788E+03  3.21959E+02 -8.86435E+02
  3.39592E+02 -1.61153E+02 -1.07171E+02 -3.51998E+02  5.16064E+02  6.41467E+02 -2.12741E+03 -4.78020E+02
 -2.43441E+03 -6.89889E+02  5.00448E+02 -1.45474E+03  1.47643E+03 -1.48237E+03  1.72725E+03 -1.32523E+03
  8.11742E+02  3.52674E+02 -1.20048E+03  2.35382E+02 -1.78883E+02  8.68697E+02 -8.98156E+02  1.22850E+03
