 $NMID ID='MM_0lb_SNR200_20hz_g40_22.RAW', FMTDAT='(8E13.5)'
 TRAMP=1., VOLUME=1. $END
  3.09670E+05  5.00548E+02  3.36722E+05  2.50995E+05  8.36951E+04  3.37746E+05 -1.31971E+05  2.49527E+05
 -1.89484E+05  8.15983E+04 -1.10393E+05 -3.34572E+04  1.72577E+03 -5.03114E+04  5.39110E+04  1.04590E+03
  3.44608E+04  5.22855E+04 -1.63564E+04  7.44977E+04 -6.07516E+04  6.22662E+04 -8.25885E+04  3.06429E+04
 -7.96499E+04 -1.11930E+04 -5.55209E+04 -5.05190E+04 -1.49540E+04 -6.71104E+04  2.61213E+04 -4.30172E+04
  3.85466E+04  4.65562E+03  1.53791E+04  4.65394E+04 -3.30053E+04  4.53787E+04 -6.49373E+04 -1.30418E+03
 -5.09396E+04 -5.49039E+04 -6.76318E+03 -7.37522E+04  3.32878E+04 -5.25170E+04  4.54466E+04 -1.62960E+04
  4.10721E+04  1.12268E+04  3.01069E+04  2.41425E+04  1.55421E+04  2.78247E+04 -3.91949E+03  2.60716E+04
 -2.12614E+04  1.37328E+04 -1.94003E+04 -3.59006E+03  4.67573E+03 -7.13370E+03  2.01733E+04  1.01743E+04
  7.38919E+03  3.19045E+04 -3.05179E+04  3.31397E+04 -6.01288E+04  2.05781E+03 -5.50012E+04 -3.96136E+04
 -1.28473E+04 -5.96858E+04  3.65199E+04 -4.25650E+04  5.40192E+04 -2.31571E+03  3.16701E+04  3.05766E+04
 -7.15783E+03  3.27169E+04 -2.76017E+04  1.22367E+04 -2.58614E+04 -5.71785E+03 -1.37808E+04 -9.40605E+03
 -6.01506E+03 -1.01604E+04 -1.50257E+03 -1.61358E+04  5.35615E+03 -2.35736E+04  1.35950E+04 -1.49305E+04
  1.31214E+04  4.47153E+03 -4.98687E+03  1.26763E+04 -1.86628E+04 -1.43528E+03 -7.65878E+03 -2.91624E+04
  2.02303E+04 -3.85578E+04  4.27495E+04 -1.80922E+04  4.10515E+04  1.74288E+04  1.42599E+04  4.08030E+04
 -1.43510E+04  3.06814E+04 -2.36302E+04  6.77651E+02 -6.62336E+03 -2.54269E+04  2.05244E+04 -2.99049E+04
  3.63610E+04 -6.84105E+03  2.86246E+04  2.18918E+04  1.31127E+04  4.02062E+04 -7.76693E+03  4.25592E+04
 -2.67116E+04  2.75944E+04 -3.50492E+04  8.64513E+03 -3.65031E+04 -1.39399E+04 -2.02344E+04 -3.20284E+04
  6.10228E+03 -3.26448E+04  2.76035E+04 -1.27638E+04  2.58182E+04  1.04155E+04  2.02063E+03  1.66577E+04
 -1.32512E+04  7.42060E+03 -9.08023E+03 -7.73213E+03  5.47190E+03 -1.02933E+04  1.68960E+04  6.29965E+03
  1.26457E+04  2.17440E+04 -8.18515E+03  2.29840E+04 -2.09444E+04  8.41617E+03 -2.35559E+04 -7.00124E+03
 -1.52065E+04 -1.61829E+04 -3.56866E+03 -1.41642E+04  4.09129E+03 -1.29024E+04  1.27460E+04 -1.28363E+04
  1.80256E+04 -1.08413E+04  2.63530E+04  1.07309E+03  1.99097E+04  1.48978E+04  4.17932E+03  2.92291E+04
 -1.54920E+04  2.58665E+04 -2.45989E+04  9.26444E+03 -1.85418E+04 -1.06445E+04 -3.97245E+03 -1.40278E+04
  3.14821E+03 -3.78662E+03 -2.31561E+03  4.09804E+03 -1.21894E+04  4.61528E+03 -1.18113E+04 -4.12453E+03
 -7.47517E+03 -1.45690E+04  3.98839E+03 -1.78443E+04  1.11142E+04 -1.33413E+04  1.36991E+04 -1.62542E+03
  8.87895E+03  9.99724E+03 -4.75734E+02  1.33370E+04 -9.55650E+03  8.22544E+03 -1.44384E+04 -3.40717E+03
 -9.67474E+03 -1.38401E+04 -1.62407E+03 -1.82070E+04  7.69256E+03 -1.42742E+04  1.42556E+04 -6.06525E+03
  1.27779E+04  1.55646E+03  9.78550E+03  3.55073E+03  4.31474E+03  4.00469E+02  7.40491E+03 -1.32218E+03
  1.17049E+04  2.92427E+03  1.35569E+04  1.15071E+04  7.16794E+03  2.17350E+04 -4.00633E+03  2.18144E+04
 -1.47300E+04  1.64441E+04 -2.22009E+04  8.89004E+03 -2.12393E+04 -1.23377E+03 -1.85290E+04 -1.19800E+04
 -8.18137E+03 -1.67212E+04  5.71193E+03 -1.59806E+04  1.34004E+04 -9.93941E+03  1.50373E+04  3.99239E+03
  7.05312E+03  1.03273E+04 -6.77512E+03  9.20006E+03 -1.14261E+04  2.08244E+03 -9.92660E+03 -7.17673E+03
 -7.24259E+02 -1.08601E+04  6.38330E+03 -8.31170E+03  6.77292E+03 -5.26900E+02  9.16212E+02  4.61942E+03
 -5.97175E+03  8.88823E+02 -3.57786E+03 -4.73951E+03  1.01227E+03 -9.29529E+03  8.49706E+03 -8.71992E+03
  1.13000E+04 -3.89039E+03  9.31587E+03  2.04029E+03  7.24232E+03  8.37500E+03  3.46545E+03  1.27301E+04
 -1.06848E+03  1.43057E+04 -7.36769E+03  9.14008E+03 -1.08448E+04  2.96645E+03 -6.29994E+03 -1.10163E+03
 -3.93803E+03 -3.41344E+03  1.93203E+02  1.93769E+03 -1.29868E+03  2.35749E+03 -3.10192E+03  4.21409E+03
 -7.87633E+03 -1.77784E+03 -7.96838E+03 -6.60852E+03 -4.32612E+03 -9.47452E+03  3.13945E+03 -7.90765E+03
  6.00942E+03 -4.07430E+03  4.72423E+03  2.04219E+03  7.09557E+02  2.38572E+03 -2.51756E+03 -2.18527E+02
 -2.53954E+03 -4.28199E+03 -1.00358E+03 -4.61670E+03  2.37558E+03 -5.97825E+03  9.27446E+03 -2.88212E+03
  9.61944E+03 -4.77233E+01  8.07461E+03  6.00647E+03  1.12417E+03  7.87527E+03 -4.46035E+03  6.85882E+03
 -5.57688E+03  3.54811E+03 -2.44274E+03 -1.41694E+03  1.27753E+03 -1.20526E+03  5.22696E+03 -1.10518E+03
  3.38871E+03  3.20690E+03  1.03371E+03  6.57740E+03 -4.11763E+03  6.06637E+03 -8.57477E+03  4.07117E+02
 -3.59732E+03 -3.37432E+03  2.92240E+02 -5.60427E+03  2.49968E+03 -3.70087E+03  2.76477E+03  1.21310E+03
  8.48084E+02  2.42442E+03 -3.93372E+03  2.41049E+03 -4.55359E+03  2.55163E+03 -2.29166E+03 -1.22151E+03
 -2.07592E+03 -4.34238E+03  7.42327E+02 -5.99478E+03  3.76382E+03 -3.99294E+03  5.29056E+03  1.34981E+03
  4.26214E+03  4.55839E+03 -8.64478E+02  6.48223E+03 -4.38184E+03  3.63330E+03 -4.16157E+03 -4.36474E+02
 -5.50044E+03 -4.59532E+03 -7.75739E+02 -4.54752E+03  1.65920E+03 -3.43710E+03  2.32956E+03 -2.80954E+03
  3.70173E+03  1.50282E+02 -7.34896E+02  1.56891E+03  5.25080E+02 -3.87424E+01  1.06233E+03 -2.05731E+03
  3.52248E+03 -4.47264E+02  4.19760E+03  5.13583E+02  4.15245E+03  1.92779E+03  4.74847E+03  6.15150E+03
 -1.64565E+03  6.95608E+03 -5.65222E+03  5.40046E+03 -7.99419E+03  1.53447E+03 -6.68440E+03 -1.63951E+03
 -4.00614E+03 -6.05097E+03 -2.61415E+02 -4.06916E+03  1.14331E+03 -1.75076E+03  8.23046E+02 -2.08716E+03
  1.46751E+03 -1.48751E+03  1.58341E+03 -3.25132E+03  4.25452E+03 -1.91927E+03  3.42947E+03  3.00730E+02
  4.18206E+03  7.08930E+02  4.92658E+02  2.19088E+03 -1.13513E+03  1.65919E+03 -3.18821E+03  2.14672E+03
 -3.39167E+03 -9.10323E+00 -5.29907E+02 -2.04432E+03  1.10880E+03 -4.19556E+03  3.46003E+03 -4.86212E+03
  4.02394E+03 -1.61413E+03  4.85423E+03  3.33187E+02  4.16762E+03  2.56388E+03  1.31367E+03  4.44784E+03
 -1.05244E+03  4.73162E+03 -2.03838E+03  8.49434E+02 -1.32647E+03 -1.40178E+03 -1.03023E+03 -7.98192E+02
  2.30931E+02 -1.98372E+02 -8.14367E+02  1.89120E+03 -1.89073E+03  8.89664E+02 -2.67422E+03 -5.88237E+02
 -9.18389E+02 -2.20901E+03  1.50066E+03 -3.68240E+03  1.90646E+03 -4.16801E+03  2.15623E+03 -6.20560E+02
  3.19748E+03  2.04682E+03  1.02160E+03  3.35718E+03 -1.10160E+02  3.20739E+03 -2.58726E+03  1.54708E+03
 -3.10519E+03 -7.44608E+02 -2.21706E+03 -1.96320E+03 -9.22084E+02 -2.09295E+03  1.32415E+03 -2.43363E+03
  8.95254E+02 -1.11219E+03  1.20197E+03  5.55533E+02  1.65817E+03  1.45425E+03  1.64042E+03  5.95659E+02
  1.15988E+03 -9.14393E+00  5.81825E+02  2.03848E+03  2.05779E+02  1.97707E+03  1.09313E+03  1.67770E+03
 -1.22283E+03  3.85654E+03 -1.69514E+03  2.86273E+03 -1.48087E+03  1.84919E+03 -3.29245E+03 -1.15604E+03
 -1.57044E+03 -3.06647E+03  9.99720E+02 -4.32141E+03  1.01843E+03 -1.23036E+03  3.68469E+03 -9.38967E+02
  2.89288E+03  8.81106E+02  1.09680E+02  1.84392E+03 -8.72271E+02  2.89000E+02 -7.15690E+02 -9.35670E+01
 -8.53390E+02 -1.33459E+03  9.04432E+02 -5.04403E+02  7.78026E+02  4.22208E+02  4.39467E+01 -6.39098E+01
 -1.63103E+02 -7.76245E+01  1.70227E+02 -8.21127E+02 -2.06458E+02 -1.21634E+02  1.36582E+03 -3.49287E+02
  6.12282E+02 -2.88310E+01  1.65811E+03  1.20524E+03 -5.74204E+02  2.13990E+03 -5.65963E+02  2.35348E+03
 -1.22048E+03  7.14613E+02 -1.16954E+03  8.17931E+02 -2.25832E+03 -2.98817E+02  9.82732E+01  1.13969E+03
  3.23801E+02 -3.33939E+02  9.31088E+02 -3.51749E+02  4.90634E+02  1.40315E+03 -9.58029E+02  2.43973E+02
 -7.61547E+02  1.32087E+03 -9.84077E+02 -8.13957E+02 -2.28816E+02 -2.26429E+03 -2.22580E+02 -7.62868E+02
 -6.02360E+02 -4.42113E+02 -3.76191E+01 -1.94337E+02  1.12529E+03 -6.45811E+02  5.80586E+02  9.26137E+02
 -1.32545E+03  7.86864E+02 -7.24193E+01  4.39004E+02  6.38285E+02  2.62328E+02  1.48388E+03  1.34495E+02
  1.13785E+03 -3.33265E+02  2.80483E+03 -3.80922E+02 -3.14921E+00  6.01570E+02 -3.47911E+02  1.67185E+03
 -7.88566E+02  2.93003E+02 -3.39909E+02 -9.33159E+02 -8.93263E+02 -1.52904E+03 -4.68159E+02  3.37663E+02
  1.71001E+03 -9.78559E+01 -1.78786E+02  5.01874E+02  4.54864E+02  2.49588E+02  4.27728E+02  1.04374E+03
 -6.12613E+02  1.78945E+03 -6.53423E+02 -8.42156E+02 -1.13417E+03  1.95606E+02 -1.09718E+03  5.00145E+02
  6.23306E+02  7.84462E+02 -1.58412E+03  1.24246E+03 -1.07028E+03  2.31066E+02 -2.54821E+03 -3.02012E+02
 -1.28137E+03 -2.10456E+03 -6.02153E+02 -2.48647E+03  3.02598E+02 -2.21741E+03  1.76863E+03 -8.81464E+02
  1.78422E+03 -4.82319E+02  1.25260E+03  1.32483E+03 -8.27093E+02  1.64354E+03  2.38689E+02 -2.34316E+02
 -8.20650E+01  6.93889E+02 -1.64956E+02 -1.70461E+02 -4.65048E+02 -1.25425E+02 -8.15881E+02  4.25423E+02
 -8.72505E+02 -6.27871E+02 -6.43465E+02  6.00400E+02 -4.96372E+01 -5.12115E+02  2.26125E+02 -2.42994E+02
  6.34052E+02 -1.13998E+03 -8.13040E+02 -3.08408E+01  1.65023E+03  9.63219E+02 -5.41058E+02 -2.79966E+02
 -7.15282E+02  1.98046E+03 -2.11018E+03  1.48379E+03 -1.31458E+03 -4.72556E+02 -1.45589E+03 -1.28507E+03
 -8.11882E+02  3.16952E+02  6.08736E+02 -3.73823E+02  2.91206E+02 -4.50478E+02  1.24262E+03 -1.84261E+02
  1.31111E+03  9.75154E+02  6.76021E+02  1.62666E+03 -4.26654E+02 -3.45371E+02  7.08248E+02  4.78272E+01
  5.32325E+02  4.85679E+02 -2.37449E+02  4.14324E+02 -4.42899E+01  2.37005E+02  7.31532E+02  8.32047E+02
 -2.17911E+02  3.77017E+02 -4.56995E+02  1.14007E+02 -1.15195E+03 -6.23506E+02 -2.85227E+02 -5.29662E+02
  2.58259E+02 -7.72394E+02 -2.36694E+02 -8.60558E+02 -1.07699E+02 -6.85010E+02 -1.23846E+02  6.52579E+02
  3.40178E+02  7.27537E+01  1.24816E+03  1.50903E+03  6.11725E+02  1.07694E+03 -1.09561E+03  7.32717E+02
 -1.41777E+03  4.15617E+02 -8.18002E+02  5.15241E+00 -1.29242E+03 -1.57176E+02  2.05532E+02 -3.52724E+02
 -1.36297E+03  5.94363E+02 -9.55458E+02 -3.91307E+02  1.44690E+02 -1.28194E+03 -3.56502E+02  4.84416E+02
  6.84451E+02  2.04607E+01 -6.10280E+02  4.66954E+02 -4.41904E+02  9.80302E+01 -3.94967E+02  2.51070E+02
