 $NMID ID='MM_0lb_SNR200_15hz_g50_25.RAW', FMTDAT='(8E13.5)'
 TRAMP=1., VOLUME=1. $END
  3.08984E+05  1.06855E+02  3.36678E+05  2.50794E+05  8.47140E+04  3.38480E+05 -1.33023E+05  2.49750E+05
 -1.89134E+05  8.23797E+04 -1.10704E+05 -3.28897E+04  2.45125E+03 -5.11786E+04  5.45211E+04 -1.00677E+03
  3.63974E+04  5.16996E+04 -1.79905E+04  7.49588E+04 -6.13310E+04  6.49028E+04 -8.48549E+04  3.15540E+04
 -8.09736E+04 -1.14489E+04 -5.68297E+04 -5.01459E+04 -1.42429E+04 -6.86963E+04  2.78775E+04 -4.59619E+04
  3.98664E+04  3.61298E+03  1.61213E+04  4.78410E+04 -3.50100E+04  4.67999E+04 -6.66266E+04 -3.09757E+02
 -5.44141E+04 -5.69400E+04 -6.87153E+03 -7.75928E+04  3.43438E+04 -5.57351E+04  4.62287E+04 -1.74067E+04
  4.25859E+04  1.02767E+04  3.09458E+04  2.63708E+04  1.58842E+04  3.03905E+04 -4.67323E+03  2.80634E+04
 -2.17855E+04  1.25051E+04 -1.81874E+04 -4.46518E+03  4.88048E+03 -7.00654E+03  2.20046E+04  1.18348E+04
  6.56680E+03  3.64633E+04 -3.22387E+04  3.52984E+04 -6.28340E+04  1.67027E+03 -5.56720E+04 -4.38844E+04
 -1.21174E+04 -6.21212E+04  4.04868E+04 -4.64002E+04  5.78024E+04 -1.55429E+03  3.41302E+04  3.22728E+04
 -5.67269E+03  3.57312E+04 -2.91744E+04  1.47696E+04 -3.02591E+04 -5.29425E+03 -1.68720E+04 -1.22309E+04
 -7.33022E+03 -1.35688E+04 -1.47747E+03 -1.73557E+04  6.83723E+03 -2.39855E+04  1.48165E+04 -1.24245E+04
  1.08202E+04  5.99619E+03 -7.03932E+03  1.23435E+04 -2.06866E+04 -4.11058E+03 -8.00984E+03 -3.24480E+04
  2.29993E+04 -4.29114E+04  4.77647E+04 -2.00852E+04  4.33018E+04  1.93025E+04  1.51878E+04  4.31837E+04
 -1.62486E+04  3.14728E+04 -2.44660E+04  1.64443E+03 -8.79138E+03 -2.80091E+04  2.04774E+04 -3.52836E+04
  4.06740E+04 -9.88060E+03  3.45006E+04  2.29852E+04  1.83504E+04  4.53000E+04 -8.36815E+03  4.85082E+04
 -3.08457E+04  3.21574E+04 -3.99930E+04  9.17576E+03 -4.12881E+04 -1.67878E+04 -2.41224E+04 -3.59609E+04
  7.04909E+03 -3.81164E+04  3.05413E+04 -1.53070E+04  2.88920E+04  1.14289E+04  4.37709E+03  1.79662E+04
 -1.32609E+04  8.80075E+03 -1.02820E+04 -8.43651E+03  4.75867E+03 -1.13269E+04  1.66024E+04  6.39721E+03
  1.38959E+04  2.25318E+04 -5.61605E+03  2.48327E+04 -2.25455E+04  1.17316E+04 -2.82653E+04 -4.37985E+03
 -2.01490E+04 -1.74584E+04 -7.64517E+03 -1.97541E+04  3.66297E+03 -1.98284E+04  1.53359E+04 -1.61778E+04
  2.43760E+04 -1.16643E+04  3.25912E+04  1.81972E+03  2.35306E+04  1.80497E+04  3.44207E+03  3.49331E+04
 -1.75048E+04  2.97008E+04 -2.73361E+04  1.01728E+04 -2.08229E+04 -1.01962E+04 -3.73417E+03 -1.36626E+04
  1.96277E+03 -3.09701E+03 -3.63913E+03  7.25482E+03 -1.54994E+04  5.18649E+03 -1.56510E+04 -5.60304E+03
 -9.23625E+03 -1.95291E+04  5.26340E+03 -2.25876E+04  1.61279E+04 -1.71128E+04  1.65716E+04 -2.58504E+03
  1.15937E+04  1.25935E+04 -6.31691E+01  1.85667E+04 -1.20955E+04  9.34033E+03 -1.77336E+04 -3.92316E+03
 -1.45425E+04 -1.74805E+04 -1.63799E+03 -2.28837E+04  1.02561E+04 -1.81882E+04  1.80786E+04 -8.57259E+03
  1.76837E+04  2.09192E+02  1.20573E+04  4.76033E+03  6.67263E+03  1.14560E+03  9.23268E+03 -1.04936E+03
  1.70790E+04  2.56326E+03  1.89775E+04  1.48913E+04  1.18181E+04  2.83881E+04 -4.12979E+03  3.19097E+04
 -1.94306E+04  2.52409E+04 -3.06517E+04  1.29774E+04 -3.13104E+04 -3.42582E+03 -2.62911E+04 -1.84149E+04
 -1.09561E+04 -2.63562E+04  9.03866E+03 -2.37847E+04  2.08870E+04 -1.26673E+04  1.76828E+04  5.68635E+03
  6.79287E+03  1.38070E+04 -8.20949E+03  1.21357E+04 -1.58719E+04  1.74413E+03 -1.25335E+04 -9.04748E+03
 -5.28062E+01 -1.41609E+04  8.04774E+03 -1.08077E+04  9.53973E+03 -1.29061E+03  9.79575E+02  6.49590E+03
 -5.62789E+03  2.66748E+03 -4.90566E+03 -4.66748E+03  4.70654E+02 -1.26082E+04  9.13959E+03 -1.22135E+04
  1.48389E+04 -7.25824E+03  1.63046E+04  3.11513E+03  1.50409E+04  1.19258E+04  7.29108E+03  1.92067E+04
 -3.21221E+03  1.93423E+04 -1.30385E+04  1.27929E+04 -1.49902E+04  3.27107E+03 -1.13579E+04 -2.95545E+03
 -5.19178E+03 -4.68616E+03 -1.20284E+03  1.43626E+03 -2.37789E+03  3.13965E+03 -3.19649E+03  3.74579E+03
 -1.08757E+04  5.83304E+02 -1.00616E+04 -9.49183E+03 -4.32575E+03 -1.44979E+04  4.93683E+03 -9.84564E+03
  9.24956E+03 -5.82871E+03  6.03672E+03  3.26249E+03  1.19802E+03  5.46934E+03 -5.21665E+03  5.18533E+02
 -4.60241E+03 -6.81007E+03  5.91282E+02 -9.81752E+03  4.25538E+03 -9.75624E+03  1.40439E+04 -5.95358E+03
  1.44437E+04  1.68221E+03  1.21276E+04  8.52648E+03  1.78621E+03  1.16267E+04 -5.92526E+03  1.02981E+04
 -1.00233E+04  3.52198E+03 -4.76062E+03 -1.32204E+03  2.47947E+03 -2.41927E+03  4.52539E+03 -1.65755E+03
  4.89328E+03  5.59421E+03  2.35983E+03  8.15847E+03 -6.39698E+03  7.50308E+03 -9.88429E+03  2.83263E+03
 -5.96346E+03 -5.32112E+03  6.55038E+02 -7.79082E+03  5.06096E+03 -4.06520E+03  4.89798E+03  1.37840E+03
  4.54832E+02  4.77540E+03 -5.56362E+03  6.53311E+03 -7.64483E+03  3.36609E+03 -7.03646E+03 -2.46841E+03
 -4.81372E+03 -8.34633E+03  2.45406E+03 -1.03110E+04  8.27737E+03 -6.99141E+03  9.26101E+03  1.93087E+03
  5.58280E+03  7.55672E+03 -1.52375E+03  1.01938E+04 -7.72209E+03  4.91098E+03 -7.96638E+03 -1.76132E+02
 -5.93032E+03 -6.00859E+03 -1.51159E+03 -7.58748E+03  2.69745E+03 -7.22080E+03  4.55700E+03 -2.87818E+03
  3.10705E+03  3.92805E+02 -9.82380E+02  8.96778E+02  1.02862E+02 -4.12024E+02 -4.17807E+02 -4.22290E+03
  6.23507E+03 -2.78026E+03  8.92338E+03  5.93880E+02  1.03993E+04  5.57695E+03  6.15147E+03  1.02331E+04
 -1.44291E+03  1.34138E+04 -1.03117E+04  9.05305E+03 -1.40729E+04  1.90642E+03 -1.10929E+04 -4.13457E+03
 -5.35421E+03 -9.63782E+03 -7.49655E+02 -6.74139E+03  3.75785E+03 -3.80618E+03  2.34386E+03 -3.05092E+03
  8.99514E+02 -3.29883E+03  2.32010E+03 -3.22644E+03  3.17958E+03 -2.02080E+03  5.31276E+03 -8.52451E+02
  5.00510E+03  7.10058E+02  2.21083E+03  6.47626E+03 -1.44786E+03  5.33497E+03 -6.18253E+03  5.37283E+03
 -7.29154E+03 -1.72485E+03 -3.93233E+03 -5.13985E+03 -6.42810E+01 -7.03368E+03  4.52031E+03 -8.08026E+03
  8.01200E+03 -4.68740E+03  9.39883E+03  1.12183E+03  6.51019E+03  7.77239E+03  1.71759E+03  7.91757E+03
 -4.67655E+03  8.49862E+03 -5.00496E+03  3.27868E+03 -4.21214E+03 -1.56009E+03 -9.57687E+02 -9.44988E+02
 -7.08747E+02  6.19123E+02 -1.16473E+03  1.51468E+03 -3.57323E+03  1.84500E+03 -6.79786E+03 -7.61889E+02
 -3.18586E+03 -4.98120E+03  1.00601E+03 -7.36597E+03  4.03323E+03 -7.46308E+03  6.08158E+03 -2.06674E+03
  6.08887E+03  2.62589E+03  3.70256E+03  6.23679E+03 -4.99234E+02  6.40913E+03 -3.95027E+03  3.37283E+03
 -6.17858E+03  1.73940E+03 -5.01253E+03 -4.28450E+03 -6.54638E+02 -6.45926E+03  2.24134E+03 -4.51573E+03
  3.85378E+03 -2.30694E+03  3.20061E+03  1.34393E+03  1.41188E+03  1.25071E+03  1.65051E+03  1.06552E+02
  9.53540E+02  1.14636E+03  1.96069E+03  1.58485E+03  2.70335E+03  2.80841E+03  2.61183E+03  4.36279E+03
 -1.18101E+03  4.97404E+03 -4.00451E+03  5.88851E+03 -6.53884E+03  1.79587E+03 -8.13501E+03 -2.40931E+03
 -3.41382E+03 -5.73035E+03  4.49693E+02 -6.58950E+03  3.06517E+03 -3.91214E+03  3.96065E+03 -2.03737E+03
  5.19988E+03  2.97402E+03  1.96143E+03  3.06833E+03 -1.14211E+03  1.33824E+03 -2.36713E+03  1.08248E+02
 -8.77175E+02 -3.13821E+03  1.43134E+03 -2.59566E+03  2.12716E+03 -1.49273E+03  3.56418E+03  1.90183E+02
  1.69873E+03  6.00892E+02  2.28983E+02  6.54698E+02 -1.11373E+03  7.58256E+02  1.66382E+03 -2.72310E+02
 -6.52569E+02 -9.17595E+02  3.81861E+03  9.30182E+02  8.54516E+02  3.98638E+03 -1.14104E+03  5.52543E+03
 -3.39751E+03  2.56298E+03 -4.67937E+03  1.78739E+03 -3.41726E+03 -2.00937E+03 -1.54238E+02 -2.24181E+03
  9.68173E+02 -3.61123E+03  1.51708E+03 -1.51316E+03  6.22188E+02  7.71454E+02 -5.54489E+02  1.49789E+03
 -2.40934E+03  1.71769E+03 -4.37372E+03 -1.44358E+03 -1.28433E+03 -2.96779E+03 -1.82820E+02 -3.04379E+03
  1.69087E+03 -1.46435E+03  2.38854E+03 -8.50657E+02  1.12353E+03  1.20529E+03  3.37228E+02  2.44373E+03
 -2.39585E+03 -7.88593E+02 -1.47252E+03 -4.68908E+02  1.12441E+03 -2.91551E+03  3.56746E+03 -1.31145E+03
  2.45995E+03  9.22423E+02  3.80430E+03  1.10323E+03  6.97762E+02  2.48894E+03 -1.18233E+03  3.34464E+03
 -2.43709E+03  9.83574E+02 -3.00306E+03  5.70854E+02 -1.87422E+03 -2.95226E+03  9.44270E+02 -2.04025E+03
  2.58657E+03 -8.66493E+02  2.77885E+03  3.07322E+02 -4.46038E+02  2.61793E+03 -3.68359E+02  1.60970E+03
  6.29078E+02  2.81097E+03 -1.18265E+03 -5.36354E+02  6.20046E+02  7.77830E+02 -8.94840E+02  1.93691E+03
 -1.53545E+03  1.79762E+03 -2.95619E+03  1.72189E+03 -3.23219E+03  1.06105E+03 -3.68682E+03 -1.37070E+03
 -1.05184E+03 -5.11480E+03  1.54534E+03 -5.36918E+03  2.31863E+03 -4.24337E+03  5.10308E+03 -1.49168E+03
  4.34171E+03 -6.45902E+02  2.53638E+03  3.01240E+03 -4.34007E+02  2.88948E+03 -1.26520E+03  2.12363E+03
 -1.78109E+03  6.76486E+02 -5.17251E+02  2.62182E+02 -1.24774E+02 -1.81619E+02  1.84723E+02  2.53783E+02
 -1.60963E+03 -1.22787E+02 -7.84489E+02 -6.94557E+02 -3.79258E+02 -1.52629E+03 -6.33626E+02 -4.78214E+02
  2.27620E+03 -1.62175E+03  8.98294E+02 -3.13376E+02  2.31470E+03  1.53991E+03  2.41071E+02  3.48904E+03
 -9.61573E+02  3.11508E+03 -3.20207E+03  1.30825E+03 -3.42084E+03 -2.57378E+02 -3.85972E+03 -2.14314E+03
 -1.51600E+03 -2.13076E+03  1.55729E+03 -3.62471E+03  8.30542E+02 -1.89153E+03  2.17502E+03  2.78735E+02
  6.56990E+02  6.17478E+02 -4.99632E+02  6.14192E+02 -1.04328E+03 -6.77678E+02 -4.93438E+02 -1.35708E+03
  5.20480E+02  8.72629E+02  4.48780E+02  1.95503E+03  2.34790E+02  8.44617E+02  7.36360E+02  6.29392E+02
 -6.71860E+02  7.48427E+02 -2.96071E+03  4.55419E+02 -8.89232E+02 -6.97781E+02  3.55829E+01 -1.24119E+03
  1.46274E+03 -2.48046E+03  1.95795E+03 -1.13828E+03  1.44510E+03 -1.48577E+03  7.79399E+02  2.03514E+03
 -1.30027E+02  1.43171E+03 -7.20576E+02  1.77690E+03 -2.18395E+03  1.43448E+03 -1.14996E+03 -4.43851E+02
 -9.53957E+02 -1.18392E+02 -2.02199E+02  5.71705E+02 -1.43019E+03  1.51537E+03 -5.28515E+02 -4.12256E+02
 -2.63157E+03 -4.49362E+02 -9.99550E+02 -1.92599E+03  1.98528E+03 -1.92559E+03  1.77661E+03 -7.54951E+02
  1.86705E+03 -2.32662E+02  4.75563E+02  5.28034E+02 -1.71412E+03  1.60446E+03 -1.42432E+03  8.63726E+02
