 $NMID ID='MM_0lb_SNR200_15hz_g45_61.RAW', FMTDAT='(8E13.5)'
 TRAMP=1., VOLUME=1. $END
  3.09749E+05  3.69470E+02  3.37541E+05  2.49813E+05  8.32095E+04  3.36930E+05 -1.32548E+05  2.50582E+05
 -1.90643E+05  8.24623E+04 -1.11710E+05 -3.24405E+04  1.92843E+02 -4.98715E+04  5.40273E+04  4.11776E+02
  3.51278E+04  5.27310E+04 -1.71879E+04  7.59030E+04 -6.14659E+04  6.34160E+04 -8.42487E+04  3.20323E+04
 -7.97768E+04 -1.23746E+04 -5.74499E+04 -5.13858E+04 -1.48748E+04 -6.93892E+04  2.68548E+04 -4.56337E+04
  4.00480E+04  2.99124E+03  1.66326E+04  4.78269E+04 -3.37593E+04  4.71357E+04 -6.63121E+04 -1.48560E+02
 -5.27496E+04 -5.70761E+04 -6.33566E+03 -7.64887E+04  3.23207E+04 -5.41715E+04  4.77081E+04 -1.68122E+04
  4.24950E+04  1.24241E+04  3.20263E+04  2.50466E+04  1.60331E+04  2.95879E+04 -5.30801E+03  2.65445E+04
 -2.18522E+04  1.31721E+04 -1.86117E+04 -5.10416E+03  5.72022E+03 -7.89417E+03  2.17513E+04  1.18337E+04
  6.54286E+03  3.40127E+04 -3.24641E+04  3.50288E+04 -6.35750E+04  1.30565E+03 -5.67336E+04 -4.19403E+04
 -1.18543E+04 -6.22720E+04  3.95149E+04 -4.45510E+04  5.80610E+04 -2.22674E+03  3.38494E+04  3.15810E+04
 -5.81215E+03  3.53913E+04 -2.95943E+04  1.45244E+04 -2.89101E+04 -5.23410E+03 -1.62275E+04 -1.11870E+04
 -8.89993E+03 -1.34918E+04  2.63729E+02 -1.80525E+04  7.94715E+03 -2.26599E+04  1.57518E+04 -1.39443E+04
  1.15850E+04  4.91815E+03 -7.85195E+03  1.34676E+04 -2.10073E+04 -4.00222E+03 -7.59137E+03 -3.15003E+04
  2.19814E+04 -4.12728E+04  4.68046E+04 -1.93123E+04  4.54046E+04  1.93320E+04  1.49159E+04  4.35001E+04
 -1.51580E+04  3.26685E+04 -2.43515E+04  1.75255E+03 -9.62937E+03 -2.65551E+04  2.15172E+04 -3.31789E+04
  3.91827E+04 -8.84495E+03  3.36545E+04  2.38998E+04  1.79853E+04  4.59523E+04 -8.24597E+03  4.82079E+04
 -3.02872E+04  3.33532E+04 -4.06741E+04  9.93131E+03 -4.16476E+04 -1.60881E+04 -2.19895E+04 -3.67247E+04
  5.82901E+03 -3.64175E+04  3.06983E+04 -1.40776E+04  2.85640E+04  9.61970E+03  3.78306E+03  1.88656E+04
 -1.32576E+04  8.34931E+03 -1.12369E+04 -7.81130E+03  6.35545E+03 -1.10068E+04  1.68238E+04  5.39291E+03
  1.29429E+04  2.21204E+04 -6.88795E+03  2.31306E+04 -2.23728E+04  1.03718E+04 -2.76482E+04 -5.15349E+03
 -1.93245E+04 -1.61378E+04 -7.33922E+03 -1.82434E+04  3.21515E+03 -1.85545E+04  1.33822E+04 -1.59336E+04
  2.39985E+04 -1.16260E+04  3.01780E+04  2.54426E+03  2.32517E+04  1.89087E+04  4.89145E+03  3.54002E+04
 -1.66000E+04  3.00137E+04 -2.63434E+04  8.89820E+03 -2.00655E+04 -1.02974E+04 -4.50679E+03 -1.41286E+04
  1.96610E+03 -2.94513E+03 -3.59639E+03  6.42227E+03 -1.49260E+04  4.61431E+03 -1.49563E+04 -6.26635E+03
 -9.43485E+03 -1.82775E+04  4.14456E+03 -2.03655E+04  1.47198E+04 -1.53665E+04  1.64504E+04 -2.44260E+03
  1.06751E+04  1.22763E+04 -2.06595E+03  1.75045E+04 -1.23635E+04  1.13601E+04 -1.71399E+04 -4.08299E+03
 -1.37336E+04 -1.48316E+04 -2.16172E+03 -2.08425E+04  9.31282E+03 -1.79707E+04  1.77861E+04 -8.75044E+03
  1.69866E+04  3.94672E+02  1.20926E+04  3.96364E+03  6.68536E+03  1.54516E+02  9.76337E+03 -2.17730E+03
  1.70068E+04  1.60439E+03  1.70987E+04  1.42170E+04  1.13207E+04  2.92321E+04 -2.65987E+03  3.12944E+04
 -1.92667E+04  2.48964E+04 -2.91786E+04  1.26028E+04 -3.09229E+04 -2.31590E+03 -2.56944E+04 -1.81311E+04
 -1.08992E+04 -2.60710E+04  8.73739E+03 -2.23988E+04  2.07793E+04 -1.23646E+04  1.74656E+04  4.96436E+03
  6.37133E+03  1.26153E+04 -7.85856E+03  1.14578E+04 -1.44644E+04  2.59738E+03 -1.17369E+04 -9.07979E+03
 -8.44760E+02 -1.49207E+04  7.02063E+03 -8.95781E+03  9.78884E+03 -2.01509E+03  1.53867E+03  6.26836E+03
 -7.32405E+03  2.05681E+03 -4.84597E+03 -5.28052E+03 -6.85909E+02 -1.26761E+04  9.33092E+03 -1.27813E+04
  1.48088E+04 -7.61654E+03  1.62705E+04  2.61975E+03  1.33403E+04  1.36493E+04  6.45136E+03  1.88868E+04
 -3.71397E+03  1.89798E+04 -1.36281E+04  1.23340E+04 -1.48401E+04  2.65505E+03 -1.10849E+04 -3.57076E+03
 -4.22649E+03 -3.89023E+03 -2.97556E+02  1.43038E+03 -1.06918E+03  2.25003E+03 -5.18851E+03  3.95778E+03
 -9.47267E+03 -2.88830E+02 -1.04829E+04 -7.24966E+03 -3.78269E+03 -1.27773E+04  5.90842E+03 -9.53271E+03
  9.64474E+03 -4.75998E+03  6.29597E+03  2.97698E+03  6.26783E+02  4.94796E+03 -5.32636E+03 -7.07720E+02
 -5.02630E+03 -6.94058E+03 -2.49420E+02 -8.25116E+03  5.51992E+03 -1.01630E+04  1.34381E+04 -4.94133E+03
  1.52236E+04  1.25455E+03  1.12574E+04  8.28764E+03  1.53831E+03  1.06129E+04 -5.72831E+03  9.30258E+03
 -7.53731E+03  1.46826E+03 -4.16042E+03 -1.18719E+03  1.77448E+03 -2.66541E+03  4.83062E+03 -1.01043E+03
  4.22456E+03  5.62245E+03  5.70922E+02  7.89154E+03 -5.41314E+03  8.72642E+03 -1.08259E+04  1.92998E+03
 -6.53722E+03 -4.83351E+03 -5.60738E+02 -9.62863E+03  5.08242E+03 -5.06263E+03  3.62238E+03  9.12501E+02
  6.76629E+02  5.25760E+03 -4.15068E+03  6.97326E+03 -7.16573E+03  2.89085E+03 -6.66906E+03 -2.73481E+03
 -2.92827E+03 -8.85970E+03  1.29933E+03 -1.11158E+04  7.72265E+03 -6.19834E+03  1.02417E+04  1.01931E+03
  5.46444E+03  7.83205E+03 -1.37908E+02  8.55700E+03 -6.13613E+03  7.42949E+03 -6.52013E+03 -7.41523E+02
 -7.43409E+03 -6.59288E+03 -1.20759E+03 -7.03827E+03  3.58961E+03 -5.34966E+03  3.33254E+03 -3.24878E+03
  4.15230E+03  8.16511E+02 -2.15935E+02  7.22977E+02 -3.00348E+02 -1.18302E+03  3.35431E+02 -2.31369E+03
  6.25683E+03 -1.41360E+03  8.16657E+03  1.16895E+03  8.05935E+03  5.36325E+03  5.99260E+03  1.18919E+04
 -2.35765E+03  1.25456E+04 -1.05003E+04  9.14338E+03 -1.48302E+04  1.16490E+03 -1.16593E+04 -5.28928E+03
 -6.78791E+03 -1.06486E+04 -9.30300E+02 -6.68834E+03  2.81995E+03 -4.92626E+03  2.14850E+03 -2.83450E+03
  2.04843E+03 -8.86210E+02  2.00659E+03 -1.36355E+03  3.76661E+03 -1.81314E+03  4.96594E+03 -8.69597E+02
  7.15559E+03  2.11437E+03  2.04370E+03  5.94105E+03 -1.98883E+03  4.91946E+03 -5.90932E+03  5.58200E+03
 -7.27979E+03 -1.75251E+03 -3.17340E+03 -5.69499E+03 -2.29238E+02 -8.09416E+03  3.82821E+03 -7.97021E+03
  7.82570E+03 -3.61118E+03  9.12183E+03  1.50546E+03  7.91124E+03  6.87259E+03  1.29275E+03  8.13455E+03
 -3.44523E+03  7.78104E+03 -5.09561E+03  2.79693E+03 -3.97835E+03 -5.01275E+02 -1.13745E+03 -1.68653E+03
  7.17950E+01 -4.86192E+02 -1.64451E+03  2.27919E+03 -3.01514E+03  1.59142E+03 -4.54428E+03 -1.31898E+03
 -2.50223E+03 -4.48985E+03  8.52126E+02 -5.95457E+03  5.06712E+03 -6.76964E+03  5.55812E+03 -2.96474E+03
  6.05704E+03  2.55222E+03  2.04628E+03  5.37663E+03 -1.39278E+03  6.89583E+03 -4.36491E+03  4.45839E+03
 -6.64852E+03  6.54467E+02 -4.50182E+03 -3.68851E+03 -1.04242E+02 -4.99464E+03  2.02937E+03 -3.77540E+03
  4.80501E+03 -1.01026E+03  3.10926E+03  7.22902E+02  9.49825E+02  1.21232E+03  9.70229E+02 -3.60431E+01
  2.57072E+03  2.66974E+02  6.10255E+02  2.47654E+03  1.86616E+03  2.72041E+03  2.71124E+03  3.08676E+03
 -7.63325E+01  4.96934E+03 -4.80096E+03  5.40364E+03 -5.72830E+03  1.23426E+03 -6.06636E+03 -2.17675E+03
 -2.46476E+03 -5.76444E+03  1.08737E+03 -6.83936E+03  2.51165E+03 -4.59111E+03  5.54344E+03 -2.72879E+03
  4.09420E+03  3.26050E+03  1.86769E+03  4.44046E+03 -2.29421E+03  2.33526E+03 -2.14181E+03  8.83287E+02
 -1.19359E+03 -4.05667E+03  1.86358E+03 -3.00549E+03  2.30563E+03 -2.03378E+03  2.49792E+03  5.99877E+02
  1.23583E+03  1.01360E+03  1.82212E+03  9.72673E+02  1.11944E+02  8.90361E+02  1.20986E+03 -1.39215E+03
  1.21813E+03 -3.41993E+02  3.34059E+03  1.18684E+03  1.86478E+03  3.71515E+03 -1.87781E+03  4.03672E+03
 -2.29096E+03  2.06723E+03 -2.92825E+03  1.10759E+03 -3.94781E+03 -1.20090E+03 -6.24187E+02 -1.77384E+03
 -2.34545E+02 -2.88924E+03  1.80848E+03 -1.65173E+03  1.26509E+03  1.69940E+03 -1.58562E+03  2.65995E+03
 -2.29569E+03 -1.36089E+02 -2.30744E+03 -1.12313E+03 -1.10308E+03 -4.28071E+03  3.55619E+01 -2.45117E+03
  5.60759E+02 -3.15419E+03  2.24123E+03  5.20872E+02  1.50521E+03  4.48740E+02  5.55965E+02  3.33648E+03
 -1.18967E+02  1.20925E+03 -1.99604E+03 -1.50997E+03  5.04082E+02 -2.14797E+03  1.47945E+03 -1.42333E+03
  3.41062E+03 -7.00627E+02  5.33060E+03  2.64739E+03  2.20227E+03  4.10899E+03 -9.23929E+02  3.60004E+03
 -3.33699E+03  1.34281E+03 -3.73711E+03 -6.67579E+02 -2.34032E+03 -1.98288E+03  3.85715E+02 -1.91873E+03
  2.51157E+03 -7.36806E+02  9.73554E+02  8.69303E+02  1.48079E+03  2.40665E+03  7.90078E+02  1.94921E+03
 -5.13262E+02  7.13893E+02 -7.70753E+02  2.54680E+02 -1.13470E+03  1.07315E+03 -1.07580E+03  2.08277E+03
 -9.91366E+01  2.37435E+03 -4.26150E+03  2.08251E+03 -2.98582E+03  5.52415E+02 -3.16521E+03 -1.56091E+03
 -2.46309E+03 -4.71550E+03  7.38813E+02 -4.67720E+03  3.03746E+03 -3.07651E+03  5.16468E+03 -2.80178E+03
  4.29576E+03  5.98833E+02  3.56858E+03  2.77489E+03  2.96077E+02  3.05026E+03 -1.22997E+03  2.59175E+03
 -8.67007E+02  9.58032E+02 -8.79998E+02  2.09602E+02 -4.22031E+01 -5.00491E+02 -1.42678E+03 -7.57157E+02
 -1.11366E+03 -3.05358E+02 -3.57677E+02  7.20689E+02  6.04345E+02 -2.45785E+03  7.48762E+02 -1.69322E+03
  1.83077E+03 -8.55928E+02  1.89658E+03 -1.82295E+02  2.01284E+03  1.30154E+03  1.27670E+03  1.93093E+03
 -1.36043E+03  3.81414E+03 -3.62524E+03  2.55215E+03 -3.42400E+03 -8.46463E+02 -1.80174E+03 -1.79048E+03
 -2.28682E+03 -3.20731E+03  3.36974E+02 -3.04105E+03  1.80414E+03 -1.98704E+03  1.56483E+03  6.59989E+02
  1.12843E+03  1.25908E+03 -4.90373E+02  6.36172E+02  2.16943E+01 -3.37892E+02 -2.55611E+02 -5.29681E+02
  1.46846E+03 -9.47334E+02  1.31018E+03 -2.54026E+02  6.54834E+02  1.39562E+03  4.06683E+01  1.33748E+03
 -1.28470E+03  1.19719E+03 -1.43657E+03  1.06463E+03 -2.48363E+03 -1.38478E+03 -1.07226E+01 -1.22899E+03
  1.89565E+03 -1.58008E+03  2.97349E+03 -4.42780E+02  2.18930E+03 -4.11879E+02  1.68444E+03  1.58933E+03
  7.51790E+02  1.69387E+03 -1.40237E+03  1.50372E+03 -5.69271E+02  1.48081E+03 -1.88164E+03  6.50581E+02
 -7.40005E+02  5.07006E+02 -8.48782E+02 -2.36744E+02 -2.12865E+03  4.46870E+02 -7.16496E+02 -1.70864E+03
 -1.75466E+03 -7.53211E+02 -4.75346E+02 -2.38880E+03  1.89037E+03 -2.45943E+03  2.34258E+03 -1.07902E+03
  1.87515E+03 -9.28666E+02 -2.55044E+01  3.93413E+02 -1.25850E+02  1.96297E+03 -1.26790E+03  2.62601E+03
