 $NMID ID='MM_0lb_SNR200_18hz_g50_26.RAW', FMTDAT='(8E13.5)'
 TRAMP=1., VOLUME=1. $END
  3.10279E+05  1.70777E+01  3.36675E+05  2.50248E+05  8.46568E+04  3.37676E+05 -1.31883E+05  2.49819E+05
 -1.89434E+05  8.23795E+04 -1.12165E+05 -3.12874E+04  9.14814E+02 -5.13439E+04  5.33242E+04  2.82113E+02
  3.52727E+04  5.25212E+04 -1.67733E+04  7.50449E+04 -6.06492E+04  6.31267E+04 -8.40502E+04  3.21226E+04
 -8.05573E+04 -1.02420E+04 -5.74130E+04 -5.05058E+04 -1.50856E+04 -6.82531E+04  2.59965E+04 -4.42029E+04
  3.95667E+04  4.36761E+03  1.68751E+04  4.72860E+04 -3.32448E+04  4.63914E+04 -6.49009E+04 -4.36213E+02
 -5.22695E+04 -5.59957E+04 -6.77014E+03 -7.51371E+04  3.41096E+04 -5.29953E+04  4.66897E+04 -1.63354E+04
  4.31107E+04  1.19168E+04  3.15531E+04  2.48482E+04  1.53391E+04  2.86408E+04 -4.49961E+03  2.67954E+04
 -2.25618E+04  1.28223E+04 -1.79615E+04 -4.14168E+03  4.54131E+03 -7.85002E+03  2.21189E+04  1.14906E+04
  7.82234E+03  3.35377E+04 -3.08475E+04  3.38543E+04 -6.21478E+04  2.23190E+03 -5.57249E+04 -4.22218E+04
 -1.31790E+04 -6.13172E+04  3.81539E+04 -4.28123E+04  5.53609E+04 -1.93685E+03  3.21487E+04  3.10163E+04
 -6.15616E+03  3.41966E+04 -2.75993E+04  1.34225E+04 -2.84905E+04 -5.28872E+03 -1.42860E+04 -1.00441E+04
 -7.06560E+03 -1.13896E+04 -1.23460E+03 -1.74503E+04  6.26690E+03 -2.30546E+04  1.57591E+04 -1.37543E+04
  1.12288E+04  4.92016E+03 -7.29084E+03  1.33123E+04 -1.94437E+04 -3.14782E+03 -8.35420E+03 -3.15497E+04
  2.16736E+04 -4.21327E+04  4.58712E+04 -1.83465E+04  4.29438E+04  1.69746E+04  1.51015E+04  4.20196E+04
 -1.60607E+04  3.18958E+04 -2.32722E+04 -5.46919E+02 -7.97120E+03 -2.67791E+04  1.94168E+04 -3.03634E+04
  3.74351E+04 -7.78243E+03  3.26628E+04  2.37431E+04  1.56531E+04  4.41429E+04 -8.76007E+03  4.66627E+04
 -2.86008E+04  2.98966E+04 -3.76168E+04  8.72458E+03 -3.84162E+04 -1.41229E+04 -2.22718E+04 -3.56902E+04
  6.31285E+03 -3.55556E+04  2.86244E+04 -1.25053E+04  2.68306E+04  1.14026E+04  4.17389E+03  1.71218E+04
 -1.28498E+04  7.54627E+03 -9.76917E+03 -6.85772E+03  6.07951E+03 -1.03375E+04  1.75760E+04  6.54854E+03
  1.16086E+04  2.03085E+04 -5.51847E+03  2.28560E+04 -2.18141E+04  9.45986E+03 -2.59466E+04 -6.40436E+03
 -1.76736E+04 -1.68342E+04 -5.86225E+03 -1.68170E+04  3.74816E+03 -1.64079E+04  1.31872E+04 -1.50246E+04
  2.25810E+04 -1.04946E+04  2.94466E+04  1.58183E+03  2.17701E+04  1.72809E+04  4.34988E+03  3.43387E+04
 -1.66656E+04  2.81842E+04 -2.69886E+04  9.55540E+03 -2.04550E+04 -1.07668E+04 -4.05078E+03 -1.36935E+04
  2.99609E+03 -4.18708E+03 -2.95032E+03  4.32729E+03 -1.26003E+04  5.01101E+03 -1.41048E+04 -5.30489E+03
 -8.24735E+03 -1.65377E+04  4.26828E+03 -2.04746E+04  1.24379E+04 -1.37864E+04  1.57855E+04 -1.24437E+03
  9.00116E+03  1.14295E+04 -1.56163E+03  1.59448E+04 -1.02662E+04  8.11793E+03 -1.55227E+04 -4.02616E+03
 -1.25045E+04 -1.39557E+04 -1.20987E+03 -2.01980E+04  9.63767E+03 -1.61018E+04  1.69559E+04 -7.64421E+03
  1.41740E+04  5.15623E+02  1.15889E+04  3.63502E+03  7.07230E+03  6.73981E+02  9.04817E+03 -1.60778E+03
  1.44866E+04  2.74289E+03  1.61390E+04  1.26981E+04  9.85539E+03  2.59527E+04 -4.07195E+03  2.78105E+04
 -1.71030E+04  2.03439E+04 -2.47530E+04  1.05276E+04 -2.71334E+04 -1.44883E+03 -2.18049E+04 -1.55319E+04
 -1.03482E+04 -2.12515E+04  6.93421E+03 -2.02836E+04  1.71491E+04 -1.07417E+04  1.58005E+04  3.90389E+03
  6.09686E+03  1.15731E+04 -8.24853E+03  1.04605E+04 -1.38407E+04  2.91197E+03 -1.09863E+04 -8.30429E+03
 -1.43110E+03 -1.30180E+04  7.20301E+03 -9.31821E+03  7.34468E+03 -1.11500E+03  5.83152E+02  5.35256E+03
 -5.96531E+03  6.71404E+02 -3.73651E+03 -5.34449E+03  6.05810E+02 -1.01823E+04  9.08160E+03 -1.19072E+04
  1.35720E+04 -5.19883E+03  1.28804E+04  2.57352E+03  1.14276E+04  1.06089E+04  6.05851E+03  1.43630E+04
 -2.27710E+03  1.57761E+04 -1.13449E+04  9.90139E+03 -1.13755E+04  3.40877E+03 -9.58367E+03 -1.62732E+03
 -5.31067E+03 -3.01649E+03 -2.21664E+03  1.23771E+03 -1.38590E+03  2.34247E+03 -3.57115E+03  4.08966E+03
 -7.68621E+03 -6.28263E+02 -8.88917E+03 -7.13582E+03 -4.08416E+03 -1.15091E+04  3.96331E+03 -9.80312E+03
  7.00435E+03 -3.80170E+03  6.40613E+03  1.99866E+03  1.21353E+03  2.93762E+03 -3.66722E+03  1.00090E+03
 -3.67750E+03 -4.97689E+03 -2.09095E+03 -7.65855E+03  3.11406E+03 -8.55091E+03  1.03637E+04 -3.84188E+03
  1.25470E+04  9.93378E+02  8.93058E+03  7.64810E+03  1.15399E+03  8.93880E+03 -5.42163E+03  8.74732E+03
 -7.58341E+03  2.03202E+03 -4.04739E+03 -1.37019E+03  1.94452E+03 -2.50391E+03  5.23870E+03 -1.84497E+02
  3.88006E+03  2.48216E+03  1.05733E+03  6.56910E+03 -4.52745E+03  7.06995E+03 -8.49394E+03  1.80937E+03
 -4.57401E+03 -3.26997E+03  5.30743E+02 -6.89003E+03  4.14201E+03 -4.07306E+03  3.73665E+03  8.11441E+02
  8.57023E+02  4.30731E+03 -4.56506E+03  4.73131E+03 -6.06104E+03  2.04500E+03 -3.86302E+03 -1.35812E+03
 -4.05534E+03 -7.28285E+03  1.65301E+03 -7.69005E+03  6.81062E+03 -4.66745E+03  7.04241E+03  5.54582E+02
  4.58714E+03  5.10031E+03  3.91476E+02  6.36808E+03 -5.08635E+03  5.27241E+03 -5.11453E+03 -1.05554E+03
 -6.01510E+03 -4.37565E+03 -1.06791E+03 -5.46759E+03  2.42142E+03 -4.74741E+03  2.71856E+03 -4.66188E+03
  2.44545E+03 -1.76786E+02  1.01062E+02  4.19433E+02 -1.41196E+02 -6.02599E+02  6.47904E+02 -1.42281E+03
  3.47496E+03 -1.69807E+03  6.83292E+03  5.77792E+01  5.91848E+03  2.77840E+03  5.89379E+03  7.55163E+03
 -1.27106E+03  8.70394E+03 -7.75911E+03  5.69445E+03 -1.06609E+04  2.48861E+03 -8.60395E+03 -2.78732E+03
 -4.38376E+03 -6.88966E+03 -2.21378E+02 -6.04272E+03  3.17360E+03 -2.58856E+03  1.76775E+03 -2.98924E+03
  2.14346E+03 -3.40696E+02  1.74611E+03 -2.55867E+03  3.16991E+03 -6.41557E+02  3.29117E+03  1.18452E+03
  4.48594E+03  1.86368E+03  1.54518E+03  2.28321E+03 -1.50530E+03  4.30006E+03 -5.42661E+03  2.52733E+03
 -6.37133E+03 -1.11855E+03 -1.80142E+03 -3.64083E+03  1.04681E+03 -6.29959E+03  4.28116E+03 -6.45482E+03
  6.48153E+03 -3.49398E+03  6.92013E+03 -7.95518E+01  5.06742E+03  5.41872E+03  1.25285E+03  6.19708E+03
 -3.11673E+03  6.12184E+03 -4.33920E+03  1.83009E+03 -2.71908E+03 -1.26251E+03 -8.45066E+02 -8.28701E+02
 -5.62020E+02 -3.37938E+01 -1.56180E+03  2.62463E+03 -3.18875E+03  5.64656E+02 -5.22209E+03 -1.08228E+02
 -1.98093E+03 -2.96014E+03  1.33222E+03 -5.34571E+03  1.96147E+03 -3.98344E+03  4.20623E+03 -1.60343E+03
  5.58842E+03  3.07447E+03  1.73957E+03  3.97103E+03  2.32104E+01  5.00449E+03 -1.30066E+03  2.93184E+03
 -4.31037E+03  1.43881E+02 -3.24517E+03 -1.69534E+03 -1.57885E+03 -3.58600E+03  1.51273E+03 -3.74759E+03
  2.79841E+03 -1.49969E+03  2.44937E+03  5.09092E+02  1.43193E+03  1.48137E+03  6.26117E+02  7.31828E+02
  1.65199E+03  7.20814E+02  4.77471E+02  7.21842E+02 -3.77263E+02  3.11890E+03  7.99089E+02  1.14031E+03
 -1.45405E+03  3.34779E+03 -2.48290E+03  4.74443E+03 -3.90639E+03  1.59278E+03 -4.71796E+03 -4.45458E+02
 -1.90399E+03 -3.53963E+03  1.06562E+03 -5.46948E+03  3.07802E+03 -1.30253E+03  3.28050E+03 -2.07738E+03
  3.60147E+03  2.09700E+03  2.21418E+02  2.63004E+03 -2.34069E+02  6.22725E+02 -1.72973E+03 -3.29308E+02
 -1.09496E+03 -9.91001E+02  1.61520E+03 -2.33387E+03  1.06083E+03 -9.16373E+02  1.43630E+03  5.54583E+00
  9.27869E+02  4.46789E+02  2.76097E+02 -1.16657E+03  3.37259E+01  9.71006E+02  1.20901E+03 -1.17930E+02
 -9.82532E+02 -1.19779E+01  2.09748E+03  1.56673E+02  6.26120E+02  2.77090E+03 -7.79886E+02  2.62457E+03
 -1.89212E+03  1.39188E+03 -2.97908E+03  6.13352E+02 -1.40465E+03 -1.72170E+03 -2.04688E+02 -1.40733E+03
  7.70754E+02 -8.79056E+02  1.02873E+03 -1.32117E+03  1.34104E+03  2.03627E+03 -1.18342E+03  4.03328E+02
 -1.77270E+03  1.51231E+03 -1.58562E+03 -2.20433E+03 -1.42003E+03 -2.04082E+03 -4.92559E+01 -1.83732E+03
  4.01335E+02 -8.71525E+02  1.43188E+03  2.32114E+02  1.52905E+03 -4.50722E+02  1.48389E+03  8.13104E+02
 -1.07031E+03  6.10471E+02  6.84537E+01 -7.39338E+02  4.70915E+02 -1.84710E+03  1.46277E+03 -1.45834E+03
  8.80798E+02 -3.12467E+02  2.84832E+03  2.29098E+03  7.32045E+02  2.50935E+03 -2.24811E+02  1.37009E+03
 -1.29559E+03  1.54292E+02 -2.15184E+03 -1.93890E+02  2.88988E+02 -1.21351E+03 -6.90074E+02 -9.17076E+02
  1.70404E+03 -9.69512E+02 -1.45892E+02  1.28525E+03  6.94051E+02  1.01659E+03  5.87291E+02  5.73972E+02
  6.35289E+02  8.05712E+02  6.63181E+02  5.20328E+02 -2.34395E+02 -2.60537E+02 -1.19820E+03  4.49516E+02
 -3.62182E+02  1.36253E+03 -1.88131E+03  2.64631E+02 -2.36727E+03 -1.11406E+02 -2.43585E+03 -5.74827E+02
 -4.25798E+02 -2.61779E+03 -3.95245E+02 -3.00084E+03  1.19260E+03 -3.32516E+03  2.96320E+03 -5.44730E+02
  2.15812E+03  6.35168E+02  1.96108E+03  2.96544E+03 -1.97586E+01  2.35095E+03 -3.21532E+00  1.72635E+03
 -1.08090E+03  1.11888E+01 -1.10982E+03 -9.14740E+02  4.49436E+02  1.22954E+01  6.88347E+01 -1.92472E+02
 -2.67367E+03  5.20599E+02 -5.69702E+02  3.20176E+02  2.44110E+01 -9.89404E+02  3.85786E+02 -8.73678E+02
  1.54099E+03 -1.09782E+03  2.65218E+02  7.95529E+01  1.94790E+03  1.10612E+03 -5.73248E+02  2.33270E+03
 -8.25636E+02  1.05942E+03 -1.65610E+03  1.21788E+03 -1.35581E+03 -1.18814E+03 -1.89938E+03 -1.33531E+03
  9.86285E+01 -1.36240E+03  2.68401E+02 -1.03795E+03  4.02546E+02  1.75456E+02  7.26802E+02  6.09544E+02
  9.84264E+02  4.79044E+02 -7.03286E+02  7.66346E+02  1.24977E+02 -4.97252E+02  7.61561E+02 -3.04170E+02
  7.91879E+02 -8.17320E+01  2.78266E+02 -1.57870E+02 -4.13663E+02  1.15972E+02  7.29341E+02 -9.90048E+01
 -9.60674E+02  7.85414E+02 -6.21698E+02  3.95555E+02 -8.21944E+02 -1.32227E+03 -6.88786E+02 -2.14308E+03
 -9.32626E+01 -9.03143E+02 -2.46821E+02  1.04390E+01  7.55231E+02 -1.56965E+03 -1.18122E+02  1.25712E+03
  5.33808E+02  1.08371E+03 -3.38755E+02  1.31809E+03 -3.25015E+02  2.38017E+02 -5.82778E+02  3.59728E+02
 -5.89791E+02  1.30871E+03 -7.79287E+02  2.05605E+01 -2.07003E+02  3.20717E+02 -5.64456E+02 -3.68959E+02
 -1.50737E+03  8.49278E+02 -1.38336E+03 -1.65701E+03  8.37884E+02 -1.23923E+03  1.06964E+03 -5.20856E+01
  8.40387E+02 -1.02729E+03 -1.20924E+03  1.22374E+03 -8.29381E+02  1.66689E+03  4.10696E+02  8.56680E+02
