 $NMID ID='MM_0lb_SNR200_10hz_g50_75.RAW', FMTDAT='(8E13.5)'
 TRAMP=1., VOLUME=1. $END
  3.12333E+05 -1.73398E+01  3.39144E+05  2.51072E+05  8.45064E+04  3.38343E+05 -1.32494E+05  2.52491E+05
 -1.90911E+05  8.38487E+04 -1.11397E+05 -3.28698E+04  4.15042E+02 -5.00497E+04  5.37053E+04 -4.35296E+02
  3.56328E+04  5.31489E+04 -1.60309E+04  7.67655E+04 -6.14879E+04  6.55847E+04 -8.61416E+04  3.18593E+04
 -8.23076E+04 -1.36129E+04 -5.83815E+04 -5.10233E+04 -1.35693E+04 -7.07222E+04  2.78740E+04 -4.64916E+04
  4.17525E+04  4.42674E+03  1.80683E+04  4.84877E+04 -3.41872E+04  4.97580E+04 -6.81726E+04 -1.17686E+03
 -5.43554E+04 -5.76842E+04 -6.37637E+03 -8.00972E+04  3.42659E+04 -5.65739E+04  5.05938E+04 -1.85311E+04
  4.45300E+04  1.24172E+04  3.31770E+04  2.51889E+04  1.65857E+04  3.05280E+04 -5.36452E+03  2.70701E+04
 -2.24887E+04  1.16501E+04 -1.80506E+04 -5.57769E+03  5.71202E+03 -7.20789E+03  2.24448E+04  1.36405E+04
  7.26992E+03  3.64188E+04 -3.32820E+04  3.77189E+04 -6.57017E+04  1.61236E+03 -5.77780E+04 -4.36977E+04
 -1.28320E+04 -6.46356E+04  3.97522E+04 -4.64900E+04  6.06522E+04 -1.57730E+03  3.57705E+04  3.32173E+04
 -4.51416E+03  3.93137E+04 -3.31249E+04  1.83987E+04 -3.34441E+04 -3.86353E+03 -2.02410E+04 -1.16337E+04
 -8.15773E+03 -1.67819E+04 -1.05421E+02 -1.99684E+04  9.62504E+03 -2.42805E+04  1.43412E+04 -1.38127E+04
  1.01692E+04  6.82353E+03 -1.10886E+04  1.42095E+04 -2.32008E+04 -6.12060E+03 -8.70537E+03 -3.76557E+04
  2.45304E+04 -4.65400E+04  5.16351E+04 -2.24589E+04  4.80990E+04  1.98648E+04  1.54565E+04  4.66079E+04
 -1.61991E+04  3.71755E+04 -2.60428E+04  2.26313E+03 -1.17042E+04 -3.01805E+04  2.15611E+04 -3.52432E+04
  4.40807E+04 -1.09640E+04  4.01097E+04  2.45608E+04  1.96837E+04  5.09051E+04 -8.18819E+03  5.55737E+04
 -3.46973E+04  3.71561E+04 -4.68692E+04  1.15976E+04 -4.71082E+04 -1.66452E+04 -2.59045E+04 -4.07603E+04
  7.76000E+03 -4.12567E+04  3.33851E+04 -1.68639E+04  3.25108E+04  1.28592E+04  5.18796E+03  2.04624E+04
 -1.31296E+04  7.68587E+03 -1.14652E+04 -7.79978E+03  6.05946E+03 -1.05959E+04  1.92454E+04  4.56354E+03
  1.38029E+04  2.31128E+04 -5.72319E+03  2.75413E+04 -2.20648E+04  1.47888E+04 -3.00079E+04 -3.82516E+03
 -2.64823E+04 -1.84306E+04 -9.93892E+03 -2.31323E+04  5.33970E+03 -2.39888E+04  1.99538E+04 -1.94605E+04
  3.15098E+04 -1.39369E+04  3.62222E+04  3.82205E+03  2.64038E+04  2.51138E+04  4.96727E+03  3.87340E+04
 -1.94808E+04  3.24609E+04 -3.02909E+04  1.18773E+04 -2.17428E+04 -9.40273E+03 -5.42720E+03 -1.31317E+04
  1.35533E+03  1.51100E+02 -6.53746E+03  5.91590E+03 -1.91057E+04  5.55984E+03 -2.05999E+04 -9.18105E+03
 -1.17843E+04 -2.29529E+04  6.38250E+03 -2.58487E+04  1.89509E+04 -2.04813E+04  2.28652E+04 -2.34373E+03
  1.52821E+04  1.50926E+04 -2.44594E+03  2.17860E+04 -1.49722E+04  1.39592E+04 -2.30797E+04 -4.14375E+03
 -1.53959E+04 -1.99577E+04 -3.58910E+03 -2.82123E+04  1.21818E+04 -2.32663E+04  2.32082E+04 -1.03400E+04
  2.11134E+04 -5.17235E+02  1.66651E+04  4.98486E+03  8.38290E+03  1.83160E+03  1.21519E+04 -2.49894E+03
  2.16000E+04  1.71395E+03  2.39516E+04  1.82672E+04  1.56879E+04  3.67154E+04 -2.10343E+03  4.22267E+04
 -2.43444E+04  3.58427E+04 -4.01260E+04  1.59126E+04 -4.20919E+04 -3.07931E+03 -3.49719E+04 -2.55788E+04
 -1.29491E+04 -3.54643E+04  1.31604E+04 -3.03786E+04  2.77035E+04 -1.49313E+04  2.28906E+04  5.28324E+03
  7.56557E+03  1.72229E+04 -1.05371E+04  1.55818E+04 -1.96269E+04  2.92553E+03 -1.49616E+04 -1.20357E+04
  7.38245E+02 -2.00875E+04  9.75425E+03 -1.31349E+04  1.19759E+04 -3.22901E+03  2.60393E+03  7.10394E+03
 -8.31172E+03  3.76347E+03 -8.41154E+03 -6.50164E+03 -1.01187E+03 -1.72605E+04  1.19331E+04 -1.88517E+04
  2.15871E+04 -1.08239E+04  2.38976E+04  5.52019E+03  2.13619E+04  1.76887E+04  9.37892E+03  2.71834E+04
 -5.30384E+03  2.92600E+04 -2.03658E+04  1.77182E+04 -2.20467E+04  5.02037E+03 -1.39405E+04 -5.42678E+03
 -6.30917E+03 -6.85354E+03 -2.96401E+02  3.53826E+02 -2.47836E+03  1.76753E+03 -6.62918E+03  5.47413E+03
 -1.33120E+04 -1.68551E+03 -1.41713E+04 -1.04012E+04 -5.88451E+03 -1.91312E+04  6.57813E+03 -1.33368E+04
  1.21742E+04 -6.30683E+03  8.97926E+03  3.94933E+03 -1.19663E+03  5.49327E+03 -7.60065E+03  6.70040E+02
 -5.40252E+03 -1.00557E+04 -1.95791E+03 -1.55421E+04  8.44955E+03 -1.41024E+04  1.83389E+04 -8.73553E+03
  2.09349E+04  1.79438E+03  1.62374E+04  1.31538E+04  2.34797E+03  1.75318E+04 -9.38466E+03  1.47059E+04
 -1.24129E+04  4.85361E+03 -7.46118E+03 -4.07980E+03  2.89398E+03 -3.95474E+03  8.59217E+03 -2.52499E+02
  7.88387E+03  5.63396E+03  2.28018E+02  1.11856E+04 -1.11765E+04  1.27031E+04 -1.42485E+04  1.16438E+03
 -1.09065E+04 -8.03111E+03  4.85667E+02 -1.21281E+04  9.46295E+03 -5.54615E+03  9.54254E+03  2.59586E+03
  1.66617E+03  8.35148E+03 -8.85186E+03  9.77547E+03 -1.16025E+04  4.39507E+03 -1.29775E+04 -5.67724E+03
 -8.22224E+03 -1.47990E+04  3.21750E+03 -1.80442E+04  1.25967E+04 -1.06850E+04  1.56031E+04  2.21499E+03
  9.34207E+03  1.13420E+04  1.57158E+02  1.32904E+04 -9.41137E+03  8.09039E+03 -1.24286E+04 -1.24542E+03
 -9.86687E+03 -9.38687E+03 -1.26047E+03 -1.06878E+04  6.36504E+03 -9.14080E+03  7.99386E+03 -2.32068E+03
  5.78609E+03  5.32811E+02 -1.37885E+03  2.98471E+03  4.40572E+02 -3.67128E+03  1.94986E+03 -6.72821E+03
  1.05613E+04 -4.34156E+03  1.38882E+04  2.60919E+03  1.46415E+04  1.07219E+04  9.30467E+03  1.90920E+04
 -3.51203E+03  2.22240E+04 -1.76173E+04  1.65950E+04 -2.34088E+04  3.33121E+03 -2.03499E+04 -7.27190E+03
 -8.64886E+03 -1.50132E+04 -4.07000E+02 -1.44558E+04  5.18098E+03 -7.43240E+03  6.26147E+03 -4.43245E+03
  5.01878E+03 -1.96715E+03  4.05632E+03 -3.53568E+03  6.27392E+03 -2.59389E+03  6.31072E+03 -1.14352E+03
  1.07286E+04  1.23930E+03  4.51938E+03  9.18308E+03 -2.52932E+03  8.73462E+03 -1.15867E+04  7.22279E+03
 -1.32524E+04 -2.14640E+03 -8.54254E+03 -8.69048E+03 -1.38784E+03 -1.31776E+04  6.50851E+03 -1.53976E+04
  1.51167E+04 -7.46686E+03  1.96142E+04  3.88082E+03  1.29278E+04  1.17901E+04  2.55775E+03  1.40983E+04
 -7.31166E+03  1.22793E+04 -8.97580E+03  5.51797E+03 -5.80180E+03 -1.05005E+03 -1.07641E+03 -2.91279E+03
 -1.58695E+03  6.78503E+02 -1.22313E+03  3.28827E+03 -5.96330E+03  2.00174E+03 -1.04664E+04 -1.15477E+03
 -6.31093E+03 -8.21399E+03 -6.75659E+02 -1.25271E+04  7.49650E+03 -1.16669E+04  1.32199E+04 -5.35542E+03
  1.32407E+04  5.46542E+03  5.95748E+03  1.09613E+04 -1.92129E+03  1.44059E+04 -1.00585E+04  8.84745E+03
 -1.05149E+04  1.77337E+03 -9.41482E+03 -9.00583E+03 -5.30556E+02 -1.07364E+04  5.29051E+03 -7.39451E+03
  8.65313E+03 -2.88921E+03  4.88167E+03  2.38234E+03  3.08045E+03  4.03174E+03  1.62514E+03  8.36627E+02
  1.40798E+03  7.93346E+02  2.82106E+03  1.20193E+03  4.32701E+03  5.65282E+03  3.60096E+03  7.53741E+03
 -2.92323E+03  1.12465E+04 -1.02351E+04  8.64050E+03 -1.28746E+04  2.59362E+03 -1.54680E+04 -3.53786E+03
 -6.47643E+03 -1.23090E+04  9.52978E+02 -1.54001E+04  6.55954E+03 -7.51010E+03  1.35481E+04 -2.40271E+03
  8.43139E+03  5.71252E+03  1.72217E+03  7.57558E+03 -5.65676E+03  6.06132E+03 -6.49503E+03 -3.91779E+02
 -2.45892E+03 -5.88927E+03  1.82473E+03 -4.59908E+03  5.94198E+03 -1.82376E+03  4.98744E+03  1.19526E+03
  2.61283E+03  3.25213E+03  5.55270E+02  1.33279E+03  2.49966E+02  1.78180E+03  9.57273E+02 -1.09232E+03
  1.41642E+03 -1.07702E+03  5.93887E+03  3.25589E+03  2.35970E+03  7.26469E+03 -1.31867E+03  7.84970E+03
 -5.93627E+03  6.26407E+03 -8.39530E+03  1.01687E+03 -8.09443E+03 -2.40822E+03 -4.06751E+03 -7.08630E+03
  1.58829E+03 -3.91432E+03  3.99262E+03 -1.48003E+03  3.77310E+03  2.14702E+03 -2.60027E+03  3.68134E+03
 -5.75447E+03  1.71463E+03 -5.70478E+03 -2.82024E+03 -3.51889E+03 -8.88602E+03  2.96527E+03 -8.22126E+03
  2.85341E+03 -4.20420E+03  4.91841E+03 -7.10031E+02  4.17611E+03  3.80647E+01 -6.01104E+02  2.78172E+03
 -2.47044E+03  1.67265E+03 -3.69793E+03 -2.71620E+03  9.03244E+02 -6.06961E+03  7.01790E+03 -3.76903E+03
  9.09177E+03 -1.25621E+02  7.14762E+03  5.90802E+03  2.74785E+03  7.22797E+03 -3.75207E+03  8.13702E+03
 -7.32354E+03  3.69756E+03 -7.67464E+03 -2.00965E+03 -3.48392E+03 -5.50800E+03  1.10782E+03 -5.95004E+03
  5.92693E+03 -3.33319E+03  4.22284E+03  3.35330E+03  1.94810E+03  4.77374E+03  9.23563E+01  3.92216E+03
 -1.79364E+03  2.96801E+03 -2.02798E+03  3.71267E+01  6.62824E+02  6.24930E+02 -1.66907E+03  8.37753E+02
 -1.74778E+03  3.86145E+03 -5.12583E+03  3.33274E+03 -7.72114E+03  8.95946E+02 -1.04040E+04 -5.56281E+03
 -4.16953E+03 -1.17978E+04  1.85635E+03 -1.39593E+04  8.89678E+03 -9.26262E+03  1.18807E+04 -5.21595E+03
  1.16556E+04  3.10384E+03  6.68264E+03  7.28124E+03  1.39682E+03  8.72661E+03 -3.77080E+03  7.14079E+03
 -5.62173E+03  2.12527E+03 -4.00499E+03 -1.82048E+03 -1.69092E+03  2.35768E+02 -8.74316E+02 -5.10493E+02
 -3.18454E+03 -9.64809E+02 -3.50273E+03 -5.22155E+02 -5.42656E+01 -3.11698E+03 -2.15775E+01 -2.75666E+03
  3.45126E+03 -2.54726E+03  6.65679E+03  2.83962E+01  6.25721E+03  5.99276E+03  3.39689E+02  8.49907E+03
 -3.60210E+03  7.82541E+03 -9.10318E+03  7.08832E+03 -1.10326E+04  1.73645E+00 -8.00549E+03 -6.37781E+03
 -2.98571E+03 -9.39112E+03  1.53223E+03 -9.71835E+03  5.28108E+03 -3.80724E+03  4.98967E+03  1.38635E+02
  2.58749E+03  2.98630E+03 -8.44605E+02  2.84075E+03 -1.83656E+03 -1.50887E+03 -1.19887E+03 -2.33517E+03
  2.16905E+03  2.81057E+02  2.34971E+03  2.55438E+02  1.50937E+02  3.65546E+03  1.01028E+03  3.78229E+03
 -1.74531E+03  4.09538E+03 -5.56742E+03  2.41209E+03 -5.77876E+03 -6.05917E+03  9.08775E+01 -7.66815E+03
  3.26108E+03 -6.35763E+03  8.19406E+03 -3.15177E+03  7.02637E+03  1.96873E+03  3.67903E+03  4.37777E+03
  6.67584E+02  6.02967E+03 -1.77247E+03  6.00086E+03 -3.14382E+03  4.81432E+03 -2.12583E+03 -4.70565E+02
 -1.96463E+03 -6.45271E+02 -1.07742E+03  5.39356E+02 -3.19633E+03  4.40700E+02 -4.43398E+03 -7.12101E+02
 -4.19696E+03 -2.87955E+03 -1.39713E+03 -6.04047E+03  2.01587E+03 -6.75962E+03  4.86994E+03 -1.11978E+03
  5.01335E+03 -9.29553E+02  3.77262E+03  2.63602E+03  6.67508E+02  5.44728E+03 -3.65894E+03  4.52870E+03
