 $NMID ID='MM_0lb_SNR200_12hz_g50_63.RAW', FMTDAT='(8E13.5)'
 TRAMP=1., VOLUME=1. $END
  3.09991E+05  6.41990E+02  3.38386E+05  2.51488E+05  8.53816E+04  3.37633E+05 -1.32035E+05  2.52620E+05
 -1.90509E+05  8.29970E+04 -1.13045E+05 -3.21364E+04  1.49957E+03 -5.11622E+04  5.38561E+04 -6.12875E+02
  3.45978E+04  5.26170E+04 -1.69191E+04  7.62000E+04 -6.17131E+04  6.39660E+04 -8.46852E+04  3.19123E+04
 -8.16307E+04 -1.19796E+04 -5.81053E+04 -5.22179E+04 -1.48198E+04 -7.03605E+04  2.78128E+04 -4.57245E+04
  4.08780E+04  3.39233E+03  1.59736E+04  4.78642E+04 -3.26047E+04  4.87592E+04 -6.72774E+04 -2.98194E+02
 -5.45207E+04 -5.68126E+04 -6.44691E+03 -7.81015E+04  3.45482E+04 -5.60500E+04  4.83203E+04 -1.85065E+04
  4.38469E+04  1.10360E+04  3.22388E+04  2.71762E+04  1.41773E+04  3.03264E+04 -5.55308E+03  2.83434E+04
 -2.31491E+04  1.29520E+04 -1.85169E+04 -4.51643E+03  5.78980E+03 -7.41305E+03  2.28652E+04  1.20981E+04
  8.35907E+03  3.55088E+04 -3.25852E+04  3.72130E+04 -6.45008E+04  1.83258E+03 -5.81273E+04 -4.37220E+04
 -1.31015E+04 -6.44370E+04  4.20733E+04 -4.57177E+04  5.87771E+04 -3.24726E+03  3.49400E+04  3.54559E+04
 -4.46085E+03  3.69682E+04 -3.10354E+04  1.71465E+04 -3.17474E+04 -3.87549E+03 -1.61500E+04 -1.13030E+04
 -9.07123E+03 -1.35114E+04 -1.27844E+03 -1.80056E+04  8.37267E+03 -2.36105E+04  1.59061E+04 -1.28069E+04
  1.05727E+04  6.04343E+03 -8.43402E+03  1.50893E+04 -2.16472E+04 -4.15416E+03 -7.68062E+03 -3.56317E+04
  2.39150E+04 -4.55360E+04  5.04019E+04 -2.01103E+04  4.54181E+04  1.99840E+04  1.68626E+04  4.50422E+04
 -1.58441E+04  3.37149E+04 -2.45051E+04  2.69297E+03 -1.14765E+04 -2.83552E+04  2.31947E+04 -3.40870E+04
  4.29698E+04 -9.30910E+03  3.65645E+04  2.44637E+04  1.92745E+04  4.74805E+04 -8.96777E+03  5.16775E+04
 -3.31772E+04  3.39830E+04 -4.46864E+04  8.90669E+03 -4.33827E+04 -1.76277E+04 -2.48706E+04 -3.88958E+04
  8.53398E+03 -3.94552E+04  3.20160E+04 -1.49311E+04  2.97316E+04  9.61600E+03  3.73465E+03  1.94638E+04
 -1.44864E+04  8.98597E+03 -1.19614E+04 -6.88110E+03  5.96742E+03 -1.07771E+04  1.88143E+04  6.04646E+03
  1.37759E+04  2.31721E+04 -5.27953E+03  2.55875E+04 -2.21351E+04  1.20665E+04 -2.88677E+04 -3.64296E+03
 -2.23214E+04 -1.72918E+04 -9.64499E+03 -2.21365E+04  4.91696E+03 -2.16483E+04  1.80599E+04 -1.91008E+04
  2.79994E+04 -1.32763E+04  3.43850E+04  3.40919E+03  2.54746E+04  2.21837E+04  4.59052E+03  3.86528E+04
 -1.66048E+04  3.08139E+04 -3.01954E+04  1.02630E+04 -2.12233E+04 -1.02680E+04 -4.42272E+03 -1.48200E+04
  1.00186E+03 -2.46359E+03 -5.08856E+03  8.66480E+03 -1.82976E+04  4.15407E+03 -1.77585E+04 -8.91244E+03
 -1.05358E+04 -1.95972E+04  4.03295E+03 -2.35999E+04  1.74030E+04 -1.90664E+04  2.01921E+04 -2.25996E+03
  1.28590E+04  1.36767E+04 -2.41361E+02  2.03328E+04 -1.45039E+04  1.35866E+04 -2.10094E+04 -4.48081E+03
 -1.62945E+04 -1.92916E+04 -1.50765E+03 -2.37456E+04  1.19146E+04 -2.05172E+04  2.18424E+04 -1.06891E+04
  1.98834E+04 -8.61171E+00  1.38390E+04  5.27760E+03  8.23880E+03  7.54286E+02  9.76641E+03 -2.60802E+03
  1.95907E+04  2.16602E+03  2.09718E+04  1.68901E+04  1.45569E+04  3.32681E+04 -3.00546E+03  3.89018E+04
 -2.17211E+04  3.08923E+04 -3.72726E+04  1.65116E+04 -3.79103E+04 -3.38449E+03 -3.21400E+04 -2.25230E+04
 -1.24580E+04 -3.15420E+04  1.19073E+04 -2.61668E+04  2.40719E+04 -1.42879E+04  2.11098E+04  5.71378E+03
  7.09425E+03  1.58093E+04 -1.11862E+04  1.33970E+04 -1.73846E+04  3.23165E+03 -1.24577E+04 -1.10429E+04
  4.74605E+01 -1.81185E+04  9.09507E+03 -1.27106E+04  1.17930E+04 -7.15786E+02  2.42509E+03  7.92642E+03
 -6.93850E+03  3.26411E+03 -6.45633E+03 -6.16555E+03 -1.34397E+03 -1.55936E+04  1.06529E+04 -1.56362E+04
  1.99262E+04 -9.11291E+03  2.12945E+04  3.67433E+03  1.78291E+04  1.53130E+04  7.58399E+03  2.40403E+04
 -4.37522E+03  2.47486E+04 -1.68541E+04  1.69448E+04 -1.81472E+04  3.29392E+03 -1.22177E+04 -4.27424E+03
 -5.04372E+03 -5.90381E+03 -8.59620E+02  3.40290E+02 -3.12867E+03  2.75391E+03 -6.12409E+03  4.54592E+03
 -1.08709E+04 -9.52941E+02 -1.31236E+04 -1.06557E+04 -5.13059E+03 -1.63347E+04  6.45203E+03 -1.27104E+04
  9.82277E+03 -5.98691E+03  9.44093E+03  4.32255E+03  3.89397E+01  5.08310E+03 -6.34088E+03 -1.44430E+03
 -6.33638E+03 -9.14505E+03 -1.51620E+03 -1.20819E+04  7.64277E+03 -1.26274E+04  1.67271E+04 -6.93391E+03
  1.73835E+04  1.60925E+03  1.38065E+04  1.16185E+04  2.21566E+03  1.37840E+04 -7.56237E+03  1.23115E+04
 -1.09640E+04  3.80956E+03 -6.29518E+03 -2.07168E+03  3.42539E+03 -2.67815E+03  7.72452E+03 -1.93823E+03
  6.99252E+03  5.92507E+03  2.41311E+02  1.03912E+04 -8.22012E+03  9.86649E+03 -1.25841E+04  1.55403E+03
 -8.63643E+03 -6.35088E+03  3.33998E+02 -9.70897E+03  6.21162E+03 -5.54678E+03  7.53175E+03  1.84601E+03
  9.55922E+02  8.14633E+03 -5.42822E+03  9.19961E+03 -1.08090E+04  3.79186E+03 -9.91759E+03 -2.32534E+03
 -5.55804E+03 -1.25722E+04  4.08394E+03 -1.43761E+04  1.11887E+04 -7.36246E+03  1.11275E+04  2.56627E+03
  7.85462E+03  9.85477E+03 -8.57308E+02  1.29582E+04 -7.82194E+03  7.72053E+03 -8.68765E+03 -1.07189E+03
 -8.90074E+03 -8.20687E+03 -3.14128E+02 -7.73936E+03  4.10912E+03 -6.74928E+03  6.45555E+03 -4.31269E+03
  6.00511E+03  9.48060E+02 -3.89377E+02  2.11363E+03  1.47502E+02 -7.92058E+02  1.57258E+03 -5.52429E+03
  9.71447E+03 -3.49426E+03  1.17382E+04  1.47324E+03  1.17798E+04  8.06232E+03  7.50814E+03  1.52464E+04
 -4.17691E+03  1.70222E+04 -1.57836E+04  1.46659E+04 -1.87983E+04  2.15870E+03 -1.45484E+04 -6.86231E+03
 -7.18668E+03 -1.25195E+04 -4.09732E+02 -1.12311E+04  4.11608E+03 -4.85971E+03  3.86301E+03 -4.78894E+03
  2.44490E+03 -2.56557E+03  3.41198E+03 -3.20305E+03  4.37127E+03 -3.78077E+03  5.21649E+03 -1.55692E+03
  7.96543E+03  1.15797E+03  4.11136E+03  7.83537E+03 -8.54805E+02  7.60854E+03 -8.97281E+03  4.66611E+03
 -1.06696E+04 -1.81706E+03 -6.51087E+03 -7.23571E+03 -1.58514E+02 -1.26332E+04  6.94389E+03 -1.29272E+04
  1.19943E+04 -7.15049E+03  1.38559E+04  1.33151E+03  1.08329E+04  9.93893E+03  2.01817E+03  1.33000E+04
 -4.61649E+03  1.02828E+04 -7.09410E+03  4.41135E+03 -4.39705E+03 -1.03131E+02 -1.39575E+03 -2.18838E+03
 -1.46146E+03  2.81818E+02 -2.03126E+03  3.40515E+03 -4.02059E+03  1.08178E+03 -7.02061E+03 -9.58257E+02
 -4.62601E+03 -6.13907E+03  5.95567E+02 -9.50175E+03  6.60401E+03 -8.54738E+03  9.94273E+03 -4.19441E+03
  9.87201E+03  4.87742E+03  5.01584E+03  7.49673E+03 -1.01850E+02  1.00946E+04 -8.21517E+03  5.48552E+03
 -8.68500E+03 -9.13793E+02 -7.48272E+03 -7.46983E+03 -1.51450E+03 -8.47491E+03  4.41466E+03 -6.89610E+03
  5.90104E+03 -2.62743E+03  5.31656E+03  1.85652E+03  2.15399E+03  3.87160E+03  1.47246E+03  2.72278E+03
  2.03374E+03  5.77212E+02  2.70037E+03  8.78975E+02  2.88104E+03  3.88809E+03  1.83400E+03  5.53608E+03
 -1.83462E+03  9.41065E+03 -7.07179E+03  8.80601E+03 -1.02763E+04  1.63995E+03 -1.02336E+04 -3.74281E+03
 -5.62880E+03 -9.09860E+03  1.05955E+03 -1.19493E+04  6.38349E+03 -7.08604E+03  8.14418E+03 -2.36214E+03
  5.34534E+03  3.16655E+03  8.20980E+02  6.86479E+03 -3.04279E+03  3.58026E+03 -3.09841E+03 -8.73914E+02
 -3.10871E+03 -3.74652E+03  2.53035E+03 -4.05878E+03  4.89460E+03 -2.60592E+03  4.70777E+03  1.73319E+03
  2.49121E+03  1.33943E+03  2.27878E+03  1.83075E+03 -1.33490E+03  1.20995E+03  2.27201E+03  1.60708E+03
  5.08002E+02 -2.31984E+02  3.79886E+03  9.42289E+02  2.63863E+03  5.88721E+03 -1.43627E+03  6.50236E+03
 -5.46274E+03  4.08546E+03 -6.25866E+03  3.32784E+02 -6.49674E+03 -2.36945E+03 -2.25110E+03 -3.25857E+03
  9.09487E+02 -4.11236E+03  2.96587E+03 -1.39048E+03  1.81531E+03  3.54399E+03 -1.14854E+03  4.22860E+03
 -4.37072E+03  2.48499E+03 -3.65619E+03 -2.83712E+03 -1.88058E+03 -6.22783E+03  4.63113E+02 -6.44297E+03
  3.11902E+03 -2.73682E+03  2.34685E+03 -9.44535E+02  4.21909E+03  1.05257E+03  7.96257E+02  2.33617E+03
 -8.19290E+02  1.29808E+03 -2.18896E+03 -9.83262E+02  7.75707E+02 -4.15346E+03  4.36866E+03 -2.64012E+03
  4.45976E+03  4.35638E+02  4.99902E+03  3.49081E+03  1.62294E+03  6.79749E+03 -2.83159E+03  4.33300E+03
 -4.15817E+03  1.21328E+03 -6.05415E+03 -1.47990E+03 -3.25339E+03 -4.85112E+03  1.81394E+03 -3.16311E+03
  2.82801E+03 -1.41939E+03  3.61136E+03  2.14237E+03  1.91478E+03  4.04868E+03  1.11927E+02  3.77906E+03
 -1.30613E+02  7.11723E+02 -2.04113E+03  5.90758E+02 -4.18669E+02  4.97441E+02 -4.30773E+02  1.69305E+03
 -2.27968E+03  1.41217E+03 -3.80025E+03  2.16207E+03 -6.59776E+03  4.67826E+02 -6.07758E+03 -4.25037E+03
 -4.58147E+03 -7.89945E+03  3.07526E+03 -8.69535E+03  4.40120E+03 -6.26547E+03  8.99850E+03 -3.00088E+03
  8.18743E+03  1.02796E+03  3.98624E+03  6.07659E+03  3.23665E+02  6.43866E+03 -2.12433E+03  5.48297E+03
 -2.82365E+03  2.75277E+03 -2.27113E+03  7.49931E+02 -8.13412E+02 -9.16552E+02  7.07615E+02 -1.60370E+03
 -2.12019E+03  2.96189E+02 -1.86806E+03 -4.71819E+02 -1.69721E+03 -2.67487E+02 -1.05206E+02 -3.40957E+03
  2.53566E+03 -2.45821E+03  4.32078E+03 -6.24204E+02  3.14317E+03  3.23840E+03 -3.39383E+02  6.47260E+03
 -2.70444E+03  6.77357E+03 -6.20308E+03  3.34245E+03 -7.39317E+03  1.01672E+01 -4.81728E+03 -4.06686E+03
 -4.71340E+03 -5.52421E+03  2.17714E+02 -5.19413E+03  4.87577E+03 -3.58810E+03  3.92789E+03 -2.96094E+01
  2.61374E+03  3.46884E+03  4.19412E+01  3.71302E+02 -2.64313E+02 -2.72586E+02  2.41722E+02 -7.58888E+02
  8.08566E+02 -1.05808E+03  1.65600E+03  1.07541E+02  2.56987E+03  2.60596E+03  1.43015E+02  1.65973E+03
 -3.25553E+03  3.31992E+03 -4.85817E+03 -2.19131E+02 -3.41056E+03 -2.89792E+03 -7.35264E+01 -4.95357E+03
  3.17223E+03 -4.68456E+03  4.37919E+03 -1.06950E+03  4.82387E+03  8.82212E+02  2.12959E+03  3.67037E+03
  8.70374E+02  3.70075E+03 -9.66693E+02  2.60323E+03 -2.46356E+03  1.17638E+03 -2.51719E+03 -9.30932E+02
  7.60378E+02 -1.25271E+02 -5.79353E+02  5.64117E+02 -9.94956E+02  8.10971E+02 -1.27345E+03 -1.28978E+03
 -3.51794E+03 -2.96245E+03 -1.12460E+03 -5.41030E+03  1.96655E+03 -3.85057E+03  2.01003E+03 -1.51309E+03
  4.77932E+03 -5.15203E+02  1.25151E+03  2.99965E+03 -8.17581E+02  3.52037E+03 -2.75873E+03  2.20896E+03
