 $NMID ID='MM_0lb_SNR200_11hz_g40_35.RAW', FMTDAT='(8E13.5)'
 TRAMP=1., VOLUME=1. $END
  3.09296E+05  8.15481E+02  3.37948E+05  2.51153E+05  8.40708E+04  3.37455E+05 -1.33138E+05  2.50779E+05
 -1.89401E+05  8.46542E+04 -1.12339E+05 -3.34882E+04 -1.47900E+02 -5.13728E+04  5.39875E+04 -8.99802E+02
  3.51743E+04  5.33052E+04 -1.75702E+04  7.64925E+04 -6.19794E+04  6.44998E+04 -8.40565E+04  3.19224E+04
 -8.18430E+04 -1.13663E+04 -5.85881E+04 -5.16268E+04 -1.43167E+04 -7.11464E+04  2.70673E+04 -4.60740E+04
  4.07381E+04  4.51381E+03  1.62657E+04  4.86002E+04 -3.40830E+04  4.81516E+04 -6.63062E+04  2.05079E+02
 -5.55066E+04 -5.68433E+04 -8.27496E+03 -7.76913E+04  3.35745E+04 -5.53078E+04  4.98954E+04 -1.98192E+04
  4.47179E+04  1.21237E+04  3.17213E+04  2.67856E+04  1.62063E+04  2.89515E+04 -4.77509E+03  2.62722E+04
 -2.18605E+04  1.18350E+04 -1.85356E+04 -6.44442E+03  5.88683E+03 -6.97408E+03  2.39759E+04  1.27731E+04
  8.33081E+03  3.50292E+04 -3.41196E+04  3.65797E+04 -6.32442E+04  2.83841E+03 -5.79334E+04 -4.31039E+04
 -1.27186E+04 -6.49567E+04  4.11170E+04 -4.60320E+04  5.89268E+04 -9.58680E+02  3.59418E+04  3.33402E+04
 -7.26991E+03  3.68619E+04 -3.08034E+04  1.68207E+04 -3.13034E+04 -5.37418E+03 -1.69987E+04 -1.22093E+04
 -8.86407E+03 -1.57168E+04 -3.53404E+02 -1.74519E+04  7.73677E+03 -2.25881E+04  1.59563E+04 -1.30342E+04
  1.10860E+04  5.32375E+03 -8.97210E+03  1.32171E+04 -2.20143E+04 -7.13336E+03 -7.68959E+03 -3.50701E+04
  2.33263E+04 -4.53211E+04  5.06660E+04 -2.00703E+04  4.63670E+04  2.06927E+04  1.53767E+04  4.44902E+04
 -1.72414E+04  3.51616E+04 -2.60449E+04  2.14064E+03 -9.47545E+03 -2.93288E+04  2.04856E+04 -3.48346E+04
  4.38019E+04 -1.19673E+04  3.71884E+04  2.45090E+04  1.95583E+04  4.87615E+04 -6.93535E+03  5.22151E+04
 -3.31214E+04  3.44601E+04 -4.44316E+04  1.03640E+04 -4.27836E+04 -1.68431E+04 -2.44738E+04 -4.10224E+04
  8.45538E+03 -3.90704E+04  3.16266E+04 -1.56047E+04  3.07615E+04  9.22458E+03  3.76661E+03  1.90592E+04
 -1.35182E+04  7.80382E+03 -9.70991E+03 -7.79566E+03  7.08596E+03 -1.11423E+04  1.80996E+04  5.61648E+03
  1.42936E+04  2.17254E+04 -6.50142E+03  2.75507E+04 -2.31091E+04  1.33582E+04 -2.95621E+04 -4.27935E+03
 -2.23889E+04 -1.81892E+04 -1.02897E+04 -2.29556E+04  4.62797E+03 -2.26135E+04  1.91410E+04 -2.04114E+04
  2.84157E+04 -1.33664E+04  3.32866E+04  3.64623E+03  2.52644E+04  2.08529E+04  3.76255E+03  3.84380E+04
 -1.82055E+04  3.13422E+04 -2.94159E+04  1.13516E+04 -2.13313E+04 -9.91003E+03 -3.85155E+03 -1.30511E+04
  1.91758E+03 -3.08418E+03 -5.38904E+03  7.69229E+03 -1.77702E+04  6.26685E+03 -1.70646E+04 -8.03048E+03
 -9.63838E+03 -2.20746E+04  5.35723E+03 -2.62827E+04  1.61327E+04 -1.77499E+04  1.82399E+04 -1.85445E+03
  1.23622E+04  1.62281E+04 -2.00614E+03  1.96122E+04 -1.31890E+04  1.18546E+04 -2.14162E+04 -3.40175E+03
 -1.55012E+04 -1.84260E+04 -2.90397E+03 -2.52297E+04  1.17979E+04 -2.10420E+04  2.10499E+04 -1.01658E+04
  1.97300E+04  1.59979E+02  1.40535E+04  5.13521E+03  7.72150E+03  5.44821E+02  1.05242E+04 -1.46913E+03
  1.73848E+04  6.17326E+02  2.08064E+04  1.64367E+04  1.56086E+04  3.36708E+04 -3.34781E+03  3.66563E+04
 -2.26832E+04  3.17189E+04 -3.73372E+04  1.61752E+04 -3.87247E+04 -1.77815E+03 -3.01129E+04 -2.23764E+04
 -1.20514E+04 -3.08848E+04  1.11334E+04 -2.71062E+04  2.45755E+04 -1.39753E+04  2.11307E+04  6.15503E+03
  8.07775E+03  1.67784E+04 -9.57356E+03  1.41580E+04 -1.70930E+04  3.00225E+03 -1.43314E+04 -1.15479E+04
 -1.76802E+01 -1.66253E+04  9.27832E+03 -1.27485E+04  1.11091E+04 -1.64824E+03  2.09045E+03  6.96431E+03
 -7.24941E+03  4.60081E+03 -5.83906E+03 -6.27252E+03 -5.64892E+02 -1.53140E+04  1.03925E+04 -1.57094E+04
  1.94481E+04 -8.66720E+03  2.04964E+04  3.05123E+03  1.82912E+04  1.60827E+04  8.24841E+03  2.34043E+04
 -5.04515E+03  2.57279E+04 -1.62225E+04  1.53810E+04 -1.85635E+04  3.43851E+03 -1.41000E+04 -3.72467E+03
 -6.36742E+03 -6.56631E+03  4.59648E+02  1.89515E+03 -2.81484E+03  1.71325E+03 -7.72900E+03  4.57227E+03
 -1.25852E+04 -2.28368E+03 -1.35794E+04 -9.42706E+03 -5.53881E+03 -1.50105E+04  4.44034E+03 -1.27010E+04
  1.02481E+04 -5.19719E+03  6.95722E+03  4.89817E+03  1.16172E+03  6.21839E+03 -5.80516E+03 -2.47407E+02
 -6.55598E+03 -8.60561E+03 -5.06802E+02 -1.30111E+04  7.89472E+03 -1.28788E+04  1.55708E+04 -7.02234E+03
  1.73702E+04  6.84196E+02  1.47795E+04  1.19900E+04  3.50254E+03  1.44808E+04 -7.20560E+03  1.34068E+04
 -1.09484E+04  4.96314E+03 -5.30880E+03 -2.79520E+03  2.63384E+03 -4.08196E+03  6.68637E+03 -1.18810E+03
  8.31368E+03  6.53213E+03  1.23737E+03  1.04856E+04 -6.58364E+03  1.00270E+04 -1.29920E+04  3.41609E+03
 -7.85831E+03 -6.45650E+03  7.57395E+02 -1.02712E+04  7.84842E+03 -4.60728E+03  7.32278E+03  1.03523E+03
  2.39153E+03  8.42838E+03 -6.78998E+03  7.71162E+03 -1.03010E+04  5.93147E+03 -1.02589E+04 -3.82043E+03
 -7.15125E+03 -1.23054E+04  3.16194E+03 -1.46398E+04  1.18509E+04 -8.64830E+03  1.32467E+04  1.73093E+03
  8.90564E+03  1.09638E+04 -1.55406E+03  1.29754E+04 -9.91931E+03  7.24315E+03 -1.03278E+04  5.09126E+02
 -9.25630E+03 -7.53000E+03 -2.64704E+02 -7.37529E+03  5.06269E+03 -7.66537E+03  6.42716E+03 -3.00527E+03
  3.92223E+03  2.04860E+02 -6.71519E+02  2.00256E+03 -5.03382E+01 -2.32755E+03  2.18747E+03 -6.17136E+03
  9.18727E+03 -2.84846E+03  1.21399E+04  4.64320E+02  1.22839E+04  7.99974E+03  9.10829E+03  1.60771E+04
 -4.12303E+03  1.91087E+04 -1.59376E+04  1.31026E+04 -1.94963E+04  3.03467E+03 -1.70212E+04 -8.12145E+03
 -8.42337E+03 -1.43435E+04 -1.17472E+03 -1.20330E+04  4.23260E+03 -6.43623E+03  4.26326E+03 -3.07714E+03
  2.61072E+03 -3.89925E+03  5.80291E+03 -2.54353E+03  3.26527E+03 -2.97437E+03  6.40240E+03 -7.15308E+01
  9.02016E+03  1.42047E+03  4.74544E+03  7.90432E+03 -1.50180E+03  7.97268E+03 -9.51001E+03  6.96681E+03
 -1.08652E+04 -1.51773E+03 -7.55706E+03 -8.28021E+03 -1.50180E+03 -1.33390E+04  7.11130E+03 -1.26236E+04
  1.21115E+04 -8.00971E+03  1.53110E+04  2.45234E+03  1.05701E+04  9.41929E+03  1.76391E+03  1.35974E+04
 -5.83931E+03  1.22054E+04 -7.52264E+03  4.84559E+03 -4.98564E+03  2.29835E+02 -2.99884E+03 -1.69438E+03
 -1.35754E+03  6.80524E+02 -3.41253E+03  2.04474E+03 -4.43693E+03  1.85590E+03 -7.29203E+03 -8.90385E+02
 -4.35279E+03 -7.35927E+03  4.31206E+02 -1.07300E+04  7.49124E+03 -1.10995E+04  1.03145E+04 -3.90153E+03
  9.99493E+03  4.91286E+03  5.71980E+03  1.01497E+04 -2.13910E+03  1.05164E+04 -6.84581E+03  6.99925E+03
 -1.01770E+04  4.52620E+02 -8.88915E+03 -5.91947E+03 -1.60582E+03 -8.93664E+03  5.27592E+03 -6.62437E+03
  7.01960E+03 -3.16018E+03  4.83857E+03  1.69633E+03  1.29328E+03  4.15808E+03  2.14452E+03  1.85176E+03
  1.45141E+03  2.04061E+03  3.07169E+03  1.38248E+03  2.91373E+03  3.67698E+03  2.91549E+03  5.31334E+03
 -2.43016E+03  9.27716E+03 -8.53218E+03  8.77905E+03 -1.11504E+04  1.95449E+03 -1.03830E+04 -4.72229E+03
 -5.13935E+03 -1.10444E+04  2.17965E+03 -1.14026E+04  7.21115E+03 -7.78557E+03  7.98818E+03 -1.65546E+03
  6.92828E+03  4.21096E+03  1.33389E+03  7.08386E+03 -4.08197E+03  3.14416E+03 -4.24273E+03 -9.93933E+02
 -2.44368E+03 -5.13503E+03  2.37738E+03 -5.56645E+03  2.84579E+03 -4.25519E+03  4.71052E+03  8.93759E+02
  2.26147E+03  2.07699E+03  2.37696E+02  4.60571E+01  2.73413E+02  1.00568E+03  1.86706E+03  4.84386E+01
  9.80959E+02 -4.45926E+02  2.56786E+03  2.20303E+03  2.10878E+03  6.36950E+03 -1.19985E+03  6.67204E+03
 -5.64721E+03  4.43233E+03 -4.76751E+03  1.34635E+03 -5.98475E+03 -1.91913E+03 -3.75364E+03 -4.48693E+03
 -5.17132E+02 -5.00437E+03  3.44253E+03 -2.25492E+03  3.31263E+03  2.38656E+03 -2.07581E+01  3.02245E+03
 -4.32484E+03  2.69217E+03 -5.60503E+03 -2.15302E+03 -2.18016E+03 -6.83339E+03  4.35686E+02 -7.87147E+03
  3.13123E+03 -3.02435E+03  4.92656E+03 -3.66432E+02  4.13989E+03  1.07688E+03  2.06150E+02  4.14032E+03
 -1.30582E+03  1.35976E+02 -2.39198E+03 -3.99768E+03  5.46392E+02 -3.46857E+03  4.52944E+03 -2.77620E+03
  6.16293E+03  1.97348E+03  7.48593E+03  4.54320E+03  3.04686E+03  6.96487E+03 -3.70648E+03  7.19959E+03
 -6.20906E+03  3.35550E+03 -4.18240E+03 -1.71272E+03 -2.40928E+03 -3.89605E+03  1.66147E+03 -2.85669E+03
  4.15159E+03 -1.62573E+03  2.48042E+03  1.34804E+03  1.27838E+03  5.16431E+03 -4.16963E+01  2.93255E+03
 -1.60427E+03  1.22977E+03 -7.51332E+02  9.09574E+00  1.48216E+02  1.52451E+03 -1.33004E+03  1.57515E+03
 -2.06567E+03  2.43487E+03 -5.75651E+03  3.17455E+03 -5.55772E+03 -2.55134E+00 -8.30345E+03 -3.31747E+03
 -3.24903E+03 -7.96923E+03  2.48328E+03 -1.04932E+04  6.53530E+03 -7.80540E+03  1.00720E+04 -3.25915E+03
  9.05919E+03  9.77265E+02  5.52998E+03  4.97239E+03 -3.65347E+02  5.98065E+03 -2.50077E+03  5.90782E+03
 -3.95868E+03  2.66812E+03 -2.13270E+03 -8.99306E+02 -1.38792E+03 -4.28290E+02 -1.73991E+03 -5.15773E+02
 -9.72159E+02 -2.10260E+01 -6.95770E+02  6.41186E+02 -4.78540E+02 -1.42998E+03  9.16283E+02 -3.87116E+03
  4.28794E+03 -2.58687E+03  4.08928E+03  4.86285E+02  3.23252E+03  4.11930E+03 -6.67291E+00  5.71628E+03
 -4.32548E+03  7.53149E+03 -8.00030E+03  4.59366E+03 -8.69998E+03 -5.45819E+02 -6.51638E+03 -5.26681E+03
 -2.56873E+03 -7.26992E+03  2.64311E+03 -6.53452E+03  3.45463E+03 -3.95254E+03  4.41063E+03 -1.06636E+03
  2.55319E+03  2.99414E+03  9.17717E+02  1.30767E+03 -2.20269E+03  1.85307E+02  1.06913E+03 -1.49457E+03
  2.78782E+03  1.89935E+02  2.78696E+03  9.69377E+02  1.07855E+03  1.97111E+03 -1.07582E+03  3.27749E+03
 -2.76318E+03  3.34106E+03 -4.52772E+03  1.33888E+03 -3.78959E+03 -2.62696E+03 -3.90272E+01 -4.55379E+03
  2.05430E+03 -4.28144E+03  4.78993E+03 -4.07009E+02  4.02923E+03  1.93589E+03  2.35408E+03  3.88400E+03
  1.51543E+03  4.73926E+03 -1.34750E+03  3.73258E+03 -1.83070E+03  1.35178E+03 -2.09872E+03  1.34347E+03
 -5.97389E+02 -8.16771E+02 -1.40617E+03  8.13283E+02 -2.23542E+03 -1.91809E+02 -3.48880E+03 -1.32982E+03
 -3.23057E+03 -2.62062E+03 -1.09561E+03 -2.55963E+03  1.55340E+03 -5.08524E+03  5.12977E+03 -1.86462E+03
  4.13327E+03 -2.81130E+01  3.51374E+03  2.86398E+03 -1.05956E+03  3.23229E+03 -1.99171E+03  2.78637E+03
