 $NMID ID='MM_0lb_SNR200_13hz_g55_97.RAW', FMTDAT='(8E13.5)'
 TRAMP=1., VOLUME=1. $END
  3.10782E+05  5.26235E+02  3.37914E+05  2.50025E+05  8.38693E+04  3.39056E+05 -1.32847E+05  2.52632E+05
 -1.90668E+05  8.38319E+04 -1.11737E+05 -3.37163E+04  6.94087E+02 -4.88874E+04  5.42470E+04  5.86755E+02
  3.51859E+04  5.13409E+04 -1.64604E+04  7.51507E+04 -6.11255E+04  6.38717E+04 -8.57638E+04  3.22687E+04
 -8.09291E+04 -1.14237E+04 -5.84837E+04 -5.25659E+04 -1.41796E+04 -6.96623E+04  2.63109E+04 -4.60326E+04
  4.03622E+04  2.73480E+03  1.65293E+04  4.85565E+04 -3.44059E+04  4.75687E+04 -6.84379E+04 -1.00361E+01
 -5.42215E+04 -5.65505E+04 -7.09747E+03 -7.71514E+04  3.48233E+04 -5.53038E+04  4.81926E+04 -1.81787E+04
  4.45254E+04  1.09040E+04  3.31331E+04  2.57434E+04  1.53539E+04  2.96841E+04 -5.19035E+03  2.75154E+04
 -2.22896E+04  1.31055E+04 -1.75904E+04 -5.55616E+03  6.39602E+03 -7.07984E+03  2.25168E+04  1.36560E+04
  6.84672E+03  3.61135E+04 -3.24205E+04  3.62779E+04 -6.41705E+04  1.75023E+03 -5.80793E+04 -4.28174E+04
 -1.31212E+04 -6.43309E+04  3.96597E+04 -4.59221E+04  6.05798E+04 -1.68885E+03  3.34728E+04  3.27681E+04
 -4.87166E+03  3.76552E+04 -3.11801E+04  1.68731E+04 -3.15923E+04 -4.50850E+03 -1.74645E+04 -1.14281E+04
 -9.92654E+03 -1.42252E+04 -3.01779E+02 -1.91060E+04  7.55133E+03 -2.31623E+04  1.44069E+04 -1.36841E+04
  1.15486E+04  4.81916E+03 -9.06314E+03  1.38229E+04 -2.10431E+04 -5.14733E+03 -8.06157E+03 -3.48676E+04
  2.44793E+04 -4.46457E+04  4.97958E+04 -2.00334E+04  4.67896E+04  2.05504E+04  1.57091E+04  4.52007E+04
 -1.45386E+04  3.44575E+04 -2.74229E+04  1.73137E+03 -1.12213E+04 -2.80607E+04  2.07191E+04 -3.59725E+04
  4.35345E+04 -8.72111E+03  3.72662E+04  2.41456E+04  1.95905E+04  4.72973E+04 -7.20765E+03  5.20080E+04
 -3.19617E+04  3.50592E+04 -4.47266E+04  1.00299E+04 -4.38127E+04 -1.77915E+04 -2.41532E+04 -3.97412E+04
  7.52279E+03 -4.03503E+04  3.26540E+04 -1.58601E+04  2.97506E+04  1.06055E+04  3.71773E+03  2.02091E+04
 -1.28429E+04  7.98642E+03 -1.11856E+04 -8.33766E+03  6.15721E+03 -1.07978E+04  1.89389E+04  5.35008E+03
  1.40304E+04  2.17657E+04 -5.51094E+03  2.78076E+04 -2.31818E+04  1.09406E+04 -2.92466E+04 -5.23508E+03
 -2.23599E+04 -1.72672E+04 -9.38699E+03 -2.33978E+04  5.07898E+03 -2.14575E+04  1.57263E+04 -2.00397E+04
  2.84161E+04 -1.49732E+04  3.41513E+04  2.81079E+03  2.46133E+04  2.19970E+04  5.13011E+03  3.80347E+04
 -1.82887E+04  3.16829E+04 -2.79241E+04  1.15863E+04 -2.14569E+04 -1.05990E+04 -4.67039E+03 -1.25535E+04
  1.54542E+03 -2.84356E+03 -5.33907E+03  6.50627E+03 -1.84415E+04  5.34532E+03 -1.68555E+04 -7.80446E+03
 -1.03109E+04 -1.96115E+04  6.18804E+03 -2.50235E+04  1.72815E+04 -1.83797E+04  2.00032E+04 -1.80010E+02
  1.29711E+04  1.49372E+04 -1.07679E+03  2.06437E+04 -1.38557E+04  1.13479E+04 -2.11847E+04 -4.72690E+03
 -1.53489E+04 -1.81577E+04 -1.66019E+03 -2.49295E+04  1.01365E+04 -2.06109E+04  2.00326E+04 -9.16354E+03
  1.86608E+04 -8.29226E+02  1.39796E+04  4.16933E+03  7.55243E+03  2.47529E+02  1.09927E+04 -2.09095E+03
  1.75733E+04  3.81082E+03  2.07311E+04  1.60018E+04  1.38914E+04  3.23223E+04 -3.53585E+03  3.83275E+04
 -2.18413E+04  3.05713E+04 -3.41357E+04  1.48329E+04 -3.86960E+04 -3.85173E+03 -3.08998E+04 -2.20432E+04
 -1.21826E+04 -3.10151E+04  1.12271E+04 -2.65031E+04  2.43959E+04 -1.36548E+04  2.08137E+04  5.94912E+03
  7.18392E+03  1.57100E+04 -9.78392E+03  1.29565E+04 -1.83822E+04  2.00832E+03 -1.25292E+04 -1.16256E+04
 -1.45247E+03 -1.78364E+04  7.98744E+03 -1.19635E+04  1.03375E+04 -1.21580E+03  3.25005E+03  6.39342E+03
 -7.50069E+03  2.86461E+03 -6.59102E+03 -6.54590E+03 -1.04524E+03 -1.55044E+04  1.02202E+04 -1.64786E+04
  1.83685E+04 -9.46918E+03  2.04371E+04  2.79814E+03  1.78021E+04  1.37572E+04  9.47860E+03  2.40216E+04
 -4.15443E+03  2.43722E+04 -1.59099E+04  1.70793E+04 -1.80649E+04  3.09568E+03 -1.18783E+04 -5.01716E+03
 -6.23239E+03 -5.55412E+03  1.48246E+02  1.90995E+03 -1.27010E+03  2.90570E+03 -6.72334E+03  4.33383E+03
 -1.25910E+04 -1.04789E+03 -1.25588E+04 -1.06693E+04 -5.62693E+03 -1.57877E+04  4.89858E+03 -1.23686E+04
  1.15837E+04 -4.32396E+03  7.81843E+03  3.80361E+03  1.39450E+02  4.36184E+03 -5.66572E+03 -9.56684E+02
 -5.86141E+03 -7.76245E+03  4.44697E+02 -1.22187E+04  6.76840E+03 -1.32953E+04  1.69610E+04 -5.84698E+03
  1.85912E+04  1.97650E+03  1.35859E+04  1.13768E+04  2.55843E+03  1.58963E+04 -7.73154E+03  1.24561E+04
 -1.11302E+04  2.48666E+03 -3.59071E+03 -2.00236E+03  1.78011E+03 -3.38410E+03  7.69004E+03 -8.48325E+02
  4.42506E+03  6.39550E+03  2.32579E+03  9.43546E+03 -8.21520E+03  9.21579E+03 -1.17825E+04  2.21745E+03
 -8.08706E+03 -7.26413E+03  6.07128E+02 -1.17244E+04  6.42905E+03 -5.36344E+03  8.35682E+03  2.99524E+03
  1.57206E+03  6.88449E+03 -6.80717E+03  7.73082E+03 -9.02993E+03  5.46960E+03 -1.06261E+04 -2.35990E+03
 -5.15201E+03 -1.10627E+04  3.40399E+03 -1.28967E+04  1.26718E+04 -9.02350E+03  1.34597E+04  2.45311E+03
  7.42391E+03  9.58942E+03 -1.76482E+03  1.19972E+04 -9.54966E+03  7.02245E+03 -1.00154E+04  1.51133E+02
 -9.01750E+03 -8.37437E+03 -2.67753E+03 -7.80038E+03  4.41821E+03 -7.34630E+03  4.93444E+03 -3.46440E+03
  3.28808E+03  6.40956E+02 -9.22177E+02  8.61327E+02 -4.27109E+02 -2.93323E+03  1.24384E+03 -5.54763E+03
  8.79602E+03 -3.44197E+03  1.15691E+04  4.26074E+02  1.23301E+04  6.82651E+03  7.64680E+03  1.52495E+04
 -4.41779E+03  1.71003E+04 -1.38269E+04  1.24002E+04 -1.79864E+04  2.78041E+03 -1.42012E+04 -6.03932E+03
 -8.07815E+03 -1.16081E+04 -8.75299E+02 -1.05709E+04  4.08232E+03 -5.74236E+03  3.55090E+03 -4.62351E+03
  2.38307E+03 -1.45668E+03  3.03006E+03 -3.86970E+03  3.65679E+03 -1.84881E+03  5.57382E+03 -5.16412E+02
  7.75761E+03  1.54412E+03  2.94804E+03  7.09705E+03 -2.42468E+03  7.88362E+03 -7.73984E+03  5.55312E+03
 -1.01592E+04 -8.99400E+02 -6.25870E+03 -7.57726E+03 -6.29485E+02 -1.20699E+04  6.69074E+03 -9.97038E+03
  1.09073E+04 -4.90899E+03  1.34925E+04  2.06557E+03  8.65702E+03  9.26922E+03  1.92043E+03  1.25819E+04
 -4.75904E+03  1.03607E+04 -6.16468E+03  3.09805E+03 -4.16795E+03 -1.90464E+03 -2.72013E+03 -1.20997E+03
  1.46326E+01  2.83320E+01 -1.47065E+03  2.01263E+03 -3.37597E+03  1.10326E+02 -6.80027E+03 -1.81618E+03
 -3.75962E+03 -7.14642E+03  3.60364E+02 -8.90011E+03  7.36177E+03 -9.31024E+03  8.72634E+03 -3.05051E+03
  7.11551E+03  5.59139E+03  2.39756E+03  8.68580E+03 -2.20219E+03  9.73228E+03 -6.00391E+03  4.75506E+03
 -7.20349E+03  2.20381E+02 -6.59742E+03 -3.92713E+03 -1.10790E+03 -7.69478E+03  4.17072E+03 -6.03849E+03
  6.55635E+03 -3.23792E+03  4.95710E+03  6.75539E+02  1.50379E+03  3.71346E+03  9.34722E+02  5.12278E+02
  2.47163E+03  1.14806E+03  2.87029E+03  5.82011E+02  2.72184E+03  3.53002E+03  2.59462E+03  3.97524E+03
 -2.82932E+03  7.07098E+03 -4.59597E+03  7.75670E+03 -9.61258E+03  1.80279E+03 -1.05927E+04 -3.70577E+03
 -5.49268E+03 -1.07188E+04  4.70812E+02 -9.82255E+03  5.66938E+03 -7.26620E+03  6.99754E+03 -1.19229E+03
  6.11792E+03  2.82411E+03  3.13897E+02  6.32378E+03 -1.93508E+03  3.32741E+03 -3.56627E+03 -1.04466E+03
 -1.99370E+03 -4.31949E+03  1.70663E+03 -4.85433E+03  2.08117E+03 -1.65145E+03  3.60201E+03 -2.81538E+02
  1.21586E+03  1.99676E+03  2.99592E+03  1.10520E+02  7.58783E+02  2.12415E+03  2.04781E+03  5.95449E+02
  3.64485E+02 -9.46072E+02  3.74171E+03  1.17788E+03  4.25107E+02  5.64800E+03 -1.14259E+03  6.71760E+03
 -3.71092E+03  3.93041E+03 -5.45963E+03  1.68251E+03 -5.30059E+03 -8.55718E+02 -2.32299E+03 -1.61631E+03
  1.17325E+03 -3.08352E+03  2.71145E+03 -1.69682E+03  2.15797E+03  6.93460E+02 -2.34475E+03  2.32880E+03
 -4.22747E+03  1.50008E+03 -3.21842E+03 -3.39725E+03 -1.93702E+03 -5.07775E+03  4.09975E+02 -2.01774E+03
  2.91196E+03 -3.09253E+03  2.95525E+03  1.12050E+03  1.94356E+03  7.36716E+02  7.66192E+01  2.51457E+03
 -1.33060E+03  8.39936E+02 -1.74637E+03 -1.17749E+03  3.55247E+02 -2.95202E+03  4.76529E+03 -2.66747E+03
  5.36548E+03 -4.82980E+02  6.47348E+03  2.54326E+03  3.18384E+03  5.75474E+03 -2.52255E+03  4.70626E+03
 -3.71463E+03  1.28380E+03 -4.92305E+03 -1.90073E+02 -3.21149E+03 -3.37573E+03  3.82100E+02 -4.57393E+03
  3.95134E+03 -1.56132E+03  4.24525E+03  9.49850E+02  1.17142E+02  1.19245E+03  7.44391E+02  2.74790E+03
 -5.78044E+02  2.63466E+03 -8.97940E+02  1.27611E+02 -3.50433E+02  4.65016E+02 -2.40949E+02  8.05275E+02
 -1.36896E+03  2.70101E+03 -2.97876E+03  3.33310E+03 -5.65114E+03  1.54207E+03 -5.74035E+03 -2.81093E+03
 -3.18304E+03 -6.28325E+03  1.70770E+03 -8.17994E+03  4.81339E+03 -6.31297E+03  7.92224E+03 -2.57152E+03
  6.29524E+03  1.36525E+03  5.30276E+03  5.19756E+03 -2.84246E+02  5.64028E+03 -2.43836E+03  4.08209E+03
 -2.96270E+03  1.31036E+03 -2.49657E+03 -1.69024E+03 -4.85709E+01 -4.89370E+01 -7.34725E+02  4.96421E+02
 -2.58000E+01  6.43981E+02 -2.22919E+03  3.09326E+02  1.41428E+02 -1.33211E+03 -2.79162E+02 -2.33752E+03
  2.69781E+03 -1.77036E+03  2.48400E+03 -6.56134E+02  3.11927E+03  2.61868E+03  5.71280E+02  4.27938E+03
 -4.25480E+03  6.04561E+03 -4.93651E+03  2.85772E+03 -5.10469E+03 -1.73082E+02 -5.27552E+03 -4.93847E+03
 -1.76643E+03 -5.75949E+03  1.81330E+03 -4.13025E+03  3.62802E+03 -2.32765E+03  4.23031E+03  4.88536E+02
  3.47329E+03  1.51857E+03 -5.70010E+02  1.72070E+03 -9.08912E+02 -1.41926E+01  4.14725E+02 -3.25479E+02
  8.09739E+02 -2.38277E+02  2.52843E+03 -5.93544E+02  7.48305E+02  2.89915E+03  1.63899E+03  1.56253E+03
 -1.72093E+03  8.50741E+02 -3.35930E+03  1.35063E+02 -3.40922E+03 -2.17380E+03 -2.03142E+02 -3.12949E+03
  1.26322E+03 -3.62634E+03  2.58332E+03 -4.33047E+02  3.34444E+03 -9.87138E+02  2.58646E+03  2.38100E+03
  1.98647E+03  2.27178E+03  4.42086E+02  2.20139E+03 -1.62335E+03  2.79773E+03 -1.32313E+03 -1.64301E+02
 -1.44730E+03  1.98068E+02 -1.53089E+03  1.08307E+03 -2.18375E+03  1.88769E+02 -3.34375E+03 -2.01281E+03
 -2.40042E+03 -1.57384E+02 -2.35238E+02 -1.86186E+03  6.62920E+02 -3.19652E+03  2.45706E+03 -8.86486E+02
  3.95026E+03  1.04420E+03  4.05899E+02  2.10445E+03  8.30375E+01  3.45108E+03 -2.35213E+03  2.91512E+03
