 $NMID ID='MM_0lb_SNR200_19hz_g60_67.RAW', FMTDAT='(8E13.5)'
 TRAMP=1., VOLUME=1. $END
  3.08375E+05  5.04466E+02  3.37467E+05  2.50157E+05  8.49333E+04  3.37989E+05 -1.31904E+05  2.50877E+05
 -1.91002E+05  8.24980E+04 -1.11892E+05 -3.20652E+04  1.40465E+03 -4.92413E+04  5.45245E+04 -4.01558E+01
  3.40924E+04  5.21655E+04 -1.62993E+04  7.55087E+04 -6.02952E+04  6.25189E+04 -8.40809E+04  3.15435E+04
 -8.05995E+04 -1.19991E+04 -5.65484E+04 -5.07357E+04 -1.49271E+04 -6.94809E+04  2.70465E+04 -4.64917E+04
  3.99870E+04  4.07552E+03  1.63956E+04  4.75459E+04 -3.38770E+04  4.69348E+04 -6.61666E+04 -4.44680E+02
 -5.27980E+04 -5.64360E+04 -6.58208E+03 -7.69970E+04  3.38020E+04 -5.35784E+04  4.70304E+04 -1.64212E+04
  4.22855E+04  1.17137E+04  3.05840E+04  2.55020E+04  1.62351E+04  2.84104E+04 -5.79394E+03  2.71415E+04
 -2.30076E+04  1.30078E+04 -1.86728E+04 -5.84016E+03  4.54397E+03 -7.41295E+03  2.22957E+04  1.11634E+04
  7.28249E+03  3.37665E+04 -3.16335E+04  3.59140E+04 -6.23133E+04  1.49015E+03 -5.63638E+04 -4.21035E+04
 -1.19118E+04 -6.31295E+04  3.77967E+04 -4.49552E+04  5.57572E+04 -1.47689E+03  3.38162E+04  3.12470E+04
 -6.24439E+03  3.32991E+04 -3.01908E+04  1.58875E+04 -2.98003E+04 -4.68520E+03 -1.55245E+04 -1.01777E+04
 -7.16700E+03 -1.20578E+04 -1.11706E+03 -1.76154E+04  7.45827E+03 -2.26680E+04  1.49568E+04 -1.28759E+04
  1.13995E+04  4.88531E+03 -7.42450E+03  1.27558E+04 -2.00011E+04 -4.04616E+03 -7.22127E+03 -3.15245E+04
  2.09280E+04 -4.27640E+04  4.58365E+04 -1.91287E+04  4.16565E+04  1.84688E+04  1.44979E+04  4.25466E+04
 -1.61167E+04  3.21637E+04 -2.46245E+04  1.26376E+03 -8.76541E+03 -2.70865E+04  1.94810E+04 -3.11422E+04
  3.95281E+04 -7.63655E+03  3.27760E+04  2.39958E+04  1.54170E+04  4.34435E+04 -7.11704E+03  4.76892E+04
 -3.04309E+04  3.10216E+04 -3.85833E+04  8.70293E+03 -4.13614E+04 -1.41426E+04 -2.21461E+04 -3.66175E+04
  7.64575E+03 -3.63610E+04  2.87806E+04 -1.28082E+04  2.62978E+04  1.07119E+04  3.67664E+03  1.72412E+04
 -1.33031E+04  8.47348E+03 -9.52467E+03 -8.89096E+03  5.82944E+03 -1.08996E+04  1.75952E+04  5.44920E+03
  1.24273E+04  2.22457E+04 -5.64321E+03  2.42487E+04 -2.27735E+04  1.15503E+04 -2.62330E+04 -6.18596E+03
 -1.80180E+04 -1.65647E+04 -6.87362E+03 -1.85094E+04  4.70553E+03 -1.64384E+04  1.25729E+04 -1.48673E+04
  2.18049E+04 -1.14466E+04  3.00435E+04  1.31177E+03  2.23455E+04  1.79610E+04  3.60579E+03  3.35096E+04
 -1.65340E+04  2.87715E+04 -2.59491E+04  8.99979E+03 -2.05592E+04 -1.04356E+04 -5.13414E+03 -1.40943E+04
  1.86842E+03 -3.17753E+03 -3.15713E+03  5.08362E+03 -1.42034E+04  5.49289E+03 -1.41681E+04 -4.41962E+03
 -8.39925E+03 -1.69665E+04  5.26727E+03 -2.13621E+04  1.25246E+04 -1.50018E+04  1.56730E+04 -1.95189E+03
  1.06605E+04  1.05714E+04 -1.87062E+03  1.63320E+04 -1.09648E+04  9.62153E+03 -1.54544E+04 -3.79249E+03
 -1.26139E+04 -1.49223E+04  2.68471E+01 -2.07127E+04  8.24887E+03 -1.62846E+04  1.81831E+04 -7.74614E+03
  1.57094E+04  1.55035E+03  1.18184E+04  3.85238E+03  6.04774E+03  2.41869E+02  7.95850E+03  6.05651E+02
  1.52680E+04  2.24639E+03  1.62587E+04  1.40170E+04  9.21307E+03  2.64144E+04 -2.62840E+03  2.78861E+04
 -1.64642E+04  2.24864E+04 -2.67209E+04  1.09356E+04 -2.72872E+04 -2.50371E+03 -2.29434E+04 -1.49451E+04
 -1.14028E+04 -2.21908E+04  7.44494E+03 -2.13137E+04  1.73723E+04 -1.06329E+04  1.60019E+04  4.58129E+03
  6.35692E+03  1.24681E+04 -8.91884E+03  1.15630E+04 -1.35214E+04  3.98210E+03 -1.00747E+04 -8.34544E+03
  1.43331E+02 -1.27511E+04  6.75456E+03 -1.01688E+04  7.64568E+03 -1.73742E+03  1.00935E+03  5.53234E+03
 -7.86960E+03  2.65648E+03 -4.38402E+03 -4.27859E+03  8.87917E+02 -1.05562E+04  9.15443E+03 -1.09771E+04
  1.37865E+04 -5.26908E+03  1.18426E+04  3.10197E+03  1.11279E+04  1.08266E+04  5.09110E+03  1.54681E+04
 -2.06275E+03  1.71858E+04 -1.00774E+04  1.17087E+04 -1.09103E+04  2.82541E+03 -8.37526E+03 -2.74773E+03
 -4.50781E+03 -3.62006E+03 -8.57694E+02  7.39165E+02 -2.03123E+03  1.93651E+03 -3.74219E+03  4.11843E+03
 -8.47587E+03  1.08447E+02 -9.69970E+03 -7.58065E+03 -2.51856E+03 -1.13671E+04  2.83252E+03 -8.55108E+03
  7.61080E+03 -3.52834E+03  4.87563E+03  1.62490E+03 -4.39598E+02  4.54255E+03 -3.53418E+03 -3.36964E+02
 -3.44012E+03 -5.00259E+03 -8.29881E+02 -6.42804E+03  5.08433E+03 -7.81042E+03  1.09476E+04 -4.78588E+03
  1.19013E+04  4.76996E+02  9.51286E+03  7.37499E+03  1.69092E+03  9.37556E+03 -4.86070E+03  8.66480E+03
 -6.36618E+03  3.50196E+03 -3.73775E+03 -1.19156E+03  7.80452E+02 -8.41540E+02  5.76605E+03 -1.19300E+03
  4.46898E+03  3.47658E+03  7.23261E+02  6.45047E+03 -4.51424E+03  7.59010E+03 -7.99438E+03  2.81865E+03
 -4.76439E+03 -5.39242E+03  2.64150E+02 -6.03915E+03  3.90338E+03 -2.92725E+03  3.56963E+03 -1.26664E+02
  9.00665E+02  4.04608E+03 -4.33724E+03  5.76166E+03 -4.78944E+03  2.20905E+03 -4.18704E+03 -2.80941E+02
 -3.17113E+03 -6.36008E+03  2.01678E+03 -6.75079E+03  6.58840E+03 -4.54506E+03  6.48401E+03  7.57449E+02
  4.14680E+03  5.34179E+03  1.42664E+03  8.21439E+03 -4.62969E+03  4.41742E+03 -4.61438E+03 -5.48078E+02
 -6.15173E+03 -5.04352E+03 -1.35450E+03 -4.98365E+03  2.24085E+03 -4.27753E+03  2.86721E+03 -3.03803E+03
  2.09963E+03  8.68322E+02  5.53704E+02  2.32698E+03  6.70282E+02 -5.50796E+02  5.81711E+02 -1.32193E+03
  3.45652E+03 -1.11024E+03  4.41691E+03  8.48754E+01  6.29100E+03  3.75006E+03  4.61686E+03  6.98138E+03
 -8.58770E+02  8.16358E+03 -8.61705E+03  6.29362E+03 -1.03697E+04  6.43481E+02 -8.65318E+03 -2.93469E+03
 -3.30541E+03 -7.49360E+03  3.42328E+00 -3.99827E+03  1.35811E+03 -1.90724E+03  2.44394E+03 -2.01972E+03
  7.80557E+02 -1.26537E+03  3.08506E+03 -1.72126E+03  3.83911E+03 -2.02813E+03  4.04548E+03  1.47463E+02
  3.78816E+03  1.61608E+03  1.76758E+03  3.58492E+03 -2.11786E+03  2.35734E+03 -4.26471E+03  2.73330E+03
 -6.15747E+03 -9.20662E+02 -3.16031E+03 -4.11117E+03  1.83215E+03 -3.92390E+03  3.87019E+03 -5.68617E+03
  5.36295E+03 -3.17682E+03  5.99716E+03  1.91796E+02  4.51211E+03  4.19708E+03  1.28179E+03  5.91967E+03
 -1.43262E+03  6.04437E+03 -3.59931E+03  1.31300E+03 -2.12430E+03 -3.03808E+02 -3.11923E+02 -1.54278E+03
  7.66843E+02  6.79488E+02 -3.44834E+02  2.51211E+03 -3.11751E+03  9.74567E+02 -4.07796E+03  3.70560E+02
 -2.06714E+03 -2.84182E+03  2.21647E+02 -4.92169E+03  2.10297E+03 -4.02406E+03  3.86378E+03 -3.47241E+02
  3.19789E+03  2.01301E+03  2.25356E+03  3.28302E+03 -5.44197E+02  4.89237E+03 -1.32249E+03  2.32475E+03
 -4.14903E+03  8.91709E+02 -3.84853E+03 -1.64585E+03 -6.97325E+02 -3.20725E+03  1.79537E+03 -3.13749E+03
  2.45527E+03 -1.03823E+03  2.14936E+03  5.94134E+02  6.15550E+02  2.92727E+03  1.39214E+03  7.66706E+02
  1.37970E+03  4.06314E+01  1.78267E+03  1.02411E+03  1.76698E+03  2.35995E+03  1.14440E+03  2.11735E+03
 -9.72525E+02  3.61237E+03 -1.94994E+03  3.61783E+03 -3.07558E+03  2.37893E+03 -3.59743E+03 -8.50188E+02
 -1.32512E+03 -2.85009E+03  3.13330E+02 -5.60477E+03  1.67376E+02 -1.85707E+03  2.42783E+03 -1.86810E+03
  2.85165E+03  1.32993E+03 -2.03919E+02  2.26015E+03  7.94292E+01  6.58863E+02 -9.53740E+02  3.19753E+01
 -6.61761E+02 -2.29274E+03  1.64767E+03 -2.64398E+03  4.59787E+02 -1.58386E+03  1.72917E+03 -1.05983E+02
  6.93997E+02  2.03998E+02 -2.00672E+02 -1.30176E+03 -7.85135E+02  4.37106E+02  9.35792E+02 -2.97372E+01
  3.77100E+02  3.68536E+02  8.58985E+02  8.83263E+02 -2.42614E+02  2.19640E+03  3.99927E+02  3.45697E+03
 -1.25583E+03  5.74728E+02 -2.15259E+03 -8.50612E+02 -1.44159E+03  2.32422E+02 -4.60589E+01 -1.01741E+03
  9.05480E+02 -1.01729E+03  3.51260E+02 -1.66915E+03  5.06489E+02  1.39296E+03 -5.78135E+02  1.01901E+03
 -1.78994E+03  1.39907E+03 -2.01441E+03 -1.17654E+03 -9.16882E+02 -1.97506E+03 -8.17078E+02 -1.26741E+03
  1.30444E+03  1.52850E+02  1.64226E+03  2.37493E+02  4.27824E+02  1.17517E+02  8.44133E+02  1.82102E+03
  3.14277E+02 -9.85924E+02 -6.82245E+02 -1.00886E+03  1.10021E+03 -1.35787E+01  1.55819E+03 -4.60239E+02
  1.73591E+03  2.67823E+02  2.68999E+03  6.20952E+02  1.11784E+03  1.42429E+03 -4.28226E+02  2.85796E+03
 -9.44381E+02  3.35232E+02 -1.13715E+03  7.32808E+02 -7.84189E+02 -1.77261E+03  2.88501E+02 -2.21994E+02
  1.03320E+03 -3.45166E+02  1.12289E+03  1.31066E+03 -1.41640E+02  8.53022E+02  9.10441E+02  1.48856E+03
  6.65721E+02  1.14332E+03 -6.23657E+02 -1.13036E+02  3.21081E+02  5.59734E+02 -3.61564E+02 -1.70531E+02
 -9.42976E+02 -3.18261E+02 -2.15645E+03 -4.72676E+02 -1.41127E+03  1.00199E+03 -1.43145E+03 -9.76195E+02
 -1.31799E+03 -9.93375E+02  4.85648E+02 -2.44882E+03  1.33330E+03 -2.80044E+03  1.90615E+03 -9.68368E+02
  1.84296E+03 -2.85170E+02  1.12908E+03  1.89141E+03  4.66861E+01  1.19633E+03 -2.71271E+02  1.17698E+03
 -9.95707E+02  1.23031E+03 -6.70687E+02 -4.56548E+02 -5.06825E+02  2.77450E+02 -5.49164E+02  4.74687E+02
 -1.56519E+03 -5.31432E+02 -1.47136E+03  8.94966E+01 -4.18441E+02  2.71910E+02 -7.78942E+02 -8.37968E+02
  7.78235E+02 -4.94758E+02  9.70908E+02 -1.14247E+03  1.68503E+03  4.04966E+02  1.44917E+02  7.27167E+02
 -1.23904E+03  2.38533E+03 -1.79280E+03  1.47400E+03 -1.28474E+03 -3.16904E+02 -1.35511E+03 -6.63593E+02
 -1.11999E+03 -7.60085E+02  8.56987E+02 -9.46859E+02  6.94305E+02 -2.03177E+02 -1.91319E+02 -9.14180E+01
  3.06302E+02  1.16424E+02  5.07562E+02 -3.95462E+02 -1.65724E+03 -7.97932E+02  2.41111E+02  4.88458E+02
  1.63315E+02  5.30422E+02 -2.32904E+02  4.44804E+02  4.70315E+02  1.08136E+03  1.90073E+03  2.79068E+02
 -2.07623E+02  1.20688E+03  3.82093E+02  3.25320E+02 -1.06595E+03 -1.11593E+03  4.27327E+02 -5.52497E+02
  4.64130E+02 -7.14290E+02  7.28137E+02  1.08096E+02  9.26898E+02 -6.53565E+02  8.58487E+02  4.88031E+02
 -6.82795E+01  7.15641E+02 -1.22705E+02  4.50410E+02 -4.39904E+02  4.16557E+02 -5.05460E+02 -4.28735E+02
 -1.19323E+02 -1.21794E+03 -5.40368E+02  4.45814E+02  3.00092E+02  3.31019E+02 -9.62424E+02 -6.81459E+02
 -1.32206E+03  3.85590E+01 -5.63603E+02 -1.20403E+03  2.12533E+03 -1.20966E+03  3.65978E+02 -1.96927E+02
  9.10386E+02 -6.60556E+02 -9.79585E+01 -4.82748E+02  4.19084E+02  1.44437E+03 -1.57871E+02  7.09899E+02
