 $NMID ID='MM_0lb_SNR200_13hz_g55_4.RAW', FMTDAT='(8E13.5)'
 TRAMP=1., VOLUME=1. $END
  3.09971E+05 -1.73525E+02  3.38937E+05  2.51839E+05  8.45840E+04  3.38842E+05 -1.33930E+05  2.51072E+05
 -1.90647E+05  8.31412E+04 -1.12198E+05 -3.36415E+04  1.07840E+03 -5.02895E+04  5.37502E+04 -9.95800E+01
  3.49218E+04  5.14659E+04 -1.63475E+04  7.43759E+04 -6.15780E+04  6.28294E+04 -8.55642E+04  3.15754E+04
 -8.14638E+04 -1.11103E+04 -5.74686E+04 -5.22111E+04 -1.57575E+04 -7.11607E+04  2.66061E+04 -4.51183E+04
  3.99473E+04  3.68287E+03  1.69267E+04  4.78478E+04 -3.47585E+04  4.75161E+04 -6.67282E+04 -3.99203E+02
 -5.37521E+04 -5.72375E+04 -7.40302E+03 -7.70279E+04  3.50278E+04 -5.42344E+04  4.83707E+04 -1.86644E+04
  4.32991E+04  1.15609E+04  3.41274E+04  2.68331E+04  1.55021E+04  2.90969E+04 -4.19013E+03  2.77587E+04
 -2.28927E+04  1.30397E+04 -1.65593E+04 -4.99519E+03  6.29587E+03 -7.49886E+03  2.32182E+04  1.34007E+04
  7.48901E+03  3.67263E+04 -3.24584E+04  3.58933E+04 -6.58892E+04  1.98608E+03 -5.74594E+04 -4.37811E+04
 -1.33482E+04 -6.43379E+04  4.19364E+04 -4.74945E+04  5.90871E+04 -1.95856E+03  3.44231E+04  3.38838E+04
 -6.21786E+03  3.74115E+04 -2.95457E+04  1.60493E+04 -3.21650E+04 -5.42536E+03 -1.74810E+04 -1.15467E+04
 -9.23706E+03 -1.42836E+04 -1.14350E+03 -1.81580E+04  6.55492E+03 -2.21209E+04  1.56747E+04 -1.36228E+04
  1.24472E+04  6.39743E+03 -1.00743E+04  1.22375E+04 -2.21782E+04 -5.06311E+03 -8.35373E+03 -3.62111E+04
  2.27536E+04 -4.50293E+04  4.91607E+04 -1.94523E+04  4.60410E+04  1.96321E+04  1.57986E+04  4.50522E+04
 -1.75060E+04  3.51752E+04 -2.55587E+04  1.80910E+03 -1.10903E+04 -2.70620E+04  2.05106E+04 -3.46856E+04
  4.26957E+04 -9.93913E+03  3.78108E+04  2.39470E+04  1.93668E+04  4.71905E+04 -7.43060E+03  5.10091E+04
 -3.35137E+04  3.56828E+04 -4.45000E+04  1.07158E+04 -4.49476E+04 -1.63299E+04 -2.39855E+04 -3.97366E+04
  6.64428E+03 -3.83551E+04  3.31018E+04 -1.55161E+04  3.07283E+04  1.13801E+04  4.35214E+03  1.91440E+04
 -1.31479E+04  8.97610E+03 -1.03698E+04 -7.89851E+03  3.82068E+03 -1.04314E+04  1.89931E+04  5.74786E+03
  1.28405E+04  2.14394E+04 -4.76251E+03  2.57538E+04 -2.18894E+04  1.36261E+04 -2.79508E+04 -3.73263E+03
 -2.16634E+04 -1.74761E+04 -8.68046E+03 -2.23719E+04  4.84368E+03 -2.23790E+04  1.61694E+04 -2.01785E+04
  2.87916E+04 -1.33942E+04  3.40343E+04  3.87554E+03  2.63877E+04  2.23666E+04  3.19483E+03  3.89501E+04
 -1.83114E+04  3.09379E+04 -2.81686E+04  1.13132E+04 -2.19028E+04 -1.06576E+04 -3.78137E+03 -1.35617E+04
  1.03043E+03 -1.92824E+03 -5.77404E+03  8.78253E+03 -1.83421E+04  5.36517E+03 -1.71930E+04 -8.78949E+03
 -1.03227E+04 -2.09445E+04  3.69305E+03 -2.51711E+04  1.71841E+04 -1.80934E+04  1.94013E+04 -9.72464E+02
  1.12428E+04  1.49168E+04 -6.90219E+02  2.08463E+04 -1.48358E+04  1.18102E+04 -2.02334E+04 -4.71252E+03
 -1.40517E+04 -1.86689E+04 -2.48407E+03 -2.43842E+04  1.23129E+04 -2.06665E+04  1.92865E+04 -1.05566E+04
  1.93679E+04  1.62740E+03  1.29057E+04  3.91748E+03  6.51286E+03  5.07301E+02  9.82601E+03 -2.43373E+03
  1.86557E+04  2.58122E+03  2.07576E+04  1.60297E+04  1.49398E+04  3.31855E+04 -1.73011E+03  3.68475E+04
 -2.12288E+04  3.02421E+04 -3.57709E+04  1.61657E+04 -3.75170E+04 -2.94439E+03 -3.05447E+04 -2.08440E+04
 -1.16792E+04 -2.93561E+04  9.87552E+03 -2.59427E+04  2.33860E+04 -1.35091E+04  2.08749E+04  5.84592E+03
  7.74422E+03  1.60729E+04 -1.05522E+04  1.36865E+04 -1.77726E+04  1.18502E+03 -1.24851E+04 -1.00806E+04
 -5.04196E+02 -1.61022E+04  8.18012E+03 -1.24838E+04  1.07348E+04 -1.43203E+03  2.86604E+03  6.31752E+03
 -7.12086E+03  2.69929E+03 -7.06208E+03 -7.04248E+03 -1.12528E+03 -1.43884E+04  1.10411E+04 -1.63296E+04
  1.86973E+04 -6.87483E+03  1.94156E+04  3.42593E+03  1.87061E+04  1.47219E+04  7.69616E+03  2.28165E+04
 -3.80073E+03  2.52071E+04 -1.56143E+04  1.54461E+04 -1.70650E+04  4.77648E+03 -1.25616E+04 -2.79044E+03
 -5.99865E+03 -6.04360E+03  1.92524E+02  1.67901E+03 -2.96742E+03  3.64587E+03 -5.73046E+03  6.61112E+03
 -1.17961E+04 -5.53230E+02 -1.36014E+04 -1.03242E+04 -6.59003E+03 -1.72638E+04  5.79132E+03 -1.27515E+04
  1.04426E+04 -4.27603E+03  7.02446E+03  3.05493E+03  4.35049E+02  4.10606E+03 -4.84451E+03  4.96791E+02
 -6.29892E+03 -8.15290E+03 -1.27464E+03 -1.28235E+04  7.41842E+03 -1.23866E+04  1.59845E+04 -6.98780E+03
  1.88228E+04  1.86759E+03  1.36887E+04  1.11673E+04  1.97744E+03  1.61433E+04 -8.15648E+03  1.27874E+04
 -1.00564E+04  2.37999E+03 -5.97269E+03 -2.32687E+03  1.46250E+03 -3.44206E+03  7.09467E+03 -8.51464E+02
  6.14403E+03  4.90935E+03  1.08588E+03  9.80920E+03 -8.04603E+03  1.03436E+04 -1.25311E+04  9.33083E+02
 -7.69431E+03 -6.36131E+03  1.04411E+03 -1.03230E+04  7.14727E+03 -6.17291E+03  7.14108E+03  2.02080E+03
  1.25953E+03  6.28568E+03 -6.12958E+03  8.42486E+03 -9.91805E+03  3.86640E+03 -9.99094E+03 -2.59250E+03
 -5.68130E+03 -1.05947E+04  2.34530E+03 -1.28001E+04  1.16971E+04 -7.57346E+03  1.16066E+04  2.11348E+03
  7.05516E+03  8.37978E+03  6.81832E+02  1.33786E+04 -8.46311E+03  7.46853E+03 -9.14183E+03  7.49896E+02
 -7.83192E+03 -9.18143E+03 -6.84555E+02 -9.14488E+03  5.39529E+03 -7.26652E+03  3.92212E+03 -2.92636E+03
  3.05058E+03  1.70658E+02 -7.87316E+02  1.25221E+03  1.43604E+02 -3.16174E+02  6.96077E+02 -4.11822E+03
  7.49276E+03 -3.32592E+03  1.09151E+04  1.22087E+03  1.01927E+04  6.97204E+03  8.01077E+03  1.48488E+04
 -1.35408E+03  1.64480E+04 -1.38244E+04  1.30662E+04 -1.88453E+04  1.33854E+03 -1.51924E+04 -6.23550E+03
 -7.43103E+03 -1.30546E+04 -5.94835E+02 -1.04316E+04  3.78220E+03 -6.03098E+03  2.72357E+03 -4.81398E+03
  3.14038E+03 -1.81421E+03  4.01027E+03 -2.67768E+03  2.97230E+03 -3.09496E+03  6.20026E+03 -3.46542E+02
  7.72111E+03  1.82906E+03  3.10580E+03  5.63467E+03 -1.37663E+03  7.56053E+03 -7.54626E+03  6.04793E+03
 -1.04160E+04 -7.05511E+02 -5.40210E+03 -7.47331E+03 -4.82101E+02 -9.87588E+03  5.55386E+03 -1.00620E+04
  1.13641E+04 -6.99448E+03  1.27568E+04  1.96481E+03  8.30035E+03  9.00255E+03  1.04626E+03  1.19003E+04
 -5.42123E+03  1.04593E+04 -6.11322E+03  2.66191E+03 -6.05092E+03 -3.79297E+02 -1.14461E+03 -2.53167E+03
 -1.06166E+03  7.14848E+02 -8.83470E+02  2.93283E+03 -4.23659E+03  2.35776E+03 -7.58599E+03 -1.18094E+03
 -4.18319E+03 -7.56045E+03  9.87450E+01 -1.00004E+04  6.71580E+03 -8.86549E+03  8.87720E+03 -4.32577E+03
  1.02843E+04  4.57660E+03  3.73822E+03  7.61344E+03 -1.06517E+03  9.38260E+03 -6.93748E+03  6.41695E+03
 -8.71497E+03 -2.69392E+02 -6.49679E+03 -4.67934E+03 -3.59500E+02 -8.86930E+03  3.43602E+03 -5.60841E+03
  6.36317E+03 -2.47251E+03  2.33455E+03  3.34571E+02  1.44368E+03  2.33380E+03  1.23827E+03  1.25857E+03
  1.74119E+03  1.57821E+03  1.95877E+03  2.50923E+03  2.76529E+03  2.82011E+03  2.07431E+03  4.84509E+03
 -2.24832E+03  7.86217E+03 -6.47388E+03  7.19730E+03 -9.12378E+03  2.19139E+03 -8.85422E+03 -4.63190E+03
 -3.93039E+03 -9.67110E+03  1.13152E+03 -9.48365E+03  4.18913E+03 -6.38171E+03  8.12849E+03 -2.07949E+03
  3.89075E+03  3.75967E+03  1.81978E+03  5.39136E+03 -2.50257E+03  3.43039E+03 -2.79028E+03  8.56540E+00
 -2.16274E+02 -3.79505E+03  2.93797E+03 -4.26971E+03  5.43473E+03 -1.41286E+03  2.28420E+03  3.32745E+02
  2.60430E+03  2.73576E+03  6.05835E+02  1.41222E+02 -5.72770E+02  1.39947E+03  2.25999E+03 -1.32028E+03
  1.73232E+03 -2.40272E+02  4.09261E+03  1.88149E+03  1.34677E+03  4.41430E+03 -9.00953E+02  6.34144E+03
 -2.88881E+03  2.49737E+03 -5.67437E+03  8.50507E+02 -5.68842E+03 -2.84213E+03 -2.25551E+03 -3.52914E+03
  5.75722E+02 -2.91084E+03  4.02531E+03 -1.16561E+03  2.19336E+03  2.44667E+03 -1.48371E+03  4.14285E+03
 -2.48769E+03  1.24427E+03 -3.36577E+03 -2.55892E+03 -1.66119E+03 -4.46637E+03  5.07783E+02 -3.76494E+03
  2.77718E+03 -2.25754E+03  3.90267E+03  5.47611E+02  2.89221E+03  1.50805E+03  1.12049E+03  1.40691E+03
 -1.82391E+03 -4.36170E+01 -2.83436E+03 -2.20654E+03  7.42851E+02 -3.56904E+03  4.79499E+03 -1.85351E+03
  4.84438E+03  4.71862E+02  5.91343E+03  3.27508E+03  2.60784E+03  4.92728E+03 -1.95512E+03  4.39409E+03
 -4.16308E+03  1.45928E+03 -3.93783E+03 -4.97890E+02 -2.05201E+03 -3.04693E+03  4.17728E+02 -3.84476E+03
  3.19822E+03 -2.61225E+03  4.17659E+03  1.77976E+03  4.62986E+02  3.71094E+03 -4.31222E+02  2.11721E+03
 -1.00500E+03  1.07730E+03 -1.62457E+02 -5.80753E+02 -1.08809E+03  1.71929E+03 -1.54474E+03 -8.28890E+01
 -1.12663E+03  1.80324E+03 -4.47087E+03  2.15677E+03 -5.59193E+03 -2.13979E+02 -5.38540E+03 -3.69550E+03
 -2.64722E+03 -6.21516E+03  2.35443E+03 -8.37521E+03  4.95205E+03 -5.87042E+03  7.81771E+03 -1.93827E+03
  6.95642E+03  5.53216E+02  4.44338E+03  3.86463E+03 -2.71704E+02  5.49810E+03 -1.73402E+03  4.22869E+03
 -3.45735E+03  6.91067E+02 -1.29871E+03 -1.47717E+03  3.50554E+02 -1.36270E+03 -7.50669E+02 -1.30281E+03
 -9.88564E+02 -6.17509E+01 -6.95521E+02  3.56353E+02 -3.44422E+02 -1.16817E+03  4.92068E+01 -3.03392E+03
  3.55008E+03 -2.33396E+03  4.42909E+03  5.54802E+02  5.20315E+03  3.14353E+03  4.26267E+02  4.76796E+03
 -2.59285E+03  5.67794E+03 -4.79705E+03  3.40278E+03 -6.32566E+03 -8.60067E+02 -4.48000E+03 -3.99958E+03
 -8.27120E+02 -3.68640E+03  2.74614E+02 -4.39119E+03  3.31998E+03 -1.76627E+03  3.39915E+03  1.21056E+03
  2.62266E+03  1.42663E+03 -3.26430E+02  1.52581E+03 -1.05179E+03 -1.12558E+03 -3.80593E+01 -1.78726E+02
  5.01009E+01 -7.76524E+02  1.48899E+03  6.87343E+02 -8.31922E+01  3.07557E+03 -4.91812E+02  2.43724E+03
 -1.75438E+03  1.43337E+03 -2.65868E+03 -1.88620E+02 -2.65904E+03 -1.50861E+03  7.77610E+02 -2.67492E+03
  3.06320E+03 -3.25524E+03  2.50686E+03  9.98607E+00  3.90781E+03  1.04484E+03  3.54030E+03  2.48857E+03
  2.63995E+02  3.56103E+03 -1.51912E+03  2.48771E+03 -1.24162E+03  4.34257E+02 -1.34510E+03  2.95655E+02
 -5.95364E+02 -5.67550E+02 -1.58213E+03  1.00807E+02 -2.73069E+03  2.66125E+02 -1.14289E+03 -8.00901E+02
 -1.59755E+03 -1.03161E+03  2.22059E+02 -3.46904E+03  2.53852E+03 -3.04267E+03  1.25939E+03 -1.35626E+03
  2.42789E+03  1.48064E+03  4.97113E+02  3.03089E+03  5.24156E+02  3.46987E+03 -1.76152E+03  2.44795E+03
