 $NMID ID='MM_0lb_SNR200_11hz_g50_71.RAW', FMTDAT='(8E13.5)'
 TRAMP=1., VOLUME=1. $END
  3.09469E+05  6.75118E+02  3.36613E+05  2.50520E+05  8.42170E+04  3.38322E+05 -1.33014E+05  2.50385E+05
 -1.91002E+05  8.29719E+04 -1.12416E+05 -3.29866E+04 -1.78352E+02 -5.06833E+04  5.33475E+04 -5.54181E+02
  3.56184E+04  5.32992E+04 -1.69248E+04  7.60022E+04 -6.09826E+04  6.32049E+04 -8.43022E+04  3.18614E+04
 -8.26637E+04 -1.31012E+04 -5.82586E+04 -5.16633E+04 -1.48065E+04 -6.90052E+04  2.80543E+04 -4.67657E+04
  4.00341E+04  4.68009E+03  1.67100E+04  4.83470E+04 -3.49765E+04  4.69229E+04 -6.81658E+04  9.74322E+02
 -5.63039E+04 -5.55343E+04 -8.01583E+03 -7.83287E+04  3.38214E+04 -5.69712E+04  4.97676E+04 -1.81060E+04
  4.45199E+04  1.08578E+04  3.18588E+04  2.61424E+04  1.57108E+04  3.10482E+04 -6.85280E+03  2.68893E+04
 -2.18209E+04  1.28506E+04 -1.72233E+04 -5.72098E+03  6.79769E+03 -7.04763E+03  2.31868E+04  1.30719E+04
  6.96862E+03  3.74056E+04 -3.28255E+04  3.69573E+04 -6.65156E+04  2.66982E+03 -5.74107E+04 -4.45112E+04
 -1.31622E+04 -6.45335E+04  4.05905E+04 -4.71788E+04  6.00857E+04 -3.30076E+03  3.46008E+04  3.44875E+04
 -5.29689E+03  3.88876E+04 -3.19860E+04  1.89748E+04 -3.20467E+04 -2.72881E+03 -1.85980E+04 -1.03589E+04
 -8.92045E+03 -1.24605E+04 -1.98149E+02 -1.86288E+04  8.69240E+03 -2.35424E+04  1.57083E+04 -1.18070E+04
  1.27432E+04  5.19317E+03 -9.88795E+03  1.28311E+04 -2.31129E+04 -4.80901E+03 -9.73472E+03 -3.70777E+04
  2.44844E+04 -4.54867E+04  5.10102E+04 -2.02245E+04  4.75990E+04  1.98342E+04  1.63521E+04  4.56469E+04
 -1.66839E+04  3.56209E+04 -2.62576E+04  2.46802E+03 -9.76957E+03 -2.81627E+04  2.17183E+04 -3.65246E+04
  4.36259E+04 -1.07500E+04  3.76357E+04  2.46507E+04  1.91002E+04  4.92653E+04 -7.22344E+03  5.48160E+04
 -3.24979E+04  3.57723E+04 -4.60796E+04  9.77990E+03 -4.54687E+04 -1.73719E+04 -2.46606E+04 -4.13644E+04
  6.91279E+03 -4.13370E+04  3.34431E+04 -1.53878E+04  2.95809E+04  1.13791E+04  3.79476E+03  2.00331E+04
 -1.35815E+04  9.85800E+03 -9.90020E+03 -8.93787E+03  5.58992E+03 -1.11145E+04  1.90629E+04  4.72651E+03
  1.46980E+04  2.17119E+04 -5.90004E+03  2.73922E+04 -2.37511E+04  1.27262E+04 -2.99206E+04 -3.13718E+03
 -2.22891E+04 -1.63031E+04 -1.02358E+04 -2.32236E+04  5.00140E+03 -2.23359E+04  1.75107E+04 -2.14250E+04
  2.92316E+04 -1.46191E+04  3.62337E+04  4.11037E+03  2.53466E+04  2.34704E+04  5.27662E+03  3.93898E+04
 -1.81127E+04  3.19550E+04 -2.96657E+04  1.15577E+04 -2.14660E+04 -1.01334E+04 -5.23345E+03 -1.26540E+04
  1.77783E+03 -2.44819E+03 -5.18109E+03  7.98803E+03 -1.68448E+04  4.68055E+03 -1.86742E+04 -9.56638E+03
 -1.06921E+04 -2.14401E+04  6.33974E+03 -2.56994E+04  1.71524E+04 -1.82859E+04  1.92448E+04 -1.96141E+03
  1.41734E+04  1.57883E+04 -1.18421E+03  2.15684E+04 -1.45248E+04  1.27905E+04 -2.29905E+04 -5.98850E+03
 -1.45226E+04 -1.91384E+04 -2.62963E+03 -2.43349E+04  1.04579E+04 -2.14610E+04  2.13309E+04 -9.23100E+03
  2.05952E+04 -3.08017E+02  1.54781E+04  5.31282E+03  8.56998E+03  1.33285E+03  1.11974E+04 -1.53205E+03
  1.84680E+04  3.95310E+03  2.32707E+04  1.73241E+04  1.45357E+04  3.31557E+04 -1.67720E+03  4.00596E+04
 -2.23010E+04  3.28741E+04 -3.73078E+04  1.61893E+04 -4.05276E+04 -3.75541E+03 -3.11642E+04 -2.32878E+04
 -1.40125E+04 -3.32615E+04  1.15269E+04 -3.01774E+04  2.47428E+04 -1.35419E+04  2.37886E+04  5.31020E+03
  7.59491E+03  1.81845E+04 -1.12589E+04  1.49621E+04 -1.97346E+04  1.83477E+03 -1.34137E+04 -1.26844E+04
  9.29894E+02 -1.77974E+04  8.66027E+03 -1.39269E+04  1.25035E+04 -1.01024E+03  2.88939E+03  8.00642E+03
 -7.56648E+03  4.71585E+03 -8.99447E+03 -6.26910E+03 -2.93677E+03 -1.42852E+04  1.06145E+04 -1.85361E+04
  2.02600E+04 -9.72628E+03  2.23341E+04  2.80232E+03  2.04436E+04  1.64759E+04  8.00082E+03  2.61843E+04
 -4.03105E+03  2.67067E+04 -1.70469E+04  1.56741E+04 -2.16033E+04  1.06719E+03 -1.34079E+04 -5.59862E+03
 -6.21758E+03 -5.70454E+03 -1.14625E+03  7.75809E+02 -2.24910E+03  2.79657E+03 -6.80872E+03  4.49544E+03
 -1.28616E+04 -3.45961E+02 -1.24098E+04 -8.98746E+03 -4.99951E+03 -1.60655E+04  6.26287E+03 -1.32253E+04
  1.13441E+04 -5.73381E+03  9.82307E+03  2.43779E+03 -9.17681E+02  4.97335E+03 -6.83416E+03 -5.40025E+02
 -6.13897E+03 -9.02735E+03 -2.49505E+03 -1.34405E+04  8.63587E+03 -1.48364E+04  1.65730E+04 -7.92672E+03
  2.18924E+04  2.31250E+03  1.54023E+04  1.11990E+04  2.75961E+03  1.52351E+04 -9.38959E+03  1.33541E+04
 -1.10537E+04  5.84884E+03 -5.20929E+03 -3.28134E+03  2.35633E+03 -3.87056E+03  8.65590E+03 -4.10346E+02
  6.29699E+03  7.02893E+03 -7.46677E+01  1.15683E+04 -6.72273E+03  1.04085E+04 -1.28580E+04  1.32649E+03
 -1.02797E+04 -7.18755E+03  8.61933E+02 -1.31548E+04  8.15750E+03 -5.62427E+03  6.96705E+03  3.26603E+03
  1.90455E+03  9.02376E+03 -6.76527E+03  1.09603E+04 -1.06933E+04  3.75204E+03 -1.05724E+04 -3.92698E+03
 -6.70511E+03 -1.37735E+04  4.33978E+03 -1.59625E+04  1.31518E+04 -8.55997E+03  1.45971E+04  1.73944E+03
  1.06251E+04  1.02251E+04 -1.49326E+03  1.37735E+04 -9.54957E+03  7.38463E+03 -9.48039E+03 -1.32438E+03
 -8.44479E+03 -9.90555E+03 -8.86850E+02 -8.94834E+03  4.07539E+03 -7.52140E+03  6.95816E+03 -3.81983E+03
  3.74774E+03  1.23474E+03 -1.38228E+03  1.90782E+03 -1.00753E+03 -2.76112E+03  3.23318E+03 -6.39224E+03
  1.01295E+04 -3.78249E+03  1.44259E+04  2.28450E+03  1.26901E+04  9.10068E+03  8.71150E+03  1.64689E+04
 -2.98925E+03  1.91303E+04 -1.56203E+04  1.41267E+04 -2.19213E+04  4.94123E+03 -1.79700E+04 -6.94220E+03
 -8.24622E+03 -1.39042E+04 -1.25444E+03 -1.28496E+04  6.29091E+03 -5.33009E+03  4.57985E+03 -3.62747E+03
  2.26772E+03 -3.09525E+02  3.16805E+03 -3.05638E+03  4.42949E+03 -3.17760E+03  6.57220E+03 -1.63284E+03
  9.10280E+03  2.48717E+03  5.50544E+03  7.12509E+03 -1.45981E+03  7.96786E+03 -7.70909E+03  5.99936E+03
 -8.71313E+03 -1.02864E+03 -6.25110E+03 -9.18086E+03 -7.99783E+02 -1.25966E+04  8.29953E+03 -1.32132E+04
  1.27072E+04 -7.52512E+03  1.60732E+04  2.25194E+03  1.13257E+04  1.05894E+04  2.49610E+03  1.36951E+04
 -5.28208E+03  1.12863E+04 -8.47121E+03  3.47821E+03 -5.22479E+03 -6.69351E+02 -1.71521E+03 -1.44934E+03
 -7.77306E+02  1.05248E+03 -1.81919E+03  2.39928E+03 -5.01199E+03  2.17948E+03 -9.02218E+03 -3.95110E+02
 -5.67472E+03 -8.76631E+03 -8.84416E+02 -1.14488E+04  7.94510E+03 -1.07086E+04  1.22271E+04 -3.79328E+03
  1.13016E+04  5.19472E+03  6.32848E+03  1.15470E+04 -3.84227E+02  1.26319E+04 -6.85029E+03  6.33310E+03
 -1.12137E+04  1.55961E+02 -9.07612E+03 -5.58306E+03 -1.42294E+03 -1.00599E+04  5.58009E+03 -8.23997E+03
  7.80084E+03 -4.20199E+02  4.56919E+03  2.39016E+03  1.42753E+03  4.46251E+03  2.24708E+03  1.02349E+03
  2.83298E+03  9.79222E+02  2.04113E+03  2.71103E+03  2.98915E+03  4.17243E+03  3.54313E+03  5.19622E+03
 -2.87952E+03  8.22118E+03 -8.95661E+03  9.41965E+03 -1.17446E+04  2.33558E+03 -1.27115E+04 -4.41322E+03
 -6.31834E+03 -9.26523E+03  5.45360E+02 -1.47629E+04  7.81755E+03 -9.00113E+03  9.79857E+03 -2.72882E+03
  7.80561E+03  5.05716E+03  2.73059E+03  6.20486E+03 -3.17268E+03  4.92265E+03 -5.31662E+03 -2.12068E+02
 -1.60839E+03 -4.48424E+03  3.19353E+03 -6.26797E+03  5.13333E+03 -2.00294E+03  4.74769E+03  7.05055E+02
  3.89981E+03  3.21988E+03  1.15535E+03  1.80164E+03 -9.15225E+02  2.85243E+03  1.07065E+03 -1.28754E+03
  3.96828E+02 -1.56891E+03  3.95157E+03  9.84817E+02  4.01077E+03  5.02966E+03 -1.68575E+03  8.46299E+03
 -5.98187E+03  4.36735E+03 -8.89526E+03  1.62448E+03 -5.11576E+03 -1.26869E+03 -2.47375E+03 -3.48253E+03
  7.19378E+02 -4.89144E+03  3.58646E+03 -9.84511E+02  2.11962E+03  4.12355E+03 -1.98272E+03  4.00433E+03
 -4.23549E+03  1.84829E+03 -4.24042E+03 -1.65119E+03 -3.18403E+03 -6.39002E+03  1.77419E+03 -7.02671E+03
  4.35239E+03 -3.79197E+03  4.44325E+03  5.63582E+02  4.49419E+03  2.57080E+03  8.53609E+02  4.41130E+03
 -2.64039E+03 -7.14974E+01 -2.66571E+03 -2.94355E+03  1.49818E+02 -4.40859E+03  6.72151E+03 -4.76533E+03
  7.57197E+03  3.94879E+02  5.90931E+03  4.50480E+03  3.25498E+03  6.64582E+03 -1.71558E+03  6.27141E+03
 -5.89581E+03  1.87068E+03 -6.38983E+03 -1.79152E+03 -2.79804E+03 -5.53929E+03  1.86879E+03 -4.45301E+03
  4.58909E+03 -2.56656E+03  3.98525E+03  1.05732E+03  2.97591E+03  4.76091E+03 -1.37272E+03  3.17304E+03
 -2.40807E+03  2.09978E+03 -2.32213E+03  1.08418E+03 -1.29058E+03  7.14024E+02 -1.00354E+03  1.88686E+03
 -2.46839E+03  2.92709E+03 -4.40404E+03  1.53577E+03 -6.94033E+03 -4.53554E+02 -8.34896E+03 -4.53852E+03
 -3.54328E+03 -9.34187E+03  1.80084E+03 -1.08057E+04  6.28125E+03 -8.57473E+03  1.18372E+04 -3.41421E+03
  8.10451E+03  2.60906E+03  6.54243E+03  7.03353E+03 -4.65604E+01  7.32173E+03 -1.65163E+03  4.54141E+03
 -5.44398E+03  2.04402E+03 -1.60989E+03 -1.28865E+03 -1.37561E+03 -1.33426E+03 -4.07443E+02  1.91542E+02
 -6.68748E+02  8.08819E+02 -2.73833E+03  3.64666E+01 -8.59880E+02 -3.62527E+03  7.76056E+02 -2.65745E+03
  4.36092E+03 -3.08028E+03  3.98387E+03  5.37931E+02  6.18118E+03  4.29748E+03  1.43880E+03  5.73381E+03
 -4.70366E+03  8.91308E+03 -7.95940E+03  4.59408E+03 -8.68774E+03 -1.32142E+03 -6.18600E+03 -4.86103E+03
 -1.94681E+03 -7.35469E+03  1.99102E+03 -6.44787E+03  4.53717E+03 -3.27014E+03  3.85979E+03  4.05689E+02
  2.35797E+03  1.48876E+03 -8.91554E+02  6.67790E+02 -2.03119E+03  6.40100E+02  2.99759E+02 -1.05822E+03
  1.92416E+03 -2.03522E+03  3.33790E+03  8.26006E+02  2.22868E+03  2.29628E+03  7.24146E+02  3.03868E+03
 -4.12609E+03  3.87708E+03 -4.49604E+03  1.02632E+03 -4.17280E+03 -2.66081E+03 -1.65631E+03 -6.05028E+03
  4.40452E+03 -5.27714E+03  4.93926E+03 -1.35686E+03  6.10943E+03  1.12049E+03  2.18386E+03  3.95703E+03
  6.19895E+02  4.06950E+03 -2.87625E+03  3.30755E+03 -2.95021E+03  2.02358E+03 -2.87048E+03  6.19258E+02
 -1.06599E+03 -2.08832E+03 -2.01471E+03  6.47331E+02 -2.48324E+03  8.83262E+02 -4.18706E+03 -1.09935E+03
 -4.31733E+03 -3.82790E+03 -1.62407E+03 -4.32385E+03  1.91510E+03 -4.66821E+03  5.26906E+03 -1.01475E+03
  5.44232E+03 -5.64582E+02  1.28181E+03  3.13430E+03 -9.57815E+01  5.01374E+03 -4.01732E+03  3.40754E+03
