 $NMID ID='MM_0lb_SNR200_8hz_g60_40.RAW', FMTDAT='(8E13.5)'
 TRAMP=1., VOLUME=1. $END
  3.11393E+05  1.03659E+03  3.37895E+05  2.50256E+05  8.38727E+04  3.39666E+05 -1.33490E+05  2.51618E+05
 -1.88507E+05  8.49937E+04 -1.12672E+05 -3.37231E+04  1.16118E+03 -5.08440E+04  5.45322E+04 -4.10561E+02
  3.65534E+04  5.14367E+04 -1.70088E+04  7.77432E+04 -6.21376E+04  6.45007E+04 -8.74250E+04  3.19306E+04
 -8.49004E+04 -1.04998E+04 -5.81026E+04 -5.35465E+04 -1.32149E+04 -7.17482E+04  2.92858E+04 -4.72296E+04
  4.20321E+04  3.49589E+03  1.74376E+04  4.99693E+04 -3.35813E+04  4.83497E+04 -6.98219E+04  7.76134E+02
 -5.55469E+04 -5.68751E+04 -8.01503E+03 -7.99156E+04  3.70088E+04 -5.63236E+04  5.00258E+04 -1.89983E+04
  4.54768E+04  1.14013E+04  3.21138E+04  2.56061E+04  1.48920E+04  3.01234E+04 -7.97049E+03  2.87582E+04
 -2.34289E+04  1.16918E+04 -1.65477E+04 -6.29152E+03  7.42348E+03 -7.08569E+03  2.21535E+04  1.43860E+04
  6.50447E+03  3.76683E+04 -3.39556E+04  3.71497E+04 -6.63519E+04  3.94211E+03 -5.90020E+04 -4.53189E+04
 -1.24398E+04 -6.53915E+04  4.03902E+04 -4.59864E+04  6.23551E+04 -4.15337E+03  3.86087E+04  3.47373E+04
 -5.16677E+03  4.07775E+04 -3.17441E+04  1.86650E+04 -3.26487E+04 -2.84586E+03 -1.98932E+04 -1.26712E+04
 -1.04976E+04 -1.66795E+04 -7.21230E+02 -2.03253E+04  8.53211E+03 -2.28991E+04  1.61565E+04 -1.05088E+04
  1.14649E+04  7.24328E+03 -1.02354E+04  1.50517E+04 -2.27280E+04 -7.17146E+03 -9.40175E+03 -4.08688E+04
  2.57981E+04 -4.79897E+04  5.39642E+04 -2.08715E+04  4.92769E+04  2.04034E+04  1.76295E+04  4.65683E+04
 -1.67411E+04  3.64686E+04 -2.90522E+04  3.51326E+03 -1.18505E+04 -3.00408E+04  2.17539E+04 -3.80991E+04
  4.53933E+04 -1.16038E+04  4.29582E+04  2.54195E+04  2.30184E+04  5.44708E+04 -9.68736E+03  5.73550E+04
 -3.72954E+04  4.09238E+04 -4.80390E+04  1.31809E+04 -5.01038E+04 -1.89631E+04 -2.67396E+04 -4.21342E+04
  8.19886E+03 -4.41164E+04  3.49348E+04 -1.84188E+04  3.59746E+04  1.00811E+04  5.32551E+03  2.18524E+04
 -1.39816E+04  1.05879E+04 -1.20336E+04 -8.05532E+03  7.13444E+03 -1.16820E+04  2.08411E+04  6.08632E+03
  1.64583E+04  2.22365E+04 -6.26153E+03  2.72257E+04 -2.24216E+04  1.55483E+04 -3.16133E+04 -4.41732E+03
 -2.72756E+04 -1.89653E+04 -1.18266E+04 -2.62673E+04  3.34969E+03 -2.82344E+04  2.22970E+04 -2.53565E+04
  3.45051E+04 -1.48856E+04  4.14276E+04  5.83704E+03  2.89912E+04  2.60494E+04  3.87139E+03  4.23620E+04
 -2.15334E+04  3.64714E+04 -3.13423E+04  1.21637E+04 -2.34324E+04 -1.02776E+04 -5.39536E+03 -1.17319E+04
 -5.20299E+02 -4.65741E+02 -7.85061E+03  9.52900E+03 -2.08700E+04  4.08053E+03 -2.20315E+04 -1.04978E+04
 -1.24099E+04 -2.66680E+04  6.17715E+03 -3.00801E+04  1.96085E+04 -1.98268E+04  2.46110E+04 -3.79692E+02
  1.56345E+04  1.79809E+04 -3.83428E+02  2.53984E+04 -1.82140E+04  1.38656E+04 -2.63500E+04 -5.43266E+03
 -1.81790E+04 -2.20410E+04 -1.13170E+03 -2.98592E+04  1.47029E+04 -2.53396E+04  2.60006E+04 -1.37923E+04
  2.25277E+04 -4.93806E+02  1.73252E+04  6.06466E+03  8.50325E+03  1.30456E+03  1.15927E+04 -3.70216E+03
  2.42739E+04  3.49524E+03  2.84741E+04  2.03883E+04  2.06211E+04  4.04794E+04 -4.27772E+03  4.86099E+04
 -2.84660E+04  4.16986E+04 -4.49068E+04  2.13619E+04 -5.03474E+04 -3.69144E+03 -3.95224E+04 -2.70683E+04
 -1.44866E+04 -4.18971E+04  1.63540E+04 -3.50775E+04  3.17751E+04 -1.84192E+04  2.76423E+04  8.70953E+03
  8.79765E+03  1.83395E+04 -1.26391E+04  1.67737E+04 -1.98138E+04  2.69374E+03 -1.65097E+04 -1.35797E+04
 -1.13150E+03 -2.03376E+04  1.04883E+04 -1.43701E+04  1.41992E+04  9.02671E+02  3.46080E+03  1.06509E+04
 -9.37252E+03  6.47517E+03 -1.22783E+04 -7.03415E+03 -2.12285E+03 -1.97843E+04  1.33644E+04 -2.26945E+04
  2.53735E+04 -1.31766E+04  3.04665E+04  2.44073E+03  2.49103E+04  2.08113E+04  1.05505E+04  3.14096E+04
 -7.15782E+03  3.45946E+04 -2.46742E+04  2.23958E+04 -2.53982E+04  4.56421E+03 -1.79086E+04 -6.07520E+03
 -7.84334E+03 -8.47753E+03 -4.01511E+02 -2.09809E+01 -2.23362E+03  4.24605E+03 -9.04556E+03  6.25903E+03
 -1.68872E+04 -1.11753E+03 -1.52188E+04 -1.42050E+04 -4.84058E+03 -2.14968E+04  5.94864E+03 -1.69977E+04
  1.26645E+04 -6.72996E+03  1.02486E+04  3.97049E+03 -6.81125E+02  6.03863E+03 -8.33749E+03  2.60503E+02
 -7.84504E+03 -1.28547E+04 -9.04924E+02 -1.68211E+04  1.08927E+04 -1.89976E+04  2.19131E+04 -9.54976E+03
  2.51252E+04  3.90117E+03  1.93132E+04  1.75592E+04  4.90383E+03  2.31240E+04 -1.04562E+04  1.68604E+04
 -1.40552E+04  5.77166E+03 -8.74932E+03 -4.18304E+03  1.54279E+03 -4.97210E+03  8.70008E+03  8.00472E+01
  9.87041E+03  7.51660E+03  1.32079E+02  1.19502E+04 -1.09947E+04  1.43675E+04 -1.95252E+04  2.76493E+03
 -1.15005E+04 -9.42793E+03  2.65101E+02 -1.55897E+04  1.15228E+04 -7.44442E+03  1.17547E+04  4.47320E+03
  3.50800E+03  1.27294E+04 -9.54432E+03  1.39910E+04 -1.51773E+04  4.68757E+03 -1.57730E+04 -4.64134E+03
 -9.38056E+03 -1.97822E+04  4.65189E+03 -2.05539E+04  1.87949E+04 -1.28667E+04  1.89574E+04  2.62316E+03
  1.13625E+04  1.56498E+04 -3.23900E+03  2.02038E+04 -1.33971E+04  1.07902E+04 -1.41878E+04 -8.22806E+02
 -1.19371E+04 -1.03751E+04 -3.07716E+03 -1.39237E+04  8.13778E+03 -1.15622E+04  8.99495E+03 -4.30558E+03
  5.20336E+03  4.75883E+03 -9.55036E+02  2.60369E+03 -1.08145E+03 -3.27874E+03  1.98781E+03 -7.51328E+03
  1.46252E+04 -5.81471E+03  1.99476E+04  2.14417E+03  1.78162E+04  1.28927E+04  1.13804E+04  2.57352E+04
 -6.15196E+03  2.91174E+04 -2.34595E+04  2.05707E+04 -3.11492E+04  2.71326E+03 -2.49305E+04 -8.93471E+03
 -1.12637E+04 -2.07121E+04 -7.79919E+02 -1.70814E+04  6.42843E+03 -8.68834E+03  6.41359E+03 -5.09426E+03
  4.87518E+03 -1.57823E+03  3.95190E+03 -5.64625E+03  7.36181E+03 -4.11289E+03  8.85569E+03 -1.05515E+03
  1.33474E+04  3.27686E+03  7.61371E+03  1.10947E+04 -4.21103E+03  1.50319E+04 -1.30604E+04  8.93925E+03
 -1.63425E+04 -1.14949E+03 -1.24182E+04 -1.30548E+04 -9.64475E+02 -1.97617E+04  1.04562E+04 -1.77579E+04
  2.17712E+04 -1.21848E+04  2.31434E+04  7.91345E+02  1.72793E+04  1.65489E+04  1.95216E+03  2.06248E+04
 -8.23208E+03  1.60435E+04 -1.25658E+04  5.56912E+03 -8.39840E+03 -2.03981E+03 -3.11299E+03 -2.80045E+03
 -7.87757E+02 -2.80446E+02 -2.25607E+03  5.01328E+03 -6.89142E+03  1.07564E+03 -1.22271E+04 -7.25355E+02
 -9.41982E+03 -1.29621E+04 -2.34369E+03 -1.67888E+04  1.25137E+04 -1.66347E+04  1.74244E+04 -5.30250E+03
  1.95598E+04  7.53920E+03  9.75888E+03  1.68140E+04 -4.03514E+03  1.77177E+04 -1.24862E+04  1.06204E+04
 -1.73213E+04  1.15866E+03 -1.42904E+04 -1.17562E+04 -1.23894E+03 -1.66768E+04  8.75135E+03 -1.07161E+04
  1.05273E+04 -3.12908E+03  8.66482E+03  2.57016E+03  3.99852E+03  5.15937E+03  1.94353E+03  2.69130E+02
  3.33272E+03  2.84036E+03  3.52456E+03  3.06327E+03  5.50201E+03  6.28211E+03  4.10548E+03  7.86592E+03
 -2.98723E+03  1.49906E+04 -1.21288E+04  1.36042E+04 -1.80479E+04  4.22741E+03 -1.93572E+04 -8.47439E+03
 -9.60619E+03 -1.80587E+04  1.98594E+03 -1.96204E+04  1.10447E+04 -1.15274E+04  1.70124E+04 -3.40070E+03
  1.23655E+04  9.98529E+03  4.13554E+03  1.15345E+04 -5.70230E+03  6.99899E+03 -8.51637E+03 -5.00267E+02
 -3.94539E+03 -7.29847E+03  4.02009E+03 -7.74676E+03  5.69890E+03 -3.44535E+03  8.76537E+03  1.76362E+03
  5.82273E+03  4.19834E+03  2.41296E+03  4.41633E+03  3.81136E+02  3.55419E+03  1.42882E+03 -7.72618E+02
  3.68147E+03  4.87931E+01  6.87273E+03  2.87950E+03  4.63439E+03  1.00599E+04 -8.46892E+02  1.35644E+04
 -9.55650E+03  8.65572E+03 -1.15408E+04  1.88384E+03 -1.07302E+04 -3.84245E+03 -4.44632E+03 -4.90583E+03
  6.70345E+02 -7.43141E+03  5.91512E+03 -2.32022E+03  4.25389E+03  3.52053E+03 -7.97809E+02  6.20661E+03
 -7.37038E+03  5.58210E+03 -8.50845E+03 -5.78102E+03 -5.10256E+03 -9.67794E+03  3.82053E+03 -1.13185E+04
  8.52684E+03 -5.38785E+03  7.44912E+03 -3.35888E+02  4.45164E+03  4.27920E+03  7.75452E+02  5.42669E+03
 -5.64684E+03  2.93891E+02 -3.16784E+03 -1.87389E+03  2.66439E+03 -7.73040E+03  1.04318E+04 -7.69148E+03
  1.09717E+04 -7.41752E+02  1.03772E+04  6.88009E+03  3.73727E+03  1.37247E+04 -4.92612E+03  1.23493E+04
 -1.07891E+04  4.19463E+03 -1.13798E+04 -1.86057E+03 -6.31180E+03 -6.80288E+03  2.45925E+03 -6.98127E+03
  7.37620E+03 -3.64498E+03  3.73861E+03  3.85065E+03  2.25401E+03  4.40077E+03 -1.50365E+03  5.29931E+03
 -3.28540E+03  4.46870E+03 -2.87374E+03  2.51831E+03 -2.08425E+03  3.46873E+01 -2.23794E+03  3.39947E+03
 -3.36197E+03  4.02474E+03 -7.29187E+03  4.31251E+03 -1.28848E+04  4.75029E+01 -1.48795E+04 -8.50764E+03
 -6.62488E+03 -1.91810E+04  2.41566E+03 -2.13046E+04  1.20430E+04 -1.56176E+04  1.89213E+04 -6.18354E+03
  1.72533E+04  5.07707E+03  9.16614E+03  1.18801E+04  1.31691E+03  1.29964E+04 -4.27687E+03  1.06795E+04
 -7.89079E+03  2.87048E+03 -5.37314E+03 -3.38875E+03 -1.50984E+03 -1.59876E+03 -8.84684E+02  2.58615E+02
 -3.27992E+03 -8.22569E+02 -3.12220E+03 -6.35569E+00 -2.22424E+03 -4.13356E+03  5.65888E+02 -5.85252E+03
  8.37476E+03 -5.77702E+03  7.97774E+03 -6.41949E+02  1.00440E+04  6.62799E+03  3.31201E+03  1.45007E+04
 -6.93643E+03  1.45099E+04 -1.35574E+04  7.17002E+03 -1.89359E+04 -1.05450E+03 -1.10308E+04 -9.89879E+03
 -5.95787E+03 -1.30384E+04  4.33077E+03 -1.34813E+04  9.65351E+03 -8.08146E+03  9.30773E+03  2.61238E+03
  4.66175E+03  5.73874E+03  1.49857E+02  4.31154E+03 -2.54091E+03  5.61962E+02 -1.80728E+03 -3.44704E+03
  3.40968E+03 -1.02383E+03  4.60413E+03  1.51277E+03  2.24408E+03  6.00500E+03  1.15755E+01  8.28761E+03
 -6.70840E+03  6.81094E+03 -1.21525E+04  1.04145E+03 -8.60879E+03 -6.41586E+03 -2.36054E+03 -1.23861E+04
  5.80770E+03 -9.20242E+03  1.10037E+04 -2.69838E+03  1.09358E+04  1.78532E+03  6.19990E+03  7.36892E+03
  2.61120E+03  1.10667E+04 -3.98393E+03  6.47038E+03 -5.60771E+03  4.61067E+03 -5.81991E+03  1.01565E+03
 -2.42111E+03 -2.91925E+02 -2.89529E+03  1.81821E+03 -4.80569E+03  1.15991E+03 -5.31753E+03 -6.74348E+02
 -6.37951E+03 -3.08173E+03 -1.93107E+03 -9.35158E+03  3.18236E+03 -9.64490E+03  6.21837E+03 -4.59507E+03
  1.13438E+04  1.59391E+03  5.06139E+03  7.52352E+03 -1.55395E+02  8.91869E+03 -8.06524E+03  8.63364E+03
