 $NMID ID='MM_0lb_SNR200_20hz_g55_26.RAW', FMTDAT='(8E13.5)'
 TRAMP=1., VOLUME=1. $END
  3.09753E+05 -4.56915E+02  3.37155E+05  2.50372E+05  8.46110E+04  3.37239E+05 -1.33003E+05  2.50635E+05
 -1.90317E+05  8.21723E+04 -1.11634E+05 -3.31630E+04  1.18857E+03 -5.09441E+04  5.41275E+04  6.40902E+02
  3.42942E+04  5.32143E+04 -1.77933E+04  7.58707E+04 -6.05793E+04  6.24341E+04 -8.22692E+04  3.18128E+04
 -7.98623E+04 -1.07762E+04 -5.59699E+04 -5.08523E+04 -1.39284E+04 -6.86349E+04  2.64956E+04 -4.41877E+04
  3.85518E+04  2.94020E+03  1.46922E+04  4.78013E+04 -3.31312E+04  4.57504E+04 -6.54728E+04 -8.80371E+02
 -5.24323E+04 -5.49459E+04 -6.59451E+03 -7.45566E+04  3.29149E+04 -5.33610E+04  4.57263E+04 -1.57013E+04
  4.19258E+04  1.08535E+04  3.07060E+04  2.39738E+04  1.50051E+04  2.88540E+04 -5.22337E+03  2.75539E+04
 -2.19018E+04  1.26292E+04 -1.93732E+04 -3.89160E+03  3.44633E+03 -6.57924E+03  2.22822E+04  1.16794E+04
  7.57467E+03  3.33477E+04 -3.11088E+04  3.36129E+04 -6.09598E+04  2.10903E+03 -5.56328E+04 -4.13225E+04
 -1.25137E+04 -6.03729E+04  3.89171E+04 -4.34173E+04  5.53839E+04 -2.54914E+03  3.17958E+04  3.07333E+04
 -5.69540E+03  3.36479E+04 -2.78190E+04  1.34633E+04 -2.80313E+04 -5.11389E+03 -1.48112E+04 -1.02423E+04
 -8.13666E+03 -1.19395E+04 -9.81853E+02 -1.73513E+04  7.72901E+03 -2.15750E+04  1.52510E+04 -1.35355E+04
  1.22171E+04  4.34950E+03 -6.83917E+03  1.37038E+04 -1.87173E+04 -2.83779E+03 -8.16873E+03 -3.11591E+04
  2.00214E+04 -4.02850E+04  4.49461E+04 -1.80888E+04  4.27632E+04  1.82603E+04  1.41102E+04  4.10176E+04
 -1.55784E+04  3.06075E+04 -2.35879E+04  7.87044E+02 -8.41317E+03 -2.62719E+04  2.06479E+04 -3.15132E+04
  3.85775E+04 -7.72609E+03  3.18275E+04  2.20844E+04  1.46179E+04  4.27452E+04 -7.50019E+03  4.49539E+04
 -2.81194E+04  3.02690E+04 -3.78434E+04  8.73958E+03 -3.77066E+04 -1.58371E+04 -2.20163E+04 -3.49445E+04
  7.03748E+03 -3.57295E+04  2.95872E+04 -1.27377E+04  2.58195E+04  1.09386E+04  3.90703E+03  1.75446E+04
 -1.32672E+04  6.07704E+03 -9.08547E+03 -7.33263E+03  5.95525E+03 -1.04250E+04  1.68193E+04  5.87714E+03
  1.23272E+04  2.14009E+04 -7.19804E+03  2.42952E+04 -2.16781E+04  8.86723E+03 -2.55616E+04 -6.64885E+03
 -1.74255E+04 -1.57272E+04 -5.67354E+03 -1.64203E+04  3.13383E+03 -1.37391E+04  1.23544E+04 -1.44238E+04
  2.16080E+04 -1.12963E+04  2.80048E+04  4.17184E+02  2.28876E+04  1.54641E+04  4.47111E+03  3.15796E+04
 -1.62647E+04  2.70085E+04 -2.49322E+04  1.00250E+04 -1.99004E+04 -1.04413E+04 -4.94253E+03 -1.37540E+04
  2.80120E+03 -4.33294E+03 -2.13514E+03  5.65902E+03 -1.25545E+04  4.54393E+03 -1.34146E+04 -4.67436E+03
 -8.95926E+03 -1.54480E+04  3.72944E+03 -2.01379E+04  1.27938E+04 -1.46401E+04  1.30685E+04 -5.41424E+02
  9.50124E+03  1.06458E+04 -9.19574E+02  1.57676E+04 -1.12846E+04  9.03178E+03 -1.60026E+04 -4.26946E+03
 -1.13702E+04 -1.28333E+04 -2.23189E+03 -1.79825E+04  9.55210E+03 -1.45239E+04  1.61063E+04 -7.96775E+03
  1.45981E+04  9.34198E+02  1.00939E+04  3.52998E+03  4.81410E+03  8.69739E+02  7.12132E+03 -9.33323E+02
  1.31657E+04  3.11674E+03  1.40025E+04  1.27085E+04  9.77947E+03  2.48091E+04 -2.44655E+03  2.52029E+04
 -1.67084E+04  2.01617E+04 -2.42022E+04  9.35131E+03 -2.37597E+04 -1.16483E+03 -2.09979E+04 -1.37653E+04
 -9.26027E+03 -2.05860E+04  6.42789E+03 -1.81554E+04  1.71606E+04 -1.02404E+04  1.49032E+04  3.09061E+03
  6.35370E+03  1.06086E+04 -6.74860E+03  1.05125E+04 -1.25277E+04  1.99198E+03 -9.75859E+03 -7.75080E+03
  2.02336E+01 -1.07928E+04  5.56518E+03 -8.70811E+03  6.49566E+03 -1.88971E+03  8.77053E+02  5.08982E+03
 -4.99958E+03  1.19026E+03 -4.37573E+03 -4.37995E+03  7.80502E+02 -9.95580E+03  8.49840E+03 -9.46178E+03
  1.19769E+04 -5.38743E+03  9.68831E+03  2.88304E+03  9.12897E+03  9.51358E+03  4.41780E+03  1.18800E+04
 -1.69225E+03  1.45389E+04 -9.94082E+03  9.64645E+03 -1.05311E+04  2.57047E+03 -9.75096E+03 -1.21854E+03
 -5.17289E+03 -2.29616E+03 -1.26794E+03  9.50873E+02 -1.36649E+03  1.47742E+03 -3.35582E+03  3.80597E+03
 -7.31397E+03 -3.41176E+02 -8.47933E+03 -7.10238E+03 -2.69203E+03 -1.07756E+04  2.53068E+03 -8.04495E+03
  8.01084E+03 -3.14090E+03  5.08494E+03  2.11171E+03  7.23529E+02  3.13867E+03 -3.17853E+03 -6.14663E+01
 -2.83172E+03 -4.12899E+03 -5.69537E+02 -7.08245E+03  3.95659E+03 -6.74296E+03  8.93737E+03 -4.18939E+03
  1.10073E+04  8.32940E+02  7.79152E+03  4.55988E+03  3.02443E+03  7.86212E+03 -4.80301E+03  8.18285E+03
 -6.84592E+03  1.70278E+03 -3.19733E+03 -1.39053E+03  1.53605E+03 -3.02257E+03  4.78772E+03 -1.37997E+03
  3.50269E+03  2.29656E+03  3.24689E+02  4.93299E+03 -5.04299E+03  6.79599E+03 -7.88897E+03  4.68955E+02
 -3.79924E+03 -3.66041E+03  3.54960E+02 -6.30826E+03  3.04997E+03 -4.02007E+03  3.21472E+03  1.91282E+02
  8.09909E+02  2.15095E+03 -3.22338E+03  4.09858E+03 -3.62378E+03  2.08470E+03 -3.74206E+03 -4.57299E+02
 -1.85458E+03 -4.67901E+03  1.12647E+02 -6.22737E+03  4.86357E+03 -4.77940E+03  5.92902E+03  6.18539E+02
  5.01456E+03  5.18318E+03  5.06973E+02  5.69303E+03 -4.87582E+03  4.01089E+03 -5.13016E+03 -1.53238E+03
 -5.20236E+03 -3.99676E+03 -1.86967E+03 -3.89458E+03  1.11258E+03 -4.03077E+03  1.72381E+03 -1.98910E+03
  2.04533E+03  8.29574E+02  7.02757E+02  1.44254E+03  1.84471E+03 -4.66068E+02 -2.47410E+02 -8.57700E+02
  3.33528E+03 -6.03693E+02  4.15061E+03  4.65358E+02  5.73709E+03  2.61918E+03  4.84513E+03  6.20404E+03
 -6.71873E+02  7.45254E+03 -6.34284E+03  5.55111E+03 -9.72159E+03  6.96371E+02 -7.28764E+03 -2.46050E+03
 -3.75025E+03 -5.90517E+03 -1.22327E+03 -5.09794E+03  1.61357E+03 -2.47042E+03  1.23016E+03 -1.33809E+03
  1.68720E+03 -7.50735E+02  2.53092E+03 -2.61545E+03  3.41506E+03 -2.66199E+03  4.09569E+03  4.62510E+02
  4.64045E+03  1.12329E+03  1.67338E+03  2.70614E+03 -1.41469E+03  1.47059E+03 -3.12867E+03  2.33660E+03
 -4.11999E+03 -1.06729E+03 -1.39219E+03 -3.66732E+03  8.93738E+02 -4.34620E+03  2.95256E+03 -4.89463E+03
  4.32269E+03 -3.66416E+03  6.53027E+03 -2.97474E+00  4.40027E+03  4.69910E+03  1.21233E+03  4.51510E+03
 -1.95378E+03  4.41835E+03 -2.99368E+03  6.41568E+02 -1.09666E+03 -1.32525E+03 -6.76763E+00 -1.09449E+02
 -1.75157E+02 -4.14377E+01 -2.93504E+02  1.79155E+03 -2.40682E+03  1.09818E+03 -3.14629E+03 -6.00943E+02
 -4.09217E+02 -4.60398E+03  1.37831E+03 -3.29460E+03  2.72679E+03 -3.61455E+03  2.60108E+03 -9.12370E+02
  4.29443E+03  2.23977E+03  2.33052E+03  3.49472E+03 -1.00037E+03  3.17612E+03 -1.92928E+03  2.78948E+03
 -3.96908E+03  1.24835E+03 -2.60489E+03 -2.20901E+03  1.92731E+02 -2.28572E+03  2.01157E+03 -1.88310E+03
  1.90361E+03 -7.22278E+02  9.90534E+02  6.37256E+02  2.07648E+02  1.29390E+03 -1.60580E+02 -1.77042E+02
  1.99701E+03  3.74037E+02  2.12939E+03  1.20901E+03  7.90283E+02  2.79728E+03  7.95221E+02  1.68910E+03
 -1.31279E+03  2.68137E+03 -1.76591E+03  3.76333E+03 -1.70937E+03  1.36857E+03 -3.19340E+03  3.69076E+02
 -1.34918E+03 -2.98401E+03  5.53325E+02 -4.40776E+03  2.02785E+03 -1.45672E+03  2.26298E+03 -5.56566E+02
  2.59625E+03  1.08877E+03  2.97752E+02  2.31317E+03 -6.27198E+02  2.45229E+03 -1.00190E+03 -6.54393E+02
 -3.96496E+02 -1.06124E+03  1.33126E+03 -2.16273E+03  8.06102E+02 -8.54866E+02  1.87112E+03 -6.42668E+02
  7.08194E+01  2.13792E+02  1.36141E+03 -1.52353E+02  4.16151E+01  2.86482E+02  1.15977E+03  5.90982E+01
 -9.65532E+02  8.68064E+02  9.96741E+02  5.53225E+02  3.64632E+02  2.74141E+03 -3.38091E+02  1.69945E+03
 -8.01253E+02  6.86340E+02 -1.59335E+03 -7.70833E+02 -1.55122E+03 -6.99351E+02  9.86149E+01 -5.88361E+02
 -8.01025E+02 -1.20214E+03  4.14230E+02 -5.28087E+01 -4.04661E+02  3.16282E+02 -5.39198E+02  3.58567E+02
 -3.10395E+02  1.51952E+02 -1.92817E+03  4.76397E+02 -1.77633E+03 -1.38504E+03 -2.32270E+02 -9.73793E+02
  1.07972E+03 -1.52495E+03  6.30609E+02 -3.72865E+02  1.35034E+03 -3.04939E+02  5.90539E+01  1.56297E+03
  1.05942E+03 -5.72662E+02 -5.34363E+02 -8.18846E+02  7.07030E+02 -1.20197E+03  9.18241E+02 -8.98569E+02
  6.78971E+01  6.52185E+02  3.22140E+03  1.40805E+03  8.73960E+02  7.66300E+02 -2.20528E+02  7.58914E+02
 -4.56556E+02 -1.21490E+03 -1.21534E+03  5.40511E+02 -1.13212E+02 -7.83948E+02  3.35808E+02 -9.89463E+01
  1.03923E+03  1.02682E+02 -2.04797E+02  3.93211E+02  4.43186E+01  1.33954E+03  4.53976E+01  4.67299E+02
  2.43773E+02  4.71632E+02  8.11512E+02  1.45994E+02 -5.26147E+02  5.43306E+02 -3.77135E+02  1.66156E+03
 -5.67850E+02  4.23636E+02 -3.02324E+02  5.89766E+02 -3.38545E+02  9.17534E+01 -2.20720E+03 -7.52464E+02
 -3.44979E+02 -1.35106E+03 -5.63051E+02 -2.64400E+03  5.35083E+02 -2.05885E+03  1.67598E+03  7.20158E+02
  1.49982E+03  1.09957E+01  6.80955E+02  8.61204E+02 -7.13190E+02  1.01434E+03  6.46747E+02  2.11438E+03
 -4.16622E+02  9.46136E+02 -1.95024E+02 -3.44717E+02 -6.68269E+02  1.61037E+03 -9.41997E+02  6.10263E+02
 -1.37548E+03 -4.33466E+02 -6.19336E+02 -1.27654E+02  7.81873E+01 -7.85273E+01 -2.44327E+02 -8.10545E+01
  1.04185E+03  2.20427E+02  1.34727E+02  5.37514E+02  7.22256E+02  5.72454E+02 -6.08563E+02  4.07021E+02
 -1.24975E+03  2.77627E+03 -1.49243E+03  3.54555E+02 -1.43942E+03  1.82925E+02 -2.54095E+02 -1.51618E+03
 -1.57761E+01 -1.12311E+02  1.73310E+02 -4.84311E+02  4.86090E+02 -2.10258E+02  2.19064E+02  4.06332E+02
  2.36103E+02 -1.89350E+02  1.19203E+03 -4.02123E+01 -6.31539E+02  9.38439E+01 -3.47666E+02 -2.42344E+02
  8.24610E+02  3.08894E+02  2.02788E+02  2.54067E+02  2.16708E+02  5.89437E+02  1.06267E+03  4.93059E+02
 -1.49164E+03  1.22227E+03  2.00179E+01  2.43185E+02 -1.89060E+02 -4.00256E+02  2.06172E+02 -1.17225E+03
  5.08548E+02 -3.74481E+02 -5.43674E+02 -2.85261E+02 -2.17381E+02 -1.11725E+03  3.09424E+02  7.40230E+02
  1.60664E+03  8.04538E+02 -2.61991E+02  1.04603E+03 -2.64512E+02  1.07451E+03 -8.11842E+02 -4.46404E+02
 -8.53075E+02  3.37214E+02 -9.43194E+02 -3.44968E+02 -1.11643E+03  1.93457E+02 -6.11234E+02 -3.42760E+02
 -8.05656E+02 -1.39384E+02 -1.05929E+03 -7.09370E+02  1.10182E+03 -1.71911E+03  9.12294E+02 -5.25976E+02
 -1.21669E+02  3.94795E+00 -1.72786E+02  1.65981E+02 -1.57248E+01  3.96929E+02  6.87605E+02  4.29868E+01
