 $NMID ID='MM_0lb_SNR200_7hz_g60_28.RAW', FMTDAT='(8E13.5)'
 TRAMP=1., VOLUME=1. $END
  3.08823E+05  5.23279E+02  3.38548E+05  2.51687E+05  8.38332E+04  3.38845E+05 -1.33436E+05  2.51679E+05
 -1.91958E+05  8.49089E+04 -1.13656E+05 -3.28328E+04  1.08420E+03 -5.10014E+04  5.39626E+04 -3.10371E+02
  3.48611E+04  5.22013E+04 -1.68408E+04  7.61573E+04 -6.12013E+04  6.67293E+04 -8.61160E+04  3.11913E+04
 -8.42705E+04 -1.34010E+04 -5.68661E+04 -5.30861E+04 -1.39897E+04 -7.17761E+04  2.90041E+04 -4.72637E+04
  4.24762E+04  3.02402E+03  1.75669E+04  4.85556E+04 -3.59967E+04  4.83819E+04 -6.91595E+04 -9.11458E+02
 -5.42966E+04 -5.72444E+04 -7.81138E+03 -7.89434E+04  3.77518E+04 -5.97219E+04  5.04899E+04 -2.11771E+04
  4.67066E+04  8.95132E+03  3.18095E+04  2.73749E+04  1.77413E+04  3.20342E+04 -5.96803E+03  2.82278E+04
 -2.30247E+04  1.08593E+04 -1.98609E+04 -6.63177E+03  7.16822E+03 -7.62551E+03  2.36478E+04  1.45091E+04
  5.79446E+03  3.76049E+04 -3.32787E+04  3.79460E+04 -6.58423E+04  3.80625E+03 -6.01479E+04 -4.49957E+04
 -1.47991E+04 -6.65165E+04  3.99782E+04 -5.01669E+04  6.32849E+04 -5.87347E+02  3.80284E+04  3.42370E+04
 -3.98862E+03  4.38485E+04 -3.29332E+04  1.98319E+04 -3.44896E+04 -1.97916E+03 -1.98874E+04 -1.24238E+04
 -1.17966E+04 -1.49834E+04  1.05220E+02 -2.08320E+04  9.19942E+03 -2.42610E+04  1.61951E+04 -1.33698E+04
  1.04300E+04  7.35977E+03 -1.19102E+04  1.29207E+04 -2.51487E+04 -8.27055E+03 -9.25231E+03 -3.90481E+04
  2.53172E+04 -4.90384E+04  5.07591E+04 -2.21412E+04  5.02794E+04  2.08653E+04  1.97173E+04  4.73590E+04
 -1.63505E+04  3.85790E+04 -2.83545E+04  2.73003E+03 -1.14382E+04 -3.05954E+04  2.18815E+04 -3.74140E+04
  4.60545E+04 -1.36191E+04  4.30538E+04  2.55975E+04  2.39309E+04  5.43234E+04 -7.53773E+03  5.98668E+04
 -3.72505E+04  4.20039E+04 -4.95359E+04  1.08095E+04 -5.01214E+04 -1.99815E+04 -2.72880E+04 -4.43975E+04
  8.21298E+03 -4.35572E+04  3.48178E+04 -1.71980E+04  3.53468E+04  1.17004E+04  5.79921E+03  2.40402E+04
 -1.54775E+04  1.00082E+04 -1.22099E+04 -8.20530E+03  6.23747E+03 -1.10506E+04  1.89871E+04  4.25695E+03
  1.70420E+04  2.16893E+04 -4.26091E+03  2.73350E+04 -2.35578E+04  1.63909E+04 -3.38283E+04 -3.49286E+03
 -2.86002E+04 -1.70321E+04 -1.36361E+04 -2.79876E+04  3.96916E+03 -2.94323E+04  2.12944E+04 -2.51869E+04
  3.54149E+04 -1.56337E+04  4.20177E+04  5.25840E+03  2.90546E+04  2.70200E+04  3.09461E+03  4.45730E+04
 -2.07349E+04  3.48181E+04 -3.31674E+04  1.28838E+04 -2.34663E+04 -1.12515E+04 -4.91954E+03 -1.10229E+04
 -8.73085E+02 -3.49850E+02 -9.69965E+03  9.35737E+03 -2.21869E+04  6.22839E+03 -2.19374E+04 -1.20400E+04
 -1.38953E+04 -2.67249E+04  6.99198E+03 -3.07845E+04  2.06489E+04 -2.15295E+04  2.64556E+04 -2.85119E+03
  1.76333E+04  1.54486E+04 -2.97905E+03  2.71908E+04 -1.56136E+04  1.50225E+04 -2.73424E+04 -7.85423E+03
 -1.87516E+04 -2.18839E+04 -1.78687E+03 -3.04335E+04  1.30108E+04 -2.57457E+04  2.59437E+04 -1.49791E+04
  2.34131E+04 -1.80595E+03  1.83839E+04  6.70419E+03  1.14007E+04  1.03886E+03  1.35757E+04 -3.20357E+03
  2.63357E+04  8.53306E+02  2.81136E+04  1.92465E+04  1.86068E+04  4.36225E+04 -2.36252E+03  5.03912E+04
 -3.15837E+04  4.18527E+04 -4.67085E+04  2.12449E+04 -5.10254E+04 -3.86180E+03 -3.98254E+04 -3.06407E+04
 -1.56281E+04 -4.29868E+04  1.66935E+04 -3.59767E+04  3.22263E+04 -1.76764E+04  2.77062E+04  9.80865E+03
  7.58411E+03  2.10105E+04 -1.30836E+04  1.69200E+04 -2.37905E+04  2.74699E+02 -1.69800E+04 -1.54983E+04
 -6.78989E+02 -2.11537E+04  1.13465E+04 -1.60173E+04  1.49706E+04 -2.76570E+03  3.83422E+03  9.34634E+03
 -8.55268E+03  6.20268E+03 -1.26862E+04 -6.96401E+03 -3.95345E+03 -2.01382E+04  1.41040E+04 -2.36376E+04
  2.86205E+04 -1.42216E+04  3.22782E+04  4.71521E+03  2.98446E+04  2.01898E+04  1.50105E+04  3.53690E+04
 -5.34085E+03  3.79040E+04 -2.36156E+04  2.43698E+04 -2.59335E+04  4.24484E+03 -1.99626E+04 -7.40230E+03
 -6.55947E+03 -8.45776E+03 -8.59241E+02  1.42876E+03 -3.50818E+03  2.47325E+03 -8.36934E+03  6.38371E+03
 -1.53319E+04 -2.16944E+03 -1.74010E+04 -1.22617E+04 -6.61504E+03 -2.14951E+04  8.09141E+03 -1.94780E+04
  1.57125E+04 -1.06387E+04  1.02401E+04  4.07250E+03 -1.70436E+03  7.73267E+03 -7.91816E+03 -1.16947E+03
 -1.18230E+04 -1.06172E+04  1.99900E+02 -2.01818E+04  1.17051E+04 -1.94566E+04  2.23868E+04 -1.11122E+04
  2.88120E+04  2.94053E+03  1.87365E+04  1.69711E+04  5.18915E+03  2.30949E+04 -1.09397E+04  1.83941E+04
 -1.49787E+04  5.76295E+03 -7.01914E+03 -3.46054E+03  2.37048E+03 -6.44156E+03  1.22698E+04 -1.85211E+03
  9.15578E+03  8.63390E+03  1.55347E+03  1.64300E+04 -1.14509E+04  1.66221E+04 -1.82710E+04  3.04319E+03
 -1.34447E+04 -1.14022E+04  6.78910E+02 -1.59122E+04  1.18756E+04 -8.40818E+03  1.21803E+04  3.63867E+03
  2.15372E+03  1.20754E+04 -1.06095E+04  1.45835E+04 -1.81313E+04  4.83236E+03 -1.58326E+04 -7.97874E+03
 -8.79081E+03 -1.98396E+04  5.10948E+03 -2.41702E+04  1.89502E+04 -1.23228E+04  2.15502E+04  2.52532E+03
  1.11318E+04  1.52612E+04 -2.91922E+03  1.99499E+04 -1.45634E+04  1.11570E+04 -1.51130E+04 -7.99517E+02
 -1.35568E+04 -1.22396E+04 -2.96647E+03 -1.47088E+04  7.11889E+03 -1.03116E+04  1.04232E+04 -1.64223E+03
  7.43700E+03  2.34515E+03 -3.26970E+03  8.73027E+02 -1.80407E+03 -5.49095E+03  4.99666E+03 -1.02882E+04
  1.80200E+04 -5.43702E+03  2.36488E+04  2.26044E+03  2.18721E+04  1.48781E+04  1.26761E+04  2.76420E+04
 -5.42820E+03  2.99965E+04 -2.61481E+04  2.24095E+04 -3.40220E+04  4.35281E+03 -2.50786E+04 -1.21754E+04
 -1.37335E+04 -2.37289E+04  8.47109E+02 -1.96723E+04  6.41579E+03 -9.96744E+03  6.78585E+03 -7.02768E+03
  6.16503E+03 -4.72476E+03  4.80611E+03 -3.50286E+03  7.61016E+03 -4.28812E+03  1.16806E+04 -2.20357E+03
  1.34209E+04  4.29266E+03  5.86001E+03  1.22516E+04 -2.13816E+03  1.46885E+04 -1.42009E+04  1.01831E+04
 -2.10347E+04 -2.36541E+03 -1.12472E+04 -1.37116E+04 -1.83769E+03 -2.02648E+04  1.01629E+04 -2.07209E+04
  2.18674E+04 -1.19014E+04  2.68046E+04  5.60760E+03  1.92192E+04  1.86946E+04  1.74559E+03  2.30854E+04
 -9.32249E+03  1.60643E+04 -1.56992E+04  7.24468E+03 -8.98409E+03 -2.54466E+03 -4.80665E+03 -3.02576E+03
 -2.42092E+03  3.78286E+02 -2.01956E+03  2.78636E+03 -9.05304E+03  5.89652E+03 -1.30144E+04 -3.17063E+03
 -1.06676E+04 -1.21234E+04  8.09502E+02 -1.83815E+04  1.12853E+04 -1.82565E+04  1.94136E+04 -3.74767E+03
  1.77461E+04  7.77018E+03  1.00467E+04  1.69294E+04 -4.48942E+03  1.96182E+04 -1.41414E+04  1.31532E+04
 -1.91580E+04  1.19861E+03 -1.63270E+04 -1.31386E+04 -1.27513E+03 -1.88380E+04  9.31011E+03 -1.33148E+04
  1.29980E+04 -4.15575E+03  1.08226E+04  3.55216E+03  3.52998E+03  6.39903E+03  1.62378E+02  9.58000E+02
  1.99742E+03  2.39698E+03  3.90443E+03 -6.00070E+01  4.54821E+03  5.11354E+03  4.24225E+03  1.27412E+04
 -4.11614E+03  1.63060E+04 -1.35839E+04  1.52358E+04 -2.18971E+04  5.03472E+03 -2.09977E+04 -9.89410E+03
 -9.63509E+03 -2.05735E+04  3.13645E+03 -2.24936E+04  1.35348E+04 -1.67135E+04  1.64815E+04 -3.60132E+03
  1.24079E+04  6.93775E+03  3.81019E+03  1.16990E+04 -6.88509E+03  9.62893E+03 -8.31620E+03 -1.47485E+03
 -2.43508E+03 -1.20912E+04  5.15332E+03 -7.79931E+03  1.13897E+04 -5.45396E+03  8.63751E+03  1.82858E+03
  4.84307E+03  5.18703E+03  3.00206E+03  3.75674E+03 -2.15515E+03  4.28582E+03  2.58356E+03  4.64429E+02
  1.85835E+03 -1.56701E+03  8.13771E+03  1.58492E+03  6.90928E+03  9.82296E+03 -3.75329E+02  1.66194E+04
 -8.90446E+03  1.01748E+04 -1.24373E+04  3.25656E+03 -1.17007E+04 -4.63162E+03 -7.07548E+03 -9.53837E+03
  7.91769E+02 -8.18467E+03  5.88053E+03 -4.46196E+03  4.15590E+03  3.77860E+03 -1.52848E+03  4.47008E+03
 -8.93479E+03  5.21989E+03 -9.96044E+03 -5.15478E+03 -4.99649E+03 -1.28233E+04  2.26827E+03 -1.21228E+04
  7.10375E+03 -7.48887E+03  8.89708E+03 -8.67256E+02  6.04774E+03  2.26802E+03  9.21379E+01  4.35420E+03
 -4.73584E+03  3.11238E+03 -5.22834E+03 -5.88480E+03  2.06009E+03 -9.81964E+03  1.07431E+04 -9.72243E+03
  1.60334E+04  2.42123E+02  1.45141E+04  1.11577E+04  3.29611E+03  1.57032E+04 -5.90219E+03  1.45608E+04
 -1.17897E+04  6.37170E+03 -1.28798E+04 -3.18423E+03 -6.33479E+03 -9.31188E+03  1.39151E+03 -9.44063E+03
  9.17494E+03 -5.82124E+03  9.61810E+03  3.38571E+03  2.64815E+03  7.12662E+03 -2.55383E+03  5.99787E+03
 -3.27008E+03  2.30907E+03 -4.97843E+03  2.01027E+03 -1.79432E+03  9.18578E+01 -8.73615E+02  1.19343E+03
 -3.72839E+03  6.54948E+03 -1.12158E+04  5.80282E+03 -1.91183E+04 -2.07132E+02 -1.77754E+04 -9.89829E+03
 -9.02243E+03 -2.01635E+04  3.44528E+03 -2.27256E+04  1.44425E+04 -1.79527E+04  2.27563E+04 -6.68751E+03
  1.89867E+04  4.16430E+03  1.31987E+04  1.50747E+04  2.20668E+03  1.51955E+04 -6.33996E+03  1.07468E+04
 -8.52533E+03  5.07340E+03 -6.34762E+03 -1.15894E+03 -1.79115E+03 -2.73209E+02 -1.39014E+03 -9.32621E+02
 -6.89464E+02  2.05326E+03 -3.72279E+03 -3.98792E+02 -2.94023E+02 -3.87429E+03  1.20732E+03 -4.45250E+03
  5.46571E+03 -5.79647E+03  1.03711E+04 -5.54861E+02  1.23010E+04  8.31368E+03  4.65430E+03  1.70450E+04
 -4.79622E+03  1.60172E+04 -1.74130E+04  1.05889E+04 -2.05605E+04 -3.09396E+03 -1.65125E+04 -1.24761E+04
 -6.65141E+03 -1.57767E+04  4.18998E+03 -1.41393E+04  1.20042E+04 -7.31075E+03  9.50201E+03 -6.47042E+02
  5.42374E+03  7.68056E+03 -2.00830E+03  3.30040E+03 -3.38483E+03 -8.85706E+01  5.02422E+02 -4.35848E+03
  5.73791E+03 -3.02873E+03  6.69316E+03  1.95908E+02  4.00655E+03  9.13160E+03  1.06161E+03  8.59330E+03
 -7.93194E+03  5.75965E+03 -1.14855E+04  2.51163E+02 -1.06607E+04 -8.59729E+03 -1.01754E+03 -1.35939E+04
  7.19308E+03 -1.19195E+04  1.38007E+04 -5.48777E+03  1.37039E+04  1.94470E+03  8.58705E+03  9.18195E+03
  1.46716E+03  9.31303E+03 -4.73254E+03  8.32991E+03 -9.80075E+03  5.15326E+03 -7.14396E+03  4.13651E+02
 -3.21934E+03 -1.95929E+03 -5.53335E+03  1.31789E+03 -4.88594E+03  1.15575E+03 -8.15900E+03 -3.19457E+03
 -6.69252E+03 -5.83442E+03 -2.72064E+03 -1.16468E+04  4.92406E+03 -1.24728E+04  9.33775E+03 -6.08784E+03
  1.22300E+04  7.45235E+02  7.12945E+03  7.41107E+03 -4.94198E+02  1.21462E+04 -7.31744E+03  9.43099E+03
