 $NMID ID='MM_0lb_SNR200_8hz_g60_41.RAW', FMTDAT='(8E13.5)'
 TRAMP=1., VOLUME=1. $END
  3.08354E+05  7.29201E+02  3.39022E+05  2.50635E+05  8.64078E+04  3.39130E+05 -1.31807E+05  2.54255E+05
 -1.92148E+05  8.42255E+04 -1.14025E+05 -3.20424E+04 -1.67458E+02 -5.08868E+04  5.11517E+04  1.08115E+03
  3.51749E+04  5.26984E+04 -1.61772E+04  7.64036E+04 -6.10078E+04  6.44228E+04 -8.66067E+04  3.24297E+04
 -8.41166E+04 -1.23684E+04 -5.76447E+04 -5.32884E+04 -1.47645E+04 -7.04900E+04  2.87490E+04 -4.63269E+04
  4.07232E+04  3.04775E+03  1.74974E+04  4.81474E+04 -3.60206E+04  4.97638E+04 -6.94611E+04 -1.83970E+02
 -5.53850E+04 -6.05196E+04 -1.09252E+04 -8.02129E+04  3.37422E+04 -5.95448E+04  5.04795E+04 -1.82364E+04
  4.67675E+04  1.19219E+04  3.22457E+04  2.58119E+04  1.65189E+04  3.33147E+04 -5.75419E+03  2.83585E+04
 -2.39807E+04  1.08461E+04 -1.75216E+04 -4.29765E+03  8.21067E+03 -6.01923E+03  2.36163E+04  1.36615E+04
  6.02563E+03  3.67947E+04 -3.46884E+04  3.78678E+04 -6.84970E+04  2.94381E+03 -5.98914E+04 -4.67068E+04
 -1.44223E+04 -6.62104E+04  4.33619E+04 -4.96127E+04  6.34281E+04 -2.10686E+03  3.77671E+04  3.52817E+04
 -4.92493E+03  4.14578E+04 -3.16945E+04  2.03132E+04 -3.37836E+04 -3.57047E+03 -2.05750E+04 -1.30496E+04
 -9.38058E+03 -1.60820E+04 -3.38152E+02 -1.83346E+04  8.90813E+03 -2.46812E+04  1.62632E+04 -1.09946E+04
  1.09877E+04  6.26196E+03 -1.03839E+04  1.37821E+04 -2.48215E+04 -6.85942E+03 -9.26031E+03 -3.92919E+04
  2.57455E+04 -4.86048E+04  5.46847E+04 -2.12897E+04  4.87638E+04  2.14416E+04  1.73905E+04  4.69498E+04
 -1.64921E+04  3.70525E+04 -2.80266E+04  1.53966E+03 -1.25243E+04 -3.09431E+04  2.24097E+04 -3.66929E+04
  4.64423E+04 -1.15170E+04  4.23810E+04  2.63232E+04  2.24124E+04  5.14261E+04 -7.36601E+03  5.84051E+04
 -3.74829E+04  3.91089E+04 -4.93075E+04  1.12508E+04 -4.98441E+04 -1.92118E+04 -2.77070E+04 -4.39028E+04
  8.82703E+03 -4.31380E+04  3.45331E+04 -2.01089E+04  3.41925E+04  1.13750E+04  5.17030E+03  2.10361E+04
 -1.41606E+04  9.49951E+03 -1.19089E+04 -7.01880E+03  5.30640E+03 -1.09607E+04  1.83062E+04  5.23542E+03
  1.64263E+04  2.36716E+04 -4.71920E+03  2.73407E+04 -2.49945E+04  1.51813E+04 -3.31748E+04 -2.09242E+03
 -2.76239E+04 -1.79105E+04 -1.36046E+04 -2.76288E+04  4.56995E+03 -2.94684E+04  2.24524E+04 -2.41233E+04
  3.43110E+04 -1.50595E+04  4.10421E+04  6.03996E+03  2.84368E+04  2.52759E+04  3.03982E+03  4.37144E+04
 -2.08526E+04  3.46259E+04 -2.97119E+04  1.21468E+04 -2.17357E+04 -9.06256E+03 -5.82174E+03 -1.23240E+04
  5.54542E+02 -2.33589E+03 -8.16840E+03  9.64475E+03 -2.26587E+04  6.35588E+03 -2.32907E+04 -1.13963E+04
 -1.24365E+04 -2.44702E+04  7.27827E+03 -2.87920E+04  1.91784E+04 -2.07936E+04  2.43038E+04 -9.71904E+02
  1.54766E+04  1.78754E+04 -1.56414E+03  2.77421E+04 -1.83227E+04  1.42624E+04 -2.38036E+04 -5.76493E+03
 -1.84489E+04 -2.39191E+04 -1.13612E+03 -2.94573E+04  1.55956E+04 -2.45189E+04  2.44874E+04 -1.42229E+04
  2.21178E+04 -9.78348E+02  1.53814E+04  4.54051E+03  1.03141E+04  6.23000E+02  1.29970E+04 -3.08992E+03
  2.38249E+04  3.55072E+03  2.53480E+04  2.01506E+04  2.01239E+04  3.97926E+04 -2.10433E+03  4.82017E+04
 -2.70607E+04  4.14947E+04 -4.31479E+04  2.05907E+04 -5.04996E+04 -2.59265E+03 -3.85364E+04 -2.95914E+04
 -1.33998E+04 -4.04658E+04  1.51525E+04 -3.58878E+04  3.24601E+04 -1.63177E+04  2.73865E+04  8.31994E+03
  8.04369E+03  2.08231E+04 -1.11222E+04  1.62437E+04 -2.28487E+04  3.39650E+03 -1.73852E+04 -1.61264E+04
 -2.39125E+03 -2.17340E+04  1.13464E+04 -1.55260E+04  1.39216E+04 -1.18477E+03  4.55853E+03  8.84346E+03
 -1.04311E+04  4.61086E+03 -1.13589E+04 -7.62202E+03 -2.53949E+03 -2.11398E+04  1.16215E+04 -2.34478E+04
  2.46708E+04 -1.28911E+04  2.91993E+04  1.82202E+03  2.70347E+04  1.99334E+04  1.37000E+04  3.28023E+04
 -6.26588E+03  3.73882E+04 -2.31815E+04  2.09147E+04 -2.67134E+04  4.72455E+03 -1.55143E+04 -7.47316E+03
 -6.58220E+03 -9.22002E+03 -6.36986E+02 -7.11905E+02 -3.84416E+03  3.69169E+03 -6.38524E+03  5.58711E+03
 -1.58256E+04 -1.07792E+03 -1.61838E+04 -1.25952E+04 -7.30567E+03 -2.18166E+04  5.84220E+03 -1.59514E+04
  1.40662E+04 -6.42270E+03  1.12953E+04  3.14525E+03 -2.16419E+03  5.53386E+03 -9.87311E+03 -1.94525E+03
 -1.07640E+04 -1.13843E+04 -7.73338E+02 -1.84533E+04  1.15260E+04 -1.79378E+04  2.20361E+04 -1.00022E+04
  2.53468E+04  2.35320E+03  1.88258E+04  1.69948E+04  5.53844E+03  2.17985E+04 -1.08834E+04  1.71212E+04
 -1.42190E+04  4.84873E+03 -7.97457E+03 -4.81106E+03  1.97888E+03 -5.73083E+03  9.49143E+03  1.85327E+02
  9.12578E+03  8.07894E+03  1.63751E+03  1.37607E+04 -1.17126E+04  1.44659E+04 -1.75035E+04  3.26359E+03
 -1.22730E+04 -8.13977E+03 -1.28481E+03 -1.73906E+04  9.16519E+03 -8.55924E+03  1.10161E+04  4.61931E+03
  2.94763E+03  1.35060E+04 -9.80417E+03  1.18370E+04 -1.67010E+04  5.61418E+03 -1.64474E+04 -6.31388E+03
 -1.00968E+04 -1.86940E+04  6.34319E+03 -2.03236E+04  1.79753E+04 -1.32883E+04  2.02013E+04  3.90768E+03
  1.18798E+04  1.43930E+04 -2.11571E+03  2.04067E+04 -1.30429E+04  1.11504E+04 -1.60692E+04 -2.65967E+02
 -1.20030E+04 -1.12907E+04 -1.21319E+03 -1.27561E+04  8.39507E+03 -1.01880E+04  8.08341E+03 -3.15948E+03
  5.00680E+03  3.56906E+03 -1.34649E+03  1.99623E+03 -1.57860E+03 -2.88932E+03  2.31662E+03 -9.32983E+03
  1.30036E+04 -6.36399E+03  2.03232E+04  1.24147E+03  1.80504E+04  1.21141E+04  1.12770E+04  2.55409E+04
 -4.90880E+03  2.73002E+04 -2.41551E+04  2.03876E+04 -3.08815E+04  3.99311E+03 -2.41516E+04 -1.03265E+04
 -1.08278E+04 -2.10651E+04 -5.62169E+02 -1.70889E+04  6.52466E+03 -8.87307E+03  6.33261E+03 -8.79289E+03
  4.86504E+03 -4.22168E+03  4.74926E+03 -3.72283E+03  6.25155E+03 -4.13593E+03  9.39490E+03 -2.41428E+03
  1.37286E+04  1.94096E+03  6.87003E+03  1.01029E+04 -3.38575E+03  1.40618E+04 -1.35629E+04  9.75911E+03
 -1.69940E+04 -5.83427E+02 -1.12232E+04 -1.27336E+04 -1.86304E+03 -1.71239E+04  1.13838E+04 -1.88756E+04
  1.97431E+04 -1.02794E+04  2.51386E+04  2.50888E+03  1.42452E+04  1.84573E+04  1.83218E+03  2.20731E+04
 -1.03045E+04  1.58523E+04 -1.40357E+04  5.11958E+03 -7.58558E+03 -1.95427E+03 -3.08270E+03 -2.35632E+03
 -2.01159E+03 -1.29755E+03 -1.35465E+03  3.62744E+03 -6.76989E+03  2.69745E+03 -1.15092E+04 -2.06718E+03
 -8.09398E+03 -1.03871E+04  3.43447E+02 -1.67573E+04  9.91418E+03 -1.76008E+04  1.85939E+04 -4.50487E+03
  1.61525E+04  1.05229E+04  8.00562E+03  1.62615E+04 -4.07737E+03  1.72308E+04 -1.28359E+04  1.14036E+04
 -1.71405E+04  4.86092E+02 -1.14772E+04 -1.18103E+04 -3.52060E+02 -1.63339E+04  9.39625E+03 -1.43429E+04
  1.12112E+04 -4.08908E+03  8.09107E+03  3.34565E+03  3.68255E+03  5.83323E+03  1.77883E+03  1.89046E+03
  2.20450E+03  2.08650E+03  3.52128E+03  3.09921E+02  6.16840E+03  4.91732E+03  4.24346E+03  1.01697E+04
 -3.23786E+03  1.27478E+04 -1.26549E+04  1.50029E+04 -1.86477E+04  2.79423E+03 -1.90099E+04 -8.32542E+03
 -7.49291E+03 -1.88604E+04  2.65088E+03 -2.03788E+04  1.26067E+04 -1.25308E+04  1.65132E+04 -5.05301E+03
  1.16976E+04  7.51492E+03  2.41176E+03  1.04765E+04 -4.74965E+03  4.90914E+03 -8.29016E+03 -2.41096E+03
 -1.82970E+03 -7.98781E+03  5.97356E+03 -7.35398E+03  7.42410E+03 -4.42427E+03  9.51135E+03  1.63505E+03
  3.61694E+03  2.79715E+03  2.09362E+03  3.07131E+03 -2.76387E+03  1.22674E+03  2.30892E+03 -7.63706E+02
  2.95323E+03 -1.16435E+02  8.02178E+03  3.19950E+03  4.68669E+03  1.02916E+04 -1.00930E+03  1.38675E+04
 -1.00314E+04  8.22927E+03 -1.24376E+04  2.82083E+03 -1.11302E+04 -5.32097E+03 -4.59961E+03 -7.60731E+03
  8.83428E+02 -6.29812E+03  4.42496E+03 -4.74468E+03  4.23261E+03  3.74376E+03 -2.40696E+03  6.59304E+03
 -8.62476E+03  2.32202E+03 -8.40253E+03 -5.64034E+03 -2.82044E+03 -1.10968E+04  4.09577E+01 -9.93618E+03
  6.29569E+03 -4.02857E+03  9.12228E+03 -2.97497E+03  4.65464E+03  4.69869E+03  7.16958E+02  5.74797E+03
 -2.96587E+03  1.28139E+03 -5.06549E+03 -4.32934E+03  1.09813E+03 -1.05826E+04  9.20648E+03 -7.06181E+03
  1.26186E+04  7.19409E+02  1.08861E+04  9.94012E+03  3.43120E+03  1.25165E+04 -5.11293E+03  1.09690E+04
 -9.92644E+03  4.82750E+03 -1.17014E+04  1.44895E+01 -4.82212E+03 -8.52771E+03  2.21769E+03 -7.48340E+03
  9.57298E+03 -4.30058E+03  6.81711E+03  4.25082E+03  1.89625E+03  6.94870E+03 -1.70293E+03  6.71833E+03
 -5.44067E+03  5.43599E+03 -1.36294E+03  1.47416E+03 -9.40150E+02  3.40305E+02 -1.33176E+03  2.37711E+03
 -3.00575E+03  4.38088E+03 -8.86477E+03  5.47781E+03 -1.27097E+04  1.34364E+03 -1.26900E+04 -9.57311E+03
 -7.39192E+03 -1.58060E+04  2.75226E+03 -1.91535E+04  1.04834E+04 -1.45373E+04  1.91083E+04 -5.10909E+03
  1.77483E+04  3.93362E+03  1.11837E+04  1.15598E+04  2.64720E+03  1.33222E+04 -5.33927E+03  1.06882E+04
 -7.67045E+03  5.31300E+03 -5.06502E+03 -1.78216E+03  1.42647E+02 -2.14088E+03 -1.03985E+03 -1.52104E+03
 -1.53189E+03 -9.14368E+02 -2.02204E+03 -8.16362E+02  6.14288E+02 -2.66072E+03  2.52182E+02 -3.93974E+03
  7.13977E+03 -6.11858E+03  7.94909E+03 -7.67702E+02  8.48453E+03  7.16434E+03  2.86776E+03  1.29304E+04
 -4.88976E+03  1.56625E+04 -1.39299E+04  1.01587E+04 -1.57050E+04 -1.23043E+03 -1.22563E+04 -1.07405E+04
 -4.96864E+03 -1.37686E+04  3.03154E+03 -1.40110E+04  9.04461E+03 -8.15928E+03  8.39836E+03 -1.63602E+02
  6.92596E+03  3.96303E+03 -1.57145E+03  3.42962E+03 -2.23081E+03 -1.64176E+03  5.02102E+02 -2.30893E+03
  3.81202E+03 -2.12665E+03  3.57629E+03  1.84174E+03  3.31492E+03  4.66840E+03  5.34641E+02  7.04814E+03
 -6.55835E+03  6.41276E+03 -8.72179E+03  1.60829E+03 -9.24323E+03 -7.21125E+03 -1.65067E+03 -1.09643E+04
  6.98232E+03 -1.18643E+04  1.14998E+04 -2.64770E+03  8.11427E+03  5.52159E+03  7.58425E+03  9.61201E+03
  2.43910E+03  8.17815E+03 -4.22549E+03  8.30846E+03 -6.16752E+03  2.68549E+03 -5.22467E+03  2.01084E+02
 -2.75563E+03 -2.12766E+03 -1.21680E+03  1.05720E+03 -5.13929E+03  2.12046E+03 -8.54867E+03 -3.24087E+03
 -4.99538E+03 -6.03109E+03 -1.74405E+03 -9.71908E+03  5.61180E+03 -9.80971E+03  7.53756E+03 -4.92068E+03
  7.79424E+03  2.06243E+03  5.15929E+03  9.02233E+03 -1.13774E+03  9.42875E+03 -7.62804E+03  7.39266E+03
