 $NMID ID='MM_0lb_SNR200_12hz_g55_47.RAW', FMTDAT='(8E13.5)'
 TRAMP=1., VOLUME=1. $END
  3.09730E+05  8.65082E+02  3.37946E+05  2.50944E+05  8.37829E+04  3.38368E+05 -1.32869E+05  2.51288E+05
 -1.90200E+05  8.28085E+04 -1.12989E+05 -3.22871E+04  9.53104E+02 -4.96142E+04  5.45043E+04 -2.97624E+02
  3.60768E+04  5.26391E+04 -1.59561E+04  7.67156E+04 -6.05409E+04  6.41533E+04 -8.54450E+04  3.23737E+04
 -8.32143E+04 -1.17742E+04 -5.70207E+04 -5.31631E+04 -1.31647E+04 -6.98037E+04  2.74708E+04 -4.61302E+04
  4.01031E+04  4.09113E+03  1.62775E+04  4.64157E+04 -3.46184E+04  4.82798E+04 -6.66800E+04 -7.24041E+02
 -5.43800E+04 -5.68919E+04 -7.85702E+03 -7.77436E+04  3.47501E+04 -5.52148E+04  4.96969E+04 -1.74050E+04
  4.50591E+04  1.04140E+04  3.27472E+04  2.61801E+04  1.58599E+04  2.94608E+04 -6.43288E+03  2.66199E+04
 -2.30545E+04  1.20017E+04 -1.88239E+04 -6.24946E+03  6.10044E+03 -6.60420E+03  2.25668E+04  1.29947E+04
  7.66681E+03  3.62802E+04 -3.38418E+04  3.76122E+04 -6.56520E+04  2.15982E+03 -5.70776E+04 -4.49690E+04
 -1.29911E+04 -6.52593E+04  4.19244E+04 -4.78409E+04  6.03849E+04 -3.33806E+03  3.45635E+04  3.20499E+04
 -5.88597E+03  3.89422E+04 -3.05916E+04  1.64369E+04 -3.32230E+04 -4.34284E+03 -1.78674E+04 -1.20064E+04
 -8.25786E+03 -1.41003E+04 -7.29144E+02 -1.88539E+04  7.55054E+03 -2.31329E+04  1.58031E+04 -1.29327E+04
  1.07924E+04  5.78358E+03 -9.67485E+03  1.18836E+04 -2.23349E+04 -5.40921E+03 -8.42687E+03 -3.64615E+04
  2.59447E+04 -4.57015E+04  4.98211E+04 -2.04918E+04  4.62507E+04  2.03597E+04  1.58323E+04  4.49812E+04
 -1.64558E+04  3.49176E+04 -2.77339E+04  1.46000E+03 -1.07054E+04 -2.95954E+04  2.14886E+04 -3.55887E+04
  4.29343E+04 -8.61391E+03  3.72705E+04  2.39185E+04  2.10788E+04  4.88930E+04 -8.22309E+03  5.29435E+04
 -3.39410E+04  3.52185E+04 -4.52194E+04  1.01191E+04 -4.63973E+04 -1.83351E+04 -2.51554E+04 -4.06822E+04
  8.37907E+03 -4.02111E+04  3.21911E+04 -1.66378E+04  3.07986E+04  1.17240E+04  5.48409E+03  1.99945E+04
 -1.39647E+04  7.59486E+03 -1.23237E+04 -7.16885E+03  5.21076E+03 -1.14946E+04  1.89200E+04  5.95581E+03
  1.47915E+04  2.32138E+04 -6.20206E+03  2.45375E+04 -2.22056E+04  1.34589E+04 -3.08857E+04 -4.02162E+03
 -2.24049E+04 -1.79919E+04 -1.19328E+04 -2.24928E+04  4.42372E+03 -2.47728E+04  1.79204E+04 -2.05839E+04
  3.01081E+04 -1.42239E+04  3.53243E+04  3.79872E+03  2.61366E+04  2.37150E+04  5.50335E+03  4.00087E+04
 -1.82898E+04  3.22878E+04 -2.90263E+04  1.13953E+04 -2.14137E+04 -1.06087E+04 -5.15566E+03 -1.24700E+04
  7.02522E+02 -1.83515E+03 -5.07016E+03  7.77276E+03 -1.83569E+04  4.66081E+03 -1.76833E+04 -8.52307E+03
 -1.03595E+04 -2.13480E+04  6.11635E+03 -2.39591E+04  1.65451E+04 -1.95975E+04  2.07061E+04 -1.97350E+03
  1.40053E+04  1.39762E+04 -1.42863E+03  2.09814E+04 -1.55395E+04  1.10440E+04 -2.19307E+04 -3.94377E+03
 -1.67397E+04 -1.85920E+04 -1.46585E+03 -2.57259E+04  1.19209E+04 -2.09501E+04  2.08964E+04 -1.11064E+04
  2.01617E+04 -5.80634E+02  1.53379E+04  5.69636E+03  7.43240E+03  6.30576E+02  1.08258E+04 -2.77519E+03
  1.94917E+04  1.94564E+03  2.20624E+04  1.57477E+04  1.43987E+04  3.37813E+04 -2.55614E+03  3.80893E+04
 -2.21703E+04  3.24975E+04 -3.67442E+04  1.65211E+04 -3.94421E+04 -2.34301E+03 -3.11577E+04 -2.30851E+04
 -1.28219E+04 -3.18458E+04  1.07993E+04 -2.93701E+04  2.43090E+04 -1.39974E+04  2.31870E+04  5.60934E+03
  7.96541E+03  1.69199E+04 -1.03611E+04  1.56752E+04 -1.87357E+04  2.86137E+03 -1.27801E+04 -1.14630E+04
  1.10737E+03 -1.69803E+04  8.65338E+03 -1.34876E+04  1.21921E+04 -9.53767E+02  3.14974E+03  8.32797E+03
 -8.48685E+03  3.14439E+03 -7.63345E+03 -6.26213E+03 -4.94719E+02 -1.61720E+04  1.00926E+04 -1.54806E+04
  1.98998E+04 -8.83698E+03  2.20552E+04  3.57282E+03  1.88584E+04  1.76022E+04  7.63176E+03  2.35832E+04
 -4.59191E+03  2.68707E+04 -1.83603E+04  1.68029E+04 -1.92731E+04  3.78035E+03 -1.46347E+04 -5.63027E+03
 -5.16432E+03 -6.49594E+03 -3.26758E+02  2.79213E+02 -2.14854E+03  2.35578E+03 -5.88580E+03  4.55072E+03
 -1.14370E+04 -8.91125E+02 -1.38940E+04 -1.05566E+04 -5.88103E+03 -1.71204E+04  4.52971E+03 -1.52003E+04
  1.02619E+04 -4.63411E+03  7.65043E+03  3.83230E+03 -7.16479E+02  4.99617E+03 -6.64519E+03 -5.80219E+02
 -6.38232E+03 -9.32364E+03 -1.79975E+03 -1.24951E+04  8.71429E+03 -1.38735E+04  1.79106E+04 -7.37470E+03
  2.07917E+04  3.52259E+03  1.36297E+04  1.18126E+04  2.34574E+03  1.58131E+04 -7.72183E+03  1.37612E+04
 -1.13566E+04  3.98308E+03 -5.62321E+03 -2.36245E+03  2.27315E+03 -3.74485E+03  8.31830E+03 -1.03030E+03
  5.43361E+03  6.65774E+03  1.09258E+03  1.18050E+04 -6.55564E+03  1.00478E+04 -1.18564E+04  2.61510E+03
 -7.36618E+03 -6.14875E+03 -2.44373E+02 -1.13256E+04  7.15792E+03 -6.41083E+03  8.11730E+03  2.13878E+03
  2.41839E+03  7.44463E+03 -6.26736E+03  1.03797E+04 -9.58475E+03  4.85843E+03 -1.21205E+04 -3.62073E+03
 -5.50380E+03 -1.15189E+04  2.08806E+03 -1.39236E+04  1.22804E+04 -8.93315E+03  1.35088E+04  2.31503E+03
  8.01619E+03  9.07750E+03 -9.53257E+02  1.32615E+04 -9.40756E+03  6.87446E+03 -9.87238E+03 -1.28606E+03
 -9.35629E+03 -8.36050E+03 -1.79511E+03 -9.98914E+03  5.13768E+03 -7.51206E+03  4.60993E+03 -3.47617E+03
  5.28900E+03  1.44287E+03 -6.06873E+02  1.72351E+03 -1.43899E+02 -8.85247E+02  1.84918E+03 -5.48060E+03
  8.03178E+03 -1.51771E+03  1.15343E+04  2.93417E+02  1.24988E+04  7.65967E+03  8.31501E+03  1.57124E+04
 -4.37513E+03  1.78267E+04 -1.67790E+04  1.28236E+04 -2.01130E+04  3.95540E+03 -1.60128E+04 -6.84069E+03
 -8.28166E+03 -1.30848E+04 -1.39615E+03 -1.16717E+04  2.96209E+03 -6.14086E+03  3.93093E+03 -3.04125E+03
  3.93150E+03 -2.80694E+03  2.54453E+03 -2.68108E+03  5.28887E+03 -3.08613E+03  6.92552E+03 -1.65475E+03
  1.02105E+04  9.84393E+02  4.97799E+03  7.00320E+03 -1.98462E+03  7.72626E+03 -9.06368E+03  6.72817E+03
 -9.70245E+03 -8.79583E+02 -7.68521E+03 -9.18129E+03 -1.10888E+03 -1.25724E+04  7.34072E+03 -1.20225E+04
  1.24640E+04 -7.12524E+03  1.46456E+04  2.14387E+03  1.10002E+04  1.10283E+04  2.48714E+03  1.33432E+04
 -5.85998E+03  1.13617E+04 -7.63543E+03  3.89038E+03 -5.05161E+03 -8.13438E+02 -2.05408E+03 -2.44694E+03
 -1.41001E+03 -5.06937E+02 -1.61143E+03  3.38974E+03 -4.51410E+03  6.25189E+02 -6.30917E+03 -4.69916E+02
 -3.91586E+03 -7.15244E+03 -2.05625E+02 -1.02167E+04  5.09561E+03 -1.03639E+04  1.05696E+04 -2.76090E+03
  9.12382E+03  6.15468E+03  5.50231E+03  9.56168E+03 -1.94239E+03  1.08155E+04 -7.71956E+03  6.04129E+03
 -8.18466E+03  1.31394E+03 -7.82120E+03 -5.94670E+03 -5.15443E+02 -7.81580E+03  3.92229E+03 -7.63606E+03
  6.66095E+03 -2.79862E+03  3.27207E+03  2.21211E+03  9.71225E+02  4.90416E+03  1.68954E+03  1.06645E+03
  2.31873E+03  2.62326E+01  1.98066E+03  1.60569E+03  3.23852E+03  3.71692E+03  2.66333E+03  5.56020E+03
 -7.53875E+02  7.60277E+03 -6.40302E+03  9.87481E+03 -1.03349E+04  7.76531E+02 -1.08982E+04 -3.51126E+03
 -4.68044E+03 -9.46051E+03  4.05151E+02 -1.15601E+04  5.35693E+03 -6.97275E+03  8.93172E+03 -2.36162E+03
  6.13452E+03  5.12507E+03  3.97456E+02  6.77023E+03 -2.86424E+03  3.30854E+03 -3.51828E+03 -6.32417E+02
 -2.75299E+03 -4.46318E+03  2.80597E+03 -5.08065E+03  4.23006E+03 -2.62701E+03  5.07396E+03  7.11613E+02
  2.93285E+03  1.36542E+03 -6.37183E+01  9.16567E+02  8.98563E+02  2.22666E+03  2.11013E+03  1.73519E+03
  2.40695E+03 -4.63854E+02  5.07442E+03  1.13087E+03  2.17046E+03  5.13075E+03 -1.70639E+03  6.84640E+03
 -4.23245E+03  3.62312E+03 -6.43036E+03  2.15472E+03 -5.88706E+03 -2.06455E+03 -6.86590E+02 -4.75480E+03
  5.45732E+02 -2.78683E+03  2.16834E+03 -2.33296E+03  1.75612E+03  1.30581E+03 -1.32135E+03  4.52594E+03
 -4.04538E+03  2.16248E+03 -4.13187E+03 -2.41667E+03 -2.81733E+03 -5.83407E+03 -4.75276E+02 -6.24901E+03
  3.62578E+03 -3.03102E+03  4.00042E+03 -7.55699E+02  3.07357E+03  1.02318E+03  5.85991E+02  3.78705E+03
 -1.38685E+03  2.66990E+02 -1.80222E+03 -1.81294E+03  9.14918E+02 -5.20630E+03  5.31285E+03 -3.27812E+03
  6.04348E+03  4.86203E+01  6.05792E+03  2.15094E+03  2.53575E+03  6.51711E+03 -1.68322E+03  7.13773E+03
 -5.36100E+03  1.91041E+03 -5.29940E+03 -1.33188E+03 -2.80675E+03 -5.74890E+03 -1.46415E+02 -4.03210E+03
  3.73234E+03 -5.48047E+02  2.01714E+03  1.82505E+03  3.36105E+01  3.79191E+03  6.89381E+02  3.67161E+03
 -1.00153E+03  3.28064E+03 -1.60611E+03  6.79646E+02 -3.96584E+02  2.21483E+03 -1.17969E+03  1.96122E+03
 -1.17194E+03  3.29956E+03 -4.10329E+03  3.27965E+03 -6.58343E+03 -1.05139E+03 -6.85199E+03 -3.27361E+03
 -4.58915E+03 -7.96950E+03  2.67590E+03 -8.39344E+03  4.84913E+03 -9.00642E+03  8.83005E+03 -1.83607E+03
  7.94163E+03  9.05594E+02  4.42033E+03  5.77769E+03  9.77208E+02  6.43914E+03 -2.71324E+03  4.41983E+03
 -2.41634E+03  1.30277E+03 -2.23100E+03  6.30705E+02 -1.82087E+02 -2.13707E+02 -1.10444E+03 -1.05616E+02
 -1.73948E+03 -9.90015E+02 -1.49505E+03  2.06671E+03 -1.31593E+03 -1.47045E+03  5.03916E+02 -2.78159E+03
  3.68700E+03 -5.31896E+02  2.74126E+03 -1.04791E+03  4.91031E+03  2.40241E+03  4.84162E+02  5.85442E+03
 -3.19632E+03  7.45741E+03 -6.01759E+03  3.06663E+03 -8.33292E+03 -9.12691E+02 -3.83109E+03 -4.75669E+03
 -2.80499E+03 -7.25769E+03  7.45176E+02 -7.24049E+03  3.64173E+03 -4.12654E+03  3.73316E+03  2.21956E+02
  2.62804E+03  1.70477E+03  3.61144E+02  2.26701E+03 -1.64934E+03 -7.46814E+02  1.25916E+03 -2.51732E+03
  1.24230E+03 -7.35118E+02  1.30684E+03  1.58360E+03  1.22056E+03  1.36284E+03  1.13858E+03  2.30640E+03
 -2.27347E+03  2.13175E+03 -4.06067E+03 -1.19762E+03 -3.57943E+03 -2.83547E+03  7.53592E+02 -4.71615E+03
  3.38776E+03 -5.10193E+03  3.97695E+03 -1.03562E+01  3.19418E+03  1.02903E+03  1.92411E+03  2.91487E+03
  1.68779E+03  4.04424E+03 -2.30216E+03  2.61584E+03 -2.82429E+03  3.25410E+03 -2.34198E+03  2.12570E+01
 -2.95928E+02 -4.63157E+02 -2.06640E+03  2.05507E+02 -1.44709E+03  5.80452E+02 -2.58035E+03 -9.07478E+02
 -3.50604E+03 -5.73435E+02 -1.72931E+02 -1.77960E+03  2.65048E+03 -3.52378E+03  3.91387E+03 -2.26768E+03
  3.48817E+03  5.42402E+02  2.50899E+03  2.60656E+03  2.35154E+02  4.30285E+03 -3.57952E+03  2.84927E+03
