 $NMID ID='MM_0lb_SNR200_7hz_g55_65.RAW', FMTDAT='(8E13.5)'
 TRAMP=1., VOLUME=1. $END
  3.10489E+05  9.37137E+02  3.37986E+05  2.49897E+05  8.44731E+04  3.38484E+05 -1.32933E+05  2.50789E+05
 -1.90006E+05  8.20378E+04 -1.14342E+05 -3.34809E+04 -2.32626E+01 -5.03927E+04  5.31896E+04 -6.31532E+02
  3.64757E+04  5.47722E+04 -1.58319E+04  7.58250E+04 -6.05820E+04  6.47319E+04 -8.60218E+04  3.26741E+04
 -8.32763E+04 -1.14846E+04 -5.76957E+04 -5.21479E+04 -1.58665E+04 -7.26554E+04  2.82170E+04 -4.93056E+04
  4.15286E+04  3.07552E+03  1.65662E+04  5.00814E+04 -3.57109E+04  4.83049E+04 -6.81734E+04 -1.40383E+03
 -5.52751E+04 -5.59819E+04 -8.12806E+03 -7.96675E+04  3.39198E+04 -6.03702E+04  5.03361E+04 -1.86856E+04
  4.73433E+04  1.24698E+04  3.41547E+04  2.51788E+04  1.72975E+04  3.18669E+04 -5.14257E+03  2.64537E+04
 -2.36416E+04  1.21630E+04 -1.72575E+04 -5.69910E+03  8.29146E+03 -5.57739E+03  2.26046E+04  1.39371E+04
  6.84073E+03  3.97019E+04 -3.43757E+04  3.83537E+04 -6.61761E+04  2.29162E+03 -6.03561E+04 -4.60667E+04
 -1.12587E+04 -6.66671E+04  4.23721E+04 -4.63556E+04  6.18488E+04 -1.50515E+03  3.79823E+04  3.57424E+04
 -5.41506E+03  3.99768E+04 -3.29154E+04  2.17626E+04 -3.60583E+04 -3.13710E+03 -2.06656E+04 -1.08411E+04
 -9.79355E+03 -1.62278E+04 -4.99116E+02 -2.02259E+04  1.10101E+04 -2.37676E+04  1.38625E+04 -1.15926E+04
  1.09292E+04  6.45372E+03 -1.15283E+04  1.19087E+04 -2.45818E+04 -7.61877E+03 -9.25831E+03 -3.86746E+04
  2.67536E+04 -4.88796E+04  5.40968E+04 -2.33112E+04  5.00505E+04  2.25785E+04  1.76171E+04  4.77748E+04
 -1.84332E+04  3.74928E+04 -2.88797E+04  3.40826E+03 -1.14895E+04 -3.30002E+04  2.06794E+04 -3.80326E+04
  4.51048E+04 -1.21760E+04  4.38463E+04  2.61413E+04  2.01211E+04  5.30989E+04 -9.21093E+03  5.71016E+04
 -3.74646E+04  3.94304E+04 -5.14725E+04  1.12784E+04 -5.08548E+04 -1.90848E+04 -2.82036E+04 -4.49348E+04
  9.31738E+03 -4.41705E+04  3.56639E+04 -1.92233E+04  3.40078E+04  1.28066E+04  5.33158E+03  2.24134E+04
 -1.37345E+04  9.99793E+03 -1.31544E+04 -7.57502E+03  4.93438E+03 -1.05188E+04  2.10863E+04  4.41567E+03
  1.43434E+04  2.26341E+04 -3.76204E+03  2.67814E+04 -2.33309E+04  1.45626E+04 -3.44264E+04 -4.78182E+02
 -2.56224E+04 -1.85012E+04 -1.62161E+04 -2.49426E+04  6.22586E+03 -2.92946E+04  2.22133E+04 -2.49031E+04
  3.47054E+04 -1.51822E+04  4.13521E+04  6.37497E+03  2.99542E+04  2.51566E+04  5.60423E+03  4.19623E+04
 -2.00286E+04  3.75804E+04 -3.18517E+04  1.23898E+04 -2.30182E+04 -9.63319E+03 -4.66947E+03 -1.23611E+04
 -2.40937E+01  1.27693E+03 -6.52834E+03  8.08138E+03 -2.21190E+04  5.32588E+03 -2.28249E+04 -9.42429E+03
 -1.56630E+04 -2.54831E+04  8.88212E+03 -3.07655E+04  2.08108E+04 -2.27816E+04  2.43078E+04 -1.37451E+03
  1.65492E+04  1.90815E+04 -2.91447E+03  2.50976E+04 -1.95763E+04  1.37877E+04 -2.64304E+04 -6.75677E+03
 -1.77956E+04 -2.28582E+04 -2.27793E+03 -3.05640E+04  1.36626E+04 -2.48397E+04  2.61054E+04 -1.28391E+04
  2.35013E+04 -1.24972E+03  1.61867E+04  5.38618E+03  9.12553E+03  1.25441E+03  1.47628E+04 -1.23506E+02
  2.59407E+04  1.31800E+03  3.02480E+04  1.92203E+04  1.96087E+04  4.16712E+04 -3.09543E+03  4.92649E+04
 -2.79648E+04  4.20482E+04 -4.56267E+04  2.31704E+04 -5.05118E+04 -4.24133E+03 -4.19240E+04 -3.11169E+04
 -1.53814E+04 -4.37719E+04  1.81277E+04 -3.73187E+04  2.98910E+04 -1.58112E+04  2.59359E+04  8.95817E+03
  8.44180E+03  2.13249E+04 -1.38360E+04  1.73191E+04 -2.31430E+04  9.78898E+02 -1.63948E+04 -1.32376E+04
  2.72396E+02 -2.00221E+04  1.08704E+04 -1.47775E+04  1.47734E+04 -1.96996E+02  5.43886E+03  9.58123E+03
 -1.02299E+04  6.51653E+03 -1.22630E+04 -4.75437E+03 -2.69026E+03 -2.09496E+04  1.31270E+04 -2.23501E+04
  2.86012E+04 -1.44087E+04  3.16531E+04  3.80313E+03  2.74043E+04  2.05659E+04  1.11688E+04  3.35064E+04
 -7.15684E+03  3.73602E+04 -2.26343E+04  2.28022E+04 -2.46908E+04  3.65437E+03 -1.76519E+04 -7.73423E+03
 -6.07253E+03 -8.79822E+03 -2.00883E+02 -1.98286E+03 -4.39475E+03  3.71968E+03 -7.48818E+03  5.23862E+03
 -1.55461E+04 -1.74200E+03 -1.74788E+04 -1.34555E+04 -7.21417E+03 -2.24845E+04  7.03565E+03 -1.82283E+04
  1.40302E+04 -6.90238E+03  1.14827E+04  7.01075E+03 -1.21940E+03  8.42356E+03 -9.07201E+03 -1.01849E+03
 -8.39224E+03 -1.20271E+04 -4.75807E+02 -1.74781E+04  1.00930E+04 -1.94396E+04  2.43325E+04 -1.02612E+04
  2.65376E+04  3.37115E+03  2.10799E+04  1.53473E+04  2.03751E+03  2.32191E+04 -1.04559E+04  1.99172E+04
 -1.51741E+04  5.54541E+03 -7.56584E+03 -4.08640E+03  3.17068E+03 -6.11115E+03  9.26520E+03 -1.45695E+03
  6.64649E+03  6.32362E+03  2.51192E+03  1.32632E+04 -1.11410E+04  1.53008E+04 -1.78060E+04  4.72328E+03
 -1.34883E+04 -1.00230E+04  1.00229E+03 -1.64943E+04  9.83583E+03 -7.99855E+03  1.24920E+04  6.38805E+03
  3.80361E+03  1.23294E+04 -1.02453E+04  1.35202E+04 -1.79606E+04  5.92364E+03 -1.69695E+04 -5.85979E+03
 -1.12337E+04 -2.01939E+04  6.69515E+03 -2.17517E+04  2.11582E+04 -1.25510E+04  2.08560E+04  3.99621E+03
  1.21121E+04  1.50277E+04 -9.32403E+01  2.16434E+04 -1.51966E+04  9.89201E+03 -1.47599E+04 -1.88429E+03
 -1.14702E+04 -1.41034E+04 -1.00921E+03 -1.37616E+04  6.68252E+03 -1.21745E+04  8.50084E+03 -3.62424E+03
  6.74556E+03  2.29468E+03 -2.79224E+03  2.53281E+03 -3.46873E+03 -2.80090E+03  3.63687E+03 -9.06796E+03
  1.44602E+04 -6.55221E+03  2.13222E+04  2.21073E+03  1.84751E+04  1.40705E+04  1.22257E+04  2.40613E+04
 -6.86160E+03  3.00880E+04 -2.81436E+04  2.21080E+04 -3.12279E+04  4.20402E+03 -2.57274E+04 -1.35896E+04
 -1.38257E+04 -2.16429E+04 -2.93359E+03 -1.79560E+04  7.05080E+03 -1.10172E+04  8.04959E+03 -6.98961E+03
  6.17153E+03 -2.92113E+03  5.01762E+03 -6.72165E+03  6.74205E+03 -5.05950E+03  1.21683E+04 -1.76815E+03
  1.38941E+04  3.57924E+03  8.44469E+03  1.02662E+04 -1.31732E+03  1.56023E+04 -1.42427E+04  1.03448E+04
 -2.12393E+04 -7.63274E+02 -1.08540E+04 -1.17964E+04 -2.17811E+03 -2.06271E+04  1.11143E+04 -1.91555E+04
  2.13806E+04 -1.23533E+04  2.46568E+04  4.71264E+03  1.69580E+04  1.70405E+04  2.74201E+03  2.03223E+04
 -1.23838E+04  1.78008E+04 -1.46224E+04  6.77647E+03 -9.54350E+03 -2.22526E+03 -4.07698E+03 -4.86427E+03
 -6.77337E+02 -1.63191E+03 -3.40757E+03  1.83358E+03 -8.69419E+03  2.64506E+03 -1.20708E+04 -2.21298E+03
 -1.01993E+04 -1.13628E+04 -6.61158E+02 -1.87245E+04  1.20804E+04 -1.70217E+04  1.89154E+04 -4.69640E+03
  2.03655E+04  9.76575E+03  9.59762E+03  1.73166E+04 -4.15741E+03  1.77523E+04 -1.27145E+04  1.35347E+04
 -1.74975E+04 -4.44314E+02 -1.46691E+04 -1.30382E+04 -6.12922E+02 -1.59557E+04  8.55502E+03 -1.13096E+04
  1.24884E+04 -2.98339E+03  8.66672E+03  4.36574E+03  3.40852E+03  5.84092E+03  2.95644E+02  2.39166E+03
  3.14407E+03  1.87642E+03  4.69663E+03  1.05585E+03  5.72522E+03  5.53085E+03  5.76020E+03  1.06611E+04
 -4.57860E+03  1.81278E+04 -1.34723E+04  1.51486E+04 -2.08640E+04  2.24890E+03 -2.15012E+04 -9.28261E+03
 -9.01301E+03 -2.16605E+04  1.91106E+03 -2.20249E+04  1.39772E+04 -1.36541E+04  1.75299E+04 -3.85875E+03
  1.09181E+04  8.61713E+03  3.39415E+03  1.20331E+04 -5.65270E+03  7.48479E+03 -8.69371E+03 -3.77515E+02
 -3.95046E+03 -8.96894E+03  5.43265E+03 -7.32625E+03  6.46970E+03 -4.85818E+03  9.45593E+03  1.81917E+03
  4.22399E+03  3.33153E+03  2.81276E+03  4.01135E+03 -1.78536E+03  2.18391E+03  1.27449E+03  3.24314E+01
  3.56026E+03 -3.35323E+02  8.06143E+03  3.60157E+03  3.66604E+03  1.13702E+04 -1.89586E+03  1.37411E+04
 -9.64084E+03  8.73328E+03 -1.60948E+04  1.38745E+03 -1.25719E+04 -4.79044E+03 -3.33057E+03 -8.66185E+03
 -1.55707E+02 -9.15372E+03  3.07998E+03 -3.51859E+03  4.15326E+03  4.85092E+03  4.77229E+01  8.54902E+03
 -8.61236E+03  4.89903E+03 -1.04334E+04 -5.44804E+03 -5.09995E+03 -1.08259E+04  2.09281E+03 -1.23388E+04
  6.99197E+03 -8.07033E+03  9.21390E+03 -1.29326E+03  7.85718E+03  3.75614E+03 -1.06742E+03  6.61604E+03
 -4.73986E+03  2.13448E+03 -4.25596E+03 -3.81581E+03  2.01364E+03 -7.42473E+03  8.56226E+03 -8.33198E+03
  1.24706E+04  1.39645E+03  1.27265E+04  9.85448E+03  6.28732E+03  1.53721E+04 -3.56367E+03  1.20067E+04
 -1.20496E+04  7.98288E+03 -1.10365E+04 -2.62911E+03 -7.47694E+03 -8.26287E+03  2.75878E+03 -5.69031E+03
  8.86076E+03 -5.14384E+03  5.71871E+03  4.48271E+03  3.14106E+03  6.81710E+03 -2.53889E+03  7.11176E+03
 -4.87378E+03  3.24223E+03 -2.40702E+03  1.05374E+03 -3.74583E+02  9.73212E+02 -2.29937E+03  2.17638E+03
 -4.09772E+03  4.42846E+03 -8.24249E+03  3.00198E+03 -1.46043E+04 -7.36850E+02 -1.55442E+04 -9.73217E+03
 -7.03109E+03 -2.02838E+04  3.89741E+03 -2.27145E+04  1.44710E+04 -1.58697E+04  1.91416E+04 -7.23088E+03
  1.92073E+04  4.43686E+03  1.26097E+04  1.41188E+04  9.95567E+02  1.42134E+04 -4.20313E+03  1.14965E+04
 -8.57549E+03  3.61556E+03 -5.06190E+03 -1.40562E+03 -2.78832E+03  1.64765E+02 -6.74560E+02  1.86452E+03
 -2.63650E+03  1.55364E+03 -2.51928E+03 -8.14824E+02 -3.44918E+02 -2.53991E+03  4.44545E+02 -5.37368E+03
  5.74863E+03 -3.67857E+03  9.31307E+03 -6.60464E+01  1.24701E+04  5.48166E+03  3.18750E+03  1.42964E+04
 -8.18821E+03  1.65166E+04 -1.63152E+04  1.08028E+04 -1.93448E+04 -2.02940E+03 -1.56742E+04 -1.19691E+04
 -7.02371E+03 -1.52416E+04  5.27596E+03 -1.43496E+04  1.06348E+04 -7.91114E+03  1.21221E+04 -7.58745E+02
  5.03186E+03  3.24514E+03  3.95077E+01  3.78078E+03 -1.46265E+03 -8.06584E+02  1.14358E+03 -3.94104E+03
  4.27840E+03 -2.23450E+03  6.95073E+03  3.66240E+03  3.76554E+03  5.92393E+03 -2.02473E+02  7.88228E+03
 -6.92096E+03  6.89396E+03 -1.20285E+04 -1.13882E+03 -8.04216E+03 -8.26170E+03 -3.24139E+03 -1.17106E+04
  6.98797E+03 -1.19859E+04  1.28194E+04 -4.07763E+03  1.31601E+04  2.47427E+03  5.75353E+03  8.35451E+03
  1.52296E+03  1.15511E+04 -3.12086E+03  8.56474E+03 -7.26260E+03  4.85216E+03 -5.34151E+03  1.86809E+02
 -2.53863E+03 -2.54317E+03 -3.70695E+03  3.51643E+03 -5.28074E+03  1.66831E+03 -8.07730E+03 -4.79498E+02
 -6.90019E+03 -6.32162E+03 -2.42400E+01 -8.86966E+03  5.28748E+03 -1.21264E+04  9.42716E+03 -6.05279E+03
  1.14391E+04  3.04534E+03  5.97721E+03  6.89528E+03 -5.11620E+02  1.13056E+04 -9.28541E+03  8.47770E+03
