 $NMID ID='MM_0lb_SNR200_7hz_g60_14.RAW', FMTDAT='(8E13.5)'
 TRAMP=1., VOLUME=1. $END
  3.09679E+05 -7.03090E+02  3.37015E+05  2.52041E+05  8.41595E+04  3.39870E+05 -1.33083E+05  2.52704E+05
 -1.90337E+05  8.33384E+04 -1.12521E+05 -3.29553E+04 -7.91430E+02 -5.15457E+04  5.29523E+04 -8.29363E+02
  3.48347E+04  5.32622E+04 -1.67836E+04  7.73969E+04 -6.32625E+04  6.48266E+04 -8.65513E+04  3.19858E+04
 -8.33571E+04 -1.01712E+04 -5.94787E+04 -5.27195E+04 -1.47896E+04 -7.22256E+04  2.98004E+04 -4.69553E+04
  4.07600E+04  2.65462E+03  1.55436E+04  5.09090E+04 -3.60726E+04  4.76732E+04 -6.90789E+04  8.67113E+02
 -5.71652E+04 -5.91005E+04 -8.42755E+03 -7.98257E+04  3.55731E+04 -5.89064E+04  5.08433E+04 -1.88802E+04
  4.69705E+04  1.18561E+04  3.32361E+04  2.47013E+04  1.65897E+04  3.16230E+04 -3.94852E+03  2.94768E+04
 -2.05405E+04  1.24197E+04 -1.75670E+04 -5.86763E+03  7.70933E+03 -6.95863E+03  2.27706E+04  1.41760E+04
  6.72105E+03  3.92399E+04 -3.46790E+04  3.91601E+04 -6.72215E+04  1.63268E+03 -5.93572E+04 -4.46825E+04
 -1.32736E+04 -6.68715E+04  4.26419E+04 -4.89617E+04  6.49717E+04 -2.72008E+03  3.92705E+04  3.59096E+04
 -6.25257E+03  4.22204E+04 -3.00398E+04  2.04634E+04 -3.45280E+04 -4.33302E+03 -2.30709E+04 -1.26794E+04
 -9.27960E+03 -1.60684E+04 -4.07809E+02 -2.09221E+04  8.70411E+03 -2.37667E+04  1.57205E+04 -1.17119E+04
  9.37865E+03  8.09709E+03 -1.08535E+04  1.35075E+04 -2.48629E+04 -9.54949E+03 -9.34286E+03 -4.08231E+04
  2.74360E+04 -5.00394E+04  5.39162E+04 -2.33935E+04  4.94850E+04  2.24226E+04  1.96043E+04  4.81971E+04
 -1.60279E+04  3.76908E+04 -2.73104E+04  5.90678E+03 -1.31834E+04 -3.12712E+04  2.14850E+04 -3.78867E+04
  4.88893E+04 -1.28721E+04  4.15189E+04  2.68813E+04  2.30894E+04  5.16684E+04 -9.25952E+03  6.02657E+04
 -3.83192E+04  4.00242E+04 -5.12041E+04  1.18959E+04 -4.97708E+04 -1.89754E+04 -2.69981E+04 -4.41116E+04
  8.54543E+03 -4.67219E+04  3.47690E+04 -1.69210E+04  3.29215E+04  1.23388E+04  5.50569E+03  2.24679E+04
 -1.41319E+04  9.30187E+03 -1.22137E+04 -7.86022E+03  5.75092E+03 -1.08572E+04  1.93874E+04  5.40206E+03
  1.50711E+04  2.20329E+04 -4.42954E+03  2.88754E+04 -2.46384E+04  1.62308E+04 -3.24028E+04 -2.92143E+03
 -2.87780E+04 -1.85399E+04 -1.32729E+04 -2.78689E+04  4.78001E+03 -2.85147E+04  2.14799E+04 -2.68766E+04
  3.50036E+04 -1.49425E+04  4.24258E+04  7.41143E+03  2.91481E+04  2.82127E+04  5.85149E+03  4.40111E+04
 -2.12237E+04  3.36176E+04 -3.32291E+04  1.29442E+04 -2.26531E+04 -9.70490E+03 -5.30635E+03 -1.42362E+04
 -2.47142E+02  2.41289E+02 -9.12848E+03  9.48980E+03 -2.29991E+04  5.87312E+03 -2.28336E+04 -9.86364E+03
 -1.42254E+04 -2.68303E+04  7.08487E+03 -3.11290E+04  2.26094E+04 -2.29012E+04  2.43705E+04 -3.36302E+03
  1.75625E+04  1.72158E+04 -1.91417E+03  2.68013E+04 -1.94045E+04  1.42221E+04 -2.71187E+04 -4.70559E+03
 -1.91974E+04 -2.30028E+04 -3.20915E+03 -3.17749E+04  1.39737E+04 -2.69773E+04  2.55803E+04 -1.55942E+04
  2.81091E+04 -2.56738E+03  1.78478E+04  4.51665E+03  9.92078E+03  1.95276E+03  1.40362E+04 -6.30437E+02
  2.52020E+04  1.46354E+03  3.12168E+04  1.91319E+04  2.03369E+04  4.40405E+04 -3.68454E+03  4.97269E+04
 -2.97785E+04  4.30973E+04 -4.70057E+04  2.36210E+04 -5.32134E+04 -4.41224E+03 -4.13095E+04 -3.13244E+04
 -1.73145E+04 -4.47313E+04  1.60974E+04 -3.88004E+04  3.19300E+04 -1.63905E+04  2.86957E+04  9.50790E+03
  8.07622E+03  2.32449E+04 -1.22094E+04  1.69350E+04 -2.12880E+04  3.01167E+03 -1.56575E+04 -1.56072E+04
 -2.36391E+03 -2.05435E+04  1.15183E+04 -1.51501E+04  1.54895E+04 -1.67127E+03  4.49280E+03  9.90846E+03
 -9.95562E+03  6.31569E+03 -1.18939E+04 -7.18205E+03 -4.16301E+03 -1.97293E+04  1.22060E+04 -2.46678E+04
  2.81538E+04 -1.37490E+04  2.99977E+04  4.58355E+03  2.99294E+04  2.27527E+04  1.40185E+04  3.50962E+04
 -6.76322E+03  3.66737E+04 -2.33250E+04  2.28804E+04 -2.80353E+04  3.38301E+03 -1.76794E+04 -7.10589E+03
 -5.79983E+03 -8.83310E+03 -1.87695E+03  3.74276E+02 -3.00452E+03  4.32910E+03 -1.01311E+04  7.54178E+03
 -1.68552E+04 -1.96271E+03 -1.51843E+04 -1.45150E+04 -5.99203E+03 -2.18790E+04  7.81855E+03 -1.87731E+04
  1.61530E+04 -6.82754E+03  1.02450E+04  4.99239E+03  1.11788E+03  7.65663E+03 -9.40770E+03  2.35356E+03
 -1.02136E+04 -1.25283E+04 -4.00895E+03 -1.81116E+04  9.81666E+03 -2.18006E+04  2.35967E+04 -8.86048E+03
  2.88019E+04  1.63553E+03  1.99571E+04  1.90443E+04  2.37699E+03  2.25873E+04 -1.12987E+04  1.86087E+04
 -1.60272E+04  5.83596E+03 -8.09977E+03 -5.28729E+03  7.66285E+02 -5.18056E+03  1.12702E+04 -2.41392E+03
  1.01078E+04  1.00757E+04 -6.17184E+02  1.48422E+04 -1.30207E+04  1.45888E+04 -1.90471E+04  4.47642E+03
 -1.33436E+04 -9.05533E+03 -3.46422E+02 -1.46360E+04  1.09568E+04 -8.33645E+03  1.00875E+04  3.57528E+03
  3.41515E+03  1.12106E+04 -1.04418E+04  1.33771E+04 -1.52526E+04  6.63922E+03 -1.80265E+04 -8.80743E+03
 -1.07956E+04 -2.12687E+04  5.68927E+03 -2.18067E+04  1.98872E+04 -1.50157E+04  2.28832E+04  3.23160E+03
  1.26994E+04  1.69002E+04 -1.52517E+03  1.87841E+04 -1.38855E+04  1.15502E+04 -1.79797E+04 -1.26596E+03
 -1.27511E+04 -1.26564E+04 -2.17916E+03 -1.34039E+04  8.04992E+03 -1.12680E+04  1.07317E+04 -4.19224E+03
  5.56910E+03  3.91327E+03 -1.70619E+03  2.73366E+03  1.12499E+02 -5.46555E+03  3.49583E+03 -9.01201E+03
  1.51104E+04 -7.16816E+03  2.13045E+04  2.35345E+03  2.04094E+04  1.37621E+04  1.26995E+04  2.74273E+04
 -7.88535E+03  3.21993E+04 -2.58948E+04  2.31146E+04 -3.31902E+04  4.42494E+03 -2.65609E+04 -1.10427E+04
 -1.39443E+04 -2.27502E+04 -6.05738E+02 -1.90606E+04  6.35571E+03 -1.11290E+04  7.06676E+03 -7.39253E+03
  5.91602E+03 -5.68581E+03  4.63557E+03 -3.06390E+03  7.29399E+03 -4.99402E+03  9.66065E+03 -1.82864E+03
  1.44491E+04  2.12237E+03  7.15714E+03  1.10518E+04 -2.24326E+03  1.57728E+04 -1.44158E+04  1.11558E+04
 -1.92106E+04 -1.53791E+03 -1.36034E+04 -1.44254E+04 -3.63672E+03 -2.08077E+04  1.23818E+04 -2.02137E+04
  2.24957E+04 -1.22955E+04  2.52048E+04  3.23207E+03  1.70058E+04  1.94609E+04  2.31350E+03  2.21938E+04
 -1.13786E+04  1.85525E+04 -1.28012E+04  7.43103E+03 -8.78206E+03 -1.48294E+03 -4.34538E+03 -2.37548E+03
 -3.16923E+03  7.13292E+02 -6.29261E+02  3.60959E+03 -7.24153E+03  4.04474E+03 -1.23068E+04 -3.02910E+03
 -8.50033E+03 -1.31674E+04 -4.14788E+02 -1.90364E+04  1.23853E+04 -1.80373E+04  2.10574E+04 -4.66774E+03
  1.86218E+04  8.71507E+03  8.39868E+03  1.83552E+04 -3.33222E+03  1.98476E+04 -1.37367E+04  1.19731E+04
 -1.87033E+04  8.39362E+02 -1.29353E+04 -1.29591E+04 -2.17771E+03 -1.55800E+04  9.56884E+03 -1.19193E+04
  1.43747E+04 -3.43692E+03  8.78296E+03  3.99901E+03  2.01025E+03  7.26890E+03  2.45920E+03  4.03088E+03
  3.74509E+03  1.00619E+03  7.00286E+03  3.38594E+03  5.79580E+03  6.01897E+03  5.08102E+03  6.83891E+03
 -3.25380E+03  1.75538E+04 -1.46745E+04  1.73972E+04 -2.13695E+04  4.39696E+03 -2.23738E+04 -8.68863E+03
 -1.03360E+04 -2.09355E+04  2.43948E+03 -2.24479E+04  1.36368E+04 -1.33315E+04  1.72037E+04 -4.68016E+03
  1.33022E+04  5.95068E+03  4.16783E+03  1.22549E+04 -8.35730E+03  7.25460E+03 -9.83341E+03 -1.78609E+03
 -4.24441E+03 -8.77230E+03  5.34977E+03 -9.61894E+03  8.87942E+03 -3.83724E+03  9.12118E+03  1.36591E+03
  7.03342E+03  5.84514E+03  4.55733E+02  4.64567E+03  1.38143E+02  3.68339E+03  7.78501E+02 -1.03243E+03
  7.84928E+02 -1.67581E+03  9.22478E+03  2.71867E+03  5.61601E+03  1.04877E+04 -3.73500E+02  1.53500E+04
 -8.89639E+03  1.08909E+04 -1.24681E+04  4.18598E+03 -1.25385E+04 -5.67119E+03 -5.00171E+03 -6.57460E+03
 -2.43413E+01 -8.58244E+03  7.48348E+03 -3.84964E+03  5.29241E+03  4.29839E+03 -1.90418E+03  6.72592E+03
 -9.26585E+03  4.67230E+03 -9.92037E+03 -6.36488E+03 -5.11037E+03 -1.19368E+04  2.76190E+03 -1.25619E+04
  8.55950E+03 -6.89840E+03  7.67700E+03 -2.49498E+02  5.90296E+03  3.38338E+03  1.81302E+03  6.48792E+03
 -3.94174E+03  1.35681E+03 -5.65089E+03 -2.50148E+03  8.97865E+02 -9.25552E+03  1.06612E+04 -7.50589E+03
  1.39614E+04  1.12817E+03  1.41234E+04  9.52119E+03  3.94858E+03  1.58208E+04 -5.17927E+03  1.58344E+04
 -1.24052E+04  6.54697E+03 -1.23273E+04 -1.80991E+03 -9.04569E+03 -8.61926E+03  2.21087E+03 -9.49767E+03
  9.43026E+03 -3.64876E+03  7.80780E+03  3.84982E+03  2.36489E+03  7.89797E+03 -1.59845E+03  6.34071E+03
 -3.70897E+03  3.93584E+03 -4.14127E+03  2.34661E+03 -2.97869E+03  2.22350E+03 -2.64816E+03  4.02558E+03
 -5.05810E+03  6.35601E+03 -1.05669E+04  6.23978E+03 -1.52924E+04  3.89600E+02 -1.69384E+04 -1.01933E+04
 -9.00983E+03 -2.17356E+04  5.32675E+03 -2.31568E+04  1.47139E+04 -1.75967E+04  2.18618E+04 -5.86650E+03
  2.11944E+04  6.02713E+03  1.39130E+04  1.51404E+04  1.63955E+03  1.71937E+04 -7.19473E+03  1.42700E+04
 -8.39113E+03  3.66109E+03 -6.71071E+03 -2.31580E+03 -2.76618E+03 -2.37680E+03  1.07047E+03  1.96124E+02
 -1.49357E+03  9.01197E+02 -2.73125E+03  6.55966E+02 -9.03996E+02 -5.80126E+03 -3.23939E+01 -6.88285E+03
  6.96818E+03 -4.95055E+03  7.73027E+03 -7.44651E+02  1.21334E+04  8.72793E+03  3.75211E+03  1.67594E+04
 -7.57162E+03  1.65322E+04 -1.63330E+04  1.08900E+04 -1.96565E+04 -3.12413E+03 -1.42567E+04 -1.15129E+04
 -5.76561E+03 -1.66671E+04  5.99980E+03 -1.45541E+04  9.16078E+03 -7.00291E+03  1.10262E+04  9.62118E+02
  6.68757E+03  5.67677E+03 -9.35929E+02  4.17464E+03 -2.86275E+03 -9.01183E+02  5.73342E+02 -6.10320E+03
  5.50670E+03 -1.62455E+03  7.88152E+03  2.69140E+03  6.39425E+03  7.63095E+03 -1.55973E+02  8.21936E+03
 -7.14448E+03  8.65818E+03 -1.17533E+04 -2.98580E+02 -1.05306E+04 -8.40318E+03 -1.45417E+03 -1.42400E+04
  7.11285E+03 -9.93070E+03  1.37539E+04 -3.50627E+03  1.31994E+04  2.03201E+03  7.64729E+03  1.08706E+04
  1.86661E+03  1.12540E+04 -4.42905E+03  8.48023E+03 -6.94003E+03  5.82671E+03 -8.15631E+03  1.01255E+02
 -3.45549E+03 -1.27712E+02 -3.65514E+03  1.91748E+03 -4.82553E+03  1.67742E+01 -8.43357E+03 -1.34576E+03
 -8.96728E+03 -6.67625E+03 -4.48997E+03 -1.17800E+04  5.48867E+03 -1.04568E+04  8.68229E+03 -5.93221E+03
  1.04655E+04  2.77004E+03  7.72813E+03  6.28920E+03 -1.55182E+03  1.15582E+04 -7.65981E+03  7.30172E+03
