 $NMID ID='MM_0lb_SNR200_11hz_g50_44.RAW', FMTDAT='(8E13.5)'
 TRAMP=1., VOLUME=1. $END
  3.09317E+05 -8.52925E+01  3.37319E+05  2.51179E+05  8.55273E+04  3.37856E+05 -1.34540E+05  2.50608E+05
 -1.90303E+05  8.44901E+04 -1.12124E+05 -3.18377E+04  5.78990E+02 -5.02869E+04  5.31044E+04  4.13064E+02
  3.63823E+04  5.29246E+04 -1.75896E+04  7.52944E+04 -6.09903E+04  6.36389E+04 -8.50244E+04  3.20173E+04
 -8.25182E+04 -1.21993E+04 -5.79230E+04 -5.20524E+04 -1.40491E+04 -7.11127E+04  2.68605E+04 -4.59021E+04
  3.94570E+04  4.06125E+03  1.75150E+04  4.72784E+04 -3.43566E+04  4.77409E+04 -6.55858E+04  4.58585E+02
 -5.48787E+04 -5.67201E+04 -7.95637E+03 -7.65821E+04  3.41429E+04 -5.62681E+04  4.86366E+04 -1.78391E+04
  4.40074E+04  1.02433E+04  3.08421E+04  2.64244E+04  1.59015E+04  2.98889E+04 -6.11601E+03  2.80273E+04
 -2.25648E+04  1.24179E+04 -1.82726E+04 -6.16077E+03  7.18130E+03 -7.80392E+03  2.23947E+04  1.38524E+04
  6.85294E+03  3.74309E+04 -3.43667E+04  3.64042E+04 -6.52612E+04  1.49110E+03 -5.73279E+04 -4.48765E+04
 -1.28081E+04 -6.45152E+04  4.07700E+04 -4.70409E+04  5.92871E+04 -2.88318E+03  3.59856E+04  3.33983E+04
 -5.43743E+03  3.83864E+04 -3.14368E+04  1.75914E+04 -3.23536E+04 -3.67762E+03 -1.76624E+04 -1.15955E+04
 -8.98995E+03 -1.54990E+04 -1.00495E+03 -1.96304E+04  7.91221E+03 -2.25658E+04  1.56783E+04 -1.28086E+04
  9.68494E+03  5.86528E+03 -8.68568E+03  1.25161E+04 -2.34248E+04 -4.88599E+03 -7.01786E+03 -3.54645E+04
  2.47617E+04 -4.57840E+04  5.08886E+04 -2.02557E+04  4.59892E+04  2.12313E+04  1.63180E+04  4.56172E+04
 -1.57411E+04  3.48920E+04 -2.68706E+04  1.61209E+03 -1.12379E+04 -2.93731E+04  2.17483E+04 -3.50648E+04
  4.32821E+04 -9.78091E+03  3.87478E+04  2.49193E+04  2.02866E+04  4.98309E+04 -7.43832E+03  5.40718E+04
 -3.24906E+04  3.68013E+04 -4.51018E+04  9.74741E+03 -4.55271E+04 -1.75552E+04 -2.40568E+04 -3.93734E+04
  8.02655E+03 -4.07143E+04  3.19749E+04 -1.52164E+04  2.91975E+04  1.09663E+04  5.66357E+03  2.13716E+04
 -1.57413E+04  1.00274E+04 -1.09064E+04 -7.52443E+03  6.44900E+03 -9.61349E+03  1.91468E+04  4.62944E+03
  1.32500E+04  2.24894E+04 -6.17576E+03  2.43751E+04 -2.38164E+04  1.31072E+04 -2.82073E+04 -2.45285E+03
 -2.32169E+04 -1.72962E+04 -1.16694E+04 -2.40612E+04  4.76200E+03 -2.37715E+04  1.80561E+04 -2.07219E+04
  2.97786E+04 -1.38117E+04  3.57193E+04  4.72227E+03  2.48019E+04  2.36566E+04  2.74008E+03  3.98194E+04
 -1.74618E+04  3.17182E+04 -2.94909E+04  1.14015E+04 -2.09781E+04 -1.00521E+04 -5.51545E+03 -1.16929E+04
 -7.44949E+01 -1.67659E+03 -7.41041E+03  8.42090E+03 -1.69682E+04  5.89231E+03 -1.93292E+04 -7.79010E+03
 -1.25128E+04 -2.05760E+04  5.81404E+03 -2.62127E+04  1.71754E+04 -1.79810E+04  2.02720E+04 -1.54481E+03
  1.41071E+04  1.40095E+04 -2.61479E+03  2.16740E+04 -1.57700E+04  1.33073E+04 -2.19886E+04 -5.26865E+03
 -1.58585E+04 -1.96926E+04 -2.27709E+03 -2.60838E+04  1.17053E+04 -2.15530E+04  2.25428E+04 -1.07436E+04
  1.91925E+04  8.72435E+01  1.43825E+04  4.61082E+03  7.35808E+03  8.47651E+02  1.11429E+04 -1.81723E+03
  2.04143E+04  2.76043E+03  2.29087E+04  1.74474E+04  1.61651E+04  3.51112E+04 -3.05225E+03  4.03826E+04
 -2.38302E+04  3.26121E+04 -3.85768E+04  1.84304E+04 -3.98135E+04 -2.45793E+03 -3.21175E+04 -2.34527E+04
 -1.19650E+04 -3.26692E+04  1.14872E+04 -3.02046E+04  2.77239E+04 -1.47086E+04  2.01036E+04  6.82612E+03
  7.43816E+03  1.83295E+04 -1.18627E+04  1.43895E+04 -1.87847E+04  2.99320E+03 -1.37044E+04 -1.09189E+04
  5.61113E+02 -1.78927E+04  8.94480E+03 -1.33826E+04  1.31044E+04 -2.63242E+03  2.18682E+03  8.27794E+03
 -8.97610E+03  2.28611E+03 -9.09010E+03 -7.34631E+03 -2.47797E+03 -1.65482E+04  1.16553E+04 -1.73293E+04
  2.07931E+04 -1.03098E+04  2.20450E+04  3.80419E+03  1.92691E+04  1.61859E+04  8.87163E+03  2.34143E+04
 -3.58729E+03  2.73606E+04 -1.86972E+04  1.62044E+04 -2.01265E+04  4.41865E+03 -1.30225E+04 -4.72560E+03
 -4.56576E+03 -5.28348E+03  3.88434E+02 -3.34137E+02 -3.26239E+03  3.85782E+03 -6.89642E+03  4.84389E+03
 -1.18218E+04 -2.02389E+03 -1.27866E+04 -1.08382E+04 -5.02936E+03 -1.85690E+04  4.51547E+03 -1.41021E+04
  1.24944E+04 -5.63000E+03  7.48161E+03  3.38994E+03  9.34315E+01  5.98533E+03 -6.20451E+03  1.26155E+03
 -7.48405E+03 -8.12804E+03 -1.71406E+03 -1.36338E+04  7.35237E+03 -1.48209E+04  1.59696E+04 -9.26067E+03
  2.13638E+04  3.39439E+03  1.46681E+04  1.26597E+04  3.01002E+03  1.68032E+04 -7.89426E+03  1.34695E+04
 -1.27781E+04  3.42260E+03 -6.14373E+03 -3.19539E+03  1.66490E+03 -4.17045E+03  6.36015E+03 -7.00533E+02
  6.26832E+03  6.10494E+03  1.39705E+03  1.15800E+04 -7.21858E+03  1.01221E+04 -1.45884E+04  2.93612E+03
 -8.90333E+03 -6.63293E+03 -2.45402E+02 -1.14098E+04  8.03522E+03 -5.71453E+03  7.62361E+03  1.80502E+03
  7.23736E+01  8.57774E+03 -6.99875E+03  9.77466E+03 -1.03335E+04  4.92412E+03 -1.09370E+04 -2.61358E+03
 -7.32465E+03 -1.42984E+04  2.45188E+03 -1.65065E+04  1.38455E+04 -8.29228E+03  1.34648E+04  4.13789E+03
  8.35935E+03  1.17744E+04  2.72966E+02  1.41292E+04 -1.01886E+04  8.20282E+03 -9.88133E+03 -1.82567E+03
 -9.95727E+03 -9.41839E+03 -1.49936E+03 -8.77758E+03  5.89054E+03 -8.53528E+03  7.72441E+03 -4.10876E+03
  4.90506E+03  2.43123E+03 -1.46933E+03  4.47850E+02 -1.30990E+02 -1.23496E+03  7.04466E+02 -5.77200E+03
  1.01996E+04 -3.77232E+03  1.31990E+04  1.98204E+03  1.44944E+04  9.78213E+03  8.30265E+03  1.59277E+04
 -2.07187E+03  1.94361E+04 -1.60800E+04  1.32277E+04 -2.15737E+04  2.24842E+03 -1.67069E+04 -7.65202E+03
 -9.67161E+03 -1.46800E+04 -4.03911E+02 -1.21401E+04  5.11395E+03 -7.26487E+03  3.96899E+03 -3.94876E+03
  3.59422E+03 -1.53710E+03  3.60227E+03 -3.50238E+03  5.88285E+03 -3.99373E+03  7.64931E+03 -6.04362E+02
  9.67562E+03  1.35098E+03  3.85922E+03  8.59240E+03 -2.23415E+03  8.78817E+03 -1.02116E+04  8.31160E+03
 -1.16720E+04 -1.39066E+03 -6.30424E+03 -9.51916E+03 -4.90423E+01 -1.28463E+04  8.48163E+03 -1.18385E+04
  1.30283E+04 -7.16317E+03  1.46496E+04  2.25330E+03  1.14738E+04  1.10512E+04  2.51321E+03  1.49144E+04
 -6.74971E+03  1.16418E+04 -7.91309E+03  3.86380E+03 -5.22865E+03 -1.65245E+03 -2.54619E+03 -1.38635E+03
 -2.29649E+03  6.81187E+02 -3.07505E+03  1.89730E+03 -4.13631E+03  1.58594E+03 -7.54240E+03  1.54991E+02
 -5.62498E+03 -8.10197E+03 -1.35265E+03 -1.29202E+04  7.07333E+03 -1.10769E+04  1.14844E+04 -2.75679E+03
  1.23522E+04  6.43325E+03  5.33878E+03  9.87977E+03 -2.20312E+03  1.16904E+04 -8.82400E+03  7.34254E+03
 -1.15682E+04  9.50654E+02 -8.52729E+03 -6.71995E+03 -4.91006E+02 -9.87875E+03  5.35883E+03 -6.84290E+03
  7.75061E+03 -2.11559E+03  3.97617E+03  9.12835E+02  3.18177E+03  4.09768E+03  1.19491E+03  1.09540E+03
  1.98402E+03  4.65648E+02  2.90766E+03  3.10951E+03  3.83886E+03  3.91442E+03  3.67467E+03  5.67362E+03
 -2.37367E+02  9.19180E+03 -8.18959E+03  9.13527E+03 -1.21417E+04  1.56805E+03 -1.23595E+04 -4.82837E+03
 -5.45296E+03 -1.24994E+04  1.89751E+03 -1.53346E+04  7.06923E+03 -7.75062E+03  9.56307E+03 -2.37918E+03
  8.02236E+03  3.27347E+03  1.14660E+03  6.31075E+03 -3.76841E+03  3.51441E+03 -3.46009E+03 -1.10600E+03
 -2.05808E+03 -5.27163E+03  3.22769E+03 -3.52438E+03  4.14796E+03 -2.05342E+03  4.16589E+03  2.35651E+02
  2.12886E+03  2.83206E+03 -5.84287E+02  1.68870E+03 -1.52911E+03  2.36313E+03  2.91993E+03 -1.39982E+01
  7.41414E+02  3.16976E+02  5.16912E+03  2.85656E+03  2.66283E+03  6.87427E+03  3.94371E+01  8.32315E+03
 -6.10037E+03  4.51481E+03 -7.16928E+03  9.43301E+02 -6.58019E+03 -2.43030E+03 -2.20742E+03 -4.23299E+03
  7.54285E+02 -3.64056E+03  2.53300E+03 -2.62614E+03  1.78539E+03  2.20357E+03 -1.32062E+03  3.22661E+03
 -5.92572E+03  2.14613E+03 -5.12234E+03 -3.63136E+03 -5.00688E+03 -6.45532E+03 -1.82361E+01 -5.35005E+03
  3.80617E+03 -4.98583E+03  4.96366E+03  7.86433E+00  4.58829E+03  3.72198E+02  1.49222E+03  3.01701E+03
 -2.11242E+03  2.10436E+03 -2.64748E+03 -4.15190E+03  9.57660E+02 -3.58639E+03  4.72501E+03 -4.44214E+03
  6.82614E+03  1.68231E+03  7.37830E+03  2.78342E+03  1.71755E+03  6.05546E+03 -2.81824E+03  6.26347E+03
 -6.04718E+03  2.49183E+03 -5.76868E+03  4.01663E+02 -3.79086E+03 -5.60902E+03  1.14831E+03 -3.77989E+03
  3.76471E+03 -2.56033E+03  2.92035E+03  1.21823E+03  1.71119E+03  3.92326E+03 -5.41620E+02  3.95545E+03
 -1.36725E+03  2.91150E+03 -6.19986E+02  2.78231E+01 -2.26099E+03  8.19387E+02 -2.17500E+03  2.75320E+03
 -1.76172E+03  2.37964E+03 -5.94723E+03  1.07725E+03 -5.89958E+03 -1.41891E+03 -9.43898E+03 -5.43449E+03
 -4.46396E+03 -9.83683E+03  7.53134E+02 -1.16458E+04  6.75856E+03 -8.58437E+03  9.92204E+03 -2.84875E+03
  1.18028E+04  2.88950E+03  5.64113E+03  5.44925E+03  1.45366E+03  7.68999E+03 -4.08422E+03  6.33799E+03
 -5.87443E+03  2.67771E+03 -1.77192E+03 -1.82297E+03 -2.08686E+03  1.17807E+03 -1.13157E+03  4.71422E+02
 -1.46625E+03 -1.72354E+02 -9.81158E+02  3.55866E+02 -4.47475E+00 -1.76265E+03 -1.47125E+03 -2.47060E+03
  3.05204E+03 -1.51542E+03  4.60128E+03 -1.42449E+02  4.05047E+03  4.09390E+03  2.58839E+03  7.29066E+03
 -3.92557E+03  7.78917E+03 -7.94873E+03  4.91104E+03 -8.43478E+03  5.13198E+02 -7.00478E+03 -5.17537E+03
 -3.36892E+03 -7.23637E+03  1.77014E+03 -6.53804E+03  5.58398E+03 -3.33284E+03  3.77966E+03  1.18720E+03
  3.12438E+03  5.32150E+02  2.16868E+03  1.99687E+03 -3.33879E+01  2.31416E+02 -1.12239E+03 -1.93085E+03
  1.28716E+03 -1.85993E+03  1.50490E+03  8.31837E+02  1.81829E+03  3.25614E+03  1.67044E+03  3.93391E+03
 -3.68977E+03  3.94020E+03 -5.55953E+03  3.07540E+02 -3.96130E+03 -3.05111E+03 -9.79590E+02 -6.23204E+03
  3.08055E+03 -5.20499E+03  5.04184E+03 -2.46150E+03  4.31744E+03  1.68467E+03  3.40446E+03  4.31286E+03
  8.32244E+02  4.18766E+03 -1.82361E+03  3.39297E+03 -2.66596E+03  1.46566E+03 -1.44640E+03  9.23759E+02
 -1.70853E+03  6.77721E+02 -1.58229E+03  6.64112E+02 -2.81011E+03  1.49803E+03 -3.81748E+03 -1.19464E+03
 -3.33570E+03 -8.00177E+02 -1.39288E+03 -5.67217E+03  2.03873E+03 -5.45761E+03  4.43496E+03 -2.65698E+03
  6.16532E+03 -3.57015E-01  2.06174E+03  2.79269E+03 -9.93556E+02  4.57716E+03 -3.88913E+03  2.14253E+03
