 $NMID ID='MM_0lb_SNR200_13hz_g50_45.RAW', FMTDAT='(8E13.5)'
 TRAMP=1., VOLUME=1. $END
  3.09304E+05  4.74775E+02  3.37040E+05  2.50853E+05  8.52852E+04  3.38970E+05 -1.32481E+05  2.50638E+05
 -1.89602E+05  8.27695E+04 -1.11597E+05 -3.20069E+04  1.33760E+03 -5.15362E+04  5.31676E+04 -3.66419E+02
  3.53976E+04  5.18855E+04 -1.66995E+04  7.67860E+04 -6.10272E+04  6.33653E+04 -8.44331E+04  3.18400E+04
 -8.09815E+04 -1.02322E+04 -5.64372E+04 -5.16683E+04 -1.59392E+04 -6.99593E+04  2.77242E+04 -4.69769E+04
  3.96051E+04  4.14160E+03  1.67414E+04  4.70273E+04 -3.43897E+04  4.72474E+04 -6.82481E+04 -2.68528E+02
 -5.48239E+04 -5.75852E+04 -7.57733E+03 -7.70453E+04  3.26081E+04 -5.48388E+04  4.89512E+04 -1.77897E+04
  4.37117E+04  1.22249E+04  3.24005E+04  2.47031E+04  1.67987E+04  2.98535E+04 -4.93026E+03  2.63879E+04
 -2.12581E+04  1.07128E+04 -1.78355E+04 -5.49482E+03  5.44089E+03 -8.11077E+03  2.34875E+04  1.13285E+04
  7.09654E+03  3.63755E+04 -3.28226E+04  3.55067E+04 -6.30818E+04  1.38587E+03 -5.76200E+04 -4.37999E+04
 -1.13886E+04 -6.42758E+04  4.10039E+04 -4.70641E+04  5.75733E+04 -2.65186E+03  3.54895E+04  3.22133E+04
 -5.61789E+03  3.61582E+04 -2.91225E+04  1.72042E+04 -3.14887E+04 -4.84167E+03 -1.74321E+04 -1.14013E+04
 -9.29350E+03 -1.35943E+04  7.87716E+01 -1.85893E+04  8.71408E+03 -2.33889E+04  1.56131E+04 -1.30362E+04
  1.07231E+04  6.02123E+03 -8.32883E+03  1.22135E+04 -2.15994E+04 -5.15907E+03 -7.33138E+03 -3.53922E+04
  2.34651E+04 -4.33528E+04  4.98716E+04 -2.07250E+04  4.52227E+04  2.00027E+04  1.60763E+04  4.40095E+04
 -1.61281E+04  3.44530E+04 -2.52960E+04  1.05907E+03 -1.06757E+04 -2.78899E+04  2.11929E+04 -3.42242E+04
  4.16934E+04 -9.90437E+03  3.70434E+04  2.46094E+04  1.82991E+04  4.76399E+04 -7.49404E+03  5.15419E+04
 -3.32766E+04  3.42170E+04 -4.38800E+04  9.83299E+03 -4.48248E+04 -1.68984E+04 -2.32352E+04 -3.99098E+04
  8.34231E+03 -3.89739E+04  3.23112E+04 -1.55576E+04  3.10651E+04  1.18998E+04  4.92485E+03  1.97245E+04
 -1.32000E+04  8.68234E+03 -1.04853E+04 -7.17417E+03  6.17047E+03 -1.07021E+04  1.62728E+04  6.07422E+03
  1.27382E+04  2.13520E+04 -6.31787E+03  2.66365E+04 -2.23830E+04  1.18502E+04 -2.76868E+04 -5.18829E+03
 -2.11305E+04 -1.80290E+04 -1.02446E+04 -2.19328E+04  5.09424E+03 -2.14473E+04  1.73382E+04 -1.89977E+04
  2.64900E+04 -1.26773E+04  3.40519E+04  4.13267E+03  2.42710E+04  2.11893E+04  3.77265E+03  3.74549E+04
 -1.91390E+04  3.12813E+04 -2.73111E+04  1.05264E+04 -2.01205E+04 -1.15902E+04 -5.17482E+03 -1.34721E+04
  1.23869E+03 -1.71820E+03 -5.03530E+03  7.70271E+03 -1.59630E+04  5.54158E+03 -1.80162E+04 -9.15241E+03
 -9.51528E+03 -1.92226E+04  4.42505E+03 -2.45360E+04  1.57858E+04 -1.74227E+04  2.01030E+04 -1.70908E+03
  1.21544E+04  1.38042E+04 -2.19888E+02  2.17004E+04 -1.34418E+04  1.16806E+04 -2.05423E+04 -4.30404E+03
 -1.53636E+04 -1.79803E+04 -1.75523E+03 -2.50844E+04  1.06091E+04 -1.82938E+04  2.08128E+04 -1.06649E+04
  1.68777E+04  3.73422E+02  1.25535E+04  5.04466E+03  6.10346E+03 -6.90208E+01  8.96101E+03 -2.88975E+03
  1.76729E+04  2.87678E+03  1.97534E+04  1.62453E+04  1.38906E+04  3.28985E+04 -3.18855E+03  3.64640E+04
 -2.08325E+04  2.87901E+04 -3.43908E+04  1.48278E+04 -3.48113E+04 -2.09856E+03 -2.94772E+04 -2.04848E+04
 -1.34407E+04 -3.05235E+04  1.09563E+04 -2.62052E+04  2.20196E+04 -1.24423E+04  2.05010E+04  5.54935E+03
  6.86685E+03  1.40672E+04 -9.90694E+03  1.29206E+04 -1.62792E+04  4.11388E+03 -1.43179E+04 -1.03870E+04
  9.22814E+02 -1.68676E+04  8.73806E+03 -1.09872E+04  1.15010E+04 -9.47732E+02  2.10127E+03  6.50879E+03
 -6.39322E+03  2.44623E+03 -6.39415E+03 -6.35706E+03 -1.33080E+03 -1.36321E+04  9.35247E+03 -1.47268E+04
  1.86793E+04 -7.94636E+03  1.92986E+04  3.34048E+03  1.68443E+04  1.57016E+04  6.58425E+03  2.20952E+04
 -4.41140E+03  2.38976E+04 -1.52770E+04  1.55843E+04 -1.76641E+04  3.15859E+03 -1.07207E+04 -1.91880E+03
 -4.01410E+03 -4.66943E+03 -8.55287E+02  1.71081E+03 -2.29346E+03  1.96840E+03 -5.56066E+03  5.74310E+03
 -1.00347E+04 -1.43780E+03 -1.21181E+04 -1.04506E+04 -5.37246E+03 -1.51451E+04  5.45148E+03 -1.24767E+04
  1.07245E+04 -5.41416E+03  7.81396E+03  3.10060E+03  1.78007E+02  4.34827E+03 -5.73597E+03 -3.52253E+02
 -4.76724E+03 -6.22511E+03 -1.64200E+03 -1.11768E+04  6.15068E+03 -1.35262E+04  1.41907E+04 -5.38673E+03
  1.83262E+04  3.30861E+02  1.32512E+04  1.15304E+04  2.82701E+03  1.48884E+04 -7.80296E+03  1.19710E+04
 -1.07002E+04  3.51218E+03 -6.05628E+03 -2.17760E+03  1.29089E+03 -3.98062E+03  5.37882E+03 -2.38495E+03
  5.00735E+03  4.93326E+03  1.68979E+03  1.02871E+04 -7.40110E+03  9.03188E+03 -1.02964E+04  2.25283E+03
 -7.21372E+03 -5.00979E+03 -6.34821E+02 -1.03779E+04  6.65466E+03 -6.58410E+03  6.36920E+03  2.46038E+03
  2.10735E+03  6.31013E+03 -4.18378E+03  7.80569E+03 -9.28624E+03  5.02920E+03 -7.64565E+03 -2.44555E+03
 -5.61281E+03 -1.06157E+04  3.29799E+03 -1.17011E+04  9.70453E+03 -8.05282E+03  1.11565E+04  1.90782E+03
  7.39260E+03  9.00587E+03  1.32427E+02  9.94590E+03 -7.66042E+03  6.27022E+03 -7.96365E+03 -2.01190E+03
 -7.83430E+03 -8.65415E+03 -2.39796E+03 -9.07750E+03  4.22860E+03 -7.56247E+03  5.91205E+03 -3.84673E+03
  4.46907E+03  1.79892E+03 -1.59365E+03  2.28136E+03  7.47539E+02 -2.32821E+03  5.38582E+02 -4.51829E+03
  7.82402E+03 -2.42660E+03  1.06371E+04  4.58106E+02  9.68162E+03  7.16183E+03  8.29037E+03  1.42166E+04
 -2.15818E+03  1.68514E+04 -1.38291E+04  1.14201E+04 -1.74015E+04  1.60177E+03 -1.36466E+04 -6.27344E+03
 -8.02381E+03 -1.17713E+04  5.05607E+02 -9.91295E+03  3.88366E+03 -5.11050E+03  3.73377E+03 -3.11096E+03
  3.42513E+03 -3.07215E+03  4.79115E+03 -2.66637E+03  4.20443E+03 -3.51531E+03  5.84272E+03 -5.85145E+02
  8.10618E+03  1.34020E+03  2.90795E+03  6.52378E+03 -1.22654E+03  6.54560E+03 -6.34329E+03  5.09650E+03
 -9.22525E+03 -2.92359E+03 -6.93383E+03 -5.99063E+03 -3.71939E+01 -1.08560E+04  5.26567E+03 -9.20855E+03
  1.03032E+04 -5.62038E+03  1.23295E+04  8.12859E+01  8.93832E+03  9.52482E+03  9.04151E+02  1.08648E+04
 -3.03815E+03  1.01995E+04 -6.17115E+03  3.48392E+03 -4.60269E+03 -2.66003E+03  6.94035E+01 -1.60891E+03
 -3.81476E+02 -3.72968E+02 -2.88890E+03  2.30537E+03 -4.19032E+03  2.60689E+03 -7.37203E+03 -1.86982E+03
 -4.19332E+03 -7.35318E+03 -5.67001E+02 -9.82603E+03  6.77555E+03 -9.02536E+03  9.07494E+03 -2.82203E+03
  7.83501E+03  4.94901E+03  4.39990E+03  7.97580E+03 -2.05107E+03  8.21627E+03 -5.23274E+03  5.72856E+03
 -7.19105E+03  2.26391E+02 -5.82748E+03 -4.51452E+03 -9.01416E+02 -6.81995E+03  3.46417E+03 -5.73290E+03
  7.22551E+03 -1.26832E+03  3.91952E+03  5.30527E+01  1.90999E+03  3.00803E+03  3.33547E+02  8.97700E+02
  2.74619E+03  5.58657E+02  1.47169E+03  2.03805E+03  1.43399E+03  3.79362E+03  2.67269E+03  4.62790E+03
 -1.81683E+03  5.93564E+03 -6.12406E+03  7.79975E+03 -8.46839E+03  2.22338E+03 -7.76207E+03 -2.92886E+03
 -4.07676E+03 -8.33768E+03  1.27335E+03 -1.04864E+04  5.14627E+03 -6.38546E+03  8.21483E+03 -1.78405E+03
  6.39558E+03  1.80806E+03  2.50987E+03  4.44320E+03 -2.65422E+03  2.78925E+03 -3.21193E+03 -1.49162E+02
 -5.78236E+02 -4.11114E+03  1.19345E+03 -3.53813E+03  3.25084E+03 -3.37763E+03  2.70098E+03  1.71887E+02
  3.36691E+03  2.34084E+03 -3.72954E+02  1.18585E+03  6.28352E+02  2.56486E+03  1.59671E+03 -8.67547E+02
  7.17306E+02 -3.80454E+02  4.35069E+03  1.53056E+03  7.26065E+02  4.51603E+03 -1.50380E+03  7.25489E+03
 -3.88769E+03  4.75740E+03 -5.73414E+03  6.33353E+02 -4.34927E+03 -1.77540E+03 -1.44473E+03 -2.89876E+03
  9.60426E+02 -2.42137E+03  2.50010E+03 -1.30104E+03  1.75199E+03  2.73244E+03 -2.14555E+03  2.88865E+03
 -3.00672E+03  1.82524E+03 -3.84898E+03 -2.35322E+03 -1.94762E+03 -5.09807E+03  5.34796E+02 -3.76754E+03
  3.03764E+03 -1.94146E+03  2.99960E+03  5.63001E+02  1.63950E+03  5.67160E+02  7.98457E+02  2.65546E+03
 -2.04314E+03  9.09187E+02 -1.46772E+03 -1.29776E+03  1.43421E+03 -1.38036E+03  3.55969E+03 -2.22968E+03
  5.88095E+03 -9.68392E+02  4.44276E+03  4.20561E+03  2.37116E+03  5.13821E+03 -2.35110E+03  5.62842E+03
 -4.55782E+03  8.50386E+02 -4.38919E+03 -4.18811E+02 -2.58272E+03 -2.60820E+03  5.62900E+02 -3.82655E+03
  3.61205E+03 -1.21353E+03  1.62451E+03  1.77831E+03  5.39445E+02  3.79873E+03  2.60720E+02  2.42613E+03
 -1.71348E+03  1.61747E+03 -5.48616E+02  1.18514E+02  2.99708E+02  7.21645E+02 -1.91806E+03  1.35585E+03
 -3.01890E+03  1.97360E+03 -3.94973E+03  1.37222E+03 -4.23744E+03  2.91747E+02 -5.07485E+03 -2.94465E+03
 -3.01724E+03 -6.51262E+03  1.76729E+03 -7.86931E+03  4.47035E+03 -5.94982E+03  7.42276E+03 -3.19491E+03
  7.72968E+03  7.83791E+02  4.36043E+03  2.93810E+03  2.17419E+02  6.27447E+03 -1.73626E+03  4.45914E+03
 -2.07492E+03  1.24870E+03 -2.12634E+03 -1.39019E+03 -7.52195E+02 -1.27504E+03 -2.26959E+02  1.00214E+02
 -1.56450E+03  4.94078E+02 -1.40259E+03  5.06479E+02  3.29846E+02 -8.80750E+02  1.29342E+03 -1.26029E+03
  3.15620E+03 -6.84737E+02  2.21182E+03 -1.31632E+02  3.36903E+03  1.16722E+03  1.25824E+03  5.22086E+03
 -3.20150E+03  6.93411E+03 -6.21571E+03  4.51876E+03 -6.70839E+03 -1.11851E+03 -4.71127E+03 -5.08125E+03
 -3.42245E+03 -4.88203E+03  1.36641E+03 -3.37535E+03  2.07601E+03 -2.92067E+03  3.31033E+03 -1.46956E+02
  7.34003E+02  1.06371E+03 -1.57388E+02  1.41776E+03  3.04478E+02  3.64389E+02 -1.16646E+03 -3.13298E+02
  1.58490E+03 -1.40720E+03  1.23288E+03  8.17645E+01  8.57393E+02  2.15206E+03  5.65893E+02  2.92871E+03
 -2.36414E+03  1.41819E+03 -1.27826E+03  5.32783E+02 -2.61764E+03 -3.35405E+03  2.20614E+02 -4.02413E+03
  1.15617E+03 -3.14455E+03  2.48410E+03 -1.69818E+02  3.15058E+03  2.68033E+02  1.92901E+03  2.32782E+03
  9.48001E+02  1.80530E+03 -2.23905E+03  2.59744E+03 -1.87655E+03 -3.30777E+02 -1.66182E+03 -8.91681E+02
 -1.58554E+03 -4.25218E+02 -1.14792E+03  2.58818E+02 -2.36467E+03  2.53363E+02 -3.15486E+03 -1.34997E+03
 -3.31899E+03 -1.82735E+03 -2.72907E+02 -3.39258E+03  1.96311E+03 -4.29501E+03  2.31625E+03 -2.09810E+03
  4.00619E+03 -4.21813E+02  1.70052E+03  3.25948E+01  9.93724E+02  2.53469E+03 -2.34678E+03  1.41410E+03
