 $NMID ID='MM_0lb_SNR200_16hz_g50_83.RAW', FMTDAT='(8E13.5)'
 TRAMP=1., VOLUME=1. $END
  3.10097E+05  6.08954E+02  3.37374E+05  2.49534E+05  8.45039E+04  3.37798E+05 -1.32856E+05  2.51517E+05
 -1.89573E+05  8.24519E+04 -1.11574E+05 -3.24283E+04  1.05213E+03 -5.13444E+04  5.56991E+04  5.63699E+02
  3.49493E+04  5.31455E+04 -1.69315E+04  7.49103E+04 -6.05737E+04  6.31453E+04 -8.45902E+04  3.19768E+04
 -8.13487E+04 -1.12905E+04 -5.74607E+04 -5.11930E+04 -1.58225E+04 -6.85132E+04  2.64709E+04 -4.44463E+04
  4.07622E+04  3.51643E+03  1.59296E+04  4.76884E+04 -3.41187E+04  4.67820E+04 -6.73408E+04 -1.08780E+03
 -5.36378E+04 -5.49742E+04 -7.22085E+03 -7.62434E+04  3.43448E+04 -5.48056E+04  4.69579E+04 -1.70768E+04
  4.29573E+04  1.18593E+04  3.27548E+04  2.48634E+04  1.59491E+04  2.85425E+04 -4.44548E+03  2.67382E+04
 -2.23165E+04  1.17736E+04 -2.01904E+04 -4.26502E+03  4.53818E+03 -7.54233E+03  2.17095E+04  1.28115E+04
  7.72176E+03  3.44606E+04 -3.13614E+04  3.40782E+04 -6.18156E+04  2.66321E+03 -5.77274E+04 -4.33137E+04
 -1.23946E+04 -6.12025E+04  3.86233E+04 -4.43861E+04  5.85628E+04 -1.55642E+03  3.31680E+04  3.21756E+04
 -5.88338E+03  3.57842E+04 -2.86573E+04  1.46409E+04 -2.88544E+04 -3.73218E+03 -1.59111E+04 -1.02293E+04
 -8.09935E+03 -1.17398E+04 -7.20297E+02 -1.75105E+04  6.70834E+03 -2.23996E+04  1.60315E+04 -1.47681E+04
  1.15388E+04  5.66550E+03 -6.79971E+03  1.28440E+04 -2.09547E+04 -4.14804E+03 -8.17676E+03 -3.35118E+04
  2.28554E+04 -4.34498E+04  4.74581E+04 -2.06088E+04  4.41849E+04  2.02413E+04  1.58962E+04  4.37970E+04
 -1.57380E+04  3.23016E+04 -2.43356E+04  1.73965E+03 -1.01678E+04 -2.77665E+04  2.20625E+04 -3.25633E+04
  3.95183E+04 -8.06311E+03  3.42009E+04  2.15650E+04  1.65293E+04  4.50345E+04 -8.40070E+03  4.78213E+04
 -3.06099E+04  3.15099E+04 -3.92196E+04  9.52148E+03 -4.20182E+04 -1.62335E+04 -2.22934E+04 -3.67506E+04
  6.92081E+03 -3.65576E+04  3.15256E+04 -1.43608E+04  2.73508E+04  1.02584E+04  3.89169E+03  1.76403E+04
 -1.35175E+04  8.07160E+03 -1.00927E+04 -7.75680E+03  5.42259E+03 -9.29300E+03  1.78821E+04  5.68939E+03
  1.32636E+04  2.20949E+04 -6.28334E+03  2.48170E+04 -2.24779E+04  1.04998E+04 -2.75589E+04 -5.94044E+03
 -1.89807E+04 -1.66149E+04 -7.37740E+03 -1.82902E+04  4.18791E+03 -1.77456E+04  1.40688E+04 -1.59860E+04
  2.24558E+04 -1.32020E+04  3.02012E+04  2.74459E+03  2.35107E+04  1.91339E+04  4.58704E+03  3.61282E+04
 -1.67843E+04  2.92560E+04 -2.77554E+04  1.03522E+04 -2.04245E+04 -9.95953E+03 -4.16102E+03 -1.38639E+04
  9.81750E+02 -3.70303E+03 -4.62298E+03  5.43180E+03 -1.57902E+04  4.81089E+03 -1.44152E+04 -7.11068E+03
 -8.60178E+03 -1.82809E+04  5.90977E+03 -2.08780E+04  1.45841E+04 -1.58738E+04  1.66115E+04 -4.41000E+02
  1.08807E+04  1.24798E+04 -1.15669E+03  1.66283E+04 -1.22754E+04  1.02627E+04 -1.75760E+04 -3.76708E+03
 -1.29653E+04 -1.45349E+04 -1.21708E+03 -2.03393E+04  1.01740E+04 -1.68134E+04  1.74441E+04 -8.54732E+03
  1.63584E+04 -5.75988E+01  1.18208E+04  4.58360E+03  6.05816E+03  1.12014E+03  8.62447E+03 -1.02139E+03
  1.60825E+04  2.73544E+03  1.74718E+04  1.43222E+04  1.07785E+04  2.80792E+04 -3.68147E+03  3.04953E+04
 -1.76603E+04  2.49389E+04 -2.84254E+04  1.20106E+04 -2.95442E+04 -2.16291E+03 -2.47330E+04 -1.60098E+04
 -1.10757E+04 -2.43940E+04  8.24659E+03 -2.26385E+04  2.03963E+04 -1.16236E+04  1.80451E+04  4.88234E+03
  6.34350E+03  1.29759E+04 -8.85878E+03  1.29315E+04 -1.48007E+04  3.35401E+03 -1.13996E+04 -9.38935E+03
 -7.90320E+02 -1.42428E+04  7.16303E+03 -1.12267E+04  9.87846E+03 -1.23934E+03  1.52559E+03  7.53973E+03
 -5.85454E+03  2.39653E+03 -5.88715E+03 -4.89987E+03  2.46840E+02 -1.07315E+04  7.83090E+03 -1.29231E+04
  1.51732E+04 -5.95666E+03  1.49163E+04  3.56163E+03  1.27651E+04  1.07164E+04  7.06356E+03  1.80930E+04
 -2.39895E+03  1.96754E+04 -1.22472E+04  1.25069E+04 -1.38887E+04  2.26338E+03 -9.87941E+03 -2.75349E+03
 -3.95268E+03 -3.78514E+03 -3.85304E+02  5.27561E+02 -2.15885E+03  2.13273E+03 -4.00791E+03  4.20195E+03
 -9.37770E+03 -1.85801E+03 -1.04748E+04 -8.22948E+03 -2.88878E+03 -1.35406E+04  4.01759E+03 -1.11376E+04
  8.15289E+03 -5.90993E+03  6.28204E+03  2.53819E+03 -3.31957E+02  3.34128E+03 -4.72460E+03  5.58486E+01
 -5.54169E+03 -6.42983E+03 -1.03231E+03 -1.05772E+04  5.83091E+03 -8.52928E+03  1.18792E+04 -6.10327E+03
  1.49880E+04  4.79667E+02  9.99441E+03  7.61045E+03  2.22494E+03  9.64983E+03 -5.97078E+03  1.00512E+04
 -9.26937E+03  4.11646E+03 -3.15864E+03 -3.45350E+03  4.61905E+02 -2.42659E+03  4.36125E+03 -2.22784E+03
  5.20546E+03  4.32919E+03  1.17912E+03  7.98884E+03 -5.30308E+03  7.00797E+03 -8.87362E+03  3.38043E+03
 -5.53454E+03 -5.39019E+03  7.33090E+02 -8.49753E+03  4.45674E+03 -4.56688E+03  4.51382E+03  1.05210E+03
  1.20707E+03  4.23384E+03 -5.63103E+03  5.72356E+03 -5.77563E+03  3.54190E+03 -6.84634E+03 -6.91962E+02
 -3.76471E+03 -7.74337E+03  1.93347E+03 -9.76538E+03  7.89462E+03 -6.18571E+03  9.16415E+03  1.71458E+03
  6.22154E+03  6.59870E+03 -9.02230E+02  9.02418E+03 -6.68858E+03  5.87802E+03 -6.86343E+03 -1.25432E+03
 -7.49696E+03 -5.77461E+03 -8.42310E+02 -5.67235E+03  3.68919E+03 -5.87889E+03  3.48042E+03 -3.25939E+03
  2.86638E+03  3.66153E+02 -3.70911E+02  2.08987E+03  7.67959E+02 -1.08925E+03  8.81120E+02 -2.52172E+03
  5.52183E+03 -1.99967E+03  7.40212E+03  1.07172E+03  8.04246E+03  5.31482E+03  6.15638E+03  1.02282E+04
 -1.46968E+03  1.07694E+04 -1.02121E+04  9.35022E+03 -1.25847E+04  6.38074E+02 -1.07560E+04 -4.61226E+03
 -4.72811E+03 -8.54887E+03 -6.07834E+01 -7.29840E+03  2.99927E+03 -4.02599E+03  1.33618E+03 -3.10909E+03
  1.35770E+03 -1.59835E+03  2.16870E+03 -3.29109E+03  4.34616E+03 -1.61226E+03  5.14844E+03  4.29194E+02
  5.66181E+03  9.62024E+02  9.63831E+02  4.15595E+03 -8.97764E+02  4.58392E+03 -5.53236E+03  3.94804E+03
 -6.64469E+03 -1.84631E+03 -2.77010E+03 -4.90548E+03  1.69194E+02 -5.14576E+03  4.74397E+03 -7.38656E+03
  9.53153E+03 -4.72922E+03  9.62536E+03  4.92333E+02  7.88498E+03  6.72807E+03  1.17363E+03  7.95519E+03
 -2.74862E+03  7.87404E+03 -3.40373E+03  1.98558E+03 -3.53919E+03 -1.14725E+03  6.77339E+01 -8.57102E+02
 -1.39957E+03  3.96353E+02 -1.90978E+03  2.50351E+03 -3.11497E+03  1.08744E+03 -6.20696E+03 -2.93950E+02
 -1.68540E+03 -5.24090E+03  1.68549E+03 -5.60391E+03  2.57188E+03 -5.59256E+03  4.20220E+03 -3.54063E+02
  6.13950E+03  2.86435E+03  1.26910E+03  5.77453E+03 -9.33094E+02  6.79459E+03 -3.91500E+03  4.18728E+03
 -4.89907E+03  1.18944E+03 -4.74573E+03 -3.88289E+03 -1.65458E+03 -4.04538E+03  1.74248E+03 -3.35219E+03
  4.61200E+03 -4.95163E+02  2.46136E+03  1.06377E+03  1.80602E+03  1.88769E+03  2.62544E+02  1.23303E+03
  2.60342E+03  6.81616E+02  2.19578E+03  1.51183E+03  1.08365E+03  2.88081E+03  8.80223E+02  2.36504E+03
 -1.18077E+03  3.94132E+03 -4.02194E+03  5.85085E+03 -5.07641E+03  2.37425E+03 -6.00486E+03 -2.03661E+03
 -2.64143E+03 -5.84440E+03  2.27014E+03 -7.15534E+03  3.63534E+03 -4.73987E+03  4.99105E+03 -1.88625E+03
  3.43264E+03  1.21695E+03  5.41878E+02  3.98788E+03 -3.81128E+02  1.78772E+03 -2.01983E+03 -4.18278E+02
 -1.53086E+03 -2.77257E+03  1.71718E+03 -3.01121E+03  2.28892E+03 -1.75158E+03  2.85099E+03  8.66545E+02
  1.63407E+03  3.10878E+02  1.25391E+03 -1.27846E+03 -2.05615E+02  7.96023E+02  9.13742E+02 -3.45438E+02
  5.12229E+02  7.56419E+01  2.20290E+03  8.91497E+02  1.84330E+03  2.92498E+03 -1.45331E+03  4.88205E+03
 -2.58254E+03  1.18176E+03 -3.14786E+03 -1.56254E+02 -3.61914E+03 -9.88817E+02 -5.68721E+02 -1.41846E+03
  1.13191E+02 -1.94858E+03  1.68960E+03 -1.32047E+03  2.07435E+03  4.31595E+02 -5.65105E+02  1.95257E+03
 -3.20485E+03  7.98385E+02 -1.51040E+03 -9.20385E+02 -9.57281E+01 -3.33364E+03  4.89174E+02 -2.56856E+03
  9.63864E+02 -1.32141E+03  1.92159E+03  1.83189E+02  2.95760E+03  3.13013E+02  4.54423E+02  2.02905E+03
 -2.92105E+02  8.90147E+02 -1.73335E+03 -5.70744E+02  7.67615E+02 -2.08783E+03  3.11879E+03 -1.94383E+03
  2.84072E+03  1.25810E+03  4.07739E+03  3.26674E+02  1.20800E+03  3.47458E+03 -7.38099E+02  1.15041E+03
 -2.96954E+03  1.27750E+03 -1.10529E+03 -4.18241E+01 -1.42104E+03 -2.11810E+03  4.47813E+02 -1.22683E+03
  3.19955E+03 -2.69229E+03  9.02572E+02  3.22739E+01  6.38630E+02  2.17846E+03  4.68046E+02  4.56916E+02
 -4.63520E+01  1.09810E+03 -8.06873E+01  8.84587E+02 -1.02426E+02  9.19571E+02 -7.09993E+02  5.53926E+02
 -7.36665E+02  1.27185E+03 -2.38672E+03  8.08071E+02 -3.16644E+03  9.75858E+02 -3.75694E+03 -1.55032E+03
 -1.40251E+03 -3.63686E+03  1.23892E+03 -4.51841E+03  2.41372E+03 -3.22607E+03  5.31370E+03 -5.78580E+02
  4.01514E+03 -1.16349E+03  2.39639E+03  3.27820E+03 -4.39381E+02  2.31568E+03 -1.55657E+03  8.21001E+02
 -1.64638E+03  1.15768E+03 -3.09599E+02 -2.69961E+02 -5.26408E+02  9.16836E+02 -2.99443E+02  1.43518E+03
 -4.49047E+02 -7.77389E+01 -1.11713E+03 -2.24999E+02  5.16101E+02 -5.64619E+01  2.42695E+02 -1.35025E+03
  3.02961E+03 -1.85274E+01  1.12737E+02  6.91736E+02  1.41348E+03  1.67749E+03  1.35717E+02  2.02163E+03
 -2.14897E+03  3.86007E+03 -2.60764E+03  2.17722E+03 -2.30682E+03  2.98239E+02 -1.12086E+03 -2.40358E+03
 -7.27473E+02 -2.57644E+03  6.17638E+02 -1.69321E+03  1.22676E+03 -1.17474E+03  1.94507E+03 -7.25444E+02
  6.81005E+02  1.74547E+03  3.14410E+02  1.32654E+03 -4.57572E+02 -6.59506E+02  5.38298E+02 -1.69645E+03
  3.98008E+02  1.46858E+03  7.28678E+02  8.21080E+02  9.45699E+02  8.27901E+02  5.62490E+02  7.20174E+02
  5.15073E+01  1.00135E+03 -4.35704E+02 -1.45483E+02 -1.00307E+03 -1.51438E+02 -1.26497E+03 -2.76133E+03
  6.41970E+02 -2.22950E+03  1.68910E+03 -6.43489E+02  1.61494E+03 -1.07071E+03  7.37043E+02  2.25520E+03
  8.59981E+02  1.03288E+03 -3.67380E+02  1.96276E+03 -1.68071E+03  1.04290E+03  4.41991E+02  3.93001E+01
  4.68786E+02  2.25024E+02 -1.75068E+03 -2.21174E+02 -1.41332E+03  9.37424E+02 -1.53270E+03 -4.65690E+02
 -1.52779E+03  5.88125E+02 -7.42842E+02 -1.46670E+03  1.71443E+03 -2.32027E+03  1.37417E+03 -3.77329E+02
  2.39035E+03  1.37442E+03  4.65160E+02  1.85423E+02 -1.10187E+03 -2.38449E+02 -8.07695E+02  2.04750E+03
