 $NMID ID='MM_0lb_SNR200_7hz_g50_29.RAW', FMTDAT='(8E13.5)'
 TRAMP=1., VOLUME=1. $END
  3.10476E+05 -2.57050E+02  3.39991E+05  2.52501E+05  8.45660E+04  3.39839E+05 -1.33174E+05  2.53362E+05
 -1.90164E+05  8.47364E+04 -1.12951E+05 -3.22228E+04  2.18870E+02 -5.05983E+04  5.39901E+04  2.95360E+01
  3.52593E+04  5.07668E+04 -1.54764E+04  7.57414E+04 -6.28265E+04  6.44366E+04 -8.68825E+04  3.06270E+04
 -8.30807E+04 -1.17221E+04 -5.97617E+04 -5.29547E+04 -1.40584E+04 -7.10235E+04  2.72009E+04 -4.68086E+04
  4.16484E+04  3.76990E+03  1.54998E+04  4.78704E+04 -3.52591E+04  5.01813E+04 -6.83646E+04  1.57665E+03
 -5.50247E+04 -5.90481E+04 -7.57138E+03 -7.92041E+04  3.49505E+04 -5.68725E+04  5.13596E+04 -1.98669E+04
  4.57169E+04  1.20168E+04  3.31499E+04  2.53912E+04  1.43414E+04  2.87417E+04 -7.10660E+03  3.04406E+04
 -2.16782E+04  1.29742E+04 -1.98829E+04 -3.46945E+03  8.10336E+03 -7.63201E+03  2.40283E+04  1.43434E+04
  5.82255E+03  3.86059E+04 -3.52832E+04  3.94949E+04 -6.76069E+04  2.88857E+03 -5.90277E+04 -4.45100E+04
 -1.32944E+04 -6.75331E+04  4.44123E+04 -4.95856E+04  6.00430E+04 -2.64403E+03  3.71252E+04  3.67753E+04
 -5.98654E+03  4.13195E+04 -3.03907E+04  1.96046E+04 -3.61430E+04 -1.99116E+03 -2.08416E+04 -1.15933E+04
 -9.87783E+03 -1.65626E+04 -1.38093E+03 -2.09885E+04  8.16145E+03 -2.46407E+04  1.54438E+04 -1.00067E+04
  1.15252E+04  6.67853E+03 -1.20438E+04  1.07796E+04 -2.62733E+04 -8.95352E+03 -9.78000E+03 -3.92217E+04
  2.37544E+04 -4.76675E+04  5.56535E+04 -2.33585E+04  4.87612E+04  2.13901E+04  1.78270E+04  4.91434E+04
 -1.68557E+04  3.64247E+04 -2.78450E+04  2.78173E+03 -1.23957E+04 -3.24171E+04  2.06712E+04 -3.93634E+04
  4.63409E+04 -1.13338E+04  4.29069E+04  2.53013E+04  2.17280E+04  5.15129E+04 -7.56127E+03  5.97571E+04
 -3.54607E+04  4.09992E+04 -4.93299E+04  1.09392E+04 -4.87099E+04 -1.87415E+04 -2.58680E+04 -4.36112E+04
  8.76609E+03 -4.53664E+04  3.60369E+04 -1.73480E+04  3.23555E+04  1.07562E+04  5.75520E+03  2.05504E+04
 -1.37053E+04  1.09093E+04 -1.13172E+04 -7.62613E+03  6.24091E+03 -1.18468E+04  1.90195E+04  7.10527E+03
  1.54012E+04  2.23106E+04 -5.52793E+03  2.82632E+04 -2.26045E+04  1.47110E+04 -3.19307E+04 -1.11170E+03
 -2.60377E+04 -1.77747E+04 -1.22323E+04 -2.59583E+04  4.46310E+03 -3.03505E+04  2.13073E+04 -2.57836E+04
  3.47092E+04 -1.49868E+04  4.06501E+04  5.41802E+03  2.81524E+04  2.55342E+04  4.67078E+03  4.53371E+04
 -2.18570E+04  3.32885E+04 -3.29965E+04  1.24797E+04 -2.29621E+04 -8.57876E+03 -5.73125E+03 -1.09487E+04
  7.77281E+02  5.88351E+02 -8.24189E+03  9.03489E+03 -2.10275E+04  6.64889E+03 -2.34192E+04 -9.26836E+03
 -1.23768E+04 -2.48937E+04  6.94374E+03 -2.75694E+04  2.14160E+04 -2.16348E+04  2.52980E+04 -1.86502E+03
  1.62588E+04  1.83208E+04 -2.03261E+03  2.38834E+04 -1.96636E+04  1.36320E+04 -2.40955E+04 -4.41758E+03
 -1.91651E+04 -2.32688E+04 -2.24733E+03 -3.20876E+04  1.14988E+04 -2.61196E+04  2.56177E+04 -1.18438E+04
  2.11458E+04  5.89048E+02  1.74880E+04  6.46657E+03  8.66209E+03  2.76819E+03  1.36003E+04 -6.66516E+02
  2.45501E+04  2.57697E+03  2.84695E+04  1.94028E+04  2.04951E+04  4.11384E+04 -1.83301E+03  4.83798E+04
 -2.78112E+04  4.10974E+04 -4.68026E+04  2.07217E+04 -4.93707E+04 -3.67887E+03 -4.10022E+04 -2.91911E+04
 -1.48899E+04 -3.96652E+04  1.61784E+04 -3.63701E+04  2.97433E+04 -1.67109E+04  2.74101E+04  9.41511E+03
  7.61898E+03  2.05963E+04 -1.27239E+04  1.57355E+04 -2.08337E+04  2.09177E+03 -1.60440E+04 -1.22856E+04
 -1.00326E+03 -2.08378E+04  1.15554E+04 -1.44888E+04  1.29637E+04 -1.99593E+03  5.20951E+03  8.62377E+03
 -1.03867E+04  5.04530E+03 -9.88096E+03 -7.51360E+03 -3.01530E+03 -2.01014E+04  1.16978E+04 -2.27169E+04
  2.60552E+04 -1.28478E+04  3.02340E+04  3.54282E+03  2.70745E+04  2.04358E+04  1.22641E+04  3.27181E+04
 -7.59340E+03  3.33373E+04 -2.36328E+04  2.26898E+04 -2.82611E+04  4.39532E+03 -1.66745E+04 -6.56436E+03
 -6.26849E+03 -1.04029E+04  1.81147E+02  1.79973E+02 -5.07323E+03  3.75428E+03 -8.46643E+03  6.38668E+03
 -1.57863E+04  2.25576E+03 -1.63156E+04 -1.30359E+04 -7.28291E+03 -2.05633E+04  6.46865E+03 -1.72953E+04
  1.45072E+04 -8.08204E+03  8.70191E+03  4.39855E+03 -5.24245E+01  7.94541E+03 -1.04797E+04 -2.21665E+03
 -8.11698E+03 -1.00009E+04 -1.67476E+03 -1.73159E+04  1.07855E+04 -2.03574E+04  2.33806E+04 -8.87289E+03
  2.57671E+04  4.65342E+03  2.04997E+04  1.82554E+04  5.58799E+03  2.13644E+04 -1.09369E+04  1.65665E+04
 -1.39704E+04  4.40908E+03 -6.44322E+03 -3.41046E+03  3.24325E+03 -5.36454E+03  8.93485E+03 -2.56009E+03
  9.98503E+03  9.35425E+03  2.35436E+03  1.47686E+04 -9.36996E+03  1.14836E+04 -1.80159E+04  3.44611E+03
 -1.40796E+04 -8.99155E+03 -6.45573E+02 -1.65868E+04  9.73505E+03 -1.02415E+04  1.19313E+04  5.10479E+03
  3.90305E+03  1.20161E+04 -8.90344E+03  1.54716E+04 -1.77294E+04  4.97853E+03 -1.56363E+04 -5.51989E+03
 -1.18833E+04 -1.84367E+04  6.55290E+03 -1.98726E+04  2.11520E+04 -1.41611E+04  1.97194E+04  4.30924E+03
  1.08434E+04  1.73727E+04 -2.88210E+03  1.81432E+04 -1.42713E+04  1.10567E+04 -1.58555E+04 -1.87078E+03
 -1.20048E+04 -1.45299E+04 -2.76470E+03 -1.29652E+04  6.01252E+03 -1.17845E+04  1.07488E+04 -3.50530E+03
  4.97283E+03  3.14285E+03 -9.00656E+02  2.95996E+03 -1.06234E+03 -4.50069E+03  4.03234E+03 -8.21597E+03
  1.37615E+04 -7.27765E+03  2.02782E+04  1.60657E+03  1.88679E+04  1.44192E+04  1.03492E+04  2.37275E+04
 -6.68460E+03  2.88123E+04 -2.35947E+04  2.05195E+04 -3.07747E+04  3.93466E+03 -2.37084E+04 -9.74615E+03
 -1.40388E+04 -2.33050E+04 -6.71581E+02 -1.96372E+04  6.92867E+03 -1.02243E+04  8.17113E+03 -6.28113E+03
  1.21060E+03 -5.47160E+03  4.13963E+03 -4.77013E+03  5.88175E+03 -3.81812E+03  8.49906E+03 -3.07134E+03
  1.15297E+04  2.27308E+03  7.95551E+03  1.23459E+04 -2.70872E+03  1.55400E+04 -1.42743E+04  1.01689E+04
 -1.80591E+04 -3.08153E+03 -1.19574E+04 -1.13832E+04 -1.44415E+03 -1.95161E+04  1.15930E+04 -2.06830E+04
  2.00027E+04 -1.00348E+04  2.41349E+04  4.57883E+03  1.58932E+04  1.52446E+04  4.48253E+03  2.21250E+04
 -8.72421E+03  1.66831E+04 -1.35709E+04  5.91802E+03 -9.01301E+03 -2.12420E+03 -5.68114E+03 -3.06909E+03
 -3.00368E+02  1.02917E+03 -3.80005E+03  3.67370E+03 -7.35220E+03  2.67101E+03 -1.28324E+04 -9.52681E+02
 -9.01985E+03 -1.17514E+04  2.28472E+02 -1.98001E+04  8.98781E+03 -1.64909E+04  1.90621E+04 -6.06892E+03
  1.74348E+04  1.10963E+04  8.20300E+03  1.91661E+04 -2.87495E+03  1.98260E+04 -1.35747E+04  1.30388E+04
 -1.87136E+04  1.12243E+03 -1.33500E+04 -1.36898E+04 -1.53051E+03 -1.56997E+04  8.50532E+03 -1.18839E+04
  9.66103E+03 -4.96715E+03  8.78131E+03  3.13374E+03  3.10227E+03  6.01764E+03  2.50326E+03  2.30655E+03
  5.04651E+03  9.01993E+02  4.84870E+03  1.19840E+03  5.93716E+03  6.83964E+03  3.79275E+03  8.38118E+03
 -2.64671E+03  1.63702E+04 -1.32727E+04  1.48057E+04 -2.21716E+04  5.34126E+03 -2.06125E+04 -1.12628E+04
 -9.82154E+03 -1.96109E+04  2.42707E+03 -2.18387E+04  1.08558E+04 -1.43667E+04  1.53394E+04 -3.21207E+03
  1.32607E+04  7.30671E+03  3.50822E+03  9.43007E+03 -4.78654E+03  8.81464E+03 -8.89533E+03 -7.44249E+02
 -2.75936E+03 -8.29779E+03  4.21718E+03 -8.52844E+03  6.62127E+03 -4.96914E+03  8.17356E+03  6.06978E+02
  4.27323E+03  5.38057E+03  3.93953E+03  4.29526E+03  9.76700E+02  2.67203E+03  1.61542E+03 -9.90030E+02
  3.40596E+03  4.19132E+02  8.11724E+03  3.13570E+03  4.99827E+03  1.19634E+04 -2.63214E+03  1.38566E+04
 -1.03127E+04  1.07513E+04 -1.35972E+04  3.73053E+03 -1.16589E+04 -4.32426E+03 -3.67511E+03 -8.55766E+03
  1.52123E+03 -7.96595E+03  5.70304E+03 -3.13240E+03  4.69229E+03  4.49243E+03 -2.19798E+03  6.55888E+03
 -9.01523E+03  5.14783E+03 -9.83203E+03 -3.65057E+03 -5.96772E+03 -1.18929E+04 -2.26315E+02 -1.13490E+04
  6.19423E+03 -7.14183E+03  7.62199E+03 -1.45547E+03  7.20087E+03  5.22072E+03  1.64677E+03  5.14017E+03
 -4.24885E+03  2.64676E+03 -4.43329E+03 -3.18295E+03  1.13661E+03 -9.61478E+03  1.05899E+04 -7.38972E+03
  1.19629E+04  8.09505E+02  1.19326E+04  7.88405E+03  3.57841E+03  1.29240E+04 -4.17909E+03  1.23228E+04
 -1.20601E+04  5.47705E+03 -1.23891E+04 -2.35363E+03 -7.69587E+03 -7.34414E+03  2.90899E+03 -9.20719E+03
  9.09663E+03 -2.62816E+03  9.12249E+03  2.76618E+03  2.41598E+03  8.35585E+03 -9.46195E+01  6.96444E+03
 -2.28239E+03  6.74987E+03 -1.65183E+03  2.60564E+03 -2.48999E+03  6.00988E+02 -3.02655E+03  4.38636E+03
 -5.11397E+03  5.01138E+03 -9.15943E+03  4.52981E+03 -1.47322E+04  1.70323E+03 -1.47303E+04 -9.29388E+03
 -7.68044E+03 -1.86368E+04  3.31542E+03 -1.95437E+04  1.23028E+04 -1.55520E+04  2.16256E+04 -5.73116E+03
  1.89979E+04  5.86944E+03  1.17186E+04  1.27103E+04  1.21600E+03  1.45208E+04 -6.44874E+03  9.55541E+03
 -7.75208E+03  3.05152E+03 -5.96705E+03 -5.24199E+02 -1.22432E+03  1.44904E+02 -1.97329E+03 -2.79684E+03
 -2.55337E+03  4.51973E+02 -3.34298E+03 -1.80723E+01 -2.02884E+03 -3.00568E+03  1.79151E+03 -6.98203E+03
  7.18848E+03 -4.24071E+03  8.22865E+03  9.78009E+02  9.21019E+03  7.86476E+03  2.34339E+03  1.77964E+04
 -6.69183E+03  1.44767E+04 -1.62778E+04  1.17427E+04 -1.70260E+04 -3.96542E+02 -1.39126E+04 -1.07957E+04
 -5.02554E+03 -1.52747E+04  3.30926E+03 -1.48565E+04  1.01655E+04 -7.54882E+03  9.31523E+03 -4.65937E+02
  6.88443E+03  2.55234E+03 -8.72951E+02  4.81260E+03 -3.38496E+03 -2.08119E+03  6.15143E+02 -1.16667E+03
  5.81858E+03 -2.72781E+03  6.47786E+03  1.80705E+03  4.55619E+03  6.95898E+03 -1.06083E+03  9.89928E+03
 -7.41068E+03  5.35271E+03 -9.87765E+03  1.33012E+03 -9.66072E+03 -6.83492E+03 -6.24766E+02 -1.42056E+04
  7.17743E+03 -1.11533E+04  1.41063E+04 -3.00510E+03  1.27552E+04  3.16132E+03  6.98406E+03  7.62771E+03
  1.68272E+03  9.23400E+03 -4.33383E+03  9.71558E+03 -5.24423E+03  5.22117E+03 -5.88707E+03 -3.68331E+02
 -2.33430E+03 -1.84485E+03 -3.99409E+03  5.56867E+02 -5.82847E+03  2.81453E+03 -9.77913E+03 -3.00852E+03
 -7.39317E+03 -3.79326E+03 -1.25460E+03 -1.00508E+04  4.39030E+03 -9.26355E+03  7.19790E+03 -3.97563E+03
  7.69516E+03  1.19288E+03  5.35222E+03  7.35705E+03  8.47077E+00  1.09739E+04 -8.53338E+03  7.08123E+03
