 $NMID ID='MM_0lb_SNR200_15hz_g60_10.RAW', FMTDAT='(8E13.5)'
 TRAMP=1., VOLUME=1. $END
  3.08589E+05  7.33347E+02  3.37482E+05  2.50371E+05  8.52159E+04  3.38062E+05 -1.32979E+05  2.50174E+05
 -1.90237E+05  8.41856E+04 -1.11602E+05 -3.20982E+04  6.79879E+02 -5.01436E+04  5.38781E+04  7.21594E+02
  3.50425E+04  5.17863E+04 -1.67354E+04  7.50833E+04 -6.01237E+04  6.27440E+04 -8.31413E+04  3.14800E+04
 -8.13825E+04 -9.89546E+03 -5.67943E+04 -5.13791E+04 -1.63746E+04 -7.10029E+04  2.77560E+04 -4.61555E+04
  4.01840E+04  3.80728E+03  1.47259E+04  4.87857E+04 -3.41627E+04  4.69859E+04 -6.69252E+04 -7.54477E+02
 -5.46274E+04 -5.74968E+04 -7.57099E+03 -7.71218E+04  3.45909E+04 -5.50929E+04  4.86150E+04 -1.72233E+04
  4.53670E+04  1.11999E+04  3.19801E+04  2.48426E+04  1.54201E+04  2.92395E+04 -3.65831E+03  2.81116E+04
 -2.22146E+04  1.14389E+04 -1.81469E+04 -5.74687E+03  5.20167E+03 -7.19044E+03  2.25701E+04  1.31995E+04
  7.40880E+03  3.59652E+04 -3.26338E+04  3.51073E+04 -6.47087E+04  1.87027E+03 -5.67265E+04 -4.46321E+04
 -1.28006E+04 -6.41813E+04  3.99070E+04 -4.51806E+04  5.81851E+04 -2.46584E+03  3.33402E+04  3.28127E+04
 -5.41161E+03  3.59587E+04 -3.06718E+04  1.51097E+04 -3.10805E+04 -5.31449E+03 -1.75648E+04 -1.08354E+04
 -8.14619E+03 -1.24990E+04 -2.62555E+02 -1.91939E+04  6.91510E+03 -2.34049E+04  1.59834E+04 -1.30381E+04
  1.01431E+04  5.62061E+03 -8.81521E+03  1.21318E+04 -2.03480E+04 -3.78591E+03 -7.74324E+03 -3.43099E+04
  2.29034E+04 -4.39417E+04  4.93266E+04 -1.97222E+04  4.55547E+04  2.00762E+04  1.64842E+04  4.29311E+04
 -1.65909E+04  3.37147E+04 -2.58024E+04  1.53764E+03 -1.02482E+04 -2.82230E+04  2.21806E+04 -3.44339E+04
  4.23279E+04 -9.24893E+03  3.63014E+04  2.35993E+04  1.88995E+04  4.65479E+04 -8.41598E+03  5.13322E+04
 -3.25615E+04  3.48254E+04 -4.30868E+04  9.16068E+03 -4.30993E+04 -1.80808E+04 -2.40871E+04 -3.89824E+04
  7.18230E+03 -3.86859E+04  3.19421E+04 -1.35504E+04  2.93256E+04  1.15449E+04  4.89817E+03  1.95006E+04
 -1.41133E+04  9.54570E+03 -1.03775E+04 -7.52765E+03  7.50671E+03 -9.44656E+03  1.77857E+04  5.81423E+03
  1.36597E+04  2.09827E+04 -5.90177E+03  2.45866E+04 -2.33686E+04  1.19198E+04 -2.92971E+04 -5.80124E+03
 -2.03490E+04 -1.60878E+04 -7.95725E+03 -2.13581E+04  3.28706E+03 -2.07214E+04  1.63203E+04 -1.95670E+04
  2.72473E+04 -1.23597E+04  3.38470E+04  4.48991E+03  2.39784E+04  1.99960E+04  3.33466E+03  3.71788E+04
 -1.90013E+04  3.12030E+04 -2.81578E+04  1.11000E+04 -2.08237E+04 -1.06671E+04 -3.58464E+03 -1.30210E+04
  9.21155E+02 -2.32020E+03 -4.13852E+03  5.99776E+03 -1.59335E+04  4.87286E+03 -1.71691E+04 -5.92159E+03
 -1.07168E+04 -1.97568E+04  5.56218E+03 -2.31159E+04  1.66339E+04 -1.66552E+04  1.91608E+04 -3.64436E+02
  1.14644E+04  1.34216E+04 -7.78876E+02  1.88508E+04 -1.44127E+04  1.04350E+04 -1.89925E+04 -4.45335E+03
 -1.37683E+04 -1.71546E+04 -2.42528E+03 -2.34623E+04  1.12546E+04 -1.92815E+04  1.92070E+04 -9.69844E+03
  1.86200E+04  1.06007E+03  1.14490E+04  4.01039E+03  6.97996E+03  7.19862E+02  1.04639E+04 -2.64591E+03
  1.73079E+04  2.60053E+03  1.97918E+04  1.57154E+04  1.18291E+04  2.89825E+04 -2.18129E+03  3.41016E+04
 -2.02512E+04  2.78045E+04 -3.26441E+04  1.35142E+04 -3.34212E+04 -2.88747E+03 -2.92734E+04 -1.97332E+04
 -1.15821E+04 -2.82484E+04  9.26124E+03 -2.52966E+04  2.15130E+04 -1.16348E+04  1.90796E+04  4.65798E+03
  7.45359E+03  1.42310E+04 -8.40289E+03  1.24366E+04 -1.66483E+04  2.54029E+03 -1.12507E+04 -1.02328E+04
  3.07766E+02 -1.51101E+04  8.79547E+03 -1.19429E+04  9.79140E+03 -1.62485E+03  1.19593E+03  6.05851E+03
 -7.28864E+03  1.87219E+03 -5.73308E+03 -7.00239E+03  6.44932E+02 -1.42296E+04  9.04328E+03 -1.56872E+04
  1.68990E+04 -6.88249E+03  1.79074E+04  3.72411E+03  1.59902E+04  1.22178E+04  7.67723E+03  2.20468E+04
 -3.92568E+03  2.17937E+04 -1.51838E+04  1.42148E+04 -1.62539E+04  3.64828E+03 -1.06522E+04 -2.88940E+03
 -5.49020E+03 -5.38140E+03 -8.56735E+02  5.93238E+02 -1.86763E+03  2.85869E+03 -4.64551E+03  2.89815E+03
 -1.08948E+04 -1.58541E+03 -1.13476E+04 -9.07426E+03 -5.07403E+03 -1.45029E+04  4.57150E+03 -1.12771E+04
  9.62042E+03 -4.35105E+03  5.92391E+03  1.80109E+03 -1.47850E+02  4.15573E+03 -4.89333E+03  4.86461E+02
 -4.35400E+03 -8.09932E+03 -1.26630E+03 -1.01155E+04  7.24812E+03 -1.10772E+04  1.52416E+04 -6.01402E+03
  1.74053E+04  2.28820E+03  1.26194E+04  8.72963E+03  1.63105E+03  1.27629E+04 -7.56195E+03  1.21018E+04
 -7.80320E+03  3.29408E+03 -4.75450E+03 -1.77376E+03  1.29645E+03 -3.38785E+03  5.03769E+03 -2.04626E+03
  5.53808E+03  4.45810E+03  1.23768E+03  8.50823E+03 -5.97919E+03  8.94712E+03 -1.18542E+04  2.11023E+03
 -7.07688E+03 -6.41614E+03 -2.52849E+02 -9.74445E+03  6.39554E+03 -5.33912E+03  5.77251E+03  2.27650E+03
  6.37059E+02  6.20372E+03 -4.98002E+03  5.40978E+03 -7.40091E+03  3.08591E+03 -8.51162E+03 -1.79016E+03
 -5.71880E+03 -9.53578E+03  3.94774E+03 -1.07821E+04  9.61024E+03 -7.50115E+03  1.07249E+04  1.77495E+03
  8.34550E+03  7.71700E+03  2.23933E+02  1.07089E+04 -6.97640E+03  6.51906E+03 -7.06938E+03 -1.20803E+02
 -7.18162E+03 -6.80309E+03 -2.45022E+03 -7.45871E+03  4.40587E+03 -6.83533E+03  4.04631E+03 -3.06375E+03
  4.02662E+03  7.01413E+02 -9.19175E+02  2.07949E+03  1.73913E+02 -1.53543E+03  1.51247E+03 -3.10322E+03
  5.66215E+03 -2.61944E+03  8.46370E+03  8.56003E+02  9.67718E+03  6.30226E+03  6.55610E+03  1.18130E+04
 -2.68073E+03  1.45543E+04 -1.33378E+04  9.62791E+03 -1.52554E+04  2.04361E+03 -1.28677E+04 -5.18780E+03
 -7.11537E+03 -1.21807E+04 -2.21375E+02 -8.59273E+03  3.24150E+03 -4.49894E+03  2.94669E+03 -2.34366E+03
  2.97938E+03 -2.23889E+03  3.40018E+03 -2.73551E+03  4.74385E+03 -1.78498E+03  5.30080E+03 -5.94122E+02
  7.75660E+03  1.47282E+03  2.75663E+03  5.35665E+03 -2.00888E+03  5.72910E+03 -5.79470E+03  3.71745E+03
 -8.39481E+03 -5.49723E+02 -4.31945E+03 -6.13337E+03 -6.01028E+02 -7.28320E+03  5.09344E+03 -9.75917E+03
  9.25670E+03 -4.51149E+03  1.07724E+04  9.37927E+02  7.40082E+03  6.58490E+03  9.31130E+02  9.55079E+03
 -4.31834E+03  8.72743E+03 -6.69259E+03  3.39324E+03 -4.26344E+03 -1.56972E+03 -1.81168E+03 -5.73469E+02
 -1.31187E+03  4.04755E+01 -2.21394E+03  2.50915E+03 -3.85856E+03  3.95561E+02 -7.03960E+03 -6.75104E+02
 -3.85407E+03 -5.79059E+03 -2.86626E+02 -7.91237E+03  4.51590E+03 -6.88745E+03  6.27971E+03 -9.03762E+02
  7.58108E+03  3.59810E+03  3.33593E+03  5.69181E+03 -1.34283E+03  8.69989E+03 -5.48581E+03  4.77915E+03
 -7.63722E+03 -4.42520E+02 -4.81796E+03 -5.02177E+03 -1.22868E+02 -6.67612E+03  3.04832E+03 -4.19942E+03
  6.46194E+03 -3.01696E+03  5.08066E+03  1.28295E+03  1.46258E+03  1.51653E+03 -2.58805E+01  6.61557E+02
  2.47613E+03  1.15712E+02  2.11281E+03  7.30141E+02  3.25216E+03  3.07842E+03  1.55723E+03  3.97912E+03
 -9.03520E+02  6.03764E+03 -3.84212E+03  6.35862E+03 -6.21779E+03  1.01177E+03 -7.65442E+03 -2.16330E+03
 -3.74493E+03 -8.08574E+03  1.10384E+03 -8.14973E+03  3.54073E+03 -4.95243E+03  7.24644E+03 -9.53653E+02
  3.81530E+03  1.41802E+03  6.16254E+02  4.32968E+03 -1.88477E+03  1.95112E+03 -3.16476E+03 -1.10108E+03
 -1.44501E+03 -2.24324E+03  2.41601E+03 -3.72889E+03  2.60208E+03 -2.69977E+03  2.98438E+03  6.35162E+02
  2.11108E+03  1.85795E+03  4.36111E+02  6.29149E+02  6.87753E+01  5.05338E+02  1.76354E+03 -9.53786E+01
  2.17963E+03 -2.03649E+02  3.75472E+03  1.17208E+03  1.22342E+03  3.60481E+03 -9.77237E+02  5.50987E+03
 -3.85851E+03  2.56213E+03 -4.39930E+03  4.88387E+02 -3.94711E+03 -1.67441E+03 -2.03711E+03 -3.64498E+03
  5.71427E+02 -2.24270E+03  2.86473E+03 -3.25697E+02  1.50634E+03  2.86776E+03 -2.76651E+02  2.62027E+03
 -2.97179E+03  1.23969E+03 -2.64757E+03 -1.42649E+03 -1.65581E+03 -2.73783E+03  6.97887E+02 -2.99165E+03
  1.37852E+03 -1.01221E+03  8.36242E+02  1.16234E+03  3.49078E+03 -2.26530E+02 -1.21193E+03  1.63053E+03
 -1.19003E+03  4.69335E+02 -1.45815E+03  3.55596E+02  8.30118E+02 -2.27212E+03  2.16451E+03 -1.82276E+03
  2.82917E+03  7.29249E+02  5.34438E+03  2.31091E+03  1.73938E+03  3.66591E+03 -2.33452E+03  3.99255E+03
 -3.97159E+03  2.27721E+03 -3.06665E+03  1.03122E+02 -1.49373E+03 -2.39965E+03 -1.76746E+02 -1.85435E+03
  1.46249E+03 -7.18303E+02  2.87854E+03  6.97715E+02  5.93717E+02  2.78889E+03 -1.07576E+03  1.81646E+03
 -1.10309E+03  1.20629E+03 -6.44800E+02  4.17203E+02 -7.33080E+02  9.90675E+02  1.86453E+02  1.71491E+03
 -1.84350E+03  1.30083E+03 -3.11561E+03  9.25937E+02 -2.49557E+03  8.13300E+02 -4.31196E+03 -3.66923E+03
 -2.23392E+03 -4.64064E+03  5.34544E+02 -7.00678E+03  2.24191E+03 -4.41326E+03  5.01693E+03 -2.04362E+03
  5.25056E+03  4.55266E+02  3.44157E+03  3.00013E+03 -9.18936E+01  3.51927E+03 -9.22629E+02  2.22298E+03
 -1.19718E+03  5.12028E+02 -5.57714E+02 -3.36383E+02 -6.83504E+02  4.88553E+01 -1.10998E+03 -4.72080E+01
 -8.96890E+02  3.15801E+02 -1.47969E+03 -1.13032E+03  1.03785E+03 -6.43339E+02  2.93016E+02 -4.99762E+02
  1.30972E+03 -1.77639E+03  1.80857E+03  1.28443E+03  2.17648E+03  1.41725E+03 -2.52194E+02  4.35662E+03
 -1.49230E+03  3.54097E+03 -3.33961E+03  1.98534E+03 -4.23124E+03  7.85766E+01 -3.43301E+03 -2.11756E+03
 -1.45224E+03 -3.23386E+03  4.71373E+02 -4.54977E+03  2.02688E+03 -7.61693E+02  2.38506E+03  1.43666E+03
  1.73062E+03  2.10447E+03 -7.02470E+02  1.61247E+03 -3.73673E+02  3.37950E+02  6.83466E+02 -5.68796E+00
  7.08162E+02 -4.23788E+02  1.64549E+03  1.31910E+03  4.87110E+02  8.81851E+02  4.43621E+02  1.59998E+03
 -9.57515E+02  1.78075E+03 -1.70164E+03  4.07150E+02 -2.29152E+03 -1.67018E+03 -8.96640E+02 -2.91769E+03
  1.10721E+03 -3.12039E+03  2.28062E+03 -7.81704E+02  1.54431E+03 -4.34236E+02  1.23141E+03  1.53651E+03
  5.42858E+02  1.43762E+03 -5.77863E+02  9.44554E+02 -1.13645E+03  1.46205E+03 -1.32058E+03  8.54077E+01
 -5.10267E+02  3.38340E+01 -2.11050E+03  1.62819E+03 -1.74297E+03  8.26480E+02 -2.28423E+03 -1.17648E+02
 -3.83251E+02 -5.65577E+02 -4.31137E+02 -1.08122E+03  8.80147E+02 -2.11454E+03  1.64286E+03 -3.42163E+02
  1.97251E+03  1.22247E+03  4.77469E+02  7.66430E+02 -1.76085E+02  2.17884E+03 -2.19736E+03  1.40575E+03
