 $NMID ID='MM_0lb_SNR200_12hz_g40_36.RAW', FMTDAT='(8E13.5)'
 TRAMP=1., VOLUME=1. $END
  3.11049E+05  2.35040E+02  3.38069E+05  2.49043E+05  8.32131E+04  3.39259E+05 -1.30748E+05  2.51245E+05
 -1.89985E+05  8.29092E+04 -1.12748E+05 -3.26968E+04  1.57431E+03 -5.13267E+04  5.28204E+04 -1.61863E+02
  3.58458E+04  5.26896E+04 -1.62359E+04  7.58108E+04 -5.94159E+04  6.45887E+04 -8.40364E+04  3.14457E+04
 -8.11871E+04 -1.20954E+04 -5.71966E+04 -4.97520E+04 -1.54232E+04 -6.99920E+04  2.87400E+04 -4.58676E+04
  3.93140E+04  3.82473E+03  1.62194E+04  4.75049E+04 -3.47668E+04  4.60455E+04 -6.69148E+04  9.83903E+02
 -5.26247E+04 -5.60009E+04 -5.94916E+03 -7.71909E+04  3.55090E+04 -5.50299E+04  4.94603E+04 -1.68764E+04
  4.28161E+04  1.21824E+04  3.20046E+04  2.54522E+04  1.54174E+04  2.94528E+04 -5.67356E+03  2.60233E+04
 -2.11194E+04  1.48790E+04 -1.88377E+04 -5.74715E+03  4.77225E+03 -8.73032E+03  2.22206E+04  1.21228E+04
  6.23718E+03  3.69141E+04 -3.24624E+04  3.59871E+04 -6.41024E+04  4.77331E+02 -5.71689E+04 -4.31788E+04
 -1.41370E+04 -6.37476E+04  3.96479E+04 -4.53936E+04  5.88662E+04 -1.88238E+03  3.52907E+04  3.33276E+04
 -6.63777E+03  3.75311E+04 -3.14075E+04  1.73419E+04 -3.07645E+04 -3.82721E+03 -1.83114E+04 -1.04246E+04
 -9.56559E+03 -1.25190E+04 -5.98513E+02 -1.78752E+04  6.86226E+03 -2.19438E+04  1.50737E+04 -1.24594E+04
  1.04472E+04  5.82686E+03 -8.46041E+03  1.23624E+04 -2.12060E+04 -4.04697E+03 -8.73380E+03 -3.40819E+04
  2.37899E+04 -4.52000E+04  4.89950E+04 -2.11619E+04  4.57895E+04  2.03164E+04  1.34139E+04  4.64883E+04
 -1.49532E+04  3.49688E+04 -2.61812E+04  1.70101E+03 -9.03491E+03 -2.89457E+04  2.17380E+04 -3.62114E+04
  4.10356E+04 -9.11605E+03  3.56390E+04  2.31042E+04  1.97046E+04  4.71270E+04 -9.11857E+03  5.13407E+04
 -3.20170E+04  3.44124E+04 -4.33767E+04  9.74623E+03 -4.32194E+04 -1.61694E+04 -2.38844E+04 -3.96961E+04
  8.39513E+03 -3.97129E+04  3.07640E+04 -1.40547E+04  3.08781E+04  1.03206E+04  4.53071E+03  1.93519E+04
 -1.33611E+04  7.42657E+03 -1.03684E+04 -8.28946E+03  5.28202E+03 -1.03127E+04  1.90482E+04  6.34919E+03
  1.39514E+04  2.26595E+04 -6.37492E+03  2.49367E+04 -2.22559E+04  1.22274E+04 -2.99572E+04 -3.57826E+03
 -2.14977E+04 -1.76881E+04 -9.13664E+03 -2.04717E+04  4.88537E+03 -2.13726E+04  1.68558E+04 -1.79192E+04
  2.71285E+04 -1.34697E+04  3.37552E+04  3.55122E+03  2.39193E+04  2.08168E+04  5.00556E+03  3.61700E+04
 -1.87276E+04  3.06689E+04 -2.90644E+04  1.07862E+04 -2.17586E+04 -1.06986E+04 -4.90552E+03 -1.35115E+04
  2.96117E+03 -9.20643E+02 -5.61428E+03  6.99403E+03 -1.86586E+04  4.63217E+03 -1.80399E+04 -8.59144E+03
 -1.02484E+04 -1.95261E+04  5.09113E+03 -2.41940E+04  1.55054E+04 -1.74845E+04  2.01199E+04 -2.35028E+03
  1.16295E+04  1.31003E+04 -8.46063E+02  1.88196E+04 -1.41235E+04  1.07369E+04 -1.99804E+04 -3.92175E+03
 -1.36076E+04 -1.77581E+04 -5.65092E+02 -2.28488E+04  1.05608E+04 -1.89667E+04  2.04238E+04 -1.01447E+04
  1.76475E+04 -4.32030E+02  1.44076E+04  4.98921E+03  8.56755E+03 -1.35718E+02  9.52438E+03 -1.39831E+03
  1.93282E+04  2.73179E+03  2.08861E+04  1.69811E+04  1.33318E+04  3.04056E+04 -2.24647E+03  3.57875E+04
 -2.13117E+04  2.93061E+04 -3.55407E+04  1.46257E+04 -3.57869E+04 -2.07210E+03 -2.98418E+04 -2.13037E+04
 -1.18446E+04 -3.08898E+04  9.73490E+03 -2.65131E+04  2.25653E+04 -1.40322E+04  2.10128E+04  6.82242E+03
  8.00469E+03  1.51818E+04 -9.83028E+03  1.43912E+04 -1.70390E+04  2.04858E+03 -1.12698E+04 -1.08890E+04
 -1.44947E+03 -1.72619E+04  8.30859E+03 -1.35551E+04  1.17400E+04 -9.68839E+01  2.05306E+03  6.29848E+03
 -8.31382E+03  2.79205E+03 -6.21502E+03 -6.90056E+03  1.39853E+02 -1.32123E+04  1.10971E+04 -1.52162E+04
  1.94722E+04 -6.52930E+03  2.02876E+04  3.14214E+03  1.74375E+04  1.44477E+04  8.72621E+03  2.18244E+04
 -5.26344E+03  2.38126E+04 -1.60982E+04  1.44014E+04 -1.81262E+04  2.21891E+03 -1.32018E+04 -2.97683E+03
 -5.66385E+03 -6.57201E+03  6.30978E+02 -4.18197E+02 -1.53485E+03  2.74776E+03 -5.99087E+03  6.16060E+03
 -1.09056E+04  1.03241E+02 -1.15829E+04 -9.52662E+03 -4.38520E+03 -1.53331E+04  5.12203E+03 -1.17753E+04
  9.85488E+03 -4.92518E+03  6.57352E+03  2.11409E+03  1.67538E+03  5.16831E+03 -6.84396E+03 -2.59625E+02
 -3.54292E+03 -8.25868E+03 -3.30309E+02 -1.13742E+04  5.60977E+03 -1.34772E+04  1.49493E+04 -6.36565E+03
  1.80807E+04  2.44770E+02  1.29002E+04  1.06162E+04  2.86947E+03  1.41904E+04 -7.97088E+03  1.21063E+04
 -9.95061E+03  4.20394E+03 -5.00903E+03 -2.03176E+03  1.64839E+03 -2.84739E+03  7.17151E+03 -1.04057E+03
  7.58806E+03  5.39525E+03  2.11063E+02  8.58952E+03 -6.20172E+03  9.57331E+03 -1.11494E+04  3.01321E+03
 -7.71593E+03 -6.09979E+03 -2.57386E+02 -1.00095E+04  7.41134E+03 -5.36198E+03  7.11750E+03  1.27046E+03
  2.03961E+03  7.20206E+03 -5.77407E+03  8.23018E+03 -8.85352E+03  4.64676E+03 -8.60537E+03 -4.00502E+03
 -6.17177E+03 -1.16172E+04  9.29276E+02 -1.27636E+04  9.48984E+03 -8.09799E+03  1.08760E+04  2.37830E+03
  7.85532E+03  8.90015E+03 -2.34166E+02  1.23217E+04 -8.87155E+03  6.46219E+03 -9.45353E+03 -1.62019E+03
 -7.08588E+03 -8.42288E+03 -2.05267E+03 -7.72591E+03  6.32462E+03 -7.81131E+03  5.04263E+03 -2.89118E+03
  3.22379E+03  2.18439E+03 -2.21755E+03  1.23372E+03 -6.90671E+00 -2.33707E+03  1.29991E+03 -4.34286E+03
  8.84626E+03 -3.17240E+03  1.04423E+04  9.45343E+02  1.06907E+04  7.16192E+03  8.17525E+03  1.52063E+04
 -2.35432E+03  1.77045E+04 -1.38242E+04  1.27330E+04 -1.75397E+04  2.97188E+03 -1.50986E+04 -5.95968E+03
 -7.92379E+03 -1.23082E+04 -8.70866E+01 -1.00750E+04  4.01773E+03 -3.10367E+03  3.87925E+03 -4.17666E+03
  2.74806E+03 -1.35991E+03  3.81850E+03 -3.99252E+03  5.73426E+03 -3.02884E+03  7.28807E+03 -5.41967E+02
  9.00332E+03  1.90530E+03  3.10063E+03  7.28220E+03 -1.61438E+03  8.34659E+03 -8.65660E+03  6.71965E+03
 -8.87012E+03 -1.16863E+03 -5.75289E+03 -7.65615E+03 -6.55725E+02 -1.13050E+04  7.95441E+03 -1.11456E+04
  1.06431E+04 -5.94331E+03  1.36930E+04  3.05985E+03  1.00401E+04  9.00591E+03  1.61718E+03  1.21370E+04
 -4.98406E+03  1.03618E+04 -6.94427E+03  4.23042E+03 -5.63626E+03 -4.66838E+02 -1.49996E+03 -2.15893E+03
 -6.34265E+02 -1.98351E+02 -2.32841E+03  2.69529E+03 -4.66549E+03  2.67271E+03 -5.25357E+03 -2.72203E+02
 -3.18710E+03 -7.57984E+03 -1.56887E+02 -1.02260E+04  6.96033E+03 -9.48503E+03  9.39450E+03 -3.03682E+03
  9.57682E+03  5.97425E+03  3.44443E+03  8.03765E+03 -9.91568E+02  8.37095E+03 -6.94541E+03  5.33230E+03
 -9.60335E+03  4.25616E+01 -6.97898E+03 -5.62342E+03 -6.39381E+02 -7.51998E+03  4.59932E+03 -5.12375E+03
  5.64082E+03 -1.34325E+03  3.16550E+03  4.32056E+02  6.25196E+02  3.30231E+03  2.69543E+03  2.30645E+03
  2.76616E+03  6.27914E+02  1.25694E+03  1.08649E+03  2.56637E+03  3.44432E+03  5.45461E+03  5.54922E+03
 -1.58038E+03  7.33097E+03 -6.20713E+03  8.59270E+03 -9.53076E+03  7.83906E+02 -1.03651E+04 -3.68881E+03
 -4.18949E+03 -9.92944E+03  1.14958E+03 -1.16522E+04  6.14430E+03 -7.47047E+03  6.52012E+03 -2.02544E+03
  6.87994E+03  4.98751E+03  1.95278E+03  5.03236E+03 -3.16968E+03  2.94656E+03 -2.75498E+03  1.26619E+02
 -1.55103E+03 -4.47465E+03  2.32886E+03 -5.13197E+03  2.36709E+03 -1.63223E+03  4.02475E+03  4.97002E+02
  2.55000E+03  2.01668E+03  2.28542E+03  2.00249E+03 -6.31576E+01  1.31445E+03  1.39707E+03 -8.75854E+02
  2.04275E+03 -3.62945E+02  3.63788E+03  1.51098E+03  2.05697E+03  5.05625E+03  3.92275E+02  7.25935E+03
 -4.56015E+03  2.21160E+03 -4.89333E+03  1.00769E+03 -5.31670E+03 -2.61878E+03 -1.61048E+03 -3.96331E+03
  7.25265E+02 -3.99274E+03  2.14749E+03 -2.16926E+03  1.61868E+03  8.52599E+02 -7.18156E+02  4.26556E+03
 -2.67000E+03  1.85492E+03 -4.94758E+03 -1.11817E+03 -2.01055E+03 -5.17294E+03  8.43312E+02 -4.43916E+03
  3.30486E+03 -2.61320E+03  3.23290E+03  2.33155E+02  3.31259E+03  7.88873E+02  6.16425E+02  3.26318E+03
 -2.02385E+03  9.69356E+02 -1.25156E+03 -1.81913E+03 -2.60362E+02 -2.73449E+03  3.55320E+03 -3.85836E+03
  5.47684E+03  7.16039E+02  3.99072E+03  2.86056E+03  2.03123E+03  5.70592E+03 -2.45036E+03  5.65559E+03
 -4.71190E+03  2.67441E+03 -3.82227E+03 -4.09646E+02 -4.18158E+03 -3.35479E+03  2.04756E+02 -3.35030E+03
  4.05360E+03 -3.73409E+03  2.36716E+03  9.01456E+02  1.33805E+03  4.36348E+03  5.39602E+02  2.51646E+03
 -2.47562E+03  2.11850E+03 -2.28650E+03  3.50221E+02 -1.18173E+03  6.22751E+01 -5.25460E+02  1.86852E+03
 -6.14934E+02  2.75085E+03 -3.47845E+03  2.94459E+03 -6.56676E+03  7.85195E+02 -6.81870E+03 -2.57560E+03
 -2.81495E+03 -7.75189E+03  8.77738E+02 -9.52505E+03  5.66455E+03 -6.79797E+03  8.74578E+03 -2.61583E+03
  7.19561E+03  1.12633E+03  3.59904E+03  5.04433E+03 -2.11168E+03  5.06187E+03 -1.11456E+03  3.28159E+03
 -3.13184E+03  1.15399E+03 -1.59481E+03 -9.19329E+02  4.72306E+02 -7.44099E+02 -1.22067E+03 -5.96220E+02
 -1.54456E+02  6.21787E+02 -1.78467E+03 -6.53524E+02  4.42193E+02 -6.86270E+02 -7.68409E+02 -2.22551E+03
  2.31174E+03 -1.93314E+03  2.40100E+03  2.58290E+02  2.68253E+03  3.79538E+03  8.89926E+02  5.64540E+03
 -2.62237E+03  7.46277E+03 -5.97375E+03  3.57729E+03 -7.00033E+03 -1.25076E+03 -2.73003E+03 -4.08144E+03
 -2.23472E+03 -6.46601E+03  4.34592E+02 -4.88989E+03  2.69816E+03 -2.64237E+03  3.41142E+03 -2.40219E+02
  1.38084E+03  1.59464E+03 -7.67969E+02  9.92307E+02 -5.00593E+02  1.30145E+02 -2.98777E+02 -2.57076E+03
  5.95326E+02 -6.31230E+02  1.83980E+03  7.55053E+02  1.79232E+03  8.90630E+02  5.60046E+02  3.96246E+03
 -2.31565E+03  2.17049E+03 -3.13013E+03  1.93444E+02 -2.96384E+03 -2.72495E+03 -2.18000E+01 -4.81058E+03
  3.13453E+03 -4.29626E+03  3.00250E+03 -2.16780E+02  3.90243E+03  3.85158E+02  3.25081E+03  4.21755E+03
  1.33922E+03  4.50035E+03 -2.45685E+03  2.98658E+03 -2.08474E+03  1.48635E+03 -2.40156E+03  7.92021E+02
 -5.91339E+02  3.37294E+02 -2.21893E+03 -8.16584E+02 -1.45377E+03 -6.68655E+01 -3.09783E+03  5.83889E+02
 -1.89906E+03 -1.05781E+03 -4.65370E+02 -3.84776E+03  2.45573E+03 -3.77395E+03  2.81353E+03 -1.21278E+03
  3.04805E+03  1.44296E+03  1.67558E+03  9.34662E+02 -7.50097E+02  3.99914E+03 -2.58171E+03  2.12885E+03
