 $NMID ID='MM_0lb_SNR200_11hz_g40_98.RAW', FMTDAT='(8E13.5)'
 TRAMP=1., VOLUME=1. $END
  3.10354E+05 -3.72254E+02  3.36480E+05  2.50652E+05  8.52329E+04  3.38571E+05 -1.31352E+05  2.50969E+05
 -1.91315E+05  8.21259E+04 -1.13421E+05 -3.30746E+04  1.70151E+03 -4.99509E+04  5.46656E+04 -3.95519E+02
  3.54373E+04  5.35652E+04 -1.75139E+04  7.72552E+04 -6.17611E+04  6.51254E+04 -8.42676E+04  3.11114E+04
 -8.17137E+04 -1.18512E+04 -5.71696E+04 -5.15830E+04 -1.48940E+04 -6.97575E+04  2.72200E+04 -4.64745E+04
  4.00899E+04  3.55428E+03  1.73821E+04  4.79909E+04 -3.40024E+04  4.73919E+04 -6.69525E+04  8.84576E+02
 -5.46294E+04 -5.78093E+04 -7.08897E+03 -7.72976E+04  3.51451E+04 -5.72462E+04  4.89851E+04 -1.66837E+04
  4.35375E+04  1.25796E+04  3.27691E+04  2.66108E+04  1.65458E+04  2.97905E+04 -6.44899E+03  2.71730E+04
 -2.25986E+04  1.21703E+04 -1.90639E+04 -6.36814E+03  6.27368E+03 -8.63715E+03  2.16648E+04  1.46038E+04
  7.41194E+03  3.59528E+04 -3.30013E+04  3.62030E+04 -6.57281E+04  2.03930E+03 -5.69494E+04 -4.38166E+04
 -1.20518E+04 -6.30453E+04  4.04049E+04 -4.72010E+04  5.88980E+04 -4.13436E+03  3.61205E+04  3.26963E+04
 -5.69108E+03  3.74708E+04 -3.14197E+04  1.70641E+04 -3.37216E+04 -4.09773E+03 -1.74229E+04 -1.19979E+04
 -8.56039E+03 -1.47780E+04 -4.51021E+02 -1.92996E+04  7.14684E+03 -2.28208E+04  1.53417E+04 -1.33147E+04
  9.45395E+03  4.68126E+03 -9.94050E+03  1.24978E+04 -2.28226E+04 -4.24710E+03 -7.47207E+03 -3.46423E+04
  2.30800E+04 -4.36708E+04  5.15046E+04 -1.97969E+04  4.53078E+04  2.15508E+04  1.56780E+04  4.69142E+04
 -1.75593E+04  3.43726E+04 -2.67250E+04  2.45631E+03 -1.00896E+04 -2.88671E+04  2.04605E+04 -3.51640E+04
  4.09579E+04 -9.36053E+03  3.76728E+04  2.51444E+04  1.94232E+04  4.81308E+04 -8.62835E+03  5.18370E+04
 -3.23126E+04  3.56222E+04 -4.39804E+04  9.82167E+03 -4.47534E+04 -1.73540E+04 -2.45974E+04 -3.99979E+04
  6.45730E+03 -3.96767E+04  3.31197E+04 -1.52571E+04  3.01415E+04  1.31092E+04  3.24582E+03  1.93249E+04
 -1.35387E+04  9.96151E+03 -1.13492E+04 -8.31561E+03  6.35317E+03 -1.03238E+04  1.68166E+04  6.79607E+03
  1.36343E+04  2.24513E+04 -5.87929E+03  2.55512E+04 -2.22127E+04  1.28791E+04 -3.09708E+04 -3.99519E+03
 -2.33805E+04 -1.76461E+04 -1.00331E+04 -2.08632E+04  4.04657E+03 -2.29927E+04  1.74297E+04 -1.97307E+04
  2.85708E+04 -1.36032E+04  3.37938E+04  2.90391E+03  2.56337E+04  2.07768E+04  3.65002E+03  3.91763E+04
 -1.82390E+04  3.15859E+04 -2.95481E+04  1.05324E+04 -2.20250E+04 -1.02769E+04 -3.44501E+03 -1.35831E+04
  2.84701E+01 -1.24651E+03 -5.63546E+03  6.99700E+03 -1.84805E+04  5.58684E+03 -1.69624E+04 -9.08017E+03
 -1.01668E+04 -2.24866E+04  6.83252E+03 -2.56538E+04  1.67942E+04 -1.77316E+04  1.89350E+04 -1.02139E+03
  1.26567E+04  1.60145E+04 -2.34797E+03  2.08171E+04 -1.30229E+04  1.24879E+04 -2.28015E+04 -4.65301E+03
 -1.51112E+04 -1.97338E+04 -2.90947E+03 -2.54745E+04  1.03597E+04 -2.02223E+04  2.03380E+04 -1.01615E+04
  1.96006E+04 -5.64069E+02  1.37641E+04  4.74192E+03  7.92195E+03  1.46626E+03  1.10293E+04 -2.56428E+03
  1.90502E+04  2.89044E+03  2.12783E+04  1.59548E+04  1.34427E+04  3.29757E+04 -2.11546E+03  3.82185E+04
 -2.29710E+04  3.25485E+04 -3.54493E+04  1.47886E+04 -3.82705E+04 -2.72129E+03 -3.18050E+04 -2.33482E+04
 -1.19920E+04 -3.11877E+04  1.07685E+04 -2.81593E+04  2.32431E+04 -1.45548E+04  2.09438E+04  6.10008E+03
  6.98836E+03  1.65129E+04 -8.39451E+03  1.40693E+04 -1.72194E+04  2.85698E+03 -1.42340E+04 -1.09447E+04
  9.60298E+02 -1.68205E+04  9.21416E+03 -1.16941E+04  1.20879E+04 -1.46157E+03  2.96063E+03  6.58318E+03
 -7.12505E+03  2.83722E+03 -5.94167E+03 -6.71871E+03  4.57521E+02 -1.42325E+04  1.16389E+04 -1.55315E+04
  1.82140E+04 -9.24584E+03  2.13403E+04  2.10031E+03  1.72190E+04  1.42144E+04  8.00103E+03  2.38155E+04
 -4.19136E+03  2.49247E+04 -1.75144E+04  1.69657E+04 -1.82452E+04  4.07853E+03 -1.21697E+04 -3.64221E+03
 -5.54262E+03 -5.65155E+03 -1.91421E+03  2.81213E+03 -2.55205E+03  2.79091E+03 -5.02697E+03  4.64728E+03
 -1.11628E+04 -1.10589E+03 -1.20509E+04 -1.03503E+04 -4.70891E+03 -1.67498E+04  5.59777E+03 -1.28474E+04
  1.05106E+04 -5.38000E+03  7.47842E+03  2.64543E+03  4.40812E+02  3.78416E+03 -7.45992E+03  9.53039E+02
 -5.69826E+03 -7.90881E+03 -2.07608E+03 -1.19056E+04  5.78262E+03 -1.32224E+04  1.67148E+04 -8.64345E+03
  1.91641E+04  1.30504E+03  1.40423E+04  1.08429E+04  2.31034E+03  1.30048E+04 -8.54956E+03  1.32616E+04
 -1.09172E+04  4.29903E+03 -5.04323E+03 -2.10029E+03  2.25857E+03 -3.49112E+03  7.16922E+03 -2.02952E+03
  6.68890E+03  5.94468E+03  6.02877E+02  1.18995E+04 -7.44688E+03  1.01513E+04 -1.37584E+04  2.41389E+03
 -8.04854E+03 -6.52904E+03  2.63889E+02 -1.25051E+04  6.06388E+03 -6.28523E+03  6.77495E+03  1.93436E+03
  1.92848E+03  7.79986E+03 -7.83782E+03  1.00771E+04 -1.02439E+04  4.60937E+03 -1.13198E+04 -3.98114E+03
 -6.73831E+03 -1.19265E+04  3.04962E+03 -1.41752E+04  1.23531E+04 -7.37542E+03  1.33540E+04  2.31458E+03
  7.10909E+03  1.11732E+04 -2.58022E+02  1.22065E+04 -8.20777E+03  7.91258E+03 -8.96363E+03 -1.97296E+03
 -7.74578E+03 -8.07719E+03 -6.92754E+02 -1.09802E+04  4.89361E+03 -8.74165E+03  6.06849E+03 -4.48699E+03
  5.42139E+03  1.75100E+03  3.57214E+02  1.46770E+03  1.71866E+03 -1.96363E+03  8.30586E+02 -4.58879E+03
  1.08067E+04 -4.29397E+03  1.30767E+04  2.55440E+03  1.27977E+04  8.28189E+03  8.73540E+03  1.64511E+04
 -4.40338E+03  1.81265E+04 -1.56634E+04  1.37504E+04 -2.09363E+04  2.35471E+03 -1.66124E+04 -6.27315E+03
 -7.00704E+03 -1.38343E+04 -1.19666E+03 -1.13517E+04  6.62557E+03 -5.38497E+03  4.05018E+03 -5.57621E+03
  1.17915E+03 -4.51952E+03  3.07210E+03 -3.21144E+03  6.19130E+03 -4.06575E+03  6.60386E+03 -9.94257E+02
  7.92299E+03  1.70469E+03  5.39596E+03  8.58947E+03 -2.86073E+03  8.16638E+03 -8.75231E+03  6.70061E+03
 -1.11056E+04  2.60835E+02 -6.18365E+03 -7.85936E+03 -8.07229E+02 -1.11610E+04  7.85860E+03 -1.23572E+04
  1.30516E+04 -6.10621E+03  1.38312E+04  1.97068E+03  1.01458E+04  1.00276E+04  9.91664E+02  1.52023E+04
 -5.48682E+03  1.06787E+04 -9.49025E+03  4.27881E+03 -3.76222E+03 -1.57169E+03 -2.84833E+03 -1.44480E+03
  1.31313E+03 -5.38018E+02 -2.86129E+03  2.34329E+03 -4.16868E+03  1.43846E+03 -7.18451E+03 -6.46374E+02
 -5.82968E+03 -8.52613E+03 -1.33629E+03 -1.15752E+04  6.72510E+03 -9.57532E+03  1.07150E+04 -4.33493E+03
  9.17154E+03  4.89246E+03  4.07138E+03  8.00803E+03 -2.43353E+03  1.10683E+04 -7.34291E+03  6.97915E+03
 -9.78457E+03  4.19672E+02 -7.97825E+03 -6.65684E+03  6.20351E+02 -8.81867E+03  3.66714E+03 -5.85697E+03
  6.59771E+03 -1.98658E+03  4.85864E+03  2.32385E+03  1.52387E+03  2.57851E+03  8.82765E+02  2.21974E+03
  3.48839E+03  1.52784E+03  2.69653E+03  2.42578E+03  1.95286E+03  2.83112E+03  2.76709E+03  5.53418E+03
 -3.31633E+03  8.17255E+03 -7.23807E+03  1.02099E+04 -1.02036E+04  3.58594E+03 -1.18481E+04 -5.30823E+03
 -5.45957E+03 -1.09607E+04  2.79680E+03 -1.18163E+04  6.53784E+03 -6.47897E+03  9.13306E+03 -1.79169E+03
  5.96983E+03  4.59943E+03  1.06800E+03  6.44387E+03 -2.96221E+03  4.53276E+03 -3.84161E+03 -8.83513E+02
 -2.43057E+03 -5.36754E+03  2.11297E+03 -5.32358E+03  4.95839E+03 -3.63366E+03  4.51918E+03  9.55205E+02
  1.20525E+03  2.01051E+03  1.76236E+03  2.78631E+03 -1.46401E+03  1.38806E+03  1.01653E+03 -1.45771E+03
  1.68667E+03 -1.76683E+03  5.17353E+03  1.68121E+03  1.64189E+03  4.73084E+03 -1.69659E+03  7.35844E+03
 -6.07834E+03  5.04443E+03 -6.40597E+03  1.73232E+03 -5.59417E+03 -2.67735E+03 -3.22662E+03 -2.43512E+03
 -4.52452E+02 -4.15578E+03  2.23391E+03 -1.66165E+03  2.26661E+03  2.80155E+03 -1.26181E+03  3.48101E+03
 -5.71014E+03  1.46460E+03 -6.39315E+03 -3.08719E+03 -2.64834E+03 -5.93948E+03  1.15603E+03 -5.29591E+03
  2.31243E+03 -3.32789E+03  4.59664E+03 -1.57772E+02  1.91211E+03  1.53413E+03  3.89711E+02  4.20494E+03
 -8.09299E+02  2.25584E+03 -2.23410E+03 -1.18514E+03  9.23620E+02 -4.88065E+03  6.45798E+03 -4.27182E+03
  5.53222E+03  3.34531E+02  7.31398E+03  5.14930E+03  1.93880E+03  7.28105E+03 -2.55037E+03  5.83412E+03
 -5.77405E+03  3.78092E+03 -6.37543E+03 -4.17896E+02 -1.74194E+03 -4.54693E+03  9.57318E+02 -4.17010E+03
  3.62405E+03 -2.66389E+03  2.25359E+03  1.56300E+03  2.00990E+03  3.94637E+03 -1.27079E+03  1.93688E+03
 -2.49267E+03  1.91864E+03 -2.42404E+03  1.88676E+03 -1.08291E+03  1.48591E+03 -6.20977E+02  1.22355E+03
 -1.16246E+03  1.52679E+03 -5.59550E+03  1.53384E+03 -6.23071E+03 -2.65966E+02 -6.72698E+03 -4.41518E+03
 -2.78477E+03 -7.60475E+03  2.08068E+03 -1.07349E+04  6.98725E+03 -8.73647E+03  9.52992E+03 -4.25420E+03
  7.61750E+03  4.74953E+02  5.35796E+03  5.18231E+03 -4.68009E+02  7.19749E+03 -3.16821E+03  4.84533E+03
 -3.97162E+03  2.71742E+03 -2.35698E+03 -1.33968E+03 -5.86774E+01 -8.41359E+02  1.89371E+02 -1.40118E+02
 -2.91460E+03  4.85529E+01 -1.59810E+03  2.24089E+02 -7.03838E+02 -2.87207E+03  6.05166E+02 -2.59207E+03
  2.14907E+03 -1.61361E+03  2.65381E+03  5.31945E+02  5.05674E+03  3.48903E+03  1.64315E+03  7.95566E+03
 -2.25835E+03  8.58092E+03 -5.75881E+03  5.04783E+03 -7.94340E+03 -3.18567E+02 -4.62777E+03 -5.07709E+03
 -2.69903E+03 -6.29445E+03  1.53543E+03 -6.33089E+03  2.84766E+03 -4.11236E+03  4.11220E+03  8.42018E+02
  3.16642E+03  1.14093E+03 -4.46324E+01  3.15713E+03 -1.49452E+03  1.92788E+02  5.61230E+02 -1.25659E+03
  2.52630E+03 -1.51554E+03  2.39315E+03 -1.72928E+02  2.88337E+03  2.91735E+03  3.53862E+02  3.77044E+03
 -2.71572E+03  9.87854E+02 -3.86772E+03  1.40845E+03 -5.13595E+03 -4.45494E+03 -1.66446E+03 -5.71930E+03
  2.95752E+03 -5.81663E+03  6.11762E+03 -3.23098E+03  6.45353E+03  7.42281E+01  3.83254E+03  4.87403E+03
  1.67478E+03  4.03335E+03 -2.42877E+03  2.61172E+03 -2.48602E+03  2.45796E+03 -2.96692E+03 -6.88923E+02
  1.83182E+02  2.71614E+02 -5.73941E+02 -1.03253E+03 -1.74813E+03 -3.24472E+02 -2.91888E+03 -1.25729E+03
 -4.78180E+03 -1.26237E+03 -1.61601E+03 -4.79301E+03  2.03946E+03 -4.23418E+03  5.17830E+03 -1.77124E+03
  3.15158E+03 -1.22841E+03  8.44349E+02  3.01114E+03 -3.45880E+02  3.80987E+03 -1.62397E+03  3.25979E+03
