 $NMID ID='MM_0lb_SNR200_7hz_g40_46.RAW', FMTDAT='(8E13.5)'
 TRAMP=1., VOLUME=1. $END
  3.08907E+05  3.52183E+01  3.37458E+05  2.51375E+05  8.56162E+04  3.39420E+05 -1.32960E+05  2.52687E+05
 -1.90755E+05  8.31230E+04 -1.13094E+05 -3.35489E+04 -4.40360E+02 -5.13925E+04  5.40842E+04 -6.91981E+02
  3.65472E+04  5.26657E+04 -1.70532E+04  7.57971E+04 -6.17115E+04  6.43704E+04 -8.43092E+04  3.25736E+04
 -8.26944E+04 -1.11825E+04 -5.84228E+04 -5.25075E+04 -1.60968E+04 -7.19959E+04  2.78914E+04 -4.64164E+04
  4.00439E+04  4.44215E+03  1.78757E+04  5.00014E+04 -3.50003E+04  4.73572E+04 -6.76878E+04  7.66690E+02
 -5.50547E+04 -5.82809E+04 -7.44854E+03 -7.93000E+04  3.68816E+04 -5.72437E+04  4.85340E+04 -1.83656E+04
  4.58540E+04  1.19599E+04  3.54180E+04  2.67212E+04  1.61718E+04  2.97355E+04 -6.55414E+03  2.94379E+04
 -2.34229E+04  1.28132E+04 -1.79750E+04 -4.93639E+03  6.05473E+03 -7.88887E+03  2.40325E+04  1.61973E+04
  4.28438E+03  3.85332E+04 -3.41714E+04  3.84784E+04 -6.63086E+04  2.35264E+03 -6.11185E+04 -4.38127E+04
 -1.11713E+04 -6.54626E+04  4.34201E+04 -4.64408E+04  6.23661E+04 -2.18777E+03  3.85112E+04  3.37095E+04
 -4.62917E+03  3.97546E+04 -3.26102E+04  1.88999E+04 -3.47856E+04 -2.68659E+03 -2.14688E+04 -1.11010E+04
 -8.15063E+03 -1.49705E+04 -4.80447E+02 -1.92419E+04  8.80768E+03 -2.26682E+04  1.67525E+04 -1.30238E+04
  1.13734E+04  6.63160E+03 -1.03879E+04  1.14711E+04 -2.54052E+04 -6.80387E+03 -8.15175E+03 -3.63661E+04
  2.68866E+04 -4.77664E+04  5.19625E+04 -2.10697E+04  4.94365E+04  2.11776E+04  1.65903E+04  4.96494E+04
 -1.70175E+04  3.63961E+04 -2.78435E+04  3.69261E+03 -1.15891E+04 -3.12157E+04  2.08044E+04 -3.77490E+04
  4.58361E+04 -1.19745E+04  4.24506E+04  2.55863E+04  2.17434E+04  5.10800E+04 -9.76284E+03  5.50454E+04
 -3.69870E+04  3.77191E+04 -4.93588E+04  1.13304E+04 -5.09040E+04 -1.79475E+04 -2.77740E+04 -4.23032E+04
  7.56069E+03 -4.33574E+04  3.46662E+04 -2.11352E+04  3.07101E+04  1.25211E+04  5.44853E+03  2.09179E+04
 -1.53461E+04  9.95973E+03 -1.11614E+04 -7.09275E+03  5.63272E+03 -1.19548E+04  1.84932E+04  4.91191E+03
  1.47620E+04  2.31429E+04 -4.53399E+03  2.89639E+04 -2.29476E+04  1.59967E+04 -3.38686E+04 -3.19260E+03
 -2.62679E+04 -1.92486E+04 -1.35207E+04 -2.68152E+04  3.76214E+03 -2.74923E+04  2.19739E+04 -2.26236E+04
  3.27402E+04 -1.41765E+04  3.88309E+04  6.44170E+03  2.92725E+04  2.52948E+04  5.10856E+03  4.20195E+04
 -2.09946E+04  3.66096E+04 -3.16680E+04  1.45087E+04 -2.53720E+04 -1.11256E+04 -3.80420E+03 -1.29320E+04
  4.73828E+02 -5.40057E+02 -8.00993E+03  7.44036E+03 -1.99140E+04  6.00311E+03 -2.12312E+04 -1.02893E+04
 -1.12689E+04 -2.45954E+04  7.47974E+03 -2.99244E+04  1.86190E+04 -2.25230E+04  2.43298E+04 -2.21668E+03
  1.60918E+04  1.77763E+04 -1.14932E+03  2.62956E+04 -1.73522E+04  1.35891E+04 -2.67659E+04 -4.96015E+03
 -1.87315E+04 -2.31166E+04 -4.44855E+03 -2.89780E+04  1.40360E+04 -2.59932E+04  2.60215E+04 -1.35938E+04
  2.38374E+04 -5.55133E+02  1.60127E+04  4.27489E+03  6.51311E+03  2.03401E+03  1.43818E+04 -1.47850E+03
  2.23803E+04  1.93142E+03  2.70670E+04  1.87073E+04  2.06699E+04  3.96170E+04 -2.96600E+03  4.61958E+04
 -2.85075E+04  3.91883E+04 -4.38187E+04  2.17347E+04 -4.69717E+04 -3.79215E+03 -3.82106E+04 -2.57801E+04
 -1.50147E+04 -3.96304E+04  1.48400E+04 -3.48717E+04  2.88152E+04 -1.52146E+04  2.61353E+04  8.65632E+03
  9.88651E+03  1.97595E+04 -1.28541E+04  1.71100E+04 -2.21614E+04  2.89006E+03 -1.81903E+04 -1.26498E+04
 -1.12440E+03 -1.89541E+04  1.18725E+04 -1.33323E+04  1.31737E+04 -1.68168E+03  2.94962E+03  9.84089E+03
 -9.56652E+03  4.25385E+03 -1.01587E+04 -6.94993E+03 -3.25831E+03 -1.96471E+04  1.20643E+04 -2.12539E+04
  2.32766E+04 -1.17192E+04  2.87102E+04  4.53020E+03  2.66694E+04  2.02746E+04  1.15883E+04  3.15243E+04
 -5.55955E+03  3.16002E+04 -2.19517E+04  2.15676E+04 -2.32141E+04  4.64741E+03 -1.64965E+04 -6.96050E+03
 -6.08740E+03 -7.62801E+03 -2.93387E+03 -6.54435E+01 -2.59106E+03  3.97784E+03 -5.78811E+03  7.19683E+03
 -1.63761E+04 -1.45574E+03 -1.61975E+04 -1.25148E+04 -6.12726E+03 -2.03367E+04  6.66008E+03 -1.65324E+04
  1.35588E+04 -7.04131E+03  9.38286E+03  3.27778E+03  1.54737E+02  7.71983E+03 -8.23395E+03 -2.47747E+02
 -8.40312E+03 -9.67328E+03 -7.76066E+02 -1.74689E+04  1.03997E+04 -1.80386E+04  2.04162E+04 -9.80466E+03
  2.54061E+04  2.12328E+03  1.93054E+04  1.62709E+04  2.02564E+03  2.11094E+04 -1.12726E+04  1.74616E+04
 -1.48685E+04  3.88626E+03 -6.42955E+03 -4.15464E+03  2.63259E+03 -5.16904E+03  1.00666E+04 -2.40408E+03
  9.95319E+03  7.65115E+03  1.21960E+03  1.45471E+04 -1.09608E+04  1.36437E+04 -1.72501E+04  3.58075E+03
 -1.28277E+04 -9.52346E+03  6.22454E+02 -1.51134E+04  9.84145E+03 -8.70862E+03  1.00304E+04  2.80884E+03
  1.25940E+03  1.14761E+04 -9.05029E+03  1.25296E+04 -1.63740E+04  3.34162E+03 -1.64616E+04 -4.18657E+03
 -9.17419E+03 -1.67859E+04  2.22529E+03 -2.17593E+04  1.61629E+04 -1.19965E+04  1.78103E+04  2.85236E+03
  1.24050E+04  1.60407E+04 -2.22412E+03  1.84545E+04 -1.31763E+04  9.03390E+03 -1.43867E+04 -2.27537E+03
 -1.12777E+04 -1.18620E+04 -3.51034E+03 -1.39112E+04  8.73294E+03 -1.07919E+04  8.84442E+03 -4.37391E+03
  6.09795E+03  1.38830E+03 -4.74083E+02  3.11115E+03 -1.58418E+03 -3.93838E+03  1.89880E+03 -9.24803E+03
  1.31684E+04 -4.77919E+03  1.68378E+04  1.62356E+03  1.88554E+04  1.21893E+04  1.03473E+04  2.32211E+04
 -6.45233E+03  2.66689E+04 -2.21530E+04  2.03361E+04 -2.89097E+04  4.51880E+03 -2.28088E+04 -1.11883E+04
 -1.08844E+04 -2.06580E+04 -2.82490E+02 -1.73056E+04  5.71531E+03 -9.18580E+03  4.48218E+03 -6.14919E+03
  4.37332E+03 -3.42929E+03  5.15290E+03 -5.02156E+03  4.28757E+03 -2.64920E+03  7.50513E+03 -3.31493E+03
  1.31630E+04  4.72677E+03  8.03414E+03  1.05289E+04 -2.48287E+03  1.18710E+04 -1.31180E+04  1.03022E+04
 -1.65411E+04 -2.16399E+03 -1.23413E+04 -1.05877E+04 -1.49960E+03 -1.80031E+04  6.99468E+03 -1.99465E+04
  1.97813E+04 -1.01581E+04  2.25930E+04  2.09588E+03  1.45622E+04  1.74219E+04  2.31594E+03  1.91266E+04
 -8.26568E+03  1.56999E+04 -1.06949E+04  6.66137E+03 -8.75953E+03 -2.59609E+03 -3.72693E+03 -2.71693E+03
 -3.26722E+03 -2.64445E+02 -2.90519E+03  2.44660E+03 -6.15847E+03  3.43974E+03 -1.28695E+04 -2.50812E+03
 -9.41749E+03 -1.23781E+04 -1.83623E+03 -1.73243E+04  9.00257E+03 -1.58494E+04  1.78565E+04 -4.16810E+03
  1.61651E+04  1.07696E+04  8.83406E+03  1.41071E+04 -4.09519E+03  1.79113E+04 -1.25928E+04  1.17362E+04
 -1.66502E+04 -1.18979E+03 -1.26798E+04 -1.02474E+04 -1.10359E+03 -1.57199E+04  7.55426E+03 -1.20185E+04
  1.15976E+04 -3.36707E+03  7.26548E+03  2.53923E+03  1.68176E+03  5.60818E+03  8.99109E+02  3.63337E+03
  2.71104E+03  2.14404E+03  4.29945E+03  1.43787E+03  5.30432E+03  6.42860E+03  4.69683E+03  1.04451E+04
 -2.67671E+03  1.46218E+04 -1.54846E+04  1.31388E+04 -1.59798E+04  3.47126E+03 -2.00185E+04 -7.34510E+03
 -9.53648E+03 -1.74295E+04  2.27696E+03 -2.08201E+04  1.20967E+04 -1.02038E+04  1.60242E+04 -2.93787E+03
  1.01529E+04  6.44251E+03  1.24470E+03  8.58718E+03 -5.97476E+03  6.20860E+03 -6.74483E+03 -6.94567E+02
 -3.87844E+03 -8.14183E+03  5.52910E+03 -7.93437E+03  7.59176E+03 -3.46769E+03  6.40724E+03  1.86236E+03
  4.77755E+03  2.93311E+03  2.69664E+03  1.17225E+03 -3.81894E+02  1.31803E+03  2.49909E+03 -1.68066E+03
  2.29535E+03 -6.23049E+02  6.93935E+03  3.56728E+03  6.20802E+03  7.93613E+03 -8.35855E+02  1.10198E+04
 -7.16224E+03  7.61745E+03 -1.54459E+04  2.31603E+03 -1.05901E+04 -3.83069E+03 -5.48784E+03 -8.60873E+03
  3.31824E+03 -6.64796E+03  5.86000E+03 -3.17421E+03  3.26121E+03  4.73018E+03 -1.13503E+03  7.41485E+03
 -6.88845E+03  5.18464E+03 -9.56111E+03 -4.55003E+03 -6.13903E+03 -9.47730E+03  2.93720E+02 -1.11291E+04
  5.33564E+03 -6.79097E+03  7.10288E+03 -1.87639E+03  6.24866E+03  2.91570E+03  7.41766E+02  5.65201E+03
 -2.78239E+03  3.93496E+02 -4.35033E+03 -4.06208E+03  2.18999E+02 -8.72112E+03  9.75539E+03 -6.47939E+03
  1.17307E+04  1.35243E+03  1.15185E+04  9.11077E+03  2.00878E+03  1.21200E+04 -5.82693E+03  1.07217E+04
 -1.14580E+04  5.98604E+03 -1.10368E+04 -1.65200E+03 -7.19601E+03 -8.49668E+03  5.19834E+00 -9.53104E+03
  7.62197E+03 -4.93841E+03  6.69638E+03  2.97276E+03  2.94403E+03  7.63806E+03 -2.78652E+03  6.92712E+03
 -3.50413E+03  3.55046E+03 -3.61087E+03 -3.89522E+02 -2.45794E+03  1.05488E+03 -2.68519E+03  2.65497E+03
 -2.53888E+03  4.36203E+03 -9.56956E+03  5.53078E+03 -1.25489E+04  7.73767E+02 -1.37816E+04 -9.61868E+03
 -7.36957E+03 -1.73371E+04  3.62320E+03 -1.96468E+04  1.34435E+04 -1.33147E+04  1.88698E+04 -6.89785E+03
  1.91359E+04  5.01760E+03  1.16256E+04  1.28070E+04  1.48460E+03  1.34812E+04 -3.49870E+03  1.08849E+04
 -7.15802E+03  4.30385E+03 -4.19998E+03 -5.65791E+02 -1.53969E+03 -5.28944E+02 -8.02730E+02  2.28799E+01
 -1.03983E+03 -5.19666E+01 -2.97467E+03 -6.79709E+01 -5.45943E+02 -3.59828E+03 -1.55143E+02 -5.16028E+03
  5.75264E+03 -6.66138E+03  8.69565E+03 -1.39426E+03  9.10455E+03  6.75461E+03  2.90882E+03  1.40815E+04
 -4.86228E+03  1.49515E+04 -1.27061E+04  9.40371E+03 -1.74475E+04 -2.54971E+03 -1.27962E+04 -1.02105E+04
 -4.66372E+03 -1.45885E+04  2.41023E+03 -1.30571E+04  1.02563E+04 -6.64198E+03  8.53408E+03  1.98685E+03
  5.04603E+03  4.07968E+03 -1.96351E+02  4.36963E+03 -3.45550E+03  6.11607E+01  1.48101E+03 -3.21111E+03
  4.16468E+03 -1.73925E+03  4.80023E+03  2.15396E+03  3.45365E+03  5.31811E+03 -9.38184E+02  7.92389E+03
 -6.14230E+03  4.97124E+03 -9.07180E+03  2.15986E+03 -9.86390E+03 -7.78632E+03 -1.63923E+03 -1.21724E+04
  6.73137E+03 -1.06414E+04  1.33299E+04 -2.68641E+03  9.20542E+03  2.78624E+03  8.43423E+03  8.66667E+03
  2.24416E+03  9.65972E+03 -4.23164E+03  7.97456E+03 -5.40590E+03  4.38273E+03 -4.73888E+03 -7.43120E+01
 -3.41643E+03 -2.20252E+03 -1.90875E+03  2.38969E+03 -5.53699E+03  9.25395E+02 -8.34647E+03 -7.79413E+02
 -7.34327E+03 -6.50042E+03 -1.32955E+03 -8.02682E+03  5.35275E+03 -1.01466E+04  8.86074E+03 -4.11290E+03
  1.11694E+04  1.92340E+03  5.17416E+03  6.17984E+03 -4.78103E+02  1.00001E+04 -7.68579E+03  4.56967E+03
