 $NMID ID='MM_0lb_SNR200_17hz_g40_87.RAW', FMTDAT='(8E13.5)'
 TRAMP=1., VOLUME=1. $END
  3.10486E+05  8.22375E+02  3.37484E+05  2.50610E+05  8.38452E+04  3.38282E+05 -1.32699E+05  2.50367E+05
 -1.88998E+05  8.29334E+04 -1.11112E+05 -3.20768E+04  1.64138E+03 -5.15604E+04  5.44532E+04  8.13214E+00
  3.45016E+04  5.28021E+04 -1.78130E+04  7.41067E+04 -6.05275E+04  6.32295E+04 -8.33365E+04  3.26801E+04
 -7.95084E+04 -1.08224E+04 -5.56511E+04 -4.99227E+04 -1.48348E+04 -6.78683E+04  2.61777E+04 -4.43289E+04
  3.98325E+04  4.52786E+03  1.56341E+04  4.66819E+04 -3.32737E+04  4.65264E+04 -6.59925E+04 -4.11826E+02
 -5.14843E+04 -5.56183E+04 -6.14023E+03 -7.59080E+04  3.39368E+04 -5.33131E+04  4.60566E+04 -1.74005E+04
  4.18399E+04  1.04535E+04  3.12352E+04  2.53927E+04  1.59413E+04  2.85874E+04 -4.60073E+03  2.76716E+04
 -2.17898E+04  1.25721E+04 -1.86533E+04 -3.55557E+03  4.20869E+03 -6.81488E+03  2.13048E+04  1.15386E+04
  7.68979E+03  3.46407E+04 -3.14036E+04  3.31008E+04 -6.06340E+04  1.53915E+03 -5.59391E+04 -4.05255E+04
 -1.22558E+04 -6.08616E+04  3.74374E+04 -4.32538E+04  5.50448E+04 -2.53289E+03  3.16808E+04  3.02340E+04
 -6.83202E+03  3.27959E+04 -2.85089E+04  1.44262E+04 -2.76449E+04 -3.70657E+03 -1.46272E+04 -9.93288E+03
 -7.47435E+03 -1.07834E+04 -7.71517E+02 -1.65504E+04  6.00334E+03 -2.29219E+04  1.39734E+04 -1.48064E+04
  1.25290E+04  4.07576E+03 -6.24131E+03  1.30044E+04 -1.94362E+04 -2.84095E+03 -8.13534E+03 -3.12157E+04
  1.91444E+04 -4.10988E+04  4.60800E+04 -1.91927E+04  4.22317E+04  1.71729E+04  1.46383E+04  4.11543E+04
 -1.46391E+04  3.08115E+04 -2.34281E+04  1.71731E+03 -8.04837E+03 -2.62725E+04  2.09796E+04 -3.20191E+04
  3.96417E+04 -8.04741E+03  3.13642E+04  2.29781E+04  1.58023E+04  4.28090E+04 -6.81305E+03  4.48480E+04
 -2.84282E+04  3.01610E+04 -3.75457E+04  8.10634E+03 -3.97734E+04 -1.43349E+04 -2.08135E+04 -3.45839E+04
  6.43281E+03 -3.41373E+04  2.98431E+04 -1.36326E+04  2.60885E+04  1.15942E+04  2.92120E+03  1.71963E+04
 -1.47035E+04  7.30040E+03 -9.63565E+03 -6.87232E+03  5.26176E+03 -9.23994E+03  1.80263E+04  6.83816E+03
  1.25107E+04  2.13093E+04 -6.86848E+03  2.38923E+04 -2.12176E+04  9.22605E+03 -2.66751E+04 -5.42702E+03
 -1.75702E+04 -1.63203E+04 -5.74201E+03 -1.77763E+04  4.29406E+03 -1.51766E+04  1.28952E+04 -1.49680E+04
  2.13020E+04 -1.20239E+04  2.92849E+04  4.24784E+02  2.12081E+04  1.62094E+04  4.59290E+03  3.34591E+04
 -1.71232E+04  2.75213E+04 -2.61401E+04  8.88267E+03 -1.93805E+04 -1.15900E+04 -3.88122E+03 -1.37656E+04
  1.65995E+03 -4.44716E+03 -2.92336E+03  6.43991E+03 -1.37461E+04  5.71149E+03 -1.36514E+04 -5.92842E+03
 -8.79178E+03 -1.53026E+04  6.08265E+03 -2.00928E+04  1.27599E+04 -1.35193E+04  1.42730E+04 -2.23977E+03
  1.00775E+04  1.15194E+04 -1.31481E+03  1.57917E+04 -1.11103E+04  8.72193E+03 -1.71636E+04 -2.94724E+03
 -1.20713E+04 -1.52201E+04 -1.11119E+03 -1.89229E+04  8.94504E+03 -1.51383E+04  1.60051E+04 -8.00871E+03
  1.58261E+04  8.76949E+02  1.01505E+04  3.95988E+03  4.31292E+03  7.18627E+02  7.94151E+03 -8.95482E+02
  1.49034E+04  2.99867E+03  1.58087E+04  1.28320E+04  9.31463E+03  2.53819E+04 -3.08657E+03  2.67001E+04
 -1.63807E+04  2.16758E+04 -2.50749E+04  1.02584E+04 -2.53527E+04 -2.24847E+03 -2.24421E+04 -1.52743E+04
 -9.82972E+03 -2.12611E+04  6.72505E+03 -1.89493E+04  1.79044E+04 -1.14969E+04  1.72553E+04  3.73301E+03
  6.29284E+03  1.13889E+04 -8.14633E+03  1.14908E+04 -1.31343E+04  2.75710E+03 -1.04460E+04 -7.61083E+03
 -5.74765E+02 -1.27311E+04  6.38812E+03 -9.62246E+03  1.01170E+04 -1.61900E+03  7.02043E+02  4.64929E+03
 -5.97682E+03  1.48523E+03 -4.05445E+03 -4.62710E+03 -4.33657E+02 -1.17936E+04  7.71944E+03 -1.15257E+04
  1.24215E+04 -5.07262E+03  1.30444E+04  1.80871E+03  1.09565E+04  1.04412E+04  5.23181E+03  1.47221E+04
 -1.77842E+03  1.70293E+04 -1.07313E+04  1.08704E+04 -1.18692E+04  3.15092E+03 -8.27601E+03 -2.15207E+03
 -4.02175E+03 -4.08339E+03 -5.16409E+02  8.52910E+02 -2.00275E+03  2.27598E+03 -4.28526E+03  4.29341E+03
 -8.65701E+03 -1.17581E+03 -9.88708E+03 -8.36112E+03 -3.94983E+03 -1.11218E+04  4.05619E+03 -1.05275E+04
  7.49558E+03 -4.29636E+03  5.62592E+03  2.30676E+03  9.39503E+02  3.27612E+03 -4.09845E+03 -3.28147E+02
 -2.57871E+03 -5.04241E+03 -1.24529E+03 -8.70351E+03  4.24302E+03 -8.38117E+03  1.08693E+04 -4.76710E+03
  1.23238E+04  1.04776E+03  9.54962E+03  6.10721E+03  2.13487E+03  9.07849E+03 -4.95892E+03  9.04816E+03
 -7.18474E+03  2.55788E+03 -3.06491E+03 -1.72963E+03  8.30452E+02 -2.28079E+03  3.97434E+03 -3.49959E+02
  4.64258E+03  2.89983E+03  1.26336E+03  6.00532E+03 -4.45737E+03  6.54059E+03 -9.02039E+03  8.67626E+02
 -5.32725E+03 -3.96274E+03  9.23570E+02 -7.77312E+03  4.05512E+03 -3.65290E+03  4.17229E+03  8.50637E+02
 -4.67924E+01  2.66352E+03 -3.28987E+03  5.41149E+03 -4.98447E+03  2.88975E+03 -5.57504E+03 -2.58157E+03
 -3.21232E+03 -6.82942E+03  1.54684E+03 -6.91776E+03  7.82973E+03 -4.75924E+03  8.59870E+03  3.76384E+02
  4.73631E+03  6.57206E+03  2.06335E+02  8.16709E+03 -5.27005E+03  4.26422E+03 -6.12560E+03  1.26712E+02
 -5.58572E+03 -6.28985E+03 -9.92430E+02 -5.04302E+03  2.73796E+03 -5.21749E+03  3.08920E+03 -2.51183E+03
  3.50432E+03  2.04007E+02 -1.14267E+03  1.05696E+03 -5.44698E+02  2.11626E+01 -9.47216E+02 -2.98641E+03
  4.23469E+03 -9.62108E+02  5.92015E+03 -1.35968E+02  6.20580E+03  3.04937E+03  4.75861E+03  8.25650E+03
 -1.60823E+03  9.17941E+03 -7.80190E+03  6.94725E+03 -1.20402E+04  1.48555E+03 -8.17972E+03 -2.51322E+03
 -4.42505E+03 -7.70243E+03 -8.68851E+02 -5.92361E+03  2.10745E+03 -2.25724E+03  1.28646E+03 -2.66936E+03
  1.92981E+03 -1.02587E+03  3.13768E+03 -2.33135E+03  3.16688E+03 -8.40796E+02  4.28621E+03 -1.09407E+03
  5.01697E+03  1.30104E+03  1.27246E+03  3.87251E+03 -1.90144E+03  3.09882E+03 -4.69921E+03  3.71559E+03
 -6.32582E+03 -5.17105E+02 -2.87668E+03 -3.53903E+03  1.34727E+03 -5.78286E+03  3.90452E+03 -5.57215E+03
  5.64536E+03 -3.89237E+03  7.00883E+03  1.36151E+02  5.72039E+03  4.39937E+03  1.83095E+03  6.73122E+03
 -1.57221E+03  6.64786E+03 -4.01048E+03  2.27261E+03 -2.29475E+03 -1.32379E+03 -9.15361E+02 -4.51940E+02
 -3.21352E+02 -3.87348E+01 -6.42967E+01  1.75787E+03 -2.51316E+03  1.53402E+03 -5.01272E+03 -6.04342E+02
 -1.52305E+03 -6.05311E+03  7.95121E+02 -6.71779E+03  3.49437E+03 -4.31822E+03  4.58538E+03 -7.79663E+02
  4.40383E+03  2.90818E+03  1.76622E+03  3.87120E+03 -6.39208E+02  4.78753E+03 -3.30795E+03  4.30574E+03
 -5.15969E+03  5.15024E+02 -3.07795E+03 -2.39549E+03 -1.21418E+03 -3.41032E+03  2.03968E+03 -3.84546E+03
  1.70824E+03 -1.14736E+03  2.34526E+03  3.16462E+02  1.08710E+03  1.22348E+03  1.09943E+03  9.71820E+02
  1.86497E+03  1.37152E+02  1.92645E+03  8.20142E+02  6.89323E+02  3.30167E+03  1.33309E+03  2.81042E+03
 -1.96515E+03  3.77057E+03 -2.11971E+03  4.31737E+03 -2.73404E+03  1.02290E+03 -5.36379E+03 -1.26462E+03
 -1.86358E+03 -4.97008E+03  4.26303E+01 -6.44390E+03  7.70511E+02 -2.51035E+03  2.75456E+03 -3.57928E+02
  3.73517E+03  1.94054E+03  7.48385E+02  1.59648E+03 -1.11936E+03  1.52326E+03 -1.11963E+03  3.33523E+01
 -1.23988E+02 -1.15340E+03  2.13259E+03 -1.80400E+03  1.32167E+03 -1.95311E+03  2.27142E+03  1.15280E+03
  1.19475E+03  1.11413E+03  6.22941E+01  9.39515E+02 -4.03469E+02  1.63676E+03  2.42573E+02 -1.06454E+01
 -4.03407E+02 -5.63501E+02  1.93611E+03  5.79315E+02  2.99117E+02  2.54843E+03 -1.01760E+03  3.18970E+03
 -2.01817E+03  9.98726E+02 -2.35198E+03  4.19105E+02 -2.30211E+03 -6.75784E+02 -3.37958E+02 -1.93241E+03
 -2.06418E+01 -1.39568E+03  2.07860E+03 -9.42336E+02  6.23567E+02  1.67407E+03 -2.97181E+02  1.85670E+03
 -1.67028E+03  9.57483E+02 -1.79891E+03 -1.65289E+03 -8.59138E+02 -2.70035E+03 -6.89407E+01 -2.77030E+03
  7.34175E+02 -1.42131E+03  8.60130E+02  5.56191E+02  8.72871E+02  3.44386E+01  1.20766E+03  1.64414E+03
 -2.14072E+02 -3.44512E+02 -8.54064E+02  6.72465E+02  5.17750E+02 -1.32071E+03  2.60903E+03 -6.07288E+02
  1.27580E+03  4.91477E+02  4.65397E+03  1.33740E+03  8.94782E+02  1.15152E+03 -2.67997E+01  1.84263E+03
 -1.46269E+03  7.24448E+02 -1.65828E+03  4.22110E+01 -4.74222E+02 -1.71650E+03  1.29807E+02 -1.29857E+03
  2.14422E+03 -6.86794E+02  1.07449E+03  7.57397E+02  8.72749E+02  4.99724E+02  6.36996E+02  2.03666E+03
  8.22712E+02  1.86196E+03 -9.28516E+02 -4.50874E+01  2.77583E+02  9.14621E+02 -4.44801E+02  1.32322E+03
 -2.96908E+01  2.62118E+02 -2.65217E+03  4.14108E+02 -2.80126E+03  7.72780E+02 -3.45795E+03 -1.98134E+03
 -5.72443E+02 -4.14274E+03  8.91262E+02 -2.70403E+03  1.74097E+03 -2.97358E+03  3.65258E+03 -6.66135E+02
  3.77809E+03  7.99422E+02  3.24924E+03  2.00173E+03 -6.49786E+02  2.12932E+03 -1.24853E+03  1.43064E+03
 -1.32618E+03  9.29275E+02 -6.25783E+02 -5.22240E+02 -4.24740E+02 -5.69495E+01 -3.96735E+02  1.19505E+02
 -6.69019E+02 -6.85838E+02 -1.85905E+03  1.32446E+03 -1.72762E+02 -1.42932E+03 -7.17460E+02 -1.82220E+03
  1.11178E+03 -1.21487E+03  6.24423E+02  2.60137E+02  1.45216E+03  1.53396E+03  2.67939E+02  3.03532E+03
 -8.08470E+02  2.75438E+03 -1.86686E+03  1.61341E+03 -1.29466E+03 -8.20702E+02 -1.28082E+03 -1.37267E+03
 -9.34119E+02 -1.50612E+03  1.06807E+03 -2.10400E+03  1.34919E+03 -2.26074E+03  1.45174E+03  3.13876E+02
  1.33284E+03  1.01642E+03  3.71913E+02  7.61165E+02 -8.32878E+02 -2.59417E+02  1.26760E+03 -1.46072E+02
  1.07865E+03  4.32646E+02  2.18229E+02  9.85887E+02  5.34362E+02  6.29117E+02  1.09774E+03  1.04665E+03
 -1.04109E+03  3.82333E+02 -3.85082E+02  4.06211E+02 -1.29215E+03 -6.93417E+02  1.37969E+01 -1.63129E+03
  1.00372E+03 -1.15010E+03  1.26374E+03  6.24908E+02  1.91706E+02 -2.47815E+02  1.43688E+03  1.14780E+03
  2.87672E+02  1.28023E+03  4.68440E+02  1.07128E+03 -1.28704E+03  1.16462E+02 -1.55543E+03 -7.79195E+02
 -8.66372E+02 -1.31250E+03 -4.75773E+01 -3.72643E+02 -1.94127E+03  7.23628E+01 -9.27920E+02  8.87570E+02
 -9.80713E+02  1.45231E+02 -1.07278E+03 -1.96267E+03  8.94303E+02 -2.87367E+03  1.65673E+03 -1.41826E+03
  1.67807E+03  9.92269E+02  1.51659E+03  7.87044E+02 -2.02136E+02  1.59090E+03 -6.39113E+02  7.75197E+02
