 $NMID ID='MM_0lb_SNR200_17hz_g40_55.RAW', FMTDAT='(8E13.5)'
 TRAMP=1., VOLUME=1. $END
  3.09369E+05  3.11532E+02  3.37972E+05  2.50997E+05  8.57958E+04  3.36242E+05 -1.32912E+05  2.50418E+05
 -1.90145E+05  8.21596E+04 -1.11631E+05 -3.25310E+04  5.98622E+02 -5.09771E+04  5.36782E+04 -6.60740E+01
  3.54659E+04  5.21372E+04 -1.53761E+04  7.45460E+04 -6.09756E+04  6.39347E+04 -8.35745E+04  3.11774E+04
 -7.90279E+04 -1.09065E+04 -5.62738E+04 -5.07131E+04 -1.48813E+04 -6.90528E+04  2.67197E+04 -4.59977E+04
  3.80944E+04  3.91962E+03  1.48219E+04  4.69606E+04 -3.36314E+04  4.62685E+04 -6.52331E+04 -9.69788E+02
 -5.16025E+04 -5.57878E+04 -5.02394E+03 -7.50675E+04  3.28521E+04 -5.38816E+04  4.64132E+04 -1.72421E+04
  4.11320E+04  1.08822E+04  3.08823E+04  2.50229E+04  1.57973E+04  2.91095E+04 -5.39288E+03  2.65522E+04
 -2.15405E+04  1.22863E+04 -2.02521E+04 -4.17152E+03  4.38325E+03 -7.16988E+03  2.12584E+04  1.19350E+04
  6.27770E+03  3.34973E+04 -3.05847E+04  3.36099E+04 -6.12058E+04  2.13959E+03 -5.62211E+04 -4.18171E+04
 -1.28447E+04 -6.09337E+04  3.80513E+04 -4.35500E+04  5.56053E+04 -2.01525E+03  3.16032E+04  3.18755E+04
 -5.78407E+03  3.27119E+04 -2.85061E+04  1.44107E+04 -2.84030E+04 -5.03719E+03 -1.44752E+04 -8.79752E+03
 -7.07140E+03 -1.17975E+04 -1.51010E+02 -1.67153E+04  5.64438E+03 -2.17762E+04  1.40294E+04 -1.43266E+04
  1.30321E+04  5.77050E+03 -6.38951E+03  1.27283E+04 -1.92217E+04 -1.99208E+03 -8.44188E+03 -3.06652E+04
  2.12123E+04 -4.16524E+04  4.55723E+04 -1.87150E+04  4.11459E+04  1.71349E+04  1.40866E+04  4.14212E+04
 -1.54395E+04  3.15927E+04 -2.39026E+04  1.22686E+03 -7.60851E+03 -2.62333E+04  2.02430E+04 -3.14409E+04
  3.75989E+04 -8.03375E+03  3.25659E+04  2.29897E+04  1.51278E+04  4.35971E+04 -8.74080E+03  4.62876E+04
 -2.82978E+04  3.04611E+04 -3.72816E+04  8.54603E+03 -3.98566E+04 -1.50230E+04 -2.23565E+04 -3.46171E+04
  6.96415E+03 -3.47823E+04  3.00088E+04 -1.23161E+04  2.62846E+04  1.08403E+04  3.48992E+03  1.83307E+04
 -1.18257E+04  7.12303E+03 -1.14536E+04 -7.76965E+03  6.19523E+03 -9.92071E+03  1.75202E+04  5.83802E+03
  1.23477E+04  2.22146E+04 -6.68198E+03  2.27118E+04 -2.14583E+04  9.80578E+03 -2.39225E+04 -6.44165E+03
 -1.71157E+04 -1.58392E+04 -6.79107E+03 -1.71401E+04  5.33745E+03 -1.56061E+04  1.24096E+04 -1.47306E+04
  2.28525E+04 -1.04411E+04  2.88507E+04  2.12676E+03  2.25495E+04  1.74008E+04  4.38914E+03  3.26329E+04
 -1.59774E+04  2.71820E+04 -2.65960E+04  9.37588E+03 -1.97110E+04 -1.10659E+04 -4.06361E+03 -1.35696E+04
  2.73086E+03 -4.64004E+03 -2.08195E+03  5.67805E+03 -1.28481E+04  5.18548E+03 -1.39003E+04 -3.89478E+03
 -7.48207E+03 -1.55139E+04  4.28694E+03 -1.91335E+04  1.51351E+04 -1.45550E+04  1.55437E+04 -7.89663E+02
  8.83562E+03  1.10593E+04 -1.65594E+03  1.61215E+04 -1.10528E+04  9.08373E+03 -1.59475E+04 -4.14295E+03
 -1.19865E+04 -1.48520E+04 -2.60432E+03 -1.93923E+04  8.98522E+03 -1.58709E+04  1.67092E+04 -7.64558E+03
  1.51439E+04  1.08261E+03  1.12458E+04  4.28135E+03  5.06209E+03  1.08527E+02  8.18819E+03 -4.06932E+02
  1.38065E+04  2.66201E+03  1.54536E+04  1.26865E+04  9.20245E+03  2.45769E+04 -3.08357E+03  2.73621E+04
 -1.57871E+04  2.15121E+04 -2.68238E+04  1.01368E+04 -2.67857E+04 -6.98112E+02 -2.21704E+04 -1.50549E+04
 -1.02113E+04 -2.10487E+04  6.72392E+03 -2.00242E+04  1.77855E+04 -1.03618E+04  1.59692E+04  2.96728E+03
  5.91364E+03  1.26154E+04 -7.90493E+03  1.00001E+04 -1.29528E+04  2.23513E+03 -1.07798E+04 -9.42899E+03
 -1.00976E+02 -1.32822E+04  5.91527E+03 -9.80512E+03  8.51609E+03 -8.81638E+02  7.59211E+02  5.82797E+03
 -5.42649E+03  1.98393E+03 -3.45389E+03 -5.03771E+03  1.25903E+03 -1.10713E+04  8.32656E+03 -1.04640E+04
  1.25558E+04 -5.39729E+03  1.31014E+04  2.48280E+03  1.07472E+04  9.52036E+03  5.02619E+03  1.44027E+04
 -1.29389E+03  1.68809E+04 -9.35709E+03  1.23120E+04 -1.16420E+04  2.79615E+03 -9.25627E+03 -1.68397E+03
 -3.61744E+03 -3.96466E+03 -6.25119E+02  2.27395E+03 -2.28166E+03  2.20043E+03 -4.68466E+03  4.52346E+03
 -8.27567E+03  8.14055E+02 -9.17839E+03 -8.63601E+03 -4.07580E+03 -1.22785E+04  3.40458E+03 -8.35304E+03
  7.21215E+03 -3.48384E+03  4.44870E+03  2.40030E+03  4.41403E+02  2.04587E+03 -3.67837E+03  6.21433E+02
 -3.80148E+03 -5.18769E+03 -3.61467E+01 -7.67465E+03  4.80248E+03 -8.87400E+03  1.11579E+04 -4.62702E+03
  1.17731E+04  9.70419E+02  9.08899E+03  6.84495E+03  3.08096E+03  9.01632E+03 -4.94443E+03  8.75300E+03
 -6.53869E+03  3.05959E+03 -3.19732E+03 -1.75008E+03  1.15107E+03 -2.28823E+03  4.94464E+03 -5.95176E+02
  4.60061E+03  3.51177E+03  1.29392E+03  6.99246E+03 -4.52109E+03  7.34212E+03 -8.75714E+03  1.80697E+03
 -5.44988E+03 -4.08541E+03  6.79752E+02 -7.37038E+03  4.24394E+03 -3.63271E+03  3.82907E+03  1.17653E+03
  8.59698E+02  3.95287E+03 -4.27518E+03  5.04629E+03 -5.89911E+03  3.44988E+03 -5.34872E+03 -2.89954E+03
 -2.15924E+03 -5.97622E+03  1.79127E+03 -8.22943E+03  5.16776E+03 -5.35658E+03  6.77497E+03  1.07274E+03
  3.83130E+03  5.30052E+03  5.45454E+02  7.01356E+03 -5.82388E+03  4.17250E+03 -5.37124E+03 -6.03469E+02
 -6.00692E+03 -5.67366E+03 -2.07031E+03 -7.23774E+03  3.20758E+03 -5.30826E+03  2.87919E+03 -2.72044E+03
  4.52375E+03  5.36556E+02 -3.56993E+01  9.65478E+02  5.70709E+02 -2.65673E+02 -7.35080E+01 -2.22698E+03
  4.13478E+03 -1.39096E+03  6.10793E+03  1.01665E+03  6.28099E+03  3.27277E+03  4.50162E+03  7.83622E+03
 -2.87251E+03  9.46970E+03 -7.88880E+03  7.13220E+03 -1.13335E+04  1.18140E+03 -9.23830E+03 -3.40333E+03
 -4.35094E+03 -7.41016E+03 -8.13419E+02 -5.63149E+03  3.20027E+03 -1.90790E+03  2.14029E+03 -1.86468E+03
  7.10901E+02 -1.45928E+03  3.10752E+03 -1.60417E+03  4.60471E+03 -1.36621E+03  5.05483E+03  6.24718E+02
  5.46757E+03  3.52787E+02  1.60759E+03  3.85178E+03 -1.41338E+03  3.75304E+03 -5.56651E+03  3.80650E+03
 -6.11874E+03 -1.73058E+03 -1.96716E+03 -4.93895E+03  2.05393E+02 -5.17532E+03  2.47109E+03 -6.15308E+03
  5.27238E+03 -3.31562E+03  7.04668E+03  9.76896E+02  6.11651E+03  5.73595E+03  1.64181E+03  5.95674E+03
 -2.62387E+03  7.67963E+03 -4.17919E+03  2.25170E+03 -2.04325E+03 -4.85491E+01 -3.76663E+02 -1.15382E+03
 -3.80815E+02 -2.47329E+02 -1.34745E+03  2.57225E+03 -3.22471E+03  1.30411E+03 -3.81920E+03 -4.74286E+02
 -2.35731E+03 -4.60630E+03 -7.03183E+01 -5.43484E+03  3.00740E+03 -4.98313E+03  4.06954E+03 -1.05576E+03
  5.52879E+03  3.39199E+03  2.11654E+03  4.45030E+03 -8.12044E+02  5.34018E+03 -2.98995E+03  3.20048E+03
 -4.96504E+03  9.32143E+02 -3.19185E+03 -2.77872E+03 -1.40727E+03 -4.89172E+03  2.38994E+03 -3.03523E+03
  1.38233E+03 -2.54397E+03  2.56788E+03  8.89788E+02  7.25604E+02  2.86736E+03  8.70637E+00  6.28480E+02
  2.04775E+03  1.33717E+03  1.74036E+03  2.06413E+03  3.98289E+02  1.99339E+03  1.54712E+03  2.44131E+03
 -1.24585E+03  3.03844E+03 -2.91846E+03  4.87666E+03 -3.21632E+03 -1.46179E+02 -4.59592E+03 -1.14748E+03
 -2.25367E+03 -4.79491E+03  1.62298E+03 -6.37485E+03  2.95552E+03 -2.74065E+03  4.11828E+03 -2.31562E+03
  2.28081E+03  2.49180E+03  3.05645E+02  3.62547E+03 -1.02751E+03  1.82044E+03 -1.50004E+03 -1.13012E+03
 -1.25467E+03 -1.14172E+03  1.43353E+03 -1.79672E+03  1.97974E+03 -8.12076E+02  1.07320E+03  1.38551E+03
  1.08712E+03  1.30513E+03  4.48396E+02  7.58555E+02  3.76541E+01  3.12821E+02  2.18542E+03 -8.02902E+02
  2.36807E+02 -2.27878E+02  2.35514E+03  1.24430E+03 -3.85447E+02  3.82905E+03 -8.04790E+01  3.70308E+03
 -1.23626E+03  1.80402E+03 -2.15544E+03  5.45047E+02 -2.46594E+03 -1.83804E+03 -1.59559E+02 -9.07027E+02
 -5.49634E+01 -1.52827E+03  1.37363E+03 -1.22982E+03  1.11099E+03  1.51324E+03 -4.01946E+02  1.88099E+03
 -9.40586E+02  1.18296E+03 -1.98927E+03 -1.53295E+03 -1.87435E+03 -3.23251E+03  4.83429E+02 -1.36397E+03
  2.43370E+03 -9.00598E+02  8.35013E+02  3.54190E+02  1.36451E+03  1.46542E+02  2.32961E+02  1.30753E+03
 -1.15968E+03  2.84409E+02 -7.37791E+02  4.36465E+02 -2.40567E+02 -1.81128E+03  1.68971E+03 -2.45358E+03
  2.94979E+03  3.52320E+02  3.58085E+03  5.19154E+02  4.58807E+02  3.02413E+03 -5.93156E+02  2.88392E+03
 -1.40465E+03  1.31838E+03 -2.71086E+03 -1.90892E+02 -2.05185E+03 -3.12418E+03  1.06025E+03 -5.54728E+02
  1.53507E+03 -1.33841E+03  1.45487E+03  5.12399E+02  1.65050E+02  1.42741E+03  5.43775E+02  4.88652E+02
 -8.74034E+01  9.01295E+02 -2.06964E+02 -5.05864E+02 -4.06892E+02 -8.06235E+02 -1.94873E+03  7.89300E+02
 -2.97791E+02  7.00865E+02 -3.53266E+03  1.02648E+03 -1.96120E+03 -1.78090E+01 -3.68426E+03 -1.40172E+03
 -6.30564E+02 -2.81569E+03  2.71329E+02 -3.84284E+03  2.52033E+03 -3.14170E+03  3.56607E+03 -1.26660E+03
  2.54417E+03  2.30432E+02  1.65084E+03  2.32420E+03 -9.85224E+02  2.02836E+03 -2.09962E+03  8.53529E+02
 -1.50737E+03  2.28737E+03 -8.98416E+02 -3.19578E+02 -6.84630E+02  5.44551E+02 -8.12494E+02  1.24435E+02
 -1.92699E+03  6.47506E+01 -1.34994E+03 -3.47227E+01  5.81912E+02 -2.71601E+02 -1.24569E+03 -9.07753E+02
  1.51282E+03 -1.65650E+03  8.77011E+02  2.85215E+02  3.71117E+02  9.43163E+02 -6.09561E+02  2.31921E+03
 -1.26757E+03  1.97488E+03 -2.96408E+03  2.34589E+03 -3.10684E+03 -3.22594E+02 -1.11599E+03 -6.24319E+02
 -5.03033E+01 -1.83966E+03 -6.52083E+02 -1.37693E+03  5.06028E+02 -1.08708E+03  5.33987E+02  2.17225E+02
  7.61578E+02  2.44907E+02  4.25534E+02  8.15888E+02 -5.00218E+01  6.58912E+01  8.54864E+02 -1.04044E+03
  4.72546E+02  4.11658E+02  1.74473E+02  1.04108E+03  3.97980E+01  1.33371E+03  3.59379E+02  1.66559E+03
 -1.48474E+03 -9.78428E+00 -6.39256E+01  7.16722E+02 -1.02868E+03 -1.00345E+03 -2.18336E+02 -1.96009E+02
  1.14500E+03 -6.43586E+02  1.71742E+03  2.87236E+02  6.59496E+02 -1.10750E+03  4.39101E+02  6.20142E+02
  4.77001E+02 -4.49621E+01  1.26482E+02  3.04414E+01 -5.85393E+02 -1.32163E+03 -7.70522E+02  2.04441E+02
 -3.94258E+02 -1.46982E+02 -1.21579E+03 -4.61015E+02 -5.35828E+02  2.34072E+02 -4.60736E+02  4.07808E+02
 -1.12547E+03 -5.30723E+02  1.71129E+02 -1.12756E+03  1.65955E+03 -1.82243E+03  4.58399E+02 -7.17109E+02
  1.33945E+03 -4.20945E+02 -3.48438E+02 -3.28564E+01 -4.21239E+02  7.83893E+02 -3.88135E+02  1.05945E+03
