 $NMID ID='MM_0lb_SNR200_17hz_g55_6.RAW', FMTDAT='(8E13.5)'
 TRAMP=1., VOLUME=1. $END
  3.09739E+05 -7.69309E+02  3.37745E+05  2.50266E+05  8.44995E+04  3.38239E+05 -1.31458E+05  2.50072E+05
 -1.89241E+05  8.32232E+04 -1.10895E+05 -3.27289E+04  1.27562E+03 -5.08452E+04  5.35307E+04 -1.73842E+02
  3.62171E+04  5.37065E+04 -1.81364E+04  7.47982E+04 -6.20580E+04  6.25816E+04 -8.40179E+04  3.22996E+04
 -8.00385E+04 -1.24825E+04 -5.69913E+04 -5.05824E+04 -1.42908E+04 -6.90185E+04  2.66426E+04 -4.54040E+04
  3.96008E+04  4.42605E+03  1.63580E+04  4.87763E+04 -3.43147E+04  4.67905E+04 -6.74191E+04  5.29367E+01
 -5.51990E+04 -5.68382E+04 -6.00436E+03 -7.56099E+04  3.34333E+04 -5.44074E+04  4.78793E+04 -1.71984E+04
  4.36181E+04  1.10458E+04  3.26489E+04  2.46600E+04  1.55057E+04  2.90010E+04 -4.43045E+03  2.66428E+04
 -2.27977E+04  1.24549E+04 -1.83526E+04 -4.87344E+03  6.23811E+03 -7.82105E+03  2.22041E+04  1.19276E+04
  6.62675E+03  3.45152E+04 -3.20200E+04  3.59047E+04 -6.27812E+04  2.33732E+03 -5.63025E+04 -4.20315E+04
 -1.28327E+04 -6.29352E+04  3.97628E+04 -4.40974E+04  5.67508E+04 -1.72749E+03  3.31640E+04  3.17026E+04
 -7.06220E+03  3.46685E+04 -2.90490E+04  1.46824E+04 -3.02642E+04 -4.63226E+03 -1.55072E+04 -9.95038E+03
 -7.94085E+03 -1.28389E+04 -6.41739E+02 -1.71896E+04  7.37219E+03 -2.28175E+04  1.46938E+04 -1.27476E+04
  1.03094E+04  4.38689E+03 -6.57587E+03  1.40556E+04 -2.00975E+04 -3.25682E+03 -8.07149E+03 -3.22486E+04
  2.24038E+04 -4.20686E+04  4.65016E+04 -1.95565E+04  4.38915E+04  1.84182E+04  1.45843E+04  4.33381E+04
 -1.53550E+04  3.24162E+04 -2.44569E+04  1.53720E+03 -8.60194E+03 -2.63050E+04  2.02823E+04 -3.25801E+04
  3.80508E+04 -8.27731E+03  3.35787E+04  2.36127E+04  1.66766E+04  4.33206E+04 -7.35871E+03  4.84041E+04
 -2.95176E+04  3.20194E+04 -3.94523E+04  8.89022E+03 -4.04745E+04 -1.54315E+04 -2.15258E+04 -3.65422E+04
  7.67050E+03 -3.61136E+04  3.06226E+04 -1.38232E+04  2.78780E+04  1.19265E+04  3.12518E+03  1.79669E+04
 -1.38908E+04  7.82638E+03 -1.01820E+04 -7.17274E+03  5.61595E+03 -9.50884E+03  1.85702E+04  6.35076E+03
  1.21929E+04  2.21250E+04 -6.28171E+03  2.40726E+04 -2.20682E+04  1.02618E+04 -2.74542E+04 -5.96528E+03
 -1.82779E+04 -1.67599E+04 -6.79522E+03 -1.97734E+04  3.98445E+03 -1.84501E+04  1.38854E+04 -1.67802E+04
  2.34100E+04 -1.21505E+04  3.09201E+04  2.71519E+03  2.23184E+04  1.91411E+04  4.19183E+03  3.45925E+04
 -1.75327E+04  2.95575E+04 -2.72312E+04  1.02156E+04 -2.08839E+04 -1.01066E+04 -3.88219E+03 -1.38682E+04
  2.30556E+03 -3.61602E+03 -2.75708E+03  6.10890E+03 -1.46701E+04  5.67449E+03 -1.62780E+04 -6.02849E+03
 -9.83551E+03 -1.71525E+04  4.49815E+03 -2.10247E+04  1.45023E+04 -1.54494E+04  1.70930E+04 -1.26984E+03
  1.09295E+04  1.19340E+04 -8.99538E+02  1.79519E+04 -1.18926E+04  9.34387E+03 -1.78045E+04 -3.51212E+03
 -1.33498E+04 -1.62463E+04 -7.87385E+02 -2.14798E+04  9.73454E+03 -1.56866E+04  1.76264E+04 -8.29375E+03
  1.58969E+04  1.16523E+03  1.20225E+04  4.16815E+03  5.77582E+03  1.98858E+01  8.43845E+03 -2.74544E+03
  1.60674E+04  2.88494E+03  1.71368E+04  1.38592E+04  1.22772E+04  2.70532E+04 -4.69597E+03  3.05821E+04
 -1.76186E+04  2.41017E+04 -2.85699E+04  1.10991E+04 -2.97664E+04 -1.76684E+03 -2.48197E+04 -1.66102E+04
 -1.05441E+04 -2.42245E+04  8.36858E+03 -2.24080E+04  1.88847E+04 -1.12760E+04  1.75192E+04  4.88007E+03
  7.58592E+03  1.24127E+04 -8.50917E+03  1.03792E+04 -1.49146E+04  2.43419E+03 -1.21579E+04 -1.08016E+04
  1.41357E+02 -1.44758E+04  7.18166E+03 -9.60931E+03  8.86606E+03 -1.94386E+03  2.12724E+03  5.13268E+03
 -5.01756E+03  2.32285E+03 -6.00718E+03 -4.12493E+03  4.67070E+02 -1.16398E+04  7.45218E+03 -1.08531E+04
  1.60967E+04 -5.29197E+03  1.48601E+04  2.72471E+03  1.26367E+04  1.25906E+04  6.19274E+03  1.71206E+04
 -1.85049E+03  1.85411E+04 -1.18433E+04  1.15218E+04 -1.33411E+04  3.17262E+03 -9.43367E+03 -3.10092E+03
 -5.07416E+03 -4.01617E+03 -5.92781E+02  1.06838E+03 -1.97297E+03  3.22064E+03 -2.99376E+03  2.52381E+03
 -8.34958E+03  2.46644E+02 -8.87752E+03 -7.67604E+03 -2.85542E+03 -1.26988E+04  5.23443E+03 -1.03158E+04
  7.24162E+03 -3.65768E+03  5.23023E+03  2.84677E+03  3.18379E+02  3.45501E+03 -3.95297E+03 -6.61127E+02
 -3.81741E+03 -6.51390E+03 -3.20919E+02 -7.99311E+03  4.70994E+03 -9.30320E+03  1.13955E+04 -4.78219E+03
  1.41457E+04  5.56743E+01  1.14253E+04  7.20418E+03  3.22167E+03  1.03463E+04 -5.14324E+03  9.50080E+03
 -8.04811E+03  2.16654E+03 -4.61513E+03 -1.53976E+03  6.30378E+02 -1.69778E+03  5.30054E+03 -1.99268E+03
  6.60344E+03  4.39337E+03  3.76080E+01  8.27994E+03 -4.67105E+03  8.20921E+03 -9.45408E+03  1.78355E+03
 -5.95663E+03 -4.42612E+03  5.02902E+02 -7.83306E+03  5.17777E+03 -4.48975E+03  5.28741E+03  1.88834E+03
  1.08996E+03  3.67651E+03 -3.97470E+03  5.44558E+03 -6.45412E+03  1.87963E+03 -6.26902E+03 -1.46197E+03
 -3.23925E+03 -8.07049E+03  1.85963E+03 -9.34835E+03  7.84221E+03 -6.86154E+03  8.42758E+03  1.57532E+03
  6.71091E+03  6.59820E+03 -7.35115E+02  8.92931E+03 -5.02697E+03  5.39839E+03 -7.42305E+03 -1.46199E+03
 -6.80867E+03 -5.97475E+03 -9.25436E+02 -6.44277E+03  1.92076E+03 -5.22145E+03  2.93700E+03 -2.03276E+03
  3.00389E+03 -2.37485E+02  1.02464E+03  1.20886E+03  1.75189E+02 -9.16952E+02  1.07323E+03 -2.01756E+03
  4.59875E+03 -1.72060E+03  7.13030E+03  1.22488E+03  7.72392E+03  4.87104E+03  5.15988E+03  9.22704E+03
 -1.75821E+03  1.03740E+04 -9.65433E+03  8.50526E+03 -1.16256E+04  1.90773E+03 -8.95888E+03 -3.85516E+03
 -4.08351E+03 -7.43110E+03  6.18196E+02 -6.26875E+03  2.79517E+03 -3.84345E+03  9.49529E+02 -2.35027E+03
  1.71969E+03 -1.87493E+03  2.04571E+03 -1.95565E+03  4.85183E+03 -1.73972E+03  4.48299E+03 -9.00821E+01
  5.79780E+03  1.61189E+03  1.75999E+03  3.95074E+03 -9.82251E+02  4.20958E+03 -4.89739E+03  4.47575E+03
 -5.74576E+03 -1.26961E+03 -2.22816E+03 -3.43343E+03  9.65028E+02 -6.73929E+03  4.38015E+03 -6.15474E+03
  5.43643E+03 -3.13739E+03  8.72332E+03 -8.65117E+02  5.96179E+03  4.73531E+03  1.21516E+03  7.05783E+03
 -3.47874E+03  5.85664E+03 -4.76188E+03  1.81162E+03 -2.27164E+03 -9.17207E+02 -1.03909E+03 -9.24270E+02
  1.71721E+02 -7.26887E+02 -7.94506E+02  1.25713E+03 -2.80753E+03  1.20599E+03 -4.83592E+03  6.11044E+02
 -3.33290E+03 -4.32137E+03  1.96742E+02 -4.81846E+03  3.14356E+03 -6.68516E+03  4.21364E+03 -1.57733E+03
  5.29808E+03  1.54532E+03  2.81817E+03  4.48397E+03 -1.19823E+03  5.54930E+03 -3.65587E+03  2.97938E+03
 -5.17954E+03  1.29410E+03 -4.83566E+03 -2.00380E+03 -7.44950E+02 -4.17118E+03  2.84063E+03 -4.20319E+03
  3.31020E+03 -1.91396E+03  1.46662E+03  1.13696E+03  1.12589E+03  2.11057E+03  1.41893E+03  5.54767E+02
  2.21614E+03  4.76783E+01  1.47030E+03  1.17546E+03  7.27404E+02  3.10241E+03  8.13537E+02  2.27863E+03
 -1.51640E+03  3.51972E+03 -2.98403E+03  4.64803E+03 -3.59422E+03  6.84376E+02 -5.50038E+03 -4.64678E+02
 -2.28253E+03 -4.32189E+03  1.32510E+03 -5.09874E+03  2.51611E+03 -2.25795E+03  3.43145E+03 -8.22353E+02
  4.01258E+03  1.80708E+03 -5.35095E+00  2.19282E+03 -1.09235E+03  2.54281E+03 -1.09636E+03  1.15142E+02
 -1.68598E+03 -1.39848E+03  1.30467E+03 -2.34947E+03  1.76471E+03 -1.87027E+03  9.08754E+02 -2.01303E+02
  1.56722E+03  2.11991E+02  1.22375E+03 -2.81507E+02 -3.35152E+02  1.95440E+03  1.22627E+03  3.41147E+02
  1.55189E+02 -1.19036E+03  3.28235E+03 -2.62835E+02 -1.18955E+02  4.01988E+03  2.73454E+02  3.69980E+03
 -2.35019E+03  1.56223E+03 -2.36279E+03  1.02700E+03 -3.14543E+03 -1.35354E+03  5.33571E+02 -7.96669E+02
  1.07602E+03 -2.63173E+03  2.67076E+03 -6.21884E+02  2.24546E+02  5.75550E+02 -1.32336E+03  1.53722E+03
 -1.26214E+03  9.49298E+02 -2.30085E+03 -1.09751E+03 -6.24632E+02 -3.14194E+03 -2.28627E+02 -2.71367E+03
  2.37572E+03 -1.70999E+03  1.15609E+03  6.64866E+02  2.10649E+03  4.63687E+02  6.42852E+01  5.90871E+02
  1.92011E+00  2.08157E+02 -1.21687E+02  6.45499E+02  9.37201E+02 -1.05426E+03  2.24922E+03 -1.86795E+03
  2.45269E+03 -9.36826E+02  2.70410E+03  7.30910E+02  1.32966E+03  3.67904E+03 -4.56451E+02  1.85977E+03
 -1.10524E+03  9.24162E+02 -2.49571E+03  9.53143E+01 -1.43288E+03 -1.14780E+03 -1.34547E+03 -2.20452E+02
  1.13590E+03 -4.27385E+02  1.36695E+03  8.35357E+02 -7.95713E+01  9.85113E+02 -1.08871E+02  9.30966E+02
 -9.14757E+02  9.90100E+02  3.91506E+01  3.61548E+02  6.26948E+01  1.04231E+03 -5.01686E+02  1.30289E+03
 -1.08013E+03  1.53867E+03 -1.91855E+03  6.21536E+02 -2.45139E+03  6.34839E+01 -2.25433E+03 -1.52969E+03
 -1.43932E+03 -2.36746E+03  8.18107E+02 -3.25701E+03  5.76115E+02 -2.72887E+03  2.93732E+03 -1.71712E+03
  2.53682E+03  8.27071E+02  1.99296E+03  2.17352E+03 -3.14452E+02  3.38555E+03 -1.17744E+03  1.22129E+03
 -1.34629E+03  9.88168E+02 -1.04283E+03 -5.18559E+02  3.69962E+02 -9.35964E+02 -8.05014E+02  2.39986E+02
 -1.24688E+03  1.86185E+02 -2.18281E+02  4.82005E+02 -9.81159E+02 -1.96876E+03  5.47496E+02 -9.17559E+02
  1.82983E+03 -5.33290E+02  1.21918E+03 -2.10238E+01  1.46319E+03  1.42719E+03 -1.00741E+03  1.55880E+03
 -3.32793E+02  2.34982E+03 -1.66756E+03  8.46825E+02 -2.58437E+03  1.60626E+02 -1.41189E+03 -1.37409E+03
 -9.63284E+02 -1.39615E+03  1.03499E+03 -2.09249E+03  1.45437E+03 -9.39425E+01  7.52543E+02 -2.86551E+02
  2.86073E+02 -1.94565E+02  2.86969E+02  9.37875E+02 -8.32969E+02  3.51727E+01 -2.48275E+02  1.61825E+02
  1.83961E+03 -4.00007E+02  1.46568E+03  5.08228E+02  7.13315E+02  7.28317E+02  5.57649E+02  1.03239E+03
 -4.37111E+02  9.30717E+02 -1.25351E+03 -1.91444E+02 -8.13453E+02 -7.33029E+02 -8.53671E+02 -1.13931E+03
  6.66492E+02 -8.95429E+02  1.75709E+03 -7.62298E+00  1.55180E+03 -9.13005E+02  2.46003E+02  1.18733E+03
  6.59545E+02  2.33835E+02 -5.22792E+02 -3.80069E+02 -3.26419E+02 -2.90166E+02 -1.01696E+03 -5.44311E+02
  5.71971E+02 -8.75265E+02 -5.43364E+02  1.18931E+03 -9.80522E+02 -5.55531E+02 -1.76702E+03 -9.44852E+02
 -1.50576E+03 -6.41529E+02 -1.04914E+03 -2.78486E+02  7.42202E+02 -1.77866E+03  8.24645E+01 -1.11987E+03
  2.02665E+03 -4.75080E+02  1.03552E+03  9.11438E+02  1.73969E+02  8.81193E+02 -1.38341E+03  1.32390E+03
