 $NMID ID='MM_0lb_SNR200_15hz_g60_65.RAW', FMTDAT='(8E13.5)'
 TRAMP=1., VOLUME=1. $END
  3.10403E+05  1.29504E+03  3.36616E+05  2.49025E+05  8.45165E+04  3.37720E+05 -1.33170E+05  2.52375E+05
 -1.89395E+05  8.35959E+04 -1.12680E+05 -3.23544E+04  9.01137E+02 -5.10051E+04  5.46536E+04 -3.91142E+02
  3.56057E+04  5.25458E+04 -1.77689E+04  7.52957E+04 -6.06773E+04  6.38953E+04 -8.39230E+04  3.26390E+04
 -8.19295E+04 -1.02279E+04 -5.78832E+04 -5.11270E+04 -1.54743E+04 -6.96369E+04  2.79818E+04 -4.69097E+04
  4.08513E+04  3.94766E+03  1.57942E+04  4.83005E+04 -3.40257E+04  4.71776E+04 -6.79653E+04 -9.34576E+01
 -5.39095E+04 -5.78999E+04 -6.95051E+03 -7.67607E+04  3.37172E+04 -5.60818E+04  4.74085E+04 -1.80981E+04
  4.29172E+04  1.12487E+04  3.36942E+04  2.53974E+04  1.67234E+04  2.99747E+04 -4.80587E+03  2.82259E+04
 -2.16635E+04  1.26045E+04 -1.89765E+04 -5.42423E+03  6.07805E+03 -6.92017E+03  2.27948E+04  1.17253E+04
  7.48252E+03  3.59379E+04 -3.27478E+04  3.57673E+04 -6.56573E+04  2.99356E+03 -5.78072E+04 -4.44132E+04
 -1.25580E+04 -6.31107E+04  4.10161E+04 -4.46875E+04  5.87047E+04 -1.12946E+03  3.48013E+04  3.25665E+04
 -5.31383E+03  3.70428E+04 -2.97587E+04  1.68385E+04 -3.01700E+04 -4.94148E+03 -1.88098E+04 -1.06724E+04
 -8.07502E+03 -1.48940E+04  3.99460E+01 -1.88343E+04  4.91661E+03 -2.27810E+04  1.50964E+04 -1.31625E+04
  1.11408E+04  5.00968E+03 -8.62781E+03  1.25793E+04 -2.21361E+04 -4.55344E+03 -8.64799E+03 -3.45684E+04
  2.24119E+04 -4.45354E+04  5.03962E+04 -2.02277E+04  4.67768E+04  1.96176E+04  1.63007E+04  4.40898E+04
 -1.70653E+04  3.30816E+04 -2.53792E+04  1.62499E+03 -9.71483E+03 -2.84010E+04  2.11499E+04 -3.42030E+04
  4.17102E+04 -9.34923E+03  3.70375E+04  2.41604E+04  1.93854E+04  4.80529E+04 -8.50943E+03  5.06402E+04
 -3.27869E+04  3.50845E+04 -4.25110E+04  9.41116E+03 -4.35960E+04 -1.65384E+04 -2.35269E+04 -3.92953E+04
  7.93688E+03 -3.84371E+04  3.25834E+04 -1.45087E+04  2.93852E+04  1.10436E+04  4.68464E+03  1.98720E+04
 -1.32246E+04  9.06907E+03 -1.17440E+04 -7.47494E+03  5.61639E+03 -1.21047E+04  1.70602E+04  6.59175E+03
  1.31411E+04  2.25328E+04 -5.50129E+03  2.56545E+04 -2.18045E+04  1.09959E+04 -2.85364E+04 -3.97029E+03
 -2.10465E+04 -1.67520E+04 -7.85926E+03 -2.03500E+04  4.12407E+03 -2.01028E+04  1.63450E+04 -1.95908E+04
  2.58835E+04 -1.24806E+04  3.30198E+04  2.41402E+03  2.52100E+04  2.07010E+04  3.96065E+03  3.74933E+04
 -1.74836E+04  3.10170E+04 -2.79944E+04  1.01760E+04 -2.07330E+04 -1.02881E+04 -3.91095E+03 -1.40838E+04
  1.17995E+03 -2.12701E+03 -5.47874E+03  5.39013E+03 -1.59643E+04  5.43964E+03 -1.72338E+04 -8.16788E+03
 -1.06867E+04 -1.96532E+04  5.00609E+03 -2.26193E+04  1.47914E+04 -1.60756E+04  1.85370E+04 -1.88637E+02
  1.15958E+04  1.40015E+04  1.11399E+02  2.06289E+04 -1.20467E+04  1.05231E+04 -2.02987E+04 -4.34457E+03
 -1.49508E+04 -1.77331E+04 -1.26763E+03 -2.49108E+04  1.03442E+04 -1.91310E+04  1.99666E+04 -9.32656E+03
  1.82281E+04  8.87456E+02  1.29797E+04  4.61031E+03  7.31189E+03  1.31407E+03  9.51126E+03 -2.01512E+03
  1.85059E+04  3.18280E+03  1.93405E+04  1.50622E+04  1.37661E+04  3.19506E+04 -2.76137E+03  3.37272E+04
 -1.93720E+04  2.79264E+04 -3.19597E+04  1.52694E+04 -3.38885E+04 -2.44408E+03 -2.91163E+04 -1.98031E+04
 -1.22498E+04 -2.85011E+04  9.94248E+03 -2.60237E+04  2.15055E+04 -1.41093E+04  1.94631E+04  5.54317E+03
  7.13034E+03  1.51434E+04 -8.69507E+03  1.37513E+04 -1.59726E+04  1.86846E+03 -1.38666E+04 -1.04520E+04
 -8.52655E+02 -1.48475E+04  8.45584E+03 -1.13113E+04  1.12512E+04 -1.62995E+03  2.78047E+03  6.90863E+03
 -6.76122E+03  1.84243E+03 -6.00356E+03 -5.16592E+03 -8.08899E+01 -1.29481E+04  9.14158E+03 -1.38512E+04
  1.61825E+04 -8.49304E+03  1.88747E+04  3.45411E+03  1.56509E+04  1.40402E+04  6.74852E+03  2.11993E+04
 -2.89324E+03  2.32712E+04 -1.32345E+04  1.47566E+04 -1.63966E+04  3.61970E+03 -1.11807E+04 -5.48247E+03
 -5.06453E+03 -4.25299E+03 -1.84988E+03  2.18031E+02 -2.37450E+03  2.27717E+03 -5.05508E+03  3.44633E+03
 -1.01958E+04 -4.41303E+02 -1.12969E+04 -8.88684E+03 -4.79576E+03 -1.48578E+04  4.46441E+03 -1.13159E+04
  9.90266E+03 -5.81272E+03  5.01208E+03  2.30823E+03  5.17028E+01  5.41551E+03 -6.34662E+03 -1.39881E+03
 -6.19381E+03 -6.42571E+03 -9.97758E+02 -1.10481E+04  5.41182E+03 -1.21685E+04  1.47812E+04 -6.46519E+03
  1.65994E+04  7.15593E+02  1.17377E+04  1.10369E+04  1.35683E+03  1.28498E+04 -6.77639E+03  1.08963E+04
 -1.03670E+04  3.30416E+03 -3.64326E+03 -1.99136E+03  1.18155E+03 -1.25128E+03  6.70455E+03 -1.83828E+03
  4.52793E+03  5.84029E+03  1.20808E+03  8.38772E+03 -6.79898E+03  7.96572E+03 -1.10934E+04  1.56521E+03
 -6.68104E+03 -5.48516E+03  3.35652E+02 -9.08412E+03  5.94142E+03 -5.02319E+03  5.32328E+03  1.29430E+03
  1.62115E+03  5.49419E+03 -5.44360E+03  7.20123E+03 -7.74113E+03  2.84749E+03 -8.63979E+03 -2.35513E+03
 -4.83350E+03 -9.68741E+03  2.28450E+03 -1.17286E+04  9.69011E+03 -7.18380E+03  9.36084E+03  2.37795E+03
  7.13060E+03  8.45767E+03 -1.06732E+03  9.96943E+03 -7.97344E+03  5.97473E+03 -8.74212E+03 -1.26564E+03
 -6.01791E+03 -6.19922E+03 -6.27946E+02 -7.37312E+03  4.86284E+03 -5.18342E+03  4.75701E+03 -2.62659E+03
  3.22556E+03  4.76301E+02 -2.29114E+02  1.30779E+03  3.56886E+02 -1.78664E+03  7.44699E+02 -5.16586E+03
  7.18243E+03 -2.73401E+03  8.18836E+03  6.72285E+02  9.69839E+03  6.73310E+03  6.66661E+03  1.16007E+04
 -3.08143E+03  1.48352E+04 -1.18510E+04  1.09649E+04 -1.69201E+04  1.22941E+03 -1.23832E+04 -4.20609E+03
 -6.67849E+03 -9.07442E+03  5.13505E+02 -6.97091E+03  3.36172E+03 -4.19334E+03  3.05196E+03 -3.86240E+03
  1.88835E+03  2.17146E+02  2.31295E+03 -2.22686E+03  3.43419E+03 -1.92114E+03  5.66869E+03  8.23129E+01
  6.84452E+03  2.44645E+03  2.69924E+03  6.13564E+03 -1.82627E+03  6.02634E+03 -6.09139E+03  5.34906E+03
 -8.61237E+03 -1.94041E+03 -4.48692E+03 -6.52995E+03 -9.29725E+01 -9.11339E+03  4.74153E+03 -1.01204E+04
  7.86313E+03 -4.94729E+03  1.14154E+04  6.02958E+00  8.10013E+03  7.87060E+03  1.56300E+03  1.00594E+04
 -3.35118E+03  8.73326E+03 -6.40324E+03  2.87845E+03 -2.52674E+03 -5.38966E+02 -1.17910E+03 -1.96487E+03
 -1.79150E+03 -6.66920E+01 -9.87951E+02  2.29274E+03 -3.60311E+03  8.67505E+02 -5.77782E+03 -6.68095E+02
 -3.25562E+03 -5.32650E+03  3.97378E+02 -7.95186E+03  4.72018E+03 -5.89697E+03  5.94063E+03 -1.04040E+03
  6.66924E+03  4.28900E+03  2.70522E+03  7.43615E+03 -1.61809E+03  6.89616E+03 -6.13727E+03  5.02339E+03
 -7.10584E+03  3.83861E+02 -5.80226E+03 -3.91251E+03  1.04200E+03 -6.41864E+03  2.96547E+03 -5.11839E+03
  5.05294E+03 -1.71513E+03  2.50667E+03 -2.55564E+02  2.43520E+03  2.11051E+03  7.34527E+02  1.33186E+03
  2.49335E+03  7.55648E+02  1.42235E+03  1.18609E+03  1.52250E+03  4.35064E+03  1.42444E+03  4.60116E+03
 -9.81805E+02  4.39553E+03 -4.21916E+03  6.55825E+03 -6.09582E+03  1.73730E+03 -7.91061E+03 -2.08231E+03
 -2.76316E+03 -6.22331E+03  4.93737E+02 -7.05785E+03  3.90767E+03 -4.77623E+03  5.73003E+03 -1.61545E+03
  5.46767E+03  3.09952E+03  4.37358E+02  4.73807E+03 -1.59370E+03  3.18667E+03 -2.34508E+03 -7.08994E+02
 -1.63161E+03 -3.34619E+03  6.27258E+02 -2.45946E+03  3.19896E+03 -1.33529E+03  2.85477E+03 -1.43335E+02
  2.32019E+03  2.51837E+03  5.52388E+02  6.58444E+02 -1.91714E+03  5.79193E+02  1.93386E+03 -1.13731E+02
  8.50831E+02 -3.07410E+02  3.35686E+03  1.82367E+03 -6.11620E+02  4.30917E+03 -1.05898E+02  4.93392E+03
 -3.60124E+03  3.39176E+03 -4.33539E+03  9.34776E+02 -3.42110E+03 -2.71416E+03 -1.33208E+03 -1.72008E+03
 -2.20333E+02 -3.13555E+03  2.99500E+03 -1.98053E+03  1.91729E+03  1.95675E+03 -8.58135E+02  3.04885E+03
 -3.18493E+03  3.88238E+02 -3.75101E+03 -7.77097E+02 -1.96704E+03 -2.04035E+03  7.67708E+02 -2.59403E+03
  6.92562E+02 -1.20926E+03  2.82621E+03  2.28399E+02  3.47208E+03  9.63097E+02  7.32993E+02  1.83848E+03
 -5.49880E+02  8.64520E+02 -1.47997E+03 -1.04572E+02  4.36724E+01 -1.35933E+03  3.08145E+03 -2.36026E+03
  4.44505E+03  1.37628E+03  4.01787E+03  2.84009E+03  2.34465E+03  3.04206E+03 -6.01704E+02  2.46480E+03
 -2.71793E+03  1.19535E+03 -3.82962E+03 -7.94055E+02 -1.97213E+03 -2.36222E+03  1.08742E+03 -1.25098E+03
  3.08642E+03 -9.49495E+02  2.58146E+03  4.80775E+02  2.90452E+02  1.66924E+03 -4.46430E+02  3.74645E+03
 -5.95445E+02  1.06784E+03 -1.12044E+03  2.31159E+02  1.26868E+03  7.41012E+02 -1.11842E+01  6.23248E+02
 -1.93349E+03  1.35395E+03 -2.67192E+03  1.46620E+03 -3.95473E+03  2.55727E+02 -4.19688E+03 -2.21197E+03
 -2.56717E+03 -4.31412E+03  1.08258E+02 -5.83590E+03  3.18357E+03 -4.56701E+03  5.37185E+03 -2.17705E+03
  5.85117E+03 -2.65667E+02  2.90405E+03  2.69458E+03  5.27704E+02  2.98785E+03 -1.08452E+03  2.46559E+03
 -2.53739E+03  2.30581E+03  1.43143E+02 -7.86090E+01 -2.40934E+02  3.79082E+02 -4.54535E+02  8.88551E+02
 -1.90257E+03  1.30827E+03 -7.38727E+02  3.54873E+02  9.62275E+01 -1.49263E+03 -8.83910E+02 -1.00169E+03
  2.39178E+03 -8.19057E+02  1.47905E+03 -4.64342E+02  2.20269E+03  3.23892E+03 -1.81051E+01  2.64800E+03
 -1.89592E+03  3.42484E+03 -3.35637E+03  3.14382E+03 -3.28074E+03 -1.14863E+03 -3.74619E+03 -2.14767E+03
 -1.04119E+03 -2.99611E+03  2.23096E+03 -3.39502E+03  2.39054E+03 -2.95174E+03  1.51695E+03 -1.54992E+01
  1.76822E+03  4.48880E+02 -3.75893E+02  1.92651E+02 -7.19427E+02  8.43620E+01  3.34818E+02 -8.50899E+02
  1.56831E+03  8.96958E+01 -4.18077E+01  1.53681E+03  6.69810E+02  1.30977E+03  5.98846E+02  1.07655E+03
 -8.63825E+02  2.14022E+03 -1.37127E+03  2.13089E+01 -2.59669E+03 -1.52227E+03 -3.85028E+02 -1.76364E+03
  5.66419E+02 -1.43408E+03  1.29196E+03 -1.03720E+03  3.05859E+03 -3.27313E+02  8.55796E+02  1.54092E+03
  2.72406E+02  7.02315E+02  2.92803E+02  1.55378E+03 -1.63459E+03  1.82048E+03 -1.47766E+03  1.21319E+03
  8.26457E+01 -6.48457E+02 -8.70905E+02 -6.17207E+02 -1.89717E+03  1.23239E+03 -2.71543E+03  6.29866E+01
 -1.67121E+03 -4.22278E+01 -9.52057E+02 -1.44251E+03  8.69462E+02 -2.20350E+03  1.87126E+03 -6.12276E+02
  1.99990E+03  8.63187E+02  1.41884E+03  1.11897E+03 -7.82765E+02  2.36312E+03 -2.66246E+02  1.22804E+03
