 $NMID ID='MM_0lb_SNR200_11hz_g45_76.RAW', FMTDAT='(8E13.5)'
 TRAMP=1., VOLUME=1. $END
  3.09243E+05  1.25584E+03  3.35875E+05  2.50758E+05  8.45898E+04  3.38872E+05 -1.31857E+05  2.51108E+05
 -1.90142E+05  8.29637E+04 -1.11937E+05 -3.19395E+04  6.76615E+02 -5.07544E+04  5.38488E+04 -9.97442E+02
  3.74161E+04  5.43369E+04 -1.60301E+04  7.61584E+04 -6.05940E+04  6.44912E+04 -8.33285E+04  3.23082E+04
 -8.28431E+04 -1.07062E+04 -5.78507E+04 -5.19323E+04 -1.49170E+04 -7.07251E+04  2.93273E+04 -4.64548E+04
  4.06513E+04  4.35678E+03  1.71443E+04  4.83173E+04 -3.43480E+04  4.79016E+04 -6.72580E+04 -8.30852E+01
 -5.58909E+04 -5.73674E+04 -7.43250E+03 -7.73325E+04  3.50967E+04 -5.64808E+04  4.92975E+04 -1.84487E+04
  4.50945E+04  1.18829E+04  3.25260E+04  2.61452E+04  1.61140E+04  3.02743E+04 -6.90825E+03  2.80715E+04
 -2.21317E+04  1.17299E+04 -1.79677E+04 -4.47385E+03  7.91972E+03 -7.51285E+03  2.35965E+04  1.18572E+04
  6.47527E+03  3.67345E+04 -3.20140E+04  3.60295E+04 -6.56732E+04  9.01459E+02 -5.74691E+04 -4.39453E+04
 -1.21434E+04 -6.28874E+04  4.15159E+04 -4.70834E+04  6.06534E+04 -2.62056E+03  3.70816E+04  3.40741E+04
 -5.75705E+03  3.91171E+04 -2.97953E+04  1.53521E+04 -3.07065E+04 -4.56472E+03 -1.69035E+04 -1.21228E+04
 -8.94812E+03 -1.44052E+04 -8.55750E+02 -2.01220E+04  8.60850E+03 -2.38147E+04  1.53668E+04 -1.40707E+04
  1.15299E+04  5.49790E+03 -8.26473E+03  1.26699E+04 -2.18790E+04 -6.49324E+03 -9.22417E+03 -3.58097E+04
  2.52408E+04 -4.61573E+04  5.01384E+04 -2.23926E+04  4.64427E+04  1.97402E+04  1.38923E+04  4.65997E+04
 -1.66013E+04  3.52207E+04 -2.63741E+04  2.32069E+03 -9.08914E+03 -2.91241E+04  2.10751E+04 -3.55259E+04
  4.15035E+04 -9.38241E+03  3.62261E+04  2.39118E+04  1.86763E+04  4.89258E+04 -6.79635E+03  5.46906E+04
 -3.36146E+04  3.64518E+04 -4.42836E+04  1.00907E+04 -4.55785E+04 -1.67434E+04 -2.47857E+04 -4.00561E+04
  8.37583E+03 -4.00930E+04  3.23703E+04 -1.47735E+04  3.04452E+04  9.58936E+03  4.58392E+03  2.08418E+04
 -1.34441E+04  8.90131E+03 -1.02960E+04 -8.27736E+03  4.24168E+03 -1.11328E+04  1.85955E+04  4.53199E+03
  1.44080E+04  2.28031E+04 -5.33791E+03  2.67140E+04 -2.29903E+04  1.24997E+04 -2.97311E+04 -4.86015E+03
 -2.41245E+04 -1.77310E+04 -1.11159E+04 -2.31868E+04  4.53630E+03 -2.20511E+04  1.85383E+04 -2.01180E+04
  2.89765E+04 -1.43675E+04  3.63639E+04  4.45740E+03  2.57148E+04  2.20566E+04  4.95706E+03  3.85285E+04
 -1.86027E+04  3.16292E+04 -3.00804E+04  1.06869E+04 -2.19346E+04 -9.07798E+03 -4.76800E+03 -1.38369E+04
  1.41612E+03 -8.73167E+02 -5.18147E+03  7.86198E+03 -1.71779E+04  4.44211E+03 -1.91665E+04 -1.00492E+04
 -1.07253E+04 -2.27072E+04  4.43394E+03 -2.52155E+04  1.72005E+04 -1.73575E+04  2.03799E+04 -1.52188E+03
  1.26936E+04  1.52538E+04  1.09347E+02  2.21232E+04 -1.39737E+04  1.20650E+04 -2.14308E+04 -4.33650E+03
 -1.63738E+04 -1.81860E+04 -1.50619E+03 -2.56498E+04  1.10451E+04 -2.19620E+04  2.09732E+04 -1.04138E+04
  1.80980E+04 -9.18237E+02  1.41757E+04  4.72366E+03  7.34428E+03  3.64164E+02  1.15854E+04 -8.42410E+02
  1.95192E+04  3.10215E+03  2.14005E+04  1.79853E+04  1.49711E+04  3.32602E+04 -3.77075E+03  3.95274E+04
 -2.25103E+04  3.21904E+04 -3.59212E+04  1.62665E+04 -3.92255E+04 -3.29338E+03 -3.12517E+04 -2.34276E+04
 -1.21702E+04 -3.27557E+04  1.15526E+04 -2.79895E+04  2.39536E+04 -1.38274E+04  2.19666E+04  6.26122E+03
  6.83659E+03  1.74666E+04 -9.98406E+03  1.41649E+04 -1.58561E+04  3.48610E+03 -1.43089E+04 -1.21688E+04
  3.50663E+02 -1.79613E+04  9.60972E+03 -1.26560E+04  1.13553E+04 -6.65619E+02  3.42175E+03  8.25966E+03
 -8.83275E+03  4.12789E+03 -6.60230E+03 -6.96198E+03 -3.29128E+02 -1.48831E+04  1.05932E+04 -1.82614E+04
  1.92978E+04 -9.88909E+03  2.15861E+04  3.00314E+03  2.13139E+04  1.50714E+04  1.03841E+04  2.39917E+04
 -4.18373E+03  2.69489E+04 -1.68806E+04  1.74015E+04 -1.96084E+04  3.51463E+03 -1.41788E+04 -3.57263E+03
 -5.99182E+03 -5.83009E+03 -8.98357E+02 -8.01917E+01 -1.68065E+03  2.70216E+03 -7.06113E+03  6.14515E+03
 -1.18737E+04 -1.56762E+03 -1.31049E+04 -1.11483E+04 -5.36417E+03 -1.63822E+04  6.36749E+03 -1.35938E+04
  1.03133E+04 -5.28465E+03  8.21811E+03  5.96182E+03  1.37530E+02  5.87272E+03 -5.11788E+03 -3.07520E+00
 -7.08021E+03 -8.56716E+03 -9.10094E+02 -1.16426E+04  7.51655E+03 -1.39064E+04  1.71139E+04 -6.53200E+03
  1.99192E+04  1.56624E+03  1.35400E+04  1.13046E+04  3.58443E+03  1.58646E+04 -7.12287E+03  1.28387E+04
 -1.01221E+04  3.07058E+03 -6.54778E+03 -2.82413E+03  1.23372E+03 -3.08572E+03  5.95705E+03 -5.68798E+02
  7.07779E+03  6.35630E+03 -7.25336E+01  9.94886E+03 -7.11952E+03  1.07831E+04 -1.24812E+04  2.98732E+03
 -7.74886E+03 -7.50385E+03  1.13283E+03 -1.07964E+04  6.39935E+03 -6.26839E+03  7.24131E+03  2.99646E+03
  2.52704E+03  8.26233E+03 -6.46238E+03  1.00082E+04 -1.13550E+04  3.57054E+03 -1.21392E+04 -2.59289E+03
 -7.20970E+03 -1.33094E+04  3.83756E+03 -1.47282E+04  1.26535E+04 -8.65140E+03  1.42187E+04  2.46774E+03
  6.07245E+03  1.12087E+04 -8.15259E+02  1.23850E+04 -1.08291E+04  6.49524E+03 -1.05326E+04 -5.89031E+02
 -7.93565E+03 -9.60053E+03 -2.03474E+03 -9.79818E+03  4.61779E+03 -6.44621E+03  5.88216E+03 -3.63283E+03
  4.23816E+03  1.97348E+03 -8.84458E+02  1.09958E+03 -6.66917E+02 -1.80757E+03  4.65716E+02 -6.52160E+03
  8.43370E+03 -4.23727E+03  1.28312E+04  2.03149E+03  1.16463E+04  9.54119E+03  8.35593E+03  1.70468E+04
 -2.49411E+03  1.94932E+04 -1.57739E+04  1.40128E+04 -2.20751E+04  2.61053E+03 -1.73261E+04 -7.56721E+03
 -9.30631E+03 -1.36171E+04 -6.71475E+02 -1.17195E+04  4.56894E+03 -5.88821E+03  4.70346E+03 -4.95492E+03
  5.05356E+03 -3.49190E+03  3.68368E+03 -1.82158E+03  4.76359E+03 -3.11944E+03  6.60936E+03 -3.19668E+02
  9.58283E+03  1.31942E+03  2.37211E+03  5.86170E+03 -1.60880E+03  8.76189E+03 -9.20257E+03  7.45909E+03
 -1.23367E+04 -1.12658E+03 -5.46072E+03 -7.62091E+03 -1.36351E+03 -1.23145E+04  8.18818E+03 -1.26427E+04
  1.10837E+04 -8.18810E+03  1.60316E+04  1.48351E+03  1.12526E+04  1.00180E+04  1.35935E+03  1.34797E+04
 -6.59029E+03  1.16650E+04 -9.35908E+03  5.73222E+03 -5.85204E+03 -4.31477E+02 -2.94027E+03 -1.42135E+03
 -2.38512E+03  8.18048E+02 -1.52526E+03  3.16933E+03 -4.68677E+03  2.36302E+03 -8.41748E+03 -3.50459E+02
 -5.51053E+03 -7.47791E+03 -3.37894E+02 -1.14166E+04  6.38180E+03 -9.36836E+03  1.12659E+04 -3.49730E+03
  1.10181E+04  6.27373E+03  5.51320E+03  8.42549E+03 -2.13701E+03  1.00084E+04 -7.69358E+03  7.46190E+03
 -9.97872E+03  6.61672E+02 -7.57614E+03 -5.74320E+03  2.68136E+02 -8.89245E+03  4.79566E+03 -7.34306E+03
  7.36861E+03 -2.67459E+03  4.17460E+03  1.59139E+03  1.40855E+03  3.23092E+03  3.45363E+02  7.53820E+02
  3.52958E+03  1.91170E+02  3.01616E+03  1.90476E+03  3.14741E+03  4.51992E+03  3.96555E+03  4.89373E+03
 -2.27248E+03  1.00270E+04 -7.99796E+03  8.59763E+03 -1.08737E+04  4.07469E+03 -1.30924E+04 -5.06746E+03
 -5.88496E+03 -1.07276E+04  2.77369E+03 -1.33372E+04  6.61655E+03 -7.82745E+03  9.67003E+03 -1.31741E+03
  5.48743E+03  4.63337E+03  9.06942E+02  5.99183E+03 -3.13712E+03  3.93595E+03 -4.77794E+03 -9.64567E+02
 -2.92499E+03 -3.47794E+03  3.53911E+03 -5.02774E+03  6.20644E+03 -2.91544E+03  4.45195E+03  9.11953E+02
  9.82891E+02  1.81858E+03  1.07798E+03  2.03365E+03 -1.22190E+03  2.62409E+03  2.79751E+03  7.52742E+01
  1.13039E+03 -6.96592E+01  3.67863E+03  2.59059E+03  1.35159E+03  7.18925E+03 -4.09768E+02  8.88210E+03
 -5.70548E+03  5.77878E+03 -7.87960E+03  1.11419E+03 -7.30951E+03 -1.74718E+03 -2.04469E+03 -3.09305E+03
  1.30104E+03 -3.92414E+03  2.51505E+03 -1.27338E+03  2.88592E+03  2.21976E+03 -9.56424E+02  2.82552E+03
 -5.08002E+03  2.17988E+03 -5.22192E+03 -1.05923E+03 -7.92947E+02 -6.31089E+03  8.04879E+02 -6.07766E+03
  3.08777E+03 -3.14412E+03  4.68180E+03 -1.69462E+03  4.92541E+03  1.91896E+03 -1.71838E+02  2.32125E+03
 -1.38785E+03  1.13615E+03 -1.71093E+03 -2.24578E+03  1.68993E+03 -5.56511E+03  5.78677E+03 -4.08867E+03
  7.31123E+03  9.51100E+01  6.95667E+03  5.19853E+03  3.35405E+03  6.13379E+03 -2.05912E+03  6.66192E+03
 -5.59188E+03  2.06677E+03 -5.74694E+03 -2.07814E+02 -4.40585E+03 -5.33454E+03  2.09976E+03 -3.89720E+03
  4.15123E+03 -2.29051E+03  3.74897E+03  1.93388E+03  2.25745E+03  5.30066E+03  8.77322E+02  3.36027E+03
 -1.79350E+03  2.94075E+03 -2.51741E+03 -1.38350E+02 -8.42929E+02  1.87551E+03 -1.60573E+03  1.16890E+03
 -2.51426E+03  2.86716E+03 -5.46486E+03  1.59640E+03 -7.13698E+03 -1.55988E+03 -8.89264E+03 -4.18051E+03
 -5.05613E+03 -8.18545E+03  2.42866E+02 -1.04289E+04  6.10456E+03 -8.55041E+03  9.97829E+03 -3.70344E+03
  9.02859E+03  2.42405E+03  4.42383E+03  7.33779E+03  2.09160E+02  6.76676E+03 -2.03299E+03  4.62279E+03
 -3.53962E+03  2.47140E+03 -2.26971E+03  1.10937E+02 -4.62154E+02 -1.79638E+01  2.19003E+02 -3.10544E+02
  4.10511E+02  2.06733E+02 -9.63933E+02  3.95897E+02 -8.94734E+02 -2.29521E+03 -2.17990E+01 -2.63033E+03
  4.17531E+03 -1.82094E+03  2.93244E+03 -4.30048E+02  4.50882E+03  4.19922E+03  1.23666E+03  6.96052E+03
 -4.61334E+03  9.71870E+03 -8.31297E+03  6.04118E+03 -8.42584E+03 -3.67212E+01 -7.37300E+03 -5.85868E+03
 -2.15514E+03 -5.33821E+03  2.28048E+03 -7.03100E+03  5.04032E+03 -2.50455E+03  3.67715E+03  5.98125E+02
  1.22865E+03  1.75069E+03  1.42307E+03  2.19582E+03 -1.61340E+03 -4.52780E+01  1.02733E+03 -1.10167E+03
  3.34679E+03  3.85575E+02  2.63310E+03  6.96065E+02  6.73259E+01  2.52488E+03  1.10912E+03  3.52694E+03
 -3.16617E+03  2.35129E+03 -5.20318E+03 -4.16193E+02 -4.30280E+03 -4.21245E+03 -5.58247E+02 -6.44949E+03
  3.11321E+03 -4.93693E+03  5.52438E+03 -1.70024E+03  4.41282E+03 -6.00186E+02  3.00479E+03  5.23045E+03
  4.84199E+02  4.91562E+03 -1.10386E+03  4.58296E+03 -3.29605E+03  1.97891E+03 -2.37455E+03 -1.41832E+02
 -1.54970E+03  1.71393E+02 -1.72164E+03 -7.74317E+02 -3.37737E+03 -2.63665E+02 -3.49995E+03 -4.96672E+02
 -3.31665E+03 -2.16603E+03 -2.46507E+03 -5.30842E+03  3.11460E+03 -5.39669E+03  4.53629E+03 -2.84928E+03
  4.90060E+03  9.81560E+02  2.52259E+03  1.99388E+03 -1.90924E+03  3.85238E+03 -2.95608E+03  2.84399E+03
