 $NMID ID='MM_0lb_SNR200_7hz_g45_8.RAW', FMTDAT='(8E13.5)'
 TRAMP=1., VOLUME=1. $END
  3.09397E+05 -3.58285E+02  3.35966E+05  2.50728E+05  8.63415E+04  3.35456E+05 -1.33140E+05  2.53074E+05
 -1.91517E+05  8.39898E+04 -1.13018E+05 -3.28172E+04 -2.84847E+02 -4.95022E+04  5.31186E+04 -3.33315E+02
  3.60371E+04  5.29936E+04 -1.84771E+04  7.71736E+04 -6.05768E+04  6.57889E+04 -8.79087E+04  3.18695E+04
 -8.34463E+04 -1.19984E+04 -5.81013E+04 -5.16412E+04 -1.38221E+04 -7.15605E+04  2.90613E+04 -4.69527E+04
  4.15201E+04  3.83057E+03  1.68208E+04  4.80737E+04 -3.47605E+04  4.73862E+04 -6.72467E+04  8.18677E+02
 -5.79837E+04 -5.76552E+04 -6.74400E+03 -7.99785E+04  3.41327E+04 -5.77882E+04  5.11983E+04 -1.95738E+04
  4.58278E+04  1.13082E+04  3.21472E+04  2.67786E+04  1.48098E+04  3.16046E+04 -6.66522E+03  2.79645E+04
 -2.12697E+04  1.10169E+04 -1.73239E+04 -5.82504E+03  6.47987E+03 -6.24886E+03  2.27738E+04  1.49321E+04
  8.02221E+03  3.73327E+04 -3.57133E+04  3.75652E+04 -6.67026E+04  2.26671E+03 -5.92469E+04 -4.52149E+04
 -1.34244E+04 -6.59122E+04  4.27500E+04 -4.65462E+04  6.22395E+04 -3.86571E+03  3.83043E+04  3.43613E+04
 -5.21778E+03  3.99957E+04 -3.21243E+04  2.14929E+04 -3.45490E+04 -3.10451E+03 -1.98116E+04 -1.29235E+04
 -8.45860E+03 -1.47311E+04  2.30092E+03 -1.89218E+04  9.72147E+03 -2.43234E+04  1.33806E+04 -1.35137E+04
  9.54342E+03  7.81044E+03 -1.12069E+04  1.14266E+04 -2.43653E+04 -6.60125E+03 -7.13894E+03 -3.77798E+04
  2.66945E+04 -4.63342E+04  5.27107E+04 -1.92417E+04  5.09857E+04  2.09363E+04  1.77502E+04  4.83798E+04
 -1.59287E+04  3.64185E+04 -3.06147E+04  2.65880E+03 -1.33297E+04 -2.77545E+04  2.03470E+04 -3.64581E+04
  4.54890E+04 -1.08817E+04  4.11877E+04  2.47948E+04  2.33459E+04  5.25333E+04 -8.45315E+03  5.69011E+04
 -3.66896E+04  3.92379E+04 -4.79039E+04  9.81972E+03 -5.09367E+04 -2.00079E+04 -2.79758E+04 -4.38999E+04
  9.50499E+03 -4.39386E+04  3.42673E+04 -1.87966E+04  3.28166E+04  1.16614E+04  6.28207E+03  2.08178E+04
 -1.33877E+04  1.04319E+04 -1.08379E+04 -7.15805E+03  6.16259E+03 -1.31349E+04  1.83704E+04  4.29678E+03
  1.63679E+04  2.32405E+04 -5.52308E+03  2.94983E+04 -2.33930E+04  1.50130E+04 -3.28374E+04 -1.86213E+03
 -2.64858E+04 -1.82534E+04 -1.41637E+04 -2.60032E+04  4.39490E+03 -2.69037E+04  2.33488E+04 -2.49273E+04
  3.59374E+04 -1.48142E+04  3.83105E+04  6.68655E+03  2.91233E+04  2.65192E+04  4.74418E+03  4.25453E+04
 -2.08453E+04  3.67851E+04 -3.28889E+04  1.19605E+04 -2.25959E+04 -1.02578E+04 -6.59692E+03 -1.19786E+04
 -4.40978E+02  3.61519E+02 -1.01730E+04  9.19567E+03 -2.27468E+04  5.10336E+03 -2.26539E+04 -1.03028E+04
 -1.10840E+04 -2.62084E+04  6.71883E+03 -2.75159E+04  2.03416E+04 -2.01018E+04  2.44307E+04 -2.26896E+03
  1.49580E+04  1.71594E+04 -1.09097E+03  2.49138E+04 -1.78995E+04  1.44305E+04 -2.53958E+04 -2.97447E+03
 -1.91174E+04 -2.34882E+04 -1.92693E+03 -3.00311E+04  1.22324E+04 -2.53900E+04  2.60054E+04 -1.19763E+04
  2.33889E+04 -2.92560E+03  1.77365E+04  6.10713E+03  9.59295E+03  9.17542E+02  1.28612E+04 -1.52491E+03
  2.24875E+04  3.53200E+03  2.79936E+04  2.01296E+04  2.08935E+04  4.09684E+04 -7.96692E+02  4.87250E+04
 -2.90512E+04  3.95945E+04 -4.40234E+04  2.21724E+04 -4.76534E+04 -3.94624E+03 -3.89044E+04 -3.07655E+04
 -1.68516E+04 -4.10756E+04  1.68678E+04 -3.46192E+04  2.75927E+04 -1.51451E+04  2.67123E+04  8.89698E+03
  7.76049E+03  2.02801E+04 -1.13353E+04  1.62300E+04 -2.22079E+04  2.56969E+03 -1.56744E+04 -1.31407E+04
 -2.03878E+03 -2.16780E+04  1.06091E+04 -1.44984E+04  1.59550E+04 -5.78309E+02  2.15043E+03  1.17166E+04
 -1.00683E+04  4.82609E+03 -1.01769E+04 -7.71982E+03 -2.48266E+03 -1.82627E+04  1.18342E+04 -2.15309E+04
  2.61501E+04 -1.17800E+04  2.95445E+04  2.61677E+03  2.56445E+04  1.97708E+04  1.28491E+04  3.18943E+04
 -7.16797E+03  3.58934E+04 -2.29636E+04  2.16503E+04 -2.35922E+04  4.87303E+03 -1.68120E+04 -6.48215E+03
 -6.53864E+03 -8.10479E+03 -9.50466E+02 -1.01799E+03 -3.07808E+03  4.53474E+03 -9.76852E+03  5.75369E+03
 -1.58604E+04 -8.43627E+02 -1.68784E+04 -1.12802E+04 -6.78302E+03 -2.18674E+04  5.69709E+03 -1.82499E+04
  1.52372E+04 -5.57138E+03  1.08345E+04  4.62619E+03 -2.34229E+03  7.85823E+03 -9.63573E+03 -6.65741E+02
 -9.43521E+03 -1.17538E+04 -2.15922E+03 -1.80701E+04  1.13690E+04 -1.79720E+04  1.91018E+04 -1.04296E+04
  2.67251E+04  2.85587E+03  1.77618E+04  1.55199E+04  3.37511E+03  1.98884E+04 -1.11718E+04  1.65860E+04
 -1.30995E+04  5.49852E+03 -5.95993E+03 -4.44510E+03  2.07543E+03 -5.34104E+03  7.65367E+03 -2.33402E+02
  9.24519E+03  7.95106E+03  4.19690E+03  1.36619E+04 -9.96069E+03  1.22162E+04 -1.73051E+04  8.41818E+02
 -1.13141E+04 -9.91906E+03 -1.40621E+02 -1.44317E+04  9.89772E+03 -8.52669E+03  8.61559E+03  3.69827E+03
  4.51139E+03  1.23197E+04 -7.59692E+03  1.18488E+04 -1.63367E+04  5.31411E+03 -1.54852E+04 -5.28430E+03
 -1.05596E+04 -1.77625E+04  4.38929E+03 -2.02214E+04  1.83151E+04 -1.22374E+04  1.81823E+04  3.51122E+03
  1.03277E+04  1.66768E+04 -3.71725E+03  1.75294E+04 -1.48648E+04  1.15842E+04 -1.63584E+04 -1.38871E+03
 -1.10307E+04 -1.14647E+04 -2.70024E+03 -1.37424E+04  7.53356E+03 -1.12504E+04  7.60987E+03 -2.92144E+03
  5.34920E+03  6.73610E+02 -2.42136E+03  1.62460E+03 -1.96877E+03 -2.81574E+03  2.87399E+03 -9.09937E+03
  1.32183E+04 -4.85714E+03  1.77089E+04  2.18449E+03  1.78371E+04  1.25574E+04  1.19039E+04  2.53647E+04
 -4.83044E+03  2.81259E+04 -2.20508E+04  2.25606E+04 -2.87655E+04  3.43610E+03 -2.33444E+04 -1.15557E+04
 -1.10053E+04 -1.95497E+04 -1.02091E+03 -1.67597E+04  6.54493E+03 -1.05798E+04  6.79733E+03 -5.73169E+03
  5.28397E+03 -1.05101E+03  5.09637E+03 -3.88553E+03  5.51959E+03 -3.90962E+03  9.22418E+03 -2.89583E+03
  1.21629E+04  2.40948E+03  8.82447E+03  1.20440E+04 -2.52458E+03  1.39329E+04 -1.42760E+04  1.08051E+04
 -1.72558E+04 -6.09254E+02 -1.23013E+04 -1.16779E+04 -1.57267E+03 -2.14036E+04  1.21309E+04 -1.99659E+04
  1.80531E+04 -1.10122E+04  2.23421E+04  3.81844E+03  1.54240E+04  1.77701E+04  2.87901E+03  2.23693E+04
 -9.19193E+03  1.50864E+04 -1.18343E+04  4.99760E+03 -7.89362E+03  1.17775E+03 -3.59459E+03 -3.30768E+03
 -3.29939E+03 -1.00931E+03 -3.20858E+03  4.30452E+03 -6.71777E+03  1.87925E+03 -1.11220E+04 -1.71338E+03
 -7.84573E+03 -1.30134E+04 -1.10913E+03 -1.68876E+04  1.19029E+04 -1.64122E+04  1.95233E+04 -5.90625E+03
  1.80905E+04  6.33977E+03  6.85640E+03  1.69735E+04 -2.59771E+03  1.87854E+04 -1.22100E+04  1.03440E+04
 -1.86714E+04  8.24021E+01 -1.13824E+04 -1.28991E+04 -1.92265E+03 -1.55118E+04  9.58493E+03 -9.49593E+03
  1.06504E+04 -2.80185E+03  8.34080E+03  3.11207E+03  2.72664E+03  4.22414E+03  8.01949E+02  2.29935E+03
  3.76444E+03  1.43059E+03  4.89683E+03  1.86958E+03  8.10554E+03  6.49416E+03  4.12481E+03  1.09417E+04
 -4.04206E+03  1.37039E+04 -1.42422E+04  1.25786E+04 -1.91338E+04  3.07148E+03 -1.83921E+04 -8.62737E+03
 -6.69906E+03 -2.03952E+04  2.04898E+03 -1.97946E+04  1.18085E+04 -1.28453E+04  1.65155E+04 -4.23624E+03
  1.03832E+04  7.42623E+03  3.46290E+03  1.08684E+04 -8.30118E+03  7.48195E+03 -7.97518E+03 -1.44286E+03
 -3.64952E+03 -8.64007E+03  5.13924E+03 -9.65104E+03  8.81281E+03 -3.12109E+03  8.56086E+03  1.09296E+02
  3.48736E+03  4.71386E+03  1.51642E+03  4.27844E+03 -2.06853E+03  2.82573E+03 -3.54340E+02 -1.78739E+03
  2.93724E+03 -2.52446E+02  7.66904E+03  3.50397E+03  4.64626E+03  1.29848E+04 -3.50487E+03  1.26775E+04
 -9.84632E+03  9.87846E+03 -1.23841E+04  2.72812E+03 -1.22697E+04 -2.19111E+03 -6.21770E+03 -8.97141E+03
  1.53154E+03 -8.59627E+03  6.28267E+03 -3.68244E+03  4.53141E+03  2.74880E+03 -2.78273E+03  7.67841E+03
 -9.32884E+03  3.20316E+03 -9.71395E+03 -3.29071E+03 -4.73380E+03 -1.16721E+04  2.11209E+03 -1.22226E+04
  7.56344E+03 -6.30501E+03  8.81976E+03 -1.85026E+03  5.25536E+03  3.76447E+03  2.66755E+03  7.10218E+03
 -5.20632E+03  2.66737E+03 -4.22986E+03 -3.88616E+03  1.76099E+03 -8.74519E+03  1.16695E+04 -7.67281E+03
  1.37644E+04  1.22257E+03  1.26888E+04  8.07218E+03  3.98229E+03  1.34814E+04 -4.95791E+03  1.21160E+04
 -1.14143E+04  7.04826E+03 -1.06968E+04 -7.43423E+02 -6.83885E+03 -8.18083E+03  4.40078E+03 -8.76636E+03
  8.53631E+03 -3.96512E+03  4.98042E+03  3.86911E+03  6.69598E+02  7.91115E+03 -1.30390E+03  6.28553E+03
 -4.18201E+03  3.39983E+03 -2.78343E+03  6.28244E+02 -8.00456E+02 -8.62688E+02 -2.00791E+03  2.88329E+03
 -3.88480E+03  4.92794E+03 -8.97225E+03  4.19996E+03 -1.34195E+04  6.92523E+02 -1.64227E+04 -9.19560E+03
 -6.56371E+03 -1.77797E+04  4.52654E+03 -2.03551E+04  1.37771E+04 -1.40868E+04  2.01850E+04 -6.16089E+03
  1.68772E+04  4.98841E+03  1.17083E+04  1.48117E+04  1.56531E+03  1.50458E+04 -5.03781E+03  1.12020E+04
 -8.65234E+03  3.68166E+03 -4.52029E+03 -2.68939E+03 -1.29388E+03 -1.02434E+03  6.41531E+02 -6.90912E+02
 -1.27469E+03  1.41235E+03 -3.03035E+03 -1.75933E+03 -2.74530E+03 -3.52394E+03  9.07362E+02 -4.95744E+03
  4.67500E+03 -4.59919E+03  8.28619E+03  7.38951E+02  1.15020E+04  6.91226E+03  1.92295E+03  1.60642E+04
 -8.19746E+03  1.46665E+04 -1.61623E+04  9.10852E+03 -1.88292E+04 -1.88825E+03 -1.33159E+04 -1.09640E+04
 -4.51566E+03 -1.38062E+04  2.88278E+03 -1.35812E+04  7.94215E+03 -7.43967E+03  8.68644E+03 -1.06493E+03
  4.48859E+03  5.52318E+03 -1.86129E+03  3.31543E+03 -3.52434E+03 -1.70916E+02  6.21104E+02 -4.62839E+03
  3.10724E+03 -2.16421E+03  6.90535E+03  1.85291E+03  3.93086E+03  5.78793E+03  3.51208E+02  8.85023E+03
 -6.07327E+03  6.62743E+03 -9.95465E+03  5.97633E+02 -8.68443E+03 -6.27953E+03 -6.97644E+01 -1.49742E+04
  7.72306E+03 -1.03878E+04  1.07947E+04 -3.56132E+03  1.17306E+04  4.46479E+03  6.28101E+03  8.44326E+03
 -6.12450E+02  9.09709E+03 -4.75166E+03  5.99337E+03 -7.09334E+03  5.52940E+03 -3.05225E+03 -6.86644E+02
 -2.38349E+03 -1.56099E+03 -2.65715E+03  1.21680E+03 -5.17996E+03  3.15683E+03 -7.60809E+03 -1.86237E+03
 -8.33901E+03 -4.32511E+03 -1.99628E+03 -1.20214E+04  4.83657E+03 -1.05949E+04  9.75124E+03 -5.16787E+03
  9.86237E+03  2.09989E+03  4.83544E+03  8.09521E+03  6.76841E+02  8.67813E+03 -8.23279E+03  7.78990E+03
