 $NMID ID='MM_0lb_SNR200_8hz_g60_69.RAW', FMTDAT='(8E13.5)'
 TRAMP=1., VOLUME=1. $END
  3.08972E+05 -1.39388E+02  3.37924E+05  2.50997E+05  8.62120E+04  3.36755E+05 -1.32402E+05  2.52793E+05
 -1.91347E+05  8.33769E+04 -1.14754E+05 -3.23889E+04 -3.14407E+02 -5.13265E+04  5.46989E+04 -3.00774E+03
  3.47767E+04  5.24900E+04 -1.66058E+04  7.52852E+04 -6.21554E+04  6.57859E+04 -8.63168E+04  3.23075E+04
 -8.23565E+04 -1.34106E+04 -5.95620E+04 -5.35481E+04 -1.33750E+04 -7.23672E+04  3.01101E+04 -4.58970E+04
  4.24322E+04  4.23176E+03  1.61018E+04  4.80207E+04 -3.59057E+04  4.77720E+04 -6.93025E+04  6.07704E+02
 -5.61577E+04 -5.94520E+04 -7.36306E+03 -8.06595E+04  3.59141E+04 -5.79122E+04  4.97323E+04 -1.75808E+04
  4.60638E+04  1.21015E+04  3.36768E+04  2.63476E+04  1.71180E+04  3.18903E+04 -5.30113E+03  2.87876E+04
 -2.29841E+04  1.23130E+04 -1.72460E+04 -7.28115E+03  6.81019E+03 -8.37437E+03  2.45490E+04  1.43838E+04
  6.62168E+03  3.80830E+04 -3.36207E+04  3.86275E+04 -6.45432E+04  2.14908E+03 -6.00674E+04 -4.57777E+04
 -1.25410E+04 -6.63810E+04  4.25544E+04 -4.76456E+04  6.13235E+04 -2.52895E+03  3.72546E+04  3.61928E+04
 -4.98800E+03  4.11194E+04 -3.23886E+04  2.22733E+04 -3.22519E+04 -3.66576E+03 -1.99753E+04 -1.21929E+04
 -1.14227E+04 -1.76916E+04 -1.72781E+02 -2.15501E+04  9.48004E+03 -2.34263E+04  1.67124E+04 -1.27175E+04
  1.06536E+04  6.59869E+03 -1.11882E+04  1.38132E+04 -2.47991E+04 -6.83342E+03 -8.27938E+03 -3.76261E+04
  2.49142E+04 -4.69138E+04  5.42640E+04 -2.05222E+04  5.07475E+04  2.24481E+04  1.77989E+04  4.80342E+04
 -1.76972E+04  3.53552E+04 -2.83229E+04  2.99292E+03 -1.26416E+04 -2.94132E+04  2.30366E+04 -3.83117E+04
  4.61045E+04 -1.25533E+04  4.40872E+04  2.65561E+04  2.32598E+04  5.32726E+04 -8.83673E+03  6.21809E+04
 -3.55498E+04  4.05511E+04 -4.84295E+04  1.29369E+04 -4.86305E+04 -1.79293E+04 -2.67046E+04 -4.40585E+04
  9.78227E+03 -4.35620E+04  3.52650E+04 -1.90967E+04  3.33087E+04  1.26748E+04  4.90519E+03  2.20732E+04
 -1.43119E+04  8.51108E+03 -1.12634E+04 -7.15481E+03  6.77452E+03 -1.09962E+04  1.83654E+04  4.13450E+03
  1.57845E+04  2.43492E+04 -4.73705E+03  2.87904E+04 -2.58724E+04  1.64578E+04 -3.18399E+04 -1.72076E+03
 -2.91051E+04 -1.98621E+04 -1.29914E+04 -2.66426E+04  4.77706E+03 -2.82723E+04  2.24714E+04 -2.50991E+04
  3.42189E+04 -1.54656E+04  4.09372E+04  5.07864E+03  2.88465E+04  2.55672E+04  5.33718E+03  4.28103E+04
 -2.11760E+04  3.52660E+04 -3.40611E+04  1.42032E+04 -2.51404E+04 -8.98761E+03 -7.62300E+03 -1.17259E+04
  4.00805E+02 -2.25271E+03 -9.57204E+03  8.78106E+03 -2.10610E+04  5.24338E+03 -2.19756E+04 -1.09621E+04
 -1.41714E+04 -2.66112E+04  7.53820E+03 -2.83412E+04  2.08178E+04 -1.98024E+04  2.29862E+04 -1.62569E+03
  1.55530E+04  1.76834E+04 -9.03322E+02  2.40219E+04 -1.97798E+04  1.53334E+04 -2.60476E+04 -5.36351E+03
 -1.87031E+04 -2.30654E+04 -2.61772E+03 -3.08961E+04  1.24611E+04 -2.54717E+04  2.53110E+04 -1.32481E+04
  2.22004E+04  1.35233E+03  1.98576E+04  7.27364E+03  8.56419E+03  1.09022E+03  1.29344E+04 -2.42966E+03
  2.50727E+04  3.88430E+03  2.76607E+04  2.02456E+04  1.90505E+04  4.01004E+04 -3.36178E+03  4.83049E+04
 -2.65026E+04  4.07466E+04 -4.68797E+04  2.16293E+04 -4.83380E+04 -4.16731E+03 -4.02775E+04 -3.03373E+04
 -1.59261E+04 -4.15156E+04  1.37381E+04 -3.53855E+04  3.02410E+04 -1.68998E+04  2.67559E+04  8.43964E+03
  6.38775E+03  1.99647E+04 -1.23131E+04  1.58952E+04 -2.14927E+04  3.43489E+03 -1.79869E+04 -1.40065E+04
  6.61829E+02 -2.07890E+04  1.08926E+04 -1.46509E+04  1.41318E+04 -3.41651E+03  6.02008E+03  1.05539E+04
 -9.07054E+03  4.70124E+03 -1.08703E+04 -7.74393E+03 -2.68337E+03 -2.01862E+04  1.30717E+04 -2.22847E+04
  2.57449E+04 -1.29529E+04  3.06279E+04  2.98554E+03  2.69869E+04  2.03212E+04  1.27671E+04  3.19276E+04
 -7.19359E+03  3.48108E+04 -2.06016E+04  2.17764E+04 -2.59541E+04  4.66428E+03 -1.68684E+04 -7.91549E+03
 -6.20755E+03 -9.01608E+03 -3.34739E+02 -9.17699E+02 -3.90685E+03  3.43933E+03 -7.43779E+03  4.38985E+03
 -1.52798E+04 -1.56237E+03 -1.78920E+04 -1.20107E+04 -5.36681E+03 -2.19896E+04  7.46690E+03 -1.75961E+04
  1.50814E+04 -6.31867E+03  1.14496E+04  5.15891E+03 -8.99717E+01  7.49706E+03 -9.50127E+03  2.57101E+03
 -9.08630E+03 -1.23829E+04 -1.66978E+03 -1.77256E+04  9.26320E+03 -1.88458E+04  2.46693E+04 -9.87901E+03
  2.63530E+04  3.46018E+03  1.89741E+04  1.81718E+04  4.12748E+03  2.24802E+04 -1.06942E+04  1.85104E+04
 -1.31234E+04  4.62761E+03 -6.73840E+03 -3.64368E+03  7.63203E+02 -5.68800E+03  9.00936E+03 -2.27158E+03
  9.55494E+03  6.30106E+03  2.12061E+03  1.36758E+04 -1.17745E+04  1.60166E+04 -1.85199E+04  2.11696E+03
 -1.27262E+04 -8.07828E+03  5.00921E+02 -1.61482E+04  9.60509E+03 -8.18506E+03  1.02832E+04  4.26332E+03
  3.73725E+03  1.17728E+04 -7.24573E+03  1.43410E+04 -1.63407E+04  6.38476E+03 -1.76875E+04 -6.67330E+03
 -9.84740E+03 -1.92386E+04  5.76606E+03 -2.10169E+04  1.84006E+04 -1.34563E+04  2.11807E+04  2.56576E+03
  1.19967E+04  1.60109E+04 -3.75633E+03  1.74810E+04 -1.33921E+04  9.90702E+03 -1.47987E+04 -1.41866E+03
 -1.19324E+04 -1.22997E+04 -2.82349E+03 -1.23104E+04  7.41297E+03 -1.16887E+04  1.11960E+04 -3.47257E+03
  5.03185E+03  6.08292E+02 -1.61812E+03  2.84649E+03 -1.57929E+03 -4.76538E+03  2.91665E+03 -9.00413E+03
  1.26145E+04 -5.99163E+03  1.87076E+04  1.31017E+03  1.75208E+04  1.29299E+04  1.16512E+04  2.51237E+04
 -6.46784E+03  2.81137E+04 -2.11794E+04  2.08217E+04 -2.95453E+04  5.86242E+03 -2.37668E+04 -1.09061E+04
 -1.21092E+04 -1.97268E+04 -2.08819E+02 -1.86772E+04  6.31889E+03 -1.04200E+04  6.30375E+03 -6.32651E+03
  2.87434E+03 -3.40767E+03  3.80941E+03 -5.70380E+03  5.53685E+03 -4.18462E+03  1.01349E+04 -2.01511E+03
  1.13513E+04  3.35827E+03  6.61110E+03  1.06536E+04 -2.60343E+03  1.26500E+04 -1.35040E+04  9.92160E+03
 -1.57785E+04 -2.40179E+02 -1.05357E+04 -1.12838E+04 -1.14100E+03 -1.93567E+04  9.68335E+03 -1.86551E+04
  2.10807E+04 -9.25688E+03  2.29405E+04  4.42412E+03  1.86074E+04  1.77933E+04  2.65278E+03  2.02794E+04
 -9.43425E+03  1.77157E+04 -1.17708E+04  3.83631E+03 -8.98330E+03 -1.78984E+03 -3.43642E+03 -2.66543E+03
 -2.44288E+03 -1.34493E+03 -2.51396E+03  5.74395E+03 -8.85722E+03  2.51278E+03 -1.21367E+04 -1.73360E+03
 -6.98141E+03 -1.10543E+04 -9.12085E+02 -1.93686E+04  9.77610E+03 -1.68162E+04  1.75483E+04 -4.62911E+03
  1.85868E+04  7.96628E+03  8.29891E+03  1.39047E+04 -3.66856E+03  1.74163E+04 -1.19286E+04  1.18029E+04
 -1.67258E+04 -1.94756E+03 -1.19337E+04 -9.65150E+03 -3.04392E+01 -1.66396E+04  9.38258E+03 -9.91789E+03
  1.06272E+04 -3.41463E+03  8.97604E+03  1.95019E+03  3.49099E+03  4.61575E+03  7.84909E+02  1.19385E+03
  3.57962E+03  1.20379E+03  5.25724E+03  3.63013E+03  5.54303E+03  4.54670E+03  4.47299E+03  9.70483E+03
 -4.28661E+03  1.34401E+04 -1.01681E+04  1.45540E+04 -2.00963E+04  4.65469E+03 -1.97577E+04 -7.08754E+03
 -1.05676E+04 -1.87822E+04  1.33024E+03 -2.00677E+04  1.13763E+04 -1.26884E+04  1.58356E+04 -3.07377E+03
  1.15903E+04  5.88744E+03  3.09122E+03  1.09473E+04 -4.13427E+03  5.84513E+03 -9.44289E+03 -1.07495E+03
 -3.15917E+03 -8.62649E+03  3.77335E+03 -8.22096E+03  7.69962E+03 -3.42300E+03  8.21018E+03  3.28058E+03
  5.12356E+03  3.49958E+03  3.33029E+03  4.64327E+03 -1.10285E+03  3.03278E+03  2.40579E+03 -5.39480E+02
  2.78152E+03 -1.10632E+03  8.66328E+03  4.07535E+03  3.89605E+03  9.96053E+03 -3.64726E+03  1.27570E+04
 -7.68437E+03  1.08670E+04 -1.06783E+04  3.11203E+03 -9.99717E+03 -6.69068E+03 -2.78353E+03 -7.84655E+03
  8.56000E+02 -6.62991E+03  5.00981E+03 -4.60975E+03  5.64529E+03  2.56789E+03 -1.47628E+03  6.13460E+03
 -8.59108E+03  3.65409E+03 -1.02053E+04 -5.12760E+03 -5.82597E+03 -8.95136E+03  2.19449E+03 -1.16728E+04
  6.27520E+03 -6.50012E+03  8.19771E+03  5.48516E+02  6.79875E+03  1.42352E+03  2.14189E+03  6.65782E+03
 -4.33063E+03  2.78341E+03 -3.34403E+03 -3.47364E+03  4.88869E+03 -6.28212E+03  8.72127E+03 -5.39424E+03
  9.99026E+03  1.78802E+03  1.12375E+04  7.68863E+03  3.70331E+03  1.17579E+04 -4.33313E+03  1.38464E+04
 -9.97941E+03  4.94825E+03 -1.11312E+04 -2.61836E+03 -5.83968E+03 -7.86776E+03  3.98573E+03 -1.07570E+04
  8.36309E+03 -5.30626E+03  7.72027E+03  3.33445E+03  3.09647E+03  5.89573E+03 -1.99283E+03  5.80291E+03
 -2.69834E+03  3.67162E+03 -4.41937E+03  2.45444E+03 -1.27331E+03  1.99561E+03 -1.67211E+03  2.20865E+03
 -3.03166E+03  2.93173E+03 -9.48528E+03  5.55345E+03 -1.28250E+04  7.17991E+02 -1.32244E+04 -8.82306E+03
 -7.92294E+03 -1.70219E+04  1.83388E+03 -1.96899E+04  1.13964E+04 -1.47246E+04  1.98382E+04 -5.29199E+03
  1.58596E+04  4.32507E+03  1.02610E+04  1.23304E+04 -5.43715E+02  1.38165E+04 -4.81971E+03  1.03174E+04
 -7.61206E+03  4.67665E+03 -4.93454E+03  7.54166E+00 -1.09985E+03 -5.90015E+02 -1.51130E+02  5.17087E+02
 -1.53647E+03  5.38774E+02 -2.81235E+03 -4.48376E+02 -2.63770E+03 -2.85702E+03  2.07880E+02 -3.71804E+03
  6.98010E+03 -1.87295E+03  7.58167E+03 -6.16513E+02  9.44900E+03  8.66191E+03  2.46015E+03  1.22592E+04
 -7.49695E+03  1.50031E+04 -1.55491E+04  8.29950E+03 -1.58193E+04 -1.40484E+03 -1.21001E+04 -1.00867E+04
 -5.71889E+03 -1.28540E+04  3.76322E+03 -1.25695E+04  1.01197E+04 -8.27855E+03  9.26367E+03  1.28855E+03
  5.06336E+03  4.92988E+03 -5.34369E+02  4.70131E+03 -3.38014E+03  6.83182E+02 -1.40132E+03 -3.78137E+03
  5.03489E+03 -9.32896E+02  4.22336E+03  2.80119E+03  5.89486E+03  6.39463E+03  1.52704E+03  7.42628E+03
 -4.98942E+03  7.89392E+03 -9.06427E+03  1.37269E+03 -7.86739E+03 -6.10730E+03 -2.70418E+03 -1.11197E+04
  4.77870E+03 -8.84586E+03  8.41383E+03 -4.19816E+03  9.96285E+03  2.85463E+03  6.27137E+03  9.33658E+03
  1.63461E+03  8.17697E+03 -4.45769E+03  6.95752E+03 -5.63316E+03  4.71054E+03 -3.85878E+03  5.64480E+02
 -2.46859E+03  1.48733E+02 -6.34370E+02 -3.13990E+02 -5.50235E+03  1.90184E+03 -6.69599E+03 -1.12666E+03
 -5.59573E+03 -5.03004E+03 -2.63773E+03 -8.63781E+03  6.32315E+03 -8.96640E+03  7.67712E+03 -6.51001E+03
  8.76060E+03  1.18068E+03  6.51793E+03  7.40549E+03 -1.34025E+03  8.49775E+03 -7.82519E+03  6.29826E+03
