 $NMID ID='MM_0lb_SNR200_9hz_g40_47.RAW', FMTDAT='(8E13.5)'
 TRAMP=1., VOLUME=1. $END
  3.09702E+05 -5.51275E+02  3.38003E+05  2.50888E+05  8.49293E+04  3.37843E+05 -1.31920E+05  2.52245E+05
 -1.90702E+05  8.29663E+04 -1.12912E+05 -3.07771E+04 -5.92678E+02 -5.06140E+04  5.42568E+04 -5.58790E+02
  3.43525E+04  5.13809E+04 -1.63765E+04  7.61759E+04 -6.02952E+04  6.46436E+04 -8.53746E+04  3.13154E+04
 -7.87755E+04 -1.15447E+04 -5.81086E+04 -5.10460E+04 -1.61180E+04 -7.27679E+04  2.69676E+04 -4.73347E+04
  3.97545E+04  4.38098E+03  1.74185E+04  4.81631E+04 -3.44476E+04  4.65628E+04 -6.77851E+04 -2.61252E+02
 -5.34617E+04 -5.72840E+04 -9.20929E+03 -7.75588E+04  3.36567E+04 -5.67754E+04  5.03893E+04 -1.88740E+04
  4.33579E+04  1.10497E+04  3.27743E+04  2.74839E+04  1.39086E+04  2.88869E+04 -5.04368E+03  2.81174E+04
 -2.31342E+04  1.28035E+04 -1.69609E+04 -5.32765E+03  7.53832E+03 -8.05313E+03  2.28306E+04  1.23915E+04
  8.34655E+03  3.47706E+04 -3.43994E+04  3.73264E+04 -6.52620E+04  2.41494E+03 -5.91845E+04 -4.39830E+04
 -1.28632E+04 -6.59469E+04  4.23212E+04 -4.60930E+04  6.03644E+04 -2.34431E+03  3.52405E+04  3.30817E+04
 -6.16656E+03  3.79158E+04 -3.07238E+04  1.65389E+04 -3.18951E+04 -2.89492E+03 -1.96385E+04 -1.12809E+04
 -1.03675E+04 -1.37830E+04  4.53741E+02 -1.94899E+04  8.71601E+03 -2.35270E+04  1.57381E+04 -1.36245E+04
  1.04141E+04  5.04541E+03 -1.14308E+04  1.17739E+04 -2.30088E+04 -6.56995E+03 -8.63880E+03 -3.69850E+04
  2.37064E+04 -4.79631E+04  5.19237E+04 -2.05858E+04  4.85611E+04  1.95090E+04  1.75966E+04  4.81269E+04
 -1.68468E+04  3.44624E+04 -2.72284E+04  3.09434E+03 -1.16661E+04 -3.07745E+04  2.21947E+04 -3.54379E+04
  4.36926E+04 -1.12932E+04  3.98989E+04  2.52647E+04  2.10042E+04  5.03018E+04 -9.40473E+03  5.60110E+04
 -3.51907E+04  3.68535E+04 -4.67879E+04  1.10586E+04 -4.56579E+04 -1.68981E+04 -2.50178E+04 -4.05999E+04
  7.29156E+03 -4.13680E+04  3.33942E+04 -1.73400E+04  3.07306E+04  1.11069E+04  4.67041E+03  2.00958E+04
 -1.39048E+04  1.03218E+04 -1.03143E+04 -8.33184E+03  5.89664E+03 -1.19676E+04  1.80022E+04  5.48866E+03
  1.38944E+04  2.30620E+04 -6.11996E+03  2.76305E+04 -2.16213E+04  1.32418E+04 -3.07937E+04 -3.55018E+03
 -2.54988E+04 -1.89248E+04 -1.17617E+04 -2.31087E+04  4.56389E+03 -2.47087E+04  1.95019E+04 -2.16122E+04
  3.05286E+04 -1.51907E+04  3.68249E+04  3.60201E+03  2.67281E+04  2.24100E+04  3.90474E+03  4.07536E+04
 -1.95039E+04  3.31903E+04 -3.08755E+04  1.42296E+04 -2.18271E+04 -1.08217E+04 -4.36342E+03 -1.36877E+04
 -1.80531E+02 -1.51979E+03 -7.85599E+03  7.87224E+03 -2.03599E+04  4.00698E+03 -1.89387E+04 -1.01525E+04
 -1.12360E+04 -2.12960E+04  5.56742E+03 -2.77493E+04  1.65942E+04 -1.81957E+04  2.17583E+04 -7.94234E+02
  1.39286E+04  1.45008E+04 -2.81030E+03  2.26452E+04 -1.60596E+04  1.26801E+04 -2.26271E+04 -4.64270E+03
 -1.77341E+04 -2.00357E+04 -2.38793E+03 -2.74468E+04  1.25910E+04 -2.25718E+04  2.28469E+04 -1.17990E+04
  2.11684E+04  5.39094E+02  1.35937E+04  5.78110E+03  9.41059E+03  1.35279E+03  1.21826E+04 -2.52686E+03
  2.20646E+04  2.99035E+03  2.47317E+04  1.83147E+04  1.86788E+04  3.74245E+04 -2.10791E+03  4.13013E+04
 -2.47554E+04  3.64340E+04 -4.14511E+04  1.83111E+04 -4.26609E+04 -2.57141E+03 -3.50615E+04 -2.21463E+04
 -1.32462E+04 -3.50142E+04  1.12266E+04 -3.28974E+04  2.73340E+04 -1.44499E+04  2.39071E+04  8.31825E+03
  7.68714E+03  1.67694E+04 -1.14265E+04  1.43969E+04 -1.96106E+04  1.40516E+03 -1.52052E+04 -1.38160E+04
 -8.50769E+02 -1.69238E+04  8.26700E+03 -1.28465E+04  1.21367E+04 -1.94219E+03  2.81710E+03  6.59116E+03
 -6.81588E+03  2.98214E+03 -6.43498E+03 -7.15074E+03 -3.78584E+02 -1.75314E+04  1.16458E+04 -1.95738E+04
  2.30013E+04 -1.04582E+04  2.51303E+04  1.71782E+03  2.07626E+04  1.88397E+04  9.33856E+03  2.88311E+04
 -6.37869E+03  2.87528E+04 -1.80220E+04  1.82905E+04 -2.25336E+04  3.41980E+03 -1.44535E+04 -5.30853E+03
 -6.76820E+03 -8.14665E+03 -6.29627E+02  1.13525E+03 -1.87308E+03  2.17842E+03 -6.61450E+03  5.88374E+03
 -1.45973E+04 -4.02285E+01 -1.43163E+04 -1.12346E+04 -6.49973E+03 -1.98976E+04  5.72667E+03 -1.36076E+04
  1.23645E+04 -6.68789E+03  8.96618E+03  4.33612E+03 -1.76184E+01  6.47825E+03 -7.76928E+03  9.12345E+02
 -7.58944E+03 -9.67113E+03 -2.18346E+03 -1.43514E+04  8.67626E+03 -1.39771E+04  1.93243E+04 -7.61065E+03
  2.16307E+04  2.67727E+03  1.55268E+04  1.32038E+04  2.16032E+03  1.85451E+04 -1.04978E+04  1.54738E+04
 -1.37482E+04  6.18023E+03 -4.33785E+03 -2.45525E+03  1.74002E+03 -4.25997E+03  8.48883E+03 -2.20794E+02
  7.50460E+03  7.94566E+03  1.87420E+03  1.35048E+04 -8.94418E+03  1.12312E+04 -1.42329E+04  2.47282E+03
 -9.65777E+03 -8.90250E+03  1.13609E+03 -1.29973E+04  9.00690E+03 -5.52400E+03  9.75048E+03  3.96825E+03
  2.21989E+03  8.95006E+03 -9.36475E+03  1.11478E+04 -1.32162E+04  4.57711E+03 -1.16967E+04 -3.66341E+03
 -7.64797E+03 -1.63629E+04  3.91504E+03 -1.58238E+04  1.47467E+04 -1.25156E+04  1.60789E+04  2.34578E+03
  1.00545E+04  1.33282E+04 -1.19644E+03  1.63059E+04 -8.63383E+03  8.29159E+03 -1.23401E+04 -1.85675E+03
 -1.02076E+04 -1.01390E+04 -4.83639E+02 -1.19516E+04  5.38291E+03 -9.73874E+03  6.89003E+03 -4.62450E+03
  5.49657E+03  9.57976E+02  5.13575E+02  3.36067E+03 -5.06331E+01 -3.31773E+03  1.87332E+03 -7.05403E+03
  1.13742E+04 -3.24169E+03  1.63769E+04  8.32549E+02  1.40723E+04  9.93413E+03  9.51715E+03  1.88099E+04
 -4.06620E+03  2.18960E+04 -1.86020E+04  1.71546E+04 -2.48706E+04  2.78833E+03 -2.02305E+04 -9.02840E+03
 -1.04171E+04 -1.59419E+04  4.64741E+02 -1.29318E+04  3.42371E+03 -8.71379E+03  4.22242E+03 -5.05407E+03
  3.84167E+03 -2.77873E+03  5.16066E+03 -4.53372E+03  5.75786E+03 -5.07036E+03  8.68839E+03 -2.19038E+03
  1.07061E+04  2.72874E+03  5.09474E+03  9.66028E+03 -3.17616E+03  1.05190E+04 -1.07814E+04  9.21372E+03
 -1.34923E+04 -9.18140E+02 -8.04773E+03 -9.74149E+03 -1.61594E+03 -1.61267E+04  8.59934E+03 -1.43860E+04
  1.51306E+04 -8.13069E+03  1.91413E+04  1.39053E+03  1.28403E+04  1.25758E+04  2.22112E+03  1.53877E+04
 -7.15003E+03  1.28829E+04 -1.03765E+04  5.22983E+03 -5.39418E+03 -1.92841E+03 -3.20415E+03 -2.60792E+03
 -7.02632E+02 -3.96140E+02 -1.05163E+03  4.41723E+03 -5.29288E+03  2.18073E+03 -9.16176E+03 -1.01317E+03
 -6.57502E+03 -1.02304E+04  6.00019E+02 -1.41099E+04  9.73732E+03 -1.39659E+04  1.39388E+04 -4.98682E+03
  1.40158E+04  8.13160E+03  6.18800E+03  1.23929E+04 -1.78875E+03  1.20193E+04 -1.04075E+04  9.66039E+03
 -1.41681E+04  7.69321E+02 -1.03071E+04 -9.62626E+03 -8.85842E+02 -1.25780E+04  5.88058E+03 -8.85412E+03
  6.79113E+03 -2.20101E+03  6.55322E+03  3.13938E+03  1.80449E+03  4.20434E+03  1.90628E+03  2.19378E+03
  2.37509E+03  1.90534E+03  2.71225E+03  1.09178E+03  4.21618E+03  3.52176E+03  3.33758E+03  6.98019E+03
 -3.61355E+03  9.92313E+03 -9.58446E+03  1.00950E+04 -1.44539E+04  3.53934E+03 -1.53391E+04 -7.71223E+03
 -5.15536E+03 -1.37739E+04  2.65702E+02 -1.65764E+04  8.85930E+03 -9.30720E+03  1.24125E+04 -3.20294E+03
  8.83404E+03  6.07049E+03  1.49286E+03  8.42184E+03 -2.45920E+03  4.04111E+03 -4.78697E+03 -2.28782E+03
 -3.01573E+03 -5.19460E+03  2.77722E+03 -6.44240E+03  5.96965E+03 -3.60666E+03  7.52515E+03  4.80005E+02
  4.08017E+03  1.14372E+03  2.48762E+03  2.53587E+03 -2.38418E+02  1.79661E+03  2.37774E+03  9.79868E+01
  3.59076E+03 -9.98737E+02  6.98159E+03  2.69856E+03  2.59222E+03  7.08293E+03 -2.04082E+03  9.32315E+03
 -5.96570E+03  7.44703E+03 -9.88386E+03  3.50481E+03 -7.84982E+03 -4.08550E+03 -2.55543E+03 -6.31939E+03
  1.63538E+03 -3.84306E+03  2.86832E+03 -2.77920E+03  2.92581E+03  2.45766E+03 -2.11949E+03  4.18287E+03
 -5.99951E+03  2.03264E+03 -7.79458E+03 -4.25759E+03 -2.65966E+03 -7.19299E+03  1.09288E+03 -8.27911E+03
  5.51537E+03 -3.57010E+03  5.23080E+03 -1.23769E+03  5.33309E+03  1.88159E+03  2.06177E+03  2.22611E+03
 -2.05695E+03  6.15084E+01 -4.02175E+03 -1.30591E+03  1.55897E+03 -7.91293E+03  7.32548E+03 -4.65454E+03
  1.06853E+04  5.58378E+02  8.56352E+03  6.03317E+03  3.01694E+03  8.95549E+03 -3.06972E+03  9.20965E+03
 -7.36331E+03  4.52182E+03 -8.79405E+03 -2.01732E+03 -4.02284E+03 -5.56140E+03  1.39611E+03 -6.08019E+03
  5.00471E+03 -2.18439E+03  6.39720E+03  2.95113E+03  5.96460E+02  5.92053E+03  5.28272E+02  4.10807E+03
 -1.16585E+03  3.41392E+03 -1.03299E+03  5.02365E+01 -1.09861E+03  8.72097E+02 -2.36188E+03  7.73796E+02
 -2.33542E+03  2.93102E+03 -5.80183E+03  3.29323E+03 -9.22467E+03 -1.29108E+03 -1.15596E+04 -6.76048E+03
 -7.45099E+03 -1.16204E+04  1.80792E+03 -1.42114E+04  9.07866E+03 -1.12379E+04  1.54579E+04 -4.72470E+03
  1.14063E+04  3.43936E+03  7.83815E+03  7.75413E+03  1.26112E+03  1.05432E+04 -3.52842E+03  7.14076E+03
 -4.30994E+03  1.94323E+03 -3.56743E+03 -2.77084E+03 -2.00933E+03 -1.07787E+03 -6.35070E+02 -1.01258E+03
 -2.61454E+03 -4.29511E+00 -1.71891E+03 -5.39075E+02 -6.90857E+02 -2.55459E+03  9.76731E+02 -3.52643E+03
  4.72647E+03 -2.97799E+03  6.74120E+03  4.02450E+02  8.07582E+03  5.67172E+03  2.41131E+03  1.01312E+04
 -4.96480E+03  1.21472E+04 -1.14716E+04  7.11211E+03 -1.28107E+04 -4.03146E+02 -8.79836E+03 -7.57317E+03
 -3.36670E+03 -8.94870E+03  3.02315E+03 -9.45663E+03  5.99052E+03 -4.98112E+03  6.09043E+03 -2.45563E+02
  2.95366E+03  3.23131E+03 -2.39293E+02  2.30337E+03  2.32187E+02 -2.32685E+02  5.55536E+02 -1.70257E+03
  3.37420E+03 -1.16589E+03  3.27662E+03  1.27138E+03  2.59018E+03  4.09900E+03 -1.17988E+03  6.03254E+03
 -5.42686E+03  3.08816E+03 -7.36862E+03  5.44365E+02 -6.84045E+03 -4.10147E+03 -2.55008E+03 -8.47952E+03
  4.75750E+03 -6.00389E+03  8.75483E+03 -2.25329E+03  7.60647E+03  8.76848E+02  4.38529E+03  4.72546E+03
  1.57019E+03  7.39505E+03 -1.92306E+03  4.94054E+03 -4.39895E+03  3.28480E+03 -2.40415E+03  8.69529E+02
 -1.90814E+03 -4.28994E+02 -4.61225E+03  5.80281E+02 -2.92005E+03  1.37165E+03 -5.48567E+03 -1.47990E+03
 -5.46958E+03 -3.23759E+03 -8.44154E+02 -5.57372E+03  2.72795E+03 -8.11609E+03  4.68585E+03 -4.30719E+03
  7.69600E+03  1.65389E+03  3.16797E+03  4.59028E+03 -3.75087E+02  6.77996E+03 -4.72107E+03  3.72209E+03
