 $NMID ID='MM_0lb_SNR200_17hz_g50_28.RAW', FMTDAT='(8E13.5)'
 TRAMP=1., VOLUME=1. $END
  3.10880E+05  1.26995E+03  3.37815E+05  2.49879E+05  8.49791E+04  3.37595E+05 -1.33816E+05  2.51607E+05
 -1.89471E+05  8.27771E+04 -1.11544E+05 -3.35645E+04  1.38357E+03 -4.97434E+04  5.38731E+04 -6.13188E+02
  3.51965E+04  5.25644E+04 -1.75752E+04  7.49877E+04 -6.04420E+04  6.36661E+04 -8.40841E+04  3.08690E+04
 -8.09140E+04 -1.09564E+04 -5.69343E+04 -5.06501E+04 -1.37025E+04 -6.94688E+04  2.59975E+04 -4.54707E+04
  3.92915E+04  5.27467E+03  1.55490E+04  4.64701E+04 -3.32182E+04  4.69141E+04 -6.58094E+04 -1.99011E+02
 -5.29564E+04 -5.67196E+04 -6.78051E+03 -7.62572E+04  3.28288E+04 -5.42000E+04  4.60453E+04 -1.69602E+04
  4.24982E+04  1.10968E+04  3.07251E+04  2.44882E+04  1.57751E+04  2.93289E+04 -4.90080E+03  2.68381E+04
 -2.17955E+04  1.30468E+04 -1.93324E+04 -4.30091E+03  4.64435E+03 -7.98456E+03  2.09099E+04  1.22678E+04
  7.42200E+03  3.38277E+04 -3.05587E+04  3.50056E+04 -6.16308E+04  2.05028E+03 -5.56127E+04 -4.11107E+04
 -1.30337E+04 -6.18841E+04  3.88132E+04 -4.32420E+04  5.77945E+04 -9.98966E+02  3.25657E+04  3.08591E+04
 -5.59351E+03  3.41272E+04 -2.98637E+04  1.44070E+04 -2.82283E+04 -4.29652E+03 -1.54965E+04 -1.06745E+04
 -7.75887E+03 -1.24061E+04  1.34131E+02 -1.78202E+04  7.21577E+03 -2.16335E+04  1.54330E+04 -1.37446E+04
  1.21709E+04  3.64572E+03 -7.48049E+03  1.35933E+04 -1.94079E+04 -2.95873E+03 -8.61142E+03 -3.14983E+04
  2.12843E+04 -4.23451E+04  4.56563E+04 -1.70245E+04  4.41335E+04  1.88860E+04  1.39354E+04  4.17025E+04
 -1.51076E+04  3.23832E+04 -2.39297E+04  1.01840E+03 -9.17283E+03 -2.71197E+04  2.09999E+04 -3.25954E+04
  3.98459E+04 -7.56231E+03  3.31657E+04  2.25638E+04  1.65849E+04  4.47071E+04 -8.35953E+03  4.74814E+04
 -3.00218E+04  3.12490E+04 -3.86245E+04  8.73199E+03 -3.98147E+04 -1.64712E+04 -2.17440E+04 -3.70043E+04
  6.44914E+03 -3.55782E+04  3.14872E+04 -1.29261E+04  2.85919E+04  9.79617E+03  3.05263E+03  1.82834E+04
 -1.38993E+04  7.75638E+03 -9.40817E+03 -8.56691E+03  5.73920E+03 -1.02656E+04  1.68283E+04  6.87618E+03
  1.34556E+04  2.21722E+04 -6.52100E+03  2.37274E+04 -2.21009E+04  9.40947E+03 -2.63235E+04 -5.69185E+03
 -1.81339E+04 -1.65578E+04 -5.74690E+03 -1.83187E+04  3.99339E+03 -1.74074E+04  1.33815E+04 -1.64645E+04
  2.41752E+04 -1.34581E+04  2.93470E+04  2.40013E+03  2.36646E+04  1.78063E+04  3.46697E+03  3.48973E+04
 -1.66380E+04  3.00475E+04 -2.77099E+04  9.95087E+03 -1.97666E+04 -9.77948E+03 -4.92647E+03 -1.41242E+04
  1.62096E+03 -4.27595E+03 -2.89874E+03  5.44091E+03 -1.44277E+04  4.89721E+03 -1.50327E+04 -5.93893E+03
 -9.10887E+03 -1.68805E+04  5.41645E+03 -1.94818E+04  1.23144E+04 -1.53979E+04  1.61940E+04 -1.52518E+03
  9.09891E+03  1.11410E+04 -1.48572E+03  1.74728E+04 -1.07701E+04  9.55243E+03 -1.74572E+04 -4.91741E+03
 -1.19159E+04 -1.47579E+04 -1.62426E+03 -2.07305E+04  9.05972E+03 -1.70364E+04  1.72355E+04 -7.69562E+03
  1.57793E+04  3.61893E+02  1.06512E+04  3.96782E+03  6.36941E+03  1.65654E+03  9.31889E+03 -3.08630E+03
  1.65008E+04  3.71456E+03  1.55427E+04  1.33926E+04  1.00150E+04  2.70163E+04 -2.48862E+03  2.86780E+04
 -1.68295E+04  2.35496E+04 -2.79703E+04  1.14799E+04 -2.77909E+04 -2.38532E+03 -2.36165E+04 -1.53830E+04
 -9.83661E+03 -2.41017E+04  8.11671E+03 -2.16160E+04  1.87106E+04 -1.18904E+04  1.65185E+04  4.05972E+03
  7.19673E+03  1.29463E+04 -8.26677E+03  1.12131E+04 -1.47647E+04  2.23015E+03 -1.14872E+04 -8.59997E+03
  1.17308E+02 -1.30271E+04  6.46200E+03 -1.00284E+04  8.24388E+03 -1.28406E+03  9.43982E+02  4.64405E+03
 -6.00679E+03  7.88027E+02 -5.47441E+03 -5.25666E+03  9.27354E+02 -1.14529E+04  8.88645E+03 -1.12834E+04
  1.32562E+04 -5.32296E+03  1.44071E+04  2.99190E+03  1.16758E+04  1.10927E+04  5.61304E+03  1.65410E+04
 -2.62846E+03  1.88100E+04 -1.03787E+04  1.07895E+04 -1.40430E+04  3.52189E+03 -8.90711E+03 -2.86965E+03
 -5.45736E+03 -5.13786E+03 -6.96293E+02  1.86189E+03 -2.05253E+03  1.02565E+03 -3.71131E+03  3.70193E+03
 -8.11728E+03 -8.32963E+02 -8.79042E+03 -8.20850E+03 -4.33611E+03 -1.23652E+04  3.49442E+03 -1.01713E+04
  7.65192E+03 -3.89828E+03  6.74458E+03  2.29366E+03 -1.62469E+02  2.32461E+03 -3.93109E+03  1.47502E+02
 -4.47361E+03 -6.09757E+03 -2.05890E+02 -8.77095E+03  4.81116E+03 -8.43711E+03  1.20288E+04 -4.47547E+03
  1.33538E+04  4.49071E+02  9.96660E+03  6.54809E+03  2.13480E+03  1.04807E+04 -6.77441E+03  9.39473E+03
 -7.90403E+03  2.85435E+03 -4.86683E+03 -1.36675E+03  1.65412E+03 -2.29909E+03  5.41175E+03 -3.00469E+02
  3.50862E+03  5.11332E+03  1.28117E+03  6.86198E+03 -5.07765E+03  7.61009E+03 -8.14727E+03  2.03344E+03
 -6.22363E+03 -4.48744E+03  7.22165E+02 -7.06196E+03  5.15166E+03 -5.03765E+03  3.93490E+03  2.51186E+03
  9.22122E+01  3.81469E+03 -4.44768E+03  5.62644E+03 -4.93391E+03  2.19184E+03 -5.12916E+03 -3.22282E+03
 -4.53853E+03 -6.82782E+03  1.91394E+03 -8.80085E+03  7.48048E+03 -5.61522E+03  7.11469E+03  1.95911E+03
  6.15706E+03  6.27428E+03 -7.83407E+02  8.71600E+03 -5.86460E+03  5.14493E+03 -6.80161E+03 -4.41296E+02
 -6.73834E+03 -5.62081E+03 -1.45976E+03 -6.71085E+03  3.42539E+03 -4.60872E+03  3.99598E+03 -2.32918E+03
  4.13607E+03  4.01230E+02 -2.23926E+02  1.56531E+03  5.52797E+02 -4.36212E+02  2.46979E+02 -2.48038E+03
  4.69777E+03 -8.35455E+02  6.82031E+03 -3.10466E+02  5.86597E+03  4.61498E+03  5.66175E+03  7.55898E+03
 -1.58304E+03  1.01920E+04 -8.77719E+03  8.55532E+03 -1.27055E+04  2.45972E+03 -7.44054E+03 -4.25942E+03
 -5.06591E+03 -7.09216E+03 -6.89750E+01 -5.59643E+03  2.62060E+03 -2.28247E+03  2.12771E+03 -1.72733E+03
  6.00670E+02 -2.17729E+03  2.79609E+03 -2.21552E+03  3.75838E+03 -1.40777E+03  4.36260E+03  4.89896E+02
  4.24874E+03  1.09332E+03  1.01641E+03  4.09575E+03 -1.56106E+03  4.10468E+03 -5.12031E+03  3.55735E+03
 -4.99528E+03 -7.86919E+02 -2.95838E+03 -3.58940E+03 -1.80223E+02 -7.05540E+03  2.76303E+03 -6.76582E+03
  5.92236E+03 -4.56039E+03  7.30665E+03  5.36218E+02  6.02195E+03  5.70148E+03  1.47412E+03  8.15766E+03
 -3.73000E+03  6.91735E+03 -3.75861E+03  1.35594E+03 -1.46691E+03 -1.45005E+03 -1.33898E+03 -1.03937E+03
 -3.05816E+01  9.30160E+02 -8.58372E+02  1.99245E+03 -1.89294E+03  5.28343E+02 -5.70992E+03  5.38764E+02
 -1.94579E+03 -5.13435E+03  5.08004E+02 -5.70100E+03  3.02686E+03 -5.45373E+03  5.73771E+03 -1.24199E+03
  4.90794E+03  2.56686E+03  1.51459E+03  4.58520E+03 -1.20470E+03  5.98051E+03 -3.61774E+03  3.10690E+03
 -4.35289E+03  9.12964E+02 -4.99308E+03 -2.05807E+03  9.00407E+01 -4.85571E+03  2.74894E+03 -2.85325E+03
  3.85980E+03 -1.28267E+03  3.04454E+03  4.85484E+02 -1.10112E+02  1.51913E+03  5.45452E+02  6.62612E+02
  1.90774E+03  3.74628E+02  7.75284E+02  8.50558E+02  1.88123E+03  3.20060E+03  2.14602E+03  1.49838E+03
 -6.79788E+02  4.32122E+03 -3.84264E+03  4.55484E+03 -4.40471E+03  1.29708E+03 -5.99132E+03 -1.61427E+03
 -2.33557E+03 -5.01135E+03  1.73378E+03 -6.95862E+03  2.49943E+03 -3.55431E+03  5.34296E+03 -1.67572E+03
  2.92044E+03  2.27820E+03  1.08903E+02  2.42485E+03 -7.83447E+02  3.04641E+03 -1.23531E+03 -6.48978E+02
 -1.68854E+03 -1.88712E+03  1.33924E+03 -1.63095E+03  1.52698E+03 -1.39516E+03  1.37107E+03  1.15337E+03
  2.60035E+03  1.32546E+03  1.28751E+03  9.16411E+02 -1.67371E+02  1.13505E+03  1.98375E+03 -1.83604E+02
 -3.68336E+02 -2.04455E+02  3.00389E+03  8.27035E+02  6.42201E+02  3.37569E+03 -1.49051E+03  3.16833E+03
 -2.25534E+03  2.33131E+03 -2.68909E+03  4.11157E+02 -1.83488E+03 -6.63543E+02 -1.28263E+03 -1.36581E+03
  6.41284E+02 -1.18754E+03  6.02379E+02 -7.13736E+02  1.19547E+03  1.79274E+03 -3.76191E+01  1.46170E+03
 -1.43138E+03  7.37397E+02 -2.48723E+03 -1.23703E+03 -2.44925E+03 -1.44036E+03  9.26473E+02 -1.40929E+03
  1.89480E+01 -5.67223E+02  1.19489E+03 -4.82716E+02  2.16534E+03 -3.92727E+01  2.12830E+01  4.64463E+02
 -1.13896E+02 -1.73716E+02 -1.06300E+02  1.60138E+02  9.54973E+02 -2.17400E+03  1.97878E+03 -1.09071E+03
  2.22525E+03 -6.51212E+02  2.98406E+03  7.98040E+02  6.97766E+02  2.14759E+03  4.22449E+02  2.60131E+03
 -1.72680E+03  2.70011E+02 -2.18026E+03 -3.98160E+01 -1.15510E+03 -1.92110E+03  2.68294E+01 -1.48761E+02
  1.76964E+03 -8.79895E+02  1.24735E+03 -5.02396E+01 -3.28284E+02  2.45814E+03  1.58150E+02  1.98797E+03
 -3.56204E+02  1.69977E+03 -6.08680E+02  7.90242E+02  1.74022E+01  7.97780E+02 -1.65125E+03  5.99156E+02
  6.44624E+01  1.61323E+03 -1.92887E+03  6.06020E+02 -3.11043E+03 -1.08473E+03 -3.23285E+03 -2.39920E+03
 -1.73515E+02 -2.97921E+03  6.53417E+02 -3.75011E+03  2.58363E+03 -3.28574E+03  3.68417E+03 -1.16358E+03
  3.00859E+03  1.02607E+03  1.59693E+03  2.28010E+03 -9.97975E+02  1.13627E+03 -2.43872E+01  1.60364E+03
 -1.90280E+03  1.24622E+03 -5.10174E+02  7.16497E+02 -6.39935E+02  2.55888E+02 -6.42043E+02  1.26183E+03
 -7.80511E+02  1.01992E+02 -1.81923E+03 -7.94773E+02  1.15869E+03 -1.20436E+03 -1.41636E+02 -1.50070E+03
  1.66537E+03 -4.58601E+02  1.41870E+03 -5.96159E+01  1.10177E+03  4.79588E+02 -6.39325E+02  2.12145E+03
 -7.48590E+02  2.93642E+03 -2.44512E+03  2.72640E+03 -1.21142E+03  3.07249E+02 -2.84008E+03 -1.58106E+03
 -2.21438E+03 -1.03789E+03  1.34140E+02 -2.45615E+03  1.10523E+03 -1.00955E+03  9.18549E+02 -3.05959E+01
  1.02832E+03  9.17106E+02  5.86790E+02  6.87402E+02  1.27654E+02 -2.79342E+02 -5.86376E+01 -1.65003E+02
  8.27255E+02  1.10269E+03  3.94922E+02 -1.51661E+02 -7.39671E+02  4.99922E+02  2.50659E+02  2.63352E+02
 -1.39429E+03  1.46924E+03 -1.02150E+03 -9.26790E+01 -1.10155E+03 -1.20334E+03 -6.83353E+01 -2.15512E+03
  1.62760E+03 -1.25996E+03  5.62324E+02 -9.40718E+02  2.11810E+03 -1.08559E+03  9.66874E+02  5.76941E+02
  1.91384E+02  5.46008E+02 -1.85201E+02  1.09975E+03 -4.35257E+02  1.69659E+03  2.49345E+02  6.39238E+02
 -2.38323E+02 -6.75784E+02 -1.79659E+03 -3.40907E+02 -1.82631E+03 -1.78297E+03 -1.25868E+03  9.53218E+02
 -1.36843E+03  5.25096E+02 -1.04881E+03 -1.54011E+03  1.32654E+03 -1.64718E+03  1.04692E+03 -1.19673E+03
  1.20679E+03  7.09256E+02 -1.57781E+01  1.12241E+03  5.34360E+02  1.31929E+03 -8.40862E+02  9.77192E+02
