 $NMID ID='MM_0lb_SNR200_12hz_g40_93.RAW', FMTDAT='(8E13.5)'
 TRAMP=1., VOLUME=1. $END
  3.10250E+05 -1.63480E+02  3.37409E+05  2.49854E+05  8.46165E+04  3.37290E+05 -1.31897E+05  2.51240E+05
 -1.90674E+05  8.39756E+04 -1.11451E+05 -3.31360E+04 -1.28001E+02 -4.92748E+04  5.37286E+04 -1.33752E+03
  3.54809E+04  5.32532E+04 -1.59568E+04  7.54458E+04 -6.14683E+04  6.32856E+04 -8.51789E+04  3.26953E+04
 -8.10824E+04 -1.10870E+04 -5.64437E+04 -5.23228E+04 -1.47028E+04 -6.91689E+04  2.83660E+04 -4.65536E+04
  4.17142E+04  2.42636E+03  1.59170E+04  4.78059E+04 -3.50039E+04  4.79450E+04 -6.57401E+04  9.09014E+02
 -5.33827E+04 -5.69183E+04 -6.25935E+03 -7.63604E+04  3.42429E+04 -5.47349E+04  4.89009E+04 -1.81352E+04
  4.30137E+04  1.24833E+04  3.21111E+04  2.39043E+04  1.60876E+04  2.97257E+04 -5.24277E+03  2.87965E+04
 -2.12990E+04  1.26795E+04 -1.81308E+04 -4.34898E+03  5.63480E+03 -6.37918E+03  2.38564E+04  1.13040E+04
  7.65129E+03  3.62139E+04 -3.14015E+04  3.71631E+04 -6.32184E+04  1.35700E+03 -5.69624E+04 -4.32854E+04
 -1.34635E+04 -6.22103E+04  4.03852E+04 -4.47014E+04  5.89310E+04 -2.93314E+03  3.45090E+04  3.18756E+04
 -6.68767E+03  3.76322E+04 -2.99786E+04  1.47674E+04 -3.32842E+04 -4.72475E+03 -1.58700E+04 -1.23383E+04
 -7.57937E+03 -1.30957E+04 -9.84448E+02 -1.86073E+04  7.21260E+03 -2.37931E+04  1.55552E+04 -1.34368E+04
  1.15193E+04  7.77705E+03 -8.81966E+03  1.36011E+04 -2.19438E+04 -5.11212E+03 -8.23917E+03 -3.29068E+04
  2.31241E+04 -4.40328E+04  4.82737E+04 -1.99899E+04  4.60847E+04  1.91475E+04  1.66614E+04  4.44052E+04
 -1.55672E+04  3.46082E+04 -2.47316E+04  1.16469E+03 -1.07167E+04 -2.81087E+04  2.06199E+04 -3.39909E+04
  4.14050E+04 -9.68119E+03  3.49436E+04  2.40655E+04  1.78364E+04  4.86788E+04 -6.61034E+03  5.08139E+04
 -3.15786E+04  3.39835E+04 -4.23956E+04  9.80322E+03 -4.37985E+04 -1.76391E+04 -2.39469E+04 -3.82391E+04
  6.63453E+03 -3.76614E+04  3.35913E+04 -1.41210E+04  2.99338E+04  1.05846E+04  4.37402E+03  1.95402E+04
 -1.29507E+04  7.39386E+03 -9.53300E+03 -6.88676E+03  7.48666E+03 -1.11912E+04  1.91783E+04  5.66337E+03
  1.26960E+04  2.30348E+04 -6.55628E+03  2.50012E+04 -2.23228E+04  1.22465E+04 -2.88916E+04 -4.62812E+03
 -1.97197E+04 -1.67313E+04 -9.00472E+03 -2.09935E+04  3.70588E+03 -2.02850E+04  1.47809E+04 -1.85001E+04
  2.68695E+04 -1.29742E+04  3.45443E+04  3.79416E+03  2.30102E+04  2.09561E+04  5.33365E+03  3.78314E+04
 -1.81697E+04  3.08431E+04 -2.86697E+04  1.08191E+04 -2.03518E+04 -8.78661E+03 -3.62139E+03 -1.38908E+04
  1.90573E+03 -3.42989E+03 -5.48058E+03  6.17512E+03 -1.69281E+04  5.77539E+03 -1.62649E+04 -8.09357E+03
 -1.03595E+04 -1.95744E+04  5.67270E+03 -2.48630E+04  1.49076E+04 -1.70713E+04  1.83697E+04 -1.53994E+03
  1.15961E+04  1.35068E+04 -7.95354E+02  1.96517E+04 -1.41055E+04  9.87557E+03 -1.99482E+04 -4.22067E+03
 -1.44708E+04 -1.82401E+04 -2.12754E+03 -2.49465E+04  1.08377E+04 -2.05111E+04  2.04116E+04 -1.08792E+04
  1.87659E+04  8.90693E+01  1.34440E+04  2.73379E+03  6.99555E+03 -4.02587E+02  1.07600E+04 -4.83125E+02
  1.67841E+04  2.00954E+03  2.05779E+04  1.38428E+04  1.29491E+04  3.37528E+04 -3.20222E+03  3.71049E+04
 -2.04140E+04  2.96071E+04 -3.46823E+04  1.36280E+04 -3.50020E+04 -1.47834E+03 -2.82428E+04 -1.94629E+04
 -1.21882E+04 -2.98530E+04  9.44606E+03 -2.79560E+04  2.25113E+04 -1.27199E+04  2.13316E+04  5.47920E+03
  6.97230E+03  1.49525E+04 -1.08395E+04  1.49952E+04 -1.72898E+04  2.03680E+03 -1.30804E+04 -1.02665E+04
  1.24075E+03 -1.67730E+04  9.30464E+03 -1.26489E+04  1.08195E+04 -1.61799E+03  2.16400E+03  9.11888E+03
 -7.44270E+03  3.82846E+03 -6.47286E+03 -4.59612E+03 -6.21844E+02 -1.49568E+04  1.00008E+04 -1.54471E+04
  1.90029E+04 -7.89205E+03  1.95870E+04  3.83067E+03  1.74878E+04  1.47079E+04  8.20563E+03  2.18388E+04
 -4.73215E+03  2.40262E+04 -1.62385E+04  1.68978E+04 -1.67835E+04  2.82801E+03 -1.06244E+04 -4.77841E+03
 -4.63799E+03 -5.83191E+03 -6.25753E+02  1.85168E+03 -2.04607E+03  2.01116E+03 -6.48256E+03  3.96066E+03
 -1.18305E+04 -8.17341E+02 -1.22120E+04 -9.52628E+03 -5.15973E+03 -1.65488E+04  5.09952E+03 -1.16065E+04
  1.02442E+04 -7.23004E+03  7.51865E+03  2.58753E+03 -1.52004E+03  4.39506E+03 -6.59061E+03 -4.02425E+02
 -5.55416E+03 -8.56759E+03 -1.40874E+01 -1.11167E+04  7.30863E+03 -1.26545E+04  1.60079E+04 -7.26515E+03
  1.80406E+04  1.95509E+03  1.25642E+04  1.17648E+04  2.56108E+03  1.43418E+04 -7.57942E+03  1.17049E+04
 -1.02283E+04  3.56525E+03 -4.75485E+03 -2.62785E+03  1.59808E+03 -3.28669E+03  6.98962E+03 -4.64266E+02
  5.56562E+03  4.89460E+03  9.88545E+02  1.03720E+04 -5.01806E+03  9.19159E+03 -1.07534E+04  1.80866E+03
 -9.03935E+03 -7.09682E+03  5.34996E+02 -1.00346E+04  5.98418E+03 -4.89597E+03  6.57018E+03  2.99880E+03
  2.09701E+03  5.92426E+03 -6.60855E+03  7.84257E+03 -8.72382E+03  4.03204E+03 -9.95964E+03 -3.24534E+03
 -6.47410E+03 -1.14041E+04  3.28279E+03 -1.29821E+04  9.78577E+03 -8.00433E+03  1.13607E+04  1.69104E+03
  8.33697E+03  9.03291E+03  1.31704E+02  1.00459E+04 -8.76758E+03  7.29799E+03 -8.57701E+03 -2.15534E+02
 -8.30684E+03 -6.61247E+03 -2.22190E+03 -7.77340E+03  2.96069E+03 -7.53723E+03  5.14866E+03 -2.86414E+03
  3.18734E+03  7.13824E+02  8.97725E+02  2.20066E+03 -9.75088E+02 -2.20699E+03  1.82504E+03 -4.26713E+03
  7.84113E+03 -3.63405E+03  1.01897E+04  6.24987E+02  1.24163E+04  7.57623E+03  7.12523E+03  1.48018E+04
 -3.78740E+03  1.67856E+04 -1.37933E+04  1.26487E+04 -1.83991E+04  2.14260E+03 -1.44480E+04 -6.02167E+03
 -8.01547E+03 -1.13414E+04  4.59629E+02 -9.53083E+03  2.92184E+03 -5.67053E+03  3.58561E+03 -3.11648E+03
  2.18968E+03 -1.96489E+03  4.02116E+03 -3.25397E+03  4.05208E+03 -2.02027E+03  5.54121E+03  5.13288E+02
  7.57669E+03  1.75457E+03  2.92093E+03  6.01371E+03 -2.93182E+03  8.73268E+03 -7.94305E+03  5.67932E+03
 -1.00034E+04 -6.81728E+02 -5.89844E+03 -7.02658E+03 -1.89191E+03 -1.16580E+04  5.56335E+03 -9.99847E+03
  1.18300E+04 -6.27778E+03  1.39538E+04  1.28609E+03  7.49869E+03  9.85901E+03  1.00942E+03  1.28904E+04
 -4.40431E+03  1.09832E+04 -6.52994E+03  3.15215E+03 -5.06585E+03 -9.74026E+02 -1.64458E+03 -1.32763E+03
 -1.71367E+03 -1.31921E+02 -7.98052E+02  2.00247E+03 -4.67356E+03  1.57331E+03 -6.13830E+03 -2.05387E+03
 -5.06439E+03 -7.13107E+03 -1.20136E+03 -9.61045E+03  5.32773E+03 -9.73973E+03  1.00436E+04 -3.39993E+03
  9.04908E+03  4.70767E+03  3.76720E+03  8.92259E+03 -2.36075E+03  9.68166E+03 -6.37238E+03  6.54440E+03
 -8.89283E+03  1.75287E+03 -7.82853E+03 -5.64378E+03 -6.87608E+02 -8.44882E+03  3.58257E+03 -7.16660E+03
  5.75628E+03 -2.76959E+03  4.14453E+03  2.17918E+03  1.72867E+03  3.65780E+03  1.04376E+03 -6.81914E+02
  2.04870E+03  1.16976E+03  2.80829E+03  1.34679E+03  3.23301E+03  4.63667E+03  2.89164E+03  6.78643E+03
 -3.08938E+03  7.94039E+03 -7.52537E+03  7.42138E+03 -9.02971E+03  1.97588E+03 -9.70307E+03 -3.28388E+03
 -5.23011E+03 -9.19890E+03 -8.36642E+02 -1.15349E+04  5.10192E+03 -6.11231E+03  7.82022E+03 -5.34020E+02
  6.36165E+03  3.90171E+03  1.71130E+03  3.98046E+03 -3.97524E+03  2.47379E+03 -3.29626E+03 -5.23074E+02
  9.40462E+02 -3.62357E+03  3.24409E+03 -4.55444E+03  3.33665E+03 -3.20652E+03  3.56617E+03  2.26370E+03
  1.14928E+03  9.62139E+02  1.99523E+03  5.95381E+02  2.53416E+02  2.20604E+03  5.30203E+02 -6.68789E+01
  1.58360E+03 -1.05391E+03  4.81471E+03  1.59163E+03  7.97246E+02  5.12487E+03 -1.82548E+03  7.84535E+03
 -4.62595E+03  5.14533E+03 -5.22850E+03  3.18447E+02 -5.99866E+03 -2.66130E+03 -9.42920E+02 -3.87772E+03
  1.20051E+03 -4.55937E+03  2.53179E+03 -3.33191E+03  1.18575E+03  1.00824E+03 -1.00950E+03  2.53553E+03
 -3.64894E+03  5.85620E+02 -3.22997E+03 -2.56470E+03 -2.00782E+03 -5.82099E+03  7.78167E+02 -4.47198E+03
  3.68838E+03 -2.64040E+03  3.08876E+03 -7.05390E+02  3.37550E+03  1.15733E+03  1.27577E+03  2.92918E+03
 -1.83121E+03  8.07037E+02 -2.79618E+03 -2.06500E+03  3.49169E+02 -4.03900E+03  4.94478E+03 -2.40377E+03
  4.63519E+03 -4.77675E+02  6.07420E+03  2.84229E+03  2.24577E+03  5.67166E+03 -9.44521E+02  4.10696E+03
 -5.04884E+03  2.22004E+03 -4.63985E+03 -6.62438E+02 -3.98954E+03 -3.60884E+03 -3.42326E+02 -3.50271E+03
  3.31349E+03 -9.70359E+02  2.59365E+03  1.72597E+03  1.72851E+03  3.15978E+03 -7.28104E+02  3.22268E+03
 -1.51735E+03  1.71602E+03 -8.55828E+02 -3.07322E+02  8.32454E+02  3.33674E+02 -1.24140E+03  1.51965E+02
 -2.03368E+03  2.40085E+03 -4.71074E+03  2.38152E+03 -4.94776E+03  4.06577E+02 -6.77884E+03 -4.05024E+03
 -2.29667E+03 -7.05907E+03  1.10403E+03 -9.55206E+03  4.40881E+03 -5.81957E+03  7.42276E+03 -2.52682E+03
  7.25951E+03  5.88881E+02  3.62182E+03  5.65863E+03  1.02079E+03  4.44943E+03 -3.28103E+03  3.57014E+03
 -2.63533E+03  2.54687E+03 -1.38133E+03 -9.86771E+02  2.87417E+02 -1.21244E+01  9.41560E+01  5.08576E+02
 -1.16163E+03 -7.28720E+02 -1.17389E+03 -5.12568E+02 -9.32762E+02 -1.57237E+03 -6.08862E+02 -2.07161E+03
  2.36735E+03 -1.96356E+03  4.22237E+03 -1.46038E+03  4.37588E+03  2.73635E+03 -1.58048E+02  5.40317E+03
 -3.46615E+03  7.11255E+03 -5.51377E+03  4.26993E+03 -6.55899E+03 -3.33080E+02 -4.95284E+03 -4.35629E+03
 -2.53356E+03 -6.41795E+03  2.53716E+03 -6.01531E+03  4.48324E+03 -3.95538E+03  3.24802E+03  2.43678E+02
  1.97829E+03  2.60514E+03 -8.56814E+02  2.34471E+03 -2.35733E+03 -1.72250E+02  4.22931E+02 -1.57097E+03
  2.14192E+03 -1.51678E+03  2.04557E+03  2.83638E+03  1.10031E+03  1.79892E+03  1.79680E+02  2.98875E+03
 -3.36191E+03  2.48264E+03 -4.86913E+03 -5.29726E+02 -3.15896E+03 -2.56329E+03 -2.85120E+01 -4.12193E+03
  4.63618E+03 -2.15299E+03  3.70712E+03 -2.48123E+02  4.15039E+03  1.24492E+03  1.36842E+03  5.21760E+03
 -1.58840E+02  3.26301E+03 -1.24426E+03  2.33405E+03 -3.24689E+03  1.64213E+03 -1.39555E+03 -5.72855E+00
 -2.38032E+02 -5.08817E+01 -2.21362E+03  8.38221E+02 -1.66768E+03 -1.67381E+02 -1.84934E+03 -3.34441E+02
 -3.49823E+03 -1.69740E+03 -2.09548E+03 -2.90935E+03  4.08193E+03 -3.67699E+03  3.28391E+03 -1.90939E+03
  3.86125E+03 -1.78175E+02  1.10621E+03  1.72523E+03 -6.30242E+01  4.09073E+03 -3.44896E+03  8.58089E+02
