 $NMID ID='MM_0lb_SNR200_13hz_g45_73.RAW', FMTDAT='(8E13.5)'
 TRAMP=1., VOLUME=1. $END
  3.10104E+05  8.52794E+02  3.37527E+05  2.51258E+05  8.49615E+04  3.37070E+05 -1.32712E+05  2.51258E+05
 -1.89854E+05  8.48069E+04 -1.12599E+05 -3.11207E+04  1.39322E+03 -5.10139E+04  5.46319E+04  5.09095E+02
  3.58115E+04  5.33823E+04 -1.57453E+04  7.54157E+04 -6.22240E+04  6.40469E+04 -8.43117E+04  3.11398E+04
 -8.13977E+04 -1.21494E+04 -5.88819E+04 -5.17471E+04 -1.24393E+04 -6.91926E+04  2.88838E+04 -4.68893E+04
  4.09845E+04  3.55166E+03  1.67063E+04  4.74180E+04 -3.48572E+04  4.60996E+04 -6.54904E+04 -1.52479E+03
 -5.32196E+04 -5.80337E+04 -5.74393E+03 -7.67929E+04  3.37898E+04 -5.64561E+04  4.74754E+04 -1.81814E+04
  4.44611E+04  1.04225E+04  3.25876E+04  2.48898E+04  1.56428E+04  2.90986E+04 -4.96417E+03  2.70708E+04
 -2.19009E+04  1.27369E+04 -1.81811E+04 -5.30291E+03  6.21574E+03 -7.88479E+03  2.31072E+04  1.25040E+04
  6.91702E+03  3.54225E+04 -3.30520E+04  3.52195E+04 -6.24651E+04  3.01249E+03 -5.75214E+04 -4.06376E+04
 -1.26724E+04 -6.28414E+04  3.88655E+04 -4.67279E+04  5.85748E+04 -2.40346E+03  3.48653E+04  3.20105E+04
 -5.62176E+03  3.57908E+04 -2.97586E+04  1.67737E+04 -3.13235E+04 -4.91498E+03 -1.63827E+04 -1.08766E+04
 -9.39366E+03 -1.36925E+04 -1.38710E+03 -1.82946E+04  7.42950E+03 -2.32110E+04  1.39975E+04 -1.40275E+04
  1.12625E+04  6.68417E+03 -8.30299E+03  1.23179E+04 -2.15090E+04 -3.92010E+03 -7.55062E+03 -3.36640E+04
  2.32161E+04 -4.44917E+04  4.70522E+04 -1.91406E+04  4.59036E+04  1.96451E+04  1.54327E+04  4.53436E+04
 -1.71498E+04  3.35782E+04 -2.64792E+04  9.12998E+02 -9.38885E+03 -2.89007E+04  2.05360E+04 -3.41246E+04
  4.17761E+04 -9.97668E+03  3.48874E+04  2.45187E+04  1.90267E+04  4.68660E+04 -7.96291E+03  5.00512E+04
 -3.26330E+04  3.36458E+04 -4.14908E+04  9.48519E+03 -4.09971E+04 -1.74444E+04 -2.46772E+04 -3.77562E+04
  6.27940E+03 -3.83689E+04  3.22387E+04 -1.47475E+04  3.02353E+04  1.13130E+04  5.48041E+03  1.97778E+04
 -1.36503E+04  7.90026E+03 -1.26681E+04 -7.57073E+03  5.70419E+03 -1.08771E+04  1.92358E+04  7.10541E+03
  1.33370E+04  2.17202E+04 -4.71419E+03  2.51562E+04 -2.29025E+04  1.16111E+04 -2.79395E+04 -4.52218E+03
 -2.19991E+04 -1.74596E+04 -8.09386E+03 -1.96622E+04  5.51350E+03 -1.99383E+04  1.48784E+04 -1.97286E+04
  2.66072E+04 -1.34188E+04  3.44009E+04  3.38482E+03  2.38997E+04  1.97792E+04  3.22022E+03  3.65428E+04
 -1.67131E+04  3.10244E+04 -2.81589E+04  9.30182E+03 -2.16574E+04 -1.02768E+04 -4.04816E+03 -1.38025E+04
  8.60814E+02 -2.40135E+03 -5.87825E+03  7.18444E+03 -1.76753E+04  4.90145E+03 -1.73896E+04 -6.77422E+03
 -1.11035E+04 -1.91885E+04  4.47323E+03 -2.43820E+04  1.59865E+04 -1.66271E+04  1.82555E+04 -1.46451E+03
  1.10163E+04  1.42238E+04 -1.76380E+03  2.11591E+04 -1.28130E+04  1.05665E+04 -1.93374E+04 -4.02098E+03
 -1.43280E+04 -1.83192E+04 -3.35628E+03 -2.32844E+04  1.04890E+04 -1.94430E+04  1.90418E+04 -1.02125E+04
  1.85147E+04  9.22260E+02  1.28997E+04  4.45441E+03  8.00418E+03  1.37541E+03  1.03788E+04 -7.35225E+02
  1.77622E+04  3.70536E+03  1.92581E+04  1.62860E+04  1.20443E+04  3.22274E+04 -4.23292E+03  3.71477E+04
 -2.08121E+04  2.89831E+04 -3.31290E+04  1.33127E+04 -3.49002E+04 -1.76451E+03 -2.94273E+04 -2.05541E+04
 -1.33589E+04 -3.07018E+04  8.84333E+03 -2.54681E+04  2.19501E+04 -1.22945E+04  2.03986E+04  5.62706E+03
  7.61069E+03  1.53442E+04 -9.12312E+03  1.36509E+04 -1.73930E+04  2.19508E+03 -1.32455E+04 -1.05129E+04
 -1.49636E+02 -1.58103E+04  7.78069E+03 -1.09158E+04  1.02411E+04 -1.03139E+03  3.85689E+03  6.08093E+03
 -6.50701E+03  2.09681E+03 -6.36103E+03 -6.24897E+03  6.26471E+02 -1.42113E+04  9.92110E+03 -1.36673E+04
  1.70994E+04 -7.80392E+03  1.93902E+04  3.11917E+03  1.64722E+04  1.31235E+04  6.83628E+03  2.10580E+04
 -3.57395E+03  2.25282E+04 -1.46162E+04  1.44264E+04 -1.70582E+04  4.70468E+03 -1.20800E+04 -4.35777E+03
 -5.72636E+03 -6.90355E+03 -1.37812E+03  2.59705E+01 -2.35538E+03  3.71175E+03 -4.57009E+03  4.00326E+03
 -1.14992E+04 -2.19303E+02 -1.17609E+04 -9.28164E+03 -3.35089E+03 -1.43482E+04  6.27727E+03 -1.22536E+04
  9.64270E+03 -4.84423E+03  6.16351E+03  2.80752E+03 -5.75107E+02  4.16470E+03 -5.94478E+03  9.00172E+02
 -6.12041E+03 -6.45390E+03  3.37024E+02 -1.00758E+04  5.50246E+03 -1.12013E+04  1.51981E+04 -5.98463E+03
  1.73200E+04  8.99053E+02  1.20568E+04  1.05536E+04  2.02485E+03  1.39202E+04 -7.63233E+03  1.16728E+04
 -9.95681E+03  3.62850E+03 -5.25310E+03 -2.33836E+03  2.60085E+03 -3.31234E+03  6.80825E+03 -1.54953E+03
  5.14869E+03  4.50236E+03  9.07462E+02  8.85896E+03 -6.42364E+03  1.00601E+04 -1.04002E+04  2.69110E+03
 -7.49796E+03 -6.26093E+03 -3.64427E+02 -9.83108E+03  7.17941E+03 -5.26215E+03  5.19709E+03  1.96822E+03
  1.43748E+03  6.96678E+03 -6.51344E+03  9.34969E+03 -8.88937E+03  3.66365E+03 -9.00630E+03 -3.15275E+03
 -4.82367E+03 -1.02530E+04  2.88416E+03 -1.23523E+04  9.05581E+03 -7.22808E+03  1.02910E+04  1.21087E+03
  7.09603E+03  7.93370E+03  4.45049E+01  1.10264E+04 -8.08865E+03  5.77861E+03 -8.84152E+03 -3.67844E+02
 -8.97517E+03 -7.09596E+03 -8.14286E+02 -8.34674E+03  3.61278E+03 -8.13255E+03  5.76660E+03 -3.55218E+03
  4.54088E+03  1.88984E+03 -3.61215E+02  2.33140E+03  8.65123E+01 -8.71061E+02  1.25815E+03 -4.82522E+03
  7.69605E+03 -2.10392E+03  1.08188E+04  1.14143E+03  9.82939E+03  5.90587E+03  8.19022E+03  1.34815E+04
 -2.96179E+03  1.61903E+04 -1.29858E+04  1.06273E+04 -1.64845E+04  3.07965E+03 -1.37745E+04 -5.34586E+03
 -6.72205E+03 -1.06525E+04  1.29080E+03 -8.95933E+03  3.59452E+03 -4.74694E+03  2.89878E+03 -3.61677E+03
  3.26624E+03 -3.19101E+03  2.98469E+03 -1.49040E+03  4.88893E+03 -1.76613E+03  6.99770E+03 -1.67616E+02
  7.79939E+03  1.54221E+03  3.13851E+03  5.39305E+03 -7.69480E+02  5.90905E+03 -8.49291E+03  5.88913E+03
 -8.34239E+03 -1.34127E+03 -4.85259E+03 -5.91963E+03  9.73629E+02 -9.02983E+03  5.52683E+03 -1.06552E+04
  9.92075E+03 -6.01312E+03  1.15010E+04  2.11751E+03  8.30239E+03  8.19686E+03  2.24102E+03  1.18530E+04
 -4.30422E+03  9.38184E+03 -6.38683E+03  3.50463E+03 -3.98754E+03 -1.29380E+03 -1.11644E+03 -4.75023E+02
 -1.53425E+03 -4.20362E+02 -2.72861E+03  2.58884E+03 -4.45229E+03  2.41511E+03 -7.17319E+03 -2.32105E+03
 -5.07443E+03 -6.62244E+03  4.98778E+01 -9.53357E+03  5.37752E+03 -7.99794E+03  8.55156E+03 -3.86027E+03
  8.33790E+03  3.75302E+03  3.70551E+03  7.83854E+03 -2.07501E+03  9.48561E+03 -6.09466E+03  5.48914E+03
 -8.83105E+03  1.99385E+02 -6.51899E+03 -4.64702E+03 -1.32403E+02 -5.88005E+03  2.41628E+03 -5.72634E+03
  5.31700E+03 -1.91925E+03  3.99920E+03  2.02344E+03  7.84495E+02  2.13389E+03  1.48983E+03  2.31936E+03
  2.74800E+03  5.15271E+02  2.26323E+03  2.71250E+03  2.01372E+03  2.72229E+03  2.12756E+03  3.33447E+03
 -2.50020E+03  6.44253E+03 -4.29135E+03  7.18807E+03 -8.62357E+03  3.04556E+03 -8.72511E+03 -3.16856E+03
 -4.89196E+03 -8.35247E+03  7.24780E+02 -9.80636E+03  5.04073E+03 -5.61561E+03  6.22602E+03 -1.16760E+03
  5.18924E+03  2.59340E+03  1.97247E+03  5.05295E+03 -3.44601E+03  2.76153E+03 -4.00041E+03 -9.17172E+02
 -8.91562E+02 -3.71443E+03  2.32362E+03 -4.40157E+03  3.31987E+03 -2.65606E+03  2.95354E+03  1.26643E+03
  3.01602E+03  1.83625E+03  7.20681E+02  7.47404E+02 -5.87698E+02  1.44934E+02  2.29607E+03 -1.73861E+03
  1.28888E+03 -1.12676E+03  4.80585E+03  1.72084E+03  2.76023E+03  5.58224E+03 -7.73227E+02  6.94116E+03
 -4.27537E+03  2.44261E+03 -3.81218E+03  1.39573E+03 -4.04232E+03 -1.87582E+03 -2.72951E+03 -2.56891E+03
  3.57872E+02 -1.99793E+03  2.78148E+03 -1.12987E+03  2.53384E+03  7.21991E+02 -1.31643E+03  1.72302E+03
 -4.70037E+03  1.42886E+03 -3.27631E+03 -2.03265E+03 -2.99721E+03 -4.57685E+03  5.31286E+02 -4.14234E+03
  3.18688E+03 -2.06156E+03  1.86011E+03  4.08658E+02  3.13354E+03  9.19218E+00  9.27352E+02  1.31133E+03
 -1.64400E+03  1.94783E+03 -1.75042E+03 -1.93230E+03  2.28269E+02 -1.45649E+03  4.11937E+03 -2.25987E+03
  4.36761E+03  9.29658E+02  5.90267E+03  3.31887E+03  2.15038E+03  5.78367E+03 -1.65557E+03  4.20377E+03
 -3.97142E+03  1.86100E+03 -2.99894E+03  3.33808E+02 -3.23347E+03 -3.26987E+03  1.25510E+03 -2.24074E+03
  2.88744E+03 -2.83109E+03  3.11079E+03  9.54258E+02  1.94542E+03  2.15661E+03 -8.82222E+02  2.46121E+03
 -8.87635E+02  2.52804E+03 -1.47594E+03  1.48916E+03 -1.60617E+02  2.78168E+02 -1.65886E+03  1.98765E+03
 -2.25563E+03  1.56045E+03 -3.40707E+03  2.39646E+03 -5.36901E+03 -4.49261E+02 -5.62102E+03 -2.80774E+03
 -3.43573E+03 -6.35709E+03  1.16867E+03 -6.93878E+03  3.04769E+03 -6.53456E+03  7.12580E+03 -1.83344E+03
  6.52139E+03 -1.31382E+02  4.13436E+03  5.41316E+03  4.09394E+02  4.37183E+03 -1.66599E+03  3.33207E+03
 -2.55953E+03  2.70161E+03 -1.13505E+03 -8.34691E+01 -1.77420E+03 -1.10007E+02 -7.30929E+02  5.97040E+02
 -1.57740E+03 -3.11748E+02  3.37343E+02  4.54495E+02  5.27109E-01 -2.57917E+03 -2.64241E+02 -2.18668E+03
  2.18163E+03 -3.85623E+02  2.96531E+03 -4.49944E+02  4.18247E+03  3.22710E+02 -4.39121E+02  5.21390E+03
 -3.03382E+03  5.53033E+03 -4.48953E+03  4.33253E+03 -6.90611E+03  1.46972E+03 -3.50410E+03 -4.51763E+03
 -1.44529E+03 -5.36731E+03  3.18159E+02 -3.89333E+03  4.11227E+03 -1.98872E+03  2.25159E+03  2.23792E+02
  1.86120E+03  1.71054E+03 -1.40635E+02  3.03892E+03 -2.70195E+02 -9.63063E+02 -1.12461E+02 -9.71648E+01
  1.72438E+03 -4.52302E+02  1.64609E+03  8.32743E+02  3.05660E+02  2.12830E+03 -3.21239E+02  1.13867E+03
 -2.23446E+03  1.26443E+03 -2.05260E+03  1.22109E+03 -2.94874E+03 -8.71947E+02 -3.46417E+02 -5.82762E+03
  2.05933E+03 -1.42890E+03  3.78190E+03 -1.11689E+02  4.44869E+03  8.14023E+02  8.34758E+02  2.46131E+03
  6.60598E+02  3.14814E+03 -8.60346E+02  2.55866E+03 -1.93076E+03  4.20734E+02 -1.05839E+03 -1.39290E+02
 -1.00595E+03 -1.09514E+03 -1.75328E+02 -1.44662E+02 -9.00540E+02  4.66278E+02 -2.15835E+03  4.52518E+02
 -2.35932E+03 -1.82446E+03 -8.23846E+02 -5.07506E+03  1.48799E+03 -3.78224E+03  2.99615E+03 -1.15854E+03
  2.72492E+03  1.00068E+02  4.24443E+02  5.03362E+02 -8.34145E+02  3.44808E+03 -2.51093E+03  1.59227E+03
