 $NMID ID='MM_0lb_SNR200_16hz_g55_34.RAW', FMTDAT='(8E13.5)'
 TRAMP=1., VOLUME=1. $END
  3.08995E+05  4.74208E+02  3.36509E+05  2.50449E+05  8.54985E+04  3.37622E+05 -1.32672E+05  2.51508E+05
 -1.91556E+05  8.25934E+04 -1.12133E+05 -3.36978E+04  7.08469E+02 -5.03596E+04  5.37481E+04 -1.62044E+02
  3.47547E+04  5.37708E+04 -1.73954E+04  7.51909E+04 -6.12443E+04  6.36179E+04 -8.36305E+04  3.13916E+04
 -8.13827E+04 -1.23879E+04 -5.78933E+04 -5.19260E+04 -1.43542E+04 -6.96487E+04  2.66844E+04 -4.66965E+04
  4.05183E+04  3.88242E+03  1.60539E+04  4.80450E+04 -3.47175E+04  4.82137E+04 -6.56886E+04 -7.74720E+02
 -5.37233E+04 -5.67437E+04 -6.59310E+03 -7.62773E+04  3.26229E+04 -5.51368E+04  4.80664E+04 -1.67778E+04
  4.24613E+04  1.18602E+04  3.07452E+04  2.57522E+04  1.53513E+04  2.97551E+04 -5.36140E+03  2.68473E+04
 -2.14789E+04  1.27183E+04 -1.83641E+04 -4.89139E+03  5.79880E+03 -8.56707E+03  2.19846E+04  1.19247E+04
  7.87027E+03  3.50872E+04 -3.16884E+04  3.49798E+04 -6.34420E+04  2.57873E+03 -5.58908E+04 -4.23646E+04
 -1.30888E+04 -6.32616E+04  3.89127E+04 -4.61470E+04  5.73363E+04 -2.34581E+03  3.35650E+04  3.13016E+04
 -5.82038E+03  3.50947E+04 -2.89921E+04  1.39923E+04 -3.06707E+04 -4.19280E+03 -1.59369E+04 -1.03716E+04
 -9.54855E+03 -1.30314E+04 -4.05153E+02 -1.74832E+04  7.35198E+03 -2.17715E+04  1.46373E+04 -1.43775E+04
  1.16843E+04  5.95245E+03 -8.89934E+03  1.26180E+04 -2.10013E+04 -3.49110E+03 -7.56435E+03 -3.24648E+04
  2.20879E+04 -4.33079E+04  4.83609E+04 -1.98982E+04  4.44917E+04  2.02029E+04  1.63362E+04  4.38137E+04
 -1.62984E+04  3.41899E+04 -2.53099E+04  1.26121E+03 -9.60094E+03 -2.83027E+04  2.14388E+04 -3.24354E+04
  4.03344E+04 -8.30000E+03  3.52283E+04  2.38754E+04  1.66251E+04  4.57490E+04 -8.53058E+03  4.88462E+04
 -3.06248E+04  3.44945E+04 -4.09587E+04  1.03608E+04 -4.15778E+04 -1.64541E+04 -2.30089E+04 -3.71746E+04
  8.08907E+03 -3.76824E+04  3.07956E+04 -1.38913E+04  2.86857E+04  1.10770E+04  2.63591E+03  1.86019E+04
 -1.12169E+04  8.40934E+03 -1.02786E+04 -9.09292E+03  5.00405E+03 -1.09652E+04  1.74264E+04  5.92956E+03
  1.26003E+04  2.23883E+04 -6.36734E+03  2.49119E+04 -2.09619E+04  1.11055E+04 -2.67893E+04 -5.22182E+03
 -1.97586E+04 -1.75274E+04 -8.07053E+03 -2.07639E+04  3.88657E+03 -1.90777E+04  1.53558E+04 -1.64896E+04
  2.62651E+04 -1.33787E+04  3.25387E+04  2.50999E+03  2.20375E+04  1.90902E+04  5.62042E+03  3.65854E+04
 -1.70050E+04  2.95270E+04 -2.77011E+04  1.00430E+04 -2.07971E+04 -9.73537E+03 -4.17199E+03 -1.32045E+04
  1.26326E+03 -3.08899E+03 -4.17204E+03  6.49002E+03 -1.45153E+04  4.85053E+03 -1.39386E+04 -5.47226E+03
 -9.56994E+03 -1.85163E+04  4.98937E+03 -2.25535E+04  1.54985E+04 -1.56874E+04  1.65860E+04 -2.14077E+03
  1.01047E+04  1.28397E+04 -1.15384E+03  1.70048E+04 -1.24062E+04  1.01532E+04 -1.78083E+04 -2.92088E+03
 -1.30989E+04 -1.63077E+04 -1.81220E+03 -2.24692E+04  1.00659E+04 -1.83870E+04  1.84795E+04 -9.14572E+03
  1.75628E+04  1.15137E+03  1.21162E+04  3.78787E+03  6.28409E+03  6.82580E+02  8.43126E+03 -2.78044E+02
  1.59623E+04  2.67107E+03  1.82533E+04  1.43576E+04  1.19671E+04  2.77360E+04 -2.80469E+03  3.04259E+04
 -1.79325E+04  2.59298E+04 -2.99126E+04  1.34930E+04 -3.10432E+04 -2.83145E+03 -2.64300E+04 -1.86676E+04
 -1.09986E+04 -2.48318E+04  9.86310E+03 -2.31900E+04  2.05737E+04 -1.17152E+04  1.89614E+04  4.58246E+03
  5.30815E+03  1.38685E+04 -8.81387E+03  1.14512E+04 -1.48298E+04  1.46470E+03 -1.10456E+04 -8.23761E+03
 -5.31328E+02 -1.30911E+04  7.00577E+03 -1.00136E+04  7.39603E+03 -1.52960E+03  2.58462E+03  5.09495E+03
 -7.46216E+03  8.77104E+02 -5.20639E+03 -4.81587E+03  8.13407E+02 -1.22559E+04  9.34958E+03 -1.16144E+04
  1.50865E+04 -5.76364E+03  1.54645E+04  2.04448E+03  1.40651E+04  1.13608E+04  6.46261E+03  1.79133E+04
 -2.40321E+03  2.08938E+04 -1.28854E+04  1.22513E+04 -1.42400E+04  2.75467E+03 -1.10716E+04 -3.84498E+03
 -4.65685E+03 -3.62045E+03 -1.19292E+02  1.43354E+03 -1.89126E+03  2.88351E+03 -5.81685E+03  3.53178E+03
 -9.02688E+03 -1.10366E+03 -9.90266E+03 -8.10191E+03 -4.78312E+03 -1.31472E+04  4.60820E+03 -1.04664E+04
  9.48669E+03 -3.14722E+03  6.43286E+03  3.91613E+03  8.06933E+02  2.83080E+03 -5.50776E+03 -3.10779E+02
 -4.14479E+03 -7.10053E+03 -1.11610E+03 -7.98595E+03  5.70719E+03 -1.01617E+04  1.28514E+04 -5.76519E+03
  1.46692E+04  1.47861E+03  9.44800E+03  8.76292E+03  2.23789E+03  1.12499E+04 -5.68402E+03  1.10351E+04
 -8.83144E+03  3.19269E+03 -4.68086E+03 -1.85993E+03  1.58526E+03 -2.51261E+03  5.25762E+03 -9.24547E+02
  5.52111E+03  3.53551E+03  1.22894E+03  7.03574E+03 -5.43663E+03  8.32094E+03 -1.06829E+04  2.36024E+03
 -5.63738E+03 -4.72068E+03 -1.29798E+02 -8.70745E+03  4.07407E+03 -4.19842E+03  4.75394E+03  1.30843E+03
  1.77526E+03  3.91233E+03 -5.77419E+03  6.50404E+03 -6.77749E+03  3.23844E+03 -7.39574E+03 -3.29165E+03
 -2.98558E+03 -7.50967E+03  2.37014E+03 -8.93622E+03  8.36588E+03 -6.39994E+03  7.57722E+03  2.73770E+03
  5.27487E+03  7.37211E+03  2.58285E+02  9.55506E+03 -5.84667E+03  4.70978E+03 -6.65029E+03 -9.58572E+02
 -8.47592E+03 -6.42048E+03 -1.96426E+03 -7.41280E+03  3.73037E+03 -5.55072E+03  3.56277E+03 -2.48908E+03
  2.79508E+03  7.36584E+02 -6.50396E+02  1.07162E+03  1.47159E+03 -9.33010E+02  1.23997E+03 -4.36765E+03
  5.92721E+03 -1.72550E+03  7.17473E+03  1.32349E+03  7.15215E+03  5.35441E+03  6.79857E+03  1.05075E+04
 -1.97980E+03  1.18195E+04 -1.00493E+04  7.37563E+03 -1.52321E+04  1.88311E+03 -1.01318E+04 -4.12320E+03
 -5.25075E+03 -9.34386E+03 -5.79290E+02 -8.40461E+03  3.25524E+03 -3.33795E+03  1.48956E+03 -1.69469E+03
  2.93778E+03 -2.75200E+03  2.32860E+03 -2.64878E+03  3.35122E+03 -2.03440E+03  4.97183E+03  8.85489E+01
  6.46534E+03  2.65974E+03  2.39459E+03  4.66560E+03 -1.60555E+03  3.43215E+03 -5.30459E+03  4.38020E+03
 -7.45524E+03 -6.04234E+02 -3.36728E+03 -5.18478E+03 -2.29621E+02 -7.24589E+03  4.67403E+03 -6.05794E+03
  8.29348E+03 -4.96218E+03  9.74935E+03  1.34524E+03  7.03413E+03  6.19678E+03  2.53953E+03  8.68032E+03
 -2.35638E+03  8.83385E+03 -4.40869E+03  3.26003E+03 -2.43826E+03 -4.95505E+01 -6.86724E+02 -1.18448E+03
  1.44430E+03 -7.15294E+02 -1.08564E+03  2.39739E+03 -4.63159E+03  5.47672E+02 -5.74154E+03 -4.55017E+02
 -3.30991E+03 -5.28298E+03 -4.57581E+02 -6.67075E+03  3.29491E+03 -5.37838E+03  5.02061E+03 -1.28638E+03
  5.56857E+03  2.56441E+03  1.55492E+03  5.49399E+03  1.81956E+02  6.28300E+03 -5.19119E+03  3.68278E+03
 -6.10804E+03  2.05282E+03 -5.44589E+03 -3.03802E+03 -1.11831E+03 -4.38964E+03  3.24897E+03 -3.91994E+03
  3.84625E+03 -1.85205E+03  2.36606E+03  8.71552E+02  4.00790E+02  2.07197E+03 -2.47129E+02  2.63683E+03
  1.78800E+03  7.55473E+02  1.08594E+03  1.14675E+03  2.25057E+03  2.76601E+03  1.84713E+03  2.66733E+03
 -2.36897E+03  4.96063E+03 -4.00495E+03  6.20795E+03 -4.65787E+03  1.42677E+03 -5.86908E+03 -1.11326E+03
 -3.26062E+03 -5.84029E+03  1.45083E+03 -7.07542E+03  2.58121E+03 -4.45027E+03  4.71432E+03 -2.15150E+03
  3.86173E+03  1.58995E+03  3.33678E+02  2.64224E+03 -1.37927E+03  9.93504E+02 -5.68390E+02 -1.93030E+01
 -6.89391E+02 -1.95115E+03  1.47549E+03 -3.48688E+03  2.96336E+03 -1.65675E+03  1.87235E+03 -4.01249E+01
  8.06727E+02  3.16160E+02  5.60055E+02 -3.42688E+02  7.12658E+01  9.43579E+02  1.70966E+03  3.85456E+02
  8.85648E+02  2.55235E+02  2.92782E+03  4.48693E+02  2.59582E+02  2.48538E+03  2.52937E+02  5.09936E+03
 -2.81149E+03  1.83473E+03 -4.02621E+03  1.47479E+03 -3.72133E+03 -6.36324E+02 -2.62984E+02 -1.71567E+03
 -9.57709E+01 -1.15801E+03  1.91253E+03 -1.29946E+03  4.77978E+02  2.05683E+03 -7.79562E+02  2.56508E+03
 -2.13379E+03  7.35763E+02 -2.31971E+03 -5.95480E+02 -1.93388E+03 -1.83527E+03  6.78868E+02 -2.10985E+03
  1.42423E+03 -1.48230E+03  6.61300E+02  2.68328E+02  1.37679E+03  1.27065E+02  1.00930E+03  1.20793E+03
 -1.21269E+03  5.99959E+02  3.84856E+02 -1.51598E+03  1.48932E+02 -1.26968E+03  3.54527E+03 -9.02403E+02
  2.84569E+03  1.20017E+02  4.05454E+03  2.03781E+03  1.12603E+03  3.41173E+03  8.47060E+02  4.01147E+03
 -1.65259E+03 -7.72831E+02 -2.49155E+03  1.48804E+01 -8.59501E+02 -1.83415E+03 -3.24420E+02 -1.01244E+03
  1.09899E+03 -7.44467E+02  5.51388E+02 -2.16646E+02  1.85798E+02  2.33375E+03 -5.18020E+02  1.61341E+03
  5.47165E+02  1.42492E+03 -3.91209E+02 -3.26757E+01 -3.59495E+02 -4.45532E+02 -1.23739E+03 -2.75862E+02
 -7.79770E+02  1.05877E+03 -2.78074E+03  1.02044E+03 -1.90932E+03 -8.12019E+02 -4.77043E+03 -3.18217E+03
 -1.89982E+03 -3.94439E+03  3.29413E+01 -4.40475E+03  9.73693E+02 -4.19767E+03  3.34192E+03 -1.97701E+03
  4.39210E+03  6.81868E+02  2.14547E+03  3.40979E+03 -6.83531E+02  2.25618E+03 -1.47866E+03  1.71728E+03
 -1.87108E+03  1.48358E+03 -7.54952E+02 -4.23760E+02 -1.11317E+03 -4.76452E+02 -8.32809E+02 -6.98260E+02
 -5.42556E+02  6.39350E+02 -5.63551E+02 -1.20954E+03  4.49481E+01 -3.08024E+02  9.53278E+02 -1.59006E+03
  1.06050E+03 -3.14107E+02  7.77207E+02 -5.43113E+02  2.02391E+03  9.62107E+02 -5.99723E+02  2.65078E+03
 -7.07810E+02  4.28635E+03 -1.64605E+03  1.18940E+03 -4.05687E+03 -1.59827E+02 -2.54774E+03 -2.57804E+03
 -1.09582E+03 -1.77541E+03 -1.39792E+02 -2.32752E+03  1.15458E+03 -3.52544E+01  1.93610E+03 -1.36844E+03
  1.23173E+03  4.66367E+02 -6.86187E+02  1.16665E+03  3.71939E+02 -7.16058E+02 -6.87593E+02 -8.78218E+01
  1.87679E+03 -1.18080E+02  1.60056E+03  1.08125E+03 -8.83039E+02  1.23672E+03  7.70012E+02  4.12359E+02
 -1.16381E+03  1.24583E+03 -8.83856E+02  1.35503E+02  2.04632E+02 -1.42121E+03 -8.59646E+02 -1.88502E+03
  2.13233E+02 -2.02094E+03  8.53000E+02  5.02654E+02  1.68731E+03 -8.38357E+02 -2.66596E+01  2.99480E+03
  2.29704E+03  1.50880E+03 -8.93289E+02  8.68444E+02 -2.05259E+03 -2.21928E+02 -1.16269E+03 -4.12917E+02
 -7.21271E+02  1.30241E+03 -4.08796E+02  8.77092E+02 -2.23637E+03  2.96257E+02 -1.32325E+03  1.16559E+03
 -9.80742E+02  2.98302E+02  3.72685E+02 -2.24299E+03  1.23239E+03 -1.61553E+03  1.25036E+03 -4.78049E+02
  1.33371E+03  6.37870E+02  2.14492E+02 -2.12163E+02 -1.45582E+03  1.45171E+03  1.36674E+02  1.67763E+03
