 $NMID ID='MM_0lb_SNR200_20hz_g55_72.RAW', FMTDAT='(8E13.5)'
 TRAMP=1., VOLUME=1. $END
  3.10188E+05  1.62086E+03  3.37121E+05  2.50251E+05  8.36254E+04  3.38434E+05 -1.33014E+05  2.49995E+05
 -1.90142E+05  8.27994E+04 -1.09747E+05 -3.35446E+04  2.01892E+03 -5.05304E+04  5.48555E+04  3.72427E+02
  3.52609E+04  5.27239E+04 -1.61400E+04  7.49969E+04 -5.95276E+04  6.34050E+04 -8.14803E+04  3.29202E+04
 -7.88225E+04 -1.13625E+04 -5.72162E+04 -5.00233E+04 -1.45494E+04 -6.84577E+04  2.65985E+04 -4.51673E+04
  3.90503E+04  3.73563E+03  1.48626E+04  4.72884E+04 -3.43230E+04  4.72983E+04 -6.55335E+04 -5.15252E+02
 -5.12243E+04 -5.55737E+04 -5.54180E+03 -7.49958E+04  3.28235E+04 -5.45088E+04  4.61737E+04 -1.67830E+04
  4.20512E+04  1.08974E+04  3.14330E+04  2.53757E+04  1.58266E+04  2.80944E+04 -4.71260E+03  2.61061E+04
 -2.23547E+04  1.14992E+04 -1.92641E+04 -4.19772E+03  4.84012E+03 -6.51079E+03  2.13304E+04  1.12938E+04
  7.58287E+03  3.30709E+04 -3.04875E+04  3.42535E+04 -6.13815E+04  2.54070E+03 -5.55124E+04 -4.01125E+04
 -1.24461E+04 -6.10608E+04  3.84477E+04 -4.40412E+04  5.50210E+04 -1.40767E+03  3.19891E+04  3.07328E+04
 -6.16046E+03  3.22126E+04 -2.82875E+04  1.37587E+04 -2.85771E+04 -5.02026E+03 -1.48859E+04 -1.02035E+04
 -7.46807E+03 -1.20496E+04 -1.54884E+02 -1.74712E+04  5.36919E+03 -2.24938E+04  1.48679E+04 -1.41807E+04
  1.27029E+04  4.37449E+03 -6.33132E+03  1.32180E+04 -1.89697E+04 -3.56324E+03 -7.45316E+03 -3.02349E+04
  2.08616E+04 -4.07171E+04  4.56358E+04 -1.98790E+04  4.19828E+04  1.87104E+04  1.53454E+04  4.09800E+04
 -1.47882E+04  3.10530E+04 -2.26292E+04  8.03196E+02 -8.98873E+03 -2.62994E+04  2.05735E+04 -3.05147E+04
  3.82876E+04 -6.38483E+03  3.15445E+04  2.21487E+04  1.46123E+04  4.32890E+04 -7.60198E+03  4.50257E+04
 -2.87703E+04  2.99399E+04 -3.74924E+04  9.27840E+03 -4.00728E+04 -1.46900E+04 -2.08209E+04 -3.46201E+04
  7.39882E+03 -3.29453E+04  2.86730E+04 -1.23383E+04  2.72408E+04  1.09609E+04  2.69710E+03  1.69930E+04
 -1.24842E+04  7.54505E+03 -1.05260E+04 -7.61144E+03  5.14784E+03 -9.73616E+03  1.65654E+04  6.43366E+03
  1.22117E+04  2.09427E+04 -5.15610E+03  2.30653E+04 -2.17097E+04  9.17696E+03 -2.58138E+04 -6.56296E+03
 -1.72865E+04 -1.69138E+04 -6.78870E+03 -1.66818E+04  2.95587E+03 -1.47384E+04  1.24628E+04 -1.46117E+04
  1.98720E+04 -1.19141E+04  2.79537E+04  9.32485E+02  2.12649E+04  1.70573E+04  3.99005E+03  3.21828E+04
 -1.59088E+04  2.75160E+04 -2.55647E+04  8.68873E+03 -1.88272E+04 -1.04751E+04 -3.44308E+03 -1.41223E+04
  2.60362E+03 -4.65475E+03 -2.69476E+03  5.78211E+03 -1.31745E+04  5.15254E+03 -1.29602E+04 -4.87658E+03
 -9.15556E+03 -1.50761E+04  5.36661E+03 -1.98499E+04  1.18042E+04 -1.44665E+04  1.47285E+04 -1.71570E+03
  8.81234E+03  1.08023E+04 -1.04080E+03  1.57286E+04 -9.58676E+03  8.58570E+03 -1.56568E+04 -4.06927E+03
 -1.10896E+04 -1.45929E+04 -1.83821E+03 -1.91137E+04  8.66610E+03 -1.50235E+04  1.59393E+04 -7.31838E+03
  1.42311E+04 -3.32856E+02  1.02228E+04  4.16118E+03  5.62383E+03  4.86737E+02  7.82855E+03 -1.07870E+03
  1.31523E+04  2.71047E+03  1.54377E+04  1.32710E+04  8.28735E+03  2.53277E+04 -2.86009E+03  2.59899E+04
 -1.50539E+04  2.01655E+04 -2.51100E+04  8.48962E+03 -2.35805E+04 -2.45652E+03 -2.01658E+04 -1.33333E+04
 -9.99931E+03 -1.91548E+04  6.74226E+03 -1.89133E+04  1.54253E+04 -1.09699E+04  1.44908E+04  3.83505E+03
  6.16777E+03  1.12002E+04 -7.05281E+03  9.42656E+03 -1.38008E+04  1.98897E+03 -9.57077E+03 -7.11938E+03
  4.11340E+02 -1.29282E+04  6.11005E+03 -9.70267E+03  7.74502E+03 -1.87603E+03  1.57054E+03  4.96932E+03
 -6.15094E+03  1.37145E+03 -3.27367E+03 -4.41618E+03  6.76948E+02 -1.09552E+04  7.78803E+03 -9.84831E+03
  1.16602E+04 -4.11566E+03  1.09391E+04  2.33246E+03  1.01126E+04  8.36005E+03  3.45031E+03  1.22800E+04
 -1.95736E+02  1.51097E+04 -9.21168E+03  8.93830E+03 -1.01923E+04  3.26713E+03 -8.43773E+03 -1.92559E+03
 -4.39243E+03 -3.19388E+03 -1.06185E+03  1.45013E+03 -3.31605E+03  5.66321E+02 -3.87887E+03  3.86526E+03
 -7.85225E+03 -1.19149E+02 -8.43869E+03 -7.17696E+03 -3.00680E+03 -1.06869E+04  3.06317E+03 -8.61226E+03
  5.79456E+03 -4.70243E+03  4.53345E+03  2.07326E+03  9.59257E+02  3.88475E+03 -2.21112E+03  9.73137E+02
 -3.67962E+03 -5.32382E+03 -1.66321E+03 -6.94170E+03  3.79636E+03 -7.57939E+03  9.29620E+03 -4.38773E+03
  1.12023E+04  4.18971E+02  8.00467E+03  5.65801E+03  1.49251E+03  7.92497E+03 -4.52439E+03  7.26036E+03
 -5.83660E+03  2.55126E+03 -2.93412E+03 -1.83015E+03  9.24478E+02 -2.16383E+03  4.59745E+03 -7.67631E+02
  3.72182E+03  3.50954E+03  1.18660E+03  5.24374E+03 -3.61982E+03  5.46092E+03 -7.06011E+03  1.72028E+03
 -4.60480E+03 -2.92965E+03  1.05906E+02 -6.00006E+03  4.22202E+03 -2.59827E+03  3.02265E+03  1.09040E+03
 -4.45667E+01  3.31190E+03 -4.61537E+03  4.79129E+03 -5.28420E+03  2.64358E+03 -3.87975E+03 -1.29584E+03
 -2.30099E+03 -5.68939E+03  7.48027E+02 -6.80303E+03  4.40263E+03 -5.44552E+03  6.60225E+03 -3.34108E+02
  3.94165E+03  4.64574E+03 -3.01181E+02  6.64560E+03 -4.93476E+03  3.66287E+03 -4.15818E+03 -2.50896E+02
 -5.38312E+03 -5.50190E+03 -1.02860E+03 -3.51024E+03  1.55893E+03 -3.94250E+03  2.43485E+03 -2.66520E+03
  2.36576E+03 -1.73821E+02 -5.50261E+02  1.69054E+03 -1.48043E+02 -4.31076E+02  3.79300E+02 -1.87461E+03
  3.11400E+03 -4.78831E+02  4.47902E+03  8.69840E+02  4.33071E+03  1.74931E+03  5.16852E+03  5.69935E+03
 -3.99957E+02  8.11185E+03 -7.06936E+03  4.98168E+03 -8.33446E+03  6.29704E+02 -7.54890E+03 -2.55880E+03
 -3.48804E+03 -7.13711E+03 -2.84246E+01 -4.75312E+03  2.42026E+03 -2.01423E+03  7.04620E+02 -1.64172E+03
  1.15056E+03 -1.04318E+03  1.33302E+03 -3.03925E+03  2.98664E+03 -1.53054E+03  3.53267E+03 -1.41112E+02
  3.92590E+03  9.66611E+02  7.32818E+02  2.96184E+03 -1.09754E+03  1.88708E+03 -4.84155E+03  3.05813E+03
 -4.53576E+03 -1.55421E+03 -1.64772E+03 -3.06867E+03  8.14204E+02 -4.08220E+03  3.54327E+03 -3.76822E+03
  4.15776E+03 -2.79526E+03  5.17147E+03 -2.60868E+02  4.31964E+03  3.19284E+03  1.17396E+03  3.99213E+03
 -1.60585E+03  4.77516E+03 -2.49085E+03  1.35226E+03 -1.87337E+03 -1.97314E+03 -4.57861E+02 -8.64541E+02
 -2.85101E+01  1.12500E+03 -2.45499E+02  2.06806E+03 -1.11957E+03 -2.07784E+01 -2.69877E+03  7.00225E+01
 -1.05939E+03 -3.99722E+03  3.86793E+02 -3.74933E+03  2.48019E+03 -4.03982E+03  3.01979E+03 -1.49532E+03
  2.30318E+03  2.10443E+03  2.22871E+03  2.62771E+03 -4.34168E+02  3.94563E+03 -1.84814E+03  3.00732E+03
 -2.13332E+03  1.27667E+03 -2.44017E+03 -2.28658E+03  1.05401E+03 -1.93324E+03  1.66089E+03 -2.36838E+03
  2.74194E+03  4.19231E+02  1.87369E+03  2.31253E+02  1.63193E+02  2.83979E+02  5.15430E+02  9.94656E+02
  1.96041E+03  8.00789E+02  2.24957E+02  1.80268E+03  1.28121E+03  2.33775E+03  1.11090E+03  1.07574E+03
 -8.30146E+02  2.61896E+03 -2.19120E+03  3.08620E+03 -2.52247E+03  1.61568E+03 -4.06520E+03 -4.29053E+02
 -1.59402E+03 -1.56367E+03  1.61062E+02 -3.93810E+03  9.71615E+02 -1.35529E+03  2.28717E+03 -1.52287E+03
  2.50676E+03  9.51236E+02 -2.94637E+02  1.93247E+03 -5.97901E+02  7.38497E+02 -1.15422E+03 -9.52424E+01
  2.57598E+02 -2.05820E+03  1.00268E+03 -1.58195E+03  9.05091E+02 -3.49846E+02  1.23625E+03  7.08745E+02
  2.78030E+02 -1.57606E+02  6.49264E+02  4.84287E+02  2.18213E+02  2.92575E+02  1.94927E+03 -1.07407E+02
 -9.33662E+02 -8.75258E+02  1.12030E+03  7.55947E+02 -2.58239E+02  1.12753E+03 -4.33103E+02  2.17512E+03
 -1.10904E+03  2.15551E+02 -9.96556E+02 -1.10207E+03 -2.50341E+03 -6.84698E+02  1.21543E+03 -4.00893E+02
  2.82179E+02 -2.23136E+03  1.14845E+03  1.51634E+03  5.90410E+02  1.84865E+03 -1.19212E+03  8.08382E+02
 -1.41205E+03  9.48115E+01 -6.48987E+02 -1.67934E+03 -7.36565E+02 -2.00997E+03  3.42814E+02 -9.09430E+02
  4.95270E+02  4.09684E+02  2.31209E+02 -5.31601E+02  5.42284E+02 -6.60955E+02  1.01101E+03  7.88120E+01
  2.19057E+02 -1.01850E+01 -1.32638E+03  1.31881E+03  3.92791E+02 -9.16913E+02  1.12605E+03 -1.30401E+03
  8.41138E+02 -8.76990E+02  2.24006E+03  1.25961E+03  1.12707E+03  4.33890E+02  6.70584E+01  1.61512E+03
 -1.32620E+03  7.61560E+02 -1.48085E+03 -2.14526E+02  2.41743E+01 -1.40542E+03 -8.91355E+02 -1.18324E+02
  1.65921E+03 -1.34962E+02  1.63960E+02  5.69171E+01  5.76294E+02  2.52752E+03 -2.29811E+01  9.79160E+02
 -2.49616E+02  1.49404E+03  3.21329E+02  1.51412E+03  9.77508E+02  8.09065E+02  7.66774E+01  5.51463E+02
 -2.22352E+02  1.87355E+03 -6.24526E+02  3.77440E+02 -2.17632E+03  4.78506E+02 -2.37298E+03 -1.39939E+03
 -1.04881E+03 -1.19940E+03 -2.97028E+02 -1.99945E+03  4.84919E+02 -1.77504E+03  2.09468E+03 -1.37754E+03
  1.50595E+03 -8.10619E+02  7.27150E+02  1.43730E+03 -9.43283E+02  5.35204E+02 -9.27741E+02  2.13501E+03
 -1.32178E+03  4.34512E+02  7.65861E+01 -1.01652E+03 -1.04995E+03  3.90809E+02 -1.13685E+03  4.47293E+02
 -7.23225E+02 -1.71318E+02 -1.48253E+00  8.96933E+02  6.62929E+02 -1.30617E+03 -6.01762E+02 -1.52030E+03
  1.66246E+03 -4.20288E+02  5.51387E+02  8.55542E+02 -3.27754E+02  6.17209E+02 -3.42971E+02  1.74890E+03
 -4.52645E+02  2.29958E+03 -9.73295E+02  1.61056E+03 -3.01055E+02  4.39287E+01 -5.82104E+02 -1.23123E+03
 -1.89600E+02 -9.52685E+02  7.24475E+01 -9.81547E+02 -3.33513E+02 -2.99948E+02  4.64930E+02  6.84848E+02
  5.71861E+02 -3.55943E+01  9.40808E+02  8.92449E+02 -3.62557E+02 -8.38074E+02 -6.81605E+02 -8.81644E+01
 -1.56185E+02  3.21591E+02 -3.50328E+02  9.26443E+02  6.52760E+02 -2.02836E+02  2.68723E+02 -1.41277E+02
  7.02241E+01  9.25706E+02 -3.47387E+02  7.14607E+01  8.43816E+01 -4.62716E+02  6.12989E+00  4.41066E+02
  9.95478E+02 -1.55644E+02 -2.34208E+02  1.01448E+03  4.79666E+02  3.21070E+02  1.25382E+03  1.13729E+03
 -1.36678E+02 -1.10409E+02  4.65329E+02  6.19761E+02  1.54833E+01  8.29716E+02 -2.61162E+02  3.02657E+02
  8.24344E+02 -1.53945E+02  1.95823E+02  6.10883E+02 -1.21906E+03 -1.37171E+02 -6.49046E+02 -7.22030E+02
 -1.03919E+03  8.88330E+01  4.51881E+02 -2.49594E+02  2.64419E+02 -9.42695E+02  9.20271E+02  4.75123E+02
  9.75626E+01 -5.30482E+02 -8.06442E+02  4.46102E+02  3.93302E+01 -8.33383E+01  4.74598E+02  4.46582E+02
