 $NMID ID='MM_0lb_SNR200_12hz_g60_24.RAW', FMTDAT='(8E13.5)'
 TRAMP=1., VOLUME=1. $END
  3.09496E+05 -1.82842E+02  3.37741E+05  2.50385E+05  8.55472E+04  3.38466E+05 -1.32170E+05  2.51496E+05
 -1.91486E+05  8.38235E+04 -1.12059E+05 -3.22913E+04  3.24853E+02 -5.04669E+04  5.24689E+04  2.99272E+02
  3.54173E+04  5.36761E+04 -1.63582E+04  7.59804E+04 -6.09117E+04  6.34787E+04 -8.52881E+04  3.39789E+04
 -8.14604E+04 -1.04295E+04 -5.84945E+04 -5.36712E+04 -1.52296E+04 -6.99207E+04  2.90474E+04 -4.76880E+04
  4.13392E+04  3.72302E+03  1.52766E+04  4.84823E+04 -3.43568E+04  4.98581E+04 -6.89242E+04 -1.04646E+03
 -5.59750E+04 -5.81896E+04 -6.87330E+03 -7.82343E+04  3.57664E+04 -5.67173E+04  5.08588E+04 -1.81014E+04
  4.62117E+04  1.01232E+04  3.29734E+04  2.57264E+04  1.57538E+04  2.89263E+04 -4.74908E+03  2.60464E+04
 -2.25521E+04  1.17607E+04 -1.78304E+04 -4.98584E+03  5.47165E+03 -7.15760E+03  2.41336E+04  1.30048E+04
  6.64009E+03  3.49967E+04 -3.49863E+04  3.66247E+04 -6.44881E+04  1.65516E+03 -5.84722E+04 -4.38562E+04
 -1.32021E+04 -6.63922E+04  4.33692E+04 -4.64055E+04  6.11316E+04 -2.36566E+03  3.48955E+04  3.24703E+04
 -5.07314E+03  3.84458E+04 -3.02055E+04  1.83677E+04 -3.19909E+04 -3.80627E+03 -1.99820E+04 -1.07626E+04
 -9.60490E+03 -1.51996E+04 -3.30349E+02 -1.94926E+04  7.72916E+03 -2.24717E+04  1.60301E+04 -1.21141E+04
  1.10380E+04  5.71673E+03 -9.49611E+03  1.32556E+04 -2.27858E+04 -5.93891E+03 -8.71796E+03 -3.63488E+04
  2.42582E+04 -4.61705E+04  5.11808E+04 -2.07723E+04  4.77903E+04  2.03629E+04  1.90531E+04  4.63404E+04
 -1.66370E+04  3.44964E+04 -2.63553E+04  1.84636E+03 -1.21543E+04 -2.89741E+04  2.04334E+04 -3.48905E+04
  4.28665E+04 -1.02754E+04  3.89144E+04  2.56694E+04  2.02332E+04  5.02859E+04 -6.85287E+03  5.38953E+04
 -3.44784E+04  3.72696E+04 -4.71155E+04  1.06818E+04 -4.67052E+04 -1.67819E+04 -2.52382E+04 -4.09373E+04
  6.87859E+03 -4.04562E+04  3.42151E+04 -1.63893E+04  3.10524E+04  1.15589E+04  3.45147E+03  2.08151E+04
 -1.39523E+04  9.27350E+03 -1.13480E+04 -8.45207E+03  4.96607E+03 -1.09197E+04  1.90979E+04  5.33751E+03
  1.56785E+04  2.42189E+04 -4.28784E+03  2.60793E+04 -2.20987E+04  1.39711E+04 -2.89667E+04 -4.30313E+03
 -2.30940E+04 -1.82027E+04 -9.40327E+03 -2.46242E+04  4.68943E+03 -2.41914E+04  1.84819E+04 -2.05491E+04
  2.96300E+04 -1.38561E+04  3.72230E+04  5.16700E+03  2.59677E+04  2.25552E+04  4.18610E+03  3.94788E+04
 -1.87887E+04  3.23681E+04 -3.03826E+04  1.19245E+04 -2.07081E+04 -1.12842E+04 -5.11124E+03 -1.28364E+04
  4.14881E+01 -1.05658E+03 -6.54928E+03  6.42588E+03 -1.92036E+04  5.25202E+03 -1.88243E+04 -9.56043E+03
 -9.97534E+03 -2.26136E+04  5.25868E+03 -2.65493E+04  1.87743E+04 -2.03147E+04  2.21868E+04 -1.47275E+03
  1.31583E+04  1.47055E+04 -1.13656E+03  2.10253E+04 -1.47762E+04  1.18081E+04 -2.27905E+04 -3.78492E+03
 -1.54568E+04 -1.89230E+04 -1.93742E+03 -2.59282E+04  1.34473E+04 -2.26858E+04  2.24010E+04 -1.00218E+04
  1.96506E+04  1.80849E+02  1.50684E+04  4.44490E+03  7.62183E+03  3.96621E+02  1.22873E+04 -2.38316E+03
  1.96961E+04  1.46156E+03  2.33141E+04  1.70179E+04  1.55715E+04  3.55035E+04 -3.12986E+03  4.00070E+04
 -2.39845E+04  3.27467E+04 -3.84108E+04  1.72896E+04 -3.95604E+04 -3.81817E+03 -3.32643E+04 -2.25223E+04
 -1.22881E+04 -3.33063E+04  1.14809E+04 -3.00594E+04  2.29160E+04 -1.54501E+04  2.23942E+04  6.12700E+03
  6.34028E+03  1.89253E+04 -1.00454E+04  1.51992E+04 -1.94321E+04  2.06744E+03 -1.38361E+04 -1.32066E+04
 -7.73802E+02 -1.70949E+04  1.04636E+04 -1.30632E+04  1.22012E+04 -9.55413E+02  3.39028E+03  7.58646E+03
 -7.00030E+03  2.90502E+03 -6.03007E+03 -6.15333E+03 -1.73945E+02 -1.63296E+04  1.04379E+04 -1.66602E+04
  2.00915E+04 -9.71967E+03  2.43805E+04  3.79027E+03  2.04354E+04  1.70136E+04  1.00722E+04  2.50760E+04
 -4.25659E+03  2.64172E+04 -1.80068E+04  1.66371E+04 -2.06022E+04  4.21241E+03 -1.21027E+04 -6.06106E+03
 -6.50342E+03 -7.14464E+03 -2.79148E+02  1.57271E+03 -2.25434E+03  2.87839E+03 -6.45490E+03  5.97146E+03
 -1.29614E+04 -5.89550E+02 -1.33593E+04 -1.06883E+04 -5.40195E+03 -1.75584E+04  5.09427E+03 -1.45937E+04
  1.10247E+04 -5.13925E+03  7.38535E+03  3.53633E+03 -8.81752E+01  5.56255E+03 -6.33999E+03  1.14696E+03
 -6.97692E+03 -8.65337E+03 -1.77776E+03 -1.27867E+04  7.70329E+03 -1.43114E+04  1.74984E+04 -7.30876E+03
  2.05224E+04  2.45314E+03  1.64574E+04  1.26310E+04  4.08490E+03  1.60568E+04 -7.98407E+03  1.27969E+04
 -1.12267E+04  3.47033E+03 -5.97778E+03 -3.00067E+03  1.39412E+03 -4.80554E+03  6.31399E+03 -1.52037E+03
  6.10046E+03  5.92350E+03  2.48198E+03  1.07648E+04 -8.15985E+03  1.07340E+04 -1.28463E+04  2.65257E+03
 -8.73475E+03 -8.14610E+03 -3.91518E+02 -1.36559E+04  7.54847E+03 -5.91257E+03  8.07453E+03  1.62226E+03
  3.89383E+02  8.10273E+03 -7.25335E+03  1.00090E+04 -1.09092E+04  4.00496E+03 -1.17106E+04 -2.69601E+03
 -6.90570E+03 -1.24014E+04  3.82978E+03 -1.45212E+04  1.47626E+04 -1.02779E+04  1.33496E+04  2.74329E+03
  8.54011E+03  1.14711E+04 -2.72771E+03  1.27590E+04 -8.92405E+03  8.38661E+03 -1.09602E+04 -4.89965E+02
 -9.19094E+03 -8.00889E+03 -1.22608E+03 -9.51842E+03  5.02925E+03 -9.19332E+03  7.43551E+03 -2.85693E+03
  3.90729E+03  2.18442E+03 -8.84808E+02  2.12927E+03  1.08209E+03 -3.63802E+03  2.79959E+03 -4.63521E+03
  9.56598E+03 -4.69912E+03  1.27985E+04  1.52684E+03  1.31293E+04  7.96680E+03  8.52160E+03  1.71178E+04
 -3.97513E+03  1.99821E+04 -1.64746E+04  1.31119E+04 -2.28869E+04  3.40611E+03 -1.61596E+04 -7.26607E+03
 -9.42660E+03 -1.22341E+04 -9.93433E+01 -1.10578E+04  3.50840E+03 -6.36542E+03  4.13394E+03 -4.23873E+03
  3.58439E+03 -1.11827E+03  3.05107E+03 -3.40308E+03  5.84659E+03 -3.93237E+03  6.79146E+03 -1.30183E+03
  8.91753E+03  2.32483E+03  4.69707E+03  7.26027E+03 -2.44336E+03  7.11116E+03 -8.98315E+03  7.19758E+03
 -1.10388E+04  1.44444E+02 -7.67148E+03 -7.61990E+03 -1.34325E+03 -1.31490E+04  6.87761E+03 -1.09538E+04
  1.26320E+04 -8.16465E+03  1.64492E+04  1.29160E+03  1.10987E+04  1.09405E+04  2.42892E+03  1.36623E+04
 -6.98599E+03  1.21732E+04 -8.12883E+03  3.43469E+03 -5.11402E+03 -2.32633E+03 -2.02967E+03 -1.71081E+03
 -4.28344E+02 -4.25235E+02 -1.37026E+03  2.56014E+03 -4.58588E+03  1.40952E+03 -9.48037E+03 -7.23792E+02
 -4.85488E+03 -9.10187E+03  8.93464E+02 -1.14979E+04  7.57707E+03 -1.07526E+04  1.03577E+04 -3.42187E+03
  1.15761E+04  5.98039E+03  5.49171E+03  9.52703E+03 -1.64751E+03  1.20161E+04 -7.81860E+03  6.90329E+03
 -1.05329E+04  1.47117E+03 -9.35782E+03 -6.57918E+03 -1.40717E+03 -1.03571E+04  5.44716E+03 -7.26248E+03
  7.03472E+03 -2.22974E+03  4.33414E+03  1.35657E+03  2.03703E+03  3.25058E+03  8.69527E+02  1.73741E+03
  3.43640E+03  1.80981E+03  2.57267E+03  1.24007E+03  2.93990E+03  4.98888E+03  1.51574E+03  4.49659E+03
 -2.39405E+03  8.40519E+03 -6.65020E+03  8.51642E+03 -1.07680E+04  3.21159E+03 -9.85993E+03 -5.07708E+03
 -4.81353E+03 -1.27467E+04  2.29253E+03 -1.10273E+04  5.33272E+03 -6.84739E+03  9.90465E+03 -3.63687E+03
  6.29381E+03  2.93010E+03  1.12891E+03  7.07044E+03 -2.84959E+03  4.06796E+03 -4.91988E+03 -5.44422E+02
 -2.29440E+03 -3.46115E+03  3.11578E+03 -4.63849E+03  6.30669E+03 -1.66449E+03  5.76994E+03  1.09846E+03
  9.95022E+02  3.29763E+03  2.13703E+03  2.00050E+03 -9.34650E+02  1.34797E+03  1.59603E+03  1.50110E+02
  9.82064E+02 -4.66837E+02  4.79353E+03  2.32295E+03  1.39196E+03  4.92878E+03 -4.93577E+01  8.74195E+03
 -5.95393E+03  6.31351E+03 -6.10383E+03  6.27537E+02 -6.53588E+03 -2.56578E+03 -1.50359E+03 -4.81052E+03
  1.31475E+03 -4.76768E+03  4.24494E+03 -1.71823E+03  1.89243E+03  1.81530E+03 -1.11129E+03  4.57480E+03
 -5.20629E+03  2.15430E+03 -2.95848E+03 -3.06437E+03 -1.91836E+03 -6.15494E+03  6.45517E+02 -5.27989E+03
  1.93647E+03 -4.10840E+03  2.25274E+03 -7.29895E+02  2.20947E+03  2.73943E+03  8.55783E+01  3.53439E+03
 -2.14354E+03  1.25534E+03 -3.39534E+03 -1.78818E+03  9.60728E+02 -3.35001E+03  6.53000E+03 -2.72664E+03
  6.86515E+03  1.79122E+03  7.35065E+03  3.43020E+03  4.04564E+02  6.26073E+03 -1.00364E+03  7.26875E+03
 -6.42954E+03  1.59439E+03 -4.25960E+03 -7.65852E+02 -3.56810E+03 -4.39034E+03  7.37162E+02 -4.11719E+03
  3.78161E+03 -1.35821E+03  4.28962E+03  2.42154E+03  1.11213E+03  2.71275E+03 -4.01766E+02  2.50375E+03
 -2.65526E+02  1.40503E+03 -1.42614E+03  5.36413E+02 -1.14856E+03  5.26837E+02 -1.58627E+03 -9.28051E+01
 -2.84067E+03  3.22876E+03 -4.30594E+03  2.90002E+02 -6.66116E+03 -1.41540E+03 -7.55350E+03 -5.70460E+03
 -4.60589E+03 -1.02345E+04  5.74176E+02 -9.88458E+03  4.92407E+03 -9.06170E+03  1.07470E+04 -3.69207E+03
  8.75669E+03  1.42402E+03  5.47588E+03  6.92765E+03 -4.58979E+02  5.19872E+03 -3.36810E+03  4.73865E+03
 -4.63954E+03  1.53471E+03 -1.84238E+03 -2.42791E+03 -1.49479E+03 -5.46209E+02 -8.52147E+02 -1.32941E+03
 -1.97641E+03 -2.53826E+02 -1.90605E+03 -3.31482E+02  6.03336E+00 -2.51372E+03  1.64825E+03 -2.29182E+03
  3.64665E+03 -1.99738E+03  4.72110E+03 -6.05599E+02  3.97750E+03  3.46957E+03  1.31945E+02  6.76034E+03
 -3.54291E+03  7.86882E+03 -7.62896E+03  4.60873E+03 -7.93307E+03 -3.63526E+02 -4.28996E+03 -5.13710E+03
 -2.45944E+03 -6.17553E+03  1.67320E+03 -5.82978E+03  3.20689E+03 -2.76157E+03  4.91994E+03 -3.70687E+02
  3.44780E+03  1.26554E+03 -1.13339E+03  1.92800E+03 -1.78930E+03 -5.99568E+02 -4.86585E+02 -1.54549E+03
  1.55623E+03 -3.20077E+02  1.77196E+03  1.40064E+03  1.08401E+03  1.46509E+03  3.29902E+02  2.61412E+03
 -2.17380E+03  2.02191E+03 -3.17548E+03 -1.04742E+03 -3.78431E+03 -3.86165E+03 -4.96548E+01 -4.59469E+03
  4.03308E+03 -3.51491E+03  3.65295E+03 -1.56819E+03  4.24907E+03  1.31543E+03  4.74557E+03  3.33762E+03
 -2.69036E+02  4.44275E+03 -2.43739E+03  2.75515E+03 -3.65434E+03  1.69387E+03 -1.77069E+03  9.27848E+02
 -8.72269E+02 -7.42929E+02 -1.74303E+03  8.37708E+02 -1.76878E+03 -1.35792E+02 -2.51244E+03 -1.08859E+02
 -4.83170E+03 -2.72572E+03 -2.24870E+02 -5.24589E+03  3.00750E+03 -4.36353E+03  3.85519E+03 -2.34381E+03
  2.83568E+03  1.33928E+03  2.49241E+03  2.04140E+03 -4.76487E+02  4.62597E+03 -1.36723E+03  3.39844E+03
