 $NMID ID='MM_0lb_SNR200_13hz_g50_67.RAW', FMTDAT='(8E13.5)'
 TRAMP=1., VOLUME=1. $END
  3.09363E+05  1.48819E+03  3.37299E+05  2.50005E+05  8.36016E+04  3.37790E+05 -1.31962E+05  2.50418E+05
 -1.89582E+05  8.35797E+04 -1.11580E+05 -3.32481E+04  1.52220E+03 -5.05623E+04  5.32316E+04 -6.49570E+02
  3.55636E+04  5.24010E+04 -1.61230E+04  7.63470E+04 -6.09365E+04  6.43593E+04 -8.44682E+04  3.28396E+04
 -8.06503E+04 -1.18209E+04 -5.71296E+04 -5.09287E+04 -1.45670E+04 -7.01446E+04  2.77855E+04 -4.65618E+04
  4.08463E+04  3.61369E+03  1.68222E+04  4.87186E+04 -3.35816E+04  4.72656E+04 -6.70171E+04 -3.62306E+02
 -5.47904E+04 -5.56981E+04 -7.58925E+03 -7.71474E+04  3.35867E+04 -5.69276E+04  4.84127E+04 -1.73921E+04
  4.30783E+04  1.05296E+04  3.12521E+04  2.48119E+04  1.60803E+04  2.94545E+04 -5.14698E+03  2.67726E+04
 -2.17815E+04  1.27511E+04 -1.71907E+04 -4.93377E+03  4.43656E+03 -7.74347E+03  2.32833E+04  1.33712E+04
  7.27201E+03  3.57231E+04 -3.30511E+04  3.53904E+04 -6.33453E+04  2.82172E+03 -5.82275E+04 -4.33442E+04
 -1.22275E+04 -6.54627E+04  3.93488E+04 -4.59123E+04  5.91332E+04 -3.91931E+03  3.53719E+04  3.28250E+04
 -5.88789E+03  3.64433E+04 -3.16566E+04  1.56801E+04 -3.07786E+04 -3.27841E+03 -1.76125E+04 -1.15257E+04
 -8.86001E+03 -1.47399E+04  5.16748E+02 -1.86285E+04  7.53604E+03 -2.26332E+04  1.50965E+04 -1.30801E+04
  1.21129E+04  4.84113E+03 -7.44643E+03  1.15794E+04 -2.25785E+04 -4.20765E+03 -8.36780E+03 -3.45762E+04
  2.39490E+04 -4.48621E+04  5.00276E+04 -2.04154E+04  4.47321E+04  1.93348E+04  1.58004E+04  4.51249E+04
 -1.67344E+04  3.39591E+04 -2.59024E+04  1.94228E+03 -1.06449E+04 -2.86303E+04  2.17886E+04 -3.43376E+04
  4.23586E+04 -1.08428E+04  3.52921E+04  2.43538E+04  1.90851E+04  4.79853E+04 -8.31307E+03  5.11086E+04
 -3.20496E+04  3.49364E+04 -4.33115E+04  8.26403E+03 -4.30149E+04 -1.72774E+04 -2.41601E+04 -4.08097E+04
  8.42037E+03 -3.83886E+04  3.01431E+04 -1.51886E+04  2.96461E+04  1.24422E+04  5.16776E+03  1.94305E+04
 -1.32009E+04  9.47700E+03 -1.16110E+04 -8.65587E+03  6.20175E+03 -1.11807E+04  2.00485E+04  5.69788E+03
  1.40744E+04  2.21764E+04 -5.32048E+03  2.41453E+04 -2.30096E+04  1.24731E+04 -2.81441E+04 -5.00443E+03
 -1.98154E+04 -1.78623E+04 -8.65877E+03 -2.07274E+04  4.66331E+03 -1.90904E+04  1.71111E+04 -1.80657E+04
  2.59600E+04 -1.34119E+04  3.35770E+04  3.72913E+03  2.37166E+04  2.10810E+04  3.69499E+03  3.84048E+04
 -1.86411E+04  3.21478E+04 -2.75583E+04  1.09165E+04 -2.20100E+04 -9.99416E+03 -5.41390E+03 -1.37931E+04
  3.13639E+02 -2.32051E+03 -5.75655E+03  7.59014E+03 -1.71138E+04  5.73315E+03 -1.80481E+04 -7.18513E+03
 -1.18827E+04 -2.03135E+04  3.86714E+03 -2.32322E+04  1.62176E+04 -1.72334E+04  1.88221E+04 -1.23900E+03
  1.20820E+04  1.31899E+04 -1.36863E+03  1.87252E+04 -1.41115E+04  1.14318E+04 -2.11835E+04 -3.73284E+03
 -1.59178E+04 -1.78637E+04 -2.13533E+03 -2.52393E+04  1.15162E+04 -2.07418E+04  1.93411E+04 -1.07870E+04
  1.96672E+04  9.05146E+01  1.36488E+04  4.11834E+03  7.85270E+03  1.51658E+03  1.04514E+04 -2.09488E+03
  1.79205E+04  1.72441E+03  1.99489E+04  1.61302E+04  1.39674E+04  3.11839E+04 -2.80028E+03  3.62012E+04
 -2.13725E+04  2.86599E+04 -3.41836E+04  1.43036E+04 -3.57355E+04 -2.92161E+03 -2.85525E+04 -2.19532E+04
 -1.21185E+04 -2.89661E+04  1.08437E+04 -2.57323E+04  2.19657E+04 -1.36136E+04  1.85491E+04  6.12945E+03
  7.70115E+03  1.59745E+04 -9.53422E+03  1.27267E+04 -1.74650E+04  4.37015E+03 -1.32793E+04 -1.10599E+04
 -5.23918E+02 -1.60467E+04  8.62079E+03 -1.23842E+04  1.09496E+04 -1.66006E+03  2.44394E+03  7.83797E+03
 -8.34283E+03  2.39376E+03 -6.15428E+03 -5.55203E+03 -7.28534E+02 -1.49949E+04  1.00684E+04 -1.45667E+04
  1.73410E+04 -8.91713E+03  1.94492E+04  3.17623E+03  1.67312E+04  1.43283E+04  7.05179E+03  2.18458E+04
 -2.68274E+03  2.29442E+04 -1.59062E+04  1.46941E+04 -1.80057E+04  3.93182E+03 -1.25087E+04 -3.61487E+03
 -6.34570E+03 -5.35185E+03 -1.27127E+03  6.48367E+02 -2.80541E+03  2.84834E+03 -7.40237E+03  3.72436E+03
 -1.02269E+04 -9.23135E+01 -1.12704E+04 -1.06286E+04 -5.20379E+03 -1.62946E+04  4.75135E+03 -1.16974E+04
  1.06244E+04 -5.90976E+03  6.57753E+03  3.13074E+03  4.65740E+02  3.74505E+03 -7.70160E+03 -4.84263E+02
 -4.80604E+03 -6.79969E+03  4.55543E+01 -1.18038E+04  6.94954E+03 -1.23713E+04  1.59396E+04 -7.50433E+03
  1.88245E+04  1.72612E+03  1.26776E+04  1.06214E+04  3.22210E+03  1.54420E+04 -7.62453E+03  1.14233E+04
 -8.73270E+03  3.29359E+03 -5.68669E+03 -2.64415E+03  2.36048E+03 -1.55300E+03  7.33947E+03 -1.04287E+03
  5.56682E+03  6.14422E+03  2.25502E+03  1.00989E+04 -7.23908E+03  8.53298E+03 -1.08851E+04  1.96730E+03
 -8.07366E+03 -5.82138E+03 -6.17960E+02 -9.80905E+03  7.18165E+03 -4.67392E+03  6.69730E+03  2.36417E+03
 -3.06609E+02  7.31473E+03 -4.96776E+03  7.81441E+03 -9.54866E+03  3.38039E+03 -8.25819E+03 -3.93079E+03
 -5.90741E+03 -1.07254E+04  1.80053E+03 -1.33113E+04  1.13068E+04 -7.24797E+03  1.13454E+04  2.05996E+03
  6.11466E+03  8.72599E+03 -7.43023E+02  1.20677E+04 -8.06865E+03  5.94359E+03 -8.91094E+03 -1.00705E+03
 -9.07039E+03 -6.01521E+03 -6.24133E+02 -9.58512E+03  3.67700E+03 -6.81901E+03  4.62190E+03 -3.91033E+03
  3.97740E+03  1.21606E+03 -2.41319E+03  1.63668E+03  6.48926E+02 -2.14853E+03  6.08353E+02 -4.11216E+03
  8.25903E+03 -2.62849E+03  1.09723E+04  2.81141E+02  1.04481E+04  7.32629E+03  8.04529E+03  1.39958E+04
 -3.33404E+03  1.58215E+04 -1.51297E+04  1.10658E+04 -1.66695E+04  2.56791E+03 -1.45912E+04 -6.09036E+03
 -6.91409E+03 -1.14814E+04 -1.53096E+02 -8.93335E+03  4.04502E+03 -4.69014E+03  3.59321E+03 -3.93250E+03
  3.53307E+03 -1.34680E+03  3.37762E+03 -1.27426E+03  4.68995E+03 -2.12663E+03  6.42239E+03  1.46127E+01
  7.90369E+03  2.85888E+03  3.78008E+03  5.24245E+03 -1.94892E+03  5.58004E+03 -7.51119E+03  5.69040E+03
 -1.04493E+04 -1.17849E+03 -6.67918E+03 -6.79094E+03 -9.90025E+02 -1.08532E+04  5.62713E+03 -1.03260E+04
  1.05265E+04 -6.48467E+03  1.31858E+04  9.44442E+02  9.08871E+03  8.61217E+03  8.83364E+02  1.13588E+04
 -4.87425E+03  9.07647E+03 -5.39076E+03  3.86045E+03 -4.48589E+03 -8.51824E+02 -1.79536E+03 -2.31023E+03
 -1.22292E+01  1.06014E+03 -3.13439E+03  3.97459E+03 -3.71903E+03  2.50400E+03 -6.67830E+03 -2.33803E+03
 -3.56689E+03 -7.63020E+03  1.72534E+02 -8.53647E+03  5.74696E+03 -8.44181E+03  7.39673E+03 -2.06418E+03
  9.52265E+03  5.09058E+03  3.88634E+03  9.06765E+03  2.88340E+02  9.67611E+03 -5.96095E+03  5.92447E+03
 -9.12760E+03  1.68697E+02 -6.13063E+03 -5.32860E+03 -1.75014E+03 -7.24244E+03  3.61015E+03 -6.09088E+03
  7.08761E+03 -7.60917E+02  4.28864E+03  3.28668E+03  2.05497E+03  4.32029E+03  1.53619E+03  1.16255E+03
  2.49676E+03  9.45892E+01  1.66245E+03  1.06936E+03  2.80531E+03  3.57632E+03  2.72128E+03  5.66145E+03
 -1.61361E+03  7.14100E+03 -5.93940E+03  7.97167E+03 -7.77521E+03  2.99416E+03 -8.65205E+03 -3.51091E+03
 -4.42566E+03 -9.69210E+03  1.00456E+03 -1.02086E+04  5.38357E+03 -5.53145E+03  7.83369E+03 -1.66219E+03
  5.68033E+03  2.81957E+03  9.76138E+02  6.01743E+03 -1.97430E+03  3.08657E+03 -2.21909E+03 -9.39728E+02
 -1.95730E+03 -2.73928E+03  3.46200E+03 -3.28783E+03  3.51286E+03 -1.67681E+03  3.97114E+03  2.05639E+03
  2.15685E+03  9.17890E+02  8.85985E+02  2.21586E+01  1.47022E+02  1.00001E+03  5.81091E+02 -1.26523E+03
  8.41821E+02 -1.02911E+02  4.61230E+03  2.11841E+03  2.47071E+03  5.62659E+03 -2.02262E+02  6.90188E+03
 -3.88497E+03  3.57361E+03 -6.99189E+03  1.35086E+03 -3.38943E+03 -1.88445E+03 -3.49051E+02 -3.50331E+03
  1.49299E+03 -4.37081E+03  1.56868E+03 -2.46513E+03  2.15353E+03  2.14057E+03 -1.19869E+03  2.51738E+03
 -4.24844E+03  3.33862E+03 -3.73429E+03 -1.88964E+03 -2.37608E+03 -5.83189E+03  1.90537E+01 -5.54430E+03
  2.75476E+03 -2.89504E+03  2.44579E+03 -5.07528E+02  2.40724E+03  4.87800E+02  9.22620E+01  2.62033E+03
 -1.70512E+03  1.43441E+03 -8.35331E+02 -1.79082E+03  9.87518E+02 -1.93134E+03  3.20823E+03 -2.97283E+03
  4.31691E+03 -9.61899E+01  6.56559E+03  2.44174E+03  1.32343E+03  4.76790E+03 -1.12290E+03  4.94257E+03
 -3.15323E+03  1.71239E+03 -3.77595E+03 -6.13661E+02 -1.82533E+03 -3.66758E+03  7.43983E+02 -2.63003E+03
  3.15132E+03 -1.67040E+03  4.06510E+03 -6.22631E+02  5.30070E+02  3.92814E+03  7.47569E+02  1.77952E+03
 -1.07651E+03  2.02185E+03 -9.43894E+02  2.63998E+02  7.23323E+02  7.59234E+02 -1.66983E+03  2.16251E+03
 -1.53471E+03  3.60321E+03 -4.28890E+03  5.57479E+02 -5.21284E+03 -3.72815E+02 -5.12865E+03 -3.40749E+03
 -3.69475E+03 -6.28469E+03  7.65584E+02 -8.08400E+03  4.22441E+03 -6.10008E+03  6.35493E+03 -2.60639E+03
  5.48996E+03  1.97319E+03  4.10612E+03  5.15321E+03  5.44769E+02  5.96566E+03 -1.71114E+03  2.99113E+03
 -2.52562E+03  1.76728E+03 -1.06160E+03 -2.22086E+03 -1.04983E+03  1.64901E+02 -6.30967E+02 -7.26052E+02
 -1.42384E+03 -9.90147E+02 -2.37441E+03  2.50706E+02 -7.89968E+02 -1.52095E+03 -1.75570E+02 -2.57142E+03
  1.80863E+03 -9.92869E+02  2.94609E+03 -4.60612E+02  3.48429E+03  2.62184E+03  8.15862E+02  5.16877E+03
 -2.64130E+03  6.43718E+03 -5.86550E+03  2.75911E+03 -6.63171E+03 -1.01572E+03 -5.03276E+03 -3.80747E+03
 -1.65621E+03 -5.35920E+03  9.59994E+02 -4.51334E+03  4.06973E+03 -1.48472E+03  1.49595E+03 -6.08800E+02
  2.44404E+03  1.34001E+03 -1.57155E+01  3.23648E+02 -9.81368E+02  9.65954E+02 -7.39566E+02 -5.00246E+02
  1.25750E+03 -7.35994E+02  5.39664E+02  2.14496E+03  7.18719E+02  2.09416E+03  1.79474E+02  2.51536E+03
 -1.97485E+03  2.27306E+03 -2.55158E+03 -1.21281E+02 -2.11746E+03 -1.82149E+03  2.46697E+02 -2.95743E+03
  2.51342E+03 -4.00622E+03  3.36694E+03 -1.15360E+03  3.14605E+03 -2.39342E+01  4.49944E+02  3.34480E+03
 -2.79640E+02  2.07413E+03 -1.77537E+03  1.84791E+03 -1.34255E+03  1.01687E+03 -1.79295E+03 -1.27669E+03
 -9.55199E+02  2.92009E+01 -3.15098E+02 -4.86556E+02 -1.48594E+03  1.56610E+03 -1.67734E+03 -1.11387E+03
 -1.49771E+03 -1.14995E+03  3.74010E+02 -2.92705E+03  2.05774E+03 -4.30056E+03  3.03704E+03 -1.11401E+02
  3.12382E+03 -4.43308E+02  1.91118E+03  1.41602E+03 -5.21010E+02  3.36063E+03 -1.23786E+03  3.36771E+03
