 $NMID ID='MM_0lb_SNR200_10hz_g40_20.RAW', FMTDAT='(8E13.5)'
 TRAMP=1., VOLUME=1. $END
  3.09083E+05  4.14295E+02  3.38011E+05  2.49900E+05  8.51303E+04  3.39073E+05 -1.33804E+05  2.50854E+05
 -1.90299E+05  8.39856E+04 -1.11460E+05 -3.34140E+04  1.50248E+03 -5.12016E+04  5.33837E+04  6.44743E+02
  3.51951E+04  5.17391E+04 -1.64970E+04  7.63892E+04 -6.14783E+04  6.46691E+04 -8.37400E+04  3.22899E+04
 -8.20245E+04 -1.30272E+04 -5.79572E+04 -5.04156E+04 -1.54007E+04 -6.98691E+04  2.79941E+04 -4.72761E+04
  4.00203E+04  4.09199E+03  1.60874E+04  4.82219E+04 -3.48564E+04  4.59631E+04 -6.63160E+04 -2.98791E+02
 -5.44709E+04 -5.73594E+04 -7.19222E+03 -7.72811E+04  3.59777E+04 -5.56479E+04  5.01214E+04 -1.73030E+04
  4.30562E+04  9.88003E+03  3.22675E+04  2.58709E+04  1.49539E+04  3.00192E+04 -4.82564E+03  2.88915E+04
 -2.17810E+04  1.15829E+04 -1.80508E+04 -5.43478E+03  4.88183E+03 -7.93944E+03  2.31371E+04  1.30338E+04
  7.42934E+03  3.65493E+04 -3.20045E+04  3.45805E+04 -6.50655E+04  1.74192E+03 -5.76011E+04 -4.31159E+04
 -1.31093E+04 -6.46263E+04  3.90484E+04 -4.54382E+04  5.95970E+04 -2.61146E+03  3.72034E+04  3.27834E+04
 -6.29045E+03  3.86256E+04 -3.02590E+04  1.87545E+04 -3.12139E+04 -3.83917E+03 -1.75896E+04 -1.30240E+04
 -7.85981E+03 -1.28991E+04 -5.57322E+02 -1.80890E+04  6.75167E+03 -2.33487E+04  1.65583E+04 -1.27514E+04
  1.04827E+04  5.44210E+03 -1.00898E+04  1.39070E+04 -2.29968E+04 -5.99005E+03 -8.48100E+03 -3.71511E+04
  2.42221E+04 -4.52321E+04  4.93763E+04 -2.06839E+04  4.82735E+04  1.87929E+04  1.65382E+04  4.57145E+04
 -1.63890E+04  3.40439E+04 -2.65034E+04  2.10816E+03 -1.00886E+04 -2.80730E+04  2.07390E+04 -3.47364E+04
  4.45248E+04 -9.97129E+03  3.79513E+04  2.47646E+04  2.14472E+04  4.87940E+04 -8.89759E+03  5.40223E+04
 -3.38195E+04  3.78247E+04 -4.57914E+04  1.13210E+04 -4.59963E+04 -1.75065E+04 -2.64972E+04 -4.11435E+04
  7.22097E+03 -4.10861E+04  3.29903E+04 -1.57636E+04  3.12595E+04  1.20447E+04  6.25831E+03  2.07327E+04
 -1.40518E+04  8.97558E+03 -1.00881E+04 -7.41422E+03  6.13865E+03 -1.02537E+04  1.77292E+04  5.72296E+03
  1.53102E+04  2.31586E+04 -5.97414E+03  2.59592E+04 -2.36769E+04  1.46989E+04 -2.94381E+04 -3.31959E+03
 -2.18600E+04 -1.68654E+04 -1.09192E+04 -2.30093E+04  4.65334E+03 -2.33418E+04  1.82229E+04 -1.97442E+04
  3.01680E+04 -1.49325E+04  3.67505E+04  4.62833E+03  2.56070E+04  2.26989E+04  3.38902E+03  4.15155E+04
 -1.85313E+04  3.33420E+04 -2.99830E+04  1.01548E+04 -2.13910E+04 -1.18181E+04 -4.34515E+03 -1.46081E+04
  1.18318E+03 -2.84384E+03 -7.50853E+03  7.79001E+03 -1.76850E+04  5.96592E+03 -1.85848E+04 -6.26603E+03
 -1.08102E+04 -2.04417E+04  5.98345E+03 -2.75059E+04  1.78604E+04 -1.80213E+04  2.09289E+04 -1.36553E+03
  1.49048E+04  1.41880E+04 -7.44100E+02  2.31158E+04 -1.73167E+04  1.46469E+04 -2.37772E+04 -4.45412E+03
 -1.58485E+04 -1.95495E+04 -2.04756E+03 -2.61915E+04  1.20771E+04 -2.15500E+04  2.01469E+04 -1.10301E+04
  2.03770E+04 -7.72763E+01  1.50033E+04  4.62844E+03  9.87698E+03  1.29341E+03  1.03823E+04 -3.74568E+03
  2.12350E+04  2.35414E+03  2.42702E+04  1.59271E+04  1.41072E+04  3.44831E+04 -2.50800E+03  3.99988E+04
 -2.25059E+04  3.43600E+04 -3.67459E+04  1.65042E+04 -4.04025E+04 -1.33108E+03 -3.41729E+04 -2.30216E+04
 -1.36666E+04 -3.21888E+04  1.28586E+04 -2.95272E+04  2.63762E+04 -1.35800E+04  2.19969E+04  6.86283E+03
  6.95475E+03  1.47315E+04 -1.01351E+04  1.45974E+04 -1.92476E+04  1.90043E+03 -1.29408E+04 -1.18094E+04
  1.51995E+03 -1.82150E+04  9.08480E+03 -1.47365E+04  1.16700E+04 -1.74791E+03  4.25104E+03  8.86681E+03
 -8.82918E+03  4.03267E+03 -8.74713E+03 -7.72234E+03 -2.26120E+03 -1.69175E+04  1.10876E+04 -1.62136E+04
  2.08376E+04 -1.09026E+04  2.42958E+04  3.31477E+03  1.92388E+04  1.58493E+04  8.54154E+03  2.51746E+04
 -5.44108E+03  2.70826E+04 -1.78940E+04  1.75452E+04 -1.86178E+04  3.47627E+03 -1.50017E+04 -4.81863E+03
 -5.92241E+03 -4.96351E+03  2.05777E+02  6.54396E+02 -1.98442E+03  2.17185E+03 -6.06144E+03  5.23816E+03
 -1.35815E+04 -2.22801E+03 -1.34934E+04 -1.14787E+04 -5.39282E+03 -1.78756E+04  4.95978E+03 -1.43191E+04
  1.08091E+04 -5.35193E+03  7.69243E+03  3.50122E+03 -1.50507E+00  4.73646E+03 -8.72229E+03  3.11502E+00
 -7.25755E+03 -9.22892E+03 -7.76517E+02 -1.32916E+04  8.22702E+03 -1.43965E+04  1.70336E+04 -7.82534E+03
  1.98833E+04  2.90184E+03  1.50962E+04  1.26280E+04  3.22136E+03  1.71078E+04 -9.55158E+03  1.32906E+04
 -1.10503E+04  4.32263E+03 -6.02990E+03 -1.70524E+03  6.92261E+02 -3.28487E+03  6.69300E+03 -1.98053E+03
  7.65012E+03  5.43188E+03  1.79135E+03  1.20102E+04 -8.77287E+03  9.38371E+03 -1.31798E+04  2.64937E+03
 -1.00097E+04 -6.17676E+03  6.85768E+02 -1.26788E+04  8.47396E+03 -7.28639E+03  7.41827E+03  3.43665E+03
  1.47984E+03  8.22712E+03 -7.89087E+03  9.42004E+03 -1.25668E+04  3.62632E+03 -1.08103E+04 -4.80604E+03
 -6.09498E+03 -1.33863E+04  4.36616E+03 -1.65076E+04  1.23837E+04 -7.67931E+03  1.34802E+04  2.80750E+03
  8.17342E+03  1.07608E+04 -1.32470E+03  1.30809E+04 -9.57799E+03  7.42870E+03 -1.01517E+04 -1.44677E+03
 -8.91701E+03 -8.48423E+03 -2.77491E+03 -1.14725E+04  6.59215E+03 -8.71660E+03  7.82776E+03 -3.18638E+03
  5.19567E+03  1.88171E+03 -2.64545E+02  8.23233E+02  2.70531E+02 -3.77064E+03  2.48097E+03 -6.95304E+03
  8.68767E+03 -4.87605E+03  1.43910E+04  1.04475E+03  1.36484E+04  9.99166E+03  1.08599E+04  1.83477E+04
 -4.05224E+03  2.06818E+04 -1.77915E+04  1.56941E+04 -2.08472E+04  3.60132E+03 -1.62622E+04 -6.57041E+03
 -8.82760E+03 -1.45077E+04 -2.37468E+02 -1.26090E+04  5.12776E+03 -7.27944E+03  5.18495E+03 -4.21224E+03
  4.71018E+03 -2.71461E+03  3.09279E+03 -4.45924E+03  4.90877E+03 -2.82982E+03  7.99667E+03 -2.79885E+01
  8.75059E+03  2.18590E+03  5.09708E+03  8.59454E+03 -1.99945E+03  1.02391E+04 -1.12105E+04  8.59381E+03
 -1.11624E+04 -7.68766E+02 -8.99227E+03 -9.55245E+03 -8.02189E+02 -1.56866E+04  6.70303E+03 -1.32393E+04
  1.47434E+04 -7.90822E+03  1.74679E+04  2.16810E+03  1.07979E+04  1.15201E+04  1.76861E+03  1.54590E+04
 -7.55564E+03  1.15426E+04 -9.48615E+03  5.55503E+03 -6.03953E+03 -1.47879E+03 -3.20718E+03  3.88202E+02
 -1.47392E+02 -1.59208E+02 -1.51653E+03  3.06461E+03 -5.86929E+03  1.30907E+03 -7.27070E+03 -2.36311E+03
 -4.53297E+03 -8.64629E+03  1.46504E+03 -1.27437E+04  8.71898E+03 -1.10973E+04  1.18430E+04 -3.84395E+03
  1.14558E+04  6.49568E+03  4.60976E+03  1.02538E+04 -2.73347E+03  1.28470E+04 -8.97461E+03  8.74066E+03
 -1.20106E+04  5.43114E+02 -9.06453E+03 -8.43818E+03 -1.78515E+03 -9.40790E+03  5.69513E+03 -9.10057E+03
  8.48564E+03 -2.21194E+03  4.87905E+03  1.54466E+03  3.05380E+03  4.09911E+03  1.74655E+03  1.55298E+03
  2.85977E+03  4.37878E+02  2.64648E+03  1.41287E+03  3.41868E+03  3.79940E+03  4.12706E+03  4.94847E+03
 -2.00226E+03  1.01302E+04 -8.22750E+03  1.05228E+04 -1.20523E+04  2.14007E+03 -1.28513E+04 -5.66885E+03
 -6.77050E+03 -1.16959E+04  2.73328E+03 -1.33768E+04  7.58292E+03 -9.82480E+03  8.72732E+03 -1.88090E+03
  7.35125E+03  4.27683E+03  2.77726E+03  7.64051E+03 -3.47916E+03  4.36011E+03 -5.91792E+03  2.29836E+02
 -2.21003E+03 -4.95985E+03  2.25141E+03 -6.17082E+03  5.42452E+03 -3.03162E+03  5.25042E+03  2.15460E+03
  2.97912E+03  2.83948E+03 -8.08988E+01  8.63837E+02 -1.14044E+02  3.12252E+03  1.13487E+03 -1.10664E+03
  3.26977E+03 -1.52111E+03  5.79021E+03  1.93905E+03  1.97874E+03  7.12960E+03 -1.36007E+03  8.37124E+03
 -5.20415E+03  6.30656E+03 -8.44529E+03  1.94927E+03 -6.09360E+03 -1.96190E+03 -2.77682E+03 -5.30273E+03
 -7.09724E+02 -4.01974E+03  3.30477E+03 -2.40232E+03  1.79191E+03  1.62596E+03 -1.12950E+03  4.36939E+03
 -4.79750E+03  2.25730E+03 -5.08259E+03 -2.02290E+03 -3.69960E+03 -5.86280E+03  1.07646E+03 -7.09418E+03
  4.98169E+03 -4.75085E+03  4.63691E+03 -1.01672E+03  4.01727E+03  1.00499E+03  8.47709E+02  3.91840E+03
 -1.57509E+03  3.63320E+02 -1.92164E+03 -3.45670E+03  1.45884E+03 -5.38294E+03  6.10980E+03 -4.49426E+03
  7.32326E+03  1.32492E+03  8.98472E+03  4.78365E+03  4.24215E+03  8.69041E+03 -1.69671E+03  7.49369E+03
 -6.38244E+03  3.53919E+03 -6.51260E+03 -3.54430E+02 -3.52981E+03 -4.75883E+03  2.01855E+03 -5.75362E+03
  4.72400E+03 -3.53843E+03  4.27004E+03  2.75906E+03  1.69327E+03  4.48305E+03 -3.59418E+02  5.42975E+03
 -2.39107E+03  2.92534E+03 -9.60307E+02  1.11873E+02 -6.15315E+02  1.26813E+03 -1.30394E+03  8.23442E+02
 -2.95027E+03  2.24623E+03 -5.13330E+03  3.41664E+03 -5.80895E+03 -2.89344E+02 -9.98906E+03 -5.09141E+03
 -5.66904E+03 -1.27118E+04  3.15428E+03 -1.33828E+04  7.11820E+03 -1.03091E+04  1.08750E+04 -3.72685E+03
  1.09564E+04  3.61206E+03  5.41099E+03  8.04162E+03  9.82021E+02  8.74034E+03 -2.90115E+03  6.30139E+03
 -4.55303E+03  2.92385E+03 -2.89480E+03 -1.40500E+03 -3.50310E+02  1.08849E+03  2.68575E+02  7.34241E+02
 -2.18129E+03 -9.04411E+02 -2.99179E+03 -2.63437E+02  9.28053E+02 -1.79369E+03 -6.59940E+02 -3.99160E+03
  2.91577E+03 -1.74891E+03  5.09620E+03  4.66874E+02  4.37357E+03  5.57513E+03  6.70580E+02  8.45921E+03
 -3.34822E+03  1.07019E+04 -8.95945E+03  6.44025E+03 -1.06493E+04 -1.46199E+03 -6.63891E+03 -6.15766E+03
 -4.50145E+03 -9.06805E+03  2.37205E+03 -7.80416E+03  7.47342E+03 -4.73908E+03  5.15927E+03  4.97999E+02
  3.20109E+03  3.92086E+03 -2.74696E+02  2.68937E+03 -1.33577E+03 -3.60623E+02  6.20603E+02 -2.77064E+03
  3.51044E+03 -1.59802E+03  2.88484E+03  2.18568E+03  2.40118E+03  3.99467E+03 -7.40963E+02  5.29647E+03
 -2.49329E+03  3.67787E+03 -5.12653E+03  1.34410E+03 -5.25078E+03 -3.67364E+03 -1.06835E+03 -6.62196E+03
  3.45830E+03 -6.29048E+03  6.55876E+03 -2.33558E+03  5.40051E+03  2.09185E+03  3.05393E+03  4.23523E+03
  1.30732E+03  5.64881E+03 -2.01662E+03  4.97389E+03 -3.96191E+03  2.40835E+03 -2.59382E+03  1.00599E+03
 -2.30807E+03  1.07273E+03 -2.74710E+02  1.51180E+03 -2.12426E+03  8.20986E+02 -3.85987E+03  8.20520E+01
 -2.52907E+03 -3.86363E+03 -9.14748E+02 -6.43434E+03  3.23108E+03 -6.17737E+03  5.05964E+03 -2.67103E+03
  5.58608E+03  1.87235E+03  2.81008E+03  4.48987E+03 -8.13030E+01  4.56702E+03 -3.60446E+03  3.67185E+03
