 $NMID ID='MM_0lb_SNR200_15hz_g55_60.RAW', FMTDAT='(8E13.5)'
 TRAMP=1., VOLUME=1. $END
  3.09898E+05  1.61440E+03  3.37267E+05  2.50990E+05  8.58871E+04  3.37471E+05 -1.33580E+05  2.50630E+05
 -1.90051E+05  8.42508E+04 -1.11551E+05 -3.19493E+04  1.12834E+03 -5.10186E+04  5.52075E+04  5.13638E+02
  3.64458E+04  5.32367E+04 -1.71181E+04  7.56813E+04 -6.26631E+04  6.44646E+04 -8.34056E+04  3.29340E+04
 -8.10043E+04 -1.16682E+04 -5.54412E+04 -5.11970E+04 -1.50757E+04 -6.97875E+04  2.68578E+04 -4.69972E+04
  4.00115E+04  4.62573E+03  1.73227E+04  4.75707E+04 -3.38555E+04  4.75407E+04 -6.77844E+04 -1.12340E+03
 -5.18516E+04 -5.63412E+04 -7.54752E+03 -7.61533E+04  3.28223E+04 -5.49066E+04  4.95776E+04 -1.70037E+04
  4.39838E+04  1.05238E+04  3.20201E+04  2.45288E+04  1.57260E+04  2.91671E+04 -5.71150E+03  2.75072E+04
 -2.19831E+04  1.22498E+04 -1.82476E+04 -3.57284E+03  6.60766E+03 -8.33277E+03  2.14520E+04  1.25317E+04
  5.99196E+03  3.51104E+04 -3.27923E+04  3.43611E+04 -6.30177E+04  1.88583E+03 -5.72593E+04 -4.29527E+04
 -1.25061E+04 -6.30246E+04  3.88160E+04 -4.46209E+04  5.92392E+04 -1.26045E+03  3.46821E+04  3.23652E+04
 -6.05791E+03  3.65391E+04 -3.01102E+04  1.56363E+04 -3.05253E+04 -3.96295E+03 -1.70799E+04 -1.02102E+04
 -8.98072E+03 -1.26746E+04 -7.43282E+02 -1.82012E+04  7.12886E+03 -2.22897E+04  1.60321E+04 -1.27370E+04
  1.06384E+04  5.68903E+03 -8.22066E+03  1.29595E+04 -2.16796E+04 -5.24780E+03 -8.35781E+03 -3.36080E+04
  2.30470E+04 -4.34329E+04  4.77447E+04 -1.91187E+04  4.53405E+04  2.05460E+04  1.52616E+04  4.43517E+04
 -1.53930E+04  3.34810E+04 -2.62821E+04  2.12296E+03 -1.01666E+04 -2.84168E+04  2.14011E+04 -3.24177E+04
  4.16293E+04 -9.58508E+03  3.58120E+04  2.36558E+04  1.70884E+04  4.66188E+04 -8.51491E+03  5.08779E+04
 -3.09361E+04  3.46929E+04 -4.17891E+04  1.03231E+04 -4.11862E+04 -1.74422E+04 -2.42932E+04 -3.84495E+04
  7.53702E+03 -3.82337E+04  3.24559E+04 -1.38914E+04  2.95353E+04  1.00311E+04  4.17776E+03  1.82464E+04
 -1.30092E+04  9.26322E+03 -1.00721E+04 -8.00651E+03  6.69902E+03 -1.17445E+04  1.78473E+04  6.53721E+03
  1.28089E+04  2.26543E+04 -7.70254E+03  2.59023E+04 -2.16521E+04  1.10612E+04 -2.85672E+04 -5.74978E+03
 -2.08163E+04 -1.90187E+04 -9.49078E+03 -2.06840E+04  4.22563E+03 -2.02707E+04  1.55231E+04 -1.80261E+04
  2.69676E+04 -1.17808E+04  3.21551E+04  3.62222E+03  2.40517E+04  2.08479E+04  3.63819E+03  3.65304E+04
 -1.67392E+04  2.95669E+04 -2.76733E+04  1.01491E+04 -2.17699E+04 -1.06331E+04 -4.61798E+03 -1.39938E+04
  3.04797E+03 -4.05511E+03 -5.44685E+03  5.76701E+03 -1.58855E+04  5.17904E+03 -1.56085E+04 -6.87363E+03
 -9.83884E+03 -1.74861E+04  5.22965E+03 -2.28283E+04  1.43829E+04 -1.71206E+04  1.77861E+04 -2.19456E+03
  1.27238E+04  1.33161E+04 -1.37368E+03  1.85301E+04 -1.38675E+04  1.11939E+04 -1.92632E+04 -4.26106E+03
 -1.34307E+04 -1.75839E+04 -1.11002E+03 -2.24013E+04  1.04417E+04 -1.92478E+04  1.96983E+04 -9.13212E+03
  1.77803E+04  3.60778E+02  1.26271E+04  4.61878E+03  6.62311E+03  1.95944E+03  9.30123E+03 -8.00413E+02
  1.71130E+04  2.94388E+03  2.07647E+04  1.50889E+04  1.28345E+04  3.03884E+04 -2.47374E+03  3.40880E+04
 -1.86810E+04  2.54277E+04 -3.16203E+04  1.39264E+04 -3.25561E+04 -2.31831E+03 -2.68776E+04 -1.98471E+04
 -1.10637E+04 -2.72033E+04  1.01709E+04 -2.53244E+04  2.05144E+04 -1.28990E+04  1.83018E+04  4.50388E+03
  7.37403E+03  1.46278E+04 -8.70342E+03  1.22589E+04 -1.62252E+04  2.68382E+03 -1.32855E+04 -1.06649E+04
 -1.90349E+02 -1.52534E+04  8.00984E+03 -1.16222E+04  8.67868E+03 -1.52455E+03  1.73765E+03  7.00955E+03
 -7.55920E+03  2.61402E+03 -7.31636E+03 -6.17681E+03 -7.80054E+02 -1.33847E+04  9.37192E+03 -1.33886E+04
  1.68504E+04 -6.44054E+03  1.72192E+04  2.99088E+03  1.52300E+04  1.27318E+04  6.19943E+03  2.02421E+04
 -3.30866E+03  2.07651E+04 -1.38521E+04  1.34029E+04 -1.51342E+04  3.07002E+03 -1.19187E+04 -4.92187E+03
 -5.11001E+03 -4.56389E+03 -6.48216E+02  2.18803E+03 -2.56864E+03  3.49554E+03 -5.43906E+03  4.54159E+03
 -1.05205E+04  1.69871E+02 -1.10337E+04 -1.00789E+04 -4.51792E+03 -1.44871E+04  3.62799E+03 -1.11084E+04
  9.72061E+03 -4.78759E+03  6.46748E+03  2.99402E+03  8.76084E+02  4.65931E+03 -5.29130E+03 -9.16760E+02
 -5.62486E+03 -7.52917E+03 -2.04758E+03 -1.06808E+04  5.92780E+03 -1.05722E+04  1.24095E+04 -5.71062E+03
  1.72992E+04  1.97347E+03  1.17677E+04  8.39852E+03  2.28476E+03  1.25202E+04 -7.29355E+03  1.14995E+04
 -9.44037E+03  4.03121E+03 -4.32227E+03 -6.70937E+02  6.69031E+02 -1.50336E+03  6.01192E+03 -1.07038E+03
  5.55004E+03  5.32419E+03  9.03670E+02  8.51376E+03 -6.30758E+03  8.39997E+03 -9.59482E+03  1.80275E+03
 -6.83943E+03 -5.17999E+03 -4.92726E+02 -9.29495E+03  5.04718E+03 -4.49658E+03  5.05135E+03  6.19588E+02
  4.27129E+00  5.76279E+03 -4.61681E+03  7.09206E+03 -8.10963E+03  2.85929E+03 -7.73321E+03 -2.88774E+03
 -5.40542E+03 -9.27657E+03  1.41619E+03 -1.11180E+04  1.05335E+04 -6.56893E+03  1.04170E+04  1.91544E+03
  4.56016E+03  8.39193E+03  6.11879E+01  1.02673E+04 -8.33316E+03  5.49746E+03 -8.38554E+03 -5.80636E+02
 -6.68590E+03 -6.82378E+03 -2.19424E+03 -7.66633E+03  3.46090E+03 -6.68426E+03  5.31665E+03 -2.56880E+03
  2.62955E+03  1.10895E+03 -2.82271E+02  1.14559E+03  6.81528E+02 -6.43239E+02  1.62750E+03 -4.19027E+03
  6.64679E+03 -2.35150E+03  8.35106E+03  1.33572E+03  9.53939E+03  4.92634E+03  7.36404E+03  1.14290E+04
 -1.96069E+03  1.22042E+04 -1.17819E+04  9.15192E+03 -1.38331E+04  3.00868E+03 -1.28863E+04 -4.97207E+03
 -6.44669E+03 -1.08965E+04 -5.54608E+02 -8.02329E+03  4.10716E+03 -3.00394E+03  3.16459E+03 -3.57564E+03
  2.22291E+03 -1.85524E+03  3.22648E+03 -2.54113E+03  4.04824E+03 -2.17708E+03  4.91232E+03  5.05312E+02
  6.79425E+03  1.63455E+03  2.66382E+03  5.12387E+03 -3.10940E+03  5.24448E+03 -6.68197E+03  4.41828E+03
 -6.63451E+03 -1.31055E+03 -3.06842E+03 -5.49526E+03  8.05417E+02 -8.59225E+03  4.36620E+03 -7.84557E+03
  8.98578E+03 -3.71969E+03  9.97031E+03  1.48624E+03  7.17917E+03  7.41422E+03  2.07673E+03  8.25891E+03
 -2.85672E+03  8.04991E+03 -5.61334E+03  2.95216E+03 -4.15580E+03 -1.61040E+03 -1.61626E+03 -2.60440E+01
 -1.17780E+03  5.38587E+02 -1.39051E+03  2.09597E+03 -2.50863E+03  7.13790E+02 -5.88128E+03 -8.97563E+02
 -2.62156E+03 -6.37815E+03  6.86997E+02 -8.05422E+03  4.59527E+03 -6.21640E+03  5.92088E+03 -1.57013E+03
  6.52796E+03  3.06859E+03  3.26511E+03  6.12666E+03 -1.45266E+03  8.19634E+03 -5.05382E+03  4.24566E+03
 -6.79562E+03  3.50094E+02 -5.62520E+03 -3.93156E+03 -1.79622E+03 -6.52365E+03  3.23634E+03 -4.22536E+03
  4.43505E+03 -1.05869E+03  3.44629E+03  4.57265E+02  1.58041E+03  2.63141E+03  1.05405E+03  3.98273E+02
  1.20075E+03 -5.74556E+02  2.12712E+03  9.30023E+02  2.34243E+03  2.76966E+03  1.96188E+03  3.87537E+03
 -2.35293E+03  5.61411E+03 -4.51889E+03  5.92378E+03 -5.95168E+03  1.84288E+03 -7.37200E+03 -2.96622E+03
 -2.19146E+03 -5.80853E+03  2.21565E+03 -8.00782E+03  5.59483E+03 -5.27565E+03  5.09645E+03  7.47254E+02
  5.69022E+03  3.69648E+03  4.38996E+02  4.05817E+03 -1.48457E+03  3.22328E+03 -6.75916E+02 -7.95557E+02
 -2.81761E+02 -2.93397E+03  1.12867E+03 -2.36879E+03  2.77124E+03 -2.34196E+03  3.30632E+03  1.32717E+03
  1.52643E+03 -4.22529E+02  1.17294E+03  8.76244E+02  2.58403E+02  1.42228E+03  1.90803E+03  1.03429E+01
  1.04153E+03 -2.83382E+01  1.22724E+03  6.16002E+02  1.65362E+03  3.33565E+03  1.78793E+02  5.55237E+03
 -3.63462E+03  2.09331E+03 -3.55628E+03  1.74337E+03 -3.96444E+03 -1.12312E+03 -2.29534E+03 -2.24655E+03
  1.13690E+03 -2.46745E+03  1.12223E+03 -2.58877E+03  9.76747E+02  2.39792E+03 -5.86678E+01  2.06944E+03
 -2.50056E+03  3.61336E+02 -2.39005E+03 -2.82156E+03 -1.06407E+03 -3.43908E+03  8.16952E+01 -3.54346E+03
  1.85057E+03 -1.73856E+03  2.40257E+03 -3.66567E+01  3.08068E+03  1.57054E+03  3.24822E+02  1.73520E+03
 -1.06158E+03 -4.65672E+02 -2.24547E+03 -5.58096E+02  1.53507E+03 -1.84492E+03  3.79408E+03 -2.44079E+03
  3.13266E+03 -9.02269E+02  3.78203E+03  3.07863E+03  2.32396E+03  2.99907E+03 -5.09474E+02  3.68894E+03
 -2.66396E+03  1.86467E+03 -3.89853E+03 -1.07629E+02 -1.68544E+03 -1.71265E+03  1.26437E+03 -1.30831E+03
  2.65151E+03 -9.61978E+02  7.35968E+02 -2.38591E+02  4.33880E+02  1.31827E+03  4.78621E+02  1.95243E+03
 -1.40087E+03  8.63128E+02 -9.90506E+02  1.33501E+01 -6.21969E+02  9.57001E+02  1.44718E+01 -3.80668E+02
 -1.44567E+03  3.19369E+03 -3.84340E+03  9.76807E+02 -3.88157E+03  6.66860E+01 -4.63093E+03 -2.46134E+03
 -1.72011E+03 -5.24936E+03  6.21029E+02 -5.81688E+03  3.25096E+03 -4.53897E+03  5.07646E+03 -1.82813E+03
  4.44499E+03  8.93212E+02  3.10943E+03  3.11441E+03 -6.96307E+02  3.03923E+03 -9.70942E+02  2.87772E+03
 -2.45922E+03  3.55958E+02 -4.17486E+02 -1.78990E+02 -8.20528E+02 -2.52782E+03  1.19362E+02  4.50590E+02
 -2.24203E+03  5.21073E+02 -1.62391E+03  8.77622E+01  1.23213E+03 -1.34431E+03 -7.91167E+02 -1.12483E+03
  1.78340E+03 -4.93962E+02  1.67550E+03 -6.85967E+01  2.37863E+03  3.02294E+03 -5.61204E+02  3.23716E+03
 -2.15931E+03  4.38226E+03 -3.12783E+03  3.35768E+03 -3.70625E+03  6.11652E+02 -3.03430E+03 -1.66796E+03
 -8.57075E+02 -4.32090E+03  5.73312E+02 -2.99515E+03  1.10951E+03 -9.69742E+02  2.02988E+03  1.11640E+02
  1.52324E+03  8.14489E+02  3.02198E+02  1.02591E+03 -5.85307E+02  3.96488E+02  2.33533E+02  1.46333E+02
  1.57968E+03 -5.10096E+01 -3.29301E+01  4.80307E+02  3.89281E+02  1.06785E+03  1.01612E+03  7.60486E+02
 -5.91420E+02  1.46725E+03 -5.08862E+01  3.62122E+02 -1.47129E+03 -6.60722E+02 -3.18404E+01 -2.27193E+03
  1.83447E+03 -1.92745E+03  2.59714E+03 -1.15778E+03  2.22419E+03 -5.01306E+02  1.17643E+03  1.43013E+03
  8.83914E+02  2.67656E+03 -2.18060E+01  6.31938E+02 -2.08278E+03  3.24226E+02 -9.45507E+02  5.20829E+02
 -8.51400E+02 -9.43931E+02 -1.51530E+03 -3.88175E+02 -1.00317E+03  3.58643E+02 -1.63613E+03  3.54214E+01
 -2.17744E+03 -1.44269E+02 -5.83092E+02 -1.45870E+03  2.30482E+03 -2.92074E+03  1.87246E+03 -1.37709E+03
  9.57453E+02  9.67678E+02  7.20655E+02  2.11934E+02  3.49888E+02  1.32081E+03 -1.81169E+03  2.05892E+03
