 $NMID ID='MM_0lb_SNR200_11hz_g45_50.RAW', FMTDAT='(8E13.5)'
 TRAMP=1., VOLUME=1. $END
  3.10749E+05  6.12198E+02  3.37683E+05  2.51191E+05  8.45686E+04  3.38467E+05 -1.32822E+05  2.52005E+05
 -1.90469E+05  8.32002E+04 -1.11854E+05 -3.12325E+04  9.12465E+02 -5.04203E+04  5.32285E+04 -5.99346E+02
  3.53623E+04  5.20796E+04 -1.63096E+04  7.60901E+04 -6.08485E+04  6.43960E+04 -8.35904E+04  3.29643E+04
 -8.19855E+04 -1.12269E+04 -5.94031E+04 -5.16468E+04 -1.57140E+04 -6.91338E+04  2.77277E+04 -4.69692E+04
  4.11230E+04  3.56822E+03  1.87095E+04  4.76133E+04 -3.44128E+04  4.79427E+04 -6.77297E+04 -2.48474E+02
 -5.59777E+04 -5.86611E+04 -8.37789E+03 -7.84491E+04  3.56217E+04 -5.69544E+04  4.87552E+04 -1.69306E+04
  4.49435E+04  1.16881E+04  3.16951E+04  2.65899E+04  1.72032E+04  3.03589E+04 -6.23192E+03  2.75170E+04
 -2.19236E+04  1.28874E+04 -1.75664E+04 -4.92061E+03  7.74574E+03 -7.76179E+03  2.30429E+04  1.36959E+04
  6.98578E+03  3.68210E+04 -3.22375E+04  3.56191E+04 -6.62216E+04  1.12309E+03 -5.84592E+04 -4.40688E+04
 -1.33520E+04 -6.46909E+04  4.00480E+04 -4.59501E+04  6.06168E+04 -2.82825E+03  3.57286E+04  3.22175E+04
 -6.16336E+03  3.76980E+04 -3.16847E+04  1.67093E+04 -3.19292E+04 -3.24364E+03 -1.89395E+04 -1.14966E+04
 -9.88852E+03 -1.56514E+04  7.76262E+00 -1.79481E+04  8.34142E+03 -2.40827E+04  1.61624E+04 -1.24266E+04
  1.17816E+04  5.12056E+03 -9.33727E+03  1.23164E+04 -2.16385E+04 -4.40242E+03 -7.43917E+03 -3.61398E+04
  2.45748E+04 -4.45824E+04  4.92568E+04 -1.95750E+04  4.65175E+04  2.00557E+04  1.70215E+04  4.48598E+04
 -1.59401E+04  3.61115E+04 -2.78490E+04  2.21435E+03 -1.05001E+04 -2.98951E+04  2.19568E+04 -3.56110E+04
  4.24028E+04 -9.87764E+03  3.70523E+04  2.39728E+04  1.94708E+04  4.76842E+04 -7.61774E+03  5.37006E+04
 -3.40954E+04  3.57122E+04 -4.55417E+04  9.64544E+03 -4.44752E+04 -1.83913E+04 -2.37697E+04 -3.95914E+04
  7.09732E+03 -4.05421E+04  3.19280E+04 -1.57517E+04  3.11450E+04  1.21332E+04  4.74907E+03  1.90714E+04
 -1.45250E+04  9.29816E+03 -9.81064E+03 -9.74168E+03  4.84052E+03 -1.22450E+04  1.93282E+04  5.67867E+03
  1.39332E+04  2.29682E+04 -6.41639E+03  2.61306E+04 -2.35988E+04  1.21745E+04 -2.92381E+04 -3.70119E+03
 -2.20352E+04 -1.65154E+04 -9.74032E+03 -2.36044E+04  5.77556E+03 -2.28322E+04  1.73871E+04 -2.12711E+04
  2.82978E+04 -1.32974E+04  3.52941E+04  3.63633E+03  2.62669E+04  2.08332E+04  4.05543E+03  3.90418E+04
 -1.94501E+04  3.13420E+04 -2.84211E+04  1.12941E+04 -2.23962E+04 -1.07906E+04 -4.60254E+03 -1.38567E+04
  2.07756E+03 -2.84887E+03 -5.67648E+03  7.64865E+03 -1.71733E+04  4.77497E+03 -1.80808E+04 -8.68657E+03
 -9.92051E+03 -2.02452E+04  4.76836E+03 -2.45209E+04  1.60655E+04 -1.93121E+04  1.97872E+04 -3.98705E+02
  1.40781E+04  1.38360E+04 -1.32678E+03  2.17396E+04 -1.44006E+04  1.03451E+04 -2.23234E+04 -4.01176E+03
 -1.51308E+04 -1.88392E+04 -2.47310E+03 -2.59243E+04  1.24194E+04 -2.18048E+04  2.30181E+04 -1.04292E+04
  1.88332E+04  2.06116E+03  1.43021E+04  4.10492E+03  7.29237E+03  2.46177E+03  9.55448E+03 -2.40297E+03
  1.79578E+04  2.37837E+03  2.22654E+04  1.77204E+04  1.60494E+04  3.36611E+04 -2.26986E+03  3.86847E+04
 -2.20504E+04  3.11949E+04 -3.70300E+04  1.71356E+04 -3.93419E+04 -3.99797E+03 -3.32772E+04 -2.24666E+04
 -1.42342E+04 -3.30044E+04  1.26356E+04 -3.00991E+04  2.47433E+04 -1.45846E+04  2.16677E+04  6.47405E+03
  5.10171E+03  1.62526E+04 -1.03664E+04  1.41950E+04 -1.84345E+04  1.48400E+03 -1.24519E+04 -1.16498E+04
 -1.02801E+03 -1.74985E+04  9.40562E+03 -1.34505E+04  1.20652E+04 -7.88778E+02  2.74075E+03  8.24857E+03
 -8.43420E+03  4.45381E+03 -7.06291E+03 -5.28163E+03 -2.46035E+02 -1.65704E+04  1.05012E+04 -1.59640E+04
  1.91377E+04 -8.68077E+03  2.29092E+04  3.24005E+03  1.87211E+04  1.58175E+04  9.01131E+03  2.62969E+04
 -4.60354E+03  2.61893E+04 -1.71891E+04  1.75745E+04 -1.98532E+04  3.99245E+03 -1.32913E+04 -4.58521E+03
 -4.74809E+03 -5.94334E+03 -1.61937E+03 -1.36616E+02 -1.77883E+03  3.87835E+03 -5.27963E+03  5.16256E+03
 -1.03139E+04 -1.32362E+02 -1.29740E+04 -1.07805E+04 -5.68316E+03 -1.64716E+04  4.59529E+03 -1.25760E+04
  1.11995E+04 -6.11478E+03  7.13942E+03  2.84578E+03  3.59466E+02  5.82326E+03 -7.55510E+03  3.26539E+02
 -6.37090E+03 -9.79601E+03 -4.08567E+02 -1.34713E+04  7.70766E+03 -1.32410E+04  1.63967E+04 -8.61840E+03
  2.10452E+04  2.56463E+03  1.60398E+04  1.16595E+04  2.39890E+03  1.64000E+04 -8.45351E+03  1.35423E+04
 -1.02787E+04  3.78703E+03 -5.00440E+03 -3.71397E+03  2.22437E+03 -5.29579E+03  5.10603E+03 -1.07435E+03
  6.59547E+03  6.26022E+03  1.89504E+03  1.12796E+04 -6.96398E+03  9.89795E+03 -1.29121E+04  1.33827E+03
 -9.47000E+03 -7.15342E+03  1.98408E+03 -1.13012E+04  6.88860E+03 -6.11233E+03  6.06317E+03  1.50029E+03
  2.04113E+03  7.37605E+03 -7.28997E+03  6.75745E+03 -9.55151E+03  5.28439E+03 -1.05668E+04 -3.92517E+03
 -6.46372E+03 -1.29881E+04  2.76885E+03 -1.53741E+04  1.37308E+04 -8.82476E+03  1.34975E+04  1.95499E+03
  9.37563E+03  1.17136E+04 -7.81581E+02  1.31140E+04 -1.00079E+04  7.71463E+03 -1.10261E+04 -1.16344E+02
 -1.11251E+04 -9.55977E+03 -3.11769E+03 -1.23510E+04  5.65761E+03 -8.23864E+03  6.09276E+03 -2.66864E+03
  4.75850E+03  1.82852E+03 -2.28281E+02  1.86102E+03 -8.87979E+02 -3.68981E+03  1.99791E+03 -5.76333E+03
  8.74477E+03 -3.08844E+03  1.37338E+04  1.86516E+03  1.26647E+04  9.00597E+03  7.19716E+03  1.67115E+04
 -3.63174E+03  1.88435E+04 -1.53890E+04  1.33357E+04 -2.13208E+04  3.40202E+03 -1.66317E+04 -5.72698E+03
 -6.63431E+03 -1.44008E+04  2.35861E+02 -1.19410E+04  3.78588E+03 -4.10319E+03  4.74866E+03 -5.39389E+03
  4.16350E+03 -3.89215E+03  2.89297E+03 -2.98507E+03  6.00637E+03 -1.90862E+03  6.02059E+03 -1.98798E+03
  1.02112E+04  2.30559E+03  4.93911E+03  7.74725E+03 -2.01463E+03  1.00948E+04 -9.10448E+03  6.32221E+03
 -1.15309E+04 -7.50172E+02 -6.68838E+03 -6.32194E+03  6.48519E+02 -1.24298E+04  8.98231E+03 -1.17429E+04
  1.31934E+04 -7.32588E+03  1.49461E+04  1.20459E+03  1.10827E+04  1.06939E+04  2.01518E+03  1.48772E+04
 -5.53537E+03  1.29679E+04 -8.04216E+03  3.95580E+03 -5.92048E+03 -1.69947E+03 -2.19098E+03 -1.42433E+03
 -8.10576E+02 -1.38676E+03 -1.34873E+03  3.50109E+03 -6.51183E+03  4.31785E+02 -8.22605E+03 -2.44044E+03
 -5.74097E+03 -8.87801E+03  8.89493E+01 -1.14033E+04  7.16050E+03 -1.07897E+04  9.95722E+03 -3.36297E+03
  1.14538E+04  4.76110E+03  5.01682E+03  1.05128E+04 -2.83903E+03  1.11830E+04 -8.57087E+03  7.42443E+03
 -1.13622E+04  3.86221E+01 -8.30978E+03 -7.29921E+03 -1.01601E+03 -1.00043E+04  5.18505E+03 -6.29535E+03
  6.27480E+03 -2.34487E+03  6.15973E+03  1.70326E+03  2.33270E+03  3.69819E+03  1.84478E+03  1.71487E+03
  2.90105E+03  2.24200E+02  1.35198E+03  5.72996E+02  4.00002E+03  4.88350E+03  2.50953E+03  5.55447E+03
 -2.78881E+03  7.71180E+03 -7.03573E+03  9.33683E+03 -1.08256E+04  3.04650E+03 -1.14874E+04 -4.74941E+03
 -6.52599E+03 -1.06477E+04  1.79793E+03 -1.24002E+04  6.68576E+03 -7.38530E+03  8.74168E+03 -2.70869E+03
  6.66394E+03  4.76721E+03  1.31593E+03  5.72172E+03 -1.85144E+03  4.85571E+03 -4.87813E+03 -1.38756E+03
 -2.65381E+03 -4.83912E+03  3.19152E+03 -4.36935E+03  4.42125E+03 -2.38906E+03  4.36324E+03  1.34978E+02
  2.73823E+03  2.42385E+03  1.86221E+03  2.56023E+03 -1.87126E+03  2.02032E+03  3.65748E+03 -1.48723E+03
 -4.03555E+02 -8.48981E+02  4.96653E+03  1.14900E+03  2.07286E+03  5.93008E+03  1.97103E+02  8.94185E+03
 -4.78281E+03  6.84627E+03 -6.32166E+03  4.19482E+02 -6.76501E+03 -2.52823E+03 -1.31548E+03 -4.69441E+03
  2.35300E+03 -3.21227E+03  2.26514E+03 -3.02664E+03  3.21588E+03  2.35893E+03 -1.16286E+02  3.75217E+03
 -4.09553E+03  1.75467E+03 -3.88123E+03 -3.71790E+03 -2.13674E+03 -6.08833E+03  2.83868E+02 -6.05675E+03
  3.60507E+03 -2.89258E+03  4.54283E+03 -5.01810E+02  4.64449E+03  2.72586E+03 -1.58395E+02  3.78320E+03
 -2.24973E+03  5.97060E+02 -4.24007E+03 -2.09342E+03  1.53875E+03 -4.42704E+03  4.71666E+03 -3.05435E+03
  6.51713E+03 -4.34626E+02  6.63876E+03  4.70846E+03  2.41828E+03  8.07827E+03 -3.23514E+03  7.48826E+03
 -6.97091E+03  2.45924E+03 -4.39758E+03  1.35693E+02 -2.50439E+03 -3.92811E+03  2.43137E+02 -4.22457E+03
  5.31355E+03 -1.90606E+03  3.66779E+03  2.31928E+03  3.32708E+02  4.71364E+03  2.30361E+02  3.57393E+03
 -1.89009E+03  2.71854E+03 -3.05842E+03  8.73038E+02 -1.71369E+03  2.74612E+02 -4.78984E+02 -2.15498E+02
 -1.14447E+03  2.54444E+03 -6.22904E+03  1.71480E+03 -7.12225E+03  1.10422E+03 -8.37702E+03 -4.48234E+03
 -3.68059E+03 -9.52564E+03  2.38483E+03 -1.13889E+04  5.51306E+03 -9.68242E+03  9.87523E+03 -4.05745E+03
  7.96288E+03  2.03636E+03  6.59994E+03  8.14634E+03  6.54858E+02  6.27842E+03 -2.17903E+03  5.14386E+03
 -3.51146E+03  1.69078E+03 -2.77689E+03 -9.91404E+02 -1.57406E+03  5.02996E+02  4.39149E+02  1.89514E+02
 -1.37677E+03  2.05589E+03 -8.45326E+02 -9.00481E+02 -1.40820E+03  1.98642E+02 -4.09904E+02 -1.73117E+03
  3.52180E+03 -2.14182E+03  4.23649E+03 -2.18206E+02  6.06106E+03  4.06863E+03  9.36695E+02  6.00678E+03
 -3.64090E+03  7.92560E+03 -8.48543E+03  4.50502E+03 -7.77495E+03 -7.67111E+02 -7.09308E+03 -4.84504E+03
 -2.53016E+03 -7.48122E+03  2.90121E+03 -6.97175E+03  6.42933E+03 -4.03609E+03  4.41723E+03  6.40465E+02
  2.62510E+03  3.76298E+03  8.89180E+02  3.40250E+03 -2.53047E+03 -1.34400E+02  4.15178E+02 -1.53467E+03
  2.86038E+03 -3.18311E+02  1.96402E+03 -7.73126E+00  6.64014E+02  3.96915E+03  4.09782E+02  2.78010E+03
 -2.54581E+03  3.86338E+03 -3.13981E+03  3.19196E+01 -3.74110E+03 -4.28094E+03 -1.68204E+03 -7.78201E+03
  2.80307E+03 -4.23363E+03  5.02083E+03 -2.76005E+03  6.77174E+03  8.55550E+01  1.90109E+03  5.08502E+03
 -1.09484E+03  5.44687E+03 -1.55177E+03  3.40560E+03 -2.38893E+03  2.67363E+03 -3.48487E+03  1.08596E+03
 -4.70543E+02 -6.46510E+02  2.16410E+02  1.38435E+03 -1.79119E+03  6.26654E+02 -3.28420E+03 -4.94708E+02
 -3.75174E+03 -2.31335E+03 -2.22429E+03 -4.34260E+03  2.62698E+03 -5.58728E+03  3.73837E+03 -3.43430E+03
  4.91205E+03  1.04741E+03  2.32258E+02  3.34886E+03 -5.47749E+02  4.40216E+03 -4.01315E+03  3.52759E+03
