 $NMID ID='MM_0lb_SNR200_10hz_g60_2.RAW', FMTDAT='(8E13.5)'
 TRAMP=1., VOLUME=1. $END
  3.10117E+05 -1.90888E+02  3.37034E+05  2.52136E+05  8.51642E+04  3.38637E+05 -1.34232E+05  2.51570E+05
 -1.90484E+05  8.44682E+04 -1.12326E+05 -3.42696E+04  9.29459E+02 -4.94825E+04  5.35221E+04  1.19053E+01
  3.43509E+04  5.34841E+04 -1.55009E+04  7.63802E+04 -6.15302E+04  6.52481E+04 -8.42024E+04  3.11197E+04
 -8.32209E+04 -9.83625E+03 -5.76672E+04 -5.16902E+04 -1.52209E+04 -7.10725E+04  2.95741E+04 -4.71070E+04
  4.13313E+04  3.54170E+03  1.67605E+04  4.85593E+04 -3.50766E+04  4.76677E+04 -6.75775E+04 -6.96449E+02
 -5.69069E+04 -5.84590E+04 -6.45631E+03 -7.86818E+04  3.38738E+04 -5.78940E+04  5.06261E+04 -1.78150E+04
  4.58068E+04  1.23079E+04  3.22632E+04  2.57411E+04  1.60256E+04  3.01365E+04 -5.38350E+03  2.69043E+04
 -2.30222E+04  1.22582E+04 -2.02951E+04 -3.55602E+03  6.25995E+03 -7.11969E+03  2.42182E+04  1.45339E+04
  7.96811E+03  3.57378E+04 -3.32928E+04  3.67324E+04 -6.60549E+04  2.08265E+03 -5.78334E+04 -4.31234E+04
 -1.26758E+04 -6.58050E+04  4.15363E+04 -4.75694E+04  6.11761E+04 -1.94103E+03  3.64677E+04  3.44598E+04
 -5.47493E+03  3.99322E+04 -3.15483E+04  1.85811E+04 -3.51033E+04 -1.58383E+03 -1.95035E+04 -1.18007E+04
 -1.06546E+04 -1.46672E+04 -1.06056E+03 -1.90752E+04  8.91963E+03 -2.36812E+04  1.68614E+04 -1.35783E+04
  1.05559E+04  6.70680E+03 -1.07026E+04  1.18797E+04 -2.45409E+04 -6.45920E+03 -9.08437E+03 -3.75453E+04
  2.52534E+04 -4.64142E+04  5.31298E+04 -2.04624E+04  4.79790E+04  2.05353E+04  1.76201E+04  4.72821E+04
 -1.62479E+04  3.67765E+04 -2.81001E+04  2.03511E+03 -1.25963E+04 -2.96127E+04  2.09488E+04 -3.69356E+04
  4.40850E+04 -1.00659E+04  4.02777E+04  2.38437E+04  2.12741E+04  5.16395E+04 -7.46438E+03  5.60728E+04
 -3.52894E+04  3.80957E+04 -4.69857E+04  1.11523E+04 -4.81078E+04 -1.81491E+04 -2.62285E+04 -4.31458E+04
  9.37562E+03 -4.26116E+04  3.32708E+04 -1.65627E+04  3.44683E+04  1.15692E+04  4.07936E+03  2.10543E+04
 -1.28239E+04  9.19542E+03 -1.13848E+04 -6.20332E+03  5.72583E+03 -1.21924E+04  1.93618E+04  6.68382E+03
  1.51414E+04  1.97924E+04 -5.60420E+03  2.79658E+04 -2.42438E+04  1.31182E+04 -3.16053E+04 -2.45544E+03
 -2.63706E+04 -1.74363E+04 -1.07207E+04 -2.65896E+04  3.38006E+03 -2.51986E+04  1.94167E+04 -2.41736E+04
  3.12906E+04 -1.50530E+04  3.72247E+04  4.44994E+03  2.71740E+04  2.51087E+04  4.07713E+03  4.19424E+04
 -2.00034E+04  3.46544E+04 -3.18928E+04  1.15308E+04 -2.31679E+04 -9.79547E+03 -5.92010E+03 -1.34530E+04
  7.60922E+02 -1.75027E+03 -9.34825E+03  8.08173E+03 -2.03665E+04  3.70882E+03 -2.12025E+04 -1.00239E+04
 -1.25787E+04 -2.27723E+04  7.42625E+03 -2.58860E+04  1.82832E+04 -1.83006E+04  2.31890E+04 -2.08483E+03
  1.40639E+04  1.61351E+04 -2.40908E+03  2.26941E+04 -1.71469E+04  1.24314E+04 -2.33110E+04 -6.39968E+03
 -1.77060E+04 -2.22952E+04 -1.58200E+03 -2.81537E+04  1.24202E+04 -2.24711E+04  2.10902E+04 -1.16072E+04
  2.08858E+04 -1.23503E+03  1.56263E+04  5.17946E+03  7.95660E+03  2.12487E+03  1.20862E+04 -1.34151E+03
  2.15111E+04  3.36861E+03  2.58392E+04  1.72804E+04  1.69292E+04  3.88379E+04 -2.06480E+03  4.37215E+04
 -2.54502E+04  3.64771E+04 -4.16787E+04  1.84291E+04 -4.42819E+04 -2.36922E+03 -3.53326E+04 -2.57020E+04
 -1.48157E+04 -3.82363E+04  1.31214E+04 -3.20825E+04  2.80270E+04 -1.56737E+04  2.42647E+04  8.65530E+03
  6.87187E+03  1.81495E+04 -1.04321E+04  1.54099E+04 -2.03165E+04  2.27657E+03 -1.41105E+04 -1.34759E+04
 -1.03727E+03 -1.94428E+04  1.13594E+04 -1.47832E+04  1.36392E+04 -1.20807E+03  3.63050E+03  8.52102E+03
 -8.18767E+03  6.01964E+03 -8.56223E+03 -6.45645E+03 -4.12972E+02 -1.90253E+04  1.26545E+04 -1.96896E+04
  2.24280E+04 -1.09454E+04  2.62327E+04  3.60299E+03  2.24398E+04  1.74821E+04  1.04483E+04  2.94774E+04
 -5.51669E+03  3.32239E+04 -1.94479E+04  1.92734E+04 -2.35615E+04  4.16193E+03 -1.36827E+04 -7.12108E+03
 -6.26602E+03 -7.22054E+03 -9.83392E+02 -3.78155E+02 -2.75250E+03  3.82011E+03 -8.65350E+03  3.24709E+03
 -1.50428E+04 -7.90334E+02 -1.62780E+04 -1.15971E+04 -8.03649E+03 -1.90570E+04  4.56065E+03 -1.51856E+04
  1.23157E+04 -7.30601E+03  9.24639E+03  5.49886E+03 -6.02065E+02  6.61122E+03 -6.99755E+03  6.53445E+02
 -7.77143E+03 -9.59246E+03 -2.00751E+03 -1.49583E+04  9.87415E+03 -1.52663E+04  1.92879E+04 -7.73444E+03
  2.31825E+04  3.31826E+03  1.68927E+04  1.53157E+04  4.38804E+03  1.70430E+04 -8.13030E+03  1.48164E+04
 -1.41643E+04  5.40174E+03 -6.84140E+03 -2.88224E+03  2.85880E+03 -3.71915E+03  7.64106E+03 -2.57734E+03
  6.77332E+03  7.46920E+03  5.59676E+02  1.23185E+04 -8.64823E+03  1.27728E+04 -1.41955E+04  3.30024E+03
 -8.72346E+03 -8.15978E+03  1.52984E+02 -1.40081E+04  8.41189E+03 -6.91148E+03  7.79308E+03  4.94339E+03
  3.47184E+03  9.16416E+03 -9.82503E+03  1.08678E+04 -1.29937E+04  5.25807E+03 -1.37200E+04 -7.20559E+03
 -7.71011E+03 -1.68720E+04  2.46174E+03 -1.80160E+04  1.49150E+04 -1.09649E+04  1.55330E+04  3.17652E+03
  9.53316E+03  1.42668E+04 -1.47233E+03  1.46619E+04 -1.20825E+04  9.47496E+03 -1.22509E+04 -1.65015E+03
 -1.11901E+04 -9.69021E+03 -8.55855E+02 -1.12246E+04  6.52910E+03 -1.01739E+04  6.99696E+03 -2.23596E+03
  6.04558E+03  3.38831E+03 -1.38745E+03  2.42069E+03  4.15200E+02 -4.35279E+03  1.77341E+03 -6.00351E+03
  1.06283E+04 -4.51142E+03  1.67470E+04  2.96852E+02  1.60133E+04  8.79583E+03  9.43378E+03  1.90486E+04
 -6.48735E+03  2.40435E+04 -1.99997E+04  1.74099E+04 -2.63276E+04  3.37547E+03 -1.87335E+04 -8.90978E+03
 -1.10428E+04 -1.67874E+04  1.31037E+02 -1.56594E+04  5.84129E+03 -8.42347E+03  6.01176E+03 -5.31725E+03
  1.88596E+03 -3.03322E+03  4.72077E+03 -3.23054E+03  5.40159E+03 -3.58790E+03  7.69670E+03 -1.20589E+03
  1.00114E+04  1.91016E+03  4.94047E+03  9.43596E+03 -2.51033E+03  1.17611E+04 -1.19453E+04  7.60725E+03
 -1.49519E+04 -2.21912E+03 -1.03140E+04 -9.40987E+03 -1.05573E+03 -1.53521E+04  8.39122E+03 -1.49930E+04
  1.56168E+04 -1.02181E+04  1.94959E+04  1.92183E+03  1.40374E+04  1.41796E+04  1.43974E+03  1.77422E+04
 -8.05101E+03  1.27650E+04 -9.52661E+03  4.52096E+03 -5.65693E+03 -4.28483E+03 -2.03480E+03 -2.85971E+03
 -1.16243E+03 -7.61447E+02 -2.92940E+03  3.76115E+03 -6.76159E+03  2.32501E+03 -1.08685E+04 -2.98203E+03
 -7.21232E+03 -9.14188E+03 -1.81823E+03 -1.56004E+04  9.34474E+03 -1.24023E+04  1.39562E+04 -4.89245E+03
  1.40094E+04  8.34226E+03  4.75612E+03  1.22422E+04 -3.28176E+03  1.42183E+04 -9.60043E+03  7.67578E+03
 -1.53628E+04  2.69638E+02 -1.03981E+04 -8.23735E+03 -1.42738E+03 -1.30411E+04  4.89111E+03 -8.73858E+03
  9.44420E+03 -2.66823E+03  6.40017E+03  4.10202E+03  2.38282E+03  4.61381E+03  1.95720E+03  1.43108E+03
  2.85801E+03  1.25991E+03  3.46607E+03  8.27658E+02  2.47833E+03  6.34076E+03  2.91204E+03  7.61387E+03
 -2.90606E+03  9.36045E+03 -1.06056E+04  1.13328E+04 -1.60701E+04  3.86949E+03 -1.32599E+04 -5.63196E+03
 -8.52937E+03 -1.49981E+04  7.02703E+02 -1.55537E+04  8.69442E+03 -9.18535E+03  1.07541E+04 -3.29219E+03
  8.17560E+03  6.05853E+03  2.47193E+03  7.67161E+03 -4.63143E+03  5.37102E+03 -7.15107E+03  3.98770E+02
 -3.25235E+03 -5.52880E+03  4.15752E+03 -6.15438E+03  6.60563E+03 -2.99589E+03  6.49764E+03  1.95656E+01
  4.39583E+03  4.53323E+03  1.17162E+03  2.49363E+03 -5.81423E+02  1.38017E+03  3.16313E+03  1.06840E+03
  7.16660E+02 -8.86697E+02  6.88319E+03  2.03738E+03  2.66067E+03  9.20957E+03  1.61186E+02  1.06965E+04
 -5.71833E+03  7.13489E+03 -9.40453E+03  2.10234E+03 -8.27665E+03 -3.56649E+03 -4.31472E+03 -4.98579E+03
  7.13601E+02 -4.55000E+03  3.05187E+03 -3.29155E+03  3.62745E+03  4.14390E+03 -9.18877E+02  3.24960E+03
 -4.32581E+03  2.37486E+03 -8.67198E+03 -3.31777E+03 -4.52070E+03 -7.65562E+03  1.87063E+03 -7.80253E+03
  5.07402E+03 -5.63984E+03  5.29903E+03 -1.73702E+01  4.45822E+03  2.10992E+03  2.37464E+02  6.03566E+03
 -2.27804E+03  1.07611E+03 -2.97340E+03 -1.60223E+03  1.75705E+03 -5.98725E+03  7.00648E+03 -4.91306E+03
  9.71379E+03  1.66226E+02  8.21987E+03  5.20632E+03  2.13258E+03  8.71070E+03 -4.20020E+03  8.72416E+03
 -7.70316E+03  3.98197E+03 -7.17631E+03 -1.63323E+03 -5.28261E+03 -5.26604E+03  1.70395E+03 -4.48871E+03
  5.97614E+03 -3.41034E+03  5.53329E+03  1.76750E+03  2.38157E+03  4.34924E+03 -1.70956E+03  5.67599E+03
 -9.74773E+02  3.28615E+03 -3.68638E+03  2.86347E+03 -1.39427E+02  1.44942E+03 -2.92141E+03  2.26545E+03
 -2.03240E+03  2.50743E+03 -6.72832E+03  4.28160E+03 -9.44557E+03 -1.11017E+02 -1.01775E+04 -5.84242E+03
 -6.42453E+03 -1.25412E+04  2.17950E+03 -1.29269E+04  8.83990E+03 -1.07482E+04  1.38737E+04 -3.54596E+03
  1.33330E+04  3.48444E+03  7.34155E+03  1.01956E+04  9.76014E+02  1.00571E+04 -3.02707E+03  6.55434E+03
 -6.04412E+03  2.32170E+03 -3.39107E+03 -1.24077E+03 -3.74183E+02 -1.81680E+03 -1.41103E+03  9.46664E+02
 -1.37682E+03  2.94186E+02 -2.97683E+03 -2.69766E+02 -2.25097E+03 -1.75676E+03  1.45907E+03 -2.45446E+03
  5.11417E+03 -3.62850E+03  3.94069E+03 -3.08046E+02  6.29552E+03  5.26414E+03  3.29171E+03  8.54068E+03
 -3.49192E+03  9.86780E+03 -9.98254E+03  6.47020E+03 -1.20021E+04 -1.87069E+03 -7.69974E+03 -7.27808E+03
 -4.48206E+03 -9.76350E+03  3.12249E+03 -7.61617E+03  7.05091E+03 -4.51132E+03  5.63420E+03 -5.03126E+02
  4.88488E+03  3.42185E+03 -2.39001E+02  2.26180E+03 -7.58217E+02  7.11472E+01 -3.41177E+02 -9.33252E+02
  3.53419E+03 -1.73450E+03  2.10288E+03  2.74376E+03  2.45117E+03  5.44960E+03  7.53134E+02  5.71945E+03
 -4.21326E+03  4.68109E+03 -5.85453E+03 -7.32260E+02 -5.30276E+03 -5.28880E+03 -1.20768E+03 -8.00757E+03
  5.72082E+03 -4.75051E+03  8.23705E+03 -2.13647E+03  5.89893E+03  3.16658E+02  5.23042E+03  5.39349E+03
  2.82191E+02  6.46224E+03 -2.11487E+03  4.71053E+03 -5.18191E+03  2.03766E+03 -3.11979E+03  7.85846E+02
 -9.93115E+01 -8.37987E+02 -1.21132E+03  1.61644E+03 -3.63650E+03  8.46844E+02 -5.30293E+03 -1.39007E+03
 -3.47325E+03 -4.68427E+03 -1.24783E+03 -6.72830E+03  2.64707E+03 -7.84338E+03  4.51694E+03 -2.98471E+03
  4.91949E+03  1.38908E+03  4.01672E+03  4.36503E+03 -4.74138E+02  5.94922E+03 -4.45785E+03  3.93252E+03
