 $NMID ID='MM_0lb_SNR200_9hz_g50_12.RAW', FMTDAT='(8E13.5)'
 TRAMP=1., VOLUME=1. $END
  3.08105E+05  2.35647E+02  3.38750E+05  2.48826E+05  8.59492E+04  3.41189E+05 -1.33957E+05  2.52353E+05
 -1.90325E+05  8.36948E+04 -1.12727E+05 -3.33005E+04 -3.18553E+02 -5.09182E+04  5.46514E+04  1.45087E+03
  3.57789E+04  5.29074E+04 -1.71624E+04  7.63262E+04 -6.17004E+04  6.38327E+04 -8.66748E+04  3.22338E+04
 -8.12386E+04 -1.20270E+04 -5.80985E+04 -5.43579E+04 -1.46020E+04 -7.23269E+04  2.71400E+04 -4.73855E+04
  4.18136E+04  3.53203E+03  1.70184E+04  4.74153E+04 -3.43793E+04  4.86636E+04 -6.82522E+04  9.63846E+02
 -5.46617E+04 -5.76570E+04 -6.42817E+03 -8.00488E+04  3.54130E+04 -5.62792E+04  5.00188E+04 -1.81703E+04
  4.45954E+04  1.03169E+04  3.30892E+04  2.66163E+04  1.37894E+04  3.10245E+04 -6.59724E+03  2.74393E+04
 -2.25201E+04  1.19049E+04 -1.75426E+04 -5.55909E+03  6.93611E+03 -6.99031E+03  2.40748E+04  1.21989E+04
  6.75780E+03  3.75956E+04 -3.37293E+04  3.75680E+04 -6.48847E+04  2.15092E+03 -5.76259E+04 -4.25541E+04
 -1.32877E+04 -6.45762E+04  4.22083E+04 -4.69954E+04  6.30225E+04 -2.95247E+03  3.86950E+04  3.42030E+04
 -4.05160E+03  3.81612E+04 -3.20758E+04  1.81754E+04 -3.11052E+04 -4.09972E+03 -2.11343E+04 -1.28907E+04
 -9.39755E+03 -1.55655E+04 -2.13746E+03 -1.89381E+04  9.51612E+03 -2.40884E+04  1.41788E+04 -1.22137E+04
  1.07806E+04  6.50803E+03 -8.86798E+03  1.46851E+04 -2.23712E+04 -6.26839E+03 -9.48871E+03 -3.85622E+04
  2.41774E+04 -4.72070E+04  5.18444E+04 -2.10380E+04  4.76182E+04  2.23227E+04  1.68311E+04  4.79997E+04
 -1.60894E+04  3.65401E+04 -2.84676E+04  2.23093E+03 -1.07732E+04 -2.89237E+04  2.30765E+04 -3.58791E+04
  4.46212E+04 -1.21820E+04  4.05836E+04  2.49909E+04  2.07719E+04  5.14716E+04 -8.68911E+03  5.67873E+04
 -3.50508E+04  3.80663E+04 -4.83054E+04  9.57289E+03 -4.65901E+04 -1.91070E+04 -2.60040E+04 -4.16879E+04
  7.45837E+03 -4.19534E+04  3.31698E+04 -1.69608E+04  3.25398E+04  1.15143E+04  5.86331E+03  2.12384E+04
 -1.40754E+04  1.06595E+04 -9.73905E+03 -7.05717E+03  5.34098E+03 -1.20990E+04  1.67862E+04  5.24652E+03
  1.33274E+04  2.30331E+04 -6.75317E+03  2.69746E+04 -2.32627E+04  1.54359E+04 -3.12212E+04 -4.76359E+03
 -2.56245E+04 -1.81554E+04 -1.13424E+04 -2.33809E+04  6.21723E+03 -2.65251E+04  1.98478E+04 -2.23644E+04
  3.12593E+04 -1.47519E+04  3.88784E+04  6.97141E+03  2.73155E+04  2.48579E+04  5.00539E+03  4.10252E+04
 -1.99323E+04  3.20842E+04 -3.07241E+04  1.29125E+04 -2.29664E+04 -8.87918E+03 -5.53342E+03 -1.36521E+04
  1.30617E+03 -2.81603E+03 -8.27479E+03  9.23126E+03 -1.96643E+04  4.28899E+03 -1.98716E+04 -1.05723E+04
 -1.13743E+04 -2.37500E+04  5.98915E+03 -2.91576E+04  1.90033E+04 -2.02244E+04  2.11858E+04 -2.93015E+03
  1.35318E+04  1.60796E+04 -2.05599E+03  2.25743E+04 -1.60825E+04  1.22841E+04 -2.30159E+04 -4.10956E+03
 -1.65805E+04 -2.15844E+04 -4.77450E+03 -2.79174E+04  1.19266E+04 -2.37383E+04  2.22983E+04 -1.23546E+04
  2.36436E+04 -1.46255E+03  1.55597E+04  6.79339E+03  7.86312E+03  1.60063E+03  1.20722E+04 -2.59646E+03
  2.27174E+04  3.63339E+03  2.56752E+04  1.88480E+04  1.56835E+04  3.71615E+04 -3.53579E+03  4.25179E+04
 -2.54809E+04  3.72271E+04 -4.07451E+04  1.83573E+04 -4.21903E+04 -3.20744E+03 -3.47221E+04 -2.62556E+04
 -1.42429E+04 -3.70324E+04  1.22173E+04 -3.33236E+04  2.68129E+04 -1.46892E+04  2.51635E+04  9.63760E+03
  7.75239E+03  1.94836E+04 -1.11619E+04  1.49042E+04 -2.16715E+04  1.98212E+03 -1.50226E+04 -1.32744E+04
  4.39224E+02 -1.82303E+04  1.10900E+04 -1.50730E+04  1.38520E+04 -2.15086E+03  4.56443E+03  8.51115E+03
 -8.29136E+03  5.69092E+03 -1.02914E+04 -7.49552E+03 -6.52384E+02 -1.85819E+04  1.16228E+04 -2.00081E+04
  2.27724E+04 -1.03476E+04  2.41353E+04  3.14755E+03  2.22789E+04  1.80476E+04  9.77621E+03  2.85920E+04
 -6.70235E+03  3.18096E+04 -2.01771E+04  1.81199E+04 -2.23650E+04  4.18806E+03 -1.61810E+04 -6.22830E+03
 -6.17183E+03 -7.91265E+03  1.55725E+03  1.73429E+03 -4.14691E+03  2.29841E+03 -8.74448E+03  6.59929E+03
 -1.31768E+04 -9.71954E+02 -1.44296E+04 -1.18561E+04 -4.23469E+03 -2.14009E+04  6.51561E+03 -1.55647E+04
  1.31788E+04 -7.05303E+03  9.40831E+03  4.97514E+03 -7.67169E+02  6.54106E+03 -8.85351E+03  6.89569E+02
 -7.95570E+03 -1.06207E+04 -2.05548E+03 -1.81246E+04  9.32853E+03 -1.54007E+04  1.92402E+04 -1.03675E+04
  2.34347E+04  2.84811E+03  1.66843E+04  1.43666E+04  3.11205E+03  1.93986E+04 -9.95133E+03  1.63017E+04
 -1.33503E+04  3.61635E+03 -6.11796E+03 -2.20092E+03  7.88022E+02 -3.48246E+03  9.02176E+03  3.27411E+02
  7.83663E+03  6.97501E+03  1.05369E+03  1.37189E+04 -1.00432E+04  1.15480E+04 -1.45546E+04  3.13812E+03
 -9.56169E+03 -8.97008E+03  4.01045E+02 -1.34961E+04  9.58113E+03 -6.86854E+03  1.07286E+04  3.21627E+03
  1.43900E+03  1.10581E+04 -8.28705E+03  1.05242E+04 -1.18775E+04  5.27937E+03 -1.35788E+04 -4.98476E+03
 -8.62947E+03 -1.63732E+04  4.44340E+03 -1.83766E+04  1.66952E+04 -1.12583E+04  1.77352E+04  2.73891E+03
  1.07771E+04  1.51862E+04 -2.01717E+03  1.52985E+04 -1.10055E+04  8.67215E+03 -1.33149E+04 -1.67335E+03
 -1.09910E+04 -1.01235E+04 -2.01786E+03 -1.08938E+04  7.97610E+03 -1.02294E+04  8.12505E+03 -2.33917E+03
  5.63138E+03  3.26466E+03 -7.21875E+02  1.68149E+03 -1.22958E+02 -4.28376E+03  3.01155E+03 -9.19116E+03
  1.24619E+04 -4.40108E+03  1.41569E+04  1.73137E+03  1.59011E+04  1.15429E+04  1.02667E+04  2.09690E+04
 -3.00245E+03  2.49666E+04 -2.00781E+04  1.96632E+04 -2.62391E+04  4.97929E+03 -2.11416E+04 -9.93759E+03
 -1.16663E+04 -1.66643E+04  2.11076E+02 -1.52578E+04  3.75581E+03 -7.74616E+03  5.66300E+03 -4.82174E+03
  2.23608E+03 -2.94007E+03  3.62154E+03 -4.83160E+03  6.73948E+03 -4.80045E+03  8.66586E+03 -1.53524E+03
  1.12740E+04  2.74150E+03  6.98518E+03  9.33575E+03 -1.62246E+03  1.15922E+04 -1.14129E+04  8.67807E+03
 -1.54628E+04 -2.39411E+03 -8.51048E+03 -9.69699E+03 -1.22526E+03 -1.63120E+04  8.64173E+03 -1.44630E+04
  1.47777E+04 -7.61194E+03  1.98118E+04  3.64300E+03  1.36553E+04  1.34574E+04  2.57377E+03  1.77150E+04
 -6.60034E+03  1.47720E+04 -8.73698E+03  6.68619E+03 -7.56832E+03 -2.47096E+03 -2.45022E+03 -1.77419E+03
 -8.25415E+02 -1.63270E+02 -2.40411E+03  2.52870E+03 -6.57140E+03  4.21691E+03 -9.89629E+03 -1.02458E+03
 -7.03312E+03 -9.95263E+03 -1.35653E+02 -1.50238E+04  1.02920E+04 -1.26239E+04  1.50446E+04 -4.78539E+03
  1.37990E+04  7.84991E+03  6.85559E+03  1.57620E+04 -2.17691E+03  1.58048E+04 -1.08320E+04  8.51811E+03
 -1.48589E+04  2.88606E+03 -1.11936E+04 -9.22882E+03 -6.30809E+02 -1.35228E+04  6.94152E+03 -8.46423E+03
  9.36769E+03 -3.06278E+03  7.86398E+03  3.59139E+03  2.11582E+03  3.73150E+03  6.06019E+02  2.22230E+03
  1.95810E+03  3.49566E+03  5.27976E+03  3.70066E+03  4.24062E+03  6.45969E+03  4.79335E+03  8.51357E+03
 -2.64298E+03  1.13453E+04 -1.14222E+04  1.21338E+04 -1.60152E+04  1.08275E+03 -1.62126E+04 -7.41526E+03
 -8.43796E+03 -1.47011E+04  2.63441E+03 -1.74288E+04  9.24442E+03 -1.07504E+04  1.26377E+04 -2.00929E+03
  1.03843E+04  5.95744E+03  2.88089E+03  8.50952E+03 -3.26374E+03  4.77506E+03 -5.57923E+03 -2.34125E+02
 -3.51560E+03 -4.99022E+03  2.69471E+03 -7.09073E+03  6.56615E+03 -3.05764E+03  5.30677E+03  1.99100E+03
  6.30765E+03  2.24206E+03  1.91595E+03  2.88454E+03 -7.77400E+02  1.81992E+03  6.20388E+02 -3.27344E+02
  2.86058E+03 -3.32388E+03  5.92742E+03  2.22494E+03  3.91825E+03  8.04713E+03  2.39876E+02  1.09116E+04
 -6.79008E+03  7.82001E+03 -1.09087E+04  1.11298E+03 -7.09259E+03 -3.59616E+03 -4.16331E+03 -7.07735E+03
  6.21752E+02 -5.58871E+03  2.02224E+03 -3.68666E+03  3.23966E+03  3.97873E+03 -2.16488E+03  4.57973E+03
 -5.32972E+03  2.45881E+03 -6.47143E+03 -5.03430E+03 -3.23808E+03 -8.36982E+03  1.17322E+03 -9.16282E+03
  4.79194E+03 -6.15088E+03  5.23239E+03 -4.86427E+01  4.61010E+03  1.72079E+03  2.38220E+02  3.96827E+03
 -2.83684E+03  6.26865E+01 -4.06485E+03 -4.17981E+02  4.44067E+02 -6.04413E+03  9.46815E+03 -5.79307E+03
  9.81866E+03  7.42460E+02  8.69028E+03  6.02746E+03  4.87590E+03  1.09072E+04 -4.03865E+03  9.73663E+03
 -8.47425E+03  4.46028E+03 -7.46393E+03 -2.27069E+03 -5.84035E+03 -5.77230E+03  1.54834E+03 -5.44516E+03
  6.54543E+03 -3.54398E+03  4.24475E+03  4.47095E+03 -1.91859E+02  5.47821E+03 -1.48557E+03  3.86959E+03
 -2.96472E+03  4.00916E+03 -2.65177E+03 -1.48319E+02 -2.47498E+03  1.10190E+03 -1.74564E+03  1.52124E+03
 -2.48872E+03  4.31144E+03 -7.08714E+03  3.65966E+03 -1.00311E+04  1.25657E+02 -1.23289E+04 -6.87366E+03
 -8.18233E+03 -1.16967E+04  3.68583E+03 -1.64993E+04  8.63795E+03 -1.05569E+04  1.50223E+04 -5.16403E+03
  1.34905E+04  1.41462E+03  1.03794E+04  9.32221E+03  1.28085E+03  1.05331E+04 -5.60473E+03  7.36105E+03
 -6.73291E+03  3.13931E+03 -4.95835E+03 -7.97233E+02 -2.87811E+03 -1.74720E+03 -1.91129E+02  5.03720E+02
 -1.45701E+03 -2.08299E+02 -2.06961E+03 -1.82853E+03  3.40670E+02 -2.69322E+03  3.10812E+02 -4.27311E+03
  4.66333E+03 -3.68841E+03  5.62153E+03  6.77321E+02  7.48604E+03  5.96394E+03  2.37522E+03  9.93447E+03
 -5.72329E+03  1.29846E+04 -9.19343E+03  8.08899E+03 -1.29213E+04 -8.49773E+02 -9.96340E+03 -8.87792E+03
 -4.03558E+03 -1.03188E+04  2.55718E+03 -9.84629E+03  7.03871E+03 -5.70589E+03  7.41196E+03  4.26468E+02
  2.22655E+03  2.42956E+03 -3.89719E+02  3.10435E+03 -3.44413E+01 -4.71159E+02 -5.46548E+02 -3.93539E+03
  3.52785E+03 -1.55078E+02  4.30091E+03  2.23755E+02  2.03211E+03  5.87082E+03 -5.08115E+02  5.63395E+03
 -5.44058E+03  4.91989E+03 -9.05503E+03 -7.57880E+02 -7.84473E+03 -3.51650E+03 -7.23446E+02 -9.76925E+03
  4.35946E+03 -6.80495E+03  8.25163E+03 -2.24859E+03  8.26907E+03  2.16334E+03  5.92436E+03  7.27394E+03
  1.62706E+03  6.40427E+03 -1.63393E+03  4.02324E+03 -4.76347E+03  1.49414E+03 -4.43403E+03  1.58076E+02
 -2.71782E+03 -1.52611E+03  6.32638E+01  2.10599E+03 -3.28810E+03  3.57862E+02 -6.27347E+03  3.58865E+02
 -6.22853E+03 -5.07970E+03 -3.06262E+03 -7.22379E+03  3.45957E+03 -6.70289E+03  4.53748E+03 -3.13031E+03
  6.86978E+03  7.19072E+02  4.61693E+03  4.43939E+03 -2.79331E+02  6.18901E+03 -6.68410E+03  4.15270E+03
