 $NMID ID='MM_0lb_SNR200_8hz_g55_53.RAW', FMTDAT='(8E13.5)'
 TRAMP=1., VOLUME=1. $END
  3.09670E+05  4.40563E+02  3.38351E+05  2.51061E+05  8.54839E+04  3.39303E+05 -1.32373E+05  2.52896E+05
 -1.91910E+05  8.51393E+04 -1.13353E+05 -3.19557E+04 -7.83812E+02 -5.14830E+04  5.45591E+04 -2.02678E+03
  3.57765E+04  5.45066E+04 -1.78115E+04  7.60606E+04 -6.11392E+04  6.39918E+04 -8.67735E+04  3.13239E+04
 -8.16402E+04 -1.19155E+04 -5.98876E+04 -5.51456E+04 -1.43209E+04 -6.95272E+04  2.94762E+04 -4.56586E+04
  3.92488E+04  5.82276E+03  1.53566E+04  4.90645E+04 -3.33608E+04  4.72171E+04 -6.71981E+04  1.44067E+03
 -5.47744E+04 -5.73809E+04 -8.02685E+03 -7.88109E+04  3.66040E+04 -5.81795E+04  5.01083E+04 -1.82622E+04
  4.64331E+04  1.10234E+04  3.18415E+04  2.55537E+04  1.54385E+04  3.06390E+04 -7.12075E+03  2.77581E+04
 -2.35722E+04  1.15766E+04 -1.91295E+04 -3.68671E+03  8.33418E+03 -7.10438E+03  2.37450E+04  1.31402E+04
  6.37069E+03  3.68029E+04 -3.33079E+04  3.64536E+04 -6.51597E+04  2.72275E+03 -6.06605E+04 -4.53253E+04
 -1.27671E+04 -6.66114E+04  4.24560E+04 -4.63480E+04  6.28349E+04 -2.31725E+03  3.74365E+04  3.49376E+04
 -6.05192E+03  4.13949E+04 -3.26524E+04  1.78363E+04 -3.36638E+04 -3.25340E+03 -1.94505E+04 -1.27455E+04
 -9.94211E+03 -1.65551E+04 -9.47493E+02 -1.81177E+04  9.22344E+03 -2.29894E+04  1.46607E+04 -1.45707E+04
  9.10842E+03  7.45555E+03 -9.59984E+03  1.31958E+04 -2.59452E+04 -6.88299E+03 -1.01511E+04 -3.69639E+04
  2.63021E+04 -4.78173E+04  5.30773E+04 -2.24097E+04  4.94164E+04  2.03873E+04  1.72947E+04  4.67052E+04
 -1.70924E+04  3.76916E+04 -2.72353E+04  2.92986E+03 -1.10512E+04 -2.89994E+04  1.94644E+04 -3.65404E+04
  4.48952E+04 -1.20261E+04  4.24298E+04  2.65102E+04  2.32387E+04  5.24713E+04 -7.95109E+03  5.82637E+04
 -3.64651E+04  3.94022E+04 -4.95215E+04  1.23742E+04 -4.98987E+04 -1.89918E+04 -2.54740E+04 -4.46099E+04
  9.01610E+03 -4.29580E+04  3.53505E+04 -1.83223E+04  3.38609E+04  1.14373E+04  6.45630E+03  2.19660E+04
 -1.45978E+04  1.05499E+04 -1.08478E+04 -5.99006E+03  6.04325E+03 -1.31466E+04  2.05660E+04  3.78636E+03
  1.56173E+04  2.32277E+04 -4.80758E+03  2.90709E+04 -2.41678E+04  1.61828E+04 -3.30953E+04 -2.00243E+03
 -2.62083E+04 -1.85053E+04 -1.22261E+04 -2.74021E+04  3.63342E+03 -2.74480E+04  2.08048E+04 -2.44498E+04
  3.37012E+04 -1.37919E+04  3.91550E+04  5.73001E+03  2.88735E+04  2.69469E+04  3.94119E+03  4.21805E+04
 -2.15510E+04  3.43540E+04 -2.97722E+04  1.35926E+04 -2.30405E+04 -1.17788E+04 -3.78280E+03 -1.29669E+04
  4.82378E+02 -8.69570E+02 -7.63372E+03  8.88277E+03 -1.84758E+04  4.83439E+03 -2.13664E+04 -9.04544E+03
 -1.23609E+04 -2.35334E+04  7.32823E+03 -2.83776E+04  1.96630E+04 -2.16692E+04  2.39105E+04 -1.60154E+03
  1.53167E+04  1.78520E+04 -1.45965E+03  2.66004E+04 -1.84075E+04  1.35994E+04 -2.58072E+04 -5.75656E+03
 -1.71636E+04 -2.11644E+04 -2.00034E+03 -3.08371E+04  1.45872E+04 -2.52179E+04  2.51712E+04 -1.19837E+04
  2.30881E+04 -1.02197E+03  1.72156E+04  4.08772E+03  8.66970E+03  1.21398E+03  1.17950E+04 -1.47536E+03
  2.16233E+04  3.16336E+03  3.04315E+04  2.05754E+04  1.80537E+04  3.97324E+04 -3.80666E+03  4.69134E+04
 -2.72572E+04  3.91272E+04 -4.45419E+04  2.06075E+04 -4.84963E+04 -2.65829E+03 -3.86472E+04 -2.82515E+04
 -1.60202E+04 -4.13308E+04  1.39687E+04 -3.63175E+04  3.05127E+04 -1.65331E+04  2.70499E+04  8.17262E+03
  7.50499E+03  2.04297E+04 -1.21112E+04  1.70948E+04 -2.14783E+04  3.17510E+03 -1.53031E+04 -1.39391E+04
  3.18420E+02 -2.06961E+04  1.15211E+04 -1.64453E+04  1.42146E+04 -2.05444E+03  3.85922E+03  7.95786E+03
 -9.53613E+03  2.61198E+03 -1.09810E+04 -6.87722E+03 -2.25874E+03 -1.87060E+04  1.50917E+04 -2.08992E+04
  2.45329E+04 -1.20550E+04  2.90157E+04  2.67983E+03  2.61888E+04  2.16299E+04  1.14031E+04  3.23806E+04
 -5.34738E+03  3.33760E+04 -2.24942E+04  2.08580E+04 -2.59396E+04  2.33646E+03 -1.79296E+04 -4.81550E+03
 -7.31535E+03 -8.15551E+03 -2.33117E+03  1.25825E+03 -2.78668E+03  3.33364E+03 -8.74885E+03  5.89665E+03
 -1.50795E+04 -6.95226E+02 -1.51991E+04 -1.26652E+04 -5.36236E+03 -1.83157E+04  6.22878E+03 -1.57682E+04
  1.44023E+04 -8.59006E+03  9.31664E+03  4.62525E+03  6.24614E+02  7.17364E+03 -9.00282E+03 -1.58729E+03
 -8.31121E+03 -1.10526E+04 -2.76655E+03 -1.84931E+04  9.63747E+03 -1.63400E+04  2.13516E+04 -8.50825E+03
  2.66315E+04  3.21069E+03  1.89246E+04  1.42031E+04  3.65530E+03  2.14185E+04 -8.75505E+03  1.71738E+04
 -1.39441E+04  5.29576E+03 -7.21122E+03 -3.73127E+03  3.27999E+03 -4.48164E+03  8.87669E+03 -5.47973E+02
  8.46359E+03  8.71810E+03  2.33100E+03  1.25082E+04 -1.09786E+04  1.24834E+04 -1.71259E+04  3.71775E+03
 -1.17066E+04 -9.90057E+03 -3.08609E+02 -1.53031E+04  9.77397E+03 -8.75124E+03  1.04235E+04  3.75450E+03
  3.48749E+03  1.10247E+04 -9.40091E+03  1.23121E+04 -1.34157E+04  5.79639E+03 -1.70687E+04 -4.60336E+03
 -7.78710E+03 -1.61322E+04  5.22288E+03 -1.99899E+04  1.50246E+04 -1.11968E+04  2.03786E+04  4.61864E+03
  1.21420E+04  1.33871E+04 -8.56562E+02  1.77644E+04 -1.50165E+04  1.03062E+04 -1.53729E+04 -1.45605E+03
 -1.10327E+04 -1.12041E+04 -1.29091E+03 -1.38677E+04  7.34563E+03 -1.16809E+04  8.09593E+03 -3.70179E+03
  5.00158E+03  2.47857E+03 -1.23753E+03  1.18827E+03 -1.19954E+02 -4.72277E+03  3.25943E+03 -8.41343E+03
  1.20843E+04 -6.03877E+03  1.96142E+04  1.68638E+03  1.64392E+04  1.28942E+04  1.15726E+04  2.37921E+04
 -5.72331E+03  2.76269E+04 -2.19432E+04  2.15343E+04 -3.01628E+04  3.84475E+03 -2.18548E+04 -1.00528E+04
 -1.19217E+04 -1.90268E+04 -1.45935E+03 -1.59666E+04  6.18791E+03 -1.00333E+04  6.11515E+03 -5.26544E+03
  5.40910E+03 -4.44295E+03  3.49983E+03 -2.30343E+03  5.36064E+03 -5.02235E+03  9.11609E+03 -2.26175E+03
  1.27193E+04  2.20017E+03  6.78320E+03  1.11553E+04 -3.44265E+03  1.30702E+04 -1.24365E+04  8.82034E+03
 -1.78231E+04 -1.44642E+03 -1.12668E+04 -1.21283E+04 -8.15721E+02 -1.71232E+04  1.01983E+04 -1.91992E+04
  1.87058E+04 -1.00815E+04  2.31781E+04  3.96002E+03  1.52298E+04  1.51854E+04  1.34874E+03  1.99759E+04
 -8.66052E+03  1.69402E+04 -1.21555E+04  5.68825E+03 -7.91535E+03 -9.76862E+02 -4.87291E+03 -4.32063E+02
 -2.29967E+03  2.95638E+02 -1.04126E+03  4.09156E+03 -7.48503E+03  4.05233E+03 -1.04567E+04 -9.39475E+02
 -6.20956E+03 -1.07399E+04  1.32456E+03 -1.48145E+04  9.72122E+03 -1.62079E+04  1.73633E+04 -4.92169E+03
  1.83011E+04  6.23446E+03  7.25664E+03  1.60568E+04 -3.14541E+03  1.70259E+04 -1.24146E+04  1.10541E+04
 -1.77026E+04  1.16027E+03 -1.09959E+04 -1.08464E+04 -2.19397E+03 -1.50845E+04  7.63889E+03 -1.04833E+04
  1.26633E+04 -2.62207E+03  6.59470E+03  1.25855E+03  4.48534E+03  5.53591E+03  2.20420E+03  4.46983E+03
  1.77141E+03  1.89426E+03  3.32214E+03  2.15818E+03  4.15103E+03  8.75808E+03  5.43842E+03  8.60353E+03
 -4.16197E+03  1.44374E+04 -1.26365E+04  1.60814E+04 -1.73964E+04  4.26056E+03 -2.00784E+04 -6.26041E+03
 -9.29580E+03 -1.75105E+04  1.60456E+03 -1.81109E+04  1.02753E+04 -1.24557E+04  1.60619E+04 -3.43851E+03
  1.11964E+04  6.44001E+03  2.36616E+03  1.10924E+04 -4.82093E+03  5.59875E+03 -8.07447E+03 -5.44856E+02
 -2.28098E+03 -8.31852E+03  3.24635E+03 -9.66633E+03  8.73262E+03 -3.92890E+03  6.67240E+03  6.03083E+02
  3.91455E+03  4.23505E+03  5.65268E+02  1.78804E+03 -1.23793E+02  1.77026E+03  3.84818E+03 -5.17138E+02
  2.35285E+03 -1.07594E+02  7.13234E+03  3.12764E+03  5.89804E+03  1.02252E+04 -7.76293E+02  1.32694E+04
 -7.87381E+03  7.46514E+03 -1.21851E+04  1.49694E+03 -9.31864E+03 -3.08556E+03 -2.45392E+03 -7.45946E+03
  1.28759E+03 -7.78321E+03  2.40099E+03 -3.42136E+03  6.13450E+03  3.09155E+03  1.73672E+02  6.98911E+03
 -7.16771E+03  4.75384E+03 -9.41818E+03 -4.19592E+03 -6.06139E+03 -1.03639E+04  4.23261E+02 -9.33840E+03
  5.13310E+03 -5.77074E+03  5.66812E+03 -1.40191E+03  5.88119E+03  3.74076E+03  2.27696E+03  6.86941E+03
 -4.81272E+03  2.64166E+03 -5.21717E+03 -4.80274E+03  2.17214E+03 -5.95059E+03  9.97140E+03 -5.99458E+03
  1.15036E+04 -1.69834E+02  1.11302E+04  9.14114E+03  2.28763E+03  1.29978E+04 -5.73150E+03  1.07034E+04
 -1.09614E+04  4.42900E+03 -9.13433E+03 -1.16017E+03 -6.04044E+03 -7.28432E+03  1.96271E+03 -8.27557E+03
  6.65569E+03 -5.00491E+03  5.51079E+03  3.18271E+03  1.75721E+03  6.08954E+03 -1.52238E+03  4.53661E+03
 -2.62299E+03  2.95018E+03 -9.56845E+02  6.67066E+02 -5.54247E+02  7.80166E+02 -1.40076E+03  3.18451E+03
 -3.71539E+03  5.99053E+03 -8.08748E+03  4.92413E+03 -1.11862E+04 -4.37687E+02 -1.37486E+04 -8.53619E+03
 -4.51130E+03 -1.61994E+04  4.58149E+03 -1.72089E+04  1.13132E+04 -1.53408E+04  1.70626E+04 -4.86867E+03
  1.46491E+04  2.54826E+03  1.13305E+04  1.11884E+04  6.82219E+02  1.25265E+04 -6.35893E+03  1.07023E+04
 -8.01541E+03  4.29210E+03 -3.86782E+03 -1.60903E+03 -1.73607E+03 -2.13265E+03  2.70502E+02 -9.75578E+02
 -4.53232E+03 -4.74626E+02 -1.79459E+03 -1.87090E+03 -2.40717E+03 -3.47130E+03 -1.09335E+03 -5.86467E+03
  5.23187E+03 -4.82040E+03  1.01953E+04 -9.09593E+02  8.36690E+03  6.00930E+03  2.46190E+03  1.30598E+04
 -6.34719E+03  1.22967E+04 -1.35203E+04  8.38601E+03 -1.58503E+04 -1.52336E+03 -1.14977E+04 -9.43071E+03
 -5.72842E+03 -1.38896E+04  2.12154E+03 -1.26403E+04  8.41285E+03 -6.66049E+03  9.39750E+03 -7.59296E+01
  4.68504E+03  5.46044E+03  3.96493E+02  3.48446E+03 -1.90345E+03  3.53416E+02  9.09638E+02 -2.33386E+03
  4.12602E+03 -1.10938E+03  5.63232E+03  4.45966E+02  4.57529E+03  6.30038E+03 -2.68741E+02  5.98358E+03
 -5.20849E+03  6.52056E+03 -8.65582E+03  1.35035E+03 -5.05005E+03 -7.50186E+03 -1.60399E+03 -1.09386E+04
  7.38207E+03 -9.71807E+03  1.11972E+04 -3.16545E+03  1.18092E+04  2.42907E+03  6.52378E+03  7.24146E+03
  1.64101E+03  9.09578E+03 -4.25161E+03  6.91632E+03 -6.28883E+03  3.49158E+03 -3.14085E+03 -4.11647E+02
 -1.67765E+03  1.02116E+03 -3.11577E+03 -3.60179E+02 -5.02408E+03  2.11365E+02 -7.63700E+03 -1.03529E+03
 -6.16792E+03 -5.72553E+03 -1.45353E+03 -8.96692E+03  4.03401E+03 -9.17690E+03  8.50056E+03 -4.82502E+03
  7.74573E+03  2.07343E+03  5.36051E+03  4.70899E+03 -5.16430E+02  8.53843E+03 -6.36749E+03  4.88894E+03
