 $NMID ID='MM_0lb_SNR200_13hz_g45_95.RAW', FMTDAT='(8E13.5)'
 TRAMP=1., VOLUME=1. $END
  3.09967E+05  2.33729E+02  3.38018E+05  2.51618E+05  8.46497E+04  3.38204E+05 -1.31946E+05  2.50393E+05
 -1.88093E+05  8.21033E+04 -1.11095E+05 -3.29514E+04  9.95053E+02 -5.14494E+04  5.19573E+04 -4.38549E+02
  3.48023E+04  5.32066E+04 -1.70544E+04  7.53948E+04 -6.02212E+04  6.34905E+04 -8.46584E+04  3.22179E+04
 -8.12062E+04 -1.16485E+04 -5.80550E+04 -5.15305E+04 -1.61048E+04 -6.97565E+04  2.83581E+04 -4.64305E+04
  3.91663E+04  4.41920E+03  1.67337E+04  4.91446E+04 -3.49931E+04  4.70050E+04 -6.78323E+04 -2.21322E+02
 -5.29350E+04 -5.67411E+04 -5.98417E+03 -7.67802E+04  3.43520E+04 -5.39973E+04  4.94511E+04 -1.77959E+04
  4.35541E+04  1.12880E+04  3.15283E+04  2.59128E+04  1.51383E+04  2.87295E+04 -4.32154E+03  2.65695E+04
 -2.20663E+04  1.23665E+04 -1.87342E+04 -4.63621E+03  6.60251E+03 -8.24143E+03  2.18218E+04  1.14987E+04
  7.00721E+03  3.51993E+04 -3.14819E+04  3.53341E+04 -6.38094E+04  2.99700E+03 -5.76881E+04 -4.39765E+04
 -1.24902E+04 -6.35309E+04  4.03573E+04 -4.42046E+04  5.91594E+04 -1.82677E+03  3.56312E+04  3.20012E+04
 -6.97296E+03  3.59986E+04 -3.04386E+04  1.60667E+04 -3.18074E+04 -4.37765E+03 -1.64758E+04 -1.18547E+04
 -8.20519E+03 -1.38870E+04 -3.00937E+02 -1.79967E+04  8.05218E+03 -2.17056E+04  1.61080E+04 -1.25058E+04
  1.10427E+04  5.37061E+03 -1.08158E+04  1.29486E+04 -2.15723E+04 -4.07096E+03 -9.25550E+03 -3.41033E+04
  2.44533E+04 -4.34496E+04  4.86644E+04 -2.05709E+04  4.45778E+04  1.92788E+04  1.67725E+04  4.49444E+04
 -1.66880E+04  3.45556E+04 -2.62157E+04  1.51989E+03 -8.72048E+03 -2.98714E+04  2.08125E+04 -3.46848E+04
  4.08308E+04 -9.05407E+03  3.66644E+04  2.33292E+04  1.95177E+04  4.77471E+04 -1.05140E+04  5.00931E+04
 -3.22730E+04  3.47616E+04 -4.16773E+04  9.77025E+03 -4.28791E+04 -1.50772E+04 -2.39502E+04 -3.72649E+04
  6.51687E+03 -3.82015E+04  3.08886E+04 -1.42012E+04  2.92370E+04  1.19833E+04  3.31152E+03  1.98580E+04
 -1.35304E+04  9.24369E+03 -1.02971E+04 -8.15851E+03  5.23961E+03 -1.23759E+04  1.88751E+04  5.60604E+03
  1.27807E+04  2.24173E+04 -5.05848E+03  2.46479E+04 -2.22596E+04  1.18691E+04 -2.82927E+04 -4.59094E+03
 -2.11171E+04 -1.80675E+04 -8.58502E+03 -2.22994E+04  4.51397E+03 -1.88919E+04  1.55544E+04 -1.90467E+04
  2.73597E+04 -1.28300E+04  3.37802E+04  3.53996E+03  2.47443E+04  1.99469E+04  4.39328E+03  3.67366E+04
 -1.74663E+04  2.97126E+04 -2.77681E+04  9.53777E+03 -2.18299E+04 -1.07706E+04 -3.91657E+03 -1.28250E+04
  8.17986E+02 -2.90283E+03 -5.85542E+03  6.42600E+03 -1.59563E+04  7.10584E+03 -1.70516E+04 -7.43475E+03
 -9.80236E+03 -2.00925E+04  4.31207E+03 -2.35846E+04  1.40153E+04 -1.59329E+04  1.76530E+04 -1.18283E+03
  1.18372E+04  1.34034E+04 -4.45536E+02  2.00843E+04 -1.28870E+04  1.19644E+04 -2.00675E+04 -3.00448E+03
 -1.33089E+04 -1.69941E+04 -2.15193E+03 -2.33414E+04  9.74196E+03 -1.85189E+04  2.02419E+04 -9.98405E+03
  1.82747E+04  3.14565E+01  1.30702E+04  4.68036E+03  6.87729E+03  8.62779E+02  8.58214E+03 -2.08520E+03
  1.84477E+04  3.53113E+03  2.14518E+04  1.60455E+04  1.32871E+04  3.02135E+04 -2.57568E+03  3.49085E+04
 -2.15212E+04  2.95649E+04 -3.33394E+04  1.41166E+04 -3.39222E+04 -3.17050E+03 -2.94086E+04 -2.03777E+04
 -1.23361E+04 -2.88476E+04  9.89206E+03 -2.44886E+04  2.22114E+04 -1.37445E+04  2.02900E+04  6.24940E+03
  6.88249E+03  1.47008E+04 -9.27858E+03  1.39755E+04 -1.72979E+04  2.77659E+03 -1.42720E+04 -1.00908E+04
 -4.10337E+02 -1.56650E+04  7.91554E+03 -1.21136E+04  1.15198E+04 -9.46604E+02  2.90609E+03  6.54482E+03
 -7.62498E+03  3.17010E+03 -6.37809E+03 -6.40601E+03 -8.75825E+00 -1.40413E+04  9.37830E+03 -1.47035E+04
  1.80654E+04 -7.54196E+03  2.06382E+04  3.45209E+03  1.81170E+04  1.34644E+04  7.01770E+03  2.17434E+04
 -1.88488E+03  2.27936E+04 -1.55666E+04  1.47782E+04 -1.53286E+04  3.56267E+03 -1.19066E+04 -4.56319E+03
 -6.00154E+03 -5.85708E+03  2.92215E+02  1.57927E+03 -3.50334E+03  3.28475E+03 -6.17658E+03  4.71862E+03
 -1.19230E+04 -7.75870E+02 -1.28748E+04 -1.04430E+04 -4.23344E+03 -1.49523E+04  4.45587E+03 -1.20902E+04
  9.97246E+03 -5.62504E+03  6.30725E+03  2.69038E+03  3.73905E+01  5.26239E+03 -5.86885E+03 -4.72923E+02
 -4.21837E+03 -8.73333E+03 -1.40061E+03 -1.17663E+04  5.26394E+03 -1.27581E+04  1.45450E+04 -7.18127E+03
  1.70807E+04  2.10195E+03  1.28092E+04  1.01502E+04  3.37215E+03  1.26987E+04 -6.04551E+03  1.05876E+04
 -8.30846E+03  3.15539E+03 -6.13623E+03 -1.71214E+03  1.66872E+03 -2.06244E+03  7.05186E+03  3.64356E+02
  6.27371E+03  5.34143E+03  1.50952E+03  9.09202E+03 -7.68126E+03  8.96816E+03 -1.19744E+04  2.68635E+03
 -7.75963E+03 -5.73210E+03 -8.31811E+02 -1.03609E+04  6.30998E+03 -5.78524E+03  6.18217E+03  1.63794E+03
  1.34169E+03  6.46167E+03 -5.48293E+03  8.21890E+03 -7.80164E+03  3.67306E+03 -8.25248E+03 -2.71635E+03
 -5.32050E+03 -1.04785E+04  1.89786E+03 -1.25573E+04  9.33140E+03 -6.85694E+03  1.19169E+04  6.44484E+02
  6.78772E+03  8.64620E+03 -1.13209E+03  1.04794E+04 -7.67643E+03  5.70971E+03 -8.35537E+03 -1.28640E+03
 -7.45299E+03 -7.13581E+03 -3.25339E+03 -7.93979E+03  3.52501E+03 -8.29519E+03  5.75326E+03 -3.53225E+03
  3.45477E+03  1.13915E+03 -8.00950E+02  1.95267E+03 -5.64646E+02 -1.47890E+03  9.89310E+02 -5.43876E+03
  8.30905E+03 -3.90222E+03  1.11023E+04  1.21604E+03  1.04861E+04  7.38683E+03  7.53187E+03  1.39271E+04
 -2.15999E+03  1.60009E+04 -1.39572E+04  1.19355E+04 -1.62518E+04  3.21550E+03 -1.32912E+04 -5.45979E+03
 -6.81197E+03 -1.23793E+04 -3.43578E+02 -9.37579E+03  2.64675E+03 -5.24302E+03  3.40661E+03 -3.53810E+03
  2.49334E+03 -2.22693E+03  1.47206E+03 -2.03097E+03  5.21739E+03 -1.29561E+03  4.06048E+03 -3.56733E+02
  7.09470E+03  2.02788E+03  3.48456E+03  5.16029E+03 -2.23144E+03  6.64655E+03 -6.45134E+03  5.56111E+03
 -8.55672E+03 -1.56824E+03 -5.29467E+03 -6.82939E+03 -1.88135E+03 -1.07129E+04  6.05832E+03 -9.08012E+03
  9.75702E+03 -5.19948E+03  1.20290E+04  8.60024E+02  9.21817E+03  9.18859E+03  4.40256E+02  1.08053E+04
 -4.30767E+03  1.03493E+04 -6.60894E+03  2.31431E+03 -3.55183E+03 -1.09978E+03 -1.05499E+03 -1.33570E+03
 -1.75177E+03  5.51363E+02 -2.52548E+03  2.51783E+03 -2.65010E+03  1.71341E+03 -7.33485E+03 -1.48972E+03
 -3.10035E+03 -6.21982E+03  5.89880E+02 -9.50387E+03  6.35295E+03 -9.29608E+03  9.81568E+03 -2.83158E+03
  8.07161E+03  4.17209E+03  4.06101E+03  7.53675E+03 -5.71834E+02  8.66648E+03 -6.24269E+03  5.17130E+03
 -7.28711E+03  1.11512E+03 -4.67491E+03 -5.14743E+03 -2.14078E+03 -7.28502E+03  4.68145E+03 -5.51372E+03
  6.43750E+03 -1.46167E+03  4.88819E+03  1.73278E+03  2.10059E+03  3.98625E+03  1.47110E+03  2.06983E+03
  2.17145E+03  1.05285E+03  2.05677E+03  1.83211E+03  2.65049E+03  2.76301E+03  7.04498E+02  4.15456E+03
 -2.49966E+03  6.02420E+03 -6.73180E+03  7.07411E+03 -9.19830E+03  2.15816E+03 -8.86622E+03 -3.29389E+03
 -3.62437E+03 -8.79072E+03  1.00184E+03 -9.89274E+03  5.43646E+03 -5.88201E+03  7.04490E+03 -2.06991E+03
  5.03423E+03  3.11191E+03  4.85996E+02  3.87129E+03 -2.52593E+03  3.19756E+03 -3.96765E+03 -2.33820E+02
 -1.61806E+03 -3.77605E+03  1.59602E+03 -2.64536E+03  4.26174E+03 -1.64028E+03  3.45183E+03  1.44662E+03
  9.86442E+02  1.72536E+03  8.79885E+02  2.41319E+03 -1.89401E+02  6.95513E+02  2.20836E+03 -1.24223E+03
 -2.04605E+02  4.79272E+02  4.18895E+03  2.66052E+03  7.48021E+02  3.75864E+03  1.35972E+02  5.67107E+03
 -4.38587E+03  3.22076E+03 -4.81722E+03  1.18691E+03 -4.01693E+03 -1.68236E+03 -1.25241E+03 -2.45270E+03
  1.02993E+02 -4.39627E+03  2.17121E+03 -2.55141E+03  1.98196E+03  6.15852E+02 -1.08553E+03  2.06277E+03
 -2.83315E+03  1.71932E+03 -3.37755E+03 -2.16166E+03 -2.57000E+03 -4.57736E+03  1.81352E+03 -4.77814E+03
  2.80926E+03 -2.04377E+03  2.79292E+03 -7.04865E+02  4.55480E+03  8.81996E+02  5.17028E+02  3.34717E+03
 -1.17541E+03  7.26167E+02 -2.02993E+03 -1.42826E+03  4.64747E+02 -4.20803E+03  3.45280E+03 -2.54630E+03
  4.78787E+03  3.61670E+02  4.22587E+03  4.24128E+03  2.09640E+03  5.62077E+03 -2.70859E+03  5.13007E+03
 -4.69305E+03  1.11729E+03 -3.57213E+03  1.20423E+02 -2.79057E+03 -2.79753E+03 -7.07054E+02 -2.49077E+03
  4.27296E+03 -2.63072E+03  1.98473E+03  4.60979E+02 -2.50194E+02  4.33117E+03 -4.63087E+02  1.61248E+03
 -1.02057E+03  9.68821E+02 -9.44257E+02  1.18323E+02 -6.75535E+02  4.86328E+02 -1.12579E+03  1.39375E+03
 -2.12348E+03  3.29062E+03 -4.34740E+03  1.51386E+03 -3.78858E+03 -6.72947E+02 -5.72650E+03 -4.15126E+03
 -2.96171E+03 -6.09008E+03  1.17442E+03 -7.31497E+03  4.18691E+03 -6.00989E+03  7.61201E+03 -4.24598E+03
  5.60427E+03 -1.63057E+02  4.27002E+03  4.55774E+03  1.72147E+02  4.87954E+03 -2.24046E+03  2.73991E+03
 -3.23647E+03  3.69820E+02 -5.92387E+02 -7.40551E+02 -5.40813E+02  7.64153E+02 -1.45827E+01 -7.76148E+02
 -1.24596E+03 -4.79901E+02 -1.04229E+03  2.05408E+02  1.37401E+03 -2.55118E+03 -2.58441E+02 -2.37458E+03
  2.17276E+03 -2.09148E+03  2.14134E+03 -4.42298E+02  5.17153E+03  2.37814E+03  1.11576E+02  5.41343E+03
 -2.30139E+03  6.32393E+03 -4.97990E+03  3.74040E+03 -6.29973E+03  1.59607E+02 -3.95668E+03 -3.03201E+03
 -2.39466E+03 -4.44202E+03  2.43371E+02 -4.17123E+03  2.09563E+03 -3.27242E+03  2.82753E+03 -2.27167E+02
  2.15553E+03  7.09003E+02 -1.54734E+01  1.66101E+03 -2.18254E+03  9.70122E+02  1.02535E+03 -1.79402E+03
  6.98857E+02 -2.50202E+02  8.79263E+02  6.31031E+02  2.06798E+03  1.73945E+03  4.35214E+02  3.37762E+03
 -1.88935E+03  1.37977E+03 -2.99351E+03  4.60478E+02 -3.85335E+03 -2.12105E+03 -8.63453E+02 -3.23404E+03
  2.16114E+03 -3.33325E+03  3.86547E+03 -7.22891E+02  1.66803E+03 -1.10888E+03  1.57652E+03  3.37206E+03
  7.26881E+02  2.95421E+03 -1.30425E+03  1.94096E+03 -1.58524E+03  6.02861E+02 -1.70553E+03  2.65380E+02
 -1.51911E+03  3.17157E+02 -1.85890E+03  2.16250E+02 -2.83834E+03  1.29709E+03 -3.56952E+03 -2.30005E+02
 -3.18904E+03 -8.18660E+02 -4.34740E+02 -3.30555E+03  1.18740E+03 -4.11446E+03  4.00901E+03 -2.78321E+03
  2.80322E+03  5.26832E+02  1.71576E+03  2.57411E+03 -4.12980E+02  2.88683E+03 -2.08268E+03  1.62822E+03
