 $NMID ID='MM_0lb_SNR200_14hz_g55_38.RAW', FMTDAT='(8E13.5)'
 TRAMP=1., VOLUME=1. $END
  3.09752E+05  1.14543E+03  3.37455E+05  2.50675E+05  8.49402E+04  3.38607E+05 -1.33079E+05  2.51831E+05
 -1.90355E+05  8.27345E+04 -1.11542E+05 -3.17854E+04  1.08174E+03 -5.08193E+04  5.42605E+04 -7.68687E+02
  3.51095E+04  5.37754E+04 -1.71306E+04  7.49232E+04 -6.12924E+04  6.35254E+04 -8.47088E+04  3.24813E+04
 -8.06260E+04 -1.17062E+04 -5.73442E+04 -5.08695E+04 -1.55779E+04 -7.05873E+04  2.55756E+04 -4.70346E+04
  3.95377E+04  4.32666E+03  1.66229E+04  4.78721E+04 -3.38019E+04  4.72718E+04 -6.60684E+04 -5.22951E+02
 -5.38012E+04 -5.59975E+04 -5.89893E+03 -7.71311E+04  3.37601E+04 -5.46179E+04  4.66253E+04 -1.89597E+04
  4.39016E+04  1.20647E+04  3.14402E+04  2.52237E+04  1.43767E+04  2.89045E+04 -4.43943E+03  2.73046E+04
 -2.29214E+04  1.26519E+04 -1.89134E+04 -5.37222E+03  5.42187E+03 -8.52783E+03  2.26066E+04  1.35639E+04
  6.29147E+03  3.56159E+04 -3.29148E+04  3.53663E+04 -6.46920E+04  2.66765E+03 -5.58749E+04 -4.30799E+04
 -1.18823E+04 -6.36422E+04  3.91571E+04 -4.57714E+04  5.95479E+04 -2.60993E+03  3.43567E+04  3.19934E+04
 -5.95775E+03  3.58536E+04 -3.14729E+04  1.73483E+04 -3.04847E+04 -2.70674E+03 -1.76042E+04 -1.05703E+04
 -8.08007E+03 -1.30221E+04  8.40780E+01 -1.76898E+04  8.72339E+03 -2.30941E+04  1.50468E+04 -1.26430E+04
  1.14542E+04  4.45122E+03 -7.46375E+03  1.26230E+04 -2.04766E+04 -5.96122E+03 -8.54234E+03 -3.38096E+04
  2.21053E+04 -4.41168E+04  4.96985E+04 -1.95774E+04  4.53751E+04  1.90284E+04  1.62011E+04  4.54081E+04
 -1.60537E+04  3.45326E+04 -2.47857E+04  2.38962E+03 -9.31627E+03 -2.93370E+04  2.11859E+04 -3.39958E+04
  4.22646E+04 -1.09054E+04  3.59372E+04  2.49513E+04  1.85668E+04  4.64766E+04 -9.75476E+03  5.25703E+04
 -3.13543E+04  3.40747E+04 -4.31185E+04  9.98814E+03 -4.32481E+04 -1.70444E+04 -2.49155E+04 -3.77652E+04
  8.91123E+03 -3.88736E+04  3.16631E+04 -1.48440E+04  3.07993E+04  1.03107E+04  3.09618E+03  1.91808E+04
 -1.42045E+04  7.91925E+03 -1.02030E+04 -8.81432E+03  4.35532E+03 -1.11309E+04  1.94868E+04  6.03724E+03
  1.39813E+04  2.25830E+04 -6.40331E+03  2.55810E+04 -2.27138E+04  1.24236E+04 -2.91754E+04 -5.05438E+03
 -2.08255E+04 -1.72219E+04 -9.29906E+03 -2.23563E+04  4.21001E+03 -2.01527E+04  1.78155E+04 -1.86199E+04
  2.62902E+04 -1.25691E+04  3.49784E+04  2.81332E+03  2.49301E+04  1.95867E+04  3.84433E+03  3.71174E+04
 -1.76844E+04  2.98776E+04 -2.95815E+04  1.03793E+04 -2.24197E+04 -9.37922E+03 -5.84263E+03 -1.34158E+04
  1.50722E+03 -1.57114E+03 -6.01547E+03  7.40646E+03 -1.78451E+04  5.22668E+03 -1.71800E+04 -5.60438E+03
 -9.65907E+03 -2.07498E+04  5.69173E+03 -2.31458E+04  1.57449E+04 -1.74205E+04  1.78606E+04 -1.30708E+03
  1.12724E+04  1.28098E+04 -1.41863E+03  1.90286E+04 -1.41047E+04  1.15409E+04 -2.01435E+04 -4.84599E+03
 -1.46439E+04 -1.70089E+04 -4.98141E+02 -2.43458E+04  1.11014E+04 -1.91704E+04  1.98136E+04 -9.50989E+03
  1.88598E+04 -6.55653E+02  1.25327E+04  4.47514E+03  6.47827E+03  5.33008E+02  9.51829E+03 -9.09125E+02
  1.94951E+04  1.72969E+03  2.06287E+04  1.60088E+04  1.19292E+04  3.05470E+04 -2.85738E+03  3.59252E+04
 -2.22215E+04  3.00053E+04 -3.28685E+04  1.44577E+04 -3.48117E+04 -2.19156E+03 -2.94999E+04 -2.00039E+04
 -1.26903E+04 -2.91257E+04  9.86380E+03 -2.50786E+04  2.30753E+04 -1.33335E+04  2.11860E+04  6.00504E+03
  5.44363E+03  1.50355E+04 -1.14750E+04  1.23605E+04 -1.57383E+04  1.83286E+03 -1.19715E+04 -1.15602E+04
  6.80669E+02 -1.63322E+04  8.92003E+03 -1.10156E+04  9.71062E+03 -8.98009E+02  2.98348E+03  7.62044E+03
 -6.64020E+03  2.72639E+03 -7.53810E+03 -5.35531E+03  3.27652E+02 -1.41824E+04  1.02550E+04 -1.51183E+04
  1.80338E+04 -8.97137E+03  1.89770E+04  2.83468E+03  1.57842E+04  1.40676E+04  8.62526E+03  2.14880E+04
 -4.58988E+03  2.29033E+04 -1.44328E+04  1.47768E+04 -1.54611E+04  3.47715E+03 -1.17962E+04 -3.66668E+03
 -5.49204E+03 -4.97374E+03 -1.51413E+02  7.35474E+02 -2.17081E+03  2.66209E+03 -5.81618E+03  5.22223E+03
 -1.16498E+04 -5.18524E+02 -1.22372E+04 -8.98422E+03 -5.34171E+03 -1.52735E+04  5.01122E+03 -1.21495E+04
  9.68178E+03 -5.02254E+03  6.64685E+03  3.05911E+03 -4.81656E+01  4.11234E+03 -4.25529E+03 -1.36013E+03
 -5.06327E+03 -7.96279E+03 -9.97494E+02 -1.17712E+04  4.84532E+03 -1.23192E+04  1.54464E+04 -4.64106E+03
  1.72281E+04  1.19078E+03  1.27648E+04  8.79384E+03  2.29729E+03  1.28069E+04 -6.57602E+03  1.19595E+04
 -1.11354E+04  3.94416E+03 -4.87563E+03 -1.14772E+03  1.70966E+03 -2.73487E+03  6.50586E+03 -8.21358E+02
  6.56877E+03  5.88198E+03  1.09271E+03  8.68574E+03 -5.15376E+03  8.89123E+03 -1.18698E+04  2.12998E+03
 -8.17399E+03 -5.46599E+03  3.90707E+02 -9.68038E+03  6.50568E+03 -5.81408E+03  6.40498E+03  2.41299E+03
  1.47192E+03  7.81899E+03 -6.66299E+03  8.21160E+03 -8.87429E+03  3.73314E+03 -9.46251E+03 -2.30979E+03
 -5.45638E+03 -1.01421E+04  2.43421E+03 -1.14892E+04  9.67528E+03 -6.87532E+03  1.08709E+04  1.76837E+03
  6.16536E+03  1.00980E+04 -7.79692E+02  1.08442E+04 -7.73627E+03  6.97454E+03 -7.71698E+03 -9.49612E+02
 -7.80674E+03 -8.66036E+03 -1.69972E+03 -7.38035E+03  3.81667E+03 -7.16162E+03  6.53265E+03 -3.37438E+03
  4.09845E+03  2.37166E+02 -5.14420E+02  8.68317E+02 -1.46507E+01 -1.39763E+03  2.31037E+03 -3.48492E+03
  6.65737E+03 -2.71030E+03  1.08287E+04  6.77866E+02  9.45761E+03  5.27673E+03  8.22941E+03  1.19715E+04
 -3.82824E+03  1.43965E+04 -1.21318E+04  1.14402E+04 -1.72208E+04  2.42077E+03 -1.26186E+04 -5.62291E+03
 -7.26146E+03 -9.60472E+03 -4.19049E+02 -8.84561E+03  3.38016E+03 -4.31441E+03  3.48486E+03 -3.67452E+03
  1.64025E+03 -1.51283E+03  3.01724E+03 -3.85222E+03  4.53106E+03 -1.34849E+03  5.87956E+03 -4.12599E+02
  6.91357E+03  1.11405E+03  2.40798E+03  6.73621E+03 -1.19522E+03  5.29478E+03 -7.19660E+03  5.04012E+03
 -9.85166E+03 -3.30420E+02 -4.89108E+03 -6.97683E+03 -2.06276E+03 -9.68305E+03  5.32447E+03 -9.23232E+03
  8.20730E+03 -5.72802E+03  1.08006E+04  1.42950E+02  9.35734E+03  8.85147E+03  1.91639E+03  1.07885E+04
 -5.73393E+03  9.16282E+03 -6.47932E+03  1.64291E+03 -4.51710E+03 -8.79277E+02 -8.76044E+02 -7.91952E+02
 -1.14725E+03  7.19832E+02 -2.26415E+03  2.40327E+03 -4.23194E+03  1.16926E+03 -5.91196E+03  1.63790E+02
 -3.47805E+03 -5.69452E+03  2.19994E+03 -7.85201E+03  4.89892E+03 -8.05614E+03  7.81458E+03 -2.40182E+03
  8.03686E+03  5.69442E+03  2.70580E+03  6.60136E+03 -1.15342E+03  8.42777E+03 -5.09115E+03  5.77206E+03
 -6.58928E+03  1.01086E+03 -5.42142E+03 -4.64420E+03 -7.74341E+02 -6.35969E+03  1.02414E+03 -3.95091E+03
  5.99471E+03 -1.98572E+03  4.15301E+03  7.84003E+02  1.38368E+03  1.53132E+03  1.65307E+03  1.19865E+03
  2.00440E+03 -3.74295E+02  1.87225E+03  1.30141E+03  2.21528E+03  2.95857E+03  3.00391E+03  4.10956E+03
 -1.90208E+03  6.13308E+03 -5.31579E+03  6.61385E+03 -9.00909E+03  1.35168E+03 -7.24639E+03 -1.92754E+03
 -4.63165E+03 -6.31473E+03  1.04336E+03 -8.04586E+03  4.97855E+03 -5.22529E+03  7.58724E+03 -3.39522E+03
  4.41263E+03  1.89705E+03  2.66502E+02  2.16676E+03 -1.51507E+03  2.93391E+03 -2.24295E+03  2.98125E+02
 -2.06595E+03 -2.61320E+03  1.31357E+03 -2.95650E+03  3.00714E+03 -2.32220E+03  2.49875E+03  3.15021E+02
  2.23969E+03  1.06907E+03  1.81176E+02  6.53268E+02  4.96550E+02  1.46863E+03  2.26496E+03 -4.13714E+02
  1.28945E+03 -1.77408E+01  3.45752E+03  3.52774E+02  1.61055E+03  4.22652E+03 -3.10648E+02  6.59428E+03
 -3.37887E+03  3.06932E+03 -4.88429E+03  2.17009E+02 -4.23465E+03 -2.65027E+03 -1.95023E+03 -2.68850E+03
  5.69266E+02 -2.73126E+03  3.15582E+03 -1.49514E+03  1.10002E+03  1.89424E+03 -9.76442E+02  2.11451E+03
 -4.26715E+03  1.93472E+03 -2.23977E+03 -2.57297E+03 -1.37993E+03 -4.74690E+03  1.21088E+03 -3.27283E+03
  2.45903E+03 -2.40818E+03  4.09367E+03 -8.89548E+01  3.23745E+03 -2.88236E+01  1.15201E+03  2.06573E+03
 -2.96684E+02  3.09540E+02 -2.67003E+03 -9.48746E+02  1.59195E+03 -3.13090E+03  2.59803E+03 -3.26236E+03
  4.43783E+03 -4.49621E+02  4.14496E+03  2.19583E+03  3.47703E+02  4.33722E+03 -2.25249E+03  4.10003E+03
 -4.27030E+03  2.31296E+02 -4.64602E+03  2.20485E+02 -1.15001E+03 -3.15791E+03  3.57200E+00 -1.87965E+03
  3.32130E+03 -1.70678E+03  9.51452E+02  2.19234E+03  1.37261E+03  4.68847E+03 -4.21860E+02  1.97819E+03
 -3.04176E+02  2.22447E+03 -1.39608E+03  1.64106E+03  1.12707E+02  1.32591E+03 -1.51744E+03  9.52707E+02
 -1.35645E+03  2.50238E+03 -3.16295E+03  1.85089E+03 -3.33675E+03  4.57011E+01 -5.33289E+03 -2.54777E+03
 -2.41559E+03 -4.27974E+03  9.53644E+02 -5.84213E+03  4.04235E+03 -6.24729E+03  5.92785E+03 -9.89816E+02
  5.98235E+03  1.35149E+03  3.87995E+03  3.37270E+03  6.43226E+02  3.73325E+03 -2.50162E+03  4.29587E+03
 -2.99923E+03  7.30684E+02 -1.44629E+03  6.36192E+02 -3.05892E+02 -1.06593E+03  1.47748E+01 -6.22443E+01
 -1.78042E+03 -1.29990E+03 -1.33711E+03  1.21440E+02 -1.38315E+02 -3.39490E+02 -2.97523E+02 -3.13900E+03
  2.74754E+03 -1.17345E+03  1.83749E+03  4.94122E+02  2.96381E+03  1.86197E+03 -2.88059E+02  3.67888E+03
 -2.14329E+03  4.76282E+03 -4.60576E+03  4.01115E+03 -4.57438E+03 -2.21431E+02 -3.94515E+03 -3.20783E+03
 -1.78152E+03 -4.23966E+03  8.55596E+02 -3.55043E+03  1.79719E+03 -2.23482E+03  2.91425E+03 -7.74916E+02
  9.73994E+02  1.67194E+03 -1.17256E+03  1.99097E+03 -3.50600E+02  4.53901E+02 -1.47741E+02 -1.31585E+03
  2.58858E+03  8.38528E+01  1.54454E+03  1.62823E+03  4.76456E+02  1.52579E+03  1.19897E+03  1.36090E+03
 -9.23456E+02  2.54685E+03 -2.16772E+03  1.37749E+03 -1.51540E+03 -1.54265E+03 -5.35429E+02 -2.66394E+03
  1.33436E+02 -2.85058E+03  2.54760E+03 -1.79331E+03  2.71459E+03  9.78162E+02  1.40858E+03  2.97296E+03
 -1.85697E+02  1.41211E+03 -1.18871E+03  2.39471E+03 -1.52805E+03  5.15696E+02 -2.09017E+03  5.51710E+02
 -1.63313E+03  1.98209E+02 -7.93184E+02  1.09803E+03 -1.16983E+03  8.63208E+02 -1.92252E+03 -5.84594E+02
 -1.95575E+03 -8.85073E+02 -2.08280E+03 -1.88092E+03  2.92495E+03 -3.46771E+03  1.41656E+03 -1.47716E+03
  1.85389E+03 -6.83676E+02 -3.27550E+02  2.40518E+03 -1.07964E+03  1.76258E+03 -2.18414E+03  1.67898E+03
