 $NMID ID='MM_0lb_SNR200_12hz_g55_56.RAW', FMTDAT='(8E13.5)'
 TRAMP=1., VOLUME=1. $END
  3.09663E+05 -3.03921E+00  3.38244E+05  2.50534E+05  8.47853E+04  3.38731E+05 -1.32950E+05  2.50733E+05
 -1.91218E+05  8.55385E+04 -1.10714E+05 -3.25170E+04  1.08482E+03 -5.13738E+04  5.37628E+04 -2.34633E+02
  3.44506E+04  5.25686E+04 -1.66399E+04  7.62018E+04 -6.03416E+04  6.54168E+04 -8.44483E+04  3.25919E+04
 -8.26766E+04 -1.25265E+04 -5.81170E+04 -5.22540E+04 -1.54571E+04 -7.03318E+04  2.80465E+04 -4.69093E+04
  4.04910E+04  4.67627E+03  1.62605E+04  4.89548E+04 -3.48972E+04  4.78223E+04 -6.84898E+04 -1.28732E+03
 -5.36705E+04 -5.71626E+04 -6.62199E+03 -7.71701E+04  3.50156E+04 -5.75834E+04  4.80382E+04 -1.90474E+04
  4.58811E+04  1.13753E+04  3.21797E+04  2.70819E+04  1.46839E+04  3.07345E+04 -4.59324E+03  2.77508E+04
 -2.35229E+04  1.19949E+04 -1.71687E+04 -6.54155E+03  7.56693E+03 -6.83154E+03  2.32060E+04  1.19416E+04
  6.76805E+03  3.74430E+04 -3.25237E+04  3.75529E+04 -6.42813E+04  2.91698E+03 -5.75593E+04 -4.28658E+04
 -1.32860E+04 -6.42047E+04  4.09514E+04 -4.69286E+04  6.10435E+04 -3.05433E+03  3.60379E+04  3.38891E+04
 -5.76214E+03  3.81249E+04 -3.11317E+04  1.69405E+04 -3.09217E+04 -4.25969E+03 -1.79344E+04 -1.08929E+04
 -9.09413E+03 -1.41077E+04  5.24209E+02 -1.95008E+04  8.39540E+03 -2.37584E+04  1.55415E+04 -1.44145E+04
  1.07063E+04  5.51438E+03 -9.95458E+03  1.26180E+04 -2.19444E+04 -4.69031E+03 -9.54490E+03 -3.58517E+04
  2.43725E+04 -4.53633E+04  5.02241E+04 -2.07119E+04  4.67397E+04  2.14450E+04  1.75962E+04  4.61348E+04
 -1.52014E+04  3.47843E+04 -2.67518E+04  2.53772E+03 -9.43594E+03 -2.91751E+04  2.09919E+04 -3.57817E+04
  4.31998E+04 -9.59464E+03  3.75798E+04  2.50344E+04  1.86257E+04  4.80404E+04 -8.13732E+03  5.25599E+04
 -3.29323E+04  3.66156E+04 -4.43420E+04  1.02578E+04 -4.53717E+04 -1.87802E+04 -2.48637E+04 -3.99380E+04
  7.43518E+03 -4.01344E+04  3.37967E+04 -1.55871E+04  3.23798E+04  9.97287E+03  4.33008E+03  2.03009E+04
 -1.44457E+04  9.54687E+03 -1.14572E+04 -8.25813E+03  6.87434E+03 -1.15048E+04  1.66537E+04  6.10794E+03
  1.41475E+04  2.27034E+04 -6.80793E+03  2.63457E+04 -2.32055E+04  1.34769E+04 -2.90021E+04 -3.69237E+03
 -2.22538E+04 -1.86554E+04 -1.01829E+04 -2.27661E+04  4.08523E+03 -2.36166E+04  1.75623E+04 -2.03771E+04
  2.82999E+04 -1.45864E+04  3.46256E+04  6.04275E+03  2.54036E+04  2.34428E+04  4.99408E+03  3.75920E+04
 -1.94891E+04  3.21454E+04 -2.92445E+04  1.16698E+04 -2.19111E+04 -1.00152E+04 -5.16743E+03 -1.33654E+04
  3.12222E+03 -2.54119E+03 -6.48140E+03  7.61617E+03 -1.80469E+04  6.09090E+03 -1.82566E+04 -7.47376E+03
 -1.16097E+04 -2.14183E+04  5.21218E+03 -2.70354E+04  1.74829E+04 -1.72685E+04  2.06629E+04 -1.63633E+03
  1.29101E+04  1.44287E+04 -1.52961E+03  1.99983E+04 -1.39898E+04  1.36458E+04 -2.15117E+04 -3.80675E+03
 -1.60213E+04 -2.00884E+04 -1.78541E+03 -2.47857E+04  1.02905E+04 -2.04362E+04  2.18095E+04 -1.34510E+04
  1.93707E+04  6.42320E+02  1.33155E+04  5.26634E+03  7.62711E+03  8.46852E+02  1.17834E+04 -1.25644E+03
  2.02781E+04  2.97217E+03  2.27291E+04  1.67029E+04  1.42858E+04  3.44934E+04 -3.39755E+03  4.00591E+04
 -2.32028E+04  3.33343E+04 -3.51618E+04  1.49409E+04 -3.98990E+04 -3.12923E+03 -3.23452E+04 -2.28871E+04
 -1.33207E+04 -3.21152E+04  1.25785E+04 -2.76568E+04  2.43685E+04 -1.46902E+04  2.25636E+04  6.66768E+03
  7.60520E+03  1.63209E+04 -9.58364E+03  1.53309E+04 -1.84308E+04  3.56675E+03 -1.47665E+04 -1.36373E+04
  4.42771E+02 -1.59819E+04  1.03247E+04 -1.37634E+04  1.15445E+04 -6.86178E+02  2.75904E+03  7.65743E+03
 -7.33728E+03  2.68387E+03 -6.43246E+03 -6.16956E+03 -1.91753E+03 -1.66354E+04  1.21866E+04 -1.71661E+04
  1.93843E+04 -7.96062E+03  2.34481E+04  3.03611E+03  1.98754E+04  1.58527E+04  9.25540E+03  2.38789E+04
 -4.85256E+03  2.64466E+04 -1.75286E+04  1.63771E+04 -1.85574E+04  4.30375E+03 -1.48147E+04 -5.82912E+03
 -5.74571E+03 -5.92953E+03  1.80526E+02  1.80851E+03 -1.00190E+03  3.03669E+03 -6.53820E+03  6.09593E+03
 -1.22214E+04 -3.47773E+02 -1.26960E+04 -1.04644E+04 -5.15492E+03 -1.78464E+04  5.58862E+03 -1.36858E+04
  1.19926E+04 -4.97789E+03  8.83921E+03  3.59035E+03 -6.70312E+02  5.59950E+03 -6.27088E+03 -1.07282E+03
 -6.19833E+03 -8.05071E+03 -6.31817E+02 -1.14993E+04  5.89177E+03 -1.31161E+04  1.70629E+04 -6.89280E+03
  1.92327E+04  2.00268E+03  1.44466E+04  1.25483E+04  3.86273E+03  1.55126E+04 -8.74526E+03  1.44480E+04
 -1.13705E+04  2.31025E+03 -6.40310E+03 -2.00837E+03  1.63306E+03 -3.93242E+03  7.28090E+03 -3.56115E+02
  5.78821E+03  5.70371E+03  1.16313E+03  1.07281E+04 -7.34369E+03  9.92090E+03 -1.24719E+04  2.66620E+03
 -9.23432E+03 -7.32846E+03  2.82290E+02 -1.10175E+04  6.43942E+03 -5.67268E+03  8.17148E+03  2.35784E+03
  1.13246E+03  6.96916E+03 -7.35656E+03  8.80629E+03 -1.17995E+04  4.44594E+03 -1.03667E+04 -4.75319E+03
 -8.21106E+03 -1.20180E+04  3.08287E+03 -1.44240E+04  1.17392E+04 -6.94053E+03  1.28676E+04  3.22275E+03
  9.02359E+03  1.04990E+04 -1.10794E+03  1.24951E+04 -8.16120E+03  7.76487E+03 -1.12636E+04 -1.15014E+03
 -9.03252E+03 -8.94615E+03 -1.21060E+03 -1.00324E+04  3.70651E+03 -6.12122E+03  6.94569E+03 -4.39359E+03
  2.73724E+03  1.31681E+03 -1.61225E+03  1.74363E+03 -5.38605E+02 -3.79447E+03  2.80737E+03 -5.37255E+03
  9.19544E+03 -3.56242E+03  1.24380E+04  2.62112E+02  1.29563E+04  8.61975E+03  7.74942E+03  1.55844E+04
 -3.22813E+03  1.88953E+04 -1.53928E+04  1.35020E+04 -2.06636E+04  2.06208E+03 -1.68482E+04 -6.57786E+03
 -6.86976E+03 -1.30825E+04  6.66732E+01 -1.16423E+04  5.26618E+03 -5.62313E+03  3.40071E+03 -4.21268E+03
  3.32191E+03 -1.57724E+03  4.41392E+03 -2.92913E+03  5.25141E+03 -2.30278E+03  6.67961E+03 -1.39623E+03
  7.53739E+03  2.16762E+03  4.54861E+03  5.81590E+03 -2.00007E+03  7.01069E+03 -9.18089E+03  6.33847E+03
 -1.08962E+04 -1.48650E+03 -6.29082E+03 -8.01005E+03 -1.42525E+03 -1.21358E+04  6.45547E+03 -1.20399E+04
  1.16112E+04 -7.91297E+03  1.47582E+04  3.17670E+02  9.65535E+03  1.14166E+04  2.42673E+03  1.31517E+04
 -3.33403E+03  1.22463E+04 -7.64153E+03  4.55652E+03 -4.88269E+03 -3.14998E+03 -1.84582E+03 -2.69364E+03
 -6.34517E+01  1.75755E+02 -9.59894E+02  2.19413E+03 -6.49803E+03  5.29808E+02 -7.97960E+03 -5.80543E+02
 -4.38999E+03 -8.54335E+03 -9.70138E+02 -1.01618E+04  5.79687E+03 -1.02947E+04  1.06841E+04 -2.77613E+03
  1.00055E+04  6.45360E+03  4.61724E+03  8.83892E+03 -3.87880E+03  1.13497E+04 -6.43119E+03  6.37813E+03
 -9.08388E+03  9.28711E+02 -8.48915E+03 -7.21715E+03 -1.25059E+03 -9.28500E+03  4.42206E+03 -7.69733E+03
  6.02261E+03 -9.88104E+02  4.75947E+03  8.20271E+02  2.62480E+03  3.01472E+03  1.51132E+03  1.24468E+03
  1.98694E+03  4.92112E+02  2.37994E+03  4.06851E+02  2.94488E+03  4.26372E+03  3.26654E+03  6.62751E+03
 -1.17705E+03  1.00540E+04 -7.08271E+03  6.99450E+03 -9.92006E+03  9.33528E+02 -1.37663E+04 -3.69407E+03
 -5.56742E+03 -1.02600E+04  1.11511E+03 -1.23685E+04  7.38983E+03 -8.42484E+03  7.50309E+03 -3.70230E+03
  8.03286E+03  4.39071E+03  4.80950E+02  6.07383E+03 -3.07934E+03  3.25257E+03 -4.59678E+03 -2.12085E+02
 -2.43838E+03 -4.25879E+03  2.92666E+03 -4.04539E+03  5.42877E+03 -7.20706E+02  4.61189E+03  1.33491E+03
  2.45147E+03  1.84036E+03  4.14012E+02  1.77911E+03 -4.67202E+02  1.87654E+03  1.19589E+03 -1.17745E+03
  1.99676E+03 -2.07018E+02  3.87757E+03  2.04030E+03  2.93974E+03  5.93871E+03 -1.53525E+03  9.06393E+03
 -4.73654E+03  4.61769E+03 -7.00290E+03  1.35237E+03 -4.83361E+03 -2.13220E+03 -1.74840E+03 -2.91506E+03
  2.47273E+02 -5.66565E+03  3.21972E+03 -3.15980E+03  2.56398E+03  2.86728E+03 -1.13965E+03  3.13110E+03
 -3.90166E+03  2.88911E+03 -5.03151E+03 -3.00701E+03 -3.08485E+03 -5.28615E+03  2.36433E+03 -4.96992E+03
  2.61762E+03 -3.58797E+03  2.74861E+03  2.12490E+02  3.09849E+03  1.28303E+03  1.14958E+03  2.51461E+03
 -2.51872E+03  2.50412E+03 -2.73492E+03 -2.25718E+03  1.04095E+03 -4.98963E+03  4.37179E+03 -3.46185E+03
  5.87538E+03  1.61733E+03  7.45780E+03  5.18678E+03  2.51968E+03  7.02106E+03 -5.51374E+02  6.92170E+03
 -4.94885E+03  2.23232E+03 -5.53529E+03 -1.38288E+02 -3.45974E+03 -3.15890E+03  3.85844E+02 -3.50580E+03
  4.38061E+03 -2.67801E+03  1.89119E+03  2.08455E+03  6.60372E+02  2.28392E+03 -1.29766E+02  3.13500E+03
 -2.44031E+03  3.67524E+03 -2.37395E+03  1.61040E+03 -3.33184E+02 -2.10031E+01 -8.90792E+02  2.71566E+03
 -1.70317E+02  2.62305E+03 -4.59479E+03  6.25787E+02 -6.30378E+03 -1.06897E+03 -7.18502E+03 -4.12691E+03
 -3.69565E+03 -8.88815E+03  5.44063E+02 -9.99721E+03  4.49819E+03 -6.66320E+03  9.50984E+03 -2.85816E+03
  9.33996E+03  8.73143E+02  4.78331E+03  6.02628E+03  2.22818E+02  5.72217E+03 -2.75569E+03  4.88242E+03
 -1.85653E+03  3.45252E+03 -2.21288E+03 -4.35359E+02 -8.17486E+02  4.20741E+01 -1.15269E+03 -1.08101E+03
 -1.09235E+03  1.34686E+02 -7.85552E+02 -6.21390E+02 -5.80924E+02 -2.44776E+03 -1.11855E+03 -3.37946E+03
  3.10697E+03 -4.94918E+02  4.79861E+03  5.03608E+02  3.52953E+03  2.86711E+03  6.19391E+02  7.61054E+03
 -4.47546E+03  8.12135E+03 -7.34964E+03  4.25322E+03 -6.99355E+03 -1.78081E+03 -6.59805E+03 -6.35865E+03
 -4.41997E+03 -6.76405E+03  1.43924E+03 -5.60136E+03  4.15954E+03 -2.62228E+03  3.76540E+03  9.46847E+02
  2.96860E+03  1.60933E+03 -6.21709E+02  1.80679E+03  2.60676E+02 -8.12841E+02  9.11352E+02 -1.27408E+03
  2.84235E+02 -1.29882E+03  2.10009E+03  1.56801E+03  1.43623E+03  8.53241E+02  1.28633E+03  1.67421E+03
 -2.16571E+03  1.28785E+03 -2.90099E+03 -8.79230E+02 -3.45206E+03 -3.92396E+03 -1.59706E+03 -4.70172E+03
  2.20005E+03 -4.50606E+03  3.79748E+03 -1.04711E+03  4.44316E+03  1.07644E+03  2.67233E+03  4.21831E+03
  7.37532E+02  4.50957E+03  8.40083E+02  4.00659E+03 -1.13399E+02  2.14984E+03 -2.77244E+03  2.27515E+02
  6.02749E+01 -1.20270E+03 -1.45087E+03  6.37019E+02 -2.49896E+03 -3.95873E+02 -3.10973E+03 -1.09739E+03
 -3.32580E+03 -2.37202E+03 -1.24968E+03 -4.55296E+03  1.96154E+03 -4.80702E+03  2.96622E+03 -1.39891E+03
  4.64340E+03  1.25912E+03  3.04703E+03  1.94544E+03 -7.95527E+02  4.43880E+03 -2.52519E+03  2.07416E+03
