 $NMID ID='MM_0lb_SNR200_15hz_g40_45.RAW', FMTDAT='(8E13.5)'
 TRAMP=1., VOLUME=1. $END
  3.09162E+05  9.07012E+02  3.36900E+05  2.50066E+05  8.42464E+04  3.37679E+05 -1.32369E+05  2.50731E+05
 -1.91878E+05  8.21268E+04 -1.11524E+05 -3.30046E+04  9.67425E+02 -5.03902E+04  5.34428E+04  8.76915E+02
  3.49013E+04  5.27964E+04 -1.64559E+04  7.60287E+04 -6.09492E+04  6.31325E+04 -8.34680E+04  3.19061E+04
 -8.04227E+04 -1.01402E+04 -5.47956E+04 -5.09016E+04 -1.41815E+04 -6.90337E+04  2.70203E+04 -4.53167E+04
  3.96145E+04  3.94463E+03  1.55187E+04  4.77750E+04 -3.41534E+04  4.68071E+04 -6.67676E+04 -1.22050E+03
 -5.23777E+04 -5.73198E+04 -6.37919E+03 -7.68156E+04  3.35505E+04 -5.38538E+04  4.74459E+04 -1.66298E+04
  4.33512E+04  1.04553E+04  3.00485E+04  2.55041E+04  1.66468E+04  2.81022E+04 -3.93534E+03  2.64739E+04
 -2.29537E+04  1.31076E+04 -1.97145E+04 -3.02917E+03  5.60754E+03 -7.49748E+03  2.15802E+04  1.10408E+04
  7.04858E+03  3.45233E+04 -3.10840E+04  3.37928E+04 -6.30800E+04  1.06602E+03 -5.65235E+04 -4.21057E+04
 -1.28452E+04 -6.27542E+04  3.93965E+04 -4.53656E+04  5.61383E+04 -1.22774E+03  3.32870E+04  3.14079E+04
 -6.63862E+03  3.41902E+04 -2.88258E+04  1.46041E+04 -2.90034E+04 -4.38227E+03 -1.59896E+04 -1.01321E+04
 -7.60358E+03 -1.27401E+04 -6.70432E+02 -1.80179E+04  7.84248E+03 -2.31137E+04  1.54314E+04 -1.48228E+04
  1.16690E+04  3.91902E+03 -6.91652E+03  1.32436E+04 -1.99238E+04 -4.46781E+03 -8.00857E+03 -3.27207E+04
  2.19482E+04 -4.14508E+04  4.73278E+04 -1.94566E+04  4.34864E+04  1.74525E+04  1.37023E+04  4.27512E+04
 -1.48757E+04  3.19840E+04 -2.34615E+04  2.65748E+03 -7.88005E+03 -2.76563E+04  2.06433E+04 -3.30380E+04
  4.05257E+04 -7.71242E+03  3.37109E+04  2.29733E+04  1.69892E+04  4.43925E+04 -8.29372E+03  4.71262E+04
 -2.93576E+04  3.16127E+04 -4.07588E+04  8.50658E+03 -4.08506E+04 -1.58213E+04 -2.24019E+04 -3.53548E+04
  7.60711E+03 -3.66408E+04  3.08120E+04 -1.44746E+04  2.73540E+04  9.96671E+03  3.60877E+03  1.60177E+04
 -1.29028E+04  7.67485E+03 -8.02641E+03 -8.05009E+03  6.61192E+03 -1.07007E+04  1.83751E+04  6.29741E+03
  1.28930E+04  2.13372E+04 -7.39375E+03  2.37919E+04 -2.24973E+04  9.67076E+03 -2.60768E+04 -4.57993E+03
 -1.85404E+04 -1.77450E+04 -7.74326E+03 -1.89091E+04  4.74356E+03 -1.80613E+04  1.43471E+04 -1.72246E+04
  2.34838E+04 -1.29248E+04  3.04093E+04  1.87042E+03  2.35413E+04  1.81038E+04  5.21805E+03  3.43227E+04
 -1.68705E+04  2.84994E+04 -2.72380E+04  1.13882E+04 -1.96192E+04 -1.07353E+04 -4.51889E+03 -1.37728E+04
  3.16808E+03 -4.28168E+03 -4.62597E+03  6.56043E+03 -1.43853E+04  5.41096E+03 -1.52143E+04 -6.29972E+03
 -9.93772E+03 -1.70992E+04  5.41154E+03 -2.19580E+04  1.42070E+04 -1.55698E+04  1.69677E+04 -2.88999E+03
  1.11857E+04  1.26641E+04 -1.15549E+03  1.75607E+04 -1.25445E+04  1.00998E+04 -1.80710E+04 -4.64833E+03
 -1.28064E+04 -1.58878E+04 -1.15875E+03 -2.09864E+04  1.04795E+04 -1.70944E+04  1.73237E+04 -8.04360E+03
  1.62728E+04  1.20981E+03  1.11494E+04  3.38996E+03  6.79907E+03  6.10877E+02  8.50658E+03 -5.43877E+02
  1.59364E+04  2.50240E+03  1.67649E+04  1.33878E+04  1.04209E+04  2.87528E+04 -3.08491E+03  3.09522E+04
 -1.73288E+04  2.55511E+04 -2.84966E+04  1.14169E+04 -2.92754E+04 -2.12616E+03 -2.56894E+04 -1.72222E+04
 -1.10425E+04 -2.47268E+04  8.62541E+03 -2.23706E+04  1.85162E+04 -1.16206E+04  1.59717E+04  3.96727E+03
  7.19421E+03  1.33431E+04 -7.45204E+03  1.09575E+04 -1.44662E+04  1.86876E+03 -1.24459E+04 -8.93889E+03
  1.64569E+02 -1.44683E+04  6.72856E+03 -1.11830E+04  1.05723E+04 -1.61421E+03  1.40439E+03  5.67615E+03
 -6.57101E+03  1.89205E+03 -5.61528E+03 -6.07936E+03 -8.83469E+02 -1.14143E+04  9.58416E+03 -1.28542E+04
  1.50691E+04 -6.90600E+03  1.53975E+04  2.48857E+03  1.22998E+04  1.12027E+04  6.44093E+03  1.57937E+04
 -3.15655E+03  1.94493E+04 -1.22374E+04  1.22364E+04 -1.35310E+04  2.20482E+03 -1.04462E+04 -4.17575E+03
 -4.93348E+03 -4.40180E+03 -9.60031E+02  1.95171E+03 -2.46131E+03  2.37272E+03 -5.26263E+03  4.22875E+03
 -9.11381E+03 -7.88523E+02 -1.03881E+04 -8.22474E+03 -4.00733E+03 -1.33693E+04  4.98485E+03 -1.05068E+04
  7.70717E+03 -4.11394E+03  5.20874E+03  1.80576E+03  1.32980E+03  3.87012E+03 -4.15597E+03  4.88927E+02
 -3.99235E+03 -6.98062E+03  5.09292E+02 -8.62219E+03  5.70673E+03 -1.02294E+04  1.25236E+04 -4.95573E+03
  1.40171E+04  1.52358E+03  1.15629E+04  8.20530E+03  1.44079E+03  1.13829E+04 -5.57302E+03  9.84443E+03
 -7.23183E+03  3.86648E+03 -4.95411E+03 -1.49124E+03  1.03864E+03 -2.38113E+03  5.99456E+03 -1.02532E+03
  4.35606E+03  4.49456E+03  7.33539E+02  7.93002E+03 -5.93629E+03  7.39715E+03 -8.68506E+03  2.00862E+03
 -6.11643E+03 -4.72332E+03  1.16211E+03 -7.94416E+03  5.40862E+03 -3.41224E+03  4.52418E+03  1.30117E+03
  4.99057E+02  4.37817E+03 -5.90577E+03  7.45221E+03 -6.97039E+03  2.86301E+03 -7.48942E+03 -2.93885E+03
 -5.27439E+03 -7.47040E+03  1.34685E+03 -1.00630E+04  8.79772E+03 -5.04319E+03  7.59588E+03  1.85516E+03
  5.64844E+03  7.65197E+03  5.41526E+02  9.88613E+03 -6.16535E+03  4.72697E+03 -7.38391E+03  4.80663E+02
 -7.88776E+03 -7.41494E+03 -2.23636E+03 -7.74311E+03  4.44320E+03 -5.48624E+03  3.69211E+03 -3.66820E+03
  3.96609E+03  7.02949E+02 -5.20687E+02  2.27529E+02  1.27667E+03 -6.30446E+02  1.02589E+03 -2.57642E+03
  5.55328E+03 -1.85622E+03  7.31188E+03  6.89085E+02  7.93328E+03  4.55243E+03  6.65485E+03  9.48958E+03
 -1.79618E+03  1.15346E+04 -1.01125E+04  8.54742E+03 -1.43827E+04  3.10785E+03 -1.05635E+04 -3.66118E+03
 -5.66616E+03 -8.69227E+03 -3.33417E+01 -7.02857E+03  3.14910E+03 -3.47499E+03  2.69256E+03 -3.67016E+03
  2.55518E+03 -1.78396E+03  2.72046E+03 -2.34987E+03  3.64299E+03 -1.89114E+03  3.56908E+03  1.14739E+02
  5.86759E+03  9.48482E+02  2.81839E+03  4.64051E+03 -1.93798E+03  4.81559E+03 -4.68968E+03  3.62412E+03
 -6.91730E+03 -6.99664E+02 -3.00276E+03 -4.61349E+03 -7.97584E+02 -7.16409E+03  4.10276E+03 -7.54048E+03
  7.51189E+03 -5.88542E+03  9.05683E+03  1.37835E+03  7.44201E+03  6.84414E+03  9.99260E+02  8.69247E+03
 -3.37136E+03  8.19917E+03 -5.34710E+03  2.80724E+03 -2.54372E+03 -2.56669E+03 -3.71721E+02 -1.07705E+03
 -9.57869E+02  2.72462E+02 -1.69651E+03  2.82857E+03 -5.47544E+03  2.17942E+03 -5.49515E+03 -1.03950E+03
 -1.31907E+03 -6.17400E+03  1.97187E+03 -5.61843E+03  4.74355E+03 -5.86696E+03  5.81215E+03 -1.58893E+03
  5.52945E+03  3.07097E+03  2.82353E+03  5.44384E+03 -1.35762E+03  5.05801E+03 -4.72084E+03  4.17786E+03
 -6.72369E+03 -6.01036E+02 -5.56837E+03 -3.82460E+03 -6.88236E+02 -6.11995E+03  1.75377E+03 -4.58495E+03
  5.41476E+03 -1.10629E+03  2.23486E+03  1.13109E+03 -5.19247E+02  2.22659E+03 -9.20129E+02  1.41262E+03
  2.39962E+03  8.74495E+02  1.01634E+03  8.38968E+02  2.45998E+03  2.50462E+03  2.24596E+03  3.13052E+03
 -1.47341E+03  5.43846E+03 -3.50280E+03  5.36440E+03 -6.05411E+03  2.52756E+03 -5.52988E+03 -1.02192E+03
 -3.04556E+03 -6.77044E+03  1.88111E+03 -7.74625E+03  3.27779E+03 -4.16190E+03  4.05457E+03 -1.14086E+03
  4.76221E+03  2.65808E+03  5.45740E+02  3.73295E+03 -1.63276E+03  2.26647E+03 -3.24461E+03 -4.00384E+01
 -1.09547E+03 -1.73248E+03  1.37011E+03 -3.92902E+03  2.88481E+03 -1.53454E+03  2.75681E+03  1.13251E+03
  6.57925E+02  1.17575E+03  7.38375E+02 -4.37684E+02  1.38307E+02  4.90856E+02  7.01882E+02 -5.68346E+02
 -2.96765E+02 -7.45207E+02  3.02993E+03  5.16622E+02  3.11272E+02  4.01979E+03 -5.03230E+02  4.34767E+03
 -2.89339E+03  2.32422E+03 -3.61097E+03 -1.06001E+02 -2.70581E+03 -1.29235E+03  3.51539E+02 -2.50455E+03
  7.59174E+02 -2.77214E+03  1.70438E+03 -1.32402E+03  7.69469E+02  1.81227E+03 -1.10570E+03  3.10191E+03
 -1.93392E+03  5.00300E+02 -1.52586E+03 -1.86950E+03 -1.90975E+03 -2.95776E+03  9.91500E+02 -3.26597E+03
  1.65878E+03 -1.47556E+03  1.92555E+03  1.00781E+02  1.97754E+03 -6.66397E+01  9.09877E+02  1.54551E+03
 -4.06534E+02 -1.53851E+02 -2.31322E+03 -8.60459E+02  1.04220E+03 -2.81811E+03  4.43265E+03 -1.24330E+03
  1.82210E+03 -6.78316E+02  4.01632E+03  9.92294E+02  9.18806E+02  3.09718E+03 -8.78410E+02  3.71434E+03
 -2.95220E+03  2.88698E+03 -2.83111E+03 -9.36156E+02 -1.94648E+03 -2.68706E+03  4.05144E+02 -2.07432E+03
  3.04415E+03 -8.46678E+01  2.17769E+03  1.79029E+03  6.65567E+02  2.62987E+03  2.43331E+02  2.63445E+03
 -9.53059E+02  1.71344E+03 -5.87755E+02  2.77473E+02 -3.34528E+02  1.93554E+02 -4.04044E+02  1.97994E+03
 -9.07077E+02  2.48248E+03 -2.61717E+03  1.59120E+03 -3.59836E+03 -2.89957E+02 -4.30433E+03 -3.18645E+03
 -2.64926E+03 -4.35360E+03  5.10094E+02 -3.72293E+03  2.95759E+03 -3.54979E+03  4.49910E+03 -1.95666E+03
  5.17259E+03  6.61783E+02  1.47467E+03  2.69693E+03  9.93684E+01  4.38841E+03 -1.79884E+03  4.03183E+03
 -2.31782E+03  2.08064E+03 -7.80945E+02 -1.01110E+03 -1.92871E+03 -4.28342E+02  3.19750E+02  1.16389E+02
 -1.17982E+03 -5.77048E+02 -1.10668E+03 -3.74601E+02 -1.65034E+02 -2.04077E+03  1.97430E+02 -7.32160E+02
  2.70868E+03 -1.47546E+03  1.94495E+03  5.10612E+02  2.40208E+03  1.86024E+03 -1.78450E+02  3.42237E+03
 -1.56904E+03  4.68121E+03 -4.54233E+03  1.95327E+03 -4.12113E+03 -1.08643E+03 -2.91816E+03 -2.97729E+03
 -2.09697E+03 -2.77603E+03  3.34320E+02 -3.60601E+03  9.79035E+02 -1.99021E+03  1.43577E+03  9.06746E+02
  2.66988E+03  4.30859E+02 -7.52327E+02  7.51448E+02 -1.15971E+02 -6.64997E+02 -2.93809E+02  4.02686E+02
  7.06648E+02 -8.84348E+02  1.75421E+03 -9.93352E+02  8.20431E+02  8.77842E+01  8.78636E+01  1.80414E+03
 -1.74196E+02  2.14638E+03 -2.32111E+03  7.52762E+02 -1.97311E+03 -2.14121E+03 -3.33974E+02 -2.68402E+03
  1.30131E+03 -1.70900E+03  2.16049E+03 -9.12864E+02  2.05753E+03 -4.63879E+02  2.95381E+03  2.10114E+03
  7.16912E+02  1.26044E+03 -2.45545E+02  7.08385E+02  1.61406E+02  2.62683E+02 -5.68644E+02  6.91731E+02
 -4.28656E+02 -1.21498E+02 -1.59490E+03 -4.68703E+02 -1.13217E+03 -4.63610E+01 -1.76508E+03 -2.59801E+02
 -2.71528E+02 -6.06100E+02 -5.81508E+02 -1.32854E+03  1.09911E+03 -2.87973E+03  5.35015E+02 -6.80429E+02
  1.90260E+03  1.13502E+02  3.95694E+02  2.34549E+03  7.22046E+02  1.72982E+03 -1.60203E+03  2.11945E+03
