 $NMID ID='MM_0lb_SNR200_14hz_g55_55.RAW', FMTDAT='(8E13.5)'
 TRAMP=1., VOLUME=1. $END
  3.10444E+05 -1.31425E+02  3.37143E+05  2.50138E+05  8.44176E+04  3.39243E+05 -1.32154E+05  2.51506E+05
 -1.91251E+05  8.35269E+04 -1.11995E+05 -3.31146E+04  3.60211E+02 -5.08515E+04  5.42273E+04 -7.42353E+02
  3.50006E+04  5.45027E+04 -1.69507E+04  7.54900E+04 -6.00082E+04  6.38342E+04 -8.47650E+04  3.19943E+04
 -8.08655E+04 -1.15055E+04 -5.77165E+04 -5.16699E+04 -1.41050E+04 -6.94900E+04  2.74187E+04 -4.55905E+04
  4.01936E+04  3.48045E+03  1.62911E+04  4.77790E+04 -3.42430E+04  4.76065E+04 -6.75393E+04  9.66301E+01
 -5.21133E+04 -5.64618E+04 -8.09196E+03 -7.73439E+04  3.44034E+04 -5.56695E+04  4.82384E+04 -1.90556E+04
  4.42429E+04  1.27122E+04  3.16293E+04  2.65856E+04  1.63000E+04  2.88348E+04 -6.49133E+03  2.83929E+04
 -2.32044E+04  1.17897E+04 -1.90106E+04 -5.44349E+03  4.67773E+03 -6.82056E+03  2.30480E+04  1.27008E+04
  5.06297E+03  3.57798E+04 -3.23666E+04  3.57522E+04 -6.44830E+04  2.75419E+03 -5.75031E+04 -4.27900E+04
 -1.25913E+04 -6.34072E+04  4.02748E+04 -4.57950E+04  5.82758E+04 -2.60863E+03  3.40804E+04  3.19864E+04
 -6.16116E+03  3.63735E+04 -3.10820E+04  1.82584E+04 -3.22478E+04 -4.03158E+03 -1.85533E+04 -1.15076E+04
 -8.84491E+03 -1.43205E+04 -3.22441E+02 -1.80736E+04  7.51944E+03 -2.27182E+04  1.51051E+04 -1.26358E+04
  1.16633E+04  4.32025E+03 -9.26527E+03  1.27798E+04 -2.18293E+04 -6.10379E+03 -8.20510E+03 -3.54182E+04
  2.40558E+04 -4.43571E+04  5.06304E+04 -1.81155E+04  4.55858E+04  1.97457E+04  1.59681E+04  4.49679E+04
 -1.62254E+04  3.45814E+04 -2.66201E+04  1.60905E+03 -1.01384E+04 -2.86019E+04  2.14360E+04 -3.49948E+04
  4.13509E+04 -1.04934E+04  3.72886E+04  2.39019E+04  1.91033E+04  4.68693E+04 -8.19475E+03  5.22575E+04
 -3.26014E+04  3.30591E+04 -4.34549E+04  1.11941E+04 -4.29553E+04 -1.59164E+04 -2.43444E+04 -3.92667E+04
  6.51437E+03 -3.85480E+04  3.33734E+04 -1.45783E+04  3.01250E+04  1.04911E+04  4.18051E+03  1.87511E+04
 -1.32690E+04  8.71092E+03 -1.08178E+04 -6.23271E+03  6.46916E+03 -1.16808E+04  1.90026E+04  6.12700E+03
  1.46646E+04  2.23912E+04 -5.61420E+03  2.42655E+04 -2.32525E+04  1.16937E+04 -2.84624E+04 -4.94598E+03
 -2.23783E+04 -1.71012E+04 -8.28769E+03 -2.10454E+04  4.31684E+03 -2.13123E+04  1.62962E+04 -1.72481E+04
  2.70072E+04 -1.40181E+04  3.18396E+04  3.21587E+03  2.39226E+04  1.99788E+04  3.91320E+03  3.70846E+04
 -1.77310E+04  3.13929E+04 -2.84616E+04  9.33449E+03 -2.06054E+04 -9.48170E+03 -4.91839E+03 -1.39220E+04
  1.52658E+03 -1.88987E+03 -4.74288E+03  8.19619E+03 -1.71549E+04  4.78175E+03 -1.69034E+04 -7.30436E+03
 -1.10291E+04 -1.92032E+04  6.46547E+03 -2.48330E+04  1.59880E+04 -1.71629E+04  1.73176E+04 -2.67459E+02
  1.17479E+04  1.42049E+04 -1.17402E+03  2.01255E+04 -1.48183E+04  1.11407E+04 -1.97410E+04 -4.16402E+03
 -1.47825E+04 -1.66975E+04 -2.25691E+03 -2.33528E+04  1.19097E+04 -2.01654E+04  2.09173E+04 -1.06177E+04
  1.91443E+04  9.65040E+02  1.36516E+04  4.55679E+03  6.68838E+03  1.82528E+03  1.02797E+04 -1.81310E+03
  1.80406E+04  3.49993E+03  1.97401E+04  1.49828E+04  1.24814E+04  3.12311E+04 -1.93608E+03  3.55054E+04
 -2.09639E+04  2.87460E+04 -3.23590E+04  1.53573E+04 -3.56335E+04 -2.91347E+03 -2.87889E+04 -2.07322E+04
 -1.17843E+04 -2.94491E+04  1.00958E+04 -2.56819E+04  2.21952E+04 -1.35805E+04  1.92611E+04  6.50464E+03
  7.62580E+03  1.56252E+04 -1.01299E+04  1.27812E+04 -1.66696E+04  1.09644E+03 -1.32932E+04 -1.00916E+04
  2.89968E+01 -1.61780E+04  7.63420E+03 -1.10249E+04  1.08228E+04 -1.90259E+03  1.27525E+03  7.30341E+03
 -6.93328E+03  2.46597E+03 -6.98402E+03 -6.45165E+03 -2.53793E+02 -1.29158E+04  9.87991E+03 -1.47531E+04
  1.74859E+04 -7.20885E+03  2.00182E+04  3.34978E+03  1.66635E+04  1.48731E+04  6.55541E+03  2.10819E+04
 -2.45404E+03  2.35731E+04 -1.46850E+04  1.42765E+04 -1.75081E+04  3.42645E+03 -1.21662E+04 -3.25644E+03
 -6.99678E+03 -5.87080E+03 -1.42678E+03  1.10799E+03 -2.76106E+03  2.40127E+03 -6.10897E+03  5.03860E+03
 -1.00783E+04 -1.01744E+02 -1.17846E+04 -9.50405E+03 -4.75606E+03 -1.54877E+04  4.51757E+03 -1.25958E+04
  9.87259E+03 -4.09679E+03  7.04997E+03  2.91249E+03 -6.65765E+01  4.31675E+03 -6.30043E+03 -1.73821E+02
 -5.65760E+03 -5.95502E+03 -1.52838E+03 -1.13173E+04  7.67730E+03 -1.18749E+04  1.49913E+04 -6.25979E+03
  1.76288E+04  1.12780E+03  1.31561E+04  1.04724E+04  2.81212E+03  1.39311E+04 -7.78463E+03  1.06590E+04
 -9.46815E+03  2.85016E+03 -5.04663E+03 -1.93914E+03  8.46140E+02 -3.28526E+03  6.98749E+03 -9.55748E+02
  6.54004E+03  4.51081E+03  1.08942E+01  7.90586E+03 -4.63127E+03  9.23502E+03 -1.00983E+04  2.88555E+03
 -7.43411E+03 -5.35505E+03  6.04631E+02 -9.83094E+03  5.64461E+03 -4.34280E+03  6.26920E+03  1.57633E+03
  2.11971E+03  6.65596E+03 -6.82989E+03  7.72856E+03 -8.91951E+03  4.67639E+03 -8.84064E+03 -2.69795E+03
 -4.11128E+03 -1.06800E+04  3.29874E+03 -1.33485E+04  9.60739E+03 -9.06481E+03  1.10111E+04  1.56575E+03
  7.08299E+03  8.31710E+03 -2.98634E+02  1.09549E+04 -8.53863E+03  6.60495E+03 -9.06488E+03 -6.54793E+02
 -8.77705E+03 -7.04295E+03 -9.84441E+02 -7.76038E+03  3.49366E+03 -6.54940E+03  5.34091E+03 -3.39225E+03
  4.20513E+03  7.04605E+02 -1.10171E+03  1.77305E+03 -3.21844E+02 -2.12476E+03  2.00060E+03 -4.93476E+03
  6.45427E+03 -3.72968E+03  9.57412E+03  1.48575E+03  8.87362E+03  6.94655E+03  7.09869E+03  1.28099E+04
 -3.04119E+03  1.42022E+04 -1.35328E+04  1.10347E+04 -1.60130E+04  2.16836E+03 -1.34847E+04 -4.78379E+03
 -6.95855E+03 -1.07676E+04 -1.62594E+03 -8.92224E+03  2.80578E+03 -4.41709E+03  3.57986E+03 -3.49714E+03
  1.18697E+03 -2.09041E+03  3.00047E+03 -2.39366E+03  3.70704E+03 -1.58924E+03  5.19695E+03  1.68674E+02
  6.53559E+03  1.07503E+03  3.47245E+03  5.02774E+03 -3.31991E+03  6.28914E+03 -6.73565E+03  3.58899E+03
 -8.19702E+03  2.72660E+01 -4.07184E+03 -6.53340E+03 -1.57857E+03 -9.25610E+03  5.50323E+03 -9.62666E+03
  8.30977E+03 -5.23944E+03  1.16124E+04  1.95106E+03  8.59111E+03  8.52963E+03  9.69892E+02  9.42013E+03
 -4.89068E+03  8.73850E+03 -6.97708E+03  2.68484E+03 -4.19952E+03 -2.25310E+03 -1.37450E+03 -1.44566E+03
 -2.09372E+03  9.93637E+02 -1.97917E+03  1.12852E+03 -4.18077E+03  7.77807E+02 -5.68191E+03 -4.12205E+02
 -3.84923E+03 -6.29130E+03 -6.40171E+02 -8.48479E+03  5.23721E+03 -6.66245E+03  7.57767E+03 -1.79003E+03
  7.33853E+03  4.49605E+03  3.09031E+03  7.93327E+03 -1.33965E+03  8.54090E+03 -5.73375E+03  4.26636E+03
 -7.46503E+03 -7.06109E+02 -7.53679E+03 -6.18705E+03  7.29570E+02 -7.16439E+03  3.12196E+03 -5.27250E+03
  4.42542E+03 -2.62959E+03  3.70965E+03  1.25122E+03  7.11423E+02  2.56046E+03  2.64939E+02  5.96978E+02
  2.21152E+03  6.09183E+02  1.66196E+03  2.08893E+03  1.41729E+03  3.31823E+03  1.92772E+03  3.31061E+03
 -2.61314E+03  5.71881E+03 -6.01762E+03  6.03497E+03 -7.87163E+03  2.05901E+03 -8.37773E+03 -1.64445E+03
 -5.47046E+03 -8.05884E+03  1.53977E+03 -9.43680E+03  4.29618E+03 -5.58637E+03  6.04927E+03 -1.39056E+03
  3.75613E+03  3.71113E+03  6.11093E+02  3.57597E+03 -2.45612E+03  2.79590E+03 -2.97818E+03  3.09029E+02
 -1.49604E+03 -3.67628E+03  2.50334E+03 -3.23871E+03  2.47590E+03 -2.01967E+03  2.38128E+03  1.54679E+03
  2.94843E+03  1.57506E+03  1.36431E+02  5.40936E+02  1.68100E+01  1.28387E+03  1.60939E+03 -3.30005E+02
  2.08800E+03 -1.03906E+03  2.61160E+03  7.65905E+02  2.17926E+03  4.18231E+03 -4.10053E+02  5.91606E+03
 -2.54340E+03  3.55049E+03 -4.43656E+03  1.14322E+03 -5.85787E+03 -2.43065E+03 -1.86219E+03 -1.86384E+03
  3.23391E+02 -2.75522E+03  3.07817E+03 -2.78594E+03  1.05026E+03  1.43814E+03 -8.51197E+02  2.54650E+03
 -3.40865E+03  5.52621E+02 -3.79761E+03 -1.02562E+03 -2.19918E+03 -3.80637E+03  3.12394E+02 -4.48806E+03
  1.89857E+03 -2.20409E+03  9.27841E+02  8.09501E+02  3.05426E+03  1.72220E+03 -2.64926E+02  2.07200E+03
 -1.54810E+02  1.26073E+03 -3.12541E+03 -2.83789E+02  1.60764E+03 -2.65363E+03  5.64821E+03 -4.22027E+03
  3.17025E+03 -6.24821E+02  5.91016E+03  2.72108E+03  6.50822E+02  4.46469E+03 -1.22693E+03  4.30869E+03
 -4.94443E+03  2.18704E+03 -3.36573E+03 -1.22807E+03 -2.99589E+03 -3.37464E+03  9.18109E+02 -2.01671E+03
  3.02041E+03  5.11233E+01  3.16210E+03  1.90475E+03  1.34190E+03  2.79212E+03 -1.08567E+02  2.20984E+03
 -1.49234E+03  1.33690E+03 -5.26512E+02 -7.41024E+02 -1.94292E+02  1.21154E+03 -8.16845E+02  1.79063E+02
 -2.04941E+03  6.40813E+02 -2.21082E+03  2.01030E+02 -3.85010E+03  3.33048E+02 -4.67110E+03 -2.60869E+03
 -3.15910E+03 -4.99186E+03  5.93854E+02 -5.89895E+03  2.94756E+03 -4.40270E+03  5.79936E+03 -1.98607E+03
  4.91984E+03  2.22004E+03  3.96088E+03  4.44795E+03 -8.64082E+02  3.43424E+03 -2.51728E+03  3.32222E+03
 -2.58658E+03  1.78465E+03 -8.90315E+02 -2.55934E+02 -5.17928E+02  5.54824E+02 -5.50092E+02 -1.13631E+03
 -1.44913E+03 -5.70554E+02 -1.18051E+03  1.30046E+03  2.94828E+02 -1.06505E+03  7.55252E+02 -1.08150E+03
  2.82885E+03 -2.36587E+03  2.25508E+03  3.09200E+02  3.08746E+03  2.19798E+03 -1.79104E+02  3.67606E+03
 -2.73146E+03  4.18889E+03 -4.46561E+03  3.01712E+03 -4.90884E+03 -1.28303E+03 -4.38420E+03 -3.24172E+03
  3.69483E+01 -4.44368E+03  2.51904E+03 -2.70334E+03  2.66052E+03 -2.53215E+03  2.82715E+03  1.08883E+02
  1.29700E+03  3.60135E+02 -2.82461E+02 -7.97617E+01  1.57811E+02  1.12785E+02  4.22727E+02 -5.31752E+01
  1.23762E+03 -1.76835E+03  7.67510E+02 -3.87899E+02  3.48345E+02  9.82737E+02  3.81780E+02  1.16678E+03
 -1.55729E+03  6.91002E+02 -3.27674E+03  1.24243E+03 -1.72320E+03 -2.21038E+03 -1.35022E+03 -3.62613E+03
  2.40724E+03 -2.66292E+03  2.78039E+03 -1.99925E+02  1.54150E+03 -3.77324E+02  7.24999E+02  2.75661E+03
  7.12743E+02  1.93251E+03 -9.38733E+02  2.24184E+03 -2.13984E+03  2.20164E+03 -1.69615E+03  2.34108E+02
 -3.75982E+02  7.48307E+02 -2.59310E+03  9.93500E+02 -4.95982E+02  1.65747E+03 -2.31011E+03 -1.26636E+03
 -2.54245E+03 -3.43666E+01 -3.34810E+02 -3.12327E+03  2.25264E+03 -3.04286E+03  2.46145E+03  7.80182E+01
  2.34554E+03  1.12856E+03  2.94108E+02  1.01274E+03 -1.90488E+03  1.91156E+03 -1.15836E+03  2.20701E+03
