 $NMID ID='MM_0lb_SNR200_11hz_g45_43.RAW', FMTDAT='(8E13.5)'
 TRAMP=1., VOLUME=1. $END
  3.09610E+05  4.86250E+02  3.37736E+05  2.51534E+05  8.47582E+04  3.37545E+05 -1.31746E+05  2.51240E+05
 -1.90619E+05  8.35668E+04 -1.11052E+05 -3.21796E+04  4.99758E+02 -4.97426E+04  5.38524E+04 -4.84825E+02
  3.44736E+04  5.27733E+04 -1.78715E+04  7.53241E+04 -6.26131E+04  6.51569E+04 -8.64245E+04  3.14365E+04
 -8.06050E+04 -1.10471E+04 -5.73112E+04 -5.24057E+04 -1.59238E+04 -7.08433E+04  2.72850E+04 -4.75676E+04
  4.20092E+04  2.82143E+03  1.58851E+04  4.77375E+04 -3.29305E+04  4.71922E+04 -6.68496E+04  4.68832E+02
 -5.43156E+04 -5.72611E+04 -8.44986E+03 -7.82341E+04  3.54739E+04 -5.54530E+04  4.87323E+04 -1.69588E+04
  4.26752E+04  1.10534E+04  3.13469E+04  2.64099E+04  1.60182E+04  2.90961E+04 -4.20168E+03  2.65262E+04
 -2.18494E+04  1.19605E+04 -1.78604E+04 -5.08332E+03  6.63656E+03 -7.60198E+03  2.19040E+04  1.31111E+04
  7.45266E+03  3.65518E+04 -3.32446E+04  3.56825E+04 -6.39102E+04  1.10258E+03 -5.71402E+04 -4.33414E+04
 -1.06493E+04 -6.39387E+04  4.15134E+04 -4.57133E+04  6.00565E+04 -1.60861E+03  3.57690E+04  3.38254E+04
 -6.02859E+03  3.81231E+04 -3.08385E+04  1.68034E+04 -3.24976E+04 -3.60608E+03 -1.79287E+04 -1.22446E+04
 -9.55312E+03 -1.28224E+04  2.22531E+02 -1.73895E+04  7.66050E+03 -2.40727E+04  1.59527E+04 -1.36952E+04
  1.15555E+04  6.34360E+03 -8.85885E+03  1.23296E+04 -2.30162E+04 -6.05353E+03 -9.79513E+03 -3.64159E+04
  2.34658E+04 -4.64437E+04  4.98804E+04 -2.06282E+04  4.64551E+04  2.07968E+04  1.75484E+04  4.41609E+04
 -1.58301E+04  3.49193E+04 -2.69530E+04  3.27733E+03 -9.84175E+03 -2.94147E+04  2.22512E+04 -3.58100E+04
  4.40503E+04 -9.95754E+03  3.77747E+04  2.49641E+04  1.98457E+04  4.85895E+04 -9.43356E+03  5.18954E+04
 -3.41305E+04  3.45854E+04 -4.50019E+04  1.08172E+04 -4.32018E+04 -1.83054E+04 -2.44587E+04 -4.06822E+04
  7.26272E+03 -3.90020E+04  3.30724E+04 -1.83072E+04  2.95008E+04  1.02372E+04  3.88703E+03  1.99154E+04
 -1.42348E+04  8.66299E+03 -1.06341E+04 -7.21845E+03  5.36735E+03 -1.20164E+04  1.84036E+04  5.02263E+03
  1.54718E+04  2.27791E+04 -5.78010E+03  2.61603E+04 -2.35571E+04  1.32681E+04 -3.03045E+04 -3.71743E+03
 -2.32331E+04 -1.93793E+04 -1.05217E+04 -2.22915E+04  4.21986E+03 -2.15481E+04  1.79901E+04 -2.13882E+04
  2.85893E+04 -1.47273E+04  3.41236E+04  4.99312E+03  2.36443E+04  2.30021E+04  4.55889E+03  3.92321E+04
 -1.94941E+04  3.20581E+04 -2.89613E+04  1.13872E+04 -2.24159E+04 -1.03278E+04 -4.63836E+03 -1.27224E+04
  6.41676E+02 -3.29472E+03 -7.09221E+03  8.18679E+03 -1.70962E+04  5.73606E+03 -1.90273E+04 -7.28635E+03
 -1.11339E+04 -2.19190E+04  4.53717E+03 -2.46291E+04  1.71897E+04 -1.65444E+04  2.06873E+04 -1.33900E+03
  1.44444E+04  1.48087E+04 -5.76678E+02  2.17835E+04 -1.48645E+04  1.03665E+04 -2.20614E+04 -3.45999E+03
 -1.56490E+04 -2.04598E+04 -2.47139E+03 -2.47141E+04  1.18399E+04 -2.16399E+04  2.11266E+04 -9.37541E+03
  2.08311E+04 -5.17365E+02  1.46614E+04  5.25846E+03  7.54751E+03  2.20681E+03  1.01320E+04 -2.08348E+03
  1.89882E+04  3.32318E+03  2.25842E+04  1.73240E+04  1.67033E+04  3.29631E+04 -4.43159E+03  3.81788E+04
 -2.27199E+04  3.23862E+04 -3.65089E+04  1.59776E+04 -3.94693E+04 -2.63113E+03 -3.19705E+04 -2.25957E+04
 -1.42833E+04 -3.19224E+04  1.14653E+04 -2.92806E+04  2.41597E+04 -1.42998E+04  2.19509E+04  7.97571E+03
  8.27892E+03  1.74404E+04 -9.64758E+03  1.31186E+04 -1.92085E+04  2.63701E+03 -1.20506E+04 -9.91261E+03
 -9.79606E+01 -1.69375E+04  9.79494E+03 -1.43497E+04  1.16212E+04 -1.86914E+02  2.76065E+03  7.52118E+03
 -6.68082E+03  3.94224E+03 -7.44180E+03 -6.64204E+03  2.12015E+02 -1.53491E+04  1.17774E+04 -1.75759E+04
  1.94323E+04 -9.22357E+03  2.09745E+04  2.70224E+03  1.96370E+04  1.66063E+04  8.57338E+03  2.47732E+04
 -4.69828E+03  2.57409E+04 -1.65514E+04  1.70959E+04 -1.93011E+04  2.44715E+03 -1.28177E+04 -5.35846E+03
 -6.16599E+03 -4.64547E+03  2.00611E+02  4.49032E+02 -2.78503E+03  2.23370E+03 -6.63913E+03  4.81948E+03
 -1.27930E+04 -4.90030E+02 -1.30837E+04 -8.75347E+03 -6.12499E+03 -1.71587E+04  5.54451E+03 -1.18945E+04
  1.16462E+04 -4.85687E+03  8.28910E+03  2.85002E+03  4.42227E+02  5.76845E+03 -6.43699E+03  3.80333E+02
 -5.89644E+03 -9.88644E+03 -1.69557E+03 -1.36177E+04  6.55456E+03 -1.35374E+04  1.83009E+04 -7.57178E+03
  2.00036E+04  2.10541E+03  1.45698E+04  1.09520E+04  2.20998E+03  1.66892E+04 -7.16741E+03  1.36981E+04
 -9.43142E+03  3.77547E+03 -6.53089E+03 -3.77133E+03  1.71346E+03 -3.18351E+03  7.27814E+03 -9.22715E+02
  6.69448E+03  6.72918E+03 -7.25053E+01  9.79438E+03 -6.58567E+03  1.05314E+04 -1.29045E+04  2.64742E+03
 -9.67068E+03 -6.29850E+03  2.98390E+02 -1.17783E+04  7.74260E+03 -6.20710E+03  7.66641E+03  2.66667E+03
  2.67792E+03  9.65447E+03 -5.03367E+03  8.29271E+03 -1.08407E+04  5.54720E+03 -1.03949E+04 -4.64645E+03
 -5.63343E+03 -1.37426E+04  3.33000E+03 -1.40174E+04  1.26830E+04 -9.15682E+03  1.34330E+04  2.28228E+03
  8.23087E+03  1.10127E+04 -2.64700E+03  1.41847E+04 -9.51429E+03  7.03437E+03 -1.10453E+04 -1.19511E+03
 -8.48785E+03 -9.27166E+03 -3.54040E+02 -1.07561E+04  4.75905E+03 -7.44067E+03  5.33981E+03 -3.67355E+03
  4.59949E+03  1.30342E+03  6.09887E+02  2.21095E+03 -2.84352E+01 -2.33976E+03  1.93391E+03 -6.09646E+03
  9.48253E+03 -2.93193E+03  1.30642E+04  1.08047E+03  1.25153E+04  8.54742E+03  9.43909E+03  1.77928E+04
 -2.79414E+03  2.02270E+04 -1.54670E+04  1.44096E+04 -2.15193E+04  1.78873E+03 -1.56009E+04 -6.57324E+03
 -9.87591E+03 -1.34020E+04  2.15966E+02 -1.19196E+04  5.12400E+03 -5.99313E+03  3.73336E+03 -4.10879E+03
  2.66156E+03 -4.31397E+03  4.47257E+03 -3.54690E+03  6.46141E+03 -2.48759E+03  6.67017E+03 -1.49427E+03
  8.60080E+03  2.94356E+03  3.09787E+03  4.95414E+03 -3.10869E+03  8.28029E+03 -9.78756E+03  5.95147E+03
 -1.13042E+04 -5.64547E+02 -7.01231E+03 -8.57132E+03 -1.86989E+03 -1.28859E+04  6.98851E+03 -1.22924E+04
  1.18463E+04 -5.45242E+03  1.59524E+04  2.90180E+03  1.20781E+04  1.13339E+04  1.57558E+03  1.41989E+04
 -5.76841E+03  1.04035E+04 -7.81989E+03  3.72186E+03 -7.07297E+03 -2.30423E+03 -1.92197E+03 -1.18994E+03
 -3.18641E+02  4.62797E+02 -2.32749E+03  3.25294E+03 -5.88317E+03  1.83059E+03 -1.00740E+04 -2.05145E+03
 -4.81643E+03 -8.56398E+03  5.40720E+02 -1.02129E+04  6.36188E+03 -1.11530E+04  1.20604E+04 -3.05710E+03
  1.11732E+04  5.20041E+03  5.21395E+03  1.01856E+04 -2.24789E+03  1.08142E+04 -6.34885E+03  8.91386E+03
 -9.45525E+03  1.66090E+00 -8.18492E+03 -6.96709E+03 -1.37969E+03 -8.55211E+03  4.50785E+03 -7.04724E+03
  7.29016E+03 -3.00766E+03  4.91869E+03  1.29338E+03  1.94893E+03  4.08891E+03  1.49728E+03  1.36137E+03
  2.03127E+03  1.34749E+02  2.01272E+03  1.36924E+03  4.54357E+03  5.66207E+03  3.14007E+03  5.77241E+03
 -1.50082E+03  8.46496E+03 -7.93321E+03  9.16028E+03 -1.06147E+04  4.38525E+03 -1.04858E+04 -3.93450E+03
 -5.45116E+03 -1.01083E+04  7.82893E+02 -1.21131E+04  6.39823E+03 -8.18498E+03  9.27597E+03 -2.48009E+03
  7.13627E+03  5.65258E+03  2.67145E+03  8.20652E+03 -3.01292E+03  4.84208E+03 -5.09707E+03 -1.96770E+03
 -1.87082E+03 -4.50213E+03  2.34794E+03 -4.34317E+03  5.42778E+03 -2.31174E+03  5.50438E+03  1.11938E+03
  3.12417E+03  1.16135E+03  2.34590E+03  3.33071E+03 -6.55607E+02  1.31393E+03  1.84549E+03  2.22230E+02
  2.25654E+03 -1.31867E+03  2.49590E+03  2.34532E+03  3.56453E+03  6.31418E+03 -1.53885E+03  8.21776E+03
 -5.11365E+03  3.82584E+03 -7.17229E+03  2.58563E+03 -5.78995E+03 -2.17484E+03 -1.94134E+03 -4.59727E+03
  1.27445E+03 -5.23173E+03  3.59986E+03 -9.76181E+02  2.55358E+03  3.42224E+03 -2.68037E+03  4.39120E+03
 -4.99746E+03  1.10283E+03 -5.72190E+03 -3.23482E+03 -4.10312E+03 -5.47280E+03  1.22610E+03 -5.59479E+03
  3.48486E+03 -4.51661E+03  4.43759E+03 -1.28098E+03  3.37440E+03  7.00864E+02  9.46619E+02  3.31644E+03
 -2.18017E+03  1.16576E+03 -4.26281E+03 -2.31247E+03  7.96529E+02 -4.31156E+03  7.03655E+03 -4.17250E+03
  6.56723E+03 -8.00736E+02  8.07166E+03  4.00646E+03  2.24011E+03  6.76120E+03 -8.97039E+02  6.67034E+03
 -7.24038E+03  3.26901E+03 -6.19922E+03 -1.05327E+03 -2.95045E+03 -4.75824E+03  2.22623E+03 -4.17485E+03
  5.48444E+03 -2.28680E+03  4.44508E+03  2.07691E+03  1.97766E+03  5.72877E+03 -8.56940E+01  2.95878E+03
 -2.38854E+03  1.07774E+03 -1.89049E+03  4.67957E+02 -4.78850E+02  1.11175E+03 -1.15570E+03  5.93390E+02
 -2.28324E+03  3.06832E+03 -5.34949E+03  3.04916E+03 -8.08578E+03  9.07019E+02 -7.84242E+03 -5.29521E+03
 -3.41980E+03 -8.81083E+03  2.29953E+03 -1.19551E+04  7.09898E+03 -9.28993E+03  9.08333E+03 -2.44407E+03
  8.68274E+03  1.18693E+03  6.50569E+03  6.30728E+03  5.60390E+02  7.17740E+03 -3.64505E+03  4.86649E+03
 -3.62041E+03  2.00630E+03 -2.62503E+03  5.26057E+02 -1.33236E+03 -3.66350E+01 -7.90625E+02  4.63320E+02
 -2.02409E+03  1.24539E+03 -9.01706E+02  9.27519E+02  1.68336E+02 -2.41019E+03 -2.37312E+02 -2.95433E+03
  3.22561E+03 -3.01228E+03  4.82753E+03 -7.38345E+02  5.62476E+03  3.14424E+03  1.62837E+03  7.07471E+03
 -2.77800E+03  7.91922E+03 -7.65642E+03  5.57946E+03 -9.15472E+03  3.77252E+01 -5.51487E+03 -5.43503E+03
 -1.77907E+03 -8.42950E+03  2.06545E+03 -6.31609E+03  4.32040E+03 -4.10025E+03  5.29177E+03 -3.25059E+02
  2.88073E+03  3.32985E+03 -9.33111E+01  3.18886E+03 -1.49314E+03  4.16999E+01 -3.25455E+01 -1.41789E+03
  2.35259E+03 -1.36601E+03  3.14089E+03  1.37124E+03  1.68135E+03  3.04884E+03  1.27504E+03  3.50632E+03
 -3.44681E+03  3.44518E+03 -4.78380E+03  6.31812E+02 -4.00663E+03 -4.40970E+03 -5.78181E+02 -5.96275E+03
  2.06296E+03 -4.76330E+03  5.58531E+03 -2.16019E+03  5.85698E+03  1.30093E+03  3.84760E+03  3.14891E+03
  1.64494E+03  3.01673E+03 -2.88590E+03  1.91700E+03 -3.38712E+03  1.83010E+03 -1.00588E+03  7.26993E+02
 -2.35476E+03 -6.51792E+02 -1.24052E+03  7.65930E+02 -2.54404E+03  2.20808E+02 -5.12573E+03 -1.48299E+03
 -3.53117E+03 -1.74414E+03 -1.60743E+03 -3.48062E+03  2.45695E+03 -5.84092E+03  4.52515E+03 -1.96267E+03
  5.15516E+03  4.38898E+02  1.29252E+03  4.85665E+03  5.70128E+02  4.94138E+03 -2.62258E+03  2.21633E+03
