 $NMID ID='MM_0lb_SNR200_13hz_g40_26.RAW', FMTDAT='(8E13.5)'
 TRAMP=1., VOLUME=1. $END
  3.09354E+05 -1.69354E+02  3.37299E+05  2.51238E+05  8.40685E+04  3.37774E+05 -1.33269E+05  2.50469E+05
 -1.90536E+05  8.22977E+04 -1.12426E+05 -3.19297E+04 -1.78832E+02 -5.02429E+04  5.37672E+04 -1.12722E+03
  3.53357E+04  5.32293E+04 -1.64262E+04  7.68140E+04 -6.14921E+04  6.34235E+04 -8.35691E+04  3.12489E+04
 -8.11644E+04 -1.14767E+04 -5.66867E+04 -5.07598E+04 -1.46287E+04 -6.86233E+04  2.67850E+04 -4.53882E+04
  3.92160E+04  4.57223E+03  1.67649E+04  4.73994E+04 -3.38370E+04  4.66389E+04 -6.70078E+04  1.09613E+03
 -5.16802E+04 -5.73958E+04 -5.89731E+03 -7.61905E+04  3.45542E+04 -5.44820E+04  4.82740E+04 -1.71667E+04
  4.33303E+04  1.19287E+04  3.07530E+04  2.61391E+04  1.57351E+04  2.91717E+04 -4.94573E+03  2.72836E+04
 -2.21010E+04  1.23944E+04 -1.81773E+04 -3.80121E+03  4.87395E+03 -6.86490E+03  2.21948E+04  1.22802E+04
  7.69765E+03  3.50785E+04 -3.25452E+04  3.39805E+04 -6.42251E+04  2.47086E+03 -5.59127E+04 -4.22875E+04
 -1.27245E+04 -6.28633E+04  3.93062E+04 -4.46866E+04  5.75576E+04 -1.50430E+03  3.30970E+04  3.20013E+04
 -6.58497E+03  3.70993E+04 -2.90508E+04  1.69688E+04 -3.01734E+04 -4.23683E+03 -1.63387E+04 -1.19739E+04
 -8.67701E+03 -1.35342E+04 -7.80267E+02 -1.73255E+04  7.48532E+03 -2.29283E+04  1.59362E+04 -1.39695E+04
  1.04890E+04  5.60708E+03 -7.66129E+03  1.29249E+04 -2.12722E+04 -3.85095E+03 -8.35256E+03 -3.35632E+04
  2.27677E+04 -4.23534E+04  4.85617E+04 -1.83291E+04  4.44218E+04  1.91695E+04  1.59503E+04  4.32911E+04
 -1.60130E+04  3.36903E+04 -2.54461E+04  2.21924E+03 -1.03133E+04 -2.89556E+04  2.16056E+04 -3.32066E+04
  4.07881E+04 -9.42464E+03  3.58184E+04  2.37116E+04  1.83288E+04  4.74840E+04 -8.18944E+03  4.96530E+04
 -3.10211E+04  3.27469E+04 -4.30416E+04  9.48619E+03 -4.25225E+04 -1.62044E+04 -2.42509E+04 -3.72374E+04
  7.16305E+03 -3.74633E+04  3.18321E+04 -1.41478E+04  2.87999E+04  1.11063E+04  4.86787E+03  1.80352E+04
 -1.29055E+04  8.86245E+03 -9.14490E+03 -7.71555E+03  5.51331E+03 -1.10118E+04  1.88295E+04  5.61029E+03
  1.30747E+04  2.18627E+04 -5.23946E+03  2.47505E+04 -2.24316E+04  1.20527E+04 -2.82308E+04 -5.37064E+03
 -2.12588E+04 -1.60958E+04 -8.49234E+03 -2.07185E+04  4.50031E+03 -1.98666E+04  1.49245E+04 -1.81326E+04
  2.56413E+04 -1.29143E+04  3.34630E+04  3.73902E+03  2.33707E+04  2.00318E+04  4.35768E+03  3.73453E+04
 -1.82799E+04  3.09102E+04 -2.85168E+04  9.73730E+03 -2.04988E+04 -1.09413E+04 -4.03948E+03 -1.28492E+04
  2.96940E+03 -2.54252E+03 -4.74204E+03  5.85824E+03 -1.61896E+04  4.57031E+03 -1.63685E+04 -7.07421E+03
 -9.78670E+03 -1.90150E+04  4.75005E+03 -2.32603E+04  1.42341E+04 -1.66495E+04  1.69730E+04 -1.75699E+03
  1.03155E+04  1.41097E+04 -2.85864E+03  1.99476E+04 -1.28615E+04  1.20851E+04 -2.02092E+04 -3.99519E+03
 -1.42439E+04 -1.64567E+04 -2.35330E+03 -2.27141E+04  1.10121E+04 -1.86437E+04  1.86091E+04 -1.01659E+04
  1.75079E+04  5.85577E+02  1.20130E+04  4.94599E+03  7.32178E+03  7.63971E+02  8.89961E+03 -1.11283E+03
  1.74420E+04  2.26456E+03  1.99301E+04  1.46742E+04  1.48472E+04  3.04041E+04 -3.16577E+03  3.43304E+04
 -2.14663E+04  2.84872E+04 -3.26685E+04  1.54695E+04 -3.36834E+04 -1.80674E+03 -2.83801E+04 -1.89822E+04
 -1.19205E+04 -2.63350E+04  9.94053E+03 -2.56295E+04  2.23268E+04 -1.23179E+04  1.92754E+04  5.71335E+03
  8.09793E+03  1.41353E+04 -8.75251E+03  1.23075E+04 -1.62720E+04  3.73248E+03 -1.17768E+04 -9.86745E+03
 -1.66119E+02 -1.66959E+04  7.57713E+03 -1.21089E+04  9.97672E+03 -1.88941E+03  1.37386E+03  7.43107E+03
 -7.22428E+03  2.78521E+03 -5.61668E+03 -5.24168E+03 -6.69535E+02 -1.36283E+04  9.86064E+03 -1.27513E+04
  1.68111E+04 -7.80457E+03  1.68562E+04  1.39041E+03  1.57033E+04  1.31777E+04  7.39155E+03  2.04285E+04
 -2.54224E+03  2.23245E+04 -1.43655E+04  1.42733E+04 -1.58652E+04  3.17361E+03 -1.22010E+04 -2.86307E+03
 -4.93932E+03 -4.53828E+03 -2.98783E+02  1.77353E+03 -2.38601E+03  1.75094E+03 -5.68135E+03  3.84181E+03
 -1.06954E+04 -3.78925E+02 -1.19210E+04 -8.24117E+03 -4.85309E+03 -1.46780E+04  4.19306E+03 -1.12645E+04
  1.02549E+04 -6.07921E+03  5.35478E+03  3.23387E+03  3.47035E+02  4.25245E+03 -5.51607E+03 -8.10060E+02
 -4.98742E+03 -8.19513E+03  6.13134E+01 -1.14438E+04  7.09575E+03 -1.14566E+04  1.45193E+04 -5.66899E+03
  1.64815E+04  1.55442E+03  1.24160E+04  9.50710E+03  1.60554E+03  1.33433E+04 -7.09960E+03  1.10223E+04
 -9.66901E+03  3.15105E+03 -3.23180E+03 -1.35750E+03  1.43263E+03 -3.73505E+03  6.60366E+03 -3.95168E+02
  5.24766E+03  4.89250E+03  1.21918E+03  8.39460E+03 -5.96701E+03  9.47776E+03 -1.14149E+04  2.14852E+03
 -7.84626E+03 -4.82760E+03  8.98868E+02 -8.28290E+03  6.93997E+03 -4.10945E+03  5.82693E+03  1.82234E+03
  1.45903E+03  5.94488E+03 -5.66753E+03  8.13565E+03 -7.53126E+03  3.11238E+03 -8.77147E+03 -3.30634E+03
 -5.36106E+03 -1.03876E+04  2.35007E+03 -1.17670E+04  9.71663E+03 -7.80755E+03  1.09821E+04  8.08625E+02
  6.21556E+03  9.57836E+03 -5.85006E+02  1.00318E+04 -7.49795E+03  6.99626E+03 -7.61068E+03 -1.38228E+03
 -7.89662E+03 -7.72836E+03 -2.23938E+03 -7.34632E+03  4.20175E+03 -6.64990E+03  5.37643E+03 -3.56857E+03
  3.37608E+03  8.11008E+02 -1.71462E+02  1.91488E+03 -1.20214E+03 -2.33677E+03  7.05839E+02 -3.94539E+03
  6.26227E+03 -2.97670E+03  9.53197E+03  9.75012E+00  9.42583E+03  8.33868E+03  6.93012E+03  1.30048E+04
 -3.09395E+03  1.36791E+04 -1.25833E+04  1.07749E+04 -1.67187E+04  1.85255E+03 -1.28722E+04 -7.31109E+03
 -6.49357E+03 -1.03244E+04  8.70519E+02 -9.35491E+03  2.39750E+03 -4.72905E+03  2.17814E+03 -3.63865E+03
  1.84749E+03 -3.39319E+03  2.35693E+03 -3.35184E+03  3.51038E+03 -3.04895E+03  5.68549E+03 -8.55713E+02
  6.99687E+03  1.55657E+03  2.73407E+03  5.18091E+03 -2.31709E+03  6.53940E+03 -7.95019E+03  5.05329E+03
 -8.22375E+03 -5.48249E+02 -4.98345E+03 -6.01000E+03 -7.54798E+02 -9.38651E+03  4.76050E+03 -7.87593E+03
  9.59890E+03 -5.40814E+03  1.15435E+04  1.28982E+03  8.70887E+03  7.96109E+03  8.23042E+02  1.12390E+04
 -3.98560E+03  9.53853E+03 -5.46629E+03  3.82195E+03 -3.52727E+03 -2.23770E+03 -3.08691E+02 -1.56470E+03
 -6.90103E+02 -6.79641E+02 -1.33103E+03  2.41998E+03 -4.01083E+03  2.32671E+03 -6.38740E+03 -1.43441E+03
 -4.40232E+03 -7.74813E+03  1.17472E+03 -8.42599E+03  5.17939E+03 -6.77788E+03  8.34242E+03 -6.87093E+02
  8.59509E+03  5.50263E+03  4.12769E+03  7.07376E+03 -2.34450E+03  1.04932E+04 -7.02172E+03  4.62834E+03
 -6.81308E+03  3.54058E+02 -6.08242E+03 -5.44536E+03 -1.09943E+03 -7.26661E+03  3.09934E+03 -4.08485E+03
  5.43157E+03 -2.03107E+03  3.05546E+03  3.32689E+03  1.04353E+03  2.52893E+03  2.19825E+02  1.57064E+03
  3.14946E+03  3.11063E+02  2.16344E+03  1.45008E+03  2.22988E+03  3.51493E+03  3.21928E+03  2.69426E+03
 -1.10355E+03  5.26490E+03 -6.23199E+03  6.10433E+03 -8.03582E+03  1.35911E+03 -8.20154E+03 -3.37075E+03
 -4.60442E+03 -7.78230E+03  1.40442E+03 -9.59593E+03  4.38311E+03 -6.62936E+03  6.28938E+03 -2.24494E+03
  4.98082E+03  3.85356E+03  1.48188E+03  4.74125E+03 -2.57266E+03  1.61774E+03 -3.41250E+03 -1.59341E+03
 -1.66905E+02 -3.63619E+03  2.32081E+03 -2.86091E+03  2.56365E+03 -2.71481E+03  4.05176E+03  1.09950E+03
  4.90539E+02  1.27773E+03  1.45994E+03  1.01154E+03 -7.37779E+02  9.22387E+02  1.39205E+03 -1.08578E+03
  2.22725E+03 -1.32160E+03  3.66448E+03  1.64808E+03  7.22578E+02  3.87145E+03  3.46452E+02  5.70300E+03
 -4.86792E+03  3.68555E+03 -5.11679E+03 -3.93967E+02 -3.35961E+03 -1.70493E+03 -8.49012E+02 -3.00662E+03
  8.35819E+02 -2.92996E+03  2.85016E+03 -1.06745E+03  1.91085E+03  2.44703E+03 -3.94580E+02  2.17392E+03
 -2.70588E+03  1.96178E+03 -2.97136E+03 -2.66321E+03 -2.95947E+03 -4.53567E+03  1.37297E+03 -2.72752E+03
  1.89672E+03 -1.95526E+03  1.86790E+03 -5.48197E+02  2.76858E+03  3.19953E+02  9.76290E+02  2.85021E+03
 -1.33997E+03  2.42807E+02 -2.74788E+03 -1.06095E+03  9.95938E+01 -3.04965E+03  4.21330E+03 -1.77319E+03
  4.09870E+03  5.19632E+00  4.65108E+03  2.57500E+03  1.80576E+03  4.91390E+03 -1.30675E+03  4.60672E+03
 -4.19072E+03  1.06499E+03 -3.35847E+03 -8.28134E+02 -2.11326E+03 -3.12551E+03  9.92254E+02 -2.59643E+03
  4.25850E+03 -1.33601E+03  2.09517E+03  1.70586E+03  1.22682E+03  2.45439E+03  4.36151E+02  2.63427E+03
 -9.04771E+02  2.20062E+03 -1.66128E+03 -6.62484E+01 -1.17930E+02 -4.89960E+02 -1.10077E+03  1.69830E+03
 -7.02201E+02  5.27814E+02 -4.17904E+03  2.08476E+03 -3.99213E+03  7.94725E+02 -4.54053E+03 -3.85224E+03
 -2.06780E+03 -7.21080E+03  8.33480E+02 -8.35436E+03  3.37400E+03 -6.20027E+03  6.06227E+03 -2.19370E+03
  5.84794E+03  1.31363E+03  1.98129E+03  5.36924E+03  1.22221E+01  4.94090E+03 -2.27161E+03  3.17892E+03
 -2.78898E+03  1.45544E+03 -1.21736E+03 -2.25324E+02 -3.66492E+02  2.31365E+02 -9.66290E+02 -4.86591E+02
 -1.78446E+03 -6.55362E+02 -2.70528E+03 -1.02780E+02 -1.14666E+03 -2.64164E+03 -9.67220E+02 -2.27997E+03
  2.75643E+03 -1.72572E+03  3.19938E+03 -2.72707E+02  2.90618E+03  2.45798E+03  1.39945E+03  6.07448E+03
 -2.02694E+03  4.93020E+03 -4.33941E+03  4.29926E+03 -6.58261E+03 -5.06399E+02 -3.52168E+03 -2.70663E+03
 -3.85313E+03 -3.48354E+03  1.55911E+03 -3.74511E+03  4.04723E+03 -2.67995E+03  3.71961E+03  9.31513E+02
  2.90164E+03  1.31421E+03 -1.05940E+03  1.16429E+03 -4.59391E+02  2.74157E+02 -1.19921E+03 -1.82725E+02
 -2.06080E+01 -7.30642E+01  3.11388E+03  1.57627E+03  2.66319E+02  2.63668E+03  9.58795E+02  7.62190E+02
 -1.29951E+03  1.57686E+03 -2.41365E+03 -2.59233E+02 -3.18942E+03 -2.36016E+03 -1.04254E+02 -3.32368E+03
  2.27394E+03 -3.02507E+03  2.60738E+03 -2.43698E+02  4.31295E+03  1.03973E+02  1.79073E+03  3.19928E+03
 -3.09053E+02  2.35372E+03 -1.28957E+03  1.90352E+03 -2.16459E+03  1.11078E+03 -4.30147E+02 -6.71478E+01
 -3.68460E+02 -9.56503E+02 -1.95452E+02 -2.07670E+02 -1.27402E+03 -8.69293E+02 -2.72546E+03 -6.60131E+02
 -3.43137E+03 -8.95426E+02  7.21293E+02 -3.39252E+03  2.01459E+03 -3.97323E+03  1.73642E+03 -2.03633E+03
  3.67206E+03  3.20103E+02  1.75343E+03  1.32508E+03 -6.98000E+02  2.65828E+03 -2.45915E+03  1.23041E+03
