 $NMID ID='MM_0lb_SNR200_19hz_g45_59.RAW', FMTDAT='(8E13.5)'
 TRAMP=1., VOLUME=1. $END
  3.09221E+05  6.68608E+02  3.37603E+05  2.51003E+05  8.43040E+04  3.36944E+05 -1.32140E+05  2.50480E+05
 -1.89025E+05  8.16422E+04 -1.10149E+05 -3.27963E+04  1.13300E+03 -5.03002E+04  5.38432E+04  4.08215E+01
  3.47761E+04  5.26106E+04 -1.62200E+04  7.44834E+04 -6.04003E+04  6.28063E+04 -8.33641E+04  3.02685E+04
 -7.94573E+04 -1.03981E+04 -5.59496E+04 -5.01740E+04 -1.46506E+04 -6.87746E+04  2.77958E+04 -4.47892E+04
  3.91479E+04  3.38376E+03  1.58457E+04  4.66691E+04 -3.30450E+04  4.70017E+04 -6.51677E+04 -6.99118E+02
 -5.20398E+04 -5.53537E+04 -5.82628E+03 -7.55146E+04  3.29052E+04 -5.34395E+04  4.66457E+04 -1.64977E+04
  4.16989E+04  1.09573E+04  3.07451E+04  2.54284E+04  1.62741E+04  2.95895E+04 -6.03567E+03  2.71369E+04
 -2.15878E+04  1.31024E+04 -1.96283E+04 -3.50692E+03  4.61015E+03 -8.80841E+03  2.13216E+04  1.13509E+04
  8.08179E+03  3.27898E+04 -2.87438E+04  3.35261E+04 -6.19918E+04  2.75697E+03 -5.55946E+04 -4.06623E+04
 -1.24513E+04 -6.01786E+04  3.78520E+04 -4.36177E+04  5.56409E+04 -2.08569E+03  3.14745E+04  3.09702E+04
 -6.34932E+03  3.24191E+04 -2.77510E+04  1.30689E+04 -2.66089E+04 -6.03428E+03 -1.34839E+04 -1.03610E+04
 -7.36893E+03 -1.07378E+04 -1.05748E+03 -1.57066E+04  6.14950E+03 -2.21693E+04  1.48272E+04 -1.38927E+04
  1.21685E+04  5.48028E+03 -5.75976E+03  1.26805E+04 -1.86093E+04 -1.51617E+03 -7.64411E+03 -2.93755E+04
  2.10811E+04 -3.99212E+04  4.38202E+04 -1.84310E+04  4.13351E+04  1.61033E+04  1.45163E+04  4.20891E+04
 -1.46947E+04  3.09018E+04 -2.24726E+04 -6.08694E+01 -7.64696E+03 -2.64821E+04  2.07307E+04 -3.09128E+04
  3.77739E+04 -7.07059E+03  3.08044E+04  2.23120E+04  1.54100E+04  4.20166E+04 -8.17545E+03  4.42961E+04
 -2.79420E+04  2.96449E+04 -3.68559E+04  8.00683E+03 -3.81820E+04 -1.45853E+04 -2.17354E+04 -3.51753E+04
  7.18766E+03 -3.44209E+04  2.92201E+04 -1.35198E+04  2.72201E+04  9.59027E+03  2.70531E+03  1.77960E+04
 -1.33462E+04  6.83454E+03 -9.80850E+03 -8.35628E+03  6.37592E+03 -9.97432E+03  1.81172E+04  5.48061E+03
  1.25325E+04  2.23726E+04 -7.23335E+03  2.28756E+04 -2.20288E+04  8.81540E+03 -2.46071E+04 -6.28644E+03
 -1.54370E+04 -1.61337E+04 -4.64214E+03 -1.64349E+04  3.28273E+03 -1.38821E+04  1.29797E+04 -1.41979E+04
  2.00036E+04 -1.05601E+04  2.73458E+04  5.67962E+02  2.11645E+04  1.56548E+04  4.35090E+03  3.04083E+04
 -1.62839E+04  2.70375E+04 -2.57088E+04  9.59897E+03 -1.95046E+04 -9.97394E+03 -3.16938E+03 -1.42364E+04
  2.93122E+03 -3.69166E+03 -3.20398E+03  5.40915E+03 -1.17240E+04  4.81011E+03 -1.35384E+04 -3.52034E+03
 -7.91774E+03 -1.46086E+04  5.29126E+03 -1.88142E+04  1.15167E+04 -1.44682E+04  1.34088E+04 -6.76582E+02
  8.12372E+03  1.12742E+04 -2.16056E+02  1.57537E+04 -9.28612E+03  8.56893E+03 -1.42555E+04 -2.78085E+03
 -1.13985E+04 -1.31697E+04 -2.25736E+03 -1.84202E+04  8.96342E+03 -1.45533E+04  1.54947E+04 -6.68880E+03
  1.46855E+04  1.04579E+03  1.03959E+04  3.99303E+03  5.70950E+03  1.26530E+03  7.26126E+03 -1.00752E+03
  1.25749E+04  2.69028E+03  1.58889E+04  1.21625E+04  9.74713E+03  2.36628E+04 -2.31627E+03  2.65669E+04
 -1.53372E+04  1.95389E+04 -2.35943E+04  8.65628E+03 -2.40683E+04 -1.53539E+03 -2.07276E+04 -1.38621E+04
 -9.05624E+03 -1.86198E+04  6.16018E+03 -1.86770E+04  1.63135E+04 -9.96880E+03  1.55689E+04  3.68126E+03
  6.43831E+03  1.11879E+04 -7.35759E+03  8.91445E+03 -1.44698E+04  2.22985E+03 -9.33257E+03 -6.68055E+03
 -5.44863E+02 -1.20825E+04  5.95132E+03 -9.97152E+03  7.31073E+03 -1.33794E+03  8.72579E+02  5.26465E+03
 -5.89393E+03  2.09465E+02 -3.17547E+03 -4.64343E+03  6.29344E+02 -1.02969E+04  7.92497E+03 -9.13974E+03
  1.15334E+04 -4.11367E+03  1.05286E+04  3.11593E+03  8.98716E+03  8.75172E+03  6.00265E+03  1.25944E+04
 -1.26319E+03  1.55699E+04 -7.93023E+03  9.16308E+03 -1.16014E+04  2.88665E+03 -9.55878E+03 -1.03033E+03
 -4.75385E+03 -3.00259E+03 -8.54667E+02  2.03384E+03 -2.08729E+03  2.47565E+03 -3.06297E+03  2.62562E+03
 -8.12844E+03 -8.19864E+02 -8.79219E+03 -7.07689E+03 -3.43174E+03 -1.22771E+04  2.98869E+03 -8.21340E+03
  6.98458E+03 -3.96375E+03  5.71597E+03  1.05163E+03  4.01657E+02  3.04010E+03 -3.52002E+03 -9.26871E+02
 -2.62535E+03 -5.01411E+03 -1.23492E+03 -5.42932E+03  3.98700E+03 -7.06287E+03  8.43803E+03 -3.61411E+03
  1.12295E+04  1.17320E+02  8.28724E+03  7.21641E+03  1.64532E+03  9.11960E+03 -5.05872E+03  8.26329E+03
 -6.57243E+03  2.30662E+03 -3.37390E+03 -1.32802E+03  1.29244E+03 -1.73475E+03  4.47011E+03 -1.41392E+03
  4.67075E+03  3.43196E+03  6.83717E+01  7.09346E+03 -5.02660E+03  6.49174E+03 -8.00806E+03  2.08927E+03
 -4.41537E+03 -3.45404E+03 -3.89779E+02 -6.08278E+03  3.30169E+03 -2.50845E+03  3.16291E+03  7.73759E+02
 -1.24970E+02  2.53488E+03 -4.08472E+03  4.25841E+03 -5.50750E+03  2.15394E+03 -3.67703E+03 -1.41400E+03
 -3.22538E+03 -5.90217E+03  1.65650E+03 -6.39837E+03  5.74604E+03 -5.73528E+03  6.50599E+03  1.08113E+03
  5.18983E+03  5.06832E+03  7.64018E+02  7.42680E+03 -4.22135E+03  3.65079E+03 -3.82712E+03  5.62228E+02
 -5.99979E+03 -4.77612E+03 -1.18466E+03 -3.84499E+03  2.40357E+03 -4.26888E+03  3.03234E+03 -2.14370E+03
  1.74158E+03  1.55641E+03  1.49330E+03  4.21308E+02  8.62698E+02  2.71272E+01  1.22488E+03 -1.22178E+03
  3.49295E+03 -1.24163E+03  5.27023E+03  8.57715E+01  4.48958E+03  2.52533E+03  5.15742E+03  6.81504E+03
 -1.64020E+03  7.88714E+03 -7.11960E+03  5.39765E+03 -9.15559E+03  1.36041E+03 -6.64731E+03 -2.56128E+03
 -3.53119E+03 -6.76614E+03 -2.37598E+03 -4.24183E+03  2.03319E+03 -1.75677E+03  1.62959E+03 -2.98968E+03
  1.77423E+03 -9.13673E+02  2.32079E+03 -2.53813E+03  3.48813E+03 -1.06265E+03  2.87962E+03  8.01708E+02
  5.11586E+03  1.14405E+03  7.65784E+02  2.93404E+03 -9.97586E+02  2.82077E+03 -4.07655E+03  1.82704E+03
 -4.95703E+03 -1.16331E+03 -3.67759E+02 -3.41826E+03  1.09659E+03 -4.79061E+03  3.16034E+03 -4.82868E+03
  5.23350E+03 -1.94618E+03  6.36059E+03  7.43810E+02  4.19445E+03  3.98386E+03  1.92017E+03  4.54915E+03
 -2.17309E+03  5.29550E+03 -3.67008E+03  2.47375E+03 -2.20637E+03 -1.41762E+03  4.50549E+01 -1.08156E+03
 -7.62834E+02  9.61163E+02 -8.97285E+02  1.81412E+03 -2.39401E+03  1.57642E+03 -3.85121E+03 -1.61038E+02
 -2.40747E+03 -4.09037E+03  1.13099E+03 -3.52015E+03  2.66440E+03 -3.51723E+03  2.80413E+03 -1.00707E+03
  4.25845E+03  2.23610E+03  7.60955E+02  2.28826E+03  1.29909E+02  3.47996E+03 -1.41777E+03  2.09805E+03
 -2.27361E+03  1.18008E+03 -3.08573E+03 -2.84773E+03 -2.41745E+02 -2.34458E+03  1.30273E+03 -3.10411E+03
  1.55649E+03 -2.50571E+02  1.22895E+03  4.09458E+02  4.97754E+02  1.56480E+03  1.89636E+03  5.91652E+02
  2.29510E+03  2.41712E+02  1.15989E+03  7.58848E+02  1.77456E+03  1.52558E+03 -1.04580E+02  1.28942E+03
 -1.19641E+03  2.63327E+03 -1.31000E+03  3.42817E+03 -3.63590E+03  1.29555E+03 -3.18717E+03 -6.24287E+02
 -2.16200E+03 -3.58395E+03  1.03538E+03 -3.49334E+03  9.30307E+02 -2.45984E+03  3.61153E+03 -4.97490E+02
  1.62564E+03  2.46432E+03  8.05286E+01  1.59279E+03 -5.12662E+02  1.37118E+03 -5.50809E+02  1.75434E+02
 -2.50016E+03 -1.87276E+03  1.39002E+03 -9.44252E+02  1.31644E+03 -2.17470E+02  1.72035E+03 -1.66248E+02
  1.11957E+02 -4.78333E+02  1.24997E+02  2.68961E+00  1.01633E+03  1.81095E+03  1.21504E+03 -5.67717E+00
 -5.74604E+02 -1.82755E+02  8.05302E+02  7.49306E+02  3.50306E+02  1.69619E+03 -2.50988E+02  2.67331E+03
 -1.91709E+03  4.26031E+01 -1.85066E+03  2.36940E+01 -2.33760E+03 -2.15157E+02 -5.74341E+02 -3.08225E+02
 -2.40565E+02 -1.09599E+03 -7.05743E+02 -6.50360E+02  1.20122E+03  6.60760E+02  1.48781E+02  5.02822E+02
 -4.36058E+02  1.16279E+03 -1.54109E+03  1.82716E+02 -9.91593E+02 -2.37302E+03  2.70684E+00 -1.55345E+03
 -1.01222E+03 -4.37596E+02  7.67918E+02  7.23276E+02  3.18143E+02  5.01009E+02  2.35740E+02  1.04311E+03
  4.62221E+01  4.89998E+02 -3.06678E+02  7.83021E+01  2.55908E+02 -4.52683E+02  1.99709E+03 -1.13265E+03
  9.36438E+02  6.51292E+01  2.79615E+03  1.53232E+03  1.18152E+03  2.13986E+03 -3.88665E+02  1.94502E+03
 -4.46826E+02 -2.52529E+02 -1.67100E+03 -1.27983E+02 -1.74167E+03 -1.10325E+01 -5.38592E+01 -4.16033E+02
  1.04995E+03 -1.21176E+03  8.30005E+02  7.78716E+02 -5.92916E+02  1.08219E+03  8.40852E+02  9.26925E+02
  2.48705E+02  1.00181E+03  4.78892E+02 -9.50981E+01 -8.50407E+02  7.22607E+02 -5.44157E+02 -2.45325E+01
 -4.36036E+02  2.23209E+03 -1.72233E+03  2.33012E+02 -4.51829E+02 -4.39339E+02 -2.06870E+03 -1.82532E+03
 -6.79093E+02 -2.83346E+03  6.01935E+02 -2.84274E+03  8.63243E+02 -2.77156E+03  3.25214E+03 -1.48097E+03
  2.30910E+03  3.62948E+02  1.20093E+03  8.96919E+02 -5.00829E+02  8.83376E+02 -4.74816E+01  1.13036E+03
 -9.89468E+02  2.21815E+02 -1.51558E+03 -1.83581E+03 -1.27409E+03  3.89101E+02 -7.82917E+02 -3.01829E+02
 -1.47457E+03  3.68590E+02 -4.70432E+02  3.09685E+02 -3.91691E+02 -5.72057E+02  4.08177E+02 -8.14480E+02
  1.06351E+03 -1.39755E+03  1.23957E+03 -1.03440E+02  7.92284E+02  1.09422E+03 -1.35504E+03  1.71862E+03
  4.66128E+02  1.03318E+03 -6.73631E+02  8.14124E+02 -1.85335E+03 -3.48997E+02 -1.84925E+03  6.81639E+01
 -3.32429E+02 -1.94953E+03 -2.93823E+02 -1.46829E+03  7.51089E+02 -6.32256E+00  8.39680E+02 -5.15341E+02
  4.51193E+02  3.01489E+02  3.39022E+01 -5.67819E+02 -1.33778E+03  9.03065E+01 -1.51844E+03 -4.88511E+02
  9.57923E+02  1.04949E+02 -6.37642E+02  1.66082E+03 -3.34257E+01  1.00931E+03  5.10774E+02  7.54067E+02
 -6.12385E+02 -3.20457E+02  4.27706E+02  1.00422E+02 -1.16999E+03 -5.28767E+02 -1.07768E+03 -1.24519E+03
  7.84432E+02 -8.86459E+02 -1.65243E+02  2.85118E+02  1.50370E+03  2.51322E+01 -3.75958E+01  1.15548E+03
  1.07045E+03  1.24876E+03 -3.75760E+02 -3.34643E+01  2.12886E+01  6.89258E+02 -1.08717E+03  1.18609E+03
 -8.40089E+01 -2.32099E+01 -2.36850E+02 -2.24597E+02 -6.16447E+02 -1.29769E+02 -7.04969E+02 -1.12788E+03
 -1.34635E+03 -7.84966E+01 -2.52356E+02 -1.11982E+03  1.21451E+03 -1.62351E+03  1.40281E+02  7.20600E+02
  6.56075E+02 -2.05631E+02 -2.39972E+02  1.70521E+01  1.35166E+03  1.05435E+03 -5.42183E+02  6.07697E+02
