 $NMID ID='MM_0lb_SNR200_9hz_g45_12.RAW', FMTDAT='(8E13.5)'
 TRAMP=1., VOLUME=1. $END
  3.10045E+05  1.33307E+02  3.38492E+05  2.50902E+05  8.57892E+04  3.38285E+05 -1.33225E+05  2.52305E+05
 -1.92719E+05  8.37703E+04 -1.12224E+05 -3.09706E+04  7.74395E+02 -4.99285E+04  5.32733E+04 -2.16031E+03
  3.62156E+04  5.31231E+04 -1.68800E+04  7.51118E+04 -6.11775E+04  6.35245E+04 -8.53919E+04  3.18069E+04
 -8.19047E+04 -1.16656E+04 -5.95015E+04 -5.33833E+04 -1.51458E+04 -7.00743E+04  2.72913E+04 -4.66834E+04
  4.21024E+04  4.11139E+03  1.68748E+04  4.95404E+04 -3.46214E+04  4.74987E+04 -6.91740E+04  8.58202E+02
 -5.46622E+04 -5.71942E+04 -7.08607E+03 -7.92679E+04  3.50161E+04 -5.58570E+04  5.02045E+04 -1.84897E+04
  4.35373E+04  1.34447E+04  3.20001E+04  2.66631E+04  1.73339E+04  3.12256E+04 -4.41203E+03  2.83777E+04
 -2.29114E+04  1.20001E+04 -1.71893E+04 -4.50964E+03  6.32470E+03 -8.23811E+03  2.19541E+04  1.33595E+04
  6.48011E+03  3.76357E+04 -3.16980E+04  3.77388E+04 -6.36749E+04  3.16424E+03 -5.88748E+04 -4.55503E+04
 -1.09774E+04 -6.52013E+04  4.16794E+04 -4.58154E+04  6.22110E+04 -2.59324E+03  3.75709E+04  3.36148E+04
 -6.44485E+03  3.97528E+04 -3.22204E+04  1.83509E+04 -3.27393E+04 -4.81309E+03 -1.78868E+04 -1.20960E+04
 -9.68750E+03 -1.43990E+04 -2.20596E+03 -2.03446E+04  8.14778E+03 -2.45740E+04  1.60075E+04 -1.23075E+04
  1.14312E+04  5.11753E+03 -1.10639E+04  1.21426E+04 -2.29137E+04 -6.58080E+03 -8.14794E+03 -3.62731E+04
  2.49364E+04 -4.69012E+04  5.10595E+04 -2.03762E+04  4.73123E+04  1.93771E+04  1.83750E+04  4.68393E+04
 -1.77172E+04  3.48068E+04 -2.76347E+04  3.70794E+03 -1.18790E+04 -2.86396E+04  2.06459E+04 -3.66307E+04
  4.41298E+04 -1.02028E+04  4.03860E+04  2.47736E+04  2.06871E+04  5.05250E+04 -6.77232E+03  5.59885E+04
 -3.48583E+04  3.68235E+04 -4.72483E+04  8.34899E+03 -4.90103E+04 -1.95171E+04 -2.56555E+04 -4.19166E+04
  7.51308E+03 -4.11318E+04  3.33047E+04 -1.78760E+04  3.26916E+04  1.08899E+04  5.11705E+03  2.10245E+04
 -1.46469E+04  9.76678E+03 -1.09844E+04 -8.08452E+03  5.49380E+03 -1.28376E+04  1.89026E+04  3.33702E+03
  1.48453E+04  2.21896E+04 -5.82057E+03  2.62230E+04 -2.30980E+04  1.57953E+04 -3.12562E+04 -3.09130E+03
 -2.57270E+04 -1.72359E+04 -1.07308E+04 -2.59913E+04  6.01271E+03 -2.40143E+04  1.96832E+04 -2.22583E+04
  3.09760E+04 -1.54411E+04  3.68896E+04  5.38257E+03  2.62470E+04  2.40055E+04  3.71178E+03  4.13335E+04
 -1.89866E+04  3.45189E+04 -3.00665E+04  1.16140E+04 -2.13586E+04 -9.67771E+03 -5.33517E+03 -1.14531E+04
  2.32621E+03 -9.49304E+02 -6.45637E+03  8.40784E+03 -2.14070E+04  5.00826E+03 -1.82963E+04 -9.72646E+03
 -1.10327E+04 -2.21500E+04  5.92129E+03 -2.65058E+04  1.82439E+04 -1.98608E+04  2.33870E+04 -1.48411E+03
  1.35889E+04  1.76098E+04 -1.08442E+03  2.19946E+04 -1.66514E+04  1.41330E+04 -2.25635E+04 -4.61917E+03
 -1.82746E+04 -2.00556E+04 -3.09693E+03 -2.82163E+04  1.22883E+04 -2.31913E+04  2.22840E+04 -1.20299E+04
  2.16071E+04  2.68991E+02  1.48824E+04  5.95994E+03  9.02205E+03  1.52983E+03  1.28516E+04 -2.52440E+03
  1.97647E+04  3.21399E+03  2.54768E+04  1.64975E+04  1.67196E+04  3.58294E+04 -2.17636E+03  4.39036E+04
 -2.49588E+04  3.64331E+04 -4.01683E+04  1.93405E+04 -4.45167E+04 -3.11971E+03 -3.45383E+04 -2.59689E+04
 -1.54079E+04 -3.66241E+04  1.38750E+04 -3.34721E+04  2.72294E+04 -1.65720E+04  2.50201E+04  6.40297E+03
  8.36319E+03  1.99448E+04 -1.11514E+04  1.42902E+04 -1.96123E+04  2.31949E+03 -1.50406E+04 -1.26840E+04
  2.80177E+02 -1.94972E+04  1.08042E+04 -1.41002E+04  1.32041E+04 -1.59524E+03  3.16486E+03  8.66540E+03
 -9.08923E+03  3.24351E+03 -9.62021E+03 -7.15224E+03 -8.59748E+02 -1.83164E+04  1.16880E+04 -1.86404E+04
  2.21311E+04 -1.09407E+04  2.53392E+04  4.43611E+03  2.14194E+04  1.79928E+04  1.12401E+04  2.88097E+04
 -5.07658E+03  3.14561E+04 -1.84360E+04  1.87056E+04 -2.28569E+04  4.36711E+03 -1.58281E+04 -6.44209E+03
 -6.43645E+03 -7.68833E+03 -1.11520E+02 -3.82717E+02 -1.96289E+03  4.26170E+03 -6.36699E+03  6.14688E+03
 -1.28885E+04 -9.74190E+02 -1.39667E+04 -1.16305E+04 -6.65609E+03 -1.87939E+04  6.64688E+03 -1.49917E+04
  1.24978E+04 -6.50700E+03  9.30656E+03  3.51140E+03  1.79778E+02  6.54099E+03 -7.97149E+03  5.05976E+01
 -6.89270E+03 -1.11393E+04 -2.26925E+03 -1.63351E+04  7.76479E+03 -1.70792E+04  2.19268E+04 -6.97209E+03
  2.30233E+04  2.74049E+03  1.74372E+04  1.44027E+04  4.09183E+03  1.86176E+04 -8.00780E+03  1.61095E+04
 -1.27899E+04  4.78323E+03 -7.50649E+03 -1.82511E+03  2.04429E+03 -2.02218E+03  8.97467E+03 -9.00141E+02
  8.32311E+03  7.39943E+03  2.14095E+03  1.07427E+04 -8.36724E+03  1.07109E+04 -1.58365E+04  2.43296E+03
 -1.00132E+04 -7.47096E+03  1.03010E+03 -1.29979E+04  7.56867E+03 -8.59386E+03  1.05787E+04  2.41177E+03
  3.80522E+03  9.61851E+03 -7.89559E+03  9.88006E+03 -1.37347E+04  5.44697E+03 -1.50952E+04 -4.56530E+03
 -8.41520E+03 -1.49937E+04  3.66193E+03 -1.79521E+04  1.48810E+04 -1.06931E+04  1.64558E+04  3.23398E+03
  1.07049E+04  1.33407E+04 -1.94813E+03  1.43390E+04 -1.23534E+04  9.12866E+03 -1.31852E+04 -1.80751E+03
 -9.85417E+03 -1.05915E+04 -1.90618E+03 -1.12816E+04  6.09154E+03 -1.09253E+04  8.56210E+03 -4.61463E+03
  5.33072E+03  1.14463E+03 -1.99280E+03 -2.11975E+01 -7.04198E+02 -4.22593E+03  3.07266E+03 -6.35199E+03
  1.09742E+04 -4.13321E+03  1.49744E+04  3.11005E+03  1.46869E+04  1.22971E+04  1.08683E+04  1.97683E+04
 -3.58424E+03  2.28077E+04 -1.91241E+04  1.87800E+04 -2.67864E+04  3.93743E+03 -2.07101E+04 -7.45335E+03
 -1.15441E+04 -1.71072E+04  2.15813E+02 -1.36825E+04  6.35871E+03 -8.34368E+03  6.71328E+03 -6.54091E+03
  3.90219E+03 -2.28427E+03  4.10860E+03 -3.29247E+03  4.67136E+03 -3.12639E+03  6.71969E+03 -1.24011E+03
  1.13671E+04  3.53845E+03  5.68386E+03  9.33096E+03 -2.07522E+03  1.18528E+04 -9.44298E+03  9.01792E+03
 -1.25180E+04 -1.73740E+03 -9.26247E+03 -1.01114E+04 -1.24642E+03 -1.57940E+04  8.91197E+03 -1.56968E+04
  1.69401E+04 -9.70301E+03  1.90632E+04  2.43310E+03  1.34248E+04  1.17040E+04  1.84995E+03  1.71415E+04
 -5.83353E+03  1.41065E+04 -1.01345E+04  5.25787E+03 -5.39180E+03 -1.94052E+03 -2.70901E+03 -1.78309E+03
 -2.65948E+02 -5.55898E+02 -1.98304E+03  2.34521E+03 -6.79949E+03  1.84101E+03 -9.28603E+03 -2.58155E+03
 -6.68976E+03 -1.12062E+04 -6.04458E+01 -1.50799E+04  7.68944E+03 -1.14615E+04  1.51873E+04 -6.11731E+03
  1.49590E+04  6.74072E+03  6.27074E+03  1.16614E+04 -2.90954E+03  1.44766E+04 -9.66455E+03  9.64945E+03
 -1.23830E+04  8.94774E+01 -1.04992E+04 -8.95007E+03 -1.30181E+03 -1.28113E+04  7.36847E+03 -9.66620E+03
  7.98532E+03 -2.16809E+03  6.16464E+03  3.99155E+03  1.77766E+03  3.63060E+03  1.65321E+03  3.18821E+03
  5.39136E+03  1.00473E+03  4.36878E+03  2.02486E+03  3.94433E+03  4.76995E+03  4.52033E+03  8.09057E+03
 -2.41029E+03  1.20379E+04 -9.16124E+03  1.16947E+04 -1.48827E+04  2.13352E+02 -1.43894E+04 -6.42720E+03
 -5.17329E+03 -1.46291E+04  9.04524E+02 -1.63563E+04  1.00691E+04 -1.02692E+04  1.22022E+04 -2.02551E+03
  8.77150E+03  4.88845E+03  4.19622E+03  8.86131E+03 -4.69458E+03  4.17457E+03 -7.22952E+03 -2.65529E+03
 -2.58093E+03 -6.07003E+03  2.94029E+03 -6.74883E+03  5.37626E+03 -2.69006E+03  7.30899E+03  6.58246E+02
  3.87982E+03  2.89313E+03  1.10677E+03  3.21104E+03 -2.58241E+02  2.00759E+03  2.36700E+03 -1.57795E+03
  3.45913E+03 -1.45064E+03  6.36387E+03  1.72103E+03  4.01375E+03  9.13463E+03 -1.62984E+03  1.12369E+04
 -6.82091E+03  6.74847E+03 -9.06076E+03  9.80124E+02 -8.33587E+03 -3.15911E+03 -1.86646E+03 -4.58312E+03
  2.69356E+02 -5.89060E+03  3.68158E+03 -3.56145E+03  3.82564E+03  2.90942E+03 -2.71598E+03  4.72191E+03
 -6.75389E+03  2.28697E+03 -6.85583E+03 -4.21143E+03 -5.37917E+03 -7.97501E+03  1.39138E+03 -8.47283E+03
  3.78911E+03 -5.94604E+03  6.34698E+03  5.17688E+02  3.66482E+03  1.28392E+03 -9.48683E+02  3.14643E+03
 -4.21539E+03  1.44925E+03 -3.62765E+03 -2.14226E+03  1.70679E+03 -6.26558E+03  7.08361E+03 -4.32539E+03
  8.41677E+03  5.89083E+02  8.87025E+03  6.56275E+03  2.96123E+03  1.12175E+04 -3.41259E+03  8.72180E+03
 -7.10132E+03  4.58730E+03 -9.75241E+03 -1.48853E+03 -4.43586E+03 -5.19704E+03  2.33636E+03 -4.83038E+03
  5.97870E+03 -2.34766E+03  5.74513E+03  2.15317E+03  6.89680E+02  5.11408E+03 -1.06825E+03  5.91522E+03
 -3.32711E+03  3.39438E+03 -2.53250E+03 -9.70459E+02 -1.31879E+03  1.43958E+03 -2.50120E+02  8.52035E+02
 -4.46687E+03  2.34260E+03 -6.85507E+03  4.75509E+03 -9.35938E+03  5.51327E+02 -1.14829E+04 -7.17729E+03
 -5.88092E+03 -1.28331E+04  8.41261E+02 -1.29154E+04  1.07187E+04 -1.08154E+04  1.43788E+04 -3.81801E+03
  1.26006E+04  2.85463E+03  8.81584E+03  8.71598E+03  1.03761E+03  9.49951E+03 -4.29966E+03  6.66530E+03
 -5.01052E+03  3.56467E+03 -3.59950E+03 -1.03426E+03 -5.63661E+02 -1.48630E+03 -3.92777E+02  6.35654E+02
 -3.59157E+03  8.06741E+01 -2.40785E+03  2.84622E+02 -6.17669E+02 -3.13212E+03  7.39045E+02 -4.08027E+03
  4.43306E+03 -4.10668E+03  5.15272E+03  5.98828E+02  6.94890E+03  4.66963E+03  1.02020E+03  8.77321E+03
 -5.60747E+03  1.16527E+04 -1.08090E+04  7.12344E+03 -1.15358E+04 -2.12248E+03 -8.58319E+03 -8.02277E+03
 -4.11486E+03 -1.07186E+04  3.60588E+03 -8.94475E+03  6.34745E+03 -4.54534E+03  6.26169E+03  1.51054E+03
  2.50878E+03  4.42770E+03  1.76339E+02  3.96951E+03 -2.30217E+03  1.21839E+02 -7.23407E+02 -2.78703E+03
  3.74254E+03 -2.57479E+03  4.67839E+03  1.30876E+03  3.69601E+03  4.38740E+03  1.53407E+02  5.48603E+03
 -4.23699E+03  4.81832E+03 -6.10902E+03  1.83618E+03 -5.28225E+03 -4.87470E+03  9.05043E+01 -7.29781E+03
  5.49039E+03 -7.00292E+03  7.98043E+03 -2.42850E+03  7.69551E+03  2.07558E+03  4.76880E+03  6.20705E+03
  5.98273E+02  7.92862E+03 -3.03853E+03  6.25385E+03 -3.57826E+03  2.68508E+03 -3.57229E+03 -4.97214E+02
 -2.26417E+03  3.33911E+02 -1.45206E+03  2.52904E+03 -3.14144E+03  1.37588E+03 -5.13827E+03  4.73578E+00
 -5.04304E+03 -3.10307E+03 -1.87360E+03 -6.10605E+03  3.03267E+03 -7.91157E+03  6.15474E+03 -3.30559E+03
  7.10965E+03  3.43856E+02  4.40190E+03  5.52928E+03 -1.28054E+02  6.22711E+03 -5.91833E+03  6.01744E+03
