 $NMID ID='MM_0lb_SNR200_13hz_g50_43.RAW', FMTDAT='(8E13.5)'
 TRAMP=1., VOLUME=1. $END
  3.08642E+05  1.34451E+03  3.38373E+05  2.50362E+05  8.62442E+04  3.38074E+05 -1.32663E+05  2.51348E+05
 -1.90011E+05  8.37059E+04 -1.13723E+05 -3.23829E+04  9.54139E+02 -5.00504E+04  5.35803E+04 -1.26992E+03
  3.48240E+04  5.19645E+04 -1.66651E+04  7.63243E+04 -6.06886E+04  6.42041E+04 -8.45847E+04  3.19923E+04
 -8.05911E+04 -1.18208E+04 -5.78259E+04 -5.10217E+04 -1.62815E+04 -6.96909E+04  2.72359E+04 -4.58295E+04
  3.93844E+04  4.17170E+03  1.60353E+04  4.83107E+04 -3.54323E+04  4.64626E+04 -6.76266E+04 -6.56985E+01
 -5.21928E+04 -5.73692E+04 -5.63373E+03 -7.64593E+04  3.36142E+04 -5.68033E+04  4.78291E+04 -1.65721E+04
  4.47865E+04  1.06602E+04  3.12911E+04  2.65058E+04  1.69607E+04  2.99448E+04 -5.36432E+03  2.65839E+04
 -2.17532E+04  1.33188E+04 -1.87692E+04 -5.87766E+03  5.75479E+03 -7.35590E+03  2.29159E+04  1.25551E+04
  7.92573E+03  3.49585E+04 -3.11359E+04  3.55164E+04 -6.45498E+04  1.46700E+03 -5.65735E+04 -4.24217E+04
 -1.15058E+04 -6.44145E+04  4.00790E+04 -4.54290E+04  5.77065E+04 -3.58789E+03  3.40669E+04  3.28955E+04
 -5.74297E+03  3.75791E+04 -2.93735E+04  1.67862E+04 -3.13163E+04 -4.68159E+03 -1.80117E+04 -1.15304E+04
 -8.88203E+03 -1.30342E+04 -3.85211E+02 -1.92943E+04  7.45610E+03 -2.32469E+04  1.46006E+04 -1.35441E+04
  1.10788E+04  5.56403E+03 -7.56508E+03  1.33034E+04 -2.24055E+04 -3.97769E+03 -8.62175E+03 -3.48435E+04
  2.33229E+04 -4.37131E+04  4.95284E+04 -1.92406E+04  4.53764E+04  1.97212E+04  1.50298E+04  4.45220E+04
 -1.54496E+04  3.38943E+04 -2.61115E+04  1.53799E+03 -9.88811E+03 -2.69408E+04  2.20732E+04 -3.39559E+04
  4.15023E+04 -9.75442E+03  3.79515E+04  2.44929E+04  1.86382E+04  4.91884E+04 -7.74700E+03  5.18059E+04
 -3.29212E+04  3.50345E+04 -4.17382E+04  9.01679E+03 -4.28306E+04 -1.76681E+04 -2.32536E+04 -3.84908E+04
  6.55701E+03 -3.87263E+04  3.20280E+04 -1.50882E+04  3.03215E+04  1.15263E+04  4.71707E+03  1.89174E+04
 -1.43332E+04  9.16081E+03 -1.02947E+04 -8.17822E+03  5.72722E+03 -1.04679E+04  1.92407E+04  4.89837E+03
  1.36117E+04  2.19259E+04 -5.67271E+03  2.50940E+04 -2.39437E+04  1.28398E+04 -2.88351E+04 -3.74788E+03
 -2.40998E+04 -1.79588E+04 -8.43357E+03 -2.14300E+04  4.95491E+03 -1.98996E+04  1.63974E+04 -1.94197E+04
  2.79851E+04 -1.28989E+04  3.35932E+04  3.55186E+03  2.39020E+04  2.16441E+04  4.68972E+03  3.76387E+04
 -1.81673E+04  2.95319E+04 -2.80429E+04  1.17493E+04 -2.27559E+04 -1.00075E+04 -5.21800E+03 -1.25898E+04
  1.23744E+03 -2.52822E+03 -6.32015E+03  6.57175E+03 -1.72520E+04  5.55573E+03 -1.67987E+04 -6.53920E+03
 -9.53511E+03 -1.89509E+04  5.59657E+03 -2.44160E+04  1.57451E+04 -1.73745E+04  1.75773E+04 -1.58410E+03
  1.27044E+04  1.25096E+04 -3.41321E+02  1.87607E+04 -1.24959E+04  1.09707E+04 -1.98953E+04 -4.69560E+03
 -1.50797E+04 -1.70012E+04 -1.97278E+03 -2.54695E+04  1.05640E+04 -1.99932E+04  2.05042E+04 -1.04618E+04
  1.84226E+04  5.75892E+02  1.33246E+04  4.15249E+03  7.45224E+03  1.11109E+03  9.71210E+03 -1.67800E+03
  1.80635E+04  2.92867E+03  2.06394E+04  1.63910E+04  1.26970E+04  3.28943E+04 -1.59665E+03  3.55054E+04
 -2.09183E+04  2.88345E+04 -3.41033E+04  1.35244E+04 -3.62221E+04 -1.33905E+03 -2.88649E+04 -2.05132E+04
 -1.22952E+04 -2.87277E+04  1.00184E+04 -2.69898E+04  2.26711E+04 -1.35670E+04  2.25752E+04  6.94527E+03
  5.45725E+03  1.44772E+04 -1.01024E+04  1.34883E+04 -1.69489E+04  2.33274E+03 -1.32015E+04 -1.14122E+04
  1.43392E+02 -1.70440E+04  7.82349E+03 -1.21887E+04  1.12390E+04 -7.08896E+02  2.58981E+03  6.38062E+03
 -7.60874E+03  2.09414E+03 -6.61082E+03 -5.54270E+03  7.07794E+02 -1.38592E+04  9.61343E+03 -1.52741E+04
  1.71837E+04 -8.01384E+03  1.94807E+04  2.06596E+03  1.79628E+04  1.40775E+04  7.80570E+03  2.20934E+04
 -2.92200E+03  2.34064E+04 -1.52712E+04  1.45363E+04 -1.67278E+04  3.43013E+03 -1.16518E+04 -3.93348E+03
 -6.41108E+03 -5.80846E+03 -1.52513E+03  1.02969E+03 -2.54464E+03  2.92217E+03 -5.60257E+03  4.46803E+03
 -1.02845E+04 -9.95581E+02 -1.10834E+04 -1.03748E+04 -4.13776E+03 -1.57497E+04  4.57089E+03 -1.26619E+04
  1.03593E+04 -5.39247E+03  7.64999E+03  2.38138E+03 -8.51055E+02  3.17746E+03 -5.56262E+03 -7.43268E+02
 -5.01726E+03 -7.89613E+03 -9.76585E+02 -1.16206E+04  6.88300E+03 -1.21588E+04  1.48328E+04 -6.28727E+03
  1.77191E+04  1.55304E+03  1.35302E+04  9.56704E+03  4.22702E+03  1.44029E+04 -8.15746E+03  1.09196E+04
 -9.42643E+03  3.32983E+03 -4.76660E+03 -2.84908E+03  2.75900E+03 -3.98405E+03  6.15547E+03 -1.76985E+03
  6.26712E+03  5.61150E+03  1.32952E+03  9.03377E+03 -6.27078E+03  9.15033E+03 -1.11898E+04  2.53212E+03
 -8.80722E+03 -5.99815E+03  3.18040E+02 -1.07788E+04  7.24087E+03 -5.59357E+03  5.87014E+03  2.09050E+03
  1.09066E+03  7.75893E+03 -6.15340E+03  9.42627E+03 -9.39489E+03  3.60028E+03 -1.00199E+04 -3.54507E+03
 -5.16781E+03 -1.07986E+04  2.70430E+03 -1.28444E+04  1.09643E+04 -7.22126E+03  1.24645E+04  2.24126E+03
  6.28892E+03  9.27367E+03 -3.10864E+02  1.10906E+04 -8.45344E+03  7.30648E+03 -9.36085E+03 -4.19690E+02
 -7.96245E+03 -7.20948E+03 -2.15435E+03 -7.80571E+03  4.17018E+03 -6.39534E+03  5.01850E+03 -2.40808E+03
  4.08585E+03  1.78496E+03  8.78211E+02  3.57451E+03 -8.50990E+02 -3.18714E+03 -4.69665E+02 -4.11925E+03
  7.38098E+03 -3.50206E+03  1.09681E+04  1.64816E+03  1.13446E+04  8.26281E+03  7.57568E+03  1.32657E+04
 -2.70569E+03  1.75229E+04 -1.20986E+04  1.15658E+04 -1.81214E+04  1.54441E+03 -1.38369E+04 -5.53746E+03
 -8.06061E+03 -1.11272E+04 -4.30862E+02 -1.00095E+04  4.00496E+03 -5.15382E+03  3.38816E+03 -4.25384E+03
  3.10038E+03 -2.10412E+03  2.56639E+03 -3.73694E+03  4.56548E+03 -1.42863E+03  5.96029E+03 -1.64936E+03
  8.12179E+03  1.36379E+03  2.26658E+03  6.20093E+03 -1.99812E+03  8.03591E+03 -7.06332E+03  5.00130E+03
 -1.03264E+04 -8.20879E+02 -6.01807E+03 -7.95620E+03  1.30444E+02 -8.49407E+03  7.02440E+03 -1.06443E+04
  9.99419E+03 -7.20321E+03  1.31728E+04  1.01872E+03  9.89393E+03  9.11809E+03  7.20629E+02  1.12453E+04
 -4.93225E+03  9.42097E+03 -6.68589E+03  3.25620E+03 -5.55621E+03 -1.27607E+03 -2.08313E+03 -1.65546E+03
 -5.68520E+02  5.99103E+02 -7.94722E+02  1.64326E+03 -3.84997E+03  1.49902E+03 -5.76470E+03 -1.95213E+03
 -3.32718E+03 -6.28792E+03 -7.20659E+02 -7.69500E+03  5.39190E+03 -7.58532E+03  8.47455E+03 -3.35007E+03
  8.81771E+03  3.98714E+03  4.59521E+03  7.76183E+03 -2.36897E+03  8.96015E+03 -6.87978E+03  5.67432E+03
 -1.00010E+04 -1.16015E+02 -7.41722E+03 -5.80458E+03 -1.01894E+03 -8.36963E+03  4.39176E+03 -6.72175E+03
  6.38151E+03 -2.09382E+03  3.39347E+03  1.72631E+03  1.53795E+03  1.62606E+03  2.00157E+03  1.58134E+03
  2.63118E+03  7.99986E+01  1.32440E+03  4.25682E+02  2.53090E+03  2.77186E+03  2.94298E+03  4.90927E+03
 -2.69066E+03  6.53447E+03 -7.12693E+03  6.79259E+03 -9.28157E+03  3.03133E+03 -7.84990E+03 -4.00532E+03
 -4.06973E+03 -8.52986E+03  8.96098E+02 -1.02070E+04  4.94043E+03 -5.22579E+03  6.78163E+03 -2.45787E+03
  6.20093E+03  2.57110E+03  7.29424E+02  5.44566E+03 -1.29822E+03  2.51180E+03 -2.47654E+03 -1.94498E+02
 -1.74663E+03 -4.05007E+03  2.31823E+03 -4.01547E+03  3.34466E+03 -2.56911E+03  3.02684E+03  1.93032E+03
  2.71269E+03  1.21609E+03  2.02624E+03  1.89772E+02 -4.02769E+02  2.74638E+03  1.12229E+03 -4.22557E+02
  8.73939E+02 -1.57128E+03  5.07101E+03  1.87703E+03  2.11645E+03  5.71438E+03  9.71667E+01  6.21467E+03
 -3.96279E+03  4.62616E+03 -5.61357E+03  1.53234E+03 -4.74697E+03 -2.28701E+03 -7.88193E+02 -2.70609E+03
  1.21123E+03 -4.12578E+03  2.27294E+03 -1.89730E+03  1.58544E+03  1.27371E+03 -1.72094E+03  3.17605E+03
 -2.77246E+03  1.15535E+03 -3.16990E+03 -2.81032E+03 -1.29591E+03 -4.27229E+03 -5.46692E+02 -4.34133E+03
  2.92812E+03 -2.70820E+03  2.55280E+03 -1.75998E+00  2.07798E+03 -5.06106E+01  1.47326E+03  2.51261E+03
 -1.23326E+03 -1.19322E+02 -1.94655E+03 -1.06820E+03  1.22436E+03 -3.76827E+03  3.68649E+03 -2.52373E+03
  5.12848E+03  1.34078E+02  6.63954E+03  3.49724E+03  2.29945E+03  4.63425E+03 -1.11312E+03  6.21313E+03
 -5.16958E+03  1.63430E+03 -5.88560E+03 -6.03411E+02 -3.79538E+03 -4.58280E+03  3.40975E+02 -2.94577E+03
  2.94983E+03 -2.31339E+03  2.25223E+03  7.35133E+02  4.88315E+02  3.87484E+03 -2.48280E+02  2.76059E+03
 -1.40443E+03  2.85651E+03 -7.82944E+02  4.93112E+02  1.05614E+01  8.74821E+02 -1.03138E+03  1.16377E+03
 -1.67290E+03  2.07785E+03 -4.31293E+03  2.14069E+03 -5.40228E+03 -4.56312E+02 -6.34922E+03 -2.18017E+03
 -1.47970E+03 -6.68288E+03  1.25966E+03 -7.42666E+03  4.57896E+03 -6.48437E+03  8.24820E+03 -2.22430E+03
  6.62969E+03  1.62152E+03  3.58820E+03  5.51983E+03  3.36743E+02  5.32272E+03 -2.05362E+03  4.68546E+03
 -2.04737E+03  1.90141E+03 -2.15960E+03  7.46409E+02 -6.82508E+02 -4.00597E+02  5.50916E+02  5.42679E+02
 -7.85180E+02  1.18429E+03 -1.43814E+03 -5.07427E+02 -9.47370E+01 -6.33597E+02  3.96100E+02 -1.90064E+03
  2.32022E+03 -1.43871E+03  2.81044E+03 -2.29492E+02  2.91813E+03  2.02905E+03  6.84200E+02  4.87747E+03
 -2.86721E+03  5.18326E+03 -4.67304E+03  3.35753E+03 -6.28736E+03  5.81422E+02 -4.90718E+03 -2.41926E+03
 -2.49683E+03 -5.47187E+03  1.20340E+03 -4.34259E+03  3.30798E+03 -3.34482E+03  3.00601E+03  8.22124E+02
  2.17534E+03  1.66236E+03 -3.67518E+02 -6.15047E+01 -8.84508E+02 -2.35659E+02 -4.25063E+01 -1.87903E+03
  1.52563E+03 -2.71854E+02  8.67165E+02  9.12014E+02  1.21511E+03  8.43762E+02 -6.35902E+02  2.27859E+03
 -2.16544E+03  1.47424E+03 -4.08358E+03  1.47244E+03 -3.22538E+03 -2.18239E+03 -5.11010E+01 -4.08665E+03
  2.96999E+03 -2.77647E+03  3.38365E+03 -9.85571E+02  3.40215E+03  7.90967E+02  2.44022E+03  2.92458E+03
  1.62771E+03  2.98317E+03 -1.12652E+03  2.17408E+03 -1.94959E+03  2.30055E+03 -1.04018E+03  2.48167E+02
 -6.26480E+02 -5.61675E+02 -4.33404E+02  9.59406E+02 -1.76275E+03 -5.46858E+01 -2.71180E+03 -1.66554E+03
 -2.11447E+03 -7.71663E+02 -1.52841E+03 -2.60316E+03  2.38786E+03 -3.01156E+03  1.87174E+03 -2.60609E+02
  3.10163E+03  8.38301E+02  1.39483E+03  2.45001E+03 -9.15602E+02  2.98480E+03 -2.23136E+03  1.36506E+03
