 $NMID ID='MM_0lb_SNR200_10hz_g55_35.RAW', FMTDAT='(8E13.5)'
 TRAMP=1., VOLUME=1. $END
  3.10554E+05  1.38640E+03  3.37378E+05  2.51585E+05  8.58199E+04  3.39891E+05 -1.33876E+05  2.53642E+05
 -1.90605E+05  8.44465E+04 -1.11411E+05 -3.35222E+04 -2.81807E+02 -5.05992E+04  5.20343E+04 -1.80914E+02
  3.55075E+04  5.30136E+04 -1.58043E+04  7.61223E+04 -6.19851E+04  6.39218E+04 -8.51124E+04  3.35558E+04
 -8.29889E+04 -9.36661E+03 -5.88608E+04 -5.31231E+04 -1.52680E+04 -7.14236E+04  2.91962E+04 -4.77072E+04
  4.08676E+04  6.07355E+03  1.61774E+04  4.63259E+04 -3.38314E+04  4.73413E+04 -6.96335E+04 -3.27163E+02
 -5.54939E+04 -5.70743E+04 -6.76928E+03 -7.74664E+04  3.49922E+04 -5.63891E+04  4.96322E+04 -1.95608E+04
  4.35737E+04  1.15958E+04  3.35291E+04  2.64606E+04  1.57758E+04  3.07409E+04 -5.92235E+03  2.66822E+04
 -2.32865E+04  1.23570E+04 -1.89705E+04 -6.28310E+03  7.41011E+03 -7.56089E+03  2.20358E+04  1.35236E+04
  7.81604E+03  3.67962E+04 -3.38831E+04  3.78793E+04 -6.56381E+04  2.99963E+03 -5.83407E+04 -4.37339E+04
 -1.20653E+04 -6.56365E+04  4.10481E+04 -4.63274E+04  6.07550E+04 -5.81984E+02  3.55821E+04  3.23514E+04
 -4.63431E+03  3.94064E+04 -3.14471E+04  1.70630E+04 -3.23664E+04 -3.69292E+03 -2.10875E+04 -1.16481E+04
 -1.04841E+04 -1.43029E+04 -1.15178E+03 -1.83211E+04  6.58360E+03 -2.23966E+04  1.45031E+04 -1.29067E+04
  1.05767E+04  4.76476E+03 -9.43534E+03  1.28985E+04 -2.31154E+04 -6.26685E+03 -8.01913E+03 -3.81920E+04
  2.48671E+04 -4.55647E+04  5.31986E+04 -2.18052E+04  4.78399E+04  2.12708E+04  1.60246E+04  4.62122E+04
 -1.65318E+04  3.46007E+04 -2.68522E+04  2.19066E+03 -1.24135E+04 -2.93699E+04  2.14201E+04 -3.68002E+04
  4.34390E+04 -1.18897E+04  3.94518E+04  2.42454E+04  2.09762E+04  5.23435E+04 -8.57648E+03  5.62208E+04
 -3.60807E+04  3.74306E+04 -4.82680E+04  1.14315E+04 -4.82429E+04 -1.81835E+04 -2.70917E+04 -4.09446E+04
  7.42493E+03 -4.40749E+04  3.40890E+04 -1.74924E+04  3.05977E+04  1.12195E+04  5.91924E+03  2.09557E+04
 -1.19130E+04  1.08604E+04 -1.20215E+04 -6.97106E+03  5.62497E+03 -1.18588E+04  1.84180E+04  5.89504E+03
  1.54882E+04  2.14121E+04 -6.01444E+03  2.69795E+04 -2.55085E+04  1.27039E+04 -2.94020E+04 -3.15470E+03
 -2.56814E+04 -1.70450E+04 -9.34146E+03 -2.53181E+04  4.70651E+03 -2.58026E+04  1.91805E+04 -2.27071E+04
  3.12927E+04 -1.32222E+04  3.72228E+04  4.57930E+03  2.61727E+04  2.49847E+04  3.19755E+03  4.08025E+04
 -1.97837E+04  3.38396E+04 -3.10292E+04  1.14258E+04 -2.22163E+04 -1.01712E+04 -5.87455E+03 -1.36101E+04
  8.27756E+02 -1.44445E+03 -8.29871E+03  7.11234E+03 -2.00226E+04  5.98887E+03 -1.96922E+04 -8.26817E+03
 -1.11681E+04 -2.29449E+04  5.99389E+03 -2.76573E+04  1.84680E+04 -1.88783E+04  2.28048E+04 -8.35096E+02
  1.30739E+04  1.60530E+04 -2.14585E+03  2.47005E+04 -1.49265E+04  1.24928E+04 -2.30283E+04 -5.11209E+03
 -1.68659E+04 -2.12975E+04 -2.14829E+03 -2.79522E+04  1.18755E+04 -2.18605E+04  2.22071E+04 -1.12687E+04
  2.16832E+04  1.16052E+03  1.46008E+04  3.88132E+03  9.06226E+03  2.33173E+02  1.27108E+04 -2.75383E+03
  2.07435E+04  3.23198E+03  2.51740E+04  1.79944E+04  1.68153E+04  3.59472E+04 -2.73689E+03  4.28916E+04
 -2.60309E+04  3.71619E+04 -4.13386E+04  1.85271E+04 -4.29982E+04 -2.99684E+03 -3.56277E+04 -2.60789E+04
 -1.31284E+04 -3.67895E+04  1.22250E+04 -3.20718E+04  2.79867E+04 -1.51039E+04  2.35077E+04  8.47920E+03
  8.43221E+03  1.87026E+04 -9.59559E+03  1.58985E+04 -1.97221E+04  3.26353E+03 -1.39563E+04 -1.10196E+04
 -9.83910E+02 -1.95510E+04  1.12523E+04 -1.43314E+04  1.29632E+04 -3.71087E+03  3.56533E+03  7.56840E+03
 -9.06627E+03  3.36560E+03 -8.10842E+03 -6.45277E+03 -1.16913E+03 -1.78923E+04  1.25875E+04 -1.98316E+04
  2.01873E+04 -1.12653E+04  2.49142E+04  4.52251E+03  2.25941E+04  2.07510E+04  8.78577E+03  2.67176E+04
 -5.12896E+03  2.96698E+04 -2.04466E+04  1.88602E+04 -2.25099E+04  3.06094E+03 -1.39232E+04 -5.76185E+03
 -6.16951E+03 -6.69193E+03 -8.04873E+02 -3.73377E+02 -3.97896E+03  3.65532E+03 -6.25109E+03  5.48573E+03
 -1.41613E+04 -1.61619E+03 -1.38470E+04 -1.23645E+04 -4.65594E+03 -1.74506E+04  4.36838E+03 -1.50678E+04
  1.16248E+04 -6.03921E+03  8.32970E+03  4.35222E+03  4.80247E+02  5.40143E+03 -8.61518E+03 -3.39974E+01
 -8.80250E+03 -1.02187E+04 -3.34586E+02 -1.53116E+04  6.54807E+03 -1.55130E+04  1.88063E+04 -8.10500E+03
  2.14330E+04  3.83547E+03  1.60553E+04  1.36205E+04  2.49504E+03  1.87813E+04 -9.33275E+03  1.50554E+04
 -1.07949E+04  5.38410E+03 -7.09717E+03 -2.00491E+03  2.34584E+03 -6.51074E+03  7.96474E+03 -9.18386E+02
  7.33460E+03  7.11507E+03  1.67173E+03  1.12647E+04 -7.40033E+03  1.22644E+04 -1.65337E+04  1.07172E+03
 -9.46739E+03 -8.11002E+03 -5.71902E+02 -1.23508E+04  8.66743E+03 -7.05578E+03  8.82720E+03  1.28435E+03
  2.25056E+03  8.89663E+03 -7.66469E+03  1.14397E+04 -1.27384E+04  4.97667E+03 -1.23085E+04 -5.21472E+03
 -7.61709E+03 -1.42231E+04  3.59075E+03 -1.75583E+04  1.40802E+04 -1.08521E+04  1.58882E+04  2.35201E+03
  1.08938E+04  1.43679E+04 -1.11450E+03  1.43444E+04 -1.16380E+04  8.32544E+03 -1.35330E+04 -8.38900E+02
 -1.10153E+04 -1.00689E+04 -1.81298E+03 -1.30733E+04  5.69780E+03 -9.76287E+03  7.05982E+03 -2.91098E+03
  5.15426E+03  3.95133E+01 -2.63465E+03  2.52927E+03  1.27141E+03 -3.38793E+03  2.05412E+03 -6.49061E+03
  8.94426E+03 -5.01286E+03  1.41064E+04  1.34553E+03  1.39630E+04  9.80955E+03  1.07534E+04  2.07787E+04
 -5.06549E+03  2.07115E+04 -1.97659E+04  1.51620E+04 -2.33626E+04  2.66398E+03 -2.06483E+04 -1.00606E+04
 -1.05833E+04 -1.68032E+04  1.51806E+03 -1.33088E+04  5.60342E+03 -8.17524E+03  5.83742E+03 -5.93751E+03
  4.27629E+03 -3.82168E+03  4.39555E+03 -3.43185E+03  4.63203E+03 -3.35836E+03  6.88468E+03 -1.69760E+03
  1.00729E+04  2.40125E+03  5.47403E+03  8.24982E+03 -2.05562E+03  1.04877E+04 -1.04666E+04  7.56270E+03
 -1.38408E+04 -1.40193E+03 -8.51436E+03 -1.10434E+04 -1.56846E+03 -1.26518E+04  8.04060E+03 -1.62635E+04
  1.41910E+04 -7.03300E+03  1.71636E+04  2.89903E+03  1.42876E+04  1.25693E+04  2.30528E+03  1.75440E+04
 -6.66461E+03  1.41740E+04 -9.41630E+03  4.42856E+03 -6.25886E+03 -1.88548E+03 -1.63386E+03 -2.53895E+03
 -9.57995E+01  3.98036E+02 -1.15630E+03  3.95200E+03 -5.29882E+03  3.01424E+03 -1.01274E+04 -2.87913E+03
 -6.23682E+03 -7.61638E+03  5.50410E+02 -1.40568E+04  8.58421E+03 -1.23930E+04  1.45294E+04 -3.90187E+03
  1.45384E+04  6.73329E+03  5.20484E+03  1.30460E+04 -4.09444E+03  1.29934E+04 -9.44229E+03  8.53223E+03
 -1.32215E+04 -4.24920E+02 -9.76235E+03 -8.26202E+03 -1.67370E+03 -1.02784E+04  6.16265E+03 -8.45912E+03
  8.76456E+03 -2.83405E+03  5.63307E+03  1.22716E+03  8.71545E+02  5.77294E+03 -5.86434E+02  2.61355E+03
  3.07690E+03  1.90834E+03  2.46079E+03  2.14989E+03  3.48984E+03  4.45911E+03  3.56450E+03  7.49857E+03
 -2.26872E+03  1.10440E+04 -1.06003E+04  1.02960E+04 -1.37900E+04  1.32071E+03 -1.60581E+04 -5.29577E+03
 -7.30886E+03 -1.39812E+04  3.00596E+03 -1.22010E+04  8.77858E+03 -1.09434E+04  1.17241E+04 -2.35701E+03
  7.82972E+03  5.79244E+03  1.75143E+03  8.98767E+03 -3.60373E+03  6.29012E+03 -4.53362E+03 -1.11938E+03
 -2.92760E+03 -4.49973E+03  2.90250E+03 -6.01732E+03  5.94314E+03 -3.57290E+03  5.25764E+03  1.21758E+03
  4.06152E+03  3.94346E+03  2.14499E+03  2.06866E+03 -1.76728E+03  2.38367E+03  2.04156E+03 -1.31234E+02
  1.76121E+03 -8.31421E+02  5.19569E+03  2.08245E+03  2.77735E+03  8.38264E+03 -2.84224E+03  1.11397E+04
 -5.48110E+03  5.71708E+03 -9.75888E+03  1.16205E+03 -6.49295E+03 -3.71332E+03 -2.73978E+03 -4.75134E+03
  5.60320E+02 -6.31733E+03  2.83249E+03 -3.42102E+03  2.25019E+03  3.76236E+03  1.96521E+01  5.08735E+03
 -5.96718E+03  3.88832E+03 -5.76320E+03 -2.80391E+03 -4.38294E+03 -8.77546E+03  8.55524E+02 -8.71061E+03
  5.88671E+03 -4.11990E+03  6.23308E+03 -8.20396E+02  3.59753E+03 -8.58098E+02  1.45890E+03  4.23663E+03
 -2.57579E+03  1.86532E+03 -3.41164E+03 -4.34946E+03  1.96896E+03 -6.90282E+03  6.10670E+03 -4.89827E+03
  9.11386E+03 -1.20375E+03  9.90338E+03  6.11719E+03  2.39186E+03  9.76124E+03 -2.40865E+03  8.35440E+03
 -8.58885E+03  2.46456E+03 -7.59528E+03 -9.11912E+02 -4.71512E+03 -5.00820E+03  2.46039E+03 -5.75417E+03
  4.08353E+03 -2.34408E+03  4.59421E+03  1.56648E+03  2.01156E+03  5.12480E+03 -1.23188E+03  4.45519E+03
 -1.77218E+03  2.49749E+03 -2.77354E+03  1.28227E+03 -6.18456E+02  5.02301E+02 -2.13347E+03  1.58855E+03
 -1.21569E+03  4.20852E+03 -6.70248E+03  2.98929E+03 -8.88674E+03 -1.52515E+02 -9.93155E+03 -5.79994E+03
 -3.94153E+03 -1.28946E+04  3.27047E+03 -1.28625E+04  7.75925E+03 -1.00780E+04  1.22787E+04 -2.13472E+03
  1.19408E+04  3.22896E+03  5.52101E+03  9.73906E+03  1.04609E+03  7.84616E+03 -5.42338E+03  6.34773E+03
 -4.28750E+03  2.17483E+03 -2.27644E+03 -1.04088E+03 -5.77752E+01 -1.63786E+03  8.76169E+01 -9.85354E+02
 -3.01314E+03  1.20704E+03 -2.10158E+03  2.46398E+02 -7.47119E+02 -7.71768E+02 -8.87161E+02 -3.28783E+03
  2.27870E+03 -3.09620E+03  5.22144E+03 -2.53270E+02  5.65630E+03  6.14805E+03  5.75081E+02  8.57425E+03
 -3.06202E+03  1.07109E+04 -9.17506E+03  4.39876E+03 -1.09423E+04 -8.68936E+02 -8.10331E+03 -7.10399E+03
 -2.96788E+03 -1.01371E+04  1.43428E+03 -8.93901E+03  6.42445E+03 -2.59385E+03  7.29912E+03 -6.50912E+02
  3.20714E+03  2.47415E+03  7.81333E+02  3.24771E+03 -1.74060E+03  1.47031E+03  5.33265E+01 -3.14636E+03
  3.97423E+03 -4.73669E+02  2.61687E+03  4.93375E+02  2.35176E+03  3.18784E+03  1.08810E+03  4.38382E+03
 -3.30467E+03  3.60323E+03 -6.89764E+03  5.51679E+02 -4.76000E+03 -4.40957E+03  5.82834E+02 -7.35145E+03
  3.28954E+03 -5.65391E+03  6.02828E+03 -1.66621E+03  7.16556E+03  1.30826E+03  5.19735E+03  5.86124E+03
  1.00875E+02  7.38954E+03 -1.80371E+03  5.02415E+03 -4.07720E+03  2.96132E+03 -3.87828E+03  6.83821E+02
 -3.97978E+03  4.78312E+02 -1.90275E+03  1.34148E+03 -1.84795E+03  2.21274E+03 -4.28477E+03 -5.09001E+02
 -6.32590E+03 -4.08688E+03 -1.60774E+03 -6.46786E+03  8.88996E+02 -6.01153E+03  5.94087E+03 -4.39602E+03
  5.57980E+03  4.47806E+02  2.43862E+03  3.74405E+03  8.59590E+02  5.52261E+03 -5.25369E+03  3.61642E+03
