 $NMID ID='MM_0lb_SNR200_17hz_g60_11.RAW', FMTDAT='(8E13.5)'
 TRAMP=1., VOLUME=1. $END
  3.09617E+05  1.03666E+03  3.38049E+05  2.50484E+05  8.41080E+04  3.37430E+05 -1.32395E+05  2.51088E+05
 -1.91719E+05  8.27962E+04 -1.12840E+05 -3.26422E+04  1.09492E+03 -5.06529E+04  5.52083E+04 -6.85804E+02
  3.53716E+04  5.31227E+04 -1.63985E+04  7.55419E+04 -6.00719E+04  6.24730E+04 -8.34243E+04  3.21772E+04
 -8.12822E+04 -1.12728E+04 -5.68250E+04 -5.05279E+04 -1.42978E+04 -6.93825E+04  2.69937E+04 -4.48538E+04
  4.02027E+04  4.06681E+03  1.45588E+04  4.76791E+04 -3.51233E+04  4.67468E+04 -6.60634E+04 -5.02215E+02
 -5.32546E+04 -5.70451E+04 -5.82834E+03 -7.76571E+04  3.45335E+04 -5.49684E+04  4.81097E+04 -1.68894E+04
  4.26231E+04  1.11482E+04  3.24483E+04  2.58302E+04  1.54668E+04  2.93358E+04 -5.20535E+03  2.70550E+04
 -2.24023E+04  1.17473E+04 -1.94060E+04 -4.92583E+03  5.99400E+03 -7.85370E+03  2.09165E+04  1.20145E+04
  7.88572E+03  3.50008E+04 -3.08781E+04  3.50765E+04 -6.24806E+04  2.53827E+03 -5.65787E+04 -4.26878E+04
 -1.24737E+04 -6.32936E+04  3.91343E+04 -4.44967E+04  5.74231E+04 -1.45377E+03  3.38611E+04  3.24763E+04
 -6.31303E+03  3.43297E+04 -2.96268E+04  1.59819E+04 -3.03063E+04 -5.53678E+03 -1.72823E+04 -1.05120E+04
 -8.86529E+03 -1.24974E+04  2.01858E+02 -1.80969E+04  6.23179E+03 -2.31278E+04  1.57549E+04 -1.29261E+04
  1.21622E+04  3.82507E+03 -7.36331E+03  1.27878E+04 -2.15731E+04 -3.61235E+03 -7.91301E+03 -3.24290E+04
  2.32834E+04 -4.28955E+04  4.79230E+04 -2.03847E+04  4.48818E+04  1.85867E+04  1.48453E+04  4.36440E+04
 -1.60955E+04  3.38196E+04 -2.43970E+04  1.47045E+03 -8.94304E+03 -2.70356E+04  2.03555E+04 -3.37570E+04
  4.01574E+04 -9.29097E+03  3.53942E+04  2.34417E+04  1.83142E+04  4.52320E+04 -8.79413E+03  4.86332E+04
 -3.13519E+04  3.32142E+04 -4.03500E+04  9.65864E+03 -4.22080E+04 -1.56305E+04 -2.16274E+04 -3.74896E+04
  7.47737E+03 -3.64242E+04  3.06605E+04 -1.42007E+04  2.90854E+04  1.13739E+04  4.64749E+03  1.91612E+04
 -1.30290E+04  7.56917E+03 -1.02050E+04 -6.95070E+03  5.46286E+03 -1.04512E+04  1.78954E+04  5.72938E+03
  1.38602E+04  2.24980E+04 -5.92112E+03  2.48760E+04 -2.14161E+04  1.13166E+04 -2.74425E+04 -5.42473E+03
 -2.00260E+04 -1.67694E+04 -7.58135E+03 -1.95977E+04  3.13761E+03 -1.78542E+04  1.54318E+04 -1.84811E+04
  2.39394E+04 -1.22718E+04  3.13006E+04  2.49365E+03  2.24881E+04  1.85085E+04  5.38971E+03  3.51315E+04
 -1.69588E+04  2.96257E+04 -2.72349E+04  9.33438E+03 -2.08833E+04 -1.17560E+04 -3.34684E+03 -1.33411E+04
  1.97884E+03 -2.95797E+03 -3.99170E+03  6.31139E+03 -1.59483E+04  4.25720E+03 -1.62400E+04 -5.41364E+03
 -1.01097E+04 -1.78949E+04  4.70709E+03 -2.17175E+04  1.44594E+04 -1.55111E+04  1.67967E+04 -1.86592E+03
  1.09835E+04  1.31368E+04 -9.36874E+02  1.86954E+04 -1.33995E+04  1.02971E+04 -1.74850E+04 -3.02368E+03
 -1.24752E+04 -1.52661E+04 -2.50581E+03 -2.16549E+04  9.66348E+03 -1.85495E+04  1.78187E+04 -9.74629E+03
  1.59839E+04  1.24601E+02  1.21274E+04  4.02700E+03  5.91131E+03  5.24010E+02  9.53095E+03 -2.06486E+03
  1.75745E+04  2.37153E+03  1.60014E+04  1.48008E+04  1.19844E+04  2.81090E+04 -2.34407E+03  3.17036E+04
 -1.77497E+04  2.44420E+04 -2.93995E+04  1.29260E+04 -3.02577E+04 -2.28895E+03 -2.41645E+04 -1.86412E+04
 -1.07610E+04 -2.49773E+04  9.32170E+03 -2.28859E+04  1.90751E+04 -1.25325E+04  1.84622E+04  4.89657E+03
  7.61023E+03  1.32585E+04 -7.12462E+03  1.14171E+04 -1.54522E+04  2.70858E+03 -1.18558E+04 -1.02646E+04
 -5.75432E+02 -1.34812E+04  6.88505E+03 -1.05250E+04  9.85333E+03 -1.34898E+03  2.70058E+03  5.57985E+03
 -6.59698E+03  1.93618E+03 -4.69618E+03 -5.99208E+03 -3.56363E+02 -1.27434E+04  8.67217E+03 -1.29489E+04
  1.44304E+04 -6.87632E+03  1.56545E+04  3.48299E+03  1.26555E+04  1.17647E+04  5.81944E+03  1.82318E+04
 -2.10830E+03  1.92628E+04 -1.31861E+04  1.25192E+04 -1.34078E+04  2.92726E+03 -9.74047E+03 -3.18675E+03
 -5.17520E+03 -3.70785E+03 -1.27133E+03  8.67144E+02 -2.58425E+03  2.70866E+03 -4.82700E+03  4.90905E+03
 -9.91034E+03 -1.29506E+03 -9.91801E+03 -7.59528E+03 -5.55323E+03 -1.36476E+04  3.99305E+03 -1.03324E+04
  8.06381E+03 -5.20316E+03  6.49220E+03  3.64067E+03 -1.73735E+02  3.49926E+03 -3.50414E+03 -8.59781E+01
 -4.28149E+03 -6.88714E+03 -6.28108E+02 -8.15792E+03  5.04879E+03 -1.00616E+04  1.23278E+04 -5.35980E+03
  1.42935E+04  2.92704E+02  1.02391E+04  9.28366E+03  3.38264E+03  9.93685E+03 -5.30657E+03  9.50143E+03
 -7.31676E+03  3.07420E+03 -3.78821E+03 -2.58791E+03  2.51518E+03 -2.84481E+03  5.85604E+03 -1.21101E+03
  5.13838E+03  3.99805E+03  1.61575E+03  8.40687E+03 -5.09959E+03  8.62347E+03 -1.01536E+04  2.31665E+03
 -6.20289E+03 -4.45609E+03  1.23974E+03 -7.24516E+03  4.96408E+03 -3.77424E+03  4.99449E+03  9.72723E+02
  1.94922E+03  3.74430E+03 -4.47859E+03  5.18641E+03 -6.37436E+03  5.02553E+03 -6.86799E+03 -1.85205E+03
 -3.23368E+03 -7.75842E+03  1.89952E+03 -8.62947E+03  6.90303E+03 -5.13881E+03  8.71325E+03  1.97323E+03
  6.39656E+03  6.38079E+03 -4.09595E+02  8.80263E+03 -6.31394E+03  5.32097E+03 -6.39531E+03 -1.13285E+02
 -6.66768E+03 -5.68318E+03 -1.30747E+03 -6.20256E+03  2.70700E+03 -6.02240E+03  3.88890E+03 -3.99412E+03
  2.62814E+03 -6.95459E+02 -1.97163E+02  2.08498E+03 -1.87737E+01  5.35776E+02  1.29036E+03 -3.11312E+03
  5.78980E+03 -1.60656E+03  6.97654E+03  1.88271E+02  6.98357E+03  5.26816E+03  6.16247E+03  9.68574E+03
 -2.28412E+03  1.04138E+04 -9.90399E+03  8.47088E+03 -1.29155E+04  1.57565E+03 -1.03454E+04 -3.78474E+03
 -4.18458E+03 -7.63434E+03 -1.52470E+03 -6.80669E+03  1.97414E+03 -3.65518E+03  2.93005E+03 -3.02327E+03
  2.40428E+03 -1.72660E+03  3.01944E+03 -2.17951E+03  4.11157E+03 -1.98209E+03  4.08799E+03  8.67940E+02
  6.86940E+03  1.75550E+03  2.49414E+03  4.55463E+03 -1.19273E+03  4.75139E+03 -5.92825E+03  4.69382E+03
 -5.36641E+03 -6.53315E+02 -3.54471E+03 -4.46109E+03  1.09707E+02 -6.62813E+03  2.85804E+03 -6.85957E+03
  5.63829E+03 -4.12766E+03  9.81186E+03  2.40751E+02  6.14696E+03  6.05799E+03  1.50618E+03  7.88735E+03
 -2.54941E+03  7.76517E+03 -6.40268E+03  2.58122E+03 -2.79286E+03 -2.38077E+03 -6.48880E+02  4.87297E+01
 -1.36165E+03  1.52828E+00 -1.84596E+02  1.76773E+03 -3.25958E+03  1.03980E+03 -5.31141E+03 -3.99572E+02
 -1.56143E+03 -4.91799E+03  5.82018E+02 -5.17131E+03  3.90528E+03 -5.15630E+03  4.11579E+03 -2.03435E+03
  5.79874E+03  3.91582E+03  3.45881E+03  3.71348E+03 -1.76075E+03  5.22316E+03 -4.04701E+03  3.67299E+03
 -5.72696E+03  4.58758E+02 -4.67751E+03 -3.48448E+03 -4.91697E+02 -4.07213E+03  2.27845E+03 -2.12011E+03
  4.05997E+03 -1.03977E+03  2.80398E+03  4.94942E+02  5.73169E+02  1.52363E+03  1.55679E+03  5.79120E+02
  9.38154E+02  7.29818E+02  1.72919E+03  1.45029E+03  1.70097E+03  3.95870E+03  2.25031E+03  2.12983E+03
 -1.70570E+03  3.90286E+03 -3.08293E+03  3.85770E+03 -3.92504E+03  1.37824E+03 -5.18593E+03 -1.97931E+03
 -2.57081E+03 -4.40312E+03  1.19332E+03 -5.83248E+03  3.63835E+03 -3.95785E+03  4.36774E+03 -8.60199E+02
  4.02510E+03  2.63187E+03  1.07057E+03  3.46202E+03 -3.60763E+02  2.23669E+03 -8.90362E+02 -1.15544E+03
 -9.37680E+02 -2.68498E+03  1.80696E+03 -1.28994E+03  2.58351E+03 -1.75837E+03  2.92579E-01 -4.45494E+02
  6.49450E+02 -8.64254E+02  8.48791E+02 -7.73231E+02 -1.42573E+03  1.12496E+03  1.85724E+03 -1.34114E+02
  3.12446E+02 -2.94436E+02  2.47603E+03  4.79083E+02  2.15146E+03  2.77158E+03 -4.83837E+02  4.59011E+03
 -2.03496E+03  8.93509E+02 -3.75940E+03  1.89598E+02 -2.90357E+03 -1.62762E+03 -6.17911E+02 -6.47036E+02
  3.79611E+02 -2.63097E+03  1.86938E+03 -7.12950E+01  1.96462E+03  1.30656E+03 -1.13912E+03  4.36305E+02
 -2.19218E+03  7.11805E+02 -1.67895E+03 -1.60745E+03 -2.31096E+03 -3.03299E+03  4.13434E+02 -1.97088E+03
  1.02651E+03 -1.01116E+03  8.76574E+02 -9.21924E+01  1.84534E+03 -3.16419E+01  3.00321E+02  1.66042E+03
 -1.20087E+03 -9.77981E+01 -9.22458E+02 -1.25289E+03  9.34884E+02 -6.13150E+02  2.95563E+03 -1.26157E+03
  2.22258E+03  4.67336E+01  3.67153E+03  2.53533E+03  1.64188E+03  2.55728E+03  2.63172E+02  2.57346E+03
 -2.16799E+03 -3.12851E+02 -1.67276E+03 -1.54244E+03 -1.62619E+03 -2.16262E+03  9.66707E+02 -4.64718E+02
  2.90431E+03 -1.08921E+02  6.03127E+02  2.12954E+02 -1.61748E+02  1.99230E+03  3.57933E+02  2.19450E+03
 -1.30460E+03  1.20620E+03 -1.15894E+03 -3.32645E+02  7.35175E+02  7.36300E+02 -1.39125E+03  8.79049E+02
 -4.95757E+02  1.20796E+03 -2.26461E+03  1.17239E+03 -1.53032E+03  2.47947E+02 -1.81735E+03 -2.08839E+03
 -1.08182E+03 -2.10347E+03  6.13895E+02 -2.37473E+03  6.48942E+02 -2.74402E+03  3.72725E+03 -2.18959E+03
  3.39226E+03 -1.12096E+02  8.15449E+02  2.35476E+03 -8.22520E+02  2.83712E+03 -1.55565E+03  1.62399E+03
  7.55175E+01  3.73316E+02 -1.77036E+03  1.26111E+02 -9.60449E+02 -2.97119E+01 -1.69039E+03  9.85058E+02
 -2.27187E+03  9.18830E+01 -7.42366E+02  1.16641E+03 -1.85498E+02 -1.95374E+02  3.73140E+02 -7.31729E+02
  1.96792E+03 -1.32463E+03  8.51462E+02 -5.79197E+02  1.53682E+03  1.98487E+03 -1.00296E+03  2.86371E+03
 -1.73228E+03  2.50549E+03 -2.58169E+03  2.72939E+03 -3.42150E+03 -1.61532E+02 -1.54355E+03 -1.63938E+03
 -6.67502E+02 -1.34686E+03  1.03533E+03 -3.99456E+02  1.27026E+03 -5.90705E+02  1.50171E+03  8.20886E+02
  1.86735E+03 -3.51177E+02  1.34277E+03 -4.88044E+02 -6.74849E+01 -9.90068E+02  4.88751E+02 -4.20764E+02
  5.33032E+02  8.08798E+01  5.31411E+02  1.87438E+03 -5.22039E+02  4.80679E+02  8.00860E+02  9.82003E+02
  3.22412E+02  1.78047E+03 -2.30924E+02  1.37710E+03 -1.48308E+03 -1.20115E+03 -2.14528E+02 -1.94524E+03
  1.05705E+03  5.93166E+01  1.08909E+03 -1.38993E+02  8.25819E+02  8.51532E+01  8.78894E+02 -2.68365E+01
  1.47784E+03  1.51480E+03 -1.78033E+03  6.27530E+02 -4.48454E+01  5.78660E+02  1.61960E+02  1.53206E+01
  1.00642E+03 -4.78384E+02  3.69031E+02  7.66917E+02 -2.81017E+02 -1.82275E+03 -1.90720E+03  4.27160E+02
 -1.15283E+03 -1.57614E+03 -8.50507E+02 -2.15397E+03  1.19322E+03 -1.04688E+03  1.01657E+03 -8.04420E+02
 -2.33282E+02  5.25062E+02 -1.34584E+03  1.54097E+02  1.88576E+02  5.21844E+02 -1.11288E+03  8.65962E+02
