 $NMID ID='MM_0lb_SNR200_19hz_g60_79.RAW', FMTDAT='(8E13.5)'
 TRAMP=1., VOLUME=1. $END
  3.09699E+05  1.21986E+01  3.38021E+05  2.50759E+05  8.42413E+04  3.37066E+05 -1.31271E+05  2.51036E+05
 -1.90781E+05  8.27006E+04 -1.12089E+05 -3.21714E+04  1.28207E+03 -5.08165E+04  5.37991E+04 -7.64449E+02
  3.45280E+04  5.22902E+04 -1.67208E+04  7.62496E+04 -6.05810E+04  6.33389E+04 -8.38449E+04  3.15824E+04
 -7.96313E+04 -1.15701E+04 -5.61069E+04 -5.05959E+04 -1.53659E+04 -6.92032E+04  2.62972E+04 -4.65296E+04
  4.06966E+04  2.54202E+03  1.64174E+04  4.77293E+04 -3.47527E+04  4.57209E+04 -6.55505E+04 -5.93073E+02
 -5.34242E+04 -5.67806E+04 -6.46595E+03 -7.63394E+04  3.47139E+04 -5.38301E+04  4.68109E+04 -1.61136E+04
  4.22232E+04  1.22756E+04  3.16481E+04  2.48724E+04  1.62634E+04  2.80996E+04 -4.47759E+03  2.69637E+04
 -2.23164E+04  1.25552E+04 -1.87301E+04 -5.50861E+03  4.80505E+03 -6.42259E+03  2.15565E+04  1.19303E+04
  7.28598E+03  3.40700E+04 -3.13042E+04  3.28126E+04 -6.23587E+04  2.51231E+03 -5.55132E+04 -4.22980E+04
 -1.40500E+04 -6.21013E+04  3.80454E+04 -4.49190E+04  5.70503E+04 -2.43796E+03  3.35623E+04  3.24080E+04
 -6.91546E+03  3.42932E+04 -2.83599E+04  1.39180E+04 -2.93164E+04 -4.14269E+03 -1.56791E+04 -1.09351E+04
 -7.73191E+03 -1.21376E+04 -2.25664E+03 -1.78762E+04  8.38610E+03 -2.30967E+04  1.51119E+04 -1.45711E+04
  1.16771E+04  5.07894E+03 -7.51048E+03  1.28997E+04 -1.91365E+04 -2.94196E+03 -8.27696E+03 -3.19630E+04
  2.22487E+04 -4.21604E+04  4.62197E+04 -1.93420E+04  4.24311E+04  1.81107E+04  1.52754E+04  4.37579E+04
 -1.51263E+04  3.21087E+04 -2.33604E+04  1.82157E+03 -9.34451E+03 -2.71765E+04  2.03374E+04 -3.24008E+04
  3.89425E+04 -8.03301E+03  3.25920E+04  2.37466E+04  1.45777E+04  4.43365E+04 -8.44921E+03  4.63312E+04
 -3.02101E+04  3.16885E+04 -3.94804E+04  8.86234E+03 -4.05908E+04 -1.60516E+04 -2.14787E+04 -3.53107E+04
  7.01043E+03 -3.57193E+04  2.95967E+04 -1.29312E+04  2.77472E+04  1.14675E+04  4.23805E+03  1.88659E+04
 -1.35519E+04  7.46175E+03 -9.83492E+03 -8.49099E+03  4.74139E+03 -1.10107E+04  1.66252E+04  5.89627E+03
  1.26456E+04  2.16509E+04 -6.68354E+03  2.45341E+04 -2.19202E+04  1.07297E+04 -2.58883E+04 -4.74705E+03
 -1.83014E+04 -1.69184E+04 -6.80796E+03 -1.77022E+04  3.91625E+03 -1.58564E+04  1.40824E+04 -1.59796E+04
  2.33342E+04 -1.20243E+04  2.97619E+04  1.64416E+03  2.23189E+04  1.74994E+04  3.51046E+03  3.27672E+04
 -1.66302E+04  2.82322E+04 -2.70756E+04  1.00157E+04 -2.08338E+04 -9.67210E+03 -4.69195E+03 -1.39306E+04
  1.86751E+03 -4.50318E+03 -2.89549E+03  5.87473E+03 -1.41617E+04  4.87349E+03 -1.45796E+04 -5.27530E+03
 -8.99941E+03 -1.73615E+04  4.21382E+03 -2.04609E+04  1.39530E+04 -1.45324E+04  1.62582E+04 -1.70157E+03
  1.11553E+04  1.02787E+04 -1.80249E+03  1.66665E+04 -1.07631E+04  8.90922E+03 -1.63200E+04 -2.57912E+03
 -1.27368E+04 -1.44676E+04 -1.31280E+03 -2.02534E+04  8.07740E+03 -1.68075E+04  1.70045E+04 -7.72569E+03
  1.55939E+04  3.66853E+02  1.06886E+04  3.46815E+03  6.41806E+03 -1.99289E+02  9.03287E+03 -2.06856E+02
  1.55757E+04  2.43874E+03  1.64055E+04  1.32482E+04  1.02612E+04  2.59503E+04 -3.27110E+03  2.91163E+04
 -1.74889E+04  2.12730E+04 -2.63235E+04  9.90777E+03 -2.79411E+04 -2.70855E+03 -2.29477E+04 -1.44377E+04
 -9.77179E+03 -2.23513E+04  8.72322E+03 -2.15728E+04  1.85762E+04 -1.09361E+04  1.66969E+04  3.59460E+03
  6.55694E+03  1.17393E+04 -7.21903E+03  1.07017E+04 -1.24584E+04  2.09161E+03 -1.08628E+04 -8.81858E+03
 -3.35200E+02 -1.19469E+04  6.23926E+03 -1.02799E+04  8.31770E+03 -1.98460E+03  2.01515E+03  3.55921E+03
 -6.03851E+03  1.85164E+03 -4.61042E+03 -4.15469E+03  8.63856E+02 -1.05861E+04  8.68981E+03 -1.12296E+04
  1.35226E+04 -5.28652E+03  1.29761E+04  3.46068E+03  1.11098E+04  1.12480E+04  5.75597E+03  1.46429E+04
 -1.26069E+03  1.76219E+04 -1.03771E+04  1.15029E+04 -1.19329E+04  2.44146E+03 -8.83758E+03 -1.22588E+03
 -4.34344E+03 -3.44050E+03 -1.36625E+03  1.44391E+03 -2.13639E+03  1.26721E+03 -4.17738E+03  3.46328E+03
 -8.08470E+03  1.73608E+02 -9.89070E+03 -6.74493E+03 -3.56346E+03 -1.19821E+04  3.36576E+03 -9.84156E+03
  8.26345E+03 -4.28196E+03  5.24995E+03  2.83114E+03  9.40843E+02  3.08755E+03 -4.35801E+03 -7.00829E+02
 -3.24405E+03 -6.18908E+03 -3.70398E+02 -9.43573E+03  3.31887E+03 -8.79025E+03  1.05648E+04 -4.43648E+03
  1.27445E+04  7.30761E+02  9.92623E+03  5.69232E+03  1.73517E+03  8.25539E+03 -5.95478E+03  7.41416E+03
 -6.46642E+03  2.17154E+03 -4.50736E+03 -1.90918E+03  1.21323E+03 -3.17562E+03  3.71611E+03 -9.01201E+02
  3.76689E+03  4.22970E+03  1.60814E+03  8.11521E+03 -3.73128E+03  7.13236E+03 -8.21306E+03  2.07941E+03
 -4.69035E+03 -3.53467E+03  9.89688E+02 -7.67294E+03  3.89909E+03 -2.53453E+03  3.61255E+03  1.77080E+03
  8.48181E+02  3.46383E+03 -4.09690E+03  4.94372E+03 -4.61752E+03  2.88054E+03 -5.57618E+03 -1.05101E+03
 -2.15202E+03 -6.43614E+03  1.09927E+03 -7.03390E+03  6.67625E+03 -5.40069E+03  4.98740E+03  2.97547E+02
  4.87389E+03  4.85317E+03  2.31811E+02  7.20051E+03 -5.15138E+03  5.02555E+03 -5.59455E+03 -1.17807E+03
 -6.30872E+03 -6.28926E+03 -5.97078E+02 -4.93132E+03  2.35213E+03 -4.95429E+03  2.80572E+03 -2.17035E+03
  2.08553E+03  1.63312E+03  6.04265E+02  9.66952E+02  5.30948E+02 -1.44199E+03 -1.04374E+03 -2.17008E+03
  3.87088E+03 -1.13610E+03  5.57542E+03  8.37153E+02  5.78842E+03  2.42708E+03  5.21112E+03  6.36409E+03
 -2.01233E+03  9.34259E+03 -7.52252E+03  7.15584E+03 -1.09210E+04  2.01677E+03 -7.96563E+03 -1.84757E+03
 -5.02323E+03 -6.38447E+03 -3.20670E+02 -6.18565E+03  2.07862E+03 -2.51535E+03  1.99079E+03 -2.68348E+03
  3.44924E+02 -2.00740E+03  2.66453E+03 -2.29096E+03  3.69121E+03 -2.33896E+03  3.88188E+03 -8.44962E+01
  5.47609E+03  1.68097E+03  1.17632E+03  3.57773E+03 -1.73655E+03  2.85169E+03 -5.31916E+03  2.68870E+03
 -3.83485E+03  4.16010E+02 -1.42554E+03 -3.12181E+03  3.95734E+02 -5.08195E+03  2.51994E+03 -4.44275E+03
  5.68963E+03 -3.74563E+03  6.04622E+03  3.45271E+02  4.56227E+03  4.48090E+03  3.57742E+02  5.35260E+03
 -1.93026E+03  6.47004E+03 -3.59041E+03  2.57187E+03 -2.01354E+03 -1.61402E+03 -6.78198E+02  1.11088E+02
  2.14272E+02 -4.61215E+01 -1.27463E+03  2.09569E+03 -2.54077E+03  1.78401E+03 -4.41144E+03 -5.68777E+02
 -3.02481E+03 -4.47623E+03 -1.25166E+02 -4.46922E+03  2.28194E+03 -4.09804E+03  2.97129E+03 -1.18153E+03
  2.35470E+03  2.22583E+03  2.71110E+03  3.24684E+03 -9.89074E+02  4.46962E+03 -2.87146E+03  3.04222E+03
 -4.38112E+03  6.49713E+02 -4.15202E+03 -1.72655E+03 -6.27053E+02 -2.68403E+03  1.02235E+03 -3.06458E+03
  2.57695E+03 -1.35333E+03  2.42589E+03  1.30863E+03  1.13279E+03  2.59544E+03  9.23347E+02  5.32469E+01
  2.31119E+03  5.51404E+02  8.50926E+02  2.53698E+02  7.50340E+02  2.40065E+03  1.71393E+03  2.31242E+03
  3.43201E+01  2.89993E+03 -3.67114E+03  3.34150E+03 -2.04682E+03  1.56106E+03 -3.78089E+03 -9.16123E+02
 -2.45083E+03 -3.87276E+03  3.72628E+02 -4.42716E+03  2.02012E+03 -2.70202E+03  3.16578E+03 -1.02721E+03
  2.45590E+03  1.92617E+03  3.44433E+02  1.72061E+03 -1.00626E+03  2.65031E+03 -1.14958E+03  7.97059E+02
 -1.30434E+02 -1.79652E+03  8.54490E+02 -8.44952E+02  2.33163E+02 -4.42768E+02  9.08089E+02 -5.71642E+02
  1.92222E+03 -2.98185E+02  1.44792E+03 -5.80161E+02 -1.18406E+02  3.21921E+02  8.52379E+02 -1.52587E+02
  3.26590E+02  4.09196E+02  2.45865E+03  1.46762E+00  5.63495E+01  1.73897E+03 -4.51048E+02  3.12833E+03
 -1.44867E+03  1.41916E+03 -3.20365E+03  6.74987E+02 -2.23637E+03 -1.19840E+02 -8.90031E+02 -1.33887E+03
 -2.62166E+01 -2.34152E+02  1.54137E+03 -3.16758E+02  4.24013E+00  4.88624E+02 -6.26795E+02  1.95312E+03
 -2.14195E+03  5.64992E+02 -1.05595E+03 -1.58618E+03 -1.07034E+03 -1.23489E+03 -2.05494E+02 -1.89686E+03
  9.45678E+02  5.49660E+02  1.02343E+03  4.70994E+02  6.18594E+02 -6.86155E+01  9.18973E+02  2.09940E+02
 -4.04611E+02  2.23141E+02 -2.03316E+02  1.45901E+02  2.27923E+02 -7.45289E+02  1.48157E+03 -8.68244E+02
  1.83616E+03  6.37535E+02  1.47475E+03  4.05067E+02  8.66488E+02  1.81205E+03  1.95653E+02  1.75883E+03
 -8.91829E+02 -4.58711E+02 -1.12921E+03 -8.03200E+02 -3.78731E+02 -1.35564E+03 -7.12234E+02 -4.24808E+02
  1.55691E+03  9.82712E+01  3.63954E+02  1.55582E+02  4.87820E+02  1.87292E+03 -1.65428E+02  1.49268E+03
  5.25503E+02  1.57430E+03 -1.02006E+03  1.70984E+02 -2.50872E+01  5.69399E+02 -2.31962E+02 -1.22261E+00
 -8.33180E+02  1.09741E+03 -1.57488E+03  1.10276E+02 -1.45590E+03  6.79462E+02 -1.95359E+03 -7.67641E+02
  6.55765E+01 -2.40225E+03  1.28121E+03 -2.51806E+03  1.17259E+03 -2.96599E+03  2.12345E+03 -1.52902E+03
  5.96074E+02 -6.83188E+02  9.51281E+02  9.68160E+02 -7.08029E+02  1.12496E+03 -3.04006E+02  1.46915E+03
 -1.19320E+03  1.49754E+03 -8.08642E+02  5.01193E+02 -4.96088E+02  1.05317E+02 -1.44362E+03 -2.27233E+02
 -8.78573E+02 -1.02687E+03 -4.97377E+02  7.30358E+02  4.63246E+02  3.82102E+01 -3.79954E+02 -8.47138E+01
  8.01841E+02  2.22293E+02  8.02380E+02 -3.57789E+02 -8.55727E+01  7.31121E+02 -2.88704E+02  1.28419E+03
 -1.04636E+03  2.20633E+03 -1.64427E+03  1.33933E+03 -1.68583E+03 -7.91530E+01 -5.39205E+02 -3.49164E+02
 -2.44414E+02  6.83623E+02  1.36423E+03 -3.62487E+02  2.65037E+02 -4.32756E+02 -3.66570E+02 -3.10372E+02
  8.11400E+01  1.13892E+01  4.88088E+02  3.81229E+02 -9.96551E+02  8.87849E+02 -9.69272E+02  6.93867E+02
  7.74979E+02  3.69619E+02  1.01514E+03 -2.76945E+01  2.72826E+02  5.72278E+02  5.10156E+02 -3.98242E+02
  1.43063E+03  8.39294E+02 -9.92055E+02  2.24277E+02 -6.26799E+02 -1.10608E+02  1.84054E+01 -1.23746E+03
  4.53304E+01 -7.55065E+02  8.70523E+02  1.94398E+02  2.69678E+02 -1.83663E+03  9.47930E+02  9.91648E+02
  9.25964E+02  1.63236E+01  6.42194E+02  1.22702E+03 -2.97364E+02  4.78046E+02 -7.93715E+02 -7.18976E+00
 -6.59407E+02  2.21971E+01 -8.46887E+02 -4.84577E+02 -7.91774E+02 -1.47572E+02 -1.23783E+03 -6.56757E+02
 -9.11638E+02  1.44434E+03 -1.00340E+01 -2.70671E+01 -1.18975E+02 -1.05536E+03  6.37746E+02  2.74183E+02
  2.24415E+02 -7.69491E+02 -1.39701E+03  2.97866E+02  9.67309E+00  1.01728E+03 -8.38266E+02  6.79556E+02
