 $NMID ID='MM_0lb_SNR200_8hz_g40_28.RAW', FMTDAT='(8E13.5)'
 TRAMP=1., VOLUME=1. $END
  3.10510E+05  1.26264E+03  3.36538E+05  2.52541E+05  8.67303E+04  3.39229E+05 -1.33771E+05  2.52813E+05
 -1.90015E+05  8.49087E+04 -1.12055E+05 -3.20062E+04 -1.14120E+03 -5.04176E+04  5.32018E+04 -5.68053E+02
  3.45698E+04  5.22122E+04 -1.78134E+04  7.74939E+04 -6.15641E+04  6.58883E+04 -8.30681E+04  3.20879E+04
 -8.25434E+04 -1.33397E+04 -5.67679E+04 -5.00162E+04 -1.52295E+04 -7.05497E+04  2.75748E+04 -4.75583E+04
  4.07630E+04  1.18779E+03  1.61068E+04  4.83845E+04 -3.42999E+04  4.79388E+04 -6.86421E+04 -5.51065E+02
 -5.51273E+04 -5.99182E+04 -7.39372E+03 -7.83249E+04  3.55335E+04 -5.65949E+04  5.10539E+04 -1.95970E+04
  4.42656E+04  9.25872E+03  3.22704E+04  2.43335E+04  1.57079E+04  3.12600E+04 -5.91815E+03  2.81289E+04
 -2.32080E+04  1.19544E+04 -1.71395E+04 -6.72998E+03  8.41370E+03 -7.74853E+03  2.43325E+04  1.35614E+04
  7.43789E+03  3.71849E+04 -3.43760E+04  3.76691E+04 -6.70790E+04  1.12863E+03 -5.99554E+04 -4.54012E+04
 -1.33932E+04 -6.60638E+04  4.14118E+04 -4.71263E+04  6.09168E+04 -3.09694E+03  3.58960E+04  3.44736E+04
 -4.02478E+03  4.05946E+04 -3.01872E+04  1.75324E+04 -3.30355E+04 -3.03366E+03 -2.13798E+04 -1.12211E+04
 -8.98559E+03 -1.49243E+04 -1.54966E+03 -2.07812E+04  7.93164E+03 -2.47584E+04  1.50769E+04 -1.11018E+04
  9.69464E+03  5.53461E+03 -1.02953E+04  1.33511E+04 -2.24048E+04 -6.52121E+03 -7.96531E+03 -3.68134E+04
  2.42024E+04 -4.73315E+04  5.25843E+04 -2.10607E+04  4.89079E+04  2.31853E+04  1.65343E+04  4.77016E+04
 -1.62228E+04  3.76975E+04 -2.79917E+04  2.26401E+03 -1.20348E+04 -2.79035E+04  1.97120E+04 -3.63773E+04
  4.61085E+04 -1.07170E+04  4.23645E+04  2.49577E+04  1.95792E+04  5.14945E+04 -7.69327E+03  5.51028E+04
 -3.61088E+04  4.01311E+04 -4.77334E+04  1.12407E+04 -4.66726E+04 -1.77976E+04 -2.60849E+04 -4.17996E+04
  6.43794E+03 -4.20107E+04  3.36267E+04 -1.65745E+04  3.21409E+04  1.29424E+04  5.63720E+03  2.06794E+04
 -1.47007E+04  9.93001E+03 -1.07204E+04 -7.85217E+03  4.13757E+03 -1.19587E+04  1.80007E+04  5.39486E+03
  1.33247E+04  2.29736E+04 -5.44596E+03  2.66801E+04 -2.24262E+04  1.34395E+04 -3.19981E+04 -3.55884E+03
 -2.61695E+04 -1.80875E+04 -1.09063E+04 -2.55636E+04  5.73723E+03 -2.55487E+04  2.11037E+04 -2.35279E+04
  3.21791E+04 -1.33248E+04  3.83359E+04  5.42863E+03  2.73857E+04  2.58294E+04  2.32878E+03  4.16699E+04
 -1.98805E+04  3.48166E+04 -3.17785E+04  1.12812E+04 -2.20777E+04 -8.05602E+03 -3.98918E+03 -1.22988E+04
  1.14537E+03 -1.58898E+03 -6.83160E+03  8.07634E+03 -1.93859E+04  4.57796E+03 -2.04443E+04 -9.07973E+03
 -1.16908E+04 -2.26084E+04  5.02669E+03 -2.75612E+04  1.60286E+04 -1.94553E+04  2.28245E+04 -3.54452E+03
  1.28374E+04  1.79091E+04  1.01576E+03  2.51178E+04 -1.52870E+04  1.38979E+04 -2.37909E+04 -5.49686E+03
 -1.87274E+04 -2.01598E+04 -4.08135E+03 -2.76554E+04  1.23395E+04 -2.25584E+04  2.41501E+04 -1.34843E+04
  2.16748E+04 -4.22262E+01  1.70293E+04  4.42092E+03  9.10190E+03  1.54839E+03  1.21334E+04 -1.26229E+03
  2.15340E+04  1.27738E+03  2.42895E+04  1.79865E+04  1.74561E+04  3.77657E+04 -5.85656E+02  4.44742E+04
 -2.58583E+04  3.69562E+04 -4.16034E+04  1.94095E+04 -4.54531E+04 -4.41638E+03 -3.73824E+04 -2.75273E+04
 -1.35354E+04 -3.85466E+04  1.35493E+04 -3.40462E+04  2.87423E+04 -1.62506E+04  2.46815E+04  7.84468E+03
  9.09402E+03  1.89765E+04 -9.56524E+03  1.61948E+04 -1.99528E+04  1.63383E+03 -1.64325E+04 -1.47641E+04
  6.09651E+02 -1.88385E+04  1.14358E+04 -1.37465E+04  1.32050E+04 -1.17216E+03  5.28992E+03  9.19774E+03
 -9.59991E+03  4.73328E+03 -8.82451E+03 -6.74675E+03 -1.32600E+03 -1.78259E+04  1.20229E+04 -2.13020E+04
  2.47786E+04 -1.17507E+04  2.51442E+04  3.60819E+03  2.34309E+04  1.75834E+04  1.01140E+04  2.93384E+04
 -4.78662E+03  3.05963E+04 -2.07959E+04  2.05732E+04 -2.38470E+04  3.30727E+03 -1.47579E+04 -6.28768E+03
 -5.00138E+03 -7.97748E+03 -3.79747E+02  4.81343E+02 -2.37169E+03  2.05617E+03 -7.84278E+03  5.81883E+03
 -1.52075E+04  1.55555E+03 -1.50471E+04 -1.16306E+04 -8.49363E+03 -2.18336E+04  5.80103E+03 -1.54799E+04
  1.43519E+04 -4.55998E+03  1.01835E+04  3.83581E+03  2.98463E+02  5.93492E+03 -7.97972E+03 -1.59253E+01
 -8.10131E+03 -1.00753E+04  5.81524E+02 -1.41622E+04  7.89676E+03 -1.66420E+04  2.16227E+04 -9.55312E+03
  2.39928E+04  1.85867E+03  1.74455E+04  1.46011E+04  1.77265E+03  1.89931E+04 -1.06503E+04  1.59247E+04
 -1.25851E+04  3.33669E+03 -7.58276E+03 -5.12735E+03  2.55658E+03 -4.77551E+03  7.13205E+03 -1.71957E+03
  6.58854E+03  6.56690E+03  6.99348E+02  1.36924E+04 -8.73277E+03  1.04778E+04 -1.52789E+04  2.70056E+03
 -1.03298E+04 -8.40067E+03 -4.31559E+02 -1.43356E+04  7.77392E+03 -5.94210E+03  8.55846E+03  3.94673E+03
  3.01467E+03  1.12800E+04 -8.00023E+03  1.17138E+04 -1.44649E+04  6.08527E+03 -1.45813E+04 -4.86366E+03
 -8.49244E+03 -1.65408E+04  3.94605E+03 -1.76571E+04  1.60611E+04 -1.00583E+04  1.81869E+04  4.52642E+03
  1.03937E+04  1.28969E+04 -1.18849E+03  1.67658E+04 -1.05645E+04  8.84913E+03 -1.34638E+04 -4.97277E+02
 -1.13379E+04 -1.15255E+04 -3.09342E+03 -1.35351E+04  8.38817E+03 -9.60164E+03  7.46989E+03 -4.15254E+03
  5.42455E+03  2.07937E+03 -7.30815E+02  2.79274E+03 -7.86365E+02 -3.34066E+03  2.51932E+03 -8.32166E+03
  1.09392E+04 -5.52982E+03  1.73761E+04  1.56178E+03  1.66799E+04  1.16916E+04  1.10619E+04  2.19756E+04
 -5.27681E+03  2.47602E+04 -2.12613E+04  1.83515E+04 -2.80167E+04  3.39139E+03 -2.27365E+04 -9.89379E+03
 -1.18916E+04 -1.80585E+04 -4.54625E+02 -1.72447E+04  4.07094E+03 -6.96336E+03  4.58595E+03 -5.33168E+03
  2.12222E+03 -4.14734E+03  4.53780E+03 -5.96111E+03  5.04949E+03 -4.02456E+03  7.74589E+03 -3.69237E+03
  1.04325E+04  2.11472E+03  6.24628E+03  9.53332E+03 -2.25840E+03  1.12411E+04 -1.31562E+04  7.91197E+03
 -1.59492E+04  8.44598E+00 -8.20122E+03 -1.12355E+04 -1.17209E+03 -1.66418E+04  8.18639E+03 -1.76941E+04
  1.75326E+04 -7.65598E+03  2.04785E+04  1.22119E+03  1.45566E+04  1.56261E+04  2.33691E+03  1.88252E+04
 -9.48402E+03  1.50677E+04 -9.89675E+03  5.01896E+03 -7.87084E+03 -1.62266E+03 -3.89898E+03 -6.11743E+02
 -1.93936E+03  7.18383E+02 -2.42123E+03  3.32761E+03 -6.16526E+03  2.47114E+03 -9.83898E+03 -1.01006E+03
 -7.92809E+03 -1.11200E+04 -9.71160E+02 -1.60274E+04  8.85006E+03 -1.35397E+04  1.71636E+04 -4.60257E+03
  1.41331E+04  9.03541E+03  8.15339E+03  1.49488E+04 -3.34133E+03  1.49465E+04 -9.86796E+03  8.01604E+03
 -1.48777E+04  7.35217E+02 -9.79261E+03 -9.27657E+03 -1.73376E+03 -1.34907E+04  7.96282E+03 -1.11382E+04
  1.07549E+04 -3.37477E+03  7.50977E+03  3.06789E+03  1.77118E+03  4.19701E+03  2.88024E+03  6.21427E+02
  4.17122E+03  1.13657E+03  3.83967E+03  2.04891E+03  5.44301E+03  6.13250E+03  4.96986E+03  7.53892E+03
 -2.72628E+03  1.21349E+04 -1.11153E+04  1.20057E+04 -1.59891E+04  3.22316E+03 -1.71846E+04 -8.17186E+03
 -7.83248E+03 -1.46850E+04  3.99645E+03 -1.59824E+04  8.46374E+03 -1.18503E+04  1.28667E+04 -2.72872E+03
  1.00627E+04  6.59782E+03  2.28446E+03  9.51209E+03 -3.44567E+03  6.32220E+03 -6.40106E+03 -1.82528E+03
 -2.02133E+03 -6.95998E+03  4.22989E+03 -6.49686E+03  6.10858E+03 -5.45392E+03  7.38037E+03  2.40210E+03
  3.22616E+03  4.49018E+03  1.32904E+03  2.52351E+03 -1.33384E+03  1.46709E+03  2.62315E+03 -2.39950E+03
  2.82081E+03 -8.80114E+02  6.25050E+03  2.31727E+03  5.12841E+03  8.09266E+03 -2.30963E+03  1.24153E+04
 -5.06655E+03  8.50100E+03 -1.00723E+04  1.02764E+03 -7.11198E+03 -4.33282E+03 -4.70342E+03 -6.12584E+03
  2.64882E+03 -6.35723E+03  5.11929E+03 -2.71420E+03  3.16860E+03  3.67654E+03 -1.09002E+03  4.73080E+03
 -7.52368E+03  2.93986E+03 -8.16008E+03 -4.20770E+03 -5.26034E+03 -8.84561E+03  1.39807E+03 -9.22673E+03
  6.03595E+03 -6.31203E+03  7.72499E+03 -5.73074E+02  4.72504E+03  2.01005E+03  1.18772E+03  4.88971E+03
 -2.19326E+03  8.75109E+02 -3.52163E+03 -2.88963E+03  1.61970E+03 -5.90264E+03  8.28482E+03 -5.53295E+03
  1.07308E+04 -1.20253E+03  1.22129E+04  7.99283E+03  3.61292E+03  1.17456E+04 -3.58089E+03  1.05823E+04
 -8.70173E+03  5.55792E+03 -9.27497E+03  2.65061E+02 -3.83251E+03 -6.04915E+03  1.49838E+03 -6.70448E+03
  8.48881E+03 -4.43024E+03  6.41385E+03  3.40037E+03  1.29489E+03  7.22470E+03 -8.39480E+02  6.98585E+03
 -1.68843E+03  4.49978E+03 -2.03651E+03  2.05093E+03 -1.63014E+03  8.39226E+02 -2.64697E+03  3.02899E+03
 -3.70627E+03  4.85486E+03 -6.87963E+03  2.62348E+03 -1.22858E+04 -1.91372E+03 -1.42487E+04 -8.52512E+03
 -7.25283E+03 -1.42939E+04  3.06217E+03 -1.61599E+04  1.04312E+04 -1.22149E+04  1.58962E+04 -4.72409E+03
  1.46191E+04  2.64420E+03  9.95179E+03  1.16696E+04  2.22754E+03  1.14860E+04 -4.79123E+03  9.84597E+03
 -6.11192E+03  1.97184E+03 -4.68577E+03 -3.22296E+03 -2.24591E+03 -2.71100E+03  3.14984E+02 -1.15485E+03
 -3.53430E+03 -9.93939E+02 -2.71169E+03 -2.34751E+02 -9.25799E+02 -2.46253E+03 -3.78780E+02 -4.48182E+03
  4.26398E+03 -4.09942E+03  7.15548E+03 -2.65116E+02  7.41968E+03  7.92125E+03  9.35381E+02  9.87537E+03
 -4.38619E+03  1.31278E+04 -1.26375E+04  7.77196E+03 -1.41056E+04 -1.79978E+03 -1.22179E+04 -1.01307E+04
 -3.80048E+03 -1.22946E+04  3.58612E+03 -9.99332E+03  7.25306E+03 -5.78648E+03  8.88647E+03 -1.58285E+02
  2.93164E+03  2.97061E+03 -9.21746E+02  3.53870E+03 -2.16649E+03  4.02213E+01 -3.83785E+02 -3.89349E+03
  2.77576E+03 -2.67684E+03  4.68034E+03  1.89015E+03  3.33415E+03  4.66024E+03 -5.33023E+02  4.23103E+03
 -4.83537E+03  5.41555E+03 -5.77438E+03  8.62052E+01 -7.93080E+03 -7.24545E+03 -9.07408E+02 -9.74298E+03
  5.39616E+03 -9.10916E+03  9.64016E+03 -1.87228E+03  8.62570E+03  2.78383E+03  4.62761E+03  6.42893E+03
  1.83042E+03  7.38544E+03 -4.15387E+03  6.38500E+03 -5.36409E+03  1.94022E+03 -3.91045E+03 -6.81710E+02
 -2.11109E+03 -2.24283E+01 -2.71637E+03  3.02493E+03 -5.57329E+03  9.11321E+02 -7.58707E+03 -1.38314E+03
 -5.60515E+03 -3.66699E+03 -1.99001E+03 -7.59562E+03  2.35747E+03 -9.03789E+03  6.94273E+03 -5.17734E+03
  7.71475E+03 -3.13467E+02  4.13156E+03  5.37182E+03 -1.08599E+02  9.59807E+03 -5.14550E+03  6.33070E+03
