 $NMID ID='MM_0lb_SNR200_9hz_g40_30.RAW', FMTDAT='(8E13.5)'
 TRAMP=1., VOLUME=1. $END
  3.08808E+05  1.01958E+03  3.37557E+05  2.51106E+05  8.49929E+04  3.37984E+05 -1.33653E+05  2.52350E+05
 -1.89830E+05  8.41959E+04 -1.13436E+05 -3.22908E+04  5.43472E+02 -4.92782E+04  5.33274E+04 -1.05155E+03
  3.62880E+04  5.32754E+04 -1.71412E+04  7.37461E+04 -6.19497E+04  6.54620E+04 -8.52095E+04  3.10653E+04
 -8.16736E+04 -1.05718E+04 -5.70001E+04 -5.25464E+04 -1.41463E+04 -6.91956E+04  2.78597E+04 -4.63737E+04
  4.03121E+04  2.37465E+03  1.62977E+04  4.88291E+04 -3.36301E+04  4.92707E+04 -6.82843E+04  1.03134E+02
 -5.41094E+04 -5.71904E+04 -7.87040E+03 -7.87948E+04  3.52470E+04 -5.66015E+04  4.90021E+04 -1.64420E+04
  4.52595E+04  1.12713E+04  3.28362E+04  2.54391E+04  1.58574E+04  3.00716E+04 -5.79770E+03  2.78716E+04
 -2.29918E+04  1.23559E+04 -1.77079E+04 -5.35066E+03  6.50689E+03 -8.34869E+03  2.26159E+04  1.28052E+04
  7.49376E+03  3.57256E+04 -3.29126E+04  3.71115E+04 -6.38518E+04  3.52537E+03 -5.90226E+04 -4.33044E+04
 -1.28238E+04 -6.65190E+04  4.15491E+04 -4.63714E+04  6.04475E+04 -2.45814E+03  3.54642E+04  3.38524E+04
 -5.14776E+03  3.86550E+04 -3.06450E+04  1.71771E+04 -3.36200E+04 -3.85393E+03 -1.87633E+04 -1.15343E+04
 -9.03037E+03 -1.67421E+04 -8.00250E+02 -1.89109E+04  8.60830E+03 -2.50103E+04  1.57467E+04 -1.31075E+04
  1.12632E+04  6.42163E+03 -1.04056E+04  1.29189E+04 -2.44080E+04 -6.29653E+03 -7.65551E+03 -3.79223E+04
  2.29848E+04 -4.67366E+04  5.04016E+04 -2.01523E+04  4.74770E+04  2.04848E+04  1.80728E+04  4.81584E+04
 -1.50679E+04  3.51866E+04 -2.78961E+04  3.56238E+03 -9.97531E+03 -2.98981E+04  2.16684E+04 -3.59150E+04
  4.33225E+04 -1.05243E+04  3.90650E+04  2.51111E+04  2.00822E+04  5.08656E+04 -8.13795E+03  5.56117E+04
 -3.53094E+04  3.79012E+04 -4.54066E+04  9.24907E+03 -4.60985E+04 -1.81140E+04 -2.49156E+04 -3.93635E+04
  6.96059E+03 -4.03022E+04  3.47667E+04 -1.72728E+04  3.08799E+04  1.14780E+04  4.54148E+03  1.89035E+04
 -1.45938E+04  9.70488E+03 -1.12154E+04 -6.98430E+03  5.25390E+03 -1.18184E+04  1.90132E+04  7.30444E+03
  1.38590E+04  2.21066E+04 -4.97669E+03  2.56802E+04 -2.20788E+04  1.48474E+04 -3.08329E+04 -3.52613E+03
 -2.58802E+04 -1.71137E+04 -1.12271E+04 -2.26997E+04  6.17612E+03 -2.55533E+04  1.96988E+04 -2.23325E+04
  3.19037E+04 -1.45505E+04  3.78939E+04  4.81874E+03  2.53211E+04  2.36361E+04  3.69869E+03  3.96649E+04
 -1.90120E+04  3.28916E+04 -2.98024E+04  1.08440E+04 -2.36615E+04 -9.49046E+03 -5.17376E+03 -1.28586E+04
  3.84813E+02 -7.40091E+00 -6.14139E+03  8.42815E+03 -1.94598E+04  5.87053E+03 -1.89623E+04 -8.33101E+03
 -1.27160E+04 -2.26136E+04  5.61686E+03 -2.69357E+04  1.83393E+04 -1.87292E+04  2.09822E+04 -1.16982E+03
  1.34015E+04  1.63740E+04 -6.34467E+02  2.18979E+04 -1.58669E+04  1.29338E+04 -2.29144E+04 -5.35995E+03
 -1.57543E+04 -2.02223E+04 -2.30927E+03 -2.69967E+04  1.15790E+04 -2.23407E+04  2.27295E+04 -1.09581E+04
  2.12530E+04 -6.42801E+02  1.59083E+04  3.22436E+03  9.37754E+03  1.74110E+03  1.25897E+04 -1.43370E+03
  2.15598E+04  3.20094E+03  2.44948E+04  1.73272E+04  1.73695E+04  3.54763E+04 -1.78717E+03  4.19235E+04
 -2.52383E+04  3.54464E+04 -4.11190E+04  1.77998E+04 -4.16070E+04 -3.62991E+03 -3.57728E+04 -2.48879E+04
 -1.53610E+04 -3.43652E+04  1.33236E+04 -3.00392E+04  2.68748E+04 -1.49217E+04  2.39898E+04  8.42746E+03
  8.28010E+03  1.86143E+04 -1.09286E+04  1.67151E+04 -1.98658E+04  2.07416E+03 -1.42688E+04 -1.11381E+04
  1.67809E+03 -1.75894E+04  9.67846E+03 -1.34480E+04  1.25810E+04 -1.90538E+03  3.54117E+03  6.53223E+03
 -7.94257E+03  4.78131E+03 -8.87879E+03 -7.31363E+03 -1.25187E+03 -1.73832E+04  1.16602E+04 -1.86437E+04
  2.26757E+04 -1.06978E+04  2.57638E+04  3.40549E+03  2.13713E+04  1.75728E+04  9.70522E+03  2.61618E+04
 -3.60581E+03  2.86719E+04 -1.83191E+04  1.94434E+04 -2.09392E+04  4.97602E+03 -1.40217E+04 -4.38088E+03
 -7.50543E+03 -7.28605E+03 -7.60150E+02  4.52135E+02 -4.02035E+03  2.57973E+03 -6.73208E+03  5.12599E+03
 -1.38468E+04  5.61896E+02 -1.43121E+04 -1.23965E+04 -5.57438E+03 -1.87311E+04  5.33977E+03 -1.64562E+04
  1.21567E+04 -5.98439E+03  8.81274E+03  4.39562E+03  1.98750E+03  6.66565E+03 -6.65539E+03 -2.80609E+02
 -6.41316E+03 -1.14332E+04 -2.62304E+02 -1.53828E+04  8.18197E+03 -1.70825E+04  1.85889E+04 -8.91255E+03
  2.34429E+04  2.94352E+03  1.62264E+04  1.37124E+04  4.99429E+03  1.77432E+04 -1.07577E+04  1.49320E+04
 -1.25122E+04  3.90643E+03 -5.33387E+03 -2.79483E+03  1.78745E+03 -3.55021E+03  8.04123E+03 -1.38787E+03
  8.03187E+03  7.14608E+03  1.13361E+03  1.20970E+04 -9.92223E+03  1.10756E+04 -1.27231E+04  3.78617E+03
 -1.07588E+04 -7.94217E+03  2.41320E+02 -1.09576E+04  6.72806E+03 -7.72765E+03  9.47583E+03  4.55398E+03
  1.87240E+03  1.00738E+04 -7.07047E+03  1.13937E+04 -1.30462E+04  4.42680E+03 -1.30350E+04 -5.03882E+03
 -8.66784E+03 -1.56765E+04  3.71966E+03 -1.67526E+04  1.41193E+04 -9.72046E+03  1.51630E+04  1.62194E+03
  1.14447E+04  1.25406E+04 -3.53044E+03  1.49453E+04 -1.20100E+04  7.29657E+03 -1.18424E+04  8.44904E+02
 -8.96068E+03 -1.03601E+04 -8.67441E+02 -1.03920E+04  6.14719E+03 -1.00415E+04  8.14337E+03 -3.03088E+03
  6.11433E+03  1.33556E+03 -1.55491E+03  1.35642E+03 -1.70571E+03 -3.62491E+03  2.13784E+03 -7.42032E+03
  1.21903E+04 -4.16769E+03  1.56033E+04  2.63754E+03  1.48279E+04  9.09588E+03  8.87844E+03  1.96047E+04
 -2.62374E+03  2.34278E+04 -1.87144E+04  1.71858E+04 -2.59316E+04  3.95845E+03 -2.02625E+04 -8.20955E+03
 -9.86672E+03 -1.66109E+04 -2.31962E+03 -1.38479E+04  5.45914E+03 -7.36450E+03  4.48309E+03 -5.66005E+03
  2.90429E+03 -3.16933E+03  3.69617E+03 -3.87840E+03  6.16546E+03 -2.69596E+03  7.86998E+03 -8.00559E+02
  9.27349E+03  2.90536E+03  6.99197E+03  8.70316E+03 -2.62535E+03  1.06415E+04 -1.04302E+04  8.86285E+03
 -1.49604E+04 -1.31052E+03 -7.95372E+03 -8.25094E+03 -4.29851E+02 -1.61309E+04  8.09686E+03 -1.38661E+04
  1.56440E+04 -7.93898E+03  1.92773E+04  4.61719E+03  1.16592E+04  1.22902E+04  3.42135E+03  1.71945E+04
 -7.08841E+03  1.43937E+04 -1.11204E+04  4.38033E+03 -6.47068E+03 -1.48261E+03 -3.31231E+03 -2.75158E+03
 -2.62460E+03 -9.82723E+02 -3.14351E+03  2.25747E+03 -5.72782E+03  3.27328E+03 -8.83572E+03 -1.26401E+03
 -7.63983E+03 -1.01188E+04 -1.86836E+03 -1.53705E+04  7.19127E+03 -1.40473E+04  1.42413E+04 -4.41156E+03
  1.41203E+04  6.77557E+03  4.90248E+03  1.12172E+04 -2.25045E+03  1.41850E+04 -9.34609E+03  8.31882E+03
 -1.30001E+04  6.41609E+01 -9.65873E+03 -8.07913E+03 -1.94311E+03 -1.05974E+04  5.72770E+03 -8.16497E+03
  8.47809E+03 -2.19690E+03  5.41880E+03  1.69786E+03  1.60214E+03  4.69592E+03  1.79779E+03  1.55116E+03
  3.89888E+03  1.32177E+03  3.49221E+03  1.74079E+03  5.28736E+03  5.69533E+03  4.75426E+03  8.17825E+03
 -2.14537E+03  1.06408E+04 -1.05740E+04  1.17322E+04 -1.51496E+04  2.47369E+03 -1.34515E+04 -6.21769E+03
 -8.10866E+03 -1.45315E+04  1.91150E+03 -1.64126E+04  9.79786E+03 -1.08854E+04  1.20080E+04 -2.31298E+03
  7.93338E+03  5.16243E+03  2.73497E+03  7.77572E+03 -5.98558E+03  3.68373E+03 -6.44313E+03 -1.59841E+03
 -3.40526E+03 -6.88677E+03  2.74364E+03 -6.19800E+03  5.35928E+03 -2.05332E+03  6.75747E+03  2.33541E+03
  3.68903E+03  2.43125E+03  1.74811E+03  3.18099E+03 -1.15697E+03  2.47428E+03  2.10377E+03 -8.79564E+00
  2.12578E+03 -1.55974E+03  6.54158E+03  5.71312E+02  3.15031E+03  6.36255E+03 -4.82196E+02  9.96371E+03
 -5.46146E+03  7.35599E+03 -9.31665E+03  2.69258E+03 -8.28201E+03 -4.22393E+03 -3.30312E+03 -5.29408E+03
  3.28682E+03 -5.74747E+03  3.49597E+03 -6.77495E+02  3.67612E+03  2.45496E+03 -3.84781E+02  4.87829E+03
 -4.58286E+03  3.17431E+03 -6.18918E+03 -2.08053E+03 -3.91497E+03 -7.53584E+03  2.31649E+03 -8.84472E+03
  4.83249E+03 -3.77563E+03  6.02478E+03 -1.60326E+03  5.13375E+03  2.23478E+03  2.39439E+03  3.87628E+03
 -2.71396E+03  4.27422E+02 -3.26371E+03 -2.64533E+03  1.32444E+03 -4.11301E+03  6.57657E+03 -4.28417E+03
  9.89575E+03 -1.74604E+02  8.09494E+03  6.94705E+03  2.78713E+03  8.66691E+03 -3.86724E+03  8.46758E+03
 -7.54996E+03  4.08193E+03 -8.08063E+03 -2.09346E+02 -4.91685E+03 -6.46319E+03  1.99792E+03 -6.32819E+03
  6.14661E+03 -3.01701E+03  5.20604E+03  2.81278E+03  2.23445E+03  3.83510E+03  8.23782E+02  4.07835E+03
 -3.16387E+03  2.91061E+03 -1.23086E+02 -6.91996E+02  3.56974E+02  3.55163E+02 -1.00041E+02  2.97220E+03
 -2.61290E+03  2.80918E+03 -5.74625E+03  3.20995E+03 -9.51355E+03  4.91472E+00 -1.01146E+04 -5.28120E+03
 -4.49008E+03 -1.31572E+04  1.97223E+03 -1.50668E+04  7.87747E+03 -1.16308E+04  1.38940E+04 -4.99234E+03
  1.23829E+04  3.37218E+03  6.45166E+03  9.38330E+03  6.94184E+02  1.10050E+04 -4.11048E+03  6.91481E+03
 -3.73045E+03  3.09123E+03 -3.85516E+03 -1.63474E+03 -1.53859E+03 -1.25863E+03  1.25795E+03  1.26767E+02
 -3.87641E+02  3.21215E+02 -1.95291E+03 -1.38028E+03 -1.12906E+03 -2.83338E+03 -2.87592E+02 -1.31545E+03
  4.32617E+03 -3.08643E+03  6.13722E+03  1.78722E+02  6.80525E+03  4.86383E+03  1.15936E+03  9.18581E+03
 -4.55378E+03  1.18869E+04 -1.17461E+04  8.30951E+03 -1.21916E+04 -9.84118E+01 -8.37728E+03 -8.26941E+03
 -3.21063E+03 -1.09509E+04  2.66004E+03 -1.03327E+04  6.09070E+03 -7.23474E+03  6.71621E+03 -8.57758E+02
  3.27871E+03  3.76493E+03 -5.96665E+02  2.87835E+03 -1.17535E+03  5.97487E+01  8.32874E+02 -3.71801E+03
  2.26649E+03 -2.37549E+03  3.99143E+03  2.97914E+02  3.82362E+03  3.49940E+03 -9.26628E+02  4.84480E+03
 -4.38035E+03  4.29765E+03 -6.53098E+03  7.42313E+02 -4.70023E+03 -4.77612E+03 -3.26117E+02 -9.04419E+03
  3.65715E+03 -6.62823E+03  6.69949E+03 -2.25096E+02  9.35851E+03  2.06059E+03  3.44964E+03  5.74712E+03
  1.36129E+03  5.31926E+03 -3.32681E+03  5.41736E+03 -5.18101E+03  3.04827E+03 -3.43812E+03  1.44134E+03
 -2.50613E+03 -5.33956E+02 -2.41693E+03  1.67481E+03 -3.38323E+03  2.41344E+02 -4.99000E+03 -9.03320E+02
 -4.78072E+03 -1.18859E+03 -1.93466E+03 -6.89997E+03  2.52066E+03 -7.47856E+03  4.95919E+03 -4.31233E+03
  5.94480E+03 -1.28884E+02  3.39430E+03  6.76225E+03 -1.46792E+03  7.21190E+03 -5.52009E+03  4.70697E+03
