 $NMID ID='MM_0lb_SNR200_11hz_g55_21.RAW', FMTDAT='(8E13.5)'
 TRAMP=1., VOLUME=1. $END
  3.09827E+05  1.38048E+02  3.37507E+05  2.50725E+05  8.52888E+04  3.36142E+05 -1.32549E+05  2.50614E+05
 -1.92100E+05  8.25260E+04 -1.12605E+05 -3.11756E+04  2.24820E+03 -5.14551E+04  5.42012E+04  1.22694E+03
  3.48791E+04  5.38510E+04 -1.62565E+04  7.50760E+04 -6.16753E+04  6.42611E+04 -8.45759E+04  3.15768E+04
 -8.32045E+04 -1.08979E+04 -5.71941E+04 -5.23984E+04 -1.47956E+04 -7.14294E+04  2.76138E+04 -4.57390E+04
  3.97706E+04  2.99878E+03  1.66959E+04  4.77755E+04 -3.33845E+04  4.80243E+04 -6.89723E+04  3.51436E+02
 -5.45654E+04 -5.77541E+04 -7.30825E+03 -7.87305E+04  3.44773E+04 -5.61728E+04  4.91617E+04 -1.87074E+04
  4.50236E+04  1.09277E+04  3.12540E+04  2.82278E+04  1.57680E+04  2.86520E+04 -5.61194E+03  2.74911E+04
 -2.29480E+04  1.12591E+04 -1.78129E+04 -5.73099E+03  6.39102E+03 -7.28719E+03  2.34806E+04  1.34555E+04
  8.03243E+03  3.68218E+04 -3.32298E+04  3.71399E+04 -6.46642E+04  3.52520E+03 -5.71368E+04 -4.29549E+04
 -1.12389E+04 -6.60370E+04  4.06972E+04 -4.70401E+04  5.99066E+04 -3.26277E+03  3.49348E+04  3.41062E+04
 -6.13432E+03  3.91254E+04 -3.08281E+04  1.75889E+04 -3.17304E+04 -4.65425E+03 -1.97545E+04 -1.20783E+04
 -7.65926E+03 -1.42691E+04  2.37649E+02 -1.90396E+04  1.02675E+04 -2.44288E+04  1.60065E+04 -1.19936E+04
  9.21799E+03  6.24270E+03 -1.05769E+04  1.16731E+04 -2.17412E+04 -5.43207E+03 -7.67871E+03 -3.66974E+04
  2.54518E+04 -4.61633E+04  5.23792E+04 -2.14254E+04  4.70940E+04  2.02352E+04  1.61319E+04  4.49822E+04
 -1.68737E+04  3.45342E+04 -2.77897E+04  3.05691E+03 -1.15307E+04 -2.92570E+04  2.20590E+04 -3.69005E+04
  4.28255E+04 -1.02253E+04  3.98996E+04  2.47623E+04  2.00662E+04  4.95548E+04 -8.17389E+03  5.39628E+04
 -3.58022E+04  3.74448E+04 -4.62964E+04  9.31253E+03 -4.48037E+04 -1.78392E+04 -2.51955E+04 -4.14578E+04
  7.29997E+03 -4.07438E+04  3.26819E+04 -1.46700E+04  3.10190E+04  1.07451E+04  4.71979E+03  2.07457E+04
 -1.30315E+04  8.89291E+03 -1.02808E+04 -7.47444E+03  5.20015E+03 -1.13535E+04  2.00672E+04  5.64625E+03
  1.58664E+04  2.20118E+04 -5.62650E+03  2.56402E+04 -2.37336E+04  1.42630E+04 -3.06861E+04 -3.90071E+03
 -2.53040E+04 -1.74632E+04 -1.15525E+04 -2.34394E+04  3.72095E+03 -2.43563E+04  1.95748E+04 -2.14196E+04
  2.99540E+04 -1.36651E+04  3.80105E+04  6.10734E+03  2.54331E+04  2.33122E+04  4.26375E+03  3.85344E+04
 -1.82519E+04  3.15355E+04 -2.96810E+04  1.08344E+04 -2.25512E+04 -9.36595E+03 -5.55371E+03 -1.21674E+04
  5.13215E+02 -2.41482E+03 -7.18318E+03  8.02783E+03 -2.03148E+04  5.27359E+03 -1.91946E+04 -9.80147E+03
 -1.00950E+04 -2.22063E+04  6.04080E+03 -2.64023E+04  1.82083E+04 -1.85630E+04  2.22973E+04 -1.52286E+03
  1.41985E+04  1.46048E+04 -2.75427E+03  2.33866E+04 -1.56348E+04  1.33006E+04 -2.48979E+04 -6.17704E+03
 -1.58161E+04 -1.90600E+04 -2.03309E+03 -2.68398E+04  1.09751E+04 -2.19812E+04  2.14319E+04 -1.25762E+04
  2.10452E+04 -8.29425E+02  1.50883E+04  4.42729E+03  8.26214E+03  3.14625E+03  1.07095E+04 -2.86162E+03
  2.14349E+04  2.96491E+03  2.34056E+04  1.70896E+04  1.76411E+04  3.54077E+04 -3.26031E+03  4.10207E+04
 -2.40737E+04  3.45067E+04 -3.95698E+04  1.79471E+04 -4.16926E+04 -3.11026E+03 -3.35055E+04 -2.52022E+04
 -1.31665E+04 -3.55842E+04  1.23500E+04 -3.16023E+04  2.59223E+04 -1.37076E+04  2.13506E+04  7.46012E+03
  8.52110E+03  1.71653E+04 -1.10919E+04  1.43639E+04 -1.94964E+04  2.75309E+03 -1.53825E+04 -1.19622E+04
  6.42341E+02 -1.90691E+04  9.46263E+03 -1.30072E+04  1.19757E+04 -1.69079E+03  3.35532E+03  7.82416E+03
 -8.93422E+03  4.35524E+03 -8.88317E+03 -5.76315E+03 -7.10066E+02 -1.77970E+04  1.02061E+04 -1.67980E+04
  2.08479E+04 -1.01494E+04  2.45343E+04  1.11636E+03  2.15135E+04  1.70731E+04  9.78253E+03  2.67369E+04
 -5.41989E+03  2.78557E+04 -1.86972E+04  1.77308E+04 -1.95997E+04  2.90809E+03 -1.52523E+04 -4.32288E+03
 -5.24550E+03 -6.82497E+03 -5.00974E+02 -6.31742E+01 -2.26911E+03  1.95763E+03 -5.72368E+03  4.71623E+03
 -1.33796E+04 -5.06832E+02 -1.31125E+04 -9.64661E+03 -4.84419E+03 -1.87473E+04  5.93222E+03 -1.26457E+04
  1.24925E+04 -4.97784E+03  7.89409E+03  2.81500E+03  8.35538E+02  4.97213E+03 -6.16308E+03 -4.03192E+02
 -6.76009E+03 -8.95060E+03 -1.47478E+03 -1.37614E+04  6.55506E+03 -1.31856E+04  1.80722E+04 -7.12052E+03
  2.04072E+04  2.53380E+03  1.50782E+04  1.22449E+04  3.30433E+03  1.59960E+04 -8.05143E+03  1.46451E+04
 -1.08594E+04  3.93994E+03 -6.15774E+03 -3.47657E+03  2.43656E+03 -2.86683E+03  8.29003E+03 -1.29528E+02
  6.02448E+03  5.30741E+03  1.63275E+03  1.16811E+04 -7.42109E+03  1.07409E+04 -1.31621E+04  3.26287E+03
 -9.29616E+03 -7.16657E+03  2.65144E+02 -1.06626E+04  8.07236E+03 -5.56282E+03  8.07422E+03  2.96522E+03
  1.43805E+03  8.38722E+03 -6.98147E+03  9.82480E+03 -1.26783E+04  3.78919E+03 -1.16338E+04 -5.53005E+03
 -5.82980E+03 -1.47558E+04  3.37698E+03 -1.59260E+04  1.47704E+04 -1.06836E+04  1.43307E+04  2.69979E+03
  7.46960E+03  1.14534E+04 -8.66431E+02  1.44574E+04 -1.06778E+04  7.85343E+03 -9.95965E+03 -1.95971E+03
 -9.24587E+03 -1.03911E+04 -2.28224E+03 -1.21880E+04  5.07114E+03 -8.55963E+03  5.27380E+03 -3.37933E+03
  4.83876E+03  2.86928E+03 -1.18960E+03  1.14204E+03 -8.82797E+02 -3.37529E+03  2.57351E+03 -6.99476E+03
  8.70427E+03 -3.09323E+03  1.38719E+04  1.45099E+03  1.43283E+04  9.14333E+03  8.71289E+03  1.83309E+04
 -3.87929E+03  2.09392E+04 -1.77785E+04  1.64943E+04 -2.27699E+04  4.51600E+03 -1.83810E+04 -7.20720E+03
 -9.36214E+03 -1.53067E+04 -1.29887E+03 -1.15071E+04  5.08215E+03 -4.82130E+03  3.63149E+03 -3.57255E+03
  2.69163E+03 -1.20732E+03  4.06878E+03 -3.60940E+03  4.33450E+03 -3.63132E+03  6.49974E+03 -4.29782E+02
  8.74631E+03  3.04589E+03  6.02168E+03  6.09837E+03 -2.47777E+03  9.61626E+03 -8.23185E+03  8.55628E+03
 -1.20908E+04  1.72727E+02 -9.08418E+03 -8.31849E+03  7.56661E+02 -1.16062E+04  7.49324E+03 -1.40448E+04
  1.45097E+04 -5.18924E+03  1.55938E+04  3.19062E+03  1.24274E+04  1.27012E+04  2.44439E+03  1.45921E+04
 -8.28887E+03  1.24768E+04 -8.14285E+03  4.44480E+03 -5.75678E+03 -5.21710E+02 -2.58935E+03 -3.41864E+03
 -2.84735E+03  1.33557E+03 -1.75669E+03  1.45879E+03 -3.67250E+03  3.60198E+03 -8.53389E+03 -2.85997E+02
 -6.08746E+03 -8.58121E+03  9.08375E+02 -1.25410E+04  9.06019E+03 -1.14814E+04  1.20224E+04 -3.27831E+03
  1.18444E+04  6.43891E+03  6.75867E+03  9.85162E+03 -3.38027E+03  1.31124E+04 -8.76977E+03  7.47302E+03
 -1.12461E+04  2.45409E+03 -8.10408E+03 -6.68228E+03 -2.32157E+02 -1.10722E+04  5.71129E+03 -7.66157E+03
  8.35424E+03 -2.29589E+03  4.57449E+03  1.33954E+03  2.37322E+03  4.21915E+03 -2.30944E+02  1.87998E+03
  2.29614E+03  9.71657E+02  2.10156E+03  1.06617E+03  4.13001E+03  4.48443E+03  3.99053E+03  6.69099E+03
 -1.60537E+03  9.33647E+03 -6.82451E+03  1.02548E+04 -1.32600E+04  2.39451E+03 -1.24899E+04 -4.10344E+03
 -4.42365E+03 -1.28553E+04  7.30665E+02 -1.44680E+04  8.94567E+03 -8.14149E+03  1.06767E+04 -1.61252E+03
  8.31553E+03  3.43361E+03  2.33767E+03  8.01480E+03 -3.47457E+03  4.65852E+03 -4.71310E+03 -6.01045E+02
 -2.26748E+03 -5.25675E+03  2.32782E+03 -4.31158E+03  4.34258E+03 -3.74193E+03  4.40653E+03  1.25653E+03
  2.22572E+03  2.02599E+03  5.65717E+02  1.86087E+03  2.80961E+02  1.33333E+03  5.74779E+02 -6.38890E+02
  4.80843E+02 -8.61153E+02  6.00337E+03  1.26494E+03  1.45902E+03  7.49445E+03 -2.49067E+02  9.45767E+03
 -5.67985E+03  4.58305E+03 -7.62044E+03  3.94864E+02 -6.85447E+03 -1.52798E+03 -2.82187E+03 -3.32519E+03
  7.50516E+02 -4.66399E+03  2.22492E+03 -1.62886E+03  3.09105E+03  2.66427E+03  1.37098E+02  2.95752E+03
 -4.92919E+03  2.22300E+03 -5.25174E+03 -2.99106E+03 -3.60309E+03 -5.34077E+03  1.67508E+03 -6.90258E+03
  3.28942E+03 -4.16761E+03  5.83552E+03 -6.10275E+02  5.13283E+03  2.77196E+03  6.01615E+02  3.67916E+03
 -3.00348E+03  8.49226E+02 -2.81486E+03 -3.47020E+03  1.28673E+03 -4.61642E+03  5.10268E+03 -5.45452E+03
  7.74137E+03 -2.49104E+02  6.32975E+03  4.84294E+03  2.78521E+03  7.37069E+03 -2.29038E+03  7.49400E+03
 -5.68968E+03  3.27830E+03 -6.53515E+03 -1.21119E+03 -3.31986E+03 -5.33093E+03  2.87703E+03 -3.64999E+03
  4.04905E+03 -2.57806E+03  3.21165E+03  2.59555E+03 -8.25703E+02  3.99232E+03  5.69197E+02  3.84862E+03
 -1.88777E+03  3.83562E+03 -1.78465E+03  2.09936E+03 -1.84093E+03  1.52962E+03 -1.64965E+03  2.94424E+03
 -2.71577E+03  2.74335E+03 -5.77926E+03  1.64974E+03 -7.61979E+03  4.38610E+02 -7.77538E+03 -6.19866E+03
 -4.26423E+03 -1.08691E+04  3.01539E+03 -1.13408E+04  7.61389E+03 -8.77203E+03  1.13505E+04 -2.57062E+03
  9.42451E+03  6.48227E+02  6.43910E+03  7.41972E+03  8.19685E+02  6.44071E+03 -3.23595E+03  5.49622E+03
 -4.46519E+03  1.82620E+03 -5.23315E+02 -1.76238E+03 -8.92086E+02  1.19792E+01  1.24746E+03 -2.82950E+02
 -2.84605E+03  8.79607E+02 -1.59254E+03 -5.54044E+02  5.27339E+02 -1.71073E+03  6.64228E+02 -4.00444E+03
  2.96490E+03 -2.76755E+03  4.99544E+03  4.37628E+02  5.66730E+03  2.77233E+03  2.52561E+03  8.08712E+03
 -3.75613E+03  8.53530E+03 -7.93783E+03  4.42542E+03 -9.89582E+03 -4.78767E+02 -6.02353E+03 -4.77002E+03
 -2.62354E+03 -7.78208E+03  2.61217E+03 -7.01427E+03  5.12049E+03 -3.43606E+03  4.55147E+03 -5.17561E+02
  5.49988E+01  3.72881E+03  5.64800E+02  1.50775E+03 -2.36561E+03  5.41039E+02  1.22959E+03 -5.58573E+02
  1.80976E+03 -1.95127E+02  4.22425E+03  8.68209E+02  2.14357E+03  4.15610E+03  4.33233E+02  4.75975E+03
 -1.74231E+03  3.42667E+03 -5.48443E+03  4.56888E+02 -3.65356E+03 -3.85550E+03  3.87131E+02 -5.79669E+03
  3.00142E+03 -5.81492E+03  6.84584E+03 -1.69684E+03  5.72434E+03  7.20549E+02  2.54790E+03  4.63199E+03
  4.51768E+02  4.73432E+03 -2.83452E+03  3.12261E+03 -3.71236E+03  1.73857E+03 -2.44603E+03 -1.47261E+02
 -5.62709E+01 -2.06777E+02 -7.07084E+02  4.83608E+02 -3.12252E+03  1.73716E+03 -3.84063E+03 -1.65721E+03
 -4.06121E+03 -1.97466E+03 -1.21280E+03 -4.49261E+03  2.99523E+03 -7.51922E+03  5.59822E+03 -2.93927E+03
  4.23570E+03 -1.71661E+02  2.17516E+03  3.27361E+03 -1.62045E+02  4.05167E+03 -4.67973E+03  3.36706E+03
