 $NMID ID='MM_0lb_SNR200_11hz_g55_82.RAW', FMTDAT='(8E13.5)'
 TRAMP=1., VOLUME=1. $END
  3.09339E+05  4.35706E+02  3.37579E+05  2.51214E+05  8.64080E+04  3.38285E+05 -1.32883E+05  2.52111E+05
 -1.91789E+05  8.46863E+04 -1.13399E+05 -3.23442E+04  1.71956E+03 -5.08338E+04  5.36034E+04 -8.28427E+02
  3.49419E+04  5.28008E+04 -1.65819E+04  7.65084E+04 -6.18319E+04  6.40665E+04 -8.46773E+04  3.16677E+04
 -8.15185E+04 -1.22073E+04 -5.82916E+04 -5.03388E+04 -1.40307E+04 -6.99257E+04  2.87067E+04 -4.62770E+04
  4.05713E+04  4.39164E+03  1.58566E+04  4.90568E+04 -3.57558E+04  4.73170E+04 -6.72900E+04 -4.68727E+02
 -5.45218E+04 -5.63145E+04 -7.73523E+03 -7.84441E+04  3.54990E+04 -5.71370E+04  5.01656E+04 -1.83508E+04
  4.58661E+04  1.10559E+04  3.31366E+04  2.68558E+04  1.55636E+04  3.05811E+04 -4.61626E+03  2.86298E+04
 -2.25326E+04  1.12043E+04 -1.86043E+04 -5.59267E+03  6.89860E+03 -6.28982E+03  2.24969E+04  1.43104E+04
  7.03905E+03  3.63393E+04 -3.42003E+04  3.76200E+04 -6.42270E+04  2.01336E+03 -5.86190E+04 -4.42773E+04
 -1.32286E+04 -6.54619E+04  4.14610E+04 -4.61811E+04  6.06319E+04 -2.40105E+03  3.57047E+04  3.48190E+04
 -5.67178E+03  3.82859E+04 -3.13235E+04  1.69455E+04 -3.37045E+04 -4.51705E+03 -1.84306E+04 -1.13695E+04
 -8.60418E+03 -1.60794E+04 -5.30711E+02 -2.05184E+04  8.13790E+03 -2.33679E+04  1.39893E+04 -1.27249E+04
  9.51239E+03  6.26779E+03 -9.50500E+03  1.34964E+04 -2.27983E+04 -6.50762E+03 -7.90395E+03 -3.61596E+04
  2.25524E+04 -4.60528E+04  5.01416E+04 -2.20574E+04  4.85036E+04  2.10270E+04  1.70095E+04  4.70761E+04
 -1.70201E+04  3.44250E+04 -2.63389E+04  2.67207E+03 -1.06945E+04 -2.79228E+04  2.11408E+04 -3.62122E+04
  4.32485E+04 -1.14426E+04  3.98933E+04  2.40441E+04  2.12783E+04  4.86966E+04 -9.18646E+03  5.36796E+04
 -3.49283E+04  3.58892E+04 -4.63556E+04  1.11008E+04 -4.59030E+04 -1.90476E+04 -2.52511E+04 -4.08036E+04
  7.38107E+03 -3.99391E+04  3.29586E+04 -1.67280E+04  3.12496E+04  1.07468E+04  4.62681E+03  2.02686E+04
 -1.43227E+04  1.01103E+04 -9.96079E+03 -7.15716E+03  4.38098E+03 -1.17815E+04  1.74697E+04  2.86009E+03
  1.45736E+04  2.29808E+04 -5.72280E+03  2.67684E+04 -2.39872E+04  1.33147E+04 -2.98889E+04 -2.74776E+03
 -2.44843E+04 -1.64727E+04 -9.83778E+03 -2.42688E+04  3.93856E+03 -2.33914E+04  1.81511E+04 -2.10001E+04
  3.08764E+04 -1.34935E+04  3.59461E+04  5.25781E+03  2.64325E+04  2.32328E+04  3.54193E+03  3.95759E+04
 -1.96539E+04  3.24480E+04 -2.95896E+04  9.31509E+03 -2.09024E+04 -1.08794E+04 -5.15395E+03 -1.36519E+04
  1.56574E+03 -1.65217E+03 -7.09842E+03  7.11443E+03 -1.97716E+04  5.74195E+03 -1.83249E+04 -8.22491E+03
 -1.06320E+04 -2.22184E+04  5.15835E+03 -2.59230E+04  1.73413E+04 -1.78632E+04  2.29897E+04 -2.04756E+03
  1.37207E+04  1.53540E+04 -5.21365E+02  2.21959E+04 -1.45282E+04  1.40992E+04 -2.16993E+04 -4.34572E+03
 -1.68760E+04 -1.90152E+04 -1.99378E+03 -2.60369E+04  1.24215E+04 -2.16297E+04  2.38438E+04 -9.85170E+03
  2.10293E+04 -8.26522E+02  1.47386E+04  4.93861E+03  8.55679E+03  2.39230E+03  1.08722E+04 -1.50381E+03
  2.14291E+04  2.43380E+03  2.32386E+04  1.64450E+04  1.66376E+04  3.62577E+04 -1.49658E+03  4.09267E+04
 -2.29409E+04  3.50627E+04 -3.86303E+04  1.73878E+04 -4.12037E+04 -1.36455E+03 -3.40682E+04 -2.39252E+04
 -1.39176E+04 -3.54861E+04  1.25591E+04 -3.04960E+04  2.71725E+04 -1.34561E+04  2.17365E+04  7.65708E+03
  9.87944E+03  1.84161E+04 -1.06253E+04  1.43664E+04 -1.84094E+04  2.98487E+03 -1.32333E+04 -1.21838E+04
  6.45191E+02 -1.81871E+04  1.01569E+04 -1.18155E+04  1.12001E+04 -1.33138E+03  1.61821E+03  7.47379E+03
 -8.32436E+03  2.41414E+03 -7.71400E+03 -6.31254E+03 -5.96236E+02 -1.59121E+04  1.18987E+04 -1.75994E+04
  2.16538E+04 -9.70246E+03  2.29314E+04  2.61394E+03  1.99132E+04  1.61141E+04  1.01779E+04  2.69426E+04
 -4.55143E+03  2.84707E+04 -1.72075E+04  1.64799E+04 -2.00419E+04  4.77070E+03 -1.48544E+04 -5.71655E+03
 -6.18687E+03 -7.08817E+03 -2.27795E+02  1.05053E+03 -3.21029E+03  4.29633E+03 -7.62537E+03  5.92618E+03
 -1.30939E+04 -1.14220E+03 -1.29548E+04 -9.86143E+03 -5.28721E+03 -1.69628E+04  6.36097E+03 -1.39552E+04
  1.15325E+04 -6.10558E+03  8.05558E+03  4.37405E+03 -6.40485E+02  4.09618E+03 -6.26732E+03  9.43032E+02
 -6.20285E+03 -1.00251E+04 -1.63832E+03 -1.25872E+04  8.60742E+03 -1.54188E+04  1.77752E+04 -8.79097E+03
  2.12313E+04  1.53458E+03  1.41219E+04  1.34432E+04  3.97645E+03  1.77255E+04 -7.70238E+03  1.35822E+04
 -1.08255E+04  3.01076E+03 -5.83410E+03 -2.98068E+03  2.36009E+03 -4.20030E+03  7.32459E+03 -1.04330E+03
  6.91072E+03  6.44222E+03  1.78561E+03  1.16093E+04 -6.59575E+03  1.10328E+04 -1.44811E+04  3.28178E+03
 -1.13242E+04 -7.12034E+03  3.41243E+02 -1.25938E+04  8.53091E+03 -6.50152E+03  8.09334E+03  3.33983E+03
  2.17239E+03  8.45661E+03 -8.75284E+03  9.29848E+03 -1.11575E+04  4.70552E+03 -1.14056E+04 -4.14297E+03
 -6.23100E+03 -1.31106E+04  3.78880E+03 -1.54011E+04  1.43328E+04 -9.09712E+03  1.42075E+04  1.97333E+03
  9.25683E+03  1.06058E+04 -9.13309E+02  1.32395E+04 -9.13353E+03  7.43387E+03 -1.11584E+04 -1.62578E+03
 -9.63018E+03 -9.29465E+03 -3.17000E+02 -1.03852E+04  4.68386E+03 -8.19299E+03  5.53393E+03 -3.17042E+03
  4.44400E+03  2.29510E+03 -7.75853E+02  1.75167E+03 -1.77838E+02 -3.14322E+03  2.74156E+03 -6.97329E+03
  1.03822E+04 -1.98720E+03  1.28399E+04  4.00072E+02  1.35097E+04  8.68787E+03  8.18064E+03  1.83941E+04
 -4.88855E+03  2.17630E+04 -1.67253E+04  1.53958E+04 -2.35557E+04  2.94356E+03 -1.72860E+04 -7.77131E+03
 -1.00331E+04 -1.58426E+04  1.15047E+02 -1.08457E+04  4.43990E+03 -6.53491E+03  4.50065E+03 -4.72437E+03
  2.93039E+03 -2.31465E+03  4.23412E+03 -2.62708E+03  4.45668E+03 -4.17792E+03  6.35081E+03 -1.49043E+03
  9.94868E+03  9.64752E+02  6.63630E+03  8.52244E+03 -2.63746E+03  8.87401E+03 -1.00108E+04  7.44630E+03
 -1.19022E+04 -6.37295E+02 -8.26233E+03 -9.05583E+03 -1.46020E+03 -1.32599E+04  6.40151E+03 -1.26135E+04
  1.23652E+04 -6.26805E+03  1.72814E+04  1.70543E+03  1.12305E+04  1.27684E+04  3.22811E+03  1.60946E+04
 -5.57528E+03  1.30242E+04 -8.07552E+03  5.85459E+03 -5.31912E+03 -6.30524E+02 -4.59264E+03 -1.90867E+03
 -7.18143E+02  8.00992E+01 -1.04366E+03  2.78101E+03 -3.51741E+03  2.58325E+03 -8.77004E+03 -3.45660E+02
 -5.16148E+03 -7.02742E+03  1.20836E+02 -1.12628E+04  9.17714E+03 -1.14145E+04  1.12541E+04 -3.79684E+03
  1.17863E+04  6.71288E+03  6.79777E+03  1.19208E+04 -3.07457E+03  1.21411E+04 -7.07692E+03  8.67727E+03
 -1.15411E+04  1.75134E+02 -9.28757E+03 -6.64629E+03 -4.24017E+02 -9.98846E+03  5.27664E+03 -8.53090E+03
  8.25324E+03 -1.99393E+03  4.08740E+03  1.22799E+03  2.80199E+03  4.91021E+03  1.11740E+03  1.61713E+03
  3.14833E+03  2.16803E+03  3.32582E+03  1.79746E+03  3.28457E+03  2.73871E+03  3.02942E+03  7.14997E+03
 -2.61562E+03  1.01228E+04 -7.90119E+03  8.62584E+03 -1.17100E+04  2.68570E+03 -1.38598E+04 -5.59131E+03
 -5.27840E+03 -1.26699E+04  4.86856E+02 -1.38669E+04  7.23194E+03 -8.75920E+03  1.04765E+04 -2.10518E+03
  7.39988E+03  4.97251E+03  1.52241E+03  6.21962E+03 -4.23637E+03  4.88319E+03 -4.73379E+03 -1.93093E+03
 -3.36098E+03 -4.57399E+03  2.22766E+03 -4.59698E+03  5.03210E+03 -3.51712E+03  4.58235E+03  9.72458E+02
  2.13752E+03  7.76716E+02  1.62966E+03  3.59813E+03  5.26313E+02  1.69264E+03  1.91551E+03  5.27398E+02
  2.38845E+03 -4.64568E+02  5.33171E+03  2.55346E+03  3.62867E+03  6.79505E+03 -1.52676E+03  8.62235E+03
 -6.49232E+03  4.55907E+03 -6.71154E+03  1.36719E+03 -6.24976E+03 -3.20675E+03 -3.42204E+03 -2.77025E+03
 -5.38221E+02 -4.90002E+03  3.30548E+03 -1.19517E+03  1.14950E+03  2.30853E+03 -1.49171E+03  4.23459E+03
 -5.01086E+03  3.33164E+03 -5.22384E+03 -1.50598E+03 -3.52354E+03 -6.36420E+03 -3.47446E+01 -5.96128E+03
  3.61033E+03 -3.64249E+03  3.98995E+03 -7.19960E+02  4.73266E+03  1.20470E+03  1.18253E+03  3.95326E+03
 -2.18788E+03  1.87383E+03 -2.82662E+03 -1.75215E+03  2.41351E+03 -6.04114E+03  5.38117E+03 -4.34929E+03
  7.07032E+03  8.46184E+01  7.29957E+03  6.55823E+03  2.79178E+03  7.40112E+03 -3.05147E+03  6.27081E+03
 -6.19765E+03  4.97502E+03 -7.33225E+03 -2.34559E+03 -4.42743E+03 -4.72974E+03  4.14126E+02 -5.72081E+03
  6.16114E+03 -2.97774E+03  2.66584E+03  3.34322E+03  9.43605E+02  4.34165E+03 -1.48726E+03  3.72905E+03
 -1.22183E+03  2.26573E+03 -2.63903E+03  2.11863E+03 -1.31352E+02 -4.73628E+02 -1.39006E+03  1.83241E+03
 -1.77606E+03  2.40343E+03 -5.02972E+03  1.45754E+03 -9.10044E+03  1.25062E+03 -8.90497E+03 -5.06299E+03
 -5.96963E+03 -1.00066E+04  2.51358E+03 -1.20569E+04  6.44576E+03 -7.96249E+03  1.14216E+04 -4.87908E+03
  9.65527E+03  2.50543E+03  6.10570E+03  5.62668E+03 -1.29616E+02  8.70680E+03 -3.35427E+03  5.79548E+03
 -4.64276E+03  1.61071E+03 -2.68022E+03 -1.71416E+03  9.15922E+01 -1.45464E+03 -1.00700E+03 -5.81455E+02
 -1.09040E+03  1.70830E+03 -2.33550E+03  4.56584E+02 -1.54820E+03 -8.35850E+01  3.33626E+02 -2.62397E+03
  3.15917E+03 -2.91858E+03  2.53153E+03  2.14713E+02  3.78130E+03  5.11977E+03  1.73127E+02  7.59858E+03
 -4.20363E+03  7.90345E+03 -6.63351E+03  5.04246E+03 -9.42380E+03 -1.60857E+03 -5.66948E+03 -5.34125E+03
 -1.82112E+03 -7.87390E+03  1.97389E+03 -6.92233E+03  6.21051E+03 -3.66230E+03  5.10732E+03  1.64830E+03
  1.85048E+03  1.59162E+03 -2.02851E+02  1.88195E+03 -1.73670E+03  3.09826E+02  5.15676E+01 -2.04557E+03
  3.18359E+03 -7.96173E+02  3.10507E+03  1.32891E+03  3.93791E+03  2.37637E+03  1.65486E+02  2.58963E+03
 -3.75729E+03  2.84595E+03 -4.41598E+03 -5.84689E+02 -5.25642E+03 -3.06064E+03 -4.54727E+02 -6.72499E+03
  2.54023E+03 -6.65895E+03  5.65864E+03 -5.80863E+02  5.15862E+03  9.61854E+02  3.52342E+03  5.12293E+03
  1.13933E+03  4.33437E+03  7.30419E+01  4.19252E+03 -3.77818E+03  3.50742E+03 -2.25126E+03 -3.46438E+02
 -2.69422E+03 -1.79471E+02 -1.80571E+03  2.88293E+02 -4.49301E+03  9.74569E+02 -2.84457E+03 -2.24196E+03
 -4.11598E+03 -3.15480E+03 -5.49747E+02 -5.55822E+03  2.04786E+03 -4.15596E+03  5.70134E+03 -2.68527E+03
  4.42171E+03  1.02165E+03  1.65782E+03  2.46981E+03 -4.86370E+02  5.12207E+03 -2.88978E+03  2.57932E+03
