 $NMID ID='MM_0lb_SNR200_11hz_g50_34.RAW', FMTDAT='(8E13.5)'
 TRAMP=1., VOLUME=1. $END
  3.08412E+05  3.67673E+02  3.37944E+05  2.50034E+05  8.43982E+04  3.38649E+05 -1.31534E+05  2.53450E+05
 -1.90211E+05  8.39416E+04 -1.12232E+05 -3.39241E+04  1.40475E+03 -5.10407E+04  5.27599E+04  5.44918E+02
  3.58258E+04  5.35047E+04 -1.56743E+04  7.60659E+04 -6.07306E+04  6.40543E+04 -8.51698E+04  3.14102E+04
 -8.30821E+04 -1.25859E+04 -5.74086E+04 -5.40656E+04 -1.52931E+04 -6.94550E+04  2.84361E+04 -4.53808E+04
  4.12211E+04  4.33774E+03  1.76343E+04  4.81410E+04 -3.37611E+04  4.73154E+04 -6.80613E+04  5.34779E+02
 -5.44833E+04 -5.78903E+04 -6.66753E+03 -7.65179E+04  3.40246E+04 -5.72507E+04  5.00342E+04 -1.77600E+04
  4.53560E+04  1.21705E+04  3.24822E+04  2.48517E+04  1.72288E+04  2.89703E+04 -4.03368E+03  2.74634E+04
 -2.20111E+04  1.26258E+04 -1.85695E+04 -5.94564E+03  6.07331E+03 -7.94640E+03  2.26284E+04  1.39126E+04
  6.10127E+03  3.68804E+04 -3.34933E+04  3.56119E+04 -6.48697E+04  3.37141E+03 -5.68925E+04 -4.41562E+04
 -1.26318E+04 -6.46933E+04  4.10280E+04 -4.66429E+04  6.01231E+04 -2.60914E+03  3.50176E+04  3.35512E+04
 -6.16770E+03  4.07549E+04 -3.08826E+04  1.81829E+04 -3.20880E+04 -3.22731E+03 -1.88072E+04 -1.28964E+04
 -1.02906E+04 -1.49439E+04  6.30184E+02 -1.93333E+04  9.81303E+03 -2.40713E+04  1.54362E+04 -1.17313E+04
  1.27313E+04  5.75942E+03 -8.86093E+03  1.31096E+04 -2.39348E+04 -3.65631E+03 -9.01040E+03 -3.61856E+04
  2.39211E+04 -4.56519E+04  5.23215E+04 -2.09546E+04  4.79762E+04  2.00699E+04  1.64866E+04  4.56722E+04
 -1.61911E+04  3.58997E+04 -2.69453E+04  3.48930E+03 -1.13891E+04 -2.70520E+04  2.20220E+04 -3.51706E+04
  4.18706E+04 -1.05581E+04  3.95226E+04  2.48011E+04  1.97400E+04  4.90001E+04 -8.71760E+03  5.41848E+04
 -3.47438E+04  3.84358E+04 -4.44252E+04  9.37027E+03 -4.56473E+04 -1.87944E+04 -2.61621E+04 -4.01933E+04
  8.58487E+03 -4.10671E+04  3.18849E+04 -1.50797E+04  3.03575E+04  1.04185E+04  4.68571E+03  2.10472E+04
 -1.47212E+04  9.73858E+03 -1.19814E+04 -7.96423E+03  5.67040E+03 -9.98327E+03  1.81057E+04  6.89428E+03
  1.47062E+04  2.37505E+04 -6.96255E+03  2.65520E+04 -2.37217E+04  1.29799E+04 -3.07704E+04 -2.42067E+03
 -2.39252E+04 -1.73111E+04 -1.03639E+04 -2.32711E+04  4.62095E+03 -2.29488E+04  1.78304E+04 -2.17842E+04
  2.95861E+04 -1.39264E+04  3.67456E+04  4.15291E+03  2.54154E+04  2.45407E+04  4.62219E+03  3.90986E+04
 -1.92717E+04  3.26954E+04 -2.79808E+04  1.10579E+04 -2.16105E+04 -9.70927E+03 -3.88905E+03 -1.20206E+04
  4.72878E+02 -2.30263E+03 -4.70209E+03  7.88947E+03 -1.83076E+04  5.55926E+03 -1.83576E+04 -9.06219E+03
 -1.11390E+04 -2.09747E+04  6.36840E+03 -2.59859E+04  1.81914E+04 -1.75963E+04  2.04293E+04 -3.66997E+02
  1.41579E+04  1.52842E+04 -1.38503E+03  2.07166E+04 -1.52599E+04  1.35915E+04 -2.10436E+04 -4.63107E+03
 -1.58256E+04 -2.00644E+04 -2.89070E+03 -2.62723E+04  1.14372E+04 -2.20081E+04  2.13940E+04 -1.19098E+04
  2.09388E+04 -5.40364E+02  1.40740E+04  5.26884E+03  6.38457E+03  5.11535E+02  1.15507E+04 -2.17110E+03
  1.94149E+04  3.06213E+03  2.30831E+04  1.59955E+04  1.55480E+04  3.50244E+04 -3.30533E+03  4.05287E+04
 -2.31095E+04  3.35754E+04 -3.70734E+04  1.64008E+04 -3.98369E+04 -4.98103E+03 -3.39112E+04 -2.41348E+04
 -1.29010E+04 -3.36638E+04  1.14273E+04 -2.98631E+04  2.46045E+04 -1.40615E+04  2.14536E+04  6.64304E+03
  9.04260E+03  1.77177E+04 -9.04921E+03  1.23559E+04 -1.64192E+04  1.86267E+03 -1.50336E+04 -1.36016E+04
 -1.12065E+03 -1.75062E+04  1.05309E+04 -1.24030E+04  1.09911E+04 -1.32784E+03  2.83266E+03  7.63374E+03
 -7.45552E+03  3.80043E+03 -8.42248E+03 -6.79928E+03 -1.25419E+02 -1.57546E+04  9.85607E+03 -1.64813E+04
  1.96538E+04 -1.02458E+04  2.30014E+04  3.33092E+03  1.99601E+04  1.63379E+04  9.43828E+03  2.53326E+04
 -3.67781E+03  2.71546E+04 -1.81056E+04  1.58232E+04 -2.02669E+04  3.34848E+03 -1.35005E+04 -4.97528E+03
 -5.60394E+03 -6.37709E+03 -1.04469E+03 -5.54253E+01 -3.45451E+03  3.98001E+03 -6.16683E+03  5.19133E+03
 -1.29639E+04  1.31475E+03 -1.22741E+04 -9.85219E+03 -5.97904E+03 -1.70290E+04  6.26885E+03 -1.46489E+04
  1.17119E+04 -5.04878E+03  7.67462E+03  4.34266E+03 -4.70783E+02  3.89897E+03 -8.61273E+03 -4.77750E+02
 -6.40348E+03 -8.83303E+03 -9.39645E+02 -1.25174E+04  6.41521E+03 -1.35049E+04  1.81580E+04 -9.10531E+03
  2.04760E+04  3.35251E+03  1.42771E+04  1.20901E+04  2.04701E+03  1.59806E+04 -9.29524E+03  1.31090E+04
 -1.14761E+04  3.42297E+03 -5.48429E+03 -2.75280E+03  3.15772E+03 -3.32754E+03  6.98833E+03 -1.60556E+03
  5.58953E+03  4.92873E+03  2.14786E+03  1.06578E+04 -8.20631E+03  1.06402E+04 -1.34434E+04  4.10287E+03
 -9.10342E+03 -5.52404E+03  1.40870E+02 -1.07551E+04  7.67999E+03 -5.49607E+03  8.66571E+03  3.45167E+03
  2.30867E+03  9.20621E+03 -6.61199E+03  1.00001E+04 -1.04801E+04  3.21497E+03 -1.10087E+04 -5.68529E+03
 -6.78706E+03 -1.24450E+04  3.67714E+03 -1.46892E+04  1.28281E+04 -7.88602E+03  1.25583E+04  1.75379E+03
  7.41028E+03  1.12155E+04 -3.88998E+02  1.19156E+04 -1.00961E+04  8.43128E+03 -1.14226E+04 -4.36044E+02
 -9.04260E+03 -9.44221E+03 -1.19145E+03 -1.09226E+04  5.24583E+03 -7.13140E+03  6.25890E+03 -4.28982E+03
  4.24959E+03  1.73834E+03 -4.74286E+02  5.09112E+02 -1.13758E+03 -2.68785E+03  1.93807E+03 -7.37158E+03
  8.21249E+03 -3.73066E+03  1.32454E+04  1.67081E+03  1.18786E+04  8.69294E+03  9.11149E+03  1.71601E+04
 -3.46847E+03  1.94480E+04 -1.74560E+04  1.46293E+04 -2.17402E+04  2.99791E+03 -1.66007E+04 -7.69749E+03
 -9.00843E+03 -1.48232E+04 -9.69919E+02 -1.18588E+04  3.82415E+03 -6.14545E+03  3.58599E+03 -4.34950E+03
  4.70543E+03 -1.73946E+03  2.96878E+03 -2.89574E+03  4.97671E+03 -3.83677E+03  8.51901E+03 -1.43335E+03
  9.54107E+03  1.75204E+03  2.81345E+03  7.39728E+03 -2.26358E+03  8.01779E+03 -7.49549E+03  8.58306E+03
 -1.21797E+04 -3.99868E+02 -6.78418E+03 -7.86755E+03 -3.90301E+02 -1.22819E+04  7.50533E+03 -1.21356E+04
  1.29104E+04 -6.86644E+03  1.58637E+04  5.69152E+02  1.21880E+04  1.04284E+04  2.07667E+03  1.39531E+04
 -5.15106E+03  1.20938E+04 -7.77869E+03  4.74579E+03 -4.82117E+03 -1.15720E+03 -2.95509E+03 -2.40950E+03
 -8.33712E+02  1.94468E+02 -2.62114E+03  2.97841E+03 -5.77842E+03  1.86544E+03 -7.25550E+03 -8.61622E+02
 -5.98776E+03 -9.16856E+03  7.38590E+02 -1.16491E+04  5.98575E+03 -1.10014E+04  1.12263E+04 -3.81209E+03
  1.11354E+04  5.01048E+03  5.28004E+03  1.02585E+04 -2.67585E+03  1.28167E+04 -8.12240E+03  7.81816E+03
 -1.07368E+04  5.17212E+02 -8.68337E+03 -7.14212E+03 -2.04721E+01 -1.12952E+04  4.15685E+03 -8.05550E+03
  7.24484E+03 -3.02827E+03  4.10890E+03  1.75398E+03  1.37726E+02  4.41439E+03  3.01300E+02  2.23255E+03
  1.39236E+03  1.11581E+03  1.14150E+03  1.53204E+03  3.81124E+03  4.25337E+03  3.98870E+03  5.72526E+03
 -3.99509E+03  9.20025E+03 -7.89243E+03  9.17651E+03 -1.16290E+04  2.15773E+03 -1.33434E+04 -5.17804E+03
 -6.54201E+03 -1.22081E+04  1.45814E+03 -1.19151E+04  6.91958E+03 -8.25244E+03  1.05104E+04 -3.36377E+03
  6.72617E+03  5.14436E+03  2.36111E+03  7.37209E+03 -3.55449E+03  4.66796E+03 -5.18845E+03  3.11515E+02
 -1.83739E+03 -5.76204E+03  3.03032E+03 -5.41430E+03  4.35107E+03 -2.28350E+03  3.38687E+03  2.05632E+03
  2.60049E+03  2.40688E+03  1.06748E+03  1.40244E+03 -7.53241E+01  2.53171E+03 -3.57005E+02 -1.20168E+03
  2.43958E+03 -9.46426E+02  4.37823E+03  1.34013E+03  1.85417E+03  6.23033E+03  1.07757E+02  8.32789E+03
 -5.28060E+03  5.61127E+03 -6.82965E+03  1.22349E+03 -5.59959E+03 -1.87172E+03 -1.61572E+03 -4.54100E+03
  1.26673E+02 -3.70621E+03  3.17726E+03 -1.81835E+03  4.02673E+03  2.95126E+03 -1.82844E+03  3.20894E+03
 -5.34674E+03  3.47532E+03 -5.23037E+03 -3.26298E+03 -2.80859E+03 -6.82165E+03  3.56066E+02 -6.16723E+03
  2.16468E+03 -2.01204E+03  4.21994E+03 -2.47706E+02  2.46369E+03  1.10538E+03  1.63032E+03  4.04874E+03
 -3.25742E+03  1.88780E+03 -3.85532E+03 -1.72876E+03  1.57750E+03 -5.23492E+03  5.20103E+03 -4.27530E+03
  5.52160E+03  1.33586E+03  7.26756E+03  6.39723E+03  2.43525E+03  7.09583E+03 -2.38579E+03  5.23374E+03
 -6.43755E+03  2.16771E+03 -6.40339E+03 -8.42496E+02 -1.65875E+03 -5.39545E+03  9.67031E+02 -3.17508E+03
  4.03400E+03 -1.53014E+03  4.32628E+03  1.58130E+03  1.13562E+03  3.61522E+03  8.93588E+00  3.53054E+03
 -1.40708E+03  1.91021E+03 -2.19377E+03  3.24704E+02 -3.74363E+02  1.02218E+03 -2.36191E+03  2.30590E+03
 -2.79655E+03  3.31302E+03 -4.97107E+03  1.65259E+03 -7.54652E+03  4.35555E+02 -7.36168E+03 -4.90352E+03
 -4.84317E+03 -8.64672E+03  2.55135E+03 -1.18222E+04  6.85742E+03 -8.62754E+03  1.05549E+04 -3.99634E+03
  9.47174E+03  2.71861E+03  7.18054E+03  7.49402E+03 -2.47185E+02  7.48057E+03 -4.33970E+03  6.40153E+03
 -5.35633E+03  1.83691E+03 -2.38447E+03 -1.15529E+03 -1.03240E+03  5.82145E+02 -1.44626E+03  4.82184E+02
 -1.08879E+03 -7.53704E+02 -1.88955E+03  4.44067E+02  1.51374E+02 -1.87405E+03 -7.43947E+02 -1.79168E+03
  3.76169E+03 -2.84049E+03  4.30257E+03 -5.01904E+02  5.30793E+03  3.88382E+03  1.90565E+03  6.22079E+03
 -3.75563E+03  7.49861E+03 -7.68258E+03  4.87438E+03 -8.85602E+03 -3.24778E+02 -5.66874E+03 -4.25866E+03
 -3.08072E+03 -7.47556E+03  2.01062E+03 -6.81617E+03  4.66513E+03 -4.47116E+03  4.79078E+03 -6.06594E+02
  2.25584E+03  4.22604E+03 -7.39191E+02  1.86444E+03 -2.61600E+03 -2.66260E+02 -8.09274E+02 -1.31625E+03
  1.48322E+03 -1.42099E+02  2.62967E+03 -4.92010E+02  1.80503E+03  3.49041E+03  9.49056E+02  3.95247E+03
 -4.46517E+03  2.47615E+03 -4.87303E+03  1.00130E+03 -4.48380E+03 -3.72102E+03 -1.58488E+03 -4.43155E+03
  2.93770E+03 -5.05036E+03  5.13851E+03 -1.70451E+02  5.10289E+03  1.73627E+03  3.57429E+03  5.05478E+03
  1.36441E+03  3.88346E+03 -2.49692E+03  3.70537E+03 -2.20339E+03  2.99512E+03 -1.19156E+03  1.24418E+03
 -1.24441E+03  4.89390E+02 -2.10382E+03  9.64433E+02 -2.25910E+03  1.31491E+03 -3.13001E+03 -1.36926E+02
 -2.50912E+03 -2.83735E+03 -1.73185E+03 -4.32450E+03  2.10437E+03 -4.03720E+03  3.83223E+03 -1.69446E+03
  4.35011E+03  1.86827E+03  1.87215E+03  3.01100E+03 -4.61137E+02  4.76144E+03 -2.74187E+03  2.47409E+03
