 $NMID ID='MM_0lb_SNR200_10hz_g40_41.RAW', FMTDAT='(8E13.5)'
 TRAMP=1., VOLUME=1. $END
  3.10217E+05  1.38600E+02  3.37623E+05  2.50625E+05  8.61799E+04  3.38375E+05 -1.32181E+05  2.51175E+05
 -1.89844E+05  8.34963E+04 -1.12785E+05 -3.22533E+04  2.72002E+02 -5.12497E+04  5.52714E+04 -8.86777E+01
  3.65042E+04  5.24821E+04 -1.65355E+04  7.65392E+04 -6.07328E+04  6.52402E+04 -8.52015E+04  3.17589E+04
 -8.15409E+04 -1.18667E+04 -5.78074E+04 -5.43303E+04 -1.43394E+04 -7.01177E+04  2.71900E+04 -4.58872E+04
  4.00506E+04  4.01734E+03  1.77924E+04  4.95191E+04 -3.59240E+04  4.85214E+04 -6.79581E+04  5.93019E+02
 -5.59194E+04 -5.51918E+04 -6.69857E+03 -7.75023E+04  3.47599E+04 -5.57291E+04  4.86913E+04 -1.84079E+04
  4.43000E+04  1.12003E+04  3.39146E+04  2.62710E+04  1.51753E+04  2.93275E+04 -6.14664E+03  2.65015E+04
 -2.12408E+04  1.15456E+04 -1.77516E+04 -5.18911E+03  7.17794E+03 -6.75741E+03  2.43371E+04  1.43918E+04
  6.88457E+03  3.52448E+04 -3.36115E+04  3.59872E+04 -6.48797E+04  1.92173E+03 -5.92175E+04 -4.54951E+04
 -1.24013E+04 -6.56343E+04  4.23116E+04 -4.76307E+04  5.90236E+04 -2.33572E+03  3.61136E+04  3.26128E+04
 -7.91863E+03  3.70025E+04 -3.09978E+04  1.67414E+04 -3.31950E+04 -4.65279E+03 -1.78403E+04 -1.22233E+04
 -9.40980E+03 -1.53176E+04 -9.66415E+02 -1.85738E+04  7.82571E+03 -2.37440E+04  1.63657E+04 -1.36943E+04
  1.03716E+04  6.90887E+03 -8.87411E+03  1.39073E+04 -2.39348E+04 -6.17994E+03 -8.42882E+03 -3.51654E+04
  2.32580E+04 -4.49854E+04  4.89591E+04 -2.04268E+04  4.74273E+04  2.06055E+04  1.70025E+04  4.55716E+04
 -1.47747E+04  3.50937E+04 -2.47821E+04  2.42874E+03 -9.64745E+03 -2.85999E+04  2.19845E+04 -3.53825E+04
  4.30158E+04 -1.02198E+04  3.86737E+04  2.35323E+04  2.11445E+04  4.90622E+04 -9.61851E+03  5.32681E+04
 -3.41952E+04  3.71159E+04 -4.52468E+04  9.34401E+03 -4.75592E+04 -1.93807E+04 -2.56589E+04 -3.88988E+04
  8.92977E+03 -4.10380E+04  3.26907E+04 -1.63687E+04  3.17889E+04  1.22348E+04  3.92324E+03  2.16438E+04
 -1.38100E+04  8.31315E+03 -1.07917E+04 -7.37609E+03  5.91694E+03 -1.11784E+04  1.98355E+04  5.34291E+03
  1.40739E+04  2.15522E+04 -6.22349E+03  2.63221E+04 -2.26165E+04  1.25425E+04 -2.89730E+04 -3.63068E+03
 -2.31889E+04 -1.75162E+04 -9.34898E+03 -2.34607E+04  5.66983E+03 -2.23693E+04  1.99567E+04 -2.25523E+04
  2.99471E+04 -1.49084E+04  3.57642E+04  3.61500E+03  2.61866E+04  2.18743E+04  4.63560E+03  3.99391E+04
 -1.83128E+04  3.43551E+04 -3.04992E+04  1.01121E+04 -2.10517E+04 -1.28804E+04 -3.75688E+03 -1.27557E+04
  1.09299E+03 -6.85879E+02 -6.51696E+03  7.96866E+03 -1.90050E+04  3.61749E+03 -1.97516E+04 -7.67608E+03
 -1.07691E+04 -2.08151E+04  5.03444E+03 -2.60522E+04  1.64012E+04 -1.95406E+04  2.22875E+04 -1.89642E+03
  1.28442E+04  1.45088E+04 -2.29489E+03  2.23284E+04 -1.58011E+04  1.15508E+04 -2.17552E+04 -5.14023E+03
 -1.59665E+04 -1.84533E+04 -1.38415E+03 -2.62337E+04  1.11093E+04 -2.14836E+04  2.14422E+04 -1.11178E+04
  2.04966E+04  2.13629E+02  1.43371E+04  5.34013E+03  7.60546E+03  7.63466E+02  1.26041E+04 -3.09366E+03
  1.99361E+04  2.90081E+03  2.37184E+04  1.77281E+04  1.48066E+04  3.43704E+04 -2.39843E+03  3.93505E+04
 -2.43723E+04  3.18414E+04 -3.81169E+04  1.79269E+04 -4.00038E+04 -1.73359E+03 -3.30533E+04 -2.40223E+04
 -1.39443E+04 -3.16946E+04  1.08062E+04 -2.89472E+04  2.43094E+04 -1.46403E+04  2.22136E+04  6.02120E+03
  7.72061E+03  1.71626E+04 -1.12787E+04  1.54152E+04 -2.00230E+04  2.46413E+03 -1.54783E+04 -1.07734E+04
  6.48662E+02 -1.68433E+04  9.14748E+03 -1.41909E+04  1.26429E+04 -7.16219E+02  3.03788E+03  9.08073E+03
 -6.22037E+03  2.29803E+03 -8.58067E+03 -6.94566E+03 -2.05800E+03 -1.61004E+04  1.09141E+04 -1.91344E+04
  2.17713E+04 -9.01431E+03  2.33080E+04  2.14016E+03  2.06479E+04  1.62097E+04  9.06483E+03  2.49220E+04
 -4.62229E+03  2.80734E+04 -1.85196E+04  1.82315E+04 -2.07995E+04  4.40750E+03 -1.36004E+04 -6.14758E+03
 -6.79941E+03 -6.31015E+03 -1.35217E+03  9.40650E+02 -2.43015E+03  3.09762E+03 -6.57086E+03  6.40355E+03
 -1.28481E+04 -4.06361E+02 -1.38623E+04 -1.06542E+04 -6.32984E+03 -1.70436E+04  6.70718E+03 -1.52032E+04
  1.28001E+04 -5.46709E+03  6.60663E+03  4.34440E+03 -1.04681E+03  5.37206E+03 -5.32961E+03 -1.75225E+02
 -6.46070E+03 -9.36065E+03  2.15917E+02 -1.28018E+04  6.91595E+03 -1.33630E+04  1.80231E+04 -5.63421E+03
  2.02181E+04  3.76104E+03  1.48707E+04  1.22089E+04  2.88243E+03  1.68223E+04 -9.38602E+03  1.49369E+04
 -1.19169E+04  2.99445E+03 -5.88274E+03 -3.27201E+03  1.92043E+03 -4.12386E+03  7.82333E+03 -7.31098E+02
  7.74052E+03  6.76958E+03  2.20433E+03  1.16030E+04 -7.87314E+03  1.05441E+04 -1.38915E+04  2.44184E+03
 -1.04574E+04 -6.86694E+03  1.51226E+03 -1.29693E+04  7.58464E+03 -6.18354E+03  7.80300E+03  1.71314E+03
  1.39169E+03  8.53682E+03 -7.19192E+03  1.03343E+04 -1.23794E+04  3.34749E+03 -1.13340E+04 -3.61230E+03
 -6.58471E+03 -1.43759E+04  4.00388E+03 -1.51462E+04  1.33463E+04 -9.55899E+03  1.59074E+04  1.01474E+03
  8.80065E+03  1.19443E+04 -1.78456E+03  1.35989E+04 -9.46522E+03  7.75036E+03 -1.19107E+04 -1.85087E+03
 -1.02518E+04 -8.95552E+03 -1.69981E+03 -1.02188E+04  5.33635E+03 -7.66990E+03  7.24971E+03 -3.74387E+03
  4.04851E+03  1.29697E+03 -1.34821E+02  4.12537E+02 -9.14745E+02 -4.15214E+03  2.43881E+03 -5.87404E+03
  1.07235E+04 -5.56771E+03  1.32247E+04  1.41631E+03  1.43482E+04  1.00678E+04  8.08501E+03  1.77677E+04
 -4.91443E+03  2.13568E+04 -1.77109E+04  1.42551E+04 -2.19350E+04  3.27710E+03 -1.81314E+04 -6.51651E+03
 -1.05342E+04 -1.51003E+04  3.57292E+02 -1.21821E+04  4.86521E+03 -7.31348E+03  5.47611E+03 -3.63140E+03
  3.12170E+03 -1.72159E+03  3.94654E+03 -3.73760E+03  4.28082E+03 -4.22323E+03  5.97259E+03 -8.06808E+02
  9.25003E+03  2.34274E+03  5.04407E+03  8.22787E+03 -1.93323E+03  9.65121E+03 -7.73961E+03  6.89173E+03
 -1.22069E+04 -1.50127E+03 -8.22043E+03 -6.79764E+03 -1.23541E+03 -1.35646E+04  6.60474E+03 -1.31558E+04
  1.36126E+04 -7.35433E+03  1.63841E+04  1.51799E+03  1.10472E+04  1.13659E+04  1.34378E+03  1.59524E+04
 -6.18004E+03  1.24306E+04 -8.58728E+03  5.07691E+03 -7.29492E+03 -8.90581E+02 -2.08403E+03 -1.57821E+03
 -1.61422E+03 -2.89310E+02 -1.98007E+03  1.57157E+03 -4.75017E+03  2.63288E+03 -9.17052E+03 -1.55531E+03
 -6.99100E+03 -9.43887E+03  4.82579E+02 -1.19746E+04  6.94581E+03 -1.02932E+04  1.18457E+04 -2.97112E+03
  1.16192E+04  6.51553E+03  3.97379E+03  1.13960E+04 -2.42960E+03  1.33464E+04 -9.14217E+03  7.71527E+03
 -1.27059E+04  1.46561E+03 -9.15699E+03 -8.57802E+03 -1.68808E+03 -1.04883E+04  6.39530E+03 -7.87640E+03
  8.08774E+03 -1.83658E+03  5.07348E+03  2.34001E+03  2.58496E+03  3.75768E+03  1.45650E+03  2.67323E+03
  2.80661E+03  8.46747E+02  1.64101E+03  1.24068E+03  3.19291E+03  4.23841E+03  2.00127E+03  6.54859E+03
 -3.15796E+03  9.36000E+03 -8.20626E+03  1.01009E+04 -1.36158E+04  3.13795E+03 -1.42844E+04 -4.68865E+03
 -7.31806E+03 -1.24237E+04  2.39933E+03 -1.53044E+04  7.45810E+03 -9.89965E+03  8.40820E+03 -2.07706E+03
  8.49755E+03  4.17464E+03  2.04744E+03  7.79305E+03 -3.81562E+03  4.86020E+03 -4.23363E+03 -1.35147E+03
 -1.79288E+03 -4.54796E+03  4.35619E+03 -4.56986E+03  5.11165E+03 -2.83003E+03  7.26298E+03  2.61626E+03
  2.77215E+03  1.65275E+03  2.39189E+03  2.22013E+03  1.08552E+03  2.09056E+03  1.57746E+03 -1.07460E+03
  3.28909E+03 -1.21249E+03  6.11923E+03  1.87120E+03  3.20755E+03  6.45279E+03 -1.04932E+03  9.12240E+03
 -4.61090E+03  5.64978E+03 -9.05114E+03  1.56565E+03 -8.33572E+03 -3.88219E+03 -2.40007E+03 -3.64949E+03
  6.69713E+02 -4.34349E+03  2.96715E+03 -7.31820E+02  2.76521E+03  2.46098E+03 -1.61099E+03  1.38726E+03
 -4.61180E+03  5.45938E+02 -6.27987E+03 -3.14241E+03 -2.85730E+03 -6.77003E+03  1.17306E+03 -6.11702E+03
  4.74442E+03 -3.95074E+03  4.45592E+03 -1.17764E+02  2.91433E+03  1.20745E+03  6.64838E+02  3.97744E+03
 -4.39015E+03  1.71534E+03 -3.15165E+03 -1.76485E+03  7.53963E+02 -3.83147E+03  7.90741E+03 -5.04640E+03
  7.76068E+03  5.05565E+02  7.56900E+03  5.02157E+03  3.73374E+03  7.42439E+03 -2.78973E+03  7.31069E+03
 -6.25999E+03  2.92460E+03 -6.67789E+03 -2.44633E+01 -2.72907E+03 -4.65914E+03  2.07742E+02 -4.36569E+03
  6.33564E+03 -2.04490E+03  5.89292E+03  2.08130E+03  1.21128E+03  3.49200E+03  3.12723E+02  3.36454E+03
 -3.15693E+03  2.12043E+03 -1.55787E+03  6.20059E+02  1.38624E+02  4.62142E+02 -1.47291E+03  2.45970E+03
 -1.09598E+03  4.14653E+03 -4.90052E+03  3.46907E+03 -8.61855E+03  1.61806E+02 -8.89885E+03 -5.06297E+03
 -4.62647E+03 -1.06063E+04  1.67780E+03 -1.24497E+04  7.23537E+03 -8.09530E+03  1.24468E+04 -4.09198E+03
  9.93122E+03  2.51867E+03  6.75210E+03  7.36528E+03  1.05516E+03  8.32021E+03 -2.85476E+03  6.29600E+03
 -4.18801E+03  1.87925E+03 -2.56582E+03 -1.56286E+03 -2.08237E+02 -8.14196E+02 -2.64154E+02 -5.63053E+01
 -9.22360E+02  7.62900E+02 -2.59642E+03 -5.19358E+02 -5.62398E+02 -3.44611E+03 -5.04156E+02 -4.44437E+03
  3.65764E+03 -2.21934E+03  4.01630E+03 -2.42143E+02  6.71705E+03  4.38479E+03  1.00585E+03  8.41977E+03
 -3.37690E+03  9.30899E+03 -1.02582E+04  7.17973E+03 -8.75858E+03 -1.26135E+03 -8.39861E+03 -6.63451E+03
 -3.17874E+03 -8.42233E+03  2.87442E+03 -8.80077E+03  4.91600E+03 -3.65336E+03  5.10270E+03  1.15931E+02
  3.77372E+03  1.92986E+03  8.14818E+02  2.73019E+03 -1.10208E+03  1.72467E+03 -3.11732E+02 -1.33039E+03
  2.96618E+03  5.34232E+02  3.23731E+03 -1.66147E+01  1.38909E+03  1.46871E+03 -1.62116E+03  4.77067E+03
 -3.41645E+03  2.98866E+03 -5.65022E+03  1.12092E+03 -4.72218E+03 -4.86021E+03 -1.60402E+03 -5.80736E+03
  3.71548E+03 -5.39263E+03  5.36599E+03 -1.24903E+03  7.44707E+03  2.45736E+03  4.54322E+03  5.06407E+03
  1.04632E+03  4.80360E+03 -2.72603E+03  4.90460E+03 -3.85263E+03  2.41040E+03 -2.82863E+03 -9.83415E+02
 -1.78360E+03  7.80350E+02 -3.17096E+03  6.02494E+01 -3.55478E+03  1.12497E+03 -3.90849E+03 -1.60412E+03
 -3.40720E+03 -2.99341E+03  3.94105E+01 -4.87847E+03  4.23515E+03 -7.73555E+03  4.06145E+03 -3.11853E+03
  4.67558E+03  1.48119E+03  2.16794E+03  3.39785E+03 -1.76380E+03  6.62499E+03 -4.79115E+03  4.05055E+03
