 $NMID ID='MM_0lb_SNR200_7hz_g40_88.RAW', FMTDAT='(8E13.5)'
 TRAMP=1., VOLUME=1. $END
  3.11378E+05 -7.94219E+02  3.37501E+05  2.48853E+05  8.38933E+04  3.40213E+05 -1.30932E+05  2.50979E+05
 -1.92449E+05  8.35500E+04 -1.11744E+05 -3.23844E+04 -9.06655E+02 -5.21417E+04  5.47722E+04  1.58273E+02
  3.58647E+04  5.30404E+04 -1.48273E+04  7.69826E+04 -6.04959E+04  6.39398E+04 -8.74438E+04  3.34146E+04
 -8.27620E+04 -1.03087E+04 -5.82912E+04 -5.32519E+04 -1.62648E+04 -7.15372E+04  2.81208E+04 -4.67384E+04
  4.17375E+04  3.52151E+03  1.65973E+04  4.84196E+04 -3.51579E+04  4.63714E+04 -6.79903E+04  1.07873E+03
 -5.48504E+04 -5.63448E+04 -8.18710E+03 -7.90779E+04  3.63773E+04 -5.85279E+04  5.19786E+04 -1.89396E+04
  4.57633E+04  1.05148E+04  3.22864E+04  2.61618E+04  1.58070E+04  2.96310E+04 -7.06507E+03  2.84880E+04
 -2.28169E+04  1.24274E+04 -1.83773E+04 -6.34463E+03  8.03798E+03 -8.53901E+03  2.32356E+04  1.43998E+04
  7.81133E+03  3.78434E+04 -3.46651E+04  3.89801E+04 -6.54108E+04  1.90441E+03 -5.92259E+04 -4.44612E+04
 -1.43485E+04 -6.70747E+04  4.12399E+04 -4.68289E+04  6.11653E+04 -4.69553E+03  3.64051E+04  3.50184E+04
 -4.40447E+03  4.02382E+04 -3.27828E+04  1.84979E+04 -3.23481E+04 -2.48936E+03 -2.03713E+04 -1.12553E+04
 -1.04367E+04 -1.51890E+04 -1.26728E+03 -1.94403E+04  1.05173E+04 -2.36221E+04  1.60280E+04 -1.14829E+04
  9.80521E+03  7.03688E+03 -1.21346E+04  1.50324E+04 -2.35317E+04 -6.44402E+03 -8.62501E+03 -3.83059E+04
  2.62790E+04 -4.80996E+04  5.39198E+04 -2.07089E+04  4.98166E+04  1.96180E+04  1.80613E+04  4.72176E+04
 -1.76264E+04  3.59809E+04 -2.91851E+04  3.76890E+03 -1.31979E+04 -2.83491E+04  2.26839E+04 -3.88467E+04
  4.53648E+04 -1.16588E+04  4.19852E+04  2.63259E+04  2.29199E+04  5.07514E+04 -7.87615E+03  5.85104E+04
 -3.55421E+04  3.97177E+04 -4.89595E+04  1.19680E+04 -5.00373E+04 -1.99642E+04 -2.75876E+04 -4.38816E+04
  7.64499E+03 -4.34528E+04  3.60515E+04 -1.70344E+04  3.39136E+04  1.16657E+04  4.74474E+03  2.14388E+04
 -1.44262E+04  9.98688E+03 -1.27985E+04 -7.23782E+03  6.47820E+03 -1.13745E+04  2.04937E+04  5.88097E+03
  1.53691E+04  2.31293E+04 -4.26122E+03  2.86410E+04 -2.41651E+04  1.60697E+04 -3.19198E+04 -3.14744E+03
 -2.81101E+04 -2.00187E+04 -1.47866E+04 -2.48167E+04  3.34148E+03 -2.70835E+04  2.10121E+04 -2.48100E+04
  3.29300E+04 -1.32850E+04  3.90885E+04  4.35328E+03  2.64662E+04  2.42043E+04  4.21517E+03  4.26494E+04
 -1.80179E+04  3.46545E+04 -2.92272E+04  1.17771E+04 -2.18138E+04 -1.10393E+04 -4.26117E+03 -1.38020E+04
  5.13767E+01 -8.00939E+02 -9.24649E+03  7.53947E+03 -2.09212E+04  4.92786E+03 -2.02821E+04 -1.11758E+04
 -1.41482E+04 -2.53328E+04  7.50834E+03 -2.81736E+04  1.89787E+04 -2.24467E+04  2.50690E+04 -4.96646E+02
  1.45511E+04  1.66063E+04 -1.30561E+03  2.52965E+04 -1.70697E+04  1.30362E+04 -2.56409E+04 -2.32890E+03
 -1.70445E+04 -2.04608E+04 -2.34677E+03 -2.89015E+04  1.31338E+04 -2.55102E+04  2.34847E+04 -1.26274E+04
  2.39782E+04 -1.64453E+03  1.65831E+04  3.84035E+03  8.74194E+03  1.91679E+03  1.33590E+04 -3.84730E+03
  2.24021E+04  2.82384E+03  2.80471E+04  1.90396E+04  1.98794E+04  4.00089E+04 -2.58929E+03  4.62025E+04
 -2.73651E+04  4.02025E+04 -4.32828E+04  2.01179E+04 -4.83354E+04 -1.31514E+03 -3.86606E+04 -2.90170E+04
 -1.51422E+04 -3.92446E+04  1.64810E+04 -3.51334E+04  2.82271E+04 -1.49901E+04  2.58768E+04  9.43946E+03
  8.52168E+03  1.99217E+04 -1.26354E+04  1.56056E+04 -2.10011E+04  3.10250E+03 -1.46616E+04 -1.38147E+04
 -2.88213E+03 -2.05162E+04  1.06145E+04 -1.59318E+04  1.38214E+04 -1.02304E+03  2.52478E+03  9.01944E+03
 -8.72933E+03  4.67045E+03 -8.97043E+03 -7.25826E+03 -3.19762E+03 -1.99137E+04  1.24835E+04 -1.97971E+04
  2.69916E+04 -1.30805E+04  2.77408E+04  3.08539E+03  2.56631E+04  2.02646E+04  1.08750E+04  3.21664E+04
 -6.07041E+03  3.31270E+04 -2.20646E+04  2.21552E+04 -2.47540E+04  4.36229E+03 -1.77144E+04 -6.48593E+03
 -7.11393E+03 -8.50363E+03 -1.29794E+03 -7.48992E+02 -2.48911E+03  2.58093E+03 -8.47562E+03  6.62525E+03
 -1.57998E+04 -9.27071E+02 -1.63563E+04 -1.33961E+04 -5.10487E+03 -1.89943E+04  7.45469E+03 -1.78653E+04
  1.25142E+04 -7.19358E+03  9.44606E+03  3.24986E+03 -9.32538E+02  5.24120E+03 -8.05051E+03  6.07123E+02
 -9.22799E+03 -1.21054E+04 -2.13729E+03 -1.57082E+04  9.91644E+03 -1.62579E+04  2.15788E+04 -8.78783E+03
  2.59244E+04  3.16987E+02  1.81775E+04  1.54200E+04  2.34122E+03  2.03059E+04 -1.05445E+04  1.56405E+04
 -1.22759E+04  3.68689E+03 -7.41987E+03 -2.01183E+03  2.18671E+03 -2.33150E+03  7.77728E+03  1.38534E+01
  8.36934E+03  7.11912E+03 -1.18404E+03  1.58723E+04 -8.95924E+03  1.39864E+04 -1.79059E+04  3.95858E+03
 -1.21562E+04 -8.02546E+03 -6.90288E+02 -1.65639E+04  9.44651E+03 -8.22076E+03  1.13636E+04  4.56853E+03
  3.49509E+03  1.07983E+04 -9.59042E+03  1.39221E+04 -1.63211E+04  7.23075E+03 -1.58207E+04 -6.49308E+03
 -8.88478E+03 -1.96550E+04  4.36583E+03 -2.09783E+04  1.73663E+04 -1.36929E+04  1.90870E+04  4.50126E+03
  1.15597E+04  1.32577E+04 -2.90072E+03  1.74289E+04 -1.33732E+04  8.89908E+03 -1.55163E+04 -4.58782E+02
 -1.16788E+04 -1.22776E+04 -1.46808E+03 -1.13593E+04  8.40410E+03 -1.10359E+04  8.92569E+03 -4.47566E+03
  6.18399E+03  3.93822E+03 -2.13458E+03  6.91656E+02  1.49463E+02 -5.88566E+03  3.40764E+03 -9.12229E+03
  1.16081E+04 -5.17745E+03  1.69361E+04  1.76551E+03  1.70749E+04  1.31242E+04  1.13458E+04  2.74465E+04
 -6.36312E+03  2.87360E+04 -2.16547E+04  2.12485E+04 -3.00833E+04  3.19381E+03 -2.44018E+04 -9.71678E+03
 -1.21561E+04 -2.19040E+04  1.76488E+03 -1.76948E+04  6.11587E+03 -1.07115E+04  5.39381E+03 -6.44584E+03
  5.45999E+03 -4.64321E+03  3.04090E+03 -3.24109E+03  6.01641E+03 -4.29983E+03  1.10533E+04 -1.31323E+03
  1.31327E+04  1.59132E+03  7.52963E+03  1.09347E+04 -2.42352E+03  1.32503E+04 -1.32375E+04  1.16322E+04
 -1.67958E+04 -1.53260E+03 -1.16474E+04 -1.27221E+04 -1.46183E+03 -1.83843E+04  9.66732E+03 -1.99011E+04
  1.85073E+04 -9.77076E+03  2.34695E+04  2.50833E+03  1.68098E+04  1.44846E+04  2.67844E+03  1.96289E+04
 -8.26252E+03  1.64352E+04 -1.17994E+04  4.52779E+03 -9.49327E+03 -2.87276E+03 -3.06532E+03 -1.86278E+03
 -1.88095E+03  1.79893E+03 -2.42319E+03  3.58315E+03 -7.40966E+03  3.77336E+03 -1.11880E+04 -3.23245E+03
 -8.59217E+03 -1.06827E+04  1.43760E+02 -1.87749E+04  9.12706E+03 -1.63177E+04  1.76232E+04 -6.64444E+03
  1.73422E+04  8.68781E+03  6.31081E+03  1.70484E+04 -4.59746E+03  1.67795E+04 -1.28418E+04  1.12469E+04
 -1.58162E+04  9.44260E+02 -1.26096E+04 -1.07899E+04 -1.55668E+03 -1.44807E+04  7.58619E+03 -1.12953E+04
  1.06276E+04 -3.16147E+03  5.94609E+03  4.45551E+03  3.01201E+03  6.97099E+03  1.51592E+03  1.74298E+03
  4.51229E+03  1.76903E+03  4.55916E+03  8.82317E+02  4.03638E+03  6.87087E+03  3.59615E+03  1.20554E+04
 -4.69994E+03  1.53603E+04 -1.20376E+04  1.40963E+04 -1.83498E+04  3.01951E+03 -1.95178E+04 -8.32067E+03
 -8.75433E+03 -1.89902E+04  3.92331E+03 -1.98384E+04  1.18981E+04 -1.33698E+04  1.61338E+04 -5.10694E+03
  1.13289E+04  6.84070E+03  2.56197E+03  1.10978E+04 -4.43452E+03  7.01885E+03 -7.11798E+03 -4.65495E+02
 -2.72585E+03 -1.06700E+04  4.21297E+03 -9.41814E+03  9.67304E+03 -2.40368E+03  7.33980E+03  2.11663E+03
  4.97690E+03  2.99300E+03  1.53265E+03  3.25558E+03 -1.32436E+03  2.72319E+03  3.67882E+03 -1.78807E+03
  2.40569E+03 -7.35194E+02  7.61342E+03  3.47068E+03  3.30868E+03  1.01573E+04 -2.42997E+03  1.40722E+04
 -9.61857E+03  9.25593E+03 -1.20030E+04  2.40423E+03 -1.14919E+04 -5.10177E+03 -6.04735E+03 -6.88431E+03
  9.91461E+02 -7.42807E+03  3.97985E+03 -4.50952E+03  4.99631E+03  3.80684E+03 -1.84544E+03  6.06371E+03
 -1.00258E+04  4.23414E+03 -8.91498E+03 -5.06998E+03 -3.04050E+03 -9.76703E+03  1.48696E+03 -9.99723E+03
  4.38163E+03 -7.47294E+03  8.80187E+03  2.52887E+02  6.87050E+03  2.35144E+03  2.98127E+02  3.81284E+03
 -3.89281E+03  4.70851E+02 -5.12293E+03 -3.32032E+03  7.92141E+02 -8.63794E+03  1.04517E+04 -5.24579E+03
  1.16393E+04  9.15880E+02  1.19266E+04  7.97896E+03  2.31007E+03  1.12606E+04 -3.16020E+03  1.41798E+04
 -1.01433E+04  5.66659E+03 -1.41057E+04 -1.68415E+03 -6.47370E+03 -8.80372E+03  8.77697E+02 -7.35268E+03
  7.05358E+03 -5.42146E+03  5.50120E+03  3.37350E+03  3.46252E+03  6.91415E+03 -2.72407E+03  7.35346E+03
 -3.76611E+03  3.19662E+03 -1.88051E+03  2.19638E+03  4.23327E+02 -5.53125E+01 -9.73048E+01  2.55848E+03
 -3.58999E+03  5.29572E+03 -8.00864E+03  3.51964E+03 -1.19461E+04 -6.54625E+02 -1.36260E+04 -8.33640E+03
 -8.69153E+03 -1.82534E+04  3.14056E+03 -1.95823E+04  1.32022E+04 -1.44279E+04  2.03499E+04 -3.69041E+03
  1.71099E+04  3.06265E+03  1.20372E+04  1.18674E+04  1.99581E+03  1.34448E+04 -4.95034E+03  9.32681E+03
 -7.36181E+03  3.50905E+03 -4.16075E+03 -2.41602E+03 -6.56189E+00 -3.57719E+03 -3.00503E+02  1.29014E+02
 -4.45839E+03  4.67686E+02 -2.98141E+03  6.44406E+02 -2.26650E+03 -3.56709E+03  1.41907E+03 -5.58098E+03
  4.38344E+03 -3.84903E+03  7.63947E+03  8.28435E+02  8.35110E+03  8.48266E+03  2.31117E+03  1.46513E+04
 -5.76214E+03  1.49745E+04 -1.38640E+04  8.80272E+03 -1.83224E+04 -1.13121E+03 -1.56203E+04 -1.05603E+04
 -5.05122E+03 -1.27559E+04  3.49910E+03 -1.40883E+04  1.00854E+04 -8.66767E+03  9.43116E+03 -7.31560E+02
  5.43544E+03  5.75821E+03  6.25149E+02  4.67788E+03 -2.48984E+03 -1.79039E+03 -7.74708E+02 -4.50051E+03
  1.64087E+03 -5.05429E+02  7.56770E+03  2.44855E+03  3.89545E+03  4.18939E+03 -3.38363E+01  6.35423E+03
 -5.16521E+03  6.94205E+03 -9.40722E+03  1.35749E+03 -1.01972E+04 -6.32712E+03 -8.80674E+02 -1.06277E+04
  7.65784E+03 -8.91429E+03  1.26299E+04 -3.55871E+03  1.07866E+04  2.72637E+03  8.39941E+03  7.61655E+03
  2.30871E+02  9.76900E+03 -6.06196E+03  8.13147E+03 -6.42227E+03  2.42324E+03 -4.90960E+03 -8.51976E+02
 -2.34459E+03 -1.33851E+03 -2.48835E+03  8.04051E+01 -4.43131E+03  1.97497E+03 -7.22521E+03 -3.44590E+03
 -5.42683E+03 -4.72625E+03 -2.50488E+03 -1.00275E+04  4.49505E+03 -9.11675E+03  7.70415E+03 -5.10443E+03
  8.54911E+03 -8.73384E+02  4.68704E+03  7.01340E+03  3.12151E+02  8.89603E+03 -8.35808E+03  5.98024E+03
