 $NMID ID='MM_0lb_SNR200_17hz_g45_39.RAW', FMTDAT='(8E13.5)'
 TRAMP=1., VOLUME=1. $END
  3.10811E+05  6.88035E+01  3.38193E+05  2.51854E+05  8.39596E+04  3.37516E+05 -1.31937E+05  2.50710E+05
 -1.89665E+05  8.22917E+04 -1.10415E+05 -3.27141E+04  1.46042E+03 -5.05713E+04  5.22318E+04  1.36690E+03
  3.56260E+04  5.18804E+04 -1.73805E+04  7.51498E+04 -6.07544E+04  6.22992E+04 -8.33979E+04  3.22274E+04
 -8.00719E+04 -1.14274E+04 -5.65643E+04 -5.13215E+04 -1.48552E+04 -6.72464E+04  2.74911E+04 -4.56054E+04
  3.97789E+04  3.29771E+03  1.44190E+04  4.74930E+04 -3.42056E+04  4.65523E+04 -6.66127E+04 -7.22021E+02
 -5.28872E+04 -5.70277E+04 -5.76634E+03 -7.55445E+04  3.31103E+04 -5.31351E+04  4.65872E+04 -1.57914E+04
  4.21169E+04  9.87442E+03  3.17095E+04  2.45473E+04  1.50598E+04  2.83929E+04 -5.71385E+03  2.64689E+04
 -2.11172E+04  1.37625E+04 -1.96027E+04 -4.10091E+03  4.86118E+03 -6.67815E+03  2.14898E+04  1.20498E+04
  7.36164E+03  3.42476E+04 -3.11179E+04  3.49458E+04 -6.18944E+04  2.71393E+03 -5.60491E+04 -4.15085E+04
 -1.24162E+04 -6.19912E+04  3.82888E+04 -4.41477E+04  5.60809E+04 -1.82576E+03  3.20093E+04  3.12885E+04
 -6.13437E+03  3.41883E+04 -2.91794E+04  1.40705E+04 -2.81091E+04 -4.33463E+03 -1.60703E+04 -1.04315E+04
 -6.97804E+03 -1.13090E+04 -7.65284E+02 -1.62536E+04  5.77505E+03 -2.22310E+04  1.51232E+04 -1.34554E+04
  1.19796E+04  3.63365E+03 -7.22970E+03  1.33316E+04 -2.02202E+04 -2.40874E+03 -7.27597E+03 -2.91335E+04
  2.22011E+04 -4.12102E+04  4.45119E+04 -1.99509E+04  4.40395E+04  1.88021E+04  1.44475E+04  4.22544E+04
 -1.51868E+04  3.20938E+04 -2.30830E+04  8.27399E+02 -7.92265E+03 -2.68599E+04  2.10395E+04 -3.12543E+04
  3.85181E+04 -7.15908E+03  3.17100E+04  2.33519E+04  1.68446E+04  4.40716E+04 -8.89957E+03  4.64344E+04
 -2.85416E+04  3.25557E+04 -3.91607E+04  9.10137E+03 -3.88181E+04 -1.61078E+04 -2.22593E+04 -3.55654E+04
  6.51140E+03 -3.48510E+04  2.89205E+04 -1.37548E+04  2.63089E+04  1.01684E+04  2.59401E+03  1.84706E+04
 -1.40775E+04  6.63725E+03 -1.05994E+04 -7.51701E+03  6.13131E+03 -1.13932E+04  1.76091E+04  5.17882E+03
  1.20782E+04  2.22123E+04 -5.74630E+03  2.42926E+04 -2.05816E+04  9.91668E+03 -2.43878E+04 -5.83923E+03
 -1.78986E+04 -1.73524E+04 -6.26291E+03 -1.66423E+04  4.81671E+03 -1.64615E+04  1.39139E+04 -1.55840E+04
  2.24332E+04 -1.17108E+04  3.00069E+04  1.02689E+03  2.20051E+04  1.76113E+04  4.18917E+03  3.36628E+04
 -1.66119E+04  2.80481E+04 -2.67555E+04  9.86664E+03 -2.05904E+04 -1.10894E+04 -4.38238E+03 -1.32511E+04
  3.31785E+03 -2.94503E+03 -4.36552E+03  6.59079E+03 -1.44056E+04  5.32047E+03 -1.41994E+04 -5.24142E+03
 -9.04673E+03 -1.57506E+04  5.31961E+03 -2.04265E+04  1.14042E+04 -1.39224E+04  1.54727E+04 -2.08072E+03
  8.98812E+03  1.12503E+04 -7.12578E+02  1.69823E+04 -1.04478E+04  9.50864E+03 -1.60538E+04 -3.53827E+03
 -1.17994E+04 -1.48160E+04 -2.34664E+03 -2.03561E+04  1.04554E+04 -1.58869E+04  1.55174E+04 -7.57584E+03
  1.54805E+04  1.99904E+03  1.06004E+04  4.51541E+03  5.78359E+03  4.71073E+02  7.27560E+03 -1.40972E+03
  1.52506E+04  2.72906E+03  1.48635E+04  1.36231E+04  9.24800E+03  2.60483E+04 -3.55587E+03  2.83421E+04
 -1.60675E+04  2.09548E+04 -2.59913E+04  1.11990E+04 -2.73376E+04 -2.09082E+03 -2.27672E+04 -1.58047E+04
 -1.03433E+04 -2.23040E+04  6.71523E+03 -2.02739E+04  1.76474E+04 -1.07572E+04  1.65564E+04  4.51519E+03
  6.64684E+03  1.27728E+04 -6.92546E+03  1.08989E+04 -1.43358E+04  3.55048E+03 -1.08073E+04 -8.61683E+03
 -1.97489E+03 -1.22131E+04  6.37582E+03 -1.04452E+04  7.70691E+03 -1.79821E+03  3.15242E+03  5.86009E+03
 -6.20323E+03  1.60383E+03 -3.11661E+03 -4.93675E+03  7.32562E+02 -1.14241E+04  8.42557E+03 -1.07531E+04
  1.26291E+04 -5.94118E+03  1.32546E+04  2.79095E+03  1.11441E+04  1.04040E+04  5.08897E+03  1.51221E+04
 -7.69136E+02  1.67783E+04 -1.01587E+04  1.07923E+04 -1.22445E+04  3.42779E+03 -9.03900E+03 -2.39514E+03
 -4.89173E+03 -3.97895E+03 -6.05325E+02  1.99699E+03 -2.31070E+03  1.93719E+03 -3.42051E+03  3.47121E+03
 -7.83496E+03 -4.06235E+01 -1.00508E+04 -8.06967E+03 -3.47557E+03 -1.20862E+04  4.57145E+03 -8.74953E+03
  7.14194E+03 -3.67790E+03  5.88521E+03  2.45039E+03  1.46181E+03  4.22814E+03 -4.05983E+03 -3.49140E+02
 -4.20456E+03 -5.44505E+03 -1.19866E+03 -8.98303E+03  3.89546E+03 -8.52822E+03  1.06201E+04 -4.13388E+03
  1.23520E+04  3.04854E+02  9.78512E+03  6.28583E+03  2.65076E+03  9.62642E+03 -5.63150E+03  9.04569E+03
 -7.70195E+03  1.69598E+03 -3.53519E+03 -1.17252E+03  1.82329E+03 -2.13104E+03  4.55312E+03 -5.33035E+02
  5.36838E+03  4.06606E+03  2.36669E+03  6.76880E+03 -5.49750E+03  6.99499E+03 -9.43141E+03  2.32879E+03
 -4.97867E+03 -3.97967E+03  5.38218E+01 -7.27293E+03  3.30938E+03 -3.34993E+03  4.28322E+03  8.34986E+02
  4.98228E+02  3.69319E+03 -4.47227E+03  5.85896E+03 -6.65770E+03  2.00732E+03 -7.05494E+03 -1.62222E+03
 -2.89258E+03 -7.25678E+03  1.44726E+03 -8.05497E+03  8.20396E+03 -5.52242E+03  7.46603E+03  1.95477E+02
  5.24879E+03  5.63382E+03 -3.18036E+01  7.29826E+03 -5.80894E+03  5.14738E+03 -6.67370E+03  1.77389E+02
 -5.69086E+03 -5.62620E+03 -2.28598E+03 -4.81398E+03  2.65934E+03 -5.77618E+03  3.34201E+03 -2.95304E+03
  2.64568E+03  5.88431E+02  2.28041E+02  7.16098E+02  8.14986E+02 -9.52992E+01  7.25890E+02 -2.45275E+03
  4.39562E+03 -5.25374E+02  6.71882E+03  8.99613E+02  6.28633E+03  3.75969E+03  6.55109E+03  7.57244E+03
 -1.01334E+03  1.10759E+04 -7.88761E+03  7.43710E+03 -1.15839E+04  1.09934E+03 -9.47285E+03 -3.67248E+03
 -5.28406E+03 -7.86465E+03  1.33874E+02 -6.01202E+03  2.62740E+03 -2.55706E+03  1.91894E+03 -2.98936E+03
  2.25488E+03 -1.91103E+03  2.78586E+03 -3.34080E+03  3.48273E+03 -1.92722E+03  4.35988E+03  6.89868E+02
  4.63090E+03  1.84795E+03  2.74139E+03  4.14462E+03 -1.89241E+03  3.13684E+03 -4.57400E+03  2.83497E+03
 -6.61594E+03 -2.07907E+03 -2.38977E+03 -3.75387E+03 -1.26938E+02 -5.89858E+03  3.11179E+03 -6.51830E+03
  6.21123E+03 -4.29374E+03  8.19522E+03 -5.97450E+01  6.42064E+03  4.98661E+03  6.66557E+02  7.31715E+03
 -2.15324E+03  6.14187E+03 -4.70773E+03  2.43719E+03 -3.10911E+03 -1.16724E+03 -1.44469E+03  2.85541E+02
 -2.78047E+02 -6.42731E+00 -1.03259E+03  2.26597E+03 -3.03688E+03  2.12110E+03 -4.33983E+03 -1.93737E+02
 -6.78007E+02 -4.72930E+03  1.00441E+03 -4.92068E+03  2.76021E+03 -4.12784E+03  5.25392E+03 -8.71098E+02
  4.46906E+03  2.82139E+03  1.27437E+03  4.19855E+03 -1.67581E+02  5.44277E+03 -3.39974E+03  3.65301E+03
 -5.16338E+03 -3.85686E+01 -3.66329E+03 -2.96339E+03 -6.30551E+01 -3.74912E+03  2.52460E+03 -2.29485E+03
  4.29312E+03 -7.84279E+02  1.63550E+03  9.18315E+02  7.17324E+02  2.20531E+03 -6.90576E+02  6.64146E+02
  2.51988E+03  2.66908E+01  2.14596E+03  1.83918E+03  2.04977E+03  1.90072E+03  2.45192E+03  2.72589E+03
 -1.31779E+03  4.84077E+03 -2.64197E+03  4.75788E+03 -3.78140E+03  1.99076E+03 -5.01589E+03 -1.17500E+03
 -2.23970E+03 -5.53718E+03  1.69465E+03 -5.64061E+03  1.12561E+03 -2.98601E+03  3.75893E+03 -9.37939E+02
  3.52617E+03  1.29188E+03  7.93412E+02  3.00802E+03 -4.37355E+02  1.22670E+03 -1.98713E+03 -1.23246E+02
 -1.33817E+03 -1.21451E+03  5.62168E+02 -1.51747E+03  1.86398E+03 -3.81469E+02  2.49440E+03  3.32816E+02
  2.50775E+02  7.59328E+02  9.52696E+02 -2.30942E+02 -1.21245E+03  1.54375E+03  6.26065E+02 -3.22930E+02
 -3.64875E+02 -4.48668E+01  2.47950E+03  1.42966E+02  2.37385E+03  3.77095E+03 -9.50670E+02  2.64827E+03
 -2.43379E+03  1.78881E+03 -2.67583E+03  6.81757E+01 -2.59804E+03 -9.55332E+02 -5.41505E+02 -2.73229E+02
  4.34084E+02 -1.88081E+03  1.01473E+03 -5.68232E+02  2.02374E+03  2.12387E+03 -1.97200E+03  1.20579E+03
 -9.81204E+02  6.37334E+02 -1.56843E+03 -1.95040E+03 -2.01918E+02 -2.23599E+03  4.00276E+02 -2.86890E+03
 -1.11660E+02  5.90663E+02  1.08541E+03 -1.74660E+02  1.92443E+03 -9.88623E+01 -6.95840E+02  1.41529E+03
 -1.57708E+03  8.25063E+02 -9.42887E+02 -6.73248E+02  1.79909E+02 -8.40784E+02  2.72205E+03 -1.42642E+03
  1.76751E+03  9.04049E+01  3.30180E+03  1.90551E+03  1.41302E+03  2.14550E+03 -3.42229E+02  2.20127E+03
 -1.87533E+03  7.08743E+02 -1.51187E+03 -1.39789E+02 -1.95728E+03 -1.23031E+03  5.56848E+02 -5.49182E+02
  2.01095E+03 -4.80676E+02  1.90960E+03  1.69202E+03  1.68721E+02  1.57907E+03  5.55223E+02  1.08955E+03
 -1.43793E+03  8.95412E+02 -2.44799E+02  9.00790E+02 -1.02871E+03 -3.92739E+02  4.70264E+02  3.14658E+02
  5.43018E+01  4.34392E+02 -2.20459E+03  1.21336E+03 -1.67663E+03  8.08129E+02 -2.71685E+03 -1.38784E+03
 -3.76050E+02 -3.43382E+03  1.23185E+03 -3.04522E+03  8.08532E+02 -2.34521E+03  3.08234E+03 -1.50613E+03
  2.64511E+03  7.89775E+01  1.80923E+03  2.13635E+03 -1.53875E+03  1.21813E+03 -1.04957E+03  9.26788E+02
 -7.31947E+02  1.18178E+03 -1.16669E+03  6.34632E+02  4.62046E+01  9.52997E+02 -1.65565E+03 -3.26053E+02
 -2.63218E+03  2.30021E+00 -1.29889E+03 -1.01662E+03  6.64888E+02 -6.49625E+02 -9.41617E+02 -1.07287E+03
  2.12766E+03 -1.14788E+03  3.97662E+02 -6.71699E+02  6.15136E+02  1.98173E+03 -2.88071E+01  2.04395E+03
 -1.90797E+03  3.70579E+03 -3.58002E+03  2.40526E+03 -2.99478E+03  1.67054E+02 -2.89496E+03 -1.27115E+03
 -1.68870E+03 -2.93431E+03  4.67452E+02 -1.84622E+03  5.16471E+02 -7.21359E+02  1.52409E+02 -9.39835E+01
  3.89243E+02 -3.16066E+02  4.51269E+02  4.63884E+02  6.02224E+02  7.61719E+02 -9.64697E+02  2.83365E+02
  6.78360E+02 -7.49721E+02  2.87856E+02  5.66952E+02  3.69482E+02  3.42346E+01  9.43254E+02 -5.36004E+02
 -4.28595E+02  1.42708E+03 -1.36025E+03  1.70699E+02 -1.59494E+03 -6.89665E+02  5.28319E+02 -6.75788E+02
  1.05179E+03 -1.63035E+03  1.21322E+03  6.13206E+01  1.35907E+03 -1.00466E+03  4.88255E+01  2.56661E+03
  1.84775E+02  1.17311E+03 -1.06720E+03  1.08020E+03 -1.39635E+03  3.58328E+02 -6.42488E+02 -3.04864E+02
 -1.00422E+02  6.26738E+02 -2.46864E+01  7.89259E+02  1.20252E+02 -1.88955E+01 -1.53836E+02  1.12363E+03
 -5.82517E+02  1.05313E+02 -4.61315E+02 -1.46737E+03 -1.22942E+02 -1.05700E+03  2.07476E+03 -2.94338E+02
  9.44329E+02 -8.06601E+02 -3.73745E+01 -2.74944E+02  9.01942E+01  1.17896E+03 -1.28900E+03  1.10954E+03
