 $NMID ID='MM_0lb_SNR200_8hz_g45_98.RAW', FMTDAT='(8E13.5)'
 TRAMP=1., VOLUME=1. $END
  3.10338E+05 -5.58245E+01  3.38615E+05  2.49470E+05  8.28152E+04  3.38273E+05 -1.33021E+05  2.51974E+05
 -1.91205E+05  8.38845E+04 -1.12598E+05 -3.20555E+04  8.81460E+02 -5.12504E+04  5.31197E+04 -1.38585E+03
  3.42001E+04  5.32631E+04 -1.76608E+04  7.49975E+04 -6.12934E+04  6.45106E+04 -8.42785E+04  3.18496E+04
 -8.12256E+04 -1.31878E+04 -5.84261E+04 -5.21442E+04 -1.47868E+04 -7.06365E+04  2.81184E+04 -4.63134E+04
  4.06691E+04  2.63752E+03  1.64605E+04  4.94360E+04 -3.55841E+04  4.98111E+04 -6.70541E+04  1.17984E+03
 -5.41602E+04 -5.74877E+04 -5.66889E+03 -7.84898E+04  3.45643E+04 -5.65850E+04  5.08046E+04 -1.67401E+04
  4.41498E+04  1.19023E+04  3.36927E+04  2.50510E+04  1.58629E+04  3.01047E+04 -5.72612E+03  2.64301E+04
 -2.36769E+04  1.23149E+04 -1.70024E+04 -5.80991E+03  7.93920E+03 -8.21831E+03  2.45802E+04  1.45775E+04
  5.93531E+03  3.75266E+04 -3.43889E+04  3.67139E+04 -6.56951E+04  1.76116E+03 -5.90565E+04 -4.39197E+04
 -1.42180E+04 -6.52440E+04  4.21326E+04 -4.72830E+04  6.11531E+04 -2.73312E+03  3.78462E+04  3.57250E+04
 -4.85645E+03  4.11509E+04 -3.17785E+04  1.77420E+04 -3.37822E+04 -3.57746E+03 -2.07799E+04 -1.26781E+04
 -9.26528E+03 -1.70250E+04 -1.57746E+03 -1.90297E+04  7.80217E+03 -2.32520E+04  1.70231E+04 -1.18843E+04
  8.45236E+03  5.09289E+03 -1.01550E+04  1.21487E+04 -2.22161E+04 -6.67285E+03 -9.78083E+03 -3.64149E+04
  2.53904E+04 -4.68730E+04  5.22373E+04 -2.02744E+04  4.92162E+04  2.16177E+04  1.73746E+04  4.81082E+04
 -1.68720E+04  3.66215E+04 -2.73295E+04  3.67276E+03 -1.09111E+04 -3.07172E+04  2.11228E+04 -3.67761E+04
  4.53170E+04 -1.21793E+04  4.23704E+04  2.43544E+04  2.08976E+04  5.34228E+04 -8.88941E+03  5.68283E+04
 -3.51944E+04  3.95780E+04 -4.85647E+04  9.86465E+03 -4.67956E+04 -1.84960E+04 -2.63039E+04 -4.35175E+04
  9.52154E+03 -4.14555E+04  3.52368E+04 -1.70140E+04  3.10584E+04  1.13208E+04  4.11156E+03  2.09777E+04
 -1.27739E+04  1.05168E+04 -1.06661E+04 -6.93371E+03  6.56541E+03 -1.04840E+04  2.10850E+04  5.42724E+03
  1.61123E+04  2.08477E+04 -6.93869E+03  2.79818E+04 -2.26101E+04  1.47918E+04 -3.17294E+04 -4.83240E+02
 -2.52092E+04 -1.94734E+04 -1.22469E+04 -2.62579E+04  2.26037E+03 -2.65236E+04  1.91759E+04 -2.46847E+04
  3.16199E+04 -1.29640E+04  3.77325E+04  4.44320E+03  2.61574E+04  2.69467E+04  5.41464E+03  4.32716E+04
 -1.94491E+04  3.62311E+04 -3.20275E+04  1.41337E+04 -2.42929E+04 -1.03951E+04 -5.68911E+03 -1.27688E+04
 -8.06229E+02  6.76872E+01 -9.32350E+03  9.32551E+03 -2.13709E+04  5.11771E+03 -2.08132E+04 -1.04829E+04
 -1.27874E+04 -2.39861E+04  5.67653E+03 -2.80240E+04  1.89628E+04 -1.99297E+04  2.37207E+04 -1.13231E+03
  1.47316E+04  1.70597E+04 -2.35646E+03  2.48833E+04 -1.73425E+04  1.43512E+04 -2.40726E+04 -4.05417E+03
 -1.76631E+04 -2.24138E+04 -3.78664E+03 -2.97833E+04  1.23693E+04 -2.29444E+04  2.30688E+04 -1.17967E+04
  2.37050E+04 -1.99353E+03  1.58621E+04  5.01759E+03  7.62107E+03  9.29873E+01  1.40390E+04 -3.23070E+03
  2.39144E+04  4.01378E+03  2.58743E+04  1.75517E+04  1.62140E+04  3.73322E+04 -3.28060E+03  4.74906E+04
 -2.54655E+04  3.94498E+04 -4.22113E+04  1.90091E+04 -4.81055E+04 -4.10390E+03 -3.66232E+04 -2.73146E+04
 -1.36135E+04 -3.89988E+04  1.35533E+04 -3.21824E+04  3.04204E+04 -1.48527E+04  2.40085E+04  8.02305E+03
  8.52417E+03  1.92314E+04 -1.22874E+04  1.69474E+04 -2.13385E+04  2.47755E+03 -1.49624E+04 -1.35954E+04
  1.19630E+03 -2.18891E+04  1.04985E+04 -1.36976E+04  1.44803E+04 -1.02504E+02  3.42457E+03  1.10317E+04
 -8.27357E+03  5.19714E+03 -1.00713E+04 -7.53123E+03 -2.58592E+03 -1.80204E+04  1.21916E+04 -2.09683E+04
  2.26869E+04 -9.92010E+03  2.70326E+04  2.72110E+03  2.19171E+04  1.96754E+04  1.14160E+04  3.01096E+04
 -6.44364E+03  3.30031E+04 -2.21922E+04  2.01260E+04 -2.47504E+04  3.28952E+03 -1.72475E+04 -6.65585E+03
 -6.01489E+03 -7.23112E+03 -5.90172E+01  7.88550E+02 -2.14800E+03  3.15939E+03 -6.85084E+03  5.46366E+03
 -1.35555E+04  4.48972E+01 -1.56225E+04 -1.17131E+04 -4.35092E+03 -2.01570E+04  6.93264E+03 -1.60856E+04
  1.21358E+04 -8.02813E+03  1.13216E+04  4.09232E+03  3.98428E+02  7.02661E+03 -8.93460E+03  6.62278E+02
 -9.29062E+03 -1.27189E+04 -1.36369E+03 -1.51992E+04  8.68341E+03 -1.71997E+04  1.83738E+04 -8.90319E+03
  2.40529E+04  1.97978E+03  1.87914E+04  1.57915E+04  2.88860E+03  1.99693E+04 -9.43330E+03  1.60764E+04
 -1.37156E+04  5.46988E+03 -7.24066E+03 -4.78728E+03  2.95916E+03 -3.66521E+03  8.81317E+03 -1.06031E+03
  6.74020E+03  7.14684E+03 -2.48157E+02  1.27270E+04 -7.82011E+03  1.33711E+04 -1.49086E+04  3.36782E+03
 -1.19393E+04 -7.80414E+03  6.93981E+02 -1.33505E+04  8.75414E+03 -7.34057E+03  1.09032E+04  4.21538E+03
  1.22303E+03  1.04525E+04 -8.48362E+03  1.21334E+04 -1.46213E+04  5.67145E+03 -1.50694E+04 -3.76875E+03
 -8.51441E+03 -1.74404E+04  4.21394E+03 -1.84331E+04  1.76243E+04 -1.21975E+04  1.73092E+04  3.28246E+03
  9.96342E+03  1.42107E+04 -4.99887E+01  1.73289E+04 -1.15338E+04  9.32074E+03 -1.30668E+04 -1.51915E+03
 -1.14948E+04 -1.03740E+04 -2.83265E+03 -1.34601E+04  6.39733E+03 -1.05241E+04  7.91258E+03 -3.46996E+03
  7.28069E+03  3.62625E+03 -7.74013E+02  1.51050E+03 -5.93668E+02 -1.93508E+03  2.10135E+03 -7.89362E+03
  1.25628E+04 -6.61267E+03  1.72896E+04  2.28104E+03  1.82906E+04  1.27146E+04  9.92900E+03  2.20065E+04
 -6.19486E+03  2.49810E+04 -2.40351E+04  1.79858E+04 -2.83872E+04  3.18158E+03 -2.23815E+04 -9.91405E+03
 -1.23592E+04 -1.81038E+04  3.94085E+02 -1.62206E+04  5.64184E+03 -7.87363E+03  6.71760E+03 -4.54431E+03
  2.61126E+03 -5.65728E+03  4.52399E+03 -4.34987E+03  6.61553E+03 -2.23502E+03  6.94404E+03 -1.97498E+03
  1.23358E+04  1.93668E+03  7.04272E+03  9.24188E+03 -4.01250E+03  1.18609E+04 -1.31726E+04  8.50479E+03
 -1.43378E+04  1.29794E+02 -1.05048E+04 -1.22227E+04 -2.94977E+03 -1.65172E+04  9.35395E+03 -1.69675E+04
  1.86058E+04 -7.94915E+03  2.11947E+04  3.14058E+03  1.44398E+04  1.55674E+04  3.39979E+03  1.95692E+04
 -6.15032E+03  1.43515E+04 -9.89111E+03  7.21662E+03 -7.63636E+03 -1.97565E+03 -3.92467E+03 -2.72047E+03
 -1.10103E+03 -1.34229E+03 -5.00665E+02  3.33113E+03 -6.42444E+03  1.86186E+03 -1.00975E+04 -1.59280E+03
 -9.19692E+03 -1.18606E+04  3.69702E+02 -1.64893E+04  9.99198E+03 -1.48332E+04  1.64112E+04 -2.81499E+03
  1.54642E+04  7.01682E+03  7.32202E+03  1.61036E+04 -4.44493E+03  1.66198E+04 -1.18125E+04  1.03732E+04
 -1.54086E+04 -4.32550E+02 -1.23197E+04 -1.00672E+04 -6.46116E+02 -1.31053E+04  5.64064E+03 -1.06838E+04
  1.02727E+04 -2.66327E+03  7.98569E+03  2.68514E+03  1.97567E+03  4.22759E+03 -2.15425E+01  2.68213E+03
  2.25158E+03  3.21544E+03  3.87076E+03  3.70600E+03  6.22116E+03  5.33590E+03  3.65954E+03  7.46078E+03
 -3.77088E+03  1.24989E+04 -1.03114E+04  1.27075E+04 -1.73536E+04  3.51455E+03 -1.54989E+04 -7.31436E+03
 -7.36686E+03 -1.64011E+04  3.15419E+03 -1.92661E+04  9.83886E+03 -1.13340E+04  1.27615E+04 -3.80226E+03
  1.13259E+04  6.53171E+03  2.33134E+03  9.86406E+03 -2.86749E+03  7.95116E+03 -8.54336E+03 -1.03248E+03
 -1.80225E+03 -7.51286E+03  4.61060E+03 -8.50000E+03  7.58148E+03 -4.40932E+03  7.92064E+03  8.57385E+02
  4.99230E+03  3.11812E+03  2.02635E+03  2.83677E+03 -3.02752E+03  2.68362E+03  2.09723E+03 -6.98806E+02
  2.13765E+03 -7.80786E+02  7.52666E+03  2.99318E+03  4.63228E+03  7.82107E+03 -2.41659E+03  1.10286E+04
 -7.63126E+03  7.49732E+03 -1.10338E+04  1.73661E+03 -9.24030E+03 -4.00376E+03 -5.56063E+03 -7.75647E+03
 -6.19984E+02 -7.72802E+03  5.48531E+03 -2.10552E+03  4.61368E+03  2.90531E+03 -2.40380E+03  6.29864E+03
 -7.31941E+03  2.38236E+03 -8.15599E+03 -3.72493E+03 -5.83730E+03 -8.01653E+03  8.38699E+02 -7.64605E+03
  4.99364E+03 -6.42993E+03  5.67462E+03  1.90028E+02  5.22527E+03  2.97103E+03  7.45214E+02  6.29862E+03
 -3.41236E+03 -4.51218E+02 -3.48395E+03 -3.25736E+03  8.50696E+02 -6.10076E+03  8.28026E+03 -5.20604E+03
  1.05681E+04  7.20831E+02  1.04122E+04  8.47753E+03  3.51544E+03  1.09636E+04 -4.97814E+03  9.20399E+03
 -8.59455E+03  5.11472E+03 -8.17582E+03 -7.05184E+02 -4.80637E+03 -7.45891E+03  2.24450E+03 -7.86133E+03
  7.06280E+03 -2.11234E+03  5.95058E+03  1.85288E+03  1.64435E+03  5.74806E+03 -2.67838E+03  4.79808E+03
 -3.43775E+03  3.13151E+03 -3.01923E+03  8.87215E+02 -2.64096E+01  5.30990E+02 -1.67247E+03  3.08302E+03
 -3.97621E+03  5.64601E+03 -7.80735E+03  4.76351E+03 -1.20962E+04 -1.30715E+03 -1.36334E+04 -8.24876E+03
 -6.41061E+03 -1.34760E+04  2.47551E+03 -1.60255E+04  1.23834E+04 -1.37910E+04  1.69254E+04 -6.11718E+03
  1.69223E+04  2.09819E+03  8.25871E+03  1.13246E+04  1.39452E+03  1.33180E+04 -3.75287E+03  8.70933E+03
 -5.78308E+03  2.56609E+03 -5.30376E+03 -1.51690E+03 -3.20648E+02  3.65826E+02 -1.87543E+03  9.49453E+02
 -9.71229E+02  1.10515E+03 -3.89424E+03 -2.40607E+02 -1.69304E+03 -2.16099E+03  1.14605E+03 -3.76151E+03
  5.92426E+03 -4.83657E+03  7.12576E+03 -5.70388E+02  9.02721E+03  6.38173E+03  1.10661E+03  1.24586E+04
 -5.14366E+03  1.29064E+04 -1.16174E+04  8.22289E+03 -1.63946E+04 -6.61567E+02 -1.13227E+04 -9.82045E+03
 -4.28321E+03 -1.23564E+04  4.06676E+03 -9.47564E+03  8.47541E+03 -6.20680E+03  7.20416E+03  7.86472E+01
  4.69550E+03  2.71268E+03  3.81582E+02  3.13112E+03 -2.33931E+03 -1.55164E+02 -3.73492E+02 -4.52095E+03
  3.51617E+03 -1.34227E+03  5.62493E+03  1.58369E+03  2.65749E+03  5.99308E+03  3.71182E+02  6.95875E+03
 -3.52024E+03  7.12018E+03 -8.85158E+03  6.52824E+02 -8.30365E+03 -2.61936E+03 -3.63851E+02 -9.21868E+03
  5.94491E+03 -9.45759E+03  1.03482E+04 -2.80912E+03  8.68462E+03  1.97652E+03  5.03681E+03  7.35783E+03
  2.70308E+03  6.30982E+03 -3.61166E+03  5.58099E+03 -5.88092E+03  3.63007E+03 -3.53212E+03  2.27954E+03
 -3.03227E+03  8.18428E+02 -9.36774E+02  4.76818E+02 -4.55793E+03  1.39307E+03 -7.03000E+03 -2.25405E+03
 -5.41147E+03 -3.30093E+03 -3.02789E+03 -9.45053E+03  4.02819E+03 -9.34295E+03  7.79217E+03 -5.25728E+03
  8.53001E+03  1.48473E+03  4.86728E+03  7.27065E+03 -1.98171E+03  7.81757E+03 -7.60935E+03  4.93252E+03
