 $NMID ID='MM_0lb_SNR200_12hz_g40_24.RAW', FMTDAT='(8E13.5)'
 TRAMP=1., VOLUME=1. $END
  3.09484E+05  6.90222E+02  3.37679E+05  2.51176E+05  8.49377E+04  3.38773E+05 -1.31755E+05  2.50334E+05
 -1.89555E+05  8.27401E+04 -1.11479E+05 -3.30500E+04 -1.17780E+02 -5.17255E+04  5.42443E+04  1.02308E+03
  3.54448E+04  5.33052E+04 -1.68310E+04  7.52345E+04 -5.86316E+04  6.35718E+04 -8.48414E+04  3.13453E+04
 -8.11363E+04 -1.16136E+04 -5.68680E+04 -5.12447E+04 -1.56821E+04 -6.92353E+04  2.72872E+04 -4.59698E+04
  4.07584E+04  3.98898E+03  1.61510E+04  4.72609E+04 -3.36205E+04  4.72133E+04 -6.73949E+04 -6.11806E+02
 -5.31886E+04 -5.68153E+04 -7.13349E+03 -7.77207E+04  3.46784E+04 -5.50641E+04  4.81121E+04 -1.77980E+04
  4.32880E+04  1.13978E+04  3.24325E+04  2.46929E+04  1.62715E+04  2.94786E+04 -6.21059E+03  2.71043E+04
 -2.15761E+04  1.32386E+04 -1.86038E+04 -6.28013E+03  4.86023E+03 -6.49571E+03  2.30574E+04  1.21168E+04
  7.61711E+03  3.59081E+04 -3.15406E+04  3.62472E+04 -6.32126E+04  2.55581E+03 -5.68461E+04 -4.21173E+04
 -1.25119E+04 -6.25098E+04  3.94590E+04 -4.55852E+04  5.99990E+04 -1.91491E+03  3.45753E+04  3.22670E+04
 -7.14296E+03  3.61202E+04 -2.96735E+04  1.55004E+04 -2.99720E+04 -6.29220E+03 -1.84147E+04 -1.14105E+04
 -8.59002E+03 -1.31547E+04  2.66681E+01 -1.84834E+04  7.65539E+03 -2.24464E+04  1.65868E+04 -1.36325E+04
  1.14739E+04  4.88905E+03 -8.09998E+03  1.31010E+04 -2.05105E+04 -5.01371E+03 -8.16639E+03 -3.48892E+04
  2.32899E+04 -4.38797E+04  4.83818E+04 -1.87846E+04  4.60958E+04  1.94391E+04  1.53037E+04  4.49005E+04
 -1.63164E+04  3.46043E+04 -2.58591E+04  1.68070E+03 -1.02701E+04 -2.73310E+04  2.15789E+04 -3.47226E+04
  4.17374E+04 -1.09514E+04  3.68572E+04  2.46729E+04  1.78298E+04  4.80382E+04 -8.93988E+03  5.06107E+04
 -3.22708E+04  3.47554E+04 -4.26362E+04  9.03382E+03 -4.27924E+04 -1.68097E+04 -2.41873E+04 -3.93674E+04
  6.35094E+03 -3.78941E+04  3.11972E+04 -1.45394E+04  2.98010E+04  1.14025E+04  3.49937E+03  1.92346E+04
 -1.31066E+04  7.09157E+03 -1.10681E+04 -8.00875E+03  6.21002E+03 -1.04607E+04  1.84679E+04  6.63281E+03
  1.40725E+04  2.21215E+04 -5.85165E+03  2.42972E+04 -2.25511E+04  1.22548E+04 -2.88640E+04 -4.77018E+03
 -2.11566E+04 -1.73147E+04 -9.46963E+03 -2.16763E+04  5.81076E+03 -2.11595E+04  1.66577E+04 -1.93426E+04
  2.64571E+04 -1.16297E+04  3.43842E+04  1.87324E+03  2.43142E+04  2.03596E+04  3.95587E+03  3.74884E+04
 -1.97028E+04  3.13103E+04 -2.74582E+04  1.07586E+04 -2.18570E+04 -1.06804E+04 -4.03315E+03 -1.17315E+04
  1.15625E+03 -3.14043E+03 -7.35248E+03  7.06354E+03 -1.62638E+04  4.34538E+03 -1.78212E+04 -8.61907E+03
 -8.86050E+03 -1.94733E+04  5.33359E+03 -2.41169E+04  1.67964E+04 -1.69909E+04  1.99011E+04 -1.85320E+03
  1.15279E+04  1.45715E+04 -1.05558E+03  2.01388E+04 -1.40649E+04  1.08104E+04 -2.04121E+04 -2.58564E+03
 -1.47643E+04 -1.83047E+04 -2.73251E+03 -2.35398E+04  9.83551E+03 -1.96987E+04  1.95315E+04 -1.13059E+04
  1.70943E+04 -3.37506E+02  1.29286E+04  4.41303E+03  7.30307E+03  9.90354E+02  1.10280E+04 -3.98506E+02
  1.73020E+04  1.62107E+03  2.09282E+04  1.53168E+04  1.28947E+04  3.16136E+04 -3.16648E+03  3.64725E+04
 -2.15424E+04  3.03014E+04 -3.39476E+04  1.53311E+04 -3.43117E+04 -3.68272E+03 -3.12129E+04 -2.06050E+04
 -1.22012E+04 -2.88773E+04  9.95208E+03 -2.59693E+04  2.26317E+04 -1.29920E+04  2.01881E+04  5.85482E+03
  6.91620E+03  1.58844E+04 -9.18818E+03  1.10235E+04 -1.56715E+04  9.21650E+02 -1.16563E+04 -1.15247E+04
 -2.57457E+02 -1.69216E+04  8.29258E+03 -1.18996E+04  1.14143E+04 -1.72023E+03  1.80202E+03  7.45565E+03
 -7.05355E+03  2.78778E+03 -8.43683E+03 -4.51554E+03 -4.52884E+02 -1.45451E+04  9.09424E+03 -1.53330E+04
  1.73809E+04 -8.64851E+03  1.92004E+04  3.68250E+03  1.64183E+04  1.37095E+04  7.46206E+03  2.27471E+04
 -3.91815E+03  2.44319E+04 -1.51748E+04  1.63162E+04 -1.67239E+04  2.91959E+03 -1.25442E+04 -5.49409E+03
 -4.89207E+03 -5.65838E+03  7.83799E+01  1.60374E+03 -3.20678E+03  3.74264E+03 -5.92142E+03  4.65403E+03
 -1.20509E+04 -2.07295E+03 -1.31611E+04 -9.66101E+03 -5.22631E+03 -1.64532E+04  5.25197E+03 -1.25925E+04
  1.05465E+04 -6.28572E+03  7.39604E+03  3.01952E+03 -4.59910E+02  5.22991E+03 -5.57688E+03 -6.54086E+01
 -5.43413E+03 -7.00355E+03 -1.00909E+03 -1.08599E+04  6.95965E+03 -1.33442E+04  1.55813E+04 -6.37130E+03
  1.76924E+04  1.21902E+03  1.41761E+04  1.12508E+04  2.14900E+03  1.39952E+04 -8.73833E+03  1.30614E+04
 -9.40977E+03  4.55393E+03 -5.46019E+03 -1.90550E+03  3.08639E+03 -2.95052E+03  5.91475E+03 -4.19563E+02
  6.06970E+03  5.32769E+03  1.40221E+03  9.92347E+03 -6.80868E+03  9.89207E+03 -9.86128E+03  1.94391E+03
 -7.79672E+03 -7.25933E+03  1.20973E+03 -9.56686E+03  7.41380E+03 -4.62928E+03  6.80249E+03  2.68277E+03
 -3.46519E+02  8.04432E+03 -5.06149E+03  8.06248E+03 -1.01486E+04  4.86040E+03 -1.00662E+04 -4.04590E+03
 -5.31864E+03 -1.16507E+04  3.26728E+03 -1.40875E+04  1.08052E+04 -7.94231E+03  1.35743E+04  8.86401E+02
  6.50257E+03  1.12119E+04 -7.53342E+02  1.14210E+04 -8.55605E+03  6.48257E+03 -9.37340E+03 -1.10571E+03
 -6.91695E+03 -7.99250E+03 -1.45565E+03 -8.21175E+03  4.31646E+03 -6.13158E+03  5.49962E+03 -2.99494E+03
  3.23344E+03  1.56463E+03  1.19034E+01 -3.25317E+02 -2.75253E+02 -2.35180E+03  1.43417E+03 -4.05273E+03
  7.78639E+03 -3.13671E+03  1.18807E+04  3.42002E+03  1.09813E+04  7.02393E+03  8.09819E+03  1.26443E+04
 -3.14329E+03  1.57070E+04 -1.42040E+04  1.29764E+04 -1.91722E+04  3.27452E+03 -1.43400E+04 -6.20462E+03
 -7.92052E+03 -1.25936E+04  2.08848E+02 -1.00108E+04  3.01595E+03 -4.91164E+03  2.49781E+03 -4.04478E+03
  2.83174E+03 -3.18358E+03  1.54410E+03 -2.11830E+03  4.42082E+03 -2.45683E+03  6.36558E+03 -8.28132E+02
  5.84382E+03  2.29058E+02  4.01259E+03  5.38164E+03 -2.65232E+03  7.89209E+03 -8.13561E+03  6.29423E+03
 -1.07449E+04 -1.06948E+03 -5.09116E+03 -7.39355E+03  3.74509E+01 -1.02988E+04  7.41492E+03 -1.05312E+04
  1.05467E+04 -6.79808E+03  1.29250E+04  2.21516E+03  9.90464E+03  9.25713E+03  1.63295E+03  1.15053E+04
 -4.48059E+03  9.79927E+03 -7.03402E+03  3.54054E+03 -4.79741E+03 -7.60550E+02 -1.57498E+03 -8.79649E+02
 -1.98585E+03  6.19628E+02 -2.40482E+03  1.60488E+03 -4.04469E+03  2.74587E+03 -8.28931E+03  1.13136E+03
 -4.13697E+03 -7.15105E+03  2.27791E+02 -9.88364E+03  6.41740E+03 -9.12254E+03  9.55740E+03 -2.89510E+03
  9.51826E+03  5.30752E+03  5.36855E+03  8.20184E+03 -1.74856E+03  9.03427E+03 -7.71606E+03  6.37893E+03
 -9.02414E+03  7.79768E+02 -7.95869E+03 -6.76197E+03 -1.36036E+03 -7.63957E+03  5.43694E+03 -6.94482E+03
  5.85497E+03 -1.97500E+03  2.96703E+03  5.93544E+02  2.11937E+03  3.10495E+03  1.39497E+03  6.01992E+02
  2.73384E+03  8.09499E+02  2.32826E+03  2.15264E+03  3.51962E+03  3.78304E+03  2.79386E+03  4.90806E+03
 -2.65647E+03  7.13554E+03 -6.12847E+03  6.75427E+03 -9.02386E+03  4.18622E+02 -9.79863E+03 -4.70338E+03
 -4.25836E+03 -1.03848E+04  1.20451E+03 -1.06305E+04  6.85742E+03 -6.29298E+03  7.47021E+03 -3.34954E+03
  6.46832E+03  3.19081E+03  6.39020E+02  4.58080E+03 -2.53663E+03  2.37058E+03 -4.34722E+03 -1.12114E+03
 -1.40071E+03 -3.17586E+03  2.45579E+03 -4.30259E+03  2.86517E+03 -2.64513E+03  3.77199E+03  1.34898E+03
  2.85274E+03  6.30163E+02  9.98135E+02  2.28094E+03 -3.68380E+02  1.17329E+03  1.50435E+03 -3.65139E+02
  1.93018E+03  3.51295E+02  5.70757E+03  1.01775E+03  2.10110E+03  4.35942E+03 -8.92152E+02  5.11771E+03
 -4.20324E+03  3.70947E+03 -5.58487E+03  1.05769E+03 -5.15487E+03 -1.56707E+03 -1.65770E+03 -3.28032E+03
  2.24838E+03 -2.92165E+03  2.50925E+03 -1.52527E+03  2.81191E+03  2.01325E+03 -1.41866E+03  2.60883E+03
 -5.23252E+03  2.02742E+03 -4.28273E+03 -1.59351E+03 -2.14403E+03 -4.47855E+03  8.33796E+02 -5.43362E+03
  2.51760E+03 -3.01782E+03  3.76053E+03  3.26098E+02  2.66627E+03  1.27330E+03  5.37196E+02  3.43473E+03
 -5.86518E+02  7.22202E+02 -1.68575E+03 -1.23290E+03  1.91978E+03 -3.81019E+03  4.83581E+03 -4.18651E+03
  5.36834E+03 -1.19127E+02  5.25150E+03  2.72337E+03  2.58273E+03  6.21820E+03 -1.52271E+03  5.46583E+03
 -3.55623E+03  3.21789E+03 -4.67330E+03 -2.40896E+01 -2.52789E+03 -3.68058E+03  3.20852E+02 -3.46809E+03
  4.59832E+03 -1.02624E+03  3.67846E+03  1.16094E+03  3.61710E+02  4.90828E+03 -1.10640E+03  3.52264E+03
  3.76613E+02  2.00983E+03 -5.43860E+02 -1.51336E+02 -6.35046E+02  2.11550E+03  1.63764E+02  1.26347E+03
 -1.50339E+03  1.84381E+03 -4.09027E+03  2.42986E+03 -6.40917E+03 -1.32787E+03 -6.00807E+03 -3.67282E+03
 -3.16927E+03 -6.02908E+03  1.55603E+03 -9.06067E+03  6.28101E+03 -6.29351E+03  8.93172E+03 -2.21264E+03
  7.73255E+03  1.53965E+03  3.85258E+03  4.68047E+03  8.39776E+02  5.13203E+03 -2.29874E+03  4.80110E+03
 -3.16651E+03  1.36104E+03 -1.89944E+03  2.75200E+02 -5.66460E+01 -3.49380E+02 -1.57361E+03 -9.38741E+02
 -1.40713E+03  5.18763E+02  1.89217E+02  2.84495E+02  5.41042E+01 -1.84811E+03  2.16754E+01 -2.08551E+03
  2.78934E+03 -2.44831E+03  4.18725E+03 -6.86232E+02  4.25865E+03  3.29355E+03  8.48605E+02  5.07193E+03
 -1.61194E+03  5.86386E+03 -7.67982E+03  4.36217E+03 -7.34505E+03 -6.65321E+02 -4.71343E+03 -4.06064E+03
 -2.63371E+03 -5.44747E+03  1.36887E+03 -6.35508E+03  2.18209E+03 -4.56114E+03  3.88514E+03  2.36497E+02
  3.28629E+03  2.52038E+03  5.38024E+02  2.59403E+03 -9.79861E+02  1.19848E+02  6.56108E+02 -3.12262E+02
  1.37951E+03 -1.62991E+03  1.83131E+03  3.02478E+02  7.94964E+02  1.11267E+03  8.30103E+02  2.29120E+03
 -2.63577E+03  1.91906E+03 -3.00522E+03  8.48466E+02 -1.95365E+03 -3.53843E+03 -4.36886E+02 -5.51892E+03
  2.83726E+03 -3.34647E+03  3.93716E+03 -1.09170E+03  3.17069E+03  4.07293E+02  3.05275E+03  2.80261E+03
 -2.12533E+02  2.56645E+03 -1.72867E+03  3.85608E+03 -2.45790E+03  2.53450E+03 -2.59054E+03  8.35465E+02
  7.23526E+02 -1.09634E+02 -6.04712E+02  5.63072E+02 -1.68315E+03  1.33562E+03 -3.23521E+03 -7.37357E+02
 -2.16902E+03 -2.92376E+03 -1.38519E+03 -3.36180E+03  2.19713E+03 -4.26200E+03  3.99495E+03 -2.64578E+03
  2.86279E+03  1.73633E+02  2.15083E+02  2.97631E+03 -1.67150E+03  3.29521E+03 -3.80312E+02  1.60448E+03
