 $NMID ID='MM_0lb_SNR200_18hz_g50_7.RAW', FMTDAT='(8E13.5)'
 TRAMP=1., VOLUME=1. $END
  3.09623E+05  5.75613E+02  3.37466E+05  2.50459E+05  8.48448E+04  3.36691E+05 -1.32843E+05  2.49753E+05
 -1.89304E+05  8.28510E+04 -1.10873E+05 -3.26872E+04  1.67427E+03 -5.14560E+04  5.32372E+04 -2.39659E+02
  3.49464E+04  5.30924E+04 -1.73884E+04  7.54773E+04 -6.05975E+04  6.19281E+04 -8.37828E+04  3.06755E+04
 -7.96009E+04 -1.12964E+04 -5.76178E+04 -4.99798E+04 -1.54976E+04 -6.79784E+04  2.63752E+04 -4.41543E+04
  3.89127E+04  3.88357E+03  1.76833E+04  4.70044E+04 -3.39625E+04  4.57949E+04 -6.55168E+04 -7.45566E+02
 -5.28671E+04 -5.62971E+04 -6.91566E+03 -7.66697E+04  3.25638E+04 -5.32623E+04  4.65031E+04 -1.66684E+04
  4.18110E+04  1.12500E+04  3.03899E+04  2.39852E+04  1.50201E+04  2.91155E+04 -4.41591E+03  2.60173E+04
 -2.14705E+04  1.25527E+04 -1.83738E+04 -4.51914E+03  4.96198E+03 -7.11883E+03  2.13380E+04  1.13677E+04
  7.05667E+03  3.44620E+04 -3.20155E+04  3.40592E+04 -6.22272E+04  1.96605E+03 -5.54855E+04 -4.24476E+04
 -1.14919E+04 -6.15778E+04  3.91193E+04 -4.40087E+04  5.65253E+04 -1.58318E+03  3.24734E+04  3.09705E+04
 -7.17657E+03  3.41668E+04 -2.86316E+04  1.35777E+04 -2.78254E+04 -4.78062E+03 -1.53694E+04 -9.94354E+03
 -8.21172E+03 -1.15281E+04 -1.76248E+02 -1.73245E+04  6.66567E+03 -2.34148E+04  1.48611E+04 -1.37515E+04
  1.25490E+04  4.96025E+03 -6.18292E+03  1.28936E+04 -1.96816E+04 -2.86316E+03 -7.90156E+03 -3.07963E+04
  2.12773E+04 -4.00385E+04  4.55000E+04 -1.96971E+04  4.26099E+04  1.92203E+04  1.46278E+04  4.25631E+04
 -1.54904E+04  3.13988E+04 -2.36752E+04  8.89403E+02 -8.79256E+03 -2.65889E+04  2.15160E+04 -3.22473E+04
  3.86658E+04 -6.91292E+03  3.13075E+04  2.35631E+04  1.62862E+04  4.42508E+04 -7.62936E+03  4.60979E+04
 -2.98351E+04  3.14240E+04 -3.81849E+04  8.99439E+03 -3.99853E+04 -1.45408E+04 -2.14186E+04 -3.41544E+04
  6.68652E+03 -3.54974E+04  2.87125E+04 -1.34634E+04  2.63381E+04  1.10932E+04  2.82536E+03  1.77811E+04
 -1.22215E+04  6.71252E+03 -9.02409E+03 -8.02788E+03  5.92741E+03 -1.08064E+04  1.77612E+04  6.17996E+03
  1.24769E+04  2.23196E+04 -6.39259E+03  2.35018E+04 -2.21621E+04  1.10702E+04 -2.58849E+04 -6.10584E+03
 -1.79465E+04 -1.59803E+04 -7.33846E+03 -1.83178E+04  3.30850E+03 -1.51302E+04  1.39753E+04 -1.61384E+04
  2.13694E+04 -1.14163E+04  2.94010E+04  1.02082E+03  2.19541E+04  1.69603E+04  3.51618E+03  3.30679E+04
 -1.64833E+04  2.72848E+04 -2.59520E+04  9.45631E+03 -1.89662E+04 -1.11743E+04 -4.60458E+03 -1.52151E+04
  2.02701E+03 -2.60432E+03 -2.66569E+03  5.34373E+03 -1.35013E+04  5.62334E+03 -1.38106E+04 -5.38075E+03
 -8.42662E+03 -1.50963E+04  4.35467E+03 -2.04458E+04  1.33958E+04 -1.38322E+04  1.60063E+04 -1.32340E+03
  9.08338E+03  1.23294E+04 -1.03056E+03  1.60243E+04 -1.06592E+04  9.26238E+03 -1.60122E+04 -2.81244E+03
 -1.14810E+04 -1.55587E+04 -2.71618E+03 -1.87229E+04  9.39449E+03 -1.69286E+04  1.65925E+04 -7.81119E+03
  1.49324E+04  2.70837E+02  1.07167E+04  2.54610E+03  4.79276E+03  4.04769E+02  7.81665E+03 -8.05329E+02
  1.41131E+04  3.11250E+03  1.49970E+04  1.25097E+04  9.83637E+03  2.54693E+04 -3.36318E+03  2.92328E+04
 -1.61411E+04  2.16434E+04 -2.58878E+04  9.58154E+03 -2.54642E+04 -1.17701E+03 -2.12468E+04 -1.52923E+04
 -9.27250E+03 -2.16820E+04  6.97931E+03 -1.99395E+04  1.74343E+04 -1.14669E+04  1.58312E+04  3.82021E+03
  5.29843E+03  1.14971E+04 -7.82253E+03  1.04286E+04 -1.34505E+04  2.64330E+03 -1.08317E+04 -7.23769E+03
 -4.30462E+02 -1.35061E+04  6.42037E+03 -9.54709E+03  8.92210E+03 -6.15821E+02  1.35985E+03  6.08164E+03
 -6.51791E+03  2.00922E+03 -4.29769E+03 -4.83303E+03  2.59089E+02 -1.10106E+04  8.92693E+03 -1.06685E+04
  1.31359E+04 -5.46055E+03  1.33899E+04  3.11334E+03  1.11938E+04  1.00430E+04  5.63479E+03  1.43272E+04
 -2.03142E+03  1.68029E+04 -1.01929E+04  1.07449E+04 -1.19198E+04  2.57593E+03 -8.75425E+03 -1.22301E+03
 -4.38832E+03 -3.10006E+03 -2.12161E+03  1.73376E+03 -2.19127E+03  1.68832E+03 -4.64765E+03  4.09391E+03
 -8.45174E+03 -3.99720E+02 -8.67350E+03 -8.36691E+03 -3.32269E+03 -1.20083E+04  3.89082E+03 -8.63266E+03
  7.65919E+03 -3.36558E+03  5.31666E+03  2.41304E+03  7.43915E+02  3.79222E+03 -3.01414E+03  1.31105E+03
 -3.54485E+03 -4.08622E+03 -8.14687E+02 -6.67745E+03  4.70895E+03 -8.61629E+03  1.06833E+04 -3.80330E+03
  1.18159E+04  2.33924E+02  9.56534E+03  6.03920E+03  2.42374E+03  8.69394E+03 -5.58676E+03  8.49561E+03
 -6.92364E+03  2.61848E+03 -2.62071E+03 -1.43939E+03  2.01606E+03 -3.16335E+03  4.29344E+03 -8.74904E+02
  4.50052E+03  4.75357E+03  1.29241E+03  7.25033E+03 -4.04091E+03  6.62802E+03 -8.29016E+03  1.38575E+03
 -6.00353E+03 -3.63485E+03  1.31216E+02 -6.77041E+03  4.34506E+03 -3.95350E+03  4.50940E+03  2.20315E+03
  3.87922E+02  3.53452E+03 -3.20851E+03  4.82476E+03 -4.52178E+03  1.81931E+03 -5.18274E+03 -4.41244E+02
 -2.81120E+03 -6.39779E+03  1.89972E+03 -5.82407E+03  6.44866E+03 -5.10751E+03  7.43135E+03  2.15564E+03
  4.45539E+03  5.70715E+03 -8.31463E+01  7.72638E+03 -4.60646E+03  4.53229E+03 -4.33114E+03 -2.52805E+02
 -6.48166E+03 -5.28337E+03 -1.51059E+03 -5.10824E+03  2.56050E+03 -4.81726E+03  2.11772E+03 -2.82392E+03
  2.27700E+03  2.40385E+02  2.72230E+02  2.45897E+03  4.00307E+02 -5.83476E+02  1.41734E+03 -1.47958E+03
  3.50167E+03 -1.01822E+03  5.47055E+03  1.16393E+03  5.66173E+03  3.88522E+03  4.61379E+03  7.71497E+03
 -1.13481E+03  7.28130E+03 -7.87799E+03  6.94958E+03 -9.71086E+03  1.36768E+03 -8.69730E+03 -3.17604E+03
 -4.15979E+03 -6.51778E+03 -1.13450E+03 -6.02030E+03  1.53984E+03 -1.90805E+03  2.37500E+03 -2.66841E+03
  8.62338E+02 -1.72764E+03  2.15147E+03 -2.16981E+03  3.91761E+03 -1.27966E+03  4.44113E+03  5.71707E+02
  4.55202E+03  1.47973E+03  7.85139E+02  4.12704E+03 -2.44685E+03  3.50511E+03 -4.61536E+03  2.79860E+03
 -5.52011E+03 -1.40059E+03 -1.56440E+03 -3.64728E+03 -7.45164E+02 -5.37919E+03  2.31394E+03 -5.17002E+03
  4.41331E+03 -3.38709E+03  6.87907E+03 -6.67121E+02  5.55604E+03  4.22273E+03  1.08236E+03  6.22499E+03
 -2.68199E+03  5.72145E+03 -4.09172E+03  1.16335E+03 -1.07136E+03 -1.22503E+03 -1.56015E+03 -3.32016E+02
 -1.05414E+03  8.21609E+02 -1.27798E+03  3.08455E+03 -1.89145E+03  1.04525E+03 -5.16113E+03 -9.04751E+02
 -1.51305E+03 -4.31316E+03  1.12258E+03 -4.76410E+03  2.19371E+03 -5.42819E+03  2.94541E+03 -1.10714E+03
  4.58118E+03  2.67001E+03  1.62196E+03  3.53446E+03 -3.12494E+01  5.27627E+03 -4.00821E+03  3.81535E+03
 -4.76670E+03  5.12391E+02 -4.09375E+03 -3.06250E+03 -1.20135E+03 -3.51502E+03  1.02244E+03 -2.23696E+03
  3.81782E+03 -1.36412E+03  1.81781E+03 -8.57572E+02  4.55283E+02  1.87739E+03  2.87171E+02 -3.49849E+02
  2.90915E+03  2.93998E+02  2.29966E+03  8.50158E+02  1.09861E+03  2.53020E+03  1.77950E+03  1.60904E+03
 -1.93999E+03  2.55905E+03 -2.00237E+03  4.21407E+03 -3.75601E+03  1.54395E+03 -4.19004E+03 -1.60505E+01
 -1.46673E+03 -4.17049E+03  1.23651E+03 -4.95350E+03  2.17192E+03 -1.72189E+03  3.50004E+03 -1.61654E+03
  3.31650E+03  2.80604E+03  5.92830E+02  1.99836E+03 -7.27740E+02  6.01961E+01 -1.13911E+03 -1.57845E+02
 -2.16316E+02 -1.37170E+03  6.03895E+02 -3.60206E+02  1.77443E+03 -1.43068E+02  1.17090E+03  5.82844E+02
  1.53203E+03  1.20598E+03  9.16971E+02 -6.28759E+02 -6.02943E+02  5.71407E+02  1.39286E+03  6.20008E+02
 -8.18772E+02  9.67932E+02  1.91083E+03  1.57382E+03  1.77476E+02  2.20200E+03 -1.24330E+03  3.17560E+03
 -2.12611E+03  6.65530E+02 -1.77373E+03  1.14042E+03 -2.28653E+03  4.56960E+02 -7.22105E+02 -9.42192E+02
  8.82473E+02 -1.36341E+03  1.17357E+03 -5.54880E+02  3.27988E+02  1.68181E+03 -1.90095E+03  2.42025E+03
 -1.53608E+03  8.79731E+02 -2.44245E+03 -6.26953E+02 -6.83262E+02 -1.50961E+03 -2.55996E+02 -1.64393E+03
  1.74345E+02 -4.36876E+01  5.11596E+02  8.72981E+02  1.33285E+03  6.90957E+02 -2.90311E+02  1.63185E+03
 -5.34272E+02 -2.65255E+02 -8.68096E+02 -1.33913E+03 -2.51952E+02 -1.05820E+03  1.14750E+03 -6.50273E+02
  1.71681E+03  2.00801E+02  3.26009E+03  1.64290E+03  1.79734E+03  2.02770E+03 -1.14219E+03  1.09201E+03
 -1.42841E+03 -4.75160E+02 -1.82423E+03 -6.77354E+02 -1.53061E+03 -8.22442E+02  5.08719E+02 -2.33723E+02
  9.60654E+02 -8.88825E+02  1.65021E+03 -1.01589E+02  7.79240E+02  9.70688E+02 -5.33203E+02  1.25572E+03
 -5.34687E+02  4.63855E+02  3.71107E+02 -5.48968E+02 -5.71450E+01  9.62940E+02 -1.43711E+03  3.21491E+02
 -6.64878E+02  1.41589E+03 -2.35969E+03  1.08477E+03 -1.51966E+03  5.06405E+02 -2.89619E+03 -1.19930E+03
 -4.21674E+02 -2.74181E+03  5.14946E+02 -3.60426E+03  7.47869E+02 -2.96621E+03  1.80401E+03 -1.72671E+03
  1.71796E+03  3.67003E+02  1.37775E+03  3.49633E+02 -4.59580E+02  1.61947E+03 -1.37696E+03  9.17431E+02
 -5.77162E+02  2.22765E+03 -9.38274E+01 -4.42105E+02  9.01586E+02  7.06978E+02 -1.18880E+03 -6.78517E+02
 -8.64245E+02 -2.95859E+02 -2.03367E+03  2.34501E+02  2.22761E+02 -7.12098E+02 -8.19684E+02 -8.42315E+02
  9.51261E+02 -2.66683E+03  1.05369E+03 -6.53848E+02  1.09949E+03  1.00161E+03 -9.28234E+02  1.36009E+03
 -2.10365E+03  2.42782E+03 -2.62476E+03  8.30050E+02 -1.79915E+03  1.22781E+03 -1.82461E+03 -1.78845E+03
 -1.08320E+03 -1.68227E+03  2.87475E+02 -2.19944E+03  1.40236E+03 -4.70535E+02  6.27942E+02  6.95306E+02
  1.37637E+02  9.80310E+02  8.27865E+01  4.72516E+02 -1.13451E+03  3.82116E+02  9.27277E+02  1.20975E+02
  6.05970E+02 -1.89852E+02 -6.37760E+01 -4.13157E+02 -9.12648E+02  1.45250E+03 -7.48370E+01  8.14046E+01
 -9.70392E+02  6.84181E+02 -1.48446E+03  6.35235E+02 -1.30351E+03 -5.96405E+02 -5.02359E+01 -1.79212E+03
  4.18819E+02 -1.64659E+03  1.44762E+03  2.80025E+02  1.86106E+03 -1.73064E+03 -1.54859E+02  4.48747E+02
  8.65340E+02  6.81452E+02 -7.55693E+02  2.81758E+02 -1.77038E+03  4.17300E+02 -1.01921E+02  7.00473E+01
  2.55103E+02 -3.96062E+02 -1.53052E+03 -1.00045E+01 -1.15779E+03  6.89739E+02 -6.67402E+02  3.12885E+01
 -1.50199E+03  3.67346E+01 -1.43873E+03 -7.00285E+02  7.02046E+02 -9.46841E+02  1.00601E+03 -2.22132E+02
 -6.25136E+02 -3.40968E+02  4.80326E+01  2.26115E+02  7.56645E+02  3.54796E+02 -8.96687E+01  1.06068E+03
