 $NMID ID='MM_0lb_SNR200_15hz_g55_86.RAW', FMTDAT='(8E13.5)'
 TRAMP=1., VOLUME=1. $END
  3.09847E+05  1.78133E+03  3.37322E+05  2.51037E+05  8.43181E+04  3.39285E+05 -1.32749E+05  2.51580E+05
 -1.90438E+05  8.28442E+04 -1.11801E+05 -3.24295E+04  4.74211E+02 -5.13302E+04  5.27967E+04  3.32027E+01
  3.46167E+04  5.42086E+04 -1.70579E+04  7.48032E+04 -6.05342E+04  6.44832E+04 -8.29996E+04  3.11740E+04
 -8.15340E+04 -1.12421E+04 -5.80666E+04 -5.08130E+04 -1.47590E+04 -6.96537E+04  2.73742E+04 -4.52896E+04
  4.01715E+04  3.18280E+03  1.61420E+04  4.78773E+04 -3.48436E+04  4.65259E+04 -6.63345E+04 -1.59478E+02
 -5.30780E+04 -5.62825E+04 -6.62695E+03 -7.77824E+04  3.44571E+04 -5.41755E+04  4.75705E+04 -1.64313E+04
  4.47092E+04  1.21649E+04  3.25606E+04  2.55640E+04  1.61971E+04  3.00830E+04 -5.23972E+03  2.77022E+04
 -2.14727E+04  1.30260E+04 -1.83354E+04 -4.32543E+03  6.94294E+03 -8.63075E+03  2.34191E+04  1.26061E+04
  6.80025E+03  3.53709E+04 -3.28835E+04  3.58927E+04 -6.34906E+04  1.50379E+03 -5.70131E+04 -4.25675E+04
 -1.16020E+04 -6.29129E+04  4.00923E+04 -4.54589E+04  5.80811E+04 -1.93136E+03  3.33574E+04  3.38012E+04
 -5.81565E+03  3.53528E+04 -3.13305E+04  1.60889E+04 -3.01062E+04 -5.76444E+03 -1.71660E+04 -1.10671E+04
 -8.18948E+03 -1.29311E+04 -4.83344E+02 -1.74877E+04  6.96339E+03 -2.28446E+04  1.62676E+04 -1.33032E+04
  1.15350E+04  4.24464E+03 -8.83841E+03  1.23475E+04 -2.16410E+04 -5.17316E+03 -7.79933E+03 -3.44001E+04
  2.31195E+04 -4.22870E+04  4.86125E+04 -2.01564E+04  4.42059E+04  1.96079E+04  1.68501E+04  4.43993E+04
 -1.49712E+04  3.41355E+04 -2.58400E+04  1.53228E+03 -9.89518E+03 -2.79581E+04  2.08304E+04 -3.44662E+04
  4.08776E+04 -9.40955E+03  3.67858E+04  2.34561E+04  1.85905E+04  4.70813E+04 -8.80841E+03  5.06010E+04
 -3.08703E+04  3.29062E+04 -4.19797E+04  8.68924E+03 -4.23963E+04 -1.72316E+04 -2.46042E+04 -3.86704E+04
  7.83001E+03 -3.86402E+04  3.27042E+04 -1.35326E+04  2.96909E+04  1.04338E+04  4.34110E+03  1.79631E+04
 -1.28378E+04  7.90667E+03 -9.75573E+03 -6.94155E+03  5.38188E+03 -9.51327E+03  1.79335E+04  5.92342E+03
  1.29650E+04  2.21716E+04 -6.21872E+03  2.54539E+04 -2.10467E+04  1.16574E+04 -2.87087E+04 -5.60859E+03
 -2.05740E+04 -1.85223E+04 -8.11562E+03 -2.05622E+04  4.05116E+03 -1.99616E+04  1.54809E+04 -1.86784E+04
  2.55887E+04 -1.18092E+04  3.28102E+04  2.68748E+03  2.32600E+04  1.93415E+04  4.13607E+03  3.63074E+04
 -1.75347E+04  3.05645E+04 -2.80839E+04  9.16259E+03 -2.09478E+04 -1.08207E+04 -5.63262E+03 -1.28042E+04
  2.00193E+03 -3.64384E+03 -5.60360E+03  5.34548E+03 -1.64779E+04  4.45748E+03 -1.66452E+04 -6.93566E+03
 -9.78460E+03 -1.91286E+04  5.14302E+03 -2.37884E+04  1.60391E+04 -1.69130E+04  1.87484E+04 -1.75907E+03
  1.18558E+04  1.37499E+04 -1.88698E+02  1.98009E+04 -1.27987E+04  1.11964E+04 -1.87664E+04 -4.07035E+03
 -1.43937E+04 -1.77050E+04 -1.46611E+03 -2.34533E+04  1.00708E+04 -1.75136E+04  1.99049E+04 -8.86624E+03
  1.73274E+04  2.18674E+02  1.30285E+04  4.39283E+03  6.87356E+03  8.38251E+02  9.97703E+03 -1.27238E+03
  1.68280E+04  2.52994E+03  2.01046E+04  1.61681E+04  1.28430E+04  3.05971E+04 -2.90317E+03  3.31508E+04
 -2.04510E+04  2.67119E+04 -3.05664E+04  1.32181E+04 -3.29050E+04 -2.96306E+03 -2.72943E+04 -1.89756E+04
 -1.21780E+04 -2.73731E+04  7.84459E+03 -2.42773E+04  1.99203E+04 -1.24875E+04  1.90858E+04  5.32596E+03
  7.87204E+03  1.38202E+04 -8.64720E+03  1.25965E+04 -1.62309E+04  2.21472E+03 -1.17573E+04 -9.79035E+03
  5.17577E+01 -1.48853E+04  9.23376E+03 -9.71717E+03  9.97523E+03 -1.34415E+03  3.12003E+03  6.81317E+03
 -7.34329E+03  2.55005E+03 -5.52480E+03 -5.76325E+03  2.98377E+02 -1.26908E+04  9.24783E+03 -1.46106E+04
  1.62276E+04 -7.74348E+03  1.63046E+04  2.97174E+03  1.59626E+04  1.24352E+04  7.07631E+03  1.94602E+04
 -3.17474E+03  2.19787E+04 -1.43298E+04  1.33459E+04 -1.55014E+04  2.87722E+03 -1.14465E+04 -3.99757E+03
 -4.75219E+03 -5.32160E+03 -9.23142E+02  1.69537E+03 -2.43399E+03  3.22600E+03 -4.46380E+03  3.74188E+03
 -1.09999E+04 -7.47953E+02 -1.23341E+04 -7.71138E+03 -3.26357E+03 -1.44574E+04  4.09224E+03 -1.16067E+04
  9.64250E+03 -5.67634E+03  6.41477E+03  2.38294E+03 -7.39356E+02  3.01613E+03 -4.93711E+03  8.55818E+02
 -4.11475E+03 -8.19916E+03 -9.04916E+02 -9.93675E+03  7.35151E+03 -1.03045E+04  1.30506E+04 -6.24456E+03
  1.51233E+04  2.33062E+03  1.14044E+04  8.01876E+03  2.20306E+03  1.25801E+04 -6.28204E+03  9.81772E+03
 -7.42305E+03  3.45132E+03 -4.04317E+03 -2.21172E+03  8.59767E+02 -2.03044E+03  5.64841E+03 -1.29863E+03
  5.39333E+03  4.66069E+03  3.62438E+02  8.01147E+03 -6.07477E+03  8.03202E+03 -1.01277E+04  2.96456E+03
 -6.81935E+03 -5.71465E+03  1.69700E+02 -1.02480E+04  5.39853E+03 -4.70674E+03  4.46499E+03  1.79702E+03
  5.00947E+02  5.13993E+03 -5.36070E+03  6.41718E+03 -7.12284E+03  3.64516E+03 -7.51659E+03 -3.71953E+03
 -4.31360E+03 -9.44829E+03  1.97547E+03 -1.17603E+04  8.85096E+03 -7.78064E+03  8.88340E+03  1.71657E+03
  6.16504E+03  8.59174E+03 -2.29501E+02  1.07179E+04 -6.80474E+03  4.33978E+03 -8.37392E+03 -2.01254E+03
 -6.95312E+03 -6.68719E+03 -2.14745E+03 -7.13131E+03  5.28679E+03 -6.52501E+03  4.39015E+03 -4.46275E+03
  2.18401E+03  1.82512E+03 -1.32470E+02  1.54485E+03  5.70600E+02 -1.88675E+03  1.71731E+03 -3.41816E+03
  4.54472E+03 -1.44958E+03  9.07214E+03  1.83431E+03  9.10061E+03  5.73140E+03  7.06776E+03  1.06324E+04
 -2.17595E+03  1.31788E+04 -1.20061E+04  1.06371E+04 -1.50147E+04  1.60013E+03 -1.12504E+04 -4.60726E+03
 -6.05359E+03 -9.69453E+03 -3.23498E+02 -7.73738E+03  3.54117E+03 -2.60590E+03  2.02381E+03 -4.32842E+03
  1.15897E+03 -2.56446E+03  2.38970E+03 -2.90979E+03  5.01168E+03 -1.25346E+03  5.73162E+03  2.97545E+02
  7.01256E+03  1.23227E+03  3.26879E+03  5.81325E+03 -2.29956E+03  6.08374E+03 -6.14277E+03  4.29576E+03
 -7.92836E+03 -1.20853E+03 -4.53100E+03 -5.95421E+03 -5.55444E+02 -7.91092E+03  5.60811E+03 -9.07217E+03
  8.78275E+03 -5.62633E+03  1.05258E+04  1.37835E+03  7.83805E+03  7.81013E+03  4.17972E+01  9.59867E+03
 -3.42921E+03  9.04341E+03 -5.78473E+03  2.82655E+03 -3.58435E+03 -1.83571E+03 -6.41544E+02 -8.39420E+02
 -6.97983E+02  2.93460E+02  2.20397E+01  2.37230E+03 -3.47190E+03  1.34617E+03 -5.63656E+03  7.24093E+02
 -3.24371E+03 -6.68465E+03  3.43577E+01 -7.54347E+03  4.93748E+03 -6.85475E+03  7.97430E+03 -2.87037E+03
  7.42012E+03  3.57718E+03  2.41434E+03  6.68407E+03 -2.98498E+03  6.62608E+03 -5.20938E+03  4.21155E+03
 -6.66104E+03  3.17843E+02 -4.93675E+03 -3.26183E+03 -1.66866E+03 -5.82970E+03  2.39352E+03 -3.86152E+03
  4.41649E+03 -4.41317E+02  2.28207E+03  1.01498E+03  3.10594E+01  3.14079E+03  8.29192E+02  5.01829E+02
  2.66918E+03 -2.93791E+01  2.92795E+03  2.00087E+03  2.08398E+03  2.72492E+03  9.63791E+02  3.17385E+03
 -2.09843E+03  5.07514E+03 -4.62671E+03  5.63366E+03 -6.10169E+03  2.61507E+03 -6.82564E+03 -2.06414E+03
 -4.07726E+03 -7.33943E+03  1.01084E+02 -7.74953E+03  3.59926E+03 -4.73662E+03  6.03043E+03 -1.35482E+03
  4.26780E+03  2.04495E+03  4.00264E+02  3.99207E+03 -1.69314E+03  2.00953E+03 -1.80137E+03 -6.04118E+01
 -1.72476E+03 -2.21341E+03  2.84931E+03 -2.52434E+03  1.32013E+03 -1.11580E+03  3.37989E+03  7.06786E+02
  1.27249E+03  1.80656E+03  1.58057E+03  4.96903E+02 -1.25627E+02  4.13394E+02  1.45630E+03 -1.28940E+02
  1.50574E+03 -2.47541E+02  2.93660E+03  3.91708E+02  1.20431E+03  4.08352E+03 -1.94387E+03  5.21737E+03
 -3.34447E+03  3.43600E+03 -5.13459E+03  4.34154E+02 -3.46476E+03  5.95861E+02 -1.09958E+03 -1.73783E+03
  1.28433E+03 -2.11222E+03  1.36811E+03 -3.90755E+02  9.55291E+02  2.23902E+03 -2.18877E+03  1.31124E+03
 -1.52655E+03  1.74666E+03 -2.53873E+03 -1.89992E+03 -4.84550E+02 -3.31825E+03 -1.68082E+03 -3.76592E+03
  1.74974E+03 -1.17357E+03  2.35750E+03  1.78139E+03  3.18352E+03 -9.93852E+01  4.23689E+02  1.61071E+03
 -8.49694E+02 -7.45375E+01 -2.18229E+03  5.15629E+01  4.11499E+02 -2.72585E+03  3.55845E+03 -9.38952E+02
  2.66448E+03  1.03047E+03  3.29235E+03  3.11689E+03  1.60135E+03  3.38211E+03 -1.53025E+03  4.06467E+03
 -3.49762E+03  2.49240E+03 -2.18607E+03 -8.63025E+02 -2.20133E+03 -2.82952E+03 -8.15790E+02 -1.33785E+03
  3.05937E+03 -1.07803E+03  2.12123E+03  1.57899E+03  3.13995E+02  1.55795E+03 -3.76036E+02  1.70250E+03
 -1.02676E+03  1.55608E+03 -1.55578E+03 -5.15796E+02 -6.56131E+02  1.07779E+03 -6.76872E+02  9.86195E+02
 -5.87406E+02  2.97322E+03 -3.85383E+03  1.07317E+03 -2.58342E+03 -3.33876E+02 -3.98941E+03 -1.78308E+03
 -2.78759E+03 -5.13716E+03  1.27671E+03 -5.90214E+03  3.94062E+03 -2.93540E+03  5.41851E+03 -1.69232E+03
  5.41682E+03  1.22467E+02  2.29563E+03  2.98231E+03 -2.87865E+02  2.80145E+03 -1.16650E+03  2.43160E+03
 -8.70481E+02  1.72462E+03 -1.81635E+03  2.95785E+02 -1.54915E+02  3.68375E+02 -5.13326E+02  3.23836E+02
 -1.90002E+03 -4.00110E+02 -1.62011E+03  1.06532E+02 -5.21142E+02 -1.07426E+03 -2.74570E+02 -1.74573E+03
  1.69807E+03 -1.45715E+03  1.88037E+03 -7.87239E+02  4.15697E+01  1.35290E+03 -6.11301E+02  3.74715E+03
 -2.53007E+03  4.11525E+03 -3.75943E+03  1.30157E+03 -3.62576E+03  1.92203E+02 -4.45146E+03 -1.95877E+03
 -2.39815E+03 -4.44152E+03  1.38989E+02 -3.07480E+03  1.24663E+03 -2.05473E+03  2.01394E+03  5.56693E+02
  2.30227E+03  1.27717E+03  4.84886E+02  5.82219E+02 -2.32725E+02 -9.08081E+02  5.24032E+02 -3.56033E+02
  2.57136E+02  1.22900E+02  9.70854E+02  1.22283E+03  2.23866E+02  2.52893E+03  3.95322E+02  1.96865E+03
 -1.62941E+02  2.93259E+02 -1.52554E+03 -3.71770E+02 -9.52668E+02 -1.76352E+03  4.74686E+02 -1.16805E+03
  6.89660E+02 -1.21671E+03  2.27611E+03 -7.05955E+02  2.35723E+03  1.93233E+01  1.08422E+03  1.81988E+03
  9.81764E+02  2.26322E+03 -9.43098E+02  1.82880E+03 -1.08414E+03  1.10144E+03 -1.38557E+03  4.63323E+02
 -8.31686E+02 -4.67708E+01 -1.14547E+03  3.29812E+02 -1.44665E+03  3.17857E+02 -6.41061E+02 -1.14821E+03
 -2.02862E+03 -8.83384E+02 -1.39413E+01 -1.82626E+03  1.79539E+03 -1.76737E+03  1.87975E+03 -2.07094E+03
  3.02254E+03 -9.23754E+02 -1.32683E+03  6.90509E+02  7.90146E+02  5.45187E+02 -9.45383E+02  8.01056E+02
