 $NMID ID='MM_0lb_SNR200_16hz_g50_7.RAW', FMTDAT='(8E13.5)'
 TRAMP=1., VOLUME=1. $END
  3.10008E+05 -5.51146E+02  3.37501E+05  2.50720E+05  8.42329E+04  3.38002E+05 -1.31576E+05  2.51470E+05
 -1.91110E+05  8.36567E+04 -1.11729E+05 -3.40235E+04  1.77860E+03 -5.12670E+04  5.39923E+04  8.98356E+02
  3.44046E+04  5.23011E+04 -1.67461E+04  7.58463E+04 -6.13538E+04  6.32093E+04 -8.33638E+04  3.24542E+04
 -8.06827E+04 -1.11948E+04 -5.62053E+04 -5.12747E+04 -1.53543E+04 -6.82587E+04  2.68874E+04 -4.52568E+04
  3.98375E+04  4.05418E+03  1.62309E+04  4.77677E+04 -3.38755E+04  4.79081E+04 -6.59144E+04 -6.06771E+02
 -5.34554E+04 -5.59211E+04 -6.94045E+03 -7.62605E+04  3.37271E+04 -5.53477E+04  4.73435E+04 -1.74860E+04
  4.17875E+04  1.13413E+04  3.22145E+04  2.55741E+04  1.60589E+04  2.90659E+04 -5.27542E+03  2.66641E+04
 -2.20464E+04  1.30261E+04 -1.84791E+04 -4.22681E+03  5.47779E+03 -7.19167E+03  2.20327E+04  1.26985E+04
  7.17890E+03  3.57924E+04 -3.10565E+04  3.60601E+04 -6.29741E+04  1.46148E+03 -5.67077E+04 -4.31070E+04
 -1.26650E+04 -6.21734E+04  3.93788E+04 -4.42409E+04  5.78320E+04 -9.04108E+02  3.35796E+04  3.16640E+04
 -6.07254E+03  3.43823E+04 -2.98527E+04  1.46218E+04 -2.85409E+04 -4.28677E+03 -1.45318E+04 -1.01546E+04
 -8.28240E+03 -1.17935E+04  4.20077E+02 -1.63794E+04  7.52647E+03 -2.26590E+04  1.46517E+04 -1.39949E+04
  1.27554E+04  4.40204E+03 -7.17569E+03  1.30142E+04 -2.06834E+04 -4.44543E+03 -8.06921E+03 -3.22461E+04
  2.12208E+04 -4.24792E+04  4.69915E+04 -1.81019E+04  4.39591E+04  2.02064E+04  1.55734E+04  4.37244E+04
 -1.55334E+04  3.25687E+04 -2.44438E+04  2.25993E+03 -9.60992E+03 -2.65192E+04  2.13789E+04 -3.36131E+04
  3.97930E+04 -7.45626E+03  3.46242E+04  2.36870E+04  1.73370E+04  4.50686E+04 -8.84395E+03  4.85124E+04
 -2.99191E+04  3.25255E+04 -4.02673E+04  8.47133E+03 -4.14321E+04 -1.51529E+04 -2.25940E+04 -3.66075E+04
  7.84029E+03 -3.60867E+04  3.20914E+04 -1.37198E+04  2.93904E+04  1.12040E+04  3.23790E+03  1.95490E+04
 -1.32142E+04  8.42019E+03 -9.24600E+03 -6.98613E+03  5.17563E+03 -1.00291E+04  1.70243E+04  6.10510E+03
  1.26058E+04  2.22415E+04 -7.33291E+03  2.41685E+04 -2.12156E+04  1.07610E+04 -2.71574E+04 -4.81649E+03
 -1.87812E+04 -1.61149E+04 -5.86179E+03 -1.90626E+04  3.22473E+03 -1.80442E+04  1.51969E+04 -1.66335E+04
  2.46244E+04 -1.37881E+04  3.09858E+04  1.97638E+03  2.23993E+04  1.81713E+04  4.34631E+03  3.50319E+04
 -1.75845E+04  2.99610E+04 -2.74843E+04  9.21144E+03 -2.12315E+04 -9.65618E+03 -3.51244E+03 -1.41612E+04
  3.21504E+03 -4.00267E+03 -4.28309E+03  7.23936E+03 -1.40562E+04  5.51437E+03 -1.48449E+04 -4.99545E+03
 -9.46780E+03 -1.68412E+04  5.24564E+03 -2.11480E+04  1.36499E+04 -1.48346E+04  1.62736E+04 -1.53221E+03
  1.11560E+04  1.30391E+04 -4.48057E+02  1.90380E+04 -1.19760E+04  9.36806E+03 -1.64655E+04 -2.48040E+03
 -1.32973E+04 -1.52274E+04 -8.42329E+02 -2.16152E+04  9.44510E+03 -1.76880E+04  1.77896E+04 -7.81003E+03
  1.70987E+04  6.02041E+02  1.27876E+04  3.66133E+03  5.69147E+03  1.64705E+03  8.71008E+03 -2.37596E+03
  1.46987E+04  2.04149E+03  1.72631E+04  1.37724E+04  1.14921E+04  2.79592E+04 -2.56466E+03  3.22121E+04
 -1.93759E+04  2.38757E+04 -2.86852E+04  1.22607E+04 -3.10816E+04 -3.21521E+03 -2.45375E+04 -1.65928E+04
 -1.14314E+04 -2.45344E+04  8.25647E+03 -2.24212E+04  1.97688E+04 -1.16576E+04  1.74174E+04  4.58288E+03
  8.12871E+03  1.25657E+04 -6.95818E+03  1.13755E+04 -1.36647E+04  2.17174E+03 -1.26637E+04 -9.77712E+03
 -8.52789E+02 -1.53182E+04  7.01659E+03 -1.03752E+04  9.38194E+03 -1.56671E+03  2.46134E+03  6.36054E+03
 -6.13243E+03  4.15008E+02 -4.44423E+03 -5.21661E+03  3.99579E+02 -1.22958E+04  7.99032E+03 -1.25738E+04
  1.43947E+04 -6.74054E+03  1.43034E+04  3.05052E+03  1.34105E+04  1.13434E+04  6.15051E+03  1.77237E+04
 -2.94257E+03  1.82195E+04 -1.25821E+04  1.23740E+04 -1.26017E+04  2.42749E+03 -1.10057E+04 -3.60355E+03
 -5.35669E+03 -4.13554E+03 -7.74749E+02  2.47943E+03 -2.85695E+03  2.86669E+03 -4.95644E+03  4.56291E+03
 -9.27283E+03  8.19848E+02 -8.38389E+03 -8.40506E+03 -4.04410E+03 -1.41399E+04  3.71699E+03 -1.05310E+04
  8.85328E+03 -3.90155E+03  6.06410E+03  1.31366E+03  1.23185E+03  2.62219E+03 -4.89203E+03  5.88301E+02
 -4.62551E+03 -7.02720E+03 -3.62803E+02 -9.08783E+03  6.07085E+03 -1.00348E+04  1.20215E+04 -4.20880E+03
  1.51358E+04  2.16300E+03  1.13125E+04  7.38378E+03  1.39903E+03  1.13877E+04 -5.54771E+03  9.75773E+03
 -8.39058E+03  2.92613E+03 -3.57024E+03 -1.81054E+03  1.83919E+03 -2.67495E+03  6.00350E+03 -8.82673E+02
  5.15994E+03  3.57172E+03  9.64624E+02  8.25396E+03 -5.69199E+03  7.47467E+03 -9.06704E+03  2.10535E+03
 -6.48764E+03 -4.75046E+03 -2.36158E+01 -8.08874E+03  4.08624E+03 -3.53412E+03  4.54291E+03  2.18502E+03
  4.16224E+02  4.58009E+03 -5.58886E+03  5.54025E+03 -6.48239E+03  3.53627E+03 -6.69501E+03 -2.62805E+03
 -2.90006E+03 -7.45063E+03  4.59522E+02 -9.79551E+03  7.91144E+03 -5.84561E+03  8.83762E+03  1.18098E+03
  4.35236E+03  6.20895E+03 -3.82922E+02  9.05670E+03 -7.05828E+03  4.42867E+03 -6.47459E+03 -5.24857E+02
 -6.75657E+03 -6.65777E+03 -1.16126E+03 -6.35967E+03  2.75385E+03 -5.32798E+03  3.50522E+03 -2.59759E+03
  3.86770E+03  1.54998E+03 -3.62807E+02  1.70697E+03 -6.59695E+02 -6.04126E+02  1.02025E+03 -2.35254E+03
  4.83803E+03 -1.52311E+03  6.93655E+03  1.15537E+03  8.37540E+03  5.27254E+03  7.01874E+03  9.82453E+03
 -1.29082E+03  1.27637E+04 -1.03074E+04  9.47606E+03 -1.36355E+04  1.35482E+03 -1.05078E+04 -2.66834E+03
 -4.91201E+03 -8.53402E+03  2.40294E+02 -6.94893E+03  2.17864E+03 -2.70282E+03  1.83991E+03 -3.13105E+03
  1.94201E+03 -2.20548E+03  2.25514E+03 -2.33013E+03  3.56698E+03 -1.93463E+03  3.12921E+03 -2.85184E+02
  5.04008E+03  1.62845E+03  1.43431E+03  5.51753E+03 -1.96998E+03  5.40941E+03 -5.55713E+03  3.83941E+03
 -7.07951E+03 -1.52193E+03 -2.99669E+03 -5.57049E+03 -1.93197E+03 -6.15221E+03  4.32082E+03 -7.17646E+03
  7.44426E+03 -4.71716E+03  1.03867E+04  2.60992E+02  5.53133E+03  5.74350E+03  1.04673E+03  7.52239E+03
 -4.05034E+03  7.32745E+03 -4.26606E+03  2.42452E+03 -2.24455E+03 -3.98952E+02 -8.47324E+02 -1.58913E+03
 -8.43521E+02  7.25077E+02 -1.48744E+03  2.23134E+03 -2.79283E+03  1.10419E+03 -4.11320E+03  6.77181E+00
 -2.73894E+03 -4.39534E+03  1.65731E+03 -5.51879E+03  3.89119E+03 -4.70302E+03  5.63195E+03 -1.00980E+03
  6.54024E+03  3.59507E+03  2.72134E+03  4.84139E+03 -1.82084E+03  5.35042E+03 -4.18662E+03  3.40932E+03
 -5.18807E+03  4.79135E+02 -5.41270E+03 -4.27603E+03 -1.55752E+03 -4.68681E+03  3.50184E+03 -3.91930E+03
  4.40123E+03 -1.58271E+02  3.34828E+03  5.69881E+02  7.69033E+02  2.18192E+03  1.30095E+03  1.09386E+03
  2.46589E+03 -4.02535E+01  1.53120E+03  1.34943E+03  1.21698E+03  3.49598E+03  1.67785E+03  2.33314E+03
 -1.79831E+03  4.20043E+03 -3.60227E+03  6.28237E+03 -5.42300E+03  1.50385E+02 -7.06386E+03 -1.47163E+03
 -1.93868E+03 -5.54775E+03  1.19746E+03 -6.53363E+03  3.81852E+03 -3.33884E+03  5.45574E+03 -9.81134E+02
  4.26636E+03  1.64948E+03  2.09036E+02  2.68577E+03 -1.60367E+03  1.29155E+03 -2.69199E+03 -2.94281E+02
 -1.42120E+03 -1.75900E+03  1.18993E+03 -2.62638E+03  2.25124E+03 -1.88265E+03  1.52980E+03  1.71644E+03
  2.13031E+03  8.24811E+02  1.62553E+03  6.26156E+02  8.92901E+01  1.25582E+03  1.11782E+03  1.19427E+03
 -1.24844E+02 -8.16365E+02  3.21094E+03  3.97168E+02  1.49540E+02  3.07651E+03 -6.64510E+02  4.45080E+03
 -1.27649E+03  6.11272E+02 -3.62305E+03 -4.06606E+02 -3.98074E+03 -9.66670E+02 -5.66060E+02 -1.95814E+03
  1.14275E+03 -1.74180E+03  1.54863E+03 -1.68060E+03  6.50276E+02  6.92459E+02  7.02752E+02  1.28120E+03
 -2.31278E+03  6.49178E+02 -1.84732E+03 -2.43860E+03 -1.41217E+03 -3.07836E+03  6.04687E+02 -2.56027E+03
  6.57123E+02 -1.07686E+03  2.26784E+03 -1.43950E+02  2.29255E+03 -6.36035E+02  2.90952E+02  1.39824E+02
 -1.83411E+03  1.39842E+03 -2.04161E+03  1.28281E+02  1.22572E+03 -6.93211E+02  2.73306E+03 -1.08421E+03
  3.14388E+03  1.82640E+01  3.06926E+03  1.84887E+03  1.34174E+03  2.56353E+03  3.26013E+02  3.07652E+03
 -2.71703E+03  1.36312E+03 -2.45337E+03 -5.51391E+02 -1.02657E+03 -1.50676E+03 -1.17779E+03 -2.50980E+03
  1.99369E+03 -1.50781E+03  1.08575E+03  1.32572E+03  3.36175E+01  1.50527E+03 -4.19000E+02  1.58264E+03
  3.57775E+02  9.71909E+02 -7.52797E+02  1.31259E+03  1.77091E+02  1.92817E+03 -1.14764E+03  3.35496E+02
 -1.04958E+03  1.16644E+03 -2.98361E+03  9.36124E+02 -3.52054E+03  5.24395E+02 -3.70708E+03 -1.72063E+03
 -1.77873E+03 -3.36589E+03  6.29679E+02 -3.44552E+03  1.73193E+03 -3.47108E+03  3.54916E+03 -1.57571E+03
  4.62189E+03  3.61409E+02  2.52763E+03  2.53506E+03 -9.28833E+02  1.82094E+03 -1.94295E+03  1.37960E+03
 -1.88214E+03  1.79925E+03  3.92925E+02 -6.60702E+02 -7.54701E+02  1.99097E+02  5.56877E+00 -5.77469E+02
 -1.87930E+03  1.58863E+03 -1.15449E+03  2.07655E+02  5.52740E+02 -7.71986E+02  4.20595E+02 -2.72164E+03
  1.36693E+03 -1.08358E+03  4.25453E+02  1.13672E+02  1.34369E+03  1.67172E+03  9.74200E+01  1.68860E+03
 -2.80106E+03  3.29562E+03 -2.99644E+03  1.34685E+03 -3.52363E+03  3.44822E+02 -1.38426E+03 -2.14581E+03
 -7.08570E+02 -2.94980E+03  7.46604E+02 -2.96121E+03  1.40934E+03 -1.56341E+03  9.43799E+02  5.75795E+02
  1.16245E+03 -3.04824E+02  9.31516E+02  1.36254E+03 -1.61927E+01  3.99229E+02 -5.13329E+02 -1.55916E+03
  1.63073E+02  8.91520E+02  6.20762E+02  1.10098E+03  6.35685E+02  2.12307E+02 -1.15714E+03  1.64897E+03
 -1.67038E+03  9.82319E+02 -6.73026E+02  1.25784E+03 -1.15411E+03 -1.04854E+03 -9.53825E+00 -2.62358E+03
  1.06301E+03 -3.67264E+02  3.19157E+02 -3.57811E+02  1.17141E+03  2.27003E+02  1.13686E+03  2.97586E+02
 -8.97033E+01  1.40968E+03  3.10046E+01  1.38290E+03 -2.08292E+03  9.11451E+02 -5.34463E+02  3.40590E+02
  7.98281E+02 -4.89160E+02 -8.84661E+02  1.71956E+02 -6.63880E+02  2.38891E+02 -2.03776E+03  1.58078E+02
 -3.60848E+02  1.21691E+02 -1.01704E+03 -2.80893E+03  1.61828E+02 -1.95483E+03  5.60640E+02 -1.03338E+03
  1.06936E+03  5.54127E+02 -6.95810E+02  9.26321E+02  1.59530E+02  2.01135E+03 -1.31440E+03  5.42073E+02
