 $NMID ID='MM_0lb_SNR200_8hz_g60_18.RAW', FMTDAT='(8E13.5)'
 TRAMP=1., VOLUME=1. $END
  3.09923E+05 -1.40303E+03  3.38033E+05  2.51022E+05  8.73519E+04  3.37443E+05 -1.32890E+05  2.52554E+05
 -1.91003E+05  8.48227E+04 -1.13897E+05 -3.34820E+04 -8.31017E+02 -5.09042E+04  5.40584E+04 -4.72892E+02
  3.36582E+04  5.35008E+04 -1.76463E+04  7.66203E+04 -6.22960E+04  6.48078E+04 -8.47926E+04  3.22094E+04
 -8.29681E+04 -1.14166E+04 -5.94930E+04 -5.15770E+04 -1.49591E+04 -7.11254E+04  2.68839E+04 -4.65412E+04
  4.08855E+04  5.21081E+03  1.62248E+04  4.73697E+04 -3.52161E+04  4.84920E+04 -6.89152E+04  1.52339E+02
 -5.45721E+04 -5.79383E+04 -7.40402E+03 -7.79128E+04  3.61350E+04 -5.72113E+04  5.04423E+04 -1.83736E+04
  4.62722E+04  1.25976E+04  3.35149E+04  2.65691E+04  1.58277E+04  2.99101E+04 -5.54310E+03  2.74056E+04
 -2.28232E+04  1.16359E+04 -1.74762E+04 -4.72592E+03  7.90150E+03 -6.85329E+03  2.50949E+04  1.44637E+04
  7.48465E+03  3.77909E+04 -3.31549E+04  3.86500E+04 -6.78300E+04  1.47021E+03 -5.97557E+04 -4.74658E+04
 -1.17159E+04 -6.71252E+04  4.09444E+04 -4.80063E+04  6.22604E+04 -2.39611E+03  3.85707E+04  3.52625E+04
 -5.60642E+03  4.01544E+04 -3.28636E+04  1.88370E+04 -3.60693E+04 -4.36800E+03 -2.02313E+04 -1.28127E+04
 -9.87240E+03 -1.65080E+04 -6.98527E+02 -2.04544E+04  8.42328E+03 -2.30420E+04  1.60461E+04 -1.23681E+04
  1.03399E+04  5.75889E+03 -9.98131E+03  1.41741E+04 -2.24595E+04 -7.58880E+03 -8.11975E+03 -3.98537E+04
  2.70984E+04 -4.85237E+04  5.20772E+04 -2.20525E+04  4.85328E+04  2.11085E+04  1.91446E+04  4.80804E+04
 -1.88678E+04  3.70555E+04 -2.88179E+04  2.94889E+03 -1.19748E+04 -3.12546E+04  2.17368E+04 -3.92176E+04
  4.88504E+04 -1.04174E+04  4.35888E+04  2.57457E+04  2.32236E+04  5.38020E+04 -7.52509E+03  5.74006E+04
 -3.59102E+04  4.12692E+04 -4.96652E+04  1.30589E+04 -4.87506E+04 -1.98879E+04 -2.92644E+04 -4.26626E+04
  6.70665E+03 -4.36616E+04  3.52716E+04 -1.78053E+04  3.19855E+04  1.07207E+04  5.04118E+03  2.08017E+04
 -1.40484E+04  8.98733E+03 -1.15667E+04 -7.21832E+03  4.97332E+03 -9.72992E+03  1.97103E+04  5.75164E+03
  1.50571E+04  2.48769E+04 -4.75821E+03  2.80758E+04 -2.37868E+04  1.40605E+04 -3.24574E+04 -3.64754E+03
 -2.75845E+04 -1.97344E+04 -1.30252E+04 -2.62106E+04  4.92724E+03 -2.68204E+04  2.15678E+04 -2.48521E+04
  3.40381E+04 -1.53153E+04  4.06337E+04  6.77115E+03  2.83276E+04  2.60057E+04  3.91163E+03  4.27557E+04
 -2.17407E+04  3.36278E+04 -3.05714E+04  1.17206E+04 -2.37956E+04 -9.46630E+03 -5.27196E+03 -1.23146E+04
  4.52174E+02 -6.03226E+02 -8.46543E+03  7.92539E+03 -2.23763E+04  5.10472E+03 -2.25023E+04 -1.04026E+04
 -1.02673E+04 -2.46701E+04  7.69271E+03 -3.23874E+04  1.98584E+04 -2.05066E+04  2.39155E+04 -7.67938E+02
  1.62186E+04  1.76874E+04 -2.38394E+03  2.55026E+04 -1.83985E+04  1.13376E+04 -2.57412E+04 -3.63810E+03
 -1.74329E+04 -2.20669E+04 -1.37260E+03 -3.11840E+04  1.24286E+04 -2.58842E+04  2.51892E+04 -1.55875E+04
  2.35075E+04  1.44136E+01  1.79648E+04  5.40177E+03  1.04712E+04  1.06404E+03  1.21877E+04 -1.07641E+03
  2.54365E+04  4.40776E+03  2.76516E+04  1.95042E+04  2.01489E+04  3.96629E+04 -4.25349E+03  4.82673E+04
 -2.63836E+04  4.06423E+04 -4.57957E+04  2.06870E+04 -4.98810E+04 -3.82024E+03 -4.09104E+04 -2.93844E+04
 -1.56163E+04 -4.08156E+04  1.48038E+04 -3.61878E+04  3.25746E+04 -1.61303E+04  2.98547E+04  6.55949E+03
  9.63272E+03  2.15188E+04 -1.18236E+04  1.64651E+04 -2.18683E+04  4.46183E+03 -1.64340E+04 -1.38193E+04
 -1.95119E+03 -2.11686E+04  1.22851E+04 -1.58945E+04  1.47328E+04 -1.55593E+03  3.42817E+03  9.11888E+03
 -1.14245E+04  4.68450E+03 -1.06589E+04 -9.29821E+03 -1.64783E+03 -1.97735E+04  1.28659E+04 -2.22179E+04
  2.53795E+04 -1.12672E+04  2.80110E+04  2.86010E+03  2.45790E+04  1.89043E+04  1.25620E+04  3.29232E+04
 -6.62681E+03  3.37679E+04 -2.41557E+04  2.20044E+04 -2.64229E+04  6.56823E+03 -1.70485E+04 -7.69109E+03
 -6.82247E+03 -8.36592E+03 -1.85064E+03 -7.66768E+02 -3.47203E+03  3.46386E+03 -8.32288E+03  6.73053E+03
 -1.54703E+04 -1.82780E+03 -1.56485E+04 -1.25832E+04 -6.80489E+03 -2.15926E+04  8.54370E+03 -1.71550E+04
  1.57736E+04 -7.99093E+03  1.16595E+04  4.69176E+03 -1.20616E+03  6.52391E+03 -7.63199E+03  6.55116E+02
 -9.36213E+03 -1.14612E+04 -1.30413E+03 -1.85573E+04  1.05600E+04 -1.91651E+04  2.29700E+04 -9.09107E+03
  2.62211E+04  3.35112E+03  2.27719E+04  1.56291E+04  2.88590E+03  2.17441E+04 -9.97995E+03  1.85571E+04
 -1.22007E+04  5.55951E+03 -7.68902E+03 -4.18064E+03  2.64945E+03 -3.56890E+03  8.66059E+03 -4.52600E+02
  9.95862E+03  7.90559E+03  3.93971E+02  1.54320E+04 -1.18595E+04  1.40656E+04 -1.84206E+04  2.26561E+03
 -1.13526E+04 -8.67839E+03  7.10227E+02 -1.49457E+04  9.60760E+03 -7.81549E+03  1.22417E+04  6.10136E+03
  2.76788E+03  1.20900E+04 -9.59904E+03  1.32440E+04 -1.59993E+04  6.16152E+03 -1.79531E+04 -4.81903E+03
 -1.05731E+04 -1.85104E+04  2.84275E+03 -1.93792E+04  1.80278E+04 -1.25101E+04  1.95974E+04  5.05929E+03
  9.87036E+03  1.50705E+04 -1.05604E+03  1.81948E+04 -1.32054E+04  1.10274E+04 -1.57087E+04 -1.20561E+03
 -9.89244E+03 -1.21680E+04 -2.08979E+03 -1.55748E+04  6.82676E+03 -1.13550E+04  9.28453E+03 -3.63656E+03
  4.02601E+03  2.94562E+03 -3.54563E+02  1.88921E+03 -2.11209E+03 -1.40119E+03  3.37575E+03 -7.76996E+03
  1.50500E+04 -5.36424E+03  1.84910E+04  3.96565E+02  1.87836E+04  1.23002E+04  1.27739E+04  2.59594E+04
 -6.63435E+03  2.89246E+04 -2.28561E+04  2.02703E+04 -2.91138E+04  3.99881E+03 -2.46780E+04 -1.08763E+04
 -1.06090E+04 -2.07232E+04 -7.28318E+02 -1.56267E+04  6.44794E+03 -9.54168E+03  6.07624E+03 -5.37463E+03
  5.41347E+03 -3.70902E+03  4.02979E+03 -4.23416E+03  6.82668E+03 -4.07695E+03  8.66597E+03 -6.38375E+02
  1.25809E+04  3.11299E+03  7.55126E+03  1.15740E+04 -2.75501E+03  1.30077E+04 -1.42932E+04  9.41312E+03
 -1.88528E+04 -1.08371E+03 -1.05066E+04 -1.37079E+04 -3.04920E+02 -1.83606E+04  1.04753E+04 -1.98202E+04
  1.81644E+04 -1.18331E+04  2.40922E+04  3.75725E+03  1.54534E+04  1.73167E+04  3.11172E+03  2.18182E+04
 -9.07604E+03  1.78469E+04 -1.20049E+04  6.82820E+03 -6.61974E+03 -6.10730E+02 -2.97369E+03 -3.97371E+03
 -6.06946E+02 -9.83201E+01 -3.86201E+03  3.02142E+03 -8.28613E+03  2.69786E+03 -1.33396E+04 -2.24940E+03
 -9.02284E+03 -1.06217E+04  5.53541E+02 -1.69628E+04  1.18278E+04 -1.79949E+04  2.03211E+04 -3.57386E+03
  1.80080E+04  1.13118E+04  7.81229E+03  1.67620E+04 -4.12189E+03  1.73420E+04 -1.37487E+04  1.15749E+04
 -1.57134E+04  4.91354E+02 -1.56526E+04 -9.71160E+03 -3.36778E+02 -1.59650E+04  8.70682E+03 -1.04300E+04
  1.16312E+04 -4.07490E+03  9.15201E+03  2.50102E+03  2.53677E+03  4.98033E+03  2.44468E+03  2.04506E+03
  4.16968E+03  8.41866E+01  4.56533E+03  3.75241E+02  4.57205E+03  4.29378E+03  4.45099E+03  9.75466E+03
 -3.25762E+03  1.54301E+04 -1.28888E+04  1.34375E+04 -1.80323E+04  3.86590E+03 -1.94715E+04 -8.80800E+03
 -9.73268E+03 -1.76025E+04  3.23251E+03 -1.95916E+04  1.09165E+04 -1.37636E+04  1.52222E+04 -3.18999E+03
  1.13019E+04  5.59210E+03  7.96040E+01  1.08979E+04 -4.47065E+03  6.75598E+03 -7.77796E+03  2.34690E+02
 -3.77972E+03 -7.46532E+03  4.64725E+03 -8.33066E+03  9.10669E+03 -5.10654E+03  8.05456E+03  2.72927E+03
  5.58008E+03  3.20916E+03  1.15064E+03  3.15417E+03 -4.14405E+02  2.29990E+03  6.70038E+02 -6.20417E+02
  1.76573E+03 -4.78037E+02  7.33332E+03  2.77710E+03  3.76172E+03  1.03108E+04 -2.00297E+03  1.39240E+04
 -8.94721E+03  9.11877E+03 -1.03195E+04  2.45694E+03 -1.02920E+04 -2.88240E+03 -3.29307E+03 -7.57781E+03
  1.50331E+03 -7.56691E+03  3.51706E+03 -3.63173E+03  3.34968E+03  5.14834E+03 -2.61051E+02  6.09648E+03
 -7.96679E+03  3.32079E+03 -8.31541E+03 -5.23930E+03 -7.50107E+03 -8.36891E+03  1.03047E+03 -1.09550E+04
  5.57788E+03 -6.42216E+03  8.37565E+03 -5.53665E+02  5.32276E+03  3.85664E+03  9.15570E+02  5.75000E+03
 -3.81693E+03  1.14408E+03 -2.97182E+03 -5.30771E+03  2.10817E+03 -9.38033E+03  8.80220E+03 -7.05906E+03
  1.36372E+04  2.01563E+03  9.45295E+03  9.67566E+03  4.76181E+03  1.33325E+04 -4.30561E+03  1.31277E+04
 -1.05917E+04  5.03489E+03 -1.27431E+04 -3.52333E+03 -7.13610E+03 -8.91589E+03  1.95864E+03 -8.24385E+03
  7.81450E+03 -5.85929E+03  6.82562E+03  4.16665E+03  3.72873E+03  6.30988E+03 -1.03727E+03  5.71661E+03
 -3.33853E+03  3.85441E+03 -1.88159E+03  1.24540E+03 -2.57687E+03  1.28893E+03 -9.59322E+02  3.43112E+03
 -1.99222E+03  4.88487E+03 -7.50974E+03  3.51773E+03 -1.27707E+04  1.92441E+03 -1.56327E+04 -1.01571E+04
 -8.06597E+03 -1.82774E+04  4.06411E+03 -1.94795E+04  1.32322E+04 -1.34103E+04  1.83004E+04 -6.90130E+03
  1.76337E+04  3.35188E+03  1.09957E+04  1.27162E+04  2.78946E+03  1.15986E+04 -5.05480E+03  9.20167E+03
 -6.50886E+03  4.40334E+03 -5.80703E+03 -1.05185E+03  5.36750E+01 -1.46802E+03 -1.75772E+03  3.06647E+02
 -9.49128E+02  2.96632E+01 -3.65822E+03  5.61520E+02 -9.20386E+02 -4.39824E+03  7.85141E+02 -5.44615E+03
  4.84595E+03 -2.73716E+03  8.23681E+03  4.13471E+00  9.39519E+03  7.64250E+03  1.60992E+03  1.37261E+04
 -5.77687E+03  1.43772E+04 -1.41727E+04  7.88787E+03 -1.71534E+04 -8.91526E+02 -1.26932E+04 -8.21690E+03
 -6.61797E+03 -1.27919E+04  3.45663E+03 -1.22641E+04  7.73823E+03 -7.11768E+03  7.92608E+03  2.76523E+02
  4.92354E+03  4.80861E+03  9.79590E+02  3.67570E+03 -3.11152E+03 -3.71672E+02 -1.29673E+03 -3.94586E+03
  4.72696E+03 -3.49536E+03  5.30285E+03  1.73809E+03  3.94397E+03  4.19745E+03 -1.95146E+03  7.97918E+03
 -6.54895E+03  7.22635E+03 -8.20810E+03  3.42770E+03 -8.00700E+03 -8.02975E+03 -1.60121E+03 -1.03863E+04
  5.32552E+03 -9.10352E+03  1.15354E+04 -2.61185E+03  8.74149E+03  2.23017E+03  5.80098E+03  7.75371E+03
  1.52909E+03  9.60225E+03 -3.92739E+03  7.30822E+03 -5.78356E+03  2.94119E+03 -4.58964E+03  6.43788E+02
 -2.36266E+03 -7.75952E+02 -1.67337E+03  8.77342E+02 -5.07190E+03  2.22324E+03 -6.71116E+03  1.00846E+03
 -7.42729E+03 -5.70087E+03 -2.38030E+03 -1.01362E+04  3.15651E+03 -1.06420E+04  8.41395E+03 -5.35500E+03
  8.81048E+03  1.20822E+03  5.30173E+03  7.16186E+03 -1.08063E+02  7.82023E+03 -5.56678E+03  5.20629E+03
