 $NMID ID='MM_0lb_SNR200_10hz_g45_83.RAW', FMTDAT='(8E13.5)'
 TRAMP=1., VOLUME=1. $END
  3.09626E+05  1.81176E+03  3.37095E+05  2.50651E+05  8.51953E+04  3.38967E+05 -1.32855E+05  2.51847E+05
 -1.89378E+05  8.42952E+04 -1.12653E+05 -3.28642E+04  8.48195E+02 -4.92669E+04  5.53648E+04 -1.11519E+02
  3.46843E+04  5.33805E+04 -1.75977E+04  7.53697E+04 -6.24129E+04  6.48929E+04 -8.57680E+04  3.30941E+04
 -8.33324E+04 -1.25458E+04 -5.70777E+04 -5.31040E+04 -1.36158E+04 -6.94181E+04  2.84445E+04 -4.53293E+04
  4.00384E+04  4.85411E+03  1.71409E+04  4.88136E+04 -3.52482E+04  4.66275E+04 -6.72669E+04  3.36504E+02
 -5.50973E+04 -5.77072E+04 -6.63610E+03 -7.71865E+04  3.46392E+04 -5.60199E+04  4.97243E+04 -1.67910E+04
  4.44613E+04  1.24786E+04  3.21303E+04  2.75745E+04  1.60484E+04  3.02341E+04 -6.54700E+03  2.68994E+04
 -2.37913E+04  1.01466E+04 -1.82643E+04 -6.22674E+03  8.23315E+03 -7.74110E+03  2.14759E+04  1.37404E+04
  6.38589E+03  3.70926E+04 -3.38075E+04  3.53356E+04 -6.40253E+04  1.00001E+02 -5.86429E+04 -4.44260E+04
 -1.17604E+04 -6.48601E+04  3.97056E+04 -4.71402E+04  5.92110E+04 -7.64713E+02  3.65164E+04  3.41614E+04
 -4.95801E+03  3.87930E+04 -3.02070E+04  1.83613E+04 -3.20448E+04 -3.57006E+03 -1.78452E+04 -1.15172E+04
 -8.11105E+03 -1.37080E+04  4.52174E+02 -1.93069E+04  7.78111E+03 -2.25898E+04  1.62564E+04 -1.19130E+04
  9.66714E+03  5.07510E+03 -1.04255E+04  1.37759E+04 -2.35300E+04 -5.66708E+03 -9.02194E+03 -3.68547E+04
  2.40115E+04 -4.40836E+04  5.06000E+04 -1.82245E+04  4.70770E+04  2.11889E+04  1.68872E+04  4.68658E+04
 -1.70148E+04  3.49309E+04 -2.69627E+04  2.81952E+03 -1.12508E+04 -2.89061E+04  2.21558E+04 -3.53368E+04
  4.35574E+04 -1.03125E+04  4.04316E+04  2.27587E+04  2.00138E+04  4.85584E+04 -8.02129E+03  5.41797E+04
 -3.39465E+04  3.83344E+04 -4.56146E+04  1.03619E+04 -4.49274E+04 -1.73432E+04 -2.53884E+04 -4.13714E+04
  7.68911E+03 -4.10451E+04  3.31584E+04 -1.60066E+04  3.13207E+04  1.20418E+04  5.31627E+03  2.08240E+04
 -1.41065E+04  1.04629E+04 -1.11731E+04 -8.67524E+03  6.82830E+03 -1.07295E+04  1.93168E+04  4.76513E+03
  1.56517E+04  2.32883E+04 -6.97736E+03  2.73836E+04 -2.16852E+04  1.24797E+04 -3.06455E+04 -3.62162E+03
 -2.36185E+04 -1.93163E+04 -1.05228E+04 -2.33551E+04  4.16157E+03 -2.37676E+04  1.85318E+04 -2.19767E+04
  3.06334E+04 -1.20348E+04  3.61084E+04  4.62934E+03  2.54528E+04  2.34361E+04  5.31888E+03  3.97491E+04
 -1.90153E+04  3.40923E+04 -3.08980E+04  1.31803E+04 -2.19659E+04 -9.68961E+03 -4.74811E+03 -1.37763E+04
  1.39618E+03 -7.76734E+02 -5.70538E+03  6.82894E+03 -1.94514E+04  5.37487E+03 -1.88750E+04 -7.98745E+03
 -9.53963E+03 -2.17131E+04  6.10254E+03 -2.56612E+04  1.78107E+04 -1.90524E+04  2.11289E+04 -1.66125E+03
  1.34265E+04  1.74848E+04 -2.25740E+03  2.16412E+04 -1.65799E+04  1.26627E+04 -1.97928E+04 -3.29457E+03
 -1.65068E+04 -2.06690E+04 -9.74437E+02 -2.54608E+04  1.16615E+04 -2.16390E+04  2.27936E+04 -1.01109E+04
  2.05739E+04 -1.96477E+03  1.50807E+04  4.91871E+03  8.08713E+03  2.35078E+03  1.19458E+04 -1.90389E+03
  2.08425E+04  3.57330E+03  2.33118E+04  1.84496E+04  1.64630E+04  3.66259E+04 -1.42057E+03  4.12325E+04
 -2.28972E+04  3.45344E+04 -3.82599E+04  1.72331E+04 -4.04917E+04 -2.87224E+03 -3.47130E+04 -2.48244E+04
 -1.27173E+04 -3.33292E+04  1.24754E+04 -2.96115E+04  2.46811E+04 -1.51630E+04  2.09114E+04  7.42899E+03
  7.10651E+03  1.76731E+04 -1.04694E+04  1.57471E+04 -1.84826E+04  2.26414E+03 -1.34980E+04 -1.25766E+04
 -1.20930E+03 -1.88331E+04  8.28474E+03 -1.20836E+04  1.26169E+04 -1.12432E+03  3.59793E+03  8.68112E+03
 -8.73373E+03  3.15584E+03 -9.23837E+03 -5.78735E+03 -2.27410E+03 -1.57877E+04  1.11586E+04 -1.95022E+04
  2.07415E+04 -1.07729E+04  2.42599E+04  1.17644E+03  1.93677E+04  1.66245E+04  1.01056E+04  2.67289E+04
 -4.37928E+03  2.78989E+04 -1.91190E+04  1.74593E+04 -2.08511E+04  2.82543E+03 -1.37107E+04 -4.38766E+03
 -6.71371E+03 -6.34031E+03 -2.50626E+02  4.21612E+02 -2.85001E+03  2.18018E+03 -5.01906E+03  5.81222E+03
 -1.35258E+04 -2.03146E+03 -1.27904E+04 -9.70469E+03 -5.53606E+03 -1.69657E+04  5.12316E+03 -1.43225E+04
  1.12991E+04 -6.21442E+03  8.93297E+03  3.16889E+03 -4.52513E+02  7.40504E+03 -7.82431E+03 -5.36936E+02
 -6.80932E+03 -9.08677E+03  5.32879E+01 -1.37710E+04  8.54363E+03 -1.42722E+04  1.92530E+04 -8.49914E+03
  2.21090E+04  1.27136E+03  1.72028E+04  1.15508E+04  3.11014E+03  1.72274E+04 -7.86440E+03  1.50852E+04
 -1.19962E+04  3.70095E+03 -6.09058E+03 -2.76890E+03  2.06103E+03 -3.69565E+03  6.61913E+03 -3.63985E+02
  6.01600E+03  5.58455E+03  1.42822E+03  9.63489E+03 -7.99917E+03  9.95125E+03 -1.27898E+04  2.60893E+03
 -1.02820E+04 -7.27137E+03  4.04713E+00 -1.37361E+04  9.31133E+03 -6.45343E+03  6.29096E+03  2.90244E+03
  1.52012E+03  7.86892E+03 -7.77465E+03  1.04077E+04 -1.28124E+04  5.42003E+03 -1.26138E+04 -4.32786E+03
 -7.69618E+03 -1.40944E+04  3.24260E+03 -1.75522E+04  1.25249E+04 -1.03779E+04  1.51775E+04  3.59875E+03
  9.44960E+03  1.21703E+04 -7.42117E+02  1.39526E+04 -1.03300E+04  8.40289E+03 -1.24410E+04 -1.39281E+03
 -1.09255E+04 -8.58312E+03 -1.18765E+03 -1.11208E+04  6.04430E+03 -9.95076E+03  5.87911E+03 -3.81658E+03
  5.10218E+03  1.81606E+03 -1.96254E+03  7.67657E+02 -8.39039E+02 -3.24585E+03  1.67565E+03 -6.17301E+03
  9.90600E+03 -3.22438E+03  1.56897E+04  1.67387E+03  1.26527E+04  8.78651E+03  8.32788E+03  1.78332E+04
 -4.53411E+03  2.32585E+04 -1.67583E+04  1.76104E+04 -2.16068E+04  2.77461E+03 -1.74463E+04 -5.85179E+03
 -8.24129E+03 -1.40059E+04 -3.69946E+02 -1.35163E+04  4.69843E+03 -6.79855E+03  5.15955E+03 -5.31446E+03
  3.74992E+03 -2.88355E+03  4.37976E+03 -4.41536E+03  5.38091E+03 -3.97793E+03  7.88550E+03 -1.12771E+03
  9.92421E+03  3.56296E+03  5.95220E+03  8.61163E+03 -1.90303E+03  8.83770E+03 -1.03049E+04  6.50579E+03
 -1.32915E+04 -3.29209E+03 -8.75233E+03 -8.83348E+03  1.09798E+03 -1.45695E+04  7.53607E+03 -1.37422E+04
  1.58376E+04 -6.45926E+03  1.71324E+04  5.60014E+02  1.22098E+04  1.17970E+04  2.59539E+03  1.55338E+04
 -5.81981E+03  1.22291E+04 -7.64186E+03  3.31749E+03 -6.72480E+03 -1.14609E+03 -2.47067E+03 -2.27376E+03
 -1.53546E+03 -5.85443E+01 -8.59841E+02  2.61335E+03 -4.69353E+03  1.72736E+03 -8.19884E+03 -1.99636E+03
 -6.24928E+03 -9.06452E+03 -1.37355E+03 -1.26577E+04  6.47564E+03 -1.09872E+04  1.17454E+04 -5.53327E+03
  1.18650E+04  6.28259E+03  6.39370E+03  1.11574E+04 -1.92285E+03  1.33359E+04 -1.00317E+04  8.19833E+03
 -1.17544E+04  8.01510E+02 -9.09887E+03 -7.78631E+03 -1.06194E+03 -9.43638E+03  5.36574E+03 -7.49047E+03
  8.90456E+03 -2.17260E+03  5.49635E+03  2.97070E+03  1.21374E+03  3.31869E+03  1.86614E+02  3.06046E+03
  2.10998E+03  3.34625E+01  3.55825E+03  2.47923E+03  3.82935E+03  3.58623E+03  4.52063E+03  6.57413E+03
 -2.39679E+03  9.53600E+03 -9.56343E+03  9.95322E+03 -1.10759E+04  2.99159E+03 -1.39650E+04 -5.30379E+03
 -4.94856E+03 -1.46517E+04  3.50440E+03 -1.37685E+04  6.77988E+03 -9.69138E+03  1.06517E+04 -1.89918E+03
  8.47930E+03  4.05818E+03  1.37769E+03  7.97597E+03 -3.29391E+03  3.44650E+03 -5.02714E+03 -6.16479E+02
 -2.42837E+03 -4.32742E+03  3.64573E+03 -6.30207E+03  5.02196E+03 -2.65271E+03  6.08217E+03  1.00844E+03
  2.76517E+03  3.32106E+03  8.26118E+02  2.21892E+03 -2.95238E+01  2.09940E+03  4.95118E+02 -9.55004E+01
  2.92388E+03 -2.57028E+03  6.33197E+03  2.44872E+03  2.43406E+03  7.57610E+03 -2.04052E+03  8.14396E+03
 -4.42853E+03  5.63634E+03 -5.50499E+03  1.69926E+02 -7.22813E+03 -2.61750E+03 -2.17492E+03 -5.34353E+03
  5.97488E+02 -6.94754E+03  1.68661E+03 -2.48263E+03  2.50496E+03  2.25512E+03 -1.58878E+03  3.68071E+03
 -5.43550E+03  2.86802E+03 -5.47923E+03 -1.89441E+03 -4.10480E+03 -5.39306E+03  1.37710E+03 -7.17582E+03
  4.06100E+03 -3.07585E+03  5.84078E+03 -1.35111E+02  4.90454E+03  1.29797E+03  1.21189E+03  1.50036E+03
 -1.70377E+03 -4.53159E+02 -2.02229E+03 -1.76344E+03  1.49460E+03 -4.74875E+03  4.65359E+03 -5.12365E+03
  7.51520E+03  7.97056E+02  7.85549E+03  6.63256E+03  2.41638E+03  8.29208E+03 -3.88257E+03  8.45155E+03
 -4.61250E+03  2.61833E+03 -6.81980E+03 -1.05448E+03 -3.37740E+03 -4.99441E+03  2.18481E+03 -4.78207E+03
  5.66722E+03 -2.68217E+03  5.24842E+03  2.18575E+03  2.17909E+03  4.44459E+03 -6.25626E+02  5.30453E+03
 -2.26363E+03  1.70437E+03 -1.88381E+03  1.99417E+03 -2.01512E+02  1.47969E+03 -1.47567E+03  1.24860E+03
 -2.57229E+03  1.48912E+03 -7.24747E+03  1.87227E+03 -7.56381E+03  2.66857E+01 -8.69519E+03 -5.79261E+03
 -4.05081E+03 -1.17267E+04  1.51828E+03 -1.17014E+04  8.64965E+03 -1.07185E+04  1.23499E+04 -5.35867E+03
  1.05778E+04  2.52187E+03  5.79035E+03  6.95312E+03 -6.86272E+02  7.90353E+03 -2.20928E+03  6.79730E+03
 -5.32433E+03  1.73553E+03 -2.85911E+03 -1.76495E+03 -1.42667E+03 -1.10776E+03 -1.28542E+03  4.09019E+02
 -1.93374E+03  7.24282E+02 -3.61738E+03 -1.48328E+02 -1.99978E+03 -1.87152E+03  1.34252E+02 -2.30819E+03
  5.35736E+03 -1.27721E+03  4.77498E+03 -1.90002E+02  5.59329E+03  4.63871E+03  3.42204E+03  7.66649E+03
 -4.56992E+03  9.11803E+03 -8.35322E+03  5.97581E+03 -1.17444E+04 -1.02007E+03 -7.86230E+03 -7.11769E+03
 -2.32786E+03 -7.94155E+03  2.23893E+03 -6.94048E+03  5.05215E+03 -4.00310E+03  6.47660E+03 -8.66341E+02
  3.06672E+03  3.48574E+03 -1.00350E+03  3.23595E+03 -8.80216E+02  5.42696E+02  3.58994E+01 -2.00546E+03
  1.79003E+03 -8.74076E+02  3.61007E+03  4.98540E+02  2.29556E+03  3.00431E+03  7.48713E+01  4.73887E+03
 -3.75688E+03  3.92565E+03 -5.49695E+03  4.08874E+02 -5.01293E+03 -4.58250E+03  4.82451E+01 -7.36536E+03
  3.92246E+03 -6.48773E+03  6.87465E+03 -1.47099E+03  6.22975E+03  1.07576E+03  3.59513E+03  5.89386E+03
  7.60718E+02  5.07707E+03 -2.15194E+03  5.80567E+03 -3.25439E+03  3.06538E+03 -2.53553E+03 -1.00683E+03
 -2.21125E+03  7.19418E+02 -2.77104E+03  4.05136E+02 -2.83416E+03  1.00231E+03 -5.17063E+03 -1.53179E+03
 -4.31888E+03 -3.65685E+03 -3.25860E+02 -5.74505E+03  1.55057E+03 -5.53661E+03  2.15322E+03 -3.44644E+03
  6.53369E+03  1.72693E+03  3.50721E+03  3.12361E+03  1.50927E+03  5.43226E+03 -4.73330E+03  3.34596E+03
