 $NMID ID='MM_0lb_SNR200_9hz_g50_48.RAW', FMTDAT='(8E13.5)'
 TRAMP=1., VOLUME=1. $END
  3.10794E+05  1.28057E+03  3.39141E+05  2.50225E+05  8.52414E+04  3.38607E+05 -1.33238E+05  2.51722E+05
 -1.91344E+05  8.61075E+04 -1.13185E+05 -3.43348E+04  3.84557E+02 -4.88540E+04  5.37339E+04 -4.70547E+02
  3.56632E+04  5.31515E+04 -1.62213E+04  7.45911E+04 -6.20274E+04  6.40424E+04 -8.50129E+04  3.24227E+04
 -8.10592E+04 -1.20757E+04 -5.84376E+04 -5.21641E+04 -1.50758E+04 -6.91061E+04  2.81352E+04 -4.56750E+04
  4.02904E+04  2.87607E+03  1.58798E+04  4.69752E+04 -3.56892E+04  4.90220E+04 -6.84393E+04  9.45917E+02
 -5.63047E+04 -5.72900E+04 -8.43479E+03 -7.94272E+04  3.62292E+04 -5.67203E+04  5.00365E+04 -1.78513E+04
  4.46736E+04  1.22185E+04  3.30593E+04  2.77014E+04  1.66406E+04  3.15440E+04 -4.90033E+03  2.89800E+04
 -2.36734E+04  1.19236E+04 -1.88609E+04 -5.00466E+03  6.73851E+03 -6.95531E+03  2.35556E+04  1.35863E+04
  7.81124E+03  3.64963E+04 -3.28148E+04  3.66581E+04 -6.59582E+04  1.41739E+03 -6.02059E+04 -4.53153E+04
 -1.44181E+04 -6.58958E+04  4.22668E+04 -4.90025E+04  6.07967E+04 -7.46263E+02  3.70420E+04  3.35320E+04
 -5.51243E+03  3.90078E+04 -3.13443E+04  1.75549E+04 -3.34515E+04 -3.62887E+03 -1.89957E+04 -1.38532E+04
 -8.95389E+03 -1.50001E+04  1.29680E+03 -2.01143E+04  8.01022E+03 -2.49189E+04  1.55446E+04 -1.40728E+04
  9.79407E+03  6.28500E+03 -9.43312E+03  1.11810E+04 -2.33253E+04 -5.66411E+03 -7.90924E+03 -3.62458E+04
  2.45425E+04 -4.64272E+04  5.29400E+04 -2.09816E+04  4.86056E+04  2.09830E+04  1.73012E+04  4.67979E+04
 -1.69516E+04  3.64930E+04 -2.78547E+04  2.81630E+03 -1.09760E+04 -2.97567E+04  2.33471E+04 -3.66552E+04
  4.52133E+04 -1.10284E+04  4.04738E+04  2.45893E+04  2.05435E+04  5.05136E+04 -8.07612E+03  5.62330E+04
 -3.60512E+04  3.91575E+04 -4.73766E+04  1.11979E+04 -4.68540E+04 -1.98787E+04 -2.56245E+04 -4.18321E+04
  8.58234E+03 -4.06922E+04  3.38842E+04 -1.68253E+04  3.22670E+04  1.09003E+04  5.93200E+03  1.96519E+04
 -1.31362E+04  8.99629E+03 -1.11089E+04 -8.50264E+03  5.90170E+03 -1.09866E+04  2.01948E+04  6.19626E+03
  1.32526E+04  2.35251E+04 -6.35182E+03  2.73859E+04 -2.34027E+04  1.51711E+04 -3.03150E+04 -3.77024E+03
 -2.72123E+04 -1.75361E+04 -1.15964E+04 -2.46127E+04  2.66140E+03 -2.59538E+04  1.94524E+04 -2.22712E+04
  3.13199E+04 -1.53784E+04  3.81257E+04  5.65391E+03  2.49272E+04  2.46627E+04  7.10119E+03  4.15703E+04
 -1.98899E+04  3.37399E+04 -3.05227E+04  1.18410E+04 -2.21679E+04 -8.94483E+03 -4.07566E+03 -1.38693E+04
  1.18651E+03 -2.83771E+03 -8.84555E+03  7.93411E+03 -1.97371E+04  5.96233E+03 -2.06295E+04 -1.04786E+04
 -1.14534E+04 -2.27357E+04  5.96793E+03 -2.76076E+04  1.98149E+04 -2.05318E+04  2.28990E+04 -2.18262E+02
  1.41124E+04  1.63338E+04 -7.21588E+02  2.36282E+04 -1.73970E+04  1.43936E+04 -2.35327E+04 -4.06529E+03
 -1.71648E+04 -1.91251E+04 -2.81055E+03 -2.77006E+04  1.36641E+04 -2.29953E+04  2.24043E+04 -1.40809E+04
  2.16811E+04 -3.91906E+01  1.60213E+04  4.37509E+03  7.34918E+03  1.99325E+03  1.24339E+04 -1.56454E+03
  2.23167E+04  2.47119E+03  2.57952E+04  1.83863E+04  1.66256E+04  3.65739E+04 -3.73016E+03  4.53324E+04
 -2.65797E+04  3.48576E+04 -4.32444E+04  1.84734E+04 -4.19874E+04 -3.72021E+03 -3.55773E+04 -2.57319E+04
 -1.26585E+04 -3.80661E+04  1.51972E+04 -3.22241E+04  2.72044E+04 -1.52004E+04  2.49122E+04  8.03356E+03
  7.95074E+03  1.81454E+04 -1.01901E+04  1.53821E+04 -2.13468E+04  2.56197E+03 -1.55955E+04 -1.37456E+04
 -1.25456E+03 -1.88279E+04  1.05195E+04 -1.44704E+04  1.36318E+04 -1.00810E+03  3.50994E+03  9.53715E+03
 -9.31687E+03  4.07752E+03 -8.80999E+03 -7.35261E+03 -1.81068E+03 -1.85101E+04  1.17691E+04 -2.08888E+04
  2.24390E+04 -9.59892E+03  2.68921E+04  2.41185E+03  2.20032E+04  1.73118E+04  1.15735E+04  2.98030E+04
 -5.31698E+03  3.15329E+04 -2.10865E+04  1.86294E+04 -2.37314E+04  4.37572E+03 -1.58142E+04 -5.69899E+03
 -5.69459E+03 -8.63596E+03 -3.29139E+02  7.42216E+02 -2.06471E+03  3.01666E+03 -6.36814E+03  7.20176E+03
 -1.42343E+04 -1.99981E+03 -1.43024E+04 -1.20191E+04 -6.63409E+03 -1.91452E+04  7.44385E+03 -1.60084E+04
  1.42491E+04 -5.66880E+03  9.42218E+03  5.86650E+03  8.14440E+02  6.28971E+03 -8.13034E+03 -7.00725E+02
 -7.95241E+03 -9.46914E+03  6.30627E+02 -1.68012E+04  8.84435E+03 -1.58405E+04  1.91923E+04 -8.61864E+03
  2.45702E+04  2.21107E+03  1.70956E+04  1.38954E+04  3.18764E+03  1.85133E+04 -9.41809E+03  1.56481E+04
 -1.26072E+04  4.96280E+03 -8.20180E+03 -2.31188E+03  1.49025E+03 -2.72738E+03  8.66294E+03 -4.02880E+02
  6.49596E+03  6.66631E+03  3.92835E+02  1.33375E+04 -8.49087E+03  1.15695E+04 -1.60983E+04  3.54717E+03
 -1.03206E+04 -9.01526E+03  3.77825E+02 -1.33849E+04  9.06152E+03 -6.48428E+03  1.05589E+04  2.31417E+03
  2.31097E+03  9.89156E+03 -8.72641E+03  1.12802E+04 -1.28967E+04  3.70394E+03 -1.45290E+04 -6.32152E+03
 -8.32417E+03 -1.68911E+04  4.29291E+03 -1.91619E+04  1.62005E+04 -1.14091E+04  1.58337E+04  2.20634E+03
  1.16973E+04  1.43623E+04 -2.54689E+03  1.64519E+04 -1.22094E+04  8.03762E+03 -1.24209E+04 -1.23338E+03
 -1.11373E+04 -9.90585E+03 -2.83443E+03 -1.18709E+04  5.00383E+03 -8.87647E+03  8.71998E+03 -2.46967E+03
  3.98163E+03  3.81784E+03 -1.76672E+03  1.48015E+03 -1.42608E+03 -2.85066E+03  1.74154E+03 -7.03720E+03
  1.33218E+04 -5.39346E+03  1.59200E+04  3.45100E+03  1.54874E+04  1.07801E+04  1.00824E+04  2.04690E+04
 -5.35167E+03  2.33968E+04 -2.04003E+04  1.62617E+04 -2.65341E+04  3.06069E+03 -2.03305E+04 -9.68553E+03
 -8.63028E+03 -1.72759E+04 -1.85464E+03 -1.48925E+04  4.62432E+03 -7.12060E+03  3.68344E+03 -7.41243E+03
  4.44112E+03 -3.76460E+03  5.05261E+03 -4.87853E+03  6.31248E+03 -2.51391E+03  8.91645E+03 -8.30562E+02
  1.15420E+04  2.50012E+03  5.04631E+03  9.90520E+03 -2.46861E+03  1.06503E+04 -1.21287E+04  8.89488E+03
 -1.51490E+04 -1.86583E+03 -9.49978E+03 -1.07613E+04 -9.40902E+02 -1.57761E+04  8.17689E+03 -1.54572E+04
  1.55779E+04 -8.62946E+03  1.94861E+04  2.10808E+03  1.49308E+04  1.38827E+04  2.40914E+03  1.85920E+04
 -6.76276E+03  1.43670E+04 -1.14551E+04  5.72684E+03 -6.98615E+03 -2.36720E+03 -3.48130E+03 -1.85653E+03
 -7.88650E+02 -6.93687E+02 -2.90471E+03  3.21492E+03 -6.37956E+03  3.33416E+03 -1.00939E+04 -2.90788E+03
 -8.35136E+03 -8.26361E+03  1.30271E+03 -1.44948E+04  8.94678E+03 -1.52787E+04  1.54513E+04 -3.41903E+03
  1.50147E+04  8.44127E+03  6.81260E+03  1.38528E+04 -2.55174E+03  1.36598E+04 -1.15394E+04  9.74034E+03
 -1.55245E+04  2.65808E+02 -9.82893E+03 -9.44935E+03 -1.97659E+03 -1.26177E+04  6.68715E+03 -9.03454E+03
  8.98142E+03 -1.57621E+03  5.77382E+03  1.13920E+03  1.74279E+03  3.11066E+03  1.16787E+03  8.46841E+02
  2.34572E+03 -8.75566E+01  5.21059E+03  4.09210E+03  3.73880E+03  4.50617E+03  3.87911E+03  8.13609E+03
 -3.30676E+03  1.19359E+04 -9.22219E+03  1.34432E+04 -1.57288E+04  2.84582E+03 -1.65372E+04 -7.55307E+03
 -7.29745E+03 -1.67412E+04  1.57183E+03 -1.54480E+04  9.10374E+03 -1.19914E+04  1.10785E+04 -2.87982E+03
  9.69732E+03  5.18387E+03  2.34819E+03  7.42577E+03 -2.60066E+03  5.26768E+03 -6.09156E+03 -2.14013E+03
 -3.93592E+03 -5.86517E+03  3.82539E+03 -6.46000E+03  6.80117E+03 -3.16775E+03  6.28369E+03  1.63484E+02
  2.78297E+03  3.66759E+03  3.66093E+02  1.41951E+03 -6.29191E+02  3.88764E+03  1.64487E+03  2.38754E+01
  1.46597E+03 -1.39577E+03  6.90242E+03  5.51451E+02  2.54932E+03  9.35913E+03 -2.23454E+03  9.77968E+03
 -9.83895E+03  8.08660E+03 -1.01050E+04  2.90196E+03 -8.22098E+03 -4.70618E+03 -1.75845E+03 -5.65623E+03
  1.82272E+03 -5.10955E+03  3.08802E+03 -1.86751E+03  3.18864E+03  1.95528E+03 -8.81939E+02  5.11780E+03
 -6.43446E+03  2.32062E+03 -6.82025E+03 -3.79892E+03 -2.35508E+03 -7.35072E+03  7.44865E+01 -9.06841E+03
  4.45464E+03 -4.76452E+03  5.29964E+03 -1.47185E+03  5.38080E+03  1.75141E+03  2.95114E+02  5.04082E+03
 -2.35128E+03  2.84420E+03 -2.64940E+03 -3.21963E+03  5.72274E+02 -8.27437E+03  8.48952E+03 -6.10199E+03
  8.61015E+03  1.41472E+03  1.08922E+04  6.02598E+03  3.80430E+03  1.14170E+04 -4.89971E+03  1.01844E+04
 -6.99808E+03  4.46093E+03 -8.15395E+03 -1.22813E+03 -4.42624E+03 -6.30498E+03  1.95454E+03 -6.20463E+03
  6.32378E+03 -2.98034E+03  4.51883E+03  2.36072E+03  2.17703E+03  5.93672E+03 -1.32363E+03  5.14312E+03
 -2.13403E+03  2.42247E+03 -2.28958E+03  1.65215E+03 -1.79122E+03  1.86811E+03 -3.47552E+03  9.71021E+02
 -2.17564E+03  3.70185E+03 -6.16975E+03  3.75148E+03 -8.64665E+03 -6.58257E+02 -1.04723E+04 -6.49250E+03
 -5.87671E+03 -1.25935E+04  3.35940E+03 -1.68592E+04  9.80571E+03 -1.07418E+04  1.57597E+04 -4.32607E+03
  1.38355E+04  1.70756E+03  8.16604E+03  9.32136E+03  5.38623E+01  1.06829E+04 -4.61182E+03  8.62166E+03
 -5.90716E+03  2.08704E+03 -3.36485E+03 -1.51032E+03  1.87637E+02 -1.73170E+03 -1.35009E+03 -1.47183E+01
 -3.16169E+02 -1.01390E+03 -8.40431E+02  8.99922E+02 -1.08168E+03 -2.64978E+03 -5.04775E+02 -4.77764E+03
  5.21461E+03 -2.53950E+03  7.92871E+03 -6.93924E+02  7.89726E+03  6.10182E+03  2.13805E+03  9.46168E+03
 -4.92295E+03  1.27276E+04 -1.16532E+04  8.87750E+03 -1.22373E+04  4.55969E+02 -9.37283E+03 -8.12163E+03
 -5.03545E+03 -9.97524E+03  2.69344E+03 -1.03267E+04  7.84702E+03 -3.37287E+03  7.69809E+03  1.62884E+02
  3.22454E+03  2.48870E+03 -1.50873E+03  2.61744E+03 -4.28546E+02  4.93303E+02 -2.27727E+02 -5.47481E+02
  3.31454E+03  1.95959E+02  4.12468E+03  1.73993E+03  9.51311E+02  4.26291E+03 -5.09154E+02  4.76333E+03
 -5.16977E+03  5.72543E+03 -6.27252E+03  6.13743E+02 -7.28119E+03 -4.12773E+03 -2.66561E+03 -7.27675E+03
  3.56479E+03 -7.77999E+03  6.10173E+03 -1.60641E+03  8.96926E+03  2.96924E+03  4.01115E+03  6.98652E+03
 -1.73250E+02  6.51978E+03 -4.34774E+03  5.49611E+03 -6.15777E+03  3.17834E+03 -4.83429E+03  3.37003E+02
 -1.72356E+03  5.34622E+02 -3.56961E+03  1.30115E+03 -4.85469E+03  1.60196E+03 -4.69424E+03 -1.88278E+03
 -5.35542E+03 -3.43075E+03 -1.99076E+03 -1.03426E+04  2.92622E+03 -5.64849E+03  6.18604E+03 -3.67729E+03
  5.98841E+03  1.30706E+03  2.74232E+03  4.46160E+03 -6.20179E+02  7.15926E+03 -3.54518E+03  4.82618E+03
