 $NMID ID='MM_0lb_SNR200_9hz_g60_86.RAW', FMTDAT='(8E13.5)'
 TRAMP=1., VOLUME=1. $END
  3.10139E+05  1.18307E+03  3.39379E+05  2.49544E+05  8.63736E+04  3.38971E+05 -1.32635E+05  2.49619E+05
 -1.92082E+05  8.34428E+04 -1.12659E+05 -3.25640E+04 -4.21288E+02 -5.21027E+04  5.25080E+04 -7.65940E+02
  3.45668E+04  5.29416E+04 -1.69677E+04  7.63598E+04 -6.26347E+04  6.36572E+04 -8.56991E+04  3.29528E+04
 -8.20568E+04 -1.09701E+04 -5.87520E+04 -5.20256E+04 -1.53711E+04 -7.27375E+04  2.87365E+04 -4.54815E+04
  4.09909E+04  5.39127E+03  1.66311E+04  4.98103E+04 -3.42218E+04  4.72493E+04 -6.79060E+04 -7.08757E+02
 -5.47736E+04 -5.84441E+04 -5.83202E+03 -7.71278E+04  3.56722E+04 -5.78331E+04  4.93551E+04 -1.85437E+04
  4.51673E+04  1.19500E+04  3.34103E+04  2.62316E+04  1.56329E+04  3.12923E+04 -7.30119E+03  2.66184E+04
 -2.06776E+04  1.18053E+04 -1.72089E+04 -5.14940E+03  7.84273E+03 -7.53732E+03  2.41595E+04  1.43594E+04
  7.17226E+03  3.81995E+04 -3.43100E+04  3.60766E+04 -6.76525E+04  2.34283E+03 -5.89584E+04 -4.51098E+04
 -1.39822E+04 -6.55386E+04  4.37830E+04 -4.91328E+04  6.25185E+04 -4.37443E+03  3.67162E+04  3.51188E+04
 -3.36572E+03  3.97793E+04 -3.26859E+04  1.88734E+04 -3.43384E+04 -1.80000E+03 -1.80667E+04 -1.19140E+04
 -1.02155E+04 -1.41967E+04  1.13998E+02 -2.22808E+04  9.51190E+03 -2.27508E+04  1.66720E+04 -1.29016E+04
  1.03549E+04  5.75488E+03 -1.02634E+04  1.43422E+04 -2.35384E+04 -8.14919E+03 -8.36352E+03 -3.78448E+04
  2.63562E+04 -4.72257E+04  5.38344E+04 -2.04411E+04  4.97488E+04  2.17659E+04  1.78805E+04  4.64534E+04
 -1.61653E+04  3.59240E+04 -2.85058E+04  3.84348E+03 -1.22058E+04 -2.84616E+04  2.03375E+04 -3.77536E+04
  4.50046E+04 -1.02267E+04  4.21433E+04  2.59478E+04  2.11128E+04  5.14065E+04 -8.42122E+03  5.82331E+04
 -3.64372E+04  3.92554E+04 -4.82197E+04  1.29193E+04 -4.87058E+04 -1.89622E+04 -2.71612E+04 -4.32633E+04
  7.52589E+03 -4.40428E+04  3.56761E+04 -1.71618E+04  3.04493E+04  1.09126E+04  5.67596E+03  2.17188E+04
 -1.51742E+04  1.02239E+04 -1.00767E+04 -6.27453E+03  6.00532E+03 -1.08690E+04  1.95874E+04  4.76297E+03
  1.42590E+04  2.22549E+04 -3.57141E+03  2.71835E+04 -2.27615E+04  1.62874E+04 -3.20245E+04 -1.52861E+03
 -2.72579E+04 -2.05730E+04 -1.21592E+04 -2.62355E+04  4.86115E+03 -2.71265E+04  2.02535E+04 -2.46455E+04
  3.33615E+04 -1.36689E+04  3.86471E+04  7.48367E+03  2.64263E+04  2.40704E+04  4.46917E+03  4.23805E+04
 -2.15397E+04  3.40016E+04 -3.23161E+04  1.41529E+04 -2.25013E+04 -1.11976E+04 -4.61595E+03 -1.21220E+04
  1.22050E+02 -1.99699E+03 -9.39883E+03  9.55354E+03 -2.18413E+04  4.00155E+03 -2.02424E+04 -9.58726E+03
 -1.42856E+04 -2.51014E+04  6.16811E+03 -2.70189E+04  1.98301E+04 -1.89691E+04  2.29023E+04 -1.51682E+03
  1.53983E+04  1.60021E+04 -3.28323E+03  2.35514E+04 -1.64251E+04  1.41442E+04 -2.58456E+04 -4.70442E+03
 -1.84460E+04 -2.28432E+04 -1.86050E+03 -3.00727E+04  1.34161E+04 -2.49692E+04  2.36241E+04 -1.39235E+04
  2.31261E+04  1.20521E+02  1.65427E+04  6.29397E+03  8.51197E+03  2.40920E+03  1.27928E+04 -1.72335E+03
  2.13628E+04  1.20606E+03  2.59087E+04  1.96308E+04  1.84851E+04  3.82124E+04 -2.57348E+03  4.56668E+04
 -2.62816E+04  3.92072E+04 -4.49092E+04  2.27975E+04 -4.74369E+04 -1.62683E+03 -3.87532E+04 -2.89113E+04
 -1.40004E+04 -3.91850E+04  1.52607E+04 -3.41425E+04  3.05506E+04 -1.53932E+04  2.39222E+04  7.97618E+03
  9.80869E+03  2.15553E+04 -1.08659E+04  1.53284E+04 -2.15373E+04  1.84376E+03 -1.44998E+04 -1.31601E+04
  1.83017E+03 -2.11109E+04  1.13582E+04 -1.48979E+04  1.30474E+04 -1.05315E+03  3.77594E+03  1.01962E+04
 -7.79316E+03  4.73110E+03 -1.02452E+04 -5.81881E+03 -3.01850E+03 -1.75559E+04  1.22799E+04 -2.09697E+04
  2.50750E+04 -1.13425E+04  2.85921E+04  3.42207E+03  2.39749E+04  2.10813E+04  1.16054E+04  3.16712E+04
 -6.12299E+03  3.27847E+04 -2.16563E+04  1.90955E+04 -2.42666E+04  5.26346E+03 -1.57106E+04 -5.27909E+03
 -7.41977E+03 -7.96956E+03 -9.58145E+02  7.68723E+02 -3.12979E+03  5.63325E+03 -7.66579E+03  6.27354E+03
 -1.44440E+04 -4.90558E+02 -1.63561E+04 -1.28980E+04 -6.88119E+03 -1.89896E+04  7.39225E+03 -1.65400E+04
  1.39038E+04 -7.80881E+03  1.05785E+04  3.96785E+03 -1.49883E+03  6.77949E+03 -7.09278E+03 -7.65703E+02
 -8.51278E+03 -1.02918E+04 -1.63873E+03 -1.69369E+04  1.04730E+04 -1.73626E+04  2.24813E+04 -8.88730E+03
  2.56074E+04  2.49559E+03  1.83127E+04  1.42586E+04  3.90998E+03  2.00474E+04 -1.06878E+04  1.39208E+04
 -1.20155E+04  6.16876E+03 -7.27804E+03 -3.49870E+03  1.32844E+03 -4.93943E+03  8.37296E+03 -1.82954E+03
  9.17736E+03  8.20293E+03  8.91381E+02  1.45561E+04 -9.39980E+03  1.26750E+04 -1.47913E+04  2.99468E+03
 -1.13810E+04 -9.59663E+03 -2.13040E+02 -1.52975E+04  9.89305E+03 -8.66818E+03  9.54017E+03  4.42614E+03
  1.91346E+03  1.02476E+04 -7.44433E+03  1.24692E+04 -1.56211E+04  6.13917E+03 -1.57425E+04 -6.16759E+03
 -1.00203E+04 -1.70328E+04  5.50678E+03 -1.86566E+04  1.62300E+04 -1.03185E+04  1.76895E+04  3.39934E+03
  1.12777E+04  1.42517E+04 -1.44904E+03  1.60274E+04 -1.28093E+04  7.36692E+03 -1.46588E+04 -1.55986E+03
 -1.26219E+04 -1.03585E+04 -1.44095E+03 -1.32317E+04  7.83675E+03 -1.09062E+04  8.06715E+03 -5.47868E+03
  2.83123E+03  1.38211E+03 -2.82306E+03  2.60329E+03 -1.09316E+03 -4.89019E+03  1.80596E+03 -8.23947E+03
  1.27686E+04 -6.62845E+03  1.71543E+04  3.28333E+03  1.80854E+04  1.10830E+04  1.13393E+04  2.12896E+04
 -5.18710E+03  2.28846E+04 -2.10097E+04  1.97734E+04 -2.76124E+04  2.90159E+03 -2.34802E+04 -1.08661E+04
 -9.93762E+03 -1.75819E+04 -2.52824E+02 -1.64679E+04  4.41421E+03 -7.68666E+03  5.77590E+03 -7.09007E+03
  4.58605E+03 -2.78428E+03  3.42095E+03 -5.14205E+03  7.27305E+03 -6.02307E+03  1.01327E+04 -9.29778E+02
  1.06950E+04  2.43473E+03  6.09506E+03  9.21648E+03 -3.56884E+03  1.10241E+04 -1.18288E+04  9.30749E+03
 -1.53979E+04 -1.65908E+03 -9.92258E+03 -1.14610E+04 -8.98626E+02 -1.73933E+04  9.41307E+03 -1.88025E+04
  1.83543E+04 -1.01893E+04  2.02893E+04  4.28096E+03  1.41475E+04  1.53340E+04  1.49080E+03  1.84150E+04
 -8.13763E+03  1.51128E+04 -8.25203E+03  4.96808E+03 -7.92239E+03 -8.11149E+02 -3.64981E+03 -3.74991E+03
 -5.86824E+02 -6.92198E+01 -2.19108E+03  3.34603E+03 -6.18733E+03  2.29590E+03 -1.20774E+04 -2.43958E+03
 -8.25940E+03 -1.12873E+04 -3.41999E+02 -1.69688E+04  9.86454E+03 -1.58407E+04  1.54827E+04 -4.71834E+03
  1.62871E+04  8.43484E+03  6.67911E+03  1.48946E+04 -2.80884E+03  1.74475E+04 -1.19970E+04  1.24874E+04
 -1.58543E+04  1.37086E+03 -1.09272E+04 -8.87259E+03 -2.36346E+03 -1.40625E+04  5.35782E+03 -9.21135E+03
  1.02416E+04 -3.13873E+03  7.05947E+03  2.17733E+03  4.07280E+03  4.67962E+03  3.16930E+03  2.36440E+03
  3.46251E+03  2.33036E+03  4.35496E+03  1.39510E+03  5.92008E+03  5.80426E+03  3.82521E+03  7.73625E+03
 -4.53980E+03  1.40069E+04 -1.30915E+04  1.07343E+04 -1.60425E+04  4.90956E+03 -1.71018E+04 -7.15846E+03
 -8.34401E+03 -1.67197E+04  1.28116E+03 -1.73002E+04  1.11388E+04 -1.07445E+04  1.41092E+04 -2.72667E+03
  1.19414E+04  6.13184E+03  3.12377E+03  8.98034E+03 -5.18184E+03  6.97898E+03 -6.09011E+03 -8.72693E+01
 -3.88358E+03 -6.67826E+03  3.66391E+03 -8.03683E+03  8.02900E+03 -4.06232E+03  5.70574E+03 -4.58667E+02
  2.27352E+03  3.91849E+03  1.22905E+00  1.96618E+03 -8.52219E+02  1.60757E+03  7.52939E+02 -2.01564E+03
  2.91243E+03 -1.21694E+02  6.52844E+03  2.75830E+03  2.18096E+03  7.70812E+03  3.82422E+02  1.12604E+04
 -8.70118E+03  7.57030E+03 -9.82442E+03  1.70359E+03 -9.02517E+03 -2.29370E+03 -3.54825E+03 -7.48092E+03
  2.23910E+03 -6.97359E+03  4.21221E+03 -1.80475E+03  5.26315E+03  3.62728E+03 -3.28278E+03  6.10177E+03
 -4.84335E+03  4.16596E+03 -6.83945E+03 -2.71331E+03 -3.48082E+03 -8.04505E+03  1.47725E+02 -9.66876E+03
  4.75760E+03 -4.58947E+03  6.96924E+03 -1.86602E+02  5.69560E+03  3.44361E+03 -3.23967E+02  4.54818E+03
 -3.12187E+03  1.81949E+03 -4.74213E+03 -2.20766E+03  1.74677E+03 -7.32148E+03  9.55330E+03 -4.43935E+03
  9.65679E+03  3.51181E+02  1.05306E+04  5.78343E+03  2.33731E+03  1.05115E+04 -1.97519E+03  9.76994E+03
 -8.01013E+03  4.34916E+03 -9.66754E+03 -2.48371E+03 -4.92215E+03 -7.02831E+03  2.17949E+03 -6.16727E+03
  7.48096E+03 -2.64669E+03  6.66462E+03  2.53180E+03  2.04598E+03  6.53246E+03 -1.57033E+03  5.31145E+03
 -3.27643E+03  3.67275E+03 -2.54799E+03  1.00860E+02  1.90614E+02  2.48771E+03 -1.59274E+03  1.12785E+03
 -2.04817E+03  3.56332E+03 -9.62659E+03  4.95840E+03 -1.09749E+04 -2.42645E+02 -1.40981E+04 -7.97647E+03
 -7.33460E+03 -1.52034E+04  2.48924E+03 -1.72161E+04  9.77108E+03 -1.46641E+04  1.32970E+04 -3.83982E+03
  1.44585E+04  2.76099E+03  9.88035E+03  1.00538E+04  1.44643E+03  1.10191E+04 -4.34621E+03  7.79099E+03
 -6.62452E+03  4.47159E+03 -5.64907E+03 -1.81147E+03  5.98367E+02 -1.07692E+03 -8.83966E+02 -1.88997E+02
 -2.70956E+03 -2.53309E+02 -3.16888E+03  6.32676E+02 -3.60183E+01 -3.77998E+03  7.12442E+02 -2.76438E+03
  4.80891E+03 -3.97835E+03  6.36999E+03 -2.96923E+02  8.36524E+03  5.06673E+03  2.33923E+03  1.18188E+04
 -5.49004E+03  1.20109E+04 -1.16968E+04  7.08452E+03 -1.45159E+04 -8.76593E+02 -9.56920E+03 -8.18744E+03
 -4.14005E+03 -1.26576E+04  3.00768E+03 -9.62761E+03  6.31186E+03 -6.23317E+03  7.15108E+03  5.86445E+02
  4.51766E+03  4.29828E+03 -1.51867E+02  3.49878E+03 -1.73910E+03  4.30655E+02 -1.04319E+03 -2.21266E+03
  2.64727E+03 -1.40166E+03  3.63464E+03  7.56625E+02  2.65535E+03  4.60962E+03  1.60521E+03  6.13986E+03
 -5.71113E+03  4.93840E+03 -7.32673E+03 -3.83379E+02 -7.11975E+03 -5.57964E+03 -1.32048E+03 -1.01124E+04
  4.49212E+03 -7.28549E+03  8.83182E+03 -2.25223E+03  9.28548E+03  3.22096E+03  4.26818E+03  7.47500E+03
  2.82140E+03  7.48675E+03 -3.38154E+03  6.89837E+03 -4.78985E+03  2.56197E+03 -3.47183E+03  3.51454E+01
 -1.52982E+03  4.85861E+02 -1.92067E+03  1.57459E+03 -4.79193E+03  1.24419E+03 -6.02755E+03 -1.37029E+03
 -4.88979E+03 -2.91735E+03 -2.52288E+03 -6.86694E+03  2.81989E+03 -7.69828E+03  6.68445E+03 -4.58754E+03
  7.69264E+03  2.57691E+03  3.42515E+03  4.58007E+03 -3.16752E+02  7.97697E+03 -7.23264E+03  3.91205E+03
