 $NMID ID='MM_0lb_SNR200_10hz_g40_75.RAW', FMTDAT='(8E13.5)'
 TRAMP=1., VOLUME=1. $END
  3.11405E+05 -6.70100E+01  3.36172E+05  2.50838E+05  8.58451E+04  3.38669E+05 -1.32521E+05  2.51497E+05
 -1.90597E+05  8.37980E+04 -1.11867E+05 -3.25984E+04  5.60264E+02 -5.12064E+04  5.34147E+04  6.55442E+02
  3.50389E+04  5.31886E+04 -1.87624E+04  7.43702E+04 -6.07262E+04  6.52583E+04 -8.52622E+04  3.31396E+04
 -8.15501E+04 -1.19596E+04 -5.76596E+04 -5.12072E+04 -1.43518E+04 -7.22992E+04  2.72926E+04 -4.49742E+04
  4.15780E+04  3.15837E+03  1.52078E+04  4.87531E+04 -3.46719E+04  4.86470E+04 -6.81067E+04 -7.88529E+02
 -5.35484E+04 -5.61987E+04 -5.33572E+03 -7.85740E+04  3.40835E+04 -5.73613E+04  4.94399E+04 -1.83970E+04
  4.36990E+04  1.46408E+04  3.12385E+04  2.79090E+04  1.62201E+04  2.79671E+04 -6.14036E+03  2.72379E+04
 -2.18369E+04  1.14538E+04 -1.86960E+04 -4.76170E+03  6.48403E+03 -7.28216E+03  2.40232E+04  1.38611E+04
  7.20238E+03  3.63625E+04 -3.36412E+04  3.70291E+04 -6.40875E+04  1.83621E+03 -5.74950E+04 -4.33447E+04
 -1.24398E+04 -6.46542E+04  4.09547E+04 -4.61137E+04  6.01606E+04 -3.09149E+03  3.56746E+04  3.25032E+04
 -6.49471E+03  4.01435E+04 -3.19529E+04  1.79624E+04 -3.27848E+04 -3.98344E+03 -1.82695E+04 -9.86063E+03
 -8.61034E+03 -1.37874E+04 -1.31663E+03 -1.88574E+04  8.29726E+03 -2.25655E+04  1.53579E+04 -1.37360E+04
  1.13576E+04  6.25593E+03 -1.07966E+04  1.29992E+04 -2.27100E+04 -5.62459E+03 -8.90742E+03 -3.56572E+04
  2.38706E+04 -4.41185E+04  5.16801E+04 -2.01980E+04  4.65217E+04  2.01632E+04  1.71449E+04  4.63805E+04
 -1.67833E+04  3.53586E+04 -2.63242E+04  2.00454E+03 -1.14072E+04 -2.97889E+04  2.09798E+04 -3.65657E+04
  4.19362E+04 -1.13639E+04  3.86564E+04  2.45958E+04  1.96059E+04  4.89595E+04 -1.01376E+04  5.41004E+04
 -3.43082E+04  3.54335E+04 -4.43336E+04  1.02908E+04 -4.66533E+04 -1.77518E+04 -2.45639E+04 -4.09135E+04
  6.74926E+03 -4.07370E+04  3.29546E+04 -1.49468E+04  3.16380E+04  1.08881E+04  5.14416E+03  2.04329E+04
 -1.28836E+04  8.32137E+03 -1.01691E+04 -7.87316E+03  6.51784E+03 -1.06375E+04  1.85663E+04  5.26901E+03
  1.38781E+04  2.14101E+04 -4.53365E+03  2.57220E+04 -2.23054E+04  1.30837E+04 -3.01426E+04 -3.74828E+03
 -2.19553E+04 -1.92276E+04 -9.10331E+03 -2.35743E+04  4.54951E+03 -2.28722E+04  1.88589E+04 -2.07865E+04
  2.93593E+04 -1.29423E+04  3.59919E+04  5.56893E+03  2.62663E+04  2.09263E+04  5.85696E+03  4.09603E+04
 -1.90627E+04  3.32458E+04 -2.99562E+04  1.18778E+04 -2.16350E+04 -1.06335E+04 -3.93753E+03 -1.24718E+04
 -3.99043E+01 -2.74894E+03 -7.37638E+03  8.89726E+03 -1.81295E+04  5.19329E+03 -1.82705E+04 -9.84015E+03
 -1.03996E+04 -2.23926E+04  5.16977E+03 -2.67603E+04  1.81025E+04 -1.87852E+04  2.11861E+04 -1.94672E+03
  1.22593E+04  1.37297E+04 -1.25305E+03  2.27395E+04 -1.61271E+04  1.16031E+04 -2.22958E+04 -3.56892E+03
 -1.61413E+04 -1.99436E+04 -2.10936E+03 -2.67261E+04  1.22788E+04 -2.19428E+04  2.26048E+04 -1.12738E+04
  2.03173E+04 -1.37859E+01  1.60915E+04  5.29958E+03  7.72762E+03  2.22287E+02  1.18780E+04 -7.51249E+02
  2.00554E+04  2.30711E+03  2.31954E+04  1.66258E+04  1.54518E+04  3.51958E+04 -1.84532E+03  4.06856E+04
 -2.37064E+04  3.33550E+04 -3.70545E+04  1.71547E+04 -3.96444E+04 -2.87935E+03 -3.27597E+04 -2.27837E+04
 -1.31307E+04 -3.52421E+04  1.11144E+04 -2.92757E+04  2.59716E+04 -1.41057E+04  2.20016E+04  7.88009E+03
  7.21013E+03  1.63656E+04 -1.02937E+04  1.37106E+04 -1.82342E+04  2.85032E+03 -1.45022E+04 -1.28221E+04
 -7.21555E+02 -1.77504E+04  8.92366E+03 -1.31742E+04  1.19701E+04 -9.21476E+02  1.63666E+03  7.96826E+03
 -8.00187E+03  3.52642E+03 -5.78738E+03 -6.69319E+03 -1.19362E+03 -1.62442E+04  1.12513E+04 -1.80429E+04
  2.03319E+04 -9.57855E+03  2.26661E+04  3.86305E+03  1.98454E+04  1.56545E+04  1.02328E+04  2.60442E+04
 -3.63784E+03  2.71125E+04 -1.81136E+04  1.67076E+04 -1.93051E+04  3.47094E+03 -1.46948E+04 -4.67000E+03
 -5.19638E+03 -4.92808E+03  6.63600E+02  1.48273E+03 -3.66448E+03  1.79569E+03 -5.96056E+03  4.71793E+03
 -1.40597E+04 -2.45013E+03 -1.26558E+04 -1.09703E+04 -6.28008E+03 -1.86569E+04  6.98064E+03 -1.48792E+04
  1.20672E+04 -6.20867E+03  8.40386E+03  4.08426E+03 -1.69735E+03  5.44248E+03 -6.83527E+03  1.06906E+03
 -6.72428E+03 -1.02526E+04 -5.27201E+02 -1.32356E+04  7.61081E+03 -1.35004E+04  1.92369E+04 -7.18842E+03
  2.24391E+04  2.86170E+03  1.45439E+04  1.26086E+04  2.98617E+03  1.79670E+04 -6.68984E+03  1.34106E+04
 -1.32045E+04  3.65425E+03 -6.40661E+03 -2.75853E+03  8.67006E+02 -4.85056E+03  7.75055E+03 -1.30895E+03
  5.66062E+03  6.28818E+03  5.54716E+02  1.17376E+04 -8.63892E+03  1.07838E+04 -1.58188E+04  1.38860E+03
 -8.05289E+03 -7.15007E+03  6.49951E+02 -1.12900E+04  7.37377E+03 -5.84622E+03  8.35928E+03  3.02917E+03
  1.83283E+03  7.95772E+03 -6.95773E+03  9.45374E+03 -1.22683E+04  4.59795E+03 -1.13199E+04 -4.76609E+03
 -5.63210E+03 -1.43457E+04  3.88609E+03 -1.59616E+04  1.23681E+04 -9.17039E+03  1.51014E+04  2.94059E+03
  8.33863E+03  1.15871E+04 -2.40261E+01  1.54636E+04 -8.97088E+03  6.54130E+03 -9.92936E+03 -5.57058E+02
 -9.99847E+03 -7.78829E+03 -1.65818E+03 -1.08558E+04  4.42650E+03 -7.78537E+03  5.76180E+03 -2.99061E+03
  5.44745E+03  2.00983E+03 -2.79490E+02  1.32749E+03 -1.35232E+03 -3.02093E+03  2.16876E+03 -4.28543E+03
  9.57344E+03 -5.35005E+03  1.25392E+04  8.22116E+02  1.21221E+04  8.70265E+03  1.11669E+04  1.80679E+04
 -2.43277E+03  2.23017E+04 -1.74158E+04  1.49616E+04 -2.14189E+04  3.02815E+03 -1.82772E+04 -7.18051E+03
 -7.45188E+03 -1.61561E+04 -4.63099E+01 -1.35518E+04  6.07899E+03 -6.74455E+03  5.90635E+03 -4.78860E+03
  4.06725E+03 -2.60583E+03  4.56285E+03 -4.06966E+03  6.57635E+03 -2.78517E+03  7.00650E+03 -1.05399E+03
  1.04072E+04  2.75411E+03  5.45524E+03  8.06580E+03 -1.10922E+03  8.56946E+03 -1.03763E+04  7.79684E+03
 -1.18882E+04 -1.49061E+03 -8.93914E+03 -9.94026E+03 -3.14870E+03 -1.32853E+04  8.57736E+03 -1.28892E+04
  1.42101E+04 -6.14951E+03  1.59118E+04  1.91623E+03  1.21771E+04  1.21013E+04  1.13157E+03  1.49616E+04
 -5.74135E+03  1.29273E+04 -1.02255E+04  3.65540E+03 -6.03331E+03 -1.38851E+03 -2.81102E+03 -2.02222E+03
 -2.06521E+02 -7.78776E+02 -1.43266E+03  3.18493E+03 -6.24696E+03  2.68617E+03 -7.01833E+03 -9.33520E+02
 -7.56844E+03 -8.92289E+03 -2.51675E+02 -1.40704E+04  8.16445E+03 -1.14460E+04  1.31290E+04 -3.70389E+03
  1.12313E+04  6.19053E+03  5.21385E+03  1.21433E+04 -2.87075E+03  1.20404E+04 -7.89096E+03  7.80232E+03
 -1.20173E+04  1.67164E+01 -9.26468E+03 -5.22886E+03  3.32850E+02 -1.07015E+04  5.31956E+03 -6.93418E+03
  7.76359E+03 -2.76370E+03  4.96793E+03  3.48962E+03 -5.48258E-01  3.23396E+03  1.30079E+03  1.12804E+03
  1.97637E+03 -2.98838E+01  4.33158E+03  1.56787E+03  3.09974E+03  4.11153E+03  2.23611E+03  6.58104E+03
 -2.05643E+03  1.02700E+04 -9.00996E+03  1.05686E+04 -1.31476E+04  1.58920E+03 -1.21895E+04 -5.91527E+03
 -4.84353E+03 -1.21715E+04  1.47645E+03 -1.42664E+04  7.24772E+03 -8.59070E+03  1.00574E+04 -2.88638E+03
  7.01077E+03  3.45642E+03  3.06431E+03  6.32621E+03 -3.93558E+03  3.48115E+03 -4.42608E+03 -6.68181E+02
 -2.14379E+03 -5.19768E+03  3.23798E+03 -5.94456E+03  5.46610E+03 -2.10702E+03  3.90183E+03  7.90242E+02
  3.07157E+03  1.53295E+03  3.12270E+03  1.69760E+03 -1.43350E+03  2.61937E+03  1.27915E+03 -2.26444E+02
  1.34818E+03  6.27381E+02  5.58662E+03  1.39009E+03  3.52769E+03  7.22603E+03  5.47374E+02  9.48581E+03
 -6.04793E+03  4.56453E+03 -7.12809E+03  7.13622E+02 -7.21304E+03 -3.12027E+03 -2.10530E+03 -4.48734E+03
  8.54389E+02 -4.52223E+03  3.29039E+03 -2.51054E+03  3.90447E+03  5.35746E+02 -1.01973E+03  3.67397E+03
 -3.50798E+03  2.21726E+03 -6.02023E+03 -2.80608E+03 -3.75228E+03 -8.18979E+03  3.05464E+02 -7.74344E+03
  4.65028E+03 -2.91859E+03  4.97269E+03 -1.61493E+02  3.38009E+03  1.01546E+03  9.80387E+02  3.23764E+03
 -1.71466E+03  2.08438E+03 -4.68144E+03 -2.75973E+03  2.16795E+03 -4.60447E+03  6.45444E+03 -4.71068E+03
  7.41532E+03  1.36747E+02  8.03954E+03  5.14949E+03  2.93729E+03  7.47242E+03 -3.47366E+03  6.69190E+03
 -7.15511E+03  2.86010E+03 -5.64563E+03  1.56574E+02 -3.77717E+03 -5.43400E+03  6.67534E+02 -3.73571E+03
  5.04621E+03 -1.74135E+03  4.58425E+03  2.99064E+03 -2.96286E+02  3.10463E+03 -8.42052E+02  3.19665E+03
 -1.48741E+03  2.59626E+03 -2.68751E+03  3.76092E+02  5.88354E+02  1.68012E+03 -9.69278E+02  2.54722E+03
 -1.39133E+03  2.97344E+03 -5.21797E+03  3.20157E+03 -8.36939E+03 -2.82482E+02 -7.90657E+03 -5.85536E+03
 -5.27560E+03 -1.13825E+04  2.07742E+03 -1.13390E+04  7.95613E+03 -9.73822E+03  1.06637E+04 -3.22123E+03
  1.20090E+04  1.40265E+03  7.00011E+03  7.07941E+03  7.87614E+02  8.44816E+03 -4.04540E+03  6.24927E+03
 -4.26488E+03  1.01800E+03 -2.75378E+03  3.85257E+02 -2.06921E+03  1.00043E+03 -6.92844E+02  1.09277E+02
 -1.93847E+03  6.06429E+02 -3.64066E+03 -1.53784E+03 -4.81792E+02 -2.46484E+03  6.31795E+02 -2.54521E+03
  3.00542E+03 -4.13168E+02  6.96310E+03  5.92216E+02  4.64440E+03  4.60833E+03  1.35653E+03  8.33492E+03
 -2.87711E+03  9.39988E+03 -8.86242E+03  5.14415E+03 -1.13798E+04 -1.15520E+02 -6.55371E+03 -5.57680E+03
 -4.22652E+03 -9.24939E+03  4.43607E+02 -7.73929E+03  5.12946E+03 -3.53622E+03  5.02507E+03 -3.04884E+02
  3.16975E+03  3.70516E+03  2.82433E+01  1.72939E+03 -1.61915E+03 -7.01165E+02 -2.46023E+01 -3.03772E+03
  9.58812E+02 -1.19151E+03  1.39231E+03 -2.30966E+02  1.18041E+03  3.28921E+03  9.43495E+02  3.04016E+03
 -5.93409E+03  3.96087E+03 -5.83130E+03  7.87040E+02 -4.32966E+03 -4.03540E+03 -1.40132E+02 -6.33232E+03
  3.38734E+03 -5.17091E+03  5.82798E+03 -3.27021E+03  6.37995E+03  2.66552E+03  4.03163E+03  5.11312E+03
  9.85421E+02  5.46739E+03 -2.62246E+03  5.31550E+03 -3.26276E+03  3.10778E+03 -4.03406E+03 -9.05775E+01
 -1.37806E+03 -1.19203E+02 -7.76154E+02  1.16029E+02 -1.80043E+03  5.06585E+02 -4.73850E+03 -9.64471E+02
 -3.81035E+03 -1.98143E+03 -1.22283E+03 -5.45113E+03  2.42826E+03 -4.42179E+03  4.53777E+03 -2.65354E+03
  5.50387E+03 -7.23961E+01  1.47448E+03  3.40219E+03 -5.17015E+02  6.90541E+03 -3.20547E+03  3.65388E+03
