 $NMID ID='MM_0lb_SNR200_15hz_g50_72.RAW', FMTDAT='(8E13.5)'
 TRAMP=1., VOLUME=1. $END
  3.09836E+05  8.62716E+02  3.38887E+05  2.50498E+05  8.45755E+04  3.37848E+05 -1.32147E+05  2.51085E+05
 -1.90381E+05  8.33369E+04 -1.12149E+05 -3.18182E+04  3.48418E+02 -5.03703E+04  5.41449E+04 -1.00558E+03
  3.50623E+04  5.22991E+04 -1.66534E+04  7.58855E+04 -6.02831E+04  6.30601E+04 -8.38881E+04  3.09946E+04
 -8.06687E+04 -1.17146E+04 -5.70781E+04 -5.20957E+04 -1.55422E+04 -6.91623E+04  2.68324E+04 -4.51155E+04
  3.98018E+04  4.46194E+03  1.56643E+04  4.84516E+04 -3.41642E+04  4.78067E+04 -6.65702E+04  1.07133E+02
 -5.40276E+04 -5.69855E+04 -6.34015E+03 -7.54479E+04  3.30205E+04 -5.50850E+04  4.75707E+04 -1.61019E+04
  4.35074E+04  1.12798E+04  3.08089E+04  2.46908E+04  1.73890E+04  2.89825E+04 -4.84207E+03  2.59402E+04
 -2.22629E+04  1.19675E+04 -1.88346E+04 -4.29472E+03  4.46168E+03 -6.92443E+03  2.15532E+04  1.10944E+04
  5.91323E+03  3.47535E+04 -3.05019E+04  3.50907E+04 -6.27222E+04  2.48056E+03 -5.50822E+04 -4.18043E+04
 -1.34768E+04 -6.33354E+04  3.77342E+04 -4.57796E+04  5.77944E+04 -1.62010E+03  3.43157E+04  3.33176E+04
 -5.70055E+03  3.60604E+04 -3.01867E+04  1.55940E+04 -3.01705E+04 -4.42547E+03 -1.55832E+04 -1.15450E+04
 -7.37590E+03 -1.32406E+04 -5.22811E+01 -1.67617E+04  7.23256E+03 -2.36851E+04  1.56385E+04 -1.24801E+04
  1.17461E+04  3.67921E+03 -7.77544E+03  1.36407E+04 -2.03223E+04 -4.22589E+03 -9.27571E+03 -3.31273E+04
  2.21796E+04 -4.27460E+04  4.68656E+04 -1.86492E+04  4.46653E+04  1.91982E+04  1.52170E+04  4.44238E+04
 -1.57034E+04  3.27052E+04 -2.58401E+04  1.63879E+03 -8.95958E+03 -2.80585E+04  2.22259E+04 -3.38567E+04
  4.05244E+04 -8.95859E+03  3.34108E+04  2.50016E+04  1.86806E+04  4.55707E+04 -8.51410E+03  4.95307E+04
 -2.93297E+04  3.30953E+04 -4.18763E+04  1.07236E+04 -4.21312E+04 -1.61992E+04 -2.21594E+04 -3.65516E+04
  8.19943E+03 -3.63288E+04  3.12144E+04 -1.46838E+04  2.92225E+04  1.12286E+04  4.37425E+03  1.77364E+04
 -1.34389E+04  8.06902E+03 -1.03278E+04 -8.30216E+03  4.71736E+03 -1.00999E+04  1.82915E+04  7.20625E+03
  1.29517E+04  2.13212E+04 -6.05084E+03  2.52502E+04 -2.32067E+04  1.20286E+04 -2.77959E+04 -4.65092E+03
 -2.02168E+04 -1.76811E+04 -7.89323E+03 -1.94562E+04  3.86260E+03 -1.77394E+04  1.53311E+04 -1.72595E+04
  2.48160E+04 -1.25450E+04  3.20514E+04  2.14929E+03  2.32112E+04  1.94832E+04  3.98609E+03  3.51300E+04
 -1.84728E+04  3.07001E+04 -2.76688E+04  1.05747E+04 -2.18849E+04 -1.00786E+04 -5.33295E+03 -1.34993E+04
  2.79421E+03 -2.31637E+03 -4.96503E+03  6.15177E+03 -1.52334E+04  4.40052E+03 -1.64703E+04 -6.50523E+03
 -8.68476E+03 -1.72909E+04  5.18831E+03 -2.11991E+04  1.53874E+04 -1.63655E+04  1.65018E+04 -1.88934E+03
  1.09920E+04  1.22847E+04 -6.78965E+02  1.92944E+04 -1.42878E+04  1.04956E+04 -1.77278E+04 -4.35433E+03
 -1.43578E+04 -1.65608E+04 -1.04467E+03 -2.15707E+04  1.19521E+04 -1.83110E+04  1.76101E+04 -8.92025E+03
  1.80386E+04  6.07560E+02  1.27031E+04  4.52906E+03  7.49160E+03  1.60728E+03  1.01723E+04 -1.27192E+03
  1.60358E+04  3.19654E+03  1.84733E+04  1.42539E+04  1.28523E+04  3.04252E+04 -2.30092E+03  3.23304E+04
 -1.87513E+04  2.58666E+04 -2.99440E+04  1.36515E+04 -3.09673E+04 -2.05799E+03 -2.61223E+04 -1.84419E+04
 -1.04925E+04 -2.65365E+04  9.13679E+03 -2.36463E+04  2.10846E+04 -1.27067E+04  1.91862E+04  4.78100E+03
  7.32776E+03  1.33281E+04 -8.24686E+03  1.15676E+04 -1.38437E+04  3.67360E+03 -1.15989E+04 -1.03404E+04
 -5.99461E+01 -1.49482E+04  7.18712E+03 -1.13109E+04  9.06288E+03 -1.19235E+03  2.48445E+03  7.02762E+03
 -7.25373E+03  2.37988E+03 -6.44489E+03 -5.29772E+03 -6.29074E+02 -1.26379E+04  8.84466E+03 -1.38897E+04
  1.57331E+04 -7.07397E+03  1.62926E+04  3.27619E+03  1.43362E+04  1.21839E+04  6.78277E+03  1.96541E+04
 -3.52096E+03  2.08689E+04 -1.45433E+04  1.38064E+04 -1.53154E+04  2.39650E+03 -1.06289E+04 -2.64638E+03
 -5.33129E+03 -5.46948E+03 -8.36227E+02  1.08041E+03 -2.61083E+03  2.81268E+03 -3.98952E+03  4.18037E+03
 -1.06167E+04 -4.55339E+02 -1.00971E+04 -8.53058E+03 -4.14229E+03 -1.34692E+04  4.35503E+03 -1.06750E+04
  8.83923E+03 -4.50527E+03  6.17681E+03  3.44688E+03  5.97599E+02  4.35611E+03 -4.66953E+03 -1.17912E+02
 -3.79578E+03 -5.96933E+03 -8.43531E+02 -1.02884E+04  4.39322E+03 -1.04088E+04  1.29591E+04 -6.21575E+03
  1.52413E+04  1.68060E+03  1.17731E+04  8.91686E+03  1.97640E+03  1.26981E+04 -6.51105E+03  1.01658E+04
 -8.75530E+03  3.40916E+03 -4.68184E+03 -3.36180E+03  1.63062E+03 -3.00340E+03  6.86689E+03 -3.77468E+02
  4.76552E+03  6.03217E+03  7.62924E+02  7.52665E+03 -5.80135E+03  7.10402E+03 -9.95666E+03  1.98085E+03
 -6.42176E+03 -5.19627E+03  1.68144E+03 -8.84935E+03  5.31275E+03 -4.43690E+03  4.65871E+03  2.13457E+03
  1.01358E+03  5.68162E+03 -5.33853E+03  5.56334E+03 -7.66126E+03  3.30110E+03 -7.32060E+03 -2.19297E+03
 -4.00369E+03 -9.50082E+03  1.68062E+03 -9.85401E+03  9.32929E+03 -7.45394E+03  1.03517E+04  1.69426E+03
  6.20588E+03  8.55911E+03 -3.07323E+02  9.78293E+03 -6.43709E+03  6.11675E+03 -6.17518E+03 -1.73889E+03
 -7.61194E+03 -6.22237E+03 -2.02611E+03 -7.90811E+03  3.32915E+03 -6.81170E+03  2.92551E+03 -2.75022E+03
  3.40939E+03  7.91800E+02 -1.14408E+03  1.23100E+03  7.90394E+01 -1.05722E+03  8.50262E+02 -2.68664E+03
  6.22663E+03 -1.72182E+03  8.49950E+03  5.67468E+02  8.12167E+03  5.25022E+03  5.58584E+03  1.10869E+04
 -2.66077E+03  1.31064E+04 -1.08841E+04  1.14775E+04 -1.46986E+04  2.46098E+03 -1.17064E+04 -3.44827E+03
 -4.74131E+03 -1.05600E+04  5.22054E+01 -6.94902E+03  2.92550E+03 -3.18723E+03  3.20500E+03 -3.27323E+03
  1.99637E+03 -1.89313E+03  3.43307E+03 -3.19117E+03  5.17444E+03 -1.28671E+03  5.31503E+03  6.48087E+02
  7.12481E+03  2.51925E+03  3.65202E+03  4.08279E+03 -1.49810E+03  4.92762E+03 -6.44639E+03  4.35022E+03
 -8.40042E+03 -1.13757E+02 -4.25486E+03 -6.08638E+03 -1.61571E+02 -8.20541E+03  5.77131E+03 -8.56237E+03
  7.86543E+03 -4.94756E+03  1.01054E+04  1.10523E+03  7.38088E+03  7.43120E+03  1.27764E+03  9.05204E+03
 -3.53414E+03  8.15168E+03 -6.19050E+03  1.93246E+03 -1.96270E+03 -5.75482E+02 -1.09618E+03 -1.46845E+03
 -7.03723E+02  8.51354E+02 -1.27646E+03  3.11423E+03 -3.79866E+03  8.87509E+02 -5.59880E+03 -4.97280E+02
 -3.53777E+03 -5.33934E+03  7.62875E+02 -6.57344E+03  4.18604E+03 -5.97223E+03  6.53793E+03 -2.35673E+03
  7.92155E+03  4.47166E+03  3.22169E+03  6.74179E+03 -1.31185E+03  7.53552E+03 -5.33963E+03  3.83016E+03
 -5.06489E+03  3.81072E+02 -5.08746E+03 -3.88231E+03 -1.32885E+03 -5.91002E+03  2.73455E+03 -4.45509E+03
  3.87599E+03 -1.97112E+03  3.43244E+03  7.74142E+02  1.33464E+02  3.09680E+03  1.88982E+03  1.27440E+03
  2.03666E+03  9.23398E+02  1.60644E+03  5.28823E+02  2.65812E+03  2.68037E+03  8.35839E+02  2.86383E+03
 -2.14763E+03  5.54888E+03 -4.98785E+03  6.83068E+03 -6.43701E+03  1.42093E+03 -7.15570E+03 -1.20407E+03
 -3.11726E+03 -7.63486E+03  2.07297E+03 -6.42679E+03  3.86538E+03 -4.79551E+03  5.97412E+03 -2.14894E+03
  4.05919E+03  2.15970E+03  3.08255E+02  4.29781E+03 -9.26299E+02  2.31393E+03 -1.74456E+03 -1.05471E+03
 -1.28906E+03 -2.13593E+03  7.81162E+02 -3.05637E+03  2.98436E+03 -1.04638E+03  2.77946E+03  1.55231E+03
  1.70582E+03  7.55916E+02  3.43063E+02  1.33438E+03 -1.82730E+02  3.70684E+02  5.31430E+02 -9.19052E+02
  1.10163E+03  8.36619E+01  2.81333E+03  1.12448E+03  3.01439E+02  3.29104E+03 -1.07779E+03  4.69979E+03
 -2.72854E+03  3.41269E+03 -4.08849E+03  7.45294E+02 -4.32237E+03 -1.48169E+03 -1.58293E+03 -1.63161E+02
  1.05915E+03 -2.48751E+03  1.35932E+03 -3.04461E+03  5.52107E+02  1.40674E+03  1.93550E+02  2.24382E+03
 -2.04694E+03  1.29886E+03 -1.98779E+03 -2.15627E+03 -5.37641E+02 -1.97708E+03  9.61523E+02 -4.09703E+03
  1.75717E+03 -1.20582E+03  3.14279E+03  2.54324E+02  2.28352E+03  1.75103E+02  5.75413E+02  1.38490E+03
 -1.90363E+03  2.18559E+02 -2.14554E+03 -2.04097E+02  4.73297E+02 -2.52631E+03  3.50340E+03 -1.99323E+03
  3.23087E+03 -1.03996E+03  3.03744E+03  2.09730E+03  1.36472E+03  4.43446E+03 -1.68471E+03  3.56594E+03
 -1.57362E+03  2.14075E+03 -3.50472E+03 -8.53102E+02 -1.39976E+03 -3.10994E+03  7.45605E+02 -2.47951E+03
  3.87302E+03 -1.23220E+03  1.56043E+03  8.02623E+02 -4.44109E+02  1.86434E+03  1.25967E+01  1.36062E+03
 -1.30150E+03  8.00752E+02 -2.17457E+02 -1.59951E+02  6.54858E+02  7.33374E+02 -1.32796E+03  1.54483E+03
 -1.14906E+03  1.29966E+03 -3.49874E+03  3.83794E+02 -3.05699E+03  1.07147E+03 -4.48590E+03 -3.06212E+03
 -1.77139E+03 -5.25724E+03  1.53891E+03 -4.91879E+03  3.80849E+03 -5.24270E+03  5.20145E+03 -1.63876E+03
  5.33807E+03  7.05413E+02  2.63916E+03  3.33233E+03 -2.93547E+02  4.40277E+03 -6.26042E+02  7.31920E+02
 -1.64184E+03  1.46995E+03  4.79991E+02 -1.37189E+02 -7.10966E+02  2.92643E+02 -8.94032E+02  8.45508E+00
 -1.18369E+03 -7.50973E+02 -6.86863E+02 -5.07461E+02  8.43111E+02 -8.94649E+02 -4.76307E+02 -1.57662E+03
  2.17573E+03 -1.67973E+02  1.57543E+03  2.88614E+02  3.66685E+03  2.57406E+03 -8.11634E+02  3.25182E+03
 -2.09071E+03  4.05504E+03 -3.50544E+03  3.32205E+03 -3.94879E+03  5.99265E+02 -2.30104E+03 -2.87090E+03
 -1.49552E+03 -2.71146E+03  1.09945E+03 -2.95883E+03  1.46592E+03 -1.21830E+03  1.97569E+03  1.33625E+02
  2.86625E+03  6.05827E+02  3.36908E+01  3.68769E+02 -7.20739E+02  1.15198E+03  9.81551E+02 -3.48759E+02
  4.66911E+02  4.75168E+02  7.12088E+02  5.44861E+02  5.13679E+02  4.70322E+02  2.96514E+01  6.89585E+02
 -1.22017E+02  2.07267E+03 -1.70047E+03 -1.04020E+03 -1.96593E+03 -2.80395E+03  6.55980E+02 -1.86971E+03
  1.58118E+03 -3.00399E+03  1.19180E+03 -5.43053E+02  2.42008E+03 -4.91341E+02  1.81654E+03  2.49071E+03
  2.44379E+02  5.61680E+02  4.56454E+02  2.12129E+03 -1.38975E+03  1.73748E+03 -9.46889E+02  6.81703E+02
  2.43044E+02 -6.71818E+02 -9.38409E+02  9.78855E+01 -4.77908E+02  6.73908E+02 -2.82804E+03 -1.30216E+03
 -9.41281E+02 -7.14185E+02  7.67131E+02 -1.94382E+03  1.15134E+03 -2.93269E+03  9.18021E+02 -5.47673E+02
  2.90616E+03 -7.02171E+02 -1.81127E+02  2.11277E+03  5.04918E+01  2.01172E+03 -1.80245E+03  1.44078E+03
