 $NMID ID='MM_0lb_SNR200_14hz_g60_21.RAW', FMTDAT='(8E13.5)'
 TRAMP=1., VOLUME=1. $END
  3.10623E+05 -6.94737E+02  3.37402E+05  2.50455E+05  8.39860E+04  3.37863E+05 -1.32579E+05  2.50225E+05
 -1.89000E+05  8.25737E+04 -1.11839E+05 -3.40584E+04 -9.29647E+02 -5.10385E+04  5.48423E+04 -6.26089E+02
  3.51463E+04  5.31746E+04 -1.55737E+04  7.57824E+04 -6.04169E+04  6.46404E+04 -8.45652E+04  3.33015E+04
 -8.19695E+04 -1.12816E+04 -5.74578E+04 -5.16108E+04 -1.63383E+04 -6.97748E+04  2.78403E+04 -4.58146E+04
  4.03209E+04  4.42725E+03  1.72544E+04  4.73533E+04 -3.50482E+04  4.66886E+04 -6.74213E+04 -6.64769E+02
 -5.36694E+04 -5.64216E+04 -6.15979E+03 -7.70284E+04  3.41049E+04 -5.61531E+04  4.91438E+04 -1.70736E+04
  4.40077E+04  1.28472E+04  3.30430E+04  2.62219E+04  1.56354E+04  3.00738E+04 -6.81298E+03  2.70176E+04
 -2.22122E+04  1.15279E+04 -1.78031E+04 -5.40339E+03  6.26749E+03 -8.53231E+03  2.32223E+04  1.28851E+04
  5.99640E+03  3.51888E+04 -3.31669E+04  3.53419E+04 -6.48692E+04  1.81278E+03 -5.89611E+04 -4.44269E+04
 -1.30573E+04 -6.32634E+04  4.02992E+04 -4.53110E+04  5.88415E+04 -3.08891E+03  3.53721E+04  3.32879E+04
 -5.77694E+03  3.80000E+04 -2.90536E+04  1.69611E+04 -3.21426E+04 -4.68883E+03 -1.75970E+04 -1.06352E+04
 -8.31115E+03 -1.34297E+04 -1.11351E+03 -1.80457E+04  7.58226E+03 -2.32085E+04  1.54211E+04 -1.20546E+04
  1.16391E+04  4.48395E+03 -8.45996E+03  1.29984E+04 -2.28107E+04 -5.86674E+03 -9.41158E+03 -3.41332E+04
  2.27376E+04 -4.46317E+04  4.94488E+04 -2.06640E+04  4.66005E+04  2.03675E+04  1.57331E+04  4.53379E+04
 -1.58483E+04  3.40776E+04 -2.54650E+04  1.18404E+03 -1.14157E+04 -2.84871E+04  2.16597E+04 -3.43936E+04
  4.24381E+04 -1.06533E+04  3.78904E+04  2.41374E+04  1.87534E+04  4.87652E+04 -6.64560E+03  5.37882E+04
 -3.26906E+04  3.58256E+04 -4.30613E+04  1.09130E+04 -4.36669E+04 -1.71023E+04 -2.58269E+04 -3.92427E+04
  8.91693E+03 -4.02749E+04  3.20624E+04 -1.56049E+04  3.01591E+04  1.16795E+04  4.34732E+03  1.97840E+04
 -1.39167E+04  9.04630E+03 -1.13657E+04 -7.11804E+03  4.50804E+03 -1.01038E+04  1.80944E+04  4.56743E+03
  1.44339E+04  2.36520E+04 -5.34751E+03  2.55597E+04 -2.21366E+04  1.39571E+04 -2.85954E+04 -4.37330E+03
 -2.26625E+04 -1.68214E+04 -8.71312E+03 -2.12514E+04  5.74556E+03 -2.12821E+04  1.74647E+04 -2.02367E+04
  2.77794E+04 -1.38453E+04  3.48033E+04  3.07764E+03  2.44525E+04  2.10067E+04  3.77495E+03  3.81479E+04
 -1.84905E+04  3.25802E+04 -2.85369E+04  9.58215E+03 -2.10604E+04 -9.55234E+03 -4.64665E+03 -1.38836E+04
  2.23568E+03 -1.90797E+03 -5.66002E+03  7.55223E+03 -1.68972E+04  4.80997E+03 -1.82303E+04 -8.89702E+03
 -1.05712E+04 -2.00911E+04  5.16195E+03 -2.45851E+04  1.56267E+04 -1.79752E+04  1.85513E+04 -2.02066E+03
  1.11717E+04  1.43540E+04 -9.34733E+02  2.01130E+04 -1.30009E+04  1.16597E+04 -2.05380E+04 -5.06406E+03
 -1.42270E+04 -1.94357E+04 -2.01355E+03 -2.34386E+04  1.15514E+04 -2.13177E+04  1.98112E+04 -9.18091E+03
  1.88900E+04 -3.11275E+02  1.29602E+04  3.94784E+03  6.26389E+03  1.63756E+03  1.03227E+04 -2.27916E+03
  1.82145E+04  3.21729E+03  2.21370E+04  1.58959E+04  1.42963E+04  3.28025E+04 -3.20805E+03  3.65349E+04
 -2.09220E+04  3.03858E+04 -3.29969E+04  1.59386E+04 -3.58352E+04 -3.65426E+03 -2.89335E+04 -2.22278E+04
 -1.25319E+04 -2.93649E+04  1.17242E+04 -2.60708E+04  2.36693E+04 -1.44557E+04  2.10994E+04  6.11702E+03
  6.47619E+03  1.49971E+04 -9.62930E+03  1.41952E+04 -1.73556E+04  2.98390E+03 -1.34142E+04 -1.05896E+04
  9.88417E+02 -1.66237E+04  8.18993E+03 -1.29053E+04  1.02808E+04 -2.79643E+02  1.51571E+03  6.17025E+03
 -7.87862E+03  2.29879E+03 -6.44154E+03 -5.63504E+03 -9.89254E+02 -1.43698E+04  1.03316E+04 -1.69413E+04
  1.72385E+04 -8.72705E+03  2.02253E+04  2.05378E+03  1.66304E+04  1.44371E+04  7.93444E+03  2.09389E+04
 -3.39772E+03  2.38938E+04 -1.59842E+04  1.55698E+04 -1.72714E+04  2.61259E+03 -1.23125E+04 -5.57872E+03
 -5.44247E+03 -5.72685E+03 -9.14113E+02  5.98765E+02 -2.26213E+03  3.51191E+03 -6.11922E+03  2.87041E+03
 -1.22102E+04 -1.02765E+02 -1.10482E+04 -9.37153E+03 -4.61651E+03 -1.55955E+04  4.22113E+03 -1.18267E+04
  9.78039E+03 -5.58312E+03  7.31693E+03  3.18821E+03  9.21848E+02  4.92355E+03 -6.05313E+03 -1.66772E+03
 -5.36188E+03 -7.42733E+03 -1.18091E+03 -1.20453E+04  5.52698E+03 -1.37523E+04  1.55181E+04 -8.07985E+03
  1.75971E+04  1.04030E+03  1.29067E+04  9.43936E+03  2.46591E+03  1.36038E+04 -6.41124E+03  1.23509E+04
 -8.84080E+03  3.08237E+03 -5.08061E+03 -2.03115E+03  1.84269E+03 -3.55208E+03  5.02068E+03 -7.49743E+02
  6.47473E+03  5.16097E+03  9.74945E+02  1.02598E+04 -7.57322E+03  9.21502E+03 -1.06173E+04  2.62865E+03
 -8.05007E+03 -6.77589E+03 -2.63271E+02 -9.89481E+03  5.32422E+03 -6.22490E+03  6.85300E+03  2.12663E+03
  6.89263E+02  6.41548E+03 -6.96356E+03  7.47623E+03 -9.47629E+03  4.26528E+03 -1.00944E+04 -3.20400E+03
 -5.17679E+03 -1.00445E+04  1.68057E+03 -1.29538E+04  1.03035E+04 -6.34832E+03  1.13573E+04  1.30442E+03
  6.88074E+03  8.28378E+03 -9.63574E+02  1.17087E+04 -8.99643E+03  5.42403E+03 -7.55736E+03 -6.96853E+02
 -8.00535E+03 -6.98780E+03 -1.34418E+03 -7.13457E+03  4.20469E+03 -7.74029E+03  4.88474E+03 -3.39602E+03
  3.57168E+03  8.00975E+02 -4.94400E+01  1.93314E+03  1.29329E+03 -2.82978E+03  2.09726E+03 -2.76529E+03
  7.33811E+03 -1.92349E+03  1.11039E+04  1.17416E+03  1.04941E+04  7.05844E+03  7.97417E+03  1.32875E+04
 -3.45688E+03  1.57473E+04 -1.37570E+04  1.07946E+04 -1.62655E+04  1.95789E+03 -1.30016E+04 -6.02229E+03
 -6.33443E+03 -1.10905E+04  4.72265E+01 -8.98715E+03  3.42513E+03 -5.22237E+03  4.47454E+03 -3.49901E+03
  1.79472E+03 -1.16920E+03  3.07667E+03 -2.80179E+03  4.94117E+03 -2.19353E+03  5.63996E+03 -6.59514E+02
  6.72003E+03  1.16989E+03  4.02209E+03  6.62367E+03 -1.33979E+03  6.57771E+03 -7.89733E+03  5.40330E+03
 -9.30237E+03 -1.10640E+03 -4.84593E+03 -5.85596E+03  1.01417E+02 -1.00358E+04  4.89688E+03 -9.38024E+03
  1.05217E+04 -5.59464E+03  1.15244E+04  6.71884E+02  9.19647E+03  8.03194E+03  1.66707E+03  1.05223E+04
 -4.98573E+03  7.86852E+03 -6.54307E+03  3.67988E+03 -3.05980E+03 -1.92446E+03 -2.86161E+03 -2.36161E+03
 -5.65144E+02  4.95989E+02 -6.08707E+02  2.41306E+03 -3.94190E+03  1.65241E+03 -4.99234E+03 -1.78321E+03
 -4.25339E+03 -6.96686E+03  8.10174E+02 -8.33104E+03  6.48333E+03 -8.30729E+03  7.81587E+03 -1.04954E+03
  9.52173E+03  4.87786E+03  3.93046E+03  7.09089E+03 -2.26037E+03  9.19228E+03 -5.14163E+03  4.96859E+03
 -7.31551E+03 -1.12840E+02 -6.20388E+03 -5.17351E+03 -1.11274E+02 -6.64621E+03  3.77427E+03 -5.27599E+03
  4.80086E+03 -1.24136E+03  3.43612E+03  2.05457E+03  1.74274E+03  1.88943E+03  7.73621E+02  1.21469E+03
  2.63934E+03  9.77804E+02  1.97950E+03  1.41494E+03  2.40708E+03  2.93961E+03  6.94658E+02  4.58026E+03
 -3.44314E+03  6.59185E+03 -5.66442E+03  8.18772E+03 -9.57324E+03  1.43692E+03 -8.75034E+03 -3.12660E+03
 -3.14402E+03 -8.60319E+03  7.64096E+02 -9.17306E+03  5.66220E+03 -5.20710E+03  7.97300E+03 -1.89912E+03
  7.12432E+03  4.10705E+03  1.30011E+03  6.06900E+03 -3.07102E+03  2.44941E+03 -3.58293E+03  1.43289E+02
 -1.95025E+03 -3.30462E+03  1.77547E+03 -4.31707E+03  3.75368E+03 -2.22444E+03  2.40589E+03  9.55420E+02
  1.33341E+03  7.84416E+02  1.01907E+03  8.42766E+01 -9.29962E+02  8.21609E+02  6.92651E+02 -2.04172E+03
  4.24797E+02  7.31545E+01  3.99380E+03  1.72415E+03  1.44914E+03  4.57047E+03 -1.61631E+03  4.90956E+03
 -4.14150E+03  3.88508E+03 -4.93368E+03  5.47281E+02 -4.42252E+03 -1.02165E+03 -2.75034E+03 -2.69723E+03
  9.84051E+02 -3.21162E+03  2.30684E+03 -1.62735E+03  2.25927E+03  2.80287E+03 -8.42488E+02  2.82536E+03
 -4.30464E+03  1.13981E+03 -3.33961E+03 -1.52540E+03 -2.21860E+03 -5.43467E+03  1.12646E+03 -4.07373E+03
  2.22266E+03 -2.39256E+03  3.60597E+03 -1.44102E+03  1.97846E+03  2.54139E+02  2.50751E+02  1.14553E+03
 -1.19149E+03  9.88401E+02 -2.56085E+03 -1.87141E+03  7.15797E+02 -2.57276E+03  4.09821E+03 -2.53307E+03
  5.33436E+03  2.02749E+02  5.34715E+03  3.75436E+03  1.09905E+03  4.05677E+03 -2.55313E+03  5.97953E+03
 -3.07777E+03  9.17898E+02 -4.25417E+03 -1.00417E+03 -3.14273E+03 -3.48223E+03  1.06170E+03 -2.11174E+03
  3.48246E+03 -1.26991E+03  2.33696E+03  4.38240E+02 -5.08456E+02  3.50621E+03  7.85290E+02  1.44283E+03
 -1.17558E+03  1.19674E+03 -4.90511E+02  5.90364E+02 -4.46342E+02  1.70666E+03 -1.33495E+03  1.49744E+03
  1.82688E+02  2.02267E+03 -2.63957E+03  4.17897E+02 -5.74836E+03  1.07680E+03 -5.13292E+03 -1.89285E+03
 -3.05265E+03 -6.42956E+03  5.04864E+02 -6.49569E+03  4.42857E+03 -4.52461E+03  7.81341E+03 -2.35124E+03
  5.18144E+03 -4.87345E+02  2.80035E+03  3.98795E+03  4.22792E+02  3.40037E+03 -2.26668E+03  3.25907E+03
 -2.57624E+03  1.52835E+03 -1.25525E+03 -3.18425E+01  4.60754E+02  1.11282E+03 -2.04531E+03  7.57537E+02
 -1.71015E+03  3.69150E+02 -1.18919E+03  5.60200E+02 -7.70749E+02 -1.13494E+03  3.13075E+02 -7.55437E+02
  2.69172E+03 -1.66170E+03  1.96472E+03  1.07282E+02  2.49475E+03  4.11477E+03  6.31457E+01  5.17706E+03
 -2.40513E+03  5.91720E+03 -4.19877E+03  3.53311E+03 -4.12675E+03 -6.95544E+02 -4.01891E+03 -3.17328E+03
 -8.84669E+02 -3.49790E+03  2.08098E+03 -2.66815E+03  3.35792E+03 -2.77349E+03  3.26014E+03 -5.79281E+02
  1.94024E+03  1.05332E+03  3.12085E+02  6.86742E+02 -4.51500E+01 -9.02219E+01  1.58705E+03 -8.10070E+02
  7.57396E+02 -5.69411E+02  7.19835E+02  6.41230E+02  1.12405E+03  3.81347E+03  7.41846E+02  1.84745E+03
 -2.35267E+03  5.78618E+02 -1.67246E+03  4.96397E+01 -1.61544E+03 -3.39439E+02 -1.48540E+03 -3.44663E+03
  7.78453E+02 -1.69056E+03  2.14574E+03 -1.35491E+03  1.43855E+03  3.91139E+02  1.43852E+03  2.17177E+03
  7.94562E+01  2.36490E+03 -1.99535E+03  1.93240E+03 -1.77862E+03  2.06735E+03 -1.88389E+03  1.58337E+02
 -8.96336E+02 -5.75983E+02 -1.31804E+03  9.92053E+02 -1.47221E+03 -6.26012E+02 -2.34407E+03 -2.05786E+03
 -1.34183E+03 -1.08510E+03 -1.01083E+03 -2.91904E+03  1.55019E+03 -3.62851E+03  2.40965E+03 -9.18380E+02
  1.85364E+03  1.34519E+03 -8.37129E+01  6.78693E+02 -9.21341E+01  2.11294E+03 -5.47779E+02  9.45518E+02
