 $NMID ID='MM_0lb_SNR200_10hz_g50_24.RAW', FMTDAT='(8E13.5)'
 TRAMP=1., VOLUME=1. $END
  3.10469E+05  2.08448E+03  3.37117E+05  2.51392E+05  8.71987E+04  3.37870E+05 -1.31691E+05  2.52689E+05
 -1.89419E+05  8.51657E+04 -1.11505E+05 -3.28482E+04 -5.85920E+01 -5.17064E+04  5.47596E+04 -9.40551E+02
  3.55629E+04  5.21784E+04 -1.69296E+04  7.54367E+04 -6.13313E+04  6.26657E+04 -8.45797E+04  3.29814E+04
 -8.17778E+04 -1.08908E+04 -5.77824E+04 -5.32068E+04 -1.32805E+04 -7.04869E+04  2.79085E+04 -4.72979E+04
  4.22223E+04  4.91476E+03  1.76228E+04  4.98316E+04 -3.43776E+04  4.84518E+04 -6.82243E+04 -1.30825E+02
 -5.57632E+04 -5.94338E+04 -6.24019E+03 -7.74623E+04  3.58915E+04 -5.71619E+04  4.87468E+04 -1.78223E+04
  4.44761E+04  1.14493E+04  3.19309E+04  2.55818E+04  1.50567E+04  3.16942E+04 -5.76565E+03  2.69642E+04
 -2.23471E+04  1.25727E+04 -1.91380E+04 -5.29898E+03  7.34495E+03 -8.01940E+03  2.36029E+04  1.57628E+04
  7.31253E+03  3.82705E+04 -3.35916E+04  3.64665E+04 -6.52187E+04  1.90669E+03 -5.82178E+04 -4.52187E+04
 -1.22101E+04 -6.60763E+04  4.22295E+04 -4.70870E+04  6.14396E+04 -2.68939E+03  3.76151E+04  3.44036E+04
 -4.85959E+03  3.81498E+04 -3.25353E+04  1.82812E+04 -3.38478E+04 -2.44890E+03 -1.77704E+04 -1.20078E+04
 -8.84752E+03 -1.53721E+04 -6.21521E+02 -1.74288E+04  7.90682E+03 -2.36867E+04  1.51745E+04 -1.38871E+04
  1.11183E+04  6.37145E+03 -1.09216E+04  1.39240E+04 -2.30126E+04 -8.47582E+03 -8.44933E+03 -3.60638E+04
  2.46193E+04 -4.65028E+04  5.03953E+04 -2.13999E+04  4.69592E+04  1.91954E+04  1.61523E+04  4.52108E+04
 -1.54146E+04  3.71780E+04 -2.70457E+04  1.81314E+03 -1.05669E+04 -2.82715E+04  2.06394E+04 -3.57851E+04
  4.27703E+04 -1.02750E+04  3.88762E+04  2.51306E+04  2.17653E+04  5.00454E+04 -8.76112E+03  5.40399E+04
 -3.54148E+04  3.79513E+04 -4.62171E+04  1.04266E+04 -4.64764E+04 -1.83311E+04 -2.55081E+04 -4.25156E+04
  7.88075E+03 -4.06452E+04  3.34245E+04 -1.62287E+04  3.02959E+04  1.05142E+04  4.95623E+03  2.11524E+04
 -1.48365E+04  1.08094E+04 -1.06096E+04 -6.95812E+03  5.29153E+03 -1.09878E+04  1.79750E+04  5.42221E+03
  1.49847E+04  2.39011E+04 -5.53168E+03  2.52464E+04 -2.18385E+04  1.45367E+04 -3.23157E+04 -2.40633E+03
 -2.45466E+04 -1.79478E+04 -1.02875E+04 -2.39323E+04  4.19338E+03 -2.44262E+04  1.94009E+04 -2.23422E+04
  3.19323E+04 -1.43719E+04  3.80637E+04  4.19188E+03  2.69926E+04  2.48844E+04  4.97754E+03  4.01616E+04
 -2.06982E+04  3.34938E+04 -3.04240E+04  1.21441E+04 -2.08980E+04 -1.18791E+04 -5.95378E+03 -1.28770E+04
  9.10705E+02 -8.96921E+02 -7.77781E+03  8.14823E+03 -1.95852E+04  4.87750E+03 -2.05913E+04 -9.67072E+03
 -9.93305E+03 -2.34807E+04  5.88994E+03 -2.67997E+04  1.70272E+04 -2.07541E+04  2.11905E+04 -1.93071E+03
  1.37920E+04  1.58593E+04 -1.07532E+03  2.23375E+04 -1.54543E+04  1.09188E+04 -2.12289E+04 -4.37442E+03
 -1.83846E+04 -1.91603E+04 -1.76071E+03 -2.62375E+04  1.14820E+04 -2.27351E+04  2.21933E+04 -1.11523E+04
  2.05635E+04 -4.02657E+02  1.60103E+04  6.12938E+03  8.62840E+03  1.62165E+03  1.02608E+04 -2.63422E+03
  2.00301E+04  3.62645E+03  2.42402E+04  1.60976E+04  1.50497E+04  3.54589E+04 -3.31722E+03  4.20390E+04
 -2.38396E+04  3.65207E+04 -4.06540E+04  1.83604E+04 -4.24322E+04 -3.96560E+03 -3.37702E+04 -2.48470E+04
 -1.37008E+04 -3.62971E+04  1.24469E+04 -3.02138E+04  2.50214E+04 -1.38288E+04  2.38323E+04  6.06555E+03
  8.19493E+03  1.83672E+04 -1.14381E+04  1.52817E+04 -1.97327E+04  3.94545E+03 -1.35872E+04 -1.19494E+04
 -8.03862E+02 -1.71299E+04  1.09189E+04 -1.31177E+04  1.17733E+04 -1.07422E+03  2.32948E+03  8.83722E+03
 -8.82691E+03  4.29399E+03 -7.69474E+03 -6.40080E+03 -1.37019E+03 -1.72723E+04  1.11340E+04 -1.82093E+04
  2.17741E+04 -1.01301E+04  2.43051E+04  4.13235E+03  2.02230E+04  1.71319E+04  9.73599E+03  2.77646E+04
 -5.14102E+03  3.02646E+04 -1.98251E+04  1.72959E+04 -2.10112E+04  4.56156E+03 -1.49112E+04 -4.78372E+03
 -5.09175E+03 -6.42256E+03 -1.78660E+03  7.17649E+02 -1.68115E+03  3.76548E+03 -7.02722E+03  3.48862E+03
 -1.52117E+04 -4.66599E+02 -1.39789E+04 -1.18371E+04 -4.91516E+03 -1.82091E+04  5.29606E+03 -1.45183E+04
  1.35721E+04 -6.73999E+03  8.47278E+03  4.19254E+03  8.65306E+02  6.17583E+03 -7.36543E+03 -5.05494E+02
 -7.13982E+03 -8.14677E+03 -1.44055E+03 -1.43183E+04  9.62901E+03 -1.55857E+04  1.80314E+04 -7.68328E+03
  2.11772E+04  1.74609E+03  1.51004E+04  1.35060E+04  3.61941E+03  1.66240E+04 -1.05698E+04  1.63642E+04
 -1.14120E+04  3.71062E+03 -6.67350E+03 -3.46251E+03  1.50195E+03 -3.23626E+03  8.03971E+03 -1.29666E+03
  8.06634E+03  6.31347E+03  1.39560E+03  1.19986E+04 -9.64360E+03  1.13735E+04 -1.41207E+04  3.09496E+03
 -9.96970E+03 -8.68402E+03  1.95510E+02 -1.16886E+04  7.38785E+03 -6.38929E+03  6.87590E+03  3.10132E+03
  1.04793E+03  1.01739E+04 -7.59413E+03  1.06455E+04 -1.24201E+04  3.11952E+03 -1.15578E+04 -5.15106E+03
 -6.17362E+03 -1.48677E+04  4.18359E+03 -1.56284E+04  1.28694E+04 -9.04498E+03  1.43890E+04  1.41649E+03
  8.54830E+03  1.24144E+04 -1.88533E+03  1.46961E+04 -1.11958E+04  8.33953E+03 -1.13685E+04 -2.05270E+03
 -9.34524E+03 -9.44819E+03 -2.72685E+03 -1.20664E+04  5.83358E+03 -9.69069E+03  8.64870E+03 -3.76650E+03
  2.58377E+03  1.72579E+03 -6.80522E+02  2.50091E+03 -2.31887E+03 -2.92109E+03  1.62589E+03 -6.94077E+03
  1.01987E+04 -3.16197E+03  1.41603E+04  6.20810E+02  1.46200E+04  1.08510E+04  9.87707E+03  1.92590E+04
 -4.77673E+03  2.15887E+04 -1.76434E+04  1.68498E+04 -2.23601E+04  2.32447E+03 -1.98725E+04 -7.55407E+03
 -9.34967E+03 -1.47616E+04 -9.64815E+02 -1.21511E+04  4.88284E+03 -7.86847E+03  4.19568E+03 -4.61372E+03
  3.94302E+03 -2.96325E+03  3.21286E+03 -4.71362E+03  4.34614E+03 -4.09647E+03  7.45815E+03 -6.40632E+01
  9.97085E+03  2.56987E+03  4.45259E+03  9.02738E+03 -1.78757E+03  9.42466E+03 -1.02530E+04  7.92020E+03
 -1.41029E+04 -1.23326E+03 -8.02027E+03 -9.64896E+03 -1.06360E+03 -1.50466E+04  7.71100E+03 -1.54043E+04
  1.54890E+04 -7.84710E+03  1.79291E+04  1.19029E+03  1.26080E+04  1.22490E+04  1.34717E+03  1.60170E+04
 -7.42287E+03  1.37741E+04 -1.02391E+04  4.41716E+03 -7.04362E+03 -2.41646E+03 -3.48289E+03 -1.94274E+03
 -1.81406E+03 -3.62449E+02 -2.06088E+03  2.59765E+03 -5.24652E+03  2.35772E+03 -8.60561E+03 -2.72430E+03
 -7.73790E+03 -9.62469E+03  1.54262E+03 -1.27743E+04  6.83806E+03 -1.12907E+04  1.40450E+04 -4.57479E+03
  1.30991E+04  5.67619E+03  6.12446E+03  1.31147E+04 -3.69301E+03  1.41461E+04 -1.15748E+04  6.95047E+03
 -1.32623E+04 -9.12272E+01 -1.01165E+04 -8.01515E+03 -9.16937E+02 -1.15890E+04  4.81854E+03 -8.37621E+03
  8.29637E+03 -1.87547E+03  4.87924E+03  1.70815E+03  4.26061E+03  3.26268E+03  2.37796E+03  1.92415E+03
  1.58826E+03  5.13132E+02  4.30916E+03  1.09366E+03  5.78292E+03  4.09108E+03  4.31785E+03  7.03504E+03
 -3.82413E+03  9.80039E+03 -8.10585E+03  9.78704E+03 -1.35237E+04  2.82595E+03 -1.51155E+04 -4.48946E+03
 -4.61422E+03 -1.40783E+04  2.49934E+03 -1.45983E+04  7.65012E+03 -1.00894E+04  1.17880E+04 -2.72453E+03
  8.60424E+03  5.45129E+03  1.37403E+03  7.01301E+03 -3.43510E+03  5.20277E+03 -5.14205E+03  4.38133E+02
 -3.79644E+03 -6.50471E+03  3.08538E+03 -6.34892E+03  6.63681E+03 -2.73636E+03  4.06897E+03  6.48635E+02
  2.20293E+03  8.05185E+02  9.88863E+02  2.04304E+03 -7.80784E+02  1.97685E+03  1.00149E+03 -4.62290E+01
  1.71912E+03 -1.56148E+03  6.64017E+03  3.67995E+03  3.59129E+03  6.46093E+03 -6.25653E+01  9.97585E+03
 -5.60584E+03  5.10463E+03 -9.97304E+03  7.36010E+02 -8.59030E+03 -3.20222E+03 -1.91173E+03 -5.17194E+03
  1.08910E+03 -6.17493E+03  3.46238E+03 -2.92733E+03  3.32830E+03  3.54882E+03 -4.17510E+02  4.84855E+03
 -4.58876E+03  2.45657E+03 -6.98143E+03 -3.95566E+03 -3.40224E+03 -5.71777E+03  1.35721E+03 -6.82010E+03
  3.27046E+03 -4.59952E+03  4.96726E+03 -5.21676E+01  4.79010E+03  2.75495E+03  5.85954E+02  3.38131E+03
 -2.57764E+03  1.51277E+03 -3.32808E+03 -3.82251E+03  1.02728E+03 -5.93795E+03  6.73805E+03 -4.82535E+03
  9.28409E+03 -1.28863E+03  9.66034E+03  4.92274E+03  2.37005E+03  8.50666E+03 -9.85629E+02  8.25820E+03
 -6.54776E+03  4.47872E+03 -6.76364E+03 -1.84005E+03 -3.09590E+03 -6.55370E+03  1.33740E+03 -3.54766E+03
  5.71036E+03 -2.33497E+03  4.34678E+03  2.21733E+03  8.62619E+02  3.83190E+03 -1.25633E+03  5.45507E+03
 -3.27682E+03  7.15681E+02 -2.08845E+03 -1.38060E+02 -1.37127E+03  7.78773E+02 -2.16294E+03  2.27523E+03
 -3.02257E+03  4.93346E+03 -6.27545E+03  2.20308E+03 -7.17332E+03  1.40008E+03 -8.31148E+03 -5.17507E+03
 -5.08108E+03 -1.31075E+04  3.08887E+03 -1.27782E+04  7.60942E+03 -1.06066E+04  1.23762E+04 -3.17734E+03
  1.14407E+04  2.09402E+03  6.86084E+03  7.70239E+03  9.25977E+02  8.96371E+03 -3.40449E+03  7.10264E+03
 -5.12241E+03  2.15732E+03 -3.27406E+03 -3.43351E+02 -8.74785E+02 -5.98042E+02 -1.30153E+03 -6.68415E+02
 -1.91679E+03  3.83005E+02 -2.07258E+03 -1.27270E+03 -1.95083E+02 -3.46792E+03 -7.41736E+02 -2.83706E+03
  4.95976E+03 -2.16876E+03  6.63083E+03 -7.46816E+02  6.07940E+03  5.41271E+03  2.46724E+03  9.22086E+03
 -2.89416E+03  1.01091E+04 -8.39396E+03  6.09448E+03 -1.14252E+04 -4.54430E+02 -9.11200E+03 -6.62099E+03
 -3.17245E+03 -7.62289E+03  2.52882E+03 -8.77893E+03  5.74633E+03 -3.88199E+03  6.89063E+03  4.05006E+02
  1.55587E+03  3.31088E+03 -3.99316E+02  2.24729E+03 -1.67391E+03  6.60728E+02  8.53524E+01 -1.98883E+03
  1.88505E+03 -3.08201E+02  3.15203E+03  2.40861E+03  1.94021E+03  4.56067E+03 -4.18461E+02  3.64150E+03
 -4.10301E+03  5.30158E+03 -5.14304E+03  2.88282E+03 -4.90062E+03 -3.13387E+03 -2.12742E+03 -6.85764E+03
  3.11053E+03 -5.78459E+03  5.89456E+03 -1.79693E+03  7.94660E+03  2.10082E+03  4.36516E+03  5.01771E+03
  1.03095E+03  5.08517E+03 -1.30444E+03  3.66848E+03 -4.13514E+03  8.03728E+02 -2.97120E+03 -5.79544E+02
 -1.74577E+03  1.50011E+02 -1.86624E+03  7.51291E+02 -4.17120E+03  8.69985E+02 -5.64770E+03 -5.69057E+02
 -4.23193E+03 -2.27336E+03 -2.47559E+03 -6.43030E+03  2.68820E+03 -6.74044E+03  4.46964E+03 -2.79135E+03
  6.31713E+03  1.31564E+03  2.85317E+03  3.89153E+03  3.96040E+02  5.47481E+03 -5.00707E+03  3.00015E+03
