 $NMID ID='MM_0lb_SNR200_20hz_g40_17.RAW', FMTDAT='(8E13.5)'
 TRAMP=1., VOLUME=1. $END
  3.08991E+05  1.12301E+03  3.37153E+05  2.50810E+05  8.49651E+04  3.37027E+05 -1.32729E+05  2.50323E+05
 -1.88987E+05  8.28286E+04 -1.10502E+05 -3.22568E+04  2.34532E+03 -5.06251E+04  5.31078E+04 -1.14632E+02
  3.49829E+04  5.31218E+04 -1.70315E+04  7.41865E+04 -5.94407E+04  6.16532E+04 -8.35412E+04  3.07672E+04
 -7.83095E+04 -1.10826E+04 -5.51486E+04 -4.97974E+04 -1.53267E+04 -6.76506E+04  2.59544E+04 -4.42875E+04
  3.93539E+04  4.07960E+03  1.47763E+04  4.70393E+04 -3.44900E+04  4.60429E+04 -6.41651E+04 -2.85520E+02
 -5.06257E+04 -5.53582E+04 -6.20701E+03 -7.38594E+04  3.29322E+04 -5.23516E+04  4.48097E+04 -1.52624E+04
  4.06979E+04  1.10879E+04  2.94264E+04  2.37934E+04  1.57029E+04  2.70734E+04 -4.57509E+03  2.62149E+04
 -2.08880E+04  1.31033E+04 -1.95544E+04 -3.59639E+03  3.05425E+03 -6.73885E+03  2.08924E+04  1.06372E+04
  6.95074E+03  3.24722E+04 -2.87464E+04  3.30660E+04 -6.02928E+04  2.49300E+03 -5.44573E+04 -3.95735E+04
 -1.17763E+04 -5.86328E+04  3.71338E+04 -4.26326E+04  5.47385E+04 -2.22424E+03  3.10190E+04  2.84580E+04
 -7.61300E+03  3.20218E+04 -2.81674E+04  1.22585E+04 -2.69680E+04 -5.23697E+03 -1.26693E+04 -1.02030E+04
 -7.01206E+03 -1.07182E+04 -5.11000E+02 -1.66641E+04  5.20784E+03 -2.19991E+04  1.59950E+04 -1.39017E+04
  1.28796E+04  4.60032E+03 -4.44179E+03  1.35962E+04 -1.81646E+04 -1.19489E+03 -7.86456E+03 -2.80874E+04
  1.93280E+04 -4.00013E+04  4.28874E+04 -1.87399E+04  4.08707E+04  1.88487E+04  1.36346E+04  4.08051E+04
 -1.55355E+04  2.91388E+04 -2.20219E+04  1.78743E+03 -7.37530E+03 -2.54208E+04  1.94058E+04 -3.04048E+04
  3.61001E+04 -7.37291E+03  2.91927E+04  2.23933E+04  1.31815E+04  4.00767E+04 -7.66450E+03  4.35919E+04
 -2.58290E+04  2.79132E+04 -3.46106E+04  7.28954E+03 -3.59460E+04 -1.36836E+04 -2.03938E+04 -3.33477E+04
  6.75219E+03 -3.16668E+04  2.79299E+04 -1.13160E+04  2.48776E+04  1.09826E+04  2.26050E+03  1.70324E+04
 -1.36128E+04  5.85523E+03 -9.61789E+03 -7.76503E+03  6.39717E+03 -1.00217E+04  1.67855E+04  6.60148E+03
  1.10237E+04  2.13521E+04 -6.83879E+03  2.25122E+04 -2.02781E+04  8.36756E+03 -2.44335E+04 -6.69316E+03
 -1.58450E+04 -1.61174E+04 -4.34972E+03 -1.54028E+04  3.18395E+03 -1.14090E+04  1.05798E+04 -1.19754E+04
  1.94746E+04 -1.08089E+04  2.63695E+04 -6.92005E+02  1.97993E+04  1.50177E+04  3.77026E+03  3.02129E+04
 -1.53348E+04  2.69858E+04 -2.47922E+04  8.31743E+03 -1.97297E+04 -1.01325E+04 -4.13109E+03 -1.51879E+04
  3.38914E+03 -4.13361E+03 -1.88218E+03  5.59017E+03 -1.11376E+04  5.92987E+03 -1.23545E+04 -4.81950E+03
 -8.51000E+03 -1.45595E+04  4.85409E+03 -1.84956E+04  1.25150E+04 -1.25136E+04  1.24921E+04 -1.74079E+03
  7.93086E+03  1.05173E+04 -2.13381E+02  1.43731E+04 -9.36231E+03  7.34863E+03 -1.43486E+04 -3.09575E+03
 -1.05543E+04 -1.23969E+04 -2.28365E+03 -1.74724E+04  7.45914E+03 -1.35659E+04  1.44759E+04 -5.20936E+03
  1.31170E+04  6.89219E+02  8.83540E+03  3.07267E+03  5.42376E+03  5.24966E+02  5.27094E+03 -1.24717E+03
  1.11794E+04  3.16332E+03  1.26909E+04  1.06800E+04  7.05728E+03  2.24595E+04 -2.83298E+03  2.39181E+04
 -1.48180E+04  1.67385E+04 -2.00111E+04  8.72916E+03 -2.19168E+04 -2.06658E+03 -1.99749E+04 -1.23677E+04
 -9.07989E+03 -1.68738E+04  5.72723E+03 -1.64067E+04  1.55993E+04 -1.07411E+04  1.38052E+04  2.06159E+03
  6.89807E+03  8.90602E+03 -7.13572E+03  9.59289E+03 -1.25681E+04  2.73692E+03 -9.71235E+03 -7.58317E+03
 -2.16709E+02 -1.08910E+04  6.14123E+03 -9.40225E+03  6.06651E+03 -1.03746E+03  1.12774E+03  3.35149E+03
 -4.14784E+03  1.70369E+02 -3.69506E+03 -4.13251E+03  1.10150E+03 -9.26085E+03  8.27399E+03 -8.57966E+03
  1.05820E+04 -2.68667E+03  1.02214E+04  2.32855E+03  8.45986E+03  8.85443E+03  4.63018E+03  1.10855E+04
 -1.48052E+03  1.26839E+04 -8.13850E+03  8.90864E+03 -9.82802E+03  2.40802E+03 -7.22035E+03 -4.52245E+02
 -4.50554E+03 -2.94046E+03 -1.37745E+03  1.66441E+03 -1.28982E+03  9.94852E+02 -3.23244E+03  3.49003E+03
 -6.44875E+03 -4.37038E+02 -7.71433E+03 -6.05513E+03 -3.47916E+03 -1.06144E+04  2.95430E+03 -7.85431E+03
  5.94838E+03 -3.90168E+03  4.97905E+03  1.79291E+03  4.25393E+02  3.90178E+03 -3.34989E+03  6.26288E+02
 -3.04715E+03 -4.92270E+03 -5.33746E+02 -6.00189E+03  3.19463E+03 -6.04438E+03  8.27111E+03 -3.48001E+03
  1.09444E+04  4.67636E+02  7.42416E+03  4.69955E+03  1.42028E+03  7.29259E+03 -5.26588E+03  8.42017E+03
 -5.62052E+03  2.82538E+03 -2.80424E+03 -5.63393E+02  1.16158E+03 -1.53087E+03  4.10441E+03 -9.11404E+02
  4.59966E+03  3.15102E+03  1.05306E+03  5.36258E+03 -4.66960E+03  5.70233E+03 -6.39636E+03  2.77148E+03
 -4.21414E+03 -2.10719E+03  8.90554E+02 -5.53601E+03  2.63324E+03 -2.95570E+03  3.09934E+03  1.13866E+03
  1.25080E+03  2.14084E+03 -3.83161E+03  3.92591E+03 -3.36703E+03  1.63046E+03 -3.09042E+03 -9.78612E+02
 -2.40998E+03 -4.06776E+03  2.33391E+01 -6.08215E+03  4.12239E+03 -4.09482E+03  5.80533E+03  1.03616E+03
  3.22806E+03  4.57769E+03  1.47886E+01  6.56657E+03 -4.58279E+03  4.50155E+03 -3.91632E+03  1.14706E+02
 -4.45897E+03 -4.22068E+03 -1.14754E+03 -3.98452E+03  2.13988E+03 -5.01657E+03  2.30762E+03 -3.36627E+03
  3.27863E+03 -3.53114E+02 -8.35078E+02  1.59247E+03 -2.51165E+02  3.69318E+01  2.99795E+02 -6.80526E+02
  1.73533E+03 -3.67587E+02  3.14720E+03  4.42213E+02  4.84248E+03  3.04585E+03  4.44331E+03  4.99032E+03
 -1.51385E+03  5.71681E+03 -6.88310E+03  4.25063E+03 -8.25331E+03  7.69787E+02 -5.84474E+03 -8.61318E+02
 -3.74514E+03 -4.73552E+03 -2.33010E+02 -4.10526E+03  1.07899E+03 -9.56965E+02  1.58915E+03 -1.49874E+03
  1.30358E+03 -1.24474E+03  3.28134E+03 -2.41466E+03  3.18002E+03 -1.00108E+03  2.24705E+03  6.55298E+02
  4.68906E+03  1.43384E+03  7.37898E+02  2.44006E+03 -9.51505E+02  2.24909E+03 -3.85049E+03  1.78586E+03
 -2.92174E+03 -4.84641E+02 -1.34579E+03 -4.11757E+03  1.16653E+03 -3.02855E+03  3.73114E+03 -4.55950E+03
  3.79915E+03 -2.68624E+03  6.22754E+03 -3.52498E+02  3.83633E+03  2.70988E+03  1.22726E+03  4.74964E+03
 -7.66249E+02  4.83440E+03 -2.63621E+03  1.68417E+03 -1.96479E+03 -1.92811E+03 -1.20602E+03  4.00270E+01
 -1.79771E+03  1.62603E+01 -4.69304E+01  1.68574E+03 -2.37507E+03  8.79060E+02 -3.12887E+03 -9.98231E+01
 -5.45886E+02 -3.00292E+03  5.73176E+02 -4.06892E+03  8.51955E+02 -4.05563E+03  3.24885E+03  1.25144E+02
  3.24140E+03  2.06098E+03  2.26578E+03  2.11968E+03  3.55888E+01  3.40451E+03 -1.87956E+03  2.90727E+03
 -1.60118E+03  8.51916E+02 -2.46552E+03 -3.43239E+03  9.67354E+02 -2.65712E+03  1.29594E+03 -3.30165E+03
  1.50681E+03 -8.68251E+02  1.38614E+03  8.35525E+02  6.47515E+02  1.57475E+03  2.00720E+03 -5.98267E+01
  2.64433E+03 -5.69952E+02  3.15700E+02  1.18746E+03  8.88213E+02  2.05077E+03  1.45021E+03  1.15050E+03
  1.11234E+02  1.57047E+03 -9.00623E+02  2.47668E+03 -2.45076E+03  8.93930E+02 -2.46502E+03 -1.00823E+03
 -4.06490E+02 -2.45644E+03  8.51833E+02 -4.94567E+03  1.45923E+03 -3.17097E+03  2.60147E+03 -1.31247E+03
  1.93152E+03  2.01935E+03  6.87246E+02  1.52924E+03 -1.11776E+03  1.32157E+03 -5.73265E+02 -4.25033E+02
 -1.31034E+03 -1.38541E+03  6.07514E+02 -1.52675E+02  7.91878E+02 -1.04563E+03  1.53001E+03 -4.24197E+02
  1.05045E+02 -4.46020E+02  4.84195E+02  6.57083E+02 -7.66769E+02  5.39769E+02  1.23082E+03  9.57376E+02
 -5.11789E+02  4.31609E+02  4.78245E+02  3.39097E+02  9.73165E+02  1.92597E+03  1.36140E+03  2.33556E+03
 -5.52669E+02  6.62865E+02 -2.39206E+03  1.00930E+03 -1.43787E+03 -1.37266E+03  6.21390E+02 -8.73044E+02
  4.27516E+02 -1.09074E+03  2.57598E+02 -6.88231E+02  3.10468E+02  1.78912E+03 -1.62778E+03  6.70848E+02
 -1.45228E+03  7.97015E+02 -9.92021E+02 -1.42057E+02 -1.30292E+03 -2.02970E+03  5.10028E+02 -4.47701E+02
  5.49989E+02  6.59101E+02 -8.67232E+01  2.58108E+02  1.47149E+03 -8.49679E+01  2.44698E+02  1.13963E+03
 -6.85546E+02  7.78636E+00 -8.54856E+02 -1.23160E+02  4.82959E+02 -3.47556E+02  1.17928E+03 -7.67767E+02
  1.71351E+02 -9.71833E+02  1.81470E+03  7.64999E+02  9.74932E+02  1.47966E+03  6.95370E+02  4.67400E+02
 -1.67190E+03 -4.39817E+02 -1.39630E+03 -1.24557E+03 -4.71741E+02 -1.21998E+03  3.73441E+02 -3.77653E+02
  9.82222E+02  5.90534E+02  4.04662E+02  5.40234E+02 -3.57054E+02  8.14900E+02  1.59413E+02  9.52249E+02
 -7.59099E+02  8.00058E+02  5.80965E+02  8.49410E+02  1.97303E+02  6.80995E+02 -1.90039E+02  5.37925E+02
 -7.28208E+02  1.75460E+03 -1.18615E+03  9.51245E+02 -1.23897E+03  1.04755E+02 -1.79781E+03 -1.04949E+03
 -5.11631E+02 -1.11998E+03  1.04864E+03 -2.42207E+03 -4.94404E+02 -2.53361E+03  3.67783E+03  2.81065E+02
  1.02469E+03 -1.08556E+03 -4.79883E+02  1.04768E+03 -6.96027E+02  7.76347E+02  3.42502E+02  6.73852E+02
 -2.57799E+02  8.60358E+02  7.36126E+02 -5.01960E+01 -1.53098E+03  1.24643E+03 -3.89600E+02 -3.89292E+01
 -9.24983E+02  8.60830E+02 -1.09921E+03  1.15437E+02  7.02863E+02 -1.79633E+03  6.06483E+02 -9.36086E+02
  1.59136E+03 -6.35522E+02  2.58578E+01  5.08699E+02  8.17759E+02  1.69474E+03 -7.47417E+02  4.38766E+02
 -9.36477E+02  1.62735E+03 -1.50918E+03  1.41006E+03 -5.41988E+02 -6.50253E+02 -5.66310E+02 -1.31753E+03
 -1.65981E+03 -6.46957E+02 -3.45107E+01 -7.99275E+02  8.32072E+02 -2.50044E+02  3.49802E+02  1.48953E+02
  1.05421E+03 -9.13587E+01 -3.56365E+02  8.56268E+01  1.37925E+01 -4.67122E+02  3.11373E+01 -4.63785E+02
 -3.97001E+02 -4.58975E+02  8.27574E+01  3.56569E+02 -2.69601E+02 -3.37928E+02  9.44214E+02 -3.75459E+02
 -7.42468E+02  9.22301E+02  2.87224E+02  6.71710E+02  3.37636E+01 -7.97732E+02  1.14906E+03 -4.39751E+02
  2.68067E+02 -5.99835E+02 -6.85354E+01  4.61550E+02 -1.10760E+02 -6.17362E+02  7.08407E+02  7.21737E+02
 -4.67775E+02 -5.42142E+02  7.33209E+02  7.87454E+02  4.91638E+02  1.55388E+03  3.30725E+02  6.72605E+02
 -2.82007E+02 -1.40660E+03 -7.11705E+02  2.37449E+02 -5.19600E+02 -1.39418E+03  3.25271E+02 -9.40502E+02
 -2.24048E+02 -4.16633E+02 -7.57323E+02 -3.89271E+02  7.20717E+02 -1.34082E+03 -2.15963E+02 -1.13733E+03
  3.85241E+02  1.62615E+02 -4.62198E+02 -1.26940E+02  7.32905E+02  2.40392E+02 -5.05617E+02 -7.58054E+01
