 $NMID ID='MM_0lb_SNR200_20hz_g60_63.RAW', FMTDAT='(8E13.5)'
 TRAMP=1., VOLUME=1. $END
  3.09148E+05  6.39740E+02  3.37159E+05  2.50695E+05  8.43034E+04  3.38165E+05 -1.32410E+05  2.51146E+05
 -1.90050E+05  8.38798E+04 -1.11564E+05 -3.35679E+04  2.01883E+03 -5.00343E+04  5.33311E+04 -1.38331E+02
  3.45656E+04  5.20792E+04 -1.75663E+04  7.46051E+04 -6.10967E+04  6.34684E+04 -8.21809E+04  3.15278E+04
 -8.02988E+04 -1.05978E+04 -5.73365E+04 -5.04043E+04 -1.50121E+04 -6.83797E+04  2.70648E+04 -4.61742E+04
  4.00636E+04  3.72212E+03  1.57020E+04  4.75434E+04 -3.44654E+04  4.78599E+04 -6.63017E+04 -6.93735E+01
 -5.30862E+04 -5.56997E+04 -6.18614E+03 -7.58329E+04  3.35220E+04 -5.43935E+04  4.80837E+04 -1.59370E+04
  4.20937E+04  1.21772E+04  3.12274E+04  2.42472E+04  1.57264E+04  2.94209E+04 -4.50025E+03  2.67442E+04
 -2.23608E+04  1.23328E+04 -1.85487E+04 -4.04833E+03  4.87559E+03 -8.01590E+03  2.16241E+04  1.12476E+04
  7.03056E+03  3.41610E+04 -3.07722E+04  3.52575E+04 -6.14725E+04  2.78926E+03 -5.64582E+04 -4.20604E+04
 -1.23633E+04 -6.13172E+04  3.95849E+04 -4.39914E+04  5.63412E+04 -1.54128E+03  3.28678E+04  3.13861E+04
 -6.98081E+03  3.34374E+04 -2.91935E+04  1.47096E+04 -2.92482E+04 -4.17098E+03 -1.54571E+04 -1.00363E+04
 -8.82193E+03 -1.19203E+04 -6.88121E+02 -1.66999E+04  7.13932E+03 -2.28680E+04  1.53447E+04 -1.43010E+04
  1.11467E+04  4.23644E+03 -6.61911E+03  1.33650E+04 -2.06583E+04 -3.86204E+03 -8.35332E+03 -3.05160E+04
  2.10821E+04 -4.14471E+04  4.64233E+04 -1.92546E+04  4.26102E+04  1.84016E+04  1.43840E+04  4.24772E+04
 -1.43437E+04  3.10594E+04 -2.29109E+04  7.38630E+02 -8.00786E+03 -2.69964E+04  2.16173E+04 -3.17042E+04
  3.88627E+04 -8.19749E+03  3.25014E+04  2.37879E+04  1.59540E+04  4.36704E+04 -8.46631E+03  4.69033E+04
 -2.89544E+04  3.13688E+04 -3.80166E+04  7.99391E+03 -3.91355E+04 -1.59345E+04 -2.12565E+04 -3.57003E+04
  7.17217E+03 -3.46668E+04  2.95352E+04 -1.28722E+04  2.68547E+04  1.10308E+04  2.08618E+03  1.78556E+04
 -1.34100E+04  7.70438E+03 -9.28759E+03 -7.56484E+03  6.33584E+03 -9.67326E+03  1.73877E+04  5.23907E+03
  1.32613E+04  2.15329E+04 -6.67475E+03  2.39839E+04 -2.17758E+04  1.01934E+04 -2.64555E+04 -5.70587E+03
 -1.71048E+04 -1.67026E+04 -6.26520E+03 -1.78256E+04  3.89715E+03 -1.55663E+04  1.27727E+04 -1.48868E+04
  2.12222E+04 -1.21297E+04  2.87880E+04  1.81651E+03  2.09280E+04  1.76151E+04  3.65745E+03  3.29671E+04
 -1.62076E+04  2.75988E+04 -2.55211E+04  1.07070E+04 -1.92562E+04 -1.00698E+04 -3.83278E+03 -1.33795E+04
  2.81780E+03 -3.62505E+03 -3.10485E+03  5.81468E+03 -1.30173E+04  5.09884E+03 -1.38053E+04 -5.86506E+03
 -8.03342E+03 -1.63981E+04  4.59854E+03 -2.00678E+04  1.32183E+04 -1.47890E+04  1.57465E+04 -1.65147E+03
  8.87517E+03  1.08715E+04 -5.52437E+02  1.59822E+04 -1.03957E+04  8.77776E+03 -1.67477E+04 -3.53817E+03
 -1.20399E+04 -1.46255E+04 -1.96362E+03 -1.90286E+04  8.60557E+03 -1.51671E+04  1.68343E+04 -6.66693E+03
  1.44121E+04  7.28541E+02  1.01219E+04  4.05123E+03  5.29847E+03 -7.85920E+02  7.61731E+03 -7.46220E+02
  1.44199E+04  3.12682E+03  1.37876E+04  1.25476E+04  9.94868E+03  2.52656E+04 -3.40342E+03  2.68474E+04
 -1.61711E+04  2.12501E+04 -2.52287E+04  9.92179E+03 -2.56582E+04 -2.56407E+03 -2.21296E+04 -1.45437E+04
 -1.02670E+04 -1.98648E+04  5.22692E+03 -1.98717E+04  1.71753E+04 -1.03703E+04  1.54010E+04  4.79980E+03
  7.30808E+03  1.18832E+04 -7.31116E+03  9.46656E+03 -1.33458E+04  2.78527E+03 -1.12603E+04 -8.34220E+03
  2.21082E+01 -1.30314E+04  7.18812E+03 -9.97719E+03  7.32506E+03 -1.58223E+03  1.52534E+03  5.91185E+03
 -5.04720E+03  1.37138E+03 -3.52643E+03 -4.13150E+03  1.46968E+03 -1.08386E+04  7.53675E+03 -1.10939E+04
  1.05043E+04 -5.26021E+03  1.12914E+04  1.96141E+03  1.10973E+04  9.13905E+03  4.10225E+03  1.45520E+04
 -1.90175E+03  1.54612E+04 -1.08053E+04  1.02761E+04 -1.12045E+04  3.72876E+03 -7.92140E+03 -1.34516E+03
 -3.51352E+03 -3.70747E+03 -1.14244E+03  1.44211E+03 -1.58546E+03  1.09674E+03 -3.12636E+03  3.38801E+03
 -8.60690E+03 -1.82148E+02 -8.81186E+03 -7.42355E+03 -3.46472E+03 -1.03665E+04  3.54251E+03 -8.77766E+03
  7.15762E+03 -2.85393E+03  4.53564E+03  2.31214E+03  4.93089E+02  3.43375E+03 -3.53178E+03  4.87419E+01
 -3.65553E+03 -4.14941E+03 -4.43999E+02 -6.33407E+03  3.19656E+03 -8.21925E+03  9.07382E+03 -4.25361E+03
  1.14236E+04  7.80803E+02  8.57593E+03  5.34822E+03  1.04836E+03  9.06372E+03 -4.88242E+03  7.84183E+03
 -7.36124E+03  3.31956E+03 -5.31338E+03  2.39445E+02  1.00710E+03 -1.43032E+03  3.50304E+03 -7.93497E+02
  4.07622E+03  2.90262E+03  1.91509E+03  5.36661E+03 -3.07018E+03  5.76009E+03 -7.81070E+03  1.76229E+03
 -4.26857E+03 -3.39593E+03  9.97298E+01 -6.11085E+03  4.19131E+03 -3.05342E+03  3.31637E+03  3.57788E+02
  1.25995E+03  3.47011E+03 -4.38491E+03  4.65028E+03 -3.55776E+03  2.15975E+03 -4.11052E+03 -8.93432E+02
 -3.72420E+03 -6.30766E+03  1.07739E+03 -5.43395E+03  6.10424E+03 -4.95749E+03  6.70797E+03  1.27194E+03
  4.60187E+03  4.32421E+03  6.40201E+02  6.86362E+03 -4.04440E+03  4.51060E+03 -4.54885E+03 -5.15285E+02
 -6.75097E+03 -4.46657E+03 -1.42723E+03 -5.42487E+03  2.87225E+03 -4.37902E+03  2.77898E+03 -2.01338E+03
  2.10480E+03  8.64568E+02  7.78273E+02  9.02304E+02  3.27696E+02  1.14969E+03 -5.71484E+02 -2.32246E+03
  3.18434E+03 -2.30469E+02  4.52656E+03  4.71920E+02  4.77903E+03  2.09795E+03  4.83405E+03  6.29698E+03
 -8.17249E+02  8.98141E+03 -7.69878E+03  6.66880E+03 -9.15333E+03  1.31371E+03 -7.78380E+03 -2.66367E+03
 -4.77560E+03 -6.45354E+03 -7.69649E+02 -4.47328E+03  1.64617E+03 -2.18561E+03  1.91701E+03 -1.88480E+03
  1.15122E+03 -2.20357E+03  2.86213E+03 -1.94747E+03  2.86318E+03 -1.54049E+03  3.30091E+03  9.01500E+02
  4.12130E+03  1.16367E+03  1.60983E+03  2.53591E+03 -1.84416E+03  2.97217E+03 -4.15342E+03  2.46144E+03
 -3.55154E+03 -8.11243E+02 -2.45086E+03 -2.34381E+03  3.78849E+02 -4.72694E+03  2.84252E+03 -4.39448E+03
  4.71003E+03 -2.44188E+03  5.85306E+03 -6.85407E+02  4.06598E+03  3.49722E+03  1.42868E+03  5.49050E+03
 -1.41946E+03  5.46052E+03 -3.07876E+03  1.10506E+03 -2.23552E+03 -8.61905E+02  1.60743E+02 -8.26448E+02
  2.93118E+02  9.32158E+01 -2.91082E+02  2.48559E+03 -3.17023E+03  1.06750E+03 -2.61120E+03  5.21198E+02
 -2.60007E+02 -2.99751E+03  1.80139E+03 -4.32788E+03  2.25555E+03 -3.75180E+03  2.21296E+03 -4.85852E+02
  4.34732E+03  2.61336E+03  1.55813E+03  2.24322E+03 -1.83888E+03  4.30355E+03 -1.84037E+03  3.16711E+03
 -2.65636E+03  1.67688E+03 -3.21211E+03 -2.02397E+03 -1.19338E+02 -2.63354E+03  7.68662E+02 -2.18567E+03
  1.38892E+03 -5.13746E+01  1.46751E+03  7.69750E+01  1.16304E+03  2.52356E+03  1.18463E+03 -7.93986E+01
  1.29628E+03  1.20544E+03  1.53427E+03  6.10845E+02  1.51393E+02  2.32020E+03  1.23954E+03  4.04019E+02
 -2.14947E+03  1.76779E+03 -1.95488E+03  3.73031E+03 -1.65896E+03  2.13876E+03 -3.12380E+03  5.03747E+02
 -1.35983E+03 -2.16089E+03  1.02435E+03 -3.94924E+03  1.63575E+03 -2.55040E+03  1.72325E+03 -7.86298E+02
  2.10876E+03  7.31536E+02  5.98101E+02  2.13838E+03 -2.86032E+01  9.31570E+02 -2.04665E+02 -6.71630E+01
 -8.95705E+02 -1.30938E+03  1.89608E+03 -1.31045E+03  7.22372E+02 -1.28790E+03  2.58195E+02 -3.83658E+02
  2.78239E+02  9.90050E+02  4.94006E+02  3.64848E+02 -2.21666E+02 -5.54637E+01  5.06303E+02 -4.56081E+02
  8.62944E+02 -5.20547E+02  1.23232E+03 -7.28930E+02 -3.87990E+02  2.02725E+03 -4.08553E+02  2.32626E+03
 -1.54073E+03  7.99919E+02 -3.27955E+02  3.12462E+02 -2.78193E+03 -9.65846E+02 -5.36405E+02 -8.80583E+02
  4.83357E+02 -7.12455E+02  1.43398E+03 -9.03947E+02  8.03713E+01  1.01298E+03 -4.16849E+02  1.30289E+03
 -6.33053E+02  2.54917E+02 -1.65635E+03 -9.18564E+02  6.06886E+01 -9.95458E+02  2.24314E+01 -1.36939E+03
 -9.67654E+02  7.00858E+01  7.73223E+02 -5.33424E+01  1.01187E+03 -6.40177E+02  8.26989E+02  8.89897E+02
  3.52900E+02  1.32258E+03 -8.02106E+02  7.18735E+02  1.39427E+02 -6.24236E+02  1.89996E+03 -8.91290E+02
  3.53691E+02  1.18862E+03  2.60232E+03  7.20386E+02  1.05314E+03  1.13461E+03 -4.91055E+02  4.47575E+02
 -4.95728E+02  9.32975E+01 -8.87304E+02  4.41871E+02 -1.11002E+03 -6.57959E+02 -2.54552E+02 -1.42144E+02
  6.34901E+02 -3.94514E+02 -5.23611E+02  8.13157E+01  2.44405E+02  8.18169E+02  3.45477E+02  1.16815E+03
 -3.65797E+01  1.47773E+03  1.79263E+02  4.71000E+02 -4.26580E+02  9.86348E+02 -7.31315E+02  5.93104E+01
 -4.70450E+02  5.43459E+02 -1.81789E+03  3.11758E+02 -1.75944E+03  3.55102E+02 -1.72085E+03 -4.99638E+01
 -1.66548E+03 -1.76686E+03  3.18850E+02 -1.91680E+03  1.37229E+03 -1.43866E+03  1.48452E+03 -1.27827E+03
  3.33732E+02 -2.52342E+02 -5.16795E+02  7.06341E+02 -4.64593E+02  9.61369E+02  4.18926E+02  1.30031E+03
 -1.11859E+03  5.30885E+02  6.26747E+02 -1.65013E+02  5.70896E+02  7.39708E+02  4.60670E+02 -2.40943E+02
 -5.79648E+02  2.54073E+02 -1.01436E+03  6.25863E+02  2.94939E+02 -1.03331E+03 -1.02631E+03 -3.64679E+02
  8.56898E+02 -5.65394E+02 -3.49165E+02 -5.62915E+02 -5.03657E+02  1.42932E+03  2.92862E+01  1.03676E+03
 -1.88811E+03  2.36198E+03 -1.19961E+03  2.31019E+02 -1.73727E+03 -6.39799E+02 -9.65995E+02 -1.50029E+03
 -2.02100E+02 -1.22319E+03 -5.19591E+02 -9.68495E+02  7.67014E+01 -7.42816E+02 -3.14619E+01 -4.17593E+02
  1.56132E+03  2.61793E+02  2.93812E+02 -1.36317E+02  2.07611E+02 -5.72153E+02  9.46984E+02 -7.65467E+02
  9.59754E+01 -1.64499E+02 -3.61336E+02  9.11723E+02  1.00312E+03 -3.00152E+02  1.76633E+02  4.76681E+02
 -6.07410E+02  1.36777E+03 -1.83317E+02 -5.24108E+02 -1.15680E+03 -5.94674E+02  9.48791E+01 -1.33498E+03
 -6.18489E+02  6.80797E+02 -3.09498E+02  3.50222E+02  5.53535E+02  1.72502E+02  7.15591E+02 -4.18712E+02
  2.09448E+02 -2.27509E+02  1.02595E+03  4.39794E+02 -3.05399E+02  1.35602E+03  2.76701E+02  5.02111E+02
  7.29529E+02 -1.31058E+02  4.80323E+02  1.52587E+03  2.33177E+02 -6.78099E+02  2.27652E+02 -8.61949E+02
 -1.84515E+02  1.74020E+03 -6.35582E+02 -2.99314E+02 -9.44784E+02 -4.44076E+02  8.66173E+02 -1.16763E+03
  8.11858E+01  4.99282E+02 -5.24220E+02 -4.44433E+02 -5.14766E+01 -4.19595E-02 -1.08248E+02  1.99754E+03
