 $NMID ID='MM_0lb_SNR200_16hz_g40_30.RAW', FMTDAT='(8E13.5)'
 TRAMP=1., VOLUME=1. $END
  3.09987E+05  1.10125E+02  3.37886E+05  2.50408E+05  8.45774E+04  3.37463E+05 -1.32732E+05  2.50655E+05
 -1.88763E+05  8.29609E+04 -1.10680E+05 -3.36116E+04  1.76029E+03 -5.06148E+04  5.47391E+04  1.28464E+03
  3.49238E+04  5.29430E+04 -1.75337E+04  7.37616E+04 -6.05503E+04  6.21196E+04 -8.44042E+04  3.17771E+04
 -8.06472E+04 -1.20489E+04 -5.67004E+04 -5.08595E+04 -1.41929E+04 -6.80777E+04  2.59112E+04 -4.51449E+04
  3.96955E+04  3.69904E+03  1.59352E+04  4.79501E+04 -3.41675E+04  4.66005E+04 -6.51903E+04 -1.32975E+03
 -5.23149E+04 -5.60162E+04 -6.45304E+03 -7.61215E+04  3.25614E+04 -5.25795E+04  4.75311E+04 -1.67461E+04
  4.16163E+04  1.09102E+04  3.02965E+04  2.58630E+04  1.61898E+04  2.84999E+04 -5.44728E+03  2.59412E+04
 -2.27154E+04  1.29527E+04 -1.95760E+04 -4.88465E+03  4.95920E+03 -7.57427E+03  2.10230E+04  9.86985E+03
  7.71891E+03  3.43792E+04 -3.13998E+04  3.43187E+04 -6.24713E+04  2.68188E+03 -5.56855E+04 -4.13015E+04
 -1.24807E+04 -6.14631E+04  4.01795E+04 -4.47783E+04  5.76278E+04 -2.18636E+03  3.31560E+04  3.16458E+04
 -6.06078E+03  3.43494E+04 -2.93657E+04  1.25501E+04 -2.89098E+04 -4.77146E+03 -1.54297E+04 -9.94514E+03
 -8.55241E+03 -1.10903E+04 -1.44475E+03 -1.74098E+04  7.66865E+03 -2.30423E+04  1.48892E+04 -1.39134E+04
  1.27615E+04  3.14838E+03 -8.15409E+03  1.24158E+04 -2.00849E+04 -3.78656E+03 -8.84773E+03 -3.13891E+04
  2.13027E+04 -4.08959E+04  4.51138E+04 -1.85019E+04  4.36374E+04  1.97555E+04  1.51092E+04  4.32246E+04
 -1.56150E+04  3.13147E+04 -2.42039E+04  1.44671E+03 -9.34394E+03 -2.65407E+04  2.12743E+04 -3.30898E+04
  3.94671E+04 -7.45328E+03  3.35970E+04  2.26640E+04  1.62630E+04  4.33437E+04 -8.32249E+03  4.72556E+04
 -3.00415E+04  3.24905E+04 -3.86830E+04  9.37988E+03 -3.89229E+04 -1.65700E+04 -2.24088E+04 -3.61812E+04
  7.20765E+03 -3.44929E+04  3.03040E+04 -1.45550E+04  2.77310E+04  1.05961E+04  2.86448E+03  1.80598E+04
 -1.29433E+04  7.96604E+03 -1.06992E+04 -7.99388E+03  6.23374E+03 -9.87749E+03  1.77961E+04  6.91217E+03
  1.27254E+04  2.28645E+04 -7.17855E+03  2.38881E+04 -2.17358E+04  1.06941E+04 -2.66771E+04 -6.21613E+03
 -1.86248E+04 -1.73449E+04 -6.84761E+03 -1.87171E+04  3.30607E+03 -1.68411E+04  1.33334E+04 -1.64540E+04
  2.21802E+04 -1.21589E+04  3.03686E+04  1.23365E+03  2.20791E+04  1.83621E+04  4.94511E+03  3.32560E+04
 -1.62437E+04  2.80620E+04 -2.51777E+04  9.78442E+03 -2.03533E+04 -9.13058E+03 -4.14315E+03 -1.36675E+04
  2.90716E+03 -3.46212E+03 -3.90916E+03  5.28354E+03 -1.35086E+04  4.45069E+03 -1.46290E+04 -5.15400E+03
 -9.20407E+03 -1.67710E+04  5.41278E+03 -2.17804E+04  1.41494E+04 -1.46719E+04  1.54740E+04 -1.42136E+03
  9.59678E+03  1.10032E+04 -6.66843E+02  1.63019E+04 -1.18241E+04  1.00084E+04 -1.65151E+04 -4.97117E+03
 -1.15355E+04 -1.47209E+04 -2.50371E+02 -2.02528E+04  9.16902E+03 -1.71965E+04  1.75150E+04 -7.50784E+03
  1.66475E+04  8.10459E+02  1.09812E+04  3.55960E+03  5.36514E+03  7.65784E+02  8.52378E+03 -1.65277E+03
  1.48083E+04  3.00197E+03  1.68379E+04  1.35358E+04  1.07658E+04  2.62002E+04 -2.81714E+03  2.96349E+04
 -1.75105E+04  2.16312E+04 -2.74901E+04  1.22755E+04 -2.85449E+04 -3.31006E+02 -2.46413E+04 -1.66347E+04
 -1.07041E+04 -2.41762E+04  7.95247E+03 -2.10699E+04  1.89458E+04 -1.13245E+04  1.70101E+04  3.72134E+03
  6.43931E+03  1.23926E+04 -7.33539E+03  1.08904E+04 -1.49517E+04  3.66496E+03 -1.12801E+04 -8.56197E+03
 -1.92944E+01 -1.36705E+04  5.78240E+03 -1.02631E+04  8.65464E+03 -2.28778E+03  1.77322E+03  5.20851E+03
 -6.25391E+03  1.99037E+03 -5.06993E+03 -5.38756E+03 -5.61927E+02 -1.13084E+04  8.20768E+03 -1.10972E+04
  1.50391E+04 -5.57711E+03  1.40556E+04  3.02955E+03  1.26426E+04  1.09339E+04  5.29210E+03  1.58336E+04
 -3.03444E+03  1.94563E+04 -1.14194E+04  1.14952E+04 -1.29249E+04  3.52285E+03 -9.41513E+03 -2.38985E+03
 -4.34652E+03 -4.58606E+03 -5.39840E+02  1.68670E+03 -1.01630E+03  2.22322E+03 -4.05982E+03  3.44103E+03
 -9.90426E+03  1.62134E+03 -9.36808E+03 -8.75407E+03 -4.53794E+03 -1.31784E+04  2.48890E+03 -1.06237E+04
  6.95916E+03 -4.20164E+03  6.56235E+03  2.57707E+03  7.46794E+01  2.63302E+03 -3.91169E+03 -1.87036E+02
 -4.58423E+03 -5.52839E+03 -1.16596E+03 -8.33986E+03  5.54532E+03 -8.64808E+03  1.18098E+04 -5.26276E+03
  1.40871E+04  3.74719E+02  1.01943E+04  7.18698E+03  2.47269E+03  9.51964E+03 -6.34340E+03  9.12390E+03
 -7.32220E+03  2.64797E+03 -4.26839E+03 -1.79678E+03  1.14792E+03 -3.19128E+03  3.88105E+03 -2.17570E+03
  5.09193E+03  2.49014E+03  1.15586E+03  7.69256E+03 -5.52148E+03  7.76915E+03 -9.17377E+03  1.73470E+03
 -5.75565E+03 -4.64411E+03  1.09730E+03 -7.36500E+03  3.97063E+03 -3.58947E+03  5.50101E+03  1.07187E+03
 -2.28085E+02  3.95314E+03 -3.89401E+03  6.08604E+03 -5.11719E+03  3.25410E+03 -5.47695E+03 -3.77773E+02
 -3.66748E+03 -8.20817E+03  1.45201E+03 -8.51744E+03  6.32867E+03 -6.36904E+03  7.86149E+03  5.86042E+02
  5.49227E+03  5.89467E+03  6.16358E+02  8.72103E+03 -6.03060E+03  4.84098E+03 -6.95134E+03 -7.38936E+02
 -6.23035E+03 -6.15628E+03 -1.33629E+03 -6.39540E+03  3.56457E+03 -4.65493E+03  3.72691E+03 -3.04459E+03
  3.10239E+03  9.36661E+02  1.99111E+02  1.55437E+03  8.00102E+02  4.86547E+02  4.03435E+02 -2.87065E+03
  4.84913E+03 -5.62612E+02  7.74906E+03  1.23811E+03  7.03082E+03  3.56927E+03  6.11670E+03  8.52431E+03
 -1.08862E+03  1.09954E+04 -1.00703E+04  8.10710E+03 -1.21589E+04  1.38493E+03 -9.89632E+03 -3.45907E+03
 -5.02827E+03 -7.96340E+03 -4.69919E+02 -6.31914E+03  2.01917E+03 -3.00942E+03  2.13655E+03 -2.43250E+03
  8.12323E+02 -8.52750E+02  3.35617E+03 -2.66671E+03  4.07697E+03 -1.25921E+03  4.44501E+03  1.00965E+03
  5.84219E+03  1.60389E+03  2.13245E+03  4.98817E+03 -2.38662E+03  5.44061E+03 -5.70176E+03  3.83360E+03
 -5.91102E+03  4.19939E+02 -3.42344E+03 -4.21187E+03 -3.14107E+02 -7.36407E+03  4.35110E+03 -8.03057E+03
  6.74921E+03 -2.25613E+03  7.78533E+03  9.04932E+02  4.97689E+03  5.85795E+03  8.92521E+02  7.99080E+03
 -1.93485E+03  8.08290E+03 -3.84716E+03  3.23984E+03 -3.25456E+03 -1.67873E+03  2.70146E+02 -9.98433E+02
 -1.21312E+03  7.96918E+01 -1.53356E+03  1.51190E+03 -2.82711E+03  1.35256E+03 -5.68583E+03 -5.17802E+02
 -2.48353E+03 -5.38666E+03  5.22852E+02 -5.74166E+03  4.50478E+03 -5.46454E+03  5.31999E+03 -2.19137E+03
  5.50966E+03  3.04893E+03  2.66237E+03  4.56711E+03 -1.37941E+03  6.38381E+03 -3.52744E+03  5.40742E+03
 -5.90330E+03  1.16514E+03 -4.18473E+03 -2.57277E+03 -5.79494E+02 -4.56172E+03  1.08985E+03 -3.10518E+03
  4.54863E+03 -1.17972E+03  1.76315E+03  2.00263E+03  1.15760E+03  8.89774E+02  2.09810E+03  5.45305E+02
  1.65537E+03  2.40079E+03  2.03871E+03  6.20558E+02  2.71420E+03  3.70428E+03  2.40108E+03  3.76303E+03
 -2.63755E+03  4.89325E+03 -4.69188E+03  4.92830E+03 -6.24390E+03  1.42131E+03 -5.45823E+03 -1.87053E+03
 -2.26909E+03 -5.23162E+03  2.51607E+02 -6.62894E+03  2.79626E+03 -3.38162E+03  4.17045E+03 -6.93316E+02
  3.99025E+03  3.12805E+03  8.56853E+02  3.60445E+03 -1.37743E+03  1.30166E+03 -2.69987E+03 -7.16105E+01
 -2.10438E+03 -2.97768E+03  1.45389E+03 -2.37692E+03  1.60074E+03 -1.03990E+03  2.33428E+03  3.11813E+00
  8.40853E+02  4.89074E+02  5.82598E+02  3.75022E+02 -1.30892E+03  7.41038E+02  1.54859E+03 -7.53099E+02
  6.79921E+02  4.98037E+02  2.37307E+03  4.18596E+02  1.98121E+02  3.03782E+03 -1.47735E+03  3.71564E+03
 -2.71721E+03  2.18923E+03 -4.15964E+03  1.38178E+02 -4.42806E+03 -1.30939E+03 -1.23021E+03 -1.57133E+03
  1.69319E+03 -1.65370E+03  1.45570E+03 -1.31681E+03  1.75928E+03  2.08109E+03 -1.55584E+02  2.22004E+03
 -3.48576E+03  1.53780E+02 -2.01634E+03 -2.30576E+03 -5.49173E+02 -4.01488E+03 -4.76428E+02 -2.87525E+03
  1.05667E+03 -1.99852E+03  2.53024E+03 -1.09459E+02  1.06186E+03 -4.69761E+02  1.17109E+02  1.31185E+03
 -4.54299E+02 -2.60475E+02 -1.31737E+03 -7.88845E+02 -9.39646E+01 -1.36954E+03  2.78537E+03 -2.24753E+03
  2.30703E+03 -7.29410E+02  3.11944E+03  2.02952E+03  1.02904E+03  2.38448E+03 -7.87366E+02  2.13310E+03
 -2.85799E+03  2.16611E+02 -2.49599E+03 -6.74006E+02 -1.52369E+03 -1.53680E+03 -1.90095E+02 -1.13875E+03
  2.34127E+03 -1.43999E+03  1.72516E+03 -1.09729E+02  3.76112E+02  2.31761E+03  1.39109E+03  2.85500E+03
 -7.65972E+02  1.38544E+03 -1.35910E+03 -1.16676E+02  2.28892E+02  1.24302E+03 -4.40744E+02  1.17164E+03
 -1.12560E+03  9.13821E+02 -2.00753E+03 -3.21371E+02 -2.09792E+03  1.34172E+03 -3.40163E+03 -1.63807E+03
 -2.40134E+03 -3.91028E+03  1.11381E+03 -4.37776E+03  2.72796E+03 -3.96895E+03  3.89405E+03 -1.22400E+03
  2.74458E+03  5.01986E+00  3.04082E+03  2.77357E+03  3.72797E+02  2.11221E+03  4.90094E+01  1.69501E+03
 -9.92252E+02  9.08682E+02 -1.92407E+03 -2.32808E+02 -1.26048E+02 -1.30945E+02 -4.64159E+02  1.17566E+03
 -9.67373E+02 -7.36099E+02 -2.09975E+03 -9.19536E+02 -8.05030E+00 -1.51594E+03 -5.71950E+02 -2.80701E+03
  1.15911E+03 -1.14911E+02  3.89024E+02 -6.84635E+02  1.43628E+03  1.99631E+03  8.67089E+02  1.73867E+03
 -2.42626E+03  2.74392E+03 -1.40987E+03  1.68268E+03 -3.54489E+03  8.61175E+02 -2.14439E+03 -2.08560E+03
 -1.48566E+03 -2.91416E+03  1.09785E+03 -2.24319E+03  2.00391E+03 -1.49037E+03  2.09023E+03 -7.18939E+02
  1.21732E+03  8.79149E+02  2.07753E+02  3.62736E+02 -1.71142E+03 -4.22945E+02 -1.02006E+03 -1.36556E+01
  1.87128E+02  1.51196E+02  8.08384E+02  1.04523E+03 -3.36314E+02  2.87839E+02  1.17630E+03  2.22723E+03
 -1.91614E+03  2.36243E+03 -2.39070E+03  7.84261E+02 -1.46678E+03 -8.27931E+02 -1.56604E+02 -3.23723E+03
  9.04933E+02 -2.50746E+03  1.58243E+03  2.54815E+02  1.97148E+03 -2.49443E+02  1.00980E+03  1.77544E+03
  9.62960E+02  1.96018E+03  4.09254E+01  1.17166E+03 -5.88693E+02  9.87247E+02 -1.46103E+03 -2.60997E+02
  3.70790E+02 -6.52966E+02 -1.08938E+03  1.25258E+02  1.02395E+03  1.02431E+03 -6.41630E+02  3.02392E+01
  7.61635E+02  5.64855E+02 -8.17690E+02 -1.01151E+03  1.28651E+03 -2.66312E+03  1.67876E+03  4.00066E+02
  1.39942E+03  8.81614E+01  3.57072E+02  7.47664E+02 -1.15775E+03  1.16643E+03 -2.48503E+03  1.22530E+03
