 $NMID ID='MM_0lb_SNR200_18hz_g60_20.RAW', FMTDAT='(8E13.5)'
 TRAMP=1., VOLUME=1. $END
  3.10472E+05  7.57857E+01  3.37212E+05  2.51332E+05  8.48003E+04  3.37872E+05 -1.32450E+05  2.51644E+05
 -1.91438E+05  8.31813E+04 -1.12456E+05 -3.34657E+04  1.18823E+03 -5.01443E+04  5.33783E+04 -4.39882E+02
  3.57622E+04  5.25431E+04 -1.67561E+04  7.53422E+04 -6.01469E+04  6.26159E+04 -8.29233E+04  3.13818E+04
 -8.01922E+04 -1.10240E+04 -5.70970E+04 -5.05927E+04 -1.42979E+04 -6.95851E+04  2.69533E+04 -4.51843E+04
  3.97054E+04  3.99874E+03  1.60005E+04  4.74836E+04 -3.38833E+04  4.64700E+04 -6.60489E+04 -5.46633E+02
 -5.33200E+04 -5.70889E+04 -6.07576E+03 -7.71118E+04  3.33416E+04 -5.38044E+04  4.71472E+04 -1.70536E+04
  4.07368E+04  1.15720E+04  3.23675E+04  2.56597E+04  1.56197E+04  2.86664E+04 -6.59617E+03  2.65547E+04
 -2.20253E+04  1.29246E+04 -1.84468E+04 -4.79872E+03  5.18361E+03 -7.61948E+03  2.23884E+04  1.20899E+04
  7.91722E+03  3.52197E+04 -3.12827E+04  3.56669E+04 -6.27627E+04  2.33360E+03 -5.58544E+04 -4.29124E+04
 -1.23496E+04 -6.16201E+04  3.94376E+04 -4.51947E+04  5.71260E+04 -2.75934E+03  3.41738E+04  3.17010E+04
 -6.91962E+03  3.55956E+04 -2.99481E+04  1.37829E+04 -3.01314E+04 -5.20088E+03 -1.53499E+04 -9.51934E+03
 -8.37575E+03 -1.20715E+04 -2.21182E+02 -1.65015E+04  7.05957E+03 -2.24732E+04  1.63313E+04 -1.33628E+04
  1.19498E+04  4.70711E+03 -8.11312E+03  1.17566E+04 -2.07382E+04 -3.94126E+03 -8.22043E+03 -3.35054E+04
  2.25389E+04 -4.13345E+04  4.71576E+04 -1.88063E+04  4.38813E+04  1.92616E+04  1.50331E+04  4.35583E+04
 -1.43228E+04  3.28465E+04 -2.54571E+04  2.06233E+03 -9.05977E+03 -2.81035E+04  2.07299E+04 -3.35421E+04
  3.96679E+04 -9.12020E+03  3.31521E+04  2.30789E+04  1.66088E+04  4.51975E+04 -7.65238E+03  4.84225E+04
 -2.97144E+04  3.25430E+04 -4.06388E+04  7.98826E+03 -4.12928E+04 -1.55403E+04 -2.25062E+04 -3.67781E+04
  7.37779E+03 -3.56554E+04  3.00743E+04 -1.33288E+04  2.93462E+04  1.08560E+04  4.18221E+03  1.83123E+04
 -1.33373E+04  7.28597E+03 -1.02583E+04 -6.75543E+03  6.07952E+03 -1.16656E+04  1.71729E+04  6.37719E+03
  1.36291E+04  2.15470E+04 -5.93866E+03  2.42263E+04 -2.33193E+04  1.02056E+04 -2.55388E+04 -5.05110E+03
 -1.86100E+04 -1.62923E+04 -6.22283E+03 -1.73680E+04  4.11029E+03 -1.76233E+04  1.42520E+04 -1.72805E+04
  2.43434E+04 -1.17691E+04  3.14592E+04  3.19091E+03  2.11917E+04  1.80532E+04  3.96399E+03  3.52568E+04
 -1.72566E+04  3.01806E+04 -2.58060E+04  8.58632E+03 -2.06115E+04 -1.07826E+04 -3.32644E+03 -1.39671E+04
  1.52230E+03 -3.95553E+03 -3.40698E+03  6.28072E+03 -1.46179E+04  4.94404E+03 -1.48355E+04 -6.47334E+03
 -8.80147E+03 -1.67843E+04  5.95386E+03 -2.14411E+04  1.45565E+04 -1.51059E+04  1.69145E+04 -1.89640E+03
  9.70012E+03  1.22079E+04 -2.08660E+03  1.80266E+04 -1.07205E+04  9.95728E+03 -1.91206E+04 -3.81677E+03
 -1.21389E+04 -1.57821E+04 -1.94314E+02 -2.08141E+04  9.97193E+03 -1.79397E+04  1.70967E+04 -7.22711E+03
  1.61918E+04 -1.43324E+01  1.09729E+04  3.40708E+03  6.65794E+03  4.63224E+02  8.02696E+03 -2.27282E+03
  1.56378E+04  2.81227E+03  1.68173E+04  1.37305E+04  1.12516E+04  2.72265E+04 -3.03499E+03  3.00840E+04
 -1.75552E+04  2.41264E+04 -2.72558E+04  1.23834E+04 -2.87311E+04 -1.53960E+03 -2.32092E+04 -1.59260E+04
 -1.00822E+04 -2.41179E+04  7.58187E+03 -2.17200E+04  1.90079E+04 -1.29857E+04  1.76671E+04  4.06907E+03
  6.06515E+03  1.26061E+04 -7.44337E+03  1.13833E+04 -1.39077E+04  2.80614E+03 -1.09039E+04 -8.13387E+03
  7.99379E+02 -1.34359E+04  7.49997E+03 -1.07309E+04  9.12021E+03 -1.62978E+03  1.02218E+03  4.93336E+03
 -4.85427E+03  1.03927E+03 -4.31964E+03 -4.96952E+03  3.32530E+02 -1.18954E+04  8.35763E+03 -1.15322E+04
  1.49356E+04 -5.67586E+03  1.46618E+04  3.39402E+03  1.26036E+04  1.20745E+04  5.87298E+03  1.66724E+04
 -2.13329E+03  1.80838E+04 -1.11724E+04  1.15255E+04 -1.33213E+04  4.05394E+03 -9.67020E+03 -3.00304E+03
 -4.05501E+03 -4.34452E+03 -2.04398E+02  9.74544E+02 -2.15570E+03  2.49362E+03 -4.31236E+03  4.52257E+03
 -8.79430E+03 -3.03333E+02 -9.79738E+03 -7.54823E+03 -4.31911E+03 -1.27594E+04  4.40685E+03 -1.00220E+04
  8.05323E+03 -3.83609E+03  5.69093E+03  1.78752E+03 -1.00109E+02  2.90651E+03 -4.29775E+03 -1.17888E+03
 -4.80478E+03 -5.23835E+03 -7.30700E+02 -8.10631E+03  4.39838E+03 -8.31494E+03  1.23137E+04 -4.25744E+03
  1.27171E+04  1.32278E+03  9.77708E+03  7.30471E+03  2.69977E+03  9.49895E+03 -6.24375E+03  8.97043E+03
 -6.60590E+03  3.13820E+03 -4.99166E+03 -1.47328E+03  1.28662E+03 -2.76066E+03  5.72796E+03 -1.84476E+03
  5.03965E+03  3.61615E+03  6.32812E+02  5.94698E+03 -5.77920E+03  6.70200E+03 -8.04986E+03  2.22513E+03
 -4.62640E+03 -3.51900E+03 -7.78924E+01 -7.31741E+03  4.78723E+03 -3.91127E+03  4.35576E+03  2.08691E+03
  1.01126E+03  4.84318E+03 -4.03751E+03  5.73747E+03 -5.68126E+03  3.07992E+03 -6.34817E+03 -9.89167E+02
 -3.60443E+03 -8.06295E+03  1.97342E+03 -8.75297E+03  6.85994E+03 -5.80273E+03  7.55122E+03  4.37645E+02
  4.04067E+03  6.42720E+03 -3.64535E+02  8.26164E+03 -5.69061E+03  5.12823E+03 -5.10792E+03  4.80010E+02
 -5.94015E+03 -6.84930E+03 -1.60604E+03 -5.58863E+03  3.04332E+03 -5.82644E+03  2.79731E+03 -2.76363E+03
  2.73167E+03  6.68447E+02  4.49266E+02  1.25349E+03  3.18078E+02 -9.38034E+02 -3.01262E+02 -2.25689E+03
  5.06085E+03 -9.34143E+02  5.87306E+03  1.27778E+03  6.09372E+03  3.66919E+03  4.79270E+03  8.48642E+03
 -1.26302E+03  1.05817E+04 -9.17027E+03  8.92740E+03 -1.11260E+04  1.46379E+03 -9.08821E+03 -2.29419E+03
 -4.73658E+03 -8.08684E+03 -1.23328E+03 -6.51815E+03  2.24474E+03 -3.37063E+03  1.78915E+03 -1.29702E+03
  1.82500E+03 -1.94727E+03  2.58564E+03 -2.25917E+03  3.90820E+03 -1.68464E+03  4.12948E+03  8.54702E+02
  3.49219E+03  5.16866E+02  1.48032E+03  3.49080E+03 -1.16756E+03  4.67737E+03 -4.79623E+03  4.32535E+03
 -5.84456E+03 -8.60271E+02 -2.83189E+03 -3.79793E+03  1.73489E+02 -5.25437E+03  2.58431E+03 -6.16680E+03
  5.32655E+03 -2.95481E+03  7.27236E+03  3.02442E+02  5.62523E+03  4.80015E+03 -3.24569E+02  7.05082E+03
 -3.38373E+03  8.27427E+03 -3.21761E+03  1.38267E+03 -1.89550E+03 -9.51748E+02 -1.83999E+03 -5.95096E+02
 -2.33311E+02  6.14537E+02 -1.64475E+03  3.61132E+03 -3.46691E+03  2.00930E+03 -4.20689E+03 -1.32861E+02
 -7.70841E+02 -4.17080E+03  9.62997E+02 -5.06709E+03  2.66963E+03 -4.83653E+03  4.04473E+03 -8.53690E+02
  4.88839E+03  2.61726E+03  2.04116E+03  4.47438E+03 -1.11537E+03  5.25992E+03 -2.79735E+03  3.61532E+03
 -4.26612E+03  5.44134E+02 -4.25936E+03 -2.21538E+03 -7.74837E+02 -3.93465E+03  2.09395E+03 -1.96632E+03
  2.23391E+03 -9.51070E+02  1.82201E+03  1.92179E+01  1.15218E+02  1.90121E+03  1.38557E+03 -5.25007E+02
  1.13237E+03  8.86517E+02  1.63431E+03  2.10276E+03  3.97924E+02  2.42583E+03  1.77185E+03  2.93170E+03
 -1.93119E+03  4.14729E+03 -3.81400E+03  3.82169E+03 -4.43213E+03  1.34896E+03 -5.50573E+03 -3.17697E+02
 -1.81372E+03 -4.86486E+03  1.05746E+03 -5.52620E+03  1.96303E+03 -3.62603E+03  3.85191E+03 -1.04995E+03
  2.96358E+03  2.19935E+03  1.25054E+03  3.12866E+03 -2.41975E+03  1.74741E+03 -1.78604E+03  6.38577E+02
 -3.18144E+01 -1.24659E+03  1.19480E+03 -1.82634E+03  1.91003E+03 -8.45914E+02  1.43317E+03 -2.23883E-01
  5.87503E+02  1.76381E+02  1.12491E+03 -1.67180E+02 -1.72826E+01  1.58082E+01  1.29150E+03 -7.19137E+02
  1.02819E+03 -3.98093E+02  1.88816E+03 -2.44116E+02 -5.14430E+02  2.51739E+03 -2.56803E+02  2.43200E+03
 -1.63544E+03  1.55478E+03 -2.94555E+03 -4.36726E+02 -2.45196E+03  1.75255E+01 -1.37310E+03 -1.22231E+03
 -2.14509E+02 -3.09643E+02  1.67625E+01  7.35374E+02 -3.53713E+02  9.43153E+02 -1.43697E+03  1.02775E+03
 -1.68509E+03  1.34639E+03 -1.34511E+03 -1.24061E+03 -9.44018E+02 -2.28131E+03  4.35692E+02 -1.62403E+03
  6.02877E+01 -2.59244E+01  5.03910E+02 -2.14866E+02  1.20968E+03  2.43723E+02 -1.17449E+02  2.54897E+03
 -3.88750E+02 -9.04477E+02 -9.77200E+02 -7.41497E+02  1.65614E+03 -1.69609E+03  1.35977E+03 -1.45151E+03
  1.80142E+03 -1.41185E+02  3.72804E+03 -5.67960E+02  8.66147E+02  9.20635E+02 -2.64530E+02  2.30150E+03
 -1.87816E+03 -2.78576E+02 -2.21909E+03  5.50655E+01 -4.14055E+02 -2.35941E+03 -2.51313E+02 -6.02282E+02
  2.43365E+03 -8.20756E+02  1.16560E+03  3.46324E+02 -4.57357E+02  1.77407E+03  1.67882E+02  1.12690E+03
 -7.20487E+02  3.38367E+02 -7.94688E+02  5.17075E+02  1.48189E+02  2.47882E+02 -2.06524E+03 -2.31750E+02
 -8.31960E+01  8.84073E+02 -1.15777E+03  4.00553E+01 -2.23429E+03  8.90619E+02 -2.51395E+03 -1.78396E+03
 -4.53441E+02 -1.83145E+03 -2.11918E+02 -2.48813E+03  3.97031E+02 -2.52831E+03  2.53050E+03  7.19653E+01
  2.37032E+03  8.24390E+02  1.33549E+03  6.19597E+01  7.52538E+02  1.62891E+03 -7.37004E+02  1.16926E+03
 -8.48869E+01  1.19485E+03 -1.09621E+03 -6.94015E+02 -1.30645E+03  1.07714E+03 -1.24048E+03  5.44724E+02
 -1.06518E+03  1.16104E+03 -1.37371E+03 -9.80750E+02 -2.10810E+01 -1.92174E+03  5.24514E+02 -5.95260E+02
  1.88300E+03 -4.37109E+02  8.52409E+02  1.16984E+03  1.81420E+03  4.31039E+02  1.72906E+02  1.41313E+03
 -3.51720E+02  1.79769E+03 -2.05050E+03  1.69271E+03 -1.58383E+03  2.92423E+02 -1.76925E+03 -5.04191E+02
 -4.66536E+02 -1.36234E+03  5.77909E+02 -1.18642E+03  8.81021E+02 -7.37658E+02  4.72703E+01  4.40074E+02
  1.39615E+02  1.33540E+03 -4.68727E+01  2.93565E+02 -3.09813E+02  7.58942E+02 -1.28035E+02  7.04013E+02
  7.94313E+02  9.11328E+02 -1.18967E+02  1.25153E+02 -8.57756E+02  1.15441E+03  1.21679E+03  4.27325E+02
 -5.79972E+02  7.39479E+02 -3.79462E+02 -1.24001E+02 -4.50351E+02 -7.58002E+02  1.01035E+02 -1.01241E+03
  4.08704E+02 -2.05579E+03  1.12044E+03 -5.52757E+02  9.80146E+02 -5.39041E+02  7.12041E+02  2.20446E+02
  3.96278E+02 -2.61536E+02 -6.33433E+02  4.36091E+02  4.22500E+02  1.28641E+03  1.01209E+02 -5.30173E+02
 -6.36055E+02 -8.19963E+02 -2.10310E+02 -1.97095E+03 -5.79027E+02 -4.35200E+02 -9.59799E+02  4.29161E+01
 -1.36736E+03  4.75572E+02 -3.92300E+02 -5.46035E+02  1.25545E+03 -2.18188E+03  3.80735E+02  8.32495E+02
  8.71752E+02 -1.34813E+03 -2.54418E+02  4.22998E+01 -3.67723E+02  4.28839E+02 -1.04695E+03  6.59179E+02
