 $NMID ID='MM_0lb_SNR200_11hz_g60_25.RAW', FMTDAT='(8E13.5)'
 TRAMP=1., VOLUME=1. $END
  3.08732E+05  1.12833E+02  3.38687E+05  2.52017E+05  8.50175E+04  3.38444E+05 -1.34129E+05  2.51232E+05
 -1.90975E+05  8.50259E+04 -1.11449E+05 -3.16293E+04  2.12186E+02 -4.97747E+04  5.36544E+04  3.10305E+01
  3.34958E+04  5.17102E+04 -1.54470E+04  7.53204E+04 -6.19206E+04  6.37419E+04 -8.60061E+04  3.36940E+04
 -8.33378E+04 -1.08850E+04 -5.77228E+04 -5.19554E+04 -1.53736E+04 -6.89692E+04  2.81991E+04 -4.73560E+04
  4.21331E+04  3.47329E+03  1.59919E+04  5.00425E+04 -3.42581E+04  4.91680E+04 -6.62287E+04 -3.62223E+02
 -5.37116E+04 -5.83377E+04 -7.87959E+03 -7.79617E+04  3.41989E+04 -5.62860E+04  4.80935E+04 -1.91609E+04
  4.52044E+04  1.12327E+04  3.27656E+04  2.72838E+04  1.67781E+04  3.02443E+04 -6.65512E+03  2.84350E+04
 -2.26041E+04  1.21548E+04 -1.72403E+04 -4.60373E+03  7.60163E+03 -7.32308E+03  2.32689E+04  1.29221E+04
  7.77946E+03  3.90155E+04 -3.27486E+04  3.69965E+04 -6.59535E+04  2.05391E+03 -5.78281E+04 -4.36450E+04
 -1.32408E+04 -6.52144E+04  4.04661E+04 -4.80867E+04  6.12793E+04 -2.22666E+03  3.75784E+04  3.46983E+04
 -5.41399E+03  3.93622E+04 -3.13857E+04  1.85543E+04 -3.34832E+04 -3.81353E+03 -1.86814E+04 -1.27918E+04
 -9.76115E+03 -1.47179E+04  5.99280E+02 -1.93792E+04  8.54172E+03 -2.19512E+04  1.61819E+04 -1.38191E+04
  9.63589E+03  4.68043E+03 -8.74205E+03  1.26851E+04 -2.32884E+04 -6.73728E+03 -8.89149E+03 -3.82555E+04
  2.50673E+04 -4.57217E+04  5.17075E+04 -2.05842E+04  4.97459E+04  2.02550E+04  1.79591E+04  4.70074E+04
 -1.68987E+04  3.63974E+04 -2.69251E+04  3.84003E+03 -1.22543E+04 -2.87192E+04  2.05462E+04 -3.61544E+04
  4.40629E+04 -1.08156E+04  3.97500E+04  2.43159E+04  2.12255E+04  5.07879E+04 -8.00020E+03  5.60698E+04
 -3.50019E+04  3.59738E+04 -4.70910E+04  1.13266E+04 -4.64882E+04 -1.75563E+04 -2.77362E+04 -4.16259E+04
  7.90730E+03 -3.98554E+04  3.19652E+04 -1.54545E+04  3.19322E+04  1.05080E+04  6.02622E+03  2.04288E+04
 -1.45871E+04  9.36706E+03 -1.06165E+04 -6.58310E+03  5.45401E+03 -1.11948E+04  1.88280E+04  6.22003E+03
  1.52030E+04  2.38432E+04 -5.50169E+03  2.61369E+04 -2.52783E+04  1.34241E+04 -2.91003E+04 -2.27922E+03
 -2.49992E+04 -1.78851E+04 -1.26813E+04 -2.34022E+04  5.29220E+03 -2.59745E+04  2.05147E+04 -2.10557E+04
  3.20824E+04 -1.41391E+04  3.66534E+04  5.71876E+03  2.53926E+04  2.42428E+04  6.09613E+03  4.05391E+04
 -1.91205E+04  3.31828E+04 -3.12274E+04  1.19263E+04 -2.46800E+04 -1.05042E+04 -4.25241E+03 -1.31298E+04
  2.11375E+03 -8.44555E+02 -7.03297E+03  7.44626E+03 -1.81497E+04  3.57826E+03 -1.83733E+04 -9.96597E+03
 -1.00570E+04 -2.27660E+04  6.99992E+03 -2.67288E+04  1.84034E+04 -1.93227E+04  2.10705E+04 -2.90656E+03
  1.42694E+04  1.59542E+04 -1.77852E+03  2.34697E+04 -1.60886E+04  1.25138E+04 -2.18372E+04 -4.88608E+03
 -1.72546E+04 -2.01568E+04 -2.70645E+03 -2.72592E+04  1.25708E+04 -2.19424E+04  2.16286E+04 -1.17148E+04
  2.15412E+04  2.83619E+02  1.53049E+04  5.86405E+03  9.54105E+03  1.41592E+03  1.11089E+04 -1.62165E+03
  2.16539E+04  3.68062E+03  2.56237E+04  1.86850E+04  1.61375E+04  3.57127E+04 -1.46011E+03  4.25525E+04
 -2.41008E+04  3.60288E+04 -3.96029E+04  1.82768E+04 -4.15687E+04 -3.22284E+03 -3.39222E+04 -2.55487E+04
 -1.33777E+04 -3.36551E+04  1.23930E+04 -3.06571E+04  2.48782E+04 -1.54235E+04  2.28618E+04  7.20638E+03
  8.27155E+03  1.80855E+04 -1.05693E+04  1.52111E+04 -1.97753E+04  2.26223E+03 -1.44698E+04 -1.13042E+04
 -7.78951E+02 -2.12083E+04  8.64217E+03 -1.51631E+04  1.35037E+04 -1.75395E+03  3.68697E+03  8.51066E+03
 -7.06198E+03  3.04843E+03 -9.01020E+03 -6.13217E+03 -1.39847E+03 -1.81534E+04  1.00942E+04 -1.98356E+04
  2.18854E+04 -9.54320E+03  2.49570E+04  3.30060E+03  2.20334E+04  1.72871E+04  1.00588E+04  2.66999E+04
 -4.38040E+03  2.99176E+04 -1.89963E+04  1.77973E+04 -2.11420E+04  5.34744E+03 -1.50858E+04 -4.94173E+03
 -5.99716E+03 -7.72154E+03 -1.00669E+03  9.20412E+02 -1.79498E+03  3.02931E+03 -5.90413E+03  5.40057E+03
 -1.46299E+04 -7.70574E+02 -1.43909E+04 -1.17787E+04 -6.26950E+03 -1.91196E+04  4.62082E+03 -1.50691E+04
  1.21923E+04 -5.83357E+03  8.83251E+03  5.49771E+03 -3.52912E+02  7.29373E+03 -7.00073E+03 -1.75623E+03
 -6.58863E+03 -9.65567E+03 -1.35325E+03 -1.35517E+04  7.95328E+03 -1.40490E+04  1.83453E+04 -7.82732E+03
  2.29943E+04  1.14953E+03  1.63621E+04  1.20112E+04  1.97189E+03  1.74223E+04 -8.84333E+03  1.30305E+04
 -1.12706E+04  4.53435E+03 -6.46624E+03 -1.87436E+03  1.54624E+03 -4.05569E+03  7.97931E+03 -5.54417E+02
  7.07478E+03  7.75149E+03  8.65568E+02  1.08776E+04 -9.12546E+03  1.10924E+04 -1.52326E+04  2.92490E+03
 -1.06874E+04 -7.94308E+03 -1.04262E+03 -1.23454E+04  7.10095E+03 -4.39698E+03  8.65303E+03  2.78326E+03
  1.62217E+03  9.19908E+03 -6.51626E+03  8.65714E+03 -1.19247E+04  4.97162E+03 -1.22482E+04 -5.05015E+03
 -7.65136E+03 -1.50124E+04  3.45198E+03 -1.62216E+04  1.51702E+04 -1.04919E+04  1.58567E+04  2.59393E+03
  9.42488E+03  1.21117E+04 -1.59520E+03  1.33511E+04 -9.80005E+03  9.43504E+03 -1.12238E+04  6.04335E+02
 -9.53973E+03 -9.34269E+03 -1.31592E+03 -1.13873E+04  4.56027E+03 -7.76057E+03  7.64205E+03 -3.43450E+03
  5.09796E+03  2.03317E+03 -1.87704E+01  1.90328E+03 -2.71678E+02 -3.52043E+03  2.89276E+03 -7.48036E+03
  8.86622E+03 -3.66940E+03  1.45691E+04  2.17965E+03  1.53497E+04  1.05372E+04  1.07561E+04  1.82064E+04
 -3.88888E+03  2.29210E+04 -1.66473E+04  1.68621E+04 -2.37863E+04  3.19086E+03 -1.79041E+04 -8.98441E+03
 -9.52736E+03 -1.43409E+04 -2.02766E+03 -1.26571E+04  3.81331E+03 -6.94252E+03  3.27059E+03 -6.36307E+03
  3.30530E+03 -2.86393E+03  2.78697E+03 -2.41233E+03  6.57460E+03 -1.85222E+03  6.99952E+03 -7.16000E+02
  9.51718E+03  2.44059E+03  4.65696E+03  7.70025E+03 -1.98771E+03  1.03705E+04 -1.04075E+04  6.99713E+03
 -1.36905E+04 -1.80278E+03 -8.13890E+03 -1.03367E+04 -4.88427E+02 -1.33418E+04  7.83330E+03 -1.42357E+04
  1.55048E+04 -7.80544E+03  1.59352E+04  2.80399E+03  1.12481E+04  1.20403E+04  3.53601E+03  1.51844E+04
 -7.68733E+03  1.45227E+04 -6.95007E+03  4.18623E+03 -6.26919E+03 -1.35869E+03 -1.43423E+03 -1.12326E+03
 -3.64224E+02  1.72794E+02 -1.35327E+03  1.55035E+03 -4.31576E+03  2.86496E+03 -8.36735E+03 -8.22592E+02
 -7.32529E+03 -8.77094E+03 -6.84188E+02 -1.15099E+04  7.60964E+03 -1.19278E+04  1.30775E+04 -4.26040E+03
  1.26841E+04  7.16553E+03  5.42606E+03  1.12416E+04 -2.30457E+03  1.25203E+04 -9.36285E+03  7.59095E+03
 -1.23332E+04  6.58023E+02 -8.39464E+03 -6.59459E+03 -9.34298E+02 -1.15131E+04  4.02686E+03 -7.96220E+03
  7.73108E+03 -2.58370E+03  5.15135E+03  1.51251E+03  1.30116E+03  4.20574E+03  1.28353E+03  1.16242E+03
  1.51639E+03  3.72405E+02  3.30503E+03  1.40090E+02  3.75651E+03  2.50451E+03  3.08704E+03  6.71569E+03
 -2.95400E+03  8.91835E+03 -8.58810E+03  1.01537E+04 -1.20200E+04  1.50881E+03 -1.40263E+04 -6.01759E+03
 -4.35434E+03 -1.32725E+04  2.54860E+03 -1.45531E+04  7.21498E+03 -7.91779E+03  9.19016E+03 -1.30381E+03
  8.41684E+03  4.63378E+03  2.33686E+03  6.29188E+03 -2.94140E+03  3.83838E+03 -5.68351E+03  2.23270E+00
 -2.18389E+03 -5.44685E+03  3.11478E+03 -4.87854E+03  5.39960E+03 -1.14925E+03  5.86948E+03  1.69110E+03
  3.18533E+03  1.92248E+03  1.25071E+03  1.38945E+03 -4.85567E+02  1.63239E+03  7.07900E+02  2.84233E+02
  2.77105E+03 -1.78633E+03  4.50366E+03  2.26771E+03  2.22629E+03  6.54126E+03 -1.22886E+03  7.91104E+03
 -4.64378E+03  6.74832E+03 -5.80419E+03  2.43322E+03 -8.49160E+03 -2.22299E+03 -3.58059E+03 -4.16295E+03
  9.62276E+02 -3.29670E+03  3.67807E+03 -2.12830E+03  3.51205E+03  2.05741E+03 -1.97015E+03  4.38431E+03
 -6.32179E+03  2.36195E+03 -5.48146E+03 -2.89557E+03 -4.51856E+03 -7.01122E+03  2.15652E+02 -7.17097E+03
  4.29045E+03 -3.00598E+03  5.15083E+03  2.21367E+02  2.85808E+03  1.20668E+03  1.02502E+02  2.09319E+03
 -3.01286E+03  1.05970E+03 -2.11208E+03 -2.97793E+03  1.27103E+03 -6.22956E+03  6.52398E+03 -3.74862E+03
  7.06353E+03  1.19736E+02  8.34758E+03  5.96370E+03  2.50899E+03  7.34893E+03 -2.60167E+03  7.53047E+03
 -5.92730E+03  3.58127E+03 -7.86387E+03 -2.54149E+03 -3.85353E+03 -6.06654E+03  1.64450E+03 -4.44110E+03
  4.32373E+03 -3.82162E+03  5.64657E+03  4.35133E+02  1.35387E+03  4.40839E+03  4.65292E+02  4.98824E+03
 -2.70027E+03  2.83018E+03 -2.28270E+03  3.49445E+02 -4.27278E+02  7.43996E+02 -1.35932E+03  7.26001E+02
 -1.15903E+03  4.16043E+03 -5.04982E+03  1.24715E+03 -8.27052E+03 -1.38429E+02 -7.48670E+03 -4.59849E+03
 -4.13460E+03 -1.07857E+04  2.63692E+03 -1.09451E+04  8.54385E+03 -7.81051E+03  1.17800E+04 -2.94940E+03
  1.01753E+04  2.84380E+03  4.95046E+03  6.65348E+03 -9.24763E+02  7.99866E+03 -2.06858E+03  6.98940E+03
 -3.66654E+03  3.44014E+03 -2.80823E+03 -8.13097E+02 -8.37719E+02  1.02617E+03  4.02247E+01  4.40534E+02
 -3.67741E+03 -4.52322E+02 -9.04404E+02  2.87990E+02  7.09491E+01 -9.88638E+02  1.16490E+03 -3.21795E+03
  2.37438E+03 -2.12653E+03  4.50228E+03  5.64827E+02  5.97367E+03  4.53420E+03  1.75742E+03  8.33944E+03
 -3.29728E+03  9.31245E+03 -6.87976E+03  3.40663E+03 -8.77789E+03  5.95210E+02 -7.73508E+03 -5.53711E+03
 -3.90775E+03 -8.16814E+03  1.83734E+03 -7.49493E+03  4.57159E+03 -5.38948E+03  3.88189E+03  1.68945E+03
  3.05667E+03  1.93894E+03 -5.20389E+02  3.91803E+03 -1.27300E+03 -7.00971E+02 -1.06198E+03 -1.54427E+03
  2.20290E+03 -8.58326E+02  2.63538E+03  7.01174E+02  1.92599E+03  4.40289E+03  6.60153E+02  2.62699E+03
 -4.36515E+03  4.29010E+03 -3.35203E+03 -3.32543E+02 -2.72963E+03 -4.14105E+03  7.87938E+02 -5.29185E+03
  3.96554E+03 -5.39145E+03  6.71296E+03 -1.36102E+03  6.24886E+03  6.91521E+02  2.95092E+03  3.85176E+03
 -6.75966E+01  4.97719E+03 -2.19257E+03  4.34220E+03 -3.18670E+03  1.89474E+03 -3.94569E+03  2.21661E+03
 -5.78436E+02  3.00757E+02 -1.67901E+03  1.48462E+03 -4.67199E+03  1.39500E+03 -5.43482E+03 -1.26492E+03
 -4.01288E+03 -2.65193E+03 -3.05149E+03 -4.48261E+03  2.12810E+03 -5.92490E+03  3.86929E+03 -2.37607E+03
  5.74508E+03  1.79639E+02  1.33157E+03  4.69939E+03  3.25997E+01  4.53349E+03 -3.66073E+03  2.38337E+03
