 $NMID ID='MM_0lb_SNR200_18hz_g50_72.RAW', FMTDAT='(8E13.5)'
 TRAMP=1., VOLUME=1. $END
  3.10655E+05  3.09687E+02  3.37009E+05  2.49689E+05  8.41073E+04  3.36569E+05 -1.32628E+05  2.49905E+05
 -1.89756E+05  8.24579E+04 -1.11701E+05 -3.37577E+04  1.27225E+03 -5.03810E+04  5.36791E+04  5.41412E+01
  3.45052E+04  5.26257E+04 -1.66648E+04  7.55398E+04 -6.12281E+04  6.37671E+04 -8.30675E+04  3.10107E+04
 -8.14687E+04 -1.08557E+04 -5.64753E+04 -5.09345E+04 -1.51695E+04 -6.91495E+04  2.79135E+04 -4.49240E+04
  3.80314E+04  3.87324E+03  1.48331E+04  4.68866E+04 -3.39964E+04  4.74021E+04 -6.64916E+04 -1.28687E+03
 -5.12702E+04 -5.57851E+04 -6.49381E+03 -7.48721E+04  3.41505E+04 -5.30069E+04  4.57058E+04 -1.68591E+04
  4.16474E+04  1.09269E+04  3.05945E+04  2.52769E+04  1.69042E+04  2.77297E+04 -4.41932E+03  2.71935E+04
 -2.14512E+04  1.18741E+04 -2.04530E+04 -3.70415E+03  5.32071E+03 -7.44289E+03  2.24204E+04  1.22458E+04
  7.45835E+03  3.48156E+04 -3.00518E+04  3.43125E+04 -6.18651E+04  2.52099E+03 -5.60071E+04 -4.13937E+04
 -1.29731E+04 -6.10851E+04  3.82403E+04 -4.46638E+04  5.65310E+04 -2.76132E+03  3.40150E+04  3.13081E+04
 -6.65708E+03  3.41561E+04 -2.92766E+04  1.39021E+04 -2.77346E+04 -5.59895E+03 -1.45250E+04 -9.45594E+03
 -7.94693E+03 -1.33556E+04 -6.92463E+02 -1.65658E+04  5.82693E+03 -2.30089E+04  1.55673E+04 -1.26997E+04
  1.19451E+04  4.60596E+03 -7.14072E+03  1.36660E+04 -1.90156E+04 -2.80962E+03 -7.71521E+03 -3.20113E+04
  2.07749E+04 -4.17981E+04  4.54072E+04 -2.02215E+04  4.24801E+04  1.78044E+04  1.56019E+04  4.24148E+04
 -1.62080E+04  3.17775E+04 -2.34701E+04  1.35874E+03 -7.98928E+03 -2.77528E+04  2.17278E+04 -3.30208E+04
  3.94567E+04 -7.17386E+03  3.29341E+04  2.35240E+04  1.50458E+04  4.29227E+04 -7.91264E+03  4.54720E+04
 -2.94644E+04  3.06988E+04 -3.83845E+04  8.71976E+03 -3.91435E+04 -1.55729E+04 -2.30302E+04 -3.41569E+04
  6.83396E+03 -3.52795E+04  3.00406E+04 -1.42090E+04  2.67723E+04  1.01862E+04  3.81144E+03  1.67980E+04
 -1.24339E+04  7.48554E+03 -9.34223E+03 -7.36548E+03  5.61562E+03 -9.96346E+03  1.70495E+04  6.24567E+03
  1.25863E+04  2.13037E+04 -6.68627E+03  2.40092E+04 -2.19972E+04  9.78253E+03 -2.61032E+04 -5.38279E+03
 -1.71181E+04 -1.69611E+04 -6.28313E+03 -1.67321E+04  5.30450E+03 -1.53130E+04  1.28532E+04 -1.45982E+04
  2.27983E+04 -1.27020E+04  2.87811E+04  1.14114E+03  2.05375E+04  1.64930E+04  3.17822E+03  3.21959E+04
 -1.76644E+04  2.81861E+04 -2.56246E+04  9.79461E+03 -2.04907E+04 -1.09635E+04 -3.00010E+03 -1.44442E+04
  1.84306E+03 -3.80213E+03 -3.44801E+03  5.94680E+03 -1.30199E+04  4.66259E+03 -1.51592E+04 -5.40332E+03
 -9.90409E+03 -1.59588E+04  4.17249E+03 -2.12147E+04  1.42351E+04 -1.43551E+04  1.53601E+04 -2.21321E+03
  1.05360E+04  1.19590E+04  1.42038E+02  1.62737E+04 -1.02901E+04  8.78945E+03 -1.51754E+04 -4.20308E+03
 -1.21301E+04 -1.41805E+04 -2.52035E+03 -1.95423E+04  8.68387E+03 -1.58691E+04  1.60687E+04 -9.56079E+03
  1.55617E+04  1.37825E+03  1.13417E+04  3.55231E+03  5.21447E+03  3.98653E+02  8.57352E+03 -1.70377E+03
  1.51299E+04  3.58253E+03  1.68552E+04  1.28197E+04  9.28969E+03  2.65541E+04 -3.34652E+03  2.84305E+04
 -1.64764E+04  2.03300E+04 -2.58036E+04  1.05307E+04 -2.70678E+04 -2.04997E+03 -2.18898E+04 -1.51879E+04
 -1.08878E+04 -2.11459E+04  7.36350E+03 -2.11994E+04  1.69518E+04 -1.04059E+04  1.56918E+04  4.42431E+03
  7.03138E+03  1.14162E+04 -7.17416E+03  1.01873E+04 -1.44184E+04  3.25172E+03 -9.89321E+03 -8.58573E+03
  1.93605E+02 -1.18180E+04  7.28997E+03 -9.57003E+03  8.33167E+03 -1.57737E+03  2.31587E+03  5.56622E+03
 -5.52773E+03  1.31626E+03 -4.71564E+03 -4.74209E+03  1.20342E+03 -1.04243E+04  8.15240E+03 -1.05264E+04
  1.31189E+04 -4.48960E+03  1.23918E+04  3.38553E+03  1.12064E+04  9.55157E+03  6.88143E+03  1.40195E+04
 -1.19540E+03  1.64187E+04 -1.06216E+04  1.12804E+04 -1.18806E+04  3.25998E+03 -9.22636E+03 -1.81772E+03
 -5.52236E+03 -2.14189E+03 -1.32391E+03  2.84775E+03 -1.35634E+03  2.26980E+03 -3.52112E+03  3.64351E+03
 -7.50057E+03 -6.67737E+02 -9.01486E+03 -8.62251E+03 -2.50076E+03 -1.23265E+04  3.23046E+03 -8.60296E+03
  8.07838E+03 -3.79661E+03  5.54885E+03  1.74503E+03  7.87321E+02  3.60131E+03 -3.32116E+03  1.64420E+02
 -3.17918E+03 -5.36583E+03 -7.61466E+02 -6.97067E+03  4.71311E+03 -8.41870E+03  1.12669E+04 -4.43390E+03
  1.24082E+04  1.36873E+03  8.38526E+03  5.90769E+03  1.78020E+03  9.45740E+03 -5.18130E+03  8.65219E+03
 -8.72636E+03  2.88830E+03 -4.20323E+03 -1.30646E+03  1.64981E+03 -1.14707E+03  4.61926E+03  5.78203E+02
  4.51828E+03  4.13283E+03 -1.71927E+02  7.26285E+03 -4.94787E+03  6.77421E+03 -7.75375E+03  1.71317E+03
 -4.04168E+03 -4.00442E+03  1.28799E+03 -6.95519E+03  4.23306E+03 -4.11898E+03  4.50461E+03  8.11004E+02
 -9.62875E+02  2.41935E+03 -4.52475E+03  4.98317E+03 -5.54595E+03  1.74178E+03 -4.74638E+03 -2.54232E+03
 -3.71570E+03 -6.43276E+03  1.01426E+03 -9.18940E+03  7.83612E+03 -5.63979E+03  7.94501E+03  5.37814E+02
  5.66948E+03  6.15908E+03 -7.55153E+02  7.86259E+03 -5.58577E+03  5.02538E+03 -5.99444E+03 -1.69359E+02
 -6.18580E+03 -5.92446E+03 -8.89901E+02 -5.33703E+03  3.22672E+03 -5.28674E+03  3.52586E+03 -3.32129E+03
  3.20704E+03  2.71771E+02  8.06334E+02  1.59161E+03  6.75379E+02 -4.76913E+02  2.01512E+02 -1.67351E+03
  3.53180E+03 -1.73502E+03  6.29620E+03  1.25009E+02  6.00255E+03  2.73905E+03  5.50005E+03  7.13017E+03
 -2.33797E+03  8.94814E+03 -7.79121E+03  6.21527E+03 -9.86049E+03  2.95979E+03 -8.76168E+03 -2.73885E+03
 -4.58571E+03 -6.78111E+03  9.60915E+02 -5.71689E+03  2.71011E+03 -2.65158E+03  1.48947E+03 -2.04294E+03
  1.80546E+03 -2.44786E+03  2.03230E+03 -3.34263E+03  2.54550E+03 -1.30294E+03  3.09175E+03  4.05561E+02
  5.12796E+03  2.13356E+02  2.48286E+03  3.57999E+03 -2.42977E+03  3.10367E+03 -3.65348E+03  3.01243E+03
 -5.80348E+03 -1.62491E+03 -1.39934E+03 -3.51836E+03  6.37653E+02 -5.77397E+03  3.94452E+03 -6.41440E+03
  4.91419E+03 -3.73969E+03  6.28363E+03 -1.19239E+03  5.69109E+03  5.04893E+03  1.64735E+03  6.20509E+03
 -2.82051E+03  6.40788E+03 -3.49887E+03  9.29710E+02 -2.03708E+03 -2.11054E+03 -1.11369E+03  1.41374E+02
 -1.34877E+03  4.72385E+02 -1.75188E+03  1.91766E+03 -3.33805E+03  2.11085E+03 -4.47681E+03 -1.09295E+03
 -1.32821E+03 -4.00830E+03  6.83967E+02 -4.20384E+03  3.13435E+03 -4.88174E+03  2.89491E+03 -1.51767E+03
  3.77576E+03  2.01434E+03  3.20455E+03  3.91618E+03 -7.13237E+02  4.38007E+03 -1.02118E+03  3.90827E+03
 -3.21207E+03  6.24215E+02 -2.90090E+03 -1.19193E+03 -7.76822E+02 -4.11324E+03  2.09973E+03 -2.85899E+03
  2.25233E+03 -1.67749E+03  1.48110E+03  9.44336E+00  1.11975E+03  2.07273E+03  4.07962E+02 -4.42958E+01
  1.71877E+03 -5.90668E+02  2.03002E+03  1.52705E+03  1.15441E+03  3.31662E+03  9.07806E+02  2.22911E+03
 -1.71321E+03  3.51882E+03 -3.53608E+03  4.35551E+03 -3.40264E+03  7.64855E+02 -4.96206E+03 -1.46994E+03
 -2.02069E+03 -4.68457E+03  5.66916E+02 -5.10353E+03  1.89096E+03 -2.88473E+03  3.12436E+03 -1.41623E+03
  2.61083E+03  2.47393E+03  4.90698E+02  2.97321E+03 -1.68098E+03  3.90952E+02 -8.98569E+02 -1.90276E+03
 -4.30600E+02 -1.31154E+03  1.89339E+03 -2.01385E+03  1.08372E+03 -7.31598E+02  8.29003E+02  9.85902E+02
  1.43737E+03  2.36701E+02  8.93573E+02 -4.64708E+02 -4.25659E+02  6.44663E+02  6.65772E+02 -3.05365E+02
  3.07372E+02 -9.50064E+02  1.28826E+03  1.94488E+02 -1.14980E+02  2.10099E+03 -7.92692E+02  2.93175E+03
 -1.68471E+03  8.24796E+02 -3.18239E+03  5.50709E+02 -2.86499E+03 -1.53159E+03 -7.52106E+02  1.03230E+02
  2.31630E+02 -1.90188E+03  9.54973E+02 -1.09853E+03  1.63265E+03  1.39705E+03 -9.69941E+02  4.91233E+02
 -1.30048E+03  7.91609E+02 -2.34439E+03 -2.05835E+03 -8.04592E+02 -1.94311E+03  3.36361E+01 -1.95494E+03
  2.95082E+01 -6.91243E+02  1.74623E+03  9.76962E+02  1.01656E+03  5.83126E+02  3.92919E+02  1.30214E+03
 -2.88621E+02  2.35128E+02 -2.05560E+02 -1.55485E+02  1.63266E+03 -1.40463E+03  2.35758E+03 -1.25076E+03
  1.60240E+03  4.85568E+02  2.45541E+03  3.14431E+02  6.61804E+02  2.09562E+03 -1.94771E+02  2.32283E+03
 -7.56151E+02  1.40860E+02 -1.40676E+03 -5.70695E+01 -9.92564E+02 -1.22066E+03  4.19248E+02 -6.03532E+02
  1.54611E+03 -5.73378E+02  8.83937E+02  1.24476E+03  9.40205E+00  1.48893E+03  1.55620E+01  1.15037E+03
 -1.17135E+03  8.59026E+02  9.23573E+02  4.48610E+02 -4.59324E+02  7.22193E+02 -2.08736E+03  6.57440E+02
 -6.10292E+02  2.84237E+02 -1.43136E+03  7.25588E+02 -2.26854E+03 -8.15386E+02 -2.78091E+03 -1.11690E+03
 -1.28216E+03 -1.92304E+03  1.37772E+03 -3.89538E+03  8.80853E+02 -1.66486E+03  3.63279E+03 -8.37723E+02
  1.45081E+03  1.21942E+02  2.11092E+03  1.74900E+03 -1.33583E+02  4.54527E+02 -8.72380E+02  1.49900E+03
 -7.08740E+02  1.28736E+03 -2.57832E+02 -8.30265E+02 -8.34765E+02  1.16358E+03 -4.26767E+02  5.85030E+02
 -7.60955E+02 -7.32369E+02 -8.63083E+02  1.13942E+03 -9.45937E+01 -1.50525E+03 -1.70847E+03 -1.03274E+03
  1.02641E+03 -5.68736E+02  9.85848E+02  4.72901E+02  1.44252E+03  4.89875E+02 -1.60281E+02  2.15888E+03
 -2.30203E+03  1.96401E+03 -1.57496E+03  1.77941E+03 -2.04846E+03 -1.12189E+03 -3.62374E+02 -1.86238E+03
 -9.09825E+02 -2.59517E+03 -2.96575E+02 -1.06420E+03  5.88392E+02 -1.33347E+03  1.31576E+03  3.75332E+02
  1.54508E+03  1.22897E+03 -4.25171E+02  2.63106E+02 -9.39126E+02  1.12685E+03  3.34291E+02  6.59901E+02
 -7.82844E+02  1.79879E+03  4.61223E+02  2.76221E+02  2.08210E+01  1.02003E+03  1.92105E+03 -5.56317E+02
 -6.19066E+02  1.11679E+02  4.18139E+02  6.33087E+02 -1.53250E+03 -1.32918E+02 -5.15750E+02  3.96508E+02
  5.36488E+01 -7.27330E+02  8.93689E+02  1.54579E+02  7.98318E+02 -1.05189E+03 -5.67186E+01  1.51127E+03
  9.66825E+02  4.60148E+02  9.94324E+02 -2.98694E+02 -9.06870E+02  1.53927E+03 -1.52100E+03  7.46147E+02
 -2.21652E+02 -1.10005E+03 -2.22250E+02  5.39077E+02 -2.45702E+02  7.75921E+02 -8.18555E+02  5.60452E+02
 -1.26459E+03 -7.61953E+02 -6.02796E+02 -1.04732E+03  1.00370E+03 -4.85196E+02  6.23768E+02  2.27881E+02
  1.47128E+01 -1.25360E+03  5.10707E+02  7.79513E+02  5.06006E+02  3.25523E+01  3.37679E+02  6.35401E+02
