 $NMID ID='MM_0lb_SNR200_12hz_g40_46.RAW', FMTDAT='(8E13.5)'
 TRAMP=1., VOLUME=1. $END
  3.09249E+05  4.30197E+02  3.38517E+05  2.51303E+05  8.47093E+04  3.37487E+05 -1.33710E+05  2.51895E+05
 -1.90559E+05  8.27880E+04 -1.12364E+05 -3.27961E+04  1.11853E+03 -5.06042E+04  5.26416E+04 -1.27185E+03
  3.61337E+04  5.19498E+04 -1.58674E+04  7.69111E+04 -6.03709E+04  6.38153E+04 -8.39155E+04  3.25125E+04
 -8.08031E+04 -9.60935E+03 -5.68519E+04 -5.15519E+04 -1.57855E+04 -6.92839E+04  2.72583E+04 -4.60124E+04
  3.96866E+04  4.01480E+03  1.57508E+04  4.76242E+04 -3.47358E+04  4.70798E+04 -6.77354E+04 -7.97650E+02
 -5.43971E+04 -5.54656E+04 -6.94168E+03 -7.70495E+04  3.22275E+04 -5.41969E+04  4.94605E+04 -1.68987E+04
  4.44380E+04  1.05890E+04  3.16791E+04  2.56741E+04  1.54445E+04  3.16068E+04 -5.12663E+03  2.68714E+04
 -2.25527E+04  1.37740E+04 -1.94749E+04 -5.08684E+03  6.05930E+03 -7.18745E+03  2.25824E+04  1.36312E+04
  8.26267E+03  3.59069E+04 -3.21111E+04  3.65911E+04 -6.27229E+04  3.39611E+03 -5.64919E+04 -4.34241E+04
 -1.23608E+04 -6.35039E+04  3.92339E+04 -4.58425E+04  5.91074E+04 -2.45979E+03  3.51699E+04  3.28305E+04
 -7.08934E+03  3.54005E+04 -2.98216E+04  1.68576E+04 -3.04408E+04 -4.53627E+03 -1.65935E+04 -1.14789E+04
 -9.10043E+03 -1.34094E+04 -5.06501E+02 -1.96618E+04  7.12915E+03 -2.32499E+04  1.59359E+04 -1.23880E+04
  1.14095E+04  4.77661E+03 -8.78899E+03  1.27818E+04 -2.10051E+04 -5.97503E+03 -8.94901E+03 -3.46501E+04
  2.35625E+04 -4.46721E+04  4.89556E+04 -1.91719E+04  4.61201E+04  1.99563E+04  1.65081E+04  4.67176E+04
 -1.68701E+04  3.37632E+04 -2.53172E+04  1.55776E+03 -1.02797E+04 -2.90437E+04  1.96288E+04 -3.53978E+04
  4.19242E+04 -1.00900E+04  3.66902E+04  2.53016E+04  1.86931E+04  4.76269E+04 -8.31184E+03  5.10161E+04
 -3.23499E+04  3.38060E+04 -4.38004E+04  9.73997E+03 -4.32669E+04 -1.61553E+04 -2.23191E+04 -3.98119E+04
  7.04914E+03 -3.85153E+04  3.12664E+04 -1.64702E+04  2.97768E+04  1.02443E+04  4.93437E+03  1.86671E+04
 -1.26544E+04  7.89304E+03 -9.80615E+03 -7.57349E+03  6.69680E+03 -1.04970E+04  1.77706E+04  4.42177E+03
  1.31096E+04  2.26221E+04 -5.78506E+03  2.62948E+04 -2.30536E+04  1.16715E+04 -2.81092E+04 -3.57177E+03
 -2.18515E+04 -1.78430E+04 -9.72370E+03 -2.27262E+04  3.14921E+03 -1.93745E+04  1.59057E+04 -1.98565E+04
  2.59390E+04 -1.23128E+04  3.32357E+04  3.27510E+03  2.46169E+04  2.11541E+04  4.20873E+03  3.75932E+04
 -1.73452E+04  3.16870E+04 -2.84196E+04  1.20203E+04 -2.16609E+04 -1.08501E+04 -5.02718E+03 -1.32306E+04
  1.57662E+03 -1.08224E+03 -5.37995E+03  7.98976E+03 -1.74336E+04  5.52050E+03 -1.75502E+04 -6.95623E+03
 -1.12521E+04 -2.04063E+04  5.60529E+03 -2.49489E+04  1.46167E+04 -1.75980E+04  1.83990E+04 -2.52627E+03
  1.25329E+04  1.45333E+04 -1.36511E+03  1.93153E+04 -1.33636E+04  1.10842E+04 -1.89911E+04 -3.95328E+03
 -1.50593E+04 -1.81550E+04 -2.76153E+03 -2.43713E+04  1.18050E+04 -1.94684E+04  2.00604E+04 -1.10969E+04
  1.77934E+04  8.61401E+02  1.34427E+04  6.43977E+03  8.85148E+03  1.06798E+03  1.09203E+04 -5.88164E+02
  1.87871E+04  3.95387E+03  2.07070E+04  1.59526E+04  1.42630E+04  3.13604E+04 -2.02809E+03  3.68872E+04
 -2.13895E+04  2.82430E+04 -3.42216E+04  1.52645E+04 -3.58332E+04 -2.01440E+03 -2.94249E+04 -2.13333E+04
 -1.13919E+04 -2.91619E+04  9.96622E+03 -2.59316E+04  2.28874E+04 -1.39251E+04  1.94609E+04  5.87276E+03
  6.90648E+03  1.55913E+04 -1.02999E+04  1.26034E+04 -1.59163E+04  3.30403E+03 -1.33473E+04 -1.02302E+04
 -5.02046E+02 -1.78355E+04  9.15255E+03 -1.30119E+04  1.12532E+04 -1.97307E+03  2.64566E+03  6.62587E+03
 -7.04015E+03  2.94223E+03 -5.66671E+03 -4.45175E+03 -2.36608E+03 -1.58729E+04  9.82176E+03 -1.52020E+04
  1.71431E+04 -7.90697E+03  2.06295E+04  3.59137E+03  1.78513E+04  1.28918E+04  6.76244E+03  2.25452E+04
 -4.29965E+03  2.42042E+04 -1.49769E+04  1.42842E+04 -1.77051E+04  2.84960E+03 -1.25767E+04 -4.17655E+03
 -5.61183E+03 -5.13181E+03 -9.25000E+02  1.01459E+03 -9.03741E+02  3.01929E+03 -5.96634E+03  4.93335E+03
 -9.50987E+03 -1.44596E+02 -1.16108E+04 -9.36578E+03 -5.00055E+03 -1.57869E+04  3.60318E+03 -1.32859E+04
  9.57167E+03 -6.04719E+03  5.07357E+03  3.35855E+03  2.93213E+02  4.71034E+03 -7.10183E+03  1.32793E+03
 -6.43676E+03 -7.46639E+03 -2.83631E+03 -1.24267E+04  7.61850E+03 -1.32361E+04  1.56035E+04 -7.03829E+03
  1.90007E+04  1.75747E+03  1.18555E+04  1.15391E+04  1.51807E+03  1.44899E+04 -8.52313E+03  1.35545E+04
 -9.77456E+03  4.04118E+03 -6.48536E+03 -2.99618E+03  1.53354E+03 -1.95360E+03  6.07492E+03 -9.29287E+02
  6.24598E+03  4.19148E+03  4.94611E+02  8.84890E+03 -7.73533E+03  8.56811E+03 -1.22468E+04  2.04867E+03
 -7.01657E+03 -5.16479E+03  4.32871E+01 -9.04042E+03  6.49636E+03 -4.62820E+03  5.52698E+03  2.46171E+03
  1.03397E+03  5.22773E+03 -8.33346E+03  7.82404E+03 -9.07479E+03  3.39828E+03 -9.59841E+03 -3.56012E+03
 -5.44334E+03 -1.12184E+04  1.82197E+03 -1.26962E+04  1.14774E+04 -8.15266E+03  1.27578E+04  2.35449E+03
  8.25473E+03  1.02412E+04 -6.11707E+02  1.11105E+04 -8.14734E+03  6.88596E+03 -8.15118E+03 -8.59151E+02
 -9.13607E+03 -8.30462E+03 -1.25368E+03 -8.11899E+03  7.11055E+03 -7.14505E+03  6.85980E+03 -3.70951E+03
  3.59421E+03  9.95773E+02  2.33494E+02  1.82157E+03 -1.02603E+03 -2.20891E+03  7.79570E+02 -5.03268E+03
  7.81365E+03 -2.69741E+03  1.09972E+04  2.37207E+03  1.05957E+04  8.08227E+03  7.94537E+03  1.46406E+04
 -4.17229E+03  1.65022E+04 -1.32019E+04  1.09190E+04 -1.89706E+04  1.59881E+03 -1.44232E+04 -5.80254E+03
 -7.01986E+03 -1.26281E+04 -8.80051E+02 -9.43129E+03  4.73791E+03 -5.96833E+03  3.49940E+03 -3.75786E+03
  2.41494E+03 -2.31132E+03  3.58534E+03 -3.73821E+03  5.00319E+03 -2.83744E+03  6.15056E+03 -6.08615E+00
  8.78789E+03  1.74629E+03  3.39342E+03  6.04666E+03 -1.71259E+03  7.32276E+03 -7.90724E+03  7.06159E+03
 -1.02708E+04 -1.09876E+03 -5.27832E+03 -6.75000E+03 -1.58071E+03 -1.05873E+04  5.42236E+03 -1.09695E+04
  9.53370E+03 -6.15522E+03  1.36509E+04  1.75401E+03  8.44702E+03  9.78760E+03  1.55682E+03  1.24958E+04
 -4.85034E+03  1.00073E+04 -7.36306E+03  2.90012E+03 -4.71532E+03 -1.52890E+03 -3.84088E+02 -1.57743E+03
 -1.60370E+03  4.91826E+02 -2.28965E+03  2.40342E+03 -4.28675E+03  1.91396E+03 -6.82737E+03 -7.88751E+02
 -5.73845E+03 -8.11178E+03  2.42720E+02 -8.42599E+03  6.50181E+03 -9.73411E+03  8.64797E+03 -2.58735E+03
  9.44742E+03  5.16525E+03  4.06973E+03  9.43436E+03 -2.39562E+03  9.13195E+03 -6.90128E+03  6.07054E+03
 -8.18628E+03 -1.69340E+02 -7.34704E+03 -4.39418E+03 -3.36660E+02 -7.77739E+03  2.90550E+03 -6.03640E+03
  4.92042E+03 -4.23002E+02  4.24583E+03  7.80323E+02  8.55472E+02  3.27183E+03  1.00345E+03  1.77472E+03
  2.21315E+03  2.16339E+03  2.35886E+03  9.46752E+02  4.10441E+03  2.95610E+03  2.90352E+03  5.82200E+03
 -1.00722E+03  7.57529E+03 -6.16644E+03  7.17677E+03 -9.06234E+03  1.36631E+03 -9.43502E+03 -3.33325E+03
 -5.07821E+03 -9.68679E+03  6.05554E+02 -1.12027E+04  6.35470E+03 -6.44020E+03  6.74018E+03 -8.24696E+02
  6.27142E+03  3.90169E+03  1.62410E+03  5.00953E+03 -2.81236E+03  3.06704E+03 -3.60243E+03  2.65770E+02
 -1.23278E+03 -3.01819E+03  1.95325E+03 -3.84176E+03  3.48796E+03 -2.02764E+03  3.29580E+03  6.18538E+02
  4.36878E+03  2.01378E+03  7.81877E+02  9.00679E+02 -9.29047E+02  2.06734E+03  1.42299E+03 -1.88976E+02
  1.90555E+03 -3.19552E+02  3.66262E+03  1.10130E+03  6.32564E+02  4.80916E+03 -9.89198E+02  6.49337E+03
 -4.20236E+03  3.51684E+03 -5.03779E+03  8.52266E+02 -5.35639E+03 -1.62055E+03 -2.19986E+03 -3.30099E+03
  2.91486E+02 -3.57943E+03  4.78303E+03 -2.40136E+03  2.32881E+03  1.47335E+03 -1.65476E+03  3.31842E+03
 -3.92582E+03  1.76183E+03 -4.13724E+03 -1.92242E+03 -1.94207E+03 -6.26700E+03  5.15793E+02 -5.57664E+03
  2.13960E+03 -2.40084E+03  4.38381E+03 -4.79919E+02  2.38889E+03  9.33313E+00  4.62386E+02  2.26780E+03
 -1.56339E+03 -3.27790E+02 -2.93942E+03 -1.36236E+03  1.27018E+03 -4.41347E+03  5.87692E+03 -2.90137E+03
  5.71329E+03 -3.06706E+01  5.61939E+03  4.24759E+03  1.38544E+03  5.53183E+03 -1.02657E+03  3.95624E+03
 -4.87974E+03  2.68418E+03 -5.85908E+03 -1.84530E+03 -2.08693E+03 -2.93359E+03  6.93805E+02 -3.09376E+03
  3.92182E+03 -1.46620E+03  3.16491E+03  3.39335E+02  2.90792E+02  3.10662E+03  9.07519E+02  3.62452E+03
 -1.83933E+03  1.03140E+03 -9.07018E+02 -8.41701E+02 -6.71307E+02  5.54280E+01 -1.67702E+03  1.14343E+03
 -7.48728E+02  3.48132E+03 -4.92162E+03  1.56181E+03 -5.70308E+03  1.94865E+03 -6.59747E+03 -3.51000E+03
 -2.76415E+03 -7.99089E+03  1.58487E+03 -9.60478E+03  4.74545E+03 -6.40502E+03  8.21564E+03 -1.54628E+03
  8.11504E+03  1.74059E+03  4.83184E+03  5.02834E+03  8.37619E+02  5.84986E+03 -3.15061E+03  4.09483E+03
 -3.38543E+03  1.44872E+03 -1.73658E+03  8.85310E+00 -1.67289E+03  3.24237E+02 -1.67938E+03  1.63768E+02
 -1.85751E+03  1.12824E+03 -1.03096E+03 -1.26835E+03  5.62331E+02 -1.97940E+03 -2.82299E+02 -2.80635E+03
  3.33075E+03 -1.46266E+03  2.59323E+03  3.40667E+02  3.18933E+03  2.58469E+03  1.08852E+03  5.68169E+03
 -3.30592E+03  5.74327E+03 -5.22964E+03  3.46774E+03 -6.90110E+03 -9.82550E+02 -4.84135E+03 -3.17548E+03
 -3.77549E+03 -5.79511E+03  1.38167E+03 -4.69370E+03  4.62880E+03 -2.30340E+03  3.75086E+03  6.94699E+02
  1.98746E+03  2.29777E+03  4.08165E+02  1.33967E+03 -9.33746E+02  2.00786E+02 -1.30559E+02 -1.13559E+03
  3.16820E+03 -8.99575E+01  2.20960E+03  1.63862E+03  1.27187E+03  5.77125E+02 -4.26705E+02  2.95935E+03
 -3.56878E+03  2.65140E+03 -4.67209E+03  2.09529E+02 -2.47745E+03 -3.14213E+03 -5.57015E+02 -4.22985E+03
  2.06264E+03 -3.11129E+03  5.51335E+03 -7.79099E+02  4.62864E+03  2.66786E+02  1.87232E+03  3.30859E+03
  3.80149E+01  4.20275E+03 -5.70080E+02  2.51213E+03 -3.35070E+03  3.81092E+02 -6.01896E+02  1.90656E+02
 -1.71183E+03 -1.32652E+03 -2.76235E+03  2.74572E+02 -2.55611E+03  4.09076E+02 -2.45277E+03 -1.62760E+03
 -3.31196E+03 -1.53691E+03 -1.18037E+03 -4.14451E+03  1.42232E+03 -5.15123E+03  3.43046E+03 -1.84476E+03
  3.71555E+03 -1.75591E+02  2.17364E+03  1.97367E+03 -1.30889E+03  3.44791E+03 -2.18639E+03  1.79445E+03
