 $NMID ID='MM_0lb_SNR200_7hz_g60_15.RAW', FMTDAT='(8E13.5)'
 TRAMP=1., VOLUME=1. $END
  3.10706E+05  6.50484E+02  3.38704E+05  2.50850E+05  8.45779E+04  3.39093E+05 -1.31888E+05  2.53525E+05
 -1.91632E+05  8.44736E+04 -1.12297E+05 -3.34311E+04 -2.34422E+03 -5.18913E+04  5.18469E+04 -6.60683E+01
  3.56915E+04  5.47204E+04 -1.49751E+04  7.63295E+04 -6.29665E+04  6.76781E+04 -8.75236E+04  3.35789E+04
 -8.32771E+04 -1.05631E+04 -5.91367E+04 -5.34758E+04 -1.50404E+04 -7.16686E+04  2.93819E+04 -4.89440E+04
  4.14738E+04  1.02147E+03  1.70976E+04  4.90716E+04 -3.42617E+04  4.82647E+04 -6.90921E+04  1.26699E+03
 -5.59347E+04 -5.79693E+04 -9.07978E+03 -8.00555E+04  3.56230E+04 -5.72647E+04  5.04046E+04 -1.89950E+04
  4.52521E+04  1.11064E+04  3.38475E+04  2.78233E+04  1.49221E+04  3.08206E+04 -4.53449E+03  2.85961E+04
 -2.34623E+04  1.22326E+04 -1.68728E+04 -5.91691E+03  7.86696E+03 -9.72142E+03  2.37167E+04  1.47809E+04
  5.96195E+03  4.06914E+04 -3.43559E+04  3.83621E+04 -6.80445E+04  1.36263E+03 -5.87605E+04 -4.64210E+04
 -1.22808E+04 -6.75688E+04  4.35863E+04 -4.89678E+04  6.39594E+04 -3.79126E+03  3.77110E+04  3.56994E+04
 -2.72205E+03  4.10216E+04 -3.36663E+04  2.07328E+04 -3.55902E+04 -6.96702E+03 -2.33832E+04 -1.42418E+04
 -9.84506E+03 -1.61125E+04 -1.42457E+03 -2.03074E+04  8.79168E+03 -2.53668E+04  1.58194E+04 -1.05914E+04
  1.00767E+04  4.89016E+03 -1.15648E+04  1.22446E+04 -2.65668E+04 -6.85771E+03 -9.24245E+03 -3.99002E+04
  2.63615E+04 -4.98529E+04  5.50231E+04 -2.15704E+04  5.15681E+04  2.07079E+04  1.72808E+04  4.88183E+04
 -1.62125E+04  4.03168E+04 -2.74371E+04  2.62308E+03 -1.36730E+04 -3.01041E+04  2.08695E+04 -3.72316E+04
  4.69063E+04 -1.27774E+04  4.34152E+04  2.69577E+04  2.36660E+04  5.43151E+04 -9.53745E+03  5.97487E+04
 -3.65766E+04  4.10605E+04 -5.23768E+04  1.23796E+04 -5.08261E+04 -2.13205E+04 -2.69145E+04 -4.43217E+04
  9.84933E+03 -4.60018E+04  3.46116E+04 -1.68730E+04  3.32465E+04  9.66029E+03  6.80265E+03  2.30228E+04
 -1.45312E+04  1.26491E+04 -1.05851E+04 -7.70072E+03  3.40319E+03 -1.23129E+04  2.06415E+04  6.01112E+03
  1.61424E+04  2.21292E+04 -4.94935E+03  2.88217E+04 -2.38138E+04  1.62533E+04 -3.38754E+04 -3.97135E+02
 -2.70692E+04 -1.97725E+04 -1.39227E+04 -2.79312E+04  4.69218E+03 -2.91256E+04  2.13056E+04 -2.57537E+04
  3.86819E+04 -1.46072E+04  3.93971E+04  7.17561E+03  2.91650E+04  2.71834E+04  5.75780E+03  4.46286E+04
 -2.10634E+04  3.60965E+04 -3.23642E+04  1.28855E+04 -2.20283E+04 -9.13739E+03 -6.16037E+03 -1.33677E+04
  7.23915E+02 -1.16075E+03 -7.39971E+03  8.85186E+03 -2.09269E+04  3.23516E+03 -2.30633E+04 -9.82315E+03
 -1.38656E+04 -2.52404E+04  7.23783E+03 -3.09640E+04  2.04484E+04 -2.25652E+04  2.56660E+04 -2.68084E+03
  1.49478E+04  1.68590E+04 -6.04476E+02  2.54830E+04 -1.84719E+04  1.51113E+04 -2.67940E+04 -5.96617E+03
 -1.87477E+04 -2.52566E+04 -2.45852E+03 -2.90405E+04  1.25795E+04 -2.47934E+04  2.62418E+04 -1.24363E+04
  2.42544E+04 -1.16685E+03  1.88987E+04  6.13624E+03  1.14393E+04  1.15207E+03  1.53762E+04 -2.32959E+03
  2.54980E+04  4.06146E+03  2.73451E+04  2.11555E+04  1.94414E+04  4.22754E+04 -2.28511E+03  4.93582E+04
 -2.86551E+04  4.35320E+04 -4.84247E+04  2.30548E+04 -5.18787E+04 -2.98054E+03 -4.13939E+04 -2.91797E+04
 -1.54730E+04 -4.38172E+04  1.72835E+04 -3.67754E+04  3.18875E+04 -1.72865E+04  2.90419E+04  9.87057E+03
  9.92965E+03  2.20894E+04 -1.42392E+04  1.65284E+04 -2.37138E+04  2.52788E+03 -1.64674E+04 -1.29903E+04
 -6.48359E+02 -2.23260E+04  1.09797E+04 -1.57224E+04  1.50325E+04 -1.05907E+03  4.21806E+03  1.03927E+04
 -1.09859E+04  5.98295E+03 -1.26263E+04 -7.92240E+03 -2.10806E+03 -2.13127E+04  1.47513E+04 -2.43077E+04
  2.82187E+04 -1.57054E+04  3.04714E+04  4.59842E+03  2.73527E+04  2.32412E+04  1.39004E+04  3.47483E+04
 -6.65275E+03  3.75556E+04 -2.37627E+04  2.26184E+04 -2.68087E+04  3.66484E+03 -1.94005E+04 -8.59102E+03
 -8.05508E+03 -7.00422E+03 -1.20327E+03  1.41313E+03 -3.54405E+03  4.69631E+03 -8.65274E+03  5.06366E+03
 -1.55911E+04 -1.47235E+03 -1.64589E+04 -1.28983E+04 -7.21237E+03 -2.15819E+04  7.96883E+03 -1.87877E+04
  1.46743E+04 -8.02343E+03  1.06901E+04  3.10097E+03 -6.54966E+02  8.68651E+03 -1.02063E+04 -2.74718E+03
 -1.09666E+04 -1.37690E+04 -1.45812E+03 -1.86510E+04  1.18612E+04 -1.97791E+04  2.44115E+04 -1.03446E+04
  2.84431E+04  2.06158E+03  2.17831E+04  1.79850E+04  5.12325E+03  2.40918E+04 -9.88454E+03  1.95016E+04
 -1.70542E+04  4.80121E+03 -7.94777E+03 -4.65961E+03  1.75683E+03 -5.03433E+03  8.26984E+03 -2.83542E+03
  8.80424E+03  7.99425E+03 -1.34745E+02  1.57939E+04 -1.04770E+04  1.42005E+04 -1.86143E+04  3.92605E+03
 -1.19513E+04 -8.06761E+03  6.95831E+02 -1.87178E+04  1.08793E+04 -9.11268E+03  1.11392E+04  4.40600E+03
  3.26958E+03  1.27626E+04 -1.10902E+04  1.53326E+04 -1.82123E+04  6.90267E+03 -1.85441E+04 -7.89035E+03
 -1.25763E+04 -1.84690E+04  4.28511E+03 -2.24082E+04  2.03503E+04 -1.37560E+04  2.15755E+04  4.00994E+03
  1.49311E+04  1.61448E+04 -9.91787E+02  1.94762E+04 -1.40255E+04  7.09389E+03 -1.39315E+04 -2.82734E+03
 -1.39007E+04 -1.14858E+04 -1.36429E+03 -1.59034E+04  8.04722E+03 -1.18739E+04  1.20122E+04 -4.09129E+03
  5.74245E+03  3.91135E+03 -7.94621E+02  2.22928E+03 -9.64016E+02 -4.56008E+03  5.13328E+03 -1.00565E+04
  1.48113E+04 -8.04191E+03  2.08675E+04  2.08673E+03  1.99672E+04  1.56728E+04  1.24508E+04  2.70152E+04
 -6.58938E+03  3.02156E+04 -2.71585E+04  2.32250E+04 -3.06619E+04  5.50023E+03 -2.71948E+04 -1.35462E+04
 -1.37646E+04 -2.05161E+04  5.08339E+02 -1.74832E+04  6.97498E+03 -1.06324E+04  7.71276E+03 -7.46981E+03
  5.54644E+03 -3.33681E+03  5.32116E+03 -6.69857E+03  6.06573E+03 -5.65868E+03  1.00304E+04 -1.29610E+03
  1.30448E+04  1.97231E+03  7.70755E+03  1.23237E+04 -4.01179E+03  1.46957E+04 -1.57248E+04  1.37096E+04
 -1.83108E+04 -5.92085E+02 -1.19984E+04 -1.37580E+04 -2.38581E+03 -2.13401E+04  1.16797E+04 -2.09872E+04
  2.21495E+04 -1.01613E+04  2.64479E+04  5.86995E+03  1.91504E+04  1.93903E+04  1.72072E+03  2.37577E+04
 -9.46237E+03  1.80864E+04 -1.44614E+04  7.47948E+03 -9.73015E+03 -1.97057E+03 -6.72783E+03 -2.63111E+03
 -1.73422E+03 -9.13549E+02 -3.22746E+03  4.80566E+03 -6.19262E+03  2.48999E+03 -1.13451E+04 -6.42530E+02
 -9.72841E+03 -1.48933E+04  4.69497E+02 -1.87727E+04  1.21718E+04 -1.68779E+04  1.82816E+04 -6.63896E+03
  2.18188E+04  9.68812E+03  1.11635E+04  1.75330E+04 -4.58223E+03  2.04342E+04 -1.44990E+04  1.42935E+04
 -1.84281E+04  6.62962E+02 -1.45409E+04 -1.30425E+04 -1.31758E+03 -1.71604E+04  8.06830E+03 -1.35753E+04
  1.12433E+04 -3.57583E+03  1.06347E+04  3.38711E+03  9.60785E+02  6.65214E+03  2.20994E+03  3.30202E+03
  3.05824E+02  2.17945E+03  4.85120E+03  1.99959E+03  7.44668E+03  6.42119E+03  4.83796E+03  1.20790E+04
 -3.73115E+03  1.74794E+04 -1.37678E+04  1.64810E+04 -2.30148E+04  3.26543E+03 -2.18191E+04 -1.08559E+04
 -9.91310E+03 -1.97937E+04  3.33472E+03 -2.38662E+04  1.22916E+04 -1.52485E+04  1.75441E+04 -2.34866E+03
  1.50493E+04  6.78555E+03  4.24357E+03  1.15635E+04 -4.95206E+03  9.34930E+03 -7.66098E+03 -3.19262E+03
 -2.53095E+03 -7.92374E+03  3.68000E+03 -9.01198E+03  8.48566E+03 -5.73955E+03  1.00892E+04  3.85662E+03
  5.49172E+03  4.70517E+03  1.19851E+03  2.81201E+03 -7.22457E+02  2.88605E+03  3.04864E+03 -3.80104E+02
  4.16259E+03 -7.96157E+01  8.14731E+03  2.03768E+03  6.33997E+03  1.04275E+04 -4.48659E+02  1.39936E+04
 -1.07525E+04  9.26563E+03 -1.27455E+04  3.58518E+03 -1.19626E+04 -4.06180E+03 -5.69809E+03 -8.35914E+03
  3.02240E+03 -7.53360E+03  4.69342E+03 -5.29098E+03  4.70956E+03  3.53992E+03 -1.97953E+03  6.55338E+03
 -9.43531E+03  4.56745E+03 -1.07007E+04 -6.60296E+03 -4.66661E+03 -9.88256E+03  2.46789E+03 -1.14357E+04
  6.93045E+03 -6.39790E+03  8.72172E+03 -1.39607E+03  8.37971E+03  3.47168E+03  2.03474E+03  5.75365E+03
 -4.05817E+03  1.57155E+03 -4.06157E+03 -3.08233E+03  1.27332E+03 -9.07648E+03  1.10821E+04 -6.93871E+03
  1.53175E+04  2.12908E+03  1.41996E+04  1.01736E+04  4.24991E+03  1.59360E+04 -5.15691E+03  1.46655E+04
 -1.24492E+04  7.42790E+03 -1.27050E+04 -2.33989E+03 -7.83717E+03 -8.60378E+03  1.91142E+03 -1.03657E+04
  7.67789E+03 -3.96778E+03  6.39086E+03  1.46799E+03  3.49712E+03  8.72385E+03 -2.97715E+03  6.08937E+03
 -4.51099E+03  3.66000E+03 -2.02100E+03  1.98627E+03 -1.03007E+03  2.05747E+03 -2.06254E+03  3.35369E+03
 -7.01984E+03  5.51321E+03 -1.02353E+04  6.90763E+03 -1.50987E+04  1.35811E+03 -1.67720E+04 -1.07490E+04
 -9.87208E+03 -2.18665E+04  3.15369E+03 -2.48346E+04  1.37142E+04 -1.69331E+04  2.11357E+04 -6.32001E+03
  1.86633E+04  4.53615E+03  1.36270E+04  1.65220E+04  1.97322E+03  1.63730E+04 -6.66027E+03  1.16327E+04
 -9.49632E+03  5.43220E+03 -5.94847E+03 -8.67308E+02 -1.46529E+03 -3.79736E+02 -6.27319E+02 -4.28151E+02
 -1.49453E+03  1.57346E+03 -2.62233E+03  4.36000E+01 -1.93217E+03 -1.63432E+03  1.12262E+03 -4.94691E+03
  6.43940E+03 -6.17104E+03  1.00364E+04  8.61430E+02  1.20797E+04  9.29754E+03  2.79328E+03  1.77912E+04
 -8.30624E+03  1.70631E+04 -1.62117E+04  1.01709E+04 -2.03366E+04 -5.20631E+02 -1.46499E+04 -1.22500E+04
 -6.80846E+03 -1.84769E+04  2.36514E+03 -1.52566E+04  1.05108E+04 -7.60779E+03  1.06772E+04  1.15469E+02
  6.27430E+03  5.61478E+03 -1.32637E+03  4.19898E+03 -3.18877E+03  3.20446E+02 -2.24705E+02 -2.43400E+03
  5.00644E+03 -1.80361E+03  5.92365E+03  1.59432E+03  6.36286E+03  7.00442E+03 -1.30126E+02  8.96357E+03
 -6.20141E+03  7.91255E+03 -1.10294E+04  7.52070E+02 -1.03397E+04 -6.49225E+03 -1.42463E+03 -1.42779E+04
  5.77648E+03 -1.22686E+04  1.22420E+04 -3.96089E+03  1.28791E+04  5.04074E+03  7.43233E+03  1.02508E+04
  4.73873E+02  1.16267E+04 -5.12763E+03  9.19929E+03 -8.01212E+03  5.53814E+03 -5.49166E+03  2.10010E-01
 -4.33613E+03  7.34772E+02 -3.54793E+03 -3.28070E+02 -5.23123E+03  2.73028E+03 -6.62602E+03 -9.14704E+02
 -6.17959E+03 -3.85240E+03 -2.31841E+03 -1.24720E+04  5.61280E+03 -1.09221E+04  1.01713E+04 -4.92005E+03
  1.30343E+04  1.73294E+03  6.65341E+03  8.76352E+03  4.82199E+01  1.21152E+04 -9.54590E+03  7.85076E+03
