 $NMID ID='MM_0lb_SNR200_11hz_g45_13.RAW', FMTDAT='(8E13.5)'
 TRAMP=1., VOLUME=1. $END
  3.08092E+05  1.62819E+02  3.36729E+05  2.50071E+05  8.52522E+04  3.39112E+05 -1.32859E+05  2.52281E+05
 -1.90524E+05  8.32206E+04 -1.13177E+05 -3.35676E+04  9.70026E+02 -5.11067E+04  5.33995E+04 -3.98092E+02
  3.59105E+04  5.35983E+04 -1.61359E+04  7.61311E+04 -6.00773E+04  6.37629E+04 -8.54866E+04  3.25721E+04
 -8.15811E+04 -1.22543E+04 -5.86732E+04 -5.27158E+04 -1.43410E+04 -6.92719E+04  2.75245E+04 -4.58830E+04
  4.12563E+04  5.39853E+03  1.59819E+04  4.90863E+04 -3.43061E+04  4.84292E+04 -6.70328E+04  5.09401E+02
 -5.44963E+04 -5.70237E+04 -7.85449E+03 -7.71293E+04  3.41951E+04 -5.57761E+04  4.80289E+04 -1.80945E+04
  4.45472E+04  1.24967E+04  3.31258E+04  2.67554E+04  1.68685E+04  2.86814E+04 -5.42640E+03  2.83955E+04
 -2.23862E+04  1.16185E+04 -1.85298E+04 -5.46020E+03  6.35775E+03 -8.47962E+03  2.26417E+04  1.35223E+04
  7.30076E+03  3.58529E+04 -3.32509E+04  3.62474E+04 -6.42409E+04  2.69514E+03 -5.75222E+04 -4.39963E+04
 -1.34426E+04 -6.38905E+04  4.05434E+04 -4.49963E+04  5.97810E+04 -1.44767E+03  3.48770E+04  3.44933E+04
 -6.54659E+03  3.83758E+04 -3.02334E+04  1.82556E+04 -3.10855E+04 -3.67827E+03 -1.81556E+04 -1.15778E+04
 -8.90794E+03 -1.56250E+04  5.48251E+02 -1.84088E+04  8.70756E+03 -2.37716E+04  1.68355E+04 -1.33027E+04
  1.16774E+04  5.69699E+03 -8.74151E+03  1.34664E+04 -2.23356E+04 -4.97224E+03 -9.34310E+03 -3.53362E+04
  2.39227E+04 -4.56665E+04  4.84537E+04 -2.00743E+04  4.71407E+04  2.12741E+04  1.53675E+04  4.67248E+04
 -1.57368E+04  3.47733E+04 -2.66742E+04  1.76362E+03 -1.07725E+04 -2.98063E+04  2.17116E+04 -3.51831E+04
  4.20331E+04 -9.62422E+03  3.71503E+04  2.46893E+04  1.94566E+04  4.93382E+04 -8.68198E+03  5.27085E+04
 -3.36171E+04  3.47462E+04 -4.56327E+04  1.01674E+04 -4.39675E+04 -1.85711E+04 -2.54269E+04 -3.99614E+04
  7.89246E+03 -4.02677E+04  3.16578E+04 -1.52784E+04  2.95986E+04  1.15363E+04  5.11589E+03  1.95129E+04
 -1.28747E+04  9.19952E+03 -1.07273E+04 -8.04304E+03  6.03847E+03 -1.07749E+04  1.79322E+04  5.97269E+03
  1.39244E+04  2.10955E+04 -4.78665E+03  2.59166E+04 -2.29697E+04  1.36550E+04 -2.96306E+04 -4.46298E+03
 -2.44481E+04 -1.78339E+04 -9.86061E+03 -2.24101E+04  4.37795E+03 -2.21637E+04  1.73233E+04 -2.15569E+04
  2.90262E+04 -1.31292E+04  3.54130E+04  3.11215E+03  2.65651E+04  2.18276E+04  3.37403E+03  3.96400E+04
 -1.91627E+04  3.31827E+04 -3.04864E+04  1.04798E+04 -2.18165E+04 -1.05527E+04 -4.43076E+03 -1.33123E+04
  8.75616E+02 -1.51865E+03 -6.17241E+03  7.39315E+03 -1.84972E+04  4.13502E+03 -1.86013E+04 -7.37952E+03
 -1.02933E+04 -2.06832E+04  5.36965E+03 -2.61252E+04  1.88181E+04 -1.86309E+04  2.07786E+04 -9.60855E+02
  1.40583E+04  1.45307E+04 -2.00167E+03  2.04847E+04 -1.44784E+04  1.19693E+04 -2.20149E+04 -5.70147E+03
 -1.51561E+04 -2.02773E+04 -2.26502E+03 -2.72843E+04  1.13285E+04 -2.34461E+04  2.16035E+04 -9.85107E+03
  2.00264E+04 -1.04490E+03  1.51607E+04  5.06128E+03  7.50152E+03  1.71380E+03  1.14473E+04 -1.60216E+03
  1.98917E+04  3.05809E+03  2.20203E+04  1.74801E+04  1.49290E+04  3.49885E+04 -2.51880E+03  3.82345E+04
 -2.37571E+04  3.09788E+04 -3.65964E+04  1.61448E+04 -3.91324E+04 -3.22598E+03 -3.13543E+04 -2.09430E+04
 -1.27485E+04 -3.15870E+04  1.09353E+04 -2.97746E+04  2.35823E+04 -1.38168E+04  2.22080E+04  7.56230E+03
  6.82964E+03  1.73579E+04 -9.15033E+03  1.48979E+04 -1.67271E+04  1.87054E+03 -1.30906E+04 -1.17913E+04
 -7.99406E+02 -1.71997E+04  9.24708E+03 -1.18803E+04  1.20541E+04 -2.21088E+02  1.36465E+03  6.99435E+03
 -6.94841E+03  2.80192E+03 -6.37313E+03 -5.24910E+03 -2.01108E+03 -1.46932E+04  1.08768E+04 -1.69590E+04
  1.96769E+04 -8.92106E+03  2.20840E+04  1.04167E+03  2.05344E+04  1.69326E+04  8.15473E+03  2.30468E+04
 -4.06091E+03  2.61481E+04 -1.62557E+04  1.66280E+04 -1.90345E+04  3.25528E+03 -1.44176E+04 -4.25791E+03
 -5.14231E+03 -6.21168E+03 -1.92333E+03  1.07782E+03 -1.27654E+03  3.69022E+03 -6.08974E+03  5.04373E+03
 -1.17419E+04 -7.15843E+02 -1.28719E+04 -1.02767E+04 -5.97762E+03 -1.71826E+04  5.30905E+03 -1.30660E+04
  1.09789E+04 -5.00041E+03  7.18246E+03  3.85961E+03 -5.77066E+02  5.69268E+03 -6.91911E+03 -7.21419E+02
 -6.47322E+03 -8.77934E+03 -1.01667E+03 -1.38050E+04  7.92098E+03 -1.36310E+04  1.76291E+04 -8.22900E+03
  2.05073E+04  1.18554E+03  1.43094E+04  1.11907E+04  2.87707E+03  1.51434E+04 -9.50074E+03  1.17661E+04
 -1.05762E+04  4.64543E+03 -4.92783E+03 -1.39413E+03  1.63407E+03 -3.20939E+03  8.13421E+03 -2.15671E+03
  5.86681E+03  6.13572E+03  5.64037E+02  1.08079E+04 -7.95902E+03  1.17212E+04 -1.37154E+04  2.46823E+03
 -8.95842E+03 -5.49474E+03  1.49468E+02 -1.22704E+04  7.94533E+03 -5.91375E+03  6.96661E+03  2.32462E+03
  1.78275E+03  8.69320E+03 -7.37315E+03  9.44273E+03 -9.26583E+03  4.48149E+03 -1.11134E+04 -3.49708E+03
 -7.02102E+03 -1.32499E+04  2.74437E+03 -1.57769E+04  1.11865E+04 -8.37862E+03  1.46617E+04  2.99696E+03
  8.17943E+03  1.16245E+04 -4.94561E+01  1.22696E+04 -9.33677E+03  8.58488E+03 -1.15579E+04 -1.05709E+03
 -8.86668E+03 -7.83170E+03 -2.30654E+03 -8.88322E+03  6.45374E+03 -7.73448E+03  6.64407E+03 -2.74435E+03
  4.01509E+03  2.69249E+03 -7.69878E+02  1.53218E+03 -1.66251E+01 -2.85299E+03 -4.96591E+02 -6.12340E+03
  1.04973E+04 -4.45343E+03  1.16946E+04  5.99272E+02  1.15610E+04  9.28917E+03  9.30170E+03  1.67362E+04
 -2.91780E+03  1.88826E+04 -1.51780E+04  1.30339E+04 -2.00580E+04  3.16196E+03 -1.60809E+04 -6.25385E+03
 -9.59641E+03 -1.39469E+04  8.37945E+02 -1.26704E+04  4.79914E+03 -6.05743E+03  5.16685E+03 -4.63481E+03
  2.30106E+03 -3.87001E+03  2.66685E+03 -3.48005E+03  4.34395E+03 -4.30028E+03  6.94314E+03  1.11481E+03
  8.03011E+03  2.15174E+03  4.80220E+03  7.76903E+03 -2.95829E+03  8.43135E+03 -9.19242E+03  7.46533E+03
 -1.14158E+04 -1.94079E+02 -8.03355E+03 -8.33504E+03 -1.20980E+03 -1.16787E+04  5.71648E+03 -1.19968E+04
  1.24834E+04 -7.24284E+03  1.46508E+04  1.64912E+03  9.82872E+03  1.01697E+04  5.07520E+02  1.39283E+04
 -6.67684E+03  1.23160E+04 -8.11525E+03  4.59456E+03 -6.97899E+03 -1.93413E+03 -1.77113E+03 -2.07742E+03
 -1.44251E+03 -2.71645E+02 -2.61435E+03  3.52906E+03 -6.04449E+03  6.84626E+02 -8.41660E+03  5.94474E+01
 -5.00448E+03 -8.62974E+03  4.81408E+02 -1.06695E+04  6.90244E+03 -1.05572E+04  1.13127E+04 -3.83243E+03
  1.16139E+04  5.05855E+03  4.69160E+03  9.85196E+03 -3.49485E+03  1.16354E+04 -7.53772E+03  7.38795E+03
 -1.00579E+04  4.29179E+02 -7.61233E+03 -7.10037E+03 -9.10887E+02 -8.82978E+03  5.28022E+03 -7.61506E+03
  7.90959E+03 -1.97269E+03  3.76078E+03  1.49784E+03  1.97420E+03  3.96342E+03  2.62391E+02  1.73372E+03
  2.06066E+03  4.18862E+02  4.41855E+03  2.02974E+03  4.92858E+03  4.33805E+03  1.53812E+03  5.80907E+03
 -1.85951E+03  9.58848E+03 -7.24131E+03  9.09715E+03 -1.12517E+04  3.63482E+03 -1.25048E+04 -5.10260E+03
 -5.44772E+03 -1.17426E+04  2.53236E+03 -1.18501E+04  6.52209E+03 -7.44376E+03  9.59453E+03 -1.40559E+03
  7.00347E+03  3.86524E+03  6.79118E+02  5.73464E+03 -1.88509E+03  4.19514E+03 -5.53494E+03 -9.38126E+02
 -2.96513E+03 -3.94728E+03  2.50396E+03 -4.18577E+03  5.69877E+03 -3.39639E+03  3.83910E+03  2.29113E+02
  2.32919E+03  2.26438E+03  2.25149E+03  3.69995E+03 -1.32989E+03  8.38856E+02  1.75014E+03  1.95508E+01
  6.99727E+02 -1.97034E+02  4.42809E+03  1.67283E+03  2.16386E+03  5.87134E+03 -4.33084E+02  6.73648E+03
 -5.51303E+03  3.89416E+03 -6.22737E+03  1.60450E+03 -5.20919E+03 -2.48026E+03 -2.75673E+03 -5.65636E+03
  1.50032E+02 -3.92365E+03  4.28429E+03 -1.14981E+03  3.24715E+03  1.34306E+03 -1.59662E+03  3.11407E+03
 -6.48561E+03  2.96914E+03 -5.47552E+03 -2.82044E+03 -3.83635E+03 -5.55280E+03  7.24822E+02 -5.70187E+03
  1.87981E+03 -3.93751E+03  3.63751E+03 -2.66771E+02  4.29844E+03  1.09021E+03  2.85585E+02  3.23092E+03
 -2.07441E+03  8.95198E+02 -1.76265E+03 -1.58965E+03  1.51110E+03 -3.39558E+03  4.31667E+03 -2.95793E+03
  5.31353E+03  6.45498E+02  7.37083E+03  2.94182E+03  2.20494E+03  6.56447E+03 -3.78527E+03  5.94226E+03
 -6.19526E+03  2.28052E+03 -5.80875E+03 -2.14421E+02 -2.61528E+03 -4.99598E+03  4.90537E+02 -4.62856E+03
  6.13532E+03 -3.11459E+03  3.03336E+03  8.55528E+02  7.46523E+02  3.96507E+03 -1.09602E+03  3.17536E+03
 -1.91109E+03  1.84111E+03 -2.57343E+03 -9.16471E+01 -1.29937E+03 -9.61861E+01 -4.77193E+02  3.92431E+03
 -9.75868E+02  3.18134E+03 -4.73709E+03  1.65241E+03 -6.31573E+03 -2.63259E+02 -9.77829E+03 -5.70465E+03
 -4.02207E+03 -8.54327E+03  1.28449E+03 -1.04021E+04  6.66164E+03 -9.39727E+03  1.06521E+04 -2.91897E+03
  9.32073E+03  2.17275E+03  5.33153E+03  6.76307E+03  8.98076E+02  6.74641E+03 -1.52090E+03  5.67550E+03
 -3.02949E+03  2.90904E+03 -2.20184E+03 -1.79094E+03 -7.39734E+02  9.57747E+02 -4.12287E+02  5.48719E+01
 -2.19975E+03 -1.43777E+03 -1.19214E+03  5.48671E+02 -1.37085E+03 -2.03088E+03  2.71141E+02 -3.31364E+03
  2.64133E+03 -3.29768E+03  4.04021E+03  5.20534E+02  5.06260E+03  4.15649E+03  2.58769E+03  6.74308E+03
 -4.22113E+03  8.70430E+03 -6.87693E+03  5.81489E+03 -7.16921E+03 -7.02099E+02 -7.08960E+03 -6.47686E+03
 -1.63644E+03 -6.60365E+03  1.53758E+03 -7.56771E+03  3.51229E+03 -4.10433E+03  4.37916E+03  1.08094E+03
  3.84089E+03  2.79292E+03 -3.20358E+02  2.16754E+03 -5.51825E+02 -1.95341E+03 -1.69626E+03 -1.49081E+03
  1.60396E+03 -4.79819E+02  2.45516E+03  2.20797E+03  1.68550E+03  9.72256E+02 -6.53244E+02  3.32609E+03
 -2.55733E+03  3.16773E+03 -5.01933E+03 -2.06336E+02 -4.21982E+03 -3.93136E+03 -4.21452E+02 -5.98836E+03
  1.43243E+03 -4.75364E+03  4.95558E+03 -1.40754E+03  3.86781E+03  1.41903E+03  2.49273E+03  3.74977E+03
  2.36617E+02  5.10929E+03 -1.07859E+03  1.30737E+03 -2.54670E+03  2.60532E+03 -3.80654E+03 -8.88383E+02
 -1.02124E+03  7.93425E+00 -1.63349E+03  2.81289E+02 -2.09952E+03 -3.46862E+02 -3.97461E+03 -1.66768E+03
 -3.86413E+03 -1.96705E+03 -1.01952E+03 -4.60771E+03  9.43514E+02 -5.14451E+03  4.27791E+03 -2.13119E+03
  4.10514E+03  2.25851E+03  1.68236E+03  2.96237E+03 -6.29289E+02  3.70352E+03 -3.87055E+03  2.52961E+03
