 $NMID ID='MM_0lb_SNR200_14hz_g55_31.RAW', FMTDAT='(8E13.5)'
 TRAMP=1., VOLUME=1. $END
  3.09496E+05  2.43169E+02  3.38790E+05  2.49965E+05  8.63186E+04  3.39250E+05 -1.31503E+05  2.50924E+05
 -1.88997E+05  8.40597E+04 -1.12285E+05 -3.22522E+04  9.18911E+02 -4.97222E+04  5.40449E+04 -1.31977E+03
  3.48814E+04  5.24600E+04 -1.59478E+04  7.43669E+04 -6.16411E+04  6.46220E+04 -8.43568E+04  3.22128E+04
 -8.10039E+04 -1.16577E+04 -5.76127E+04 -5.02435E+04 -1.58208E+04 -6.96505E+04  2.80785E+04 -4.60123E+04
  3.97901E+04  2.96787E+03  1.62860E+04  4.72342E+04 -3.56599E+04  4.75920E+04 -6.65949E+04 -5.69130E+02
 -5.38325E+04 -5.73663E+04 -8.24400E+03 -7.70398E+04  3.28453E+04 -5.56145E+04  4.80343E+04 -1.72663E+04
  4.41770E+04  1.05960E+04  3.23389E+04  2.57163E+04  1.55294E+04  2.97979E+04 -5.07979E+03  2.80593E+04
 -2.26242E+04  1.25441E+04 -1.91389E+04 -4.13681E+03  5.80854E+03 -8.73250E+03  2.16479E+04  1.31519E+04
  7.22372E+03  3.55693E+04 -3.27673E+04  3.48081E+04 -6.42152E+04  3.62694E+03 -5.65843E+04 -4.34212E+04
 -1.19482E+04 -6.34191E+04  4.06733E+04 -4.66693E+04  5.91152E+04 -1.67163E+03  3.57585E+04  3.52927E+04
 -6.03000E+03  3.57699E+04 -3.06501E+04  1.48980E+04 -3.06617E+04 -4.90266E+03 -1.66664E+04 -1.04825E+04
 -7.88471E+03 -1.38897E+04 -6.01500E+02 -1.76732E+04  7.06052E+03 -2.35731E+04  1.60231E+04 -1.44621E+04
  1.19561E+04  6.08732E+03 -8.16495E+03  1.27260E+04 -2.13941E+04 -5.00174E+03 -8.79598E+03 -3.41344E+04
  2.26609E+04 -4.49831E+04  4.94131E+04 -1.91170E+04  4.57039E+04  1.97332E+04  1.58023E+04  4.62970E+04
 -1.66371E+04  3.27039E+04 -2.66702E+04  1.06220E+03 -8.78209E+03 -2.79067E+04  2.04446E+04 -3.55718E+04
  4.19742E+04 -8.02930E+03  3.63929E+04  2.44961E+04  1.86320E+04  4.78677E+04 -8.07353E+03  5.16437E+04
 -3.27451E+04  3.28675E+04 -4.27602E+04  1.02421E+04 -4.39266E+04 -1.65940E+04 -2.25805E+04 -3.89687E+04
  8.00820E+03 -3.76852E+04  3.23502E+04 -1.59909E+04  2.86475E+04  1.05369E+04  4.56481E+03  1.80664E+04
 -1.30564E+04  9.37293E+03 -1.14723E+04 -8.30240E+03  6.37312E+03 -1.12126E+04  1.79226E+04  5.35585E+03
  1.44344E+04  2.19523E+04 -5.95881E+03  2.46529E+04 -2.20760E+04  1.10916E+04 -2.79521E+04 -5.24338E+03
 -2.12246E+04 -1.78712E+04 -8.57781E+03 -2.13434E+04  3.69821E+03 -1.98423E+04  1.61649E+04 -1.77054E+04
  2.74510E+04 -1.36745E+04  3.37027E+04  3.29542E+03  2.47846E+04  2.15942E+04  3.65031E+03  3.64314E+04
 -1.78284E+04  2.99847E+04 -2.82589E+04  9.60417E+03 -2.10604E+04 -9.59052E+03 -4.96468E+03 -1.27829E+04
  2.26531E+03 -3.27222E+03 -4.59990E+03  5.62132E+03 -1.56596E+04  5.24433E+03 -1.69851E+04 -8.19070E+03
 -1.18937E+04 -1.88863E+04  4.19183E+03 -2.41232E+04  1.56063E+04 -1.48903E+04  1.87345E+04 -1.34654E+03
  1.14548E+04  1.39797E+04 -1.05170E+03  2.01345E+04 -1.35416E+04  1.04410E+04 -1.84708E+04 -3.23669E+03
 -1.51090E+04 -1.79419E+04 -2.10973E+03 -2.33696E+04  1.09273E+04 -1.89990E+04  2.03519E+04 -1.05519E+04
  1.82936E+04  1.08128E+03  1.33631E+04  4.93453E+03  7.03758E+03  8.82949E+02  9.24469E+03 -2.80755E+03
  1.86806E+04  3.81476E+03  2.08655E+04  1.51562E+04  1.30390E+04  2.98911E+04 -2.16182E+03  3.43406E+04
 -2.10917E+04  2.88407E+04 -3.30688E+04  1.37812E+04 -3.51679E+04 -2.97278E+03 -2.89902E+04 -1.99679E+04
 -1.33419E+04 -2.83256E+04  9.59731E+03 -2.54155E+04  2.07122E+04 -1.28625E+04  1.91832E+04  5.05921E+03
  8.20886E+03  1.51164E+04 -9.04958E+03  1.17537E+04 -1.63716E+04  3.75226E+03 -1.26537E+04 -1.01398E+04
 -1.54052E+02 -1.62294E+04  7.34806E+03 -1.19198E+04  1.05792E+04 -2.12520E+03  1.41493E+03  6.54248E+03
 -7.59189E+03  3.16118E+03 -5.67177E+03 -5.08254E+03 -1.16335E+03 -1.33739E+04  9.69215E+03 -1.53204E+04
  1.67629E+04 -7.35490E+03  1.86217E+04  3.74810E+03  1.65580E+04  1.33374E+04  7.76060E+03  2.09906E+04
 -4.16630E+03  2.21804E+04 -1.49661E+04  1.47731E+04 -1.64910E+04  3.69896E+03 -1.20445E+04 -2.88811E+03
 -4.84344E+03 -4.82270E+03  4.07706E+02 -1.67803E+02 -2.39521E+03  1.90451E+03 -6.87537E+03  5.43268E+03
 -8.66235E+03 -1.13814E+03 -1.16838E+04 -9.35843E+03 -5.54772E+03 -1.48102E+04  4.86641E+03 -1.19619E+04
  1.08588E+04 -4.96294E+03  6.74716E+03  2.41313E+03  1.08888E+02  4.99206E+03 -6.16381E+03  4.57049E+02
 -5.24593E+03 -7.49901E+03 -1.78378E+03 -1.09229E+04  5.49862E+03 -1.14794E+04  1.47711E+04 -5.29039E+03
  1.67110E+04  1.22855E+03  1.12121E+04  1.00852E+04  2.44171E+03  1.34458E+04 -7.80390E+03  1.27529E+04
 -9.30710E+03  2.65023E+03 -4.71102E+03 -3.18484E+03  1.92158E+03 -3.58818E+03  6.27220E+03  4.68056E+01
  5.45975E+03  5.39311E+03  1.00184E+03  8.95420E+03 -7.36072E+03  8.47944E+03 -1.11111E+04  3.47149E+03
 -7.78543E+03 -6.15386E+03  1.20759E+03 -9.51704E+03  7.31845E+03 -4.44182E+03  6.34252E+03  1.98658E+03
  7.26758E+02  6.75378E+03 -5.46850E+03  9.00768E+03 -9.79558E+03  3.62558E+03 -8.31484E+03 -3.31214E+03
 -4.88662E+03 -1.01096E+04  2.51699E+03 -1.26678E+04  9.21207E+03 -6.51431E+03  1.18124E+04  1.14929E+03
  6.86060E+03  8.86568E+03 -5.09929E+02  1.04184E+04 -8.23031E+03  7.28000E+03 -8.44841E+03 -8.91947E+02
 -6.85987E+03 -7.26450E+03 -1.12063E+03 -7.91736E+03  5.49184E+03 -6.05992E+03  4.75260E+03 -3.19242E+03
  4.00542E+03  1.54421E+03  1.26268E+02  5.67063E+02  8.59334E+02 -1.46129E+03  8.62084E+02 -4.33252E+03
  7.28399E+03 -2.04189E+03  9.19218E+03  2.32046E+03  8.89647E+03  5.52453E+03  7.02655E+03  1.36118E+04
 -1.94581E+03  1.52201E+04 -1.49185E+04  1.14122E+04 -1.62015E+04  2.66988E+03 -1.24900E+04 -4.30502E+03
 -5.39992E+03 -1.20962E+04 -1.30923E+03 -8.03543E+03  4.41653E+03 -5.24908E+03  2.90870E+03 -2.19799E+03
  3.73801E+03 -1.64836E+03  2.32202E+03 -2.23640E+03  4.68790E+03 -1.65583E+03  5.65382E+03 -4.06822E+02
  6.43703E+03  1.28713E+03  3.05733E+03  5.36498E+03 -1.75237E+03  6.02136E+03 -5.88594E+03  5.04937E+03
 -8.96731E+03 -1.80483E+03 -5.50351E+03 -5.85323E+03  3.06462E+01 -9.32200E+03  3.87665E+03 -1.04154E+04
  9.57249E+03 -5.45968E+03  1.15978E+04  6.87689E+02  9.46051E+03  8.03079E+03  9.76188E+01  9.77145E+03
 -4.22775E+03  8.51214E+03 -4.95621E+03  2.14811E+03 -4.78833E+03 -1.50327E+03 -8.60891E+02 -5.82251E+02
 -1.35193E+03 -1.60306E+02 -1.08608E+03  2.95399E+03 -4.49494E+03  1.91142E+03 -5.83597E+03 -1.25917E+03
 -4.42067E+03 -7.01478E+03  2.85327E+02 -7.37326E+03  5.71152E+03 -7.88999E+03  8.29857E+03 -1.98562E+03
  8.87706E+03  4.62354E+03  3.42712E+03  7.44750E+03 -1.86858E+03  8.20793E+03 -6.19485E+03  5.28397E+03
 -6.77375E+03  9.95879E+02 -4.46691E+03 -5.53064E+03 -1.67359E+03 -7.01843E+03  2.66945E+03 -5.35049E+03
  4.50332E+03 -2.52236E+03  2.64387E+03  1.54779E+03  1.32364E+03  2.96423E+03  1.75750E+03  6.74477E+02
  2.27764E+03  5.68767E+02  1.49803E+03  2.09283E+03  2.92240E+03  3.43258E+03  1.99709E+03  4.34922E+03
 -2.05068E+03  6.64497E+03 -4.66647E+03  6.85902E+03 -8.74480E+03  1.36386E+03 -9.29122E+03 -2.57990E+03
 -3.74569E+03 -7.62858E+03  1.57910E+03 -8.46774E+03  5.95325E+03 -5.54593E+03  6.09214E+03 -9.69296E+02
  5.69602E+03  3.16341E+03  1.47653E+03  4.73603E+03 -2.64114E+03  2.73976E+03 -3.12896E+03  2.42794E+02
 -9.72023E+02 -3.19601E+03  3.01449E+03 -2.82018E+03  2.33875E+03 -2.56011E+03  3.36430E+03  4.17847E+02
  1.13413E+03  1.10191E+03 -3.93768E+01  7.95688E+02 -5.72492E+02  7.15442E+02  5.97509E+02  3.06176E+02
  3.12757E+02 -1.06702E+03  3.92691E+03  6.57294E+02  1.01859E+03  5.47242E+03  2.34082E+02  6.40878E+03
 -3.20081E+03  3.42543E+03 -5.38034E+03 -1.95110E+02 -4.03820E+03 -1.94588E+03 -1.49202E+03 -2.41174E+03
  1.22334E+02 -4.43498E+03  2.19378E+03 -1.83722E+03  2.36436E+03  2.27748E+03 -1.59180E+03  3.05215E+03
 -3.08218E+03  1.14716E+03 -2.42007E+03 -1.81710E+03 -3.25302E+03 -4.61904E+03  1.73502E+03 -3.47165E+03
  1.52473E+03 -1.48588E+03  1.80470E+03 -2.92823E+02  2.16135E+03  9.11083E+02  1.34670E+03  2.12880E+03
 -4.72207E+02  2.31703E+02 -1.95772E+03 -1.66741E+03  5.05130E+02 -2.65228E+03  2.69629E+03 -1.55214E+03
  5.28411E+03 -1.71253E+02  5.62350E+03  2.34865E+03  2.46810E+03  2.91237E+03 -1.46766E+03  5.31372E+03
 -3.41478E+03  1.01092E+03 -3.02583E+03 -7.79051E+02 -1.83538E+03 -2.30528E+03  5.36579E+02 -2.32939E+03
  2.48432E+03 -2.42504E+03  2.85222E+03  1.13269E+03  1.30302E+03  3.63196E+03 -6.19354E+02  2.35869E+03
 -5.30022E+02  1.51172E+03 -1.56192E+03  9.07916E+02 -2.14871E+01  1.54541E+03 -6.02533E+02  5.98517E+02
 -3.28274E+02  1.96015E+03 -2.95405E+03  1.41654E+03 -2.97863E+03 -5.50819E+02 -5.56823E+03 -2.94766E+03
 -3.61696E+03 -6.26233E+03  1.27694E+03 -7.22498E+03  3.87646E+03 -5.04585E+03  7.01588E+03 -3.04092E+03
  5.16672E+03  3.31767E+02  3.18284E+03  3.78206E+03 -5.56839E+01  3.70174E+03 -5.88042E+02  3.24992E+03
 -3.30873E+03  2.74528E+03 -3.16252E+02 -7.72403E+02 -1.01153E+03  8.36156E+02 -7.61677E+02  4.15173E+02
 -8.26933E+02  3.25934E+02 -9.02982E+02 -5.92989E+02 -3.54415E+02 -2.15336E+03 -1.42847E+03 -2.01312E+03
  1.71793E+03 -1.20333E+03  1.98586E+03  4.79037E+02  3.11929E+03  2.73213E+03 -4.51028E+02  4.03129E+03
 -2.06625E+03  5.96402E+03 -4.51380E+03  3.16023E+03 -3.96333E+03  3.03992E+02 -4.37092E+03 -4.61252E+03
 -1.25084E+03 -4.25161E+03  5.85878E+02 -2.99501E+03  1.66942E+03 -2.33306E+03  2.26787E+03  6.19822E+02
  1.39802E+03  1.25630E+03  3.10106E+02  1.13285E+03 -6.56534E+02 -8.70667E+02  2.52259E+02 -1.74032E+03
  8.65208E+02 -1.10446E+01  6.93989E+02  1.41257E+03  6.10504E+02  8.99349E+02  1.41103E+03  2.18918E+03
 -1.91131E+03  1.01853E+03 -2.19090E+03  8.17912E+01 -3.32790E+03 -1.06542E+03 -9.16299E+02 -3.63624E+03
  1.91474E+03 -2.81076E+03  1.72076E+03 -1.34459E+03  2.74701E+03 -1.33569E+00  1.58931E+03  1.76865E+03
  7.55931E+02  3.50970E+03 -1.25224E+03  1.33899E+03 -1.46352E+03  1.61061E+03 -4.37205E+02  3.24901E+01
 -1.03469E+03  8.84475E+02 -1.39225E+03  1.08877E+01 -1.78128E+03  9.63369E+02 -2.72243E+03 -1.13114E+03
 -1.39340E+03 -1.07789E+03  2.38852E+02 -1.28950E+03  1.29457E+03 -3.21155E+03  2.35628E+03 -1.99132E+03
  1.62439E+03 -8.35352E+01  8.64767E+02  1.54016E+03 -8.99497E+02  2.23935E+03 -9.41654E+02  3.56686E+03
