 $NMID ID='MM_0lb_SNR200_15hz_g60_88.RAW', FMTDAT='(8E13.5)'
 TRAMP=1., VOLUME=1. $END
  3.09820E+05  1.12029E+03  3.38051E+05  2.51607E+05  8.41585E+04  3.39510E+05 -1.32268E+05  2.50944E+05
 -1.89740E+05  8.30891E+04 -1.13872E+05 -3.28054E+04  1.77129E+02 -5.12987E+04  5.53132E+04 -5.09070E+02
  3.65028E+04  5.31685E+04 -1.67588E+04  7.40298E+04 -6.02563E+04  6.43759E+04 -8.44984E+04  3.21621E+04
 -8.04191E+04 -1.13210E+04 -5.74297E+04 -5.13117E+04 -1.61330E+04 -6.93983E+04  2.71332E+04 -4.57345E+04
  3.97027E+04  2.57007E+03  1.67902E+04  4.82951E+04 -3.51949E+04  4.70465E+04 -6.72637E+04 -4.93024E+02
 -5.39190E+04 -5.59390E+04 -7.89189E+03 -7.73947E+04  3.33503E+04 -5.55560E+04  4.85068E+04 -1.85369E+04
  4.44310E+04  1.22140E+04  3.19301E+04  2.65527E+04  1.47728E+04  2.93159E+04 -4.86176E+03  2.71230E+04
 -2.35889E+04  1.29410E+04 -1.83540E+04 -5.28116E+03  5.40856E+03 -7.85459E+03  2.24291E+04  1.27795E+04
  7.16988E+03  3.48889E+04 -3.25574E+04  3.55126E+04 -6.31915E+04  1.78606E+03 -5.67589E+04 -4.31197E+04
 -1.36213E+04 -6.37585E+04  3.97306E+04 -4.60165E+04  5.81988E+04 -1.87303E+03  3.44098E+04  3.30560E+04
 -5.89099E+03  3.74633E+04 -3.03292E+04  1.59832E+04 -3.12734E+04 -5.29469E+03 -1.78305E+04 -1.07808E+04
 -8.51221E+03 -1.36608E+04 -8.21688E+02 -1.96942E+04  7.01943E+03 -2.24741E+04  1.55631E+04 -1.35692E+04
  1.17142E+04  5.14657E+03 -8.42505E+03  1.33096E+04 -2.16259E+04 -5.77525E+03 -8.17791E+03 -3.59360E+04
  2.30060E+04 -4.38522E+04  4.70485E+04 -1.96736E+04  4.48201E+04  1.95867E+04  1.51915E+04  4.43365E+04
 -1.66099E+04  3.43663E+04 -2.58553E+04  1.05506E+03 -1.01076E+04 -2.80649E+04  2.03669E+04 -3.47980E+04
  4.19527E+04 -8.18728E+03  3.62563E+04  2.32036E+04  1.91223E+04  4.60147E+04 -7.74418E+03  5.16026E+04
 -3.27477E+04  3.45648E+04 -4.25145E+04  9.88199E+03 -4.35605E+04 -1.82288E+04 -2.41867E+04 -3.77729E+04
  7.52565E+03 -3.87316E+04  3.10592E+04 -1.45664E+04  2.92393E+04  1.12141E+04  3.41846E+03  1.86884E+04
 -1.30405E+04  7.71805E+03 -1.11048E+04 -7.00664E+03  7.18937E+03 -9.96046E+03  1.99682E+04  5.37364E+03
  1.47533E+04  2.19768E+04 -6.44801E+03  2.57220E+04 -2.30151E+04  1.26428E+04 -2.94695E+04 -3.98978E+03
 -2.12720E+04 -1.76511E+04 -8.82025E+03 -2.15971E+04  3.61892E+03 -2.10273E+04  1.60405E+04 -1.92158E+04
  2.79027E+04 -1.34343E+04  3.33115E+04  3.00868E+03  2.48659E+04  1.99872E+04  3.43971E+03  3.61771E+04
 -1.80825E+04  3.09162E+04 -2.81341E+04  1.07388E+04 -2.14264E+04 -1.02504E+04 -3.44020E+03 -1.40260E+04
  1.52049E+03 -3.37095E+03 -4.86824E+03  6.14457E+03 -1.74319E+04  4.71352E+03 -1.68112E+04 -6.11779E+03
 -9.44855E+03 -2.05318E+04  5.91580E+03 -2.29005E+04  1.67609E+04 -1.69350E+04  1.87105E+04 -2.24465E+03
  1.06522E+04  1.34916E+04 -1.61323E+03  2.02073E+04 -1.30555E+04  1.05141E+04 -1.92972E+04 -4.83977E+03
 -1.39829E+04 -1.69896E+04 -2.00841E+03 -2.38619E+04  1.04829E+04 -1.91524E+04  1.95468E+04 -9.73336E+03
  1.88798E+04  4.08926E+02  1.33863E+04  5.97564E+03  6.44750E+03  8.12115E+02  9.78731E+03 -2.71011E+03
  1.87815E+04  3.43608E+03  1.94616E+04  1.45336E+04  1.39660E+04  3.03167E+04 -2.98316E+03  3.53524E+04
 -2.08951E+04  2.81684E+04 -3.29672E+04  1.51997E+04 -3.44051E+04 -2.76602E+03 -2.78809E+04 -2.07045E+04
 -1.26701E+04 -2.76454E+04  9.95945E+03 -2.58679E+04  2.27665E+04 -1.30271E+04  1.99925E+04  6.12048E+03
  6.87418E+03  1.48498E+04 -8.54541E+03  1.19974E+04 -1.52356E+04  2.05347E+03 -1.28462E+04 -1.08560E+04
 -1.13630E+03 -1.55690E+04  8.77037E+03 -1.17200E+04  9.66323E+03 -2.23660E+03  1.84337E+03  7.19271E+03
 -7.19938E+03  2.89869E+03 -6.25853E+03 -6.24338E+03  4.02885E+02 -1.35424E+04  8.11843E+03 -1.49929E+04
  1.68322E+04 -8.31643E+03  1.74949E+04  2.87996E+03  1.64507E+04  1.35702E+04  6.23452E+03  2.10679E+04
 -2.05215E+03  2.21075E+04 -1.54345E+04  1.22940E+04 -1.69905E+04  3.09282E+03 -1.06459E+04 -3.15031E+03
 -4.87471E+03 -5.29380E+03 -1.53772E+03  9.09723E+02 -3.35088E+03  4.08538E+03 -4.99238E+03  4.46068E+03
 -1.10927E+04 -4.81871E+02 -1.14933E+04 -9.01528E+03 -5.52525E+03 -1.52187E+04  4.57459E+03 -1.13402E+04
  1.00218E+04 -4.60952E+03  7.35282E+03  3.71406E+03 -3.82030E+02  5.70610E+03 -6.30157E+03  3.94961E+02
 -4.46336E+03 -7.40586E+03 -1.64053E+03 -1.11749E+04  5.78555E+03 -1.16127E+04  1.48725E+04 -5.70772E+03
  1.54830E+04  9.41273E+02  1.26658E+04  9.12280E+03  3.41540E+03  1.31836E+04 -8.01957E+03  1.06365E+04
 -1.03716E+04  2.14943E+03 -4.61942E+03 -2.16096E+03  3.21525E+02 -2.10647E+03  5.71954E+03 -1.89319E+02
  5.61366E+03  5.40167E+03  1.60002E+03  9.16453E+03 -7.26802E+03  7.39079E+03 -1.20468E+04  3.39807E+03
 -8.21771E+03 -5.35035E+03 -1.14640E+03 -8.22287E+03  5.35559E+03 -3.64434E+03  6.50512E+03  1.20801E+03
  3.22353E+02  6.05120E+03 -5.55189E+03  6.43606E+03 -7.82892E+03  2.85251E+03 -8.73114E+03 -2.22921E+03
 -4.40407E+03 -1.09790E+04  2.05237E+03 -1.16973E+04  9.36977E+03 -6.31481E+03  1.12211E+04  1.74010E+03
  6.69544E+03  7.42902E+03 -9.54138E+02  1.12202E+04 -7.51512E+03  5.10306E+03 -7.59820E+03 -1.63915E+03
 -7.75612E+03 -7.45725E+03 -8.63103E+02 -8.03344E+03  3.27136E+03 -6.71916E+03  5.07699E+03 -3.49983E+03
  2.62115E+03  9.12765E+02 -7.15143E+02  1.80106E+03  3.18551E+02 -4.45227E+02  6.82253E+02 -3.15532E+03
  5.90329E+03 -3.07590E+03  8.89085E+03  1.67164E+03  9.24649E+03  6.25842E+03  6.34474E+03  1.22308E+04
 -2.77649E+03  1.37603E+04 -1.22877E+04  1.09174E+04 -1.44630E+04  1.90048E+03 -1.19156E+04 -4.40755E+03
 -5.37195E+03 -1.06303E+04  3.28596E+02 -7.79199E+03  3.06709E+03 -3.69636E+03  3.66663E+03 -2.62023E+03
  1.63335E+03 -1.36644E+03  1.96684E+03 -3.24495E+03  3.57239E+03 -1.92337E+03  6.78277E+03 -1.01879E+03
  7.44368E+03  1.37435E+03  4.12108E+03  4.95445E+03 -2.49803E+03  5.45926E+03 -6.97865E+03  5.06668E+03
 -9.84545E+03 -5.13507E+02 -4.32953E+03 -5.54880E+03  4.18932E+02 -9.11131E+03  5.52232E+03 -8.95124E+03
  8.89423E+03 -5.55628E+03  1.08060E+04  1.01213E+03  7.16458E+03  6.76202E+03  2.89525E+02  9.15693E+03
 -4.35444E+03  1.01419E+04 -5.57599E+03  2.56621E+03 -2.72175E+03 -1.38836E+03 -1.36933E+03 -2.70804E+03
 -9.78326E+02  3.71032E+02 -2.45673E+03  2.19515E+03 -3.93602E+03  2.48250E+02 -6.22062E+03 -5.38669E+02
 -3.06969E+03 -6.10462E+03  5.53793E+02 -7.74486E+03  5.95512E+03 -6.67151E+03  7.88819E+03 -1.53411E+03
  7.56594E+03  4.10511E+03  4.06300E+03  5.83705E+03 -1.22094E+03  7.26777E+03 -5.18150E+03  5.40061E+03
 -7.04938E+03  4.73395E+02 -4.45344E+03 -4.92217E+03 -4.01753E+02 -6.67333E+03  2.92142E+03 -4.98141E+03
  4.39727E+03 -2.16430E+03  2.48000E+03  7.33777E+02  2.05811E+02  1.39206E+03  1.27814E+03  3.36787E+02
  2.27490E+03  1.70582E+02  1.34024E+03  1.85436E+03  2.63158E+03  2.38636E+03  2.72602E+03  3.70641E+03
 -1.81306E+03  4.97546E+03 -5.81986E+03  4.69633E+03 -7.04649E+03  1.19648E+03 -7.14200E+03 -2.87944E+03
 -3.18198E+03 -7.63173E+03  1.70316E+03 -8.35949E+03  3.24854E+03 -4.99231E+03  4.07433E+03 -1.65419E+03
  3.00768E+03  1.94945E+03  1.43856E+02  3.77599E+03 -1.36077E+03  2.87861E+03 -3.53123E+03 -6.35957E+02
 -9.18215E+02 -3.51365E+03  9.18247E+02 -2.65518E+03  2.32634E+03 -1.84992E+03  2.50666E+03  8.73618E+02
  1.24817E+03  6.19305E+02  1.85896E+03 -4.95174E+02  4.01356E+02  5.80940E+02  1.40877E+03 -3.17395E+02
  1.03595E+02 -3.76398E+02  3.38026E+03  9.06541E+02  1.60494E+03  4.29742E+03 -9.72241E+02  4.46668E+03
 -3.75004E+03  3.46921E+03 -4.80291E+03  7.47761E+02 -3.66734E+03 -1.01869E+03 -6.61332E+02 -1.84971E+03
  1.73496E+03 -2.18453E+03  1.60519E+03 -9.15996E+02  1.53582E+03  1.70775E+03 -1.31735E+03  1.14799E+03
 -2.70510E+03  1.18886E+03 -2.91719E+03 -1.70187E+03 -2.34971E+03 -3.47514E+03  6.62724E+02 -2.97323E+03
  2.28418E+03 -1.18020E+03  2.32651E+03 -1.73244E+01  1.30393E+03  1.51863E+03  9.42010E+02 -8.98613E+00
 -1.14161E+02  2.14086E+02 -1.84056E+03 -8.65554E+02  8.00213E+01 -9.13945E+02  3.36693E+03 -2.41268E+03
  2.93530E+03  4.49635E+01  4.42445E+03  3.02454E+03  2.52306E+03  3.25178E+03 -7.70952E+02  3.18044E+03
 -2.35958E+03  9.85793E+02 -2.62089E+03  5.37582E+02 -1.50148E+03 -2.88252E+03  5.23198E+02 -1.83660E+03
  2.95448E+03 -6.56458E+02  3.35924E+03  6.91135E+02  6.92596E+02  2.87325E+03 -2.35976E+02  2.16785E+03
 -3.04665E+02  1.05638E+03 -2.68440E+02 -3.88108E+02  1.39755E+02  7.02977E+02 -1.04148E+03  1.73027E+03
 -8.51711E+02  1.30010E+03 -4.49216E+03  1.48901E+03 -3.83990E+03 -3.55370E+02 -6.02440E+03 -2.53901E+03
 -3.25114E+03 -4.44542E+03  1.70193E+03 -6.50939E+03  2.54320E+03 -4.42061E+03  5.74430E+03 -1.15491E+03
  4.87884E+03  1.34375E+03  3.32352E+03  3.26200E+03 -8.96060E+02  4.27340E+03 -1.77570E+03  3.08323E+03
 -1.07929E+03  7.40590E+02 -1.36626E+03 -7.32835E+02 -5.00684E+02 -3.88756E+02 -6.44123E+02 -9.30561E+02
 -1.43878E+03  6.92270E+02 -1.66042E+03 -5.31481E+02  5.08064E+02 -1.78802E+03 -4.43899E+02 -1.50351E+03
  1.14083E+03 -1.52048E+03  4.92669E+02 -8.02596E+02  2.27990E+03  2.17147E+03  8.79167E+02  2.58740E+03
 -1.60245E+03  4.32015E+03 -3.94626E+03  1.81196E+03 -3.89469E+03 -1.34209E+03 -2.46170E+03 -2.18069E+03
 -2.41064E+03 -2.18341E+03  5.04184E+02 -3.08723E+03  1.72466E+03 -3.05331E+03  1.40842E+03  2.27086E+02
  1.70682E+03  1.76325E+03 -1.11389E+03  1.19961E+03 -3.32137E+02  3.14131E+01 -4.88963E+02 -1.74818E+03
  4.58343E+02  7.37891E+02  7.56365E+02  8.44716E+02  1.00028E+03  9.96733E+02  1.04690E+03  3.74009E+02
 -4.52528E+02  1.93714E+03 -1.68468E+03  8.01213E+02 -1.63722E+03 -2.08350E+03  3.30540E+02 -2.90456E+03
  1.97846E+03 -1.78767E+03  1.51239E+03 -8.48759E+02  2.86615E+03 -4.75164E+02  1.31276E+03  1.94448E+03
  1.00447E+03  2.10460E+03 -3.98099E+02  1.28940E+03 -1.84249E+03  1.88867E+03 -1.88684E+03  6.32536E+02
 -1.04620E+03 -8.38259E+02 -8.27214E+02  7.77153E+01 -1.50962E+03 -3.31246E+02 -6.20180E+02 -4.14849E+02
 -1.85932E+03 -9.13789E+02 -5.52720E+02 -2.83588E+03  5.47702E+02 -2.76547E+03  2.25303E+03 -1.12232E+03
  2.54599E+03 -4.54017E+02  1.16121E+03  1.03096E+03 -1.57553E+02  2.75601E+03 -1.04451E+03  1.33984E+03
