 $NMID ID='MM_0lb_SNR200_7hz_g60_27.RAW', FMTDAT='(8E13.5)'
 TRAMP=1., VOLUME=1. $END
  3.09867E+05 -4.11472E+02  3.38684E+05  2.50379E+05  8.43169E+04  3.38203E+05 -1.31858E+05  2.52506E+05
 -1.92308E+05  8.48442E+04 -1.14850E+05 -3.24397E+04  2.60293E+02 -5.04405E+04  5.25850E+04  8.45383E+02
  3.60794E+04  5.39762E+04 -1.72992E+04  7.75910E+04 -6.26157E+04  6.52766E+04 -8.67916E+04  3.22270E+04
 -8.29989E+04 -1.20143E+04 -5.59340E+04 -5.27085E+04 -1.74737E+04 -7.03939E+04  2.77795E+04 -4.69140E+04
  4.16911E+04  4.47513E+03  1.73808E+04  4.85148E+04 -3.52660E+04  4.89027E+04 -6.94952E+04 -1.77865E+02
 -5.57220E+04 -5.95195E+04 -7.42002E+03 -7.91115E+04  3.27089E+04 -5.76723E+04  5.07406E+04 -2.02010E+04
  4.49331E+04  1.10403E+04  3.42155E+04  2.64298E+04  1.63188E+04  3.23848E+04 -8.46941E+03  2.91042E+04
 -2.27598E+04  1.07097E+04 -1.66392E+04 -7.11770E+03  8.27508E+03 -6.44744E+03  2.31304E+04  1.67585E+04
  7.25447E+03  4.00755E+04 -3.57543E+04  3.77969E+04 -6.51265E+04  1.17705E+03 -5.89899E+04 -4.65679E+04
 -1.46360E+04 -6.70085E+04  4.09553E+04 -4.79912E+04  6.32439E+04 -9.31503E+02  3.97573E+04  3.61720E+04
 -5.66710E+03  4.03107E+04 -3.15211E+04  2.07537E+04 -3.54351E+04 -2.33709E+03 -2.05315E+04 -1.10391E+04
 -9.80376E+03 -1.60365E+04 -1.56559E+03 -2.08872E+04  9.03882E+03 -2.31902E+04  1.39251E+04 -1.10188E+04
  1.06118E+04  6.29490E+03 -1.14681E+04  1.23232E+04 -2.36816E+04 -8.59235E+03 -1.14636E+04 -4.07263E+04
  2.74016E+04 -4.77017E+04  5.33839E+04 -1.94400E+04  5.15209E+04  2.18248E+04  1.67004E+04  4.85176E+04
 -1.70010E+04  3.73291E+04 -2.82153E+04  3.79833E+03 -1.26253E+04 -2.89905E+04  2.29285E+04 -3.95207E+04
  4.72269E+04 -1.24506E+04  4.09296E+04  2.65944E+04  2.35717E+04  5.25152E+04 -5.17823E+03  5.84581E+04
 -3.67062E+04  4.03640E+04 -5.13675E+04  1.19730E+04 -5.06549E+04 -2.23199E+04 -2.78048E+04 -4.51280E+04
  9.54497E+03 -4.51064E+04  3.56946E+04 -1.94885E+04  3.34745E+04  9.11685E+03  5.53596E+03  2.18609E+04
 -1.58255E+04  1.26397E+04 -1.22586E+04 -8.21166E+03  5.31091E+03 -1.27324E+04  2.07105E+04  7.58254E+03
  1.56552E+04  2.28925E+04 -4.40778E+03  2.92442E+04 -2.56829E+04  1.57588E+04 -3.27636E+04 -2.24246E+03
 -2.99546E+04 -2.13815E+04 -1.43334E+04 -2.82413E+04  5.43915E+03 -2.91886E+04  2.13697E+04 -2.62636E+04
  3.45552E+04 -1.61929E+04  3.97142E+04  5.97518E+03  2.70918E+04  2.66051E+04  5.23115E+03  4.39258E+04
 -2.13318E+04  3.59266E+04 -3.12944E+04  1.24553E+04 -2.24329E+04 -1.12374E+04 -2.82796E+03 -1.19842E+04
  4.23692E+02 -4.34602E+02 -1.12217E+04  1.09953E+04 -2.17948E+04  6.67796E+03 -2.40669E+04 -1.11020E+04
 -1.26560E+04 -2.75336E+04  7.35846E+03 -2.99925E+04  2.24352E+04 -2.17381E+04  2.68431E+04 -2.40907E+03
  1.61138E+04  1.76207E+04 -9.92562E+02  2.68823E+04 -2.01800E+04  1.60824E+04 -2.42006E+04 -3.89968E+03
 -1.93815E+04 -2.35262E+04 -1.37615E+03 -3.26675E+04  1.49235E+04 -2.59277E+04  2.50039E+04 -1.36865E+04
  2.62237E+04 -3.59945E+02  1.88987E+04  6.18509E+03  9.92260E+03  4.69436E+02  1.36206E+04 -2.88780E+03
  2.60446E+04  1.83522E+03  2.92921E+04  2.14999E+04  1.91382E+04  4.24065E+04 -3.29433E+03  5.02942E+04
 -2.85239E+04  4.15196E+04 -4.97685E+04  2.07247E+04 -4.99698E+04 -2.70789E+03 -4.09252E+04 -3.06965E+04
 -1.41365E+04 -4.26313E+04  1.75024E+04 -3.70890E+04  3.15580E+04 -1.66673E+04  2.69820E+04  9.49578E+03
  8.24742E+03  1.96950E+04 -1.16906E+04  1.78683E+04 -2.26407E+04  1.40012E+03 -1.72561E+04 -1.60136E+04
 -7.31555E+02 -2.26960E+04  1.18367E+04 -1.56089E+04  1.53291E+04 -1.58219E+03  5.10701E+03  8.32754E+03
 -9.99860E+03  5.96693E+03 -1.29502E+04 -9.24461E+03 -4.52383E+03 -2.14340E+04  1.34270E+04 -2.20791E+04
  2.58677E+04 -1.20822E+04  3.20680E+04  3.26105E+03  2.85569E+04  2.25675E+04  1.24324E+04  3.37645E+04
 -8.55979E+03  3.62217E+04 -2.42725E+04  2.16235E+04 -2.61265E+04  5.76529E+03 -1.94638E+04 -8.61244E+03
 -7.79750E+03 -8.58796E+03 -1.23971E+03 -4.53679E+02 -4.72796E+03  6.21508E+03 -8.63117E+03  5.81672E+03
 -1.70687E+04 -1.69096E+03 -1.67557E+04 -1.36946E+04 -6.64119E+03 -2.15452E+04  8.51914E+03 -2.10959E+04
  1.56636E+04 -9.25680E+03  1.10631E+04  7.22498E+03 -2.74696E+02  6.87790E+03 -1.02832E+04 -3.11250E+02
 -8.65225E+03 -1.03940E+04 -1.36517E+03 -1.65842E+04  1.14670E+04 -1.95601E+04  2.20258E+04 -8.84306E+03
  2.71992E+04  2.19610E+03  1.95159E+04  1.96604E+04  5.09426E+03  2.38893E+04 -1.07865E+04  2.07908E+04
 -1.35561E+04  5.56740E+03 -7.80458E+03 -4.52904E+03  2.36693E+03 -4.04989E+03  1.12657E+04  7.76498E+02
  7.99303E+03  7.38798E+03  1.91400E+02  1.58664E+04 -1.04753E+04  1.47936E+04 -1.70599E+04  3.69626E+03
 -1.44059E+04 -9.80871E+03  6.03648E+02 -1.62423E+04  1.06329E+04 -1.01735E+04  1.03736E+04  6.56053E+03
  3.84713E+03  1.16019E+04 -8.90003E+03  1.66544E+04 -1.62151E+04  5.78477E+03 -1.60148E+04 -7.11152E+03
 -1.05951E+04 -1.91211E+04  4.46571E+03 -2.34087E+04  2.03445E+04 -1.25305E+04  1.90254E+04  2.28840E+03
  1.32148E+04  1.61737E+04 -1.96510E+03  1.96793E+04 -1.41124E+04  1.08194E+04 -1.51857E+04 -8.33744E+02
 -1.21885E+04 -1.16544E+04 -2.06423E+03 -1.66127E+04  7.26614E+03 -1.25713E+04  8.74471E+03 -4.45459E+03
  7.61357E+03  2.08322E+03 -2.29073E+03  1.34021E+03 -6.71144E+02 -4.89041E+03  3.44903E+03 -1.06374E+04
  1.47974E+04 -6.63098E+03  1.96669E+04  2.87215E+03  2.02665E+04  1.54212E+04  1.24764E+04  2.79111E+04
 -5.92648E+03  3.01839E+04 -2.51714E+04  2.32653E+04 -3.16479E+04  3.29018E+03 -2.53234E+04 -1.05743E+04
 -1.46857E+04 -2.25079E+04 -6.01303E+02 -1.81435E+04  5.64792E+03 -7.92817E+03  5.13180E+03 -5.98197E+03
  4.14647E+03 -3.88643E+03  3.89776E+03 -3.03881E+03  7.22282E+03 -5.51139E+03  1.08093E+04 -1.34561E+03
  1.35316E+04  2.36947E+03  8.39438E+03  1.29893E+04 -1.12093E+03  1.60867E+04 -1.46698E+04  9.33376E+03
 -2.15031E+04 -2.08234E+03 -1.46495E+04 -1.21896E+04 -2.46977E+03 -2.07413E+04  1.30908E+04 -1.87074E+04
  2.13092E+04 -1.15720E+04  2.41794E+04  6.32844E+03  1.82575E+04  2.02063E+04  2.36474E+03  2.06280E+04
 -8.76834E+03  1.74940E+04 -1.47537E+04  5.97174E+03 -9.56226E+03 -1.72569E+03 -5.76835E+03 -2.36492E+03
 -2.14722E+03 -1.07228E+03 -4.13322E+03  2.95370E+03 -6.34925E+03  3.89183E+03 -1.26730E+04 -2.02087E+03
 -1.23648E+04 -1.41169E+04 -1.89578E+03 -1.99701E+04  1.21312E+04 -1.90864E+04  2.02116E+04 -5.42306E+03
  1.83030E+04  8.53483E+03  1.02564E+04  1.97200E+04 -4.22672E+03  1.91387E+04 -1.33650E+04  1.12181E+04
 -1.83968E+04 -5.46973E+02 -1.56111E+04 -1.33122E+04 -1.08383E+03 -1.62964E+04  6.70559E+03 -1.27169E+04
  1.20233E+04 -3.74017E+03  1.16860E+04  2.39513E+03  3.33299E+03  4.77785E+03  2.86946E+03  2.53685E+03
  5.49540E+03  3.74499E+03  4.28150E+03  1.74311E+03  6.37978E+03  6.06506E+03  4.87301E+03  1.19503E+04
 -2.93935E+03  1.54882E+04 -1.39582E+04  1.81293E+04 -2.20564E+04  3.87145E+03 -2.12233E+04 -8.66129E+03
 -8.80345E+03 -2.12664E+04  2.94785E+03 -2.16196E+04  1.33759E+04 -1.45766E+04  1.79798E+04 -2.80856E+03
  1.36622E+04  6.45238E+03  3.93319E+03  1.24101E+04 -5.83816E+03  9.04493E+03 -8.99228E+03 -2.98787E+03
 -4.93518E+03 -7.88944E+03  4.29743E+03 -8.56885E+03  9.16195E+03 -4.12105E+03  9.42983E+03  1.35676E+03
  4.97539E+03  4.83801E+03  1.09745E+03  4.64112E+03 -1.03087E+03  3.21936E+03  1.08969E+03 -4.40503E+02
  3.04223E+03 -9.49410E+02  9.92427E+03  3.20434E+03  4.66108E+03  1.09393E+04 -2.28666E+03  1.54513E+04
 -9.10481E+03  1.10281E+04 -1.45385E+04  3.55637E+03 -1.38665E+04 -3.96801E+03 -4.70444E+03 -9.04210E+03
  1.10010E+03 -9.61724E+03  5.23980E+03 -4.50637E+03  5.68844E+03  3.92594E+03 -9.14576E+02  7.86188E+03
 -7.74874E+03  3.08648E+03 -1.10852E+04 -6.15825E+03 -6.04058E+03 -1.21761E+04  3.16907E+03 -1.20428E+04
  7.34087E+03 -6.85437E+03  9.62542E+03  6.43605E+02  9.18708E+03  6.44581E+02  1.39832E+03  6.33423E+03
 -3.27305E+03  1.31807E+03 -5.37445E+03 -5.38264E+03  2.66055E+03 -1.12646E+04  1.36573E+04 -8.03525E+03
  1.53864E+04  2.56029E+03  1.22164E+04  8.30560E+03  4.59267E+03  1.53079E+04 -4.73199E+03  1.22851E+04
 -1.24014E+04  6.10075E+03 -1.29597E+04 -1.91450E+03 -5.54471E+03 -9.28945E+03  1.10472E+03 -9.70239E+03
  9.48261E+03 -1.89634E+03  8.91416E+03  4.02268E+03  2.70969E+03  7.54229E+03 -3.23794E+03  6.89398E+03
 -4.27467E+03  4.68362E+03 -2.46767E+03  1.52233E+03 -1.13870E+03 -1.04112E+01 -2.65758E+03  2.79361E+03
 -3.27350E+03  6.57520E+03 -9.57389E+03  5.21307E+03 -1.48909E+04  1.06844E+03 -1.59778E+04 -1.03789E+04
 -1.02099E+04 -2.09554E+04  4.60310E+03 -2.30419E+04  1.60867E+04 -1.78322E+04  2.06238E+04 -6.08752E+03
  2.22406E+04  4.75923E+03  1.28989E+04  1.25811E+04  9.26341E+02  1.65119E+04 -7.30387E+03  1.19812E+04
 -8.46818E+03  2.62673E+03 -7.12713E+03 -1.06177E+03 -2.70617E+03 -2.33934E+02 -2.31641E+02 -8.51793E+01
 -3.07834E+03  2.24488E+03 -2.11755E+03 -1.03295E+03 -1.94172E+02 -2.61278E+03  9.27619E+02 -6.67767E+03
  7.46383E+03 -5.54103E+03  1.07038E+04  3.47603E+02  1.07462E+04  9.59705E+03  5.00266E+03  1.62224E+04
 -7.89390E+03  1.96390E+04 -1.80626E+04  1.13169E+04 -1.98578E+04 -1.35995E+02 -1.60935E+04 -1.19717E+04
 -6.12343E+03 -1.43214E+04  4.20862E+03 -1.60193E+04  1.21697E+04 -7.51827E+03  1.23343E+04  1.86502E+03
  4.44290E+03  3.16652E+03  1.82962E+03  5.06024E+03 -2.88821E+03 -8.29498E+02  5.32331E+02 -3.32708E+03
  4.05167E+03 -3.52505E+03  6.04685E+03  1.42401E+03  4.65819E+03  7.11011E+03 -1.89236E+03  9.99157E+03
 -9.50121E+03  7.67400E+03 -1.44010E+04  3.53030E+02 -1.02931E+04 -8.08367E+03 -4.86468E+03 -1.34025E+04
  7.32171E+03 -1.18003E+04  1.33289E+04 -2.92745E+03  1.25253E+04  3.94469E+03  9.67625E+03  1.00705E+04
  1.00955E+03  1.06653E+04 -6.63068E+03  9.64984E+03 -6.52174E+03  2.65116E+03 -6.96419E+03  4.11740E+02
 -4.13419E+03  3.94331E+02 -3.96784E+03  1.07615E+03 -5.74313E+03  1.43316E+03 -9.36016E+03 -1.84355E+03
 -7.58316E+03 -5.87033E+03 -1.53857E+03 -1.44416E+04  5.31574E+03 -1.11535E+04  1.25005E+04 -5.45591E+03
  1.09436E+04  2.13002E+03  7.55390E+03  8.51177E+03 -7.38414E+02  1.21673E+04 -1.04942E+04  8.13145E+03
