 $NMID ID='MM_0lb_SNR200_11hz_g55_79.RAW', FMTDAT='(8E13.5)'
 TRAMP=1., VOLUME=1. $END
  3.08232E+05  5.00982E+01  3.37276E+05  2.49947E+05  8.46459E+04  3.38881E+05 -1.33492E+05  2.51699E+05
 -1.89930E+05  8.46590E+04 -1.11895E+05 -3.31290E+04 -1.68493E+02 -5.01500E+04  5.27857E+04 -4.69794E+02
  3.47973E+04  5.35651E+04 -1.78241E+04  7.50169E+04 -6.25928E+04  6.45775E+04 -8.45106E+04  3.12605E+04
 -8.18736E+04 -1.06327E+04 -5.72253E+04 -5.30469E+04 -1.45126E+04 -6.97466E+04  2.91151E+04 -4.78086E+04
  4.16056E+04  3.97730E+03  1.57742E+04  4.84654E+04 -3.39419E+04  4.84527E+04 -6.83822E+04 -1.14081E+03
 -5.38004E+04 -5.76563E+04 -6.63251E+03 -7.76308E+04  3.46012E+04 -5.60170E+04  4.93128E+04 -1.77945E+04
  4.48938E+04  1.10933E+04  3.12891E+04  2.67983E+04  1.62918E+04  3.00981E+04 -6.49334E+03  2.77845E+04
 -2.23806E+04  1.27735E+04 -1.95245E+04 -4.87242E+03  5.70147E+03 -7.83118E+03  2.35818E+04  1.34133E+04
  7.41723E+03  3.88208E+04 -3.17675E+04  3.65757E+04 -6.52750E+04  2.59886E+03 -5.80667E+04 -4.44342E+04
 -1.35240E+04 -6.42790E+04  4.11881E+04 -4.54039E+04  6.03247E+04 -1.90304E+03  3.61121E+04  3.32895E+04
 -6.30753E+03  3.94400E+04 -3.12585E+04  1.73542E+04 -3.21572E+04 -2.99983E+03 -1.82375E+04 -1.22297E+04
 -8.39708E+03 -1.56491E+04 -2.39865E+02 -2.01199E+04  7.82178E+03 -2.32688E+04  1.61814E+04 -1.19386E+04
  1.04457E+04  6.20160E+03 -1.02203E+04  1.31604E+04 -2.27083E+04 -4.65185E+03 -9.31530E+03 -3.50206E+04
  2.53202E+04 -4.64599E+04  4.95163E+04 -2.03676E+04  4.63878E+04  2.08618E+04  1.71028E+04  4.48128E+04
 -1.61186E+04  3.59982E+04 -2.77671E+04  3.48213E+03 -9.87921E+03 -3.02320E+04  2.12315E+04 -3.79721E+04
  4.37614E+04 -1.14633E+04  3.91524E+04  2.37457E+04  2.08774E+04  5.04786E+04 -7.12208E+03  5.45211E+04
 -3.38563E+04  3.61557E+04 -4.64511E+04  1.11109E+04 -4.51469E+04 -1.85107E+04 -2.72676E+04 -4.13515E+04
  8.64429E+03 -3.98912E+04  3.32347E+04 -1.71440E+04  3.08467E+04  1.26832E+04  4.29973E+03  2.02203E+04
 -1.27395E+04  1.06185E+04 -9.75499E+03 -6.78720E+03  7.17489E+03 -1.21181E+04  1.82514E+04  4.83481E+03
  1.39942E+04  2.34232E+04 -5.45084E+03  2.69709E+04 -2.21158E+04  1.30276E+04 -3.01233E+04 -3.48319E+03
 -2.47078E+04 -1.73151E+04 -1.11634E+04 -2.30843E+04  5.22003E+03 -2.43924E+04  1.98992E+04 -2.07565E+04
  2.91014E+04 -1.46015E+04  3.66798E+04  4.29756E+03  2.58005E+04  2.32257E+04  5.31908E+03  3.94467E+04
 -1.92905E+04  3.24688E+04 -2.87471E+04  1.22659E+04 -2.31217E+04 -1.05036E+04 -4.72580E+03 -1.24254E+04
  1.22112E+03 -1.02160E+03 -6.98791E+03  7.25301E+03 -1.96823E+04  4.19428E+03 -1.91192E+04 -8.49876E+03
 -1.21748E+04 -2.20649E+04  5.13736E+03 -2.64195E+04  1.80089E+04 -1.84657E+04  2.14872E+04 -5.77094E+02
  1.56478E+04  1.61395E+04 -1.74225E+03  2.04820E+04 -1.47973E+04  1.23995E+04 -2.34579E+04 -3.81912E+03
 -1.36334E+04 -2.01416E+04 -2.31156E+03 -2.54323E+04  1.26640E+04 -2.13006E+04  2.11345E+04 -1.16830E+04
  2.03843E+04  6.93146E+02  1.53538E+04  3.90304E+03  5.30044E+03  1.09083E+03  1.12499E+04 -2.42084E+03
  2.01829E+04  4.57226E+03  2.24282E+04  1.72062E+04  1.51473E+04  3.48687E+04 -3.30879E+03  4.17643E+04
 -2.30337E+04  3.38311E+04 -3.92477E+04  1.68736E+04 -3.97695E+04 -4.75374E+03 -3.37022E+04 -2.29468E+04
 -1.34849E+04 -3.40536E+04  1.11753E+04 -3.02207E+04  2.54755E+04 -1.42281E+04  2.29836E+04  7.35738E+03
  8.99284E+03  1.69802E+04 -1.04800E+04  1.48116E+04 -1.83564E+04  3.69677E+03 -1.39050E+04 -1.02476E+04
  7.71148E+02 -1.75010E+04  1.07952E+04 -1.44099E+04  1.30037E+04 -2.31994E+03  2.73810E+03  8.93326E+03
 -8.79813E+03  3.18600E+03 -7.31255E+03 -6.55493E+03 -2.60351E+03 -1.68463E+04  1.14175E+04 -1.77713E+04
  2.07907E+04 -8.39392E+03  2.32094E+04  3.27874E+03  2.04783E+04  1.73596E+04  9.22140E+03  2.55241E+04
 -5.10011E+03  2.81670E+04 -1.85342E+04  1.80100E+04 -2.03200E+04  3.82055E+03 -1.41030E+04 -4.49971E+03
 -6.41868E+03 -6.39693E+03 -3.88394E+02  4.70199E+02 -2.55290E+03  2.46031E+03 -6.45083E+03  5.25151E+03
 -1.32664E+04 -6.55135E+02 -1.46124E+04 -9.80085E+03 -5.25570E+03 -1.78375E+04  5.88944E+03 -1.49945E+04
  1.17465E+04 -7.74880E+03  8.45930E+03  2.66320E+03 -8.26719E+02  5.30199E+03 -8.03292E+03 -8.41797E+02
 -7.51282E+03 -7.47070E+03  1.76034E+02 -1.24193E+04  8.15971E+03 -1.49496E+04  1.83977E+04 -7.15563E+03
  2.12033E+04  2.21661E+03  1.42285E+04  1.26189E+04  2.59444E+03  1.64287E+04 -8.71305E+03  1.54307E+04
 -1.21695E+04  3.94209E+03 -7.48634E+03 -3.12919E+03  2.06654E+03 -4.19995E+03  7.18347E+03 -3.17342E+02
  6.34671E+03  6.09837E+03  1.92506E+03  9.80609E+03 -9.33820E+03  1.16083E+04 -1.31111E+04  2.37490E+03
 -9.48049E+03 -6.36721E+03 -1.96203E+02 -1.19456E+04  7.77965E+03 -6.55396E+03  8.34646E+03  3.15459E+03
  1.92934E+03  8.23494E+03 -7.35684E+03  1.11776E+04 -1.18159E+04  4.75061E+03 -1.17609E+04 -5.03606E+03
 -7.63755E+03 -1.19527E+04  4.28021E+03 -1.58982E+04  1.33757E+04 -7.82322E+03  1.49194E+04  2.22645E+03
  8.07282E+03  1.22149E+04 -1.24739E+03  1.40090E+04 -1.00259E+04  7.62186E+03 -1.11095E+04 -1.61873E+03
 -8.51867E+03 -8.07868E+03 -9.29558E+02 -1.14358E+04  5.04200E+03 -9.13652E+03  7.37391E+03 -2.25284E+03
  4.35155E+03  1.47453E+03 -8.02349E+02  2.08137E+03 -1.62925E+03 -4.37955E+03  3.16348E+03 -6.45662E+03
  9.94881E+03 -3.54008E+03  1.49407E+04  1.68030E+03  1.21754E+04  8.49714E+03  7.69854E+03  1.81339E+04
 -4.75128E+03  1.99566E+04 -1.70942E+04  1.54124E+04 -2.14187E+04  3.92715E+03 -1.72674E+04 -6.24659E+03
 -8.83387E+03 -1.50317E+04 -6.67351E+02 -1.30021E+04  5.61869E+03 -6.26712E+03  4.64488E+03 -4.46439E+03
  2.66282E+03 -2.15662E+03  2.62833E+03 -3.21447E+03  4.82765E+03 -2.49830E+03  5.23411E+03 -1.12144E+03
  9.32104E+03  2.01669E+03  4.48832E+03  7.35254E+03 -2.58912E+03  9.39460E+03 -1.03395E+04  6.33628E+03
 -1.13027E+04 -1.36821E+03 -6.55546E+03 -9.11567E+03 -9.80668E+02 -1.28004E+04  8.35621E+03 -1.42248E+04
  1.45334E+04 -7.44260E+03  1.61616E+04  1.60331E+03  1.12955E+04  1.12864E+04  1.86179E+03  1.40757E+04
 -6.54669E+03  1.29981E+04 -8.33471E+03  7.18182E+03 -7.22543E+03 -2.78465E+03 -1.05180E+03 -2.77269E+03
 -1.38257E+03  2.17120E+02 -2.17384E+03  2.32764E+03 -5.21764E+03  2.02315E+03 -8.78790E+03 -1.32171E+03
 -5.64598E+03 -9.09131E+03  2.99052E+02 -1.21746E+04  8.02841E+03 -1.05001E+04  1.33317E+04 -3.83795E+03
  1.29624E+04  5.43580E+03  7.06169E+03  9.77715E+03 -3.21711E+03  1.32470E+04 -8.79965E+03  6.20856E+03
 -1.18960E+04  4.56064E+01 -8.76521E+03 -7.61548E+03 -6.94223E+02 -9.73626E+03  5.18594E+03 -8.56757E+03
  7.81837E+03 -2.65712E+03  5.05879E+03  1.38463E+03  7.33169E+02  3.99338E+03  2.02115E+03  2.53800E+03
  2.09423E+03  6.87780E+02  2.97424E+03  8.22775E+02  4.30461E+03  3.67254E+03  3.03223E+03  6.16893E+03
 -2.61282E+03  9.17475E+03 -8.97930E+03  8.51111E+03 -1.11961E+04  2.80215E+03 -1.31594E+04 -3.73453E+03
 -6.46288E+03 -1.21248E+04  1.80839E+03 -1.37905E+04  7.06824E+03 -8.68526E+03  1.02074E+04 -1.85640E+03
  6.21696E+03  4.43210E+03  2.35066E+03  7.74911E+03 -2.72130E+03  5.40156E+03 -4.68719E+03 -5.93165E+02
 -2.55789E+03 -3.96945E+03  3.57759E+03 -4.91524E+03  4.81633E+03 -1.99230E+03  5.54521E+03  1.41083E+03
  2.27631E+03  3.01673E+03  2.25880E+03  1.75245E+03 -1.53057E+02  1.88592E+03  1.32457E+03 -6.27892E+02
  1.98011E+03 -5.23883E+02  4.33984E+03  2.67220E+03  3.47702E+03  7.67449E+03 -8.19892E+02  7.49532E+03
 -6.69549E+03  6.29062E+03 -6.89324E+03  1.66994E+02 -6.05946E+03 -3.51204E+03 -1.57146E+03 -3.57176E+03
  3.40180E+02 -4.93421E+03  3.55064E+03 -1.52536E+03  2.79477E+03  1.32161E+03 -1.69310E+03  3.27703E+03
 -4.71725E+03  3.62731E+03 -5.66442E+03 -3.94066E+03 -3.27775E+03 -5.12537E+03  8.56922E+02 -5.86260E+03
  4.09043E+03 -4.05818E+03  5.63502E+03 -6.06777E+02  4.24189E+03  3.74247E+02 -6.14959E+02  3.14116E+03
 -2.36354E+03  1.89511E+03 -2.52317E+03 -3.08421E+03  3.07656E+03 -4.20139E+03  5.03004E+03 -3.85195E+03
  6.64564E+03  6.84027E+02  6.16101E+03  4.77255E+03  1.29989E+03  8.05063E+03 -3.42238E+03  7.08960E+03
 -4.70428E+03  3.00072E+03 -7.83480E+03 -8.04834E+02 -2.87972E+03 -6.04988E+03  1.87666E+03 -5.48455E+03
  4.87358E+03 -2.61772E+03  3.01356E+03  3.38105E+03  2.67566E+03  4.13990E+03 -1.54479E+03  2.75001E+03
 -1.47327E+03  3.46172E+03 -1.99018E+03  4.06384E+02 -2.27581E+02  3.04970E+03 -4.64672E+02  7.99365E+02
 -1.21086E+03  2.66493E+03 -5.44700E+03  2.61414E+03 -7.54237E+03 -1.13144E+03 -6.65737E+03 -4.94517E+03
 -4.34834E+03 -1.03501E+04  3.42744E+03 -1.16913E+04  7.18508E+03 -8.04953E+03  1.02769E+04 -3.08801E+03
  9.02680E+03  2.17292E+03  6.04447E+03  5.56777E+03  1.72607E+01  8.08522E+03 -3.79832E+03  7.05557E+03
 -4.28512E+03  1.93886E+03 -3.76696E+03 -4.78031E+02 -2.88746E+02 -1.20978E+03 -5.19126E+02 -6.00078E+01
 -2.20630E+03  6.26908E+02 -2.51273E+03  5.05890E+02 -5.12147E+02 -6.64575E+02 -2.44580E+01 -2.81688E+03
  4.97171E+03 -1.76374E+03  3.98818E+03 -5.18087E+02  4.43410E+03  4.49096E+03  1.39854E+03  7.40289E+03
 -2.92252E+03  8.54582E+03 -7.25369E+03  5.46788E+03 -9.65497E+03 -2.49200E+03 -6.95407E+03 -5.30588E+03
 -2.96573E+03 -6.89106E+03  2.05206E+03 -7.22358E+03  3.50991E+03 -3.58611E+03  4.18463E+03 -4.82212E+02
  2.89351E+03  2.26798E+03 -1.00572E+03  2.89549E+03 -1.45097E+03 -1.22030E+03  7.61209E+02 -3.61343E+02
  3.06932E+03 -8.04826E+02  3.22782E+03 -4.18381E+02  3.31870E+03  3.29107E+03  1.54600E+03  5.12198E+03
 -2.50223E+03  2.89223E+03 -5.45719E+03  2.92803E+02 -3.19507E+03 -4.29303E+03 -5.82665E+02 -7.22856E+03
  4.45492E+03 -5.31796E+03  5.54124E+03 -1.17399E+03  4.96226E+03  1.59795E+03  3.76735E+03  5.70297E+03
  4.03271E+02  4.07149E+03 -1.03088E+03  3.38208E+03 -1.86700E+03  1.89911E+03 -2.15463E+03  8.02180E+02
 -5.07929E+02 -3.97763E+02 -1.52923E+03  8.88600E+02 -2.33961E+03  4.12414E+02 -3.45733E+03 -4.24574E+02
 -4.15551E+03 -1.68089E+03 -8.44837E+02 -5.70923E+03  2.26664E+03 -5.21344E+03  4.52703E+03 -1.38122E+03
  4.04051E+03  9.23145E+02  2.53789E+03  2.96727E+03 -1.33425E+02  4.94425E+03 -3.45770E+03  4.13175E+03
