 $NMID ID='MM_0lb_SNR200_7hz_g50_67.RAW', FMTDAT='(8E13.5)'
 TRAMP=1., VOLUME=1. $END
  3.08468E+05 -3.76478E+02  3.36900E+05  2.49901E+05  8.49356E+04  3.37479E+05 -1.30839E+05  2.51906E+05
 -1.90386E+05  8.51130E+04 -1.13983E+05 -3.10868E+04  1.11877E+03 -5.14899E+04  5.59495E+04  3.69775E+02
  3.47623E+04  5.30472E+04 -1.60462E+04  7.74486E+04 -6.33186E+04  6.51022E+04 -8.64042E+04  3.47609E+04
 -8.17816E+04 -1.17050E+04 -5.89739E+04 -5.33895E+04 -1.68576E+04 -7.17754E+04  2.70350E+04 -4.71607E+04
  3.98509E+04  5.01647E+03  1.64409E+04  4.95173E+04 -3.32495E+04  4.81467E+04 -6.97015E+04  2.89882E+02
 -5.53870E+04 -5.64843E+04 -7.75816E+03 -8.00596E+04  3.59645E+04 -5.56917E+04  5.07589E+04 -1.77697E+04
  4.49084E+04  1.18993E+04  3.06544E+04  2.72349E+04  1.55855E+04  3.05540E+04 -5.51102E+03  2.64393E+04
 -2.28715E+04  1.15554E+04 -1.55471E+04 -4.63412E+03  7.32193E+03 -7.00412E+03  2.48302E+04  1.33204E+04
  6.22979E+03  4.00510E+04 -3.32301E+04  3.76648E+04 -6.59221E+04  1.03808E+03 -5.98812E+04 -4.54669E+04
 -1.48469E+04 -6.69295E+04  4.14025E+04 -5.02515E+04  6.18743E+04 -2.50899E+03  3.80913E+04  3.63579E+04
 -6.33801E+03  4.21966E+04 -3.35820E+04  1.99783E+04 -3.49202E+04 -4.68962E+03 -1.99577E+04 -1.26079E+04
 -1.14903E+04 -1.39616E+04 -5.70112E+02 -2.16953E+04  1.06230E+04 -2.53177E+04  1.62312E+04 -1.19232E+04
  9.60947E+03  5.48438E+03 -1.06958E+04  1.15255E+04 -2.51811E+04 -7.05895E+03 -8.91265E+03 -3.57839E+04
  2.62939E+04 -4.83643E+04  5.28348E+04 -2.10019E+04  4.97620E+04  2.06107E+04  1.83282E+04  4.76101E+04
 -1.82660E+04  3.65921E+04 -2.85384E+04  2.13709E+03 -1.29220E+04 -3.06413E+04  2.18834E+04 -3.85072E+04
  4.49389E+04 -1.14827E+04  4.32708E+04  2.55846E+04  2.13441E+04  5.25897E+04 -8.01934E+03  5.79235E+04
 -3.72018E+04  4.09258E+04 -5.00195E+04  1.12654E+04 -5.26846E+04 -1.72155E+04 -2.71497E+04 -4.57823E+04
  7.62739E+03 -4.20666E+04  3.59456E+04 -1.67045E+04  3.20787E+04  8.78689E+03  6.25011E+03  1.95941E+04
 -1.43593E+04  1.01505E+04 -1.13169E+04 -7.25697E+03  6.46746E+03 -1.28868E+04  2.10218E+04  4.90574E+03
  1.52481E+04  2.27058E+04 -4.24792E+03  2.81504E+04 -2.27738E+04  1.46710E+04 -3.30877E+04 -1.08914E+03
 -2.69730E+04 -1.86022E+04 -1.43260E+04 -2.72523E+04  3.97630E+03 -2.66787E+04  2.18031E+04 -2.49941E+04
  3.40190E+04 -1.56636E+04  4.21383E+04  5.05770E+03  3.16573E+04  2.52082E+04  4.26072E+03  4.38079E+04
 -2.17789E+04  3.62908E+04 -3.19077E+04  1.20918E+04 -2.30262E+04 -8.14158E+03 -5.46723E+03 -1.12871E+04
  6.07112E+02 -2.36808E+03 -8.71232E+03  7.50100E+03 -2.19388E+04  5.06695E+03 -2.30905E+04 -1.02919E+04
 -1.24564E+04 -2.80090E+04  4.98672E+03 -3.05836E+04  2.12366E+04 -2.27289E+04  2.29363E+04 -1.07767E+03
  1.76254E+04  1.88837E+04  2.35425E+02  2.37612E+04 -1.90923E+04  1.50143E+04 -2.49304E+04 -5.21319E+03
 -1.66763E+04 -2.12945E+04 -9.55203E+02 -2.99689E+04  1.38794E+04 -2.49594E+04  2.25595E+04 -1.29077E+04
  2.25205E+04  4.18205E+02  1.67272E+04  6.17738E+03  1.06210E+04  1.88755E+03  1.27518E+04  1.09358E+02
  2.44618E+04  2.03726E+03  2.84507E+04  2.00298E+04  1.83093E+04  4.06149E+04 -4.49629E+03  4.73750E+04
 -2.66396E+04  4.08389E+04 -4.53662E+04  2.12342E+04 -5.02585E+04 -3.39652E+03 -3.97427E+04 -3.04622E+04
 -1.36625E+04 -4.06089E+04  1.50755E+04 -3.67082E+04  3.02594E+04 -1.63973E+04  2.44819E+04  8.93835E+03
  1.03552E+04  2.05091E+04 -1.30109E+04  1.77170E+04 -2.18137E+04  3.81797E+03 -1.50119E+04 -1.49692E+04
 -1.62825E+02 -1.95564E+04  1.21217E+04 -1.55573E+04  1.51263E+04 -1.55969E+03  2.94908E+03  9.79833E+03
 -8.52008E+03  3.62580E+03 -1.09082E+04 -7.91333E+03 -2.74320E+03 -1.93088E+04  1.37686E+04 -2.18305E+04
  2.57914E+04 -1.10418E+04  3.10399E+04  4.35652E+03  2.54284E+04  2.13176E+04  1.16651E+04  3.22705E+04
 -6.67634E+03  3.63059E+04 -2.32109E+04  2.06364E+04 -2.57980E+04  4.81585E+03 -1.82584E+04 -7.18432E+03
 -7.33220E+03 -9.06747E+03  2.67048E+02 -3.84478E+02 -3.41388E+03  3.99755E+03 -7.31522E+03  5.07722E+03
 -1.59355E+04 -1.53353E+03 -1.74860E+04 -1.49596E+04 -4.32210E+03 -2.15595E+04  8.92018E+03 -1.73255E+04
  1.54918E+04 -6.02334E+03  1.09840E+04  4.00523E+03 -3.11385E+02  8.41197E+03 -1.09728E+04 -1.13817E+03
 -8.89047E+03 -1.29065E+04 -1.40265E+03 -1.87711E+04  1.00026E+04 -1.91584E+04  2.27543E+04 -9.05444E+03
  2.67803E+04  3.64069E+03  1.99785E+04  1.75901E+04  3.14096E+03  2.34083E+04 -1.01006E+04  1.68229E+04
 -1.30542E+04  4.36144E+03 -7.25040E+03 -3.58380E+03  2.52443E+03 -4.22661E+03  9.48314E+03 -3.75153E+03
  9.35726E+03  8.03001E+03  1.72767E+03  1.30465E+04 -1.27896E+04  1.40040E+04 -1.86677E+04  1.11542E+03
 -1.13162E+04 -1.03511E+04  7.93292E+02 -1.69981E+04  1.01982E+04 -9.11767E+03  1.22376E+04  4.88000E+03
  4.82600E+03  1.23717E+04 -1.05938E+04  1.42956E+04 -1.64505E+04  5.35730E+03 -1.51677E+04 -6.06798E+03
 -1.00081E+04 -1.73527E+04  3.95771E+03 -2.27899E+04  1.87349E+04 -1.28978E+04  1.85117E+04  3.78767E+03
  1.10690E+04  1.49440E+04 -1.19873E+03  1.67331E+04 -1.37356E+04  1.02447E+04 -1.59194E+04 -6.40317E+02
 -1.19858E+04 -1.09032E+04 -2.91012E+03 -1.50338E+04  6.65926E+03 -1.16005E+04  9.66354E+03 -2.88279E+03
  5.36408E+03  3.01099E+03 -1.75137E+03  1.60858E+03 -1.17404E+03 -4.55520E+03  3.36152E+03 -1.06514E+04
  1.55970E+04 -5.89532E+03  1.99071E+04  4.02219E+03  2.06978E+04  1.37872E+04  1.27444E+04  2.56368E+04
 -4.71533E+03  2.97857E+04 -2.43304E+04  2.18864E+04 -3.15712E+04  4.58814E+03 -2.47552E+04 -1.08715E+04
 -1.34962E+04 -2.20614E+04 -2.60957E+02 -1.72199E+04  5.31007E+03 -9.20392E+03  6.86147E+03 -6.38471E+03
  3.79123E+03 -2.12306E+03  4.35713E+03 -4.98662E+03  6.55385E+03 -4.73301E+03  9.69970E+03 -3.51000E+02
  1.25387E+04  3.92969E+03  5.88906E+03  1.01619E+04 -2.25326E+03  1.45184E+04 -1.36872E+04  1.12651E+04
 -1.91404E+04 -1.51165E+03 -1.15628E+04 -1.18544E+04 -2.75759E+03 -2.14863E+04  1.16778E+04 -1.97103E+04
  2.23920E+04 -1.05617E+04  2.55015E+04  4.84263E+03  1.65667E+04  1.79476E+04  2.74636E+03  2.10555E+04
 -8.77173E+03  1.79947E+04 -1.24521E+04  6.31631E+03 -8.25188E+03 -1.52389E+03 -3.11594E+03 -2.90301E+03
 -2.67508E+03 -1.71227E+03 -3.47442E+03  1.74453E+03 -6.60900E+03  2.65106E+03 -1.37410E+04 -1.44679E+03
 -9.73946E+03 -1.27092E+04 -6.45773E+02 -1.89923E+04  1.21885E+04 -1.59957E+04  1.85563E+04 -6.10166E+03
  1.79049E+04  8.54026E+03  1.08511E+04  1.69328E+04 -4.88185E+03  2.16904E+04 -1.42582E+04  1.14679E+04
 -1.81334E+04  2.02867E+02 -1.41794E+04 -1.09227E+04 -2.81650E+03 -1.57349E+04  9.33025E+03 -1.13553E+04
  1.27582E+04 -4.71718E+03  7.97862E+03  2.31013E+03  2.66686E+03  5.98127E+03  7.33544E+02  4.02807E+03
  3.42973E+03  2.86743E+03  5.12413E+03  2.32256E+03  3.67740E+03  6.92116E+03  4.40296E+03  8.16272E+03
 -1.95670E+03  1.39453E+04 -1.31476E+04  1.65821E+04 -2.09196E+04  4.69080E+03 -2.07039E+04 -9.03695E+03
 -1.11912E+04 -2.05198E+04  1.82583E+03 -2.02822E+04  1.14276E+04 -1.50387E+04  1.37225E+04 -3.50464E+03
  1.23984E+04  6.77483E+03  3.75147E+03  1.14306E+04 -5.03979E+03  5.46633E+03 -8.16048E+03 -1.25959E+02
 -3.75770E+03 -8.90061E+03  4.43409E+03 -8.67783E+03  7.58853E+03 -5.71879E+03  7.87662E+03  3.35543E+03
  4.08298E+03  5.01178E+03  2.81390E+03  4.02849E+03 -9.75795E+02  4.23661E+03  1.27891E+03  6.27291E+02
  4.66127E+03 -1.46643E+03  8.73343E+03  5.30406E+03  4.99466E+03  1.10473E+04 -2.09017E+03  1.32742E+04
 -9.58846E+03  1.11548E+04 -1.02340E+04  3.30337E+03 -1.11808E+04 -5.46405E+03 -5.99621E+03 -7.97215E+03
  2.94031E+03 -7.64000E+03  6.99499E+03 -3.21036E+03  4.91057E+03  3.97844E+03 -3.29731E+03  5.82444E+03
 -9.19236E+03  4.04131E+03 -1.07853E+04 -5.25478E+03 -4.97616E+03 -1.16170E+04  2.26448E+03 -1.16370E+04
  7.26013E+03 -6.20725E+03  9.47136E+03 -7.25639E+02  5.56797E+03  4.04082E+03  3.41013E+02  6.23953E+03
 -4.10698E+03  8.15240E+02 -5.15484E+03 -2.01331E+03  4.80974E+02 -8.20880E+03  9.59896E+03 -8.26197E+03
  1.39360E+04  4.04335E+03  1.08031E+04  8.75786E+03  4.62222E+03  1.46396E+04 -5.97864E+03  1.39260E+04
 -1.02411E+04  6.08525E+03 -1.10714E+04 -1.27060E+03 -5.46931E+03 -9.55870E+03  2.72517E+03 -9.19393E+03
  8.79706E+03 -1.89089E+03  7.85453E+03  4.12829E+03  2.37959E+03  6.78154E+03 -1.67958E+03  6.52732E+03
 -4.24967E+03  5.18412E+03 -4.28301E+03  9.72390E+02 -1.33804E+03  1.62376E+03 -3.29352E+02  3.22371E+03
 -2.59328E+03  4.64097E+03 -8.32931E+03  6.29231E+03 -1.44955E+04 -2.32731E+02 -1.37951E+04 -7.97231E+03
 -7.15796E+03 -1.87733E+04  2.04292E+03 -2.17719E+04  1.31880E+04 -1.62377E+04  1.77996E+04 -6.75152E+03
  1.95878E+04  3.98316E+03  1.17717E+04  1.21133E+04  1.95127E+03  1.55979E+04 -4.80256E+03  1.17443E+04
 -8.40534E+03  3.65581E+03 -4.51258E+03 -1.63450E+03 -8.76941E+02 -1.89220E+03 -1.29019E+03 -8.77119E+02
 -1.53856E+03  8.08295E+02 -2.25733E+03 -1.36093E+03 -8.13829E+02 -2.75586E+03  2.58321E+03 -5.83394E+03
  6.57968E+03 -4.74050E+03  8.96845E+03 -1.27393E+03  1.07118E+04  8.44152E+03  2.50572E+03  1.51321E+04
 -5.65424E+03  1.62340E+04 -1.61614E+04  9.92217E+03 -1.83723E+04 -4.43748E+02 -1.27410E+04 -1.05246E+04
 -4.05795E+03 -1.55122E+04  5.56396E+03 -1.37996E+04  8.58880E+03 -9.73531E+03  1.09336E+04  3.92064E+02
  4.01674E+03  5.30759E+03 -9.10328E+02  6.04261E+03 -3.69262E+03 -8.02446E+02  6.37673E+02 -2.98953E+03
  3.50715E+03 -4.47045E+02  5.12166E+03  2.43292E+03  4.59518E+03  4.92275E+03  4.68934E+02  8.11079E+03
 -5.98748E+03  7.18943E+03 -1.17096E+04  1.43032E+03 -9.47037E+03 -7.64479E+03 -4.76107E+03 -1.19888E+04
  5.31787E+03 -1.19404E+04  1.19409E+04 -3.24806E+03  9.85008E+03  4.92152E+03  6.70582E+03  1.05362E+04
  3.10523E+03  1.01481E+04 -3.20809E+03  9.89275E+03 -5.47938E+03  3.67133E+03 -5.78658E+03  8.84782E+02
 -3.14948E+03  2.09830E+02 -2.81148E+03  1.90871E+03 -5.50936E+03  2.97121E+03 -7.70229E+03 -7.43230E+02
 -6.64978E+03 -6.04176E+03 -2.47927E+03 -1.12888E+04  3.83403E+03 -1.13183E+04  9.38612E+03 -3.52097E+03
  9.30638E+03  1.96291E+03  7.40824E+03  8.21575E+03 -1.49378E+03  1.16903E+04 -8.13796E+03  6.26742E+03
