 $NMID ID='MM_0lb_SNR200_20hz_g60_20.RAW', FMTDAT='(8E13.5)'
 TRAMP=1., VOLUME=1. $END
  3.09970E+05  4.06909E+02  3.38138E+05  2.50366E+05  8.43456E+04  3.37605E+05 -1.31750E+05  2.50630E+05
 -1.91221E+05  8.25442E+04 -1.11095E+05 -3.29260E+04  3.94024E+02 -5.06208E+04  5.35860E+04  9.25234E+02
  3.53037E+04  5.31766E+04 -1.69646E+04  7.45613E+04 -6.02846E+04  6.31476E+04 -8.43760E+04  3.25315E+04
 -7.98294E+04 -1.11479E+04 -5.67385E+04 -5.07214E+04 -1.32402E+04 -6.91818E+04  2.55474E+04 -4.56786E+04
  3.99759E+04  3.56244E+03  1.62251E+04  4.68684E+04 -3.42093E+04  4.59280E+04 -6.61843E+04 -1.92690E+02
 -5.36170E+04 -5.62650E+04 -6.97252E+03 -7.45202E+04  3.41650E+04 -5.39972E+04  4.67641E+04 -1.61545E+04
  4.17404E+04  1.15215E+04  3.22596E+04  2.51247E+04  1.60741E+04  2.85077E+04 -4.82106E+03  2.72907E+04
 -2.15871E+04  1.30151E+04 -1.84886E+04 -4.55827E+03  4.24848E+03 -8.01855E+03  2.19944E+04  1.14472E+04
  6.79932E+03  3.43012E+04 -3.16983E+04  3.43190E+04 -6.29185E+04  2.27539E+03 -5.60221E+04 -4.20114E+04
 -1.27348E+04 -6.15548E+04  3.88968E+04 -4.40832E+04  5.66880E+04 -2.33315E+03  3.14702E+04  3.03117E+04
 -5.95993E+03  3.28183E+04 -2.82800E+04  1.47537E+04 -2.76415E+04 -5.43159E+03 -1.52526E+04 -1.01795E+04
 -7.89803E+03 -1.10792E+04 -1.81605E+03 -1.61001E+04  7.16490E+03 -2.35017E+04  1.46160E+04 -1.25507E+04
  1.24482E+04  4.47768E+03 -6.95799E+03  1.29291E+04 -1.95593E+04 -2.65474E+03 -8.76305E+03 -3.15454E+04
  2.12227E+04 -4.12587E+04  4.55487E+04 -1.90959E+04  4.35450E+04  1.89831E+04  1.36372E+04  4.32504E+04
 -1.49700E+04  3.10349E+04 -2.41370E+04  1.12414E+03 -8.93149E+03 -2.60368E+04  1.96399E+04 -3.23265E+04
  3.80262E+04 -7.92165E+03  3.19390E+04  2.22868E+04  1.64940E+04  4.28885E+04 -8.73353E+03  4.60496E+04
 -2.93640E+04  3.07746E+04 -3.73269E+04  9.22224E+03 -4.01218E+04 -1.46383E+04 -2.21772E+04 -3.53939E+04
  7.83987E+03 -3.47210E+04  2.87295E+04 -1.34997E+04  2.77998E+04  1.08784E+04  2.81262E+03  1.75082E+04
 -1.34952E+04  6.33463E+03 -1.02027E+04 -8.07878E+03  5.01289E+03 -1.00206E+04  1.79190E+04  6.27984E+03
  1.17055E+04  2.13985E+04 -5.81286E+03  2.29927E+04 -2.15424E+04  9.31899E+03 -2.57192E+04 -5.40426E+03
 -1.60447E+04 -1.71021E+04 -6.82548E+03 -1.74631E+04  4.15872E+03 -1.53408E+04  1.40091E+04 -1.58258E+04
  2.09897E+04 -1.24521E+04  2.90311E+04  1.10772E+03  2.20170E+04  1.76461E+04  4.63423E+03  3.24097E+04
 -1.59973E+04  2.78710E+04 -2.47362E+04  9.75346E+03 -2.01326E+04 -9.83589E+03 -3.87684E+03 -1.40313E+04
  1.86333E+03 -4.80820E+03 -2.48480E+03  5.18222E+03 -1.20225E+04  5.97635E+03 -1.34198E+04 -4.46570E+03
 -9.45921E+03 -1.53952E+04  5.07126E+03 -1.99065E+04  1.29760E+04 -1.53505E+04  1.49813E+04 -1.22657E+03
  1.01503E+04  1.05882E+04 -7.63389E+02  1.56591E+04 -1.23355E+04  8.65795E+03 -1.56324E+04 -3.03041E+03
 -1.13323E+04 -1.39775E+04 -8.56348E+02 -1.92493E+04  8.20329E+03 -1.65949E+04  1.65372E+04 -7.78614E+03
  1.43471E+04  1.10855E+02  1.04546E+04  3.71659E+03  5.64794E+03  1.31508E+03  8.09370E+03 -2.00382E+03
  1.33828E+04  2.74681E+03  1.50022E+04  1.16964E+04  9.74079E+03  2.43355E+04 -2.59392E+03  2.50537E+04
 -1.56625E+04  2.13454E+04 -2.46968E+04  9.97021E+03 -2.49204E+04 -2.37869E+03 -2.18472E+04 -1.36582E+04
 -1.04006E+04 -2.06044E+04  6.71842E+03 -1.99512E+04  1.67905E+04 -1.01876E+04  1.62570E+04  3.41819E+03
  5.86525E+03  1.07004E+04 -6.68107E+03  1.05997E+04 -1.34095E+04  2.82195E+03 -1.10321E+04 -7.35921E+03
  5.78214E+02 -1.30092E+04  5.68474E+03 -9.06109E+03  6.67038E+03 -1.99283E+03  1.06189E+03  4.20619E+03
 -6.56837E+03  1.60807E+03 -5.99879E+03 -4.87129E+03  5.22257E+02 -1.03269E+04  7.69056E+03 -8.78319E+03
  1.23806E+04 -4.77921E+03  1.15044E+04  3.35798E+03  1.04289E+04  1.03374E+04  5.47418E+03  1.44944E+04
 -1.68037E+03  1.64540E+04 -8.79442E+03  1.00199E+04 -1.06248E+04  3.61204E+03 -9.03285E+03 -2.67067E+03
 -4.86230E+03 -3.43881E+03 -1.50222E+02  9.92324E+02 -1.98127E+03  1.90424E+03 -2.31361E+03  4.45756E+03
 -7.00782E+03 -3.16519E+02 -8.53149E+03 -7.28141E+03 -4.37985E+03 -1.10649E+04  4.67918E+03 -8.21815E+03
  7.11454E+03 -3.67433E+03  5.42335E+03  1.97670E+03  9.34002E+02  2.29902E+03 -3.83644E+03  8.60589E-03
 -3.17298E+03 -4.78219E+03  6.93989E+01 -7.03183E+03  3.98327E+03 -8.38346E+03  9.08996E+03 -3.88366E+03
  1.21119E+04  2.98254E+02  8.97638E+03  6.39766E+03  1.80224E+03  8.12984E+03 -5.49615E+03  7.76666E+03
 -6.03365E+03  2.98991E+03 -4.68218E+03 -7.11205E+02  1.64913E+03 -2.75873E+03  4.36820E+03 -1.13745E+03
  3.92149E+03  2.73088E+03  1.18014E+03  5.05262E+03 -3.20422E+03  6.31666E+03 -8.73224E+03  1.91166E+03
 -4.03278E+03 -4.04787E+03  1.05099E+03 -6.23850E+03  4.03357E+03 -3.88646E+03  2.35932E+03  1.13563E+03
 -4.75102E+02  2.94282E+03 -3.86867E+03  4.81547E+03 -4.39435E+03  2.65995E+03 -4.24224E+03 -1.29939E+03
 -2.46230E+03 -5.60983E+03  1.32511E+03 -5.29115E+03  5.55762E+03 -3.79696E+03  5.76916E+03  3.42415E+02
  4.84900E+03  6.43038E+03  1.47837E+02  7.65826E+03 -4.38338E+03  4.77867E+03 -5.82887E+03 -1.01511E+03
 -4.53047E+03 -5.45061E+03 -2.51342E+03 -4.62090E+03  1.78149E+03 -4.17181E+03  2.70312E+03 -3.82511E+03
  2.75013E+03 -2.50706E+02  3.44719E+02  5.28885E+02  7.88462E+02  7.96149E+02  5.08073E+02 -1.71345E+03
  2.98209E+03 -4.16466E+02  4.45851E+03  6.14953E+02  4.98488E+03  3.28926E+03  4.83987E+03  6.41571E+03
 -1.41651E+03  6.83349E+03 -8.08957E+03  4.69345E+03 -9.02393E+03  9.13116E+02 -7.55657E+03 -1.50860E+03
 -3.87581E+03 -6.35187E+03  7.72673E+02 -4.44187E+03  2.25215E+03 -1.67661E+03  1.27320E+03 -2.50615E+03
  1.69798E+03 -1.44312E+03  1.27201E+03 -1.78342E+03  3.54568E+03 -1.06568E+03  4.03938E+03  4.62247E+02
  4.37741E+03  1.21372E+03 -1.76886E+02  3.19689E+03 -1.97634E+03  2.26242E+03 -3.70219E+03  2.59414E+03
 -3.53527E+03 -1.20135E+03 -1.41194E+03 -2.76291E+03  7.50976E+02 -3.79767E+03  3.02928E+03 -4.27664E+03
  4.83944E+03 -2.46888E+03  6.80590E+03  8.09313E+02  3.36432E+03  3.32670E+03  7.84856E+02  5.86875E+03
 -1.52523E+03  5.07938E+03 -3.36020E+03  2.17405E+03 -1.07366E+03 -1.55107E+03 -1.19807E+03 -5.35789E+02
 -5.35571E+02  9.76059E+02 -4.90472E+02  1.59857E+03 -1.92796E+03  1.77571E+03 -3.97176E+03  4.28918E+02
 -1.96143E+03 -3.56051E+03  1.01580E+03 -3.70625E+03  1.36395E+03 -3.96237E+03  3.62713E+03 -1.07960E+03
  3.54521E+03  2.05396E+03  6.65277E+02  2.40431E+03 -5.27337E+02  2.31081E+03 -1.59981E+03  1.54835E+03
 -3.24396E+03  1.24575E+03 -3.60338E+03 -1.51692E+03  8.89033E+02 -3.46865E+03  2.05282E+03 -2.41860E+03
  1.80159E+03 -1.62746E+03  1.05696E+03  5.32258E+02 -6.52798E+02  1.27889E+03  7.22998E+02  1.29344E+02
  1.66094E+03  6.26260E+01  2.13330E+02  3.50470E+02  2.77066E+02  1.78534E+03  1.27231E+03  1.51163E+03
 -8.27226E+02  1.94224E+03 -2.34977E+03  2.96935E+03 -2.29161E+03 -4.73084E+02 -3.77120E+03  7.00360E+02
 -1.18944E+02 -2.83684E+03 -5.08396E+01 -3.30368E+03  1.91082E+03 -1.87409E+03  1.89051E+03 -4.27820E+02
  8.34603E+02  2.43411E+03  7.87617E+02  2.19579E+03 -9.61708E+02  6.72410E+02 -3.44629E+02  5.84531E+02
 -2.19462E+03 -1.33772E+03  9.91508E+02 -1.91386E+03  9.63588E+02 -4.66530E+02 -1.17445E+01 -6.29677E+02
  3.74197E+02 -1.25641E+02  4.64867E+02 -5.37016E+02 -1.24079E+02  1.00973E+03  1.48493E+03 -2.15518E+02
  2.45428E+02  1.32753E+03  1.78924E+03  3.85568E+02  9.56261E+02  2.19063E+03 -6.02562E+02  3.81542E+03
 -1.51219E+03  9.54103E+02 -1.37056E+03  8.32436E+02 -2.23962E+03  4.98609E+02  2.97587E+02 -1.75763E+02
  9.94101E+01 -7.57974E+02  1.30673E+03 -1.07702E+03 -3.16663E+02  4.95475E+02 -7.04899E+02  1.22966E+03
 -1.54381E+03  8.60253E+02 -1.10426E+03 -9.82023E+02  8.34491E+02 -1.35377E+03 -6.25129E+02 -1.28824E+03
  4.31608E+02 -4.42730E+02  2.23068E+02 -1.80075E+02  7.85953E+02 -6.77083E+02  1.11606E+03  9.23049E+02
 -5.10497E+02 -4.96811E+02 -8.55549E+02  1.07128E+01 -1.67670E+02 -1.10787E+03  9.51380E+02 -4.97532E+02
  1.46068E+03 -6.34670E+02  2.46264E+03  3.10900E+02  9.68005E+02  6.36618E+02  4.13352E+02  1.52281E+03
 -7.08521E+02  6.03878E+02 -1.13382E+03  5.50299E+01 -1.35402E+03 -1.96741E+03  2.88424E+02  1.67339E+02
  1.34986E+03 -9.61756E+02  8.40285E+02  1.37885E+03  6.53661E+02  1.13379E+02  9.53945E+02  4.92022E+02
 -1.40311E+01  2.05160E+02 -1.46553E+03  1.22795E+03  3.85778E+02  6.63041E+02  1.29479E+02  6.18918E+02
 -1.24351E+02  4.90894E+01 -9.21076E+02 -1.03457E+03 -7.38542E+02 -4.28835E+02 -1.57942E+03 -7.17278E+02
 -1.21580E+03 -1.48208E+03  7.28604E+02 -1.30886E+03  6.02247E+02 -1.97064E+03  1.83428E+03 -7.46238E+02
  2.32571E+03  2.00355E+01  1.62475E+03  4.48654E+02 -2.81498E+02  1.89697E+03 -5.48245E+02  1.36455E+03
 -4.95280E+02  1.47259E+03 -6.99931E+01 -1.12486E+02 -5.89627E+02  6.32679E+02 -1.14213E+03  8.28993E+02
 -1.64136E+02 -2.11382E+02 -8.50808E+02 -1.42568E+02  3.62559E+02 -1.02233E+03  1.40932E+02 -8.62188E+02
  4.95439E+02  5.90053E+02 -9.34123E+02  7.32638E+01  1.97648E+03  1.50004E+03 -6.85740E+02  2.54780E+02
 -2.22051E+02  2.14850E+03 -1.52763E+03  1.16936E+03 -1.26346E+03 -2.73104E+02 -9.39083E+02  5.29418E+01
 -1.05646E+03 -2.84601E+02  4.36967E+02 -2.40797E+02  3.16294E+01 -4.56460E+02  8.03771E+02 -3.84556E+02
  2.72252E+02  1.45090E+02 -3.88974E+02 -3.35161E+02 -4.17388E+02  3.56214E+02 -2.24107E+02 -5.16267E+02
  1.20956E+03  2.26541E+02  2.86542E+02 -2.89413E+02 -5.00004E+01  5.72724E+02 -5.26027E+02 -3.54481E+02
  1.89932E+02  1.78756E+02 -2.65575E+02  9.50000E+02  1.30767E+02 -7.31139E+01 -5.61304E+02 -8.66528E+02
 -2.17517E+02 -7.09312E+02  7.31655E+02  4.60850E+02  8.66260E+02 -1.30606E+03  5.25719E+02  6.25561E+02
  1.46206E+03  9.69172E+02 -7.95331E+02  1.47102E+01 -4.96931E+01  7.16176E+02  4.78241E+02  6.05006E+02
 -6.78155E+02  1.89682E+01  6.22207E+02 -7.19352E+02 -6.07749E+02 -9.37917E+02 -6.17959E+02 -7.98650E+02
 -1.08400E+03  6.26017E+02 -4.05090E+02 -1.89978E+03  9.45152E+02 -1.96257E+03  3.55983E+02 -4.29294E+02
  1.05253E+03 -6.58121E+02 -1.06967E+03 -1.12679E+03 -6.50567E+02  2.65172E+02  4.51405E+02  7.55805E+02
