 $NMID ID='MM_0lb_SNR200_19hz_g45_55.RAW', FMTDAT='(8E13.5)'
 TRAMP=1., VOLUME=1. $END
  3.09176E+05  1.12786E+03  3.37813E+05  2.51033E+05  8.47463E+04  3.37504E+05 -1.31853E+05  2.50492E+05
 -1.89360E+05  8.20005E+04 -1.10365E+05 -3.19526E+04  1.69135E+03 -4.96909E+04  5.32301E+04  1.07866E+03
  3.54844E+04  5.21535E+04 -1.69337E+04  7.52972E+04 -6.10813E+04  6.34113E+04 -8.17544E+04  3.12087E+04
 -7.87774E+04 -1.05337E+04 -5.66490E+04 -5.03865E+04 -1.47518E+04 -6.88000E+04  2.67083E+04 -4.49852E+04
  3.88980E+04  4.25108E+03  1.61255E+04  4.73951E+04 -3.31815E+04  4.55665E+04 -6.54010E+04 -5.09766E+02
 -5.21602E+04 -5.53831E+04 -5.64978E+03 -7.37058E+04  3.35586E+04 -5.30485E+04  4.63800E+04 -1.75771E+04
  4.21496E+04  1.20665E+04  3.00466E+04  2.46237E+04  1.54110E+04  2.89000E+04 -4.62825E+03  2.72428E+04
 -2.20745E+04  1.24919E+04 -1.91889E+04 -3.94224E+03  3.04747E+03 -7.54572E+03  2.14466E+04  1.01972E+04
  8.04292E+03  3.31012E+04 -3.08900E+04  3.36425E+04 -5.97044E+04  1.13823E+03 -5.57577E+04 -4.08783E+04
 -1.29193E+04 -6.02104E+04  3.79874E+04 -4.34186E+04  5.47123E+04 -1.40664E+03  3.17420E+04  3.09230E+04
 -6.95484E+03  3.23953E+04 -2.77912E+04  1.25030E+04 -2.77346E+04 -5.86399E+03 -1.27648E+04 -9.92406E+03
 -7.31550E+03 -1.18863E+04 -5.08424E+02 -1.63837E+04  6.77767E+03 -2.27709E+04  1.45341E+04 -1.40576E+04
  1.12999E+04  4.79679E+03 -6.00169E+03  1.29545E+04 -1.95532E+04 -2.26294E+03 -8.70923E+03 -3.02852E+04
  2.06341E+04 -4.08699E+04  4.44773E+04 -1.83180E+04  4.08136E+04  1.76760E+04  1.33829E+04  4.14241E+04
 -1.52198E+04  3.15897E+04 -2.41617E+04  1.51459E+03 -7.99251E+03 -2.72942E+04  2.09165E+04 -3.21273E+04
  3.88600E+04 -7.03158E+03  3.02206E+04  2.31811E+04  1.55339E+04  4.11143E+04 -7.20835E+03  4.46742E+04
 -2.65165E+04  2.84832E+04 -3.66947E+04  9.27439E+03 -3.77144E+04 -1.45742E+04 -2.05101E+04 -3.31460E+04
  7.53587E+03 -3.32879E+04  2.87848E+04 -1.22033E+04  2.64363E+04  9.73886E+03  3.06132E+03  1.75802E+04
 -1.29335E+04  6.20549E+03 -1.00063E+04 -7.17583E+03  5.36001E+03 -9.25554E+03  1.79102E+04  6.57977E+03
  1.32060E+04  2.13230E+04 -6.13885E+03  2.28607E+04 -2.07910E+04  9.26231E+03 -2.50922E+04 -6.68800E+03
 -1.60908E+04 -1.58306E+04 -5.33230E+03 -1.60048E+04  3.74584E+03 -1.43247E+04  1.27762E+04 -1.36442E+04
  1.99098E+04 -1.05038E+04  2.77340E+04  7.79815E+02  2.14044E+04  1.47348E+04  4.97897E+03  3.22649E+04
 -1.58422E+04  2.69744E+04 -2.53567E+04  9.81611E+03 -1.90263E+04 -1.08649E+04 -3.89104E+03 -1.42774E+04
  2.32070E+03 -4.78482E+03 -1.81275E+03  6.15290E+03 -1.20990E+04  5.26057E+03 -1.38826E+04 -4.89985E+03
 -7.86649E+03 -1.48864E+04  4.14908E+03 -1.81691E+04  1.22788E+04 -1.55178E+04  1.30091E+04 -2.24177E+03
  8.66682E+03  1.12480E+04 -1.42375E+03  1.60676E+04 -8.95377E+03  8.47839E+03 -1.44023E+04 -4.23151E+03
 -1.18681E+04 -1.45238E+04 -1.83016E+03 -1.88314E+04  8.64565E+03 -1.55610E+04  1.55451E+04 -7.05177E+03
  1.50398E+04  4.92277E+02  1.05491E+04  4.31210E+03  4.84536E+03 -3.84191E+02  6.98530E+03 -1.79036E+03
  1.35847E+04  2.62558E+03  1.41936E+04  1.20712E+04  8.80898E+03  2.45563E+04 -2.80795E+03  2.54172E+04
 -1.45365E+04  2.02593E+04 -2.37497E+04  9.53785E+03 -2.36656E+04 -2.02794E+03 -2.02284E+04 -1.29116E+04
 -1.02441E+04 -2.01885E+04  6.92887E+03 -1.84451E+04  1.61345E+04 -9.73781E+03  1.53757E+04  3.81160E+03
  6.78420E+03  1.04462E+04 -7.31172E+03  1.06534E+04 -1.30577E+04  2.33824E+03 -9.71389E+03 -8.20936E+03
  5.61178E+02 -1.19249E+04  5.86881E+03 -1.00027E+04  7.01803E+03 -1.39344E+03  2.09732E+03  4.63434E+03
 -5.20087E+03  1.35542E+03 -3.16025E+03 -3.10320E+03 -2.48734E+02 -9.42613E+03  7.06020E+03 -8.83533E+03
  1.22284E+04 -4.42139E+03  1.18704E+04  2.13615E+03  1.00613E+04  8.89874E+03  5.13381E+03  1.39362E+04
 -1.90447E+03  1.59917E+04 -8.30249E+03  9.13739E+03 -1.12299E+04  3.28130E+03 -7.64147E+03 -1.71260E+03
 -4.02809E+03 -2.37857E+03 -9.39831E+02  7.47818E+02 -1.42847E+03  2.87769E+03 -3.62286E+03  3.78270E+03
 -8.72770E+03 -5.26808E+02 -8.30139E+03 -7.22335E+03 -4.02061E+03 -1.02932E+04  2.78405E+03 -7.32761E+03
  6.33662E+03 -2.87677E+03  5.15641E+03  2.72664E+03  3.13507E+02  2.75444E+03 -3.28539E+03  4.96449E+02
 -3.49081E+03 -4.99493E+03  3.72661E+02 -7.11694E+03  3.62997E+03 -6.81394E+03  9.87200E+03 -3.82185E+03
  1.06834E+04 -5.45406E+02  8.50156E+03  6.14822E+03  1.49318E+03  8.47696E+03 -4.76963E+03  7.62631E+03
 -5.54367E+03  2.33943E+03 -3.20291E+03 -8.00430E+02  8.24936E+02 -2.47479E+03  4.79137E+03 -1.11973E+03
  3.72412E+03  3.41936E+03  6.64373E+02  6.82295E+03 -4.06750E+03  6.35469E+03 -7.63374E+03  1.56943E+03
 -5.56541E+03 -3.24087E+03 -3.05845E+02 -6.60584E+03  3.89080E+03 -3.68248E+03  3.63731E+03 -3.62670E+02
  6.87849E+02  2.86438E+03 -4.40704E+03  4.50671E+03 -4.50066E+03  2.93840E+03 -4.54036E+03 -5.48548E+02
 -1.73868E+03 -6.01445E+03  1.14103E+03 -6.13221E+03  6.11576E+03 -3.31105E+03  5.78689E+03  6.76606E+02
  5.28231E+03  4.29924E+03 -3.13802E+02  7.35573E+03 -4.42665E+03  3.54287E+03 -6.00748E+03 -2.56544E+02
 -5.34777E+03 -4.26969E+03 -2.14358E+03 -4.26392E+03  3.06739E+03 -5.10678E+03  2.51059E+03 -3.29013E+03
  2.56748E+03  2.57987E+02 -1.15408E+03  1.15580E+03  1.17719E+03 -1.28415E+02 -2.26988E+01 -1.47980E+03
  3.95137E+03 -1.23748E+02  5.87158E+03  5.11448E+02  4.87120E+03  3.74633E+03  4.68331E+03  6.80120E+03
 -9.12404E+02  9.29432E+03 -7.32961E+03  6.25189E+03 -8.36552E+03  1.33815E+03 -7.12996E+03 -3.15343E+03
 -3.85095E+03 -5.48791E+03 -1.04524E+03 -5.75291E+03  1.91554E+03 -1.55190E+03  2.30485E+03 -2.25059E+03
  8.91978E+02 -1.33395E+03  1.36745E+03 -1.88300E+03  2.74575E+03 -1.65046E+03  3.38644E+03  7.95132E+02
  4.00697E+03  1.20162E+03  1.20331E+03  3.13094E+03 -1.99696E+03  2.81798E+03 -4.29630E+03  2.49625E+03
 -4.33294E+03  1.34114E+02 -1.76388E+03 -3.48458E+03  3.16407E+02 -4.86606E+03  3.12440E+03 -5.75783E+03
  5.39369E+03 -4.55083E+03  6.46906E+03 -4.14318E+01  5.05580E+03  3.44528E+03  1.84385E+03  5.90648E+03
 -1.80041E+03  5.22115E+03 -2.15301E+03  1.04530E+03 -1.77771E+03 -1.72967E+03 -8.18002E+02 -1.41754E+03
  1.45244E+02  4.97711E+02 -6.55191E+02  1.78563E+03 -1.13552E+03  1.61948E+03 -4.22863E+03  6.71990E+01
 -1.26940E+03 -3.56336E+03  1.07744E+03 -4.27749E+03  2.89459E+03 -3.09399E+03  3.32779E+03 -9.19071E+02
  4.23712E+03  2.37743E+03  1.66745E+03  2.94612E+03 -9.59984E+02  3.30885E+03 -1.79464E+03  1.75609E+03
 -3.84759E+03  3.51048E+02 -4.18137E+03 -1.90928E+03 -7.13391E+02 -3.68618E+03  5.94704E+02 -2.35739E+03
  2.17990E+03 -1.15614E+03  1.46375E+03  3.53544E+01  7.64543E+02  2.14396E+03  1.40746E+03  3.67424E+02
  4.67488E+02  4.00489E+02  1.82808E+03  5.44353E+02  5.07334E+02  1.88471E+03  7.07540E+02  2.93731E+03
 -7.61924E+02  3.39230E+03 -2.03615E+03  5.26044E+03 -1.87150E+03  1.06294E+03 -4.43008E+03 -1.73111E+02
 -1.13664E+03 -4.91826E+03  2.96881E+02 -4.29785E+03  1.26064E+03 -2.54152E+03  3.70362E+03 -5.65027E+02
  1.60733E+03  7.99191E+02  2.40991E+02  1.34109E+03 -2.05200E+02  2.10740E+03 -1.94239E+01 -8.21954E+01
 -6.59546E+02 -1.36274E+03  6.29651E+02 -1.42957E+03  1.99935E+03 -1.88133E+03  6.60271E+02  2.57110E+02
  2.32333E+02 -8.55574E+02 -2.60769E+02  3.19181E+02 -2.58887E+01 -4.70837E+02  2.37191E+03  6.20636E+01
 -2.68995E+02 -2.91675E+02  2.23207E+03  2.02681E+03 -9.60457E+02  2.10538E+03  2.61585E+02  2.99300E+03
 -8.60718E+02  1.26551E+03 -8.01392E+02  1.67312E+03 -2.23364E+03  4.52378E+02 -1.12987E+02 -9.17309E+02
  8.21296E+02 -1.36365E+03  1.47861E+03 -8.88763E+02  1.03950E+03  1.25279E+03  5.29870E+02  6.03307E+02
 -1.81027E+03  6.23548E+02 -7.29021E+02 -1.23471E+03  5.72898E+02 -2.47886E+03  7.92816E+02 -1.15164E+03
  4.52887E+02 -1.36099E+03  2.06400E+03 -3.83791E+02  1.19116E+03  3.67530E+02 -2.67582E+02  8.32217E+02
 -6.87850E+02 -5.80183E+01 -1.26588E+03  8.92413E+02  1.44178E+03 -1.84051E+01  1.51554E+03 -1.81269E+02
  1.21874E+03  5.13790E+02  2.22252E+03  8.25782E+02  1.20707E+03  8.28846E+02 -8.44291E+01 -1.22964E+02
 -1.17784E+03  5.27607E+02 -1.72079E+03 -2.40626E+02 -6.26045E+02 -1.47276E+03  1.49693E+02 -5.85261E+02
  1.20974E+03 -1.44492E+02  6.95092E+02 -3.42810E+02 -3.62175E+02  7.33425E+02 -3.21974E+01  9.01179E+02
 -1.17002E+03  1.87128E+03 -9.65190E+02  7.45968E+01  8.86762E+01  9.45670E+02 -8.47454E+02 -6.53774E+02
 -1.45098E+02  4.89161E+02 -8.66088E+02  1.08517E+03 -2.30231E+03  2.81031E+02 -1.93779E+03 -1.68483E+03
 -1.65818E+03 -1.16195E+03  2.38568E+02 -2.31396E+03  1.54284E+03 -2.68025E+03  2.60943E+03 -1.19372E+03
  2.82698E+03 -1.13799E+03  9.25833E+02  1.45702E+03 -3.62967E+02  1.16029E+03 -8.12573E+02  1.10410E+03
 -1.13825E+03  7.44559E+02 -5.80130E+02 -5.03943E+02 -2.89403E+02  8.93174E+02 -3.42814E+01  1.31534E+02
 -1.43423E+03 -7.08072E+02  3.98803E+02  7.04170E+02  9.40972E+02 -2.92951E+02 -5.67152E+02 -2.83444E+02
  1.33549E+03 -3.90196E+02 -8.87638E+01 -7.10592E+02  2.04752E+03  1.56748E+03 -1.35633E+03  8.62655E+02
 -1.06179E+03  2.39550E+03 -1.09500E+03  1.30344E+03 -2.18798E+03  2.12398E+02 -1.43521E+03 -1.88555E+03
 -1.59239E+02 -1.11168E+03  3.61910E+02 -1.39528E+03  4.65482E+02  2.72710E+02  1.81350E+02  1.14981E+03
  9.81392E+02  3.74361E+02  3.68536E+02  5.22037E+02  2.41731E+02 -2.95389E+02 -1.72125E+02 -4.15386E+02
  4.90423E+02 -2.06570E+02  2.91729E+02  1.21765E+03  8.39335E+02  9.36918E+02  3.69156E+02 -3.15446E+02
  4.00902E+02  1.11621E+02 -7.68861E+02 -3.69778E+02 -1.33427E+03 -1.07945E+03 -8.81683E+00 -6.91664E+02
  5.21580E+02  3.65574E+02 -2.48343E+02  2.26689E+02  3.77260E+02 -1.55911E+02  2.34802E+02  1.06802E+03
  1.85952E+02  1.14753E+03 -7.47242E+02  3.67774E+02 -6.69483E+02  2.13799E+02 -1.00544E+03  3.95366E+02
 -1.67015E+03 -5.57416E+02 -8.06122E+02  7.22911E+02 -1.17353E+03  5.56594E+02 -5.13756E+02 -5.79919E+02
 -7.79011E+02  1.17281E+02  7.52952E+02 -2.41001E+02 -3.29203E+02 -1.11333E+03  4.29078E+01  1.71301E+02
  4.78631E+02  7.63160E+02  2.38940E+02  6.82542E+02 -8.44254E+02  9.96511E+02  1.57033E+02  6.40259E+02
