 $NMID ID='MM_0lb_SNR200_14hz_g40_16.RAW', FMTDAT='(8E13.5)'
 TRAMP=1., VOLUME=1. $END
  3.10623E+05 -5.76526E+02  3.36609E+05  2.51519E+05  8.49282E+04  3.38009E+05 -1.31893E+05  2.50411E+05
 -1.89725E+05  8.28603E+04 -1.11572E+05 -3.36496E+04  2.21385E+03 -5.15099E+04  5.29423E+04 -1.68722E+02
  3.59244E+04  5.18209E+04 -1.63122E+04  7.48661E+04 -5.99236E+04  6.38474E+04 -8.38253E+04  3.07018E+04
 -8.11053E+04 -1.15504E+04 -5.70639E+04 -5.05009E+04 -1.53469E+04 -6.96617E+04  2.66732E+04 -4.58094E+04
  4.11654E+04  3.66859E+03  1.72898E+04  4.78458E+04 -3.57513E+04  4.66179E+04 -6.63697E+04 -1.02464E+03
 -5.33083E+04 -5.75172E+04 -7.23897E+03 -7.55570E+04  3.26551E+04 -5.42903E+04  4.72473E+04 -1.76346E+04
  4.35105E+04  1.29630E+04  3.19061E+04  2.46470E+04  1.55368E+04  2.83690E+04 -5.34719E+03  2.65979E+04
 -2.26264E+04  1.24026E+04 -1.77104E+04 -4.02486E+03  6.16014E+03 -7.09127E+03  2.14583E+04  1.28222E+04
  7.02117E+03  3.45154E+04 -3.08221E+04  3.54562E+04 -6.25822E+04  2.82828E+03 -5.75816E+04 -4.29560E+04
 -1.24541E+04 -6.27896E+04  4.05113E+04 -4.46921E+04  5.77078E+04 -2.32945E+03  3.36562E+04  3.13912E+04
 -6.52033E+03  3.46813E+04 -3.00253E+04  1.43582E+04 -3.00457E+04 -4.28564E+03 -1.54589E+04 -1.01453E+04
 -7.47096E+03 -1.22833E+04 -1.54624E+03 -1.83120E+04  7.55491E+03 -2.40001E+04  1.45359E+04 -1.42602E+04
  1.17404E+04  4.90139E+03 -6.25438E+03  1.28610E+04 -2.08504E+04 -4.56445E+03 -6.66828E+03 -3.23981E+04
  2.14042E+04 -4.29253E+04  4.68174E+04 -2.08073E+04  4.30334E+04  2.05990E+04  1.55194E+04  4.39881E+04
 -1.56775E+04  3.20908E+04 -2.53742E+04  2.16586E+03 -9.74864E+03 -2.69214E+04  2.05630E+04 -3.29289E+04
  4.08552E+04 -9.03450E+03  3.47872E+04  2.36902E+04  1.76797E+04  4.54322E+04 -8.26023E+03  4.75967E+04
 -3.19598E+04  3.12207E+04 -3.97932E+04  9.18994E+03 -4.10146E+04 -1.60109E+04 -2.42333E+04 -3.67469E+04
  7.21379E+03 -3.69009E+04  3.21089E+04 -1.40370E+04  2.80020E+04  1.11568E+04  2.59616E+03  1.85954E+04
 -1.30384E+04  7.57930E+03 -1.10000E+04 -5.93656E+03  6.16075E+03 -1.04622E+04  1.79379E+04  5.72631E+03
  1.38101E+04  2.20903E+04 -5.55498E+03  2.42765E+04 -2.44170E+04  1.19842E+04 -2.59736E+04 -5.53997E+03
 -2.04372E+04 -1.77807E+04 -7.12312E+03 -1.82406E+04  5.22115E+03 -1.80219E+04  1.50459E+04 -1.67228E+04
  2.48369E+04 -1.23342E+04  3.19663E+04  3.66019E+03  2.35779E+04  2.05037E+04  4.08453E+03  3.43761E+04
 -1.68027E+04  2.95559E+04 -2.72926E+04  1.00286E+04 -2.06361E+04 -1.04571E+04 -4.06274E+03 -1.37608E+04
  2.53286E+03 -3.07683E+03 -3.33412E+03  6.35477E+03 -1.44688E+04  5.37549E+03 -1.58310E+04 -7.44185E+03
 -1.02283E+04 -1.86313E+04  5.27477E+03 -2.28515E+04  1.50139E+04 -1.52737E+04  1.83558E+04 -2.14928E+03
  1.04617E+04  1.12526E+04 -1.04661E+03  1.68812E+04 -1.15439E+04  9.54707E+03 -1.88286E+04 -3.81921E+03
 -1.35748E+04 -1.62979E+04 -2.25725E+03 -2.13040E+04  8.65904E+03 -1.81547E+04  1.87209E+04 -9.87156E+03
  1.76636E+04  8.49876E+02  1.27675E+04  3.45823E+03  7.16466E+03  1.05101E+03  9.00416E+03 -1.46247E+03
  1.73284E+04  2.84542E+03  1.82886E+04  1.51892E+04  1.16032E+04  2.85533E+04 -3.44777E+03  3.24256E+04
 -1.92495E+04  2.55853E+04 -3.04839E+04  1.16323E+04 -3.24323E+04 -2.18923E+03 -2.55512E+04 -1.84463E+04
 -1.08359E+04 -2.61248E+04  8.11927E+03 -2.26809E+04  2.03829E+04 -1.23364E+04  1.86754E+04  4.01829E+03
  7.01135E+03  1.41570E+04 -7.82544E+03  1.17026E+04 -1.60939E+04  2.89946E+03 -1.22946E+04 -9.43012E+03
  8.37335E+02 -1.48710E+04  8.49854E+03 -1.08308E+04  9.65143E+03 -2.57284E+03  1.71121E+03  5.64299E+03
 -7.01105E+03  2.17414E+03 -6.18244E+03 -6.06551E+03 -9.82046E+02 -1.29514E+04  9.07526E+03 -1.34420E+04
  1.49907E+04 -7.04091E+03  1.71977E+04  1.58039E+03  1.42458E+04  1.20918E+04  6.63137E+03  2.01499E+04
 -3.58681E+03  2.07525E+04 -1.37720E+04  1.36667E+04 -1.53462E+04  3.63744E+03 -1.10679E+04 -4.07941E+03
 -6.08842E+03 -4.67014E+03 -7.34838E+02  8.19505E+02 -2.28286E+03  1.76881E+03 -5.35910E+03  3.75268E+03
 -1.13067E+04 -3.15413E+02 -1.18499E+04 -8.24880E+03 -4.58900E+03 -1.44269E+04  3.96184E+03 -1.07976E+04
  9.34357E+03 -4.38025E+03  5.74094E+03  2.95741E+03 -5.43833E+02  4.12385E+03 -5.91966E+03 -2.38322E+02
 -4.53750E+03 -7.39758E+03 -1.22912E+03 -8.73768E+03  5.54775E+03 -1.03372E+04  1.38917E+04 -6.12532E+03
  1.41199E+04  1.22539E+03  1.03649E+04  7.64462E+03  2.19658E+03  1.12961E+04 -6.46835E+03  1.09245E+04
 -1.05854E+04  3.10571E+03 -3.92355E+03 -1.54638E+03  3.04788E+03 -3.23358E+03  6.55459E+03 -1.72224E+02
  5.13619E+03  4.82530E+03  8.65376E+02  7.43269E+03 -5.22277E+03  8.03715E+03 -9.48004E+03  2.18122E+03
 -7.57610E+03 -4.69747E+03 -7.96150E+02 -9.70575E+03  5.97200E+03 -4.20347E+03  6.18936E+03  2.25988E+03
  1.31536E+03  5.59055E+03 -6.19690E+03  7.23742E+03 -8.52269E+03  3.91570E+03 -8.52925E+03 -2.30342E+03
 -4.84201E+03 -1.04771E+04  1.45289E+03 -1.06672E+04  9.20840E+03 -6.92457E+03  9.37427E+03  1.32322E+03
  8.00407E+03  8.06313E+03 -2.23025E+03  1.01235E+04 -7.19825E+03  5.96878E+03 -8.10886E+03  1.93175E+02
 -6.77595E+03 -6.73346E+03 -2.19474E+03 -7.95803E+03  4.18266E+03 -5.48958E+03  4.91728E+03 -2.82599E+03
  4.47082E+03  6.86659E+02 -1.26249E+02  1.47463E+03  2.10130E+01  2.05678E+01  1.44478E+03 -2.04760E+03
  6.54257E+03 -3.00964E+03  8.60914E+03  1.24510E+03  8.06393E+03  6.10666E+03  6.84162E+03  1.19780E+04
 -2.11449E+03  1.32198E+04 -1.23316E+04  9.58983E+03 -1.47437E+04  1.55071E+03 -1.07487E+04 -5.05978E+03
 -5.71982E+03 -9.80145E+03 -9.88347E+02 -6.82839E+03  4.34317E+03 -4.43618E+03  3.92247E+03 -3.96339E+03
  2.66755E+03 -8.78497E+02  4.18795E+03 -2.44137E+03  4.44539E+03 -1.56229E+03  5.40820E+03 -3.39495E+02
  7.40950E+03  4.13389E+02  3.18880E+03  6.08170E+03 -2.51029E+03  5.15734E+03 -6.36336E+03  4.90661E+03
 -7.13048E+03 -1.53811E+03 -3.49952E+03 -4.93589E+03 -5.23436E+02 -9.11574E+03  5.59660E+03 -9.31020E+03
  8.07358E+03 -4.61681E+03  1.10164E+04  6.05755E+02  8.72089E+03  7.25655E+03  1.64620E+03  1.06457E+04
 -4.63077E+03  8.45561E+03 -6.34234E+03  2.67234E+03 -3.04101E+03 -9.52919E+02 -1.69776E+03 -1.16387E+03
 -3.44940E+02  1.01590E+03 -9.75243E+02  2.89100E+03 -3.08954E+03  8.54941E+02 -5.92215E+03 -5.16805E+02
 -4.10176E+03 -6.20015E+03  1.11560E+03 -7.07617E+03  4.95779E+03 -6.95016E+03  7.79065E+03 -2.76617E+03
  7.49496E+03  3.00002E+03  2.84732E+03  5.22765E+03 -8.29035E+02  8.01577E+03 -5.62079E+03  5.15694E+03
 -7.69601E+03  3.38859E+02 -5.94636E+03 -5.58570E+03  2.40453E+02 -6.17748E+03  3.07455E+03 -6.14530E+03
  4.75378E+03 -3.86165E+02  4.40701E+03  1.02618E+03  1.02402E+03  3.27972E+03  9.60760E+02  9.30048E+02
  1.43816E+03  9.18622E+02  1.47371E+03  1.62372E+03  2.15711E+03  3.79696E+03  1.93812E+03  5.34691E+03
 -1.24045E+03  6.35594E+03 -4.71867E+03  5.72034E+03 -5.54997E+03  1.91858E+03 -7.13175E+03 -2.66710E+03
 -4.24583E+03 -7.31835E+03  1.32107E+03 -8.09957E+03  3.71657E+03 -6.34035E+03  5.38248E+03 -2.48976E+03
  4.68564E+03  2.83073E+03  1.58965E+03  3.51553E+03 -1.06482E+03  2.57348E+03 -3.13619E+03 -6.18561E+02
 -3.93429E+02 -1.75086E+03  1.92330E+03 -2.82525E+03  1.60638E+03 -8.93964E+02  2.70827E+03  2.21390E+03
  5.14993E+02  1.10959E+03  1.31087E+03 -3.43002E+02  3.79401E+02  9.54136E+02  2.00670E+03  5.59871E+02
  4.46168E+02 -7.92887E+02  2.71284E+03  8.08936E+02  6.06135E+02  4.17941E+03 -7.11380E+02  4.98146E+03
 -2.15101E+03  3.23084E+03 -5.93898E+03  1.47509E+03 -2.96666E+03 -1.22156E+03 -2.15391E+02 -2.92299E+03
  4.98754E+02 -2.49494E+03  5.46864E+02 -1.49488E+03  1.32473E+03  9.77222E+02 -1.53004E+02  3.24033E+03
 -2.79004E+03  1.30528E+03 -3.48143E+03 -2.20857E+03 -1.97947E+03 -3.85537E+03 -1.45745E+02 -4.08557E+03
  2.78647E+03 -2.59337E+02  2.23758E+03  3.94046E+02  2.78836E+03  8.34858E+02 -3.37695E+02  1.52060E+03
 -1.02426E+03  1.68339E+02 -1.76373E+03 -8.33273E+02  1.88075E+02 -2.24730E+03  4.99334E+03 -3.33651E+03
  3.35277E+03 -5.99823E+01  5.06804E+03  2.52594E+03  1.30162E+03  4.81322E+03 -1.83091E+03  3.69522E+03
 -2.29026E+03  1.93637E+03 -3.55831E+03 -7.51011E+02 -1.48850E+03 -2.37509E+03  4.94917E+02 -2.24279E+03
  1.84517E+03 -2.54508E+03  3.01116E+03  1.42541E+03  6.27609E+02  2.18695E+03 -8.11991E+02  1.38001E+03
 -8.65511E+02  1.67205E+03 -1.77753E+03  1.14645E+03 -5.43479E+02 -3.72305E+02 -5.87283E+02  6.63363E+02
 -1.13465E+03  1.49027E+03 -3.29379E+03  1.98745E+03 -3.82322E+03  3.11981E+02 -4.65075E+03 -2.66734E+03
 -1.91444E+03 -6.65830E+03  8.75189E+02 -6.76643E+03  4.61849E+03 -5.26398E+03  5.29024E+03 -1.99965E+03
  5.12275E+03  5.23854E+02  4.11946E+03  4.00361E+03 -3.72855E+02  3.18465E+03 -2.85017E+03  3.33218E+03
 -2.33627E+03  1.54954E+03 -1.11099E+03  4.10966E+01 -6.07043E+02 -6.85728E+02 -1.31559E+03  1.03564E+03
 -6.94713E+02 -1.66243E+01 -1.60602E+03 -9.46492E+01  1.54968E+03 -5.15438E+02 -4.31718E+02 -1.11032E+03
  2.32799E+03 -2.08842E+03  2.82739E+03  4.65841E+02  2.60850E+03  2.15230E+03  5.67690E+02  4.41897E+03
 -1.81032E+03  4.94534E+03 -3.63368E+03  3.09472E+03 -4.93544E+03 -8.61229E+02 -3.16040E+03 -2.58970E+03
 -1.51253E+03 -3.26136E+03  8.65136E+02 -4.22879E+03  2.27149E+03 -4.94453E+02  2.08453E+03  5.24253E+02
  6.69243E+02  2.24446E+02  7.48801E+02  2.20671E+03 -1.30827E+03 -7.26888E+02 -6.28823E+01  1.61585E+02
  1.38410E+03 -2.48843E+02  9.34838E+02  4.05577E+02 -3.74595E+02  3.80816E+02 -2.93527E+02  1.46519E+03
 -1.36419E+03  1.40297E+03 -3.25657E+03 -5.24786E+01 -2.89692E+03 -2.08322E+03  7.44750E+01 -3.60790E+03
  1.55888E+03 -2.59957E+03  2.47724E+03  3.56509E+02  1.27018E+03  1.46667E+02  1.75088E+03  3.48872E+03
 -2.82245E+02  1.88103E+03 -1.34062E+03  2.64939E+03 -1.77774E+03  1.31046E+03 -1.41127E+03  2.26993E+02
  1.24376E+02  8.77508E+01 -1.64363E+03  1.24886E+03 -1.46708E+03  8.11495E+02 -3.32033E+03 -6.24614E+02
 -2.87873E+03 -4.65039E+02 -7.78954E+02 -1.71678E+03  1.18144E+03 -3.82261E+03  1.98717E+03 -5.87620E+02
  2.22323E+03  4.93489E+02  1.43268E+01  2.07038E+03  3.32411E+02  2.87415E+03 -1.20215E+03  4.29514E+02
