 $NMID ID='MM_0lb_SNR200_8hz_g40_48.RAW', FMTDAT='(8E13.5)'
 TRAMP=1., VOLUME=1. $END
  3.09703E+05  1.92886E+03  3.38018E+05  2.50368E+05  8.39924E+04  3.38994E+05 -1.33105E+05  2.53383E+05
 -1.90205E+05  8.27679E+04 -1.13127E+05 -3.07325E+04  2.08756E+02 -5.12082E+04  5.44593E+04 -9.23477E+02
  3.57896E+04  5.13329E+04 -1.55455E+04  7.65654E+04 -6.08518E+04  6.51124E+04 -8.48677E+04  3.39704E+04
 -8.26686E+04 -1.06102E+04 -5.82913E+04 -5.42609E+04 -1.66193E+04 -7.14313E+04  2.71857E+04 -4.56325E+04
  3.96389E+04  4.79155E+03  1.75657E+04  4.87735E+04 -3.62632E+04  4.88710E+04 -6.85736E+04  2.63026E+02
 -5.56749E+04 -5.82493E+04 -6.75596E+03 -7.86601E+04  3.60235E+04 -5.66357E+04  4.96659E+04 -2.01112E+04
  4.51959E+04  1.19272E+04  3.14946E+04  2.71248E+04  1.53016E+04  3.29910E+04 -4.65383E+03  2.83298E+04
 -2.12807E+04  1.09949E+04 -1.83123E+04 -6.82779E+03  7.91698E+03 -5.71105E+03  2.33442E+04  1.45274E+04
  8.42789E+03  3.79121E+04 -3.44140E+04  3.67273E+04 -6.73285E+04  1.59240E+03 -5.94834E+04 -4.52870E+04
 -1.21901E+04 -6.70624E+04  4.09676E+04 -4.90203E+04  6.15986E+04 -2.26220E+03  3.62955E+04  3.61811E+04
 -5.06915E+03  3.85777E+04 -3.03742E+04  1.80828E+04 -3.42370E+04 -3.15256E+03 -2.02473E+04 -1.28228E+04
 -8.88720E+03 -1.53223E+04 -1.23682E+03 -2.01249E+04  9.65952E+03 -2.45410E+04  1.54358E+04 -1.36767E+04
  1.17234E+04  6.88509E+03 -1.19217E+04  1.38053E+04 -2.46956E+04 -7.20891E+03 -8.49490E+03 -3.63522E+04
  2.62754E+04 -4.80209E+04  5.26634E+04 -2.05350E+04  4.89643E+04  1.99040E+04  1.75633E+04  4.78917E+04
 -1.75116E+04  3.72380E+04 -2.70559E+04  3.38345E+03 -1.19234E+04 -2.86939E+04  2.19033E+04 -3.50625E+04
  4.52235E+04 -1.18772E+04  4.28036E+04  2.31145E+04  2.06795E+04  5.14473E+04 -9.24274E+03  5.74858E+04
 -3.50970E+04  3.79697E+04 -4.70153E+04  1.23042E+04 -4.80116E+04 -1.87075E+04 -2.57231E+04 -4.29555E+04
  8.10399E+03 -4.17547E+04  3.32553E+04 -1.64202E+04  3.21966E+04  1.02423E+04  4.42776E+03  1.87054E+04
 -1.35810E+04  1.18757E+04 -1.16962E+04 -7.29025E+03  6.33411E+03 -1.17564E+04  1.88220E+04  5.23640E+03
  1.50732E+04  2.18796E+04 -5.25592E+03  2.71836E+04 -2.36703E+04  1.51627E+04 -3.17795E+04 -1.18432E+03
 -2.65988E+04 -1.82525E+04 -1.12397E+04 -2.48223E+04  2.78639E+03 -2.46332E+04  2.09507E+04 -2.33418E+04
  3.23251E+04 -1.40337E+04  3.72515E+04  4.92619E+03  2.82009E+04  2.53629E+04  5.46230E+03  4.21343E+04
 -2.07795E+04  3.50643E+04 -3.14134E+04  1.19972E+04 -2.07523E+04 -9.61891E+03 -5.93503E+03 -1.38138E+04
  1.64559E+03 -1.49939E+03 -7.14985E+03  8.78775E+03 -1.98600E+04  5.67789E+03 -1.97210E+04 -9.02704E+03
 -1.20660E+04 -2.52206E+04  5.66741E+03 -2.66192E+04  1.96889E+04 -2.07468E+04  2.25312E+04 -1.10532E+03
  1.50522E+04  1.63528E+04 -5.74696E+02  2.45173E+04 -1.64012E+04  1.38411E+04 -2.27920E+04 -4.47154E+03
 -1.73852E+04 -2.02168E+04 -9.13393E+02 -2.75110E+04  1.28025E+04 -2.41637E+04  2.36550E+04 -1.16972E+04
  2.21557E+04 -5.43870E+02  1.64304E+04  3.61421E+03  9.08061E+03  8.89151E+02  1.25855E+04 -5.43586E+02
  2.24758E+04  2.40689E+03  2.48439E+04  1.73975E+04  1.79285E+04  3.77390E+04 -3.23776E+03  4.52071E+04
 -2.45237E+04  3.78507E+04 -4.21566E+04  1.76248E+04 -4.67988E+04 -3.08701E+03 -3.48741E+04 -2.71277E+04
 -1.43816E+04 -3.73275E+04  1.47371E+04 -3.26755E+04  2.78649E+04 -1.59055E+04  2.41680E+04  7.09656E+03
  8.61838E+03  1.81534E+04 -1.19353E+04  1.62627E+04 -1.88249E+04  2.37433E+03 -1.55011E+04 -1.24131E+04
 -4.65682E+02 -1.92770E+04  1.04669E+04 -1.51548E+04  1.19503E+04 -2.26933E+03  3.27572E+03  8.90246E+03
 -7.92148E+03  4.60695E+03 -7.92850E+03 -7.21696E+03 -2.11090E+03 -1.94220E+04  1.20469E+04 -1.99859E+04
  2.30045E+04 -1.13426E+04  2.67811E+04  4.00603E+03  2.50025E+04  1.81604E+04  1.12549E+04  3.26572E+04
 -6.14742E+03  3.11592E+04 -1.96417E+04  1.83232E+04 -2.20377E+04  5.12454E+03 -1.51477E+04 -6.99517E+03
 -4.62604E+03 -8.29086E+03 -6.92546E+02  1.05732E+03 -2.63822E+03  4.68157E+03 -7.14615E+03  4.41810E+03
 -1.35852E+04 -2.60939E-01 -1.57229E+04 -1.15068E+04 -6.36118E+03 -2.15185E+04  6.03601E+03 -1.73725E+04
  1.33609E+04 -8.05536E+03  1.00623E+04  4.25882E+03  4.65488E+01  7.11333E+03 -9.40090E+03 -3.59478E+02
 -7.34368E+03 -1.13057E+04  1.83462E+02 -1.57011E+04  9.22300E+03 -1.86342E+04  2.05816E+04 -9.60149E+03
  2.39815E+04  1.52249E+03  1.63453E+04  1.42212E+04  4.43992E+03  2.05072E+04 -8.20811E+03  1.67872E+04
 -1.25708E+04  3.78967E+03 -5.58097E+03 -5.12725E+03  3.07801E+03 -5.48591E+03  8.89137E+03 -1.93315E+03
  7.52767E+03  8.12221E+03  2.43746E+03  1.35894E+04 -8.09847E+03  1.19841E+04 -1.53379E+04  2.48701E+03
 -1.02209E+04 -6.92610E+03 -4.08375E+02 -1.50243E+04  7.94785E+03 -5.98429E+03  1.02187E+04  2.60306E+03
  1.80656E+03  9.92191E+03 -8.60670E+03  1.29321E+04 -1.45247E+04  3.36649E+03 -1.51429E+04 -6.27397E+03
 -9.19216E+03 -1.66249E+04  3.21386E+03 -1.92814E+04  1.52597E+04 -1.05918E+04  1.69032E+04  3.38436E+03
  9.14923E+03  1.29476E+04 -2.32159E+03  1.72214E+04 -1.14479E+04  9.34891E+03 -1.09894E+04 -6.83732E+01
 -9.82991E+03 -1.17131E+04 -2.33614E+03 -1.24520E+04  9.05793E+03 -1.04267E+04  9.25281E+03 -3.40485E+03
  4.87511E+03  1.50604E+03 -2.56383E+03  4.08324E+03 -3.45783E+02 -4.04639E+03  3.93440E+03 -6.31694E+03
  1.08238E+04 -5.59540E+03  1.75536E+04  1.21414E+03  1.54729E+04  1.07129E+04  1.05783E+04  2.21299E+04
 -4.27660E+03  2.58897E+04 -2.05308E+04  1.74580E+04 -2.65166E+04  3.44445E+03 -1.99860E+04 -9.58228E+03
 -8.92922E+03 -1.61004E+04  7.73652E+02 -1.66558E+04  4.55586E+03 -8.20343E+03  4.26986E+03 -4.63104E+03
  2.67940E+03 -4.28595E+03  4.91096E+03 -3.50295E+03  6.37290E+03 -6.11411E+03  7.87775E+03 -1.53750E+03
  1.09925E+04  1.59384E+03  8.60587E+03  1.02854E+04 -2.14397E+03  1.29699E+04 -1.26693E+04  8.50656E+03
 -1.58265E+04 -2.10977E+03 -9.49696E+03 -1.04369E+04 -3.85655E+03 -1.59663E+04  8.04619E+03 -1.59565E+04
  1.89259E+04 -8.43683E+03  2.00435E+04  3.71937E+03  1.38023E+04  1.32387E+04  2.37841E+03  1.77827E+04
 -7.68959E+03  1.51710E+04 -9.58156E+03  5.32582E+03 -7.73504E+03 -2.53824E+03 -2.58143E+03 -3.78447E+03
 -2.34435E+03 -4.68234E+02 -3.03247E+03  2.83576E+03 -4.16309E+03  1.03509E+03 -1.04640E+04 -1.78503E+02
 -8.59187E+03 -1.04254E+04 -9.79325E+02 -1.42695E+04  1.03781E+04 -1.43940E+04  1.71405E+04 -3.57373E+03
  1.66805E+04  5.66613E+03  6.52103E+03  1.39893E+04 -2.62395E+03  1.71233E+04 -1.17307E+04  9.23105E+03
 -1.50852E+04 -6.74000E+02 -1.21721E+04 -1.04555E+04 -2.34152E+03 -1.40249E+04  5.25320E+03 -1.08115E+04
  8.77166E+03 -3.93282E+03  6.92589E+03  2.85551E+03  3.22829E+02  4.70951E+03  2.80965E+03  2.33992E+03
  2.70887E+03  9.12423E+02  4.64891E+03  1.18931E+03  3.95405E+03  4.98923E+03  4.65364E+03  8.34746E+03
 -3.34164E+03  1.31616E+04 -1.04921E+04  1.13515E+04 -1.87594E+04  1.89382E+03 -1.63620E+04 -6.79039E+03
 -9.38707E+03 -1.63511E+04  2.09809E+03 -1.81108E+04  9.38663E+03 -1.11181E+04  1.25060E+04 -4.39076E+03
  1.08832E+04  5.39479E+03  2.89934E+03  1.02663E+04 -5.18927E+03  7.19749E+03 -7.28798E+03 -1.32377E+03
 -4.56164E+03 -4.66967E+03  4.03499E+03 -7.50823E+03  7.66512E+03 -4.09694E+03  6.47913E+03  2.70967E+03
  4.37922E+03  3.12960E+03  1.14431E+03  2.98701E+03 -6.55832E+02  2.06172E+03  1.63414E+03  6.03570E+02
  3.42680E+03  1.65096E+03  6.15315E+03  2.51294E+03  6.09740E+03  1.03416E+04 -2.10830E+03  1.13165E+04
 -9.39132E+03  7.90714E+03 -1.19627E+04  1.58980E+03 -8.78649E+03 -3.61126E+03 -4.47555E+03 -6.39710E+03
  1.85125E+03 -6.95895E+03  5.25722E+03 -2.57887E+03  2.87570E+03  4.02991E+03 -2.02241E+03  5.56967E+03
 -8.99099E+03  3.49563E+03 -8.77695E+03 -3.14389E+03 -3.37979E+03 -8.84204E+03  2.15171E+03 -9.25721E+03
  6.38123E+03 -6.98403E+03  7.03461E+03  2.49523E+02  4.99327E+03  2.42994E+03  1.32319E+03  4.89955E+03
 -1.01368E+03  8.76061E+02 -4.77813E+03 -5.11594E+03  1.80321E+03 -7.10112E+03  8.45470E+03 -5.58535E+03
  1.04066E+04  8.62541E+02  1.04102E+04  8.93638E+03  4.44771E+03  9.41075E+03 -3.97937E+03  1.18713E+04
 -8.91555E+03  4.12227E+03 -8.17678E+03 -1.16921E+03 -5.69345E+03 -7.23817E+03  2.12424E+03 -8.08864E+03
  7.52437E+03 -3.80062E+03  6.14641E+03  2.10409E+03  1.26306E+03  6.87177E+03 -4.05580E+02  4.17279E+03
 -2.92151E+03  4.53139E+03 -3.25750E+03  1.15377E+03 -2.26875E+02  7.04486E+02 -1.62506E+03  4.07995E+03
 -2.00666E+03  3.91770E+03 -5.61878E+03  1.09803E+03 -1.08365E+04 -9.99564E+02 -1.15654E+04 -7.66137E+03
 -4.60411E+03 -1.46462E+04  2.69989E+03 -1.76757E+04  1.03368E+04 -1.29686E+04  1.49365E+04 -3.27090E+03
  1.46223E+04  2.26348E+03  9.51851E+03  1.05141E+04  2.61728E+02  1.19020E+04 -4.27031E+03  7.59341E+03
 -6.81820E+03  4.22567E+03 -3.20309E+03 -7.15563E+02 -1.05692E+03 -1.77424E+03  2.09701E+02 -1.12016E+02
 -2.71660E+03  1.08451E+02 -3.12466E+03 -9.29807E+01 -1.51741E+03 -1.56071E+03 -9.30980E+02 -4.59371E+03
  5.70131E+03 -5.00558E+03  5.58953E+03 -5.82822E+00  8.11619E+03  5.64646E+03  1.78787E+03  1.33222E+04
 -5.89398E+03  1.37947E+04 -1.21531E+04  7.93981E+03 -1.23658E+04 -1.01064E+03 -1.06198E+04 -9.45948E+03
 -4.51077E+03 -1.04148E+04  2.00624E+03 -1.22110E+04  8.01147E+03 -4.81075E+03  8.38712E+03 -4.57294E+02
  4.77823E+03  3.49433E+03 -1.46924E+03  2.52440E+03 -7.75093E+02  1.29678E+03 -9.18829E+02 -1.99591E+03
  3.85715E+03 -8.43621E+02  4.97684E+03  7.95945E+02  3.74169E+03  5.42954E+03 -4.20328E+02  6.13083E+03
 -6.22280E+03  5.38259E+03 -8.64659E+03  1.00925E+03 -5.74590E+03 -4.96020E+03 -1.23090E+03 -9.12070E+03
  7.19316E+03 -7.96751E+03  1.02242E+04 -1.37300E+03  9.86673E+03  2.08946E+03  4.84124E+03  7.25324E+03
  1.92574E+01  8.20621E+03 -4.16120E+03  4.81839E+03 -4.57349E+03  5.59312E+03 -4.98901E+03 -6.00872E+01
 -3.59726E+03 -1.42136E+03 -1.69962E+03  8.27557E+02 -3.83041E+03 -6.99384E+02 -6.15209E+03 -1.30331E+03
 -5.96113E+03 -4.50128E+03 -3.91746E+03 -8.94920E+03  5.41124E+03 -8.17175E+03  7.21688E+03 -3.25876E+03
  8.46953E+03  1.69028E+03  4.44237E+03  4.60509E+03  1.00636E+03  9.12485E+03 -7.51121E+03  6.07584E+03
