 $NMID ID='MM_0lb_SNR200_20hz_g45_44.RAW', FMTDAT='(8E13.5)'
 TRAMP=1., VOLUME=1. $END
  3.09859E+05  8.27704E+02  3.36968E+05  2.50865E+05  8.43708E+04  3.37027E+05 -1.32168E+05  2.50458E+05
 -1.89606E+05  8.24703E+04 -1.10126E+05 -3.25608E+04  1.38090E+03 -5.01368E+04  5.39687E+04  6.20626E+01
  3.50780E+04  5.26467E+04 -1.65157E+04  7.42919E+04 -6.03698E+04  6.19241E+04 -8.19964E+04  3.13609E+04
 -7.88124E+04 -1.07337E+04 -5.57141E+04 -5.01709E+04 -1.47461E+04 -6.85560E+04  2.67770E+04 -4.30918E+04
  3.88658E+04  4.14811E+03  1.63218E+04  4.64416E+04 -3.32309E+04  4.56177E+04 -6.37920E+04 -9.76278E+02
 -5.10173E+04 -5.48680E+04 -5.75662E+03 -7.46164E+04  3.26368E+04 -5.20721E+04  4.60643E+04 -1.57710E+04
  4.07791E+04  1.16219E+04  3.02528E+04  2.38329E+04  1.55900E+04  2.70662E+04 -4.13419E+03  2.68833E+04
 -2.14883E+04  1.39068E+04 -1.87333E+04 -3.86520E+03  3.71002E+03 -7.84583E+03  2.13065E+04  9.62732E+03
  6.86571E+03  3.29606E+04 -2.94869E+04  3.32291E+04 -5.99899E+04  2.27271E+03 -5.44939E+04 -4.05819E+04
 -1.37823E+04 -5.89485E+04  3.69583E+04 -4.22620E+04  5.53725E+04 -2.24859E+03  3.13420E+04  2.97647E+04
 -6.39825E+03  3.17035E+04 -2.72290E+04  1.29536E+04 -2.62347E+04 -5.13274E+03 -1.36932E+04 -9.78767E+03
 -6.76143E+03 -1.02272E+04 -5.10409E+02 -1.66970E+04  6.55769E+03 -2.24437E+04  1.46110E+04 -1.36590E+04
  1.33029E+04  5.10722E+03 -6.33355E+03  1.18331E+04 -1.85660E+04 -2.08587E+03 -7.95181E+03 -2.97851E+04
  1.99042E+04 -3.88573E+04  4.21959E+04 -1.88310E+04  4.05263E+04  1.79532E+04  1.36234E+04  4.03072E+04
 -1.55613E+04  3.05572E+04 -2.35381E+04  1.69984E+03 -7.31796E+03 -2.66611E+04  2.10727E+04 -3.14343E+04
  3.70782E+04 -6.29108E+03  3.02975E+04  2.20136E+04  1.41716E+04  4.08863E+04 -6.79489E+03  4.33808E+04
 -2.75330E+04  2.78510E+04 -3.56803E+04  8.31936E+03 -3.84467E+04 -1.42032E+04 -2.04936E+04 -3.36809E+04
  5.95712E+03 -3.29829E+04  2.80325E+04 -1.26444E+04  2.63025E+04  1.06843E+04  2.18298E+03  1.78397E+04
 -1.25407E+04  7.43201E+03 -9.54249E+03 -7.50532E+03  5.47674E+03 -8.81122E+03  1.71620E+04  7.06833E+03
  1.16109E+04  2.26587E+04 -7.16646E+03  2.27271E+04 -2.14529E+04  8.60292E+03 -2.38957E+04 -6.16358E+03
 -1.44874E+04 -1.63715E+04 -5.39013E+03 -1.53521E+04  2.61048E+03 -1.35609E+04  1.26347E+04 -1.42338E+04
  1.98172E+04 -1.13183E+04  2.69692E+04  7.32551E+02  2.04563E+04  1.56562E+04  4.16367E+03  3.12714E+04
 -1.56186E+04  2.70179E+04 -2.56201E+04  9.41878E+03 -1.92997E+04 -9.91934E+03 -3.67789E+03 -1.39489E+04
  2.09004E+03 -4.48390E+03 -2.01789E+03  5.43067E+03 -1.18724E+04  5.86091E+03 -1.30136E+04 -4.39023E+03
 -9.30626E+03 -1.53116E+04  5.09872E+03 -1.79581E+04  1.24075E+04 -1.33934E+04  1.36196E+04 -1.51748E+03
  7.33051E+03  1.06722E+04 -1.35575E+03  1.48501E+04 -9.28268E+03  8.36684E+03 -1.43533E+04 -3.00361E+03
 -1.00803E+04 -1.37247E+04 -1.52562E+03 -1.69803E+04  8.91686E+03 -1.38742E+04  1.53071E+04 -6.64594E+03
  1.38661E+04  7.55098E+02  9.85798E+03  3.97062E+03  4.22113E+03  4.03950E+02  7.47911E+03 -2.90897E+02
  1.33331E+04  2.27192E+03  1.29895E+04  1.20531E+04  7.05720E+03  2.32592E+04 -2.89969E+03  2.48580E+04
 -1.49530E+04  1.70730E+04 -2.21188E+04  8.19940E+03 -2.24950E+04 -1.26129E+03 -1.97233E+04 -1.25580E+04
 -8.79420E+03 -1.84150E+04  5.99438E+03 -1.74568E+04  1.49709E+04 -1.05622E+04  1.37348E+04  2.83162E+03
  6.16329E+03  1.09036E+04 -6.41229E+03  9.94798E+03 -1.36228E+04  2.60791E+03 -9.47254E+03 -7.21118E+03
  6.15551E+02 -1.13458E+04  4.23954E+03 -8.80523E+03  6.46857E+03 -5.69158E+02  1.44114E+03  4.79193E+03
 -4.42896E+03  1.61984E+03 -3.28535E+03 -4.39140E+03  1.65467E+03 -9.18700E+03  7.55031E+03 -8.38172E+03
  1.07430E+04 -4.48935E+03  1.12776E+04  2.87456E+03  8.03658E+03  9.13317E+03  4.73181E+03  1.24543E+04
 -1.62791E+03  1.35267E+04 -8.40013E+03  9.52578E+03 -9.33266E+03  2.98240E+03 -7.23336E+03 -1.62341E+03
 -3.55810E+03 -3.23605E+03 -8.34603E+02  1.50403E+03 -1.50039E+03  2.20210E+03 -3.02317E+03  3.43321E+03
 -6.53728E+03 -1.04978E+03 -7.71872E+03 -7.01470E+03 -2.48273E+03 -1.04253E+04  2.80032E+03 -8.03307E+03
  7.12566E+03 -3.21228E+03  4.54790E+03  2.44467E+03  9.38046E+02  4.10792E+03 -3.57908E+03  1.53379E+02
 -2.75231E+03 -4.90172E+03  6.61246E+01 -7.13903E+03  3.35662E+03 -6.28796E+03  8.24573E+03 -2.44097E+03
  1.00034E+04  1.26353E+03  6.51066E+03  4.89423E+03  1.62555E+03  7.78668E+03 -4.46816E+03  7.64864E+03
 -6.56869E+03  2.42664E+03 -2.92866E+03 -2.11443E+03  3.89908E+01 -2.08300E+03  4.23519E+03 -6.67318E+02
  4.42239E+03  2.52615E+03  6.94780E+02  5.92275E+03 -3.87674E+03  5.30620E+03 -7.02128E+03  2.84365E+03
 -2.52551E+03 -3.10133E+03  6.49281E+02 -6.80498E+03  2.93270E+03 -3.26515E+03  2.85304E+03  8.22797E+02
  8.33209E+02  2.08351E+03 -3.89110E+03  3.34333E+03 -3.83907E+03  2.89474E+03 -3.70016E+03 -2.21660E+02
 -6.84158E+02 -5.09956E+03  1.07501E+03 -5.11060E+03  4.21923E+03 -4.27128E+03  6.03856E+03  7.72216E+02
  4.04519E+03  4.59114E+03  2.16979E+02  5.86527E+03 -4.39377E+03  3.96951E+03 -4.15716E+03 -8.30421E+01
 -5.63403E+03 -4.13319E+03 -1.32526E+03 -3.84660E+03  1.98959E+03 -3.38098E+03  1.95464E+03 -2.37457E+03
  1.48003E+03  4.18322E+02  2.49460E+02  7.75994E+02  5.98287E+02  8.91959E+02 -6.98997E+02 -9.35416E+02
  3.67525E+03 -5.41397E+02  4.13115E+03  6.04403E+02  3.87573E+03  2.24704E+03  5.05198E+03  6.03306E+03
 -1.20365E+03  6.76408E+03 -6.49305E+03  5.12676E+03 -8.24670E+03  7.60888E+02 -7.16805E+03 -3.07040E+03
 -3.33411E+03 -5.63207E+03  8.23282E+00 -5.65110E+03  1.77018E+03 -4.52324E+02  1.96751E+03 -1.31578E+03
  1.54223E+02 -1.12592E+03  2.15001E+03 -2.70964E+03  3.76584E+03 -1.81515E+03  2.53677E+03  4.58064E+02
  4.27699E+03  2.07899E+03  1.83168E+03  3.02577E+03 -1.22378E+03  2.32577E+03 -3.85258E+03  2.22653E+03
 -4.58086E+03 -1.19141E+03 -1.32480E+03 -2.89945E+03  2.45780E+02 -3.62582E+03  3.01774E+03 -4.76222E+03
  3.52426E+03 -2.41337E+03  5.08490E+03 -9.11953E+02  3.48484E+03  2.61273E+03  1.00619E+03  6.07782E+03
 -1.72622E+03  4.57345E+03 -3.10090E+03  1.64180E+03 -1.47735E+03 -7.87900E+01 -4.69130E+02  8.80003E+01
  1.48397E+02  9.00166E+02 -4.59681E+02  2.86359E+03 -2.99629E+03  3.41439E+02 -3.33521E+03 -4.19743E+02
 -9.39994E+02 -2.49715E+03  3.18260E+02 -2.67375E+03  1.37910E+03 -3.48554E+03  2.80947E+03 -1.28088E+03
  3.21295E+03  3.04728E+03  9.67238E+02  2.65616E+03 -3.61453E+02  3.41381E+03 -2.15871E+03  3.39592E+03
 -2.25854E+03  1.31147E+03 -1.10846E+03 -3.14544E+03  3.93294E+02 -2.83836E+03  1.98172E+03 -2.01140E+03
  2.01311E+03 -1.39049E+02  4.75240E+02  6.63490E+02 -1.93749E+01  2.04215E+03  1.76108E+03  1.18824E+02
  1.36609E+03  9.10983E+02  9.34339E+02  1.11653E+03 -3.17614E+01  1.81532E+03 -1.82365E+02  1.63869E+03
 -8.68463E+02  2.61309E+03 -2.39470E+03  2.74374E+03 -2.66444E+03  1.61008E+03 -4.26389E+03 -1.82950E+02
 -3.89066E+02 -2.69929E+03  6.34113E+02 -4.23247E+03  9.87838E+02 -9.60084E+02  1.96224E+03 -1.13978E+03
  2.31180E+03  9.99062E+02  2.79734E+02  1.61503E+03 -1.89939E+03  6.96395E+02 -2.01388E+02 -1.10131E+03
 -1.04591E+02 -1.93051E+03  5.13976E+02 -1.24234E+03  8.05556E+02 -2.86569E+02  1.29822E+03 -7.43220E+01
  1.92618E+02 -7.51056E+02  1.14919E+02 -1.36366E+03 -5.44025E+02  2.07687E+03  1.26448E+03 -5.22211E+02
  2.08302E+01 -2.28997E+02  1.01950E+03 -4.90274E+02  3.61566E+02  1.21604E+03 -5.79131E+02  2.44822E+03
 -3.04019E+02  7.78263E+02 -1.82005E+03  9.76197E+02 -2.50989E+03 -7.90272E+02 -2.07955E+02 -1.37476E+03
  4.97717E+02 -2.72580E+02  5.73288E+02 -4.18588E+02  3.78221E+02  1.78513E+03 -6.64113E+02  4.46844E+02
 -1.64773E+03  5.42603E+02 -3.58091E+02 -1.85996E+03  1.30952E+02 -1.63802E+03 -4.23953E+02 -1.73048E+03
  3.98521E+02  5.99632E+01  1.05854E+03 -3.71515E+02  9.14863E+02 -1.51038E+02 -5.31637E+02  8.30814E+02
  2.45582E+02  2.03099E+02 -8.07250E+02 -1.07177E+02  1.34469E+03  1.71289E+02  1.35274E+03  9.18211E+02
 -7.83476E+01 -4.08048E+02  2.66655E+03  8.79549E+02  1.87409E+03  2.02900E+02 -6.72882E+01  1.84259E+02
 -1.38833E+03  1.76922E+02  1.92226E+02 -5.88285E+02  1.27545E+02 -1.21392E+03  6.84783E+01 -1.70374E+02
  9.73264E+02 -7.94494E+02  2.19292E+02  7.50597E+02 -6.65758E+02 -4.81891E+02 -1.38911E+02  1.62005E+03
 -6.34971E+01  1.14342E+03  2.23792E+02  2.50163E+02  8.05387E+02 -1.66391E+02 -1.41757E+03  9.70228E+02
 -3.27027E+02  6.07637E+02 -4.59977E+02  2.52824E+02 -9.33444E+02 -7.51321E+02 -2.44151E+03 -4.39761E+02
 -9.47464E+02 -8.29905E+02  3.60311E+02 -2.51907E+03  1.19295E+03 -2.17427E+03  2.51915E+03 -1.92665E+03
  1.93383E+03  3.34449E+02  4.18275E+02  2.30469E+03 -1.20580E+03  1.39527E+03 -1.19573E+03  1.32812E+03
 -9.16585E+02  9.05625E+02 -4.00862E+02 -8.91149E+01 -8.41614E+02  1.27238E+02 -1.01453E+03 -1.76293E+02
 -4.53319E+02 -6.95569E+02 -1.66958E+03  2.41601E+02 -3.39526E+02 -7.76984E+02  2.22348E+01 -1.34016E+03
  2.01151E+03 -1.37432E+01  3.48116E+01 -5.99838E+02  1.03969E+03  3.87197E+02 -4.01026E+02  1.11804E+03
 -1.26034E+02  2.63425E+03 -1.06212E+03  7.76510E+02 -1.02087E+03  9.06955E+01 -4.43565E+02 -7.43503E+02
 -1.14195E+03 -7.55600E+02 -3.89204E+02 -1.44966E+03 -4.28311E+02 -1.10454E+03 -2.08301E+01  2.24405E+02
 -1.91037E+02  1.23776E+03  7.08165E+02  6.19105E+02 -3.47321E+02  1.16326E+02  4.57937E+02  7.48023E+02
 -4.28816E+01 -7.85408E+02 -6.32564E+01  5.43551E+02 -3.66349E+02  1.18628E+03  7.08860E+02  9.89288E+02
 -4.01535E+01  4.07043E+02  4.04071E+02 -3.26532E+02  3.11589E+01 -6.70527E+02 -4.86135E+02 -7.37927E+01
  6.95867E+02 -3.77929E+02  4.22200E+02  3.72688E+02  1.57795E+02 -6.39777E+02  1.38255E+03  5.61616E+02
  5.36345E+01 -4.87845E+02  3.83396E+02 -4.63867E+02 -2.43209E+02 -7.88865E+02 -2.79921E+02  4.69426E+02
 -7.80785E+02  3.14979E+02 -1.32614E+03  2.26843E+03 -7.23582E+02 -1.04082E+03 -5.59914E+02 -4.87812E+02
 -9.50124E+02 -6.47313E+00 -5.53175E+01 -4.89745E+02  4.12289E+02 -2.06151E+03 -3.75420E+02  6.90655E+02
  9.26795E+02  1.81216E+02 -3.68860E+02 -2.73506E+02 -2.26380E+02  9.45381E+02 -7.23806E+02  6.36646E+02
