 $NMID ID='MM_0lb_SNR200_15hz_g40_70.RAW', FMTDAT='(8E13.5)'
 TRAMP=1., VOLUME=1. $END
  3.10978E+05 -1.64741E+02  3.36179E+05  2.50134E+05  8.39551E+04  3.38231E+05 -1.31525E+05  2.52198E+05
 -1.90012E+05  8.31237E+04 -1.12445E+05 -3.39224E+04  1.49592E+03 -4.90702E+04  5.28499E+04 -1.03635E+02
  3.54571E+04  5.16953E+04 -1.69614E+04  7.47721E+04 -6.03523E+04  6.34864E+04 -8.36861E+04  3.07971E+04
 -8.02393E+04 -1.06087E+04 -5.69402E+04 -4.97390E+04 -1.35318E+04 -6.89822E+04  2.55588E+04 -4.52851E+04
  3.84352E+04  3.36261E+03  1.63610E+04  4.75706E+04 -3.36862E+04  4.65167E+04 -6.54130E+04 -1.24065E+02
 -5.14824E+04 -5.66496E+04 -6.76428E+03 -7.55429E+04  3.32504E+04 -5.52173E+04  4.69064E+04 -1.71288E+04
  4.17763E+04  1.11831E+04  3.09104E+04  2.44910E+04  1.59406E+04  2.97176E+04 -4.82824E+03  2.61007E+04
 -2.07432E+04  1.36300E+04 -1.88117E+04 -4.99828E+03  5.01061E+03 -6.80897E+03  2.07020E+04  1.27402E+04
  7.23714E+03  3.37211E+04 -3.14454E+04  3.38358E+04 -6.25663E+04  2.08042E+03 -5.63941E+04 -4.19850E+04
 -1.28320E+04 -6.21861E+04  3.92053E+04 -4.34279E+04  5.72040E+04 -2.87211E+03  3.35030E+04  3.09311E+04
 -5.90036E+03  3.43594E+04 -2.97069E+04  1.48304E+04 -2.85758E+04 -4.82657E+03 -1.59439E+04 -1.04689E+04
 -7.58839E+03 -1.45932E+04 -1.17253E+03 -1.83802E+04  6.44882E+03 -2.25021E+04  1.56483E+04 -1.32841E+04
  1.11342E+04  3.86400E+03 -7.45911E+03  1.35020E+04 -1.92494E+04 -4.00798E+03 -8.93471E+03 -3.21282E+04
  2.18478E+04 -4.06097E+04  4.64311E+04 -1.81681E+04  4.41501E+04  1.86076E+04  1.47204E+04  4.35878E+04
 -1.55007E+04  3.42894E+04 -2.38147E+04  1.32178E+03 -9.30477E+03 -2.65167E+04  2.03863E+04 -3.18690E+04
  3.94708E+04 -8.92531E+03  3.38463E+04  2.25934E+04  1.70885E+04  4.38705E+04 -7.66125E+03  4.73642E+04
 -3.09007E+04  3.22631E+04 -3.90443E+04  9.46372E+03 -4.17080E+04 -1.61369E+04 -2.22875E+04 -3.68049E+04
  7.62555E+03 -3.56778E+04  3.04626E+04 -1.33527E+04  2.91161E+04  9.95265E+03  3.46201E+03  1.81956E+04
 -1.19890E+04  8.50137E+03 -1.11258E+04 -6.71445E+03  6.09264E+03 -1.08339E+04  1.79556E+04  5.78505E+03
  1.44850E+04  2.11966E+04 -5.70287E+03  2.45565E+04 -2.25661E+04  1.12691E+04 -2.71175E+04 -6.25120E+03
 -1.94296E+04 -1.59773E+04 -6.91031E+03 -1.88062E+04  2.81273E+03 -1.72385E+04  1.36600E+04 -1.65597E+04
  2.33823E+04 -1.25862E+04  2.90989E+04  1.50898E+03  2.30044E+04  1.94256E+04  5.79602E+03  3.52874E+04
 -1.68029E+04  2.87983E+04 -2.77081E+04  9.63281E+03 -2.16267E+04 -1.03824E+04 -3.29772E+03 -1.26032E+04
  3.05607E+03 -3.63533E+03 -3.76978E+03  6.33122E+03 -1.40530E+04  4.53898E+03 -1.47700E+04 -5.85342E+03
 -8.53838E+03 -1.86778E+04  3.64588E+03 -2.23321E+04  1.42592E+04 -1.47099E+04  1.66496E+04 -2.48042E+03
  1.21341E+04  1.23252E+04 -1.11718E+03  1.61590E+04 -1.28919E+04  1.04016E+04 -1.74469E+04 -3.86241E+03
 -1.30279E+04 -1.65715E+04 -1.08320E+03 -2.11267E+04  9.97303E+03 -1.77956E+04  1.64674E+04 -9.48838E+03
  1.54809E+04 -3.46823E+02  1.19740E+04  5.49988E+03  7.21985E+03 -2.83151E+02  7.09384E+03 -1.67826E+03
  1.58564E+04  3.51513E+03  1.73577E+04  1.44503E+04  1.05066E+04  2.78470E+04 -4.32788E+03  3.16782E+04
 -1.80156E+04  2.45952E+04 -2.91082E+04  1.06613E+04 -2.94506E+04 -2.29553E+03 -2.60240E+04 -1.65509E+04
 -1.07245E+04 -2.49495E+04  9.06519E+03 -2.20557E+04  1.93370E+04 -1.18732E+04  1.80551E+04  4.38425E+03
  6.11358E+03  1.33791E+04 -7.82265E+03  1.27643E+04 -1.47086E+04  1.06717E+03 -1.16574E+04 -9.38565E+03
 -2.54111E+02 -1.43992E+04  6.50412E+03 -9.58462E+03  8.23011E+03 -6.99442E+02  1.70246E+03  5.90898E+03
 -5.74446E+03  1.24280E+03 -4.77508E+03 -4.43661E+03  6.80066E+00 -1.24463E+04  9.29307E+03 -1.15976E+04
  1.37169E+04 -6.46586E+03  1.54791E+04  2.17316E+03  1.34893E+04  1.21882E+04  6.61052E+03  1.75171E+04
 -1.69607E+03  1.87844E+04 -1.17639E+04  1.31321E+04 -1.35102E+04  2.38706E+03 -9.68613E+03 -2.83169E+03
 -5.17220E+03 -4.03469E+03 -1.09938E+03  1.19914E+03 -2.33438E+03  1.25025E+03 -4.63671E+03  3.05194E+03
 -9.01509E+03 -7.26667E+02 -9.22810E+03 -8.39570E+03 -3.36237E+03 -1.36033E+04  4.50584E+03 -9.25272E+03
  8.45088E+03 -4.88262E+03  7.15033E+03  2.79041E+03  6.78401E+02  3.94302E+03 -4.31433E+03 -1.68968E+02
 -4.80577E+03 -6.10728E+03 -1.78569E+03 -9.69730E+03  5.84856E+03 -9.95382E+03  1.24348E+04 -4.66698E+03
  1.37237E+04  1.95633E+03  9.73811E+03  8.19543E+03  1.20374E+03  1.02609E+04 -5.41850E+03  9.32606E+03
 -8.67928E+03  3.83524E+03 -4.59223E+03 -2.15881E+03  1.56906E+03 -1.46946E+03  4.42930E+03 -7.61889E+02
  5.78733E+03  3.66344E+03  1.32841E+03  6.36408E+03 -4.69340E+03  7.92711E+03 -9.55281E+03  2.09287E+03
 -7.31054E+03 -5.32527E+03  7.85490E+02 -8.64402E+03  6.03096E+03 -3.26061E+03  5.34433E+03  1.38888E+03
  1.77437E+02  4.99489E+03 -4.78381E+03  5.87910E+03 -6.51858E+03  3.15517E+03 -6.61590E+03 -2.85468E+03
 -3.67106E+03 -7.60581E+03  1.16258E+03 -1.07172E+04  9.20513E+03 -6.03232E+03  7.60371E+03  1.11119E+03
  6.60727E+03  7.19378E+03 -1.08613E+03  9.03818E+03 -7.00442E+03  4.84608E+03 -6.84616E+03 -9.77520E+02
 -5.79788E+03 -5.28829E+03 -2.26478E+03 -6.34338E+03  4.32506E+03 -4.99210E+03  4.57781E+03 -3.45441E+03
  3.41141E+03  5.14300E+02 -5.91299E+02  1.14583E+03 -9.59008E+01 -7.25039E+02  6.56265E+02 -2.40100E+03
  5.16341E+03 -2.08276E+03  7.78982E+03  1.10191E+03  8.11809E+03  4.82059E+03  7.10783E+03  1.04244E+04
 -2.76628E+03  1.22253E+04 -1.00800E+04  8.12106E+03 -1.25680E+04  2.46675E+03 -1.14033E+04 -4.47367E+03
 -5.44875E+03 -9.04482E+03 -2.84698E+01 -7.51316E+03  2.98478E+03 -3.86140E+03  2.12491E+03 -2.91858E+03
  1.14741E+03 -1.36532E+03  3.53589E+03 -2.30190E+03  3.09527E+03 -1.47316E+03  5.02986E+03 -7.00988E+02
  5.48916E+03  1.36382E+03  2.13709E+03  5.31174E+03 -2.49089E+03  4.41164E+03 -6.05361E+03  3.31471E+03
 -6.63779E+03 -1.40548E+03 -3.67490E+03 -4.05354E+03  1.46253E+02 -7.43649E+03  3.64462E+03 -7.14223E+03
  7.60544E+03 -3.33769E+03  9.55207E+03 -5.30725E+02  6.73016E+03  6.31102E+03  1.37759E+03  8.41401E+03
 -3.54635E+03  8.18677E+03 -5.64737E+03  3.17099E+03 -3.61566E+03 -1.53001E+03 -1.65755E+03 -2.97687E+02
 -9.04354E+02  1.25225E+02 -8.30658E+02  1.68544E+03 -3.54797E+03  1.14117E+03 -5.88197E+03 -8.59000E+02
 -2.28747E+03 -5.42172E+03  2.83075E+02 -6.18799E+03  3.62920E+03 -6.29841E+03  6.47311E+03 -8.33755E+02
  5.98773E+03  3.33455E+03  3.18156E+03  5.06826E+03 -2.01817E+03  6.21454E+03 -4.36790E+03  4.11854E+03
 -7.04942E+03  2.19526E+02 -3.86742E+03 -3.55571E+03  7.26577E+02 -5.63779E+03  2.77002E+03 -4.01558E+03
  4.19939E+03 -1.89290E+03  2.48480E+03  5.12106E+02  1.76210E+02  2.34869E+03  2.21267E+03  2.02727E+03
  2.22692E+03  1.26060E+03  1.49875E+03  6.11440E+02  2.18576E+03  2.97790E+03  1.96665E+03  3.26118E+03
 -2.07064E+03  5.27040E+03 -4.62882E+03  6.77172E+03 -5.41484E+03  1.16975E+03 -6.32653E+03 -8.65794E+02
 -1.75486E+03 -5.35835E+03  1.14428E+03 -6.32912E+03  3.05874E+03 -3.55248E+03  3.96573E+03 -2.51817E+03
  3.55459E+03  4.22795E+03  1.90782E+02  4.32011E+03 -2.52176E+03  1.75118E+03 -2.22596E+03 -8.82199E+02
 -2.32022E+03 -1.74078E+03  1.34675E+03 -3.58854E+03  2.62617E+03 -1.22044E+03  2.52807E+03 -5.33384E+02
  1.38634E+03  3.90776E+02  1.50729E+03 -1.05172E+02 -1.51505E+02  1.66594E+03  3.12373E+03 -1.24219E+03
  9.09343E+02 -5.04460E+02  2.04583E+03  1.90223E+03  1.90095E+03  3.10423E+03 -1.21341E+03  5.79187E+03
 -2.64322E+03  2.35162E+03 -2.67668E+03  1.79488E+03 -2.74925E+03 -1.33180E+03 -1.11149E+03 -2.31263E+03
  6.49581E+02 -2.01796E+03  2.12268E+03 -9.73963E+02 -2.15301E+02  2.65072E+03 -1.23742E+03  1.60733E+03
 -1.89042E+03  4.19305E+02 -1.96314E+03 -1.44295E+03 -8.12165E+02 -2.51899E+03 -2.23983E+02 -3.14834E+03
  2.75671E+03 -1.50638E+03  2.01396E+03  1.86436E+03  3.28688E+03  1.12333E+03 -1.29939E+03  7.92319E+02
 -1.32423E+02  7.77350E+02 -7.05420E+02 -9.75463E+01 -1.00186E+02 -2.22240E+03  2.86451E+03 -1.41603E+03
  2.09251E+03 -2.76830E+02  5.03007E+03  1.40750E+03  5.21219E+02  1.67333E+03 -1.66669E+03  3.69495E+03
 -3.02795E+03  9.68621E+02 -3.95625E+03 -1.42164E+03 -1.98429E+03 -1.89272E+03  5.56597E+02 -2.66313E+03
  2.19537E+03 -9.12182E+02  2.91436E+03  1.72977E+03  9.35115E+02  1.82247E+03  2.20599E+02  2.31895E+03
 -1.08018E+03  1.15092E+03  2.03203E+02  5.73881E+02  5.13522E+02  2.24885E+02 -4.04903E+02  1.74202E+03
 -9.37110E+02  1.55761E+03 -1.40334E+03  1.73925E+03 -3.02539E+03  7.89723E+02 -3.19285E+03 -1.49846E+03
 -1.34998E+03 -3.81526E+03  1.77317E+02 -6.52579E+03  2.53771E+03 -5.32462E+03  4.93018E+03 -1.90608E+03
  4.07785E+03  4.44717E+02  2.63403E+03  3.26809E+03 -6.81864E+02  2.95581E+03 -1.31614E+03  2.52180E+03
 -1.32145E+03  2.02514E+03 -9.91704E+02  1.65088E+01  1.11595E+02  6.90610E+02  7.58555E+01 -1.17152E+03
 -1.14631E+03  3.40820E+02 -2.98233E+02 -4.78831E+02 -4.43987E+02 -1.09926E+03  4.84014E+02 -3.17737E+03
  1.31290E+03 -8.47580E+02  4.68562E+02  6.30040E+02  1.77990E+03  2.56758E+03  9.28518E+01  2.34426E+03
 -1.54491E+03  3.42139E+03 -3.27613E+03  2.59077E+03 -3.15321E+03  1.68150E+02 -2.68697E+03 -2.31806E+03
 -1.18587E+03 -1.58996E+03  2.11011E+03 -3.15285E+03  2.13190E+03 -4.47242E+02  2.66323E+03  7.23751E+02
  3.80032E+02  1.60846E+03  3.37259E+02  1.21966E+03 -1.11773E+03 -1.21255E+02  8.16700E+01 -1.25179E+03
  1.43952E+03 -9.66360E+01  1.63918E+03  3.97878E+02  1.55818E+02  1.22274E+03  6.49785E+02  4.81327E+01
 -2.05944E+03  1.21558E+03 -1.33821E+03  4.06851E+02 -1.29514E+03 -1.28935E+03  1.03013E+03 -2.38528E+03
  1.97907E+03 -6.03043E+02  2.52328E+03  2.35902E+02  2.21341E+03 -6.59080E+02  1.00523E+03  2.03177E+03
  9.78579E+02  2.04977E+03 -1.83084E+02  8.39813E+02 -1.70411E+03  8.36235E+02 -1.17684E+03  1.66336E+02
  7.22271E+02 -4.80598E+01 -5.32139E+02  4.06126E+02 -9.32710E+02  5.21795E+02 -8.91382E+02 -2.78714E+02
 -1.80779E+03 -1.04014E+03  5.11537E+01 -1.60981E+03  1.55537E+03 -3.03273E+03  2.27886E+03 -1.31669E+03
  2.45938E+03 -7.64549E+02  1.27297E+03  1.33870E+03  5.30980E+02  9.79104E+02 -1.81041E+03  2.13896E+03
