 $NMID ID='MM_0lb_SNR200_9hz_g55_88.RAW', FMTDAT='(8E13.5)'
 TRAMP=1., VOLUME=1. $END
  3.08799E+05  9.13336E+02  3.36733E+05  2.49791E+05  8.45543E+04  3.40119E+05 -1.34650E+05  2.52635E+05
 -1.91925E+05  8.52912E+04 -1.11813E+05 -3.31467E+04 -5.26708E+02 -5.03773E+04  5.33048E+04 -1.72493E+03
  3.55472E+04  5.16958E+04 -1.79134E+04  7.62104E+04 -5.95137E+04  6.46164E+04 -8.56105E+04  3.25262E+04
 -8.10896E+04 -1.23170E+04 -5.93080E+04 -5.37082E+04 -1.46945E+04 -6.99729E+04  2.80766E+04 -4.69498E+04
  3.97682E+04  4.27692E+03  1.71920E+04  4.84024E+04 -3.48797E+04  4.67828E+04 -6.74445E+04  8.98853E+00
 -5.24518E+04 -5.89888E+04 -6.92697E+03 -8.08425E+04  3.63567E+04 -5.71184E+04  5.00815E+04 -1.79259E+04
  4.45381E+04  9.74258E+03  3.05687E+04  2.51186E+04  1.56442E+04  3.05151E+04 -5.59406E+03  2.81886E+04
 -2.22093E+04  1.20474E+04 -1.76254E+04 -6.83529E+03  8.87704E+03 -7.77226E+03  2.49825E+04  1.23829E+04
  7.61303E+03  3.94054E+04 -3.27322E+04  3.81114E+04 -6.73172E+04  1.31282E+03 -5.88045E+04 -4.50454E+04
 -1.25497E+04 -6.43776E+04  4.29925E+04 -4.76576E+04  6.19961E+04 -2.17583E+03  3.82323E+04  3.37194E+04
 -4.39274E+03  3.95114E+04 -3.14189E+04  1.82207E+04 -3.37780E+04 -2.59431E+03 -1.89755E+04 -1.24943E+04
 -1.04389E+04 -1.44672E+04 -1.93687E+03 -1.84895E+04  7.16659E+03 -2.35980E+04  1.70029E+04 -1.18789E+04
  1.05608E+04  7.27648E+03 -1.00761E+04  1.32113E+04 -2.24194E+04 -5.52532E+03 -8.82102E+03 -3.77950E+04
  2.29525E+04 -4.91704E+04  5.30058E+04 -1.98417E+04  4.95684E+04  1.97175E+04  1.73037E+04  4.92335E+04
 -1.69603E+04  3.43138E+04 -2.81980E+04  4.63985E+03 -1.19489E+04 -3.08531E+04  2.30975E+04 -3.66589E+04
  4.48946E+04 -1.16905E+04  4.09199E+04  2.53612E+04  2.35638E+04  5.06400E+04 -9.14603E+03  5.57987E+04
 -3.47056E+04  3.75309E+04 -4.87079E+04  1.11743E+04 -4.84890E+04 -1.76770E+04 -2.75561E+04 -4.29584E+04
  7.58285E+03 -4.16393E+04  3.47768E+04 -1.56020E+04  3.05989E+04  1.02501E+04  5.35571E+03  2.04993E+04
 -1.36562E+04  9.21241E+03 -1.17074E+04 -7.94793E+03  4.83980E+03 -1.18872E+04  2.04077E+04  4.21305E+03
  1.57234E+04  2.14857E+04 -4.60088E+03  2.65262E+04 -2.35705E+04  1.36741E+04 -3.04087E+04 -1.17323E+03
 -2.50989E+04 -1.86919E+04 -1.22566E+04 -2.60434E+04  5.54785E+03 -2.71727E+04  2.05269E+04 -2.31466E+04
  3.26236E+04 -1.53991E+04  3.95248E+04  4.04639E+03  2.85493E+04  2.55273E+04  4.24499E+03  4.32117E+04
 -1.90554E+04  3.40891E+04 -3.00015E+04  1.34889E+04 -2.28823E+04 -9.69372E+03 -4.30016E+03 -1.31619E+04
  5.33599E+02  1.14634E+03 -1.01132E+04  8.77425E+03 -2.17031E+04  3.21511E+03 -1.96586E+04 -1.06415E+04
 -1.15732E+04 -2.39862E+04  6.73439E+03 -2.90749E+04  1.80733E+04 -2.04693E+04  2.29956E+04 -2.76784E+03
  1.55525E+04  1.75913E+04 -1.82962E+03  2.43248E+04 -1.65844E+04  1.36930E+04 -2.53342E+04 -2.72599E+03
 -1.68247E+04 -2.22180E+04 -2.74303E+03 -2.78203E+04  1.28116E+04 -2.32020E+04  2.42547E+04 -1.17095E+04
  2.36321E+04 -9.47335E+02  1.61681E+04  5.54185E+03  1.07138E+04  1.57405E+03  1.18515E+04 -3.24925E+03
  2.23472E+04  1.87484E+03  2.89179E+04  1.82778E+04  1.69211E+04  3.78501E+04 -7.45145E+02  4.52210E+04
 -2.58082E+04  3.78186E+04 -4.10526E+04  1.93864E+04 -4.57479E+04 -4.92137E+03 -3.67234E+04 -2.78273E+04
 -1.50535E+04 -3.79041E+04  1.29818E+04 -3.33339E+04  2.76827E+04 -1.55306E+04  2.49790E+04  9.03712E+03
  9.23304E+03  2.05115E+04 -1.06858E+04  1.64592E+04 -2.14406E+04  1.72708E+03 -1.57728E+04 -1.36546E+04
  6.91547E+01 -1.96065E+04  1.10788E+04 -1.52072E+04  1.41031E+04 -1.23625E+03  3.21267E+03  9.53584E+03
 -8.15796E+03  6.02939E+03 -8.42863E+03 -6.92644E+03 -1.25512E+03 -1.95069E+04  1.17285E+04 -2.15888E+04
  2.42471E+04 -1.06731E+04  2.55439E+04  1.98981E+03  2.35679E+04  2.03603E+04  1.09595E+04  2.87313E+04
 -4.84715E+03  3.25476E+04 -2.09881E+04  2.04777E+04 -2.34660E+04  4.56579E+03 -1.65665E+04 -4.56058E+03
 -6.65507E+03 -7.99424E+03 -7.48156E+02 -2.34354E+02 -1.60653E+03  2.76729E+03 -7.06778E+03  5.50777E+03
 -1.43100E+04 -6.94910E+02 -1.53585E+04 -1.05921E+04 -6.14111E+03 -2.08211E+04  6.55346E+03 -1.55439E+04
  1.46723E+04 -6.08122E+03  7.62863E+03  4.79235E+03 -3.28400E+02  5.68141E+03 -8.26698E+03 -1.24795E+03
 -6.95783E+03 -1.16175E+04 -1.30824E+03 -1.67058E+04  9.85407E+03 -1.66574E+04  2.27663E+04 -7.74588E+03
  2.30366E+04  5.03659E+03  1.67526E+04  1.39811E+04  3.54990E+03  1.87048E+04 -9.93567E+03  1.66929E+04
 -1.28121E+04  4.52755E+03 -5.44740E+03 -3.62585E+03  2.80117E+03 -3.90213E+03  8.13510E+03 -2.99314E+03
  6.28850E+03  6.15503E+03  1.36084E+03  1.32829E+04 -1.14218E+04  1.22594E+04 -1.49058E+04  3.76369E+03
 -1.11898E+04 -1.02750E+04 -3.66718E+00 -1.34531E+04  1.00429E+04 -7.02078E+03  1.01801E+04  4.02641E+03
  3.37750E+03  1.03113E+04 -8.97943E+03  1.16505E+04 -1.47404E+04  5.13011E+03 -1.41945E+04 -4.96871E+03
 -9.12806E+03 -1.58238E+04  4.34909E+03 -1.77894E+04  1.69691E+04 -1.02521E+04  1.83333E+04  2.40488E+03
  9.36461E+03  1.24807E+04 -3.18756E+03  1.70842E+04 -1.43326E+04  9.00498E+03 -1.45784E+04 -1.58939E+03
 -1.16930E+04 -9.92156E+03 -1.51371E+03 -1.25465E+04  6.02952E+03 -9.09146E+03  7.04847E+03 -3.47020E+03
  5.58519E+03  3.52907E+03 -8.65155E+02  2.86550E+03 -1.86536E+03 -3.16912E+03  3.13850E+03 -8.11980E+03
  1.12914E+04 -4.73626E+03  1.51287E+04  2.90513E+03  1.63094E+04  1.11177E+04  1.11788E+04  2.24675E+04
 -5.88642E+03  2.57577E+04 -2.11002E+04  1.72396E+04 -2.63103E+04  5.22056E+03 -2.16215E+04 -9.59955E+03
 -1.05782E+04 -1.84602E+04 -6.79408E+02 -1.46525E+04  6.79615E+03 -1.11313E+04  7.04112E+03 -5.14734E+03
  6.66798E+03 -3.89776E+03  5.48851E+03 -3.46269E+03  7.98936E+03 -3.19833E+03  8.46404E+03 -1.76122E+03
  1.06311E+04  1.37363E+03  8.66348E+03  9.16461E+03 -1.64752E+03  1.17850E+04 -1.01270E+04  6.99109E+03
 -1.49590E+04 -1.62156E+03 -9.53914E+03 -1.15659E+04 -5.33103E+02 -1.58359E+04  9.96249E+03 -1.66621E+04
  1.67567E+04 -8.29009E+03  2.03232E+04  2.06059E+03  1.39171E+04  1.40717E+04  1.23794E+03  2.00421E+04
 -8.61046E+03  1.53738E+04 -1.22518E+04  4.72924E+03 -7.95495E+03 -9.90590E+02 -2.85472E+03 -2.84002E+03
 -1.74073E+03 -6.52778E+02 -1.48928E+03  2.29438E+03 -6.76778E+03  2.42000E+03 -1.10555E+04 -1.17194E+03
 -8.22371E+03 -1.12351E+04 -1.57610E+03 -1.59630E+04  9.76097E+03 -1.25897E+04  1.73614E+04 -4.94281E+03
  1.40776E+04  9.21101E+03  6.60316E+03  1.39711E+04 -3.06408E+03  1.46743E+04 -1.14705E+04  1.06290E+04
 -1.52534E+04 -3.16883E+02 -1.24895E+04 -1.02410E+04 -1.72177E+03 -1.17971E+04  7.03681E+03 -9.36975E+03
  8.85215E+03 -4.91409E+03  6.97086E+03  3.85976E+03  3.13482E+03  5.01220E+03  1.49123E+03  2.38233E+03
  2.51835E+03  2.96728E+02  3.96669E+03  1.35103E+03  4.95905E+03  5.53109E+03  4.02771E+03  8.85872E+03
 -2.41276E+03  1.29374E+04 -1.38772E+04  1.22580E+04 -1.53813E+04  2.50014E+03 -1.66677E+04 -6.55893E+03
 -8.16799E+03 -1.61362E+04  2.80515E+03 -1.71812E+04  9.40928E+03 -1.17762E+04  1.23680E+04 -2.20736E+03
  1.14099E+04  7.10812E+03  1.08740E+03  7.93573E+03 -3.48140E+03  5.59689E+03 -7.43604E+03  5.23600E+02
 -3.65670E+03 -7.71033E+03  4.67219E+03 -7.05424E+03  7.11006E+03 -1.75864E+03  5.81368E+03  4.19034E+01
  5.73808E+03  3.99456E+03  1.74757E+03  2.85464E+03 -1.03808E+02  2.75788E+03  2.33826E+03 -7.97788E+02
  3.01986E+03  8.05758E+02  6.35624E+03  3.22877E+03  3.35030E+03  5.98180E+03 -1.07482E+03  1.23401E+04
 -8.19956E+03  7.15613E+03 -1.14410E+04  3.30210E+03 -7.89130E+03 -2.21586E+03 -1.06354E+03 -5.83356E+03
  5.41636E+02 -5.22186E+03  3.56928E+03 -3.49902E+03  4.60060E+03  2.35993E+03 -2.30759E+03  6.61802E+03
 -6.46743E+03  4.40022E+03 -7.45863E+03 -4.37473E+03 -3.96477E+03 -7.13363E+03  1.25310E+02 -1.02482E+04
  5.16981E+03 -4.75378E+03  5.60409E+03  1.96977E+03  3.66028E+03  1.79428E+03  4.71763E+02  4.20146E+03
 -2.20240E+03  7.35107E+02 -3.76883E+03 -3.50000E+03  7.99390E+02 -7.09558E+03  7.33096E+03 -5.99145E+03
  9.83733E+03  7.24697E+02  1.05214E+04  7.30708E+03  4.16134E+03  1.19700E+04 -2.68596E+03  1.08120E+04
 -8.09361E+03  4.97439E+03 -8.92790E+03 -7.12465E+01 -5.60285E+03 -6.13939E+03  3.56733E+03 -6.43383E+03
  5.06437E+03 -2.59259E+03  6.18867E+03  2.01236E+03  3.63930E+03  4.45448E+03 -1.78493E+03  4.30983E+03
 -1.29243E+03  4.23285E+03 -1.12251E+03  1.03976E+03 -1.55914E+03  8.99021E+02 -9.31475E+02  1.66264E+03
 -1.89059E+03  5.39729E+03 -7.41531E+03  3.29813E+03 -1.03794E+04 -9.99123E+02 -1.13094E+04 -6.59793E+03
 -7.53624E+03 -1.34080E+04  3.65113E+03 -1.68543E+04  9.04175E+03 -1.32957E+04  1.49476E+04 -6.95025E+03
  1.42588E+04  2.08179E+03  6.86103E+03  8.27818E+03  1.09812E+03  1.14732E+04 -3.05324E+03  8.53269E+03
 -4.97838E+03  2.00533E+03 -2.86783E+03 -1.59239E+03 -1.59660E+03 -1.66836E+02 -1.61628E+02 -7.78106E+02
 -3.65002E+03  4.82827E+02 -1.98915E+03  2.85794E+02 -4.42838E+02 -2.67174E+03  2.22334E+02 -3.86051E+03
  3.87687E+03 -3.49264E+03  7.32451E+03  1.68492E+02  7.85350E+03  5.55885E+03  1.45915E+03  1.13996E+04
 -4.61496E+03  1.14559E+04 -9.88745E+03  7.30668E+03 -1.41690E+04 -2.42626E+03 -9.44502E+03 -7.70170E+03
 -3.45224E+03 -1.11898E+04  2.56107E+03 -9.34777E+03  8.20894E+03 -4.79452E+03  6.73867E+03  1.96183E+03
  3.06429E+03  4.06374E+03  5.62258E+02  4.32189E+03 -2.50158E+03  1.64684E+02 -1.31733E+03 -1.45297E+03
  3.75904E+03  3.32740E+02  4.53713E+03  1.28075E+03  3.87558E+03  6.40335E+03 -3.21523E+02  6.21846E+03
 -5.18556E+03  5.23805E+03 -7.00992E+03 -1.53315E+02 -7.56990E+03 -4.48177E+03 -1.59269E+02 -8.37919E+03
  6.22239E+03 -6.34470E+03  8.69473E+03 -9.12827E+02  7.86013E+03  1.81310E+03  4.24497E+03  4.89672E+03
  1.67488E+03  6.71462E+03 -5.31790E+03  5.11406E+03 -4.57105E+03  3.88373E+03 -3.20672E+03  2.12121E+03
 -1.76729E+03  1.14034E+03 -1.83901E+03  9.49775E+02 -5.43879E+03  8.83805E+02 -6.09308E+03 -6.10471E+02
 -4.33668E+03 -2.24104E+03 -1.62523E+03 -7.06657E+03  4.16833E+03 -7.34515E+03  6.37160E+03 -3.75070E+03
  8.55084E+03  1.30751E+03  4.39216E+03  6.52271E+03 -9.75580E+02  7.48899E+03 -5.44620E+03  5.54792E+03
