 $NMID ID='MM_0lb_SNR200_9hz_g50_87.RAW', FMTDAT='(8E13.5)'
 TRAMP=1., VOLUME=1. $END
  3.08921E+05 -1.31912E+01  3.35961E+05  2.52999E+05  8.49535E+04  3.36963E+05 -1.33518E+05  2.51416E+05
 -1.91424E+05  8.36995E+04 -1.12493E+05 -3.30680E+04  5.54345E+02 -5.01083E+04  5.42105E+04 -2.40351E+03
  3.34400E+04  5.14404E+04 -1.52891E+04  7.50486E+04 -6.06868E+04  6.37851E+04 -8.51623E+04  3.21921E+04
 -8.11517E+04 -1.06892E+04 -5.64195E+04 -5.41373E+04 -1.56273E+04 -7.29805E+04  2.90604E+04 -4.60509E+04
  3.98436E+04  4.98222E+03  1.65117E+04  4.83010E+04 -3.25032E+04  4.72570E+04 -6.76789E+04  1.23802E+03
 -5.40830E+04 -5.74940E+04 -8.46803E+03 -7.86172E+04  3.62664E+04 -5.79105E+04  5.07267E+04 -1.70632E+04
  4.54035E+04  1.11621E+04  3.26856E+04  2.56492E+04  1.60298E+04  3.07231E+04 -5.00211E+03  2.77477E+04
 -2.21290E+04  1.24739E+04 -1.88151E+04 -6.62276E+03  7.69362E+03 -5.89155E+03  2.38459E+04  1.24306E+04
  9.24406E+03  3.61293E+04 -3.45188E+04  3.79349E+04 -6.45264E+04  1.89256E+03 -5.90955E+04 -4.35863E+04
 -1.15989E+04 -6.53187E+04  4.25981E+04 -4.72537E+04  6.02388E+04 -2.56276E+03  3.59750E+04  3.59346E+04
 -4.43378E+03  3.97524E+04 -3.07630E+04  1.98932E+04 -3.37128E+04 -3.73415E+03 -1.87504E+04 -1.16911E+04
 -9.65970E+03 -1.68642E+04  7.14935E+02 -1.92037E+04  6.70598E+03 -2.26191E+04  1.56730E+04 -1.16698E+04
  1.00472E+04  6.02364E+03 -1.25624E+04  1.23778E+04 -2.45026E+04 -6.60396E+03 -6.97097E+03 -3.82899E+04
  2.48568E+04 -5.00521E+04  5.16613E+04 -2.22986E+04  4.72159E+04  2.02928E+04  1.66118E+04  4.80166E+04
 -1.60883E+04  3.70073E+04 -2.74257E+04  2.87914E+03 -1.10059E+04 -3.03655E+04  2.02453E+04 -3.69441E+04
  4.28332E+04 -1.10058E+04  4.00996E+04  2.55626E+04  2.24728E+04  5.09336E+04 -6.74982E+03  5.52111E+04
 -3.60701E+04  3.66657E+04 -4.85682E+04  1.09431E+04 -4.85897E+04 -1.77295E+04 -2.60847E+04 -4.13541E+04
  7.86692E+03 -4.12259E+04  3.27839E+04 -1.67598E+04  3.09124E+04  1.03186E+04  4.29598E+03  2.01271E+04
 -1.35763E+04  1.14398E+04 -1.18051E+04 -7.82425E+03  5.71586E+03 -1.18999E+04  1.81011E+04  6.05805E+03
  1.58027E+04  2.44685E+04 -4.65486E+03  2.71467E+04 -2.32695E+04  1.57606E+04 -3.23943E+04 -2.83844E+03
 -2.48433E+04 -1.89291E+04 -1.28280E+04 -2.39740E+04  5.23830E+03 -2.47438E+04  2.10723E+04 -2.35058E+04
  3.13122E+04 -1.33842E+04  3.94986E+04  4.56120E+03  2.70547E+04  2.37153E+04  4.49317E+03  4.13175E+04
 -1.88420E+04  3.54419E+04 -3.04229E+04  1.10556E+04 -2.26933E+04 -1.01575E+04 -4.00709E+03 -1.41467E+04
 -5.20764E+02 -2.51768E+03 -6.08754E+03  7.93469E+03 -2.00800E+04  4.39336E+03 -2.02125E+04 -8.72535E+03
 -1.25892E+04 -2.35717E+04  3.87170E+03 -2.69255E+04  1.95149E+04 -1.94681E+04  2.12063E+04 -2.98907E+03
  1.47734E+04  1.62687E+04 -4.71725E+01  2.24057E+04 -1.52098E+04  1.35098E+04 -2.41110E+04 -3.40433E+03
 -1.71158E+04 -2.07348E+04 -1.47314E+03 -2.75178E+04  1.30113E+04 -2.23821E+04  2.31100E+04 -1.13036E+04
  2.34376E+04 -1.51617E+03  1.53540E+04  4.08076E+03  8.89988E+03  1.75406E+03  1.11405E+04 -2.45572E+03
  2.22826E+04  2.97372E+03  2.52030E+04  1.85239E+04  1.60255E+04  3.85026E+04 -2.32987E+03  4.50481E+04
 -2.40875E+04  3.68323E+04 -4.10569E+04  1.89134E+04 -4.36832E+04 -2.77880E+03 -3.64548E+04 -2.64085E+04
 -1.53681E+04 -3.82702E+04  1.28547E+04 -3.22620E+04  2.63491E+04 -1.43052E+04  2.50806E+04  7.26648E+03
  8.69884E+03  1.82480E+04 -1.16377E+04  1.37152E+04 -1.89999E+04  1.96971E+03 -1.61643E+04 -1.34692E+04
  3.87030E+02 -2.04130E+04  1.12365E+04 -1.38406E+04  1.34811E+04 -1.62684E+03  3.96896E+03  8.22093E+03
 -8.89637E+03  4.06060E+03 -8.41711E+03 -8.02264E+03 -1.18664E+03 -1.93984E+04  1.39656E+04 -1.98025E+04
  2.32307E+04 -1.08575E+04  2.57423E+04  3.39350E+03  2.11621E+04  1.90680E+04  9.98182E+03  2.96226E+04
 -4.91444E+03  3.24648E+04 -2.01569E+04  1.96479E+04 -2.35409E+04  3.66202E+03 -1.52874E+04 -5.10018E+03
 -5.79155E+03 -7.71197E+03 -3.05173E+02  8.98321E+02 -4.37925E+03  2.75761E+03 -7.31401E+03  4.88669E+03
 -1.45856E+04 -9.02441E+02 -1.49563E+04 -1.21125E+04 -7.17297E+03 -1.90898E+04  5.90207E+03 -1.60570E+04
  1.33100E+04 -6.18766E+03  8.75960E+03  2.83366E+03 -7.94613E+02  6.09265E+03 -8.39070E+03 -6.65042E+02
 -6.96511E+03 -1.00234E+04 -2.75252E+03 -1.45566E+04  7.71740E+03 -1.67189E+04  2.15963E+04 -8.65157E+03
  2.45687E+04  2.49514E+03  1.49867E+04  1.61057E+04  2.01551E+03  1.85587E+04 -9.98737E+03  1.44987E+04
 -1.30736E+04  3.55827E+03 -6.51986E+03 -4.34581E+03  6.37068E+02 -3.65267E+03  8.26167E+03 -1.71370E+03
  7.13685E+03  5.63891E+03  1.83530E+03  1.05964E+04 -8.62960E+03  1.23642E+04 -1.47478E+04  2.10076E+03
 -9.38827E+03 -7.89497E+03  9.54107E+01 -1.41480E+04  8.82850E+03 -7.86639E+03  9.77647E+03  2.98141E+03
  4.39813E+03  9.24576E+03 -8.54346E+03  1.22682E+04 -1.36133E+04  6.32327E+03 -1.43559E+04 -4.39950E+03
 -7.12811E+03 -1.67385E+04  4.97273E+03 -1.82597E+04  1.39277E+04 -1.09847E+04  1.82124E+04  3.52911E+03
  1.05848E+04  1.23979E+04 -1.21560E+03  1.80474E+04 -1.17632E+04  7.86882E+03 -1.28486E+04 -1.50156E+03
 -1.14236E+04 -1.10174E+04 -2.07704E+03 -9.81291E+03  5.48339E+03 -7.57334E+03  9.33334E+03 -3.97299E+03
  4.77992E+03  1.61970E+03 -1.95933E+03  2.95707E+03 -1.65707E+03 -4.38029E+03  1.58143E+03 -7.57137E+03
  1.02301E+04 -5.40326E+03  1.62732E+04  1.69121E+03  1.53172E+04  1.03562E+04  1.09439E+04  2.00431E+04
 -5.22199E+03  2.31542E+04 -2.02627E+04  1.92182E+04 -2.52851E+04  3.95394E+03 -2.09498E+04 -7.99722E+03
 -9.93772E+03 -1.64388E+04  1.30397E+02 -1.47228E+04  6.18141E+03 -7.72976E+03  3.82104E+03 -5.06986E+03
  3.26734E+03 -4.16218E+03  3.79935E+03 -3.42058E+03  5.73483E+03 -3.60958E+03  1.01904E+04 -1.27897E+03
  9.23487E+03  1.31836E+03  4.85861E+03  1.03481E+04 -2.53967E+03  1.28848E+04 -1.01853E+04  9.10684E+03
 -1.42620E+04 -6.62760E+02 -1.04200E+04 -1.00947E+04 -3.17015E+03 -1.57841E+04  8.72821E+03 -1.46534E+04
  1.69926E+04 -8.03679E+03  1.96177E+04  3.31069E+03  1.45575E+04  1.34046E+04  6.29722E+02  1.81457E+04
 -7.82209E+03  1.46078E+04 -1.01294E+04  5.75954E+03 -7.73833E+03 -9.01900E+02 -2.08781E+03 -1.71594E+03
  3.08018E+02 -7.22734E+02 -2.04265E+03  3.88197E+03 -7.51274E+03  1.26606E+03 -9.85349E+03 -1.82769E+03
 -8.37757E+03 -1.01236E+04  4.38721E+02 -1.68909E+04  8.74840E+03 -1.51271E+04  1.62284E+04 -4.12585E+03
  1.33459E+04  8.02149E+03  7.23513E+03  1.26077E+04 -3.02019E+03  1.43382E+04 -1.10528E+04  9.70184E+03
 -1.47619E+04 -3.27323E+02 -1.20507E+04 -8.83093E+03 -1.29108E+03 -1.37920E+04  6.93580E+03 -9.51463E+03
  9.51147E+03 -3.61128E+03  5.63680E+03  3.01292E+03  2.84397E+03  5.20307E+03  1.94703E+03  1.29407E+03
  1.23261E+03  8.93612E+02  3.40664E+03  1.65428E+03  5.11737E+03  4.88960E+03  3.98766E+03  6.22193E+03
 -3.45546E+03  1.17268E+04 -1.12516E+04  1.07470E+04 -1.44674E+04  1.26795E+03 -1.57426E+04 -5.56696E+03
 -7.84786E+03 -1.43469E+04  2.59069E+03 -1.60931E+04  9.43360E+03 -1.18399E+04  1.22450E+04 -2.69456E+03
  1.07553E+04  5.07656E+03  1.64955E+03  8.62945E+03 -3.59062E+03  6.50690E+03 -6.70863E+03  6.65065E+01
 -2.98915E+03 -6.35280E+03  3.68128E+03 -6.36098E+03  6.12509E+03 -3.72158E+03  6.30989E+03  1.41937E+02
  3.14780E+03  2.69469E+03  1.02785E+03  2.95603E+03 -1.71789E+03 -9.14924E+01 -6.07040E+02 -1.98204E+02
  3.06032E+03 -1.91002E+03  4.95042E+03  3.47408E+03  3.02008E+03  7.70919E+03 -1.59121E+03  1.19081E+04
 -7.74975E+03  6.71269E+03 -1.00380E+04  2.59620E+03 -9.13757E+03 -5.47187E+03 -3.94286E+03 -5.02816E+03
  9.56445E+02 -7.52454E+03  3.17709E+03 -2.23411E+03  2.15508E+03  3.49459E+03 -2.04416E+03  4.46296E+03
 -6.89184E+03  2.18298E+03 -6.65953E+03 -3.24422E+03 -4.96128E+03 -7.15350E+03 -6.76084E+02 -8.05960E+03
  4.90588E+03 -6.31117E+03  5.89870E+03  2.63129E+01  4.37247E+03  2.48598E+03  1.83078E+03  4.18055E+03
 -2.96504E+03  9.07067E+02 -3.78128E+03 -2.38154E+03  9.16085E+02 -5.87547E+03  8.20205E+03 -4.34998E+03
  1.01116E+04 -3.08605E+02  1.01459E+04  7.38848E+03  1.99432E+03  1.19866E+04 -1.95453E+03  8.51650E+03
 -9.12419E+03  2.16699E+03 -8.77910E+03 -2.64223E+03 -4.14426E+03 -7.05048E+03  1.36878E+03 -6.37690E+03
  7.53494E+03 -4.35985E+03  5.55515E+03  2.94305E+03  3.06582E+03  5.89976E+03 -1.18394E+03  5.91769E+03
 -2.96788E+03  3.31694E+03 -1.92605E+03  1.05889E+01 -1.50982E+03  8.34104E+02 -1.80805E+03  1.83130E+03
 -1.03413E+03  5.35266E+03 -5.74483E+03  2.13252E+03 -9.71155E+03 -2.00866E+03 -1.21617E+04 -8.28595E+03
 -4.45654E+03 -1.28303E+04  2.02411E+03 -1.67734E+04  9.04787E+03 -1.18676E+04  1.40624E+04 -4.20723E+03
  1.42312E+04  3.91815E+03  6.73785E+03  8.72595E+03  1.04232E+03  9.65336E+03 -2.72524E+03  7.43986E+03
 -6.04742E+03  2.76955E+03 -4.42445E+03 -5.57685E+02 -2.22965E+03 -5.99507E+02 -7.13824E+02 -2.96716E+02
 -3.00083E+03 -5.32864E+02 -2.47529E+03  5.53996E+02 -8.80504E+02 -1.68573E+03 -5.34891E+02 -3.77751E+03
  4.25915E+03 -2.94301E+03  6.92036E+03  1.11144E+03  7.69271E+03  5.55391E+03  1.75092E+03  1.07285E+04
 -3.61171E+03  1.21499E+04 -1.14872E+04  5.77554E+03 -1.28767E+04  1.07296E+03 -1.05454E+04 -8.12081E+03
 -4.75327E+03 -1.00027E+04  3.94725E+03 -1.07518E+04  6.58203E+03 -5.81831E+03  6.34037E+03  2.08155E+02
  3.14706E+03  4.19658E+03  5.15300E+02  3.10321E+03 -1.48657E+03 -1.04408E+03  3.98002E+02 -2.38675E+03
  3.04566E+03 -7.66279E+02  4.14514E+03  9.17936E+02  4.98916E+03  3.98502E+03  1.34477E+03  5.02260E+03
 -4.97932E+03  3.90399E+03 -7.18168E+03  4.54304E+02 -5.51537E+03 -5.74322E+03 -1.42399E+03 -9.26077E+03
  5.61977E+03 -7.90851E+03  7.79420E+03 -2.59953E+03  8.11509E+03  1.83434E+03  4.02243E+03  6.58089E+03
  1.30250E+03  7.97572E+03 -1.27458E+03  5.94738E+03 -4.83483E+03  1.85251E+03 -3.35397E+03  4.11230E+01
 -2.15168E+03  2.43298E+02 -2.16274E+03  2.22388E+03 -3.60347E+03  2.48436E+02 -4.48818E+03 -2.22311E+03
 -5.22299E+03 -3.21996E+03 -1.77035E+03 -6.90947E+03  3.51969E+03 -1.00340E+04  6.63985E+03 -3.94942E+03
  7.87726E+03  2.27940E+03  1.71108E+03  5.85442E+03  5.51884E+02  6.94851E+03 -4.79513E+03  3.82824E+03
