 $NMID ID='MM_0lb_SNR200_15hz_g45_45.RAW', FMTDAT='(8E13.5)'
 TRAMP=1., VOLUME=1. $END
  3.09112E+05  3.65471E+02  3.37200E+05  2.49869E+05  8.46254E+04  3.37490E+05 -1.31331E+05  2.50203E+05
 -1.91198E+05  8.26655E+04 -1.11557E+05 -3.19931E+04 -1.74046E+02 -5.06090E+04  5.36523E+04  7.82840E+02
  3.57095E+04  5.27809E+04 -1.55696E+04  7.63439E+04 -6.06009E+04  6.39562E+04 -8.45117E+04  3.01883E+04
 -8.03771E+04 -1.14025E+04 -5.54163E+04 -5.21515E+04 -1.43383E+04 -6.82983E+04  2.62822E+04 -4.51495E+04
  3.99111E+04  3.39370E+03  1.56724E+04  4.73362E+04 -3.44594E+04  4.64360E+04 -6.69654E+04 -2.61496E+01
 -5.29103E+04 -5.61125E+04 -5.79728E+03 -7.59999E+04  3.38314E+04 -5.41412E+04  4.65259E+04 -1.66463E+04
  4.39091E+04  1.10670E+04  3.07809E+04  2.37139E+04  1.54411E+04  2.92092E+04 -5.50274E+03  2.72122E+04
 -2.23975E+04  1.22483E+04 -1.82919E+04 -5.29092E+03  4.44755E+03 -8.37576E+03  2.27718E+04  1.22484E+04
  7.74895E+03  3.44351E+04 -3.22741E+04  3.56829E+04 -6.25925E+04  1.76685E+03 -5.50312E+04 -4.16866E+04
 -1.26447E+04 -6.15597E+04  3.91573E+04 -4.44210E+04  5.89753E+04 -1.54590E+03  3.50011E+04  3.29323E+04
 -6.24187E+03  3.52360E+04 -2.94723E+04  1.47399E+04 -2.85393E+04 -5.36152E+03 -1.66277E+04 -1.14431E+04
 -8.14321E+03 -1.20269E+04 -1.44659E+03 -1.74418E+04  7.74267E+03 -2.28372E+04  1.45375E+04 -1.31248E+04
  1.20625E+04  4.37735E+03 -7.76903E+03  1.29637E+04 -2.09503E+04 -4.52676E+03 -7.66672E+03 -3.19981E+04
  2.16181E+04 -4.20927E+04  4.65008E+04 -2.01768E+04  4.37083E+04  1.90930E+04  1.55935E+04  4.31307E+04
 -1.56977E+04  3.20568E+04 -2.49111E+04  1.54861E+03 -8.65599E+03 -2.70681E+04  2.11814E+04 -3.29849E+04
  4.06047E+04 -6.72171E+03  3.39359E+04  2.35843E+04  1.65915E+04  4.43598E+04 -8.16763E+03  4.86324E+04
 -3.11860E+04  3.14833E+04 -4.00998E+04  9.31091E+03 -4.23680E+04 -1.55066E+04 -2.33771E+04 -3.66587E+04
  8.30787E+03 -3.60316E+04  3.11942E+04 -1.35669E+04  2.91732E+04  1.12454E+04  2.56239E+03  2.00712E+04
 -1.39680E+04  8.37308E+03 -9.71426E+03 -8.10728E+03  5.99177E+03 -1.06594E+04  1.72991E+04  6.01032E+03
  1.30875E+04  2.22478E+04 -6.20837E+03  2.43607E+04 -2.22603E+04  1.22082E+04 -2.71000E+04 -3.76467E+03
 -1.93185E+04 -1.60946E+04 -7.61361E+03 -1.80265E+04  3.80368E+03 -1.73771E+04  1.48717E+04 -1.87073E+04
  2.52021E+04 -1.31351E+04  2.95879E+04  2.23948E+03  2.31423E+04  1.86841E+04  5.30029E+03  3.55716E+04
 -1.60693E+04  3.00545E+04 -2.71724E+04  1.02937E+04 -2.10534E+04 -9.42339E+03 -4.02881E+03 -1.38033E+04
  2.69513E+03 -3.06641E+03 -2.92938E+03  5.76759E+03 -1.44240E+04  5.28956E+03 -1.55514E+04 -7.52244E+03
 -9.08239E+03 -1.69798E+04  4.37115E+03 -2.23968E+04  1.45092E+04 -1.60613E+04  1.59091E+04 -1.51409E+03
  1.04333E+04  1.26246E+04  5.94012E+02  1.78099E+04 -1.25093E+04  9.10458E+03 -1.74389E+04 -4.27951E+03
 -1.32483E+04 -1.69154E+04 -1.96550E+03 -2.18666E+04  1.01587E+04 -1.77807E+04  1.82698E+04 -8.73051E+03
  1.73483E+04  6.80269E+02  1.21136E+04  4.44412E+03  7.08737E+03  7.99888E+02  8.42938E+03 -3.41925E+03
  1.70481E+04  2.85570E+03  1.76611E+04  1.43695E+04  1.09061E+04  2.82823E+04 -4.20114E+03  3.29220E+04
 -1.74279E+04  2.49168E+04 -2.97851E+04  1.22970E+04 -2.99861E+04 -2.91386E+03 -2.49722E+04 -1.68051E+04
 -1.11968E+04 -2.49438E+04  8.86010E+03 -2.24693E+04  1.89278E+04 -1.27725E+04  1.62425E+04  5.26151E+03
  6.84687E+03  1.29471E+04 -8.39813E+03  1.27609E+04 -1.47152E+04  2.11933E+03 -1.21573E+04 -9.46867E+03
 -3.98380E+02 -1.45963E+04  8.14847E+03 -1.02137E+04  9.42700E+03 -1.17406E+03  1.37295E+03  5.98924E+03
 -6.22911E+03  4.20067E+03 -5.55318E+03 -5.50931E+03  6.47201E+01 -1.15782E+04  9.78661E+03 -1.29495E+04
  1.54113E+04 -6.77981E+03  1.61649E+04  2.65400E+03  1.45050E+04  1.26421E+04  6.52924E+03  1.80291E+04
 -2.74172E+03  1.95443E+04 -1.11584E+04  1.14016E+04 -1.51379E+04  3.47608E+03 -1.02172E+04 -3.42093E+03
 -3.73087E+03 -4.62870E+03 -1.01937E+03  2.25764E+03 -2.98298E+03  1.95486E+03 -5.54732E+03  4.02952E+03
 -9.65418E+03 -1.31227E+03 -1.11020E+04 -7.12542E+03 -4.34886E+03 -1.37886E+04  3.86434E+03 -1.14505E+04
  1.00522E+04 -4.38753E+03  6.74898E+03  2.27282E+03 -2.28843E+02  4.55440E+03 -4.38857E+03 -2.17041E+02
 -4.68104E+03 -5.66402E+03 -5.67726E+02 -9.29342E+03  4.41694E+03 -1.01002E+04  1.17654E+04 -5.18777E+03
  1.36494E+04  5.27615E+02  1.09082E+04  8.86510E+03  2.37103E+03  1.14835E+04 -6.14831E+03  8.59694E+03
 -8.58457E+03  3.57837E+03 -5.21362E+03 -1.87545E+03  2.18678E+03 -2.21601E+03  6.20372E+03 -1.49960E+03
  4.56731E+03  5.23733E+03  1.39610E+03  8.73238E+03 -5.06600E+03  7.45827E+03 -9.69780E+03  7.59636E+02
 -6.59377E+03 -4.86963E+03  9.11550E+02 -8.62123E+03  5.48513E+03 -3.94415E+03  5.45954E+03  1.64884E+03
  5.08869E+00  5.30370E+03 -4.14797E+03  6.32261E+03 -7.55555E+03  4.78736E+03 -7.07150E+03 -2.50873E+03
 -4.09931E+03 -8.88451E+03  2.14946E+03 -9.62135E+03  8.14573E+03 -6.52602E+03  9.57350E+03  1.23104E+03
  5.75527E+03  7.52885E+03  4.71403E+02  9.23503E+03 -6.04057E+03  5.73934E+03 -7.30248E+03 -1.06574E+02
 -6.59423E+03 -5.75963E+03 -1.24870E+03 -5.81646E+03  3.89550E+03 -5.43247E+03  4.03660E+03 -3.06800E+03
  4.55425E+03  3.65067E+02 -3.81252E+02  2.37838E+03 -3.96455E+02 -2.01628E+03 -6.07440E+02 -2.78779E+03
  6.32018E+03 -3.49032E+03  7.81229E+03  1.46419E+03  8.68214E+03  4.45898E+03  6.45227E+03  1.07706E+04
 -2.10542E+03  1.27197E+04 -1.20550E+04  9.68014E+03 -1.31118E+04  1.14641E+03 -1.09818E+04 -4.67984E+03
 -5.71679E+03 -8.50938E+03  3.25664E+02 -8.01284E+03  3.67792E+03 -3.78086E+03  1.73001E+03 -3.57288E+03
  2.04573E+03 -1.59029E+03  2.21679E+03 -3.19912E+03  2.64608E+03 -2.17634E+03  4.84628E+03 -1.22918E+03
  5.98927E+03  1.54921E+03  2.83914E+03  5.51512E+03 -2.21190E+03  4.61033E+03 -6.77008E+03  4.68140E+03
 -7.47910E+03 -1.37137E+03 -4.00514E+03 -5.89672E+03 -4.66324E+02 -8.28858E+03  5.48109E+03 -7.89598E+03
  7.84195E+03 -4.84809E+03  1.04077E+04  1.30003E+03  7.01576E+03  6.89479E+03  2.19295E+03  9.09199E+03
 -3.35557E+03  8.68332E+03 -5.87627E+03  3.99478E+03 -2.15551E+03 -1.83099E+03 -1.06993E+03 -1.12935E+03
 -1.44232E+03 -4.21707E+01  1.97494E+01  1.46287E+03 -3.13206E+03  2.25697E+03 -5.11803E+03 -1.05507E+03
 -3.05928E+03 -4.93060E+03  9.67878E+02 -6.75801E+03  5.60201E+03 -7.15367E+03  6.31201E+03 -1.38170E+03
  7.26458E+03  4.43336E+03  3.87643E+03  6.78105E+03 -2.58239E+03  6.28972E+03 -3.64297E+03  5.03521E+03
 -6.70411E+03  2.11026E+02 -3.97402E+03 -5.03220E+03 -4.44534E+02 -5.89119E+03  3.26530E+03 -4.00141E+03
  3.75270E+03 -5.19257E+02  3.37876E+03  1.05539E+03 -7.16810E+01  3.14269E+03  1.17083E+03  1.34968E+03
  2.41711E+03  1.16758E+03  9.48862E+02  1.07734E+03  1.21295E+03  2.79238E+03  2.60297E+03  3.91298E+03
 -2.84617E+03  4.08751E+03 -4.69707E+03  6.90217E+03 -6.17919E+03  2.26910E+03 -6.28861E+03 -1.38118E+03
 -3.08695E+03 -6.68361E+03  1.63084E+03 -7.18265E+03  2.88822E+03 -3.30983E+03  5.04905E+03 -9.45738E+02
  3.79029E+03  2.52210E+03 -5.01235E+02  3.30860E+03 -2.30066E+03  1.89142E+03 -1.77954E+03 -1.13986E+03
 -9.20205E+02 -3.55589E+03  1.50278E+03 -2.75472E+03  1.73906E+03 -6.72130E+02  2.78809E+03  6.49595E+02
  1.16584E+03  1.25220E+03  1.59904E+03  8.18303E+02 -6.01232E+02 -1.68125E+02  2.24422E+03 -1.05715E+02
  1.67251E+03 -6.02255E+01  2.35986E+03  1.46118E+03  3.18783E+01  4.17671E+03 -3.79624E+02  5.22918E+03
 -2.94695E+03  7.37150E+02 -3.32195E+03  1.65636E+03 -5.62390E+03 -2.26549E+03 -1.44063E+03 -1.86959E+03
  2.61473E+02 -2.98538E+03  1.47181E+03 -1.23243E+03  7.09034E+02  1.69920E+03 -7.59186E+02  2.34062E+03
 -2.22106E+03  1.95357E+03 -1.94512E+03 -2.16578E+03  7.29997E+01 -4.24353E+03  1.87645E+03 -3.31289E+03
  3.31771E+03 -1.31382E+03  1.43156E+03  5.87486E+02  2.66409E+03 -6.41054E+02  6.79334E+02  1.65423E+03
 -4.53852E+02 -3.04156E+02 -5.21329E+02 -3.80462E+02  1.69795E+03 -2.04686E+03  2.88147E+03 -2.76854E+03
  3.56591E+03 -7.56507E+02  4.78992E+03  8.69369E+02  2.49823E+03  2.86151E+03 -8.40607E+01  3.42379E+03
 -2.68122E+03  1.18192E+03 -2.47069E+03 -1.00812E+03 -2.12909E+03 -1.55846E+03  9.11765E+02 -9.51216E+02
  2.49651E+03 -3.02112E+03  2.90333E+03  1.42688E+03  1.68457E+02  2.68438E+03  8.94647E+02  1.99273E+03
 -2.27759E+03  2.50262E+03 -1.46209E+03  1.28699E+03  4.91244E+01  9.53639E+02 -1.54010E+03  1.16704E+03
 -1.28049E+03  2.79582E+03 -3.04325E+03  4.21468E+02 -4.47534E+03 -2.39707E+02 -4.45675E+03 -3.17780E+03
 -2.25241E+03 -4.71555E+03  1.68548E+02 -5.94820E+03  2.77293E+03 -5.41559E+03  4.53834E+03 -2.32142E+03
  4.23014E+03  5.04431E+02  2.52004E+03  3.54295E+03  7.16531E-01  3.11846E+03 -1.53123E+03  2.80155E+03
 -9.43933E+02  1.87854E+03  3.59176E+01  1.92577E+02 -9.33223E+02  1.06468E+03  2.82935E+02  5.81931E+02
 -1.63924E+03 -2.19394E+02 -5.21495E+02  7.57319E+02  4.03173E+02 -1.46791E+03 -7.14137E+02 -7.02315E+02
  3.15265E+03 -1.81535E+02  1.28661E+03 -1.01583E+02  1.75473E+03  3.13621E+03  1.04290E+03  3.66695E+03
 -2.21632E+03  4.27106E+03 -3.66974E+03  2.87031E+03 -3.87846E+03 -6.53801E+02 -3.27963E+03 -2.87744E+03
 -8.91145E+02 -2.51783E+03  7.92643E+02 -2.41812E+03  1.39659E+03 -2.44606E+03  1.69098E+03  6.21569E+02
  9.36903E+02 -5.71269E+02 -3.43202E+02  1.45242E+03 -9.91119E+02  1.59964E+03  1.04629E+03 -8.18937E+02
  1.71846E+03 -2.71994E+02  1.18363E+03  7.08476E+02  4.27299E+02  1.23445E+03  8.53972E+02  7.90823E+02
 -1.27031E+03  1.78129E+03 -1.81018E+03  6.85488E+02 -1.65954E+03 -8.69307E+02 -1.12240E+03 -3.06072E+03
  1.09132E+03 -1.42725E+03  2.37876E+03 -1.22691E+03  1.71076E+03 -3.59021E+02  2.69108E+03  1.76644E+03
  8.14846E+02  2.18134E+03 -6.48957E+02  1.94488E+03  9.35110E+01  2.63367E+03  2.32961E+02  1.45462E+03
 -4.31520E+01  1.95064E+02 -8.59465E+02  6.49455E+02 -1.30589E+03  8.30005E+02 -1.60865E+03 -1.38537E+03
 -1.30642E+03 -2.22920E+02 -1.13396E+03 -2.17410E+03  9.82672E+02 -2.27404E+03  2.67109E+03 -6.15272E+02
  2.05632E+03  2.43084E+02 -1.18915E+03  1.89586E+03  5.23758E+00  1.56340E+03 -8.02489E+02  8.05131E+02
