 $NMID ID='MM_0lb_SNR200_17hz_g45_50.RAW', FMTDAT='(8E13.5)'
 TRAMP=1., VOLUME=1. $END
  3.09414E+05  5.86143E+02  3.36907E+05  2.50574E+05  8.38689E+04  3.36140E+05 -1.32469E+05  2.50670E+05
 -1.88967E+05  8.31638E+04 -1.11396E+05 -3.22504E+04  1.61871E+03 -5.07289E+04  5.39997E+04 -1.01195E+03
  3.65642E+04  5.17202E+04 -1.69000E+04  7.53998E+04 -6.07896E+04  6.22119E+04 -8.41132E+04  3.09404E+04
 -7.94935E+04 -1.10103E+04 -5.72415E+04 -5.13620E+04 -1.36559E+04 -6.86646E+04  2.76768E+04 -4.52942E+04
  4.03361E+04  4.33674E+03  1.64792E+04  4.72096E+04 -3.45628E+04  4.59059E+04 -6.55384E+04 -1.04336E+03
 -5.15750E+04 -5.52293E+04 -7.02826E+03 -7.53405E+04  3.37061E+04 -5.48131E+04  4.73357E+04 -1.71747E+04
  4.17096E+04  1.04888E+04  3.10242E+04  2.35212E+04  1.51408E+04  2.89149E+04 -3.96677E+03  2.69576E+04
 -2.17174E+04  1.37503E+04 -1.88380E+04 -4.70607E+03  3.77540E+03 -9.13306E+03  2.19759E+04  1.11637E+04
  7.84100E+03  3.45532E+04 -3.12974E+04  3.33357E+04 -6.19704E+04  2.64813E+03 -5.57638E+04 -4.14022E+04
 -1.33405E+04 -6.10289E+04  3.94854E+04 -4.38569E+04  5.56087E+04 -1.74402E+03  3.23964E+04  3.07274E+04
 -6.22043E+03  3.41464E+04 -2.91543E+04  1.39357E+04 -2.81707E+04 -4.97598E+03 -1.57350E+04 -1.08380E+04
 -7.66009E+03 -1.30053E+04 -1.18880E+03 -1.58698E+04  7.74733E+03 -2.35125E+04  1.39957E+04 -1.47194E+04
  1.15231E+04  4.58655E+03 -6.68464E+03  1.25677E+04 -1.88616E+04 -2.21342E+03 -8.27343E+03 -3.09895E+04
  2.14340E+04 -4.14983E+04  4.59084E+04 -1.83585E+04  4.22755E+04  1.85110E+04  1.46920E+04  4.11664E+04
 -1.53689E+04  3.14563E+04 -2.38021E+04  2.49516E+03 -7.71174E+03 -2.64387E+04  2.12449E+04 -3.31144E+04
  3.93552E+04 -7.69824E+03  3.19968E+04  2.20675E+04  1.49299E+04  4.37827E+04 -7.30171E+03  4.62580E+04
 -2.86743E+04  3.18254E+04 -3.84041E+04  8.83771E+03 -4.02458E+04 -1.54551E+04 -2.17380E+04 -3.54226E+04
  7.57677E+03 -3.60221E+04  2.94782E+04 -1.40961E+04  2.69953E+04  1.06611E+04  2.66140E+03  1.83246E+04
 -1.21618E+04  6.76838E+03 -9.86366E+03 -7.40700E+03  7.43337E+03 -9.35359E+03  1.79980E+04  6.63750E+03
  1.29467E+04  2.18626E+04 -6.98251E+03  2.37354E+04 -2.19520E+04  9.89044E+03 -2.58153E+04 -5.95805E+03
 -1.81326E+04 -1.57840E+04 -5.70864E+03 -1.83745E+04  2.19157E+03 -1.61130E+04  1.20249E+04 -1.59109E+04
  2.30409E+04 -1.17532E+04  2.98741E+04  1.31873E+02  2.16360E+04  1.68979E+04  4.14192E+03  3.28996E+04
 -1.61899E+04  2.74370E+04 -2.76591E+04  8.80873E+03 -2.02735E+04 -1.13166E+04 -4.17037E+03 -1.41286E+04
  1.53170E+03 -4.15007E+03 -3.43355E+03  6.76259E+03 -1.37567E+04  6.50372E+03 -1.46656E+04 -4.66697E+03
 -9.51919E+03 -1.69043E+04  4.61141E+03 -2.17870E+04  1.30839E+04 -1.45205E+04  1.58713E+04 -1.49071E+03
  1.00917E+04  1.09370E+04 -1.49971E+03  1.69892E+04 -1.17278E+04  8.42862E+03 -1.70246E+04 -4.21128E+03
 -1.25503E+04 -1.53425E+04 -1.36025E+03 -2.03495E+04  8.25270E+03 -1.65106E+04  1.65393E+04 -7.14305E+03
  1.54123E+04  9.78924E+02  1.07065E+04  3.85194E+03  4.58191E+03 -5.01970E+02  8.05454E+03 -1.15358E+03
  1.46519E+04  3.88315E+03  1.67365E+04  1.36185E+04  1.02709E+04  2.64788E+04 -4.14093E+03  2.86135E+04
 -1.72293E+04  2.18180E+04 -2.52023E+04  1.17970E+04 -2.72682E+04 -1.78311E+03 -2.17831E+04 -1.61428E+04
 -1.09666E+04 -2.14182E+04  7.43021E+03 -2.08453E+04  1.81486E+04 -1.09721E+04  1.62758E+04  3.94142E+03
  6.86865E+03  1.14369E+04 -8.23803E+03  1.14928E+04 -1.36438E+04  2.62659E+03 -1.11312E+04 -8.23065E+03
  1.30301E+02 -1.33575E+04  7.19421E+03 -1.03148E+04  8.41594E+03 -9.30224E+02  1.37545E+03  4.93514E+03
 -5.21585E+03  1.03550E+03 -3.33280E+03 -5.85389E+03 -3.38853E+02 -1.01300E+04  8.43092E+03 -1.14913E+04
  1.32773E+04 -4.86447E+03  1.24102E+04  2.24038E+03  1.13981E+04  1.01944E+04  6.48170E+03  1.51837E+04
 -2.16269E+03  1.84865E+04 -1.08059E+04  1.07882E+04 -1.15631E+04  3.20226E+03 -9.21336E+03 -2.03299E+03
 -4.90354E+03 -4.19281E+03 -5.22045E+01  1.17636E+03 -1.56103E+03  2.23093E+03 -3.62677E+03  3.74248E+03
 -8.74859E+03 -4.54170E+02 -9.76818E+03 -8.04507E+03 -4.47345E+03 -1.25014E+04  4.35686E+03 -9.25143E+03
  7.83168E+03 -4.08199E+03  5.33766E+03  2.88129E+03  1.01352E+02  2.74078E+03 -3.80027E+03 -4.51978E+02
 -3.52286E+03 -5.31853E+03 -5.96471E+02 -7.59106E+03  3.65226E+03 -8.83491E+03  1.01918E+04 -5.27512E+03
  1.40101E+04  9.68517E+02  1.01334E+04  8.08867E+03  1.73075E+03  8.81906E+03 -5.73971E+03  9.65420E+03
 -7.17797E+03  3.70932E+03 -3.09435E+03 -1.44745E+03  1.44040E+03 -1.93192E+03  5.52734E+03 -1.28063E+03
  3.12424E+03  4.26587E+03  3.48265E+02  6.70949E+03 -4.44617E+03  6.50421E+03 -8.93262E+03  1.28010E+03
 -5.21204E+03 -3.93067E+03 -4.48732E+02 -6.45315E+03  4.31313E+03 -4.20038E+03  4.12311E+03  1.44023E+03
  9.53175E+02  3.86989E+03 -5.25238E+03  6.03290E+03 -6.34508E+03  3.32233E+03 -6.04055E+03 -9.53386E+02
 -2.99476E+03 -6.95132E+03  2.12988E+03 -7.63418E+03  6.91277E+03 -6.15984E+03  8.33476E+03  1.19343E+03
  4.87733E+03  6.02748E+03  5.54081E+02  8.63443E+03 -5.56761E+03  3.80889E+03 -5.95268E+03  6.36249E+02
 -6.91410E+03 -4.80133E+03 -9.31516E+02 -4.55589E+03  2.60010E+03 -4.89178E+03  3.50777E+03 -2.79338E+03
  3.47914E+03 -7.43647E+01  2.86022E+02  1.30414E+03  2.74782E+02 -3.18435E+02  2.77831E+02 -2.31790E+03
  4.35973E+03 -4.52915E+02  5.85235E+03  7.04017E+02  7.37545E+03  2.77377E+03  5.72980E+03  8.05848E+03
 -1.87600E+03  1.03582E+04 -8.86869E+03  6.38689E+03 -1.11072E+04  1.48643E+03 -9.17020E+03 -3.27557E+03
 -4.42174E+03 -6.92969E+03 -4.79036E+02 -5.98726E+03  2.60621E+03 -2.37454E+03  2.31068E+03 -2.19112E+03
  1.79593E+03 -1.64397E+03  2.56980E+03 -2.54846E+03  4.03606E+03 -1.80719E+03  3.70971E+03 -3.96241E+02
  4.93647E+03  1.63894E+03  1.43247E+03  4.26399E+03 -1.15030E+03  3.02902E+03 -4.93313E+03  2.37622E+03
 -5.74682E+03 -8.19414E+02 -3.12462E+03 -2.87243E+03  6.95158E+02 -6.07673E+03  4.57577E+03 -6.18602E+03
  6.35713E+03 -3.85972E+03  8.70931E+03  3.83350E+02  5.58822E+03  5.91230E+03  1.07963E+03  7.66806E+03
 -1.91934E+03  5.91825E+03 -5.65753E+03  2.01943E+03 -2.24697E+03 -1.34712E+03 -1.65780E+03 -1.74429E+02
 -7.74657E+02  1.21392E+03  1.69865E+02  2.91987E+03 -3.67416E+03  1.21400E+03 -5.36220E+03 -1.78919E+02
 -1.44389E+03 -5.35187E+03  9.91266E+02 -5.18224E+03  3.28866E+03 -3.97001E+03  4.54006E+03 -3.00246E+02
  5.25121E+03  2.80030E+03  2.65240E+03  4.71103E+03 -3.60890E+02  6.32305E+03 -3.98188E+03  3.08322E+03
 -4.25422E+03  5.87387E+02 -4.08847E+03 -2.18659E+03 -6.67190E+02 -4.64798E+03  1.99260E+03 -3.30117E+03
  3.10300E+03 -1.75835E+03  1.28555E+03  9.66409E+02 -1.75089E+02  1.95320E+03  1.65418E+03  8.07730E+02
  8.97493E+02  2.77540E+02  7.78731E+02  5.52105E+02  1.71156E+03  1.70417E+03  2.03629E+03  1.58178E+03
 -1.88316E+03  4.73302E+03 -3.47336E+03  3.97396E+03 -3.96832E+03  1.11687E+03 -5.66561E+03 -1.65473E+03
 -2.27002E+03 -5.53654E+03  1.44146E+03 -6.04935E+03  1.62671E+03 -4.12156E+03  3.94989E+03 -2.40485E+03
  2.63207E+03  2.18334E+03  7.19724E+02  2.19323E+03 -6.01530E+02  2.21338E+03 -2.25662E+03 -1.74788E+02
 -8.33472E+02 -1.82263E+03  4.82470E+02 -1.85950E+03  1.90758E+03 -2.96425E+02  2.85333E+03  3.20298E+02
  6.04793E+01  1.17168E+03 -2.39707E+02  1.71320E+03 -3.25261E+02  8.23324E+02  2.43265E+03 -4.67077E+02
 -1.24162E+02 -5.17969E+02  1.46275E+03  9.00937E+02  1.21882E+03  2.73811E+03 -1.84246E+03  3.08718E+03
 -1.67431E+03  8.01213E+02 -1.99511E+03  2.70835E+02 -3.17894E+03 -1.66111E+03  2.84409E+02 -1.41256E+03
  2.80596E+02 -2.55876E+03  1.34949E+03 -2.55760E+02 -6.89387E+01  1.28943E+03 -7.19175E+02  2.45419E+03
 -2.62614E+03  9.00144E+02 -1.92607E+03 -1.10770E+03 -1.62741E+03 -2.12118E+03  4.15422E+02 -2.53471E+03
  7.99575E+02 -6.49651E+02  1.87656E+03  1.35004E+03  2.87235E+03  2.10490E+02  7.37771E+02  8.58557E+02
 -6.85051E+02  7.28082E+02 -1.49009E+03 -5.94721E+02  9.65587E+02 -1.15163E+03  2.69753E+03 -5.53131E+02
  2.81518E+03 -1.73379E+02  3.16554E+03  1.53769E+03  1.52815E+03  1.53584E+03 -9.76600E+02  2.00454E+03
 -3.25318E+03  1.35799E+02 -2.40049E+03  1.21026E+02 -1.14462E+03 -1.56415E+03  3.29993E+02 -1.75382E+03
  1.35131E+03 -6.96196E+02  1.51716E+03  6.91301E+01  7.96878E+02  2.30321E+03 -3.37130E+02  6.45997E+02
 -1.60568E+02  1.36261E+03 -1.15487E+03 -7.79578E+02  2.66043E+02  1.78374E+02 -7.72951E+02  8.22281E+02
  1.01107E+00  1.20096E+03 -2.33800E+03  1.30271E+02 -8.04228E+02 -7.73904E+01 -3.77771E+03 -7.79119E+02
 -7.81173E+02 -3.14940E+03  2.59387E+03 -4.24732E+03  1.78073E+03 -2.99208E+03  3.55046E+03 -1.68783E+03
  3.17967E+03 -2.50379E+02  5.39800E+02  2.17551E+03 -5.77496E+00  2.28082E+03 -5.06302E+02  8.87659E+02
 -1.12869E+03  1.51450E+03 -8.62379E+02 -6.54529E+02  5.25058E+02  9.63654E+02 -1.16767E+03  7.53420E+02
 -2.87725E+03 -7.77637E+02 -3.29720E+02  2.60284E+02  1.35546E+03 -5.43955E+02 -1.07019E+03 -1.53821E+03
  6.12967E+02 -8.57037E+02  7.74193E+02  6.32943E+02  1.70542E+03  1.94455E+03  1.07986E+02  2.16500E+03
 -8.99889E+02  2.68282E+03 -1.79448E+03  2.00730E+03 -2.46078E+03  7.06662E+02 -1.83046E+03 -1.27373E+03
 -9.81750E+02 -2.36643E+03  5.03362E+02 -9.13536E+02  1.88710E+03 -1.23323E+03  1.49047E+03  1.28152E+03
  5.92240E+02  8.46892E+02 -9.44592E+02 -2.43415E+02 -1.27298E+03 -8.10224E+01  3.25863E+02 -2.14021E+02
 -3.94781E+02  6.39849E+02  6.14533E+02  2.32389E+02  7.92324E+02  9.83091E+02 -3.64016E+02  8.62464E+02
 -1.71938E+03  1.19967E+03 -1.30409E+03  1.72296E+02 -2.17897E+03 -9.84645E+02 -2.41831E+02 -1.59766E+03
  5.48980E+02 -1.54146E+03  3.34574E+02 -1.87742E+02  5.61626E+02 -6.03738E+02  6.21346E+02  1.09801E+03
  7.43863E+02  6.88018E+02 -8.92121E+02  9.33359E+02 -3.13602E+02  6.72252E+02  6.44939E+02 -1.84859E+02
 -5.19326E+00  4.41168E+02 -8.72239E+02 -1.29898E+02 -3.19388E+02  1.56014E+03 -1.86600E+03 -2.77541E+02
 -1.48286E+03 -2.16250E+02 -5.64268E+02 -1.61964E+03  7.56679E+02 -1.52048E+03  9.19444E+02  7.12873E+02
  1.14403E+03  3.44206E+02 -2.91170E+02 -9.50188E+01 -8.56632E+02  1.01890E+03 -7.71111E+02  6.08519E+02
