 $NMID ID='MM_0lb_SNR200_12hz_g40_1.RAW', FMTDAT='(8E13.5)'
 TRAMP=1., VOLUME=1. $END
  3.08109E+05  6.88443E+02  3.38755E+05  2.51153E+05  8.51081E+04  3.37372E+05 -1.32400E+05  2.50697E+05
 -1.90017E+05  8.42540E+04 -1.12229E+05 -3.29591E+04  9.71272E+02 -4.92576E+04  5.32493E+04  3.55282E+02
  3.53463E+04  5.24357E+04 -1.66215E+04  7.54017E+04 -6.10857E+04  6.43284E+04 -8.40503E+04  3.16891E+04
 -8.07939E+04 -1.05605E+04 -5.66829E+04 -5.13653E+04 -1.51097E+04 -6.97071E+04  2.85013E+04 -4.54764E+04
  3.95891E+04  4.34571E+03  1.60168E+04  4.77026E+04 -3.39201E+04  4.75087E+04 -6.68941E+04 -1.11896E+03
 -5.29632E+04 -5.69191E+04 -7.52904E+03 -7.73948E+04  3.46494E+04 -5.56972E+04  4.68568E+04 -1.66162E+04
  4.50161E+04  1.13051E+04  3.15727E+04  2.58159E+04  1.56877E+04  2.88639E+04 -5.88923E+03  2.74861E+04
 -2.14495E+04  1.16863E+04 -1.89306E+04 -5.44031E+03  5.57839E+03 -7.98570E+03  2.27490E+04  1.26836E+04
  7.72681E+03  3.52868E+04 -3.27237E+04  3.65010E+04 -6.43507E+04  1.56101E+03 -5.64039E+04 -4.35277E+04
 -1.34063E+04 -6.42574E+04  3.95343E+04 -4.64488E+04  5.97344E+04 -1.88286E+03  3.33752E+04  3.30622E+04
 -7.05520E+03  3.56801E+04 -3.00379E+04  1.58970E+04 -2.99446E+04 -4.36957E+03 -1.73788E+04 -1.06312E+04
 -9.55459E+03 -1.33665E+04 -7.11699E+02 -1.80327E+04  7.83845E+03 -2.41532E+04  1.63276E+04 -1.35807E+04
  1.15726E+04  4.75146E+03 -8.45603E+03  1.33482E+04 -2.15290E+04 -5.41236E+03 -8.46320E+03 -3.37399E+04
  2.26780E+04 -4.45175E+04  4.83101E+04 -1.83236E+04  4.63291E+04  1.92731E+04  1.62468E+04  4.49336E+04
 -1.64817E+04  3.44349E+04 -2.47512E+04  9.64760E+02 -1.06847E+04 -2.74860E+04  2.06234E+04 -3.43812E+04
  4.16833E+04 -1.00603E+04  3.59408E+04  2.39947E+04  1.91624E+04  4.72496E+04 -8.49637E+03  5.02283E+04
 -3.19364E+04  3.56360E+04 -4.33151E+04  1.05523E+04 -4.44873E+04 -1.59852E+04 -2.42285E+04 -3.80099E+04
  8.55323E+03 -3.79903E+04  3.23985E+04 -1.43852E+04  2.99979E+04  1.10196E+04  4.33281E+03  1.89847E+04
 -1.24589E+04  8.80663E+03 -1.06333E+04 -7.74970E+03  5.87746E+03 -1.05432E+04  1.99956E+04  5.94304E+03
  1.31313E+04  2.14361E+04 -6.66583E+03  2.41775E+04 -2.18069E+04  1.13416E+04 -3.02446E+04 -5.18755E+03
 -2.29572E+04 -1.70618E+04 -9.93990E+03 -2.10820E+04  2.80368E+03 -2.04832E+04  1.65722E+04 -1.93826E+04
  2.58729E+04 -1.27733E+04  3.32803E+04  3.18535E+03  2.39547E+04  2.03123E+04  3.02462E+03  3.65584E+04
 -1.70335E+04  3.12993E+04 -2.87080E+04  1.08169E+04 -2.07130E+04 -1.04045E+04 -3.97950E+03 -1.26794E+04
  1.92027E+03 -1.98926E+03 -6.22349E+03  6.68687E+03 -1.65821E+04  5.96914E+03 -1.73948E+04 -7.62503E+03
 -9.51925E+03 -1.98871E+04  5.32401E+03 -2.32547E+04  1.59643E+04 -1.54732E+04  1.96026E+04 -2.40677E+03
  1.09815E+04  1.34518E+04 -3.48813E+02  1.94484E+04 -1.44102E+04  1.03284E+04 -1.94273E+04 -3.82773E+03
 -1.33395E+04 -1.79251E+04 -3.48203E+03 -2.38798E+04  1.02020E+04 -1.91999E+04  1.99457E+04 -9.18269E+03
  1.76318E+04  1.56560E+03  1.42855E+04  4.60006E+03  8.09048E+03  1.22324E+03  1.05154E+04 -1.40589E+03
  1.80865E+04  2.56257E+03  2.08993E+04  1.74999E+04  1.43618E+04  3.10215E+04 -3.16521E+03  3.52714E+04
 -2.16848E+04  2.91659E+04 -3.30435E+04  1.47342E+04 -3.59833E+04 -2.14136E+03 -3.02131E+04 -2.09128E+04
 -1.25034E+04 -2.85867E+04  1.05468E+04 -2.61372E+04  2.27189E+04 -1.33186E+04  1.75792E+04  5.96520E+03
  8.13662E+03  1.37864E+04 -9.50540E+03  1.29585E+04 -1.80966E+04  2.69729E+03 -1.40614E+04 -1.11129E+04
 -1.56343E+03 -1.60236E+04  8.70868E+03 -1.17742E+04  1.12465E+04 -2.65591E+03  2.29304E+03  7.19611E+03
 -7.03596E+03  3.10107E+03 -6.00881E+03 -5.66931E+03 -1.49266E+02 -1.51969E+04  9.29526E+03 -1.41150E+04
  1.78723E+04 -8.94808E+03  2.06764E+04  3.13586E+03  1.75717E+04  1.40276E+04  7.79029E+03  2.20734E+04
 -3.41680E+03  2.50759E+04 -1.49510E+04  1.57270E+04 -1.68158E+04  3.45234E+03 -1.14494E+04 -4.42613E+03
 -5.81384E+03 -6.60529E+03  2.96292E+02  1.36932E+03 -3.50016E+03  1.55056E+03 -5.93266E+03  4.09016E+03
 -1.04564E+04 -1.96896E+03 -1.19995E+04 -9.75499E+03 -5.76225E+03 -1.52756E+04  5.67841E+03 -1.31375E+04
  1.15019E+04 -5.34850E+03  7.98999E+03  2.41959E+03  1.55681E+02  4.90495E+03 -4.06014E+03  2.72994E+02
 -4.86911E+03 -8.12686E+03 -2.39186E+03 -1.13335E+04  7.59119E+03 -1.20338E+04  1.60778E+04 -6.57463E+03
  1.74812E+04  3.08686E+03  1.41572E+04  1.02087E+04  2.36416E+03  1.30704E+04 -7.78414E+03  1.25397E+04
 -9.21699E+03  3.73231E+03 -3.32284E+03 -2.50821E+03  2.11906E+03 -4.45325E+03  6.16276E+03 -1.17126E+03
  8.20795E+03  5.86432E+03  1.95455E+02  8.86446E+03 -7.12001E+03  1.06113E+04 -1.13571E+04  3.58163E+03
 -7.70420E+03 -5.63983E+03  2.75960E+03 -1.02273E+04  5.97495E+03 -5.37041E+03  6.01113E+03  2.38512E+03
  2.18475E+03  7.51911E+03 -5.10615E+03  7.94610E+03 -8.31216E+03  3.82285E+03 -9.67722E+03 -4.27859E+03
 -4.96647E+03 -1.13843E+04  3.72934E+03 -1.32238E+04  1.01201E+04 -7.44918E+03  1.20994E+04  2.71986E+03
  7.13313E+03  1.03368E+04 -1.45544E+03  1.18182E+04 -8.33882E+03  5.59569E+03 -9.04884E+03 -1.19212E+03
 -7.57463E+03 -7.88835E+03 -7.95147E+02 -8.22543E+03  5.19337E+03 -6.87760E+03  6.33216E+03 -2.72307E+03
  3.19222E+03  1.24265E+03 -1.26349E+03  2.21894E+03  3.43291E+02 -8.24699E+02  1.02275E+03 -4.30656E+03
  7.42849E+03 -2.59212E+03  1.08377E+04  1.85808E+03  1.18167E+04  7.27159E+03  7.07678E+03  1.37828E+04
 -3.15725E+03  1.54244E+04 -1.41639E+04  1.10783E+04 -1.82015E+04  2.08599E+03 -1.46428E+04 -6.31948E+03
 -8.36603E+03 -1.31602E+04  5.41084E+02 -9.16174E+03  2.10347E+03 -7.13228E+03  2.71958E+03 -3.33660E+03
  2.75473E+03 -3.34069E+03  4.08948E+03 -1.87252E+03  4.84958E+03 -3.09236E+03  4.22330E+03 -2.26781E+02
  6.97144E+03  1.82409E+03  4.34776E+03  6.21428E+03 -1.41611E+03  8.10691E+03 -8.74685E+03  4.78882E+03
 -1.03488E+04 -2.42288E+03 -5.73183E+03 -6.56280E+03 -7.88397E+02 -1.04560E+04  6.61515E+03 -1.02175E+04
  1.14577E+04 -5.42713E+03  1.20729E+04  2.37764E+03  9.39485E+03  1.01557E+04  1.77612E+03  1.20853E+04
 -2.81341E+03  9.33385E+03 -8.15822E+03  3.81227E+03 -3.81873E+03 -1.58267E+03 -1.64928E+03 -2.31130E+03
 -1.17800E+03  7.41433E+02 -1.76190E+03  2.58179E+03 -4.08307E+03  2.24863E+03 -7.16832E+03 -1.54489E+03
 -4.74003E+03 -5.93156E+03  1.66109E+03 -9.45187E+03  6.21647E+03 -9.07812E+03  9.00668E+03 -2.78669E+03
  8.37744E+03  3.34593E+03  5.46020E+03  8.22606E+03 -2.58021E+03  8.56208E+03 -6.31951E+03  6.62083E+03
 -9.45232E+03  1.17429E+02 -7.78961E+03 -5.72061E+03 -1.15772E+03 -7.88644E+03  4.09570E+03 -5.93432E+03
  4.84273E+03 -2.49395E+03  4.70036E+03  1.79796E+03  1.37536E+03  4.00711E+03  1.65859E+03  1.44447E+03
  1.98970E+03  8.35899E+02  2.32837E+03  4.79302E+02  3.56891E+03  3.24286E+03  1.75159E+03  4.80087E+03
 -1.68329E+03  8.02524E+03 -6.98261E+03  8.35997E+03 -9.92039E+03  2.86669E+03 -1.02366E+04 -4.48952E+03
 -3.20770E+03 -9.95639E+03  2.05591E+03 -9.70752E+03  5.45807E+03 -6.61458E+03  7.21185E+03 -2.06517E+03
  6.21764E+03  3.37326E+03  1.23228E+03  6.66391E+03 -2.40638E+03  4.16692E+03 -3.13959E+03 -9.47611E+02
 -1.18377E+03 -3.66486E+03  1.88484E+03 -5.26747E+03  4.06948E+03 -2.85924E+03  3.74961E+03  1.00446E+03
  2.36552E+03  1.98876E+03  2.14741E+03 -3.89020E+01 -4.79792E+02  1.47135E+03  2.49344E+03 -7.91428E+02
  1.16611E+03  5.42248E+02  4.24912E+03  3.14682E+03  2.70878E+03  5.20854E+03  2.54967E+02  7.60479E+03
 -4.93944E+03  5.42837E+03 -6.52047E+03  1.89840E+03 -5.86507E+03 -2.50519E+03 -1.14353E+03 -5.20865E+03
  7.99875E+02 -3.59177E+03  2.63576E+03 -2.46680E+03  3.11464E+03  2.10924E+03 -1.33570E+03  2.50888E+03
 -3.32858E+03  2.07812E+03 -4.16329E+03 -2.42130E+03 -2.25915E+02 -4.57860E+03  1.01848E+03 -5.06883E+03
  1.99946E+03 -3.10512E+03  4.07510E+03  4.79419E+02  2.32055E+03  6.43141E+02  8.55340E+01  2.54472E+03
 -5.92651E+02  8.02060E+02 -2.69602E+03 -1.36701E+03  8.46344E+02 -2.10863E+03  5.57790E+03 -2.41612E+03
  6.60805E+03 -6.68308E+02  6.76157E+03  3.99386E+03  1.51272E+03  6.50560E+03 -1.96610E+03  6.29003E+03
 -4.25179E+03  2.86064E+03 -3.96226E+03  6.79905E+02 -2.33560E+03 -3.14563E+03  1.88644E+03 -2.99050E+03
  2.62619E+03 -2.60913E+03  3.68544E+03  1.72496E+03  9.25750E+02  3.60601E+03  3.66002E+02  2.15645E+03
 -1.64706E+03  2.83065E+03 -1.96209E+03  5.47657E+02 -2.18865E+03 -2.67634E+02 -1.47219E+03 -2.00825E+02
 -2.29291E+03  2.62680E+03 -3.22158E+03  1.79061E+03 -5.66008E+03 -5.06494E+02 -6.48583E+03 -4.09198E+03
 -3.28055E+03 -7.73701E+03  2.41200E+03 -9.22947E+03  5.29588E+03 -8.10958E+03  8.76044E+03 -3.96614E+03
  7.48023E+03 -8.27760E+01  5.66763E+03  4.00242E+03  3.27581E+02  5.67902E+03 -1.92597E+03  4.59251E+03
 -3.34644E+03  1.00359E+03 -1.71024E+03  6.06951E+02 -1.01946E+03 -7.50556E+02 -6.35552E+01  2.41920E+02
 -1.26024E+03  5.43262E+02 -1.20700E+03  7.35593E+01 -6.36372E+02 -4.81080E+02 -8.30215E+02 -2.44168E+03
  3.73466E+03 -1.50808E+03  3.10090E+03  2.97834E+02  4.26888E+03  3.39401E+03  1.12577E+03  6.47639E+03
 -2.37481E+03  7.12615E+03 -6.07223E+03  4.22443E+03 -5.69633E+03 -1.29314E+02 -4.64477E+03 -5.05269E+03
 -2.74866E+03 -7.40640E+03  4.38168E+02 -6.33968E+03  2.72933E+03 -2.82391E+03  4.15810E+03 -6.91192E+01
  1.07471E+02  2.29388E+03  9.08839E+02  2.16542E+03 -3.33124E+02 -2.18200E+02 -3.06488E+02 -1.99032E+02
  1.42583E+03  4.34810E+02  1.89642E+03  2.32509E+02  2.27186E+03  1.70355E+03  3.55840E+02  2.60705E+03
 -2.76488E+03  2.55001E+03 -3.76540E+03  1.98132E+02 -3.45613E+03 -2.33815E+03 -1.84007E+02 -4.65926E+03
  2.56258E+03 -3.18744E+03  2.73659E+03 -7.61441E+02  4.64434E+03  1.07129E+03  3.49951E+03  3.66765E+03
  8.07817E+02  3.50726E+03 -2.59263E+03  2.56660E+03 -2.68378E+03  2.43900E+03 -2.43918E+03  7.15973E+02
  2.93803E+02 -1.09990E+03  1.20143E+01  5.24364E+02 -1.77052E+03  5.99236E+02 -3.03131E+03 -8.91137E+02
 -2.36517E+03 -7.31734E+02 -1.13600E+03 -3.00599E+03  1.60436E+03 -3.33184E+03  2.04529E+03 -1.28029E+03
  2.40019E+03  6.30881E+02  1.93620E+03  2.03211E+03 -1.79579E+02  4.13486E+03 -4.15529E+03  2.50077E+03
