 $NMID ID='MM_0lb_SNR200_18hz_g45_100.RAW', FMTDAT='(8E13.5)'
 TRAMP=1., VOLUME=1. $END
  3.09173E+05  5.53586E+02  3.37988E+05  2.50406E+05  8.40481E+04  3.37608E+05 -1.31728E+05  2.49961E+05
 -1.88814E+05  8.20896E+04 -1.11145E+05 -3.26868E+04  1.68571E+03 -5.00454E+04  5.38911E+04  1.60478E+02
  3.47784E+04  5.35269E+04 -1.74813E+04  7.47451E+04 -5.94919E+04  6.18179E+04 -8.34315E+04  3.04104E+04
 -7.97735E+04 -9.94662E+03 -5.63669E+04 -5.02474E+04 -1.60540E+04 -6.83532E+04  2.73829E+04 -4.43260E+04
  3.97925E+04  3.97917E+03  1.53305E+04  4.65914E+04 -3.42106E+04  4.65662E+04 -6.59914E+04 -9.84560E+02
 -5.17472E+04 -5.61281E+04 -6.18161E+03 -7.53453E+04  3.33457E+04 -5.38898E+04  4.52094E+04 -1.57729E+04
  4.09738E+04  1.08961E+04  2.97193E+04  2.47246E+04  1.51435E+04  2.80907E+04 -4.61577E+03  2.66738E+04
 -2.26306E+04  1.18440E+04 -1.87717E+04 -4.93507E+03  4.47981E+03 -7.24368E+03  2.16097E+04  1.02297E+04
  7.23410E+03  3.28798E+04 -3.04265E+04  3.47361E+04 -6.18682E+04  2.56985E+03 -5.50978E+04 -4.11444E+04
 -1.35642E+04 -6.13003E+04  3.88723E+04 -4.25203E+04  5.45851E+04 -2.69125E+03  3.19058E+04  3.05936E+04
 -7.12421E+03  3.43726E+04 -2.84303E+04  1.40835E+04 -2.79941E+04 -6.55230E+03 -1.38936E+04 -1.01490E+04
 -7.20776E+03 -1.16756E+04 -4.65852E+02 -1.66649E+04  6.86457E+03 -2.28171E+04  1.53026E+04 -1.37281E+04
  1.26633E+04  3.81067E+03 -6.25056E+03  1.31513E+04 -1.98743E+04 -2.32948E+03 -7.23164E+03 -3.07103E+04
  2.06575E+04 -4.00677E+04  4.45076E+04 -1.80481E+04  4.18736E+04  1.78314E+04  1.50543E+04  4.19892E+04
 -1.51359E+04  3.11007E+04 -2.41169E+04  1.95351E+03 -9.15947E+03 -2.66611E+04  1.99181E+04 -3.09192E+04
  3.84263E+04 -7.18473E+03  3.16816E+04  2.30094E+04  1.54209E+04  4.16507E+04 -6.81197E+03  4.65802E+04
 -2.79731E+04  2.97757E+04 -3.83344E+04  8.55556E+03 -3.86527E+04 -1.46464E+04 -2.07863E+04 -3.52206E+04
  7.33719E+03 -3.36912E+04  2.91830E+04 -1.31050E+04  2.75481E+04  1.18878E+04  2.06679E+03  1.79622E+04
 -1.26977E+04  7.53030E+03 -1.01237E+04 -6.58448E+03  6.03459E+03 -9.46175E+03  1.66817E+04  4.76684E+03
  1.22447E+04  2.22208E+04 -6.18289E+03  2.33420E+04 -2.16692E+04  9.04317E+03 -2.59479E+04 -6.97086E+03
 -1.66107E+04 -1.65645E+04 -6.23429E+03 -1.67076E+04  3.76775E+03 -1.55600E+04  1.27953E+04 -1.45521E+04
  2.19961E+04 -1.13746E+04  2.85549E+04  1.83909E+03  2.23348E+04  1.66076E+04  4.15704E+03  3.27723E+04
 -1.61774E+04  2.84625E+04 -2.64989E+04  9.22331E+03 -2.02261E+04 -1.03166E+04 -4.31732E+03 -1.49005E+04
  1.47577E+03 -3.29603E+03 -2.96346E+03  5.27157E+03 -1.44264E+04  5.28528E+03 -1.32061E+04 -5.84601E+03
 -8.92575E+03 -1.45000E+04  5.18281E+03 -2.03624E+04  1.28534E+04 -1.32985E+04  1.51846E+04 -1.05442E+03
  1.00651E+04  1.10159E+04 -1.51447E+03  1.56648E+04 -1.07102E+04  9.09299E+03 -1.64067E+04 -2.95823E+03
 -1.14566E+04 -1.45777E+04 -1.74821E+03 -2.03031E+04  8.96194E+03 -1.60721E+04  1.65733E+04 -7.24973E+03
  1.40320E+04  1.22304E+03  1.05208E+04  4.22401E+03  5.17784E+03  2.32532E+02  6.89465E+03 -1.83296E+03
  1.50704E+04  2.54035E+03  1.45443E+04  1.26932E+04  9.28427E+03  2.49313E+04 -3.51889E+03  2.61649E+04
 -1.51934E+04  2.15471E+04 -2.38243E+04  1.00696E+04 -2.51619E+04 -2.63169E+03 -2.02552E+04 -1.43938E+04
 -1.00873E+04 -1.99518E+04  6.66139E+03 -1.88414E+04  1.70715E+04 -1.02730E+04  1.59434E+04  3.16691E+03
  6.25103E+03  1.16357E+04 -6.85212E+03  1.10269E+04 -1.23562E+04  2.47094E+03 -1.10585E+04 -8.09990E+03
 -8.54528E+02 -1.24311E+04  6.57034E+03 -9.31478E+03  8.15188E+03 -1.65165E+03  1.25633E+03  5.34852E+03
 -6.05939E+03  1.44278E+03 -4.67295E+03 -4.01964E+03  1.24565E+03 -1.04916E+04  7.47337E+03 -1.01616E+04
  1.19788E+04 -4.60368E+03  1.21429E+04  2.71707E+03  1.14184E+04  9.76909E+03  5.39210E+03  1.42040E+04
 -2.07231E+03  1.56167E+04 -9.06512E+03  1.05317E+04 -1.13236E+04  2.69290E+03 -8.84327E+03 -2.42339E+03
 -4.31036E+03 -2.65902E+03 -7.56399E+02  6.32935E+02 -1.46850E+03  1.48519E+03 -3.04982E+03  3.34734E+03
 -7.70263E+03 -7.99116E+02 -9.39739E+03 -7.14895E+03 -4.12895E+03 -1.08998E+04  3.87242E+03 -8.41443E+03
  5.89370E+03 -4.59969E+03  5.74094E+03  2.87774E+03  6.19940E+01  2.33755E+03 -4.08598E+03  4.48683E+01
 -3.00847E+03 -5.28532E+03 -9.95621E+02 -6.21328E+03  3.65453E+03 -7.75703E+03  1.00393E+04 -5.12432E+03
  1.24686E+04  5.05831E+02  8.80186E+03  5.41785E+03  9.39168E+02  9.52745E+03 -6.09385E+03  8.01071E+03
 -7.95484E+03  3.27774E+03 -2.92052E+03 -1.48355E+03  6.64462E+02 -1.44152E+03  4.74088E+03 -1.14242E+03
  4.20983E+03  3.67241E+03  1.77293E+02  6.51023E+03 -5.01177E+03  5.39855E+03 -8.34677E+03  4.84449E+02
 -4.88836E+03 -3.64826E+03  4.35504E+02 -6.41972E+03  3.99919E+03 -2.79956E+03  4.15432E+03  1.47954E+03
  3.52678E+02  3.58131E+03 -5.32618E+03  5.22723E+03 -4.33584E+03  1.28311E+03 -4.32584E+03 -1.26976E+03
 -3.34966E+03 -6.10595E+03  1.71658E+03 -7.92823E+03  5.90298E+03 -3.92123E+03  6.38951E+03  1.35089E+03
  4.96283E+03  4.96275E+03  2.41117E+02  7.56235E+03 -4.90080E+03  3.63577E+03 -5.93948E+03 -2.43181E+02
 -5.61282E+03 -5.05940E+03 -1.29405E+03 -3.98305E+03  2.27133E+03 -5.49392E+03  3.53427E+03 -2.54064E+03
  3.09064E+03 -1.02074E+03  5.95341E+02  1.38205E+03  1.46474E+02  1.95040E+02  8.56309E+02 -2.76883E+03
  4.75875E+03 -8.88826E+02  5.02800E+03  1.02725E+03  5.72292E+03  3.06975E+03  5.58591E+03  7.71738E+03
 -2.13456E+03  8.48487E+03 -7.65737E+03  7.47943E+03 -1.09542E+04  1.89571E+03 -8.12812E+03 -3.12545E+03
 -4.53376E+03 -7.01536E+03  5.82865E+02 -4.74738E+03  2.00015E+03 -2.06610E+03  1.88724E+03 -2.15673E+03
  1.97719E+03 -2.28199E+03  2.73093E+03 -2.06406E+03  4.54205E+03 -3.57844E+02  3.65756E+03  8.68694E+02
  4.45700E+03  1.20943E+03  1.07004E+03  3.82148E+03 -1.53971E+03  4.04245E+03 -5.80674E+03  2.43777E+03
 -4.87421E+03 -1.67474E+03 -1.91035E+03 -4.17196E+03 -2.87466E+02 -3.89295E+03  2.54620E+03 -5.96293E+03
  5.60224E+03 -4.09281E+03  7.45967E+03 -3.79291E+02  4.42157E+03  4.71800E+03  1.32827E+02  5.90252E+03
 -1.39484E+03  6.17258E+03 -2.36792E+03  1.80195E+03 -2.44519E+03 -1.20068E+03 -1.28138E+03 -1.52564E+03
 -6.11987E+02  6.35749E+02 -1.71696E+03  2.36578E+03 -2.86880E+03  2.27993E+02 -4.09415E+03 -1.06555E+03
 -1.36019E+03 -4.48795E+03 -3.97915E+01 -4.93128E+03  3.42292E+03 -5.41408E+03  3.76568E+03 -1.58987E+03
  5.12522E+03  2.93658E+03  1.06686E+03  4.22791E+03 -1.88288E+03  4.25049E+03 -2.48788E+03  3.85071E+03
 -3.61593E+03  9.92316E+02 -3.24779E+03 -2.81714E+03  5.61290E+02 -3.17349E+03  1.73154E+03 -2.67673E+03
  3.09228E+03 -1.28176E+03  1.68138E+03  9.39785E+02  1.59242E+02  1.46767E+03  1.02316E+02  3.16554E+02
  1.31048E+03  1.62366E+03  1.31265E+03  7.13802E+02  8.85480E+02  2.71277E+03  1.50839E+03  2.81877E+03
 -2.13024E+03  2.24750E+03 -2.97649E+03  5.17448E+03 -2.47437E+03  1.77345E+03 -3.38122E+03  3.68462E+02
 -3.07967E+03 -3.24118E+03  9.38106E+02 -4.48569E+03  9.75079E+02 -3.36053E+03  2.25070E+03 -2.51202E+02
  2.46694E+03  3.38206E+03  2.10172E+01  1.83399E+03  1.22954E+02  1.35768E+03  7.21602E+01 -2.34183E+02
 -7.49567E+02 -2.07077E+03  1.91437E+03 -1.96600E+03  1.84326E+03 -1.38180E+03  1.16618E+03  1.02448E+03
  1.41076E+03 -5.47502E+02  3.78577E+02  7.15329E+02 -1.95084E+02  8.99407E+02  1.32186E+03  7.58895E+01
 -3.31864E+02 -3.16428E+02  2.23093E+03  9.64118E+02  8.22886E+02  2.87286E+03  3.85654E+02  3.60300E+03
 -1.64588E+03  1.78210E+03 -1.62239E+03  8.69829E+02 -3.11841E+03 -4.29287E+02 -4.45140E+01 -1.28480E+03
 -2.67206E+02 -5.41519E+02  4.55915E+02 -6.40269E+02  1.43511E+03  6.74957E+02  1.45091E-01 -8.75243E+01
 -1.96585E+03  9.21759E+02 -8.82610E+02 -1.21752E+02 -1.62499E+03 -2.19007E+03  5.33491E+02 -1.96415E+03
  1.41563E+03 -4.12866E+02  1.56622E+03  2.58807E+02  6.39518E+02 -3.85974E+02  6.69927E+02  6.10684E+02
 -8.39417E+02  6.34512E+02 -2.03727E+03 -1.02619E+03  6.95386E+02 -9.94384E+02  2.48480E+03 -7.94764E+02
  1.41479E+03 -2.14834E+02  2.71648E+03  3.34886E+02  6.53705E+01  1.61133E+03 -1.09949E+02  9.40767E+02
 -2.59417E+03  1.25155E+03 -1.63708E+03 -2.43678E+02 -1.07199E+02 -2.60472E+03  2.72938E+02 -1.77217E+03
  1.91152E+03 -4.88803E+02  1.16764E+03  1.09279E+03  8.39082E+02  1.64080E+03 -6.46504E+01  1.05635E+03
 -1.28386E+03  4.94700E+02 -2.54710E+02  1.88535E+02 -1.65427E+02 -1.02258E+02 -1.21611E+03  1.51882E+03
 -1.10542E+03  1.28345E+03 -2.33125E+03  1.69396E+03 -3.32097E+03  3.57818E+02 -2.47761E+03 -1.41282E+03
 -6.23490E+02 -2.75073E+03  7.87808E+02 -2.05281E+03  1.15542E+03 -2.78992E+03  3.10296E+03 -1.59961E+02
  3.77204E+03 -1.09792E+03  1.23038E+03  1.96544E+03 -4.64280E+02  1.45646E+03 -1.59990E+03  1.89564E+03
 -5.23769E+02  7.28523E+02 -5.75289E+02  3.61554E+02 -2.25240E+02  9.01951E+02 -7.35062E+02 -6.50934E+02
 -2.42894E+03 -1.42341E+03 -2.34817E+02 -2.87112E+02 -3.96042E+01 -3.54728E+02  6.01712E+02 -1.37051E+03
  1.00298E+03 -6.15131E+02  4.87114E+02 -9.51304E+01  1.71689E+03  9.97107E+02 -7.93579E+02  2.20862E+03
 -1.02658E+03  3.05430E+03 -1.64509E+03  1.27327E+03 -1.59908E+03 -6.87467E+01 -1.37135E+03 -1.11062E+03
 -1.51226E+03 -1.19094E+03  1.08244E+03 -1.30784E+03  8.27149E+01 -1.03637E+03  1.43010E+03  1.11841E+02
  7.10402E+02 -8.85066E+02 -2.91743E+02  7.33237E+02 -9.54619E+02 -3.16212E+02  7.37201E+01  5.33184E+02
  3.26846E+02  1.15351E+01  1.72192E+03  2.18268E+02  6.44264E+02  7.69869E+02  3.79273E+02  6.10517E+02
 -1.54611E+03  1.06737E+03 -4.83564E+02  2.29334E+02 -9.59751E+02 -1.12521E+03  5.49065E+02 -7.14193E+02
  2.50034E+02 -1.02641E+03  1.94009E+03  5.27246E+02  1.22292E+03 -1.45072E+02  5.59806E+02  4.52475E+02
 -2.11669E+02  5.46639E+02  7.33401E+01  1.32546E+03 -2.33406E+02  8.53967E+02  1.09345E+02  8.26632E+02
 -1.55745E+02 -1.66405E+03 -9.87797E+02  1.26075E+03  2.82730E+02  3.16498E+02 -2.03678E+03 -1.39675E+02
 -9.08272E+02 -2.96323E+02 -9.13494E+02 -1.70399E+03  1.64088E+02 -1.84551E+03  5.35017E+02 -1.08567E+03
  8.60368E+02  4.04539E+02 -9.45950E+02 -1.10176E+03 -1.97466E+02  7.01480E+02 -3.41579E+02 -1.86748E+02
