 $NMID ID='MM_0lb_SNR200_13hz_g45_32.RAW', FMTDAT='(8E13.5)'
 TRAMP=1., VOLUME=1. $END
  3.09357E+05  6.75038E+02  3.37880E+05  2.50813E+05  8.44470E+04  3.38201E+05 -1.32086E+05  2.50929E+05
 -1.91795E+05  8.30331E+04 -1.11958E+05 -3.37309E+04  1.52579E+03 -5.06528E+04  5.31936E+04  3.42160E+02
  3.44639E+04  5.34392E+04 -1.60970E+04  7.53959E+04 -6.08413E+04  6.41206E+04 -8.50928E+04  3.21874E+04
 -8.03743E+04 -1.13747E+04 -5.75876E+04 -5.10351E+04 -1.48301E+04 -7.08665E+04  2.71751E+04 -4.49563E+04
  4.05816E+04  3.82856E+03  1.67986E+04  4.69548E+04 -3.44746E+04  4.69350E+04 -6.52711E+04  4.25691E+02
 -5.36423E+04 -5.58377E+04 -7.38303E+03 -7.70479E+04  3.36161E+04 -5.36679E+04  4.79440E+04 -1.76288E+04
  4.39725E+04  1.10708E+04  3.15070E+04  2.54123E+04  1.67750E+04  2.96140E+04 -4.69888E+03  2.73603E+04
 -2.28144E+04  1.31599E+04 -1.71219E+04 -4.24217E+03  5.78321E+03 -6.44317E+03  2.31006E+04  1.17337E+04
  7.34678E+03  3.65740E+04 -3.29032E+04  3.63624E+04 -6.31058E+04  2.26547E+03 -5.68785E+04 -4.36775E+04
 -1.23834E+04 -6.38114E+04  4.04334E+04 -4.53817E+04  5.92877E+04 -2.16191E+03  3.50990E+04  3.24952E+04
 -5.88293E+03  3.58102E+04 -3.06324E+04  1.71058E+04 -2.96811E+04 -3.95260E+03 -1.66336E+04 -1.12186E+04
 -8.26258E+03 -1.34742E+04 -7.37036E+02 -1.79258E+04  6.63621E+03 -2.30940E+04  1.56867E+04 -1.17918E+04
  1.15375E+04  5.33742E+03 -8.40729E+03  1.26178E+04 -2.00842E+04 -4.40233E+03 -9.15244E+03 -3.47645E+04
  2.21536E+04 -4.37375E+04  4.94800E+04 -1.89833E+04  4.60370E+04  2.02123E+04  1.49907E+04  4.50642E+04
 -1.54484E+04  3.34470E+04 -2.71880E+04  2.74977E+03 -9.64421E+03 -2.71912E+04  2.07452E+04 -3.46725E+04
  4.19553E+04 -7.62103E+03  3.54274E+04  2.47008E+04  1.79365E+04  4.70432E+04 -7.21688E+03  5.10917E+04
 -3.17666E+04  3.54375E+04 -4.18635E+04  9.24017E+03 -4.38292E+04 -1.85007E+04 -2.45305E+04 -3.75039E+04
  7.17605E+03 -3.80328E+04  3.10540E+04 -1.40222E+04  2.80068E+04  9.41204E+03  4.26364E+03  1.86037E+04
 -1.30526E+04  9.12361E+03 -1.05073E+04 -7.67142E+03  6.12285E+03 -1.16258E+04  1.81090E+04  6.56191E+03
  1.28995E+04  2.14752E+04 -5.42663E+03  2.40969E+04 -2.29081E+04  1.27599E+04 -2.88223E+04 -4.81461E+03
 -2.14099E+04 -1.73411E+04 -7.95861E+03 -2.07821E+04  3.46925E+03 -2.02429E+04  1.48723E+04 -1.89016E+04
  2.74570E+04 -1.21977E+04  3.37576E+04  3.09695E+03  2.35470E+04  1.96524E+04  3.25253E+03  3.79915E+04
 -1.86094E+04  3.06876E+04 -2.83857E+04  1.04258E+04 -2.04415E+04 -1.09980E+04 -3.96451E+03 -1.23854E+04
  9.89041E+02 -2.44169E+03 -5.40817E+03  8.02648E+03 -1.63618E+04  6.47628E+03 -1.66834E+04 -7.02535E+03
 -9.44664E+03 -1.91039E+04  3.42122E+03 -2.39591E+04  1.58316E+04 -1.71461E+04  1.91974E+04 -8.32798E+02
  1.26282E+04  1.36162E+04 -1.04655E+03  1.94378E+04 -1.46909E+04  1.02313E+04 -1.91567E+04 -4.06041E+03
 -1.27755E+04 -1.76851E+04 -1.62537E+03 -2.49567E+04  9.93525E+03 -1.89166E+04  1.97868E+04 -8.54971E+03
  1.92658E+04  1.10333E+03  1.40187E+04  4.83889E+03  7.02998E+03  1.50550E+03  9.34318E+03 -2.07861E+03
  1.79963E+04  2.50961E+03  2.01993E+04  1.56915E+04  1.35757E+04  3.04496E+04 -2.60591E+03  3.57720E+04
 -1.95724E+04  2.95418E+04 -3.26214E+04  1.36681E+04 -3.49642E+04 -2.81999E+03 -2.83626E+04 -2.06328E+04
 -1.23669E+04 -2.85867E+04  9.75685E+03 -2.59379E+04  2.23552E+04 -1.29030E+04  1.86797E+04  5.42091E+03
  6.60388E+03  1.43084E+04 -9.06404E+03  1.26827E+04 -1.79319E+04  3.11090E+03 -1.25015E+04 -1.02407E+04
  9.85845E+01 -1.55109E+04  9.21296E+03 -1.14330E+04  1.13085E+04 -1.17063E+03  3.06155E+03  7.01071E+03
 -7.65083E+03  3.64099E+03 -6.06061E+03 -4.43883E+03 -5.32964E+02 -1.37131E+04  1.05906E+04 -1.55549E+04
  1.71955E+04 -8.25009E+03  1.88909E+04  3.02327E+03  1.59511E+04  1.26659E+04  8.22109E+03  2.09710E+04
 -3.74853E+03  2.30043E+04 -1.70423E+04  1.36731E+04 -1.74299E+04  2.99494E+03 -1.17080E+04 -3.01251E+03
 -4.74334E+03 -5.45874E+03 -1.48620E+02 -3.45564E+02 -1.52723E+03  2.27289E+03 -4.97703E+03  3.44952E+03
 -1.10224E+04 -5.52330E+02 -1.21530E+04 -8.63916E+03 -5.34953E+03 -1.52621E+04  4.65681E+03 -1.24501E+04
  1.05182E+04 -4.72975E+03  6.34356E+03  3.35319E+03 -2.09182E+02  4.50715E+03 -5.82681E+03  1.75016E+02
 -5.00369E+03 -7.07667E+03 -1.15237E+03 -1.03502E+04  7.04085E+03 -1.31237E+04  1.44945E+04 -5.53879E+03
  1.68868E+04  2.96600E+02  1.32394E+04  1.07788E+04  2.39793E+03  1.31935E+04 -7.09315E+03  1.18874E+04
 -9.97156E+03  4.10244E+03 -4.72181E+03 -3.08782E+03  1.17081E+03 -2.40791E+03  7.16449E+03 -1.40756E+03
  5.54376E+03  4.94301E+03 -2.32869E+02  9.89065E+03 -6.48806E+03  8.13324E+03 -1.06082E+04  1.61279E+03
 -8.11904E+03 -5.73970E+03  8.41065E+02 -9.58504E+03  7.14169E+03 -4.58926E+03  6.41535E+03  3.17413E+03
  8.57339E+02  6.91134E+03 -5.09273E+03  6.87691E+03 -9.17296E+03  4.38016E+03 -8.12791E+03 -3.29630E+03
 -5.66696E+03 -9.29811E+03  1.13922E+03 -1.27168E+04  1.04218E+04 -7.44180E+03  1.17680E+04  2.62554E+03
  6.79944E+03  8.17652E+03 -1.52664E+03  1.08529E+04 -9.14487E+03  6.78923E+03 -8.71646E+03 -1.05483E+03
 -7.60710E+03 -7.83462E+03 -1.00904E+03 -7.70625E+03  4.90475E+03 -8.79906E+03  4.80734E+03 -3.47742E+03
  3.37795E+03  1.16382E+03 -1.00422E+03  1.52512E+03 -4.23182E+02 -2.63052E+03  3.85477E+02 -4.05857E+03
  7.41612E+03 -2.48890E+03  1.06300E+04  1.64140E+03  9.96434E+03  7.09391E+03  7.77097E+03  1.38292E+04
 -2.96559E+03  1.42428E+04 -1.30089E+04  1.00546E+04 -1.67173E+04  2.57506E+03 -1.30576E+04 -5.03845E+03
 -7.63476E+03 -1.10078E+04  5.84844E+02 -1.02254E+04  4.31819E+03 -4.44346E+03  3.76558E+03 -3.46390E+03
  3.38328E+03 -1.60013E+03  1.59710E+03 -2.65916E+03  4.58532E+03 -2.49081E+03  5.18567E+03 -2.34349E+02
  7.41033E+03  7.95464E+02  2.41672E+03  7.19010E+03 -2.01774E+03  5.92600E+03 -7.89599E+03  6.11685E+03
 -9.50347E+03 -1.68468E+03 -5.43867E+03 -5.34935E+03  5.30891E+01 -8.90039E+03  6.95566E+03 -1.02502E+04
  1.08431E+04 -6.10533E+03  1.15932E+04  4.90726E+02  9.79143E+03  7.25095E+03  1.47566E+03  1.21831E+04
 -4.64050E+03  1.08593E+04 -5.87512E+03  4.14089E+03 -3.48304E+03 -1.06602E+03 -5.46754E+02 -7.99074E+02
 -1.08926E+03  3.32986E+02 -1.50383E+03  2.01464E+03 -4.75066E+03  7.18058E+02 -5.71885E+03 -8.43432E+02
 -3.71143E+03 -6.01252E+03  1.27475E+03 -8.36177E+03  5.95530E+03 -9.04082E+03  8.94540E+03 -2.74166E+03
  8.63203E+03  3.98729E+03  3.31404E+03  5.93677E+03 -1.58326E+03  9.50482E+03 -6.20828E+03  5.28304E+03
 -8.05825E+03  7.20230E+02 -6.65784E+03 -5.07206E+03 -9.70806E+02 -8.82444E+03  3.36347E+03 -5.94141E+03
  5.29555E+03 -3.01615E+03  2.89420E+03  2.00016E+03  3.60538E+02  2.92505E+03  1.06628E+03  2.61903E+03
  3.01673E+03  5.08242E+02  2.89349E+03  1.57905E+03  3.05608E+03  2.78476E+03  1.65532E+03  4.78470E+03
 -2.82682E+03  6.41744E+03 -4.68552E+03  6.52707E+03 -8.93245E+03  1.69372E+03 -9.15362E+03 -3.39454E+03
 -2.84001E+03 -9.12692E+03  2.10359E+02 -9.56081E+03  5.15261E+03 -6.30236E+03  6.58447E+03 -2.92346E+03
  4.52224E+03  1.92911E+03  1.29095E+03  4.87318E+03 -2.54995E+03  4.00568E+03 -2.93852E+03 -2.95848E+02
 -2.58271E+03 -2.76510E+03  1.89831E+03 -3.24008E+03  4.23242E+03 -1.44060E+03  2.58882E+03  1.97233E+03
  1.71409E+03  4.48922E+02  1.65029E+03  1.47527E+03  4.48237E+02 -4.06091E+02  1.82211E+03 -6.30461E+02
  1.13081E+03  9.14156E+02  2.08231E+03  6.23001E+02  2.94170E+03  3.72620E+03 -4.30140E+00  6.03204E+03
 -3.35206E+03  2.95064E+03 -5.79581E+03 -2.12606E+02 -5.72791E+03  8.49420E+01 -6.56549E+02 -1.38559E+03
  1.56597E+03 -2.67202E+03  1.98610E+03 -2.45476E+03  1.12948E+03  2.19970E+03 -1.24006E+03  2.46604E+03
 -3.38307E+03  2.19852E+03 -3.23196E+03 -2.41796E+03 -2.54139E+03 -4.41164E+03  1.49926E+03 -3.80318E+03
  2.75253E+03 -3.06607E+03  3.72958E+03  5.39530E+02  2.63651E+03  1.62394E+03  3.74356E+02  1.91301E+03
 -1.41373E+03  1.79827E+03 -2.33879E+03 -1.34916E+03  7.05366E+02 -4.31685E+03  3.62961E+03 -2.55028E+03
  5.08923E+03 -4.11443E+02  6.08205E+03  2.95993E+03  8.84142E+02  5.60123E+03 -1.90223E+03  6.08635E+03
 -4.80754E+03  2.62390E+03 -3.96925E+03 -8.30612E+02 -2.00383E+03 -3.25141E+03  1.12914E+03 -4.29827E+03
  3.49430E+03 -1.53622E+03  2.10229E+03  2.36340E+03  5.96431E+02  3.51526E+03  1.99554E+02  4.08383E+03
 -1.64723E+03  1.49652E+03 -1.00715E+03  1.68586E+03 -1.29303E+03  1.65495E+03 -6.05208E+02  1.91689E+03
 -1.46147E+03  1.66129E+03 -3.74261E+03  1.20913E+03 -4.52325E+03  3.01340E+02 -5.36190E+03 -3.29963E+03
 -3.31368E+03 -6.91455E+03  1.51143E+03 -8.04094E+03  5.58278E+03 -5.30728E+03  7.40540E+03 -2.07816E+03
  5.28098E+03  2.83477E+03  4.27490E+03  3.42738E+03  4.14315E+02  4.96811E+03 -2.59018E+03  4.55623E+03
 -1.76814E+03  1.33389E+03 -2.56064E+03 -1.35891E+03 -8.34475E+02 -1.44026E+02 -1.02117E+03 -3.08709E+01
 -1.89028E+03 -6.54002E+01  3.75635E+02 -2.86816E+02 -7.47156E+02 -1.41912E+03  2.27782E+02 -1.79746E+03
  3.00279E+03 -2.30731E+03  2.29045E+03 -1.16243E+03  3.49098E+03  2.49120E+03  1.10796E+03  5.47785E+03
 -3.78271E+03  5.32126E+03 -4.76205E+03  3.04371E+03 -5.68874E+03  1.84118E+02 -4.07348E+03 -4.64173E+03
 -1.84332E+03 -5.54732E+03  1.09728E+03 -4.30644E+03  2.39254E+03 -2.00086E+03  2.42641E+03  2.40950E+02
  1.43486E+03  8.31134E+02 -6.49901E+02  1.31543E+03 -1.24443E+03  2.92669E+02  1.71931E+03 -2.12674E+03
  1.11112E+03  5.92927E+02  1.22561E+03  6.43613E+02  4.49264E+02  3.87402E+02  9.52539E+02  3.02611E+03
 -1.76713E+03  3.13975E+03 -3.50659E+03  1.16275E+02 -2.65557E+03 -2.12578E+03 -1.55642E+03 -4.35449E+03
  3.34466E+03 -3.40001E+03  2.59089E+03 -1.66179E+03  3.31125E+03 -2.27038E+02  1.55130E+03  3.67145E+03
 -1.73569E+02  3.14867E+03 -1.20890E+03  3.30604E+03 -2.15813E+03  1.88823E+03 -9.43445E+02  2.89457E+02
 -3.27543E+02 -1.12851E+01 -1.29797E+03  3.09586E+01 -1.13409E+03  1.48111E+03 -1.82056E+03  1.31206E+02
 -3.14567E+03 -6.38993E+02 -2.49981E+02 -2.93205E+03  8.85254E+02 -3.34708E+03  2.74937E+03  1.12650E+02
  1.53846E+03  3.00718E+02 -8.30468E+02  1.95642E+03 -4.30302E+02  3.19282E+03 -2.78079E+03  1.34951E+03
