 $NMID ID='MM_0lb_SNR200_8hz_g55_46.RAW', FMTDAT='(8E13.5)'
 TRAMP=1., VOLUME=1. $END
  3.09833E+05  4.19799E+02  3.37881E+05  2.48951E+05  8.69571E+04  3.38299E+05 -1.33056E+05  2.53112E+05
 -1.93472E+05  8.36092E+04 -1.13364E+05 -3.24366E+04  6.88338E+02 -5.00190E+04  5.39260E+04 -5.80607E+02
  3.59234E+04  5.32970E+04 -1.57039E+04  7.56107E+04 -6.29239E+04  6.27747E+04 -8.63032E+04  3.28514E+04
 -8.21763E+04 -1.22228E+04 -5.82554E+04 -5.36085E+04 -1.76168E+04 -7.17667E+04  2.78250E+04 -4.67769E+04
  3.92484E+04  3.71007E+03  1.73648E+04  4.79381E+04 -3.33019E+04  4.87277E+04 -6.82333E+04 -1.18253E+03
 -5.59294E+04 -5.60740E+04 -7.16484E+03 -7.98629E+04  3.54661E+04 -5.81509E+04  5.04352E+04 -1.86039E+04
  4.49519E+04  1.16291E+04  3.15314E+04  2.82139E+04  1.52148E+04  3.08658E+04 -5.29018E+03  2.83346E+04
 -2.19052E+04  1.05404E+04 -1.77574E+04 -5.08283E+03  7.32470E+03 -6.55616E+03  2.38820E+04  1.40505E+04
  7.94155E+03  3.50797E+04 -3.38299E+04  3.72355E+04 -6.71917E+04  2.95032E+03 -5.82712E+04 -4.49176E+04
 -1.47301E+04 -6.79335E+04  4.29317E+04 -4.72150E+04  6.29108E+04 -2.46679E+03  3.66587E+04  3.55454E+04
 -4.17858E+03  4.02883E+04 -2.95644E+04  1.88214E+04 -3.42632E+04 -3.43888E+03 -1.96449E+04 -1.17860E+04
 -9.04801E+03 -1.69704E+04 -8.18864E+02 -2.10518E+04  7.20104E+03 -2.18030E+04  1.59657E+04 -1.26596E+04
  9.12440E+03  6.28812E+03 -1.00125E+04  1.15001E+04 -2.47889E+04 -7.16696E+03 -9.73876E+03 -3.80173E+04
  2.67240E+04 -4.79979E+04  5.40311E+04 -1.96695E+04  5.10037E+04  2.07658E+04  1.67461E+04  4.92851E+04
 -1.78071E+04  3.84230E+04 -2.81119E+04  2.89816E+03 -1.31987E+04 -3.03513E+04  2.45655E+04 -3.88483E+04
  4.69501E+04 -1.16930E+04  4.16800E+04  2.63935E+04  2.28582E+04  5.24821E+04 -8.81354E+03  5.84731E+04
 -3.78107E+04  3.91518E+04 -4.90805E+04  1.25372E+04 -5.00220E+04 -1.91784E+04 -2.81729E+04 -4.42512E+04
  9.69195E+03 -4.41723E+04  3.46292E+04 -1.87122E+04  3.21518E+04  1.09601E+04  6.04362E+03  2.07214E+04
 -1.51307E+04  1.06471E+04 -1.21806E+04 -7.16723E+03  6.30964E+03 -1.22020E+04  1.78902E+04  4.97781E+03
  1.34115E+04  2.38694E+04 -5.30092E+03  2.58360E+04 -2.33880E+04  1.43999E+04 -3.26153E+04 -2.13770E+03
 -2.47812E+04 -1.82301E+04 -1.30214E+04 -2.63326E+04  5.31623E+03 -2.73637E+04  2.28451E+04 -2.54552E+04
  3.31086E+04 -1.45260E+04  3.92013E+04  5.18278E+03  2.94621E+04  2.51357E+04  6.08601E+03  4.23788E+04
 -2.02225E+04  3.49177E+04 -3.06286E+04  1.26014E+04 -2.23069E+04 -1.07016E+04 -5.09179E+03 -1.34832E+04
  2.00132E+03 -8.05637E+02 -8.02788E+03  9.45252E+03 -2.15295E+04  5.04218E+03 -2.15372E+04 -9.52390E+03
 -1.23277E+04 -2.65982E+04  4.88576E+03 -2.99739E+04  1.89553E+04 -2.28731E+04  2.38249E+04 -1.43117E+03
  1.43348E+04  1.59695E+04 -1.70234E+03  2.37905E+04 -1.76947E+04  1.32577E+04 -2.42950E+04 -3.48634E+03
 -1.85958E+04 -2.25169E+04 -2.56161E+03 -2.83778E+04  1.22291E+04 -2.37907E+04  2.52062E+04 -1.12277E+04
  2.34929E+04  6.36968E+01  1.71292E+04  4.19866E+03  9.10445E+03  2.95600E+03  1.36197E+04 -2.56984E+03
  2.31938E+04  2.33409E+03  2.60635E+04  2.06943E+04  1.81897E+04  4.03281E+04 -2.28946E+03  4.55228E+04
 -2.77706E+04  3.95290E+04 -4.48372E+04  2.10043E+04 -4.76602E+04 -3.41633E+03 -3.98421E+04 -2.92130E+04
 -1.56335E+04 -4.01911E+04  1.38844E+04 -3.57114E+04  3.12179E+04 -1.66141E+04  2.57439E+04  7.32075E+03
  9.09129E+03  2.11437E+04 -1.16431E+04  1.62910E+04 -2.12929E+04  1.58401E+03 -1.46807E+04 -1.40064E+04
  6.66613E+02 -2.11113E+04  1.02021E+04 -1.51387E+04  1.29883E+04 -2.81680E+03  4.43998E+03  1.10707E+04
 -9.38092E+03  5.64607E+03 -9.52330E+03 -8.09747E+03 -3.78716E+03 -2.06935E+04  1.27637E+04 -2.22554E+04
  2.59641E+04 -1.37215E+04  2.97410E+04  3.19756E+03  2.52198E+04  2.21252E+04  1.31682E+04  2.99803E+04
 -7.03102E+03  3.40284E+04 -2.30152E+04  2.24423E+04 -2.37724E+04  3.11482E+03 -1.44974E+04 -6.81851E+03
 -7.55447E+03 -7.88561E+03 -2.64786E+02 -6.54528E+02 -3.54161E+03  2.19846E+03 -7.46191E+03  7.94100E+03
 -1.44034E+04 -1.51728E+03 -1.61689E+04 -1.42508E+04 -6.81010E+03 -2.00245E+04  6.57677E+03 -1.55888E+04
  1.20045E+04 -5.53447E+03  1.06921E+04  6.00891E+03  1.30946E+03  9.11040E+03 -9.91208E+03 -6.69880E+02
 -8.29793E+03 -1.08051E+04 -1.20597E+03 -1.68786E+04  9.31967E+03 -1.80452E+04  2.08036E+04 -9.99720E+03
  2.54704E+04  3.81100E+03  1.83060E+04  1.78246E+04  5.02754E+03  1.95097E+04 -1.06295E+04  1.52647E+04
 -1.34537E+04  4.52760E+03 -7.30439E+03 -4.94799E+03  2.48628E+03 -4.83808E+03  9.04386E+03 -6.24528E+02
  8.49189E+03  8.17618E+03  3.03552E+03  1.29240E+04 -9.83771E+03  1.44325E+04 -1.59697E+04  2.15727E+03
 -1.10228E+04 -9.10620E+03 -5.94023E+02 -1.44270E+04  1.04550E+04 -7.22178E+03  8.05288E+03  5.40317E+03
  2.14118E+03  1.17297E+04 -9.79510E+03  1.15053E+04 -1.48874E+04  6.96685E+03 -1.44080E+04 -5.42931E+03
 -8.75902E+03 -1.90429E+04  3.92771E+03 -2.14119E+04  1.58142E+04 -1.28521E+04  1.90027E+04  3.59764E+03
  1.18308E+04  1.51248E+04 -1.81846E+03  1.80998E+04 -1.15077E+04  9.44720E+03 -1.38682E+04 -1.14577E+03
 -1.09139E+04 -1.26751E+04 -2.40035E+03 -1.48321E+04  7.29186E+03 -1.16410E+04  8.90896E+03 -3.14864E+03
  4.53763E+03  2.03023E+03 -2.27827E+03  1.66046E+03 -3.52969E+03 -4.36516E+03  3.27630E+03 -8.20273E+03
  1.41143E+04 -6.42196E+03  2.04137E+04  3.01486E+03  1.81252E+04  1.48604E+04  1.24904E+04  2.48770E+04
 -8.21412E+03  2.85970E+04 -2.41154E+04  2.00743E+04 -2.84053E+04  5.82390E+03 -2.25127E+04 -1.14291E+04
 -1.19154E+04 -2.07661E+04 -4.16249E+01 -1.53190E+04  6.79160E+03 -8.46819E+03  5.82084E+03 -5.79332E+03
  5.97865E+03 -3.55494E+03  4.05381E+03 -4.62684E+03  6.89180E+03 -3.65126E+03  7.40509E+03 -2.42425E+03
  1.04611E+04  4.80993E+03  6.92324E+03  1.14405E+04 -1.80900E+03  1.18285E+04 -1.44503E+04  1.04521E+04
 -1.74402E+04 -3.56806E+02 -1.21826E+04 -1.14865E+04 -1.23713E+03 -1.76844E+04  9.57254E+03 -1.73592E+04
  1.90001E+04 -8.05419E+03  2.27485E+04  1.82298E+03  1.62386E+04  1.60016E+04  3.44878E+03  2.20337E+04
 -9.86802E+03  1.67103E+04 -1.17205E+04  5.97378E+03 -9.32163E+03 -1.57439E+03 -2.49361E+03 -2.38736E+03
 -3.46546E+03  4.90635E+02 -3.55038E+03  3.24897E+03 -6.28330E+03  3.28890E+03 -1.23950E+04 -1.00654E+03
 -9.82038E+03 -1.15261E+04 -1.78302E+03 -1.75790E+04  8.40126E+03 -1.48834E+04  1.85747E+04 -3.66768E+03
  1.68362E+04  8.18762E+03  5.39011E+03  1.46791E+04 -3.72850E+03  1.65926E+04 -1.35337E+04  1.19953E+04
 -1.59018E+04  3.30949E+02 -1.37626E+04 -1.17175E+04 -2.13084E+03 -1.51056E+04  7.56971E+03 -1.04939E+04
  1.13810E+04 -3.18292E+03  9.10291E+03  4.54508E+03  3.70751E+03  5.75966E+03  1.87046E+03  9.38722E+02
  4.01307E+03  2.23349E+03  6.23346E+03  7.70742E+02  5.57249E+03  6.25626E+03  4.68503E+03  1.06776E+04
 -3.42904E+03  1.28011E+04 -1.26370E+04  1.22353E+04 -1.74196E+04  3.14198E+03 -1.91936E+04 -7.49953E+03
 -9.37853E+03 -1.86171E+04  3.04890E+03 -1.77940E+04  1.27158E+04 -1.29616E+04  1.62921E+04 -3.55348E+03
  1.33197E+04  7.19922E+03  2.42065E+03  1.02936E+04 -4.55679E+03  5.14879E+03 -8.78978E+03 -6.49853E+02
 -3.26510E+03 -8.33156E+03  2.67745E+03 -9.00661E+03  8.21973E+03 -3.66465E+03  6.64760E+03  1.02944E+03
  5.04355E+03  5.16121E+03  2.68350E+03  4.33145E+03 -1.61154E+02  4.27246E+03  6.02755E+02 -4.02843E+01
  1.14752E+03 -1.96788E+03  5.50968E+03  3.68826E+03  3.97289E+03  9.87156E+03 -1.80647E+03  1.44056E+04
 -7.97645E+03  8.46038E+03 -1.20813E+04  1.89271E+03 -9.65262E+03 -4.57891E+03 -6.55692E+03 -8.20656E+03
  7.00052E+02 -6.25576E+03  4.83550E+03 -4.43247E+03  5.80580E+03  4.60448E+03 -8.52283E+02  5.20482E+03
 -8.77819E+03  3.46713E+03 -9.24381E+03 -4.60182E+03 -2.37309E+03 -1.10899E+04  1.18559E+03 -9.26162E+03
  5.94740E+03 -5.38700E+03  7.70309E+03  5.67330E+02  6.46424E+03  2.45010E+03  1.12594E+03  4.86202E+03
 -2.68151E+03  9.39589E+02 -4.97961E+03 -3.06278E+03  2.19106E+03 -9.36534E+03  9.51647E+03 -5.06757E+03
  1.28807E+04  1.03588E+03  1.14601E+04  8.01004E+03  4.05826E+03  1.33508E+04 -3.35395E+03  1.09835E+04
 -1.05348E+04  6.21921E+03 -1.02629E+04  6.66716E+02 -4.87816E+03 -9.26893E+03  3.02501E+02 -8.74010E+03
  6.99645E+03 -4.77968E+03  8.06758E+03  3.54588E+03  1.99582E+03  7.10482E+03 -1.38996E+03  4.67015E+03
 -5.66871E+03  4.13205E+03 -2.84019E+03  3.56734E+03 -9.29150E+02  4.63393E+02 -2.82576E+02  2.72247E+03
 -1.94395E+03  4.28295E+03 -9.12526E+03  4.35987E+03 -1.31365E+04 -2.37140E+02 -1.26957E+04 -7.96727E+03
 -6.25687E+03 -1.53339E+04  4.88606E+03 -1.87894E+04  1.18425E+04 -1.33838E+04  1.82649E+04 -7.56633E+03
  1.83002E+04  3.33845E+03  9.17134E+03  1.16439E+04 -7.62636E+02  1.23743E+04 -5.57023E+03  1.08260E+04
 -7.85902E+03  5.03204E+03 -5.36251E+03 -8.71366E+02  7.36747E+02 -8.86084E+02 -5.34785E+02 -1.09908E+02
 -3.15154E+03  1.13628E+03 -2.80841E+03 -2.03579E+01 -1.01756E+03 -2.78027E+03  4.89147E+02 -4.46904E+03
  6.48000E+03 -4.00044E+03  8.97964E+03 -3.88328E+02  8.38629E+03  5.98760E+03  2.54447E+03  1.37552E+04
 -6.23786E+03  1.49577E+04 -1.42799E+04  8.53302E+03 -1.46464E+04 -1.16412E+03 -1.26713E+04 -1.07917E+04
 -4.68286E+03 -1.29077E+04  3.87049E+03 -1.21656E+04  8.18578E+03 -4.66666E+03  8.79436E+03 -2.69762E+02
  5.04162E+03  3.84848E+03  3.06257E+02  3.61449E+03 -2.12199E+03  3.59074E+02  1.12706E+03 -3.75180E+03
  4.51901E+03 -1.47352E+03  4.82166E+03  1.05964E+03  4.25311E+03  6.76696E+03  5.23001E+02  6.42937E+03
 -8.05142E+03  6.89656E+03 -8.91609E+03  4.02590E+02 -8.29897E+03 -5.22068E+03 -1.29669E+03 -1.25919E+04
  6.00282E+03 -9.86303E+03  9.14726E+03 -2.99384E+03  1.00748E+04  2.99085E+03  5.20160E+03  7.23264E+03
  2.52950E+03  8.66531E+03 -3.93158E+03  6.17138E+03 -6.37327E+03  2.72529E+03 -4.46253E+03 -9.50486E+02
 -2.34494E+03 -1.40437E+02 -3.70800E+03 -2.22651E+02 -2.66558E+03  2.31220E+03 -6.25237E+03 -7.59144E+02
 -5.86106E+03 -5.05975E+03 -3.45563E+03 -8.37002E+03  3.62351E+03 -7.73884E+03  8.17829E+03 -3.87368E+03
  8.93580E+03 -5.85501E+01  5.34702E+03  6.19750E+03 -9.20751E+02  9.21697E+03 -7.85976E+03  5.49303E+03
