 $NMID ID='MM_0lb_SNR200_20hz_g40_95.RAW', FMTDAT='(8E13.5)'
 TRAMP=1., VOLUME=1. $END
  3.09807E+05 -1.33621E+02  3.37612E+05  2.50376E+05  8.45681E+04  3.35808E+05 -1.32321E+05  2.49458E+05
 -1.88836E+05  8.14039E+04 -1.09943E+05 -3.33329E+04  1.94519E+03 -4.98902E+04  5.38847E+04  2.35545E+02
  3.47401E+04  5.21524E+04 -1.54726E+04  7.41070E+04 -5.94756E+04  6.17037E+04 -8.18443E+04  3.02582E+04
 -7.92257E+04 -1.12296E+04 -5.55397E+04 -5.02588E+04 -1.42521E+04 -6.76154E+04  2.59238E+04 -4.42499E+04
  3.89705E+04  3.06352E+03  1.52754E+04  4.64842E+04 -3.43809E+04  4.57489E+04 -6.45638E+04 -1.19646E+03
 -5.12976E+04 -5.61178E+04 -6.02080E+03 -7.45382E+04  3.28296E+04 -5.14000E+04  4.60072E+04 -1.57705E+04
  4.01940E+04  1.07151E+04  3.03863E+04  2.26730E+04  1.58024E+04  2.82726E+04 -4.80388E+03  2.60088E+04
 -2.09188E+04  1.19633E+04 -1.96660E+04 -4.42629E+03  4.10350E+03 -7.94297E+03  2.12262E+04  1.02416E+04
  8.50969E+03  3.19773E+04 -2.97346E+04  3.19740E+04 -5.95732E+04  2.41284E+03 -5.46305E+04 -4.01834E+04
 -1.11944E+04 -5.95491E+04  3.64751E+04 -4.17248E+04  5.43934E+04 -1.69638E+03  3.11564E+04  2.91231E+04
 -6.47411E+03  3.13253E+04 -2.74223E+04  1.26152E+04 -2.59592E+04 -4.58382E+03 -1.28877E+04 -9.90702E+03
 -6.46037E+03 -1.05958E+04 -1.92870E+03 -1.54045E+04  6.19709E+03 -2.26338E+04  1.48320E+04 -1.45581E+04
  1.26296E+04  4.49588E+03 -4.31596E+03  1.30749E+04 -1.81310E+04 -1.36247E+03 -8.64743E+03 -2.90694E+04
  2.02536E+04 -3.87803E+04  4.34222E+04 -1.71484E+04  3.95365E+04  1.78095E+04  1.25596E+04  4.02697E+04
 -1.53655E+04  3.03249E+04 -2.26156E+04 -3.39253E+02 -7.76350E+03 -2.59370E+04  1.93413E+04 -3.02691E+04
  3.59669E+04 -6.38198E+03  2.94373E+04  2.24861E+04  1.27916E+04  4.05752E+04 -7.56617E+03  4.18877E+04
 -2.70899E+04  2.85859E+04 -3.57538E+04  7.27226E+03 -3.64404E+04 -1.49277E+04 -2.01824E+04 -3.37958E+04
  6.66455E+03 -3.23059E+04  2.81599E+04 -1.15634E+04  2.63323E+04  1.13315E+04  3.33992E+03  1.70147E+04
 -1.20088E+04  6.16855E+03 -9.98321E+03 -7.62787E+03  5.87885E+03 -1.05888E+04  1.72549E+04  6.66778E+03
  1.13525E+04  2.10400E+04 -6.68189E+03  2.19534E+04 -2.08575E+04  7.53525E+03 -2.47586E+04 -6.79942E+03
 -1.51173E+04 -1.48326E+04 -4.05527E+03 -1.49496E+04  3.81494E+03 -1.34376E+04  1.10789E+04 -1.29872E+04
  1.96616E+04 -1.07758E+04  2.60638E+04  4.59474E+02  2.04955E+04  1.46698E+04  3.66033E+03  3.08779E+04
 -1.51979E+04  2.53460E+04 -2.51651E+04  8.18480E+03 -1.94175E+04 -1.08248E+04 -3.97492E+03 -1.48636E+04
  2.47115E+03 -4.99104E+03 -1.75924E+03  3.90552E+03 -1.09492E+04  5.61553E+03 -1.17958E+04 -3.48688E+03
 -8.12679E+03 -1.43078E+04  3.01905E+03 -1.75071E+04  1.17286E+04 -1.32758E+04  1.36100E+04 -1.60799E+03
  8.20497E+03  9.92534E+03 -2.24592E+02  1.45915E+04 -9.17227E+03  8.40010E+03 -1.30323E+04 -3.02961E+03
 -1.15404E+04 -1.34220E+04 -1.39683E+03 -1.75588E+04  7.80761E+03 -1.31923E+04  1.47164E+04 -7.39854E+03
  1.28465E+04  2.17969E+03  8.76283E+03  4.48482E+03  4.32588E+03 -4.08417E+02  6.78087E+03 -2.19474E+03
  1.32264E+04  2.97937E+03  1.25792E+04  1.14396E+04  8.46925E+03  2.30564E+04 -2.69840E+03  2.40952E+04
 -1.32843E+04  1.78665E+04 -2.12460E+04  8.27143E+03 -2.12537E+04 -1.95183E+03 -1.84772E+04 -1.20523E+04
 -9.53340E+03 -1.68762E+04  4.69224E+03 -1.62552E+04  1.43797E+04 -9.19667E+03  1.37247E+04  3.75712E+03
  6.71776E+03  1.03721E+04 -5.81903E+03  9.28660E+03 -1.33181E+04  2.19343E+03 -1.01844E+04 -7.04686E+03
 -5.61499E+02 -1.17701E+04  5.57953E+03 -8.65788E+03  6.41672E+03 -1.82122E+03  1.08273E+03  4.78630E+03
 -3.83070E+03  1.23225E+03 -2.37968E+03 -2.88504E+03  1.07340E+03 -8.75959E+03  7.33098E+03 -8.85623E+03
  1.02537E+04 -3.68466E+03  1.06323E+04  2.68340E+03  7.55913E+03  8.03928E+03  4.30596E+03  1.31653E+04
 -1.58932E+03  1.40112E+04 -8.06572E+03  8.19303E+03 -9.49947E+03  2.24694E+03 -6.73807E+03 -5.37136E+02
 -3.76138E+03 -2.56390E+03 -2.36153E+02  1.48559E+03 -1.68152E+03  9.61061E+02 -3.09891E+03  3.08082E+03
 -6.45806E+03 -6.54575E+02 -8.51559E+03 -6.69570E+03 -3.12446E+03 -1.13426E+04  3.43667E+03 -8.26974E+03
  6.72668E+03 -3.76719E+03  4.64968E+03  2.39322E+03  7.64872E+02  2.76917E+03 -1.82272E+03  1.82546E+02
 -2.96133E+03 -5.90055E+03 -5.59555E+02 -5.80062E+03  2.12879E+03 -6.68462E+03  8.13206E+03 -3.39724E+03
  1.03487E+04  1.85207E+02  7.77100E+03  5.00986E+03  1.13755E+03  7.49178E+03 -4.02075E+03  7.49571E+03
 -6.37466E+03  2.65302E+03 -3.17055E+03 -8.99611E+02  7.06465E+02 -6.37488E+02  4.69253E+03 -1.44542E+03
  3.63221E+03  3.36739E+03  1.05267E+03  6.01017E+03 -4.48695E+03  5.49567E+03 -7.08008E+03  5.16521E+02
 -4.15248E+03 -3.16958E+03  9.47761E+02 -5.99048E+03  3.14298E+03 -2.39699E+03  3.04074E+03  1.22567E+03
  7.47173E+02  2.44772E+03 -3.37805E+03  5.09653E+03 -3.36872E+03  2.21905E+03 -3.25455E+03 -7.38208E+02
 -2.01422E+03 -5.15268E+03  1.44826E+02 -5.23619E+03  4.98830E+03 -4.16865E+03  4.16655E+03  4.13587E+02
  3.29233E+03  4.21439E+03  6.61704E+02  6.20693E+03 -4.84453E+03  4.94423E+03 -3.88330E+03 -8.93559E+02
 -5.15238E+03 -5.23310E+03 -5.72452E+02 -3.41052E+03  2.93755E+03 -3.24565E+03  1.34475E+03 -2.02811E+03
  2.52703E+03  2.21602E+02  4.83412E+02  1.62148E+03  6.22487E+01  4.02735E+02 -7.23845E+02 -1.95065E+03
  2.80992E+03 -5.29272E+02  3.06432E+03  4.86757E+02  4.64971E+03  1.54289E+03  4.50775E+03  4.81305E+03
 -5.32499E+02  7.49701E+03 -6.28197E+03  4.93552E+03 -8.00110E+03  7.95000E+02 -6.24665E+03 -1.36529E+03
 -3.58725E+03 -5.38303E+03  2.05835E+02 -4.13118E+03  2.81189E+03 -2.15916E+03  1.22793E+03 -1.14968E+03
  1.51835E+03 -6.30968E+02  2.59126E+03 -1.40859E+03  3.09891E+03 -4.87922E+02  1.64777E+03  8.29622E+00
  3.41723E+03  1.21743E+03 -1.54783E+02  2.62389E+03 -1.59651E+03  1.66822E+03 -3.01973E+03  1.90938E+03
 -3.84333E+03 -4.72413E+02 -9.84850E+02 -2.27561E+03  1.90941E+03 -3.85933E+03  3.64144E+03 -4.55035E+03
  3.70409E+03 -2.57098E+03  5.91387E+03  5.82874E+02  4.58150E+03  3.15052E+03  1.85150E+03  5.51679E+03
 -1.71560E+03  5.70754E+03 -2.45721E+03  1.65875E+03 -1.74998E+03 -1.11845E+03 -6.81061E+02  4.04218E+01
 -7.02530E+02  4.38261E+02 -1.39449E+03  1.82836E+03 -2.56175E+03  1.33724E+03 -4.22472E+03  1.71406E+02
 -5.44098E+02 -3.07726E+03  1.04548E+03 -2.40911E+03  2.54253E+03 -3.39721E+03  2.12741E+03 -1.54847E+03
  3.96241E+03  1.83982E+03  1.05169E+03  2.54429E+03 -1.26427E+03  2.93158E+03 -1.25659E+03  2.78574E+03
 -2.36410E+03  2.24795E+03 -2.99024E+03 -1.47304E+03 -1.13295E+03 -1.98585E+03  2.25612E+03 -1.84573E+03
  2.38832E+03 -1.23820E+03  1.82799E+03  5.66809E+01  5.14633E+02  1.16393E+03  4.70574E+02 -2.77202E+02
  1.20518E+03  6.54148E+02  1.20498E+03  3.55735E+02  8.98013E+02  2.01537E+03  2.11343E+02  1.89039E+03
 -1.07320E+03  2.31634E+03 -1.73309E+03  2.69296E+03 -2.59335E+03  1.69781E+02 -2.41044E+03 -4.31420E+02
 -1.28442E+03 -3.09555E+03  2.48347E+02 -4.71860E+03  9.11456E+02 -2.16714E+03  2.81099E+03  4.61727E+02
  2.07904E+03  2.41794E+03  7.47820E+01  1.47214E+03  1.35132E+02  1.51197E+03 -5.42252E+02  4.15744E+02
 -1.08310E+02 -1.82842E+03  1.00961E+03 -1.67531E+03  1.83596E+01 -7.04410E+01  1.33555E+03  5.70915E+02
  1.76776E+03  5.81843E+02  9.06877E+02 -1.00652E+03  2.25437E+01  1.27079E+03  2.50398E+03 -7.84101E+02
  6.56566E+02 -1.05849E+03  5.93492E+02  4.68026E+02 -1.49096E+02  1.57533E+03 -1.29459E+03  2.06647E+03
 -1.32591E+03 -2.67700E+02 -1.57062E+03  1.09312E+03 -2.07585E+03  1.11556E+03 -8.33533E+01  3.94574E+02
 -9.88920E+02 -1.50569E+03  2.77802E+02 -5.09620E+02  6.62298E+02  1.95431E+03  2.34108E+02  3.08365E+02
 -1.09220E+03  1.54120E+02 -1.22250E+03 -1.30699E+03  9.04957E+02 -1.26403E+03 -9.14980E+02 -1.17404E+03
 -7.01494E+00 -6.16966E+02  1.20254E+03 -6.80188E+02  1.04989E+03 -8.08853E+02 -5.25919E+02  1.04926E+03
  3.42707E+02 -5.07169E+02 -1.08816E+03  1.57139E+02  7.48871E+02 -4.92592E+02  1.09858E+03 -4.80013E+02
  3.41711E+02  2.22238E+02  2.57674E+03  3.42847E+02  1.67490E+03  1.27952E+03 -1.00510E+03  2.17266E+03
 -3.88893E+02  4.72744E+02 -7.64382E+02  2.60802E+02 -2.02320E+02 -1.25550E+03 -1.01316E+03 -5.49525E+02
  7.97181E+02 -5.47149E+02  1.35221E+03  9.43203E+02  4.50235E+01  1.46573E+03 -1.19390E+02  1.73551E+03
 -2.11635E+02  2.99631E+02 -5.78816E+02  8.78128E+02 -3.69865E+02 -4.15341E+02 -1.13419E+02  1.35358E+02
 -4.65176E+02  1.24244E+03 -2.53721E+03 -3.67387E+02 -1.73964E+03  2.71292E+02 -2.63099E+03 -1.09149E+03
  1.24700E+02 -3.36085E+02  6.92871E+02 -3.12951E+03  1.14984E+03 -1.78786E+03  2.60901E+03 -1.12514E+03
  1.90022E+03 -1.12369E+03  9.88652E+02  1.32848E+03 -1.51265E+03  4.75737E+02 -7.61472E+02  9.62196E+02
 -8.24891E+02  1.34721E+03  2.83246E+02  1.42623E+02 -4.08758E+02  7.69619E+02 -5.94882E+02  9.94137E+01
 -9.62725E+02 -6.45927E+01 -1.34567E+03  9.71410E+01 -5.34364E+02 -1.52431E+03  7.27486E+01 -1.06302E+03
  8.93951E+02  4.21806E+02 -6.10062E+00  6.70417E+02  1.09381E+03  6.40399E+02 -1.39359E+03  3.95274E+02
 -5.64230E+02  1.48937E+03 -1.91182E+03 -1.91418E+02 -2.12585E+03 -4.16996E+02 -2.21189E+02  8.72070E+00
 -1.68745E+03 -6.95028E+02  6.04872E+02 -1.07183E+03  1.14584E+03 -5.36893E+02 -5.57504E+02 -9.67958E+02
  1.16357E+03  4.36020E+01  2.59843E+02 -1.77383E+02  3.60119E+02 -8.96358E+02  2.05854E+02  3.18720E+02
  3.44540E+02  5.74515E+02 -6.23444E+02  7.72252E+02 -6.42222E+02  8.29256E+02 -5.08214E+02  5.07090E+02
 -3.50831E+02  4.80938E+02  8.54353E+02 -4.78856E+02 -8.34220E+02 -7.48300E+02  7.05369E+02 -1.20803E+03
  3.80961E+02 -6.97127E+02  5.83279E+02  5.15895E+02  1.02009E+03 -2.01553E+03  1.18717E+03  2.88331E+02
  1.41758E+03  3.81542E+02 -1.17300E+02 -2.20860E+01 -5.40478E+01 -3.63910E+02 -5.51409E+01  4.37084E+02
 -8.91313E+02 -4.75064E+02 -4.38267E+02 -1.19392E+03 -1.06850E+03  1.45767E+03 -1.22569E+03 -5.02506E+02
 -3.39592E+02 -4.54406E+01 -4.15063E+02  2.44177E+02  2.84222E+02 -1.52778E+03  1.08884E+03 -5.00147E+01
  7.17970E+02 -4.82967E+02 -7.48579E+02  1.99297E+02 -1.46043E+02  9.87867E+01 -8.74357E+02  2.06809E+02
