 $NMID ID='MM_0lb_SNR200_12hz_g40_62.RAW', FMTDAT='(8E13.5)'
 TRAMP=1., VOLUME=1. $END
  3.09530E+05  2.79973E+02  3.37824E+05  2.51941E+05  8.45683E+04  3.39119E+05 -1.32900E+05  2.51577E+05
 -1.89975E+05  8.28788E+04 -1.11317E+05 -3.22124E+04  6.54646E+02 -4.99379E+04  5.38349E+04 -2.17694E+02
  3.54270E+04  5.28297E+04 -1.44015E+04  7.44747E+04 -6.05001E+04  6.33440E+04 -8.40648E+04  3.21991E+04
 -8.11069E+04 -1.20295E+04 -5.79379E+04 -5.08807E+04 -1.56997E+04 -6.98597E+04  2.67688E+04 -4.68089E+04
  3.99010E+04  3.35008E+03  1.58037E+04  4.79705E+04 -3.36422E+04  4.70012E+04 -6.62727E+04  1.59726E+03
 -5.40697E+04 -5.50716E+04 -6.69427E+03 -7.75823E+04  3.42125E+04 -5.43467E+04  4.76108E+04 -1.60683E+04
  4.50537E+04  1.11556E+04  3.20515E+04  2.50475E+04  1.71285E+04  2.93139E+04 -5.86779E+03  2.68701E+04
 -2.15223E+04  1.17061E+04 -1.85928E+04 -4.55372E+03  6.19190E+03 -8.49692E+03  2.32050E+04  1.34492E+04
  8.14995E+03  3.58852E+04 -3.03529E+04  3.56638E+04 -6.39023E+04  1.96864E+03 -5.66266E+04 -4.34585E+04
 -1.40637E+04 -6.26293E+04  4.05070E+04 -4.75859E+04  5.87229E+04 -3.10710E+03  3.47686E+04  3.33888E+04
 -4.50075E+03  3.67720E+04 -3.06824E+04  1.63183E+04 -3.07155E+04 -4.48357E+03 -1.57601E+04 -1.21521E+04
 -9.49606E+03 -1.38340E+04 -1.26852E+03 -1.89761E+04  7.65917E+03 -2.37058E+04  1.56037E+04 -1.40132E+04
  1.27590E+04  4.52719E+03 -8.24133E+03  1.31784E+04 -2.23332E+04 -3.90118E+03 -8.27622E+03 -3.38188E+04
  2.35016E+04 -4.35656E+04  4.84265E+04 -2.01382E+04  4.61388E+04  1.90394E+04  1.59537E+04  4.55844E+04
 -1.49374E+04  3.42833E+04 -2.63525E+04  2.28545E+03 -1.00122E+04 -2.73603E+04  2.03484E+04 -3.35728E+04
  4.28470E+04 -9.56606E+03  3.75376E+04  2.40358E+04  1.86003E+04  4.70144E+04 -7.69411E+03  5.12700E+04
 -3.25996E+04  3.42217E+04 -4.19598E+04  1.03087E+04 -4.36441E+04 -1.73777E+04 -2.36246E+04 -3.91652E+04
  6.24765E+03 -3.78538E+04  3.28665E+04 -1.58040E+04  2.98546E+04  1.12096E+04  4.82519E+03  2.00831E+04
 -1.32390E+04  9.06153E+03 -1.01546E+04 -8.23115E+03  5.54144E+03 -1.01995E+04  1.65951E+04  6.93477E+03
  1.37709E+04  2.15459E+04 -6.06781E+03  2.61127E+04 -2.22402E+04  1.22231E+04 -2.84219E+04 -4.66858E+03
 -2.13429E+04 -1.61027E+04 -8.85082E+03 -2.08759E+04  4.20863E+03 -2.00199E+04  1.83399E+04 -2.01627E+04
  2.63362E+04 -1.32122E+04  3.38324E+04  2.87445E+03  2.35672E+04  2.08715E+04  4.67759E+03  3.71122E+04
 -1.86591E+04  3.17683E+04 -2.88498E+04  1.09630E+04 -2.21873E+04 -9.88561E+03 -4.75388E+03 -1.34012E+04
  1.09996E+03 -3.98187E+03 -4.72413E+03  7.88797E+03 -1.72055E+04  5.44644E+03 -1.65429E+04 -7.96045E+03
 -9.73291E+03 -2.15226E+04  5.28772E+03 -2.31589E+04  1.67082E+04 -1.81795E+04  1.83792E+04 -2.34004E+03
  1.13066E+04  1.32711E+04 -1.69788E+03  1.83113E+04 -1.30101E+04  1.14691E+04 -1.79873E+04 -4.20784E+03
 -1.51441E+04 -1.86439E+04 -2.26297E+03 -2.37907E+04  1.14075E+04 -1.97234E+04  2.02245E+04 -9.74463E+03
  1.92574E+04  1.27685E+03  1.40738E+04  5.22167E+03  6.91497E+03  1.15448E+03  9.90518E+03 -2.12980E+03
  1.86018E+04  3.10372E+03  2.15315E+04  1.48000E+04  1.31893E+04  3.24706E+04 -3.19975E+03  3.66504E+04
 -2.06799E+04  3.03255E+04 -3.51974E+04  1.43081E+04 -3.52418E+04 -1.66119E+03 -2.92813E+04 -2.17925E+04
 -1.27479E+04 -2.95320E+04  9.24138E+03 -2.76314E+04  2.24929E+04 -1.36553E+04  1.98568E+04  6.64598E+03
  7.88664E+03  1.60957E+04 -8.67966E+03  1.30358E+04 -1.73495E+04  2.27335E+03 -1.28276E+04 -1.09939E+04
 -3.28244E+02 -1.67716E+04  8.71319E+03 -1.22710E+04  1.06166E+04 -1.49870E+03  9.59131E+02  8.08713E+03
 -7.01828E+03  2.79358E+03 -8.03025E+03 -5.73258E+03 -1.28417E+03 -1.58242E+04  1.19108E+04 -1.68264E+04
  1.78885E+04 -9.54098E+03  1.87437E+04  3.19522E+03  1.70535E+04  1.44466E+04  7.55306E+03  2.24912E+04
 -3.51812E+03  2.56221E+04 -1.45524E+04  1.41474E+04 -1.75026E+04  3.97711E+03 -1.11214E+04 -4.35750E+03
 -5.90143E+03 -4.90919E+03 -7.41096E+01  2.12891E+03 -2.14327E+03  2.50694E+03 -5.29744E+03  4.62583E+03
 -1.20861E+04 -1.30913E+03 -1.12727E+04 -1.01778E+04 -4.03034E+03 -1.63488E+04  4.57303E+03 -1.17719E+04
  1.11984E+04 -4.60542E+03  8.38466E+03  3.02121E+03  7.52464E+02  3.93225E+03 -6.63146E+03  4.54960E+02
 -4.85697E+03 -7.42412E+03 -8.40600E+02 -1.21853E+04  7.99658E+03 -1.37891E+04  1.41070E+04 -6.94415E+03
  1.79231E+04  2.33874E+03  1.29189E+04  1.15405E+04  3.13202E+03  1.50738E+04 -7.48715E+03  1.25661E+04
 -9.30054E+03  3.49106E+03 -5.06160E+03 -2.95171E+03  1.83532E+03 -2.06310E+03  6.77440E+03 -1.08431E+03
  6.89133E+03  5.77193E+03  8.14245E+02  9.05396E+03 -6.02017E+03  8.80790E+03 -1.27127E+04  2.54989E+03
 -8.30892E+03 -6.83351E+03 -1.20901E+03 -1.09801E+04  7.16418E+03 -5.03608E+03  6.92466E+03  2.48457E+03
  2.85301E+03  7.27854E+03 -6.33873E+03  8.17928E+03 -9.02980E+03  4.05397E+03 -9.30874E+03 -3.36866E+03
 -6.43703E+03 -1.09866E+04  2.76236E+03 -1.34418E+04  1.00565E+04 -9.50207E+03  1.07556E+04  3.16037E+03
  7.43165E+03  8.78145E+03 -1.26749E+03  1.10530E+04 -7.46991E+03  6.63529E+03 -9.31151E+03 -3.16976E+02
 -7.69565E+03 -9.02044E+03 -2.03976E+03 -8.67877E+03  4.09612E+03 -7.50926E+03  5.20535E+03 -3.50330E+03
  3.25114E+03  1.44844E+03  4.95645E+02  1.70691E+03  8.65527E+02 -1.91964E+03  2.72351E+03 -4.32802E+03
  8.22482E+03 -1.09582E+03  1.12749E+04  1.86034E+03  1.11152E+04  8.05049E+03  7.50728E+03  1.37980E+04
 -4.67458E+03  1.65326E+04 -1.24850E+04  1.27720E+04 -1.97324E+04  1.48376E+03 -1.42385E+04 -6.18839E+03
 -8.19849E+03 -1.06066E+04  9.96428E+02 -9.91196E+03  2.70584E+03 -3.83138E+03  3.71930E+03 -3.08765E+03
  2.09199E+03 -3.82965E+03  3.66116E+03 -2.76945E+03  4.40402E+03 -1.88109E+03  4.66553E+03 -1.14541E+03
  7.99874E+03  1.33073E+03  3.86004E+03  5.95002E+03 -1.64874E+03  7.29057E+03 -7.35016E+03  5.03527E+03
 -1.05721E+04 -1.12424E+03 -5.46383E+03 -5.93781E+03 -1.77939E+02 -1.09970E+04  5.69733E+03 -9.71550E+03
  1.11990E+04 -5.12171E+03  1.23738E+04  1.61473E+03  9.79981E+03  9.07252E+03  2.12051E+03  1.18903E+04
 -5.39655E+03  1.04375E+04 -6.42011E+03  3.43430E+03 -5.06796E+03 -2.81318E+03 -2.19823E+03 -2.59464E+03
 -1.52271E+02 -6.26584E+01 -2.35745E+03  1.81793E+03 -3.63341E+03  2.23056E+03 -7.25221E+03 -7.73056E+02
 -4.48416E+03 -7.51926E+03  6.18965E+02 -9.26352E+03  4.57705E+03 -8.22851E+03  9.59719E+03 -3.53778E+03
  9.22849E+03  4.69483E+03  5.82734E+03  9.13826E+03 -2.35195E+03  9.35921E+03 -7.29211E+03  6.41426E+03
 -7.80611E+03  6.71422E+02 -6.57853E+03 -4.89323E+03  2.22778E+02 -8.12560E+03  4.87195E+03 -5.33956E+03
  5.99354E+03 -2.24723E+03  5.28714E+03  1.90857E+03  4.89818E+02  3.70545E+03  1.57594E+03  1.47011E+03
  1.58951E+03  7.52054E+02  2.46760E+03  2.55050E+03  2.36794E+03  4.06469E+03  2.60532E+03  4.54218E+03
 -1.14171E+03  7.40811E+03 -6.49566E+03  7.15266E+03 -8.19987E+03  3.18985E+03 -1.02774E+04 -4.00181E+03
 -5.10494E+03 -1.09344E+04  1.42339E+03 -1.04911E+04  5.30405E+03 -6.31733E+03  9.22389E+03 -3.67458E+03
  4.97326E+03  4.09549E+03  2.37064E+03  6.88055E+03 -2.70725E+03  3.62530E+03 -3.77352E+03 -9.75944E+02
 -3.93262E+02 -2.73552E+03  2.37365E+03 -4.50130E+03  3.34481E+03 -6.63710E+02  3.53768E+03  3.65528E+02
  6.40140E+02  2.79741E+03  6.18372E+02  9.66807E+02  5.01555E+01  1.70005E+03  1.20165E+03  6.10166E+02
  2.04995E+03 -1.56310E+03  4.96431E+03  2.62382E+03  2.15952E+03  5.20548E+03 -2.03539E+02  5.53574E+03
 -3.44157E+03  2.90354E+03 -6.25782E+03  5.06757E+02 -6.11705E+03 -8.92731E+02 -2.63905E+03 -2.95321E+03
  2.18681E+03 -3.20892E+03  2.74262E+03 -2.03542E+03  2.07398E+03  1.20674E+03 -1.85349E+03  3.50321E+03
 -3.86369E+03  1.14594E+03 -4.66826E+03 -3.69092E+03 -1.58346E+03 -5.61193E+03  1.35448E+03 -5.91817E+03
  1.97080E+03 -1.06169E+03  2.99263E+03 -5.90580E+01  3.21517E+03  1.38183E+03  9.38491E+02  2.52559E+03
 -1.45820E+03  1.43646E+03 -3.58278E+03 -2.33916E+03  5.65743E+02 -3.07851E+03  5.19447E+03 -3.03787E+03
  6.35381E+03  9.34563E+02  6.62295E+03  3.94471E+03  2.56470E+03  6.21599E+03 -8.83148E+02  4.55975E+03
 -4.72955E+03  1.72188E+03 -4.57197E+03 -1.91567E+03 -2.17995E+03 -4.07194E+03  1.17223E+03 -2.64502E+03
  3.42653E+03 -1.13076E+03  2.29410E+03  2.42142E+03  7.83545E+02  3.61973E+03 -8.88171E+02  3.20310E+03
 -2.80564E+03  1.08633E+03 -1.02183E+03  1.53806E+02 -5.21236E+02  5.95995E+02 -1.75633E+03  9.21606E+02
 -2.38674E+03  3.40933E+03 -4.61959E+03  1.75677E+03 -7.46965E+03 -1.75367E+03 -6.88603E+03 -4.25724E+03
 -2.85036E+03 -8.21543E+03  1.55158E+03 -8.78074E+03  4.60186E+03 -7.46630E+03  8.06723E+03 -2.89695E+03
  8.05964E+03  9.40761E+02  4.63709E+03  6.13905E+03  2.54502E+02  5.27217E+03 -2.22825E+03  3.07087E+03
 -3.31082E+03  2.18070E+03 -2.86090E+03 -6.71719E+02 -7.19824E+02 -6.10039E+02 -8.35150E+02 -1.20412E+03
 -9.87400E+02  9.03106E+02 -1.87228E+03  8.33551E+02 -8.30757E+02 -2.20202E+03  1.74063E+01 -1.69179E+03
  2.41673E+03 -2.80221E+03  3.70853E+03 -4.72785E+02  3.80333E+03  2.57715E+03  2.43198E+02  5.11640E+03
 -2.72825E+03  6.14209E+03 -5.97936E+03  3.60621E+03 -6.89525E+03  4.55528E+02 -7.23029E+03 -4.59973E+03
 -1.03910E+03 -5.33442E+03  2.59958E+03 -5.10376E+03  3.26068E+03 -3.07787E+03  3.50006E+03 -3.50361E+02
  2.37106E+03  2.06713E+02 -8.53802E+02  1.77867E+03 -7.18750E+02  1.09027E+03 -1.46082E+03 -1.34668E+03
  1.60423E+03 -1.36308E+03  2.00739E+03  8.96428E+02  3.19810E+02  1.79654E+03  5.07682E+01  2.46553E+03
 -2.61612E+03  2.68739E+03 -2.68400E+03 -4.45807E+02 -3.09243E+03 -2.51162E+03 -6.55531E+02 -5.62210E+03
  1.70553E+03 -4.44794E+03  3.95152E+03 -7.72322E+02  2.07474E+03  4.86822E+02  1.70667E+03  3.79518E+03
 -4.02930E+02  2.99622E+03 -1.42179E+03  2.54813E+03 -2.86841E+03  1.36251E+03 -2.62765E+03 -1.81839E+02
 -3.87019E+02  6.33925E+02 -7.61025E+02  7.81978E+01 -1.26084E+03  1.08698E+03 -4.37990E+03 -3.68315E+02
 -2.99600E+03 -5.75384E+02 -1.01029E+03 -4.13878E+03  1.79960E+03 -3.45469E+03  3.27311E+03 -4.12851E+03
  4.25010E+03  7.74710E+02  1.31552E+03  3.70971E+03  7.41688E+02  2.13192E+03 -3.10202E+03  3.21351E+03
