 $NMID ID='MM_0lb_SNR200_11hz_g45_62.RAW', FMTDAT='(8E13.5)'
 TRAMP=1., VOLUME=1. $END
  3.09842E+05  3.57608E+02  3.39468E+05  2.50628E+05  8.49573E+04  3.37393E+05 -1.32488E+05  2.51077E+05
 -1.92027E+05  8.37792E+04 -1.10724E+05 -3.25123E+04  6.31282E+02 -5.02306E+04  5.31113E+04 -1.08025E+03
  3.56341E+04  5.28237E+04 -1.68339E+04  7.57022E+04 -6.07253E+04  6.36920E+04 -8.56464E+04  3.22635E+04
 -8.10388E+04 -1.30424E+04 -5.65134E+04 -5.25496E+04 -1.53469E+04 -6.93466E+04  2.79141E+04 -4.54088E+04
  4.04498E+04  2.63186E+03  1.67182E+04  4.81371E+04 -3.43432E+04  4.63958E+04 -6.61664E+04 -2.13765E+02
 -5.46265E+04 -5.83870E+04 -7.29111E+03 -7.84692E+04  3.44348E+04 -5.65430E+04  4.86126E+04 -1.84923E+04
  4.40349E+04  1.10303E+04  3.28645E+04  2.56466E+04  1.58721E+04  2.96871E+04 -6.21122E+03  2.76167E+04
 -2.23255E+04  1.22215E+04 -1.87123E+04 -7.21728E+03  4.96057E+03 -7.41261E+03  2.22311E+04  1.30517E+04
  6.20843E+03  3.72780E+04 -3.23868E+04  3.65108E+04 -6.35182E+04  2.57833E+03 -5.85743E+04 -4.40610E+04
 -1.42199E+04 -6.42717E+04  4.05305E+04 -4.78980E+04  5.89601E+04 -2.75891E+03  3.51775E+04  3.47704E+04
 -5.98564E+03  3.84034E+04 -2.99553E+04  1.77935E+04 -3.23515E+04 -3.99101E+03 -1.84926E+04 -9.51905E+03
 -1.14561E+04 -1.22367E+04  9.76018E+02 -1.92494E+04  8.47049E+03 -2.39944E+04  1.59056E+04 -1.36662E+04
  1.17335E+04  4.29297E+03 -8.67478E+03  1.29073E+04 -2.26023E+04 -5.19038E+03 -9.17736E+03 -3.53484E+04
  2.35495E+04 -4.49095E+04  4.97877E+04 -1.96869E+04  4.68474E+04  1.99751E+04  1.56393E+04  4.50168E+04
 -1.65698E+04  3.60192E+04 -2.61270E+04  2.10741E+03 -1.20373E+04 -2.95041E+04  2.07010E+04 -3.45995E+04
  4.38087E+04 -1.00886E+04  3.82659E+04  2.55404E+04  1.94781E+04  4.90994E+04 -9.57179E+03  5.23482E+04
 -3.36689E+04  3.62619E+04 -4.39849E+04  9.46043E+03 -4.47587E+04 -1.76430E+04 -2.42280E+04 -4.01291E+04
  7.94366E+03 -3.91304E+04  3.33132E+04 -1.73204E+04  3.16943E+04  1.26966E+04  5.11800E+03  2.17933E+04
 -1.33244E+04  9.72349E+03 -1.19098E+04 -7.86645E+03  7.16046E+03 -9.97822E+03  1.82631E+04  5.45318E+03
  1.50211E+04  2.15429E+04 -6.18182E+03  2.58223E+04 -2.20160E+04  1.29175E+04 -2.84229E+04 -5.65937E+03
 -2.39294E+04 -1.69199E+04 -9.00085E+03 -2.29820E+04  3.50902E+03 -2.39802E+04  1.60399E+04 -2.07882E+04
  2.95213E+04 -1.32119E+04  3.54451E+04  2.62648E+03  2.59651E+04  2.30628E+04  4.19398E+03  3.78951E+04
 -1.99928E+04  3.35196E+04 -2.83938E+04  1.03512E+04 -2.24661E+04 -1.01630E+04 -5.48231E+03 -1.21477E+04
  3.09131E+03 -1.75042E+03 -6.74141E+03  7.34385E+03 -1.81716E+04  5.84404E+03 -1.83770E+04 -8.13375E+03
 -9.98759E+03 -2.12403E+04  5.93633E+03 -2.43750E+04  1.74368E+04 -1.73886E+04  2.12524E+04 -9.79230E+02
  1.17152E+04  1.40325E+04 -1.57972E+02  2.13172E+04 -1.50857E+04  1.16519E+04 -2.15239E+04 -4.63816E+03
 -1.51011E+04 -1.79929E+04 -1.11453E+03 -2.57523E+04  1.13830E+04 -2.03645E+04  2.21917E+04 -1.07634E+04
  1.85637E+04 -4.18217E+02  1.57478E+04  5.18334E+03  7.40607E+03  8.37690E+02  1.01519E+04 -2.99919E+03
  1.99679E+04  3.89607E+03  2.43900E+04  1.61699E+04  1.46914E+04  3.38875E+04 -1.61751E+03  4.02082E+04
 -2.36171E+04  3.19358E+04 -3.61581E+04  1.69493E+04 -3.91294E+04 -2.84719E+03 -3.17212E+04 -2.17346E+04
 -1.29071E+04 -3.17169E+04  1.08405E+04 -2.85059E+04  2.45057E+04 -1.48905E+04  2.17397E+04  7.41692E+03
  8.21813E+03  1.79796E+04 -1.00275E+04  1.48043E+04 -1.77122E+04  3.38261E+03 -1.38650E+04 -1.09976E+04
 -5.23583E+02 -1.63658E+04  8.70539E+03 -1.10011E+04  1.22660E+04 -2.29625E+03  2.45818E+03  7.19612E+03
 -8.08556E+03  2.82556E+03 -7.62747E+03 -5.48403E+03 -5.38632E+02 -1.47077E+04  1.04840E+04 -1.70962E+04
  2.00135E+04 -9.54557E+03  2.21107E+04  3.11859E+03  2.03081E+04  1.73126E+04  8.45212E+03  2.42116E+04
 -5.21634E+03  2.80361E+04 -1.88568E+04  1.69957E+04 -2.06578E+04  2.85368E+03 -1.35776E+04 -4.53689E+03
 -5.28899E+03 -4.72269E+03 -2.86837E+02  1.01610E+03 -2.04974E+03  1.97179E+03 -5.82641E+03  4.24103E+03
 -1.22871E+04 -6.02218E+02 -1.25406E+04 -1.04085E+04 -5.14193E+03 -1.82848E+04  6.35707E+03 -1.31463E+04
  1.28734E+04 -4.99322E+03  6.85297E+03  4.78132E+03 -5.20320E+02  5.99234E+03 -6.42166E+03  1.01379E+03
 -7.39340E+03 -7.54122E+03 -1.18950E+03 -1.40723E+04  7.38162E+03 -1.37618E+04  1.69329E+04 -8.69000E+03
  2.07772E+04  2.09790E+03  1.44450E+04  9.91666E+03  2.27446E+03  1.52119E+04 -7.34725E+03  1.39499E+04
 -1.02851E+04  3.65868E+03 -5.41819E+03 -3.77379E+03  2.83938E+03 -3.27151E+03  7.62886E+03 -1.74546E+03
  8.02159E+03  4.33572E+03  3.90833E+02  1.04452E+04 -5.76543E+03  1.04489E+04 -1.27379E+04  3.49957E+03
 -8.75767E+03 -5.09831E+03  1.05347E+03 -1.08848E+04  6.59338E+03 -5.10011E+03  6.53952E+03  3.88886E+03
  1.85403E+03  8.15182E+03 -6.81580E+03  9.76766E+03 -1.14293E+04  4.68578E+03 -1.04964E+04 -3.18895E+03
 -7.15065E+03 -1.20727E+04  2.76941E+03 -1.33933E+04  1.28301E+04 -7.60516E+03  1.24180E+04  2.35812E+03
  7.98961E+03  1.15293E+04 -2.33823E+03  1.22181E+04 -9.41546E+03  6.81875E+03 -9.60338E+03 -8.31647E+01
 -9.81622E+03 -9.55928E+03 -1.93193E+03 -9.74073E+03  5.01026E+03 -7.68187E+03  8.13357E+03 -3.37192E+03
  3.43152E+03  2.06269E+03 -1.22382E+03  8.81995E+02  1.19395E+02 -2.30925E+03  2.21747E+03 -6.83148E+03
  9.18582E+03 -4.34409E+03  1.31580E+04  1.10872E+03  1.19489E+04  9.35008E+03  9.13644E+03  1.71013E+04
 -2.84230E+03  1.94596E+04 -1.54762E+04  1.51297E+04 -2.10225E+04  2.52929E+03 -1.65654E+04 -7.13686E+03
 -9.24854E+03 -1.35411E+04 -1.30130E+03 -1.25237E+04  3.85701E+03 -6.55778E+03  4.75281E+03 -3.47064E+03
  2.69232E+03 -3.11000E+03  4.46740E+03 -2.36213E+03  5.62333E+03 -2.59717E+03  6.32991E+03 -1.79590E+03
  9.54901E+03  1.77951E+03  4.47056E+03  7.04965E+03 -2.52233E+03  8.71453E+03 -9.85618E+03  6.15814E+03
 -1.18399E+04  1.17995E+03 -6.33530E+03 -8.13429E+03 -7.37680E+02 -1.37789E+04  7.43182E+03 -1.27740E+04
  1.24296E+04 -7.16515E+03  1.51903E+04  1.34766E+03  1.06600E+04  1.08134E+04  6.15255E+02  1.41980E+04
 -6.12373E+03  1.20710E+04 -8.30278E+03  4.43991E+03 -4.44467E+03 -1.61074E+03 -2.58635E+03 -1.60801E+03
 -5.04562E+02 -6.19964E+02 -2.35373E+03  3.28252E+03 -4.82572E+03  2.20560E+03 -8.00938E+03 -1.70405E+03
 -5.81069E+03 -8.33960E+03  6.47198E+02 -1.26329E+04  7.18691E+03 -1.14338E+04  1.07854E+04 -8.14805E+02
  9.42697E+03  5.22377E+03  4.36437E+03  9.86012E+03 -1.40520E+03  1.07432E+04 -7.40767E+03  7.21418E+03
 -9.72323E+03 -4.70973E+02 -8.17933E+03 -5.67266E+03 -1.54103E+03 -9.51871E+03  4.37496E+03 -5.75384E+03
  7.23603E+03 -1.39062E+03  5.51231E+03  2.54832E+03  9.81833E+02  4.85988E+03  6.46852E+02  1.11205E+03
  1.88747E+03  3.49060E+02  1.63886E+03  1.89476E+03  4.49573E+03  3.75956E+03  3.70069E+03  6.68638E+03
 -2.36318E+03  8.94690E+03 -7.09696E+03  9.37768E+03 -1.16381E+04  2.68991E+03 -1.28913E+04 -4.29860E+03
 -5.93672E+03 -1.08738E+04  2.08918E+03 -1.32376E+04  6.17361E+03 -8.81128E+03  9.11088E+03 -1.78736E+03
  6.67304E+03  4.18359E+03  1.61666E+03  7.19839E+03 -3.24137E+03  4.02394E+03 -4.36392E+03 -5.31009E+02
 -1.77992E+03 -3.81100E+03  2.41427E+03 -3.55071E+03  4.12435E+03 -3.01644E+03  5.55521E+03  9.81430E+02
  4.12491E+03  1.58011E+03  1.61951E+03  1.38189E+03  9.16880E+02  1.65133E+03  2.05018E+03 -6.49337E+02
  4.33806E+02  6.34923E+02  5.93094E+03  2.64938E+03  2.66999E+03  5.86904E+03  5.85106E+02  8.18035E+03
 -5.51689E+03  5.93574E+03 -8.51438E+03  2.65889E+03 -5.68676E+03 -4.05946E+03 -2.55991E+03 -4.48530E+03
  3.45097E+02 -3.10160E+03  2.04483E+03 -2.20362E+03  2.19009E+03  2.37535E+03 -1.48481E+03  3.06828E+03
 -5.02620E+03  2.46951E+03 -5.36523E+03 -2.04715E+03 -2.88703E+03 -6.78268E+03  1.92793E+03 -5.79901E+03
  3.17741E+03 -2.89031E+03  3.56906E+03  1.82751E+03  3.41965E+03  1.38799E+03 -8.05548E+02  1.83984E+03
 -2.17962E+03  6.84043E+02 -3.09727E+03 -2.39468E+03  2.63168E+02 -4.75775E+03  5.17796E+03 -3.17056E+03
  5.49192E+03  6.82960E+02  7.96727E+03  5.75367E+03  2.07781E+03  7.94178E+03 -2.58888E+03  6.47363E+03
 -6.30899E+03  2.49246E+03 -5.13462E+03 -1.65764E+02 -3.75919E+03 -4.81614E+03  1.52836E+03 -3.30016E+03
  6.99894E+03 -1.95906E+03  3.07803E+03  3.19145E+03  1.55891E+03  4.73966E+03 -1.91765E+03  4.10537E+03
 -1.39894E+03  2.33066E+03 -2.05518E+03  9.95555E+02 -1.08096E+03  1.41156E+03 -1.29867E+03  1.98650E+03
 -8.28639E+01  3.36791E+03 -3.55315E+03  2.93919E+03 -6.45453E+03 -9.83043E+02 -6.93037E+03 -4.31634E+03
 -4.66892E+03 -8.45750E+03  9.46507E+02 -1.00548E+04  6.56320E+03 -7.88806E+03  9.85422E+03 -2.59373E+03
  8.45684E+03  1.45189E+03  5.10655E+03  6.29675E+03 -8.92036E+01  6.53309E+03 -1.73136E+03  6.64813E+03
 -4.37181E+03  1.78624E+03 -3.30673E+03 -1.59945E+03  6.79103E+01 -2.47658E+01 -1.18979E+03  4.26531E+02
 -7.92594E+02  8.42070E+02 -2.08117E+03 -1.92043E+03  1.23713E+03 -2.12234E+03  1.67913E+03 -3.20492E+03
  3.97956E+03 -3.68806E+03  3.29484E+03 -5.27888E+02  4.97262E+03  4.71082E+03  1.38303E+03  6.89783E+03
 -3.56091E+03  8.46602E+03 -5.68534E+03  3.87757E+03 -9.73343E+03  4.92919E+02 -6.71389E+03 -5.08816E+03
 -2.69963E+03 -8.64061E+03  8.07716E+02 -5.83688E+03  4.06920E+03 -4.21486E+03  2.84225E+03  3.83883E+02
  3.98841E+03  1.50674E+03 -7.39485E+02  3.24009E+03 -1.62892E+03 -1.57344E+03  1.06279E+02 -1.09421E+03
  2.60000E+03 -1.09411E+03  1.85690E+03  1.84267E+03  2.47222E+03  2.32742E+03 -3.04678E+02  3.59928E+03
 -3.19201E+03  3.50109E+03 -4.94440E+03  1.72241E+03 -4.12023E+03 -3.97175E+03 -9.95644E+00 -5.00383E+03
  1.97196E+03 -6.32298E+03  4.75133E+03 -1.58318E+03  4.76278E+03  4.47174E+02  2.13968E+03  4.58018E+03
  1.41628E+03  5.09603E+03 -2.13689E+03  4.15604E+03 -3.39543E+03  1.98592E+03 -2.94549E+03 -2.58725E+02
 -2.37723E+02  3.63853E+02 -8.33043E+02  3.78450E+02 -1.34713E+03  1.16562E+03 -3.16653E+03 -4.45322E+02
 -3.53943E+03 -3.10104E+03 -1.73910E+03 -6.07941E+03  2.13144E+03 -5.93522E+03  3.50023E+03 -9.90540E+02
  4.46594E+03 -2.09106E+02  1.73405E+03  3.31485E+03  2.24898E+02  4.10426E+03 -3.65332E+03  3.13524E+03
