 $NMID ID='MM_0lb_SNR200_20hz_g60_35.RAW', FMTDAT='(8E13.5)'
 TRAMP=1., VOLUME=1. $END
  3.11327E+05  2.64853E+02  3.36964E+05  2.50262E+05  8.45622E+04  3.37048E+05 -1.31933E+05  2.50738E+05
 -1.89711E+05  8.29478E+04 -1.11749E+05 -3.27469E+04  1.32621E+03 -5.00091E+04  5.37805E+04  7.12766E+02
  3.51817E+04  5.29652E+04 -1.64409E+04  7.46405E+04 -5.99111E+04  6.26556E+04 -8.36832E+04  3.12017E+04
 -7.87733E+04 -1.19485E+04 -5.71216E+04 -5.00972E+04 -1.46965E+04 -6.90005E+04  2.79469E+04 -4.51412E+04
  3.91356E+04  3.99732E+03  1.56430E+04  4.66916E+04 -3.34708E+04  4.64403E+04 -6.65218E+04 -1.16834E+03
 -5.25639E+04 -5.61361E+04 -5.94431E+03 -7.55102E+04  3.28885E+04 -5.34407E+04  4.72992E+04 -1.75439E+04
  4.25107E+04  1.15440E+04  3.03080E+04  2.43049E+04  1.64872E+04  2.80524E+04 -4.29311E+03  2.83131E+04
 -2.13259E+04  1.31003E+04 -1.90480E+04 -4.49595E+03  4.68653E+03 -7.95573E+03  2.25294E+04  1.09578E+04
  8.19732E+03  3.37382E+04 -3.19130E+04  3.38469E+04 -6.17570E+04  2.05508E+03 -5.62903E+04 -4.08623E+04
 -1.17439E+04 -6.22286E+04  3.82462E+04 -4.42051E+04  5.55057E+04 -2.10674E+03  3.29372E+04  3.21475E+04
 -6.64330E+03  3.53347E+04 -2.83261E+04  1.43034E+04 -2.84435E+04 -4.70180E+03 -1.45895E+04 -9.29230E+03
 -7.26374E+03 -1.19922E+04 -1.96350E+03 -1.72088E+04  7.60500E+03 -2.19683E+04  1.52188E+04 -1.40474E+04
  1.26003E+04  5.07339E+03 -6.96740E+03  1.32003E+04 -1.88237E+04 -2.66769E+03 -8.13513E+03 -3.14115E+04
  2.11131E+04 -4.12458E+04  4.66378E+04 -1.81909E+04  4.31265E+04  1.82116E+04  1.44995E+04  4.26012E+04
 -1.66629E+04  3.11450E+04 -2.36343E+04  1.05815E+03 -9.41634E+03 -2.65183E+04  2.20058E+04 -3.17106E+04
  3.84751E+04 -6.91859E+03  3.36026E+04  2.31076E+04  1.54300E+04  4.42519E+04 -6.94900E+03  4.69368E+04
 -2.94367E+04  3.01596E+04 -3.89220E+04  7.04714E+03 -3.98083E+04 -1.43766E+04 -2.19886E+04 -3.38412E+04
  6.61592E+03 -3.41443E+04  2.99016E+04 -1.23821E+04  2.70514E+04  1.09629E+04  3.19648E+03  1.85296E+04
 -1.39524E+04  6.57658E+03 -9.93072E+03 -6.70326E+03  6.05219E+03 -1.12206E+04  1.76076E+04  7.03490E+03
  1.29104E+04  2.08147E+04 -7.10506E+03  2.35820E+04 -2.12245E+04  8.94167E+03 -2.57353E+04 -5.73057E+03
 -1.69591E+04 -1.61959E+04 -5.67392E+03 -1.78513E+04  3.92029E+03 -1.51662E+04  1.29484E+04 -1.48611E+04
  2.17161E+04 -1.19325E+04  2.99471E+04  2.45025E+03  2.22081E+04  1.79404E+04  5.24535E+03  3.30533E+04
 -1.64875E+04  2.80933E+04 -2.53637E+04  9.39231E+03 -1.90940E+04 -1.00318E+04 -3.26197E+03 -1.38859E+04
  9.55180E+02 -4.39553E+03 -2.92842E+03  4.64894E+03 -1.27921E+04  5.63147E+03 -1.42754E+04 -5.75098E+03
 -9.38486E+03 -1.61930E+04  4.93059E+03 -1.94716E+04  1.20756E+04 -1.27223E+04  1.55894E+04 -1.15265E+03
  9.29803E+03  1.18015E+04 -3.34386E+02  1.50811E+04 -1.10609E+04  8.72899E+03 -1.56054E+04 -3.84364E+03
 -1.20239E+04 -1.33233E+04 -1.60026E+03 -1.87495E+04  8.31598E+03 -1.47471E+04  1.54720E+04 -7.03260E+03
  1.51403E+04  1.18768E+03  1.09123E+04  4.72819E+03  4.94509E+03 -1.47008E+02  7.63223E+03 -1.30386E+03
  1.50357E+04  3.02173E+03  1.50076E+04  1.34018E+04  9.06162E+03  2.48688E+04 -3.75319E+03  2.68989E+04
 -1.64196E+04  2.11235E+04 -2.40661E+04  1.02216E+04 -2.46025E+04 -2.13120E+03 -2.13209E+04 -1.42490E+04
 -9.97847E+03 -2.12426E+04  5.97380E+03 -1.88651E+04  1.68389E+04 -1.08178E+04  1.54425E+04  3.49021E+03
  6.09109E+03  1.12013E+04 -7.77282E+03  1.03988E+04 -1.40121E+04  1.66499E+03 -1.04638E+04 -7.56881E+03
 -3.11657E+02 -1.27984E+04  6.79409E+03 -9.50554E+03  7.82126E+03 -5.40605E+02  1.08932E+03  5.14918E+03
 -6.49738E+03  8.65060E+02 -3.82874E+03 -5.17248E+03  1.25974E+03 -1.03654E+04  7.99398E+03 -1.05558E+04
  1.32694E+04 -4.11589E+03  1.20025E+04  2.75659E+03  1.09979E+04  9.72198E+03  4.82980E+03  1.41603E+04
 -1.87857E+03  1.64528E+04 -9.95289E+03  1.07963E+04 -1.05465E+04  3.32874E+03 -7.63058E+03 -1.35440E+03
 -4.43014E+03 -4.35030E+03 -1.53837E+03  1.84601E+03 -1.73618E+03  3.02492E+03 -2.68466E+03  4.18268E+03
 -7.64978E+03 -1.02301E+03 -9.28037E+03 -7.21352E+03 -3.82694E+03 -1.08808E+04  2.90694E+03 -8.34479E+03
  7.59197E+03 -4.61955E+03  5.65774E+03  1.36130E+03  1.34398E+01  3.68567E+03 -2.67453E+03 -8.08080E+02
 -3.76287E+03 -4.48119E+03 -1.31398E+03 -6.56599E+03  4.44141E+03 -7.98807E+03  8.61866E+03 -4.15906E+03
  1.17684E+04  2.72681E+01  8.21200E+03  5.86413E+03  1.78043E+03  7.39105E+03 -4.50849E+03  7.22889E+03
 -7.59379E+03  2.12085E+03 -3.45495E+03 -1.42256E+03  1.45842E+03 -1.10742E+03  4.41033E+03 -1.04767E+03
  4.32671E+03  3.34509E+03  1.70053E+03  5.26848E+03 -3.72220E+03  6.00892E+03 -7.84164E+03  1.77349E+03
 -4.83785E+03 -3.96808E+03  3.39153E+02 -6.57205E+03  3.35860E+03 -2.89106E+03  2.76987E+03  1.25842E+03
  7.12576E+02  3.55190E+03 -3.97617E+03  3.27370E+03 -4.59454E+03  2.16717E+03 -3.67738E+03 -1.71622E+03
 -2.84461E+03 -5.34857E+03  1.37057E+03 -5.61425E+03  6.37945E+03 -4.61846E+03  5.53311E+03  2.49185E+03
  4.75131E+03  6.08539E+03  8.98765E+01  6.70039E+03 -4.10920E+03  4.06552E+03 -3.93123E+03  4.50786E+01
 -5.40280E+03 -4.28743E+03 -2.05543E+03 -4.25109E+03  2.74809E+03 -5.62060E+03  3.10050E+03 -2.65578E+03
  1.62314E+03  4.00053E+02 -4.71298E+02  2.57042E+03  6.89318E+02 -4.69494E+02 -4.22633E+02 -1.32713E+03
  4.35572E+03 -6.30059E+02  5.01051E+03  1.01251E+03  3.99958E+03  1.70492E+03  5.02629E+03  7.04512E+03
 -1.11717E+03  6.96637E+03 -6.72516E+03  6.77695E+03 -8.62088E+03  1.02445E+03 -6.72911E+03 -2.35527E+03
 -3.44820E+03 -5.82860E+03 -8.89247E+02 -4.47549E+03  1.42508E+03 -2.21033E+03  2.50301E+03 -1.75672E+03
  9.62735E+02 -6.45667E+02  1.52687E+03 -2.86687E+03  2.55385E+03 -1.59104E+03  3.16048E+03  1.05772E+02
  4.03557E+03  1.53189E+03  1.66754E+03  2.93474E+03 -1.37534E+03  2.73631E+03 -4.23780E+03  2.17781E+03
 -4.03515E+03 -1.67042E+02 -2.55686E+03 -2.06613E+03  9.30578E+02 -4.23863E+03  3.58565E+03 -3.96112E+03
  5.02456E+03 -1.99999E+03  5.00662E+03 -2.92528E+01  3.78483E+03  3.53519E+03  5.23708E+02  5.57867E+03
 -2.69482E+03  4.89448E+03 -3.22191E+03  1.33025E+03 -1.25429E+03 -1.15425E+03 -8.78936E+02 -3.85581E+02
 -3.59237E+02  3.08101E+02 -2.39682E+03  1.95635E+03 -1.65514E+03  1.37348E+03 -4.15325E+03 -1.05051E+03
 -1.56839E+03 -2.43412E+03  4.80246E+02 -4.20444E+03  2.53932E+03 -3.47661E+03  2.43772E+03 -5.88654E+02
  3.16185E+03  2.30036E+03  1.47580E+03  2.82619E+03 -1.44676E+03  3.55321E+03 -2.30342E+03  1.72754E+03
 -1.92845E+03  7.78910E+02 -4.41943E+03 -1.63528E+03  1.87007E+02 -2.20025E+03  1.16290E+03 -1.18446E+03
  2.30227E+03 -2.12751E+03  9.32208E+02  9.11759E+02 -3.89699E+01  1.03372E+03  1.51988E+03  9.70734E+02
  1.88453E+03  2.62716E+02  1.20539E+03  1.61826E+03  1.01409E+03  1.98085E+03  2.22358E+03  1.22104E+03
 -1.61251E+03  2.23391E+03 -1.85080E+03  2.21909E+03 -2.55007E+03  1.26442E+03 -3.60358E+03  5.01338E+02
 -2.53418E+03 -2.79799E+03  8.03628E+02 -3.47863E+03  7.48959E+01 -1.66749E+03  2.71226E+03 -1.02504E+03
  2.68948E+03  1.34104E+03 -3.61260E+02  2.07655E+03 -4.28729E+02  7.78479E+02 -6.64164E+02 -9.17804E+02
 -8.58744E+02 -9.07953E+02  9.38040E+02 -1.57488E+03  7.43639E+02 -8.98239E+02  3.40397E+02  6.96412E+02
 -8.73324E+02 -3.57984E+02  3.63855E+02 -2.16908E+02 -1.46270E+03  1.11960E+03  9.23637E+02 -2.75840E+02
  4.95566E+02 -6.27316E+02  1.55187E+03 -1.55365E+01  9.43877E+02  2.12542E+03 -2.50137E+02  1.94855E+03
 -1.19797E+03  7.88167E+02 -1.82940E+03 -9.31407E+02 -1.33273E+03 -1.11570E+03  8.75325E+02 -9.26867E+02
  1.06199E+03 -1.38226E+03  8.42920E+02  9.97123E+01  1.11707E+03  6.78050E+02 -1.07899E+03  1.03627E+03
 -4.59964E+02  9.46600E+02 -1.20464E+03 -9.44964E+02 -1.47247E+03 -2.08265E+03 -5.75039E+02 -1.00396E+03
  4.50572E+02 -8.03942E+02  2.47557E+02 -6.22608E+01  9.14911E+02 -4.89220E+02 -2.50340E+02  6.26901E+02
 -5.31051E+02 -3.59895E+02  5.43291E+02  6.11986E+02  7.51602E+02  2.68040E+02  1.34527E+03  5.80723E+02
  2.95694E+02 -5.08646E+02  1.66925E+03  5.13973E+02  2.08462E+03  1.02610E+03 -7.92896E+02  2.29593E+03
 -1.40613E+03  4.58338E+02 -1.81196E+03  2.65107E+02 -5.73934E+02  5.48183E+01  7.42686E+02  6.60958E+02
  1.35207E+03 -4.47884E+02  3.14804E+02  8.03978E+02  4.45096E+01  7.78651E+02  7.64667E+02  1.89596E+03
 -2.89940E+02  1.75471E+03 -1.25973E+03  6.11862E+02  1.18520E+03  2.06156E+03 -3.21718E+02  9.44448E+02
  8.23090E+02  6.89564E+02 -1.83510E+03 -4.73107E+02 -1.04295E+03 -5.32727E+02 -2.25622E+03 -1.63248E+03
 -1.39456E+03 -7.39242E+02  1.08723E+03 -2.27928E+03 -2.03889E+02 -1.45855E+03  1.64968E+03 -1.06326E+03
  1.11633E+03  6.57610E+02  1.72056E+03  1.48035E+03 -5.04074E+02  6.02119E+02 -8.41266E+02 -2.87066E+02
 -6.28362E+02 -2.17663E+02 -8.67537E+02  1.22524E+02 -7.23617E+02 -1.30715E+03 -8.32726E+02  6.57841E+02
 -4.20625E+02  6.81257E+01 -3.02702E+02 -2.51989E+01 -4.49430E+02  2.58019E+02 -9.33713E+02 -7.70352E+01
  1.01315E+03 -8.18837E+02  4.64015E+02  3.07077E+02  1.48188E+03  3.98649E+02  4.69252E+02  9.61639E+02
 -7.28734E+02  1.13351E+03  5.58494E+01  3.01281E+02 -1.76007E+02  3.06150E+02 -9.96250E+02 -1.18503E+03
 -1.34070E+03  3.26343E+02 -7.80957E+02 -7.40598E+02 -5.61995E+02 -1.43897E+03 -2.79995E+02  1.41035E+03
  1.18995E+03 -1.41543E+03  7.53468E+02 -1.13580E+03  2.04524E+02 -1.04739E+02  3.63543E+02 -9.40111E+02
  4.97014E+02  9.25689E+02  8.01116E+01  5.46001E+02 -3.01374E+02  3.56454E+02  2.10395E+03  2.82846E+02
  2.60241E+02  4.96313E+02 -2.56460E+02 -8.99789E+02 -6.90604E+02  5.93560E+02 -7.58892E+02 -1.35189E+03
  5.90814E+01 -9.47805E+02 -2.14683E+02 -1.40718E+02  1.19778E+03 -4.68581E+02  6.49611E+02  6.01025E+01
  4.27416E+02 -1.77203E+02 -7.32494E+01  6.13918E+02 -3.26550E+02  3.72857E+02  1.14524E+02 -1.03499E+02
 -6.77541E+02 -2.42145E+02 -6.26914E+02 -1.74767E+02  5.26409E+02 -7.24631E+02 -3.58055E+02 -1.57519E+02
 -1.73932E+02  1.22611E+03  3.43903E+02 -8.07121E+02  2.96639E+02 -1.34048E+03  1.45648E+02  3.14196E+02
  5.17451E+02  7.42937E+02 -5.80041E+02 -4.29879E+02 -8.31205E+01 -7.37790E+02  1.82414E+02  9.89587E+02
