 $NMID ID='MM_0lb_SNR200_11hz_g60_66.RAW', FMTDAT='(8E13.5)'
 TRAMP=1., VOLUME=1. $END
  3.09417E+05  6.56329E+02  3.37647E+05  2.50007E+05  8.53948E+04  3.38716E+05 -1.32565E+05  2.51774E+05
 -1.91337E+05  8.28539E+04 -1.13257E+05 -3.25697E+04  1.98940E+03 -5.13161E+04  5.27764E+04 -6.75304E+02
  3.54266E+04  5.18140E+04 -1.75661E+04  7.54422E+04 -6.13181E+04  6.43400E+04 -8.53173E+04  3.32982E+04
 -8.21374E+04 -1.08282E+04 -5.81490E+04 -5.31346E+04 -1.46315E+04 -7.12122E+04  2.86511E+04 -4.66380E+04
  4.20878E+04  3.93443E+03  1.57706E+04  4.97615E+04 -3.53520E+04  4.78706E+04 -6.69135E+04 -1.81222E+02
 -5.34624E+04 -5.72308E+04 -7.89869E+03 -7.78260E+04  3.37236E+04 -5.65602E+04  4.94172E+04 -1.82002E+04
  4.44987E+04  1.14309E+04  3.38169E+04  2.75355E+04  1.61024E+04  3.03678E+04 -6.00495E+03  2.77625E+04
 -2.21952E+04  1.17323E+04 -1.79533E+04 -5.11492E+03  6.96033E+03 -7.68888E+03  2.28685E+04  1.41261E+04
  7.83481E+03  3.82442E+04 -3.12454E+04  3.59252E+04 -6.53232E+04  9.14465E+02 -5.85033E+04 -4.37712E+04
 -1.39662E+04 -6.64793E+04  4.24620E+04 -4.93126E+04  6.03646E+04 -2.64990E+03  3.61547E+04  3.55269E+04
 -5.13675E+03  3.87691E+04 -3.16651E+04  1.83996E+04 -3.33564E+04 -3.80512E+03 -1.88469E+04 -1.11138E+04
 -9.38072E+03 -1.57132E+04 -9.56158E+02 -1.98956E+04  8.69735E+03 -2.41179E+04  1.59738E+04 -1.29645E+04
  9.83218E+03  6.09601E+03 -1.13400E+04  1.48450E+04 -2.24716E+04 -5.95136E+03 -8.62277E+03 -3.68893E+04
  2.50163E+04 -4.62982E+04  5.19150E+04 -1.92370E+04  4.72548E+04  1.85428E+04  1.70526E+04  4.60365E+04
 -1.55414E+04  3.53469E+04 -2.68561E+04  2.25982E+03 -1.09916E+04 -2.93818E+04  2.11643E+04 -3.79813E+04
  4.58945E+04 -1.01803E+04  3.94240E+04  2.44526E+04  1.91282E+04  5.13511E+04 -8.87008E+03  5.63631E+04
 -3.52694E+04  3.71721E+04 -4.70500E+04  9.89261E+03 -4.63766E+04 -1.82620E+04 -2.61729E+04 -4.25448E+04
  7.46058E+03 -4.18168E+04  3.41195E+04 -1.71349E+04  3.20945E+04  9.78732E+03  5.43528E+03  1.96200E+04
 -1.46392E+04  8.21876E+03 -1.19395E+04 -7.03143E+03  6.82232E+03 -1.25437E+04  2.00157E+04  4.73781E+03
  1.47095E+04  2.26561E+04 -5.83111E+03  2.75389E+04 -2.26697E+04  1.32497E+04 -2.88968E+04 -2.69645E+03
 -2.45132E+04 -1.86494E+04 -1.10022E+04 -2.40829E+04  4.71644E+03 -2.44664E+04  1.90759E+04 -2.29073E+04
  3.22000E+04 -1.51376E+04  3.74679E+04  4.26841E+03  2.77494E+04  2.43940E+04  4.88164E+03  4.05409E+04
 -1.81773E+04  3.35428E+04 -2.97704E+04  1.19447E+04 -2.25044E+04 -1.03919E+04 -3.44123E+03 -1.36822E+04
  5.28815E+02 -7.78808E+02 -6.46397E+03  8.47170E+03 -2.02821E+04  5.00002E+03 -2.01420E+04 -8.36992E+03
 -1.29149E+04 -2.24541E+04  5.17788E+03 -2.68906E+04  1.80217E+04 -1.89284E+04  2.16563E+04 -2.61845E+03
  1.37545E+04  1.60001E+04 -1.88919E+03  2.21578E+04 -1.58977E+04  1.27344E+04 -2.24729E+04 -4.76772E+03
 -1.60991E+04 -2.21065E+04 -2.10523E+03 -2.76119E+04  1.26848E+04 -2.11669E+04  2.21037E+04 -1.13234E+04
  2.25785E+04  6.86188E+02  1.50666E+04  5.70118E+03  7.57372E+03  1.35345E+03  1.06053E+04 -4.30079E+03
  2.08941E+04  1.33705E+03  2.50684E+04  1.65430E+04  1.71924E+04  3.61226E+04 -3.46238E+03  4.17243E+04
 -2.46889E+04  3.59552E+04 -4.03247E+04  1.66313E+04 -4.23008E+04 -2.73247E+03 -3.26497E+04 -2.38041E+04
 -1.33828E+04 -3.62961E+04  1.18105E+04 -3.00868E+04  2.60492E+04 -1.51301E+04  2.33113E+04  8.76008E+03
  8.01336E+03  1.84909E+04 -1.07276E+04  1.57759E+04 -1.88492E+04  2.54474E+03 -1.49079E+04 -1.27167E+04
  2.90338E+02 -1.67794E+04  9.69447E+03 -1.26750E+04  1.20311E+04 -9.61823E+02  3.24849E+03  8.52865E+03
 -9.82247E+03  3.93174E+03 -7.04461E+03 -6.88568E+03 -1.14756E+03 -1.67613E+04  1.15441E+04 -1.81453E+04
  2.24461E+04 -1.07514E+04  2.46991E+04  2.48684E+03  2.10127E+04  1.78676E+04  9.59783E+03  2.66635E+04
 -5.59256E+03  2.89024E+04 -1.92320E+04  1.87798E+04 -2.16910E+04  3.81433E+03 -1.39973E+04 -5.05056E+03
 -6.17911E+03 -6.37385E+03 -6.55367E+02  1.14780E+03 -2.11456E+03  3.80291E+03 -8.44758E+03  4.20778E+03
 -1.35485E+04 -1.04388E+03 -1.49024E+04 -1.15572E+04 -5.87585E+03 -1.86697E+04  4.96393E+03 -1.62562E+04
  1.28954E+04 -5.83391E+03  8.70866E+03  4.15226E+03 -3.60372E+02  5.17403E+03 -7.41144E+03  1.00682E+03
 -6.79989E+03 -1.06626E+04 -1.34380E+03 -1.44811E+04  7.37799E+03 -1.71389E+04  1.85109E+04 -8.60353E+03
  2.14487E+04  2.52905E+03  1.59874E+04  1.21444E+04  2.56560E+03  1.83948E+04 -9.26129E+03  1.47112E+04
 -1.03750E+04  3.30893E+03 -6.42400E+03 -2.67039E+03  2.30173E+03 -3.25856E+03  8.24198E+03 -1.72638E+03
  7.15919E+03  5.72894E+03  1.80995E+03  1.24586E+04 -7.37591E+03  1.00918E+04 -1.52188E+04  9.78348E+02
 -1.02510E+04 -7.47638E+03 -1.60496E+01 -1.28522E+04  8.53084E+03 -6.61320E+03  7.84626E+03  4.68602E+03
  1.92093E+03  8.73429E+03 -7.39828E+03  1.09692E+04 -1.24449E+04  4.31435E+03 -1.36497E+04 -3.49443E+03
 -6.20852E+03 -1.57909E+04  5.23041E+03 -1.61445E+04  1.40055E+04 -9.08839E+03  1.57411E+04  1.97560E+03
  9.55088E+03  1.24466E+04 -8.56644E+02  1.33626E+04 -1.18309E+04  7.02005E+03 -1.14788E+04 -1.72377E+03
 -1.00754E+04 -1.04724E+04 -1.68862E+03 -1.02770E+04  5.05695E+03 -9.92921E+03  6.27405E+03 -5.30043E+03
  5.04106E+03  2.64408E+03 -1.21991E+03  1.48322E+03 -1.94584E+02 -3.67566E+03  1.44759E+03 -7.35260E+03
  9.45916E+03 -3.26832E+03  1.48301E+04  2.88433E+03  1.50879E+04  1.01657E+04  1.03489E+04  1.84481E+04
 -3.67032E+03  2.11805E+04 -1.64132E+04  1.50763E+04 -2.26595E+04  2.66883E+03 -1.79632E+04 -8.54194E+03
 -9.52830E+03 -1.49878E+04 -1.33700E+03 -1.30142E+04  5.35726E+03 -7.46789E+03  5.17763E+03 -5.50015E+03
  2.39339E+03 -3.35442E+03  4.27908E+03 -4.24809E+03  5.00598E+03 -4.08550E+03  7.83292E+03 -1.27182E+03
  1.05430E+04  2.80504E+03  5.02624E+03  6.61320E+03 -2.81898E+03  1.04887E+04 -9.38478E+03  8.72786E+03
 -1.22269E+04 -1.42101E+03 -8.32542E+03 -8.50689E+03  4.01724E+02 -1.35486E+04  8.22565E+03 -1.42186E+04
  1.35929E+04 -8.36798E+03  1.76816E+04  1.54197E+03  1.20335E+04  1.32342E+04  5.09916E+02  1.56996E+04
 -5.23676E+03  1.21352E+04 -9.14566E+03  4.95805E+03 -4.82286E+03 -2.29763E+03 -2.20533E+03 -1.50632E+03
  2.62865E+02 -1.02360E+03 -1.22349E+03  2.43201E+03 -5.46382E+03  3.14326E+03 -8.65600E+03 -7.65729E+02
 -6.48569E+03 -8.62902E+03 -6.57836E+01 -1.21867E+04  7.69804E+03 -1.18516E+04  1.15529E+04 -3.16983E+03
  1.19559E+04  6.75349E+03  4.19280E+03  1.14687E+04 -2.31789E+03  1.22175E+04 -9.46701E+03  6.22777E+03
 -1.21827E+04  8.05124E+02 -1.02243E+04 -8.13626E+03 -3.56683E+02 -1.18145E+04  6.44355E+03 -8.72618E+03
  6.61936E+03 -1.89344E+03  4.36433E+03  2.00174E+03  1.93987E+03  1.41339E+03 -9.30110E+00  8.02380E+02
  1.87159E+03  1.64445E+03  4.02303E+03  1.08453E+03  4.25941E+03  5.12460E+03  2.12812E+03  7.22168E+03
 -2.82371E+03  9.86761E+03 -8.24746E+03  8.39467E+03 -1.18328E+04  2.05813E+03 -1.31928E+04 -5.44050E+03
 -6.63240E+03 -1.29966E+04  1.09644E+03 -1.30147E+04  7.49230E+03 -8.90905E+03  1.04616E+04 -2.28897E+03
  7.21143E+03  4.91487E+03  2.38747E+03  8.51153E+03 -3.72399E+03  4.74479E+03 -3.77442E+03 -8.25169E+02
 -3.18981E+03 -4.63969E+03  2.50747E+03 -5.33135E+03  4.47081E+03 -3.12894E+03  4.11812E+03  2.09846E+03
  2.80328E+03  2.94997E+03  1.06256E+03  1.62491E+03  2.72782E+02  3.17333E+03  1.80913E+03 -6.23688E+02
  2.20030E+03 -1.77867E+03  5.86136E+03  3.42451E+03  4.07515E+03  7.09601E+03 -1.99401E+03  8.55670E+03
 -6.23230E+03  6.20847E+03 -7.32245E+03  1.42565E+03 -6.77258E+03 -2.39225E+03 -3.21351E+03 -6.02253E+03
  1.04077E+03 -4.28993E+03  2.10181E+03 -2.49241E+03  2.62906E+03  2.93570E+03 -2.56406E+03  3.18611E+03
 -5.17446E+03  3.72365E+03 -6.01709E+03 -4.29989E+03 -2.34982E+03 -6.35287E+03  1.52368E+03 -7.49095E+03
  2.94859E+03 -3.69307E+03  4.14107E+03 -1.67676E+03  3.89986E+03  8.55645E+01  9.86745E+02  3.98175E+03
 -2.79585E+03  5.31275E+02 -2.79830E+03 -4.38371E+03  1.46607E+03 -4.85365E+03  5.65277E+03 -3.86452E+03
  7.17701E+03  1.51036E+03  9.24054E+03  5.02919E+03  3.25945E+03  8.45935E+03 -3.22187E+03  9.22271E+03
 -5.94467E+03  4.32059E+03 -7.77967E+03 -2.65111E+03 -3.22302E+03 -5.67598E+03  2.88333E+03 -3.81463E+03
  5.29223E+03 -9.02211E+02  4.77617E+03  1.01218E+03  2.42059E+03  3.00932E+03 -1.25719E+03  3.72602E+03
 -2.96626E+03  3.38065E+03 -1.62676E+03  1.69985E+03 -1.29654E+03  1.51269E+03 -1.40554E+03  1.70925E+03
 -3.45720E+03  3.18980E+03 -5.34223E+03  1.59167E+03 -7.76895E+03 -9.70857E+02 -9.38006E+03 -6.31125E+03
 -4.84150E+03 -1.04071E+04  2.30150E+03 -1.19027E+04  7.67102E+03 -9.26769E+03  1.05414E+04 -2.84094E+03
  9.44154E+03  2.28686E+03  6.93314E+03  7.12714E+03 -4.68687E+02  7.72271E+03 -2.57025E+03  7.25675E+03
 -4.05673E+03  1.89513E+03 -9.78206E+02 -1.16424E+03 -2.42648E+02  8.04040E+02 -6.71540E+02 -1.21308E+03
 -1.39697E+03  7.17155E+02 -8.27013E+02  6.16809E+02 -2.25303E+03 -2.45156E+03 -8.25685E+02 -2.26905E+03
  3.43616E+03 -3.61714E+03  4.79306E+03 -5.06431E+02  5.78807E+03  4.37498E+03  2.89762E+03  6.70297E+03
 -3.57256E+03  9.36522E+03 -7.92008E+03  5.63394E+03 -9.02332E+03 -2.17461E+03 -5.58370E+03 -6.83123E+03
 -3.43496E+03 -8.22334E+03  9.91300E+02 -6.95738E+03  3.63819E+03 -3.10173E+03  4.53846E+03  8.35020E+02
  3.59685E+03  2.29784E+03 -1.32057E+03  2.20422E+03 -1.57517E+03 -8.28296E+02 -1.33753E+03 -1.08973E+03
  2.05307E+03  9.83573E+02  1.81406E+03  7.04950E+02  1.49345E+03  2.01048E+03  5.05679E+02  6.00131E+03
 -4.31265E+03  4.18095E+03 -6.35109E+03  1.68150E+03 -4.24131E+03 -3.55367E+03 -2.87695E+02 -4.34937E+03
  3.17546E+03 -5.95483E+03  5.56314E+03 -1.90263E+03  5.32890E+03  1.91058E+03  3.63838E+03  5.50176E+03
  5.46935E+02  3.55602E+03 -1.00488E+03  2.65278E+03 -1.82311E+03  3.07786E+03 -2.78309E+03 -6.04221E+02
 -4.94437E+02  1.13910E+03 -1.74177E+03  6.02162E+02 -1.28534E+03  1.74425E+03 -4.22649E+03  5.03367E+02
 -5.58855E+03 -2.74550E+03 -6.23742E+02 -4.40551E+03  1.55149E+03 -6.09775E+03  4.40340E+03 -2.86045E+03
  4.31131E+03  1.41421E+03  2.83894E+03  3.68483E+03  4.18382E+02  4.68674E+03 -4.72234E+03  3.59916E+03
