 $NMID ID='MM_0lb_SNR200_7hz_g50_9.RAW', FMTDAT='(8E13.5)'
 TRAMP=1., VOLUME=1. $END
  3.12255E+05  7.46219E+02  3.36871E+05  2.51985E+05  8.51580E+04  3.39749E+05 -1.33633E+05  2.52384E+05
 -1.91931E+05  8.41446E+04 -1.12139E+05 -3.25939E+04 -9.44303E+02 -5.10539E+04  5.34116E+04 -1.40632E+03
  3.56031E+04  5.11673E+04 -1.60831E+04  7.83664E+04 -6.27534E+04  6.38607E+04 -8.61124E+04  3.30029E+04
 -8.50955E+04 -1.27705E+04 -5.92864E+04 -5.36603E+04 -1.59607E+04 -7.17932E+04  2.85795E+04 -4.85213E+04
  4.00999E+04  3.31445E+03  1.79211E+04  4.76654E+04 -3.58048E+04  4.84019E+04 -6.94537E+04  1.19663E+02
 -5.69744E+04 -5.82230E+04 -5.61114E+03 -7.83388E+04  3.44133E+04 -5.72627E+04  5.01307E+04 -1.84263E+04
  4.40784E+04  1.22584E+04  3.29164E+04  2.69482E+04  1.72923E+04  3.08478E+04 -5.99719E+03  2.77387E+04
 -2.25818E+04  1.03378E+04 -1.80053E+04 -6.97511E+03  8.12547E+03 -5.24568E+03  2.40463E+04  1.48190E+04
  7.04616E+03  3.91775E+04 -3.41840E+04  3.78376E+04 -6.55129E+04  1.69513E+03 -6.00980E+04 -4.46433E+04
 -1.12882E+04 -6.71690E+04  4.14016E+04 -4.99649E+04  6.23686E+04 -2.27871E+03  3.57023E+04  3.59287E+04
 -5.44509E+03  4.07843E+04 -3.13624E+04  1.99769E+04 -3.61157E+04 -3.58647E+03 -2.13430E+04 -1.24630E+04
 -1.22478E+04 -1.56775E+04 -2.26588E+02 -1.98570E+04  8.42693E+03 -2.36954E+04  1.50435E+04 -1.11496E+04
  1.01024E+04  6.67658E+03 -1.12041E+04  1.33411E+04 -2.61590E+04 -6.50746E+03 -8.39584E+03 -3.91702E+04
  2.66909E+04 -4.70031E+04  5.48902E+04 -2.14041E+04  5.02403E+04  2.04272E+04  1.83323E+04  4.80361E+04
 -1.58049E+04  3.55495E+04 -2.93714E+04  5.66888E+02 -1.21031E+04 -3.08543E+04  2.11744E+04 -3.73757E+04
  4.53456E+04 -1.06250E+04  3.90813E+04  2.62323E+04  2.16875E+04  5.22479E+04 -9.07385E+03  5.92433E+04
 -3.74559E+04  3.93914E+04 -5.03761E+04  1.23998E+04 -5.04052E+04 -2.00996E+04 -2.55077E+04 -4.47640E+04
  8.56763E+03 -4.32123E+04  3.56967E+04 -1.70808E+04  3.30661E+04  1.00083E+04  4.41225E+03  2.06892E+04
 -1.34599E+04  1.00645E+04 -1.21617E+04 -7.28730E+03  7.37345E+03 -1.17196E+04  1.68820E+04  3.45386E+03
  1.67402E+04  2.24825E+04 -5.78382E+03  2.91575E+04 -2.55251E+04  1.50725E+04 -3.41925E+04 -2.83897E+03
 -2.72151E+04 -1.82890E+04 -1.43323E+04 -2.78922E+04  6.07023E+03 -2.77138E+04  1.98053E+04 -2.45653E+04
  3.34857E+04 -1.59388E+04  3.96517E+04  3.53070E+03  2.71546E+04  2.60225E+04  4.31146E+03  4.50231E+04
 -1.94895E+04  3.51435E+04 -3.25009E+04  1.32348E+04 -2.26991E+04 -1.05730E+04 -5.32421E+03 -1.15407E+04
  7.53315E+02  1.00082E+03 -9.07006E+03  9.87034E+03 -2.15251E+04  7.57628E+03 -2.08330E+04 -1.06137E+04
 -1.16768E+04 -2.57328E+04  7.09632E+03 -2.81660E+04  2.05988E+04 -2.32536E+04  2.42528E+04 -1.85935E+03
  1.54658E+04  1.56752E+04  2.40712E+02  2.53021E+04 -1.81280E+04  1.61861E+04 -2.69488E+04 -5.72917E+03
 -1.95686E+04 -2.24182E+04 -1.42208E+03 -3.03618E+04  1.31076E+04 -2.76053E+04  2.59854E+04 -1.37470E+04
  2.45873E+04  1.00836E+03  1.65319E+04  5.94761E+03  9.91685E+03  2.01288E+03  1.35431E+04 -3.29182E+03
  2.40000E+04  4.04346E+03  2.71186E+04  2.00434E+04  2.03918E+04  4.10485E+04 -1.49212E+03  4.71966E+04
 -2.63504E+04  4.03805E+04 -4.79170E+04  2.18247E+04 -4.86359E+04 -4.42934E+03 -4.12713E+04 -2.93198E+04
 -1.41813E+04 -4.03728E+04  1.44521E+04 -3.65777E+04  3.25709E+04 -1.78630E+04  2.56186E+04  8.38662E+03
  9.87062E+03  1.92074E+04 -1.32373E+04  1.57592E+04 -2.15374E+04  3.17326E+03 -1.74967E+04 -1.46723E+04
  1.93365E+02 -2.11186E+04  1.05725E+04 -1.58722E+04  1.38544E+04 -2.12825E+03  4.89151E+03  1.16263E+04
 -8.51349E+03  4.75556E+03 -1.02506E+04 -5.54072E+03 -2.22914E+03 -2.04507E+04  1.47358E+04 -2.17490E+04
  2.72429E+04 -1.28833E+04  3.04303E+04  4.07071E+03  2.69058E+04  2.13919E+04  1.21019E+04  3.31941E+04
 -5.39057E+03  3.57036E+04 -2.44956E+04  2.13452E+04 -2.75394E+04  6.08603E+03 -1.73127E+04 -7.35390E+03
 -8.26638E+03 -9.61860E+03 -7.74140E+02  2.67109E+03 -2.11978E+03  4.80674E+03 -7.36073E+03  5.74614E+03
 -1.62635E+04 -1.34755E+03 -1.76132E+04 -1.22076E+04 -8.28082E+03 -2.27601E+04  7.33660E+03 -1.62344E+04
  1.46177E+04 -7.29694E+03  9.60844E+03  6.21057E+03 -1.90412E+03  6.26812E+03 -8.48780E+03  1.50633E+03
 -8.89423E+03 -1.16520E+04 -3.55852E+03 -1.73967E+04  9.48486E+03 -1.68329E+04  2.41592E+04 -1.03126E+04
  2.65324E+04  2.62329E+03  2.04207E+04  1.78841E+04  4.57110E+03  2.13549E+04 -1.19957E+04  1.84009E+04
 -1.56278E+04  5.63622E+03 -8.75467E+03 -3.52326E+03  2.48689E+03 -6.10730E+03  1.12785E+04 -8.88611E+02
  8.57816E+03  9.03321E+03  1.95500E+03  1.44561E+04 -1.07932E+04  1.33496E+04 -2.00776E+04  3.32458E+03
 -1.15430E+04 -8.75274E+03  4.45348E+02 -1.77991E+04  1.06354E+04 -6.02470E+03  1.01362E+04  5.40580E+03
  1.04679E+03  1.31406E+04 -1.01089E+04  1.33948E+04 -1.68112E+04  8.84802E+03 -1.72666E+04 -5.84640E+03
 -7.32512E+03 -1.81920E+04  3.78496E+03 -2.26762E+04  1.86391E+04 -1.17575E+04  2.25424E+04  3.04531E+03
  1.11550E+04  1.49111E+04 -2.45261E+03  1.63715E+04 -1.37133E+04  8.44637E+03 -1.45762E+04 -9.27561E+02
 -1.20664E+04 -1.36447E+04 -1.72486E+03 -1.45029E+04  7.61369E+03 -1.07215E+04  1.09192E+04 -2.48266E+03
  6.05126E+03  3.50914E+03 -6.22289E+02  7.47682E+02 -1.14389E+03 -3.40504E+03  1.35092E+03 -7.88404E+03
  1.35233E+04 -7.19065E+03  1.86326E+04  2.00960E+03  1.97766E+04  1.43907E+04  1.26295E+04  2.57379E+04
 -5.96102E+03  2.97740E+04 -2.37731E+04  2.01801E+04 -3.08981E+04  4.06416E+03 -2.58749E+04 -1.04277E+04
 -1.24281E+04 -2.01082E+04  2.18641E+02 -1.79193E+04  5.25061E+03 -8.75468E+03  4.61665E+03 -7.56391E+03
  5.30148E+03 -4.46431E+03  4.36165E+03 -2.63283E+03  7.14129E+03 -2.87976E+03  1.05751E+04 -2.40787E+03
  1.33199E+04  3.13451E+03  6.17998E+03  1.04221E+04 -2.98294E+03  1.43371E+04 -1.29037E+04  9.45298E+03
 -1.86114E+04 -1.33377E+03 -1.24543E+04 -1.49521E+04 -1.56503E+03 -1.90005E+04  9.35169E+03 -2.01270E+04
  2.15885E+04 -9.49994E+03  2.48675E+04  3.88476E+03  1.56233E+04  1.86048E+04  2.40719E+03  2.20344E+04
 -1.05860E+04  1.80430E+04 -1.22979E+04  5.71678E+03 -1.01669E+04 -1.42629E+03 -4.65473E+03 -2.70383E+03
 -1.93653E+03  1.58693E+03 -2.17325E+03  3.20049E+03 -6.65744E+03  3.73205E+03 -1.17782E+04 -2.29515E+03
 -1.04094E+04 -1.12640E+04 -2.19045E+03 -1.92928E+04  1.05140E+04 -1.88895E+04  1.92828E+04 -5.57490E+03
  1.90928E+04  6.87116E+03  7.46905E+03  1.69386E+04 -5.04598E+03  1.82424E+04 -1.44071E+04  1.34817E+04
 -1.60737E+04  1.72825E+03 -1.05368E+04 -1.00169E+04  1.15876E+03 -1.57511E+04  7.82821E+03 -1.15980E+04
  1.19105E+04 -2.08928E+03  7.40408E+03  3.69800E+03  2.07894E+03  3.80258E+03 -7.22087E+02  4.68629E+02
  1.57884E+03  2.99418E+03  3.24419E+03  3.24399E+03  6.40903E+03  6.77033E+03  4.84789E+03  1.15829E+04
 -2.60160E+03  1.39863E+04 -1.46918E+04  1.54781E+04 -1.81889E+04  3.24745E+03 -2.01593E+04 -9.50374E+03
 -1.12907E+04 -1.92969E+04  2.17823E+03 -2.31171E+04  1.26122E+04 -1.24524E+04  1.57694E+04 -3.41697E+03
  1.16470E+04  6.54358E+03  3.88829E+03  1.05802E+04 -5.21858E+03  8.48839E+03 -8.86717E+03 -7.86441E+02
 -3.26778E+03 -7.16118E+03  5.22528E+03 -8.68488E+03  9.22334E+03 -5.14135E+03  9.46827E+03  2.41038E+03
  4.36829E+03  3.66584E+03  4.08852E+03  3.48604E+03 -6.50857E+02  1.39981E+03  4.33899E+03 -9.42312E+02
  2.61646E+03 -2.10723E+03  7.45809E+03  3.61896E+03  6.22604E+03  9.29595E+03 -1.48917E+03  1.49925E+04
 -1.06659E+04  9.65646E+03 -1.30715E+04  3.16464E+03 -1.18426E+04 -5.55747E+03 -4.25678E+03 -7.50148E+03
  2.54105E+03 -1.02075E+04  5.90896E+03 -3.33610E+03  3.99798E+03  2.37175E+03 -2.02945E+03  9.07517E+03
 -8.79431E+03  3.97060E+03 -1.04115E+04 -4.47861E+03 -3.01117E+03 -9.86170E+03  2.04299E+03 -9.85933E+03
  1.00484E+04 -7.61702E+03  7.15355E+03 -3.92982E+02  7.38971E+03  2.20759E+03 -6.64122E+02  4.86502E+03
 -4.85639E+03  2.44791E+03 -4.26805E+03 -3.39705E+03  2.51082E+03 -8.70433E+03  9.26146E+03 -6.11185E+03
  1.37781E+04  1.41522E+03  1.22696E+04  9.62058E+03  5.00091E+03  1.30642E+04 -4.99454E+03  1.42290E+04
 -9.41210E+03  5.12926E+03 -9.53069E+03 -2.77471E+03 -4.92788E+03 -9.33705E+03  1.56400E+03 -8.01281E+03
  7.78985E+03 -3.77235E+03  7.14482E+03  4.47925E+03  2.24138E+03  8.08880E+03 -3.84572E+03  4.72634E+03
 -4.07951E+03  2.63432E+03 -3.45612E+03  8.88884E+02 -6.79940E+02  2.57082E+03 -2.14410E+03  1.91520E+03
 -2.99029E+03  5.77962E+03 -1.03390E+04  6.86394E+03 -1.33571E+04  9.76762E+01 -1.42847E+04 -7.62746E+03
 -9.12635E+03 -1.66436E+04  3.15467E+03 -2.19440E+04  1.34596E+04 -1.80272E+04  2.00261E+04 -5.94259E+03
  1.70326E+04  5.03090E+03  1.33492E+04  1.34764E+04  1.69302E+03  1.45749E+04 -5.06995E+03  1.17697E+04
 -7.62283E+03  4.54302E+03 -5.22143E+03 -2.51156E+03 -7.65616E+02 -2.89475E+03 -4.79993E+02 -2.18510E+03
 -2.04273E+03  1.48248E+03 -2.82987E+03 -1.00495E+03 -1.82348E+03 -2.66079E+03  3.81232E+02 -5.91628E+03
  5.63910E+03 -4.87448E+03  9.07320E+03 -4.24107E+02  1.03092E+04  8.00736E+03  3.01058E+03  1.55234E+04
 -6.57516E+03  1.74012E+04 -1.51898E+04  9.32181E+03 -1.76571E+04 -1.80932E+03 -1.36267E+04 -1.09015E+04
 -4.95517E+03 -1.57928E+04  3.37237E+03 -1.47588E+04  7.86843E+03 -7.33263E+03  1.05845E+04 -8.00576E+02
  6.19295E+03  3.85660E+03 -1.60801E+03  3.41609E+03 -1.57080E+03  5.35764E+02 -1.90129E+02 -2.91032E+03
  6.25247E+03 -3.27788E+03  4.10633E+03  1.43021E+03  4.21893E+03  4.33909E+03 -1.42353E+03  8.12268E+03
 -5.12539E+03  5.30630E+03 -1.03566E+04  2.23661E+03 -7.74950E+03 -5.97715E+03 -2.03051E+03 -1.11092E+04
  7.44943E+03 -1.26349E+04  1.29936E+04 -2.87643E+03  1.24139E+04  3.23434E+03  8.66151E+03  9.39066E+03
  2.48776E+02  8.95091E+03 -5.16254E+03  6.46450E+03 -6.92787E+03  3.68543E+03 -5.01522E+03  4.40055E+02
 -1.49261E+03  4.02555E+02 -3.55086E+03  4.56493E+02 -6.00933E+03  2.27667E+03 -8.46128E+03 -1.44719E+03
 -8.72626E+03 -5.34088E+03 -1.02912E+03 -1.11891E+04  3.23189E+03 -1.10446E+04  7.37481E+03 -4.33251E+03
  1.22376E+04  6.15431E+02  6.05508E+03  8.76706E+03 -7.67899E+02  1.04447E+04 -8.20537E+03  6.35606E+03
