 $NMID ID='MM_0lb_SNR200_13hz_g55_50.RAW', FMTDAT='(8E13.5)'
 TRAMP=1., VOLUME=1. $END
  3.10221E+05  7.87863E+02  3.35991E+05  2.51480E+05  8.50060E+04  3.39107E+05 -1.32860E+05  2.51973E+05
 -1.90404E+05  8.29797E+04 -1.11963E+05 -3.30601E+04  1.36639E+03 -4.98784E+04  5.39896E+04  3.83265E+01
  3.49797E+04  5.39157E+04 -1.60040E+04  7.59451E+04 -5.92822E+04  6.37429E+04 -8.46557E+04  3.21142E+04
 -8.14326E+04 -1.21560E+04 -5.78472E+04 -5.08038E+04 -1.52347E+04 -6.98648E+04  2.85659E+04 -4.60029E+04
  4.02344E+04  4.48247E+03  1.63381E+04  4.76195E+04 -3.35137E+04  4.70762E+04 -6.76750E+04  9.49833E+02
 -5.44025E+04 -5.51238E+04 -7.78893E+03 -7.70765E+04  3.43689E+04 -5.59709E+04  4.88631E+04 -1.83793E+04
  4.34416E+04  1.08721E+04  3.24468E+04  2.62624E+04  1.48183E+04  2.86205E+04 -4.71107E+03  2.69268E+04
 -2.19491E+04  1.19598E+04 -1.75313E+04 -4.94884E+03  6.54216E+03 -6.54362E+03  2.21932E+04  1.31409E+04
  6.71247E+03  3.51916E+04 -3.21431E+04  3.56042E+04 -6.42567E+04  2.24380E+03 -5.82199E+04 -4.28308E+04
 -1.25718E+04 -6.38575E+04  4.02643E+04 -4.49507E+04  5.84819E+04 -2.19158E+03  3.54928E+04  3.25192E+04
 -6.46244E+03  3.63795E+04 -3.06440E+04  1.63435E+04 -2.99417E+04 -5.08328E+03 -1.73310E+04 -1.17724E+04
 -8.14145E+03 -1.35450E+04  8.58104E+01 -1.93927E+04  8.38500E+03 -2.41354E+04  1.46740E+04 -1.23212E+04
  1.21391E+04  4.08796E+03 -8.04173E+03  1.19681E+04 -2.22710E+04 -5.38046E+03 -8.75169E+03 -3.73251E+04
  2.32009E+04 -4.49457E+04  5.06006E+04 -2.01042E+04  4.63033E+04  2.05403E+04  1.48429E+04  4.58527E+04
 -1.59732E+04  3.42557E+04 -2.73992E+04  3.20307E+03 -9.63532E+03 -2.93349E+04  2.11904E+04 -3.52801E+04
  4.27403E+04 -1.03020E+04  3.75109E+04  2.40075E+04  2.00851E+04  4.61628E+04 -6.56120E+03  5.26041E+04
 -3.41176E+04  3.53467E+04 -4.41939E+04  1.01707E+04 -4.34530E+04 -1.75556E+04 -2.46947E+04 -4.00139E+04
  7.37631E+03 -3.91040E+04  3.15935E+04 -1.59045E+04  3.01318E+04  1.21636E+04  4.58507E+03  1.96274E+04
 -1.26508E+04  8.15705E+03 -1.04079E+04 -7.49980E+03  6.19005E+03 -1.12424E+04  1.88758E+04  5.25475E+03
  1.41901E+04  2.25187E+04 -5.84377E+03  2.64533E+04 -2.18190E+04  1.31829E+04 -2.97738E+04 -3.74631E+03
 -2.21867E+04 -1.70716E+04 -9.26586E+03 -2.07837E+04  3.67719E+03 -2.14072E+04  1.64306E+04 -1.92942E+04
  2.73326E+04 -1.27605E+04  3.42969E+04  5.29222E+03  2.44732E+04  2.07105E+04  4.12707E+03  3.78577E+04
 -1.94491E+04  3.09481E+04 -2.91003E+04  1.13261E+04 -2.16965E+04 -1.02919E+04 -3.84081E+03 -1.23072E+04
  2.28787E+03 -1.56988E+03 -5.96109E+03  8.02404E+03 -1.69439E+04  4.48000E+03 -1.72029E+04 -8.68875E+03
 -1.07691E+04 -2.01621E+04  7.24536E+03 -2.43627E+04  1.81963E+04 -1.74870E+04  1.93957E+04 -1.24708E+03
  1.16476E+04  1.45752E+04 -1.82949E+03  1.94069E+04 -1.49076E+04  1.13036E+04 -1.99864E+04 -4.43877E+03
 -1.59342E+04 -1.89968E+04 -1.64591E+03 -2.42047E+04  1.18591E+04 -2.04635E+04  2.12956E+04 -1.00111E+04
  1.96181E+04 -1.15040E+03  1.42011E+04  3.58420E+03  5.63531E+03  1.06159E+03  9.67242E+03 -1.55217E+03
  1.85459E+04  2.24980E+03  2.17733E+04  1.54013E+04  1.40000E+04  3.22593E+04 -3.84682E+03  3.65323E+04
 -2.09130E+04  3.05122E+04 -3.40734E+04  1.50220E+04 -3.67237E+04 -2.60786E+03 -3.00768E+04 -2.05939E+04
 -1.21680E+04 -2.99289E+04  1.07225E+04 -2.67718E+04  2.28770E+04 -1.50214E+04  2.10106E+04  6.04696E+03
  7.20699E+03  1.70932E+04 -1.01479E+04  1.47459E+04 -1.82924E+04  2.76916E+03 -1.32034E+04 -1.04960E+04
 -2.31068E+02 -1.62715E+04  8.39380E+03 -1.27081E+04  1.12160E+04 -1.77050E+03  1.39822E+03  6.93637E+03
 -7.03187E+03  1.70380E+03 -6.73733E+03 -5.20423E+03 -1.60388E+03 -1.46845E+04  9.57973E+03 -1.64958E+04
  2.09504E+04 -9.11370E+03  1.97039E+04  3.90846E+03  1.80318E+04  1.45960E+04  7.66785E+03  2.15931E+04
 -3.73557E+03  2.40558E+04 -1.49812E+04  1.57752E+04 -1.79832E+04  3.21692E+03 -1.34384E+04 -4.14776E+03
 -6.20455E+03 -6.76375E+03 -6.58317E+02  2.54956E+03 -3.28955E+03  2.70434E+03 -6.23662E+03  4.28374E+03
 -1.32743E+04  2.18775E+02 -1.20933E+04 -9.19775E+03 -5.08116E+03 -1.63241E+04  3.95585E+03 -1.26566E+04
  1.16136E+04 -5.53739E+03  8.04232E+03  3.53161E+03  2.25472E+02  5.54334E+03 -5.98616E+03  3.11861E+02
 -6.73464E+03 -8.90348E+03 -4.50617E+02 -1.14442E+04  7.14421E+03 -1.36364E+04  1.62807E+04 -6.49028E+03
  1.90351E+04  2.43883E+03  1.28588E+04  1.16276E+04  3.39894E+03  1.64055E+04 -6.54042E+03  1.18177E+04
 -1.07657E+04  4.20138E+03 -5.48904E+03 -1.16458E+03  1.27223E+03 -2.27893E+03  6.67660E+03 -5.67075E+02
  5.56938E+03  5.29193E+03  1.94266E+03  8.49911E+03 -6.84150E+03  8.22257E+03 -1.28939E+04  4.08477E+03
 -6.54432E+03 -5.80563E+03  8.72614E+02 -9.04400E+03  6.46850E+03 -5.26238E+03  6.92555E+03  3.60929E+03
  2.98996E+03  8.61456E+03 -5.87875E+03  8.25734E+03 -9.74500E+03  4.58126E+03 -1.01597E+04 -2.98824E+03
 -6.17174E+03 -1.13895E+04  2.30793E+03 -1.20494E+04  1.14243E+04 -6.83932E+03  1.27334E+04  1.27858E+03
  7.78449E+03  8.57287E+03 -9.08435E+02  1.18945E+04 -8.64315E+03  7.49811E+03 -8.19080E+03 -1.94107E+03
 -7.71870E+03 -6.71146E+03 -3.55880E+02 -8.30797E+03  4.66539E+03 -6.23103E+03  4.43964E+03 -3.46819E+03
  4.56363E+03  6.15320E+02  1.25403E+01  1.87535E+03  3.32850E+01 -2.09515E+03  1.66458E+03 -3.84714E+03
  7.06671E+03 -2.15222E+03  1.05852E+04  1.31879E+03  1.12329E+04  8.11109E+03  8.45008E+03  1.47197E+04
 -3.05033E+03  1.62964E+04 -1.33573E+04  1.21957E+04 -1.79089E+04  2.36874E+03 -1.33090E+04 -5.44618E+03
 -7.70381E+03 -1.15336E+04 -2.40495E+03 -1.00347E+04  2.62184E+03 -5.47661E+03  3.57062E+03 -4.17409E+03
  2.64626E+03 -3.46281E+03  2.52776E+03 -3.66263E+03  4.21981E+03 -2.56886E+03  6.13441E+03 -4.49282E+02
  7.46340E+03  1.78425E+03  2.25451E+03  5.95825E+03 -3.04296E+02  7.29490E+03 -9.54944E+03  5.08229E+03
 -9.93493E+03 -1.69314E+03 -7.16138E+03 -7.28677E+03 -1.32361E+03 -1.04031E+04  6.80224E+03 -1.04916E+04
  1.02144E+04 -6.73252E+03  1.26748E+04  2.63459E+03  8.88370E+03  8.70848E+03  1.27152E+03  1.32294E+04
 -4.84477E+03  1.15642E+04 -6.82523E+03  3.00018E+03 -4.84114E+03 -1.75846E+03 -2.15511E+03 -1.58983E+03
  4.80988E+02  6.43595E+02 -1.32744E+03  3.68069E+02 -4.22460E+03  2.40227E+03 -6.96666E+03 -5.15352E+02
 -4.96587E+03 -7.70996E+03  7.66975E+02 -7.78878E+03  6.27433E+03 -8.46026E+03  9.67986E+03 -1.58266E+03
  9.07590E+03  4.44904E+03  4.37376E+03  9.18688E+03 -2.71668E+03  9.52242E+03 -6.24627E+03  7.72885E+03
 -9.04645E+03  5.75481E+02 -6.92572E+03 -6.02136E+03 -1.33572E+03 -7.73721E+03  4.00954E+03 -6.00825E+03
  6.29721E+03 -2.75944E+03  5.08241E+03  9.22509E+02  8.11372E+02  2.39386E+03  1.48442E+03  4.29597E+02
  2.93480E+03  5.57455E+02  2.52467E+03  1.13708E+03  2.96019E+03  2.52545E+03  2.38067E+03  3.99898E+03
 -1.14029E+03  8.28254E+03 -6.38317E+03  7.62725E+03 -9.44430E+03  2.83084E+03 -1.03481E+04 -2.13811E+03
 -5.72505E+03 -9.08717E+03  2.59143E+03 -1.09180E+04  3.97067E+03 -6.02318E+03  7.47251E+03 -8.43262E+02
  6.19142E+03  4.18547E+03  9.70313E+02  4.73107E+03 -2.61292E+02  3.38221E+03 -3.47040E+03 -2.38254E+02
 -1.66578E+03 -4.75626E+03  3.78208E+03 -3.60977E+03  3.99791E+03 -4.87145E+02  2.90355E+03  6.12997E+02
  1.58955E+03  2.10047E+02  8.55671E+02  1.23085E+03  2.27313E+02  2.12259E+03  1.37165E+03 -5.15697E+02
  1.55014E+03 -3.70047E+02  4.32312E+03  1.96359E+03  2.19505E+03  5.76487E+03  5.54886E+02  7.42412E+03
 -5.35219E+03  3.25666E+03 -5.76264E+03  1.15112E+03 -6.05309E+03 -1.78992E+03 -1.87301E+03 -3.21098E+03
  1.09229E+03 -2.98045E+03  2.41994E+03 -2.08099E+03  1.60535E+03  1.74274E+03 -4.86781E+02  2.61963E+03
 -2.26808E+03  3.54939E+03 -4.82842E+03 -1.47886E+03 -3.08043E+03 -4.52168E+03  8.04794E+02 -4.27084E+03
  2.22738E+03 -1.52822E+03  3.61641E+03 -7.89282E+02  3.54837E+03  1.35219E+03 -3.44663E+02  1.86481E+03
 -1.95037E+03  3.57466E+02 -1.33751E+03 -1.94685E+03  1.27087E+03 -3.44505E+03  5.13997E+03 -2.35094E+03
  4.31332E+03  3.54280E+02  5.78545E+03  3.12068E+03  3.18340E+03  5.57855E+03 -1.89328E+03  4.34829E+03
 -4.07711E+03  2.23788E+03 -5.73255E+03 -1.57935E+03 -2.20742E+03 -4.65918E+03 -6.93062E+02 -2.75877E+03
  3.92271E+03 -1.80286E+03  2.83717E+03  1.79317E+03  2.37953E+02  3.43126E+03 -1.42168E+02  1.97019E+03
 -1.65313E+03  1.85327E+03 -4.96047E+02  1.06441E+03  7.98031E+01  1.06896E+03 -7.14608E+02 -2.43563E+02
 -9.55623E+02  1.61489E+03 -2.13768E+03  1.53954E+03 -5.11964E+03 -3.96896E+02 -7.15199E+03 -2.39779E+03
 -2.62779E+03 -6.64301E+03  1.14539E+03 -8.45354E+03  3.29984E+03 -6.12376E+03  8.63490E+03 -2.99288E+03
  7.62151E+03  1.06944E+03  4.42042E+03  5.50636E+03  2.99853E+02  4.42351E+03 -3.02332E+03  4.13098E+03
 -1.69204E+03  9.60830E+02 -2.23595E+03 -1.31418E+02 -1.33584E+03 -1.45998E+01 -9.87776E+02  6.52650E+02
 -1.88558E+03 -5.80602E+02 -4.82314E+02  2.63429E+02  2.88571E+02 -7.59279E+02 -4.50419E+02 -1.45941E+03
  2.51164E+03 -1.01367E+03  1.62433E+03  1.30102E+03  2.66617E+03  2.65119E+03  1.51215E+02  4.42677E+03
 -3.07201E+03  6.12397E+03 -6.09341E+03  2.97439E+03 -5.92907E+03  3.62859E+02 -4.19181E+03 -3.84168E+03
 -2.44627E+03 -4.41869E+03  7.29041E+02 -5.65553E+03  2.61427E+03 -2.25981E+03  3.03525E+03  1.83735E+02
  2.29727E+03  8.59258E+02  9.62878E+02  6.96415E+02 -8.76507E+02  1.30764E+01 -3.48230E+02 -2.52373E+02
  2.67475E+03 -1.95909E+03  3.20744E+03  1.16993E+03  2.62045E+03  1.88918E+03  1.13298E+03  1.94167E+03
 -2.57138E+03  2.37156E+03 -2.40422E+03 -2.54404E+02 -2.66489E+03 -2.08219E+03 -4.73837E+02 -3.04914E+03
  2.32190E+03 -2.50202E+03  4.13023E+03 -5.97341E+02  3.24185E+03 -4.75732E+02  1.97316E+03  2.65991E+03
  8.91943E+02  2.19589E+03 -7.49472E+02  1.60290E+03 -2.53100E+03  2.93544E+03 -3.45266E+03  7.40129E+01
 -7.24324E+02 -3.49100E+02 -1.92870E+03 -1.51499E+03 -1.93207E+03  8.53922E+02 -1.70120E+03 -4.66082E+01
 -2.74265E+03 -1.56290E+03 -9.67874E+02 -2.77897E+03  1.94563E+03 -4.00965E+03  3.52667E+03 -4.06935E+02
  3.29275E+03  2.44950E+02  1.90723E+03  1.25357E+03  1.05681E+03  2.96162E+03 -1.32982E+03  2.32827E+03
