 $NMID ID='MM_0lb_SNR200_7hz_g45_70.RAW', FMTDAT='(8E13.5)'
 TRAMP=1., VOLUME=1. $END
  3.08924E+05  1.14838E+03  3.38832E+05  2.50685E+05  8.49140E+04  3.38607E+05 -1.33274E+05  2.52016E+05
 -1.91628E+05  8.29809E+04 -1.12835E+05 -3.29493E+04  2.58759E+02 -5.05192E+04  5.38406E+04 -2.21321E+03
  3.67987E+04  5.31014E+04 -1.61552E+04  7.92716E+04 -6.18306E+04  6.42971E+04 -8.32082E+04  3.39644E+04
 -8.31563E+04 -1.04121E+04 -5.83371E+04 -5.41700E+04 -1.44819E+04 -7.14127E+04  3.00305E+04 -4.67976E+04
  4.08634E+04  3.10459E+03  1.43410E+04  4.77466E+04 -3.52790E+04  4.77713E+04 -6.93164E+04  8.85123E+02
 -5.49093E+04 -5.78683E+04 -6.54589E+03 -7.98706E+04  3.72171E+04 -5.83917E+04  4.99169E+04 -1.83151E+04
  4.41801E+04  1.12667E+04  3.20660E+04  2.61025E+04  1.24680E+04  3.21916E+04 -5.15785E+03  2.73996E+04
 -2.39825E+04  1.15439E+04 -1.90727E+04 -6.50974E+03  7.12070E+03 -7.45084E+03  2.36355E+04  1.61267E+04
  6.40953E+03  3.94402E+04 -3.30354E+04  3.60814E+04 -6.64449E+04  1.19541E+03 -5.96493E+04 -4.46594E+04
 -1.26399E+04 -6.54634E+04  4.35740E+04 -4.84153E+04  6.20662E+04 -1.86830E+03  3.60728E+04  3.50895E+04
 -5.86902E+03  4.04298E+04 -3.29005E+04  2.13911E+04 -3.40077E+04 -2.19769E+03 -1.93501E+04 -1.37072E+04
 -1.08683E+04 -1.61798E+04  9.69558E+02 -2.09304E+04  7.96479E+03 -2.30401E+04  1.52788E+04 -1.41809E+04
  9.99674E+03  7.67761E+03 -1.00104E+04  1.43541E+04 -2.25197E+04 -7.91965E+03 -9.19906E+03 -3.90623E+04
  2.49664E+04 -4.82850E+04  5.28512E+04 -2.04756E+04  4.83735E+04  2.25772E+04  1.94047E+04  4.73752E+04
 -1.83546E+04  3.68398E+04 -2.92574E+04  2.01690E+03 -1.31845E+04 -3.07473E+04  2.04690E+04 -3.86979E+04
  4.59689E+04 -1.10086E+04  4.17819E+04  2.70421E+04  2.23132E+04  5.30484E+04 -7.68759E+03  5.79157E+04
 -3.54737E+04  4.03336E+04 -4.88171E+04  1.24993E+04 -4.73573E+04 -2.00450E+04 -2.63469E+04 -4.37627E+04
  9.57614E+03 -4.43650E+04  3.30727E+04 -1.90363E+04  3.46138E+04  1.19267E+04  3.29654E+03  2.14093E+04
 -1.37797E+04  1.18939E+04 -1.26889E+04 -8.71279E+03  7.91743E+03 -1.30461E+04  1.72174E+04  4.23583E+03
  1.33766E+04  2.42958E+04 -4.06217E+03  2.64355E+04 -2.35630E+04  1.42507E+04 -3.29622E+04 -1.97820E+03
 -2.59724E+04 -2.00770E+04 -1.20650E+04 -2.69704E+04  4.97187E+03 -2.68449E+04  2.11815E+04 -2.51938E+04
  3.39044E+04 -1.59700E+04  3.92589E+04  6.01916E+03  2.89020E+04  2.70852E+04  4.03303E+03  4.14107E+04
 -2.11759E+04  3.40685E+04 -3.20671E+04  1.12672E+04 -2.33108E+04 -1.00262E+04 -5.04497E+03 -1.15025E+04
  1.31561E+03 -1.85590E+02 -9.06801E+03  9.70230E+03 -2.19592E+04  3.87480E+03 -2.18870E+04 -1.18282E+04
 -1.12299E+04 -2.68483E+04  4.89301E+03 -3.05144E+04  2.10164E+04 -2.12761E+04  2.43581E+04 -3.90541E+03
  1.52235E+04  1.66013E+04  4.01572E+02  2.39551E+04 -1.74198E+04  1.57720E+04 -2.46222E+04 -6.03426E+03
 -1.80925E+04 -2.39052E+04 -3.51743E+03 -3.16090E+04  1.32590E+04 -2.25202E+04  2.39625E+04 -1.27181E+04
  2.30149E+04 -2.83349E+02  1.69592E+04  6.96801E+03  9.77755E+03  2.14702E+03  1.31876E+04 -3.37310E+03
  2.15713E+04  2.53827E+03  2.66560E+04  1.96069E+04  2.01452E+04  3.85823E+04 -2.48529E+03  4.87509E+04
 -2.81655E+04  4.23254E+04 -4.71954E+04  2.24191E+04 -5.02517E+04 -3.21927E+03 -3.89421E+04 -2.89269E+04
 -1.49780E+04 -3.86041E+04  1.41680E+04 -3.58007E+04  2.98959E+04 -1.66110E+04  2.61158E+04  9.12416E+03
  7.74226E+03  2.10423E+04 -1.14724E+04  1.66332E+04 -2.11798E+04  2.93165E+03 -1.55641E+04 -1.37885E+04
  6.02128E+02 -2.11918E+04  1.17510E+04 -1.51574E+04  1.40429E+04 -2.41640E+03  2.90645E+03  8.96303E+03
 -1.00934E+04  3.17377E+03 -1.14688E+04 -8.30950E+03 -1.97643E+03 -1.92933E+04  1.31072E+04 -2.15174E+04
  2.47237E+04 -1.14148E+04  2.82593E+04  2.92128E+03  2.52930E+04  2.03084E+04  1.21117E+04  3.27599E+04
 -6.07039E+03  3.43860E+04 -2.30374E+04  2.00422E+04 -2.38182E+04  4.84176E+03 -1.82852E+04 -5.44902E+03
 -7.70709E+03 -8.41900E+03  9.51149E+02  2.14230E+03 -3.03313E+03  3.64527E+03 -9.28700E+03  6.12685E+03
 -1.57425E+04 -2.34261E+03 -1.49904E+04 -1.39476E+04 -7.54552E+03 -2.18427E+04  5.69921E+03 -1.53786E+04
  1.44994E+04 -5.53554E+03  1.13154E+04  5.70189E+03 -1.93168E+03  5.28902E+03 -1.00055E+04 -1.81654E+03
 -9.60581E+03 -1.02972E+04 -1.20629E+03 -1.74726E+04  1.01607E+04 -1.86557E+04  2.14963E+04 -9.64156E+03
  2.55247E+04  3.11201E+03  1.99583E+04  1.56423E+04  3.67273E+03  2.07990E+04 -1.02040E+04  1.80976E+04
 -1.53576E+04  2.80815E+03 -6.76022E+03 -4.43213E+03  4.10555E+03 -5.04232E+03  9.27495E+03 -2.01445E+03
  7.83572E+03  8.85823E+03  1.06462E+03  1.50831E+04 -1.01566E+04  1.38355E+04 -1.85884E+04  2.91794E+03
 -1.25423E+04 -1.06025E+04  5.14439E+02 -1.48231E+04  1.12453E+04 -6.65076E+03  1.25387E+04  1.86521E+03
  2.42336E+03  1.15383E+04 -9.75018E+03  1.48595E+04 -1.55530E+04  6.21476E+03 -1.64992E+04 -5.04512E+03
 -8.25145E+03 -1.81432E+04  3.92316E+03 -2.09882E+04  1.69782E+04 -1.29745E+04  1.88373E+04  4.33816E+03
  1.35768E+04  1.51871E+04 -1.83296E+03  1.80721E+04 -1.36678E+04  8.82173E+03 -1.63400E+04 -2.15946E+03
 -1.11126E+04 -9.34380E+03 -9.20528E+02 -1.33184E+04  6.33850E+03 -1.11044E+04  7.93427E+03 -2.01015E+03
  6.36833E+03  1.88510E+03 -1.24040E+03  1.26262E+03 -7.51213E+02 -3.30253E+03  3.58941E+03 -8.47906E+03
  1.33055E+04 -6.31731E+03  1.96757E+04  1.67742E+03  1.60093E+04  1.29972E+04  1.27259E+04  2.55260E+04
 -4.20292E+03  2.85314E+04 -2.33786E+04  2.12455E+04 -3.12362E+04  3.71636E+03 -2.36465E+04 -1.00872E+04
 -1.36569E+04 -2.14896E+04  3.41379E+02 -1.77423E+04  6.82126E+03 -8.94636E+03  7.12105E+03 -6.82686E+03
  6.34182E+03 -5.05049E+03  5.13085E+03 -4.33088E+03  5.77065E+03 -3.22991E+03  1.01625E+04 -1.07017E+03
  1.35141E+04  4.09726E+03  6.51023E+03  1.00893E+04 -2.96409E+03  1.22321E+04 -1.50082E+04  9.00364E+03
 -1.74688E+04 -7.58221E+02 -1.19006E+04 -1.35763E+04 -1.66488E+03 -1.90696E+04  1.14370E+04 -1.85566E+04
  2.00389E+04 -1.14929E+04  2.41373E+04  3.53608E+03  1.50243E+04  1.63497E+04  2.04728E+03  2.18946E+04
 -8.66797E+03  1.77005E+04 -1.35139E+04  8.08707E+03 -8.78607E+03 -2.44918E+03 -4.15192E+03 -2.52202E+03
 -1.13003E+03 -2.44937E+02 -7.37155E+02  4.67275E+03 -6.22329E+03  1.86469E+03 -1.12669E+04 -4.02605E+03
 -9.10235E+03 -1.24520E+04  1.08053E+03 -1.74488E+04  9.10169E+03 -1.74611E+04  1.93440E+04 -5.94200E+03
  1.65026E+04  9.79141E+03  7.49681E+03  1.48701E+04 -4.17769E+03  1.87695E+04 -1.32143E+04  1.03378E+04
 -1.85931E+04 -3.68851E+02 -1.31552E+04 -1.33811E+04  5.15664E+02 -1.42890E+04  7.75070E+03 -1.11763E+04
  1.27968E+04 -5.34146E+03  7.01679E+03  4.26961E+03  3.12532E+03  4.16098E+03  1.36636E+03  8.12060E+02
  2.46773E+03  3.14931E+03  4.49132E+03  1.69975E+03  5.54374E+03  4.41706E+03  5.87896E+03  9.65553E+03
 -3.42104E+03  1.47901E+04 -1.25403E+04  1.37192E+04 -1.99362E+04  3.55449E+03 -1.97984E+04 -7.97692E+03
 -9.54908E+03 -1.84112E+04  4.43935E+03 -2.16188E+04  9.53798E+03 -1.33985E+04  1.54848E+04 -3.97575E+03
  1.10452E+04  6.64856E+03  3.20524E+03  1.02627E+04 -5.59126E+03  5.81667E+03 -8.56353E+03  6.84283E+01
 -3.77076E+03 -5.47112E+03  5.47888E+03 -8.97984E+03  6.83053E+03 -4.67394E+03  8.71549E+03  3.97412E+01
  5.05915E+03  3.79648E+03  1.34971E+03  3.81156E+03 -2.44997E+03  2.13418E+03  2.69074E+03 -1.05934E+03
  3.88294E+03 -4.98679E+01  7.91227E+03  3.36243E+03  5.22436E+03  9.42353E+03 -1.57648E+03  1.28197E+04
 -1.09934E+04  9.03009E+03 -1.16778E+04  3.18624E+03 -1.13551E+04 -4.99298E+03 -4.47777E+03 -7.74197E+03
  1.37051E+03 -6.73969E+03  5.00882E+03 -2.07764E+03  2.93462E+03  3.21652E+03  4.03582E+02  7.69100E+03
 -9.11185E+03  3.78043E+03 -9.73966E+03 -4.43696E+03 -4.76078E+03 -1.12954E+04  2.62299E+03 -1.08538E+04
  6.08168E+03 -6.15765E+03  9.27315E+03 -2.72257E+03  6.18779E+03  3.38529E+03  2.09514E+02  6.57061E+03
 -5.06710E+03  5.51813E+02 -3.98265E+03 -5.01441E+03  1.36812E+03 -6.51664E+03  1.07540E+04 -7.86721E+03
  1.32821E+04 -2.66530E+02  1.17676E+04  8.22188E+03  4.24431E+03  1.50097E+04 -4.56447E+03  1.22179E+04
 -1.18506E+04  6.80068E+03 -1.12535E+04 -1.40104E+03 -7.56982E+03 -6.82979E+03  3.03848E+03 -8.53827E+03
  6.07208E+03 -4.17171E+03  6.69619E+03  2.07557E+03  6.42403E+02  8.44686E+03 -5.02838E+02  5.35098E+03
 -3.27401E+03  3.39448E+03 -2.94629E+03  2.11803E+03 -2.55472E+03  1.88905E+03 -6.72807E+02  3.54684E+03
 -4.08206E+03  4.50766E+03 -6.92057E+03  6.83675E+03 -1.37274E+04  3.39602E+01 -1.43187E+04 -9.41651E+03
 -8.03556E+03 -1.87535E+04  3.51061E+03 -2.08133E+04  1.31262E+04 -1.56526E+04  1.88548E+04 -7.89577E+03
  1.81281E+04  2.12811E+03  1.16865E+04  1.22746E+04  1.26222E+03  1.45653E+04 -6.59686E+03  8.72816E+03
 -8.92344E+03  4.57419E+03 -6.40601E+03 -1.33605E+03 -2.17416E+03 -1.56071E+03 -3.08707E+03  4.91863E+02
 -3.38437E+03  4.49256E+02 -2.95796E+03 -3.39640E+02 -2.27855E+03 -3.15028E+03  4.29478E+02 -4.58348E+03
  7.38905E+03 -5.20111E+03  6.52008E+03  1.04324E+03  8.84044E+03  8.27214E+03  2.89582E+03  1.47896E+04
 -4.57138E+03  1.52703E+04 -1.57988E+04  9.89910E+03 -1.56579E+04 -2.69090E+03 -1.33849E+04 -1.06879E+04
 -2.71662E+03 -1.43023E+04  3.70968E+03 -1.25382E+04  7.85146E+03 -7.82521E+03  1.09986E+04 -1.39494E+03
  5.83256E+03  4.49508E+03 -1.81823E+03  3.20916E+03 -2.27529E+03 -6.68187E+02  6.24029E+02 -3.77397E+03
  3.46741E+03 -1.67984E+03  6.08682E+03  3.33622E+03  4.03335E+03  5.50526E+03 -2.41964E+02  6.34185E+03
 -6.12725E+03  6.26566E+03 -9.52114E+03 -3.80472E+01 -1.07284E+04 -7.04719E+03 -1.09306E+03 -1.25550E+04
  6.97359E+03 -1.11996E+04  1.27890E+04 -4.40498E+03  1.13754E+04  3.97666E+03  7.17926E+03  1.07433E+04
  1.41330E+02  1.02192E+04 -3.72963E+03  7.92214E+03 -6.31100E+03  4.72637E+03 -3.65200E+03  1.75873E+03
 -3.59839E+03 -6.53391E+02 -3.81489E+03  1.79317E+03 -5.22981E+03  1.40283E+03 -9.18987E+03 -2.49007E+03
 -7.89121E+03 -6.41082E+03 -2.97535E+03 -9.67236E+03  5.90569E+03 -1.02647E+04  7.67226E+03 -4.98021E+03
  1.12066E+04 -2.37523E+02  5.02365E+03  7.33063E+03 -2.02607E+03  9.47230E+03 -5.03125E+03  7.18018E+03
