 $NMID ID='MM_0lb_SNR200_15hz_g40_41.RAW', FMTDAT='(8E13.5)'
 TRAMP=1., VOLUME=1. $END
  3.09394E+05  7.83111E+02  3.38045E+05  2.50761E+05  8.49740E+04  3.38170E+05 -1.31064E+05  2.50148E+05
 -1.89663E+05  8.28870E+04 -1.11410E+05 -3.34967E+04  2.12781E+02 -4.95698E+04  5.34069E+04  9.19403E+02
  3.54551E+04  5.23938E+04 -1.66018E+04  7.48803E+04 -6.02956E+04  6.23303E+04 -8.30977E+04  3.20345E+04
 -8.09056E+04 -1.20789E+04 -5.71377E+04 -5.09176E+04 -1.56627E+04 -6.92753E+04  2.63440E+04 -4.44535E+04
  3.89545E+04  3.54212E+03  1.48766E+04  4.70235E+04 -3.50382E+04  4.73583E+04 -6.53644E+04  3.78893E+02
 -5.37956E+04 -5.69604E+04 -6.42169E+03 -7.58494E+04  3.32168E+04 -5.30600E+04  4.67311E+04 -1.69145E+04
  4.16470E+04  1.12031E+04  3.14714E+04  2.45094E+04  1.65919E+04  2.86643E+04 -3.99969E+03  2.77348E+04
 -2.09136E+04  1.17336E+04 -1.80938E+04 -4.08154E+03  4.91622E+03 -7.99127E+03  2.23424E+04  1.15643E+04
  7.21975E+03  3.44560E+04 -3.08378E+04  3.47559E+04 -6.28840E+04  1.74299E+03 -5.67309E+04 -4.36350E+04
 -1.28127E+04 -6.22948E+04  3.94792E+04 -4.49496E+04  5.66818E+04 -1.69609E+03  3.36790E+04  3.23048E+04
 -5.91870E+03  3.43809E+04 -2.98913E+04  1.34702E+04 -2.94948E+04 -5.81634E+03 -1.63362E+04 -9.73086E+03
 -7.92473E+03 -1.20884E+04 -1.70577E+03 -1.74875E+04  7.06111E+03 -2.37059E+04  1.50469E+04 -1.37517E+04
  1.19274E+04  5.27591E+03 -7.32036E+03  1.35184E+04 -1.95349E+04 -4.56802E+03 -8.21782E+03 -3.27608E+04
  2.19777E+04 -4.32689E+04  4.65016E+04 -1.89253E+04  4.21671E+04  1.76550E+04  1.56702E+04  4.41850E+04
 -1.67006E+04  3.30893E+04 -2.43214E+04  1.36272E+03 -9.78078E+03 -2.70524E+04  2.09155E+04 -3.36623E+04
  3.85571E+04 -8.94288E+03  3.40809E+04  2.34022E+04  1.70890E+04  4.45777E+04 -8.00959E+03  4.72282E+04
 -3.01927E+04  3.20086E+04 -3.98323E+04  9.54344E+03 -4.10051E+04 -1.57018E+04 -2.23489E+04 -3.72550E+04
  8.15372E+03 -3.62903E+04  3.01983E+04 -1.36337E+04  2.68643E+04  1.07543E+04  3.16104E+03  1.81362E+04
 -1.38815E+04  8.24403E+03 -1.02669E+04 -6.71813E+03  6.06696E+03 -9.72183E+03  1.79435E+04  7.03214E+03
  1.24716E+04  2.20328E+04 -6.77691E+03  2.35236E+04 -2.20838E+04  1.02998E+04 -2.66623E+04 -4.94291E+03
 -1.92322E+04 -1.74977E+04 -6.68239E+03 -1.93148E+04  2.89086E+03 -1.80687E+04  1.48885E+04 -1.65955E+04
  2.35520E+04 -1.19673E+04  2.94095E+04  1.00712E+03  2.20256E+04  1.87564E+04  3.25921E+03  3.44418E+04
 -1.69989E+04  2.93765E+04 -2.64953E+04  1.04920E+04 -2.11407E+04 -1.06404E+04 -4.80974E+03 -1.38708E+04
  2.14853E+03 -3.45693E+03 -3.62762E+03  6.65692E+03 -1.45694E+04  6.01227E+03 -1.61542E+04 -6.74727E+03
 -1.01769E+04 -1.67920E+04  4.79033E+03 -2.14633E+04  1.37475E+04 -1.45932E+04  1.60285E+04 -1.04852E+03
  1.11593E+04  1.16477E+04 -6.40485E+02  1.65539E+04 -1.15412E+04  9.10068E+03 -1.90429E+04 -3.53728E+03
 -1.32309E+04 -1.62028E+04 -1.42145E+03 -2.11223E+04  9.55547E+03 -1.77372E+04  1.77748E+04 -8.19106E+03
  1.65520E+04  7.27834E+02  1.15850E+04  4.16128E+03  5.63311E+03  6.19530E+02  7.81124E+03 -1.56867E+01
  1.53235E+04  2.58687E+03  1.65997E+04  1.41781E+04  1.12876E+04  2.71367E+04 -3.34922E+03  3.13057E+04
 -1.74674E+04  2.46568E+04 -2.90775E+04  1.15587E+04 -2.97100E+04 -1.77233E+03 -2.59145E+04 -1.66206E+04
 -1.07288E+04 -2.46703E+04  9.12456E+03 -2.17289E+04  1.80313E+04 -1.18893E+04  1.82960E+04  5.44109E+03
  6.66210E+03  1.27983E+04 -8.70620E+03  1.16365E+04 -1.45395E+04  2.95425E+03 -1.22679E+04 -8.31888E+03
  5.93446E+01 -1.30916E+04  6.94644E+03 -1.07479E+04  1.00932E+04 -2.27438E+03  1.19760E+03  6.18330E+03
 -5.56142E+03  2.37703E+03 -5.11931E+03 -6.05173E+03  2.89590E+02 -1.24196E+04  8.76856E+03 -1.19005E+04
  1.48099E+04 -6.19456E+03  1.51184E+04  2.81170E+03  1.34141E+04  1.11561E+04  5.85070E+03  1.83878E+04
 -2.99676E+03  1.97042E+04 -1.27897E+04  1.22553E+04 -1.33930E+04  2.48941E+03 -9.82007E+03 -2.87119E+03
 -4.89098E+03 -4.56012E+03 -5.18080E+02  8.15366E+02 -3.41654E+03  1.22757E+03 -4.51220E+03  4.66380E+03
 -9.27326E+03  4.52816E+01 -1.08590E+04 -7.17282E+03 -3.93824E+03 -1.36727E+04  3.63481E+03 -9.83285E+03
  8.46992E+03 -3.73288E+03  4.94335E+03  3.52710E+03 -8.24732E+02  3.12413E+03 -4.97767E+03  3.75672E+02
 -3.94882E+03 -6.57875E+03 -1.52442E+03 -9.27052E+03  4.49877E+03 -1.01681E+04  1.17064E+04 -5.02432E+03
  1.32474E+04  1.67042E+01  1.13878E+04  9.62329E+03  2.21754E+03  1.12872E+04 -5.75454E+03  1.06322E+04
 -8.20101E+03  4.20127E+03 -4.91779E+03 -2.35336E+03  6.36703E+02 -1.78831E+03  5.73317E+03 -5.73596E+02
  5.93846E+03  3.80064E+03  1.37904E+03  8.57704E+03 -5.56668E+03  7.21246E+03 -8.64972E+03  2.16410E+03
 -5.69092E+03 -3.25683E+03 -5.70008E+02 -9.05687E+03  4.97644E+03 -3.53821E+03  4.05481E+03  5.48936E+02
 -6.50233E+02  5.33682E+03 -4.68542E+03  6.53495E+03 -7.23910E+03  2.35446E+03 -6.50455E+03 -1.18356E+03
 -3.85857E+03 -8.49056E+03  2.01423E+03 -9.39025E+03  8.10236E+03 -7.20118E+03  8.48721E+03  1.43561E+03
  6.15320E+03  7.15059E+03 -8.88393E+02  9.01031E+03 -5.88237E+03  5.10620E+03 -7.10978E+03  7.41436E+01
 -5.73219E+03 -6.36917E+03 -1.82016E+03 -6.23810E+03  3.77179E+03 -5.64637E+03  4.63176E+03 -2.22509E+03
  3.26378E+03  2.81433E+02 -3.74450E+02  1.22870E+03 -7.41030E+01 -1.08917E+02  6.05615E+02 -3.35286E+03
  6.08318E+03 -1.51643E+03  8.09804E+03  1.13459E+03  7.72142E+03  4.35757E+03  6.30560E+03  1.02685E+04
 -1.82705E+03  1.19525E+04 -9.91197E+03  9.34251E+03 -1.32171E+04  1.44641E+03 -1.04024E+04 -3.05081E+03
 -6.55058E+03 -7.17360E+03 -6.99260E+02 -6.63231E+03  1.70561E+03 -2.08690E+03  3.15451E+03 -4.00395E+03
  2.34348E+03 -1.30124E+03  3.08135E+03 -2.67895E+03  3.18857E+03 -2.80717E+03  4.10083E+03  4.28737E+02
  4.65808E+03  1.50453E+03  1.75271E+03  4.08644E+03 -2.77270E+03  5.28252E+03 -5.96938E+03  3.43858E+03
 -6.47807E+03 -8.13765E+02 -3.35938E+03 -4.81501E+03  8.88002E+02 -6.90452E+03  4.25754E+03 -6.96075E+03
  7.83180E+03 -4.06965E+03  9.27103E+03 -3.74862E+01  7.14375E+03  5.91417E+03  1.00953E+03  8.79428E+03
 -3.72740E+03  6.63573E+03 -4.68229E+03  2.37096E+03 -4.58279E+03 -2.25506E+03 -1.38839E+03 -6.77232E+02
 -5.85442E+02  1.04189E+03 -2.30086E+03  2.25052E+03 -3.27955E+03  2.89379E+03 -5.60160E+03  7.04072E+02
 -3.33727E+03 -4.56498E+03  1.29416E+03 -6.10313E+03  4.04834E+03 -7.00161E+03  6.03577E+03 -1.73349E+03
  6.00927E+03  2.88646E+03  2.66950E+03  5.98826E+03 -1.46403E+03  5.95308E+03 -4.79049E+03  4.60389E+03
 -5.56992E+03  1.16964E+02 -5.42496E+03 -2.45272E+03  1.14139E+02 -5.41655E+03  2.98397E+03 -4.56177E+03
  4.26454E+03 -2.80012E+03  2.19042E+03 -3.90638E+02  2.05813E+03  2.29726E+03  1.45036E+03  5.80158E+02
  1.58254E+03  3.98945E+02  1.80050E+03  1.39697E+03  2.15443E+03  3.75060E+03  2.28117E+03  3.29296E+03
 -9.37772E+02  5.33012E+03 -4.17073E+03  6.45465E+03 -6.32967E+03  2.41539E+03 -6.36102E+03 -9.65451E+02
 -1.50694E+03 -6.02278E+03  9.76672E+02 -6.30900E+03  3.48429E+03 -4.24535E+03  5.17066E+03 -1.50280E+03
  5.68681E+03  2.29349E+03  6.76867E+02  4.52731E+03 -6.35738E+02  2.45544E+03 -1.72564E+03 -6.39300E+02
 -1.05511E+03 -2.66236E+03  1.42349E+03 -3.24537E+03  2.59346E+03 -6.08880E+02  2.41956E+03  6.22395E+02
  2.15538E+03  8.20512E+02  4.69722E+02 -3.12081E+01 -1.02658E+02  1.36732E+03  2.36987E+03  5.03536E+02
  1.53346E+03  1.74250E+02  1.19132E+03  1.52841E+03  7.41350E+02  3.08774E+03  5.46687E+02  4.97258E+03
 -2.27126E+03  2.19945E+03 -3.11820E+03  7.07410E+02 -3.85167E+03 -8.91227E+02 -1.77583E+03 -2.53319E+03
  1.76251E+03 -1.83556E+03  1.76723E+03 -2.36909E+03  6.20097E+02  2.22937E+03 -4.03956E+02  6.70431E+02
 -3.14030E+03  1.43741E+03 -4.07042E+03 -1.35557E+03 -8.61531E+02 -3.39872E+03  2.57246E+02 -2.87743E+03
  1.39909E+03 -5.23590E+02  2.33696E+03 -1.09467E+03  1.78295E+03 -9.46085E+02  6.91755E+02  9.14378E+02
 -2.22507E+03  9.30372E+02 -2.35790E+03 -1.54635E+03  1.03512E+03 -1.56170E+03  2.31357E+03 -1.06169E+03
  3.73028E+03  4.60867E+02  3.35615E+03  2.09984E+03  1.56203E+03  2.69047E+03 -9.85001E+02  3.32286E+03
 -3.13243E+03  1.45673E+03 -3.83092E+03 -1.47221E+03 -9.50397E+02 -1.27256E+03  6.21055E+02 -1.93511E+03
  2.36558E+03 -9.85496E+02  2.76843E+03  8.77448E+02  5.24531E+02  2.17452E+03  7.74198E+01  1.88676E+03
 -7.54820E+02  1.72459E+03 -3.11265E+02  2.61952E+02  2.99256E+02  1.01281E+03  3.58715E+02  1.58453E+02
 -1.72791E+03  1.03835E+03 -2.65807E+03  1.71212E+03 -3.11940E+03  6.41880E+01 -3.30858E+03 -2.61637E+03
 -1.97819E+03 -4.73092E+03  6.34514E+02 -6.01287E+03  2.86578E+03 -4.87173E+03  4.56742E+03 -1.95007E+03
  3.72112E+03  9.78541E+02  3.81508E+03  4.29961E+03 -1.29397E+03  2.31207E+03 -3.19488E+02  2.74975E+03
 -1.52364E+03  1.44371E+03 -1.95599E+03 -7.78000E+02  7.24791E+02  6.41018E+01 -1.39110E+03 -1.10632E+01
 -6.78020E+02 -2.97009E+02 -2.07254E+03 -1.08425E+03  5.80388E+02 -1.32217E+03 -1.08547E+02 -1.73446E+03
  1.82612E+03 -1.33591E+03  1.82492E+03  9.62003E+02  1.67958E+03  1.42676E+03 -3.97499E+02  3.87370E+03
 -1.30769E+03  3.61312E+03 -3.33941E+03  2.15867E+03 -3.78529E+03 -6.22088E+02 -2.71853E+03 -2.60450E+03
 -3.66837E+02 -3.19094E+03  2.17736E+02 -2.27973E+03  2.18981E+03 -9.16498E+02  2.89994E+03 -1.28505E+02
  9.16766E+02  1.24345E+03  8.48170E+02  2.13488E+03 -5.33119E+02 -8.43797E+02  6.88246E+02 -8.29815E+02
  6.94885E+02 -3.78249E+02  1.95992E+03 -2.32269E+02  2.10737E+03  1.02362E+03  6.94442E+02  1.15380E+03
 -2.79533E+02  1.61223E+03 -1.83565E+03  6.76665E+02 -1.57864E+03 -6.79914E+02 -3.26740E+02 -3.05448E+03
  2.38842E+03 -2.20405E+03  2.06098E+03 -5.92323E+02  1.85706E+03  1.10654E+02  1.07734E+03  1.98728E+03
  6.23753E+02  1.28843E+03 -1.67375E+03  4.30316E+02  9.26626E+01  2.14985E+03 -1.46437E+03  8.95181E+02
 -2.52286E+02 -6.77782E+02 -1.53300E+03  1.43964E+03 -1.47823E+03  2.94463E+02 -4.63491E+02  4.24029E+01
 -1.00384E+03 -4.28203E+02 -9.16943E+02 -2.48944E+03  9.16919E+02 -2.12181E+03  1.36912E+03 -1.43551E+03
  1.68043E+03  4.20586E+01  1.73892E+02  1.66428E+03  5.56284E+01  1.86602E+03 -9.11978E+02  1.74838E+03
