 $NMID ID='MM_0lb_SNR200_12hz_g40_69.RAW', FMTDAT='(8E13.5)'
 TRAMP=1., VOLUME=1. $END
  3.09902E+05  1.80343E+03  3.37213E+05  2.49588E+05  8.48185E+04  3.37205E+05 -1.32152E+05  2.50734E+05
 -1.90451E+05  8.44328E+04 -1.12609E+05 -3.32000E+04  2.27284E+02 -5.03486E+04  5.27277E+04 -9.21358E+02
  3.45223E+04  5.27886E+04 -1.78796E+04  7.68992E+04 -6.17870E+04  6.37874E+04 -8.48418E+04  3.16418E+04
 -8.20149E+04 -1.12990E+04 -5.84957E+04 -5.09802E+04 -1.55411E+04 -6.94107E+04  2.79383E+04 -4.45033E+04
  3.96296E+04  3.65588E+03  1.67139E+04  4.74449E+04 -3.43224E+04  4.86572E+04 -6.76525E+04  2.19731E+02
 -5.40687E+04 -5.70933E+04 -5.93623E+03 -7.69318E+04  3.48221E+04 -5.53098E+04  4.82779E+04 -1.75929E+04
  4.37697E+04  1.09197E+04  3.25967E+04  2.43337E+04  1.64793E+04  3.08846E+04 -4.68848E+03  2.74416E+04
 -2.25974E+04  1.26082E+04 -1.90897E+04 -4.82152E+03  5.16499E+03 -7.22945E+03  2.26322E+04  1.30845E+04
  7.25087E+03  3.71365E+04 -3.25629E+04  3.64614E+04 -6.36423E+04  4.67023E+03 -5.64076E+04 -4.35337E+04
 -1.39980E+04 -6.33886E+04  4.08993E+04 -4.61939E+04  6.11380E+04 -1.62281E+03  3.42731E+04  3.33201E+04
 -6.69149E+03  3.63434E+04 -3.02903E+04  1.62144E+04 -3.11848E+04 -4.40452E+03 -1.65384E+04 -1.07130E+04
 -8.54836E+03 -1.30844E+04 -8.52473E+02 -1.88409E+04  7.30985E+03 -2.30372E+04  1.47794E+04 -1.33424E+04
  1.23297E+04  5.57614E+03 -9.72944E+03  1.23778E+04 -2.26151E+04 -5.15406E+03 -8.20819E+03 -3.63682E+04
  2.38092E+04 -4.34455E+04  4.89302E+04 -1.90925E+04  4.49156E+04  2.05319E+04  1.60217E+04  4.42900E+04
 -1.75418E+04  3.45637E+04 -2.49488E+04  1.94892E+03 -1.09537E+04 -2.74462E+04  2.01856E+04 -3.39794E+04
  4.20715E+04 -9.24358E+03  3.70049E+04  2.36641E+04  1.73336E+04  4.79604E+04 -6.44379E+03  5.08779E+04
 -3.16252E+04  3.38330E+04 -4.42903E+04  9.67272E+03 -4.30881E+04 -1.71093E+04 -2.41802E+04 -3.99240E+04
  7.22517E+03 -3.76105E+04  3.28919E+04 -1.38910E+04  3.02185E+04  1.05112E+04  4.22488E+03  1.94393E+04
 -1.39083E+04  9.01629E+03 -1.06132E+04 -8.32508E+03  6.05871E+03 -1.15126E+04  1.91262E+04  6.70966E+03
  1.35266E+04  2.14553E+04 -6.36050E+03  2.51347E+04 -2.14106E+04  1.12843E+04 -2.79466E+04 -4.31168E+03
 -2.17538E+04 -1.82156E+04 -8.24072E+03 -2.10856E+04  5.14528E+03 -1.87996E+04  1.66138E+04 -1.92224E+04
  2.63627E+04 -1.38536E+04  3.54509E+04  4.08337E+03  2.43897E+04  2.09148E+04  5.09933E+03  3.83359E+04
 -1.84579E+04  3.12511E+04 -2.86422E+04  1.13249E+04 -2.00098E+04 -1.05621E+04 -4.78446E+03 -1.21187E+04
  1.40739E+03 -2.86304E+03 -5.26920E+03  6.54887E+03 -1.67195E+04  5.28040E+03 -1.59786E+04 -6.49571E+03
 -1.11099E+04 -1.96397E+04  4.51119E+03 -2.45595E+04  1.61405E+04 -1.75625E+04  1.90155E+04 -1.02133E+03
  1.08400E+04  1.22273E+04 -9.04230E+02  1.99867E+04 -1.41449E+04  1.20228E+04 -2.01072E+04 -4.35294E+03
 -1.38709E+04 -1.77883E+04 -1.20340E+03 -2.41275E+04  1.00894E+04 -1.98082E+04  2.11417E+04 -1.06198E+04
  1.90285E+04 -4.54115E+02  1.29658E+04  5.36795E+03  7.28636E+03  9.95677E+02  9.56600E+03 -6.96292E+02
  1.77543E+04  1.59464E+03  2.13164E+04  1.59184E+04  1.30084E+04  3.13565E+04 -3.24415E+03  3.56968E+04
 -2.11683E+04  2.96777E+04 -3.31428E+04  1.56686E+04 -3.47686E+04 -2.93404E+03 -2.93188E+04 -2.00964E+04
 -1.19678E+04 -3.01477E+04  1.16180E+04 -2.65380E+04  2.14536E+04 -1.36645E+04  2.00044E+04  6.19014E+03
  6.61741E+03  1.65097E+04 -9.44720E+03  1.32303E+04 -1.64557E+04  2.13668E+03 -1.43497E+04 -1.12473E+04
  7.71486E+02 -1.60571E+04  8.69393E+03 -1.22852E+04  1.00443E+04 -1.10093E+03  3.78232E+03  7.80207E+03
 -8.00350E+03  3.12609E+03 -7.51891E+03 -5.91632E+03 -9.62227E+02 -1.48723E+04  1.01211E+04 -1.43613E+04
  1.73434E+04 -7.95047E+03  2.00270E+04  2.06136E+03  1.65716E+04  1.44411E+04  8.67934E+03  2.20714E+04
 -4.67017E+03  2.34100E+04 -1.56498E+04  1.50338E+04 -1.77137E+04  3.89044E+03 -1.30266E+04 -4.86259E+03
 -6.21902E+03 -4.51081E+03 -1.73743E+03  1.49603E+03 -1.60368E+03  2.18945E+03 -5.42103E+03  3.88992E+03
 -1.15128E+04  3.94631E+02 -1.17705E+04 -1.01201E+04 -4.79113E+03 -1.47357E+04  5.23416E+03 -1.24228E+04
  1.02269E+04 -5.82689E+03  6.66678E+03  3.68974E+03  6.18893E+02  5.87108E+03 -6.21284E+03 -9.44946E+02
 -6.42968E+03 -6.44828E+03 -7.73242E+02 -1.19590E+04  6.73675E+03 -1.27748E+04  1.54706E+04 -5.46610E+03
  1.84992E+04  1.72753E+03  1.20967E+04  9.93204E+03  1.92474E+03  1.35010E+04 -6.50770E+03  1.23075E+04
 -1.11318E+04  2.80837E+03 -5.94870E+03 -1.83798E+03  2.36109E+03 -2.54838E+03  6.58816E+03 -6.98572E+02
  6.06911E+03  6.37615E+03  6.55966E+02  1.11788E+04 -8.54509E+03  9.39248E+03 -1.14685E+04  1.81397E+03
 -8.32161E+03 -3.73899E+03 -5.06736E+02 -1.00241E+04  7.43379E+03 -4.91876E+03  7.41719E+03  2.84456E+03
  2.54012E+03  6.24960E+03 -5.49160E+03  8.12584E+03 -1.04870E+04  3.51681E+03 -1.08104E+04 -3.65065E+03
 -4.73983E+03 -1.10072E+04  2.42496E+03 -1.22016E+04  1.20845E+04 -8.65473E+03  1.17639E+04  2.36187E+03
  7.53808E+03  8.38197E+03 -5.07013E+02  1.24626E+04 -9.28470E+03  7.23413E+03 -8.61758E+03 -2.93275E-01
 -8.83708E+03 -8.26498E+03 -6.86130E+02 -7.95933E+03  5.15664E+03 -7.50568E+03  5.25958E+03 -2.52366E+03
  3.74871E+03  1.79977E+03  4.62092E+02  2.78103E+03  1.11241E+02 -8.88711E+02  5.63653E+02 -5.29677E+03
  8.10455E+03 -4.20429E+03  1.07458E+04  6.44593E+02  1.04426E+04  6.31171E+03  7.66552E+03  1.34216E+04
 -2.77487E+03  1.57384E+04 -1.42037E+04  1.30160E+04 -1.80856E+04  2.73527E+03 -1.47883E+04 -6.83236E+03
 -7.17778E+03 -1.26378E+04 -7.22282E+02 -1.01293E+04  4.67660E+03 -6.37206E+03  4.47981E+03 -3.13121E+03
  2.30224E+03 -2.55130E+03  2.68149E+03 -1.80287E+03  5.18781E+03 -2.10543E+03  5.34361E+03 -4.65279E+02
  6.65388E+03  1.53662E+03  2.30549E+03  6.53204E+03 -1.74551E+03  7.17062E+03 -9.40569E+03  4.27135E+03
 -1.02005E+04 -1.35749E+03 -4.07927E+03 -6.77533E+03  6.27807E+02 -1.03269E+04  5.85209E+03 -1.01941E+04
  1.23835E+04 -5.20591E+03  1.36676E+04  1.87063E+03  1.00319E+04  9.82863E+03  2.41521E+03  1.37695E+04
 -6.80667E+03  9.77450E+03 -6.31009E+03  4.15586E+03 -4.07661E+03 -1.81146E+03 -1.19171E+03 -2.34815E+03
  1.98298E+02  5.93360E+02 -1.21596E+03  2.30816E+03 -4.28124E+03  1.69710E+03 -6.26999E+03 -6.58299E+02
 -4.40166E+03 -7.68513E+03  7.23237E+02 -9.26254E+03  6.52246E+03 -8.73432E+03  9.40377E+03 -3.96622E+03
  9.15835E+03  5.69337E+03  4.00162E+03  8.71249E+03 -2.43222E+03  9.58949E+03 -6.21349E+03  5.09811E+03
 -8.82321E+03  7.61549E+02 -6.87690E+03 -5.39002E+03 -1.12685E+03 -8.52522E+03  3.70674E+03 -5.40379E+03
  5.45863E+03 -2.65007E+03  4.77964E+03  4.51196E+02  5.30615E+02  2.31944E+03  1.68676E+03  1.60371E+03
  2.81943E+03  7.19818E+02  1.45367E+03  1.25166E+03  2.27493E+03  3.05171E+03  2.09762E+03  5.06456E+03
 -9.37060E+02  6.78099E+03 -6.59771E+03  7.42535E+03 -7.92962E+03  5.25202E+02 -8.72294E+03 -4.34946E+03
 -4.43286E+03 -9.04769E+03  1.71017E+03 -1.01112E+04  4.62650E+03 -7.83848E+03  7.43609E+03 -2.13643E+03
  6.31799E+03  4.32914E+03  4.25900E+02  7.66002E+03 -2.56604E+03  2.83464E+03 -4.11520E+03 -2.47051E+03
 -1.14661E+03 -3.03831E+03  2.11901E+03 -4.57544E+03  3.69931E+03 -3.26922E+03  4.40201E+03  1.28592E+03
  3.23123E+03  1.85020E+03  2.17713E+03  1.06065E+03 -3.96774E+02  2.62645E+03  1.36072E+03 -9.61704E+02
  2.45635E+03 -9.85787E+02  4.12879E+03  2.08555E+03  3.34383E+03  3.14988E+03 -4.68942E+02  6.02084E+03
 -3.78062E+03  2.59568E+03 -5.37240E+03 -1.24341E+02 -5.64557E+03 -1.13181E+03 -1.46955E+03 -3.19002E+03
  8.86943E+02 -3.06680E+03  3.20503E+03 -1.43157E+03  2.05016E+03  1.86309E+03 -1.76314E+03  2.19641E+03
 -4.12767E+03  2.20747E+03 -4.32165E+03 -2.83187E+03 -2.62384E+03 -5.69163E+03  9.90288E+02 -3.63240E+03
  3.65794E+03 -3.07339E+03  3.84973E+03 -2.12452E+03  2.80511E+03  9.58892E+02  9.44566E+02  2.17601E+03
 -1.76889E+03  1.56148E+03 -1.88906E+03 -1.66821E+03  1.87259E+03 -3.05622E+03  4.64451E+03 -3.00774E+03
  5.74391E+03  7.23393E+01  5.91204E+03  3.79719E+03  3.17118E+03  3.85096E+03 -2.23022E+03  6.16196E+03
 -4.42087E+03  1.98267E+03 -5.06125E+03 -7.16107E+02 -2.55189E+03 -3.72439E+03  4.70439E+02 -3.81385E+03
  3.02710E+03 -3.16940E+03  2.48944E+03  2.02291E+03  1.55535E+02  4.01376E+03 -5.43064E+02  2.98448E+03
 -1.52049E+03  2.14067E+03 -2.74346E+03  2.17384E+03  2.12576E+02  1.56064E+03 -1.11849E+03  1.19475E+03
 -2.36935E+03  3.18623E+03 -3.61535E+03  2.97493E+03 -6.42179E+03 -3.02597E+02 -7.77520E+03 -4.82664E+03
 -3.40162E+03 -6.80512E+03  1.30190E+03 -6.92337E+03  4.19128E+03 -6.83181E+03  8.75121E+03 -3.79931E+03
  6.53602E+03  2.17920E+03  5.71219E+03  5.36562E+03  2.74698E+02  7.31480E+03 -2.20069E+03  3.25686E+03
 -3.16523E+03  3.35144E+03 -1.96442E+03 -7.27675E+02 -1.48472E+03 -5.65031E+02 -8.94476E+02 -3.95793E+02
 -2.10987E+03  2.45352E+01 -1.48873E+03  2.33090E+02 -2.18109E+03 -1.36748E+03 -8.60738E+01 -2.60977E+03
  1.83108E+03 -1.29724E+03  2.50849E+03 -1.39578E+01  3.14615E+03  4.00948E+03  6.58986E+02  5.94552E+03
 -1.12158E+03  6.75752E+03 -4.50217E+03  2.87189E+03 -5.73563E+03  3.00128E+02 -4.22787E+03 -5.25037E+03
 -3.26999E+03 -7.58545E+03  1.17347E+03 -4.05356E+03  3.32731E+03 -2.01802E+03  4.92629E+03  7.89571E+02
  2.05863E+03  1.45084E+03 -3.40105E+01  1.99436E+03 -5.89607E+02  4.50941E+02 -3.50681E+02 -1.85773E+03
  1.35350E+03 -3.69810E+02  1.64481E+03  4.58452E+02  1.69684E+03  3.43856E+03  1.34034E+03  2.88863E+03
 -1.92609E+03  2.68303E+03 -2.12069E+03  7.14751E+02 -3.27348E+03 -2.49768E+03  2.22874E+02 -4.68608E+03
  2.75317E+03 -3.44051E+03  3.91709E+03 -2.40655E+03  4.36563E+03  8.56437E+02  2.84692E+03  2.98183E+03
  9.92968E+02  3.57980E+03 -2.76665E+03  3.35847E+03 -7.94700E+02  1.68397E+03 -2.24325E+03 -1.20384E+03
 -1.80229E+03  5.70093E+02 -1.13267E+03 -4.10028E+02 -2.06995E+03  6.73673E+02 -1.85555E+03 -1.04121E+03
 -1.83082E+03 -1.65202E+03 -1.26784E+03 -2.72000E+03  2.34621E+03 -2.37994E+03  4.68393E+03 -1.31447E+03
  3.47593E+03 -1.90293E+01  3.33090E+03  1.84955E+03  5.07028E+02  5.16770E+03 -2.50126E+03  3.26573E+03
