 $NMID ID='MM_0lb_SNR200_10hz_g45_98.RAW', FMTDAT='(8E13.5)'
 TRAMP=1., VOLUME=1. $END
  3.08758E+05  2.19961E+02  3.37651E+05  2.49719E+05  8.57492E+04  3.38769E+05 -1.32716E+05  2.53108E+05
 -1.91217E+05  8.52968E+04 -1.12221E+05 -3.30743E+04  5.58593E+02 -5.09105E+04  5.51178E+04 -1.27445E+02
  3.49270E+04  5.15075E+04 -1.69851E+04  7.56541E+04 -6.03532E+04  6.45267E+04 -8.59140E+04  3.22910E+04
 -8.09798E+04 -1.14042E+04 -5.63771E+04 -5.10253E+04 -1.45268E+04 -7.03670E+04  2.86000E+04 -4.58594E+04
  4.13339E+04  3.65002E+03  1.72291E+04  4.84981E+04 -3.64177E+04  4.88085E+04 -6.73332E+04 -5.56437E+02
 -5.38888E+04 -5.80104E+04 -5.83127E+03 -7.75410E+04  3.40491E+04 -5.48061E+04  4.93241E+04 -1.82745E+04
  4.43726E+04  1.17533E+04  3.16359E+04  2.71165E+04  1.64328E+04  3.01195E+04 -6.50205E+03  2.64755E+04
 -2.24594E+04  1.26366E+04 -1.83381E+04 -6.23938E+03  6.08340E+03 -6.24451E+03  2.26406E+04  1.44009E+04
  7.71868E+03  3.54088E+04 -3.31408E+04  3.44530E+04 -6.53650E+04  2.81889E+03 -5.73620E+04 -4.46580E+04
 -1.42993E+04 -6.45229E+04  4.12186E+04 -4.75843E+04  6.11611E+04 -2.70486E+03  3.61276E+04  3.38824E+04
 -4.65591E+03  3.68275E+04 -3.09143E+04  1.85165E+04 -3.32077E+04 -3.54007E+03 -1.83668E+04 -1.07359E+04
 -1.09450E+04 -1.33181E+04  5.67158E+02 -1.95360E+04  8.10836E+03 -2.34116E+04  1.62021E+04 -1.40395E+04
  1.03675E+04  6.45763E+03 -1.10127E+04  1.40910E+04 -2.24590E+04 -4.86664E+03 -8.47107E+03 -3.61479E+04
  2.30246E+04 -4.44385E+04  5.11634E+04 -2.01013E+04  4.72200E+04  1.97785E+04  1.73052E+04  4.66385E+04
 -1.49605E+04  3.49305E+04 -2.81968E+04  1.94706E+03 -1.13090E+04 -2.91864E+04  2.04910E+04 -3.61180E+04
  4.41681E+04 -1.05083E+04  3.96225E+04  2.43384E+04  2.14875E+04  4.86480E+04 -9.42836E+03  5.45099E+04
 -3.52810E+04  3.74959E+04 -4.56498E+04  1.02443E+04 -4.53627E+04 -2.01009E+04 -2.50059E+04 -4.04887E+04
  7.32743E+03 -4.02226E+04  3.28931E+04 -1.74581E+04  3.09908E+04  1.15130E+04  4.68805E+03  2.08030E+04
 -1.36161E+04  8.10519E+03 -1.14300E+04 -8.04702E+03  5.42623E+03 -1.09906E+04  1.85781E+04  4.91947E+03
  1.55054E+04  2.27043E+04 -6.03022E+03  2.58289E+04 -2.34016E+04  1.35673E+04 -2.88753E+04 -4.26535E+03
 -2.28130E+04 -1.84508E+04 -1.11550E+04 -2.39878E+04  4.45328E+03 -2.41637E+04  1.65517E+04 -2.17753E+04
  2.94661E+04 -1.48355E+04  3.74674E+04  4.19306E+03  2.66564E+04  2.14032E+04  5.24479E+03  3.91867E+04
 -1.82705E+04  3.21588E+04 -2.97247E+04  1.19210E+04 -2.11752E+04 -9.16295E+03 -4.01279E+03 -1.18022E+04
  1.68306E+03 -3.44741E+02 -7.06766E+03  8.24011E+03 -1.90867E+04  6.07281E+03 -1.88480E+04 -9.95933E+03
 -1.15491E+04 -2.22688E+04  5.75578E+03 -2.61331E+04  1.92826E+04 -1.90254E+04  2.12913E+04 -1.95195E+03
  1.33200E+04  1.58963E+04 -2.50480E+03  2.11854E+04 -1.33929E+04  1.21972E+04 -2.17970E+04 -4.19741E+03
 -1.71041E+04 -1.99123E+04 -1.03932E+03 -2.71151E+04  1.32392E+04 -2.15729E+04  1.93350E+04 -1.17910E+04
  2.07682E+04  3.14983E+02  1.42794E+04  4.33636E+03  8.24959E+03  1.75071E+03  1.08242E+04 -1.82843E+03
  2.00500E+04  2.56924E+03  2.29808E+04  1.87208E+04  1.48256E+04  3.59883E+04 -2.06525E+03  4.11214E+04
 -2.38332E+04  3.33959E+04 -3.80298E+04  1.73745E+04 -4.23057E+04 -2.41981E+03 -3.32927E+04 -2.40336E+04
 -1.32177E+04 -3.42573E+04  1.29459E+04 -3.01096E+04  2.61332E+04 -1.49767E+04  2.30791E+04  8.77125E+03
  8.02504E+03  1.78537E+04 -1.07032E+04  1.49472E+04 -1.87054E+04  3.10831E+03 -1.46260E+04 -1.17281E+04
 -4.35164E+02 -1.79262E+04  1.06762E+04 -1.36966E+04  1.13384E+04 -7.43062E+02  2.75893E+03  8.69645E+03
 -6.90610E+03  5.29548E+03 -6.75322E+03 -6.61636E+03 -1.82916E+03 -1.69331E+04  1.27099E+04 -1.86492E+04
  2.26263E+04 -1.12796E+04  2.37447E+04  2.85436E+03  2.14327E+04  1.70416E+04  9.41864E+03  2.75096E+04
 -3.94862E+03  2.95355E+04 -1.84183E+04  1.78331E+04 -2.17893E+04  4.80027E+03 -1.35491E+04 -5.18613E+03
 -5.24215E+03 -5.90130E+03 -4.76098E+02  1.04049E+03 -4.15557E+03  3.33210E+03 -7.55957E+03  4.81747E+03
 -1.32934E+04 -4.29353E+02 -1.34681E+04 -1.04821E+04 -5.29799E+03 -1.86376E+04  5.05596E+03 -1.33499E+04
  1.24265E+04 -4.11240E+03  8.08929E+03  4.97168E+03  1.56123E+03  6.63983E+03 -6.64855E+03  3.38204E+01
 -7.27988E+03 -9.55890E+03  2.27293E+02 -1.44048E+04  7.75572E+03 -1.61923E+04  1.93793E+04 -8.64375E+03
  2.05699E+04  3.24877E+03  1.61721E+04  1.28947E+04  6.41699E+02  1.80340E+04 -8.24451E+03  1.40799E+04
 -1.07785E+04  3.31576E+03 -6.39064E+03 -2.26416E+03  1.52302E+03 -4.58809E+03  8.82981E+03 -4.61790E+02
  6.82195E+03  6.64845E+03  1.43709E+03  1.21060E+04 -9.09851E+03  1.17718E+04 -1.35509E+04  3.65400E+03
 -8.72752E+03 -7.70667E+03  1.60072E+03 -1.24660E+04  9.06782E+03 -4.57948E+03  8.40405E+03  2.72937E+03
  2.24477E+03  8.61457E+03 -8.41314E+03  9.21287E+03 -1.21529E+04  4.93019E+03 -1.14095E+04 -4.40923E+03
 -6.88729E+03 -1.41290E+04  4.06944E+03 -1.59229E+04  1.37340E+04 -9.52707E+03  1.43259E+04  1.57005E+03
  1.03559E+04  1.27369E+04 -1.18575E+03  1.44828E+04 -1.04813E+04  8.12810E+03 -1.11522E+04 -1.46577E+03
 -8.99114E+03 -8.70860E+03 -1.76360E+03 -1.17546E+04  5.02697E+03 -8.55812E+03  5.75491E+03 -2.64305E+03
  5.02678E+03  2.91549E+03 -1.67305E+03  3.18136E+03 -5.68167E+02 -2.66936E+03  2.70066E+03 -6.91827E+03
  1.04932E+04 -4.05486E+03  1.40259E+04  2.53762E+03  1.31473E+04  1.04848E+04  9.62088E+03  1.94078E+04
 -4.17683E+03  2.06267E+04 -1.76259E+04  1.51351E+04 -2.27089E+04  3.29620E+03 -1.89466E+04 -7.43844E+03
 -8.44270E+03 -1.60430E+04 -1.82952E+03 -1.24685E+04  4.44495E+03 -8.46017E+03  4.35469E+03 -5.16965E+03
  3.55324E+03 -1.92286E+03  3.58613E+03 -5.36207E+03  5.20049E+03 -2.81660E+03  8.64928E+03 -2.21772E+03
  8.78314E+03  1.84416E+03  5.69859E+03  7.06039E+03 -4.68313E+02  8.28373E+03 -9.50563E+03  7.66036E+03
 -1.16893E+04  5.62754E+01 -6.99180E+03 -8.21168E+03 -1.07980E+03 -1.33720E+04  8.36189E+03 -1.48973E+04
  1.59455E+04 -6.67443E+03  1.84601E+04  3.03429E+03  1.13092E+04  1.21445E+04  1.93967E+03  1.65134E+04
 -6.04200E+03  1.19243E+04 -8.53835E+03  4.72459E+03 -6.98514E+03 -1.58767E+03 -1.51339E+03 -2.16174E+03
 -1.42398E+03  9.74356E+02 -1.65697E+03  3.03088E+03 -6.92100E+03  2.32128E+03 -8.91642E+03 -1.11714E+03
 -6.58255E+03 -9.47750E+03  7.58158E+02 -1.28817E+04  7.58585E+03 -1.18827E+04  1.35790E+04 -3.50227E+03
  1.24392E+04  7.75837E+03  5.92516E+03  1.11219E+04 -1.84367E+03  1.23510E+04 -9.86420E+03  7.89133E+03
 -1.04126E+04  8.60197E+02 -1.11445E+04 -7.49515E+03 -1.02782E+03 -1.09848E+04  6.08938E+03 -7.30948E+03
  8.13721E+03 -2.26686E+03  4.62053E+03  1.62730E+03  1.83007E+03  3.29472E+03  1.99860E+03  2.54913E+03
  2.87513E+03 -5.04181E+02  3.49053E+03  2.32558E+03  3.47770E+03  3.83965E+03  2.78410E+03  7.34568E+03
 -2.39810E+03  9.20690E+03 -8.98070E+03  1.12492E+04 -1.17072E+04  2.68664E+03 -1.34748E+04 -4.70775E+03
 -5.81404E+03 -1.22746E+04  9.59109E+02 -1.39012E+04  7.08487E+03 -8.91557E+03  1.09068E+04 -2.23964E+03
  8.22550E+03  5.26301E+03  2.75160E+03  7.76721E+03 -2.86524E+03  3.91184E+03 -5.35358E+03 -1.60879E+03
 -2.38633E+03 -5.80840E+03  3.71276E+03 -6.25582E+03  4.76308E+03 -3.13386E+03  4.46002E+03  9.87473E+02
  2.39416E+03  2.38470E+03  1.31419E+03  1.63859E+03 -1.40604E+02  2.08824E+03  2.07570E+03 -3.82766E+02
  1.86677E+03 -1.37042E+03  3.98159E+03  3.09473E+03  2.07682E+03  7.28269E+03 -1.53234E+03  8.83622E+03
 -7.23457E+03  6.26972E+03 -8.20124E+03  2.33644E+03 -6.86536E+03 -4.70502E+03 -3.03813E+03 -3.88979E+03
  1.96578E+02 -4.35657E+03  1.82677E+03 -3.00213E+03  2.43161E+03  2.83687E+03 -1.23173E+03  3.12662E+03
 -5.94575E+03  2.10610E+03 -5.48841E+03 -4.32260E+03 -3.62220E+03 -6.87634E+03  4.88592E+02 -5.78204E+03
  3.69510E+03 -4.56756E+03  4.50299E+03 -1.04476E+03  3.66657E+03  1.79726E+03  2.28663E+02  3.28976E+03
 -3.16680E+03  1.48470E+03 -1.65463E+03 -2.77595E+03  2.27805E+03 -5.71647E+03  4.85925E+03 -4.95274E+03
  8.61041E+03  1.19219E+03  6.85099E+03  5.73858E+03  1.78760E+03  7.49177E+03 -3.65157E+03  8.15109E+03
 -7.43802E+03  2.61972E+03 -7.08958E+03 -2.44321E+02 -4.03680E+03 -5.45031E+03  1.34354E+03 -5.49850E+03
  4.95827E+03 -2.44328E+03  3.90871E+03  3.15608E+03  1.76714E+03  3.36469E+03 -3.04929E+02  4.52223E+03
 -3.37430E+03  2.82892E+03 -2.80642E+03  1.47568E+03 -2.87135E+02  7.91357E+02 -2.71701E+03  2.21909E+03
 -2.38177E+03  3.52904E+03 -5.86964E+03  2.61240E+03 -9.52173E+03 -4.75008E+01 -8.75907E+03 -6.11419E+03
 -4.91455E+03 -9.88651E+03  1.38529E+03 -1.10965E+04  7.24616E+03 -1.03589E+04  1.20787E+04 -3.02700E+03
  1.02654E+04  3.87744E+03  6.92456E+03  7.43182E+03 -3.01334E+02  8.63527E+03 -2.22094E+03  6.27630E+03
 -4.49044E+03  2.92680E+03 -3.13672E+03  3.00667E+00 -1.51037E+03  9.42239E+01 -1.92353E+03  5.66465E+02
 -2.46041E+03  7.41743E+02 -2.18097E+03  8.66705E+02 -5.67830E+02 -1.13751E+03 -1.37759E+02 -3.52870E+03
  5.61145E+03 -1.90221E+03  3.80850E+03  3.59136E+02  5.10947E+03  3.53038E+03  1.15155E+03  6.86294E+03
 -4.51034E+03  9.97504E+03 -8.95870E+03  5.23918E+03 -9.98717E+03 -1.01850E+03 -7.16200E+03 -5.85473E+03
 -2.99415E+03 -8.41265E+03  3.00715E+03 -6.87704E+03  8.18900E+03 -4.19334E+03  5.32023E+03  1.09764E+03
  3.40146E+03  2.55890E+03  3.58299E+02  1.56162E+03 -3.25545E+02 -8.16949E+02 -7.91310E+02 -2.68868E+03
  1.60521E+03 -5.93200E+02  1.99645E+03  1.43254E+03  1.38287E+03  4.45931E+03  2.00205E+02  4.68527E+03
 -2.68800E+03  2.90700E+03 -6.46028E+03  1.60257E+03 -5.44795E+03 -4.51798E+03 -7.20404E+02 -6.10839E+03
  5.34580E+03 -5.15365E+03  5.49260E+03 -1.02115E+03  6.25407E+03  2.56397E+03  2.98786E+03  5.82764E+03
  1.32155E+03  4.83251E+03 -1.42625E+03  5.44591E+03 -4.04927E+03  3.35076E+03 -2.11827E+03  9.41125E+02
 -1.58665E+03 -1.50204E+03 -1.23520E+03  8.63548E+02 -2.23845E+03  4.41886E+02 -4.46285E+03 -1.91112E+03
 -3.90676E+03 -2.86085E+03 -2.84424E+03 -5.09383E+03  2.96139E+03 -6.56667E+03  4.80409E+03 -1.73227E+03
  5.22169E+03  1.09048E+03  2.29910E+03  4.53361E+03 -4.90383E+02  4.94086E+03 -3.93073E+03  3.40815E+03
