 $NMID ID='MM_0lb_SNR200_16hz_g45_56.RAW', FMTDAT='(8E13.5)'
 TRAMP=1., VOLUME=1. $END
  3.09936E+05  4.56688E+02  3.37184E+05  2.50118E+05  8.40703E+04  3.37816E+05 -1.32616E+05  2.50649E+05
 -1.89665E+05  8.34242E+04 -1.11078E+05 -3.27763E+04  1.42146E+03 -5.00444E+04  5.41011E+04 -7.42961E+02
  3.48001E+04  5.27670E+04 -1.70296E+04  7.51776E+04 -6.05421E+04  6.26265E+04 -8.40702E+04  3.17202E+04
 -7.99440E+04 -1.00688E+04 -5.69272E+04 -5.06569E+04 -1.57347E+04 -6.83147E+04  2.68553E+04 -4.57598E+04
  3.90493E+04  3.91195E+03  1.54489E+04  4.77676E+04 -3.38463E+04  4.71457E+04 -6.56553E+04 -1.00514E+03
 -5.24736E+04 -5.59773E+04 -6.83159E+03 -7.69452E+04  3.25694E+04 -5.39772E+04  4.68449E+04 -1.62853E+04
  4.18224E+04  1.16795E+04  3.14112E+04  2.49795E+04  1.52508E+04  2.83164E+04 -5.86684E+03  2.70466E+04
 -2.21952E+04  1.25580E+04 -1.91606E+04 -5.39910E+03  4.30516E+03 -6.67603E+03  2.27403E+04  1.17165E+04
  5.97234E+03  3.55252E+04 -3.02658E+04  3.44585E+04 -6.22958E+04  1.49303E+03 -5.68447E+04 -4.16928E+04
 -1.23100E+04 -6.19551E+04  3.90766E+04 -4.36878E+04  5.61296E+04 -1.69863E+03  3.23070E+04  3.06336E+04
 -6.15735E+03  3.46645E+04 -2.94036E+04  1.35447E+04 -2.84269E+04 -6.08661E+03 -1.54231E+04 -1.10971E+04
 -8.91362E+03 -1.26412E+04 -2.93712E+03 -1.76086E+04  7.29329E+03 -2.32702E+04  1.46311E+04 -1.31783E+04
  1.15362E+04  5.81416E+03 -6.89836E+03  1.34550E+04 -2.03434E+04 -3.20615E+03 -8.31251E+03 -3.14442E+04
  2.16592E+04 -4.33228E+04  4.62354E+04 -2.04733E+04  4.28197E+04  1.93844E+04  1.49802E+04  4.23449E+04
 -1.59784E+04  3.21002E+04 -2.41837E+04  5.89662E+02 -9.20791E+03 -2.70629E+04  2.07465E+04 -3.20141E+04
  3.84559E+04 -7.61155E+03  3.33485E+04  2.45096E+04  1.76874E+04  4.46226E+04 -7.28362E+03  4.80655E+04
 -3.00101E+04  3.21909E+04 -3.97453E+04  8.47999E+03 -4.06756E+04 -1.56214E+04 -2.14383E+04 -3.68362E+04
  7.60332E+03 -3.57289E+04  3.08303E+04 -1.42363E+04  2.82166E+04  1.08941E+04  4.08204E+03  1.67510E+04
 -1.21161E+04  8.48209E+03 -1.01849E+04 -8.25162E+03  7.46783E+03 -9.61953E+03  1.73814E+04  6.05186E+03
  1.21681E+04  2.06278E+04 -5.15945E+03  2.31353E+04 -2.26579E+04  1.06521E+04 -2.63069E+04 -6.61380E+03
 -1.70167E+04 -1.71574E+04 -7.77230E+03 -1.82652E+04  3.53670E+03 -1.62649E+04  1.35140E+04 -1.74549E+04
  2.20963E+04 -1.24419E+04  2.99801E+04  4.17685E+02  2.23331E+04  1.78368E+04  3.80438E+03  3.51752E+04
 -1.74536E+04  2.87654E+04 -2.66276E+04  1.07506E+04 -1.97273E+04 -1.08327E+04 -4.69212E+03 -1.44573E+04
  2.68790E+03 -3.90002E+03 -4.63098E+03  6.10198E+03 -1.43773E+04  5.04180E+03 -1.41692E+04 -5.39193E+03
 -8.56221E+03 -1.69966E+04  4.71225E+03 -2.13252E+04  1.32271E+04 -1.58782E+04  1.64355E+04 -2.56290E+03
  9.77768E+03  1.18255E+04 -2.04168E+02  1.76039E+04 -1.22664E+04  9.29810E+03 -1.74974E+04 -4.28267E+03
 -1.38976E+04 -1.50569E+04 -9.28401E+02 -2.09406E+04  9.41424E+03 -1.71257E+04  1.67121E+04 -6.64409E+03
  1.61025E+04  6.62542E+02  1.12131E+04  4.58374E+03  6.34262E+03  3.72330E+02  8.94814E+03 -1.88584E+03
  1.54288E+04  2.31893E+03  1.62635E+04  1.33676E+04  1.11424E+04  2.80799E+04 -3.27502E+03  2.97722E+04
 -1.74557E+04  2.38044E+04 -2.83912E+04  1.16194E+04 -2.87680E+04 -2.30051E+03 -2.47156E+04 -1.73454E+04
 -1.15340E+04 -2.20930E+04  7.48481E+03 -2.14416E+04  1.89144E+04 -1.14468E+04  1.77703E+04  5.88612E+03
  7.54224E+03  1.28550E+04 -7.28560E+03  1.14740E+04 -1.47201E+04  3.89897E+03 -1.07815E+04 -9.01053E+03
 -1.86478E+02 -1.43545E+04  6.48953E+03 -1.09786E+04  8.48995E+03 -1.19022E+03  1.34250E+03  5.64295E+03
 -6.22563E+03  1.82622E+03 -5.34968E+03 -4.84120E+03  8.62066E+02 -1.09214E+04  9.26816E+03 -1.26870E+04
  1.31563E+04 -7.58448E+03  1.46571E+04  2.45106E+03  1.39714E+04  1.06615E+04  6.85901E+03  1.71891E+04
 -2.32454E+03  1.94213E+04 -1.19758E+04  1.18304E+04 -1.29797E+04  2.85363E+03 -9.94501E+03 -2.81358E+03
 -5.12045E+03 -3.65057E+03 -1.28890E+03  5.73991E+01 -2.73216E+03  3.37905E+03 -5.10584E+03  3.77192E+03
 -9.62824E+03 -1.30088E+03 -9.00176E+03 -7.86978E+03 -4.05382E+03 -1.23884E+04  4.36181E+03 -9.88724E+03
  7.89038E+03 -4.16714E+03  6.70768E+03  1.56932E+03 -1.38738E+02  2.77629E+03 -3.92705E+03 -2.95395E+02
 -4.53349E+03 -6.96786E+03 -1.10408E+03 -8.89787E+03  4.71424E+03 -9.75296E+03  1.15125E+04 -4.84057E+03
  1.36978E+04  5.30698E+02  1.00100E+04  8.25258E+03  1.47874E+03  1.05364E+04 -6.27023E+03  8.88053E+03
 -8.61654E+03  1.34612E+03 -3.80032E+03 -1.71057E+03  1.37576E+03 -2.56966E+03  5.36971E+03 -8.03271E+02
  6.12033E+03  2.96512E+03  9.87579E+02  7.19251E+03 -5.03633E+03  6.88813E+03 -9.03879E+03  2.36058E+03
 -5.57264E+03 -4.71869E+03  8.36447E+02 -7.92004E+03  4.53566E+03 -3.85831E+03  5.46265E+03  1.00913E+03
  6.59436E+02  4.83929E+03 -5.55586E+03  5.49002E+03 -6.75723E+03  2.99060E+03 -6.59915E+03 -1.50870E+03
 -3.31147E+03 -7.76303E+03  2.26459E+03 -8.75719E+03  7.97752E+03 -5.38131E+03  8.37072E+03 -2.08068E+02
  5.77947E+03  6.77655E+03 -1.66896E+03  8.51188E+03 -6.59457E+03  5.17204E+03 -6.11111E+03 -2.63804E+02
 -7.22768E+03 -6.85405E+03 -3.83044E+02 -7.36476E+03  3.38362E+03 -4.86185E+03  3.22945E+03 -2.21577E+03
  3.20980E+03 -5.32494E+02 -2.01308E+01  1.86801E+03  1.54608E+03 -2.17001E+02  6.16057E+02 -1.89728E+03
  4.89963E+03 -1.46926E+03  8.65141E+03  3.31982E+02  6.99800E+03  4.25226E+03  6.10515E+03  1.06143E+04
 -1.78249E+03  1.11982E+04 -9.31079E+03  7.91141E+03 -1.15129E+04  1.54840E+03 -1.00616E+04 -3.54572E+03
 -4.61322E+03 -8.64536E+03  2.04318E+02 -7.49320E+03  2.54952E+03 -3.35198E+03  3.34724E+03 -2.74892E+03
  1.48740E+03 -1.90113E+03  1.73686E+03 -3.74648E+03  4.40689E+03 -2.15908E+03  5.35849E+03 -9.07874E+02
  5.90594E+03  1.58790E+03  1.50611E+03  5.61734E+03 -1.27707E+03  4.73879E+03 -5.51928E+03  3.62157E+03
 -7.22392E+03 -1.45526E+03 -4.01896E+03 -4.88718E+03 -1.49107E+02 -5.58482E+03  3.67411E+03 -7.49176E+03
  7.96382E+03 -3.34439E+03  9.32538E+03  1.34945E+03  5.35814E+03  5.70921E+03  1.94009E+03  7.94099E+03
 -3.14494E+03  6.05355E+03 -4.77323E+03  3.14733E+03 -3.80870E+03 -1.92394E+02 -1.21647E+03 -9.59382E+02
  2.36295E+02 -1.87169E+02 -1.50339E+03  4.17305E+02 -3.53707E+03  9.75215E+02 -4.47391E+03 -1.15134E+03
 -2.57145E+03 -4.60076E+03  1.76792E+03 -6.90600E+03  3.51278E+03 -5.21662E+03  5.43591E+03 -2.80378E+03
  5.85714E+03  3.97184E+03  2.26867E+03  5.24397E+03 -2.63517E+03  6.01635E+03 -3.22174E+03  4.18210E+03
 -5.25897E+03 -1.94888E+01 -4.14002E+03 -4.19722E+03  9.86073E+01 -4.08962E+03  1.98065E+03 -2.81988E+03
  3.95095E+03 -4.28068E+02  2.36009E+03 -1.01417E+01  8.74072E+02  2.53953E+03  1.90038E+03  1.14285E+03
  2.00082E+03  7.14334E+02  2.14712E+03  1.89536E+03  1.91097E+03  2.94692E+03  2.25245E+03  2.95002E+03
 -1.31587E+03  4.29714E+03 -3.53783E+03  5.36587E+03 -5.02825E+03  2.34476E+03 -6.58990E+03 -1.13051E+03
 -2.77433E+03 -5.75327E+03  1.45907E+03 -6.25850E+03  2.92175E+03 -3.21641E+03  4.85877E+03 -1.24498E+03
  4.27251E+03  2.93607E+03 -8.68940E+01  3.69421E+03 -1.16995E+03  2.37477E+03 -1.26608E+03  7.83156E+01
 -1.08253E+03 -1.71157E+03  2.58642E+03 -3.29875E+03  2.08444E+03 -2.51108E+03  2.19800E+03  6.33200E+02
  9.45099E+02  6.64295E+02  1.32256E+03  1.22849E+02  8.04636E+01 -1.75147E+02  1.25056E+03 -6.49271E+02
 -2.49607E+02 -1.40607E+03  1.37147E+03  1.21690E+03  1.00015E+03  2.38739E+03  7.22573E+01  4.54400E+03
 -1.74320E+03  1.99412E+03 -2.99694E+03  6.12557E+02 -3.68648E+03 -1.75335E+03 -2.54369E+02 -2.01464E+03
  3.46176E+02 -1.22980E+03  1.76123E+03 -1.58759E+03  5.33009E+02  2.32608E+03 -1.47376E+03  7.20581E+02
 -1.17745E+03  1.40498E+03 -1.64955E+03 -1.83211E+03 -4.97303E+02 -2.14460E+03 -8.49262E+02 -2.67183E+03
  1.35182E+02 -1.39739E+03  1.81199E+03  5.92404E+02  1.36749E+03 -1.76379E+02  3.49326E+02  1.83310E+03
 -4.09272E+02 -1.23696E+02 -2.14773E+03 -9.65318E+02  3.31778E+02 -1.62221E+03  3.37596E+03 -1.31721E+03
  3.40348E+03 -1.72128E+02  4.66682E+03  1.65851E+03  1.00464E+03  2.76019E+03 -5.87106E+02  2.89339E+03
 -2.45574E+03  2.04866E+02 -1.94107E+03  7.62204E+02 -1.61112E+03 -2.65100E+03  7.52091E+02 -9.97454E+02
  2.52583E+03 -1.40430E+03  2.25519E+03  1.31948E+03 -2.80801E+01  1.56263E+03 -2.08026E+02  1.02814E+03
 -6.76664E+02  1.50013E+03 -1.66423E+03  4.06817E+02 -1.05994E+02  2.13268E+02 -6.70206E+01  1.26900E+03
 -2.06938E+03  1.09171E+03 -1.57309E+03  1.16891E+03 -3.31984E+03  1.71909E+03 -3.26249E+03 -2.51279E+03
 -1.25282E+03 -4.19072E+03  5.67656E+02 -5.24582E+03  2.53364E+03 -3.64936E+03  4.53476E+03 -1.53309E+03
  4.21304E+03 -4.32161E+02  1.63543E+03  2.50228E+03 -7.46068E+02  2.48423E+03 -1.02471E+03  2.39986E+03
 -1.64471E+03  8.05176E+02 -1.96156E+03 -6.27658E+02  1.13855E+02 -3.77435E+02  1.94508E+02  6.92616E+02
 -5.89310E+02  2.02029E+02 -3.24001E+02 -1.05208E+03 -3.17278E+02 -4.37615E+02 -6.08263E+02 -6.37284E+02
  1.17853E+03  4.31735E+02  6.67374E+02 -2.13125E+02  2.40056E+03  1.15820E+03 -8.78416E+01  2.76148E+03
 -1.23170E+03  3.67206E+03 -2.81587E+03  1.49770E+03 -2.47860E+03 -7.86367E+01 -2.09158E+03 -2.35777E+03
  4.15302E+02 -1.13223E+03  9.06172E+02 -1.98443E+03  1.05285E+03 -1.37388E+03  1.91822E+03 -7.22914E+02
  6.25294E+02  1.50517E+03 -2.95310E+02 -1.27259E+02 -8.51714E+02 -1.39705E+02 -3.65097E+02  4.68340E+02
  8.09329E+02  1.20213E+02  1.11168E+03  2.47900E+02  2.79014E+02  7.45494E+02  8.30437E+01  6.25606E+02
 -1.67567E+03  1.67905E+03 -2.13187E+03  9.52018E+02 -1.97239E+03 -1.37446E+03 -2.48305E+02 -3.02890E+03
  1.28650E+03 -8.16534E+02  1.34236E+03  6.44940E+02  1.53918E+03 -7.39309E+02  1.72357E+03  1.77974E+03
  1.86713E+03  1.23764E+03 -4.82080E+02  9.93445E+02 -1.85805E+03 -3.44903E+02 -1.18481E+03  2.17234E+02
 -3.05185E+02  3.33503E+02 -3.01149E+02  7.84329E+02 -9.29746E+02  1.05568E+02 -1.45094E+03 -4.22234E+02
 -4.03095E+02  6.48363E+02  1.39821E+02 -1.49304E+03  1.45667E+03 -2.24823E+03  1.02052E+03 -9.55167E+02
  2.30142E+02 -4.47579E+02 -3.49997E+02 -5.88928E+01 -5.81903E+02  8.23220E+02 -2.94849E+02  9.95702E+02
