 $NMID ID='MM_0lb_SNR200_12hz_g60_25.RAW', FMTDAT='(8E13.5)'
 TRAMP=1., VOLUME=1. $END
  3.11196E+05  3.22436E+02  3.39300E+05  2.51395E+05  8.42608E+04  3.38104E+05 -1.32646E+05  2.51927E+05
 -1.91417E+05  8.24078E+04 -1.13207E+05 -3.31831E+04 -2.77680E+01 -5.06454E+04  5.49585E+04 -4.89814E+02
  3.54496E+04  5.25135E+04 -1.64934E+04  7.59947E+04 -6.10366E+04  6.35827E+04 -8.49542E+04  3.11486E+04
 -8.06121E+04 -1.23360E+04 -5.66973E+04 -5.14082E+04 -1.59628E+04 -7.05878E+04  2.92898E+04 -4.59598E+04
  4.06422E+04  4.58513E+03  1.58544E+04  5.02088E+04 -3.47156E+04  4.66045E+04 -6.77357E+04  5.91162E+01
 -5.49537E+04 -5.76193E+04 -8.19379E+03 -7.76507E+04  3.42044E+04 -5.62569E+04  4.91904E+04 -1.86184E+04
  4.63276E+04  1.20377E+04  3.15295E+04  2.62963E+04  1.73768E+04  2.90780E+04 -5.19050E+03  2.63795E+04
 -2.21996E+04  1.16796E+04 -1.77753E+04 -5.42449E+03  5.79295E+03 -7.10006E+03  2.49064E+04  1.23483E+04
  7.24070E+03  3.80123E+04 -3.28828E+04  3.60513E+04 -6.44692E+04  1.46975E+03 -5.76432E+04 -4.27356E+04
 -1.29650E+04 -6.59661E+04  4.16991E+04 -4.87212E+04  6.06117E+04 -2.60654E+03  3.54068E+04  3.24105E+04
 -6.62987E+03  3.88342E+04 -3.17417E+04  1.82117E+04 -3.32708E+04 -3.90982E+03 -1.82198E+04 -1.09467E+04
 -8.84349E+03 -1.31479E+04 -1.02428E+03 -2.02331E+04  7.11790E+03 -2.39583E+04  1.46488E+04 -1.24767E+04
  1.05280E+04  5.89877E+03 -1.01475E+04  1.41962E+04 -2.26835E+04 -5.13205E+03 -9.21832E+03 -3.49555E+04
  2.51137E+04 -4.57630E+04  5.12511E+04 -2.09304E+04  4.68239E+04  2.06302E+04  1.70915E+04  4.67981E+04
 -1.60232E+04  3.60866E+04 -2.70470E+04  3.04639E+03 -1.21523E+04 -2.95352E+04  2.08401E+04 -3.59005E+04
  4.42265E+04 -1.06858E+04  3.87466E+04  2.30884E+04  2.09651E+04  4.94862E+04 -7.97746E+03  5.54087E+04
 -3.34588E+04  3.68318E+04 -4.55282E+04  1.15998E+04 -4.67166E+04 -1.78922E+04 -2.54565E+04 -4.19025E+04
  8.08965E+03 -4.06418E+04  3.34858E+04 -1.59946E+04  2.99726E+04  1.09535E+04  4.78206E+03  2.12578E+04
 -1.35575E+04  8.52647E+03 -9.28096E+03 -6.84724E+03  6.19216E+03 -1.10500E+04  1.88410E+04  6.37493E+03
  1.52685E+04  2.16964E+04 -5.59733E+03  2.81670E+04 -2.27214E+04  1.45839E+04 -3.11767E+04 -3.12548E+03
 -2.41834E+04 -1.84883E+04 -1.17007E+04 -2.35502E+04  4.75526E+03 -2.29273E+04  1.92618E+04 -2.09205E+04
  3.13412E+04 -1.48215E+04  3.59323E+04  3.87799E+03  2.50323E+04  2.32421E+04  5.49854E+03  4.08855E+04
 -1.85363E+04  3.15648E+04 -2.86717E+04  1.11563E+04 -2.14495E+04 -1.06232E+04 -4.99374E+03 -1.25237E+04
  1.37257E+03 -1.60745E+03 -7.59705E+03  8.79589E+03 -1.80268E+04  5.45039E+03 -1.96002E+04 -7.16792E+03
 -1.08904E+04 -2.15863E+04  6.82433E+03 -2.71475E+04  1.77962E+04 -1.84432E+04  1.97034E+04 -1.21248E+03
  1.33180E+04  1.51069E+04 -1.38178E+03  2.22230E+04 -1.62073E+04  1.26649E+04 -2.22965E+04 -4.65235E+03
 -1.52164E+04 -1.96633E+04 -7.85988E+02 -2.60132E+04  1.24621E+04 -2.21534E+04  1.99266E+04 -1.08428E+04
  1.84035E+04 -8.22369E+02  1.50652E+04  6.02129E+03  7.03204E+03  1.45627E+03  1.18888E+04 -4.10450E+03
  1.96201E+04  2.98922E+03  2.34797E+04  1.70685E+04  1.50088E+04  3.48188E+04 -3.58957E+03  4.10703E+04
 -2.30496E+04  3.27197E+04 -3.78534E+04  1.59786E+04 -4.02685E+04 -2.82158E+03 -3.36052E+04 -2.25659E+04
 -1.46127E+04 -3.35080E+04  1.30047E+04 -2.83368E+04  2.47779E+04 -1.37704E+04  2.15424E+04  6.57044E+03
  8.02344E+03  1.86263E+04 -9.95460E+03  1.51189E+04 -1.72221E+04  5.28410E+02 -1.38087E+04 -1.18701E+04
  7.51897E+02 -1.71883E+04  8.16304E+03 -1.30084E+04  1.32085E+04 -1.15522E+03  3.75497E+03  8.56656E+03
 -7.30753E+03  2.88233E+03 -9.11641E+03 -5.09762E+03 -1.51634E+03 -1.51706E+04  1.06226E+04 -1.89195E+04
  1.98260E+04 -9.97104E+03  2.22586E+04  3.01173E+03  2.07028E+04  1.56219E+04  8.37361E+03  2.61265E+04
 -4.68898E+03  2.81819E+04 -1.87248E+04  1.57195E+04 -2.03036E+04  3.93085E+03 -1.30800E+04 -5.05637E+03
 -6.87462E+03 -5.01973E+03 -1.83905E+03  1.98677E+02 -3.90098E+03  3.49249E+03 -6.33621E+03  5.06583E+03
 -1.28064E+04  4.11462E+01 -1.40756E+04 -1.09801E+04 -5.40877E+03 -1.72806E+04  5.57360E+03 -1.42016E+04
  1.16717E+04 -4.87096E+03  8.13470E+03  3.33965E+03  1.39064E+03  5.01886E+03 -6.30205E+03 -2.26502E+03
 -6.01712E+03 -9.15931E+03 -1.44030E+03 -1.34207E+04  8.38376E+03 -1.34102E+04  1.78564E+04 -7.08892E+03
  2.07634E+04  3.51098E+03  1.43775E+04  1.05802E+04  2.26941E+03  1.51154E+04 -7.76336E+03  1.43948E+04
 -9.00967E+03  2.64826E+03 -6.54984E+03 -2.97307E+03  2.87264E+03 -4.61179E+03  7.83454E+03 -7.84246E+02
  6.31745E+03  5.99303E+03  2.34058E+03  1.05844E+04 -7.94160E+03  9.08599E+03 -1.32937E+04  2.02480E+03
 -1.10500E+04 -6.08648E+03  5.02428E+02 -1.09908E+04  8.27918E+03 -5.85633E+03  7.25914E+03  3.00913E+03
  1.81096E+03  7.06539E+03 -7.37271E+03  9.54751E+03 -9.85995E+03  4.52424E+03 -1.09600E+04 -4.25812E+03
 -7.06656E+03 -1.35839E+04  3.41985E+03 -1.46528E+04  1.14250E+04 -9.41266E+03  1.32210E+04  1.29437E+03
  8.03634E+03  9.99345E+03 -2.37255E+03  1.27837E+04 -9.74246E+03  7.33581E+03 -1.13497E+04 -2.73516E+03
 -9.09760E+03 -8.53731E+03 -2.72003E+03 -1.02096E+04  4.23583E+03 -7.64643E+03  5.22280E+03 -2.82938E+03
  5.64636E+03  1.63599E+03 -4.51348E+02  2.55757E+03 -1.63210E+02 -2.52546E+03  1.17880E+03 -6.77776E+03
  8.66944E+03 -3.13407E+03  1.37798E+04  2.49549E+03  1.28077E+04  9.31464E+03  8.70910E+03  1.76028E+04
 -3.72665E+03  1.82979E+04 -1.43474E+04  1.54683E+04 -2.10869E+04  2.10929E+03 -1.84637E+04 -8.03569E+03
 -8.44962E+03 -1.40911E+04 -1.03309E+03 -1.17393E+04  4.92710E+03 -6.32052E+03  3.44840E+03 -3.35855E+03
  4.28639E+03 -2.49489E+03  3.18438E+03 -3.05633E+03  3.87330E+03 -3.50001E+03  7.52782E+03 -1.09722E+03
  7.94088E+03  2.07285E+03  4.51229E+03  8.65054E+03 -1.29753E+03  6.55372E+03 -9.32513E+03  7.60218E+03
 -1.22559E+04 -1.51463E+03 -6.12073E+03 -9.28764E+03 -1.56060E+02 -1.23074E+04  5.55910E+03 -1.24469E+04
  1.31290E+04 -6.65658E+03  1.38840E+04  2.13655E+03  1.10499E+04  9.70986E+03  1.29752E+03  1.28014E+04
 -6.28734E+03  1.09717E+04 -7.26163E+03  5.11965E+03 -5.27839E+03 -1.52831E+03 -2.38152E+03 -2.86814E+03
 -3.19215E+02  6.51000E+02 -1.98707E+03  3.73466E+03 -4.80866E+03  1.39799E+03 -7.57521E+03 -2.04341E+02
 -4.91648E+03 -8.75976E+03 -1.87602E+02 -1.01496E+04  5.74372E+03 -1.02999E+04  1.06469E+04 -3.32151E+03
  1.16582E+04  5.37384E+03  4.78903E+03  9.93880E+03 -2.00211E+03  1.17511E+04 -8.44628E+03  7.17950E+03
 -1.13332E+04 -1.37204E+02 -9.56722E+03 -6.47107E+03 -4.73845E+02 -9.46134E+03  4.54793E+03 -7.49054E+03
  5.94355E+03 -3.56918E+03  4.71430E+03  2.09241E+03  2.30961E+03  2.49444E+03  1.65975E+03  2.11509E+03
  1.09811E+03 -5.15325E+02  2.95617E+03  2.06924E+03  3.17342E+03  4.79309E+03  3.00707E+03  5.68757E+03
 -2.52068E+03  7.16029E+03 -7.59140E+03  8.77958E+03 -1.18494E+04  3.13115E+03 -1.17036E+04 -6.13328E+03
 -4.32932E+03 -1.20075E+04  1.96457E+03 -1.23336E+04  7.32665E+03 -8.27913E+03  8.98122E+03 -3.40223E+03
  6.97077E+03  4.93676E+03  1.78539E+03  7.05709E+03 -3.58527E+03  3.91612E+03 -4.54582E+03 -3.95945E+02
 -1.97070E+03 -5.77261E+03  2.06420E+03 -4.91814E+03  4.19181E+03 -2.14085E+03  3.79184E+03  1.11936E+03
  3.04532E+03  2.78379E+03  8.32149E+02  8.30509E+02 -2.31176E+03  2.73963E+03  1.91851E+03  3.26173E+02
  9.93744E+02 -8.52288E+02  3.89225E+03  1.33934E+03  1.44725E+03  6.12845E+03  2.20776E+02  8.41365E+03
 -5.14560E+03  5.71086E+03 -6.88009E+03  1.40797E+03 -5.94676E+03 -1.50524E+03 -3.76351E+03 -3.90757E+03
  1.89685E+03 -3.57061E+03  1.84469E+03 -9.38798E+02  8.83168E+02  2.13784E+03 -7.87414E+02  3.30493E+03
 -4.07021E+03  3.13761E+03 -5.00062E+03 -3.50070E+03 -3.15560E+03 -6.04450E+03  5.46296E+01 -6.53321E+03
  3.56511E+03 -2.43791E+03  4.66318E+03  2.00294E+02  1.93203E+03  1.28789E+03  6.61597E+02  4.21137E+03
 -1.40447E+03  1.94435E+03 -2.33682E+03 -1.17973E+03 -1.21558E+02 -4.56782E+03  4.18403E+03 -3.60484E+03
  5.18345E+03 -3.44061E+02  7.01804E+03  4.92316E+03  2.41899E+03  6.61099E+03 -2.77543E+03  6.11930E+03
 -5.19100E+03  3.19856E+03 -4.05424E+03 -1.77781E+02 -2.02915E+03 -4.85924E+03  6.72175E+02 -3.72581E+03
  4.10691E+03 -1.44474E+03  4.36028E+03  2.17705E+03  1.14887E+03  2.14732E+03 -5.45552E+02  2.40027E+03
 -1.96199E+03  1.40136E+03 -9.61620E+02  1.13483E+03 -8.76425E+02  4.58699E+02 -1.03961E+03  1.91505E+03
 -1.65842E+03  2.52925E+03 -5.13866E+03  2.59163E+03 -6.39030E+03 -8.01491E+00 -7.12548E+03 -3.68739E+03
 -2.56537E+03 -7.60439E+03  1.64166E+03 -1.00666E+04  4.73351E+03 -8.26116E+03  9.31878E+03 -4.10241E+03
  7.92456E+03  1.48143E+03  5.39674E+03  6.64795E+03 -6.74149E+02  7.83495E+03 -3.64029E+03  5.16666E+03
 -4.61806E+03  2.61377E+03 -2.15298E+03 -7.42322E+02 -8.65186E+02  3.10357E+02 -7.70674E+02  1.17373E+03
 -1.63137E+03  8.70432E+01 -2.99667E+03 -1.01331E+03  3.17823E+02 -2.33884E+03 -7.05651E+02 -1.27438E+03
  3.32685E+03 -2.21446E+03  2.98615E+03 -5.80358E+02  4.60409E+03  4.07739E+03  1.81155E+03  7.42577E+03
 -3.79545E+03  9.24888E+03 -7.50638E+03  2.78724E+03 -6.85560E+03 -5.84188E+02 -5.05640E+03 -5.60764E+03
 -3.01374E+03 -6.91902E+03  1.20954E+03 -6.70943E+03  3.18119E+03 -4.03319E+03  5.25321E+03  8.87941E+02
  2.48805E+03  2.13023E+03 -4.94522E+02  2.80531E+03 -1.43608E+03 -5.22287E+02  1.74701E+03 -1.48132E+03
  1.61901E+03 -3.04671E+03  3.51600E+03  8.50957E+02  6.01265E+02  2.49061E+03 -8.78348E+02  2.58544E+03
 -2.96646E+03  1.57372E+03 -4.40214E+03  1.75599E+03 -3.57671E+03 -2.18622E+03 -3.38772E+02 -4.41004E+03
  2.68653E+03 -2.99402E+03  5.09441E+03 -1.04743E+03  4.81417E+03  2.89474E+02  2.39588E+03  3.18203E+03
  1.38003E+03  3.70535E+03 -2.08048E+03  3.28545E+03 -1.77220E+03  1.49775E+03 -2.42741E+03 -1.69888E+02
 -9.83687E+02 -7.92302E+02 -1.49812E+03  1.10591E+03 -1.63724E+03  3.42463E+02 -3.81999E+03 -1.23604E+03
 -3.21746E+03 -2.46301E+03 -5.22605E+02 -3.67129E+03 -8.30330E+01 -5.51970E+03  3.32969E+03 -2.66290E+03
  4.12227E+03  7.50250E+02  2.39481E+03  2.92523E+03 -8.26830E+02  3.04714E+03 -2.68978E+03  1.56130E+03
