 $NMID ID='MM_0lb_SNR200_14hz_g50_63.RAW', FMTDAT='(8E13.5)'
 TRAMP=1., VOLUME=1. $END
  3.10000E+05  3.62159E+02  3.36947E+05  2.50217E+05  8.53830E+04  3.38772E+05 -1.33631E+05  2.51546E+05
 -1.89762E+05  8.34988E+04 -1.10913E+05 -3.22331E+04 -2.23315E+02 -5.02759E+04  5.42691E+04  2.06533E+02
  3.59017E+04  5.29474E+04 -1.76279E+04  7.47374E+04 -6.13628E+04  6.38944E+04 -8.30944E+04  3.21690E+04
 -8.08139E+04 -9.86432E+03 -5.70408E+04 -5.17530E+04 -1.52842E+04 -6.82594E+04  2.65478E+04 -4.69371E+04
  3.97911E+04  4.01552E+03  1.67543E+04  4.67087E+04 -3.37055E+04  4.72738E+04 -6.73734E+04 -1.86025E+03
 -5.29866E+04 -5.67084E+04 -6.31399E+03 -7.66462E+04  3.41989E+04 -5.62651E+04  4.74295E+04 -1.66801E+04
  4.41959E+04  1.07767E+04  3.28707E+04  2.42894E+04  1.68277E+04  3.03414E+04 -5.56429E+03  2.65154E+04
 -2.27478E+04  1.14713E+04 -1.74167E+04 -4.26295E+03  5.10136E+03 -7.35692E+03  2.18861E+04  1.21373E+04
  6.66497E+03  3.49211E+04 -3.17075E+04  3.53071E+04 -6.42487E+04  3.30946E+03 -5.80669E+04 -4.26890E+04
 -1.37117E+04 -6.37941E+04  3.91186E+04 -4.57418E+04  5.79006E+04 -3.58662E+03  3.25788E+04  3.21935E+04
 -5.51550E+03  3.62503E+04 -3.07554E+04  1.60183E+04 -3.10988E+04 -4.33016E+03 -1.61443E+04 -9.74171E+03
 -7.61133E+03 -1.28568E+04 -1.51747E+03 -1.87392E+04  6.83428E+03 -2.26574E+04  1.55039E+04 -1.29445E+04
  1.19517E+04  5.42915E+03 -7.64121E+03  1.35476E+04 -2.13366E+04 -4.40655E+03 -7.37544E+03 -3.33473E+04
  2.35321E+04 -4.34379E+04  4.76162E+04 -1.88950E+04  4.51498E+04  1.97618E+04  1.68204E+04  4.41066E+04
 -1.72832E+04  3.38375E+04 -2.49475E+04  2.05342E+03 -1.04262E+04 -2.64558E+04  1.92500E+04 -3.40977E+04
  4.10404E+04 -9.31916E+03  3.52530E+04  2.20760E+04  1.84898E+04  4.71735E+04 -9.27394E+03  5.16869E+04
 -3.09085E+04  3.36003E+04 -4.18377E+04  9.56762E+03 -4.34931E+04 -1.58926E+04 -2.41697E+04 -3.77956E+04
  7.03752E+03 -3.68898E+04  3.24534E+04 -1.48311E+04  2.96489E+04  1.08626E+04  4.60625E+03  1.85548E+04
 -1.29657E+04  8.91319E+03 -9.57928E+03 -7.27140E+03  6.03855E+03 -9.55969E+03  1.84328E+04  6.54414E+03
  1.25754E+04  2.24788E+04 -6.53874E+03  2.50579E+04 -2.28955E+04  1.20117E+04 -2.87097E+04 -4.38341E+03
 -2.08733E+04 -1.76564E+04 -7.86073E+03 -2.10993E+04  3.43860E+03 -2.05135E+04  1.42152E+04 -1.72491E+04
  2.56916E+04 -1.24621E+04  3.40767E+04  1.50964E+03  2.31362E+04  1.93437E+04  3.98850E+03  3.67246E+04
 -1.74396E+04  3.06642E+04 -2.93605E+04  1.05699E+04 -2.10341E+04 -1.01147E+04 -3.94542E+03 -1.37933E+04
  1.52100E+03 -2.76347E+03 -4.69181E+03  7.28253E+03 -1.66463E+04  4.90742E+03 -1.79329E+04 -6.75664E+03
 -1.02893E+04 -1.91005E+04  4.60838E+03 -2.25534E+04  1.50519E+04 -1.69252E+04  1.85433E+04 -2.00289E+03
  1.23236E+04  1.40569E+04 -1.87894E+03  1.98034E+04 -1.32999E+04  1.17128E+04 -1.96597E+04 -4.16117E+03
 -1.24324E+04 -1.78470E+04 -5.50145E+02 -2.30243E+04  1.13709E+04 -1.81519E+04  1.94684E+04 -9.74966E+03
  1.82571E+04 -1.45669E+02  1.39649E+04  3.05858E+03  6.08647E+03  1.57130E+03  1.00290E+04 -7.63539E+02
  1.77727E+04  3.37812E+03  1.99047E+04  1.58735E+04  1.32222E+04  3.08399E+04 -1.74346E+03  3.46286E+04
 -1.92684E+04  2.69166E+04 -3.21656E+04  1.33545E+04 -3.38780E+04 -2.00354E+03 -2.88001E+04 -1.79490E+04
 -1.19712E+04 -2.85320E+04  8.01061E+03 -2.52701E+04  2.06871E+04 -1.29816E+04  1.99389E+04  6.36803E+03
  7.14033E+03  1.42628E+04 -9.44967E+03  1.25247E+04 -1.71387E+04  2.89847E+03 -1.04692E+04 -8.82255E+03
  6.92749E+02 -1.62745E+04  7.76453E+03 -1.15684E+04  1.08668E+04 -7.70888E+02  2.19151E+03  6.00963E+03
 -7.75896E+03  2.89974E+03 -5.85247E+03 -5.60158E+03 -6.39681E+02 -1.23463E+04  9.86158E+03 -1.39595E+04
  1.73119E+04 -7.31209E+03  1.88426E+04  3.02638E+03  1.52947E+04  1.29682E+04  6.78115E+03  1.93073E+04
 -2.64560E+03  2.22397E+04 -1.35459E+04  1.30737E+04 -1.62418E+04  1.56879E+03 -1.03552E+04 -4.14080E+03
 -5.44230E+03 -5.13506E+03 -1.85745E+03  1.70199E+03 -1.44001E+03  2.69334E+03 -6.56858E+03  5.09930E+03
 -9.77292E+03 -1.35584E+03 -1.09118E+04 -9.23183E+03 -5.24339E+03 -1.58180E+04  4.75413E+03 -1.14197E+04
  9.07783E+03 -3.87741E+03  6.50017E+03  2.58077E+03  9.61771E+02  4.79538E+03 -4.78328E+03 -1.75273E+03
 -5.61732E+03 -6.96122E+03 -4.49393E+01 -1.02310E+04  6.36623E+03 -1.19082E+04  1.42258E+04 -5.54677E+03
  1.69350E+04  1.61368E+03  1.25162E+04  9.59284E+03  2.67758E+03  1.27550E+04 -5.82961E+03  1.12672E+04
 -9.21821E+03  3.69268E+03 -5.35951E+03 -1.66879E+03  1.65997E+03 -3.02559E+03  6.03712E+03 -4.57370E+02
  6.66715E+03  4.58893E+03  9.83559E+02  8.80725E+03 -5.84370E+03  8.93056E+03 -1.08260E+04  2.54808E+03
 -6.60858E+03 -5.31356E+03  1.02945E+03 -8.73343E+03  5.56395E+03 -4.59557E+03  6.02602E+03  1.06037E+03
  1.40664E+03  5.59254E+03 -5.26798E+03  7.97942E+03 -8.57215E+03  2.89145E+03 -7.71886E+03 -2.39633E+03
 -5.48037E+03 -9.85602E+03  1.92720E+03 -1.21637E+04  9.07837E+03 -6.95849E+03  1.09256E+04  1.38584E+03
  7.27290E+03  9.87295E+03 -4.54779E+02  9.96080E+03 -8.06757E+03  7.07292E+03 -9.08912E+03 -8.30101E+02
 -7.69108E+03 -8.39760E+03 -2.16511E+03 -8.93556E+03  3.40297E+03 -5.97751E+03  4.59582E+03 -4.00178E+03
  3.84040E+03  1.20132E+03 -5.41129E+02  1.69786E+03  6.48668E+02 -1.66555E+03  1.04616E+03 -3.71915E+03
  7.00283E+03 -2.23626E+03  7.89347E+03  2.01785E+03  8.60040E+03  5.22945E+03  7.61883E+03  1.19699E+04
 -2.50081E+03  1.37675E+04 -1.31376E+04  1.07829E+04 -1.59074E+04  1.71787E+03 -1.36976E+04 -4.43959E+03
 -6.65658E+03 -9.13567E+03  5.54977E+02 -9.69133E+03  3.80385E+03 -3.62433E+03  3.83854E+03 -2.36835E+03
  1.94669E+03 -5.38814E+02  2.44096E+03 -2.38186E+03  4.25505E+03 -2.80819E+03  4.04644E+03  3.93683E+01
  5.54598E+03  1.60573E+03  1.85476E+03  5.84214E+03 -1.36906E+03  6.72956E+03 -6.55661E+03  4.96561E+03
 -9.64434E+03 -1.12188E+02 -5.61619E+03 -5.27332E+03 -6.71579E+02 -8.50769E+03  5.54807E+03 -1.02605E+04
  8.75949E+03 -5.20107E+03  1.12412E+04  7.89525E+02  8.11917E+03  8.20601E+03  1.28001E+03  9.75494E+03
 -5.61198E+03  9.87239E+03 -6.17568E+03  4.39203E+03 -3.73349E+03 -2.16935E+03 -1.73421E+03 -1.42563E+03
 -1.38339E+03  7.23550E+02 -1.87156E+03  2.95959E+03 -3.32245E+03  1.31348E+03 -5.84629E+03  5.12889E+02
 -3.42037E+03 -6.22987E+03  2.85944E+02 -9.26674E+03  5.15412E+03 -7.50160E+03  7.99384E+03 -3.66190E+03
  8.11654E+03  4.74949E+03  4.34217E+03  5.69415E+03 -1.57283E+03  7.26406E+03 -5.84283E+03  3.79307E+03
 -7.58138E+03  5.60943E+02 -6.18740E+03 -5.13277E+03 -8.28891E+02 -6.21942E+03  4.47887E+03 -4.71397E+03
  4.02158E+03 -2.28639E+03  2.89612E+03  1.03244E+03  9.91995E+02  3.10025E+03  9.59957E+02  6.29321E+01
  2.99766E+03  1.80209E+03  2.68131E+03  4.22442E+02  2.44047E+03  2.45003E+03  1.70939E+03  3.01138E+03
 -1.81191E+03  5.94943E+03 -5.53597E+03  6.33755E+03 -7.05859E+03  2.42768E+03 -8.54802E+03 -3.20845E+03
 -3.49226E+03 -6.59745E+03  1.74056E+03 -1.04930E+04  3.77858E+03 -5.62128E+03  6.25540E+03 -1.77690E+03
  4.57330E+03  3.26557E+03  9.67047E+02  4.36689E+03 -1.85170E+03  2.60041E+03 -3.26342E+03 -1.96333E+02
 -1.11049E+03 -2.27859E+03  2.45211E+03 -3.44855E+03  2.07237E+03 -1.25701E+03  2.52760E+03 -7.66151E+01
  2.78864E+03  1.56856E+03  1.03216E+03 -1.22615E+02 -1.51907E+03  2.33726E+03  1.05801E+03  8.55693E+02
  1.29038E+03 -1.62629E+03  2.33182E+03  2.76586E+03  1.44823E+03  4.31938E+03 -1.14706E+03  5.05458E+03
 -4.33055E+03  3.57066E+03 -4.84296E+03  1.98182E+03 -4.81292E+03 -1.80635E+03 -3.92920E+02 -4.02225E+03
  1.00167E+03 -3.15859E+03  2.59901E+03 -1.00177E+03  8.11582E+02  1.39442E+03  1.05704E+02  1.99438E+03
 -1.98004E+03  8.05388E+02 -2.22555E+03 -2.27883E+03 -2.48261E+03 -3.57041E+03 -6.42632E+02 -4.41643E+03
  2.45178E+03 -2.80283E+03  3.59554E+03  2.74024E+02  2.37111E+03  9.63830E+02  6.91916E+02  2.83284E+03
 -1.68125E+03  1.31099E+03 -1.51546E+03 -1.69421E+03  9.38204E+02 -2.38820E+03  4.43426E+03 -3.14838E+03
  2.90091E+03  1.37957E+03  3.79433E+03  1.92383E+03  9.93966E+02  3.82438E+03 -1.89904E+03  2.80526E+03
 -1.83066E+03  1.90506E+03 -3.65784E+03 -1.38169E+02 -1.46102E+03 -2.43222E+03 -5.87006E+02 -2.59116E+03
  3.35129E+03 -1.11989E+03  1.52239E+03  1.74633E+03  7.94139E+02  3.53313E+03 -3.74116E+02  1.97658E+03
  3.06370E+01  1.36737E+03 -1.22641E+02  7.34485E+02 -1.88583E+02  1.00936E+03  3.01503E+02  8.77202E+02
 -1.03541E+03  3.20933E+03 -2.99763E+03  5.02710E+02 -3.58801E+03  2.15419E+02 -4.35542E+03 -2.76193E+03
 -2.84342E+03 -4.95164E+03  1.37083E+03 -5.65148E+03  3.81717E+03 -4.82279E+03  5.10404E+03 -1.24745E+03
  5.60438E+03  7.56041E+02  3.07374E+03  4.34323E+03 -1.59823E+02  5.52996E+03 -1.87593E+03  3.19384E+03
 -2.99558E+03  1.27449E+03 -1.48019E+03 -1.72078E+03 -1.05623E+03 -7.01272E+02 -8.81236E+02 -7.04681E+02
 -9.88100E+02  3.37665E+02 -4.19195E+02 -1.23677E+02 -7.56787E+02 -2.01512E+03 -1.11108E+02 -1.01684E+03
  2.45616E+03 -1.10040E+03  2.95378E+03 -4.09575E+02  2.87782E+03  2.31490E+03 -1.50520E+02  3.88205E+03
 -1.87668E+03  5.35678E+03 -4.52871E+03  3.31107E+03 -4.95452E+03  8.64773E+02 -3.76134E+03 -1.80374E+03
 -2.05916E+03 -3.10195E+03  1.66432E+02 -3.39476E+03  2.50844E+03 -2.45286E+03  1.23786E+03  9.45481E+02
  8.48122E+02  1.32446E+03 -1.42814E+03  7.45935E+02 -9.93591E+02 -1.33111E+02  3.81650E+02 -2.39572E+02
  1.22874E+03  8.04514E+02  2.31717E-01  8.54729E+01  1.09171E+03  5.67926E+02  2.90915E+02  2.23589E+03
 -1.20798E+03  1.68525E+03 -1.80209E+03 -1.19392E+03 -2.56238E+03 -1.71482E+03  8.56902E+02 -1.57765E+03
  1.54924E+03 -1.82229E+03  3.57346E+03 -8.89085E+02  2.61430E+03  1.25965E+02  2.73999E+03  1.19787E+03
  4.95787E+02  2.26306E+03 -9.30013E+01  1.58510E+03 -8.70110E+02  1.86424E+03 -1.70205E+03  4.70010E+02
 -1.16550E+03 -3.26272E-01 -1.94142E+03  3.62682E+02 -9.73215E+02  6.68960E+02 -2.25404E+03  4.35214E+01
 -1.94497E+03  3.99924E+02 -1.02418E+03 -1.95386E+03  5.78055E+02 -2.97412E+03  2.22972E+03 -4.42528E+02
  2.53395E+03  1.78409E+03  5.00070E+02  2.51527E+03 -5.60461E+02  1.95943E+03 -1.92832E+03  1.38095E+03
