 $NMID ID='MM_0lb_SNR200_12hz_g55_24.RAW', FMTDAT='(8E13.5)'
 TRAMP=1., VOLUME=1. $END
  3.09271E+05 -7.95308E+01  3.38776E+05  2.52135E+05  8.48026E+04  3.37348E+05 -1.32891E+05  2.51957E+05
 -1.90022E+05  8.29275E+04 -1.12478E+05 -3.24804E+04  1.31329E+03 -5.12886E+04  5.29867E+04 -2.03788E+02
  3.58827E+04  5.25885E+04 -1.73264E+04  7.62025E+04 -6.08572E+04  6.35570E+04 -8.48733E+04  3.11900E+04
 -8.08635E+04 -1.22081E+04 -5.72592E+04 -5.13429E+04 -1.56969E+04 -7.09943E+04  2.68594E+04 -4.71695E+04
  4.01767E+04  1.62841E+03  1.71052E+04  4.79489E+04 -3.49187E+04  4.74237E+04 -6.91860E+04 -3.82720E+02
 -5.41810E+04 -5.64301E+04 -5.89647E+03 -7.83747E+04  3.56087E+04 -5.54755E+04  4.88785E+04 -1.78104E+04
  4.44665E+04  1.14877E+04  3.27380E+04  2.67172E+04  1.59691E+04  3.13472E+04 -6.22594E+03  2.71170E+04
 -2.35761E+04  1.22819E+04 -1.85049E+04 -5.87887E+03  6.74670E+03 -8.39466E+03  2.26763E+04  1.20629E+04
  6.50336E+03  3.75484E+04 -3.35589E+04  3.63731E+04 -6.40178E+04  1.66244E+03 -5.83079E+04 -4.34298E+04
 -1.44633E+04 -6.60560E+04  4.09103E+04 -4.68020E+04  6.05333E+04 -2.24650E+03  3.53404E+04  3.32135E+04
 -6.04478E+03  3.83227E+04 -3.21069E+04  1.74454E+04 -3.34040E+04 -3.35335E+03 -1.90992E+04 -1.15272E+04
 -9.06226E+03 -1.35873E+04 -1.58575E+03 -1.90998E+04  7.06410E+03 -2.36697E+04  1.55608E+04 -1.37946E+04
  9.98073E+03  6.08919E+03 -8.85611E+03  1.33395E+04 -2.23846E+04 -6.41860E+03 -9.54758E+03 -3.61902E+04
  2.42184E+04 -4.52189E+04  5.08310E+04 -2.15354E+04  4.74472E+04  2.01542E+04  1.52355E+04  4.63104E+04
 -1.54141E+04  3.41423E+04 -2.71315E+04  2.26095E+03 -1.13415E+04 -2.88285E+04  1.97875E+04 -3.41739E+04
  4.25499E+04 -9.14016E+03  3.86365E+04  2.47250E+04  1.97863E+04  4.85864E+04 -8.01956E+03  5.48244E+04
 -3.37538E+04  3.60545E+04 -4.37034E+04  9.50461E+03 -4.55307E+04 -1.81905E+04 -2.40456E+04 -4.03641E+04
  7.64752E+03 -3.88627E+04  3.25953E+04 -1.66945E+04  3.01048E+04  1.05970E+04  5.52196E+03  2.06966E+04
 -1.48472E+04  9.35202E+03 -1.14469E+04 -7.59583E+03  5.16449E+03 -1.12023E+04  1.96655E+04  6.13205E+03
  1.43136E+04  2.28886E+04 -4.68959E+03  2.50541E+04 -2.25852E+04  1.41321E+04 -2.97478E+04 -4.15207E+03
 -2.37730E+04 -1.74098E+04 -1.02167E+04 -2.31475E+04  3.93217E+03 -2.19829E+04  1.80378E+04 -1.96427E+04
  2.94897E+04 -1.41138E+04  3.58519E+04  3.62772E+03  2.65532E+04  2.26410E+04  3.43943E+03  4.10034E+04
 -1.93556E+04  3.26256E+04 -2.89794E+04  1.16984E+04 -2.25144E+04 -1.08397E+04 -4.43490E+03 -1.37562E+04
  1.28966E+03 -1.80330E+03 -6.22426E+03  7.99758E+03 -1.83977E+04  4.73384E+03 -1.85818E+04 -8.03916E+03
 -9.96039E+03 -2.22922E+04  5.61251E+03 -2.47716E+04  1.76103E+04 -1.69764E+04  2.07058E+04 -2.47827E+03
  1.37252E+04  1.44053E+04 -2.46566E+03  2.20185E+04 -1.50363E+04  1.23779E+04 -2.22601E+04 -4.22631E+03
 -1.55068E+04 -1.98577E+04 -1.56727E+03 -2.59158E+04  1.26949E+04 -2.11033E+04  1.99504E+04 -1.03153E+04
  2.00050E+04  1.18019E+03  1.53784E+04  5.55160E+03  6.92062E+03  2.48129E+03  1.18000E+04 -1.67803E+03
  2.01814E+04  2.93539E+03  2.22062E+04  1.69915E+04  1.54247E+04  3.45082E+04 -4.12220E+03  4.08425E+04
 -2.26927E+04  3.23317E+04 -3.72310E+04  1.61833E+04 -3.89286E+04 -1.89613E+03 -3.21651E+04 -2.06265E+04
 -1.27437E+04 -3.22899E+04  1.09733E+04 -2.87528E+04  2.55824E+04 -1.44392E+04  2.25984E+04  6.00774E+03
  7.05529E+03  1.61620E+04 -1.11476E+04  1.34668E+04 -1.79816E+04  1.96973E+03 -1.50773E+04 -1.16657E+04
 -1.43330E+03 -1.60572E+04  1.06042E+04 -1.28344E+04  1.13089E+04 -1.12597E+03  2.06474E+03  7.37985E+03
 -7.65190E+03  3.24053E+03 -7.11341E+03 -7.46313E+03 -1.86079E+03 -1.58070E+04  1.09631E+04 -1.66928E+04
  1.95299E+04 -9.90417E+03  2.18933E+04  3.45881E+03  1.69947E+04  1.52081E+04  9.22391E+03  2.45583E+04
 -3.91394E+03  2.52298E+04 -1.50394E+04  1.69996E+04 -2.02137E+04  4.40641E+03 -1.20569E+04 -4.79632E+03
 -5.07968E+03 -5.14610E+03 -1.86937E+03  4.80490E+02 -1.98759E+03  4.32851E+03 -7.38614E+03  4.28502E+03
 -1.19690E+04 -1.78411E+03 -1.29510E+04 -1.14094E+04 -4.85832E+03 -1.71841E+04  6.23615E+03 -1.36075E+04
  1.10822E+04 -5.07009E+03  7.89388E+03  3.94650E+03 -1.29938E+03  5.73038E+03 -5.28713E+03  2.10760E+03
 -6.18395E+03 -8.68455E+03 -1.32079E+03 -1.34899E+04  6.63392E+03 -1.36104E+04  1.73626E+04 -6.84543E+03
  2.03621E+04  2.77903E+03  1.41444E+04  1.22437E+04  1.60052E+03  1.48974E+04 -8.41418E+03  1.26140E+04
 -1.10102E+04  4.43982E+03 -5.61591E+03 -2.10549E+03  1.76795E+03 -5.43416E+03  6.80461E+03 -5.53304E+02
  5.42188E+03  5.61350E+03  2.17260E+03  9.72810E+03 -6.95341E+03  9.22451E+03 -1.27775E+04  3.31779E+03
 -1.02472E+04 -5.65201E+03 -8.89468E+02 -1.00410E+04  7.97012E+03 -5.27770E+03  7.98013E+03  2.29364E+03
  1.09041E+03  7.67429E+03 -6.95076E+03  9.53027E+03 -1.01064E+04  4.15967E+03 -1.09516E+04 -3.57023E+03
 -6.78279E+03 -1.25884E+04  2.08207E+03 -1.48721E+04  1.23896E+04 -8.33094E+03  1.25905E+04  6.58248E+02
  8.32183E+03  1.06381E+04 -1.50078E+03  1.30047E+04 -1.04930E+04  7.31190E+03 -9.98824E+03 -1.19822E+03
 -1.04275E+04 -8.29085E+03 -1.63386E+03 -9.62262E+03  4.01843E+03 -7.75861E+03  6.36251E+03 -4.88878E+03
  4.36281E+03  1.09397E+03 -1.11638E+03  1.08548E+03  4.37131E+02 -2.70248E+03  1.42344E+03 -5.81195E+03
  9.81747E+03 -3.13924E+03  1.23585E+04  1.52153E+03  1.18211E+04  6.51842E+03  7.29147E+03  1.65240E+04
 -3.50170E+03  1.83422E+04 -1.55396E+04  1.41201E+04 -2.00235E+04  8.49256E+02 -1.62202E+04 -7.25084E+03
 -8.98963E+03 -1.26400E+04  6.33788E+02 -9.82130E+03  3.12083E+03 -5.39163E+03  5.48454E+03 -4.42072E+03
  2.51701E+03 -1.93818E+03  3.67546E+03 -3.13989E+03  5.27616E+03 -4.06505E+03  6.50862E+03 -2.30908E+03
  8.44115E+03  5.94661E+02  3.68561E+03  7.44830E+03 -2.49287E+03  8.47603E+03 -8.00991E+03  6.66748E+03
 -1.15520E+04 -7.40053E+02 -7.20259E+03 -7.34571E+03 -1.57844E+03 -1.36957E+04  6.21043E+03 -1.19022E+04
  1.18693E+04 -6.86016E+03  1.45863E+04  1.09446E+03  1.06476E+04  1.09259E+04  2.20373E+03  1.38083E+04
 -4.90135E+03  1.10813E+04 -8.36889E+03  4.09247E+03 -5.22501E+03 -2.17816E+03 -2.46951E+03 -2.48199E+03
  8.57595E+01 -7.75400E+02 -1.33707E+03  1.66582E+03 -4.62103E+03  6.35649E+02 -8.17869E+03 -5.90513E+02
 -6.03795E+03 -8.11054E+03  1.00524E+03 -1.10359E+04  7.10691E+03 -9.78541E+03  1.02691E+04 -1.26353E+03
  1.00573E+04  4.31840E+03  4.14813E+03  1.11505E+04 -2.78258E+03  1.05118E+04 -7.88691E+03  7.97115E+03
 -1.07222E+04 -3.94181E+02 -9.12784E+03 -6.44831E+03 -1.35346E+03 -9.72521E+03  4.54125E+03 -7.38305E+03
  5.91230E+03 -2.80385E+03  4.78415E+03  1.27570E+03  1.40564E+03  4.26764E+03  2.50119E+02  1.49539E+03
  1.71489E+03 -1.86637E+02  2.53028E+03  1.95789E+03  2.87524E+03  4.49031E+03  4.42250E+03  4.82581E+03
 -2.66366E+03  7.99818E+03 -7.32821E+03  9.65390E+03 -9.42421E+03  3.20407E+03 -9.51861E+03 -2.65016E+03
 -5.42942E+03 -1.10336E+04  1.58853E+03 -1.14917E+04  5.55301E+03 -7.30166E+03  8.18827E+03 -2.49616E+03
  6.63705E+03  4.94855E+03  2.77315E+03  6.18349E+03 -9.85278E+02  5.17973E+03 -4.21955E+03 -4.79342E+02
 -2.88909E+03 -3.92399E+03  3.09216E+03 -5.35974E+03  2.49509E+03 -1.48727E+03  3.84160E+03  9.60067E+02
  1.14102E+03  3.76447E+03  2.83577E+03  5.00394E+02 -1.16055E+03  3.28491E+03  8.42024E+02  1.17271E+02
  2.14045E+03 -1.53640E+03  3.75294E+03  1.80946E+03  3.00003E+03  4.80438E+03 -1.05205E+03  9.74288E+03
 -5.48113E+03  4.93853E+03 -6.96472E+03  2.05846E+03 -5.64234E+03 -1.47951E+03 -3.32153E+03 -3.98963E+03
 -3.90513E+02 -4.42200E+03  2.33291E+03 -1.83220E+03  2.03737E+03  1.95098E+03 -2.24688E+03  3.87964E+03
 -4.98282E+03  1.78906E+03 -4.47224E+03 -2.70285E+03 -8.73328E+02 -6.06915E+03 -1.80757E+02 -5.12143E+03
  2.59719E+03 -3.41219E+03  3.73400E+03  8.10263E+01  3.30690E+03  1.05424E+03  2.18997E+03  2.87628E+03
 -2.41248E+03  2.11887E+03 -1.67897E+03 -2.41517E+03  3.97303E+02 -3.53747E+03  4.54502E+03 -3.22265E+03
  4.38425E+03  6.62505E+02  6.21845E+03  4.06647E+03  9.00532E+02  6.29896E+03 -2.94799E+03  6.42287E+03
 -7.05321E+03  2.04627E+03 -5.32688E+03 -1.64369E+03 -3.28632E+03 -3.33947E+03  1.27407E+03 -2.50698E+03
  3.94024E+03 -1.58489E+03  3.84369E+03  8.45712E+02 -2.98012E+02  3.72776E+03 -6.64468E+02  3.06353E+03
 -1.73802E+03  2.56787E+03 -2.08297E+03  4.06257E+02 -3.66974E+02  8.41314E+02 -1.91448E+03  1.41682E+03
 -1.54717E+03  2.38697E+03 -3.67740E+03  2.90950E+03 -6.73089E+03  1.07116E+02 -7.54078E+03 -3.89048E+03
 -5.56882E+03 -8.12552E+03  1.04130E+03 -9.10036E+03  6.05682E+03 -7.55390E+03  8.46258E+03 -3.36580E+03
  9.78630E+03  1.49725E+03  6.53211E+03  4.93969E+03 -9.68503E+02  8.19643E+03 -2.29847E+03  4.80541E+03
 -2.89827E+03  1.50075E+03 -1.82228E+03 -2.30524E+03 -1.39354E+03  5.85690E+02 -3.01150E+02  1.30079E+03
 -8.13721E+02  1.00391E+03 -1.51705E+03 -1.80852E+02  9.66485E+01 -5.38704E+02  2.81915E+02 -2.47911E+03
  3.44718E+03 -2.99478E+03  2.99301E+03  5.27362E+02  2.89771E+03  4.23954E+03  1.31752E+03  5.51884E+03
 -3.13687E+03  7.94256E+03 -6.15180E+03  4.29058E+03 -7.27828E+03 -1.38150E+03 -5.41799E+03 -5.07009E+03
 -1.58690E+03 -6.03246E+03  9.48192E+02 -6.55963E+03  3.08073E+03 -2.96085E+03  2.57135E+03  1.47455E+03
  1.34803E+03  2.19378E+03  1.26847E+02  2.06604E+03 -1.45718E+03 -1.17066E+03  1.31935E+03 -1.28054E+03
  1.82249E+03 -1.16277E+03  1.26925E+03  3.31611E+02  2.02546E+03  1.66051E+03 -4.67004E+02  2.81855E+03
 -2.04797E+03  1.55165E+03 -2.70749E+03  5.81286E+02 -4.27082E+03 -2.46332E+03 -1.70310E+03 -5.02188E+03
  2.94969E+03 -3.24037E+03  4.16650E+03 -1.40700E+03  5.90359E+03 -4.66582E+02  2.18773E+03  3.43153E+03
  1.57320E+03  3.06791E+03 -2.51327E+03  2.80351E+03 -2.41862E+03  2.40606E+03 -2.15105E+03  8.32283E+02
 -6.56858E+02  3.19973E+02 -1.51624E+03  1.58894E+03 -2.51533E+03  3.97498E+02 -1.90078E+03  3.07084E+02
 -3.29014E+03 -1.46951E+03 -7.55340E+02 -4.09583E+03  2.12384E+03 -4.21894E+03  4.55088E+03 -1.72040E+03
  4.48608E+03  2.76527E+02  1.78590E+03  1.05705E+03  1.45124E+01  2.23916E+03 -1.54113E+03  2.84158E+03
