 $NMID ID='MM_0lb_SNR200_14hz_g55_41.RAW', FMTDAT='(8E13.5)'
 TRAMP=1., VOLUME=1. $END
  3.10172E+05  7.05266E+01  3.37083E+05  2.50555E+05  8.35123E+04  3.37833E+05 -1.33002E+05  2.51407E+05
 -1.90578E+05  8.25009E+04 -1.12080E+05 -3.28028E+04  1.07968E+03 -5.05038E+04  5.30211E+04  1.06256E+03
  3.45069E+04  5.32195E+04 -1.65309E+04  7.63629E+04 -6.16239E+04  6.32964E+04 -8.22322E+04  3.41070E+04
 -8.13299E+04 -1.10753E+04 -5.64281E+04 -5.18773E+04 -1.50545E+04 -7.01843E+04  2.67039E+04 -4.58261E+04
  3.96682E+04  4.24202E+03  1.62647E+04  4.77286E+04 -3.40742E+04  4.71079E+04 -6.61720E+04  1.03894E+03
 -5.34264E+04 -5.66765E+04 -7.50235E+03 -7.83454E+04  3.40447E+04 -5.61796E+04  4.89042E+04 -1.82436E+04
  4.40977E+04  1.15704E+04  3.14797E+04  2.68424E+04  1.53408E+04  2.97805E+04 -5.79203E+03  2.91730E+04
 -2.23827E+04  1.33118E+04 -1.83677E+04 -5.36431E+03  5.64992E+03 -8.07756E+03  2.26413E+04  1.22042E+04
  7.20717E+03  3.54784E+04 -3.21377E+04  3.66874E+04 -6.45155E+04  2.42632E+03 -5.76187E+04 -4.39058E+04
 -1.18854E+04 -6.44366E+04  4.13999E+04 -4.62134E+04  5.77409E+04 -1.88512E+03  3.55066E+04  3.26858E+04
 -6.66425E+03  3.53503E+04 -3.05788E+04  1.47836E+04 -3.07921E+04 -3.73660E+03 -1.66017E+04 -1.14040E+04
 -7.96381E+03 -1.37827E+04 -3.99229E+02 -1.79156E+04  9.09371E+03 -2.31348E+04  1.50648E+04 -1.35825E+04
  1.07601E+04  5.49759E+03 -8.97688E+03  1.16451E+04 -2.08205E+04 -6.93858E+03 -7.99645E+03 -3.27394E+04
  2.39327E+04 -4.40428E+04  4.98790E+04 -2.04097E+04  4.60234E+04  1.97160E+04  1.64555E+04  4.41470E+04
 -1.63868E+04  3.34960E+04 -2.50144E+04  1.91659E+03 -9.75798E+03 -2.88957E+04  2.04020E+04 -3.51219E+04
  4.10398E+04 -8.89269E+03  3.69491E+04  2.37314E+04  1.84123E+04  4.67524E+04 -7.90826E+03  5.20673E+04
 -3.21136E+04  3.52389E+04 -4.19189E+04  1.02500E+04 -4.54114E+04 -1.79087E+04 -2.37177E+04 -3.98337E+04
  7.29692E+03 -3.95824E+04  3.25443E+04 -1.53772E+04  2.98382E+04  9.36665E+03  3.72387E+03  1.94107E+04
 -1.34739E+04  7.43680E+03 -1.22336E+04 -8.08271E+03  5.82443E+03 -1.20340E+04  1.79412E+04  6.84237E+03
  1.27829E+04  2.26597E+04 -6.19613E+03  2.55775E+04 -2.25144E+04  1.23474E+04 -2.95350E+04 -4.58630E+03
 -2.08266E+04 -1.89476E+04 -9.06411E+03 -2.09081E+04  3.75879E+03 -2.17944E+04  1.69320E+04 -1.84341E+04
  2.74177E+04 -1.28843E+04  3.44033E+04  3.19160E+03  2.32488E+04  2.05722E+04  3.35218E+03  3.65836E+04
 -1.85142E+04  3.10804E+04 -2.85222E+04  1.07586E+04 -2.02878E+04 -1.07420E+04 -4.54312E+03 -1.38907E+04
 -2.41127E+02 -2.99091E+03 -4.97876E+03  5.91731E+03 -1.66296E+04  4.67001E+03 -1.62136E+04 -6.49961E+03
 -1.03831E+04 -1.89748E+04  4.48107E+03 -2.31639E+04  1.56298E+04 -1.57178E+04  1.97989E+04 -1.71611E+03
  1.15772E+04  1.25356E+04 -1.19055E+02  1.81765E+04 -1.33050E+04  1.09087E+04 -2.00147E+04 -3.92117E+03
 -1.28979E+04 -1.63356E+04 -1.98478E+03 -2.31224E+04  1.05599E+04 -2.02945E+04  1.85315E+04 -1.02689E+04
  1.78680E+04 -6.51451E+02  1.26202E+04  4.81554E+03  7.20511E+03  1.23524E+03  9.58145E+03 -1.17753E+03
  1.73283E+04  3.38689E+03  2.18734E+04  1.59196E+04  1.37517E+04  3.18280E+04 -3.97870E+03  3.62544E+04
 -2.06302E+04  2.87494E+04 -3.30087E+04  1.44742E+04 -3.50169E+04 -2.77563E+03 -2.81009E+04 -1.97343E+04
 -1.20723E+04 -3.00165E+04  1.05301E+04 -2.53278E+04  2.20160E+04 -1.28998E+04  1.96095E+04  5.54312E+03
  7.72512E+03  1.49966E+04 -1.05069E+04  1.31052E+04 -1.54415E+04  3.33965E+03 -1.24598E+04 -1.04120E+04
 -1.02294E+03 -1.65932E+04  9.61723E+03 -1.25128E+04  1.13697E+04 -1.03319E+03  3.16015E+03  6.32372E+03
 -7.04220E+03  3.87326E+03 -6.93589E+03 -5.55809E+03 -1.14574E+03 -1.46385E+04  8.92597E+03 -1.44369E+04
  1.74264E+04 -7.65762E+03  1.91603E+04  2.55709E+03  1.68534E+04  1.21544E+04  7.74129E+03  2.05185E+04
 -3.72058E+03  2.33809E+04 -1.55089E+04  1.54388E+04 -1.65435E+04  2.26682E+03 -1.11870E+04 -4.21532E+03
 -6.36353E+03 -4.34659E+03 -1.22799E+03  1.12092E+03 -1.23274E+03  1.88290E+03 -3.79037E+03  4.22065E+03
 -1.01802E+04 -2.32468E+03 -1.23041E+04 -8.57147E+03 -5.70757E+03 -1.50670E+04  4.49130E+03 -1.11056E+04
  1.02116E+04 -5.26620E+03  7.52818E+03  3.83957E+03  5.18189E+02  3.12606E+03 -5.07894E+03 -3.34492E+02
 -5.36733E+03 -6.94876E+03 -4.58601E+02 -1.21720E+04  5.99352E+03 -1.23202E+04  1.39746E+04 -6.12330E+03
  1.69655E+04  8.99718E+02  1.39262E+04  1.04893E+04  2.34056E+03  1.38322E+04 -7.52111E+03  1.12358E+04
 -9.75339E+03  4.24786E+03 -5.01798E+03 -2.93197E+03  2.33845E+03 -3.35615E+03  6.22962E+03 -2.84443E+02
  6.60308E+03  5.01806E+03 -1.02207E+03  9.04558E+03 -6.66461E+03  7.66341E+03 -1.15083E+04  2.18481E+03
 -6.35910E+03 -5.38306E+03  9.83243E+02 -1.01843E+04  5.68421E+03 -5.16062E+03  6.04910E+03  1.48977E+03
 -1.09549E+02  7.45003E+03 -6.60286E+03  8.75379E+03 -8.18225E+03  2.81862E+03 -9.53546E+03 -2.83797E+03
 -4.95509E+03 -1.10814E+04  3.02944E+03 -1.14654E+04  9.93843E+03 -8.13204E+03  1.07803E+04  3.09632E+03
  6.78720E+03  9.04304E+03 -1.51223E+03  1.08832E+04 -8.28497E+03  6.57159E+03 -8.22513E+03 -4.75694E+02
 -7.90752E+03 -5.53856E+03 -1.54360E+03 -8.18008E+03  4.07159E+03 -8.10192E+03  4.86149E+03 -2.56756E+03
  2.69236E+03  1.89415E+03  1.59941E+02  8.74641E+01  3.36254E+02 -1.75069E+03  1.60197E+03 -4.70937E+03
  6.71057E+03 -2.87935E+03  9.11648E+03  2.07304E+03  9.14651E+03  6.46768E+03  7.46206E+03  1.28198E+04
 -3.88776E+03  1.35715E+04 -1.26095E+04  1.15217E+04 -1.59511E+04  1.70448E+03 -1.24553E+04 -5.57470E+03
 -5.96545E+03 -1.18610E+04 -6.57200E+02 -9.75781E+03  2.53293E+03 -4.07735E+03  3.51954E+03 -4.26721E+03
  1.08550E+03 -2.18287E+03  2.67537E+03 -2.41266E+03  4.50714E+03 -1.44040E+03  5.59525E+03  7.19252E+02
  7.18039E+03  2.67537E+03  2.26732E+03  5.74141E+03 -2.73856E+03  5.57841E+03 -7.03887E+03  5.44339E+03
 -8.48661E+03 -1.39199E+03 -5.04112E+03 -6.18120E+03  3.42976E+01 -1.01601E+04  5.32609E+03 -1.02308E+04
  1.05444E+04 -5.67846E+03  1.26668E+04  1.01042E+01  7.59902E+03  7.50943E+03  1.97688E+03  1.05843E+04
 -3.89038E+03  8.36611E+03 -5.60964E+03  3.01987E+03 -4.48200E+03 -1.23662E+03 -2.35097E+03 -7.84784E+02
 -7.29382E+02  5.33478E+02 -7.01541E+02  2.01759E+03 -4.62786E+03  1.67095E+03 -5.95366E+03 -2.33878E+03
 -4.15970E+03 -6.28821E+03 -1.89600E+02 -8.39164E+03  6.03960E+03 -8.13925E+03  7.81637E+03 -2.29157E+03
  7.77935E+03  4.84032E+03  3.50602E+03  7.12150E+03 -4.70668E+02  9.02598E+03 -6.37818E+03  4.04134E+03
 -7.58755E+03  3.36954E+02 -5.99117E+03 -5.59898E+03 -3.61348E+02 -7.40363E+03  4.44280E+03 -6.07869E+03
  5.37501E+03 -2.03251E+03  4.38752E+03  1.60175E+03  9.01054E+02  3.20704E+03  1.34390E+03  1.44608E+03
  2.74115E+03  3.61789E+02  1.28488E+03  9.72475E+02  2.51548E+03  2.88298E+03  3.75077E+03  4.56772E+03
 -3.17530E+03  4.97159E+03 -5.97252E+03  6.44694E+03 -8.21764E+03  2.71354E+03 -6.95853E+03 -3.36213E+03
 -3.75432E+03 -8.64470E+03  1.03598E+03 -8.63885E+03  4.57403E+03 -6.19318E+03  5.24923E+03 -1.37026E+03
  3.74207E+03  2.06120E+03  2.72955E+02  4.22059E+03 -1.63564E+03  2.65657E+03 -3.28989E+03 -6.54111E+02
 -8.39032E+02 -4.34779E+03  2.22727E+03 -4.12065E+03  2.74430E+03 -3.01051E+03  3.42891E+03  8.66051E+02
  2.34564E+03  1.31721E+03  7.40434E+02  1.73379E+03 -1.13631E+03  2.22137E+03  3.12750E+03 -3.40507E+01
  1.07354E+03 -1.43790E+03  2.49040E+03  1.50571E+03  5.21737E+02  4.15581E+03 -2.25939E+02  5.77781E+03
 -3.04167E+03  2.27680E+03 -5.00633E+03  4.79363E+02 -4.84526E+03 -2.29345E+03 -1.18844E+03 -3.57857E+03
 -1.04947E+02 -1.97380E+03  3.00999E+03 -7.94555E+02  2.15679E+03  2.48304E+03 -7.01333E+02  3.09854E+03
 -2.44469E+03  7.44371E+02 -5.25121E+03 -2.37055E+03 -5.13971E+02 -4.84494E+03  4.49797E+02 -2.09348E+03
  2.71064E+03 -2.09977E+03  2.66899E+03  4.13857E+02  2.90093E+03  5.89073E+02 -3.39124E+02  1.79332E+03
 -1.12256E+03  5.44215E+02 -1.86257E+03 -2.02312E+03  7.48609E+01 -4.39064E+03  3.12062E+03 -1.86567E+03
  4.74523E+03  5.47455E+02  5.05715E+03  2.61818E+03  1.43224E+03  4.86500E+03 -7.95605E+02  4.04907E+03
 -2.74957E+03  1.73133E+03 -3.60742E+03 -3.13286E+01 -2.34720E+03 -4.03795E+03  4.78059E+02 -1.89868E+03
  1.13479E+03 -1.61761E+03  3.23268E+03 -1.31868E+02  1.63875E+03  1.27046E+03 -4.62790E+02  2.93874E+03
 -4.47235E+01  8.91950E+02  8.20759E+01  1.42330E+03 -4.95684E+02 -3.70262E+02 -8.31879E+02  1.27352E+03
 -2.01678E+03  2.28649E+03 -2.97195E+03  1.52800E+02 -4.70592E+03 -3.67110E+02 -5.89443E+03 -2.65199E+03
 -2.69759E+03 -6.35216E+03  1.79460E+03 -7.05145E+03  4.04020E+03 -4.28439E+03  4.86675E+03 -3.07297E+03
  6.34105E+03  1.04665E+03  4.21101E+03  3.83205E+03  3.48770E+02  3.58359E+03 -1.23847E+03  3.42709E+03
 -1.82081E+03  1.86664E+03 -1.95724E+03  2.22587E+02 -5.46469E+02  1.37891E+01  6.68989E+02  9.09123E+02
 -1.79910E+03  2.27626E+02 -6.87885E+02 -8.14954E+02 -9.22270E+02 -1.90739E+03  2.41580E+02 -2.17936E+03
  3.09553E+03 -3.05801E+03  2.11899E+03  2.45835E+01  2.54627E+03  3.07842E+03  4.80836E+02  5.32145E+03
 -2.55893E+03  6.09092E+03 -3.78527E+03  2.94138E+03 -4.38159E+03  1.54000E+02 -3.91215E+03 -2.11620E+03
 -1.64733E+03 -2.73974E+03  1.02282E+03 -2.92886E+03  1.70050E+03 -2.69651E+03  3.21290E+03  2.70930E+01
  2.56363E+03  1.00590E+03  4.89556E+02  1.19355E+03 -4.91378E+02  2.24343E+02 -3.08149E+02 -1.05815E+03
  8.48742E+02 -7.51480E+02  6.25792E+02  3.52655E+02  2.56194E+03  4.16538E+02  9.87042E+01  1.84490E+03
 -1.52401E+03  1.45209E+03 -2.87481E+03  8.04255E+02 -2.72251E+03 -9.28261E+02  7.38213E+02 -2.70805E+03
  2.45510E+03 -2.92122E+03  1.71946E+03 -1.56134E+03  2.86054E+03 -8.66675E+02  4.73590E+01  1.54592E+03
 -4.72692E+02  2.48288E+03 -1.75344E+03  1.83844E+03 -1.41776E+03  2.24158E+03 -1.93307E+03  2.06754E+01
  4.51925E+02 -7.70761E+02 -4.22802E+02 -4.58130E+02 -9.60646E+02  5.90822E+02 -9.64975E+02  2.90095E+01
 -2.19148E+03 -1.38762E+02 -7.23790E+02 -1.69464E+03  1.14681E+03 -3.22068E+03  1.85725E+03 -2.65475E+03
  3.71653E+03 -1.14771E+03  1.03426E+03  1.20900E+03  6.44588E+02  2.67035E+03 -1.72949E+03  1.33574E+03
