 $NMID ID='MM_0lb_SNR200_11hz_g40_90.RAW', FMTDAT='(8E13.5)'
 TRAMP=1., VOLUME=1. $END
  3.11321E+05 -2.92468E+02  3.37957E+05  2.51332E+05  8.43992E+04  3.37292E+05 -1.33376E+05  2.52806E+05
 -1.90982E+05  8.44479E+04 -1.11886E+05 -3.23456E+04 -1.06550E+02 -5.08816E+04  5.36141E+04 -1.13067E+03
  3.61835E+04  5.29561E+04 -1.73774E+04  7.58124E+04 -6.10106E+04  6.32237E+04 -8.57560E+04  3.33850E+04
 -8.24138E+04 -1.10673E+04 -5.74770E+04 -5.09075E+04 -1.55998E+04 -6.92905E+04  2.76651E+04 -4.67890E+04
  3.98120E+04  2.96170E+03  1.60416E+04  4.76511E+04 -3.47250E+04  4.74073E+04 -6.77916E+04 -2.42931E+02
 -5.32495E+04 -5.77900E+04 -6.45697E+03 -7.69004E+04  3.34459E+04 -5.59041E+04  4.96601E+04 -1.74334E+04
  4.25039E+04  1.05163E+04  3.25754E+04  2.61406E+04  1.57303E+04  3.01220E+04 -6.61356E+03  2.72560E+04
 -2.24117E+04  1.10798E+04 -1.76301E+04 -4.94924E+03  5.01619E+03 -8.21897E+03  2.27169E+04  1.25810E+04
  6.05730E+03  3.57946E+04 -3.29241E+04  3.68618E+04 -6.52316E+04  2.27349E+03 -5.71672E+04 -4.39418E+04
 -1.19133E+04 -6.53234E+04  4.01245E+04 -4.57864E+04  5.97135E+04 -1.70819E+03  3.45450E+04  3.25667E+04
 -6.81287E+03  3.75380E+04 -3.06758E+04  1.65879E+04 -2.94228E+04 -4.49834E+03 -1.85519E+04 -1.13885E+04
 -8.64274E+03 -1.38300E+04  6.87658E+02 -1.93763E+04  6.91874E+03 -2.23209E+04  1.56215E+04 -1.18486E+04
  1.05933E+04  5.40100E+03 -9.78929E+03  1.30489E+04 -2.11436E+04 -3.11141E+03 -7.73368E+03 -3.53987E+04
  2.35688E+04 -4.35161E+04  5.00809E+04 -2.08901E+04  4.63307E+04  2.00260E+04  1.67793E+04  4.55478E+04
 -1.61437E+04  3.43413E+04 -2.78769E+04  1.84198E+03 -1.13134E+04 -2.94804E+04  2.16494E+04 -3.53488E+04
  4.21568E+04 -8.72355E+03  3.67365E+04  2.43234E+04  1.99380E+04  4.92552E+04 -8.51595E+03  5.15366E+04
 -3.17800E+04  3.51934E+04 -4.34147E+04  1.05907E+04 -4.43500E+04 -1.71288E+04 -2.41456E+04 -3.94522E+04
  6.99924E+03 -3.95520E+04  3.16793E+04 -1.61255E+04  3.05831E+04  1.14771E+04  5.57829E+03  1.95580E+04
 -1.40333E+04  8.67809E+03 -1.06475E+04 -7.11148E+03  6.27615E+03 -1.14723E+04  1.84866E+04  6.21118E+03
  1.33267E+04  2.23150E+04 -7.05805E+03  2.39493E+04 -2.41784E+04  1.26122E+04 -2.83088E+04 -4.49063E+03
 -2.29221E+04 -1.74674E+04 -9.18042E+03 -2.29916E+04  3.66540E+03 -2.33995E+04  1.75852E+04 -2.05536E+04
  2.85695E+04 -1.36127E+04  3.49260E+04  3.46529E+03  2.43281E+04  2.13679E+04  4.36480E+03  3.78452E+04
 -1.83878E+04  3.17166E+04 -3.03280E+04  9.50568E+03 -2.20891E+04 -1.00367E+04 -3.39727E+03 -1.31689E+04
  2.23926E+03 -2.23011E+03 -6.88694E+03  7.38370E+03 -1.81919E+04  6.07792E+03 -1.91124E+04 -7.05288E+03
 -1.00123E+04 -2.03399E+04  4.73611E+03 -2.58038E+04  1.65516E+04 -1.99573E+04  2.07164E+04  3.80673E+02
  1.28506E+04  1.35232E+04 -2.18798E+03  2.12524E+04 -1.45229E+04  1.02759E+04 -2.07434E+04 -4.94077E+03
 -1.60800E+04 -1.81774E+04 -1.69435E+03 -2.59816E+04  1.01890E+04 -2.20019E+04  1.95221E+04 -1.19054E+04
  2.04856E+04  7.92814E+02  1.40477E+04  5.55280E+03  8.24937E+03  8.43676E+01  1.12280E+04 -1.96538E+03
  2.01004E+04  3.71534E+03  2.30956E+04  1.58295E+04  1.42478E+04  3.43981E+04 -2.43701E+03  3.97745E+04
 -2.26206E+04  3.17182E+04 -3.54814E+04  1.57797E+04 -3.85592E+04 -2.14884E+03 -3.05369E+04 -2.24750E+04
 -1.29493E+04 -3.17115E+04  1.08571E+04 -3.00643E+04  2.29812E+04 -1.36839E+04  2.24849E+04  6.46403E+03
  7.03723E+03  1.65357E+04 -9.25577E+03  1.40557E+04 -1.65320E+04  2.01184E+03 -1.40098E+04 -1.15674E+04
 -4.79679E+02 -1.61753E+04  9.04517E+03 -1.31997E+04  1.14350E+04 -2.71472E+03  2.69153E+03  7.65562E+03
 -8.16797E+03  3.62184E+03 -7.93370E+03 -6.74678E+03 -1.37538E+03 -1.43947E+04  1.04057E+04 -1.63766E+04
  1.85723E+04 -9.93464E+03  2.13550E+04  3.70596E+03  1.91752E+04  1.48647E+04  8.98630E+03  2.39317E+04
 -3.81675E+03  2.53239E+04 -1.78390E+04  1.52158E+04 -1.84082E+04  4.68609E+03 -1.25264E+04 -4.74043E+03
 -5.59123E+03 -5.07432E+03 -1.11013E+03 -1.73104E+02 -4.06098E+03  2.90725E+03 -6.01792E+03  5.31632E+03
 -1.25203E+04 -1.56032E+03 -1.18447E+04 -9.60886E+03 -4.83803E+03 -1.56045E+04  5.36282E+03 -1.31344E+04
  1.01078E+04 -4.94545E+03  9.54226E+03  3.36432E+03  8.65890E+02  4.69467E+03 -6.70505E+03  1.64343E+02
 -7.46595E+03 -9.07372E+03 -1.73034E+03 -1.25991E+04  7.35605E+03 -1.46796E+04  1.67693E+04 -6.68828E+03
  1.98442E+04  2.51864E+03  1.48045E+04  1.17466E+04  2.92714E+03  1.55669E+04 -8.51891E+03  1.41369E+04
 -9.54012E+03  4.55432E+03 -6.89404E+03 -2.32541E+03  2.46183E+03 -3.65944E+03  7.74243E+03 -1.13126E+03
  5.93864E+03  5.64804E+03  1.46704E+03  1.11628E+04 -6.81847E+03  1.08590E+04 -1.47128E+04  2.28223E+03
 -9.57919E+03 -6.00063E+03 -1.10128E+03 -1.10046E+04  7.62156E+03 -5.41953E+03  7.05085E+03  3.02632E+03
  1.63425E+03  8.03221E+03 -5.91664E+03  9.57410E+03 -1.15539E+04  4.67892E+03 -9.73897E+03 -5.13994E+03
 -7.80964E+03 -1.21065E+04  4.50933E+03 -1.50622E+04  1.18890E+04 -7.95177E+03  1.31512E+04  2.89863E+03
  7.44216E+03  9.16936E+03 -6.42297E+02  1.25855E+04 -8.95630E+03  7.23774E+03 -1.09776E+04 -7.54049E+02
 -9.36646E+03 -9.23685E+03 -1.58967E+03 -1.01346E+04  4.32523E+03 -7.35547E+03  6.20989E+03 -2.63808E+03
  3.94345E+03  1.63633E+03 -9.05732E+02  2.93737E+03  1.36877E+03 -2.34179E+03  2.62634E+03 -6.31814E+03
  8.68425E+03 -4.14774E+03  1.30667E+04  1.67591E+03  1.19366E+04  7.76781E+03  8.23200E+03  1.63227E+04
 -3.76788E+03  1.87551E+04 -1.45751E+04  1.41183E+04 -1.88246E+04  2.86221E+03 -1.35369E+04 -6.70910E+03
 -8.72991E+03 -1.43629E+04 -2.05877E+03 -1.12698E+04  5.08543E+03 -5.95850E+03  4.87016E+03 -3.69134E+03
  1.68209E+03 -1.93572E+03  3.89629E+03 -3.08795E+03  5.31344E+03 -1.78889E+03  5.43341E+03 -1.49638E+03
  9.98932E+03  1.93665E+03  3.46771E+03  7.75319E+03 -2.08812E+03  7.93688E+03 -8.88824E+03  5.59238E+03
 -1.10347E+04 -1.42012E+03 -6.71224E+03 -8.83788E+03  3.18378E+01 -1.31779E+04  7.26300E+03 -1.29959E+04
  1.16508E+04 -6.71535E+03  1.38575E+04 -2.95206E+02  9.95010E+03  1.06493E+04  1.14313E+03  1.42607E+04
 -5.14047E+03  1.16109E+04 -9.03809E+03  4.12715E+03 -4.43815E+03 -1.56914E+03 -2.41346E+03 -1.81218E+03
 -1.19152E+02 -9.91970E+01  2.56357E+02  2.30502E+03 -4.78045E+03  2.18525E+03 -7.47396E+03 -2.95294E+02
 -4.92555E+03 -7.71344E+03 -1.35638E+02 -1.18235E+04  6.28004E+03 -1.00408E+04  1.21978E+04 -2.73837E+03
  1.04248E+04  4.99520E+03  5.55402E+03  7.73890E+03 -2.76390E+03  1.08816E+04 -8.08145E+03  6.93780E+03
 -1.04671E+04  2.39634E+03 -6.92297E+03 -7.03744E+03 -8.58572E+02 -1.00332E+04  3.78004E+03 -6.38924E+03
  6.87773E+03 -2.79091E+03  4.01260E+03  1.97111E+03  5.58367E+02  3.16520E+03  2.42550E+03  1.93797E+03
  1.73984E+03  4.40154E+02  2.80067E+03  1.99899E+03  2.82281E+03  3.84310E+03  4.07528E+03  4.97387E+03
 -2.22323E+03  8.11933E+03 -6.62097E+03  8.99847E+03 -1.16752E+04  1.64711E+03 -1.19053E+04 -4.04881E+03
 -5.87888E+03 -9.40574E+03  1.33429E+03 -1.20636E+04  6.83518E+03 -8.13077E+03  8.57696E+03 -2.58441E+03
  6.21277E+03  4.72075E+03  6.77187E+02  6.24102E+03 -2.70747E+03  4.33006E+03 -4.70496E+03 -6.36450E+02
 -1.64779E+03 -4.71874E+03  2.15011E+03 -4.44205E+03  4.87028E+03 -1.91107E+03  3.85116E+03  2.59496E+02
  3.44678E+03  1.74297E+03  1.21676E+03  1.21152E+03 -1.38817E+03  9.66467E+02  1.32147E+03  7.13022E+02
  1.28657E+03  6.69036E+02  4.31384E+03  1.95420E+03  2.11113E+03  4.56717E+03 -1.72690E+03  8.61319E+03
 -5.72803E+03  5.40603E+03 -6.00690E+03 -5.96026E+02 -5.19470E+03 -2.63895E+03 -2.24210E+03 -4.27809E+03
  2.76680E+02 -3.70102E+03  2.68583E+03 -1.89006E+03  1.43972E+03  1.42102E+03 -2.58094E+02  4.26237E+03
 -3.42947E+03  2.22556E+03 -4.47653E+03 -2.24716E+03 -1.65206E+03 -5.10972E+03  3.83438E+02 -5.67073E+03
  2.99517E+03 -3.28430E+03  4.77183E+03  7.21890E+02  4.99196E+03  9.81727E+02 -2.59705E+02  3.18259E+03
 -1.09228E+03  8.79346E+02 -2.75634E+03 -1.31386E+03  2.09655E+03 -5.70976E+03  5.52792E+03 -4.45628E+03
  7.73217E+03 -6.28494E+01  7.39405E+03  4.26778E+03  1.49868E+03  6.63046E+03 -1.86244E+03  6.67850E+03
 -6.22996E+03  3.30342E+03 -5.72941E+03 -9.16955E+02 -3.31443E+03 -3.92094E+03 -5.04155E+02 -2.98820E+03
  6.13751E+03 -2.96176E+03  2.35379E+03  2.28571E+03  2.11437E+03  3.98142E+03 -4.44068E+02  3.52570E+03
 -3.00743E+02  2.46258E+03 -2.26683E+03  2.87319E+03 -2.06840E+03  2.17122E+02 -9.84242E+02 -5.23982E+02
 -2.42068E+03  2.15011E+03 -5.51443E+03  8.24830E+02 -7.17044E+03  1.12523E+03 -7.60183E+03 -3.34951E+03
 -4.45533E+03 -9.10510E+03  1.17024E+03 -9.88031E+03  6.72073E+03 -9.08023E+03  1.03097E+04 -2.00018E+03
  8.85005E+03  5.18746E+02  4.95824E+03  4.44023E+03  6.46867E+01  4.99647E+03 -3.45193E+03  6.38278E+03
 -3.99943E+03  1.92610E+03 -1.83498E+03 -8.32867E+02 -1.16003E+03 -1.62725E+03 -1.82283E+03 -1.37757E+03
 -1.81594E+03  1.54363E+03 -2.00918E+03 -2.29573E+02 -1.66026E+03 -2.71519E+03 -3.33390E+02 -2.37513E+03
  3.32750E+03 -3.05319E+03  3.13944E+03 -4.84617E+02  4.29810E+03  3.59973E+03  3.03975E+02  6.76338E+03
 -3.03669E+03  8.15844E+03 -7.77783E+03  4.68462E+03 -7.98655E+03 -9.50070E+02 -6.62029E+03 -5.97399E+03
 -3.11929E+03 -7.97382E+03  2.41147E+03 -5.52935E+03  3.17809E+03 -3.67908E+03  5.16902E+03  9.21380E+02
  1.28968E+03  3.36033E+03 -7.96473E+02  3.30252E+03 -1.24287E+03 -4.79623E+02  1.88488E+02 -1.47680E+03
  2.49149E+03 -1.37958E+02  2.07590E+03  3.74325E+02  1.84762E+03  2.55501E+03  7.78919E+02  3.00420E+03
 -2.06145E+03  2.93924E+03 -3.64047E+03  9.92711E+01 -4.04087E+03 -3.75610E+03 -9.04298E+02 -7.48791E+03
  3.83473E+03 -3.00849E+03  5.62622E+03 -1.42529E+03  5.45271E+03  3.73635E+02  3.16813E+03  2.64879E+03
  1.84615E+01  4.42572E+03 -2.00379E+03  4.18407E+03 -1.27720E+03  1.73649E+03 -1.82798E+03 -7.24446E+01
 -6.47355E+02  8.24247E+02 -1.93706E+03 -1.45529E+02 -2.69504E+03  1.09214E+03 -3.16751E+03 -1.42261E+03
 -2.61678E+03 -2.37011E+03 -4.50626E+02 -4.04673E+03  1.99180E+03 -4.36287E+03  3.36651E+03 -2.59080E+03
  2.81169E+03  3.20691E+02  2.76906E+03  2.92132E+03  5.31527E+02  5.56206E+03 -2.62902E+03  2.15015E+03
