 $NMID ID='MM_0lb_SNR200_18hz_g40_17.RAW', FMTDAT='(8E13.5)'
 TRAMP=1., VOLUME=1. $END
  3.09473E+05  6.41562E+02  3.36936E+05  2.50548E+05  8.33808E+04  3.37123E+05 -1.31677E+05  2.50220E+05
 -1.89180E+05  8.35688E+04 -1.11013E+05 -3.34522E+04  4.69864E+02 -5.09614E+04  5.36371E+04  3.95109E+02
  3.48098E+04  5.18726E+04 -1.76199E+04  7.45802E+04 -5.94837E+04  6.19969E+04 -8.15366E+04  3.10659E+04
 -7.87881E+04 -1.11313E+04 -5.54209E+04 -5.12753E+04 -1.46125E+04 -6.85805E+04  2.53708E+04 -4.52537E+04
  3.89279E+04  3.50535E+03  1.54906E+04  4.68745E+04 -3.39408E+04  4.56991E+04 -6.57928E+04 -9.07022E+02
 -5.18065E+04 -5.58805E+04 -5.08261E+03 -7.52511E+04  3.34386E+04 -5.27044E+04  4.59154E+04 -1.60635E+04
  4.08559E+04  1.04375E+04  3.11154E+04  2.38917E+04  1.57076E+04  2.80664E+04 -3.59436E+03  2.57302E+04
 -2.14945E+04  1.26752E+04 -1.99891E+04 -4.31070E+03  4.20706E+03 -8.47971E+03  2.13623E+04  1.15872E+04
  7.15658E+03  3.41105E+04 -3.09302E+04  3.32452E+04 -6.05711E+04  1.25685E+03 -5.54601E+04 -4.16091E+04
 -1.20647E+04 -6.09120E+04  3.81033E+04 -4.24825E+04  5.47962E+04 -2.51518E+03  3.11112E+04  3.05721E+04
 -6.75786E+03  3.32038E+04 -2.75409E+04  1.32792E+04 -2.75385E+04 -6.62571E+03 -1.52713E+04 -1.04513E+04
 -6.88991E+03 -1.12996E+04 -9.81697E+02 -1.55569E+04  7.26714E+03 -2.14691E+04  1.43334E+04 -1.42790E+04
  1.17870E+04  4.06124E+03 -5.45492E+03  1.27741E+04 -1.91654E+04 -1.09756E+03 -7.52678E+03 -2.97721E+04
  2.09778E+04 -3.89806E+04  4.56202E+04 -1.84191E+04  4.11024E+04  1.93101E+04  1.47103E+04  4.14994E+04
 -1.40247E+04  3.02973E+04 -2.26198E+04  1.50024E+03 -8.00320E+03 -2.53309E+04  2.19345E+04 -3.02412E+04
  3.73358E+04 -7.18149E+03  3.08773E+04  2.25873E+04  1.46563E+04  4.32669E+04 -7.41031E+03  4.46733E+04
 -2.75928E+04  2.97777E+04 -3.68030E+04  8.08846E+03 -3.87615E+04 -1.39783E+04 -1.99961E+04 -3.45904E+04
  7.95850E+03 -3.44280E+04  2.96714E+04 -1.39512E+04  2.76240E+04  9.97203E+03  3.50813E+03  1.81338E+04
 -1.21875E+04  7.01573E+03 -9.86640E+03 -7.44971E+03  6.66219E+03 -9.33568E+03  1.71303E+04  7.89088E+03
  1.23061E+04  2.17231E+04 -6.61622E+03  2.32223E+04 -2.16120E+04  9.31027E+03 -2.54595E+04 -6.71552E+03
 -1.63602E+04 -1.70841E+04 -6.33950E+03 -1.75622E+04  3.42505E+03 -1.36475E+04  1.30725E+04 -1.45368E+04
  2.08369E+04 -1.26973E+04  2.77143E+04  8.02913E+02  2.10089E+04  1.61881E+04  4.14133E+03  3.29121E+04
 -1.53943E+04  2.73084E+04 -2.57960E+04  9.00022E+03 -1.95753E+04 -1.02731E+04 -4.36659E+03 -1.42693E+04
  3.14868E+03 -4.62566E+03 -2.73546E+03  4.64666E+03 -1.29234E+04  5.42237E+03 -1.24727E+04 -4.73704E+03
 -8.63807E+03 -1.37009E+04  4.12166E+03 -1.88768E+04  1.19960E+04 -1.39868E+04  1.49470E+04 -2.83910E+03
  8.34678E+03  1.18370E+04  8.39575E+02  1.66639E+04 -9.53658E+03  8.65944E+03 -1.57791E+04 -3.46621E+03
 -1.10529E+04 -1.44712E+04 -7.33001E+02 -1.87064E+04  7.92027E+03 -1.48778E+04  1.56835E+04 -6.62423E+03
  1.37262E+04  1.05164E+03  1.06531E+04  4.56796E+03  5.25724E+03  1.34246E+03  7.48391E+03 -1.92392E+03
  1.42272E+04  3.08615E+03  1.47170E+04  1.25564E+04  1.01683E+04  2.47581E+04 -2.58340E+03  2.56692E+04
 -1.53805E+04  1.85837E+04 -2.36091E+04  9.75523E+03 -2.47037E+04 -2.94791E+03 -2.08091E+04 -1.44052E+04
 -1.03623E+04 -1.94264E+04  6.91411E+03 -1.84816E+04  1.66091E+04 -1.08430E+04  1.50116E+04  4.22854E+03
  6.33150E+03  1.08134E+04 -7.55692E+03  1.02833E+04 -1.47107E+04  3.49603E+03 -9.91828E+03 -8.18418E+03
 -4.06306E+02 -1.17477E+04  6.49912E+03 -1.04164E+04  7.77321E+03 -5.24012E+02  1.15021E+03  5.29373E+03
 -4.48106E+03  1.46818E+03 -3.41874E+03 -4.02961E+03  7.83885E+02 -9.98709E+03  8.74722E+03 -9.72845E+03
  1.16771E+04 -3.98950E+03  1.11630E+04  3.14160E+03  1.00354E+04  8.93309E+03  3.45495E+03  1.37387E+04
 -4.68349E+02  1.50932E+04 -9.76837E+03  1.04332E+04 -1.02001E+04  2.44969E+03 -7.72852E+03 -1.73328E+03
 -4.03013E+03 -3.08871E+03 -4.41756E+02  1.62068E+03 -1.66347E+03  1.98921E+03 -3.28949E+03  2.65554E+03
 -8.53351E+03 -2.27932E+02 -9.58891E+03 -7.93628E+03 -2.59182E+03 -1.13952E+04  3.77113E+03 -8.69055E+03
  7.48776E+03 -4.16968E+03  4.83003E+03  3.39809E+03  1.50092E+02  2.45001E+03 -3.14307E+03 -1.17780E+02
 -2.92508E+03 -5.71286E+03 -1.10193E+03 -5.56378E+03  3.68965E+03 -7.38191E+03  9.95010E+03 -4.07386E+03
  1.20700E+04  9.20541E+02  8.59055E+03  5.92057E+03  2.89299E+03  8.84071E+03 -5.06995E+03  8.65284E+03
 -7.53214E+03  2.60449E+03 -3.14546E+03 -1.32409E+03  9.52939E+02 -1.79182E+03  4.22070E+03 -1.30283E+03
  3.62605E+03  3.92483E+03  1.93939E+03  6.69671E+03 -4.46297E+03  7.69251E+03 -7.51681E+03  1.47978E+03
 -5.02624E+03 -2.48491E+03  1.15616E+03 -6.52611E+03  4.38637E+03 -3.21576E+03  4.13555E+03  1.65428E+03
  1.25439E+02  4.00369E+03 -3.90795E+03  4.33228E+03 -4.69708E+03  2.99629E+03 -4.72236E+03 -4.31042E+02
 -3.25665E+03 -6.15528E+03  1.47934E+03 -7.32199E+03  5.64569E+03 -5.35675E+03  5.60160E+03  3.47356E+01
  4.35302E+03  4.33332E+03  2.05976E+02  6.76806E+03 -5.85872E+03  4.35837E+03 -5.27991E+03 -4.28766E+02
 -4.11605E+03 -4.18402E+03 -1.08933E+03 -4.69575E+03  1.78824E+03 -5.01207E+03  2.72874E+03 -2.74561E+03
  2.34034E+03 -3.06255E+02 -2.42030E+02  1.49304E+03  1.79448E+03  8.43302E+02  4.91695E+02 -2.60700E+03
  3.90705E+03 -1.15814E+03  5.50245E+03  4.99445E+02  5.48255E+03  2.68644E+03  5.44538E+03  6.23644E+03
 -1.00364E+03  8.01435E+03 -8.39893E+03  6.56975E+03 -9.77790E+03  1.34872E+03 -8.51097E+03 -1.85561E+03
 -4.77145E+03 -6.76764E+03 -1.32419E+03 -3.80579E+03  1.19919E+03 -8.36188E+02  2.91295E+03 -2.78929E+03
  1.25795E+03 -7.30622E+02  2.27449E+03 -1.91525E+03  3.09532E+03 -1.27449E+03  2.76848E+03  1.00681E+03
  4.46670E+03  1.25610E+03  1.56168E+03  4.98551E+03 -1.05769E+03  2.04332E+03 -4.48124E+03  2.51960E+03
 -5.17881E+03 -2.01860E+03 -1.69749E+03 -2.24869E+03  4.86710E+02 -4.89035E+03  2.88012E+03 -4.96376E+03
  4.18152E+03 -3.20072E+03  6.82480E+03  1.39137E+02  4.76110E+03  4.12983E+03  1.57025E+03  6.51303E+03
 -1.71855E+03  5.80904E+03 -2.72961E+03  2.28222E+03 -2.30693E+03 -1.23479E+03 -5.75173E+01 -9.66364E+02
 -9.04274E+02  5.10114E+02 -1.80345E+03  1.69033E+03 -2.64241E+03  9.00007E+02 -3.85834E+03 -6.77925E+02
 -6.09037E+02 -3.29056E+03 -1.29020E+02 -4.62709E+03  2.16461E+03 -4.65028E+03  3.32449E+03 -1.53081E+03
  3.72561E+03  2.41934E+03  1.72057E+03  3.52428E+03 -2.09796E+03  5.29363E+03 -2.49529E+03  3.89176E+03
 -2.54992E+03  1.41798E+03 -3.97425E+03 -1.95818E+03 -1.34616E+01 -2.90967E+03  1.62050E+03 -3.19994E+03
  2.50496E+03 -1.33174E+03  1.35168E+03  1.26914E+03 -9.07758E+01  1.94679E+03 -7.23240E+01  1.08279E+03
  1.34614E+03  1.53872E+01  8.62144E+02 -1.99769E+02  1.23052E+03  2.96650E+03  1.00498E+03  2.99709E+03
 -4.75237E+02  3.35807E+03 -2.44177E+03  4.46039E+03 -2.53593E+03  1.54300E+03 -4.78223E+03 -6.40019E+02
 -8.99082E+02 -4.47267E+03  2.64654E+02 -6.00041E+03  1.84221E+03 -2.73124E+03  2.96721E+03 -1.49047E+03
  2.78918E+03  2.42905E+03  3.88839E+02  2.62950E+03 -7.74639E+02  1.82108E+03 -1.09484E+03  8.74521E+02
 -7.92862E+01 -1.23056E+03  1.25934E+03 -1.76541E+03  2.42959E+03 -1.31714E+03  1.32763E+03  1.20331E+03
  1.06947E+03  4.78851E+02  1.49328E+03 -8.70968E-01  2.95362E+02 -1.76839E+01  1.71138E+03 -5.13314E+02
  3.69546E+02  3.02354E+02  1.61318E+03  1.06477E+03  3.32516E+02  1.66194E+03 -8.29627E+02  2.59860E+03
 -2.02307E+02  1.60156E+03 -2.98059E+03  7.20399E+02 -2.30441E+03 -1.24811E+03 -3.58387E+02 -1.61936E+03
 -7.27741E+01 -2.26254E+03  7.47656E+02 -7.53537E+02  1.50287E+03  1.94060E+03 -1.70736E+03  5.95099E+02
 -1.49814E+03  6.49600E+02 -1.49419E+03 -1.31842E+03 -6.07454E+02 -1.98031E+03 -9.64271E+02 -1.43923E+03
  7.13525E+02 -1.06216E+03  1.03616E+03 -1.85229E+02  1.74600E+03  2.16466E+02  3.47028E+02 -3.92368E+01
 -1.31311E+03  5.40712E+02 -6.16312E+02 -1.34904E+03  7.31737E+02 -1.37242E+03  1.87360E+03 -1.28241E+03
  1.67455E+03 -1.15851E+02  2.40566E+03  9.85905E+02  5.28220E+02  1.15435E+03 -7.29538E+02  2.14948E+03
 -2.30538E+03  2.08546E+02 -1.92010E+03 -3.78458E+02 -9.90173E+02 -4.49233E+02  9.80062E+02 -5.78165E+02
  1.24175E+03 -4.53974E+02  1.45202E+03 -2.35455E+02  5.30887E+02  1.46542E+03  1.48670E+02  7.11491E+02
 -4.77590E+02  6.21967E+02 -1.08061E+03  8.82186E+02 -5.26136E+02  8.46479E+02 -1.05923E+03 -2.42588E+02
 -7.66061E+02  8.27235E+02 -1.24436E+03  7.42516E+02 -1.14375E+03  1.05859E+02 -2.73175E+03 -7.18841E+02
 -1.28929E+03 -2.44933E+03  7.30995E+02 -3.28826E+03  1.56130E+03 -2.40886E+03  3.15947E+03 -8.07408E+02
  2.33565E+03 -9.07925E+02  1.79263E+03  1.27064E+03 -4.63462E+02  1.07876E+03 -8.97190E+02  8.28565E+02
 -1.84852E+03  8.57482E+02 -4.47850E+02 -1.87869E+03 -1.06477E+02  9.57545E+01  1.31601E+02 -9.06183E+02
 -9.90122E+02  2.15456E+02 -6.32039E+02 -6.47311E+02  8.97998E+01 -2.66550E+02 -5.19398E+02 -1.88118E+03
  7.04783E+02 -1.10529E+03 -1.60490E+01  1.29751E+02  2.11410E+03  1.44108E+03 -7.49944E+02  1.93914E+03
 -5.85094E+02  2.96688E+03 -2.72083E+03  1.00626E+03 -2.13083E+03  9.54139E+01 -7.02048E+02 -1.85514E+03
 -1.18671E+03 -1.98132E+03  1.19245E+02 -2.25165E+02  1.17192E+02 -4.11166E+02  6.77593E+00 -1.58486E+02
  1.62250E+02  3.96648E+02 -5.99018E+02 -2.05436E+02  2.52409E+02  1.03243E+03  6.95124E+02 -4.81284E+02
  7.94842E+02  4.35654E+02 -4.58509E+02  9.69134E+02 -2.79478E+02 -3.56291E+00 -7.74823E+02 -6.53541E+02
 -3.74192E+02  3.90245E+02 -7.45544E+02 -1.02272E+03 -1.21201E+03 -2.37742E+02  3.69535E+02 -1.37359E+03
  8.65968E+02 -1.56916E+03  8.67133E+02  9.64112E+00  8.05077E+02 -1.88282E+02  1.01443E+02  4.10557E+02
  1.58894E+02  6.82481E+02 -6.15227E+02  1.14754E+03 -2.34265E+02  8.13280E+02  1.66380E+02  1.68384E+01
 -1.08099E+02 -5.43641E+02 -9.24853E+02  1.75718E+03 -1.50948E+03  1.03840E+02 -5.75492E+02 -4.18688E+02
 -5.32233E+02  2.34285E+02 -2.72347E+02 -1.89950E+03  6.76570E+02 -1.26513E+03  5.85651E+02 -1.08838E+02
  1.66853E+02  6.31206E+02 -3.14391E+02  1.06638E+03 -1.58953E+03  1.57586E+03  1.95849E+02  6.24220E+02
