 $NMID ID='MM_0lb_SNR200_20hz_g50_88.RAW', FMTDAT='(8E13.5)'
 TRAMP=1., VOLUME=1. $END
  3.10580E+05 -2.93696E+02  3.37311E+05  2.49863E+05  8.42678E+04  3.36637E+05 -1.32429E+05  2.49782E+05
 -1.90128E+05  8.25449E+04 -1.11189E+05 -3.22774E+04  1.08558E+03 -4.95335E+04  5.34584E+04 -3.77763E+02
  3.50464E+04  5.17685E+04 -1.74062E+04  7.41872E+04 -6.04111E+04  6.21002E+04 -8.25986E+04  3.10139E+04
 -8.01811E+04 -1.24018E+04 -5.59676E+04 -5.01181E+04 -1.55372E+04 -6.73093E+04  2.70566E+04 -4.55494E+04
  3.90298E+04  4.41896E+03  1.53731E+04  4.66070E+04 -3.40505E+04  4.63791E+04 -6.49087E+04 -4.55174E+02
 -5.16257E+04 -5.67063E+04 -6.86730E+03 -7.47382E+04  3.27705E+04 -5.28368E+04  4.52726E+04 -1.58723E+04
  4.09878E+04  9.90749E+03  2.97782E+04  2.53645E+04  1.61836E+04  2.82191E+04 -4.68895E+03  2.71145E+04
 -2.16068E+04  1.34348E+04 -1.97227E+04 -4.13139E+03  4.11787E+03 -9.07670E+03  2.11056E+04  1.06954E+04
  7.81917E+03  3.30554E+04 -3.02281E+04  3.26945E+04 -6.10137E+04  1.94965E+03 -5.53009E+04 -4.06865E+04
 -1.16078E+04 -6.09812E+04  3.78504E+04 -4.39693E+04  5.50173E+04 -2.24754E+03  3.20592E+04  3.08639E+04
 -6.50222E+03  3.18757E+04 -2.79992E+04  1.38771E+04 -2.63123E+04 -5.64043E+03 -1.30919E+04 -9.91745E+03
 -6.54726E+03 -1.10871E+04 -1.29631E+02 -1.66191E+04  7.07497E+03 -2.22378E+04  1.47046E+04 -1.51328E+04
  1.25319E+04  3.90870E+03 -5.99578E+03  1.41720E+04 -1.87283E+04 -2.13502E+03 -7.83234E+03 -2.94433E+04
  2.20700E+04 -4.00768E+04  4.45469E+04 -1.93153E+04  4.21497E+04  1.79123E+04  1.40397E+04  4.16865E+04
 -1.48742E+04  3.05000E+04 -2.20546E+04  1.64886E+02 -7.39944E+03 -2.49726E+04  2.06545E+04 -3.17196E+04
  3.70145E+04 -7.40831E+03  3.04380E+04  2.20009E+04  1.49897E+04  4.14607E+04 -7.58344E+03  4.44457E+04
 -2.78325E+04  2.91364E+04 -3.65914E+04  8.99894E+03 -3.74111E+04 -1.34248E+04 -2.06616E+04 -3.28233E+04
  5.43341E+03 -3.33321E+04  2.84649E+04 -1.23078E+04  2.61654E+04  1.09887E+04  1.86605E+03  1.77307E+04
 -1.26254E+04  6.65197E+03 -9.88263E+03 -6.83241E+03  5.50881E+03 -1.01342E+04  1.74490E+04  7.93644E+03
  1.15134E+04  2.19996E+04 -6.31234E+03  2.24158E+04 -2.14801E+04  8.45184E+03 -2.45944E+04 -6.66054E+03
 -1.59881E+04 -1.65678E+04 -4.61823E+03 -1.60534E+04  3.56332E+03 -1.30412E+04  1.21982E+04 -1.30805E+04
  1.99280E+04 -1.19229E+04  2.75484E+04 -8.19735E+02  2.11656E+04  1.62522E+04  4.87647E+03  3.20006E+04
 -1.61197E+04  2.67125E+04 -2.56248E+04  1.01310E+04 -1.88492E+04 -1.13661E+04 -2.86905E+03 -1.43627E+04
  3.53073E+03 -3.16535E+03 -2.13085E+03  5.24036E+03 -1.34215E+04  5.44105E+03 -1.30467E+04 -5.01197E+03
 -8.30333E+03 -1.51086E+04  4.62584E+03 -1.88480E+04  1.15818E+04 -1.38203E+04  1.52139E+04 -1.35863E+03
  9.12382E+03  9.92310E+03 -1.21862E+03  1.52885E+04 -1.03862E+04  9.35745E+03 -1.44618E+04 -3.91458E+03
 -1.19741E+04 -1.31035E+04 -1.99342E+03 -1.85660E+04  7.86341E+03 -1.41496E+04  1.47119E+04 -8.36433E+03
  1.41414E+04  2.05502E+02  1.01602E+04  3.75762E+03  3.82685E+03  1.25801E+03  7.76551E+03 -7.68402E+02
  1.39363E+04  1.90343E+03  1.39044E+04  1.19834E+04  7.96927E+03  2.41582E+04 -2.67263E+03  2.55255E+04
 -1.38930E+04  1.94549E+04 -2.34022E+04  7.90996E+03 -2.32616E+04 -1.56692E+03 -1.95455E+04 -1.36709E+04
 -9.33379E+03 -1.82818E+04  6.33400E+03 -1.74721E+04  1.52789E+04 -1.05882E+04  1.49794E+04  3.22869E+03
  6.92726E+03  1.01478E+04 -6.87341E+03  9.45175E+03 -1.27944E+04  3.20237E+03 -1.06859E+04 -8.11039E+03
  5.50905E+02 -1.14447E+04  5.01430E+03 -8.79685E+03  7.56103E+03 -9.86799E+02  7.26421E+02  4.13774E+03
 -5.83096E+03  1.96663E+03 -2.61093E+03 -4.45539E+03  1.83436E+03 -9.30197E+03  7.05979E+03 -9.42070E+03
  1.13857E+04 -3.98247E+03  1.09297E+04  2.52775E+03  1.00518E+04  1.01423E+04  4.63123E+03  1.26912E+04
 -6.20759E+02  1.54133E+04 -9.20842E+03  8.92363E+03 -1.06128E+04  2.34771E+03 -7.86077E+03 -1.94646E+03
 -4.40475E+03 -2.08439E+03 -9.45377E+02  1.73069E+03 -1.58480E+03  1.60673E+03 -3.40947E+03  3.30132E+03
 -7.86590E+03  1.76812E+02 -7.52375E+03 -7.51308E+03 -3.72935E+03 -1.12389E+04  2.56048E+03 -8.01231E+03
  6.05963E+03 -2.98521E+03  5.56509E+03  2.04634E+03  1.15634E+03  3.05377E+03 -3.47231E+03  1.27440E+03
 -3.31882E+03 -4.81609E+03 -4.96965E+02 -6.69606E+03  3.98574E+03 -6.79934E+03  9.17866E+03 -3.71690E+03
  1.13067E+04  3.20968E+02  7.43301E+03  5.34291E+03  6.51747E+02  7.80855E+03 -4.96502E+03  7.96884E+03
 -6.38087E+03  3.17038E+03 -3.15112E+03 -5.62354E+02  1.71990E+03 -1.64754E+03  4.35138E+03 -7.39181E+02
  4.60078E+03  3.56501E+03  8.53814E+02  5.80112E+03 -3.28946E+03  5.79469E+03 -6.57091E+03  1.52014E+03
 -5.71152E+03 -2.94845E+03  6.14314E+02 -6.37631E+03  3.30444E+03 -3.00064E+03  3.49602E+03  8.07920E+02
  9.44723E+02  3.46155E+03 -4.58693E+03  3.93979E+03 -3.77212E+03  2.59434E+03 -3.73130E+03 -1.71147E+02
 -3.28234E+03 -5.35507E+03  7.79435E+02 -5.80668E+03  4.46720E+03 -3.71943E+03  5.14477E+03  3.97961E+02
  5.06664E+03  4.71257E+03  3.31070E+02  6.97469E+03 -5.13958E+03  4.01985E+03 -4.66783E+03 -7.94812E+02
 -5.50633E+03 -4.96738E+03 -1.67704E+03 -4.00127E+03  3.46053E+03 -3.97278E+03  1.31709E+03 -2.20285E+03
  2.92562E+03 -3.68201E+02  4.57794E+02  1.00042E+03  2.91770E+02  9.09418E+02  5.41261E+02 -2.14229E+03
  3.31525E+03 -1.10816E+03  4.77715E+03  2.25781E+02  4.50138E+03  2.40427E+03  4.95078E+03  4.86704E+03
 -4.49588E+02  6.52934E+03 -6.61980E+03  5.75409E+03 -8.29008E+03  6.64453E+02 -7.46298E+03 -1.08371E+03
 -2.54036E+03 -5.75303E+03 -1.55843E+03 -4.48222E+03  1.19309E+03 -2.22479E+03  6.61253E+02 -2.57456E+03
  7.40033E+02 -2.11523E+03  2.57533E+03 -2.10811E+03  3.77163E+03 -1.29294E+03  3.56167E+03  1.07706E+03
  3.65545E+03  8.76558E+02  8.13174E+02  3.29574E+03 -1.86069E+03  2.51757E+03 -4.07583E+03  1.75415E+03
 -3.19700E+03 -1.12799E+03 -4.06891E+02 -2.76953E+03 -1.80768E+02 -3.53067E+03  1.42496E+03 -4.27821E+03
  4.21613E+03 -1.92231E+03  5.05781E+03  6.18018E+02  3.78602E+03  3.62029E+03  4.08404E+02  4.73968E+03
 -1.76996E+03  4.41045E+03 -3.11331E+03  1.51298E+03 -6.20727E+02 -1.51036E+03 -2.88349E+02  2.90926E+02
 -9.07992E+02  4.65549E+02 -1.45770E+03  1.09869E+01 -2.25283E+03  5.14254E+02 -3.45781E+03 -4.06718E+02
 -8.80084E+02 -3.27547E+03  4.93192E+02 -4.23245E+03  9.79374E+02 -2.72935E+03  2.73628E+03 -1.50716E+03
  3.14043E+03  1.49756E+03  1.26256E+03  2.34526E+03 -4.05974E+02  4.16343E+03 -7.09051E+02  2.08668E+03
 -4.81570E+03  9.30892E+02 -3.25253E+03 -7.93336E+02  2.07951E+02 -2.44302E+03  1.95773E+03 -1.47200E+03
  2.99050E+03 -1.88416E+03  1.86095E+03  2.61675E+02  1.75270E+03  1.38078E+03  8.86528E+02  5.52319E+01
  8.95009E+02  9.93183E+02  4.28947E+02  1.30510E+03  7.98204E+02  2.45514E+03  1.13343E+03  1.62396E+03
 -1.13770E+03  1.86174E+03 -1.67313E+03  2.77140E+03 -1.73792E+03  1.37524E+03 -4.24122E+03  4.89599E+02
 -6.98371E+02 -1.86579E+03  1.03360E+03 -3.50157E+03  2.59366E+03 -1.91948E+03  2.44696E+03  3.35084E+02
  1.04376E+03  1.00756E+03 -1.08850E+02  3.25213E+03  1.99623E+02 -9.02624E+01 -1.90135E+02 -2.69764E+01
 -9.39616E+02 -9.20932E+02  9.87924E+02 -1.00439E+03  3.00632E+02 -7.08061E+02  4.90991E+02 -2.31461E+02
 -2.23504E+02 -5.26463E+02  7.19394E+02 -2.54319E+02 -7.70005E+02 -2.19238E+01  1.86753E+03 -9.06749E+01
 -3.46434E+02 -1.29999E+03  1.85593E+03  5.21550E+02 -8.21570E+02  1.82817E+03 -3.73942E+02  2.31970E+03
 -1.23823E+03  9.05995E+02 -1.66911E+03 -8.66803E+01 -1.50196E+03 -2.33377E+02  5.14316E+02 -7.47211E+01
  1.15192E+02 -4.10112E+02  1.15956E+03 -3.74143E+02 -1.17299E+03  1.31600E+03 -1.21533E+03  1.75137E+03
 -2.15107E+02 -5.41115E+01 -2.29134E+02 -1.51873E+03  4.92145E+02 -1.61880E+03 -2.83880E+02 -7.16846E+02
  4.71590E+02 -6.32618E+02  5.89068E+02  5.29899E+02  4.56647E+02 -1.06166E+03  5.18441E+01  1.13677E+03
  1.09239E+03 -1.17836E+02 -7.87413E+02 -2.39267E+02  1.45202E+03 -1.89613E+03  1.30922E+03 -2.53857E+02
  9.13659E+02  1.97829E+02  1.98956E+03  2.28853E+02  3.36941E+02  1.43677E+03  4.58841E+02  1.65714E+03
 -1.41750E+03 -5.60292E+02 -1.16157E+03 -2.52079E+02 -1.36941E+02 -1.66878E+03  3.28886E+02 -4.35392E+01
  1.12927E+03 -4.76822E+02 -8.90043E+01  2.05393E+03 -3.47075E+02  9.85010E+02 -1.42790E+02  1.55663E+03
 -1.86913E+02  7.24191E+02 -3.80266E+02 -5.49362E+02 -3.82924E+01  1.27903E+03 -3.73069E+02  2.15917E+02
 -5.42522E+02  4.01928E+02 -9.52879E+02  3.14430E+02 -9.06254E+02  3.12028E+02 -3.02937E+03  1.20526E+02
 -3.44484E+02 -1.37981E+03  4.58614E+02 -2.73812E+03  6.61908E+02 -1.60639E+03  1.64687E+03 -1.13844E+03
  1.06319E+03 -9.75411E+00  1.07958E+03  6.16844E+02  1.12545E+02  1.17894E+03 -1.07733E+03  1.34078E+03
 -1.32910E+03  1.37100E+02 -7.74950E+02 -2.36554E+00 -4.13427E+02 -8.35699E+01 -1.37190E+03 -9.10352E+01
 -1.32685E+03  7.17255E+02 -2.45923E+02  9.71567E+02 -1.98431E+02 -9.93158E+02 -3.72621E+02 -1.31241E+03
  9.20662E+02 -5.64889E+02  2.48456E+02  7.43330E+02  1.59025E+03  8.26659E+02 -7.08333E+02  4.72240E+02
 -7.24508E+02  1.80847E+03 -6.44501E+02  3.36568E+02 -1.33539E+03  4.10285E+02 -4.64349E+02 -4.90465E+02
  6.79303E+01 -1.08664E+03  2.46455E+02 -1.31892E+03 -7.02696E+01 -2.75737E+02 -3.31390E+02 -4.03008E+01
 -2.19659E+02 -1.19747E+02  2.24117E+02  1.02735E+03 -5.58935E+02  7.04068E+02 -1.06014E+03  1.62933E+03
 -9.42900E+01  7.27908E+02 -3.10205E+02  4.63981E+02  1.21009E+02  6.00328E+02  3.86673E+02  1.84950E+02
 -1.37450E+03 -9.07538E+01  1.88235E+02 -2.60233E+02 -7.92640E+02 -1.86516E+02 -1.27631E+03 -2.29125E+02
  9.16547E+01  1.59204E+02 -6.53709E+02  3.08284E+01  7.06194E+02  6.22927E+02  6.06284E+02  5.52255E+02
  2.56775E+02  9.34963E+02 -1.03040E+02  1.02293E+03  5.42025E+02  2.74052E+01 -7.61287E+02  4.92292E+02
 -7.55194E+02  1.28250E+03 -9.50226E+02  7.69169E+02  5.55157E+02 -1.58766E+02 -5.08392E+02  8.58517E+02
 -8.37079E+01  1.82542E+02 -2.06090E+02 -7.88613E+01 -1.00296E+02 -1.85182E+03  5.25391E+02  3.72444E+02
 -5.38808E+01 -3.53109E+02 -4.91454E+02  1.09162E+03  1.99151E+02  4.37112E+02 -5.04115E+02 -4.28231E+01
