 $NMID ID='MM_0lb_SNR200_7hz_g50_60.RAW', FMTDAT='(8E13.5)'
 TRAMP=1., VOLUME=1. $END
  3.09608E+05 -3.07632E+02  3.37801E+05  2.52523E+05  8.41815E+04  3.39088E+05 -1.32581E+05  2.53751E+05
 -1.92108E+05  8.43972E+04 -1.14502E+05 -3.26315E+04  1.21208E+03 -4.95114E+04  5.44141E+04 -2.71313E+02
  3.55518E+04  5.24236E+04 -1.76106E+04  7.55107E+04 -6.33649E+04  6.53771E+04 -8.58010E+04  3.45070E+04
 -8.44409E+04 -1.19824E+04 -5.92086E+04 -5.27835E+04 -1.42738E+04 -7.01089E+04  2.98377E+04 -4.72571E+04
  4.07593E+04  2.32643E+03  1.66551E+04  4.76121E+04 -3.31070E+04  4.89239E+04 -6.82283E+04 -3.55112E+01
 -5.54180E+04 -5.63040E+04 -9.62499E+03 -8.02855E+04  3.36428E+04 -5.73548E+04  5.11740E+04 -1.68521E+04
  4.55304E+04  1.09447E+04  3.02158E+04  2.51278E+04  1.57651E+04  2.89183E+04 -5.60670E+03  2.75192E+04
 -2.26735E+04  1.24915E+04 -1.81842E+04 -8.29745E+03  6.80272E+03 -6.09905E+03  2.44991E+04  1.24408E+04
  6.65098E+03  3.71655E+04 -3.30700E+04  3.85146E+04 -6.75853E+04  2.96494E+03 -5.93646E+04 -4.43863E+04
 -1.24765E+04 -6.67402E+04  4.24509E+04 -4.73700E+04  6.04071E+04 -2.53379E+03  3.73507E+04  3.45882E+04
 -5.18404E+03  4.02746E+04 -3.39883E+04  1.92880E+04 -3.51229E+04 -4.53650E+03 -1.95315E+04 -1.34969E+04
 -1.11866E+04 -1.52776E+04 -2.76579E+02 -2.07937E+04  8.60439E+03 -2.47521E+04  1.56106E+04 -1.10043E+04
  1.02027E+04  6.11206E+03 -1.27489E+04  1.44287E+04 -2.46691E+04 -8.34936E+03 -9.15080E+03 -3.96522E+04
  2.70482E+04 -4.74068E+04  5.42898E+04 -2.07801E+04  4.94658E+04  2.03554E+04  1.58251E+04  4.77203E+04
 -1.62105E+04  3.71618E+04 -2.83726E+04  3.13115E+03 -1.29776E+04 -3.09356E+04  2.22301E+04 -3.78487E+04
  4.71970E+04 -9.40618E+03  4.34782E+04  2.51488E+04  2.32428E+04  5.19398E+04 -8.50907E+03  5.72453E+04
 -3.68120E+04  4.08639E+04 -4.95359E+04  1.19296E+04 -4.95567E+04 -1.99245E+04 -2.79200E+04 -4.33288E+04
  7.18898E+03 -4.42121E+04  3.50860E+04 -1.68268E+04  3.45164E+04  1.26182E+04  6.43574E+03  2.03018E+04
 -1.35875E+04  8.16874E+03 -1.25019E+04 -7.99855E+03  6.18584E+03 -9.37758E+03  1.75012E+04  6.04890E+03
  1.37422E+04  2.46055E+04 -3.86355E+03  2.75611E+04 -2.45590E+04  1.53379E+04 -3.28679E+04 -1.35704E+03
 -2.74758E+04 -1.86887E+04 -1.47984E+04 -2.73430E+04  4.89755E+03 -3.02889E+04  2.13623E+04 -2.63996E+04
  3.42145E+04 -1.46499E+04  3.97485E+04  6.20627E+03  2.61202E+04  2.76634E+04  4.77299E+03  4.34295E+04
 -2.03965E+04  3.62660E+04 -3.12557E+04  1.12329E+04 -2.39155E+04 -1.10929E+04 -6.67714E+03 -1.15482E+04
  4.40378E+02 -4.20441E+02 -1.05617E+04  9.60355E+03 -2.09346E+04  3.86147E+03 -2.06863E+04 -1.03590E+04
 -1.27812E+04 -2.42677E+04  5.70314E+03 -3.02431E+04  1.98358E+04 -2.02877E+04  2.36869E+04 -2.55919E+03
  1.46072E+04  1.81744E+04 -1.78516E+03  2.51268E+04 -1.64270E+04  1.31724E+04 -2.43526E+04 -5.37964E+03
 -1.75983E+04 -2.24158E+04 -2.86272E+03 -3.13459E+04  1.41848E+04 -2.55492E+04  2.54782E+04 -1.36767E+04
  2.35749E+04  9.84597E+02  1.76316E+04  4.88006E+03  1.05783E+04  3.36141E+02  1.41320E+04 -2.63319E+03
  2.51417E+04  1.45017E+03  2.88458E+04  1.76814E+04  1.88637E+04  3.94434E+04 -2.68286E+03  4.86276E+04
 -2.72745E+04  4.07026E+04 -4.68814E+04  2.19750E+04 -4.93418E+04 -3.64559E+03 -3.88209E+04 -2.92496E+04
 -1.62704E+04 -4.04362E+04  1.60071E+04 -3.68479E+04  3.01752E+04 -1.70810E+04  2.47704E+04  1.00473E+04
  8.96379E+03  2.04248E+04 -1.14145E+04  1.76461E+04 -2.03489E+04  2.53682E+03 -1.69346E+04 -1.56581E+04
 -4.72851E+02 -2.03651E+04  1.24137E+04 -1.67551E+04  1.74243E+04 -6.39626E+02  2.90932E+03  1.10912E+04
 -9.36240E+03  6.69145E+03 -1.14735E+04 -6.55895E+03 -2.39464E+03 -1.99780E+04  1.40213E+04 -2.16007E+04
  2.62570E+04 -1.39617E+04  2.99652E+04  2.45532E+03  2.58898E+04  2.12223E+04  1.23455E+04  3.23146E+04
 -6.81939E+03  3.67486E+04 -2.11905E+04  2.33189E+04 -2.56310E+04  5.06710E+03 -1.69780E+04 -5.94266E+03
 -6.46003E+03 -1.04190E+04 -2.23561E+02  1.52784E+03 -3.40830E+03  2.63173E+03 -6.51103E+03  4.96994E+03
 -1.39683E+04 -1.69021E+03 -1.60420E+04 -1.42668E+04 -6.06072E+03 -2.22381E+04  7.64294E+03 -1.68830E+04
  1.41404E+04 -7.46311E+03  1.01284E+04  4.72761E+03 -4.62892E+02  7.04621E+03 -9.35508E+03  1.02802E+03
 -8.60263E+03 -1.06985E+04 -1.86474E+03 -1.74874E+04  1.22374E+04 -1.86171E+04  2.14168E+04 -9.84041E+03
  2.55044E+04  2.66589E+03  1.81698E+04  1.68803E+04  4.45061E+03  2.38145E+04 -1.07824E+04  1.63051E+04
 -1.38065E+04  6.13122E+03 -7.56756E+03 -3.55893E+03  2.52616E+03 -4.54867E+03  7.46107E+03 -2.25248E+03
  7.72522E+03  7.41025E+03  1.63367E+03  1.51279E+04 -9.11024E+03  1.35773E+04 -1.87391E+04  4.50913E+03
 -1.26810E+04 -7.16159E+03 -1.22395E+03 -1.62991E+04  1.05181E+04 -8.38854E+03  1.11054E+04  4.09825E+03
  1.79288E+03  1.28896E+04 -1.05674E+04  1.19049E+04 -1.58429E+04  4.58375E+03 -1.66658E+04 -6.49088E+03
 -9.14959E+03 -1.88477E+04  4.76847E+03 -2.21615E+04  1.59138E+04 -1.34091E+04  1.97287E+04  3.52597E+03
  1.08860E+04  1.40730E+04 -2.63143E+03  1.86119E+04 -1.13152E+04  1.09032E+04 -1.58551E+04 -2.00538E+03
 -1.15405E+04 -1.32574E+04 -8.04182E+02 -1.58607E+04  8.64778E+03 -1.19746E+04  9.45469E+03 -6.11093E+03
  5.15602E+03  3.37380E+03 -1.27296E+03  1.47724E+03 -1.11851E+03 -3.65675E+03  3.43374E+03 -9.89441E+03
  1.38254E+04 -6.87909E+03  1.75428E+04  1.94188E+03  2.00979E+04  1.46825E+04  1.05368E+04  2.67185E+04
 -7.41912E+03  2.88166E+04 -2.49340E+04  2.31038E+04 -3.10064E+04  4.45937E+03 -2.47425E+04 -9.95273E+03
 -9.91932E+03 -1.98073E+04  3.62809E+02 -1.79384E+04  6.44159E+03 -1.09876E+04  7.15273E+03 -7.59792E+03
  4.91982E+03 -4.19288E+03  5.60599E+03 -3.73030E+03  6.92297E+03 -4.93464E+03  8.18467E+03 -2.36162E+03
  1.37677E+04  2.03849E+03  8.76480E+03  1.07674E+04 -2.54173E+03  1.60595E+04 -1.45816E+04  1.03908E+04
 -1.73280E+04 -1.16910E+03 -1.21697E+04 -1.05670E+04 -1.44886E+03 -1.99344E+04  1.24198E+04 -1.65227E+04
  2.14092E+04 -1.07845E+04  2.36161E+04  4.22547E+03  1.65141E+04  1.87189E+04  1.82906E+03  2.25673E+04
 -9.15144E+03  1.69162E+04 -1.21256E+04  5.00974E+03 -7.22635E+03 -2.35620E+03 -4.60246E+03 -2.88135E+03
 -1.85810E+03 -5.61993E+02 -1.48893E+03  3.13256E+03 -6.96705E+03  1.84622E+03 -1.11811E+04 -2.21824E+03
 -8.65847E+03 -1.29931E+04 -2.05583E+02 -1.84081E+04  1.28189E+04 -1.71155E+04  1.85029E+04 -5.24021E+03
  1.80976E+04  1.00970E+04  7.85917E+03  1.85373E+04 -1.69565E+03  2.00933E+04 -1.40643E+04  1.13626E+04
 -1.88187E+04  1.27945E+03 -1.15150E+04 -1.17219E+04  3.82228E+02 -1.68201E+04  8.51015E+03 -1.19088E+04
  1.25877E+04 -3.40837E+03  9.05496E+03  4.58761E+03  3.73613E+03  8.02025E+03  9.79553E+02  4.64117E+03
  4.12675E+03  8.21567E+02  6.20575E+03  2.64239E+03  5.98687E+03  7.65079E+03  4.98371E+03  9.67755E+03
 -3.27435E+03  1.62693E+04 -1.47819E+04  1.55404E+04 -1.96342E+04  4.57071E+03 -1.90124E+04 -8.09486E+03
 -1.09969E+04 -2.03013E+04  3.29949E+03 -2.21353E+04  1.20045E+04 -1.33128E+04  1.49810E+04 -4.34993E+03
  1.10640E+04  8.83549E+03  2.60715E+03  1.04442E+04 -4.99825E+03  6.82927E+03 -8.45386E+03 -9.29701E+02
 -3.82152E+03 -9.23036E+03  6.79579E+03 -8.05922E+03  7.46241E+03 -5.88674E+03  8.12824E+03 -8.06805E+02
  6.06082E+03  3.59249E+03  1.89574E+03  2.31574E+03 -1.74406E+03  2.66849E+03  1.93896E+03  6.19608E+02
  4.07122E+03 -1.37427E+03  9.88758E+03  2.11166E+03  5.83634E+03  9.70984E+03 -3.24576E+03  1.36694E+04
 -9.63098E+03  1.02181E+04 -1.24144E+04  3.64061E+03 -1.22313E+04 -2.16397E+03 -4.24337E+03 -8.83818E+03
  2.39436E+03 -7.13255E+03  7.52436E+03 -3.59728E+03  3.41556E+03  3.79049E+03 -1.53368E+03  7.15259E+03
 -8.51122E+03  3.35077E+03 -8.79738E+03 -5.91915E+03 -5.51405E+03 -1.27079E+04  2.19934E+03 -1.05190E+04
  5.70898E+03 -5.87874E+03  9.49412E+03 -1.10050E+03  4.67584E+03  1.55528E+03  2.82833E+02  6.83017E+03
 -4.06828E+03  6.87901E+02 -5.82480E+03 -3.76336E+03  1.34672E+03 -9.05440E+03  9.95680E+03 -6.74620E+03
  1.30005E+04  1.79562E+02  1.34314E+04  1.01506E+04  3.16464E+03  1.35784E+04 -3.68127E+03  1.17299E+04
 -1.09233E+04  7.14499E+03 -1.22006E+04 -3.31231E+03 -5.45697E+03 -1.05678E+04  3.48316E+03 -8.84856E+03
  8.05656E+03 -3.79102E+03  7.83967E+03  2.97278E+03  1.64323E+03  8.43768E+03 -1.40329E+03  6.77217E+03
 -4.68569E+03  4.23048E+03 -5.29954E+03  2.43474E+03 -1.80660E+03  2.30143E+03 -2.70846E+03  1.19875E+03
 -4.51935E+03  5.14991E+03 -8.47234E+03  5.38701E+03 -1.31956E+04 -8.18156E+02 -1.56744E+04 -7.66871E+03
 -8.50085E+03 -1.86251E+04  3.68904E+03 -2.19539E+04  1.19987E+04 -1.65507E+04  1.97321E+04 -5.33289E+03
  1.95626E+04  2.99576E+03  1.11556E+04  1.31236E+04  9.22117E+02  1.54744E+04 -5.02618E+03  1.06994E+04
 -9.20727E+03  3.67012E+03 -3.72536E+03 -2.00927E+03 -2.88029E+02 -1.53208E+03 -8.70148E+02 -1.92629E+03
 -1.86895E+03  1.32059E+03 -2.46632E+03  2.32109E+02 -1.30923E+03 -4.79678E+03  2.69768E+02 -4.57615E+03
  5.49156E+03 -5.18783E+03  8.68158E+03 -8.71989E+01  9.58079E+03  5.56724E+03  1.41911E+03  1.39665E+04
 -8.40114E+03  1.58938E+04 -1.51268E+04  9.37994E+03 -2.04999E+04 -2.45513E+03 -1.22370E+04 -1.09799E+04
 -4.89220E+03 -1.58058E+04  3.70221E+03 -1.34891E+04  9.09955E+03 -5.83898E+03  9.01477E+03  2.32583E+02
  4.29715E+03  7.14624E+03 -8.05278E+02  2.02977E+03 -3.55005E+03  1.61587E+02  1.35813E+03 -4.57946E+03
  3.53672E+03 -8.42721E+02  8.67755E+03  1.58369E+03  2.63594E+03  6.28347E+03 -1.16493E+03  7.52261E+03
 -7.35646E+03  9.02589E+03 -9.72247E+03  2.74372E+03 -8.41887E+03 -9.84471E+03 -1.40612E+03 -1.28869E+04
  7.41066E+03 -1.17369E+04  1.18332E+04 -2.53259E+03  1.18825E+04  2.08080E+03  8.25675E+03  9.59159E+03
  2.23864E+03  1.11109E+04 -4.27631E+03  8.81568E+03 -5.26012E+03  5.40410E+03 -4.68761E+03  1.27760E+03
 -1.10815E+03 -8.79231E+02 -3.07960E+03 -4.94949E+02 -3.70712E+03  2.76789E+03 -7.89813E+03 -1.21357E+03
 -6.81111E+03 -6.40392E+03 -2.60313E+03 -9.75976E+03  4.64027E+03 -1.09643E+04  9.14051E+03 -4.92288E+03
  9.88203E+03  2.08385E+02  5.84346E+03  8.50907E+03  1.33964E+02  9.78177E+03 -8.36038E+03  5.89420E+03
