 $NMID ID='MM_0lb_SNR200_11hz_g55_4.RAW', FMTDAT='(8E13.5)'
 TRAMP=1., VOLUME=1. $END
  3.09545E+05  8.00412E+01  3.36720E+05  2.50796E+05  8.56628E+04  3.37068E+05 -1.32316E+05  2.53255E+05
 -1.90260E+05  8.40844E+04 -1.12821E+05 -3.32659E+04  1.69270E+03 -4.96993E+04  5.41133E+04 -1.98070E+02
  3.46574E+04  5.28285E+04 -1.69530E+04  7.65176E+04 -6.08166E+04  6.56603E+04 -8.49616E+04  3.25219E+04
 -8.31492E+04 -1.11861E+04 -5.64406E+04 -5.10979E+04 -1.53656E+04 -7.13876E+04  2.76716E+04 -4.74159E+04
  4.08742E+04  3.42515E+03  1.75244E+04  4.76319E+04 -3.51925E+04  4.84238E+04 -6.72542E+04 -8.57591E+02
 -5.46175E+04 -5.63254E+04 -7.16203E+03 -7.76391E+04  3.40852E+04 -5.59777E+04  5.04569E+04 -1.69941E+04
  4.43478E+04  1.04618E+04  3.23830E+04  2.74250E+04  1.65411E+04  2.98929E+04 -6.16844E+03  2.71076E+04
 -2.21583E+04  1.14000E+04 -1.85641E+04 -7.15776E+03  7.34013E+03 -7.42616E+03  2.23952E+04  1.45246E+04
  7.97885E+03  3.82522E+04 -3.27003E+04  3.72137E+04 -6.49146E+04  3.20262E+03 -5.94769E+04 -4.38539E+04
 -1.28168E+04 -6.46580E+04  4.03531E+04 -4.70588E+04  5.96521E+04 -2.17558E+03  3.56788E+04  3.34000E+04
 -5.99884E+03  3.89281E+04 -3.06912E+04  1.76828E+04 -3.21236E+04 -4.01313E+03 -1.88473E+04 -1.15978E+04
 -9.36634E+03 -1.45237E+04 -1.18368E+03 -2.07995E+04  8.58382E+03 -2.33625E+04  1.67590E+04 -1.35301E+04
  1.14631E+04  6.36539E+03 -1.03506E+04  1.32696E+04 -2.33052E+04 -7.29111E+03 -7.97689E+03 -3.68902E+04
  2.49876E+04 -4.61508E+04  4.99265E+04 -2.07557E+04  4.70002E+04  2.15502E+04  1.80456E+04  4.51898E+04
 -1.77295E+04  3.59122E+04 -2.59944E+04  3.20460E+03 -1.02769E+04 -2.85407E+04  2.04764E+04 -3.60780E+04
  4.41494E+04 -1.04633E+04  3.94732E+04  2.53609E+04  2.07546E+04  4.93367E+04 -8.60117E+03  5.59471E+04
 -3.36700E+04  3.73163E+04 -4.66152E+04  1.01101E+04 -4.39412E+04 -1.73448E+04 -2.58353E+04 -4.02966E+04
  7.94759E+03 -4.28876E+04  3.43751E+04 -1.77620E+04  3.03138E+04  1.15443E+04  3.12858E+03  2.02678E+04
 -1.40456E+04  1.01314E+04 -1.17690E+04 -8.29645E+03  6.13492E+03 -1.08947E+04  1.89645E+04  6.57084E+03
  1.40640E+04  2.15359E+04 -4.77585E+03  2.78292E+04 -2.19138E+04  1.36137E+04 -2.99490E+04 -2.60058E+03
 -2.46867E+04 -1.76888E+04 -1.13367E+04 -2.42848E+04  3.41472E+03 -2.48103E+04  1.90439E+04 -2.24471E+04
  3.00331E+04 -1.49831E+04  3.62550E+04  4.34050E+03  2.51560E+04  2.24177E+04  4.94746E+03  3.98154E+04
 -1.96682E+04  3.07246E+04 -3.06721E+04  1.26302E+04 -2.09655E+04 -1.12282E+04 -4.02523E+03 -1.31602E+04
  3.71410E+02 -1.48226E+03 -5.71630E+03  8.22726E+03 -1.83560E+04  4.81740E+03 -1.93911E+04 -9.59007E+03
 -1.10587E+04 -2.20839E+04  5.98270E+03 -2.63308E+04  1.87793E+04 -1.80174E+04  2.33338E+04 -1.10405E+03
  1.51784E+04  1.50162E+04 -1.59282E+03  2.12423E+04 -1.66291E+04  1.38626E+04 -2.19778E+04 -4.17045E+03
 -1.72039E+04 -2.06339E+04 -1.60005E+03 -2.49992E+04  1.34516E+04 -2.12735E+04  2.23199E+04 -1.06050E+04
  2.09804E+04 -8.74495E+01  1.63292E+04  5.70703E+03  7.99198E+03  4.93384E+02  1.08968E+04  2.82372E+02
  2.03587E+04  2.82482E+03  2.28698E+04  1.82524E+04  1.57353E+04  3.56496E+04 -3.45508E+03  4.26677E+04
 -2.42304E+04  3.19749E+04 -3.86260E+04  1.72910E+04 -4.01452E+04 -3.46980E+03 -3.45852E+04 -2.46939E+04
 -1.44683E+04 -3.44262E+04  1.44214E+04 -3.01134E+04  2.48322E+04 -1.46221E+04  2.21165E+04  7.11414E+03
  8.00189E+03  1.69420E+04 -1.13564E+04  1.46959E+04 -1.91731E+04  2.39839E+03 -1.32344E+04 -1.37043E+04
  3.47071E+02 -1.77961E+04  9.70546E+03 -1.43032E+04  1.29849E+04 -1.39399E+03  4.11185E+03  8.42309E+03
 -7.54108E+03  3.47545E+03 -9.12557E+03 -7.62105E+03 -2.53038E+02 -1.58615E+04  1.12834E+04 -1.86022E+04
  2.04727E+04 -9.77519E+03  2.33426E+04  1.13126E+03  2.08651E+04  1.69020E+04  9.79129E+03  2.72449E+04
 -5.33703E+03  2.68989E+04 -2.06663E+04  1.66782E+04 -2.12539E+04  4.72240E+03 -1.36341E+04 -5.81467E+03
 -6.42272E+03 -7.44537E+03 -2.97836E+03  2.56671E+02 -2.70978E+03  2.24355E+03 -6.11113E+03  6.82292E+03
 -1.31701E+04 -5.36481E+02 -1.24473E+04 -1.19250E+04 -4.19974E+03 -1.74083E+04  5.31832E+03 -1.54050E+04
  1.27319E+04 -6.38736E+03  8.08848E+03  3.46697E+03 -1.90551E+02  5.62578E+03 -5.98164E+03 -1.12857E+02
 -6.18374E+03 -9.73077E+03 -1.16654E+03 -1.17905E+04  8.38088E+03 -1.48366E+04  1.96833E+04 -6.24569E+03
  2.18764E+04  1.09287E+03  1.55882E+04  1.28672E+04  2.54784E+03  1.66360E+04 -9.09969E+03  1.35314E+04
 -1.23901E+04  4.36291E+03 -6.68093E+03 -3.17724E+03  7.06417E+02 -4.99752E+03  7.06259E+03 -1.96547E+03
  6.10356E+03  6.80267E+03  1.38044E+03  1.13455E+04 -7.57069E+03  1.20117E+04 -1.39218E+04  1.67813E+03
 -7.73702E+03 -6.04296E+03 -2.63949E+02 -1.01702E+04  7.17370E+03 -6.58968E+03  8.29291E+03  3.42094E+03
  2.54262E+03  8.20805E+03 -7.72161E+03  8.98054E+03 -1.19740E+04  4.60284E+03 -1.16558E+04 -4.02924E+03
 -6.81358E+03 -1.40578E+04  4.01817E+03 -1.52376E+04  1.30038E+04 -9.46063E+03  1.37149E+04  1.26405E+03
  8.19361E+03  1.14544E+04 -1.29390E+03  1.40316E+04 -1.10730E+04  7.77582E+03 -1.20231E+04 -1.07081E+03
 -8.72597E+03 -9.54161E+03 -2.89625E+03 -1.05707E+04  5.91664E+03 -8.19947E+03  7.02265E+03 -3.06337E+03
  3.14928E+03  2.12456E+03 -6.52540E+02  3.29073E+03 -9.43876E+02 -3.21933E+03  2.49746E+03 -7.55641E+03
  8.89699E+03 -4.49637E+03  1.33007E+04  1.70760E+03  1.39512E+04  7.57818E+03  7.66551E+03  1.65620E+04
 -3.04732E+03  2.02624E+04 -1.74208E+04  1.43133E+04 -2.15542E+04  3.53886E+03 -1.77483E+04 -7.81668E+03
 -8.12869E+03 -1.52010E+04  3.46256E+02 -1.40638E+04  3.68175E+03 -7.31985E+03  5.56070E+03 -4.22278E+03
  2.61455E+03 -3.22438E+03  4.23041E+03 -4.88571E+03  4.77911E+03 -4.01062E+03  7.91165E+03 -9.52591E+02
  9.43136E+03  1.55836E+03  2.85593E+03  9.32926E+03 -3.28672E+03  1.01338E+04 -1.09871E+04  6.90808E+03
 -1.16254E+04 -1.82368E+03 -6.65136E+03 -9.65881E+03 -5.63617E+02 -1.40618E+04  7.19330E+03 -1.33284E+04
  1.48129E+04 -6.97413E+03  1.59754E+04  2.57825E+03  1.10674E+04  9.84310E+03  2.11651E+03  1.44271E+04
 -4.82191E+03  1.11842E+04 -9.25814E+03  5.16918E+03 -4.84074E+03 -2.65331E+03 -2.60613E+03 -2.73250E+03
 -1.12839E+03  3.39849E+02 -5.30225E+01  3.77697E+03 -6.85102E+03  1.83656E+03 -7.97288E+03 -2.52064E+02
 -5.67263E+03 -9.20451E+03 -7.87161E+02 -1.40963E+04  6.65747E+03 -1.12680E+04  1.16694E+04 -3.28172E+03
  1.35453E+04  7.04568E+03  4.30469E+03  1.04229E+04 -1.79039E+03  1.32115E+04 -8.79503E+03  6.79547E+03
 -1.17189E+04 -3.23893E+02 -9.13693E+03 -7.86296E+03 -5.41731E+02 -1.07938E+04  4.34163E+03 -7.76906E+03
  6.08769E+03 -3.35266E+03  4.87121E+03  1.29888E+03  2.02387E+03  2.46007E+03  3.77183E+01  2.25883E+03
  1.42276E+03  1.87556E+03  2.85844E+03  1.80349E+03  3.97642E+03  5.07028E+03  4.77901E+03  6.84332E+03
 -3.22490E+03  7.95919E+03 -7.83760E+03  9.58046E+03 -1.23132E+04  4.15190E+03 -1.19477E+04 -4.96043E+03
 -6.99097E+03 -1.15371E+04  2.89929E+02 -1.21961E+04  7.60459E+03 -7.33140E+03  9.56739E+03 -3.60178E+03
  7.12716E+03  4.29821E+03  6.74206E+02  8.03028E+03 -4.09726E+03  4.22695E+03 -4.46189E+03  8.69033E+02
 -2.64043E+03 -5.03315E+03  1.72181E+03 -4.41999E+03  5.45930E+03 -3.49016E+03  5.71979E+03 -2.78629E+02
  4.57053E+03  3.29714E+03  1.94848E+03  2.72840E+03 -7.96262E+02  2.63469E+03  2.15262E+03 -5.03957E+02
  2.38765E+03 -1.25161E+03  6.09533E+03  1.20097E+03  2.71735E+03  7.65170E+03 -1.14852E+03  8.89774E+03
 -3.92512E+03  5.50012E+03 -7.95519E+03  9.60755E+02 -5.97122E+03 -2.01301E+03 -1.49033E+03 -4.14857E+03
  1.25485E+03 -5.37696E+03  3.02935E+03 -2.07786E+03  3.44961E+03  3.10969E+03 -1.86464E+02  2.99585E+03
 -4.23914E+03  1.15399E+03 -6.30035E+03 -2.29380E+03 -3.57559E+03 -7.42446E+03  2.07958E+02 -5.55480E+03
  1.58057E+03 -4.38251E+03  5.36844E+03 -8.86880E+02  3.82144E+03  3.22233E+03  9.59142E+02  2.71680E+03
 -2.96401E+03  1.37362E+03 -2.85916E+03 -1.88654E+03  2.35903E+03 -5.63163E+03  7.08940E+03 -3.47197E+03
  7.52079E+03  9.00627E+02  6.31224E+03  5.29795E+03  2.03952E+03  7.45263E+03 -3.07118E+03  6.51111E+03
 -6.62887E+03  1.52135E+03 -5.85675E+03 -1.50156E+03 -3.09384E+03 -3.79912E+03  2.05945E+03 -4.36908E+03
  3.78807E+03 -2.04444E+03  4.18483E+03  2.50443E+03  1.97133E+03  4.72663E+03 -2.23727E+02  4.18886E+03
 -1.71786E+03  2.77067E+03 -2.84610E+03  2.87208E+00 -2.91708E+03  1.18887E+03 -3.85903E+02  2.36405E+03
 -1.85345E+03  3.90382E+03 -4.85572E+03  1.53746E+03 -6.50676E+03  2.77650E+01 -8.12169E+03 -4.95532E+03
 -4.12800E+03 -9.89763E+03  1.58593E+02 -1.23216E+04  6.30161E+03 -7.76960E+03  1.00144E+04 -3.12325E+03
  9.71478E+03  1.98846E+03  6.10004E+03  6.74996E+03 -1.77803E+02  8.14889E+03 -2.45857E+03  4.93787E+03
 -4.79354E+03  1.94943E+03 -9.42675E+02  1.16629E+02 -9.77987E+02 -1.82668E+03  5.75164E+02 -3.64500E+02
 -1.81129E+03  7.51774E+02 -3.05747E+03 -5.08313E+01 -2.02755E+03 -3.03070E+03  4.63202E+02 -4.29599E+03
  2.61007E+03 -3.34561E+03  4.29184E+03  9.51224E+02  4.78422E+03  4.25348E+03  2.99791E+03  6.98452E+03
 -2.59007E+03  7.56936E+03 -8.31262E+03  5.46420E+03 -9.15460E+03 -1.24340E+03 -7.58122E+03 -6.56224E+03
 -2.63089E+03 -7.54185E+03  1.67594E+03 -8.07054E+03  5.67700E+03 -3.20681E+03  5.25234E+03 -1.37331E+02
  3.94170E+03  1.31188E+03  5.72481E+02  1.57964E+03 -3.21120E+03  1.92383E+02  7.77923E+02 -5.65055E+02
  1.84498E+03 -1.41502E+03  3.06232E+03  2.64783E+02  1.33131E+03  2.76393E+03  3.40776E+02  4.55666E+03
 -1.68095E+03  4.37385E+03 -5.01624E+03  1.36447E+02 -4.82037E+03 -2.79762E+03  6.83703E+02 -6.23095E+03
  2.63164E+03 -4.59329E+03  5.62369E+03 -1.65973E+03  5.98344E+03  3.01823E+03  1.32275E+03  4.30779E+03
  2.55561E+02  4.96288E+03 -1.48574E+03  4.19344E+03 -3.29830E+03  1.40045E+03 -1.81097E+03  5.42310E+02
 -6.55001E+02  3.69970E+02 -8.80742E+01  2.04630E+03 -1.49860E+03  1.10916E+03 -3.54615E+03  1.72701E+03
 -3.13884E+03 -2.24739E+03 -1.07010E+02 -4.13781E+03  1.52507E+03 -5.28964E+03  3.19069E+03 -1.53720E+03
  4.01752E+03  3.75477E+02  1.46680E+03  3.22622E+03 -1.24366E+02  3.79369E+03 -2.50845E+03  4.30756E+03
