 $NMID ID='MM_0lb_SNR200_14hz_g45_47.RAW', FMTDAT='(8E13.5)'
 TRAMP=1., VOLUME=1. $END
  3.09655E+05 -4.07010E+02  3.37749E+05  2.50513E+05  8.43876E+04  3.37478E+05 -1.32471E+05  2.50688E+05
 -1.90631E+05  8.38493E+04 -1.11985E+05 -3.35563E+04  9.55936E+02 -5.00301E+04  5.38911E+04 -7.12410E+02
  3.58738E+04  5.32313E+04 -1.72917E+04  7.52967E+04 -6.05202E+04  6.34052E+04 -8.41894E+04  3.22919E+04
 -8.05084E+04 -1.05252E+04 -5.72196E+04 -5.21535E+04 -1.45074E+04 -6.87433E+04  2.63347E+04 -4.51435E+04
  3.90475E+04  3.50558E+03  1.56428E+04  4.74337E+04 -3.41139E+04  4.61752E+04 -6.73312E+04  7.48581E+02
 -5.30571E+04 -5.66751E+04 -6.41882E+03 -7.64403E+04  3.29265E+04 -5.52409E+04  4.70881E+04 -1.76635E+04
  4.34183E+04  1.19299E+04  3.15161E+04  2.52747E+04  1.59044E+04  2.95651E+04 -4.27505E+03  2.76067E+04
 -2.19327E+04  1.33589E+04 -1.81735E+04 -5.27840E+03  5.68972E+03 -6.87038E+03  2.36434E+04  1.26537E+04
  6.95186E+03  3.47738E+04 -3.06959E+04  3.42507E+04 -6.30250E+04  1.95569E+03 -5.64359E+04 -4.16065E+04
 -1.17234E+04 -6.34880E+04  3.94461E+04 -4.45486E+04  5.81843E+04 -2.31163E+03  3.37648E+04  3.28283E+04
 -5.42090E+03  3.62933E+04 -2.99496E+04  1.58849E+04 -2.88564E+04 -5.15496E+03 -1.68493E+04 -1.16899E+04
 -7.76990E+03 -1.31388E+04 -3.35499E+02 -1.91220E+04  7.84517E+03 -2.21012E+04  1.57462E+04 -1.36810E+04
  1.14406E+04  6.05756E+03 -8.47112E+03  1.33327E+04 -2.09201E+04 -3.93567E+03 -9.65954E+03 -3.33206E+04
  2.25802E+04 -4.11042E+04  4.76806E+04 -1.92205E+04  4.49889E+04  1.95226E+04  1.52602E+04  4.32734E+04
 -1.57531E+04  3.33466E+04 -2.52646E+04  2.14880E+03 -1.12348E+04 -2.75291E+04  2.19892E+04 -3.32316E+04
  4.09129E+04 -1.01843E+04  3.50767E+04  2.40570E+04  1.75398E+04  4.65352E+04 -8.49357E+03  5.00071E+04
 -3.12986E+04  3.35655E+04 -4.17457E+04  7.99883E+03 -4.18953E+04 -1.61887E+04 -2.24102E+04 -3.77895E+04
  6.91564E+03 -3.74994E+04  3.20230E+04 -1.47300E+04  2.86378E+04  1.14381E+04  3.12498E+03  1.86327E+04
 -1.29060E+04  7.75063E+03 -1.07912E+04 -7.68356E+03  6.32540E+03 -1.09294E+04  1.76813E+04  6.90337E+03
  1.32816E+04  2.20417E+04 -6.14482E+03  2.55530E+04 -2.20917E+04  1.06435E+04 -2.63929E+04 -4.73104E+03
 -1.95399E+04 -1.72678E+04 -8.31101E+03 -1.90648E+04  4.13122E+03 -1.86861E+04  1.41551E+04 -1.69149E+04
  2.68722E+04 -1.17699E+04  3.17933E+04  1.90693E+03  2.28876E+04  2.02943E+04  4.59258E+03  3.59590E+04
 -1.54182E+04  3.04814E+04 -2.66662E+04  1.08286E+04 -2.05693E+04 -1.09772E+04 -4.69245E+03 -1.38269E+04
  9.26748E+02 -3.64437E+03 -5.16255E+03  7.45507E+03 -1.52444E+04  6.16977E+03 -1.66502E+04 -7.26867E+03
 -1.03026E+04 -1.86492E+04  5.98319E+03 -2.36450E+04  1.45189E+04 -1.63259E+04  1.79094E+04 -2.11133E+03
  1.02577E+04  1.23533E+04 -4.15198E+02  1.75976E+04 -1.27579E+04  9.64732E+03 -1.78980E+04 -3.65667E+03
 -1.42938E+04 -1.58137E+04 -1.40526E+03 -2.09603E+04  1.06426E+04 -1.85696E+04  1.84308E+04 -8.81473E+03
  1.76115E+04  1.33864E+03  1.32340E+04  4.95622E+03  6.56096E+03  3.80537E+02  9.01621E+03 -9.64946E+02
  1.66268E+04  2.57383E+03  1.90359E+04  1.52164E+04  1.23981E+04  2.90979E+04 -3.15002E+03  3.49723E+04
 -1.95375E+04  2.79997E+04 -3.16774E+04  1.30697E+04 -3.37769E+04 -2.46552E+03 -2.76683E+04 -1.81202E+04
 -1.21025E+04 -2.71505E+04  7.71793E+03 -2.49007E+04  2.03371E+04 -1.24698E+04  1.89524E+04  4.68632E+03
  7.78097E+03  1.35167E+04 -9.83112E+03  1.20963E+04 -1.63382E+04  2.83255E+03 -1.21330E+04 -9.30227E+03
  4.02263E+02 -1.50918E+04  6.79295E+03 -1.10669E+04  1.09873E+04 -1.38211E+03  1.31233E+03  5.98498E+03
 -7.29222E+03  2.14766E+03 -5.69096E+03 -5.10716E+03 -3.05294E+02 -1.30634E+04  9.65768E+03 -1.41810E+04
  1.67022E+04 -6.55863E+03  1.81726E+04  3.88111E+03  1.48970E+04  1.40778E+04  6.59380E+03  2.03406E+04
 -2.08195E+03  2.09400E+04 -1.35255E+04  1.34716E+04 -1.56458E+04  3.71621E+03 -9.66166E+03 -2.22835E+03
 -5.42876E+03 -5.13323E+03 -7.88567E+02  2.59940E+03 -2.73385E+03  1.17191E+03 -5.29431E+03  4.56485E+03
 -1.12188E+04 -1.12684E+03 -1.18733E+04 -9.14162E+03 -4.64041E+03 -1.43294E+04  4.25357E+03 -1.21313E+04
  1.06044E+04 -5.09935E+03  6.27679E+03  2.98488E+03  2.80630E+02  4.87486E+03 -5.04642E+03 -1.33001E+03
 -5.78897E+03 -6.08191E+03 -1.32814E+03 -1.06457E+04  6.87287E+03 -1.08327E+04  1.31616E+04 -5.89682E+03
  1.66975E+04  1.09244E+03  1.18579E+04  8.90031E+03  2.08592E+03  1.26323E+04 -5.99603E+03  1.03516E+04
 -1.00801E+04  3.29052E+03 -4.78260E+03 -1.47042E+03  2.44952E+02 -2.73347E+03  4.48817E+03 -2.76258E+02
  4.05649E+03  3.23039E+03  9.50211E+02  8.21511E+03 -6.89377E+03  8.93147E+03 -1.07968E+04  2.25817E+03
 -5.55718E+03 -4.41323E+03  9.38067E+02 -8.90196E+03  5.53851E+03 -4.49779E+03  4.38032E+03  8.54419E+02
  8.23796E+02  5.14089E+03 -6.08807E+03  7.95150E+03 -8.59288E+03  3.60906E+03 -8.82147E+03 -1.11529E+03
 -4.43385E+03 -1.03422E+04  1.66741E+03 -1.11707E+04  9.05866E+03 -7.23910E+03  1.07951E+04  1.76629E+03
  6.39472E+03  9.54849E+03 -2.17130E+02  1.06849E+04 -7.27756E+03  5.52900E+03 -7.23881E+03 -3.00828E+02
 -6.54505E+03 -8.01517E+03 -1.45773E+03 -7.72663E+03  4.96436E+03 -6.28893E+03  4.92344E+03 -3.16078E+03
  3.80367E+03  5.86732E+02 -3.79410E+02  1.43933E+03  1.94944E+02 -1.97856E+03 -4.40346E+02 -3.64884E+03
  6.42879E+03 -2.52542E+03  8.81292E+03  1.34583E+03  9.61679E+03  5.15917E+03  6.23129E+03  1.22241E+04
 -2.19868E+03  1.31859E+04 -1.18428E+04  1.08226E+04 -1.48670E+04  1.50498E+03 -1.20999E+04 -3.55678E+03
 -7.56894E+03 -1.11126E+04  3.37471E+02 -9.52820E+03  3.35506E+03 -3.92775E+03  3.19858E+03 -4.47491E+03
  2.64527E+03 -2.04008E+03  2.36472E+03 -2.19483E+03  4.19106E+03 -1.06297E+03  4.84665E+03 -5.78909E+02
  7.19729E+03  1.93960E+03  3.76939E+03  5.41057E+03 -1.86155E+03  5.32250E+03 -6.52801E+03  3.78286E+03
 -8.23660E+03 -2.11342E+03 -4.50890E+03 -5.27609E+03  7.10715E+02 -8.39031E+03  5.14653E+03 -7.78581E+03
  1.04665E+04 -5.62382E+03  1.07429E+04  1.70963E+03  9.54669E+03  9.29464E+03  2.41697E+03  9.35976E+03
 -3.99559E+03  8.14730E+03 -6.38750E+03  3.44403E+03 -3.40451E+03 -5.54907E+02 -1.67616E+03 -1.00189E+03
 -9.83966E+02 -1.26091E+03 -1.11089E+03  2.57700E+03 -3.99013E+03  1.57489E+03 -5.46154E+03 -2.39139E+02
 -3.88789E+03 -5.48314E+03  9.59984E+02 -7.59245E+03  4.39200E+03 -7.02724E+03  6.91869E+03 -2.16842E+03
  8.36363E+03  3.23355E+03  3.35627E+03  7.58416E+03 -1.44057E+03  8.00017E+03 -4.14022E+03  5.69474E+03
 -7.40575E+03  1.18774E+03 -6.32111E+03 -4.28634E+03 -8.20925E+02 -6.45806E+03  3.10438E+03 -4.74710E+03
  4.60145E+03 -2.14628E+03  3.75649E+03  2.38167E+02  7.81554E+02  2.75616E+03  1.99456E+03  4.57593E+02
  4.66199E+02  2.38414E+02  2.71886E+03  1.35310E+03  6.91796E+02  3.90002E+03  2.28855E+03  4.46341E+03
 -1.58988E+03  5.66887E+03 -5.15976E+03  7.65050E+03 -6.92689E+03  1.48789E+03 -8.03971E+03 -7.15637E+02
 -3.21403E+03 -7.22104E+03  8.76537E+02 -8.55883E+03  4.97378E+03 -5.31808E+03  6.93153E+03 -1.41941E+03
  5.19305E+03  2.62724E+03  9.50662E+02  4.78151E+03 -2.52293E+03  2.01543E+03 -3.14411E+03 -6.01326E+02
 -1.84011E+03 -3.23548E+03  2.27901E+03 -2.88526E+03  3.08445E+03 -1.71282E+03  1.50253E+03  2.42690E+02
  2.12243E+03  6.58014E+02  6.32479E+02  6.67397E+02  1.84927E+02  2.78270E+02  2.47496E+03 -4.34459E+02
  9.35296E+02 -7.01744E+01  2.95806E+03  1.71230E+03  1.07450E+03  4.13524E+03 -5.41153E+02  5.17646E+03
 -3.77540E+03  2.84833E+03 -4.21809E+03  2.14997E+02 -4.48474E+03 -1.43344E+03 -1.70661E+03 -2.24427E+03
 -6.80838E+01 -3.34198E+03  2.22903E+03 -1.77694E+03  2.16006E+03  1.29178E+03 -1.43872E+03  2.14100E+03
 -1.73490E+03 -6.29472E+01 -1.79429E+03 -9.59984E+02 -1.09511E+03 -3.57816E+03  1.53861E+02 -4.35373E+03
  2.31856E+03 -1.39634E+03  2.32178E+03  5.89600E+02  3.02076E+03 -6.32100E+02  6.50479E+02  2.72199E+03
 -4.35749E+02  3.23444E+02 -1.86298E+03 -6.73755E+02  1.42147E+03 -2.44877E+03  2.68899E+03 -6.03171E+02
  4.52997E+03 -8.47282E+02  5.37496E+03  2.68627E+03  1.23251E+03  3.79863E+03 -1.98584E+03  3.65237E+03
 -3.52247E+03  1.79086E+03 -3.06962E+03 -2.08913E+02 -1.05008E+03 -3.69898E+03  1.06246E+03 -1.92152E+03
  2.76046E+03 -2.14334E+03  3.42251E+03  5.51019E+02  1.39988E+03  2.39986E+03 -1.33533E+03  2.55018E+03
 -1.20044E+03  2.53220E+03 -1.45845E+03  1.98094E+02  5.77258E+02  6.96614E+02 -1.22112E+03  1.90264E+03
 -1.38650E+03  1.61617E+03 -2.83128E+03  1.45644E+03 -3.47785E+03  7.96120E+02 -5.15440E+03 -2.75623E+03
 -2.33861E+03 -4.64561E+03  1.64249E+03 -6.94973E+03  3.32239E+03 -4.80534E+03  5.81862E+03 -1.41986E+03
  6.00772E+03  1.04220E+03  2.79169E+03  2.88319E+03 -3.27545E+02  3.35549E+03 -1.72502E+03  2.98945E+03
 -2.61153E+03  1.04329E+03 -1.16896E+03 -7.06812E+02 -5.52054E+02 -1.17245E+02 -6.35473E+02  2.16419E+02
 -1.60865E+03  3.35197E+01 -1.21681E+03  3.68283E+02  6.09472E+02 -1.45951E+03  1.21492E+02 -9.52438E+02
  2.58619E+03 -1.14965E+03  2.50451E+03  2.25266E+02  3.27332E+03  1.95148E+03  5.00634E+02  5.10594E+03
 -2.26086E+03  3.07350E+03 -3.63525E+03  2.22881E+03 -5.13772E+03 -5.19398E+02 -3.27200E+03 -3.06460E+03
 -2.21921E+03 -3.27119E+03 -9.55816E+02 -4.87642E+03  5.33737E+02 -1.53854E+03  2.76849E+03 -6.13711E+02
  3.00249E+03  8.54428E+02 -2.12864E+01  1.31172E+03 -7.73832E+02  2.20696E+02 -1.32743E+02 -3.21592E+02
  9.78262E+02 -8.62789E+01  5.87215E+02  1.73018E+03  3.59126E+00  2.41343E+03 -2.35049E+02  3.15142E+03
 -1.20258E+03  1.19014E+03 -1.25376E+03  1.68075E+02 -3.29563E+03 -1.45372E+03 -3.85659E+02 -3.37847E+03
  1.65668E+03 -1.96125E+03  2.22786E+03  1.36603E+03  2.71449E+03 -5.61292E+02  1.83989E+03  4.10201E+03
  6.82189E+02  2.54651E+03 -8.39793E+02  2.53106E+03 -1.98797E+03  1.53815E+03 -8.62331E+02 -3.75412E+02
 -6.79160E+02 -6.53981E+02 -1.54156E+03 -3.03390E+02 -1.78004E+03  5.05286E+02 -1.36039E+03 -6.96341E+02
 -1.35151E+03 -9.79476E+02 -9.58732E+02 -2.78767E+03  7.81668E+02 -2.18750E+03  2.86116E+03 -1.50331E+03
  2.35490E+03  7.99414E+02  1.94399E+03  1.71437E+03 -4.45320E+02  1.72349E+03 -8.54918E+02  4.39318E+02
