 $NMID ID='MM_0lb_SNR200_17hz_g60_36.RAW', FMTDAT='(8E13.5)'
 TRAMP=1., VOLUME=1. $END
  3.09982E+05  8.91802E+02  3.38207E+05  2.51150E+05  8.45934E+04  3.38566E+05 -1.31540E+05  2.51277E+05
 -1.91164E+05  8.39769E+04 -1.11742E+05 -3.24265E+04  8.55812E+02 -4.98395E+04  5.37860E+04 -1.45801E+03
  3.56725E+04  5.40356E+04 -1.78399E+04  7.47791E+04 -6.10165E+04  6.26341E+04 -8.36469E+04  3.30460E+04
 -8.08302E+04 -1.07922E+04 -5.72235E+04 -5.11016E+04 -1.54965E+04 -6.92552E+04  2.64134E+04 -4.57143E+04
  4.02750E+04  4.17426E+03  1.69350E+04  4.74463E+04 -3.31271E+04  4.77073E+04 -6.58893E+04  1.26196E+02
 -5.34585E+04 -5.63756E+04 -7.71782E+03 -7.70020E+04  3.29552E+04 -5.56913E+04  4.84295E+04 -1.74663E+04
  4.21751E+04  1.19367E+04  3.30637E+04  2.62022E+04  1.58662E+04  2.85892E+04 -5.51719E+03  2.70041E+04
 -2.27830E+04  1.23730E+04 -1.85755E+04 -5.12277E+03  4.91513E+03 -7.03647E+03  2.22370E+04  1.29367E+04
  6.81174E+03  3.58143E+04 -3.20159E+04  3.48968E+04 -6.33921E+04  1.88744E+03 -5.64370E+04 -4.24855E+04
 -1.24348E+04 -6.37763E+04  3.90377E+04 -4.49978E+04  5.87226E+04 -1.90932E+03  3.38307E+04  3.21916E+04
 -5.53910E+03  3.51219E+04 -3.02906E+04  1.56559E+04 -2.88801E+04 -4.98546E+03 -1.60756E+04 -1.09747E+04
 -7.93932E+03 -1.16689E+04 -1.79878E+02 -1.79831E+04  7.08691E+03 -2.26155E+04  1.60557E+04 -1.42125E+04
  1.18300E+04  4.70402E+03 -7.66246E+03  1.26330E+04 -2.07122E+04 -4.11948E+03 -1.03863E+04 -3.33212E+04
  2.19415E+04 -4.35783E+04  4.74999E+04 -1.98844E+04  4.56618E+04  1.84458E+04  1.58263E+04  4.34838E+04
 -1.55860E+04  3.23552E+04 -2.58326E+04  2.19114E+03 -9.21571E+03 -2.77869E+04  2.02265E+04 -3.36398E+04
  4.09206E+04 -9.00112E+03  3.47477E+04  2.35035E+04  1.77287E+04  4.60461E+04 -7.84733E+03  4.81131E+04
 -3.14098E+04  3.43900E+04 -4.04368E+04  9.04890E+03 -4.21757E+04 -1.51145E+04 -2.34007E+04 -3.70310E+04
  6.87785E+03 -3.59108E+04  3.07671E+04 -1.35986E+04  2.72425E+04  1.09034E+04  3.27612E+03  1.81263E+04
 -1.35072E+04  6.95293E+03 -1.02446E+04 -7.01770E+03  4.58590E+03 -9.23433E+03  1.89122E+04  6.57417E+03
  1.27951E+04  2.11647E+04 -6.60880E+03  2.57454E+04 -2.22765E+04  1.14628E+04 -2.73173E+04 -4.90620E+03
 -2.07595E+04 -1.67939E+04 -8.46265E+03 -1.98188E+04  3.10029E+03 -1.80711E+04  1.45725E+04 -1.69776E+04
  2.52947E+04 -1.12780E+04  3.11639E+04  1.70611E+03  2.19738E+04  1.93787E+04  5.14680E+03  3.44817E+04
 -1.64226E+04  2.94169E+04 -2.65090E+04  1.08312E+04 -1.92477E+04 -9.77224E+03 -4.52867E+03 -1.38474E+04
  2.00088E+03 -3.28613E+03 -5.06314E+03  6.14591E+03 -1.60119E+04  5.00387E+03 -1.52459E+04 -6.28788E+03
 -9.75445E+03 -1.88551E+04  4.76066E+03 -2.18852E+04  1.40446E+04 -1.52972E+04  1.66487E+04 -1.34023E+03
  9.52519E+03  1.19368E+04 -1.02500E+03  1.87518E+04 -1.14591E+04  1.05500E+04 -1.76323E+04 -3.96855E+03
 -1.49214E+04 -1.57417E+04 -2.74814E+03 -2.11380E+04  9.56887E+03 -1.68403E+04  1.97004E+04 -7.96549E+03
  1.61950E+04  1.21726E+03  1.13132E+04  4.97236E+03  5.52684E+03  9.84497E+02  7.76213E+03 -2.43873E+03
  1.70279E+04  2.85367E+03  1.83411E+04  1.34249E+04  1.20116E+04  2.88540E+04 -2.46189E+03  3.02145E+04
 -1.79657E+04  2.52486E+04 -2.99627E+04  1.19527E+04 -3.07044E+04 -2.29361E+03 -2.54930E+04 -1.78554E+04
 -1.12466E+04 -2.59023E+04  7.99344E+03 -2.23578E+04  1.89314E+04 -1.26660E+04  1.82977E+04  4.16255E+03
  6.99611E+03  1.25516E+04 -8.52386E+03  1.25502E+04 -1.52970E+04  2.38861E+03 -1.16953E+04 -7.84570E+03
  5.55573E+02 -1.39554E+04  7.33169E+03 -1.07471E+04  9.30381E+03 -1.98672E+03  2.28526E+03  5.78832E+03
 -6.48527E+03  2.53472E+03 -5.65285E+03 -5.60555E+03 -2.69404E+02 -1.20541E+04  8.46600E+03 -1.13262E+04
  1.39878E+04 -6.07926E+03  1.59477E+04  4.08339E+03  1.37108E+04  1.25775E+04  6.17982E+03  1.70679E+04
 -2.28900E+03  2.02332E+04 -1.35259E+04  1.34986E+04 -1.40475E+04  3.11734E+03 -9.69938E+03 -3.03242E+03
 -4.98275E+03 -5.48789E+03 -3.40829E+02  1.77820E+03 -9.03532E+02  9.63740E+02 -4.96285E+03  4.26505E+03
 -8.98995E+03 -1.45815E+03 -1.10708E+04 -7.22014E+03 -3.06009E+03 -1.33739E+04  4.06636E+03 -9.47371E+03
  9.66182E+03 -4.37271E+03  6.02753E+03  3.81751E+03  4.43449E+02  3.84796E+03 -3.96236E+03 -1.17680E+03
 -3.94990E+03 -6.40039E+03 -1.01803E+03 -9.03350E+03  5.11120E+03 -9.81663E+03  1.22830E+04 -4.74334E+03
  1.38462E+04  7.21921E+02  1.10727E+04  7.90491E+03  2.56830E+03  1.02515E+04 -6.59936E+03  9.19070E+03
 -7.89667E+03  3.71321E+03 -3.31472E+03 -7.37865E+02  1.31913E+03 -1.96070E+03  5.25291E+03 -3.49412E+02
  4.97354E+03  3.51839E+03  2.00358E+03  8.86766E+03 -4.95517E+03  7.79299E+03 -9.64984E+03  1.79594E+03
 -6.46815E+03 -5.74140E+03  1.37406E+02 -8.34576E+03  5.01679E+03 -3.88423E+03  4.51300E+03  1.75234E+03
  8.76029E+02  4.69566E+03 -4.42232E+03  5.64627E+03 -6.14824E+03  2.82545E+03 -5.92850E+03 -1.55706E+03
 -3.73313E+03 -7.95394E+03  1.83899E+03 -9.69439E+03  8.02124E+03 -5.27324E+03  8.07710E+03  2.38145E+03
  5.37321E+03  7.06810E+03 -1.51634E+03  8.64853E+03 -6.34114E+03  4.94869E+03 -7.16649E+03 -1.83096E+03
 -6.46627E+03 -5.84356E+03 -1.52063E+03 -6.85533E+03  3.24086E+03 -6.01781E+03  3.53138E+03 -3.43075E+03
  2.96306E+03  1.43145E+03  3.50213E+01  2.20604E+03  1.26623E+03 -7.65819E+02 -1.20764E+02 -2.29991E+03
  4.73904E+03 -2.07343E+03  7.95013E+03  4.35953E+02  8.38042E+03  3.99891E+03  5.58361E+03  1.01537E+04
 -2.20772E+03  1.13081E+04 -9.09686E+03  9.96228E+03 -1.30887E+04  1.35711E+03 -9.85562E+03 -3.02489E+03
 -4.42070E+03 -7.86987E+03 -4.16999E+02 -5.93649E+03  2.55470E+03 -3.84084E+03  2.84094E+03 -2.59839E+03
  2.58262E+03 -1.68071E+03  2.75889E+03 -1.99157E+03  4.64895E+03 -3.24766E+03  3.88566E+03  6.46119E+01
  5.34844E+03  7.52216E+02  2.75337E+03  4.50316E+03 -1.82276E+03  5.88744E+03 -5.21274E+03  2.64669E+03
 -6.54683E+03 -1.48542E+03 -3.78356E+03 -3.73180E+03 -6.72594E+02 -6.39121E+03  3.55088E+03 -6.36438E+03
  7.23119E+03 -3.26902E+03  9.04092E+03 -6.66989E+02  6.44653E+03  6.13855E+03  1.65655E+03  7.11138E+03
 -3.23563E+03  7.95946E+03 -5.37316E+03  2.77824E+03 -2.43639E+03 -7.73320E+02 -1.07373E+03 -1.62723E+03
  8.98385E+02  1.12212E+03 -1.30817E+03  1.16881E+03 -2.66885E+03  1.69780E+03 -4.64369E+03 -4.86448E+02
 -3.10025E+03 -4.94069E+03  7.19431E+02 -5.21165E+03  2.53799E+03 -5.94153E+03  5.07204E+03 -1.04984E+03
  4.34414E+03  2.53327E+03  2.85629E+03  4.78190E+03 -2.20087E+03  5.21065E+03 -2.73713E+03  2.90666E+03
 -5.84107E+03 -4.02162E+02 -4.24781E+03 -3.15135E+03  3.69451E+02 -4.43880E+03  3.47152E+03 -4.09087E+03
  4.14082E+03 -8.50251E+02  2.94960E+03  6.22378E+02  6.25407E+02  1.92036E+03  1.00470E+03  1.83590E+03
  1.62320E+03  1.22568E+02  1.28030E+03  8.23110E+02  1.35543E+03  2.03582E+03  2.06600E+03  2.25059E+03
 -1.38588E+03  3.70754E+03 -2.93763E+03  4.53874E+03 -4.53675E+03  9.97778E+02 -5.44509E+03 -7.17425E+02
 -2.29435E+03 -5.74402E+03  8.50198E+02 -4.76252E+03  3.02310E+03 -4.57789E+03  4.57463E+03 -1.25542E+03
  3.58995E+03  1.70730E+03  9.01794E+02  3.29904E+03 -2.77803E+02  1.34729E+03 -1.46004E+03 -8.46783E+02
 -8.87424E+02 -2.43215E+03  1.80752E+03 -2.75407E+03  1.89429E+03 -5.86863E+02  9.46677E+02  3.26544E+02
  5.36525E+02 -1.49206E+02  1.00395E+03 -1.61836E+02  1.82285E+01  8.67781E+01  1.42926E+03  2.22411E+02
 -4.54475E+02 -7.41039E+02  2.87855E+03  3.87744E+00  2.91375E+02  2.03704E+03 -5.95336E+02  4.08478E+03
 -1.69850E+03  2.31240E+03 -1.21841E+03  3.10834E+02 -2.73974E+03 -4.42800E+02  2.09689E+01 -1.82888E+03
  9.18953E+01 -1.71379E+03  1.06491E+03 -1.12679E+03  4.61702E+02  1.27578E+03 -4.41314E+02  4.32127E+02
 -2.51121E+03  2.11327E+03 -1.84103E+03 -1.12171E+03 -1.32161E+03 -2.89193E+03  3.80912E+02 -1.52889E+03
  9.29877E+02 -1.98770E+03  1.14592E+03 -5.29743E+02  2.32628E+03 -2.37717E+02  8.69648E+02  1.27420E+03
 -1.40506E+03  7.09584E+02 -4.70594E+02  2.46707E+02 -6.52791E+01 -9.09716E+02  1.98135E+03 -1.19890E+03
  1.67212E+03 -7.18098E+02  3.66991E+03  1.18396E+03  1.09709E+03  3.08218E+03 -2.79073E+02  2.17486E+03
 -1.83686E+03  1.11558E+03 -2.57937E+03 -1.31445E+03 -2.22653E+02 -2.27942E+03  2.55956E+02 -2.46007E+03
  1.84552E+03 -3.27992E+02  4.07093E+02 -1.67986E+02  8.77065E+02  1.71089E+03  9.45516E+01  1.13487E+03
 -7.61310E+02  1.08072E+03 -7.19659E+02  1.48265E+02  8.95873E+02 -2.05655E+02  6.58753E+02  2.85511E+02
 -5.97490E+02  7.60030E+02 -2.51196E+03  4.66272E+02 -2.11655E+03 -2.15118E+02 -3.23091E+03 -2.16012E+03
 -1.81687E+03 -3.64909E+03  6.64633E+02 -4.15084E+03  2.06122E+03 -3.40915E+03  4.19431E+03 -1.36043E+03
  3.16161E+03  3.27006E+02  8.65670E+02  1.94880E+03 -7.87097E+02  2.62613E+03  3.96203E+02  2.27528E+03
 -3.46501E+02  1.76904E+03 -7.30764E+02 -2.36222E+02 -1.24372E+03  5.74719E+02 -1.37577E+03 -6.79898E+02
 -3.71016E+02  3.54430E+02 -1.16828E+03  4.95078E+02  5.32555E+01 -8.81920E+00 -1.54490E+03 -1.44850E+03
  1.59401E+03 -1.01652E+03  8.92951E+02 -1.02330E+02  1.78792E+03  8.99048E+02 -8.16116E+02  1.41092E+03
 -7.85425E+02  1.86869E+03 -2.82692E+03  1.38805E+03 -3.14253E+03  3.08866E+02 -1.31574E+03 -2.04886E+03
 -1.09285E+03 -1.72696E+03  3.76886E+02 -1.68765E+03 -1.77102E+02 -1.67856E+03  1.35552E+03 -6.85020E+02
  1.06642E+03 -1.80541E+01 -1.16174E+01  5.55723E+02 -8.33061E+02 -5.20688E+01  2.94287E+02  3.64296E+02
  5.54297E+02  2.83052E+02  1.14494E+03  3.05963E+02  6.93213E+02  3.42027E+02  1.50578E+02  1.09582E+03
 -1.43923E+03  2.28318E+03 -5.36715E+02  2.36346E+02 -4.41093E+02  2.06023E+02  4.70905E+02 -1.58167E+03
  9.35220E+02 -1.25389E+02  3.24946E+02 -5.43613E+02  1.20817E+03 -1.68378E+02  1.33234E+02  6.49920E+02
  4.39983E+02  6.45995E+02 -1.15477E+03  1.98243E+03 -4.61963E+02 -2.29347E+02 -2.43032E+02 -9.53880E+02
  7.79173E+02 -5.54237E+02 -6.29730E+02  7.17086E+02  7.31431E+02  2.49671E+02 -1.77390E+03  5.17251E+02
 -1.32313E+03  7.41231E+02  4.20646E+02 -7.67656E+02  6.34495E+02 -1.16723E+03  1.32977E+03 -8.08774E+02
  6.73463E+02 -2.27723E+02  8.80746E+02  1.53257E+03 -7.83483E+01  2.15739E+03  1.38431E+01  1.34134E+03
