 $NMID ID='MM_0lb_SNR200_13hz_g45_96.RAW', FMTDAT='(8E13.5)'
 TRAMP=1., VOLUME=1. $END
  3.09871E+05  1.05338E+03  3.38243E+05  2.50520E+05  8.58812E+04  3.38980E+05 -1.33429E+05  2.51740E+05
 -1.90735E+05  8.26442E+04 -1.10618E+05 -3.34902E+04  3.37497E+01 -5.11539E+04  5.36049E+04  2.04268E+02
  3.49088E+04  5.22046E+04 -1.77664E+04  7.52248E+04 -6.02491E+04  6.42860E+04 -8.47493E+04  3.17564E+04
 -8.19235E+04 -1.20948E+04 -5.72090E+04 -5.11322E+04 -1.56453E+04 -6.90268E+04  2.74821E+04 -4.57010E+04
  4.03602E+04  2.95967E+03  1.71537E+04  4.80445E+04 -3.41199E+04  4.82878E+04 -6.69566E+04 -2.03346E+02
 -5.27739E+04 -5.65091E+04 -7.97735E+03 -7.85433E+04  3.42274E+04 -5.40049E+04  4.74706E+04 -1.83966E+04
  4.44094E+04  1.27541E+04  3.10614E+04  2.44947E+04  1.64559E+04  2.87200E+04 -5.31826E+03  2.73450E+04
 -2.16935E+04  1.28942E+04 -1.89768E+04 -4.62911E+03  5.76557E+03 -7.95941E+03  2.23658E+04  1.23619E+04
  7.78478E+03  3.45804E+04 -3.05056E+04  3.64529E+04 -6.32807E+04  2.71712E+03 -5.81676E+04 -4.27979E+04
 -1.17555E+04 -6.33916E+04  4.08840E+04 -4.47885E+04  5.87609E+04 -2.88713E+03  3.42783E+04  3.32421E+04
 -5.41970E+03  3.60595E+04 -2.94264E+04  1.62127E+04 -2.95859E+04 -3.41729E+03 -1.58374E+04 -1.15595E+04
 -7.35144E+03 -1.37687E+04 -2.93767E+02 -1.87653E+04  6.68969E+03 -2.34770E+04  1.48073E+04 -1.29743E+04
  1.19717E+04  5.12944E+03 -9.63293E+03  1.47274E+04 -2.14495E+04 -4.75366E+03 -8.82536E+03 -3.41316E+04
  2.35052E+04 -4.40337E+04  4.85259E+04 -1.95066E+04  4.51724E+04  2.00461E+04  1.66717E+04  4.52038E+04
 -1.61519E+04  3.44069E+04 -2.55057E+04  1.81908E+03 -9.69456E+03 -2.61084E+04  1.97930E+04 -3.40551E+04
  4.09859E+04 -9.19995E+03  3.51803E+04  2.30189E+04  1.79080E+04  4.71953E+04 -8.04576E+03  5.03130E+04
 -3.17492E+04  3.45517E+04 -4.19110E+04  9.42827E+03 -4.29513E+04 -1.78090E+04 -2.41490E+04 -3.69774E+04
  6.96576E+03 -3.84300E+04  3.20764E+04 -1.50699E+04  2.93896E+04  1.10217E+04  3.36504E+03  1.91802E+04
 -1.44347E+04  8.79385E+03 -1.08135E+04 -7.38707E+03  6.61863E+03 -1.16437E+04  1.84157E+04  6.07146E+03
  1.28261E+04  2.08165E+04 -5.46006E+03  2.60656E+04 -2.33792E+04  1.30619E+04 -2.83194E+04 -4.59382E+03
 -2.07775E+04 -1.76762E+04 -8.92345E+03 -2.08953E+04  3.91111E+03 -2.07127E+04  1.66748E+04 -1.89794E+04
  2.63824E+04 -1.19484E+04  3.28454E+04  2.62393E+03  2.42288E+04  2.07293E+04  3.90825E+03  3.66282E+04
 -1.78224E+04  3.12742E+04 -2.67869E+04  1.11328E+04 -2.27462E+04 -1.09362E+04 -5.32668E+03 -1.46519E+04
  2.10194E+03 -2.67505E+03 -6.89997E+03  7.54279E+03 -1.61567E+04  4.42709E+03 -1.72753E+04 -7.62547E+03
 -1.05976E+04 -1.90218E+04  5.52524E+03 -2.34998E+04  1.58377E+04 -1.76676E+04  1.90740E+04 -1.51066E+03
  1.10905E+04  1.28775E+04 -2.08724E+03  1.98384E+04 -1.23218E+04  1.08848E+04 -1.92483E+04 -3.75341E+03
 -1.40638E+04 -1.81218E+04 -7.72500E+02 -2.28250E+04  1.05030E+04 -1.99760E+04  1.98005E+04 -1.00871E+04
  1.71300E+04  5.80675E+02  1.27569E+04  5.35053E+03  7.54100E+03  6.18497E+02  1.04758E+04 -1.71200E+03
  1.73661E+04  2.64157E+03  2.07141E+04  1.62439E+04  1.33684E+04  3.02027E+04 -2.21438E+03  3.58716E+04
 -2.01674E+04  2.82116E+04 -3.30060E+04  1.37112E+04 -3.34874E+04 -2.36964E+03 -2.69787E+04 -2.03730E+04
 -1.28019E+04 -2.85791E+04  1.04943E+04 -2.59929E+04  2.27588E+04 -1.27043E+04  2.05480E+04  4.51050E+03
  8.73780E+03  1.49847E+04 -9.42814E+03  1.37450E+04 -1.72636E+04  2.17333E+03 -1.24225E+04 -1.01471E+04
  6.12352E+01 -1.59990E+04  7.54548E+03 -1.23090E+04  1.07998E+04 -1.51048E+03  9.57961E+02  7.18531E+03
 -6.36498E+03  3.32694E+03 -6.49810E+03 -5.94028E+03 -6.00475E+02 -1.41010E+04  1.10219E+04 -1.46089E+04
  1.68192E+04 -8.39593E+03  1.77279E+04  2.81604E+03  1.62893E+04  1.39789E+04  7.21157E+03  2.15261E+04
 -4.43368E+03  2.41871E+04 -1.47841E+04  1.38735E+04 -1.60046E+04  3.37423E+03 -1.16623E+04 -4.15312E+03
 -5.43378E+03 -4.84897E+03 -1.54081E+03  8.26936E+02 -2.02692E+03  3.06925E+03 -5.67922E+03  5.36969E+03
 -1.11893E+04 -1.23567E+02 -1.12478E+04 -1.00654E+04 -4.93003E+03 -1.46799E+04  4.01255E+03 -1.25979E+04
  1.00566E+04 -4.49108E+03  7.31307E+03  4.08632E+03 -6.86492E+02  4.44460E+03 -5.87623E+03 -4.06654E+02
 -4.84248E+03 -6.46374E+03 -3.50619E+02 -1.03787E+04  6.57570E+03 -1.14500E+04  1.46943E+04 -5.39897E+03
  1.75939E+04  1.56437E+03  1.20166E+04  1.05183E+04  3.23245E+03  1.33854E+04 -8.71378E+03  1.00383E+04
 -1.07856E+04  3.91363E+03 -5.42971E+03 -3.48630E+03  1.54455E+03 -2.93352E+03  5.84060E+03 -1.79890E+03
  5.88953E+03  4.89061E+03  1.32816E+03  8.79993E+03 -6.89143E+03  1.02580E+04 -1.23148E+04  2.71095E+03
 -6.97192E+03 -4.89011E+03 -4.42772E+01 -8.78743E+03  5.87208E+03 -4.78684E+03  5.92101E+03  2.33205E+03
  1.23123E+03  6.93427E+03 -6.34733E+03  6.68921E+03 -8.63421E+03  3.45896E+03 -8.36065E+03 -4.26820E+03
 -6.25179E+03 -1.06828E+04  1.83965E+03 -1.21364E+04  9.87690E+03 -6.49703E+03  9.92354E+03  9.37214E+02
  6.67006E+03  8.29383E+03 -8.31735E+02  1.10011E+04 -8.52787E+03  5.73411E+03 -9.53390E+03 -4.11306E+02
 -8.13354E+03 -7.03819E+03 -3.00890E+03 -8.11255E+03  4.83682E+03 -6.62953E+03  4.17247E+03 -2.70934E+03
  3.94629E+03  5.68578E+02 -2.75150E+02  2.49725E+03 -9.38405E+02 -2.13987E+03  1.71703E+03 -4.43965E+03
  8.56158E+03 -9.96392E+02  1.05822E+04  9.19643E+02  1.02158E+04  7.95704E+03  7.23114E+03  1.37515E+04
 -3.08216E+03  1.59158E+04 -1.39217E+04  1.25252E+04 -1.85853E+04  2.54608E+03 -1.42031E+04 -6.32343E+03
 -6.96803E+03 -1.08705E+04 -7.76930E+02 -8.50001E+03  3.67842E+03 -5.01812E+03  2.67611E+03 -2.81102E+03
  3.05525E+03 -1.59375E+03  3.69750E+03 -4.26946E+03  4.32837E+03 -1.99441E+03  5.01974E+03  5.88004E+02
  7.16919E+03  2.26738E+03  3.21416E+03  6.21526E+03 -7.24615E+02  6.00818E+03 -7.52698E+03  4.13992E+03
 -9.34935E+03 -2.76123E+03 -5.38322E+03 -5.62638E+03 -1.29652E+03 -8.84711E+03  5.02635E+03 -1.08859E+04
  1.02559E+04 -5.40907E+03  1.21257E+04  2.04950E+03  8.57726E+03  9.05640E+03  2.45646E+03  1.18993E+04
 -4.11384E+03  9.95449E+03 -4.68662E+03  3.09395E+03 -4.47416E+03 -2.28027E+02 -1.21267E+03 -6.93218E+02
 -1.68954E+02 -7.59953E+02 -2.90145E+02  2.56224E+03 -4.29610E+03  1.37248E+03 -6.28925E+03  1.40411E+02
 -4.66880E+03 -6.19969E+03  9.39784E+02 -9.63599E+03  5.75596E+03 -9.35950E+03  7.09549E+03 -2.68166E+03
  8.60486E+03  4.38427E+03  4.66326E+03  7.81903E+03 -2.61713E+03  9.41681E+03 -5.10305E+03  5.62053E+03
 -8.18018E+03  3.83357E+00 -6.88760E+03 -4.60109E+03 -3.95290E+02 -6.69145E+03  3.53744E+03 -5.00268E+03
  4.85855E+03 -1.78003E+03  4.64647E+03  7.15271E+02  6.05765E+02  2.36146E+03  2.68003E+03  1.12757E+03
  1.57318E+03  7.34405E+02  2.80698E+03 -6.66162E+00  3.15232E+03  4.12165E+03  2.37374E+03  2.41918E+03
 -2.20693E+03  6.72928E+03 -4.86790E+03  5.91702E+03 -8.84829E+03  2.31883E+03 -1.06620E+04 -2.75939E+03
 -4.09763E+03 -8.46449E+03  1.72984E+03 -9.28258E+03  4.33502E+03 -5.56031E+03  6.67560E+03  7.37663E+01
  5.38294E+03  2.94692E+03  1.65982E+03  4.32110E+03 -1.59856E+03  3.63535E+03 -3.13647E+03 -4.49051E+02
 -1.26759E+03 -2.50766E+03  2.53309E+03 -3.29201E+03  3.66570E+03 -1.92834E+03  3.14618E+03  7.12547E+02
  2.07713E+03  1.57977E+03  1.67327E+03 -3.40646E+02 -1.38590E+02  6.89869E+02  2.84589E+02 -5.27417E+00
  1.12262E+03 -5.41179E+02  3.93465E+03  2.53332E+03  2.55924E+03  5.84963E+03 -1.00400E+03  6.39650E+03
 -4.98693E+03  3.36983E+03 -4.80809E+03  2.77990E+02 -5.62761E+03 -1.86312E+03 -1.25121E+03 -4.09302E+03
 -3.73862E+02 -3.10522E+03  2.07456E+03 -2.16931E+03  1.46295E+03  2.37211E+03 -1.48453E+03  4.31026E+03
 -3.50781E+03  1.80465E+03 -3.93586E+03 -2.19213E+03 -1.45761E+03 -4.92223E+03  1.06671E+03 -2.38712E+03
  1.33981E+03 -1.82229E+03  3.40101E+03  5.55398E+01  1.88562E+03  1.05650E+03 -1.92386E+02  9.03380E+02
 -2.36791E+03  6.22513E+02 -1.89207E+03 -4.45434E+02  6.96890E+02 -3.85027E+03  4.11374E+03 -2.82874E+03
  4.83292E+03 -6.52701E+01  5.70553E+03  3.32039E+03  2.31059E+03  4.17968E+03 -7.37262E+02  5.83056E+03
 -4.56176E+03  1.91346E+03 -3.75172E+03 -1.26977E+03 -2.39965E+03 -2.52819E+03  5.91037E+02 -2.87273E+03
  4.64626E+03 -1.20845E+03  1.83193E+03  2.12601E+03  1.75606E+03  3.95142E+03  1.02425E+02  2.65702E+03
 -1.60670E+03  1.31507E+03 -1.57733E+03 -6.12538E+01 -1.68754E+02  6.69861E+02 -1.26532E+03  6.20777E+02
 -3.99889E+02  1.75748E+03 -3.47489E+03  3.05292E+03 -5.61040E+03 -6.32031E+02 -6.92114E+03 -3.08974E+03
 -2.64228E+03 -7.82353E+03  1.04910E+03 -7.39882E+03  4.53841E+03 -5.12372E+03  8.03110E+03 -2.00762E+03
  6.46149E+03  1.62071E+03  3.98984E+03  3.91905E+03  1.10631E+01  4.96302E+03 -2.41380E+03  2.81849E+03
 -3.20276E+03  2.13194E+03 -2.29949E+03  1.40411E+01 -1.01727E+03 -1.04910E+03 -8.39170E+02 -5.36646E+02
 -8.91196E+02 -3.48971E+02 -3.67574E+02  1.95154E+01 -1.20838E+02 -1.24364E+03 -3.13776E+02 -2.15526E+03
  3.57987E+03 -1.47959E+03  1.87429E+03  2.27649E+02  4.13034E+03  2.43525E+03  1.84350E+03  4.86166E+03
 -1.81511E+03  6.95684E+03 -5.27093E+03  3.87609E+03 -5.81647E+03 -7.93382E+02 -4.94810E+03 -4.23965E+03
 -1.66815E+03 -4.97539E+03 -2.50755E+02 -4.02661E+03  3.06358E+03 -2.87168E+03  2.67183E+03  8.28689E+02
  1.78548E+03  1.28437E+03 -1.11009E+03  5.15950E+02 -1.21826E+03 -2.09448E+02  6.21864E+02 -6.27494E+02
  2.60079E+03 -8.47443E+02  1.60033E+03  2.82736E+02  1.51843E+03  2.56849E+03  5.33254E+02  1.56093E+03
 -2.41231E+03  2.48940E+03 -2.94307E+03 -1.37363E+03 -2.93666E+03 -2.55281E+03  1.06045E+03 -3.65274E+03
  1.64381E+03 -2.34322E+03  3.82842E+03 -1.95608E+03  3.63311E+03  1.25894E+03  2.17028E+03  2.65419E+03
  5.29679E+02  3.21797E+03 -6.68758E+02  3.20835E+03  8.15375E+01  6.51324E+02 -1.94119E+03  9.94412E+02
  3.26885E+02 -5.97305E+02 -8.09049E+02  6.67917E+02 -8.22453E+02  1.15623E+02 -2.00921E+03  4.54602E+02
 -3.11249E+03 -1.11641E+03 -9.61960E+01 -2.98419E+03  1.13839E+03 -5.14296E+03  2.49780E+03 -1.22832E+03
  3.58221E+03 -6.75443E+02  1.36293E+03  1.16950E+03  8.43819E+02  2.41063E+03 -6.54406E+02  1.80471E+03
