 $NMID ID='MM_0lb_SNR200_14hz_g45_49.RAW', FMTDAT='(8E13.5)'
 TRAMP=1., VOLUME=1. $END
  3.10311E+05 -2.35361E+02  3.37441E+05  2.50882E+05  8.52876E+04  3.37331E+05 -1.33392E+05  2.51166E+05
 -1.90517E+05  8.19002E+04 -1.11058E+05 -3.32450E+04 -4.69390E+02 -5.06236E+04  5.34232E+04 -1.26834E+02
  3.48023E+04  5.32664E+04 -1.75279E+04  7.58978E+04 -5.98735E+04  6.42732E+04 -8.49665E+04  3.25389E+04
 -8.16410E+04 -1.28371E+04 -5.75500E+04 -5.07172E+04 -1.42385E+04 -6.90681E+04  2.71122E+04 -4.50681E+04
  3.94472E+04  3.17196E+03  1.45167E+04  4.72800E+04 -3.39800E+04  4.80413E+04 -6.63860E+04 -3.87857E+02
 -5.37716E+04 -5.72322E+04 -7.40746E+03 -7.69715E+04  3.49657E+04 -5.55027E+04  4.95958E+04 -1.63592E+04
  4.35158E+04  1.26993E+04  3.18457E+04  2.48192E+04  1.62206E+04  2.90290E+04 -4.94954E+03  2.60332E+04
 -2.27128E+04  1.24400E+04 -1.86644E+04 -4.41924E+03  5.32594E+03 -7.91910E+03  2.13326E+04  1.21235E+04
  7.05628E+03  3.41063E+04 -3.15098E+04  3.50632E+04 -6.28474E+04  2.21358E+03 -5.70259E+04 -4.23848E+04
 -1.27008E+04 -6.26988E+04  3.98845E+04 -4.51430E+04  5.69209E+04 -1.13685E+03  3.45905E+04  3.17515E+04
 -6.08641E+03  3.50052E+04 -3.05494E+04  1.47827E+04 -3.03607E+04 -4.01784E+03 -1.69582E+04 -1.07860E+04
 -8.64737E+03 -1.13122E+04 -2.63856E+02 -1.81036E+04  7.38392E+03 -2.28647E+04  1.58995E+04 -1.27554E+04
  1.16603E+04  5.15894E+03 -7.53576E+03  1.31211E+04 -2.01770E+04 -4.16357E+03 -7.54846E+03 -3.42038E+04
  2.27634E+04 -4.36360E+04  4.85572E+04 -1.93644E+04  4.46416E+04  1.95371E+04  1.51005E+04  4.38332E+04
 -1.65042E+04  3.33688E+04 -2.48872E+04  2.66921E+03 -1.03297E+04 -2.77450E+04  2.00402E+04 -3.35394E+04
  4.14585E+04 -9.79856E+03  3.57973E+04  2.45268E+04  1.95857E+04  4.57095E+04 -7.65563E+03  4.97720E+04
 -3.24520E+04  3.20117E+04 -4.13531E+04  1.00587E+04 -4.23606E+04 -1.81251E+04 -2.30542E+04 -3.80048E+04
  7.35167E+03 -3.73778E+04  3.13960E+04 -1.46532E+04  2.83833E+04  1.10281E+04  3.30998E+03  1.95887E+04
 -1.43089E+04  9.87931E+03 -1.10318E+04 -8.56388E+03  6.42923E+03 -1.00639E+04  1.69940E+04  5.17793E+03
  1.30312E+04  2.21489E+04 -4.80193E+03  2.51090E+04 -2.21555E+04  1.09410E+04 -2.74050E+04 -3.29437E+03
 -1.98812E+04 -1.74831E+04 -6.83152E+03 -2.01876E+04  4.34940E+03 -1.99535E+04  1.51342E+04 -1.71261E+04
  2.64729E+04 -1.22612E+04  3.22368E+04  2.58989E+03  2.43418E+04  1.95931E+04  4.39080E+03  3.49810E+04
 -1.78648E+04  2.88013E+04 -2.68737E+04  1.01568E+04 -2.03538E+04 -1.19429E+04 -3.55961E+03 -1.25905E+04
  1.09220E+03 -2.09588E+03 -4.69652E+03  6.49754E+03 -1.55811E+04  5.08633E+03 -1.63307E+04 -6.40325E+03
 -1.00195E+04 -1.78733E+04  6.48875E+03 -2.17862E+04  1.57858E+04 -1.65386E+04  1.75675E+04 -3.61126E+02
  1.12328E+04  1.38586E+04  3.23326E+02  1.83544E+04 -1.22163E+04  1.10770E+04 -1.81950E+04 -3.60130E+03
 -1.24103E+04 -1.65570E+04 -2.14702E+03 -2.12155E+04  9.81100E+03 -1.83256E+04  1.97619E+04 -8.76542E+03
  1.63507E+04 -7.30995E+02  1.21191E+04  4.03772E+03  4.92501E+03  2.21574E+03  8.80740E+03 -2.07913E+03
  1.67541E+04  3.04923E+03  1.98478E+04  1.53112E+04  1.25435E+04  2.88500E+04 -3.62381E+03  3.25368E+04
 -1.87343E+04  2.73557E+04 -3.07574E+04  1.27745E+04 -3.23746E+04 -1.83913E+03 -2.68638E+04 -1.93877E+04
 -1.27814E+04 -2.65910E+04  7.82558E+03 -2.42922E+04  2.03289E+04 -1.18317E+04  1.85898E+04  5.33635E+03
  6.78649E+03  1.40342E+04 -8.46798E+03  1.19848E+04 -1.66532E+04  3.28623E+03 -1.27573E+04 -9.69433E+03
 -4.86989E+02 -1.47101E+04  8.20542E+03 -1.17022E+04  9.76972E+03 -8.16909E+02  2.44860E+03  5.84088E+03
 -6.01772E+03  2.61773E+03 -5.84926E+03 -5.02939E+03 -9.24858E+00 -1.21116E+04  9.93355E+03 -1.29918E+04
  1.49961E+04 -6.93632E+03  1.83974E+04  3.47488E+03  1.41230E+04  1.34098E+04  8.53928E+03  1.98386E+04
 -2.55460E+03  2.23803E+04 -1.38799E+04  1.35277E+04 -1.52427E+04  2.74614E+03 -1.06715E+04 -2.73797E+03
 -4.37876E+03 -3.13539E+03  1.79602E+02  1.63946E+03 -2.34376E+03  2.58461E+03 -4.77821E+03  4.73931E+03
 -9.79566E+03 -1.30038E+03 -1.09972E+04 -9.40070E+03 -5.80275E+03 -1.42090E+04  4.46242E+03 -1.11055E+04
  8.75081E+03 -4.37674E+03  6.73791E+03  2.99992E+03 -1.01646E+03  4.07605E+03 -5.92826E+03 -1.69693E+03
 -4.84806E+03 -5.51046E+03 -6.67591E+02 -1.00693E+04  5.66995E+03 -1.17083E+04  1.26677E+04 -6.56588E+03
  1.60362E+04  2.13145E+03  1.22161E+04  9.71718E+03  2.73807E+03  1.21408E+04 -6.50967E+03  1.07320E+04
 -8.29197E+03  3.25237E+03 -3.68494E+03 -2.95595E+03  1.24751E+03 -2.24688E+03  5.74999E+03 -1.12272E+03
  5.48001E+03  5.69535E+03  1.25920E+03  7.62161E+03 -5.48363E+03  7.47462E+03 -9.80562E+03  2.48448E+03
 -8.01387E+03 -5.77177E+03 -7.09538E+02 -9.80070E+03  6.82844E+03 -3.84556E+03  6.31995E+03  2.09021E+03
  2.16020E+03  5.50794E+03 -6.13277E+03  6.60739E+03 -7.97517E+03  2.42635E+03 -7.87358E+03 -2.77403E+03
 -5.35924E+03 -9.18645E+03  1.85079E+03 -1.11977E+04  8.80711E+03 -5.86970E+03  1.12505E+04  1.13773E+03
  6.19060E+03  7.64072E+03  8.10011E+02  1.07384E+04 -7.81458E+03  5.67054E+03 -8.03837E+03 -3.97109E+02
 -7.10813E+03 -8.26558E+03 -1.08421E+03 -8.20277E+03  2.26761E+03 -6.46491E+03  4.55192E+03 -4.16579E+03
  3.72017E+03  9.69531E+02 -7.80630E+02  1.50957E+03  2.31260E+02 -1.63314E+03  1.90890E+03 -3.38309E+03
  5.80081E+03 -2.52629E+03  9.03544E+03  9.05672E+02  8.50950E+03  5.62959E+03  6.79765E+03  1.13021E+04
 -2.45330E+03  1.41600E+04 -1.29857E+04  1.00327E+04 -1.57823E+04  1.77753E+03 -1.22241E+04 -4.66596E+03
 -5.40578E+03 -1.04017E+04 -1.57076E+03 -8.39576E+03  3.19645E+03 -5.27765E+03  3.93288E+03 -1.80946E+03
  1.82398E+03 -2.65329E+03  2.69318E+03 -1.79183E+03  4.35066E+03 -1.79514E+03  6.57309E+03 -1.74960E+03
  5.80903E+03  2.16621E+03  3.00484E+03  5.39404E+03 -8.97837E+02  7.16836E+03 -6.16332E+03  4.57703E+03
 -7.79274E+03 -3.34614E+02 -4.39490E+03 -5.05976E+03 -5.96525E+02 -8.54125E+03  5.72229E+03 -8.97976E+03
  9.22516E+03 -6.50476E+03  1.00884E+04  2.56230E+02  7.59770E+03  8.69410E+03  1.57337E+03  1.13802E+04
 -3.88927E+03  1.00905E+04 -6.36436E+03  3.28094E+03 -4.69269E+03 -1.38637E+03 -8.83295E+02 -1.55499E+03
 -1.03645E+03  2.24180E+02 -3.02654E+03  1.40702E+03 -4.80774E+03  1.68368E+03 -6.93646E+03 -2.21455E+02
 -3.33676E+03 -6.88040E+03  1.16620E+03 -7.30047E+03  5.70039E+03 -5.66050E+03  7.55407E+03 -1.30335E+03
  6.83252E+03  3.81404E+03  2.88911E+03  6.50782E+03 -1.27322E+03  6.97509E+03 -3.43778E+03  4.57509E+03
 -7.79170E+03  7.19550E+02 -5.49941E+03 -5.22939E+03  6.03433E+01 -6.53537E+03  2.82197E+03 -4.31855E+03
  5.09640E+03 -1.62279E+03  3.52934E+03  5.85238E+02  2.27363E+03  1.78940E+03  1.03638E+03  1.44889E+03
  2.66003E+03  1.34856E+03  1.91474E+03  1.98213E+03  1.46739E+02  2.76909E+03  3.96061E+03  2.45724E+03
 -2.13252E+03  5.81779E+03 -4.62686E+03  6.35607E+03 -6.32019E+03  1.20827E+03 -8.18755E+03 -1.74308E+03
 -4.83118E+03 -6.37275E+03  8.58054E+02 -8.25059E+03  3.79975E+03 -5.35203E+03  6.11944E+03 -2.32866E+02
  4.98414E+03  3.53442E+03  2.00425E+03  4.54429E+03 -1.63756E+03  2.28141E+03 -3.27262E+03 -7.84093E+02
 -1.12063E+03 -3.32040E+03  2.32767E+03 -3.40299E+03  2.23165E+03 -1.46232E+03  2.77804E+03  5.61985E+02
  1.59114E+03  6.79731E+02  2.29452E+03  6.66822E+01 -1.42969E+03  1.11885E+03  7.06537E+02  6.39281E+01
  8.48884E+02 -5.62808E+02  2.83375E+03  1.78201E+03  8.39946E+02  4.60493E+03 -3.08254E+02  4.46895E+03
 -2.11825E+03  3.06611E+03 -5.58350E+03  1.51845E+03 -4.57689E+03 -1.73012E+03 -1.77722E+03 -1.22904E+03
  1.56077E+02 -2.10960E+03  1.85164E+03 -8.31869E+02  9.94113E+02  2.26730E+03 -7.16040E+02  1.95443E+03
 -2.70539E+03  1.71986E+03 -2.20209E+03 -1.88907E+03 -1.29530E+03 -4.80119E+03 -1.28016E+03 -5.05431E+03
  1.60094E+03 -2.16026E+03  1.94265E+03  7.26510E+01  3.17310E+03  2.53757E+02  8.57845E+02  1.90724E+03
 -1.06766E+03  4.33467E+01 -1.97730E+03 -1.31690E+03  1.65834E+03 -3.33383E+03  3.33491E+03 -1.40077E+03
  4.54995E+03  6.08668E+02  5.82697E+03  2.39562E+03  1.29972E+03  4.09283E+03 -8.09696E+02  4.66836E+03
 -4.50988E+03  7.64606E+02 -2.54397E+03 -8.07162E+02 -1.92255E+03 -2.89371E+03 -5.02499E+02 -2.95860E+03
  3.04484E+03 -1.60472E+03  1.39496E+03  7.28362E+02  1.31407E+03  3.59584E+03 -8.68638E+02  2.17719E+03
 -6.61568E+02  8.85363E+02 -1.66364E+03  4.80679E+02 -5.22234E+02  6.84667E+02 -1.91082E+03  1.54203E+03
 -1.68087E+03  1.25434E+03 -3.62588E+03  1.28185E+03 -4.62369E+03 -2.18445E+02 -4.32342E+03 -2.97340E+03
 -1.70175E+03 -5.85039E+03  1.71176E+03 -6.41710E+03  4.62342E+03 -5.05023E+03  7.66495E+03 -2.92861E+03
  6.97422E+03  5.34016E+02  3.46043E+03  2.49600E+03 -6.33060E+02  3.69679E+03 -7.52702E+02  2.96152E+03
 -3.18956E+03  6.54998E+02 -2.21521E+03 -6.70992E+02 -7.86720E+02 -7.16582E+02  7.17349E+02  9.92749E+02
 -1.01213E+03 -4.00939E+02 -2.23370E+02 -1.02695E+03  7.44378E+01 -1.27223E+03 -4.56962E+02 -2.12802E+03
  3.83391E+03 -2.83279E+03  2.36013E+03 -1.94122E+02  3.34389E+03  1.57325E+03 -3.90078E+02  2.62895E+03
 -1.46856E+03  3.85760E+03 -3.87114E+03  2.74300E+03 -3.80458E+03 -1.53680E+02 -3.93659E+03 -3.06813E+03
 -1.40964E+03 -3.98574E+03  2.07126E+03 -2.86875E+03  1.49729E+03 -2.68585E+03  2.82454E+03  1.70688E+02
  2.18468E+03  1.01767E+03  2.81878E+00  2.59265E+03 -3.13577E+02 -3.03499E+02 -3.07878E+02 -9.57754E+02
  7.14879E+02 -1.91381E+01  2.22931E+03  1.68634E+03  5.06743E+02  2.44018E+03  3.82088E+02  2.65770E+03
 -1.43579E+02  3.16359E+03 -2.13660E+03  1.17866E+03 -2.27141E+03 -2.33525E+03 -1.40051E+03 -3.57237E+03
  1.58103E+03 -1.23940E+03  2.90078E+03 -7.55691E+02  2.06912E+03 -1.13764E+03  1.49560E+03  2.90079E+03
  5.81506E+02  2.81007E+03 -1.03010E+03  1.10995E+03 -2.65143E+03  4.70872E+02 -2.09560E+03  4.61766E+00
 -8.38083E+02  7.50915E+01 -8.48144E+02 -6.82464E+02 -9.67528E+02  2.68483E+02 -9.34818E+02  1.11839E+02
 -2.17079E+03 -9.01915E+02 -1.18282E+03 -2.13999E+03  2.60111E+03 -3.85374E+03  2.05768E+03  2.00245E+02
  2.81827E+03 -1.36905E+03  9.90947E+02  3.15331E+02  1.82222E+02  2.03644E+03 -1.31340E+03  1.78148E+03
