 $NMID ID='MM_0lb_SNR200_20hz_g60_7.RAW', FMTDAT='(8E13.5)'
 TRAMP=1., VOLUME=1. $END
  3.09667E+05  4.60051E+02  3.37123E+05  2.49892E+05  8.43354E+04  3.37410E+05 -1.32569E+05  2.50645E+05
 -1.89488E+05  8.23243E+04 -1.11299E+05 -3.27337E+04  1.65666E+03 -5.00398E+04  5.39265E+04  8.01182E+02
  3.46571E+04  5.39849E+04 -1.68901E+04  7.47692E+04 -6.09066E+04  6.32403E+04 -8.26850E+04  3.11158E+04
 -7.97728E+04 -1.07832E+04 -5.67099E+04 -5.02458E+04 -1.58567E+04 -6.98194E+04  2.69294E+04 -4.46991E+04
  3.87506E+04  4.22215E+03  1.54008E+04  4.63704E+04 -3.40060E+04  4.61149E+04 -6.62055E+04 -1.36090E+03
 -5.23968E+04 -5.71080E+04 -6.22136E+03 -7.63932E+04  3.25929E+04 -5.38801E+04  4.71348E+04 -1.70620E+04
  4.19210E+04  1.06757E+04  3.13666E+04  2.48459E+04  1.63156E+04  2.89320E+04 -5.25072E+03  2.64856E+04
 -2.24905E+04  1.31122E+04 -1.88492E+04 -5.50900E+03  4.87964E+03 -7.88370E+03  2.10853E+04  1.18156E+04
  6.93472E+03  3.36381E+04 -3.04965E+04  3.40155E+04 -6.22026E+04  2.04175E+03 -5.54255E+04 -4.16096E+04
 -1.29071E+04 -6.13241E+04  3.82230E+04 -4.48167E+04  5.59882E+04 -1.09769E+03  3.22328E+04  3.02588E+04
 -4.89888E+03  3.36787E+04 -2.84976E+04  1.33231E+04 -2.88547E+04 -4.12830E+03 -1.48885E+04 -1.08734E+04
 -6.41231E+03 -1.29032E+04 -1.78666E+03 -1.76548E+04  6.22252E+03 -2.24229E+04  1.43786E+04 -1.37930E+04
  1.14908E+04  4.92978E+03 -6.21904E+03  1.28227E+04 -2.02380E+04 -3.85889E+03 -8.83861E+03 -3.16499E+04
  2.17520E+04 -4.09627E+04  4.62505E+04 -2.02774E+04  4.34599E+04  1.87330E+04  1.46361E+04  4.22959E+04
 -1.58111E+04  3.16228E+04 -2.41733E+04  1.55097E+03 -8.36115E+03 -2.62270E+04  2.14108E+04 -3.16524E+04
  3.86255E+04 -7.00936E+03  3.18596E+04  2.19464E+04  1.64759E+04  4.33200E+04 -6.07163E+03  4.71676E+04
 -2.91095E+04  3.12208E+04 -3.73741E+04  7.27108E+03 -3.98424E+04 -1.49111E+04 -2.13186E+04 -3.49232E+04
  6.26699E+03 -3.48214E+04  2.97916E+04 -1.33889E+04  2.75674E+04  1.04594E+04  3.68427E+03  1.76750E+04
 -1.30542E+04  7.39908E+03 -9.92244E+03 -7.62094E+03  5.16559E+03 -9.61538E+03  1.68895E+04  5.65011E+03
  1.25765E+04  2.07792E+04 -5.78970E+03  2.36835E+04 -2.13485E+04  1.03349E+04 -2.63942E+04 -5.73063E+03
 -1.78060E+04 -1.72423E+04 -5.85611E+03 -1.78611E+04  3.45862E+03 -1.62736E+04  1.18401E+04 -1.60563E+04
  2.29343E+04 -1.17859E+04  2.87364E+04  1.31401E+03  2.17068E+04  1.71236E+04  2.94074E+03  3.23753E+04
 -1.64761E+04  2.88938E+04 -2.64268E+04  9.61480E+03 -2.04486E+04 -1.00226E+04 -3.53130E+03 -1.43506E+04
  1.54778E+03 -3.17110E+03 -3.74392E+03  5.50255E+03 -1.36569E+04  6.16532E+03 -1.39761E+04 -5.09240E+03
 -8.31881E+03 -1.54272E+04  3.41983E+03 -1.95885E+04  1.38376E+04 -1.43885E+04  1.54775E+04 -1.58523E+03
  1.03277E+04  1.09875E+04 -8.70072E+02  1.49766E+04 -1.09890E+04  9.69209E+03 -1.60818E+04 -3.60419E+03
 -1.15205E+04 -1.52553E+04 -2.46128E+03 -1.95375E+04  8.72073E+03 -1.62348E+04  1.65622E+04 -8.18246E+03
  1.46281E+04  1.05434E+03  1.03870E+04  3.68686E+03  4.15972E+03  1.26236E+03  6.84167E+03 -1.91386E+03
  1.49391E+04  3.15248E+03  1.48413E+04  1.39631E+04  1.04979E+04  2.56654E+04 -2.94397E+03  2.67721E+04
 -1.63482E+04  2.11482E+04 -2.54591E+04  9.58157E+03 -2.60299E+04 -1.57357E+03 -2.09138E+04 -1.47551E+04
 -1.00482E+04 -2.06054E+04  7.18081E+03 -1.89598E+04  1.66419E+04 -1.12150E+04  1.57253E+04  4.38010E+03
  6.42943E+03  1.10754E+04 -6.69123E+03  1.06661E+04 -1.33440E+04  1.70709E+03 -9.72419E+03 -7.97617E+03
 -2.19191E+02 -1.24407E+04  6.05151E+03 -9.54642E+03  7.17165E+03 -1.58111E+03  1.21269E+03  4.43313E+03
 -4.06402E+03  2.14835E+03 -4.17821E+03 -4.31127E+03  9.17354E+02 -1.03216E+04  8.05110E+03 -1.08109E+04
  1.19505E+04 -3.93079E+03  1.14241E+04  2.85756E+03  1.03967E+04  9.38265E+03  5.48296E+03  1.42521E+04
 -1.18576E+03  1.59940E+04 -9.62525E+03  1.03572E+04 -1.11855E+04  3.31386E+03 -8.99732E+03 -1.91472E+03
 -3.88915E+03 -3.95666E+03 -1.05440E+03  2.05168E+03 -2.14752E+03  1.40377E+03 -2.98353E+03  3.10315E+03
 -8.70293E+03 -2.95902E+02 -9.26804E+03 -7.66653E+03 -4.07760E+03 -1.12213E+04  4.12341E+03 -8.14097E+03
  7.64548E+03 -3.35033E+03  5.35442E+03  1.61758E+03  5.72315E+02  2.55243E+03 -3.93478E+03  5.34298E+01
 -3.28151E+03 -5.40340E+03 -6.73953E+02 -7.83431E+03  3.81526E+03 -7.68354E+03  8.99938E+03 -3.62620E+03
  1.13977E+04  1.34624E+02  8.89501E+03  6.71317E+03  1.77522E+03  8.16764E+03 -5.31958E+03  8.04893E+03
 -5.85896E+03  3.45383E+03 -2.63411E+03 -9.82937E+02  1.65820E+03 -1.68413E+03  4.05039E+03 -1.18409E+03
  4.00769E+03  3.37621E+03  1.83038E+03  6.61611E+03 -4.24043E+03  6.70979E+03 -8.03213E+03  1.92551E+03
 -4.85154E+03 -3.07027E+03 -2.12695E+02 -5.77447E+03  4.56782E+03 -2.11473E+03  2.76728E+03  1.20344E+02
  8.44844E+02  3.30094E+03 -4.03980E+03  3.94412E+03 -5.54342E+03  1.69202E+03 -4.57447E+03 -6.38647E+02
 -2.39102E+03 -5.85671E+03  1.64738E+03 -6.78738E+03  6.41776E+03 -4.22517E+03  5.28388E+03  7.76382E+02
  5.74010E+03  4.06736E+03  7.19474E+02  7.37559E+03 -4.17615E+03  3.12038E+03 -4.92415E+03  2.43467E+01
 -4.85986E+03 -3.98498E+03 -6.33731E+02 -4.59183E+03  2.50534E+03 -5.00553E+03  2.60617E+03 -2.96566E+03
  1.84800E+03  4.88684E+02  1.50684E+02  1.04201E+03  1.39643E+03 -3.59507E+02  1.84853E+02 -1.62831E+03
  3.49649E+03 -8.84761E+02  5.18589E+03  9.57390E+02  4.53312E+03  1.78569E+03  4.18545E+03  7.02513E+03
 -4.05832E+02  7.29392E+03 -8.33937E+03  5.91439E+03 -8.68749E+03  2.00725E+02 -7.63565E+03 -2.00513E+03
 -3.95200E+03 -5.15597E+03 -8.89509E+02 -4.59197E+03  3.10723E+03 -2.67461E+03  1.59428E+03 -1.59515E+03
  9.25429E+02 -1.88767E+03  1.55706E+03 -1.29841E+03  3.64138E+03 -1.08060E+03  2.86277E+03  8.91834E+02
  4.22105E+03  1.69170E+03  8.78987E+02  3.90230E+03 -2.40822E+03  2.10734E+03 -3.51568E+03  2.62952E+03
 -3.97092E+03  5.07937E+02 -1.44343E+03 -2.32730E+03  5.34433E+02 -3.77277E+03  2.00730E+03 -5.21087E+03
  4.04199E+03 -3.56114E+03  5.90760E+03 -1.08526E+03  4.42933E+03  3.84398E+03  1.42535E+03  6.09568E+03
 -3.01257E+03  4.25182E+03 -2.12586E+03  1.91929E+03 -2.18032E+03 -9.29784E+02 -1.93126E+02 -1.72882E+02
 -2.63681E+02  1.06151E+03 -1.89708E+03  1.31150E+03 -2.80841E+03  1.04676E+02 -3.99761E+03 -6.10384E+02
 -1.63182E+03 -3.68119E+03  3.04275E+02 -4.59609E+03  2.67407E+03 -4.26711E+03  2.78102E+03 -1.51714E+03
  3.84855E+03  2.54495E+03  1.66929E+03  2.16154E+03 -3.05252E+02  3.93171E+03 -3.74230E+03  1.84281E+03
 -3.15908E+03  7.52651E+01 -3.52526E+03 -1.93022E+03  3.98121E+01 -4.14441E+03  1.57916E+03 -3.09711E+03
  1.88117E+03 -1.79198E+03  2.25780E+03 -4.99223E+02  5.71290E+02  1.96759E+03  4.05272E+02  5.87906E+02
  2.00967E+03  1.77760E+03  1.23943E+03  5.62616E+02  1.94505E+03  1.99152E+03  1.07321E+03  9.16056E+02
 -9.58781E+02  2.45310E+03 -1.74940E+03  3.90211E+03 -2.23401E+03  8.89948E+02 -3.58954E+03  3.26260E+01
 -9.17792E+02 -2.21264E+03  1.38956E+03 -4.14843E+03  1.03525E+03 -3.09371E+03  2.40498E+03  2.05770E+02
  7.85037E+02  9.73793E+02  5.87734E+02  5.62325E+02  4.73930E+02  2.08081E+03 -9.68408E+02  5.35887E+02
  9.30717E+02 -6.63629E+02  1.06825E+03 -1.51966E+03  1.63193E+03 -1.27258E+03  1.46253E+03  4.62000E+02
  9.61435E+01 -8.76688E+02  1.00526E+03 -9.10364E+02 -5.51887E+02 -5.21016E+02  2.00536E+03 -8.42173E+02
  6.10580E+01 -7.80549E+02  1.06624E+03  4.85344E+02 -6.86942E+02  1.32889E+03 -5.61624E+02  3.63691E+03
 -8.49047E+02  3.62423E+02 -1.65367E+03 -7.38593E+02 -2.63526E+03 -4.93958E+02  3.48628E+02 -1.71291E+02
  4.35294E+02 -1.89078E+03 -1.01073E+02  1.89395E+02  3.60493E+02  8.53925E+02 -1.42688E+02  1.46615E+03
 -1.08421E+03 -1.07721E+02 -9.42857E+02 -6.78816E+02 -8.42832E+02 -1.28304E+03  5.40547E+02 -2.46557E+03
  1.99652E+02 -5.30774E+02 -1.22903E+03 -4.25784E+02 -2.38760E+01 -4.88571E+02  6.46094E+02  1.41944E+03
 -3.17678E+02  3.86749E+02 -3.89836E+02 -7.23465E+02  8.56489E+02 -1.31248E+03  9.63642E+02 -1.50628E+03
  1.10887E+03  4.86493E+02  2.20263E+03 -1.86901E+03  1.62525E+03  1.43316E+03  1.09918E+02  1.50168E+03
 -1.04374E+03  5.13324E+02 -1.36680E+02 -7.13121E+02 -7.75844E+02 -1.83675E+03  5.17123E+02  2.73795E+02
  5.37742E+02 -1.35423E+03  9.42290E+02  9.31658E+02  8.36112E+00  8.45479E+02  5.53870E+01  1.41778E+03
 -2.10740E+02  1.89155E+03 -7.67833E+02  7.37583E+02  1.89667E+02 -1.51959E+02  5.56135E+02 -2.29056E+02
  1.91838E+02 -1.65465E+02 -1.44742E+03  1.23844E+03 -4.84383E+02 -8.11671E+02 -1.28166E+03 -6.83005E+02
 -1.30895E+03 -2.52718E+03 -4.08158E+02 -2.14450E+03  6.48174E+02 -1.49545E+03  1.21733E+03 -7.68755E+02
  1.28314E+03 -1.84997E+02  1.28310E+03  1.02383E+03 -1.65384E+02  1.14002E+03 -2.07322E+03  2.62616E+03
  4.27559E+01  1.37471E+03 -8.01199E+02 -8.08356E+01  5.49188E+01  5.33736E+02 -9.02742E+02 -2.62107E+02
 -2.39182E+03 -9.04130E+02 -1.82751E+03  2.03456E+02  5.82332E+02 -4.01514E+02  3.62935E+02 -4.06266E+02
  1.00020E+03  5.91257E+02 -2.13436E+02  3.97470E+01  2.61453E+02  1.71911E+03 -8.04208E+02  1.23040E+03
 -7.62745E+00  1.32962E+03 -6.59028E+02  1.90332E+03 -1.00649E+03 -6.46124E+02 -6.07379E+02 -1.81872E+03
 -6.45363E+02 -8.42810E+02  6.51607E+02 -2.57284E+02  3.57500E+02 -5.19801E+02  2.38846E+02 -2.95718E+02
  6.07454E+02 -5.48806E+02  5.97508E+02  1.41706E+03 -5.43967E+02 -3.23991E+02 -6.26335E+02  2.41991E+02
 -1.20006E+02  6.43236E+02 -3.56420E+02  6.17437E+02 -2.71039E+02  1.89155E+02  8.60924E+02 -8.55609E+02
 -6.67984E+01  1.57041E+02 -3.76860E+02  3.11405E+02 -2.19631E+02 -4.28083E+02  6.05476E+02 -1.12740E+03
  2.31219E+02 -4.32124E+01 -5.14171E+02 -3.65129E+02  7.07854E+02 -1.47765E+03  1.75536E+02 -2.38608E+02
 -8.90832E+01  1.53724E+03 -7.71761E+02  3.22791E+02 -7.73478E+02  1.77679E+03  6.15108E+02  6.62762E+02
  7.30186E+02  4.66510E+02 -1.41987E+03  1.93630E+01 -8.46211E+02  1.00777E+03 -3.04741E+02 -2.39043E+02
 -1.66716E+02  5.74000E+01 -7.17691E+02  3.07217E+02  5.11428E+02 -8.36621E+02  5.03211E+02 -1.35218E+03
  1.70324E+03  1.69242E+02 -6.11073E+02  3.54761E+02 -8.86235E+02  3.92780E+02 -1.14983E+03  4.09028E+02
