 $NMID ID='MM_0lb_SNR200_10hz_g45_53.RAW', FMTDAT='(8E13.5)'
 TRAMP=1., VOLUME=1. $END
  3.10144E+05  8.26766E+02  3.38149E+05  2.52049E+05  8.36373E+04  3.36928E+05 -1.32921E+05  2.51420E+05
 -1.88572E+05  8.39604E+04 -1.12486E+05 -3.14303E+04  5.54486E+02 -5.04185E+04  5.29283E+04 -1.00929E+03
  3.70003E+04  5.31082E+04 -1.58877E+04  7.43397E+04 -5.93764E+04  6.34188E+04 -8.50462E+04  3.14116E+04
 -8.13115E+04 -9.90265E+03 -5.77436E+04 -5.13475E+04 -1.45170E+04 -7.06418E+04  2.79417E+04 -4.76860E+04
  4.10469E+04  5.23071E+03  1.64603E+04  4.87669E+04 -3.47192E+04  4.81022E+04 -6.84815E+04 -4.70013E+02
 -5.46544E+04 -5.80121E+04 -6.65915E+03 -7.83329E+04  3.52861E+04 -5.69692E+04  4.86149E+04 -1.67410E+04
  4.37616E+04  1.19749E+04  3.27430E+04  2.61199E+04  1.59057E+04  3.08757E+04 -6.67558E+03  2.68581E+04
 -2.18327E+04  1.34525E+04 -1.89699E+04 -5.28379E+03  6.22348E+03 -6.81371E+03  2.25603E+04  1.32141E+04
  6.31826E+03  3.81452E+04 -3.23121E+04  3.69888E+04 -6.43997E+04  1.40242E+03 -5.90962E+04 -4.37000E+04
 -1.07387E+04 -6.40857E+04  4.14259E+04 -4.85153E+04  6.06317E+04 -2.23080E+03  3.62589E+04  3.37216E+04
 -5.65604E+03  3.88122E+04 -3.14707E+04  1.78626E+04 -3.19548E+04 -5.35583E+03 -1.64912E+04 -1.16652E+04
 -9.28422E+03 -1.41498E+04 -5.89445E+02 -1.91571E+04  9.87002E+03 -2.32568E+04  1.61978E+04 -1.41505E+04
  1.12137E+04  6.60927E+03 -9.73031E+03  1.37417E+04 -2.25274E+04 -5.67849E+03 -8.23437E+03 -3.53565E+04
  2.31107E+04 -4.53661E+04  4.98483E+04 -1.94580E+04  4.84356E+04  2.15473E+04  1.74352E+04  4.61818E+04
 -1.66404E+04  3.71403E+04 -2.56588E+04  6.55575E+02 -1.07007E+04 -2.93796E+04  2.11162E+04 -3.64183E+04
  4.36691E+04 -9.08020E+03  3.84726E+04  2.46302E+04  1.97469E+04  4.91828E+04 -7.40722E+03  5.56097E+04
 -3.50227E+04  3.73208E+04 -4.61565E+04  1.09691E+04 -4.69469E+04 -1.82846E+04 -2.48534E+04 -4.17465E+04
  9.25246E+03 -3.95674E+04  3.37610E+04 -1.61183E+04  3.12626E+04  1.00038E+04  4.79592E+03  1.83569E+04
 -1.36882E+04  9.54625E+03 -1.08650E+04 -6.97217E+03  6.62473E+03 -1.14470E+04  1.85045E+04  5.16207E+03
  1.42174E+04  2.16395E+04 -5.86408E+03  2.61580E+04 -2.24878E+04  1.30344E+04 -3.09298E+04 -2.82674E+03
 -2.37209E+04 -1.79360E+04 -1.05815E+04 -2.36766E+04  4.06217E+03 -2.35332E+04  1.98970E+04 -2.28164E+04
  3.04524E+04 -1.34934E+04  3.78658E+04  4.54850E+03  2.59778E+04  2.28432E+04  3.86024E+03  3.84813E+04
 -1.94051E+04  3.32361E+04 -3.03509E+04  1.21470E+04 -2.29213E+04 -1.03038E+04 -5.30241E+03 -1.30320E+04
  6.95506E+02 -1.05988E+03 -6.66396E+03  7.75029E+03 -2.03205E+04  6.15551E+03 -1.89597E+04 -8.06150E+03
 -1.09857E+04 -2.16233E+04  6.49527E+03 -2.61209E+04  1.68460E+04 -1.88135E+04  2.14031E+04 -1.70113E+03
  1.15835E+04  1.50767E+04 -1.52760E+03  2.20886E+04 -1.46794E+04  1.23235E+04 -2.14180E+04 -4.47986E+03
 -1.66393E+04 -2.11470E+04 -7.32324E+02 -2.88427E+04  1.18501E+04 -2.30235E+04  2.27014E+04 -1.14665E+04
  2.00359E+04 -5.38833E+02  1.52817E+04  5.84064E+03  7.26016E+03  1.15372E+03  1.10032E+04 -1.26250E+03
  1.96020E+04  9.52420E+02  2.40160E+04  1.59702E+04  1.61093E+04  3.50412E+04 -3.13379E+03  4.10446E+04
 -2.35139E+04  3.32828E+04 -3.91640E+04  1.74745E+04 -4.34813E+04 -3.41574E+03 -3.30796E+04 -2.39737E+04
 -1.39679E+04 -3.43502E+04  1.19451E+04 -3.00928E+04  2.66033E+04 -1.49399E+04  2.22130E+04  7.35599E+03
  9.30717E+03  1.77009E+04 -1.00577E+04  1.52036E+04 -1.88495E+04  1.58109E+03 -1.41782E+04 -1.21629E+04
 -1.40545E+03 -1.69812E+04  9.54903E+03 -1.34572E+04  1.34562E+04 -1.84228E+03  2.05528E+03  8.13308E+03
 -7.97463E+03  3.40205E+03 -6.66039E+03 -6.87692E+03 -4.63723E+02 -1.68626E+04  1.01226E+04 -1.74081E+04
  2.23510E+04 -1.12883E+04  2.43165E+04  4.08374E+03  1.96372E+04  1.80449E+04  8.86937E+03  2.63909E+04
 -5.07950E+03  2.90612E+04 -1.77984E+04  1.64835E+04 -2.01580E+04  4.02631E+03 -1.34404E+04 -4.60702E+03
 -7.14184E+03 -6.16083E+03 -1.07562E+03  1.09402E+03 -1.35719E+03  3.83986E+03 -6.30478E+03  6.92660E+03
 -1.28537E+04 -1.35279E+03 -1.49253E+04 -1.17200E+04 -5.17856E+03 -1.72983E+04  5.20534E+03 -1.38488E+04
  1.24912E+04 -6.05990E+03  8.16697E+03  4.85356E+03 -1.01535E+03  5.36802E+03 -6.97690E+03 -4.70854E+02
 -7.82522E+03 -1.04911E+04 -1.14428E+03 -1.28858E+04  9.21580E+03 -1.52417E+04  1.92687E+04 -7.29950E+03
  2.05732E+04  2.96323E+03  1.47973E+04  1.07634E+04  2.43626E+03  1.85144E+04 -9.53340E+03  1.33801E+04
 -1.25561E+04  5.10324E+03 -6.68580E+03 -3.19448E+03  2.86583E+03 -2.98390E+03  7.96806E+03 -2.40918E+03
  7.24493E+03  5.48614E+03  2.32718E+03  1.08301E+04 -7.45729E+03  1.17440E+04 -1.39753E+04  3.59752E+03
 -8.78198E+03 -6.60694E+03  1.36791E+03 -1.23292E+04  7.41464E+03 -5.55270E+03  8.44112E+03  3.46913E+03
  6.10407E+02  8.88153E+03 -9.23418E+03  1.04007E+04 -1.12185E+04  4.62673E+03 -1.32445E+04 -4.70812E+03
 -8.04111E+03 -1.32036E+04  3.27872E+03 -1.53847E+04  1.42060E+04 -9.27511E+03  1.49633E+04  2.14369E+03
  8.72412E+03  1.36073E+04 -1.50748E+03  1.35005E+04 -1.04457E+04  7.48758E+03 -1.10571E+04 -5.84358E+02
 -1.09522E+04 -9.66724E+03 -3.58823E+03 -1.08852E+04  6.59066E+03 -8.11934E+03  6.49949E+03 -4.43744E+03
  4.55671E+03  2.07492E+03 -7.18609E+02  1.20022E+03 -1.54328E+03 -3.23068E+03  2.58875E+03 -6.05981E+03
  8.86413E+03 -4.85989E+03  1.40835E+04 -5.60337E+02  1.42519E+04  1.03581E+04  8.35792E+03  1.79121E+04
 -5.82036E+03  1.95221E+04 -1.69216E+04  1.62406E+04 -2.25019E+04  2.02428E+03 -1.67897E+04 -8.89269E+03
 -1.09316E+04 -1.49634E+04 -1.06794E+03 -1.27675E+04  3.99846E+03 -7.51921E+03  5.14382E+03 -3.84420E+03
  3.55250E+03 -2.14771E+03  3.77274E+03 -4.16274E+03  6.22486E+03 -2.98100E+03  7.80866E+03 -2.93481E+01
  1.08626E+04  1.36598E+03  4.02334E+03  8.36414E+03 -1.44599E+03  1.03530E+04 -1.07047E+04  6.83122E+03
 -1.30453E+04 -1.46006E+03 -8.02141E+03 -8.70070E+03  3.15050E+02 -1.43896E+04  7.92448E+03 -1.37225E+04
  1.52553E+04 -7.29502E+03  1.70427E+04  1.79766E+03  1.07667E+04  1.23338E+04  2.78250E+03  1.59191E+04
 -7.21603E+03  1.23773E+04 -8.98635E+03  2.89603E+03 -6.87137E+03 -1.58820E+03 -1.13635E+03 -1.65433E+03
 -1.31860E+03  9.87365E+01 -1.73366E+03  1.67490E+03 -5.54332E+03  2.44065E+03 -9.57030E+03 -7.06416E+02
 -6.82173E+03 -7.46938E+03 -1.17571E+03 -1.10965E+04  6.98483E+03 -1.24775E+04  1.24361E+04 -3.31573E+03
  1.16073E+04  5.40057E+03  7.14620E+03  1.22936E+04 -2.58750E+03  1.47219E+04 -9.37808E+03  7.32361E+03
 -1.32860E+04 -2.39359E+02 -8.48899E+03 -7.01778E+03 -1.92005E+03 -9.84820E+03  4.20748E+03 -7.47170E+03
  6.46049E+03 -2.55496E+03  6.04265E+03  1.13831E+03  2.55347E+03  2.85266E+03  1.61300E+03  2.97590E+03
  2.88589E+03  1.68045E+03  3.92151E+03  1.32438E+03  3.56474E+03  4.91942E+03  3.13339E+03  7.40302E+03
 -2.89008E+03  8.88781E+03 -7.82404E+03  1.10326E+04 -1.21015E+04  3.32112E+03 -1.25832E+04 -6.40791E+03
 -6.89773E+03 -1.30405E+04  1.29569E+03 -1.36504E+04  7.35221E+03 -8.19136E+03  1.17108E+04 -9.49787E+02
  8.30136E+03  3.64662E+03  2.79708E+03  7.22346E+03 -1.85435E+03  3.01396E+03 -5.29236E+03  5.29309E+02
 -2.99627E+03 -5.45169E+03  3.41839E+03 -5.92237E+03  5.69582E+03 -1.99852E+03  4.47501E+03  6.76718E+02
  2.80961E+03  1.55873E+03  1.62812E+03  1.52915E+03  7.69231E+02  1.15217E+03  9.86405E+02  7.06068E+02
  3.63106E+03  5.64380E+02  5.01034E+03  3.49961E+03  4.58352E+03  6.90464E+03 -1.76431E+03  1.02600E+04
 -5.78227E+03  5.52579E+03 -9.43755E+03  2.63989E+03 -7.54943E+03 -2.38767E+03 -2.80496E+03 -4.53161E+03
  1.65868E+03 -5.74459E+03  4.15604E+03 -1.33088E+03  2.79863E+03  3.53111E+03 -1.47386E+03  4.85795E+03
 -5.01869E+03  1.64525E+03 -4.54352E+03 -3.04348E+03 -3.61171E+03 -7.25217E+03  1.12481E+03 -7.38221E+03
  4.03294E+03 -4.46342E+03  3.14871E+03  6.57320E+02  4.61419E+03  2.07880E+03 -3.82302E+01  2.64834E+03
 -4.64804E+03 -6.68118E+01 -3.34235E+03 -2.45975E+03  1.63779E+03 -5.49469E+03  7.22731E+03 -4.81835E+03
  7.14965E+03  6.08869E+02  9.11581E+03  4.96142E+03  3.07593E+03  8.02885E+03 -3.31860E+03  6.30488E+03
 -8.32675E+03  2.98469E+03 -5.71843E+03 -3.38339E+03 -4.01040E+03 -5.38869E+03  1.67381E+03 -4.67559E+03
  6.12039E+03 -1.82583E+03  4.28806E+03  2.17620E+03  5.02654E+02  4.89698E+03 -6.04611E+02  3.47296E+03
 -1.60134E+03  2.82226E+03 -1.39712E+03  1.08021E+03 -1.77429E+03  7.05610E+02 -2.03290E+03  2.66286E+03
 -8.41901E+02  3.08785E+03 -5.59325E+03  3.62138E+03 -8.41569E+03  1.41856E+03 -7.85387E+03 -5.13410E+03
 -3.65708E+03 -1.17042E+04  1.15663E+03 -1.19612E+04  6.99189E+03 -8.59851E+03  1.23442E+04 -3.39780E+03
  1.07612E+04  2.53933E+03  6.55395E+03  8.72440E+03  1.22756E+03  8.32336E+03 -3.18852E+03  6.06249E+03
 -4.86189E+03  3.00024E+03 -2.13284E+03  4.63131E+02 -7.22238E+02 -8.28369E+02 -1.10907E+03 -1.04261E+03
 -5.15718E+02  8.90408E+01 -2.40786E+03 -5.71885E+02 -1.71586E+03 -2.32195E+03 -5.02216E+02 -2.36922E+03
  3.45572E+03 -3.41513E+03  5.17913E+03  1.08773E+03  6.50055E+03  5.16569E+03  1.06573E+03  8.90009E+03
 -3.61396E+03  1.01576E+04 -8.74903E+03  5.88801E+03 -1.03102E+04 -7.83069E+02 -7.81902E+03 -6.26028E+03
 -3.74267E+03 -9.10868E+03  2.33110E+03 -6.58379E+03  4.67475E+03 -3.81179E+03  6.84431E+03 -2.15883E+02
  3.07943E+03  2.50105E+03 -4.66350E+01  2.02285E+03 -1.67618E+03 -9.35162E+02  5.07337E+02 -2.18900E+03
  1.79736E+03 -2.60024E+03  3.61260E+03  1.12859E+03  4.03374E+03  4.84690E+03  1.81704E+03  3.82422E+03
 -4.15671E+03  4.28708E+03 -7.10333E+03 -7.55292E+02 -4.51896E+03 -3.32976E+03 -9.46792E+02 -8.42228E+03
  5.36320E+03 -4.50332E+03  7.59429E+03 -5.91890E+02  5.05005E+03  1.92747E+03  3.44506E+03  4.59723E+03
 -8.39880E+02  4.95419E+03 -1.60851E+03  5.87685E+03 -5.01945E+03  1.59638E+03 -2.07215E+03  2.87160E+02
 -1.59737E+03 -1.26628E+01 -1.22100E+03 -6.00352E+02 -2.75390E+03  1.79259E+03 -4.36663E+03 -4.69658E+02
 -4.88811E+03 -3.29370E+03 -2.95158E+03 -6.13582E+03  3.05801E+03 -6.78941E+03  4.79384E+03 -2.72246E+03
  3.35239E+03  6.65837E+02  2.69410E+03  3.44189E+03 -3.73652E+02  7.31762E+03 -3.46736E+03  3.40069E+03
