 $NMID ID='MM_0lb_SNR200_17hz_g60_35.RAW', FMTDAT='(8E13.5)'
 TRAMP=1., VOLUME=1. $END
  3.08378E+05  5.92586E+02  3.36486E+05  2.51272E+05  8.36253E+04  3.37806E+05 -1.32563E+05  2.50732E+05
 -1.91766E+05  8.29056E+04 -1.10479E+05 -3.22807E+04  1.23354E+03 -5.13844E+04  5.44723E+04  7.47301E+02
  3.52823E+04  5.27199E+04 -1.71486E+04  7.65502E+04 -6.01170E+04  6.35695E+04 -8.32010E+04  3.21334E+04
 -8.03029E+04 -1.12771E+04 -5.65764E+04 -5.02052E+04 -1.61517E+04 -6.90435E+04  2.72022E+04 -4.62220E+04
  4.02633E+04  3.70609E+03  1.59429E+04  4.70764E+04 -3.37755E+04  4.67579E+04 -6.61910E+04  3.46590E+02
 -5.33021E+04 -5.67201E+04 -6.88333E+03 -7.79928E+04  3.43540E+04 -5.36567E+04  4.87308E+04 -1.83195E+04
  4.30560E+04  1.15298E+04  3.22204E+04  2.40658E+04  1.54520E+04  2.89615E+04 -4.57666E+03  2.57908E+04
 -2.30488E+04  1.14743E+04 -1.75217E+04 -4.64173E+03  5.45051E+03 -7.80424E+03  2.35849E+04  1.24406E+04
  7.22713E+03  3.50436E+04 -3.22539E+04  3.43966E+04 -6.18434E+04  2.47564E+03 -5.61046E+04 -4.27908E+04
 -1.25002E+04 -6.30424E+04  3.96578E+04 -4.53471E+04  5.75218E+04 -2.38521E+03  3.36481E+04  3.24656E+04
 -5.97584E+03  3.51363E+04 -2.96208E+04  1.59941E+04 -2.96398E+04 -4.80949E+03 -1.49794E+04 -9.64633E+03
 -9.10618E+03 -1.43878E+04 -5.26280E+02 -1.84624E+04  7.44726E+03 -2.23250E+04  1.58148E+04 -1.26801E+04
  1.21327E+04  5.26239E+03 -7.86504E+03  1.30814E+04 -2.03618E+04 -5.09293E+03 -9.03080E+03 -3.37663E+04
  2.30292E+04 -4.22173E+04  4.85521E+04 -1.92273E+04  4.48186E+04  1.90061E+04  1.48287E+04  4.43147E+04
 -1.63681E+04  3.38832E+04 -2.48463E+04  1.69955E+03 -9.36443E+03 -2.71704E+04  2.12844E+04 -3.26586E+04
  4.00133E+04 -8.73134E+03  3.33840E+04  2.29737E+04  1.76094E+04  4.67441E+04 -6.97681E+03  4.88366E+04
 -3.01497E+04  3.29672E+04 -4.15870E+04  8.62809E+03 -4.08949E+04 -1.63317E+04 -2.24175E+04 -3.72294E+04
  7.31596E+03 -3.69863E+04  3.05097E+04 -1.31621E+04  2.97293E+04  1.13915E+04  2.71101E+03  1.91188E+04
 -1.43022E+04  6.75340E+03 -1.10016E+04 -6.67628E+03  6.76881E+03 -1.02734E+04  1.83245E+04  5.65763E+03
  1.36751E+04  2.19192E+04 -6.42845E+03  2.51111E+04 -2.21075E+04  1.08091E+04 -2.80698E+04 -4.77584E+03
 -1.96532E+04 -1.80956E+04 -6.95301E+03 -1.89100E+04  4.43058E+03 -1.79655E+04  1.38148E+04 -1.76043E+04
  2.57388E+04 -1.25523E+04  3.29532E+04  1.84171E+03  2.31067E+04  1.98241E+04  4.92888E+03  3.51709E+04
 -1.90545E+04  2.94649E+04 -2.73718E+04  1.08583E+04 -2.03014E+04 -1.01460E+04 -3.70339E+03 -1.40547E+04
 -7.11635E+01 -3.73129E+03 -4.27637E+03  6.09065E+03 -1.47910E+04  4.96943E+03 -1.62661E+04 -6.71808E+03
 -9.97977E+03 -1.66225E+04  5.98118E+03 -2.24348E+04  1.52643E+04 -1.63153E+04  1.63490E+04 -1.79378E+03
  1.03346E+04  1.30617E+04  2.73648E+02  1.83799E+04 -1.27380E+04  1.00276E+04 -1.72508E+04 -4.71272E+03
 -1.38611E+04 -1.67180E+04 -6.57928E+02 -2.18501E+04  9.68197E+03 -1.82045E+04  1.86314E+04 -7.45381E+03
  1.72924E+04  6.95143E+02  1.16332E+04  3.97107E+03  6.30860E+03  1.06119E+03  8.18504E+03 -1.13052E+03
  1.68289E+04  2.76144E+03  1.84799E+04  1.38801E+04  1.23006E+04  2.85635E+04 -2.35522E+03  3.13398E+04
 -1.80988E+04  2.51581E+04 -2.90051E+04  1.19460E+04 -2.89982E+04 -2.72115E+03 -2.49752E+04 -1.75614E+04
 -1.07112E+04 -2.58551E+04  8.53957E+03 -2.17259E+04  1.93404E+04 -1.12555E+04  1.76721E+04  3.68998E+03
  6.95457E+03  1.32613E+04 -8.63337E+03  1.15561E+04 -1.54523E+04  3.56661E+03 -1.12938E+04 -8.92068E+03
 -4.73088E+02 -1.52085E+04  6.44621E+03 -1.08751E+04  1.00824E+04 -1.67191E+03  2.05721E+03  5.57509E+03
 -6.11031E+03  1.83151E+03 -4.89796E+03 -4.85951E+03  8.43219E+00 -1.19168E+04  8.89553E+03 -1.20366E+04
  1.51708E+04 -6.29349E+03  1.52149E+04  3.54611E+03  1.34527E+04  1.16368E+04  6.54458E+03  1.75387E+04
 -3.08505E+03  1.95047E+04 -1.18025E+04  1.16324E+04 -1.40819E+04  3.56555E+03 -1.02716E+04 -3.97866E+03
 -4.83759E+03 -4.78643E+03 -1.06164E+03  1.65500E+03 -2.96535E+03  2.69690E+03 -3.69524E+03  3.77710E+03
 -9.59241E+03 -9.58479E+02 -9.61045E+03 -7.86373E+03 -3.78457E+03 -1.31147E+04  4.74683E+03 -1.00998E+04
  8.24531E+03 -3.21891E+03  5.19504E+03  1.59058E+03 -2.18605E+02  3.03292E+03 -3.66568E+03  7.71418E+02
 -4.18641E+03 -7.82997E+03 -1.48006E+03 -9.35108E+03  4.60870E+03 -1.01382E+04  1.20798E+04 -5.68284E+03
  1.34855E+04  1.63209E+03  1.05730E+04  6.91329E+03  2.81666E+03  1.16375E+04 -6.21006E+03  9.66098E+03
 -7.71446E+03  2.98395E+03 -3.92162E+03 -1.04315E+03  1.26667E+03 -1.41720E+03  6.71468E+03 -3.06219E+02
  5.33086E+03  4.11873E+03  8.94124E+02  7.55856E+03 -5.81307E+03  6.91489E+03 -9.55981E+03  1.55409E+03
 -6.33439E+03 -4.58586E+03 -3.76057E+02 -7.38441E+03  4.93244E+03 -3.26700E+03  4.72186E+03  1.95994E+03
  4.23999E+02  4.53863E+03 -4.55821E+03  6.80346E+03 -6.50557E+03  2.59860E+03 -6.63508E+03 -2.23658E+03
 -2.65621E+03 -7.48805E+03  1.47775E+03 -9.28403E+03  7.27419E+03 -5.98582E+03  8.42827E+03  1.43425E+03
  6.54927E+03  6.88139E+03  5.19418E+02  8.02945E+03 -5.76452E+03  4.75177E+03 -5.69810E+03  1.39513E+02
 -6.14711E+03 -6.01238E+03 -7.03283E+02 -6.67001E+03  2.96927E+03 -4.82267E+03  3.29657E+03 -2.99592E+03
  3.21013E+03  8.42299E+02 -2.72098E+01  1.95046E+03 -2.90076E+02 -1.37842E+03  7.40776E+02 -2.99905E+03
  5.31483E+03 -7.93677E+02  7.40437E+03  5.22960E+02  7.01631E+03  3.87672E+03  4.12521E+03  1.01002E+04
 -8.46301E+02  9.08131E+03 -1.01578E+04  8.20157E+03 -1.22366E+04  8.70944E+02 -1.03463E+04 -3.62354E+03
 -4.42139E+03 -7.74453E+03 -1.61377E+03 -7.31596E+03  2.82050E+03 -3.15438E+03  2.69092E+03 -2.67064E+03
  9.66207E+02  1.22859E+01  2.52599E+03 -1.60185E+03  4.00565E+03 -1.03713E+03  5.18634E+03  7.66716E+02
  6.19395E+03  1.51933E+03  1.94746E+03  4.34241E+03 -1.79749E+03  4.36577E+03 -6.08090E+03  2.85374E+03
 -6.34685E+03 -1.65943E+03 -4.38732E+03 -5.66368E+03 -2.86069E+02 -7.17800E+03  2.36548E+03 -6.35730E+03
  6.75851E+03 -3.81255E+03  8.65308E+03  1.10197E+03  5.87926E+03  4.04106E+03  2.63684E+03  6.87346E+03
 -3.00460E+03  7.42389E+03 -4.78846E+03  3.22992E+03 -2.83501E+03 -2.64094E+02 -1.72949E+03 -4.68814E+02
  2.11249E+02  1.13933E+03 -6.75000E+02  1.86341E+03 -3.37313E+03  6.12045E+02 -5.11907E+03 -8.93547E+02
 -2.88081E+03 -4.88549E+03  4.38297E+02 -5.21806E+03  3.87950E+03 -5.56585E+03  4.67070E+03 -9.94974E+02
  5.33907E+03  2.81095E+03  2.81011E+03  4.19788E+03 -1.35976E+03  6.50761E+03 -3.91627E+03  4.01295E+03
 -5.48490E+03  2.10696E+03 -3.68693E+03 -3.62352E+03 -3.25793E+02 -4.99536E+03  2.18268E+03 -2.89770E+03
  3.09333E+03 -8.21343E+02  2.78755E+03  9.15383E+02  3.62965E+02  1.95604E+03  1.52634E+03  1.47751E+03
  1.47057E+03  1.59964E+03  1.69649E+03  7.68807E+02  1.65753E+03  1.14844E+03  1.77299E+03  2.40860E+03
 -1.90737E+03  3.05273E+03 -3.51821E+03  5.43229E+03 -5.31703E+03  9.60956E+02 -5.32674E+03 -2.05125E+03
 -1.92806E+03 -4.53572E+03  1.39553E+03 -4.94858E+03  2.13310E+03 -3.46196E+03  3.98648E+03 -9.67440E+01
  3.12633E+03  2.30925E+03  4.95891E+02  3.46741E+03 -1.74449E+02  3.02743E+03 -9.33450E+02 -5.69824E+02
 -5.48181E+02 -2.58700E+03  2.07343E+03 -1.82413E+03  1.48663E+03 -1.61335E+03  7.35555E+02  5.42642E+02
  1.56469E+03 -4.24177E+02  5.57805E+01 -4.55492E+02  2.38037E+01  1.32179E+03  9.27208E+02 -5.03160E+02
  1.38963E+02 -8.50028E+02  2.34564E+03  7.64291E+02  8.02363E+02  2.56976E+03  3.56814E+02  4.18097E+03
 -2.60432E+03  8.94526E+02 -2.35222E+03  6.84953E+02 -4.03536E+03 -1.64117E+03 -7.84204E+02 -1.11192E+03
 -4.43900E+02 -1.99898E+03  1.39258E+03 -1.06042E+03  1.72708E+03  7.78893E+02 -1.12893E+03  1.75813E+03
 -2.04852E+03  1.01351E+03 -2.11374E+03 -4.02567E+02  8.01115E+02 -2.90347E+03  2.47119E+02 -2.29973E+03
  1.52496E+03 -5.38271E+02  1.39013E+03  6.36300E+02  1.05461E+03  1.83837E+02 -5.86503E+01  6.40978E+02
 -1.37042E+03  8.00875E+02 -1.40062E+03  8.52825E+01  4.19783E+02 -1.09783E+03  2.16269E+03 -1.20892E+03
  1.55190E+03 -6.93568E+02  4.27455E+03  9.87099E+02  1.32203E+03  1.85340E+03  1.63439E+02  2.36578E+03
 -2.43755E+03  4.19888E+02 -1.49578E+03 -1.96860E+02  2.60612E+02 -1.86611E+03  3.81748E+02 -1.48610E+03
  2.17707E+03 -4.22139E+02  7.89661E+02  6.48551E+02  1.84590E+02  1.05035E+03  7.45285E+02  1.67911E+03
 -4.06531E+02  1.28030E+03 -2.04768E+02 -7.09579E+01  8.89161E+02  7.47249E+02 -7.43816E+01  4.16637E+02
 -5.17752E+02  1.41932E+03 -2.45623E+03  9.30111E+02 -2.41750E+03 -8.16619E+02 -2.48705E+03 -5.41058E+02
 -6.94205E+02 -2.97643E+03  1.00190E+03 -4.03502E+03  1.58623E+03 -3.03316E+03  2.31003E+03 -1.99132E+03
  3.13527E+03 -5.62699E+01  1.78336E+03  1.52815E+03 -1.11005E+02  1.68879E+03 -1.10227E+03  1.60387E+03
 -2.89137E+02  1.43448E+03  3.10834E+01 -5.49044E+02 -5.25469E+02  6.45328E+01 -5.66179E+02  2.99634E+02
 -4.09030E+02  2.72557E+02 -6.85759E+02  3.40799E+02 -3.46881E+02  2.68536E+02  6.68803E+02 -7.21127E+02
  1.48358E+03 -3.03510E+02  1.07266E+03  5.87382E+02  1.16491E+03  8.96002E+02 -1.67176E+03  2.72857E+03
 -8.20755E+02  2.97197E+03 -3.43932E+03  1.38631E+03 -1.35203E+03 -8.80166E+02 -5.72419E+02 -7.89459E+02
 -1.07513E+03 -2.57668E+03  1.20041E+03 -1.03129E+03  5.40150E+02 -1.40730E+03  9.40054E+02  5.61341E+02
  7.66237E+02  1.47085E+03  5.21285E+01  4.55527E+02 -4.73814E+02 -7.18933E+00  4.70111E+01 -1.05992E+02
  9.60234E+02 -2.29338E+02  4.92483E+02 -3.22644E+02  8.28980E+02  1.05012E+03  1.42370E+02  1.76524E+03
 -1.50386E+03  7.02972E+02 -1.97667E+03 -7.06848E+02 -2.15875E+03 -1.69095E+03  7.02862E+02 -1.26990E+03
  9.46964E+02 -9.91810E+02  1.45945E+03 -1.84623E+02  1.16573E+03 -1.78866E+02  1.67447E+03  1.20468E+03
  1.62314E+02  8.17789E+02  6.95573E+02  1.58265E+03 -5.31591E+02  2.65295E+02 -1.28641E+02  5.01717E+02
  6.11850E+00  8.47679E+02 -3.46559E+02  8.95610E+01 -1.62367E+02  2.50591E+02 -5.37180E+02 -3.31066E+02
 -1.24557E+03 -6.89960E+02  9.26318E+02 -7.43670E+02  1.26132E+03 -1.44635E+03  1.17561E+03 -1.35367E+03
  6.91977E+02  3.90334E+02  6.55668E+02  7.68367E+02  4.39305E+02  8.88406E+02 -6.65920E+01  4.26055E+02
