 $NMID ID='MM_0lb_SNR200_15hz_g60_43.RAW', FMTDAT='(8E13.5)'
 TRAMP=1., VOLUME=1. $END
  3.09844E+05  1.65582E+03  3.38761E+05  2.50069E+05  8.41795E+04  3.39038E+05 -1.33004E+05  2.50726E+05
 -1.91399E+05  8.47315E+04 -1.12512E+05 -3.25222E+04  2.89534E+02 -5.02525E+04  5.33395E+04  1.06680E+03
  3.52800E+04  5.25850E+04 -1.64265E+04  7.65406E+04 -6.05929E+04  6.41709E+04 -8.43564E+04  3.27951E+04
 -8.05375E+04 -1.18792E+04 -5.71432E+04 -5.18668E+04 -1.58034E+04 -6.98557E+04  2.72750E+04 -4.64594E+04
  3.99698E+04  4.72112E+03  1.64998E+04  4.81493E+04 -3.49754E+04  4.71691E+04 -6.73880E+04  8.98110E+00
 -5.34178E+04 -5.64360E+04 -6.78025E+03 -7.71530E+04  3.35925E+04 -5.65544E+04  4.78160E+04 -1.70197E+04
  4.50282E+04  1.06537E+04  3.18182E+04  2.61003E+04  1.53819E+04  2.83416E+04 -5.11288E+03  2.80922E+04
 -2.20361E+04  1.19939E+04 -1.81646E+04 -5.42210E+03  7.03222E+03 -6.24254E+03  2.21856E+04  1.25243E+04
  7.14537E+03  3.63972E+04 -3.18556E+04  3.65559E+04 -6.39813E+04  3.19014E+03 -5.74606E+04 -4.25861E+04
 -1.33378E+04 -6.36695E+04  4.09044E+04 -4.50561E+04  5.92784E+04 -1.12311E+03  3.47190E+04  3.26544E+04
 -4.91672E+03  3.63365E+04 -3.07333E+04  1.66819E+04 -3.00220E+04 -4.51048E+03 -1.62656E+04 -1.16767E+04
 -8.68335E+03 -1.48106E+04 -1.39820E+02 -1.80743E+04  8.51271E+03 -2.31153E+04  1.51070E+04 -1.26716E+04
  1.20086E+04  6.04866E+03 -8.86613E+03  1.21854E+04 -2.20579E+04 -4.34767E+03 -8.92643E+03 -3.43396E+04
  2.34658E+04 -4.34358E+04  4.95357E+04 -1.99547E+04  4.59889E+04  2.04740E+04  1.58202E+04  4.42689E+04
 -1.56648E+04  3.38037E+04 -2.65733E+04  2.43234E+03 -1.05786E+04 -2.80880E+04  2.17630E+04 -3.43873E+04
  4.12366E+04 -9.29414E+03  3.67247E+04  2.31400E+04  1.85365E+04  4.83658E+04 -8.12537E+03  5.16119E+04
 -3.22776E+04  3.50939E+04 -4.22755E+04  9.32315E+03 -4.37054E+04 -1.64043E+04 -2.39345E+04 -3.88807E+04
  6.09754E+03 -3.93312E+04  3.17838E+04 -1.50039E+04  2.90683E+04  1.01658E+04  4.82977E+03  1.98144E+04
 -1.28599E+04  8.49424E+03 -9.01835E+03 -8.03971E+03  4.88350E+03 -1.13612E+04  1.84251E+04  4.68745E+03
  1.38355E+04  2.17028E+04 -6.30163E+03  2.56157E+04 -2.26837E+04  1.20500E+04 -2.86879E+04 -5.93129E+03
 -2.13261E+04 -1.82234E+04 -8.77376E+03 -2.10203E+04  4.66465E+03 -2.02629E+04  1.68193E+04 -1.81300E+04
  2.59849E+04 -1.43731E+04  3.34226E+04  3.33941E+03  2.42060E+04  1.96620E+04  5.08963E+03  3.60603E+04
 -1.74585E+04  3.09966E+04 -2.79952E+04  1.05817E+04 -2.09605E+04 -1.04951E+04 -3.99404E+03 -1.28921E+04
  2.55943E+03 -2.40150E+03 -5.00938E+03  7.44272E+03 -1.64326E+04  5.24891E+03 -1.59720E+04 -5.95076E+03
 -1.11237E+04 -1.89649E+04  6.23450E+03 -2.39408E+04  1.55003E+04 -1.68672E+04  1.78305E+04 -1.96482E+03
  1.09084E+04  1.27281E+04 -3.50807E+02  1.96418E+04 -1.35707E+04  1.10730E+04 -2.02046E+04 -3.72746E+03
 -1.45560E+04 -1.74155E+04 -1.48911E+03 -2.39350E+04  1.14002E+04 -1.90454E+04  1.87561E+04 -9.02969E+03
  1.83916E+04 -4.87476E+01  1.42412E+04  5.25286E+03  6.52530E+03  5.19679E+02  9.97184E+03 -1.28088E+03
  1.91513E+04  2.80495E+03  2.10849E+04  1.56387E+04  1.28470E+04  3.02084E+04 -2.31803E+03  3.50940E+04
 -2.08296E+04  2.80060E+04 -3.31486E+04  1.48554E+04 -3.36108E+04 -1.85104E+03 -2.79691E+04 -2.03268E+04
 -1.19585E+04 -2.83180E+04  8.69218E+03 -2.49569E+04  2.13360E+04 -1.35776E+04  1.98541E+04  6.14996E+03
  6.54571E+03  1.42884E+04 -9.44789E+03  1.23075E+04 -1.59767E+04  3.32898E+03 -1.28014E+04 -1.08644E+04
 -4.66529E+02 -1.57681E+04  7.86466E+03 -1.13303E+04  1.02966E+04 -2.09880E+03  2.48540E+03  6.94295E+03
 -6.13235E+03  2.96515E+03 -7.34672E+03 -6.49955E+03 -4.70387E+02 -1.35253E+04  8.87784E+03 -1.48413E+04
  1.70663E+04 -7.67341E+03  1.79403E+04  2.81880E+03  1.60829E+04  1.51332E+04  7.72565E+03  2.11879E+04
 -3.69576E+03  2.22291E+04 -1.40474E+04  1.48790E+04 -1.71406E+04  3.84366E+03 -1.10019E+04 -2.49170E+03
 -5.30600E+03 -6.22389E+03 -4.72510E+02  7.47958E+02 -2.72155E+03  2.50124E+03 -5.29222E+03  4.73460E+03
 -1.04993E+04 -1.14166E+03 -1.14623E+04 -9.01228E+03 -4.94045E+03 -1.47359E+04  4.10628E+03 -1.19519E+04
  8.48954E+03 -5.16278E+03  8.11063E+03  3.27378E+03  4.19137E+02  3.76816E+03 -5.70169E+03  1.92647E+00
 -4.88497E+03 -7.05392E+03 -1.35832E+03 -1.08423E+04  6.58347E+03 -1.06432E+04  1.51635E+04 -5.79817E+03
  1.59307E+04  2.51970E+03  1.20070E+04  8.55894E+03  2.41919E+03  1.30736E+04 -7.16524E+03  1.04966E+04
 -9.58410E+03  2.85370E+03 -4.60371E+03 -2.48112E+03  1.86766E+03 -2.88562E+03  5.90436E+03 -1.67634E+03
  5.29250E+03  4.77681E+03  1.45977E+03  1.02955E+04 -6.78522E+03  1.02837E+04 -1.13935E+04  3.32610E+03
 -6.31867E+03 -6.56077E+03  5.07348E+02 -1.01991E+04  5.69240E+03 -4.87739E+03  6.12092E+03  1.71927E+03
  1.54705E+03  6.74751E+03 -5.72424E+03  7.23089E+03 -7.64824E+03  3.75193E+03 -7.51425E+03 -2.43744E+03
 -4.61165E+03 -9.77944E+03  2.40760E+03 -1.03793E+04  9.94459E+03 -6.72561E+03  1.10911E+04  1.20410E+03
  6.99312E+03  7.95099E+03 -1.43344E+03  1.02025E+04 -7.31458E+03  5.41785E+03 -8.09481E+03  1.94808E+02
 -7.67115E+03 -7.88124E+03 -1.44799E+03 -6.93080E+03  3.81417E+03 -7.19140E+03  5.17954E+03 -3.81102E+03
  2.69675E+03  1.61405E+03 -2.29055E+02  1.06505E+03 -5.57417E+01 -2.71122E+03  9.81266E+02 -4.34346E+03
  6.27469E+03 -2.16349E+03  9.06676E+03  4.41928E+02  9.21071E+03  5.91132E+03  6.99491E+03  1.16316E+04
 -2.91915E+03  1.15045E+04 -1.13469E+04  9.14368E+03 -1.47336E+04  3.01572E+03 -1.16932E+04 -5.20871E+03
 -6.81275E+03 -1.00663E+04 -7.83161E+02 -8.50030E+03  2.41113E+03 -4.16525E+03  3.10195E+03 -2.99177E+03
  2.57888E+03 -2.29782E+03  2.14113E+03 -3.60085E+03  3.94990E+03 -1.57566E+03  5.16991E+03 -1.93264E+02
  5.31992E+03  1.44470E+03  4.72783E+03  4.08981E+03 -1.10972E+03  4.44593E+03 -7.14324E+03  5.96973E+03
 -7.50787E+03 -5.66997E+02 -4.40703E+03 -6.35309E+03 -5.31085E+02 -9.34787E+03  3.95896E+03 -7.51739E+03
  8.47220E+03 -4.71412E+03  1.10631E+04  1.19148E+03  7.00436E+03  7.16132E+03  1.15277E+03  9.83669E+03
 -4.06419E+03  9.01260E+03 -5.75888E+03  2.39765E+03 -2.97310E+03 -1.20887E+02 -8.92349E+02 -1.25099E+03
 -1.10247E+03 -4.08636E+02 -2.17752E+03  2.33651E+03 -3.41094E+03  2.03875E+03 -5.60880E+03 -5.85273E+02
 -2.90553E+03 -6.71309E+03  1.29420E+03 -6.77698E+03  4.98841E+03 -8.52293E+03  7.03807E+03 -9.52295E+02
  8.19994E+03  3.01133E+03  2.33023E+03  5.53609E+03  3.07696E+02  8.00781E+03 -4.01689E+03  4.72642E+03
 -7.41591E+03  7.23732E+02 -4.99766E+03 -3.52201E+03  1.35789E+02 -5.33327E+03  3.85109E+03 -4.62305E+03
  4.56005E+03 -1.97795E+03  3.38644E+03  1.59794E+03  1.35661E+03  2.94436E+03  4.00746E+02  4.80445E+02
  1.72173E+03  1.36839E+03  1.75875E+03  2.06288E+03  1.79843E+03  2.71941E+03  3.15807E+03  1.89369E+03
 -2.02115E+03  6.84400E+03 -4.25348E+03  7.31978E+03 -7.16542E+03  2.32711E+03 -9.13348E+03 -1.95341E+03
 -2.25358E+03 -6.87209E+03  1.25303E+03 -8.50715E+03  4.94982E+03 -6.46119E+03  7.52628E+03 -1.70270E+03
  4.16715E+03  2.84337E+03  1.47595E+03  5.14541E+03 -2.72770E+03  1.56624E+03 -1.74562E+03  1.55678E+02
 -1.33699E+03 -2.82458E+03  1.80481E+03 -2.92199E+03  3.47364E+03 -1.76738E+03  2.45984E+03  4.60491E+02
  1.76270E+03  8.05834E+02  6.17469E+02  1.28069E+03 -1.02341E+03  8.84919E+02  2.03141E+03 -9.58578E+02
  1.56739E+03  1.88761E+02  1.19955E+03  1.84191E+03  1.78973E+03  4.06127E+03 -4.70777E+02  4.33008E+03
 -4.28073E+03  2.82602E+03 -4.05402E+03  1.49469E+03 -5.29059E+03 -6.50080E+02 -1.44524E+03 -2.90182E+03
 -1.14619E+03 -2.82945E+03  1.43692E+03  2.52180E+02  1.11438E+03  1.51967E+03 -5.41903E+01  2.93650E+03
 -2.62627E+03  1.51882E+03 -2.64103E+03 -6.91163E+02  2.75859E+02 -3.16055E+03  1.32181E+03 -3.04220E+03
  2.27390E+03 -3.07134E+03  2.68570E+03  3.74596E+02  2.15983E+03  2.22989E+03 -5.71101E+02  3.23988E+03
 -2.84689E+03 -4.65543E+02 -2.04544E+03 -2.51177E+02  1.25424E+03 -2.38999E+03  1.57807E+03 -2.08972E+03
  3.15497E+03  1.36723E+03  3.69948E+03  1.24871E+03  1.69781E+03  3.92618E+03 -1.12321E+03  4.27610E+03
 -2.23999E+03  3.45390E+02 -4.77922E+03 -2.83357E+02 -1.93485E+03 -2.63117E+03  1.49158E+03 -2.10212E+03
  4.18701E+03 -1.29198E+03  1.51754E+03  1.60119E+03 -1.84782E+02  1.96132E+03  3.70112E+02  1.53691E+03
 -1.49275E+02  1.21101E+03 -4.97396E+02  4.22198E+02 -1.93779E+02  1.14417E+03 -4.81731E+02  1.21079E+03
 -5.37777E+02  6.59664E+02 -3.70596E+03  1.04307E+03 -3.16175E+03 -8.87720E+02 -3.48621E+03 -2.72402E+03
 -2.34436E+03 -5.11640E+03  6.98391E+02 -6.51586E+03  2.24257E+03 -3.86652E+03  4.47469E+03 -1.03478E+03
  4.12887E+03  7.87159E+02  2.43256E+03  1.69828E+03 -4.57425E+01  2.73690E+03 -2.25655E+03  2.35334E+03
 -8.41396E+02  2.24633E+03 -1.85382E+03 -1.48370E+02 -3.95265E+02  3.83546E+02 -9.80653E+01  5.45996E+02
 -1.33977E+03 -2.09098E+02 -1.02236E+03 -1.13899E+03 -8.74141E+02 -1.24240E+03 -2.92909E+02 -1.04874E+03
  2.21939E+03 -6.13867E+02  1.70106E+03 -3.44633E+02  2.56552E+03  1.62131E+03  2.93084E+02  3.94233E+03
 -1.96804E+03  3.89359E+03 -3.29227E+03  2.37816E+03 -3.94891E+03 -7.73994E+02 -2.23362E+03 -1.21153E+03
 -1.27717E+03 -3.54324E+03  1.58684E+03 -2.16711E+03  1.79750E+03 -1.75873E+03  2.06818E+03  4.51378E+02
  2.29573E+03  1.36252E+03 -5.14403E+02  4.80959E+02 -1.44529E+03 -6.88961E+02 -7.62823E+02  7.98573E+01
  1.00165E+03 -8.40447E+02  5.50084E+02  6.17807E+02  8.81615E+02  6.30613E+02  7.88783E+02  5.30021E+02
 -9.36025E+02  1.44172E+03 -2.09249E+03 -9.98734E+02 -1.75953E+03 -1.30266E+03  2.47606E+02 -3.01445E+03
  1.73174E+03 -6.21326E+02  2.53195E+03 -2.95262E+02  9.15737E+02  5.56152E+02 -6.60344E+02  1.11459E+03
  1.38639E+03  2.10501E+03 -1.08655E+03  2.81749E+03 -1.03443E+03  1.25519E+03 -3.57674E+02 -6.51467E+02
 -1.22716E+03 -6.63840E+02 -4.90242E+02  7.46443E+02 -2.32939E+02  7.98958E+02 -1.99138E+03 -9.14773E+02
 -2.26160E+03  6.43838E+01 -2.08116E+01 -1.24188E+03  7.54307E+02 -1.55989E+03  2.02159E+03 -1.46867E+03
  2.77047E+03 -2.70561E+02  5.98366E+02  7.55633E+02 -3.73052E+02  2.26084E+03 -1.69444E+03  1.57827E+03
