 $NMID ID='MM_0lb_SNR200_9hz_g55_31.RAW', FMTDAT='(8E13.5)'
 TRAMP=1., VOLUME=1. $END
  3.09003E+05  2.01019E+03  3.37906E+05  2.50759E+05  8.48996E+04  3.38896E+05 -1.32285E+05  2.51842E+05
 -1.89905E+05  8.32949E+04 -1.11304E+05 -3.10022E+04 -1.20453E+03 -5.09840E+04  5.52987E+04  1.91890E+02
  3.48522E+04  5.12969E+04 -1.65257E+04  7.54465E+04 -6.28819E+04  6.45825E+04 -8.51440E+04  3.14358E+04
 -8.24858E+04 -1.20784E+04 -5.77713E+04 -5.26373E+04 -1.41614E+04 -6.98084E+04  2.83899E+04 -4.74813E+04
  4.02697E+04  2.60607E+03  1.70799E+04  4.86502E+04 -3.48584E+04  4.83042E+04 -6.89522E+04 -1.09320E+03
 -5.42301E+04 -5.76035E+04 -8.56923E+03 -8.03113E+04  3.53506E+04 -5.88215E+04  5.02782E+04 -1.86500E+04
  4.44555E+04  1.19878E+04  3.30981E+04  2.72752E+04  1.56169E+04  2.94583E+04 -7.47768E+03  2.74737E+04
 -2.25912E+04  1.29146E+04 -1.60219E+04 -4.52924E+03  7.55578E+03 -7.39531E+03  2.43106E+04  1.38914E+04
  6.84042E+03  3.62865E+04 -3.48759E+04  3.78879E+04 -6.50972E+04  1.79776E+03 -5.87422E+04 -4.52309E+04
 -1.15726E+04 -6.63756E+04  4.14125E+04 -4.60393E+04  6.15754E+04 -1.54471E+03  3.61266E+04  3.45224E+04
 -6.69067E+03  3.83606E+04 -3.31391E+04  1.84956E+04 -3.45110E+04 -2.63084E+03 -2.02587E+04 -1.12973E+04
 -1.02031E+04 -1.57650E+04 -2.24850E+03 -2.17151E+04  8.39242E+03 -2.33435E+04  1.63931E+04 -1.31208E+04
  9.64980E+03  7.22814E+03 -1.09368E+04  1.19284E+04 -2.35287E+04 -6.20982E+03 -9.10315E+03 -3.89150E+04
  2.37550E+04 -4.75233E+04  5.29734E+04 -1.97886E+04  4.86335E+04  2.01876E+04  1.85328E+04  4.77167E+04
 -1.71743E+04  3.68910E+04 -2.78658E+04  2.45341E+03 -1.13059E+04 -2.91082E+04  2.29921E+04 -3.76285E+04
  4.21853E+04 -1.08709E+04  4.14900E+04  2.32397E+04  2.17018E+04  5.10992E+04 -9.09330E+03  5.74092E+04
 -3.80527E+04  3.73590E+04 -4.75547E+04  1.12781E+04 -4.66896E+04 -1.90533E+04 -2.67846E+04 -4.21350E+04
  8.88257E+03 -4.19984E+04  3.58873E+04 -1.84490E+04  3.17892E+04  9.70172E+03  4.36531E+03  2.07732E+04
 -1.59607E+04  1.11342E+04 -1.30791E+04 -6.07174E+03  6.22592E+03 -1.19429E+04  1.79238E+04  3.75299E+03
  1.33475E+04  2.38628E+04 -3.70465E+03  2.66778E+04 -2.45593E+04  1.41153E+04 -3.19574E+04 -3.80266E+03
 -2.60535E+04 -1.92879E+04 -1.18328E+04 -2.46602E+04  4.85934E+03 -2.81709E+04  2.24505E+04 -2.15158E+04
  3.18162E+04 -1.56620E+04  3.80028E+04  4.34195E+03  2.57355E+04  2.61279E+04  5.27211E+03  4.07739E+04
 -1.94516E+04  3.28746E+04 -3.11637E+04  1.10237E+04 -2.22504E+04 -9.83875E+03 -4.89352E+03 -1.44373E+04
 -1.06820E+02 -1.73056E+03 -8.28712E+03  8.53926E+03 -2.08178E+04  4.13347E+03 -2.08249E+04 -9.40556E+03
 -1.21477E+04 -2.61385E+04  5.87676E+03 -2.81159E+04  1.99980E+04 -1.92877E+04  2.47623E+04 -2.25465E+03
  1.25290E+04  1.75814E+04 -1.78215E+03  2.35927E+04 -1.71058E+04  1.43472E+04 -2.47156E+04 -4.20530E+03
 -1.74926E+04 -2.11915E+04 -2.16515E+03 -2.88610E+04  1.25812E+04 -2.36170E+04  2.35882E+04 -1.11924E+04
  2.44962E+04 -3.34254E+02  1.82929E+04  5.36624E+03  8.08728E+03  9.93787E+02  1.14797E+04 -2.14492E+03
  2.34059E+04  1.39633E+03  2.65345E+04  2.03847E+04  1.73599E+04  3.88761E+04 -3.13912E+03  4.56293E+04
 -2.73290E+04  3.69703E+04 -4.28768E+04  1.91757E+04 -4.60016E+04 -3.20769E+03 -3.73633E+04 -2.75288E+04
 -1.61277E+04 -3.92465E+04  1.32526E+04 -3.36613E+04  2.93070E+04 -1.55215E+04  2.32715E+04  8.09277E+03
  8.06492E+03  1.99360E+04 -1.10894E+04  1.56886E+04 -2.06147E+04  2.29304E+03 -1.54079E+04 -1.18089E+04
 -6.72413E+02 -1.98285E+04  9.24522E+03 -1.58325E+04  1.35935E+04 -1.26937E+03  2.68306E+03  8.57446E+03
 -9.01131E+03  6.30414E+03 -9.24542E+03 -6.64608E+03 -1.72540E+03 -1.73648E+04  1.18214E+04 -2.04413E+04
  2.27329E+04 -1.07885E+04  2.74083E+04  2.84866E+03  2.42689E+04  1.89812E+04  1.14454E+04  3.13915E+04
 -6.99020E+03  3.11061E+04 -2.12834E+04  2.00600E+04 -2.43013E+04  3.71386E+03 -1.60338E+04 -5.63241E+03
 -6.87908E+03 -6.82956E+03  6.11751E+02  4.50593E+02 -2.68971E+03  4.12602E+03 -7.71964E+03  3.75404E+03
 -1.58320E+04 -4.46154E+02 -1.47336E+04 -1.08334E+04 -7.03119E+03 -1.91140E+04  6.04479E+03 -1.62064E+04
  1.33024E+04 -6.32317E+03  9.50323E+03  4.32078E+03  1.31936E+02  7.42248E+03 -7.70434E+03 -3.46658E+02
 -7.47334E+03 -1.03216E+04 -2.80658E+03 -1.63517E+04  9.55817E+03 -1.67570E+04  2.08572E+04 -1.00076E+04
  2.45904E+04  3.72316E+03  1.85330E+04  1.38519E+04  5.07300E+03  1.95429E+04 -9.57610E+03  1.64436E+04
 -1.28919E+04  4.87537E+03 -6.09587E+03 -3.97317E+03  3.04705E+03 -4.66001E+03  8.71156E+03 -1.12194E+03
  8.54585E+03  6.93530E+03  1.95389E+03  1.40174E+04 -9.87741E+03  1.24992E+04 -1.56548E+04  1.90687E+03
 -1.14643E+04 -7.24172E+03  1.32921E+02 -1.43648E+04  9.64437E+03 -7.15937E+03  9.44291E+03  3.34713E+03
  3.01045E+03  1.02927E+04 -8.30498E+03  1.26154E+04 -1.51631E+04  5.28623E+03 -1.41192E+04 -4.14100E+03
 -7.44305E+03 -1.85267E+04  2.25159E+03 -1.94548E+04  1.54719E+04 -1.09805E+04  1.72374E+04  2.15249E+03
  9.22282E+03  1.29156E+04 -1.58979E+03  1.61582E+04 -1.35636E+04  9.66951E+03 -1.31611E+04 -2.29230E+03
 -1.02800E+04 -1.04528E+04 -1.26206E+03 -1.34271E+04  6.37015E+03 -9.39149E+03  8.10358E+03 -4.64020E+03
  5.03776E+03  3.43567E+03 -2.52818E+03  7.50848E+02 -1.13239E+03 -2.85556E+03  2.10574E+03 -8.77046E+03
  1.19942E+04 -4.27218E+03  1.75237E+04  2.22126E+03  1.57288E+04  1.29704E+04  1.05552E+04  2.23886E+04
 -4.55186E+03  2.55848E+04 -2.20502E+04  1.90259E+04 -2.62609E+04  3.20503E+03 -2.15644E+04 -1.06190E+04
 -9.88937E+03 -1.78539E+04 -9.01372E+02 -1.50621E+04  6.30618E+03 -9.14789E+03  5.79699E+03 -4.54791E+03
  4.21698E+03 -3.65953E+03  3.57303E+03 -3.21353E+03  4.77551E+03 -4.41563E+03  8.37074E+03 -2.90126E+03
  1.07151E+04  4.13356E+03  5.73399E+03  9.67991E+03 -3.41848E+03  1.28619E+04 -1.14854E+04  7.48499E+03
 -1.45089E+04 -1.07923E+03 -9.64813E+03 -1.09268E+04 -7.27654E+02 -1.69276E+04  8.69554E+03 -1.51153E+04
  1.74213E+04 -9.01274E+03  1.86786E+04  3.56957E+03  1.31935E+04  1.52212E+04  1.92714E+03  1.73391E+04
 -9.44224E+03  1.36871E+04 -1.02718E+04  7.00817E+03 -7.20323E+03 -3.24142E+03 -3.02815E+03 -3.36305E+03
 -1.42730E+03  2.33082E+02 -1.71047E+03  3.50815E+03 -6.45361E+03  2.33536E+03 -9.95229E+03 -1.80551E+03
 -7.50322E+03 -1.10740E+04  2.90081E+02 -1.49013E+04  8.71863E+03 -1.35625E+04  1.64549E+04 -2.75138E+03
  1.52472E+04  5.98681E+03  6.16003E+03  1.33648E+04 -4.04179E+03  1.68997E+04 -9.27936E+03  9.22547E+03
 -1.34253E+04 -6.43111E+02 -1.05423E+04 -1.02319E+04 -7.55800E+02 -1.49037E+04  7.16910E+03 -9.19770E+03
  8.61806E+03 -5.01336E+03  7.69787E+03  1.82995E+03  2.52047E+03  4.29262E+03  1.33868E+03 -1.24644E+02
  5.54198E+02  2.13877E+03  3.72042E+03  2.03191E+03  4.47804E+03  4.72671E+03  3.20397E+03  9.12245E+03
 -4.80704E+03  1.07069E+04 -9.26930E+03  1.15371E+04 -1.53571E+04  3.14178E+03 -1.68081E+04 -7.06192E+03
 -7.68148E+03 -1.50341E+04  2.67301E+03 -1.82366E+04  1.04540E+04 -1.04959E+04  1.31667E+04 -2.03999E+03
  1.03960E+04  4.75895E+03  8.52943E+02  7.95753E+03 -2.91039E+03  5.99686E+03 -5.53564E+03 -3.79949E+02
 -3.99047E+03 -7.71090E+03  3.49710E+03 -7.83160E+03  6.67870E+03 -2.50263E+03  6.01967E+03  5.88000E+02
  3.24168E+03  2.08747E+03  2.55975E+03  2.56874E+03 -3.27727E+01  3.28655E+03  9.04417E+02 -2.12548E+03
  1.73630E+03 -6.17905E+02  7.71782E+03  2.11374E+03  2.18965E+03  8.76929E+03 -1.02568E+03  1.26304E+04
 -6.91430E+03  6.81748E+03 -9.29968E+03  1.83505E+03 -8.72975E+03 -3.83730E+03 -3.79770E+03 -5.63430E+03
  1.31372E+03 -7.30065E+03  6.59601E+03 -2.85469E+03  3.61744E+03  2.89422E+03 -8.90305E+02  5.38530E+03
 -6.66874E+03  3.27913E+03 -7.89252E+03 -5.18971E+03 -3.72539E+03 -1.02222E+04 -3.44566E+02 -9.55352E+03
  4.89319E+03 -3.42292E+03  8.06803E+03 -1.49277E+03  4.46447E+03  1.19955E+03  7.64365E+02  4.10642E+03
 -4.23004E+03  1.15915E+03 -3.05644E+03 -4.90669E+03  2.43323E+03 -7.64044E+03  7.06593E+03 -5.16613E+03
  1.07147E+04  4.72367E+02  9.62454E+03  5.46080E+03  3.51054E+03  1.02228E+04 -2.58569E+03  9.04713E+03
 -8.46082E+03  5.31865E+03 -9.32899E+03 -5.71438E+01 -4.99719E+03 -6.58814E+03  1.37151E+03 -5.94185E+03
  5.51043E+03 -3.38075E+03  6.57337E+03  2.81909E+03  1.76121E+03  5.85249E+03 -8.29313E+02  5.75819E+03
 -1.64338E+03  5.40953E+03 -1.66268E+03  2.49813E+02  7.47351E+02  1.94540E+02 -4.20083E+02  2.48216E+03
 -3.22995E+03  4.30087E+03 -7.74145E+03  5.56212E+03 -1.00486E+04  5.95274E+01 -1.17129E+04 -6.91691E+03
 -6.04769E+03 -1.41453E+04  8.91594E+02 -1.72113E+04  1.09870E+04 -1.24058E+04  1.59483E+04 -5.15485E+03
  1.41022E+04  2.61942E+03  7.50849E+03  1.03958E+04  2.71387E+02  9.51054E+03 -3.68960E+03  9.10895E+03
 -8.09777E+03  2.30598E+03 -4.55122E+03 -1.71005E+03 -6.36972E+02  9.40530E+02 -8.23918E+02  3.46722E+02
 -1.38373E+03 -5.46133E+02 -1.76591E+03 -4.99370E+02 -9.85230E+02 -5.08914E+03  1.60122E+01 -5.08648E+03
  4.43400E+03 -4.00998E+03  7.94624E+03  1.67206E+03  6.78826E+03  6.31793E+03  2.34299E+03  1.15384E+04
 -6.16375E+03  1.28805E+04 -1.11586E+04  4.86918E+03 -1.42596E+04 -1.19114E+03 -9.36874E+03 -8.10154E+03
 -2.12834E+03 -1.07398E+04  1.60859E+03 -9.52547E+03  6.58410E+03 -6.26098E+03  7.62092E+03 -8.88358E+02
  3.83850E+03  2.39048E+03 -6.31945E+02  2.32228E+03 -1.79359E+03 -6.74385E+02 -1.18142E+03 -1.60808E+03
  2.73382E+03 -1.24700E+03  3.15434E+03  2.12667E+03  5.12964E+03  3.99513E+03 -8.92618E+01  6.21629E+03
 -4.26046E+03  5.62633E+03 -7.74477E+03  2.46027E+01 -5.74363E+03 -5.59839E+03 -1.52370E+03 -8.68458E+03
  3.12478E+03 -6.76815E+03  9.35492E+03 -1.72217E+03  8.83082E+03  1.00845E+03  5.95963E+03  5.08601E+03
  3.32245E+03  7.93795E+03 -4.37511E+03  5.84474E+03 -5.64414E+03  3.30522E+03 -4.63466E+03  5.71205E+02
 -2.55863E+03 -1.74649E+02 -2.94468E+03  1.13168E+03 -3.32053E+03  6.89175E+02 -4.01193E+03 -1.73239E+03
 -3.57337E+03 -3.61375E+03 -2.10203E+03 -7.64745E+03  4.70220E+03 -6.95353E+03  5.87002E+03 -2.50467E+03
  8.42439E+03  7.49256E+01  5.13046E+03  5.50929E+03  7.25890E+02  6.93454E+03 -6.16761E+03  5.11835E+03
