 $NMID ID='MM_0lb_SNR200_13hz_g55_54.RAW', FMTDAT='(8E13.5)'
 TRAMP=1., VOLUME=1. $END
  3.09168E+05  4.67935E+02  3.36890E+05  2.50492E+05  8.56609E+04  3.38376E+05 -1.32139E+05  2.51965E+05
 -1.89950E+05  8.33273E+04 -1.12221E+05 -3.30264E+04  2.61122E+02 -5.13171E+04  5.30837E+04  1.36869E+02
  3.60431E+04  5.19639E+04 -1.73755E+04  7.70931E+04 -6.16849E+04  6.37067E+04 -8.49893E+04  3.19925E+04
 -8.12249E+04 -1.22232E+04 -5.56555E+04 -5.22534E+04 -1.44237E+04 -7.15715E+04  2.75129E+04 -4.48624E+04
  3.95524E+04  5.39225E+03  1.59978E+04  5.03502E+04 -3.54970E+04  4.76098E+04 -6.70444E+04  8.35840E+02
 -5.33818E+04 -5.61985E+04 -7.74320E+03 -7.79803E+04  3.47418E+04 -5.58002E+04  4.77415E+04 -1.76527E+04
  4.48825E+04  1.01653E+04  3.17210E+04  2.56285E+04  1.63794E+04  3.01720E+04 -5.79388E+03  2.76387E+04
 -2.09737E+04  1.22549E+04 -1.79547E+04 -5.66688E+03  5.22997E+03 -8.35388E+03  2.25948E+04  1.26621E+04
  6.87739E+03  3.55223E+04 -3.36687E+04  3.60514E+04 -6.37647E+04  2.23022E+03 -5.69565E+04 -4.32891E+04
 -1.19281E+04 -6.43968E+04  4.06591E+04 -4.57410E+04  5.95701E+04 -3.26500E+03  3.48397E+04  3.38412E+04
 -5.87956E+03  3.63580E+04 -2.97232E+04  1.71180E+04 -3.15811E+04 -2.71990E+03 -1.79550E+04 -1.18265E+04
 -7.93390E+03 -1.29916E+04  1.59784E+02 -2.02191E+04  8.55790E+03 -2.32352E+04  1.46722E+04 -1.33568E+04
  9.89755E+03  5.93037E+03 -8.93872E+03  1.35285E+04 -2.33026E+04 -5.08838E+03 -7.73206E+03 -3.50404E+04
  2.26187E+04 -4.49315E+04  4.95083E+04 -1.93825E+04  4.66218E+04  1.96835E+04  1.64774E+04  4.47050E+04
 -1.71804E+04  3.35939E+04 -2.53465E+04  1.68262E+03 -1.02798E+04 -2.86985E+04  2.08850E+04 -3.49112E+04
  4.16835E+04 -8.66163E+03  3.72572E+04  2.36459E+04  1.96746E+04  4.85671E+04 -8.49290E+03  5.26486E+04
 -3.28244E+04  3.54116E+04 -4.34218E+04  1.10353E+04 -4.42479E+04 -1.69313E+04 -2.48504E+04 -4.14182E+04
  6.52418E+03 -3.91685E+04  3.12984E+04 -1.60863E+04  2.98146E+04  1.08757E+04  3.85045E+03  2.01926E+04
 -1.42182E+04  9.80223E+03 -1.09826E+04 -8.06291E+03  5.14481E+03 -1.02526E+04  1.89845E+04  6.13412E+03
  1.44882E+04  2.21591E+04 -6.84076E+03  2.59738E+04 -2.35449E+04  1.30153E+04 -2.88509E+04 -3.66918E+03
 -2.21604E+04 -1.86039E+04 -7.86013E+03 -2.16711E+04  3.85219E+03 -2.11021E+04  1.67048E+04 -2.00844E+04
  2.81005E+04 -1.28054E+04  3.50455E+04  3.46593E+03  2.49318E+04  2.12249E+04  5.26167E+03  3.72787E+04
 -1.81339E+04  3.24583E+04 -2.78422E+04  1.06017E+04 -2.15252E+04 -1.11113E+04 -5.60410E+03 -1.22811E+04
  2.37362E+03 -2.15319E+03 -4.86635E+03  7.01818E+03 -1.79770E+04  5.03925E+03 -1.69777E+04 -8.07242E+03
 -9.51716E+03 -2.04633E+04  4.22447E+03 -2.47558E+04  1.64093E+04 -1.86649E+04  2.07983E+04 -1.56088E+03
  1.20092E+04  1.43947E+04 -2.56312E+03  2.10958E+04 -1.38770E+04  1.14823E+04 -1.98074E+04 -3.78995E+03
 -1.57038E+04 -1.83374E+04 -2.44373E+03 -2.39255E+04  1.22746E+04 -2.01521E+04  2.01318E+04 -9.75593E+03
  1.80361E+04 -8.85812E+02  1.32089E+04  3.73089E+03  7.76562E+03  2.04667E+02  9.72461E+03 -2.09503E+03
  1.81007E+04  2.95588E+03  2.02970E+04  1.65580E+04  1.44799E+04  3.21759E+04 -3.70623E+03  3.73764E+04
 -2.01246E+04  3.00209E+04 -3.51382E+04  1.42031E+04 -3.66584E+04 -1.83024E+03 -3.07209E+04 -2.21075E+04
 -1.40286E+04 -3.14043E+04  1.07050E+04 -2.83015E+04  2.39017E+04 -1.32365E+04  2.08768E+04  6.03950E+03
  8.02384E+03  1.52590E+04 -1.05903E+04  1.40971E+04 -1.78932E+04  1.75949E+03 -1.34546E+04 -1.16035E+04
 -2.31598E+02 -1.71387E+04  8.00625E+03 -1.23340E+04  1.04773E+04 -1.00760E+03  3.11435E+03  7.82144E+03
 -6.44646E+03  1.25726E+03 -7.34066E+03 -6.50692E+03 -2.22924E+02 -1.40263E+04  1.16479E+04 -1.68746E+04
  1.85629E+04 -8.88354E+03  2.12395E+04  4.57977E+03  1.80806E+04  1.46542E+04  8.78250E+03  2.17236E+04
 -4.45189E+03  2.56297E+04 -1.54654E+04  1.56999E+04 -1.76765E+04  3.00803E+03 -1.28824E+04 -3.63957E+03
 -4.54179E+03 -6.13125E+03 -3.19486E+02  7.11420E+02 -2.51646E+03  2.69910E+03 -5.12887E+03  4.67121E+03
 -1.04784E+04  4.14544E+02 -1.26092E+04 -1.05076E+04 -4.30415E+03 -1.70568E+04  4.37215E+03 -1.11002E+04
  1.03534E+04 -6.47909E+03  7.25913E+03  3.72172E+03 -1.04772E+03  4.59371E+03 -6.34990E+03 -3.07160E+02
 -6.24415E+03 -8.23695E+03  3.70842E+02 -1.21519E+04  7.26061E+03 -1.24834E+04  1.56223E+04 -6.79070E+03
  1.66643E+04  2.14047E+03  1.37596E+04  1.07056E+04  2.83526E+03  1.35725E+04 -7.34645E+03  1.22351E+04
 -1.11754E+04  4.06827E+03 -6.16563E+03 -2.34857E+03  2.09862E+03 -3.50124E+03  6.89405E+03 -2.13484E+03
  6.30555E+03  5.32966E+03  9.04890E+02  8.84681E+03 -7.14100E+03  8.60301E+03 -1.13457E+04  3.61319E+03
 -8.94238E+03 -7.71244E+03  8.18988E-01 -9.02264E+03  7.50505E+03 -5.22548E+03  6.55082E+03  2.50289E+03
  1.50523E+03  7.68200E+03 -6.34593E+03  8.78833E+03 -1.05909E+04  3.39561E+03 -1.00884E+04 -2.83805E+03
 -5.56421E+03 -1.15471E+04  2.94675E+03 -1.41312E+04  1.20154E+04 -7.07404E+03  1.08859E+04  1.58789E+03
  6.93475E+03  9.27581E+03 -1.65119E+03  1.21839E+04 -8.63542E+03  7.64586E+03 -1.08584E+04 -6.72788E+02
 -9.92367E+03 -8.61938E+03 -2.40998E+03 -8.87383E+03  4.70332E+03 -7.43085E+03  6.51851E+03 -3.19570E+03
  4.58872E+03  2.04730E+03 -8.75541E+02  1.05870E+03 -8.46876E+02 -1.38678E+03  8.11606E+02 -5.64454E+03
  7.98319E+03 -1.80458E+03  1.05929E+04  5.97290E+02  1.09498E+04  7.26759E+03  8.92255E+03  1.48976E+04
 -3.60702E+03  1.64311E+04 -1.52632E+04  1.27773E+04 -1.71296E+04  3.90996E+03 -1.45287E+04 -4.87817E+03
 -6.28133E+03 -1.24759E+04  3.84709E+02 -9.92907E+03  3.85429E+03 -6.02700E+03  2.73422E+03 -3.79415E+03
  2.74389E+03 -1.82288E+03  3.80056E+03 -3.58054E+03  4.86227E+03 -3.31060E+03  5.83178E+03  1.38320E+02
  6.90402E+03  1.55899E+03  3.01518E+03  7.59647E+03 -1.86819E+03  7.04634E+03 -8.03907E+03  5.31783E+03
 -7.94750E+03 -1.06309E+03 -6.05912E+03 -7.40513E+03 -4.43865E+01 -1.06203E+04  7.26806E+03 -1.04283E+04
  1.23606E+04 -5.86950E+03  1.31224E+04  3.71227E+02  9.76739E+03  9.31029E+03  1.19517E+03  1.16811E+04
 -3.45389E+03  1.06389E+04 -7.83167E+03  3.22539E+03 -3.93904E+03 -2.63252E+03 -1.62911E+03 -1.60353E+03
 -5.56076E+02  3.52779E+02 -1.61679E+03  2.46572E+03 -3.81009E+03  1.68269E+03 -7.47184E+03 -5.99606E+02
 -4.38915E+03 -8.35721E+03  1.18669E+03 -9.89665E+03  6.37660E+03 -8.49642E+03  9.60713E+03 -3.47087E+03
  8.68610E+03  4.28277E+03  3.76318E+03  8.86423E+03 -1.64453E+03  1.00175E+04 -7.06595E+03  6.39506E+03
 -8.03912E+03  1.62221E+03 -7.53078E+03 -6.01572E+03 -1.16719E+03 -8.32670E+03  4.01365E+03 -5.97387E+03
  6.48428E+03 -3.11034E+03  4.57754E+03  1.40992E+03  1.50676E+03  3.01452E+03  1.73551E+03  1.45481E+03
  2.11795E+03 -5.09720E+02  2.17250E+03  1.33136E+03  2.64463E+03  3.98165E+03  1.94084E+03  4.50585E+03
 -1.47969E+03  6.00278E+03 -6.90841E+03  6.41918E+03 -7.93916E+03  1.76177E+03 -8.82091E+03 -3.67113E+03
 -5.26401E+03 -7.69599E+03  1.91961E+03 -1.13814E+04  5.80892E+03 -6.07492E+03  8.31720E+03 -1.15983E+03
  6.33408E+03  4.04117E+03  2.75350E+03  5.48529E+03 -2.24325E+03  3.04380E+03 -3.66266E+03 -7.13601E+02
 -1.32826E+03 -2.65669E+03  1.82760E+03 -3.97447E+03  2.55308E+03 -1.44881E+03  2.78728E+03  3.47879E+02
  1.84577E+03  1.40297E+03  1.59095E+03  1.61789E+03 -3.46818E+02  5.75089E+02  1.02238E+03 -2.75159E+02
  8.50165E+02  4.49074E+02  4.71699E+03  7.15738E+02  1.43764E+03  5.15269E+03 -5.02647E+02  7.14959E+03
 -3.80346E+03  3.59703E+03 -5.08871E+03  1.41828E+03 -5.19034E+03 -2.34856E+03 -1.18511E+03 -4.14135E+03
  3.29556E+02 -3.36081E+03  9.15861E+02 -2.03651E+03  2.52769E+03  2.70264E+03 -1.49505E+03  3.34169E+03
 -4.22435E+03  3.06363E+03 -2.25581E+03 -3.32452E+03 -3.09804E+03 -5.73915E+03  7.47221E+02 -5.76664E+03
  4.08911E+03 -1.85751E+03  2.99888E+03  4.00865E+02  2.51101E+03  7.23204E+02  9.95161E+02  3.53924E+03
 -8.42977E+02  3.37962E+02 -9.94198E+02 -1.73107E+03 -8.33832E+02 -2.99846E+03  3.57166E+03 -2.32552E+03
  4.72304E+03  2.39341E+02  5.54702E+03  3.30422E+03  1.86034E+03  4.96222E+03 -1.54308E+03  5.88611E+03
 -4.96601E+03  2.69143E+03 -4.93645E+03 -2.86044E+02 -2.14045E+03 -3.92057E+03  1.27210E+03 -2.65808E+03
  3.90680E+03 -1.90719E+03  2.56828E+03  2.29346E+03  1.58680E+03  2.68003E+03 -9.37365E+02  2.43122E+03
 -1.55799E+03  1.91050E+03 -1.60622E+03  4.79091E+00 -7.38549E+02 -6.13229E+02 -8.36901E+01  9.10117E+02
 -1.34773E+03  1.42142E+03 -2.77211E+03  8.49238E+02 -5.35738E+03  1.45099E+02 -5.28137E+03 -4.09241E+03
 -2.31922E+03 -6.80054E+03  1.55446E+03 -7.91474E+03  3.88159E+03 -5.51701E+03  6.94070E+03 -1.39436E+03
  7.32150E+03  1.54049E+03  4.46895E+03  5.86892E+03  1.81221E+03  5.63256E+03 -1.82740E+03  4.24033E+03
 -3.18091E+03  1.73188E+03 -2.62796E+03  6.80986E+02 -3.10576E+03 -7.71971E+02 -1.11558E+03 -5.11052E+02
 -1.24442E+03  1.07473E+02 -2.88556E+03  1.35493E+01  9.26268E+00 -1.03169E+03  7.52730E+02 -3.61556E+03
  2.78040E+03 -2.22734E+03  3.68821E+03  4.45048E+02  2.90299E+03  2.90532E+03  4.51602E+02  3.61684E+03
 -2.28552E+03  5.44507E+03 -4.63637E+03  3.79006E+03 -6.67148E+03  1.01840E+02 -4.31976E+03 -3.60569E+03
 -1.12261E+03 -5.06727E+03  1.06925E+03 -5.25653E+03  1.42711E+03 -2.89556E+03  2.69799E+03  1.54067E+03
  2.74377E+03  1.40255E+03  8.11004E+02  7.93765E+02 -8.66839E+02 -6.18761E+02 -1.57983E+02 -1.19055E+03
  2.59194E+03 -1.99622E+03  1.56903E+03  1.43446E+03  7.48975E+02  1.89543E+03 -3.68864E+02  1.63128E+03
 -3.00929E+03  2.48882E+03 -4.07954E+03 -6.54468E+02 -2.42908E+03 -2.32024E+03 -1.19815E+03 -3.38950E+03
  1.69779E+03 -2.87099E+03  3.12648E+03 -1.36244E+03  3.15869E+03  1.11805E+03  1.73119E+03  2.39124E+03
  2.39671E+02  3.34653E+03 -2.52480E+03  1.56600E+03 -8.72388E+02  2.18189E+03 -1.26851E+02 -5.16478E+02
 -1.46967E+03 -7.37723E+02 -1.81185E+02  3.09551E+02 -2.55190E+03  4.99107E+02 -2.39818E+03 -2.23606E+03
 -3.11351E+03 -1.08225E+03 -5.20174E+02 -4.63175E+03  1.35620E+03 -4.13503E+03  2.52346E+03 -2.37561E+03
  2.14151E+03  5.56318E+01  1.32671E+03  1.53609E+03 -8.45991E+02  3.57264E+03 -1.66929E+03  2.16919E+03
