 $NMID ID='MM_0lb_SNR200_7hz_g40_1.RAW', FMTDAT='(8E13.5)'
 TRAMP=1., VOLUME=1. $END
  3.09425E+05  9.03109E+02  3.37941E+05  2.52383E+05  8.57150E+04  3.39710E+05 -1.32544E+05  2.52857E+05
 -1.90747E+05  8.36590E+04 -1.12164E+05 -3.32768E+04  8.91880E+02 -5.18988E+04  5.47719E+04 -1.40769E+03
  3.60560E+04  5.27635E+04 -1.71254E+04  7.74780E+04 -6.17764E+04  6.59770E+04 -8.65591E+04  3.26748E+04
 -8.20516E+04 -1.17119E+04 -5.95417E+04 -5.28087E+04 -1.47290E+04 -7.06295E+04  2.88882E+04 -4.86034E+04
  4.10030E+04  3.26124E+03  1.69164E+04  4.83346E+04 -3.43126E+04  4.81212E+04 -6.76651E+04  9.39531E+02
 -5.68671E+04 -5.76190E+04 -8.55368E+03 -7.94254E+04  3.61124E+04 -5.71589E+04  4.90652E+04 -1.97721E+04
  4.48322E+04  8.80867E+03  3.23025E+04  2.74523E+04  1.54886E+04  2.96829E+04 -6.42750E+03  2.73981E+04
 -2.10921E+04  1.18247E+04 -1.72822E+04 -4.87527E+03  7.14748E+03 -6.92802E+03  2.44128E+04  1.43705E+04
  6.72184E+03  3.78644E+04 -3.45592E+04  3.85919E+04 -6.61592E+04  2.97820E+03 -5.95584E+04 -4.54272E+04
 -1.29515E+04 -6.62460E+04  4.13922E+04 -4.49879E+04  6.34198E+04 -2.93569E+03  3.77087E+04  3.45728E+04
 -4.05195E+03  4.15934E+04 -3.15420E+04  1.93413E+04 -3.47883E+04 -3.52897E+03 -1.92091E+04 -1.07314E+04
 -1.01036E+04 -1.41121E+04 -7.34164E+02 -2.02645E+04  9.22017E+03 -2.37129E+04  1.52780E+04 -1.31417E+04
  8.91303E+03  6.11664E+03 -1.02521E+04  1.30038E+04 -2.40451E+04 -7.70752E+03 -9.49799E+03 -3.82755E+04
  2.52860E+04 -4.85509E+04  5.18605E+04 -2.23540E+04  4.84350E+04  2.06421E+04  1.61045E+04  4.82085E+04
 -1.68982E+04  3.67957E+04 -2.76250E+04  2.86283E+03 -1.23313E+04 -2.85372E+04  2.14856E+04 -3.68778E+04
  4.56437E+04 -1.15708E+04  4.18001E+04  2.41621E+04  2.39411E+04  5.14962E+04 -7.02501E+03  5.58799E+04
 -3.54675E+04  3.93174E+04 -4.77958E+04  1.14763E+04 -5.04923E+04 -1.85652E+04 -2.74586E+04 -4.17707E+04
  7.24590E+03 -4.35097E+04  3.35572E+04 -1.84794E+04  3.17069E+04  1.10374E+04  5.06164E+03  2.04645E+04
 -1.22310E+04  1.23038E+04 -1.08290E+04 -7.31864E+03  5.57335E+03 -1.25071E+04  1.98303E+04  5.28332E+03
  1.51277E+04  2.26488E+04 -4.57380E+03  2.72663E+04 -2.14916E+04  1.26778E+04 -3.18110E+04 -3.95492E+03
 -2.60183E+04 -2.05588E+04 -1.21603E+04 -2.73057E+04  4.20626E+03 -2.91270E+04  2.26081E+04 -2.49618E+04
  3.26903E+04 -1.48721E+04  4.03601E+04  7.60823E+03  2.78872E+04  2.70600E+04  5.71683E+03  4.39082E+04
 -2.06712E+04  3.54405E+04 -3.20347E+04  1.27765E+04 -2.24934E+04 -1.09661E+04 -6.02455E+03 -1.25255E+04
  9.00358E+02 -9.31556E+02 -8.86106E+03  8.82862E+03 -2.18941E+04  4.51973E+03 -1.89557E+04 -1.20093E+04
 -1.18801E+04 -2.43900E+04  4.94891E+03 -2.87244E+04  2.09676E+04 -2.18456E+04  2.45598E+04  3.72651E+01
  1.53686E+04  1.92854E+04 -8.38439E+02  2.41418E+04 -1.67169E+04  1.57743E+04 -2.51568E+04 -3.22858E+03
 -1.86648E+04 -2.23764E+04 -4.48711E+03 -2.83707E+04  1.36111E+04 -2.38851E+04  2.38784E+04 -1.22965E+04
  2.23853E+04 -1.49830E+03  1.68806E+04  6.31364E+03  8.28243E+03 -2.47765E+02  1.37462E+04 -3.68061E+03
  2.41310E+04  3.33193E+03  2.64795E+04  1.91795E+04  1.80285E+04  4.16482E+04 -9.25413E+02  4.69261E+04
 -2.78244E+04  3.87113E+04 -4.51327E+04  2.17830E+04 -4.77434E+04 -4.04878E+03 -3.77868E+04 -2.89110E+04
 -1.43068E+04 -4.03827E+04  1.43492E+04 -3.38322E+04  2.91890E+04 -1.64858E+04  2.53419E+04  8.53549E+03
  7.26952E+03  1.93126E+04 -1.12057E+04  1.68760E+04 -2.16761E+04  2.09135E+03 -1.50553E+04 -1.43930E+04
  1.59042E+02 -1.93304E+04  1.09159E+04 -1.74505E+04  1.29200E+04 -2.31365E+02  5.40695E+03  1.00772E+04
 -1.14251E+04  4.70002E+03 -1.04506E+04 -7.21871E+03 -3.26969E+03 -1.67647E+04  1.28690E+04 -2.01562E+04
  2.51648E+04 -1.19663E+04  2.75152E+04  5.01505E+03  2.56575E+04  2.05493E+04  1.21025E+04  3.20914E+04
 -5.82649E+03  3.48477E+04 -2.25934E+04  2.12679E+04 -2.53337E+04  5.10422E+03 -1.77660E+04 -5.69008E+03
 -7.63554E+03 -8.09305E+03  1.26141E+02 -1.08225E+03 -2.42141E+03  3.60158E+03 -8.18843E+03  6.06881E+03
 -1.24229E+04 -2.90511E+03 -1.42235E+04 -1.38940E+04 -5.18162E+03 -2.08190E+04  7.67453E+03 -1.80721E+04
  1.54539E+04 -7.59725E+03  1.09507E+04  2.36860E+03 -6.97867E+02  6.44349E+03 -8.32444E+03 -1.04870E+03
 -6.12632E+03 -1.21683E+04 -1.41492E+03 -1.60523E+04  1.08186E+04 -1.89681E+04  2.18270E+04 -1.04294E+04
  2.69667E+04  3.82464E+03  1.82607E+04  1.54483E+04  3.87866E+03  2.07902E+04 -8.33604E+03  1.70569E+04
 -1.51234E+04  4.61908E+03 -6.26561E+03 -4.26010E+03  1.57172E+03 -3.19212E+03  8.39037E+03 -3.53625E+03
  8.36868E+03  9.05929E+03  1.52203E+03  1.43020E+04 -9.75616E+03  1.32289E+04 -1.61121E+04  1.35675E+03
 -1.34053E+04 -9.80169E+03  6.67071E+02 -1.57112E+04  1.00351E+04 -8.25705E+03  1.19503E+04  2.93490E+03
  4.05634E+03  9.61020E+03 -1.06511E+04  1.28633E+04 -1.59977E+04  3.98367E+03 -1.76879E+04 -7.15359E+03
 -1.01863E+04 -1.71016E+04  6.20609E+03 -2.13050E+04  1.70800E+04 -1.17581E+04  2.04945E+04  3.76083E+03
  9.96724E+03  1.41232E+04 -6.77172E+02  1.67246E+04 -1.29264E+04  1.11489E+04 -1.40093E+04 -2.65489E+03
 -1.15579E+04 -1.18313E+04 -4.02014E+03 -1.30478E+04  7.15409E+03 -9.47707E+03  9.06698E+03 -2.96526E+03
  4.37988E+03  8.26225E+02 -5.68296E+02  2.23018E+03 -1.26549E+03 -4.61780E+03  3.44190E+03 -8.55540E+03
  1.25884E+04 -6.62615E+03  1.93221E+04  2.10051E+03  1.74964E+04  1.29200E+04  1.06207E+04  2.37233E+04
 -6.99168E+03  2.68437E+04 -2.19068E+04  2.02292E+04 -2.84284E+04  1.57542E+03 -2.18854E+04 -1.19118E+04
 -1.16002E+04 -1.97598E+04 -1.29804E+03 -1.63537E+04  4.41291E+03 -1.04194E+04  5.53528E+03 -6.59191E+03
  2.64763E+03 -3.46249E+03  5.85400E+03 -3.59335E+03  4.59241E+03 -2.46706E+03  8.68274E+03 -3.38715E+03
  1.26228E+04  2.45860E+03  7.92460E+03  1.18817E+04 -2.13586E+03  1.28814E+04 -1.28842E+04  8.78220E+03
 -1.73527E+04 -9.58124E+02 -1.21779E+04 -1.14660E+04 -2.52181E+03 -1.91479E+04  1.07734E+04 -1.91924E+04
  1.85537E+04 -1.05003E+04  2.39284E+04  2.52656E+03  1.46154E+04  1.61413E+04  2.48714E+03  2.26015E+04
 -8.45704E+03  1.63185E+04 -1.24559E+04  5.74961E+03 -6.82255E+03 -1.34316E+03 -2.58976E+03 -2.17934E+03
 -1.20494E+03 -1.86981E+03 -2.50361E+03  2.58554E+03 -7.83541E+03  1.94599E+03 -1.44846E+04 -2.49320E+03
 -7.82821E+03 -1.16184E+04 -2.03143E+03 -1.53608E+04  1.08243E+04 -1.49809E+04  1.69877E+04 -4.67889E+03
  1.85778E+04  6.77709E+03  8.16099E+03  1.58400E+04 -2.98504E+03  1.65725E+04 -1.25926E+04  1.12490E+04
 -1.42508E+04  1.24869E+03 -1.30160E+04 -1.12378E+04 -3.39847E+03 -1.52813E+04  6.78135E+03 -1.10268E+04
  1.14828E+04 -4.39233E+03  7.31340E+03  1.58744E+03  3.88148E+03  6.07604E+03  1.33009E+03  3.90536E+03
  2.97444E+03  1.21524E+03  4.31742E+03  3.97399E+03  5.35878E+03  5.16303E+03  3.39788E+03  9.58478E+03
 -3.75415E+03  1.36842E+04 -1.33564E+04  1.41236E+04 -1.87272E+04  1.33995E+03 -1.87570E+04 -8.14540E+03
 -8.58580E+03 -1.84736E+04  2.72900E+03 -1.93461E+04  9.80404E+03 -1.23813E+04  1.59267E+04 -3.55008E+03
  1.14346E+04  7.78561E+03  2.85371E+03  1.09996E+04 -6.16574E+03  5.07840E+03 -7.11913E+03 -5.08281E+02
 -3.51881E+03 -7.99341E+03  4.42237E+03 -8.86189E+03  8.58694E+03 -5.31959E+03  6.11425E+03  1.85436E+03
  4.94727E+03  4.51980E+03  3.62831E+03  5.16771E+03 -2.24439E+02  2.32640E+03  1.86855E+03 -1.20270E+03
  2.07035E+03 -4.04848E+03  6.90574E+03  4.56742E+03  4.66899E+03  1.01445E+04 -1.64978E+03  1.25862E+04
 -8.19388E+03  8.87349E+03 -1.23646E+04  5.66536E+02 -1.24792E+04 -2.15567E+03 -3.22134E+03 -6.41204E+03
  1.36326E+03 -8.07431E+03  4.20791E+03 -2.82824E+03  3.10911E+03  6.07526E+03 -3.58178E+03  6.29690E+03
 -1.01167E+04  2.91334E+03 -8.44046E+03 -5.85155E+03 -4.27536E+03 -1.03987E+04  3.06167E+03 -1.13498E+04
  5.92970E+03 -6.60892E+03  9.54401E+03  9.97996E+01  5.02139E+03  2.96308E+03  1.43802E+03  5.39269E+03
 -5.02655E+03  1.35924E+03 -3.32569E+03 -4.10561E+03  1.20091E+03 -7.67490E+03  9.92821E+03 -7.29613E+03
  1.24968E+04  5.17442E+02  1.14104E+04  9.20602E+03  4.57733E+03  1.26347E+04 -4.15031E+03  1.10889E+04
 -1.30003E+04  4.50168E+03 -9.82516E+03 -3.70098E+02 -5.96274E+03 -7.81302E+03  1.07504E+03 -8.25030E+03
  9.02314E+03 -4.23960E+03  8.11114E+03  2.99231E+03  1.69858E+03  6.82179E+03 -2.19593E+03  5.41615E+03
 -4.92939E+03  4.41387E+03 -5.80420E+03  2.09409E+03 -1.67210E+03  2.12187E+03 -1.26599E+03  2.04696E+03
 -2.75647E+03  3.81376E+03 -9.38981E+03  5.81793E+03 -1.46490E+04  1.91957E+02 -1.21468E+04 -7.73054E+03
 -7.63586E+03 -1.74833E+04  4.52059E+03 -2.01026E+04  1.29549E+04 -1.53180E+04  1.79879E+04 -5.29798E+03
  1.94977E+04  4.52319E+03  1.02939E+04  1.23724E+04  1.84903E+03  1.32466E+04 -4.63698E+03  9.84661E+03
 -7.88685E+03  2.73379E+03 -6.04019E+03 -8.75942E+02 -3.92384E+02 -9.43737E+02 -7.35707E+02 -4.00641E+02
 -1.77005E+03  2.67875E+02 -2.81779E+03 -1.15332E+03 -6.01835E+02 -4.87842E+03  1.17095E+03 -4.68753E+03
  6.18910E+03 -4.51035E+03  9.70178E+03 -4.58737E+01  8.70535E+03  6.90479E+03  2.15241E+03  1.42672E+04
 -7.51415E+03  1.49141E+04 -1.53418E+04  9.35230E+03 -1.58444E+04 -6.34666E+02 -1.30304E+04 -8.64685E+03
 -4.43907E+03 -1.42131E+04  4.24018E+03 -1.46485E+04  8.33646E+03 -6.49983E+03  8.32621E+03  8.08920E+02
  5.51806E+03  4.87128E+03 -2.57306E+03  4.66758E+03 -1.72723E+03 -3.87848E+02 -1.02740E+03 -3.18812E+03
  4.84053E+03 -2.07501E+03  6.84985E+03  3.14649E+03  3.22163E+03  5.20462E+03  5.43766E+02  8.31033E+03
 -5.16971E+03  5.56043E+03 -9.01170E+03  4.02858E+02 -7.48513E+03 -8.09665E+03 -1.57748E+03 -1.30280E+04
  8.05960E+03 -1.00004E+04  1.29490E+04 -1.73812E+03  1.19608E+04  2.72519E+03  6.88794E+03  8.69900E+03
  4.96844E+02  1.10283E+04 -2.31526E+03  7.51554E+03 -6.56802E+03  4.33087E+03 -3.86402E+03  3.05051E+02
 -2.64512E+03  3.34623E+02 -5.24478E+03  3.24637E+02 -6.04903E+03  7.97571E+02 -5.77373E+03 -5.32453E+02
 -8.98822E+03 -5.18626E+03 -8.39945E+02 -1.12095E+04  4.17813E+03 -9.16272E+03  7.83565E+03 -4.64263E+03
  9.57569E+03  1.03662E+03  5.39077E+03  9.79375E+03  1.18997E+03  9.92787E+03 -9.26011E+03  5.91837E+03
