 $NMID ID='MM_0lb_SNR200_20hz_g50_34.RAW', FMTDAT='(8E13.5)'
 TRAMP=1., VOLUME=1. $END
  3.09793E+05  1.21742E+03  3.38122E+05  2.50016E+05  8.46841E+04  3.37032E+05 -1.32358E+05  2.49832E+05
 -1.89280E+05  8.19677E+04 -1.10529E+05 -3.18406E+04  1.90636E+03 -5.02291E+04  5.43215E+04  8.73162E+02
  3.50356E+04  5.29889E+04 -1.75956E+04  7.47758E+04 -6.07492E+04  6.26976E+04 -8.40125E+04  3.19339E+04
 -7.94544E+04 -1.07326E+04 -5.63917E+04 -4.88875E+04 -1.48782E+04 -6.76029E+04  2.67485E+04 -4.52309E+04
  3.81428E+04  3.02307E+03  1.60187E+04  4.70088E+04 -3.40511E+04  4.62422E+04 -6.58730E+04 -4.71813E+02
 -5.20052E+04 -5.55242E+04 -6.52403E+03 -7.55514E+04  3.42684E+04 -5.24138E+04  4.59078E+04 -1.56295E+04
  4.13439E+04  1.03989E+04  3.06148E+04  2.44421E+04  1.63109E+04  2.70026E+04 -4.03118E+03  2.66803E+04
 -2.18804E+04  1.27472E+04 -1.88753E+04 -4.00875E+03  3.11909E+03 -7.10634E+03  2.09091E+04  1.01123E+04
  7.10136E+03  3.34393E+04 -3.03835E+04  3.41351E+04 -6.17555E+04  1.54413E+03 -5.44075E+04 -4.07958E+04
 -1.15183E+04 -6.06611E+04  3.69335E+04 -4.31256E+04  5.54527E+04 -2.49802E+03  3.17171E+04  3.09813E+04
 -7.20575E+03  3.24970E+04 -2.90521E+04  1.26505E+04 -2.80233E+04 -5.63056E+03 -1.48516E+04 -1.02966E+04
 -6.83312E+03 -1.13565E+04 -4.07870E+02 -1.67397E+04  6.23693E+03 -2.29079E+04  1.54250E+04 -1.47580E+04
  1.25875E+04  5.68195E+03 -5.95050E+03  1.26995E+04 -1.96683E+04 -1.76381E+03 -7.58663E+03 -2.95104E+04
  1.95374E+04 -3.90319E+04  4.38608E+04 -1.79460E+04  4.05250E+04  1.71067E+04  1.41325E+04  4.11216E+04
 -1.54882E+04  2.98459E+04 -2.34711E+04  5.51829E+00 -8.02377E+03 -2.55106E+04  2.00622E+04 -3.03509E+04
  3.74508E+04 -7.26949E+03  3.18218E+04  2.27561E+04  1.53772E+04  4.23875E+04 -7.74042E+03  4.43359E+04
 -2.78844E+04  2.89846E+04 -3.75536E+04  8.24561E+03 -3.74125E+04 -1.44440E+04 -2.07113E+04 -3.40325E+04
  5.41509E+03 -3.31736E+04  2.77012E+04 -1.30582E+04  2.66127E+04  1.03063E+04  2.56043E+03  1.65205E+04
 -1.33527E+04  7.50808E+03 -9.23356E+03 -7.48190E+03  5.81828E+03 -1.01012E+04  1.65039E+04  5.73103E+03
  1.17600E+04  2.19035E+04 -7.57000E+03  2.31492E+04 -2.17045E+04  9.21552E+03 -2.52766E+04 -7.04531E+03
 -1.76994E+04 -1.62261E+04 -5.62965E+03 -1.52947E+04  4.04582E+03 -1.34973E+04  1.19258E+04 -1.41619E+04
  2.05813E+04 -1.10532E+04  2.71993E+04  1.57991E+03  2.05723E+04  1.58849E+04  3.56944E+03  2.98875E+04
 -1.59839E+04  2.71451E+04 -2.52468E+04  9.52775E+03 -1.88201E+04 -1.08804E+04 -2.89144E+03 -1.42144E+04
  3.35366E+03 -5.15947E+03 -1.81308E+03  4.88989E+03 -1.21448E+04  5.46502E+03 -1.30131E+04 -4.73505E+03
 -9.47794E+03 -1.47661E+04  4.58473E+03 -1.83084E+04  1.21970E+04 -1.18580E+04  1.35133E+04 -1.76588E+03
  9.03592E+03  1.00929E+04 -1.89427E+03  1.49667E+04 -9.50057E+03  9.21899E+03 -1.39530E+04 -4.11738E+03
 -1.10633E+04 -1.30906E+04 -1.01666E+03 -1.92228E+04  8.08003E+03 -1.41601E+04  1.46553E+04 -6.35735E+03
  1.32750E+04  7.19750E+02  1.00254E+04  3.40159E+03  5.54982E+03  6.93988E+02  7.09098E+03 -1.15626E+03
  1.24192E+04  2.58223E+03  1.42912E+04  1.25690E+04  9.13245E+03  2.37973E+04 -3.21780E+03  2.50826E+04
 -1.55581E+04  1.92530E+04 -2.31673E+04  9.15302E+03 -2.23409E+04 -1.67908E+03 -1.99790E+04 -1.37297E+04
 -9.71549E+03 -1.92609E+04  6.02663E+03 -1.77191E+04  1.60324E+04 -1.07163E+04  1.39582E+04  3.41315E+03
  6.74760E+03  1.03410E+04 -6.10578E+03  9.59116E+03 -1.25841E+04  2.79048E+03 -1.04173E+04 -7.41959E+03
 -2.54049E+02 -1.17045E+04  6.50317E+03 -9.53461E+03  6.19904E+03 -1.51894E+03  1.48214E+03  4.35906E+03
 -4.82117E+03  2.82253E+02 -4.07063E+03 -5.75442E+03  5.93636E+02 -9.95939E+03  8.11220E+03 -8.62328E+03
  1.07943E+04 -4.89485E+03  1.13045E+04  1.96531E+03  8.61904E+03  9.29014E+03  3.95754E+03  1.35079E+04
 -1.31303E+03  1.48418E+04 -9.62786E+03  9.51311E+03 -1.07922E+04  2.47722E+03 -7.47190E+03 -1.42663E+03
 -4.70035E+03 -2.59198E+03 -1.27313E+03  8.47174E+02 -2.51634E+03  2.68730E+03 -4.21157E+03  3.27443E+03
 -7.02234E+03  1.60650E+01 -7.39700E+03 -7.07650E+03 -2.71997E+03 -1.08601E+04  3.55165E+03 -7.47497E+03
  7.22114E+03 -4.57958E+03  5.17409E+03  2.85059E+03  6.82416E+02  2.60446E+03 -3.06517E+03 -2.83536E+02
 -2.53346E+03 -3.86092E+03  2.66681E+02 -6.27785E+03  3.59174E+03 -6.96791E+03  9.65523E+03 -3.85713E+03
  1.07040E+04  2.32624E+02  7.58877E+03  5.62606E+03  2.09964E+03  7.08998E+03 -3.95015E+03  7.96994E+03
 -5.87336E+03  2.97760E+03 -3.59119E+03 -1.16026E+03  1.67155E+03 -1.00148E+03  4.76540E+03 -9.93224E+02
  3.13645E+03  2.37612E+03  3.95548E+02  5.28563E+03 -4.20629E+03  5.05710E+03 -7.00778E+03  8.80225E+02
 -4.36825E+03 -3.22186E+03  1.01310E+02 -5.60044E+03  3.44290E+03 -3.56042E+03  4.27137E+03  6.86721E+02
 -3.69463E+02  2.26916E+03 -3.74616E+03  4.52198E+03 -3.95955E+03  1.72166E+03 -2.93255E+03 -7.20955E+02
 -2.94392E+03 -5.76304E+03  1.27976E+03 -5.66112E+03  4.96274E+03 -4.36827E+03  5.44034E+03  1.39183E+03
  4.33827E+03  3.84954E+03 -1.47388E+02  6.90605E+03 -4.95098E+03  3.02359E+03 -4.80722E+03 -7.25588E+02
 -5.29756E+03 -4.82351E+03 -2.13961E+03 -4.30366E+03  2.68492E+03 -3.41280E+03  2.17460E+03 -2.92287E+03
  2.69033E+03  4.36879E+01 -4.55229E+02  7.01712E+02  7.49476E+02  1.13001E+03 -4.59994E+02 -1.18774E+03
  3.13682E+03  3.13400E+02  5.09605E+03  9.83952E+02  3.57675E+03  2.83072E+03  5.54587E+03  7.06158E+03
 -1.84894E+03  6.49821E+03 -7.20505E+03  5.60217E+03 -8.14750E+03  2.76569E+02 -6.29829E+03 -3.01649E+03
 -4.42251E+03 -5.51141E+03  4.22822E+02 -4.49127E+03  2.34808E+03 -1.57112E+03  1.12063E+03 -1.53251E+03
  1.47101E+03 -2.81681E+02  1.24476E+03 -2.23845E+03  2.90461E+03 -9.57868E+02  2.95674E+03 -2.92173E+02
  4.35292E+03  7.84365E+02  8.64546E+02  2.32157E+03 -8.91652E+02  2.67268E+03 -3.46086E+03  2.36436E+03
 -4.77548E+03 -3.10850E+02 -1.08163E+03 -2.95448E+03  6.85231E+02 -3.40897E+03  3.12110E+03 -4.76447E+03
  4.35055E+03 -3.59337E+03  5.57308E+03  3.37419E+01  4.48823E+03  2.84878E+03  1.91974E+03  4.36562E+03
 -2.36498E+03  4.99111E+03 -1.82884E+03  1.78549E+03 -2.00388E+03 -1.67747E+03  5.74647E+02 -5.11153E+02
 -1.90774E+02  2.38017E+03 -8.51770E+02  2.20250E+03 -1.75447E+03  1.33169E+03 -3.39638E+03  7.58389E+02
 -8.57213E+02 -3.46269E+03  6.26146E+02 -4.40384E+03  1.82032E+03 -3.94763E+03  2.67701E+03 -1.74886E+03
  2.69591E+03  1.03671E+03  1.59072E+03  2.83803E+03 -1.02163E+03  2.90018E+03 -2.50751E+03  2.16000E+03
 -3.15736E+03  3.80994E+02 -2.29345E+03 -1.73416E+03 -7.93131E+02 -3.17305E+03  6.96829E+02 -2.04390E+03
  1.81606E+03 -6.32289E+02  1.77719E+03  1.51335E+02  7.60113E+02  1.29416E+03  6.69938E+02  8.03465E+02
  2.35785E+03  2.50206E+02  8.20375E+02  5.24312E+02  2.50767E+02  2.08984E+03  2.15782E+03  6.03825E+02
 -1.05826E+03  1.34121E+03 -2.14907E+03  4.39018E+03 -2.30579E+03  7.44007E+02 -3.82904E+03  6.43961E+02
 -1.22657E+03 -2.86618E+03 -8.77669E+01 -3.35938E+03  8.31761E+02 -1.88167E+03  2.30391E+03 -2.06516E+02
  1.94319E+03  1.02380E+03  1.91644E+02  3.49958E+03  6.47345E+02  3.88591E+02 -3.23182E+02 -2.89575E+02
 -8.88505E+02 -1.09360E+03  1.18319E+03 -2.13474E+03  4.58699E+02 -1.40518E+03  1.21723E+03 -2.23906E+02
  5.04257E+02  3.95205E+02  1.19498E+02 -9.05357E+02 -2.00072E+02  4.23859E+02  2.47683E+03 -7.43685E+02
  1.86099E+02 -1.51704E+02  1.09763E+03  1.16456E+03 -1.34421E+03  9.83474E+02 -5.73860E+02  2.69564E+03
 -1.71320E+03  3.60850E+02 -2.64309E+03  9.86226E+02 -2.28739E+03 -1.56126E+03 -1.21196E+03 -5.33140E+02
  3.43869E+02 -8.49893E+00  3.71271E+02  3.31372E+02 -4.91258E+02  1.16125E+03 -6.58540E+02  8.38449E+02
 -8.04567E+02  1.37905E+03 -1.21954E+03 -1.17641E+03 -2.39901E+02 -7.33903E+02 -8.96086E+01  5.27420E+02
  8.47619E+02 -6.18618E+02  4.04291E+02  3.26267E+01  1.03131E+03 -5.07758E+00  7.21258E+02  1.70227E+03
  1.22824E+03  3.22524E+02 -2.06893E+02  8.80422E+02  9.31221E+02 -9.08978E+02  1.11492E+03 -7.88303E+02
  1.07426E+03 -2.17374E+02  1.86091E+03 -6.35512E+01  1.67913E+03  1.04880E+03 -7.78258E+02  2.47279E+03
 -1.12352E+03  2.63590E+02 -1.19195E+03 -3.18721E+02 -1.12103E+03 -1.11692E+03  5.73761E+02 -4.45572E+02
  5.56323E+02 -3.18961E+02  1.58315E+03  2.44363E+02  4.81723E+02  7.50057E+02  1.06703E+03  1.43086E+03
 -2.74927E+02  1.00684E+03 -9.15929E+02  3.03801E+02  9.34912E+02  6.45312E+02 -7.15548E+02 -4.20373E+02
 -1.13017E+03  1.07267E+03 -2.30897E+03  6.12585E+02 -1.31438E+03  7.45022E+01 -9.65004E+02 -6.55881E+02
 -4.03825E+01 -2.45974E+03  2.16617E+02 -2.91079E+03  9.13052E+01 -1.70249E+03  3.76142E+03 -1.16399E+03
  1.34041E+03 -1.75902E+03  7.62786E+02  5.40273E+02 -1.07489E+03  4.43278E+02 -6.22054E+02  9.08568E+02
 -1.22817E+03 -1.50188E+02 -7.46934E+02  4.62478E+02 -4.15096E+02  4.67758E+02 -7.31477E+02 -8.61593E+02
 -1.54285E+03  2.99317E+02  7.31749E+01  1.49611E+01 -3.11960E+02 -2.79418E+01  6.25445E+01 -2.38955E+02
  6.31946E+02 -3.08444E+02  8.31488E+02  7.85866E+01  1.31401E+03  7.53771E+02 -8.01115E+02  1.20483E+03
 -1.08938E+03  1.95558E+03 -1.84609E+03  2.03972E+03 -1.04557E+02 -7.24007E+01 -2.52743E+03 -1.36287E+03
 -9.82106E+02 -1.21609E+03 -1.84877E+02 -7.78312E+02  9.29551E+02 -5.13057E+02  5.63479E+02 -1.20980E+02
  1.17236E+03  8.12877E+02 -1.03389E+03 -2.93787E+02  6.55569E+02  5.05926E+01  7.16644E+02 -1.51684E+02
 -1.40844E+03  7.78630E+02  6.22770E+02 -1.43672E+02 -1.74811E+02  2.40452E+02  4.16021E+02 -5.95518E+02
 -1.26056E+03 -6.83910E+02 -1.17533E+01  1.64103E+02 -1.22557E+03 -7.68713E+02  4.00468E+01 -4.10354E+02
  1.41710E+02 -7.79940E+02 -5.67318E+01 -1.70344E+02  4.56269E+02  2.99110E+02 -2.33850E+02  7.64308E+02
 -1.50804E+02  3.97226E+02 -8.53812E+01 -4.01436E+02 -1.05457E+03 -7.84383E+02 -6.77581E+02 -9.66005E+02
  4.97296E+02 -6.68810E+02 -6.05407E+02 -1.02405E+03  1.89528E+02 -2.51039E+02 -9.36009E+02 -8.39870E+01
 -1.77264E+03 -1.34131E+02 -9.88832E+02 -4.18162E+02  1.10663E+03 -3.21885E+02  6.56532E+02  1.75488E+02
  3.71758E+02  5.22380E+02 -7.87214E+02  1.24194E+02 -3.44185E+02  1.44871E+03 -3.08188E+01  1.04784E+03
