 $NMID ID='MM_0lb_SNR200_8hz_g50_62.RAW', FMTDAT='(8E13.5)'
 TRAMP=1., VOLUME=1. $END
  3.11570E+05  1.36462E+03  3.38240E+05  2.49990E+05  8.51482E+04  3.38097E+05 -1.31162E+05  2.51950E+05
 -1.92218E+05  8.41329E+04 -1.13472E+05 -3.30335E+04  7.29132E+02 -4.97596E+04  5.40994E+04 -1.69866E+03
  3.43656E+04  5.31001E+04 -1.68594E+04  7.46679E+04 -6.23064E+04  6.51865E+04 -8.44845E+04  3.34206E+04
 -8.24280E+04 -1.20182E+04 -5.79368E+04 -5.21816E+04 -1.65787E+04 -7.07762E+04  2.87918E+04 -4.63066E+04
  4.14365E+04  2.93429E+03  1.76838E+04  4.90110E+04 -3.51174E+04  4.66709E+04 -6.94860E+04  7.76875E+02
 -5.60474E+04 -5.72515E+04 -8.43730E+03 -7.99022E+04  3.42479E+04 -5.82915E+04  5.02763E+04 -1.91589E+04
  4.68652E+04  1.16020E+04  3.24199E+04  2.58861E+04  1.66454E+04  2.89398E+04 -6.55181E+03  2.89149E+04
 -2.17193E+04  1.19899E+04 -1.78922E+04 -5.88955E+03  7.77393E+03 -6.03062E+03  2.43719E+04  1.36828E+04
  8.19114E+03  3.76974E+04 -3.49932E+04  3.90859E+04 -6.65096E+04  6.38138E+02 -5.98729E+04 -4.42377E+04
 -1.42054E+04 -6.76664E+04  4.25886E+04 -4.80334E+04  6.15275E+04 -3.70101E+03  3.80419E+04  3.50607E+04
 -5.99382E+03  4.01099E+04 -3.15636E+04  1.85342E+04 -3.51304E+04 -3.35027E+03 -1.94961E+04 -1.16080E+04
 -9.48781E+03 -1.67206E+04  5.77263E+02 -2.00088E+04  8.57479E+03 -2.41320E+04  1.69618E+04 -1.37194E+04
  1.02680E+04  7.00618E+03 -9.57830E+03  1.23663E+04 -2.53861E+04 -7.05296E+03 -8.07819E+03 -3.89635E+04
  2.60583E+04 -4.77886E+04  5.24059E+04 -2.05171E+04  4.95131E+04  2.18135E+04  1.91965E+04  4.82529E+04
 -1.85251E+04  3.68268E+04 -2.64742E+04  3.07634E+03 -1.24673E+04 -2.91439E+04  2.31949E+04 -3.74144E+04
  4.70680E+04 -1.41238E+04  4.23590E+04  2.48919E+04  2.02354E+04  5.20178E+04 -9.01509E+03  5.67605E+04
 -3.52859E+04  3.89884E+04 -4.83533E+04  1.19591E+04 -4.82154E+04 -2.10319E+04 -2.63897E+04 -4.29465E+04
  8.83622E+03 -4.36632E+04  3.38422E+04 -1.75114E+04  3.37063E+04  1.20112E+04  6.22743E+03  2.12304E+04
 -1.50121E+04  8.82168E+03 -9.44459E+03 -7.19397E+03  6.53533E+03 -1.20730E+04  1.77294E+04  4.60431E+03
  1.54895E+04  2.38087E+04 -4.75289E+03  2.66578E+04 -2.37839E+04  1.42975E+04 -3.23600E+04 -2.73177E+03
 -2.55626E+04 -1.80471E+04 -1.33691E+04 -2.54917E+04  4.02760E+03 -2.68135E+04  2.15859E+04 -2.34018E+04
  3.40269E+04 -1.50538E+04  4.03127E+04  6.17698E+03  2.82932E+04  2.51921E+04  4.98335E+03  4.28668E+04
 -1.98809E+04  3.55197E+04 -3.04385E+04  1.23759E+04 -2.41351E+04 -9.25682E+03 -4.80058E+03 -1.26126E+04
 -2.83122E+02  7.56346E+01 -8.33552E+03  1.02330E+04 -2.10048E+04  6.06394E+03 -2.14045E+04 -9.96030E+03
 -1.34597E+04 -2.59102E+04  5.45266E+03 -2.75072E+04  1.93933E+04 -2.04376E+04  2.41098E+04 -8.80986E+02
  1.51699E+04  1.74696E+04 -1.72976E+03  2.57039E+04 -1.82176E+04  1.45991E+04 -2.40762E+04 -4.11796E+03
 -1.71427E+04 -2.20042E+04 -4.01404E+03 -2.98184E+04  1.32302E+04 -2.50763E+04  2.38017E+04 -1.45284E+04
  2.12538E+04  7.55828E+02  1.84277E+04  5.64454E+03  1.00891E+04  2.35608E+03  1.21477E+04 -3.04846E+03
  2.35301E+04  3.42545E+03  2.50091E+04  1.84654E+04  2.13039E+04  3.86623E+04 -1.80220E+03  4.79151E+04
 -2.53519E+04  3.89609E+04 -4.36004E+04  1.93190E+04 -4.82032E+04 -4.49810E+03 -3.68101E+04 -2.75157E+04
 -1.56965E+04 -3.90093E+04  1.37798E+04 -3.48585E+04  2.97155E+04 -1.46698E+04  2.64469E+04  8.97923E+03
  9.59164E+03  2.18580E+04 -1.24319E+04  1.72266E+04 -2.13115E+04  5.28137E+03 -1.70881E+04 -1.40449E+04
 -3.27830E+02 -1.98247E+04  1.20899E+04 -1.74838E+04  1.47201E+04 -1.82605E+03  3.60886E+03  6.72259E+03
 -8.08508E+03  3.99417E+03 -7.97424E+03 -7.45019E+03 -1.46536E+03 -1.93690E+04  1.38133E+04 -2.16563E+04
  2.53977E+04 -1.29726E+04  2.78138E+04  3.15842E+03  2.58765E+04  1.85837E+04  1.24001E+04  3.33630E+04
 -5.83666E+03  3.44991E+04 -2.18038E+04  2.09729E+04 -2.57767E+04  1.67971E+03 -1.51474E+04 -5.29317E+03
 -6.25000E+03 -8.41453E+03  5.62583E+02  1.94339E+01 -1.72833E+03  4.16279E+03 -7.26547E+03  4.36062E+03
 -1.51808E+04  1.02859E+03 -1.68631E+04 -1.15034E+04 -5.07693E+03 -2.17035E+04  6.94917E+03 -1.65751E+04
  1.37177E+04 -6.33429E+03  8.86205E+03  2.88227E+03 -1.78403E+03  7.02803E+03 -9.56907E+03  4.21690E+02
 -9.21983E+03 -1.15048E+04 -1.33882E+03 -1.68552E+04  1.22125E+04 -1.72989E+04  2.35106E+04 -9.55484E+03
  2.45565E+04  2.23970E+03  1.78753E+04  1.58881E+04  4.73191E+03  1.99707E+04 -1.01027E+04  1.69158E+04
 -1.23463E+04  5.60807E+03 -6.74214E+03 -4.69254E+03  3.72955E+03 -4.57150E+03  9.63877E+03 -1.60825E+03
  8.01888E+03  7.22598E+03 -6.43576E+02  1.31825E+04 -9.76297E+03  1.28919E+04 -1.61785E+04  2.66101E+03
 -1.19162E+04 -9.53651E+03  6.68272E+02 -1.47465E+04  9.49934E+03 -6.25397E+03  1.06711E+04  4.37166E+03
  1.68027E+03  1.09455E+04 -7.97449E+03  1.53691E+04 -1.34979E+04  7.27472E+03 -1.35778E+04 -4.25411E+03
 -7.54210E+03 -1.76596E+04  3.69951E+03 -2.19248E+04  1.71476E+04 -1.25426E+04  1.67769E+04  3.24751E+03
  1.11003E+04  1.51821E+04 -2.04116E+03  1.76223E+04 -1.22542E+04  8.53861E+03 -1.41892E+04 -2.88175E+03
 -1.10025E+04 -1.15844E+04 -1.61502E+03 -1.26829E+04  7.20016E+03 -1.06998E+04  7.53275E+03 -3.63472E+03
  4.85839E+03  3.72552E+03 -1.97949E+02  2.42935E+03 -7.87235E+02 -4.04271E+03  3.55661E+03 -7.87535E+03
  1.15207E+04 -5.76884E+03  1.80240E+04  1.77843E+03  1.75328E+04  1.30908E+04  1.01477E+04  2.36975E+04
 -3.60330E+03  2.59758E+04 -2.29872E+04  1.94367E+04 -2.77228E+04  2.15354E+03 -2.30587E+04 -9.32323E+03
 -1.14885E+04 -1.89221E+04 -6.54761E+02 -1.44182E+04  5.95045E+03 -9.35015E+03  4.85683E+03 -5.70389E+03
  5.91143E+03 -4.12123E+03  2.53087E+03 -3.46038E+03  5.52495E+03 -3.35657E+03  1.06850E+04 -1.94400E+03
  1.13107E+04  3.37091E+03  6.73261E+03  1.11814E+04 -2.40367E+03  1.33890E+04 -1.20306E+04  1.16354E+04
 -1.60798E+04 -2.13084E+03 -1.15900E+04 -1.00734E+04 -1.56122E+03 -1.69355E+04  9.03338E+03 -1.82926E+04
  1.83744E+04 -1.01755E+04  2.38670E+04  2.62115E+03  1.56817E+04  1.39531E+04  2.18912E+03  1.88956E+04
 -8.99667E+03  1.57039E+04 -1.09716E+04  5.89593E+03 -8.17211E+03 -3.14935E+03 -3.73763E+03 -1.00975E+03
 -6.94239E+02  1.79316E+03 -1.12590E+03  2.37084E+03 -5.92565E+03  9.58929E+02 -1.14845E+04 -2.57450E+03
 -9.56392E+03 -1.14201E+04 -4.57054E+01 -1.60573E+04  1.05568E+04 -1.48715E+04  1.70457E+04 -5.67548E+03
  1.52858E+04  8.90997E+03  1.01631E+04  1.45211E+04 -1.22045E+03  1.72939E+04 -1.27466E+04  1.00214E+04
 -1.62664E+04 -4.87219E+02 -1.09218E+04 -9.23233E+03 -9.56643E+02 -1.28467E+04  8.89721E+03 -1.14368E+04
  1.09435E+04 -2.98117E+03  9.13533E+03  2.67513E+03  3.80324E+03  7.70760E+03  2.20707E+03  2.23664E+03
  2.90356E+03  9.24336E+02  3.86382E+03  1.70282E+03  4.12768E+03  3.27111E+03  4.83392E+03  8.88256E+03
 -3.01935E+03  1.35050E+04 -1.26063E+04  1.33094E+04 -1.77982E+04  4.78476E+03 -1.69774E+04 -8.43141E+03
 -9.63437E+03 -1.64936E+04  3.00371E+03 -1.77215E+04  8.98832E+03 -1.23263E+04  1.19702E+04 -3.78798E+03
  1.16862E+04  5.12203E+03  1.35961E+03  1.04296E+04 -5.76203E+03  5.12718E+03 -7.42524E+03 -1.18470E+03
 -2.75503E+03 -8.15367E+03  3.74224E+03 -7.11049E+03  8.01346E+03 -4.39806E+03  8.29328E+03  8.99883E+02
  4.85696E+03  4.38592E+03  4.47416E+02  3.43507E+03 -1.03339E+03  2.19830E+03  5.04609E+02  6.87479E+02
  2.98534E+03 -7.92250E+02  6.52007E+03  2.80845E+03  4.71987E+03  1.01097E+04 -2.14455E+03  1.26248E+04
 -8.21246E+03  8.02585E+03 -1.22472E+04  1.17709E+03 -1.08530E+04 -1.35771E+03 -5.07108E+03 -6.33117E+03
  2.01955E+03 -6.02570E+03  5.35982E+03 -4.56448E+03  4.92743E+03  2.40451E+03 -1.98370E+03  7.21738E+03
 -7.95892E+03  4.40348E+03 -8.33531E+03 -2.77932E+03 -4.74647E+03 -9.26892E+03  2.82337E+02 -1.00573E+04
  6.91579E+03 -5.52622E+03  7.82954E+03 -5.68679E+02  4.45591E+03  2.57509E+03  7.94306E+02  5.37967E+03
 -5.73290E+03  1.57324E+03 -4.59036E+03 -3.18324E+03  1.69634E+03 -6.93845E+03  7.74146E+03 -5.66069E+03
  1.04164E+04  1.57309E+03  1.04189E+04  6.94724E+03  2.66209E+03  1.06081E+04 -6.22163E+03  1.25240E+04
 -1.09088E+04  5.35318E+03 -9.61576E+03 -1.35428E+03 -4.41667E+03 -8.49355E+03  9.23265E+02 -8.55326E+03
  6.76424E+03 -2.88573E+03  4.34475E+03  2.54861E+03  1.13866E+03  6.48369E+03 -2.52755E+03  6.70844E+03
 -3.07426E+03  3.52083E+03 -1.99274E+03  9.99741E+02 -1.14632E+03  9.17036E+02 -2.00390E+03  1.27463E+03
 -3.43232E+03  4.24461E+03 -8.33884E+03  5.88094E+03 -1.08324E+04  1.50589E+02 -1.49877E+04 -7.97572E+03
 -8.54731E+03 -1.43163E+04  1.12284E+03 -1.97995E+04  1.01094E+04 -1.22453E+04  1.79936E+04 -6.21641E+03
  1.74958E+04  2.58780E+03  9.41305E+03  1.10122E+04  1.39267E+03  1.29231E+04 -5.92364E+03  9.58018E+03
 -7.80010E+03  2.61146E+03 -2.37799E+03 -9.59147E+02 -2.10878E+03 -5.38498E+02  5.64493E+01  2.37512E+02
 -1.34915E+03  1.78815E+03 -2.33357E+03 -1.86077E+03 -1.02396E+03 -9.63143E+02  2.03175E+02 -4.03760E+03
  5.82300E+03 -4.92390E+03  9.19507E+03 -1.60003E+02  8.94752E+03  6.66957E+03  3.17849E+03  1.27047E+04
 -4.62933E+03  1.26820E+04 -1.06338E+04  8.23258E+03 -1.32814E+04 -2.90649E+02 -1.21428E+04 -9.73929E+03
 -3.22438E+03 -1.28300E+04  3.73423E+03 -1.18035E+04  9.17337E+03 -6.34741E+03  9.37637E+03  2.41097E+02
  3.94442E+03  3.82139E+03 -8.83059E+02  5.69077E+03 -2.16169E+03 -8.37450E+02 -3.24010E+02 -3.00069E+03
  4.68405E+03 -1.97441E+03  4.75866E+03  2.21447E+03  3.32097E+03  5.49408E+03  6.86388E+02  6.92380E+03
 -4.96762E+03  5.62074E+03 -8.47300E+03  4.43334E+02 -7.39780E+03 -6.60449E+03 -9.47725E+02 -9.64822E+03
  5.35909E+03 -1.00963E+04  9.37608E+03 -2.43845E+03  8.41288E+03  2.78866E+03  4.45177E+03  8.56077E+03
  1.80398E+03  1.02796E+04 -3.50860E+03  6.71695E+03 -5.33598E+03  5.56445E+03 -3.56542E+03  2.08610E+03
 -1.92849E+03  4.71863E+02 -2.76903E+03  1.43624E+03 -6.14600E+03  1.39270E+03 -4.93289E+03 -1.28734E+03
 -5.74558E+03 -6.07062E+03 -1.57562E+03 -9.45420E+03  5.24806E+03 -1.02235E+04  8.69262E+03 -3.44014E+03
  8.71544E+03  9.93754E+02  5.03470E+03  6.29339E+03 -9.39458E+02  9.61101E+03 -6.40006E+03  5.55841E+03
