 $NMID ID='MM_0lb_SNR200_13hz_g40_16.RAW', FMTDAT='(8E13.5)'
 TRAMP=1., VOLUME=1. $END
  3.10588E+05  1.49741E+03  3.37319E+05  2.50769E+05  8.41693E+04  3.37737E+05 -1.31210E+05  2.50883E+05
 -1.89050E+05  8.21529E+04 -1.11140E+05 -3.25993E+04  1.57545E+03 -5.08023E+04  5.53850E+04 -4.06348E+02
  3.61338E+04  5.30917E+04 -1.67659E+04  7.56039E+04 -5.99391E+04  6.42465E+04 -8.52071E+04  3.17622E+04
 -7.99124E+04 -1.24418E+04 -5.70116E+04 -5.06280E+04 -1.49169E+04 -6.88203E+04  2.71819E+04 -4.49269E+04
  3.98096E+04  4.48924E+03  1.66164E+04  4.74495E+04 -3.52147E+04  4.74029E+04 -6.67446E+04 -1.73802E+03
 -5.44253E+04 -5.68073E+04 -6.39584E+03 -7.64615E+04  3.23468E+04 -5.44797E+04  4.84591E+04 -1.71100E+04
  4.23109E+04  1.12589E+04  3.21563E+04  2.49678E+04  1.45090E+04  2.93806E+04 -4.29480E+03  2.77239E+04
 -2.11139E+04  1.27161E+04 -1.89563E+04 -5.35890E+03  4.14832E+03 -7.24049E+03  2.32493E+04  1.23475E+04
  8.10327E+03  3.67178E+04 -3.13700E+04  3.47013E+04 -6.30244E+04  3.45196E+03 -5.63712E+04 -4.22382E+04
 -1.31287E+04 -6.33519E+04  4.03387E+04 -4.45802E+04  5.87535E+04 -2.49696E+03  3.35043E+04  3.16719E+04
 -5.20411E+03  3.61691E+04 -2.92476E+04  1.54887E+04 -2.86293E+04 -4.36956E+03 -1.72880E+04 -1.06312E+04
 -8.28982E+03 -1.32023E+04 -9.14896E+02 -1.73816E+04  7.78873E+03 -2.26624E+04  1.59246E+04 -1.27607E+04
  1.16666E+04  5.28302E+03 -8.08862E+03  1.41678E+04 -2.07323E+04 -3.81104E+03 -8.78171E+03 -3.17265E+04
  2.40201E+04 -4.39673E+04  4.85146E+04 -2.11670E+04  4.56584E+04  1.89050E+04  1.53526E+04  4.35101E+04
 -1.61412E+04  3.29242E+04 -2.56430E+04  2.26680E+03 -9.79357E+03 -2.75678E+04  2.10594E+04 -3.24198E+04
  4.06462E+04 -8.74266E+03  3.61436E+04  2.33671E+04  1.69757E+04  4.58129E+04 -7.39478E+03  5.04366E+04
 -3.05070E+04  3.28396E+04 -4.21050E+04  9.48036E+03 -4.22096E+04 -1.62533E+04 -2.26546E+04 -3.83031E+04
  9.04883E+03 -3.85163E+04  3.22669E+04 -1.37182E+04  2.79936E+04  1.12515E+04  3.92935E+03  1.77892E+04
 -1.27130E+04  7.90696E+03 -1.10798E+04 -7.66564E+03  5.34910E+03 -1.11179E+04  1.79798E+04  6.24178E+03
  1.29724E+04  2.26201E+04 -6.46814E+03  2.44876E+04 -2.26120E+04  1.15644E+04 -2.83615E+04 -5.21699E+03
 -2.09058E+04 -1.67943E+04 -7.43606E+03 -2.00814E+04  3.60195E+03 -1.93945E+04  1.60900E+04 -1.90815E+04
  2.56308E+04 -1.19822E+04  3.29355E+04  2.86935E+03  2.40661E+04  1.98269E+04  4.32086E+03  3.65073E+04
 -1.79426E+04  3.10336E+04 -2.88048E+04  1.04854E+04 -2.09238E+04 -9.96459E+03 -5.02932E+03 -1.35025E+04
  1.36024E+03 -2.55847E+03 -4.67979E+03  6.71976E+03 -1.75592E+04  4.09412E+03 -1.71341E+04 -7.64348E+03
 -1.01168E+04 -1.83173E+04  5.87583E+03 -2.31756E+04  1.58156E+04 -1.81958E+04  1.80545E+04 -1.63599E+03
  1.17742E+04  1.33420E+04 -1.22373E+03  1.95962E+04 -1.33339E+04  1.21372E+04 -1.91678E+04 -3.26524E+03
 -1.42086E+04 -1.64925E+04 -2.91485E+03 -2.40370E+04  1.07864E+04 -1.94555E+04  1.85221E+04 -9.57844E+03
  1.72382E+04  1.26192E+02  1.31220E+04  4.00371E+03  7.53658E+03  1.43592E+02  8.47335E+03 -1.58051E+03
  1.76977E+04  2.78782E+03  2.06129E+04  1.58061E+04  1.30325E+04  3.09495E+04 -3.34517E+03  3.38793E+04
 -1.92812E+04  2.68871E+04 -3.20870E+04  1.29266E+04 -3.29141E+04 -2.70952E+03 -2.79385E+04 -1.88910E+04
 -1.22800E+04 -2.77510E+04  9.25289E+03 -2.62728E+04  2.17637E+04 -1.22254E+04  1.89667E+04  4.91216E+03
  6.70387E+03  1.47621E+04 -8.65388E+03  1.21154E+04 -1.69679E+04  1.93337E+03 -1.17894E+04 -9.95865E+03
 -1.55768E+02 -1.58815E+04  8.66135E+03 -1.00181E+04  9.25809E+03 -2.05761E+03  2.51008E+03  6.16671E+03
 -7.64665E+03  2.69356E+03 -6.77145E+03 -6.32920E+03  8.53213E+02 -1.29096E+04  9.15057E+03 -1.40713E+04
  1.77934E+04 -8.63092E+03  1.84270E+04  1.79291E+03  1.59444E+04  1.52245E+04  6.62685E+03  2.01801E+04
 -3.19371E+03  2.19786E+04 -1.49069E+04  1.43369E+04 -1.59004E+04  2.52377E+03 -1.08947E+04 -3.61625E+03
 -4.66188E+03 -4.14985E+03 -7.70635E+02 -1.63661E+01 -1.70571E+03  2.65471E+03 -5.12091E+03  4.16344E+03
 -1.06999E+04 -4.08803E+02 -1.05209E+04 -1.01197E+04 -4.22048E+03 -1.42734E+04  4.55806E+03 -1.12697E+04
  9.76013E+03 -4.27699E+03  7.16479E+03  3.00290E+03  6.63431E+02  4.16821E+03 -6.15163E+03  1.20059E+03
 -5.17486E+03 -7.53375E+03 -6.25211E+02 -1.03355E+04  6.31297E+03 -1.18542E+04  1.49201E+04 -6.82406E+03
  1.71015E+04  1.73557E+03  1.35123E+04  9.89257E+03  2.82052E+03  1.36062E+04 -7.22162E+03  1.17551E+04
 -9.03414E+03  2.86936E+03 -4.90176E+03 -2.17164E+03  1.24890E+03 -3.00499E+03  5.77914E+03 -1.15968E+03
  5.10927E+03  5.11284E+03  1.26773E+03  9.79344E+03 -7.22164E+03  9.37913E+03 -1.18222E+04  1.79299E+03
 -8.13788E+03 -6.42906E+03  7.84367E+02 -1.07466E+04  6.37404E+03 -5.23378E+03  6.70628E+03  1.83627E+03
  1.56256E+03  5.70158E+03 -5.57038E+03  7.46891E+03 -8.73294E+03  3.95871E+03 -7.69777E+03 -2.80426E+03
 -5.43380E+03 -9.82660E+03  2.21057E+03 -1.09322E+04  8.43433E+03 -7.73635E+03  1.13967E+04  1.33490E+03
  6.27225E+03  9.12189E+03 -5.12691E+02  1.12261E+04 -7.65475E+03  6.99556E+03 -7.80300E+03 -1.76669E+02
 -8.22989E+03 -7.54809E+03 -2.45495E+03 -7.08489E+03  5.81146E+03 -6.96503E+03  5.32628E+03 -2.51543E+03
  4.91256E+03  1.90828E+03 -1.73625E+02  1.52447E+03  1.13353E+03 -1.80976E+03  1.07149E+03 -4.69212E+03
  7.24172E+03 -2.81142E+03  1.02942E+04  1.19932E+03  8.01419E+03  7.48438E+03  7.23301E+03  1.30476E+04
 -3.07042E+03  1.52591E+04 -1.27234E+04  1.07959E+04 -1.72150E+04  3.53389E+03 -1.20355E+04 -6.20628E+03
 -6.71514E+03 -1.03126E+04 -1.12506E+03 -9.54858E+03  3.31601E+03 -3.73779E+03  2.36803E+03 -2.95893E+03
  3.68862E+03 -1.22026E+03  3.18990E+03 -3.37219E+03  4.29884E+03 -5.94933E+02  5.46788E+03 -7.25632E+02
  7.00410E+03  4.97783E+02  3.06777E+03  6.89983E+03 -1.59168E+03  6.40130E+03 -7.74653E+03  4.23703E+03
 -9.61828E+03 -7.44950E+02 -5.15273E+03 -7.58008E+03 -1.22765E+03 -9.16596E+03  6.59375E+03 -9.66112E+03
  1.00378E+04 -6.45844E+03  1.13312E+04  1.19959E+03  8.04332E+03  6.95215E+03  1.40754E+03  1.02526E+04
 -4.10845E+03  8.52001E+03 -5.24208E+03  3.52476E+03 -4.54780E+03 -1.45231E+03 -1.48544E+03 -1.75234E+03
 -8.14850E+02  1.71131E+03 -1.24554E+03  2.05942E+03 -4.65434E+03  2.27730E+03 -6.10497E+03 -2.00439E+03
 -3.02518E+03 -5.85073E+03  1.24346E+02 -8.29407E+03  5.33603E+03 -9.27481E+03  7.83802E+03 -2.80537E+03
  7.85773E+03  4.16351E+03  3.41492E+03  7.18554E+03 -1.62306E+03  8.76432E+03 -5.60742E+03  5.48040E+03
 -7.99929E+03  3.53685E+02 -5.67964E+03 -4.73594E+03 -1.08030E+03 -6.34194E+03  3.37267E+03 -4.91775E+03
  6.26810E+03 -3.03634E+03  3.56016E+03  1.51611E+03  1.78892E+03  2.10210E+03  9.98912E+02  1.64340E+03
  2.60944E+03  2.35813E+03  6.76312E+02  1.59233E+03  1.28205E+03  3.80438E+03  2.10950E+03  3.43637E+03
 -2.37948E+03  7.84052E+03 -5.11506E+03  6.55602E+03 -6.99122E+03  3.99212E+03 -7.58981E+03 -3.12046E+03
 -3.84812E+03 -7.82754E+03  5.85831E+02 -9.05929E+03  4.61913E+03 -5.93950E+03  5.65310E+03 -1.80987E+03
  5.61328E+03  3.33956E+03 -2.74345E+02  4.50557E+03 -2.23633E+03  3.57217E+03 -2.05681E+03 -6.75782E+02
 -1.32192E+03 -3.49192E+03  2.78084E+03 -3.28237E+03  4.06033E+03 -2.45336E+03  3.04867E+03  7.34971E+02
  1.78607E+03  8.43816E+02  1.05793E+03  1.34212E+03 -6.25914E+02  1.31051E+03  1.42633E+03 -2.18182E+02
  1.19280E+03 -9.11032E+02  2.44415E+03  1.16963E+03  1.92977E+02  3.85378E+03  3.70055E+02  5.94075E+03
 -3.57108E+03  3.86952E+03 -4.10777E+03  2.48168E+03 -4.13786E+03 -9.80130E+02 -1.82849E+03 -3.17517E+03
  3.54871E+02 -2.46437E+03  1.74752E+03 -1.75128E+03  6.99238E+02  1.74711E+03 -1.18994E+03  1.56822E+03
 -3.58659E+03  1.93763E+03 -3.07497E+03 -2.38336E+03 -3.14988E+03 -3.08051E+03  1.25646E+03 -3.69276E+03
  2.39523E+03 -1.68844E+03  2.60065E+03  3.74463E+02  3.66426E+03  7.89295E+02 -5.96191E+02  5.09616E+02
 -1.65455E+03  1.07231E+03 -2.08304E+03 -1.63389E+03  1.76212E+03 -2.73384E+03  5.05266E+03 -3.36575E+03
  5.05462E+03  1.32493E+03  3.89851E+03  2.37640E+03  1.85052E+03  5.77255E+03 -1.93482E+03  4.58561E+03
 -3.29766E+03  9.71096E+02 -5.03478E+03 -8.69020E+02 -1.87736E+03 -3.14873E+03  1.41150E+03 -2.37595E+03
  2.99452E+03 -1.92871E+03  2.38312E+03  1.54779E+03  7.45706E+02  3.59687E+03 -2.23905E+02  1.19537E+03
 -1.94353E+03  2.08623E+03 -1.66606E+03  6.19721E+02 -9.21153E+01 -3.84857E+02 -2.12130E+03  7.14090E+02
 -9.35738E+02  3.02371E+03 -4.47333E+03  1.26383E+03 -5.94413E+03 -1.58081E+03 -5.38781E+03 -2.42464E+03
 -1.19295E+03 -6.65348E+03  1.05038E+03 -6.12385E+03  3.47923E+03 -5.30432E+03  7.28955E+03 -2.22497E+03
  7.41413E+03  9.47745E+02  4.80108E+03  4.34676E+03  9.70627E+01  5.51034E+03 -1.96010E+03  3.46171E+03
 -3.65929E+03 -7.50084E-01 -1.18308E+03 -2.32672E+02 -6.30484E+02 -3.76116E+02 -9.26730E+02 -3.14790E+01
 -4.89978E+02  1.68494E+01 -1.97124E+03 -6.91735E+02 -3.30416E+02 -8.40569E+02 -1.47176E+03 -2.18980E+03
  1.97338E+03 -1.85550E+03  2.40381E+03 -8.28442E+01  2.88224E+03  3.60225E+03 -2.80061E+02  5.04391E+03
 -2.28222E+03  3.93199E+03 -4.59536E+03  2.11371E+03 -6.63141E+03 -5.41837E+02 -2.54206E+03 -3.23443E+03
 -1.23225E+03 -4.68458E+03  1.93718E+03 -3.62237E+03  4.56727E+03 -2.86661E+03  2.44299E+03  3.95931E+01
  3.13729E+03  1.22819E+03  1.14122E+02  1.68992E+03 -9.32181E+02  1.46783E+02 -8.12260E+02 -4.11054E+02
  1.31098E+03 -6.28004E+02  1.92196E+03  5.37784E+02  2.90827E+02  2.47450E+03  5.65877E+02  3.17572E+03
 -1.23211E+03  1.21267E+03 -3.38663E+03  2.75684E+02 -1.89300E+03 -3.05080E+03  3.44915E+02 -2.41698E+03
  3.38553E+03 -3.51695E+03  3.37961E+03 -1.84185E+03  3.24126E+03  3.16682E+02  1.88128E+03  2.67242E+03
  1.26354E+03  2.85611E+03 -1.60690E+03  3.11038E+03 -2.31732E+03  1.43233E+03 -1.53346E+03  1.51466E+02
 -1.37331E+03  7.27114E+02 -1.87140E+03  8.70380E+02 -1.53621E+03  3.60308E+00 -2.53963E+03 -1.18072E+03
 -2.09566E+03 -4.48336E+02 -1.25502E+03 -2.36331E+03  2.45142E+03 -3.75002E+03  2.03147E+03 -2.23605E+03
  2.09356E+03 -3.97026E+02  2.72551E+03  2.70221E+03  1.01823E+03  3.05191E+03 -2.55351E+03  1.78486E+03
