 $NMID ID='MM_0lb_SNR200_7hz_g60_89.RAW', FMTDAT='(8E13.5)'
 TRAMP=1., VOLUME=1. $END
  3.09505E+05  9.66995E+02  3.37887E+05  2.49106E+05  8.45671E+04  3.39985E+05 -1.31704E+05  2.54141E+05
 -1.91440E+05  8.43218E+04 -1.12124E+05 -3.40390E+04  1.42702E+03 -5.15854E+04  5.50970E+04 -1.32630E+03
  3.51876E+04  5.34724E+04 -1.47413E+04  7.73907E+04 -6.05917E+04  6.34723E+04 -8.59744E+04  3.34017E+04
 -8.30724E+04 -1.20155E+04 -5.99846E+04 -5.18719E+04 -1.51822E+04 -7.24598E+04  2.92213E+04 -4.65986E+04
  4.12498E+04  4.14677E+03  1.73314E+04  4.87409E+04 -3.69730E+04  5.10159E+04 -6.94683E+04  1.34765E+03
 -5.59912E+04 -5.67893E+04 -7.07502E+03 -7.96702E+04  3.58160E+04 -5.79842E+04  4.97921E+04 -1.96620E+04
  4.73456E+04  1.12523E+04  3.37161E+04  2.66264E+04  1.76551E+04  3.33959E+04 -6.91326E+03  2.85548E+04
 -2.17390E+04  1.08895E+04 -1.70409E+04 -5.84120E+03  9.37526E+03 -7.44068E+03  2.39323E+04  1.58665E+04
  6.78137E+03  3.92827E+04 -3.54930E+04  4.00958E+04 -6.67011E+04  2.15982E+03 -5.99223E+04 -4.56797E+04
 -1.14109E+04 -6.73538E+04  4.28563E+04 -4.88459E+04  6.41402E+04 -2.55310E+03  3.91360E+04  3.52596E+04
 -5.19981E+03  4.25690E+04 -3.33418E+04  2.26588E+04 -3.48156E+04 -2.93089E+03 -2.23664E+04 -1.18564E+04
 -8.65420E+03 -1.73225E+04  1.78282E+03 -2.12661E+04  1.03709E+04 -2.39173E+04  1.63503E+04 -1.24898E+04
  8.28221E+03  8.01125E+03 -1.09512E+04  1.36139E+04 -2.55353E+04 -7.59768E+03 -8.09743E+03 -3.76567E+04
  2.75036E+04 -4.91670E+04  5.45353E+04 -2.05841E+04  4.97605E+04  2.34040E+04  1.80281E+04  4.88217E+04
 -1.84499E+04  3.75172E+04 -2.79225E+04  4.18721E+03 -1.23012E+04 -2.93222E+04  1.92978E+04 -3.89244E+04
  4.55694E+04 -9.82623E+03  4.50292E+04  2.51534E+04  2.32909E+04  5.33944E+04 -8.90042E+03  5.95815E+04
 -3.82066E+04  4.13967E+04 -5.13181E+04  1.22928E+04 -4.97317E+04 -1.88073E+04 -2.92997E+04 -4.50534E+04
  8.81829E+03 -4.36191E+04  3.63831E+04 -1.96033E+04  3.27586E+04  1.10545E+04  6.36582E+03  2.24359E+04
 -1.37371E+04  1.28314E+04 -1.17231E+04 -7.24973E+03  5.62465E+03 -1.22161E+04  2.16923E+04  4.80020E+03
  1.46385E+04  2.31521E+04 -5.83513E+03  2.93684E+04 -2.50703E+04  1.67563E+04 -3.34469E+04 -1.93228E+03
 -2.84692E+04 -2.03286E+04 -1.31912E+04 -2.77141E+04  5.85244E+03 -2.75121E+04  2.46559E+04 -2.58958E+04
  3.41250E+04 -1.51356E+04  4.13990E+04  7.72766E+03  2.81926E+04  2.76959E+04  6.04250E+03  4.30985E+04
 -1.89002E+04  3.73436E+04 -3.21422E+04  1.29470E+04 -2.32212E+04 -1.03977E+04 -4.93475E+03 -1.06035E+04
 -2.60495E+03  9.87810E+02 -8.46972E+03  9.48704E+03 -2.23364E+04  4.21978E+03 -2.41810E+04 -1.13186E+04
 -1.28856E+04 -2.61864E+04  8.38705E+03 -3.12898E+04  2.04769E+04 -2.14140E+04  2.39838E+04 -1.79120E+03
  1.56192E+04  1.74962E+04 -3.00167E+03  2.53829E+04 -1.75879E+04  1.38857E+04 -2.50431E+04 -3.47414E+03
 -1.70183E+04 -2.44817E+04 -1.42304E+03 -3.02912E+04  1.47544E+04 -2.62650E+04  2.37035E+04 -1.56107E+04
  2.59859E+04 -9.14878E+02  1.94755E+04  7.28186E+03  8.27336E+03  4.59932E+03  1.34020E+04 -2.75337E+03
  2.51608E+04  2.64819E+03  2.87687E+04  2.15872E+04  2.07601E+04  4.20346E+04 -1.93120E+03  5.07394E+04
 -2.94661E+04  4.39208E+04 -4.71674E+04  2.17149E+04 -5.11372E+04 -4.25042E+03 -4.32634E+04 -2.97698E+04
 -1.73453E+04 -4.06422E+04  1.44997E+04 -3.67917E+04  3.10121E+04 -1.53490E+04  2.68119E+04  8.47211E+03
  9.16475E+03  2.10701E+04 -1.27488E+04  1.79502E+04 -2.32303E+04  2.37231E+03 -1.64014E+04 -1.45685E+04
 -1.10231E+03 -2.32938E+04  1.20256E+04 -1.68624E+04  1.53746E+04 -1.47911E+03  3.36141E+03  1.19306E+04
 -9.05055E+03  4.63159E+03 -1.16166E+04 -8.33202E+03 -3.04410E+03 -2.18121E+04  1.20258E+04 -2.42665E+04
  2.63483E+04 -1.24753E+04  3.38334E+04  3.71312E+03  2.78402E+04  2.02783E+04  1.27084E+04  3.37365E+04
 -6.02218E+03  3.87280E+04 -2.55342E+04  2.25626E+04 -2.89088E+04  6.72205E+03 -1.90966E+04 -9.13505E+03
 -6.37237E+03 -1.00667E+04  3.97964E+01  1.14458E+03 -2.31696E+03  4.09863E+03 -8.82228E+03  7.33142E+03
 -1.56964E+04 -4.71556E+03 -1.77496E+04 -1.43057E+04 -8.33558E+03 -2.22773E+04  6.64608E+03 -1.85862E+04
  1.59698E+04 -9.63315E+03  1.19535E+04  6.28560E+03  3.19751E+02  6.37831E+03 -8.52295E+03  4.11530E+01
 -9.56030E+03 -1.21098E+04 -1.00359E+03 -1.89984E+04  1.17902E+04 -1.88592E+04  2.47327E+04 -1.03047E+04
  2.84192E+04  3.31018E+03  2.05677E+04  1.69936E+04  5.29459E+03  2.32414E+04 -1.18490E+04  1.86172E+04
 -1.52474E+04  7.33340E+03 -8.50003E+03 -4.35781E+03  2.48284E+03 -6.52530E+03  1.01155E+04 -8.20787E+02
  8.12622E+03  8.01117E+03  1.29608E+03  1.48709E+04 -1.09184E+04  1.58491E+04 -1.73812E+04  2.91245E+03
 -1.26211E+04 -9.44636E+03 -8.39639E+02 -1.41887E+04  1.02023E+04 -7.76005E+03  1.12547E+04  5.38967E+03
  3.24002E+03  1.48078E+04 -8.47927E+03  1.44483E+04 -1.71412E+04  5.26698E+03 -1.75454E+04 -7.37456E+03
 -1.15710E+04 -2.08676E+04  4.76356E+03 -2.31345E+04  1.80413E+04 -1.43607E+04  2.09794E+04  2.14656E+03
  1.26755E+04  1.66718E+04 -3.74516E+03  1.96834E+04 -1.53145E+04  1.14533E+04 -1.52029E+04 -1.78210E+03
 -1.18026E+04 -1.32482E+04 -1.87926E+03 -1.53992E+04  8.47694E+03 -9.58576E+03  8.12166E+03 -5.39659E+03
  7.34494E+03  4.46961E+03  2.96137E+02  1.10497E+03 -7.10996E+02 -4.28827E+03  2.81293E+03 -8.51210E+03
  1.40512E+04 -7.66857E+03  2.17941E+04  1.93055E+03  2.07437E+04  1.58239E+04  1.36191E+04  2.75299E+04
 -6.52181E+03  3.06479E+04 -2.58614E+04  2.18483E+04 -3.32535E+04  2.97452E+03 -2.90507E+04 -1.25527E+04
 -1.27535E+04 -2.22075E+04 -8.00714E+02 -1.92381E+04  7.32581E+03 -1.12929E+04  4.66077E+03 -6.54567E+03
  3.47884E+03 -2.23726E+03  5.29112E+03 -3.76317E+03  6.62912E+03 -6.10285E+03  1.12948E+04 -4.45132E+03
  1.36128E+04  1.95988E+03  9.31566E+03  1.27551E+04 -2.82731E+03  1.43769E+04 -1.45294E+04  1.20354E+04
 -1.96360E+04  5.13251E+02 -1.42611E+04 -1.31851E+04 -1.00601E+03 -1.93218E+04  1.01845E+04 -2.14660E+04
  2.19509E+04 -1.19199E+04  2.53076E+04  2.23117E+03  1.74416E+04  1.89509E+04  2.90605E+03  2.27586E+04
 -1.04936E+04  1.88175E+04 -1.07891E+04  5.11904E+03 -9.76793E+03 -9.03418E+02 -4.08117E+03 -2.46770E+03
 -1.22800E+03 -6.47198E+02 -1.95918E+03  3.99955E+03 -9.24239E+03  3.95807E+03 -1.31647E+04  6.42103E+02
 -1.02393E+04 -1.38316E+04  1.24664E+02 -2.14182E+04  1.24956E+04 -1.96887E+04  2.29677E+04 -6.08703E+03
  1.88799E+04  9.19165E+03  8.95588E+03  1.69219E+04 -1.95082E+03  1.88951E+04 -1.52524E+04  1.38323E+04
 -1.91557E+04  2.00392E+03 -1.54765E+04 -1.25731E+04 -1.48869E+03 -1.66622E+04  8.49539E+03 -1.01005E+04
  1.42995E+04 -3.41089E+03  9.87160E+03  2.39019E+03  5.02655E+03  5.99534E+03  2.26383E+03  2.35914E+03
  4.81054E+03  4.34213E+01  4.65795E+03  1.66188E+03  5.50675E+03  6.32139E+03  7.08629E+03  1.01243E+04
 -4.69898E+03  1.58516E+04 -1.44570E+04  1.62380E+04 -2.20014E+04  4.14759E+03 -2.27940E+04 -8.55928E+03
 -1.13172E+04 -2.24337E+04  2.98434E+03 -2.36697E+04  1.31547E+04 -1.61196E+04  1.78922E+04 -3.53196E+03
  1.24689E+04  8.30992E+03  4.58355E+03  1.21100E+04 -5.74503E+03  6.68134E+03 -6.65509E+03 -2.80890E+03
 -4.58416E+03 -1.03176E+04  4.34525E+03 -1.00916E+04  9.98816E+03 -4.55141E+03  1.03585E+04  2.04216E+03
  4.40710E+03  4.64353E+03  8.78988E+02  2.23549E+03 -1.51455E+03  3.44819E+03  2.58558E+03 -7.26348E+02
  2.19672E+03  2.54456E+02  6.70382E+03  3.30909E+03  3.99114E+03  1.17950E+04 -1.64708E+03  1.67042E+04
 -1.16240E+04  8.97271E+03 -1.35083E+04  2.79681E+03 -1.35591E+04 -3.76847E+03 -5.35242E+03 -9.80253E+03
 -2.29833E+02 -9.26352E+03  4.97133E+03 -4.88868E+03  5.75834E+03  4.00867E+03 -2.62504E+03  8.24546E+03
 -8.62166E+03  3.93905E+03 -1.31044E+04 -3.92597E+03 -4.77297E+03 -1.22349E+04  2.82215E+03 -1.09955E+04
  7.09721E+03 -8.49047E+03  9.68016E+03  4.32848E+02  7.37214E+03  4.42031E+03  1.91288E+03  6.21695E+03
 -3.74235E+03  3.10294E+03 -5.63025E+03 -4.19451E+03  1.08569E+03 -8.54758E+03  1.07263E+04 -6.83961E+03
  1.52959E+04  3.02621E+02  1.18617E+04  8.82862E+03  4.59866E+03  1.46839E+04 -4.31513E+03  1.36623E+04
 -1.07617E+04  8.01877E+03 -1.24956E+04 -6.22209E+02 -7.90979E+03 -1.01046E+04  2.77661E+03 -1.09739E+04
  8.68700E+03 -3.56076E+03  7.73983E+03  2.75774E+03  2.44570E+03  9.15907E+03 -2.40528E+03  6.91659E+03
 -2.43649E+03  5.26417E+03 -3.85998E+03 -6.00972E+02 -3.65952E+03  2.18428E+03  5.32894E+01  3.20839E+03
 -5.36081E+03  6.69407E+03 -9.73367E+03  6.29843E+03 -1.61196E+04  3.43380E+02 -1.63703E+04 -9.27063E+03
 -9.31272E+03 -2.03633E+04  4.12830E+03 -2.23412E+04  1.65524E+04 -1.76546E+04  2.23529E+04 -6.10743E+03
  2.05108E+04  4.40023E+03  1.27301E+04  1.28953E+04  1.91102E+03  1.61920E+04 -6.65708E+03  1.29195E+04
 -9.25488E+03  3.09985E+03 -4.96079E+03 -1.67182E+03 -1.32591E+03 -1.86587E+03 -2.82934E+03 -2.69508E+02
 -1.23640E+03  7.17568E+02 -3.61454E+03  1.22252E+03 -2.72758E+03 -5.22225E+03  1.78775E+03 -5.43114E+03
  6.85762E+03 -4.12009E+03  1.03065E+04  1.51035E+02  1.06219E+04  1.11207E+04  4.98818E+03  1.89004E+04
 -6.69176E+03  1.77666E+04 -1.72266E+04  1.22437E+04 -2.11741E+04 -9.62815E+02 -1.73172E+04 -1.31753E+04
 -3.88729E+03 -1.77292E+04  2.48017E+03 -1.43523E+04  1.18869E+04 -9.87203E+03  1.17153E+04  1.16474E+03
  6.16524E+03  7.80356E+03  9.63687E+02  5.06125E+03 -3.23666E+03 -1.30610E+03  1.26122E+03 -3.20542E+03
  4.55075E+03 -4.08261E+02  6.79920E+03  1.13078E+03  5.78093E+03  6.15057E+03  9.68778E+02  9.94360E+03
 -8.93476E+03  6.53638E+03 -1.05517E+04  8.54373E+02 -9.68626E+03 -7.79943E+03 -3.22613E+02 -1.39943E+04
  7.25272E+03 -1.28455E+04  1.35559E+04 -5.04239E+03  1.20934E+04  5.33269E+03  8.43174E+03  1.05059E+04
  2.25776E+03  1.18198E+04 -5.79956E+03  8.77019E+03 -5.62296E+03  5.62225E+03 -4.78780E+03  1.06517E+03
 -4.77043E+03 -1.34448E+03 -2.57788E+03  1.92797E+03 -4.61867E+03  3.40828E+03 -9.07997E+03 -4.47540E+02
 -9.23967E+03 -6.78182E+03 -1.36464E+03 -1.27187E+04  4.92486E+03 -1.12987E+04  1.11079E+04 -6.77182E+03
  8.79654E+03  1.57828E+03  6.06383E+03  8.53814E+03  4.21752E+02  1.18701E+04 -8.42829E+03  6.53519E+03
