 $NMID ID='MM_0lb_SNR200_19hz_g45_10.RAW', FMTDAT='(8E13.5)'
 TRAMP=1., VOLUME=1. $END
  3.08802E+05 -9.50311E+02  3.37027E+05  2.50801E+05  8.43320E+04  3.36831E+05 -1.32062E+05  2.50299E+05
 -1.90056E+05  8.21613E+04 -1.11348E+05 -3.31478E+04  1.45138E+03 -5.06509E+04  5.32135E+04  1.48695E+02
  3.49837E+04  5.21371E+04 -1.70525E+04  7.54904E+04 -6.02996E+04  6.23368E+04 -8.20375E+04  3.08736E+04
 -7.82840E+04 -1.14438E+04 -5.58797E+04 -5.11965E+04 -1.45771E+04 -6.76410E+04  2.63054E+04 -4.40979E+04
  3.86230E+04  2.66764E+03  1.58709E+04  4.76392E+04 -3.46909E+04  4.64031E+04 -6.63624E+04 -9.51544E+02
 -5.13159E+04 -5.51044E+04 -5.90864E+03 -7.49812E+04  3.32791E+04 -5.25160E+04  4.64561E+04 -1.58516E+04
  4.17627E+04  1.16383E+04  3.14964E+04  2.47280E+04  1.56455E+04  2.85181E+04 -4.50203E+03  2.69758E+04
 -2.03804E+04  1.28773E+04 -1.88827E+04 -3.58018E+03  5.20338E+03 -8.42119E+03  2.14328E+04  9.87510E+03
  8.14302E+03  3.24449E+04 -2.97910E+04  3.43202E+04 -6.13069E+04  2.83790E+03 -5.54514E+04 -4.09378E+04
 -1.27303E+04 -5.98586E+04  3.82679E+04 -4.29404E+04  5.45091E+04 -1.71522E+03  3.11696E+04  3.03553E+04
 -6.82579E+03  3.10509E+04 -2.78191E+04  1.24681E+04 -2.59245E+04 -5.44801E+03 -1.51258E+04 -1.04342E+04
 -7.54356E+03 -1.18709E+04 -1.49043E+03 -1.68808E+04  6.74655E+03 -2.18047E+04  1.47653E+04 -1.36763E+04
  1.19904E+04  4.32631E+03 -5.86768E+03  1.40819E+04 -1.83733E+04 -2.62446E+03 -8.28552E+03 -3.05097E+04
  2.02290E+04 -4.08510E+04  4.49461E+04 -1.84603E+04  4.19173E+04  1.84421E+04  1.38801E+04  4.04422E+04
 -1.48031E+04  3.08049E+04 -2.33096E+04  4.25829E+02 -7.37033E+03 -2.64334E+04  2.09307E+04 -3.02990E+04
  3.67399E+04 -5.72675E+03  3.11025E+04  2.38199E+04  1.48461E+04  4.25222E+04 -7.49122E+03  4.37371E+04
 -2.83524E+04  2.93915E+04 -3.62069E+04  8.63748E+03 -3.78184E+04 -1.48609E+04 -2.14180E+04 -3.46457E+04
  6.65899E+03 -3.43454E+04  2.88893E+04 -1.21412E+04  2.63699E+04  1.08350E+04  3.02802E+03  1.67479E+04
 -1.25532E+04  5.69397E+03 -9.86811E+03 -6.95592E+03  5.81419E+03 -1.05943E+04  1.74494E+04  5.81837E+03
  1.23773E+04  2.16040E+04 -5.60847E+03  2.35570E+04 -2.20757E+04  9.73505E+03 -2.49353E+04 -6.67720E+03
 -1.64720E+04 -1.61771E+04 -5.43445E+03 -1.63487E+04  3.41351E+03 -1.36876E+04  1.22603E+04 -1.45079E+04
  2.07927E+04 -1.10191E+04  2.70880E+04  5.90757E+01  2.10655E+04  1.46109E+04  3.43613E+03  3.29985E+04
 -1.66439E+04  2.76034E+04 -2.43606E+04  9.43536E+03 -1.99548E+04 -1.05816E+04 -3.91101E+03 -1.38691E+04
  3.27845E+03 -4.75396E+03 -1.68547E+03  5.23535E+03 -1.29090E+04  6.64836E+03 -1.38797E+04 -3.09976E+03
 -8.25508E+03 -1.51271E+04  4.37736E+03 -1.81492E+04  1.20171E+04 -1.33938E+04  1.35118E+04 -3.37976E+03
  9.79531E+03  1.10475E+04 -1.29175E+03  1.54190E+04 -1.00907E+04  8.72616E+03 -1.54918E+04 -2.28276E+03
 -1.18733E+04 -1.34821E+04 -1.42952E+03 -1.79533E+04  8.03514E+03 -1.43987E+04  1.55679E+04 -6.75813E+03
  1.39253E+04  2.44208E+02  9.77973E+03  4.78582E+03  5.32386E+03  4.04366E+02  7.65510E+03 -1.22601E+03
  1.34384E+04  3.45426E+03  1.44295E+04  1.22201E+04  8.40785E+03  2.45758E+04 -2.53388E+03  2.62871E+04
 -1.49455E+04  1.97474E+04 -2.50796E+04  8.30760E+03 -2.49023E+04 -1.25849E+03 -2.00036E+04 -1.35110E+04
 -9.07026E+03 -1.86392E+04  6.10412E+03 -1.90533E+04  1.49161E+04 -1.10409E+04  1.63206E+04  3.63390E+03
  7.30953E+03  1.19702E+04 -6.20113E+03  1.03985E+04 -1.34797E+04  3.14773E+03 -9.43862E+03 -7.57116E+03
  1.92696E+02 -1.12929E+04  6.46627E+03 -9.97599E+03  7.94788E+03 -8.92533E+02  1.18747E+03  4.60394E+03
 -5.99211E+03  9.20730E+02 -2.61136E+03 -4.62292E+03  1.34304E+03 -9.54648E+03  7.99460E+03 -9.23711E+03
  1.18940E+04 -4.30996E+03  1.20146E+04  1.60206E+03  1.00415E+04  8.65011E+03  4.42536E+03  1.21369E+04
 -2.17267E+03  1.45673E+04 -9.20695E+03  9.27092E+03 -1.04524E+04  3.03307E+03 -8.20364E+03 -1.34305E+03
 -5.86315E+03 -4.13170E+03 -9.05788E+02  7.78021E+02 -1.47870E+03  6.52574E+02 -4.19619E+03  4.64106E+03
 -7.84547E+03 -2.26022E+02 -9.25775E+03 -8.88186E+03 -3.96653E+03 -1.13884E+04  2.24429E+03 -7.77893E+03
  6.92035E+03 -3.43729E+03  5.57052E+03  1.90783E+03  1.63940E+02  3.40573E+03 -4.11342E+03 -7.75833E+02
 -3.35129E+03 -3.93919E+03 -1.13305E+03 -6.85386E+03  3.32655E+03 -6.49373E+03  8.94068E+03 -3.41033E+03
  1.13645E+04  5.53903E+02  7.09931E+03  4.54539E+03  1.71983E+03  7.92651E+03 -4.81095E+03  8.66665E+03
 -6.52572E+03  2.55664E+03 -3.33574E+03 -5.62986E+02  8.21326E+02 -2.80899E+03  4.76114E+03 -8.35033E+02
  3.95776E+03  2.56938E+03  1.29919E+03  5.23514E+03 -3.70365E+03  5.59971E+03 -6.62911E+03  1.51544E+03
 -4.55578E+03 -4.49439E+03 -9.06287E+01 -6.57701E+03  4.42714E+03 -2.13120E+03  2.29254E+03  1.71436E+03
  4.36155E+02  3.44179E+03 -3.88596E+03  4.83277E+03 -3.74476E+03  2.14460E+03 -5.10888E+03 -9.69880E+02
 -3.46085E+03 -5.58755E+03  2.32477E+03 -6.82863E+03  6.01957E+03 -3.39384E+03  6.23330E+03  7.55458E+02
  5.23274E+03  6.21401E+03  3.54773E+02  6.42332E+03 -4.76273E+03  4.37546E+03 -4.72171E+03  1.29119E+02
 -6.17655E+03 -5.10139E+03 -1.64368E+03 -5.46124E+03  1.64688E+03 -4.70618E+03  2.00541E+03 -2.99439E+03
  3.04041E+03  4.21327E+02  5.32882E+02  1.19470E+03  5.05010E+01 -6.47063E+02 -4.92520E+01 -5.64528E+02
  3.05831E+03  1.00079E+03  4.49903E+03  1.41094E+03  5.84150E+03  2.93409E+03  5.37657E+03  6.48338E+03
 -3.76179E+02  8.17948E+03 -7.14039E+03  6.72001E+03 -8.69730E+03  3.48142E+02 -8.23269E+03 -2.99111E+03
 -3.31519E+03 -6.20758E+03 -8.50204E+02 -4.50776E+03  1.83857E+03 -4.31290E+02  1.11597E+03 -2.22108E+03
  1.58035E+03 -1.52993E+03  1.68950E+03 -1.72795E+03  3.90454E+03 -1.60430E+03  3.25746E+03 -6.10615E+02
  3.07407E+03  1.18007E+03  1.92114E+03  3.65899E+03 -1.56417E+03  2.69079E+03 -3.51380E+03  3.91516E+03
 -4.89036E+03 -1.70801E+03 -1.46706E+03 -2.32689E+03 -2.21657E+02 -3.91892E+03  3.76233E+03 -5.06757E+03
  4.00641E+03 -3.26783E+03  5.81234E+03  4.39506E+02  3.84394E+03  4.78181E+03  1.04337E+03  6.19799E+03
 -1.88254E+03  5.13185E+03 -3.04200E+03  7.26806E+02 -2.27534E+03 -1.21625E+03  2.08371E+02  4.31230E+02
 -1.36466E+03  1.00387E+03 -7.80151E+02  1.54033E+03 -1.83342E+03  2.24969E+03 -3.64038E+03 -3.47449E+02
 -1.44747E+03 -4.76569E+03  1.06845E+03 -3.85568E+03  3.60634E+03 -4.38990E+03  3.76350E+03 -1.07262E+03
  4.45133E+03  2.04371E+03  1.54543E+03  3.50887E+03 -1.36611E+02  4.40533E+03 -2.45976E+03  1.65907E+03
 -3.32307E+03  1.71728E+03 -2.41014E+03 -2.04996E+03  4.17910E+02 -2.89268E+03  2.10143E+03 -2.99108E+03
  1.86058E+03 -1.65318E+03  2.21278E+03 -2.72109E+02  1.23811E+03  1.41914E+03  2.22445E+03  5.89713E+01
  1.96254E+03  6.99509E+02  1.28158E+03  1.09841E+03  8.43252E+02  2.59001E+03  1.86152E+03  2.10336E+03
 -1.74820E+03  3.19207E+03 -2.23010E+03  3.44089E+03 -2.29974E+03  3.99693E+02 -2.76538E+03 -1.37865E+03
 -1.66538E+03 -3.80240E+03  4.99874E+02 -2.87970E+03  1.50997E+03 -1.75065E+03  2.88494E+03 -8.90044E+01
  2.34884E+03  1.81135E+03  5.22665E+02  2.29283E+03 -7.52482E+02  7.95718E+02 -9.16929E+02  8.45707E+02
 -6.30541E+02 -2.34204E+03  5.31365E+02 -8.44986E+02 -1.64134E+01 -1.45205E+03  9.04602E+02  5.11987E+02
 -2.31482E+02  6.53077E+01  1.06336E+03 -5.87578E+02 -7.94992E+02  7.71296E+02  1.61193E+03 -8.14178E+02
  1.40513E+03 -7.48793E+02  1.69465E+03  8.20365E+02  1.02457E+03  1.21750E+03 -5.96589E+01  3.01807E+03
 -2.02890E+03  1.17641E+03 -1.75319E+03  2.37252E+02 -1.55361E+03 -3.90170E+02  6.70024E+02 -8.46464E+02
 -5.78399E+01 -1.42832E+03  9.39382E+02 -1.03425E+03  3.11000E+02  9.50404E+02 -6.49850E+02  1.17694E+03
 -1.86878E+03  1.11458E+03 -1.80018E+03 -2.49691E+03 -6.40773E+02 -1.80789E+03 -7.72483E+02 -2.10125E+03
  7.05715E+02  3.96393E+02  1.40459E+03  5.26715E+02  1.90460E+03 -1.30834E+02  2.89721E+01  5.82497E+02
  7.30629E+01 -3.80963E+02 -1.02679E+03 -1.66699E+03  2.32337E+02 -1.53741E+03  1.73090E+03 -2.53261E+02
  1.33334E+03  4.11919E+02  3.59117E+03  1.71909E+03  1.40921E+03  1.07249E+03  7.93951E+01  1.17479E+03
 -1.85056E+03  5.36749E+02 -9.33926E+02  2.73120E+02 -5.56949E+02 -1.50593E+03 -8.00447E+01  7.24327E+02
  9.18881E+02 -9.69486E+02  6.69837E+02 -5.74371E+02 -1.00672E+03  1.08184E+03  1.02518E+03  1.50297E+03
 -1.26141E+03  8.37352E+02 -2.09723E+01  9.37064E+02 -2.15901E+02 -1.36316E+02 -5.64755E+02 -3.90784E+02
 -4.54456E+02  1.44420E+03 -1.07772E+03  1.30206E+02 -2.10260E+03 -3.09282E+02 -1.66746E+03 -2.99499E+02
 -9.34375E+02 -2.33016E+03  3.56349E+02 -2.59210E+03  7.03801E+02 -1.63368E+03  1.13705E+03 -1.64624E+03
  1.85318E+03 -1.35087E+03  1.31058E+03  8.77702E+02 -6.24068E+02  1.33887E+03 -3.15575E+01  1.06000E+03
 -3.40828E+02  2.70248E+02 -1.13528E+03  4.97988E+02 -6.64245E+02 -2.42391E+02 -2.93212E+02  5.82939E+02
 -5.27750E+02 -7.43987E+01 -4.69256E+02  5.45624E+02  1.15644E+02 -9.22117E+02  8.69796E+02 -8.98878E+02
  4.76684E+02 -1.69365E+03 -1.05746E+02  2.94219E+02  1.70965E+03  1.83170E+03  2.39570E+02  1.34729E+03
 -8.73557E+01  1.64015E+03  7.45511E+00  2.22149E+02 -2.71965E+03 -1.75292E+01 -1.46874E+03 -7.68784E+02
 -1.02798E+03 -1.26613E+03 -1.15097E+02 -1.27981E+03 -5.09972E+02 -2.84878E+02 -1.52295E+02  2.40473E+01
 -2.18379E+01 -9.31441E+02  7.09843E+01 -5.32697E+02 -1.21556E+03  5.49228E+02 -5.92333E+02 -7.08232E+02
  5.48174E+02  4.35662E+02 -3.71419E+02  2.24675E+03 -1.01089E+03 -3.25116E+02  8.79811E+02  5.99311E+02
 -1.37359E+03  3.45103E+02 -8.33243E+01 -7.42968E+01 -2.08240E+02  1.36688E+03  6.95304E+02 -9.67355E+02
 -2.19487E+02 -4.02196E+02 -3.76885E+02  1.50679E+02  9.79961E+02 -6.40918E+02  5.66226E+02  1.29855E+01
  4.74219E+02  6.08635E+01 -1.85829E+02 -1.37596E+02 -1.61513E+02 -1.46526E+03 -6.12679E+02 -1.03256E+03
  5.82422E+02  8.02804E+02 -2.93524E+02 -1.13821E+02  7.76512E+02  3.31325E+02 -1.10273E+03 -3.66627E+02
 -1.75655E+03 -5.19793E+02 -4.36168E+02  1.61764E+02  7.25392E+01 -1.45939E+03 -6.34202E+02 -9.45108E+02
  7.54441E+02  1.23076E+02 -8.68017E+02  5.47407E+02 -3.11224E+02  3.81650E+02 -1.09117E+02 -5.83265E+02
