 $NMID ID='MM_0lb_SNR200_19hz_g45_41.RAW', FMTDAT='(8E13.5)'
 TRAMP=1., VOLUME=1. $END
  3.09514E+05  5.01854E+02  3.37185E+05  2.51135E+05  8.50164E+04  3.38035E+05 -1.31658E+05  2.49817E+05
 -1.89343E+05  8.28211E+04 -1.11299E+05 -3.30207E+04  1.02322E+03 -4.98046E+04  5.45482E+04 -2.85096E+02
  3.54383E+04  5.40935E+04 -1.61505E+04  7.54042E+04 -6.02106E+04  6.24696E+04 -8.28346E+04  3.14441E+04
 -7.98692E+04 -1.09045E+04 -5.60553E+04 -4.94732E+04 -1.47465E+04 -6.76307E+04  2.62998E+04 -4.40320E+04
  3.95270E+04  5.14132E+03  1.58924E+04  4.73017E+04 -3.49506E+04  4.48245E+04 -6.49008E+04 -3.65563E+02
 -5.19544E+04 -5.58646E+04 -7.09049E+03 -7.58302E+04  3.25691E+04 -5.33417E+04  4.68537E+04 -1.66030E+04
  4.15739E+04  1.06287E+04  2.98680E+04  2.41851E+04  1.60404E+04  2.99355E+04 -4.64134E+03  2.66674E+04
 -2.19192E+04  1.32591E+04 -1.91356E+04 -3.83984E+03  4.29317E+03 -7.61548E+03  2.09550E+04  1.09756E+04
  8.21647E+03  3.36934E+04 -3.02912E+04  3.24513E+04 -5.99326E+04  1.86752E+03 -5.53509E+04 -4.13832E+04
 -1.23890E+04 -5.94909E+04  3.89466E+04 -4.35519E+04  5.49424E+04 -1.49518E+03  3.17626E+04  2.90798E+04
 -6.21346E+03  3.19810E+04 -2.83250E+04  1.27869E+04 -2.78618E+04 -4.75056E+03 -1.33681E+04 -1.02718E+04
 -8.02526E+03 -1.03287E+04 -7.74133E+02 -1.60171E+04  6.87858E+03 -2.20655E+04  1.59844E+04 -1.37288E+04
  1.25137E+04  3.37039E+03 -5.82070E+03  1.39931E+04 -1.94658E+04 -2.66999E+03 -9.20655E+03 -2.98082E+04
  2.03060E+04 -4.05254E+04  4.53578E+04 -1.87834E+04  4.21145E+04  1.81528E+04  1.42233E+04  4.10156E+04
 -1.57262E+04  2.99842E+04 -2.27304E+04  1.75782E+03 -8.11530E+03 -2.61593E+04  2.05072E+04 -3.13679E+04
  3.75330E+04 -6.79634E+03  3.06247E+04  2.28651E+04  1.43890E+04  4.18925E+04 -8.59881E+03  4.59126E+04
 -2.78425E+04  2.92154E+04 -3.60044E+04  8.06088E+03 -3.72039E+04 -1.39133E+04 -2.09733E+04 -3.49052E+04
  6.46886E+03 -3.27169E+04  2.96415E+04 -1.28159E+04  2.63416E+04  1.05323E+04  2.83495E+03  1.72941E+04
 -1.25854E+04  6.86564E+03 -9.64036E+03 -7.40317E+03  5.89652E+03 -1.00018E+04  1.68946E+04  5.88492E+03
  1.19847E+04  2.15663E+04 -7.01702E+03  2.23851E+04 -2.01753E+04  8.83208E+03 -2.50949E+04 -6.22934E+03
 -1.55351E+04 -1.50726E+04 -5.73855E+03 -1.67537E+04  2.78627E+03 -1.38284E+04  1.21648E+04 -1.36750E+04
  2.20524E+04 -1.14247E+04  2.76280E+04  4.36288E+02  2.05541E+04  1.51146E+04  4.44235E+03  3.16943E+04
 -1.49855E+04  2.74366E+04 -2.57401E+04  9.16242E+03 -1.91745E+04 -9.61191E+03 -3.61378E+03 -1.40099E+04
  3.18337E+03 -3.05460E+03 -2.52386E+03  5.31251E+03 -1.25124E+04  5.40989E+03 -1.42513E+04 -5.27019E+03
 -8.84887E+03 -1.50472E+04  5.54168E+03 -1.93927E+04  1.24163E+04 -1.35511E+04  1.33728E+04 -1.46122E+03
  9.61250E+03  1.13448E+04 -1.32293E+03  1.50318E+04 -8.68209E+03  9.29720E+03 -1.51558E+04 -3.40770E+03
 -1.14369E+04 -1.28113E+04 -1.57245E+03 -1.93465E+04  8.27721E+03 -1.46568E+04  1.54434E+04 -6.55733E+03
  1.34655E+04  7.92747E+02  9.09726E+03  3.50663E+03  3.77745E+03 -8.66539E+02  6.85203E+03 -4.62890E+01
  1.33088E+04  1.61823E+03  1.36460E+04  1.21482E+04  8.59897E+03  2.27571E+04 -3.90060E+03  2.56366E+04
 -1.36581E+04  1.93387E+04 -2.34239E+04  9.03085E+03 -2.32866E+04 -2.10222E+03 -2.04518E+04 -1.30193E+04
 -9.50979E+03 -1.97645E+04  5.86164E+03 -1.81534E+04  1.63792E+04 -9.14264E+03  1.61973E+04  4.28377E+03
  5.88143E+03  9.92905E+03 -7.27835E+03  1.08247E+04 -1.27604E+04  3.20328E+03 -1.08777E+04 -7.96530E+03
  4.23331E+02 -1.21448E+04  5.23712E+03 -8.99174E+03  7.42322E+03 -2.15706E+03  1.30140E+03  4.61619E+03
 -4.60440E+03  7.52862E+02 -2.82701E+03 -5.01506E+03  9.58080E+02 -9.85248E+03  7.99143E+03 -8.75648E+03
  1.19916E+04 -4.21167E+03  1.10020E+04  2.74074E+03  9.47610E+03  9.34928E+03  5.42993E+03  1.32908E+04
 -8.05674E+02  1.52205E+04 -9.43987E+03  1.02400E+04 -1.08892E+04  3.40543E+03 -7.78484E+03 -1.86791E+03
 -4.90593E+03 -3.64880E+03 -1.37192E+03  2.47494E+03 -2.18449E+03  1.22352E+03 -3.08281E+03  4.46819E+03
 -7.70330E+03 -7.88520E+02 -7.22403E+03 -7.48835E+03 -3.97287E+03 -1.02776E+04  4.37014E+03 -6.94958E+03
  7.09275E+03 -2.67407E+03  5.14884E+03  1.93512E+03  4.75009E+02  2.78178E+03 -3.68433E+03  1.22738E+03
 -3.78505E+03 -5.53893E+03 -1.40356E+03 -6.62995E+03  4.08930E+03 -7.45696E+03  1.03481E+04 -4.11679E+03
  1.06024E+04  4.56769E+02  8.23713E+03  6.78366E+03 -1.28773E+02  7.96251E+03 -5.15775E+03  9.00999E+03
 -6.58185E+03  4.17279E+03 -3.06252E+03 -1.57261E+03  7.53934E+02 -2.45803E+03  4.88187E+03 -8.05426E+02
  4.14624E+03  3.56403E+03  9.76175E+02  6.06798E+03 -4.60923E+03  7.03271E+03 -7.99699E+03  1.53480E+03
 -3.66130E+03 -4.49150E+03 -1.43987E+03 -6.42117E+03  4.25353E+03 -3.32519E+03  2.55097E+03  1.45034E+03
  5.17353E+02  4.45321E+03 -4.10412E+03  4.05040E+03 -5.35908E+03  2.07787E+03 -4.04635E+03 -9.80507E+02
 -2.56951E+03 -5.70230E+03  7.00967E+02 -5.53688E+03  5.68577E+03 -3.74651E+03  5.07961E+03  8.06124E+02
  4.65936E+03  5.53902E+03  1.15718E+02  7.69303E+03 -4.69570E+03  4.03671E+03 -5.06144E+03 -6.03145E+02
 -5.18138E+03 -5.36817E+03 -1.47719E+03 -5.47304E+03  2.03493E+03 -4.93477E+03  3.43913E+03 -1.78729E+03
  2.47304E+03  1.70462E+02  8.59027E+02  1.46620E+03  1.02724E+02  7.62023E+02  3.08626E+02 -1.88066E+03
  3.24208E+03 -5.62777E+02  5.27661E+03  1.53611E+03  4.04968E+03  2.07926E+03  4.68198E+03  8.03502E+03
 -6.85931E+02  7.99350E+03 -7.35989E+03  6.28324E+03 -8.47192E+03  1.10139E+03 -6.34316E+03 -1.51868E+03
 -4.46537E+03 -5.41266E+03 -4.96669E+02 -4.39564E+03  2.24381E+03 -1.65358E+03  1.14991E+03 -2.82382E+03
  8.67637E+02 -8.46190E+02  2.22558E+03 -2.65905E+03  2.99884E+03 -1.00334E+03  2.86146E+03  1.18601E+03
  4.70026E+03  2.18465E+03  1.20604E+03  2.82440E+03 -1.98677E+03  1.99746E+03 -4.81845E+03  2.87541E+03
 -4.10021E+03 -7.74005E+02 -1.54425E+03 -2.58306E+03 -5.13114E+02 -4.84530E+03  3.75013E+03 -5.08147E+03
  3.97643E+03 -3.66843E+03  6.49643E+03  4.65081E+02  4.40506E+03  3.59254E+03  6.14955E+02  5.41325E+03
 -1.90764E+03  4.39538E+03 -3.16738E+03  2.01066E+03 -1.65521E+03 -1.31524E+03 -2.89640E+02 -9.37193E+02
  5.44952E+02  1.07374E+03 -1.50988E+02  3.32807E+02 -2.25484E+03  1.91048E+03 -3.73187E+03 -1.09511E+03
 -1.35423E+03 -3.70350E+03  1.45910E+03 -3.99322E+03  2.92787E+03 -3.83599E+03  2.53068E+03 -7.12306E+02
  4.62741E+03  2.47054E+03  1.63729E+03  3.24086E+03 -1.71311E+03  3.91378E+03 -2.75019E+03  3.73728E+03
 -3.82103E+03  5.02440E+02 -2.88670E+03 -1.54866E+03  1.97962E+01 -3.08773E+03  1.02036E+03 -2.23273E+03
  3.19366E+03 -1.89977E+03  2.21829E+03 -3.61942E+02  9.19819E+02  1.35128E+03  3.37622E+01  1.29318E+03
  1.64625E+03 -4.77103E+02  1.92238E+03  1.04237E+03  9.74618E+02  2.37207E+03  1.40615E+03  1.86943E+03
 -9.97134E+02  2.00054E+03 -3.26246E+03  2.68907E+03 -1.10801E+03  1.95502E+03 -3.50266E+03  5.51723E+02
 -2.12918E+03 -2.87802E+03  1.30517E+03 -4.40466E+03  2.28325E+03 -2.48647E+03  2.70752E+03 -1.86524E+03
  2.99867E+03  2.35136E+03 -6.02058E+02  2.15134E+03 -5.09725E+02  7.83325E+02 -9.92451E+02  8.30513E+02
 -8.84201E+02 -1.27993E+03  1.37450E+03 -1.88264E+03  1.42863E+03 -1.48218E+03  9.74859E+02  4.28437E+02
  3.88632E+01  7.12053E+02  7.09524E+02  2.67449E+02  5.89869E+02  1.19822E+02  1.38680E+03  2.36415E+01
 -3.15162E-01 -2.91384E+02  2.35212E+03 -4.03741E+02 -1.86732E+01  2.87160E+03 -5.52379E+02  3.34693E+03
 -1.18163E+03  1.35057E+03 -1.10980E+03 -9.50789E+02 -1.94710E+03 -9.60463E+02  4.47829E+02 -1.55977E+03
  1.28152E+02 -1.40557E+03  5.00492E+02 -1.19701E+03  9.82657E+02  9.08513E+02  4.65784E+02  2.64989E+02
 -1.44577E+03  8.18063E+02 -9.75931E+02 -1.76913E+03 -6.85687E+02 -2.05580E+03  1.38140E+03 -1.84009E+03
  2.68122E+02 -3.46726E+02  7.74779E+01  2.82294E+02  7.39061E+02 -4.88780E+02 -7.67285E+02  6.90359E+02
  3.87491E+02  1.07982E+03 -5.07114E+02 -2.12736E+02  4.77569E+02 -9.98944E+02  1.78854E+03 -4.66936E+02
  1.23259E+03  3.34296E+02  3.52168E+03  1.10497E+03  7.26421E+02  1.09501E+03  1.44325E+02  1.22530E+03
 -2.06915E+03 -1.33540E+02 -1.56249E+03  2.81252E+01 -1.69765E+03 -1.40597E+03  1.37518E+03  2.16946E+02
  9.85804E+02 -3.89890E+02  5.00365E+02  3.95126E+02 -4.14617E+02  8.91590E+02  5.58999E+02  5.83985E+02
 -7.97460E+02  1.32342E+03 -1.44535E+01  7.85481E+01 -6.39925E+02  3.50497E+02 -8.37569E+02  8.96038E+02
 -8.84958E+02  6.03662E+02 -1.21653E+03 -5.33739E+02 -1.19185E+03 -7.96509E+02 -2.03001E+03 -1.24713E+02
  7.72985E+01 -3.05847E+03  1.69648E+02 -2.33315E+03  1.21680E+03 -1.71408E+03  2.98069E+03 -1.01787E+03
  2.43590E+03 -1.58608E+02  9.04282E+02  1.55927E+03 -1.53811E+03  1.24763E+03 -4.31319E+02  1.48781E+03
 -8.09248E+02  1.10594E+03  4.61618E+02 -6.52060E+02  3.36998E+02 -4.99305E+02 -1.04271E+03  1.09259E+02
 -1.09247E+03 -6.52234E+01 -7.85200E+01 -7.48012E+01  7.10040E+02  3.78533E+02 -2.72107E+01 -1.58286E+03
  1.29459E+03  1.05221E+03 -4.38994E+02 -6.63521E+02  1.92939E+03  1.79097E+03 -1.30528E+03  8.34747E+02
 -7.38432E+02  3.30489E+03 -2.44070E+03  1.24046E+03 -1.33225E+03 -8.27537E+02 -6.42190E+02 -4.60932E+02
  1.37178E+02 -1.31400E+03 -2.99900E+02 -1.42422E+03  8.25332E+02  2.91921E+02  6.56987E+02  5.93798E+02
  2.78581E+02  1.34057E+03 -1.02234E+02 -2.72780E+02 -1.22172E+03  2.88535E+02 -1.11960E+03 -3.58013E+02
  6.64620E+02 -3.84993E+02  7.04735E+01  4.15038E+02 -1.05580E+03  2.20873E+02  2.96396E+02  2.60443E+02
  1.05352E+03  7.70639E+01 -2.52516E+03  1.18626E+02 -2.62540E+02 -4.56860E+02  4.80137E+01 -3.06770E+02
  1.23457E+03 -8.16698E+02 -9.44961E+01  1.45094E+03  1.04460E+03 -1.32016E+03 -5.84810E+01  1.35601E+03
 -2.69797E+01  2.13520E+03 -1.34943E+03  1.15201E+02 -1.31870E+03  4.26317E+02 -7.32222E+02  1.19176E+03
 -9.98643E+02  8.97177E+02 -3.46909E+02 -4.76153E+02 -5.58410E+02  3.03431E+02 -8.14038E+02 -3.16949E+02
 -6.21352E+02  6.43558E+02  3.15796E+02  6.45693E+01  3.73677E+02 -1.44595E+03  1.54670E+03 -8.01862E+01
  3.06148E+02 -5.18183E+02 -4.05783E+01  1.06885E+03 -2.59195E+02  1.17887E+03  6.57919E+02  5.84343E+02
