 $NMID ID='MM_0lb_SNR200_20hz_g50_26.RAW', FMTDAT='(8E13.5)'
 TRAMP=1., VOLUME=1. $END
  3.10356E+05 -4.27826E+02  3.37208E+05  2.50546E+05  8.49325E+04  3.37804E+05 -1.32727E+05  2.49940E+05
 -1.90364E+05  8.33043E+04 -1.11581E+05 -3.29774E+04  9.47911E+02 -5.04101E+04  5.34262E+04 -2.69980E+01
  3.52218E+04  5.30074E+04 -1.74375E+04  7.48879E+04 -6.03399E+04  6.20723E+04 -8.20509E+04  3.14810E+04
 -7.94951E+04 -1.14717E+04 -5.71192E+04 -5.00168E+04 -1.46622E+04 -6.82296E+04  2.66231E+04 -4.51225E+04
  3.89682E+04  3.74413E+03  1.52809E+04  4.58476E+04 -3.40872E+04  4.57735E+04 -6.46276E+04 -9.84389E+02
 -5.17270E+04 -5.56496E+04 -5.60181E+03 -7.51198E+04  3.31446E+04 -5.26296E+04  4.58991E+04 -1.52416E+04
  4.16670E+04  1.09684E+04  3.10855E+04  2.35411E+04  1.54391E+04  2.75616E+04 -4.36156E+03  2.60821E+04
 -2.12733E+04  1.39257E+04 -1.91305E+04 -4.14606E+03  4.50301E+03 -8.15922E+03  2.04442E+04  1.13906E+04
  6.72652E+03  3.34025E+04 -2.99872E+04  3.31642E+04 -6.07139E+04  1.44637E+03 -5.51576E+04 -4.02323E+04
 -1.18667E+04 -6.05254E+04  3.81314E+04 -4.45793E+04  5.44162E+04 -1.95840E+03  3.14903E+04  2.89014E+04
 -6.92066E+03  3.26616E+04 -2.81215E+04  1.31038E+04 -2.81149E+04 -5.09377E+03 -1.34394E+04 -9.12110E+03
 -6.49161E+03 -1.11523E+04 -1.19969E+03 -1.60986E+04  6.16982E+03 -2.28722E+04  1.42823E+04 -1.40685E+04
  1.26417E+04  4.13423E+03 -5.39285E+03  1.22250E+04 -1.96821E+04 -1.06229E+03 -8.61147E+03 -3.00919E+04
  1.96511E+04 -3.96998E+04  4.44511E+04 -1.93482E+04  3.98723E+04  1.70632E+04  1.44488E+04  4.16620E+04
 -1.52554E+04  3.21257E+04 -2.31979E+04  1.30086E+03 -7.38929E+03 -2.62419E+04  2.10271E+04 -3.04768E+04
  3.77451E+04 -6.80204E+03  3.15786E+04  2.31042E+04  1.49438E+04  4.12190E+04 -7.03987E+03  4.48595E+04
 -2.82417E+04  2.89170E+04 -3.57860E+04  8.09364E+03 -3.66692E+04 -1.39871E+04 -2.13320E+04 -3.42717E+04
  6.85740E+03 -3.32731E+04  2.90402E+04 -1.22420E+04  2.70549E+04  9.89947E+03  2.62558E+03  1.79226E+04
 -1.33112E+04  7.65431E+03 -9.26372E+03 -7.23977E+03  4.79756E+03 -1.00777E+04  1.78549E+04  6.37885E+03
  1.26412E+04  2.14589E+04 -6.40716E+03  2.23697E+04 -2.14253E+04  9.28743E+03 -2.33993E+04 -6.18817E+03
 -1.64652E+04 -1.67372E+04 -5.18196E+03 -1.65331E+04  2.34300E+03 -1.36216E+04  1.22676E+04 -1.39018E+04
  2.04893E+04 -1.08281E+04  2.73899E+04  4.54228E+02  2.13700E+04  1.51396E+04  3.48415E+03  3.21120E+04
 -1.60768E+04  2.68095E+04 -2.47564E+04  9.02582E+03 -1.92102E+04 -9.56732E+03 -3.62111E+03 -1.41881E+04
  2.34593E+03 -3.38343E+03 -2.95958E+03  5.17970E+03 -1.20906E+04  4.41069E+03 -1.27029E+04 -4.50562E+03
 -7.26221E+03 -1.43866E+04  3.46008E+03 -1.75166E+04  1.23325E+04 -1.36869E+04  1.39675E+04 -9.70516E+02
  7.20520E+03  1.02892E+04  2.33731E+02  1.53551E+04 -9.67116E+03  8.45640E+03 -1.47234E+04 -3.55583E+03
 -1.11934E+04 -1.31601E+04 -1.02293E+03 -1.87207E+04  8.59301E+03 -1.44501E+04  1.53652E+04 -6.63633E+03
  1.53408E+04  1.00375E+03  9.45619E+03  3.64801E+03  5.20914E+03  1.06263E+03  8.38123E+03 -2.43865E+03
  1.33624E+04  1.41144E+03  1.40257E+04  1.26111E+04  8.61511E+03  2.29219E+04 -2.87662E+03  2.55916E+04
 -1.48446E+04  1.87129E+04 -2.16454E+04  8.38492E+03 -2.29460E+04 -2.45835E+03 -1.98501E+04 -1.30955E+04
 -9.35225E+03 -1.79019E+04  5.94253E+03 -1.74056E+04  1.55632E+04 -9.01373E+03  1.50402E+04  2.53426E+03
  5.78335E+03  1.09436E+04 -6.54963E+03  9.91543E+03 -1.24438E+04  2.45553E+03 -8.87258E+03 -7.86375E+03
 -1.28165E+02 -1.14600E+04  6.15525E+03 -9.16014E+03  7.33607E+03 -7.70609E+02  1.08957E+03  4.24182E+03
 -5.42226E+03  1.49024E+03 -3.50885E+03 -3.70771E+03  4.89485E+02 -9.61880E+03  7.56779E+03 -9.35342E+03
  1.03552E+04 -3.76312E+03  1.05519E+04  1.32354E+03  9.30534E+03  8.79851E+03  4.38087E+03  1.26921E+04
 -1.86090E+02  1.49508E+04 -7.82423E+03  8.84608E+03 -9.88864E+03  3.25711E+03 -7.64990E+03 -1.64293E+03
 -4.67162E+03 -2.32869E+03 -8.93789E+02  2.22660E+03 -1.16768E+03  1.68368E+03 -3.73364E+03  3.89133E+03
 -7.37600E+03 -8.35443E+02 -8.10995E+03 -6.99264E+03 -3.56612E+03 -1.04234E+04  3.10305E+03 -7.40011E+03
  6.51461E+03 -3.02943E+03  5.05024E+03  1.70023E+03  8.10611E+02  2.90005E+03 -2.69254E+03 -7.05869E+01
 -3.09782E+03 -4.31497E+03 -7.91777E+02 -6.18085E+03  4.10194E+03 -7.52098E+03  9.48431E+03 -3.47947E+03
  1.06452E+04  3.34208E+01  8.17840E+03  5.98070E+03  1.15011E+03  7.90935E+03 -5.32543E+03  8.05081E+03
 -7.20315E+03  2.61741E+03 -2.68867E+03 -7.84867E+02  1.98010E+03 -6.37011E+02  3.93386E+03 -1.21645E+03
  4.16141E+03  2.66724E+03  5.65340E+02  6.67367E+03 -5.52560E+03  6.14268E+03 -6.43411E+03  8.72671E+02
 -3.30013E+03 -3.15599E+03  2.07941E+02 -4.93596E+03  3.97918E+03 -2.65438E+03  3.24194E+03  1.30014E+03
  1.51849E+02  2.77439E+03 -4.05840E+03  3.79932E+03 -4.48023E+03  2.84979E+03 -4.24792E+03 -1.80345E+03
 -3.58056E+03 -5.25517E+03  1.70824E+03 -5.80117E+03  4.52327E+03 -3.91846E+03  6.78566E+03  1.22587E+03
  3.19800E+03  4.66520E+03  4.16980E+02  6.52190E+03 -4.75138E+03  3.34000E+03 -3.05078E+03 -1.25584E+03
 -4.90181E+03 -5.34655E+03 -1.27810E+03 -4.82023E+03  2.78101E+03 -4.21571E+03  2.06864E+03 -2.42753E+03
  2.35442E+03  9.51538E+01  8.45179E+02  1.01869E+03  3.76813E+02 -4.51294E+02  5.68788E+02 -2.56175E+02
  3.85400E+03 -7.32269E+02  3.96360E+03  1.53211E+02  3.30004E+03  2.91962E+03  5.35136E+03  5.20162E+03
 -6.30188E+02  6.26914E+03 -7.05844E+03  5.64774E+03 -9.10422E+03  8.86616E+02 -5.72414E+03 -1.41288E+03
 -4.23430E+03 -5.37515E+03 -1.89360E+02 -3.83762E+03  1.00897E+03 -6.99733E+02  1.29542E+03 -1.31964E+03
  3.70491E+02 -2.26279E+03  1.77088E+03 -2.64081E+03  3.34721E+03 -1.99792E+03  3.58273E+03  5.42099E+02
  3.43161E+03  8.61411E+02  6.07820E+02  3.30767E+03 -1.80564E+03  1.34619E+03 -3.34791E+03  1.72150E+03
 -3.07065E+03 -1.17627E+03 -1.00849E+03 -2.56477E+03 -8.18569E+02 -5.60094E+03  2.75552E+03 -4.45649E+03
  5.37223E+03 -3.88954E+03  5.66989E+03 -3.49097E+02  4.50012E+03  3.56227E+03  6.91906E+02  3.98200E+03
 -2.24665E+03  6.19587E+03 -2.13601E+03  1.14716E+03 -2.35903E+03 -1.24163E+03  7.53405E+02 -5.02377E+02
 -1.38528E+03 -2.92776E+02  2.04288E+00  2.14362E+03 -2.88148E+03  1.07008E+03 -3.02447E+03 -3.74578E+02
 -3.75539E+02 -4.08132E+03  6.43638E+02 -2.99293E+03  2.43737E+03 -3.85057E+03  2.87840E+03 -1.00155E+03
  3.45046E+03  1.87689E+03  1.78062E+03  1.84249E+03 -1.65121E+03  3.02942E+03 -2.85601E+03  2.22614E+03
 -2.38892E+03  1.11211E+03 -3.19611E+03 -1.81669E+03 -3.82833E+02 -3.10810E+03  2.09514E+03 -2.30813E+03
  2.41796E+03 -1.11643E+03  1.53771E+03 -1.48302E+02 -1.19381E+02  2.40076E+03  7.70661E+02  7.76992E+02
  1.57090E+03  4.11435E+02  1.71332E+02  1.66771E+03  7.95204E+02  1.93339E+03  1.54888E+03  7.99084E+02
 -1.66091E+03  2.97194E+03 -1.69125E+03  3.61925E+03 -1.70465E+03  1.53464E+02 -4.33691E+03  3.21596E+02
 -2.09886E+03 -3.17516E+03  7.06111E+02 -3.81789E+03  9.13706E+02 -1.37361E+03  2.86676E+03 -9.61814E+02
  1.05537E+03  1.19591E+03  2.41274E+02  1.34128E+03 -3.32278E+02  2.04611E+02 -1.42543E+03  1.26626E+02
 -1.28511E+03 -2.52489E+03  1.07877E+03 -1.40426E+03  2.45395E+02 -8.89421E+02  6.28897E+02 -4.22541E+02
  8.34571E+02 -8.40319E+01  1.04241E+03 -3.67779E+02  3.52632E+02  1.16719E+03  6.53151E+02 -1.57342E+02
 -3.83540E+02 -6.73771E+02  1.14156E+03  4.29429E+02  5.92086E+02  2.81197E+03 -1.77040E+02  2.66457E+03
 -8.42137E+02  7.78490E+01 -1.57835E+03 -1.18081E+02 -1.56155E+03 -8.38537E+02  2.95231E+00  5.00364E+01
  6.76601E+02 -1.13576E+03  1.11180E+03  4.46739E+02 -7.77189E+02  1.69056E+03  2.65421E+02 -3.65292E+01
 -1.32016E+03  7.78701E+02 -1.96816E+03 -1.47648E+03 -4.22233E+02 -2.38305E+03 -1.46244E+02 -1.07286E+03
  3.91506E+02 -7.08480E+02  6.53751E+02  7.30961E+02  1.83183E+03 -4.62388E+01  8.37019E+01  8.88692E+02
 -1.74867E+02 -3.43838E+02  1.60116E+02  4.03562E+02  5.16801E+02 -7.22343E+02  9.46324E+02 -6.63991E+02
  9.93058E+02  5.15167E+02  3.29801E+03 -1.01050E+03  8.86270E+01  1.58322E+03  4.76282E+02  1.18669E+03
 -9.73007E+02 -3.62127E+02 -7.11783E+02 -5.51875E+02 -4.25111E+02 -1.26402E+03  8.35233E+02 -1.15774E+02
  2.19473E+02  1.83375E+02  9.93306E+02  2.07383E+03 -1.88889E+02  3.87600E+02 -7.50848E+02  7.95369E+02
  5.65418E+02  1.16720E+03  5.53858E+02  5.15496E+02 -1.61581E+02  1.16218E+03 -9.22213E+02  4.75071E+02
 -1.02880E+03  1.59558E+03 -1.18107E+03  6.96219E+01 -2.21742E+02  3.93084E+02 -1.87194E+03 -4.38354E+02
 -8.81606E+02 -6.48462E+02 -1.80412E+02 -2.95501E+03  5.83985E+02 -2.87169E+03  1.21972E+03  3.21430E+02
  8.58550E+02 -5.64835E+02  4.50527E+02  1.64432E+03 -1.19385E+03  1.87397E+03 -1.71181E+02  1.97003E+03
 -8.57883E+02  5.86442E+02  4.57021E+02 -7.21925E+02 -7.92571E+02  3.27670E+02 -1.25699E+03 -5.53209E+02
 -1.65113E+03 -5.35385E+02 -3.90676E+02 -5.79584E+01 -2.74468E+02  8.38367E+01  3.20550E+01 -6.65329E+02
  1.47252E+03 -1.70899E+03  1.67823E+01  3.25290E+02  2.11917E+03  1.06706E+03  3.51919E+02  1.88328E+03
 -3.76593E+02  1.41222E+03 -2.09316E+02  6.32530E+02 -4.40837E+02  5.82242E+01 -1.78112E+03 -8.23609E+02
 -2.34334E+02 -2.08206E+03 -1.29672E+03  6.12356E+01 -1.26173E+02  5.64300E+02 -1.63655E+01  3.44483E+02
  8.24824E+01 -6.56328E+02  6.41424E+02 -1.17680E+02  2.54993E+02  5.13567E+02  1.08750E+03 -4.51011E+02
 -3.39523E+02  2.13640E+02 -1.12114E+03  1.52717E+03 -9.27572E+02  3.97950E+02  2.27911E+02 -2.61816E+02
 -1.01345E+03  8.05165E+02  2.96882E+02  2.08769E+02  4.84622E+00 -1.71439E+03  1.67092E+02 -7.00066E+02
 -1.90191E+02 -6.23262E+02 -2.94149E+02 -2.33125E+02  7.21265E+01 -7.99361E+02  5.03927E+02  1.62374E+03
  1.03174E+03  3.55501E+02  6.12627E+02  2.11341E+02 -2.79304E+02  7.19209E+02  3.26876E+02  5.46157E+02
  2.35998E+02 -4.90313E+02 -7.69744E+02 -6.54495E+02  6.97087E+02 -6.93368E+02  1.23246E+02  1.86333E+02
 -1.19985E+03  4.31876E+02 -1.29972E+03 -1.49746E+03 -6.61772E+02 -1.53361E+02 -3.15609E+02 -1.39428E+03
  2.21080E+02 -4.38262E+02 -5.34124E+02  9.94298E+02  3.15316E+02  7.02391E+02 -6.77444E+02  1.29642E+03
