 $NMID ID='MM_0lb_SNR200_17hz_g55_52.RAW', FMTDAT='(8E13.5)'
 TRAMP=1., VOLUME=1. $END
  3.09735E+05  1.22506E+03  3.37049E+05  2.50052E+05  8.52684E+04  3.37256E+05 -1.32280E+05  2.50251E+05
 -1.89454E+05  8.26964E+04 -1.11671E+05 -3.31623E+04  1.91199E+03 -5.10651E+04  5.22537E+04  3.36129E+02
  3.46698E+04  5.16323E+04 -1.54057E+04  7.47381E+04 -6.11597E+04  6.26762E+04 -8.34249E+04  3.16534E+04
 -8.02710E+04 -1.10041E+04 -5.69762E+04 -5.10596E+04 -1.33159E+04 -7.00180E+04  2.64451E+04 -4.51797E+04
  3.94197E+04  3.87566E+03  1.52681E+04  4.75651E+04 -3.31085E+04  4.71810E+04 -6.59744E+04 -1.26873E+03
 -5.45447E+04 -5.61289E+04 -6.53777E+03 -7.70281E+04  3.35547E+04 -5.37389E+04  4.70276E+04 -1.70747E+04
  4.34823E+04  1.05570E+04  3.11327E+04  2.55000E+04  1.44902E+04  2.92171E+04 -5.11596E+03  2.72127E+04
 -2.13015E+04  1.28588E+04 -1.88956E+04 -4.44581E+03  4.73212E+03 -8.34029E+03  2.31587E+04  1.30473E+04
  7.72529E+03  3.51781E+04 -3.08756E+04  3.54210E+04 -6.21129E+04  1.85057E+03 -5.70980E+04 -4.23301E+04
 -1.28687E+04 -6.19426E+04  4.00444E+04 -4.32230E+04  5.82647E+04 -2.55911E+03  3.35190E+04  3.25034E+04
 -7.69168E+03  3.59877E+04 -2.92044E+04  1.49506E+04 -2.96233E+04 -4.84585E+03 -1.61330E+04 -1.05059E+04
 -7.84645E+03 -1.26660E+04 -1.02819E+03 -1.76775E+04  6.39385E+03 -2.30775E+04  1.58544E+04 -1.35881E+04
  1.04691E+04  4.51146E+03 -7.66066E+03  1.31561E+04 -2.12420E+04 -5.08319E+03 -7.89044E+03 -3.20550E+04
  2.14212E+04 -4.18712E+04  4.64942E+04 -1.93419E+04  4.34250E+04  1.89214E+04  1.58207E+04  4.29175E+04
 -1.55264E+04  3.17505E+04 -2.47764E+04  2.88316E+03 -8.59374E+03 -2.72153E+04  2.04903E+04 -3.43105E+04
  4.04644E+04 -8.96400E+03  3.38758E+04  2.33424E+04  1.65771E+04  4.53383E+04 -8.50739E+03  4.86220E+04
 -2.93633E+04  3.17006E+04 -3.99400E+04  9.79960E+03 -4.09103E+04 -1.64786E+04 -2.21161E+04 -3.65564E+04
  6.67540E+03 -3.63820E+04  3.15467E+04 -1.40799E+04  2.81940E+04  1.07495E+04  4.06714E+03  1.90347E+04
 -1.32866E+04  7.41989E+03 -1.04037E+04 -7.15108E+03  5.67069E+03 -9.37783E+03  1.77197E+04  6.15447E+03
  1.24003E+04  2.22355E+04 -6.75347E+03  2.38404E+04 -2.32520E+04  1.01523E+04 -2.73019E+04 -5.06409E+03
 -1.93242E+04 -1.66043E+04 -8.52492E+03 -1.84794E+04  3.46368E+03 -1.66384E+04  1.45281E+04 -1.62483E+04
  2.37316E+04 -1.25348E+04  3.00006E+04  2.80855E+03  2.21475E+04  1.92888E+04  4.04255E+03  3.49444E+04
 -1.66778E+04  2.97784E+04 -2.63698E+04  9.56805E+03 -2.00259E+04 -1.09977E+04 -3.76474E+03 -1.40633E+04
  2.67722E+03 -3.94537E+03 -3.65433E+03  5.87839E+03 -1.54657E+04  5.81758E+03 -1.48332E+04 -6.15571E+03
 -9.28353E+03 -1.64462E+04  3.50421E+03 -2.19159E+04  1.23225E+04 -1.55226E+04  1.68599E+04 -1.45844E+03
  1.09649E+04  1.08357E+04 -1.27201E+03  1.72406E+04 -1.10837E+04  9.99275E+03 -1.76592E+04 -2.96124E+03
 -1.27121E+04 -1.63742E+04 -2.09945E+03 -2.21560E+04  1.06091E+04 -1.70535E+04  1.86383E+04 -9.93764E+03
  1.64009E+04  1.44919E+03  1.18426E+04  4.85839E+03  6.38890E+03  9.23892E+02  8.81904E+03 -2.95636E+03
  1.43198E+04  2.79423E+03  1.77587E+04  1.36921E+04  1.10637E+04  2.84273E+04 -2.06426E+03  3.09321E+04
 -1.73323E+04  2.44275E+04 -2.83077E+04  1.11003E+04 -2.86630E+04 -1.25178E+03 -2.46016E+04 -1.70594E+04
 -1.12982E+04 -2.49141E+04  8.93377E+03 -2.29411E+04  1.91589E+04 -1.23444E+04  1.71003E+04  4.54403E+03
  7.05230E+03  1.19371E+04 -8.95546E+03  1.04678E+04 -1.44489E+04  2.67941E+03 -1.11577E+04 -8.52742E+03
  9.43155E+02 -1.41819E+04  8.81798E+03 -1.00041E+04  8.69799E+03 -1.20574E+03  1.81719E+03  6.13481E+03
 -6.40668E+03  1.03097E+03 -5.45863E+03 -5.94562E+03  1.40995E+03 -1.10938E+04  8.42030E+03 -1.10568E+04
  1.37477E+04 -6.11932E+03  1.44690E+04  3.27059E+03  1.35825E+04  1.08861E+04  6.64783E+03  1.58544E+04
 -3.29368E+03  1.80817E+04 -1.23201E+04  1.26158E+04 -1.36567E+04  2.34638E+03 -9.22836E+03 -3.98459E+03
 -4.98344E+03 -4.32521E+03 -6.26543E+02  1.69278E+03 -1.52500E+03  1.62632E+03 -3.94798E+03  2.79759E+03
 -9.37620E+03 -1.13928E+03 -9.37886E+03 -8.40667E+03 -3.43851E+03 -1.43582E+04  4.00677E+03 -9.99763E+03
  8.35297E+03 -4.06255E+03  6.53508E+03  2.12708E+03  2.77896E+02  3.52743E+03 -4.45020E+03 -1.00002E+03
 -5.00443E+03 -6.28325E+03 -1.58180E+03 -8.73894E+03  4.96004E+03 -9.66647E+03  1.18879E+04 -4.64010E+03
  1.38099E+04  1.74173E+03  1.01369E+04  6.69166E+03  1.63494E+03  1.01272E+04 -5.75247E+03  1.01230E+04
 -7.81398E+03  3.11688E+03 -1.96596E+03 -1.87900E+03  7.92913E+02 -2.05938E+03  6.02627E+03 -1.12688E+03
  4.82637E+03  2.96949E+03 -4.88219E+02  7.79763E+03 -4.74528E+03  7.86526E+03 -1.00722E+04  1.50043E+03
 -5.95597E+03 -5.23812E+03  5.96981E+02 -9.22123E+03  4.97767E+03 -3.92571E+03  5.15026E+03  1.19237E+03
 -5.02887E+02  5.11823E+03 -4.77003E+03  5.42952E+03 -5.92328E+03  3.16075E+03 -6.50311E+03 -2.59591E+03
 -3.51666E+03 -7.49101E+03  1.50433E+03 -8.38349E+03  7.92965E+03 -4.56064E+03  7.75900E+03  3.20162E+02
  5.54254E+03  6.04888E+03 -5.05721E+02  8.97787E+03 -6.59647E+03  4.55421E+03 -4.72613E+03 -8.59867E+02
 -5.40048E+03 -7.78880E+03 -9.36607E+02 -6.61726E+03  4.03876E+03 -5.38591E+03  5.00162E+03 -2.25104E+03
  2.75785E+03  1.25241E+03 -1.61866E+02  1.45331E+03  4.34976E+02 -5.28237E+02  8.40077E+02 -2.60018E+03
  5.47920E+03 -1.01620E+03  7.90753E+03  3.19557E+02  6.73353E+03  3.05624E+03  5.29068E+03  8.28540E+03
 -2.33251E+03  1.14095E+04 -9.50163E+03  8.55713E+03 -1.25190E+04  1.19519E+03 -9.54454E+03 -3.42074E+03
 -6.37458E+03 -8.31293E+03  1.16107E+02 -6.09909E+03  2.78606E+03 -3.42511E+03  1.71018E+03 -1.76846E+03
  3.03159E+03 -2.71291E+03  1.28897E+03 -3.28575E+03  4.93254E+03 -1.41176E+03  4.39869E+03 -1.68514E+02
  4.69794E+03  1.42148E+03  1.89661E+03  3.35714E+03 -9.50838E+02  4.93952E+03 -5.33395E+03  2.97246E+03
 -6.55920E+03 -8.02170E+02 -3.03217E+03 -4.62419E+03  7.30522E+02 -5.99254E+03  4.89609E+03 -6.46653E+03
  6.67096E+03 -3.70569E+03  7.08865E+03  3.74927E+02  5.61412E+03  5.18864E+03  7.76294E+02  8.65102E+03
 -2.80680E+03  6.18081E+03 -4.28343E+03  2.82523E+02 -1.13367E+03 -1.30923E+03 -3.67030E+02 -1.13506E+03
 -2.84526E+02  1.15998E+02 -4.95035E+02  1.64802E+03 -2.92589E+03  1.85290E+03 -4.45266E+03 -1.19998E+02
 -2.53608E+03 -5.11288E+03  9.45677E+02 -5.15289E+03  4.46570E+03 -4.90413E+03  4.17774E+03 -1.25250E+03
  4.94575E+03  3.05286E+03  2.72523E+03  4.35975E+03 -3.93924E+02  5.31805E+03 -3.91360E+03  3.37831E+03
 -5.68481E+03  1.28584E+03 -4.43510E+03 -3.07077E+03  1.68055E+02 -4.70472E+03  2.18815E+03 -3.60273E+03
  2.34467E+03 -1.89532E+03  3.22919E+03  5.72159E+02  4.37559E+01  2.90431E+03  4.06426E+02  3.70484E+02
  3.20851E+02  1.05254E+03  1.47498E+03  1.37404E+03  1.98208E+03  2.05260E+03  1.92803E+03  1.86641E+03
 -1.93399E+03  4.04093E+03 -2.86583E+03  5.66457E+03 -4.35315E+03  9.08556E+02 -6.75331E+03 -4.91436E+02
 -2.19277E+03 -4.37324E+03  1.72865E+03 -5.79458E+03  2.56233E+03 -2.58155E+03  3.15721E+03 -1.50611E+03
  2.33071E+03  1.43449E+03  4.86251E+02  3.31803E+03  4.82551E+02  1.89912E+03 -5.99939E+02  5.78517E+02
 -1.01911E+02 -1.51269E+03  2.39878E+03 -1.29811E+03  1.81678E+03 -1.99516E+03  2.03563E+03  2.03910E+02
  2.25364E+03  3.27223E+02  1.23773E+03  3.41024E+02  7.21697E+02 -3.61527E+02  2.21802E+03 -3.90645E+02
  4.60733E+02  1.32266E+02  1.18497E+03  1.65368E+03  7.44933E+02  2.29505E+03 -8.54749E+02  3.49054E+03
 -1.99597E+03  2.13013E+03 -3.16843E+03  1.42361E+03 -2.67376E+03 -2.04080E+03 -2.53053E+01 -2.09220E+03
  6.19430E+02 -1.42647E+03  4.15332E+02 -1.32598E+03  8.26790E+02  1.09218E+03 -9.32233E+02  1.32125E+03
 -2.66482E+03  8.19295E+02 -2.30417E+03 -2.29704E+03 -1.70122E+03 -2.95197E+03  1.49487E+01 -2.39945E+03
  6.36141E+02 -6.09112E+02  1.09614E+03 -1.02431E+03  2.57036E+03 -8.33592E+02 -4.27164E+02  1.75141E+02
 -2.31854E+01  1.52300E+01 -1.94504E+02  8.69055E+02  1.31326E+03 -2.19715E+02  1.37148E+03 -1.31653E+03
  2.42733E+03  5.16790E+02  3.07507E+03  1.01929E+03  1.50044E+03  2.32818E+03 -5.88746E+02  2.22251E+03
 -1.19702E+03  1.32143E+03 -2.06814E+03 -9.08934E+02 -9.88775E+02 -1.67026E+03  1.77692E+02 -6.78618E+01
  1.61097E+03  2.63948E+02  1.39443E+03  5.99451E+02  5.62448E+02  1.46488E+03  7.61897E+02  1.52051E+03
  2.91220E+01  1.55192E+03 -3.80962E+02  1.77082E+03  3.99844E+02 -3.63587E+02 -6.03693E+02  1.10922E+03
 -1.01326E+03  1.59915E+03 -1.98855E+03  7.17140E+02 -1.57136E+03  8.46584E+01 -3.36989E+03 -1.87689E+03
 -7.81805E+02 -2.48250E+03  2.22921E+01 -3.49156E+03  1.07776E+03 -2.27030E+03  3.46168E+03 -2.39703E+03
  3.75340E+03  1.36077E+03  1.08012E+03  1.98443E+03 -9.05847E+02  1.15802E+03 -1.75681E+03  1.56448E+03
 -9.71784E+02  1.04669E+03  4.48712E+02  7.48839E+02 -2.38212E+02  1.35909E+00 -1.63123E+02 -1.76061E+03
 -1.10632E+03 -2.17006E+02 -7.82014E+02  1.71400E+02  1.70504E+02 -2.70893E+02  6.05697E+02 -6.51534E+02
  8.01946E+02 -1.80348E+03 -5.94912E+01  5.69767E+02  2.22756E+03  2.83753E+02  9.09763E+02  2.24092E+03
 -1.60716E+03  3.43888E+03 -1.70763E+03  2.06317E+03 -2.57373E+03 -1.34485E+03 -2.03671E+03 -1.58619E+03
 -8.08201E+02 -1.21421E+03  5.62556E+02 -1.67864E+03  1.34894E+03 -1.15812E+03  1.65432E+03  7.64546E+02
  1.63075E+02  3.59339E+02  2.23938E+02  7.19811E+02  6.63476E+02  5.01320E+02 -4.86928E+02  1.93029E+02
  7.84677E+02 -6.01383E+02  8.72942E+02  9.34405E+02  1.25582E+03  1.25300E+03  7.55063E+02  7.71599E+02
 -3.83954E+02  1.13547E+03 -1.62729E+03  6.05362E+02 -1.11047E+03 -8.78777E+02 -1.02706E+03 -1.01910E+03
  3.05153E+02 -1.28173E+03  1.07291E+03  5.83279E+02  8.22814E+02 -1.08777E+03  1.83527E+02  4.21016E+02
  1.11746E+03  2.03667E+03  4.55338E+02  9.65200E+02 -7.44647E+02  7.88133E+02 -3.81388E+02 -4.91764E+02
  5.07222E+02  1.16837E+03 -1.15604E+03  5.94767E+02  2.93115E+02  1.00052E+03 -8.26030E+02 -1.55043E+03
 -2.31323E+03  2.04618E+02 -7.65280E+02 -1.17353E+03  1.50847E+03 -1.88812E+03  4.60063E+02  4.91750E+02
  4.68322E+02  4.14367E+02 -1.01362E+03  6.50782E+02 -2.62068E+02  1.37349E+03  3.34200E+02  5.02646E+02
