 $NMID ID='MM_0lb_SNR200_16hz_g45_25.RAW', FMTDAT='(8E13.5)'
 TRAMP=1., VOLUME=1. $END
  3.09552E+05  8.42327E+02  3.35985E+05  2.50815E+05  8.51240E+04  3.37852E+05 -1.32266E+05  2.49598E+05
 -1.90471E+05  8.20297E+04 -1.11934E+05 -3.25517E+04  1.35124E+03 -5.05441E+04  5.38906E+04  8.44089E+02
  3.50999E+04  5.28178E+04 -1.69465E+04  7.59688E+04 -6.03885E+04  6.32109E+04 -8.35959E+04  3.14824E+04
 -7.95491E+04 -1.04341E+04 -5.66392E+04 -5.04979E+04 -1.62970E+04 -6.87433E+04  2.67382E+04 -4.36998E+04
  4.01695E+04  3.23326E+03  1.60821E+04  4.76427E+04 -3.33161E+04  4.63568E+04 -6.56257E+04 -1.65219E+03
 -5.30082E+04 -5.63292E+04 -6.63284E+03 -7.66428E+04  3.30792E+04 -5.36998E+04  4.71429E+04 -1.60441E+04
  4.33708E+04  1.22899E+04  3.13182E+04  2.42200E+04  1.60518E+04  2.88132E+04 -4.80595E+03  2.64306E+04
 -2.14551E+04  1.16782E+04 -1.89773E+04 -4.57307E+03  3.91736E+03 -7.08472E+03  2.12537E+04  1.13499E+04
  7.55722E+03  3.34391E+04 -3.18342E+04  3.47465E+04 -6.14592E+04  2.68105E+03 -5.69517E+04 -4.16221E+04
 -1.15272E+04 -6.19900E+04  3.94509E+04 -4.47031E+04  5.68759E+04 -2.50468E+03  3.32563E+04  3.11207E+04
 -6.70487E+03  3.45093E+04 -3.00504E+04  1.53367E+04 -2.92898E+04 -5.03685E+03 -1.53508E+04 -1.10894E+04
 -9.37339E+03 -1.14156E+04 -9.83348E+02 -1.58855E+04  6.81438E+03 -2.31920E+04  1.52656E+04 -1.46440E+04
  1.20645E+04  5.57936E+03 -6.92424E+03  1.38321E+04 -2.04045E+04 -2.78167E+03 -9.38000E+03 -3.16967E+04
  2.30328E+04 -4.13907E+04  4.56553E+04 -1.96139E+04  4.43078E+04  1.82150E+04  1.51805E+04  4.29218E+04
 -1.53304E+04  3.26826E+04 -2.36019E+04  2.58064E+03 -9.33459E+03 -2.69668E+04  1.96723E+04 -3.08714E+04
  3.99506E+04 -6.90287E+03  3.40968E+04  2.34648E+04  1.56922E+04  4.38661E+04 -7.85700E+03  4.73348E+04
 -2.93700E+04  3.13033E+04 -3.89398E+04  1.00161E+04 -4.12159E+04 -1.64410E+04 -2.20348E+04 -3.58417E+04
  7.51542E+03 -3.47097E+04  3.01873E+04 -1.33333E+04  2.76954E+04  1.02507E+04  2.95729E+03  1.81949E+04
 -1.31506E+04  8.17319E+03 -1.06817E+04 -7.96043E+03  6.08897E+03 -1.08476E+04  1.73235E+04  6.47489E+03
  1.30436E+04  2.23425E+04 -6.23469E+03  2.43642E+04 -2.07843E+04  1.02610E+04 -2.70679E+04 -6.11046E+03
 -1.85921E+04 -1.76418E+04 -6.87518E+03 -1.89468E+04  4.12508E+03 -1.84654E+04  1.47477E+04 -1.60492E+04
  2.37630E+04 -1.19217E+04  3.12195E+04  2.77162E+03  2.25910E+04  1.90914E+04  3.81330E+03  3.51447E+04
 -1.67155E+04  2.93908E+04 -2.76549E+04  1.10009E+04 -2.01210E+04 -1.00117E+04 -3.49019E+03 -1.34526E+04
  1.90147E+03 -2.35036E+03 -3.92437E+03  7.00390E+03 -1.50725E+04  4.89917E+03 -1.48387E+04 -6.53891E+03
 -9.66972E+03 -1.72141E+04  5.29608E+03 -2.08330E+04  1.24300E+04 -1.52394E+04  1.66237E+04 -9.22416E+02
  1.02607E+04  1.23397E+04 -7.98009E+02  1.73601E+04 -1.22808E+04  1.00031E+04 -1.82226E+04 -4.07886E+03
 -1.16029E+04 -1.57189E+04 -1.55489E+03 -2.06945E+04  8.73022E+03 -1.70601E+04  1.75362E+04 -9.10516E+03
  1.60518E+04  4.13647E+02  1.08343E+04  4.43895E+03  5.63410E+03  1.47011E+03  7.71803E+03 -7.75015E+02
  1.61092E+04  3.08165E+03  1.75031E+04  1.39113E+04  9.88887E+03  2.75624E+04 -3.21801E+03  2.89008E+04
 -1.85616E+04  2.33430E+04 -2.67045E+04  1.02303E+04 -2.83853E+04 -2.71869E+03 -2.39268E+04 -1.79103E+04
 -1.17204E+04 -2.50492E+04  7.01330E+03 -2.08618E+04  1.88921E+04 -1.13192E+04  1.70862E+04  3.77084E+03
  6.49539E+03  1.26965E+04 -7.94156E+03  1.06307E+04 -1.37970E+04  2.97847E+03 -1.11586E+04 -8.83663E+03
 -1.06950E+03 -1.39155E+04  5.90528E+03 -9.00129E+03  9.30390E+03 -2.46474E+03  2.40743E+03  6.49626E+03
 -6.52489E+03  1.58452E+03 -4.96801E+03 -5.20414E+03 -3.90235E+01 -1.27055E+04  8.14063E+03 -1.34789E+04
  1.51807E+04 -4.83749E+03  1.45985E+04  2.35988E+03  1.29714E+04  1.10238E+04  6.19513E+03  1.60318E+04
 -1.52469E+03  1.91939E+04 -1.14296E+04  1.21374E+04 -1.35867E+04  2.79944E+03 -8.90751E+03 -3.08690E+03
 -3.77662E+03 -3.47956E+03 -5.48199E+02  9.16562E+02 -3.58152E+03  2.43692E+03 -4.39218E+03  3.74492E+03
 -1.03374E+04 -1.67758E+03 -9.17459E+03 -8.42958E+03 -2.84627E+03 -1.29627E+04  3.95112E+03 -9.95619E+03
  7.76466E+03 -3.77590E+03  7.09214E+03  2.47184E+03  1.52203E+02  3.89666E+03 -4.09353E+03  5.13295E+02
 -3.51756E+03 -5.98928E+03 -2.40977E+03 -8.60319E+03  4.76351E+03 -1.02023E+04  1.40735E+04 -5.31359E+03
  1.33434E+04  1.43704E+03  1.01114E+04  7.57722E+03  1.41459E+03  1.09225E+04 -5.94600E+03  9.84625E+03
 -7.72951E+03  6.80338E+02 -4.99716E+03 -1.70532E+03  5.57971E+02 -2.62594E+03  5.34955E+03 -9.13444E+02
  4.46683E+03  5.17696E+03  1.16548E+02  6.97050E+03 -4.45117E+03  8.12068E+03 -1.01266E+04  2.30914E+03
 -6.60180E+03 -4.32767E+03  2.82666E+02 -7.75597E+03  3.40061E+03 -3.33672E+03  3.49733E+03  9.85821E+02
  9.32945E+01  5.52515E+03 -4.55206E+03  6.00632E+03 -6.37462E+03  2.33702E+03 -6.70533E+03 -1.27806E+03
 -3.04837E+03 -7.62352E+03  2.36827E+03 -8.43536E+03  7.65036E+03 -5.99536E+03  8.60088E+03  1.30332E+03
  5.43868E+03  6.50618E+03 -9.05628E+02  9.33543E+03 -5.92088E+03  4.85446E+03 -7.39264E+03 -8.55343E+02
 -7.47777E+03 -6.64517E+03 -2.63915E+03 -6.64810E+03  2.90989E+03 -5.76656E+03  3.04821E+03 -2.95580E+03
  4.62920E+03 -8.85593E+02  2.47131E+02  1.56757E+03  1.51470E+02 -1.15053E+03  4.98201E+02 -3.04579E+03
  5.75134E+03 -2.16651E+03  6.43204E+03  1.89422E+03  7.77971E+03  4.52745E+03  6.46839E+03  9.22567E+03
 -7.45021E+02  1.18122E+04 -9.49364E+03  8.78012E+03 -1.19595E+04  1.72683E+03 -9.63973E+03 -4.07500E+03
 -6.05503E+03 -8.06227E+03  5.04589E+02 -6.44937E+03  2.80069E+03 -3.70599E+03  1.61490E+03 -2.64470E+03
  2.20104E+03 -1.02336E+03  2.47804E+03 -3.18934E+03  2.97258E+03 -2.40856E+03  2.82449E+03  3.49606E+01
  4.42594E+03  1.86421E+03  2.44427E+03  4.52804E+03 -1.71696E+03  4.53893E+03 -5.30027E+03  4.10158E+03
 -6.01517E+03 -2.01137E+03 -3.01295E+03 -5.47904E+03  1.27610E+03 -6.49239E+03  4.58554E+03 -7.27442E+03
  7.16279E+03 -3.89920E+03  9.76818E+03  6.18586E+02  6.60565E+03  5.10195E+03  2.47275E+03  6.72965E+03
 -3.41954E+03  7.46315E+03 -5.04909E+03  1.45776E+03 -2.28507E+03 -1.75902E+03 -8.26112E+02 -2.66596E+02
 -8.32231E+02  4.58789E+02 -1.46462E+03  2.87412E+03 -3.48307E+03  3.48062E+02 -5.24722E+03  6.08545E+02
 -2.36015E+03 -5.05582E+03 -3.44362E+02 -5.94520E+03  3.39279E+03 -6.98188E+03  4.70049E+03 -9.89198E+02
  4.88375E+03  3.56655E+03  2.00665E+03  5.62463E+03 -1.95011E+03  6.85562E+03 -4.62875E+03  3.25424E+03
 -5.41166E+03  9.36647E+02 -3.84953E+03 -2.38711E+03 -4.51335E+02 -3.98774E+03  1.34117E+03 -4.76503E+03
  4.56022E+03 -6.26899E+02  2.45976E+03  5.34040E+02  1.45733E+03  1.98806E+03  2.39722E+02  4.72401E+02
  1.31082E+03  2.98993E+02  8.49034E+02 -2.74545E+02  3.14851E+02  2.85833E+03  3.18651E+03  2.13610E+03
 -1.98831E+03  4.19970E+03 -2.77571E+03  4.79864E+03 -4.27569E+03  1.53539E+03 -5.35816E+03 -1.27260E+03
 -3.82135E+03 -4.66810E+03  1.95123E+02 -6.90012E+03  1.30696E+03 -3.15579E+03  4.01404E+03 -1.48860E+03
  1.68503E+03  1.97390E+03  7.23164E+02  2.42685E+03 -1.66579E+03  1.50815E+03 -2.13655E+03 -1.50010E+03
 -1.53194E+03 -2.20726E+03  1.35476E+03 -1.85205E+03  3.05262E+03 -1.39705E+03  2.14320E+03  5.13414E+02
  2.10191E+03  8.81942E+02 -6.35051E+02  4.46257E+02 -3.28457E+02  8.18501E+02  1.95174E+03 -2.08496E+02
  2.07830E+02 -1.73940E+02  1.97942E+03  1.19149E+03  8.03957E+02  3.70890E+03 -9.88200E+02  4.77863E+03
 -1.77669E+03  1.62478E+03 -3.94095E+03 -5.99710E+02 -2.42770E+03 -8.29087E+02 -7.20867E+02 -1.87761E+03
 -1.25255E+03 -6.47990E+02  8.66087E+02 -4.69796E+01  1.64577E+03  1.07490E+03 -1.86339E+03  2.01588E+03
 -2.85145E+03  1.36292E+03 -1.19601E+03 -1.71989E+03 -9.68117E+02 -3.07566E+03  9.49322E+02 -2.73431E+03
  4.29278E+02 -1.08029E+03  1.22661E+03 -9.33351E+01  1.09151E+03  4.27277E+02  9.56829E+02  1.57555E+03
 -1.17296E+03  1.54294E+03 -1.64478E+03  2.01178E+02  2.62375E+02 -2.12628E+03  2.86960E+03 -1.49335E+03
  2.84291E+03  1.08923E+03  3.76855E+03  1.99585E+03  1.00212E+03  2.66003E+03 -1.07263E+03  2.50986E+03
 -3.28537E+03 -4.72994E+02 -3.29686E+03 -1.08202E+03 -3.68810E+02 -8.03048E+02 -1.79760E+02  1.82116E+02
  1.82793E+03 -2.20151E+03  8.56424E+02  1.10403E+03 -4.47251E+02  1.56095E+03  2.31535E+02  1.80805E+03
 -3.40863E+02  8.14041E+02  7.52704E+02 -6.12332E+01  1.30939E+02  9.81464E+02 -8.14539E+02  6.39848E+02
  7.72707E+01  1.48495E+03 -2.12865E+03  1.81056E+03 -2.04582E+03  6.27661E+02 -4.45850E+03 -1.05207E+03
 -2.01906E+03 -3.35078E+03  1.22007E+03 -4.42036E+03  1.99840E+03 -3.69345E+03  4.04501E+03 -1.75889E+03
  4.35042E+03 -1.88424E+02  2.28812E+03  3.14701E+03 -6.38833E+02  1.98663E+03 -1.40126E+03  1.92289E+03
 -1.42926E+03  1.13698E+03  3.06107E+02 -1.75704E+02 -4.74097E+02 -3.77536E+02  2.76782E+02  4.91945E+02
 -1.55544E+02  6.01907E+02 -9.38158E+02 -1.81578E+03  1.67487E+01 -1.39628E+03 -4.92055E+02  1.25712E+02
  1.65016E+03 -1.24435E+03  8.81997E+02  3.78428E+02  2.61835E+03  9.83799E+02  5.64763E+02  1.45633E+03
 -1.04524E+03  2.97022E+03 -3.71640E+03  1.43185E+03 -3.59845E+03 -9.19096E+02 -1.21828E+03 -3.03393E+03
 -1.68827E+03 -7.29422E+02 -9.80818E+00 -2.19473E+03  9.24955E+02 -1.65779E+03  2.00994E+03 -8.09730E+01
  1.44518E+03  7.87029E+02 -8.28177E+01  8.43238E+02 -8.09718E+02 -8.19132E+02  3.94489E+02 -9.41067E+02
 -1.18798E+02  8.15090E+02  1.07274E+03  1.93298E+01  6.10012E+02  2.06733E+03  3.60650E+02  2.37864E+03
 -4.97449E+02  2.76963E+03 -1.56349E+03 -8.81254E+02 -8.20708E+02  1.29148E+02  3.88683E+02 -5.90752E+02
  7.01759E+02 -1.24592E+03  3.34189E+02  3.04399E+02  1.47877E+03 -8.76841E+02 -4.98159E+02  2.00052E+03
 -2.49434E+02  1.41682E+03 -7.90749E+02  2.33479E+02 -1.34142E+03  1.85371E+03 -4.96572E+02  1.65670E+02
  2.00346E+02 -7.73733E+02 -1.05636E+03 -7.73720E+01 -8.80132E+02 -4.10885E+02 -9.04374E+02 -3.00376E+02
 -1.69638E+03  4.02328E+02 -7.66784E+02 -7.89151E+02  2.02865E+03 -1.65536E+03  1.83817E+03 -1.65100E+03
  1.21243E+03 -4.83412E+02  7.28858E+01  1.23115E+03 -2.96310E+02  1.97371E+03  6.62734E+00  1.50877E+03
