 $NMID ID='MM_0lb_SNR200_16hz_g45_44.RAW', FMTDAT='(8E13.5)'
 TRAMP=1., VOLUME=1. $END
  3.10324E+05  8.74921E+02  3.37244E+05  2.51428E+05  8.51639E+04  3.38628E+05 -1.31827E+05  2.50683E+05
 -1.90268E+05  8.24332E+04 -1.11131E+05 -3.32370E+04  6.35371E+01 -5.05210E+04  5.39980E+04 -1.00824E+03
  3.55835E+04  5.35277E+04 -1.68276E+04  7.56093E+04 -5.86641E+04  6.36226E+04 -8.24717E+04  3.19075E+04
 -8.06908E+04 -1.06936E+04 -5.67158E+04 -5.08800E+04 -1.48003E+04 -6.81269E+04  2.70264E+04 -4.56104E+04
  3.90272E+04  2.06430E+03  1.67450E+04  4.73094E+04 -3.48750E+04  4.70180E+04 -6.62842E+04 -1.25522E+02
 -5.24586E+04 -5.63080E+04 -6.26059E+03 -7.55272E+04  3.44904E+04 -5.37039E+04  4.83715E+04 -1.74702E+04
  4.28764E+04  1.20478E+04  3.17659E+04  2.44145E+04  1.55030E+04  2.84592E+04 -5.77205E+03  2.75948E+04
 -2.26870E+04  1.26147E+04 -1.88958E+04 -4.89849E+03  5.67263E+03 -8.27018E+03  2.24263E+04  1.16736E+04
  6.16805E+03  3.41714E+04 -3.15292E+04  3.52309E+04 -6.17987E+04  3.14021E+03 -5.56626E+04 -4.06821E+04
 -1.21818E+04 -6.06673E+04  3.82678E+04 -4.44047E+04  5.68579E+04 -2.74314E+03  3.24954E+04  3.04260E+04
 -6.52213E+03  3.47039E+04 -2.86288E+04  1.40558E+04 -2.86187E+04 -4.86405E+03 -1.51213E+04 -1.00439E+04
 -7.48907E+03 -1.04954E+04 -3.36644E+02 -1.78237E+04  7.00215E+03 -2.23438E+04  1.65394E+04 -1.36781E+04
  1.15337E+04  4.60727E+03 -6.03262E+03  1.27993E+04 -2.00392E+04 -3.60519E+03 -9.01670E+03 -3.17426E+04
  2.26219E+04 -4.14887E+04  4.62283E+04 -1.93255E+04  4.33211E+04  1.84735E+04  1.58012E+04  4.44399E+04
 -1.51159E+04  3.27881E+04 -2.43844E+04  3.47454E+02 -8.61579E+03 -2.77223E+04  2.05010E+04 -3.20187E+04
  3.86634E+04 -8.11414E+03  3.27593E+04  2.28568E+04  1.60488E+04  4.44710E+04 -9.57581E+03  4.76526E+04
 -2.95489E+04  3.23777E+04 -3.95545E+04  9.93267E+03 -3.95279E+04 -1.58707E+04 -2.25883E+04 -3.67252E+04
  7.22030E+03 -3.61502E+04  3.03140E+04 -1.29160E+04  2.73596E+04  1.11138E+04  3.01840E+03  1.80240E+04
 -1.27726E+04  8.84530E+03 -1.10146E+04 -7.69847E+03  5.84986E+03 -1.10471E+04  1.78582E+04  6.10050E+03
  1.29269E+04  2.10713E+04 -6.15065E+03  2.38756E+04 -2.10817E+04  9.06849E+03 -2.70747E+04 -5.57894E+03
 -1.82750E+04 -1.60828E+04 -6.87975E+03 -1.88344E+04  4.68401E+03 -1.70173E+04  1.44709E+04 -1.52288E+04
  2.39289E+04 -1.27312E+04  2.93199E+04  6.48659E+02  2.24117E+04  1.82494E+04  3.27677E+03  3.46695E+04
 -1.75126E+04  2.93189E+04 -2.67561E+04  9.35325E+03 -2.03245E+04 -1.09301E+04 -4.42820E+03 -1.40717E+04
  2.17684E+03 -4.02100E+03 -3.62130E+03  5.21607E+03 -1.46454E+04  4.95950E+03 -1.54848E+04 -6.52102E+03
 -1.00523E+04 -1.62224E+04  4.64461E+03 -2.11900E+04  1.35883E+04 -1.63668E+04  1.64100E+04 -1.44908E+03
  9.94085E+03  1.21721E+04 -1.16290E+03  1.73413E+04 -1.26681E+04  9.82022E+03 -1.68752E+04 -3.59354E+03
 -1.14043E+04 -1.59230E+04 -3.99246E+02 -2.18119E+04  9.42608E+03 -1.76672E+04  1.78467E+04 -8.61081E+03
  1.59122E+04  2.69567E+01  1.15522E+04  3.64590E+03  5.75243E+03  1.46000E+03  7.96272E+03 -1.26410E+03
  1.56754E+04  2.09992E+03  1.67180E+04  1.40171E+04  1.04589E+04  2.71030E+04 -2.55276E+03  3.05929E+04
 -1.65900E+04  2.34073E+04 -2.79555E+04  1.16222E+04 -2.85622E+04 -2.71826E+03 -2.28762E+04 -1.63788E+04
 -1.00304E+04 -2.38316E+04  9.00952E+03 -2.10711E+04  1.85653E+04 -1.12600E+04  1.67824E+04  5.54804E+03
  7.22542E+03  1.21058E+04 -8.21973E+03  1.12240E+04 -1.39787E+04  2.52288E+03 -1.20830E+04 -7.96373E+03
  5.94308E+02 -1.36470E+04  7.20549E+03 -1.01925E+04  7.90756E+03 -2.06721E+03  1.61832E+03  7.34552E+03
 -5.91218E+03  1.59767E+03 -5.01360E+03 -5.42970E+03  3.62294E+02 -1.16340E+04  7.86785E+03 -1.20420E+04
  1.46242E+04 -5.68553E+03  1.57436E+04  2.63539E+03  1.20519E+04  1.18505E+04  6.51082E+03  1.70620E+04
 -2.13384E+03  1.93006E+04 -1.09973E+04  1.18699E+04 -1.33532E+04  2.71499E+03 -9.19681E+03 -2.99874E+03
 -4.46713E+03 -5.02570E+03 -1.38404E+03  2.34204E+03 -2.40453E+03  2.27261E+03 -4.64161E+03  4.36187E+03
 -7.79644E+03 -3.30465E+02 -9.99044E+03 -8.50563E+03 -2.99761E+03 -1.30302E+04  3.60424E+03 -9.73120E+03
  6.98933E+03 -4.27558E+03  5.91095E+03  2.62384E+03 -2.05760E+02  2.69720E+03 -3.23567E+03  2.13845E+02
 -3.59521E+03 -6.82169E+03 -1.31380E+03 -7.47370E+03  5.22303E+03 -9.72426E+03  1.03373E+04 -5.11826E+03
  1.39025E+04  4.78601E+02  1.02135E+04  7.57595E+03  1.18562E+03  1.05520E+04 -6.72399E+03  1.00582E+04
 -7.53277E+03  2.95133E+03 -3.48875E+03 -2.30367E+03  2.15207E+03 -1.95496E+03  4.61654E+03 -4.05672E+01
  4.76438E+03  4.45999E+03  5.61077E+02  7.52192E+03 -5.85192E+03  7.69740E+03 -8.46900E+03  1.40966E+03
 -5.69252E+03 -3.96655E+03  1.46943E+03 -7.32198E+03  4.20181E+03 -3.58495E+03  4.40023E+03 -2.96067E+02
 -1.03071E+02  4.46029E+03 -4.51825E+03  6.07838E+03 -6.32275E+03  2.75881E+03 -6.61095E+03 -6.82962E+02
 -3.49570E+03 -7.21187E+03  2.55289E+03 -8.73618E+03  7.50015E+03 -6.43796E+03  8.38557E+03  5.96282E+02
  6.60480E+03  6.52494E+03 -3.92218E+02  8.27027E+03 -6.35492E+03  3.79342E+03 -6.62460E+03 -1.76774E+02
 -6.47684E+03 -7.45984E+03 -2.20797E+03 -6.29802E+03  3.31766E+03 -5.64755E+03  3.66043E+03 -2.95192E+03
  3.27109E+03  8.59433E+02 -6.62106E+02  9.90649E+02  6.97771E+01  1.11829E+01 -2.87929E+02 -2.65938E+03
  5.14654E+03 -9.18604E+02  6.19460E+03  7.96175E+02  7.88545E+03  4.26111E+03  6.65013E+03  1.03164E+04
 -2.05252E+03  1.15912E+04 -9.87299E+03  7.06794E+03 -1.24463E+04  1.71958E+03 -9.05336E+03 -3.15291E+03
 -5.61023E+03 -8.20276E+03 -1.41596E+02 -7.07237E+03  3.14883E+03 -2.17833E+03  3.11884E+03 -2.68644E+03
  2.86223E+03 -2.85845E+03  2.21796E+03 -2.51932E+03  3.05175E+03 -2.14402E+03  4.52446E+03 -1.06378E+02
  5.23010E+03  2.33816E+03  1.80111E+03  4.03244E+03 -2.47443E+03  4.34934E+03 -5.07490E+03  3.25544E+03
 -6.12580E+03 -1.51216E+03 -2.21243E+03 -4.81188E+03 -1.54172E+02 -8.12886E+03  4.09233E+03 -6.84339E+03
  7.62520E+03 -3.21605E+03  7.67938E+03  1.02976E+03  6.51684E+03  4.48526E+03  1.01624E+03  7.52868E+03
 -3.16505E+03  6.99969E+03 -4.83410E+03  1.37829E+03 -3.77969E+03 -2.11653E+02 -3.72087E+02 -1.31132E+03
 -7.43334E+02  2.62878E+02 -1.02218E+03  2.11624E+03 -3.79474E+03  1.52167E+03 -4.27301E+03 -4.32634E+02
 -1.44457E+03 -4.76604E+03 -2.93242E+02 -7.53431E+03  3.75240E+03 -4.59849E+03  5.32387E+03 -1.23134E+03
  4.82620E+03  3.98928E+03  2.84281E+03  5.10028E+03 -1.17603E+03  7.32930E+03 -3.60325E+03  2.68884E+03
 -5.27308E+03 -2.94341E+02 -4.93699E+03 -3.02091E+03 -5.29478E+02 -4.29233E+03  3.05853E+03 -4.21793E+03
  4.38622E+03 -1.65695E+03  2.43611E+03  3.02072E+02  7.30442E+02  2.18990E+03  9.16608E+02 -3.08280E+02
  2.18911E+03  1.84105E+03  1.45351E+03  1.63275E+03  1.12415E+03  2.37022E+03  2.44028E+03  3.08595E+03
 -1.01531E+03  4.96062E+03 -2.80283E+03  5.28752E+03 -4.76803E+03  1.71137E+03 -5.54539E+03 -6.33036E+02
 -2.94309E+03 -5.16696E+03  2.93953E+02 -5.94167E+03  3.82311E+03 -3.45988E+03  5.14737E+03 -1.41442E+03
  3.97478E+03  2.65277E+03  5.45347E+02  3.88314E+03 -9.18100E+02  1.65907E+03 -1.71547E+03 -9.75652E+02
 -3.26366E+02 -1.80197E+03  1.36022E+03 -2.58656E+03  2.70416E+03 -9.63556E+02  1.39410E+03  1.01784E+03
  1.38931E+03  4.68536E+02  5.09022E+02  6.11185E+02  8.87648E+02 -9.57180E+01  8.40976E+02 -6.69145E+02
 -5.05057E+02  8.12899E+02  2.16972E+03  1.96006E+03  4.21095E+02  3.18401E+03 -6.58340E+02  3.68607E+03
 -2.88535E+03  2.01186E+03 -2.98834E+03  1.40322E+03 -2.38438E+03 -2.42433E+03 -2.20616E+02 -1.83309E+03
 -1.09114E+02 -1.76584E+03  1.87480E+03 -2.09510E+03  1.19151E+03  3.04590E+03 -1.21938E+03  1.47103E+03
 -2.10646E+03 -2.27022E+01 -2.40109E+03 -1.63781E+03 -6.51934E+02 -2.53682E+03  4.19411E+02 -3.24754E+03
  1.26419E+03 -1.99322E+03  2.42100E+03 -1.82044E+02  1.02016E+03 -2.20002E+02  1.10630E+03  1.50366E+03
 -1.45192E+03  5.19018E+02 -1.44102E+03 -5.88967E+02  1.12546E+03 -2.00054E+03  2.99914E+03 -1.49191E+03
  2.47678E+03  6.56048E+01  3.41149E+03  2.24894E+03  9.34972E+02  2.37023E+03 -4.77899E+02  3.57001E+03
 -1.43294E+03 -3.13970E+02 -2.80596E+03 -1.05218E+03 -2.16796E+03 -2.90257E+03  8.58699E+02 -1.09604E+03
  3.26061E+03 -6.29304E+02  1.72929E+03  1.21032E+03  5.61807E+02  1.76315E+03 -1.81957E+02  1.52712E+03
 -1.10787E+03  1.69181E+03 -9.18801E+02 -1.59108E+02 -3.18549E+02 -9.18417E+01 -1.01156E+03  5.94207E+02
 -1.52667E+03  1.33756E+03 -2.53982E+03  1.35730E+03 -4.24594E+03  4.26809E+02 -3.30051E+03 -1.12683E+03
 -8.78981E+02 -3.83242E+03  1.50886E+03 -4.86465E+03  2.71285E+03 -3.61942E+03  5.33348E+03 -1.37205E+03
  2.78680E+03 -2.67734E+02  1.18106E+03  2.00862E+03  1.79242E+02  2.60934E+03 -1.56545E+03  2.14131E+03
 -2.56396E+03 -2.84295E+02 -4.68225E+02 -1.00937E+03 -1.25325E+02  1.84962E+01 -1.69417E+03 -2.07324E+02
 -1.07670E+03 -4.03521E+02 -3.00950E+02  1.24511E+03 -7.42014E+02 -1.02502E+03 -1.52523E+03 -1.42940E+03
  1.48146E+03 -7.44477E+02  8.38415E+02  1.00040E+03  1.95317E+03  1.70995E+03 -1.01520E+02  2.43166E+03
 -2.38475E+03  4.92747E+03 -3.08793E+03  1.96874E+03 -3.35982E+03 -3.34864E+01 -2.96328E+03 -2.46973E+03
 -2.14947E+03 -2.42220E+03  5.67153E+02 -3.16993E+03  1.71746E+03 -1.16221E+03  1.13392E+03  4.10683E+02
  1.26635E+03  2.23551E+03 -1.68932E+02 -1.22151E+02 -9.15308E+02  3.12847E+02 -4.32481E+02 -4.62756E+02
  1.50963E+03  1.30517E+02  3.02337E+02  1.19671E+03 -1.50588E+02  4.17436E+02  2.67319E+02  8.65597E+02
 -1.27714E+03  7.51208E+02 -1.48936E+03  1.82814E+02 -2.14509E+03 -2.00461E+03 -7.39342E+02 -1.47414E+03
  1.47273E+03 -7.72621E+02  1.37488E+03 -9.07559E+02  2.36838E+03 -8.51007E+02  6.08435E+02  2.72617E-01
  2.24252E+03  1.17818E+03 -9.76274E+02  8.72461E+02 -7.93284E+02  6.60446E+02 -1.29744E+03  9.52890E+02
 -6.67168E+02  7.77073E+02 -4.57372E+02 -4.19407E+02 -1.38317E+03 -4.05033E+02 -7.21081E+02 -1.78895E+02
 -6.48433E+02 -5.08422E+02 -6.91265E+02 -1.80533E+03  7.84198E+01 -1.98596E+03  1.16340E+03 -1.12392E+03
  1.37346E+02  5.30902E+02 -3.45009E+01  1.54421E+03  7.29074E+02  1.54800E+03 -4.79192E+02  7.05297E+02
