 $NMID ID='MM_0lb_SNR200_18hz_g60_30.RAW', FMTDAT='(8E13.5)'
 TRAMP=1., VOLUME=1. $END
  3.10072E+05  5.38941E+02  3.37673E+05  2.50158E+05  8.55884E+04  3.37411E+05 -1.31642E+05  2.51840E+05
 -1.89517E+05  8.24576E+04 -1.11341E+05 -3.27466E+04  6.51419E+02 -5.00290E+04  5.29070E+04 -4.31701E+02
  3.59648E+04  5.30909E+04 -1.58995E+04  7.56515E+04 -6.12724E+04  6.37007E+04 -8.35052E+04  3.15534E+04
 -8.10198E+04 -1.17948E+04 -5.69643E+04 -5.09069E+04 -1.53783E+04 -6.93776E+04  2.75274E+04 -4.49788E+04
  3.98781E+04  3.29966E+03  1.56233E+04  4.75483E+04 -3.43990E+04  4.65399E+04 -6.63236E+04 -1.43049E+03
 -5.24722E+04 -5.65766E+04 -6.99013E+03 -7.68556E+04  3.22501E+04 -5.46813E+04  4.82529E+04 -1.77410E+04
  4.31584E+04  1.21264E+04  3.23473E+04  2.53972E+04  1.65456E+04  2.88192E+04 -4.91373E+03  2.78371E+04
 -2.18192E+04  1.23021E+04 -1.74978E+04 -4.38363E+03  5.17973E+03 -7.44198E+03  2.21790E+04  1.18144E+04
  6.30712E+03  3.52090E+04 -3.17631E+04  3.61043E+04 -6.27676E+04  2.75588E+03 -5.70467E+04 -4.29170E+04
 -1.25290E+04 -6.24253E+04  3.91695E+04 -4.51132E+04  5.89857E+04 -2.36114E+03  3.32074E+04  3.23190E+04
 -6.73209E+03  3.53455E+04 -2.91878E+04  1.54256E+04 -2.87949E+04 -4.47657E+03 -1.58431E+04 -1.04242E+04
 -8.15928E+03 -1.13057E+04 -8.11944E+01 -1.74323E+04  6.51803E+03 -2.28803E+04  1.45567E+04 -1.37463E+04
  1.20411E+04  5.21750E+03 -6.13197E+03  1.39818E+04 -2.06997E+04 -3.23225E+03 -8.49790E+03 -3.24852E+04
  2.20016E+04 -4.22772E+04  4.65706E+04 -1.89187E+04  4.39250E+04  1.92140E+04  1.43690E+04  4.31527E+04
 -1.61027E+04  3.26370E+04 -2.45415E+04  9.94485E+02 -9.34199E+03 -2.67430E+04  2.11025E+04 -3.25075E+04
  4.02531E+04 -9.26562E+03  3.30781E+04  2.45868E+04  1.75072E+04  4.49455E+04 -8.05940E+03  4.77149E+04
 -2.97913E+04  3.28447E+04 -3.94479E+04  7.58000E+03 -4.15768E+04 -1.67289E+04 -2.35811E+04 -3.51191E+04
  6.70808E+03 -3.65717E+04  3.13485E+04 -1.33824E+04  2.84349E+04  1.09073E+04  3.62898E+03  1.91929E+04
 -1.34564E+04  8.09297E+03 -9.66986E+03 -7.66231E+03  6.77736E+03 -9.83976E+03  1.73625E+04  6.05049E+03
  1.34293E+04  2.20941E+04 -6.06078E+03  2.43419E+04 -2.26400E+04  1.01415E+04 -2.70385E+04 -5.25505E+03
 -1.93537E+04 -1.83430E+04 -7.54669E+03 -1.82525E+04  3.93087E+03 -1.65894E+04  1.43822E+04 -1.60273E+04
  2.47640E+04 -1.28784E+04  3.05959E+04  1.95890E+03  2.24634E+04  1.86742E+04  3.85068E+03  3.53448E+04
 -1.60185E+04  2.89922E+04 -2.70827E+04  1.00577E+04 -2.00545E+04 -1.01552E+04 -5.57276E+03 -1.44386E+04
  1.98864E+03 -4.27136E+03 -3.21236E+03  5.68122E+03 -1.58205E+04  4.94203E+03 -1.46939E+04 -5.05806E+03
 -8.57770E+03 -1.70313E+04  4.96097E+03 -2.00286E+04  1.47902E+04 -1.45831E+04  1.61677E+04 -7.18013E+02
  9.41807E+03  1.26512E+04 -1.50979E+02  1.75907E+04 -1.25541E+04  9.67808E+03 -1.74957E+04 -3.51982E+03
 -1.28750E+04 -1.57124E+04 -1.40050E+03 -2.03829E+04  1.04493E+04 -1.60521E+04  1.71717E+04 -8.82766E+03
  1.68163E+04  1.76262E+02  1.18785E+04  3.49283E+03  5.89564E+03  6.44733E+02  7.73973E+03 -2.15275E+03
  1.53375E+04  1.01702E+03  1.76013E+04  1.32256E+04  1.05247E+04  2.68932E+04 -3.34783E+03  2.95432E+04
 -1.74247E+04  2.41694E+04 -2.68207E+04  1.10902E+04 -2.83618E+04 -2.00815E+03 -2.37956E+04 -1.81029E+04
 -1.07812E+04 -2.27401E+04  7.92304E+03 -2.24911E+04  1.81042E+04 -1.20176E+04  1.68948E+04  4.78350E+03
  5.70146E+03  1.28253E+04 -7.56704E+03  1.22785E+04 -1.39680E+04  1.82465E+03 -1.17182E+04 -8.93017E+03
  4.38178E+02 -1.35686E+04  6.44543E+03 -1.09342E+04  8.13820E+03 -1.04899E+03  1.47676E+03  5.75117E+03
 -5.94162E+03  1.50968E+03 -4.59002E+03 -3.96062E+03  4.84522E+02 -1.19566E+04  8.90710E+03 -1.19565E+04
  1.42899E+04 -5.17807E+03  1.44087E+04  2.00666E+03  1.29411E+04  1.17249E+04  5.97773E+03  1.63136E+04
 -1.80167E+03  1.80517E+04 -1.10919E+04  1.13361E+04 -1.20721E+04  2.78648E+03 -9.74381E+03 -2.21113E+03
 -5.87342E+03 -4.65822E+03 -4.84661E+02  1.95574E+03 -1.94206E+03  2.82684E+03 -2.97247E+03  3.15782E+03
 -8.30277E+03 -1.05821E+03 -1.00609E+04 -7.83161E+03 -4.11461E+03 -1.27792E+04  4.64323E+03 -9.45248E+03
  8.16311E+03 -4.26914E+03  5.98330E+03  2.20835E+03  7.27418E+02  2.99239E+03 -5.00525E+03 -5.25879E+01
 -3.75143E+03 -5.12316E+03 -8.38184E+02 -8.35185E+03  3.62266E+03 -9.71041E+03  1.12497E+04 -3.40621E+03
  1.27211E+04  7.75777E+02  1.06779E+04  8.40742E+03  2.03116E+03  1.12966E+04 -6.21053E+03  9.67330E+03
 -7.65829E+03  3.38302E+03 -3.99880E+03 -2.00939E+03  1.96467E+03 -3.01189E+03  5.80800E+03 -9.05580E+02
  3.77732E+03  4.69497E+03  7.24728E+02  7.42665E+03 -4.47330E+03  7.09526E+03 -8.59479E+03  2.48824E+03
 -5.01175E+03 -5.57969E+03  1.11034E+03 -7.35111E+03  4.64334E+03 -3.78353E+03  4.38714E+03  8.49752E+01
  8.67803E+02  3.64084E+03 -4.33200E+03  5.56907E+03 -6.23970E+03  2.12157E+03 -5.65524E+03 -2.13146E+03
 -2.76818E+03 -6.51700E+03  7.31941E+02 -8.18019E+03  6.51750E+03 -4.09284E+03  8.60551E+03  4.15963E+02
  5.45911E+03  5.37528E+03 -1.32155E+03  7.45789E+03 -4.69508E+03  5.19387E+03 -6.86736E+03 -8.64956E+02
 -6.03979E+03 -5.38682E+03 -2.26902E+03 -5.65248E+03  2.93811E+03 -5.42297E+03  2.77131E+03 -2.74314E+03
  3.55543E+03  1.04993E+03 -1.09418E+03  1.33978E+03  4.05665E+02 -4.40323E+02 -3.18001E+02 -1.77371E+03
  4.73508E+03 -1.54616E+03  6.45465E+03  2.11719E+03  4.65832E+03  3.10870E+03  5.20383E+03  8.99984E+03
 -2.35706E+03  9.70668E+03 -9.01428E+03  8.43242E+03 -1.16947E+04  2.65133E+03 -9.32050E+03 -3.67470E+03
 -5.66194E+03 -7.93443E+03  7.03232E+01 -5.94886E+03  1.31339E+03 -2.38105E+03  2.67739E+03 -2.64366E+03
  6.88068E+02 -9.49284E+02  2.17902E+03 -1.72836E+03  3.58919E+03 -1.49097E+03  4.61036E+03  6.72662E+02
  5.16744E+03  1.08507E+03  1.80541E+03  4.15561E+03 -2.11270E+03  3.32552E+03 -5.41120E+03  1.22567E+03
 -5.18198E+03  6.87314E+01 -2.55753E+03 -4.33631E+03  4.43964E+02 -7.00802E+03  2.99379E+03 -5.65950E+03
  5.52424E+03 -2.82124E+03  6.24407E+03 -4.06008E+02  5.71821E+03  4.51753E+03  6.13475E+02  6.04583E+03
 -3.51601E+03  6.15473E+03 -2.68840E+03  1.98732E+03 -1.83266E+03 -2.70608E+02 -2.86777E+02 -5.53144E+01
  1.77347E+02  5.73965E+02 -1.02145E+02  1.70553E+03 -3.41939E+03  1.86334E+03 -5.10599E+03 -4.03893E+02
 -1.04736E+03 -5.52801E+03  1.02712E+03 -4.73473E+03  3.70235E+03 -4.73348E+03  3.79120E+03 -1.16470E+03
  5.20043E+03  3.55337E+03  3.15968E+03  4.70095E+03 -1.09762E+03  5.16292E+03 -3.60715E+03  2.81471E+03
 -4.80688E+03  3.42403E+02 -4.20477E+03 -3.05585E+03 -2.05852E+02 -4.32347E+03  2.34049E+03 -2.24350E+03
  2.35258E+03 -1.58235E+03  1.30036E+03  1.28392E+03  2.40372E+01  1.04225E+03  6.72782E+02  4.20928E+02
  8.58259E+02  4.42946E+02  5.59560E+02  9.29328E+02  8.89840E+02  1.43351E+03  2.61832E+03  1.87529E+03
 -1.41277E+03  3.34715E+03 -2.45844E+03  4.50802E+03 -3.25475E+03  7.34189E+02 -4.51408E+03 -6.91432E+01
 -2.62309E+03 -3.28584E+03  6.60061E+02 -4.56491E+03  2.56110E+03 -2.64995E+03  3.10871E+03 -2.73575E+02
  2.63285E+03  9.09754E+02  8.99079E+02  1.84213E+03 -2.04902E+03  8.19372E+02 -2.13795E+03  2.72642E+02
 -7.18834E+02 -1.20563E+03  1.44918E+03 -2.26640E+03  2.12324E+03 -5.52905E+02  1.70034E+03  1.72943E+02
  1.37707E+03  8.67250E+02  1.10801E+03  2.61054E+01 -6.04278E+02  5.12337E+02  2.46320E+03 -3.11122E+02
  9.35857E+02 -4.83175E+02  8.00951E+02  5.97756E+02 -2.48073E+02  2.69018E+03 -1.72741E+03  2.76350E+03
 -1.47162E+03  1.53637E+03 -1.02793E+03 -1.82480E+00 -2.11548E+03 -3.85355E+02  5.77670E+01 -3.98616E+02
  1.44703E+02 -2.02629E+03  6.15331E+02 -6.11596E+02 -1.75183E+02  1.77912E+03 -1.08576E+03  1.30041E+03
 -2.46110E+03  6.30718E+01 -1.55640E+03 -1.48538E+03 -1.56260E+03 -3.40285E+03 -1.85201E+02 -9.84057E+02
  9.81906E+02 -5.83392E+02  5.44176E+02 -6.41210E+02  1.91018E+03 -4.77453E+01 -2.88614E+02  1.37889E+03
 -1.86042E+03 -2.83903E+02 -5.34448E+02  2.21802E+02  1.65619E+02  3.01115E+02  1.39370E+03 -2.89550E+02
  1.58728E+03  6.19585E+02  2.43371E+03  4.74235E+02  2.37404E+03  2.10870E+03 -7.03470E+02  2.14111E+03
 -2.01319E+03  1.26590E+03 -1.48079E+03  5.50212E+02 -1.91056E+03 -6.51578E+02  5.42887E+02 -7.22772E+02
  1.55997E+03 -2.06246E+03  1.30676E+03  9.51165E+02  2.91882E+02  1.63553E+03  1.41712E+03  1.23080E+03
 -5.09349E+02  3.42246E+02 -5.09393E+02  3.64032E+02 -6.52898E+02  1.57749E+03 -4.50131E+02  9.74032E+02
 -4.92161E+02  1.68343E+03 -2.74715E+03 -6.86227E+01 -1.59202E+03  1.17321E+03 -2.71976E+03  1.83520E+02
 -1.98033E+03 -2.83395E+03  4.01820E+02 -4.44924E+03  1.10416E+03 -2.19771E+03  2.11748E+03 -1.37851E+03
  3.14320E+03  6.68471E+02  1.28930E+03  2.81907E+03 -4.99692E+02  1.49765E+03 -1.18009E+03  1.55861E+03
 -8.25578E+02  6.21658E+02 -8.43946E+02  3.54277E+02 -9.90887E+02 -5.61908E+02 -1.76728E+02 -5.60157E+02
  5.49303E+02 -1.38178E+03 -1.98239E+03  9.33175E+02  1.08861E+03 -6.91118E+02 -4.73529E+02 -1.02418E+03
  1.37257E+03 -3.13889E+02  4.47285E+02  2.16514E+02  1.19713E+03  1.60729E+03 -5.81501E+02 -1.01699E+02
 -4.76144E+02  2.78925E+03 -1.58472E+03  1.45127E+03 -1.23879E+03  1.08347E+02 -2.68647E+03 -1.68838E+03
 -9.39086E+02 -8.83085E+02  4.52422E+02 -5.13747E+02  5.10264E+02  7.12516E+01  1.28786E+03 -3.39519E+02
  1.02278E+02  2.63683E+02  6.29390E+02  5.68122E+02 -2.99830E+02  2.84167E+02  3.19628E+02  6.31411E+02
  5.34669E+02  5.54245E+01  1.73195E+02  3.58493E+02  1.91466E+02  1.61767E+03  4.58130E+02  3.93154E+02
 -1.47410E+02  6.75164E+02 -1.93475E+02 -5.28421E+02 -1.26036E+03 -7.92737E+02 -9.24981E+02 -1.01280E+03
 -3.90126E+01 -1.24803E+03  2.45726E+02 -1.36526E+03  2.26323E+03 -6.65905E+02  3.42623E+02  5.05844E+02
  1.87399E+02  4.20392E+02  5.59655E+02  9.87906E+02  1.24105E+03  4.56122E+02 -5.81126E+02  5.90863E+02
 -5.43346E+01 -1.42576E+03 -5.37254E+02  2.52362E+02 -1.38598E+03 -1.49109E+03 -1.80651E+02 -2.39349E+02
 -2.33064E+02  1.15836E+03 -8.73247E+02 -7.52596E+02  1.38276E+03 -1.67704E+03  9.43869E+01 -5.26218E+02
  4.03334E+02 -6.04016E+01 -4.41345E+02  1.00651E+03  3.11314E+02  4.37437E+02 -1.58257E+02 -8.81756E+01
