 $NMID ID='MM_0lb_SNR200_17hz_g40_48.RAW', FMTDAT='(8E13.5)'
 TRAMP=1., VOLUME=1. $END
  3.09630E+05  1.34960E+03  3.36009E+05  2.50017E+05  8.41075E+04  3.37899E+05 -1.32648E+05  2.50490E+05
 -1.90347E+05  8.24463E+04 -1.11042E+05 -3.40542E+04  2.01134E+03 -4.99652E+04  5.50808E+04 -7.12299E+02
  3.51302E+04  5.28875E+04 -1.51597E+04  7.55904E+04 -5.95734E+04  6.19870E+04 -8.27719E+04  3.13703E+04
 -7.95131E+04 -1.10197E+04 -5.48951E+04 -5.18098E+04 -1.49158E+04 -6.76381E+04  2.72998E+04 -4.60680E+04
  3.94600E+04  3.35249E+03  1.61449E+04  4.68420E+04 -3.50170E+04  4.70730E+04 -6.59081E+04 -9.38067E+01
 -5.22067E+04 -5.59988E+04 -6.64497E+03 -7.48673E+04  3.36889E+04 -5.37260E+04  4.62241E+04 -1.48311E+04
  4.27117E+04  1.06976E+04  2.99066E+04  2.41793E+04  1.56254E+04  2.86696E+04 -4.92861E+03  2.75688E+04
 -2.25847E+04  1.27540E+04 -1.94804E+04 -4.30312E+03  4.42735E+03 -7.15296E+03  2.00162E+04  1.12331E+04
  7.61291E+03  3.31010E+04 -2.94736E+04  3.49126E+04 -6.15502E+04  2.69818E+03 -5.57094E+04 -4.18725E+04
 -1.25694E+04 -5.98838E+04  3.84336E+04 -4.41229E+04  5.67554E+04 -1.58749E+03  3.12620E+04  3.05777E+04
 -6.84447E+03  3.34750E+04 -2.94195E+04  1.32294E+04 -2.62354E+04 -4.72078E+03 -1.52118E+04 -9.62113E+03
 -7.86650E+03 -1.12572E+04 -1.65695E+03 -1.70388E+04  5.59388E+03 -2.27932E+04  1.43162E+04 -1.47451E+04
  1.13475E+04  3.94429E+03 -5.71039E+03  1.20579E+04 -1.90257E+04 -1.91845E+03 -7.07642E+03 -3.15342E+04
  2.21502E+04 -4.17494E+04  4.49810E+04 -1.90565E+04  4.25601E+04  1.91454E+04  1.52526E+04  4.21811E+04
 -1.52216E+04  3.17350E+04 -2.38037E+04  1.56196E+03 -9.06230E+03 -2.74502E+04  2.10229E+04 -3.17375E+04
  3.90297E+04 -7.03000E+03  3.13935E+04  2.25988E+04  1.42911E+04  4.31017E+04 -7.93027E+03  4.54223E+04
 -2.93360E+04  3.00946E+04 -3.82081E+04  7.31203E+03 -3.95092E+04 -1.54511E+04 -2.14695E+04 -3.41836E+04
  7.17345E+03 -3.38091E+04  3.03279E+04 -1.37986E+04  2.66599E+04  1.10378E+04  3.02213E+03  1.77867E+04
 -1.25315E+04  7.58727E+03 -9.61115E+03 -7.51180E+03  6.42959E+03 -1.07843E+04  1.75454E+04  6.28443E+03
  1.08789E+04  2.10237E+04 -5.92821E+03  2.36798E+04 -2.19016E+04  9.47843E+03 -2.49723E+04 -6.46622E+03
 -1.68745E+04 -1.59232E+04 -6.53254E+03 -1.72633E+04  3.22636E+03 -1.50029E+04  1.26611E+04 -1.54377E+04
  2.20638E+04 -1.21975E+04  2.89423E+04  1.02841E+03  2.21548E+04  1.69134E+04  4.11677E+03  3.30338E+04
 -1.65049E+04  2.77702E+04 -2.48093E+04  1.02255E+04 -2.15888E+04 -1.06897E+04 -4.83936E+03 -1.33032E+04
  3.13533E+03 -4.26660E+03 -2.94128E+03  5.44769E+03 -1.27091E+04  5.02849E+03 -1.41684E+04 -5.34728E+03
 -9.43722E+03 -1.53936E+04  4.85539E+03 -1.97686E+04  1.24476E+04 -1.49763E+04  1.47233E+04 -1.46421E+03
  1.05264E+04  1.14175E+04 -7.98089E+02  1.58500E+04 -1.10827E+04  8.92575E+03 -1.48371E+04 -4.46392E+03
 -1.14128E+04 -1.50914E+04 -1.85679E+03 -1.96278E+04  8.94611E+03 -1.64699E+04  1.63693E+04 -6.71752E+03
  1.56221E+04  7.79854E+02  1.05080E+04  3.93915E+03  4.73119E+03  2.43599E+02  8.78235E+03 -1.25955E+03
  1.45126E+04  3.94061E+03  1.57376E+04  1.27007E+04  1.02777E+04  2.47314E+04 -3.01120E+03  2.84851E+04
 -1.62826E+04  2.07258E+04 -2.65893E+04  1.07253E+04 -2.65257E+04 -1.03374E+03 -2.15122E+04 -1.47462E+04
 -1.08716E+04 -2.06685E+04  7.88236E+03 -1.97883E+04  1.60916E+04 -1.12189E+04  1.60686E+04  4.88793E+03
  7.16673E+03  1.18723E+04 -8.54622E+03  1.13224E+04 -1.33426E+04  2.68471E+03 -9.36279E+03 -8.96636E+03
  4.55824E+02 -1.30339E+04  6.77058E+03 -1.02956E+04  9.24227E+03 -1.48493E+03  1.15683E+03  4.16888E+03
 -5.92521E+03  1.04330E+03 -3.38115E+03 -4.76977E+03  1.38015E+03 -1.09165E+04  7.66548E+03 -1.06197E+04
  1.27725E+04 -4.51850E+03  1.29010E+04  2.36284E+03  1.08396E+04  9.92887E+03  5.04315E+03  1.56128E+04
 -2.81774E+03  1.62799E+04 -9.67245E+03  1.13083E+04 -1.13406E+04  3.12790E+03 -9.09725E+03 -1.92101E+03
 -4.11272E+03 -3.51562E+03 -1.43611E+02  2.27711E+03 -2.40877E+03  2.24349E+03 -4.21496E+03  2.93992E+03
 -8.35858E+03 -8.64567E+02 -9.34451E+03 -7.05831E+03 -4.70687E+03 -1.26553E+04  5.02710E+03 -8.40188E+03
  7.89924E+03 -4.17253E+03  4.64179E+03  1.76016E+03  4.29638E+02  2.75976E+03 -4.40519E+03 -7.67256E+01
 -3.51840E+03 -5.04988E+03  2.96029E+01 -8.20076E+03  3.55583E+03 -9.34265E+03  1.09300E+04 -6.66552E+03
  1.37001E+04  1.27812E+03  9.10362E+03  5.69403E+03  1.93426E+03  9.76661E+03 -6.23826E+03  9.17803E+03
 -6.95204E+03  2.49580E+03 -4.78740E+03 -9.61306E+02  1.17580E+03 -2.62339E+03  5.24677E+03 -1.81437E+03
  4.62063E+03  4.44485E+03  6.97175E+02  7.38121E+03 -5.07617E+03  5.87044E+03 -8.99907E+03  1.17648E+03
 -4.87438E+03 -4.34438E+03  1.38470E+03 -6.61136E+03  5.47229E+03 -1.95408E+03  3.55412E+03  8.44342E+02
  1.08240E+03  3.69456E+03 -4.21995E+03  4.89489E+03 -4.37394E+03  2.22723E+03 -5.97171E+03 -1.36902E+03
 -3.73706E+03 -7.05140E+03  8.19252E+02 -7.72513E+03  5.13256E+03 -4.71412E+03  6.49514E+03  1.06950E+03
  5.49783E+03  5.80124E+03  9.54732E+02  8.56782E+03 -5.55032E+03  4.83143E+03 -4.50053E+03 -1.05002E+03
 -6.73357E+03 -6.12148E+03 -1.94663E+03 -5.37928E+03  2.60855E+03 -5.92178E+03  3.39985E+03 -2.81076E+03
  3.45343E+03  4.35813E+02  6.09976E+02  1.56271E+03  4.54803E+02  7.17496E+02 -4.73172E+02 -1.67154E+03
  5.71559E+03 -1.19074E+03  5.97615E+03  7.89181E+02  5.88680E+03  4.04648E+03  5.59917E+03  9.05880E+03
 -3.38353E+02  1.07993E+04 -9.03040E+03  8.79159E+03 -1.09492E+04  1.32627E+03 -8.83331E+03 -2.93283E+03
 -4.81923E+03 -6.62610E+03 -9.32664E+02 -5.37002E+03  2.49335E+03 -2.74979E+03  1.97591E+03 -1.97561E+03
  7.46188E+02 -3.86477E+02  2.52179E+03 -1.87710E+03  3.29804E+03 -3.16714E+03  3.56488E+03 -2.35889E+02
  4.51387E+03  1.27381E+03  1.32618E+03  3.37132E+03 -9.29617E+02  3.91986E+03 -4.92474E+03  3.86936E+03
 -5.99892E+03 -1.63496E+03 -2.46350E+03 -2.51714E+03  5.44287E+00 -6.87413E+03  3.45409E+03 -5.69777E+03
  5.41984E+03 -4.69995E+03  7.58808E+03  7.51046E+02  6.28115E+03  4.54546E+03  7.35579E+02  6.15164E+03
 -1.97463E+03  6.01450E+03 -3.24226E+03  2.81111E+03 -3.13280E+03 -1.75166E+03 -5.19317E+02  5.00751E+02
 -1.07150E+03  1.83330E+02 -4.25423E+02  2.11827E+03 -3.47115E+03  6.94109E+02 -4.60824E+03 -3.98738E+02
 -3.17016E+03 -4.62988E+03  2.11317E+02 -7.28348E+03  4.07174E+03 -4.35747E+03  3.25445E+03 -1.41047E+03
  3.74128E+03  2.74472E+03  2.99936E+03  3.02096E+03 -1.05689E+03  5.62851E+03 -3.62551E+03  4.13050E+03
 -5.00172E+03  1.71150E+03 -4.50757E+03 -2.59380E+03 -7.59523E+02 -4.43530E+03  2.16620E+03 -3.66471E+03
  3.70637E+03 -1.73659E+03  2.98239E+03  1.24969E+03  4.97498E+02  2.35209E+03  5.04259E+02  1.50974E+02
  2.18647E+03  2.85642E+02  1.42201E+03  5.94310E+02  2.35414E+03  2.46041E+03  1.29264E+03  1.48067E+03
 -6.46738E+02  4.44277E+03 -3.91072E+03  3.77307E+03 -4.08579E+03  1.92469E+03 -4.00212E+03 -8.82246E+02
 -2.83391E+03 -4.35061E+03  1.48525E+03 -5.92127E+03  2.68202E+03 -3.60165E+03  4.14158E+03 -1.52176E+03
  2.89386E+03  1.96406E+03  5.92202E+02  1.98021E+03 -1.33464E+03  1.01891E+03 -1.44019E+03 -5.97200E+02
 -1.93051E+03 -1.84718E+03  6.92574E+02 -1.71892E+03  1.74481E+03 -6.22650E+02  2.29745E+03  1.48766E+03
  7.70460E+02  9.29978E+02  4.59503E+02  4.47726E+02  8.16650E+01  9.40925E+02  1.33322E+03 -2.29096E+02
 -5.95376E+02 -1.54140E+02  2.61740E+03  6.11159E+02  8.28768E+02  3.36697E+03 -2.16570E+02  4.10286E+03
 -1.89905E+03  1.92256E+03 -2.24132E+03  1.00083E+03 -2.08679E+03 -4.95925E+02 -1.77660E+02 -1.63698E+03
  2.76637E+02 -1.60516E+03  1.56545E+03 -1.25577E+03  1.13144E+03  1.67239E+03 -3.72677E+02  1.59856E+03
 -3.14386E+03  1.06272E+03 -1.96125E+03 -2.30084E+03 -1.21391E+03 -2.95488E+03 -1.18987E+02 -2.27724E+03
  6.11190E+02 -1.27444E+03  1.60867E+03  1.28075E+03  2.73483E+03 -2.49112E+02  7.41928E+02  1.08777E+03
 -2.03221E+02  8.05762E+02 -1.07622E+03 -8.71991E+02  8.53074E+02 -1.05518E+03  6.45449E+02 -1.02496E+03
  2.21138E+03  1.11481E+03  3.20285E+03  2.68370E+03  1.56695E+03  1.35290E+03  1.19023E+02  2.63505E+03
 -1.69420E+03  2.90861E+02 -1.34430E+03  7.79330E+01 -7.18920E+02 -2.28827E+03  8.61777E+02 -5.36383E+02
  2.19479E+03 -2.48989E+03  6.09194E+02  1.54708E+03  3.27995E+02  2.34733E+03  6.78655E+01  1.01533E+03
  1.45760E+02  1.76059E+03 -1.71109E+02  5.07900E+02 -1.07065E+01  9.68520E+02 -2.97510E+02 -5.83940E+02
 -1.12644E+03  1.26787E+03 -1.70027E+03  8.53117E+02 -2.96475E+03  1.30416E+02 -3.11577E+03 -2.03589E+03
 -6.95723E+02 -3.54288E+03  6.83720E+02 -2.85505E+03  1.64176E+03 -3.35706E+03  3.76912E+03 -9.89616E+02
  1.25843E+03  1.16901E+02  8.58560E+02  2.42882E+03  5.48059E+02  1.96931E+03 -7.82054E+02  1.53699E+03
 -1.88196E+03  9.66038E+02 -9.15967E+02  1.25435E+02  6.97518E+01 -6.80884E+02 -1.49765E+03 -3.88044E+02
  1.64846E+02 -1.19308E+03 -8.91058E+02  4.29924E+02 -4.96207E+02 -1.00294E+03  6.01363E+01 -1.59742E+03
  1.61673E+03 -1.50782E+03  1.01277E+03  4.36309E+02  1.53922E+03  5.26025E+02  5.42738E+02  1.34307E+03
 -5.95376E+02  3.03484E+03 -2.14722E+03  1.00974E+03 -1.93364E+03  1.32364E+02 -1.66599E+03 -2.72727E+03
 -8.21952E+02 -2.45263E+03  1.13962E+03 -1.35814E+03  7.01883E+01 -6.06121E+02  1.39215E+03  2.77924E+02
  2.05714E+03  9.77143E+02 -4.09520E+02 -9.95124E+02 -4.23890E+01 -1.77678E+02  7.30515E+01 -5.54777E+02
  9.67123E+02 -1.13571E+03 -1.65324E+02 -1.83515E+02  4.64271E+02  6.35556E+02  2.99318E+02  1.40741E+02
 -9.68862E+02  1.79188E+03 -8.77791E+02 -9.45143E+02 -7.67620E+02 -8.91081E+02 -5.18251E+01 -1.41700E+03
  8.91845E+02 -4.16354E+02  3.56753E+02 -1.07135E+03  1.49312E+03  4.62944E+02  1.36573E+02  7.66768E+02
  8.23295E+02 -2.06765E+00 -5.34692E+02  1.15891E+03 -7.77918E+02  9.35530E+02 -8.01444E+02  6.41651E+02
  4.54453E+02 -4.18792E+02 -2.26036E+02  2.89623E+02 -9.95883E+02  3.56425E+02 -1.67455E+03  1.07413E+03
 -7.85755E+02 -2.69339E+02 -3.16081E+02 -1.52846E+03  2.18010E+03 -2.72840E+03  8.10568E+02 -7.49257E+02
  5.31070E+02  1.57234E+01  1.39358E+02  4.66236E+02 -3.64949E+02 -2.14918E+02 -4.09130E+02  3.90143E+02
