 $NMID ID='MM_0lb_SNR200_17hz_g55_65.RAW', FMTDAT='(8E13.5)'
 TRAMP=1., VOLUME=1. $END
  3.10673E+05  5.74256E+02  3.37567E+05  2.50995E+05  8.45195E+04  3.36445E+05 -1.31895E+05  2.51080E+05
 -1.90889E+05  8.42291E+04 -1.10870E+05 -3.21405E+04  1.21627E+03 -5.03843E+04  5.35706E+04  7.39069E+02
  3.55324E+04  5.31773E+04 -1.65159E+04  7.53939E+04 -5.94475E+04  6.35262E+04 -8.38892E+04  3.21271E+04
 -8.03387E+04 -1.22952E+04 -5.65413E+04 -4.91682E+04 -1.50755E+04 -6.92181E+04  2.73517E+04 -4.49720E+04
  3.90351E+04  3.78891E+03  1.70688E+04  4.77750E+04 -3.46951E+04  4.70670E+04 -6.65552E+04  1.55447E+02
 -5.29284E+04 -5.63442E+04 -7.61032E+03 -7.65759E+04  3.28724E+04 -5.42321E+04  4.81214E+04 -1.69490E+04
  4.39776E+04  1.07849E+04  3.12412E+04  2.38246E+04  1.55543E+04  2.89463E+04 -4.99117E+03  2.73663E+04
 -2.21122E+04  1.22882E+04 -1.90167E+04 -5.01660E+03  4.89513E+03 -7.64795E+03  2.12416E+04  1.23511E+04
  6.91336E+03  3.49472E+04 -3.19840E+04  3.52114E+04 -6.20915E+04  1.83993E+03 -5.56321E+04 -4.13419E+04
 -1.25575E+04 -6.26062E+04  4.05387E+04 -4.49066E+04  5.64752E+04 -2.03279E+03  3.42918E+04  3.17784E+04
 -5.86996E+03  3.42656E+04 -2.93322E+04  1.53736E+04 -2.92279E+04 -5.12634E+03 -1.55260E+04 -1.01565E+04
 -7.63344E+03 -1.21448E+04 -1.82942E+03 -1.80286E+04  6.58795E+03 -2.37574E+04  1.52236E+04 -1.28176E+04
  1.12171E+04  5.23857E+03 -7.41806E+03  1.35133E+04 -1.98539E+04 -3.85810E+03 -8.76884E+03 -3.26091E+04
  2.12606E+04 -4.20290E+04  4.64843E+04 -1.87680E+04  4.37787E+04  1.93025E+04  1.51051E+04  4.27125E+04
 -1.60777E+04  3.22060E+04 -2.53340E+04  1.66601E+03 -9.34906E+03 -2.74030E+04  2.04441E+04 -3.26614E+04
  3.99972E+04 -8.27553E+03  3.35973E+04  2.40387E+04  1.70097E+04  4.38575E+04 -8.01228E+03  4.78495E+04
 -3.03366E+04  3.15054E+04 -4.06599E+04  8.41186E+03 -4.04204E+04 -1.62120E+04 -2.19725E+04 -3.73177E+04
  6.47560E+03 -3.62817E+04  3.06540E+04 -1.42157E+04  2.88267E+04  1.02551E+04  3.53007E+03  1.94750E+04
 -1.22104E+04  8.80589E+03 -9.34595E+03 -7.82420E+03  6.48363E+03 -1.01195E+04  1.80806E+04  7.09292E+03
  1.25690E+04  2.24108E+04 -6.32196E+03  2.39749E+04 -2.13125E+04  9.25107E+03 -2.69178E+04 -4.93675E+03
 -1.83042E+04 -1.57680E+04 -8.00694E+03 -1.93386E+04  3.95886E+03 -1.71535E+04  1.41374E+04 -1.70791E+04
  2.41031E+04 -1.20469E+04  3.15193E+04  1.85651E+03  2.25124E+04  1.75012E+04  4.46419E+03  3.50581E+04
 -1.78758E+04  2.87001E+04 -2.64119E+04  8.77963E+03 -1.93571E+04 -1.01693E+04 -4.51939E+03 -1.34339E+04
  1.79777E+03 -2.73667E+03 -4.80531E+03  6.52882E+03 -1.46839E+04  6.03666E+03 -1.45039E+04 -6.92222E+03
 -1.00508E+04 -1.78943E+04  5.65778E+03 -1.99648E+04  1.41278E+04 -1.56253E+04  1.63223E+04 -1.73049E+02
  1.04175E+04  1.11067E+04 -1.25255E+03  1.78524E+04 -1.19322E+04  1.02417E+04 -1.72146E+04 -3.61932E+03
 -1.40011E+04 -1.58962E+04 -2.51980E+03 -2.04122E+04  9.05048E+03 -1.72297E+04  1.83408E+04 -9.47524E+03
  1.55497E+04 -2.48102E+02  1.26572E+04  3.99459E+03  5.09583E+03  1.48894E+03  8.40287E+03 -2.00359E+03
  1.55040E+04  2.44347E+03  1.66662E+04  1.31072E+04  1.03793E+04  2.76888E+04 -2.72350E+03  2.97377E+04
 -1.84152E+04  2.46004E+04 -2.87417E+04  1.22141E+04 -2.98835E+04 -2.27208E+03 -2.51560E+04 -1.70027E+04
 -9.78879E+03 -2.45561E+04  7.26327E+03 -2.19479E+04  1.89459E+04 -1.21019E+04  1.64797E+04  5.29863E+03
  7.47271E+03  1.30092E+04 -8.92349E+03  1.08725E+04 -1.54673E+04  2.48419E+03 -1.09212E+04 -1.00790E+04
 -5.09217E+02 -1.42232E+04  7.28496E+03 -1.12946E+04  7.79203E+03 -1.19617E+03  1.84005E+03  5.22679E+03
 -7.22060E+03  2.73196E+03 -5.58318E+03 -4.89716E+03 -1.83964E+01 -1.29853E+04  7.53553E+03 -1.17073E+04
  1.43075E+04 -5.63777E+03  1.51542E+04  2.93532E+03  1.33094E+04  1.09702E+04  5.53762E+03  1.73278E+04
 -2.17931E+03  1.91604E+04 -1.23138E+04  1.22627E+04 -1.32691E+04  3.45606E+03 -1.00660E+04 -2.02067E+03
 -4.77186E+03 -4.00337E+03 -1.76914E+02  1.63964E+03 -1.40074E+03  2.61096E+03 -5.20583E+03  3.37730E+03
 -9.41460E+03 -1.28718E+03 -1.07451E+04 -7.17129E+03 -4.20304E+03 -1.24259E+04  5.11067E+03 -9.88325E+03
  9.28267E+03 -3.96484E+03  7.03186E+03  2.59515E+03 -5.99924E+02  4.07776E+03 -5.36686E+03 -1.41324E+02
 -3.83883E+03 -6.07772E+03 -9.78130E+02 -8.78234E+03  3.81013E+03 -9.42395E+03  1.12100E+04 -5.46785E+03
  1.34945E+04  1.07071E+03  1.10302E+04  6.81966E+03  1.61749E+03  1.07472E+04 -5.68321E+03  9.61486E+03
 -8.00482E+03  3.02248E+03 -5.03913E+03 -1.71194E+03  1.66382E+03 -2.23750E+03  4.45840E+03 -1.42320E+03
  3.08378E+03  4.46123E+03  1.16761E+03  8.04171E+03 -5.00317E+03  8.39822E+03 -9.78767E+03  2.93727E+03
 -6.15560E+03 -5.68747E+03  9.95584E+02 -7.09309E+03  5.02527E+03 -3.56824E+03  4.65000E+03  2.09771E+03
  8.91545E+02  3.81002E+03 -5.01470E+03  4.36108E+03 -5.75078E+03  3.29047E+03 -5.59609E+03 -1.70683E+03
 -3.71278E+03 -7.70311E+03  1.34240E+03 -9.39071E+03  6.21889E+03 -6.17015E+03  7.34823E+03  2.01180E+03
  5.24223E+03  6.70469E+03  2.63162E+02  8.60124E+03 -5.40987E+03  5.25250E+03 -6.08950E+03 -2.72557E+02
 -6.31273E+03 -4.92928E+03 -1.16604E+03 -5.89359E+03  2.30208E+03 -4.74279E+03  3.74972E+03 -3.06234E+03
  2.72494E+03 -5.32517E+02  8.24868E+02  2.88347E+03 -1.92923E+02 -1.59321E+02 -5.85909E+01 -3.13120E+03
  5.99981E+03 -1.38377E+03  6.56140E+03  6.76200E+02  7.02107E+03  4.61829E+03  6.14220E+03  9.06589E+03
 -3.29642E+03  1.07782E+04 -1.02517E+04  8.92135E+03 -1.11771E+04  1.47989E+03 -9.56186E+03 -2.86847E+03
 -6.02609E+03 -7.12244E+03 -8.29087E+01 -6.69437E+03  2.32066E+03 -3.45865E+03  2.64000E+03 -2.95749E+03
  1.15547E+03 -1.71462E+03  2.98898E+03 -3.45895E+03  4.81753E+03 -2.43064E+03  4.03800E+03  5.07367E+02
  6.91630E+03  1.46218E+03  1.43050E+03  4.45907E+03 -2.08662E+03  1.72199E+03 -4.43615E+03  2.79503E+03
 -6.18258E+03 -3.30912E+01 -2.94056E+03 -3.62107E+03 -3.29966E+01 -6.85569E+03  4.59184E+03 -7.19413E+03
  6.82418E+03 -4.13396E+03  7.40529E+03  1.20869E+03  5.92198E+03  5.94173E+03  7.59659E+02  5.73766E+03
 -1.73256E+03  6.17395E+03 -5.22540E+03  1.75819E+03 -3.43769E+03 -3.94921E+02 -1.88638E+01 -1.25561E+03
 -5.80135E+02  1.04299E+01 -2.07711E+03  1.08512E+03 -3.25758E+03  7.95298E+02 -5.26449E+03  9.43542E+02
 -2.42453E+03 -3.93677E+03  1.56909E+03 -5.80988E+03  2.44264E+03 -5.62978E+03  5.53448E+03 -6.79811E+02
  6.40366E+03  3.67219E+03  2.84386E+03  5.40271E+03 -7.61184E+02  5.95762E+03 -4.26782E+03  3.01430E+03
 -5.79436E+03  9.50564E+02 -3.31182E+03 -3.28639E+03 -1.01383E+03 -4.48780E+03  2.29833E+03 -3.84299E+03
  4.57005E+03 -1.12788E+03  3.51698E+03  1.87135E+02  1.07928E+03  2.14671E+03  1.19773E+03  6.44367E+02
  1.23197E+03  4.41351E+02  1.16202E+03  2.99320E+02  7.51778E+02  1.75874E+03  2.10303E+03  2.11611E+03
 -1.45378E+03  3.63822E+03 -1.87281E+03  4.21116E+03 -4.85535E+03  1.94985E+03 -5.54646E+03 -3.21878E+02
 -8.96327E+02 -4.99842E+03  9.45312E+02 -5.41718E+03  1.68187E+03 -3.86263E+03  3.85794E+03 -9.88227E+02
  3.58393E+03  7.60570E+02  1.57889E+03  3.86327E+03 -2.06431E+02  2.20994E+03 -2.51032E+03  1.12846E+03
 -9.93683E+02 -1.12121E+03  1.87035E+03 -2.03045E+03  1.98398E+03 -1.26171E+03  1.73886E+03  7.98792E+02
  1.51974E+03 -4.88435E+02  6.56165E+02  7.70677E+02  2.38120E+02 -6.46530E+02  7.58881E+02 -8.88191E+02
  5.77182E+02  2.71519E+02  2.05815E+03  1.22719E+03  1.28882E+03  1.91497E+03 -2.48633E+02  2.68162E+03
 -2.52994E+03  1.87190E+03 -3.34423E+03  3.96967E+01 -3.66780E+03 -1.55049E+03  3.42314E+02 -7.03883E+02
  2.73739E+02 -2.34911E+03  1.52417E+03 -9.31751E+01  5.44657E+02  1.73723E+03 -7.37554E+02  8.22264E+02
 -2.00422E+03  1.48365E+03 -1.19096E+03 -7.11094E+02 -4.59359E+02 -2.32483E+03  3.28483E+02 -1.77936E+03
  1.86146E+02 -2.27516E+02  1.54897E+03 -8.59688E+02  2.18783E+03  1.49626E+02 -1.17662E+03  2.90742E+02
 -1.19661E+03  6.21425E+02 -1.19837E+03 -9.16764E+02  1.11892E+03 -1.81331E+03  2.34649E+03 -1.93640E+03
  3.12778E+03  4.85369E+02  2.50030E+03  1.22570E+03 -1.40401E+01  1.86258E+03  1.14694E+03  2.47238E+03
 -1.86783E+03  4.66242E+02 -2.00281E+03 -5.33130E+02 -1.70534E+03 -8.99630E+02  1.61781E+02 -9.77191E+02
  1.60087E+03 -4.71295E+02  1.15831E+03  9.28111E+02  1.30412E+03  1.02690E+03  9.40942E+02  8.29440E+02
 -1.45782E+03  4.16511E+02  5.18830E+01 -1.23380E+02 -3.28889E+02 -1.56417E+02 -1.65653E+03  7.16121E+02
 -1.99230E+02  1.11472E+03 -2.54793E+03  1.11691E+03 -1.95674E+03 -2.20219E+02 -2.24950E+03 -1.80204E+03
 -1.61072E+03 -2.17319E+03  1.17949E+03 -4.16898E+03  1.52456E+03 -2.98418E+03  3.65242E+03 -1.24688E+03
  2.83366E+03  2.99636E+02  8.84204E+02  1.16176E+03 -3.33958E+02  2.15886E+03  3.42685E+01  2.00785E+03
 -9.12884E+02  4.07472E+02 -3.94088E+02 -2.67151E+02  4.59366E+02 -8.41875E+01 -6.60068E+02  1.36183E+02
 -2.76222E+02 -3.03022E+01 -3.36915E+02  5.26273E+02  1.50364E+03 -1.27628E+03 -1.07402E+03 -7.04545E+02
  1.50578E+03 -6.52401E+02  1.50209E+03 -2.76722E+02  2.69558E+03  8.95841E+02  8.08122E+02  2.17703E+03
 -1.00166E+03  2.33937E+03 -3.18327E+03  1.39830E+03 -1.64257E+03  3.96684E+02 -3.18237E+03 -2.68292E+03
 -1.47679E+03 -1.36052E+03  1.10650E+03 -1.96098E+03  5.47585E+02 -1.73586E+03  1.44823E+03 -1.15623E+03
  1.66220E+03  2.26515E+02 -7.06465E+02  5.18074E+02 -9.08564E+02 -3.50191E+02  4.26432E+02 -1.24417E+03
  2.53779E+02 -8.54243E+02  1.12375E+03  5.30890E+02 -4.09197E+02  5.41852E+02  2.63620E+02  4.13018E+01
 -6.56208E+02  1.87440E+03 -1.21121E+03  8.03655E+02 -1.16217E+03 -8.07893E-01 -1.48166E+02 -2.11453E+03
  6.67759E+02 -2.15813E+03  1.14323E+03  2.41343E-01  1.21921E+03 -1.79592E+02  1.66523E+03  1.04870E+03
  4.97997E+02  1.12921E+03 -1.16202E+03  6.92002E+02 -1.31805E+03  1.98573E+02 -3.42836E+02  7.50954E+02
 -6.57351E+02 -1.66403E+02 -9.20825E+02  3.32573E+02 -1.01552E+03  7.51229E+01 -1.29592E+02 -8.39565E+02
 -5.95759E+02 -6.64148E+02 -1.18197E+03 -1.19989E+03  1.06035E+03 -1.96441E+03  2.93052E+02  4.43505E+02
  2.65849E+03 -4.61298E+01 -1.50340E+03  2.61228E+02  1.93664E+02  9.90684E+02  9.32474E+00  1.49355E+03
