 $NMID ID='MM_0lb_SNR200_14hz_g40_31.RAW', FMTDAT='(8E13.5)'
 TRAMP=1., VOLUME=1. $END
  3.10206E+05  1.07142E+03  3.36942E+05  2.51195E+05  8.42557E+04  3.37563E+05 -1.31804E+05  2.52069E+05
 -1.89194E+05  8.27629E+04 -1.11081E+05 -3.26846E+04  1.04346E+02 -5.04449E+04  5.57617E+04 -1.72009E+02
  3.61067E+04  5.26186E+04 -1.60164E+04  7.53441E+04 -6.03128E+04  6.25345E+04 -8.46164E+04  3.30976E+04
 -8.20974E+04 -1.07524E+04 -5.72192E+04 -5.11023E+04 -1.48102E+04 -6.91977E+04  2.75684E+04 -4.63708E+04
  3.95542E+04  3.49723E+03  1.63584E+04  4.73634E+04 -3.45390E+04  4.75027E+04 -6.59812E+04 -1.04949E+03
 -5.25224E+04 -5.65048E+04 -6.84076E+03 -7.56022E+04  3.35320E+04 -5.45528E+04  4.78390E+04 -1.77200E+04
  4.15125E+04  1.11723E+04  3.09937E+04  2.70186E+04  1.57806E+04  2.88305E+04 -5.02056E+03  2.70777E+04
 -2.26304E+04  1.20689E+04 -1.85608E+04 -4.00241E+03  5.10021E+03 -7.81410E+03  2.28449E+04  1.20824E+04
  7.33693E+03  3.38280E+04 -3.15276E+04  3.52932E+04 -6.35083E+04  3.40295E+03 -5.66911E+04 -4.28271E+04
 -1.30509E+04 -6.22887E+04  3.92489E+04 -4.52151E+04  5.67479E+04 -2.72665E+03  3.40392E+04  3.27636E+04
 -7.23198E+03  3.55023E+04 -3.07536E+04  1.59261E+04 -2.98420E+04 -5.57512E+03 -1.56692E+04 -1.02306E+04
 -7.66584E+03 -1.29336E+04 -1.52044E+03 -1.75830E+04  7.21127E+03 -2.25144E+04  1.65612E+04 -1.22984E+04
  1.08441E+04  3.75656E+03 -7.10110E+03  1.24107E+04 -2.06157E+04 -3.82846E+03 -8.60405E+03 -3.30965E+04
  2.20412E+04 -4.23082E+04  4.69654E+04 -1.94179E+04  4.37968E+04  1.94085E+04  1.55078E+04  4.35248E+04
 -1.54113E+04  3.27041E+04 -2.41487E+04  2.25492E+03 -9.90442E+03 -2.68800E+04  2.07596E+04 -3.31162E+04
  3.98019E+04 -8.91001E+03  3.47319E+04  2.39606E+04  1.69158E+04  4.48094E+04 -7.33330E+03  4.92396E+04
 -3.19499E+04  3.23212E+04 -4.13532E+04  7.46933E+03 -4.06471E+04 -1.64655E+04 -2.38717E+04 -3.80061E+04
  8.33579E+03 -3.77433E+04  2.96134E+04 -1.50671E+04  3.01358E+04  1.11060E+04  4.40180E+03  1.96477E+04
 -1.28840E+04  8.66830E+03 -9.44569E+03 -8.22916E+03  5.14570E+03 -1.15220E+04  1.81022E+04  4.67077E+03
  1.31376E+04  2.03944E+04 -5.32476E+03  2.37542E+04 -2.22979E+04  1.14983E+04 -2.70332E+04 -3.47879E+03
 -1.94396E+04 -1.71786E+04 -7.94251E+03 -1.99488E+04  5.31087E+03 -1.77858E+04  1.48457E+04 -1.61231E+04
  2.52854E+04 -1.41238E+04  3.15058E+04  2.69953E+03  2.33000E+04  1.94278E+04  4.32138E+03  3.51356E+04
 -1.74751E+04  2.94481E+04 -2.86274E+04  1.04508E+04 -2.12914E+04 -9.62411E+03 -3.98692E+03 -1.44600E+04
  1.98026E+03 -2.67866E+03 -3.01059E+03  5.94651E+03 -1.54708E+04  4.68788E+03 -1.54019E+04 -7.77384E+03
 -9.86334E+03 -1.85258E+04  6.70401E+03 -2.26144E+04  1.42416E+04 -1.62391E+04  1.80141E+04 -1.18492E+03
  1.02796E+04  1.33604E+04 -8.05030E+02  1.72148E+04 -1.19271E+04  1.10215E+04 -1.80050E+04 -3.07708E+03
 -1.36830E+04 -1.57235E+04 -2.31760E+03 -2.15807E+04  9.37165E+03 -1.73187E+04  1.79701E+04 -8.86189E+03
  1.67809E+04  1.04868E+02  1.27917E+04  5.52824E+03  6.20258E+03  6.72845E+02  8.49645E+03 -2.21126E+03
  1.64497E+04  3.08730E+03  1.84767E+04  1.47597E+04  1.21131E+04  2.95433E+04 -3.79056E+03  3.25691E+04
 -1.95955E+04  2.57456E+04 -3.10932E+04  1.31086E+04 -3.24617E+04 -1.27371E+03 -2.74781E+04 -1.83210E+04
 -1.11004E+04 -2.56114E+04  8.58531E+03 -2.43548E+04  2.11880E+04 -1.22218E+04  1.89686E+04  5.70564E+03
  7.90711E+03  1.38434E+04 -9.34862E+03  1.11531E+04 -1.51073E+04  3.86462E+03 -1.22016E+04 -8.87400E+03
 -1.20242E+03 -1.44672E+04  7.19351E+03 -1.02056E+04  1.00586E+04 -1.81297E+03  1.16144E+03  6.38573E+03
 -6.99552E+03  2.13196E+03 -5.19431E+03 -6.29120E+03  3.94300E+02 -1.29417E+04  8.92826E+03 -1.54263E+04
  1.66243E+04 -6.97798E+03  1.76772E+04  3.90877E+03  1.53075E+04  1.19707E+04  6.64348E+03  1.86103E+04
 -3.11473E+03  2.01147E+04 -1.35585E+04  1.39455E+04 -1.48396E+04  4.41153E+03 -1.17686E+04 -2.52166E+03
 -5.61065E+03 -4.73261E+03 -1.56349E+03  2.03343E+03 -1.88404E+03  2.36298E+03 -5.47037E+03  4.10008E+03
 -9.99636E+03 -1.18358E+03 -1.07220E+04 -7.53341E+03 -4.04489E+03 -1.39746E+04  4.58316E+03 -1.03307E+04
  8.94720E+03 -4.98725E+03  4.93213E+03  2.99922E+03  6.97477E+02  3.30468E+03 -5.26214E+03 -6.77665E+02
 -3.65557E+03 -6.08368E+03 -1.57075E+03 -9.93581E+03  5.70410E+03 -9.96228E+03  1.34391E+04 -6.31299E+03
  1.51152E+04  1.04303E+03  1.05925E+04  9.55837E+03  2.86843E+03  1.15769E+04 -6.15286E+03  9.92488E+03
 -9.05966E+03  3.68406E+03 -5.11087E+03 -2.49027E+03  1.63410E+03 -2.20644E+03  6.65752E+03 -6.06496E+01
  5.84110E+03  5.29012E+03  1.23174E+03  7.99057E+03 -4.92999E+03  8.97428E+03 -1.07385E+04  1.76362E+03
 -8.13613E+03 -4.83391E+03 -2.35691E+02 -9.03518E+03  5.22957E+03 -3.95195E+03  5.86938E+03  1.75121E+03
  4.35751E+02  5.46801E+03 -4.81654E+03  7.51850E+03 -7.14551E+03  3.38975E+03 -7.19492E+03 -1.54392E+03
 -6.17694E+03 -8.94604E+03  2.75214E+03 -1.09387E+04  9.82318E+03 -7.14132E+03  9.78833E+03  2.11358E+03
  6.96262E+03  9.40245E+03 -9.12049E+02  8.95748E+03 -6.31729E+03  6.47100E+03 -7.88347E+03 -8.56633E+02
 -7.30074E+03 -7.50028E+03 -1.27535E+03 -6.96014E+03  5.19962E+03 -4.90982E+03  6.37068E+03 -1.96801E+03
  3.16963E+03  8.97943E+02  5.32667E+02  1.36666E+03  1.87138E+02 -2.48430E+03  4.90781E+02 -3.72258E+03
  5.05355E+03 -2.71663E+03  8.32646E+03  8.26010E+02  8.89695E+03  5.64882E+03  6.87398E+03  1.20761E+04
 -2.59777E+03  1.34381E+04 -1.28669E+04  9.97114E+03 -1.58174E+04  2.89882E+03 -1.21583E+04 -4.11421E+03
 -6.06679E+03 -8.96626E+03 -7.67941E+02 -8.63422E+03  1.95227E+03 -3.86552E+03  2.63723E+03 -3.61183E+03
  3.00965E+03 -1.80752E+03  1.76398E+03 -3.84435E+03  4.41645E+03 -1.86903E+03  5.15789E+03 -4.17670E+01
  4.84179E+03  1.64391E+03  3.09216E+03  5.00727E+03 -2.05994E+03  4.86750E+03 -6.75881E+03  4.54019E+03
 -7.09440E+03 -2.02743E+03 -3.99165E+03 -6.23295E+03  1.08638E+03 -7.67226E+03  4.66957E+03 -7.88329E+03
  8.88264E+03 -5.22334E+03  1.07952E+04  7.31881E+01  6.79055E+03  7.18608E+03  1.68938E+03  1.07215E+04
 -3.43914E+03  8.14027E+03 -6.41017E+03  2.53980E+03 -2.54263E+03 -5.73026E+02 -1.04281E+03 -1.69835E+03
 -6.51473E+02 -2.53385E+02 -7.96714E+02  1.93788E+03 -3.44008E+03  9.04853E+02 -5.98982E+03 -2.34034E+03
 -3.76939E+03 -6.23230E+03  4.04816E+02 -8.12209E+03  3.61119E+03 -6.51971E+03  6.40794E+03 -2.58419E+03
  7.32844E+03  2.73401E+03  3.10753E+03  5.56181E+03 -1.42820E+03  7.07697E+03 -5.19363E+03  5.37624E+03
 -7.50964E+03  1.93178E+03 -5.87542E+03 -3.97750E+03 -4.73596E+02 -6.18711E+03  3.52711E+03 -4.43485E+03
  4.87163E+03 -9.17589E+02  2.20301E+03  2.81115E+02  1.90766E+03  1.14874E+03  1.17504E+03 -6.71566E+02
  2.47994E+03  1.80251E+03  1.30658E+03  1.25435E+03  2.31663E+03  3.12639E+03  2.45429E+03  3.64639E+03
 -2.55236E+03  4.55930E+03 -4.40888E+03  5.09629E+03 -6.78835E+03  1.34190E+03 -8.43673E+03 -2.69293E+03
 -3.10556E+03 -6.42140E+03  5.73383E+02 -8.07502E+03  4.24061E+03 -6.04288E+03  4.98449E+03 -2.34441E+03
  5.57803E+03  2.77340E+03  2.39504E+03  3.88487E+03 -1.96664E+03  1.94861E+03 -2.07159E+03  1.56053E+01
 -2.01254E+03 -3.33313E+03  2.62533E+03 -2.32984E+03  2.63217E+03 -2.09452E+03  2.25616E+03 -2.09521E+02
  1.88718E+03  1.33827E+03  1.68180E+03  1.27347E+03 -1.11928E+03  1.55395E+03  1.18581E+03 -6.21905E+02
  1.31901E+03  5.10846E+01  2.52886E+03  1.82897E+03  5.79182E+02  3.71063E+03  2.80453E+01  5.76295E+03
 -3.42618E+03  3.33338E+03 -4.31036E+03  1.30996E+03 -3.79947E+03 -1.61741E+03 -7.11592E+02 -2.33345E+03
  1.74924E+03 -2.17228E+03  2.01069E+03 -2.34994E+03  1.35588E+03  8.16775E+02 -1.49795E+03  2.11891E+03
 -2.37881E+03  8.23904E+02 -1.80079E+03 -1.95540E+03 -2.03468E+03 -4.09923E+03  2.08824E+02 -4.42477E+03
  1.31710E+03 -2.60938E+03  4.02229E+03  1.76061E+02  2.34420E+03  9.35050E+02  8.79457E+02  3.37070E+03
 -6.31606E+02  8.86800E+02 -1.56212E+03 -8.31904E+01  2.97075E+02 -3.16848E+03  2.87701E+03 -2.34742E+03
  3.67162E+03  1.29362E+02  4.92141E+03  2.66360E+03  2.42818E+03  4.78672E+03 -1.94241E+03  4.49804E+03
 -3.31921E+03  2.50884E+03 -3.51601E+03 -4.11642E+02 -1.11702E+03 -2.44628E+03 -1.81584E+02 -1.29163E+03
  1.41088E+03 -5.86472E+02  1.52123E+03  1.41671E+03 -3.38425E+02  2.26002E+03  8.70893E+02  2.70720E+03
 -8.45173E+02  1.26007E+03 -1.80509E+02  5.54609E+02 -1.17838E+03  1.64669E+02 -1.09384E+03  1.36244E+03
 -8.75703E+02  1.28004E+03 -2.17540E+03  2.30007E+03 -4.13427E+03  6.41996E+02 -5.48787E+03 -2.71311E+03
 -2.72368E+03 -5.55883E+03  3.05328E+01 -6.15785E+03  3.48865E+03 -5.26933E+03  6.01543E+03 -2.83424E+03
  4.91815E+03  5.23215E+02  2.85413E+03  3.06965E+03 -4.71590E+02  4.19520E+03 -1.08145E+03  3.08509E+03
 -1.67403E+03  1.36066E+03 -1.36644E+03 -6.54282E+02 -1.07178E+03 -2.55278E+02 -3.23916E+02  1.79094E+02
 -2.68076E+03 -1.21133E+03  3.98652E+02 -3.46885E+02 -1.78500E+02 -1.04885E+03  5.28253E+00 -1.64395E+03
  2.20119E+03 -3.20697E+03  2.67267E+03  1.10931E+03  2.71823E+03  2.68900E+03 -4.47003E+02  3.95966E+03
 -2.33237E+03  4.53134E+03 -3.11995E+03  2.53984E+03 -4.65545E+03 -7.29641E+02 -3.27998E+03 -2.72629E+03
 -1.52406E+03 -4.00092E+03  1.63870E+03 -3.22615E+03  1.11882E+03 -1.67992E+03  2.98975E+03  4.09439E+02
  5.21617E+02  1.61017E+03 -6.45134E+01  1.18879E+03  1.52812E+02  9.50457E+02  4.43908E+02  1.34685E+02
  6.86585E+02  1.71119E+02  1.43677E+03  1.01157E+03  2.69637E+02  1.34117E+03 -4.27734E+02  1.44393E+03
 -2.21934E+03  1.87470E+03 -2.35876E+03  7.66287E+02 -2.19767E+03 -1.09844E+03  3.69538E+02 -3.96008E+03
  1.81079E+03 -1.13978E+03  2.43526E+03 -8.84951E+02  2.54294E+03  2.57122E+02  2.46696E+03  2.47232E+03
  7.09766E+02  2.38947E+03 -9.20111E+02  5.08759E+02 -1.68039E+03  1.94551E+03 -1.11866E+03  1.07044E+02
 -1.47420E+02 -1.17507E+03 -5.99035E+02  5.08487E+02 -2.58689E+03 -4.48855E+01 -7.43104E+02 -2.78568E+02
 -3.35384E+03  5.43427E+02 -3.70250E+02 -3.38238E+03  1.78300E+03 -2.31759E+03  1.98746E+03 -1.14893E+03
  1.80643E+03  3.08895E+02  3.44623E+02  8.08376E+02  8.56299E+02  3.80671E+03 -1.69255E+03  2.29592E+03
