 $NMID ID='MM_0lb_SNR200_19hz_g60_51.RAW', FMTDAT='(8E13.5)'
 TRAMP=1., VOLUME=1. $END
  3.09540E+05  1.14268E+03  3.37049E+05  2.49075E+05  8.55945E+04  3.37862E+05 -1.32198E+05  2.51749E+05
 -1.90537E+05  8.27429E+04 -1.12222E+05 -3.43589E+04  2.58626E+03 -5.01479E+04  5.34300E+04 -6.86676E+01
  3.54022E+04  5.33413E+04 -1.71924E+04  7.53009E+04 -6.05707E+04  6.30483E+04 -8.29127E+04  3.26607E+04
 -7.92044E+04 -1.07701E+04 -5.84010E+04 -5.10737E+04 -1.51279E+04 -6.88085E+04  2.67675E+04 -4.59497E+04
  4.03342E+04  5.11718E+03  1.59858E+04  4.81391E+04 -3.44418E+04  4.66909E+04 -6.70587E+04  8.39190E+02
 -5.34012E+04 -5.58625E+04 -6.10687E+03 -7.58789E+04  3.45615E+04 -5.46103E+04  4.70702E+04 -1.74522E+04
  4.31947E+04  1.13257E+04  2.97043E+04  2.44479E+04  1.52733E+04  2.80934E+04 -5.18162E+03  2.82951E+04
 -2.28039E+04  1.11172E+04 -1.88731E+04 -5.97376E+03  4.76279E+03 -7.37612E+03  2.14091E+04  1.27483E+04
  7.40712E+03  3.38360E+04 -3.04268E+04  3.49558E+04 -6.29946E+04  3.03337E+03 -5.52788E+04 -4.28335E+04
 -1.18063E+04 -6.17404E+04  3.91881E+04 -4.46566E+04  5.67665E+04 -2.52619E+03  3.22148E+04  3.18508E+04
 -5.75630E+03  3.38716E+04 -2.95517E+04  1.53255E+04 -2.88040E+04 -4.20936E+03 -1.52247E+04 -9.88672E+03
 -8.24439E+03 -1.18424E+04 -1.45029E+03 -1.74186E+04  7.44577E+03 -2.37835E+04  1.51216E+04 -1.35520E+04
  1.20398E+04  5.76947E+03 -7.76540E+03  1.33472E+04 -1.95590E+04 -2.99220E+03 -7.94384E+03 -3.19892E+04
  2.02892E+04 -4.21128E+04  4.60311E+04 -1.98963E+04  4.39976E+04  1.85426E+04  1.54164E+04  4.12180E+04
 -1.59748E+04  3.21678E+04 -2.52064E+04  3.76973E+02 -9.30041E+03 -2.73335E+04  2.06979E+04 -3.24620E+04
  3.97799E+04 -8.84114E+03  3.28062E+04  2.36419E+04  1.64228E+04  4.55584E+04 -7.81072E+03  4.62292E+04
 -2.97506E+04  3.06557E+04 -4.01251E+04  8.73792E+03 -3.94576E+04 -1.54365E+04 -2.14920E+04 -3.57352E+04
  7.49158E+03 -3.54431E+04  3.03138E+04 -1.37255E+04  2.80676E+04  9.96375E+03  2.20994E+03  1.71351E+04
 -1.31382E+04  6.85472E+03 -9.14645E+03 -6.78181E+03  6.66422E+03 -1.02273E+04  1.65591E+04  5.47726E+03
  1.25258E+04  2.28107E+04 -6.46878E+03  2.44249E+04 -2.12495E+04  1.06925E+04 -2.59953E+04 -6.41960E+03
 -1.95353E+04 -1.60505E+04 -7.36005E+03 -1.81370E+04  3.99562E+03 -1.66134E+04  1.37889E+04 -1.61653E+04
  2.39467E+04 -1.11728E+04  2.93046E+04  1.53433E+03  2.17083E+04  1.74256E+04  4.23866E+03  3.36968E+04
 -1.61565E+04  2.81226E+04 -2.62999E+04  8.73458E+03 -1.89314E+04 -1.00131E+04 -3.85363E+03 -1.34002E+04
  2.33036E+03 -4.07450E+03 -3.43203E+03  4.75169E+03 -1.37395E+04  4.90337E+03 -1.31486E+04 -5.35632E+03
 -8.60464E+03 -1.70542E+04  3.86541E+03 -2.12402E+04  1.34918E+04 -1.45563E+04  1.51436E+04 -1.38893E+03
  9.75999E+03  1.12115E+04 -6.91687E+02  1.68537E+04 -1.03101E+04  9.30213E+03 -1.55041E+04 -2.94048E+03
 -1.31440E+04 -1.51022E+04 -1.21831E+03 -2.12944E+04  8.79652E+03 -1.52910E+04  1.70545E+04 -8.77590E+03
  1.50725E+04  7.65697E+01  1.17540E+04  4.75376E+03  5.23902E+03  2.14195E+02  8.35609E+03 -1.76406E+03
  1.50443E+04  2.01526E+03  1.56324E+04  1.27613E+04  1.09170E+04  2.64676E+04 -2.65976E+03  2.81463E+04
 -1.71382E+04  2.27183E+04 -2.50361E+04  1.13345E+04 -2.53933E+04 -1.68411E+03 -2.35305E+04 -1.61735E+04
 -1.03139E+04 -2.14341E+04  7.02712E+03 -2.02103E+04  1.75074E+04 -1.08107E+04  1.56656E+04  3.71173E+03
  7.77701E+03  1.18961E+04 -8.84423E+03  1.22608E+04 -1.33043E+04  3.05970E+03 -9.87865E+03 -8.42583E+03
 -1.66788E+02 -1.28905E+04  6.86043E+03 -1.00158E+04  7.90409E+03 -1.32404E+03  1.91388E+03  4.97043E+03
 -6.71573E+03  1.20250E+03 -3.68894E+03 -4.95340E+03  9.61953E+02 -9.96686E+03  9.18521E+03 -1.10444E+04
  1.35480E+04 -5.39277E+03  1.37204E+04  3.19272E+03  1.22964E+04  9.52637E+03  4.99955E+03  1.47472E+04
 -1.39397E+03  1.72762E+04 -9.55986E+03  1.00629E+04 -1.26594E+04  3.12785E+03 -9.38281E+03 -2.23275E+03
 -4.80359E+03 -3.59560E+03 -5.72688E+02  1.86342E+03 -1.80110E+03  2.09481E+03 -2.81139E+03  2.76673E+03
 -8.34074E+03 -4.88537E+02 -8.20996E+03 -6.53846E+03 -2.66584E+03 -1.12400E+04  3.71459E+03 -9.10931E+03
  7.41070E+03 -4.24144E+03  5.02682E+03  2.69414E+03 -1.32990E+01  3.47735E+03 -5.19767E+03  3.01198E+02
 -3.93586E+03 -4.99589E+03 -1.10874E+03 -7.34724E+03  3.42258E+03 -9.17938E+03  1.03778E+04 -4.81897E+03
  1.29843E+04  7.97613E+02  8.99993E+03  6.25594E+03  2.14452E+03  9.39325E+03 -6.28697E+03  8.33842E+03
 -7.02375E+03  2.28812E+03 -3.14985E+03 -2.21257E+03  1.87538E+02 -2.65080E+03  4.24149E+03 -1.31206E+03
  4.96402E+03  3.41324E+03  1.77743E+03  5.65102E+03 -4.27776E+03  6.76030E+03 -8.21406E+03  9.94219E+02
 -5.68488E+03 -3.56755E+03 -4.74796E+01 -8.35710E+03  3.98142E+03 -3.30387E+03  2.89663E+03  1.12857E+03
  1.11281E+03  2.72345E+03 -3.67938E+03  5.56752E+03 -4.67831E+03  4.38700E+03 -4.62304E+03 -9.60698E+02
 -3.96388E+03 -6.50747E+03  1.39755E+03 -7.63173E+03  4.51874E+03 -5.05332E+03  5.91191E+03  4.35370E+02
  4.13584E+03  4.45619E+03 -6.65880E+02  7.34438E+03 -4.48723E+03  4.27132E+03 -4.96399E+03 -1.82938E+03
 -5.70316E+03 -5.30593E+03 -1.30985E+03 -5.12831E+03  3.20061E+03 -4.94705E+03  3.64807E+03 -2.13312E+03
  2.83774E+03  5.09516E+02  5.86299E+02  1.49443E+03  1.04871E+03  3.76796E+02  2.47472E+02 -9.86291E+02
  3.76040E+03 -1.06505E+03  5.59259E+03  7.91579E+02  5.48840E+03  3.21240E+03  4.71911E+03  8.37227E+03
 -3.11151E+02  8.65507E+03 -6.99404E+03  6.05377E+03 -1.07648E+04  3.02769E+02 -6.73687E+03 -3.39130E+03
 -3.80972E+03 -5.37594E+03 -1.48411E+03 -5.18244E+03  3.17023E+03 -2.17660E+03  1.71209E+03 -2.85339E+03
  2.17166E+03 -7.90889E+02  1.47610E+03 -2.89072E+03  2.91327E+03 -1.64652E+03  2.30817E+03  9.58644E+02
  4.55256E+03  1.94222E+03  8.58083E+02  3.23874E+03 -9.62210E+02  3.63813E+03 -4.16952E+03  3.35788E+03
 -4.20175E+03 -2.44112E+03 -8.04087E+02 -3.32550E+03  1.42825E+03 -5.04034E+03  3.02392E+03 -5.35324E+03
  4.75924E+03 -2.49421E+03  6.63966E+03  3.13341E+01  4.82397E+03  4.60436E+03  1.62186E+03  4.87272E+03
 -2.93041E+03  5.61250E+03 -4.33006E+03  2.11712E+03 -1.83187E+03 -1.90068E+03 -1.01300E+03 -6.56091E+02
  2.68466E+02  4.91632E+02 -1.75023E+03  2.92672E+03 -2.32148E+03  1.09691E+03 -4.06458E+03 -2.08561E+02
 -7.32435E+02 -3.99028E+03  9.85230E+02 -4.54912E+03  2.25654E+03 -4.15988E+03  4.60774E+03 -1.48720E+03
  4.51222E+03  2.12240E+03  1.38059E+03  4.01643E+03 -1.28499E+03  4.62724E+03 -2.89437E+03  2.03483E+03
 -3.32606E+03  3.27224E+02 -2.88053E+03 -2.86840E+03 -1.05421E+03 -2.58577E+03  1.10930E+03 -2.68351E+03
  3.38666E+03 -2.22997E+03  2.75051E+03 -1.87153E+02 -3.56108E+02  2.14904E+03  9.90154E+02 -1.43542E+02
  1.73589E+03  3.19494E+02  1.66695E+03  6.64708E+02  1.45591E+03  2.31084E+03  4.83770E+02  5.34807E+02
 -1.21777E+03  1.78431E+03 -2.15925E+03  3.26616E+03 -2.78942E+03 -5.43280E+01 -4.93841E+03 -9.39291E+01
 -1.29739E+03 -2.96161E+03  8.77277E+02 -3.71506E+03  8.25898E+02 -2.56183E+03  4.13141E+03 -3.76049E+02
  2.58498E+03  2.37749E+03  1.95599E+02  3.19910E+03 -2.18227E+02  1.98863E+03 -2.21447E+03 -8.13675E+02
  2.09888E+02 -1.12776E+03  1.14054E+03 -1.43957E+03  1.41814E+03 -8.69437E+02  4.66637E+02  6.38352E+02
  1.72828E+03  3.02477E+02  1.71320E+02  3.69376E+02 -7.78388E+02  1.00009E+03  1.03552E+03  5.67850E+02
 -5.13004E+01 -2.84184E+02  2.66039E+03  7.57728E+02  3.09107E+02  1.26114E+03  2.11714E+02  1.61754E+03
 -1.48646E+03  1.93675E+03 -1.83273E+03 -3.10225E+02 -1.84924E+03 -5.26736E+02  8.66565E+01 -6.35388E+02
  6.48691E+02 -3.36988E+02  3.53172E+02 -1.60884E+03 -3.50667E+02  1.90374E+03 -1.21022E+03  9.25324E+02
 -1.56106E+03  7.09577E+02 -8.10564E+02 -1.40470E+03 -9.39033E+02 -1.27721E+03 -1.58036E+02 -1.48169E+03
  1.86438E+03 -6.34769E+02  6.40859E+02  1.16683E+02  7.97590E+02 -1.33902E+02 -2.60991E+02  2.06403E+03
  3.26983E+02 -9.94881E+02 -5.61505E+02  9.71319E+02  3.62239E+02 -8.20928E+02  1.56072E+03 -9.09048E+02
  4.95584E+02  9.02937E+02  3.51742E+03  9.41028E+02  1.56624E+03  1.22804E+03  1.95304E+02  5.06108E+01
 -1.44528E+03  7.47917E+01 -1.10222E+03 -1.23495E+01  2.54881E+02 -3.12121E+02  8.21520E+02  3.72524E+02
  1.44056E+03 -1.55701E+03  1.18578E+03  1.31473E+03  6.27161E+02  9.74046E+02 -6.87162E+01  3.99329E+02
  4.30158E+02  8.67964E+02 -4.75522E+02 -3.24846E+02  7.21936E+02 -3.60199E+02 -6.43327E+02  3.46935E+02
 -2.77175E+02  1.00802E+03 -7.45475E+02 -7.96351E+02 -2.02447E+03 -4.26528E+02 -1.96443E+03 -1.50296E+03
 -9.69341E+02 -2.31224E+03 -4.46639E+00 -2.05232E+03  3.35435E+02 -2.39668E+03  2.49635E+03 -1.01915E+03
  2.26611E+03 -2.96289E+01  2.01559E+03  1.15498E+03 -7.48783E+02  1.55392E+03 -1.58852E+03  1.18983E+03
 -8.99390E+02 -6.40539E+01 -4.54668E+02 -1.08077E+03 -9.91669E+02 -1.66200E+02 -3.15131E+02  2.44982E+02
 -2.54556E+03 -3.86151E+02 -2.43098E+01  4.76029E+02  4.99902E+01 -5.43208E+02 -9.58233E+02 -1.42136E+03
  2.38366E+03  2.56194E+02 -6.33049E+02  2.45456E+02  7.71126E+02  7.04859E+02 -1.46958E+03  1.52886E+03
 -1.83059E+03  8.14288E+02 -1.42713E+03  1.28578E+03 -4.84137E+02  8.14198E+02 -1.06098E+03 -1.24871E+03
 -1.22685E+03 -9.21370E+02  9.63983E+02 -7.39048E+02 -2.98522E+02 -5.16012E+02  1.42551E+02  4.66627E+02
  3.53865E+02 -1.02843E+03  2.84785E+02 -8.85601E+01 -1.01172E+03  3.75494E+02 -4.41564E+01 -6.44847E+02
 -5.77630E+02  1.23358E+02 -3.26299E+02 -2.85672E+02  3.35761E+01  4.91098E+02  3.49782E+02  1.54285E+02
 -1.00104E+03  1.57442E+03 -3.57894E+02 -2.11497E+01 -2.08470E+03 -1.26394E+03  5.42403E+01 -1.65380E+03
  2.72688E+02 -1.14097E+03 -5.77457E+02  1.05796E+03  1.08325E+03 -9.38356E+02 -3.73545E+01 -1.51264E+02
 -4.91935E+01  1.46389E+03 -1.02276E+03  1.59967E+02  7.91514E+02  8.75177E+02  3.83179E+00 -1.19967E+02
  2.56678E+02 -2.58952E+02 -5.70853E+02 -6.79550E+01  3.57840E+02  8.54882E+02 -4.89625E+02 -2.08863E+02
 -7.73695E+02 -2.26428E+02 -8.85789E+02 -1.02178E+03  3.78381E+02 -1.52550E+03  3.67998E+02  2.57014E+02
  7.97571E+02  3.59320E+02 -1.27337E+03 -8.62718E+02 -4.72162E+02 -4.29428E+02  3.56287E+02  9.60001E+02
