 $NMID ID='MM_0lb_SNR200_18hz_g40_50.RAW', FMTDAT='(8E13.5)'
 TRAMP=1., VOLUME=1. $END
  3.10176E+05  1.37612E+02  3.36574E+05  2.51393E+05  8.45254E+04  3.37631E+05 -1.32073E+05  2.50852E+05
 -1.90410E+05  8.21655E+04 -1.10984E+05 -3.28851E+04  2.06924E+03 -5.01640E+04  5.38689E+04  9.70676E+00
  3.52390E+04  5.30928E+04 -1.72945E+04  7.47113E+04 -5.97487E+04  6.26649E+04 -8.42357E+04  3.18271E+04
 -8.00818E+04 -1.06449E+04 -5.58643E+04 -4.98615E+04 -1.43770E+04 -6.86987E+04  2.62194E+04 -4.48460E+04
  3.83418E+04  4.08857E+03  1.59367E+04  4.50591E+04 -3.40606E+04  4.63877E+04 -6.52745E+04 -4.94715E+02
 -5.27284E+04 -5.61145E+04 -6.94723E+03 -7.61706E+04  3.22131E+04 -5.35957E+04  4.64170E+04 -1.56377E+04
  4.14477E+04  1.07844E+04  3.08716E+04  2.47457E+04  1.60604E+04  2.90720E+04 -4.37498E+03  2.77593E+04
 -2.09522E+04  1.31975E+04 -1.84644E+04 -4.00497E+03  3.72415E+03 -8.30226E+03  2.16702E+04  1.09121E+04
  7.31183E+03  3.25295E+04 -2.95377E+04  3.44866E+04 -6.09002E+04  2.33844E+03 -5.53783E+04 -4.15948E+04
 -1.31588E+04 -6.00544E+04  3.81073E+04 -4.37834E+04  5.45539E+04 -1.97888E+03  3.30696E+04  3.01777E+04
 -6.74253E+03  3.36569E+04 -2.81926E+04  1.21991E+04 -2.62959E+04 -5.92682E+03 -1.46925E+04 -9.83211E+03
 -6.46867E+03 -1.15287E+04 -6.28901E+02 -1.65100E+04  5.77163E+03 -2.26829E+04  1.47863E+04 -1.46302E+04
  1.17448E+04  4.64288E+03 -5.83557E+03  1.40195E+04 -1.93400E+04 -1.54197E+03 -7.95184E+03 -2.98464E+04
  2.02562E+04 -4.06810E+04  4.48687E+04 -1.80806E+04  4.10481E+04  1.80662E+04  1.46006E+04  4.08643E+04
 -1.48653E+04  3.01039E+04 -2.35984E+04  1.20537E+03 -8.52180E+03 -2.67328E+04  2.03441E+04 -3.08132E+04
  3.72711E+04 -6.82253E+03  3.20529E+04  2.30579E+04  1.52185E+04  4.35123E+04 -7.89360E+03  4.47675E+04
 -2.83225E+04  2.94230E+04 -3.73374E+04  7.60220E+03 -3.81717E+04 -1.42476E+04 -2.04045E+04 -3.42307E+04
  6.61657E+03 -3.34279E+04  2.93723E+04 -1.20276E+04  2.68620E+04  1.09775E+04  3.39903E+03  1.78350E+04
 -1.33597E+04  6.51922E+03 -8.63356E+03 -7.07074E+03  6.40249E+03 -9.32398E+03  1.64606E+04  6.03413E+03
  1.16107E+04  2.17250E+04 -5.63231E+03  2.21267E+04 -2.12642E+04  8.92484E+03 -2.41027E+04 -7.57381E+03
 -1.74348E+04 -1.71480E+04 -5.07825E+03 -1.54145E+04  4.21853E+03 -1.37222E+04  1.24458E+04 -1.39043E+04
  2.04699E+04 -1.17906E+04  2.78195E+04  1.17136E+03  2.06826E+04  1.60296E+04  3.89269E+03  3.17276E+04
 -1.59789E+04  2.82211E+04 -2.51017E+04  8.73786E+03 -2.00969E+04 -9.67056E+03 -4.23935E+03 -1.41073E+04
  2.62570E+03 -3.95873E+03 -1.80958E+03  4.92199E+03 -1.30600E+04  5.36375E+03 -1.28166E+04 -5.61459E+03
 -9.25067E+03 -1.53037E+04  5.20036E+03 -1.93002E+04  1.26178E+04 -1.41934E+04  1.41868E+04 -1.80569E+03
  8.55498E+03  1.07798E+04 -6.57583E+02  1.52879E+04 -9.95396E+03  8.73956E+03 -1.49806E+04 -3.62680E+03
 -1.18013E+04 -1.32343E+04 -1.71739E+03 -1.87070E+04  9.07085E+03 -1.46615E+04  1.62593E+04 -6.36342E+03
  1.54148E+04  5.08798E+02  1.05362E+04  4.02640E+03  5.46799E+03  1.90364E+02  8.25657E+03 -1.83577E+03
  1.32198E+04  2.59801E+03  1.46506E+04  1.23686E+04  9.28085E+03  2.45018E+04 -1.98509E+03  2.58508E+04
 -1.50334E+04  1.95781E+04 -2.34005E+04  8.88595E+03 -2.43783E+04 -5.18820E+02 -2.11298E+04 -1.41794E+04
 -1.07588E+04 -1.88794E+04  6.72824E+03 -1.83278E+04  1.68623E+04 -1.02636E+04  1.51504E+04  3.69148E+03
  6.00137E+03  1.07197E+04 -5.97419E+03  1.08296E+04 -1.35554E+04  2.53941E+03 -9.70747E+03 -8.35824E+03
 -1.48200E+02 -1.18465E+04  6.75909E+03 -9.68449E+03  8.30664E+03 -1.98407E+03  1.48572E+03  6.02639E+03
 -4.99694E+03  1.18357E+03 -2.93293E+03 -4.51041E+03  2.96111E+02 -1.07474E+04  9.05921E+03 -1.01871E+04
  1.28728E+04 -3.43030E+03  1.15374E+04  3.14654E+03  8.81281E+03  9.71179E+03  5.49440E+03  1.49261E+04
 -9.69547E+02  1.49552E+04 -9.08085E+03  1.04960E+04 -1.21263E+04  4.03494E+03 -7.77068E+03 -1.45384E+03
 -4.80151E+03 -3.51249E+03 -9.31980E+02  1.39028E+03 -2.36090E+03  2.58071E+03 -3.53392E+03  4.43045E+03
 -8.57626E+03 -5.53547E+02 -9.27598E+03 -6.81569E+03 -3.01448E+03 -1.11823E+04  3.76621E+03 -8.70313E+03
  7.11390E+03 -2.41875E+03  6.09548E+03  3.23643E+03  6.93504E+02  2.38245E+03 -3.66363E+03 -1.13250E+02
 -4.48159E+03 -5.79948E+03 -9.65533E+02 -7.30190E+03  4.29615E+03 -7.74936E+03  9.84607E+03 -4.06489E+03
  1.23741E+04  5.06298E+01  9.42310E+03  5.92110E+03  1.54247E+03  1.04684E+04 -6.04486E+03  9.12527E+03
 -7.10702E+03  2.63983E+03 -3.19775E+03 -1.07449E+03  9.84976E+02 -2.48578E+03  5.70591E+03 -1.34072E+03
  3.94116E+03  4.02974E+03  9.89858E+02  6.67082E+03 -4.37832E+03  6.82526E+03 -7.80949E+03  1.07976E+03
 -3.93700E+03 -4.44555E+03  6.57330E+02 -6.60928E+03  4.11440E+03 -3.26384E+03  3.81355E+03  6.01945E+02
  1.18125E+03  3.41810E+03 -5.31907E+03  5.00083E+03 -4.83226E+03  3.55644E+03 -4.55522E+03 -1.10063E+03
 -3.10952E+03 -5.91515E+03  1.18596E+03 -7.00123E+03  6.08471E+03 -5.12689E+03  6.94906E+03  1.68587E+03
  5.14272E+03  5.43577E+03 -1.58922E+02  7.64647E+03 -5.12340E+03  3.93427E+03 -6.11578E+03 -1.00637E+03
 -5.28722E+03 -4.18282E+03 -1.57649E+03 -4.56939E+03  2.40216E+03 -5.06453E+03  3.60891E+03 -3.97815E+03
  2.58360E+03  5.73481E+02 -2.37664E+02  1.45357E+03  3.31927E+02 -2.81497E+02  1.08486E+03 -2.05346E+03
  3.40809E+03 -1.42494E+03  4.85849E+03  1.85425E+03  5.86457E+03  4.08749E+03  4.29515E+03  6.29057E+03
 -1.30217E+03  9.88015E+03 -7.75949E+03  6.90505E+03 -9.51529E+03  5.78876E+01 -7.41100E+03 -3.68802E+03
 -3.90675E+03 -6.83658E+03 -4.30091E+01 -5.29297E+03  2.09524E+03 -1.94882E+03  1.85485E+03 -2.14207E+03
  6.94172E+02 -4.92869E+02  9.87275E+02 -2.61437E+03  2.82096E+03 -2.05945E+03  3.23334E+03  7.48611E+01
  4.27860E+03  1.23137E+02  1.32389E+03  4.01150E+03 -1.29418E+03  3.41562E+03 -4.75307E+03  2.95446E+03
 -5.06010E+03 -6.76964E+02 -1.11662E+03 -3.50150E+03  1.19237E+03 -4.30328E+03  3.37443E+03 -4.45081E+03
  5.37098E+03 -3.78908E+03  7.63486E+03  3.61272E+02  5.62461E+03  4.40165E+03  1.12645E+03  5.43929E+03
 -2.00028E+03  4.94294E+03 -4.14042E+03  2.96911E+03 -2.37731E+03 -1.76625E+02  7.23244E+02 -1.23099E+03
 -3.58389E+02  8.73470E+02 -5.58538E+02  2.14294E+03 -2.63223E+03  1.77568E+03 -4.50831E+03 -5.39311E+02
 -1.16229E+03 -3.47182E+03  1.69126E+03 -4.32183E+03  1.76532E+03 -3.81933E+03  5.05089E+03 -2.23095E+02
  3.36097E+03  1.96522E+03  2.62897E+03  2.81776E+03 -1.70585E+03  5.50765E+03 -2.45621E+03  2.37758E+03
 -4.02828E+03  1.20540E+03 -4.00236E+03 -1.94791E+03  2.22025E+02 -3.62346E+03  1.12827E+03 -2.84487E+03
  2.26430E+03 -1.44991E+03  2.68249E+03  2.58290E+02  1.04942E+03  3.60457E+02  1.04027E+03 -2.64000E+02
  1.03935E+03  7.82191E+02  7.52653E+02  9.95088E+02  1.53700E+03  1.69112E+03  1.18918E+03  2.10492E+03
 -1.50169E+03  4.62434E+03 -1.92811E+03  4.45987E+03 -3.68829E+03  8.59739E+02 -5.39384E+03 -6.43022E+02
 -1.52097E+03 -3.39099E+03 -6.69845E+01 -4.70300E+03  9.93827E+02 -2.56439E+03  3.46784E+03 -5.21852E+02
  2.62634E+03  1.28014E+03  3.95415E+02  1.80281E+03 -1.64712E+03  1.59360E+03 -1.77239E+03 -4.83211E+02
 -1.02469E+02 -9.41466E+02  3.29640E+02 -1.95931E+03  1.93628E+03 -7.27374E+02  6.89314E+02 -1.87711E+02
  6.29341E+02  2.19565E+03 -5.54278E+02  3.67371E+02  8.31854E+02 -6.47909E+02  8.59821E+02 -4.39374E+02
  2.20197E+02 -2.24996E+02  2.05903E+03  9.02838E+02  9.20252E+02  2.45412E+03 -8.67628E+02  3.39076E+03
 -1.53809E+03  1.78449E+03 -2.78988E+03  6.37524E+02 -2.38699E+03 -1.84774E+02  3.79223E+02 -1.69281E+03
  9.79386E+02 -1.27290E+03  5.26430E+02 -1.01731E+03  1.28519E+03  1.08824E+03 -1.26233E+03  7.87369E+02
 -1.45743E+03  2.64855E+03 -1.97134E+03 -2.24343E+03 -9.00916E+01 -2.01113E+03  2.96532E+01 -2.50121E+03
  7.14073E+02 -1.05564E+03  6.50844E+01 -2.37321E+02  1.58948E+03 -2.24223E+02  4.71892E+02  1.18825E+03
 -4.18468E+02  7.39803E+02 -1.07952E+03 -3.02940E+02  9.06995E+02 -1.14770E+03  8.87004E+02 -1.73080E+02
  1.14993E+03  5.29131E+02  3.34450E+03 -2.24267E+02  2.02023E+03  8.37146E+02  2.80649E+01  2.04323E+03
 -1.53780E+03  5.82612E+02 -2.80894E+02 -3.39495E+02 -1.31792E+03 -7.27156E+02  4.78610E+02 -1.04111E+03
  7.93708E+02 -9.35832E+02  1.14472E+03  1.33191E+03  2.75492E+02  1.32883E+03  6.89208E+02  2.39107E+03
  4.52872E+02  1.57485E+03 -4.86734E+02  5.04086E+01 -9.89035E+01  4.74042E+02  4.95701E+02 -3.50947E+02
 -6.74371E+02  3.65978E+02 -1.74192E+03  8.08569E+02 -1.94544E+03  9.54059E+02 -2.09367E+03 -1.87888E+03
 -6.46919E+02 -3.52158E+03  4.24748E+02 -3.01709E+03  2.33719E+03 -2.92002E+03  2.90492E+03 -1.62806E+02
  2.53177E+03  1.00247E+03  1.92021E+03  1.89441E+03  5.01017E+02  8.98961E+02 -5.31358E+02  8.66209E+02
 -1.09165E+03  8.49844E+02 -3.69313E+02 -3.90937E+02 -1.55299E+02  1.53017E+02 -1.52679E+02  5.97044E+02
 -1.36072E+03  2.03706E+02 -1.06859E+03 -6.79703E+02  7.80208E+02 -1.01038E+03  2.22725E+02 -7.09183E+02
  9.51327E+02 -6.98800E+02  5.63149E+02  1.52032E+02  1.95912E+03  8.10592E+02 -3.56849E+02  1.69807E+03
 -1.93739E+03  1.08994E+03 -1.00625E+03  5.03546E+02 -1.39540E+03 -8.63192E+01 -5.80680E+02 -1.22178E+03
 -1.00743E+03 -8.91869E+02  1.38295E+02 -9.49276E+02  1.51703E+03 -5.90417E+02  5.52624E+02  4.17663E+02
  1.54544E+03  5.83137E+02 -5.65374E+02  3.56373E+02 -5.34229E+02 -6.76681E+02  2.99771E+02 -1.12816E+02
  1.09231E+02  7.02182E+02  3.60357E+02  8.30890E+02  1.68153E+02  1.09008E+03  1.03125E+02 -3.66090E+02
 -6.93106E+02  2.29579E+02 -8.25104E+02 -5.37502E+02 -9.62624E+02 -1.34301E+03 -1.14368E+02 -2.12212E+03
  1.15755E+03 -9.62920E+02  5.41477E+02  2.81340E+02  2.12442E+03 -2.01899E+02  2.67222E+02  1.79865E+03
  7.63951E+02  4.35706E+02 -7.22373E+02  8.18554E+02 -1.90174E+02  6.00264E+02 -8.03234E+02 -8.20780E+02
 -9.70187E+01  3.19389E+02 -9.93415E+02  3.05983E+02 -5.33703E+02  1.11112E+02 -9.68566E+02 -2.64603E+02
 -1.94760E+03  6.67496E+02 -6.90920E+02 -6.45778E+02  2.77408E+02 -2.44030E+03  1.00231E+03  6.53217E+02
  6.48191E+02 -8.90210E+02  2.25993E+02  6.97330E+02  7.44089E+02  1.14832E+02  5.33690E+01  1.68118E+03
